timestamp,Red,IR
12:22:14.550,-38.5626,-88.5003
12:22:14.560,-39.7502,-89.6253
12:22:14.572,-38.2501,-88.9378
12:22:14.581,-34.2501,-83.3128
12:22:14.591,-27.5001,-72.5003
12:22:14.601,-19.5626,-57.5002
12:22:14.611,-9.8125,-38.2501
12:22:14.621,-0.25,-18.0001
12:22:14.631,9.0625,1.75
12:22:14.642,18.3751,20.9376
12:22:14.651,26.9376,40.3127
12:22:14.661,34.1876,54.0627
12:22:14.671,39.0627,67.6253
12:22:14.680,44.0002,77.9378
12:22:14.690,47.8127,87.3128
12:22:14.701,50.9377,94.7504
12:22:14.710,53.9377,102.2504
12:22:14.721,56.6877,109.1879
12:22:14.732,59.4377,114.8129
12:22:14.740,61.9377,120.5005
12:22:14.752,64.1877,124.7505
12:22:14.761,65.1252,128.0005
12:22:14.772,66.1253,130.688
12:22:14.781,65.6253,131.813
12:22:14.792,65.1878,131.8755
12:22:14.801,64.0002,130.063
12:22:14.811,62.1252,127.688
12:22:14.821,59.2502,122.6255
12:22:14.831,56.1877,117.0004
12:22:14.841,52.6877,111.0004
12:22:14.851,49.6252,104.1254
12:22:14.861,45.5002,95.8129
12:22:14.894,42.2502,90.5004
12:22:14.897,39.9377,84.8128
12:22:14.900,38.3126,80.3128
12:22:14.902,36.9376,76.0628
12:22:14.943,33.6876,71.0628
12:22:14.944,32.0626,67.1878
12:22:14.947,30.1251,62.1877
12:22:14.951,27.1876,57.9377
12:22:14.956,25.0626,53.6252
12:22:14.970,22.6251,48.1252
12:22:14.973,20.1251,43.0002
12:22:15.005,18.3751,38.2501
12:22:15.008,15.6876,33.6876
12:22:15.036,13.6876,28.2501
12:22:15.037,10.8125,22.8751
12:22:15.052,9.0625,17.8751
12:22:15.052,6.5,13.1876
12:22:15.053,3.875,8.8125
12:22:15.057,2.0625,3.4375
12:22:15.066,-0.3125,-2.75
12:22:15.075,-2.875,-6.75
12:22:15.087,-4.75,-12.25
12:22:15.097,-7.1875,-16.4376
12:22:15.106,-9.375,-20.6876
12:22:15.115,-11.125,-26.3751
12:22:15.131,-13.8126,-29.8126
12:22:15.138,-15.5001,-34.8126
12:22:15.146,-17.3126,-38.1251
12:22:15.161,-18.6876,-42.3127
12:22:15.169,-20.1876,-46.5627
12:22:15.177,-22.5626,-50.0627
12:22:15.186,-23.5626,-53.3127
12:22:15.197,-25.5001,-56.2502
12:22:15.205,-27.5626,-61.5002
12:22:15.216,-28.7501,-65.0627
12:22:15.226,-29.5626,-67.6878
12:22:15.236,-31.8126,-69.9378
12:22:15.246,-32.8126,-74.2503
12:22:15.255,-34.9376,-77.2503
12:22:15.267,-35.9376,-80.5003
12:22:15.276,-37.8751,-83.3128
12:22:15.286,-39.0001,-86.3753
12:22:15.295,-40.8127,-89.5003
12:22:15.306,-40.7502,-92.1254
12:22:15.316,-41.8752,-94.5629
12:22:15.326,-42.5002,-95.6879
12:22:15.336,-43.8752,-97.5004
12:22:15.345,-43.4377,-100.3754
12:22:15.357,-45.2502,-102.8129
12:22:15.365,-43.6877,-102.5629
12:22:15.376,-40.8752,-97.0629
12:22:15.386,-35.5001,-87.6253
12:22:15.395,-27.0626,-73.5003
12:22:15.405,-17.7501,-55.3752
12:22:15.436,-8.25,-35.3751
12:22:15.438,2.125,-14.0001
12:22:15.444,11,6.3125
12:22:15.447,20.0626,24.6251
12:22:15.456,26.9376,40.3127
12:22:15.465,34.0626,54.0002
12:22:15.476,37.8751,65.6878
12:22:15.490,42.2502,75.6253
12:22:15.496,46.4377,84.0628
12:22:15.505,50.0627,91.8754
12:22:15.515,52.7502,98.7504
12:22:15.527,54.9377,103.8754
12:22:15.537,57.0627,110.8754
12:22:15.546,59.3752,114.9379
12:22:15.555,59.8752,118.2505
12:22:15.565,60.3127,119.7505
12:22:15.575,59.7502,122.3755
12:22:15.585,59.3752,122.938
12:22:15.596,58.9377,121.188
12:22:15.605,57.2502,118.7505
12:22:15.615,54.9377,115.0004
12:22:15.627,51.6252,109.4379
12:22:15.636,48.1252,104.6254
12:22:15.645,46.0002,98.1879
12:22:15.656,42.9377,90.8754
12:22:15.665,39.5002,84.3753
12:22:15.691,36.9376,79.7503
12:22:15.693,34.8126,74.6253
12:22:15.696,33.1876,70.5003
12:22:15.736,31.3751,66.0628
12:22:15.745,29.5001,62.0002
12:22:15.745,27.4376,58.4377
12:22:15.746,24.6876,54.3127
12:22:15.749,23.1251,49.3752
12:22:15.757,19.6876,43.9377
12:22:15.794,17.5001,38.3751
12:22:15.795,14.1876,32.8126
12:22:15.798,12.3125,28.8126
12:22:15.801,10.0625,22.5001
12:22:15.807,6.75,17.1876
12:22:15.843,5.0625,11.625
12:22:15.846,2.1875,7.3125
12:22:15.847,0,2.125
12:22:15.855,-2.5625,-3.4375
12:22:15.856,-5.0625,-8.0625
12:22:15.871,-6.375,-13.125
12:22:15.877,-9.625,-17.4376
12:22:15.885,-12.375,-21.5626
12:22:15.897,-14.3126,-27.2501
12:22:15.905,-15.8126,-31.7501
12:22:15.916,-17.5626,-36.3751
12:22:15.926,-19.1876,-39.6877
12:22:15.936,-21.7501,-43.3127
12:22:15.946,-22.8751,-47.0002
12:22:15.956,-24.3751,-51.4377
12:22:15.965,-25.2501,-53.9377
12:22:15.976,-26.8751,-57.1252
12:22:15.988,-27.9376,-60.2502
12:22:15.995,-28.6251,-63.4377
12:22:16.006,-30.1251,-66.5628
12:22:16.016,-32.1876,-69.7503
12:22:16.026,-33.3126,-73.2503
12:22:16.035,-33.7501,-74.2503
12:22:16.046,-35.1876,-77.8753
12:22:16.055,-36.1876,-79.0003
12:22:16.066,-37.2501,-82.6253
12:22:16.077,-38.3126,-84.1878
12:22:16.087,-40.1252,-87.5628
12:22:16.096,-39.8752,-89.6878
12:22:16.107,-41.9377,-91.1879
12:22:16.116,-42.2502,-94.0629
12:22:16.126,-43.3752,-95.7504
12:22:16.135,-44.0002,-98.0004
12:22:16.146,-43.6877,-99.1879
12:22:16.155,-45.6252,-101.7504
12:22:16.167,-46.0002,-104.3754
12:22:16.176,-47.1877,-106.0004
12:22:16.185,-44.9377,-104.1254
12:22:16.196,-42.1252,-98.9379
12:22:16.205,-35.5626,-88.6253
12:22:16.216,-26.9376,-73.6253
12:22:16.225,-17.3126,-53.6252
12:22:16.246,-7.875,-32.5626
12:22:16.252,3.9375,-11.9375
12:22:16.260,11.8125,8.1875
12:22:16.271,20.8126,26.0001
12:22:16.281,26.6251,40.9377
12:22:16.291,32.5001,54.3752
12:22:16.302,37.0626,64.8127
12:22:16.322,40.3752,72.4378
12:22:16.324,43.1877,79.6878
12:22:16.334,45.3752,85.3753
12:22:16.340,47.0627,91.5629
12:22:16.356,49.5002,96.8754
12:22:16.364,51.3127,101.1254
12:22:16.371,53.3127,104.8129
12:22:16.393,54.0627,108.3129
12:22:16.396,55.0002,110.8754
12:22:16.401,55.6877,113.6879
12:22:16.429,55.7502,112.5629
12:22:16.433,53.0002,111.0629
12:22:16.524,51.0002,107.0004
12:22:16.532,48.7502,101.3754
12:22:16.533,45.1877,95.3754
12:22:16.533,42.1252,90.1254
12:22:16.558,38.3751,83.1878
12:22:16.560,36.3126,78.8753
12:22:16.563,34.1251,74.8753
12:22:16.565,32.7501,69.8753
12:22:16.565,30.3751,65.9378
12:22:16.572,28.9376,62.5627
12:22:16.581,27.5626,58.4377
12:22:16.591,26.3126,54.9377
12:22:16.600,24.6251,51.3127
12:22:16.611,22.9376,47.6877
12:22:16.623,20.0001,43.8127
12:22:16.631,18.0626,38.3751
12:22:16.659,15.3126,33.8126
12:22:16.662,13.9376,29.2501
12:22:16.664,11.8125,24.6251
12:22:16.672,9.125,19.0001
12:22:16.681,8.1875,15.6251
12:22:16.691,5.5625,11.1875
12:22:16.701,3.6875,5.8125
12:22:16.711,1.5,1
12:22:16.720,-1.9375,-3.625
12:22:16.732,-15.1251,-31.6876
12:22:16.740,-16.6876,-35.8126
12:22:16.752,-17.5001,-39.0002
12:22:16.761,-19.8126,-43.8127
12:22:16.770,-21.2501,-46.8752
12:22:16.781,-22.7501,-49.5002
12:22:16.791,-24.4376,-53.3127
12:22:16.802,-26.1251,-57.0002
12:22:16.810,-27.7501,-60.3752
12:22:16.820,-28.5626,-63.8752
12:22:16.831,-30.4376,-66.1253
12:22:16.841,-31.0626,-68.1253
12:22:16.850,-31.9376,-70.8753
12:22:16.860,-33.6876,-73.1878
12:22:16.870,-34.9376,-76.1253
12:22:16.881,-35.9376,-79.2503
12:22:16.890,-37.0001,-82.3128
12:22:16.900,-38.2501,-83.6878
12:22:16.911,-38.5626,-87.8753
12:22:16.921,-40.9377,-90.0003
12:22:16.931,-41.3752,-93.0004
12:22:16.940,-43.6877,-94.2504
12:22:16.950,-43.8127,-98.3754
12:22:16.960,-45.1877,-99.7504
12:22:16.970,-46.1877,-103.1254
12:22:16.981,-45.3752,-101.7504
12:22:16.997,-42.4377,-97.8129
12:22:17.000,-35.6251,-87.7503
12:22:17.010,-27.3751,-73.0003
12:22:17.021,-17.0626,-54.5627
12:22:17.030,-7.4375,-33.7501
12:22:17.042,2.875,-13
12:22:17.062,12.875,6.5625
12:22:17.064,21.0626,25.0626
12:22:17.106,28.1251,41.2502
12:22:17.108,34.8126,53.6252
12:22:17.110,38.4376,64.2502
12:22:17.112,42.6252,73.0003
12:22:17.115,45.1877,79.5628
12:22:17.144,47.5002,85.7503
12:22:17.146,48.8127,90.5629
12:22:17.148,51.0627,95.0629
12:22:17.154,52.3127,99.1254
12:22:17.192,55.0002,103.3129
12:22:17.196,55.0002,106.0004
12:22:17.197,56.0627,108.0629
12:22:17.199,55.7502,109.2504
12:22:17.202,56.1877,108.8129
12:22:17.232,54.8752,109.0004
12:22:17.236,53.1877,105.7504
12:22:17.242,50.5002,102.1254
12:22:17.242,47.9377,96.0629
12:22:17.251,44.1252,89.7503
12:22:17.261,41.8752,83.4378
12:22:17.271,38.1251,76.8753
12:22:17.282,35.0001,71.5003
12:22:17.290,32.3751,65.7503
12:22:17.300,30.5001,59.6877
12:22:17.311,28.0001,55.6877
12:22:17.321,26.0626,50.9377
12:22:17.331,23.5001,46.1252
12:22:17.340,21.4376,41.6252
12:22:17.352,19.8126,37.0626
12:22:17.361,17.5001,32.5626
12:22:17.371,14.7501,27.3126
12:22:17.385,12.25,22.4376
12:22:17.391,10.3125,17.5001
12:22:17.400,7.25,12.75
12:22:17.411,4.875,7
12:22:17.421,1.8125,1.5625
12:22:17.431,-0.5,-3.125
12:22:17.442,-2.3125,-9.125
12:22:17.451,-5.1875,-14.4376
12:22:17.460,-7.4375,-19.8751
12:22:17.472,-10.5625,-24.5626
12:22:17.482,-12.8125,-29.1876
12:22:17.492,-14.5626,-34.6251
12:22:17.501,-16.4376,-38.4376
12:22:17.512,-18.5001,-42.6877
12:22:17.522,-20.5001,-48.4377
12:22:17.530,-21.9376,-51.8127
12:22:17.541,-23.6251,-56.5627
12:22:17.550,-25.8751,-59.1877
12:22:17.560,-27.1876,-63.1252
12:22:17.571,-28.6876,-67.1878
12:22:17.580,-30.1251,-69.9378
12:22:17.590,-31.3126,-72.5003
12:22:17.602,-32.5626,-76.8128
12:22:17.610,-33.9376,-79.0628
12:22:17.621,-36.0001,-82.3753
12:22:17.640,-36.6876,-86.1253
12:22:17.647,-39.0627,-87.1878
12:22:17.662,-38.9376,-91.5004
12:22:17.664,-40.9377,-92.7504
12:22:17.672,-41.5627,-96.0629
12:22:17.680,-43.2502,-97.5629
12:22:17.690,-43.9377,-100.9379
12:22:17.700,-45.0627,-102.5004
12:22:17.711,-45.8752,-106.0629
12:22:17.721,-47.9377,-107.9379
12:22:17.731,-48.8127,-112.1879
12:22:17.741,-50.6252,-114.1254
12:22:17.750,-51.0002,-117.313
12:22:17.763,-53.0627,-118.3755
12:22:17.770,-52.9377,-121.7505
12:22:17.780,-54.7502,-122.3755
12:22:17.794,-54.8127,-126.1255
12:22:17.800,-55.6877,-127.063
12:22:17.835,-54.5002,-126.438
12:22:17.838,-50.8127,-120.938
12:22:17.840,-44.4377,-109.7504
12:22:17.842,-35.2501,-94.0629
12:22:17.879,-23.1251,-72.6253
12:22:17.881,-12.3125,-49.8752
12:22:17.883,-1.25,-27.9376
12:22:17.889,8.8125,-5.5625
12:22:17.900,18.6251,13
12:22:17.904,25.8126,30.0626
12:22:17.938,32.8751,43.0627
12:22:17.941,37.3126,55.6252
12:22:17.943,42.1252,64.2502
12:22:17.948,45.3127,74.5003
12:22:17.953,48.8127,80.6878
12:22:17.984,52.2502,87.5628
12:22:17.987,53.2502,93.0004
12:22:17.989,55.7502,98.3129
12:22:17.994,57.5627,101.4379
12:22:18.004,58.4377,106.5004
12:22:18.012,59.1252,108.5629
12:22:18.022,59.9377,110.0004
12:22:18.031,59.3127,110.6879
12:22:18.040,58.6252,110.5629
12:22:18.050,57.6877,108.1254
12:22:18.061,55.4377,105.1254
12:22:18.071,52.6877,99.5629
12:22:18.080,49.0627,93.3129
12:22:18.090,46.0002,87.1253
12:22:18.100,43.0002,80.8128
12:22:18.112,39.4377,76.1253
12:22:18.121,37.1251,69.5628
12:22:18.134,35.1251,65.5002
12:22:18.142,32.6251,61.0627
12:22:18.150,30.9376,56.8752
12:22:18.161,28.9376,52.5002
12:22:18.170,26.8126,47.9377
12:22:18.180,25.0001,43.8127
12:22:18.192,22.1876,40.6877
12:22:18.202,20.5626,36.0626
12:22:18.211,18.5001,30.3751
12:22:18.221,15.1876,25.6876
12:22:18.230,12.75,20.1251
12:22:18.242,11,14.5626
12:22:18.252,8.5,9.375
12:22:18.261,6.0625,3.9375
12:22:18.271,3.0625,-0.375
12:22:18.281,0.0625,-5.1875
12:22:18.292,-1.6875,-11.125
12:22:18.301,-4.1875,-15.8751
12:22:18.311,-6.625,-20.3126
12:22:18.320,-9.0625,-26.3751
12:22:18.332,-11.8125,-30.5626
12:22:18.340,-13.6251,-35.5001
12:22:18.352,-15.7501,-39.0002
12:22:18.361,-17.5626,-42.9377
12:22:18.372,-20.0001,-48.1877
12:22:18.381,-21.6876,-51.6252
12:22:18.393,-23.0001,-55.2502
12:22:18.401,-24.6251,-59.1877
12:22:18.411,-26.1251,-62.8752
12:22:18.420,-27.9376,-66.3753
12:22:18.430,-30.2501,-70.0003
12:22:18.443,-31.6251,-73.6878
12:22:18.451,-33.3126,-76.8753
12:22:18.461,-34.1876,-80.4378
12:22:18.470,-35.5626,-82.1878
12:22:18.482,-37.3126,-85.6253
12:22:18.490,-38.5626,-88.6253
12:22:18.503,-38.9376,-90.8129
12:22:18.512,-40.6252,-93.5004
12:22:18.522,-41.3752,-95.6879
12:22:18.532,-43.0002,-98.7504
12:22:18.558,-43.7502,-100.3129
12:22:18.561,-44.8752,-102.8129
12:22:18.563,-45.9377,-105.0629
12:22:18.599,-47.2502,-107.3754
12:22:18.602,-48.8127,-110.3129
12:22:18.602,-49.5627,-111.8754
12:22:18.605,-50.0627,-114.6879
12:22:18.611,-50.5002,-116.8754
12:22:18.622,-52.5627,-118.938
12:22:18.655,-52.9377,-120.938
12:22:18.656,-53.7502,-122.5005
12:22:18.658,-52.5627,-122.1255
12:22:18.662,-50.3127,-117.688
12:22:18.693,-43.9377,-109.3129
12:22:18.695,-36.0626,-92.8129
12:22:18.698,-25.7501,-75.1253
12:22:18.704,-13.6876,-53.8127
12:22:18.716,-3.75,-31.6251
12:22:18.722,5.9375,-10.25
12:22:18.732,15.0001,9.1875
12:22:18.742,22.8126,26.7501
12:22:18.751,30.1251,39.8127
12:22:18.762,34.3126,52.0627
12:22:18.772,38.1876,60.6252
12:22:18.780,41.9377,69.3128
12:22:18.791,44.8127,75.2503
12:22:18.801,47.8127,80.8753
12:22:18.812,49.3752,85.6878
12:22:18.821,50.8752,91.1879
12:22:18.832,52.1252,94.7504
12:22:18.841,54.5002,97.6254
12:22:18.851,55.0002,101.1879
12:22:18.861,56.1252,103.1254
12:22:18.872,55.3752,104.0629
12:22:18.882,55.2502,103.8754
12:22:18.894,53.5002,102.3129
12:22:18.901,51.8127,100.1879
12:22:18.912,49.6877,94.5629
12:22:18.922,45.9377,90.1253
12:22:18.943,43.1877,83.6253
12:22:18.947,40.4377,79.0003
12:22:18.967,38.8751,74.4378
12:22:18.968,36.3126,69.8753
12:22:18.972,34.3751,66.0628
12:22:18.983,32.1251,62.5627
12:22:18.994,30.4376,58.1252
12:22:19.001,29.1251,54.3752
12:22:19.012,27.5001,50.6877
12:22:19.020,25.5626,47.0002
12:22:19.032,22.5626,43.2502
12:22:19.042,20.4376,38.7501
12:22:19.051,18.7501,33.6876
12:22:19.060,16.0626,28.7501
12:22:19.072,13.7501,23.9376
12:22:19.080,10.4375,19.7501
12:22:19.091,8.9375,14.5001
12:22:19.112,7.1875,9.3125
12:22:19.113,5.0625,4.6875
12:22:19.128,2.625,1.25
12:22:19.132,0.5,-3.875
12:22:19.141,-2.0625,-7.0625
12:22:19.152,-3.5625,-12.625
12:22:19.160,-6.5,-17.5626
12:22:19.172,-8.6875,-21.3751
12:22:19.181,-10.75,-26.2501
12:22:19.192,-12.5,-29.1876
12:22:19.220,-14.1251,-33.0001
12:22:19.223,-15.6876,-37.0626
12:22:19.223,-18.0626,-41.0627
12:22:19.233,-19.1876,-44.0627
12:22:19.241,-20.3126,-47.6877
12:22:19.251,-20.9376,-49.5627
12:22:19.261,-22.4376,-52.3752
12:22:19.272,-24.2501,-55.4377
12:22:19.280,-26.1251,-58.4377
12:22:19.292,-26.9376,-61.5627
12:22:19.329,-28.1251,-64.7502
12:22:19.331,-29.6876,-67.5628
12:22:19.335,-31.0626,-70.1253
12:22:19.336,-32.5626,-72.5003
12:22:19.342,-32.8751,-75.1253
12:22:19.368,-34.4376,-77.1878
12:22:19.372,-34.8126,-79.6878
12:22:19.374,-36.7501,-81.3753
12:22:19.381,-37.1251,-83.8128
12:22:19.413,-38.6251,-86.3128
12:22:19.417,-38.8751,-88.8128
12:22:19.418,-41.0002,-91.0004
12:22:19.421,-41.0627,-93.5629
12:22:19.452,-42.7502,-95.3129
12:22:19.456,-42.7502,-97.3129
12:22:19.457,-44.0002,-99.7504
12:22:19.463,-44.0002,-101.1879
12:22:19.479,-44.6877,-101.8754
12:22:19.484,-40.7502,-97.8754
12:22:19.490,-35.6876,-87.8753
12:22:19.502,-26.1876,-72.9378
12:22:19.512,-17.1876,-53.7502
12:22:19.520,-5.8125,-32.5626
12:22:19.532,4,-10.5
12:22:19.542,14.2501,9.9375
12:22:19.551,23.7501,30.0626
12:22:19.562,31.1876,45.6877
12:22:19.572,37.2501,60.6252
12:22:19.582,40.8752,70.1253
12:22:19.592,44.8127,78.7503
12:22:19.600,47.5002,85.9378
12:22:19.611,50.6877,92.0004
12:22:19.620,51.6252,98.0629
12:22:19.635,53.8752,101.6879
12:22:19.642,55.1877,106.2504
12:22:19.652,57.0627,109.4379
12:22:19.662,57.7502,113.7504
12:22:19.670,58.6877,114.7504
12:22:19.682,59.6252,117.0629
12:22:19.690,58.7502,117.3754
12:22:19.701,57.8752,116.6254
12:22:19.711,56.9377,114.9379
12:22:19.720,54.5627,110.5629
12:22:19.732,51.0002,105.3754
12:22:19.742,48.0627,99.7504
12:22:19.750,45.6252,93.5004
12:22:19.762,42.4377,87.0003
12:22:19.770,39.5627,81.8128
12:22:19.782,37.1876,76.5628
12:22:19.790,34.3126,72.3128
12:22:19.801,32.1876,67.8753
12:22:19.812,31.0001,62.8752
12:22:19.822,27.8126,59.0002
12:22:19.832,26.0001,55.1252
12:22:19.842,24.5626,50.0627
12:22:19.850,22.8751,46.3127
12:22:19.860,20.8751,42.3127
12:22:19.871,18.6876,38.0001
12:22:19.881,16.0626,33.8751
12:22:19.894,13.6251,28.1251
12:22:19.902,11,22.8126
12:22:19.912,7.6875,16.9376
12:22:19.922,4.875,10.875
12:22:19.932,1.875,6.875
12:22:19.942,-0.3125,0.8125
12:22:19.951,-2.3125,-4.8125
12:22:19.962,-4.375,-8.5625
12:22:19.972,-7.25,-13.9376
12:22:19.981,-10.1875,-19.3751
12:22:19.992,-12.5,-25.1251
12:22:20.002,-13.9376,-29.8751
12:22:20.010,-16.4376,-34.2501
12:22:20.020,-18.3126,-38.3751
12:22:20.033,-20.1876,-42.4377
12:22:20.040,-21.8126,-46.6252
12:22:20.075,-23.2501,-50.1252
12:22:20.078,-25.5626,-53.5002
12:22:20.080,-26.6876,-57.5627
12:22:20.082,-28.5001,-60.6877
12:22:20.119,-29.8126,-64.5627
12:22:20.122,-31.4376,-66.9378
12:22:20.123,-32.5001,-70.6253
12:22:20.127,-33.6251,-71.9378
12:22:20.136,-34.5001,-75.6878
12:22:20.143,-35.3126,-77.2503
12:22:20.172,-36.6251,-80.8128
12:22:20.174,-37.4376,-82.1878
12:22:20.178,-38.5001,-85.3753
12:22:20.182,-39.3127,-87.8753
12:22:20.211,-40.7502,-90.5004
12:22:20.213,-41.9377,-91.9379
12:22:20.217,-43.0627,-94.6254
12:22:20.222,-44.2502,-97.5004
12:22:20.243,-45.8127,-101.4379
12:22:20.250,-46.8127,-102.3129
12:22:20.252,-47.3127,-105.2504
12:22:20.267,-47.3127,-107.5629
12:22:20.273,-48.9377,-109.0629
12:22:20.282,-46.8127,-107.3754
12:22:20.317,-43.3127,-101.1879
12:22:20.319,-35.6876,-88.9378
12:22:20.327,-26.8126,-72.2503
12:22:20.327,-15.5626,-51.8752
12:22:20.339,-5.75,-29.5626
12:22:20.348,5,-7.8125
12:22:20.355,15.5001,13.1876
12:22:20.367,24.0626,32.7501
12:22:20.376,30.8751,48.5002
12:22:20.385,36.6251,61.6252
12:22:20.407,41.7502,73.2503
12:22:20.409,45.5002,81.1253
12:22:20.425,48.8127,89.0628
12:22:20.427,51.2502,94.9379
12:22:20.437,52.8127,101.6254
12:22:20.446,54.9377,105.5004
12:22:20.457,58.3127,115.1879
12:22:20.465,60.3752,119.563
12:22:20.500,62.0627,123.6255
12:22:20.502,62.3752,124.938
12:22:20.505,63.6252,126.8755
12:22:20.511,62.3752,127.6255
12:22:20.517,61.8127,126.063
12:22:20.525,59.2502,122.438
12:22:20.537,57.5002,118.063
12:22:20.547,55.1877,112.8754
12:22:20.557,51.7502,107.4379
12:22:20.567,48.4377,100.6254
12:22:20.577,44.8127,93.8129
12:22:20.586,42.3752,88.8128
12:22:20.597,39.8127,84.1878
12:22:20.605,37.8126,78.6253
12:22:20.617,35.2501,75.0628
12:22:20.627,33.5626,70.9378
12:22:20.637,30.9376,66.0003
12:22:20.647,29.1876,61.1877
12:22:20.655,27.8126,56.7502
12:22:20.667,25.8751,53.0627
12:22:20.677,22.3751,47.8752
12:22:20.687,19.5001,43.0002
12:22:20.697,17.9376,37.8126
12:22:20.705,14.7501,33.5626
12:22:20.717,12.3125,27.1876
12:22:20.727,9.8125,22.6251
12:22:20.737,7.75,17.3126
12:22:20.747,5.75,12.625
12:22:20.757,2.25,7.125
12:22:20.783,0.25,2.375
12:22:20.786,-2.5,-3.3125
12:22:20.788,-5.25,-7.8125
12:22:20.820,-6.9375,-12.6875
12:22:20.822,-8.6875,-17.0626
12:22:20.824,-11.125,-21.0001
12:22:20.827,-13,-26.5626
12:22:20.858,-15.0626,-30.4376
12:22:20.861,-17.0001,-35.0001
12:22:20.863,-18.3751,-38.5001
12:22:20.871,-20.0001,-41.7502
12:22:20.877,-21.8126,-45.2502
12:22:20.908,-24.3126,-48.8127
12:22:20.911,-25.7501,-52.7502
12:22:20.913,-26.8751,-56.8752
12:22:20.918,-28.1876,-58.7502
12:22:20.944,-29.3126,-62.7502
12:22:20.946,-30.7501,-64.3127
12:22:20.948,-31.6876,-67.3753
12:22:20.958,-33.1251,-69.4378
12:22:20.967,-34.0001,-73.1878
12:22:20.975,-35.4376,-75.2503
12:22:20.987,-37.3126,-78.1878
12:22:20.997,-37.6876,-80.9378
12:22:21.008,-39.2501,-82.2503
12:22:21.017,-39.6877,-86.0003
12:22:21.027,-41.1252,-88.0003
12:22:21.037,-42.0627,-90.8129
12:22:21.047,-43.4377,-92.6879
12:22:21.057,-43.6877,-95.8129
12:22:21.067,-45.6877,-96.7504
12:22:21.077,-45.3127,-99.7504
12:22:21.087,-46.1877,-99.5004
12:22:21.097,-44.0002,-97.9379
12:22:21.107,-39.6252,-89.3128
12:22:21.117,-31.6251,-76.3128
12:22:21.127,-21.8126,-59.1252
12:22:21.137,-10.9375,-37.5626
12:22:21.147,-0.5,-16.1251
12:22:21.157,9.5,6
12:22:21.167,18.7501,25.3126
12:22:21.177,26.1251,42.8127
12:22:21.187,32.1251,57.3752
12:22:21.197,37.9376,69.7503
12:22:21.207,41.8127,79.8128
12:22:21.217,45.0002,87.3753
12:22:21.227,47.3752,93.8754
12:22:21.237,49.7502,98.9379
12:22:21.247,51.9377,103.8754
12:22:21.255,53.5002,109.0004
12:22:21.267,55.0002,112.6254
12:22:21.277,56.3127,115.5629
12:22:21.287,56.5002,119.188
12:22:21.297,57.5627,120.1255
12:22:21.307,58.0002,120.7505
12:22:21.318,57.6877,121.438
12:22:21.327,55.7502,119.2505
12:22:21.337,53.7502,116.2504
12:22:21.348,50.8752,110.7504
12:22:21.357,48.5002,104.8129
12:22:21.368,45.4377,99.1254
12:22:21.379,42.2502,94.3754
12:22:21.387,39.7502,89.0003
12:22:21.397,37.3751,84.2503
12:22:21.407,35.4376,79.0003
12:22:21.417,34.4376,75.4378
12:22:21.427,31.8126,71.1878
12:22:21.437,29.0626,67.6878
12:22:21.447,28.3126,63.5627
12:22:21.457,25.8751,60.3752
12:22:21.471,23.7501,55.7502
12:22:21.477,21.8751,51.9377
12:22:21.487,19.4376,46.9377
12:22:21.495,17.3126,42.4377
12:22:21.513,14.6876,36.9376
12:22:21.517,12.125,31.8126
12:22:21.549,9.8125,27.2501
12:22:21.552,6.9375,22.8751
12:22:21.588,4.625,18.0626
12:22:21.590,2.375,13.0625
12:22:21.618,0.0625,7.25
12:22:21.618,-1.875,2.375
12:22:21.618,-3.75,-1.5
12:22:21.620,-6.9375,-6.25
12:22:21.651,-9.1875,-10.625
12:22:21.652,-10.875,-15.4376
12:22:21.653,-13.3126,-19.7501
12:22:21.658,-14.6876,-23.1251
12:22:21.662,-16.0626,-28.0001
12:22:21.673,-17.3751,-31.4376
12:22:21.677,-19.0001,-33.8126
12:22:21.694,-20.6251,-38.0001
12:22:21.708,-23.3126,-41.0627
12:22:21.710,-24.3126,-44.4377
12:22:21.726,-25.4376,-48.3127
12:22:21.728,-26.9376,-50.5002
12:22:21.737,-28.3126,-53.5627
12:22:21.747,-29.9376,-57.0002
12:22:21.779,-32.8751,-63.1252
12:22:21.781,-33.1876,-64.7502
12:22:21.783,-34.3126,-68.5628
12:22:21.788,-35.8751,-70.5003
12:22:21.798,-37.8751,-74.5628
12:22:21.808,-38.7501,-76.6253
12:22:21.817,-39.8127,-78.9378
12:22:21.827,-39.8127,-82.0003
12:22:21.837,-42.0002,-82.5003
12:22:21.847,-43.1877,-86.4378
12:22:21.857,-43.7502,-88.7503
12:22:21.867,-44.3752,-91.5004
12:22:21.878,-43.0002,-91.0004
12:22:21.888,-40.7502,-86.3128
12:22:21.897,-35.0626,-77.0003
12:22:21.907,-27.3751,-62.8752
12:22:21.917,-17.8126,-44.6252
12:22:21.927,-6.875,-22.9376
12:22:21.937,2.5625,-2.25
12:22:21.947,12.9375,19.9376
12:22:21.957,20.8126,36.9376
12:22:21.967,28.0626,53.8752
12:22:21.977,33.5626,67.0628
12:22:21.987,37.8126,78.2503
12:22:21.997,41.1252,86.3753
12:22:22.007,44.1877,94.1254
12:22:22.017,46.6877,98.6879
12:22:22.027,49.0627,104.7504
12:22:22.037,50.3752,109.3129
12:22:22.047,52.1877,114.4379
12:22:22.057,53.6877,116.7504
12:22:22.069,55.1252,120.188
12:22:22.077,55.5627,123.3755
12:22:22.088,55.8752,123.688
12:22:22.097,55.6877,124.5005
12:22:22.107,55.2502,124.063
12:22:22.117,53.3752,120.5005
12:22:22.127,51.3127,115.7504
12:22:22.137,48.4377,110.6879
12:22:22.147,44.4377,104.8129
12:22:22.157,40.5002,98.0629
12:22:22.167,38.0626,90.9379
12:22:22.197,35.2501,84.8753
12:22:22.200,32.6251,79.2503
12:22:22.202,30.2501,74.2503
12:22:22.208,28.7501,69.8753
12:22:22.241,27.3126,66.1878
12:22:22.244,25.1876,62.2502
12:22:22.246,23.5626,59.2502
12:22:22.248,21.7501,54.7502
12:22:22.289,19.6876,50.8752
12:22:22.290,17.6876,46.1877
12:22:22.292,16.0626,40.8127
12:22:22.299,13.3126,36.4376
12:22:22.300,10.8125,30.8751
12:22:22.310,8.125,25.8751
12:22:22.342,6.25,21.6876
12:22:22.344,3.375,16.6876
12:22:22.351,0.75,11.3125
12:22:22.352,-1.5,5.4375
12:22:22.357,-4.3125,0.875
12:22:22.367,-6.5,-3.75
12:22:22.377,-8.5625,-10.125
12:22:22.387,-10.875,-14.6251
12:22:22.397,-12.9375,-19.0001
12:22:22.407,-15.1876,-23.6876
12:22:22.417,-17.3751,-27.5001
12:22:22.427,-18.6876,-32.1251
12:22:22.443,-21.1876,-36.0001
12:22:22.447,-22.3751,-40.1877
12:22:22.458,-23.7501,-44.0002
12:22:22.467,-25.7501,-47.0627
12:22:22.477,-27.1876,-50.4377
12:22:22.487,-29.2501,-55.0002
12:22:22.497,-30.5626,-57.4377
12:22:22.507,-31.1251,-60.3752
12:22:22.517,-32.6251,-64.1877
12:22:22.527,-33.2501,-65.2503
12:22:22.537,-35.2501,-69.2503
12:22:22.547,-36.1251,-70.5628
12:22:22.557,-37.6876,-74.7503
12:22:22.567,-38.6251,-76.5003
12:22:22.577,-40.2502,-80.3128
12:22:22.587,-41.3752,-82.7503
12:22:22.598,-43.0002,-85.9378
12:22:22.607,-43.6877,-87.7503
12:22:22.618,-44.8127,-90.6879
12:22:22.627,-45.4377,-92.1879
12:22:22.637,-46.3752,-96.3129
12:22:22.647,-47.6252,-97.0004
12:22:22.657,-48.5627,-100.7504
12:22:22.667,-48.3127,-100.0004
12:22:22.677,-46.3127,-99.0629
12:22:22.687,-41.3752,-90.1254
12:22:22.698,-34.0626,-77.9378
12:22:22.708,-24.3751,-58.3127
12:22:22.717,-13.9376,-38.9376
12:22:22.727,-3.25,-15.8751
12:22:22.737,7,5.25
12:22:22.747,16.6876,26.1876
12:22:22.758,24.0001,44.8127
12:22:22.767,31.6251,59.0002
12:22:22.777,36.1251,72.2503
12:22:22.787,40.6252,81.6253
12:22:22.797,43.8127,91.5004
12:22:22.808,47.9377,97.2504
12:22:22.822,49.8127,105.0004
12:22:22.827,52.3752,109.8129
12:22:22.846,54.5627,116.2504
12:22:22.852,57.1252,120.0005
12:22:22.867,57.4377,124.8755
12:22:22.869,59.5627,127.063
12:22:22.879,60.3752,129.688
12:22:22.887,60.2502,130.188
12:22:22.897,60.2502,132.2505
12:22:22.907,59.9377,129.3755
12:22:22.917,57.1877,126.8755
12:22:22.927,55.1252,120.938
12:22:22.967,51.8127,114.7504
12:22:22.968,48.0627,108.9379
12:22:22.972,44.9377,101.8129
12:22:22.974,41.8752,95.8129
12:22:22.981,38.6876,87.8128
12:22:23.014,36.1876,82.5003
12:22:23.016,34.0001,77.5628
12:22:23.050,31.1876,73.1878
12:22:23.079,28.8751,68.9378
12:22:23.080,27.5001,64.4377
12:22:23.080,25.2501,59.3127
12:22:23.123,22.9376,55.0002
12:22:23.125,20.4376,50.7502
12:22:23.127,18.7501,45.1877
12:22:23.128,15.7501,40.5627
12:22:23.128,13.5001,35.3126
12:22:23.130,11.4375,29.7501
12:22:23.132,8.0625,25.3126
12:22:23.142,6.1875,20.0001
12:22:23.152,3.5625,14.8126
12:22:23.162,1.25,9.0625
12:22:23.172,-1.0625,3.8125
12:22:23.182,-2.875,-0.5
12:22:23.197,-5.5,-4.5
12:22:23.202,-8,-10.4375
12:22:23.212,-9.75,-14.8751
12:22:23.222,-12.875,-19.6876
12:22:23.232,-18.5001,-31.3126
12:22:23.242,-19.3126,-35.6876
12:22:23.252,-21.5001,-39.2501
12:22:23.262,-23.7501,-43.2502
12:22:23.272,-25.2501,-47.5627
12:22:23.282,-28.3751,-55.6252
12:22:23.292,-30.4376,-59.0627
12:22:23.303,-32.2501,-62.6252
12:22:23.312,-33.3126,-65.5002
12:22:23.322,-34.6876,-68.5003
12:22:23.332,-35.8751,-70.7503
12:22:23.343,-37.0626,-73.8753
12:22:23.352,-38.6251,-76.3753
12:22:23.362,-38.5626,-78.7503
12:22:23.372,-39.6877,-80.8753
12:22:23.382,-40.7502,-83.5628
12:22:23.392,-42.6877,-85.9378
12:22:23.402,-43.8752,-89.7503
12:22:23.412,-45.2502,-91.6254
12:22:23.422,-47.0002,-95.8754
12:22:23.432,-47.1252,-96.6254
12:22:23.442,-49.0002,-100.1879
12:22:23.452,-49.7502,-101.6254
12:22:23.462,-50.8127,-104.6254
12:22:23.472,-51.6252,-106.8754
12:22:23.482,-52.1252,-109.3129
12:22:23.492,-52.9377,-110.5629
12:22:23.504,-52.2502,-110.3129
12:22:23.512,-49.0002,-106.5629
12:22:23.522,-43.3752,-96.5004
12:22:23.532,-34.4376,-81.2503
12:22:23.542,-24.5626,-62.3127
12:22:23.552,-14.2501,-40.1877
12:22:23.562,-3.0625,-17.8751
12:22:23.572,6.1875,3.5625
12:22:23.586,15.1876,21.6251
12:22:23.593,22.0626,39.6252
12:22:23.602,27.9376,53.1252
12:22:23.612,32.9376,65.4377
12:22:23.632,37.3126,74.3128
12:22:23.634,40.0627,82.0628
12:22:23.667,42.7502,88.6253
12:22:23.667,45.5627,96.0004
12:22:23.671,47.5627,101.2504
12:22:23.672,49.4377,106.1254
12:22:23.701,51.6877,110.4379
12:22:23.704,52.6877,114.7504
12:22:23.706,53.8127,117.938
12:22:23.714,54.0627,119.5005
12:22:23.722,54.3127,119.6255
12:22:23.759,54.4377,119.563
12:22:23.762,52.3752,117.6254
12:22:23.763,50.4377,113.4379
12:22:23.767,47.8127,109.6254
12:22:23.772,44.2502,102.6254
12:22:23.802,41.1252,96.3129
12:22:23.805,38.3751,90.3129
12:22:23.809,35.8751,84.9378
12:22:23.813,33.3126,80.4378
12:22:23.823,30.8126,75.4378
12:22:23.832,29.6876,71.3753
12:22:23.842,27.7501,67.5003
12:22:23.852,25.5001,64.1877
12:22:23.862,24.7501,60.4377
12:22:23.872,21.9376,56.1877
12:22:23.882,20.8751,53.0002
12:22:23.892,18.4376,48.4377
12:22:23.902,15.9376,44.2502
12:22:23.912,13.5626,39.3127
12:22:23.922,10.625,33.3126
12:22:23.932,8.1875,28.0001
12:22:23.942,5.625,23.8751
12:22:23.952,3.3125,18.8751
12:22:23.962,0.8125,14.0001
12:22:23.972,-1.4375,8.8125
12:22:23.983,-4,3.5625
12:22:23.992,-6,-0.75
12:22:24.003,-8.6875,-6.375
12:22:24.012,-10.375,-10
12:22:24.022,-13.3126,-14.3126
12:22:24.032,-14.7501,-19.2501
12:22:24.042,-17.0001,-22.8751
12:22:24.052,-19.2501,-27.1251
12:22:24.062,-20.6251,-31.8126
12:22:24.072,-22.5001,-34.7501
12:22:24.082,-23.5626,-39.5627
12:22:24.092,-26.0626,-42.7502
12:22:24.102,-27.1876,-46.2502
12:22:24.112,-28.5001,-49.8127
12:22:24.122,-30.5626,-52.9377
12:22:24.132,-32.3126,-56.7502
12:22:24.154,-33.7501,-59.8127
12:22:24.161,-35.3126,-62.4377
12:22:24.162,-36.1876,-66.4378
12:22:24.180,-37.3126,-68.5003
12:22:24.193,-38.8126,-71.6878
12:22:24.197,-39.1876,-72.7503
12:22:24.202,-40.3127,-74.3753
12:22:24.212,-40.3752,-76.8753
12:22:24.223,-41.5002,-79.2503
12:22:24.232,-41.8127,-81.6878
12:22:24.242,-43.6877,-82.3753
12:22:24.252,-44.1252,-85.3128
12:22:24.262,-45.6877,-86.0003
12:22:24.272,-46.5627,-90.0003
12:22:24.282,-46.7502,-91.9379
12:22:24.292,-48.3127,-93.9379
12:22:24.302,-49.3752,-95.0629
12:22:24.312,-48.8752,-97.3129
12:22:24.341,-50.6252,-99.4379
12:22:24.342,-50.5627,-101.2504
12:22:24.352,-51.3752,-103.1254
12:22:24.357,-50.6877,-101.9379
12:22:24.368,-47.0627,-97.6254
12:22:24.377,-41.1877,-87.4378
12:22:24.394,-32.8126,-73.2503
12:22:24.408,-23.1251,-52.8752
12:22:24.413,-13,-32.6876
12:22:24.427,-2.6875,-10.75
12:22:24.429,6.3125,8.625
12:22:24.470,14.3126,27.6876
12:22:24.472,19.8126,41.3752
12:22:24.475,25.6876,55.7502
12:22:24.481,29.8126,65.1253
12:22:24.481,33.1251,74.3128
12:22:24.496,35.4376,79.9378
12:22:24.498,38.0626,89.6253
12:22:24.537,40.5627,93.5629
12:22:24.540,43.0002,98.8129
12:22:24.542,43.3752,100.9379
12:22:24.548,43.9377,105.0004
12:22:24.553,45.0002,105.8754
12:22:24.563,44.9377,108.0004
12:22:24.568,45.3752,108.8129
12:22:24.597,44.8127,108.6879
12:22:24.600,43.7502,106.1254
12:22:24.603,41.1252,102.8129
12:22:24.608,38.6251,98.2504
12:22:24.618,35.3126,91.4379
12:22:24.627,32.9376,84.8753
12:22:24.637,30.0001,80.6253
12:22:24.647,28.4376,75.2503
12:22:24.657,26.3126,70.9378
12:22:24.668,23.8751,67.1253
12:22:24.677,22.5001,62.6877
12:22:24.688,20.7501,59.8752
12:22:24.697,18.3751,56.0002
12:22:24.707,16.5626,53.0627
12:22:24.717,15.4376,48.0002
12:22:24.728,12.1875,44.0002
12:22:24.737,10.5,40.5002
12:22:24.747,8.6875,36.4376
12:22:24.757,7.4375,32.7501
12:22:24.767,6,28.7501
12:22:24.777,4.125,24.3126
12:22:24.787,2.3125,21.6876
12:22:24.797,-0.1875,17.4376
12:22:24.807,-2.375,13.4376
12:22:24.817,-5.125,8.1875
12:22:24.827,-6.875,3.375
12:22:24.837,-9,0.625
12:22:24.847,-10.5625,-3.375
12:22:24.857,-11.125,-5.9375
12:22:24.867,-12.625,-8.6875
12:22:24.877,-13.6876,-11.375
12:22:24.887,-16.0001,-13.2501
12:22:24.897,-16.1876,-16.1251
12:22:24.907,-17.4376,-17.3126
12:22:24.917,-17.8126,-19.0001
12:22:24.927,-18.5001,-21.3751
12:22:24.937,-19.6876,-22.1251
12:22:24.947,-20.5001,-24.5626
12:22:24.957,-23.0626,-26.2501
12:22:24.967,-22.8751,-28.6876
12:22:24.977,-24.1251,-30.1876
12:22:24.988,-24.8126,-30.0626
12:22:24.997,-25.1876,-33.3751
12:22:25.007,-26.1876,-33.3126
12:22:25.017,-26.1251,-34.8751
12:22:25.027,-27.4376,-36.6876
12:22:25.037,-27.5626,-37.8751
12:22:25.047,-28.1876,-37.5001
12:22:25.057,-28.5001,-39.1877
12:22:25.067,-28.7501,-38.3126
12:22:25.077,-28.4376,-40.6877
12:22:25.088,-28.9376,-41.3127
12:22:25.103,-30.6876,-42.1877
12:22:25.107,-31.0626,-43.6252
12:22:25.116,-31.9376,-44.6252
12:22:25.142,-32.1251,-47.3752
12:22:25.144,-33.3751,-46.8127
12:22:25.147,-33.5001,-48.6252
12:22:25.188,-33.4376,-47.6252
12:22:25.188,-32.6876,-48.3752
12:22:25.191,-32.6876,-47.9377
12:22:25.216,-32.8126,-48.8752
12:22:25.216,-30.5626,-45.0627
12:22:25.217,-27.3126,-40.0002
12:22:25.219,-20.8751,-28.5626
12:22:25.253,-12.375,-13.8126
12:22:25.254,-2.5,4.875
12:22:25.259,7.0625,26.8126
12:22:25.263,17.6876,46.6252
12:22:25.273,27.6876,66.8753
12:22:25.277,34.6876,83.6253
12:22:25.304,41.5627,98.1254
12:22:25.305,46.5002,109.8754
12:22:25.308,50.1252,120.563
12:22:25.317,53.5002,127.813
12:22:25.327,56.4377,133.3755
12:22:25.337,58.2502,138.313
12:22:25.347,60.2502,143.8755
12:22:25.357,62.5002,148.4381
12:22:25.367,64.0002,150.5006
12:22:25.377,64.6252,154.0006
12:22:25.387,65.1252,154.7506
12:22:25.397,65.2503,156.9381
12:22:25.407,65.8128,157.8131
12:22:25.417,66.1253,156.5006
12:22:25.427,65.1252,154.4381
12:22:25.437,62.6252,151.8756
12:22:25.447,60.1252,145.813
12:22:25.463,57.3127,140.8755
12:22:25.485,54.3127,134.8755
12:22:25.487,50.8752,126.1255
12:22:25.502,47.0627,119.938
12:22:25.504,44.5627,113.2504
12:22:25.510,41.6877,106.3129
12:22:25.517,39.2501,100.6254
12:22:25.527,37.4376,94.5629
12:22:25.537,33.8751,89.7503
12:22:25.547,31.6876,83.8753
12:22:25.557,29.3126,78.6878
12:22:25.567,26.7501,73.0003
12:22:25.577,24.2501,67.3128
12:22:25.587,21.7501,60.2502
12:22:25.620,19.3126,55.1877
12:22:25.622,15.4376,48.8127
12:22:25.624,13.3126,42.8127
12:22:25.629,10.0625,36.5626
12:22:25.637,7.25,30.1876
12:22:25.647,4.8125,24.5626
12:22:25.657,1.8125,19.1251
12:22:25.667,-0.3125,11.9375
12:22:25.677,-2.625,5.875
12:22:25.687,-6.4375,-0.125
12:22:25.703,-8.75,-5.6875
12:22:25.709,-11.1875,-12.1875
12:22:25.717,-13.6251,-18.0626
12:22:25.732,-16.0626,-23.4376
12:22:25.741,-19.0001,-28.2501
12:22:25.748,-20.8126,-33.0626
12:22:25.757,-23.6876,-39.6877
12:22:25.767,-26.3751,-44.1252
12:22:25.777,-28.3126,-48.4377
12:22:25.787,-30.6251,-54.2502
12:22:25.797,-33.1251,-58.2502
12:22:25.808,-34.1876,-62.4377
12:22:25.817,-36.5001,-66.3128
12:22:25.827,-39.0001,-70.3753
12:22:25.837,-40.3752,-75.1253
12:22:25.847,-42.5002,-79.0628
12:22:25.858,-44.0627,-82.0628
12:22:25.867,-44.9377,-86.1878
12:22:25.877,-45.9377,-88.9378
12:22:25.887,-47.9377,-91.8129
12:22:25.897,-48.1877,-94.6879
12:22:25.933,-50.3127,-95.6254
12:22:25.936,-51.0002,-100.0629
12:22:25.937,-50.4377,-102.0004
12:22:25.939,-53.3752,-105.4379
12:22:25.971,-54.0002,-107.8129
12:22:25.972,-55.2502,-110.4379
12:22:25.975,-56.1252,-113.6879
12:22:25.977,-56.8752,-114.5629
12:22:26.005,-58.2502,-118.313
12:22:26.007,-59.1877,-119.938
12:22:26.010,-59.8127,-122.438
12:22:26.044,-60.0002,-123.6255
12:22:26.046,-60.4377,-127.0005
12:22:26.048,-59.5002,-125.7505
12:22:26.056,-56.4377,-120.8755
12:22:26.057,-50.0002,-111.7504
12:22:26.086,-40.8752,-97.0004
12:22:26.089,-30.9376,-78.8128
12:22:26.091,-19.7501,-58.4377
12:22:26.099,-10.375,-37.5001
12:22:26.107,0.3125,-16.5001
12:22:26.117,8.8125,1.875
12:22:26.127,16.5626,18.4376
12:22:26.137,22.4376,33.6251
12:22:26.147,28.0626,44.6252
12:22:26.157,31.8751,55.5627
12:22:26.167,35.1251,62.5627
12:22:26.177,38.1251,69.9378
12:22:26.187,40.1252,75.2503
12:22:26.197,42.3127,82.1253
12:22:26.207,44.3752,86.1878
12:22:26.217,46.1877,90.7504
12:22:26.233,46.8752,93.6254
12:22:26.238,47.9377,97.3754
12:22:26.247,48.5002,98.1254
12:22:26.257,49.5627,101.7504
12:22:26.267,49.1877,100.9379
12:22:26.277,48.3752,101.5629
12:22:26.287,46.6877,98.3129
12:22:26.297,45.1252,96.3754
12:22:26.307,42.3752,90.7504
12:22:26.317,40.5627,86.6878
12:22:26.328,37.5626,80.6253
12:22:26.337,34.9376,76.1253
12:22:26.347,33.6876,72.5003
12:22:26.357,31.8126,68.6878
12:22:26.367,30.3126,65.0627
12:22:26.377,29.6876,61.3127
12:22:26.387,27.1876,58.1252
12:22:26.397,25.6251,54.9377
12:22:26.407,23.9376,49.6877
12:22:26.417,22.3751,45.8752
12:22:26.427,20.5626,42.1252
12:22:26.437,17.3126,36.1876
12:22:26.447,14.8751,31.1251
12:22:26.457,12.4375,26.1876
12:22:26.468,10.3125,21.0001
12:22:26.477,8.25,16.0001
12:22:26.487,5.5,11.25
12:22:26.498,2.75,6.0625
12:22:26.507,1.25,1.125
12:22:26.517,-1.5625,-3.4375
12:22:26.527,-4.1875,-7.4375
12:22:26.537,-6.75,-14.2501
12:22:26.577,-9.5,-18.6251
12:22:26.581,-11.5625,-24.1876
12:22:26.582,-13.6876,-28.5001
12:22:26.608,-15.5001,-33.9376
12:22:26.610,-18.5626,-39.3752
12:22:26.611,-21.0001,-44.1252
12:22:26.613,-23.6251,-48.0627
12:22:26.620,-25.0001,-52.9377
12:22:26.628,-27.0626,-56.7502
12:22:26.662,-28.4376,-61.5002
12:22:26.665,-30.1876,-65.3127
12:22:26.667,-32.5001,-68.6878
12:22:26.670,-33.7501,-72.3753
12:22:26.702,-35.9376,-77.3753
12:22:26.704,-38.3751,-80.0628
12:22:26.708,-39.6252,-85.3128
12:22:26.713,-41.6877,-87.5628
12:22:26.719,-42.1252,-91.3754
12:22:26.735,-43.7502,-92.3129
12:22:26.738,-44.5627,-94.7504
12:22:26.747,-46.2502,-97.6254
12:22:26.769,-47.4377,-101.3129
12:22:26.775,-48.6877,-103.7504
12:22:26.778,-49.2502,-105.8129
12:22:26.793,-51.8127,-108.1879
12:22:26.801,-52.8127,-111.6254
12:22:26.807,-54.3127,-113.3129
12:22:26.817,-55.4377,-117.0004
12:22:26.827,-57.0627,-118.938
12:22:26.838,-58.5002,-122.063
12:22:26.847,-59.7502,-123.8755
12:22:26.857,-59.7502,-125.7505
12:22:26.869,-58.8127,-124.188
12:22:26.899,-54.6252,-118.938
12:22:26.901,-49.0002,-107.5004
12:22:26.903,-40.1877,-92.4379
12:22:26.909,-30.0626,-73.7503
12:22:26.917,-20.6876,-53.3127
12:22:26.927,-11,-32.4376
12:22:26.937,-1.8125,-14.2501
12:22:26.947,5.625,4.625
12:22:26.957,12.625,20.3751
12:22:26.967,19.3126,34.2501
12:22:26.977,25.1251,46.0002
12:22:26.987,27.1251,56.8752
12:22:26.997,31.3751,64.2502
12:22:27.009,34.0001,72.7503
12:22:27.026,37.9376,78.6253
12:22:27.028,39.8127,86.1878
12:22:27.044,42.5002,91.1254
12:22:27.058,43.8127,95.2504
12:22:27.061,46.5627,100.1879
12:22:27.070,48.0627,103.3754
12:22:27.077,49.1252,106.7504
12:22:27.087,48.8752,108.8129
12:22:27.097,48.5627,108.5004
12:22:27.108,47.9377,109.1879
12:22:27.118,47.1877,105.6254
12:22:27.127,44.3127,102.3129
12:22:27.137,42.0627,98.5629
12:22:27.147,40.0002,93.1254
12:22:27.157,38.5001,89.8128
12:22:27.167,36.4376,84.2503
12:22:27.177,34.4376,79.1878
12:22:27.187,32.5001,75.3753
12:22:27.197,30.0001,71.5628
12:22:27.207,27.6876,66.5003
12:22:27.217,26.5001,62.3127
12:22:27.227,24.2501,58.3752
12:22:27.237,20.6251,53.9377
12:22:27.247,19.3126,48.9377
12:22:27.257,16.5626,44.8752
12:22:27.267,14.3126,40.1252
12:22:27.277,12.5625,35.3751
12:22:27.287,9.3125,29.9376
12:22:27.298,6.875,25.0001
12:22:27.307,5,19.3126
12:22:27.317,3.1875,14.6876
12:22:27.351,0.8125,8.625
12:22:27.353,-1.5,3.25
12:22:27.356,-3.375,-1.0625
12:22:27.358,-5.4375,-5.6875
12:22:27.391,-6.25,-9.375
12:22:27.392,-8.8125,-13.2501
12:22:27.395,-10.75,-17.0626
12:22:27.399,-12.5625,-22.3751
12:22:27.425,-14.2501,-27.0001
12:22:27.428,-16.0001,-31.2501
12:22:27.432,-18.3126,-36.2501
12:22:27.458,-19.9376,-41.0627
12:22:27.460,-21.4376,-44.1252
12:22:27.462,-23.2501,-47.0002
12:22:27.469,-23.4376,-50.3127
12:22:27.499,-25.0001,-52.8752
12:22:27.500,-26.9376,-55.9377
12:22:27.502,-27.7501,-58.4377
12:22:27.516,-28.3126,-60.9377
12:22:27.518,-29.1251,-62.1252
12:22:27.528,-30.7501,-64.0002
12:22:27.537,-31.5626,-65.1878
12:22:27.548,-32.1876,-68.3753
12:22:27.557,-32.6251,-68.9378
12:22:27.567,-33.8126,-71.4378
12:22:27.577,-33.8751,-72.0003
12:22:27.587,-34.5626,-74.2503
12:22:27.597,-35.2501,-74.8753
12:22:27.609,-35.6251,-76.6253
12:22:27.617,-35.8751,-76.5003
12:22:27.627,-37.2501,-79.3128
12:22:27.637,-37.6251,-80.6878
12:22:27.647,-38.8126,-81.3128
12:22:27.657,-37.7501,-82.2503
12:22:27.667,-35.4376,-76.7503
12:22:27.677,-29.5626,-68.8753
12:22:27.687,-23.5626,-55.8127
12:22:27.697,-14.3126,-40.3127
12:22:27.708,-5.0625,-21.6876
12:22:27.717,3.6875,-3.125
12:22:27.728,12.125,16.0001
12:22:27.737,19.1876,30.6876
12:22:27.747,24.7501,44.9377
12:22:27.758,28.6251,54.0002
12:22:27.767,32.1251,64.3127
12:22:27.777,34.5626,70.6253
12:22:27.788,36.7501,76.9378
12:22:27.797,39.5002,83.0003
12:22:27.807,40.3752,88.0003
12:22:27.817,42.8127,92.5004
12:22:27.830,45.1252,95.9379
12:22:27.837,45.4377,98.8129
12:22:27.847,46.1877,100.5004
12:22:27.857,47.0627,102.8129
12:22:27.867,46.6877,104.6879
12:22:27.878,47.1252,103.6879
12:22:27.889,45.3752,102.8754
12:22:27.897,45.0627,100.0629
12:22:27.907,42.6252,97.0004
12:22:27.917,39.0626,91.7504
12:22:27.927,36.1251,85.1878
12:22:27.937,32.2501,78.2503
12:22:27.947,27.7501,69.6878
12:22:27.957,23.5001,62.5627
12:22:27.967,19.4376,53.3752
12:22:27.977,16.2501,46.2502
12:22:27.987,12.3125,39.1251
12:22:27.998,9.4375,33.5001
12:22:28.026,6.5,27.3751
12:22:28.030,3.1875,21.5001
12:22:28.031,0.6875,16.6251
12:22:28.038,-1.75,11.5
12:22:28.108,-4.25,7.0625
12:22:28.110,-6.3125,2.3125
12:22:28.138,-8.25,-2.3125
12:22:28.141,-9.625,-6.1875
12:22:28.179,-12.125,-12.25
12:22:28.179,-13.5626,-16.7501
12:22:28.180,-15.6876,-20.8751
12:22:28.182,-17.6876,-25.3751
12:22:28.188,-18.9376,-29.1876
12:22:28.188,-21.8751,-34.1876
12:22:28.188,-22.7501,-38.3751
12:22:28.197,-25.1251,-42.0627
12:22:28.208,-26.8126,-45.4377
12:22:28.217,-27.6876,-49.2502
12:22:28.228,-29.5001,-52.5627
12:22:28.238,-30.1251,-55.1877
12:22:28.247,-31.6251,-58.0002
12:22:28.264,-32.8751,-60.5002
12:22:28.267,-33.2501,-62.8127
12:22:28.279,-34.3751,-64.8752
12:22:28.287,-35.0001,-67.0003
12:22:28.299,-35.6251,-69.8753
12:22:28.307,-38.8126,-80.3753
12:22:28.318,-39.0626,-80.8128
12:22:28.327,-38.4376,-81.1253
12:22:28.345,-38.6251,-82.1253
12:22:28.348,-38.3126,-82.9378
12:22:28.362,-38.9376,-83.4378
12:22:28.369,-40.0002,-84.0628
12:22:28.383,-39.1877,-86.1878
12:22:28.393,-39.4377,-87.3128
12:22:28.402,-40.8752,-88.9378
12:22:28.413,-40.3752,-91.6879
12:22:28.421,-42.5002,-93.8129
12:22:28.433,-43.4377,-96.2504
12:22:28.443,-44.3752,-99.1879
12:22:28.452,-44.3752,-100.0004
12:22:28.463,-42.2502,-97.1879
12:22:28.472,-37.0626,-89.3753
12:22:28.483,-29.5626,-76.9378
12:22:28.492,-20.9376,-61.2502
12:22:28.503,-10.75,-42.0002
12:22:28.512,-0.375,-21.4376
12:22:28.523,8,-3.5625
12:22:28.532,16.0001,14.1251
12:22:28.543,26.6876,37.1251
12:22:28.552,31.6876,49.8127
12:22:28.563,36.6876,58.9377
12:22:28.572,40.3752,68.7503
12:22:28.582,44.1877,75.0628
12:22:28.593,46.8752,82.0628
12:22:28.602,49.6252,87.0003
12:22:28.612,52.6252,91.5004
12:22:28.622,53.7502,95.4379
12:22:28.632,56.2502,98.8754
12:22:28.643,56.2502,100.2504
12:22:28.653,56.8752,101.8129
12:22:28.662,56.5002,103.1254
12:22:28.673,56.5627,103.1879
12:22:28.682,55.5002,102.1879
12:22:28.692,54.0627,98.2504
12:22:28.704,50.8127,94.3754
12:22:28.712,48.2502,88.8753
12:22:28.724,44.3127,82.6253
12:22:28.733,41.8127,77.2503
12:22:28.761,39.1251,71.5628
12:22:28.764,35.6876,66.0003
12:22:28.766,33.5001,61.5627
12:22:28.775,32.0001,56.6252
12:22:28.796,30.5001,53.0627
12:22:28.798,28.8751,49.9377
12:22:28.804,27.4376,46.6252
12:22:28.834,25.0626,43.3752
12:22:28.836,23.8751,38.8126
12:22:28.840,21.8751,35.6251
12:22:28.844,20.7501,31.2501
12:22:28.873,19.6876,27.1251
12:22:28.875,17.1876,23.8126
12:22:28.877,15.9376,19.3751
12:22:28.886,12.75,14.6251
12:22:28.894,10.375,9.375
12:22:28.922,7.5,4.25
12:22:28.924,4.625,-1.125
12:22:28.926,0.3125,-8.1875
12:22:28.933,-4,-14.7501
12:22:28.945,-7.125,-21.1876
12:22:28.953,-11.4375,-27.8751
12:22:28.963,-15.1251,-35.0626
12:22:28.975,-18.3126,-41.3752
12:22:28.983,-20.9376,-46.7502
12:22:28.992,-23.2501,-52.2502
12:22:29.002,-26.2501,-57.2502
12:22:29.017,-29.0626,-62.1252
12:22:29.023,-30.5626,-67.5628
12:22:29.032,-32.8751,-71.3753
12:22:29.043,-33.9376,-75.1878
12:22:29.052,-35.8751,-79.1253
12:22:29.062,-37.2501,-82.6878
12:22:29.073,-37.9376,-86.3753
12:22:29.082,-40.3752,-89.6878
12:22:29.093,-42.3127,-93.0004
12:22:29.102,-43.4377,-96.6254
12:22:29.113,-44.7502,-99.1879
12:22:29.123,-45.6252,-102.1879
12:22:29.133,-47.8127,-104.7504
12:22:29.143,-49.3127,-110.0004
12:22:29.153,-50.6877,-112.3754
12:22:29.163,-53.0002,-116.5004
12:22:29.173,-54.8752,-119.7505
12:22:29.182,-57.0627,-123.813
12:22:29.193,-58.0002,-128.063
12:22:29.203,-61.0627,-131.3755
12:22:29.213,-62.4377,-135.2505
12:22:29.223,-63.2502,-137.2505
12:22:29.233,-64.2502,-139.5005
12:22:29.242,-62.5002,-138.063
12:22:29.253,-59.1877,-131.6255
12:22:29.262,-52.0002,-119.6255
12:22:29.273,-43.1252,-104.2504
12:22:29.283,-32.6251,-85.2503
12:22:29.292,-23.4376,-64.8752
12:22:29.304,-13.8751,-46.6877
12:22:29.312,-5.4375,-27.5626
12:22:29.323,3.25,-11.3125
12:22:29.332,8.875,3.75
12:22:29.344,15.5626,15.4376
12:22:29.352,18.8126,27.3751
12:22:29.363,23.3751,34.8751
12:22:29.373,26.2501,43.5002
12:22:29.392,30.1876,49.0627
12:22:29.398,31.8126,55.8127
12:22:29.413,34.8751,60.5627
12:22:29.415,35.3126,65.5627
12:22:29.425,37.6876,68.6253
12:22:29.433,39.0626,73.4378
12:22:29.458,39.8752,74.7503
12:22:29.462,40.8752,77.3753
12:22:29.463,40.6252,78.5003
12:22:29.473,40.7502,78.2503
12:22:29.482,39.3751,76.8753
12:22:29.493,37.7501,73.1253
12:22:29.502,35.1876,70.2503
12:22:29.526,34.6876,67.1253
12:22:29.530,33.8126,64.8752
12:22:29.543,32.3751,62.2502
12:22:29.549,31.4376,59.6877
12:22:29.553,30.1251,57.0002
12:22:29.589,28.8751,55.3752
12:22:29.592,28.1251,53.1877
12:22:29.594,27.6251,51.3752
12:22:29.596,26.9376,48.1252
12:22:29.629,25.8126,46.3127
12:22:29.631,24.8126,44.9377
12:22:29.633,23.3126,41.2502
12:22:29.639,21.4376,38.3751
12:22:29.655,19.7501,34.3751
12:22:29.657,17.6876,29.7501
12:22:29.687,16.3126,26.3126
12:22:29.702,14.6251,22.2501
12:22:29.704,12.625,18.9376
12:22:29.719,10.4375,14.1876
12:22:29.720,8,8.5
12:22:29.720,6.3125,4.375
12:22:29.723,4.125,0.8125
12:22:29.733,2,-3.5625
12:22:29.742,0.1875,-7.9375
12:22:29.753,-2,-11.875
12:22:29.769,-3.9375,-17.6251
12:22:29.773,-5.9375,-20.6876
12:22:29.782,-7.1875,-25.0626
12:22:29.793,-9.0625,-29.2501
12:22:29.802,-11.5625,-33.4376
12:22:29.813,-13.3126,-38.1251
12:22:29.822,-14.9376,-41.3127
12:22:29.833,-16.1876,-45.8127
12:22:29.842,-18.1876,-49.3752
12:22:29.853,-20.2501,-53.2502
12:22:29.862,-21.3126,-57.0002
12:22:29.873,-22.4376,-59.1252
12:22:29.884,-24.0001,-63.3752
12:22:29.893,-25.3126,-67.1253
12:22:29.903,-27.1251,-68.6878
12:22:29.913,-28.3751,-73.8128
12:22:29.923,-29.1876,-75.0628
12:22:29.933,-30.8751,-79.1253
12:22:29.942,-32.2501,-81.8128
12:22:29.953,-34.0001,-85.4378
12:22:29.963,-35.1876,-87.5003
12:22:29.973,-36.3751,-91.1879
12:22:29.983,-37.1876,-92.8129
12:22:29.993,-37.3126,-94.8754
12:22:30.002,-36.1876,-92.3754
12:22:30.013,-31.5001,-87.1878
12:22:30.023,-24.8126,-74.1878
12:22:30.033,-16.2501,-59.5627
12:22:30.043,-6.1875,-41.6252
12:22:30.053,2.5625,-21.4376
12:22:30.062,12,-3.125
12:22:30.073,20.3751,14.9376
12:22:30.088,28.5001,30.5001
12:22:30.092,33.5001,43.5002
12:22:30.104,38.3751,54.9377
12:22:30.115,42.6252,65.5003
12:22:30.124,46.0627,72.5003
12:22:30.136,48.5002,80.1253
12:22:30.147,51.8127,85.1253
12:22:30.156,52.8752,91.6879
12:22:30.163,55.8752,95.6254
12:22:30.172,57.0627,100.1879
12:22:30.183,59.0002,103.4379
12:22:30.193,60.2502,107.1254
12:22:30.203,61.0627,109.3129
12:22:30.213,61.5627,111.0629
12:22:30.222,61.0627,112.1254
12:22:30.233,60.4377,110.5004
12:22:30.241,58.8752,108.0004
12:22:30.252,56.3752,103.1254
12:22:30.294,53.2502,98.1254
12:22:30.298,49.3752,92.3754
12:22:30.301,47.0002,85.9378
12:22:30.303,43.5627,80.1253
12:22:30.306,40.6877,74.4378
12:22:30.336,38.2501,68.7503
12:22:30.339,34.7501,63.8127
12:22:30.341,33.4376,59.5627
12:22:30.347,31.3751,55.3752
12:22:30.354,28.8126,51.6252
12:22:30.381,27.3126,46.5627
12:22:30.383,23.6876,41.8127
12:22:30.387,21.3126,36.3126
12:22:30.394,19.4376,30.9376
12:22:30.424,16.8126,26.1251
12:22:30.428,14.9376,22.1876
12:22:30.430,12.75,17.6876
12:22:30.437,9.4375,12.5625
12:22:30.443,7.3125,7.625
12:22:30.453,4.8125,2.3125
12:22:30.463,2.25,-3
12:22:30.473,0.1875,-7.875
12:22:30.482,-2,-12.75
12:22:30.493,-5.5625,-17.8751
12:22:30.503,-8.0625,-23.0001
12:22:30.513,-9.9375,-28.1251
12:22:30.522,-11.9375,-31.8751
12:22:30.533,-13.5001,-35.1251
12:22:30.543,-14.8126,-39.4377
12:22:30.553,-17.8126,-42.5627
12:22:30.563,-19.3126,-46.1252
12:22:30.573,-20.4376,-50.1877
12:22:30.583,-22.4376,-52.8752
12:22:30.593,-23.3751,-55.6252
12:22:30.603,-24.6251,-59.2502
12:22:30.613,-25.5626,-61.1252
12:22:30.623,-26.8751,-62.5002
12:22:30.633,-27.0001,-64.7502
12:22:30.643,-28.0626,-65.6253
12:22:30.653,-29.0626,-68.3128
12:22:30.663,-29.5001,-68.6253
12:22:30.673,-30.6876,-71.1253
12:22:30.683,-31.4376,-73.1253
12:22:30.699,-33.0001,-76.1253
12:22:30.705,-33.8126,-78.0003
12:22:30.750,-35.3126,-80.0628
12:22:30.752,-35.8751,-82.9378
12:22:30.754,-37.2501,-84.5003
12:22:30.757,-37.7501,-87.2503
12:22:30.757,-39.4377,-88.8753
12:22:30.763,-39.3127,-90.8128
12:22:30.773,-38.3751,-89.5003
12:22:30.783,-34.8126,-86.0628
12:22:30.793,-29.2501,-76.9378
12:22:30.803,-21.6251,-63.5627
12:22:30.813,-12.625,-46.1877
12:22:30.823,-2.375,-26.3126
12:22:30.832,7.5,-6.375
12:22:30.843,17.2501,12
12:22:30.852,24.1876,30.0001
12:22:30.863,31.9376,44.8752
12:22:30.874,36.9376,58.4377
12:22:30.883,42.3752,68.5003
12:22:30.897,45.9377,77.5003
12:22:30.903,48.6252,84.9378
12:22:30.913,51.0627,91.3754
12:22:30.923,54.5627,97.5629
12:22:30.933,57.0002,104.0629
12:22:30.963,59.2502,107.6879
12:22:30.966,60.0002,112.0629
12:22:30.967,62.1252,115.3754
12:22:30.996,63.0627,118.2505
12:22:31.065,64.5002,119.3755
12:22:31.068,64.1877,120.6255
12:22:31.070,63.1252,120.1255
12:22:31.070,62.4377,118.688
12:22:31.070,59.1252,113.4379
12:22:31.071,54.8752,108.0004
12:22:31.073,51.3752,102.6254
12:22:31.108,48.6877,96.5629
12:22:31.109,45.7502,91.8129
12:22:31.110,43.7502,86.7503
12:22:31.112,40.9377,81.6253
12:22:31.117,38.3751,77.6253
12:22:31.118,35.8751,72.9378
12:22:31.129,34.1251,68.3128
12:22:31.137,31.9376,65.6252
12:22:31.148,30.2501,62.0627
12:22:31.158,28.4376,58.3127
12:22:31.167,26.5001,54.1877
12:22:31.178,24.4376,51.8127
12:22:31.189,23.1876,47.1877
12:22:31.197,21.6876,44.5627
12:22:31.208,18.5001,38.2501
12:22:31.219,16.6876,33.5001
12:22:31.228,15.2501,29.5001
12:22:31.238,14.3751,26.3126
12:22:31.248,12.5,22.6251
12:22:31.258,10.625,19.6251
12:22:31.270,9.375,16.7501
12:22:31.279,7.5625,12.75
12:22:31.288,6.8125,8.75
12:22:31.297,5.125,5.6875
12:22:31.308,3,2
12:22:31.318,1.8125,-1.75
12:22:31.327,0.125,-4.8125
12:22:31.338,-0.9375,-8.5
12:22:31.347,-3,-11.5625
12:22:31.358,-4.4375,-14.8751
12:22:31.368,-5.6875,-17.8126
12:22:31.378,-6.25,-19.1876
12:22:31.387,-7.1875,-21.3126
12:22:31.398,-7.6875,-23.8126
12:22:31.407,-9.125,-25.7501
12:22:31.418,-10.1875,-28.5626
12:22:31.428,-10.75,-29.8126
12:22:31.438,-11.1875,-32.6876
12:22:31.448,-12,-34.8751
12:22:31.458,-13.6251,-37.5001
12:22:31.469,-14.6251,-39.8127
12:22:31.478,-15.2501,-41.5002
12:22:31.488,-16.1251,-43.7502
12:22:31.499,-16.8751,-46.3752
12:22:31.508,-17.5001,-47.7502
12:22:31.518,-18.3126,-49.5627
12:22:31.528,-19.0626,-51.7502
12:22:31.538,-19.2501,-54.1252
12:22:31.548,-19.3751,-53.2502
12:22:31.557,-17.7501,-51.2502
12:22:31.568,-12.25,-43.8752
12:22:31.578,-6.1875,-32.3126
12:22:31.588,3.125,-17.0626
12:22:31.598,11.25,1.0625
12:22:31.608,20.5001,19.5001
12:22:31.618,30.7501,39.5002
12:22:31.629,39.0627,57.0002
12:22:31.638,45.5627,71.0628
12:22:31.648,49.3752,81.7503
12:22:31.658,52.9377,91.2504
12:22:31.668,54.7502,97.3129
12:22:31.679,55.5002,100.6879
12:22:31.688,55.6877,103.3754
12:22:31.698,55.5627,104.1879
12:22:31.708,54.0002,105.3129
12:22:31.718,54.0002,105.6254
12:22:31.729,53.2502,104.1254
12:22:31.737,53.1877,103.6254
12:22:31.754,52.8127,102.3754
12:22:31.758,52.1252,100.1879
12:22:31.789,50.6252,96.1879
12:22:31.792,48.2502,91.1879
12:22:31.796,45.4377,85.4378
12:22:31.798,41.6252,78.4378
12:22:31.840,38.3126,68.5628
12:22:31.841,33.9376,60.0002
12:22:31.844,29.0001,50.7502
12:22:31.850,25.1251,41.9377
12:22:31.851,21.8126,34.9376
12:22:31.865,18.5001,27.0001
12:22:31.869,14.4376,21.4376
12:22:31.912,12,14.3751
12:22:31.916,9.6875,7.8125
12:22:31.917,7.0625,2.875
12:22:31.924,3.75,-4.125
12:22:31.925,0.75,-9.375
12:22:31.932,-2.3125,-16.1251
12:22:31.940,-4.875,-21.6251
12:22:31.948,-8.875,-28.4376
12:22:31.958,-12.25,-35.4376
12:22:31.968,-15.2501,-42.3752
12:22:31.978,-18.5626,-49.3127
12:22:31.988,-21.3751,-56.3752
12:22:32.021,-24.8126,-62.3127
12:22:32.025,-29.0001,-68.2503
12:22:32.039,-31.9376,-75.6253
12:22:32.053,-35.0001,-80.7503
12:22:32.055,-36.8751,-86.9378
12:22:32.059,-39.4377,-91.0629
12:22:32.063,-41.4377,-96.6879
12:22:32.075,-44.0002,-101.5004
12:22:32.084,-46.3752,-106.0629
12:22:32.093,-48.5627,-112.1879
12:22:32.103,-50.1252,-116.6254
12:22:32.113,-52.5002,-119.8755
12:22:32.123,-54.2502,-126.6255
12:22:32.133,-57.4377,-129.7505
12:22:32.143,-58.3752,-134.5005
12:22:32.153,-60.3752,-136.813
12:22:32.163,-61.0627,-142.0005
12:22:32.173,-63.6877,-144.1255
12:22:32.183,-65.0002,-148.6881
12:22:32.193,-67.6253,-153.1881
12:22:32.203,-69.2503,-157.0631
12:22:32.213,-69.9378,-159.3756
12:22:32.223,-71.0003,-161.1256
12:22:32.233,-72.6878,-165.3131
12:22:32.244,-73.4378,-166.6256
12:22:32.253,-74.7503,-170.9382
12:22:32.263,-75.7503,-172.8757
12:22:32.273,-77.5003,-173.6257
12:22:32.283,-78.0003,-177.0632
12:22:32.293,-78.5628,-178.7507
12:22:32.303,-78.1878,-180.3132
12:22:32.319,-79.4378,-181.0007
12:22:32.323,-78.3753,-181.1882
12:22:32.341,-75.6878,-176.1882
12:22:32.346,-69.3753,-167.1881
12:22:32.353,-62.8752,-152.8756
12:22:32.363,-53.0627,-137.3755
12:22:32.373,-44.5002,-116.5629
12:22:32.383,-34.4376,-97.7504
12:22:32.394,-25.8126,-77.2503
12:22:32.410,-16.1876,-60.0002
12:22:32.418,-8.75,-42.6252
12:22:32.428,-3.125,-28.3751
12:22:32.438,2.375,-16.8126
12:22:32.448,6.125,-6.6875
12:22:32.488,10.75,1.0625
12:22:32.490,12.0625,8.4375
12:22:32.492,15.1876,14.3751
12:22:32.494,17.3126,21.0626
12:22:32.498,19.1251,27.3751
12:22:32.531,22.2501,31.6251
12:22:32.535,24.3126,37.8751
12:22:32.536,25.5001,40.5627
12:22:32.544,25.6251,42.5627
12:22:32.549,26.8751,44.8752
12:22:32.586,26.0001,44.5002
12:22:32.588,24.9376,45.1877
12:22:32.589,23.3751,41.7502
12:22:32.593,20.9376,38.1251
12:22:32.598,19.0626,35.1251
12:22:32.628,16.5626,29.1876
12:22:32.631,14.9376,25.8126
12:22:32.633,14.1876,23.3126
12:22:32.637,12.375,20.1876
12:22:32.650,11.0625,17.7501
12:22:32.658,10.125,15.5001
12:22:32.669,8.3125,13.3751
12:22:32.678,7.6875,11.5
12:22:32.688,6.8125,8.875
12:22:32.698,5.1875,7.4375
12:22:32.708,4.375,4.75
12:22:32.718,2.4375,0.5625
12:22:32.735,0.5,-2.3125
12:22:32.743,-0.9375,-5.0625
12:22:32.753,-2.5625,-8.1875
12:22:32.764,-5.0625,-12.5
12:22:32.773,-7.3125,-15.7501
12:22:32.785,-8.25,-19.7501
12:22:32.795,-10.25,-23.3751
12:22:32.803,-11.75,-26.8126
12:22:32.813,-14.1876,-31.6876
12:22:32.823,-16.1251,-35.2501
12:22:32.834,-17.9376,-38.6876
12:22:32.843,-19.9376,-42.3127
12:22:32.853,-21.8126,-46.1252
12:22:32.863,-23.3751,-50.9377
12:22:32.873,-24.3126,-53.7502
12:22:32.883,-25.3751,-56.2502
12:22:32.893,-28.0626,-62.3752
12:22:32.904,-29.8126,-64.6877
12:22:32.913,-31.3126,-67.6878
12:22:32.923,-32.3126,-71.0003
12:22:32.933,-33.4376,-72.5628
12:22:32.943,-34.3751,-75.6878
12:22:32.953,-35.9376,-78.0003
12:22:32.963,-36.1251,-79.7503
12:22:32.973,-36.6251,-80.4378
12:22:32.983,-38.0001,-82.8753
12:22:32.993,-37.9376,-84.3753
12:22:33.003,-39.5627,-87.1878
12:22:33.014,-40.9377,-88.8753
12:22:33.023,-41.8752,-92.3754
12:22:33.033,-42.2502,-92.5629
12:22:33.043,-43.3752,-94.6879
12:22:33.053,-43.6877,-97.3754
12:22:33.063,-43.8127,-99.2504
12:22:33.073,-44.8752,-100.1254
12:22:33.083,-46.1877,-101.3129
12:22:33.093,-46.4377,-103.9379
12:22:33.104,-45.5627,-102.0629
12:22:33.113,-42.3127,-97.6254
12:22:33.123,-35.7501,-87.1253
12:22:33.133,-28.2501,-72.1253
12:22:33.143,-17.2501,-52.7502
12:22:33.160,-8.25,-32.4376
12:22:33.163,1.4375,-12.5625
12:22:33.174,9.75,6
12:22:33.218,17.3126,23.4376
12:22:33.221,23.0626,37.6251
12:22:33.222,28.4376,49.7502
12:22:33.224,31.7501,59.8127
12:22:33.228,35.0001,68.2503
12:22:33.262,38.1251,76.8128
12:22:33.264,40.4377,82.8753
12:22:33.268,43.0627,88.1878
12:22:33.272,44.8752,94.0004
12:22:33.274,47.4377,98.1254
12:22:33.300,47.6252,103.1879
12:22:33.301,49.5002,105.9379
12:22:33.303,49.8127,109.1254
12:22:33.323,50.3752,110.0004
12:22:33.328,51.1877,110.9379
12:22:33.357,50.0002,111.3129
12:22:33.360,48.0627,109.8129
12:22:33.374,47.0002,105.5004
12:22:33.380,44.8752,101.2504
12:22:33.380,43.0002,97.5629
12:22:33.385,39.7502,93.2504
12:22:33.393,37.1251,89.4378
12:22:33.403,34.8751,83.7503
12:22:33.413,33.0001,78.7503
12:22:33.424,29.8126,75.7503
12:22:33.433,28.8126,72.3753
12:22:33.443,27.1251,68.1878
12:22:33.453,25.0001,64.9377
12:22:33.463,23.4376,60.5627
12:22:33.473,20.9376,56.5627
12:22:33.483,18.1876,53.4377
12:22:33.493,16.5001,47.6877
12:22:33.503,13.7501,42.8752
12:22:33.513,11.625,38.2501
12:22:33.523,8.6875,34.7501
12:22:33.539,7.0625,29.6876
12:22:33.543,4.8125,24.0001
12:22:33.553,2.25,19.0001
12:22:33.563,0.0625,13.8751
12:22:33.573,-2.0625,9.625
12:22:33.583,-4.5,5.5
12:22:33.593,-6.5,1.1875
12:22:33.603,-8.3125,-3.1875
12:22:33.622,-9.875,-8.375
12:22:33.625,-12.0625,-12.1875
12:22:33.645,-14.1251,-16.1876
12:22:33.647,-16.3126,-21.4376
12:22:33.656,-18.0626,-25.3126
12:22:33.663,-19.6876,-29.9376
12:22:33.674,-22.0001,-33.0626
12:22:33.683,-23.1251,-35.9376
12:22:33.693,-24.5001,-40.9377
12:22:33.703,-25.8126,-43.8752
12:22:33.713,-27.1876,-47.8127
12:22:33.723,-28.0626,-50.3127
12:22:33.733,-29.8751,-53.3752
12:22:33.743,-30.5001,-56.1252
12:22:33.753,-32.4376,-58.6877
12:22:33.763,-32.7501,-61.6877
12:22:33.773,-34.6251,-63.5002
12:22:33.783,-35.6251,-65.6878
12:22:33.793,-36.7501,-69.5003
12:22:33.803,-38.5001,-71.9378
12:22:33.814,-39.4377,-76.0003
12:22:33.824,-40.2502,-78.3128
12:22:33.833,-41.8752,-80.1878
12:22:33.844,-41.5627,-82.0628
12:22:33.853,-43.1877,-84.3753
12:22:33.864,-43.6877,-86.3128
12:22:33.873,-44.9377,-88.4378
12:22:33.883,-45.1877,-91.1879
12:22:33.893,-45.3752,-91.1879
12:22:33.903,-45.1877,-91.5629
12:22:33.913,-40.2502,-84.6878
12:22:33.953,-34.0001,-74.5003
12:22:33.954,-25.0626,-57.1877
12:22:33.958,-15.7501,-39.9377
12:22:33.959,-6.3125,-19.8751
12:22:33.964,2.4375,0.6875
12:22:34.000,10.3125,16.8751
12:22:34.002,16.1876,34.0626
12:22:34.005,21.8751,46.0627
12:22:34.009,25.6876,58.0002
12:22:34.019,29.5001,65.0628
12:22:34.024,31.7501,74.0003
12:22:34.062,34.6876,78.7503
12:22:34.062,36.5626,85.5003
12:22:34.064,38.4376,89.5003
12:22:34.071,40.7502,94.0004
12:22:34.073,41.0627,97.3754
12:22:34.107,41.8127,98.8754
12:22:34.111,42.8127,102.8129
12:22:34.112,43.0002,102.6879
12:22:34.114,43.0627,104.8129
12:22:34.123,41.3127,103.1254
12:22:34.135,40.3752,101.2504
12:22:34.143,38.3751,98.8754
12:22:34.153,36.4376,94.3129
12:22:34.163,33.1876,90.1253
12:22:34.173,31.1876,85.2503
12:22:34.183,28.3126,79.8753
12:22:34.193,25.4376,76.1878
12:22:34.203,24.2501,71.0003
12:22:34.213,22.1251,67.0003
12:22:34.223,20.2501,63.3127
12:22:34.233,18.6876,59.3752
12:22:34.243,16.6876,56.6877
12:22:34.253,15.0626,52.5002
12:22:34.263,12.5,49.0627
12:22:34.273,10.25,44.9377
12:22:34.289,8,39.1876
12:22:34.293,6.625,35.6876
12:22:34.303,4.5625,30.9376
12:22:34.313,2.625,27.1251
12:22:34.323,0.8125,22.9376
12:22:34.333,-1.1875,18.6251
12:22:34.343,-2.8125,14.3126
12:22:34.353,-5.3125,9.9375
12:22:34.363,-7.25,5.5
12:22:34.374,-10.0625,0.3125
12:22:34.383,-12.5625,-3.375
12:22:34.393,-14.0001,-9
12:22:34.404,-16.3751,-12.4375
12:22:34.413,-17.6876,-18.0001
12:22:34.423,-20.5626,-21.7501
12:22:34.436,-21.5001,-25.5001
12:22:34.444,-23.1251,-29.8126
12:22:34.454,-24.6876,-33.4376
12:22:34.464,-25.8126,-36.0626
12:22:34.473,-27.9376,-40.0627
12:22:34.483,-29.9376,-44.0627
12:22:34.493,-31.6251,-47.6877
12:22:34.503,-32.8751,-51.5627
12:22:34.513,-33.3751,-54.0627
12:22:34.523,-35.1876,-57.1877
12:22:34.533,-35.5626,-59.1252
12:22:34.543,-36.8126,-62.0627
12:22:34.553,-37.2501,-63.9377
12:22:34.580,-39.0627,-67.1878
12:22:34.582,-40.0002,-68.3753
12:22:34.609,-41.3127,-72.1878
12:22:34.612,-42.2502,-73.8753
12:22:34.612,-42.9377,-76.8753
12:22:34.646,-43.5627,-79.3128
12:22:34.680,-45.3752,-81.0628
12:22:34.683,-46.1877,-83.6253
12:22:34.685,-46.4377,-86.0628
12:22:34.690,-47.5002,-88.9378
12:22:34.690,-48.1877,-90.8754
12:22:34.696,-49.0627,-92.8129
12:22:34.724,-49.1252,-93.0629
12:22:34.727,-47.2502,-91.5004
12:22:34.729,-43.2502,-87.1253
12:22:34.736,-37.0001,-75.3128
12:22:34.766,-30.1251,-60.3127
12:22:34.766,-19.9376,-42.9377
12:22:34.770,-10.625,-21.5626
12:22:34.776,-0.375,-2.6875
12:22:34.784,7.75,18.3751
12:22:34.793,15.0001,34.3751
12:22:34.803,20.5626,50.3752
12:22:34.813,25.6251,61.1877
12:22:34.823,29.3751,70.8128
12:22:34.833,32.4376,79.4378
12:22:34.843,34.4376,84.6878
12:22:34.854,41.3127,103.4379
12:22:34.864,43.1877,107.5004
12:22:34.874,42.9377,110.5004
12:22:34.883,45.1877,113.7504
12:22:34.893,45.0627,115.5004
12:22:34.904,45.8127,116.1879
12:22:34.913,45.0627,117.6254
12:22:34.932,44.6252,116.6879
12:22:34.933,42.3752,113.7504
12:22:34.949,39.9377,109.5629
12:22:34.953,38.3751,105.0004
12:22:34.963,35.5626,99.6879
12:22:34.973,32.6251,94.1879
12:22:34.983,30.6251,88.7503
12:22:34.993,28.3126,85.1878
12:22:35.003,26.0001,78.8128
12:22:35.013,24.1251,74.8753
12:22:35.023,22.0626,71.3753
12:22:35.033,19.6876,67.5003
12:22:35.043,17.8751,63.3752
12:22:35.053,16.3751,58.5627
12:22:35.063,14.0626,54.8127
12:22:35.073,12.0625,50.6877
12:22:35.083,10.25,46.9377
12:22:35.093,8.4375,41.5002
12:22:35.103,6.5625,37.6876
12:22:35.114,4.875,32.7501
12:22:35.124,1.9375,28.0001
12:22:35.133,-0.3125,23.3751
12:22:35.143,-2.0625,18.0626
12:22:35.160,-4.125,12.3125
12:22:35.163,-6.3125,8.0625
12:22:35.173,-9.25,3.625
12:22:35.183,-11.75,-1.0625
12:22:35.193,-13.5626,-6.375
12:22:35.203,-16.0626,-11.875
12:22:35.213,-17.6251,-15.4376
12:22:35.223,-19.2501,-20.6251
12:22:35.233,-21.1876,-24.5001
12:22:35.243,-22.8126,-28.1876
12:22:35.253,-24.6876,-32.5626
12:22:35.263,-26.7501,-36.6251
12:22:35.273,-28.2501,-40.3752
12:22:35.283,-29.8126,-44.2502
12:22:35.293,-30.5626,-47.2502
12:22:35.303,-31.8751,-51.9377
12:22:35.313,-33.1876,-54.3127
12:22:35.323,-34.5626,-58.1877
12:22:35.333,-35.6251,-60.8127
12:22:35.344,-37.2501,-64.3752
12:22:35.372,-38.1251,-67.0628
12:22:35.374,-39.9377,-68.5003
12:22:35.377,-40.5627,-72.4378
12:22:35.383,-41.1252,-74.3128
12:22:35.410,-42.6252,-76.6878
12:22:35.413,-43.1252,-79.4378
12:22:35.415,-44.3127,-81.5003
12:22:35.438,-44.8752,-85.2503
12:22:35.440,-46.0627,-86.6878
12:22:35.444,-47.5002,-88.8128
12:22:35.481,-47.8752,-91.9379
12:22:35.483,-49.0627,-93.0629
12:22:35.486,-49.1252,-96.6254
12:22:35.491,-50.5627,-97.3129
12:22:35.505,-50.5002,-99.3129
12:22:35.507,-49.8127,-101.1254
12:22:35.533,-49.6252,-99.5004
12:22:35.537,-45.0002,-94.0629
12:22:35.538,-39.8127,-83.2503
12:22:35.546,-30.4376,-66.3753
12:22:35.558,-21.5001,-46.7502
12:22:35.564,-11.3125,-25.4376
12:22:35.573,-1.5625,-4.9375
12:22:35.583,6.8125,15.6876
12:22:35.593,14.3751,34.0001
12:22:35.603,21.5626,49.8752
12:22:35.613,25.8751,62.9377
12:22:35.623,29.6876,73.7503
12:22:35.633,32.8126,80.5628
12:22:35.643,35.1251,88.7503
12:22:35.653,37.3751,92.6879
12:22:35.663,39.9377,99.2504
12:22:35.673,41.0002,104.1879
12:22:35.683,42.8752,108.6879
12:22:35.693,44.3127,113.0004
12:22:35.703,46.1252,115.4379
12:22:35.713,46.5002,118.8755
12:22:35.723,46.3127,121.0005
12:22:35.733,46.4377,120.563
12:22:35.743,45.5627,120.3755
12:22:35.753,44.8752,118.2505
12:22:35.763,41.9377,115.1254
12:22:35.773,39.5627,109.9379
12:22:35.783,36.6876,104.3754
12:22:35.793,34.1876,99.1879
12:22:35.803,31.8751,93.8129
12:22:35.813,28.8751,88.6253
12:22:35.823,26.4376,83.3128
12:22:35.833,25.0626,79.3128
12:22:35.860,22.4376,75.5628
12:22:35.862,20.5626,70.0628
12:22:35.864,18.5001,66.4378
12:22:35.873,16.6876,62.3127
12:22:35.884,14.4376,57.1252
12:22:35.893,12.375,53.7502
12:22:35.903,10.25,47.3752
12:22:35.913,8.0625,44.1252
12:22:35.939,6.3125,38.5626
12:22:35.941,3.375,34.4376
12:22:35.956,1.25,28.2501
12:22:35.957,-1.125,23.1876
12:22:35.963,-4,17.8126
12:22:35.973,-6,12.1875
12:22:35.983,-8,7.375
12:22:35.993,-11.1875,2.3125
12:22:36.003,-12.75,-2.4375
12:22:36.014,-15.5001,-7.4375
12:22:36.023,-17.6876,-12.1875
12:22:36.033,-19.7501,-17.2501
12:22:36.048,-21.7501,-21.7501
12:22:36.054,-23.0626,-26.8751
12:22:36.088,-25.2501,-30.0626
12:22:36.089,-26.1251,-34.9376
12:22:36.093,-28.8126,-38.3751
12:22:36.095,-31.1876,-42.8127
12:22:36.125,-32.1251,-47.4377
12:22:36.130,-33.8126,-50.2502
12:22:36.131,-34.6251,-54.1877
12:22:36.134,-35.7501,-57.7502
12:22:36.166,-37.3126,-59.5002
12:22:36.169,-37.9376,-63.8752
12:22:36.171,-40.0627,-66.0003
12:22:36.196,-40.4377,-70.1253
12:22:36.197,-41.7502,-71.5628
12:22:36.201,-42.0002,-74.6253
12:22:36.204,-43.5002,-75.8753
12:22:36.213,-43.6252,-79.2503
12:22:36.229,-44.2502,-80.3128
12:22:36.244,-44.3752,-83.4378
12:22:36.245,-46.4377,-85.0628
12:22:36.253,-46.0627,-88.0628
12:22:36.263,-48.1252,-89.9378
12:22:36.275,-48.2502,-92.8129
12:22:36.283,-50.2502,-94.0004
12:22:36.293,-50.0002,-96.9379
12:22:36.307,-50.5002,-98.5004
12:22:36.314,-50.8752,-100.8754
12:22:36.323,-52.0002,-102.8129
12:22:36.333,-51.7502,-104.3754
12:22:36.343,-50.5002,-101.2504
12:22:36.353,-44.9377,-95.3129
12:22:36.363,-38.6876,-81.5003
12:22:36.373,-29.1876,-66.5628
12:22:36.383,-20.8126,-45.5002
12:22:36.393,-10.625,-25.0626
12:22:36.403,-2.0625,-3.25
12:22:36.413,6.1875,14.8751
12:22:36.423,12.75,32.6251
12:22:36.438,19.2501,46.4377
12:22:36.449,22.9376,59.6252
12:22:36.458,27.1876,68.4378
12:22:36.468,29.5626,77.0628
12:22:36.478,32.3751,82.1253
12:22:36.488,34.4376,88.5628
12:22:36.500,35.9376,93.5004
12:22:36.508,38.0001,97.4379
12:22:36.518,38.9376,101.5004
12:22:36.528,40.6252,104.1254
12:22:36.538,40.2502,107.6254
12:22:36.548,41.5002,109.1879
12:22:36.559,41.1877,110.9379
12:22:36.568,42.1877,111.2504
12:22:36.578,40.9377,110.0004
12:22:36.588,39.1876,107.7504
12:22:36.598,35.8751,102.8754
12:22:36.608,33.3751,97.6254
12:22:36.618,30.8126,91.6254
12:22:36.628,28.1251,87.1878
12:22:36.639,26.0001,82.0003
12:22:36.648,22.9376,77.3128
12:22:36.658,21.6251,73.3128
12:22:36.668,19.0626,68.7503
12:22:36.682,16.5001,64.6877
12:22:36.688,14.6251,60.3127
12:22:36.699,12.9375,57.3127
12:22:36.709,11.5625,53.1877
12:22:36.718,9.8125,49.7502
12:22:36.728,8.25,44.3127
12:22:36.738,5.5625,41.1877
12:22:36.748,3.625,36.2501
12:22:36.758,1.3125,32.1876
12:22:36.768,-0.4375,26.2501
12:22:36.778,-2.8125,21.6251
12:22:36.788,-5.6875,16.0001
12:22:36.798,-7.25,12.6875
12:22:36.808,-9.5,6.5625
12:22:36.840,-11.5,1.4375
12:22:36.843,-13.5001,-3.3125
12:22:36.844,-16.0001,-7.5625
12:22:36.850,-17.3126,-11.625
12:22:36.883,-19.8126,-16.6251
12:22:36.886,-21.3126,-20.2501
12:22:36.887,-22.6251,-25.5626
12:22:36.916,-25.0001,-29.4376
12:22:36.917,-26.7501,-32.6876
12:22:36.918,-27.9376,-36.6876
12:22:36.925,-29.3126,-40.0627
12:22:36.934,-30.9376,-44.6877
12:22:36.938,-32.1876,-46.6877
12:22:36.970,-34.0626,-50.6252
12:22:36.972,-34.2501,-53.4377
12:22:36.975,-35.8126,-56.8752
12:22:36.981,-36.5626,-59.6252
12:22:37.000,-38.0001,-62.7502
12:22:37.004,-39.4377,-64.7502
12:22:37.009,-40.0627,-67.6878
12:22:37.018,-40.8752,-70.8128
12:22:37.028,-41.0002,-72.8128
12:22:37.038,-42.6252,-75.8753
12:22:37.050,-43.3127,-76.2503
12:22:37.061,-44.6877,-79.5003
12:22:37.068,-44.5002,-82.8753
12:22:37.078,-46.1877,-85.1253
12:22:37.089,-47.5002,-87.6878
12:22:37.099,-48.1877,-88.6878
12:22:37.108,-48.3127,-92.0629
12:22:37.139,-48.7502,-92.9379
12:22:37.141,-49.5627,-96.5004
12:22:37.143,-50.1877,-97.3129
12:22:37.150,-50.9377,-99.9379
12:22:37.160,-50.9377,-100.1879
12:22:37.168,-50.3127,-100.6254
12:22:37.178,-45.9377,-94.6879
12:22:37.189,-40.5002,-82.3753
12:22:37.198,-31.8126,-67.0628
12:22:37.208,-21.9376,-47.8127
12:22:37.218,-13.6251,-28.0626
12:22:37.239,-4.5625,-7.875
12:22:37.241,3.4375,12.9375
12:22:37.257,10.5,29.3126
12:22:37.261,16.6251,45.2502
12:22:37.269,21.1251,56.8127
12:22:37.278,25.1251,67.8128
12:22:37.288,27.1876,74.1253
12:22:37.299,30.0626,82.0628
12:22:37.308,31.8751,86.1253
12:22:37.318,33.6876,89.7503
12:22:37.328,34.3126,94.2504
12:22:37.338,35.1251,96.6879
12:22:37.349,35.3126,100.1879
12:22:37.358,36.7501,101.0629
12:22:37.368,37.3126,102.8754
12:22:37.379,37.1251,104.1254
12:22:37.389,37.2501,104.8129
12:22:37.398,35.8751,104.3754
12:22:37.408,34.5626,100.5629
12:22:37.418,32.0626,96.6254
12:22:37.428,29.8751,93.0629
12:22:37.440,27.5001,87.6878
12:22:37.448,25.1251,82.5628
12:22:37.458,23.4376,79.2503
12:22:37.468,21.3126,73.3128
12:22:37.478,20.2501,69.5003
12:22:37.488,17.5626,66.1878
12:22:37.499,16.0001,61.5002
12:22:37.508,13.1876,57.0002
12:22:37.524,11.6875,53.0002
12:22:37.540,10.125,48.8127
12:22:37.542,8.25,44.2502
12:22:37.550,5.75,40.1252
12:22:37.577,4.125,36.3126
12:22:37.580,1.8125,31.0626
12:22:37.582,0.3125,26.8751
12:22:37.588,-2.5,22.0626
12:22:37.627,-4.3125,16.9376
12:22:37.628,-6.4375,12.125
12:22:37.631,-8.4375,7.375
12:22:37.668,-10.5,2.5625
12:22:37.668,-12.5625,-1.375
12:22:37.670,-14.8126,-6.5
12:22:37.677,-15.6876,-10.75
12:22:37.679,-17.3751,-15.4376
12:22:37.679,-19.8126,-19.2501
12:22:37.713,-21.6251,-23.7501
12:22:37.716,-23.1876,-27.6251
12:22:37.718,-25.3126,-32.3126
12:22:37.721,-26.1876,-36.0626
12:22:37.732,-27.3126,-39.8127
12:22:37.738,-29.5626,-43.6877
12:22:37.748,-30.8126,-47.2502
12:22:37.758,-32.2501,-51.8127
12:22:37.768,-34.9376,-54.6877
12:22:37.779,-35.6251,-57.8752
12:22:37.788,-36.5001,-61.9377
12:22:37.798,-37.8126,-64.4377
12:22:37.812,-38.3751,-67.7503
12:22:37.820,-38.9376,-70.0628
12:22:37.830,-39.0001,-72.2503
12:22:37.839,-41.3127,-74.6878
12:22:37.848,-42.2502,-78.2503
12:22:37.858,-43.5627,-80.7503
12:22:37.868,-45.0002,-82.5003
12:22:37.878,-44.9377,-85.8128
12:22:37.888,-46.3127,-88.3753
12:22:37.899,-47.6877,-91.2504
12:22:37.908,-48.1252,-93.8754
12:22:37.918,-49.3127,-95.3754
12:22:37.930,-50.1252,-98.4379
12:22:37.938,-51.0627,-100.1254
12:22:37.949,-51.5002,-103.3754
12:22:37.959,-51.5627,-103.7504
12:22:37.968,-51.0627,-105.1254
12:22:37.980,-48.9377,-101.3129
12:22:37.989,-43.7502,-93.6879
12:22:37.998,-36.4376,-79.6878
12:22:38.008,-27.3751,-62.6252
12:22:38.018,-18.3751,-42.0627
12:22:38.028,-8.3125,-20.5626
12:22:38.039,0.125,0.8125
12:22:38.048,7.8125,19.1251
12:22:38.058,15.1251,37.5001
12:22:38.069,20.5626,50.6877
12:22:38.078,25.6251,63.2502
12:22:38.088,28.2501,73.3753
12:22:38.098,31.5001,79.4378
12:22:38.109,33.8751,87.5628
12:22:38.118,35.8126,91.4379
12:22:38.129,38.0626,97.0004
12:22:38.139,38.5626,100.5004
12:22:38.148,40.1877,104.0004
12:22:38.159,40.8127,107.8129
12:22:38.168,41.8752,108.8754
12:22:38.180,42.7502,112.5004
12:22:38.189,42.8752,112.7504
12:22:38.198,42.1877,112.3129
12:22:38.209,42.0002,111.1254
12:22:38.218,40.3752,109.5004
12:22:38.229,38.9376,106.4379
12:22:38.238,36.1251,101.0004
12:22:38.248,33.4376,95.0004
12:22:38.277,30.9376,91.3129
12:22:38.280,29.1251,85.4378
12:22:38.282,26.6876,81.8753
12:22:38.289,24.8751,75.8753
12:22:38.322,22.0001,71.8128
12:22:38.324,20.3126,67.1253
12:22:38.327,18.6251,63.2502
12:22:38.330,16.9376,59.1877
12:22:38.364,14.1876,55.3752
12:22:38.366,13,51.3127
12:22:38.368,11.1875,46.3127
12:22:38.399,8.5,41.6252
12:22:38.399,6.1875,37.4376
12:22:38.402,3.5625,31.4376
12:22:38.427,1.75,26.9376
12:22:38.429,-0.1875,20.8126
12:22:38.431,-2.6875,15.9376
12:22:38.436,-4.4375,11.6875
12:22:38.438,-7.1875,5.875
12:22:38.448,-9.625,1.0625
12:22:38.459,-11.6875,-4.4375
12:22:38.470,-13.5001,-10
12:22:38.481,-16.1251,-14.3126
12:22:38.489,-19.1251,-19.3126
12:22:38.500,-20.8126,-24.8126
12:22:38.509,-22.1251,-29.7501
12:22:38.520,-23.7501,-34.2501
12:22:38.535,-25.5626,-37.1876
12:22:38.541,-27.4376,-42.1877
12:22:38.562,-28.6251,-44.9377
12:22:38.564,-30.0001,-49.5627
12:22:38.569,-31.6251,-53.5627
12:22:38.578,-33.3126,-55.8127
12:22:38.588,-34.6251,-60.5627
12:22:38.599,-35.7501,-63.9377
12:22:38.609,-37.9376,-68.0003
12:22:38.619,-38.5626,-71.1878
12:22:38.629,-40.6877,-73.5003
12:22:38.638,-42.0627,-78.1878
12:22:38.649,-42.3752,-79.8128
12:22:38.659,-43.4377,-82.8753
12:22:38.669,-43.3127,-85.2503
12:22:38.679,-45.6877,-88.3753
12:22:38.688,-46.9377,-91.2504
12:22:38.699,-48.2502,-94.5629
12:22:38.709,-49.3127,-97.4379
12:22:38.719,-50.3127,-100.1254
12:22:38.728,-50.8752,-102.2504
12:22:38.738,-51.5627,-103.7504
12:22:38.749,-51.5002,-106.5004
12:22:38.759,-51.6252,-107.5629
12:22:38.769,-52.6877,-108.8754
12:22:38.779,-52.5002,-110.8754
12:22:38.788,-52.6252,-109.5004
12:22:38.800,-47.6252,-104.8754
12:22:38.820,-41.3752,-92.3754
12:22:38.822,-31.9376,-76.1253
12:22:38.837,-22.7501,-55.0002
12:22:38.839,-13.2501,-34.8751
12:22:38.850,-3.3125,-12.375
12:22:38.858,4.5625,7.875
12:22:38.869,13.1876,25.8126
12:22:38.878,18.1251,41.2502
12:22:38.889,22.8126,53.8752
12:22:38.899,27.3126,65.2502
12:22:38.908,30.1876,72.7503
12:22:38.918,33.5626,80.5628
12:22:38.929,34.6251,87.1878
12:22:38.943,36.6251,90.5629
12:22:38.953,38.6876,95.2504
12:22:38.964,39.0001,99.0004
12:22:38.989,40.6252,101.8129
12:22:38.992,41.3127,104.5004
12:22:38.994,41.8127,108.1254
12:22:39.022,43.0002,109.0004
12:22:39.024,42.5627,109.6254
12:22:39.027,42.3127,108.0004
12:22:39.069,40.0627,106.9379
12:22:39.071,38.1251,102.1879
12:22:39.073,35.0626,97.4379
12:22:39.075,32.3126,92.0629
12:22:39.080,30.6251,86.1253
12:22:39.095,27.5001,80.6878
12:22:39.097,24.5626,74.9378
12:22:39.128,22.6251,69.7503
12:22:39.131,20.6876,65.1877
12:22:39.133,18.0626,60.0002
12:22:39.141,16.6251,55.6252
12:22:39.150,14.1251,52.6252
12:22:39.156,11.875,48.3127
12:22:39.163,10.4375,44.0627
12:22:39.173,8.5625,39.5627
12:22:39.184,6.625,34.8751
12:22:39.193,4.625,30.1251
12:22:39.204,2.8125,25.0626
12:22:39.214,0.875,21.1876
12:22:39.223,-1.625,16.5626
12:22:39.234,-4.5,10.5
12:22:39.243,-6.875,5.875
12:22:39.253,-8.875,0.625
12:22:39.264,-11.375,-4.5
12:22:39.274,-12.75,-8.5
12:22:39.284,-14.8126,-13.8751
12:22:39.294,-17.7501,-18.6876
12:22:39.304,-19.1876,-23.3751
12:22:39.314,-21.3126,-28.0626
12:22:39.324,-23.3751,-31.9376
12:22:39.334,-24.8126,-36.6251
12:22:39.344,-26.4376,-40.0002
12:22:39.354,-27.5626,-43.0002
12:22:39.364,-27.8751,-47.2502
12:22:39.373,-30.1251,-50.1252
12:22:39.385,-31.3751,-53.0627
12:22:39.395,-33.0001,-57.3752
12:22:39.404,-34.1251,-60.8752
12:22:39.415,-35.3126,-64.5627
12:22:39.426,-37.0626,-67.3128
12:22:39.434,-37.8126,-70.2503
12:22:39.443,-39.4377,-73.6253
12:22:39.454,-40.8127,-77.0628
12:22:39.463,-41.5002,-78.5628
12:22:39.475,-43.1877,-81.2503
12:22:39.484,-44.0002,-84.4378
12:22:39.494,-45.7502,-86.6253
12:22:39.503,-45.5002,-88.8128
12:22:39.514,-46.9377,-91.2504
12:22:39.523,-47.2502,-94.5629
12:22:39.534,-47.7502,-96.1254
12:22:39.543,-48.8752,-97.7504
12:22:39.554,-49.0002,-99.5629
12:22:39.563,-49.7502,-101.7504
12:22:39.576,-49.6252,-103.2504
12:22:39.584,-50.1877,-104.0629
12:22:39.595,-50.2502,-105.3754
12:22:39.604,-48.9377,-103.1254
12:22:39.614,-44.8752,-97.9379
12:22:39.623,-38.3126,-84.6878
12:22:39.634,-30.6251,-69.8128
12:22:39.643,-21.1251,-48.8752
12:22:39.655,-11.4375,-28.4376
12:22:39.663,-1.75,-6.125
12:22:39.675,6.25,12.625
12:22:39.701,13.3126,31.6251
12:22:39.702,19.5626,45.4377
12:22:39.704,24.3126,59.0002
12:22:39.719,28.1876,68.3753
12:22:39.725,31.3751,77.0003
12:22:39.734,33.3126,82.5628
12:22:39.762,35.9376,89.3753
12:22:39.764,37.3751,92.8754
12:22:39.766,39.3127,97.6879
12:22:39.802,41.0002,100.8754
12:22:39.803,41.6877,104.8754
12:22:39.805,42.0002,105.6879
12:22:39.812,43.0002,108.4379
12:22:39.817,43.2502,109.6879
12:22:39.855,43.7502,109.8129
12:22:39.856,42.7502,108.6879
12:22:39.926,41.5002,106.8129
12:22:39.928,40.3127,103.5004
12:22:39.932,37.8751,98.7504
12:22:39.932,34.9376,94.6254
12:22:39.932,33.5001,89.8753
12:22:39.934,32.6251,85.7503
12:22:39.944,31.1251,82.3128
12:22:39.954,28.8751,78.0628
12:22:39.965,27.9376,75.5003
12:22:39.973,25.7501,73.5003
12:22:39.984,24.9376,70.2503
12:22:39.994,23.8126,67.1878
12:22:40.003,22.5001,64.0627
12:22:40.015,22.3126,61.7502
12:22:40.024,20.1251,58.9377
12:22:40.033,19.3126,56.2502
12:22:40.044,17.0001,52.8752
12:22:40.055,15.6876,48.2502
12:22:40.065,14.4376,44.8127
12:22:40.074,11.875,41.0627
12:22:40.084,11.125,36.4376
12:22:40.094,4.375,25.4376
12:22:40.116,2.9375,23.3126
12:22:40.119,2.5625,20.6251
12:22:40.127,2.3125,19.9376
12:22:40.134,1.5,19.5001
12:22:40.149,-0.25,15.4376
12:22:40.158,-0.25,13.8751
12:22:40.164,-0.875,12.3125
12:22:40.174,-1.3125,9.25
12:22:40.184,-2.8125,7.75
12:22:40.195,-3.8125,5.375
12:22:40.204,-3.4375,3.8125
12:22:40.214,-4.0625,1.4375
12:22:40.224,-5.125,-1.75
12:22:40.236,-6.6875,-4.8125
12:22:40.244,-7.1875,-7.5
12:22:40.255,-7.375,-10.625
12:22:40.265,-8.3125,-12.3125
12:22:40.274,-9.125,-15.3126
12:22:40.285,-10,-18.3126
12:22:40.294,-10.875,-21.3751
12:22:40.304,-12,-24.0001
12:22:40.316,-13.2501,-27.0626
12:22:40.326,-14.5626,-30.4376
12:22:40.335,-16.1251,-33.8126
12:22:40.345,-17.1876,-37.9376
12:22:40.355,-19.7501,-41.5627
12:22:40.364,-20.2501,-46.1252
12:22:40.375,-22.4376,-49.0627
12:22:40.384,-22.5626,-52.7502
12:22:40.394,-22.5001,-51.6252
12:22:40.404,-18.8751,-48.9377
12:22:40.415,-12.6875,-40.0002
12:22:40.441,-6,-26.3751
12:22:40.443,2.6875,-10.125
12:22:40.445,11.5625,8.375
12:22:40.485,19.8751,27.9376
12:22:40.487,28.0001,45.3127
12:22:40.488,36.1251,60.6252
12:22:40.491,40.3127,74.1253
12:22:40.521,45.3127,84.8753
12:22:40.524,47.3752,93.8129
12:22:40.525,51.0627,101.0629
12:22:40.532,52.8127,106.7504
12:22:40.540,54.3127,109.6879
12:22:40.572,54.6877,112.9379
12:22:40.575,54.6877,115.4379
12:22:40.577,55.3127,115.8129
12:22:40.579,54.3752,117.5004
12:22:40.611,54.3127,116.4379
12:22:40.613,53.9377,117.313
12:22:40.615,53.1252,115.4379
12:22:40.620,51.4377,113.6879
12:22:40.631,49.6252,109.8754
12:22:40.639,46.6877,104.5004
12:22:40.649,41.6252,96.1254
12:22:40.659,38.0626,87.6878
12:22:40.670,34.5001,79.5003
12:22:40.680,30.1876,71.4378
12:22:40.689,26.0001,62.7502
12:22:40.700,22.6251,55.2502
12:22:40.709,20.0001,47.9377
12:22:40.719,17.5626,41.3752
12:22:40.730,14.4376,35.1876
12:22:40.739,11.1875,28.6251
12:22:40.749,8.8125,21.3751
12:22:40.758,6.1875,14.9376
12:22:40.769,3,9.5
12:22:40.780,1.3125,3.6875
12:22:40.790,-1.75,-2.5625
12:22:40.799,-4.9375,-9
12:22:40.809,-8.0625,-15.1251
12:22:40.819,-10.5,-21.0001
12:22:40.830,-12.6875,-26.7501
12:22:40.840,-15.1251,-31.4376
12:22:40.849,-18.3126,-37.7501
12:22:40.859,-20.8751,-43.3752
12:22:40.869,-23.2501,-48.5002
12:22:40.880,-24.6876,-53.4377
12:22:40.889,-26.0001,-57.5002
12:22:40.900,-27.6876,-60.8752
12:22:40.909,-30.6251,-64.3752
12:22:40.920,-32.1251,-68.9378
12:22:40.930,-33.8126,-72.8128
12:22:40.940,-35.8126,-76.8128
12:22:40.950,-37.1251,-79.6253
12:22:40.979,-38.2501,-83.8753
12:22:40.981,-38.8751,-86.1253
12:22:40.983,-40.9377,-88.0628
12:22:40.990,-41.6877,-91.6879
12:22:41.002,-43.5627,-92.6879
12:22:41.009,-43.3752,-95.1879
12:22:41.019,-44.4377,-96.1879
12:22:41.029,-44.1877,-97.3129
12:22:41.041,-44.3752,-97.3129
12:22:41.049,-43.8127,-98.9379
12:22:41.059,-44.2502,-97.5629
12:22:41.069,-42.7502,-98.6254
12:22:41.080,-43.1877,-97.1254
12:22:41.089,-43.2502,-99.1879
12:22:41.099,-43.8752,-98.8754
12:22:41.109,-43.6252,-100.2504
12:22:41.119,-44.4377,-100.4379
12:22:41.129,-44.5002,-102.4379
12:22:41.139,-45.6252,-102.6879
12:22:41.150,-45.5627,-105.0004
12:22:41.167,-46.0627,-104.4379
12:22:41.173,-45.9377,-106.5629
12:22:41.180,-47.5627,-107.5004
12:22:41.189,-47.9377,-108.5004
12:22:41.204,-45.0627,-101.7504
12:22:41.213,-37.7501,-90.0003
12:22:41.219,-27.7501,-71.6878
12:22:41.261,-17.3751,-50.3752
12:22:41.262,-7.125,-26.3126
12:22:41.266,3.5625,-4.3125
12:22:41.267,13.0625,19.1251
12:22:41.269,23.6251,39.8127
12:22:41.281,32.9376,59.8752
12:22:41.295,39.5627,76.0003
12:22:41.299,46.6252,91.1254
12:22:41.330,51.5627,103.7504
12:22:41.333,56.6252,114.5629
12:22:41.335,61.2502,123.188
12:22:41.339,64.1252,130.8755
12:22:41.368,66.9378,137.313
12:22:41.370,69.3753,142.188
12:22:41.373,70.8128,146.688
12:22:41.379,72.3128,148.8756
12:22:41.389,71.6878,149.5631
12:22:41.399,71.8753,149.6881
12:22:41.409,70.0628,148.0631
12:22:41.419,68.8753,144.688
12:22:41.434,66.2503,141.5005
12:22:41.445,63.0002,135.438
12:22:41.449,58.6877,126.813
12:22:41.466,54.1252,117.938
12:22:41.473,49.9377,109.7504
12:22:41.484,46.3752,101.1254
12:22:41.489,42.5627,92.8754
12:22:41.499,38.2501,85.7503
12:22:41.509,35.3126,77.9378
12:22:41.519,31.3751,70.8753
12:22:41.530,28.5626,64.7502
12:22:41.539,25.3126,57.0002
12:22:41.550,21.5626,50.9377
12:22:41.559,18.9376,45.4377
12:22:41.570,16.5001,37.6876
12:22:41.579,12.6875,31.5626
12:22:41.589,9.4375,24.2501
12:22:41.599,6.875,17.8751
12:22:41.609,3.625,12
12:22:41.619,0.375,5.1875
12:22:41.631,-2.1875,-0.625
12:22:41.639,-4.625,-8
12:22:41.649,-8.125,-14.0001
12:22:41.659,-10.75,-20.6876
12:22:41.670,-12.875,-28.3751
12:22:41.679,-16.1251,-34.3126
12:22:41.689,-18.9376,-41.0002
12:22:41.699,-21.5001,-47.3752
12:22:41.709,-25.1876,-54.8752
12:22:41.719,-27.9376,-61.5002
12:22:41.730,-31.6876,-68.0628
12:22:41.739,-34.8126,-74.5628
12:22:41.749,-37.1876,-80.1878
12:22:41.761,-39.6877,-85.8128
12:22:41.771,-42.3127,-90.8754
12:22:41.779,-43.8127,-95.4379
12:22:41.789,-45.3127,-100.3129
12:22:41.799,-47.5627,-102.4379
12:22:41.809,-48.2502,-106.4379
12:22:41.819,-49.9377,-108.6254
12:22:41.831,-50.0627,-111.8754
12:22:41.839,-52.0627,-114.0629
12:22:41.849,-52.1252,-118.0005
12:22:41.859,-54.1252,-119.313
12:22:41.871,-54.0627,-122.3755
12:22:41.879,-55.0002,-122.063
12:22:41.889,-55.0627,-124.3755
12:22:41.900,-57.6877,-126.7505
12:22:41.909,-58.0627,-129.938
12:22:41.944,-59.5627,-132.313
12:22:41.947,-60.0002,-135.2505
12:22:41.950,-61.7502,-137.813
12:22:41.952,-61.9377,-140.5005
12:22:41.986,-61.3127,-138.1255
12:22:41.988,-56.5627,-134.438
12:22:41.990,-50.4377,-121.688
12:22:41.993,-40.8127,-105.7504
12:22:41.999,-30.6876,-83.8128
12:22:42.031,-18.8126,-62.3127
12:22:42.032,-8.6875,-38.7501
12:22:42.062,1.875,-17.3126
12:22:42.063,11.0625,5.375
12:22:42.066,20.3751,23.6876
12:22:42.068,27.2501,42.4377
12:22:42.073,34.3751,56.3127
12:22:42.079,39.7502,70.9378
12:22:42.099,46.1252,81.8753
12:22:42.102,49.5627,93.9379
12:22:42.109,54.5002,102.4379
12:22:42.119,56.8752,111.8129
12:22:42.129,58.6252,114.6879
12:22:42.144,57.1877,118.1255
12:22:42.149,58.0627,120.438
12:22:42.159,59.4377,126.6255
12:22:42.169,62.1877,128.8755
12:22:42.179,62.0627,131.938
12:22:42.189,61.1877,132.1255
12:22:42.199,60.1252,129.3755
12:22:42.209,58.8752,126.688
12:22:42.219,56.3127,124.438
12:22:42.231,54.1877,120.7505
12:22:42.258,53.1877,116.7504
12:22:42.260,52.3752,112.8129
12:22:42.263,50.8752,110.0629
12:22:42.270,50.1252,107.1879
12:22:42.279,49.6877,104.6254
12:22:42.289,50.1252,102.4379
12:22:42.299,50.0002,100.8129
12:22:42.309,49.1252,99.0004
12:22:42.319,47.5627,95.6254
12:22:42.329,46.6877,92.1879
12:22:42.341,45.0627,87.8753
12:22:42.349,42.7502,83.9378
12:22:42.361,40.8127,78.6878
12:22:42.369,38.2501,72.7503
12:22:42.379,35.4376,66.4378
12:22:42.389,31.1876,59.8752
12:22:42.399,27.9376,52.7502
12:22:42.411,24.0001,45.5627
12:22:42.420,20.7501,37.1251
12:22:42.429,16.4376,28.9376
12:22:42.440,12.5625,21.0626
12:22:42.449,9.4375,14.5001
12:22:42.459,6.625,7.875
12:22:42.469,2.75,-0.375
12:22:42.489,-1.25,-6.875
12:22:42.495,-5.0625,-14.8751
12:22:42.503,-7.8125,-22.3751
12:22:42.509,-11.1875,-28.6251
12:22:42.526,-13.7501,-35.0626
12:22:42.534,-17.1251,-40.8127
12:22:42.539,-20.8126,-47.6877
12:22:42.554,-23.7501,-54.0002
12:22:42.559,-26.1251,-61.0627
12:22:42.569,-29.5001,-66.9378
12:22:42.579,-31.9376,-72.1253
12:22:42.589,-34.3751,-76.9378
12:22:42.599,-37.4376,-82.8753
12:22:42.609,-39.5002,-88.1878
12:22:42.619,-41.8127,-94.8754
12:22:42.629,-43.2502,-99.6879
12:22:42.641,-46.6252,-105.6254
12:22:42.650,-49.0002,-110.3754
12:22:42.659,-50.5002,-115.7504
12:22:42.678,-53.5002,-121.0005
12:22:42.681,-55.2502,-125.313
12:22:42.709,-57.0002,-129.313
12:22:42.709,-57.1877,-131.563
12:22:42.712,-56.1877,-130.188
12:22:42.719,-52.1252,-124.688
12:22:42.761,-44.8752,-113.0004
12:22:42.763,-36.2501,-96.8129
12:22:42.790,-26.3751,-77.5003
12:22:42.792,-16.4376,-56.4377
12:22:42.820,-5.5625,-35.0626
12:22:42.820,3.5,-13.4376
12:22:42.821,12.5,5.5
12:22:42.864,20.9376,24.1251
12:22:42.867,28.6876,41.1252
12:22:42.867,34.5626,54.8752
12:22:42.867,40.8752,69.2503
12:22:42.868,45.3127,78.7503
12:22:42.871,50.0002,90.0629
12:22:42.880,53.8127,97.3129
12:22:42.894,57.0627,105.6254
12:22:42.900,59.8752,112.0004
12:22:42.909,63.6252,120.1255
12:22:42.919,65.5002,124.438
12:22:42.929,67.7503,130.0005
12:22:42.940,69.5003,133.438
12:22:42.949,70.6878,136.2505
12:22:42.959,69.7503,135.5005
12:22:42.969,60.9377,125.8755
12:22:42.979,56.9377,116.5004
12:22:42.989,53.5627,111.1254
12:22:42.999,50.5627,104.9379
12:22:43.009,47.9377,98.9379
12:22:43.020,43.1252,89.9378
12:22:43.029,42.6252,87.1253
12:22:43.039,40.2502,83.1253
12:22:43.049,39.7502,80.3128
12:22:43.059,38.8126,77.5628
12:22:43.069,37.5001,75.3128
12:22:43.079,36.8751,73.0003
12:22:43.089,36.7501,70.0003
12:22:43.099,35.6876,67.7503
12:22:43.109,35.8751,65.8128
12:22:43.119,35.5626,63.1877
12:22:43.132,35.0626,59.4377
12:22:43.139,33.7501,55.6252
12:22:43.149,31.0626,51.2502
12:22:43.159,29.4376,46.6877
12:22:43.169,27.4376,41.0627
12:22:43.179,24.3751,35.0001
12:22:43.189,21.5001,28.8751
12:22:43.199,18.6876,22.1876
12:22:43.209,15.6876,15.6876
12:22:43.222,14.0626,10.375
12:22:43.229,11,4.5625
12:22:43.239,6.5,-2.625
12:22:43.249,3.4375,-10.3125
12:22:43.259,-0.75,-16.5001
12:22:43.269,-3.0625,-24.5626
12:22:43.279,-7.25,-31.4376
12:22:43.289,-10.9375,-39.4377
12:22:43.299,-13.4376,-46.1252
12:22:43.309,-17.1251,-52.1877
12:22:43.319,-20.6251,-58.5627
12:22:43.329,-23.1251,-65.5002
12:22:43.339,-26.6876,-70.4378
12:22:43.363,-29.5626,-77.0628
12:22:43.365,-32.1251,-82.4378
12:22:43.371,-33.5001,-87.7503
12:22:43.400,-36.5626,-92.9379
12:22:43.402,-39.5002,-99.1254
12:22:43.405,-41.3127,-103.6879
12:22:43.410,-44.3752,-108.9379
12:22:43.437,-45.0627,-113.8754
12:22:43.439,-47.9377,-118.0005
12:22:43.442,-49.6252,-123.313
12:22:43.480,-51.3752,-126.063
12:22:43.482,-52.5002,-130.438
12:22:43.485,-54.1877,-134.063
12:22:43.491,-54.1252,-135.188
12:22:43.492,-51.4377,-132.813
12:22:43.505,-46.5627,-123.3755
12:22:43.513,-38.3126,-110.0004
12:22:43.540,-29.1876,-91.3754
12:22:43.544,-19.3126,-72.6253
12:22:43.548,-9.1875,-52.4377
12:22:43.552,-0.625,-32.1876
12:22:43.561,7.5625,-12.875
12:22:43.572,15.4376,3.5
12:22:43.579,23.1251,19.3126
12:22:43.589,27.5001,32.0001
12:22:43.599,33.3126,43.2502
12:22:43.609,36.4376,52.9377
12:22:43.622,40.8127,61.4377
12:22:43.629,43.5627,69.0628
12:22:43.645,46.6877,76.5628
12:22:43.650,49.4377,83.0003
12:22:43.659,52.8752,89.8128
12:22:43.669,55.3752,95.2504
12:22:43.680,57.6252,100.3754
12:22:43.689,59.0002,104.8129
12:22:43.699,60.6252,107.1254
12:22:43.709,59.6252,108.1254
12:22:43.719,59.4377,106.8129
12:22:43.729,58.2502,104.8129
12:22:43.739,55.8127,101.1879
12:22:43.749,53.7502,96.1879
12:22:43.759,51.8752,92.7504
12:22:43.769,47.4377,87.3753
12:22:43.779,42.5627,78.3128
12:22:43.789,38.1876,71.5003
12:22:43.799,35.5626,67.5003
12:22:43.809,33.9376,64.1252
12:22:43.824,33.0001,60.4377
12:22:43.833,30.1876,56.7502
12:22:43.840,28.3751,53.2502
12:22:43.855,27.6251,50.1877
12:22:43.862,26.1251,48.5627
12:22:43.871,27.3751,46.6877
12:22:43.880,25.8126,46.3127
12:22:43.889,26.5001,44.6252
12:22:43.899,26.6251,43.3127
12:22:43.909,26.6876,41.9377
12:22:43.919,27.5001,39.3127
12:22:43.929,26.4376,37.1251
12:22:43.939,25.0626,33.6251
12:22:43.949,22.5626,29.2501
12:22:43.959,20.8751,25.3751
12:22:43.969,20.0001,20.0001
12:22:43.979,16.7501,14.9376
12:22:43.989,14.1251,8.875
12:22:43.999,11.1875,2.8125
12:22:44.009,8.125,-3.1875
12:22:44.019,4.6875,-10.125
12:22:44.029,1.125,-17.3751
12:22:44.039,-2.375,-24.4376
12:22:44.049,-6.5,-30.8751
12:22:44.059,-9.875,-37.7501
12:22:44.069,-12.5625,-45.7502
12:22:44.079,-15.7501,-50.1252
12:22:44.089,-18.5626,-58.1877
12:22:44.099,-21.8751,-63.1877
12:22:44.109,-24.8126,-69.1253
12:22:44.131,-27.4376,-76.3128
12:22:44.133,-30.5626,-82.4378
12:22:44.143,-33.1876,-87.6253
12:22:44.150,-35.8751,-92.6254
12:22:44.171,-38.5626,-98.0004
12:22:44.173,-41.0002,-104.0004
12:22:44.201,-42.8752,-108.1254
12:22:44.203,-44.3752,-113.3129
12:22:44.205,-46.2502,-116.8754
12:22:44.210,-48.1252,-121.063
12:22:44.243,-49.8752,-126.3755
12:22:44.247,-52.1252,-130.313
12:22:44.249,-54.8752,-137.3755
12:22:44.252,-56.6877,-142.0005
12:22:44.283,-59.1252,-145.438
12:22:44.287,-57.6252,-146.7506
12:22:44.287,-54.4377,-139.2505
12:22:44.290,-46.4377,-129.0005
12:22:44.325,-38.2501,-110.2504
12:22:44.327,-28.0001,-93.0629
12:22:44.330,-18.4376,-72.8753
12:22:44.335,-9.5625,-53.7502
12:22:44.341,-1.3125,-35.5001
12:22:44.350,6.0625,-18.2501
12:22:44.359,12.125,-4.625
12:22:44.369,17.5626,9.25
12:22:44.380,22.0626,19.6251
12:22:44.394,26.3126,30.7501
12:22:44.399,30.6876,39.6252
12:22:44.409,33.0001,47.9377
12:22:44.420,36.1876,55.0627
12:22:44.430,38.5626,60.6252
12:22:44.439,39.9377,65.4377
12:22:44.449,41.5627,70.5628
12:22:44.459,43.3752,74.5628
12:22:44.469,45.3127,78.5003
12:22:44.479,46.0627,81.9378
12:22:44.489,46.1877,83.3128
12:22:44.499,46.0002,83.3753
12:22:44.514,46.1252,81.6878
12:22:44.524,44.3127,79.5003
12:22:44.535,42.8127,76.9378
12:22:44.544,40.3127,71.5628
12:22:44.555,34.9376,65.8753
12:22:44.564,30.0001,59.0002
12:22:44.574,27.5626,53.8127
12:22:44.586,26.4376,53.1877
12:22:44.595,27.0001,51.4377
12:22:44.605,25.9376,51.1252
12:22:44.615,25.0626,48.4377
12:22:44.624,24.1876,45.6877
12:22:44.635,22.9376,44.0627
12:22:44.644,21.7501,41.2502
12:22:44.654,21.6251,40.3127
12:22:44.665,22.6251,38.8751
12:22:44.674,22.3751,37.8126
12:22:44.684,22.1251,37.1876
12:22:44.695,22.6251,36.1251
12:22:44.704,23.1876,34.6251
12:22:44.714,23.5001,32.1251
12:22:44.724,21.6251,29.6876
12:22:44.734,20.7501,26.4376
12:22:44.744,19.0001,21.7501
12:22:44.754,17.9376,17.8751
12:22:44.769,15.6876,13
12:22:44.775,12.9375,8.5625
12:22:44.784,10.5625,3.625
12:22:44.794,8,-3.25
12:22:44.820,3.8125,-10.0625
12:22:44.822,1.1875,-17.7501
12:22:44.848,-3.4375,-24.1251
12:22:44.849,-7.125,-32.4376
12:22:44.852,-10.3125,-39.0627
12:22:44.883,-13.5626,-45.0627
12:22:44.886,-16.6876,-52.1252
12:22:44.887,-19.0626,-58.2502
12:22:44.889,-22.5626,-63.6877
12:22:44.898,-26.1876,-69.5628
12:22:44.928,-28.6876,-74.8753
12:22:44.929,-31.0001,-81.3753
12:22:44.931,-34.5626,-87.0003
12:22:44.957,-36.8126,-91.5004
12:22:44.960,-38.9376,-97.0004
12:22:44.962,-40.2502,-100.6254
12:22:44.988,-41.7502,-105.5629
12:22:44.990,-42.6877,-107.3754
12:22:44.990,-44.2502,-112.6254
12:22:44.996,-44.6877,-114.1254
12:22:45.006,-45.6877,-117.813
12:22:45.016,-44.3127,-117.688
12:22:45.024,-41.6252,-114.2504
12:22:45.034,-35.5626,-103.9379
12:22:45.044,-28.0626,-92.0004
12:22:45.054,-18.1876,-74.5003
12:22:45.065,-9.9375,-55.8127
12:22:45.074,-0.9375,-38.7501
12:22:45.084,5.3125,-21.1876
12:22:45.094,12.3125,-6.8125
12:22:45.104,17.3126,7.5
12:22:45.115,22.3751,18.0001
12:22:45.127,25.3751,29.0626
12:22:45.147,28.8751,35.7501
12:22:45.149,31.0001,43.4377
12:22:45.165,33.2501,48.8127
12:22:45.179,36.7501,54.3127
12:22:45.182,37.6876,59.7502
12:22:45.188,40.0002,64.2502
12:22:45.196,40.5627,68.6878
12:22:45.204,43.1877,71.8128
12:22:45.214,43.6877,74.8128
12:22:45.224,43.9377,76.4378
12:22:45.240,43.5002,77.2503
12:22:45.249,42.1252,76.1253
12:22:45.259,41.8127,76.0003
12:22:45.269,40.5002,73.1253
12:22:45.279,39.0002,70.3753
12:22:45.289,36.5626,65.6252
12:22:45.301,34.8751,61.9377
12:22:45.311,32.7501,58.9377
12:22:45.321,31.3126,54.8752
12:22:45.329,30.6876,51.6877
12:22:45.339,29.5626,49.4377
12:22:45.349,27.1251,46.4377
12:22:45.359,22.1876,39.9377
12:22:45.369,17.8751,33.1876
12:22:45.379,14.5001,28.8126
12:22:45.389,13.6251,26.4376
12:22:45.399,12.0625,25.0001
12:22:45.410,10.8125,21.5626
12:22:45.420,10.3125,18.6876
12:22:45.429,8.875,17.1876
12:22:45.440,8.125,15.5626
12:22:45.454,8.125,13.6251
12:22:45.463,8.5,12.625
12:22:45.470,8.4375,11
12:22:45.487,8.9375,9.9375
12:22:45.489,9.0625,9.3125
12:22:45.505,10.5,8.875
12:22:45.512,10.875,7.75
12:22:45.522,10.875,6.375
12:22:45.529,10.6875,4.25
12:22:45.540,8.75,0.5
12:22:45.549,7.9375,-2.0625
12:22:45.560,6.9375,-5.8125
12:22:45.598,5.3125,-10.3125
12:22:45.600,2.875,-13.6876
12:22:45.603,0.75,-18.9376
12:22:45.604,-2.125,-25.1251
12:22:45.611,-4.6875,-30.5001
12:22:45.640,-8.25,-35.1876
12:22:45.644,-11.25,-42.3127
12:22:45.646,-15.5001,-50.3127
12:22:45.653,-18.2501,-55.3127
12:22:45.659,-21.5626,-60.8752
12:22:45.688,-24.6251,-68.0628
12:22:45.691,-27.1251,-74.5628
12:22:45.694,-31.7501,-80.7503
12:22:45.731,-34.5626,-87.3128
12:22:45.735,-37.3751,-93.7504
12:22:45.736,-40.3752,-100.6879
12:22:45.740,-43.0627,-104.6254
12:22:45.745,-46.1252,-111.0004
12:22:45.751,-48.0002,-115.3754
12:22:45.759,-48.5627,-117.8755
12:22:45.769,-46.5002,-116.3754
12:22:45.780,-41.1877,-110.1879
12:22:45.790,-35.1876,-96.6879
12:22:45.800,-25.1876,-81.5628
12:22:45.811,-16.7501,-62.6877
12:22:45.819,-7.625,-44.5002
12:22:45.830,1.625,-26.9376
12:22:45.840,8.25,-10.1875
12:22:45.849,15.6876,4.375
12:22:45.859,20.6251,17.8126
12:22:45.869,26.0626,28.6251
12:22:45.880,29.5001,38.0626
12:22:45.894,32.5626,45.9377
12:22:45.901,35.1251,52.3127
12:22:45.909,37.6876,57.3127
12:22:45.919,40.2502,62.3752
12:22:45.929,40.7502,67.0003
12:22:45.940,41.8752,69.1878
12:22:45.949,44.5627,72.1253
12:22:45.959,44.1877,73.6878
12:22:45.970,45.1877,75.0628
12:22:45.981,44.8752,75.9378
12:22:45.991,43.8127,74.2503
12:22:46.000,42.4377,72.8753
12:22:46.009,40.3127,67.6253
12:22:46.019,37.8126,62.7502
12:22:46.029,35.5626,58.0002
12:22:46.041,33.3126,54.2502
12:22:46.052,31.6251,50.4377
12:22:46.060,29.8751,47.1877
12:22:46.071,28.8751,43.9377
12:22:46.098,27.8126,41.6877
12:22:46.100,25.9376,38.8751
12:22:46.103,25.0001,36.8126
12:22:46.110,24.7501,35.1251
12:22:46.120,24.0626,33.6876
12:22:46.131,22.2501,32.3751
12:22:46.141,21.5626,29.8751
12:22:46.149,20.3751,28.0626
12:22:46.161,19.3751,26.5626
12:22:46.169,18.3126,22.8751
12:22:46.179,17.1251,20.6876
12:22:46.189,15.5626,17.5626
12:22:46.200,11.5625,12.0625
12:22:46.211,7.875,6.4375
12:22:46.223,4.3125,1.6875
12:22:46.231,1.875,-2.1875
12:22:46.239,1.0625,-5.3125
12:22:46.249,-1.5625,-9.5
12:22:46.261,-3.625,-13.0625
12:22:46.271,-5.75,-17.0626
12:22:46.279,-6.5625,-19.1876
12:22:46.289,-7.1875,-20.8126
12:22:46.310,-6.6875,-21.6876
12:22:46.313,-6.6875,-23.6876
12:22:46.342,-8.125,-24.3126
12:22:46.344,-8.0625,-26.2501
12:22:46.347,-9.5,-28.7501
12:22:46.349,-10.4375,-29.6876
12:22:46.392,-10.375,-31.8126
12:22:46.393,-11.4375,-33.7501
12:22:46.396,-11.6875,-35.1876
12:22:46.398,-11.5,-34.8126
12:22:46.403,-11.75,-35.7501
12:22:46.411,-11.25,-35.7501
12:22:46.449,-11.375,-37.1251
12:22:46.451,-12,-37.4376
12:22:46.493,-11.9375,-38.4376
12:22:46.500,-13,-39.6252
12:22:46.502,-13.6251,-40.6252
12:22:46.517,-13.1876,-42.3127
12:22:46.517,-14.0001,-42.5627
12:22:46.517,-14.0626,-44.5002
12:22:46.518,-14.5001,-46.2502
12:22:46.533,-14.6251,-47.3127
12:22:46.536,-13.4376,-46.0627
12:22:46.541,-10.5,-41.1877
12:22:46.549,-5,-31.9376
12:22:46.559,2.125,-18.2501
12:22:46.569,11.375,-1.0625
12:22:46.579,20.5626,17.5001
12:22:46.591,30.5001,36.6876
12:22:46.600,38.8126,57.1877
12:22:46.611,47.6252,75.4378
12:22:46.622,54.5002,91.1254
12:22:46.630,60.4377,104.5629
12:22:46.647,66.0003,114.1879
12:22:46.649,69.1878,123.1255
12:22:46.659,71.5628,129.8755
12:22:46.671,76.4378,141.313
12:22:46.679,77.6878,144.688
12:22:46.691,77.8753,146.5631
12:22:46.701,77.6253,147.9381
12:22:46.709,78.2503,149.1256
12:22:46.721,77.3128,148.5006
12:22:46.729,72.6878,145.0005
12:22:46.741,68.4378,137.5005
12:22:46.750,66.9378,131.0005
12:22:46.773,66.0628,128.063
12:22:46.775,62.1877,120.063
12:22:46.786,58.4377,110.5004
12:22:46.791,53.5002,100.0629
12:22:46.805,47.8127,89.0003
12:22:46.815,42.3752,77.3128
12:22:46.820,36.5626,65.1878
12:22:46.829,32.3126,55.9377
12:22:46.840,28.0626,45.5627
12:22:46.851,23.3126,35.9376
12:22:46.861,18.7501,27.4376
12:22:46.869,14.5001,18.3126
12:22:46.880,11.875,9.9375
12:22:46.891,7.75,2.5
12:22:46.899,3.625,-5.5
12:22:46.910,0,-12.875
12:22:46.919,-3.25,-20.5001
12:22:46.931,-6,-27.1876
12:22:46.940,-9.25,-35.5626
12:22:46.952,-13.3751,-42.0627
12:22:46.959,-16.0626,-48.4377
12:22:46.990,-19.0626,-56.2502
12:22:46.992,-22.6251,-61.9377
12:22:46.994,-25.1876,-68.9378
12:22:47.001,-28.9376,-74.0628
12:22:47.029,-31.6251,-80.7503
12:22:47.032,-34.5626,-87.8128
12:22:47.034,-37.7501,-93.0629
12:22:47.042,-40.6877,-99.6879
12:22:47.076,-43.2502,-104.1254
12:22:47.078,-44.3752,-109.1879
12:22:47.080,-47.7502,-114.0629
12:22:47.083,-49.0002,-119.188
12:22:47.117,-51.7502,-123.063
12:22:47.120,-52.8127,-127.2505
12:22:47.122,-55.3127,-131.313
12:22:47.150,-56.5627,-134.688
12:22:47.151,-58.5627,-138.313
12:22:47.153,-60.5627,-142.0005
12:22:47.160,-61.5627,-143.7505
12:22:47.161,-63.1252,-147.8756
12:22:47.174,-64.4377,-151.0006
12:22:47.181,-65.8128,-154.0631
12:22:47.189,-67.1253,-157.3756
12:22:47.201,-69.2503,-159.0631
12:22:47.211,-68.8753,-162.6256
12:22:47.223,-71.0003,-164.8131
12:22:47.229,-71.9378,-169.1256
12:22:47.240,-74.5003,-170.6257
12:22:47.251,-74.1878,-171.8757
12:22:47.261,-70.9378,-169.2506
12:22:47.272,-66.6878,-161.6256
12:22:47.283,-58.6252,-148.9381
12:22:47.290,-50.9377,-131.938
12:22:47.300,-40.0002,-112.3754
12:22:47.312,-31.1251,-91.1254
12:22:47.323,-20.5626,-72.3753
12:22:47.330,-11.625,-52.6252
12:22:47.340,-4.4375,-36.1876
12:22:47.351,3.4375,-18.8126
12:22:47.378,10.5,-5.5625
12:22:47.380,16.2501,6.375
12:22:47.383,20.0001,17.6876
12:22:47.389,24.3751,26.1876
12:22:47.399,26.5626,35.0626
12:22:47.412,30.8751,41.2502
12:22:47.421,31.1251,46.9377
12:22:47.431,33.5626,50.3127
12:22:47.440,33.0001,55.1877
12:22:47.451,34.8751,57.6877
12:22:47.462,35.1251,61.2502
12:22:47.469,35.8751,61.6877
12:22:47.481,34.7501,61.8127
12:22:47.489,34.0626,59.7502
12:22:47.500,31.1251,57.5627
12:22:47.512,29.0001,53.0002
12:22:47.523,25.8751,48.3752
12:22:47.529,23.2501,42.1252
12:22:47.544,20.6876,37.0001
12:22:47.550,18.8751,32.8751
12:22:47.562,16.8126,28.6251
12:22:47.571,14.6251,24.6251
12:22:47.581,12.3125,20.2501
12:22:47.590,10.5625,15.6876
12:22:47.600,8.375,12.5625
12:22:47.610,6.875,9.25
12:22:47.620,4.75,4.1875
12:22:47.629,3.125,0.4375
12:22:47.639,0.625,-3.8125
12:22:47.650,-1.375,-7.5625
12:22:47.661,-3.125,-12.5625
12:22:47.672,-5.875,-17.6876
12:22:47.681,-8.5625,-21.8751
12:22:47.689,-9.75,-26.8126
12:22:47.701,-11.75,-31.0626
12:22:47.710,-14.2501,-35.5626
12:22:47.721,-16.7501,-40.4377
12:22:47.734,-19.6876,-47.1252
12:22:47.741,-22.4376,-51.8752
12:22:47.750,-24.4376,-56.7502
12:22:47.761,-26.8751,-61.6252
12:22:47.771,-28.0626,-66.4378
12:22:47.843,-29.2501,-70.0628
12:22:47.844,-31.3751,-73.9378
12:22:47.916,-32.8751,-76.7503
12:22:47.916,-34.9376,-81.0003
12:22:47.916,-36.3751,-85.4378
12:22:47.951,-38.3751,-89.6253
12:22:47.951,-40.5627,-93.1254
12:22:47.951,-41.6877,-96.0004
12:22:47.954,-43.3127,-99.9379
12:22:47.955,-44.6252,-101.9379
12:22:47.968,-46.2502,-105.8754
12:22:47.969,-47.5002,-109.3754
12:22:47.970,-49.5002,-111.9379
12:22:47.981,-51.4377,-116.6879
12:22:47.990,-53.2502,-119.813
12:22:48.002,-54.2502,-123.6255
12:22:48.011,-57.0002,-126.063
12:22:48.024,-57.7502,-129.063
12:22:48.030,-58.4377,-132.5005
12:22:48.041,-60.3752,-135.7505
12:22:48.050,-61.2502,-137.7505
12:22:48.061,-61.6252,-138.8755
12:22:48.069,-60.6252,-136.7505
12:22:48.089,-55.4377,-130.938
12:22:48.092,7.4375,-0.5
12:22:48.107,13.6251,14.4376
12:22:48.122,18.2501,23.9376
12:22:48.124,21.0626,33.5001
12:22:48.136,23.9376,39.8752
12:22:48.140,26.8126,46.6252
12:22:48.150,28.8126,53.8127
12:22:48.160,31.0626,57.5002
12:22:48.171,32.5626,62.5002
12:22:48.183,34.0626,65.5627
12:22:48.190,34.5001,70.2503
12:22:48.200,35.8126,71.3753
12:22:48.211,36.4376,74.3753
12:22:48.220,36.4376,73.6253
12:22:48.229,36.0626,72.8128
12:22:48.242,33.0001,69.6878
12:22:48.250,31.0001,66.3128
12:22:48.260,29.3751,61.2502
12:22:48.273,26.8126,55.0627
12:22:48.281,25.0001,51.5002
12:22:48.290,22.9376,47.1252
12:22:48.300,21.0001,44.0627
12:22:48.311,18.0626,40.5002
12:22:48.321,17.0001,35.1251
12:22:48.330,14.5001,31.7501
12:22:48.344,13,27.5626
12:22:48.351,11.25,24.5001
12:22:48.363,10.4375,20.0626
12:22:48.371,8.3125,16.4376
12:22:48.381,5.5,12.4375
12:22:48.391,3.5625,8.6875
12:22:48.401,2.1875,4.1875
12:22:48.410,-0.1875,0.0625
12:22:48.421,-1.9375,-3.875
12:22:48.431,-3.375,-8.875
12:22:48.440,-5.5,-12.125
12:22:48.450,-6.625,-16.1876
12:22:48.483,-9.25,-20.1251
12:22:48.485,-10.5,-24.0626
12:22:48.487,-12,-27.3126
12:22:48.491,-14.6876,-31.3126
12:22:48.523,-15.8126,-35.0001
12:22:48.526,-18.0001,-39.1876
12:22:48.528,-19.5626,-44.0627
12:22:48.530,-21.1876,-46.0627
12:22:48.560,-23.1876,-51.1252
12:22:48.563,-24.9376,-53.8127
12:22:48.567,-26.4376,-57.9377
12:22:48.571,-28.5626,-62.4377
12:22:48.600,-30.1876,-65.5628
12:22:48.603,-32.1876,-70.1253
12:22:48.606,-33.9376,-71.7503
12:22:48.623,-35.7501,-76.0003
12:22:48.625,-37.3751,-78.9378
12:22:48.661,-38.6876,-81.8128
12:22:48.663,-40.5627,-85.0003
12:22:48.666,-42.5002,-89.1878
12:22:48.671,-43.5627,-91.7504
12:22:48.675,-45.8127,-96.8754
12:22:48.685,-47.0627,-99.3129
12:22:48.697,-48.1252,-103.3754
12:22:48.706,-48.6877,-104.6254
12:22:48.719,-50.3127,-106.0629
12:22:48.725,-51.0627,-110.2504
12:22:48.736,-51.3127,-112.1879
12:22:48.747,-53.3752,-114.0004
12:22:48.756,-52.5627,-114.5004
12:22:48.765,-46.5002,-103.8129
12:22:48.775,-39.3127,-90.2503
12:22:48.786,-29.5626,-73.7503
12:22:48.795,-19.8751,-52.3752
12:22:48.805,-10.5,-32.6251
12:22:48.816,-0.6875,-12.0625
12:22:48.825,6.125,6
12:22:48.837,13.3126,21.1251
12:22:48.845,18.3751,35.2501
12:22:48.857,24.2501,46.8752
12:22:48.865,27.3126,56.7502
12:22:48.876,31.0626,63.7502
12:22:48.885,33.1251,71.1253
12:22:48.895,34.5001,75.0628
12:22:48.905,35.9376,79.6878
12:22:48.915,37.1876,82.5628
12:22:48.926,38.2501,85.8753
12:22:48.936,38.4376,87.8753
12:22:48.946,39.9377,91.2504
12:22:48.955,40.3127,91.3754
12:22:48.965,39.6252,92.7504
12:22:48.975,38.4376,89.3753
12:22:48.985,36.5001,87.5628
12:22:48.995,34.8751,83.2503
12:22:49.006,31.9376,79.3753
12:22:49.017,29.8126,74.8753
12:22:49.027,28.5626,69.4378
12:22:49.035,24.8751,64.6252
12:22:49.046,23.5626,60.3127
12:22:49.056,21.4376,55.8752
12:22:49.065,18.9376,52.7502
12:22:49.075,17.2501,47.7502
12:22:49.085,15.6876,44.4377
12:22:49.100,14.3126,41.4377
12:22:49.106,12.3125,38.0626
12:22:49.117,9.5,32.8126
12:22:49.125,8.0625,28.6251
12:22:49.136,4.875,24.0626
12:22:49.155,3.125,19.3126
12:22:49.161,0.5625,15.8126
12:22:49.169,-1.25,10.8125
12:22:49.175,-3.375,6.6875
12:22:49.192,-5.75,0.875
12:22:49.199,-8.125,-2.9375
12:22:49.208,-10.25,-8.1875
12:22:49.215,-12.25,-12.75
12:22:49.226,-15.4376,-18.2501
12:22:49.236,-17.6251,-22.3751
12:22:49.267,-20.1251,-27.2501
12:22:49.270,-22.1876,-32.1251
12:22:49.273,-24.1251,-36.1251
12:22:49.276,-25.5001,-40.7502
12:22:49.310,-27.3751,-43.8127
12:22:49.313,-28.6876,-47.4377
12:22:49.316,-30.1876,-51.0627
12:22:49.318,-32.1251,-54.6877
12:22:49.349,-33.5626,-58.1877
12:22:49.353,-34.5626,-62.0627
12:22:49.356,-36.1251,-64.9377
12:22:49.361,-37.0001,-67.5003
12:22:49.376,-39.0001,-70.3128
12:22:49.377,-40.1877,-73.6878
12:22:49.413,-41.1877,-75.9378
12:22:49.428,-42.0627,-78.8753
12:22:49.446,-43.4377,-81.6253
12:22:49.447,-45.0002,-85.0003
12:22:49.460,-46.0002,-87.5628
12:22:49.460,-47.0002,-90.0628
12:22:49.461,-48.0002,-92.9379
12:22:49.468,-48.8752,-94.2504
12:22:49.482,-49.3127,-97.1879
12:22:49.486,-50.3127,-98.6254
12:22:49.497,-50.3752,-101.2504
12:22:49.505,-48.4377,-97.5629
12:22:49.515,-43.1877,-90.3129
12:22:49.525,-36.0626,-76.4378
12:22:49.535,-27.1251,-60.6877
12:22:49.545,-17.4376,-39.5627
12:22:49.557,-7.6875,-19.6876
12:22:49.565,1,1.75
12:22:49.575,9.625,20.2501
12:22:49.585,16.3751,36.9376
12:22:49.596,22.7501,50.7502
12:22:49.605,27.1876,62.2502
12:22:49.615,33.8126,80.3753
12:22:49.625,35.7501,87.3753
12:22:49.636,38.3751,92.0629
12:22:49.649,39.7502,97.2504
12:22:49.656,41.0002,101.3129
12:22:49.665,42.3127,105.1254
12:22:49.675,43.3752,107.1254
12:22:49.685,45.0627,109.3754
12:22:49.696,44.1877,110.2504
12:22:49.705,44.3752,110.2504
12:22:49.715,43.6252,110.0004
12:22:49.727,42.3127,107.4379
12:22:49.737,39.8752,103.8754
12:22:49.745,37.3751,99.3129
12:22:49.756,34.6876,92.9379
12:22:49.765,32.0626,86.7503
12:22:49.776,29.5001,82.4378
12:22:49.785,26.9376,76.2503
12:22:49.796,24.6251,71.8753
12:22:49.805,22.3751,66.9378
12:22:49.816,20.9376,63.5002
12:22:49.827,18.5001,58.2502
12:22:49.836,15.4376,54.2502
12:22:49.845,13.6876,49.7502
12:22:49.857,11.5625,45.2502
12:22:49.866,9.25,39.5627
12:22:49.875,6.75,35.1876
12:22:49.885,4.1875,29.3126
12:22:49.896,1.5,25.2501
12:22:49.906,-0.5,19.8126
12:22:49.939,-2.5625,14.1251
12:22:49.942,-5.1875,9.1875
12:22:49.945,-7.4375,3.6875
12:22:49.951,-9.8125,-2
12:22:49.962,-12.4375,-6.625
12:22:49.971,-14.5626,-11.9375
12:22:50.004,-17.6251,-18.3126
12:22:50.007,-20.8751,-23.3751
12:22:50.011,-22.7501,-28.9376
12:22:50.012,-24.5001,-33.3751
12:22:50.043,-26.0626,-37.6251
12:22:50.046,-27.9376,-42.4377
12:22:50.047,-30.1251,-46.6877
12:22:50.054,-31.6251,-50.6252
12:22:50.062,-33.1876,-55.2502
12:22:50.092,-35.4376,-58.6877
12:22:50.095,-37.1876,-62.5002
12:22:50.098,-40.0002,-68.4378
12:22:50.101,-41.1877,-71.7503
12:22:50.131,-42.5627,-76.0628
12:22:50.133,-43.8752,-78.7503
12:22:50.136,-45.8127,-81.3753
12:22:50.141,-46.3127,-85.3128
12:22:50.168,-48.1877,-88.6878
12:22:50.172,-49.1252,-92.5004
12:22:50.175,-50.8752,-94.5629
12:22:50.180,-51.5002,-98.3129
12:22:50.190,-52.3752,-100.0004
12:22:50.201,-52.6877,-102.8754
12:22:50.210,-53.8752,-105.0629
12:22:50.220,-54.8752,-108.6879
12:22:50.232,-54.9377,-109.7504
12:22:50.240,-53.5002,-108.1254
12:22:50.251,-48.9377,-101.6879
12:22:50.260,-42.3752,-89.2503
12:22:50.273,-33.7501,-72.5628
12:22:50.280,-23.2501,-51.1877
12:22:50.299,-12.4375,-29.6876
12:22:50.303,-2.375,-7.0625
12:22:50.311,6.0625,12.4375
12:22:50.320,14.0001,32.0001
12:22:50.332,19.8126,46.6252
12:22:50.344,25.8751,60.3752
12:22:50.351,30.0626,70.7503
12:22:50.361,34.0001,80.7503
12:22:50.371,36.4376,86.8128
12:22:50.381,38.9376,93.8129
12:22:50.392,40.3127,99.7504
12:22:50.400,43.4377,104.2504
12:22:50.412,44.6252,109.1254
12:22:50.421,46.3752,113.2504
12:22:50.430,46.7502,115.7504
12:22:50.440,48.3127,118.313
12:22:50.453,48.6252,119.6255
12:22:50.460,49.0627,119.7505
12:22:50.470,47.2502,117.8755
12:22:50.485,45.0627,114.3754
12:22:50.495,42.5002,108.8129
12:22:50.500,40.1252,103.3754
12:22:50.516,37.5626,97.1254
12:22:50.525,33.5626,91.2504
12:22:50.530,31.4376,85.8753
12:22:50.542,28.8126,79.5628
12:22:50.550,25.9376,74.4378
12:22:50.562,23.3751,69.6253
12:22:50.571,21.3126,64.2502
12:22:50.580,19.1876,60.0627
12:22:50.592,17.9376,55.6877
12:22:50.607,15.1876,50.8127
12:22:50.610,12.9375,46.8127
12:22:50.625,10.5,42.1877
12:22:50.631,8.1875,37.5001
12:22:50.641,5.5625,31.6251
12:22:50.652,3.1875,25.5626
12:22:50.660,0.5625,21.1251
12:22:50.671,-1.5,15.4376
12:22:50.681,-4.6875,9.8125
12:22:50.702,-6.9375,5.25
12:22:50.706,-8.9375,-0.9375
12:22:50.736,-11.6875,-6.5
12:22:50.808,-14.3751,-12.1875
12:22:50.823,-17.9376,-17.9376
12:22:50.857,-19.8751,-23.2501
12:22:50.861,-21.1251,-29.0626
12:22:50.861,-23.3126,-33.3751
12:22:50.861,-25.3751,-38.2501
12:22:50.863,-27.8126,-42.3752
12:22:50.864,-29.3126,-46.3752
12:22:50.874,-30.6876,-51.5002
12:22:50.874,-33.3126,-55.6877
12:22:50.875,-35.4376,-59.8752
12:22:50.885,-36.9376,-63.9377
12:22:50.897,-37.8126,-67.9378
12:22:50.908,-38.5001,-70.8128
12:22:50.915,-40.6877,-73.3128
12:22:50.926,-41.5627,-77.1253
12:22:50.935,-43.8127,-80.5003
12:22:50.945,-44.9377,-83.6878
12:22:50.956,-45.9377,-86.3128
12:22:50.966,-47.5627,-89.8128
12:22:50.982,-49.1877,-93.9379
12:22:50.985,-50.6877,-97.5004
12:22:50.996,-60.3752,-123.0005
12:22:51.012,-57.1252,-118.813
12:22:51.017,-51.5002,-108.0629
12:22:51.025,-42.7502,-92.5629
12:22:51.038,-34.1876,-72.6878
12:22:51.045,-22.3126,-50.8127
12:22:51.058,-12.6875,-28.6251
12:22:51.066,-3.125,-7.625
12:22:51.075,4.625,12.9375
12:22:51.088,11.5625,28.3751
12:22:51.095,17.3751,43.6252
12:22:51.105,22.7501,54.3127
12:22:51.116,26.3751,65.0002
12:22:51.125,29.0001,71.1878
12:22:51.135,32.2501,79.3128
12:22:51.145,34.6876,84.7503
12:22:51.157,36.0001,89.7503
12:22:51.165,37.4376,93.5629
12:22:51.178,38.6251,97.4379
12:22:51.187,40.5627,100.0629
12:22:51.220,40.6877,102.4379
12:22:51.222,40.8752,103.5004
12:22:51.224,40.3127,102.9379
12:22:51.227,39.0627,100.8129
12:22:51.235,37.5001,97.9379
12:22:51.246,35.1251,92.9379
12:22:51.256,32.1876,87.6253
12:22:51.275,28.4376,81.1253
12:22:51.277,25.1876,75.1253
12:22:51.285,22.5626,70.3753
12:22:51.297,21.5626,64.8752
12:22:51.308,18.5001,59.7502
12:22:51.315,17.0626,55.0002
12:22:51.325,14.8751,51.4377
12:22:51.336,12.5625,47.8127
12:22:51.345,11.25,44.1252
12:22:51.357,9.25,39.1251
12:22:51.392,7.5,35.6876
12:22:51.395,5.3125,31.0001
12:22:51.397,3.0625,26.3751
12:22:51.406,1.625,21.5626
12:22:51.408,-0.8125,16.5001
12:22:51.440,-3,11.9375
12:22:51.442,-4.9375,7.6875
12:22:51.444,-7.5625,2.875
12:22:51.448,-10.4375,-2.75
12:22:51.479,-13,-8.25
12:22:51.480,-14.6876,-14.3126
12:22:51.483,-17.0626,-18.9376
12:22:51.515,-19.5001,-23.5001
12:22:51.518,-21.5001,-28.3751
12:22:51.520,-23.0001,-33.1876
12:22:51.526,-25.0001,-37.7501
12:22:51.527,-27.5001,-41.6252
12:22:51.542,-29.2501,-45.1252
12:22:51.551,-29.3751,-49.6252
12:22:51.557,-31.5001,-52.4377
12:22:51.565,-33.2501,-56.3752
12:22:51.577,-35.0001,-60.5002
12:22:51.585,-37.0626,-63.7502
12:22:51.597,-38.0001,-68.4378
12:22:51.605,-39.9377,-71.5003
12:22:51.615,-40.3752,-74.3128
12:22:51.627,-42.5627,-76.0628
12:22:51.636,-42.7502,-80.0003
12:22:51.646,-44.8752,-81.5628
12:22:51.656,-45.6252,-86.3753
12:22:51.665,-47.4377,-89.0003
12:22:51.675,-48.6877,-92.9379
12:22:51.686,-49.7502,-94.3754
12:22:51.695,-50.6877,-98.0004
12:22:51.708,-50.6877,-100.5629
12:22:51.717,-51.5627,-102.9379
12:22:51.734,-52.6252,-104.1879
12:22:51.737,-53.5002,-106.9379
12:22:51.746,-53.3752,-109.0004
12:22:51.755,-53.8752,-109.0004
12:22:51.766,-50.1252,-104.9379
12:22:51.776,-44.6877,-95.3129
12:22:51.785,-36.5001,-78.9378
12:22:51.802,-26.3751,-58.8752
12:22:51.818,-17.2501,-38.3751
12:22:51.820,-6.25,-15.5626
12:22:51.826,2.9375,6.4375
12:22:51.835,11.5,25.1876
12:22:51.847,18.4376,42.4377
12:22:51.856,23.4376,55.6252
12:22:51.867,28.8126,66.3128
12:22:51.875,31.0626,75.7503
12:22:51.885,34.5001,82.7503
12:22:51.897,35.5001,87.8753
12:22:51.906,38.2501,92.3129
12:22:51.916,38.8126,95.6254
12:22:51.925,39.8127,99.2504
12:22:51.936,40.7502,102.6879
12:22:51.945,41.3752,104.5004
12:22:51.955,40.8752,105.1879
12:22:51.965,42.3127,105.9379
12:22:51.975,39.8127,104.6254
12:22:51.987,37.6251,101.7504
12:22:51.995,35.2501,97.0629
12:22:52.007,31.7501,90.5629
12:22:52.016,29.5001,83.7503
12:22:52.027,26.1251,79.1253
12:22:52.036,24.1251,73.2503
12:22:52.045,22.1251,68.1878
12:22:52.058,19.8751,63.5627
12:22:52.068,18.1876,58.7502
12:22:52.087,16.6251,55.1877
12:22:52.089,15.3751,51.7502
12:22:52.123,13.0625,48.5002
12:22:52.126,11.4375,44.5627
12:22:52.127,10.1875,39.8752
12:22:52.129,7.625,36.6876
12:22:52.135,6.3125,32.3126
12:22:52.148,4.75,27.3751
12:22:52.155,1.875,23.5626
12:22:52.175,0,17.6251
12:22:52.180,-1.625,13.5626
12:22:52.203,-3.8125,9.3125
12:22:52.206,-5.3125,4.4375
12:22:52.208,-7.5625,-0.5
12:22:52.215,-9.875,-5.1875
12:22:52.241,-11.9375,-9.875
12:22:52.244,-14.6876,-14.7501
12:22:52.246,-17.0001,-19.9376
12:22:52.272,-19.0626,-25.8126
12:22:52.275,-21.8751,-31.0001
12:22:52.277,-23.6876,-35.7501
12:22:52.310,-25.1876,-39.8127
12:22:52.314,-27.3126,-43.7502
12:22:52.318,-29.0001,-48.4377
12:22:52.320,-31.0626,-52.0002
12:22:52.325,-32.8751,-55.8127
12:22:52.349,-34.5626,-60.1252
12:22:52.351,-35.7501,-63.6252
12:22:52.356,-37.1876,-67.3128
12:22:52.367,-38.4376,-70.6253
12:22:52.375,-39.0626,-73.1253
12:22:52.386,-40.5627,-74.6878
12:22:52.395,-41.4377,-78.6253
12:22:52.406,-43.5627,-82.9378
12:22:52.416,-45.4377,-85.8753
12:22:52.425,-46.9377,-88.8753
12:22:52.444,-48.0627,-93.0629
12:22:52.448,-49.6877,-94.6879
12:22:52.455,-50.3127,-98.9379
12:22:52.467,-51.4377,-100.4379
12:22:52.499,-51.6877,-104.2504
12:22:52.502,-53.0002,-105.3754
12:22:52.504,-53.7502,-109.0629
12:22:52.507,-52.8127,-109.4379
12:22:52.520,-50.9377,-105.8129
12:22:52.527,-44.8127,-96.2504
12:22:52.535,-36.5626,-79.8753
12:22:52.546,-26.8126,-61.0627
12:22:52.555,-16.5626,-38.4376
12:22:52.565,-6.375,-15.2501
12:22:52.575,3.4375,5.4375
12:22:52.585,10.625,26.1876
12:22:52.595,17.8126,42.5627
12:22:52.606,24.4376,56.3752
12:22:52.620,28.4376,67.5628
12:22:52.626,32.6876,76.2503
12:22:52.636,35.0001,84.6253
12:22:52.648,38.0626,90.8128
12:22:52.655,39.8127,95.8129
12:22:52.665,41.6877,100.6879
12:22:52.698,42.3752,104.1879
12:22:52.700,43.1252,106.5629
12:22:52.703,44.2502,109.4379
12:22:52.710,44.1252,108.9379
12:22:52.721,44.0627,110.5629
12:22:52.732,43.0627,108.4379
12:22:52.741,42.0627,106.6879
12:22:52.750,39.6877,102.5004
12:22:52.760,36.6251,97.1254
12:22:52.772,33.8751,91.3129
12:22:52.782,30.2501,84.0003
12:22:52.790,26.8751,77.1253
12:22:52.801,23.8751,70.5628
12:22:52.810,21.1251,65.0002
12:22:52.832,18.7501,58.7502
12:22:52.834,16.1251,53.8752
12:22:52.862,12.625,46.2502
12:22:52.864,11.0625,42.5627
12:22:52.868,8.875,37.6251
12:22:52.890,7.1875,33.0001
12:22:52.893,4.25,29.0626
12:22:52.895,2.1875,23.9376
12:22:52.922,1.125,18.6876
12:22:52.924,-1.0625,14.8126
12:22:52.927,-2.5,9.9375
12:22:52.933,-5.5625,4.375
12:22:52.963,-7.8125,-0.625
12:22:52.964,-10.375,-6.25
12:22:52.968,-12.9375,-11.375
12:22:52.970,-15.1251,-17.5626
12:22:53.005,-17.9376,-22.0001
12:22:53.007,-19.6876,-28.3126
12:22:53.009,-22.6876,-32.7501
12:22:53.012,-24.0001,-37.9376
12:22:53.033,-26.1876,-43.4377
12:22:53.035,-29.1876,-47.2502
12:22:53.044,-31.0626,-52.4377
12:22:53.051,-32.3751,-57.0002
12:22:53.063,-34.2501,-61.2502
12:22:53.072,-35.2501,-65.2502
12:22:53.081,-36.8126,-68.3753
12:22:53.099,-38.1876,-72.3753
12:22:53.108,-40.5627,-75.6253
12:22:53.124,-43.1877,-81.6253
12:22:53.125,-44.8752,-84.3128
12:22:53.132,-45.5627,-86.8753
12:22:53.141,-46.3752,-91.3754
12:22:53.151,-47.5002,-92.3754
12:22:53.162,-47.6877,-95.9379
12:22:53.172,-49.4377,-97.5004
12:22:53.181,-49.9377,-101.1254
12:22:53.191,-52.2502,-103.5004
12:22:53.201,-53.5002,-107.7504
12:22:53.211,-54.3127,-111.4379
12:22:53.221,-55.8752,-113.8129
12:22:53.231,-56.6877,-116.6254
12:22:53.240,-57.5002,-118.938
12:22:53.251,-58.3127,-121.188
12:22:53.262,-58.0627,-123.3755
12:22:53.270,-59.5002,-124.8755
12:22:53.281,-59.0002,-126.063
12:22:53.291,-56.9377,-121.813
12:22:53.301,-50.1877,-112.9379
12:22:53.311,-42.9377,-97.3754
12:22:53.321,-32.9376,-78.8753
12:22:53.330,-22.3126,-55.3127
12:22:53.342,-11.25,-32.6251
12:22:53.352,-1.625,-8
12:22:53.361,7.8125,11.5625
12:22:53.373,15.4376,30.4376
12:22:53.381,21.5001,45.0002
12:22:53.403,26.8126,57.0002
12:22:53.407,30.0626,67.3753
12:22:53.423,33.5001,74.9378
12:22:53.424,36.0626,82.7503
12:22:53.431,37.5626,88.3753
12:22:53.441,39.9377,92.1879
12:22:53.451,40.5627,97.1254
12:22:53.461,42.1252,99.6879
12:22:53.472,42.8127,102.6254
12:22:53.480,43.0002,103.6879
12:22:53.491,42.5627,104.5629
12:22:53.502,42.7502,103.4379
12:22:53.511,41.1877,103.2504
12:22:53.520,40.1252,99.3129
12:22:53.533,37.0626,94.9379
12:22:53.571,35.0001,88.5003
12:22:53.573,30.5626,82.7503
12:22:53.576,27.9376,75.5628
12:22:53.581,24.8751,69.0628
12:22:53.583,22.0626,64.0627
12:22:53.613,19.8751,59.3752
12:22:53.615,18.3126,53.6877
12:22:53.618,15.3751,49.1877
12:22:53.648,13.7501,44.5627
12:22:53.648,11.625,40.6252
12:22:53.651,10.0625,35.6251
12:22:53.656,7.75,31.5001
12:22:53.691,5.75,26.3751
12:22:53.693,3.5,21.5626
12:22:53.697,1.8125,16.8751
12:22:53.702,0.0625,12.1875
12:22:53.703,-3.375,7.5
12:22:53.725,-5.1875,2
12:22:53.727,-7.8125,-3.6875
12:22:53.731,-11.125,-9.375
12:22:53.741,-13.7501,-16.3126
12:22:53.752,-17.1251,-21.8751
12:22:53.780,-19.1876,-26.6876
12:22:53.782,-20.8126,-31.8751
12:22:53.784,-23.0001,-36.6251
12:22:53.796,-23.5626,-41.0627
12:22:53.802,-26.3751,-45.6877
12:22:53.812,-28.0626,-50.0002
12:22:53.821,-29.5626,-55.0627
12:22:53.831,-32.3751,-59.2502
12:22:53.840,-32.3126,-62.8752
12:22:53.853,-34.5626,-65.9378
12:22:53.861,-36.4376,-70.5003
12:22:53.871,-37.1251,-73.4378
12:22:53.881,-38.8751,-76.6878
12:22:53.891,-39.1876,-80.4378
12:22:53.902,-41.3127,-82.7503
12:22:53.912,-42.9377,-86.8753
12:22:53.921,-43.9377,-89.3128
12:22:53.933,-45.4377,-92.6254
12:22:53.941,-45.9377,-94.1254
12:22:53.953,-48.0627,-97.4379
12:22:53.964,-49.0627,-101.1254
12:22:53.972,-50.8127,-103.0629
12:22:53.982,-51.7502,-107.1254
12:22:53.991,-52.1252,-110.8129
12:22:54.002,-53.2502,-112.0629
12:22:54.011,-55.4377,-116.5004
12:22:54.020,-55.5627,-118.1255
12:22:54.031,-56.8752,-121.313
12:22:54.042,-56.7502,-122.3755
12:22:54.050,-57.8127,-125.438
12:22:54.062,-58.1252,-126.063
12:22:54.071,-57.3127,-125.8755
12:22:54.082,-53.2502,-118.7505
12:22:54.091,-46.0002,-106.8129
12:22:54.103,-36.7501,-89.3128
12:22:54.111,-27.6876,-67.3128
12:22:54.120,-16.0626,-46.2502
12:22:54.135,-6.5,-21.3126
12:22:54.143,3.875,-0.6875
12:22:54.151,12.625,19.1876
12:22:54.164,19.2501,37.2501
12:22:54.170,25.5001,50.7502
12:22:54.182,29.4376,62.1877
12:22:54.192,33.1251,70.5003
12:22:54.203,35.4376,77.4378
12:22:54.211,36.8751,82.8128
12:22:54.220,38.6876,87.5003
12:22:54.231,40.6877,91.4379
12:22:54.244,41.5627,95.3129
12:22:54.252,42.5002,98.1879
12:22:54.262,42.8752,100.5004
12:22:54.271,43.3752,101.9379
12:22:54.282,42.8752,102.2504
12:22:54.310,42.2502,101.5629
12:22:54.312,40.4377,97.9379
12:22:54.314,37.7501,93.3754
12:22:54.322,34.6876,88.1878
12:22:54.346,32.1876,82.9378
12:22:54.350,29.7501,76.6253
12:22:54.377,27.4376,71.3753
12:22:54.382,25.0001,66.5628
12:22:54.383,23.5001,62.0002
12:22:54.384,22.0626,58.4377
12:22:54.390,21.1876,55.0002
12:22:54.424,19.1876,52.1252
12:22:54.428,17.9376,48.6877
12:22:54.457,16.3751,45.2502
12:22:54.459,15.6876,42.5627
12:22:54.459,13.5626,39.0626
12:22:54.462,11.875,34.2501
12:22:54.474,9.3125,30.5001
12:22:54.475,7.9375,25.2501
12:22:54.482,5.75,21.2501
12:22:54.492,4.5625,15.8751
12:22:54.502,1.8125,12.625
12:22:54.512,-0.9375,7.6875
12:22:54.522,-2.25,2.375
12:22:54.532,-4.75,-1.875
12:22:54.548,-6.375,-6.75
12:22:54.550,-8.25,-12.1875
12:22:54.562,-10.5,-17.2501
12:22:54.573,-11.9375,-21.0001
12:22:54.581,-13.6251,-24.8126
12:22:54.591,-15.3751,-30.1876
12:22:54.600,-16.8751,-33.0001
12:22:54.612,-18.9376,-37.1876
12:22:54.621,-20.2501,-40.7502
12:22:54.631,-21.5626,-43.8752
12:22:54.650,-23.5001,-47.8127
12:22:54.655,-24.7501,-52.0002
12:22:54.663,-27.9376,-55.7502
12:22:54.674,-28.6876,-59.5627
12:22:54.681,-30.1251,-62.7502
12:22:54.698,-30.8126,-66.1878
12:22:54.715,-33.0626,-68.8128
12:22:54.718,-34.0626,-72.0628
12:22:54.722,-35.5001,-74.8128
12:22:54.732,-36.3751,-78.1253
12:22:54.740,-37.5001,-79.8128
12:22:54.751,-39.1252,-84.1878
12:22:54.760,-40.6252,-86.6253
12:22:54.772,-42.2502,-88.8753
12:22:54.781,-41.9377,-92.3129
12:22:54.792,-41.8752,-94.5004
12:22:54.800,-43.2502,-96.8129
12:22:54.814,-43.1877,-98.6254
12:22:54.823,-44.6252,-100.2504
12:22:54.832,-44.5627,-102.0629
12:22:54.842,-42.1877,-98.7504
12:22:54.852,-37.1876,-91.4379
12:22:54.860,-30.1251,-76.1878
12:22:54.872,-20.6251,-58.2502
12:22:54.881,-11.25,-36.0001
12:22:54.890,-0.6875,-14.1251
12:22:54.902,9.25,9.5625
12:22:54.922,17.4376,29.3126
12:22:54.924,25.1251,48.0002
12:22:54.932,31.0626,62.5002
12:22:54.947,36.3126,74.3753
12:22:54.951,39.0001,84.5003
12:22:54.961,42.6877,91.6879
12:22:54.977,45.4377,100.5004
12:22:54.982,47.6252,104.3754
12:22:54.991,49.7502,109.3754
12:22:55.003,50.6252,113.2504
12:22:55.011,52.0627,116.6254
12:22:55.024,52.6877,120.2505
12:22:55.063,53.8127,121.313
12:22:55.066,54.1877,122.7505
12:22:55.068,53.9377,123.063
12:22:55.069,52.3127,121.7505
12:22:55.072,50.7502,119.2505
12:22:55.113,48.6877,113.3129
12:22:55.116,45.0627,108.0629
12:22:55.118,42.2502,101.9379
12:22:55.142,39.5002,95.8754
12:22:55.142,37.0001,91.0629
12:22:55.143,34.5626,84.4378
12:22:55.145,31.8751,78.8128
12:22:55.152,30.3126,73.8753
12:22:55.184,27.2501,68.8753
12:22:55.187,26.1251,65.0002
12:22:55.190,23.3126,60.3752
12:22:55.192,22.2501,55.1252
12:22:55.211,21.0001,53.0002
12:22:55.213,20.4376,51.1252
12:22:55.221,19.8751,48.0002
12:22:55.231,18.5626,46.2502
12:22:55.242,18.0001,43.8127
12:22:55.254,17.2501,42.0002
12:22:55.262,17.1876,41.4377
12:22:55.271,18.0001,40.8127
12:22:55.285,17.6251,40.6252
12:22:55.291,17.4376,38.8751
12:22:55.304,16.0001,37.4376
12:22:55.311,14.9376,33.7501
12:22:55.322,13.8126,33.4376
12:22:55.331,14.8126,34.3126
12:22:55.342,15.0626,34.5001
12:22:55.350,16.5626,39.5002
12:22:55.362,17.3126,44.0002
12:22:55.372,18.4376,45.6252
12:22:55.384,19.7501,47.0627
12:22:55.392,19.8751,48.1252
12:22:55.402,19.0001,46.9377
12:22:55.412,18.6876,46.3127
12:22:55.422,17.7501,46.0627
12:22:55.432,18.5001,44.8127
12:22:55.442,18.5001,43.3127
12:22:55.452,18.3126,42.3127
12:22:55.461,17.7501,39.9377
