timestamp,Red,IR
11:55:26.383,-29.7501,-53.5627
11:55:26.386,-25.8126,-46.7502
11:55:26.391,-26.6876,-48.1877
11:55:26.392,-27.6251,-50.3752
11:55:26.394,-29.5001,-54.1877
11:55:26.424,-28.8751,-53.6252
11:55:26.425,-27.0001,-50.5627
11:55:26.427,-23.3126,-45.6877
11:55:26.431,-18.5001,-38.0001
11:55:26.436,-12.1875,-28.8751
11:55:26.446,-5.375,-17.6876
11:55:26.456,1.6875,-6.125
11:55:26.466,9.375,5.75
11:55:26.476,16.2501,17.7501
11:55:26.486,22.4376,28.3751
11:55:26.496,26.8751,35.8751
11:55:26.507,31.3126,43.9377
11:55:26.516,33.6876,48.6252
11:55:26.526,35.1251,52.3752
11:55:26.536,36.0001,54.3127
11:55:26.546,35.1876,54.8752
11:55:26.556,35.1251,54.6252
11:55:26.566,34.4376,54.5002
11:55:26.576,33.2501,52.9377
11:55:26.586,31.9376,51.8752
11:55:26.596,31.0001,49.5627
11:55:26.606,29.3126,48.5627
11:55:26.616,28.1251,45.2502
11:55:26.626,26.7501,44.6877
11:55:26.636,26.3126,42.7502
11:55:26.648,24.7501,40.3127
11:55:26.657,23.1876,39.6252
11:55:26.666,22.3751,36.0001
11:55:26.676,21.0626,34.1876
11:55:26.686,19.3751,31.6876
11:55:26.696,18.4376,30.0001
11:55:26.718,17.6876,28.5626
11:55:26.723,16.5626,27.0001
11:55:26.737,17.1876,26.6876
11:55:26.753,17.0626,27.3751
11:55:26.755,17.0626,28.2501
11:55:26.768,18.3126,28.8126
11:55:26.783,19.2501,29.3126
11:55:26.786,19.5626,31.3751
11:55:26.801,21.3126,32.4376
11:55:26.802,22.0626,33.6876
11:55:26.819,22.8751,35.1251
11:55:26.833,23.0626,35.8126
11:55:26.835,22.6251,35.8751
11:55:26.839,22.7501,36.1251
11:55:26.846,22.0626,36.3126
11:55:26.856,21.5001,35.1251
11:55:26.866,20.8126,33.5626
11:55:26.880,19.9376,32.4376
11:55:26.886,19.0001,30.4376
11:55:26.896,17.0001,28.3126
11:55:26.906,16.5001,26.7501
11:55:26.916,15.3751,23.8751
11:55:26.946,13,22.5001
11:55:26.949,11.9375,19.0001
11:55:26.951,10.3125,15.8751
11:55:26.957,9.1875,14.5001
11:55:26.987,7.5625,11.5625
11:55:26.990,5.5625,8.875
11:55:26.993,4.8125,6.625
11:55:26.997,2.5625,3.6875
11:55:27.029,1.125,1.5
11:55:27.031,-0.125,-1.625
11:55:27.033,-2.375,-3.1875
11:55:27.063,-2.75,-6.5625
11:55:27.064,-4.6875,-7.9375
11:55:27.066,-4.8125,-10.6875
11:55:27.073,-7.125,-11.75
11:55:27.081,-7.125,-14.7501
11:55:27.101,-9.125,-15.0626
11:55:27.104,-9.5,-18.6251
11:55:27.107,-11,-19.5626
11:55:27.116,-11.375,-21.0626
11:55:27.125,-12.375,-21.6876
11:55:27.137,-12.75,-24.5001
11:55:27.145,-14.3126,-25.1876
11:55:27.156,-14.5626,-26.7501
11:55:27.167,-15.6251,-28.1251
11:55:27.176,-16.1876,-30.0626
11:55:27.185,-16.9376,-30.5001
11:55:27.196,-18.6251,-33.0626
11:55:27.205,-18.6251,-34.0001
11:55:27.216,-19.6251,-34.8751
11:55:27.226,-20.6876,-37.6251
11:55:27.237,-20.9376,-38.6876
11:55:27.245,-22.9376,-38.8126
11:55:27.256,-23.3751,-42.0627
11:55:27.265,-24.6251,-41.8752
11:55:27.276,-25.0626,-43.6877
11:55:27.285,-25.5001,-45.8752
11:55:27.296,-26.3126,-45.5627
11:55:27.306,-26.0626,-47.0002
11:55:27.316,-26.5001,-46.6252
11:55:27.326,-25.1251,-46.6877
11:55:27.336,-23.0626,-43.1877
11:55:27.346,-19.8126,-38.9376
11:55:27.355,-15.5001,-30.6251
11:55:27.366,-8.6875,-22.4376
11:55:27.375,-2.5625,-11.0625
11:55:27.387,4.75,-1.5
11:55:27.395,11.1875,10.5625
11:55:27.405,17.1876,19.9376
11:55:27.416,21.0626,29.8126
11:55:27.427,26.1251,35.8751
11:55:27.437,28.8126,42.0627
11:55:27.445,30.6251,45.9377
11:55:27.456,31.2501,47.7502
11:55:27.465,31.5001,49.9377
11:55:27.478,30.6876,49.3752
11:55:27.485,30.0626,48.8752
11:55:27.500,28.8126,46.6877
11:55:27.506,27.4376,45.2502
11:55:27.515,26.5001,42.7502
11:55:27.526,25.6876,41.7502
11:55:27.535,24.0626,39.3126
11:55:27.546,22.2501,37.1251
11:55:27.555,21.1251,35.3751
11:55:27.565,19.2501,31.4376
11:55:27.575,17.0001,30.3126
11:55:27.585,15.8751,27.4376
11:55:27.596,14.1251,24.4376
11:55:27.605,13.6876,22.5626
11:55:27.616,11.1875,20.4376
11:55:27.625,10.625,17.6876
11:55:27.636,9.6875,16.7501
11:55:27.664,9.4375,15.4376
11:55:27.667,9.375,14.5626
11:55:27.669,9.0625,15.6251
11:55:27.676,10.5625,15.6876
11:55:27.705,10.3125,17.1251
11:55:27.708,11.6875,17.7501
11:55:27.710,12.125,18.8751
11:55:27.717,13.3126,20.5626
11:55:27.745,13.6251,21.0626
11:55:27.748,14.5626,22.7501
11:55:27.750,14.5001,23.2501
11:55:27.757,13.9376,23.0001
11:55:27.784,14.8126,22.5001
11:55:27.787,13.125,21.6876
11:55:27.789,13.2501,21.0001
11:55:27.815,11.5,18.9376
11:55:27.818,11.5625,18.3126
11:55:27.820,9.6875,15.9376
11:55:27.825,8.8125,15.1251
11:55:27.835,7.5625,12.125
11:55:27.845,6,10.875
11:55:27.856,4.625,7.5
11:55:27.866,3.1875,5.1875
11:55:27.875,1.25,2.875
11:55:27.886,0.75,0.25
11:55:27.895,-1.1875,-1.8125
11:55:27.905,-2.1875,-4.125
11:55:27.916,-4.5,-6.625
11:55:27.925,-5.5625,-9.5
11:55:27.936,-7.3125,-12
11:55:27.945,-9.125,-14.1876
11:55:27.956,-9.9375,-17.3126
11:55:27.965,-11.625,-18.8126
11:55:27.975,-12.5625,-22.0001
11:55:27.985,-13.8751,-22.5626
11:55:27.995,-14.6251,-26.0001
11:55:28.005,-15.9376,-27.6876
11:55:28.015,-16.9376,-29.3751
11:55:28.025,-18.1876,-30.4376
11:55:28.035,-18.8126,-32.8126
11:55:28.045,-19.8126,-33.6876
11:55:28.055,-20.6876,-35.1251
11:55:28.071,-21.0001,-36.6251
11:55:28.078,-21.4376,-37.7501
11:55:28.086,-22.9376,-38.3126
11:55:28.101,-23.2501,-41.0627
11:55:28.109,-23.8126,-41.5002
11:55:28.115,-24.8751,-42.7502
11:55:28.133,-25.0626,-44.5627
11:55:28.135,-25.5001,-44.7502
11:55:28.150,-27.0001,-45.0002
11:55:28.166,-27.4376,-46.2502
11:55:28.168,-27.4376,-47.8127
11:55:28.178,-28.5626,-48.0627
11:55:28.186,-29.2501,-50.6252
11:55:28.195,-30.2501,-51.1877
11:55:28.205,-30.3126,-53.5002
11:55:28.215,-31.5001,-53.3752
11:55:28.225,-31.8751,-55.1877
11:55:28.235,-33.0626,-56.6877
11:55:28.248,-33.7501,-57.5002
11:55:28.257,-34.5626,-59.3752
11:55:28.265,-34.5001,-59.8752
11:55:28.275,-34.3126,-60.6877
11:55:28.285,-34.7501,-60.8752
11:55:28.295,-33.6251,-58.6877
11:55:28.305,-30.8126,-56.1877
11:55:28.315,-27.3751,-48.8127
11:55:28.325,-21.6876,-41.4377
11:55:28.335,-14.8751,-32.0626
11:55:28.345,-8.375,-20.1876
11:55:28.355,-1.3125,-9.0625
11:55:28.365,5.8125,2.9375
11:55:28.375,12.375,13.2501
11:55:28.385,17.6876,23.8126
11:55:28.395,22.1876,30.9376
11:55:28.435,25.3751,37.5001
11:55:28.437,27.4376,41.7502
11:55:28.440,28.5626,44.4377
11:55:28.441,29.0001,46.3127
11:55:28.448,28.1876,46.8752
11:55:28.476,28.5001,46.5627
11:55:28.479,26.6251,45.5627
11:55:28.481,26.2501,44.3127
11:55:28.488,24.8126,42.8127
11:55:28.525,24.0001,40.5627
11:55:28.527,22.6251,39.2501
11:55:28.529,21.3126,36.6251
11:55:28.555,19.5001,35.3751
11:55:28.557,19.3126,33.3751
11:55:28.558,17.3751,30.5001
11:55:28.560,15.7501,29.2501
11:55:28.568,14.8126,26.4376
11:55:28.580,13.3751,24.1251
11:55:28.588,12.1875,22.5626
11:55:28.595,11.1875,20.5626
11:55:28.605,9.8125,19.6251
11:55:28.615,10.5625,17.8126
11:55:28.627,8.75,17.0001
11:55:28.635,9.4375,18.2501
11:55:28.645,10.25,17.5001
11:55:28.656,10.9375,19.3126
11:55:28.665,11.5625,19.6876
11:55:28.675,12.3125,21.0626
11:55:28.685,13.1876,22.4376
11:55:28.700,13.7501,23.6251
11:55:28.711,14.2501,24.8126
11:55:28.721,15.2501,25.3126
11:55:28.730,14.5626,24.9376
11:55:28.740,14.9376,25.6251
11:55:28.751,14.3751,24.5001
11:55:28.760,13.6876,23.8126
11:55:28.771,13,22.6251
11:55:28.780,11.875,21.7501
11:55:28.791,11.75,20.1876
11:55:28.800,10.25,18.0626
11:55:28.810,8.4375,15.6876
11:55:28.820,6.6875,14.1251
11:55:28.830,5.8125,10.6875
11:55:28.840,4.25,9.375
11:55:28.850,2.75,5.9375
11:55:28.861,-0.125,3.75
11:55:28.870,-0.875,0.375
11:55:28.881,-1.6875,-2.4375
11:55:28.891,-3.5,-5.5
11:55:28.901,-5.375,-7
11:55:28.910,-6.625,-9.375
11:55:28.920,-7.8125,-12.4375
11:55:28.930,-9.5,-14.3751
11:55:28.940,-9.875,-16.3126
11:55:28.951,-11.6875,-19.0001
11:55:28.983,-13.0625,-20.0626
11:55:28.985,-13.9376,-23.2501
11:55:28.988,-15.5001,-26.0001
11:55:28.990,-16.3126,-26.1251
11:55:29.005,-16.6251,-28.8126
11:55:29.010,-18.3126,-30.7501
11:55:29.021,-19.2501,-31.4376
11:55:29.030,-19.3126,-34.0626
11:55:29.041,-20.6251,-33.8751
11:55:29.050,-20.9376,-36.0626
11:55:29.061,-21.4376,-36.5001
11:55:29.070,-22.0626,-37.5626
11:55:29.080,-22.3126,-39.0626
11:55:29.090,-23.5001,-39.3126
11:55:29.100,-23.8126,-40.6252
11:55:29.122,-24.6876,-41.3752
11:55:29.125,-24.4376,-42.6252
11:55:29.156,-25.9376,-43.5002
11:55:29.158,-25.9376,-45.2502
11:55:29.169,-26.8126,-47.0627
11:55:29.170,-28.1876,-46.8752
11:55:29.201,-28.3751,-49.0627
11:55:29.203,-29.1876,-49.6877
11:55:29.205,-29.7501,-50.3752
11:55:29.207,-30.2501,-52.3752
11:55:29.212,-31.5626,-53.0002
11:55:29.221,-30.9376,-54.7502
11:55:29.249,-32.5626,-55.1877
11:55:29.251,-32.5001,-56.6252
11:55:29.254,-33.9376,-57.6252
11:55:29.260,-33.8751,-59.0627
11:55:29.292,-34.2501,-59.1252
11:55:29.294,-33.8751,-59.3752
11:55:29.299,-33.0001,-57.8752
11:55:29.303,-29.6251,-54.0627
11:55:29.312,-25.8126,-47.4377
11:55:29.320,-19.8751,-39.0626
11:55:29.330,-14.0626,-29.5626
11:55:29.340,-7.5,-18.3126
11:55:29.350,-0.25,-7.25
11:55:29.361,5.625,4.6875
11:55:29.370,12.9375,14.8126
11:55:29.386,17.5626,25.0626
11:55:29.394,21.9376,31.3126
11:55:29.402,25.3751,37.6251
11:55:29.417,26.5001,42.7502
11:55:29.421,27.7501,44.2502
11:55:29.430,28.1876,46.3127
11:55:29.451,27.6251,46.0627
11:55:29.454,27.3126,46.0627
11:55:29.469,25.8751,45.5002
11:55:29.472,25.1876,43.1877
11:55:29.480,23.8126,42.6877
11:55:29.492,22.1876,38.9376
11:55:29.500,21.7501,37.7501
11:55:29.510,20.4376,37.1251
11:55:29.520,19.0001,33.8751
11:55:29.530,18.2501,31.8126
11:55:29.540,16.1876,30.3751
11:55:29.550,14.7501,28.3126
11:55:29.560,13.7501,25.5626
11:55:29.570,12.0625,23.5001
11:55:29.581,11.3125,20.7501
11:55:29.590,10.6875,19.4376
11:55:29.601,9.5625,19.0001
11:55:29.610,9.8125,18.5001
11:55:29.618,10.4375,17.7501
11:55:29.631,10,18.2501
11:55:29.640,10.5,19.5626
11:55:29.650,11.8125,20.1876
11:55:29.660,12.625,22.6876
11:55:29.674,13.5626,24.0001
11:55:29.680,15.6251,25.2501
11:55:29.690,15.2501,25.6251
11:55:29.700,16.0001,28.5001
11:55:29.711,16.6876,28.6251
11:55:29.720,16.8126,28.3751
11:55:29.732,16.5626,30.0001
11:55:29.740,17.0626,28.8126
11:55:29.749,16.3126,28.1251
11:55:29.762,15.5001,27.4376
11:55:29.774,14.9376,26.8751
11:55:29.778,14.5626,24.9376
11:55:29.789,12.6875,22.7501
11:55:29.800,11.25,22.0001
11:55:29.809,10.5,19.6251
11:55:29.820,8.875,16.5001
11:55:29.852,7.625,14.6876
11:55:29.854,6.1875,12.875
11:55:29.856,5.0625,9.875
11:55:29.860,3.375,8.125
11:55:29.889,2.375,5.625
11:55:29.891,1,3
11:55:29.894,-0.75,1.0625
11:55:29.900,-1.875,-0.8125
11:55:29.934,-2.4375,-3.6875
11:55:29.935,-3.6875,-5.875
11:55:29.939,-5.3125,-6.9375
11:55:29.968,-5.6875,-9.125
11:55:29.970,-7.125,-11.5625
11:55:29.973,-8.5625,-12.1875
11:55:29.977,-9.3125,-15.0626
11:55:29.984,-9.9375,-16.5626
11:55:29.997,-11.5625,-18.2501
11:55:30.000,-12.0625,-20.8751
11:55:30.008,-13.4376,-21.6876
11:55:30.019,-13.5626,-23.7501
11:55:30.028,-14.3751,-25.3126
11:55:30.040,-16.0001,-27.0626
11:55:30.050,-16.6251,-28.0001
11:55:30.059,-17.5001,-29.8126
11:55:30.069,-18.0001,-30.6876
11:55:30.079,-18.2501,-32.6251
11:55:30.089,-19.1876,-33.4376
11:55:30.101,-20.1251,-34.9376
11:55:30.110,-21.0001,-35.3751
11:55:30.118,-21.2501,-36.7501
11:55:30.128,-22.1251,-37.6251
11:55:30.139,-21.6876,-37.9376
11:55:30.153,-21.1876,-37.0626
11:55:30.159,-19.3751,-34.6251
11:55:30.169,-16.5626,-31.0626
11:55:30.179,-12.25,-24.6876
11:55:30.189,-7.8125,-16.6251
11:55:30.199,-1.625,-7.9375
11:55:30.211,4.125,1.75
11:55:30.221,10.3125,11.6875
11:55:30.229,15.3751,21.1876
11:55:30.240,20.4376,29.1251
11:55:30.264,24.0001,36.1251
11:55:30.266,27.1876,41.8127
11:55:30.270,28.1876,46.0627
11:55:30.279,29.4376,47.4377
11:55:30.289,28.9376,48.5627
11:55:30.298,29.3126,48.4377
11:55:30.309,28.0626,47.5627
11:55:30.321,27.1251,46.0627
11:55:30.329,24.5626,44.0002
11:55:30.339,23.6876,41.6252
11:55:30.350,21.6251,38.4376
11:55:30.359,20.3126,36.3751
11:55:30.369,18.0626,34.3751
11:55:30.380,16.5626,31.2501
11:55:30.389,15.3126,27.8751
11:55:30.399,12.75,24.0001
11:55:30.409,11.3125,22.1876
11:55:30.419,9.5,18.2501
11:55:30.430,7.625,14.9376
11:55:30.439,5.9375,12.75
11:55:30.448,5.25,10.0625
11:55:30.459,4.6875,9.0625
11:55:30.468,3.625,8
11:55:30.479,3.4375,8.75
11:55:30.489,4.8125,8.375
11:55:30.500,5.375,8.9375
11:55:30.511,6.6875,11.5
11:55:30.519,7.6875,12.125
11:55:30.529,7.75,13.1876
11:55:30.539,8.4375,15.1876
11:55:30.549,9.8125,16.2501
11:55:30.559,9.9375,16.7501
11:55:30.568,10.4375,17.8751
11:55:30.580,10.5625,17.8751
11:55:30.588,10.5,17.3751
11:55:30.599,9.375,16.5626
11:55:30.609,9.3125,16.8126
11:55:30.620,8.4375,14.7501
11:55:30.649,7,13.2501
11:55:30.653,6.9375,11.8125
11:55:30.656,5.125,9.25
11:55:30.661,3.75,8.5625
11:55:30.689,2.9375,6.75
11:55:30.730,2.4375,3.9375
11:55:30.733,0,1.3125
11:55:30.765,-2,0.3125
11:55:30.768,-2.4375,-3.0625
11:55:30.768,-4.25,-6.1875
11:55:30.769,-5.375,-7.5
11:55:30.771,-6.125,-10.625
11:55:30.777,-8.0625,-13.3126
11:55:30.781,-9.5625,-13.7501
11:55:30.782,-10.4375,-17.1251
11:55:30.805,-12.125,-19.9376
11:55:30.808,-13.6251,-20.8126
11:55:30.810,-14.2501,-22.3126
11:55:30.823,-15.3126,-24.1251
11:55:30.834,-14.7501,-26.3126
11:55:30.845,-16.4376,-28.8751
11:55:30.854,-17.8126,-30.3751
11:55:30.864,-18.5001,-30.3751
11:55:30.875,-19.0626,-31.6876
11:55:30.890,-19.6876,-33.5001
11:55:30.895,-20.1251,-35.1251
11:55:30.904,-23.0001,-38.0626
11:55:30.913,-23.5626,-40.5002
11:55:30.923,-23.7501,-40.3127
11:55:30.933,-24.6876,-41.1877
11:55:30.944,-24.8751,-42.5627
11:55:30.954,-25.8126,-44.9377
11:55:30.964,-26.7501,-45.1252
11:55:30.973,-27.5626,-46.7502
11:55:30.983,-28.7501,-49.0002
11:55:30.994,-28.6876,-49.8752
11:55:31.004,-29.1876,-51.5627
11:55:31.014,-29.9376,-50.8752
11:55:31.025,-29.5626,-52.6252
11:55:31.035,-29.4376,-50.7502
11:55:31.044,-28.0626,-50.1252
11:55:31.054,-24.9376,-46.5002
11:55:31.064,-21.4376,-38.9376
11:55:31.074,-15.5001,-32.3126
11:55:31.083,-8.625,-21.7501
11:55:31.094,-2.8125,-10.5
11:55:31.104,4.25,0.625
11:55:31.114,12.3125,12.875
11:55:31.123,17.8126,24.6251
11:55:31.134,22.9376,32.8126
11:55:31.144,27.8126,41.1252
11:55:31.153,29.8126,47.6252
11:55:31.163,31.9376,50.5002
11:55:31.174,33.5001,53.5627
11:55:31.185,33.5626,56.5002
11:55:31.194,33.1251,55.3752
11:55:31.203,33.2501,55.3752
11:55:31.214,31.2501,54.3752
11:55:31.224,30.6251,52.4377
11:55:31.234,29.5001,51.4377
11:55:31.244,27.6251,48.6877
11:55:31.254,26.9376,47.4377
11:55:31.275,25.2501,45.8127
11:55:31.278,24.1876,43.3127
11:55:31.309,22.8751,41.5002
11:55:31.309,21.8126,39.8752
11:55:31.311,20.6876,38.0626
11:55:31.314,19.3751,35.8126
11:55:31.346,18.1251,33.6251
11:55:31.348,17.1876,30.9376
11:55:31.352,16.1876,29.3126
11:55:31.356,15.9376,28.0626
11:55:31.385,14.6876,26.6876
11:55:31.385,14.2501,26.4376
11:55:31.386,15.0001,27.0626
11:55:31.416,15.3126,27.0001
11:55:31.417,16.0001,27.7501
11:55:31.419,16.2501,29.4376
11:55:31.425,17.8126,30.1876
11:55:31.450,18.5626,31.2501
11:55:31.452,18.4376,32.9376
11:55:31.454,18.8126,34.1876
11:55:31.464,19.9376,34.0001
11:55:31.474,20.3126,34.0626
11:55:31.484,19.7501,33.8126
11:55:31.494,19.3751,34.0626
11:55:31.504,19.0001,32.2501
11:55:31.514,17.4376,31.8751
11:55:31.543,17.2501,30.5001
11:55:31.545,15.6876,28.5626
11:55:31.548,14.5626,26.6876
11:55:31.554,13.6876,25.4376
11:55:31.564,12.125,22.7501
11:55:31.573,11.6875,20.3126
11:55:31.584,9.8125,17.8751
11:55:31.594,7.875,16.9376
11:55:31.604,7.25,13.4376
11:55:31.614,5.6875,10.5
11:55:31.623,4,8.125
11:55:31.634,3.375,5.9375
11:55:31.645,0.9375,3.0625
11:55:31.654,-0.625,1.3125
11:55:31.664,-1.4375,-1
11:55:31.673,-2.4375,-3.8125
11:55:31.684,-3.875,-5.9375
11:55:31.694,-5.625,-8.9375
11:55:31.704,-6.9375,-9.5
11:55:31.713,-6.5625,-11.75
11:55:31.724,-8.3125,-13.6876
11:55:31.734,-9.3125,-14.9376
11:55:31.744,-9.6875,-16.3126
11:55:31.753,-10,-17.7501
11:55:31.764,-11.25,-19.6251
11:55:31.774,-12.1875,-21.1251
11:55:31.784,-13,-21.6251
11:55:31.794,-12.4375,-23.0001
11:55:31.803,-14.1876,-24.2501
11:55:31.814,-14.8751,-24.1876
11:55:31.824,-15.0001,-25.9376
11:55:31.835,-16.1251,-27.0626
11:55:31.844,-16.2501,-28.6251
11:55:31.855,-17.0001,-29.4376
11:55:31.864,-17.4376,-30.2501
11:55:31.874,-18.3751,-31.3126
11:55:31.884,-18.8751,-32.5626
11:55:31.894,-19.3751,-33.8751
11:55:31.903,-19.9376,-35.0001
11:55:31.914,-20.6876,-36.3126
11:55:31.924,-21.3126,-37.5001
11:55:31.934,-21.3751,-38.3751
11:55:31.944,-22.3751,-39.0001
11:55:31.954,-22.1251,-39.2501
11:55:31.964,-21.8126,-38.7501
11:55:31.974,-19.5001,-36.8126
11:55:31.984,-17.3126,-31.5626
11:55:32.000,-13.1251,-26.4376
11:55:32.016,-7.5,-18.4376
11:55:32.019,-1.375,-7.3125
11:55:32.025,5.125,2.625
11:55:32.044,12.1875,13.6876
11:55:32.048,17.4376,24.7501
11:55:32.061,23.5001,34.1876
11:55:32.065,28.0626,42.6877
11:55:32.080,30.8751,48.8752
11:55:32.085,33.5626,53.9377
11:55:32.114,34.6876,56.8752
11:55:32.116,35.3751,58.2502
11:55:32.118,35.1251,59.5002
11:55:32.125,34.5001,58.1252
11:55:32.164,33.3751,57.8752
11:55:32.164,32.3126,56.1252
11:55:32.169,30.8126,53.6252
11:55:32.173,30.0001,51.6877
11:55:32.175,28.8126,49.6252
11:55:32.217,26.8751,47.9377
11:55:32.218,25.6876,46.5002
11:55:32.220,24.4376,43.9377
11:55:32.222,23.5001,41.4377
11:55:32.226,22.4376,39.7502
11:55:32.259,20.0626,37.3751
11:55:32.259,18.5001,34.3126
11:55:32.261,17.8126,32.8751
11:55:32.269,17.3751,31.1251
11:55:32.274,16.1876,29.8751
11:55:32.286,16.3751,29.0626
11:55:32.294,16.1876,28.9376
11:55:32.303,15.9376,29.5001
11:55:32.313,16.5626,30.4376
11:55:32.324,18.3751,30.9376
11:55:32.334,18.8126,33.0001
11:55:32.343,20.1876,34.0626
11:55:32.356,21.2501,35.8126
11:55:32.363,22.0001,37.3126
11:55:32.374,22.1876,38.6876
11:55:32.384,23.0001,40.3127
11:55:32.394,22.8126,40.3752
11:55:32.404,23.2501,40.4377
11:55:32.412,23.4376,39.7502
11:55:32.424,22.2501,39.6252
11:55:32.432,22.0626,39.0001
11:55:32.443,21.5001,36.9376
11:55:32.454,20.2501,35.6251
11:55:32.465,19.0626,33.3126
11:55:32.473,17.6251,31.7501
11:55:32.483,16.8751,29.6251
11:55:32.493,14.4376,27.0626
11:55:32.504,14.2501,24.8751
11:55:32.514,11.6875,21.7501
11:55:32.524,11,19.5626
11:55:32.532,9.125,16.4376
11:55:32.545,8.125,14.8751
11:55:32.554,6.125,11.8125
11:55:32.562,4.9375,9.75
11:55:32.574,3.75,7.375
11:55:32.582,2.125,5.25
11:55:32.594,1.25,2.6875
11:55:32.603,-0.0625,0.6875
11:55:32.614,-1.4375,-1.625
11:55:32.622,-3.125,-3.875
11:55:32.634,-3.8125,-5.625
11:55:32.644,-4.625,-7.75
11:55:32.652,-5.6875,-8.875
11:55:32.664,-6.4375,-11.5
11:55:32.674,-7.625,-12.3125
11:55:32.683,-9.125,-14.8751
11:55:32.693,-9.75,-16.4376
11:55:32.703,-10.3125,-17.8751
11:55:32.719,-11.1875,-19.3751
11:55:32.728,-11.0625,-19.9376
11:55:32.739,-12.4375,-21.3751
11:55:32.747,-12.4375,-22.1876
11:55:32.759,-13.1876,-23.2501
11:55:32.768,-13.1876,-23.8751
11:55:32.778,-13.8126,-24.0626
11:55:32.789,-12.5625,-23.3751
11:55:32.800,-11.125,-19.9376
11:55:32.824,-7.5625,-15.7501
11:55:32.827,-2.75,-8
11:55:32.829,1.875,-0.75
11:55:32.860,7.5625,8.3125
11:55:32.863,13.8126,18.4376
11:55:32.865,18.7501,28.5626
11:55:32.872,24.1251,36.3126
11:55:32.881,29.9376,48.6877
11:55:32.912,33.3751,53.0002
11:55:32.914,34.0626,56.1252
11:55:32.916,35.2501,57.3752
11:55:32.919,34.5626,58.9377
11:55:32.956,33.8126,57.8752
11:55:32.957,32.7501,56.2502
11:55:32.960,31.2501,54.9377
11:55:32.965,29.7501,53.0627
11:55:32.972,28.5001,50.3752
11:55:32.991,26.8751,48.6252
11:55:32.995,25.1876,44.4377
11:55:33.000,23.5626,42.3752
11:55:33.014,22.3751,39.8752
11:55:33.020,20.1876,36.6251
11:55:33.027,18.3126,34.1251
11:55:33.037,17.3126,30.8126
11:55:33.047,14.6251,27.5001
11:55:33.057,13.0625,25.8751
11:55:33.067,11.3125,22.5001
11:55:33.077,10.4375,20.3751
11:55:33.088,10.625,18.8751
11:55:33.099,9.5,18.0626
11:55:33.107,10.75,18.1876
11:55:33.119,9.8125,18.6251
11:55:33.127,10.8125,18.5001
11:55:33.137,11.6875,20.6251
11:55:33.148,12.3125,21.3126
11:55:33.158,13.0625,22.4376
11:55:33.170,13.6876,24.0626
11:55:33.179,14.6251,24.4376
11:55:33.187,14.5626,25.0001
11:55:33.197,14.4376,25.6251
11:55:33.207,14.3751,24.2501
11:55:33.217,14.5001,23.9376
11:55:33.227,13.5626,22.8126
11:55:33.239,12.6875,21.1876
11:55:33.248,11.25,19.9376
11:55:33.258,9.8125,18.1876
11:55:33.268,9,16.9376
11:55:33.278,7.6875,14.4376
11:55:33.296,7.0625,12.125
11:55:33.305,4.875,9.5625
11:55:33.319,4.375,7.0625
11:55:33.321,2.25,5
11:55:33.341,0.125,2.5625
11:55:33.344,-0.5,-0.1875
11:55:33.357,-3.25,-3.0625
11:55:33.363,-5.5,-7.125
11:55:33.367,-7,-9.5
11:55:33.377,-7.5,-12
11:55:33.389,-8.5,-13.3126
11:55:33.397,-9.5625,-16.1251
11:55:33.407,-11.4375,-17.3751
11:55:33.419,-12.0625,-20.6251
11:55:33.429,-13.6251,-21.1251
11:55:33.437,-14.1251,-24.0001
11:55:33.447,-15.3751,-24.5001
11:55:33.458,-15.5001,-26.2501
11:55:33.467,-16.8126,-28.4376
11:55:33.477,-16.8751,-29.3751
11:55:33.487,-18.4376,-31.0001
11:55:33.497,-19.1251,-31.8126
11:55:33.508,-19.5626,-33.5001
11:55:33.543,-20.6876,-34.6876
11:55:33.545,-21.1251,-36.5001
11:55:33.546,-21.8126,-36.8751
11:55:33.551,-22.9376,-39.5627
11:55:33.580,-23.0626,-40.3127
11:55:33.582,-24.6251,-40.5627
11:55:33.584,-24.7501,-43.0002
11:55:33.589,-24.7501,-43.9377
11:55:33.623,-26.4376,-45.3127
11:55:33.626,-26.1251,-46.1877
11:55:33.627,-27.1876,-46.7502
11:55:33.635,-27.6251,-48.2502
11:55:33.645,-28.1876,-47.7502
11:55:33.650,-27.0001,-47.9377
11:55:33.676,-25.1251,-45.5002
11:55:33.679,-21.6876,-40.1877
11:55:33.681,-17.7501,-34.1251
11:55:33.688,-11.8125,-25.5626
11:55:33.701,-5.4375,-13.8126
11:55:33.709,1.5625,-2.25
11:55:33.717,8.5,9.625
11:55:33.728,15.6251,20.1251
11:55:33.737,20.9376,30.1251
11:55:33.748,25.5626,39.3126
11:55:33.758,29.3751,45.8127
11:55:33.771,32.1251,50.6877
11:55:33.779,32.8126,53.8127
11:55:33.788,33.1876,56.1252
11:55:33.797,33.0001,56.1252
11:55:33.808,31.9376,55.6877
11:55:33.817,31.8126,54.8127
11:55:33.827,29.8126,53.1252
11:55:33.838,28.6876,51.6252
11:55:33.848,27.8126,49.5002
11:55:33.858,26.3751,47.6252
11:55:33.867,25.6251,45.2502
11:55:33.878,24.1251,43.8752
11:55:33.888,23.5626,42.5002
11:55:33.897,22.4376,40.5627
11:55:33.908,21.0001,38.0626
11:55:33.917,19.5626,37.7501
11:55:33.927,18.6251,34.8751
11:55:33.939,17.7501,33.1876
11:55:33.947,15.9376,30.4376
11:55:33.957,15.5626,29.3751
11:55:33.967,15.1251,27.9376
11:55:33.977,14.9376,27.6876
11:55:33.988,14.3126,26.3751
11:55:33.997,15.1876,27.5001
11:55:34.007,15.6876,27.8126
11:55:34.017,16.5626,28.9376
11:55:34.027,16.6876,29.4376
11:55:34.038,17.6251,30.2501
11:55:34.048,18.0001,31.8751
11:55:34.057,18.5626,32.1876
11:55:34.067,18.8126,32.9376
11:55:34.077,18.1876,33.1876
11:55:34.104,17.8751,32.7501
11:55:34.106,17.5626,31.6876
11:55:34.110,16.6251,30.8751
11:55:34.118,15.5001,29.6251
11:55:34.127,14.9376,26.8126
11:55:34.139,13.9376,25.3751
11:55:34.147,12.8125,22.6251
11:55:34.157,11.125,21.3751
11:55:34.168,10.8125,19.1251
11:55:34.177,8.5,16.6251
11:55:34.188,6.75,15.0626
11:55:34.216,6,11.5
11:55:34.218,4,10.0625
11:55:34.220,2.75,6.0625
11:55:34.229,0.625,4.5
11:55:34.262,-0.25,1.0625
11:55:34.264,-2.5625,-1.3125
11:55:34.267,-3.3125,-4.125
11:55:34.272,-4.5625,-6.6875
11:55:34.281,-5.375,-9.0625
11:55:34.287,-6.9375,-10.9375
11:55:34.319,-8.5,-12.8125
11:55:34.321,-9.875,-14.5001
11:55:34.325,-10.625,-17.6251
11:55:34.330,-12,-18.6251
11:55:34.364,-12.875,-21.2501
11:55:34.365,-13.5001,-21.8126
11:55:34.368,-14.3751,-24.0626
11:55:34.380,-15.2501,-25.6251
11:55:34.381,-15.7501,-26.5626
11:55:34.388,-16.1251,-27.8126
11:55:34.398,-16.9376,-28.8126
11:55:34.407,-17.5001,-30.0001
11:55:34.417,-17.5001,-29.5001
11:55:34.428,-18.1251,-32.0001
11:55:34.437,-18.6876,-32.3751
11:55:34.448,-19.2501,-33.5626
11:55:34.457,-20.1876,-35.1251
11:55:34.467,-21.0001,-35.3126
11:55:34.478,-21.2501,-37.5001
11:55:34.488,-22.1876,-37.3126
11:55:34.498,-22.8751,-39.1877
11:55:34.507,-23.3126,-40.9377
11:55:34.521,-24.0626,-42.6877
11:55:34.527,-25.0001,-43.6252
11:55:34.537,-25.4376,-44.3127
11:55:34.548,-25.7501,-45.3752
11:55:34.557,-26.8126,-46.4377
11:55:34.567,-27.4376,-47.6252
11:55:34.577,-27.3751,-48.1252
11:55:34.598,-27.9376,-47.8127
11:55:34.606,-26.2501,-46.8127
11:55:34.619,-24.5001,-43.8127
11:55:34.623,-20.5626,-38.4376
11:55:34.640,-15.9376,-31.1876
11:55:34.655,-9.8125,-22.3126
11:55:34.656,-3.3125,-10.875
11:55:34.659,3.8125,1.0625
11:55:34.667,10.3125,12.75
11:55:34.677,16.9376,23.5001
11:55:34.687,22.3126,33.0001
11:55:34.698,26.9376,41.1252
11:55:34.708,28.9376,46.1877
11:55:34.718,30.5626,50.1252
11:55:34.728,31.8751,52.4377
11:55:34.737,32.0626,53.8127
11:55:34.747,31.0626,53.9377
11:55:34.758,30.1251,53.0002
11:55:34.767,29.6251,50.9377
11:55:34.777,28.0626,50.7502
11:55:34.788,26.5001,48.1252
11:55:34.797,25.8126,46.3752
11:55:34.807,24.7501,44.6252
11:55:34.817,24.3751,42.7502
11:55:34.827,22.6876,41.3752
11:55:34.838,21.5001,40.8127
11:55:34.848,21.0001,39.2502
11:55:34.858,20.5001,36.9376
11:55:34.867,18.8751,34.9376
11:55:34.878,17.5626,33.1876
11:55:34.888,16.3126,30.8751
11:55:34.899,16.0626,30.5001
11:55:34.908,15.4376,28.2501
11:55:34.918,15.3751,28.0001
11:55:34.928,15.0001,27.0626
11:55:34.948,15.7501,28.0626
11:55:34.950,16.1876,28.6251
11:55:34.985,17.1876,30.5626
11:55:34.985,17.9376,31.3751
11:55:34.988,18.7501,32.9376
11:55:34.990,19.3751,33.3126
11:55:35.035,20.3126,34.9376
11:55:35.038,20.5001,34.6251
11:55:35.038,20.2501,35.8126
11:55:35.044,20.1876,34.6251
11:55:35.047,19.5626,34.5626
11:55:35.055,19.4376,33.9376
11:55:35.057,18.2501,33.6876
11:55:35.090,18.0001,32.2501
11:55:35.092,16.3751,29.8126
11:55:35.095,15.0626,28.7501
11:55:35.100,14.1876,26.0626
11:55:35.113,12.75,24.1876
11:55:35.119,11.5,21.1876
11:55:35.127,10.375,19.1251
11:55:35.136,9.3125,17.5001
11:55:35.147,7.875,14.0626
11:55:35.157,6.4375,12.6875
11:55:35.167,5,9.875
11:55:35.178,4.0625,7.8125
11:55:35.186,2.5,5.5
11:55:35.198,1.4375,3.5625
11:55:35.207,0.0625,1.8125
11:55:35.217,-1.375,-0.25
11:55:35.227,-2.4375,-2.4375
11:55:35.237,-3.6875,-4.5625
11:55:35.248,-4.8125,-7.5625
11:55:35.257,-5.3125,-8.25
11:55:35.273,-6.8125,-11.375
11:55:35.277,-7.6875,-12.9375
11:55:35.287,-9.125,-14.1251
11:55:35.297,-9.9375,-15.6876
11:55:35.307,-10.3125,-18.0001
11:55:35.316,-11,-19.3751
11:55:35.327,-12.25,-20.0001
11:55:35.336,-12.375,-21.1876
11:55:35.348,-13.1251,-22.9376
11:55:35.357,-13.6251,-24.0626
11:55:35.383,-14.3751,-24.1251
11:55:35.385,-14.5626,-25.8751
11:55:35.389,-15.1876,-26.5626
11:55:35.397,-15.2501,-27.8751
11:55:35.407,-15.3126,-27.1251
11:55:35.417,-14.6876,-26.5001
11:55:35.427,-12,-23.0626
11:55:35.436,-9.3125,-18.7501
11:55:35.448,-4.8125,-11.5625
11:55:35.456,0.6875,-4.0625
11:55:35.466,6.3125,6.1875
11:55:35.476,11.625,14.2501
11:55:35.486,17.1251,23.8126
11:55:35.499,21.1876,31.7501
11:55:35.507,24.4376,38.5626
11:55:35.516,27.6251,43.2502
11:55:35.526,28.9376,47.2502
11:55:35.537,29.4376,48.2502
11:55:35.546,28.9376,48.8752
11:55:35.556,28.0626,48.3127
11:55:35.567,27.1876,46.6877
11:55:35.577,25.8126,44.8752
11:55:35.587,24.3126,42.7502
11:55:35.598,22.0626,39.8127
11:55:35.608,21.2501,37.1251
11:55:35.617,19.0001,34.8126
11:55:35.627,17.6876,32.0626
11:55:35.637,16.3751,29.9376
11:55:35.647,14.0626,26.7501
11:55:35.675,11.8125,25.0626
11:55:35.679,10.9375,21.4376
11:55:35.680,8.75,17.8126
11:55:35.687,6.75,14.5626
11:55:35.725,5.125,13.2501
11:55:35.727,5.1875,10.5
11:55:35.729,3.9375,8.9375
11:55:35.733,4.125,8.5625
11:55:35.740,3.75,9.875
11:55:35.769,5.25,9.375
11:55:35.772,5.3125,9.875
11:55:35.774,5.9375,12.5
11:55:35.777,7.6875,12.4375
11:55:35.815,7.5625,13.5001
11:55:35.816,8.25,16.0001
11:55:35.819,8.625,15.8751
11:55:35.822,8.75,15.6876
11:55:35.828,8.6875,14.9376
11:55:35.837,8,14.8126
11:55:35.848,8,15.2501
11:55:35.857,7.6875,13.6251
11:55:35.866,6.3125,12
11:55:35.877,5.3125,10.125
11:55:35.899,3.5,8.5
11:55:35.901,3,6.75
11:55:35.916,1.4375,3.9375
11:55:35.919,0.125,2
11:55:35.934,-1.5625,0.125
11:55:35.949,-1.9375,-2.4375
11:55:35.951,-4.1875,-5.75
11:55:35.966,-5,-7.75
11:55:35.982,-6.875,-9.625
11:55:35.984,-8.25,-11.375
11:55:35.999,-8.875,-14.7501
11:55:36.001,-11,-17.5001
11:55:36.007,-11.375,-18.6251
11:55:36.022,-12.625,-21.0001
11:55:36.029,-14.0626,-23.9376
11:55:36.036,-16.2501,-24.6251
11:55:36.046,-17.0626,-27.6876
11:55:36.057,-19.1876,-30.1251
11:55:36.067,-20.4376,-31.8751
11:55:36.077,-21.0001,-32.9376
11:55:36.086,-21.6251,-33.5001
11:55:36.096,-20.8751,-33.0626
11:55:36.106,-20.6251,-33.5001
11:55:36.116,-20.3126,-34.0001
11:55:36.127,-22.2501,-36.5001
11:55:36.136,-22.8751,-37.0001
11:55:36.146,-21.6876,-36.1876
11:55:36.156,-21.6251,-36.8751
11:55:36.167,-20.6251,-34.8751
11:55:36.176,-20.3126,-35.0626
11:55:36.186,-19.3126,-33.3126
11:55:36.196,-17.5001,-32.3126
11:55:36.206,-17.1876,-31.7501
11:55:36.216,-16.0626,-31.4376
11:55:36.226,-15.1251,-30.3751
11:55:36.236,-11.9375,-27.6251
11:55:36.246,-9.5625,-22.1251
11:55:36.256,-3.875,-16.1876
11:55:36.267,0.5625,-8.8125
11:55:36.277,6.125,-0.75
11:55:36.286,10.5,6.5
11:55:36.297,14.4376,13.6251
11:55:36.307,18.1251,20.1876
11:55:36.316,21.7501,25.8126
11:55:36.326,22.6251,29.0626
11:55:36.336,23.4376,30.3126
11:55:36.346,23.2501,31.5001
11:55:36.357,23.1876,31.0626
11:55:36.367,22.1251,30.5001
11:55:36.376,21.8751,29.2501
11:55:36.387,20.0001,26.6876
11:55:36.398,18.0001,25.7501
11:55:36.407,17.0001,22.3126
11:55:36.416,16.8126,20.9376
11:55:36.426,16.3126,19.3751
11:55:36.436,16.0626,18.0626
11:55:36.471,15.9376,17.3751
11:55:36.473,15.7501,15.7501
11:55:36.476,14.6876,13.4376
11:55:36.477,13.1876,10.125
11:55:36.512,12.25,9.0625
11:55:36.514,10.875,5.8125
11:55:36.517,8.3125,3.1875
11:55:36.519,6.125,1.875
11:55:36.555,5,-2.5625
11:55:36.557,2.75,-5.3125
11:55:36.560,0.9375,-6.375
11:55:36.565,-1,-8
11:55:36.572,-0.875,-9.5
11:55:36.596,-2.4375,-11.5625
11:55:36.599,-3.375,-11.1875
11:55:36.603,-4.625,-11.4375
11:55:36.606,-4.1875,-12.5625
11:55:36.628,-5.3125,-13.1876
11:55:36.630,-6.6875,-14.3751
11:55:36.637,-7.5625,-14.3751
11:55:36.663,-8.0625,-16.0001
11:55:36.665,-9.0625,-18.0001
11:55:36.669,-11.4375,-20.0001
11:55:36.676,-13.0625,-21.9376
11:55:36.686,-14.8751,-24.2501
11:55:36.696,-17.5001,-28.9376
11:55:36.706,-20.3751,-32.3126
11:55:36.721,-24.1251,-35.6251
11:55:36.731,-27.4376,-41.5627
11:55:36.746,-31.8751,-46.3127
11:55:36.758,-35.3751,-51.5002
11:55:36.767,-39.8127,-55.2502
11:55:36.776,-43.0002,-60.0627
11:55:36.786,-45.9377,-63.1252
11:55:36.796,-48.6252,-67.1878
11:55:36.807,-51.0627,-71.1878
11:55:36.818,-52.9377,-74.4378
11:55:36.829,-55.4377,-77.7503
11:55:36.836,-58.6252,-82.0628
11:55:36.846,-60.3752,-85.0628
11:55:36.856,-61.8752,-87.3128
11:55:36.869,-62.5627,-89.9378
11:55:36.876,-63.6252,-91.6254
11:55:36.887,-64.8127,-93.0629
11:55:36.896,-64.8127,-94.7504
11:55:36.906,-65.5003,-96.6879
11:55:36.916,-64.8752,-96.1254
11:55:36.926,-64.8127,-96.3129
11:55:36.936,-65.0627,-96.3129
11:55:36.946,-65.1877,-97.2504
11:55:36.957,-65.5628,-98.5004
11:55:36.966,-66.3753,-98.3129
11:55:36.976,-66.0628,-100.9379
11:55:36.986,-67.5003,-102.2504
11:55:36.996,-67.8128,-103.0629
11:55:37.006,-68.0003,-104.5629
11:55:37.016,-67.5628,-105.2504
11:55:37.027,-67.4378,-105.3754
11:55:37.036,-67.5003,-107.1879
11:55:37.047,-67.5628,-107.3129
11:55:37.056,-67.1253,-109.7504
11:55:37.066,-67.0628,-109.8754
11:55:37.076,-66.7503,-111.4379
11:55:37.086,-65.7503,-111.7504
11:55:37.096,-65.0002,-111.6254
11:55:37.106,-63.3127,-112.0004
11:55:37.116,-62.3127,-109.9379
11:55:37.126,-61.1877,-111.9379
11:55:37.138,-58.5627,-111.0004
11:55:37.149,-58.3127,-109.9379
11:55:37.159,-55.4377,-109.5629
11:55:37.166,-52.1877,-106.8129
11:55:37.176,-48.6252,-103.4379
11:55:37.187,-42.5627,-96.5629
11:55:37.232,-37.1876,-87.3753
11:55:37.266,-29.6876,-78.4378
11:55:37.337,-22.1251,-66.5003
11:55:37.343,-15.5626,-54.4377
11:55:37.368,-8.25,-43.3752
11:55:37.371,-3.5,-32.1251
11:55:37.371,2,-22.5626
11:55:37.371,5.3125,-13.3751
11:55:37.378,8.5,-6.9375
11:55:37.382,9.75,-0.9375
11:55:37.382,11.375,2.8125
11:55:37.387,11.4375,5.4375
11:55:37.396,11.25,7
11:55:37.406,11.125,8.125
11:55:37.416,9.625,8.5
11:55:37.426,8.5,7.625
11:55:37.436,6,7.0625
11:55:37.447,5.4375,5.0625
11:55:37.456,3.125,4.4375
11:55:37.467,1.4375,1.3125
11:55:37.476,-0.9375,-0.125
11:55:37.486,-3.25,-3.6875
11:55:37.497,-5.625,-5.5
11:55:37.507,-55.0002,-49.6877
11:55:37.516,-57.3127,-51.1877
11:55:37.526,-60.2502,-53.1877
11:55:37.536,-62.3752,-54.3752
11:55:37.546,-63.6877,-55.6877
11:55:37.556,-66.0003,-56.1252
11:55:37.567,-66.6878,-56.6252
11:55:37.576,-68.9378,-58.2502
11:55:37.586,-70.4378,-58.2502
11:55:37.596,-71.4378,-59.6252
11:55:37.606,-71.3128,-59.6252
11:55:37.617,-71.3128,-59.9377
11:55:37.626,-71.0003,-59.2502
11:55:37.636,-69.5003,-59.1252
11:55:37.646,-69.6253,-60.0627
11:55:37.656,-68.5628,-60.0627
11:55:37.666,-67.4378,-58.4377
11:55:37.676,-66.6253,-60.3752
11:55:37.686,-67.0628,-60.1877
11:55:37.697,-67.5628,-61.5627
11:55:37.707,-66.7503,-63.0002
11:55:37.717,-67.5003,-62.8752
11:55:37.726,-67.6878,-65.3128
11:55:37.736,-67.5628,-66.2503
11:55:37.747,-68.0628,-67.8753
11:55:37.757,-67.4378,-69.3128
11:55:37.766,-67.3753,-69.6878
11:55:37.776,-67.3753,-71.6253
11:55:37.785,-66.1878,-72.6878
11:55:37.797,-66.5003,-73.3128
11:55:37.806,-65.6252,-74.2503
11:55:37.816,-64.2502,-74.8128
11:55:37.834,-62.6252,-73.3128
11:55:37.836,-60.9377,-73.9378
11:55:37.873,-59.1877,-73.0628
11:55:37.875,-56.1877,-73.0628
11:55:37.877,-54.5627,-72.1878
11:55:37.880,-52.0002,-71.9378
11:55:37.887,-50.0627,-72.3128
11:55:37.915,-49.3752,-71.3128
11:55:37.917,-47.8752,-72.5628
11:55:37.920,-47.1252,-72.6878
11:55:37.946,-46.1877,-73.6253
11:55:37.948,-44.9377,-72.0628
11:55:37.950,-42.8752,-72.0003
11:55:37.981,-42.1252,-71.7503
11:55:37.986,-41.1877,-71.2503
11:55:38.010,-39.7502,-71.1878
11:55:38.012,-37.6251,-70.3128
11:55:38.012,-36.5001,-69.5628
11:55:38.015,-35.6876,-68.0628
11:55:38.022,-34.3751,-67.8128
11:55:38.026,-33.6251,-65.0627
11:55:38.036,-31.3751,-62.7502
11:55:38.046,-29.0626,-57.4377
11:55:38.056,-25.1251,-52.6252
11:55:38.067,-20.8751,-43.7502
11:55:38.075,-16.1876,-36.3751
11:55:38.091,-11,-26.5626
11:55:38.101,-5.4375,-18.6876
11:55:38.111,-2,-10.5
11:55:38.121,1.625,-1.9375
11:55:38.132,4.6875,4.5625
11:55:38.140,7.3125,9.5
11:55:38.152,9.375,13.0625
11:55:38.161,9.625,15.0001
11:55:38.172,9.625,17.1251
11:55:38.180,8.625,16.1251
11:55:38.191,6.375,16.6251
11:55:38.201,4.1875,15.1876
11:55:38.212,2.25,12.1875
11:55:38.221,-1.75,9.0625
11:55:38.231,-5.1875,4.5
11:55:38.241,-10.25,0.9375
11:55:38.252,-16.5001,-5.6875
11:55:38.261,-23.5626,-12.9375
11:55:38.271,-27.3751,-17.2501
11:55:38.280,-31.7501,-21.8751
11:55:38.290,-36.5626,-26.0001
11:55:38.302,-41.8752,-33.0626
11:55:38.312,-49.5002,-40.0627
11:55:38.321,-58.5002,-46.8752
11:55:38.331,-66.1878,-52.2502
11:55:38.340,-71.7503,-56.9377
11:55:38.351,-78.3128,-60.4377
11:55:38.360,-84.7503,-64.0627
11:55:38.371,-90.8129,-68.8128
11:55:38.380,-96.3754,-70.9378
11:55:38.392,-95.5004,-72.8128
11:55:38.401,-96.8754,-72.1253
11:55:38.410,-97.5004,-72.6878
11:55:38.421,-97.8754,-72.1253
11:55:38.430,-98.0629,-72.1253
11:55:38.441,-96.9379,-72.0628
11:55:38.451,-94.5004,-69.1253
11:55:38.460,-93.0629,-68.4378
11:55:38.472,-91.0629,-67.5003
11:55:38.481,-89.7503,-64.8127
11:55:38.491,-87.1878,-64.4377
11:55:38.500,-84.8753,-63.5002
11:55:38.510,-83.3753,-62.6877
11:55:38.525,-81.1253,-61.3752
11:55:38.534,-78.8128,-60.8752
11:55:38.541,-76.0003,-59.3752
11:55:38.556,-72.5003,-59.0002
11:55:38.570,-69.9378,-57.1877
11:55:38.573,-66.1253,-57.6877
11:55:38.606,-61.8752,-56.9377
11:55:38.608,-58.6252,-55.4377
11:55:38.703,-54.9377,-55.7502
11:55:38.706,-53.0002,-56.2502
11:55:38.708,-51.1252,-58.3127
11:55:38.713,-51.7502,-59.4377
11:55:38.713,-52.2502,-62.8127
11:55:38.713,-54.1877,-64.8127
11:55:38.746,-55.2502,-67.6878
11:55:38.748,-57.0002,-69.6253
11:55:38.751,-58.3752,-72.8128
11:55:38.752,-58.8127,-75.1253
11:55:38.768,-59.5627,-77.1878
11:55:38.770,-59.3752,-79.5628
11:55:38.781,-58.9377,-80.0628
11:55:38.790,-59.1252,-82.0628
11:55:38.800,-57.5627,-82.5003
11:55:38.810,-54.8127,-82.8128
11:55:38.820,-48.3127,-80.9378
11:55:38.830,-42.7502,-78.8753
11:55:38.841,-37.4376,-75.8128
11:55:38.851,-34.3751,-73.2503
11:55:38.861,-31.4376,-72.5628
11:55:38.870,-29.6251,-71.3753
11:55:38.880,-9,-30.3751
11:55:38.890,-4.9375,-21.6251
11:55:38.901,-1.625,-13.8126
11:55:38.911,0.875,-8.625
11:55:38.921,1.9375,-4.125
11:55:38.930,2.3125,-0.9375
11:55:38.941,2.25,1.6875
11:55:38.950,1.625,1.6875
11:55:38.960,0.3125,1.5625
11:55:38.970,-0.625,0.625
11:55:38.980,-2.625,1.125
11:55:38.990,-3.75,-1.125
11:55:39.001,-4.6875,-2.8125
11:55:39.010,-7.5,-5.3125
11:55:39.020,-9.6875,-7.375
11:55:39.031,-11.8125,-10.5
11:55:39.041,-14.6251,-12.875
11:55:39.050,-18.8126,-17.3751
11:55:39.060,-22.3126,-22.8751
11:55:39.070,-26.7501,-27.8751
11:55:39.080,-31.0001,-33.5001
11:55:39.090,-34.8751,-37.6876
11:55:39.100,-39.4377,-41.0002
11:55:39.110,-43.3752,-45.5627
11:55:39.121,-49.5627,-48.6877
11:55:39.130,-54.6252,-53.5627
11:55:39.144,-60.0002,-55.1877
11:55:39.151,-63.3752,-58.7502
11:55:39.160,-65.3127,-58.9377
11:55:39.170,-68.1253,-58.7502
11:55:39.180,-69.1878,-59.6252
11:55:39.190,-69.9378,-58.4377
11:55:39.223,-68.6253,-56.5627
11:55:39.226,-69.1253,-55.1877
11:55:39.228,-68.0003,-54.5627
11:55:39.230,-66.3753,-52.4377
11:55:39.240,-64.2502,-50.3752
11:55:39.251,-64.3127,-49.4377
11:55:39.260,-62.8127,-49.0627
11:55:39.270,-61.8752,-47.8127
11:55:39.280,-61.6252,-49.2502
11:55:39.290,-61.2502,-50.0002
11:55:39.301,-60.2502,-49.8127
11:55:39.310,-60.8752,-49.8752
11:55:39.320,-59.5002,-51.1252
11:55:39.330,-58.2502,-50.1252
11:55:39.349,-57.3752,-51.8127
11:55:39.352,-55.5627,-51.1877
11:55:39.379,-54.4377,-50.9377
11:55:39.381,-51.6877,-51.9377
11:55:39.384,-50.8752,-50.7502
11:55:39.391,-48.3127,-52.6252
11:55:39.430,-46.7502,-53.5002
11:55:39.431,-45.3752,-53.1877
11:55:39.436,-45.4377,-54.1252
11:55:39.461,-45.3127,-57.1252
11:55:39.463,-45.8127,-59.6252
11:55:39.464,-46.8752,-60.6252
11:55:39.466,-47.3127,-63.1252
11:55:39.471,-48.4377,-64.4377
11:55:39.505,-47.6252,-66.2503
11:55:39.507,-48.1252,-67.0628
11:55:39.509,-47.0627,-68.0003
11:55:39.511,-46.0627,-69.5628
11:55:39.527,-43.7502,-68.5003
11:55:39.530,-40.5002,-68.8753
11:55:39.540,-35.6251,-66.9378
11:55:39.550,-30.6251,-65.3127
11:55:39.560,-26.8126,-63.3127
11:55:39.572,-23.5626,-62.8752
11:55:39.580,-22.6876,-62.9377
11:55:39.590,-22.6876,-63.4377
11:55:39.600,-22.2501,-64.8752
11:55:39.610,-22.8126,-65.4377
11:55:39.620,-24.6876,-68.3128
11:55:39.630,-25.4376,-68.5628
11:55:39.640,-27.1251,-70.6878
11:55:39.650,-28.1251,-71.1253
11:55:39.661,-29.0626,-73.1878
11:55:39.670,-31.6251,-73.9378
11:55:39.680,-32.0626,-75.4378
11:55:39.690,-32.8751,-75.5003
11:55:39.700,-30.8751,-72.8753
11:55:39.710,-28.2501,-67.4378
11:55:39.720,-24.1876,-60.8127
11:55:39.730,-19.1876,-52.8752
11:55:39.740,-13.8751,-43.3127
11:55:39.751,-7.875,-34.6876
11:55:39.760,-2.5,-24.1876
11:55:39.770,1.75,-16.0001
11:55:39.780,5.9375,-7.75
11:55:39.790,8.9375,-1.1875
11:55:39.800,10.75,4.5625
11:55:39.810,12.4375,8.125
11:55:39.820,11.75,10
11:55:39.832,11.9375,11.6875
11:55:39.849,9.875,10.875
11:55:39.855,8.375,10.3125
11:55:39.864,5.8125,8.125
11:55:39.870,3.0625,5.375
11:55:39.887,-0.5,2.5625
11:55:39.903,-3.6875,-0.875
11:55:39.905,-8.0625,-4.9375
11:55:39.911,-11.0625,-8.4375
11:55:39.920,-14.8751,-11.6875
11:55:39.931,-18.4376,-14.0626
11:55:39.940,-21.1251,-18.0001
11:55:39.950,-23.5001,-20.9376
11:55:39.965,-26.8751,-22.5001
11:55:39.972,-29.8126,-26.3751
11:55:39.980,-34.5626,-28.3126
11:55:39.995,-37.9376,-32.1251
11:55:40.012,-40.4377,-35.7501
11:55:40.012,-42.0002,-37.0001
11:55:40.021,-43.2502,-37.6876
11:55:40.030,-43.5627,-37.6251
11:55:40.040,-42.1252,-36.4376
11:55:40.050,-40.7502,-35.2501
11:55:40.060,-39.3127,-33.0626
11:55:40.070,-38.6251,-31.0001
11:55:40.082,-36.6876,-29.6876
11:55:40.115,-34.0626,-27.1876
11:55:40.117,-32.6876,-23.4376
11:55:40.119,-30.1876,-22.8126
11:55:40.122,-27.8751,-20.7501
11:55:40.151,-26.0001,-20.0001
11:55:40.154,-24.0001,-17.1876
11:55:40.156,-22.5001,-17.3751
11:55:40.160,-20.6876,-16.0001
11:55:40.188,-19.0001,-16.5001
11:55:40.192,-17.5626,-15.5001
11:55:40.194,-16.4376,-16.0001
11:55:40.224,-14.7501,-16.7501
11:55:40.227,-14.8751,-17.9376
11:55:40.229,-15.4376,-19.5001
11:55:40.234,-16.6876,-21.2501
11:55:40.260,-17.1876,-23.1251
11:55:40.261,-17.5626,-24.8751
11:55:40.264,-18.2501,-27.4376
11:55:40.270,-17.7501,-28.8751
11:55:40.285,-17.6251,-29.6876
11:55:40.292,-16.3751,-31.5001
11:55:40.300,-15.8126,-31.3751
11:55:40.310,-13.5001,-31.3126
11:55:40.320,-10.75,-30.8126
11:55:40.330,-9.1875,-31.4376
11:55:40.340,-7.9375,-31.6876
11:55:40.350,-6.5,-31.1876
11:55:40.360,-4.9375,-30.9376
11:55:40.370,-3,-31.5626
11:55:40.381,-2.5625,-31.2501
11:55:40.390,-2.125,-32.0001
11:55:40.401,-2.75,-33.2501
11:55:40.410,-1.875,-33.6251
11:55:40.421,-1.6875,-33.3126
11:55:40.430,-1.0625,-34.4376
11:55:40.440,-1.1875,-34.6251
11:55:40.450,-1.625,-35.0001
11:55:40.460,-2.75,-36.3126
11:55:40.471,-3.75,-38.0626
11:55:40.502,-5.9375,-39.1876
11:55:40.505,-6.5625,-40.6877
11:55:40.507,-8.9375,-41.7502
11:55:40.510,-9.375,-43.6252
11:55:40.520,-11.4375,-44.3127
11:55:40.530,-11.375,-45.4377
11:55:40.540,-12.0625,-45.0002
11:55:40.550,-11.6875,-44.2502
11:55:40.562,-9.875,-39.3126
11:55:40.570,-6.9375,-34.9376
11:55:40.580,-4,-27.5626
11:55:40.590,-0.375,-21.5626
11:55:40.600,3.75,-13.2501
11:55:40.610,5.9375,-6.5
11:55:40.620,8.375,-0.125
11:55:40.630,9.25,5.5625
11:55:40.640,9.8125,8.1875
11:55:40.651,8.4375,10.5
11:55:40.660,6.6875,11.9375
11:55:40.670,4.9375,11.125
11:55:40.680,3.4375,11.6875
11:55:40.690,1.375,10.1875
11:55:40.700,-1.25,9.375
11:55:40.708,-4.125,6.75
11:55:40.720,-8.375,3.6875
11:55:40.731,-12.875,-0.8125
11:55:40.741,-17.1251,-4.375
11:55:40.749,-21.3751,-8.1875
11:55:40.760,-24.6251,-10.8125
11:55:40.770,-28.6251,-14.0626
11:55:40.780,-31.0626,-17.0626
11:55:40.790,-33.3751,-20.3126
11:55:40.800,-34.8126,-20.7501
11:55:40.810,-34.5001,-22.0001
11:55:40.839,-35.0001,-23.3751
11:55:40.842,-34.6876,-23.6251
11:55:40.844,-33.6251,-23.1876
11:55:40.850,-33.5001,-23.6876
11:55:40.883,-32.8126,-23.4376
11:55:40.885,-31.4376,-22.5001
11:55:40.887,-30.3126,-21.9376
11:55:40.916,-28.9376,-20.3126
11:55:40.919,-28.0001,-19.0001
11:55:40.923,-25.7501,-17.7501
11:55:40.925,-24.1251,-15.4376
11:55:40.966,-21.4376,-13.4376
11:55:40.967,-19.7501,-11.4375
11:55:40.968,-16.6876,-9.8125
11:55:40.996,-15.3126,-8.25
11:55:40.996,-12.125,-6.1875
11:55:41.000,-10.4375,-5.4375
11:55:41.004,-8.125,-4.125
11:55:41.010,-6.3125,-3.3125
11:55:41.016,-5.4375,-3.5
11:55:41.025,-5.375,-2.875
11:55:41.036,-3.8125,-4.0625
11:55:41.045,-3.375,-4.75
11:55:41.054,-3,-4.875
11:55:41.065,-2.125,-6.875
11:55:41.074,-1.5625,-7.0625
11:55:41.085,0.9375,-7.375
11:55:41.094,3.3125,-7.25
11:55:41.105,7.1875,-6.75
11:55:41.114,10.375,-5.25
11:55:41.125,13.2501,-4.5
11:55:41.134,14.7501,-4.9375
11:55:41.145,16.1251,-5.5
11:55:41.154,16.8751,-5.625
11:55:41.172,16.3751,-6.6875
11:55:41.179,17.1876,-7.75
11:55:41.194,17.5626,-8.3125
11:55:41.198,18.0001,-9.0625
11:55:41.211,17.9376,-9.125
11:55:41.215,17.6251,-10.1875
11:55:41.223,16.3126,-11.875
11:55:41.235,14.4376,-14.0626
11:55:41.245,12.0625,-15.5001
11:55:41.253,11.0625,-17.6251
11:55:41.264,8.8125,-19.0626
11:55:41.282,8.25,-20.5001
11:55:41.285,6,-22.0626
11:55:41.300,5.125,-23.8126
11:55:41.315,3.375,-25.0626
11:55:41.317,2.75,-25.6876
11:55:41.327,1.375,-25.4376
11:55:41.335,2.6875,-22.1876
11:55:41.344,4.1875,-18.9376
11:55:41.355,6.9375,-14.9376
11:55:41.364,9.8125,-7.625
11:55:41.379,13.8126,-0.25
11:55:41.390,17.3751,6.25
11:55:41.398,19.9376,14.5626
11:55:41.418,22.5626,19.2501
11:55:41.422,24.3751,23.9376
11:55:41.428,24.9376,27.3126
11:55:41.440,24.4376,30.1251
11:55:41.449,23.6251,30.3751
11:55:41.459,21.7501,29.9376
11:55:41.468,19.4376,29.1251
11:55:41.478,16.6251,26.7501
11:55:41.489,12.0625,23.5626
11:55:41.502,7.375,20.7501
11:55:41.509,2.9375,15.5626
11:55:41.541,-1.6875,12.5625
11:55:41.544,-5.5625,7.3125
11:55:41.546,-9.3125,5
11:55:41.551,-12.5,-0.625
11:55:41.587,-16.1251,-5.1875
11:55:41.590,-17.8751,-6.9375
11:55:41.592,-19.4376,-9.875
11:55:41.623,-20.9376,-11.9375
11:55:41.624,-21.5001,-13.125
11:55:41.627,-21.1876,-15.5626
11:55:41.630,-22.3126,-16.9376
11:55:41.634,-23.5001,-18.0001
11:55:41.641,-24.3751,-19.8751
11:55:41.672,-25.9376,-19.7501
11:55:41.675,-26.7501,-19.8126
11:55:41.683,-26.4376,-21.2501
11:55:41.687,-26.8126,-20.2501
11:55:41.691,-26.0001,-19.4376
11:55:41.698,-25.4376,-19.2501
11:55:41.709,-25.2501,-18.3751
11:55:41.719,-25.6876,-18.5626
11:55:41.731,-25.0626,-18.4376
11:55:41.739,-24.9376,-18.0001
11:55:41.749,-26.0001,-19.5001
11:55:41.784,-26.8751,-18.6876
11:55:41.785,-27.0626,-19.5001
11:55:41.786,-27.0626,-19.9376
11:55:41.789,-26.0001,-19.0626
11:55:41.803,-26.8751,-19.3126
11:55:41.810,-27.3126,-18.8751
11:55:41.819,-28.0626,-20.8126
11:55:41.828,-28.4376,-20.7501
11:55:41.838,-29.1251,-21.4376
11:55:41.849,-29.0626,-21.4376
11:55:41.858,-29.3126,-23.1876
11:55:41.869,-30.3126,-23.1251
11:55:41.879,-31.1251,-26.0626
11:55:41.888,-32.3126,-27.3751
11:55:41.899,-32.8126,-29.6876
11:55:41.911,-33.3751,-29.7501
11:55:41.919,-34.0626,-32.2501
11:55:41.928,-33.3126,-31.9376
11:55:41.939,-32.8751,-32.8751
11:55:41.949,-33.5001,-33.3751
11:55:41.961,-34.2501,-35.2501
11:55:41.970,-34.9376,-36.3751
11:55:41.979,-36.0001,-37.7501
11:55:41.990,-36.3751,-38.3126
11:55:41.999,-37.8751,-41.3127
11:55:42.008,-38.6251,-42.7502
11:55:42.018,-39.0626,-44.5002
11:55:42.028,-40.0627,-46.2502
11:55:42.038,-41.6252,-48.3752
11:55:42.049,-42.0002,-49.5627
11:55:42.058,-42.8127,-51.9377
11:55:42.069,-43.2502,-52.1252
11:55:42.079,-43.6252,-53.8752
11:55:42.091,-43.3752,-54.1252
11:55:42.099,-43.6877,-55.3752
11:55:42.108,-43.0002,-55.9377
11:55:42.120,-43.0627,-55.3127
11:55:42.128,-41.0002,-54.2502
11:55:42.138,-38.6876,-52.0002
11:55:42.149,-34.8126,-45.5627
11:55:42.160,-31.0626,-39.7502
11:55:42.168,-27.1876,-32.4376
11:55:42.178,-23.3126,-26.1251
11:55:42.189,-19.1251,-18.1876
11:55:42.199,-15.3126,-10.625
11:55:42.208,-11.125,-2.6875
11:55:42.218,-7.875,4.125
11:55:42.228,-2.25,11.6875
11:55:42.239,0.8125,17.8751
11:55:42.272,3.6875,22.3751
11:55:42.275,5.5,25.6876
11:55:42.276,5.5,27.4376
11:55:42.281,5.875,28.4376
11:55:42.310,6.1875,28.5001
11:55:42.313,6.0625,28.6251
11:55:42.317,5.4375,27.5001
11:55:42.322,5.125,28.0626
11:55:42.355,4.9375,26.3751
11:55:42.357,3.875,26.2501
11:55:42.361,4.1875,24.2501
11:55:42.365,3.25,24.6251
11:55:42.369,3,22.3751
11:55:42.405,3,22.1251
11:55:42.407,2.5,20.1876
11:55:42.410,1.4375,19.0001
11:55:42.413,1.3125,18.3751
11:55:42.432,1,15.8751
11:55:42.435,-0.0625,14.0626
11:55:42.441,-0.875,12.875
11:55:42.449,-0.75,12.75
11:55:42.458,-1.0625,13.0625
11:55:42.480,-0.875,12.75
11:55:42.482,-0.125,12.9375
11:55:42.505,0.1875,14.3126
11:55:42.520,0.75,15.0001
11:55:42.522,1.25,14.8126
11:55:42.527,1.5,16.1251
11:55:42.530,2.5,17.5626
11:55:42.539,3.25,19.1876
11:55:42.555,4.25,20.0001
11:55:42.559,5.4375,20.4376
11:55:42.569,5.0625,20.6251
11:55:42.579,4.75,20.5001
11:55:42.589,5.125,19.4376
11:55:42.609,4.8125,19.0626
11:55:42.611,3.875,17.8751
11:55:42.623,3.6875,17.7501
11:55:42.628,2.6875,15.3126
11:55:42.644,2.0625,15.2501
11:55:42.653,0.9375,12.5
11:55:42.659,-0.1875,10.9375
11:55:42.669,-0.9375,9.1875
11:55:42.678,-3.0625,6.6875
11:55:42.689,-4.25,5.5625
11:55:42.698,-4.8125,2.4375
11:55:42.710,-5.6875,1.625
11:55:42.719,-6.375,0.5
11:55:42.728,-7.25,-2.8125
11:55:42.738,-8.625,-4.5625
11:55:42.748,-9.1875,-6.0625
11:55:42.758,-9.75,-8.5
11:55:42.769,-11.25,-10.8125
11:55:42.778,-12.375,-11.3125
11:55:42.789,-12.6875,-12.75
11:55:42.799,-12.9375,-14.6251
11:55:42.808,-14.0001,-16.7501
11:55:42.818,-16.5626,-17.4376
11:55:42.829,-16.5626,-20.6876
11:55:42.839,-18.1251,-22.6251
11:55:42.849,-17.9376,-22.1876
11:55:42.859,-18.3126,-23.8751
11:55:42.868,-19.4376,-24.4376
11:55:42.878,-18.8751,-25.6876
11:55:42.891,-19.8126,-26.2501
11:55:42.901,-19.5626,-27.6876
11:55:42.908,-20.0626,-28.6251
11:55:42.918,-21.0001,-29.5001
11:55:42.928,-21.1876,-30.5001
11:55:42.939,-21.6251,-32.0626
11:55:42.949,-22.0626,-32.4376
11:55:42.959,-22.8751,-33.9376
11:55:42.969,-23.3126,-34.8751
11:55:42.979,-24.0001,-36.3751
11:55:42.988,-25.3126,-37.3751
11:55:42.999,-25.1876,-38.1251
11:55:43.037,-25.8751,-39.3127
11:55:43.040,-26.3751,-40.0002
11:55:43.042,-25.1876,-38.8126
11:55:43.070,-23.6251,-37.4376
11:55:43.071,-20.5001,-32.0001
11:55:43.074,-16.5001,-27.3751
11:55:43.100,-11.5,-18.8751
11:55:43.101,-6.0625,-10.75
11:55:43.104,-0.5,-0.875
11:55:43.134,6,7
11:55:43.137,11.25,16.3126
11:55:43.137,15.5001,24.0626
11:55:43.138,19.4376,31.9376
11:55:43.146,22.0001,36.4376
11:55:43.154,24.5001,41.4377
11:55:43.158,26.3126,44.1877
11:55:43.187,27.5626,45.6877
11:55:43.190,27.5001,46.7502
11:55:43.192,27.7501,47.6252
11:55:43.201,27.4376,47.2502
11:55:43.208,26.3751,46.3752
11:55:43.220,26.3751,45.8127
11:55:43.229,25.1251,44.1252
11:55:43.238,23.4376,44.0627
11:55:43.249,23.5001,41.6877
11:55:43.259,21.7501,40.7502
11:55:43.268,22.0001,39.1876
11:55:43.278,20.8126,37.7501
11:55:43.288,19.6251,36.9376
11:55:43.299,18.7501,34.9376
11:55:43.309,18.0626,32.3126
11:55:43.320,16.4376,31.1876
11:55:43.329,15.7501,28.5626
11:55:43.338,15.3751,28.5001
11:55:43.348,15.1876,27.6251
11:55:43.358,14.8751,26.8126
11:55:43.368,15.4376,27.0626
11:55:43.378,15.8751,28.3751
11:55:43.388,16.9376,28.8751
11:55:43.398,17.4376,30.1876
11:55:43.409,18.6251,31.7501
11:55:43.419,19.6876,32.5001
11:55:43.429,19.6876,34.8751
11:55:43.439,20.1876,35.5001
11:55:43.448,20.5001,35.8126
11:55:43.458,21.1876,35.9376
11:55:43.469,20.9376,35.0001
11:55:43.479,20.3126,35.0626
11:55:43.488,19.9376,34.8126
11:55:43.499,19.3126,33.0626
11:55:43.508,18.6876,32.5626
11:55:43.518,18.3126,30.9376
11:55:43.528,16.5001,28.8751
11:55:43.539,15.3751,28.0001
11:55:43.549,15.0001,25.9376
11:55:43.559,13.4376,23.3751
11:55:43.568,12.5625,22.5626
11:55:43.577,11.5625,19.7501
11:55:43.588,9.875,17.2501
11:55:43.599,8.25,17.0626
11:55:43.609,8.0625,14.0001
11:55:43.618,6.3125,11.25
11:55:43.629,5.375,9.25
11:55:43.640,4,7.9375
11:55:43.649,3.0625,5.125
11:55:43.659,1.625,2.375
11:55:43.697,0.375,1.5625
11:55:43.699,0.375,-0.4375
11:55:43.701,-1.4375,-3
11:55:43.712,-1.75,-4.1875
11:55:43.714,-3.0625,-6.75
11:55:43.743,-4.75,-9.25
11:55:43.745,-5.625,-10.125
11:55:43.748,-6,-12.375
11:55:43.777,-7.375,-14.2501
11:55:43.781,-8.375,-15.9376
11:55:43.784,-8.875,-17.8126
11:55:43.814,-10.25,-19.1251
11:55:43.871,-11.1875,-19.9376
11:55:43.875,-11.4375,-21.1876
11:55:43.881,-11.25,-22.2501
11:55:43.881,-11.5625,-23.1251
11:55:43.881,-10.75,-21.7501
11:55:43.883,-8.3125,-19.6251
11:55:43.894,-6.3125,-15.1251
11:55:43.902,-1.5,-9.25
11:55:43.913,2.75,-2.6875
11:55:43.922,7.9375,6
11:55:43.937,13.0625,14.0626
11:55:43.946,18.5001,22.7501
11:55:43.957,22.8126,31.1251
11:55:43.974,27.4376,38.2501
11:55:43.977,30.1251,44.1877
11:55:43.986,32.1251,48.2502
11:55:43.994,33.8751,51.6252
11:55:44.002,34.0001,53.0002
11:55:44.013,33.8126,52.8127
11:55:44.022,33.3751,52.5002
11:55:44.032,32.6876,51.6877
11:55:44.044,29.5626,47.8127
11:55:44.053,27.7501,46.0627
11:55:44.062,27.0626,43.7502
11:55:44.074,25.1876,41.0627
11:55:44.082,24.0626,39.0001
11:55:44.092,22.7501,36.1251
11:55:44.104,20.5626,32.6876
11:55:44.113,18.8751,31.1251
11:55:44.122,17.5001,29.0626
11:55:44.132,16.9376,27.1251
11:55:44.144,16.3126,25.0001
11:55:44.153,15.6251,25.0626
11:55:44.164,15.8751,24.1876
11:55:44.174,15.5001,24.4376
11:55:44.182,16.0626,24.4376
11:55:44.192,16.8126,25.1876
11:55:44.204,16.9376,25.1876
11:55:44.213,17.0626,26.8751
11:55:44.222,18.3126,27.1251
11:55:44.232,18.3126,28.5626
11:55:44.243,19.1251,29.0001
11:55:44.257,18.5626,27.8126
11:55:44.268,18.1251,27.1876
11:55:44.279,17.1251,27.2501
11:55:44.287,17.3751,26.4376
11:55:44.297,16.0626,24.7501
11:55:44.308,14.6251,24.5001
11:55:44.342,14.3126,22.1876
11:55:44.346,12.6875,18.6876
11:55:44.348,11.8125,18.8126
11:55:44.352,11.6875,16.6876
11:55:44.359,9,13.5001
11:55:44.369,7.5625,12.375
11:55:44.377,6.8125,9.9375
11:55:44.388,5.25,6.5625
11:55:44.397,3.875,5.375
11:55:44.408,2.1875,3.6875
11:55:44.417,1.5625,-0.125
11:55:44.427,-0.3125,-2.75
11:55:44.469,-1.8125,-4.6875
11:55:44.471,-2.375,-7
11:55:44.474,-4.375,-9.875
11:55:44.478,-5.1875,-10.6875
11:55:44.480,-5.875,-12.8125
11:55:44.514,-6.8125,-14.3126
11:55:44.517,-7.8125,-16.8751
11:55:44.519,-9.1875,-18.7501
11:55:44.528,-9.6875,-19.5626
11:55:44.532,-10.4375,-21.5626
11:55:44.561,-11.6875,-22.7501
11:55:44.565,-12.5,-23.4376
11:55:44.566,-12.9375,-26.0001
11:55:44.568,-14.2501,-27.2501
11:55:44.597,-14.9376,-28.5001
11:55:44.600,-15.3126,-30.3126
11:55:44.603,-16.1251,-31.3126
11:55:44.609,-16.4376,-32.3751
11:55:44.618,-17.6876,-33.6876
11:55:44.633,-18.0001,-35.3751
11:55:44.639,-19.3126,-36.6876
11:55:44.647,-19.8126,-37.5626
11:55:44.657,-20.3126,-39.3127
11:55:44.667,-21.3751,-39.5627
11:55:44.679,-21.8126,-40.7502
11:55:44.687,-22.3126,-41.9377
11:55:44.697,-22.3126,-43.0627
11:55:44.714,-21.8126,-42.1877
11:55:44.718,-20.3751,-41.0627
11:55:44.728,-18.5001,-37.5626
11:55:44.738,-14.0001,-31.6251
11:55:44.747,-9.375,-23.6251
11:55:44.757,-3.875,-16.4376
11:55:44.767,2.125,-6.4375
11:55:44.777,8.125,2.375
11:55:44.787,13.4376,13.1876
11:55:44.797,18.7501,20.4376
11:55:44.807,22.8126,29.0626
11:55:44.818,26.0626,33.7501
11:55:44.827,27.8751,38.5626
11:55:44.842,29.5001,41.5627
11:55:44.847,29.8126,44.1877
11:55:44.857,30.6251,44.4377
11:55:44.870,30.2501,44.8127
11:55:44.877,28.9376,42.8752
11:55:44.887,27.5001,43.1877
11:55:44.897,26.8126,41.1877
11:55:44.907,25.2501,39.6252
11:55:44.920,24.3751,38.7501
11:55:44.933,23.6876,36.1876
11:55:44.942,22.7501,35.6876
11:55:44.952,21.8751,33.5001
11:55:44.963,20.6251,31.4376
11:55:44.973,19.1876,29.8126
11:55:44.982,18.3751,29.1251
11:55:44.993,17.4376,25.8126
11:55:45.007,15.8751,24.0626
11:55:45.013,14.6876,22.1876
11:55:45.022,13.1876,20.3751
11:55:45.032,12.625,20.0626
11:55:45.043,12.5625,18.2501
11:55:45.052,13.0625,19.0626
11:55:45.062,12.8125,18.3126
11:55:45.073,13.3126,18.5001
11:55:45.083,13.5001,18.5626
11:55:45.100,14.6251,21.3751
11:55:45.104,15.8751,22.8751
11:55:45.113,16.8751,23.1251
11:55:45.124,16.9376,24.0001
11:55:45.140,16.8126,24.5626
11:55:45.146,16.6251,25.2501
11:55:45.161,16.3126,23.9376
11:55:45.163,15.8751,23.3751
11:55:45.202,15.0001,24.2501
11:55:45.205,15.1251,22.1251
11:55:45.238,14.1251,20.5001
11:55:45.238,13.0625,19.4376
11:55:45.239,12.875,18.1876
11:55:45.241,10.9375,15.8126
11:55:45.268,9.5625,13.9376
11:55:45.269,8.1875,12.9375
11:55:45.271,7.9375,10.8125
11:55:45.304,6.4375,8
11:55:45.333,4.5625,7.25
11:55:45.335,3.875,4.8125
11:55:45.335,2.75,1.8125
11:55:45.335,1.3125,-0.25
11:55:45.336,-0.875,-1.6875
11:55:45.341,-1.375,-4.8125
11:55:45.343,-2.6875,-6.9375
11:55:45.344,-3.625,-8.125
11:55:45.360,-5.375,-10.6875
11:55:45.362,-6.5625,-12.4375
11:55:45.372,-6.8125,-14.5001
11:55:45.388,-8.5625,-16.7501
11:55:45.393,-9.125,-18.4376
11:55:45.402,-10.375,-20.4376
11:55:45.412,-10.1875,-21.3751
11:55:45.422,-11.75,-23.2501
11:55:45.432,-12.5,-24.7501
11:55:45.444,-12.8125,-25.6251
11:55:45.452,-13.4376,-26.8751
11:55:45.464,-14.3126,-28.1876
11:55:45.472,-15.0001,-28.1251
11:55:45.483,-15.6876,-29.4376
11:55:45.496,-15.8126,-30.5001
11:55:45.503,-16.1251,-30.8126
11:55:45.514,-16.9376,-32.4376
11:55:45.523,-17.5001,-33.0001
11:55:45.533,-18.1876,-35.1251
11:55:45.542,-18.0626,-34.5626
11:55:45.552,-18.9376,-37.2501
11:55:45.562,-19.7501,-37.4376
11:55:45.573,-20.3126,-38.8126
11:55:45.583,-20.8126,-39.6252
11:55:45.594,-21.7501,-40.8127
11:55:45.623,-22.1251,-42.5002
11:55:45.627,-22.9376,-42.4377
11:55:45.627,-23.0001,-43.6877
11:55:45.633,-23.5001,-44.1252
11:55:45.643,-22.3751,-43.6877
11:55:45.652,-21.1876,-41.6252
11:55:45.662,-18.0626,-37.5626
11:55:45.672,-14.0626,-31.4376
11:55:45.691,-8.125,-23.5001
11:55:45.693,-3.125,-14.7501
11:55:45.703,2.8125,-6.1875
11:55:45.712,8.75,4.375
11:55:45.722,14.1876,12.125
11:55:45.733,18.7501,21.2501
11:55:45.742,22.6876,27.3751
11:55:45.752,25.2501,34.1876
11:55:45.765,28.1876,37.2501
11:55:45.774,27.8751,40.4377
11:55:45.784,28.3126,40.7502
11:55:45.792,29.0626,41.8127
11:55:45.802,28.0626,42.3752
11:55:45.812,27.3126,40.6877
11:55:45.822,26.6251,39.9377
11:55:45.832,25.5001,39.1252
11:55:45.842,24.3126,36.6251
11:55:45.859,23.3126,35.8126
11:55:45.864,21.8751,34.8126
11:55:45.874,21.3751,32.6876
11:55:45.890,20.1251,31.1876
11:55:45.894,18.8126,30.1251
11:55:45.903,18.0001,27.1876
11:55:45.914,17.1251,25.6876
11:55:45.922,15.8751,23.9376
11:55:45.932,14.9376,22.0626
11:55:45.962,13.3751,20.0001
11:55:45.965,12.9375,20.3751
11:55:45.966,13.1251,18.0626
11:55:45.974,12.125,17.6876
11:55:46.009,11.9375,17.6251
11:55:46.010,12.5625,18.5001
11:55:46.012,13.5626,18.5001
11:55:46.018,13.8126,19.3751
11:55:46.022,14.5626,21.0626
11:55:46.060,15.2501,21.1876
11:55:46.063,15.5626,23.0001
11:55:46.063,16.0626,24.3751
11:55:46.067,16.7501,23.7501
11:55:46.100,16.5626,25.0626
11:55:46.101,17.0626,24.3751
11:55:46.104,15.9376,24.8751
11:55:46.109,15.4376,23.0001
11:55:46.114,15.0001,22.3751
11:55:46.125,14.3126,21.6876
11:55:46.132,13.6876,20.5001
11:55:46.142,13.1876,18.5626
11:55:46.153,11.4375,16.3126
11:55:46.162,10.4375,15.9376
11:55:46.173,9.9375,13.4376
11:55:46.182,8.5625,11.0625
11:55:46.192,6.5,10.5
11:55:46.207,5.4375,7.3125
11:55:46.214,4.125,4.6875
11:55:46.222,2.625,2.375
11:55:46.234,1.625,1.125
11:55:46.242,0.375,-1.375
11:55:46.252,-1,-4.25
11:55:46.262,-2.4375,-5.5625
11:55:46.273,-2.75,-7.375
11:55:46.283,-4.5625,-9.5625
11:55:46.292,-5.9375,-10.875
11:55:46.302,-6.4375,-13.125
11:55:46.312,-7.9375,-15.5001
11:55:46.322,-8.5625,-16.3751
11:55:46.339,-9.125,-18.1251
11:55:46.344,-10.125,-20.1876
11:55:46.352,-11.5625,-20.8126
11:55:46.364,-11.625,-21.8751
11:55:46.372,-11.9375,-23.1876
11:55:46.383,-13.2501,-25.2501
11:55:46.392,-13.3126,-25.8751
11:55:46.403,-13.7501,-26.8126
11:55:46.412,-14.4376,-27.6251
11:55:46.423,-14.4376,-28.8751
11:55:46.432,-15.9376,-30.1876
11:55:46.449,-16.4376,-30.0626
11:55:46.464,-16.8751,-30.7501
11:55:46.468,-16.3751,-32.1876
11:55:46.475,-17.7501,-31.9376
11:55:46.482,-18.0001,-34.4376
11:55:46.492,-19.2501,-34.9376
11:55:46.502,-19.8126,-36.8126
11:55:46.530,-20.4376,-36.3751
11:55:46.533,-20.3751,-38.5001
11:55:46.535,-21.8126,-39.2501
11:55:46.543,-21.5626,-40.3127
11:55:46.554,-22.5626,-41.6877
11:55:46.563,-23.1251,-42.3752
11:55:46.587,-23.1251,-43.0002
11:55:46.596,-23.5626,-43.6877
11:55:46.617,-22.7501,-42.8127
11:55:46.620,-20.9376,-41.0002
11:55:46.636,-18.0001,-37.1876
11:55:46.656,-13.6251,-30.6251
11:55:46.657,-8.875,-23.7501
11:55:46.660,-3.5625,-15.2501
11:55:46.692,2.25,-6.5
11:55:46.694,7.75,3.3125
11:55:46.695,13.3751,11.375
11:55:46.697,17.1876,19.4376
11:55:46.704,21.6876,25.6876
11:55:46.705,24.4376,31.1876
11:55:46.719,25.8751,34.5626
11:55:46.724,27.4376,37.6876
11:55:46.765,27.5626,39.1252
11:55:46.768,27.0626,39.8752
11:55:46.772,26.7501,39.6252
11:55:46.776,26.1876,38.4376
11:55:46.779,24.9376,38.4376
11:55:46.792,24.0001,36.8126
11:55:46.795,22.8751,34.4376
11:55:46.834,21.5626,33.6876
11:55:46.837,20.8126,31.5001
11:55:46.838,19.5626,29.8751
11:55:46.844,18.0626,29.1876
11:55:46.845,17.3126,26.4376
11:55:46.857,16.1251,24.6251
11:55:46.867,14.6876,22.2501
11:55:46.878,13,20.9376
11:55:46.907,12.4375,19.3751
11:55:46.908,11.5,16.9376
11:55:46.910,10.6875,16.5001
11:55:46.920,10.25,14.9376
11:55:46.930,10.5625,14.8751
11:55:46.939,11.25,15.3751
11:55:46.947,11.3125,15.6876
11:55:46.957,12.125,16.8751
11:55:46.967,13.0625,18.5626
11:55:46.977,13.6876,20.5626
11:55:46.987,15.1876,21.0001
11:55:46.996,16.1251,22.6251
11:55:47.007,16.4376,23.8751
11:55:47.017,17.1876,24.5001
11:55:47.026,17.5001,25.4376
11:55:47.037,16.8751,25.1876
11:55:47.047,16.6876,25.0626
11:55:47.057,16.0001,23.4376
11:55:47.068,14.7501,23.2501
11:55:47.078,13.5001,21.8751
11:55:47.087,14.0001,20.1251
11:55:47.098,12.1875,19.0626
11:55:47.107,11.625,17.4376
11:55:47.116,10.5625,15.1251
11:55:47.126,8.5,13.3126
11:55:47.137,7.6875,11.1875
11:55:47.146,6.4375,8.5
11:55:47.157,5.5,7.1875
11:55:47.166,4.375,4.8125
11:55:47.176,2.625,2.875
11:55:47.186,2,1
11:55:47.198,0.375,-0.625
11:55:47.206,-0.8125,-3
11:55:47.216,-1.1875,-5.0625
11:55:47.228,-3.3125,-6.125
11:55:47.237,-3.5625,-8.1875
11:55:47.248,-5.3125,-9.5
11:55:47.258,-5.125,-11.75
11:55:47.267,-7,-13
11:55:47.278,-7.4375,-14.0001
11:55:47.286,-8.125,-16.3751
11:55:47.297,-8.875,-17.0626
11:55:47.306,-8.5,-18.3751
11:55:47.317,-10.125,-20.0001
11:55:47.327,-10.6875,-21.0626
11:55:47.337,-11.8125,-22.6876
11:55:47.348,-12.1875,-23.5001
11:55:47.357,-13.1876,-24.8126
11:55:47.368,-13.5626,-25.9376
11:55:47.377,-15.0626,-26.3126
11:55:47.388,-15.5001,-29.0626
11:55:47.396,-15.0001,-29.0001
11:55:47.437,-16.6876,-31.0626
11:55:47.439,-16.5001,-31.5626
11:55:47.442,-17.6876,-30.7501
11:55:47.444,-18.0626,-33.5626
11:55:47.449,-17.8751,-34.5626
11:55:47.481,-19.1251,-34.9376
11:55:47.484,-19.1876,-36.3126
11:55:47.486,-18.5626,-35.2501
11:55:47.514,-17.5626,-32.2501
11:55:47.515,-14.4376,-30.0626
11:55:47.517,-10.4375,-24.1876
11:55:47.524,-5.625,-17.3126
11:55:47.527,-0.3125,-8.0625
11:55:47.559,4.8125,-0.9375
11:55:47.561,10.0625,8.75
11:55:47.564,15.6876,16.6251
11:55:47.566,20.2501,25.4376
11:55:47.586,23.2501,30.6251
11:55:47.589,26.3751,36.1876
11:55:47.597,27.7501,39.4377
11:55:47.608,28.5626,41.7502
11:55:47.617,28.6251,42.9377
11:55:47.626,28.3751,43.5002
11:55:47.636,27.7501,42.8127
11:55:47.646,27.4376,42.2502
11:55:47.656,26.1251,40.0627
11:55:47.668,25.0001,39.6252
11:55:47.678,23.2501,36.4376
11:55:47.688,22.5001,35.1876
11:55:47.696,20.0626,32.2501
11:55:47.706,20.0001,31.6876
11:55:47.716,19.1876,29.3751
11:55:47.726,16.6876,26.3126
11:55:47.737,16.2501,24.6876
11:55:47.752,14.1876,21.8751
11:55:47.766,12.0625,21.3126
11:55:47.769,11.875,18.2501
11:55:47.776,10.5,15.5626
11:55:47.786,10.125,15.5626
11:55:47.796,10.1875,14.3126
11:55:47.806,9.0625,14.0626
11:55:47.816,9.9375,14.5626
11:55:47.827,10.375,14.1876
11:55:47.837,10.5,16.9376
11:55:47.846,12,16.9376
11:55:47.857,12.9375,17.4376
11:55:47.866,13.7501,20.5001
11:55:47.877,14.3751,20.5001
11:55:47.886,14.8126,21.8751
11:55:47.902,15.8751,23.0001
11:55:47.919,15.5626,22.7501
11:55:47.921,15.1876,22.4376
11:55:47.928,14.5001,22.6876
11:55:47.936,14.3126,21.6876
11:55:47.946,14.4376,21.0626
11:55:47.956,12.875,18.9376
11:55:47.966,11.8125,18.8126
11:55:47.976,11.6875,16.7501
11:55:47.986,9.75,15.1251
11:55:47.996,8.5,12.75
11:55:48.006,7.5625,11.8125
11:55:48.016,6.25,9.25
11:55:48.026,5.375,7.625
11:55:48.036,4.25,5.4375
11:55:48.074,2.5625,3.5625
11:55:48.075,1.25,1.75
11:55:48.077,0.5,-0.375
11:55:48.080,-0.5625,-2.6875
11:55:48.086,-2.25,-5.375
11:55:48.123,-3.3125,-5.375
11:55:48.124,-3.875,-8.375
11:55:48.126,-5.875,-9.375
11:55:48.132,-6.375,-12.375
11:55:48.139,-8.0625,-14.6251
11:55:48.171,-8.25,-15.6251
11:55:48.174,-9.75,-17.3126
11:55:48.176,-10.375,-18.8751
11:55:48.190,-10.125,-20.1251
11:55:48.196,-11.875,-21.3751
11:55:48.196,-12.4375,-22.4376
11:55:48.232,-12.5625,-24.3751
11:55:48.235,-13.9376,-25.8126
11:55:48.235,-14.4376,-26.0626
11:55:48.239,-14.8751,-26.2501
11:55:48.250,-15.2501,-28.0626
11:55:48.257,-15.8126,-28.6876
11:55:48.266,-16.3126,-29.7501
11:55:48.276,-16.9376,-30.1251
11:55:48.286,-17.4376,-31.9376
11:55:48.296,-18.3751,-32.7501
11:55:48.306,-18.6876,-34.5626
11:55:48.316,-19.8751,-34.3126
11:55:48.326,-19.6876,-36.1251
11:55:48.336,-20.4376,-36.5001
11:55:48.346,-20.6876,-38.2501
11:55:48.356,-21.8126,-38.4376
11:55:48.367,-22.3126,-39.5627
11:55:48.376,-22.6251,-41.1252
11:55:48.386,-22.5626,-41.0627
11:55:48.396,-23.1876,-42.6252
11:55:48.406,-23.0626,-41.7502
11:55:48.416,-22.2501,-42.0002
11:55:48.426,-20.7501,-39.1251
11:55:48.436,-17.1876,-35.1876
11:55:48.447,-12.375,-28.6251
11:55:48.456,-8.25,-21.6251
11:55:48.467,-2.375,-11.4375
11:55:48.476,3.4375,-2.625
11:55:48.486,9.5,7.75
11:55:48.497,14.8126,16.0001
11:55:48.506,19.7501,25.3126
11:55:48.516,23.5626,31.3751
11:55:48.526,26.1876,37.6876
11:55:48.536,28.0001,41.1252
11:55:48.546,29.2501,43.5627
11:55:48.556,29.8751,45.3752
11:55:48.566,29.5626,45.3752
11:55:48.576,29.1876,46.0627
11:55:48.586,28.1251,44.5002
11:55:48.596,27.3126,43.5627
11:55:48.607,26.3126,42.0002
11:55:48.616,24.9376,40.5627
11:55:48.626,23.8126,38.6876
11:55:48.637,22.7501,36.5001
11:55:48.647,22.0001,35.8751
11:55:48.656,20.7501,34.0626
11:55:48.666,19.3126,32.1251
11:55:48.677,18.0001,31.0001
11:55:48.686,18.0626,28.2501
11:55:48.696,15.6876,25.6251
11:55:48.707,15.2501,24.4376
11:55:48.716,13.7501,22.3751
11:55:48.726,13.6251,21.6251
11:55:48.736,13.3126,20.5626
11:55:48.746,13.3126,20.5626
11:55:48.756,12.8125,20.3126
11:55:48.767,14.3751,21.1251
11:55:48.777,14.0626,22.2501
11:55:48.786,15.6251,23.0001
11:55:48.799,16.3126,24.9376
11:55:48.809,16.4376,26.6251
11:55:48.818,17.6876,27.1876
11:55:48.826,18.3126,29.0001
11:55:48.836,18.9376,29.0001
11:55:48.846,18.9376,30.4376
11:55:48.856,19.1876,29.6876
11:55:48.900,18.3126,29.9376
11:55:48.901,17.9376,28.7501
11:55:48.906,17.0626,27.8126
11:55:48.907,16.3126,26.9376
11:55:48.909,15.6251,24.6876
11:55:48.940,14.5626,24.0001
11:55:48.947,13.3751,21.6251
11:55:48.947,12.25,19.8126
11:55:48.952,11.375,17.8751
11:55:48.980,9.5625,15.9376
11:55:48.982,9.3125,14.3751
11:55:48.985,6.875,12
11:55:48.993,6.6875,10.625
11:55:49.023,5.25,8
11:55:49.025,3,6.5
11:55:49.027,2.9375,3.5625
11:55:49.033,1.125,2.5625
11:55:49.047,0.3125,0.1875
11:55:49.053,-1.375,-2.8125
11:55:49.069,-2.5,-4.5
11:55:49.071,-2.8125,-6.0625
11:55:49.082,-4.25,-7.8125
11:55:49.092,-4.9375,-9.625
11:55:49.102,-6.875,-12.3125
11:55:49.111,-7.125,-13.6251
11:55:49.121,-8.625,-14.2501
11:55:49.132,-9.125,-16.3126
11:55:49.141,-9.625,-18.3751
11:55:49.151,-10.875,-19.7501
11:55:49.161,-11.8125,-20.3751
11:55:49.176,-11.5625,-20.6251
11:55:49.181,-11.8125,-21.6876
11:55:49.198,-12.5625,-24.0001
11:55:49.202,-13.3751,-23.2501
11:55:49.217,-13.2501,-24.5626
11:55:49.221,-14.0626,-25.8751
11:55:49.231,-14.7501,-26.0001
11:55:49.242,-14.3126,-27.1251
11:55:49.251,-15.7501,-28.0001
11:55:49.261,-15.2501,-28.9376
11:55:49.271,-16.8126,-30.0001
11:55:49.281,-16.7501,-30.6876
11:55:49.291,-17.8126,-31.1876
11:55:49.301,-18.0001,-33.0001
11:55:49.312,-19.0626,-34.4376
11:55:49.321,-19.1251,-34.8751
11:55:49.331,-20.0001,-36.7501
11:55:49.341,-20.8751,-37.6876
11:55:49.351,-21.7501,-38.1876
11:55:49.361,-21.7501,-38.8126
11:55:49.371,-22.0626,-40.5627
11:55:49.381,-22.8126,-41.1252
11:55:49.391,-21.7501,-40.4377
11:55:49.401,-20.5001,-37.4376
11:55:49.411,-17.2501,-33.6876
11:55:49.421,-12.8125,-28.4376
11:55:49.431,-7.125,-18.8126
11:55:49.464,-1.75,-10.0625
11:55:49.465,4.1875,-0.125
11:55:49.468,11,9.5
11:55:49.471,16.0626,19.7501
11:55:49.481,22.1251,28.5001
11:55:49.492,25.1251,35.5626
11:55:49.501,29.1876,41.0002
11:55:49.511,30.5626,46.0627
11:55:49.521,32.7501,49.1877
11:55:49.531,32.4376,50.2502
11:55:49.541,32.8126,51.5002
11:55:49.556,31.9376,51.1877
11:55:49.561,31.2501,50.7502
11:55:49.597,30.5001,48.5002
11:55:49.599,29.3126,48.3752
11:55:49.601,28.2501,45.8127
11:55:49.603,26.6251,45.1877
11:55:49.643,25.9376,42.5627
11:55:49.644,24.2501,41.7502
11:55:49.647,23.5626,40.0627
11:55:49.683,22.8751,38.1251
11:55:49.683,20.8126,35.1251
11:55:49.683,19.3126,33.6251
11:55:49.683,18.4376,31.8751
11:55:49.689,17.6876,29.9376
11:55:49.691,16.5626,28.1251
11:55:49.723,15.9376,26.1876
11:55:49.726,14.6876,26.1876
11:55:49.728,15.8751,25.4376
11:55:49.733,15.1876,26.4376
11:55:49.744,16.5626,26.1251
11:55:49.751,16.5001,27.3751
11:55:49.761,17.8126,28.6876
11:55:49.771,18.6251,30.9376
11:55:49.782,20.0001,31.8751
11:55:49.793,20.1876,33.4376
11:55:49.801,21.5001,33.5001
11:55:49.811,21.9376,35.2501
11:55:49.821,21.6876,36.1876
11:55:49.831,21.8751,35.7501
11:55:49.840,22.0001,35.3751
11:55:49.851,21.5001,35.1876
11:55:49.863,20.8126,33.8751
11:55:49.871,20.3751,33.5001
11:55:49.881,19.0626,32.6876
11:55:49.891,18.9376,30.8126
11:55:49.901,17.1251,29.4376
11:55:49.911,16.6251,27.0001
11:55:49.927,14.8751,24.6876
11:55:49.932,13.4376,23.5626
11:55:49.941,12.9375,20.8126
11:55:49.951,10.8125,18.1876
11:55:49.960,9.25,17.1876
11:55:49.971,8.5625,14.3126
11:55:49.980,6.6875,11.5
11:55:49.990,5.1875,10.375
11:55:50.001,4.75,7.5
11:55:50.011,3.1875,4.75
11:55:50.021,1.8125,3
11:55:50.031,0.4375,2
11:55:50.041,0.75,-0.625
11:55:50.050,-1.8125,-2.9375
11:55:50.061,-2.8125,-3.6875
11:55:50.070,-3.8125,-6.125
11:55:50.081,-4.6875,-6.9375
11:55:50.091,-5,-8.0625
11:55:50.101,-5.3125,-10.0625
11:55:50.112,-6.1875,-10.5625
11:55:50.121,-5.875,-11.6875
11:55:50.131,-7,-13.1876
11:55:50.142,-7.0625,-13.1251
11:55:50.152,-7.875,-15.0001
11:55:50.161,-8.3125,-15.8126
11:55:50.171,-8.5625,-15.8126
11:55:50.181,-9.125,-17.1251
11:55:50.191,-10.3125,-18.3126
11:55:50.201,-10.5,-18.2501
11:55:50.211,-10.875,-20.6251
11:55:50.221,-12.0625,-20.5626
11:55:50.231,-12.375,-22.7501
11:55:50.240,-12.9375,-23.3751
11:55:50.261,-13.4376,-24.1251
11:55:50.264,-13.3751,-25.6251
11:55:50.293,-14.2501,-26.2501
11:55:50.296,-15.3126,-27.9376
11:55:50.298,-15.7501,-28.0626
11:55:50.301,-16.1251,-29.0001
11:55:50.348,-16.8126,-30.2501
11:55:50.350,-17.3126,-31.0001
11:55:50.384,-18.4376,-32.1876
11:55:50.387,-18.5626,-32.5001
11:55:50.414,-17.3126,-32.0001
11:55:50.414,-14.8751,-29.8126
11:55:50.414,-12.125,-24.4376
11:55:50.415,-7.375,-18.3126
11:55:50.416,-2.875,-11.0625
11:55:50.440,2.8125,-2.75
11:55:50.446,8.6875,6.875
11:55:50.448,14.2501,16.1876
11:55:50.451,19.5626,25.0001
11:55:50.456,23.5001,32.6251
11:55:50.465,27.5001,39.8127
11:55:50.476,29.8126,44.8752
11:55:50.496,31.2501,48.8752
11:55:50.499,32.3126,50.1252
11:55:50.514,32.0001,50.8127
11:55:50.516,31.3751,50.0002
11:55:50.526,30.0626,50.0627
11:55:50.535,28.8751,48.6252
11:55:50.547,28.1251,46.1252
11:55:50.555,25.3751,42.2502
11:55:50.566,23.5001,40.8127
11:55:50.576,22.4376,37.6876
11:55:50.586,21.1251,36.4376
11:55:50.595,19.5626,33.1876
11:55:50.605,17.6876,30.1876
11:55:50.616,15.5001,29.3751
11:55:50.625,15.3126,25.7501
11:55:50.636,13.2501,23.9376
11:55:50.646,12.75,22.0001
11:55:50.655,12,20.3126
11:55:50.666,11.0625,20.0001
11:55:50.676,11.8125,18.9376
11:55:50.685,11.8125,20.3126
11:55:50.696,12.9375,20.2501
11:55:50.705,13.2501,22.4376
11:55:50.716,14.9376,23.2501
11:55:50.745,15.6876,25.1876
11:55:50.747,16.1251,25.8126
11:55:50.750,17.4376,28.1876
11:55:50.755,18.0626,28.7501
11:55:50.765,18.1251,29.9376
11:55:50.775,17.8751,30.5001
11:55:50.786,18.3751,29.9376
11:55:50.795,17.8751,29.1876
11:55:50.805,17.4376,29.6251
11:55:50.821,16.8751,27.8126
11:55:50.826,15.6251,26.3126
11:55:50.835,15.1876,25.6251
11:55:50.845,14.3126,23.1251
11:55:50.855,12.75,20.6876
11:55:50.865,11.375,19.4376
11:55:50.875,10.375,18.6251
11:55:50.885,9.5,15.3126
11:55:50.895,7.625,12.4375
11:55:50.905,6.125,10.375
11:55:50.915,5.25,9.3125
11:55:50.925,4.0625,6.625
11:55:50.935,2.0625,4.6875
11:55:50.947,1.5625,3.0625
11:55:50.955,0.6875,0.25
11:55:50.965,-0.8125,-1.125
11:55:50.977,-2.5625,-2.8125
11:55:50.985,-2.8125,-5.5
11:55:50.998,-4.3125,-7.3125
11:55:51.006,-5.5,-8.5
11:55:51.037,-6.25,-10.9375
11:55:51.040,-6.8125,-12.5
11:55:51.043,-8.3125,-12.6875
11:55:51.046,-8.0625,-15.5626
11:55:51.075,-10.0625,-17.4376
11:55:51.082,-11.5625,-18.0001
11:55:51.082,-11.8125,-20.7501
11:55:51.108,-12.9375,-21.8751
11:55:51.115,-13.3126,-20.9376
11:55:51.121,-13.4376,-23.1876
11:55:51.123,-13.8126,-24.0626
11:55:51.132,-14.1251,-24.8751
11:55:51.136,-14.8126,-26.1876
11:55:51.169,-15.6876,-27.1251
11:55:51.174,-16.1251,-28.1251
11:55:51.175,-16.3751,-28.8751
11:55:51.182,-17.2501,-30.3751
11:55:51.186,-18.1251,-30.5001
11:55:51.199,-18.6251,-32.4376
11:55:51.205,-19.1251,-32.6251
11:55:51.215,-19.9376,-33.3751
11:55:51.225,-20.3751,-35.1876
11:55:51.235,-20.7501,-36.0001
11:55:51.245,-21.1876,-36.1876
11:55:51.255,-21.0626,-37.4376
11:55:51.265,-20.9376,-36.8126
11:55:51.275,-20.7501,-37.8751
11:55:51.285,-20.7501,-36.3751
11:55:51.295,-18.1876,-34.1251
11:55:51.305,-15.1251,-29.0001
11:55:51.315,-10.4375,-22.1876
11:55:51.325,-3.8125,-13.9376
11:55:51.336,1.5,-2.9375
11:55:51.345,8.1875,6.5
11:55:51.355,12.1875,17.0001
11:55:51.365,17.7501,25.8751
11:55:51.375,22.5626,35.3751
11:55:51.385,28.2501,43.7502
11:55:51.395,33.6876,52.5627
11:55:51.405,37.0001,58.5002
11:55:51.415,40.1252,62.5627
11:55:51.425,41.3127,66.6878
11:55:51.436,43.0627,67.9378
11:55:51.445,43.3752,69.9378
11:55:51.456,43.6252,68.8128
11:55:51.465,44.0627,69.1253
11:55:51.475,43.9377,68.5628
11:55:51.486,42.6877,66.0628
11:55:51.495,41.6252,65.5628
11:55:51.505,39.9377,61.5002
11:55:51.515,37.8751,60.1252
11:55:51.525,35.5626,55.6877
11:55:51.535,33.1251,52.2502
11:55:51.545,29.8126,48.3752
11:55:51.555,27.4376,44.3127
11:55:51.565,26.6876,40.1252
11:55:51.575,24.7501,36.3751
11:55:51.585,24.5626,34.0001
11:55:51.595,25.3751,32.1251
11:55:51.605,25.3751,29.5626
11:55:51.615,25.6251,28.5626
11:55:51.625,26.9376,27.6876
11:55:51.644,27.6251,25.5626
11:55:51.650,27.8126,25.6876
11:55:51.665,28.0626,24.3751
11:55:51.668,28.0001,22.5626
11:55:51.675,26.6876,20.0626
11:55:51.686,25.3126,17.7501
11:55:51.695,23.9376,14.8126
11:55:51.705,21.0626,10.6875
11:55:51.715,17.5626,6.4375
11:55:51.726,15.1876,2.6875
11:55:51.735,12.875,-2.5625
11:55:51.746,9.625,-6.6875
11:55:51.755,6.3125,-11.1875
11:55:51.792,2.75,-16.9376
11:55:51.794,-1.25,-22.1251
11:55:51.829,-5.1875,-27.5001
11:55:51.832,-9,-32.1876
11:55:51.836,-13.6876,-37.6251
11:55:51.840,-17.7501,-43.5002
11:55:51.840,-22.1251,-49.3752
11:55:51.840,-26.6251,-52.0627
11:55:51.847,-28.6876,-57.5002
11:55:51.881,-32.2501,-61.8127
11:55:51.881,-35.4376,-65.2502
11:55:51.886,-38.7501,-67.8128
11:55:51.886,-40.4377,-71.0628
11:55:51.917,-40.9377,-71.8128
11:55:51.920,-40.7502,-72.5628
11:55:51.923,-40.8752,-70.6878
11:55:51.952,-39.3751,-71.8128
11:55:51.954,-38.9376,-70.7503
11:55:51.956,-38.6876,-71.3753
11:55:51.962,-37.8126,-70.0628
11:55:51.970,-35.6251,-70.9378
11:55:51.980,-35.8751,-70.4378
11:55:51.991,-38.8751,-71.6878
11:55:52.024,-42.1877,-75.2503
11:55:52.025,-45.1252,-77.1878
11:55:52.029,-46.1252,-77.1878
11:55:52.035,-47.1877,-78.5003
11:55:52.042,-47.2502,-78.3753
11:55:52.050,-47.6252,-76.3753
11:55:52.060,-46.2502,-76.5628
11:55:52.070,-46.5627,-75.3753
11:55:52.081,-47.5002,-76.5003
11:55:52.090,-47.1877,-76.4378
11:55:52.101,-46.8127,-76.5003
11:55:52.110,-45.3752,-75.0003
11:55:52.120,-44.8752,-73.6878
11:55:52.130,-42.8127,-72.5628
11:55:52.140,-41.1252,-70.5003
11:55:52.150,-38.8126,-69.3753
11:55:52.161,-36.2501,-66.5628
11:55:52.171,-33.8751,-66.1878
11:55:52.180,-29.8751,-62.9377
11:55:52.190,-28.1876,-62.3752
11:55:52.200,-25.7501,-60.7502
11:55:52.210,-24.5626,-58.3752
11:55:52.220,-22.9376,-58.8752
11:55:52.230,-21.6251,-57.1252
11:55:52.240,-20.3126,-56.8752
11:55:52.251,-18.3126,-54.8752
11:55:52.261,-15.5001,-50.3752
11:55:52.270,-11.5625,-45.9377
11:55:52.281,-6.6875,-38.2501
11:55:52.291,-2.4375,-31.5001
11:55:52.300,3.625,-21.8126
11:55:52.310,7.5625,-13.6876
11:55:52.326,12.6875,-5.5625
11:55:52.330,16.1251,2.4375
11:55:52.340,19.3751,7.5625
11:55:52.351,21.7501,14.0001
11:55:52.360,23.1251,16.7501
11:55:52.370,23.2501,19.3751
11:55:52.380,23.5001,20.8751
11:55:52.390,22.4376,20.5001
11:55:52.400,21.7501,20.2501
11:55:52.410,20.6251,19.1876
11:55:52.420,19.6251,17.3751
11:55:52.430,18.0001,15.7501
11:55:52.441,16.7501,12.25
11:55:52.450,14.3126,9.5
11:55:52.461,12.9375,5.8125
11:55:52.470,9.625,1.875
11:55:52.480,6.5625,-2.3125
11:55:52.495,4,-6.5625
11:55:52.500,0.3125,-11.3125
11:55:52.527,-3.75,-15.1876
11:55:52.534,-6.9375,-20.5626
11:55:52.534,-10.75,-24.6876
11:55:52.542,-14.1876,-29.7501
11:55:52.580,-17.5001,-33.0001
11:55:52.583,-20.5626,-36.3751
11:55:52.585,-22.7501,-39.3127
11:55:52.590,-23.2501,-39.6877
11:55:52.592,-23.8126,-39.0002
11:55:52.622,-23.6251,-38.0626
11:55:52.625,-22.3751,-36.3126
11:55:52.626,-21.3751,-34.1251
11:55:52.632,-19.1876,-30.6876
11:55:52.660,-17.0626,-29.0626
11:55:52.661,-15.6251,-25.5626
11:55:52.666,-12.3125,-24.1251
11:55:52.670,-10.125,-19.5626
11:55:52.683,-7.75,-18.3751
11:55:52.691,-8,-16.6251
11:55:52.701,-12.5,-17.9376
11:55:52.711,-18.1876,-20.7501
11:55:52.720,-21.0001,-22.5001
11:55:52.730,-21.8751,-23.2501
11:55:52.740,-22.4376,-22.0626
11:55:52.750,-22.3126,-23.1251
11:55:52.760,-22.0626,-22.5001
11:55:52.770,-21.8751,-20.7501
11:55:52.780,-21.3751,-21.8126
11:55:52.790,-21.2501,-21.9376
11:55:52.801,-22.5626,-22.6251
11:55:52.810,-23.3751,-23.0001
11:55:52.820,-23.0626,-23.8126
11:55:52.830,-23.9376,-22.1876
11:55:52.840,-23.1251,-23.8751
11:55:52.850,-21.1876,-23.3126
11:55:52.860,-19.3126,-21.0626
11:55:52.870,-16.6251,-19.5626
11:55:52.880,-13.6251,-18.0626
11:55:52.892,-10.8125,-16.0626
11:55:52.900,-8.875,-14.6876
11:55:52.910,-5.5625,-13.6251
11:55:52.920,-2.5625,-12
11:55:52.930,-2.4375,-11.1875
11:55:52.946,-2.25,-13.0625
11:55:52.961,-1.875,-13.8751
11:55:52.966,-2,-13.6876
11:55:52.975,-2.8125,-16.5001
11:55:52.985,-3.25,-17.0001
11:55:52.995,-4.875,-17.6876
11:55:53.005,-5.375,-21.0626
11:55:53.015,-5.8125,-23.0626
11:55:53.026,-8.25,-25.6251
11:55:53.035,-9.6875,-28.1876
11:55:53.045,-11.0625,-29.8126
11:55:53.055,-12.125,-33.7501
11:55:53.065,-14.3126,-36.2501
11:55:53.088,-16.5001,-40.0002
11:55:53.091,-18.5626,-43.0002
11:55:53.105,-22.3751,-45.5627
11:55:53.109,-24.3126,-50.2502
11:55:53.115,-26.4376,-52.4377
11:55:53.126,-28.5626,-57.0627
11:55:53.137,-29.9376,-59.5627
11:55:53.144,-30.1876,-61.3752
11:55:53.155,-31.3751,-63.2502
11:55:53.164,-32.8751,-66.0003
11:55:53.175,-34.0001,-69.5628
11:55:53.184,-36.6251,-72.7503
11:55:53.194,-38.6251,-75.7503
11:55:53.208,-41.3752,-78.6253
11:55:53.245,-43.6252,-81.1878
11:55:53.247,-44.1877,-82.3753
11:55:53.249,-43.4377,-79.5628
11:55:53.252,-41.5002,-76.0628
11:55:53.255,-38.1251,-69.5003
11:55:53.292,-33.1251,-61.3752
11:55:53.297,-28.5001,-52.3127
11:55:53.297,-23.2501,-42.9377
11:55:53.325,-18.1251,-32.5001
11:55:53.328,-11.4375,-21.6251
11:55:53.329,-7.25,-12.4375
11:55:53.334,-2.4375,-3.8125
11:55:53.336,1.1875,4
11:55:53.345,4.1875,9.3125
11:55:53.381,7.1875,13.1876
11:55:53.384,10,18.3126
11:55:53.386,12.5625,20.6876
11:55:53.389,14.9376,23.8751
11:55:53.395,16.8126,24.5626
11:55:53.405,15.3126,24.2501
11:55:53.413,9.8125,21.4376
11:55:53.423,2.5,16.1876
11:55:53.435,1.1875,13.5001
11:55:53.444,-1.125,13
11:55:53.453,-1.375,12.5
11:55:53.463,-2.6875,12.1875
11:55:53.473,-1.9375,10.75
11:55:53.484,-2.75,10.625
11:55:53.493,-3.6875,9.0625
11:55:53.504,-4.3125,8.3125
11:55:53.515,-5.25,7.3125
11:55:53.525,-6.0625,6.875
11:55:53.534,-6.6875,7.4375
11:55:53.543,-5.5625,8.75
11:55:53.554,-4.3125,10.4375
11:55:53.563,-1.5,13.5001
11:55:53.573,1.5625,16.3751
11:55:53.585,5.625,22.1251
11:55:53.594,10.25,26.7501
11:55:53.605,15.5626,33.4376
11:55:53.614,21.1251,38.5001
11:55:53.625,26.3126,43.9377
11:55:53.633,31.0001,48.7502
11:55:53.643,35.0626,53.2502
11:55:53.655,37.8126,56.5627
11:55:53.663,40.3752,58.8752
11:55:53.675,40.8127,59.1877
11:55:53.685,41.1877,60.4377
11:55:53.694,40.3127,57.9377
11:55:53.705,39.8752,57.6252
11:55:53.713,38.5001,54.5627
11:55:53.725,36.6876,52.6877
11:55:53.734,34.0626,48.1252
11:55:53.743,31.5001,44.3752
11:55:53.755,29.7501,41.3127
11:55:53.763,26.0001,37.0001
11:55:53.775,23.5626,32.3751
11:55:53.783,20.3126,28.3126
11:55:53.794,17.1251,22.8751
11:55:53.805,14.6251,17.5001
11:55:53.813,10.4375,13.2501
11:55:53.825,7.3125,7.1875
11:55:53.835,3.75,3.75
11:55:53.844,1.6875,-0.375
11:55:53.853,-1.1875,-4.8125
11:55:53.866,-3,-7.3125
11:55:53.873,-4.3125,-11.8125
11:55:53.885,-6.8125,-15.0626
11:55:53.899,-8.5625,-19.1876
11:55:53.904,-11.25,-22.9376
11:55:53.941,-14.8751,-26.5626
11:55:53.945,-17.1251,-31.6876
11:55:53.948,-19.8126,-34.1876
11:55:53.953,-20.6876,-37.6251
11:55:53.954,-22.7501,-39.5627
11:55:53.995,-25.3126,-41.0627
11:55:53.997,-27.1876,-44.7502
11:55:53.999,-29.8751,-47.5627
11:55:54.002,-32.4376,-49.2502
11:55:54.006,-34.1251,-51.3752
11:55:54.031,-35.6876,-52.7502
11:55:54.034,-37.7501,-53.7502
11:55:54.036,-38.9376,-55.1877
11:55:54.064,-39.8127,-56.8127
11:55:54.065,-40.1877,-56.7502
11:55:54.067,-40.0002,-57.3752
11:55:54.074,-39.5002,-57.1252
11:55:54.083,-38.2501,-55.5002
11:55:54.094,-36.5001,-55.9377
11:55:54.104,-33.6876,-54.6252
11:55:54.113,-32.3126,-53.3127
11:55:54.123,-33.3126,-52.1877
11:55:54.134,-36.0626,-52.0627
11:55:54.143,-33.6251,-46.8127
11:55:54.153,-28.8126,-39.6252
11:55:54.163,-22.1251,-29.0001
11:55:54.175,-15.3751,-16.6876
11:55:54.184,-7.5625,-6.375
11:55:54.194,-0.3125,6.6875
11:55:54.205,6.1875,17.4376
11:55:54.213,13,27.8126
11:55:54.225,16.8126,36.0626
11:55:54.241,20.0001,42.8752
11:55:54.247,22.9376,48.5627
11:55:54.255,24.4376,53.0627
11:55:54.263,26.5626,56.1877
11:55:54.278,26.0626,58.0627
11:55:54.287,26.8751,58.4377
11:55:54.295,26.3126,59.5627
11:55:54.305,26.3126,58.6252
11:55:54.314,25.5626,58.8127
11:55:54.324,25.0001,57.9377
11:55:54.334,25.7501,57.1252
11:55:54.344,25.0001,55.9377
11:55:54.354,25.2501,54.8127
11:55:54.364,25.8126,54.0627
11:55:54.384,25.1876,52.1877
11:55:54.390,25.9376,51.5627
11:55:54.401,27.2501,50.8127
11:55:54.403,27.9376,50.5627
11:55:54.420,29.3751,50.5002
11:55:54.425,30.0626,48.8127
11:55:54.440,30.2501,48.4377
11:55:54.447,31.0001,48.5002
11:55:54.455,32.0626,47.4377
11:55:54.464,32.6876,48.0002
11:55:54.474,32.6876,46.6877
11:55:54.484,32.2501,46.4377
11:55:54.494,32.8126,46.5002
11:55:54.504,31.8751,46.3752
11:55:54.514,31.3126,45.6877
11:55:54.524,30.8751,44.7502
11:55:54.536,29.8126,43.4377
11:55:54.544,28.3126,41.6877
11:55:54.553,26.9376,38.6876
11:55:54.583,25.0626,36.3126
11:55:54.585,23.3751,33.8751
11:55:54.588,20.8751,30.3751
11:55:54.603,18.7501,28.1876
11:55:54.606,17.0001,23.8751
11:55:54.614,15.3751,21.6251
11:55:54.627,13.5001,18.5626
11:55:54.635,11.75,14.5626
11:55:54.645,10.375,11.1875
11:55:54.653,8.0625,6.8125
11:55:54.663,5.3125,3.125
11:55:54.674,1.9375,-2.125
11:55:54.683,-2.3125,-7
11:55:54.693,-6.625,-11.3125
11:55:54.703,-9.875,-16.7501
11:55:54.747,-12.875,-20.1251
11:55:54.749,-15.5626,-23.3126
11:55:54.754,-18.4376,-27.3126
11:55:54.754,-21.3126,-29.2501
11:55:54.757,-22.8126,-32.6251
11:55:54.789,-24.8751,-35.1876
11:55:54.790,-26.8751,-36.4376
11:55:54.792,-28.1876,-39.1877
11:55:54.797,-30.1876,-40.3127
11:55:54.825,-31.1251,-41.4377
11:55:54.828,-30.8751,-42.5627
11:55:54.831,-30.5001,-43.8752
11:55:54.834,-29.7501,-42.8752
11:55:54.868,-28.1876,-43.2502
11:55:54.872,-26.0626,-42.3127
11:55:54.874,-25.2501,-41.7502
11:55:54.876,-28.0001,-44.0627
11:55:54.892,-32.3126,-46.6877
11:55:54.895,-37.2501,-50.0002
11:55:54.904,-38.4376,-51.0002
11:55:54.913,-38.4376,-51.8752
11:55:54.924,-38.6876,-51.7502
11:55:54.934,-38.3126,-51.6252
11:55:54.944,-38.0626,-50.6877
11:55:54.953,-37.3751,-51.3127
11:55:54.963,-37.6251,-49.8752
11:55:54.974,-37.5626,-50.0002
11:55:54.983,-37.7501,-50.6877
11:55:54.993,-37.8751,-50.5002
11:55:55.003,-37.6876,-50.0627
11:55:55.014,-37.5626,-50.2502
11:55:55.024,-36.5001,-48.5002
11:55:55.033,-33.9376,-45.4377
11:55:55.044,-29.9376,-38.8751
11:55:55.056,-25.1251,-29.8751
11:55:55.064,-17.2501,-20.0001
11:55:55.074,-8.8125,-6.5
11:55:55.083,0.375,6.6875
11:55:55.093,11.75,21.8126
11:55:55.103,23.8126,38.0001
11:55:55.116,34.8126,52.1877
11:55:55.125,45.5627,66.0003
11:55:55.134,53.3752,78.3753
11:55:55.144,59.9377,86.1253
11:55:55.153,64.0002,93.8754
11:55:55.165,66.4378,96.3754
11:55:55.174,67.3128,99.0004
11:55:55.183,67.3128,98.4379
11:55:55.195,66.1253,98.6879
11:55:55.203,65.0002,95.3129
11:55:55.214,63.5002,93.3129
11:55:55.223,60.0627,89.5003
11:55:55.233,57.7502,84.4378
11:55:55.243,54.8127,80.6878
11:55:55.254,52.0002,74.9378
11:55:55.263,48.5627,70.0628
11:55:55.273,44.3752,64.5627
11:55:55.283,40.1252,58.8752
11:55:55.295,36.5626,53.3752
11:55:55.304,32.1876,47.4377
11:55:55.313,27.8751,42.0627
11:55:55.323,24.3751,36.3751
11:55:55.333,21.1251,32.6876
11:55:55.343,20.0626,29.6876
11:55:55.353,18.8751,26.8751
11:55:55.367,18.2501,25.0001
11:55:55.396,16.0001,23.0626
11:55:55.399,14.5001,20.6876
11:55:55.401,13.4376,19.6251
11:55:55.404,12.625,19.5626
11:55:55.436,12.5,20.0001
11:55:55.439,10.5,19.8126
11:55:55.441,9.4375,19.1876
11:55:55.444,8.9375,19.3126
11:55:55.476,8.5625,19.8126
11:55:55.478,8.5625,20.1251
11:55:55.480,8.125,21.6876
11:55:55.484,8.1875,21.3126
11:55:55.521,7.25,22.5001
11:55:55.525,6.75,21.0626
11:55:55.525,5.3125,20.5626
11:55:55.526,4.1875,19.3751
11:55:55.544,3.8125,18.6251
11:55:55.546,5.125,18.2501
11:55:55.564,3.6875,16.5626
11:55:55.566,1,15.7501
11:55:55.577,-3.5625,12.625
11:55:55.583,-4.9375,9.875
11:55:55.599,-6.3125,9.5
11:55:55.606,-6.25,8.0625
11:55:55.614,-7.9375,6.5
11:55:55.624,-8.8125,6.875
11:55:55.633,-10.0625,4.875
11:55:55.643,-10.75,2.6875
11:55:55.653,-11.9375,0.9375
11:55:55.663,-11.875,0.5
11:55:55.673,-13.8126,-0.875
11:55:55.683,-13.5626,-1.375
11:55:55.693,-12.8125,-0.4375
11:55:55.709,-12.5625,-0.875
11:55:55.718,-12.375,-0.5625
11:55:55.725,-12.8125,-0.875
11:55:55.740,-12.1875,-1
11:55:55.757,-12.1875,-1.5625
11:55:55.758,-12.0625,-1.0625
11:55:55.763,-11,-1.5625
11:55:55.773,-11.0625,-1.9375
11:55:55.784,-11.0625,-0.4375
11:55:55.796,-10.375,-1.375
11:55:55.806,-10.5,0
11:55:55.813,-10.0625,-0.6875
11:55:55.823,-9.875,-2
11:55:55.833,-9.9375,-1.5625
11:55:55.864,-9.9375,-2.4375
11:55:55.866,-10,-3.25
11:55:55.869,-10.9375,-4.3125
11:55:55.875,-13.1876,-5.4375
11:55:55.886,-14.6251,-8.3125
11:55:55.894,-16.3751,-9.625
11:55:55.904,-17.4376,-11.0625
11:55:55.913,-16.9376,-11.875
11:55:55.923,-17.8126,-12.5
11:55:55.933,-16.5626,-11.25
11:55:55.943,-16.0001,-12.375
11:55:55.953,-15.6876,-11.6875
11:55:55.964,-16.2501,-13.5626
11:55:55.973,-16.6251,-13
11:55:55.984,-15.8126,-13.6251
11:55:55.993,-14.6876,-11.25
11:55:56.003,-11.6875,-7.625
11:55:56.013,-8.3125,-1.8125
11:55:56.023,-3.875,6.125
11:55:56.033,2.125,15.4376
11:55:56.043,8.125,25.9376
11:55:56.053,15.6251,38.3751
11:55:56.064,22.6251,49.5627
11:55:56.073,28.5626,60.5002
11:55:56.082,33.6251,68.1878
11:55:56.093,37.3751,76.6878
11:55:56.102,40.1252,80.5003
11:55:56.113,41.9377,85.1253
11:55:56.123,42.5627,87.6253
11:55:56.133,43.8127,89.6253
11:55:56.143,43.8127,89.8128
11:55:56.178,43.4377,89.3128
11:55:56.180,42.7502,88.6878
11:55:56.182,41.9377,87.7503
11:55:56.185,40.2502,85.6253
11:55:56.215,38.8751,83.9378
11:55:56.217,37.6251,82.5628
11:55:56.221,36.6251,80.3128
11:55:56.223,34.8126,77.1253
11:55:56.263,33.4376,75.0003
11:55:56.265,32.0626,71.7503
11:55:56.268,30.8126,68.6878
11:55:56.273,29.3126,66.1253
11:55:56.273,27.8126,64.1877
11:55:56.301,26.0001,62.2502
11:55:56.304,26.0001,60.6252
11:55:56.306,25.4376,60.6252
11:55:56.313,25.6251,61.3127
11:55:56.330,26.8751,61.1252
11:55:56.334,27.2501,62.9377
11:55:56.344,29.6876,65.1877
11:55:56.354,30.1251,67.7503
11:55:56.362,31.7501,70.0003
11:55:56.373,33.3751,71.0628
11:55:56.383,34.6251,73.5003
11:55:56.392,35.2501,74.5003
11:55:56.403,36.2501,76.5628
11:55:56.413,36.5001,77.6878
11:55:56.423,36.9376,77.8128
11:55:56.432,36.5626,77.4378
11:55:56.443,35.6876,76.5628
11:55:56.454,35.1251,75.5628
11:55:56.463,34.3751,73.8128
11:55:56.476,33.1251,72.0003
11:55:56.484,32.0626,70.4378
11:55:56.492,31.1251,67.8128
11:55:56.503,29.2501,66.0628
11:55:56.512,27.2501,62.3752
11:55:56.523,26.6876,60.3127
11:55:56.533,24.8751,58.0627
11:55:56.544,23.2501,55.0002
11:55:56.553,22.5001,52.0627
11:55:56.564,20.0001,50.0002
11:55:56.573,19.0626,46.8752
11:55:56.582,17.2501,44.1877
11:55:56.593,16.1251,41.8127
11:55:56.602,14.8126,39.8752
11:55:56.613,12.9375,36.6876
11:55:56.622,12.25,34.3751
11:55:56.632,10.625,33.5626
11:55:56.642,10.5625,30.1251
11:55:56.653,8.625,28.6251
11:55:56.665,7.8125,26.8126
11:55:56.674,6.3125,24.8751
11:55:56.685,6.0625,22.4376
11:55:56.692,4,20.5626
11:55:56.705,3.75,18.1876
11:55:56.712,1.875,17.2501
11:55:56.722,1.75,14.1251
11:55:56.734,0.75,13.1251
11:55:56.742,-0.1875,12.5
11:55:56.754,-0.625,10.0625
11:55:56.763,-1,9.125
11:55:56.775,-1.875,7.375
11:55:56.783,-3,7.3125
11:55:56.792,-3.0625,5.625
11:55:56.803,-3.125,5.9375
11:55:56.813,-2.5,5.9375
11:55:56.822,-0.4375,9.25
11:55:56.832,2.9375,12.9375
11:55:56.843,7.3125,20.3751
11:55:56.875,13.2501,28.6251
11:55:56.979,18.2501,38.2501
11:55:56.979,24.5001,49.3127
11:55:56.983,30.8751,59.0002
11:55:56.984,36.7501,69.1253
11:55:56.989,41.5627,77.7503
11:55:56.992,45.5627,85.8753
11:55:56.992,48.5627,90.3754
11:55:56.994,50.4377,95.8129
11:55:57.021,51.4377,97.3129
11:55:57.024,52.1877,98.5629
11:55:57.041,51.4377,99.0004
11:55:57.055,50.9377,97.5004
11:55:57.058,49.0627,95.9379
11:55:57.073,47.3752,92.9379
11:55:57.074,46.0627,90.7504
11:55:57.088,44.6252,87.8753
11:55:57.091,42.5002,86.0003
11:55:57.097,40.8752,82.2503
11:55:57.107,38.7501,79.1878
11:55:57.117,37.1251,76.3128
11:55:57.143,34.3751,72.8128
11:55:57.146,32.9376,68.2503
11:55:57.149,30.1251,65.6253
11:55:57.158,31.2501,62.3127
11:55:57.167,26.9376,59.5627
11:55:57.177,27.3126,60.0002
11:55:57.188,28.8126,62.7502
11:55:57.197,29.8126,64.1877
11:55:57.207,30.8126,64.8752
11:55:57.218,31.1876,65.1877
11:55:57.227,31.7501,66.1878
11:55:57.238,32.0001,66.0628
11:55:57.248,31.3126,66.2503
11:55:57.258,30.8126,64.7502
11:55:57.267,29.8751,64.3127
11:55:57.277,29.1251,62.4377
11:55:57.287,27.5001,60.7502
11:55:57.297,27.0626,58.5002
11:55:57.307,25.0001,56.3752
11:55:57.318,23.3751,52.9377
11:55:57.327,21.5626,50.1252
11:55:57.337,20.3126,47.3752
11:55:57.348,18.5001,44.2502
11:55:57.357,17.0001,42.1877
11:55:57.367,14.9376,38.9376
11:55:57.378,14.6876,36.3126
11:55:57.389,11.875,33.2501
11:55:57.399,10.5625,29.7501
11:55:57.413,8,26.7501
11:55:57.420,7.1875,24.4376
11:55:57.427,5.0625,21.5626
11:55:57.437,4,18.4376
11:55:57.447,1.8125,15.6251
11:55:57.458,0.75,13.1876
11:55:57.467,-1,11.5
11:55:57.477,-1.1875,9.625
11:55:57.487,-2.8125,7.3125
11:55:57.497,-4.9375,5.3125
11:55:57.508,-4.6875,3.4375
11:55:57.517,-6.5625,1.6875
11:55:57.527,-6.9375,-0.6875
11:55:57.537,-7.6875,-1.8125
11:55:57.547,-8.5625,-3.375
11:55:57.584,-9.4375,-4.4375
11:55:57.585,-9.5,-6.1875
11:55:57.588,-11.375,-7.375
11:55:57.590,-12,-9.6875
11:55:57.632,-13.0625,-11.0625
11:55:57.635,-13.4376,-12.5625
11:55:57.636,-14.5001,-14.0626
11:55:57.640,-15.5001,-15.6251
11:55:57.643,-16.0001,-16.8126
11:55:57.648,-17.1876,-18.3126
11:55:57.684,-17.7501,-19.5001
11:55:57.687,-18.2501,-21.0626
11:55:57.689,-18.5001,-22.3126
11:55:57.691,-18.8751,-22.8751
11:55:57.698,-19.6876,-22.1876
11:55:57.728,-17.6251,-21.3751
11:55:57.730,-14.5626,-17.3126
11:55:57.733,-11,-10.5625
11:55:57.741,-4.6875,-2.5
11:55:57.749,2,9.5625
11:55:57.760,9.4375,22.0001
11:55:57.768,16.0001,32.5001
11:55:57.777,23.5001,45.8127
11:55:57.789,29.6251,55.8752
11:55:57.797,34.8126,65.7503
11:55:57.807,38.7501,72.9378
11:55:57.818,42.4377,79.0003
11:55:57.828,43.2502,82.3753
11:55:57.839,44.4377,85.1253
11:55:57.847,44.0627,86.3128
11:55:57.857,43.3752,85.8753
11:55:57.867,42.5627,83.8753
11:55:57.877,41.7502,83.1878
11:55:57.887,39.8127,81.0003
11:55:57.897,39.3751,79.0628
11:55:57.907,36.5001,76.3128
11:55:57.917,35.5626,73.7503
11:55:57.927,33.8126,70.9378
11:55:57.939,32.2501,69.1253
11:55:57.948,31.0001,66.2503
11:55:57.958,29.2501,62.8127
11:55:57.967,27.5001,60.3752
11:55:57.977,25.9376,57.7502
11:55:57.987,24.3126,54.4377
11:55:57.998,22.8126,52.3752
11:55:58.007,21.5626,49.8752
11:55:58.017,21.2501,48.7502
11:55:58.027,20.2501,47.4377
11:55:58.038,20.9376,47.0002
11:55:58.048,20.3126,47.0002
11:55:58.057,20.4376,47.9377
11:55:58.067,22.0001,47.6877
11:55:58.077,21.3126,50.1252
11:55:58.087,22.8751,50.1252
11:55:58.097,23.3751,52.3127
11:55:58.107,23.7501,53.5627
11:55:58.119,24.5626,53.0627
11:55:58.127,25.0626,54.1252
11:55:58.137,24.8126,53.5002
11:55:58.147,23.9376,53.3127
11:55:58.164,23.4376,52.9377
11:55:58.167,23.2501,50.6252
11:55:58.178,21.0001,49.7502
11:55:58.187,20.2501,46.6877
11:55:58.197,18.3751,45.6252
11:55:58.207,17.9376,42.4377
11:55:58.217,15.5001,41.1877
11:55:58.227,14.2501,37.0001
11:55:58.242,12.6875,35.2501
11:55:58.259,11.5,31.7501
11:55:58.261,8.9375,29.1251
11:55:58.277,7.625,25.0626
11:55:58.294,5.6875,22.3126
11:55:58.298,4,19.6876
11:55:58.298,2.5,16.8751
11:55:58.308,0.0625,13.5001
11:55:58.317,-1.25,10.625
11:55:58.327,-2.4375,7.625
11:55:58.337,-4.25,5.0625
11:55:58.376,-5.875,2.875
11:55:58.378,-6.5,0.4375
11:55:58.447,-7.5625,-1.375
11:55:58.449,-8.9375,-3.1875
11:55:58.463,-10.375,-6.125
11:55:58.465,-11.75,-7.8125
11:55:58.469,-12,-9.25
11:55:58.469,-12.625,-10.6875
11:55:58.472,-13.6876,-11.8125
11:55:58.505,-15.0626,-13.5001
11:55:58.507,-15.3126,-15.0626
11:55:58.510,-15.3751,-15.9376
11:55:58.512,-16.3751,-16.2501
11:55:58.530,-16.3751,-17.8126
11:55:58.532,-17.6251,-19.0626
11:55:58.546,-17.3751,-20.1876
11:55:58.553,-18.7501,-21.2501
11:55:58.564,-19.8751,-21.5626
11:55:58.573,-19.6876,-23.7501
11:55:58.583,-20.4376,-24.6251
11:55:58.592,-21.9376,-26.0001
11:55:58.602,-22.8126,-27.3126
11:55:58.612,-23.3126,-29.0001
11:55:58.624,-23.5626,-30.8751
11:55:58.634,-29.4376,-39.0001
11:55:58.643,-29.4376,-38.4376
11:55:58.652,-27.5626,-38.5626
11:55:58.663,-25.9376,-33.8751
11:55:58.672,-20.9376,-28.4376
11:55:58.682,-15.5001,-19.7501
11:55:58.693,-9.875,-9.5625
11:55:58.704,-2.75,1.1875
11:55:58.714,4.3125,14.0001
11:55:58.722,11.25,24.7501
11:55:58.732,17.7501,36.4376
11:55:58.742,22.3751,46.4377
11:55:58.752,26.7501,52.4377
11:55:58.763,30.2501,58.7502
11:55:58.775,31.4376,62.5627
11:55:58.784,32.9376,64.6252
11:55:58.793,32.6251,66.0003
11:55:58.802,32.0001,64.3127
11:55:58.812,31.0001,63.8752
11:55:58.822,29.4376,63.4377
11:55:58.832,28.2501,59.6877
11:55:58.842,26.4376,57.4377
11:55:58.853,24.2501,54.6252
11:55:58.862,23.0626,52.1252
11:55:58.872,21.8126,49.0627
11:55:58.882,20.3126,48.5002
11:55:58.893,18.8751,45.2502
11:55:58.902,17.0001,42.8127
11:55:58.912,16.1876,40.4377
11:55:58.922,13.9376,37.6876
11:55:58.932,13.0625,34.7501
11:55:58.943,11.3125,32.2501
11:55:58.955,11.1875,31.3751
11:55:58.963,10.75,29.8126
11:55:58.972,10.8125,29.9376
11:55:58.982,11.4375,30.1876
11:55:58.992,12,31.6876
11:55:59.002,12.875,32.3751
11:55:59.013,14.1876,34.1251
11:55:59.024,15.3751,36.0001
11:55:59.032,16.4376,38.2501
11:55:59.043,17.2501,39.5627
11:55:59.052,18.0626,40.8127
11:55:59.062,18.3751,41.5627
11:55:59.072,18.1251,41.8127
11:55:59.083,18.4376,41.5627
11:55:59.097,17.6251,41.4377
11:55:59.102,16.6876,40.1252
11:55:59.138,16.0626,38.8751
11:55:59.140,14.8751,37.0001
11:55:59.142,14.3126,35.8126
11:55:59.145,12.5,33.0626
11:55:59.178,11.125,31.1251
11:55:59.179,10.25,28.6876
11:55:59.184,8,25.9376
11:55:59.186,7.0625,23.5001
11:55:59.191,4.75,21.1251
11:55:59.230,3.5,18.0001
11:55:59.232,2.0625,15.1251
11:55:59.235,0.3125,13.0625
11:55:59.240,-1.1875,9.375
11:55:59.242,-3,7.75
11:55:59.270,-3.9375,4.75
11:55:59.273,-5.6875,3.25
11:55:59.275,-6.5,-0.625
11:55:59.283,-8.5,-1.875
11:55:59.296,-10.0625,-5
11:55:59.302,-11,-7.875
11:55:59.312,-12.125,-9.625
11:55:59.322,-13.3751,-11.0625
11:55:59.331,-14.3126,-13.2501
11:55:59.342,-15.5626,-16.0626
11:55:59.353,-16.3126,-17.2501
11:55:59.364,-17.1876,-20.2501
11:55:59.373,-18.0001,-21.1876
11:55:59.381,-18.8126,-22.6876
11:55:59.393,-20.1251,-24.2501
11:55:59.402,-21.1251,-25.3751
11:55:59.412,-21.0001,-26.0001
11:55:59.423,-21.6876,-28.2501
11:55:59.432,-22.1876,-27.7501
11:55:59.441,-22.6876,-29.0626
11:55:59.452,-22.5001,-29.7501
11:55:59.462,-21.5626,-27.3126
11:55:59.472,-19.5001,-24.7501
11:55:59.482,-14.7501,-19.6251
11:55:59.495,-10.5,-11.4375
11:55:59.501,-5.0625,-3.625
11:55:59.512,1.5,7.3125
11:55:59.521,8,17.2501
11:55:59.532,14.5001,28.5626
11:55:59.542,20.0001,37.9376
11:55:59.560,23.8126,45.3127
11:55:59.565,27.0626,51.3752
11:55:59.578,29.3751,56.5002
11:55:59.593,30.1876,60.1252
11:55:59.596,30.4376,59.8752
11:55:59.605,30.2501,59.7502
11:55:59.613,28.5626,58.9377
11:55:59.621,27.1876,56.3127
11:55:59.632,26.3126,54.6877
11:55:59.641,23.9376,51.7502
11:55:59.652,21.8751,49.6252
11:55:59.661,20.5626,45.9377
11:55:59.677,17.8126,43.5627
11:55:59.703,16.4376,39.8752
11:55:59.704,14.3126,35.7501
11:55:59.706,12.3125,33.8126
11:55:59.713,11.1875,29.6876
11:55:59.729,8.875,25.8126
11:55:59.732,6.1875,22.2501
11:55:59.748,4.9375,19.8126
11:55:59.763,3.0625,16.8751
11:55:59.765,2.6875,14.8126
11:55:59.780,1.625,13.9376
11:55:59.782,2.0625,12.8125
11:55:59.791,1.875,13
11:55:59.802,2.6875,13.3751
11:55:59.811,2.9375,14.5626
11:55:59.822,4.9375,16.0001
11:55:59.852,5.125,18.5001
11:55:59.855,6.5,19.1876
11:55:59.857,6.8125,20.8751
11:55:59.863,7.8125,21.7501
11:55:59.892,7.8125,21.5626
11:55:59.895,8,22.3126
11:55:59.897,7.5625,22.2501
11:55:59.903,7.25,20.3126
11:55:59.936,6.75,19.5001
11:55:59.938,6.0625,18.3751
11:55:59.940,4.625,17.3126
11:55:59.965,3.875,15.7501
11:55:59.966,3,12.9375
11:55:59.969,0.5625,10.375
11:55:59.973,-0.5625,7.8125
11:56:00.009,-2.6875,5.6875
11:56:00.011,-3.4375,2.4375
11:56:00.018,-5.875,0.375
11:56:00.019,-6.9375,-2.1875
11:56:00.022,-8.5625,-5.75
11:56:00.032,-9.6875,-8.0625
11:56:00.041,-11.625,-11.0625
11:56:00.055,-13.3126,-12.5
11:56:00.061,-14.5626,-16.3126
11:56:00.071,-15.5626,-17.9376
11:56:00.082,-17.1251,-20.9376
11:56:00.092,-18.5626,-22.6251
11:56:00.101,-20.0626,-24.3126
11:56:00.113,-21.1876,-26.6876
11:56:00.121,-21.8751,-28.3751
11:56:00.131,-22.6251,-30.3751
11:56:00.141,-23.6876,-30.8126
11:56:00.151,-24.1251,-33.1251
11:56:00.163,-24.6876,-33.5001
11:56:00.173,-25.0626,-35.5001
11:56:00.181,-25.5001,-35.8751
11:56:00.191,-25.9376,-37.3751
11:56:00.201,-25.8126,-38.3126
11:56:00.212,-27.5626,-38.3751
11:56:00.221,-28.0626,-40.9377
11:56:00.233,-28.2501,-41.4377
11:56:00.244,-29.7501,-41.7502
11:56:00.251,-30.0001,-44.0627
11:56:00.261,-30.5001,-45.2502
11:56:00.272,-31.6876,-46.3127
11:56:00.281,-32.1251,-48.0002
11:56:00.291,-32.4376,-49.0002
11:56:00.301,-33.6251,-49.8752
11:56:00.312,-33.7501,-51.5002
11:56:00.324,-34.0626,-52.2502
11:56:00.331,-35.5626,-53.1877
11:56:00.341,-35.2501,-54.3127
11:56:00.352,-34.8751,-54.0627
11:56:00.362,-34.6251,-51.7502
11:56:00.371,-32.1876,-49.8127
11:56:00.381,-27.6251,-44.0002
11:56:00.391,-22.6876,-34.8126
11:56:00.402,-15.8126,-25.1876
11:56:00.411,-8.5,-12.625
11:56:00.421,-1,-0.75
11:56:00.436,6.9375,12.1875
11:56:00.442,13.9376,24.4376
11:56:00.452,19.3751,33.8126
11:56:00.462,24.0626,42.2502
11:56:00.471,26.7501,48.8752
11:56:00.488,29.0626,53.6877
11:56:00.512,29.5001,54.8127
11:56:00.515,29.1251,56.5627
11:56:00.517,28.8126,55.6877
11:56:00.523,28.1251,55.8752
11:56:00.556,27.0626,53.0002
11:56:00.560,25.5626,51.7502
11:56:00.562,23.6876,48.3127
11:56:00.565,22.1251,46.5627
11:56:00.571,20.7501,43.8752
11:56:00.601,19.3751,41.6252
11:56:00.604,18.5001,39.1251
11:56:00.607,16.1876,36.6876
11:56:00.612,14.7501,34.2501
11:56:00.643,13.9376,32.6876
11:56:00.645,12.25,30.5001
11:56:00.647,11,27.8751
11:56:00.653,9.5,25.1251
11:56:00.664,8.1875,22.7501
11:56:00.672,8.0625,22.6876
11:56:00.681,7.375,21.0626
11:56:00.691,7.625,20.7501
11:56:00.703,8,20.6876
11:56:00.711,8.8125,21.8126
11:56:00.721,8.75,23.3751
11:56:00.731,10.125,24.1876
11:56:00.741,10.5625,25.8126
11:56:00.753,11.6875,26.1251
11:56:00.761,12.4375,27.1876
11:56:00.771,13.2501,28.0626
11:56:00.781,13.3751,29.0626
11:56:00.791,13.6876,29.2501
11:56:00.803,13.7501,29.3751
11:56:00.813,12.875,28.6876
11:56:00.821,11.4375,28.0001
11:56:00.831,11.0625,25.9376
11:56:00.842,9.75,23.9376
11:56:00.853,8.625,22.0626
11:56:00.861,6.8125,20.1876
11:56:00.877,5.5,17.4376
11:56:00.883,3.8125,15.4376
11:56:00.892,3.375,12.9375
11:56:00.901,0.625,10.1875
11:56:00.916,0.25,7.125
11:56:00.924,-2.5625,5.1875
11:56:00.931,-3.5,1.625
11:56:00.941,-5.4375,-0.75
11:56:00.951,-6.9375,-3.5
11:56:00.983,-8.5625,-6.0625
11:56:00.985,-10,-8.6875
11:56:00.987,-11.5625,-11.5625
11:56:00.991,-12,-14.3126
11:56:01.001,-13.125,-15.6251
11:56:01.011,-14.7501,-17.6876
11:56:01.021,-14.8126,-19.8126
11:56:01.031,-17.0001,-20.8751
11:56:01.046,-17.8751,-22.6876
11:56:01.056,-18.5626,-24.5001
11:56:01.061,-19.1251,-26.0626
11:56:01.079,-19.5001,-27.3751
11:56:01.087,-20.7501,-28.3751
11:56:01.096,-20.5626,-29.5001
11:56:01.106,-20.8126,-30.1876
11:56:01.116,-21.7501,-30.4376
11:56:01.126,-22.4376,-32.8751
11:56:01.136,-22.7501,-32.2501
11:56:01.146,-23.4376,-34.5626
11:56:01.157,-23.5001,-35.2501
11:56:01.166,-24.0626,-35.2501
11:56:01.176,-25.6251,-37.1251
11:56:01.186,-25.9376,-38.1876
11:56:01.196,-26.0001,-38.8751
11:56:01.223,-27.1876,-41.1877
11:56:01.226,-27.0626,-41.5627
11:56:01.228,-28.5001,-42.0627
11:56:01.261,-29.3751,-43.7502
11:56:01.263,-29.0626,-44.6252
11:56:01.266,-29.4376,-45.0627
11:56:01.269,-30.3751,-46.3127
11:56:01.310,-29.8126,-45.8127
11:56:01.313,-28.2501,-44.4377
11:56:01.316,-26.0001,-40.0002
11:56:01.320,-21.3126,-34.9376
11:56:01.321,-16.6251,-25.4376
11:56:01.351,-9.6875,-16.0001
11:56:01.354,-3.1875,-3.75
11:56:01.356,4.125,6.9375
11:56:01.359,10.8125,18.1251
11:56:01.385,17.0626,28.9376
11:56:01.387,21.7501,37.4376
11:56:01.390,25.5001,44.3752
11:56:01.400,28.0626,49.0002
11:56:01.407,29.1251,52.5002
11:56:01.416,29.1876,53.6877
11:56:01.426,28.5001,53.5627
11:56:01.436,27.6251,52.9377
11:56:01.446,26.5001,51.1877
11:56:01.458,24.8751,48.3752
11:56:01.466,22.9376,46.6877
11:56:01.476,21.5001,43.5627
11:56:01.486,19.3751,40.7502
11:56:01.497,17.7501,38.1251
11:56:01.506,16.5626,35.2501
11:56:01.516,14.6876,31.9376
11:56:01.526,13.3751,30.7501
11:56:01.536,11.5,27.1876
11:56:01.546,9.9375,24.6876
11:56:01.562,8.5,21.5001
11:56:01.567,6.8125,19.1251
11:56:01.576,5.875,17.1251
11:56:01.586,5.0625,15.0626
11:56:01.600,4.0625,15.2501
11:56:01.606,4.875,14.2501
11:56:01.616,5.5,16.0001
11:56:01.626,6.4375,15.7501
11:56:01.639,7.5,18.3751
11:56:01.646,8.75,19.1251
11:56:01.656,10.375,21.0626
11:56:01.667,11.375,22.9376
11:56:01.678,11.25,24.6251
11:56:01.686,13.125,25.6251
11:56:01.696,12.375,26.4376
11:56:01.706,12.5625,26.6251
11:56:01.717,12,25.1876
11:56:01.726,11.125,24.8126
11:56:01.736,10.5625,23.5626
11:56:01.746,9.375,22.6251
11:56:01.756,8.5625,19.8751
11:56:01.766,6.9375,18.4376
11:56:01.776,6.3125,15.9376
11:56:01.786,4.125,14.3751
11:56:01.796,3.3125,11.25
11:56:01.807,1.3125,9
11:56:01.816,-0.3125,6.6875
11:56:01.826,-1.625,3.1875
11:56:01.836,-3.1875,1.3125
11:56:01.846,-4.1875,-2
11:56:01.858,-6.0625,-3.75
11:56:01.866,-7.625,-7.375
11:56:01.876,-9,-8.1875
11:56:01.886,-10.3125,-11.4375
11:56:01.896,-11.5,-12.25
11:56:01.907,-13,-16.7501
11:56:01.916,-14.3126,-17.8126
11:56:01.926,-15.2501,-21.1251
11:56:01.955,-16.2501,-21.3751
11:56:01.957,-17.5626,-24.3126
11:56:01.960,-18.5001,-25.5001
11:56:01.966,-19.4376,-28.2501
11:56:01.996,-20.1251,-29.6251
11:56:01.999,-21.3126,-31.3126
11:56:02.002,-21.6876,-32.8126
11:56:02.006,-23.1876,-33.2501
11:56:02.035,-23.9376,-36.0001
11:56:02.037,-23.9376,-36.5626
11:56:02.040,-25.0626,-37.7501
11:56:02.046,-25.1251,-38.7501
11:56:02.079,-25.8126,-39.6252
11:56:02.082,-26.0626,-41.0002
11:56:02.084,-25.4376,-40.1877
11:56:02.087,-25.1251,-37.8126
11:56:02.117,-22.2501,-35.0001
11:56:02.120,-17.8126,-29.8126
11:56:02.126,-12.375,-21.1251
11:56:02.127,-6.25,-11.125
11:56:02.137,0.125,0.4375
11:56:02.146,7.375,11.25
11:56:02.156,13.8751,23.6876
11:56:02.166,19.9376,33.3126
11:56:02.178,24.3751,43.1877
11:56:02.186,28.1876,49.1252
11:56:02.201,30.4376,54.0627
11:56:02.210,31.8751,56.6252
11:56:02.217,31.6251,58.8752
11:56:02.232,31.9376,58.0627
11:56:02.239,30.9376,57.9377
11:56:02.265,29.4376,55.1877
11:56:02.267,27.4376,53.4377
11:56:02.270,25.7501,49.8752
11:56:02.276,24.0001,47.7502
11:56:02.287,22.4376,44.5002
11:56:02.296,20.4376,42.0627
11:56:02.306,19.1251,38.4376
11:56:02.317,17.0626,36.3126
11:56:02.327,15.8126,33.3751
11:56:02.336,14.0001,29.9376
11:56:02.346,12.0625,27.0626
11:56:02.364,10,24.4376
11:56:02.367,9.0625,20.5626
11:56:02.381,7.4375,18.8751
11:56:02.396,6.1875,15.9376
11:56:02.399,5.25,15.1251
11:56:02.409,4.8125,13.1251
11:56:02.416,4,12.25
11:56:02.425,3.875,12.9375
11:56:02.436,5.5,13
11:56:02.446,5.875,15.7501
11:56:02.457,7.3125,16.0626
11:56:02.467,7.5625,18.1876
11:56:02.477,9,18.8126
11:56:02.486,9.0625,20.5626
11:56:02.496,10.125,20.6876
11:56:02.508,9.625,21.4376
11:56:02.515,9.875,20.5626
11:56:02.526,9.0625,19.8126
11:56:02.536,8.25,19.5626
11:56:02.545,7.5,17.5626
11:56:02.556,6.25,16.3751
11:56:02.566,5.125,14.6876
11:56:02.576,3.3125,11.375
11:56:02.585,2.3125,9.4375
11:56:02.596,0.75,7
11:56:02.606,-1.1875,5.625
11:56:02.618,-2.875,1.5
11:56:02.626,-4.0625,-1.375
11:56:02.636,-5.4375,-3.25
11:56:02.646,-7.5625,-6.25
11:56:02.658,-8.875,-8.4375
11:56:02.665,-10.1875,-12.3125
11:56:02.678,-11.625,-14.2501
11:56:02.713,-12.5,-16.0626
11:56:02.714,-14.7501,-18.8126
11:56:02.716,-15.3751,-21.2501
11:56:02.719,-17.3751,-22.8126
11:56:02.755,-17.9376,-25.1251
11:56:02.758,-18.9376,-26.8126
11:56:02.760,-20.1876,-28.2501
11:56:02.762,-20.5626,-30.8751
11:56:02.767,-22.1876,-31.8126
11:56:02.803,-22.5626,-34.0001
11:56:02.805,-23.5001,-35.0001
11:56:02.807,-23.8126,-36.5626
11:56:02.811,-24.9376,-36.0626
11:56:02.817,-24.9376,-38.6876
11:56:02.855,-24.8126,-39.0001
11:56:02.859,-24.5626,-38.0626
11:56:02.860,-25.4376,-39.2502
11:56:02.863,-25.6251,-40.5002
11:56:02.867,-26.0626,-41.1252
11:56:02.882,-27.3751,-43.0002
11:56:02.887,-27.8126,-43.3127
11:56:02.895,-28.3751,-44.8127
11:56:02.907,-28.7501,-45.9377
11:56:02.915,-29.4376,-46.8127
11:56:02.926,-30.3126,-48.5002
11:56:02.937,-31.1876,-48.5002
11:56:02.946,-31.3751,-50.5627
11:56:02.955,-31.8751,-51.3752
11:56:02.966,-31.9376,-52.3127
11:56:02.978,-33.1251,-53.8752
11:56:02.986,-33.4376,-54.0627
11:56:02.995,-34.3126,-55.9377
11:56:03.006,-33.4376,-55.6877
11:56:03.015,-32.0001,-53.9377
11:56:03.026,-28.8751,-48.6252
11:56:03.036,-24.6251,-42.8127
11:56:03.045,-18.1251,-31.8126
11:56:03.056,-10.9375,-21.6876
11:56:03.065,-2.6875,-8.25
11:56:03.076,4.4375,5.25
11:56:03.088,12.4375,19.1876
11:56:03.095,18.9376,29.9376
11:56:03.105,25.0001,40.8127
11:56:03.115,29.3126,48.5002
11:56:03.129,31.5001,53.6252
11:56:03.135,33.0626,57.1877
11:56:03.146,33.6251,59.1877
11:56:03.157,33.5626,59.8752
11:56:03.165,32.5001,59.5627
11:56:03.175,32.0001,57.5627
11:56:03.185,29.6876,55.0627
11:56:03.195,27.7501,53.8127
11:56:03.205,26.5001,50.1252
11:56:03.216,24.7501,48.6877
11:56:03.227,23.5626,45.6877
11:56:03.235,21.8751,43.3127
11:56:03.245,20.9376,40.7502
11:56:03.256,19.2501,37.6876
11:56:03.266,17.5626,36.8126
11:56:03.275,17.0001,32.9376
11:56:03.285,14.8751,31.5001
11:56:03.298,14.0626,28.4376
11:56:03.305,12.1875,26.3751
11:56:03.315,11.375,24.5626
11:56:03.328,11.0625,23.0626
11:56:03.335,10.5,22.6251
11:56:03.345,10.3125,21.9376
11:56:03.355,10.625,22.6876
11:56:03.365,11.4375,22.5001
11:56:03.382,12.5625,25.3751
11:56:03.386,13.4376,26.1876
11:56:03.423,14.7501,28.3751
11:56:03.425,15.1876,28.5001
11:56:03.427,15.5626,29.9376
11:56:03.429,16.1876,31.3126
11:56:03.435,15.8126,31.0001
11:56:03.479,15.6876,30.2501
11:56:03.479,16.1876,30.1876
11:56:03.481,16.1876,29.1876
11:56:03.508,14.1251,28.2501
11:56:03.508,13.3751,26.1876
11:56:03.509,11.4375,24.5001
11:56:03.512,11,22.3126
11:56:03.516,9,20.4376
11:56:03.545,7.875,16.9376
11:56:03.559,5.875,14.7501
11:56:03.561,4.1875,12.1875
11:56:03.576,2.625,8.75
11:56:03.577,0.75,6.25
11:56:03.591,-0.9375,3.75
11:56:03.594,-2.375,0.25
11:56:03.597,-3.125,-2.125
11:56:03.605,-5.0625,-5.25
11:56:03.615,-7.0625,-6.8125
11:56:03.625,-8.625,-9.3125
11:56:03.639,-9.875,-12.25
11:56:03.645,-11.25,-14.5001
11:56:03.656,-12.3125,-16.2501
11:56:03.665,-13.5001,-19.0001
11:56:03.681,-14.0001,-21.3126
11:56:03.698,-15.3126,-23.1251
11:56:03.700,-16.9376,-23.8751
11:56:03.715,-17.1876,-26.0626
11:56:03.717,-17.3751,-27.6251
11:56:03.735,-17.7501,-28.1251
11:56:03.736,-19.0001,-30.4376
11:56:03.745,-19.6251,-30.6876
11:56:03.755,-19.6876,-31.4376
11:56:03.766,-20.1876,-32.3126
11:56:03.775,-20.3751,-32.6876
11:56:03.785,-20.7501,-33.6251
11:56:03.795,-21.5001,-35.1251
11:56:03.805,-21.9376,-35.8126
11:56:03.815,-22.4376,-37.1251
11:56:03.825,-22.9376,-37.3126
11:56:03.835,-23.8126,-39.2502
11:56:03.845,-24.5626,-39.8127
11:56:03.856,-24.5626,-40.7502
11:56:03.865,-25.6876,-41.8127
11:56:03.875,-26.7501,-41.8127
11:56:03.885,-26.3751,-44.0002
11:56:03.897,-27.5626,-44.8752
11:56:03.905,-27.6251,-46.0627
11:56:03.915,-28.6251,-46.3127
11:56:03.927,-29.4376,-47.7502
11:56:03.936,-29.7501,-48.8752
11:56:03.945,-29.6876,-49.6252
11:56:03.956,-29.8126,-49.5002
11:56:03.965,-28.3751,-47.8752
11:56:03.975,-25.1876,-44.0002
11:56:03.985,-21.0001,-36.8751
11:56:03.995,-15.7501,-28.3126
11:56:04.005,-8.5625,-18.0626
11:56:04.015,-0.9375,-5.3125
11:56:04.025,6.5625,6.8125
11:56:04.035,13.5001,19.8751
11:56:04.045,20.1251,31.0626
11:56:04.057,25.0001,40.1877
11:56:04.065,29.1251,48.1877
11:56:04.075,31.6876,53.8752
11:56:04.087,33.0001,55.8752
11:56:04.095,33.0626,58.1877
11:56:04.105,32.7501,57.5627
11:56:04.133,31.8751,57.0002
11:56:04.135,30.6251,55.6252
11:56:04.137,28.9376,52.6877
11:56:04.145,26.7501,49.8127
11:56:04.172,25.2501,46.6877
11:56:04.173,22.6876,44.0002
11:56:04.178,20.8126,39.9377
11:56:04.205,19.9376,37.5626
11:56:04.208,17.3126,34.5001
11:56:04.216,15.2501,31.3126
11:56:04.216,14.3126,28.5626
11:56:04.250,11.6875,25.1876
11:56:04.252,10,21.9376
11:56:04.255,8.6875,19.0001
11:56:04.260,7.375,16.6251
11:56:04.265,5.9375,15.7501
11:56:04.291,6.1875,14.5626
11:56:04.293,6.4375,14.0001
11:56:04.295,7.625,14.3126
11:56:04.305,7.875,15.0626
11:56:04.315,9.375,17.1251
11:56:04.327,10.0625,18.6251
11:56:04.335,11.375,20.8751
11:56:04.345,13,23.1876
11:56:04.356,13.1251,23.6876
11:56:04.365,14.1251,25.5001
11:56:04.375,13.8751,26.0626
11:56:04.390,14.8126,26.3126
11:56:04.395,14.1251,26.2501
11:56:04.405,13.3751,25.8126
11:56:04.416,13.1876,24.5626
11:56:04.425,11.875,22.0001
11:56:04.435,11.125,21.0001
11:56:04.445,9.3125,19.5001
11:56:04.455,8.125,17.0626
11:56:04.465,6.3125,14.8751
11:56:04.476,5.3125,11.875
11:56:04.485,3.3125,9.875
11:56:04.495,2.4375,6.625
11:56:04.505,0.125,4.875
11:56:04.515,-1.125,1
11:56:04.525,-2.5625,-1.625
11:56:04.535,-4.1875,-4.3125
11:56:04.545,-5.9375,-6.8125
11:56:04.555,-7.125,-10.125
11:56:04.565,-8.625,-12.3125
11:56:04.575,-10.25,-13.8751
11:56:04.585,-10.9375,-16.4376
11:56:04.595,-12.625,-17.8126
11:56:04.607,-13.5001,-20.6876
11:56:04.615,-14.3751,-23.7501
11:56:04.625,-16.3126,-24.9376
11:56:04.635,-16.5001,-27.2501
11:56:04.645,-17.8751,-29.3751
11:56:04.656,-19.0001,-30.0626
11:56:04.665,-19.5001,-32.9376
11:56:04.675,-21.3126,-34.0626
11:56:04.685,-21.6876,-36.8126
11:56:04.695,-23.1876,-37.4376
11:56:04.705,-23.4376,-39.6877
11:56:04.715,-24.5626,-40.2502
11:56:04.725,-24.6876,-42.2502
11:56:04.735,-25.0626,-42.0002
11:56:04.745,-25.6876,-44.2502
11:56:04.755,-26.3751,-43.5627
11:56:04.765,-26.1251,-44.7502
11:56:04.775,-25.8751,-43.8752
11:56:04.785,-23.1876,-41.7502
11:56:04.795,-19.9376,-36.0626
11:56:04.823,-15.1251,-29.5001
11:56:04.825,-8.9375,-19.0001
11:56:04.827,-1.5,-8.375
11:56:04.835,5.625,4.3125
11:56:04.845,13,17.3126
11:56:04.862,20.3126,28.5001
11:56:04.878,25.4376,39.5627
11:56:04.880,30.3751,47.7502
11:56:04.888,33.6876,55.1877
11:56:04.917,35.3751,59.5627
11:56:04.919,36.6251,60.7502
11:56:04.922,35.8126,63.1877
11:56:04.926,35.7501,61.2502
11:56:04.963,34.0626,60.5627
11:56:04.966,32.5001,57.9377
11:56:04.968,31.1251,55.1252
11:56:05.024,28.8126,52.5002
11:56:05.025,26.8751,47.6877
11:56:05.027,24.8126,45.6877
11:56:05.034,22.3126,41.6877
11:56:05.035,20.8751,38.7501
11:56:05.035,19.0626,35.9376
11:56:05.041,17.3126,31.9376
11:56:05.071,14.9376,28.6876
11:56:05.074,13.5001,25.8126
11:56:05.076,11.3125,22.0626
11:56:05.080,9.25,19.6876
11:56:05.097,8.25,16.1251
11:56:05.105,7,14.5001
11:56:05.116,6.625,13.8751
11:56:05.125,6.3125,12.0625
11:56:05.142,6.375,12.125
11:56:05.146,6.875,13.3751
11:56:05.155,7.9375,14.5626
11:56:05.165,9.8125,15.6876
11:56:05.176,9.625,17.1251
11:56:05.185,11.0625,18.7501
11:56:05.195,11.5625,20.6251
11:56:05.205,13.1876,24.3126
11:56:05.215,13.5001,23.2501
11:56:05.225,12.625,23.8126
11:56:05.235,11.8125,22.3751
11:56:05.245,11.6875,20.5001
11:56:05.255,9.25,19.5001
11:56:05.265,8.5625,17.6251
11:56:05.277,7.25,14.0626
11:56:05.285,6.0625,11.875
11:56:05.296,4.25,9.3125
11:56:05.305,2.625,5.9375
11:56:05.315,0.75,3.6875
11:56:05.330,-0.8125,0.5625
11:56:05.341,-2.3125,-2
11:56:05.350,-3.625,-4.25
11:56:05.360,-5.5,-7.9375
11:56:05.372,-8.3125,-10.125
11:56:05.380,-8.8125,-13.7501
11:56:05.390,-10.125,-16.7501
11:56:05.402,-12.125,-19.5001
11:56:05.410,-14.0001,-21.6251
11:56:05.420,-14.6251,-24.3126
11:56:05.430,-16.0626,-27.0001
11:56:05.440,-18.0626,-29.5626
11:56:05.450,-18.7501,-30.2501
11:56:05.460,-19.5626,-33.3751
11:56:05.470,-21.1251,-35.3126
11:56:05.480,-22.0626,-34.9376
11:56:05.492,-22.6876,-38.3751
11:56:05.500,-23.8126,-39.6877
11:56:05.512,-24.1876,-41.6877
11:56:05.520,-25.2501,-41.7502
11:56:05.530,-25.3126,-44.0627
11:56:05.541,-26.1251,-43.6252
11:56:05.550,-26.1251,-45.1877
11:56:05.560,-27.3751,-45.5002
11:56:05.570,-27.0626,-47.1877
11:56:05.581,-27.3751,-47.2502
11:56:05.612,-28.6251,-49.3752
11:56:05.615,-29.1876,-49.5627
11:56:05.618,-29.0001,-51.2502
11:56:05.621,-30.8126,-51.8127
11:56:05.654,-30.9376,-53.6877
11:56:05.656,-31.8751,-54.2502
11:56:05.659,-32.6251,-55.4377
11:56:05.661,-32.8751,-56.4377
11:56:05.696,-33.5001,-58.1877
11:56:05.697,-34.5001,-59.6877
11:56:05.700,-35.0001,-60.0002
11:56:05.705,-35.6876,-60.4377
11:56:05.710,-36.0001,-62.1252
11:56:05.743,-35.8126,-61.1877
11:56:05.745,-33.5001,-59.6877
11:56:05.747,-30.7501,-54.1252
11:56:05.750,-24.6251,-47.6877
11:56:05.761,-18.4376,-36.5626
11:56:05.770,-10.8125,-24.0001
11:56:05.782,-2.3125,-10.5
11:56:05.790,7.1875,4.5625
11:56:05.799,14.8126,19.0626
11:56:05.810,22.7501,33.0001
11:56:05.819,28.6876,43.4377
11:56:05.830,33.3126,51.6252
11:56:05.840,36.8751,58.7502
11:56:05.849,38.1876,63.5002
11:56:05.863,39.4377,65.6878
11:56:05.869,38.8751,67.2503
11:56:05.879,38.5626,66.3128
11:56:05.893,36.8126,63.8752
11:56:05.900,35.4376,62.0627
11:56:05.908,33.3751,58.7502
11:56:05.920,31.7501,56.0002
11:56:05.930,29.5626,53.7502
11:56:05.938,27.4376,49.8127
11:56:05.950,26.3751,46.3752
11:56:05.958,24.7501,44.0002
11:56:05.969,22.3126,40.5627
11:56:05.980,20.9376,38.1251
11:56:05.990,19.6251,35.3751
11:56:06.000,17.7501,32.0626
11:56:06.010,16.2501,29.5001
11:56:06.019,14.5626,27.1251
11:56:06.030,13.6876,24.6876
11:56:06.040,12.9375,23.5001
11:56:06.050,12.375,22.0001
11:56:06.060,11.9375,22.1251
11:56:06.069,12.75,21.3126
11:56:06.104,12.9375,23.5626
11:56:06.105,14.5626,23.8126
11:56:06.107,14.7501,25.1251
11:56:06.111,15.4376,27.0626
11:56:06.118,17.1251,28.8751
11:56:06.130,18.1876,30.1251
11:56:06.139,18.1251,30.7501
11:56:06.156,18.4376,32.3751
11:56:06.161,17.5626,31.7501
11:56:06.177,17.3751,32.4376
11:56:06.180,18.2501,32.7501
11:56:06.189,18.0626,32.1251
11:56:06.200,19.0001,33.1251
11:56:06.211,19.0001,34.3751
11:56:06.219,18.1251,33.3751
11:56:06.228,18.2501,32.1876
11:56:06.240,18.0001,31.5001
11:56:06.249,18.0001,31.4376
11:56:06.259,17.7501,30.3751
11:56:06.269,16.5626,27.6876
11:56:06.279,15.7501,24.8751
11:56:06.301,14.8751,23.0626
11:56:06.304,12.9375,19.3751
11:56:06.321,11.75,16.6251
11:56:06.322,11.4375,15.3751
11:56:06.337,10.0625,12.25
11:56:06.339,9.125,7.4375
11:56:06.373,5.5,1.625
11:56:06.375,3,-1.5625
11:56:06.378,0.625,-7.125
11:56:06.380,-1.75,-12.0625
11:56:06.410,-4.75,-16.4376
11:56:06.411,-7.125,-21.1876
11:56:06.414,-9.5,-26.1251
11:56:06.420,-11.5625,-29.8751
11:56:06.453,-13.1876,-32.7501
11:56:06.456,-13.1251,-36.1876
11:56:06.458,-14.3751,-39.3127
11:56:06.461,-15.8126,-43.0002
11:56:06.497,-17.5626,-45.5002
11:56:06.508,-19.5001,-49.5627
11:56:06.508,-21.5626,-55.1252
11:56:06.508,-24.1876,-59.4377
11:56:06.514,-29.0001,-66.6878
11:56:06.519,-40.5002,-82.1253
11:56:06.528,-54.5627,-99.8129
11:56:06.538,-61.5002,-110.1879
11:56:06.548,-59.3127,-112.7504
11:56:06.559,-57.8752,-109.9379
11:56:06.569,-60.0002,-109.2504
11:56:06.580,-58.1252,-108.2504
11:56:06.589,-52.6252,-102.7504
11:56:06.599,-46.8752,-96.3754
11:56:06.609,-41.5627,-91.5629
11:56:06.620,-37.2501,-85.6253
11:56:06.631,-34.6876,-81.6253
11:56:06.646,-34.5001,-80.5003
11:56:06.648,-38.1251,-79.3753
11:56:06.659,-40.1877,-81.0003
11:56:06.669,-41.3752,-79.8753
11:56:06.679,-41.3752,-78.5003
11:56:06.689,-41.8752,-78.8128
11:56:06.700,-41.9377,-78.1253
11:56:06.710,-39.5002,-78.6253
11:56:06.719,-35.2501,-75.0628
11:56:06.729,-31.6876,-71.6878
11:56:06.739,-28.3126,-68.8128
11:56:06.748,-24.8751,-64.2502
11:56:06.760,-22.3126,-58.6252
11:56:06.769,-18.2501,-51.2502
11:56:06.779,-12.625,-41.1252
11:56:06.791,-7.25,-32.6876
11:56:06.799,-7.1875,-28.9376
11:56:06.809,-12.875,-34.0001
11:56:06.821,-17.1876,-37.0001
11:56:06.828,-18.0626,-34.8126
11:56:06.839,-15.9376,-32.1876
11:56:06.849,-10.5,-25.5001
11:56:06.859,-1.75,-13.9376
11:56:06.871,10.4375,-1.9375
11:56:06.878,21.9376,10.25
11:56:06.889,28.9376,19.8751
11:56:06.899,32.5001,24.7501
11:56:06.908,31.4376,28.3751
11:56:06.919,28.3751,27.2501
11:56:06.928,22.4376,24.1251
11:56:06.939,16.1251,20.6876
11:56:06.949,12.4375,18.0626
11:56:06.959,8.1875,15.0001
11:56:06.969,4.875,12.0625
11:56:06.979,3.3125,8.875
11:56:06.989,2.6875,5.4375
11:56:06.999,2.5625,1.8125
11:56:07.008,4.0625,0.8125
11:56:07.019,3.4375,-3
11:56:07.029,0.75,-7.3125
11:56:07.039,-3.375,-13.5626
11:56:07.048,-8.4375,-20.5001
11:56:07.059,-11.8125,-23.8751
11:56:07.068,-13.3751,-25.8126
11:56:07.079,-14.4376,-27.5001
11:56:07.089,-17.6251,-30.7501
11:56:07.099,-20.8751,-36.0626
11:56:07.111,-25.5626,-41.7502
11:56:07.148,-27.8126,-47.0002
11:56:07.149,-29.4376,-48.5627
11:56:07.152,-24.5626,-45.5002
11:56:07.154,-13.2501,-33.8751
11:56:07.160,7.3125,-16.3751
11:56:07.184,27.3126,4.75
11:56:07.188,35.7501,18.5001
11:56:07.189,33.5001,23.8126
11:56:07.225,29.1251,20.6251
11:56:07.228,25.9376,18.7501
11:56:07.230,20.0626,14.0001
11:56:07.233,17.0001,10.1875
11:56:07.239,12.5,8.375
11:56:07.269,7.1875,5.75
11:56:07.271,2,2.4375
11:56:07.274,-0.25,1.125
11:56:07.279,-0.5,-0.0625
11:56:07.289,-1.8125,-2.375
11:56:07.299,-4.375,-4.875
11:56:07.308,-7.8125,-9
11:56:07.319,-11,-13
11:56:07.329,-13.9376,-18.1876
11:56:07.339,-14.8126,-20.7501
11:56:07.349,-14.3751,-24.0626
11:56:07.361,-16.3126,-29.1251
11:56:07.384,-20.3126,-36.2501
11:56:07.386,-24.7501,-42.9377
11:56:07.392,-29.6251,-50.7502
11:56:07.400,-34.1251,-56.4377
11:56:07.412,-36.3751,-62.6877
11:56:07.419,-39.8127,-68.0628
11:56:07.429,-45.0627,-74.8753
11:56:07.438,-49.4377,-85.3128
11:56:07.455,-55.8127,-92.8129
11:56:07.471,-60.8752,-101.5629
11:56:07.476,-63.3752,-105.6254
11:56:07.481,-58.1252,-102.7504
11:56:07.490,-46.6252,-94.8754
11:56:07.500,-32.0626,-81.7503
11:56:07.509,-24.0001,-70.5628
11:56:07.518,-24.6876,-65.5003
11:56:07.530,-26.8126,-65.6253
11:56:07.540,-28.6876,-64.3752
11:56:07.549,-30.2501,-64.6252
11:56:07.558,-31.0626,-64.1877
11:56:07.570,-33.4376,-61.0627
11:56:07.578,-31.8751,-56.9377
11:56:07.597,-26.0001,-47.3127
11:56:07.601,-17.1251,-33.8126
11:56:07.618,-7.625,-17.0001
11:56:07.620,1.1875,-3.9375
11:56:07.629,8.25,9.9375
11:56:07.638,14.3751,19.9376
11:56:07.651,19.5001,30.0001
11:56:07.659,23.3126,35.7501
11:56:07.669,26.2501,41.0627
11:56:07.679,26.1251,43.1877
11:56:07.688,25.7501,42.9377
11:56:07.699,24.3126,42.6877
11:56:07.708,23.0001,39.3751
11:56:07.719,20.9376,36.6251
11:56:07.729,15.6876,29.3751
11:56:07.738,9.8125,17.6251
11:56:07.749,1.1875,6.875
11:56:07.759,-6.3125,-4.3125
11:56:07.769,-10.5625,-9.3125
11:56:07.785,-8.6875,-8.75
11:56:07.788,-0.5625,-4.375
11:56:07.800,12.5,6.375
11:56:07.809,22.1251,15.1251
11:56:07.819,22.8751,18.5626
11:56:07.829,17.8126,16.5001
11:56:07.850,10,12.3125
11:56:07.852,3.0625,8.4375
11:56:07.883,-2.25,4.5625
11:56:07.886,-4.0625,3.9375
11:56:07.889,-3.375,2.875
11:56:07.891,-2.1875,6.0625
11:56:07.921,1.5625,7.6875
11:56:07.925,2.8125,10
11:56:07.927,3.4375,9
11:56:07.929,5.125,9.3125
11:56:07.962,4.5625,9.4375
11:56:07.964,5.5,9.0625
11:56:07.966,5.3125,8.9375
11:56:07.971,4.9375,7.75
11:56:08.007,4.0625,7.3125
11:56:08.011,3.1875,6
11:56:08.014,3.25,3.625
11:56:08.016,1.375,2.625
11:56:08.019,-2.4375,-5.3125
11:56:08.029,-9,-14.9376
11:56:08.039,-15.1251,-27.0001
11:56:08.049,-24.3126,-38.0001
11:56:08.059,-31.7501,-45.1877
11:56:08.069,-31.3126,-45.0627
11:56:08.080,-21.7501,-37.3126
11:56:08.089,-7.3125,-25.6251
