timestamp,Red,IR
13:45:43.938,-0.375,0.9375
13:45:43.943,0.4688,-1.25
13:45:43.948,-0.5313,-2.6875
13:45:43.958,-1.125,-4.8125
13:45:43.967,-2.2813,-5.75
13:45:43.977,-2.5625,-7.6875
13:45:43.990,-3.3125,-9.875
13:45:43.999,-4.3125,-11.375
13:45:44.008,-5.2813,-12.6875
13:45:44.018,-5.6563,-16.6251
13:45:44.028,-6.1875,-18.5626
13:45:44.037,-7.375,-19.9376
13:45:44.047,-8.0625,-21.9376
13:45:44.058,-9.2188,-24.5001
13:45:44.067,-9.9063,-26.0626
13:45:44.077,-9.9063,-28.3126
13:45:44.089,-10.9063,-30.1876
13:45:44.097,-11.2188,-31.9376
13:45:44.107,-11.75,-32.5626
13:45:44.118,-12.6875,-33.9376
13:45:44.129,-12.7188,-35.7501
13:45:44.146,-13.5313,-37.1251
13:45:44.152,-14.2501,-37.6251
13:45:44.158,-14.4688,-38.9376
13:45:44.189,-15.1876,-39.0001
13:45:44.190,-15.6876,-40.1877
13:45:44.193,-15.3751,-41.3752
13:45:44.200,-16.0626,-41.0002
13:45:44.224,-15.5313,-42.5002
13:45:44.225,-16.2813,-42.6252
13:45:44.228,-16.9376,-43.5627
13:45:44.260,-16.7501,-43.8752
13:45:44.262,-17.0938,-44.2502
13:45:44.264,-17.0938,-44.7502
13:45:44.271,-17.4688,-44.8752
13:45:44.278,-17.0938,-45.0002
13:45:44.306,-17.5626,-43.9377
13:45:44.308,-17.1876,-44.6252
13:45:44.310,-16.9376,-44.0002
13:45:44.319,-16.6251,-42.8752
13:45:44.328,-16.0938,-40.5002
13:45:44.340,-14.1876,-35.2501
13:45:44.348,-11.3438,-28.0626
13:45:44.359,-6.625,-15.3751
13:45:44.367,-0.5938,1.375
13:45:44.399,4.375,16.6251
13:45:44.404,9.5625,27.9376
13:45:44.406,12.5313,35.8126
13:45:44.413,14.3438,40.3127
13:45:44.428,15.9376,45.0627
13:45:44.436,17.0626,46.8127
13:45:44.442,17.7813,48.0627
13:45:44.457,16.9688,47.4377
13:45:44.467,16.5313,45.3752
13:45:44.474,15.6876,44.3127
13:45:44.484,15.3126,41.7502
13:45:44.493,14.3126,41.1252
13:45:44.504,13.5938,38.7501
13:45:44.513,12.4688,36.1251
13:45:44.523,11.625,34.1251
13:45:44.533,11.3438,30.3126
13:45:44.542,9.3125,27.6251
13:45:44.553,7.2188,23.5001
13:45:44.563,6.0313,19.0626
13:45:44.572,4.4375,15.0001
13:45:44.583,3.375,12.1875
13:45:44.593,2.2813,8.5
13:45:44.603,1.0313,5.625
13:45:44.613,-0.1563,4
13:45:44.623,-0.375,1.8125
13:45:44.632,-1.1563,-0.9375
13:45:44.642,-2.1563,-2.75
13:45:44.655,-2.7813,-2.5625
13:45:44.664,-3.7188,-4.8125
13:45:44.673,-4,-7.0625
13:45:44.682,-4.2188,-7.1875
13:45:44.693,-3.9375,-8.6875
13:45:44.702,-5.25,-9.625
13:45:44.713,-5.875,-10.5625
13:45:44.724,-6.25,-12.875
13:45:44.733,-7,-15.2501
13:45:44.743,-8.2188,-16.1876
13:45:44.752,-7.9688,-18.6876
13:45:44.763,-8.9375,-20.6251
13:45:44.772,-10.1563,-21.4376
13:45:44.782,-10.125,-23.6876
13:45:44.792,-11.1563,-25.8126
13:45:44.804,-11.5313,-27.6251
13:45:44.813,-12.8438,-27.6876
13:45:44.822,-12.7188,-30.5001
13:45:44.832,-13.8126,-30.9376
13:45:44.842,-13.4376,-32.8126
13:45:44.852,-14.2813,-32.8751
13:45:44.863,-14.4688,-35.0626
13:45:44.873,-15.3126,-34.7501
13:45:44.883,-14.5313,-36.1251
13:45:44.893,-15.6876,-36.6251
13:45:44.903,-15.1251,-38.3126
13:45:44.913,-16.0001,-37.8126
13:45:44.933,-16.3126,-39.0626
13:45:44.940,-15.6251,-39.4377
13:45:44.947,-16.2188,-39.6252
13:45:44.954,-16.2501,-40.3127
13:45:44.988,-17.6563,-40.8752
13:45:44.990,-17.1251,-41.3127
13:45:44.992,-17.8126,-41.0002
13:45:44.999,-17.8438,-40.9377
13:45:45.006,-17.5938,-41.6877
13:45:45.013,-18.2188,-41.1252
13:45:45.044,-18.1251,-41.7502
13:45:45.047,-17.2188,-39.5002
13:45:45.049,-16.5626,-36.8751
13:45:45.054,-14.0938,-31.0626
13:45:45.086,-11.0938,-22.2501
13:45:45.088,-5.25,-7.4375
13:45:45.090,0.75,11.1875
13:45:45.110,7.1563,26.6251
13:45:45.111,11.5625,38.5001
13:45:45.115,15.1563,47.1877
13:45:45.124,19.0626,53.3752
13:45:45.133,20.3126,58.3752
13:45:45.143,21.9376,60.7502
13:45:45.153,21.6251,62.6252
13:45:45.162,22.1251,61.6252
13:45:45.173,22.1251,62.3752
13:45:45.183,21.5938,60.0002
13:45:45.192,21.2188,58.8127
13:45:45.203,20.0938,56.3127
13:45:45.213,20.0626,55.6877
13:45:45.223,19.1876,55.0002
13:45:45.233,19.3126,52.0627
13:45:45.243,17.7813,51.0627
13:45:45.253,17.3126,47.8127
13:45:45.264,15.4688,45.6252
13:45:45.274,14.5313,41.1252
13:45:45.283,13.0938,38.1876
13:45:45.293,11.4375,34.1251
13:45:45.304,10.375,29.8126
13:45:45.312,8.7813,26.3126
13:45:45.322,7.5313,22.8126
13:45:45.333,7,20.3126
13:45:45.343,5.5938,17.1876
13:45:45.354,4.4063,14.6251
13:45:45.362,3.4688,12.3125
13:45:45.375,3.4063,10.875
13:45:45.383,2.625,9.25
13:45:45.394,1.5,8.375
13:45:45.403,1.4063,6.5625
13:45:45.413,1.625,4.8125
13:45:45.423,0.0938,2.9375
13:45:45.433,-0.125,1.625
13:45:45.443,-0.7813,0.25
13:45:45.453,-1.5313,-2.4375
13:45:45.463,-2.375,-4.5
13:45:45.472,-2.8438,-5.8125
13:45:45.483,-3.5938,-8.625
13:45:45.494,-4.9688,-11.6875
13:45:45.503,-5.3125,-12.6875
13:45:45.513,-5.5313,-15.6251
13:45:45.522,-7.25,-17.5001
13:45:45.533,-8.1563,-18.8751
13:45:45.543,-8.5,-22.4376
13:45:45.553,-9.5938,-25.4376
13:45:45.588,-9.75,-26.0626
13:45:45.589,-9.9688,-28.4376
13:45:45.591,-11.375,-30.1876
13:45:45.593,-11.5938,-30.0001
13:45:45.605,-12.2188,-32.5001
13:45:45.614,-12.875,-32.8751
13:45:45.622,-12.875,-35.4376
13:45:45.633,-13.2501,-34.8751
13:45:45.642,-13.8438,-36.3751
13:45:45.653,-14.0001,-37.4376
13:45:45.663,-14.5313,-38.2501
13:45:45.701,-14.4063,-39.3127
13:45:45.702,-14.1876,-39.3752
13:45:45.704,-14.9063,-40.5002
13:45:45.707,-15.5001,-40.1877
13:45:45.714,-15.5626,-41.6252
13:45:45.753,-15.8438,-40.5002
13:45:45.754,-15.8751,-41.5002
13:45:45.758,-15.6251,-42.0002
13:45:45.788,-16.5938,-42.3127
13:45:45.791,-16.3126,-43.3752
13:45:45.872,-16.5313,-42.7502
13:45:45.874,-17.0001,-41.5627
13:45:45.875,-16.4063,-42.6252
13:45:45.875,-16.4688,-39.1251
13:45:45.875,-14.1563,-36.5626
13:45:45.878,-12.4063,-28.5626
13:45:45.892,-6.9688,-17.2501
13:45:45.900,-0.4063,-0.1875
13:45:45.908,5.8125,19.4376
13:45:45.917,12.6875,35.0626
13:45:45.928,16.1876,45.3752
13:45:45.938,19.8751,53.1252
13:45:45.948,22.7501,60.7502
13:45:45.957,24.2501,64.0002
13:45:45.967,25.7813,66.6878
13:45:45.979,25.3126,66.5003
13:45:45.987,25.8751,67.1878
13:45:45.998,25.2501,64.8127
13:45:46.007,24.7813,64.5627
13:45:46.018,24.7501,63.1877
13:45:46.028,23.7501,61.0627
13:45:46.039,21.3126,54.5002
13:45:46.048,20.3126,51.9377
13:45:46.057,18.5626,47.5627
13:45:46.069,16.6876,44.1877
13:45:46.078,15.2501,39.2502
13:45:46.088,14.0313,36.6251
13:45:46.098,12.8438,31.8751
13:45:46.108,11.4063,29.4376
13:45:46.119,9.8125,25.4376
13:45:46.128,9.0938,22.6251
13:45:46.138,7.5313,20.1251
13:45:46.148,7.125,17.0001
13:45:46.159,6.3125,15.1876
13:45:46.168,5.6875,12.875
13:45:46.178,4.8125,11.1875
13:45:46.188,3.5625,9.25
13:45:46.198,3.6875,7.0625
13:45:46.207,2.4688,5.875
13:45:46.218,2.1875,3.375
13:45:46.229,1.6563,0.6875
13:45:46.244,0.6563,-0.625
13:45:46.249,-0.1563,-2.8125
13:45:46.257,-1.2188,-5.8125
13:45:46.268,-2.1875,-7.75
13:45:46.277,-2.75,-10
13:45:46.288,-3.7188,-12.5
13:45:46.297,-4.8438,-14.6876
13:45:46.307,-6.0938,-16.9376
13:45:46.317,-6.1563,-19.0626
13:45:46.330,-6.7188,-21.7501
13:45:46.365,-8.375,-24.7501
13:45:46.368,-8.9063,-25.0001
13:45:46.369,-9.5625,-27.0626
13:45:46.371,-9.5,-29.6876
13:45:46.401,-10.6875,-31.7501
13:45:46.404,-11.875,-32.6251
13:45:46.407,-11.875,-33.9376
13:45:46.411,-12.1563,-35.2501
13:45:46.424,-12.5313,-35.6251
13:45:46.429,-13,-37.6876
13:45:46.460,-13.3751,-36.8751
13:45:46.465,-13.7188,-38.4376
13:45:46.465,-14.2188,-38.7501
13:45:46.472,-14.1876,-40.6877
13:45:46.482,-14.6251,-39.3127
13:45:46.489,-14.9063,-41.0002
13:45:46.498,-14.8126,-40.5002
13:45:46.508,-15.0313,-41.7502
13:45:46.519,-15.0626,-41.3752
13:45:46.530,-15.4376,-43.2502
13:45:46.539,-15.6876,-42.1252
13:45:46.548,-15.6251,-43.3127
13:45:46.558,-15.8126,-43.5002
13:45:46.568,-15.6563,-43.4377
13:45:46.578,-16.2813,-42.6252
13:45:46.588,-16.6876,-43.1877
13:45:46.597,-15.4063,-42.5627
13:45:46.609,-15.6563,-40.3752
13:45:46.619,-13.7813,-37.3126
13:45:46.628,-12.4688,-30.8751
13:45:46.638,-8.4688,-20.6876
13:45:46.648,-2.4375,-4.3125
13:45:46.658,4.7188,13.125
13:45:46.667,10.2813,30.3751
13:45:46.678,14.4376,41.8127
13:45:46.688,18.3126,48.9377
13:45:46.699,20.4063,56.5002
13:45:46.709,22.8438,59.8752
13:45:46.718,23.0938,63.4377
13:45:46.728,23.9063,62.3752
13:45:46.738,24.0001,62.9377
13:45:46.747,23.4063,62.0627
13:45:46.758,24.0313,60.4377
13:45:46.768,22.7813,59.3127
13:45:46.779,22.3438,57.3752
13:45:46.790,21.7501,56.8127
13:45:46.798,20.8438,54.8752
13:45:46.808,20.3126,52.5002
13:45:46.817,19.0626,51.4377
13:45:46.828,18.4688,48.8752
13:45:46.837,16.7813,44.8127
13:45:46.866,15.8438,42.0002
13:45:46.868,14.1876,38.0626
13:45:46.870,12.4375,33.8751
13:45:46.880,11.125,29.3126
13:45:46.889,9.7188,25.6876
13:45:46.899,8.6875,22.1876
13:45:46.907,6.3438,18.6251
13:45:46.917,5.75,15.3126
13:45:46.928,4.0938,13.125
13:45:46.938,2.8125,9.75
13:45:46.949,2.25,7.3125
13:45:46.958,0.875,5.4375
13:45:46.969,0.0313,3.0625
13:45:46.977,-0.4063,1.25
13:45:46.994,-0.9375,0
13:45:46.998,-1.875,-2.5625
13:45:47.007,-2.375,-4.5
13:45:47.018,-2.6875,-6.25
13:45:47.027,-3.9063,-7.25
13:45:47.038,-4.9063,-10.25
13:45:47.059,-5.6875,-12.1875
13:45:47.061,-6.6875,-14.0626
13:45:47.070,-7.3438,-17.3751
13:45:47.080,-7.9375,-18.3751
13:45:47.092,-8.125,-21.3751
13:45:47.102,-9.4375,-23.3751
13:45:47.108,-10.8125,-25.4376
13:45:47.142,-11.2188,-25.6876
13:45:47.208,-12.0313,-28.5626
13:45:47.210,-12.2813,-30.9376
13:45:47.210,-13.3438,-32.5626
13:45:47.215,-13.5313,-33.5001
13:45:47.216,-14.0001,-35.3751
13:45:47.216,-13.9688,-35.2501
13:45:47.224,-14.3438,-37.3126
13:45:47.252,-14.5313,-37.3751
13:45:47.255,-15.3438,-39.0627
13:45:47.258,-15.9063,-39.1252
13:45:47.266,-15.7813,-40.3752
13:45:47.290,-16.5626,-40.9377
13:45:47.292,-15.7501,-41.0627
13:45:47.295,-16.6251,-42.1877
13:45:47.303,-17.4376,-41.8127
13:45:47.313,-17.3126,-42.6877
13:45:47.323,-17.8438,-43.6252
13:45:47.334,-17.0626,-42.5627
13:45:47.342,-17.3126,-43.5002
13:45:47.353,-17.7188,-43.6252
13:45:47.370,-17.8126,-42.5002
13:45:47.373,-17.9688,-43.6252
13:45:47.384,-19.9063,-48.0002
13:45:47.393,-19.7813,-47.3127
13:45:47.403,-19.7501,-47.5627
13:45:47.414,-19.6876,-46.5627
13:45:47.423,-19.8126,-46.8127
13:45:47.433,-19.3438,-46.3752
13:45:47.443,-19.5313,-47.0002
13:45:47.452,-19.6876,-46.0627
13:45:47.462,-18.8438,-45.4377
13:45:47.473,-17.7813,-43.1252
13:45:47.483,-17.7501,-39.6877
13:45:47.492,-15.3751,-34.5626
13:45:47.504,-12.7188,-23.8751
13:45:47.513,-7.9688,-12.5
13:45:47.522,-1.7813,3.125
13:45:47.535,2.8438,16.8126
13:45:47.545,7.0938,28.8751
13:45:47.552,9.1875,33.5001
13:45:47.562,11.25,38.2501
13:45:47.572,12.2813,41.3127
13:45:47.585,13.1563,41.9377
13:45:47.592,12.9375,43.3752
13:45:47.603,13.4376,41.5627
13:45:47.614,12.4688,41.3752
13:45:47.622,12.3125,38.7501
13:45:47.633,12.5938,37.3751
13:45:47.643,10.6563,35.8751
13:45:47.652,10.3125,33.2501
13:45:47.662,9.6875,32.1876
13:45:47.673,8.2813,29.1876
13:45:47.683,7.4375,26.8126
13:45:47.693,6.0625,22.8126
13:45:47.703,5.2813,19.3751
13:45:47.714,3.625,15.6251
13:45:47.722,2.125,12.0625
13:45:47.734,1.3438,9
13:45:47.744,-0.8125,6.1875
13:45:47.753,-1.8125,3.4375
13:45:47.763,-2.4688,0.25
13:45:47.774,-3.2813,-1.625
13:45:47.783,-3.5,-3.25
13:45:47.794,-4.5938,-4.125
13:45:47.802,-4.875,-5.5
13:45:47.813,-5.5625,-8.25
13:45:47.824,-5.8438,-8.8125
13:45:47.834,-6.4063,-10.6875
13:45:47.846,-7.125,-12.125
13:45:47.854,-6.875,-12.3125
13:45:47.887,-8.125,-14.0626
13:45:47.888,-8.5313,-16.1876
13:45:47.890,-9.4063,-17.9376
13:45:47.893,-10,-18.5626
13:45:47.930,-10,-20.8126
13:45:47.932,-10.6563,-22.1251
13:45:47.934,-10.7813,-23.5626
13:45:47.940,-11.375,-24.8126
13:45:47.946,-11.75,-27.3126
13:45:47.975,-11.8438,-27.8126
13:45:47.978,-12.6563,-29.9376
13:45:47.980,-12.9375,-30.6876
13:45:47.983,-13.2188,-31.3751
13:45:48.015,-13.4063,-32.3751
13:45:48.016,-13.8751,-33.1251
13:45:48.019,-13.9376,-33.2501
13:45:48.024,-14.9376,-34.5626
13:45:48.035,-15.3438,-34.6876
13:45:48.043,-15.6563,-36.3751
13:45:48.053,-15.5001,-35.7501
13:45:48.063,-16.5626,-37.6251
13:45:48.073,-16.8438,-37.0001
13:45:48.082,-17.4063,-37.8126
13:45:48.093,-17.1251,-38.0001
13:45:48.103,-17.4063,-37.8126
13:45:48.119,-17.0313,-38.6251
13:45:48.146,-16.8126,-38.7501
13:45:48.148,-16.5626,-37.6876
13:45:48.150,-16.8126,-39.1876
13:45:48.158,-16.2813,-38.0626
13:45:48.163,-16.5626,-39.1251
13:45:48.174,-16.5001,-38.6876
13:45:48.182,-16.3751,-38.7501
13:45:48.193,-16.8126,-37.9376
13:45:48.202,-16.5001,-37.9376
13:45:48.213,-17.1251,-38.2501
13:45:48.225,-17.0001,-38.1876
13:45:48.233,-17.3751,-37.6876
13:45:48.242,-17.7501,-37.8126
13:45:48.252,-17.3751,-37.8751
13:45:48.266,-17.3751,-35.7501
13:45:48.275,-16.5626,-33.9376
13:45:48.283,-14.8126,-29.8751
13:45:48.293,-11.5,-21.1251
13:45:48.302,-7,-8.25
13:45:48.313,-1.25,7.75
13:45:48.322,5.125,23.3126
13:45:48.332,10.5625,38.5626
13:45:48.344,12.6875,44.5002
13:45:48.354,16.1876,50.3127
13:45:48.363,17.3126,53.2502
13:45:48.378,19.1876,56.8127
13:45:48.394,19.2501,57.6252
13:45:48.396,20.2501,59.4377
13:45:48.405,19.7501,57.5002
13:45:48.412,19.8751,56.6877
13:45:48.423,18.8751,54.7502
13:45:48.433,18.6876,53.0002
13:45:48.451,18.0001,50.9377
13:45:48.458,16.8126,49.6877
13:45:48.473,16.5313,47.3752
13:45:48.476,15.9376,45.9377
13:45:48.485,15.5001,43.3752
13:45:48.491,13.7813,39.8752
13:45:48.508,12.375,35.9376
13:45:48.518,10.7813,33.0001
13:45:48.528,9.7813,28.6876
13:45:48.539,7.8438,24.4376
13:45:48.548,6.8125,21.0626
13:45:48.559,5.4688,17.1251
13:45:48.590,4.5,13.4376
13:45:48.592,3.875,11
13:45:48.594,2.25,8.4375
13:45:48.599,1.9688,7.1875
13:45:48.638,0.7188,5.4375
13:45:48.639,-0.1875,2.875
13:45:48.641,-0.9063,0.75
13:45:48.648,-1.5625,0.125
13:45:48.648,-1.9375,-1.875
13:45:48.677,-2.9063,-4.75
13:45:48.680,-3.7813,-6.875
13:45:48.682,-3.75,-8.875
13:45:48.689,-4.8125,-10.625
13:45:48.719,-5.5625,-11.625
13:45:48.722,-6.25,-13.6876
13:45:48.724,-6.5938,-15.6251
13:45:48.729,-7.4063,-18.1251
13:45:48.738,-7.9688,-18.8126
13:45:48.748,-7.9063,-20.8126
13:45:48.757,-9.0625,-23.3126
13:45:48.770,-9.5938,-24.5001
13:45:48.779,-10.5938,-25.5626
13:45:48.787,-10.1563,-26.9376
13:45:48.798,-10.75,-28.6251
13:45:48.808,-11.6875,-28.4376
13:45:48.818,-11.2188,-29.6876
13:45:48.828,-12.2188,-30.0626
13:45:48.837,-11.9375,-31.6251
13:45:48.847,-12.5,-31.7501
13:45:48.859,-12.9375,-32.6251
13:45:48.870,-12.375,-33.4376
13:45:48.880,-13.3126,-33.6876
13:45:48.888,-12.9375,-34.5001
13:45:48.897,-13.2501,-34.6876
13:45:48.908,-13.6876,-35.0626
13:45:48.917,-13,-34.7501
13:45:48.928,-13.3751,-35.0626
13:45:48.938,-13.9376,-35.8751
13:45:48.949,-13.6251,-35.7501
13:45:48.957,-14.6251,-35.7501
13:45:48.967,-13.9376,-35.6876
13:45:48.978,-14.7501,-35.9376
13:45:48.988,-14.6251,-36.5626
13:45:48.998,-15.1251,-36.3751
13:45:49.007,-15.1876,-37.0001
13:45:49.017,-15.5626,-36.3751
13:45:49.028,-15.5001,-36.6876
13:45:49.039,-15.5001,-36.5001
13:45:49.047,-15.3751,-35.2501
13:45:49.057,-15.4376,-37.0626
13:45:49.067,-15.7501,-35.1251
13:45:49.078,-15.1876,-36.5626
13:45:49.089,-15.5001,-35.0001
13:45:49.099,-14.5626,-34.3751
13:45:49.107,-14.0626,-32.1251
13:45:49.117,-12.625,-27.8126
13:45:49.129,-9.6875,-19.7501
13:45:49.137,-4.875,-6.375
13:45:49.149,1.0625,7.9375
13:45:49.158,7.0625,25.5001
13:45:49.168,12.0625,38.1876
13:45:49.178,15.8126,48.8752
13:45:49.188,17.8126,53.0002
13:45:49.198,19.9376,58.4377
13:45:49.207,20.9376,61.5002
13:45:49.219,22.4376,62.6877
13:45:49.228,22.3126,62.8752
13:45:49.238,22.6876,63.6252
13:45:49.247,22.3126,62.5002
13:45:49.257,22.2501,60.9377
13:45:49.268,21.5626,59.5002
13:45:49.282,21.0626,58.5002
13:45:49.288,19.9376,56.4377
13:45:49.323,20.5626,55.2502
13:45:49.325,19.2501,53.1252
13:45:49.328,18.2501,51.4377
13:45:49.330,17.1251,50.5002
13:45:49.366,16.4376,46.0002
13:45:49.369,14.9376,41.8752
13:45:49.371,13.8751,38.6251
13:45:49.380,11.875,34.8751
13:45:49.380,10.625,31.3751
13:45:49.389,9.3125,26.2501
13:45:49.425,7.5938,23.6251
13:45:49.428,6.5625,19.5001
13:45:49.430,5.3125,17.1876
13:45:49.433,4.3125,13.5626
13:45:49.438,3.2188,10.3125
13:45:49.458,2.625,8.75
13:45:49.460,1.9688,6.25
13:45:49.470,0.875,4.9375
13:45:49.477,0.1563,2.1875
13:45:49.489,-1.0625,-0.1875
13:45:49.497,-1.1875,-0.4375
13:45:49.508,-1.8125,-3.9375
13:45:49.519,-2.5625,-5.875
13:45:49.528,-3.4375,-7.375
13:45:49.537,-4.25,-8.6875
13:45:49.547,-4.5938,-9.6875
13:45:49.558,-4.9375,-12.8125
13:45:49.568,-5.9688,-15.1876
13:45:49.580,-7.125,-16.2501
13:45:49.588,-6.8125,-18.0001
13:45:49.599,-7.75,-19.9376
13:45:49.608,-9,-20.8751
13:45:49.622,-9.125,-23.1876
13:45:49.628,-9.75,-25.1876
13:45:49.637,-10.5625,-25.7501
13:45:49.648,-10.0625,-26.0626
13:45:49.658,-11.0625,-28.1251
13:45:49.681,-11.8125,-29.1251
13:45:49.683,-11.125,-30.5001
13:45:49.697,-12.4375,-30.1251
13:45:49.701,-11.9375,-32.2501
13:45:49.715,-12.625,-32.3751
13:45:49.719,-12.75,-32.8751
13:45:49.727,-13.4376,-33.3126
13:45:49.737,-13.0625,-34.0626
13:45:49.760,-13.0625,-35.0001
13:45:49.761,-13.8126,-34.8126
13:45:49.777,-13.2501,-35.3751
13:45:49.779,-14.1251,-35.0001
13:45:49.794,-13.3751,-35.5001
13:45:49.798,-13.8126,-34.9376
13:45:49.808,-13.6876,-36.0626
13:45:49.818,-14.4376,-34.8126
13:45:49.828,-14.1876,-35.1876
13:45:49.837,-14.3751,-35.1251
13:45:49.849,-13.7501,-36.0001
13:45:49.857,-14.6876,-35.6251
13:45:49.868,-14.5001,-35.7501
13:45:49.878,-14.8751,-36.6876
13:45:49.887,-14.9376,-36.0626
13:45:49.898,-14.9376,-36.3126
13:45:49.909,-15.0626,-36.2501
13:45:49.920,-14.8751,-35.6876
13:45:49.929,-14.6251,-34.8751
13:45:49.938,-15.0001,-35.6251
13:45:49.948,-14.1251,-33.5626
13:45:49.957,-14.1876,-33.5001
13:45:49.967,-11.75,-29.1876
13:45:49.978,-10.875,-22.5626
13:45:49.988,-7.125,-14.1251
13:45:49.998,-1.4375,0.25
13:45:50.008,3.4375,15.8126
13:45:50.017,9.6875,31.6876
13:45:50.045,13.5001,45.0627
13:45:50.048,16.8126,50.8127
13:45:50.049,18.3751,55.8752
13:45:50.060,20.8751,59.4377
13:45:50.086,21.1251,62.6877
13:45:50.092,22.5626,64.2502
13:45:50.093,22.3751,65.0002
13:45:50.098,23.1876,64.5627
13:45:50.136,22.1251,63.7502
13:45:50.137,22.1876,63.1252
13:45:50.139,21.1251,61.2502
13:45:50.141,21.6251,59.9377
13:45:50.148,20.6876,58.5002
13:45:50.181,21.1251,56.5627
13:45:50.183,19.5626,55.2502
13:45:50.185,18.3751,53.3752
13:45:50.191,17.2501,49.4377
13:45:50.198,16.1876,46.0002
13:45:50.211,14.2501,42.9377
13:45:50.218,12.9375,38.2501
13:45:50.227,12.0625,35.1251
13:45:50.238,10.9375,30.5626
13:45:50.248,8.8125,27.8751
13:45:50.257,7.3125,24.7501
13:45:50.267,6.8125,20.3751
13:45:50.277,5.75,19.2501
13:45:50.288,4.8125,15.5626
13:45:50.299,4.0625,14.1876
13:45:50.308,2.9375,12.25
13:45:50.317,2.6875,10
13:45:50.327,1.6875,7.8125
13:45:50.339,1,6.125
13:45:50.348,0.6875,5.6875
13:45:50.358,0.4375,2.3125
13:45:50.370,-0.75,0.375
13:45:50.381,-1.6875,-0.375
13:45:50.390,-2.25,-2.375
13:45:50.398,-2.25,-4.6875
13:45:50.408,-2.9375,-7.4375
13:45:50.417,-3.75,-8.0625
13:45:50.427,-5.0625,-9.4375
13:45:50.439,-5.375,-12.625
13:45:50.448,-6.125,-14.6251
13:45:50.457,-7,-15.9376
13:45:50.467,-6.875,-18.1251
13:45:50.480,-8.0625,-19.8751
13:45:50.488,-9.25,-21.6876
13:45:50.497,-9.5625,-22.1251
13:45:50.508,-9.625,-24.4376
13:45:50.517,-10,-26.1876
13:45:50.527,-10.9375,-27.4376
13:45:50.538,-10.75,-27.8751
13:45:50.548,-11.8125,-29.0626
13:45:50.557,-11.1875,-30.0626
13:45:50.569,-12.0625,-31.1251
13:45:50.577,-12.125,-31.1251
13:45:50.588,-12.75,-32.3126
13:45:50.598,-12.6875,-32.0001
13:45:50.607,-13.3126,-33.3751
13:45:50.618,-12.875,-32.9376
13:45:50.629,-13.5001,-34.3126
13:45:50.638,-13.5001,-34.3751
13:45:50.647,-13.8751,-32.9376
13:45:50.659,-13.6876,-35.6251
13:45:50.667,-13.6251,-34.2501
13:45:50.679,-14.1876,-35.3751
13:45:50.705,-14.0001,-34.2501
13:45:50.708,-14.4376,-35.1251
13:45:50.710,-14.2501,-34.7501
13:45:50.717,-14.2501,-35.7501
13:45:50.728,-14.1876,-34.7501
13:45:50.738,-14.9376,-34.8126
13:45:50.766,-13.9376,-35.8126
13:45:50.767,-14.8751,-34.3751
13:45:50.770,-14.8126,-36.4376
13:45:50.800,-14.3126,-35.1876
13:45:50.802,-15.0626,-35.7501
13:45:50.806,-14.0001,-35.1251
13:45:50.808,-15.0626,-34.1876
13:45:50.837,-13.5001,-33.5001
13:45:50.841,-14.1876,-32.0001
13:45:50.843,-12.25,-29.2501
13:45:50.848,-11.125,-22.8751
13:45:50.884,-6.875,-12.5
13:45:50.885,-2.125,1.125
13:45:50.887,3.75,17.1876
13:45:50.890,9.6875,33.6251
13:45:50.923,14.3126,45.0002
13:45:50.925,16.4376,51.5627
13:45:50.927,18.5626,54.9377
13:45:50.930,20.7501,60.4377
13:45:50.946,20.9376,62.9377
13:45:50.949,22.3751,62.8752
13:45:50.958,21.7501,64.3127
13:45:50.967,22.6876,62.3127
13:45:50.983,21.1251,62.6252
13:45:51.000,21.8126,59.8127
13:45:51.001,21.1251,59.5002
13:45:51.013,20.8751,57.0002
13:45:51.019,20.1251,56.6252
13:45:51.028,18.9376,53.7502
13:45:51.038,18.4376,51.7502
13:45:51.049,17.8751,49.1877
13:45:51.062,16.5001,45.8127
13:45:51.078,15.5001,42.5002
13:45:51.080,13.7501,39.3751
13:45:51.089,12.4375,34.8751
13:45:51.098,10.3125,32.1251
13:45:51.108,9.875,28.7501
13:45:51.117,8.25,24.7501
13:45:51.128,6.5625,21.6876
13:45:51.138,5.375,19.6251
13:45:51.148,5.25,16.8751
13:45:51.157,4.625,14.3751
13:45:51.167,3.625,11.9375
13:45:51.179,2,10.5625
13:45:51.189,2,9.375
13:45:51.199,1.9375,7
13:45:51.207,0.875,5.3125
13:45:51.219,-0.125,4.1875
13:45:51.229,-0.8125,3.375
13:45:51.238,-1.4375,0.9375
13:45:51.248,-1.3125,-1.5
13:45:51.257,-2.625,-3.5625
13:45:51.268,-3.5625,-4.9375
13:45:51.279,-4.25,-6.5
13:45:51.290,-4.25,-9.0625
13:45:51.297,-5.1875,-11.25
13:45:51.307,-6.1875,-13.1876
13:45:51.322,-6.4375,-14.3126
13:45:51.330,-6.6875,-17.1251
13:45:51.338,-8.1875,-19.3126
13:45:51.347,-8.9375,-21.2501
13:45:51.358,-9.1875,-21.0626
13:45:51.367,-9.75,-23.1251
13:45:51.379,-9.9375,-24.7501
13:45:51.388,-10.6875,-27.0001
13:45:51.398,-10.4375,-26.8126
13:45:51.408,-11.25,-28.5001
13:45:51.418,-12,-29.6251
13:45:51.428,-12.4375,-30.5626
13:45:51.438,-12.375,-30.8751
13:45:51.447,-12.125,-31.6251
13:45:51.457,-12.875,-32.0001
13:45:51.469,-13.3126,-33.1251
13:45:51.492,-13.8751,-33.4376
13:45:51.494,-13.6251,-33.8751
13:45:51.498,-14.0001,-33.8751
13:45:51.534,-14.3126,-34.0001
13:45:51.538,-14.1876,-34.3126
13:45:51.539,-14.8126,-34.8751
13:45:51.543,-14.2501,-35.4376
13:45:51.550,-14.9376,-34.8126
13:45:51.579,-14.5001,-35.3126
13:45:51.582,-14.2501,-34.5001
13:45:51.584,-15.1251,-36.2501
13:45:51.588,-14.8751,-35.1251
13:45:51.615,-14.6876,-34.9376
13:45:51.619,-14.3751,-35.6876
13:45:51.620,-15.3126,-33.8751
13:45:51.654,-14.8126,-36.0001
13:45:51.658,-14.1876,-35.1876
13:45:51.659,-14.9376,-34.5626
13:45:51.661,-14.3126,-35.1876
13:45:51.668,-15.1876,-34.8126
13:45:51.678,-14.7501,-34.9376
13:45:51.687,-14.3751,-33.5626
13:45:51.699,-13.7501,-32.8126
13:45:51.707,-13.2501,-30.4376
13:45:51.717,-11.75,-25.0626
13:45:51.727,-8.3125,-16.6876
13:45:51.738,-4,-2.875
13:45:51.748,2.0625,11.625
13:45:51.758,8.1875,28.0626
13:45:51.767,12.375,40.9377
13:45:51.778,15.8751,48.7502
13:45:51.788,17.1876,53.6252
13:45:51.798,19.1876,56.3752
13:45:51.808,20.4376,60.3127
13:45:51.818,20.8126,60.6877
13:45:51.829,20.8751,61.6877
13:45:51.838,20.5626,59.9377
13:45:51.848,20.8751,59.8752
13:45:51.858,19.6251,57.0627
13:45:51.867,19.8126,56.3127
13:45:51.878,18.6251,55.3127
13:45:51.888,18.2501,52.6252
13:45:51.898,17.6876,52.4377
13:45:51.908,17.4376,49.7502
13:45:51.922,16.0626,46.9377
13:45:51.928,14.6876,43.6252
13:45:51.937,13.5001,41.6877
13:45:51.949,11.625,38.0626
13:45:51.958,10.875,33.5626
13:45:51.985,9.5,29.3126
13:45:51.988,8.5,26.4376
13:45:51.990,6.6875,22.8126
13:45:51.999,6.4375,20.1251
13:45:52.009,4.6875,16.8751
13:45:52.017,4.0625,14.5626
13:45:52.027,3.0625,12.5625
13:45:52.037,3.0625,10.875
13:45:52.049,1.6875,9.25
13:45:52.057,0.375,7.75
13:45:52.071,0.5,5.375
13:45:52.078,-0.125,4.3125
13:45:52.087,-0.9375,2.375
13:45:52.099,-1.3125,0.75
13:45:52.108,-2.6875,-0.8125
13:45:52.117,-2.75,-2.9375
13:45:52.127,-3.75,-4.4375
13:45:52.138,-4.8125,-5.75
13:45:52.147,-4.5625,-8.875
13:45:52.158,-5.9375,-10.3125
13:45:52.168,-6.625,-12.375
13:45:52.179,-6.875,-14.5626
13:45:52.189,-8.0625,-16.3126
13:45:52.198,-8.125,-18.3751
13:45:52.208,-9.3125,-19.8126
13:45:52.218,-10.125,-20.8751
13:45:52.239,-10.5625,-23.1876
13:45:52.241,-11.25,-24.5626
13:45:52.248,-11.0625,-25.6251
13:45:52.314,-11.9375,-26.8751
13:45:52.316,-12.375,-28.1876
13:45:52.317,-12.8125,-28.6251
13:45:52.324,-12.5625,-30.1251
13:45:52.329,-13.5626,-29.8126
13:45:52.348,-14.0626,-31.7501
13:45:52.348,-13.125,-31.5626
13:45:52.350,-14.3126,-32.6251
13:45:52.382,-14.6251,-33.8126
13:45:52.385,-14.5001,-32.6251
13:45:52.386,-14.5001,-34.6251
13:45:52.388,-15.0626,-33.8126
13:45:52.407,-14.8751,-34.8751
13:45:52.408,-14.9376,-34.0626
13:45:52.410,-14.9376,-35.5001
13:45:52.414,-15.0626,-34.8126
13:45:52.422,-15.6876,-35.6876
13:45:52.432,-15.2501,-35.9376
13:45:52.446,-15.9376,-36.1876
13:45:52.454,-14.9376,-35.2501
13:45:52.462,-14.9376,-36.1876
13:45:52.474,-15.9376,-35.1251
13:45:52.482,-15.5626,-35.6251
13:45:52.493,-15.8126,-35.3751
13:45:52.502,-16.5626,-36.0001
13:45:52.538,-16.3126,-36.2501
13:45:52.540,-16.2501,-35.9376
13:45:52.543,-15.8751,-35.0001
13:45:52.549,-15.6251,-35.0626
13:45:52.558,-16.2501,-33.5626
13:45:52.567,-14.1876,-30.5626
13:45:52.577,-12.9375,-24.0626
13:45:52.588,-9.375,-14.8126
13:45:52.597,-4,-1.625
13:45:52.609,1.5,14.9376
13:45:52.618,7.5,29.8126
13:45:52.627,12.8125,42.6252
13:45:52.639,14.6251,48.6877
13:45:52.650,17.4376,54.1877
13:45:52.658,18.0626,58.3752
13:45:52.667,19.5001,59.8127
13:45:52.678,20.2501,62.1252
13:45:52.687,21.1876,61.5627
13:45:52.697,20.2501,61.6877
13:45:52.707,19.3751,58.7502
13:45:52.718,19.5626,58.5627
13:45:52.729,19.0001,55.9377
13:45:52.738,17.8126,54.7502
13:45:52.748,17.7501,53.5002
13:45:52.758,16.5001,50.4377
13:45:52.768,15.8751,48.4377
13:45:52.777,14.6251,45.3752
13:45:52.788,12.9375,41.7502
13:45:52.798,11.5625,39.6252
13:45:52.808,11.0625,34.5001
13:45:52.822,9.1875,30.7501
13:45:52.829,8.5,27.8126
13:45:52.839,6.875,25.3751
13:45:52.848,5.625,22.2501
13:45:52.858,5,19.1876
13:45:52.867,3.5625,18.0001
13:45:52.878,3.5,15.4376
13:45:52.888,1.9375,12.75
13:45:52.897,1.6875,11.3125
13:45:52.923,1.25,9.5
13:45:52.924,0.25,7.9375
13:45:52.928,-0.125,7
13:45:52.958,-1.3125,5
13:45:52.960,-1.75,3.6875
13:45:52.964,-1.75,1.3125
13:45:52.968,-3.125,0.3125
13:45:53.002,-3.375,-2.625
13:45:53.004,-4.625,-4.125
13:45:53.006,-4.75,-5.75
13:45:53.014,-5.375,-9.125
13:45:53.018,-6.6875,-10.125
13:45:53.049,-7.25,-12.0625
13:45:53.052,-7.8125,-15.0001
13:45:53.054,-9.0625,-16.1876
13:45:53.059,-9.4375,-18.0626
13:45:53.086,-10.1875,-20.0626
13:45:53.092,-10.25,-22.1251
13:45:53.092,-10.5625,-23.6876
13:45:53.100,-12,-24.6251
13:45:53.107,-11.4375,-26.4376
13:45:53.119,-12.8125,-27.1876
13:45:53.128,-13.0625,-27.8751
13:45:53.139,-13.0625,-29.2501
13:45:53.147,-13.1876,-30.3751
13:45:53.162,-14.5001,-31.1876
13:45:53.168,-14.4376,-32.1251
13:45:53.179,-14.1876,-32.3126
13:45:53.188,-15.3751,-32.5001
13:45:53.198,-14.8751,-34.0626
13:45:53.207,-15.8751,-34.1251
13:45:53.218,-15.6251,-34.8126
13:45:53.228,-15.0626,-35.3751
13:45:53.237,-16.0001,-35.8751
13:45:53.265,-15.8751,-35.0001
13:45:53.269,-16.1876,-36.2501
13:45:53.271,-15.5626,-36.1251
13:45:53.278,-16.2501,-36.1876
13:45:53.288,-16.3126,-36.8751
13:45:53.298,-16.1251,-36.5001
13:45:53.307,-16.7501,-36.8751
13:45:53.318,-16.5001,-37.1251
13:45:53.329,-15.8126,-37.3126
13:45:53.337,-17.0001,-37.0001
13:45:53.348,-16.6251,-37.1876
13:45:53.359,-17.2501,-37.0626
13:45:53.367,-16.9376,-36.8751
13:45:53.377,-17.1251,-35.6251
13:45:53.388,-17.1251,-37.3751
13:45:53.397,-17.0626,-35.8126
13:45:53.409,-16.6251,-35.5626
13:45:53.418,-16.5001,-34.0001
13:45:53.428,-14.5626,-30.7501
13:45:53.438,-13,-23.8751
13:45:53.448,-9.25,-15.1876
13:45:53.457,-3.875,-0.5
13:45:53.468,1.75,14.4376
13:45:53.478,7.6875,30.8751
13:45:53.487,12.25,41.5002
13:45:53.499,14.7501,47.8127
13:45:53.507,16.5001,52.3752
13:45:53.517,18.1876,56.8127
13:45:53.528,19.0626,58.3127
13:45:53.539,19.5001,60.0002
13:45:53.548,19.5001,59.3127
13:45:53.558,18.6251,58.9377
13:45:53.583,19.1876,56.8752
13:45:53.584,18.1876,55.4377
13:45:53.601,18.1876,53.9377
13:45:53.603,17.8751,52.0627
13:45:53.609,16.5001,50.8127
13:45:53.617,15.8751,49.4377
13:45:53.662,15.6251,46.6252
13:45:53.663,14.0001,43.5627
13:45:53.697,12.8125,41.1252
13:45:53.700,12.4375,37.6876
13:45:53.703,10.1875,33.9376
13:45:53.711,8.5625,29.8126
13:45:53.713,7.4375,26.5001
13:45:53.713,6.1875,24.0001
13:45:53.719,5.125,20.0626
13:45:53.750,4.375,18.6876
13:45:53.754,3.3125,15.5001
13:45:53.755,2.625,13.1876
13:45:53.757,2.1875,13.125
13:45:53.792,0.5625,10.3125
13:45:53.794,0.1875,7.75
13:45:53.798,-0.1875,5.625
13:45:53.802,-0.9375,4.5625
13:45:53.810,-2.0625,3.1875
13:45:53.818,-2.3125,1.9375
13:45:53.828,-2.3125,0
13:45:53.837,-3.375,-1.25
13:45:53.847,-3.5,-3.625
13:45:53.858,-4.25,-4.3125
13:45:53.869,-5.3125,-7.0625
13:45:53.879,-6.9375,-11.375
13:45:53.889,-7.0625,-12.125
13:45:53.899,-7.9375,-14.3751
13:45:53.908,-8.5625,-16.1251
13:45:53.918,-9.625,-18.7501
13:45:53.928,-9.5,-20.3126
13:45:53.937,-10.25,-22.3126
13:45:53.947,-10.625,-23.5001
13:45:53.957,-12,-24.2501
13:45:53.968,-12.125,-26.5001
13:45:53.977,-12.1875,-27.1251
13:45:53.989,-13,-28.1251
13:45:53.998,-12.6875,-29.9376
13:45:54.008,-13.8751,-30.6251
13:45:54.019,-14.0001,-31.8126
13:45:54.028,-14.2501,-31.8751
13:45:54.038,-14.8751,-33.8126
13:45:54.048,-14.3751,-33.2501
13:45:54.058,-15.1876,-33.6876
13:45:54.067,-15.5001,-35.0626
13:45:54.079,-15.3126,-34.4376
13:45:54.087,-15.5001,-35.3751
13:45:54.098,-15.0626,-35.7501
13:45:54.108,-15.3751,-35.5626
13:45:54.118,-16.2501,-36.1876
13:45:54.128,-15.7501,-35.8751
13:45:54.137,-16.0001,-36.7501
13:45:54.148,-16.1876,-36.2501
13:45:54.158,-16.5626,-36.9376
13:45:54.170,-16.4376,-36.3751
13:45:54.179,-15.7501,-36.6876
13:45:54.188,-16.3751,-36.7501
13:45:54.198,-16.0626,-37.3126
13:45:54.207,-16.6251,-36.3126
13:45:54.218,-16.4376,-36.5626
13:45:54.228,-15.8751,-34.9376
13:45:54.237,-15.2501,-33.8751
13:45:54.248,-13.7501,-29.3751
13:45:54.259,-11.6875,-23.7501
13:45:54.268,-8,-13.8126
13:45:54.277,-3.8125,-0.6875
13:45:54.287,2.25,14.3126
13:45:54.297,7.9375,29.8751
13:45:54.308,11.375,39.6252
13:45:54.320,14.0626,45.5627
13:45:54.329,14.8126,50.3752
13:45:54.338,14.9376,54.0627
13:45:54.350,13.8751,56.9377
13:45:54.359,11.1875,59.4377
13:45:54.368,9,60.5627
13:45:54.377,5.3125,62.2502
13:45:54.388,2.9375,64.0627
13:45:54.398,-0.5,66.5628
13:45:54.408,-1.625,69.7503
13:45:54.417,-3,70.1878
13:45:54.439,-4,70.8753
13:45:54.441,-3.4375,69.3128
13:45:54.452,-4.0625,67.3128
13:45:54.479,-4.3125,66.5003
13:45:54.480,-5,62.4377
13:45:54.482,-6.5,59.3752
13:45:54.489,-7.375,57.2502
13:45:54.518,-7.9375,53.7502
13:45:54.519,-8.4375,51.9377
13:45:54.521,-8.875,49.6877
13:45:54.546,-8.625,48.9377
13:45:54.549,-8.3125,48.6252
13:45:54.551,-8.9375,48.1252
13:45:54.557,-7.8125,47.3127
13:45:54.586,-7.8125,47.5002
13:45:54.589,-7,46.6877
13:45:54.590,-7.375,47.5002
13:45:54.607,-5.875,47.7502
13:45:54.609,-6.5625,48.1252
13:45:54.619,-5.75,47.8127
13:45:54.627,-5.5,47.5002
13:45:54.638,-4.5,47.3127
13:45:54.647,-5.3125,46.8752
13:45:54.658,-4.375,45.0627
13:45:54.668,-4.625,42.4377
13:45:54.677,-5.375,41.1877
13:45:54.688,-5.125,38.2501
13:45:54.702,-6.3125,37.0626
13:45:54.709,-6.4375,34.5001
13:45:54.718,-7.875,34.3751
13:45:54.728,-7.5625,31.1876
13:45:54.738,-7.9375,31.0626
13:45:54.747,-8.625,28.9376
13:45:54.758,-9.625,27.4376
13:45:54.767,-9.25,25.4376
13:45:54.778,-10.0625,24.2501
13:45:54.787,-9.875,21.6251
13:45:54.799,-10.625,20.8751
13:45:54.808,-10.5,17.0626
13:45:54.817,-12,16.0626
13:45:54.828,-11.75,12.1875
13:45:54.837,-12.8125,11.5
13:45:54.849,-13.1876,7.8125
13:45:54.857,-13.6251,5.75
13:45:54.879,-14.5626,3.375
13:45:54.880,-15.3126,2.125
13:45:54.896,-16.2501,-0.1875
13:45:54.899,-16.1876,-2.6875
13:45:54.908,-17.1876,-4.3125
13:45:54.917,-16.5626,-6.5625
13:45:54.928,-18.2501,-9.0625
13:45:54.938,-18.0001,-11.0625
13:45:54.956,-19.4376,-13.2501
13:45:54.963,-18.6251,-14.9376
13:45:54.980,-19.1251,-16.4376
13:45:54.982,-19.3751,-19.1876
13:45:54.988,-19.8126,-20.6251
13:45:54.997,-19.5626,-22.4376
13:45:55.008,-20.1876,-23.0001
13:45:55.018,-20.0001,-24.1251
13:45:55.028,-19.6876,-22.0626
13:45:55.039,-17.8126,-18.1251
13:45:55.049,-15.0626,-7.4375
13:45:55.058,-8.4375,6.9375
13:45:55.069,-2.125,24.7501
13:45:55.078,5.375,39.7502
13:45:55.088,10.8125,52.0002
13:45:55.098,13.6251,61.0627
13:45:55.108,16.2501,65.2502
13:45:55.117,19.0001,67.3128
13:45:55.152,20.2501,70.6253
13:45:55.152,22.3126,72.0628
13:45:55.154,22.3126,74.8128
13:45:55.161,22.5626,73.8128
13:45:55.194,22.8751,75.6878
13:45:55.196,23.5626,74.8128
13:45:55.199,23.3126,75.6253
13:45:55.207,23.3751,74.5628
13:45:55.209,22.9376,75.1878
13:45:55.240,23.6876,73.6878
13:45:55.243,23.5626,74.8128
13:45:55.244,24.9376,73.2503
13:45:55.250,23.8126,71.5628
13:45:55.279,23.7501,70.6253
13:45:55.280,23.8126,68.9378
13:45:55.282,22.4376,68.1253
13:45:55.288,22.8126,65.7503
13:45:55.297,21.9376,64.3752
13:45:55.307,21.8751,60.8752
13:45:55.318,20.8751,59.0627
13:45:55.328,20.8751,57.2502
13:45:55.339,20.4376,55.0002
13:45:55.348,19.8126,53.3752
13:45:55.358,20.3126,51.6252
13:45:55.368,19.4376,49.3752
13:45:55.378,20.0626,47.9377
13:45:55.388,18.6876,47.2502
13:45:55.397,18.0001,46.9377
13:45:55.407,17.9376,44.8752
13:45:55.418,16.7501,43.5627
13:45:55.430,16.6251,42.6877
13:45:55.437,16.0626,39.4377
13:45:55.450,15.2501,38.8126
13:45:55.460,14.3751,36.0626
13:45:55.468,13.6251,34.5001
13:45:55.479,12.5,31.5626
13:45:55.488,11.4375,29.4376
13:45:55.498,9.875,27.8751
13:45:55.507,9,25.6876
13:45:55.519,6.6875,22.8751
13:45:55.528,6.3125,20.2501
13:45:55.538,5.5625,17.8126
13:45:55.547,4.1875,15.2501
13:45:55.558,2.8125,13.125
13:45:55.568,1.375,10.875
13:45:55.577,0.625,8.8125
13:45:55.588,0.125,6.3125
13:45:55.597,-1.625,3.625
13:45:55.609,-2.0625,0.125
13:45:55.618,-3.3125,-3.5
13:45:55.628,-3.9375,-5.1875
13:45:55.637,-5.125,-7.1875
13:45:55.647,-5.8125,-9.1875
13:45:55.658,-6.8125,-11.5625
13:45:55.667,-8,-13.5001
13:45:55.680,-7.4375,-14.8751
13:45:55.688,-8.6875,-16.6876
13:45:55.698,-9.1875,-18.1251
13:45:55.708,-9.875,-20.9376
13:45:55.718,-10.75,-22.4376
13:45:55.728,-11.125,-24.3126
13:45:55.739,-12.125,-26.2501
13:45:55.748,-12.5625,-27.3126
13:45:55.758,-13.1876,-29.1251
13:45:55.767,-13.8126,-30.8126
13:45:55.778,-13.3126,-30.8751
13:45:55.788,-14.6251,-32.7501
13:45:55.798,-15.5001,-34.5626
13:45:55.826,-15.1876,-34.5626
13:45:55.828,-16.5001,-35.8126
13:45:55.831,-15.6251,-36.5626
13:45:55.844,-16.8751,-36.4376
13:45:55.849,-15.8751,-37.9376
13:45:55.857,-14.8751,-36.7501
13:45:55.868,-14.8751,-34.5001
13:45:55.879,-12.25,-29.3751
13:45:55.902,-7.9375,-18.5001
13:45:55.906,-1.25,-3.0625
13:45:55.909,5.6875,15.1251
13:45:55.943,13,33.0626
13:45:55.944,19.2501,47.5002
13:45:55.947,22.4376,55.8127
13:45:55.949,25.1876,62.0627
13:45:55.982,26.6876,66.5628
13:45:55.983,28.3126,69.3128
13:45:55.984,29.1251,71.0628
13:45:56.007,29.0001,73.0628
13:45:56.009,30.2501,73.3753
13:45:56.011,30.1876,73.8128
13:45:56.036,30.5001,73.5003
13:45:56.038,30.5001,73.1253
13:45:56.040,30.4376,73.0628
13:45:56.067,30.2501,72.3128
13:45:56.067,30.0626,72.1253
13:45:56.070,29.3751,71.6878
13:45:56.078,29.9376,70.8128
13:45:56.087,29.9376,68.8128
13:45:56.098,29.3751,66.6253
13:45:56.107,27.8751,65.8128
13:45:56.118,27.1876,63.3127
13:45:56.128,27.2501,61.1877
13:45:56.138,26.3751,59.1252
13:45:56.149,24.0001,56.8127
13:45:56.157,23.1876,55.0627
13:45:56.174,22.0626,51.3752
13:45:56.190,21.0626,49.8127
13:45:56.192,21.1251,47.2502
13:45:56.197,20.3751,44.6877
13:45:56.214,20.0001,43.8127
13:45:56.218,19.5626,41.8752
13:45:56.228,18.3751,41.6877
13:45:56.239,18.8126,40.5627
13:45:56.258,17.9376,40.3127
13:45:56.264,17.9376,39.1877
13:45:56.279,17.3126,37.8751
13:45:56.281,16.6876,37.0626
13:45:56.289,16.3126,35.5001
13:45:56.298,16.5001,33.7501
13:45:56.307,16.2501,32.9376
13:45:56.318,15.1251,33.3751
13:45:56.330,15.0626,31.5626
13:45:56.338,14.3751,29.6251
13:45:56.348,14.0626,29.2501
13:45:56.357,13.9376,27.3126
13:45:56.367,13.4376,25.3751
13:45:56.378,12.8125,23.5626
13:45:56.387,12.375,22.3751
13:45:56.398,11.9375,20.0626
13:45:56.408,11.5625,19.4376
13:45:56.420,10.5625,19.2501
13:45:56.427,10.25,17.8126
13:45:56.438,9.25,15.4376
13:45:56.448,8.5,14.3751
13:45:56.457,7.9375,13.3126
13:45:56.468,7.875,10.25
13:45:56.477,7.1875,8.6875
13:45:56.488,6.5,7.3125
13:45:56.497,5.4375,5.8125
13:45:56.510,4.75,5.375
13:45:56.517,4.25,2.9375
13:45:56.534,3.625,2
13:45:56.573,3.6875,1.1875
13:45:56.573,2.5625,0.125
13:45:56.576,2.3125,-2.1875
13:45:56.578,1.25,-3.25
13:45:56.585,0.5,-4.3125
13:45:56.615,0.5,-5.8125
13:45:56.618,-0.125,-6.75
13:45:56.621,-0.4375,-7.0625
13:45:56.627,-1,-8.75
13:45:56.635,-1.4375,-8.8125
13:45:56.670,-2.5,-10
13:45:56.670,-3,-11.5625
13:45:56.673,-3.3125,-14.5626
13:45:56.675,-3.75,-16.8751
13:45:56.708,-5.25,-19.1876
13:45:56.709,-7.4375,-20.9376
13:45:56.712,-8.3125,-23.2501
13:45:56.716,-8.5625,-24.4376
13:45:56.723,-9.5,-26.7501
13:45:56.733,-9.8125,-27.6251
13:45:56.742,-10.0625,-27.8126
13:45:56.753,-9.4375,-25.0001
13:45:56.762,-7.3125,-21.0001
13:45:56.773,-3.6875,-11.25
13:45:56.783,0.5,0.0625
13:45:56.793,6,14.4376
13:45:56.802,10.25,26.5626
13:45:56.812,13.9376,35.0001
13:45:56.823,15.3751,42.0627
13:45:56.833,16.9376,44.6252
13:45:56.842,17.7501,47.9377
13:45:56.852,17.9376,49.1877
13:45:56.862,18.6251,50.4377
13:45:56.873,19.3126,50.3127
13:45:56.882,18.3126,50.1252
13:45:56.893,18.3751,50.0002
13:45:56.903,18.0626,50.0002
13:45:56.913,17.6876,48.5627
13:45:56.922,17.4376,48.9377
13:45:56.933,17.3126,47.6877
13:45:56.943,17.6251,48.3752
13:45:56.952,17.6876,47.5002
13:45:56.962,17.8126,46.4377
13:45:56.972,16.8751,46.1877
13:45:56.983,16.5313,45.8752
13:45:56.993,17.0313,43.5627
13:45:57.002,15.7188,41.7502
13:45:57.012,15.6251,41.4377
13:45:57.022,15.0313,39.2502
13:45:57.033,14.7188,37.0626
13:45:57.042,14.2501,36.3126
13:45:57.053,14.5938,36.0001
13:45:57.062,14.7188,34.8751
13:45:57.072,14.7188,35.1876
13:45:57.110,14.2501,34.3126
13:45:57.110,14.4376,33.6251
13:45:57.113,13.9688,34.6876
13:45:57.115,15.0001,34.1251
13:45:57.127,14.8126,33.4376
13:45:57.133,13.8438,34.7501
13:45:57.144,14.5313,33.6876
13:45:57.153,14.0001,32.4376
13:45:57.162,13.5626,32.5626
13:45:57.172,13.7501,31.8126
13:45:57.183,13.4688,30.7501
13:45:57.192,13,31.0626
13:45:57.203,12.4063,30.0001
13:45:57.213,13.5313,28.3751
13:45:57.222,12.0625,26.9376
13:45:57.233,11.7188,27.4376
13:45:57.244,12.2813,25.8126
13:45:57.253,11.5313,24.3126
13:45:57.268,11.5,23.7501
13:45:57.293,10.9375,23.4376
13:45:57.296,10.375,22.6876
13:45:57.297,10.1875,20.8751
13:45:57.303,9.0625,19.1876
13:45:57.333,8.9688,19.5626
13:45:57.335,8.4063,18.0001
13:45:57.337,8.375,15.8126
13:45:57.345,7.5,14.6251
13:45:57.370,6.625,13.5001
13:45:57.374,6.8438,12.5
13:45:57.375,6.1563,10
13:45:57.385,4.6875,9
13:45:57.418,4.0938,7.75
13:45:57.421,4.5,5.25
13:45:57.422,3.3125,3.4375
13:45:57.428,2.3125,1.25
13:45:57.439,1.1875,-0.4375
13:45:57.445,1.1875,-3
13:45:57.452,-0.5313,-5.5625
13:45:57.471,-1.6875,-8.375
13:45:57.473,-2.8438,-10.3125
13:45:57.487,-4.1875,-12.4375
13:45:57.504,-5.0313,-16.0001
13:45:57.505,-6.4688,-19.8751
13:45:57.520,-7.7813,-22.5626
13:45:57.524,-9.9063,-25.3751
13:45:57.532,-10.8125,-27.5001
13:45:57.543,-11.375,-31.3126
13:45:57.559,-13.0313,-32.6876
13:45:57.575,-13.7188,-32.9376
13:45:57.578,-13.2501,-33.3751
13:45:57.592,-12.8125,-29.7501
13:45:57.595,-10.3125,-21.8751
13:45:57.609,-6.375,-10
13:45:57.614,-0.6875,3.5
13:45:57.622,4.3438,18.5626
13:45:57.633,8.1875,27.8126
13:45:57.642,10.0938,34.8751
13:45:57.653,11.5938,39.0626
13:45:57.663,13.5313,42.4377
13:45:57.673,14.7501,44.6877
13:45:57.683,15.2501,47.5002
13:45:57.693,16.4688,48.6877
13:45:57.704,17.0313,49.5002
13:45:57.713,17.3751,50.6877
13:45:57.722,17.4688,51.3752
13:45:57.733,17.6251,52.7502
13:45:57.742,19.1251,51.5627
13:45:57.753,18.9376,52.1877
13:45:57.762,19.9688,52.5627
13:45:57.772,20.2188,53.0627
13:45:57.783,20.3751,53.1877
13:45:57.793,20.1251,53.7502
13:45:57.803,20.3126,52.8127
13:45:57.812,19.8438,51.2502
13:45:57.822,19.4063,49.7502
13:45:57.832,19.0001,48.5627
13:45:57.847,18.9063,48.2502
13:45:57.852,18.9063,45.8127
13:45:57.862,18.1563,45.8752
13:45:57.873,17.9688,44.0627
13:45:57.883,18.0626,43.3127
13:45:57.893,18.5938,42.8127
13:45:57.902,18.4376,42.8752
13:45:57.913,17.8751,43.2502
13:45:57.923,18.9688,42.2502
13:45:57.933,18.5938,42.3752
13:45:57.943,18.8126,41.8127
13:45:57.953,17.6563,41.6252
13:45:57.962,18.3126,40.8127
13:45:57.973,17.2813,40.2502
13:45:57.983,17.3126,39.7502
13:45:57.993,16.9376,38.3751
13:45:58.003,16.4063,37.1876
13:45:58.012,16.0313,36.2501
13:45:58.022,15.5313,34.3126
13:45:58.032,14.9063,34.0001
13:45:58.042,14.7188,32.5001
13:45:58.052,14.1563,31.4376
13:45:58.077,13.4376,30.0626
13:45:58.079,12.8438,28.5626
13:45:58.084,12.0938,26.6251
13:45:58.121,11.3438,24.1876
13:45:58.123,10.3125,20.8751
13:45:58.125,9.6875,18.9376
13:45:58.131,7.875,15.3126
13:45:58.134,6.5625,13.2501
13:45:58.173,5.1875,9.625
13:45:58.174,3.9063,6.625
13:45:58.179,3.3438,4.0625
13:45:58.181,0.8438,1.5
13:45:58.184,-0.375,-2.25
13:45:58.210,-1.2813,-5.375
13:45:58.213,-3.1875,-8.6875
13:45:58.215,-3.5,-10.25
13:45:58.246,-5.7188,-14.0626
13:45:58.247,-7.5625,-17.0001
13:45:58.249,-8.0625,-20.4376
13:45:58.256,-9.0313,-23.3751
13:45:58.265,-10,-25.3751
13:45:58.273,-11.7813,-28.2501
13:45:58.282,-12.7813,-30.1876
13:45:58.293,-14.1251,-33.0626
13:45:58.304,-15.5938,-34.6876
13:45:58.312,-16.1876,-37.1876
13:45:58.323,-16.2813,-39.7502
13:45:58.332,-17.7501,-40.8127
13:45:58.342,-18.8126,-42.1877
13:45:58.353,-20.0001,-44.6877
13:45:58.385,-19.6876,-45.3127
13:45:58.389,-20.1563,-45.0627
13:45:58.390,-19.9063,-41.6252
13:45:58.397,-17.5001,-36.8126
13:45:58.405,-13.6563,-26.1251
13:45:58.413,-6.875,-10.875
13:45:58.423,0.0625,5.4375
13:45:58.433,6.375,21.8126
13:45:58.443,11.4688,33.2501
13:45:58.452,13.9063,40.6877
13:45:58.463,16.5313,46.3752
13:45:58.473,17.7813,50.7502
13:45:58.483,19.3126,54.4377
13:45:58.493,20.6563,56.8752
13:45:58.503,21.5001,58.8752
13:45:58.512,22.0313,59.0002
13:45:58.522,22.9688,60.6252
13:45:58.533,23.8751,60.7502
13:45:58.542,23.0938,61.1252
13:45:58.553,23.6251,62.3752
13:45:58.563,23.9376,62.8752
13:45:58.573,24.3438,63.0002
13:45:58.583,24.3126,63.1877
13:45:58.593,24.7188,64.3127
13:45:58.602,24.8751,63.0627
13:45:58.613,24.7813,62.3752
13:45:58.622,23.9376,61.5627
13:45:58.632,24.2188,59.8752
13:45:58.644,23.2501,58.9377
13:45:58.652,23.1251,57.0627
13:45:58.663,22.4376,55.4377
13:45:58.672,22.7501,54.5627
13:45:58.683,21.9376,54.0002
13:45:58.692,21.7188,52.6252
13:45:58.703,21.4376,52.2502
13:45:58.712,21.2813,52.0002
13:45:58.723,20.6876,51.3752
13:45:58.733,20.6876,49.3752
13:45:58.742,19.7813,49.3127
13:45:58.752,19.4063,48.3752
13:45:58.762,19.4688,46.7502
13:45:58.774,18.8751,45.3752
13:45:58.807,17.6563,43.7502
13:45:58.810,17.8438,41.8752
13:45:58.963,17.7813,40.3752
13:45:58.965,16.1251,38.1876
13:45:58.973,15.9376,36.6251
13:45:58.978,14.7813,33.1251
13:45:58.981,13.3751,30.8126
13:45:58.981,11.9063,27.4376
13:45:58.981,9.9375,25.0626
13:45:58.982,8.875,22.0001
13:45:58.992,6.8438,18.6251
13:45:59.002,5.6875,16.0001
13:45:59.019,4.0938,12.0625
13:45:59.025,2.5313,9.8125
13:45:59.034,1.0625,5.3125
13:45:59.042,-0.4063,2.5625
13:45:59.053,-1.5625,-0.3125
13:45:59.063,-3.4688,-4
13:45:59.073,-4.4375,-7.5
13:45:59.083,-6.0313,-9.75
13:45:59.093,-7.4375,-12.6875
13:45:59.103,-8.7813,-16.4376
13:45:59.114,-9.625,-18.7501
13:45:59.124,-10.875,-20.8126
13:45:59.133,-11.9375,-23.4376
13:45:59.142,-25.9688,-56.6252
13:45:59.153,-26.7814,-57.8127
13:45:59.164,-27.1251,-58.6877
13:45:59.173,-27.6876,-59.8127
13:45:59.182,-27.7814,-60.2502
13:45:59.193,-28.4689,-61.5627
13:45:59.204,-29.1564,-62.6877
13:45:59.213,-29.0939,-63.2502
13:45:59.224,-30.5001,-64.3127
13:45:59.233,-30.6251,-65.4378
13:45:59.243,-31.0626,-66.0628
13:45:59.253,-31.7189,-67.1253
13:45:59.263,-31.5314,-65.7503
13:45:59.274,-31.7501,-62.8127
13:45:59.282,-29.5314,-60.1252
13:45:59.292,-26.0626,-50.6252
13:45:59.302,-20.0938,-35.9376
13:45:59.313,-13.2501,-16.5626
13:45:59.324,-4.75,2.1875
13:45:59.333,2.0625,18.5626
13:45:59.343,6.125,31.5626
13:45:59.352,9.375,37.5001
13:45:59.364,11.4063,43.9377
13:45:59.373,13.9688,47.4377
13:45:59.382,14.4688,51.5627
13:45:59.395,16.6563,52.5002
13:45:59.405,17.0313,55.0002
13:45:59.413,17.3438,55.3752
13:45:59.422,17.6563,55.9377
13:45:59.433,18.2188,56.3127
13:45:59.442,18.0626,56.8752
13:45:59.452,18.8438,56.0627
13:45:59.463,18.8751,57.2502
13:45:59.473,19.2813,55.5002
13:45:59.482,18.3126,55.8127
13:45:59.492,18.3438,53.6877
13:45:59.504,18.1251,52.8752
13:45:59.513,17.7813,51.8752
13:45:59.551,16.1251,50.0627
13:45:59.553,15.4376,48.4377
13:45:59.557,14.5001,45.6252
13:45:59.584,13.4376,42.5627
13:45:59.584,12.5625,40.7502
13:45:59.586,11.7813,38.1876
13:45:59.592,10.6563,35.1251
13:45:59.621,9.875,32.2501
13:45:59.623,9.1875,30.0001
13:45:59.625,8.7188,27.6876
13:45:59.657,8.3438,25.9376
13:45:59.657,8,23.9376
13:45:59.659,7.8125,22.6876
13:45:59.674,8.0625,22.9376
13:45:59.678,7.6875,22.4376
13:45:59.679,8.25,21.4376
13:45:59.706,7.5,21.3751
13:45:59.710,6.875,19.5001
13:45:59.711,6.1563,18.7501
13:45:59.718,5.4375,17.6876
13:45:59.729,4.9063,16.7501
13:45:59.738,3.2813,15.6251
13:45:59.748,2.2188,14.1251
13:45:59.758,1.25,12.8125
13:45:59.771,0.1875,11.25
13:45:59.778,-1,10.8125
13:45:59.787,-0.875,8.3125
13:45:59.804,-2.9688,7.25
13:45:59.814,-3.5625,6.25
13:45:59.822,-4.4688,4
13:45:59.833,-4.7813,3.375
13:45:59.843,-6.2188,1.9375
13:45:59.853,-6.375,1.125
13:45:59.862,-7.5625,-0.4375
13:45:59.873,-8.8438,-1.25
13:45:59.884,-9.5313,-1.4375
13:45:59.894,-11.0313,-2.25
13:45:59.903,-11,-2.875
13:45:59.913,-12.4688,-3.875
13:45:59.924,-11.5938,-5.3125
13:45:59.933,-12.3438,-6
13:45:59.944,-12.0625,-8.25
13:45:59.953,-12.5625,-10
13:45:59.962,-12.7188,-11.4375
13:45:59.974,-13.6251,-13.8751
13:45:59.984,-14.1563,-15.9376
13:45:59.993,-14.8126,-16.9376
13:46:00.005,-15.7188,-19.2501
13:46:00.016,-16.1876,-20.4376
13:46:00.023,-17.3751,-23.1251
13:46:00.033,-17.6251,-24.1876
13:46:00.042,-18.3126,-26.2501
13:46:00.053,-18.1563,-29.5001
13:46:00.062,-18.1876,-31.6251
13:46:00.074,-19.2188,-33.6876
13:46:00.082,-19.8438,-37.0626
13:46:00.094,-19.3438,-38.7501
13:46:00.103,-19.5938,-40.1877
13:46:00.114,-19.9063,-42.1877
13:46:00.124,-19.1563,-44.4377
13:46:00.133,-19.1876,-43.9377
13:46:00.146,-17.4376,-42.7502
13:46:00.163,-14.1876,-36.9376
13:46:00.165,-10.4688,-26.1251
13:46:00.232,-4.8438,-15.0001
13:46:00.260,1.2188,-0.9375
13:46:00.262,7.4063,12.5625
13:46:00.265,10.6875,22.8751
13:46:00.300,14.0313,29.6251
13:46:00.300,16.2813,33.5626
13:46:00.300,18.5938,36.6876
13:46:00.300,19.1563,38.5001
13:46:00.356,20.7813,40.3127
13:46:00.356,22.0313,40.1252
13:46:00.362,22.5938,41.8127
13:46:00.362,23.1563,41.0002
13:46:00.363,23.5938,42.2502
13:46:00.374,24.5626,39.8127
13:46:00.384,24.1251,40.1252
13:46:00.393,24.7813,39.5627
13:46:00.403,24.2501,38.5001
13:46:00.413,24.4688,38.1876
13:46:00.424,25.0001,36.0001
13:46:00.433,24.2501,34.3126
13:46:00.444,22.9688,32.5001
13:46:00.452,22.5001,29.8126
13:46:00.464,21.7188,26.5626
13:46:00.474,19.0313,16.1876
13:46:00.484,18.6876,15.3126
13:46:00.493,18.4063,12.8125
13:46:00.505,17.2501,11.875
13:46:00.514,17.0001,9.25
13:46:00.523,14.7188,0.6875
13:46:00.534,14.1876,-0.5
13:46:00.542,13,-2.5625
13:46:00.553,12.625,-4.75
13:46:00.564,10.4688,-7.25
13:46:00.574,10.4375,-10
13:46:00.583,8.75,-12.875
13:46:00.594,8.5625,-15.3751
13:46:00.602,6.6875,-17.7501
13:46:00.614,5.875,-20.5626
13:46:00.622,5.1875,-23.1876
13:46:00.634,2.9375,-26.0626
13:46:00.642,2.9375,-29.0626
13:46:00.654,1.5,-31.0626
13:46:00.664,0.5938,-33.8751
13:46:00.674,-0.8438,-36.6251
13:46:00.684,-1.5313,-38.7501
13:46:00.694,-2.6875,-41.8127
13:46:00.704,-3.5,-43.6252
13:46:00.714,-4.125,-45.1877
13:46:00.729,-5.9063,-47.5002
13:46:00.739,-6.8438,-49.2502
13:46:00.748,-6.6875,-49.5627
13:46:00.758,-8.1875,-51.8752
13:46:00.768,-8.375,-51.8752
13:46:00.779,-9.1875,-53.7502
13:46:00.789,-9.9688,-55.0002
13:46:00.797,-10.0938,-56.0627
13:46:00.809,-10.2188,-55.3752
13:46:00.818,-10.7188,-57.3127
13:46:00.829,-10.7813,-56.8127
13:46:00.838,-11.7188,-57.1252
13:46:00.849,-12.0625,-58.5627
13:46:00.858,-11.3438,-59.3127
13:46:00.869,-12.8125,-59.9377
13:46:00.878,-12.7188,-60.4377
13:46:00.899,-13.5626,-61.1877
13:46:00.903,-13.5938,-61.4377
13:46:00.910,-14.3126,-61.2502
13:46:00.946,-14.3126,-62.6877
13:46:00.948,-14.4376,-61.8127
13:46:00.950,-14.6563,-61.6252
13:46:00.953,-14.2188,-60.1877
13:46:00.961,-13.1876,-58.3752
13:46:00.989,-11.5938,-54.0002
13:46:00.993,-9.25,-47.4377
13:46:00.994,-5.375,-34.9376
13:46:00.999,0.4688,-21.7501
13:46:01.034,5.0625,-5.0625
13:46:01.035,10.7188,7
13:46:01.037,14.0938,18.6251
13:46:01.043,18.0313,26.1876
13:46:01.074,21.0626,34.8751
13:46:01.076,23.3438,39.0001
13:46:01.078,24.1563,42.1252
13:46:01.083,24.8126,43.7502
13:46:01.093,25.4063,43.6877
13:46:01.099,25.5001,44.6252
13:46:01.109,24.8126,43.4377
13:46:01.117,24.9063,42.5002
13:46:01.129,24.2813,41.5002
13:46:01.139,24.1251,41.7502
13:46:01.149,24.0626,39.7502
13:46:01.158,22.5313,39.1252
13:46:01.169,22.7501,37.1876
13:46:01.179,21.4063,34.5626
13:46:01.189,19.7188,32.5001
13:46:01.198,19.0626,30.3126
13:46:01.210,16.6876,26.0626
13:46:01.220,16.2188,22.2501
13:46:01.227,13.8751,20.0626
13:46:01.239,12.625,16.8751
13:46:01.249,11.4688,12.4375
13:46:01.257,10.8438,10.25
13:46:01.269,9.1563,8.25
13:46:01.279,8.4063,5.6875
13:46:01.289,7.75,3.25
13:46:01.297,6.2813,2.3125
13:46:01.309,5.875,-0.8125
13:46:01.319,4.4688,-1.5
13:46:01.329,4.1563,-3.6875
13:46:01.342,3.2813,-4.6875
13:46:01.349,2.4688,-7.25
13:46:01.358,1.5313,-10.0625
13:46:01.369,0.3438,-10.8125
13:46:01.377,-0.4688,-13.6251
13:46:01.388,-1.0625,-15.6876
13:46:01.399,-1.5,-17.8126
13:46:01.407,-3.5313,-19.6251
13:46:01.418,-3.2188,-22.2501
13:46:01.429,-5.1875,-23.8751
13:46:01.438,-5.4688,-26.4376
13:46:01.449,-7.2188,-29.0001
13:46:01.459,-7.6563,-31.2501
13:46:01.469,-9.2813,-33.7501
13:46:01.479,-9.625,-35.9376
13:46:01.489,-11.4063,-38.1876
13:46:01.499,-11.4375,-40.1252
13:46:01.509,-13.4688,-41.5002
13:46:01.517,-13.4063,-43.7502
13:46:01.528,-15.0626,-45.3127
13:46:01.539,-15.5626,-46.5002
13:46:01.550,-16.2188,-47.3127
13:46:01.564,-17.2813,-50.0627
13:46:01.580,-17.1876,-50.4377
13:46:01.583,-18.3751,-50.1877
13:46:01.597,-18.3751,-52.8752
13:46:01.600,-18.1251,-52.8752
13:46:01.615,-19.5001,-52.8752
13:46:01.630,-19.8751,-55.0627
13:46:01.632,-19.0626,-54.2502
13:46:01.647,-20.1251,-55.8752
13:46:01.662,-20.5313,-56.1877
13:46:01.664,-21.4063,-54.9377
13:46:01.671,-21.6563,-57.0002
13:46:01.678,-21.0001,-56.6877
13:46:01.688,-22.0001,-57.3752
13:46:01.700,-22.5626,-57.5627
13:46:01.731,-22.5626,-57.1877
13:46:01.732,-22.3438,-58.4377
13:46:01.734,-23.3438,-58.3752
13:46:01.740,-23.2501,-58.7502
13:46:01.770,-23.4688,-59.7502
13:46:01.772,-23.5626,-58.8752
13:46:01.774,-23.1251,-58.4377
13:46:01.780,-23.4688,-57.5002
13:46:01.808,-23.4063,-56.2502
13:46:01.810,-22.2813,-55.0627
13:46:01.812,-21.5626,-50.2502
13:46:01.819,-19.0938,-43.7502
13:46:01.851,-14.4376,-33.3751
13:46:01.853,-8.9688,-17.9376
13:46:01.856,-2.8438,-2.5625
13:46:01.859,1.7188,11.5
13:46:01.874,6.25,22.5001
13:46:01.879,9.7188,31.3751
13:46:01.889,11.875,38.5626
13:46:01.897,14.7188,42.8752
13:46:01.908,16.1251,46.6252
13:46:01.918,16.7501,47.9377
13:46:01.929,17.2188,49.6877
13:46:01.938,17.5001,48.8127
13:46:01.949,17.0626,49.0627
13:46:01.958,16.7188,47.4377
13:46:01.969,16.1251,47.6877
13:46:01.979,16.8751,46.1877
13:46:01.988,16.2188,45.5627
13:46:01.998,15.5001,43.8752
13:46:02.008,14.7188,43.2502
13:46:02.019,14.5626,40.5002
13:46:02.029,12.9063,38.3751
13:46:02.039,12.0313,35.4376
13:46:02.047,10.4375,32.1876
13:46:02.059,9.2813,28.8751
13:46:02.067,8.0313,24.4376
13:46:02.079,6.125,21.6876
13:46:02.088,4.9063,17.8126
13:46:02.100,3.5938,14.9376
13:46:02.107,2.4375,12.5
13:46:02.119,1.9375,9.4375
13:46:02.128,1.3125,8.4375
13:46:02.138,0.0938,5.3125
13:46:02.149,-0.4063,4.0625
13:46:02.157,-1.2188,1.5
13:46:02.169,-1.9063,1.125
13:46:02.178,-2.3438,-0.8125
13:46:02.188,-2.9688,-2.3125
13:46:02.199,-3.8438,-4.4375
13:46:02.233,-4.3438,-5.6875
13:46:02.234,-5.4063,-8.625
13:46:02.237,-5.7188,-9.625
13:46:02.240,-6.2188,-12.0625
13:46:02.249,-7.375,-13.7501
13:46:02.259,-8.2813,-16.1251
13:46:02.270,-9.0313,-18.1251
13:46:02.279,-10.2813,-20.1876
13:46:02.289,-11,-23.3126
13:46:02.299,-11.7813,-25.1876
13:46:02.309,-13.125,-27.0001
13:46:02.317,-12.8125,-29.1876
13:46:02.329,-14.3751,-31.4376
13:46:02.340,-14.5626,-33.6876
13:46:02.349,-16.2188,-35.0001
13:46:02.359,-16.7501,-37.8751
13:46:02.369,-16.9688,-38.6876
13:46:02.379,-17.6876,-40.8752
13:46:02.390,-18.1563,-42.5002
13:46:02.398,-18.5938,-42.2502
13:46:02.422,-19.5626,-44.0002
13:46:02.425,-18.8438,-44.7502
13:46:02.429,-20.1251,-46.2502
13:46:02.459,-20.5001,-47.7502
13:46:02.462,-20.2501,-47.3752
13:46:02.464,-21.0001,-47.5002
13:46:02.471,-21.5001,-49.6877
13:46:02.505,-21.1876,-49.7502
13:46:02.509,-22.0626,-50.8127
13:46:02.511,-22.0938,-51.3752
13:46:02.535,-22.4376,-51.2502
13:46:02.536,-22.5626,-52.5627
13:46:02.539,-22.9376,-52.3752
13:46:02.544,-23.3751,-53.3752
13:46:02.579,-22.9063,-53.0002
13:46:02.585,-22.8438,-53.6252
13:46:02.585,-22.9063,-51.9377
13:46:02.586,-22.0313,-50.7502
13:46:02.593,-21.1251,-46.5627
13:46:02.600,-19.1563,-40.8127
13:46:02.609,-15.3438,-30.6251
13:46:02.619,-9.8125,-17.6876
13:46:02.630,-5.1875,-1.6875
13:46:02.639,0.3438,10.375
13:46:02.649,3.6563,21.5626
13:46:02.659,7.5938,30.1251
13:46:02.669,10.2188,36.6251
13:46:02.679,12.5313,41.4377
13:46:02.688,14.0001,44.2502
13:46:02.698,14.5001,46.5627
13:46:02.707,15.0001,46.4377
13:46:02.718,14.2501,46.6252
13:46:02.729,14.3751,45.5627
13:46:02.738,14.1563,44.6877
13:46:02.749,13.1563,43.1252
13:46:02.760,13,42.5002
13:46:02.769,12.4688,40.3752
13:46:02.779,12.0938,39.0001
13:46:02.789,10.8438,35.6251
13:46:02.799,9.2813,34.2501
13:46:02.809,9.3438,30.5001
13:46:02.819,7.2813,26.8126
13:46:02.829,5.8438,23.7501
13:46:02.838,5.0625,20.1876
13:46:02.848,3.5938,17.5001
13:46:02.857,2.5313,14.5626
13:46:02.868,1.5938,11.8125
13:46:02.878,0.9375,9.8125
13:46:02.888,-0.1563,7.9375
13:46:02.899,-0.5625,7.5625
13:46:02.913,-0.4688,4.75
13:46:02.923,-2.0625,4.0625
13:46:02.929,-2.3438,2.375
13:46:02.971,-2.9063,-0.3125
13:46:02.977,-3.2188,-0.3125
13:46:02.993,-3.5625,-2.0625
13:46:02.995,-4.1875,-3.75
13:46:02.996,-4.0938,-5
13:46:03.002,-5.5625,-7.6875
13:46:03.002,-6.0313,-9.6875
13:46:03.008,-7.2813,-11.375
13:46:03.019,-8.0313,-13.4376
13:46:03.029,-8.3125,-15.6876
13:46:03.039,-9.7813,-17.0626
13:46:03.049,-10,-20.3751
13:46:03.058,-11.375,-21.6876
13:46:03.069,-11.8125,-24.3126
13:46:03.078,-12.8125,-26.2501
13:46:03.088,-13,-28.8751
13:46:03.098,-14.4376,-29.1251
13:46:03.109,-14.4376,-32.5001
13:46:03.119,-15.8438,-34.5001
13:46:03.157,-16.0626,-35.5626
13:46:03.161,-16.6251,-38.2501
13:46:03.161,-17.5001,-38.6251
13:46:03.164,-17.7813,-40.8752
13:46:03.170,-18.4688,-42.2502
13:46:03.202,-18.1251,-42.9377
13:46:03.206,-19.3126,-44.1877
13:46:03.207,-19.6876,-45.0002
13:46:03.214,-19.7501,-45.0627
13:46:03.220,-20.3438,-47.5627
13:46:03.245,-20.5313,-47.5627
13:46:03.248,-21.4376,-47.9377
13:46:03.250,-21.0001,-48.6252
13:46:03.259,-21.5001,-48.0627
13:46:03.295,-21.5001,-50.6877
13:46:03.295,-21.7813,-50.2502
13:46:03.298,-22.2813,-50.6252
13:46:03.304,-22.0001,-51.1252
13:46:03.309,-22.2188,-50.7502
13:46:03.318,-22.2501,-51.3127
13:46:03.328,-22.4688,-50.0627
13:46:03.339,-21.9063,-48.5627
13:46:03.350,-20.6563,-44.7502
13:46:03.360,-17.5001,-38.3126
13:46:03.369,-14.0626,-27.4376
13:46:03.378,-8.125,-12.5
13:46:03.389,-2.6875,4.375
13:46:03.400,3.5,20.9376
13:46:03.409,8.3438,31.2501
13:46:03.419,12.8438,42.0627
13:46:03.428,15.5938,50.6877
13:46:03.439,17.9688,55.1252
13:46:03.449,19.1251,58.4377
13:46:03.458,20.2188,60.0002
13:46:03.468,20.0938,59.6877
13:46:03.479,20.7813,59.1877
13:46:03.506,19.7501,59.1252
13:46:03.509,19.8438,58.3752
13:46:03.511,19.3438,57.4377
13:46:03.520,19.3126,56.5002
13:46:03.529,19.0626,54.8752
13:46:03.539,18.5313,54.5002
13:46:03.548,18.1251,52.5002
13:46:03.558,17.2501,51.2502
13:46:03.569,17.2813,49.5627
13:46:03.580,16.0626,46.2502
13:46:03.589,14.7813,44.0627
13:46:03.599,13.3751,40.2502
13:46:03.609,12.1875,37.8126
13:46:03.618,11.25,34.0001
13:46:03.629,10,31.4376
13:46:03.639,9.9688,28.8751
13:46:03.649,8.375,26.0626
13:46:03.659,8.0938,23.5626
13:46:03.669,6.4688,21.7501
13:46:03.679,6.2813,20.1251
13:46:03.689,5.25,18.6876
13:46:03.699,4.4375,17.4376
13:46:03.709,4.3125,15.2501
13:46:03.724,3.9688,14.1251
13:46:03.728,3.2188,13.2501
13:46:03.739,2.625,10.6875
13:46:03.749,2.3125,9.4375
13:46:03.758,1.5,7.625
13:46:03.769,0.6875,6.9375
13:46:03.778,-0.0313,3.875
13:46:03.788,-0.2813,2.75
13:46:03.800,-1.5,0
13:46:03.809,-2.4375,-2.75
13:46:03.818,-3.0313,-4.3125
13:46:03.828,-4.4063,-6.4375
13:46:03.839,-4.7188,-9.5625
13:46:03.849,-5.9375,-11.8125
13:46:03.859,-7,-14.3126
13:46:03.870,-7.5625,-17.6251
13:46:03.880,-8.7188,-19.6251
13:46:03.919,-9.9375,-22.5626
13:46:03.922,-10.9688,-25.8751
13:46:03.924,-11.6563,-27.8126
13:46:03.926,-12.1563,-29.6876
13:46:03.929,-13.3751,-32.0001
13:46:03.966,-13.0938,-33.9376
13:46:03.966,-15.6251,-36.1251
13:46:03.969,-15.5001,-38.1876
13:46:03.976,-16.4376,-39.2502
13:46:03.982,-16.5001,-41.2502
13:46:04.015,-17.0626,-42.0002
13:46:04.016,-17.2188,-42.9377
13:46:04.020,-18.6876,-44.5002
13:46:04.021,-19.2501,-46.0002
13:46:04.055,-19.5938,-46.4377
13:46:04.057,-19.7188,-48.1877
13:46:04.061,-19.7501,-48.0627
13:46:04.065,-21.0626,-48.4377
13:46:04.069,-21.0313,-50.4377
13:46:04.079,-21.6563,-49.6877
13:46:04.089,-21.5938,-51.5002
13:46:04.103,-21.5313,-51.5002
13:46:04.108,-22.0001,-51.4377
13:46:04.119,-22.1251,-51.9377
13:46:04.129,-22.4063,-52.3752
13:46:04.139,-21.6876,-51.4377
13:46:04.149,-20.9688,-48.5002
13:46:04.158,-18.5938,-42.3752
13:46:04.169,-14.8751,-32.9376
13:46:04.179,-9.5625,-18.3751
13:46:04.189,-2.9688,-1.375
13:46:04.199,3.2188,16.9376
13:46:04.209,9.1563,29.3126
13:46:04.219,13.6563,41.2502
13:46:04.238,17.4063,50.9377
13:46:04.240,19.4376,55.9377
13:46:04.283,21.0626,58.8127
13:46:04.287,21.0626,60.5627
13:46:04.291,21.9063,61.1877
13:46:04.305,21.6876,61.4377
13:46:04.306,22.1563,60.6252
13:46:04.322,21.2188,60.4377
13:46:04.325,21.3438,59.7502
13:46:04.336,21.1251,58.9377
13:46:04.339,20.9376,58.4377
13:46:04.341,21.0626,56.5002
13:46:04.348,20.1876,56.8752
13:46:04.358,19.9688,54.5002
13:46:04.368,19.0938,52.1252
13:46:04.380,18.4376,51.3752
13:46:04.389,17.5626,48.8752
13:46:04.398,16.0001,46.3127
13:46:04.409,14.8438,43.5002
13:46:04.418,14.3751,40.3127
13:46:04.429,12.5938,37.6251
13:46:04.438,12.5625,34.5626
13:46:04.448,10.7813,32.5001
13:46:04.458,10.75,30.0001
13:46:04.471,9.8438,28.4376
13:46:04.481,8.4375,25.8751
13:46:04.489,8.4688,24.9376
13:46:04.499,7.9375,22.6251
13:46:04.509,7.0313,20.9376
13:46:04.519,7.0313,19.5626
13:46:04.529,6.25,18.6251
13:46:04.539,6.0625,17.4376
13:46:04.549,5.3125,15.4376
13:46:04.559,4.9375,14.3126
13:46:04.569,4.4375,12.5
13:46:04.579,3.875,10.6875
13:46:04.589,2.0938,8.3125
13:46:04.598,2.4063,6.75
13:46:04.609,1.1563,4.3125
13:46:04.621,0.5313,1.6875
13:46:04.649,-1.1563,-0.125
13:46:04.652,-1.3438,-2.75
13:46:04.654,-2.8125,-4.875
13:46:04.661,-3.6875,-7.75
13:46:04.693,-4.6875,-11
13:46:04.697,-6.625,-12.4375
13:46:04.697,-6.8125,-15.9376
13:46:04.699,-8.375,-18.4376
13:46:04.739,-9.2813,-21.9376
13:46:04.739,-10.2813,-23.5626
13:46:04.743,-10.5313,-26.3126
13:46:04.748,-12.125,-27.7501
13:46:04.760,-12.4375,-30.4376
13:46:04.786,-13.3126,-32.1251
13:46:04.788,-13.9688,-33.8751
13:46:04.791,-14.6563,-36.6876
13:46:04.794,-15.1251,-37.3751
13:46:04.804,-15.8126,-40.0002
13:46:04.814,-15.8751,-41.0627
13:46:04.824,-16.8126,-41.5002
13:46:04.834,-17.2188,-43.6252
13:46:04.848,-17.7501,-44.5002
13:46:04.855,-17.8751,-46.4377
13:46:04.864,-17.9063,-46.9377
13:46:04.874,-18.7813,-47.1252
13:46:04.885,-19.6563,-49.8127
13:46:04.894,-20.2813,-50.7502
13:46:04.904,-20.5313,-52.0002
13:46:04.914,-21.0001,-53.1252
13:46:04.924,-21.1563,-52.9377
13:46:04.934,-21.1876,-53.3752
13:46:04.944,-21.5626,-52.4377
13:46:04.954,-20.9688,-51.6252
13:46:04.964,-20.4063,-49.4377
13:46:04.973,-18.4376,-44.3127
13:46:04.983,-15.7501,-36.0001
13:46:04.994,-10.0625,-21.3126
13:46:05.004,-4.125,-3.8125
13:46:05.014,3.0938,12.5
13:46:05.024,8,27.0001
13:46:05.034,13,38.8751
13:46:05.045,16.3126,47.2502
13:46:05.054,18.3126,52.2502
13:46:05.064,19.2188,54.4377
13:46:05.074,19.8438,56.6252
13:46:05.084,19.6563,56.4377
13:46:05.094,19.8126,56.7502
13:46:05.104,19.9376,55.5627
13:46:05.115,19.5938,55.9377
13:46:05.124,19.6563,54.5002
13:46:05.135,18.9063,53.5002
13:46:05.144,19.3751,52.2502
13:46:05.154,18.1251,52.5627
13:46:05.164,18.3438,49.9377
13:46:05.174,17.2501,49.4377
13:46:05.184,17.5626,47.8127
13:46:05.194,16.6251,44.8752
13:46:05.204,14.9063,43.3752
13:46:05.214,14.0313,40.0002
13:46:05.224,12.9063,35.8751
13:46:05.235,12.375,34.0001
13:46:05.245,11.0625,30.5001
13:46:05.253,10.4375,28.3126
13:46:05.264,9.2813,25.0001
13:46:05.274,8.5,23.8126
13:46:05.285,8.3125,21.4376
13:46:05.294,7,20.0626
13:46:05.330,6.625,18.6876
13:46:05.333,5.7813,16.9376
13:46:05.334,6.2188,15.7501
13:46:05.336,5,14.5001
13:46:05.367,4.9688,13.125
13:46:05.369,4.2188,11.5
13:46:05.373,3.0625,9.8125
13:46:05.374,2.5938,8.25
13:46:05.406,1.8438,5.25
13:46:05.408,1.5938,4.0625
13:46:05.411,0.5938,1.875
13:46:05.434,-0.5938,-0.375
13:46:05.435,-1.4063,-2.9375
13:46:05.438,-2.7188,-5.1875
13:46:05.444,-3.0625,-7.6875
13:46:05.482,-4.25,-9.5
13:46:05.486,-5.25,-11.375
13:46:05.486,-6.1563,-14.6251
13:46:05.489,-6.8438,-17.4376
13:46:05.494,-7.9688,-19.4376
13:46:05.503,-8.3438,-22.0001
13:46:05.514,-9.7813,-24.1251
13:46:05.524,-10.8125,-26.2501
13:46:05.534,-11.3438,-29.1251
13:46:05.544,-12.25,-30.6251
13:46:05.553,-12.5,-32.8751
13:46:05.571,-12.9688,-35.0001
13:46:05.578,-14.7188,-36.9376
13:46:05.586,-14.9063,-39.0001
13:46:05.600,-15.1876,-39.8752
13:46:05.603,-16.8126,-41.6877
13:46:05.621,-16.8438,-43.8752
13:46:05.624,-16.5313,-44.6252
13:46:05.639,-17.8438,-45.1877
13:46:05.646,-17.1251,-46.6877
13:46:05.654,-18.2188,-47.3752
13:46:05.668,-18.8751,-48.0002
13:46:05.685,-19.0313,-49.6252
13:46:05.688,-20.1251,-49.6252
13:46:05.705,-20.0938,-51.5002
13:46:05.706,-20.2501,-52.2502
13:46:05.714,-20.9688,-52.6252
13:46:05.724,-21.2813,-53.0002
13:46:05.734,-21.2813,-54.1877
13:46:05.744,-21.3438,-54.2502
13:46:05.754,-21.5938,-55.1252
13:46:05.764,-22.8438,-54.8752
13:46:05.774,-21.9688,-55.1252
13:46:05.784,-22.2501,-55.1877
13:46:05.794,-22.4376,-53.2502
13:46:05.804,-21.5626,-51.7502
13:46:05.814,-20.0938,-48.2502
13:46:05.824,-17.3438,-39.3752
13:46:05.833,-12.9063,-28.1251
13:46:05.844,-6.75,-11.5
13:46:05.853,-1,5.375
13:46:05.864,3.7813,18.2501
13:46:05.874,8.3125,30.1876
13:46:05.884,12.875,38.6251
13:46:05.893,15.0938,44.9377
13:46:05.904,16.6563,48.6877
13:46:05.914,17.0938,48.8752
13:46:05.924,18.2501,50.6252
13:46:05.933,17.5626,49.4377
13:46:05.944,17.0938,48.6252
13:46:05.954,16.9688,47.3127
13:46:05.965,16.3438,46.4377
13:46:05.974,15.6876,44.7502
13:46:05.984,15.5001,43.5627
13:46:05.993,14.9063,42.0002
13:46:06.005,14.3751,40.6252
13:46:06.014,13.2813,37.6876
13:46:06.056,11.875,35.5626
13:46:06.057,10.3438,33.3126
13:46:06.060,9.6875,29.5626
13:46:06.074,8.0625,26.1251
13:46:06.078,7.5313,23.1876
13:46:06.078,5.9688,20.3126
13:46:06.106,5.1875,17.5626
13:46:06.108,4.5938,15.3126
13:46:06.135,3.2188,13.1251
13:46:06.136,2.3438,11
13:46:06.138,1.9375,9.4375
13:46:06.140,1.5,8.3125
13:46:06.146,1.1875,6.5
13:46:06.180,0.9688,6
13:46:06.182,0.5,3.6875
13:46:06.186,-0.1875,3.125
13:46:06.201,-0.0313,1.5625
13:46:06.202,-0.75,0.6875
13:46:06.205,-2.0313,-1.75
13:46:06.214,-2.6875,-3.4375
13:46:06.224,-3.6563,-5.75
13:46:06.234,-4,-7.6875
13:46:06.244,-4.9063,-10
13:46:06.254,-5.3125,-12.3125
13:46:06.264,-6.6875,-14.2501
13:46:06.274,-6.9063,-16.1876
13:46:06.284,-8.2813,-19.0001
13:46:06.294,-8.9688,-21.0626
13:46:06.304,-10.0625,-23.5001
13:46:06.314,-10.5,-25.3751
13:46:06.324,-11,-27.9376
13:46:06.334,-12.4375,-30.3126
13:46:06.348,-12.8125,-32.1251
13:46:06.354,-13.7813,-35.0001
13:46:06.364,-14.3126,-36.0626
13:46:06.373,-15.8751,-38.0001
13:46:06.383,-15.9376,-40.7502
13:46:06.394,-16.5626,-41.3127
13:46:06.404,-17.3751,-42.8752
13:46:06.413,-18.2501,-44.6252
13:46:06.423,-17.9063,-45.6877
13:46:06.434,-19.0001,-46.6252
13:46:06.444,-19.3126,-47.7502
13:46:06.454,-19.9376,-48.1252
13:46:06.463,-20.2501,-50.0627
13:46:06.474,-20.0001,-49.6877
13:46:06.484,-21.0001,-50.8752
13:46:06.494,-20.6251,-51.3752
13:46:06.504,-20.9063,-51.6877
13:46:06.514,-21.3126,-52.6252
13:46:06.524,-21.2188,-52.3127
13:46:06.533,-21.5313,-53.6252
13:46:06.543,-21.4063,-52.9377
13:46:06.554,-21.4688,-54.3127
13:46:06.564,-22.2501,-54.1252
13:46:06.573,-21.5313,-54.2502
13:46:06.584,-22.4688,-54.3752
13:46:06.594,-21.9063,-53.6252
13:46:06.605,-22.1251,-53.0627
13:46:06.614,-21.4376,-50.0627
13:46:06.623,-19.3126,-46.1252
13:46:06.633,-16.6876,-36.4376
13:46:06.644,-11.25,-24.0626
13:46:06.654,-5.375,-7.5625
13:46:06.663,1.0625,10.5
13:46:06.673,6.875,23.8751
13:46:06.684,11.5,36.3751
13:46:06.695,15.3751,45.3752
13:46:06.704,18.0001,52.0002
13:46:06.713,20.1251,55.7502
13:46:06.724,20.4063,58.0002
13:46:06.734,21.0626,58.1877
13:46:06.745,20.6563,58.5002
13:46:06.755,20.5938,57.0627
13:46:06.764,20.0313,55.4377
13:46:06.774,19.3751,55.8752
13:46:06.787,18.9063,52.8127
13:46:06.824,18.3126,53.1877
13:46:06.825,18.1563,51.1877
13:46:06.827,17.2188,49.6877
13:46:06.830,17.0001,49.0002
13:46:06.834,16.4376,46.1877
13:46:06.865,15.4376,43.0627
13:46:06.868,13.9688,40.9377
13:46:06.870,13.0625,37.3126
13:46:06.874,11.625,34.1876
13:46:06.904,11.3125,31.3751
13:46:06.908,9.4063,28.8751
13:46:06.908,8.2813,25.8126
13:46:06.937,6.8438,23.0001
13:46:06.969,6.125,20.5626
13:46:06.972,5.75,18.4376
13:46:06.974,4.7813,15.6876
13:46:06.974,4.2188,14.1876
13:46:06.974,3.875,12.75
13:46:07.001,2.8438,11
13:46:07.006,2.4375,10.25
13:46:07.021,2.1563,7.5625
13:46:07.025,0.75,7
13:46:07.035,0.4063,4.6875
13:46:07.051,0,1.9375
13:46:07.052,-0.5,1.0625
13:46:07.052,-0.7188,-0.75
13:46:07.059,-2.4688,-3
13:46:07.069,-3.25,-5.4375
13:46:07.079,-4.1563,-7.5625
13:46:07.088,-4.9375,-10.3125
13:46:07.098,-5.9375,-13
13:46:07.108,-6.4375,-14.4376
13:46:07.119,-7.5625,-17.5626
13:46:07.129,-8.2188,-20.6876
13:46:07.139,-9.9688,-24.1876
13:46:07.149,-11.4063,-26.2501
13:46:07.160,-11.2813,-28.6251
13:46:07.170,-12.25,-30.8751
13:46:07.178,-12.7813,-32.2501
13:46:07.189,-14.3751,-34.7501
13:46:07.198,-14.6876,-36.2501
13:46:07.209,-15.8751,-39.0001
13:46:07.219,-16.3751,-40.8752
13:46:07.229,-17.3126,-41.9377
13:46:07.239,-17.7813,-44.1877
13:46:07.249,-18.2813,-44.3127
13:46:07.259,-19.0938,-45.8752
13:46:07.269,-19.0626,-47.6877
13:46:07.279,-19.5313,-47.7502
13:46:07.288,-20.4688,-49.7502
13:46:07.299,-20.3438,-49.7502
13:46:07.309,-20.7501,-50.2502
13:46:07.319,-21.0001,-51.5002
13:46:07.346,-21.0626,-50.4377
13:46:07.348,-21.2501,-52.0002
13:46:07.350,-21.7501,-52.1252
13:46:07.359,-21.7501,-53.1252
13:46:07.370,-22.1876,-53.1877
13:46:07.378,-22.3126,-54.3127
13:46:07.388,-22.4376,-53.6252
13:46:07.399,-22.8751,-54.1877
13:46:07.409,-22.6251,-54.0002
13:46:07.420,-22.8751,-55.1877
13:46:07.429,-23.0626,-54.5002
13:46:07.439,-22.8126,-54.8127
13:46:07.450,-22.9376,-53.5627
13:46:07.459,-21.7501,-52.3752
13:46:07.469,-21.3126,-48.3127
13:46:07.483,-17.8126,-41.5002
13:46:07.489,-14.1876,-28.6876
13:46:07.501,-8.5,-13.0625
13:46:07.509,-1.3125,3.5625
13:46:07.519,4.5,20.9376
13:46:07.529,9.5625,31.1876
13:46:07.539,13.4376,42.3127
13:46:07.550,16.8751,48.4377
13:46:07.560,18.3126,54.5627
13:46:07.579,19.3751,56.3752
13:46:07.581,19.9376,57.3127
13:46:07.590,20.0626,57.4377
13:46:07.620,20.1251,55.7502
13:46:07.622,19.7501,55.8752
13:46:07.624,18.9376,53.8752
13:46:07.629,18.9376,53.0627
13:46:07.666,18.1251,51.4377
13:46:07.673,17.8751,50.6252
13:46:07.673,17.3126,48.3127
13:46:07.675,17.1251,47.4377
13:46:07.682,16.6251,45.1252
13:46:07.689,15.1251,43.0002
13:46:07.721,14.8126,39.8127
13:46:07.724,12.8125,37.1876
13:46:07.725,11.3125,33.0001
13:46:07.730,10.25,30.4376
13:46:07.746,9.1875,27.6251
13:46:07.748,7.375,23.3126
13:46:07.758,7,20.5626
13:46:07.768,5.75,18.0626
13:46:07.778,4.75,15.8751
13:46:07.789,4,14.2501
13:46:07.799,3.4375,12.0625
13:46:07.808,2.25,11
13:46:07.819,1.7813,8.625
13:46:07.829,1.5938,6.1875
13:46:07.840,0.8125,5.25
13:46:07.849,0.0938,3.3125
13:46:07.859,-0.3438,1.75
13:46:07.868,-1.25,0.375
13:46:07.879,-1.9375,-2.25
13:46:07.890,-3.3125,-3.8125
13:46:07.898,-3.6875,-6.5
13:46:07.908,-5.0625,-7.75
13:46:07.919,-5.9375,-10.75
13:46:07.929,-6.625,-13.2501
13:46:07.938,-8.1875,-14.8126
13:46:07.949,-8.9375,-18.3126
13:46:07.959,-9.8125,-19.5001
13:46:07.969,-10.5625,-22.6251
13:46:07.979,-11.25,-24.6251
13:46:07.990,-12.5,-27.8751
13:46:07.998,-12.875,-28.9376
13:46:08.009,-13.8751,-31.4376
13:46:08.018,-14.1876,-33.1251
13:46:08.029,-15.0001,-35.8126
13:46:08.040,-16.1251,-36.6876
13:46:08.049,-16.6876,-39.1876
13:46:08.059,-17.1251,-40.0627
13:46:08.069,-18.0001,-41.8752
13:46:08.078,-17.7501,-43.6877
13:46:08.089,-19.0001,-43.2502
13:46:08.099,-19.4376,-45.1877
13:46:08.109,-19.0001,-46.3752
13:46:08.118,-19.3126,-46.1877
13:46:08.129,-20.0626,-46.8752
13:46:08.139,-20.2501,-48.4377
13:46:08.149,-20.8126,-48.4377
13:46:08.159,-20.1251,-49.5627
13:46:08.169,-21.2501,-49.5627
13:46:08.179,-21.1876,-49.7502
13:46:08.189,-20.7501,-50.6252
13:46:08.198,-21.6251,-50.6877
13:46:08.209,-21.1876,-51.0002
13:46:08.219,-21.6251,-51.5627
13:46:08.234,-21.0626,-51.7502
13:46:08.240,-21.8126,-51.7502
13:46:08.250,-21.7501,-51.6877
13:46:08.282,-22.1876,-51.6252
13:46:08.315,-21.8751,-51.8127
13:46:08.318,-21.9376,-52.2502
13:46:08.320,-22.5626,-52.1877
13:46:08.361,-22.2501,-51.8752
13:46:08.392,-22.5001,-51.3127
13:46:08.394,-22.0001,-50.6877
13:46:08.394,-22.0626,-49.6877
13:46:08.409,-20.6876,-47.5627
13:46:08.438,-19.5001,-41.7502
13:46:08.453,-16.0001,-33.5626
13:46:08.453,-11.875,-20.6876
13:46:08.453,-5.4375,-5.25
13:46:08.454,0.3125,10.75
13:46:08.457,5.25,23.1251
13:46:08.465,9.1875,33.1876
13:46:08.465,13.0625,40.5002
13:46:08.465,15.2501,45.8752
13:46:08.469,16.3751,50.6877
13:46:08.478,18.0001,52.0627
13:46:08.490,18.0001,52.3752
13:46:08.499,17.9376,52.2502
13:46:08.511,17.5001,50.9377
13:46:08.519,17.1876,50.0002
13:46:08.529,15.8751,45.8127
13:46:08.538,14.9376,43.1877
13:46:08.549,13.6251,41.0627
13:46:08.559,12.4375,38.1876
13:46:08.569,11,34.2501
13:46:08.579,9.9375,31.0626
13:46:08.588,8,28.0001
13:46:08.599,6.8125,23.6876
13:46:08.626,5.875,19.9376
13:46:08.629,4.5625,16.1251
13:46:08.631,2.875,13.3751
13:46:08.640,2.75,10.6875
13:46:08.650,1.375,9.125
13:46:08.659,1.625,6.3125
13:46:08.669,-0.25,5.0625
13:46:08.680,-1.25,3.9375
13:46:08.689,-1.25,1
13:46:08.698,-2.5,0.3125
13:46:08.708,-2.8125,-2.6875
13:46:08.718,-4,-3.25
13:46:08.729,-3.9375,-6.125
13:46:08.740,-5.3125,-7.75
13:46:08.749,-5.9375,-9.4375
13:46:08.759,-6.375,-11.8125
13:46:08.775,-7.3125,-13.3751
13:46:08.784,-8.1875,-16.1876
13:46:08.797,-8.9375,-17.5626
13:46:08.806,-9.1875,-19.3751
13:46:08.814,-10.0625,-21.1876
13:46:08.823,-11,-23.4376
13:46:08.834,-12.25,-25.3751
13:46:08.845,-12.5625,-27.8126
13:46:08.854,-13.6251,-29.3751
13:46:08.864,-13.1876,-30.6251
13:46:08.873,-15.0626,-32.8126
13:46:08.884,-14.6876,-34.2501
13:46:08.895,-15.9376,-35.9376
13:46:08.904,-16.4376,-36.8126
13:46:08.914,-16.1251,-37.3126
13:46:08.924,-17.6876,-39.0001
13:46:08.959,-18.1251,-40.8127
13:46:08.962,-18.3126,-42.6877
13:46:08.962,-17.9376,-42.2502
13:46:08.965,-19.0626,-42.6877
13:46:09.005,-18.1876,-43.0002
13:46:09.006,-19.0001,-43.8127
13:46:09.009,-18.8751,-43.8752
13:46:09.011,-18.2501,-44.7502
13:46:09.016,-19.5626,-44.5002
13:46:09.045,-19.1251,-45.8127
13:46:09.047,-19.2501,-44.7502
13:46:09.047,-19.0626,-46.1877
13:46:09.054,-19.2501,-45.7502
13:46:09.086,-19.5626,-46.0002
13:46:09.089,-19.6251,-46.8127
13:46:09.090,-20.3126,-46.3127
13:46:09.095,-21.7501,-46.5627
13:46:09.116,-23.6876,-47.0627
13:46:09.118,-26.0626,-48.5002
13:46:09.126,-28.8751,-49.6252
13:46:09.133,-31.6251,-51.0627
13:46:09.144,-36.6876,-51.4377
13:46:09.154,-39.2502,-50.8127
13:46:09.164,-42.0002,-47.9377
13:46:09.175,-41.3127,-37.1876
13:46:09.185,-35.5001,-19.3751
13:46:09.194,-28.3751,3.125
13:46:09.204,-19.8751,22.5626
13:46:09.214,-12.1875,37.5001
13:46:09.224,-6.875,51.8752
13:46:09.235,-2.3125,61.0002
13:46:09.244,-0.125,65.6253
13:46:09.253,1.75,69.1878
13:46:09.264,3.1875,70.2503
13:46:09.274,4.4375,70.5003
13:46:09.285,5.3125,69.4378
13:46:09.293,4.9375,69.7503
13:46:09.304,4.9375,67.3753
13:46:09.313,4.4375,66.2503
13:46:09.324,4.5,64.9377
13:46:09.335,4.375,63.5627
13:46:09.344,4.25,62.9377
13:46:09.354,5.0625,61.3127
13:46:09.364,4.3125,60.0002
13:46:09.374,5.125,58.4377
13:46:09.385,4.0625,55.8127
13:46:09.394,3.5625,53.3752
13:46:09.404,2,51.2502
13:46:09.414,1.625,47.6252
13:46:09.424,0.8125,45.2502
13:46:09.433,0.25,41.9377
13:46:09.444,-1.75,39.7502
13:46:09.454,-1.375,36.7501
13:46:09.465,-3,33.3751
13:46:09.474,-3.5,31.4376
13:46:09.485,-4.25,28.8751
13:46:09.495,-4.75,26.6876
13:46:09.504,-4.75,24.7501
13:46:09.514,-6.0625,22.5001
13:46:09.524,-6.0625,21.1251
13:46:09.536,-6.375,18.3126
13:46:09.544,-6.5625,16.4376
13:46:09.554,-7,12.9375
13:46:09.564,-8.0625,11
13:46:09.574,-8.1875,8.125
13:46:09.584,-8.5,4.5625
13:46:09.595,-9.125,2.6875
13:46:09.604,-9.6875,-1.1875
13:46:09.614,-10.5,-3.8125
13:46:09.624,-11.5625,-4.8125
13:46:09.635,-12.125,-8.625
13:46:09.644,-13.3751,-10.75
13:46:09.661,-13.7501,-14.3751
13:46:09.676,-15.0001,-16.2501
13:46:09.677,-15.4376,-19.6251
13:46:09.684,-16.4376,-21.1876
13:46:09.695,-17.0001,-23.6251
13:46:09.703,-18.4376,-24.5626
13:46:09.720,-19.2501,-27.3126
13:46:09.736,-21.0001,-26.8751
13:46:09.740,-20.7501,-28.7501
13:46:09.745,-22.0001,-29.8126
13:46:09.754,-22.2501,-32.1251
13:46:09.784,-23.0626,-32.9376
13:46:09.786,-24.6876,-35.2501
13:46:09.789,-26.5626,-37.8126
13:46:09.795,-27.5626,-38.0626
13:46:09.825,-28.5001,-36.9376
13:46:09.830,-27.8751,-38.6251
13:46:09.831,-27.8751,-39.3752
13:46:09.869,-28.5626,-39.5002
13:46:09.869,-28.5001,-40.2502
13:46:09.872,-28.6876,-39.1877
13:46:09.879,-28.0626,-40.3127
13:46:09.880,-28.4376,-40.3127
13:46:09.905,-28.3126,-40.8752
13:46:09.908,-27.8751,-41.0002
13:46:09.910,-27.6251,-41.8127
13:46:09.915,-27.3751,-42.5627
13:46:09.936,-28.3751,-42.3127
13:46:09.939,-29.1876,-43.0002
13:46:09.945,-29.5626,-43.9377
13:46:09.953,-29.7501,-42.8752
13:46:09.964,-30.5001,-43.3752
13:46:09.974,-30.0626,-42.8752
13:46:09.984,-29.8751,-43.9377
13:46:09.994,-30.1251,-42.5002
13:46:10.008,-29.5626,-41.2502
13:46:10.015,-28.1876,-35.6876
13:46:10.024,-23.6876,-26.9376
13:46:10.034,-18.1251,-12.8125
13:46:10.044,-9.9375,5.5
13:46:10.053,-2.1875,23.1251
13:46:10.064,4.25,37.8751
13:46:10.074,10.6875,52.6252
13:46:10.084,15.3751,60.6252
13:46:10.097,17.4376,66.6878
13:46:10.106,19.1251,68.5003
13:46:10.116,19.6876,70.0003
13:46:10.125,20.7501,70.6253
13:46:10.133,20.5626,69.7503
13:46:10.143,21.1251,68.8753
13:46:10.154,21.1251,67.9378
13:46:10.165,20.8126,66.3753
13:46:10.174,21.3126,65.5003
13:46:10.185,20.8751,63.1877
13:46:10.194,20.6876,61.7502
13:46:10.204,20.8126,61.1877
13:46:10.214,19.5626,58.0002
13:46:10.224,18.6251,55.7502
13:46:10.233,18.2501,52.3127
13:46:10.245,16.1876,48.1877
13:46:10.255,15.1251,45.1252
13:46:10.264,13.8751,40.0627
13:46:10.274,12.75,36.8751
13:46:10.285,11.0625,31.8126
13:46:10.294,10.625,27.9376
13:46:10.304,9.125,24.2501
13:46:10.314,7.0625,20.9376
13:46:10.324,7.375,17.2501
13:46:10.335,5.5625,14.5001
13:46:10.345,4.3125,12.25
13:46:10.354,3.75,8.25
13:46:10.365,3.1875,6.3125
13:46:10.374,2.375,3.5
13:46:10.384,1.25,1.125
13:46:10.394,0.75,-0.875
13:46:10.404,-0.3125,-3.9375
13:46:10.415,-0.5,-5.8125
13:46:10.424,-1.75,-7.5625
13:46:10.434,-3.3125,-9.1875
13:46:10.443,-4.3125,-10.125
13:46:10.454,-5.1875,-12.875
13:46:10.466,-6.375,-14.0001
13:46:10.475,-6.5625,-15.0626
13:46:10.484,-8.0625,-17.3126
13:46:10.514,-9.0625,-19.0001
13:46:10.516,-10.0625,-21.1251
13:46:10.519,-10.875,-21.5001
13:46:10.525,-12.125,-22.9376
13:46:10.565,-12.4375,-24.8126
13:46:10.568,-12.75,-25.1876
13:46:10.568,-13.8751,-26.3126
13:46:10.571,-14.6251,-27.9376
13:46:10.576,-15.1876,-28.0001
13:46:10.586,-15.8126,-30.5001
13:46:10.615,-16.1876,-31.0001
13:46:10.619,-17.0001,-31.7501
13:46:10.620,-16.7501,-32.8751
13:46:10.625,-17.8751,-32.6876
13:46:10.653,-18.3751,-34.3751
13:46:10.656,-18.3751,-34.7501
13:46:10.657,-18.8751,-35.8751
13:46:10.666,-19.4376,-36.8126
13:46:10.675,-19.3751,-38.2501
13:46:10.686,-20.0626,-39.3752
13:46:10.694,-20.5001,-39.8127
13:46:10.705,-21.4376,-39.6877
13:46:10.713,-22.4376,-41.3752
13:46:10.725,-23.1876,-40.9377
13:46:10.735,-23.1876,-41.5002
13:46:10.749,-23.9376,-42.4377
13:46:10.758,-24.0001,-41.3752
13:46:10.770,-23.5001,-42.6252
13:46:10.778,-24.0001,-42.5627
13:46:10.790,-23.8751,-43.6252
13:46:10.799,-24.0001,-43.4377
13:46:10.809,-23.5001,-43.5002
13:46:10.819,-23.6876,-44.9377
13:46:10.830,-23.5001,-44.1877
13:46:10.840,-23.1251,-44.0002
13:46:10.848,-22.4376,-44.1877
13:46:10.858,-22.2501,-41.0627
13:46:10.868,-20.5626,-38.5001
13:46:10.879,-18.5626,-32.6876
13:46:10.890,-14.3126,-22.5001
13:46:10.898,-8.4375,-7.5625
13:46:10.908,0.0625,12.125
13:46:10.919,7.75,30.6251
13:46:10.929,13,40.1252
13:46:10.940,17.4376,49.4377
13:46:10.959,20.1876,55.0627
13:46:10.965,22.0001,58.8752
13:46:10.980,23.1876,61.0002
13:46:10.982,23.6876,60.6877
13:46:10.990,23.8751,60.5627
13:46:10.999,23.1876,58.1252
13:46:11.017,22.6876,57.1252
13:46:11.033,22.7501,54.9377
13:46:11.034,22.0001,51.9377
13:46:11.038,21.3751,50.2502
13:46:11.050,20.9376,48.0627
13:46:11.061,20.2501,45.0627
13:46:11.068,19.5001,43.5627
13:46:11.078,19.0626,39.1876
13:46:11.089,17.6251,35.1876
13:46:11.099,16.8126,30.7501
13:46:11.109,15.5626,27.2501
13:46:11.119,13.9376,22.1876
13:46:11.129,12.1875,17.9376
13:46:11.163,10.4375,15.0626
13:46:11.165,8.375,9.5625
13:46:11.168,7.1875,6.75
13:46:11.196,5,4.8125
13:46:11.197,3.5625,2.5625
13:46:11.225,2.125,1.5625
13:46:11.225,1,-1.125
13:46:11.228,0,-1.4375
13:46:11.230,-0.625,-2.375
13:46:11.257,-1.1875,-5.0625
13:46:11.259,-1.6875,-4.6875
13:46:11.262,-2.125,-6.3125
13:46:11.266,-2.375,-6.75
13:46:11.270,-3.25,-7.0625
13:46:11.295,-3.125,-6.8125
13:46:11.297,-4.3125,-6.9375
13:46:11.300,-5.25,-5.6875
13:46:11.310,-4.75,-6.6875
13:46:11.321,-4.75,-6.75
13:46:11.330,-5.125,-7.6875
13:46:11.340,-5.25,-8.875
13:46:11.348,-4.9375,-9.625
13:46:11.359,-5.3125,-10.625
13:46:11.371,-6.6875,-11.3125
13:46:11.379,-6.6875,-12.5
13:46:11.390,-7.5,-11.9375
13:46:11.400,-7.1875,-14.9376
13:46:11.410,-7.3125,-15.8751
13:46:11.420,-7.625,-18.5626
13:46:11.436,-8.375,-19.6251
13:46:11.438,-8.8125,-20.9376
13:46:11.449,-10.4375,-22.1251
13:46:11.459,-11.125,-22.1251
13:46:11.469,-12.1875,-23.5001
13:46:11.480,-12.875,-23.3751
13:46:11.490,-13.7501,-22.1251
13:46:11.500,-14.3126,-24.1876
13:46:11.508,-14.0001,-25.0626
13:46:11.521,-14.4376,-24.5626
13:46:11.530,-14.9376,-26.7501
13:46:11.541,-14.3126,-27.1251
13:46:11.549,-15.5626,-27.2501
13:46:11.560,-14.8126,-29.5626
13:46:11.570,-14.6876,-29.7501
13:46:11.580,-15.9376,-31.9376
13:46:11.588,-15.1251,-33.5001
13:46:11.599,-15.8751,-34.4376
13:46:11.610,-15.5001,-35.5001
13:46:11.618,-15.4376,-36.0001
13:46:11.629,-16.7501,-37.0001
13:46:11.640,-16.1251,-38.3751
13:46:11.649,-17.0001,-39.0002
13:46:11.660,-16.2501,-39.9377
13:46:11.670,-16.0001,-39.0626
13:46:11.680,-15.6876,-37.8126
13:46:11.689,-13.8751,-34.5001
13:46:11.700,-12.0625,-27.5626
13:46:11.708,-8.25,-20.0626
13:46:11.723,-3.9375,-8.9375
13:46:11.731,0.9375,3.3125
13:46:11.740,5.25,13.3126
13:46:11.750,9.5,21.7501
13:46:11.760,11.875,27.5001
13:46:11.768,14.5001,32.7501
13:46:11.779,16.2501,35.8126
13:46:11.790,17.3751,38.5626
13:46:11.800,18.3126,39.3127
13:46:11.810,19.1876,38.8126
13:46:11.820,19.0626,38.1876
13:46:11.830,17.6251,36.3751
13:46:11.841,17.6251,35.1251
13:46:11.850,16.6876,32.3126
13:46:11.860,15.0626,30.6251
13:46:11.870,14.2501,27.1876
13:46:11.880,12,24.6251
13:46:11.890,10.875,21.2501
13:46:11.900,9,19.0001
13:46:11.909,6.9375,16.6876
13:46:11.919,5.75,13.3126
13:46:11.930,4.75,10.1875
13:46:11.940,2.875,7.125
13:46:11.963,1.1875,4.125
13:46:11.965,-0.3125,3.1875
13:46:11.994,-0.5,1
13:46:11.995,-2.3125,-1.5625
13:46:11.999,-2.8125,-1.6875
13:46:12.000,-3.375,-1.375
13:46:12.038,-3.25,-2.625
13:46:12.040,-3.5,-3.4375
13:46:12.042,-4.5,-2.4375
13:46:12.044,-3.6875,-3.25
13:46:12.052,-5,-4.125
13:46:12.084,-5.6875,-3.3125
13:46:12.087,-5.375,-3.8125
13:46:12.088,-5.1875,-4.6875
13:46:12.090,-5.25,-5.5
13:46:12.122,-5.8125,-6.1875
13:46:12.125,-5.5,-8.1875
13:46:12.127,-6.9375,-10.625
13:46:12.131,-7.75,-12.1875
13:46:12.140,-8.1875,-14.1251
13:46:12.150,-9.75,-15.6876
13:46:12.160,-10.125,-16.6876
13:46:12.170,-11.5,-18.1251
13:46:12.180,-12.1875,-19.1251
13:46:12.192,-13.3126,-19.3751
13:46:12.200,-13.5626,-21.2501
13:46:12.210,-14.0626,-22.6876
13:46:12.220,-14.1876,-23.7501
13:46:12.230,-15.5001,-25.3751
13:46:12.240,-15.2501,-26.3126
13:46:12.261,-15.9376,-27.4376
13:46:12.267,-15.8751,-29.3751
13:46:12.270,-16.2501,-30.3751
13:46:12.286,-16.1876,-32.0001
13:46:12.290,-16.3126,-33.7501
13:46:12.300,-17.1876,-35.2501
13:46:12.320,-17.2501,-35.1876
13:46:12.322,-17.6251,-37.5626
13:46:12.337,-18.0626,-38.5001
13:46:12.341,-17.6876,-39.5002
13:46:12.350,-18.0001,-40.5627
13:46:12.360,-18.6251,-41.5627
13:46:12.370,-18.6876,-42.7502
13:46:12.380,-19.0001,-43.8752
13:46:12.390,-19.0626,-44.3127
13:46:12.400,-18.4376,-44.8752
13:46:12.410,-19.3126,-45.1877
13:46:12.420,-18.6876,-45.6877
13:46:12.430,-19.0626,-46.7502
13:46:12.440,-19.0001,-46.9377
13:46:12.466,-18.1876,-46.0627
13:46:12.468,-17.6876,-46.1252
13:46:12.470,-17.3751,-45.1877
13:46:12.480,-16.4376,-43.2502
13:46:12.490,-14.8751,-38.1876
13:46:12.500,-11.6875,-31.9376
13:46:12.510,-7.9375,-21.0626
13:46:12.520,-2.25,-8.5625
13:46:12.529,2.625,4.3125
13:46:12.542,7.3125,16.3751
13:46:12.552,10.8125,26.5001
13:46:12.566,13.5001,32.7501
13:46:12.571,15.8126,38.0626
13:46:12.580,16.9376,41.8752
13:46:12.589,18.6876,45.8752
13:46:12.600,18.6876,47.1877
13:46:12.609,19.0626,49.3752
13:46:12.620,19.6251,49.8752
13:46:12.630,19.3126,49.6252
13:46:12.650,18.6251,50.0627
13:46:12.652,19.2501,49.5627
13:46:12.660,18.6876,48.6252
13:46:12.690,18.8751,48.1877
13:46:12.694,17.5001,47.1877
13:46:12.694,16.8751,46.1252
13:46:12.700,15.3126,46.0002
13:46:12.727,14.7501,43.3127
13:46:12.730,13.9376,40.8752
13:46:12.732,12.8125,39.4377
13:46:12.766,12.0625,36.5001
13:46:12.769,11,35.4376
13:46:12.769,10.0625,33.6876
13:46:12.776,9.4375,32.5626
13:46:12.810,9.25,30.4376
13:46:12.815,9.1875,29.6876
13:46:12.815,8.4375,27.9376
13:46:12.818,7.4375,27.0001
13:46:12.825,7.375,25.5626
13:46:12.835,6,26.1251
13:46:12.845,6.25,26.5001
13:46:12.855,5.75,25.6876
13:46:12.865,6.375,25.4376
13:46:12.875,5.9375,26.1251
13:46:12.885,6.3125,26.0001
13:46:12.895,5.625,26.4376
13:46:12.905,6.25,25.8126
13:46:12.915,6.5,25.7501
13:46:12.926,5.3125,25.0626
13:46:12.941,5.25,23.2501
13:46:12.947,4.4375,20.4376
13:46:12.956,4.125,18.2501
13:46:12.966,3.1875,16.3751
13:46:12.978,2.875,13.8126
13:46:12.985,1.8125,10.5625
13:46:12.995,0.875,9.1875
13:46:13.005,0.5625,4.6875
13:46:13.015,-0.9375,1.375
13:46:13.025,-2.25,-1.6875
13:46:13.035,-3.25,-3.5625
13:46:13.045,-4.0625,-8.0625
13:46:13.055,-5.1875,-12.3125
13:46:13.065,-6.3125,-14.8751
13:46:13.075,-7.5625,-17.3751
13:46:13.085,-8.125,-21.6251
13:46:13.095,-9.25,-24.1876
13:46:13.105,-10.5,-25.3751
13:46:13.115,-10.4375,-28.6251
13:46:13.125,-11.1875,-30.8751
13:46:13.135,-11.875,-33.3751
13:46:13.145,-12.9375,-34.2501
13:46:13.155,-12.75,-35.5626
13:46:13.165,-13.3126,-37.1251
13:46:13.176,-14.1251,-38.3126
13:46:13.185,-14.0001,-40.6252
13:46:13.195,-14.6876,-41.5002
13:46:13.205,-14.3126,-42.8127
13:46:13.215,-14.8751,-42.8127
13:46:13.225,-14.3126,-43.5627
13:46:13.235,-14.3126,-44.3127
13:46:13.245,-14.5626,-44.7502
13:46:13.255,-14.6876,-45.9377
13:46:13.265,-14.5626,-44.1877
13:46:13.275,-13.9376,-45.0002
13:46:13.285,-13.5626,-42.1252
13:46:13.295,-12.6875,-39.4377
13:46:13.305,-10.6875,-34.1251
13:46:13.320,-6.875,-23.3751
13:46:13.325,-3.125,-12.1875
13:46:13.354,1.125,1.8125
13:46:13.356,6.125,14.0001
13:46:13.359,8.875,23.4376
13:46:13.366,12.25,30.0001
13:46:13.398,14.0001,36.5001
13:46:13.401,16.0001,40.7502
13:46:13.403,17.1251,44.5627
13:46:13.408,18.5626,45.8127
13:46:13.416,19.2501,47.0002
13:46:13.440,19.0626,49.6252
13:46:13.443,19.1876,49.3127
13:46:13.445,18.5626,49.5002
13:46:13.477,18.8751,50.1252
13:46:13.480,18.1876,49.8127
13:46:13.482,18.4376,52.1877
13:46:13.485,17.9376,50.8127
13:46:13.499,17.6251,50.8752
13:46:13.506,18.0626,49.0002
13:46:13.515,16.2501,47.0002
13:46:13.526,15.4376,45.9377
13:46:13.535,14.8126,45.2502
13:46:13.545,13.8751,42.4377
13:46:13.565,12.5625,41.6252
13:46:13.570,12,39.5627
13:46:13.585,10.9375,37.7501
13:46:13.587,10.3125,35.6876
13:46:13.595,9.375,34.0001
13:46:13.616,9,34.7501
13:46:13.619,7.9375,33.5001
13:46:13.633,7.5,33.8126
13:46:13.637,6.6875,32.3751
13:46:13.645,6.0625,32.2501
13:46:13.655,6.5,30.9376
13:46:13.665,5.75,29.6876
13:46:13.675,5.8125,28.6251
13:46:13.685,5.5625,26.1251
13:46:13.695,4.75,25.4376
13:46:13.706,4.375,22.2501
13:46:13.715,3.375,19.8751
13:46:13.746,3.5,17.8126
13:46:13.748,2.1875,14.6251
13:46:13.750,1.6875,11.6875
13:46:13.755,1.375,8.6875
13:46:13.765,-0.0625,6.4375
13:46:13.775,-0.3125,2.625
13:46:13.785,-1,-2
13:46:13.795,-2.375,-5.875
13:46:13.805,-3.5,-8.3125
13:46:13.817,-4.3125,-12.0625
13:46:13.828,-5.4375,-16.8126
13:46:13.838,-6.5625,-20.0626
13:46:13.845,-7.5625,-22.0626
13:46:13.855,-7.5,-24.9376
13:46:13.865,-8.25,-29.0626
13:46:13.875,-8.75,-30.2501
13:46:13.885,-9.125,-32.0626
13:46:13.896,-9.75,-34.8751
13:46:13.906,-9.6875,-37.0626
13:46:13.916,-10.8125,-39.4377
13:46:13.927,-11.5625,-38.7501
13:46:13.937,-11.375,-41.3752
13:46:13.947,-12.4375,-42.7502
13:46:13.955,-12.3125,-42.6252
13:46:13.965,-13.3126,-45.2502
13:46:13.975,-14.0626,-44.0627
13:46:13.985,-14.9376,-45.8127
13:46:13.995,-15.7501,-46.4377
13:46:14.005,-16.6876,-47.3752
13:46:14.015,-17.1876,-47.4377
13:46:14.025,-18.3126,-49.0627
13:46:14.035,-18.9376,-48.1877
13:46:14.045,-19.8751,-49.1877
13:46:14.071,-20.3126,-47.7502
13:46:14.074,-21.1876,-47.8752
13:46:14.076,-21.1876,-44.1877
13:46:14.119,-20.2501,-40.3752
13:46:14.119,-16.8126,-28.0626
13:46:14.122,-12.0625,-13.9376
13:46:14.124,-6.4375,4.1875
13:46:14.129,-0.125,18.7501
13:46:14.135,4.75,30.3126
13:46:14.161,9.875,40.0002
13:46:14.164,12.4375,48.3752
13:46:14.167,14.5626,50.9377
13:46:14.195,15.2501,53.8127
13:46:14.201,13.7501,54.5002
13:46:14.201,13.6876,53.6252
13:46:14.205,13.5001,53.7502
13:46:14.230,12.3125,50.6252
13:46:14.235,12,50.1252
13:46:14.235,10.4375,47.8752
13:46:14.251,9.625,47.1252
13:46:14.256,8.8125,48.0627
13:46:14.265,6.6875,46.8752
13:46:14.275,7.1875,46.1877
13:46:14.285,5.5625,44.6877
13:46:14.295,5.6875,43.1877
13:46:14.305,4.8125,41.8752
13:46:14.315,5.3125,40.0627
13:46:14.325,4.8125,38.8751
13:46:14.335,4.4375,37.3751
13:46:14.352,4.75,34.7501
13:46:14.356,4.8125,33.9376
13:46:14.368,4.125,33.1251
13:46:14.375,4.3125,31.3126
13:46:14.385,5,31.4376
13:46:14.395,4.875,29.2501
13:46:14.405,5.3125,28.5001
13:46:14.415,5.5625,26.5626
13:46:14.425,5.625,24.7501
13:46:14.435,5.625,22.7501
13:46:14.445,4.6875,20.5626
13:46:14.455,5.4375,18.1251
13:46:14.465,3.875,15.3126
13:46:14.475,3.5625,13.5626
13:46:14.485,3.0625,10.0625
13:46:14.495,1.6875,7.8125
13:46:14.505,0.9375,3.375
13:46:14.515,0.0625,0.0625
13:46:14.526,-0.6875,-2.5
13:46:14.536,-1.375,-6.75
13:46:14.546,-1.9375,-9.125
13:46:14.557,-2.75,-13.4376
13:46:14.568,-3.3125,-15.8751
13:46:14.576,-3.4375,-18.5001
13:46:14.585,-3.5625,-21.6876
13:46:14.595,-5.5,-24.2501
13:46:14.605,-7,-26.6251
13:46:14.615,-7.8125,-28.6876
13:46:14.626,-8.9375,-30.7501
13:46:14.636,-10.25,-31.3751
13:46:14.646,-10.8125,-33.3126
13:46:14.656,-12.4375,-35.0001
13:46:14.665,-14.2501,-36.5626
13:46:14.675,-15.1251,-36.5626
13:46:14.685,-15.2501,-38.3751
13:46:14.695,-16.6251,-39.6877
13:46:14.706,-16.3751,-40.4377
13:46:14.717,-17.9376,-41.6252
13:46:14.725,-18.6876,-42.1877
13:46:14.736,-18.5001,-42.6877
13:46:14.745,-20.6251,-42.7502
13:46:14.755,-20.8751,-44.4377
13:46:14.765,-22.0626,-43.6252
13:46:14.775,-21.1251,-44.6252
13:46:14.786,-21.0001,-43.3127
13:46:14.797,-20.2501,-42.6252
13:46:14.805,-18.6251,-37.5626
13:46:14.815,-15.2501,-27.1876
13:46:14.825,-9.0625,-13.2501
13:46:14.835,-2.375,3.9375
13:46:14.845,4.25,20.4376
13:46:14.886,10.6875,36.1251
13:46:14.888,16.3751,48.3752
13:46:14.890,19.5626,57.3127
13:46:14.892,22.1876,62.5627
13:46:14.896,23.0001,64.8127
13:46:14.930,24.0626,67.7503
13:46:14.933,23.2501,69.5628
13:46:14.961,24.3751,69.9378
13:46:14.965,24.1251,70.3128
13:46:14.988,24.3126,70.6878
13:46:14.988,24.8751,70.0003
13:46:14.989,25.1876,70.0003
13:46:14.991,25.2501,69.8753
13:46:15.027,26.1876,69.0003
13:46:15.027,25.5626,66.7503
13:46:15.030,25.0626,66.3753
13:46:15.038,25.2501,64.2502
13:46:15.038,25.1251,61.4377
13:46:15.044,24.5001,59.1252
13:46:15.051,23.5626,56.0627
13:46:15.061,23.0626,54.3127
13:46:15.072,22.0626,52.2502
13:46:15.080,21.0001,49.6252
13:46:15.090,20.3126,46.2502
13:46:15.100,20.5001,42.8127
13:46:15.110,20.1251,41.6877
13:46:15.120,19.1251,37.7501
13:46:15.130,18.5001,35.3751
13:46:15.140,18.0626,32.5001
13:46:15.150,18.0626,29.5626
13:46:15.160,17.0001,26.9376
13:46:15.170,16.1251,24.6876
13:46:15.180,15.1876,22.0001
13:46:15.190,14.0001,19.0626
13:46:15.200,13.6876,14.9376
13:46:15.210,12.6875,12.8125
13:46:15.220,11.9375,9.875
13:46:15.230,10.625,6.1875
13:46:15.240,9.625,3.375
13:46:15.251,8.25,-0.3125
13:46:15.261,6.5,-2.4375
13:46:15.270,5.4375,-5.6875
13:46:15.280,3.8125,-9.625
13:46:15.290,2.75,-11.875
13:46:15.300,1.0625,-14.3751
13:46:15.310,-0.5625,-16.3751
13:46:15.321,-1.5625,-19.4376
13:46:15.330,-3.125,-21.4376
13:46:15.341,-3.875,-22.9376
13:46:15.350,-6.0625,-24.5626
13:46:15.360,-6.5,-26.6876
13:46:15.371,-8.3125,-28.1876
13:46:15.381,-9.875,-28.6876
13:46:15.390,-10.5625,-29.8751
13:46:15.400,-11.125,-31.5001
13:46:15.410,-12.8125,-32.9376
13:46:15.422,-13.2501,-33.6251
13:46:15.431,-14.6876,-35.5626
13:46:15.440,-16.2501,-36.0626
13:46:15.450,-16.3751,-37.0626
13:46:15.461,-17.0001,-38.6251
13:46:15.472,-18.3126,-38.7501
13:46:15.480,-19.3751,-40.8752
13:46:15.491,-20.6876,-40.5002
13:46:15.500,-20.7501,-42.1252
13:46:15.510,-20.8751,-42.8752
13:46:15.520,-20.3751,-44.3752
13:46:15.530,-20.6876,-45.3752
13:46:15.540,-20.6251,-44.7502
13:46:15.574,-20.6251,-43.0627
13:46:15.577,-19.5001,-38.6876
13:46:15.579,-16.1251,-30.8751
13:46:15.610,-10.3125,-16.3751
13:46:15.611,-3.5625,1.4375
13:46:15.614,3.75,20.3751
13:46:15.620,11.375,36.7501
13:46:15.620,16.5001,50.4377
13:46:15.650,20.3751,59.0002
13:46:15.653,22.1876,64.8127
13:46:15.655,23.5001,69.8753
13:46:15.660,24.5626,71.6878
13:46:15.685,25.9376,72.9378
13:46:15.687,26.9376,75.4378
13:46:15.690,28.0626,75.5003
13:46:15.720,29.2501,76.5003
13:46:15.722,30.3126,77.6253
13:46:15.725,30.1251,77.0628
13:46:15.732,31.8751,77.3128
13:46:15.741,32.9376,74.4378
13:46:15.752,32.8751,72.5628
13:46:15.760,32.6251,71.7503
13:46:15.770,32.9376,68.8128
13:46:15.780,32.5001,66.5628
13:46:15.797,32.3126,63.9377
13:46:15.801,31.7501,61.1877
13:46:15.811,31.1876,58.4377
13:46:15.820,31.2501,54.6252
13:46:15.830,30.3126,51.1877
13:46:15.841,29.2501,49.2502
13:46:15.850,29.4376,46.1252
13:46:15.861,27.8751,44.8752
13:46:15.871,27.1251,41.7502
13:46:15.881,27.3126,38.2501
13:46:15.891,25.7501,36.1251
13:46:15.900,25.3751,33.6876
13:46:15.910,25.2501,31.1876
13:46:15.920,24.0626,29.1876
13:46:15.930,23.8126,27.3751
13:46:15.942,22.8751,23.9376
13:46:15.953,22.3126,22.5001
13:46:15.960,21.8126,21.1251
13:46:15.970,21.4376,17.1251
13:46:15.980,20.0001,15.4376
13:46:15.990,19.5001,13.3126
13:46:16.000,18.4376,9.6875
13:46:16.010,17.6251,6.625
13:46:16.020,16.7501,3.5625
13:46:16.030,14.9376,0.6875
13:46:16.040,14.8126,-1.8125
13:46:16.050,13.9376,-5
13:46:16.060,12.25,-8
13:46:16.070,11.625,-11.5
13:46:16.080,10.75,-14.6876
13:46:16.091,9.5,-17.3126
13:46:16.101,9.5625,-19.5626
13:46:16.110,9.0625,-22.3751
13:46:16.120,7.5625,-25.3751
13:46:16.130,7.0625,-26.7501
13:46:16.140,6.9375,-30.0001
13:46:16.150,6.5,-31.9376
13:46:16.172,6.5625,-33.3126
13:46:16.175,5.3125,-34.6876
13:46:16.190,5.0625,-36.2501
13:46:16.205,4.75,-38.3126
13:46:16.209,3.75,-38.6876
13:46:16.222,3.25,-40.4377
13:46:16.224,2.4375,-42.1877
13:46:16.251,2.1875,-42.1252
13:46:16.288,2,-42.8752
13:46:16.289,1.5625,-44.7502
13:46:16.289,0.75,-45.8127
13:46:16.319,-0.375,-47.1877
13:46:16.320,-0.375,-46.3752
13:46:16.352,-0.125,-47.2502
13:46:16.352,-1.3125,-47.3752
13:46:16.353,-1.875,-45.3752
13:46:16.355,-0.6875,-45.0002
13:46:16.382,-0.125,-42.3127
13:46:16.383,0.9375,-36.1251
13:46:16.384,4.0625,-26.8751
13:46:16.386,8.125,-15.7501
13:46:16.391,13.4376,-2.25
13:46:16.395,17.7501,10.1875
13:46:16.407,21.1876,20.5626
13:46:16.415,23.9376,28.6251
13:46:16.425,26.6251,35.6251
13:46:16.437,28.9376,39.7502
13:46:16.445,30.1876,42.3752
13:46:16.455,30.5626,45.5627
13:46:16.465,30.4376,46.8752
13:46:16.475,30.1876,46.1252
13:46:16.485,11.6875,-0.1875
13:46:16.495,30.5626,44.1877
13:46:16.505,29.5001,43.5002
13:46:16.517,28.5626,41.8752
13:46:16.528,28.1876,39.3126
13:46:16.535,26.1876,36.3751
13:46:16.546,24.6876,33.1876
13:46:16.555,24.1876,29.5626
13:46:16.565,21.5001,25.1876
13:46:16.575,19.9376,22.2501
13:46:16.586,18.9376,19.5001
13:46:16.597,17.8126,15.3126
13:46:16.605,16.7501,13.1876
13:46:16.615,14.9376,9.75
13:46:16.625,13.8126,7.8125
13:46:16.635,13.6876,6
13:46:16.645,12.1875,5
13:46:16.656,12.125,3.0625
13:46:16.666,10.9375,2.1875
13:46:16.678,10.125,1
13:46:16.685,9.75,-1.0625
13:46:16.695,8.5,-2.375
13:46:16.705,8.125,-3.25
13:46:16.715,6.9375,-5.5625
13:46:16.726,6.9375,-6.875
13:46:16.738,6.0625,-8.75
13:46:16.745,5,-10.1875
13:46:16.755,4.375,-12.875
13:46:16.765,3.4375,-15.1876
13:46:16.775,2.0625,-17.0626
13:46:16.785,1.375,-19.0001
13:46:16.795,0.25,-21.6876
13:46:16.811,-0.5625,-23.3751
13:46:16.820,-1.25,-25.0626
13:46:16.831,-2.375,-26.5001
13:46:16.842,-3.0625,-28.2501
13:46:16.850,-3.8125,-31.2501
13:46:16.860,-5.125,-31.7501
13:46:16.870,-5.8125,-35.0001
13:46:16.880,-6.875,-35.3751
13:46:16.890,-7.125,-38.0626
13:46:16.901,-8.75,-38.8126
13:46:16.910,-8.5625,-40.8752
13:46:16.926,-10.125,-41.9377
13:46:16.931,-10.0625,-44.0627
13:46:16.940,-11.0625,-44.2502
13:46:16.950,-10.4375,-46.0627
13:46:16.970,-12,-46.0627
13:46:16.972,-13.0625,-48.5002
13:46:16.999,-13.0625,-49.8752
13:46:17.001,-13.8126,-48.8752
13:46:17.004,-12.8125,-49.3127
13:46:17.010,-13.3751,-47.5002
13:46:17.045,-11.75,-44.1252
13:46:17.047,-9.625,-38.3751
13:46:17.050,-5.8125,-27.8126
13:46:17.052,-1.125,-16.0001
13:46:17.083,4.0625,-0.1875
13:46:17.086,9.1875,12.375
13:46:17.088,13.7501,24.1876
13:46:17.095,17.1251,33.8126
13:46:17.106,20.5626,42.1877
13:46:17.112,23.2501,47.3127
13:46:17.137,24.0626,51.3752
13:46:17.139,25.1251,53.6877
13:46:17.141,25.9376,53.7502
13:46:17.150,25.2501,53.5002
13:46:17.160,24.5626,53.8752
13:46:17.170,24.4376,51.5002
13:46:17.180,24.4376,51.5627
13:46:17.190,23.9376,50.0002
13:46:17.201,22.6251,49.0627
13:46:17.212,22.5001,47.6877
13:46:17.221,21.5626,45.8127
13:46:17.230,20.1251,43.6252
13:46:17.240,19.5001,41.3127
13:46:17.250,18.9376,37.8751
13:46:17.261,16.3126,34.1876
13:46:17.271,15.6251,31.5001
13:46:17.280,14.0001,27.0626
13:46:17.290,12.5625,24.6251
13:46:17.301,11.4375,20.8751
13:46:17.310,9.8125,18.5001
13:46:17.320,9.0625,15.1876
13:46:17.332,8.125,13.5626
13:46:17.340,7.5,11.625
13:46:17.350,6.1875,10.75
13:46:17.360,5.1875,8.75
13:46:17.370,4.875,7.125
13:46:17.381,4.1875,5.3125
13:46:17.392,4.125,4.125
13:46:17.400,3.5,2.9375
13:46:17.410,2.5,0.9375
13:46:17.420,1.9375,-0.6875
13:46:17.430,1.3125,-1.625
13:46:17.441,0.1875,-3.625
13:46:17.452,-0.375,-5.9375
13:46:17.460,-1.0625,-8.875
13:46:17.476,-1.6875,-10.8125
13:46:17.482,-2.5,-13.3126
13:46:17.498,-4.125,-15.9376
13:46:17.505,-4.5625,-17.5626
13:46:17.510,-5.9375,-20.3126
13:46:17.520,-7.3125,-22.5001
13:46:17.530,-7.5,-25.1876
13:46:17.541,-8.9375,-27.2501
13:46:17.551,-9.0625,-30.0626
13:46:17.586,-10.375,-32.8126
13:46:17.602,-11.125,-34.5626
13:46:17.617,-11.625,-35.9376
13:46:17.620,-12.625,-37.9376
13:46:17.622,-13.7501,-38.6876
13:46:17.629,-13.8751,-41.8752
13:46:17.629,-14.9376,-42.2502
13:46:17.630,-15.0001,-44.7502
13:46:17.640,-16.1251,-44.3127
13:46:17.653,-16.8126,-46.5627
13:46:17.661,-17.1251,-47.6877
13:46:17.676,-17.6251,-48.0002
13:46:17.680,-18.0001,-50.8752
13:46:17.690,-18.2501,-51.0627
13:46:17.700,-19.1876,-51.9377
13:46:17.711,-19.3126,-52.7502
13:46:17.720,-19.2501,-53.4377
13:46:17.738,-19.6876,-53.1877
13:46:17.740,-20.0001,-54.3752
13:46:17.750,-19.2501,-51.9377
13:46:17.774,-19.3751,-51.2502
13:46:17.777,-17.8751,-47.3127
13:46:17.781,-15.2501,-39.8127
13:46:17.815,-10.5625,-27.4376
13:46:17.818,-4.4375,-11.8125
13:46:17.820,1.3125,6.9375
13:46:17.823,7.4375,20.4376
13:46:17.852,12,31.7501
13:46:17.854,16.2501,43.0627
13:46:17.856,19.3126,49.4377
13:46:17.863,21.3751,54.8752
13:46:17.892,22.5001,56.9377
13:46:17.895,23.3126,57.9377
13:46:17.898,23.4376,59.0002
13:46:17.925,23.3751,58.6252
13:46:17.926,22.7501,58.1252
13:46:17.930,22.5626,57.9377
13:46:17.934,22.8751,56.9377
13:46:17.940,21.9376,56.4377
13:46:17.950,22.1876,55.6877
13:46:17.960,21.6876,54.6877
13:46:17.970,20.6876,55.0627
13:46:17.980,20.7501,52.2502
13:46:17.990,19.6251,50.0627
13:46:18.001,18.5001,47.5627
13:46:18.012,17.5626,45.6252
13:46:18.020,16.2501,42.2502
13:46:18.030,15.5626,38.7501
13:46:18.040,13.8751,35.9376
13:46:18.051,12.375,32.8751
13:46:18.062,12.125,30.0626
13:46:18.070,11.3125,28.4376
13:46:18.080,9.4375,26.3126
13:46:18.090,8.75,24.0626
13:46:18.100,8,20.3751
13:46:18.111,7.375,19.5626
13:46:18.120,7,17.6876
13:46:18.130,6.5625,16.5626
13:46:18.140,5.75,14.3751
13:46:18.150,4.75,13
13:46:18.161,4.5,11.6875
13:46:18.170,3.8125,10.3125
13:46:18.182,3.625,8.75
13:46:18.190,2.4375,6.75
13:46:18.200,2.0625,4.5625
13:46:18.210,0.375,2.375
13:46:18.221,0.3125,0.125
13:46:18.230,-1.25,-2.5
13:46:18.240,-2.5,-4.5625
13:46:18.250,-3,-8.25
13:46:18.260,-4.5625,-10.8125
13:46:18.270,-5.375,-13.125
13:46:18.280,-6.25,-16.5001
13:46:18.290,-7.5,-18.0626
13:46:18.302,-8.5,-22.2501
13:46:18.313,-9.6875,-24.2501
13:46:18.320,-10.1875,-27.1876
13:46:18.330,-11.375,-29.5001
13:46:18.340,-11.875,-31.8751
13:46:18.351,-13.1876,-33.5001
13:46:18.360,-14.2501,-36.4376
13:46:18.372,-14.8126,-38.7501
13:46:18.380,-16.0626,-41.0002
13:46:18.390,-16.2501,-42.1877
13:46:18.400,-17.8126,-43.0627
13:46:18.410,-18.0626,-45.3752
13:46:18.444,-17.8751,-47.2502
13:46:18.445,-19.2501,-48.4377
13:46:18.450,-19.0001,-49.9377
13:46:18.476,-20.1251,-51.1252
13:46:18.478,-20.1251,-52.3127
13:46:18.480,-21.0001,-53.0627
13:46:18.485,-21.7501,-55.0627
13:46:18.510,-21.5001,-55.3127
13:46:18.512,-22.6251,-54.5627
13:46:18.515,-22.6876,-56.4377
13:46:18.521,-21.8751,-55.9377
13:46:18.547,-22.8126,-55.4377
13:46:18.549,-22.3751,-53.7502
13:46:18.551,-20.0001,-49.1877
13:46:18.583,-17.5001,-42.1252
13:46:18.587,-12.4375,-29.3751
13:46:18.588,-7.1875,-13.0625
13:46:18.590,-0.875,3.3125
13:46:18.611,4,17.3751
13:46:18.614,9.8125,29.3751
13:46:18.621,13.1251,39.5002
13:46:18.630,15.8751,45.7502
13:46:18.640,17.6251,48.6252
13:46:18.650,17.5626,51.1252
13:46:18.663,18.5626,52.0002
13:46:18.670,18.5001,51.3752
13:46:18.680,18.5626,52.3752
13:46:18.690,18.6251,50.8127
13:46:18.702,18.3751,51.0627
13:46:18.710,17.8126,49.0627
13:46:18.720,17.3126,48.5627
13:46:18.730,17.5626,47.2502
13:46:18.742,16.7501,46.6252
13:46:18.750,16.7501,44.7502
13:46:18.760,15.2501,42.7502
13:46:18.772,14.4376,41.1877
13:46:18.789,13.5626,37.9376
13:46:18.795,12.3125,34.2501
13:46:18.802,11.6875,31.3751
13:46:18.811,9.4375,28.5626
13:46:18.826,9.375,25.6251
13:46:18.830,7.125,22.7501
13:46:18.867,7.0625,20.1876
13:46:18.871,5.5,17.6876
13:46:18.873,5.1875,15.0001
13:46:18.873,3.875,13.3751
13:46:18.895,3.5,11.5625
13:46:18.898,3.375,10.1875
13:46:18.904,2.5625,8.75
13:46:18.910,2.3125,6.9375
13:46:18.926,1.6875,6.1875
13:46:18.937,1.125,4.625
13:46:18.940,0.875,2.25
13:46:18.950,-0.125,1.6875
13:46:18.960,0,0.3125
13:46:18.970,-0.375,-1.9375
13:46:18.980,-2.1875,-4.0625
13:46:18.990,-2.8125,-6.0625
13:46:19.002,-3.5,-8.9375
13:46:19.010,-4.9375,-10.75
13:46:19.020,-5.5,-13.0625
13:46:19.030,-6.5625,-16.5626
13:46:19.040,-6.75,-18.6876
13:46:19.050,-8.125,-21.1251
13:46:19.060,-9.9375,-23.5626
13:46:19.071,-10.125,-26.0001
13:46:19.081,-11.0625,-28.9376
13:46:19.090,-11.5625,-31.1251
13:46:19.100,-12.5625,-33.1251
13:46:19.110,-13.5626,-35.1876
13:46:19.121,-13.7501,-37.3751
13:46:19.130,-14.6876,-39.5627
13:46:19.141,-14.5626,-41.1877
13:46:19.150,-16.2501,-42.9377
13:46:19.162,-16.2501,-44.8127
13:46:19.170,-17.1251,-45.3127
13:46:19.188,-17.8751,-47.2502
13:46:19.205,-17.6876,-49.0002
13:46:19.207,-18.1251,-49.9377
13:46:19.210,-19.3126,-50.9377
13:46:19.220,-18.8126,-52.5002
13:46:19.260,-20.3751,-53.0002
13:46:19.260,-20.3751,-54.5627
13:46:19.263,-20.8126,-54.6877
13:46:19.266,-21.4376,-56.0002
13:46:19.270,-20.4376,-56.5002
13:46:19.280,-22.1251,-55.2502
13:46:19.310,-20.8126,-56.2502
13:46:19.313,-20.8751,-53.3127
13:46:19.315,-19.5626,-51.5627
13:46:19.321,-17.2501,-44.0002
13:46:19.350,-13.9376,-33.8126
13:46:19.353,-8.25,-19.8126
13:46:19.355,-2.5625,-3.375
13:46:19.373,3.5,10.875
13:46:19.374,7.1875,22.7501
13:46:19.382,10.6875,32.2501
13:46:19.390,15.2501,39.1877
13:46:19.400,16.0001,44.3752
13:46:19.410,16.7501,47.3127
13:46:19.421,17.8126,47.5002
13:46:19.430,17.4376,47.6252
13:46:19.440,17.2501,46.8127
13:46:19.452,16.9376,46.8752
13:46:19.460,17.1251,45.4377
13:46:19.470,16.1251,43.5627
13:46:19.480,15.5001,42.3752
13:46:19.492,15.3126,40.8127
13:46:19.500,14.5001,39.6877
13:46:19.510,13.6876,37.5001
13:46:19.521,12.4375,34.8126
13:46:19.530,11.375,32.5001
13:46:19.543,10.4375,28.5626
13:46:19.551,9.5,25.3751
13:46:19.561,8.25,22.4376
13:46:19.570,7,19.5001
13:46:19.582,5.5,16.5001
13:46:19.590,4.75,14.4376
13:46:19.600,3.6875,11.4375
13:46:19.610,2.8125,9.3125
13:46:19.622,2.625,7.5625
13:46:19.630,2,6.25
13:46:19.640,2.0625,5.4375
13:46:19.650,0.75,3.625
13:46:19.662,0.25,2.8125
13:46:19.672,0.3125,1.375
13:46:19.680,-1,0.125
13:46:19.691,-1.0625,-1.875
13:46:19.700,-1.9375,-2.625
13:46:19.710,-2.625,-4.3125
13:46:19.721,-3.25,-6.25
13:46:19.731,-3.9375,-8.9375
13:46:19.743,-5.125,-10.6875
13:46:19.751,-5.5,-13.3126
13:46:19.760,-6.875,-15.6251
13:46:19.770,-7.3125,-17.6251
13:46:19.782,-8.375,-20.9376
13:46:19.790,-9.1875,-22.7501
13:46:19.801,-9.9375,-25.5626
13:46:19.810,-11,-27.9376
13:46:19.822,-11.25,-29.5626
13:46:19.831,-13,-31.6251
13:46:19.841,-12.8125,-34.0626
13:46:19.851,-14.3126,-35.4376
13:46:19.860,-14.7501,-38.6251
13:46:19.870,-15.1251,-39.5627
13:46:19.881,-16.6251,-40.2502
13:46:19.891,-17.0626,-42.8752
13:46:19.902,-16.8751,-45.0627
13:46:19.911,-18.2501,-46.0627
13:46:19.920,-18.8751,-48.5627
13:46:19.936,-19.2501,-48.7502
13:46:19.943,-19.3751,-49.8752
13:46:19.950,-19.4376,-51.3127
13:46:19.971,-21.3751,-52.0002
13:46:19.973,-20.9376,-53.6252
13:46:20.005,-21.5001,-53.9377
13:46:20.006,-21.8751,-54.7502
13:46:20.009,-21.0001,-55.5002
13:46:20.011,-22.5626,-56.5002
13:46:20.043,-22.1876,-57.1252
13:46:20.046,-22.2501,-56.4377
13:46:20.046,-22.3751,-54.8127
13:46:20.073,-21.0001,-53.7502
13:46:20.074,-19.5626,-48.7502
13:46:20.076,-16.6251,-40.0627
13:46:20.082,-12.0625,-28.0001
13:46:20.090,-5.625,-10.4375
13:46:20.122,0.25,7.5625
13:46:20.167,6.3125,20.9376
13:46:20.169,10.6875,34.2501
13:46:20.171,15.0626,42.1252
13:46:20.176,17.1876,49.9377
13:46:20.180,19.3126,52.6877
13:46:20.180,18.8751,55.6877
13:46:20.185,20.1876,54.5002
13:46:20.195,19.6251,54.6877
13:46:20.206,19.6876,54.0627
13:46:20.221,19.6876,53.8127
13:46:20.229,18.9376,52.0627
13:46:20.236,18.9376,50.9377
13:46:20.251,18.7501,49.8127
13:46:20.273,17.8751,49.6877
13:46:20.275,17.8126,47.2502
13:46:20.277,16.1251,44.8127
13:46:20.285,15.4376,43.6877
13:46:20.295,14.8751,41.5002
13:46:20.311,13.8126,38.3751
13:46:20.317,12.6875,34.8126
13:46:20.326,11.5,32.2501
13:46:20.335,10.5,28.4376
13:46:20.347,7.4375,21.4376
13:46:20.356,7.0625,19.1251
13:46:20.365,5.375,16.3126
13:46:20.376,4.875,14.7501
13:46:20.385,4.4375,12
13:46:20.396,2.6875,11.3125
13:46:20.405,2.625,9.1875
13:46:20.416,2,6.75
13:46:20.426,1.375,5.5
13:46:20.435,0.5625,3.8125
13:46:20.446,0.1875,2.75
13:46:20.458,-0.125,0.5
13:46:20.466,-0.75,-1.4375
13:46:20.475,-1.6875,-3.25
13:46:20.485,-3.125,-6
13:46:20.496,-3.375,-8
13:46:20.506,-4.3125,-9.125
13:46:20.516,-5.9375,-12.5625
13:46:20.528,-6.75,-14.6876
13:46:20.535,-7.1875,-17.4376
13:46:20.546,-8.8125,-20.1251
13:46:20.556,-9.625,-23.4376
13:46:20.565,-10.4375,-24.9376
13:46:20.576,-11.125,-27.5001
13:46:20.587,-12.125,-30.1251
13:46:20.598,-12.875,-32.5001
13:46:20.607,-13.6251,-34.3751
13:46:20.616,-14.6251,-36.0001
13:46:20.626,-15.6251,-38.5001
13:46:20.636,-15.7501,-40.8127
13:46:20.646,-16.5626,-41.8127
13:46:20.656,-17.3751,-44.2502
13:46:20.668,-17.1251,-46.2502
13:46:20.677,-18.8126,-45.9377
13:46:20.686,-19.2501,-49.0002
13:46:20.697,-19.0001,-50.0002
13:46:20.715,-20.1251,-50.3127
13:46:20.718,-20.1251,-52.2502
13:46:20.758,-20.6251,-52.5627
13:46:20.761,-20.7501,-53.1252
13:46:20.762,-20.8126,-54.3752
13:46:20.765,-21.6251,-53.3752
13:46:20.767,-21.8126,-55.0002
13:46:20.797,-21.8751,-56.1252
13:46:20.800,-22.5626,-56.1252
13:46:20.802,-22.7501,-57.3752
13:46:20.806,-21.7501,-56.5002
13:46:20.834,-22.6876,-55.6252
13:46:20.836,-21.8126,-54.3752
13:46:20.866,-21.4376,-50.1252
13:46:20.873,-18.6251,-44.8127
13:46:20.873,-14.5626,-32.8751
13:46:20.878,-8.75,-17.9376
13:46:20.884,-1.625,0.1875
13:46:20.891,3.4375,17.5626
13:46:20.903,9,28.9376
13:46:20.911,14.0001,40.6877
13:46:20.921,17.0001,48.0627
13:46:20.932,19.1876,53.7502
13:46:20.941,20.7501,56.6252
13:46:20.951,20.4376,57.5627
13:46:20.961,21.2501,57.0002
13:46:20.972,20.5001,58.0002
13:46:20.981,20.1876,55.9377
13:46:20.990,20.1876,55.7502
13:46:21.001,20.1251,53.7502
13:46:21.012,19.2501,53.1252
13:46:21.021,18.6876,51.6877
13:46:21.031,18.0626,49.6252
13:46:21.042,17.7501,48.6252
13:46:21.051,17.1876,45.5627
13:46:21.061,15.3126,43.8127
13:46:21.071,15.5001,40.5627
13:46:21.081,13.4376,38.0626
13:46:21.091,12.375,33.8126
13:46:21.101,10.9375,30.6876
13:46:21.112,9.0625,27.8126
13:46:21.121,8.25,23.7501
13:46:21.131,7.1875,20.6876
13:46:21.142,5.9375,17.9376
13:46:21.150,5.1875,15.6251
13:46:21.161,5.125,13.7501
13:46:21.171,3.3125,11.75
13:46:21.180,3.5,9.8125
13:46:21.192,2.1875,8.3125
13:46:21.201,2.375,6.6875
13:46:21.210,1.0625,4.625
13:46:21.221,1.0625,3.5
13:46:21.231,0.25,1.1875
13:46:21.243,-0.9375,0.5
13:46:21.252,-1.625,-2.375
13:46:21.261,-2.6875,-3.875
13:46:21.271,-3.375,-6
13:46:21.281,-4.125,-9.0625
13:46:21.291,-4.3125,-11.125
13:46:21.301,-5.6875,-13.5626
13:46:21.313,-6.875,-16.5626
13:46:21.321,-7.375,-18.2501
13:46:21.335,-9.0625,-20.6876
13:46:21.344,-9.3125,-22.8126
13:46:21.375,-10.5625,-26.0001
13:46:21.377,-11.3125,-29.1876
13:46:21.380,-12.5,-31.3126
13:46:21.382,-12.8125,-33.1251
13:46:21.524,-14.3751,-35.4376
13:46:21.524,-14.8126,-37.5626
13:46:21.526,-15.7501,-40.5627
13:46:21.558,-15.7501,-41.7502
13:46:21.558,-17.0626,-43.0627
13:46:21.558,-16.7501,-45.3752
13:46:21.561,-17.1876,-46.0002
13:46:21.574,-18.1251,-46.3127
13:46:21.578,-18.3751,-48.5627
13:46:21.581,-17.8126,-49.0002
13:46:21.592,-19.3126,-49.5627
13:46:21.601,-19.2501,-51.4377
13:46:21.613,-19.5626,-51.6252
13:46:21.621,-20.1251,-52.6252
13:46:21.632,-20.5001,-53.3127
13:46:21.641,-20.1876,-53.9377
13:46:21.652,-20.5626,-53.3752
13:46:21.661,-21.0001,-55.0627
13:46:21.671,-20.6251,-54.1252
13:46:21.682,-21.3751,-55.6877
13:46:21.695,-21.5001,-55.5002
13:46:21.701,-22.2501,-56.2502
13:46:21.711,6.875,24.2501
13:46:21.723,11.125,33.6876
13:46:21.731,14.1876,42.1877
13:46:21.741,16.2501,46.7502
13:46:21.751,18.0626,50.8752
13:46:21.761,18.0626,53.0627
13:46:21.771,18.4376,51.4377
13:46:21.783,18.3126,51.5627
13:46:21.791,17.5626,51.0627
13:46:21.801,17.8751,49.1877
13:46:21.812,16.8751,48.5002
13:46:21.821,16.4376,46.7502
13:46:21.831,15.8751,45.5627
13:46:21.841,15.4376,43.3127
13:46:21.851,14.8126,42.5627
13:46:21.861,14.2501,39.7502
13:46:21.872,13.1876,36.8126
13:46:21.881,12.5,33.5001
13:46:21.895,10.625,30.6876
13:46:21.901,9.4375,26.4376
13:46:21.911,7.25,22.6876
13:46:21.921,6.625,20.6251
13:46:21.931,5.375,16.6876
13:46:21.942,3.625,13.1876
13:46:21.951,2.3125,11.9375
13:46:21.961,1.8125,8.125
13:46:21.971,1.3125,6
13:46:21.981,0.125,3.8125
13:46:21.991,-0.8125,3.0625
13:46:22.004,-1,0.5625
13:46:22.011,-1.875,-1.8125
13:46:22.021,-2.1875,-3.375
13:46:22.034,-3.375,-3.375
13:46:22.041,-3.5,-6.0625
13:46:22.051,-3.25,-8.25
13:46:22.063,-4.6875,-10
13:46:22.071,-5.5625,-10.5
13:46:22.081,-6.3125,-13.1876
13:46:22.093,-6.75,-16.2501
13:46:22.101,-8.0625,-17.9376
13:46:22.120,-9.625,-19.0626
13:46:22.124,-9.5625,-22.5626
13:46:22.151,-10.75,-25.3126
13:46:22.153,-11.75,-26.8751
13:46:22.156,-11.9375,-29.6876
13:46:22.162,-13.0625,-32.5001
13:46:22.190,-14.2501,-33.3126
13:46:22.193,-14.8751,-36.7501
13:46:22.194,-16.0626,-37.6251
13:46:22.201,-15.8126,-40.1877
13:46:22.217,-17.8126,-40.9377
13:46:22.223,-17.6876,-43.1877
13:46:22.255,-18.6876,-43.8752
13:46:22.258,-19.0626,-45.7502
13:46:22.262,-19.3751,-47.6877
13:46:22.265,-19.9376,-48.8127
13:46:22.269,-20.0626,-49.6877
13:46:22.300,-20.6876,-50.0627
13:46:22.303,-20.6876,-49.7502
13:46:22.305,-21.2501,-51.0002
13:46:22.311,-21.3126,-53.3127
13:46:22.321,-21.3751,-52.8127
13:46:22.331,-21.6251,-52.9377
13:46:22.341,-20.6876,-53.6252
13:46:22.352,-21.5626,-53.5002
13:46:22.361,-21.0626,-54.5002
13:46:22.371,-22.0626,-54.2502
13:46:22.382,-21.2501,-54.2502
13:46:22.391,-22.1876,-54.0002
13:46:22.401,-22.3751,-54.9377
13:46:22.411,-22.3126,-54.9377
13:46:22.421,-22.5001,-55.1877
13:46:22.431,-22.3126,-55.1252
13:46:22.441,-22.9376,-54.2502
13:46:22.452,-21.9376,-54.5002
13:46:22.461,-22.7501,-52.4377
13:46:22.473,-21.2501,-51.1252
13:46:22.481,-19.5001,-46.2502
13:46:22.492,-17.0626,-37.8751
13:46:22.503,-12.3125,-25.3126
13:46:22.511,-6,-8.8125
13:46:22.521,0.0625,6.75
13:46:22.534,5.375,23.0626
13:46:22.541,9.875,33.2501
13:46:22.551,14.0001,42.2502
13:46:22.564,16.0626,50.2502
13:46:22.571,18.6876,53.6877
13:46:22.581,18.8126,57.0002
13:46:22.591,19.7501,57.6877
13:46:22.601,20.3126,57.3127
13:46:22.611,19.2501,56.9377
13:46:22.623,19.4376,54.5002
13:46:22.631,18.8751,53.8752
13:46:22.641,18.5001,51.3127
13:46:22.653,17.5626,50.5627
13:46:22.661,16.8751,47.9377
13:46:22.675,16.4376,46.5002
13:46:22.682,15.3126,43.3752
13:46:22.708,13.8751,40.8752
13:46:22.712,12.625,37.3126
13:46:22.716,10.5625,33.0626
13:46:22.721,9.75,30.5626
13:46:22.731,8.6875,26.5626
13:46:22.743,7.3125,22.6251
13:46:22.761,5.5625,18.8126
13:46:22.768,4.5625,16.8126
13:46:22.783,4.0625,13.6251
13:46:22.787,2.5,10.6875
13:46:22.793,1.25,9.9375
13:46:22.802,1,6.5625
13:46:22.811,-0.3125,4
13:46:22.821,-0.3125,3.125
13:46:22.840,-1.0625,1.0625
13:46:22.842,-1.5625,-1.375
13:46:22.855,-2.9375,-3.0625
13:46:22.884,-3.75,-4.6875
13:46:22.913,-4.1875,-6.375
13:46:22.915,-4.5,-9.0625
13:46:22.918,-6.375,-9.75
13:46:22.919,-6.4375,-12.25
13:46:22.919,-7.4375,-14.8126
13:46:22.952,-8.25,-18.0001
13:46:22.953,-9,-19.8126
13:46:22.955,-10.4375,-21.0001
13:46:22.959,-9.625,-23.6876
13:46:22.985,-11.0625,-26.3751
13:46:22.988,-12.3125,-28.2501
13:46:22.990,-13.0625,-29.5626
13:46:22.996,-13.3751,-32.8126
13:46:23.029,-14.6876,-33.8126
13:46:23.032,-14.9376,-36.1251
13:46:23.033,-15.1251,-37.0626
13:46:23.040,-15.7501,-38.8126
13:46:23.048,-16.9376,-39.6877
13:46:23.058,-17.5626,-40.5002
13:46:23.066,-17.4376,-41.8127
13:46:23.076,-17.6251,-43.5627
13:46:23.088,-18.4376,-45.4377
13:46:23.096,-17.7501,-46.1877
13:46:23.106,-18.6251,-45.5002
13:46:23.118,-18.6251,-47.0627
13:46:23.126,-19.3126,-47.7502
13:46:23.136,-19.3126,-48.0627
13:46:23.146,-19.7501,-47.8127
13:46:23.156,-20.0626,-48.9377
13:46:23.167,-20.3126,-48.5002
13:46:23.176,-20.1876,-49.9377
13:46:23.186,-19.5626,-49.6252
13:46:23.198,-20.7501,-49.9377
13:46:23.206,-20.8751,-50.6877
13:46:23.216,-20.2501,-50.6252
13:46:23.226,-21.2501,-50.0002
13:46:23.236,-20.8751,-50.4377
13:46:23.246,-20.8126,-50.0002
13:46:23.256,-20.9376,-50.1877
13:46:23.266,-20.6251,-50.5002
13:46:23.278,-21.5626,-49.3127
13:46:23.286,-20.1251,-49.0627
13:46:23.296,-19.7501,-45.2502
13:46:23.306,-17.8751,-41.9377
13:46:23.316,-14.9376,-32.8126
13:46:23.326,-10.6875,-19.5001
13:46:23.336,-4.625,-4.75
13:46:23.347,0.75,12.25
13:46:23.357,5.9375,25.9376
13:46:23.366,11.3125,36.3126
13:46:23.376,13.3751,43.1877
13:46:23.388,16.6251,49.5002
13:46:23.396,17.8126,53.8752
13:46:23.406,18.8751,55.7502
13:46:23.418,19.5626,57.0627
13:46:23.426,19.1876,56.3127
13:46:23.436,19.4376,56.0627
13:46:23.446,18.6251,54.4377
13:46:23.456,18.5001,52.6877
13:46:23.466,17.0626,52.1877
13:46:23.476,16.5001,49.2502
13:46:23.486,17.0001,46.8127
13:46:23.496,14.7501,44.8127
13:46:23.506,14.5626,42.6252
13:46:23.516,12.9375,38.7501
13:46:23.528,11.125,34.2501
13:46:23.536,9.75,31.3751
13:46:23.546,8.1875,26.7501
13:46:23.558,8.0625,22.9376
13:46:23.566,5.25,18.6251
13:46:23.576,3.6875,16.0626
13:46:23.607,3.25,13.3751
13:46:23.613,1.3125,9.25
13:46:23.613,0.75,7.5625
13:46:23.617,0,5.375
13:46:23.648,-0.6875,2.5
13:46:23.650,-1.5625,0.375
13:46:23.652,-2.1875,-1
13:46:23.656,-2.9375,-2.3125
13:46:23.686,-2.9375,-4.8125
13:46:23.690,-4.5,-7
13:46:23.690,-5.3125,-8
13:46:23.696,-4.9375,-10
13:46:23.712,-7,-12.5
13:46:23.716,-7.4375,-12.8125
13:46:23.743,-7.6875,-15.6876
13:46:23.745,-8.375,-18.3126
13:46:23.747,-9.8125,-20.0626
13:46:23.770,-10.1875,-21.3126
13:46:23.772,-10.3125,-23.4376
13:46:23.777,-11.25,-26.1251
13:46:23.786,-11.9375,-27.8126
13:46:23.801,-13.1251,-28.8126
13:46:23.807,-13.5626,-31.6876
13:46:23.816,-14.0001,-32.8126
13:46:23.826,-14.0626,-34.9376
13:46:23.836,-15.3751,-35.3751
13:46:23.846,-15.3126,-36.5626
13:46:23.857,-16.0626,-38.9376
13:46:23.866,-15.8751,-38.8751
13:46:23.876,-16.9376,-40.7502
13:46:23.887,-16.5626,-40.1877
13:46:23.896,-16.8126,-42.0002
13:46:23.906,-16.8126,-41.0002
13:46:23.917,-17.1251,-42.9377
13:46:23.926,-17.8126,-42.7502
13:46:23.936,-17.9376,-43.8127
13:46:23.948,-18.3126,-44.8752
13:46:23.956,-17.8751,-44.6252
13:46:23.985,-18.6251,-43.9377
13:46:23.987,-18.6876,-45.6877
13:46:23.990,-18.8126,-45.0002
13:46:23.997,-18.5001,-46.2502
13:46:24.006,-19.3126,-44.8752
13:46:24.016,-19.3751,-46.0002
13:46:24.029,-18.6251,-46.0627
13:46:24.036,-19.6251,-45.8127
13:46:24.046,-19.5626,-46.5627
13:46:24.057,-19.3751,-45.3127
13:46:24.077,-20.0001,-46.5627
13:46:24.082,-19.5001,-45.8752
13:46:24.091,-19.6876,-44.5002
13:46:24.096,-19.5001,-46.2502
13:46:24.116,-19.3126,-43.5627
13:46:24.118,-18.6251,-42.7502
13:46:24.135,-16.8751,-38.6251
13:46:24.136,-15.0001,-31.3751
13:46:24.146,-10.9375,-19.8751
13:46:24.168,-5.6875,-6.0625
13:46:24.177,-0.375,8.6875
13:46:24.191,4.375,22.6251
13:46:24.193,8.5,32.5626
13:46:24.209,11.625,40.0002
13:46:24.211,13.4376,44.8127
13:46:24.217,15.9376,48.1252
13:46:24.226,16.1876,52.5627
13:46:24.237,17.3751,52.1877
13:46:24.246,16.5626,52.3752
13:46:24.257,17.2501,50.6877
13:46:24.266,15.6876,50.2502
13:46:24.276,16.1876,47.4377
13:46:24.287,14.8751,46.5002
13:46:24.296,14.3751,43.5627
13:46:24.306,14.0001,41.1252
13:46:24.318,12.4375,38.6251
13:46:24.327,11.3125,35.8126
13:46:24.336,10.3125,31.3751
13:46:24.346,8.6875,27.9376
13:46:24.357,7.3125,24.1251
13:46:24.386,5.6875,19.9376
13:46:24.389,3.75,17.9376
13:46:24.392,3.25,12.6875
13:46:24.396,1.8125,10.6875
13:46:24.427,0.625,6.5625
13:46:24.430,-0.0625,5.0625
13:46:24.432,-0.75,2.125
13:46:24.437,-1.125,1.125
13:46:24.466,-1.9375,-0.6875
13:46:24.468,-2.625,-2.4375
13:46:24.471,-3.125,-3.9375
13:46:24.478,-3.9375,-4.9375
13:46:24.510,-3.9375,-6.1875
13:46:24.512,-4.5625,-8.3125
13:46:24.515,-5.1875,-8.8125
13:46:24.539,-5.75,-10.375
13:46:24.541,-6.6875,-12.5
13:46:24.542,-7.5625,-13.8751
13:46:24.547,-7.9375,-15.1876
13:46:24.562,-8.875,-18.1251
13:46:24.566,-9.375,-19.1876
13:46:24.576,-9.875,-20.5626
13:46:24.586,-10.5,-23.1251
13:46:24.596,-10.6875,-23.2501
13:46:24.607,-11.625,-25.7501
13:46:24.616,-11.9375,-26.7501
13:46:24.626,-13.4376,-26.8751
13:46:24.636,-13.5626,-29.9376
13:46:24.647,-14.1876,-29.5626
13:46:24.657,-14.0001,-32.1251
13:46:24.666,-14.6876,-32.0001
13:46:24.676,-14.6876,-33.6251
13:46:24.688,-15.5001,-33.4376
13:46:24.697,-15.3751,-35.9376
13:46:24.706,-15.8126,-35.4376
13:46:24.716,-15.8751,-36.5001
13:46:24.726,-15.3126,-37.1251
13:46:24.739,-16.3751,-37.5001
13:46:24.746,-16.4376,-38.5001
13:46:24.756,-16.1251,-37.4376
13:46:24.766,-16.8126,-39.4377
13:46:24.776,-16.4376,-39.0626
13:46:24.788,-16.8126,-39.6252
13:46:24.796,-16.8126,-40.0002
13:46:24.807,-17.5626,-39.0626
13:46:24.820,-17.1876,-41.0002
13:46:24.826,-17.0626,-40.5627
13:46:24.837,-18.0001,-40.5627
13:46:24.846,-17.3751,-41.0627
13:46:24.856,-17.6876,-40.3752
13:46:24.867,-17.1251,-39.9377
13:46:24.876,-17.0001,-37.4376
13:46:24.888,-15.9376,-35.1876
13:46:24.896,-13.1876,-28.9376
13:46:24.906,-10.125,-17.3751
13:46:24.918,-5.125,-4.625
13:46:24.927,0.75,11.3125
13:46:24.942,5.375,25.6876
13:46:24.952,9.5,38.0626
13:46:24.961,12.6875,47.3752
13:46:24.971,13.7501,54.8127
13:46:24.984,15.1251,59.5002
13:46:24.991,16.2501,64.5002
13:46:25.001,15.6876,66.9378
13:46:25.011,15.6876,69.2503
13:46:25.021,14.9376,71.2503
13:46:25.032,14.5001,69.6253
13:46:25.042,14.3751,69.9378
13:46:25.051,13.125,69.8753
13:46:25.061,12.375,68.0628
13:46:25.077,12.5,67.8128
13:46:25.081,9.6875,66.1253
13:46:25.116,8.25,63.5627
13:46:25.119,4.6875,62.1877
13:46:25.121,3,60.5627
13:46:25.124,1.0625,58.6252
13:46:25.131,-1.4375,56.7502
13:46:25.166,-4.375,54.0627
13:46:25.167,-5.625,53.3752
13:46:25.174,-5.9375,52.0002
13:46:25.174,-8.125,49.8127
13:46:25.202,-9.5,49.5002
13:46:25.203,-9.6875,48.3752
13:46:25.206,-9.625,47.2502
13:46:25.213,-10.0625,46.3127
13:46:25.239,-10.5,46.6252
13:46:25.241,-9.875,45.0627
13:46:25.245,-10.375,44.3127
13:46:25.269,-10.375,44.9377
13:46:25.278,-10.125,45.0002
13:46:25.278,-9.4375,43.9377
13:46:25.281,-8.125,42.0002
13:46:25.293,-7,40.0002
13:46:25.301,-4.0625,38.3751
13:46:25.318,-2.0625,37.0001
13:46:25.322,1.4375,36.3751
13:46:25.331,5.25,33.3126
13:46:25.343,8.5,29.9376
13:46:25.351,11.6875,25.6251
13:46:25.361,14.5626,19.5001
13:46:25.371,15.7501,16.2501
13:46:25.381,16.0626,15.3751
13:46:25.400,16.2501,16.0626
13:46:25.408,15.4376,17.3751
13:46:25.421,16.0001,22.5001
13:46:25.425,16.2501,26.0626
13:46:25.434,16.3751,27.6876
13:46:25.442,16.3126,29.3751
13:46:25.451,16.1876,25.8751
13:46:25.461,15.4376,20.6876
13:46:25.476,14.1251,16.0001
13:46:25.493,11.125,8.6875
13:46:25.495,6.875,3.625
13:46:25.504,3.875,-0.6875
13:46:25.511,1.5625,-4.1875
13:46:25.521,-0.8125,-6.875
13:46:25.531,-2.9375,-8.5
13:46:25.542,-3.75,-12.1875
13:46:25.551,-5,-15.7501
13:46:25.561,-5.75,-20.1251
13:46:25.572,-6.8125,-24.1251
13:46:25.581,-8.4375,-27.8126
13:46:25.591,-11.3125,-31.4376
13:46:25.602,-13.3751,-35.5626
13:46:25.611,-16.1876,-38.8751
13:46:25.624,-18.5001,-41.2502
13:46:25.632,-20.7501,-43.9377
13:46:25.641,-23.3126,-46.3752
13:46:25.651,-25.5001,-47.1252
13:46:25.661,-27.2501,-46.5002
13:46:25.672,-26.8751,-45.5002
13:46:25.681,-25.1251,-41.3127
13:46:25.692,-20.6251,-30.6251
13:46:25.701,-13.0625,-15.3126
13:46:25.711,-4.1875,2.3125
13:46:25.724,6.0625,21.5001
13:46:25.732,13.4376,40.3752
13:46:25.742,21.1251,57.5627
13:46:25.751,27.3126,73.5628
13:46:25.762,30.1876,84.4378
13:46:25.774,33.5626,92.7504
13:46:25.793,35.3126,99.0004
13:46:25.796,37.6876,104.5629
13:46:25.825,39.5627,107.1254
13:46:25.826,39.3752,107.0629
13:46:25.828,40.2502,104.6254
13:46:25.831,38.7501,101.5004
13:46:25.864,37.7501,95.1879
13:46:25.866,36.5626,92.0004
13:46:25.868,34.4376,88.8753
