timestamp,Red,IR
11:04:39.602,10.75,21.7501
11:04:39.609,10.1875,18.8126
11:04:39.614,11.0625,24.0001
11:04:39.622,12.3125,25.4376
11:04:39.633,12.3125,26.7501
11:04:39.642,12.75,27.3126
11:04:39.652,12.3125,28.4376
11:04:39.662,13.1251,29.1876
11:04:39.672,14.1251,29.6876
11:04:39.682,14.4376,32.5626
11:04:39.693,15.6251,33.4376
11:04:39.702,16.8751,35.2501
11:04:39.713,17.0001,36.9376
11:04:39.722,17.1876,37.5001
11:04:39.733,16.9376,37.6876
11:04:39.742,16.3126,36.8751
11:04:39.752,16.0626,35.8751
11:04:39.762,15.0001,34.4376
11:04:39.772,14.3751,33.9376
11:04:39.782,13.8751,32.9376
11:04:39.792,12.9375,31.3126
11:04:39.806,12.6875,29.9376
11:04:39.812,11.9375,29.3126
11:04:39.822,11.875,28.1876
11:04:39.832,11.4375,28.2501
11:04:39.842,11.5,27.6876
11:04:39.852,11.6875,27.1251
11:04:39.862,11.1875,26.1251
11:04:39.872,9.9375,24.1876
11:04:39.883,8.75,23.8751
11:04:39.892,9.125,22.1251
11:04:39.902,7.25,20.6251
11:04:39.912,6,17.9376
11:04:39.922,4.4375,16.5001
11:04:39.932,4.9375,15.3126
11:04:39.942,3.375,12.0625
11:04:39.954,2.25,9.8125
11:04:39.963,1.125,8.3125
11:04:39.972,0.0625,5.8125
11:04:39.982,-0.9375,3.375
11:04:39.992,-2.6875,0.75
11:04:40.002,-2.875,0.125
11:04:40.012,-3.4375,-2.5
11:04:40.024,-4.75,-4.75
11:04:40.034,-6.25,-6.875
11:04:40.055,-7.4375,-8.4375
11:04:40.063,-8,-11.125
11:04:40.064,-9.1875,-13.5001
11:04:40.078,-10.6875,-15.2501
11:04:40.085,-11.3125,-16.1251
11:04:40.092,-11.625,-17.7501
11:04:40.102,-12.5,-20.3126
11:04:40.112,-14.0626,-21.1876
11:04:40.122,-13.9376,-22.1251
11:04:40.132,-14.3751,-24.6876
11:04:40.143,-15.0626,-26.8751
11:04:40.154,-17.1251,-28.1251
11:04:40.163,-17.6876,-30.1876
11:04:40.172,-18.7501,-31.9376
11:04:40.187,-18.8751,-32.3751
11:04:40.192,-19.4376,-34.4376
11:04:40.202,-20.5001,-35.0626
11:04:40.212,-20.6876,-35.7501
11:04:40.223,-21.4376,-38.5001
11:04:40.234,-22.1251,-40.5002
11:04:40.242,-23.1251,-41.8752
11:04:40.253,-23.8126,-43.3127
11:04:40.263,-24.1876,-43.3127
11:04:40.272,-24.5626,-45.8127
11:04:40.282,-24.7501,-46.5002
11:04:40.292,-24.6251,-47.6252
11:04:40.302,-26.5626,-49.2502
11:04:40.313,-26.1251,-51.5627
11:04:40.341,-27.9376,-52.6252
11:04:40.343,-28.5626,-52.1877
11:04:40.343,-27.3126,-53.0002
11:04:40.354,-25.2501,-50.1252
11:04:40.362,-21.1251,-42.9377
11:04:40.373,-16.6876,-36.5001
11:04:40.382,-11.4375,-26.6251
11:04:40.392,-6.4375,-18.3126
11:04:40.402,-0.6875,-8.625
11:04:40.412,3.875,0.3125
11:04:40.423,7.4375,8.9375
11:04:40.432,10.3125,14.3126
11:04:40.443,13.125,19.6876
11:04:40.479,13.8751,23.4376
11:04:40.481,15.5001,25.0626
11:04:40.485,14.4376,26.7501
11:04:40.490,16.1876,27.8751
11:04:40.516,14.3751,28.1251
11:04:40.519,15.3126,28.3751
11:04:40.533,14.6876,28.5001
11:04:40.535,16.1876,29.1251
11:04:40.578,15.3751,30.6876
11:04:40.578,15.9376,30.3751
11:04:40.597,16.8751,32.2501
11:04:40.597,17.0001,33.6251
11:04:40.598,17.3126,34.3126
11:04:40.598,17.8751,34.3751
11:04:40.607,18.0001,34.8751
11:04:40.615,17.5626,33.6251
11:04:40.622,16.7501,34.2501
11:04:40.633,16.5001,31.8751
11:04:40.642,15.8126,30.6876
11:04:40.652,15.5626,30.6251
11:04:40.662,15.0626,28.8126
11:04:40.672,14.0001,27.8751
11:04:40.682,14.0626,29.6876
11:04:40.693,14.3751,27.3126
11:04:40.702,14.5626,27.8751
11:04:40.712,13.7501,26.8751
11:04:40.722,13.1876,26.7501
11:04:40.732,12.125,26.6876
11:04:40.742,11.5625,25.4376
11:04:40.752,10.625,22.6876
11:04:40.764,10.4375,20.6251
11:04:40.773,7.875,18.1876
11:04:40.782,7,16.1876
11:04:40.792,5.6875,14.9376
11:04:40.802,5.0625,12.4375
11:04:40.813,3.375,9.625
11:04:40.822,1.5,7
11:04:40.832,1.0625,5.5625
11:04:40.842,-0.3125,2.625
11:04:40.852,-1.8125,0.1875
11:04:40.862,-2.25,-1.75
11:04:40.873,-3.9375,-3.0625
11:04:40.884,-3.625,-5.6875
11:04:40.893,-5,-7.6875
11:04:40.902,-6.5625,-10.375
11:04:40.912,-7.3125,-10.75
11:04:40.922,-8.4375,-11.9375
11:04:40.932,-9,-14.5626
11:04:40.942,-8.4375,-16.7501
11:04:40.952,-10.4375,-18.8126
11:04:40.963,-11.9375,-20.6251
11:04:40.973,-12.625,-21.5626
11:04:40.982,-13.125,-23.7501
11:04:40.993,-13.8126,-25.5626
11:04:41.002,-15.4376,-27.1876
11:04:41.012,-15.4376,-28.1876
11:04:41.022,-15.8126,-29.6251
11:04:41.033,-16.8751,-30.5001
11:04:41.042,-16.8126,-32.5626
11:04:41.052,-18.1876,-34.0626
11:04:41.062,-18.4376,-34.7501
11:04:41.072,-19.5001,-37.4376
11:04:41.082,-20.6876,-38.8126
11:04:41.092,-21.0626,-40.3752
11:04:41.102,-22.1251,-42.0002
11:04:41.114,-21.0001,-42.0002
11:04:41.121,-19.8126,-41.1877
11:04:41.131,-17.5001,-36.8126
11:04:41.142,-14.0626,-29.7501
11:04:41.152,-9.375,-22.3126
11:04:41.163,-3.4375,-13.8751
11:04:41.172,1.6875,-3.375
11:04:41.182,6.8125,6.1875
11:04:41.192,11.5625,15.8751
11:04:41.202,15.3126,23.2501
11:04:41.212,18.8126,29.8751
11:04:41.222,21.1251,35.3751
11:04:41.233,22.1876,39.3752
11:04:41.243,22.6251,42.3752
11:04:41.252,22.9376,43.0002
11:04:41.262,22.8126,44.5002
11:04:41.272,22.7501,45.5627
11:04:41.282,22.8126,45.3752
11:04:41.293,23.3751,47.8127
11:04:41.302,23.8751,47.7502
11:04:41.314,23.5001,49.7502
11:04:41.324,24.8126,50.8127
11:04:41.332,24.8126,50.9377
11:04:41.342,24.9376,53.3127
11:04:41.361,25.5626,54.8127
11:04:41.367,26.1876,54.8752
11:04:41.376,25.6251,54.9377
11:04:41.382,25.0626,55.0002
11:04:41.400,24.2501,54.1252
11:04:41.406,23.2501,52.9377
11:04:41.414,21.9376,49.8752
11:04:41.423,21.7501,48.1252
11:04:41.432,21.1251,47.4377
11:04:41.442,20.6251,46.3127
11:04:41.452,19.9376,44.6877
11:04:41.462,18.6251,43.3752
11:04:41.473,18.3751,42.5627
11:04:41.483,17.6251,42.0627
11:04:41.492,17.6876,40.3127
11:04:41.502,16.1876,39.2501
11:04:41.512,15.3751,38.0626
11:04:41.522,14.3751,36.3751
11:04:41.532,13.4376,35.9376
11:04:41.542,12.9375,34.8126
11:04:41.553,12.0625,31.2501
11:04:41.564,10.4375,29.0001
11:04:41.573,8.6875,27.1251
11:04:41.583,6.3125,23.8751
11:04:41.592,5.3125,22.3126
11:04:41.618,4.1875,18.5626
11:04:41.620,2.25,15.3126
11:04:41.622,0.125,13.6876
11:04:41.633,-0.3125,11.0625
11:04:41.642,-1.1875,8.0625
11:04:41.653,-2.25,6.5
11:04:41.662,-2.875,4.6875
11:04:41.672,-2.9375,2.5
11:04:41.683,-4.375,-0.5
11:04:41.692,-5.4375,-2.0625
11:04:41.703,-6.4375,-3.1875
11:04:41.712,-7.3125,-6.125
11:04:41.722,-8.5,-9.0625
11:04:41.732,-9.8125,-10.8125
11:04:41.742,-10.5,-11.8125
11:04:41.752,-11.3125,-14.6251
11:04:41.763,-12.9375,-17.3126
11:04:41.773,-13.5626,-17.5001
11:04:41.809,-13.8126,-19.0001
11:04:41.809,-14.2501,-21.3751
11:04:41.812,-15.3751,-21.9376
11:04:41.816,-16.5001,-24.6876
11:04:41.846,-17.4376,-27.6251
11:04:41.931,-18.4376,-28.3751
11:04:41.931,-19.5626,-31.0626
11:04:41.941,-21.3126,-32.8751
11:04:41.944,-21.2501,-34.6876
11:04:41.948,-22.3751,-35.7501
11:04:41.948,-23.0001,-38.1251
11:04:41.955,-23.6876,-39.5627
11:04:41.962,-24.3751,-40.0002
11:04:41.972,-25.3126,-42.6252
11:04:41.981,-25.9376,-42.5002
11:04:41.994,-26.3751,-45.9377
11:04:42.002,-27.2501,-46.0627
11:04:42.012,-26.7501,-48.5627
11:04:42.022,-27.5626,-49.3752
11:04:42.032,-27.7501,-49.9377
11:04:42.043,-28.2501,-52.1252
11:04:42.052,-27.5626,-51.4377
11:04:42.062,-26.3126,-49.7502
11:04:42.073,-22.0626,-45.0627
11:04:42.083,-17.8126,-37.6251
11:04:42.092,-12.625,-27.5626
11:04:42.109,-6.1875,-17.6876
11:04:42.113,24.1251,46.1877
11:04:42.122,25.0001,47.9377
11:04:42.132,26.1876,50.5002
11:04:42.144,25.6876,51.6252
11:04:42.152,25.5626,52.0002
11:04:42.162,26.0001,53.6877
11:04:42.173,26.1876,53.5002
11:04:42.183,26.0001,55.1252
11:04:42.192,26.6876,56.5627
11:04:42.202,27.6251,58.1252
11:04:42.212,27.9376,61.0627
11:04:42.222,28.4376,62.4377
11:04:42.234,29.8751,63.1877
11:04:42.242,29.8126,65.3752
11:04:42.252,29.6876,64.5627
11:04:42.263,29.3126,64.6877
11:04:42.273,28.3751,63.1252
11:04:42.283,27.1876,61.7502
11:04:42.292,25.4376,59.5002
11:04:42.304,24.7501,57.1252
11:04:42.312,23.1876,54.3127
11:04:42.322,22.0001,52.3127
11:04:42.333,21.1251,52.0627
11:04:42.344,20.2501,51.0627
11:04:42.352,20.8751,49.3752
11:04:42.362,18.8751,46.8752
11:04:42.372,18.6876,47.1252
11:04:42.383,18.8751,45.9377
11:04:42.393,17.5001,44.0002
11:04:42.402,16.5001,43.8752
11:04:42.412,16.4376,42.0627
11:04:42.422,15.4376,39.2502
11:04:42.432,14.1876,37.1251
11:04:42.442,13.3751,35.1251
11:04:42.452,11.4375,32.7501
11:04:42.462,10.3125,30.1876
11:04:42.472,9.375,26.3751
11:04:42.482,7.0625,23.1876
11:04:42.492,5.8125,21.3126
11:04:42.502,4.3125,18.8126
11:04:42.513,2.875,16.3126
11:04:42.522,2.5,13.1876
11:04:42.532,0.5,10.9375
11:04:42.543,-1,8.9375
11:04:42.553,-2.125,5.5
11:04:42.562,-3.625,2.1875
11:04:42.573,-5.25,0.8125
11:04:42.582,-6.125,-1.625
11:04:42.592,-7.125,-5
11:04:42.602,-8.1875,-7.3125
11:04:42.612,-9.5625,-8
11:04:42.622,-10.8125,-9.6875
11:04:42.632,-10.875,-13.0625
11:04:42.642,-11.6875,-15.1251
11:04:42.652,-12.75,-15.6876
11:04:42.662,-13.6876,-17.3751
11:04:42.673,-13.1251,-19.3751
11:04:42.688,-14.6876,-21.6251
11:04:42.696,-15.0001,-22.8751
11:04:42.713,-17.0001,-23.6251
11:04:42.719,-16.6876,-27.3751
11:04:42.726,-18.1876,-28.6876
11:04:42.732,-18.6251,-29.0001
11:04:42.742,-19.5626,-32.1876
11:04:42.752,-19.5001,-33.1876
11:04:42.763,-20.3751,-34.5626
11:04:42.772,-21.9376,-36.0001
11:04:42.782,-22.1876,-38.1876
11:04:42.792,-23.4376,-38.8126
11:04:42.802,-23.3126,-40.8752
11:04:42.813,-24.3126,-42.0002
11:04:42.822,-24.5626,-44.1252
11:04:42.832,-25.8126,-44.2502
11:04:42.842,-25.5001,-46.3752
11:04:42.852,-26.3751,-46.7502
11:04:42.867,-27.0626,-50.3127
11:04:42.872,-28.1251,-50.3127
11:04:42.899,-28.2501,-53.1252
11:04:42.900,-29.0626,-53.0002
11:04:42.902,-29.7501,-55.0627
11:04:42.913,-27.0626,-52.3752
11:04:42.923,-24.3751,-47.3752
11:04:42.933,-19.5626,-40.2502
11:04:42.942,-13.2501,-30.0001
11:04:42.951,-7.9375,-17.9376
11:04:42.962,-1.375,-8.1875
11:04:42.973,5.625,3.9375
11:04:42.982,10.125,14.1876
11:04:42.992,14.6876,23.3751
11:04:43.002,17.4376,30.1876
11:04:43.012,20.1876,35.2501
11:04:43.022,21.3126,38.9376
11:04:43.034,22.1876,41.2502
11:04:43.042,22.3751,43.3752
11:04:43.052,22.1876,42.8127
11:04:43.063,22.8126,43.6877
11:04:43.073,22.3751,44.6252
11:04:43.082,22.6251,44.5002
11:04:43.092,23.3126,45.1252
11:04:43.102,23.5001,47.1877
11:04:43.112,24.2501,47.6877
11:04:43.122,24.6251,48.3752
11:04:43.132,25.7501,51.4377
11:04:43.142,26.5626,51.0002
11:04:43.152,26.3751,51.6877
11:04:43.162,25.7501,51.8127
11:04:43.184,25.5626,50.3752
11:04:43.186,24.4376,49.2502
11:04:43.193,24.0001,46.9377
11:04:43.225,23.0626,46.1252
11:04:43.290,22.1251,44.7502
11:04:43.316,22.0001,42.6877
11:04:43.318,21.2501,43.1877
11:04:43.321,21.6251,41.1252
11:04:43.321,21.3751,41.8752
11:04:43.321,21.7501,41.6252
11:04:43.329,21.3126,40.6252
11:04:43.337,21.3751,40.1877
11:04:43.348,20.4376,39.1876
11:04:43.359,19.8751,38.5626
11:04:43.368,19.1251,37.2501
11:04:43.377,18.1251,34.9376
11:04:43.387,16.8751,33.6876
11:04:43.397,15.8126,31.4376
11:04:43.409,14.7501,27.7501
11:04:43.419,12.625,26.0001
11:04:43.428,11.1875,23.4376
11:04:43.437,9.25,19.6251
11:04:43.447,8.125,16.5001
11:04:43.457,6.5,14.5001
11:04:43.467,5.0625,11.625
11:04:43.477,3.375,8.4375
11:04:43.488,-4.125,-7
11:04:43.497,-4.875,-8.9375
11:04:43.508,-5.5625,-9.75
11:04:43.518,-6.6875,-11.875
11:04:43.528,-8.0625,-13
11:04:43.537,-8.3125,-15.6251
11:04:43.547,-9.125,-16.9376
11:04:43.557,-9.5625,-18.3751
11:04:43.567,-10,-20.5001
11:04:43.577,-10.8125,-21.5001
11:04:43.587,-11.1875,-22.8126
11:04:43.598,-12.6875,-24.3126
11:04:43.607,-13.3751,-25.4376
11:04:43.618,-14.3126,-28.8126
11:04:43.627,-15.7501,-29.5626
11:04:43.637,-16.6251,-31.5626
11:04:43.649,-18.1251,-34.9376
11:04:43.658,-18.9376,-37.1876
11:04:43.668,-21.5001,-38.1251
11:04:43.677,-22.5626,-41.8127
11:04:43.689,-23.6876,-43.6252
11:04:43.699,-24.5626,-44.3752
11:04:43.708,-22.8126,-43.8127
11:04:43.717,-21.0001,-38.8751
11:04:43.727,-15.8126,-32.5001
11:04:43.737,-11.4375,-22.8126
11:04:43.748,-4.9375,-13
11:04:43.758,0.8125,-1.4375
11:04:43.767,7.6875,9.75
11:04:43.777,12.5,20.9376
11:04:43.786,17.0626,29.3126
11:04:43.797,21.0626,37.3751
11:04:43.807,23.3751,41.6252
11:04:43.817,26.1876,46.1877
11:04:43.828,26.5001,49.8127
11:04:43.837,27.7501,50.6877
11:04:43.849,28.8126,52.7502
11:04:43.857,28.5626,53.1252
11:04:43.867,29.7501,53.7502
11:04:43.877,29.1251,54.7502
11:04:43.887,29.7501,54.8127
11:04:43.897,30.0626,56.3127
11:04:43.907,29.8126,55.8127
11:04:43.917,29.9376,57.7502
11:04:43.927,29.9376,57.7502
11:04:43.938,29.5626,58.5002
11:04:43.947,30.3126,58.0002
11:04:43.957,28.9376,57.2502
11:04:43.967,27.3751,55.3752
11:04:43.977,26.2501,54.2502
11:04:43.988,24.6251,52.4377
11:04:44.002,23.2501,50.0002
11:04:44.011,22.4376,46.8127
11:04:44.017,21.3126,44.2502
11:04:44.035,20.3751,43.5627
11:04:44.037,19.7501,42.8127
11:04:44.052,20.1251,41.0627
11:04:44.059,20.3751,39.9377
11:04:44.071,19.4376,38.7501
11:04:44.077,19.1251,38.0626
11:04:44.088,18.8751,38.2501
11:04:44.097,19.1251,36.6251
11:04:44.107,17.7501,34.9376
11:04:44.117,17.1876,34.0626
11:04:44.128,16.1876,31.7501
11:04:44.138,15.0001,29.5001
11:04:44.148,13.3751,25.7501
11:04:44.178,12.1875,22.7501
11:04:44.180,10.75,20.2501
11:04:44.182,9.3125,17.9376
11:04:44.188,8.25,15.1876
11:04:44.197,7.5,12.4375
11:04:44.207,5.375,8.3125
11:04:44.217,2.6875,5.1875
11:04:44.227,1.0625,3.5
11:04:44.237,-0.25,0.1875
11:04:44.247,-1.1875,-3
11:04:44.258,-3.3125,-5.875
11:04:44.267,-4.6875,-8.8125
11:04:44.277,-5.875,-9.125
11:04:44.287,-6.625,-12.75
11:04:44.297,-6.875,-14.8751
11:04:44.307,-8.0625,-16.7501
11:04:44.317,-9.5625,-17.2501
11:04:44.327,-10.625,-20.2501
11:04:44.337,-12,-23.5626
11:04:44.347,-13.5001,-25.6251
11:04:44.357,-13.8751,-27.0001
11:04:44.367,-13.8751,-28.6251
11:04:44.377,-14.1876,-28.6251
11:04:44.387,-14.1251,-30.3126
11:04:44.397,-15.2501,-33.2501
11:04:44.407,-15.8751,-34.6251
11:04:44.417,-17.2501,-37.0626
11:04:44.427,-18.0626,-38.9376
11:04:44.437,-19.5001,-41.1252
11:04:44.453,-20.5626,-42.6252
11:04:44.457,-21.8751,-44.9377
11:04:44.467,-22.6876,-47.0002
11:04:44.477,-24.4376,-50.0002
11:04:44.488,-25.6251,-51.0627
11:04:44.497,-27.3751,-53.4377
11:04:44.507,-27.5001,-54.7502
11:04:44.517,-29.1876,-56.4377
11:04:44.528,-28.9376,-57.8127
11:04:44.538,-30.5001,-59.0002
11:04:44.548,-30.9376,-61.3127
11:04:44.568,-32.2501,-61.9377
11:04:44.571,-33.6251,-65.0627
11:04:44.586,-33.0626,-66.2503
11:04:44.601,-34.3126,-66.2503
11:04:44.606,-34.0001,-69.0628
11:04:44.618,-35.0626,-68.5003
11:04:44.623,-33.7501,-70.0003
11:04:44.632,-33.0001,-66.9378
11:04:44.642,-28.2501,-62.4377
11:04:44.659,-23.1251,-52.3752
11:04:44.663,-15.6876,-42.2502
11:04:44.706,-9.0625,-28.5626
11:04:44.707,-1.1875,-16.8126
11:04:44.709,5.3125,-1.6875
11:04:44.713,12,9.5
11:04:44.721,18.5001,21.5001
11:04:44.723,22.0001,30.6251
11:04:44.755,25.7501,37.7501
11:04:44.757,28.8751,45.7502
11:04:44.758,30.5626,50.1877
11:04:44.762,31.4376,50.9377
11:04:44.787,31.5626,53.5002
11:04:44.788,32.0626,54.8752
11:04:44.792,32.0626,55.8127
11:04:44.803,33.1251,57.2502
11:04:44.812,32.8126,58.6252
11:04:44.827,34.2501,59.1877
11:04:44.833,34.4376,61.6252
11:04:44.842,35.5001,62.9377
11:04:44.853,35.8751,65.6253
11:04:44.862,35.8751,67.4378
11:04:44.872,37.0001,67.9378
11:04:44.882,36.6251,67.7503
11:04:44.892,36.4376,68.3128
11:04:44.902,34.7501,66.4378
11:04:44.912,34.4376,64.7502
11:04:44.922,32.5001,62.9377
11:04:44.932,32.1876,59.9377
11:04:44.942,30.0001,58.5002
11:04:44.953,28.7501,56.5627
11:04:44.962,28.4376,53.5627
11:04:44.972,26.1876,53.0627
11:04:44.983,26.2501,50.1877
11:04:44.992,24.8126,49.5627
11:04:45.002,24.8126,48.0002
11:04:45.012,23.5626,45.8752
11:04:45.022,22.9376,44.5627
11:04:45.033,23.0626,43.3752
11:04:45.043,20.8751,41.2502
11:04:45.053,20.0626,39.0001
11:04:45.062,18.0626,37.1876
11:04:45.073,17.0626,34.1876
11:04:45.082,15.2501,32.3751
11:04:45.092,13.3751,29.6251
11:04:45.103,13.0625,25.5001
11:04:45.112,11.1875,23.4376
11:04:45.122,10.375,19.6251
11:04:45.132,8.625,17.4376
11:04:45.143,7.6875,14.5626
11:04:45.152,5.8125,11
11:04:45.162,4.625,8.3125
11:04:45.172,3.875,6.1875
11:04:45.183,1.625,2.9375
11:04:45.192,0.875,-0.1875
11:04:45.207,-1.875,-2.5
11:04:45.213,-1.9375,-4.6875
11:04:45.222,-4,-6.875
11:04:45.232,-5.8125,-8.875
11:04:45.242,-6.375,-12.0625
11:04:45.252,-7.75,-13.1876
11:04:45.262,-8.5625,-16.1876
11:04:45.274,-9.625,-18.8751
11:04:45.284,-10.125,-19.3126
11:04:45.293,-11.4375,-22.4376
11:04:45.302,-12.375,-23.6876
11:04:45.320,-12.625,-25.8751
11:04:45.326,-13.8751,-27.6876
11:04:45.333,-13.8126,-28.8751
11:04:45.343,-15.3751,-31.1876
11:04:45.357,-15.5001,-33.1251
11:04:45.373,-17.3751,-34.7501
11:04:45.376,-18.3751,-36.8751
11:04:45.382,-19.5626,-38.1876
11:04:45.392,-20.0626,-40.9377
11:04:45.403,-21.0626,-42.3127
11:04:45.412,-22.0001,-42.2502
11:04:45.422,-22.3751,-45.7502
11:04:45.433,-22.5001,-46.8127
11:04:45.458,-24.5001,-48.6877
11:04:45.459,-25.3751,-51.0002
11:04:45.462,-25.7501,-51.5002
11:04:45.472,-25.9376,-53.8127
11:04:45.482,-27.0626,-54.5627
11:04:45.493,-27.2501,-56.6252
11:04:45.502,-27.1876,-56.8752
11:04:45.512,-28.0626,-59.2502
11:04:45.522,-28.5626,-59.2502
11:04:45.531,-29.1251,-62.5002
11:04:45.543,-29.5626,-62.2502
11:04:45.552,-30.0001,-63.8127
11:04:45.562,-31.2501,-66.1878
11:04:45.573,-31.8126,-66.5628
11:04:45.581,-31.1876,-66.3753
11:04:45.592,-29.0001,-61.8752
11:04:45.602,-24.3751,-55.6877
11:04:45.613,-18.2501,-45.2502
11:04:45.622,-12.25,-35.2501
11:04:45.632,-5.5,-21.8751
11:04:45.643,1.0625,-10.1875
11:04:45.653,7.875,2.6875
11:04:45.663,14.3751,13.6251
11:04:45.672,17.6876,23.0001
11:04:45.681,21.4376,30.1876
11:04:45.692,23.0001,35.1876
11:04:45.702,25.1876,38.5626
11:04:45.712,24.9376,41.3127
11:04:45.722,25.3126,42.2502
11:04:45.732,25.3751,42.3752
11:04:45.742,25.1251,43.5002
11:04:45.753,25.1876,43.6252
11:04:45.762,25.2501,44.0627
11:04:45.772,25.4376,44.3127
11:04:45.782,25.6876,45.5627
11:04:45.793,26.7501,46.0627
11:04:45.802,26.1876,49.5627
11:04:45.812,27.6876,49.3752
11:04:45.822,27.8126,50.1877
11:04:45.833,28.4376,51.8127
11:04:45.842,28.6251,51.1252
11:04:45.853,27.6876,50.5627
11:04:45.862,27.2501,48.6877
11:04:45.872,26.0626,48.0627
11:04:45.887,25.1876,45.8127
11:04:45.896,25.1876,44.6877
11:04:45.902,25.1251,44.4377
11:04:45.918,24.5001,41.8127
11:04:45.922,24.6251,42.0627
11:04:45.937,24.9376,41.8127
11:04:45.942,23.8751,42.0002
11:04:45.959,24.5001,41.8752
11:04:45.964,24.5001,41.3127
11:04:45.972,23.9376,40.8752
11:04:45.982,23.2501,39.5002
11:04:45.992,21.8751,39.5002
11:04:46.002,20.8126,36.4376
11:04:46.012,19.6251,34.2501
11:04:46.022,17.7501,31.9376
11:04:46.033,16.1876,28.8751
11:04:46.042,14.5001,26.9376
11:04:46.053,12.5,24.4376
11:04:46.069,10.9375,20.6876
11:04:46.072,9.25,18.6251
11:04:46.101,8.1875,15.1251
11:04:46.105,6.625,12.5625
11:04:46.106,6,9.625
11:04:46.114,4.375,6.75
11:04:46.152,3.5,4.5
11:04:46.154,2.6875,2.75
11:04:46.155,1.5625,0.375
11:04:46.162,0.5625,-2.0625
11:04:46.162,-1.625,-4.1875
11:04:46.196,-1.625,-6.5625
11:04:46.197,-4.125,-8.5625
11:04:46.200,-4.5625,-10.625
11:04:46.202,-6,-12.5625
11:04:46.213,-6.75,-13.5626
11:04:46.223,-7.4375,-16.4376
11:04:46.232,-9.0625,-18.2501
11:04:46.242,-9.625,-20.0001
11:04:46.252,-11,-21.5626
11:04:46.261,-11.625,-23.3126
11:04:46.274,-13,-25.7501
11:04:46.283,-13.1251,-26.3751
11:04:46.292,-14.0626,-28.9376
11:04:46.302,-14.5626,-30.0626
11:04:46.312,-14.5626,-31.6251
11:04:46.322,-15.8126,-32.7501
11:04:46.334,-15.8126,-34.8751
11:04:46.342,-16.0626,-35.6876
11:04:46.352,-17.0626,-38.1251
11:04:46.362,-17.0001,-38.9376
11:04:46.372,-17.9376,-39.4377
11:04:46.383,-18.0626,-41.8752
11:04:46.392,-17.8126,-43.1877
11:04:46.402,-18.0001,-43.8127
11:04:46.412,-18.2501,-42.5627
11:04:46.423,-15.6876,-39.7502
11:04:46.432,-11,-34.9376
11:04:46.442,-6.4375,-25.1876
11:04:46.452,0.375,-16.1876
11:04:46.462,6.1875,-3.875
11:04:46.472,13.1251,7.1875
11:04:46.482,17.6876,18.4376
11:04:46.492,23.6251,28.3126
11:04:46.502,27.2501,37.5626
11:04:46.512,31.5626,44.0002
11:04:46.522,33.0626,48.5627
11:04:46.532,34.8126,51.8127
11:04:46.541,35.8126,54.5627
11:04:46.552,36.3751,54.7502
11:04:46.564,35.5626,55.5002
11:04:46.573,36.1251,55.0627
11:04:46.583,35.4376,55.9377
11:04:46.593,35.8751,55.3752
11:04:46.603,35.3751,56.8752
11:04:46.612,36.7501,56.8127
11:04:46.623,36.5001,57.3752
11:04:46.642,37.8126,59.3127
11:04:46.649,38.6251,60.2502
11:04:46.657,38.6251,60.7502
11:04:46.662,38.3751,62.1877
11:04:46.680,38.8751,60.2502
11:04:46.685,38.3126,59.0627
11:04:46.693,37.2501,56.8752
11:04:46.710,35.4376,53.9377
11:04:46.712,33.8751,52.3127
11:04:46.739,32.1876,50.2502
11:04:46.741,31.8126,48.3752
11:04:46.743,30.6251,46.6252
11:04:46.752,31.1251,46.0627
11:04:46.764,30.7501,45.5627
11:04:46.773,31.7501,45.5627
11:04:46.782,32.4376,45.3752
11:04:46.792,32.5001,45.6877
11:04:46.802,32.0626,44.7502
11:04:46.812,31.4376,42.6877
11:04:46.822,30.2501,41.1877
11:04:46.832,30.0001,39.4377
11:04:46.842,27.9376,37.1251
11:04:46.852,26.6251,34.8751
11:04:46.862,24.7501,31.1876
11:04:46.873,22.3751,29.3126
11:04:46.882,20.9376,25.0626
11:04:46.892,19.1251,21.6251
11:04:46.902,18.7501,21.0001
11:04:46.912,17.2501,17.1876
11:04:46.923,16.3126,15.2501
11:04:46.933,14.8126,11.1875
11:04:46.945,13.6876,10
11:04:46.952,12.5,6.25
11:04:46.962,10.375,3.5
11:04:46.972,9.3125,1.4375
11:04:46.982,6.5625,-1.6875
11:04:46.992,5.375,-4.125
11:04:47.002,3.125,-6.75
11:04:47.012,2,-9.375
11:04:47.022,0.5625,-11.6875
11:04:47.032,-0.875,-12.375
11:04:47.042,-2.3125,-15.3126
11:04:47.052,-3.625,-18.3126
11:04:47.063,-4.5,-20.0001
11:04:47.072,-5.125,-22.0001
11:04:47.083,-6.5,-24.0626
11:04:47.092,-7.25,-25.9376
11:04:47.102,-9.75,-27.7501
11:04:47.112,-9.6875,-29.7501
11:04:47.122,-12.6875,-32.5001
11:04:47.132,-13.3126,-34.4376
11:04:47.142,-15.2501,-36.3751
11:04:47.152,-16.3751,-38.5626
11:04:47.162,-17.1876,-40.0627
11:04:47.172,-18.8126,-43.1252
11:04:47.182,-19.8126,-44.3127
11:04:47.203,-21.4376,-46.7502
11:04:47.205,-22.5001,-48.2502
11:04:47.215,-24.0626,-50.3127
11:04:47.222,-24.4376,-51.6252
11:04:47.237,-25.0626,-53.3752
11:04:47.246,-26.8751,-56.1252
11:04:47.251,-27.9376,-57.4377
11:04:47.262,-28.3126,-59.0627
11:04:47.273,-29.3126,-61.1252
11:04:47.282,-30.0626,-62.5002
11:04:47.293,-31.3751,-63.0627
11:04:47.303,-31.5626,-65.1878
11:04:47.312,-32.3126,-65.5002
11:04:47.322,-32.2501,-66.6878
11:04:47.332,-30.0626,-65.3128
11:04:47.342,-27.5626,-60.3127
11:04:47.352,-22.1251,-52.7502
11:04:47.362,-15.9376,-42.3752
11:04:47.372,-7.625,-28.2501
11:04:47.381,-0.6875,-15.0626
11:04:47.392,6.5,-1.1875
11:04:47.403,12.6875,11.125
11:04:47.413,18.4376,23.4376
11:04:47.422,22.6251,31.7501
11:04:47.431,25.9376,40.1877
11:04:47.442,28.4376,45.1252
11:04:47.458,30.0001,49.8127
11:04:47.462,30.8126,51.5002
11:04:47.472,31.4376,54.5002
11:04:47.490,31.6251,55.1252
11:04:47.493,31.7501,57.3752
11:04:47.530,31.5001,56.8752
11:04:47.530,32.2501,58.8752
11:04:47.532,32.1876,59.5627
11:04:47.534,33.5001,62.6252
11:04:47.566,33.5001,62.6252
11:04:47.569,35.0001,66.0003
11:04:47.571,35.3126,66.7503
11:04:47.596,35.5626,68.7503
11:04:47.597,36.9376,70.6253
11:04:47.600,36.2501,71.1878
11:04:47.606,35.8751,69.7503
11:04:47.612,35.2501,68.8753
11:04:47.622,34.3751,66.7503
11:04:47.633,33.4376,64.8127
11:04:47.642,32.5001,63.2502
11:04:47.652,30.6251,59.8127
11:04:47.662,30.3751,58.9377
11:04:47.672,29.3126,55.9377
11:04:47.682,29.8126,55.7502
11:04:47.692,28.3751,53.3127
11:04:47.702,28.3126,52.6252
11:04:47.712,26.8126,51.7502
11:04:47.722,26.6876,50.1252
11:04:47.732,25.9376,48.3752
11:04:47.742,24.9376,47.4377
11:04:47.752,25.0001,45.8127
11:04:47.762,22.9376,43.3752
11:04:47.772,20.5001,41.6877
11:04:47.782,20.0626,38.0626
11:04:47.792,18.1876,36.0626
11:04:47.803,17.1251,32.2501
11:04:47.813,14.1876,30.5001
11:04:47.822,12.875,25.3126
11:04:47.833,10.5,23.6251
11:04:47.842,8.875,19.6251
11:04:47.852,7.1875,16.0626
11:04:47.863,6.125,14.3751
11:04:47.872,4.5,10.3125
11:04:47.882,3.3125,7.75
11:04:47.892,2,4.875
11:04:47.902,-0.1875,1.9375
11:04:47.912,-1.375,-0.375
11:04:47.922,-2.9375,-3
11:04:47.932,-4.9375,-4.9375
11:04:47.942,-5.75,-8.5
11:04:47.952,-6.875,-9.75
11:04:47.970,-7.4375,-12.1875
11:04:47.976,-9.5,-15.6876
11:04:47.983,-10.875,-15.6251
11:04:47.993,-11.125,-18.8751
11:04:48.020,-11.9375,-20.6251
11:04:48.024,-13.6251,-22.2501
11:04:48.040,-14.5626,-23.7501
11:04:48.041,-14.8751,-26.3751
11:04:48.044,-15.5626,-28.9376
11:04:48.052,-16.3751,-29.3126
11:04:48.063,-17.2501,-31.8126
11:04:48.072,-18.6251,-34.3751
11:04:48.082,-19.3126,-35.3751
11:04:48.092,-20.6876,-37.5001
11:04:48.102,-20.3751,-39.2502
11:04:48.112,-22.1876,-40.5627
11:04:48.123,-22.6251,-42.8752
11:04:48.132,-23.7501,-44.3752
11:04:48.140,-24.8126,-45.7502
11:04:48.152,-25.3751,-48.8127
11:04:48.163,-26.4376,-49.0627
11:04:48.172,-26.6876,-51.8752
11:04:48.183,-27.4376,-53.5002
11:04:48.192,-27.6251,-53.5002
11:04:48.203,-28.3751,-55.8752
11:04:48.212,-29.0626,-56.6877
11:04:48.223,-29.3126,-57.1877
11:04:48.232,-29.0001,-58.6877
11:04:48.242,-30.0001,-60.7502
11:04:48.253,-30.1251,-60.9377
11:04:48.263,-30.5626,-63.2502
11:04:48.272,-30.8751,-63.6877
11:04:48.282,-32.6251,-65.7503
11:04:48.291,-32.7501,-67.6253
11:04:48.302,-33.6876,-68.3753
11:04:48.312,-33.9376,-70.6878
11:04:48.320,-33.3751,-70.6878
11:04:48.332,-31.1251,-66.6253
11:04:48.342,-27.1876,-60.7502
11:04:48.352,-21.1251,-51.7502
11:04:48.362,-14.6876,-39.3752
11:04:48.371,-7.625,-27.1876
11:04:48.382,-1,-13.2501
11:04:48.392,5.875,-2.4375
11:04:48.401,11.875,9.5
11:04:48.411,15.5001,19.8751
11:04:48.423,19.0001,26.5626
11:04:48.431,22.1876,32.8126
11:04:48.442,22.9376,37.0001
11:04:48.452,24.0626,39.5002
11:04:48.462,23.8751,41.3127
11:04:48.470,23.9376,41.6252
11:04:48.482,24.5001,43.6877
11:04:48.491,23.6876,43.5002
11:04:48.502,24.0001,44.0002
11:04:48.520,23.8751,46.3752
11:04:48.523,25.3126,45.9377
11:04:48.538,26.8751,48.0627
11:04:48.553,26.0001,49.8127
11:04:48.556,26.7501,50.6252
11:04:48.565,28.1876,52.5627
11:04:48.570,28.6876,54.3752
11:04:48.587,28.9376,55.6877
11:04:48.596,29.8126,56.1877
11:04:48.607,29.0001,55.4377
11:04:48.616,28.2501,54.5627
11:04:48.627,27.1876,52.3127
11:04:48.636,27.1251,50.5002
11:04:48.647,25.8126,48.9377
11:04:48.657,24.2501,46.7502
11:04:48.667,23.5001,45.1252
11:04:48.676,23.7501,45.1252
11:04:48.687,23.5001,42.5627
11:04:48.697,22.3751,42.1877
11:04:48.706,22.0626,41.5627
11:04:48.715,21.4376,39.1251
11:04:48.727,20.1876,37.6251
11:04:48.737,19.8126,36.2501
11:04:48.746,17.4376,34.5626
11:04:48.757,16.0626,32.4376
11:04:48.768,15.1251,30.1251
11:04:48.778,13.6876,27.1251
11:04:48.787,12.0625,25.0001
11:04:48.796,10.75,22.5626
11:04:48.807,9.125,18.6876
11:04:48.819,7.0625,16.3126
11:04:48.849,6.125,13.4376
11:04:48.851,4.125,10.1875
11:04:48.855,2,7.75
11:04:48.858,0.5625,5.125
11:04:48.890,-0.25,1.875
11:04:48.891,-2.875,-1.625
11:04:48.893,-4.8125,-4.3125
11:04:48.900,-5.75,-5.5
11:04:48.926,-6.9375,-8.25
11:04:48.929,-7.75,-10.4375
11:04:48.930,-9.3125,-13.3126
11:04:48.956,-10.625,-14.6876
11:04:48.959,-10.9375,-17.0626
11:04:48.960,-13.1251,-19.6251
11:04:48.967,-14.9376,-21.0001
11:04:48.983,-15.3751,-22.5001
11:04:48.988,-16.4376,-25.6251
11:04:48.997,-17.8126,-26.8126
11:04:49.007,-18.9376,-28.1876
11:04:49.017,-19.6876,-31.0001
11:04:49.027,-20.9376,-33.3751
11:04:49.035,-21.7501,-35.2501
11:04:49.049,-21.8126,-37.0626
11:04:49.057,-23.0626,-38.0626
11:04:49.067,-23.0001,-39.6877
11:04:49.077,-23.9376,-41.0627
11:04:49.087,-23.4376,-42.1252
11:04:49.096,-24.4376,-44.0627
11:04:49.107,-24.6876,-45.8752
11:04:49.116,-24.8126,-46.4377
11:04:49.125,-25.5001,-48.5627
11:04:49.137,-25.6876,-48.8127
11:04:49.147,-26.4376,-51.0627
11:04:49.157,-27.1251,-52.6252
11:04:49.167,-27.6876,-53.2502
11:04:49.176,-28.3751,-55.8127
11:04:49.186,-29.0001,-56.9377
11:04:49.197,-29.5626,-57.5002
11:04:49.206,-30.3751,-59.2502
11:04:49.218,-31.3126,-61.4377
11:04:49.226,-31.3126,-62.0002
11:04:49.237,-31.6876,-63.6252
11:04:49.247,-31.9376,-65.2503
11:04:49.257,-31.7501,-65.8753
11:04:49.267,-33.2501,-67.3753
11:04:49.297,-33.1876,-68.5628
11:04:49.312,-33.5626,-68.6878
11:04:49.318,-31.8751,-68.0628
11:04:49.325,-28.3126,-62.9377
11:04:49.335,-24.1876,-54.1877
11:04:49.352,-17.9376,-45.7502
11:04:49.353,-10.875,-34.5001
11:04:49.368,-4.5,-22.3751
11:04:49.374,1.4375,-12.4375
11:04:49.374,7.25,-0.5
11:04:49.377,11.6875,8.5625
11:04:49.385,15.6876,16.0001
11:04:49.399,17.4376,21.9376
11:04:49.408,19.5626,25.9376
11:04:49.417,19.7501,29.5626
11:04:49.426,20.1251,30.3126
11:04:49.436,20.3751,31.0001
11:04:49.447,19.8751,32.6876
11:04:49.457,20.0001,31.7501
11:04:49.467,20.6251,32.8126
11:04:49.477,19.5001,34.3126
11:04:49.487,20.2501,33.0626
11:04:49.499,20.4376,34.6876
11:04:49.507,19.8751,35.1251
11:04:49.516,20.0001,36.3126
11:04:49.527,21.3126,37.5001
11:04:49.537,20.6876,37.6251
11:04:49.546,20.4376,38.6251
11:04:49.556,20.2501,37.4376
11:04:49.567,19.6876,37.3751
11:04:49.577,18.8126,35.8126
11:04:49.585,18.3751,33.8751
11:04:49.597,17.1876,32.4376
11:04:49.607,16.3126,32.3126
11:04:49.617,16.3126,31.7501
11:04:49.627,16.2501,30.1876
11:04:49.635,15.1876,29.1876
11:04:49.647,15.3126,29.9376
11:04:49.657,15.1876,29.8126
11:04:49.665,15.6876,28.8126
11:04:49.676,14.9376,28.4376
11:04:49.687,14.6876,28.3751
11:04:49.697,14.9376,27.9376
11:04:49.708,15.0626,26.1251
11:04:49.717,13.2501,24.2501
11:04:49.726,12.1875,23.6876
11:04:49.737,10.75,20.2501
11:04:49.747,10,17.3751
11:04:49.756,8,15.1876
11:04:49.766,6.5,13.3751
11:04:49.777,5.4375,11.3125
11:04:49.787,4.3125,7.5
11:04:49.797,2.25,4.9375
11:04:49.808,0.875,3.4375
11:04:49.816,0,0.625
11:04:49.840,-1.3125,-2.6875
11:04:49.842,-3.0625,-5.5625
11:04:49.857,-4.625,-6.4375
11:04:49.859,-5.75,-9.75
11:04:49.867,-7.375,-13
11:04:49.877,-8.375,-14.0626
11:04:49.885,-9.5625,-17.0001
11:04:49.897,-10.9375,-19.6251
11:04:49.907,-12.875,-20.2501
11:04:49.917,-13,-23.1876
11:04:49.927,-14.0626,-25.5001
11:04:49.938,-15.0626,-26.8126
11:04:49.947,-15.9376,-27.6876
11:04:49.957,-16.5001,-29.3126
11:04:49.967,-16.1876,-31.3751
11:04:49.977,-17.6876,-33.3126
11:04:49.986,-18.4376,-32.9376
11:04:49.997,-18.9376,-36.3126
11:04:50.005,-19.8126,-37.8126
11:04:50.017,-20.0626,-39.1877
11:04:50.027,-21.1876,-41.0627
11:04:50.037,-21.7501,-42.1252
11:04:50.046,-23.1876,-44.8127
11:04:50.056,-23.9376,-45.1877
11:04:50.067,-24.4376,-47.9377
11:04:50.077,-25.4376,-48.7502
11:04:50.085,-26.6876,-52.0002
11:04:50.097,-28.1876,-52.9377
11:04:50.112,-29.7501,-55.0627
11:04:50.117,-30.5626,-57.2502
11:04:50.126,-31.2501,-59.5627
11:04:50.137,-32.1876,-60.6252
11:04:50.146,-32.9376,-62.8127
11:04:50.157,-33.6876,-63.5627
11:04:50.166,-34.8126,-66.2503
11:04:50.175,-34.5001,-66.1253
11:04:50.187,-33.3751,-66.8753
11:04:50.195,-31.0001,-62.0627
11:04:50.206,-27.2501,-57.1252
11:04:50.216,-21.4376,-48.4377
11:04:50.226,-16.8126,-38.5001
11:04:50.237,-10.625,-27.8126
11:04:50.245,-4.25,-15.4376
11:04:50.257,1.5625,-5.4375
11:04:50.266,6.6875,5.1875
11:04:50.275,10.5,12.875
11:04:50.286,14.2501,21.0626
11:04:50.297,16.0626,26.3751
11:04:50.307,17.6876,29.5001
11:04:50.317,18.1251,31.0626
11:04:50.327,18.5001,32.8751
11:04:50.337,19.1251,34.0001
11:04:50.346,18.0626,34.8751
11:04:50.357,18.1251,35.5626
11:04:50.383,18.8126,36.7501
11:04:50.385,18.5626,37.5001
11:04:50.389,18.9376,37.8126
11:04:50.420,19.2501,40.5627
11:04:50.423,19.1876,40.6252
11:04:50.425,19.6876,42.7502
11:04:50.428,20.6251,43.3752
11:04:50.458,21.2501,44.8127
11:04:50.460,21.4376,45.3752
11:04:50.462,21.3126,46.9377
11:04:50.501,21.9376,45.1252
11:04:50.501,20.4376,45.3127
11:04:50.502,20.5001,41.7502
11:04:50.510,19.3751,40.5002
11:04:50.510,19.5626,39.9377
11:04:50.516,19.2501,38.1876
11:04:50.526,18.8751,37.1251
11:04:50.537,18.3751,35.4376
11:04:50.546,17.7501,34.6251
11:04:50.579,16.8126,33.3126
11:04:50.581,16.7501,32.3751
11:04:50.583,15.5001,31.3751
11:04:50.587,14.3126,30.3126
11:04:50.597,13.8751,28.1876
11:04:50.608,12.5,26.4376
11:04:50.617,11.9375,25.1251
11:04:50.637,10.375,22.9376
11:04:50.642,8.875,20.9376
11:04:50.657,8.4375,18.4376
11:04:50.659,6.3125,15.6876
11:04:50.666,5.6875,13.6251
11:04:50.675,4.625,10.6875
11:04:50.687,3.125,7.5625
11:04:50.695,1.5625,4.8125
11:04:50.707,0.3125,2.6875
11:04:50.715,-0.5625,0.8125
11:04:50.727,-1.375,-1.375
11:04:50.735,-1.875,-3.875
11:04:50.746,-3.5625,-5.9375
11:04:50.757,-4.0625,-8.25
11:04:50.766,-6.5,-10.5
11:04:50.777,-7.625,-13.8126
11:04:50.787,-10.875,-17.1876
11:04:50.796,-13.5626,-19.8126
11:04:50.807,-16.1876,-24.1251
11:04:50.816,-19.6876,-27.7501
11:04:50.828,-22.5001,-31.0626
11:04:50.835,-25.3751,-34.0626
11:04:50.846,-28.3751,-37.9376
11:04:50.857,-31.4376,-40.6252
11:04:50.866,-35.3126,-43.6877
11:04:50.877,-39.1251,-46.5627
11:04:50.893,-45.4377,-50.6877
11:04:50.896,-50.6252,-54.8127
11:04:50.907,-54.8127,-57.5627
11:04:50.916,-58.2502,-60.0627
11:04:50.926,-62.0002,-63.1877
11:04:50.935,-68.5628,-65.3127
11:04:50.947,-72.8753,-70.3753
11:04:50.956,-76.4378,-73.1878
11:04:50.967,-84.3128,-77.6878
11:04:50.975,-90.2504,-83.0628
11:04:50.987,-94.6879,-86.0628
11:04:50.996,-98.8129,-90.0628
11:04:51.005,-103.2504,-92.1254
11:04:51.016,-112.8129,-98.9379
11:04:51.025,-118.0005,-103.3129
11:04:51.037,-125.3755,-106.8129
11:04:51.046,-130.813,-111.8754
11:04:51.057,-134.813,-116.0004
11:04:51.067,-138.6255,-117.6255
11:04:51.076,-142.438,-122.2505
11:04:51.086,-144.3755,-124.2505
11:04:51.096,-146.5006,-126.2505
11:04:51.107,-146.1256,-126.6255
11:04:51.116,-144.8755,-125.438
11:04:51.136,-144.563,-125.438
11:04:51.138,-142.8755,-125.1255
11:04:51.154,-142.938,-124.688
11:04:51.157,-142.188,-125.0005
11:04:51.166,-140.938,-123.7505
11:04:51.178,-140.3755,-124.188
11:04:51.188,-138.188,-121.0005
11:04:51.196,-135.063,-114.3129
11:04:51.206,-129.2505,-108.3129
11:04:51.216,-125.0005,-98.3129
11:04:51.227,-118.5005,-89.5628
11:04:51.236,-112.1254,-77.7503
11:04:51.246,-106.0629,-67.0628
11:04:51.256,-99.5004,-56.6252
11:04:51.268,-95.6879,-47.1877
11:04:51.277,-91.3754,-40.3752
11:04:51.285,-87.6878,-34.1876
11:04:51.295,-85.5628,-28.8751
11:04:51.306,-83.1878,-25.8126
11:04:51.316,-82.3128,-23.5626
11:04:51.327,-79.9378,-20.5001
11:04:51.337,-78.6878,-17.8751
11:04:51.345,-76.1878,-16.4376
11:04:51.357,-73.8128,-13.9376
11:04:51.366,-73.6878,-12
11:04:51.377,-72.3753,-11.1875
11:04:51.387,-71.6253,-9.0625
11:04:51.396,-70.0003,-7.4375
11:04:51.405,-68.4378,-4.6875
11:04:51.416,-67.1253,-2.75
11:04:51.429,-65.3752,-1.1875
11:04:51.436,-63.8752,1.8125
11:04:51.447,-62.7502,1
11:04:51.457,-63.1877,2.125
11:04:51.466,-62.3127,0.1875
11:04:51.477,-62.8127,-0.5625
11:04:51.486,-62.7502,-1.6875
11:04:51.497,-62.2502,-3.875
11:04:51.506,-61.8127,-4.125
11:04:51.516,-62.2502,-4.4375
11:04:51.527,-61.5627,-6.75
11:04:51.536,-61.7502,-6.8125
11:04:51.546,-61.0002,-8.75
11:04:51.557,-60.8127,-9.625
11:04:51.566,-60.8127,-10.375
11:04:51.603,-60.6252,-11.875
11:04:51.605,-60.5627,-11.375
11:04:51.607,-60.3752,-14.0626
11:04:51.609,-60.7502,-15.3751
11:04:51.617,-61.8127,-15.5626
11:04:51.647,-61.8127,-19.3751
11:04:51.649,-61.5002,-20.1876
11:04:51.652,-61.1252,-22.5626
11:04:51.680,-61.4377,-24.2501
11:04:51.681,-60.5627,-28.3126
11:04:51.683,-59.5627,-31.3126
11:04:51.690,-58.7502,-35.1251
11:04:51.700,-55.3127,-41.6877
11:04:51.721,-51.8752,-45.3127
11:04:51.723,-48.4377,-48.8752
11:04:51.726,-45.6252,-49.1877
11:04:51.737,-44.9377,-48.6877
11:04:51.745,-45.5627,-50.1877
11:04:51.757,-48.3127,-49.6877
11:04:51.767,-50.9377,-51.9377
11:04:51.776,-51.8752,-53.8752
11:04:51.786,-53.6877,-54.6877
11:04:51.796,-54.5627,-57.3127
11:04:51.805,-54.6877,-57.7502
11:04:51.817,-55.3752,-58.1252
11:04:51.826,-55.3127,-61.1877
11:04:51.858,-54.9377,-62.5627
11:04:51.860,-54.4377,-64.5627
11:04:51.863,-53.6252,-66.7503
11:04:51.869,-53.1877,-67.9378
11:04:51.877,-52.5002,-69.8753
11:04:51.887,-52.3127,-70.0628
11:04:51.896,-54.1877,-69.6878
11:04:51.907,-54.5002,-72.1878
11:04:51.915,-55.2502,-72.5003
11:04:51.938,-56.9377,-73.6878
11:04:51.943,-57.6877,-76.5003
11:04:51.958,-57.8127,-76.8753
11:04:51.962,-58.2502,-78.1253
11:04:51.966,-58.6877,-79.2503
11:04:51.977,-59.0002,-80.1253
11:04:51.987,-57.9377,-81.0628
11:04:51.997,-57.8127,-81.5003
11:04:52.006,-58.0002,-82.6878
11:04:52.019,-57.4377,-84.8753
11:04:52.028,-57.2502,-84.5003
11:04:52.036,-56.1877,-86.7503
11:04:52.047,-55.7502,-87.4378
11:04:52.057,-55.6877,-88.5003
11:04:52.065,-54.8127,-89.3128
11:04:52.076,-54.9377,-90.8754
11:04:52.086,-56.5002,-91.0004
11:04:52.097,-55.8127,-92.8754
11:04:52.107,-55.5002,-93.7504
11:04:52.116,-56.1252,-94.1879
11:04:52.126,-55.6252,-95.0629
11:04:52.137,-55.8127,-95.6254
11:04:52.148,-55.2502,-95.1879
11:04:52.155,-54.5627,-93.8129
11:04:52.166,-51.3752,-90.8129
11:04:52.176,-48.1252,-84.0003
11:04:52.185,-44.3127,-77.3753
11:04:52.197,-38.6251,-69.8753
11:04:52.206,-34.3751,-60.8127
11:04:52.219,-28.0626,-51.6252
11:04:52.226,-23.3751,-42.0627
11:04:52.236,-18.9376,-34.9376
11:04:52.246,-14.8126,-27.3751
11:04:52.256,-12.5,-20.9376
11:04:52.267,-9.4375,-17.5626
11:04:52.277,-7.625,-13.3126
11:04:52.285,-5.625,-10.875
11:04:52.297,-4.4375,-6.625
11:04:52.308,-2.625,-5.125
11:04:52.316,-0.875,-4.4375
11:04:52.327,-0.3125,-2.3125
11:04:52.336,-0.4375,-2.625
11:04:52.346,2.375,0.625
11:04:52.356,1.9375,2.6875
11:04:52.366,2.5,2.625
11:04:52.376,3.125,6.25
11:04:52.387,4.9375,7.9375
11:04:52.395,7.8125,9.9375
11:04:52.407,6.25,10.875
11:04:52.416,5,9.6875
11:04:52.431,4.625,8.8125
11:04:52.449,4.5,9.75
11:04:52.452,3.5,9.0625
11:04:52.456,3.4375,8.9375
11:04:52.473,2.75,8.875
11:04:52.477,2.5,8.375
11:04:52.486,1.25,9
11:04:52.496,1.0625,8.8125
11:04:52.506,-0.1875,9.5
11:04:52.516,-0.8125,9.3125
11:04:52.525,-1.625,9.0625
11:04:52.536,-2.5,9.4375
11:04:52.546,-2.875,10.125
11:04:52.556,-4.4375,9.375
11:04:52.566,-6.25,9.0625
11:04:52.576,-7.4375,7.75
11:04:52.592,-9.3125,6.125
11:04:52.603,-9.75,4.8125
11:04:52.612,-12.375,3.6875
11:04:52.621,-14.6876,-0.0625
11:04:52.632,-17.1876,-1
11:04:52.641,-18.6876,-4
11:04:52.652,-21.3126,-6.625
11:04:52.660,-22.9376,-8.375
11:04:52.671,-23.8751,-10.5625
11:04:52.681,-23.9376,-11.9375
11:04:52.691,-25.8751,-13.2501
11:04:52.702,-25.9376,-15.0626
11:04:52.711,-27.3126,-16.6876
11:04:52.723,-28.2501,-19.2501
11:04:52.731,-29.3751,-19.6876
11:04:52.740,-30.6876,-22.3751
11:04:52.751,-33.1251,-24.3126
11:04:52.760,-32.8126,-26.4376
11:04:52.772,-35.0001,-28.1251
11:04:52.781,-34.6251,-29.9376
11:04:52.791,-35.8126,-30.6251
11:04:52.801,-36.2501,-32.3126
11:04:52.812,-36.8751,-33.2501
11:04:52.821,-36.9376,-35.2501
11:04:52.831,-36.8751,-35.5626
11:04:52.847,-37.8126,-36.9376
11:04:52.852,-37.4376,-39.5627
11:04:52.860,-38.0626,-39.8127
11:04:52.871,-38.1251,-43.1877
11:04:52.881,-38.6251,-44.0002
11:04:52.891,-38.7501,-45.7502
11:04:52.900,-38.5001,-47.0002
11:04:52.910,-38.6876,-48.2502
11:04:52.921,-38.9376,-49.0627
11:04:52.931,-38.8126,-50.4377
11:04:52.942,-39.3752,-51.4377
11:04:52.950,-38.3751,-52.2502
11:04:52.960,-38.6251,-53.3127
11:04:52.971,-38.0626,-54.1877
11:04:52.982,-37.3751,-54.3752
11:04:52.991,-35.7501,-54.7502
11:04:53.001,-36.7501,-55.1877
11:04:53.012,-35.6876,-55.7502
11:04:53.020,-35.1251,-54.1252
11:04:53.031,-31.1876,-51.1877
11:04:53.041,-29.3126,-46.0002
11:04:53.051,-24.8126,-40.1252
11:04:53.060,-22.0626,-33.0001
11:04:53.072,-17.0001,-25.4376
11:04:53.090,-12.6875,-16.4376
11:04:53.093,-7.25,-8.3125
11:04:53.126,-3.8125,-1.3125
11:04:53.128,0.25,4.8125
11:04:53.131,2.25,10.4375
11:04:53.148,4.5625,13.6876
11:04:53.150,5.125,15.8126
11:04:53.176,7.5,18.0626
11:04:53.177,8.6875,20.5001
11:04:53.179,11.625,22.2501
11:04:53.209,13.6251,25.3126
11:04:53.211,16.3751,27.0001
11:04:53.213,16.8751,28.9376
11:04:53.221,17.4376,29.6251
11:04:53.222,18.2501,30.3126
11:04:53.243,18.9376,32.0626
11:04:53.246,19.6251,32.9376
11:04:53.261,20.8751,36.0001
11:04:53.263,21.6876,36.3126
11:04:53.271,20.6876,35.6876
11:04:53.280,20.3751,36.2501
11:04:53.292,20.4376,36.6876
11:04:53.304,20.5001,34.8751
11:04:53.312,18.6876,33.4376
11:04:53.320,17.8126,33.0001
11:04:53.331,16.6876,32.6876
11:04:53.341,15.9376,31.0001
11:04:53.352,15.3126,29.1251
11:04:53.361,15.5626,28.6251
11:04:53.371,14.2501,28.2501
11:04:53.381,13.3751,28.6876
11:04:53.391,13.8751,26.8126
11:04:53.401,12.5625,27.0001
11:04:53.410,12.5,26.7501
11:04:53.421,12.0625,24.8751
11:04:53.431,9.8125,23.1251
11:04:53.441,7.875,21.1876
11:04:53.451,6.25,20.3126
11:04:53.462,5.625,18.3751
11:04:53.471,1.75,16.3751
11:04:53.481,1.1875,13.9376
11:04:53.492,-1,12.625
11:04:53.501,-1.625,10.875
11:04:53.511,-4.375,8.75
11:04:53.521,-4.9375,6.6875
11:04:53.531,-7.25,4.75
11:04:53.541,-8.1875,2.8125
11:04:53.552,-9.8125,1.75
11:04:53.560,-11.1875,0
11:04:53.572,-12.3125,-3
11:04:53.581,-14.5626,-4.8125
11:04:53.591,-16.1251,-5.9375
11:04:53.600,-16.7501,-8.5625
11:04:53.610,-18.6876,-11.5625
11:04:53.621,-20.6251,-12.5625
11:04:53.632,-21.1251,-14.6251
11:04:53.640,-22.5626,-17.1876
11:04:53.651,-24.3751,-17.6876
11:04:53.661,-24.0626,-20.3126
11:04:53.671,-25.5626,-20.5626
11:04:53.681,-25.9376,-23.7501
11:04:53.690,-27.1876,-26.3126
11:04:53.701,-28.6251,-27.6876
11:04:53.712,-29.6251,-29.4376
11:04:53.728,-30.6251,-31.2501
11:04:53.731,-31.5626,-33.1251
11:04:53.746,-32.5001,-35.3751
11:04:53.751,-32.3751,-37.6876
11:04:53.760,-32.3751,-39.1251
11:04:53.771,-31.6876,-40.5627
11:04:53.781,-32.9376,-41.5627
11:04:53.791,-33.5001,-43.8752
11:04:53.802,-34.6251,-45.4377
11:04:53.811,-34.1251,-47.5002
11:04:53.822,-33.4376,-49.1252
11:04:53.831,-32.5626,-50.5002
11:04:53.841,-31.6251,-50.9377
11:04:53.851,-29.2501,-50.9377
11:04:53.861,-27.8751,-51.1252
11:04:53.872,-25.9376,-51.6877
11:04:53.881,-23.8751,-51.6877
11:04:53.890,-22.7501,-50.8127
11:04:53.901,-22.3126,-52.0627
11:04:53.911,-22.0626,-52.7502
11:04:53.921,-20.7501,-52.8752
11:04:53.931,-21.5626,-53.3752
11:04:53.940,-20.3751,-52.3127
11:04:53.952,-20.6251,-53.5002
11:04:53.961,-20.3751,-51.8127
11:04:53.971,-19.1251,-49.6877
11:04:53.987,-15.6876,-44.1877
11:04:53.992,-11.8125,-38.6251
11:04:54.001,-7.8125,-30.6251
11:04:54.010,-2.25,-22.3751
11:04:54.021,2.4375,-13.4376
11:04:54.031,6.9375,-5.8125
11:04:54.041,10.75,-0.0625
11:04:54.051,13.6251,6.5
11:04:54.061,15.1876,11.375
11:04:54.071,18.9376,14.1876
11:04:54.080,18.8126,17.5001
11:04:54.092,19.4376,18.2501
11:04:54.101,18.8126,20.1251
11:04:54.111,19.4376,20.1876
11:04:54.120,19.1876,21.5001
11:04:54.131,18.5626,21.5001
11:04:54.141,20.8751,23.0001
11:04:54.152,20.6251,25.1251
11:04:54.161,22.6251,26.8751
11:04:54.171,23.2501,29.0001
11:04:54.181,24.9376,30.1251
11:04:54.192,27.8126,34.3126
11:04:54.200,29.8126,36.0626
11:04:54.210,32.1876,39.0626
11:04:54.221,31.5001,38.4376
11:04:54.230,30.8751,39.7502
11:04:54.241,29.8126,38.3751
11:04:54.250,27.8751,37.6876
11:04:54.260,26.0626,35.8126
11:04:54.271,24.2501,34.1876
11:04:54.281,21.9376,32.9376
11:04:54.291,19.5626,31.7501
11:04:54.300,15.8126,29.3751
11:04:54.311,14.2501,27.5626
11:04:54.320,12.0625,25.2501
11:04:54.330,9.875,25.0626
11:04:54.341,8.375,22.5001
11:04:54.353,7.3125,22.4376
11:04:54.362,5.875,21.6876
11:04:54.372,6.4375,20.6251
11:04:54.380,4.3125,19.4376
11:04:54.391,2.9375,19.3126
11:04:54.417,3,17.0001
11:04:54.420,1.125,14.9376
11:04:54.427,0,14.2501
11:04:54.435,-2.0625,10.75
11:04:54.445,-4.0625,8.5
11:04:54.461,-5.375,8.1875
11:04:54.467,-5.8125,5.625
11:04:54.498,-5.3125,2.875
11:04:54.499,-4.5,1.5
11:04:54.500,-3.5625,0.3125
11:04:54.507,-2.5,-0.75
11:04:54.575,-1.3125,-2.6875
11:04:54.577,-1.75,-4.5
11:04:54.577,-0.25,-3.6875
11:04:54.579,3.4375,-4.3125
11:04:54.594,5.75,-4.5625
11:04:54.594,8.1875,-3.6875
11:04:54.594,10.9375,-4.0625
11:04:54.597,11.75,-6.375
11:04:54.606,11.6875,-8.9375
11:04:54.616,9.5,-10.5625
11:04:54.626,7.0625,-12.5625
11:04:54.636,5.5,-14.9376
11:04:54.646,2.4375,-18.2501
11:04:54.656,-0.6875,-20.0626
11:04:54.666,-3.25,-24.5626
11:04:54.676,-7.0625,-26.9376
11:04:54.686,-9.625,-30.6876
11:04:54.696,-13.1251,-32.6876
11:04:54.706,-15.6876,-35.3126
11:04:54.717,-17.3751,-37.9376
11:04:54.727,-19.0626,-41.0002
11:04:54.737,-20.8126,-42.6877
11:04:54.747,-22.5626,-44.8752
11:04:54.755,-25.3126,-49.5627
11:04:54.765,-24.5001,-51.0627
11:04:54.775,-24.4376,-51.2502
11:04:54.785,-23.8126,-50.7502
11:04:54.796,-23.4376,-53.1877
11:04:54.806,-24.1876,-53.1877
11:04:54.815,-24.7501,-56.5627
11:04:54.826,-25.7501,-57.3127
11:04:54.835,-24.8751,-59.0627
11:04:54.846,-25.2501,-58.9377
11:04:54.856,-23.0001,-60.6252
11:04:54.866,-21.6876,-58.6252
11:04:54.876,-20.7501,-60.1877
11:04:54.885,-22.1251,-61.6877
11:04:54.896,-23.1251,-62.6252
11:04:54.906,-23.4376,-63.9377
11:04:54.915,-22.1876,-64.0627
11:04:54.926,-19.7501,-61.0002
11:04:54.936,-17.1876,-56.8752
11:04:54.945,-12.5625,-51.7502
11:04:54.956,-8.9375,-43.6877
11:04:54.965,-4.3125,-37.6876
11:04:54.976,-1.0625,-29.5626
11:04:54.986,2.5,-23.9376
11:04:54.995,4.375,-19.4376
11:04:55.007,5,-14.8126
11:04:55.025,7.0625,-10.625
11:04:55.027,9.25,-5.3125
11:04:55.042,10.5,-2.5
11:04:55.047,13.4376,0.625
11:04:55.056,13.8126,3.875
11:04:55.066,14.3751,4.125
11:04:55.076,14.4376,5.5625
11:04:55.086,13.6876,6.6875
11:04:55.096,13.9376,6.9375
11:04:55.112,12.375,7.5
11:04:55.117,12.4375,8.3125
11:04:55.126,11.875,10.375
11:04:55.136,11.375,11.1875
11:04:55.145,11.8125,11.75
11:04:55.156,10.625,13.1876
11:04:55.165,10.1875,12.625
11:04:55.176,7.625,13.8126
11:04:55.186,6,12.5625
11:04:55.196,2.5,11.1875
11:04:55.206,0.9375,9.9375
11:04:55.215,0.25,8.5
11:04:55.226,0.25,8.4375
11:04:55.236,0.75,9.875
11:04:55.246,1.6875,9.375
11:04:55.256,1,9.125
11:04:55.265,0.4375,9.375
11:04:55.277,1.0625,8.375
11:04:55.286,1.125,7.9375
11:04:55.297,2.875,9.5
11:04:55.306,4.0625,8.625
11:04:55.316,6.4375,11.3125
11:04:55.326,8.8125,10.3125
11:04:55.336,11.375,12
11:04:55.345,13.125,13.6251
11:04:55.356,15.5626,13.1876
11:04:55.366,16.8126,12.0625
11:04:55.376,18.0001,12.5625
11:04:55.386,19.5626,11.4375
11:04:55.395,19.1876,9.8125
11:04:55.405,17.6876,10.1875
11:04:55.416,16.6876,7.5
11:04:55.426,14.6251,5.375
11:04:55.435,12.0625,4.8125
11:04:55.446,10.375,1.9375
11:04:55.455,7.25,-1.5
11:04:55.466,3.375,-2.875
11:04:55.476,0.5,-7.4375
11:04:55.487,-2.75,-9.625
11:04:55.497,-5.1875,-11.5625
11:04:55.506,-7.1875,-14.5626
11:04:55.517,-8.9375,-16.6251
11:04:55.526,-9.875,-18.0001
11:04:55.536,-10.25,-19.3126
11:04:55.546,-10.125,-20.1876
11:04:55.556,-8.1875,-19.4376
11:04:55.565,-6.1875,-20.9376
11:04:55.577,-6.6875,-21.0001
11:04:55.586,-5.75,-21.3751
11:04:55.596,-5.25,-23.6876
11:04:55.606,-5.4375,-26.0626
11:04:55.615,-6.625,-27.0626
11:04:55.625,-7.5625,-28.6251
11:04:55.636,-7.5,-31.5626
11:04:55.646,-8.75,-31.1876
11:04:55.656,-8.5625,-33.0626
11:04:55.665,-8.5625,-32.5626
11:04:55.700,-7.875,-33.6251
11:04:55.700,-6.3125,-33.5626
11:04:55.702,-4.9375,-33.6876
11:04:55.709,-4,-33.6251
11:04:55.716,-4.0625,-33.6876
11:04:55.727,-2.5,-34.5001
11:04:55.736,-2.3125,-33.6251
11:04:55.746,-0.9375,-33.3126
11:04:55.755,-0.75,-33.2501
11:04:55.766,0.4375,-32.6251
11:04:55.776,2.4375,-31.0626
11:04:55.787,4.1875,-26.3751
11:04:55.796,7.25,-22.6251
11:04:55.806,9.1875,-16.8751
11:04:55.816,11,-12
11:04:55.826,11.75,-7.1875
11:04:55.842,12.3125,-2.1875
11:04:55.864,12.4375,1.75
11:04:55.865,12.6875,4.3125
11:04:55.867,13.0625,6.25
11:04:55.881,12.6875,9.625
11:04:55.886,11.3125,9.5625
11:04:55.896,10.3125,11.0625
11:04:55.911,9.5625,10.875
11:04:55.942,9.4375,12.6875
11:04:55.943,7.3125,12.25
11:04:55.947,6.625,14.0626
11:04:55.948,5.375,14.7501
11:04:55.976,4.125,16.6876
11:04:55.979,3,17.6251
11:04:55.981,1.6875,19.2501
11:04:55.987,0.8125,21.9376
11:04:56.001,1.75,23.4376
11:04:56.006,2.0625,24.0626
11:04:56.039,2.6875,25.5001
11:04:56.042,2.8125,26.4376
11:04:56.044,3.375,28.7501
11:04:56.050,3,28.0626
11:04:56.056,2.125,27.3751
11:04:56.066,1.25,27.0001
11:04:56.076,2.375,26.1251
11:04:56.086,3.25,24.9376
11:04:56.096,3.8125,24.3126
11:04:56.106,4.6875,26.0626
11:04:56.116,6.6875,24.8126
11:04:56.126,8.375,24.5626
11:04:56.136,10,24.6876
11:04:56.146,11.75,24.9376
11:04:56.156,13.7501,26.3126
11:04:56.166,15.8751,26.2501
11:04:56.176,17.1876,26.5626
11:04:56.186,18.6876,29.0001
11:04:56.195,19.5626,28.2501
11:04:56.206,19.8751,26.5001
11:04:56.216,18.3126,26.5626
11:04:56.225,17.7501,25.6876
11:04:56.237,15.9376,23.0001
11:04:56.246,12.3125,20.3751
11:04:56.256,9.75,18.6876
11:04:56.266,6.9375,15.1251
11:04:56.275,4.4375,13.2501
11:04:56.286,2.6875,10.125
11:04:56.296,0.5,7.8125
11:04:56.305,-0.25,5.4375
11:04:56.323,-0.0625,2.3125
11:04:56.338,0,2.5
11:04:56.338,2.8125,1.125
11:04:56.348,4.8125,0.125
11:04:56.356,7.25,0.75
11:04:56.365,7.5,0.5625
11:04:56.376,8.1875,-2.375
11:04:56.386,8,-4.1875
11:04:56.395,6.9375,-4.3125
11:04:56.406,5.875,-6.8125
11:04:56.416,3.75,-9.1875
11:04:56.427,1.1875,-10
11:04:56.437,0.25,-13.0625
11:04:56.445,-0.6875,-14.4376
11:04:56.456,-0.625,-14.1876
11:04:56.466,1.125,-13.3126
11:04:56.475,3.4375,-13.4376
11:04:56.485,5.1875,-13
11:04:56.496,6.25,-13
11:04:56.506,8.25,-10.875
11:04:56.517,10.5625,-9.125
11:04:56.526,12.4375,-9.6875
11:04:56.535,11.9375,-9.875
11:04:56.546,10.9375,-9.625
11:04:56.555,9.875,-12.3125
11:04:56.566,6.6875,-15.1876
11:04:56.576,3.3125,-17.3126
11:04:56.586,0.5,-21.1876
11:04:56.595,-3.625,-23.7501
11:04:56.636,-5.25,-26.6251
11:04:56.636,-9.25,-29.3126
11:04:56.640,-11.9375,-32.3751
11:04:56.641,-15.5001,-36.0626
11:04:56.653,-19.8751,-37.8751
11:04:56.660,-23.0001,-42.1252
11:04:56.672,-27.0001,-45.9377
11:04:56.681,-29.4376,-47.1252
11:04:56.690,-32.2501,-50.4377
11:04:56.701,-34.5001,-51.6877
11:04:56.711,-35.0001,-52.3752
11:04:56.721,-36.0626,-51.7502
11:04:56.731,-35.6251,-47.3752
11:04:56.740,-33.5001,-44.1252
11:04:56.751,-30.6876,-38.8751
11:04:56.761,-27.9376,-31.0626
11:04:56.771,-23.1251,-21.6251
11:04:56.781,-20.0626,-15.4376
11:04:56.790,-17.8751,-9.8125
11:04:56.800,-15.4376,-3.5625
11:04:56.810,-13.5626,0.4375
11:04:56.821,-10.5625,3.875
11:04:56.830,-8.5625,6.8125
11:04:56.840,-5.1875,10.75
11:04:56.851,-2.625,11.8125
11:04:56.860,0.4375,14.8751
11:04:56.871,3.75,16.2501
11:04:56.881,7.0625,19.8126
11:04:56.890,11,20.6876
11:04:56.901,16.0001,24.8126
11:04:56.911,20.3126,27.5001
11:04:56.921,24.5626,31.3126
11:04:56.930,28.3751,34.4376
11:04:56.940,29.8126,36.5001
11:04:56.951,31.1876,38.4376
11:04:56.978,29.4376,39.6877
11:04:56.981,28.9376,39.9377
11:04:56.983,27.3751,39.1251
11:04:56.994,24.3126,39.8752
11:04:57.000,23.0001,37.2501
11:04:57.011,20.1876,35.0626
11:04:57.021,18.7501,34.7501
11:04:57.032,16.8126,33.3126
11:04:57.042,15.9376,31.6876
11:04:57.051,15.9376,29.9376
11:04:57.061,16.5001,31.1251
11:04:57.071,18.6876,29.9376
11:04:57.081,18.8126,29.1876
11:04:57.090,18.9376,28.9376
11:04:57.100,20.9376,29.1251
11:04:57.111,20.8751,28.9376
11:04:57.121,21.6251,28.8126
11:04:57.131,22.0626,28.0001
11:04:57.150,21.5626,26.9376
11:04:57.156,21.0001,26.5001
11:04:57.170,19.3126,25.2501
11:04:57.173,17.5626,23.7501
11:04:57.189,15.4376,21.5001
11:04:57.191,12.75,19.5626
11:04:57.200,10.9375,18.2501
11:04:57.211,9.375,14.7501
11:04:57.220,7.625,14.1251
11:04:57.230,6.5625,11.625
11:04:57.241,3.875,10.625
11:04:57.251,2.5,8
11:04:57.261,1.375,5.9375
11:04:57.272,0.5625,4.75
11:04:57.312,-0.9375,2.25
11:04:57.314,-1.625,1.5
11:04:57.315,-3.0625,-0.75
11:04:57.317,-5.4375,-1.4375
11:04:57.323,-7.1875,-2.75
11:04:57.352,-10.5625,-4.625
11:04:57.354,-13.4376,-4.875
11:04:57.356,-15.5001,-5.3125
11:04:57.361,-18.8751,-5.8125
11:04:57.375,-22.1876,-5.3125
11:04:57.381,-32.3126,3.875
11:04:57.411,-36.5001,16.0001
11:04:57.414,-37.6251,15.8751
11:04:57.417,-37.5001,14.3751
11:04:57.422,-37.3751,13.8126
11:04:57.432,-37.8751,13.3126
11:04:57.441,-37.8751,11.1875
11:04:57.452,-39.0001,9.0625
11:04:57.461,-39.0001,8.625
11:04:57.470,-39.3126,5.0625
11:04:57.481,-39.9377,3.25
11:04:57.490,-41.8127,0.375
11:04:57.502,-41.7502,-1.625
11:04:57.512,-41.7502,-2.6875
11:04:57.522,-41.3752,-4.25
11:04:57.531,-41.0627,-6.3125
11:04:57.541,-41.0627,-7
11:04:57.552,-42.6252,-9.375
11:04:57.560,-43.3752,-12.0625
11:04:57.570,-43.0627,-13
11:04:57.582,-42.0002,-13.5001
11:04:57.590,-42.2502,-14.8126
11:04:57.601,-44.6252,-18.5001
11:04:57.613,-46.0002,-21.0001
11:04:57.630,-47.8752,-22.8751
11:04:57.632,-47.4377,-24.0626
11:04:57.647,-47.5627,-24.0001
11:04:57.662,-47.4377,-27.2501
11:04:57.665,-46.3127,-27.4376
11:04:57.676,-45.9377,-28.3751
11:04:57.681,-44.5002,-28.8126
11:04:57.691,-45.7502,-29.3751
11:04:57.700,-44.8752,-29.1876
11:04:57.712,-43.6877,-28.3751
11:04:57.720,-41.0002,-23.5001
11:04:57.731,-38.0001,-19.1251
11:04:57.740,-34.1876,-12.4375
11:04:57.751,-29.3126,-6.5625
11:04:57.760,-24.0626,1.4375
11:04:57.770,-19.8126,8.25
11:04:57.781,-15.9376,14.8751
11:04:57.791,-13,19.6251
11:04:57.807,-11.125,24.8126
11:04:57.812,-8.5,27.7501
11:04:57.820,-7.75,30.4376
11:04:57.831,-6.25,32.8751
11:04:57.841,-6.375,33.8126
11:04:57.851,-5.25,35.3126
11:04:57.861,-4,37.3126
11:04:57.871,-1.375,38.6251
11:04:57.881,0.3125,41.5002
11:04:57.890,3.375,44.1252
11:04:57.901,5.1875,46.7502
11:04:57.910,8.375,49.1252
11:04:57.921,11.6875,51.3752
11:04:57.931,15.0626,55.1252
11:04:57.940,22.1251,60.7502
11:04:57.951,26.8126,64.1877
11:04:57.961,30.2501,66.5628
11:04:57.971,34.5001,68.0628
11:04:57.981,36.5001,70.6253
11:04:57.990,39.9377,72.4378
11:04:58.001,44.6252,73.6878
11:04:58.011,46.3127,73.5628
11:04:58.021,48.1877,75.0628
11:04:58.031,49.3752,75.3753
11:04:58.041,50.9377,75.5628
11:04:58.051,53.0627,76.5628
11:04:58.061,55.8752,77.3753
11:04:58.070,60.3127,79.3128
11:04:58.081,62.7502,81.4378
11:04:58.091,64.9377,81.4378
11:04:58.100,67.6878,82.6878
11:04:58.110,71.3753,83.8128
11:04:58.121,73.4378,84.0628
11:04:58.130,76.0628,84.4378
11:04:58.141,77.1878,83.5628
11:04:58.151,77.1253,82.7503
11:04:58.161,77.3128,79.5628
11:04:58.171,76.8128,78.4378
11:04:58.183,75.6878,76.4378
11:04:58.191,75.1253,74.0628
11:04:58.200,74.3753,71.8753
11:04:58.211,73.6878,69.6878
11:04:58.220,73.8753,68.2503
11:04:58.231,72.5003,66.0628
11:04:58.258,71.9378,63.9377
11:04:58.260,71.9378,62.1877
11:04:58.262,71.6878,60.8752
11:04:58.271,71.1253,58.3127
11:04:58.280,70.0003,56.4377
11:04:58.291,69.6253,53.8127
11:04:58.300,68.0628,51.1877
11:04:58.311,66.9378,49.6877
11:04:58.321,66.4378,47.8752
11:04:58.331,64.3752,45.6877
11:04:58.340,63.8127,43.6252
11:04:58.351,62.0627,41.6877
11:04:58.361,60.0002,40.0627
11:04:58.371,59.0627,37.0001
11:04:58.381,56.8127,34.2501
11:04:58.391,54.2502,31.1876
11:04:58.401,52.1877,29.6876
11:04:58.411,49.7502,27.1876
11:04:58.421,47.7502,23.8126
11:04:58.431,45.8127,20.9376
11:04:58.441,43.5627,19.1251
11:04:58.451,42.4377,17.0001
11:04:58.466,41.4377,14.3751
11:04:58.473,39.3127,12.1875
11:04:58.481,38.4376,11
11:04:58.496,37.5626,8.9375
11:04:58.504,36.4376,6.5
11:04:58.511,34.4376,5.8125
11:04:58.521,34.2501,2.25
11:04:58.531,32.5001,0.3125
11:04:58.541,32.0001,-0.4375
11:04:58.551,31.0001,-2.8125
11:04:58.564,29.8126,-3.8125
11:04:58.571,29.6876,-4.875
11:04:58.581,29.0001,-6.875
11:04:58.609,28.7501,-8
11:04:58.610,29.1251,-5.8125
11:04:58.612,32.0001,-2.6875
11:04:58.621,34.2501,2.3125
11:04:58.649,37.2501,8.4375
11:04:58.653,40.8127,15.0626
11:04:58.655,43.6877,22.4376
11:04:58.663,47.1877,28.8126
11:04:58.691,49.3752,33.8751
11:04:58.693,51.1877,39.9377
11:04:58.695,53.6877,42.8752
11:04:58.703,54.3127,46.3752
11:04:58.734,54.8127,49.2502
11:04:58.736,55.2502,50.3752
11:04:58.738,55.5002,51.9377
11:04:58.743,54.6252,53.4377
11:04:58.751,55.3752,54.0002
11:04:58.761,54.6877,53.9377
11:04:58.770,54.5627,55.8127
11:04:58.781,55.0627,57.8127
11:04:58.790,56.1877,58.7502
11:04:58.801,55.9377,60.3127
11:04:58.812,55.6252,61.0002
11:04:58.820,55.5002,63.0002
11:04:58.831,55.6252,64.1877
11:04:58.841,55.5627,63.9377
11:04:58.850,54.8127,64.3127
11:04:58.861,54.2502,64.6877
11:04:58.871,54.5627,63.4377
11:04:58.881,53.1252,62.5627
11:04:58.890,51.6877,60.6252
11:04:58.900,51.2502,60.7502
11:04:58.911,49.8127,58.6877
11:04:58.920,49.1877,57.8752
11:04:58.931,48.4377,58.3127
11:04:58.942,48.3127,56.1252
11:04:58.955,46.6252,54.8752
11:04:58.963,46.6252,55.3752
11:04:58.971,45.6252,53.8752
11:04:58.987,44.3752,52.0627
11:04:58.995,42.8752,50.3127
11:04:59.001,42.1252,50.3752
11:04:59.011,41.8127,48.5002
11:04:59.020,40.5002,46.5627
11:04:59.031,38.3126,46.1877
11:04:59.041,36.9376,43.0627
11:04:59.051,35.3751,40.2502
11:04:59.060,33.7501,38.4376
11:04:59.071,33.3126,36.4376
11:04:59.080,30.7501,33.4376
11:04:59.091,29.0626,32.5626
11:04:59.100,27.8751,29.8751
11:04:59.110,27.1251,27.9376
11:04:59.121,25.0626,25.0001
11:04:59.131,23.5626,24.0626
11:04:59.141,22.5001,21.0626
11:04:59.151,21.5626,18.7501
11:04:59.161,19.2501,15.6251
11:04:59.171,18.1876,15.3126
11:04:59.181,17.6251,12.8125
11:04:59.192,16.7501,10.3125
11:04:59.201,15.8126,8.4375
11:04:59.211,14.2501,6.75
11:04:59.221,12.9375,5.0625
11:04:59.231,12.25,3
11:04:59.241,10.5,0
11:04:59.251,9.125,-1.25
11:04:59.260,8.5,-2.4375
11:04:59.270,7.8125,-4.6875
11:04:59.280,6.3125,-6
11:04:59.291,5.625,-7.1875
11:04:59.301,5,-9.4375
11:04:59.316,2.875,-11.875
11:04:59.322,2.4375,-12.5625
11:04:59.330,1.3125,-13.6876
11:04:59.341,1.375,-16.3126
11:04:59.351,-0.3125,-18.1876
11:04:59.360,-0.75,-19.1876
11:04:59.371,-1.125,-20.4376
11:04:59.380,-2.1875,-21.9376
11:04:59.390,-3.125,-23.8126
11:04:59.401,-3.9375,-24.1251
11:04:59.411,-4.9375,-26.7501
11:04:59.421,-5.75,-27.5001
11:04:59.431,-6.0625,-29.3751
11:04:59.441,-7.375,-30.6876
11:04:59.451,-8.3125,-32.1876
11:04:59.461,-9.3125,-34.3126
11:04:59.471,-10.5625,-35.9376
11:04:59.481,-10.5625,-36.0001
11:04:59.490,-11.0625,-38.6251
11:04:59.501,-11.875,-38.5626
11:04:59.511,-12.5625,-41.0002
11:04:59.537,-12.75,-41.1877
11:04:59.541,-11.5,-40.0002
11:04:59.542,-10.5625,-37.1876
11:04:59.551,-6.75,-32.2501
11:04:59.560,-3.5,-26.5626
11:04:59.570,0.1875,-18.0626
11:04:59.581,4.5625,-11.5
11:04:59.591,8.4375,-1.9375
11:04:59.601,12.3125,4.5625
11:04:59.611,15.9376,11.1875
11:04:59.620,18.4376,16.0001
11:04:59.631,20.7501,21.3126
11:04:59.641,21.5001,24.1876
11:04:59.650,22.2501,26.6876
11:04:59.661,23.0001,28.8751
11:04:59.671,23.6876,29.8126
11:04:59.681,24.5626,32.6251
11:04:59.691,25.1876,32.8126
11:04:59.701,25.5001,34.7501
11:04:59.711,25.8126,35.8751
11:04:59.720,25.6251,36.2501
11:04:59.731,26.1876,38.3126
11:04:59.741,26.4376,38.5001
11:04:59.751,27.8126,41.5627
11:04:59.760,28.0626,42.2502
11:04:59.783,28.9376,44.0627
11:04:59.789,28.9376,44.2502
11:04:59.791,28.8126,45.0002
11:04:59.805,28.7501,44.6877
11:04:59.814,26.6876,44.1252
11:04:59.820,27.1876,43.3752
11:04:59.831,25.6251,42.8752
11:04:59.841,24.8751,41.1252
11:04:59.852,24.3126,40.0627
11:04:59.861,22.9376,38.5626
11:04:59.872,22.8751,37.3751
11:04:59.881,22.2501,36.6251
11:04:59.892,21.3751,36.4376
11:04:59.901,21.6251,35.3126
11:04:59.911,20.5001,35.3126
11:04:59.921,19.9376,33.7501
11:04:59.931,19.9376,33.3126
11:04:59.941,20.1251,31.8751
11:04:59.951,19.0001,31.1876
11:04:59.960,18.6876,30.1876
11:04:59.971,18.7501,28.2501
11:04:59.981,17.0626,27.1876
11:04:59.991,16.0001,24.3751
11:05:00.005,14.3751,22.3126
11:05:00.012,12.625,19.5626
11:05:00.020,11.875,18.0626
11:05:00.030,11.125,17.1876
11:05:00.040,11.125,14.3751
11:05:00.065,9.625,12.1875
11:05:00.068,9.6875,11.8125
11:05:00.071,9.0625,9.75
11:05:00.102,7.25,7.1875
11:05:00.106,6.125,5.9375
11:05:00.107,5.875,4.5625
11:05:00.112,5.25,2.125
11:05:00.121,3.8125,0.375
11:05:00.159,2.0625,-1.5625
11:05:00.161,1.3125,-3.0625
11:05:00.163,0.75,-4.25
11:05:00.192,0,-6.5625
11:05:00.193,-0.875,-8.1875
11:05:00.197,-2.25,-9.6875
11:05:00.203,-3.4375,-10.8125
11:05:00.203,-4,-12.3125
11:05:00.211,-5,-14.0626
11:05:00.221,-5.6875,-15.8751
11:05:00.231,-6.875,-17.6251
11:05:00.240,-7.5,-17.6251
11:05:00.250,-7.6875,-19.0001
11:05:00.265,-8.375,-21.1251
11:05:00.280,-9.25,-22.8126
11:05:00.282,-9.8125,-23.1251
11:05:00.297,-10.875,-25.4376
11:05:00.312,-11.5625,-26.1876
11:05:00.314,-12.6875,-28.0001
11:05:00.324,-12.5625,-29.6251
11:05:00.330,-13.6876,-30.8751
11:05:00.341,-14.0001,-31.1876
11:05:00.351,-13.6876,-33.3751
11:05:00.362,-14.4376,-33.2501
11:05:00.371,-14.6876,-35.6251
11:05:00.382,-15.5001,-36.6251
11:05:00.391,-15.5001,-37.3126
11:05:00.400,-15.5626,-38.6876
11:05:00.411,-16.3126,-38.5001
11:05:00.421,-15.9376,-40.5627
11:05:00.431,-16.5626,-41.5002
11:05:00.441,-16.7501,-42.0002
11:05:00.451,-16.8751,-43.7502
11:05:00.461,-17.6876,-43.3127
11:05:00.471,-17.5626,-43.8127
11:05:00.481,-18.0626,-46.0002
11:05:00.491,-17.5001,-44.3127
11:05:00.500,-15.7501,-42.5627
11:05:00.512,-13.3751,-38.8751
11:05:00.520,-9.75,-31.6876
11:05:00.531,-6.125,-25.3751
11:05:00.541,-2.625,-16.8751
11:05:00.550,1.9375,-10.5
11:05:00.567,4.6875,-1.6875
11:05:00.572,8.3125,3.1875
11:05:00.581,11,9.625
11:05:00.591,12.5625,14.8126
11:05:00.601,14.3126,17.3751
11:05:00.617,16.1876,21.3751
11:05:00.626,16.5626,24.2501
11:05:00.635,16.9376,24.1251
11:05:00.646,18.1876,26.0001
11:05:00.655,17.4376,26.3126
11:05:00.666,17.6251,27.0626
11:05:00.675,17.0626,28.3751
11:05:00.685,18.4376,28.9376
11:05:00.696,18.9376,30.9376
11:05:00.706,18.5626,32.6876
11:05:00.715,19.5626,32.8126
11:05:00.725,20.6876,34.5001
11:05:00.748,20.6251,35.4376
11:05:00.749,20.6876,37.0626
11:05:00.760,20.9376,36.8751
11:05:00.768,20.3126,35.9376
11:05:00.775,20.0001,36.7501
11:05:00.785,20.3751,35.7501
11:05:00.817,19.8751,37.3126
11:05:00.821,20.6876,35.2501
11:05:00.822,20.0001,34.2501
11:05:00.827,18.9376,34.6876
11:05:00.836,20.6251,34.6251
11:05:00.845,19.9376,34.4376
11:05:00.856,19.3751,34.1876
11:05:00.866,18.9376,34.4376
11:05:00.875,20.0001,33.8751
11:05:00.885,18.2501,32.5001
11:05:00.896,17.5626,31.6251
11:05:00.905,17.3751,31.8126
11:05:00.915,17.9376,30.6876
11:05:00.926,17.0001,29.3751
11:05:00.938,15.8751,28.0626
11:05:00.948,14.8751,26.4376
11:05:00.956,15.4376,25.3126
11:05:00.966,14.0001,23.0626
11:05:00.976,13,21.1876
11:05:00.987,12,20.4376
11:05:00.997,11.25,18.4376
11:05:01.006,10.125,16.0626
11:05:01.015,8.8125,13.7501
11:05:01.026,8.25,13.0625
11:05:01.036,7.625,10.125
11:05:01.046,5.4375,7.9375
11:05:01.055,4.1875,6.125
11:05:01.066,3.3125,5.0625
11:05:01.075,3.4375,2.6875
11:05:01.097,2.1875,0.9375
11:05:01.099,0.625,0.0625
11:05:01.109,0.5,-1.3125
11:05:01.116,0.25,-3.3125
11:05:01.130,-1.1875,-5.5
11:05:01.139,-1.6875,-6.5625
11:05:01.146,-2.3125,-6.9375
11:05:01.156,-2.4375,-8.6875
11:05:01.165,-3.625,-10.375
11:05:01.175,-4.25,-11.5625
11:05:01.185,-4.9375,-12.25
11:05:01.196,-5.75,-14.6876
11:05:01.206,-6.4375,-15.8126
11:05:01.216,-6.8125,-17.3751
11:05:01.226,-7.875,-17.8751
11:05:01.236,-9.25,-18.9376
11:05:01.246,-9.5,-21.2501
11:05:01.255,-10.375,-22.9376
11:05:01.265,-11.0625,-24.8126
11:05:01.276,-11.9375,-24.6876
11:05:01.285,-11.625,-27.5001
11:05:01.297,-12.5,-28.4376
11:05:01.306,-13.3751,-29.4376
11:05:01.320,-13.0625,-31.0001
11:05:01.325,-13.125,-30.9376
11:05:01.336,-11.875,-29.5001
11:05:01.346,-9.3125,-25.6251
11:05:01.356,-6.0625,-19.5626
11:05:01.365,-2.5,-13.3751
11:05:01.376,1.625,-6.25
11:05:01.386,5.8125,1.9375
11:05:01.395,9.6875,8.9375
11:05:01.405,12.625,16.5626
11:05:01.416,14.8751,23.3126
11:05:01.426,17.5001,26.5626
11:05:01.435,18.5626,31.6876
11:05:01.446,19.1876,33.4376
11:05:01.456,19.9376,36.0626
11:05:01.496,20.2501,37.2501
11:05:01.497,20.8126,38.5001
11:05:01.499,21.5626,40.3752
11:05:01.502,21.2501,39.5627
11:05:01.507,22.0626,42.3752
11:05:01.542,22.5626,42.5627
11:05:01.544,23.2501,43.9377
11:05:01.547,23.8751,45.7502
11:05:01.553,24.3751,46.8752
11:05:01.555,24.6876,49.4377
11:05:01.600,26.3126,49.1877
11:05:01.601,26.3126,50.0627
11:05:01.616,26.0001,51.3752
11:05:01.618,25.6876,50.3752
11:05:01.633,24.9376,48.9377
11:05:01.635,24.0001,47.9377
11:05:01.635,23.5626,47.7502
11:05:01.638,23.0001,45.8752
11:05:01.647,21.8126,44.0627
11:05:01.655,20.6876,42.6877
11:05:01.666,20.1251,42.6877
11:05:01.676,19.6876,41.2502
11:05:01.686,18.8751,40.6877
11:05:01.695,18.1876,39.8127
11:05:01.706,17.2501,39.1252
11:05:01.716,16.8751,38.2501
11:05:01.725,15.5626,36.7501
11:05:01.736,14.8126,34.2501
11:05:01.745,13.1876,33.1251
11:05:01.756,12.125,31.8751
11:05:01.765,10.75,31.1876
11:05:01.776,9.75,27.8751
11:05:01.785,8.875,25.8126
11:05:01.795,7.875,22.6876
11:05:01.805,8.375,22.1876
11:05:01.815,8.1875,20.9376
11:05:01.826,8.4375,19.1876
11:05:01.836,7,16.9376
11:05:01.846,6.3125,15.3126
11:05:01.856,5.375,13.9376
11:05:01.866,4.75,11.4375
11:05:01.876,3.75,8.3125
11:05:01.886,2.875,6.9375
11:05:01.896,2.25,4.6875
11:05:01.906,0.75,2.625
11:05:01.915,-0.0625,1.1875
11:05:01.925,-1.1875,-0.25
11:05:01.936,-1.625,-2.8125
11:05:01.945,-2.5,-4.9375
11:05:01.955,-3.75,-6.375
11:05:01.965,-5.375,-7.4375
11:05:01.975,-5.6875,-9.875
11:05:01.986,-6.5,-12.375
11:05:01.995,-7.0625,-13.7501
11:05:02.005,-7.625,-14.2501
11:05:02.015,-8.125,-16.8126
11:05:02.026,-9.1875,-17.8126
11:05:02.036,-10.1875,-20.0626
11:05:02.045,-10.5,-21.5001
11:05:02.055,-11.625,-23.1876
11:05:02.069,-11.75,-23.2501
11:05:02.096,-12.875,-25.8751
11:05:02.103,-13.6876,-27.1251
11:05:02.104,-14.0001,-28.8126
11:05:02.108,-15.0001,-30.0001
11:05:02.116,-14.9376,-30.5001
11:05:02.125,-15.3751,-33.2501
11:05:02.135,-16.1251,-32.6876
11:05:02.146,-16.5001,-35.5626
11:05:02.155,-17.2501,-35.3751
11:05:02.165,-17.6876,-38.3126
11:05:02.175,-18.5001,-38.1251
11:05:02.185,-18.9376,-41.0002
11:05:02.196,-19.7501,-42.3752
11:05:02.207,-20.2501,-43.1252
11:05:02.216,-21.0626,-45.1877
11:05:02.226,-21.7501,-45.5627
11:05:02.235,-21.8126,-47.8127
11:05:02.245,-23.0001,-48.7502
11:05:02.256,-23.6251,-48.7502
11:05:02.265,-22.3751,-49.7502
11:05:02.276,-20.3126,-47.2502
11:05:02.286,-18.5626,-41.1252
11:05:02.296,-13.6876,-35.1251
11:05:02.305,-9.3125,-25.9376
11:05:02.316,-4.1875,-17.4376
11:05:02.326,1.8125,-7.5625
11:05:02.336,6.375,2.8125
11:05:02.345,10.375,10.3125
11:05:02.355,14.2501,18.7501
11:05:02.366,16.9376,26.1876
11:05:02.377,19.1251,31.0626
11:05:02.385,20.3126,35.2501
11:05:02.398,22.3126,37.8751
11:05:02.416,22.1251,39.6877
11:05:02.418,23.5626,42.3752
11:05:02.434,23.8126,43.0002
11:05:02.435,24.0626,46.1877
11:05:02.449,25.3126,46.5002
11:05:02.457,25.2501,48.8752
11:05:02.466,26.0626,50.0627
11:05:02.476,26.3126,51.5002
11:05:02.486,27.4376,54.6877
11:05:02.496,28.6251,55.9377
11:05:02.506,28.6251,57.1252
11:05:02.516,28.9376,58.6252
11:05:02.526,29.8751,61.1877
11:05:02.535,29.6251,62.0002
11:05:02.545,29.8751,61.5627
11:05:02.556,29.0626,60.8752
11:05:02.566,28.5001,59.7502
11:05:02.576,26.8751,57.6252
11:05:02.585,26.2501,55.5002
11:05:02.595,25.5626,55.2502
11:05:02.606,25.5001,54.3127
11:05:02.617,24.2501,53.5627
11:05:02.626,24.8126,52.2502
11:05:02.635,24.3751,51.8752
11:05:02.646,23.1251,51.3752
11:05:02.656,22.4376,50.0002
11:05:02.666,22.3751,48.8752
11:05:02.676,22.3751,47.4377
11:05:02.685,21.0001,46.5002
11:05:02.695,19.5626,44.8752
11:05:02.706,19.3751,43.3127
11:05:02.715,17.5626,41.7502
11:05:02.726,16.1251,39.0627
11:05:02.736,14.7501,36.7501
11:05:02.746,12.6875,34.5626
11:05:02.756,12.25,31.1876
11:05:02.766,10.3125,29.3126
11:05:02.775,8.625,26.1876
11:05:02.785,6.5625,22.5626
11:05:02.796,5,20.6251
11:05:02.807,3.375,17.0626
11:05:02.823,1.8125,15.6876
11:05:02.825,0.125,11.375
11:05:02.836,-1.125,10.25
11:05:02.846,-2,7.0625
11:05:02.856,-3.25,5.3125
11:05:02.883,-4.6875,3
11:05:02.884,-5.625,0.875
11:05:02.887,-6.1875,-0.5
11:05:02.956,-7.0625,-2.4375
11:05:02.959,-8.25,-3.5
11:05:02.986,-8.1875,-6.5625
11:05:02.986,-10,-7.1875
11:05:02.988,-10.1875,-9.9375
11:05:02.990,-11.25,-11.4375
11:05:02.997,-11.3125,-13.0625
11:05:02.997,-11.625,-14.6251
11:05:02.997,-12.3125,-16.0626
11:05:03.002,-12.75,-16.6876
11:05:03.011,-13.5001,-19.5626
11:05:03.021,-13.9376,-19.2501
11:05:03.030,-14.1251,-21.5626
11:05:03.041,-14.2501,-22.5001
11:05:03.051,-14.4376,-25.2501
11:05:03.060,-15.6876,-25.1251
11:05:03.070,-16.0626,-28.1876
11:05:03.081,-16.2501,-28.4376
11:05:03.092,-16.4376,-30.3126
11:05:03.100,-16.9376,-32.5001
11:05:03.111,-18.1876,-33.3751
11:05:03.121,-19.8126,-34.0001
11:05:03.132,-20.5001,-36.7501
11:05:03.141,-21.4376,-38.3751
11:05:03.150,-22.9376,-40.0002
11:05:03.161,-24.8751,-44.3127
11:05:03.171,-24.8751,-45.5002
11:05:03.181,-26.1876,-46.2502
11:05:03.197,-26.5626,-49.0002
11:05:03.201,-26.5626,-49.3752
11:05:03.212,-26.3751,-50.6877
11:05:03.221,-28.0626,-51.8752
11:05:03.232,-27.2501,-52.6877
11:05:03.241,-28.2501,-53.1252
11:05:03.251,-27.7501,-52.6877
11:05:03.260,-25.8126,-50.5627
11:05:03.270,-22.7501,-44.0627
11:05:03.281,-18.1251,-37.1876
11:05:03.291,-12.9375,-28.8751
11:05:03.300,-7.5,-17.7501
11:05:03.310,-1.625,-8.625
11:05:03.320,3.6875,2.75
11:05:03.331,8.5,12.0625
11:05:03.341,11.9375,21.1251
11:05:03.350,14.8126,27.5626
11:05:03.379,16.3751,32.7501
11:05:03.381,18.6876,36.8751
11:05:03.385,18.2501,39.1251
11:05:03.394,18.5001,41.1877
11:05:03.402,19.3751,41.6877
11:05:03.411,18.7501,44.1877
11:05:03.421,19.3126,43.6877
11:05:03.430,19.0001,44.5627
11:05:03.440,19.1876,46.1252
11:05:03.451,20.1876,46.7502
11:05:03.460,21.1251,49.6252
11:05:03.470,22.3126,50.8752
11:05:03.482,22.9376,53.5627
11:05:03.491,24.7501,56.3752
11:05:03.501,26.0001,57.7502
11:05:03.511,26.6876,58.1252
11:05:03.521,25.5626,57.8127
11:05:03.531,24.6251,57.4377
11:05:03.540,23.6251,56.3752
11:05:03.551,23.3751,55.0002
11:05:03.560,22.0001,53.8127
11:05:03.573,21.8751,51.5002
11:05:03.581,21.1876,51.0627
11:05:03.590,20.5626,49.8127
11:05:03.600,20.6251,48.8127
11:05:03.611,20.3751,48.4377
11:05:03.621,20.1251,48.1877
11:05:03.631,20.0001,47.6252
11:05:03.640,20.3126,47.3752
11:05:03.650,19.9376,47.5627
11:05:03.661,18.7501,46.3752
11:05:03.670,17.8751,44.0002
11:05:03.681,17.1876,42.2502
11:05:03.691,16.7501,41.0627
11:05:03.700,16.0001,39.3126
11:05:03.718,13.9376,36.7501
11:05:03.725,12.4375,35.3126
11:05:03.739,11.8125,31.8751
11:05:03.741,10,30.3126
11:05:03.757,9.6875,27.4376
11:05:03.762,7.625,25.0001
11:05:03.771,6.75,23.2501
11:05:03.780,5.4375,19.5626
11:05:03.791,4.5,17.1876
11:05:03.801,3.25,15.2501
11:05:03.812,1.5,13.1876
11:05:03.820,0.25,11.0625
11:05:03.831,-0.4375,8.3125
11:05:03.841,-2.5,7
11:05:03.851,-2.8125,3.6875
11:05:03.861,-4.875,2.875
11:05:03.871,-5.5625,-0.6875
11:05:03.881,-6.875,-2.75
11:05:03.891,-7.0625,-4.25
11:05:03.900,-7.875,-6.375
11:05:03.911,-9.5625,-8.125
11:05:03.921,-10.4375,-9.4375
11:05:03.931,-10.875,-11.1875
11:05:03.947,-12.625,-13.3751
11:05:03.951,-13.0625,-15.1876
11:05:03.963,-14.1251,-17.7501
11:05:03.971,-14.3751,-18.0001
11:05:03.980,-15.6251,-20.9376
11:05:03.992,-15.8751,-21.8751
11:05:04.000,-16.8126,-24.5626
11:05:04.010,-17.2501,-24.6876
11:05:04.021,-18.1251,-27.0626
11:05:04.031,-18.0626,-28.3751
11:05:04.040,-19.0626,-28.0001
11:05:04.050,-19.3751,-30.9376
11:05:04.062,-19.1876,-32.3751
11:05:04.071,-19.7501,-33.4376
11:05:04.081,-19.2501,-34.8126
11:05:04.091,-20.5001,-36.5001
11:05:04.100,-21.1876,-37.5626
11:05:04.111,-21.6251,-39.9377
11:05:04.121,-21.7501,-40.7502
11:05:04.130,-22.4376,-42.1252
11:05:04.142,-21.6876,-41.6877
11:05:04.151,-20.3126,-39.7502
11:05:04.160,-16.3126,-34.3126
11:05:04.171,-12.375,-28.2501
11:05:04.181,-7.9375,-18.6251
11:05:04.191,-3.125,-10.5
11:05:04.201,1.6875,0.125
11:05:04.210,6.4375,8.3125
11:05:04.221,10,17.0001
11:05:04.242,13.5626,23.5626
11:05:04.243,15.4376,28.9376
11:05:04.259,17.3126,33.7501
11:05:04.274,18.8126,35.9376
11:05:04.275,19.1876,38.3126
11:05:04.282,19.6876,38.5001
11:05:04.290,18.8751,39.8127
11:05:04.301,19.1876,39.5002
11:05:04.310,19.1251,40.8752
11:05:04.322,19.3751,40.2502
11:05:04.330,19.4376,41.5002
11:05:04.343,19.5626,41.1252
11:05:04.359,19.5626,43.1252
11:05:04.361,20.3751,43.0627
11:05:04.392,20.6876,43.0002
11:05:04.394,20.1251,44.0627
11:05:04.396,20.2501,45.1252
11:05:04.401,20.0001,43.4377
11:05:04.437,19.2501,41.6252
11:05:04.440,18.0626,40.1877
11:05:04.441,16.3751,38.7501
11:05:04.445,16.0001,37.1251
11:05:04.475,15.6251,35.5626
11:05:04.477,13.8126,34.8126
11:05:04.479,13.6876,32.4376
11:05:04.490,11.875,32.0626
11:05:04.490,11.75,30.9376
11:05:04.501,11.5625,29.4376
11:05:04.511,11,28.9376
11:05:04.521,10.5625,27.6876
11:05:04.530,9.9375,26.6876
11:05:04.541,9.0625,25.2501
11:05:04.550,8.4375,23.8126
11:05:04.562,7.75,21.7501
11:05:04.572,6.25,20.0626
11:05:04.581,5.5,18.7501
11:05:04.590,4.3125,15.3751
11:05:04.600,3.375,14.1251
11:05:04.612,2.3125,12
11:05:04.621,0.8125,8.625
11:05:04.659,0.5,6.5625
11:05:04.661,-0.375,4.625
11:05:04.663,-2.25,2.875
11:05:04.670,-2.6875,0.8125
11:05:04.676,-3.875,-1.8125
11:05:04.686,-5.1875,-3.5625
11:05:04.698,-5.6875,-6.1875
11:05:04.706,-6.5,-7.875
11:05:04.716,-6.9375,-10.125
11:05:04.725,-7.5625,-12.125
11:05:04.737,-9.1875,-13.3751
11:05:04.745,-9.0625,-15.2501
11:05:04.755,-10.625,-16.5626
11:05:04.765,-10.875,-18.6876
11:05:04.776,-11.75,-20.8751
11:05:04.785,-12.75,-22.5626
11:05:04.797,-14.1876,-25.5626
11:05:04.806,-14.9376,-27.1876
11:05:04.815,-15.6876,-27.3751
11:05:04.825,-16.5626,-30.5626
11:05:04.835,-17.3751,-31.3751
11:05:04.845,-19.0626,-33.0001
11:05:04.857,-19.3126,-35.6876
11:05:04.866,-20.9376,-35.3751
11:05:04.876,-21.9376,-39.0626
11:05:04.887,-22.1876,-40.8127
11:05:04.896,-24.0001,-42.5002
11:05:04.906,-25.3751,-44.3127
11:05:04.915,-25.6251,-46.1252
11:05:04.926,-27.1876,-47.8752
11:05:04.936,-27.3126,-50.0627
11:05:04.946,-28.5626,-51.1877
11:05:04.955,-28.6251,-52.5002
11:05:04.965,-30.0001,-53.7502
11:05:04.975,-30.1876,-55.3127
11:05:04.986,-30.7501,-56.3127
11:05:04.997,-31.1251,-57.0627
11:05:05.005,-31.6251,-58.0627
11:05:05.025,-31.0001,-59.4377
11:05:05.031,-31.5626,-60.9377
11:05:05.047,-32.0001,-60.7502
11:05:05.049,-31.3751,-63.0002
11:05:05.058,-31.7501,-61.9377
11:05:05.066,-29.9376,-61.6252
11:05:05.078,-27.5001,-56.6877
11:05:05.085,-23.4376,-51.5627
11:05:05.095,-18.5001,-42.5627
11:05:05.105,-12.25,-34.3126
11:05:05.115,-7.5625,-22.0001
11:05:05.125,-1.1875,-12.125
11:05:05.135,4.3125,-1.375
11:05:05.146,9.375,8.75
11:05:05.156,13.1876,16.5001
11:05:05.166,15.9376,23.5001
11:05:05.176,19.0001,28.8126
11:05:05.185,20.6876,33.4376
11:05:05.196,21.9376,35.1251
11:05:05.205,22.5626,37.8126
11:05:05.215,22.8751,39.1251
11:05:05.225,23.5626,39.5002
11:05:05.235,23.2501,42.5627
11:05:05.248,24.5626,42.4377
11:05:05.256,24.1876,45.4377
11:05:05.265,25.6876,46.8127
11:05:05.276,26.6251,48.8752
11:05:05.286,27.5626,51.1252
11:05:05.296,28.1251,52.0627
11:05:05.305,29.0001,55.0002
11:05:05.316,30.0626,56.8752
11:05:05.326,30.6876,56.7502
11:05:05.336,30.9376,57.1877
11:05:05.346,29.2501,57.8127
11:05:05.357,29.0626,55.1877
11:05:05.366,27.8751,54.5627
11:05:05.377,26.6876,51.5627
11:05:05.385,25.3126,50.8127
11:05:05.395,25.1876,48.5627
11:05:05.405,23.8126,46.8752
11:05:05.415,23.1876,46.1877
11:05:05.425,22.9376,44.1877
11:05:05.436,22.6876,43.1877
11:05:05.450,22.1876,42.3752
11:05:05.456,20.0626,41.3127
11:05:05.465,20.4376,40.6877
11:05:05.476,19.0001,38.6876
11:05:05.486,18.3126,37.6251
11:05:05.496,17.2501,35.0626
11:05:05.505,16.0001,33.9376
11:05:05.517,14.8751,31.2501
11:05:05.526,13.6251,29.3126
11:05:05.544,12.625,28.0001
11:05:05.545,11.4375,24.1251
11:05:05.561,10.125,21.8126
11:05:05.570,9.25,19.8751
11:05:05.576,7.6875,17.0001
11:05:05.606,5.9375,15.0626
11:05:05.610,4.6875,12.3125
11:05:05.611,3.375,9.75
11:05:05.616,1.6875,6.125
11:05:05.650,0.4375,4.6875
11:05:05.652,-0.1875,1.5625
11:05:05.654,-2.25,-0.875
11:05:05.661,-3.875,-2.5625
11:05:05.667,-4.375,-4.25
11:05:05.707,-5.5,-7.0625
11:05:05.708,-7.0625,-9.125
11:05:05.711,-7.625,-10.125
11:05:05.713,-8.5625,-12.8125
11:05:05.719,-8.8125,-15.1876
11:05:05.728,-10.1875,-16.5626
11:05:05.736,-11.6875,-18.5001
11:05:05.747,-11.625,-19.3751
11:05:05.755,-11.8125,-22.1251
11:05:05.766,-13.3751,-24.5001
11:05:05.776,-14.6876,-26.1251
11:05:05.787,-15.0626,-26.8126
11:05:05.796,-14.7501,-28.9376
11:05:05.805,-16.0626,-29.9376
11:05:05.818,-15.8751,-32.3126
11:05:05.828,-16.9376,-33.2501
11:05:05.836,-18.1251,-35.1876
11:05:05.845,-18.8751,-36.6876
11:05:05.856,-19.3126,-38.4376
11:05:05.865,-19.2501,-38.9376
11:05:05.875,-19.9376,-41.4377
11:05:05.886,-20.5001,-42.5002
11:05:05.899,-20.8126,-44.5627
11:05:05.906,-21.3126,-44.6877
11:05:05.938,-21.8751,-46.8127
11:05:05.940,-22.3751,-47.1252
11:05:05.942,-23.0626,-49.6877
11:05:05.945,-23.0626,-50.5002
11:05:05.956,-23.5626,-52.1252
11:05:05.966,-23.7501,-53.0627
11:05:05.975,-24.8126,-54.3127
11:05:05.985,-25.1876,-54.6252
11:05:06.000,-25.5626,-57.1252
11:05:06.007,-25.6876,-56.9377
11:05:06.015,-26.3126,-59.5002
11:05:06.029,-27.0626,-60.2502
11:05:06.037,-27.3126,-60.8752
11:05:06.045,-27.7501,-62.0627
11:05:06.056,-26.6876,-59.8127
11:05:06.067,-24.1876,-56.9377
11:05:06.075,-19.8751,-49.0627
11:05:06.085,-14.8126,-41.5627
11:05:06.096,-9,-30.6876
11:05:06.106,-3.125,-20.4376
11:05:06.118,3.375,-8.25
11:05:06.126,8.5,3.4375
11:05:06.136,13.2501,12.125
11:05:06.146,17.5626,20.5626
11:05:06.155,19.5001,27.1876
11:05:06.165,22.0626,32.3126
11:05:06.176,23.3126,36.8751
11:05:06.186,24.2501,37.8126
11:05:06.199,25.8126,41.7502
11:05:06.209,25.8126,42.3752
11:05:06.217,26.2501,44.0627
11:05:06.227,26.1251,45.0002
11:05:06.236,26.7501,46.8127
11:05:06.246,26.6876,49.5627
11:05:06.255,28.1876,49.8127
11:05:06.265,29.6251,52.0627
11:05:06.275,29.0001,54.0002
11:05:06.285,30.7501,56.1252
11:05:06.296,31.0626,58.5627
11:05:06.305,32.2501,59.4377
11:05:06.316,31.6876,60.2502
11:05:06.333,32.5626,60.5002
11:05:06.340,31.5626,59.8752
11:05:06.355,31.7501,59.7502
11:05:06.357,29.8751,56.3752
11:05:06.372,28.8751,54.8127
11:05:06.375,27.7501,54.4377
11:05:06.385,27.1876,52.0002
11:05:06.395,26.3751,51.3127
11:05:06.405,25.3126,50.0002
11:05:06.415,25.0001,49.7502
11:05:06.426,24.5001,48.5002
11:05:06.438,23.4376,46.4377
11:05:06.446,21.6876,45.4377
11:05:06.455,19.3751,43.6877
11:05:06.465,18.9376,41.6877
11:05:06.476,16.4376,38.1876
11:05:06.485,13.8126,35.6876
11:05:06.495,11.375,33.5626
11:05:06.505,8.3125,29.8751
11:05:06.515,4.1875,25.2501
11:05:06.526,-1.875,20.2501
11:05:06.535,-8.375,15.3751
11:05:06.545,-14.8751,11.4375
11:05:06.555,-21.4376,5.25
11:05:06.567,-28.1876,1.1875
11:05:06.576,-34.1251,-3
11:05:06.585,-39.6252,-7.3125
11:05:06.595,-44.9377,-12.25
11:05:06.606,-51.3752,-17.4376
11:05:06.615,-59.3127,-22.1251
11:05:06.625,-66.8753,-27.8751
11:05:06.636,-75.7503,-34.0626
11:05:06.645,-84.9378,-40.1877
11:05:06.659,-90.5628,-45.5002
11:05:06.665,-97.6254,-50.5627
11:05:06.676,-101.9379,-52.1877
11:05:06.686,-103.5004,-53.5002
11:05:06.695,-102.8754,-54.8752
11:05:06.705,-103.8754,-54.8127
11:05:06.715,-101.5004,-55.6252
11:05:06.726,-101.5004,-58.9377
11:05:06.735,-101.4379,-60.6877
11:05:06.745,-100.3129,-65.0002
11:05:06.756,-100.2504,-66.6878
11:05:06.766,-99.2504,-68.5003
11:05:06.775,-98.0004,-71.2503
11:05:06.786,-97.3129,-72.6253
11:05:06.795,-95.7504,-75.5003
11:05:06.805,-94.6879,-78.5003
11:05:06.815,-94.6879,-80.0628
11:05:06.827,-94.7504,-82.8128
11:05:06.847,-95.4379,-84.4378
11:05:06.848,-96.4379,-87.6253
11:05:06.863,-96.9379,-89.2503
11:05:06.867,-97.8129,-92.5629
11:05:06.876,-97.4379,-93.4379
11:05:06.885,-97.0629,-94.0629
11:05:06.895,-96.5629,-95.9379
11:05:06.905,-95.8129,-98.1879
11:05:06.915,-94.6879,-98.3129
11:05:06.926,-95.3754,-97.4379
11:05:06.936,-94.0629,-99.4379
11:05:06.950,-91.8129,-96.9379
11:05:06.955,-90.1879,-93.3754
11:05:06.965,-84.5628,-87.2503
11:05:06.976,-79.5003,-77.7503
11:05:06.986,-71.5628,-69.0003
11:05:07.015,-63.1877,-57.5002
11:05:07.017,-57.1252,-47.4377
11:05:07.019,-49.3752,-37.6251
11:05:07.026,-43.6252,-27.7501
11:05:07.058,-37.4376,-20.5001
11:05:07.061,-34.4376,-12.125
11:05:07.062,-30.1876,-8.375
11:05:07.067,-26.3126,-3.0625
11:05:07.107,-23.3126,-0.1875
11:05:07.108,-20.0626,2.0625
11:05:07.112,-18.0001,4.9375
11:05:07.136,-16.8751,4.8125
11:05:07.136,-15.8751,6.3125
11:05:07.137,-15.8126,8.5
11:05:07.140,-14.8126,9
11:05:07.146,-13.8126,10.8125
11:05:07.157,-14.7501,12.375
11:05:07.166,-13.9376,13.8126
11:05:07.176,-14.3751,16.3126
11:05:07.187,-14.8751,17.0001
11:05:07.217,-15.7501,17.6251
11:05:07.220,-18.4376,16.9376
11:05:07.222,-21.6876,15.8126
11:05:07.227,-25.8126,11.875
11:05:07.236,-29.9376,8.75
11:05:07.245,-33.9376,3.9375
11:05:07.256,-37.0001,1.3125
11:05:07.266,-38.1876,-1
11:05:07.275,-37.3751,-2.4375
11:05:07.285,-36.6876,-2.375
11:05:07.295,-35.3126,-1.6875
11:05:07.306,-33.6251,-1.8125
11:05:07.315,-35.5626,-2
11:05:07.326,-38.1251,-2.4375
11:05:07.335,-42.2502,-3.375
11:05:07.346,-42.8127,-1.5
11:05:07.355,-44.5627,-0.875
11:05:07.365,-48.0002,9.5625
11:05:07.376,-48.5627,7.6875
11:05:07.385,-50.4377,5.625
11:05:07.395,-53.0002,3.625
11:05:07.405,-56.1877,-2
11:05:07.418,-60.5627,-7.375
11:05:07.425,-63.0002,-10.875
11:05:07.438,-64.1877,-17.5001
11:05:07.449,-64.0627,-20.8751
11:05:07.455,-63.1252,-25.6251
11:05:07.466,-61.8752,-26.7501
11:05:07.476,-60.5627,-28.6876
11:05:07.485,-59.5627,-30.0626
11:05:07.495,-58.2502,-32.0001
11:05:07.506,-56.0627,-33.8751
11:05:07.516,-54.1877,-36.6876
11:05:07.525,-51.5002,-37.6876
11:05:07.535,-50.0627,-40.8127
11:05:07.545,-47.5627,-40.5627
11:05:07.555,-45.8127,-43.0002
11:05:07.565,-44.0002,-42.5627
11:05:07.576,-43.0627,-44.8127
11:05:07.585,-42.5002,-45.6877
11:05:07.594,-40.8752,-47.0002
11:05:07.605,-38.2501,-47.0627
11:05:07.615,-34.6876,-47.8752
11:05:07.625,-31.4376,-49.4377
11:05:07.642,-26.5626,-49.8127
11:05:07.656,-22.6876,-50.1252
11:05:07.659,-18.2501,-48.6252
11:05:07.665,-13,-46.6252
11:05:07.675,-6.4375,-44.3752
11:05:07.685,0.125,-41.6877
11:05:07.701,11.0625,-37.6251
11:05:07.705,22.5626,-32.1876
11:05:07.717,38.2501,-27.4376
11:05:07.725,55.3127,-19.3126
11:05:07.736,80.0003,-9.4375
11:05:07.746,122.1255,6.6875
11:05:07.755,178.2507,26.8126
11:05:07.766,234.9384,52.1252
11:05:07.775,300.3762,80.8753
11:05:07.785,328.8138,91.1254
11:05:07.795,334.7513,91.3129
11:05:07.805,326.5637,89.5003
11:05:07.815,314.4387,85.1253
11:05:07.824,303.9387,82.8128
11:05:07.836,296.1261,78.8128
11:05:07.845,289.0011,76.8128
11:05:07.855,284.6886,77.3128
11:05:07.867,281.1886,78.6878
11:05:07.876,276.626,82.5003
11:05:07.887,270.626,86.9378
11:05:07.895,259.9385,89.8753
11:05:07.905,247.3759,94.7504
11:05:07.916,233.9384,97.3754
11:05:07.925,220.6883,100.7504
11:05:07.936,209.0008,104.5629
11:05:07.946,199.5008,106.3754
11:05:07.955,189.6882,108.4379
11:05:07.966,180.8132,108.8754
11:05:07.974,170.1256,107.5629
11:05:07.985,161.9381,106.1879
11:05:07.995,153.6256,104.1879
11:05:08.005,145.438,103.1879
11:05:08.014,138.938,101.3129
11:05:08.025,130.438,99.7504
11:05:08.035,123.0005,99.1879
11:05:08.045,116.0004,96.3754
11:05:08.055,109.3754,96.3129
11:05:08.066,104.3129,96.0629
11:05:08.074,97.0629,96.5004
11:05:08.085,86.5628,95.0004
11:05:08.094,62.3127,92.4379
11:05:08.106,39.3127,88.2503
11:05:08.115,0.375,88.7503
11:05:08.126,-20.7501,86.0628
11:05:08.142,-38.8126,86.7503
11:05:08.145,-48.3127,81.3753
11:05:08.159,-52.1877,76.2503
11:05:08.165,-55.7502,71.4378
11:05:08.175,-58.0002,68.3753
11:05:08.185,-60.0627,64.0002
11:05:08.194,-62.1877,61.0627
11:05:08.205,-63.4377,57.4377
11:05:08.216,-65.6253,55.5002
11:05:08.226,-67.3753,51.1252
11:05:08.235,-68.0628,48.2502
11:05:08.245,-68.1878,45.3752
11:05:08.254,-68.0003,43.2502
11:05:08.265,-67.8753,39.5627
11:05:08.274,-68.0003,37.8751
11:05:08.285,-67.5628,33.6876
11:05:08.295,-68.1253,30.5626
11:05:08.305,-67.0628,27.9376
11:05:08.316,-66.4378,24.4376
11:05:08.326,-64.8752,20.8126
11:05:08.335,-65.3753,18.0626
11:05:08.345,-64.7502,14.8126
11:05:08.356,-64.6252,11.375
11:05:08.365,-64.6877,8.3125
11:05:08.375,-65.1253,5.8125
11:05:08.385,-65.5003,2.25
11:05:08.395,-65.3752,0.25
11:05:08.404,-66.3128,-3.875
11:05:08.414,-65.4377,-5.6875
11:05:08.426,-65.6253,-9.875
11:05:08.434,-65.3752,-11.6875
11:05:08.452,-66.1253,-16.3126
11:05:08.456,-65.8753,-18.1876
11:05:08.466,-66.0003,-22.2501
11:05:08.499,-66.1253,-24.5001
11:05:08.501,-65.8753,-26.6876
11:05:08.503,-65.4378,-29.3751
11:05:08.505,-65.1252,-31.5001
11:05:08.515,-64.1877,-34.6251
11:05:08.525,-64.5002,-35.5001
11:05:08.562,-63.5002,-37.6251
11:05:08.564,-63.1877,-40.6252
11:05:08.567,-63.1877,-42.6877
11:05:08.569,-62.8127,-44.9377
11:05:08.576,-62.0627,-46.0627
11:05:08.610,-62.6252,-48.8752
11:05:08.612,-62.4377,-50.2502
11:05:08.615,-63.1877,-51.2502
11:05:08.620,-62.6252,-54.1252
11:05:08.624,-63.9377,-55.2502
11:05:08.660,-64.5002,-57.1877
11:05:08.663,-65.1252,-59.7502
11:05:08.667,-66.6253,-62.1252
11:05:08.671,-68.9378,-65.7503
11:05:08.681,-70.8128,-68.3753
11:05:08.690,-72.6878,-69.8128
11:05:08.701,-74.3128,-73.1253
11:05:08.709,-75.3753,-75.5628
11:05:08.720,-77.1878,-76.9378
11:05:08.731,-76.8128,-78.8128
11:05:08.740,-77.8753,-80.3128
11:05:08.752,-79.4378,-81.7503
11:05:08.761,-79.8753,-84.6253
11:05:08.769,-79.8128,-84.8128
11:05:08.781,-80.4378,-86.8753
11:05:08.789,-79.8753,-87.7503
11:05:08.799,-77.5628,-85.5628
11:05:08.810,-73.1878,-79.8753
11:05:08.828,-67.3753,-71.1253
11:05:08.831,-61.4377,-62.8752
11:05:08.840,-56.6252,-51.1877
11:05:08.850,-49.5002,-39.6877
11:05:08.859,-44.3752,-26.5626
11:05:08.870,-38.5626,-16.8751
11:05:08.880,-34.0001,-7.375
11:05:08.890,-31.0626,0.5625
11:05:08.900,-27.5626,6.5
11:05:08.910,-24.6251,12.6875
11:05:08.921,-22.8751,17.0626
11:05:08.937,-21.1251,20.0001
11:05:08.942,-21.5626,22.1876
11:05:08.957,-22.8126,22.8751
11:05:08.961,-23.5001,23.1251
11:05:08.971,-25.3126,21.4376
11:05:08.980,-26.7501,20.6251
11:05:08.991,-27.5001,21.0001
11:05:08.999,-26.9376,20.8751
11:05:09.009,-25.0001,22.1251
11:05:09.021,-22.6876,24.0001
11:05:09.030,-21.1876,26.2501
11:05:09.041,-18.0001,27.5626
11:05:09.051,-15.4376,28.3751
11:05:09.061,-14.0001,28.1251
11:05:09.069,-12.5625,27.2501
11:05:09.081,-12.375,26.8751
11:05:09.089,-11.1875,25.0626
11:05:09.101,-11.75,24.3751
11:05:09.110,-11.8125,22.2501
11:05:09.119,-13.8126,21.1251
11:05:09.130,-13.7501,18.2501
11:05:09.139,-14.3751,17.5001
11:05:09.150,-13.7501,16.7501
11:05:09.161,-13.5001,15.1876
11:05:09.171,-12.625,14.3751
11:05:09.179,-11.9375,12.9375
11:05:09.189,-11,11.3125
11:05:09.203,-10.8125,10.75
11:05:09.209,-9.625,9.375
11:05:09.220,-9.3125,7.5625
11:05:09.231,-9.0625,5.875
11:05:09.241,-9.9375,3.375
11:05:09.251,-10.625,0.9375
11:05:09.259,-11.5,-0.9375
11:05:09.269,-12.4375,-3.25
11:05:09.279,-12.75,-5.4375
11:05:09.290,-13.5626,-7.875
11:05:09.299,-13.9376,-10.6875
11:05:09.310,-15.4376,-13.2501
11:05:09.320,-17.4376,-15.8126
11:05:09.331,-19.6251,-19.4376
11:05:09.341,-21.8751,-22.0626
11:05:09.351,-23.9376,-26.1251
11:05:09.359,-27.0001,-29.0001
11:05:09.370,-29.8751,-33.5001
11:05:09.381,-32.6876,-36.8126
11:05:09.390,-35.3126,-40.3127
11:05:09.401,-37.1251,-42.3752
11:05:09.412,-39.4377,-46.1877
11:05:09.419,-41.0002,-47.5627
11:05:09.438,-41.0002,-49.8127
11:05:09.440,-41.8752,-50.5627
11:05:09.456,-42.8752,-52.0002
11:05:09.463,-42.3127,-53.6252
11:05:09.472,-42.1252,-53.2502
11:05:09.484,-40.9377,-54.0627
11:05:09.490,-40.4377,-55.0627
11:05:09.501,-40.6877,-54.8752
11:05:09.509,-41.8127,-57.6252
11:05:09.520,-42.9377,-58.7502
11:05:09.530,-45.4377,-58.5002
11:05:09.539,-46.2502,-60.6252
11:05:09.551,-46.6877,-60.5002
11:05:09.561,-47.3127,-61.1252
11:05:09.571,-48.0002,-62.0627
11:05:09.579,-49.5627,-63.0002
11:05:09.590,-51.8127,-64.9377
11:05:09.599,-53.7502,-64.8127
11:05:09.610,-55.5627,-68.0628
11:05:09.621,-57.5002,-71.0003
11:05:09.632,-59.5627,-73.4378
11:05:09.640,-62.4377,-77.3753
11:05:09.650,-64.5002,-79.6253
11:05:09.659,-65.0627,-82.4378
11:05:09.671,-63.0002,-80.5003
11:05:09.680,-59.5627,-76.5003
11:05:09.690,-54.0627,-68.1878
11:05:09.700,-48.4377,-61.3752
11:05:09.711,-41.2502,-50.8752
11:05:09.719,-35.0001,-42.8127
11:05:09.731,-28.1876,-32.9376
11:05:09.741,-22.5001,-24.8751
11:05:09.750,-16.7501,-16.5626
11:05:09.777,-14.1876,-12.1875
11:05:09.779,-12.0625,-7
11:05:09.782,-10.5625,-4.625
11:05:09.790,-9.375,-1.375
11:05:09.800,-8.375,-0.8125
11:05:09.809,-7.6875,1.0625
11:05:09.822,-5.875,0.8125
11:05:09.829,-3.3125,4.0625
11:05:09.840,-2,5.5
11:05:09.850,1,6.5
11:05:09.860,2.875,9.3125
11:05:09.870,3.4375,9.1875
11:05:09.881,5.6875,11.0625
11:05:09.890,6.6875,13.1251
11:05:09.901,8,13.6251
11:05:09.909,9.125,14.6251
11:05:09.920,8.875,14.6251
11:05:09.945,8.3125,12.4375
11:05:09.947,7.9375,11.4375
11:05:09.949,6.1875,10.1875
11:05:09.981,4.875,7.8125
11:05:09.983,4.1875,5.25
11:05:09.988,2.25,3.75
11:05:09.991,1.8125,1.3125
11:05:10.030,-0.875,-0.5625
11:05:10.034,-2,-2.125
11:05:10.035,-5.0625,-4.875
11:05:10.040,-6.8125,-6.8125
11:05:10.041,-9.75,-9.4375
11:05:10.071,-10.625,-11.625
11:05:10.077,-13.1876,-13.6876
11:05:10.079,-14.5626,-15.2501
11:05:10.082,-16.0001,-18.3126
11:05:10.091,-17.9376,-19.8126
11:05:10.100,-19.0626,-21.5001
11:05:10.110,-20.0626,-24.3751
11:05:10.121,-20.3126,-25.2501
11:05:10.129,-21.3126,-26.6876
11:05:10.139,-21.3126,-27.1876
11:05:10.150,-20.3126,-28.6251
11:05:10.160,-19.6251,-28.0001
11:05:10.171,-21.0626,-30.0001
11:05:10.180,-22.5626,-29.5626
11:05:10.191,-26.1251,-33.0001
11:05:10.201,-28.1876,-34.8751
11:05:10.209,-31.5626,-36.9376
11:05:10.221,-34.1251,-38.2501
11:05:10.236,-34.5626,-39.8127
11:05:10.251,-35.5626,-38.8126
11:05:10.254,-40.6877,-40.5002
11:05:10.261,-46.8752,-48.8127
11:05:10.269,-52.6252,-52.4377
11:05:10.280,-58.5627,-58.5002
11:05:10.291,-65.8753,-66.5003
11:05:10.301,-73.1878,-73.9378
11:05:10.313,-79.8753,-82.0003
11:05:10.320,-84.6878,-89.8753
11:05:10.329,-88.5003,-94.5004
11:05:10.341,-89.7503,-99.9379
11:05:10.349,-89.5628,-101.5004
11:05:10.361,-90.0003,-103.5004
11:05:10.369,-88.2503,-104.4379
11:05:10.380,-87.7503,-103.9379
11:05:10.390,-85.7503,-104.4379
11:05:10.401,-85.6878,-104.1254
11:05:10.409,-83.5628,-104.8129
11:05:10.419,-81.5003,-103.3754
11:05:10.429,-79.8128,-104.2504
11:05:10.441,-78.7503,-103.1879
11:05:10.449,-77.4378,-102.6254
11:05:10.460,-76.9378,-103.7504
11:05:10.471,-75.8753,-102.7504
11:05:10.479,-74.6253,-104.3129
11:05:10.490,-72.9378,-103.5629
11:05:10.501,-73.2503,-103.6879
11:05:10.510,-71.9378,-105.1254
11:05:10.520,-72.8753,-105.6879
11:05:10.532,-71.9378,-107.3754
11:05:10.541,-70.3753,-106.8129
11:05:10.549,-68.5003,-105.0629
11:05:10.561,-66.6253,-106.3754
11:05:10.573,-64.3127,-105.6254
11:05:10.580,-61.4377,-105.1879
11:05:10.591,-60.3127,-104.8129
11:05:10.601,-60.0627,-105.1254
11:05:10.610,-59.1877,-106.6254
11:05:10.623,-59.1877,-105.2504
11:05:10.629,-57.2502,-105.2504
11:05:10.639,-54.6877,-100.9379
11:05:10.650,-52.0627,-94.5629
11:05:10.659,-47.3752,-88.8128
11:05:10.670,-43.1877,-81.9378
11:05:10.679,-40.0627,-74.8128
11:05:10.691,-36.6876,-68.7503
11:05:10.700,-35.5001,-63.1252
11:05:10.709,-33.8751,-58.8752
11:05:10.720,-33.2501,-55.0627
11:05:10.737,-34.4376,-53.4377
11:05:10.752,-33.8751,-51.2502
11:05:10.755,-35.5626,-49.1252
11:05:10.760,-35.3751,-48.5002
11:05:10.771,-34.2501,-47.1877
11:05:10.782,-34.5001,-45.3127
11:05:10.789,-33.8126,-44.4377
11:05:10.799,-32.5001,-41.8752
11:05:10.810,-31.0001,-40.1252
11:05:10.823,-28.6876,-37.5626
11:05:10.832,-25.9376,-33.5626
11:05:10.842,-22.0626,-30.1251
11:05:10.849,-19.6251,-25.5626
11:05:10.859,-19.6876,-23.1251
11:05:10.871,-20.8751,-21.8126
11:05:10.879,-22.8126,-20.3751
11:05:10.892,-23.3751,-20.7501
11:05:10.903,-22.6251,-19.3126
11:05:10.909,-24.5001,-19.3126
11:05:10.921,-25.5626,-17.1876
11:05:10.931,-26.5001,-15.3126
11:05:10.939,-28.8126,-15.5626
11:05:10.951,-28.1251,-14.6876
11:05:10.960,-25.5626,-11.9375
11:05:10.969,-24.8126,-12.25
11:05:10.980,-26.8126,-13.8126
11:05:10.991,-32.1251,-15.6876
11:05:11.000,-37.9376,-21.5001
11:05:11.009,-42.1877,-26.5626
11:05:11.019,-44.8752,-28.8126
11:05:11.030,-46.8127,-32.2501
11:05:11.057,-46.6252,-32.8126
11:05:11.059,-46.8127,-32.7501
11:05:11.062,-45.1877,-33.1876
11:05:11.069,-42.3752,-32.8126
11:05:11.079,-40.9377,-32.4376
11:05:11.089,-39.5002,-34.0626
11:05:11.100,-37.3126,-33.2501
11:05:11.110,-37.6876,-32.7501
11:05:11.119,-36.5001,-34.9376
11:05:11.129,-35.5626,-35.2501
11:05:11.140,-36.1251,-35.9376
11:05:11.152,-36.0626,-37.8126
11:05:11.160,-34.9376,-38.5626
11:05:11.193,-35.3751,-37.6876
11:05:11.196,-34.6251,-40.7502
11:05:11.199,-34.8751,-40.6252
11:05:11.201,-36.5001,-42.7502
11:05:11.233,-36.3751,-44.6877
11:05:11.234,-35.3126,-45.5002
11:05:11.237,-33.7501,-46.1252
11:05:11.242,-31.6251,-46.1252
11:05:11.278,-30.7501,-46.3752
11:05:11.279,-28.6251,-46.5627
11:05:11.281,-27.0001,-46.8127
11:05:11.307,-24.3751,-46.4377
11:05:11.308,-23.5001,-46.0002
11:05:11.311,-22.3751,-46.8752
11:05:11.317,-23.6251,-48.4377
11:05:11.319,-23.1251,-49.7502
11:05:11.334,-23.8126,-50.3752
11:05:11.339,-23.6876,-51.1877
11:05:11.350,-24.2501,-52.8752
11:05:11.359,-25.3126,-53.9377
11:05:11.371,-25.9376,-56.3752
11:05:11.380,-27.5001,-56.9377
11:05:11.391,-28.6876,-60.1252
11:05:11.399,-32.3126,-61.6252
11:05:11.411,-35.4376,-65.1878
11:05:11.420,-39.0001,-68.1253
11:05:11.430,-41.8127,-70.8128
11:05:11.439,-43.9377,-72.8128
11:05:11.449,-45.1252,-73.1253
11:05:11.462,-44.4377,-74.5628
11:05:11.471,-43.1252,-73.0003
11:05:11.482,-43.3752,-73.4378
11:05:11.489,-41.5002,-73.4378
11:05:11.501,-41.8127,-73.1878
11:05:11.509,-41.2502,-73.1878
11:05:11.530,-43.3127,-72.8128
11:05:11.535,-45.8127,-75.2503
11:05:11.550,-46.9377,-77.1878
11:05:11.553,-47.1252,-76.3753
11:05:11.560,-45.8127,-76.3753
11:05:11.573,-44.2502,-74.3753
11:05:11.579,-42.0627,-70.8128
11:05:11.591,-38.3126,-65.5628
11:05:11.601,-30.1876,-56.8752
11:05:11.609,-22.2501,-45.9377
11:05:11.619,-15.1876,-37.1251
11:05:11.630,-11.125,-29.6251
11:05:11.639,-8.9375,-23.6876
11:05:11.651,-10.1875,-21.4376
11:05:11.662,-13,-19.2501
11:05:11.669,-16.7501,-20.0001
11:05:11.680,-19.1876,-19.1876
11:05:11.689,-20.6876,-19.9376
11:05:11.702,-21.3126,-18.8126
11:05:11.710,-19.5626,-17.8126
11:05:11.721,-18.1251,-16.6251
11:05:11.729,-15.6876,-12.9375
11:05:11.741,-13.0625,-10.8125
11:05:11.751,-9.875,-8.0625
11:05:11.759,-7.5625,-4.8125
11:05:11.769,-4.3125,-3.875
11:05:11.780,-1.6875,-0.0625
11:05:11.791,1.0625,1.6875
11:05:11.799,2.3125,4.875
11:05:11.810,4.375,5.875
11:05:11.820,4.9375,7.875
11:05:11.831,4.8125,8.1875
11:05:11.840,5.5625,8.9375
11:05:11.849,5.75,9.625
11:05:11.861,6.0625,8.5
11:05:11.869,5.5,7.9375
11:05:11.879,5.875,7.6875
11:05:11.890,4.5625,7.0625
11:05:11.900,4.5625,6.875
11:05:11.909,3.875,6.625
11:05:11.921,4.125,5.75
11:05:11.931,3.1875,5.375
11:05:11.941,3.625,5
11:05:11.949,3.75,5.75
11:05:11.960,4.75,4.9375
11:05:11.971,3.9375,5.3125
11:05:11.980,4.4375,5.0625
11:05:11.990,3.375,4.0625
11:05:12.000,3.1875,4.5625
11:05:12.012,2.4375,2.6875
11:05:12.030,2.0625,2
11:05:12.033,1.5625,0.9375
11:05:12.049,0.625,0.1875
11:05:12.050,-0.625,-1.75
11:05:12.060,-1.375,-2.5
11:05:12.069,-1.0625,-3.375
11:05:12.088,-1.6875,-3.9375
11:05:12.091,-2.875,-5.4375
11:05:12.100,-4.5,-6.5
11:05:12.110,-4.4375,-7.75
11:05:12.119,-5.875,-8.6875
11:05:12.130,-5.5625,-9.125
11:05:12.140,-4.75,-9.5625
11:05:12.149,-3.6875,-8.75
11:05:12.159,-1.6875,-7.6875
11:05:12.171,0.75,-5.375
11:05:12.183,2.9375,-4.875
11:05:12.190,4.0625,-4.0625
11:05:12.199,3.125,-4.9375
11:05:12.209,2.6875,-5.9375
11:05:12.220,-0.0625,-6.9375
11:05:12.231,-2.4375,-10.0625
11:05:12.239,-6.125,-13.3751
11:05:12.249,-9.75,-15.1876
11:05:12.259,-12.875,-20.6251
11:05:12.271,-16.0626,-23.6251
11:05:12.279,-19.2501,-26.8751
11:05:12.290,-19.3126,-29.6251
11:05:12.299,-20.3126,-29.6876
11:05:12.309,-20.1251,-31.4376
11:05:12.337,-19.5626,-30.5001
11:05:12.339,-19.8751,-30.5001
11:05:12.342,-2.125,-24.8751
11:05:12.349,1.125,-20.8126
11:05:12.360,-0.1875,-24.3126
11:05:12.370,1.125,-24.3751
11:05:12.379,-6.1875,-28.0001
11:05:12.389,-11.9375,-31.8751
11:05:12.400,-15.0001,-35.6251
11:05:12.411,-14.3126,-37.1876
11:05:12.420,-11.5625,-36.7501
11:05:12.429,-5.9375,-33.3751
11:05:12.441,-2,-32.1251
11:05:12.449,2.8125,-28.8751
11:05:12.459,8.1875,-24.6876
11:05:12.469,14.5626,-18.5001
11:05:12.479,20.0626,-11.375
11:05:12.490,26.5626,-3.5
11:05:12.499,34.6251,5.3125
11:05:12.509,42.5627,14.4376
11:05:12.520,50.0627,22.7501
11:05:12.531,55.0002,30.5626
11:05:12.548,60.5002,36.6251
11:05:12.551,64.2502,42.2502
11:05:12.559,68.6878,46.1252
11:05:12.569,72.1253,50.7502
11:05:12.580,76.7503,55.4377
11:05:12.589,78.3128,58.1252
11:05:12.599,81.0003,61.0002
11:05:12.609,82.8128,62.0002
11:05:12.620,83.1878,65.0627
11:05:12.629,85.3753,65.4378
11:05:12.647,84.7503,68.2503
11:05:12.654,84.8128,67.6253
11:05:12.664,84.1878,67.6253
11:05:12.674,84.2503,69.6878
11:05:12.685,85.7503,70.8128
11:05:12.695,85.7503,71.3753
11:05:12.705,85.5003,73.4378
11:05:12.716,86.3753,73.3128
11:05:12.747,86.9378,73.0628
11:05:12.750,85.9378,72.6878
11:05:12.752,85.1253,71.3753
11:05:12.757,83.7503,71.1878
11:05:12.784,83.1253,69.1253
11:05:12.787,81.5628,68.0628
11:05:12.789,81.2503,67.1253
11:05:12.867,81.2503,65.3753
11:05:12.868,83.1878,66.7503
11:05:12.882,83.6253,66.6878
11:05:12.887,84.3753,65.5628
11:05:12.887,83.2503,64.5627
11:05:12.887,82.4378,64.5002
11:05:12.891,82.0628,62.3752
11:05:12.903,81.3753,61.0002
11:05:12.909,79.6878,59.8752
11:05:12.921,78.5003,58.2502
11:05:12.929,77.5628,56.2502
11:05:12.940,76.8128,54.8752
11:05:12.949,75.2503,53.5002
11:05:12.959,74.5003,52.1252
11:05:12.969,73.4378,49.5002
11:05:12.979,72.5003,47.2502
11:05:12.990,71.3128,45.4377
11:05:13.002,70.5003,44.0627
11:05:13.011,69.0628,42.6252
11:05:13.020,67.8753,39.8127
11:05:13.029,66.5628,37.3126
11:05:13.041,65.7503,36.1876
11:05:13.050,64.6877,30.2501
11:05:13.059,63.1877,27.6251
11:05:13.069,61.6877,26.0626
11:05:13.080,60.3127,25.0626
11:05:13.089,58.8752,22.3751
11:05:13.101,56.9377,20.3126
11:05:13.109,56.1877,19.2501
11:05:13.119,53.9377,16.0001
11:05:13.129,52.3127,13.8126
11:05:13.139,50.4377,12.125
11:05:13.149,48.8752,9.9375
11:05:13.162,47.1877,8.625
11:05:13.169,46.6877,7.1875
11:05:13.179,44.8752,4.3125
11:05:13.189,43.0627,2.75
11:05:13.202,42.9377,0.9375
11:05:13.209,40.6877,-1.5
11:05:13.220,39.3127,-2
11:05:13.231,38.4376,-3.25
11:05:13.239,38.5001,-5.6875
11:05:13.249,36.0626,-8.125
11:05:13.260,34.8126,-8
11:05:13.269,34.0626,-10.4375
11:05:13.279,32.4376,-12.25
11:05:13.289,31.0626,-13.6251
11:05:13.301,30.9376,-15.0001
11:05:13.309,29.3126,-16.8751
11:05:13.327,28.5001,-17.0626
11:05:13.332,28.0626,-18.8126
11:05:13.345,28.0626,-20.4376
11:05:13.361,26.1876,-22.5626
11:05:13.363,25.6251,-23.0001
11:05:13.372,25.6251,-23.7501
11:05:13.379,25.5001,-25.0626
11:05:13.390,24.1251,-26.0626
11:05:13.400,24.9376,-24.8126
11:05:13.409,25.6251,-24.8751
11:05:13.419,27.8126,-21.2501
11:05:13.429,30.4376,-16.8126
11:05:13.441,34.0626,-10.75
11:05:13.449,37.4376,-3.25
11:05:13.459,41.1877,2.75
11:05:13.471,43.9377,10.0625
11:05:13.479,47.0002,16.6876
11:05:13.489,49.1877,20.6876
11:05:13.500,51.5002,26.2501
11:05:13.509,52.6877,29.0001
11:05:13.519,53.3752,33.0001
11:05:13.530,54.1252,35.3126
11:05:13.539,54.4377,37.0001
11:05:13.549,55.3752,38.6876
11:05:13.559,54.6877,39.8752
11:05:13.572,55.5627,40.6252
11:05:13.581,55.3127,42.3752
11:05:13.589,55.0627,43.1252
11:05:13.617,55.5002,44.5002
11:05:13.620,55.6877,46.6252
11:05:13.622,56.3127,47.1877
11:05:13.635,55.9377,49.5002
11:05:13.640,56.6252,50.1252
11:05:13.651,56.8127,51.7502
11:05:13.659,57.2502,53.8752
11:05:13.670,57.3752,54.7502
11:05:13.679,56.8127,54.3127
11:05:13.689,55.8127,53.1252
11:05:13.699,55.5002,53.8127
11:05:13.709,54.9377,52.8127
11:05:13.720,54.3752,51.9377
11:05:13.729,53.3127,51.6252
11:05:13.739,53.3752,51.5627
11:05:13.749,53.3127,50.3752
11:05:13.759,52.3752,50.3752
11:05:13.769,52.6252,51.2502
11:05:13.780,53.0627,50.9377
11:05:13.789,51.7502,50.3127
11:05:13.799,51.6252,49.8127
11:05:13.809,51.3127,48.7502
11:05:13.820,49.9377,47.8127
11:05:13.829,49.3127,47.6252
11:05:13.839,48.3752,45.3752
11:05:13.851,47.6252,44.8752
11:05:13.860,46.6252,43.9377
11:05:13.869,45.1252,40.7502
11:05:13.879,42.8127,38.3751
11:05:13.891,41.1252,36.8751
11:05:13.900,39.6252,34.0626
11:05:13.910,38.1251,32.1251
11:05:13.921,36.0626,29.8126
11:05:13.929,35.7501,29.3751
11:05:13.940,33.9376,26.1876
11:05:13.949,33.2501,25.1876
11:05:13.959,32.1876,24.6251
11:05:13.970,31.8751,21.6251
11:05:13.981,31.1876,19.9376
11:05:13.989,30.0001,19.2501
11:05:13.999,30.5626,18.0001
11:05:14.010,29.1876,15.9376
11:05:14.022,28.1251,14.6876
11:05:14.030,27.3751,13.8126
11:05:14.039,26.2501,12
11:05:14.051,24.9376,9.6875
11:05:14.059,23.0001,9.3125
11:05:14.069,23.0001,7
11:05:14.080,21.4376,4.8125
11:05:14.089,20.0626,4.3125
11:05:14.099,19.8126,1.9375
11:05:14.113,18.5001,0.1875
11:05:14.121,17.9376,0.3125
11:05:14.196,17.0626,-2.0625
11:05:14.249,16.6251,-3.375
11:05:14.252,15.7501,-4.0625
11:05:14.252,15.6251,-5
11:05:14.257,15.7501,-7.125
11:05:14.258,15.3751,-7.6875
11:05:14.258,15.9376,-7.625
11:05:14.266,15.8751,-9.375
11:05:14.275,14.6876,-10.5625
11:05:14.284,14.0001,-11.3125
11:05:14.295,13.1251,-12.75
11:05:14.304,12.3125,-14.7501
11:05:14.314,11.5625,-16.5001
11:05:14.325,11.0625,-16.5001
11:05:14.335,11.25,-17.0626
11:05:14.344,10.75,-18.0001
11:05:14.358,10.625,-20.0001
11:05:14.364,9.625,-19.5626
11:05:14.374,9.75,-20.6876
11:05:14.386,11.9375,-19.5001
11:05:14.394,13.7501,-16.5626
11:05:14.404,16.8126,-11.4375
11:05:14.414,19.8751,-5.0625
11:05:14.425,39.6877,42.0002
11:05:14.435,40.6877,43.1252
11:05:14.444,40.4377,44.4377
11:05:14.455,39.6877,45.0627
11:05:14.464,39.0626,46.3127
11:05:14.476,39.1251,47.3127
11:05:14.484,39.2502,47.1252
11:05:14.495,39.5002,50.2502
11:05:14.505,40.0627,50.6877
11:05:14.515,39.6252,51.6877
11:05:14.525,40.8127,53.6252
11:05:14.534,42.0627,54.3127
11:05:14.544,42.7502,56.5627
11:05:14.554,42.9377,58.4377
11:05:14.564,43.0627,58.3127
11:05:14.574,42.5627,59.5002
11:05:14.584,43.4377,58.9377
11:05:14.595,41.5627,56.8752
11:05:14.606,39.6877,57.1877
11:05:14.614,39.6877,55.6877
11:05:14.626,38.1251,53.9377
11:05:14.644,37.7501,54.2502
11:05:14.647,37.5001,53.0627
11:05:14.662,36.7501,52.5627
11:05:14.666,35.4376,53.5627
11:05:14.679,35.9376,52.0002
11:05:14.688,34.8126,51.0002
11:05:14.698,34.6876,52.0002
11:05:14.704,34.6876,50.7502
11:05:14.714,32.7501,48.6252
11:05:14.725,31.4376,49.4377
11:05:14.734,31.1876,46.7502
11:05:14.744,29.6876,44.3752
11:05:14.761,29.6251,43.3127
11:05:14.766,27.1876,41.3752
11:05:14.775,26.5001,39.2502
11:05:14.785,24.5626,37.6251
11:05:14.794,23.5001,35.7501
11:05:14.804,22.5626,33.5001
11:05:14.814,22.1251,31.1251
11:05:14.826,21.1251,28.7501
11:05:14.835,20.1876,28.2501
11:05:14.845,19.9376,25.3126
11:05:14.855,18.0001,25.0626
11:05:14.865,18.0626,21.8126
11:05:14.898,16.6251,20.5626
11:05:14.900,16.6251,19.2501
11:05:14.903,16.4376,17.5001
11:05:14.905,15.9376,16.3126
11:05:14.914,15.3751,14.0626
11:05:14.925,14.6876,13
11:05:14.935,14.4376,11.3125
11:05:14.944,12.5,9.875
11:05:14.956,11.875,7.6875
11:05:14.965,10.375,6.4375
11:05:14.974,10,4.875
11:05:14.984,8.4375,3.1875
11:05:14.996,8,1.5
11:05:15.004,6.375,-0.1875
11:05:15.015,4.875,-2.75
11:05:15.024,4.4375,-4.4375
11:05:15.035,2.6875,-5.4375
11:05:15.045,2.125,-6.9375
11:05:15.058,0.75,-9.75
11:05:15.064,-0.9375,-11.5625
11:05:15.074,-1.625,-14.0626
11:05:15.084,-3.375,-16.1251
11:05:15.094,-4.0625,-17.3126
11:05:15.104,-4.625,-19.2501
11:05:15.116,-5.9375,-19.8751
11:05:15.124,-5.1875,-19.8126
11:05:15.136,-4.5,-19.3751
11:05:15.148,-1.5625,-14.3126
11:05:15.154,1.3125,-9.8125
11:05:15.164,5.875,-1.375
11:05:15.174,9.9375,5.5
11:05:15.184,14.3126,14.8751
11:05:15.196,18.4376,22.1876
11:05:15.204,22.1876,30.7501
11:05:15.214,25.5001,36.3751
11:05:15.224,27.8751,42.6877
11:05:15.238,29.2501,47.5627
11:05:15.245,31.0626,49.9377
11:05:15.255,31.1876,52.9377
11:05:15.266,31.9376,54.8752
11:05:15.274,33.1876,56.6252
11:05:15.285,34.0001,58.3127
11:05:15.294,35.0001,59.8127
11:05:15.304,35.2501,61.8752
11:05:15.316,35.8126,62.9377
11:05:15.326,36.0001,64.3752
11:05:15.334,37.4376,66.0628
11:05:15.347,37.0626,68.0003
11:05:15.354,37.5001,69.3753
11:05:15.364,38.6251,70.5003
11:05:15.374,38.7501,71.3753
11:05:15.384,37.6876,73.1253
11:05:15.394,37.8751,72.1253
11:05:15.407,37.1251,70.0003
11:05:15.415,35.1876,69.0628
11:05:15.424,33.9376,67.6878
11:05:15.437,32.8751,64.1252
11:05:15.444,30.7501,63.5627
11:05:15.454,30.0626,60.7502
11:05:15.465,28.5001,59.3127
11:05:15.474,27.5626,58.3752
11:05:15.485,26.8126,56.5627
11:05:15.504,26.6251,56.3127
11:05:15.510,25.5626,54.5002
11:05:15.584,24.8751,53.8752
11:05:15.588,24.6251,52.7502
11:05:15.590,23.3126,51.2502
11:05:15.593,22.1251,49.1252
11:05:15.629,21.3751,47.3752
11:05:15.629,19.6251,44.9377
11:05:15.629,18.8751,43.4377
11:05:15.629,17.4376,40.6877
11:05:15.632,16.5001,38.1876
11:05:15.637,15.3751,36.1876
11:05:15.639,13.9376,33.4376
11:05:15.646,12.8125,31.5626
11:05:15.656,12.4375,28.5626
11:05:15.665,10.8125,27.0001
11:05:15.674,10.4375,24.8126
11:05:15.686,8.875,21.8126
11:05:15.695,7.5625,19.2501
11:05:15.704,6.4375,17.6876
11:05:15.714,5.375,14.1876
11:05:15.726,4.0625,12.625
11:05:15.734,2.625,10
11:05:15.745,2.25,7.875
11:05:15.756,0.875,5.875
11:05:15.764,-2.0625,0.125
11:05:15.776,-2.1875,-0.875
11:05:15.784,-3.5,-2.25
11:05:15.794,-4.8125,-4.1875
11:05:15.805,-5.625,-6.125
11:05:15.814,-6.5625,-8.8125
11:05:15.824,-7.1875,-9.8125
11:05:15.837,-8.3125,-12.8125
11:05:15.844,-8.625,-13.2501
11:05:15.854,-10.75,-16.0626
11:05:15.866,-11.125,-17.4376
11:05:15.874,-12.3125,-20.0626
11:05:15.888,-13.9376,-20.9376
11:05:15.895,-14.4376,-23.7501
11:05:15.904,-15.0001,-24.5001
11:05:15.916,-16.1876,-26.9376
11:05:15.924,-16.5626,-27.3126
11:05:15.935,-17.4376,-30.3126
11:05:15.944,-17.2501,-30.6876
11:05:15.961,-17.5001,-32.0001
11:05:15.965,-19.0001,-33.2501
11:05:15.980,-18.7501,-35.8126
11:05:15.994,-18.8751,-36.3126
11:05:16.011,-20.0626,-38.2501
11:05:16.014,-20.3751,-40.1877
11:05:16.015,-21.8126,-40.0002
11:05:16.024,-21.3126,-42.5002
11:05:16.034,-19.6251,-40.6252
11:05:16.046,-18.0001,-36.8751
11:05:16.055,-13.5626,-31.5001
11:05:16.064,-8.5,-21.9376
11:05:16.077,-3.5625,-13.8751
11:05:16.084,2.125,-2.875
11:05:16.094,6.5625,7.25
11:05:16.104,11.75,16.6251
11:05:16.114,17.1251,25.7501
11:05:16.125,19.1251,33.1251
11:05:16.136,22.4376,38.6251
11:05:16.145,24.1876,43.5627
11:05:16.177,25.3751,47.1252
11:05:16.180,25.6251,49.1877
11:05:16.182,26.6251,51.5627
11:05:16.184,26.0626,51.2502
11:05:16.194,27.0626,54.3752
11:05:16.204,27.1876,54.2502
11:05:16.215,27.9376,56.9377
11:05:16.226,28.7501,57.4377
11:05:16.235,29.0626,59.6877
11:05:16.245,28.8751,60.1877
11:05:16.255,30.0001,62.6252
11:05:16.266,30.4376,63.7502
11:05:16.274,30.9376,65.8128
11:05:16.285,31.4376,66.4378
11:05:16.295,31.0001,66.0003
11:05:16.304,29.5626,66.6878
11:05:16.316,29.3126,64.5002
11:05:16.325,28.5626,63.8127
11:05:16.335,27.8751,60.8752
11:05:16.344,26.6876,59.0002
11:05:16.356,26.3126,57.5002
11:05:16.365,25.1876,56.3752
11:05:16.374,24.9376,54.6877
11:05:16.385,23.5001,53.6877
11:05:16.395,23.0626,53.1877
11:05:16.405,22.6876,52.0002
11:05:16.415,21.0626,50.5627
11:05:16.424,20.9376,48.5002
11:05:16.434,19.5626,47.1252
11:05:16.444,18.8751,45.6877
11:05:16.454,17.8751,42.4377
11:05:16.465,16.8126,41.8127
11:05:16.474,15.2501,38.5626
11:05:16.484,13.7501,36.6876
11:05:16.495,12.625,33.3751
11:05:16.504,10.875,31.3126
11:05:16.515,9.625,27.8126
11:05:16.525,8,25.3126
11:05:16.534,6.0625,22.0001
11:05:16.544,4.875,19.9376
11:05:16.555,2.875,15.7501
11:05:16.564,1.5625,14.3751
11:05:16.574,0.5625,10.875
11:05:16.588,-0.5,8.875
11:05:16.594,-1.5625,6.25
11:05:16.607,-2.0625,4.625
11:05:16.614,-3.4375,1.3125
11:05:16.625,-3.6875,0.25
11:05:16.641,-5.5,-2.9375
11:05:16.646,-6.25,-4.125
11:05:16.654,-7.3125,-7.1875
11:05:16.664,-7.75,-7.75
11:05:16.675,-8.75,-10.25
11:05:16.686,-9.5625,-11.4375
11:05:16.694,-10.3125,-14.0626
11:05:16.705,-11.5,-15.6876
11:05:16.715,-12.0625,-17.3751
11:05:16.725,-12.8125,-19.2501
11:05:16.735,-13.7501,-21.3751
11:05:16.744,-14.7501,-22.8751
11:05:16.755,-15.0001,-24.3751
11:05:16.770,-15.0626,-25.5001
11:05:16.780,-16.1876,-27.9376
11:05:16.789,-17.0001,-28.4376
11:05:16.799,-17.9376,-30.5626
11:05:16.810,-18.5001,-32.6876
11:05:16.820,-19.5626,-33.5626
11:05:16.830,-19.5626,-36.0001
11:05:16.856,-19.4376,-37.4376
11:05:16.956,-20.8751,-38.3751
11:05:16.959,-21.9376,-40.3127
11:05:16.959,-21.8126,-41.6252
11:05:16.965,-22.5626,-43.5627
11:05:16.965,-23.4376,-45.1252
11:05:16.965,-23.1876,-45.8752
11:05:16.973,-24.5626,-46.8127
11:05:16.989,-24.5001,-49.5002
11:05:16.991,-25.5626,-50.1877
11:05:16.999,-25.4376,-52.5002
11:05:17.016,-26.1876,-53.1877
11:05:17.021,-26.6251,-54.6877
11:05:17.031,-26.8126,-56.0627
11:05:17.039,-27.5001,-56.0002
11:05:17.049,-25.3126,-54.5627
11:05:17.059,-22.9376,-50.0627
11:05:17.069,-18.6251,-42.8752
11:05:17.079,-13.7501,-35.1251
11:05:17.089,-8.125,-24.6876
11:05:17.099,-2,-13.8751
11:05:17.110,3.5,-3.25
11:05:17.120,8.5625,5.8125
11:05:17.129,24.8751,38.5626
11:05:17.139,25.0626,40.3752
11:05:17.149,26.8126,40.6877
11:05:17.159,26.7501,41.4377
11:05:17.169,27.8751,43.0002
11:05:17.181,27.6876,43.4377
11:05:17.189,28.3126,45.8752
11:05:17.199,29.4376,46.8752
11:05:17.209,29.5001,48.3127
11:05:17.220,30.7501,49.1877
11:05:17.230,30.9376,51.1877
11:05:17.240,31.5001,51.1877
11:05:17.249,31.5626,51.8752
11:05:17.262,30.6251,50.0627
11:05:17.280,30.3126,49.4377
11:05:17.282,28.7501,47.5627
11:05:17.292,27.2501,45.2502
11:05:17.300,26.6876,44.6877
11:05:17.317,25.4376,43.0627
11:05:17.322,25.1876,41.3752
11:05:17.329,23.5001,40.6877
11:05:17.339,23.0001,39.3752
11:05:17.350,21.4376,38.1251
11:05:17.359,21.3126,36.8126
11:05:17.369,19.6876,36.8126
11:05:17.380,18.5001,36.2501
11:05:17.395,18.5626,34.0626
11:05:17.400,17.4376,33.5001
11:05:17.409,16.6876,30.6251
11:05:17.419,15.4376,30.0001
11:05:17.430,15.5001,27.1251
11:05:17.457,13.8751,26.4376
11:05:17.460,13.1876,23.3126
11:05:17.462,11.4375,20.3126
11:05:17.470,10.5,18.2501
11:05:17.479,9.625,15.6876
11:05:17.489,8.75,14.3751
11:05:17.500,7.6875,11.1875
11:05:17.509,7,10.6875
11:05:17.519,5.625,7.25
11:05:17.530,4.5,5.625
11:05:17.540,3.375,2.375
11:05:17.550,2.6875,1.75
11:05:17.559,1.75,-1.5625
11:05:17.569,0.875,-3.5
11:05:17.579,0.25,-4.75
11:05:17.589,-1.1875,-6.4375
11:05:17.599,-1.4375,-8.1875
11:05:17.609,-2.8125,-10.1875
11:05:17.620,-4.25,-11.875
11:05:17.631,-4.4375,-14.0001
11:05:17.640,-5.625,-15.5626
11:05:17.649,-6.25,-16.0001
11:05:17.659,-7.0625,-19.1251
11:05:17.670,-7.875,-20.2501
11:05:17.680,-8.8125,-22.0001
11:05:17.690,-10.4375,-23.1876
11:05:17.699,-11.25,-24.5001
11:05:17.709,-12.0625,-26.9376
11:05:17.719,-12.875,-28.5626
11:05:17.729,-13.6876,-30.1251
11:05:17.741,-13.3751,-31.8126
11:05:17.749,-15.8751,-33.6251
11:05:17.760,-16.1251,-36.0001
11:05:17.769,-16.3126,-37.4376
11:05:17.780,-18.3751,-38.0001
11:05:17.789,-18.8126,-40.6252
11:05:17.799,-19.8126,-42.5627
11:05:17.809,-19.7501,-43.8127
11:05:17.819,-20.7501,-43.5002
11:05:17.830,-20.5626,-45.6252
11:05:17.840,-19.1876,-44.9377
11:05:17.849,-17.3751,-39.8752
11:05:17.863,-12.6875,-34.3126
11:05:17.871,-8.4375,-26.0001
11:05:17.880,-2.5625,-17.3751
11:05:17.889,2.25,-6.6875
11:05:17.899,7.375,1.9375
11:05:17.910,11.375,11.125
11:05:17.919,14.8126,17.5626
11:05:17.929,17.6251,24.6251
11:05:17.939,20.4376,29.3751
11:05:17.949,21.0626,32.7501
11:05:17.959,22.1251,34.3751
11:05:17.969,21.8751,36.1876
11:05:17.980,22.1251,36.3751
11:05:17.989,22.2501,36.9376
11:05:17.999,22.5626,38.4376
11:05:18.009,22.9376,38.8126
11:05:18.019,23.5001,40.3127
11:05:18.029,24.3751,40.1877
11:05:18.039,24.8126,42.5002
11:05:18.052,24.9376,42.5002
11:05:18.059,25.0626,44.4377
11:05:18.070,26.6876,44.5627
11:05:18.080,26.1251,44.8752
11:05:18.089,26.0626,44.8127
11:05:18.101,25.6251,45.7502
11:05:18.110,26.9376,44.5627
11:05:18.119,25.1876,42.7502
11:05:18.129,24.1251,40.6877
11:05:18.142,24.1251,40.1252
11:05:18.152,22.8126,39.2502
11:05:18.160,23.8751,38.2501
11:05:18.170,22.8751,37.5001
11:05:18.180,23.8751,37.4376
11:05:18.196,23.4376,37.5626
11:05:18.202,23.1876,36.8126
11:05:18.211,24.1876,35.8126
11:05:18.224,22.6876,35.1251
11:05:18.269,22.5001,33.3751
11:05:18.270,20.5001,32.3126
11:05:18.272,19.8751,30.2501
11:05:18.274,17.8751,28.4376
11:05:18.279,16.7501,25.6251
11:05:18.282,14.5001,24.1251
11:05:18.313,13.8751,20.5626
11:05:18.315,11.4375,19.2501
11:05:18.317,9.9375,15.4376
11:05:18.321,8.3125,12.5
11:05:18.347,6.6875,10.5
11:05:18.350,5.0625,7.6875
11:05:18.353,3.375,4.25
11:05:18.378,2.1875,2.25
11:05:18.381,0.375,0.125
11:05:18.383,-1.4375,-2.5625
11:05:18.391,-2.8125,-4.25
11:05:18.399,-4,-7.9375
11:05:18.410,-5.4375,-9.75
11:05:18.419,-6.5,-11.0625
11:05:18.430,-7.6875,-14.0626
11:05:18.439,-8.625,-16.6876
11:05:18.450,-9.625,-16.9376
11:05:18.459,-10.0625,-19.8751
11:05:18.472,-11.5,-20.4376
11:05:18.479,-12.6875,-21.7501
11:05:18.489,-12.0625,-24.5001
11:05:18.499,-13.3126,-24.7501
11:05:18.509,-13.0625,-26.6876
11:05:18.519,-13.8751,-28.1251
11:05:18.529,-14.0001,-29.3751
11:05:18.539,-14.6251,-31.2501
11:05:18.551,-14.3126,-31.8751
11:05:18.561,-15.6876,-33.9376
11:05:18.572,-15.6251,-34.9376
11:05:18.580,-16.8751,-35.2501
11:05:18.597,-17.0001,-37.0626
11:05:18.600,-17.0626,-38.8751
11:05:18.615,-17.9376,-39.1251
11:05:18.631,-18.7501,-42.1877
11:05:18.633,-18.7501,-42.8752
11:05:18.649,-19.3126,-42.8127
11:05:18.652,-19.3126,-45.0002
11:05:18.660,-20.6876,-47.0002
11:05:18.672,-20.7501,-47.9377
11:05:18.679,-21.9376,-49.4377
11:05:18.689,-22.1251,-51.0002
11:05:18.699,-23.0626,-53.0002
11:05:18.710,-23.6876,-52.6877
11:05:18.737,-23.4376,-55.2502
11:05:18.739,-24.3126,-55.5627
11:05:18.742,-23.5001,-56.1877
11:05:18.750,-22.2501,-52.8752
11:05:18.761,-19.4376,-49.6877
11:05:18.770,-14.3751,-41.8752
11:05:18.779,-9,-31.9376
11:05:18.789,-2.75,-21.7501
11:05:18.800,2.4375,-11.25
11:05:18.810,7.875,-0.5625
11:05:18.820,13,8.9375
11:05:18.830,16.4376,19.1251
11:05:18.839,20.0626,24.3751
11:05:18.851,22.3751,31.1876
11:05:18.860,23.8126,34.3126
11:05:18.869,24.8751,38.4376
11:05:18.879,25.3126,40.0002
11:05:18.892,25.8751,41.2502
11:05:18.902,25.8751,42.3127
11:05:18.909,26.6251,43.8752
11:05:18.919,26.1876,45.3127
11:05:18.929,27.0626,46.8127
11:05:18.939,28.9376,48.5627
11:05:18.952,30.1251,51.3752
11:05:18.960,32.0626,52.3752
11:05:18.969,32.3126,55.3127
11:05:18.979,33.3751,56.8127
11:05:18.989,34.7501,58.3127
11:05:19.000,34.7501,58.9377
11:05:19.010,34.6876,60.1877
11:05:19.019,35.0001,59.2502
11:05:19.029,33.8751,58.3127
11:05:19.040,32.5001,58.0002
11:05:19.051,31.5626,54.9377
11:05:19.060,30.6876,53.0002
11:05:19.069,29.3751,52.3127
11:05:19.082,28.2501,49.5002
11:05:19.089,27.8126,49.6252
11:05:19.099,27.0626,48.0627
11:05:19.109,25.6876,46.8127
11:05:19.120,25.5001,45.0002
11:05:19.129,24.1876,43.6252
11:05:19.139,24.0001,42.3752
11:05:19.149,22.0001,40.5627
11:05:19.160,22.6251,39.6877
11:05:19.171,20.1251,37.8126
11:05:19.179,20.3126,36.1251
11:05:19.190,18.9376,34.6251
11:05:19.200,18.8751,32.1876
11:05:19.209,16.6876,30.1876
11:05:19.221,17.0001,28.0626
11:05:19.229,14.4376,25.8126
11:05:19.239,13.8126,22.5001
11:05:19.250,11.875,20.4376
11:05:19.260,10.3125,18.4376
11:05:19.271,9.5625,15.4376
11:05:19.280,8.625,13.8126
11:05:19.290,7.5,10.5625
11:05:19.300,5.9375,9.1875
11:05:19.309,4.9375,6.625
11:05:19.319,4.25,3.9375
11:05:19.329,3.125,1.625
11:05:19.340,1.5625,0.4375
11:05:19.349,0.5625,-2.0625
11:05:19.360,-1.375,-5.3125
11:05:19.369,-3,-7
11:05:19.380,-3.375,-9.0625
11:05:19.391,-4.625,-10.0625
11:05:19.399,-5.4375,-12.3125
11:05:19.411,-5.5,-14.2501
11:05:19.419,-7,-16.1876
11:05:19.429,-8.3125,-17.1251
11:05:19.439,-8.75,-18.6876
11:05:19.450,-9.5,-21.6876
11:05:19.460,-10.625,-23.1876
11:05:19.472,-11.375,-23.8751
11:05:19.480,-11.8125,-25.1876
11:05:19.489,-12.0625,-27.8751
11:05:19.499,-12.9375,-29.0626
11:05:19.509,-14.1876,-29.8126
11:05:19.520,-14.8751,-31.8126
11:05:19.537,-15.5626,-33.8751
11:05:19.543,-15.6876,-34.5001
11:05:19.551,-16.1251,-36.6251
11:05:19.560,-15.4376,-36.6876
11:05:19.577,-15.9376,-38.5626
11:05:19.583,-16.1251,-38.3126
11:05:19.592,-15.8126,-40.3752
11:05:19.600,-16.6251,-41.2502
11:05:19.610,-15.9376,-42.6877
11:05:19.619,-16.5626,-42.8127
11:05:19.629,-16.8751,-44.2502
11:05:19.647,-17.1876,-45.2502
11:05:19.649,-17.0626,-47.0627
11:05:19.662,-17.3126,-46.7502
11:05:19.669,-15.5001,-46.3752
11:05:19.681,-12.875,-42.0627
11:05:19.689,-8.75,-34.8751
11:05:19.699,-3.4375,-27.1251
11:05:19.709,1.625,-15.7501
11:05:19.720,7.8125,-5.3125
11:05:19.732,13.8751,5.3125
11:05:19.739,18.8126,15.7501
11:05:19.751,23.1876,24.9376
11:05:19.760,26.2501,33.3751
11:05:19.775,30.0626,39.3752
11:05:19.779,31.2501,44.1877
11:05:19.807,32.5626,48.4377
11:05:19.809,32.5626,49.4377
11:05:19.812,32.3751,50.8127
11:05:19.844,31.8126,51.0002
11:05:19.844,31.5001,51.1877
11:05:19.847,31.0626,52.8127
11:05:19.881,30.9376,52.1877
11:05:19.881,30.8751,53.6252
11:05:19.883,31.1251,54.1877
11:05:19.885,30.9376,56.1252
11:05:19.890,31.0001,57.8127
11:05:19.905,32.5626,57.6877
11:05:19.921,33.1876,59.2502
11:05:19.925,33.1876,60.5627
11:05:19.931,32.9376,60.5002
11:05:19.939,33.2501,59.6877
11:05:19.955,32.5626,58.5002
11:05:19.964,32.3126,58.0627
11:05:19.969,32.0626,56.3752
11:05:19.980,30.7501,55.4377
11:05:19.989,30.7501,55.1877
11:05:20.019,31.0001,53.6252
11:05:20.021,30.1251,53.1877
11:05:20.023,29.6251,53.2502
11:05:20.029,29.5626,51.7502
11:05:20.039,29.0001,52.4377
11:05:20.049,28.1251,50.5002
11:05:20.059,27.1876,50.1877
11:05:20.069,27.0626,49.0002
11:05:20.081,26.5001,46.9377
11:05:20.089,24.7501,45.7502
11:05:20.100,24.5001,43.1877
11:05:20.109,22.3751,41.6877
11:05:20.119,20.3751,39.6252
11:05:20.129,19.4376,36.0001
11:05:20.139,17.5626,34.0001
11:05:20.151,16.3126,30.5626
11:05:20.160,14.5001,28.5001
11:05:20.171,13.1251,25.2501
11:05:20.179,11.8125,22.0626
11:05:20.191,10.3125,20.1251
11:05:20.199,8.5625,16.2501
11:05:20.210,7.5,15.4376
11:05:20.219,6.8125,12.9375
11:05:20.231,5.4375,9.5625
11:05:20.239,3.9375,7
11:05:20.249,2.3125,6.0625
11:05:20.260,1.5625,3.25
11:05:20.270,0.4375,0.5625
11:05:20.283,-0.625,-0.75
11:05:20.291,-1.3125,-2.4375
11:05:20.300,-1.1875,-4.875
11:05:20.309,-2.5625,-6.75
11:05:20.320,-3.1875,-7.625
11:05:20.330,-3.5,-9.4375
11:05:20.339,-5.25,-11.5
11:05:20.351,-6.375,-12.8125
11:05:20.360,-6.875,-14.7501
11:05:20.369,-8.125,-16.8126
11:05:20.380,-8.6875,-17.8751
11:05:20.394,-9.6875,-18.9376
11:05:20.404,-9.875,-21.5001
11:05:20.417,-10.9375,-23.3751
11:05:20.426,-12.4375,-25.6251
11:05:20.434,-13.0625,-26.3126
11:05:20.445,-13.8751,-29.0626
11:05:20.455,-14.5001,-30.9376
11:05:20.465,-15.1876,-32.0001
11:05:20.475,-15.4376,-34.1876
11:05:20.484,-15.3751,-34.0626
11:05:20.494,-15.6876,-35.4376
11:05:20.505,-14.5626,-33.6251
11:05:20.517,-11.3125,-29.2501
11:05:20.525,-7.25,-21.7501
11:05:20.534,-1.125,-13.2501
11:05:20.546,4,-2.9375
11:05:20.554,12.9375,13.6876
11:05:20.567,18.1251,24.6251
11:05:20.574,23.2501,34.6251
11:05:20.584,26.5001,43.1877
11:05:20.595,29.3751,49.7502
11:05:20.605,31.4376,54.9377
11:05:20.617,33.3751,58.2502
11:05:20.625,33.2501,60.1252
11:05:20.635,33.8126,60.6252
11:05:20.645,33.3126,63.1252
11:05:20.655,34.1251,62.6877
11:05:20.665,33.8126,63.6877
11:05:20.674,33.6251,64.1252
11:05:20.685,34.0626,63.9377
11:05:20.696,33.3126,65.7503
11:05:20.704,33.5626,65.3752
11:05:20.714,33.5001,66.5003
11:05:20.725,33.8126,66.6253
11:05:20.734,33.3751,68.0003
11:05:20.747,33.8126,67.9378
11:05:20.755,32.1876,67.4378
11:05:20.765,32.2501,65.6253
11:05:20.774,30.1876,64.1877
11:05:20.790,29.6251,61.6252
11:05:20.796,28.4376,60.0002
11:05:20.805,27.5001,57.6252
11:05:20.816,26.0626,55.1877
11:05:20.824,24.6876,54.6252
11:05:20.874,24.0626,52.1877
11:05:20.875,22.9376,50.1252
11:05:20.889,22.3751,49.4377
11:05:20.908,21.5001,47.0627
11:05:20.908,20.1251,46.4377
11:05:20.908,19.2501,43.8752
11:05:20.909,16.9376,42.5627
11:05:20.924,16.2501,40.2502
11:05:20.925,14.5626,37.8751
11:05:20.929,11.6875,35.5001
11:05:20.941,10.1875,31.2501
11:05:20.949,7.125,28.5001
11:05:20.960,5.875,25.2501
11:05:20.969,3.75,21.1876
11:05:20.979,0.8125,17.6876
11:05:20.990,-1,13.8751
11:05:21.022,-5.125,8.75
11:05:21.025,-6.75,5.875
11:05:21.027,-8.625,1.8125
11:05:21.029,-10.5625,-0.4375
11:05:21.060,-12.5,-3.3125
11:05:21.061,-14.2501,-6.625
11:05:21.066,-16.8751,-8.9375
11:05:21.069,-19.0001,-11.9375
11:05:21.097,-21.7501,-15.6876
11:05:21.100,-26.1251,-19.1251
11:05:21.102,-28.2501,-22.0001
11:05:21.135,-32.3751,-25.6251
11:05:21.137,-37.0626,-29.3126
11:05:21.140,-39.8752,-30.8126
11:05:21.146,-42.6877,-33.6876
11:05:21.149,-48.1877,-36.3751
11:05:21.164,-54.9377,-38.8751
11:05:21.169,-63.5002,-46.0627
11:05:21.180,-71.1878,-51.8752
11:05:21.189,-79.0628,-55.5627
11:05:21.199,-87.1878,-61.5627
11:05:21.210,-95.4379,-66.1253
11:05:21.220,-103.8754,-71.7503
