timestamp,Red,IR
13:47:11.153,1.9375,2.5625
13:47:11.156,0.5,-0.0625
13:47:11.159,1875,-11.125
13:47:11.159,-4.9375,-13.1876
13:47:11.169,-6.5625,-16.5626
13:47:11.207,-8.375,-20.4376
13:47:11.209,-9.375,-23.6876
13:47:11.212,-10.625,-26.0626
13:47:11.216,-11.5,-29.0626
13:47:11.219,-12.9375,-32.2501
13:47:11.226,-14.2501,-34.8751
13:47:11.239,-14.9376,-37.1251
13:47:11.247,-15.8126,-40.5002
13:47:11.255,-17.4376,-42.6877
13:47:11.267,-17.7501,-44.9377
13:47:11.275,-18.8126,-47.8127
13:47:11.287,-19.5001,-49.8127
13:47:11.297,-21.0626,-52.1877
13:47:11.308,-21.4376,-55.0627
13:47:11.316,-22.6876,-57.3127
13:47:11.326,-23.2501,-59.7502
13:47:11.336,-23.7501,-61.7502
13:47:11.346,-25.5626,-62.9377
13:47:11.357,-25.9376,-66.3753
13:47:11.368,-26.1251,-68.1253
13:47:11.376,-27.6876,-70.0003
13:47:11.387,-28.3751,-72.8128
13:47:11.396,-29.1876,-74.5003
13:47:11.408,-29.8751,-77.1253
13:47:11.418,-30.1876,-77.9378
13:47:11.427,-31.2501,-80.0628
13:47:11.437,-31.9376,-81.8128
13:47:11.447,-32.9376,-83.6878
13:47:11.458,-33.3126,-87.1253
13:47:11.467,-34.5001,-87.7503
13:47:11.486,-35.0626,-90.7504
13:47:11.492,-34.6876,-92.0629
13:47:11.507,-35.9376,-92.8129
13:47:11.510,-35.0626,-92.5004
13:47:11.519,-32.3751,-89.0003
13:47:11.527,-28.8126,-81.8753
13:47:11.536,-22.1251,-71.6878
13:47:11.547,-12.8125,-55.3127
13:47:11.558,-3.25,-36.1251
13:47:11.567,6.1875,-16.8751
13:47:11.577,14.8751,0.9375
13:47:11.585,20.5001,16.5001
13:47:11.596,26.6876,28.6876
13:47:11.607,30.5626,39.6877
13:47:11.616,33.0001,48.4377
13:47:11.627,37.1876,56.0002
13:47:11.636,38.9376,62.5002
13:47:11.646,39.9377,67.3128
13:47:11.657,42.3752,73.2503
13:47:11.666,43.5627,76.6253
13:47:11.676,44.8752,81.9378
13:47:11.687,45.9377,85.3128
13:47:11.696,47.9377,90.2503
13:47:11.720,48.0627,94.6254
13:47:11.722,49.3127,96.6254
13:47:11.752,49.8127,99.8754
13:47:11.758,50.0002,102.1254
13:47:11.760,50.4377,104.7504
13:47:11.761,49.8752,105.5629
13:47:11.767,49.1877,105.6879
13:47:11.804,47.3752,102.8754
13:47:11.805,45.3127,100.1254
13:47:11.808,42.1252,94.5629
13:47:11.811,38.4376,89.1878
13:47:11.819,35.0001,82.6253
13:47:11.854,31.8126,75.3753
13:47:11.857,28.1251,70.5003
13:47:11.858,26.3126,64.5627
13:47:11.867,24.6876,61.0002
13:47:11.867,23.7501,57.1877
13:47:11.893,21.4376,53.5627
13:47:11.895,20.9376,51.2502
13:47:11.898,20.3126,48.3127
13:47:11.907,19.3126,45.8752
13:47:11.919,17.4376,42.8127
13:47:11.928,16.1876,40.1877
13:47:11.936,13.6876,37.1876
13:47:11.947,13.2501,32.9376
13:47:11.957,11.0625,29.8126
13:47:11.967,9.5,25.9376
13:47:11.976,7.3125,21.6251
13:47:11.987,5.25,18.4376
13:47:11.997,3.25,13.3751
13:47:12.007,1.3125,9.5
13:47:12.017,-0.8125,5.375
13:47:12.027,-2.625,1
13:47:12.036,-5.1875,-2.3125
13:47:12.048,-6.5,-6.625
13:47:12.057,-8.1875,-10.6875
13:47:12.066,-10.375,-14.2501
13:47:12.076,-12.125,-18.9376
13:47:12.087,-13.9376,-20.8126
13:47:12.097,-15.1876,-25.6876
13:47:12.107,-16.3126,-28.9376
13:47:12.116,-17.2501,-31.3751
13:47:12.127,-18.6251,-34.7501
13:47:12.136,-19.7501,-37.0626
13:47:12.147,-21.1251,-39.4377
13:47:12.157,-22.0626,-43.3752
13:47:12.168,-23.1876,-45.9377
13:47:12.177,-24.1251,-48.5627
13:47:12.186,-25.5626,-50.2502
13:47:12.197,-25.8751,-53.8127
13:47:12.208,-27.1876,-54.8127
13:47:12.219,-27.8126,-58.7502
13:47:12.227,-28.5001,-61.1252
13:47:12.237,-30.1251,-63.2502
13:47:12.247,-29.8126,-65.6252
13:47:12.257,-31.1251,-67.0628
13:47:12.268,-31.6876,-69.8128
13:47:12.277,-32.1251,-71.8128
13:47:12.286,-33.6251,-72.9378
13:47:12.299,-33.6876,-75.5628
13:47:12.319,-34.0626,-78.0003
13:47:12.320,-35.5001,-80.8753
13:47:12.330,-36.1251,-82.4378
13:47:12.337,-36.3751,-82.9378
13:47:12.352,-36.8751,-85.8753
13:47:12.359,-37.1876,-86.8128
13:47:12.367,-37.8751,-89.2503
13:47:12.377,-38.0626,-90.4378
13:47:12.386,-38.8126,-91.0629
13:47:12.397,-39.3752,-94.0004
13:47:12.407,-38.8751,-95.3754
13:47:12.418,-40.4377,-97.5629
13:47:12.427,-41.3127,-99.3754
13:47:12.438,-42.0002,-100.1879
13:47:12.448,-42.1252,-103.1879
13:47:12.457,-41.8127,-103.0629
13:47:12.477,-42.3127,-102.7504
13:47:12.479,-40.3752,-101.5629
13:47:12.515,-36.2501,-94.1879
13:47:12.516,-29.8126,-85.2503
13:47:12.518,-21.5626,-68.3753
13:47:12.522,-10.375,-49.7502
13:47:12.527,0.4375,-28.0001
13:47:12.565,8.6875,-8.5625
13:47:12.568,16.5626,7.3125
13:47:12.571,22.4376,22.5626
13:47:12.575,27.0001,32.6876
13:47:12.577,30.7501,42.9377
13:47:12.605,33.5001,51.1877
13:47:12.608,36.2501,57.5002
13:47:12.610,38.5626,64.6877
13:47:12.640,40.7502,70.1878
13:47:12.642,43.5002,76.5003
13:47:12.645,44.1877,81.8128
13:47:12.650,46.3127,86.4378
13:47:12.656,47.9377,92.3754
13:47:12.670,49.3752,96.1254
13:47:12.677,50.7502,101.2504
13:47:12.687,51.9377,105.6254
13:47:12.697,53.1877,109.6879
13:47:12.706,53.5627,112.4379
13:47:12.717,53.6252,114.8129
13:47:12.727,53.2502,115.1879
13:47:12.737,52.4377,116.1879
13:47:12.747,51.3752,113.4379
13:47:12.756,48.8127,111.0004
13:47:12.767,45.9377,106.5004
13:47:12.776,41.6252,100.8129
13:47:12.794,38.5001,95.0629
13:47:12.802,35.5001,89.0628
13:47:12.812,32.9376,82.1878
13:47:12.817,30.8751,77.1878
13:47:12.832,28.3126,73.1878
13:47:12.835,26.8126,68.8753
13:47:12.847,25.2501,64.0627
13:47:12.856,23.6876,62.1877
13:47:12.867,22.5626,58.3127
13:47:12.878,21.5001,56.6252
13:47:12.888,19.9376,52.5002
13:47:12.897,18.1251,50.1252
13:47:12.907,17.0001,46.0002
13:47:12.917,14.8751,43.7502
13:47:12.927,13.2501,39.1876
13:47:12.937,12,36.0626
13:47:12.947,9.9375,32.1251
13:47:12.957,8.6875,29.1251
13:47:12.967,5.875,24.6251
13:47:12.977,4.1875,20.6876
13:47:12.988,2.5,16.5001
13:47:12.998,0.75,12.4375
13:47:13.008,-1.5,8.5
13:47:13.017,-2.4375,4.5
13:47:13.027,-4.625,0.875
13:47:13.037,-6.75,-2.1875
13:47:13.047,-7.3125,-5.6875
13:47:13.058,-8.8125,-9.0625
13:47:13.067,-11.8125,-11.6875
13:47:13.078,-12.375,-16.3126
13:47:13.087,-14.8126,-19.5001
13:47:13.097,-15.7501,-23.1876
13:47:13.107,-16.8751,-26.7501
13:47:13.117,-17.6876,-29.6876
13:47:13.127,-19.5001,-33.3126
13:47:13.166,-20.5001,-36.5001
13:47:13.168,-21.6251,-39.0627
13:47:13.171,-22.0001,-41.3752
13:47:13.173,-22.7501,-43.5002
13:47:13.179,-24.4376,-46.0002
13:47:13.207,-24.2501,-48.1252
13:47:13.209,-26.3126,-51.4377
13:47:13.212,-26.4376,-53.9377
13:47:13.251,-27.0626,-56.0627
13:47:13.253,-29.0001,-58.6877
13:47:13.255,-28.6251,-61.0002
13:47:13.261,-30.3751,-62.1877
13:47:13.263,-30.3751,-65.8128
13:47:13.274,-31.1251,-66.9378
13:47:13.311,-31.6251,-69.8753
13:47:13.312,-31.8126,-72.1878
13:47:13.314,-33.5626,-74.6253
13:47:13.317,-33.1876,-76.1878
13:47:13.323,-34.1876,-78.0628
13:47:13.334,-34.9376,-79.5628
13:47:13.342,-35.6876,-81.9378
13:47:13.351,-35.6876,-84.1253
13:47:13.361,-36.3751,-84.9378
13:47:13.372,-36.8751,-86.9378
13:47:13.383,-38.9376,-90.5004
13:47:13.391,-38.7501,-93.0004
13:47:13.402,-38.8126,-94.0004
13:47:13.412,-39.2502,-95.4379
13:47:13.422,-40.0627,-98.1254
13:47:13.431,-40.0002,-98.7504
13:47:13.441,-40.6252,-100.3754
13:47:13.452,-40.2502,-100.0629
13:47:13.462,-38.3126,-98.4379
13:47:13.472,-35.6876,-93.6254
13:47:13.484,-29.8751,-85.1878
13:47:13.493,-21.8126,-71.6253
13:47:13.502,-12.125,-52.1252
13:47:13.512,-1.625,-32.3126
13:47:13.522,7.75,-12.5625
13:47:13.532,15.1251,5.9375
13:47:13.543,21.6251,19.1876
13:47:13.552,27.6251,31.9376
13:47:13.563,30.7501,42.9377
13:47:13.572,33.5626,50.1252
13:47:13.581,36.3751,58.3127
13:47:13.593,38.5001,64.5002
13:47:13.603,40.6877,70.0628
13:47:13.612,42.8752,76.1253
13:47:13.623,44.1252,81.7503
13:47:13.632,45.8127,85.9378
13:47:13.649,47.9377,91.3129
13:47:13.663,48.5627,96.7504
13:47:13.681,50.3127,100.9379
13:47:13.686,52.2502,105.6254
13:47:13.697,52.1252,109.2504
13:47:13.699,52.8752,112.0629
13:47:13.704,53.3127,115.6879
13:47:13.712,54.0002,117.1255
13:47:13.722,53.1252,116.7504
13:47:13.732,51.7502,117.1879
13:47:13.743,49.5627,114.3754
13:47:13.752,46.8752,110.5629
13:47:13.762,43.8752,104.1879
13:47:13.772,40.1877,98.7504
13:47:13.782,37.2501,91.4379
13:47:13.797,34.7501,86.6878
13:47:13.802,32.2501,80.1253
13:47:13.813,29.7501,75.9378
13:47:13.822,28.1876,71.5003
13:47:13.832,27.1251,68.6878
13:47:13.842,25.5001,65.9378
13:47:13.852,24.5001,64.1252
13:47:13.862,23.6876,60.0002
13:47:13.880,22.6251,57.6877
13:47:13.882,21.3751,55.0627
13:47:13.909,20.1251,52.2502
13:47:13.912,18.5626,48.8752
13:47:13.916,16.7501,44.8752
13:47:13.922,14.5626,41.0002
13:47:13.948,12.6875,37.0001
13:47:13.951,10.9375,33.0626
13:47:13.953,8.25,29.5001
13:47:13.979,7,24.5626
13:47:13.982,4.375,21.0626
13:47:13.986,3.0625,16.5001
13:47:14.018,0.9375,14.0001
13:47:14.020,-0.5625,8.9375
13:47:14.022,-2.6875,6.0625
13:47:14.030,-3.625,0.9375
13:47:14.045,-5.8125,-1.75
13:47:14.046,-7.25,-5.5625
13:47:14.052,-8.875,-10.5625
13:47:14.062,-10.75,-13.3126
13:47:14.072,-12.1875,-17.3751
13:47:14.082,-13.125,-20.3751
13:47:14.092,-14.7501,-23.6251
13:47:14.103,-16.7501,-26.5626
13:47:14.119,-18.3126,-29.6876
13:47:14.126,-19.3126,-33.5626
13:47:14.135,-21.1876,-36.6876
13:47:14.142,-22.5001,-40.4377
13:47:14.158,-24.1251,-43.9377
13:47:14.166,-25.5626,-46.3752
13:47:14.177,-27.1876,-50.6877
13:47:14.182,-27.6876,-52.4377
13:47:14.192,-29.3126,-55.8752
13:47:14.202,-30.1876,-57.7502
13:47:14.212,-30.8751,-60.3752
13:47:14.222,-31.7501,-63.6252
13:47:14.232,-31.2501,-64.8127
13:47:14.242,-33.3751,-67.2503
13:47:14.254,-33.5001,-69.2503
13:47:14.262,-34.1876,-72.2503
13:47:14.272,-35.1251,-73.8128
13:47:14.282,-35.3126,-76.1253
13:47:14.292,-36.3126,-77.9378
13:47:14.301,-36.0626,-79.6878
13:47:14.312,-37.8126,-81.4378
13:47:14.321,-37.8126,-83.2503
13:47:14.332,-38.5001,-85.8128
13:47:14.342,-39.2501,-86.6253
13:47:14.353,-38.8126,-88.6878
13:47:14.364,-40.5002,-90.3754
13:47:14.371,-40.6877,-93.9379
13:47:14.382,-41.6877,-94.7504
13:47:14.393,-41.3752,-97.0629
13:47:14.402,-42.4377,-97.5629
13:47:14.412,-42.0627,-100.2504
13:47:14.441,-42.9377,-100.1254
13:47:14.442,-40.7502,-99.8754
13:47:14.446,-38.6876,-94.8129
13:47:14.454,-33.3751,-88.5003
13:47:14.462,-26.1876,-76.3128
13:47:14.472,-18.3751,-60.5627
13:47:14.483,-8.4375,-42.3127
13:47:14.492,1,-22.9376
13:47:14.501,8.4375,-6.0625
13:47:14.512,15.3126,8.5625
13:47:14.521,20.2501,20.9376
13:47:14.532,23.9376,30.2501
13:47:14.542,27.5626,39.0627
13:47:14.553,30.1251,47.2502
13:47:14.562,32.0626,52.5627
13:47:14.571,33.5001,57.5002
13:47:14.582,35.8751,63.0002
13:47:14.592,36.5626,67.2503
13:47:14.601,38.8126,72.1878
13:47:14.612,38.9376,77.2503
13:47:14.622,40.2502,79.1253
13:47:14.632,42.1877,84.0003
13:47:14.644,42.5627,87.9378
13:47:14.675,43.5627,91.1879
13:47:14.677,44.0627,93.4379
13:47:14.680,43.8127,95.0004
13:47:14.682,43.6252,96.6254
13:47:14.714,42.5002,95.2504
13:47:14.716,40.8127,94.3129
13:47:14.718,38.1876,89.0003
13:47:14.729,35.4376,85.6878
13:47:14.759,32.0626,78.5628
13:47:14.761,29.1251,73.7503
13:47:14.765,26.3126,67.5628
13:47:14.772,24.1251,63.6252
13:47:14.796,22.2501,58.3752
13:47:14.798,20.9376,56.3127
13:47:14.801,19.5626,52.7502
13:47:14.827,18.5001,51.1252
13:47:14.827,17.8126,47.5002
13:47:14.828,16.4376,45.6252
13:47:14.835,15.6251,42.0627
13:47:14.842,14.5001,40.3127
13:47:14.853,13.5001,37.8126
13:47:14.862,12.3125,35.0001
13:47:14.872,11.125,32.6876
13:47:14.883,8.5625,29.5001
13:47:14.892,6.625,26.2501
13:47:14.902,5.125,21.2501
13:47:14.913,3.625,18.1876
13:47:14.927,2.75,14.8751
13:47:14.932,1.0625,11.1875
13:47:14.942,-1.6875,8
13:47:14.964,-2.875,5.0625
13:47:14.965,-4.125,1.1875
13:47:14.982,-6.0625,-1.4375
13:47:14.985,-7.625,-5.3125
13:47:14.997,-8.875,-8.0625
13:47:15.002,-10.8125,-12.3125
13:47:15.013,-12.3125,-14.8126
13:47:15.022,-12.6875,-17.9376
13:47:15.033,-15.0626,-21.5626
13:47:15.042,-15.9376,-24.2501
13:47:15.052,-17.0001,-28.1251
13:47:15.061,-19.5001,-31.6876
13:47:15.073,-20.1876,-33.9376
13:47:15.082,-21.4376,-36.8751
13:47:15.093,-22.6876,-39.0626
13:47:15.104,-23.6251,-41.8752
13:47:15.111,-24.3751,-44.1252
13:47:15.122,-26.0001,-46.0627
13:47:15.134,-26.4376,-49.2502
13:47:15.144,-27.6876,-51.9377
13:47:15.154,-28.5001,-53.2502
13:47:15.163,-29.1876,-56.1252
13:47:15.172,-30.0001,-57.6252
13:47:15.182,-30.4376,-60.2502
13:47:15.194,-31.3751,-62.1877
13:47:15.202,-32.0626,-64.1877
13:47:15.213,-33.0626,-65.9378
13:47:15.223,-33.4376,-68.3128
13:47:15.232,-34.5001,-70.8753
13:47:15.242,-35.1251,-72.2503
13:47:15.254,-35.6876,-74.0003
13:47:15.262,-36.6876,-76.5003
13:47:15.274,-37.2501,-78.3128
13:47:15.284,-37.8126,-79.8753
13:47:15.294,-39.3751,-83.0628
13:47:15.302,-39.0627,-84.6878
13:47:15.313,-39.1251,-86.0003
13:47:15.323,-40.1252,-87.9378
13:47:15.332,-40.5627,-89.8753
13:47:15.368,-40.8127,-89.6253
13:47:15.369,-39.6877,-89.4378
13:47:15.372,-37.0626,-85.6878
13:47:15.377,-33.0626,-78.8753
13:47:15.414,-26.0001,-69.2503
13:47:15.414,-17.1251,-53.4377
13:47:15.418,-8.875,-34.6876
13:47:15.419,-0.1875,-18.1251
13:47:15.425,8.1875,-0.3125
13:47:15.445,13.9376,14.3126
13:47:15.472,19.0001,25.8126
13:47:15.504,22.9376,37.7501
13:47:15.506,26.6876,45.6877
13:47:15.509,29.1876,53.6877
13:47:15.514,31.5001,59.5002
13:47:15.517,33.3751,65.4378
13:47:15.517,34.7501,71.1253
13:47:15.524,37.3126,76.1253
13:47:15.533,37.9376,80.3753
13:47:15.542,40.4377,85.1878
13:47:15.554,40.7502,89.3753
13:47:15.562,42.0627,92.6254
13:47:15.572,43.6252,97.6254
13:47:15.584,44.1877,101.5629
13:47:15.592,44.5002,102.9379
13:47:15.601,44.6877,106.3754
13:47:15.613,44.3127,106.3129
13:47:15.623,43.0627,107.1879
13:47:15.632,41.6877,106.0629
13:47:15.643,39.6252,102.3129
13:47:15.651,36.5626,98.1254
13:47:15.662,32.2501,92.1254
13:47:15.677,28.0626,83.8128
13:47:15.683,24.9376,76.5628
13:47:15.693,21.3751,71.1878
13:47:15.721,20.4376,67.3128
13:47:15.724,17.7501,63.6252
13:47:15.725,16.8751,59.3127
13:47:15.733,15.1251,56.4377
13:47:15.743,13.8126,54.1877
13:47:15.753,13.2501,51.5002
13:47:15.763,11.9375,48.2502
13:47:15.773,9.5625,44.8127
13:47:15.784,8.3125,41.6252
13:47:15.793,6.75,38.8751
13:47:15.803,5,35.8126
13:47:15.813,3.6875,31.7501
13:47:15.824,1.625,28.2501
13:47:15.833,-0.4375,24.3751
13:47:15.843,-1.75,20.0626
13:47:15.853,-3.875,16.8751
13:47:15.863,-5.3125,13.5626
13:47:15.874,-7.1875,10.0625
13:47:15.884,-8.5625,5.8125
13:47:15.893,-10.9375,1.5625
13:47:15.903,-11.9375,-1.5
13:47:15.914,-13.9376,-4.75
13:47:15.924,-15.1251,-8.3125
13:47:15.933,-16.1251,-11.8125
13:47:15.943,-18.1251,-14.5001
13:47:15.953,-19.2501,-18.3751
13:47:15.963,-20.8751,-21.1251
13:47:15.973,-22.1876,-24.6876
13:47:15.983,-23.3751,-28.0626
13:47:15.993,-24.3751,-29.8751
13:47:16.003,-25.6251,-35.0001
13:47:16.013,-27.2501,-36.6876
13:47:16.023,-28.3126,-41.0627
13:47:16.034,-29.5626,-42.9377
13:47:16.043,-30.3126,-46.5627
13:47:16.051,-31.3126,-47.8752
13:47:16.063,-32.5001,-50.9377
13:47:16.073,-32.8751,-53.6877
13:47:16.104,-34.3126,-55.5002
13:47:16.107,-34.5626,-59.6252
13:47:16.109,-35.1876,-60.9377
13:47:16.114,-36.2501,-64.3752
13:47:16.147,-36.1251,-65.4378
13:47:16.150,-37.5626,-67.8128
13:47:16.154,-38.3126,-70.1878
13:47:16.177,-38.2501,-71.4378
13:47:16.178,-39.1251,-74.0003
13:47:16.181,-38.8126,-75.1878
13:47:16.186,-40.0627,-76.6253
13:47:16.198,-40.1877,-79.9378
13:47:16.203,-41.0627,-81.5003
13:47:16.233,-41.4377,-83.2503
13:47:16.236,-41.6877,-85.0628
13:47:16.238,-43.0627,-87.4378
13:47:16.243,-42.8752,-89.5628
13:47:16.266,-43.1252,-90.5003
13:47:16.268,-44.2502,-91.8754
13:47:16.285,-43.8127,-94.2504
13:47:16.287,-43.5627,-95.0629
13:47:16.301,-45.0627,-97.0629
13:47:16.303,-44.5627,-98.0629
13:47:16.313,-45.1252,-98.6254
13:47:16.323,-42.0627,-96.2504
13:47:16.333,-39.6252,-91.2504
13:47:16.343,-33.6876,-82.4378
13:47:16.353,-26.0626,-68.0003
13:47:16.363,-16.1251,-51.1252
13:47:16.373,-5.8125,-30.8751
13:47:16.383,3.6875,-10.375
13:47:16.393,10.75,6.375
13:47:16.403,16.9376,20.8126
13:47:16.413,22.8751,33.8751
13:47:16.424,26.9376,44.8127
13:47:16.435,30.7501,54.1252
13:47:16.443,32.5001,61.9377
13:47:16.453,35.3751,68.6878
13:47:16.463,37.1251,76.5003
13:47:16.473,39.6877,81.7503
13:47:16.483,42.8752,88.5628
13:47:16.493,43.6252,94.3754
13:47:16.504,46.0627,100.1879
13:47:16.513,48.0627,106.8129
13:47:16.523,49.5627,111.0629
13:47:16.533,50.7502,117.0004
13:47:16.543,51.1252,121.7505
13:47:16.553,52.8127,124.2505
13:47:16.563,52.6252,128.0005
13:47:16.573,52.0627,130.1255
13:47:16.584,51.3752,130.0005
13:47:16.593,50.3752,129.313
13:47:16.603,48.0627,126.8755
13:47:16.612,44.7502,123.063
13:47:16.623,41.2502,117.313
13:47:16.633,37.6876,110.6254
13:47:16.643,33.5001,104.2504
13:47:16.653,30.0001,97.8754
13:47:16.663,27.1876,91.4379
13:47:16.673,24.5001,85.4378
13:47:16.683,21.9376,81.6878
13:47:16.695,20.1876,77.0628
13:47:16.703,18.8126,73.5628
13:47:16.713,17.8126,70.2503
13:47:16.723,16.2501,67.0003
13:47:16.733,15.3751,64.6877
13:47:16.743,13.6251,61.4377
13:47:16.763,12.0625,58.7502
13:47:16.770,10.4375,55.9377
13:47:16.777,9.125,51.6252
13:47:16.783,7.0625,48.0002
13:47:16.804,4.75,44.1877
13:47:16.807,2.625,39.5002
13:47:16.815,0.75,35.1251
13:47:16.823,-1.75,30.8751
13:47:16.852,-3.3125,26.6251
13:47:16.854,-4.875,23.0626
13:47:16.857,-6,19.7501
13:47:16.863,-8.375,14.6251
13:47:16.889,-10,10.6875
13:47:16.892,-11.125,7.125
13:47:16.895,-12.9375,3.5625
13:47:16.927,-13.7501,0.375
13:47:16.930,-15.9376,-3.6875
13:47:16.934,-17.8126,-7.125
13:47:16.936,-19.4376,-10.8125
13:47:16.965,-20.8751,-15.8751
13:47:16.969,-21.9376,-18.3126
13:47:16.970,-22.5626,-22.0626
13:47:17.002,-24.0626,-25.0626
13:47:17.002,-24.3126,-28.3751
13:47:17.005,-26.0626,-31.9376
13:47:17.013,-27.6251,-33.8126
13:47:17.014,-27.6251,-37.5626
13:47:17.024,-29.1876,-40.1877
13:47:17.033,-29.4376,-43.6877
13:47:17.043,-30.7501,-44.9377
13:47:17.053,-31.3126,-48.7502
13:47:17.063,-31.6876,-50.8752
13:47:17.073,-33.0001,-54.1252
13:47:17.083,-33.0001,-55.8127
13:47:17.094,-34.5001,-58.3127
13:47:17.103,-35.2501,-61.6877
13:47:17.113,-36.5626,-63.0002
13:47:17.124,-37.1251,-66.6253
13:47:17.133,-37.1251,-67.5628
13:47:17.143,-38.1251,-69.5003
13:47:17.153,-38.3751,-72.8753
13:47:17.163,-39.0001,-73.9378
13:47:17.178,-39.1876,-76.6878
13:47:17.184,-39.9377,-77.8128
13:47:17.194,-40.0627,-80.4378
13:47:17.203,-41.1252,-84.1253
13:47:17.213,-41.3127,-84.8753
13:47:17.223,-42.2502,-87.8128
13:47:17.238,-42.3127,-89.0628
13:47:17.249,-43.1877,-91.0004
13:47:17.258,-43.8127,-94.9379
13:47:17.268,-43.5627,-96.2504
13:47:17.278,-44.6877,-97.8129
13:47:17.288,-45.0627,-100.3754
13:47:17.298,-45.4377,-101.6254
13:47:17.308,-45.8752,-104.6254
13:47:17.318,-45.1877,-103.3129
13:47:17.328,-44.1252,-100.3129
13:47:17.338,-39.5627,-97.4379
13:47:17.348,-34.4376,-87.2503
13:47:17.358,-26.5626,-74.1878
13:47:17.369,-16.4376,-56.5627
13:47:17.379,-7.4375,-37.4376
13:47:17.388,1.1875,-19.8126
13:47:17.398,11.5,5.5625
13:47:17.408,17.8126,18.7501
13:47:17.418,21.0626,30.5626
13:47:17.428,25.5626,39.3752
13:47:17.438,27.9376,47.5627
13:47:17.449,30.2501,54.0002
13:47:17.459,32.7501,61.1877
13:47:17.468,33.9376,66.1253
13:47:17.478,36.5626,72.1878
13:47:17.490,37.0001,77.7503
13:47:17.499,39.2502,81.6878
13:47:17.509,39.2502,86.0628
13:47:17.518,39.9377,88.8753
13:47:17.528,40.6252,92.4379
13:47:17.538,40.9377,96.0004
13:47:17.553,40.1877,97.0629
13:47:17.568,39.3127,100.5004
13:47:17.570,38.7501,100.7504
13:47:17.607,37.5626,100.6879
13:47:17.646,35.0001,99.8129
13:47:17.649,31.5001,96.5629
13:47:17.650,28.4376,92.5004
13:47:17.657,23.8126,86.2503
13:47:17.657,19.5626,79.6878
13:47:17.657,14.8751,71.3128
13:47:17.673,11.1875,65.0002
13:47:17.675,7,58.3127
13:47:17.683,4.125,52.6252
13:47:17.719,1.8125,47.2502
13:47:17.720,0,43.3752
13:47:17.723,-1.5,39.6252
13:47:17.725,-2.9375,37.0001
13:47:17.761,-4.5,34.1876
13:47:17.764,-5,31.5626
13:47:17.766,-7.1875,28.6251
13:47:17.768,-8.875,25.8126
13:47:17.777,-10.25,22.5001
13:47:17.783,-11.5625,18.6876
13:47:17.793,-13.5626,15.5001
13:47:17.803,-15.2501,11.0625
13:47:17.813,-17.1251,7.5
13:47:17.823,-21.5001,-2
13:47:17.833,-23.1876,-4.5625
13:47:17.844,-25.1876,-8.375
13:47:17.853,-27.0001,-12.9375
13:47:17.863,-28.6251,-16.4376
13:47:17.873,-29.5626,-20.1251
13:47:17.883,-30.8126,-23.8126
13:47:17.893,-31.5626,-27.4376
13:47:17.903,-33.8751,-30.0001
13:47:17.914,-34.5001,-33.9376
13:47:17.925,-35.5626,-35.8751
13:47:17.935,-36.5001,-40.1877
13:47:17.943,-37.1876,-43.3752
13:47:17.953,-39.0001,-47.1252
13:47:17.964,-40.3752,-49.3127
13:47:17.973,-40.6877,-53.3127
13:47:17.985,-41.3752,-55.9377
13:47:17.993,-42.7502,-58.6252
13:47:18.003,-42.9377,-61.5002
13:47:18.014,-43.6877,-63.6252
13:47:18.023,-44.9377,-66.9378
13:47:18.033,-45.0627,-69.1253
13:47:18.044,-45.9377,-72.4378
13:47:18.053,-46.1252,-73.6878
13:47:18.063,-47.2502,-75.1253
13:47:18.073,-48.0627,-78.6253
13:47:18.090,-47.9377,-81.0003
13:47:18.098,-48.8752,-83.7503
13:47:18.112,-49.1252,-85.6878
13:47:18.114,-49.8752,-87.1253
13:47:18.129,-49.7502,-89.6253
13:47:18.134,-50.1252,-89.9378
13:47:18.143,-50.5002,-93.8129
13:47:18.153,-50.7502,-94.2504
13:47:18.164,-51.7502,-96.3129
13:47:18.173,-51.4377,-99.4379
13:47:18.183,-52.1252,-100.0629
13:47:18.193,-52.0627,-102.8754
13:47:18.203,-51.8127,-103.5004
13:47:18.213,-53.1877,-105.1879
13:47:18.223,-53.6252,-106.4379
13:47:18.233,-53.3127,-108.1254
13:47:18.243,-54.3127,-110.5004
13:47:18.279,-55.1252,-111.7504
13:47:18.282,-55.3127,-113.3129
13:47:18.284,-55.2502,-116.3754
13:47:18.288,-55.0627,-116.6254
13:47:18.294,-55.9377,-118.813
13:47:18.327,-54.5002,-117.938
13:47:18.328,-53.8752,-116.0629
13:47:18.331,-50.2502,-112.4379
13:47:18.335,-45.3752,-104.0629
13:47:18.364,-37.5626,-91.5004
13:47:18.367,-28.7501,-75.5003
13:47:18.369,-19.6876,-56.3127
13:47:18.375,-10.5,-37.5626
13:47:18.409,-2.125,-20.4376
13:47:18.411,3.4375,-5.4375
13:47:18.413,8.8125,6.4375
13:47:18.417,13.6876,18.4376
13:47:18.445,16.3126,27.7501
13:47:18.446,19.0001,34.5001
13:47:18.449,21.8126,40.8752
13:47:18.454,22.6876,47.1877
13:47:18.464,24.9376,52.1877
13:47:18.473,26.0626,58.4377
13:47:18.483,28.0001,62.2502
13:47:18.493,29.8126,66.9378
13:47:18.503,30.4376,72.7503
13:47:18.513,32.3751,75.9378
13:47:18.523,32.6251,80.6878
13:47:18.533,33.3751,83.5628
13:47:18.544,34.8751,86.5628
13:47:18.553,33.6251,88.4378
13:47:18.563,34.1251,89.8753
13:47:18.573,32.1251,89.8753
13:47:18.584,31.0001,87.5628
13:47:18.593,27.6876,83.2503
13:47:18.604,24.6251,78.6253
13:47:18.613,20.8126,72.6253
13:47:18.624,18.7501,66.6253
13:47:18.633,14.4376,61.3752
13:47:18.643,12.5,54.7502
13:47:18.653,9.875,51.1877
13:47:18.663,8.4375,47.0627
13:47:18.673,6.375,43.6252
13:47:18.683,5.875,40.5002
13:47:18.693,4,37.7501
13:47:18.703,3.5,35.2501
13:47:18.713,1.9375,32.8126
13:47:18.723,1.6875,30.7501
13:47:18.733,-0.875,26.6876
13:47:18.743,-1.625,24.1251
13:47:18.753,-3.75,21.3126
13:47:18.763,-4.6875,18.5001
13:47:18.773,-7,15.1251
13:47:18.783,-7.8125,11.375
13:47:18.793,-10.1875,7.4375
13:47:18.803,-11.5625,3.75
13:47:18.816,-14.4376,0.875
13:47:18.825,-15.1876,-3.9375
13:47:18.833,-17.0001,-7.3125
13:47:18.843,-18.5626,-10.8125
13:47:18.854,-19.5626,-13.9376
13:47:18.863,-21.8126,-18.0626
13:47:18.873,-22.6876,-21.5626
13:47:18.889,-24.6251,-24.3126
13:47:18.905,-25.5626,-28.6876
13:47:18.908,-27.1251,-30.5626
13:47:18.915,-27.5626,-34.6876
13:47:18.923,-29.3126,-37.4376
13:47:18.933,-30.3126,-40.1877
13:47:18.943,-30.9376,-42.6877
13:47:18.953,-31.6251,-46.0627
13:47:18.963,-32.9376,-48.2502
13:47:18.973,-33.7501,-51.6252
13:47:18.983,-34.8751,-53.3127
13:47:18.993,-35.9376,-57.2502
13:47:19.003,-36.6251,-59.6877
13:47:19.013,-37.6251,-61.6877
13:47:19.024,-38.2501,-64.6252
13:47:19.059,-39.0627,-66.6253
13:47:19.062,-40.6252,-68.2503
13:47:19.065,-41.0627,-69.3128
13:47:19.067,-40.8752,-72.1253
13:47:19.075,-41.6252,-74.4378
13:47:19.106,-41.5002,-75.5003
13:47:19.108,-41.6252,-77.3128
13:47:19.111,-41.7502,-78.5628
13:47:19.139,-42.1877,-80.8128
13:47:19.141,-42.6877,-81.2503
13:47:19.143,-42.5627,-83.3128
13:47:19.148,-42.3127,-83.6878
13:47:19.153,-42.7502,-85.5003
13:47:19.188,-42.1877,-85.3753
13:47:19.189,-42.9377,-87.5628
13:47:19.193,-42.8127,-87.8753
13:47:19.198,-42.8752,-89.8128
13:47:19.215,-42.9377,-89.6253
13:47:19.216,-41.9377,-89.3753
13:47:19.225,-40.4377,-85.8128
13:47:19.233,-36.5626,-80.0628
13:47:19.244,-29.1876,-69.6878
13:47:19.253,-19.8751,-54.7502
13:47:19.263,-8.875,-33.5001
13:47:19.273,2.625,-10.8125
13:47:19.283,13.7501,12.4375
13:47:19.293,23.1251,33.0626
13:47:19.303,30.3751,52.8752
13:47:19.313,37.5626,68.2503
13:47:19.323,44.6252,83.5003
13:47:19.333,49.3752,97.3754
13:47:19.343,54.3752,107.5629
13:47:19.354,58.5002,118.313
13:47:19.363,61.4377,126.8755
13:47:19.374,64.9377,135.313
13:47:19.385,68.0628,145.7505
13:47:19.399,72.3753,153.7506
13:47:19.414,79.3128,167.5006
13:47:19.416,84.6253,178.8132
13:47:19.427,91.8129,191.8757
13:47:19.433,98.3129,205.9383
13:47:19.443,105.5004,219.8133
13:47:19.454,112.0004,232.8759
13:47:19.464,117.438,244.5009
13:47:19.474,122.438,253.9385
13:47:19.484,126.7505,262.9385
13:47:19.497,130.8755,269.626
13:47:19.503,134.7505,275.751
13:47:19.514,137.2505,281.1886
13:47:19.523,140.8755,284.5011
13:47:19.534,142.938,288.0011
13:47:19.560,148.5006,292.5011
13:47:19.562,153.6256,298.0011
13:47:19.564,158.4381,302.3762
13:47:19.576,161.1256,302.9387
13:47:19.593,162.8756,303.1887
13:47:19.594,164.0631,303.0637
13:47:19.604,165.2506,302.0637
13:47:19.614,165.8131,301.6887
13:47:19.624,166.0631,300.6887
13:47:19.635,165.3131,298.0636
13:47:19.644,164.6881,295.1261
13:47:19.653,163.2506,284.3761
13:47:19.664,162.6881,272.501
13:47:19.673,159.5006,267.751
13:47:19.683,158.6256,262.751
13:47:19.694,155.0631,256.876
13:47:19.727,152.7506,250.6259
13:47:19.731,148.7506,244.5634
13:47:19.735,145.313,237.8759
13:47:19.735,142.2505,229.6884
13:47:19.762,138.2505,223.3134
13:47:19.766,135.5005,214.6258
13:47:19.769,131.7505,208.0008
13:47:19.775,128.8755,200.9383
13:47:19.809,125.8755,193.3132
13:47:19.812,123.2505,186.4382
13:47:19.815,121.188,177.0632
13:47:19.819,119.938,170.0006
13:47:19.824,116.1879,161.7506
13:47:19.856,111.6254,154.3756
13:47:19.858,109.1254,148.5631
13:47:19.860,105.8129,143.688
13:47:19.863,104.2504,138.563
13:47:19.887,100.3754,133.938
13:47:19.888,98.0629,130.563
13:47:19.894,98.8754,128.8755
13:47:19.903,99.3754,127.563
13:47:19.914,99.4379,127.313
13:47:19.925,99.7504,124.938
13:47:19.935,98.8129,123.5005
13:47:19.943,98.4379,119.813
13:47:19.954,96.5004,116.2504
13:47:19.967,95.0629,112.0629
13:47:19.975,91.7504,106.5629
13:47:19.983,89.0003,101.5004
13:47:19.994,85.6878,96.7504
13:47:20.006,83.2503,91.6879
13:47:20.014,81.0003,87.7503
13:47:20.024,79.4378,83.0003
13:47:20.033,78.0628,80.6253
13:47:20.044,76.8128,76.1253
13:47:20.054,75.0628,72.6878
13:47:20.063,73.2503,67.7503
13:47:20.074,71.6878,63.1877
13:47:20.083,69.9378,58.5002
13:47:20.094,67.6253,54.3752
13:47:20.104,66.6253,49.3127
13:47:20.114,63.6252,45.3752
13:47:20.126,61.1252,41.1252
13:47:20.134,58.9377,35.4376
13:47:20.144,57.1252,33.1876
13:47:20.154,55.2502,29.4376
13:47:20.165,52.8127,25.5001
13:47:20.177,51.1252,22.5001
13:47:20.191,51.0002,21.5001
13:47:20.194,51.7502,23.4376
13:47:20.209,54.6252,28.0626
13:47:20.216,59.9377,38.6876
13:47:20.224,66.9378,52.5627
13:47:20.234,73.7503,68.9378
13:47:20.243,80.5003,85.1253
13:47:20.254,86.3128,99.1254
13:47:20.263,90.1253,112.3754
13:47:20.274,93.8754,122.313
13:47:20.284,96.0629,132.2505
13:47:20.294,99.1879,138.813
13:47:20.307,101.3754,147.188
13:47:20.315,104.1254,153.2506
13:47:20.325,105.5629,160.6881
13:47:20.334,107.2504,165.6881
13:47:20.348,108.5629,171.5632
13:47:20.354,110.5629,177.0632
13:47:20.366,111.8754,182.1882
13:47:20.375,112.7504,188.1882
13:47:20.385,114.6879,192.6882
13:47:20.396,115.1254,197.1882
13:47:20.404,116.8129,201.5633
13:47:20.413,117.688,205.3758
13:47:20.423,118.3755,208.1258
13:47:20.434,118.688,209.5633
13:47:20.443,118.188,211.3758
13:47:20.455,117.6255,212.4383
13:47:20.486,116.1254,209.2508
13:47:20.487,112.3754,204.9383
13:47:20.489,109.5629,199.6258
13:47:20.494,106.3129,193.7507
13:47:20.525,102.8754,187.0007
13:47:20.528,98.6879,179.6882
13:47:20.529,94.8129,172.8757
13:47:20.534,91.1879,166.1881
13:47:20.570,88.8128,160.7506
13:47:20.572,87.1253,156.2506
13:47:20.577,84.5003,150.9381
13:47:20.606,83.0628,147.1255
13:47:20.607,81.8753,144.6255
13:47:20.609,80.3753,141.3755
13:47:20.615,78.5628,138.6255
13:47:20.618,77.1878,134.2505
13:47:20.629,74.8128,130.813
13:47:20.634,73.1253,127.6255
13:47:20.644,71.0628,122.438
13:47:20.654,69.0003,118.688
13:47:20.665,67.3128,113.7504
13:47:20.674,64.5627,109.6879
13:47:20.684,61.6252,105.1879
13:47:20.701,59.4377,99.8129
13:47:20.707,57.0627,96.0629
13:47:20.723,55.6252,91.8129
13:47:20.725,52.7502,86.6878
13:47:20.735,50.8127,81.9378
13:47:20.744,48.2502,76.8128
13:47:20.756,45.6252,71.8128
13:47:20.765,42.8127,67.2503
13:47:20.774,41.1252,62.1252
13:47:20.785,38.5001,57.8752
13:47:20.794,37.4376,54.3752
13:47:20.805,35.1876,49.6252
13:47:20.814,33.5001,45.3752
13:47:20.840,32.0626,40.6877
13:47:20.842,30.3126,36.6251
13:47:20.846,29.5626,33.1876
13:47:20.856,29.4376,30.4376
13:47:20.865,27.4376,27.3126
13:47:20.874,27.5626,23.6876
13:47:20.884,26.1876,21.6876
13:47:20.894,24.4376,18.0626
13:47:20.905,23.0626,14.5626
13:47:20.914,22.2501,10.1875
13:47:20.924,20.6251,7.1875
13:47:20.935,20.8126,4.875
13:47:20.945,19.8751,0.9375
13:47:20.955,18.4376,-2.6875
13:47:20.964,17.5001,-6.5625
13:47:20.975,15.0626,-10.9375
13:47:20.986,13.8126,-14.4376
13:47:20.996,12.25,-17.8751
13:47:21.005,10.6875,-20.5001
13:47:21.015,9.75,-24.0626
13:47:21.026,9.125,-26.6876
13:47:21.035,7.6875,-29.3751
13:47:21.044,6.625,-32.6876
13:47:21.054,5.0625,-35.0001
13:47:21.065,3.9375,-37.2501
13:47:21.074,2.25,-39.3752
13:47:21.084,1.6875,-41.8752
13:47:21.098,0.625,-43.9377
13:47:21.105,1.25,-45.5002
13:47:21.115,-0.0625,-47.1252
13:47:21.124,0.3125,-48.0002
13:47:21.134,1.125,-48.1252
13:47:21.144,3.375,-46.0002
13:47:21.154,6.3125,-41.8752
13:47:21.164,12.4375,-33.0626
13:47:21.193,20.8126,-20.8751
13:47:21.195,30.8126,-1.875
13:47:21.196,41.8127,16.2501
13:47:21.230,51.0002,36.6876
13:47:21.232,60.2502,53.0002
13:47:21.235,67.0003,70.5628
13:47:21.237,73.4378,83.5003
13:47:21.267,77.6878,95.5004
13:47:21.270,81.1253,105.8754
13:47:21.272,84.6253,113.1879
13:47:21.307,86.2503,121.1255
13:47:21.310,87.5003,127.938
13:47:21.312,89.3128,132.563
13:47:21.318,89.8128,139.5005
13:47:21.319,91.0004,143.5005
13:47:21.333,91.7504,149.6256
13:47:21.340,93.1254,153.5631
13:47:21.353,93.6254,158.9381
13:47:21.360,94.7504,160.9381
13:47:21.370,94.3754,164.3756
13:47:21.379,93.8129,167.1881
13:47:21.389,93.0629,168.3131
13:47:21.400,92.1254,169.6256
13:47:21.409,90.5004,168.9381
13:47:21.419,87.2503,166.9381
13:47:21.429,84.7503,163.4381
13:47:21.439,80.6878,158.1881
13:47:21.450,78.0628,152.1881
13:47:21.459,74.0628,145.063
13:47:21.473,70.3753,138.188
13:47:21.489,67.4378,131.813
13:47:21.491,65.3127,125.8755
13:47:21.506,64.1877,122.2505
13:47:21.510,63.7502,118.438
13:47:21.519,62.1877,114.9379
13:47:21.529,61.8127,112.4379
13:47:21.540,60.6877,109.5629
13:47:21.549,60.1252,107.7504
13:47:21.559,59.0627,105.3754
13:47:21.570,57.0002,102.2504
13:47:21.579,56.1252,97.8754
13:47:21.589,54.3752,95.6879
13:47:21.599,53.6252,90.8754
13:47:21.609,51.3752,87.3128
13:47:21.619,49.4377,82.8753
13:47:21.629,47.1252,77.7503
13:47:21.639,45.5002,74.0628
13:47:21.649,43.1252,68.6253
13:47:21.661,40.2502,63.9377
13:47:21.669,38.2501,60.0002
13:47:21.679,36.0001,54.0627
13:47:21.689,32.6876,49.2502
13:47:21.699,31.4376,44.3752
13:47:21.710,28.8126,40.3127
13:47:21.719,27.0001,35.3751
13:47:21.729,24.4376,31.3751
13:47:21.739,23.0626,27.5626
13:47:21.749,21.1876,22.1876
13:47:21.759,19.0001,18.8751
13:47:21.769,16.1876,13.3126
13:47:21.779,13.5626,8.8125
13:47:21.789,11.5,4.4375
13:47:21.799,8.1875,-0.375
13:47:21.810,6.5625,-5.5
13:47:21.819,4.5,-8.9375
13:47:21.829,2.3125,-12.375
13:47:21.839,1.5,-16.0001
13:47:21.849,-0.6875,-19.3126
13:47:21.859,-2.625,-23.8751
13:47:21.869,-4.4375,-27.1876
13:47:21.879,-5.75,-30.0001
13:47:21.890,-7.4375,-32.1876
13:47:21.899,-9.1875,-34.4376
13:47:21.909,-11.125,-38.6251
13:47:21.919,-12.625,-41.4377
13:47:21.929,-13.6251,-43.6877
13:47:21.940,-14.3751,-45.0627
13:47:21.949,-16.1251,-48.8752
13:47:21.959,-17.5001,-53.2502
13:47:21.969,-18.9376,-57.4377
13:47:21.988,-21.6251,-62.4377
13:47:22.020,-23.3126,-66.1878
13:47:22.022,-24.0001,-69.2503
13:47:22.024,-25.3126,-71.8753
13:47:22.026,-26.3126,-75.0003
13:47:22.031,-26.5626,-78.1253
13:47:22.069,-27.8126,-78.5628
13:47:22.071,-28.9376,-83.0003
13:47:22.073,-29.5626,-85.2503
13:47:22.076,-30.3751,-85.9378
13:47:22.082,-29.8751,-88.8753
13:47:22.123,-30.6251,-88.5003
13:47:22.124,-29.4376,-89.1878
13:47:22.129,-25.8126,-86.1253
13:47:22.129,-20.8126,-79.5003
13:47:22.133,-12.25,-68.0628
13:47:22.155,-3.0625,-51.5002
13:47:22.157,9.125,-33.8751
13:47:22.160,20.5001,-12.8125
13:47:22.169,29.5626,3.5
13:47:22.179,38.1251,20.4376
13:47:22.191,46.5627,34.2501
13:47:22.200,53.5002,47.0627
13:47:22.209,59.8127,56.6252
13:47:22.225,65.5627,67.1878
13:47:22.229,70.0003,74.5003
13:47:22.241,74.3753,82.0628
13:47:22.250,77.7503,88.1253
13:47:22.259,79.8128,93.7504
13:47:22.269,82.3128,97.3754
13:47:22.279,83.5003,101.5004
13:47:22.289,84.8128,104.5004
13:47:22.300,86.7503,107.6879
13:47:22.309,87.0628,110.0004
13:47:22.320,86.6878,111.3129
13:47:22.329,85.9378,112.2504
13:47:22.340,85.5003,112.3129
13:47:22.350,83.3753,110.8754
13:47:22.359,80.3753,108.2504
13:47:22.369,76.6253,102.6879
13:47:22.381,71.6253,96.8129
13:47:22.389,64.9377,89.0628
13:47:22.400,59.0627,81.0003
13:47:22.409,51.9377,70.8128
13:47:22.419,45.5002,64.0627
13:47:22.429,40.0002,54.4377
13:47:22.440,35.1876,48.5002
13:47:22.449,30.5001,41.3752
13:47:22.459,26.7501,36.3126
13:47:22.469,23.3751,31.4376
13:47:22.479,20.2501,27.4376
13:47:22.489,17.8126,24.1251
13:47:22.500,15.4376,20.9376
13:47:22.509,13.4376,17.3751
13:47:22.519,10.5,14.0001
13:47:22.529,8.625,10.75
13:47:22.539,5.625,7.625
13:47:22.550,3.4375,4.1875
13:47:22.559,0.5625,0.375
13:47:22.569,-1.5625,-2.5625
13:47:22.579,-3.625,-6.25
13:47:22.589,-5.875,-9.375
13:47:22.603,-7.4375,-13.125
13:47:22.609,-8.125,-15.6876
13:47:22.620,-9.5,-17.1876
13:47:22.629,-9.125,-19.0626
13:47:22.640,-9.625,-20.6251
13:47:22.649,-9.5,-21.0626
13:47:22.660,-8.5625,-22.8126
13:47:22.669,-9.4375,-22.5626
13:47:22.679,-9.4375,-25.4376
13:47:22.689,-9.875,-25.7501
13:47:22.710,-9.6875,-27.5001
13:47:22.712,-11.125,-28.3751
13:47:22.721,-11.1875,-31.3751
13:47:22.753,-12.1875,-31.6876
13:47:22.755,-12,-34.0626
13:47:22.758,-12.0625,-34.7501
13:47:22.761,-12.125,-36.0001
13:47:22.788,-12,-38.1876
13:47:22.819,-12.25,-38.0626
13:47:22.822,-12.1875,-40.8752
13:47:22.825,-11.875,-42.3127
13:47:22.833,-13.3126,-41.8752
13:47:22.833,-14.3751,-44.9377
13:47:22.833,-14.7501,-47.0627
13:47:22.844,-15.4376,-48.1252
13:47:22.849,-15.8751,-51.4377
13:47:22.877,-16.4376,-52.3752
13:47:22.880,-17.8751,-53.4377
13:47:22.882,-18.7501,-56.7502
13:47:22.890,-18.3126,-58.2502
13:47:22.899,-19.6251,-60.0002
13:47:22.909,-20.0626,-61.8752
13:47:22.920,-19.9376,-62.0002
13:47:22.929,-21.3751,-63.4377
13:47:22.940,-21.8126,-66.1253
13:47:22.949,-22.6251,-67.8128
13:47:22.959,-23.3126,-70.2503
13:47:22.970,-24.3751,-72.4378
13:47:22.981,-26.2501,-74.3128
13:47:22.990,-26.3751,-76.5003
13:47:22.999,-27.6251,-77.7503
13:47:23.009,-28.7501,-80.6878
13:47:23.019,-29.3751,-81.6878
13:47:23.029,-29.3751,-81.7503
13:47:23.039,-28.3126,-78.8753
13:47:23.049,-24.5001,-74.6253
13:47:23.059,-19.9376,-64.5002
13:47:23.069,-11.9375,-53.2502
13:47:23.079,-4.3125,-36.8751
13:47:23.090,3.75,-22.0001
13:47:23.099,10.125,-8
13:47:23.109,15.3126,2.5
13:47:23.119,18.4376,12.5
13:47:23.130,21.2501,19.5626
13:47:23.140,22.0001,26.4376
13:47:23.150,23.5626,29.5001
13:47:23.160,23.2501,33.9376
13:47:23.169,24.6876,36.3751
13:47:23.179,25.0001,39.4377
13:47:23.189,26.5001,41.8127
13:47:23.199,27.6876,43.2502
13:47:23.209,26.9376,45.5627
13:47:23.219,28.1251,45.8752
13:47:23.229,28.1876,47.8127
13:47:23.239,30.1251,49.6877
13:47:23.250,30.6876,51.1877
13:47:23.260,30.9376,51.1252
13:47:23.269,31.6251,51.0002
13:47:23.279,31.0001,50.7502
13:47:23.298,30.5001,50.6252
13:47:23.304,30.0626,48.6252
13:47:23.319,28.5626,45.5627
13:47:23.322,26.9376,41.9377
13:47:23.329,24.3751,36.2501
13:47:23.339,21.1876,30.0626
13:47:23.363,18.7501,24.0001
13:47:23.368,15.0001,17.6876
13:47:23.371,13.8751,12.625
13:47:23.401,11.25,8.4375
13:47:23.402,10.375,4.5625
13:47:23.404,9.625,2.0625
13:47:23.433,8.875,-0.9375
13:47:23.434,9.8125,-1.25
13:47:23.438,9.3125,-2.9375
13:47:23.442,9.9375,-2.75
13:47:23.472,10.8125,-3.6875
13:47:23.474,10.1875,-4.0625
13:47:23.477,11.1875,-5.75
13:47:23.507,10.25,-7
13:47:23.508,10.625,-9.0625
13:47:23.511,10.3125,-9.3125
13:47:23.515,11.375,-9.9375
13:47:23.523,11.0625,-11.375
13:47:23.536,11.5,-12.0625
13:47:23.541,12.3125,-13.9376
13:47:23.549,12.0625,-14.9376
13:47:23.559,11.875,-15.6876
13:47:23.569,10.875,-19.0001
13:47:23.579,10.8125,-20.3751
13:47:23.589,10.375,-22.1876
13:47:23.601,8.6875,-23.5626
13:47:23.609,6.875,-27.5626
13:47:23.620,5.5625,-29.8126
13:47:23.630,4.5625,-32.6876
13:47:23.641,2.5625,-34.0001
13:47:23.649,0.625,-37.6876
13:47:23.661,-0.625,-40.0627
13:47:23.670,-2,-42.2502
13:47:23.679,-3.25,-44.8752
13:47:23.689,-4.6875,-46.8127
13:47:23.699,-6.25,-48.3127
13:47:23.710,-6.8125,-49.8127
13:47:23.721,-8.3125,-51.0002
13:47:23.730,-9.75,-52.5002
13:47:23.740,-11.25,-55.1252
13:47:23.749,-12.625,-56.1877
13:47:23.759,-14.0001,-58.2502
13:47:23.770,-15.1251,-60.1252
13:47:23.780,-17.0001,-62.6252
13:47:23.791,-18.2501,-64.2502
13:47:23.801,-21.0001,-66.3753
13:47:23.811,-21.5626,-68.5628
13:47:23.820,-23.8126,-70.0003
13:47:23.831,-24.8751,-71.8753
13:47:23.839,-26.0001,-74.2503
13:47:23.852,-28.3751,-75.5628
13:47:23.859,-29.0001,-77.0628
13:47:23.870,-31.3126,-78.8753
13:47:23.879,-32.5001,-79.9378
13:47:23.891,-33.1876,-82.1253
13:47:23.899,-34.7501,-83.1878
13:47:23.909,-35.3751,-84.4378
13:47:23.920,-36.4376,-86.1878
13:47:23.930,-37.3751,-86.1878
13:47:23.939,-38.8126,-89.0003
13:47:23.950,-39.4377,-89.3753
13:47:23.960,-40.3127,-92.0629
13:47:23.971,-39.8752,-92.0004
13:47:23.980,-39.1251,-91.9379
13:47:23.990,-38.0626,-89.8753
13:47:24.000,-36.6876,-89.0628
13:47:24.009,-33.1876,-83.9378
13:47:24.020,-28.3126,-77.3128
13:47:24.029,-20.3126,-65.3753
13:47:24.039,-11.875,-52.0002
13:47:24.050,-3.125,-34.8126
13:47:24.061,5.0625,-19.8751
13:47:24.081,13.2501,-4.875
13:47:24.083,20.1876,8.875
13:47:24.099,24.5001,18.5626
13:47:24.102,29.4376,27.3126
13:47:24.140,32.1876,33.4376
13:47:24.141,35.3126,37.1876
13:47:24.143,37.6251,40.8127
13:47:24.147,39.5002,45.5627
13:47:24.152,40.8127,48.9377
13:47:24.186,42.5627,50.4377
13:47:24.188,45.0627,52.7502
13:47:24.190,46.1252,55.2502
13:47:24.193,47.0627,57.6877
13:47:24.224,47.6252,59.9377
13:47:24.226,49.2502,61.2502
13:47:24.229,49.3127,62.2502
13:47:24.231,50.3752,62.5627
13:47:24.261,50.4377,63.6877
13:47:24.263,51.0002,64.1877
13:47:24.266,50.3752,63.6877
13:47:24.271,50.0627,62.1877
13:47:24.281,48.4377,59.8127
13:47:24.294,46.6252,56.5002
13:47:24.301,45.3127,53.9377
13:47:24.310,42.9377,48.0002
13:47:24.320,39.5627,44.1877
13:47:24.330,37.0001,38.1876
13:47:24.341,34.7501,33.5626
13:47:24.350,32.1876,29.5001
13:47:24.359,29.6876,26.5626
13:47:24.370,27.6876,23.6251
13:47:24.381,26.1251,19.5626
13:47:24.389,24.5001,16.8126
13:47:24.401,22.6251,15.9376
13:47:24.410,22.1251,13.125
13:47:24.421,21.5626,12.1875
13:47:24.431,21.0001,11.375
13:47:24.441,19.5001,10.3125
13:47:24.450,20.3126,9.875
13:47:24.461,20.3126,9.5
13:47:24.470,18.8751,9.875
13:47:24.481,19.1876,9.25
13:47:24.490,18.8126,9
13:47:24.501,19.3126,10
13:47:24.511,19.8126,9.375
13:47:24.520,20.3126,9.75
13:47:24.530,21.1876,10.125
13:47:24.541,21.3126,10.6875
13:47:24.552,22.0001,9.75
13:47:24.560,22.5626,7.6875
13:47:24.570,21.9376,6.75
13:47:24.580,22.0001,4.6875
13:47:24.599,22.1876,2.75
13:47:24.605,21.9376,1.875
13:47:24.620,21.6876,-1
13:47:24.623,20.8751,-3.125
13:47:24.630,19.6251,-6
13:47:24.640,18.0626,-8.375
13:47:24.650,17.0001,-11
13:47:24.680,14.8126,-14.3126
13:47:24.683,13.9376,-16.6251
13:47:24.684,13.6876,-19.6876
13:47:24.691,11.625,-21.7501
13:47:24.700,10.25,-23.5626
13:47:24.710,9.6875,-27.1876
13:47:24.720,9.0625,-28.8126
13:47:24.730,8.9375,-30.3126
13:47:24.741,8.5,-31.6876
13:47:24.751,8.6875,-32.5626
13:47:24.760,7.75,-34.2501
13:47:24.770,7.5,-36.1251
13:47:24.780,7.75,-36.4376
13:47:24.791,6.375,-38.8751
13:47:24.800,6.3125,-39.3127
13:47:24.810,5.5,-42.1877
13:47:24.820,5.6875,-41.9377
13:47:24.830,4.625,-43.9377
13:47:24.843,3.9375,-45.6252
13:47:24.851,2.9375,-46.8127
13:47:24.881,1.3125,-49.1877
13:47:24.882,-0.125,-51.2502
13:47:24.885,-1.0625,-52.7502
13:47:24.890,-2.5625,-54.0002
13:47:24.937,-2.9375,-55.3752
13:47:24.939,-5.0625,-58.3752
13:47:24.940,-7.4375,-61.2502
13:47:24.949,-8.875,-62.6877
13:47:24.953,-11.6875,-65.8128
13:47:24.953,-15.0626,-68.8128
13:47:24.979,-17.2501,-72.5628
13:47:24.982,-21.4376,-75.8753
13:47:24.984,-24.0626,-77.0628
13:47:24.990,-25.5001,-77.6878
13:47:25.022,-25.6876,-76.4378
13:47:25.027,-24.0001,-71.6253
13:47:25.027,-19.6876,-63.3127
13:47:25.031,-14.5001,-52.3127
13:47:25.041,-8.75,-38.6251
13:47:25.051,-3.5625,-25.6251
13:47:25.060,2.3125,-13.6251
13:47:25.073,5.625,-4.3125
13:47:25.080,9.75,3.625
13:47:25.091,12.4375,9.4375
13:47:25.100,14.6251,15.3751
13:47:25.111,15.4376,19.2501
13:47:25.120,17.0626,20.9376
13:47:25.130,17.2501,23.8751
13:47:25.140,16.8126,25.3751
13:47:25.151,17.8126,26.1251
13:47:25.160,17.2501,28.3126
13:47:25.173,17.0001,28.9376
13:47:25.181,17.4376,31.1251
13:47:25.191,17.9376,32.8126
13:47:25.200,17.6876,34.7501
13:47:25.210,17.5001,34.6876
13:47:25.220,17.8751,36.8126
13:47:25.230,18.6251,36.0001
13:47:25.241,18.4376,37.1251
13:47:25.250,17.5001,36.5626
13:47:25.265,16.9376,34.8751
13:47:25.276,16.2501,32.8751
13:47:25.286,13.4376,28.7501
13:47:25.295,11.1875,25.8126
13:47:25.306,9.625,21.0626
13:47:25.315,7.125,17.4376
13:47:25.325,6.375,13.1876
13:47:25.336,4.75,10.625
13:47:25.346,3.375,8.25
13:47:25.356,2.9375,6.0625
13:47:25.378,2.9375,5.5625
13:47:25.380,2.25,3.875
13:47:25.394,2.5,2.75
13:47:25.398,1.6875,2.0625
13:47:25.406,1.4375,1.3125
13:47:25.416,1.625,0.25
13:47:25.426,0.9375,-0.625
13:47:25.435,1.125,-1.0625
13:47:25.450,0.9375,-1.125
13:47:25.455,-0.3125,-3.5
13:47:25.465,-3.125,-6.25
13:47:25.477,-4.5,-8.875
13:47:25.485,-6.75,-11.0625
13:47:25.495,-9.0625,-14.4376
13:47:25.506,-11,-17.1251
13:47:25.515,-12.75,-19.0001
13:47:25.525,-14.5001,-21.6876
13:47:25.535,-15.7501,-24.3126
13:47:25.546,-17.6251,-26.6876
13:47:25.555,-19.3126,-28.5626
13:47:25.565,-19.9376,-30.7501
13:47:25.575,-21.2501,-32.6876
13:47:25.585,-22.7501,-35.8751
13:47:25.595,-23.6876,-37.4376
13:47:25.606,-24.6251,-40.2502
13:47:25.616,-26.8751,-42.3752
13:47:25.644,-27.6876,-45.0002
13:47:25.647,-29.6876,-47.7502
13:47:25.649,-30.6251,-48.6252
13:47:25.655,-31.3751,-51.1877
13:47:25.685,-32.2501,-52.6252
13:47:25.685,-33.7501,-55.3127
13:47:25.688,-34.6876,-57.1877
13:47:25.719,-35.9376,-59.1252
13:47:25.721,-36.3126,-61.4377
13:47:25.724,-37.3126,-64.3752
13:47:25.725,-39.0001,-65.8128
13:47:25.760,-39.7502,-68.9378
13:47:25.762,-41.4377,-71.6253
13:47:25.764,-43.1252,-75.0628
13:47:25.795,-44.1252,-77.6878
13:47:25.797,-46.6252,-81.1253
13:47:25.799,-48.5002,-84.9378
13:47:25.802,-51.0002,-87.5003
13:47:25.807,-53.1252,-91.8754
13:47:25.815,-54.7502,-96.0004
13:47:25.825,-57.0627,-99.1879
13:47:25.835,-59.6252,-104.3129
13:47:25.846,-61.1252,-105.4379
13:47:25.856,-62.1877,-108.1254
13:47:25.865,-63.1252,-111.8754
13:47:25.875,-65.3753,-115.1879
13:47:25.885,-66.6878,-119.0005
13:47:25.901,-68.5003,-121.813
13:47:25.917,-70.5628,-125.063
13:47:25.919,-71.5628,-128.313
13:47:25.925,-73.6878,-130.8755
13:47:25.935,-74.8128,-133.3755
13:47:25.962,-74.3753,-132.563
13:47:25.966,-72.4378,-132.188
13:47:25.967,-69.2503,-126.6255
13:47:25.975,-64.5627,-118.7505
13:47:25.985,-59.0627,-108.6254
13:47:25.995,-55.0627,-101.2504
13:47:26.005,-51.1252,-92.5004
13:47:26.015,-49.0002,-85.2503
13:47:26.026,-47.2502,-82.5003
13:47:26.036,-45.8127,-78.5003
13:47:26.045,-45.3752,-76.1253
13:47:26.055,-45.1877,-75.5003
13:47:26.065,-45.8752,-75.0628
13:47:26.075,-46.3752,-76.4378
13:47:26.085,-47.1877,-77.0003
13:47:26.095,-49.0002,-77.9378
13:47:26.105,-50.7502,-82.0628
13:47:26.115,-52.8127,-84.4378
13:47:26.125,-55.8752,-90.1254
13:47:26.136,-58.3752,-95.6254
13:47:26.146,-63.8127,-102.7504
13:47:26.155,-68.6253,-110.6254
13:47:26.165,-74.0003,-119.188
13:47:26.175,-79.3753,-128.938
13:47:26.185,-84.9378,-137.438
13:47:26.201,-89.6253,-147.3755
13:47:26.206,-95.2504,-155.3131
13:47:26.215,-100.8129,-167.1881
13:47:26.225,-106.6254,-177.5632
13:47:26.236,-112.5629,-187.5007
13:47:26.245,-117.1254,-199.1258
13:47:26.255,-120.688,-206.3758
13:47:26.265,-124.313,-215.1883
13:47:26.275,-126.938,-221.8134
13:47:26.286,-129.313,-226.6884
13:47:26.296,-130.688,-231.6259
13:47:26.305,-132.2505,-234.4384
13:47:26.315,-132.688,-238.6884
13:47:26.325,-133.5005,-241.3134
13:47:26.359,-134.1255,-242.4384
13:47:26.364,-134.063,-245.4384
13:47:26.364,-135.1255,-246.6259
13:47:26.366,-135.1255,-249.5634
13:47:26.398,-136.438,-249.9384
13:47:26.399,-136.2505,-253.126
13:47:26.402,-134.938,-253.5635
13:47:26.408,-136.1255,-254.6885
13:47:26.437,-135.813,-256.1885
13:47:26.441,-136.0005,-257.1885
13:47:26.442,-136.313,-259.9385
13:47:26.476,-135.188,-259.376
13:47:26.479,-135.8755,-259.4385
13:47:26.483,-134.813,-259.9385
13:47:26.486,-134.063,-260.0635
13:47:26.487,-134.3755,-260.376
13:47:26.516,-133.938,-261.251
13:47:26.520,-133.688,-260.626
13:47:26.521,-133.063,-261.251
13:47:26.527,-132.2505,-260.4385
13:47:26.536,-132.688,-261.6885
13:47:26.545,-131.7505,-261.8135
13:47:26.555,-132.6255,-261.626
13:47:26.565,-131.813,-263.251
13:47:26.575,-132.188,-262.5635
13:47:26.586,-131.0005,-264.4385
13:47:26.596,-131.6255,-264.126
13:47:26.605,-131.313,-266.126
13:47:26.615,-131.563,-266.5635
13:47:26.625,-132.0005,-268.9385
13:47:26.636,-131.5005,-268.251
13:47:26.647,-131.563,-269.376
13:47:26.655,-131.0005,-269.126
13:47:26.673,-131.438,-268.876
13:47:26.675,-130.2505,-269.126
13:47:26.690,-129.813,-268.251
13:47:26.705,-129.688,-269.4385
13:47:26.708,-129.0005,-267.9385
13:47:26.723,-129.2505,-268.251
13:47:26.727,-128.438,-269.1885
13:47:26.736,-129.188,-266.9385
13:47:26.745,-127.813,-267.501
13:47:26.755,-126.438,-266.876
13:47:26.765,-127.188,-266.3135
13:47:26.775,-125.8755,-264.8135
13:47:26.786,-125.438,-264.5635
13:47:26.795,-124.563,-263.6885
13:47:26.805,-123.563,-261.4385
13:47:26.816,-122.563,-261.626
13:47:26.826,-121.813,-259.1885
13:47:26.835,-121.0005,-259.5635
13:47:26.845,-120.0005,-256.8135
13:47:26.855,-119.5005,-256.9385
13:47:26.865,-118.6255,-254.9385
13:47:26.875,-117.7505,-253.8135
13:47:26.886,-116.8754,-252.626
13:47:26.897,-116.3129,-249.6884
13:47:26.905,-114.7504,-249.3134
13:47:26.915,-113.5004,-245.1259
13:47:26.926,-110.5004,-241.6259
13:47:26.936,-106.9379,-234.0009
13:47:26.951,-100.2504,-225.6884
13:47:26.955,-94.1254,-212.6258
13:47:26.966,-86.5628,-200.1258
13:47:26.975,-80.6253,-185.7507
13:47:26.985,-74.1253,-174.9382
13:47:26.995,-69.2503,-163.3131
13:47:27.005,-65.2502,-155.5006
13:47:27.016,-62.6252,-148.0006
13:47:27.025,-59.5002,-142.563
13:47:27.035,-54.5627,-134.8755
13:47:27.045,-52.4377,-130.313
13:47:27.056,-49.8752,-125.938
13:47:27.065,-49.1877,-121.938
13:47:27.075,-46.4377,-118.063
13:47:27.085,-45.1877,-114.0004
13:47:27.110,-42.7502,-109.8754
13:47:27.113,-41.0627,-104.4379
13:47:27.115,-38.4376,-101.0629
13:47:27.145,-36.8751,-96.6254
13:47:27.148,-35.6876,-92.2504
13:47:27.152,-33.0001,-89.5003
13:47:27.157,-32.5001,-85.4378
13:47:27.187,-30.3126,-83.4378
13:47:27.189,-29.6251,-79.6878
13:47:27.219,-28.3126,-78.3753
13:47:27.248,-28.0626,-75.7503
13:47:27.291,-28.5001,-77.0628
13:47:27.295,-29.3126,-77.6878
13:47:27.297,-30.1251,-79.0003
13:47:27.297,-30.9376,-79.8128
13:47:27.297,-31.4376,-83.0628
13:47:27.299,-32.6251,-82.9378
13:47:27.302,-32.9376,-84.8753
13:47:27.312,-34.1251,-84.0628
13:47:27.327,-33.4376,-85.6878
13:47:27.332,-33.3751,-85.5628
13:47:27.341,-33.6251,-85.4378
13:47:27.351,-33.3126,-85.6253
13:47:27.362,-33.6876,-85.5003
13:47:27.370,-33.5001,-84.8128
13:47:27.380,-33.6251,-85.2503
13:47:27.390,-33.5626,-85.5628
13:47:27.401,-33.8751,-84.3753
13:47:27.411,-34.0626,-86.3128
13:47:27.421,-34.4376,-87.0003
13:47:27.430,-35.2501,-86.5003
13:47:27.441,-35.7501,-88.9378
13:47:27.452,-40.6252,-97.9379
13:47:27.460,-40.4377,-99.3129
13:47:27.471,-40.8752,-98.7504
13:47:27.481,-41.6877,-99.7504
13:47:27.490,-41.0002,-100.6254
13:47:27.501,-42.1877,-100.5004
13:47:27.510,-41.9377,-101.9379
13:47:27.521,-42.8127,-102.1254
13:47:27.530,-41.8752,-102.5004
13:47:27.540,-43.3127,-103.1254
13:47:27.550,-43.5627,-103.6254
13:47:27.560,-43.5627,-103.9379
13:47:27.572,-44.0627,-104.9379
13:47:27.581,-44.0002,-104.7504
13:47:27.591,-44.8127,-105.0004
13:47:27.601,-44.5002,-106.1254
13:47:27.610,-44.8752,-105.3129
13:47:27.621,-44.8752,-106.2504
13:47:27.631,-44.3752,-106.4379
13:47:27.641,-45.8127,-107.6254
13:47:27.651,-45.2502,-107.8754
13:47:27.661,-46.0002,-108.2504
13:47:27.671,-46.6252,-109.0629
13:47:27.681,-46.2502,-109.0629
13:47:27.691,-46.8752,-109.8129
13:47:27.701,-46.5002,-110.5629
13:47:27.710,-47.1877,-109.8129
13:47:27.721,-46.4377,-110.8129
13:47:27.730,-46.5627,-109.6254
13:47:27.740,-47.2502,-110.8754
13:47:27.751,-47.2502,-111.0004
13:47:27.762,-48.0002,-112.1879
13:47:27.770,-47.6252,-111.8129
13:47:27.781,-47.6877,-111.3754
13:47:27.803,-48.3752,-112.8754
13:47:27.805,-47.7502,-112.1879
13:47:27.839,-48.4377,-112.5629
13:47:27.841,-48.5627,-112.8129
13:47:27.843,-48.7502,-113.6254
13:47:27.845,-48.5627,-113.7504
13:47:27.853,-49.0002,-112.2504
13:47:27.891,-48.8127,-114.0004
13:47:27.892,-48.6877,-114.0004
13:47:27.895,-49.2502,-113.6254
13:47:27.902,-48.8752,-113.6879
13:47:27.902,-48.5002,-114.1254
13:47:27.939,-47.0002,-111.6879
13:47:27.942,-45.6252,-107.5629
13:47:27.947,-41.0002,-102.1254
13:47:27.947,-35.9376,-92.5629
13:47:27.953,-29.5626,-80.6878
13:47:27.976,-23.6251,-66.9378
13:47:27.978,-17.3126,-54.2502
13:47:27.993,-11.75,-44.1877
13:47:28.008,-7.0625,-33.5001
13:47:28.011,-3.6875,-25.8126
13:47:28.026,-0.625,-18.1876
13:47:28.041,1.3125,-12.625
13:47:28.044,3.5625,-8.3125
13:47:28.045,4.5,-2.625
13:47:28.051,6.625,1
13:47:28.062,7.6875,5.125
13:47:28.075,9.4375,9.5
13:47:28.082,11.25,13.9376
13:47:28.092,12.25,16.6876
13:47:28.102,14.1876,21.3126
13:47:28.112,15.6251,27.0001
13:47:28.121,17.2501,29.7501
13:47:28.131,19.3126,33.6876
13:47:28.142,18.6876,37.0001
13:47:28.150,21.1251,40.2502
13:47:28.162,20.8751,42.9377
13:47:28.170,21.6876,44.5002
13:47:28.181,21.3126,45.8752
13:47:28.191,20.0001,44.8127
13:47:28.201,19.2501,43.4377
13:47:28.213,16.4376,41.2502
13:47:28.222,15.0001,37.0626
13:47:28.232,13.1876,35.6876
13:47:28.240,11.9375,32.5001
13:47:28.251,9.75,30.3751
13:47:28.260,8.125,27.8126
13:47:28.271,7.1875,25.4376
13:47:28.282,6.875,24.2501
13:47:28.292,5.5,22.8126
13:47:28.302,4.875,21.8751
13:47:28.311,3.875,20.5626
13:47:28.321,3.125,19.3126
13:47:28.331,2.625,17.9376
13:47:28.342,1.3125,17.1876
13:47:28.352,0.8125,16.0001
13:47:28.361,-0.75,14.4376
13:47:28.371,-1.9375,13.6876
13:47:28.381,-2.25,10.375
13:47:28.392,-4,9.0625
13:47:28.402,-5.6875,6.75
13:47:28.412,-7,4.4375
13:47:28.422,-7.0625,2.625
13:47:28.431,-8.4375,0.6875
13:47:28.442,-9.875,-1.5625
13:47:28.450,-11.375,-3.4375
13:47:28.462,-12.3125,-6.1875
13:47:28.471,-13.8751,-8.3125
13:47:28.481,-14.5626,-9.75
13:47:28.491,-15.3126,-12
13:47:28.521,-16.6876,-13.5626
13:47:28.522,-17.6876,-15.9376
13:47:28.524,-17.6876,-16.7501
13:47:28.532,-19.0626,-19.8751
13:47:28.558,-19.3126,-20.5626
13:47:28.631,-21.4376,-22.8751
13:47:28.632,-21.7501,-24.3751
13:47:28.660,-22.7501,-26.0626
13:47:28.660,-22.8126,-27.0626
13:47:28.660,-23.7501,-29.0626
13:47:28.662,-24.9376,-31.0001
13:47:28.664,-25.4376,-32.4376
13:47:28.669,-26.0001,-34.5626
13:47:28.669,-25.9376,-35.1876
13:47:28.669,-27.5001,-37.3751
13:47:28.677,-27.8751,-39.2502
13:47:28.705,-27.8751,-39.1877
13:47:28.708,-29.0001,-40.1877
13:47:28.710,-29.3126,-42.3127
13:47:28.716,-28.7501,-42.8127
13:47:28.727,-30.1876,-44.0002
13:47:28.736,-30.3751,-47.0627
13:47:28.747,-30.8751,-45.9377
13:47:28.757,-31.2501,-47.1877
13:47:28.767,-31.0626,-49.5002
13:47:28.777,-31.6876,-50.3752
13:47:28.787,-32.3126,-51.9377
13:47:28.797,-33.0001,-52.6252
13:47:28.807,-33.5626,-52.9377
13:47:28.817,-34.1876,-54.4377
13:47:28.827,-34.5001,-57.0002
13:47:28.837,-37.3751,-64.2502
13:47:28.847,-37.5001,-64.9377
13:47:28.857,-38.0001,-66.3128
13:47:28.867,-38.5626,-67.8128
13:47:28.877,-39.3127,-68.3753
13:47:28.887,-38.6876,-68.6878
13:47:28.897,-37.0626,-65.6878
13:47:28.906,-34.3751,-61.5627
13:47:28.917,-30.1251,-55.8127
13:47:28.927,-24.5001,-45.9377
13:47:28.936,-17.9376,-34.2501
13:47:28.947,-11.625,-20.2501
13:47:28.957,-5.125,-10.1875
13:47:28.967,-0.8125,1.1875
13:47:28.977,3.25,10.3125
13:47:28.987,6.4375,18.7501
13:47:28.997,9.25,24.3126
13:47:29.007,11.5625,29.6876
13:47:29.017,13.1876,34.5001
13:47:29.027,14.8751,38.4376
13:47:29.037,17.1876,44.3752
13:47:29.047,18.1876,46.5627
13:47:29.057,19.5626,51.5627
13:47:29.067,20.3751,53.9377
13:47:29.077,21.6876,59.0002
13:47:29.087,23.1251,61.7502
13:47:29.096,24.5626,66.5628
13:47:29.106,25.3751,68.3753
13:47:29.116,25.8126,72.3128
13:47:29.127,26.5001,73.7503
13:47:29.138,26.2501,76.3753
13:47:29.147,26.1251,77.9378
13:47:29.158,26.0001,77.6253
13:47:29.166,24.3126,76.3753
13:47:29.177,22.6251,75.0628
13:47:29.187,19.8751,71.7503
13:47:29.201,18.0626,69.3753
13:47:29.207,15.3751,65.8753
13:47:29.216,14.0001,63.0627
13:47:29.226,11.6875,60.9377
13:47:29.237,11.625,59.0002
13:47:29.247,9.8125,58.5002
13:47:29.267,9.25,57.3127
13:47:29.269,7.8125,55.3127
13:47:29.294,6.9375,54.3127
13:47:29.338,6.25,53.0002
13:47:29.372,5.6875,51.7502
13:47:29.385,4.4375,50.9377
13:47:29.392,3.125,48.2502
13:47:29.422,2.625,47.6252
13:47:29.422,0.8125,44.7502
13:47:29.422,-0.125,42.9377
13:47:29.423,-1.375,40.8752
13:47:29.427,-3.8125,38.6251
13:47:29.430,-4.1875,35.4376
13:47:29.433,-6.1875,34.1251
13:47:29.439,-7.0625,31.5001
13:47:29.447,-9.3125,27.8751
13:47:29.457,-10.0625,25.2501
13:47:29.466,-11.75,23.4376
13:47:29.476,-12.625,20.3126
13:47:29.487,-14.5001,18.3126
13:47:29.496,-16.1251,15.5001
13:47:29.507,-17.1251,13
13:47:29.517,-19.0001,11.125
13:47:29.527,-20.7501,7.625
13:47:29.536,-21.2501,4.5
13:47:29.547,-22.6251,1.9375
13:47:29.556,-28.6876,-7.6875
13:47:29.567,-28.7501,-9.6875
13:47:29.577,-30.4376,-12.375
13:47:29.587,-31.3751,-15.0626
13:47:29.596,-31.6876,-16.1251
13:47:29.632,-32.4376,-18.4376
13:47:29.634,-33.3751,-19.5626
13:47:29.637,-33.6251,-21.8126
13:47:29.642,-35.1251,-22.8126
13:47:29.652,-35.6251,-25.3126
13:47:29.661,-35.6876,-27.3751
13:47:29.672,-36.5001,-28.6876
13:47:29.682,-36.9376,-30.1876
13:47:29.692,-38.1876,-33.1876
13:47:29.701,-37.7501,-33.5626
13:47:29.711,-38.5001,-35.6876
13:47:29.722,-39.5627,-37.4376
13:47:29.732,-39.3752,-39.0627
13:47:29.741,-40.3752,-40.7502
13:47:29.753,-40.1877,-42.0002
13:47:29.761,-41.1877,-43.9377
13:47:29.771,-41.9377,-46.2502
13:47:29.799,-42.3752,-47.6252
13:47:29.802,-42.8752,-48.8752
13:47:29.804,-43.4377,-50.6252
13:47:29.811,-43.0002,-51.5002
13:47:29.822,-43.1877,-51.5002
13:47:29.831,-41.3127,-50.0002
13:47:29.842,-38.2501,-46.8127
13:47:29.852,-33.8751,-39.7502
13:47:29.861,-28.3126,-30.0001
13:47:29.871,-22.0626,-17.7501
13:47:29.882,-14.7501,-4.875
13:47:29.891,-9.375,7.3125
13:47:29.914,-3.6875,17.4376
13:47:29.916,0.1875,27.6251
13:47:29.924,4.125,34.5626
13:47:29.991,7.0625,42.8127
13:47:29.992,9.5,47.7502
13:47:29.993,11.375,53.7502
13:47:29.994,13.5001,57.4377
13:47:30.002,15.5001,63.2502
13:47:30.003,16.5626,68.6878
13:47:30.003,18.6251,72.0003
13:47:30.011,19.2501,77.0628
13:47:30.049,21.3751,79.9378
13:47:30.050,23.5001,84.9378
13:47:30.053,23.5001,88.8753
13:47:30.056,25.0001,92.2504
13:47:30.061,26.0626,95.3129
13:47:30.069,25.6876,99.0004
13:47:30.096,26.1251,101.6254
13:47:30.098,26.6251,102.6879
13:47:30.100,25.1876,104.1879
13:47:30.108,24.4376,104.0004
13:47:30.124,22.9376,101.3754
13:47:30.129,19.7501,98.8754
13:47:30.136,17.3751,95.6879
13:47:30.147,14.1876,91.0004
13:47:30.156,11.875,86.0628
13:47:30.167,8.75,82.7503
13:47:30.176,6.6875,79.8128
13:47:30.186,5.625,77.4378
13:47:30.197,4.0625,74.5003
13:47:30.206,3.3125,71.3128
13:47:30.216,1.4375,69.5003
13:47:30.226,-0.0625,66.9378
13:47:30.236,-1.4375,63.8752
13:47:30.247,-2.4375,60.9377
13:47:30.256,-4,59.3127
13:47:30.267,-5.8125,55.6877
13:47:30.277,-7.125,53.4377
13:47:30.287,-7.875,50.7502
13:47:30.297,-10.6875,46.8127
13:47:30.307,-11.5,44.1877
13:47:30.316,-13.9376,41.2502
13:47:30.326,-14.4376,37.8126
13:47:30.336,-17.1251,34.1876
13:47:30.347,-18.2501,30.6251
13:47:30.357,-19.6251,26.5001
13:47:30.367,-21.3751,23.5626
13:47:30.376,-22.6876,21.4376
13:47:30.387,-23.9376,17.3126
13:47:30.396,-24.8751,14.9376
13:47:30.407,-27.0001,10.9375
13:47:30.417,-27.6876,8.4375
13:47:30.426,-29.0626,4.4375
13:47:30.437,-30.0001,2.8125
13:47:30.447,-30.9376,-1.3125
13:47:30.456,-32.3751,-3.4375
13:47:30.466,-33.5626,-7.375
13:47:30.476,-34.5626,-9.875
13:47:30.487,-36.0001,-13.6251
13:47:30.498,-36.6876,-15.3126
13:47:30.507,-37.6251,-18.7501
13:47:30.517,-38.5626,-20.1251
13:47:30.527,-39.0001,-23.9376
13:47:30.536,-39.3127,-24.6876
13:47:30.546,-40.6877,-28.3126
13:47:30.557,-41.0002,-29.3126
13:47:30.567,-41.3127,-32.5626
13:47:30.576,-42.2502,-34.4376
13:47:30.587,-42.8127,-37.0626
13:47:30.597,-42.4377,-38.2501
13:47:30.608,-43.5002,-40.9377
13:47:30.617,-43.6252,-41.9377
13:47:30.626,-44.3752,-43.1877
13:47:30.636,-44.0627,-45.6252
13:47:30.647,-45.4377,-46.6252
13:47:30.686,-44.7502,-49.8752
13:47:30.687,-46.2502,-50.5002
13:47:30.722,-46.0002,-53.5627
13:47:30.723,-46.0627,-54.5002
13:47:30.827,-46.9377,-56.5002
13:47:30.827,-46.7502,-58.6877
13:47:30.827,-47.2502,-59.8127
13:47:30.827,-47.0002,-62.3752
13:47:30.828,-48.6877,-63.5627
13:47:30.832,-48.3127,-65.5003
13:47:30.837,-48.4377,-66.8128
13:47:30.837,-48.8127,-67.6253
13:47:30.837,-48.1877,-69.5003
13:47:30.844,-49.0002,-69.5003
13:47:30.852,-47.4377,-69.6253
13:47:30.862,-44.1252,-66.8753
13:47:30.873,-40.7502,-61.0002
13:47:30.882,-34.3751,-52.5627
13:47:30.891,-28.1251,-40.8127
13:47:30.902,-20.6876,-28.1251
13:47:30.913,-13.8751,-14.1251
13:47:30.922,-7.3125,-1.5
13:47:30.932,-1.875,9.75
13:47:30.941,2.1875,19.1251
13:47:30.952,16.2501,52.8752
13:47:30.962,18.4376,59.1877
13:47:30.972,20.4376,64.0627
13:47:30.981,23.6251,69.7503
13:47:30.992,25.0626,75.3753
13:47:31.001,33.6251,98.6879
13:47:31.012,35.3126,102.8129
13:47:31.022,36.1876,108.1254
13:47:31.031,37.7501,111.1879
13:47:31.041,37.8126,115.5629
13:47:31.052,38.1876,116.3754
13:47:31.079,38.3751,118.938
13:47:31.082,36.7501,118.563
13:47:31.085,35.7501,117.0629
13:47:31.094,33.0001,114.8129
13:47:31.101,30.2501,110.8754
13:47:31.112,26.8751,106.3129
13:47:31.121,23.9376,101.8754
13:47:31.131,21.8126,97.2504
13:47:31.142,18.4376,92.2504
13:47:31.155,16.0001,87.8753
13:47:31.161,14.0001,83.7503
13:47:31.172,12.25,80.8128
13:47:31.181,10.75,77.3128
13:47:31.191,8.5,74.3128
13:47:31.202,7.8125,71.1878
13:47:31.213,5.875,69.1878
13:47:31.222,3.6875,65.1877
13:47:31.231,2.25,62.3127
13:47:31.248,0.8125,58.8127
13:47:31.264,-0.875,55.3127
13:47:31.267,-2.3125,52.1877
13:47:31.281,-5.25,48.1877
13:47:31.295,-6.4375,45.0002
13:47:31.298,-9.1875,40.9377
13:47:31.306,-10.6875,37.0001
13:47:31.312,-12.6875,33.5626
13:47:31.323,-13.8751,29.5001
13:47:31.332,-15.4376,26.0001
13:47:31.343,-16.8126,22.6876
13:47:31.352,-19.1876,18.5626
13:47:31.361,-20.3126,15.7501
13:47:31.372,-21.7501,12
13:47:31.383,-23.3126,8.375
13:47:31.391,-24.5626,5.1875
13:47:31.423,-25.3751,1.5625
13:47:31.426,-27.6876,-1.9375
13:47:31.429,-28.1251,-4.9375
13:47:31.433,-29.2501,-8
13:47:31.461,-31.1876,-10.25
13:47:31.464,-32.0626,-14.2501
13:47:31.467,-33.2501,-16.6876
13:47:31.473,-33.2501,-19.5001
13:47:31.511,-34.8126,-21.6876
13:47:31.512,-34.8126,-24.4376
13:47:31.514,-36.0626,-26.6251
13:47:31.542,-36.3751,-29.6876
13:47:31.543,-37.6251,-31.8751
13:47:31.546,-37.9376,-35.1876
13:47:31.551,-38.8751,-36.4376
13:47:31.578,-38.4376,-39.3752
13:47:31.580,-39.6252,-41.5627
13:47:31.583,-39.7502,-44.2502
13:47:31.588,-40.8127,-45.4377
13:47:31.598,-41.1877,-49.2502
13:47:31.607,-40.8127,-50.1877
13:47:31.623,-41.7502,-52.0627
13:47:31.628,-41.5627,-54.5002
13:47:31.637,-43.0002,-56.2502
13:47:31.647,-43.2502,-59.1252
13:47:31.657,-43.3127,-59.6252
13:47:31.666,-45.0627,-63.0627
13:47:31.677,-43.7502,-65.6878
13:47:31.688,-44.8752,-66.1878
13:47:31.696,-44.8752,-68.5628
13:47:31.707,-45.6877,-68.7503
13:47:31.717,-45.5002,-71.1253
13:47:31.727,-44.9377,-72.9378
13:47:31.738,-46.2502,-74.8753
13:47:31.746,-46.0627,-76.1253
13:47:31.758,-46.8752,-77.1253
13:47:31.768,-46.4377,-78.8753
13:47:31.777,-46.3752,-79.5628
13:47:31.788,-44.8127,-79.1253
13:47:31.797,-42.1252,-74.8753
13:47:31.807,-37.9376,-69.9378
13:47:31.817,-32.0001,-58.8752
13:47:31.828,-24.6251,-47.7502
13:47:31.837,-17.4376,-32.8751
13:47:31.848,-10.5625,-19.8126
13:47:31.856,-3.8125,-6.75
13:47:31.867,1.3125,5.25
13:47:31.878,6.125,15.0001
13:47:31.888,10.625,25.1251
13:47:31.896,13.8751,32.8126
13:47:31.906,17.3751,39.8752
13:47:31.917,19.0626,47.1877
13:47:31.927,22.2501,52.2502
13:47:31.938,25.0001,59.8752
13:47:31.948,27.0626,65.6253
13:47:31.958,29.5626,71.8128
13:47:31.967,31.2501,77.7503
13:47:31.978,33.4376,84.0003
13:47:31.988,35.0626,88.3753
13:47:31.998,36.2501,93.6879
13:47:32.008,37.9376,99.1254
13:47:32.016,39.5002,103.0004
13:47:32.028,39.7502,106.0004
13:47:32.036,39.9377,110.2504
13:47:32.046,40.0002,111.4379
13:47:32.068,39.6877,112.1879
13:47:32.070,37.6251,111.6879
13:47:32.081,35.5001,109.8754
13:47:32.089,32.1876,105.3754
13:47:32.103,28.8751,100.4379
13:47:32.118,26.4376,95.7504
13:47:32.120,22.7501,90.5003
13:47:32.128,19.9376,85.6253
13:47:32.136,16.8751,80.3128
13:47:32.147,14.4376,76.4378
13:47:32.156,13.4376,73.1253
13:47:32.167,10.75,69.1253
13:47:32.177,9.6875,65.8753
13:47:32.188,7.6875,62.9377
13:47:32.216,6.625,60.6877
13:47:32.218,4.75,56.8752
13:47:32.221,2.875,53.5627
13:47:32.251,1.75,51.3752
13:47:32.253,-0.625,47.0002
13:47:32.257,-3.0625,43.6252
13:47:32.258,-4.1875,40.5627
13:47:32.287,-5.9375,35.8126
13:47:32.289,-7.6875,32.1251
13:47:32.292,-9.6875,28.1876
13:47:32.298,-11.0625,25.4376
13:47:32.313,-12.5625,21.3751
13:47:32.318,-13.5626,18.5001
13:47:32.360,-15.6876,14.2501
13:47:32.362,-17.3126,10.9375
13:47:32.366,-18.6251,7.5625
13:47:32.372,-20.2501,4.6875
13:47:32.372,-20.7501,1.6875
13:47:32.380,-22.5001,-2.5
13:47:32.389,-24.3751,-5.4375
13:47:32.398,-25.5001,-8.625
13:47:32.408,-26.5626,-12
13:47:32.418,-27.0001,-15.0626
13:47:32.428,-28.6876,-16.7501
13:47:32.438,-29.9376,-20.4376
13:47:32.448,-30.3126,-23.3751
13:47:32.456,-31.4376,-26.2501
13:47:32.468,-32.0001,-29.3126
13:47:32.478,-33.0001,-32.0626
13:47:32.488,-33.9376,-34.5626
13:47:32.498,-35.0001,-37.3126
13:47:32.508,-35.8126,-39.3127
13:47:32.518,-35.5001,-42.1252
13:47:32.528,-36.5001,-44.6877
13:47:32.538,-37.3751,-46.8752
13:47:32.548,-36.8751,-48.6877
13:47:32.558,-38.6876,-50.6252
13:47:32.579,-38.1251,-53.5002
13:47:32.582,-39.0001,-54.8127
13:47:32.590,-39.8127,-56.6877
13:47:32.598,-39.8752,-59.1877
13:47:32.613,-40.0627,-60.8127
13:47:32.620,-40.8127,-62.4377
13:47:32.628,-41.4377,-64.8752
13:47:32.638,-41.3127,-66.0628
13:47:32.648,-41.8752,-68.5003
13:47:32.658,-41.9377,-69.0628
13:47:32.668,-43.0627,-70.0628
13:47:32.678,-43.0002,-72.2503
13:47:32.688,-42.5002,-74.3753
13:47:32.698,-44.3127,-76.6878
13:47:32.708,-43.8752,-77.7503
13:47:32.718,-43.8752,-78.2503
13:47:32.728,-44.6877,-80.7503
13:47:32.738,-44.6252,-82.2503
13:47:32.747,-43.6877,-81.7503
13:47:32.764,-42.6252,-80.0628
13:47:32.767,-39.5002,-77.1878
13:47:32.778,-34.0001,-69.8128
13:47:32.788,-28.8126,-57.6252
13:47:32.798,-21.3126,-46.5002
13:47:32.808,-14.1251,-32.6876
13:47:32.818,-6.8125,-18.0626
13:47:32.828,-1.0625,-6.6875
13:47:32.838,3.5625,5.4375
13:47:32.849,8.625,15.3751
13:47:32.859,12.125,24.1876
13:47:32.886,15.9376,33.1251
13:47:32.888,19.0626,40.4377
13:47:32.890,21.5001,47.1877
13:47:32.921,24.3751,53.6252
13:47:32.923,25.6876,59.8127
13:47:32.925,27.5626,65.1877
13:47:32.928,30.3751,71.0003
13:47:32.962,31.5001,77.1253
13:47:32.964,33.3751,80.8753
13:47:32.965,34.5001,86.8753
13:47:32.972,35.8126,89.5003
13:47:32.985,37.2501,94.5004
13:47:32.989,37.0626,97.9379
13:47:33.026,36.8751,99.6879
13:47:33.027,37.0626,100.8754
13:47:33.030,36.3126,100.2504
13:47:33.036,34.0626,100.7504
13:47:33.038,31.6876,97.5629
13:47:33.049,29.1876,92.5004
13:47:33.058,25.6876,88.1878
13:47:33.068,22.7501,82.0628
13:47:33.078,20.0001,78.5628
13:47:33.088,17.0626,72.3753
13:47:33.099,15.1876,69.1878
13:47:33.108,13.0625,64.9377
13:47:33.118,11.3125,61.9377
13:47:33.128,9.8125,60.1252
13:47:33.140,8.5,56.3127
13:47:33.148,6.875,54.6877
13:47:33.158,5.875,51.6252
13:47:33.168,3.75,49.0002
13:47:33.178,2.5625,45.5002
13:47:33.188,0.6875,41.6877
13:47:33.198,-0.875,39.0001
13:47:33.208,-2.8125,34.8751
13:47:33.218,-4.3125,31.3751
13:47:33.228,-5.75,28.1876
13:47:33.238,-7.8125,24.6876
13:47:33.248,-9.4375,21.3126
13:47:33.258,-11.375,18.1251
13:47:33.268,-12.4375,13.1251
13:47:33.278,-14.6251,10.625
13:47:33.288,-15.8126,6.625
13:47:33.298,-17.6251,4.125
13:47:33.308,-18.3126,0
13:47:33.318,-20.3751,-2.9375
13:47:33.328,-20.4376,-6.0625
13:47:33.338,-23.0626,-8.9375
13:47:33.348,-24.5626,-12.125
13:47:33.358,-25.1876,-15.7501
13:47:33.368,-26.9376,-18.6251
13:47:33.385,-27.4376,-22.5626
13:47:33.388,-28.8751,-24.2501
13:47:33.403,-29.7501,-28.1251
13:47:33.418,-31.1251,-30.1251
13:47:33.420,-31.4376,-33.5626
13:47:33.431,-32.6251,-34.8751
13:47:33.443,-32.8751,-39.0001
13:47:33.453,-34.5001,-39.9377
13:47:33.463,-34.3751,-42.8127
13:47:33.473,-34.8751,-45.2502
13:47:33.483,-35.5001,-46.8752
13:47:33.493,-36.1251,-48.1877
13:47:33.503,-36.5001,-51.3752
13:47:33.515,-36.8751,-53.1877
13:47:33.523,-38.4376,-55.1252
13:47:33.533,-37.8751,-57.7502
13:47:33.543,-38.0001,-58.3752
13:47:33.553,-39.8127,-61.6252
13:47:33.564,-39.3126,-62.6252
13:47:33.573,-40.1877,-64.8752
13:47:33.583,-40.4377,-67.6878
13:47:33.593,-41.3752,-69.3753
13:47:33.608,-42.5002,-70.4378
13:47:33.612,-42.6877,-73.3753
13:47:33.643,-43.2502,-74.5003
13:47:33.646,-43.5627,-76.1253
13:47:33.648,-43.9377,-79.3753
13:47:33.654,-43.8127,-79.3128
13:47:33.681,-44.0627,-81.0628
13:47:33.683,-43.3127,-80.8753
13:47:33.685,-42.1252,-81.0628
13:47:33.716,-39.6252,-78.3128
13:47:33.718,-35.2501,-71.6253
13:47:33.720,-29.9376,-61.5627
13:47:33.723,-23.3751,-49.5002
13:47:33.762,-15.6876,-35.1251
13:47:33.763,-8.625,-21.4376
13:47:33.766,-2.5,-6.625
13:47:33.782,3.1875,4.5
13:47:33.788,8.75,18.0001
13:47:33.788,12.5,26.4376
13:47:33.795,16.8126,36.3751
13:47:33.803,20.1251,44.4377
13:47:33.814,23.3126,53.1252
13:47:33.823,25.8751,60.6877
13:47:33.833,28.5001,67.5003
13:47:33.844,31.2501,73.5003
13:47:33.853,33.3126,80.0003
13:47:33.863,35.6876,87.4378
13:47:33.873,36.9376,91.8129
13:47:33.889,39.3752,97.5629
13:47:33.904,41.1877,102.8754
13:47:33.906,41.1877,108.0004
13:47:33.922,42.4377,111.1879
13:47:33.937,42.9377,114.4379
13:47:33.940,42.3127,116.7504
13:47:33.954,42.6252,117.7505
13:47:33.956,41.0002,118.2505
13:47:33.963,39.9377,115.8129
13:47:33.973,36.4376,113.0004
13:47:33.984,33.0626,107.3129
13:47:33.993,29.5626,101.6254
13:47:34.003,26.3126,95.7504
13:47:34.013,23.3126,89.9378
13:47:34.023,19.8126,84.8753
13:47:34.033,17.0001,79.5003
13:47:34.043,14.4376,74.1253
13:47:34.053,12.1875,69.5003
13:47:34.063,11.1875,65.7503
13:47:34.073,9.4375,62.6252
13:47:34.083,7.0625,59.2502
13:47:34.093,5.5625,56.8127
13:47:34.103,4.125,51.8127
13:47:34.113,2.6875,49.5627
13:47:34.123,1,45.6252
13:47:34.133,-0.75,41.8752
13:47:34.143,-2.875,37.5626
13:47:34.153,-5,33.5626
13:47:34.163,-7,30.3751
13:47:34.173,-8.25,25.5626
13:47:34.183,-9.875,22.5001
13:47:34.193,-11.5,17.8126
13:47:34.203,-13.5001,13.7501
13:47:34.213,-14.8126,9.875
13:47:34.223,-17.0001,6.125
13:47:34.233,-17.7501,2.125
13:47:34.243,-19.9376,-1.625
13:47:34.253,-20.8751,-6.0625
13:47:34.264,-22.8126,-9.0625
13:47:34.273,-24.0626,-11.9375
13:47:34.283,-24.3751,-15.8126
13:47:34.293,-26.4376,-18.3751
13:47:34.304,-27.8126,-23.0001
13:47:34.313,-29.1251,-25.5001
13:47:34.323,-29.1876,-29.0626
13:47:34.333,-29.2501,-29.5001
13:47:34.343,-27.2501,-28.6251
13:47:34.354,-25.0001,-25.3126
13:47:34.368,-21.6251,-23.5001
13:47:34.373,-18.5626,-20.0626
13:47:34.402,-16.0001,-15.3751
13:47:34.404,-11.75,-9.25
13:47:34.407,-7.4375,-1.8125
13:47:34.413,-0.875,6.625
13:47:34.444,6.3125,16.5001
13:47:34.447,15.8751,28.3126
13:47:34.449,24.9376,41.0627
13:47:34.455,34.8751,51.6252
13:47:34.485,45.5627,63.7502
13:47:34.489,56.6252,74.5628
13:47:34.489,69.3753,87.6253
13:47:34.520,84.0003,105.1254
13:47:34.521,101.8754,123.063
13:47:34.523,118.313,143.3755
13:47:34.527,128.2505,155.3756
13:47:34.533,132.688,161.3756
13:47:34.545,135.938,164.4381
13:47:34.554,135.8755,164.8756
13:47:34.563,135.1255,163.8756
13:47:34.573,134.438,160.1881
13:47:34.583,134.063,158.4381
13:47:34.593,133.5005,158.1881
13:47:34.603,132.688,156.6256
13:47:34.612,132.3755,153.5006
13:47:34.624,131.8755,151.2506
13:47:34.639,131.938,150.8756
13:47:34.644,131.438,149.1881
13:47:34.653,131.7505,151.6256
13:47:34.663,134.1255,154.0631
13:47:34.673,138.0005,160.5631
13:47:34.683,143.5005,170.0631
13:47:34.703,151.1256,183.4382
13:47:34.707,158.0631,196.8757
13:47:34.722,163.3131,208.3758
13:47:34.737,168.4381,221.1884
13:47:34.740,172.3757,232.0009
13:47:34.754,176.0007,242.6884
13:47:34.756,178.3757,251.9385
13:47:34.763,181.9382,260.9385
13:47:34.773,183.1882,267.9385
13:47:34.783,185.0007,272.751
13:47:34.793,184.8132,278.5636
13:47:34.803,185.9382,282.4386
13:47:34.815,187.3132,287.1886
13:47:34.823,189.2507,293.2511
13:47:34.835,190.8757,297.3761
13:47:34.843,192.3757,302.0012
13:47:34.853,192.6257,304.6887
13:47:34.863,192.9382,307.9387
13:47:34.873,193.5632,311.0637
13:47:34.883,194.0007,313.2512
13:47:34.894,195.2507,317.3137
13:47:34.920,195.5632,318.0637
13:47:34.922,195.1882,316.9387
13:47:34.927,192.3757,316.0012
13:47:34.935,191.3132,313.0012
13:47:34.943,187.3757,308.5637
13:47:34.953,182.5632,301.1262
13:47:34.963,177.7507,292.2511
13:47:34.973,171.2506,282.0636
13:47:34.983,165.2506,273.1885
13:47:34.993,160.2506,262.6885
13:47:35.003,155.3756,253.1885
13:47:35.013,150.1256,245.1259
13:47:35.023,145.438,237.6884
13:47:35.033,142.0005,230.4384
13:47:35.044,139.063,224.1259
13:47:35.053,135.7505,218.4383
13:47:35.075,133.5005,213.5008
13:47:35.079,131.313,208.1258
13:47:35.091,129.0005,203.2508
13:47:35.094,126.2505,198.3133
13:47:35.127,123.2505,192.3132
13:47:35.129,119.8755,186.3757
13:47:35.132,117.563,180.1257
13:47:35.135,114.1879,175.0632
13:47:35.167,111.4379,168.8756
13:47:35.169,108.6254,163.3131
13:47:35.172,105.6879,157.7506
13:47:35.208,101.8129,150.4381
13:47:35.209,98.5629,144.5005
13:47:35.252,95.4379,136.5005
13:47:35.267,91.6254,130.438
13:47:35.269,90.2504,125.438
13:47:35.269,87.6253,122.2505
13:47:35.273,87.3753,119.8755
13:47:35.284,86.7503,119.8755
13:47:35.288,86.8128,118.063
13:47:35.293,84.7503,115.6879
13:47:35.303,83.2503,111.7504
13:47:35.313,81.3128,107.2504
13:47:35.323,77.2503,103.0004
13:47:35.333,73.2503,96.0629
13:47:35.343,69.1253,88.2503
13:47:35.353,64.6877,82.2503
13:47:35.363,61.1252,76.8128
13:47:35.373,57.9377,71.5003
13:47:35.389,54.7502,67.2503
13:47:35.395,52.5627,64.3752
13:47:35.403,50.8127,60.4377
13:47:35.413,48.9377,57.3752
13:47:35.423,44.3127,48.8127
13:47:35.433,42.1877,45.5002
13:47:35.443,39.8127,41.8752
13:47:35.453,38.1876,38.3126
13:47:35.463,35.5626,34.3126
13:47:35.474,34.1251,31.8751
13:47:35.483,32.1876,28.1251
13:47:35.493,30.9376,25.6876
13:47:35.503,29.5001,22.0001
13:47:35.513,27.7501,20.1251
13:47:35.523,26.6251,17.1876
13:47:35.533,25.6251,15.6251
13:47:35.543,24.1876,12.5625
13:47:35.553,22.7501,10
13:47:35.563,21.7501,8
13:47:35.573,20.1251,6.0625
13:47:35.583,19.4376,4.875
13:47:35.593,18.2501,1.5625
13:47:35.603,16.6876,-0.9375
13:47:35.613,16.7501,-1.3125
13:47:35.624,16.8126,-4
13:47:35.633,16.6251,-3.4375
13:47:35.643,17.5001,-3.6875
13:47:35.653,20.6251,0
13:47:35.663,24.6876,7.25
13:47:35.673,29.9376,17.6251
13:47:35.683,36.5001,30.1251
13:47:35.692,44.0627,43.0002
13:47:35.703,50.0002,56.5627
13:47:35.713,55.8127,69.2503
13:47:35.724,61.3127,80.3128
13:47:35.733,66.5003,92.4379
13:47:35.743,71.5003,103.1879
13:47:35.753,74.8753,111.5629
13:47:35.764,77.7503,119.438
13:47:35.773,80.7503,125.813
13:47:35.797,82.6878,131.938
13:47:35.799,85.5628,136.7505
13:47:35.804,86.3128,142.438
13:47:35.836,88.6878,145.688
13:47:35.837,89.4378,150.1256
13:47:35.841,90.2503,153.3131
13:47:35.844,91.0629,156.8756
13:47:35.875,91.8129,160.2506
13:47:35.878,93.0629,163.1881
13:47:35.880,93.6879,165.9381
13:47:35.887,93.0004,167.4381
13:47:35.901,92.3754,166.8756
13:47:35.904,90.3754,166.0631
13:47:35.932,89.3753,162.8756
13:47:35.935,85.5628,159.0631
13:47:35.937,81.8128,152.1256
13:47:35.943,77.3753,145.7505
13:47:35.964,73.3753,138.938
13:47:35.967,69.8753,131.8755
13:47:35.973,66.4378,127.188
13:47:35.984,63.3752,119.6255
13:47:35.993,61.2502,114.4379
13:47:36.003,57.8127,107.2504
13:47:36.020,54.5002,101.3129
13:47:36.023,52.8127,96.3754
13:47:36.038,50.5002,90.8129
13:47:36.053,48.0627,85.0628
13:47:36.056,45.9377,80.0003
13:47:36.072,43.1252,75.3128
13:47:36.074,41.3127,70.8753
13:47:36.083,38.6251,66.8753
13:47:36.095,35.6876,61.1877
13:47:36.103,33.4376,55.3752
13:47:36.113,30.5626,50.8752
13:47:36.124,27.7501,44.1252
13:47:36.133,25.3126,39.8127
13:47:36.148,22.4376,35.2501
13:47:36.153,20.5626,31.3751
13:47:36.164,18.7501,27.2501
13:47:36.173,16.8751,23.5001
13:47:36.200,15.3751,18.9376
13:47:36.202,12.8125,14.0626
13:47:36.204,10.5625,8.75
13:47:36.213,7.0625,2.375
13:47:36.223,4.625,-4.5
13:47:36.233,3.375,-9.9375
13:47:36.243,1.125,-14.6251
13:47:36.253,-0.25,-16.9376
13:47:36.265,-0.625,-18.2501
13:47:36.273,-1.5,-20.0001
13:47:36.283,-3.125,-22.0001
13:47:36.293,-3.1875,-25.1876
13:47:36.304,-4.5625,-26.7501
13:47:36.313,-5.8125,-32.1251
13:47:36.323,-7.9375,-35.5626
13:47:36.334,-9.625,-41.6252
13:47:36.343,-12.25,-46.3127
13:47:36.355,-14.7501,-52.5002
13:47:36.363,-15.3751,-57.4377
13:47:36.373,-15.1876,-57.8127
13:47:36.384,-15.4376,-59.4377
13:47:36.393,-16.1251,-58.6252
13:47:36.404,-16.0001,-59.1252
13:47:36.415,-16.4376,-58.2502
13:47:36.423,-16.9376,-60.1877
13:47:36.434,-17.0001,-61.0627
13:47:36.443,-18.5001,-63.2502
13:47:36.453,-20.3751,-67.1253
13:47:36.464,-22.3751,-69.1253
13:47:36.473,-24.1251,-74.1253
13:47:36.484,-25.5001,-78.3128
13:47:36.493,-28.8126,-83.3753
13:47:36.505,-29.7501,-87.1253
13:47:36.514,-31.0626,-88.9378
13:47:36.523,-30.4376,-89.1253
13:47:36.534,-29.6876,-88.6253
13:47:36.550,-29.3126,-86.8128
13:47:36.556,-28.8751,-88.3128
13:47:36.601,-29.6876,-87.6878
13:47:36.603,-29.7501,-89.6253
13:47:36.645,-28.2501,-87.7503
13:47:36.645,-26.1251,-84.0003
13:47:36.649,-21.5626,-77.5628
13:47:36.655,-16.0001,-66.9378
13:47:36.655,-8.8125,-55.0627
13:47:36.655,-1.3125,-40.3127
13:47:36.660,5.75,-23.6251
13:47:36.694,14.0626,-8.125
13:47:36.697,21.0001,9.1875
13:47:36.699,28.0626,25.1251
13:47:36.703,33.9376,42.0002
13:47:36.743,39.0001,57.0627
13:47:36.744,43.0002,69.8753
13:47:36.748,46.6252,80.4378
13:47:36.754,49.5002,87.1253
13:47:36.754,51.1877,94.0004
13:47:36.759,53.3127,97.5629
13:47:36.769,55.1877,103.0629
13:47:36.778,56.8127,105.1879
13:47:36.789,58.3127,110.1254
13:47:36.798,59.7502,115.1254
13:47:36.809,61.9377,119.938
13:47:36.820,73.3753,144.063
13:47:36.829,76.6253,148.4381
13:47:36.838,77.3128,150.6881
13:47:36.849,76.6253,150.0006
13:47:36.858,74.5628,147.7506
13:47:36.869,72.5628,143.0005
13:47:36.878,69.3753,137.063
13:47:36.889,66.5628,130.7505
13:47:36.898,63.8127,124.8755
13:47:36.910,61.6252,119.938
13:47:36.918,59.0627,114.1254
13:47:36.929,56.3127,108.8754
13:47:36.938,54.9377,104.1879
13:47:36.949,52.1252,99.0004
13:47:36.958,51.0002,95.9379
13:47:36.970,49.0627,91.6254
13:47:36.979,48.2502,88.6878
13:47:36.989,45.4377,84.5003
13:47:36.999,45.1252,81.6878
13:47:37.009,43.2502,77.6878
13:47:37.019,42.3752,73.0628
13:47:37.029,39.6877,68.0628
13:47:37.039,38.1251,63.9377
13:47:37.050,35.0626,58.0627
13:47:37.058,33.4376,53.1877
13:47:37.069,30.1251,47.6252
13:47:37.078,28.5001,42.4377
13:47:37.089,24.9376,36.8126
13:47:37.098,23.1251,31.1876
13:47:37.109,19.6251,26.0001
13:47:37.119,18.1876,21.1251
13:47:37.129,16.0001,16.5626
13:47:37.139,13.2501,13.0625
13:47:37.149,11.5625,8.625
13:47:37.159,9.875,3.9375
13:47:37.169,8.1875,0.4375
13:47:37.183,5.5,-5.3125
13:47:37.188,3.3125,-11.1875
13:47:37.199,0.1875,-16.8751
13:47:37.210,-1.0625,-21.1251
13:47:37.220,-1.6875,-24.8126
13:47:37.229,-2.5,-27.0001
13:47:37.239,-1.0625,-25.3126
13:47:37.249,-0.6875,-23.8126
13:47:37.260,-0.75,-23.3751
13:47:37.269,-1.875,-25.7501
13:47:37.279,-3,-25.8751
13:47:37.298,-2.25,-26.6251
13:47:37.300,-2.125,-25.6876
13:47:37.369,-2.375,-27.3126
13:47:37.370,-3.375,-30.8126
13:47:37.371,-4.5,-32.0001
13:47:37.373,-4.125,-32.3751
13:47:37.376,-3.625,-31.1251
13:47:37.381,-1.375,-28.8126
13:47:37.381,-0.3125,-27.5001
13:47:37.381,0.4375,-28.5626
13:47:37.411,0.875,-29.8751
13:47:37.413,-0.5625,-33.0626
13:47:37.415,-1.8125,-39.0002
13:47:37.420,-4.9375,-45.3752
13:47:37.451,-8.5,-51.5002
13:47:37.454,-12.125,-58.6252
13:47:37.457,-17.1251,-65.0002
13:47:37.482,-21.5001,-72.5628
13:47:37.484,-24.5626,-79.0628
13:47:37.487,-27.0626,-82.0003
13:47:37.495,-30.5626,-89.9378
13:47:37.504,-34.8126,-97.3754
13:47:37.514,-38.5626,-104.7504
13:47:37.524,-40.8127,-108.7504
13:47:37.535,-42.2502,-111.6879
13:47:37.544,-43.0002,-114.1254
13:47:37.556,-40.6877,-110.9379
13:47:37.564,-37.8126,-103.5004
13:47:37.575,-32.5001,-95.6879
13:47:37.585,-27.4376,-83.5628
13:47:37.595,-21.2501,-71.8128
13:47:37.604,-16.1251,-59.0002
13:47:37.614,-10.625,-48.1252
13:47:37.624,-6.1875,-37.4376
13:47:37.635,-2.0625,-28.8751
13:47:37.647,0.6875,-20.2501
13:47:37.655,5.5,-7.6875
13:47:37.664,9.25,-1.1875
13:47:37.676,12.3125,7.4375
13:47:37.685,14.7501,14.2501
13:47:37.694,17.3751,23.1876
13:47:37.704,21.0001,32.7501
13:47:37.714,26.5001,46.3752
13:47:37.725,34.0626,60.0002
13:47:37.734,41.0002,75.8128
13:47:37.744,46.3752,90.8129
13:47:37.754,51.0627,100.2504
13:47:37.765,53.8127,110.1254
13:47:37.776,57.4377,115.1879
13:47:37.784,59.4377,120.563
13:47:37.794,59.8752,123.5005
13:47:37.804,59.7502,124.1255
13:47:37.815,59.5002,125.3755
13:47:37.825,59.3127,122.938
13:47:37.835,57.1252,120.563
13:47:37.844,55.6877,117.563
13:47:37.855,54.0627,114.2504
13:47:37.864,53.7502,111.6879
13:47:37.887,53.1252,109.3129
13:47:37.889,50.3752,106.1879
13:47:37.904,49.2502,101.8754
13:47:37.906,47.5002,99.1879
13:47:37.914,46.5002,95.6879
13:47:37.926,45.7502,93.8129
13:47:37.934,44.7502,91.0629
13:47:37.945,43.3752,88.4378
13:47:37.954,41.6877,84.4378
13:47:37.964,39.6252,79.8128
13:47:37.975,38.1251,75.8128
13:47:37.984,35.7501,69.7503
13:47:37.994,33.6876,65.8753
13:47:38.020,31.8751,60.5002
13:47:38.023,30.3126,56.8752
13:47:38.026,28.6251,53.9377
13:47:38.057,27.3126,51.6877
13:47:38.060,26.9376,49.0002
13:47:38.062,24.3751,44.7502
13:47:38.066,21.6876,38.0001
13:47:38.100,19.5626,30.5001
13:47:38.102,16.5626,23.9376
13:47:38.104,15.1251,17.1251
13:47:38.137,12.875,10.875
13:47:38.138,10,6.25
13:47:38.141,7.625,-0.1875
13:47:38.145,6,-3.5
13:47:38.147,4.9375,-7.1875
13:47:38.179,3.8125,-10.125
13:47:38.179,2.875,-13.1876
13:47:38.181,0.625,-18.4376
13:47:38.184,-1.4375,-24.0001
13:47:38.198,-3.4375,-27.7501
13:47:38.205,-4.4375,-32.1876
13:47:38.216,-6.5,-35.9376
13:47:38.224,-9.3125,-41.0627
13:47:38.234,-10.75,-45.3752
13:47:38.244,-12.875,-49.9377
13:47:38.254,-14.1876,-54.3127
13:47:38.264,-15.1876,-59.0627
13:47:38.275,-17.3751,-62.6252
13:47:38.284,-18.1251,-65.8128
13:47:38.294,-20.0626,-67.8753
13:47:38.306,-20.6876,-69.3753
13:47:38.314,-21.3751,-72.6878
13:47:38.325,-23.0626,-75.1253
13:47:38.334,-24.4376,-78.6878
13:47:38.345,-25.9376,-80.7503
13:47:38.354,-27.1251,-85.0003
13:47:38.364,-28.2501,-86.4378
13:47:38.374,-29.6251,-90.3129
13:47:38.385,-30.2501,-92.5629
13:47:38.395,-31.0626,-91.6254
13:47:38.404,-31.2501,-93.7504
13:47:38.414,-30.8126,-93.0004
13:47:38.424,-31.1876,-93.6254
13:47:38.434,-30.6876,-95.1879
13:47:38.444,-32.3126,-96.1254
13:47:38.454,-32.3751,-99.5004
13:47:38.464,-31.5626,-100.0629
13:47:38.475,-29.5001,-98.5629
13:47:38.485,-22.4376,-87.3128
13:47:38.494,-13.6251,-71.0003
13:47:38.505,-2.375,-49.3127
13:47:38.516,9.875,-26.5626
13:47:38.524,21.1876,-5.3125
13:47:38.534,29.1251,11.375
13:47:38.544,36.8126,24.5626
13:47:38.554,40.7502,34.6876
13:47:38.564,44.3127,40.3127
13:47:38.575,46.1252,44.9377
13:47:38.584,45.8752,45.2502
13:47:38.594,46.1877,47.9377
13:47:38.604,45.8752,52.9377
13:47:38.615,45.0627,54.1877
13:47:38.625,45.5002,57.3127
13:47:38.640,46.5002,63.0002
13:47:38.657,50.0627,70.6253
13:47:38.659,53.1252,79.1253
13:47:38.665,54.8752,83.5628
13:47:38.674,55.6252,88.3128
13:47:38.684,54.8127,88.5003
13:47:38.694,54.3752,88.9378
13:47:38.704,52.8127,88.8753
13:47:38.714,51.4377,88.1253
13:47:38.725,49.7502,85.9378
13:47:38.762,46.3752,81.7503
13:47:38.765,42.8752,77.1878
13:47:38.767,41.3752,73.0003
13:47:38.769,39.0001,69.1253
13:47:38.775,37.5001,66.7503
13:47:38.803,36.2501,63.8127
13:47:38.805,34.6251,63.1877
13:47:38.808,34.0001,64.5002
13:47:38.835,33.2501,64.8752
13:47:38.838,33.3751,65.9378
13:47:38.840,32.6251,67.6253
13:47:38.845,31.3126,67.1253
13:47:38.878,29.3751,65.4378
13:47:38.881,27.7501,63.3127
13:47:38.883,26.0001,63.0002
13:47:38.885,24.8126,62.9377
13:47:38.913,25.4376,63.0002
13:47:38.915,25.1876,63.5002
13:47:38.918,26.1876,65.0627
13:47:38.924,26.3751,64.3127
13:47:38.935,25.1251,62.1877
13:47:38.944,25.2501,61.0627
13:47:38.954,24.7501,59.6252
13:47:38.964,23.6876,55.6877
13:47:38.974,22.7501,51.3127
13:47:38.984,20.5001,47.9377
13:47:38.994,19.3126,43.5627
13:47:39.004,18.1251,39.9377
13:47:39.015,16.1876,35.6876
13:47:39.025,15.4376,31.8751
13:47:39.034,13.8126,28.2501
13:47:39.045,12.375,24.1876
13:47:39.054,10.9375,19.6251
13:47:39.066,9.75,14.8751
13:47:39.075,8.9375,11.4375
13:47:39.085,8.25,5.875
13:47:39.094,7.0625,2.9375
13:47:39.104,5.6875,-1.8125
13:47:39.115,4.5625,-4.8125
13:47:39.124,3.5625,-8.5
13:47:39.134,1.5625,-11.625
13:47:39.146,0,-15.4376
13:47:39.154,-1.9375,-19.1876
13:47:39.164,-3.1875,-22.6251
13:47:39.183,-4.6875,-27.1251
13:47:39.189,-6,-31.0626
13:47:39.205,-7.75,-33.5626
13:47:39.208,-9.375,-37.8751
13:47:39.215,-11.0625,-41.7502
13:47:39.224,-12.8125,-46.0627
13:47:39.234,-14.8126,-49.8127
13:47:39.244,-15.7501,-52.1252
13:47:39.254,-16.1251,-52.4377
13:47:39.264,-16.8126,-52.3127
13:47:39.274,-17.3126,-56.0002
13:47:39.284,-17.6876,-60.3752
13:47:39.295,-20.0626,-65.1253
13:47:39.304,-21.4376,-70.5003
13:47:39.314,-23.3126,-75.0003
13:47:39.329,-24.9376,-78.8128
13:47:39.334,-26.1251,-82.6878
13:47:39.344,-28.3126,-86.3128
13:47:39.354,-28.8751,-89.5003
13:47:39.364,-30.1876,-92.6254
13:47:39.374,-31.8751,-95.3129
13:47:39.385,-33.0626,-96.3129
13:47:39.394,-34.4376,-99.5629
13:47:39.405,-35.1251,-101.1879
13:47:39.414,-37.1251,-104.8129
13:47:39.426,-38.2501,-107.8129
13:47:39.434,-38.8126,-110.0629
13:47:39.445,-38.5626,-110.7504
13:47:39.454,-35.9376,-109.3129
13:47:39.466,-31.5626,-102.0004
13:47:39.487,-22.3751,-88.8128
13:47:39.489,-11.125,-69.1878
13:47:39.516,0.6875,-48.1252
13:47:39.520,12.125,-25.6251
13:47:39.525,21.6876,-7.75
13:47:39.529,28.7501,8.3125
13:47:39.554,34.6876,20.3751
13:47:39.557,39.2502,28.1876
13:47:39.559,42.5002,34.8126
13:47:39.565,44.5627,40.6877
13:47:39.593,46.9377,43.5627
13:47:39.595,48.8127,47.9377
13:47:39.598,50.5627,50.0627
13:47:39.626,53.6877,55.2502
13:47:39.627,55.5002,61.1877
13:47:39.631,58.2502,66.3753
13:47:39.635,60.2502,71.7503
13:47:39.650,60.1877,72.1253
13:47:39.655,60.5627,73.5003
13:47:39.664,61.0002,75.1253
13:47:39.674,61.5627,77.8753
13:47:39.684,60.3752,77.4378
13:47:39.694,59.8752,78.8128
13:47:39.708,58.9377,79.0003
13:47:39.714,58.3127,81.9378
13:47:39.724,56.9377,81.4378
13:47:39.734,54.2502,79.5628
13:47:39.745,51.0627,76.0003
13:47:39.754,48.3127,72.0003
13:47:39.764,46.3127,66.2503
13:47:39.774,43.2502,61.5002
13:47:39.785,40.9377,56.4377
13:47:39.794,37.5626,52.5002
13:47:39.804,35.6251,48.3752
13:47:39.814,33.8751,45.5002
13:47:39.824,32.7501,43.5002
13:47:39.835,30.6251,41.8127
13:47:39.844,30.0626,39.5002
13:47:39.855,29.0626,38.2501
13:47:39.864,27.6251,35.2501
13:47:39.874,26.6251,32.8126
13:47:39.887,25.1876,31.1251
13:47:39.894,24.3751,29.6251
13:47:39.904,23.0626,28.0626
13:47:39.915,22.0626,26.8126
13:47:39.937,21.0626,24.0001
13:47:39.939,19.6251,21.9376
13:47:39.954,18.1251,18.9376
13:47:39.956,17.1876,17.5626
13:47:39.964,16.0626,15.3126
13:47:39.974,14.2501,13.5626
13:47:39.987,13.0625,9.8125
13:47:39.996,11.9375,8.1875
13:47:40.004,10.4375,5.25
13:47:40.016,9.25,3
13:47:40.041,8.25,1
13:47:40.044,7.25,-0.875
13:47:40.045,6.6875,-3
13:47:40.054,4.625,-5.125
13:47:40.064,4.0625,-7
13:47:40.074,3,-9.4375
13:47:40.084,1.1875,-11.5625
13:47:40.096,0.6875,-13.1876
13:47:40.106,-0.25,-15.8751
13:47:40.114,-0.5,-17.7501
13:47:40.124,-1.75,-20.0001
13:47:40.134,-3.1875,-21.1251
13:47:40.144,-4.1875,-21.9376
13:47:40.154,-3.875,-24.9376
13:47:40.166,-5.125,-26.8126
13:47:40.175,-5.4375,-27.5626
13:47:40.184,-6.25,-28.4376
13:47:40.196,-6.9375,-30.1251
13:47:40.204,-7.3125,-32.1876
13:47:40.214,-8.5,-32.0626
13:47:40.225,-10.5625,-35.1251
13:47:40.264,-13.2501,-39.0626
13:47:40.265,-16.2501,-40.6252
13:47:40.269,-17.8126,-43.8752
13:47:40.271,-19.9376,-45.8127
13:47:40.275,-21.0001,-48.4377
13:47:40.316,-22.3751,-50.5002
13:47:40.318,-24.0001,-52.8127
13:47:40.320,-25.1876,-54.7502
13:47:40.322,-26.0626,-56.1252
13:47:40.325,-27.2501,-58.4377
13:47:40.361,-27.7501,-59.7502
13:47:40.366,-29.1876,-61.7502
13:47:40.368,-29.0626,-63.8127
13:47:40.370,-29.6251,-64.3752
13:47:40.375,-29.1251,-64.5627
13:47:40.400,-27.2501,-61.4377
13:47:40.402,-22.8126,-54.8752
13:47:40.404,-17.4376,-45.9377
13:47:40.414,-11.25,-34.0001
13:47:40.424,-4.6875,-20.8126
13:47:40.434,1.5,-8.9375
13:47:40.444,6.6875,2.625
13:47:40.458,11.1875,11.625
13:47:40.465,14.6251,20.1876
13:47:40.485,16.1876,26.7501
13:47:40.492,18.0001,30.7501
13:47:40.494,18.5001,33.6876
13:47:40.509,19.0001,36.9376
13:47:40.514,18.1251,37.3126
13:47:40.525,17.4376,39.6252
13:47:40.534,17.1876,38.5001
13:47:40.544,16.6251,39.1876
13:47:40.555,15.2501,39.1876
13:47:40.564,13.5626,36.6251
13:47:40.575,12,35.3751
13:47:40.584,8.6875,32.2501
13:47:40.595,2.8125,25.4376
13:47:40.604,-1,19.3751
13:47:40.615,-4.9375,15.5001
13:47:40.624,-9.0625,7.9375
13:47:40.634,-14.5626,-0.5625
13:47:40.645,-19.8751,-6.8125
13:47:40.654,-26.9376,-17.9376
13:47:40.664,-34.5626,-29.5001
13:47:40.675,-41.1252,-39.6877
13:47:40.684,-47.6877,-52.0002
13:47:40.695,-55.2502,-63.1877
13:47:40.705,-63.5627,-77.5003
13:47:40.714,-69.5003,-89.1878
13:47:40.727,-75.6878,-100.9379
13:47:40.736,-82.0003,-112.0629
13:47:40.744,-88.0003,-124.7505
13:47:40.754,-95.0004,-135.5005
13:47:40.765,-100.3129,-147.3131
13:47:40.774,-105.6254,-156.8756
13:47:40.785,-109.9379,-166.8131
13:47:40.795,-114.0004,-176.0632
13:47:40.805,-118.7505,-185.3757
13:47:40.815,-122.813,-194.6257
13:47:40.825,-125.938,-202.6883
13:47:40.839,-130.438,-210.3133
13:47:40.844,-132.8755,-218.1258
13:47:40.856,-137.188,-224.8759
13:47:40.866,-139.313,-231.9384
13:47:40.875,-142.438,-237.8759
13:47:40.885,-145.5005,-243.5634
13:47:40.894,-147.6256,-248.5634
13:47:40.905,-149.8131,-253.501
13:47:40.915,-151.2506,-257.1885
13:47:40.925,-153.5631,-262.9385
13:47:40.935,-155.1881,-266.4385
13:47:40.969,-157.3131,-270.751
13:47:40.973,-158.6256,-275.126
13:47:40.975,-161.8756,-278.3136
13:47:40.976,-163.8756,-284.4386
13:47:41.006,-166.5631,-289.2511
13:47:41.008,-168.7506,-294.8761
13:47:41.010,-171.5007,-300.2512
13:47:41.016,-173.5007,-305.0012
13:47:41.050,-176.4382,-311.5637
13:47:41.052,-178.4382,-316.9387
13:47:41.055,-181.5007,-322.8137
13:47:41.059,-183.5007,-328.1888
13:47:41.086,-185.7507,-333.6263
13:47:41.088,-187.1257,-338.0638
13:47:41.090,-189.3132,-341.5638
13:47:41.095,-190.3757,-346.0638
13:47:41.126,-191.1882,-348.6888
13:47:41.128,-193.1257,-352.0013
13:47:41.130,-193.4382,-355.0013
13:47:41.137,-194.1257,-357.1264
13:47:41.145,-194.2507,-360.1889
13:47:41.156,-194.4382,-361.2514
13:47:41.166,-196.6882,-362.9389
13:47:41.176,-196.2507,-364.7514
13:47:41.187,-196.1882,-365.8764
13:47:41.198,-196.3757,-366.6264
13:47:41.204,-195.5632,-367.1889
13:47:41.215,-195.4382,-367.1264
13:47:41.233,-194.1882,-367.5014
13:47:41.235,-193.7507,-366.6889
13:47:41.252,-191.9382,-367.0639
13:47:41.255,-190.1882,-366.0014
13:47:41.266,-189.6882,-364.1264
13:47:41.275,-187.6882,-364.5014
13:47:41.285,-185.8132,-362.8764
13:47:41.297,-185.2507,-360.8764
13:47:41.320,-183.6257,-360.4389
13:47:41.323,-181.7507,-357.3764
13:47:41.328,-180.3757,-355.9388
13:47:41.335,-178.3132,-351.5013
13:47:41.345,-176.3757,-346.1263
13:47:41.355,-171.8757,-339.3138
13:47:41.365,-165.1881,-328.3763
13:47:41.375,-158.0631,-313.1887
13:47:41.385,-149.1881,-296.0011
13:47:41.395,-139.438,-276.501
13:47:41.406,-130.2505,-258.1885
13:47:41.414,-122.063,-238.9384
13:47:41.427,-115.8129,-223.2509
13:47:41.437,-109.6254,-210.8758
13:47:41.445,-104.0004,-198.6258
13:47:41.455,-100.3129,-188.3757
13:47:41.465,-95.6879,-178.8132
13:47:41.475,-93.5629,-169.9381
13:47:41.485,-89.8128,-163.6256
13:47:41.500,-86.9378,-154.7506
13:47:41.510,-84.3753,-147.8756
13:47:41.520,-81.0628,-141.3755
13:47:41.530,-79.3128,-133.813
13:47:41.540,-75.9378,-127.6255
13:47:41.550,-73.0003,-121.2505
13:47:41.560,-70.8753,-115.5629
13:47:41.570,-68.4378,-110.4379
13:47:41.580,-67.0628,-105.0629
13:47:41.589,-65.6253,-102.3129
13:47:41.600,-64.3127,-98.3754
13:47:41.636,-64.3752,-94.3129
13:47:41.637,-64.3127,-94.6879
13:47:41.639,-64.7502,-93.8129
13:47:41.642,-66.9378,-96.7504
13:47:41.680,-68.7503,-100.9379
13:47:41.682,-73.6878,-107.3129
13:47:41.685,-76.1253,-111.4379
13:47:41.689,-78.3128,-116.9379
13:47:41.693,-79.6253,-119.563
13:47:41.702,-82.5003,-122.313
13:47:41.736,-83.5628,-125.438
13:47:41.738,-84.2503,-126.313
13:47:41.740,-85.4378,-126.6255
13:47:41.743,-85.5003,-128.6255
13:47:41.773,-85.9378,-129.313
13:47:41.790,-86.6253,-129.188
13:47:41.804,-87.4378,-129.063
13:47:41.807,-87.1878,-131.0005
13:47:41.810,-88.1253,-129.8755
13:47:41.810,-88.3753,-131.813
13:47:41.815,-88.2503,-132.438
13:47:41.825,-89.5628,-132.438
13:47:41.835,-88.9378,-133.938
13:47:41.845,-88.8128,-134.063
13:47:41.856,-90.3128,-133.938
13:47:41.867,-90.3128,-135.3755
13:47:41.875,-90.4378,-137.0005
13:47:41.885,-89.7503,-136.5005
13:47:41.895,-90.6253,-135.7505
13:47:41.905,-90.1253,-138.313
13:47:41.915,-90.3128,-137.2505
13:47:41.925,-90.6878,-138.938
13:47:41.935,-89.1878,-138.938
13:47:41.945,-88.9378,-138.7505
13:47:41.955,-88.5003,-138.313
13:47:41.971,-88.7503,-139.813
13:47:41.976,-89.5628,-142.313
13:47:41.985,-89.0003,-142.063
13:47:41.995,-88.8128,-143.5005
13:47:42.006,-87.8753,-142.313
13:47:42.015,-88.0003,-141.8755
13:47:42.025,-87.9378,-142.938
13:47:42.036,-86.8128,-143.313
13:47:42.045,-87.0003,-143.438
13:47:42.055,-86.3753,-143.688
13:47:42.065,-85.8128,-142.938
13:47:42.076,-85.7503,-143.3755
13:47:42.087,-84.8753,-143.0005
13:47:42.095,-84.5628,-142.0005
13:47:42.105,-84.4378,-143.2505
13:47:42.115,-83.1253,-143.2505
13:47:42.125,-83.6878,-143.1255
13:47:42.135,-82.5003,-143.688
13:47:42.145,-81.9378,-142.8755
13:47:42.155,-82.0003,-143.938
13:47:42.165,-81.4378,-144.0005
13:47:42.176,-81.2503,-142.938
13:47:42.185,-80.3128,-142.7505
13:47:42.195,-79.1253,-142.688
13:47:42.205,-79.2503,-143.3755
13:47:42.217,-78.5003,-143.3755
13:47:42.226,-78.4378,-143.0005
13:47:42.235,-78.5003,-141.6255
13:47:42.245,-77.4378,-143.563
13:47:42.256,-77.1878,-142.5005
13:47:42.265,-77.3753,-142.813
13:47:42.275,-75.8753,-142.3755
13:47:42.286,-76.7503,-142.063
13:47:42.295,-75.5628,-142.813
13:47:42.306,-75.1253,-141.813
13:47:42.317,-74.4378,-142.563
13:47:42.327,-73.9378,-139.8755
13:47:42.335,-71.5628,-136.188
13:47:42.345,-67.6253,-132.2505
13:47:42.355,-63.0002,-122.188
13:47:42.365,-55.8752,-111.8129
13:47:42.375,-47.7502,-95.1254
13:47:42.406,-40.3127,-78.8128
13:47:42.408,-31.6876,-63.2502
13:47:42.410,-25.9376,-48.5002
13:47:42.415,-20.1251,-36.2501
13:47:42.446,-15.4376,-24.2501
13:47:42.448,-11.1875,-15.1876
13:47:42.450,-6.875,-6.1875
13:47:42.456,-4.875,1.625
13:47:42.487,-2.4375,7.0625
13:47:42.489,0.4375,13.1876
13:47:42.492,2.4375,19.5626
13:47:42.497,4.875,23.8126
13:47:42.557,7.25,30.5626
13:47:42.558,8.1875,37.3126
13:47:42.561,10.875,41.8752
13:47:42.566,13.3126,47.6877
13:47:42.567,14.8126,52.6877
13:47:42.567,16.6876,56.9377
13:47:42.575,18.0626,61.9377
13:47:42.602,19.0001,65.3752
13:47:42.603,20.2501,68.6878
13:47:42.606,19.8751,72.0628
13:47:42.615,20.2501,72.5003
13:47:42.625,19.1876,72.5628
13:47:42.635,17.6876,69.7503
13:47:42.645,15.5001,67.4378
13:47:42.655,13.8751,63.5002
13:47:42.666,11.6875,59.7502
13:47:42.677,8.6875,55.3752
13:47:42.685,7.0625,52.1252
13:47:42.695,5.4375,48.3127
13:47:42.705,4.6875,45.2502
13:47:42.715,2.9375,43.5002
13:47:42.730,1.625,40.1252
13:47:42.735,0.9375,37.6251
13:47:42.745,-0.4375,35.7501
13:47:42.756,-1.8125,33.1251
13:47:42.767,-2.5625,30.7501
13:47:42.775,-3.8125,28.0001
13:47:42.785,-5.125,25.8126
13:47:42.795,-6.3125,22.6251
13:47:42.805,-7.75,20.8751
13:47:42.815,-9.25,18.3126
13:47:42.825,-10.625,14.7501
13:47:42.835,-12.875,12.4375
13:47:42.845,-13.5001,9.25
13:47:42.856,-14.4376,6.4375
13:47:42.865,-15.6251,3.375
13:47:42.875,-16.6876,0.4375
13:47:42.885,-17.9376,-2.0625
13:47:42.895,-19.5626,-4
13:47:42.905,-20.5626,-7.0625
13:47:42.915,-21.1876,-9.9375
13:47:42.925,-22.5626,-11.9375
13:47:42.935,-23.6251,-14.6876
13:47:42.947,-24.5001,-16.6876
13:47:42.958,-25.0626,-20.3126
13:47:42.966,-26.3751,-23.3751
13:47:42.975,-26.5626,-24.5626
13:47:42.985,-26.9376,-27.0626
13:47:42.995,-27.8751,-28.7501
13:47:43.005,-28.0626,-31.1876
13:47:43.015,-29.3126,-33.8751
13:47:43.025,-30.7501,-35.0001
13:47:43.035,-30.5626,-38.1251
13:47:43.045,-31.5001,-38.8751
13:47:43.055,-31.8126,-41.5002
13:47:43.065,-31.8126,-43.8752
13:47:43.086,-33.1876,-45.1877
13:47:43.089,-32.8751,-47.8752
13:47:43.121,-33.1876,-49.0002
13:47:43.123,-34.3126,-51.2502
13:47:43.127,-34.5001,-52.8752
13:47:43.127,-35.0001,-55.0627
13:47:43.154,-34.8751,-55.5002
13:47:43.156,-35.3751,-57.0627
13:47:43.159,-35.0001,-59.3752
13:47:43.166,-36.0001,-60.5002
13:47:43.193,-36.4376,-62.1877
13:47:43.195,-36.6251,-64.1877
13:47:43.198,-37.1876,-64.8752
13:47:43.205,-36.8126,-66.3753
13:47:43.236,-38.1876,-68.3128
13:47:43.238,-37.8751,-69.8753
13:47:43.240,-37.8126,-70.6253
13:47:43.247,-38.3126,-73.0628
13:47:43.263,-38.9376,-74.2503
13:47:43.268,-38.5626,-75.8128
13:47:43.276,-39.8127,-77.1878
13:47:43.286,-39.8752,-78.3753
13:47:43.295,-39.6252,-79.5628
13:47:43.305,-38.8126,-78.6253
13:47:43.315,-37.5001,-77.1878
13:47:43.325,-35.3126,-73.5628
13:47:43.335,-29.5001,-65.2503
13:47:43.347,-23.2501,-53.4377
13:47:43.355,-16.0626,-37.4376
13:47:43.365,-7.625,-22.6251
13:47:43.375,-1.8125,-7
13:47:43.385,4.5,5.75
13:47:43.396,9.0625,16.1876
13:47:43.406,13.5001,26.6251
13:47:43.417,16.5626,34.1876
13:47:43.425,19.1251,41.8752
13:47:43.436,20.6251,47.0627
13:47:43.445,22.8126,52.5627
13:47:43.455,24.4376,58.0002
13:47:43.466,26.8126,62.6877
13:47:43.475,27.9376,66.5628
13:47:43.487,29.5001,72.3128
13:47:43.497,31.8126,77.3753
13:47:43.505,33.6876,82.1253
13:47:43.516,35.3126,86.8128
13:47:43.525,36.1251,90.3753
13:47:43.535,37.6251,95.1879
13:47:43.545,38.1876,98.8754
13:47:43.555,39.1251,101.1254
13:47:43.565,38.6876,103.1254
13:47:43.575,38.6251,103.5004
13:47:43.585,36.9376,102.4379
13:47:43.595,34.5626,99.6254
13:47:43.605,32.4376,95.5629
13:47:43.615,29.9376,90.9379
13:47:43.625,26.9376,87.5628
13:47:43.638,24.3126,83.0003
13:47:43.647,22.6251,79.2503
13:47:43.656,20.8751,75.3128
13:47:43.667,19.3751,72.5003
13:47:43.675,18.1251,69.9378
13:47:43.685,17.0001,67.8753
13:47:43.695,16.3751,65.6878
13:47:43.705,14.8751,63.6252
13:47:43.716,14.0626,62.5627
13:47:43.725,12.625,59.6252
13:47:43.735,11.875,58.3127
13:47:43.746,10.25,55.1252
13:47:43.756,9.3125,53.0002
13:47:43.765,8.75,50.9377
13:47:43.775,6.75,47.7502
13:47:43.786,4.3125,44.5627
13:47:43.795,4.25,41.3127
13:47:43.806,1.9375,39.2502
13:47:43.828,0.5625,36.3126
13:47:43.829,-0.6875,32.8751
13:47:43.845,-1.375,30.8751
13:47:43.960,-2.625,28.0001
13:47:43.960,-3.125,25.5001
13:47:43.961,-4.9375,22.4376
13:47:43.964,-6.3125,19.3751
13:47:43.970,-7.0625,16.9376
13:47:43.970,-8.125,15.0001
13:47:43.970,-9.375,12.625
13:47:43.976,-10.375,8.875
13:47:43.991,-11.8125,6.5
13:47:43.995,-13,4.125
13:47:44.005,-13.0625,0.875
13:47:44.017,-14.1251,-1.5
13:47:44.025,-15.0626,-4.1875
13:47:44.035,-16.4376,-5.75
13:47:44.046,-17.3751,-8
13:47:44.058,-17.1876,-10.1875
13:47:44.065,-18.5001,-13.125
13:47:44.075,-18.4376,-14.4376
13:47:44.085,-19.8126,-17.1876
13:47:44.095,-20.2501,-19.6876
13:47:44.105,-21.0001,-20.7501
13:47:44.116,-21.1251,-22.8751
13:47:44.128,-22.4376,-25.8126
13:47:44.135,-29.4376,-42.3752
13:47:44.145,-29.5626,-43.3752
13:47:44.155,-30.2501,-45.7502
13:47:44.165,-29.8751,-47.3127
13:47:44.176,-31.1876,-49.0627
13:47:44.188,-31.5001,-51.0627
13:47:44.195,-32.0001,-52.5627
13:47:44.205,-32.3751,-54.1877
13:47:44.215,-32.5001,-53.9377
13:47:44.225,-32.4376,-55.6877
13:47:44.236,-31.8126,-53.6252
13:47:44.247,-30.1876,-53.8127
13:47:44.255,-27.0001,-47.9377
13:47:44.265,-21.3126,-39.6877
13:47:44.275,-14.7501,-27.8751
13:47:44.285,-7.25,-13.125
13:47:44.295,0.125,1.4375
13:47:44.306,6.5625,16.5626
13:47:44.316,12,28.8126
13:47:44.325,16.3751,40.1877
13:47:44.337,21.5001,49.6877
13:47:44.345,23.3751,57.8752
13:47:44.355,26.0001,64.4377
13:47:44.366,28.6876,70.4378
13:47:44.375,29.8751,77.2503
13:47:44.392,32.6251,82.2503
13:47:44.408,33.8751,88.1253
13:47:44.409,35.5001,93.0004
13:47:44.425,37.3126,97.9379
13:47:44.428,38.9376,103.7504
13:47:44.435,40.7502,108.1254
13:47:44.446,42.6252,113.3754
13:47:44.455,44.1252,118.2505
13:47:44.468,44.5002,121.438
13:47:44.475,45.0002,125.5005
13:47:44.485,45.4377,128.3755
13:47:44.495,45.4377,128.6255
13:47:44.505,44.7502,129.7505
13:47:44.516,43.1877,127.563
13:47:44.525,40.4377,123.938
13:47:44.535,37.5001,119.6255
13:47:44.545,33.7501,113.8754
13:47:44.555,31.0626,108.5629
13:47:44.591,27.8126,102.6254
13:47:44.593,24.9376,97.1879
13:47:44.596,22.5626,92.2504
13:47:44.598,20.3751,88.9378
13:47:44.606,18.8751,84.1878
13:47:44.638,16.8126,81.3753
13:47:44.640,15.8751,78.0628
13:47:44.643,14.2501,74.5628
13:47:44.649,13.3751,72.0003
13:47:44.682,11.875,68.5003
13:47:44.684,10.4375,65.4378
13:47:44.687,8.8125,61.7502
13:47:44.689,7.5,57.8127
13:47:44.695,5.875,54.3127
13:47:44.729,3.5625,50.3127
13:47:44.731,2.25,47.0627
13:47:44.735,0.25,42.1252
13:47:44.737,-1.4375,37.9376
13:47:44.745,-3.3125,34.3126
13:47:44.764,-5.1875,30.3126
13:47:44.767,-6.25,26.6876
13:47:44.775,-8.0625,22.5626
13:47:44.785,-9.375,17.6876
13:47:44.795,-11.875,14.6876
13:47:44.805,-11.9375,11.5
13:47:44.815,-14.1251,7.9375
13:47:44.827,-15.8751,4.5
13:47:44.836,-17.0001,0.25
13:47:44.846,-18.8126,-3.375
13:47:44.855,-19.6876,-6.5
13:47:44.867,-21.3126,-9.375
13:47:44.877,-22.3751,-13.3126
13:47:44.885,-22.5001,-16.6251
13:47:44.895,-24.1251,-18.5626
13:47:44.905,-25.4376,-22.5001
13:47:44.916,-26.4376,-25.1251
13:47:44.928,-27.2501,-28.3751
13:47:44.935,-28.5001,-30.7501
13:47:44.946,-29.1251,-34.0626
13:47:44.957,-29.4376,-35.5626
13:47:44.965,-30.5001,-38.8751
13:47:44.977,-31.3751,-41.0002
13:47:44.985,-32.2501,-43.6252
13:47:44.995,-32.3751,-46.3752
13:47:45.007,-33.6876,-47.9377
13:47:45.016,-33.5626,-50.7502
13:47:45.028,-34.6251,-52.2502
13:47:45.036,-34.8126,-54.6252
13:47:45.045,-35.3126,-56.9377
13:47:45.057,-36.0626,-58.5002
13:47:45.067,-36.5626,-61.6252
13:47:45.075,-36.7501,-63.3127
13:47:45.086,-37.9376,-64.4377
13:47:45.097,-38.1876,-67.0628
13:47:45.105,-39.0626,-67.8753
13:47:45.117,-39.0001,-70.6253
13:47:45.126,-38.6876,-72.3753
13:47:45.163,-40.0627,-73.7503
13:47:45.166,-40.2502,-76.0628
13:47:45.168,-40.1877,-77.2503
13:47:45.170,-41.0627,-77.1253
13:47:45.175,-41.5002,-80.8753
13:47:45.185,-40.6877,-82.0003
13:47:45.204,-41.9377,-82.9378
13:47:45.209,-40.9377,-83.2503
13:47:45.221,-40.7502,-82.5003
13:47:45.231,-38.5626,-81.0003
13:47:45.236,-34.2501,-76.1253
13:47:45.247,-29.1876,-64.6877
13:47:45.259,-21.5626,-52.0002
13:47:45.266,-12.75,-36.3126
13:47:45.276,-5.6875,-20.1876
13:47:45.286,2.25,-4.75
13:47:45.296,6.75,8.875
13:47:45.305,12.0625,20.1876
13:47:45.316,16.6251,31.2501
13:47:45.329,20.1876,39.8127
13:47:45.364,23.0001,47.0002
13:47:45.367,26.5001,55.7502
13:47:45.369,28.1876,62.5002
13:47:45.371,31.5626,69.2503
13:47:45.376,33.2501,76.5628
13:47:45.411,36.1876,83.4378
13:47:45.413,38.0001,90.1253
13:47:45.415,40.5002,96.1254
13:47:45.451,42.8752,102.1254
13:47:45.451,43.6252,108.8754
13:47:45.453,44.8127,112.4379
13:47:45.459,46.5002,117.7505
13:47:45.461,46.5002,121.7505
13:47:45.477,47.0002,125.0005
13:47:45.477,47.3127,126.5005
13:47:45.506,46.7502,126.8755
13:47:45.508,44.5627,125.6255
13:47:45.511,43.0002,124.2505
13:47:45.522,39.3127,119.0005
13:47:45.526,35.7501,114.0004
13:47:45.536,32.6876,107.0004
13:47:45.549,28.6876,102.0629
13:47:45.556,25.9376,95.7504
13:47:45.567,22.3751,90.4378
13:47:45.607,20.5626,85.6253
13:47:45.608,18.5626,81.7503
13:47:45.612,16.7501,77.1878
13:47:45.617,15.0001,73.1878
13:47:45.623,14.5626,70.6878
13:47:45.633,12.625,67.2503
13:47:45.641,10.8125,65.0002
13:47:45.651,9.5,60.3127
13:47:45.660,8.3125,58.3752
13:47:45.671,6.0625,53.7502
13:47:45.691,4.5,50.4377
13:47:45.698,2.5625,46.3127
13:47:45.713,1.25,43.1877
13:47:45.715,-1,37.8751
13:47:45.724,-2.6875,34.9376
13:47:45.731,-4.625,29.6251
13:47:45.742,-7.875,24.9376
13:47:45.752,-9.375,19.6876
13:47:45.761,-10.75,16.5001
13:47:45.773,-12.1875,11.75
13:47:45.781,-13.3751,9.5
13:47:45.791,-15.5001,4
13:47:45.801,-16.8126,1.0625
13:47:45.811,-18.4376,-3.375
13:47:45.824,-19.0626,-6.8125
13:47:45.832,-20.6876,-10.4375
13:47:45.841,-22.0626,-13.6876
13:47:45.851,-22.5626,-16.3126
13:47:45.862,-24.9376,-19.7501
13:47:45.872,-26.1251,-22.8751
13:47:45.881,-26.3751,-26.5626
13:47:45.898,-27.8751,-29.5001
13:47:45.901,-28.9376,-31.6876
13:47:45.912,-29.5001,-35.3126
13:47:45.921,-29.8751,-36.8751
13:47:45.932,-31.3126,-39.1876
13:47:45.941,-30.9376,-42.8127
13:47:45.952,-32.4376,-44.3752
13:47:45.961,-32.4376,-47.6877
13:47:45.971,-33.8126,-48.8127
13:47:45.981,-34.6251,-52.8127
13:47:45.992,-34.5001,-54.4377
13:47:46.003,-36.0001,-57.6877
13:47:46.011,-36.3126,-60.0002
13:47:46.022,-36.7501,-61.2502
13:47:46.032,-37.8751,-62.5002
13:47:46.043,-37.9376,-66.3753
13:47:46.051,-38.5001,-67.0628
13:47:46.061,-38.8751,-69.5628
13:47:46.090,-38.8126,-71.1878
13:47:46.093,-39.8752,-72.5003
13:47:46.095,-40.0627,-75.5628
13:47:46.101,-39.6877,-76.3753
13:47:46.132,-41.0627,-77.5003
13:47:46.137,-41.4377,-79.8753
13:47:46.139,-41.1252,-81.6878
13:47:46.142,-42.0002,-83.3128
13:47:46.181,-41.7502,-84.6253
13:47:46.184,-42.0627,-85.6253
13:47:46.185,-42.9377,-88.3753
13:47:46.193,-42.3752,-89.4378
13:47:46.193,-44.2502,-89.5003
13:47:46.202,-43.8127,-91.6879
13:47:46.232,-43.6252,-92.3129
13:47:46.234,-42.5627,-91.0004
13:47:46.237,-39.5627,-88.5628
13:47:46.243,-35.7501,-81.3128
13:47:46.254,-28.8126,-70.6878
13:47:46.262,-21.0626,-54.4377
13:47:46.273,-13.3126,-39.4377
13:47:46.281,-4.875,-22.1251
13:47:46.293,1.5625,-7.125
13:47:46.302,8.25,6.75
13:47:46.311,13.0625,19.0626
13:47:46.321,16.5001,29.8751
13:47:46.332,20.3751,39.4377
13:47:46.341,23.4376,46.7502
13:47:46.351,27.3126,53.6877
13:47:46.361,28.3751,60.7502
13:47:46.373,31.4376,67.6253
13:47:46.381,33.6251,75.5628
13:47:46.391,35.5001,80.8128
13:47:46.401,38.0626,88.3128
13:47:46.411,39.7502,92.7504
13:47:46.440,41.5627,99.8129
13:47:46.441,42.9377,105.5629
13:47:46.444,44.4377,109.9379
13:47:46.451,46.0002,114.2504
13:47:46.461,45.8752,117.688
13:47:46.471,46.1252,120.0005
13:47:46.483,45.8127,121.438
13:47:46.491,43.6877,120.313
13:47:46.509,42.2502,118.6255
13:47:46.523,39.9377,115.0004
13:47:46.525,36.8126,110.1879
13:47:46.534,33.4376,103.6879
13:47:46.541,29.6251,97.2504
13:47:46.551,26.5626,91.4379
13:47:46.561,23.1251,85.2503
13:47:46.571,20.9376,80.2503
13:47:46.581,19.0626,75.7503
13:47:46.591,16.2501,71.8128
13:47:46.605,15.4376,67.5628
13:47:46.612,13.5626,63.9377
13:47:46.621,12.25,60.8127
13:47:46.631,10.4375,57.1877
13:47:46.645,9.5,53.7502
13:47:46.656,8.125,50.5002
13:47:46.662,5.625,47.6877
13:47:46.671,3.8125,43.6877
13:47:46.682,2.1875,40.8127
13:47:46.691,1.0625,35.6876
13:47:46.702,-1.5625,31.6876
13:47:46.711,-3.4375,28.2501
13:47:46.721,-4.625,23.1251
13:47:46.731,-6.9375,20.8751
13:47:46.742,-7.9375,15.3751
13:47:46.752,-10.125,12.1875
13:47:46.762,-11.1875,7.625
13:47:46.771,-13.9376,4.375
13:47:46.782,-15.0626,0
13:47:46.793,-17.0626,-3.75
13:47:46.801,-18.0001,-7.0625
13:47:46.823,-19.6251,-11.5
13:47:46.825,-20.4376,-14.1876
13:47:46.853,-21.1876,-17.8126
13:47:46.856,-23.5626,-20.5626
13:47:46.859,-23.8751,-23.7501
13:47:46.861,-25.6876,-28.2501
13:47:46.891,-27.1251,-29.9376
13:47:46.893,-27.7501,-34.1251
13:47:46.895,-29.0626,-35.9376
13:47:46.902,-29.0626,-39.8127
13:47:46.928,-31.0626,-40.8752
13:47:46.930,-30.6251,-44.9377
13:47:46.933,-32.1251,-46.6252
13:47:46.968,-32.8126,-49.6877
13:47:46.970,-33.1251,-52.3127
13:47:46.973,-34.7501,-54.4377
13:47:46.976,-33.8751,-56.6252
13:47:46.981,-35.8126,-59.5627
13:47:47.001,-35.6876,-61.8752
13:47:47.007,-36.8751,-63.8752
13:47:47.016,-37.1876,-66.1878
13:47:47.028,-38.0626,-67.8753
13:47:47.044,-38.5001,-70.0628
13:47:47.045,-38.5001,-72.1878
13:47:47.053,-38.8126,-74.5003
13:47:47.062,-40.3127,-75.5628
13:47:47.072,-40.3127,-78.1253
13:47:47.081,-40.6877,-78.0628
13:47:47.091,-41.0002,-81.0003
13:47:47.103,-40.9377,-82.5628
13:47:47.115,-42.0002,-83.8753
13:47:47.121,-41.5627,-85.9378
13:47:47.132,-42.7502,-86.8128
13:47:47.141,-42.5627,-88.8753
13:47:47.154,-43.5627,-90.1878
13:47:47.161,-43.6252,-92.3754
13:47:47.171,-44.6252,-92.5629
13:47:47.181,-43.9377,-94.9379
13:47:47.192,-44.3752,-94.5004
13:47:47.202,-43.0627,-94.8129
13:47:47.211,-41.1877,-92.2504
13:47:47.222,-36.6876,-87.0003
13:47:47.235,-32.0001,-76.6878
13:47:47.241,-24.4376,-64.5627
13:47:47.251,-16.0001,-48.1252
13:47:47.261,-8.75,-31.8751
13:47:47.273,-1.75,-15.6876
13:47:47.282,4.6875,-2.1875
13:47:47.292,10.0625,11
13:47:47.302,14.2501,20.6251
13:47:47.314,17.6251,31.0626
13:47:47.321,20.1876,38.6876
13:47:47.331,23.3126,45.6877
13:47:47.341,24.8751,52.2502
13:47:47.351,27.7501,57.9377
13:47:47.361,30.0001,65.2502
13:47:47.372,31.4376,71.6878
13:47:47.382,33.8126,76.3753
13:47:47.394,35.0626,82.8128
13:47:47.401,37.0001,87.0003
13:47:47.411,38.5001,91.0004
13:47:47.422,38.5001,95.7504
13:47:47.432,40.3127,98.0629
13:47:47.442,40.3752,101.6254
13:47:47.452,40.3127,102.7504
13:47:47.461,39.6877,103.1879
13:47:47.471,38.3751,101.5629
13:47:47.482,36.3751,98.9379
13:47:47.491,33.3751,95.7504
13:47:47.502,31.0626,89.8753
13:47:47.511,26.7501,84.5003
13:47:47.530,24.8751,77.8128
13:47:47.532,21.6876,72.8128
13:47:47.562,19.4376,67.6878
13:47:47.565,17.3751,63.1252
13:47:47.568,15.2501,59.2502
13:47:47.575,14.5626,56.1877
13:47:47.604,12.8125,53.3752
13:47:47.607,11.25,50.8127
13:47:47.609,10.25,47.6877
13:47:47.612,8.125,45.1877
13:47:47.644,7.75,40.6877
13:47:47.646,5.9375,39.0001
13:47:47.649,4.875,34.9376
13:47:47.682,3.0625,31.6251
13:47:47.683,1.8125,28.0001
13:47:47.687,-0.4375,24.4376
13:47:47.690,-1.1875,21.4376
13:47:47.692,-3.0625,17.0001
13:47:47.719,-5.5,13.6876
13:47:47.721,-6.5,9.875
13:47:47.724,-8.375,6.4375
13:47:47.731,-10.375,3.1875
13:47:47.742,-12.125,-0.8125
13:47:47.752,-13.1876,-5.3125
13:47:47.761,-14.5001,-8.4375
13:47:47.777,-15.8126,-12
13:47:47.784,-17.1251,-15.0001
13:47:47.793,-17.4376,-18.4376
13:47:47.810,-19.0001,-21.1251
13:47:47.814,-20.9376,-22.9376
13:47:47.828,-21.2501,-27.6251
13:47:47.843,-22.8126,-29.9376
13:47:47.846,-23.9376,-32.2501
13:47:47.861,-25.2501,-36.7501
13:47:47.864,-26.3126,-39.1251
13:47:47.871,-26.6251,-41.3127
13:47:47.884,-27.6876,-43.6252
13:47:47.891,-28.4376,-46.1877
13:47:47.902,-28.5626,-48.6877
13:47:47.912,-30.4376,-49.4377
13:47:47.921,-30.3126,-53.0002
13:47:47.931,-31.5001,-55.0002
13:47:47.941,-32.0001,-57.0002
13:47:47.953,-32.7501,-60.0627
13:47:47.961,-32.5001,-61.2502
13:47:47.971,-34.0626,-63.8127
13:47:47.981,-34.2501,-64.5627
13:47:47.992,-35.0001,-67.0628
13:47:48.002,-35.3126,-67.9378
13:47:48.012,-36.0001,-71.1253
13:47:48.024,-35.1251,-71.9378
13:47:48.031,-36.6251,-73.1878
13:47:48.041,-37.1251,-75.6253
13:47:48.052,-37.7501,-77.1878
13:47:48.061,-37.8126,-78.5628
13:47:48.071,-38.0001,-80.2503
13:47:48.081,-37.7501,-81.1878
13:47:48.093,-39.1252,-83.0628
13:47:48.101,-38.8751,-84.7503
13:47:48.111,-39.6877,-84.8753
13:47:48.122,-39.7502,-87.3753
13:47:48.132,-39.4377,-87.5628
13:47:48.142,-38.4376,-86.6878
13:47:48.155,-36.1251,-83.2503
13:47:48.162,-31.5626,-77.8753
13:47:48.172,-26.0626,-67.1253
13:47:48.182,-18.1876,-52.9377
13:47:48.192,-10.9375,-37.1251
13:47:48.204,-2.875,-21.2501
13:47:48.212,3.5625,-5.6875
13:47:48.222,10.0625,8.875
13:47:48.232,15.0001,20.5626
13:47:48.242,19.5626,31.0626
13:47:48.251,23.3126,40.5627
13:47:48.261,25.5001,48.5627
13:47:48.292,28.4376,56.3752
13:47:48.295,30.7501,64.0627
13:47:48.298,32.8751,69.8128
13:47:48.303,35.6876,77.3128
13:47:48.338,36.5626,83.6878
13:47:48.340,38.4376,87.8753
13:47:48.404,41.1252,94.1254
13:47:48.405,41.7502,99.3754
13:47:48.407,43.1252,102.8129
13:47:48.408,44.2502,107.9379
13:47:48.408,44.8127,109.9379
13:47:48.413,45.1252,113.5004
13:47:48.447,44.9377,114.1879
13:47:48.449,44.5627,114.8754
13:47:48.453,42.8752,112.4379
13:47:48.454,40.8752,109.8754
13:47:48.462,37.8751,105.4379
13:47:48.471,35.0001,99.6879
13:47:48.482,32.1251,93.8754
13:47:48.491,28.3126,88.0628
13:47:48.501,25.6251,81.1878
13:47:48.511,22.6876,75.5003
13:47:48.522,19.5626,70.8128
13:47:48.536,17.5001,66.1253
13:47:48.541,16.8126,61.8752
13:47:48.551,14.3751,58.4377
13:47:48.562,12.8125,53.4377
13:47:48.571,7.6875,43.7502
13:47:48.581,5.9375,40.0627
13:47:48.593,4.1875,37.0001
13:47:48.601,2.6875,32.4376
13:47:48.613,0,28.1876
13:47:48.621,-1.5,23.4376
13:47:48.633,-2.75,19.6876
13:47:48.641,-4.3125,16.0001
13:47:48.653,-6.125,12.5
13:47:48.662,-8.0625,8
13:47:48.675,-10.625,3.625
13:47:48.683,-11.6875,-0.625
13:47:48.693,-13.6251,-4.6875
13:47:48.702,-14.0626,-7.125
13:47:48.711,-15.8126,-11.625
13:47:48.723,-17.2501,-14.4376
13:47:48.734,-19.3751,-18.5001
13:47:48.741,-19.6876,-21.6251
13:47:48.752,-21.1876,-24.5626
13:47:48.763,-21.4376,-27.8126
13:47:48.772,-23.7501,-30.7501
13:47:48.781,-23.9376,-34.1251
13:47:48.793,-26.0626,-37.1876
13:47:48.803,-25.8126,-40.3752
13:47:48.813,-27.6876,-43.2502
13:47:48.821,-28.3751,-45.7502
13:47:48.832,-29.5626,-48.5627
13:47:48.842,-29.7501,-51.3127
13:47:48.853,-30.8751,-53.3752
13:47:48.861,-31.8751,-56.9377
13:47:48.873,-32.5626,-58.5002
13:47:48.881,-33.8751,-59.7502
13:47:48.893,-33.9376,-63.0627
13:47:48.908,-34.4376,-65.2502
13:47:48.913,-34.3751,-67.4378
13:47:48.921,-36.2501,-68.3753
13:47:48.934,-36.3126,-71.5003
13:47:48.941,-36.4376,-72.9378
13:47:48.953,-37.5626,-75.1878
13:47:48.962,-37.0001,-77.0628
13:47:48.974,-38.6876,-78.6253
13:47:48.999,-39.0001,-81.1253
13:47:49.004,-38.6251,-82.5628
13:47:49.005,-39.6877,-83.1253
13:47:49.038,-40.1877,-85.1878
13:47:49.040,-40.9377,-87.3128
13:47:49.043,-41.5002,-88.5628
13:47:49.048,-41.7502,-91.6254
13:47:49.073,-41.8752,-92.1879
13:47:49.076,-42.5627,-94.3754
13:47:49.078,-43.1877,-94.9379
13:47:49.083,-42.6877,-96.7504
13:47:49.111,-42.8752,-95.9379
13:47:49.113,-41.0627,-95.0004
13:47:49.116,-38.7501,-90.8754
13:47:49.121,-33.3126,-83.3128
13:47:49.158,-27.0626,-70.1253
13:47:49.174,-18.8126,-54.5002
13:47:49.175,-9.5625,-35.6251
13:47:49.190,-0.0625,-15.6251
13:47:49.191,10.0625,6.6875
13:47:49.205,21.0001,31.7501
13:47:49.208,34.7501,57.8127
13:47:49.210,52.0002,91.0629
13:47:49.215,67.8128,121.813
13:47:49.223,82.6253,150.8756
13:47:49.232,93.8129,176.5007
13:47:49.242,106.5004,201.5008
13:47:49.251,120.5005,227.0634
13:47:49.263,132.688,249.6884
13:47:49.273,145.438,273.376
13:47:49.289,156.8756,293.6261
13:47:49.291,167.1256,311.3137
13:47:49.302,177.1257,329.0638
13:47:49.315,187.0632,345.4388
13:47:49.321,196.4383,358.6263
13:47:49.333,204.8133,372.2514
13:47:49.344,214.5633,388.2515
13:47:49.353,226.6884,402.814
13:47:49.363,237.4384,418.6891
13:47:49.373,242.6884,427.6266
13:47:49.383,244.0009,430.3141
13:47:49.391,243.2509,430.2516
13:47:49.403,241.8759,426.1891
13:47:49.412,239.6884,422.3766
13:47:49.423,238.0634,416.8141
13:47:49.433,236.5634,412.9391
13:47:49.444,234.1884,407.5016
13:47:49.452,233.6884,404.564
13:47:49.462,234.2509,402.7515
13:47:49.473,234.5009,401.564
13:47:49.481,234.4384,398.939
13:47:49.493,233.3759,394.064
13:47:49.502,230.6259,389.2515
13:47:49.513,228.0009,382.439
13:47:49.523,223.8134,373.4389
13:47:49.533,219.7508,365.4389
13:47:49.545,214.6883,355.9388
13:47:49.553,210.0633,347.3763
13:47:49.563,205.5008,337.0013
13:47:49.575,200.8758,329.2513
13:47:49.583,195.3757,319.1262
13:47:49.593,190.2507,311.0637
13:47:49.604,185.5007,300.3137
13:47:49.618,181.0632,292.0636
13:47:49.628,176.8132,284.5011
13:47:49.637,172.3132,276.251
13:47:49.651,168.6881,267.376
13:47:49.668,164.1256,257.1885
13:47:49.675,157.0631,241.9384
13:47:49.681,142.6255,215.7508
13:47:49.689,123.8755,181.1257
13:47:49.698,105.6879,142.688
13:47:49.707,86.6878,102.1254
13:47:49.728,66.8128,59.3127
13:47:49.730,42.8127,13.5001
13:47:49.765,18.5001,-34.1876
13:47:49.766,-4.5625,-83.6878
13:47:49.769,-29.1876,-130.0005
13:47:49.772,-54.9377,-179.6257
13:47:49.778,-95.1879,-253.626
13:47:49.817,-117.1254,-297.3761
13:47:49.818,-137.7505,-337.7513
13:47:49.820,-153.3131,-370.5639
13:47:49.849,-168.6881,-401.5015
13:47:49.852,-181.3132,-425.3766
13:47:49.852,-191.3757,-446.4392
13:47:49.854,-200.0008,-461.6268
13:47:49.859,-205.9383,-473.1268
13:47:49.891,-210.3133,-481.6893
13:47:49.892,-215.3133,-484.0018
13:47:49.894,-217.9383,-484.3768
13:47:49.898,-218.7508,-481.1893
13:47:49.908,-217.6883,-471.1268
13:47:49.918,-212.6258,-456.8768
13:47:49.929,-203.8133,-437.0016
13:47:49.938,-191.1882,-409.7516
13:47:49.948,-177.0632,-375.9389
13:47:49.958,-156.0006,-338.3138
13:47:49.968,-131.813,-292.3761
13:47:49.978,-106.3129,-245.5634
13:47:49.988,-79.5003,-201.0008
13:47:49.998,-54.1252,-158.1256
13:47:50.008,-28.8751,-120.7505
13:47:50.018,-8.5,-89.3128
13:47:50.028,7.1875,-66.8128
13:47:50.038,18.8126,-48.4377
13:47:50.048,26.9376,-35.2501
13:47:50.058,35.0001,-25.5001
13:47:50.068,40.8127,-16.3126
13:47:50.078,43.1252,-9.25
13:47:50.088,48.6252,-1.875
13:47:50.098,52.2502,5.375
13:47:50.109,49.3127,4.125
13:47:50.119,39.0627,-4.6875
13:47:50.128,28.6251,-16.4376
13:47:50.138,11.5,-45.9377
13:47:50.149,-20.0001,-93.9379
13:47:50.158,-56.5627,-155.6256
13:47:50.169,-92.8754,-224.1259
13:47:50.179,-127.5005,-289.9386
13:47:50.188,-161.0006,-353.5638
13:47:50.198,-191.4382,-412.2516
13:47:50.208,-214.9383,-457.5642
13:47:50.218,-231.8134,-488.0644
13:47:50.228,-246.0009,-511.3145
13:47:50.238,-255.8135,-521.752
13:47:50.248,-263.501,-523.5645
13:47:50.282,-268.8135,-526.9395
13:47:50.284,-271.4385,-523.3145
13:47:50.288,-270.8135,-510.6895
13:47:50.289,-266.251,-491.8144
13:47:50.298,-258.251,-462.0643
13:47:50.308,-242.7509,-424.5016
13:47:50.318,-220.9384,-375.0639
13:47:50.328,-195.8132,-318.2512
13:47:50.338,-164.4381,-255.3135
13:47:50.348,-126.8755,-184.3757
13:47:50.359,-86.8128,-108.8129
13:47:50.368,-46.4377,-38.3751
13:47:50.380,-9.375,26.0001
13:47:50.388,23.6876,79.5003
13:47:50.398,54.5002,127.6255
13:47:50.413,82.0628,167.8756
13:47:50.418,103.3754,201.9383
13:47:50.431,121.188,226.4384
13:47:50.497,135.7505,247.3759
13:47:50.531,147.0005,263.4385
13:47:50.558,156.1881,276.751
13:47:50.560,164.8131,288.6261
13:47:50.566,168.6881,296.8761
13:47:50.568,171.5007,301.8762
13:47:50.569,173.4382,305.8762
13:47:50.569,172.4382,306.1262
13:47:50.584,164.3131,294.5636
13:47:50.588,147.1881,270.6885
13:47:50.603,121.1255,233.0634
13:47:50.608,82.9378,169.8131
13:47:50.618,27.3751,75.1878
13:47:50.629,-30.8126,-32.6876
13:47:50.638,-84.3753,-136.938
13:47:50.648,-127.938,-227.7509
13:47:50.658,-165.5006,-305.6887
13:47:50.668,-195.8132,-367.9389
13:47:50.678,-220.6259,-418.3141
13:47:50.689,-243.1884,-463.8768
13:47:50.698,-263.376,-503.5644
13:47:50.708,-279.126,-533.4396
13:47:50.719,-291.3136,-554.5646
13:47:50.728,-300.2512,-567.6272
13:47:50.738,-260.1885,-434.8141
13:47:50.748,-235.6884,-384.5015
13:47:50.758,-206.0633,-330.1888
13:47:50.769,-172.2507,-271.376
13:47:50.778,-136.813,-211.2508
13:47:50.793,-102.1879,-152.7506
13:47:50.798,-67.2503,-98.6254
13:47:50.809,-34.6876,-50.0002
13:47:50.818,-5.4375,-5.3125
13:47:50.828,18.8751,29.4376
13:47:50.838,37.8126,57.7502
13:47:50.849,52.1877,80.6253
13:47:50.858,64.2502,96.4379
13:47:50.868,75.4378,110.6879
13:47:50.879,81.8128,120.3755
13:47:50.888,88.0003,128.3755
13:47:50.898,92.1879,135.7505
13:47:50.908,94.3129,138.3755
13:47:50.918,96.2504,142.063
13:47:50.928,96.0004,142.8755
13:47:50.938,92.8129,136.563
13:47:50.959,78.6878,120.313
13:47:50.962,61.9377,95.5004
13:47:50.977,41.3127,63.6877
13:47:50.979,8.25,12.25
13:47:50.999,-34.1876,-61.4377
13:47:51.001,-79.1253,-147.9381
13:47:51.009,-123.188,-232.4384
13:47:51.018,-160.1256,-311.4387
13:47:51.028,-192.4382,-382.0015
13:47:51.038,-219.0633,-438.6891
13:47:51.048,-241.4384,-483.8143
13:47:51.058,-257.376,-513.3145
13:47:51.070,-267.9385,-528.877
13:47:51.078,-273.001,-530.1895
13:47:51.088,-274.3135,-525.6895
13:47:51.100,-275.126,-519.127
13:47:51.114,-274.1885,-507.1895
13:47:51.119,-269.3135,-490.0019
13:47:51.155,-262.8135,-463.9393
13:47:51.158,-251.251,-428.7516
13:47:51.161,-232.5634,-382.439
13:47:51.163,-209.1883,-329.8138
13:47:51.168,-183.1882,-271.626
13:47:51.178,-153.7506,-209.6883
13:47:51.207,-120.0005,-142.2505
13:47:51.212,-82.9378,-70.3128
13:47:51.212,-41.1877,3.6875
13:47:51.218,-1.5625,76.4378
13:47:51.254,38.3126,143.7505
13:47:51.257,73.6253,204.0008
13:47:51.260,107.1879,256.9385
13:47:51.265,136.313,303.4387
13:47:51.268,160.1256,340.7513
13:47:51.293,178.0632,369.8139
13:47:51.295,193.2507,392.439
13:47:51.298,203.7508,407.7516
13:47:51.308,212.5008,418.4391
13:47:51.318,217.1883,426.7516
13:47:51.328,220.6883,429.8141
13:47:51.338,223.1884,432.5641
13:47:51.348,224.3134,434.5641
13:47:51.358,224.3759,434.3766
13:47:51.368,224.0009,432.5016
13:47:51.378,220.9384,430.2516
13:47:51.388,210.3133,415.5641
13:47:51.398,187.4382,386.3765
13:47:51.408,154.0631,340.6263
13:47:51.418,110.6254,270.5635
13:47:51.428,56.3127,175.0632
13:47:51.438,-4.8125,63.0627
13:47:51.448,-61.7502,-44.8752
13:47:51.458,-107.0629,-139.3755
13:47:51.468,-143.5005,-219.3758
13:47:51.478,-173.1882,-284.6261
13:47:51.488,-199.3133,-337.8763
13:47:51.498,-222.3134,-386.314
13:47:51.509,-242.1884,-428.0641
13:47:51.518,-258.876,-460.9393
13:47:51.528,-271.501,-486.1268
13:47:51.559,-281.0636,-504.502
13:47:51.561,-288.5636,-516.877
13:47:51.564,-292.7511,-520.8145
13:47:51.568,-294.3761,-518.752
13:47:51.578,-293.3761,-509.627
13:47:51.588,-288.7511,-489.4394
13:47:51.600,-278.626,-462.1893
13:47:51.608,-262.626,-424.9391
13:47:51.618,-243.4384,-382.439
13:47:51.630,-220.9384,-335.1263
13:47:51.638,-195.3757,-282.8761
13:47:51.648,-161.5631,-221.4384
13:47:51.658,-121.8755,-152.5631
13:47:51.668,-79.2503,-83.5628
13:47:51.679,-37.5001,-19.0626
13:47:51.688,2.25,41.6877
13:47:51.698,36.9376,90.6879
13:47:51.708,65.7503,132.8755
13:47:51.719,89.5628,165.0631
13:47:51.729,109.3754,190.3757
13:47:51.738,122.188,208.2508
13:47:51.748,132.6255,220.8759
13:47:51.759,141.2505,231.3759
13:47:51.771,146.313,239.3759
13:47:51.778,151.0631,243.5009
13:47:51.789,153.2506,247.8759
13:47:51.798,155.0631,247.9384
13:47:51.814,154.6256,249.3759
