timestamp,Red,IR
15:20:40.248,6.375,-7.875
15:20:40.260,6.5,-8.6875
15:20:40.269,5.625,-9.125
15:20:40.278,6.0625,-10.0625
15:20:40.289,4.75,-9.5
15:20:40.300,5.125,-9.125
15:20:40.308,4.9375,-8.9375
15:20:40.320,4.0625,-9.75
15:20:40.329,5.1875,-10.3125
15:20:40.339,4.3125,-11.375
15:20:40.351,4.375,-10.375
15:20:40.360,4.3125,-8.5625
15:20:40.369,5.6875,-9.4375
15:20:40.378,4.5625,-10.1875
15:20:40.388,4.75,-9.75
15:20:40.399,5.3125,-10.1875
15:20:40.409,3.875,-10.75
15:20:40.420,3.4375,-11.1875
15:20:40.428,2.6875,-11.375
15:20:40.439,2.9375,-12.375
15:20:40.450,1.875,-13.7501
15:20:40.460,0.8125,-13.125
15:20:40.469,1.1875,-15.5626
15:20:40.478,0.25,-14.4376
15:20:40.508,0.25,-16.4376
15:20:40.511,-0.5,-15.8126
15:20:40.514,-1.1875,-17.2501
15:20:40.520,-1.3125,-19.3751
15:20:40.545,-1.6875,-19.2501
15:20:40.551,-2.3125,-20.5626
15:20:40.553,-2.75,-20.7501
15:20:40.597,-2.25,-21.1876
15:20:40.604,-3.125,-23.2501
15:20:40.604,-3.5625,-21.1251
15:20:40.632,-3.4375,-23.3126
15:20:40.632,-3.9375,-24.0001
15:20:40.633,-4.3125,-24.3126
15:20:40.636,-5.4375,-25.7501
15:20:40.640,-5.6875,-25.8126
15:20:40.643,-4.75,-25.8126
15:20:40.653,-5.0625,-26.6251
15:20:40.667,-5.375,-28.0001
15:20:40.669,-5.4375,-27.3751
15:20:40.679,-5.75,-28.8126
15:20:40.694,-6.4375,-27.8751
15:20:40.703,-5.8125,-28.9376
15:20:40.709,-5.625,-28.0001
15:20:40.726,-6.3125,-28.1876
15:20:40.735,-6.75,-29.7501
15:20:40.742,-6.6875,-31.5626
15:20:40.750,-7,-31.2501
15:20:40.759,-8.375,-31.3126
15:20:40.769,-8.5625,-33.1251
15:20:40.779,-8.8125,-32.6876
15:20:40.790,-7.3125,-32.4376
15:20:40.801,-7.125,-33.4376
15:20:40.809,-6.5625,-31.1251
15:20:40.819,-5.125,-30.5626
15:20:40.828,-3.75,-26.9376
15:20:40.841,-1.0625,-23.5001
15:20:40.849,-0.4375,-20.3751
15:20:40.879,1.6875,-16.9376
15:20:40.884,2.875,-14.2501
15:20:40.887,4.125,-12.1875
15:20:40.890,5.25,-9.8125
15:20:40.898,4.5625,-10.1875
15:20:40.908,4.5625,-8.4375
15:20:40.919,4.125,-8.9375
15:20:40.928,3.625,-8.3125
15:20:40.939,3.625,-9.75
15:20:40.949,3.75,-10.25
15:20:40.958,2.6875,-10.3125
15:20:40.969,2.4375,-11.5
15:20:40.980,2.375,-12.625
15:20:40.989,2.5625,-12.25
15:20:40.999,1.5,-14.3126
15:20:41.010,2.125,-13.3751
15:20:41.020,1,-14.3126
15:20:41.030,0.875,-15.0626
15:20:41.040,0.9375,-15.1251
15:20:41.050,0.5625,-15.9376
15:20:41.058,1.1875,-15.6251
15:20:41.070,0.5,-17.3126
15:20:41.088,0.0625,-15.8751
15:20:41.091,0.1875,-17.6876
15:20:41.108,-0.375,-18.0001
15:20:41.126,0.5625,-16.9376
15:20:41.126,0.0625,-17.1251
15:20:41.140,-0.25,-16.4376
15:20:41.145,0.5,-16.0626
15:20:41.177,1.0625,-16.1876
15:20:41.180,1.375,-15.1876
15:20:41.182,-0.125,-15.3751
15:20:41.188,-0.625,-17.5001
15:20:41.193,0.125,-14.8126
15:20:41.223,1.6875,-15.0001
15:20:41.226,1.125,-14.4376
15:20:41.228,1.875,-14.6876
15:20:41.230,0.875,-14.7501
15:20:41.262,0.25,-15.2501
15:20:41.265,0.3125,-16.4376
15:20:41.266,-0.5,-17.8751
15:20:41.270,-1.6875,-18.5001
15:20:41.299,-1.25,-18.8751
15:20:41.302,-1.875,-18.5626
15:20:41.303,-1.375,-17.6876
15:20:41.336,-1.5625,-20.0001
15:20:41.348,-2.5,-21.1251
15:20:41.349,-3,-21.0626
15:20:41.354,-3.5625,-22.3126
15:20:41.354,-4.3125,-23.2501
15:20:41.364,-3.125,-23.0001
15:20:41.370,-3.9375,-24.2501
15:20:41.380,-4.625,-24.1251
15:20:41.390,-3.875,-23.5626
15:20:41.400,-4.1875,-24.4376
15:20:41.411,-4.25,-24.5001
15:20:41.420,-3.8125,-24.6251
15:20:41.430,-4.25,-24.8126
15:20:41.440,-4.25,-25.3751
15:20:41.450,-4.5625,-25.7501
15:20:41.459,-5.25,-25.3126
15:20:41.470,-5.3125,-26.3751
15:20:41.480,-5.8125,-26.0626
15:20:41.490,-5.8125,-27.9376
15:20:41.500,-5.875,-27.2501
15:20:41.510,-5.5,-27.3751
15:20:41.520,-5.5,-28.1876
15:20:41.530,-5.625,-27.8751
15:20:41.540,-5.25,-28.3751
15:20:41.550,-5.5625,-28.4376
15:20:41.560,-6.25,-29.0626
15:20:41.570,-6.8125,-29.8126
15:20:41.580,-6.4375,-30.2501
15:20:41.590,-5.9375,-30.1251
15:20:41.600,-5.25,-29.0626
15:20:41.610,-4.6875,-27.5001
15:20:41.620,-2.8125,-24.6876
15:20:41.630,-1.3125,-21.5626
15:20:41.640,0.6875,-18.0001
15:20:41.649,2.0625,-14.8126
15:20:41.665,3.75,-10.1875
15:20:41.670,5.75,-7.5
15:20:41.680,7.8125,-4.8125
15:20:41.691,9.25,-0.125
15:20:41.700,12.0625,1.8125
15:20:41.710,11.875,3.875
15:20:41.723,12.5,3.6875
15:20:41.730,11.3125,3
15:20:41.740,10.6875,2.6875
15:20:41.750,9.75,1.5
15:20:41.759,8.375,0.625
15:20:41.770,8.3125,-1.125
15:20:41.780,7.625,-0.125
15:20:41.789,8.1875,-0.625
15:20:41.799,8.0625,-0.375
15:20:41.810,8.9375,-1
15:20:41.820,8.0625,-1.1875
15:20:41.830,6.875,-2.0625
15:20:41.840,5.5,-3.875
15:20:41.850,6.1875,-3.8125
15:20:41.860,5.75,-4.125
15:20:41.870,5.5625,-5.4375
15:20:41.881,5.8125,-4
15:20:41.917,6.375,-4.4375
15:20:41.920,5.875,-5.6875
15:20:41.923,5.8125,-5.1875
15:20:41.926,4.6875,-4.8125
15:20:41.930,5,-5.375
15:20:41.944,4.4375,-6.5
15:20:41.949,4.75,-5.1875
15:20:41.980,4.6875,-5.375
15:20:41.982,5.25,-5.5
15:20:41.986,6.625,-4.1875
15:20:42.009,6.0625,-3.25
15:20:42.010,6.1875,-2.8125
15:20:42.071,6.4375,-4.25
15:20:42.086,5.5,-3.125
15:20:42.090,5.6875,-4.75
15:20:42.090,4.875,-4.25
15:20:42.096,4.8125,-5.625
15:20:42.120,4.6875,-6.375
15:20:42.122,5.1875,-5.625
15:20:42.122,4.875,-6.0625
15:20:42.123,4.25,-6.4375
15:20:42.128,4.125,-6.625
15:20:42.131,3.75,-8.375
15:20:42.136,2.375,-9.0625
15:20:42.145,2.4375,-9.875
15:20:42.155,2.625,-10.75
15:20:42.164,2.9375,-10.1875
15:20:42.175,3.0625,-10.9375
15:20:42.186,2.875,-10.375
15:20:42.194,2.6875,-10.1875
15:20:42.205,2.5,-10.9375
15:20:42.214,2.0625,-12.25
15:20:42.224,2.75,-12.375
15:20:42.235,2.5,-13.125
15:20:42.245,2.25,-14.0001
15:20:42.254,1.8125,-15.1251
15:20:42.265,1.8125,-13.8751
15:20:42.274,2.1875,-14.4376
15:20:42.287,1.5625,-14.5001
15:20:42.295,2.875,-13.1251
15:20:42.305,2.0625,-14.6876
15:20:42.314,1.625,-14.6876
15:20:42.324,1.4375,-15.5626
15:20:42.335,1.25,-15.1876
15:20:42.345,1.125,-15.6251
15:20:42.354,0.6875,-17.1876
15:20:42.365,1.125,-17.1876
15:20:42.375,2,-16.7501
15:20:42.385,2.0625,-15.0626
15:20:42.406,3.125,-13.5001
15:20:42.410,5.5625,-10.875
15:20:42.425,8.625,-6.6875
15:20:42.440,11.0625,-1.9375
15:20:42.442,12.5625,1.125
15:20:42.458,14.4376,4.6875
15:20:42.462,15.8751,7.4375
15:20:42.471,16.4376,10.5625
15:20:42.480,18.4376,13.0625
15:20:42.490,19.0626,14.1876
15:20:42.500,19.1251,17.4376
15:20:42.510,19.5001,16.5626
15:20:42.520,19.3126,15.6876
15:20:42.530,18.1251,16.8751
15:20:42.540,17.6876,14.3126
15:20:42.550,17.3751,14.4376
15:20:42.560,17.4376,14.1251
15:20:42.569,17.4376,14.0001
15:20:42.581,17.4376,15.1251
15:20:42.590,17.8751,14.1876
15:20:42.599,18.0626,13.6251
15:20:42.621,17.1251,13.3126
15:20:42.623,16.5001,11.875
15:20:42.638,16.6251,12.75
15:20:42.645,15.7501,10.9375
15:20:42.650,15.3126,9.9375
15:20:42.676,14.5626,11.1875
15:20:42.678,15.1876,10.125
15:20:42.686,14.8751,9.5
15:20:42.713,15.5626,11.375
15:20:42.715,16.3126,11.1875
15:20:42.718,16.1251,11.0625
15:20:42.720,16.4376,11.8125
15:20:42.756,16.3751,12.4375
15:20:42.758,16.3751,13.1251
15:20:42.760,16.6251,12.5
15:20:42.768,16.5001,12.75
15:20:42.771,17.0626,14.1876
15:20:42.793,18.0001,15.5001
15:20:42.795,19.0001,14.5626
15:20:42.801,18.4376,14.5001
15:20:42.810,17.4376,13.6251
15:20:42.820,16.8126,13.3126
15:20:42.830,17.0001,13.7501
15:20:42.839,16.1251,13.3126
15:20:42.851,16.2501,12.25
15:20:42.860,16.0626,11.875
15:20:42.870,15.2501,11.875
15:20:42.880,14.2501,10.875
15:20:42.889,14.0626,10.125
15:20:42.900,14.0001,8.625
15:20:42.911,12.0625,8.5
15:20:42.920,12.3125,7.75
15:20:42.930,11.8125,6.9375
15:20:42.939,12.5,6.875
15:20:42.950,12.25,7.375
15:20:42.961,11.9375,6.625
15:20:42.971,11.875,6.125
15:20:42.980,11.5625,4.5
15:20:42.990,10.9375,4.8125
15:20:43.000,10.1875,4.125
15:20:43.010,10.8125,4.1875
15:20:43.020,10.875,2.75
15:20:43.030,10.25,3.125
15:20:43.040,10.0625,3.4375
15:20:43.050,9.875,2.75
15:20:43.060,9.1875,1.6875
15:20:43.070,8.8125,1.4375
15:20:43.080,8.3125,1.1875
15:20:43.090,8.25,-0.3125
15:20:43.101,8.5,-0.6875
15:20:43.111,8.875,0.375
15:20:43.120,8.6875,-0.4375
15:20:43.130,8.125,-1.875
15:20:43.140,8.25,-0.75
15:20:43.150,8,-0.75
15:20:43.160,8.5,-1.3125
15:20:43.169,8.875,-0.625
15:20:43.180,10.0625,2.1875
15:20:43.190,12.3125,5.75
15:20:43.200,14.4376,8
15:20:43.210,15.8126,11.9375
15:20:43.226,18.3126,16.3126
15:20:43.232,19.7501,19.9376
15:20:43.240,20.8126,22.1876
15:20:43.250,20.5001,23.3751
15:20:43.260,20.6251,25.0001
15:20:43.270,20.5626,25.3751
15:20:43.280,20.8126,27.3751
15:20:43.290,21.4376,26.2501
15:20:43.300,21.1251,26.4376
15:20:43.310,20.3751,26.8751
15:20:43.319,20.0626,25.4376
15:20:43.329,19.0626,24.3126
15:20:43.340,17.8751,24.5626
15:20:43.464,17.3751,21.8126
15:20:43.467,16.6876,21.2501
15:20:43.467,16.3751,21.5626
15:20:43.467,15.9376,21.2501
15:20:43.467,15.9376,20.0001
15:20:43.472,14.5626,18.6251
15:20:43.497,14.1251,18.5626
15:20:43.500,13.5626,16.4376
15:20:43.502,12.875,14.8751
15:20:43.510,11.9375,14.3751
15:20:43.526,11.4375,14.0626
15:20:43.531,11.875,13.4376
15:20:43.540,11.25,13.8751
15:20:43.552,10.6875,14.5001
15:20:43.561,11.0625,13.5001
15:20:43.569,10.5625,13
15:20:43.579,10.0625,12.6875
15:20:43.591,9.4375,13
15:20:43.604,9.375,13
15:20:43.612,10.25,13.2501
15:20:43.620,10.1875,12.9375
15:20:43.630,7.9375,10.875
15:20:43.641,8.25,10.75
15:20:43.649,8.5,9.5
15:20:43.659,7.0625,8.875
15:20:43.670,7.5625,8.0625
15:20:43.680,6.8125,8.375
15:20:43.690,6.1875,8.125
15:20:43.699,6.3125,6.375
15:20:43.711,5.5,5.8125
15:20:43.724,4.9375,4.3125
15:20:43.735,3.75,3.9375
15:20:43.740,4.25,3.625
15:20:43.757,3.8125,1.8125
15:20:43.761,3.1875,1.0625
15:20:43.775,3.875,3
15:20:43.782,3,0.8125
15:20:43.790,3.5,0.8125
15:20:43.799,2.625,-0.6875
15:20:43.810,0.9375,-1.5625
15:20:43.819,2.5,-2.1875
15:20:43.830,-0.1875,-4.75
15:20:43.841,0.0625,-3.8125
15:20:43.850,1.75,-3.375
15:20:43.860,-0.375,-5.3125
15:20:43.870,0.3125,-4.9375
15:20:43.880,0.125,-5.625
15:20:43.890,0.8125,-3.125
15:20:43.899,2.6875,-0.625
15:20:43.910,3.8125,0.4375
15:20:43.920,5.4375,3.875
15:20:43.931,6.8125,6.8125
15:20:43.941,8.0625,10.8125
15:20:43.950,9.6875,15.2501
15:20:43.960,10.8125,17.0001
15:20:43.970,12.5625,19.3751
15:20:43.980,13.125,22.3751
15:20:43.990,13.6251,24.1251
15:20:44.001,13.3751,23.6251
15:20:44.010,12.1875,24.3751
15:20:44.019,11.5625,22.9376
15:20:44.031,11.3125,22.3126
15:20:44.040,10.1875,21.6876
15:20:44.049,10.625,21.8126
15:20:44.059,10.5,21.1876
15:20:44.078,9.75,21.5001
15:20:44.080,10.1875,21.8751
15:20:44.120,10,20.4376
15:20:44.122,8.25,18.1876
15:20:44.123,7.125,16.1251
15:20:44.126,6.125,15.5626
15:20:44.132,6.5625,15.1251
15:20:44.162,6.5625,14.5626
15:20:44.165,5.8125,13.6251
15:20:44.168,5.75,13.3126
15:20:44.204,4.875,13.6876
15:20:44.205,5.3125,13.5001
15:20:44.209,5.875,13.3751
15:20:44.214,5.375,12.875
15:20:44.215,4.875,13.6876
15:20:44.229,5.4375,13.7501
15:20:44.231,4.9375,13.0625
15:20:44.252,5.75,13.3751
15:20:44.254,5.75,15.1251
15:20:44.261,5.875,14.8751
15:20:44.270,5.4375,14.6876
15:20:44.280,5.5,14.3751
15:20:44.290,5.3125,13.5001
15:20:44.299,5.125,12.8125
15:20:44.310,4.8125,14.6251
15:20:44.320,5.3125,13.6251
15:20:44.330,5.625,12.5625
15:20:44.340,5.125,12.3125
15:20:44.356,5.1875,11.5
15:20:44.361,4.8125,11.5
15:20:44.370,4.0625,11.3125
15:20:44.380,4.4375,10.6875
15:20:44.389,3.3125,8.625
15:20:44.401,3.1875,9.75
15:20:44.411,3.375,8.5
15:20:44.420,2.625,7.875
15:20:44.430,2.125,7.0625
15:20:44.439,2.125,7.25
15:20:44.450,1.75,5.5625
15:20:44.459,1.375,5.3125
15:20:44.470,1.125,3.8125
15:20:44.480,0.9375,4.5625
15:20:44.490,1.8125,3.8125
15:20:44.500,1.125,3.6875
15:20:44.510,0.8125,3.6875
15:20:44.520,0.25,2.125
15:20:44.532,0.4375,1.8125
15:20:44.540,-0.125,0.9375
15:20:44.550,-0.9375,1.375
15:20:44.561,-0.6875,-1.0625
15:20:44.570,-1.6875,-1.625
15:20:44.580,-2.25,-1
15:20:44.590,-1.6875,-2.125
15:20:44.601,-2.4375,-3.25
15:20:44.609,-2.4375,-3.9375
15:20:44.620,-1.8125,-1.6875
15:20:44.629,0.5625,0.5
15:20:44.639,2.4375,3.375
15:20:44.650,4.0625,7.3125
15:20:44.680,5.375,12
15:20:44.681,7.75,15.4376
15:20:44.684,10.1875,19.5001
15:20:44.691,11.1875,23.0626
15:20:44.709,12.25,27.0001
15:20:44.714,14.1251,29.2501
15:20:44.721,13.6876,30.4376
15:20:44.736,13.6876,32.4376
15:20:44.751,13.5626,32.3751
15:20:44.758,12.6875,33.0626
15:20:44.772,12.6875,32.1251
15:20:44.774,11.875,30.5626
15:20:44.781,11.1875,31.5001
15:20:44.791,11.75,31.3126
15:20:44.799,11.25,30.6876
15:20:44.810,10.1875,29.6251
15:20:44.820,9.5625,28.8751
15:20:44.850,9.0625,28.8126
15:20:44.853,9,28.3751
15:20:44.854,9.25,28.3126
15:20:44.862,8.8125,26.8751
15:20:44.888,8.0625,25.4376
15:20:44.891,7,24.3126
15:20:44.893,6.8125,25.2501
15:20:44.920,6.4375,23.7501
15:20:44.923,6.75,23.1876
15:20:44.926,6.25,22.7501
15:20:44.930,6.4375,23.1251
15:20:44.943,6.4375,23.7501
15:20:44.975,5.9375,23.6876
15:20:44.975,5.9375,22.8751
15:20:44.979,5.25,22.1251
15:20:44.981,5.25,22.9376
15:20:45.013,6.0625,22.5001
15:20:45.014,5.4375,22.5001
15:20:45.016,5.75,22.8751
15:20:45.021,5.6875,23.2501
15:20:45.043,5.9375,24.1876
15:20:45.044,5.8125,22.6876
15:20:45.054,5.125,21.6876
15:20:45.062,3.5625,20.0626
15:20:45.076,4,20.2501
15:20:45.083,2.9375,19.6251
15:20:45.090,4,19.0001
15:20:45.099,3,18.3126
15:20:45.111,2.125,16.8126
15:20:45.120,2.75,17.3751
15:20:45.130,2.3125,16.4376
15:20:45.140,0.6875,14.1876
15:20:45.152,-0.5,13.5626
15:20:45.159,-0.0625,12.75
15:20:45.169,0.6875,12
15:20:45.180,0.0625,11.5
15:20:45.192,0.125,11.9375
15:20:45.200,-0.4375,11.75
15:20:45.210,-0.5,11.125
15:20:45.219,-0.6875,10
15:20:45.232,-1,9.125
15:20:45.241,-1.25,7.375
15:20:45.251,-2.125,6.125
15:20:45.260,-3.125,5.0625
15:20:45.270,-3.0625,4.6875
15:20:45.280,-2.6875,4.25
15:20:45.290,-1.9375,3.625
15:20:45.301,-2.8125,3.625
15:20:45.310,-2.6875,4.25
15:20:45.319,-2.625,2.75
15:20:45.330,-3.625,1.0625
15:20:45.339,-4.75,0.8125
15:20:45.351,-5,-0.375
15:20:45.361,-5.1875,-1.75
15:20:45.370,-5.125,-2.5625
15:20:45.380,-5.125,-1.8125
15:20:45.390,-3.9375,-1.125
15:20:45.399,-2.25,1.75
15:20:45.410,-0.625,6
15:20:45.420,2.6875,9.125
15:20:45.431,3.5625,15.0001
15:20:45.441,5.8125,18.4376
15:20:45.450,7.4375,21.8126
15:20:45.461,8.6875,26.3126
15:20:45.470,9,28.2501
15:20:45.487,10.125,31.3751
15:20:45.492,10.75,33.1876
15:20:45.500,10.5625,34.5626
15:20:45.511,11.125,35.1251
15:20:45.521,11.1875,36.2501
15:20:45.557,10.9375,35.5001
15:20:45.557,9.375,34.0001
15:20:45.561,8.5625,33.6251
15:20:45.563,7.875,33.0001
15:20:45.601,8.625,33.3751
15:20:45.603,8.0625,32.0626
15:20:45.605,8.4375,34.5626
15:20:45.609,8.9375,34.3126
15:20:45.616,9.625,33.1876
15:20:45.620,7.8125,32.2501
15:20:45.655,7.375,32.1251
15:20:45.657,7.0625,30.5626
15:20:45.660,6.875,29.5626
15:20:45.662,7.0625,29.7501
15:20:45.694,6.75,28.3126
15:20:45.697,6.9375,29.2501
15:20:45.699,7.875,28.9376
15:20:45.707,7.1875,28.8751
15:20:45.711,7.6875,29.1251
15:20:45.723,7.3125,29.4376
15:20:45.731,6.8125,29.1876
15:20:45.740,7.125,28.5626
15:20:45.751,6.9375,28.5626
15:20:45.762,7.125,28.0626
15:20:45.770,7.25,29.3126
15:20:45.780,7.625,29.7501
15:20:45.790,8.1875,29.8751
15:20:45.801,8.375,29.4376
15:20:45.809,8,28.6251
15:20:45.820,8.6875,29.8126
15:20:45.831,7.75,28.1251
15:20:45.839,6.9375,27.3751
15:20:45.850,6.0625,26.5001
15:20:45.863,5.875,25.8751
15:20:45.871,7,25.5626
15:20:45.881,5.9375,24.5626
15:20:45.890,5.8125,25.3126
15:20:45.901,6.375,23.5001
15:20:45.911,6.375,23.0001
15:20:45.922,6.25,23.1251
15:20:45.931,6.4375,22.6876
15:20:45.959,5.9375,21.6251
15:20:45.962,5.5625,20.5001
15:20:45.964,5.5,20.9376
15:20:45.971,6,20.0626
15:20:45.981,6.4375,19.1251
15:20:45.991,7,18.7501
15:20:46.001,6.5,19.3126
15:20:46.012,6.6875,18.5001
15:20:46.019,6.1875,17.4376
15:20:46.041,5.1875,16.0001
15:20:46.048,5.6875,16.6251
15:20:46.057,5.75,15.1876
15:20:46.066,4.875,14.7501
15:20:46.080,4.8125,15.6251
15:20:46.088,5.4375,14.1251
15:20:46.094,6.1875,13.5001
15:20:46.106,5.3125,13.5001
15:20:46.116,4.875,13.8751
15:20:46.126,4.625,12.3125
15:20:46.136,4.0625,10.125
15:20:46.148,3.3125,10.1875
15:20:46.154,3,9.9375
15:20:46.166,3.6875,8.25
15:20:46.176,4.25,8.625
15:20:46.188,5.1875,11.8125
15:20:46.195,6.8125,14.5626
15:20:46.206,9.25,18.6876
15:20:46.214,11.5625,23.3126
15:20:46.225,13.6251,27.8751
15:20:46.240,14.6876,32.6876
15:20:46.246,16.0626,35.7501
15:20:46.255,16.6876,37.3126
15:20:46.266,17.5626,40.3752
15:20:46.277,17.5001,42.5002
15:20:46.286,18.3126,43.0627
15:20:46.295,16.9376,42.6252
15:20:46.305,17.0001,43.8127
15:20:46.316,16.6876,43.0002
15:20:46.348,15.3751,42.0627
15:20:46.351,13.9376,41.5002
15:20:46.394,14.1251,40.1877
15:20:46.395,14.3751,39.5627
15:20:46.412,14.5001,40.6877
15:20:46.451,15.3126,40.1877
15:20:46.451,14.4376,39.3752
15:20:46.451,14.4376,39.9377
15:20:46.452,13.8751,39.3752
15:20:46.468,13.2501,37.3126
15:20:46.470,12.125,35.1251
15:20:46.471,11.75,34.9376
15:20:46.471,12.375,35.2501
15:20:46.476,13.2501,34.6251
15:20:46.508,13.0625,34.3126
15:20:46.510,12.6875,33.8751
15:20:46.512,13.2501,34.5626
15:20:46.523,13.1251,33.8751
15:20:46.531,12.9375,33.1251
15:20:46.541,12.6875,33.5626
15:20:46.551,12.9375,34.6876
15:20:46.561,13.3126,35.0626
15:20:46.571,13.7501,35.9376
15:20:46.580,13.5626,34.2501
15:20:46.591,13.5626,34.8751
15:20:46.602,12.0625,34.9376
15:20:46.614,11.5,33.1876
15:20:46.621,12.0625,32.3126
15:20:46.631,10.5625,29.6251
15:20:46.641,11.625,30.6876
15:20:46.650,10.125,28.6876
15:20:46.661,10.25,29.6876
15:20:46.671,9.4375,26.8751
15:20:46.680,9.0625,25.1251
15:20:46.691,7.4375,25.1251
15:20:46.702,7.5,22.5001
15:20:46.711,7.0625,21.3751
15:20:46.726,6.25,20.8751
15:20:46.736,6.3125,20.2501
15:20:46.746,6.5625,19.1876
15:20:46.756,6.1875,18.2501
15:20:46.767,6.125,18.8126
15:20:46.777,6.625,17.2501
15:20:46.789,4.6875,15.1876
15:20:46.797,3.25,14.5001
15:20:46.806,3.125,13.4376
15:20:46.816,2.4375,11.125
15:20:46.826,1.5,9.75
15:20:46.836,0.9375,9.4375
15:20:46.846,1.75,7.8125
15:20:46.857,0.8125,7.875
15:20:46.867,0.4375,6.6875
15:20:46.876,-0.375,6.375
15:20:46.886,-1.6875,3.875
15:20:46.896,-2.875,1.8125
15:20:46.906,-3.6875,0.9375
15:20:46.916,-3.75,-0.4375
15:20:46.925,-3.1875,-1
15:20:46.936,-1.625,1.8125
15:20:46.947,0.0625,3.3125
15:20:46.954,1.6875,6.5
15:20:46.966,3.6875,9.875
15:20:46.976,5.75,15.0001
15:20:46.989,5.875,16.9376
15:20:46.996,6.75,20.4376
15:20:47.007,8.125,22.7501
15:20:47.016,8.0625,24.0001
15:20:47.026,8.9375,26.3751
15:20:47.049,9.25,28.0001
15:20:47.053,9.1875,29.2501
15:20:47.066,8.8125,29.8126
15:20:47.070,8.5625,29.1251
15:20:47.096,7.375,29.0001
15:20:47.098,7.3125,27.8751
15:20:47.103,6.5625,26.8126
15:20:47.106,6.25,27.5001
15:20:47.135,6.3125,25.9376
15:20:47.137,6.5,24.7501
15:20:47.138,5.625,25.3126
15:20:47.147,5.6875,24.0626
15:20:47.172,5.1875,22.5001
15:20:47.176,3.75,20.5001
15:20:47.177,3.3125,20.7501
15:20:47.209,2.875,19.0626
15:20:47.212,2.875,16.9376
15:20:47.216,2.375,16.6876
15:20:47.240,2.3125,16.0001
15:20:47.246,2.25,15.4376
15:20:47.246,1,14.1876
15:20:47.246,0.6875,15.0001
15:20:47.257,1.5625,14.0001
15:20:47.267,1.25,13.4376
15:20:47.277,1.875,14.6251
15:20:47.286,1.625,14.8751
15:20:47.296,2.4375,15.2501
15:20:47.306,2.5625,16.1876
15:20:47.318,3.3125,15.4376
15:20:47.328,3.375,15.6876
15:20:47.337,3.4375,15.3751
15:20:47.346,3.0625,14.8126
15:20:47.363,3.5625,14.9376
15:20:47.370,3.0625,14.0001
15:20:47.378,1.5625,12.3125
15:20:47.387,1.0625,12.5
15:20:47.401,1.375,10.75
15:20:47.419,0.875,11.6875
15:20:47.420,0.8125,9.3125
15:20:47.426,0.1875,8.1875
15:20:47.436,-1.125,7.8125
15:20:47.446,-1.25,7.25
15:20:47.456,-0.875,5.5625
15:20:47.466,-1.375,3.9375
15:20:47.476,-2.125,3.5625
15:20:47.486,-3.375,3.125
15:20:47.497,-2.625,1.1875
15:20:47.506,-3.375,0
15:20:47.516,-4.4375,-0.25
15:20:47.526,-4.375,-1.5625
15:20:47.536,-4.6875,-2.25
15:20:47.546,-4.5625,-3.9375
15:20:47.556,-5.5625,-5.0625
15:20:47.566,-6.4375,-7.25
15:20:47.576,-7.3125,-7.6875
15:20:47.587,-7.625,-8.125
15:20:47.596,-7.5625,-9.25
15:20:47.607,-7.3125,-10.5
15:20:47.616,-7.9375,-10.125
15:20:47.626,-9.1875,-12.5
15:20:47.636,-10.5,-13.3126
15:20:47.646,-10.875,-13.4376
15:20:47.657,-10.4375,-15.1251
15:20:47.666,-10.4375,-16.3126
15:20:47.677,-9.75,-14.8126
15:20:47.686,-9.375,-14.7501
15:20:47.697,-7.1875,-10.4375
15:20:47.706,-5.375,-7.625
15:20:47.716,-2.9375,-3.125
15:20:47.732,-1.3125,0.875
15:20:47.736,0.5625,5.5
15:20:47.751,1.75,8.5625
15:20:47.768,3.3125,13.125
15:20:47.802,4,15.6876
15:20:47.805,5.3125,18.2501
15:20:47.807,5,19.4376
15:20:47.809,5.4375,20.6876
15:20:47.809,4.5625,20.1251
15:20:47.839,5.125,20.5001
15:20:47.841,4.375,20.6251
15:20:47.843,4.3125,19.6876
15:20:47.846,3.875,19.4376
15:20:47.878,3.5625,18.8751
15:20:47.882,3.1875,17.9376
15:20:47.885,2.5,18.6251
15:20:47.886,2.9375,17.6251
15:20:47.923,2.0625,16.5626
15:20:47.927,1.625,16.5001
15:20:47.927,1.4375,16.5001
15:20:47.933,1.375,15.9376
15:20:47.936,1.8125,14.3751
15:20:47.949,1.625,13.8751
15:20:47.957,1.0625,12.6875
15:20:47.966,0.5,11
15:20:47.976,0.125,11.5
15:20:47.986,0.0625,12.25
15:20:47.996,0.6875,10.875
15:20:48.007,0.5,10.9375
15:20:48.016,0,10.75
15:20:48.026,-0.1875,11.75
15:20:48.037,0.1875,11.1875
15:20:48.047,0.25,10.75
15:20:48.056,0.1875,11.25
15:20:48.066,0,13
15:20:48.076,0.9375,11.4375
15:20:48.086,1.3125,11.6875
15:20:48.096,1.0625,11.5
15:20:48.106,1.9375,11.1875
15:20:48.122,0.25,9.875
15:20:48.128,-0.9375,8.5625
15:20:48.136,-1.25,8.5
15:20:48.148,-2.3125,6.5
15:20:48.156,-3,5.125
15:20:48.166,-3.75,5
15:20:48.176,-3.6875,2.8125
15:20:48.186,-4.875,0.6875
15:20:48.196,-6.1875,0.8125
15:20:48.206,-5.5,-0.75
15:20:48.217,-6.5625,-3.125
15:20:48.226,-7,-3.5
15:20:48.236,-7.625,-3.6875
15:20:48.246,-8.0625,-5.0625
15:20:48.256,-9.0625,-7.4375
15:20:48.266,-9.25,-7.125
15:20:48.276,-9.6875,-8.5625
15:20:48.286,-9.75,-9.75
15:20:48.296,-10.4375,-9.5
15:20:48.307,-10,-10.5
15:20:48.316,-10.875,-12
15:20:48.326,-10.75,-10.5
15:20:48.336,-10.75,-12.375
15:20:48.346,-10.875,-13.7501
15:20:48.356,-10.5,-12.5
15:20:48.366,-10.1875,-14.1251
15:20:48.376,-11.625,-14.6251
15:20:48.386,-11.75,-16.1876
15:20:48.397,-12.75,-16.5626
15:20:48.407,-12.5625,-17.6876
15:20:48.416,-12.5,-18.1876
15:20:48.426,-12.5625,-18.5001
15:20:48.436,-13.4376,-19.4376
15:20:48.446,-13,-19.6876
15:20:48.457,-13.7501,-20.4376
15:20:48.466,-14.0001,-22.0626
15:20:48.476,-14.5626,-22.6876
15:20:48.511,-14.9376,-22.9376
15:20:48.512,-14.6251,-23.0001
15:20:48.514,-13.8126,-21.7501
15:20:48.528,-11.6875,-19.0001
15:20:48.532,-9.1875,-14.3126
15:20:48.539,-6.4375,-10.625
15:20:48.569,-4,-4.5
15:20:48.572,-2.25,-1.1875
15:20:48.574,-0.8125,4.125
15:20:48.578,1,8.5
15:20:48.613,1.75,11.4375
15:20:48.615,2.3125,14.0001
15:20:48.617,2.8125,16.8126
15:20:48.624,3.9375,17.1251
15:20:48.628,3.5,19.4376
15:20:48.658,4,19.2501
15:20:48.661,2.9375,20.0001
15:20:48.663,2.6875,18.0626
15:20:48.670,1.5625,17.6251
15:20:48.686,1.375,17.6251
15:20:48.693,1.5625,16.0626
15:20:48.699,1.3125,17.0626
15:20:48.706,0.9375,16.6251
15:20:48.724,1.25,16.4376
15:20:48.730,1.3125,15.6251
15:20:48.738,1.0625,16.3751
15:20:48.746,0.1875,13.6876
15:20:48.758,-1.0625,12.625
15:20:48.766,-1.375,11.9375
15:20:48.776,-1.8125,11.4375
15:20:48.786,-1.5,10.5625
15:20:48.796,-2.25,10.5625
15:20:48.806,-2.125,10.25
15:20:48.817,-1.875,9.75
15:20:48.826,-1.4375,9.625
15:20:48.836,-1.5625,10.5
15:20:48.847,-1.375,11.4375
15:20:48.856,-0.625,11.1875
15:20:48.866,0.0625,11.125
15:20:48.876,-0.25,10.6875
15:20:48.886,-0.4375,11.8125
15:20:48.897,-0.5625,11.125
15:20:48.906,-0.75,10.8125
15:20:48.916,-2.25,9.75
15:20:48.928,-2.5625,8.8125
15:20:48.938,-2.375,7.6875
15:20:48.946,-3.25,7.9375
15:20:48.956,-2.25,6.25
15:20:48.966,-2.75,6.1875
15:20:48.976,-3.0625,7
15:20:48.987,-2.9375,5.25
15:20:48.996,-3.5625,5
15:20:49.006,-3.5625,4.125
15:20:49.016,-4.4375,2.75
15:20:49.027,-4.375,1
15:20:49.036,-6.125,0.5
15:20:49.051,-6.0625,0.1875
15:20:49.060,-6.125,-1.6875
15:20:49.066,-6.875,-3.1875
15:20:49.082,-6.5625,-2.125
15:20:49.099,-6.125,-4
15:20:49.100,-7.3125,-4.4375
15:20:49.106,-8.0625,-5.375
15:20:49.117,-8.5,-6.9375
15:20:49.127,-9.125,-7
15:20:49.136,-8.875,-8.6875
15:20:49.146,-9.5,-10
15:20:49.156,-9.5,-10.625
15:20:49.169,-9.875,-11.4375
15:20:49.176,-10.875,-12.125
15:20:49.208,-10.5625,-12.625
15:20:49.210,-11.5625,-14.3126
15:20:49.212,-12.25,-15.9376
15:20:49.216,-12,-16.1251
15:20:49.251,-11.375,-16.2501
15:20:49.254,-11.25,-15.4376
15:20:49.256,-11.1875,-14.2501
15:20:49.263,-10.125,-15.0626
15:20:49.279,-10.6875,-16.0626
15:20:49.282,-10.5,-15.6251
15:20:49.308,-9.9375,-17.1251
15:20:49.312,-10.125,-16.8751
15:20:49.314,-10.1875,-18.6251
15:20:49.324,-9.75,-18.5001
15:20:49.326,-9.125,-17.8126
15:20:49.342,-7.1875,-16.7501
15:20:49.346,-5.9375,-12.8125
15:20:49.356,-2.8125,-7.8125
15:20:49.366,-0.0625,-3.0625
15:20:49.376,2.0625,2.375
15:20:49.387,4.5625,6.5625
15:20:49.396,6.1875,10.9375
15:20:49.406,7.625,16.6876
15:20:49.416,9.5,18.9376
15:20:49.426,10.375,21.9376
15:20:49.436,10.625,24.3126
15:20:49.446,11.625,25.9376
15:20:49.458,11.1875,27.1876
15:20:49.466,11.875,26.8126
15:20:49.477,11.9375,28.0626
15:20:49.486,12.5,27.4376
15:20:49.496,11.125,27.1251
15:20:49.506,11.6875,26.1251
15:20:49.516,10.875,25.6251
15:20:49.526,10.1875,24.8751
15:20:49.536,9.375,24.8126
15:20:49.546,9.5,24.0001
15:20:49.556,8.5625,23.1876
15:20:49.567,8.5625,22.1251
15:20:49.576,7.75,22.7501
15:20:49.586,8.1875,21.4376
15:20:49.596,7,19.5001
15:20:49.606,6.375,18.3751
15:20:49.616,5.5625,18.8126
15:20:49.626,5.3125,18.0001
15:20:49.636,5.75,17.0626
15:20:49.646,6.3125,16.5626
15:20:49.657,6.4375,18.0626
15:20:49.666,7.625,18.1876
15:20:49.676,6.8125,17.6876
15:20:49.686,6.0625,17.5001
15:20:49.696,6.375,18.5001
15:20:49.706,6.4375,17.1876
15:20:49.716,5.5,17.1876
15:20:49.726,6.3125,17.5001
15:20:49.736,6.3125,18.2501
15:20:49.747,6.1875,18.3751
15:20:49.756,7.375,17.8751
15:20:49.766,6.3125,17.2501
15:20:49.799,5.5,17.5001
15:20:49.800,5.625,16.0001
15:20:49.802,4.375,13.9376
15:20:49.806,2.875,11.625
15:20:49.816,1.3125,11.9375
15:20:49.832,1.5625,11.625
15:20:49.837,2.3125,10.125
15:20:49.846,2.1875,9.3125
15:20:49.856,1.5625,7.625
15:20:49.866,0.25,5.9375
15:20:49.876,-0.5,6.25
15:20:49.886,-0.8125,3.625
15:20:49.896,-1.375,2.6875
15:20:49.906,-1.125,1.75
15:20:49.916,-0.4375,3.1875
15:20:49.927,0.125,2.3125
15:20:49.961,-0.75,0.9375
15:20:49.963,-2,0.3125
15:20:49.966,-2.5625,-0.1875
15:20:49.969,-2.1875,-1.6875
15:20:50.010,-2.1875,-3.3125
15:20:50.012,-2.9375,-3.875
15:20:50.124,-3.1875,-3.125
15:20:50.124,-3.1875,-4
15:20:50.136,-2.6875,-3.875
15:20:50.136,-3.3125,-4.75
15:20:50.136,-3.3125,-5.125
15:20:50.143,-2.875,-5.5625
15:20:50.159,-3.5,-6.625
15:20:50.161,-4.25,-7
15:20:50.171,-5,-9.125
15:20:50.181,-6.375,-9.875
15:20:50.191,-6.4375,-10.5625
15:20:50.207,-5.6875,-11.9375
15:20:50.212,-5.9375,-11.8125
15:20:50.221,-4.5,-9.6875
15:20:50.231,-4,-7.6875
15:20:50.241,-2.125,-5.375
15:20:50.251,-0.6875,-2.375
15:20:50.261,0.375,1.5
15:20:50.271,2.6875,4.3125
15:20:50.281,4.375,8.875
15:20:50.291,5.9375,12.0625
15:20:50.301,7.25,22.8126
15:20:50.311,6.5,21.3126
15:20:50.321,6.375,21.1876
15:20:50.333,6.125,19.8126
15:20:50.341,5.4375,19.7501
15:20:50.351,4.0625,17.3126
15:20:50.367,3.0625,15.2501
15:20:50.386,2.25,14.7501
15:20:50.386,1.4375,12.3125
15:20:50.400,1.125,12.3125
15:20:50.402,0.5625,10.375
15:20:50.418,0.4375,10
15:20:50.423,0.3125,9.625
15:20:50.431,-0.75,8.4375
15:20:50.441,-1.3125,8.9375
15:20:50.451,-1.125,8.1875
15:20:50.462,-1.4375,6.375
15:20:50.472,-2.1875,7.3125
15:20:50.481,-2.3125,7.4375
15:20:50.491,-2,6.75
15:20:50.501,-2.8125,6.125
15:20:50.511,-4.25,5.5
15:20:50.521,-5.8125,3.6875
15:20:50.531,-9.375,0.8125
15:20:50.541,-12.5,-2.25
15:20:50.551,-18.0001,-5.5625
15:20:50.561,-22.6251,-8.9375
15:20:50.572,-29.3126,-15.7501
15:20:50.583,-37.1876,-22.2501
15:20:50.591,-48.1252,-31.8126
15:20:50.631,-64.3127,-43.1877
15:20:50.631,-78.9378,-55.1252
15:20:50.634,-93.0629,-65.7503
15:20:50.636,-109.3129,-81.2503
15:20:50.670,-132.7505,-102.9379
15:20:50.672,-145.8755,-118.6255
15:20:50.675,-147.8131,-123.2505
15:20:50.678,-148.6881,-126.188
15:20:50.720,-146.6881,-127.5005
15:20:50.721,-146.6256,-128.063
15:20:50.723,-147.1256,-129.7505
15:20:50.730,-147.1256,-131.2505
15:20:50.735,-145.8755,-131.7505
15:20:50.749,-144.7505,-131.063
15:20:50.752,-144.6255,-131.313
15:20:50.779,-143.063,-131.1255
15:20:50.781,-135.438,-125.6255
15:20:50.783,-132.5005,-123.438
15:20:50.788,-130.0005,-121.688
15:20:50.796,-129.0005,-120.2505
15:20:50.807,-125.6255,-118.813
15:20:50.816,-123.6255,-115.5629
15:20:50.828,-120.313,-115.4379
15:20:50.837,-120.7505,-116.5004
15:20:50.846,-120.188,-117.0005
15:20:50.858,-124.313,-121.7505
15:20:50.868,-128.313,-125.188
15:20:50.876,-129.5005,-129.0005
15:20:50.886,-129.6255,-129.8755
15:20:50.898,-130.3755,-133.1255
15:20:50.906,-131.938,-133.813
15:20:50.918,-140.2505,-140.3755
15:20:50.926,-143.563,-145.3755
15:20:50.937,-145.688,-145.813
15:20:50.948,-144.813,-144.6255
15:20:50.961,-141.1255,-139.5005
15:20:50.967,-139.438,-134.0005
15:20:50.976,-136.813,-130.0005
15:20:50.987,-134.813,-123.8755
15:20:50.997,-131.813,-117.6255
15:20:51.008,-129.063,-114.9379
15:20:51.017,-127.0005,-110.0629
15:20:51.026,-124.7505,-107.8129
15:20:51.037,-123.0005,-105.5004
15:20:51.047,-121.938,-102.5629
15:20:51.080,-120.938,-101.0629
15:20:51.082,-119.063,-100.5629
15:20:51.084,-117.7505,-96.5629
15:20:51.088,-115.3129,-95.8754
15:20:51.100,-114.4379,-92.5004
15:20:51.107,-112.6879,-92.2504
15:20:51.116,-109.7504,-88.9378
15:20:51.126,-107.9379,-86.5003
15:20:51.136,-104.3754,-84.6253
15:20:51.146,-101.8129,-81.1253
15:20:51.157,-99.2504,-79.3128
15:20:51.166,-95.7504,-76.0628
15:20:51.177,-92.8129,-74.7503
15:20:51.187,-90.1253,-71.3753
15:20:51.196,-87.8128,-67.3128
15:20:51.206,-84.3128,-66.7503
15:20:51.216,-81.6878,-62.5002
15:20:51.226,-79.4378,-60.1252
15:20:51.237,-77.9378,-58.5002
15:20:51.246,-75.8128,-56.0002
15:20:51.257,-72.1253,-51.7502
15:20:51.267,-67.8753,-47.1252
15:20:51.278,-63.1252,-42.5002
15:20:51.287,-57.5627,-35.8126
15:20:51.297,-52.1877,-30.7501
15:20:51.306,-48.4377,-26.3126
15:20:51.318,-45.8752,-21.6251
15:20:51.327,-41.8127,-19.2501
15:20:51.336,-37.8751,-13.3751
15:20:51.347,-33.2501,-8.9375
15:20:51.356,-30.2501,-6.125
15:20:51.368,-29.5626,-4.375
15:20:51.385,-27.8751,-4.1875
15:20:51.391,-25.8126,-2.3125
15:20:51.418,-23.3751,-0.9375
15:20:51.421,-20.5626,0.9375
15:20:51.424,-18.7501,2.875
15:20:51.426,-17.7501,2.8125
15:20:51.460,-17.1876,1.5625
15:20:51.461,-17.0626,0.8125
15:20:51.463,-17.7501,-0.3125
15:20:51.498,-17.2501,-2.1875
15:20:51.499,-18.3751,-1.9375
15:20:51.503,-19.0626,-5.3125
15:20:51.509,-18.9376,-5.1875
15:20:51.509,-17.9376,-5.5
15:20:51.522,-16.2501,-5
15:20:51.528,-15.2501,-5.125
15:20:51.558,-14.4376,-5.375
15:20:51.561,-13.6876,-5.9375
15:20:51.564,-13.3126,-7.25
15:20:51.569,-13.1251,-8
15:20:51.580,-14.1876,-10.8125
15:20:51.591,-16.4376,-14.1876
15:20:51.597,-19.5626,-17.9376
15:20:51.606,-21.0626,-19.8126
15:20:51.616,-24.6876,-24.9376
15:20:51.627,-26.2501,-26.8751
15:20:51.638,-31.0001,-32.4376
15:20:51.648,-34.0626,-39.0001
15:20:51.656,-38.0001,-44.3127
15:20:51.668,-43.8752,-52.4377
15:20:51.686,-47.3752,-57.1877
15:20:51.688,-48.7502,-58.2502
15:20:51.704,-48.4377,-57.1877
15:20:51.708,-47.3752,-54.1877
15:20:51.722,-45.0627,-50.8752
15:20:51.727,-41.8752,-45.3127
15:20:51.737,-40.3752,-39.2502
15:20:51.746,-37.7501,-34.8751
15:20:51.757,-35.8126,-32.2501
15:20:51.767,-34.3751,-28.8751
15:20:51.777,-33.6251,-26.8751
15:20:51.788,-33.0001,-23.8751
15:20:51.797,-31.6876,-22.5626
15:20:51.807,-30.8751,-20.4376
15:20:51.818,-29.7501,-19.5001
15:20:51.827,-29.5626,-17.9376
15:20:51.837,-29.4376,-19.4376
15:20:51.848,-29.7501,-19.8751
15:20:51.857,-29.6251,-18.8751
15:20:51.867,-30.1251,-20.2501
15:20:51.877,-30.1251,-19.9376
15:20:51.887,-30.9376,-20.8126
15:20:51.897,-31.4376,-20.0001
15:20:51.907,-31.4376,-21.5626
15:20:51.917,-32.0626,-22.4376
15:20:51.926,-32.5001,-23.2501
15:20:51.937,-31.8751,-23.0001
15:20:51.947,-31.9376,-23.5626
15:20:51.957,-32.0626,-22.7501
15:20:51.967,-31.0001,-22.6251
15:20:51.977,-28.3126,-19.6251
15:20:51.987,-26.3126,-18.0001
15:20:51.997,-24.5001,-15.8126
15:20:52.008,-22.8126,-14.2501
15:20:52.017,-21.5001,-12.25
15:20:52.027,-21.3751,-10.625
15:20:52.037,-21.2501,-10.3125
15:20:52.048,-22.6876,-11
15:20:52.057,-22.5001,-9.9375
15:20:52.067,-22.4376,-9.125
15:20:52.077,-21.1876,-7.5625
15:20:52.087,-17.9376,-3.75
15:20:52.101,-13.3751,0.8125
15:20:52.121,-8.625,5.625
15:20:52.123,-4.125,10.6875
15:20:52.128,-0.875,14.1876
15:20:52.163,3.5,20.3751
15:20:52.166,6.6875,25.2501
15:20:52.167,9.3125,27.1251
15:20:52.171,10.1875,28.8751
15:20:52.178,11.75,29.1876
15:20:52.215,11.0625,27.8751
15:20:52.217,9.8125,27.3126
15:20:52.220,8.75,26.4376
15:20:52.222,9.125,25.1876
15:20:52.228,9.375,25.0626
15:20:52.259,10.0625,25.8751
15:20:52.263,10,24.8751
15:20:52.264,9.3125,24.0001
15:20:52.270,7.75,20.6876
15:20:52.291,5.5,19.5626
15:20:52.292,4.125,16.9376
15:20:52.299,3.1875,16.6876
15:20:52.307,3.375,15.8126
15:20:52.320,4.0625,15.4376
15:20:52.327,4.625,14.6251
15:20:52.362,6,13.8751
15:20:52.364,4.25,12.8125
15:20:52.367,3.375,11.8125
15:20:52.373,3.0625,10.0625
15:20:52.377,3.5625,11
15:20:52.387,3.4375,8.9375
15:20:52.397,3.4375,8.375
15:20:52.407,3.125,7.875
15:20:52.417,4.0625,6.875
15:20:52.427,3,4.625
15:20:52.437,1.4375,4.125
15:20:52.447,2.0625,5.1875
15:20:52.457,4.5,6.3125
15:20:52.467,6.1875,9.5
15:20:52.477,8.1875,13.6876
15:20:52.487,9.4375,16.1876
15:20:52.497,9.75,17.5001
15:20:52.507,8.25,18.8126
15:20:52.518,5.5,19.6876
15:20:52.527,0.875,17.6251
15:20:52.537,-3.1875,14.5626
15:20:52.548,-9.125,7.0625
15:20:52.557,-16.8751,-0.5625
15:20:52.567,-21.0001,-3.5
15:20:52.578,-22.7501,-6.75
15:20:52.587,-23.6251,-8.125
15:20:52.597,-24.6251,-8.25
15:20:52.607,-24.0626,-8.6875
15:20:52.618,-24.8751,-9.375
15:20:52.627,-25.8751,-8.9375
15:20:52.638,-25.3126,-11
15:20:52.647,-25.0001,-10.8125
15:20:52.657,-23.9376,-11.3125
15:20:52.667,-23.3751,-10.125
15:20:52.686,-23.3126,-11.375
15:20:52.693,-23.1251,-13.6251
15:20:52.710,-23.6876,-14.5626
15:20:52.713,-22.0001,-16.0001
15:20:52.718,-23.5626,-16.5001
15:20:52.727,-22.8751,-18.2501
15:20:52.737,-23.1876,-19.0001
15:20:52.748,-21.3751,-19.5001
15:20:52.758,-21.0626,-19.1251
15:20:52.768,-21.1876,-20.0626
15:20:52.777,-21.2501,-20.5626
15:20:52.787,-19.0001,-18.5626
15:20:52.797,-17.3126,-15.6876
15:20:52.818,-15.2501,-15.0626
15:20:52.821,-14.3751,-12.3125
15:20:52.837,-13.1876,-12
15:20:52.840,-13.9376,-11.125
15:20:52.868,-13.5626,-10.4375
15:20:52.870,-11.0625,-10.1875
15:20:52.872,-10.375,-8.1875
15:20:52.877,-9.3125,-6.375
15:20:52.892,-8.375,-6.0625
15:20:52.897,-9.125,-5.625
15:20:52.936,-8.0625,-5.3125
15:20:52.937,-7.3125,-2.8125
15:20:52.941,-8.9375,-3.9375
15:20:52.945,-10.5625,-3.625
15:20:52.951,-10.5625,-2.875
15:20:52.989,-8.8125,-2.5
15:20:52.991,-5.6875,-0.25
15:20:53.007,-1.0625,5.5
15:20:53.014,1.9375,9.125
15:20:53.014,6.9375,14.8126
15:20:53.018,11,19.1876
15:20:53.018,13.1876,22.5626
15:20:53.027,14.7501,23.9376
15:20:53.038,16.0626,25.7501
15:20:53.047,17.5626,27.0626
15:20:53.057,19.0626,28.2501
15:20:53.067,18.8126,26.6876
15:20:53.078,19.0001,26.5626
15:20:53.088,20.6876,27.0001
15:20:53.097,21.7501,29.0626
15:20:53.108,21.1251,27.0001
15:20:53.117,19.6251,25.4376
15:20:53.127,18.8751,22.7501
15:20:53.137,21.1251,25.8751
15:20:53.147,24.1876,28.0626
15:20:53.158,26.1876,28.7501
15:20:53.168,26.3751,29.2501
15:20:53.178,26.7501,30.1876
15:20:53.188,26.3751,31.8751
15:20:53.197,26.4376,34.9376
15:20:53.208,27.3751,37.8751
15:20:53.217,28.8751,42.0627
15:20:53.227,32.0626,47.9377
15:20:53.238,35.8751,53.6252
15:20:53.247,37.5626,56.9377
15:20:53.258,38.5626,60.7502
15:20:53.268,38.5001,64.2502
15:20:53.277,38.8126,64.3752
15:20:53.287,38.3126,65.0002
15:20:53.297,37.8751,64.5627
15:20:53.307,37.0626,66.1878
15:20:53.317,38.1876,65.8753
15:20:53.327,38.9376,65.5628
15:20:53.337,40.8127,67.8128
15:20:53.347,43.3752,68.7503
15:20:53.357,42.2502,67.5003
15:20:53.367,37.8126,63.5002
15:20:53.377,33.3126,56.6252
15:20:53.387,24.5001,46.7502
15:20:53.398,13.125,33.3126
15:20:53.407,-0.4375,17.2501
15:20:53.417,-10,4
15:20:53.427,-13.1876,-3.625
15:20:53.437,-13.9376,-6.25
15:20:53.447,-14.1876,-7.1875
15:20:53.457,-13.7501,-7.4375
15:20:53.468,-15.5001,-9.6875
15:20:53.477,-18.0001,-11.25
15:20:53.487,-18.2501,-10.625
15:20:53.498,-16.6251,-11.625
15:20:53.507,-13.6251,-12
15:20:53.517,-8.9375,-10.3125
15:20:53.527,-4.25,-7.4375
15:20:53.537,-2.625,-7.0625
15:20:53.547,-1.0625,-7.5
15:20:53.557,-0.125,-6.5
15:20:53.567,0.5,-7.5
15:20:53.577,-0.625,-9.3125
15:20:53.587,-3.125,-10.9375
15:20:53.598,-5.125,-12.1875
15:20:53.608,-5.9375,-12.1875
15:20:53.640,-6,-12.875
15:20:53.642,-5.625,-12.3125
15:20:53.645,-5.8125,-12.3125
15:20:53.651,-6,-12.25
15:20:53.666,-5.875,-10.5
15:20:53.668,-6.125,-10.5
15:20:53.697,-5.625,-11.1875
15:20:53.698,-8.0625,-12.3125
15:20:53.701,-10.75,-13.7501
15:20:53.708,-12.3125,-14.7501
15:20:53.724,-14.3751,-15.5626
15:20:53.728,-14.6876,-15.1876
15:20:53.764,-16.7501,-10.4375
15:20:53.768,-18.3751,-11.875
15:20:53.769,-19.7501,-10.75
15:20:53.777,-16.7501,-9.8125
15:20:53.790,-12.9375,-3.6875
15:20:53.792,-6.1875,1.625
15:20:53.798,0.4375,12.1875
15:20:53.821,5.3125,15.1251
15:20:53.823,10.625,20.4376
15:20:53.830,16.0001,27.3126
15:20:53.837,22.3751,33.0626
15:20:53.847,25.7501,37.8751
15:20:53.857,31.3751,42.8127
15:20:53.868,32.8126,45.8127
15:20:53.877,33.8751,46.3127
15:20:53.887,33.1251,48.1877
15:20:53.897,37.1876,52.6252
15:20:53.907,41.6877,60.8752
15:20:53.918,43.4377,64.2502
15:20:53.928,46.1877,70.7503
15:20:53.937,50.6252,76.8753
15:20:53.947,56.1877,84.5628
15:20:53.957,59.2502,88.7503
15:20:53.967,61.1877,92.7504
15:20:53.988,60.6877,93.0629
15:20:53.992,58.3752,93.5629
15:20:54.007,56.3127,92.2504
15:20:54.009,56.0627,92.0004
15:20:54.017,53.4377,89.2503
15:20:54.027,50.9377,87.1878
15:20:54.037,52.0002,88.0628
15:20:54.047,52.8752,90.8754
15:20:54.057,54.0627,90.5629
15:20:54.067,53.5627,88.1253
15:20:54.077,52.1252,88.2503
15:20:54.087,50.3127,86.8128
15:20:54.097,50.9377,84.5003
15:20:54.107,49.8127,82.0003
15:20:54.117,48.9377,79.0003
15:20:54.127,48.0627,78.1253
15:20:54.137,47.0002,76.1253
15:20:54.149,47.2502,74.9378
15:20:54.157,48.1877,74.5628
15:20:54.167,47.6252,74.2503
15:20:54.177,47.2502,73.5003
15:20:54.187,46.0002,72.4378
15:20:54.197,44.8752,69.7503
15:20:54.207,44.4377,68.8753
15:20:54.217,44.5002,68.6878
15:20:54.227,45.6877,69.5003
15:20:54.239,44.8752,68.2503
15:20:54.247,42.0002,66.1253
15:20:54.257,41.4377,64.8752
15:20:54.267,40.5002,61.5002
15:20:54.285,39.3127,60.2502
15:20:54.287,38.9376,59.5627
15:20:54.302,39.1252,57.2502
15:20:54.308,40.0002,57.4377
15:20:54.317,40.3127,55.7502
15:20:54.327,40.5627,54.8752
15:20:54.337,39.5627,52.8127
15:20:54.365,37.1876,49.7502
15:20:54.367,33.5626,45.4377
15:20:54.370,31.0626,41.0627
15:20:54.411,29.3751,37.0001
15:20:54.414,26.1876,34.3126
15:20:54.416,24.5626,30.6251
15:20:54.418,23.6251,28.1876
15:20:54.424,21.9376,24.6251
15:20:54.429,21.6251,22.0001
15:20:54.467,18.6876,18.4376
15:20:54.470,14.9376,13.2501
15:20:54.472,8.0625,5.8125
15:20:54.475,4.4375,0.1875
15:20:54.477,0,-5.5
15:20:54.508,-5.875,-12.875
15:20:54.510,-10.625,-19.6251
15:20:54.511,-16.0001,-26.5001
15:20:54.519,-22.9376,-34.0626
15:20:54.527,-26.3751,-40.3127
15:20:54.537,-28.4376,-43.6252
15:20:54.547,-31.1876,-47.1877
15:20:54.557,-33.6251,-51.4377
15:20:54.571,-37.8751,-56.0002
15:20:54.578,-43.3127,-60.4377
15:20:54.587,-45.6877,-64.1252
15:20:54.597,-46.9377,-63.8752
15:20:54.612,-45.0002,-61.8127
15:20:54.622,-42.5627,-59.0627
15:20:54.633,-40.3127,-55.3752
15:20:54.642,-37.8751,-51.4377
15:20:54.652,-37.8751,-47.6252
15:20:54.662,-36.5626,-44.4377
15:20:54.672,-34.8126,-39.3127
15:20:54.682,-34.6251,-37.9376
15:20:54.692,-34.5001,-36.8751
15:20:54.702,-35.5001,-35.9376
15:20:54.712,-36.3126,-35.6251
15:20:54.727,-35.0626,-34.4376
15:20:54.737,-34.3751,-33.3126
15:20:54.749,-32.0001,-31.1251
15:20:54.758,-31.5001,-29.8126
15:20:54.767,-29.6251,-28.8126
15:20:54.777,-29.4376,-26.6876
15:20:54.787,-28.1876,-25.7501
15:20:54.799,-27.8126,-25.6251
15:20:54.808,-27.7501,-24.5001
15:20:54.818,-27.0001,-24.3126
15:20:54.828,-26.5626,-25.0626
15:20:54.837,-25.1876,-24.1251
15:20:54.847,-23.6876,-22.9376
15:20:54.857,-22.2501,-21.8126
15:20:54.867,-20.3751,-20.8126
15:20:54.877,-19.3751,-17.3126
15:20:54.888,-14.8126,-14.0626
15:20:54.919,-12.6875,-9.8125
15:20:54.921,-10.9375,-8.6875
15:20:54.926,-9.9375,-7.4375
15:20:54.930,-7.75,-5.125
15:20:54.937,-5.375,-3.3125
15:20:54.947,-3.375,-0.625
15:20:54.957,-2.625,-0.25
15:20:54.967,-2.3125,0.3125
15:20:54.978,-0.125,0.9375
15:20:54.987,1.125,2.625
15:20:54.997,3.75,3.1875
15:20:55.007,5,4.125
15:20:55.017,6.5,5
15:20:55.027,8.9375,6.3125
15:20:55.057,9.375,8.125
15:20:55.060,10.25,7.3125
15:20:55.062,11.1875,6.875
15:20:55.072,12.8125,8.9375
15:20:55.107,12.375,6.625
15:20:55.110,12.25,5.25
15:20:55.111,12.625,4.875
15:20:55.114,12.4375,4.375
15:20:55.121,12.6875,2.875
15:20:55.127,11.3125,2.1875
15:20:55.159,9.5625,0.1875
15:20:55.162,9.75,-2.375
15:20:55.164,9.125,-2.875
15:20:55.169,7.875,-3.8125
15:20:55.201,7.1875,-6.5625
15:20:55.202,5.3125,-8.125
15:20:55.205,5,-9
15:20:55.212,4.375,-9.625
15:20:55.218,3.125,-11.4375
15:20:55.227,4.5625,-12
15:20:55.237,4.8125,-13.4376
15:20:55.247,4.875,-13.5626
15:20:55.257,4.75,-14.3126
15:20:55.267,5.3125,-15.5626
15:20:55.288,3.8125,-18.2501
15:20:55.295,2.3125,-18.9376
15:20:55.300,0.8125,-20.1251
15:20:55.313,1.5,-21.1876
15:20:55.318,1.1875,-21.8126
15:20:55.329,1.9375,-19.1876
15:20:55.337,3.3125,-17.6876
15:20:55.348,5.25,-13
15:20:55.357,9.9375,-8.0625
15:20:55.367,13.0625,-3.375
15:20:55.377,15.3751,1.75
15:20:55.387,17.3751,4.125
15:20:55.397,18.6876,5.625
15:20:55.414,19.3126,8.0625
15:20:55.417,18.1876,7.625
15:20:55.427,17.0001,7.125
15:20:55.437,15.5001,6.625
15:20:55.447,14.7501,5.75
15:20:55.457,14.3126,4.1875
15:20:55.467,15.1876,4.375
15:20:55.477,15.1251,4.8125
15:20:55.488,15.1876,2.5625
15:20:55.497,13.125,0.6875
15:20:55.507,12.8125,-0.375
15:20:55.518,10.8125,-4.8125
15:20:55.527,152.6256,128.8755
15:20:55.537,145.3755,91.1879
15:20:55.547,171.8132,107.5629
15:20:55.558,176.6882,112.2504
15:20:55.568,177.5007,111.1254
15:20:55.583,170.1881,102.8754
15:20:55.598,163.0006,96.1254
15:20:55.601,157.4381,89.8753
15:20:55.609,156.5006,85.7503
15:20:55.618,160.6256,86.0628
15:20:55.628,167.9381,89.9378
15:20:55.637,175.1257,91.8754
15:20:55.648,181.0007,96.5629
15:20:55.658,186.7507,100.1254
15:20:55.668,188.8132,101.7504
15:20:55.679,189.0632,104.8129
15:20:55.688,180.1257,96.9379
15:20:55.697,159.2506,80.8128
15:20:55.711,145.938,70.3128
15:20:55.717,140.3755,65.9378
15:20:55.739,138.2505,64.6252
15:20:55.740,134.188,62.3127
15:20:55.775,129.063,58.8127
15:20:55.776,123.188,55.8127
15:20:55.780,120.1255,52.3127
15:20:55.782,115.6879,49.7502
15:20:55.816,108.0004,43.5627
15:20:55.818,99.5004,35.5001
15:20:55.822,88.1253,28.1876
15:20:55.827,78.0628,18.6876
15:20:55.827,65.3753,10.75
15:20:55.841,55.1877,1.625
15:20:55.847,46.5002,-4.5625
15:20:55.879,38.3126,-12
15:20:55.882,30.7501,-15.8126
15:20:55.884,24.9376,-21.8751
15:20:55.892,19.3751,-25.7501
15:20:55.900,14.7501,-27.5001
15:20:55.907,9.875,-31.8751
15:20:55.917,4.4375,-34.0001
15:20:55.930,-1.1875,-37.0626
15:20:55.938,-6.75,-39.7502
15:20:55.947,-11.125,-42.9377
15:20:55.958,-15.0001,-45.0002
15:20:55.968,-16.6876,-45.6252
15:20:55.977,-17.6876,-45.3752
15:20:55.988,-20.1876,-46.8752
15:20:55.998,-22.7501,-49.0627
15:20:56.008,-26.1251,-50.5627
15:20:56.018,-30.1251,-53.1252
15:20:56.027,-32.4376,-52.8752
15:20:56.037,-33.3126,-53.1252
15:20:56.048,-32.5001,-50.1252
15:20:56.058,-29.6251,-44.8752
15:20:56.067,-26.1251,-39.2502
15:20:56.078,-22.9376,-34.4376
15:20:56.087,-22.9376,-30.3126
15:20:56.097,-22.0001,-28.8126
15:20:56.108,-22.5626,-27.1876
15:20:56.117,-24.0001,-27.0001
15:20:56.128,-23.6251,-25.6251
15:20:56.138,-23.4376,-23.8751
15:20:56.147,-23.0626,-23.8751
15:20:56.158,-23.8751,-23.8126
15:20:56.167,-25.6251,-23.0626
15:20:56.198,-26.3126,-25.2501
15:20:56.201,-29.3126,-27.7501
15:20:56.203,-32.3751,-29.5001
15:20:56.208,-35.8126,-33.5626
15:20:56.217,-38.8751,-36.8751
15:20:56.228,-40.3752,-38.3126
15:20:56.239,-44.9377,-41.5002
15:20:56.247,-47.1877,-44.5627
15:20:56.258,-47.9377,-46.0627
15:20:56.267,-50.0002,-47.8752
15:20:56.277,-51.8752,-50.7502
15:20:56.288,-53.3752,-52.0627
15:20:56.297,-52.7502,-52.3752
15:20:56.308,-52.2502,-52.4377
15:20:56.319,-52.1877,-51.3752
15:20:56.327,-52.3752,-50.7502
15:20:56.338,-51.8752,-50.5002
15:20:56.348,-49.0627,-49.1252
15:20:56.358,-48.3752,-48.0002
15:20:56.368,-46.1877,-46.7502
15:20:56.378,-45.0002,-45.4377
15:20:56.390,-43.8752,-42.5627
15:20:56.398,-42.1877,-42.2502
15:20:56.408,-41.1252,-39.9377
15:20:56.420,-40.0627,-40.5627
15:20:56.428,-38.4376,-38.3126
15:20:56.439,-37.7501,-36.6876
15:20:56.449,-36.2501,-36.5626
15:20:56.462,-35.1876,-35.7501
15:20:56.473,-35.7501,-35.5626
15:20:56.484,-35.9376,-36.7501
15:20:56.493,-34.3126,-36.1251
15:20:56.504,-34.3126,-36.6876
15:20:56.512,-32.7501,-36.0001
15:20:56.524,-32.2501,-35.5001
15:20:56.556,-34.6251,-37.6251
15:20:56.558,-34.9376,-39.5627
15:20:56.561,-36.8751,-40.3127
15:20:56.563,-37.4376,-43.1252
15:20:56.599,-38.0626,-43.6252
15:20:56.631,-37.5626,-44.0627
15:20:56.634,-36.5626,-44.2502
15:20:56.638,-35.8126,-42.7502
15:20:56.641,-34.3751,-43.3752
15:20:56.642,-33.0001,-41.9377
15:20:56.642,-33.7501,-42.3752
15:20:56.649,-33.5001,-44.1252
15:20:56.676,-34.5626,-43.7502
15:20:56.680,-33.3751,-46.1252
15:20:56.682,-33.4376,-45.5002
15:20:56.703,-33.7501,-45.7502
15:20:56.705,-33.3751,-47.1877
15:20:56.708,-32.5626,-46.0627
15:20:56.722,-32.4376,-45.5002
15:20:56.729,-30.8751,-46.3127
15:20:56.739,-29.8751,-44.1252
15:20:56.749,-28.5001,-44.1877
15:20:56.758,-27.5001,-42.6252
15:20:56.767,-26.6251,-43.8752
15:20:56.779,-26.6251,-41.6252
15:20:56.789,-25.4376,-40.0627
15:20:56.798,-24.4376,-38.0626
15:20:56.809,-20.5001,-32.5001
15:20:56.817,-17.1251,-26.1251
15:20:56.829,-13.4376,-21.6251
15:20:56.837,-9.875,-15.0626
15:20:56.849,-6.125,-11.3125
15:20:56.858,-3.875,-6.3125
15:20:56.878,-1.875,-4.25
15:20:56.880,-2.125,-3.1875
15:20:56.896,-2.1875,-2.5
15:20:56.902,-2.875,-1
15:20:56.909,-1.5625,-2.0625
15:20:56.918,-0.5,-0.5625
15:20:56.929,-0.8125,0.5
15:20:56.938,-1.0625,-1.5
15:20:56.948,-1.8125,-1.8125
15:20:56.959,-3.4375,-1.6875
15:20:56.968,-4.125,-4.1875
15:20:56.978,-4.25,-4.3125
15:20:56.988,-4.9375,-4.8125
15:20:56.998,-3.625,-4.8125
15:20:57.009,-3.1875,-4.4375
15:20:57.018,-1.8125,-4.1875
15:20:57.028,-2.6875,-5
15:20:57.038,-2.625,-5.4375
15:20:57.048,-3.4375,-6.0625
15:20:57.058,-4,-7.25
15:20:57.068,-3.6875,-7.25
15:20:57.078,-4.25,-6.0625
15:20:57.089,-2.375,-6.9375
15:20:57.099,-1.625,-5.375
15:20:57.109,-1.375,-6.3125
15:20:57.119,-0.3125,-6.125
15:20:57.128,-1.375,-5.8125
15:20:57.138,-0.5625,-5.5625
15:20:57.148,0,-4.25
15:20:57.158,1.125,-5
15:20:57.172,2.375,-3.375
15:20:57.181,3.25,-1.3125
15:20:57.188,4.25,-2.25
15:20:57.199,5.375,-1.875
15:20:57.211,5.3125,-1.5
15:20:57.218,5.125,-2.4375
15:20:57.229,4.875,-3.1875
15:20:57.238,3.9375,-3.625
15:20:57.248,3.25,-5.125
15:20:57.258,2.125,-5.6875
15:20:57.278,1.8125,-8.125
15:20:57.282,1.25,-9.5625
15:20:57.308,0.0625,-10.875
15:20:57.312,-0.25,-12.0625
15:20:57.313,-0.75,-12.75
15:20:57.319,-0.0625,-14.0001
15:20:57.354,0.75,-12.6875
15:20:57.356,1.6875,-14.3751
15:20:57.358,0.9375,-14.1876
15:20:57.398,1.375,-15.1876
15:20:57.399,1.5,-15.6251
15:20:57.403,2.125,-15.1876
15:20:57.408,0.1875,-17.3751
15:20:57.408,-0.5,-18.6251
15:20:57.408,-1.0625,-19.6876
15:20:57.421,-0.875,-20.8126
15:20:57.453,-1.5,-21.0001
15:20:57.454,-1.375,-21.6251
15:20:57.456,-1.25,-23.6251
15:20:57.482,-2.625,-23.0001
15:20:57.486,-2.375,-25.3751
15:20:57.488,-2.25,-25.6876
15:20:57.491,-2.1875,-26.0626
15:20:57.500,-2.3125,-26.1251
15:20:57.511,-1.625,-25.6251
15:20:57.519,-2.1875,-26.2501
15:20:57.529,-4.3125,-28.3751
15:20:57.538,-5.5,-29.9376
15:20:57.548,-5.9375,-30.5001
15:20:57.559,-4.9375,-30.5626
15:20:57.569,-2.125,-27.5626
15:20:57.579,-0.0625,-22.3751
15:20:57.588,2.75,-20.8751
15:20:57.599,5.25,-16.0001
15:20:57.609,8.3125,-12.0625
15:20:57.618,10.0625,-7.5
15:20:57.628,10.625,-4.4375
15:20:57.638,11.8125,-2.9375
15:20:57.648,12.125,-2.1875
15:20:57.659,12.9375,0.875
15:20:57.669,12.1875,-0.125
15:20:57.679,11.75,0.6875
15:20:57.688,10.875,-0.3125
15:20:57.699,10.5,0.1875
15:20:57.708,10.1875,-0.5625
15:20:57.718,10.125,-1.1875
15:20:57.728,9.6875,-1.75
15:20:57.738,9.5,-1.125
15:20:57.748,10.25,-2.75
15:20:57.759,10.625,-1.25
15:20:57.768,11.25,-0.8125
15:20:57.778,11.4375,-1.125
15:20:57.788,11.0625,-2.0625
15:20:57.798,11.1875,-2
15:20:57.808,10.8125,-2.5
15:20:57.818,10.9375,-4.0625
15:20:57.829,10.0625,-5.25
15:20:57.839,8.8125,-6
15:20:57.848,7.8125,-6
15:20:57.858,9,-6.9375
15:20:57.868,8.5625,-8.0625
15:20:57.881,8,-7.5
15:20:57.898,8,-7.25
15:20:57.903,9.125,-7.875
15:20:57.912,9,-8.0625
15:20:57.919,8.5,-6.75
15:20:57.965,9.3125,-7.0625
15:20:57.966,7.9375,-8
15:20:57.968,7.375,-7.8125
15:20:57.973,7.875,-8.75
15:20:58.010,7.375,-10.25
15:20:58.011,6.6875,-10.3125
15:20:58.017,5.8125,-10.0625
15:20:58.020,6.5,-10.9375
15:20:58.021,6,-12.1875
15:20:58.021,5.875,-11.875
15:20:58.030,6.5,-11.875
15:20:58.058,6.625,-13.3751
15:20:58.060,6,-14.0626
15:20:58.062,6.25,-13.5001
15:20:58.070,6.4375,-14.3126
15:20:58.095,5.6875,-14.6876
15:20:58.098,3.5625,-15.6876
15:20:58.100,2.5,-18.5626
15:20:58.123,1.875,-20.5626
15:20:58.125,0.625,-21.1251
15:20:58.130,-0.375,-22.7501
15:20:58.139,-1.25,-23.0626
15:20:58.149,-2.25,-26.3126
15:20:58.159,-3.875,-26.5626
15:20:58.180,-4.25,-27.9376
15:20:58.182,-4.625,-29.1251
15:20:58.197,-4.0625,-28.2501
15:20:58.199,-2.5625,-28.5626
15:20:58.214,-2.5,-29.1876
15:20:58.220,-2.3125,-28.8751
15:20:58.229,-2.5625,-30.1251
15:20:58.238,-3.875,-30.7501
15:20:58.249,-4.4375,-31.0626
15:20:58.258,-4.875,-32.5626
15:20:58.268,-4.625,-34.3126
15:20:58.279,-5.1875,-34.3126
15:20:58.288,-5.0625,-34.1876
15:20:58.298,-6.1875,-35.3126
15:20:58.308,-6.8125,-35.1876
15:20:58.318,-6.25,-35.6251
15:20:58.329,-4.875,-33.9376
15:20:58.338,-2.375,-30.5001
15:20:58.348,0.6875,-26.3126
15:20:58.358,1.5,-22.5001
15:20:58.369,3.3125,-19.1251
15:20:58.378,4.5625,-16.4376
15:20:58.388,5.875,-14.2501
15:20:58.398,7,-11.4375
15:20:58.408,8.0625,-10.6875
15:20:58.418,8.1875,-8.125
15:20:58.428,8.6875,-7
15:20:58.439,8.5625,-7.8125
15:20:58.448,7.4375,-7.4375
15:20:58.458,6.9375,-8.5625
15:20:58.468,6.0625,-10
15:20:58.478,4.8125,-9.625
15:20:58.489,3.875,-12.3125
15:20:58.503,2.875,-12.5625
15:20:58.508,2.5,-12.625
15:20:58.518,1.75,-15.1876
15:20:58.528,0.875,-15.2501
15:20:58.538,0.125,-16.2501
15:20:58.549,-0.75,-18.3126
15:20:58.558,-1.125,-18.7501
15:20:58.568,-1.375,-19.2501
15:20:58.579,-1.125,-20.5001
15:20:58.588,-2,-21.1251
15:20:58.598,-1,-20.3126
15:20:58.608,-0.75,-20.7501
15:20:58.618,-1.4375,-20.7501
15:20:58.633,-1.0625,-20.6876
15:20:58.644,-0.3125,-21.0626
15:20:58.653,-0.6875,-19.7501
15:20:58.672,0.1875,-19.7501
15:20:58.675,0.9375,-19.6876
15:20:58.707,1.625,-17.8126
15:20:58.710,2.9375,-17.6251
15:20:58.713,4.0625,-17.3126
15:20:58.715,3.6875,-16.9376
15:20:58.748,2.9375,-16.9376
15:20:58.750,2.4375,-17.9376
15:20:58.752,2.375,-17.4376
15:20:58.770,3,-17.3751
15:20:58.771,2.8125,-17.9376
15:20:58.773,3,-16.6251
15:20:58.805,3.6875,-18.1251
15:20:58.808,2.8125,-19.6251
15:20:58.810,1.5,-20.3751
15:20:58.815,0.875,-22.0626
15:20:58.846,0.9375,-22.2501
15:20:58.850,0.75,-22.9376
15:20:58.851,0.125,-24.6251
15:20:58.856,-0.875,-24.6876
15:20:58.866,-0.375,-24.5626
15:20:58.873,-1.125,-26.6251
15:20:58.883,-2.25,-26.8751
15:20:58.893,-2.875,-28.3126
15:20:58.903,-3.125,-29.2501
15:20:58.914,-3.3125,-30.1251
15:20:58.923,-1.4375,-28.1876
15:20:58.933,-0.3125,-28.6251
15:20:58.944,0.375,-28.3751
15:20:58.953,2.25,-27.3126
15:20:58.964,1.125,-28.4376
15:20:58.973,-0.625,-28.8126
15:20:58.984,-1.9375,-31.2501
15:20:58.994,-2.625,-33.0626
15:20:59.003,-3.875,-34.2501
15:20:59.014,-3.625,-33.5001
15:20:59.024,-3,-34.1251
15:20:59.033,-2.5625,-33.5626
15:20:59.043,-0.8125,-31.3751
15:20:59.053,0.875,-29.8751
15:20:59.063,3,-25.7501
15:20:59.074,5.5,-22.4376
15:20:59.083,6.5,-19.5001
15:20:59.093,9.0625,-13.8751
15:20:59.104,10.875,-11.0625
15:20:59.113,12.5625,-7.875
15:20:59.123,14.3751,-5.5
15:20:59.134,14.1876,-3.4375
15:20:59.144,13.7501,-3.25
15:20:59.153,12.1875,-4.1875
15:20:59.163,11.4375,-3.625
15:20:59.173,11.3125,-4.1875
15:20:59.183,10.75,-4.5
15:20:59.193,11.8125,-4.25
15:20:59.203,11.1875,-4
15:20:59.213,12,-4.1875
15:20:59.233,11.8125,-4.9375
15:20:59.239,11.25,-4.375
15:20:59.259,11.1875,-3.75
15:20:59.273,11,-5.3125
15:20:59.275,11.1875,-5.125
15:20:59.278,11.625,-4.0625
15:20:59.285,11.625,-5.8125
15:20:59.293,10.875,-6.25
15:20:59.303,10.875,-6.625
15:20:59.313,9.9375,-8.125
15:20:59.323,9,-8.75
15:20:59.333,8.875,-9.8125
15:20:59.344,7.25,-11.0625
15:20:59.354,7.3125,-11.5625
15:20:59.364,8.3125,-9.75
15:20:59.404,9.5625,-9.5625
15:20:59.406,10.0625,-9
15:20:59.408,10.3125,-8.5625
15:20:59.445,10.0625,-7.4375
15:20:59.445,9.5625,-7.9375
15:20:59.447,9.3125,-8.5
15:20:59.449,9.5625,-8.625
15:20:59.454,9.25,-9.0625
15:20:59.455,9.25,-8
15:20:59.491,8.6875,-9.5625
15:20:59.492,8.5625,-10.4375
15:20:59.528,8.625,-10.6875
15:20:59.530,9.0625,-11.3125
15:20:59.556,7.875,-12.625
15:20:59.574,6.5,-13.5626
15:20:59.576,6.125,-13.5626
15:20:59.576,6,-14.3751
15:20:59.576,5.1875,-15.3751
15:20:59.587,4.4375,-15.0626
15:20:59.589,4.625,-16.4376
15:20:59.592,4.8125,-17.3751
15:20:59.596,4.25,-18.1251
15:20:59.603,3.6875,-18.3751
15:20:59.613,2.75,-19.7501
15:20:59.623,1.4375,-22.3126
15:20:59.637,0.9375,-23.0626
15:20:59.643,1,-23.7501
15:20:59.654,-0.625,-23.8751
15:20:59.664,-1.1875,-24.3126
15:20:59.673,-0.9375,-25.6251
15:20:59.683,-0.875,-26.5626
15:20:59.693,-1.375,-27.7501
15:20:59.703,-2.375,-28.5626
15:20:59.713,-2.9375,-29.6876
15:20:59.725,-3.5,-31.1876
15:20:59.734,-2.625,-31.1251
15:20:59.743,-2.3125,-30.9376
15:20:59.753,-1.125,-31.0001
15:20:59.763,-0.625,-30.9376
15:20:59.774,0.0625,-29.3126
15:20:59.784,1.125,-29.2501
15:20:59.794,1.1875,-27.3751
15:20:59.803,3,-25.0001
15:20:59.814,5,-22.6251
15:20:59.823,6.8125,-17.5626
15:20:59.833,9.375,-15.0001
15:20:59.844,11.25,-10.25
15:20:59.853,13.125,-6.625
15:20:59.863,14.1876,-4.0625
15:20:59.874,15.1876,-2.0625
15:20:59.884,15.5626,-1
15:20:59.894,16.0001,0.5
15:20:59.903,16.3126,1.5
15:20:59.914,16.0626,1.375
15:20:59.923,16.9376,1.5
15:20:59.933,16.0626,2.3125
15:20:59.943,16.1251,3.1875
15:20:59.953,16.5626,0.6875
15:20:59.964,15.8751,0.4375
15:20:59.974,15.4376,0.8125
15:20:59.983,14.5001,-1.1875
15:20:59.993,14.8126,-0.6875
15:21:00.010,14.3126,-1.6875
15:21:00.015,13.5001,-1.625
15:21:00.038,13.7501,-2.75
15:21:00.042,12.9375,-3.1875
15:21:00.043,12.3125,-2.625
15:21:00.054,12.3125,-5.4375
15:21:00.063,12.0625,-4.3125
15:21:00.073,11.75,-5.5
15:21:00.083,11.5625,-6.375
15:21:00.094,12,-5.8125
15:21:00.103,11.8125,-5.0625
15:21:00.114,12.5625,-6.125
15:21:00.125,12.5,-6.125
15:21:00.150,12.1875,-5.875
15:21:00.152,12,-4.625
15:21:00.154,12.625,-5.1875
15:21:00.186,13.0625,-5.625
15:21:00.188,13.0625,-4.6875
15:21:00.191,14.2501,-3.9375
15:21:00.195,13.3751,-4.9375
15:21:00.233,12.3125,-6.0625
15:21:00.233,11.125,-7.25
15:21:00.235,10.25,-8.4375
15:21:00.243,11.25,-7.5625
15:21:00.244,11.0625,-8.8125
15:21:00.275,11.3125,-7.6875
15:21:00.278,12.5,-7.125
15:21:00.281,12.375,-7.6875
15:21:00.283,13.1876,-7.8125
15:21:00.312,13.0625,-8.5
15:21:00.314,12.1875,-8.625
15:21:00.317,12.75,-8.875
15:21:00.324,12.5625,-10.125
15:21:00.335,13.2501,-8.875
15:21:00.345,13.6876,-10
15:21:00.354,12.3125,-10.3125
15:21:00.365,12.6875,-11.0625
15:21:00.373,12.125,-12.25
15:21:00.383,10.8125,-12.9375
15:21:00.393,9.8125,-14.0626
15:21:00.403,8.3125,-16.9376
15:21:00.415,7.1875,-16.4376
15:21:00.423,7.75,-17.6251
15:21:00.433,8.1875,-16.9376
15:21:00.443,9.1875,-16.4376
15:21:00.453,9.1875,-17.1876
15:21:00.465,9.125,-16.3751
15:21:00.473,8.8125,-17.5001
15:21:00.484,7.9375,-19.2501
15:21:00.493,7.375,-20.0626
15:21:00.504,7.6875,-20.3126
15:21:00.514,7.0625,-20.4376
15:21:00.523,7.6875,-20.0001
15:21:00.542,8.75,-19.8751
15:21:00.550,10,-16.7501
15:21:00.562,11.75,-14.0001
15:21:00.566,13.3126,-11.6875
15:21:00.580,15.4376,-6.1875
15:21:00.596,17.5001,-4.3125
15:21:00.599,18.1251,-0.375
15:21:00.603,19.9376,2.1875
15:21:00.613,20.6251,5.125
15:21:00.624,20.9376,7.6875
15:21:00.635,22.0001,7.8125
15:21:00.643,20.8751,8.8125
15:21:00.653,20.5001,7.6875
15:21:00.663,19.1876,6.375
15:21:00.673,18.4376,7.0625
15:21:00.683,17.6876,4.5625
15:21:00.695,17.6876,5
15:21:00.704,17.0626,5.1875
15:21:00.714,17.6251,3.5625
15:21:00.724,16.5626,4.5625
15:21:00.735,16.3751,2.4375
15:21:00.744,15.1251,1.0625
15:21:00.761,14.3751,0.375
15:21:00.765,12.9375,-1.4375
15:21:00.776,11.75,-2.6875
15:21:00.783,10.5,-3.4375
15:21:00.794,11.0625,-5.0625
15:21:00.803,10,-6.3125
15:21:00.815,9.375,-6.375
15:21:00.825,8.6875,-7.25
15:21:00.834,8.6875,-7.4375
15:21:00.843,7.4375,-9.125
15:21:00.877,7.125,-7.8125
15:21:00.879,8.3125,-8.0625
15:21:00.909,8.3125,-8.125
15:21:00.949,9.1875,-5.875
15:21:00.990,10.25,-5.125
15:21:00.994,11.375,-4.75
15:21:00.994,11.125,-4.375
15:21:00.994,11.375,-3.375
15:21:00.994,11.5,-4.4375
15:21:00.995,10.375,-5.5
15:21:01.002,9.8125,-5.875
15:21:01.031,9.3125,-7.125
15:21:01.031,9.875,-5.8125
15:21:01.034,9.75,-7.1875
15:21:01.035,9.8125,-5.6875
15:21:01.046,10.625,-6.3125
15:21:01.046,9.1875,-7.6875
15:21:01.053,8.3125,-9.5
15:21:01.060,7.125,-9.375
15:21:01.069,6.3125,-11.1875
15:21:01.079,5.8125,-12.125
15:21:01.090,4.9375,-12.9375
15:21:01.100,5.0625,-13.3126
15:21:01.111,4.75,-13.6876
15:21:01.120,3.0625,-16.0001
15:21:01.136,2.625,-17.5001
15:21:01.140,2.3125,-18.3126
15:21:01.150,1.75,-19.4376
15:21:01.159,1.3125,-19.8751
15:21:01.169,0.75,-19.5626
15:21:01.180,0.6875,-20.5001
15:21:01.190,1,-20.8751
15:21:01.199,0.375,-19.7501
15:21:01.210,1.875,-20.1876
15:21:01.220,0.75,-20.8126
15:21:01.230,1.75,-19.8751
15:21:01.239,2.75,-20.8751
15:21:01.249,2.0625,-19.7501
15:21:01.260,3.9375,-19.8126
15:21:01.270,4.5625,-18.0626
15:21:01.279,6.125,-13.5626
15:21:01.289,7.8125,-11
15:21:01.319,10.1875,-6.75
15:21:01.322,12.0625,-3.6875
15:21:01.323,13.1876,0.25
15:21:01.329,14.4376,2.4375
15:21:01.339,14.9376,4.1875
15:21:01.349,14.7501,6.625
15:21:01.360,15.5626,7.4375
15:21:01.368,15.2501,7.875
15:21:01.380,15.5001,9.1875
15:21:01.390,14.6876,8
15:21:01.399,13.6251,7.625
15:21:01.411,13.6876,7.0625
15:21:01.420,12.125,5.9375
15:21:01.430,12.25,4.3125
15:21:01.440,10.6875,3.75
15:21:01.448,10.8125,3.3125
15:21:01.459,10,2.8125
15:21:01.470,10.75,2.25
15:21:01.480,9.8125,1.25
15:21:01.489,8.625,1.4375
15:21:01.500,9.1875,-1.25
15:21:01.514,8.25,-2.375
15:21:01.520,8.125,-2.125
15:21:01.528,8.25,-3.125
15:21:01.539,7.4375,-3.625
15:21:01.550,7.125,-2
15:21:01.559,7.9375,-3.1875
15:21:01.570,7.375,-3.875
15:21:01.579,7,-2.6875
15:21:01.597,7,-4.375
15:21:01.599,6.125,-3.25
15:21:01.641,7.3125,-3.1875
15:21:01.641,8.0625,-2.9375
15:21:01.644,8.5625,-1.125
15:21:01.646,9.5,-0.25
15:21:01.652,11.4375,0.25
15:21:01.695,11.6875,0.875
15:21:01.697,12.5,1
15:21:01.699,11.125,0.5625
15:21:01.702,11,-1.1875
15:21:01.703,9.75,-2.5
15:21:01.742,8.625,-2.125
15:21:01.742,8.6875,-3.8125
15:21:01.744,8.4375,-3.6875
15:21:01.746,9.4375,-3.1875
15:21:01.753,10.8125,-3.5625
15:21:01.766,11.3125,-2.4375
15:21:01.771,10,-4.125
15:21:01.780,9.4375,-5.125
15:21:01.790,9.3125,-5
15:21:01.800,8.9375,-5.625
15:21:01.810,8.625,-6
15:21:01.820,7.9375,-6.9375
15:21:01.829,7.9375,-6.9375
15:21:01.839,8.4375,-8.25
15:21:01.849,7.4375,-9.3125
15:21:01.867,6.75,-10
15:21:01.873,5.875,-11
15:21:01.881,5.5625,-11.5625
15:21:01.893,5.875,-11
15:21:01.907,5.5,-12.75
15:21:01.922,5.1875,-11.9375
15:21:01.924,5.625,-12.8125
15:21:01.929,5,-12.3125
15:21:01.939,4.875,-14.5001
15:21:01.949,4.6875,-13.2501
15:21:01.960,5.3125,-13.9376
15:21:01.970,5.9375,-13.8751
15:21:01.979,8.0625,-10.875
15:21:01.989,9.375,-7.375
15:21:02.000,11.875,-3
15:21:02.009,14.9376,0.6875
15:21:02.020,15.8751,4.4375
15:21:02.030,17.1251,7.75
15:21:02.039,18.5626,11.5
15:21:02.050,19.1876,13.6876
15:21:02.059,20.8126,17.5626
15:21:02.070,21.6876,19.8751
15:21:02.079,22.8126,21.5626
15:21:02.089,23.3126,21.6876
15:21:02.098,22.9376,22.1876
15:21:02.109,22.3126,21.3751
15:21:02.120,21.3126,20.5001
15:21:02.130,19.7501,18.5626
15:21:02.140,18.0626,17.6251
15:21:02.150,16.8751,17.1876
15:21:02.159,17.1876,15.6876
15:21:02.170,16.5001,15.8751
15:21:02.179,16.8751,15.8751
15:21:02.189,16.6876,14.8126
15:21:02.200,15.8751,14.0626
15:21:02.210,15.9376,14.8126
15:21:02.220,15.8126,13.1876
15:21:02.239,14.8751,11.75
15:21:02.242,13.5626,11.0625
15:21:02.252,13.7501,10.8125
15:21:02.259,13.8126,9.75
15:21:02.290,13.0625,8.6875
15:21:02.292,11.3125,7.5625
15:21:02.294,10.375,7.9375
15:21:02.299,10.5,6.75
15:21:02.310,9.5625,6.375
15:21:02.319,9,5.375
15:21:02.330,8.0625,5.9375
15:21:02.339,8.5625,5.4375
15:21:02.350,9.3125,5.5
15:21:02.380,9,5.6875
15:21:02.382,9,6.9375
15:21:02.385,10.125,7.375
15:21:02.390,10.875,7.0625
15:21:02.427,11,6.5
15:21:02.429,10.8125,6.125
15:21:02.431,10.4375,6.375
15:21:02.433,10.375,6.3125
15:21:02.440,10.0625,5.5
15:21:02.467,9.8125,5.0625
15:21:02.469,10.0625,3.5625
15:21:02.476,9.8125,4.125
15:21:02.491,9.5625,3.3125
15:21:02.493,9.3125,1.75
15:21:02.528,9.25,1.4375
15:21:02.530,8.75,1.125
15:21:02.532,8,0.0625
15:21:02.539,8,-1.5625
15:21:02.544,5.8125,-4.1875
15:21:02.552,4.375,-3.75
15:21:02.560,4.5,-5.4375
15:21:02.570,4.4375,-6.5625
15:21:02.599,4.6875,-6.3125
15:21:02.602,3.6875,-6.125
15:21:02.604,4.25,-7.3125
15:21:02.610,4.25,-8.5
15:21:02.619,3.3125,-8.6875
15:21:02.630,2.75,-9.25
15:21:02.640,2.75,-9.5625
15:21:02.650,3.375,-10.8125
15:21:02.660,3.125,-10.6875
15:21:02.675,3.625,-10
15:21:02.685,4.4375,-10.25
15:21:02.694,4.375,-10.0625
15:21:02.704,5.4375,-8.6875
15:21:02.715,5.875,-7.3125
15:21:02.724,7.375,-3.5
15:21:02.734,8.375,0.1875
15:21:02.744,10.5,3.4375
15:21:02.754,12.4375,8.6875
15:21:02.765,15.6251,13
15:21:02.774,17.3751,16.1876
15:21:02.784,19.5626,20.3751
15:21:02.794,21.1876,22.5001
15:21:02.804,21.4376,24.0001
15:21:02.815,21.4376,25.6876
15:21:02.825,21.5626,25.1251
15:21:02.834,21.7501,25.9376
15:21:02.844,21.6251,25.6251
15:21:02.854,22.4376,25.6251
15:21:02.865,21.7501,25.0626
15:21:02.876,22.6876,24.7501
15:21:02.885,21.3751,24.2501
15:21:02.894,20.7501,23.9376
15:21:02.904,20.6251,21.9376
15:21:02.915,19.5001,20.8126
15:21:02.924,19.1251,21.0001
15:21:02.935,18.7501,21.1251
15:21:02.944,19.7501,20.3126
15:21:02.955,18.7501,18.6251
15:21:02.965,17.4376,16.6251
15:21:02.974,16.5626,17.5626
15:21:02.984,15.5626,15.6251
15:21:02.994,14.8126,14.0626
15:21:03.005,14.9376,14.3126
15:21:03.015,15.3126,14.5001
15:21:03.024,15.0001,14.3751
15:21:03.055,15.6251,14.5001
15:21:03.057,15.6251,15.8751
15:21:03.060,17.3126,15.4376
15:21:03.065,16.6251,15.6251
15:21:03.096,17.8751,17.2501
15:21:03.098,18.8126,19.1251
15:21:03.100,19.1251,18.6251
15:21:03.106,18.7501,17.2501
15:21:03.131,19.1876,19.3126
15:21:03.134,19.5001,17.3126
15:21:03.137,18.5001,16.6876
15:21:03.170,17.5001,16.3126
15:21:03.173,16.0626,15.3126
15:21:03.175,16.0626,12.8125
15:21:03.209,15.5626,12.0625
15:21:03.222,15.5001,12.4375
15:21:03.237,15.7501,13.0625
15:21:03.243,16.0626,11.8125
15:21:03.244,15.8751,11.1875
15:21:03.244,15.3126,10.75
15:21:03.251,15.1876,10.3125
15:21:03.259,14.2501,8.125
15:21:03.270,13.8751,9
15:21:03.280,14.1251,8.9375
15:21:03.290,14.6251,7.9375
15:21:03.300,14.0001,7.3125
15:21:03.310,13.4376,7.25
15:21:03.319,13.3126,5.5625
15:21:03.330,13.1251,4.625
15:21:03.339,12.375,3.6875
15:21:03.349,11.3125,3.9375
15:21:03.360,10.8125,2.0625
15:21:03.369,10.5625,0.625
15:21:03.380,10.6875,0.4375
15:21:03.390,10.875,1
15:21:03.399,10.375,0.1875
15:21:03.409,8.625,-1.5625
15:21:03.420,8.6875,-2.1875
15:21:03.430,8.3125,-3.6875
15:21:03.440,8.6875,-3
15:21:03.449,9.3125,-0.625
15:21:03.459,10.875,2.9375
15:21:03.469,12.375,6.5
15:21:03.480,14.1876,10
15:21:03.489,16.2501,14.0001
15:21:03.499,18.5001,19.3751
15:21:03.510,20.3751,22.0001
15:21:03.520,21.1251,24.1876
15:21:03.530,21.2501,26.9376
15:21:03.540,22.4376,29.0626
15:21:03.559,23.5001,29.3126
15:21:03.561,23.3126,29.6876
15:21:03.576,23.0626,29.8126
15:21:03.592,23.3126,30.6251
15:21:03.596,23.3126,30.1251
15:21:03.599,22.8751,29.6876
15:21:03.609,22.0001,29.1251
15:21:03.620,22.1251,28.5001
15:21:03.630,21.1876,27.2501
15:21:03.640,21.3126,27.3126
15:21:03.649,21.1251,26.9376
15:21:03.660,21.3751,25.6876
15:21:03.670,20.5626,24.5626
15:21:03.680,20.1876,23.8751
15:21:03.690,19.1251,23.7501
15:21:03.699,19.3751,22.3751
15:21:03.710,18.6251,21.0626
15:21:03.720,18.3126,20.7501
15:21:03.730,18.0001,20.9376
15:21:03.739,18.3751,20.0626
15:21:03.750,18.8126,20.5626
15:21:03.759,19.4376,19.6876
15:21:03.774,18.5626,19.4376
15:21:03.798,18.5626,20.5626
15:21:03.800,18.4376,21.5001
15:21:03.802,19.7501,22.1251
15:21:03.810,19.8751,21.5001
15:21:03.834,20.5001,22.1876
15:21:03.837,20.8751,24.0626
15:21:03.852,21.5626,22.8751
15:21:03.853,21.5001,22.7501
15:21:03.867,20.9376,22.2501
15:21:03.870,20.0626,22.1876
15:21:03.884,20.0001,20.7501
15:21:03.889,18.8126,19.0001
15:21:03.927,17.8126,19.0001
15:21:03.928,17.8751,17.6876
15:21:03.931,17.1876,17.0001
15:21:03.933,16.5001,15.8751
15:21:03.940,15.8126,14.8751
15:21:03.963,14.8751,14.5626
15:21:03.967,14.5626,13.6251
15:21:03.970,13.5626,11.0625
15:21:03.981,12.5625,10.5625
15:21:03.990,11.6875,10
15:21:03.999,12,9.125
15:21:04.010,11.625,8.25
15:21:04.020,11.5625,7.5625
15:21:04.030,11,6.1875
15:21:04.039,10.6875,6.375
15:21:04.049,10.4375,5.625
15:21:04.060,9.75,4.5
15:21:04.070,9.125,3.4375
15:21:04.080,9.625,4.0625
15:21:04.090,8.8125,3.375
15:21:04.099,8.25,2.5
15:21:04.109,8.8125,2
15:21:04.122,7.1875,0.8125
15:21:04.130,7.8125,0.1875
15:21:04.141,7.3125,0
15:21:04.156,6.125,-0.6875
15:21:04.161,6.625,-1.25
15:21:04.170,5.375,-3.25
15:21:04.179,4.6875,-4.25
15:21:04.189,4.6875,-3.3125
15:21:04.200,5.4375,-4.1875
15:21:04.210,6.9375,-2.8125
15:21:04.220,8.0625,-0.6875
15:21:04.230,10.6875,4.0625
15:21:04.239,12.8125,8.625
15:21:04.250,14.8126,11.6875
15:21:04.259,16.3126,15.2501
15:21:04.270,17.8126,19.5001
15:21:04.280,18.7501,22.3126
15:21:04.289,19.9376,24.4376
15:21:04.300,19.7501,26.4376
15:21:04.309,19.3126,28.5626
15:21:04.320,19.8751,30.0626
15:21:04.330,20.0001,29.5626
15:21:04.339,19.6876,30.3751
15:21:04.349,19.6876,31.3126
15:21:04.359,19.2501,28.5626
15:21:04.370,18.3751,28.7501
15:21:04.380,17.5626,28.6876
15:21:04.390,16.7501,27.1251
15:21:04.400,16.2501,26.3126
15:21:04.410,16.3751,26.1876
15:21:04.420,17.0001,26.7501
15:21:04.430,18.0626,26.0001
15:21:04.440,17.6251,24.8126
15:21:04.449,16.7501,23.6251
15:21:04.460,16.0626,24.1876
15:21:04.470,16.2501,23.1251
15:21:04.480,15.5626,22.3126
15:21:04.489,15.4376,20.9376
15:21:04.507,15.3751,22.0626
15:21:04.513,16.0001,22.1251
15:21:04.582,15.6876,20.8751
15:21:04.583,14.8126,20.9376
15:21:04.614,15.1251,21.3126
15:21:04.614,14.5626,20.6876
15:21:04.614,13.5626,19.8126
15:21:04.619,13.3751,20.5626
15:21:04.623,12.625,20.3126
15:21:04.624,11.25,19.0626
15:21:04.632,6.8125,15.7501
15:21:04.672,-1.1875,9.625
15:21:04.673,-8.0625,5.875
15:21:04.675,-17.3126,-0.6875
15:21:04.679,-29.1251,-9.5625
15:21:04.684,-40.8127,-19.0626
15:21:04.691,-52.8752,-29.0001
15:21:04.705,-67.8753,-41.6877
15:21:04.710,-77.7503,-50.3752
15:21:04.720,-82.1878,-55.7502
15:21:04.730,-89.1878,-61.1877
15:21:04.740,-95.8754,-69.5003
15:21:04.751,-118.5005,-94.8754
15:21:04.760,-115.1879,-92.2504
15:21:04.770,-115.5629,-92.0004
15:21:04.780,-115.1879,-92.6879
15:21:04.791,-111.0629,-90.8754
15:21:04.800,-108.6254,-89.8128
15:21:04.809,-106.5004,-87.1878
15:21:04.820,-107.0004,-88.3753
15:21:04.830,-106.0629,-88.3753
15:21:04.840,-106.4379,-89.3128
15:21:04.861,-103.8129,-88.0003
15:21:04.864,-101.2504,-87.2503
15:21:04.879,-100.0629,-86.1253
15:21:04.881,-99.1879,-86.5628
15:21:04.896,-98.0004,-86.5628
15:21:04.901,-98.6879,-86.8128
15:21:04.911,-97.6879,-87.1878
15:21:04.920,-96.9379,-86.3128
15:21:04.929,-94.9379,-87.0003
15:21:04.939,-92.5004,-83.8128
15:21:04.950,-90.5629,-84.6878
15:21:04.960,-88.7503,-83.7503
15:21:04.970,-87.3753,-81.1878
15:21:04.979,-83.7503,-81.0628
15:21:04.990,-78.5628,-77.3753
15:21:05.001,-73.0628,-73.2503
15:21:05.011,-65.2502,-67.5628
15:21:05.020,-58.1877,-60.9377
15:21:05.030,-49.9377,-53.1877
15:21:05.039,-44.2502,-45.9377
15:21:05.050,-38.9376,-42.1252
15:21:05.059,-34.3126,-35.1876
15:21:05.070,-27.9376,-30.7501
15:21:05.079,-22.1876,-24.5001
15:21:05.089,-18.3126,-22.6876
15:21:05.099,-17.3126,-21.2501
15:21:05.110,-19.1876,-21.4376
15:21:05.119,-21.2501,-23.5001
15:21:05.129,-21.4376,-24.1251
15:21:05.160,-23.0626,-25.1251
15:21:05.162,-23.5001,-26.8751
15:21:05.165,-23.1251,-26.5626
15:21:05.170,-23.5626,-27.6251
15:21:05.179,-25.5001,-27.8126
15:21:05.190,-31.3751,-29.1251
15:21:05.202,-38.1251,-36.0001
15:21:05.210,-43.3127,-39.2502
15:21:05.221,-46.8127,-44.0627
15:21:05.230,-52.0627,-49.6252
15:21:05.275,-57.0002,-54.9377
15:21:05.276,-60.5002,-58.9377
15:21:05.279,-64.8752,-62.8752
15:21:05.280,-68.8128,-67.7503
15:21:05.285,-69.5003,-68.9378
15:21:05.311,-69.8753,-68.6253
15:21:05.314,-69.1878,-69.6878
15:21:05.316,-69.4378,-69.2503
15:21:05.321,-69.9378,-70.4378
15:21:05.360,-70.7503,-70.9378
15:21:05.361,-72.0628,-72.4378
15:21:05.363,-74.9378,-73.8753
15:21:05.366,-77.0628,-76.0003
15:21:05.372,-80.6253,-78.6878
15:21:05.397,-86.2503,-84.1878
15:21:05.401,-91.8754,-89.0003
15:21:05.403,-92.0004,-89.8128
15:21:05.423,-89.3753,-89.0628
15:21:05.425,-86.3753,-86.9378
15:21:05.431,-83.4378,-84.0628
15:21:05.440,-82.0628,-84.6253
15:21:05.455,-80.0628,-84.5003
15:21:05.461,-76.7503,-84.6253
15:21:05.475,-72.8753,-82.3128
15:21:05.484,-68.1253,-82.1253
15:21:05.495,-64.2502,-80.2503
15:21:05.505,-60.5627,-80.8128
15:21:05.514,-57.8752,-80.2503
15:21:05.525,-60.8752,-81.8753
15:21:05.536,-50.3752,-78.0628
15:21:05.546,-37.5001,-71.4378
15:21:05.555,-26.0001,-64.3127
15:21:05.566,-23.0001,-59.3127
15:21:05.575,-21.2501,-54.6877
15:21:05.588,-24.0626,-46.0627
15:21:05.595,-24.6251,-35.5626
15:21:05.606,-23.5626,-22.9376
15:21:05.615,-23.4376,-19.2501
15:21:05.625,-24.2501,-21.6251
15:21:05.635,-26.7501,-23.2501
15:21:05.645,-27.7501,-23.6251
15:21:05.656,-26.9376,-24.8751
15:21:05.666,-26.7501,-23.8126
15:21:05.675,-25.5001,-22.8751
15:21:05.686,-25.4376,-23.6251
15:21:05.695,-26.2501,-24.0001
15:21:05.705,-26.1251,-24.6251
15:21:05.716,-26.0626,-26.4376
15:21:05.726,-26.8126,-27.0001
15:21:05.735,-27.6251,-28.8751
15:21:05.746,-29.2501,-29.8751
15:21:05.755,-30.8751,-32.0001
15:21:05.766,-32.7501,-33.0001
15:21:05.775,-34.4376,-34.9376
15:21:05.784,-31.1876,-31.8126
15:21:05.794,-26.5001,-27.3751
15:21:05.807,-21.5001,-21.3751
15:21:05.829,-18.3751,-14.0001
15:21:05.832,-14.1251,-9.9375
15:21:05.847,-10.375,-4.75
15:21:05.851,-9.6875,-0.8125
15:21:05.866,-8.375,1.125
15:21:05.867,-3.875,6.8125
15:21:05.875,0.9375,12.5
15:21:05.887,6.1875,17.0001
15:21:05.896,11.6875,22.1876
15:21:05.905,13.8751,25.3751
15:21:05.916,16.5626,26.7501
15:21:05.925,19.6251,29.6876
15:21:05.936,22.3126,30.4376
15:21:05.944,26.1251,31.5626
15:21:05.955,29.1251,31.6876
15:21:05.966,30.2501,30.0626
15:21:05.975,30.5626,28.4376
15:21:05.986,32.0626,27.6251
15:21:06.003,34.0626,25.2501
15:21:06.006,36.4376,25.6251
15:21:06.033,36.5626,23.6251
15:21:06.038,36.8126,22.1251
15:21:06.040,36.1876,19.4376
15:21:06.047,32.5001,16.0001
15:21:06.084,28.0001,10.75
15:21:06.086,20.1251,3.625
15:21:06.089,9.9375,-2.6875
15:21:06.091,-0.3125,-9.9375
15:21:06.096,-12.625,-16.0626
15:21:06.111,-20.6876,-22.1876
15:21:06.115,-28.5001,-27.1251
15:21:06.151,-34.8751,-32.1251
15:21:06.159,-39.6877,-38.3126
15:21:06.178,-45.1252,-43.4377
15:21:06.183,-48.8127,-44.3127
15:21:06.195,-51.5627,-47.5002
15:21:06.195,-52.0002,-49.1252
15:21:06.196,-55.3127,-51.8752
15:21:06.211,-56.6252,-52.4377
15:21:06.213,-58.1877,-54.8752
15:21:06.228,-58.3752,-54.6252
15:21:06.231,-57.6877,-54.7502
15:21:06.241,-58.2502,-56.2502
15:21:06.251,-61.0002,-57.7502
15:21:06.260,-61.8127,-59.8752
15:21:06.271,-63.1877,-60.0627
15:21:06.281,-64.6877,-62.3752
15:21:06.289,-65.9378,-63.7502
15:21:06.301,-62.6877,-63.2502
15:21:06.311,-59.5002,-61.7502
15:21:06.321,-54.3127,-60.7502
15:21:06.332,-49.6877,-59.8752
15:21:06.341,-45.6252,-58.0002
15:21:06.350,-39.1877,-56.5002
15:21:06.361,-35.0001,-54.1252
15:21:06.371,-28.5626,-52.1252
15:21:06.379,-24.9376,-49.1877
15:21:06.391,-23.7501,-48.3752
15:21:06.402,-18.0626,-47.7502
15:21:06.411,-13.1876,-45.3752
15:21:06.438,-8.75,-41.5627
15:21:06.441,-4.4375,-35.3751
15:21:06.443,-0.75,-30.1876
15:21:06.451,0.3125,-18.4376
15:21:06.461,3.25,-5.4375
15:21:06.471,8.875,5.9375
15:21:06.481,13.8126,12.125
15:21:06.491,16.5001,15.5001
15:21:06.500,18.5626,17.6876
15:21:06.511,20.1876,19.6251
15:21:06.520,20.3751,22.3751
15:21:06.531,23.1876,23.7501
15:21:06.540,25.6251,28.6251
15:21:06.552,26.8751,31.9376
15:21:06.560,27.3751,34.0001
15:21:06.571,28.8126,36.6876
15:21:06.586,28.7501,40.5627
15:21:06.591,28.6876,41.1877
15:21:06.601,28.6876,42.3127
15:21:06.611,25.7501,43.1877
15:21:06.621,24.6251,42.0627
15:21:06.630,22.5001,41.6877
15:21:06.641,21.9376,40.7502
15:21:06.649,19.4376,39.4377
15:21:06.661,18.6251,37.9376
15:21:06.671,15.7501,36.5626
15:21:06.682,16.1876,35.8126
15:21:06.691,15.8751,36.1876
15:21:06.700,16.0001,35.2501
15:21:06.739,15.0626,34.1876
15:21:06.740,15.1876,32.4376
15:21:06.742,12.625,30.8751
15:21:06.747,11.8125,27.8751
15:21:06.780,11.625,26.5001
15:21:06.783,11,25.6876
15:21:06.785,13.8126,26.5626
15:21:06.788,18.4376,28.2501
15:21:06.822,23.0001,30.3126
15:21:06.825,24.8751,29.2501
15:21:06.827,23.2501,26.7501
15:21:06.863,23.3751,26.0001
15:21:06.863,23.2501,24.8126
15:21:06.863,21.0626,22.1876
15:21:06.871,16.1876,19.5001
15:21:06.871,13.9376,15.4376
15:21:06.879,14.1251,12.0625
15:21:06.892,18.1876,12.3125
15:21:06.897,22.6876,13.1876
15:21:06.906,23.3126,10.25
15:21:06.916,19.5626,5.3125
15:21:06.926,10.8125,-2.1875
15:21:06.937,0,-9.4375
15:21:06.946,-12.1875,-17.8751
15:21:06.959,-26.8126,-27.8126
15:21:06.968,-42.6252,-38.5626
15:21:06.976,-56.2502,-49.9377
15:21:06.986,-67.7503,-62.2502
15:21:06.996,-76.4378,-70.6878
15:21:07.006,-82.2503,-76.2503
15:21:07.016,-86.7503,-81.1253
15:21:07.027,-89.3128,-84.6253
15:21:07.037,-91.5004,-87.5003
15:21:07.046,-93.2504,-88.2503
15:21:07.057,-93.8754,-90.1878
15:21:07.066,-95.0004,-90.9379
15:21:07.076,-96.1254,-91.6254
15:21:07.086,-96.8129,-93.7504
15:21:07.097,-98.2504,-95.6254
15:21:07.106,-98.8754,-95.8754
15:21:07.118,-100.1254,-98.0629
15:21:07.133,-101.1879,-99.7504
15:21:07.136,-104.6254,-102.3754
15:21:07.151,-105.9379,-103.3129
15:21:07.159,-104.4379,-102.5629
15:21:07.166,-100.5629,-101.3129
15:21:07.176,-96.8129,-97.0004
15:21:07.186,-90.7504,-92.8129
15:21:07.197,-86.5003,-89.5003
15:21:07.207,-82.5003,-86.5003
15:21:07.216,-80.3753,-84.2503
15:21:07.226,-78.0003,-85.0628
15:21:07.238,-74.5628,-84.8128
15:21:07.246,-69.6253,-85.7503
15:21:07.256,-59.1252,-81.2503
15:21:07.266,-47.0627,-71.5628
15:21:07.276,-31.7501,-62.6877
15:21:07.286,-20.1251,-49.5627
15:21:07.298,-17.1251,-40.1252
15:21:07.306,0.0625,-27.6876
15:21:07.316,14.1251,-14.7501
15:21:07.326,23.1876,-1.25
15:21:07.337,31.4376,13.1251
15:21:07.347,58.1877,49.1252
15:21:07.356,70.6253,88.7503
15:21:07.366,74.2503,97.1879
15:21:07.376,73.3753,100.1254
15:21:07.387,77.3753,102.8129
15:21:07.396,81.6253,108.5004
15:21:07.406,85.2503,111.2504
15:21:07.416,84.3128,112.2504
15:21:07.426,81.6253,108.5004
15:21:07.437,79.8128,106.2504
15:21:07.446,77.6253,103.1254
15:21:07.457,75.5003,101.4379
15:21:07.466,73.8753,99.8754
15:21:07.477,72.1253,95.4379
15:21:07.496,68.4378,92.9379
15:21:07.498,63.1877,85.9378
15:21:07.540,57.5627,79.1253
15:21:07.542,55.6877,75.9378
15:21:07.573,54.5627,73.7503
15:21:07.575,52.8752,72.8128
15:21:07.575,52.0002,71.7503
15:21:07.576,52.3127,72.1253
15:21:07.581,51.0627,71.2503
15:21:07.582,49.2502,69.7503
15:21:07.587,48.3752,68.0628
15:21:07.615,46.7502,67.6253
15:21:07.616,46.5627,66.7503
15:21:07.619,45.6877,65.9378
15:21:07.651,43.4377,64.3752
15:21:07.654,42.5002,63.8127
15:21:07.655,42.5627,63.8752
15:21:07.659,42.8127,63.4377
15:21:07.666,43.8127,62.1252
15:21:07.676,43.6252,63.3127
15:21:07.686,43.8752,62.3127
15:21:07.719,43.9377,60.6252
15:21:07.722,43.1252,59.8127
15:21:07.723,42.8752,59.3127
15:21:07.729,44.0627,59.1252
15:21:07.738,44.9377,58.6877
15:21:07.748,46.1877,57.1877
15:21:07.756,47.5002,55.6877
15:21:07.767,48.4377,53.7502
15:21:07.776,47.9377,49.8127
15:21:07.786,47.6252,45.6877
15:21:07.796,46.8752,43.3127
15:21:07.806,47.8127,40.8752
15:21:07.818,47.5002,37.6251
15:21:07.826,44.8127,33.7501
15:21:07.837,41.4377,29.7501
15:21:07.847,38.6251,25.1876
15:21:07.856,34.0001,18.7501
15:21:07.866,28.0001,12.75
15:21:07.876,21.8751,7.625
15:21:07.886,15.1251,0.4375
15:21:07.896,5.875,-7.6875
15:21:07.906,-4.5,-14.1251
15:21:07.916,-15.4376,-22.6251
15:21:07.927,-29.0626,-32.5626
15:21:07.936,-41.0627,-40.7502
15:21:07.946,-50.4377,-47.1877
15:21:07.956,-57.8752,-54.9377
15:21:07.966,-64.7502,-60.4377
15:21:07.976,-69.8128,-63.3127
15:21:07.987,-73.0003,-65.3127
15:21:07.996,-73.1878,-64.9377
15:21:08.006,-74.2503,-62.8752
15:21:08.017,-73.8128,-60.7502
15:21:08.028,-72.7503,-54.8752
15:21:08.036,-71.5628,-51.1877
15:21:08.046,-70.7503,-49.3127
15:21:08.056,-69.8753,-47.0627
15:21:08.066,-69.6878,-44.8127
15:21:08.076,-70.7503,-43.8752
15:21:08.087,-70.3753,-43.1877
15:21:08.096,-69.1878,-41.2502
15:21:08.107,-68.0003,-41.5627
15:21:08.116,-64.5002,-38.3751
15:21:08.126,-61.3752,-36.6876
15:21:08.136,-58.1877,-35.6251
15:21:08.146,-55.5002,-33.0626
15:21:08.184,-51.3127,-32.8126
15:21:08.184,-45.0627,-29.8126
15:21:08.188,-39.8127,-27.3126
15:21:08.192,-33.9376,-24.5626
15:21:08.222,-28.6251,-21.6876
15:21:08.224,-23.0001,-20.2501
15:21:08.228,-19.6876,-18.9376
15:21:08.229,-16.0001,-16.1876
15:21:08.265,-12.5,-16.3126
15:21:08.266,-16.6876,-14.4376
15:21:08.269,-9.5,-13.9376
15:21:08.271,-5.125,-11.875
15:21:08.278,-4.25,-10
15:21:08.310,-6.375,-11.0625
15:21:08.312,-9.125,-10.875
15:21:08.314,-12.4375,-10.5625
15:21:08.334,-14.1876,-6.8125
15:21:08.335,-15.7501,4.25
15:21:08.337,-13.6876,12.6875
15:21:08.348,-9.8125,19.3751
15:21:08.356,-1.9375,25.4376
15:21:08.366,5.1875,34.5626
15:21:08.379,12.875,40.1252
15:21:08.388,19.7501,48.8752
15:21:08.396,24.9376,52.8127
15:21:08.406,27.0001,55.6252
15:21:08.416,25.6876,55.8127
15:21:08.434,26.0001,56.0002
15:21:08.441,23.3126,54.8752
15:21:08.456,20.9376,52.1252
15:21:08.458,18.9376,51.5002
15:21:08.467,16.6876,47.8752
15:21:08.476,16.0626,47.3127
15:21:08.489,16.3751,47.9377
15:21:08.496,18.4376,48.5002
15:21:08.506,19.9376,47.2502
15:21:08.516,20.3126,47.3127
15:21:08.526,20.3126,47.3127
15:21:08.538,20.8751,46.3752
15:21:08.546,20.5001,45.5002
15:21:08.557,19.3126,42.8127
15:21:08.566,17.0001,40.8752
15:21:08.576,15.8751,38.3751
15:21:08.586,15.2501,38.1251
15:21:08.596,14.0001,36.2501
15:21:08.606,13.4376,34.7501
15:21:08.616,11.875,32.1251
15:21:08.626,11.5625,31.6251
15:21:08.636,11.5625,29.6876
15:21:08.648,11.5,29.1251
15:21:08.658,10.6875,27.8126
15:21:08.667,9.9375,27.2501
15:21:08.676,10.8125,26.1251
15:21:08.686,10.125,24.8751
15:21:08.696,10.5,24.8751
15:21:08.706,10.9375,25.8126
15:21:08.716,12.8125,26.9376
15:21:08.726,14.7501,30.0001
15:21:08.737,15.3751,32.3751
15:21:08.746,16.5001,36.3751
15:21:08.756,18.9376,40.0002
15:21:08.766,20.3751,43.6252
15:21:08.778,23.5001,47.7502
15:21:08.787,25.8126,52.6877
15:21:08.796,26.7501,55.9377
15:21:08.806,28.5626,57.6877
15:21:08.823,30.0001,60.0002
15:21:08.828,30.2501,61.0627
15:21:08.843,31.0626,62.6252
15:21:08.848,31.3126,63.0627
15:21:08.856,31.3126,61.5627
15:21:08.866,29.8126,59.9377
15:21:08.876,28.8126,59.0627
15:21:08.888,28.1876,58.6877
15:21:08.896,28.3126,57.1252
15:21:08.908,27.0626,55.3752
15:21:08.917,26.7501,55.7502
15:21:08.926,26.3751,55.0627
15:21:08.956,25.8126,52.3127
15:21:08.958,25.1876,52.1252
15:21:08.961,25.1251,51.4377
15:21:08.967,25.1876,49.6252
15:21:09.000,23.5626,47.7502
15:21:09.002,21.9376,45.3127
15:21:09.005,19.8126,43.4377
15:21:09.010,18.3751,42.8752
15:21:09.039,18.5001,41.1252
15:21:09.040,16.8751,39.6877
15:21:09.042,15.3126,39.2502
15:21:09.081,15.3751,38.7501
15:21:09.082,13.4376,36.8126
15:21:09.083,10.3125,34.3126
15:21:09.086,10.625,34.3126
15:21:09.092,14.1251,35.6876
15:21:09.097,17.6876,39.0626
15:21:09.116,21.6251,43.0002
15:21:09.118,24.5001,45.6877
15:21:09.127,30.0001,48.4377
15:21:09.136,33.0626,49.8752
15:21:09.146,31.1251,48.1877
15:21:09.156,38.0626,52.7502
15:21:09.166,51.0627,61.7502
15:21:09.176,55.8127,62.1252
15:21:09.187,52.2502,55.0627
15:21:09.196,45.1252,45.5627
15:21:09.206,38.8126,37.3751
15:21:09.217,34.1251,31.9376
15:21:09.226,30.1251,27.3126
15:21:09.240,26.5001,22.1876
15:21:09.246,24.1876,19.4376
15:21:09.256,22.8126,15.6876
15:21:09.267,20.1251,12.9375
15:21:09.278,15.6251,7.1875
15:21:09.286,6.5,-2.8125
15:21:09.296,-8.4375,-17.9376
15:21:09.306,-29.6251,-34.8126
15:21:09.316,-51.1252,-55.0627
15:21:09.326,-69.5628,-73.1878
15:21:09.336,-84.9378,-87.9378
15:21:09.346,-91.1879,-94.6254
15:21:09.356,-93.9379,-99.3754
15:21:09.367,-98.1879,-103.6254
15:21:09.376,-102.6879,-107.0629
15:21:09.386,-106.5004,-109.5004
15:21:09.396,-109.1879,-113.8129
15:21:09.406,-111.3754,-116.5629
15:21:09.416,-113.0629,-118.6255
15:21:09.426,-113.6879,-119.313
15:21:09.436,-111.1879,-119.438
15:21:09.446,-109.2504,-116.5629
15:21:09.458,-107.2504,-114.6879
15:21:09.468,-104.3129,-113.0629
15:21:09.476,-101.8754,-109.0004
15:21:09.486,-99.0629,-103.8754
15:21:09.497,-98.1254,-100.6879
15:21:09.506,-96.2504,-97.6879
15:21:09.516,-95.5004,-93.9379
15:21:09.526,-92.3129,-94.5629
15:21:09.536,-87.3753,-94.9379
15:21:09.548,-80.6878,-92.6879
15:21:09.557,-74.2503,-88.9378
15:21:09.566,-67.0003,-84.5003
15:21:09.576,-63.1877,-80.3753
15:21:09.586,-61.5002,-80.8753
15:21:09.596,-58.9377,-79.8753
15:21:09.606,-55.7502,-76.8128
15:21:09.617,-49.9377,-74.0003
15:21:09.650,-46.0627,-69.2503
15:21:09.653,-43.0002,-66.8128
15:21:09.655,-38.9376,-63.8127
15:21:09.658,-35.5001,-59.5627
15:21:09.669,-33.0626,-56.8752
15:21:09.677,-28.7501,-49.4377
15:21:09.711,-13.6876,-30.9376
15:21:09.712,3.9375,1.3125
15:21:09.714,15.1876,29.3751
15:21:09.720,22.9376,39.5627
15:21:09.758,24.5626,43.2502
15:21:09.760,28.4376,46.5627
15:21:09.761,34.6876,51.9377
15:21:09.796,39.6877,57.9377
15:21:09.796,43.2502,60.9377
15:21:09.798,45.6877,64.8127
15:21:09.799,46.8752,67.0628
15:21:09.805,47.0002,66.0003
15:21:09.807,45.7502,67.0003
15:21:09.817,45.1252,65.5628
15:21:09.827,45.1877,65.6253
15:21:09.836,43.1877,64.3127
15:21:09.846,40.6877,61.0627
15:21:09.856,38.7501,58.3752
15:21:09.868,37.6876,55.8752
15:21:09.879,38.5001,56.3127
15:21:09.887,38.1876,54.8127
15:21:09.898,37.6876,53.3752
15:21:09.908,36.2501,51.8752
15:21:09.919,33.1251,48.0627
15:21:09.927,30.3126,43.6252
15:21:09.936,26.1251,39.8127
15:21:09.946,66.2503,81.5628
15:21:09.956,96.8754,91.6254
15:21:09.966,114.0004,108.1254
15:21:09.976,118.938,115.8754
15:21:09.987,116.4379,113.8754
15:21:10.001,109.7504,107.4379
15:21:10.006,105.7504,103.3129
15:21:10.016,101.5004,99.5004
15:21:10.027,92.1879,91.8129
15:21:10.037,79.8753,80.0003
15:21:10.047,70.0628,70.7503
15:21:10.057,63.5002,64.3752
15:21:10.068,60.2502,60.5627
15:21:10.077,60.3752,59.3127
15:21:10.087,63.8752,61.0002
15:21:10.099,68.2503,64.1877
15:21:10.106,72.0628,68.6878
15:21:10.121,75.8753,70.5003
15:21:10.139,78.4378,73.3128
15:21:10.141,80.5003,75.4378
15:21:10.147,82.1253,75.8753
15:21:10.156,83.0003,76.8753
15:21:10.167,83.1878,76.9378
15:21:10.177,84.8128,78.2503
15:21:10.187,87.7503,81.8128
15:21:10.196,90.0628,85.5628
15:21:10.206,91.6879,87.8753
15:21:10.216,93.5004,92.4379
15:21:10.227,95.8754,96.7504
15:21:10.238,98.4379,101.5004
15:21:10.247,103.5004,106.6879
15:21:10.279,105.3129,110.7504
15:21:10.281,108.1254,114.6254
15:21:10.284,109.5629,118.313
15:21:10.288,111.3129,120.8755
15:21:10.298,113.0004,121.8755
15:21:10.307,112.9379,124.438
15:21:10.318,114.1254,123.938
15:21:10.327,114.5004,125.813
15:21:10.338,116.0004,125.7505
15:21:10.348,115.8754,126.6255
15:21:10.359,116.1879,127.1255
15:21:10.390,116.7504,126.063
15:21:10.393,117.438,126.438
15:21:10.395,117.3754,125.563
15:21:10.397,119.3755,128.188
15:21:10.433,119.5005,127.313
15:21:10.436,118.8755,126.6255
15:21:10.439,118.688,125.3755
15:21:10.444,118.438,125.2505
15:21:10.447,118.188,124.1255
15:21:10.475,116.1879,122.563
15:21:10.477,116.5629,121.938
15:21:10.480,115.4379,121.188
15:21:10.488,115.1879,120.438
15:21:10.519,115.5629,120.438
15:21:10.520,116.0629,121.6255
15:21:10.522,116.6879,121.188
15:21:10.529,116.4379,122.063
15:21:10.551,116.0629,121.063
15:21:10.552,116.0004,121.1255
15:21:10.557,115.7504,121.6255
15:21:10.567,115.1254,120.1255
15:21:10.577,114.8129,120.688
15:21:10.588,114.3754,118.938
15:21:10.596,114.1879,118.7505
15:21:10.607,113.0004,117.6879
15:21:10.616,112.0004,115.7504
15:21:10.627,110.8129,114.7504
15:21:10.637,108.8129,113.6879
15:21:10.648,107.0629,112.4379
15:21:10.657,106.3129,109.7504
15:21:10.667,104.3754,108.3129
15:21:10.678,103.6879,106.1879
15:21:10.688,102.1879,106.1879
15:21:10.697,101.8129,104.8129
15:21:10.707,100.8129,103.0004
15:21:10.717,99.7504,101.7504
15:21:10.727,97.9379,100.0004
15:21:10.742,96.3754,97.5004
15:21:10.751,93.5629,95.2504
15:21:10.763,92.1254,92.8754
15:21:10.772,90.7504,91.1254
15:21:10.784,90.0003,90.3754
15:21:10.794,89.0003,88.0003
15:21:10.801,88.0628,87.3753
15:21:10.811,86.9378,85.1878
15:21:10.822,85.1253,84.1878
15:21:10.831,84.6878,82.3128
15:21:10.842,82.9378,81.6878
15:21:10.851,82.6878,80.3753
15:21:10.862,81.7503,78.5003
15:21:10.871,80.1878,77.6253
15:21:10.882,79.2503,75.6878
15:21:10.891,77.7503,72.8753
15:21:10.902,77.1253,72.4378
15:21:10.912,76.3753,71.5003
15:21:10.924,76.5628,72.8128
15:21:10.931,77.2503,75.0628
15:21:10.942,77.6253,77.3753
15:21:10.951,79.0003,80.5003
15:21:10.962,80.1878,83.1253
15:21:10.972,81.0003,86.3128
15:21:10.982,81.8128,89.1878
15:21:10.992,82.0628,91.9379
15:21:11.003,81.8753,94.5629
15:21:11.012,82.4378,95.6254
15:21:11.022,81.3128,96.6879
15:21:11.037,81.9378,97.0004
15:21:11.053,80.5003,97.5629
15:21:11.055,80.4378,97.2504
15:21:11.062,79.1878,97.0629
15:21:11.072,77.6878,95.5004
15:21:11.085,76.0003,94.3754
15:21:11.119,75.5628,93.3754
15:21:11.120,73.8128,92.2504
15:21:11.126,73.3753,90.8128
15:21:11.127,72.3753,90.4379
15:21:11.131,71.8128,90.1253
15:21:11.166,71.3128,87.8753
15:21:11.169,70.1253,86.6878
15:21:11.171,68.5003,86.0003
15:21:11.176,67.6878,83.0628
15:21:11.205,66.1878,81.4378
15:21:11.208,65.3753,80.3753
15:21:11.209,64.1877,78.5628
15:21:11.212,63.3127,77.5628
15:21:11.249,61.8127,75.8753
15:21:11.251,61.1877,74.8753
15:21:11.252,59.8127,74.0628
15:21:11.255,58.6252,73.1253
15:21:11.263,57.6252,71.0003
15:21:11.272,56.8127,71.1878
15:21:11.282,55.7502,70.3128
15:21:11.291,55.8752,69.1878
15:21:11.305,55.3752,68.7503
15:21:11.313,54.0627,68.0003
15:21:11.322,55.0002,68.3128
15:21:11.332,54.0627,67.6253
15:21:11.343,53.0627,66.9378
15:21:11.358,52.1877,65.6878
15:21:11.362,50.5002,63.6252
15:21:11.372,50.8127,63.2502
15:21:11.382,49.2502,62.0627
15:21:11.392,48.3752,61.2502
15:21:11.401,47.6252,59.1252
15:21:11.418,46.4377,57.4377
15:21:11.432,45.0002,56.1252
15:21:11.435,44.8752,54.8752
15:21:11.442,43.9377,54.3127
15:21:11.452,43.3127,53.3127
15:21:11.462,42.3752,51.7502
15:21:11.472,42.0627,51.6252
15:21:11.482,40.7502,49.3127
15:21:11.492,40.3127,47.5627
15:21:11.502,38.8126,45.7502
15:21:11.512,38.6876,45.0002
15:21:11.522,37.6876,44.3127
15:21:11.532,37.4376,43.8752
15:21:11.560,36.1251,42.1252
15:21:11.562,36.5626,41.7502
15:21:11.563,35.9376,40.8752
15:21:11.572,35.1251,39.1251
15:21:11.582,33.6251,38.8126
15:21:11.592,32.1251,36.5001
15:21:11.602,31.5001,34.9376
15:21:11.612,30.0626,32.9376
15:21:11.622,28.5001,32.0001
15:21:11.633,27.6251,29.6876
15:21:11.643,26.8126,29.0626
15:21:11.652,26.2501,27.3126
15:21:11.662,25.3126,26.8126
15:21:11.674,25.8751,26.8751
15:21:11.682,24.7501,26.6876
15:21:11.692,24.6876,26.7501
15:21:11.702,25.5626,27.9376
15:21:11.713,27.9376,32.0626
15:21:11.722,28.5626,34.6876
15:21:11.733,29.4376,38.5001
15:21:11.743,31.5001,42.6877
15:21:11.755,33.6876,46.3127
15:21:11.763,35.7501,49.2502
15:21:11.772,35.9376,52.1877
15:21:11.782,36.5001,55.8752
15:21:11.792,37.4376,56.9377
15:21:11.802,37.1251,57.1252
15:21:11.817,36.8126,57.3752
15:21:11.822,35.9376,58.8127
15:21:11.860,35.8751,57.3752
15:21:11.864,35.3126,56.1877
15:21:11.864,34.9376,55.1877
15:21:11.866,34.0626,56.0627
15:21:11.873,34.6876,55.1252
15:21:11.887,34.3751,53.8127
15:21:11.892,34.2501,54.5627
15:21:11.928,33.9376,53.0002
15:21:11.930,32.8751,51.4377
15:21:11.932,31.6876,52.1877
15:21:11.965,31.6251,50.1877
15:21:11.965,30.7501,48.1877
15:21:11.966,30.3126,48.4377
15:21:11.972,30.0001,47.7502
15:21:11.972,30.1251,47.6252
15:21:11.987,30.1876,46.5002
15:21:11.993,28.8126,45.0002
15:21:12.003,27.6251,44.5002
15:21:12.012,26.8126,43.9377
15:21:12.022,27.8126,44.0002
15:21:12.032,26.5626,43.0627
15:21:12.042,27.0001,43.1252
15:21:12.054,26.6876,43.1252
15:21:12.064,26.4376,42.0627
15:21:12.072,25.5001,41.8127
15:21:12.082,24.5001,41.3752
15:21:12.092,24.2501,41.1877
15:21:12.102,24.5001,38.7501
15:21:12.112,23.5626,38.1251
15:21:12.122,22.6251,36.9376
15:21:12.132,22.0626,36.1876
15:21:12.143,20.7501,35.6876
15:21:12.152,21.1876,33.9376
15:21:12.163,20.6251,32.5626
15:21:12.174,19.4376,32.5001
15:21:12.182,19.4376,31.3751
15:21:12.193,18.3751,29.3751
15:21:12.202,17.7501,29.1251
15:21:12.212,17.3751,28.4376
15:21:12.222,17.6876,26.5626
15:21:12.232,16.5626,24.8126
15:21:12.243,15.4376,23.3751
15:21:12.252,14.5001,22.7501
15:21:12.262,13.8751,22.0626
15:21:12.272,13,20.0001
15:21:12.282,12.25,18.8126
15:21:12.293,11.8125,18.1876
15:21:12.303,10.75,16.8751
15:21:12.312,10.875,15.8126
15:21:12.333,10.625,14.6876
15:21:12.338,9.75,13.8126
15:21:12.353,9.4375,13.4376
15:21:12.356,9,12.1875
15:21:12.362,8.4375,10.625
15:21:12.372,8.3125,9.5625
15:21:12.383,7.125,9.5
15:21:12.393,7.625,8.375
15:21:12.403,7.5,7.25
15:21:12.412,6.625,6.125
15:21:12.422,6.25,5.1875
15:21:12.432,5.875,5.625
15:21:12.442,6.4375,4.375
15:21:12.453,5.8125,3.25
15:21:12.463,5.375,2.375
15:21:12.474,4.5625,2.1875
15:21:12.482,4.25,1.875
15:21:12.493,4.0625,2
15:21:12.502,5.625,3.4375
15:21:12.512,7.875,4.9375
15:21:12.522,9,7.3125
15:21:12.532,10.8125,12.125
15:21:12.544,13.1876,17.4376
15:21:12.554,15.3751,20.1876
15:21:12.562,16.8126,23.5626
15:21:12.579,17.9376,26.1251
15:21:12.583,18.6251,29.1251
15:21:12.610,19.1251,31.1876
15:21:12.611,20.4376,31.8126
15:21:12.613,20.1876,32.4376
15:21:12.644,19.3751,34.1251
15:21:12.646,19.8751,33.5626
15:21:12.648,19.0626,32.0626
15:21:12.653,17.5001,30.7501
15:21:12.693,16.5626,31.3126
15:21:12.696,16.3751,29.5626
15:21:12.699,16.1251,29.1251
15:21:12.734,16.1876,28.5001
15:21:12.735,15.6251,28.6251
15:21:12.735,15.9376,27.0626
15:21:12.737,14.6876,25.7501
15:21:12.745,13.3751,26.2501
15:21:12.746,13.0625,24.9376
15:21:12.754,12.9375,22.7501
15:21:12.762,12,21.0626
15:21:12.772,11.3125,21.1876
15:21:12.783,12,20.4376
15:21:12.796,12.3125,20.3751
15:21:12.802,12.125,20.0626
15:21:12.812,11.6875,19.0626
15:21:12.839,11.3125,19.5001
15:21:12.841,11.4375,19.4376
15:21:12.843,11.125,18.6251
15:21:12.852,10.625,18.5001
15:21:12.862,10,20.5001
15:21:12.872,10.5625,19.5626
15:21:12.882,10.875,19.3126
15:21:12.892,11.75,19.3126
15:21:12.904,10.5625,18.8126
15:21:12.912,10.0625,18.1251
15:21:12.923,8.5625,17.8751
15:21:12.932,8.8125,16.1876
15:21:12.942,8.0625,14.8751
15:21:12.952,7.8125,13.8126
15:21:12.962,8.1875,13.8126
15:21:12.972,7.9375,14.2501
15:21:12.984,8.1875,12.625
15:21:12.992,7.3125,11.4375
15:21:13.002,6.375,9.8125
15:21:13.012,6.5,10.125
15:21:13.022,6.4375,9.4375
15:21:13.032,5,7.5625
15:21:13.042,4.625,6.5625
15:21:13.052,4.375,6.8125
15:21:13.062,3.875,5.8125
15:21:13.072,3.75,4.9375
15:21:13.082,3.9375,3.9375
15:21:13.092,3.4375,3.5
15:21:13.103,3.4375,3.8125
15:21:13.112,2.1875,2.5
15:21:13.125,2.5,0.1875
15:21:13.132,2.3125,-0.0625
15:21:13.143,2,-1.125
15:21:13.152,1.375,-1.75
15:21:13.162,1.5625,-1.5625
15:21:13.172,1.6875,-2.4375
15:21:13.184,0.875,-4
15:21:13.192,-0.8125,-4.125
15:21:13.202,-0.0625,-5.1875
15:21:13.212,-1.3125,-7.3125
15:21:13.222,-1.125,-7.875
15:21:13.232,-1.5625,-7.5
15:21:13.244,-1.5,-8.625
15:21:13.252,-0.75,-8.25
15:21:13.262,-0.4375,-7.875
15:21:13.272,1.8125,-5.875
15:21:13.282,5,-0.125
15:21:13.292,6.5625,2.5625
15:21:13.302,7.875,5.5625
15:21:13.314,9.4375,8.6875
15:21:13.347,11.5,12.6875
15:21:13.350,13.2501,17.0626
15:21:13.353,14.6876,19.4376
15:21:13.356,15.3126,21.6251
15:21:13.397,15.3126,23.2501
15:21:13.399,15.3751,23.1876
15:21:13.403,14.1251,23.8751
15:21:13.403,13.6876,22.3126
15:21:13.412,12.4375,23.0626
15:21:13.414,12.125,20.3126
15:21:13.442,11.125,21.0001
15:21:13.444,10.9375,19.0001
15:21:13.447,9.5,19.3126
15:21:13.453,9.5,17.6251
15:21:13.482,8.5625,16.0001
15:21:13.484,7.6875,16.1251
15:21:13.487,7.1875,14.5001
15:21:13.494,7.0625,13.5626
15:21:13.503,6.5625,11.8125
15:21:13.512,6,10.625
15:21:13.522,5.1875,11.4375
15:21:13.532,5.3125,10.4375
15:21:13.542,5.375,8.875
15:21:13.556,4.3125,8
15:21:13.565,4.6875,8.375
15:21:13.573,4.6875,8.75
15:21:13.582,4.9375,7.875
15:21:13.592,4.625,8.3125
15:21:13.602,4.8125,9.5
15:21:13.612,5.375,8.4375
15:21:13.634,5.5,8.75
15:21:13.636,5.0625,9.0625
15:21:13.651,4.625,9.875
15:21:13.655,5.0625,9.0625
15:21:13.663,5.5,8.3125
15:21:13.672,5.25,8.875
15:21:13.683,4.5,8.3125
15:21:13.695,5.0625,7.3125
15:21:13.702,4.8125,6.9375
15:21:13.712,3.625,5.625
15:21:13.722,3.8125,5
15:21:13.732,2.9375,4.5
15:21:13.743,2.875,2.4375
15:21:13.753,3.125,2.5
15:21:13.763,1.6875,1.0625
15:21:13.772,2.3125,1.625
15:21:13.783,2.1875,0.5625
15:21:13.794,1.6875,-0.25
15:21:13.802,1.0625,-1.625
15:21:13.812,0.5625,-1.8125
15:21:13.822,1.75,-2.25
15:21:13.832,0.375,-3.8125
15:21:13.842,-0.5625,-3.8125
15:21:13.853,-1.3125,-5.5625
15:21:13.862,-1.3125,-6.4375
15:21:13.872,-1.5,-7.25
15:21:13.882,-2.1875,-7.375
15:21:13.892,-2.3125,-9.5625
15:21:13.902,-3.875,-10.5
15:21:13.912,-3.4375,-10.1875
15:21:13.922,-3.375,-11.4375
15:21:13.932,-3.625,-11.4375
15:21:13.943,-4.5625,-12.5
15:21:13.953,-4.1875,-12.4375
15:21:13.963,-3.4375,-13
15:21:13.972,-4.0625,-13
15:21:13.982,-3.875,-13.8751
15:21:13.993,-4.25,-14.5001
15:21:14.008,-5,-14.3751
15:21:14.025,-5.0625,-15.6876
15:21:14.026,-4.9375,-15.8126
15:21:14.063,-5.25,-15.2501
15:21:14.096,-3.6875,-14.1876
15:21:14.096,-2.125,-11.5625
15:21:14.097,-0.25,-7.375
15:21:14.099,2.1875,-3.25
15:21:14.123,4.375,0.125
15:21:14.126,6.625,4.8125
15:21:14.162,8,7.3125
15:21:14.162,9.1875,10.75
15:21:14.163,10.375,13.3751
15:21:14.166,10.875,15.5001
15:21:14.193,11.8125,17.5001
15:21:14.193,11.9375,18.3751
15:21:14.195,11.375,17.1876
15:21:14.197,11.0625,17.5626
15:21:14.202,10.9375,16.8751
15:21:14.208,9.5625,16.3126
15:21:14.218,9.0625,16.5626
15:21:14.227,8.875,14.8126
15:21:14.237,8.0625,13.6251
15:21:14.247,7.25,13.3126
15:21:14.259,6.6875,13.6251
15:21:14.271,6.875,12.75
15:21:14.277,7,11.4375
15:21:14.287,5.375,9.625
15:21:14.297,3.875,8.5625
15:21:14.308,4.1875,7.9375
15:21:14.319,3.3125,6.375
15:21:14.327,3.5,5.75
15:21:14.337,2.9375,4.9375
15:21:14.347,2.5625,4.9375
15:21:14.357,2,5.0625
15:21:14.368,2.6875,4
15:21:14.378,3.125,3.875
15:21:14.387,3,5.3125
15:21:14.397,3.125,5.3125
15:21:14.407,3.875,5.3125
15:21:14.417,3.75,5
15:21:14.429,3.3125,5.4375
15:21:14.437,4.625,5.8125
15:21:14.447,3.25,4.25
15:21:14.457,2.375,5.25
15:21:14.467,2.5,3.9375
15:21:14.478,2.8125,3.4375
15:21:14.488,1.8125,2.25
15:21:14.497,1.4375,2.9375
15:21:14.507,2.1875,1.3125
15:21:14.517,1.875,0.3125
15:21:14.528,0.3125,0.6875
15:21:14.537,-0.0625,-1.25
15:21:14.547,-0.3125,-2.6875
15:21:14.557,-0.8125,-3.9375
15:21:14.567,-0.9375,-3.4375
15:21:14.578,-0.9375,-5
15:21:14.587,-1.3125,-5.6875
15:21:14.597,-2.375,-6.3125
15:21:14.607,-3.0625,-6.5625
15:21:14.617,-2,-8.0625
15:21:14.630,-3.125,-9
15:21:14.637,-3.8125,-10.125
15:21:14.647,-4.8125,-10
15:21:14.657,-4.8125,-10.5625
15:21:14.667,-3.8125,-12.1875
15:21:14.681,-4.625,-12.5
15:21:14.694,-5.3125,-11.5
15:21:14.697,-4.5,-12.5625
15:21:14.707,-5,-13.6251
15:21:14.720,-6.0625,-13.8751
15:21:14.727,-6.5625,-15.3751
15:21:14.737,-6,-16.5001
15:21:14.779,-5.9375,-15.7501
15:21:14.781,-7,-16.9376
15:21:14.783,-7.0625,-17.9376
15:21:14.786,-6.25,-18.0001
15:21:14.793,-7.0625,-18.9376
15:21:14.833,-8.1875,-18.5001
15:21:14.834,-7.6875,-20.9376
15:21:14.838,-8.25,-19.2501
15:21:14.841,-7.125,-20.1251
15:21:14.844,-6.1875,-17.3751
15:21:14.884,-4.25,-13.8126
15:21:14.886,-1.625,-10.8125
15:21:14.887,0.625,-6.25
15:21:14.890,2.8125,-3.375
15:21:14.896,4.75,1.5625
15:21:14.927,5.6875,4.125
15:21:14.930,6.9375,7.4375
15:21:14.944,8.5625,10.875
15:21:14.951,8.625,11.0625
15:21:14.952,8.3125,13.125
15:21:14.968,8.625,13.0625
15:21:14.982,8.9375,12.1875
15:21:14.985,8,12.25
15:21:15.001,7.5,11.3125
15:21:15.002,7.25,10.4375
15:21:15.005,6.5625,10.375
15:21:15.012,5.875,9.1875
15:21:15.022,6.0625,8.8125
15:21:15.032,5.75,8.1875
15:21:15.044,5,7.625
15:21:15.057,5.3125,7.6875
15:21:15.062,5.0625,5.5625
15:21:15.072,4.9375,6.0625
15:21:15.083,3.875,5.25
15:21:15.096,3.8125,4.875
15:21:15.104,3.6875,2.875
15:21:15.112,3.125,2.5
15:21:15.122,3.25,3
15:21:15.133,3.1875,2
15:21:15.142,3.875,2.625
15:21:15.152,3.625,2.75
15:21:15.163,3.5625,2.125
15:21:15.173,3.5625,2.6875
15:21:15.182,4.0625,3.25
15:21:15.192,4.125,2.75
15:21:15.203,4.1875,3.4375
15:21:15.213,3.5625,3.5625
15:21:15.224,5.0625,3.9375
15:21:15.233,4.875,4.125
15:21:15.242,4.25,4.0625
15:21:15.252,4.5,4.375
15:21:15.264,4.9375,2.625
15:21:15.273,4.25,2.3125
15:21:15.283,3.75,2.3125
15:21:15.293,3.9375,2.5
15:21:15.303,3.875,1.4375
15:21:15.312,3.5625,0.4375
15:21:15.324,3.25,1.375
15:21:15.345,3.375,-0.8125
15:21:15.347,2.4375,-2
15:21:15.356,1.5625,-2.125
15:21:15.362,1.4375,-2.6875
15:21:15.400,1.625,-4.125
15:21:15.402,0.375,-4.1875
15:21:15.415,0.1875,-4.75
15:21:15.420,0.25,-6.1875
15:21:15.420,-0.5625,-6.9375
15:21:15.424,-1.5625,-7.25
15:21:15.432,-1.1875,-7.875
15:21:15.444,-1.6875,-8.8125
15:21:15.452,-2.6875,-9.125
15:21:15.464,-1.5625,-10
15:21:15.472,-2.6875,-11.4375
15:21:15.484,-2.5625,-11.9375
15:21:15.492,-2.4375,-11.0625
15:21:15.502,-2.25,-11.9375
15:21:15.534,-2.875,-12.5
15:21:15.537,-1.9375,-12.875
15:21:15.538,-2.8125,-13.6876
15:21:15.544,-3.3125,-13.4376
15:21:15.573,-3.0625,-13.3751
15:21:15.576,-2.8125,-14.3751
15:21:15.578,-2.9375,-15.5001
15:21:15.583,-3.6875,-14.3751
15:21:15.614,-4.125,-15.3126
15:21:15.616,-4.0625,-15.8751
15:21:15.619,-4.1875,-18.0626
15:21:15.624,-4.625,-16.1876
15:21:15.657,-4.3125,-17.3126
15:21:15.658,-3,-13.5001
15:21:15.661,-1.25,-12.375
15:21:15.663,0.0625,-8.75
15:21:15.694,2.3125,-5.125
15:21:15.697,2.375,-3.125
15:21:15.700,1.875,-0.9375
15:21:15.703,1.6875,0.25
15:21:15.715,1,0.8125
15:21:15.722,0.5625,1.625
15:21:15.732,-0.5625,1.4375
15:21:15.743,-0.875,1.375
15:21:15.753,-1.25,1.8125
15:21:15.764,-1.125,1.6875
15:21:15.773,-1.625,1.25
15:21:15.782,-1.8125,0.125
15:21:15.793,-3.0625,-0.8125
15:21:15.804,-2.6875,-1.0625
15:21:15.813,-3.8125,-1.625
15:21:15.823,-5.25,-3.5
15:21:15.832,-5.5625,-5.125
15:21:15.843,-5.5,-5.6875
15:21:15.852,-5.0625,-4.625
15:21:15.863,-4.9375,-6
15:21:15.875,-5.0625,-4.875
15:21:15.883,-4.3125,-6.25
15:21:15.892,-5.3125,-8.125
15:21:15.904,-6.0625,-6.4375
15:21:15.913,-5.0625,-7.0625
15:21:15.924,-4.75,-7.5
15:21:15.933,-3.875,-6.0625
15:21:15.944,-2.5625,-5.4375
15:21:15.953,-1.875,-4.875
15:21:15.963,-1.3125,-3.5
15:21:15.973,-1.25,-2.875
15:21:15.985,-1.25,-2.8125
15:21:15.992,-1.125,-2.4375
15:21:16.004,-0.9375,-2.4375
15:21:16.014,-1.1875,-3.25
15:21:16.026,-1.125,-1.8125
15:21:16.033,-0.625,-2.3125
15:21:16.044,-0.75,-2.625
15:21:16.053,-0.75,-2.8125
15:21:16.066,-0.75,-2.1875
15:21:16.074,-0.6875,-3.75
15:21:16.083,-1.0625,-2.75
15:21:16.094,-1.1875,-3.8125
15:21:16.104,-1.125,-4.6875
15:21:16.114,-0.875,-3.75
15:21:16.123,-1.375,-4.625
15:21:16.134,-0.875,-4.9375
15:21:16.143,-0.8125,-4.1875
15:21:16.153,-0.875,-6.0625
15:21:16.163,-1.8125,-5.8125
15:21:16.176,-2.75,-7.25
15:21:16.183,-3.5625,-8
15:21:16.194,-4.1875,-9.6875
15:21:16.204,-4.125,-10.5
15:21:16.216,-4.5625,-10.3125
15:21:16.223,-4.5,-10.9375
15:21:16.233,-3.75,-9.875
15:21:16.244,-4,-10.625
15:21:16.263,-4.0625,-11.5625
15:21:16.266,-4.25,-12.875
15:21:16.404,-4.8125,-11.875
15:21:16.404,-5.25,-12.8125
15:21:16.430,-4.875,-13
15:21:16.430,-5.125,-14.3126
15:21:16.430,-5,-14.1251
15:21:16.433,-5.125,-14.9376
15:21:16.439,-5.75,-14.6251
15:21:16.443,-5.375,-16.2501
15:21:16.453,-5.9375,-15.5001
15:21:16.464,-5.875,-16.8126
15:21:16.473,-5.5,-16.3126
15:21:16.483,-5.3125,-16.0626
15:21:16.495,-4.8125,-15.5626
15:21:16.503,-3.0625,-12.625
15:21:16.514,-0.8125,-10.6875
15:21:16.523,1.0625,-6.4375
15:21:16.535,3.375,-2.4375
15:21:16.544,5.5625,0.5
15:21:16.556,6.5625,3.9375
15:21:16.564,7.1875,6.25
15:21:16.576,7.9375,12.8125
15:21:16.584,7.6875,11
15:21:16.593,7.5,11.125
15:21:16.604,7.0625,9.9375
15:21:16.615,6.3125,8.5
15:21:16.623,5.5625,8.875
15:21:16.633,4.8125,7.375
15:21:16.646,4.3125,5
15:21:16.654,4.3125,5.5
15:21:16.680,3.5,3.625
15:21:16.695,3.8125,3.4375
15:21:16.697,3.875,3.125
15:21:16.712,3.625,3.5
15:21:16.728,5,3.9375
15:21:16.728,4.5,3.8125
15:21:16.730,4.0625,3.5
15:21:16.744,4.8125,5.0625
15:21:16.748,4.625,5.5625
15:21:16.754,5.875,5.75
15:21:16.763,5.4375,5.125
15:21:16.774,5.125,6.5625
15:21:16.784,5.625,5.75
15:21:16.793,4.75,4.4375
15:21:16.803,4.375,4.0625
15:21:16.815,4.125,4.4375
15:21:16.824,4.125,5.1875
15:21:16.833,4.4375,4.6875
15:21:16.843,4.5625,3.25
15:21:16.856,3.625,2.1875
15:21:16.863,3.0625,1.75
15:21:16.874,2.375,0.8125
15:21:16.883,2.5625,0.75
15:21:16.894,2.5625,0.9375
15:21:16.903,2.5,0.375
15:21:16.914,2.75,-0.125
15:21:16.923,2.4375,-1
15:21:16.954,2.25,-1.1875
15:21:16.956,1.8125,-1.375
15:21:16.990,1.5,-3.3125
15:21:16.993,1.1875,-4.75
15:21:16.994,0.1875,-4.9375
15:21:16.997,0.75,-5.75
15:21:17.001,0.1875,-6.625
15:21:17.003,-0.5,-6.9375
15:21:17.040,-0.25,-6.8125
15:21:17.042,-0.8125,-6.8125
15:21:17.044,-1,-7.9375
15:21:17.047,-0.3125,-9
15:21:17.055,-0.875,-9.4375
15:21:17.096,-1.3125,-9
15:21:17.098,-1.5625,-10.5625
15:21:17.101,-1.6875,-10.8125
15:21:17.103,-2.125,-11.5
15:21:17.108,-2.375,-11.8125
15:21:17.119,-2,-12.125
15:21:17.124,-2.5,-13.3751
15:21:17.133,-1.9375,-13.0625
15:21:17.143,-2.375,-13.5626
15:21:17.153,-2.3125,-14.0001
15:21:17.165,-2.4375,-14.0626
15:21:17.174,-2.5,-12.3125
15:21:17.183,-0.9375,-11.1875
15:21:17.194,0.5625,-7.25
15:21:17.203,3.125,-3.875
15:21:17.214,4.5,0.9375
15:21:17.224,6.875,5.4375
15:21:17.238,8.9375,8.0625
15:21:17.245,9.625,12.4375
15:21:17.254,11.3125,15.7501
15:21:17.264,12.75,17.1251
15:21:17.273,13.1251,19.9376
15:21:17.283,13.8126,19.9376
15:21:17.294,13.6251,20.7501
15:21:17.306,12.6875,20.3126
15:21:17.314,12.5,21.0001
15:21:17.323,11.8125,20.0001
15:21:17.334,10.6875,19.3751
15:21:17.343,10.75,19.4376
15:21:17.353,10.6875,17.9376
15:21:17.366,9.8125,18.3126
15:21:17.375,10.125,17.4376
15:21:17.383,9.4375,16.6876
15:21:17.393,8.5,15.9376
15:21:17.405,8.25,15.8751
15:21:17.413,8.25,14.1876
15:21:17.423,7.8125,13.5001
15:21:17.434,6.9375,12.9375
15:21:17.443,6.875,13.9376
15:21:17.453,7.0625,12.875
15:21:17.463,6.6875,11.8125
15:21:17.476,6.25,11.1875
15:21:17.483,5.8125,11.5625
15:21:17.494,6.5625,11.625
15:21:17.503,7.25,11.75
15:21:17.513,6.9375,11.875
15:21:17.524,6.9375,12.125
15:21:17.533,7.75,13.5626
15:21:17.545,8.125,13.1876
15:21:17.553,7.3125,13.125
15:21:17.563,7.5,14.0001
15:21:17.574,7.1875,13.8751
15:21:17.583,7.4375,12.6875
15:21:17.593,7.375,12.8125
15:21:17.604,7,12.5
15:21:17.613,7.375,12.6875
15:21:17.633,7.3125,12.9375
15:21:17.639,7.0625,11.9375
15:21:17.647,6.5,10.75
15:21:17.654,5.875,10.6875
15:21:17.671,6.4375,9.5625
15:21:17.673,4.875,7.75
15:21:17.702,4.5,6.875
15:21:17.705,3.875,7.5625
15:21:17.707,4.875,6.625
15:21:17.713,4.0625,5.6875
15:21:17.750,3.8125,6.1875
15:21:17.752,3.8125,4.8125
15:21:17.753,3.75,4
15:21:17.758,2.9375,2.5625
15:21:17.788,2.75,2.625
15:21:17.791,1.75,2.5625
15:21:17.794,2.75,1.3125
15:21:17.796,2.75,1.0625
15:21:17.825,2,-0.125
15:21:17.828,1.9375,0.125
15:21:17.831,1.625,-0.1875
15:21:17.836,1.375,-0.75
15:21:17.864,0.9375,-2.3125
15:21:17.866,0.375,-2.5
15:21:17.869,0.1875,-3.625
15:21:17.874,-0.25,-3.3125
15:21:17.886,-0.75,-3.625
15:21:17.893,-0.5,-5.125
15:21:17.904,-0.875,-6
15:21:17.916,-1.8125,-6.875
15:21:17.924,-2.0625,-6.4375
15:21:17.934,-1.9375,-7.375
15:21:17.958,-1.625,-7.625
15:21:17.962,-1.4375,-6.9375
15:21:17.963,-0.1875,-6.125
15:21:17.975,1.625,-1.6875
15:21:17.983,4.1875,1.875
15:21:17.994,6,5.625
15:21:18.011,7.3125,10.625
15:21:18.014,9.875,13.1876
15:21:18.028,11.125,17.1251
15:21:18.043,13.3126,21.3751
15:21:18.045,13.7501,23.0001
15:21:18.054,14.8126,24.9376
15:21:18.065,15.2501,26.3126
15:21:18.073,15.6876,28.2501
15:21:18.084,15.5626,27.6876
15:21:18.094,15.2501,28.5626
15:21:18.104,14.5626,27.1251
15:21:18.113,14.4376,27.1876
15:21:18.124,14.1251,26.5001
15:21:18.133,13.6876,27.0001
15:21:18.144,13.3126,25.6876
15:21:18.153,12.75,25.9376
15:21:18.166,12.9375,25.6251
15:21:18.174,12.9375,25.5001
15:21:18.183,12.625,25.1251
15:21:18.195,13.0625,24.1251
15:21:18.204,13,23.3751
15:21:18.213,13.6251,22.9376
15:21:18.225,13.3126,22.3751
15:21:18.234,13.1876,22.8126
15:21:18.244,12.75,23.1876
15:21:18.259,13.1876,22.6251
15:21:18.263,13.6251,22.3126
15:21:18.274,13.6876,23.6251
15:21:18.284,14.3126,24.0626
15:21:18.293,15.1251,24.7501
15:21:18.304,15.6876,24.5001
15:21:18.314,15.3126,25.1876
15:21:18.324,15.4376,26.2501
15:21:18.334,15.1251,25.2501
15:21:18.343,14.3751,23.9376
15:21:18.355,14.0001,24.7501
15:21:18.364,14.0001,25.5626
15:21:18.373,15.0626,24.0001
15:21:18.386,14.0001,23.6251
15:21:18.393,13.6251,24.7501
15:21:18.404,14.8751,24.3751
15:21:18.416,13.8126,22.9376
15:21:18.423,12.9375,22.0001
15:21:18.455,12.9375,22.1876
15:21:18.469,12.4375,20.1876
15:21:18.472,11.5625,19.5626
15:21:18.476,10.8125,19.4376
15:21:18.479,10.6875,19.3751
15:21:18.483,10.5,18.1876
15:21:18.515,10.625,17.6876
15:21:18.519,10.1875,16.6251
15:21:18.520,10.5,16.7501
15:21:18.523,9.5,16.7501
15:21:18.560,9.8125,15.1876
15:21:18.562,8.1875,12.75
15:21:18.565,7.6875,12.5625
15:21:18.571,7.375,12.6875
15:21:18.575,7.875,11.6875
15:21:18.605,7.25,10.5625
15:21:18.607,6.8125,10.5625
15:21:18.610,7.25,10.875
15:21:18.615,7.3125,10.625
15:21:18.624,7.75,9.375
15:21:18.633,7.75,9
15:21:18.644,6.4375,7
15:21:18.656,5.5,7.125
15:21:18.663,5.3125,6.875
15:21:18.673,5.25,5.875
15:21:18.684,5.5,4.8125
15:21:18.693,5.4375,5.4375
15:21:18.704,6,4.4375
15:21:18.713,5.375,3.6875
15:21:18.723,5.875,4.3125
15:21:18.734,6.8125,6
15:21:18.743,8.875,8.125
15:21:18.753,10,10.75
15:21:18.764,11.125,14.3126
15:21:18.773,12.625,18.2501
15:21:18.783,15.9376,22.8126
15:21:18.793,16.8126,25.8751
15:21:18.807,17.6251,29.2501
15:21:18.814,18.1251,31.5626
15:21:18.824,19.1876,34.8751
15:21:18.833,19.6876,36.6876
15:21:18.844,20.3126,37.5001
15:21:18.853,20.2501,37.1251
15:21:18.869,19.6876,37.7501
15:21:18.879,19.0001,37.9376
15:21:18.889,19.1876,36.5001
15:21:18.898,18.0001,35.3126
15:21:18.911,17.0001,33.6251
15:21:18.918,16.8126,33.6251
15:21:18.928,16.1876,33.6876
15:21:18.942,15.7501,33.5626
15:21:18.956,16.0626,32.4376
15:21:18.962,15.5001,31.1251
15:21:18.971,14.8126,30.1251
15:21:18.978,14.3126,28.8751
15:21:18.993,13.9376,29.3126
15:21:19.004,13.4376,26.6876
15:21:19.008,12.875,26.1251
15:21:19.020,12.5625,25.6876
15:21:19.029,13.1876,25.7501
15:21:19.038,12.375,26.2501
15:21:19.048,13.4376,26.9376
15:21:19.059,13.3126,27.3126
15:21:19.069,13.2501,26.2501
15:21:19.078,13.6251,27.5001
15:21:19.089,13.3751,27.0626
15:21:19.098,13.9376,27.0626
15:21:19.118,13.8126,27.1876
15:21:19.120,13.5626,26.9376
15:21:19.146,13.0625,27.0626
15:21:19.149,13.2501,27.9376
15:21:19.151,13.3126,27.4376
15:21:19.184,12.5625,26.6251
15:21:19.186,12.1875,25.0626
15:21:19.190,11.25,25.1876
15:21:19.192,11.5625,24.1251
15:21:19.228,10.9375,22.7501
15:21:19.231,10.375,21.5626
15:21:19.233,9.375,21.8751
15:21:19.248,9.9375,19.9376
15:21:19.249,9.0625,19.2501
15:21:19.250,8.375,18.4376
15:21:19.279,8.0625,18.3126
15:21:19.281,7.625,17.3126
15:21:19.284,6.625,16.3126
15:21:19.290,6.1875,14.3751
15:21:19.299,4.875,13.3126
15:21:19.308,4.1875,12.0625
15:21:19.329,3.5,12.625
15:21:19.331,3.5625,10.6875
15:21:19.341,4.25,10.25
15:21:19.348,3.0625,9.125
15:21:19.366,2.6875,8.9375
15:21:19.371,3.0625,8.3125
15:21:19.381,2.4375,7
15:21:19.395,2.75,6.5
15:21:19.400,2.125,6.3125
15:21:19.408,2.3125,5.125
15:21:19.418,1.5625,5.875
15:21:19.429,1.3125,4.1875
15:21:19.439,0.4375,3.3125
15:21:19.448,0.0625,1
15:21:19.459,-0.375,1.375
15:21:19.469,-0.0625,3.375
15:21:19.478,1.625,3.4375
15:21:19.489,3.625,6.375
15:21:19.498,5.375,9.125
15:21:19.509,6.3125,12.6875
15:21:19.520,8.8125,17.3751
15:21:19.528,9.625,21.1876
15:21:19.538,11.875,25.6251
15:21:19.548,13.1251,27.2501
15:21:19.559,12.875,29.2501
15:21:19.568,13.2501,30.8126
15:21:19.579,13.5626,32.7501
15:21:19.590,14.1251,34.3751
15:21:19.599,14.5626,34.1876
15:21:19.609,13.5626,33.8751
15:21:19.620,14.2501,33.9376
15:21:19.628,13.2501,32.9376
15:21:19.639,12.75,33.3126
15:21:19.648,12.375,31.7501
15:21:19.660,11.625,30.5001
15:21:19.668,11.1875,30.0001
15:21:19.679,11.25,30.0626
15:21:19.689,10.8125,31.0001
15:21:19.699,10.8125,29.1251
15:21:19.708,10.3125,27.5626
15:21:19.720,10.3125,27.0001
15:21:19.728,9.9375,26.5626
15:21:19.739,10.3125,25.7501
15:21:19.750,9.9375,24.1251
15:21:19.758,10,24.8751
15:21:19.770,9.75,26.6251
15:21:19.779,10.5625,25.5626
15:21:19.788,10.25,24.7501
15:21:19.799,9.125,24.1876
15:21:19.809,8.5625,24.6876
15:21:19.818,8.9375,24.1876
15:21:19.834,8.625,24.5001
15:21:19.842,8.875,25.0626
15:21:19.869,7.8125,24.5001
15:21:19.873,8,24.5001
15:21:19.875,6.8125,24.7501
15:21:19.879,6.8125,22.6251
15:21:19.909,5.5625,22.0626
15:21:19.911,4.9375,21.6876
15:21:19.914,4.8125,20.8751
15:21:19.919,4,20.0001
15:21:19.958,4,18.8751
15:21:19.960,3.8125,19.8751
15:21:19.962,3.1875,19.8126
15:21:19.990,3.625,18.1876
15:21:19.990,2.8125,16.2501
15:21:19.991,2.5,15.6251
15:21:19.995,1.1875,13.6251
15:21:19.999,-0.5625,11.4375
15:21:20.008,-3.125,9.25
15:21:20.018,-5.1875,8.4375
15:21:20.030,-8.75,4.5
15:21:20.040,-14.3126,-1.6875
15:21:20.048,-21.1251,-7.5625
15:21:20.059,-32.7501,-16.6251
15:21:20.068,-46.8127,-29.8126
15:21:20.078,-59.8752,-40.2502
15:21:20.088,-74.3753,-54.5002
15:21:20.098,-89.5003,-68.0003
15:21:20.109,-99.6879,-78.0628
15:21:20.119,-110.8129,-88.0628
15:21:20.129,-123.438,-99.4379
15:21:20.144,-132.5005,-109.2504
15:21:20.150,-140.813,-117.1879
15:21:20.158,-150.6256,-125.3755
15:21:20.171,-162.5631,-137.688
15:21:20.178,-171.3757,-147.1255
15:21:20.189,-178.5007,-153.1881
15:21:20.199,-180.1257,-158.5631
15:21:20.209,-179.4382,-159.0006
15:21:20.221,-177.5632,-157.1256
15:21:20.228,-175.6882,-156.6256
15:21:20.239,-174.7507,-155.1256
15:21:20.249,-171.3757,-152.8131
15:21:20.258,-168.0631,-147.1256
15:21:20.279,-163.5006,-141.5005
15:21:20.284,-156.9381,-133.3755
15:21:20.293,-151.4381,-124.938
15:21:20.302,-146.313,-117.0004
15:21:20.317,-140.938,-110.6254
15:21:20.318,-136.563,-103.6254
15:21:20.334,-134.2505,-99.5004
15:21:20.338,-131.7505,-95.5004
15:21:20.350,-129.5005,-91.6254
15:21:20.359,-127.438,-88.0628
15:21:20.368,-124.1255,-85.0003
15:21:20.380,-122.688,-82.5003
15:21:20.388,-121.563,-80.4378
15:21:20.399,-119.188,-78.3128
15:21:20.409,-116.5629,-74.8128
15:21:20.419,-114.4379,-73.6878
15:21:20.429,-111.6254,-71.1253
15:21:20.439,-110.3129,-68.3128
15:21:20.448,-107.6254,-67.7503
15:21:20.459,-105.9379,-66.3753
15:21:20.468,-104.5004,-63.9377
15:21:20.480,-102.5004,-62.8127
15:21:20.489,-99.1879,-59.5002
15:21:20.519,-96.0629,-58.0002
15:21:20.521,-94.0004,-55.3127
15:21:20.526,-88.2503,-50.1252
15:21:20.530,-84.8753,-46.7502
15:21:20.543,-81.5003,-45.2502
15:21:20.550,-73.5628,-38.5626
15:21:20.558,-63.4377,-31.0001
15:21:20.568,-48.1877,-19.1876
15:21:20.589,-37.1876,-9.4375
15:21:20.590,-29.3126,-3.1875
15:21:20.627,-26.9376,-3
15:21:20.629,-24.1251,-1.4375
15:21:20.632,-23.3751,-1.625
15:21:20.634,-19.6251,-0.3125
15:21:20.741,-15.6251,3.125
15:21:20.741,-11.875,6.375
15:21:20.758,-8.625,6.1875
15:21:20.763,-7.9375,7.125
15:21:20.763,-10.75,3.9375
15:21:20.763,-14.9376,-1.5625
15:21:20.770,-16.0626,-3.0625
15:21:20.779,-17.5626,-5.6875
15:21:20.788,-18.5626,-7.75
15:21:20.799,-18.9376,-9.5625
15:21:20.809,-19.6251,-10.875
15:21:20.819,-19.0001,-13.125
15:21:20.829,-18.5001,-13.1251
15:21:20.839,-18.7501,-14.1876
15:21:20.848,-20.3751,-15.9376
15:21:20.861,-21.8751,-18.4376
15:21:20.868,-24.6251,-22.9376
15:21:20.879,-28.4376,-26.1251
15:21:20.888,-29.6251,-29.1251
15:21:20.898,-30.1251,-31.0001
15:21:20.910,-31.6251,-32.7501
15:21:20.920,-30.7501,-33.6251
15:21:20.928,-85.8753,-99.5004
15:21:20.941,-94.8129,-111.6879
15:21:20.950,-123.063,-137.313
15:21:20.960,-135.6255,-148.6881
15:21:20.968,-137.313,-145.688
15:21:20.979,-137.3755,-143.813
15:21:20.993,-143.938,-145.313
15:21:20.999,-150.1256,-148.7506
15:21:21.010,-157.0006,-150.4381
15:21:21.023,-159.9381,-149.9381
15:21:21.028,-153.8131,-141.688
15:21:21.039,-132.313,-120.688
15:21:21.050,-113.2504,-97.6879
15:21:21.058,-94.0629,-76.8753
15:21:21.070,-76.1878,-54.6877
15:21:21.081,-59.1252,-36.1251
15:21:21.088,-47.0002,-22.8126
15:21:21.103,-38.8751,-13.8751
15:21:21.110,-34.6876,-7.5625
15:21:21.119,-27.9376,-2.8125
15:21:21.130,-18.6876,4.4375
15:21:21.140,-6.5625,15.1251
15:21:21.149,8.3125,25.4376
15:21:21.159,21.5001,35.1251
15:21:21.170,29.0626,41.1252
15:21:21.178,31.7501,38.1251
15:21:21.190,33.1251,35.6251
15:21:21.200,33.0001,34.1876
15:21:21.208,30.1876,30.0001
15:21:21.218,24.6876,22.1251
15:21:21.229,18.1876,16.6251
15:21:21.240,16.5001,12.375
15:21:21.249,15.5626,9.8125
15:21:21.260,14.0001,8.375
15:21:21.270,13,5.9375
15:21:21.280,11.4375,4.0625
15:21:21.293,11.6875,4.5625
15:21:21.298,14.5626,6.75
15:21:21.309,16.8126,7.5
15:21:21.320,14.3126,5
15:21:21.330,9.1875,-0.875
15:21:21.339,2.125,-9.25
15:21:21.349,-6.8125,-18.1876
15:21:21.359,-19.8751,-28.5626
15:21:21.392,-39.0627,-44.0002
15:21:21.396,-53.7502,-54.2502
15:21:21.396,-64.8127,-61.6252
15:21:21.422,-73.3753,-65.6252
15:21:21.423,-77.9378,-65.6878
15:21:21.426,-89.7503,-71.5628
15:21:21.431,-95.0629,-71.2503
15:21:21.440,-86.5628,-63.2502
15:21:21.466,-66.6878,-43.1252
15:21:21.468,-44.5627,-22.6876
15:21:21.471,-31.3751,-9.0625
15:21:21.507,-21.2501,-0.625
15:21:21.508,-10.8125,7.5
15:21:21.511,-1.25,12.375
15:21:21.513,9.6875,19.3126
15:21:21.521,25.1876,27.0626
15:21:21.552,40.0627,35.1876
15:21:21.555,51.2502,41.0627
15:21:21.557,57.2502,41.9377
15:21:21.563,59.1252,38.8751
15:21:21.570,58.0002,34.1251
15:21:21.580,54.4377,28.6876
15:21:21.601,46.1877,20.0626
15:21:21.603,35.6251,9.0625
15:21:21.612,26.6251,0.5
15:21:21.618,19.3126,-6.0625
15:21:21.634,9.4375,-14.0001
15:21:21.644,1.0625,-22.1251
15:21:21.648,-13.125,-34.9376
15:21:21.658,-29.8126,-47.6877
15:21:21.668,-40.3127,-59.1877
15:21:21.679,-47.8127,-64.8127
15:21:21.689,-51.1877,-66.9378
15:21:21.700,-52.9377,-67.2503
15:21:21.708,-56.1252,-67.3128
15:21:21.718,-62.8752,-70.2503
15:21:21.730,-70.5628,-73.2503
15:21:21.740,-77.0628,-77.6253
15:21:21.750,-84.4378,-81.7503
15:21:21.760,-83.5628,-78.3128
15:21:21.773,-77.5003,-72.4378
15:21:21.798,-66.7503,-59.8752
15:21:21.801,-53.4377,-46.0627
15:21:21.805,-40.9377,-31.5001
15:21:21.810,-31.6251,-19.0001
15:21:21.821,-27.8126,-11.75
15:21:21.828,-26.3126,-7.5625
15:21:21.841,-23.4376,-2.625
15:21:21.850,-19.7501,4.125
15:21:21.859,-12.25,13.1876
15:21:21.874,-4.375,21.6251
15:21:21.878,4.25,30.0626
15:21:21.890,13.5001,37.2501
15:21:21.900,20.5001,41.8752
15:21:21.908,30.6251,50.5627
15:21:21.920,45.5002,58.4377
15:21:21.930,57.6252,67.8753
15:21:21.940,64.3752,71.1878
15:21:21.948,64.6252,70.2503
15:21:21.960,63.5627,65.5628
15:21:21.972,62.1877,63.4377
15:21:21.980,62.7502,59.6877
15:21:21.990,64.5002,58.8752
15:21:21.999,61.0627,54.8752
15:21:22.020,54.6877,48.2502
15:21:22.022,49.6252,42.9377
15:21:22.032,46.4377,36.6876
15:21:22.043,44.6252,32.7501
15:21:22.059,36.6876,24.0626
15:21:22.061,16.9376,6.375
15:21:22.093,-6.25,-13.125
15:21:22.095,-25.8751,-27.0001
15:21:22.097,-33.5626,-31.5001
15:21:22.099,-33.8126,-28.2501
15:21:22.137,-32.9376,-22.8751
15:21:22.140,-34.3126,-19.6876
15:21:22.140,-42.2502,-20.9376
15:21:22.149,-48.2502,-22.9376
15:21:22.151,-52.3752,-23.0001
15:21:22.191,-57.0002,-25.7501
15:21:22.194,-60.3127,-27.8126
15:21:22.198,-58.6877,-26.8126
15:21:22.198,-53.4377,-21.3751
15:21:22.201,-47.5002,-16.1876
15:21:22.233,-39.4377,-9.0625
15:21:22.234,-31.0626,-2.9375
15:21:22.237,-22.0626,5.9375
15:21:22.242,-10,14.0001
15:21:22.250,-0.125,21.7501
15:21:22.259,9.9375,25.5001
15:21:22.270,21.3751,31.5001
15:21:22.279,29.6876,36.5001
15:21:22.291,38.4376,38.6251
15:21:22.298,46.5002,41.5627
15:21:22.310,48.8752,38.4376
15:21:22.320,45.9377,30.9376
15:21:22.330,41.5627,23.5001
15:21:22.340,37.3751,15.8751
15:21:22.350,36.1251,11.125
15:21:22.359,32.9376,5.375
15:21:22.371,25.6876,-2.4375
15:21:22.379,20.4376,-9.375
15:21:22.390,16.8126,-12.9375
15:21:22.400,13.2501,-18.8126
15:21:22.410,8.8125,-22.8751
15:21:22.420,6.25,-26.5626
15:21:22.432,-1.6875,-32.6251
15:21:22.439,-8.6875,-37.6251
15:21:22.449,-16.2501,-41.6252
15:21:22.460,-26.8751,-51.9377
15:21:22.470,-44.2502,-66.8128
15:21:22.480,-64.9377,-84.1253
15:21:22.490,-84.0003,-96.3754
15:21:22.499,-96.9379,-106.3754
15:21:22.510,-106.8754,-111.1254
15:21:22.520,-119.3755,-117.3754
15:21:22.530,-124.1255,-116.5629
15:21:22.540,-126.688,-113.7504
15:21:22.550,-126.1255,-106.2504
15:21:22.560,-117.0629,-93.1879
15:21:22.570,-110.8129,-80.3128
15:21:22.580,-111.3129,-74.0628
15:21:22.590,-104.8129,-66.1878
15:21:22.600,-90.3128,-48.0002
15:21:22.611,-75.8753,-32.8126
15:21:22.620,-67.6253,-21.0626
15:21:22.630,-62.6252,-14.0001
15:21:22.639,-52.1877,-4.8125
15:21:22.650,-31.1251,13.2501
15:21:22.660,-6.25,33.8126
15:21:22.669,18.8126,53.9377
15:21:22.679,40.6252,68.5003
15:21:22.691,63.1252,82.9378
15:21:22.700,81.4378,92.8754
15:21:22.710,92.3754,95.5629
15:21:22.720,91.8129,89.5003
15:21:22.734,86.8128,77.6253
15:21:22.740,81.9378,68.6253
15:21:22.753,74.4378,58.3127
15:21:22.788,62.7502,46.5627
15:21:22.791,50.7502,33.4376
15:21:22.793,38.6876,21.5626
15:21:22.796,26.1251,11.8125
15:21:22.800,18.3751,4.4375
15:21:22.827,14.0001,0.5625
15:21:22.831,9.25,-2.125
15:21:22.832,6.75,-2.9375
15:21:22.862,4.9375,-3.625
15:21:22.865,1.75,-3.3125
15:21:22.867,-0.9375,-5.375
15:21:22.870,-8.0625,-8.75
15:21:22.900,-18.5001,-15.0626
15:21:22.902,-30.1251,-23.0001
15:21:22.905,-44.7502,-31.6876
15:21:22.934,-62.2502,-43.6877
15:21:22.948,-79.0628,-53.8752
15:21:22.951,-86.8753,-58.6877
15:21:22.966,-92.2504,-60.0002
15:21:22.981,-90.6254,-57.8127
15:21:22.984,-83.7503,-50.3127
15:21:22.987,-77.0003,-44.7502
15:21:22.987,-73.7503,-39.5627
15:21:22.995,-75.1878,-40.2502
15:21:23.005,-75.9378,-40.5627
15:21:23.015,-75.2503,-40.1877
15:21:23.025,-76.5628,-40.9377
15:21:23.034,-76.1878,-41.8752
15:21:23.045,-66.6253,-35.5001
15:21:23.055,-36.2501,-13.1875
15:21:23.080,-4.0625,12.375
15:21:23.082,22.2501,30.0626
15:21:23.086,38.3126,41.7502
15:21:23.095,46.3127,43.4377
15:21:23.105,49.8752,40.3127
15:21:23.115,53.7502,39.5002
15:21:23.125,56.5002,36.5001
15:21:23.135,58.7502,33.1251
15:21:23.145,61.1252,29.2501
15:21:23.155,63.8752,26.3751
15:21:23.165,64.7502,23.5001
15:21:23.174,63.0002,17.1251
15:21:23.185,57.5002,11.25
15:21:23.196,53.4377,1.4375
15:21:23.205,47.7502,-4.375
15:21:23.215,43.3127,-12
15:21:23.225,38.6876,-17.3126
15:21:23.235,34.2501,-22.5001
15:21:23.245,30.0001,-28.0001
15:21:23.254,27.2501,-31.1876
15:21:23.265,24.0626,-34.0626
15:21:23.275,18.0001,-38.1876
15:21:23.285,7.1875,-47.5002
15:21:23.295,-11.375,-62.0627
15:21:23.307,-32.0626,-77.4378
15:21:23.314,-54.3127,-93.9379
15:21:23.325,-74.8753,-106.6879
