timestamp,Red,IR
10:57:41.017,-18.6876,-23.6876
10:57:41.021,-6.25,0.4375
10:57:41.025,-8.3125,-4.3125
10:57:41.028,-11.125,-8.0625
10:57:41.033,-21.2501,-28.6876
10:57:41.035,-23.8751,-34.1251
10:57:41.043,-26.3126,-38.7501
10:57:41.053,-30.1251,-45.7502
10:57:41.065,-33.5626,-52.8127
10:57:41.073,-35.7501,-58.8127
10:57:41.083,-38.0001,-63.0627
10:57:41.093,-39.3752,-67.8128
10:57:41.104,-41.4377,-72.3753
10:57:41.115,-44.3752,-77.8128
10:57:41.124,-46.0002,-83.0003
10:57:41.134,-47.8752,-85.8128
10:57:41.143,-49.7502,-91.3129
10:57:41.154,-49.8127,-94.4379
10:57:41.164,-52.4377,-96.9379
10:57:41.174,-53.0002,-101.3129
10:57:41.184,-54.3127,-104.0629
10:57:41.198,-55.0627,-106.5629
10:57:41.206,-55.9377,-108.8754
10:57:41.213,-54.4377,-108.1879
10:57:41.224,-50.6877,-102.3754
10:57:41.234,-44.5627,-92.8129
10:57:41.244,-34.3126,-76.6253
10:57:41.253,-24.9376,-58.0002
10:57:41.263,-13.8751,-38.9376
10:57:41.272,-3.3125,-16.2501
10:57:41.284,7.375,4.125
10:57:41.294,17.6251,23.0626
10:57:41.304,24.3751,40.3127
10:57:41.313,31.3126,53.8127
10:57:41.323,37.5001,66.0628
10:57:41.346,40.1877,76.5003
10:57:41.348,43.9377,82.5003
10:57:41.365,46.5627,88.7503
10:57:41.367,48.0627,93.2504
10:57:41.375,48.7502,95.3754
10:57:41.383,48.8752,97.6879
10:57:41.394,49.1877,98.8754
10:57:41.403,49.0627,97.6254
10:57:41.414,47.2502,98.2504
10:57:41.424,46.5627,95.7504
10:57:41.434,45.3752,93.8129
10:57:41.444,42.8127,90.5004
10:57:41.455,41.1252,86.7503
10:57:41.463,38.3751,81.7503
10:57:41.473,34.8126,76.6253
10:57:41.484,31.6251,71.3753
10:57:41.492,28.3126,65.3753
10:57:41.504,26.4376,59.8127
10:57:41.512,24.1876,56.0627
10:57:41.535,21.9376,52.0627
10:57:41.538,19.8126,49.5627
10:57:41.565,18.6251,45.3752
10:57:41.568,18.0001,43.7502
10:57:41.570,17.0626,41.1877
10:57:41.574,14.8126,38.6251
10:57:41.584,13.1876,35.3126
10:57:41.619,11.5,32.8751
10:57:41.621,10.5,30.2501
10:57:41.623,8.3125,26.2501
10:57:41.626,6.0625,22.5001
10:57:41.667,4.125,18.1251
10:57:41.669,0.625,13.7501
10:57:41.672,-0.875,8.125
10:57:41.674,-4.4375,3.1875
10:57:41.682,-7.0625,-2.8125
10:57:41.683,-10.5625,-9
10:57:41.707,-14.1251,-14.0626
10:57:41.711,-16.3751,-20.1251
10:57:41.715,-19.5001,-25.4376
10:57:41.726,-22.1876,-32.0626
10:57:41.733,-25.1251,-36.5001
10:57:41.746,-27.8126,-42.5002
10:57:41.753,-30.6876,-48.1877
10:57:41.762,-33.2501,-54.4377
10:57:41.775,-36.5626,-60.6877
10:57:41.788,-39.2502,-65.8753
10:57:41.794,-41.8127,-70.5003
10:57:41.803,-43.8127,-76.0628
10:57:41.816,-46.5627,-80.3753
10:57:41.823,-48.2502,-86.9378
10:57:41.833,-51.1877,-89.0003
10:57:41.844,-52.7502,-94.9379
10:57:41.853,-54.5627,-99.6254
10:57:41.863,-55.9377,-103.5004
10:57:41.873,-58.2502,-106.2504
10:57:41.882,-58.8752,-110.1254
10:57:41.894,-57.5627,-110.0004
10:57:41.903,-56.0002,-106.6254
10:57:41.914,-49.8752,-98.9379
10:57:41.923,-41.6252,-84.4378
10:57:41.934,-32.6876,-66.5628
10:57:41.942,-21.8126,-47.8127
10:57:41.953,-9.8125,-25.3126
10:57:41.964,-0.5625,-5
10:57:41.973,9.25,13.1876
10:57:41.983,17.9376,31.4376
10:57:41.993,24.3126,47.0627
10:57:42.003,30.2501,58.2502
10:57:42.032,34.3126,69.0003
10:57:42.033,37.7501,76.8128
10:57:42.036,40.7502,83.3128
10:57:42.054,42.3127,88.7503
10:57:42.057,43.2502,90.6879
10:57:42.073,44.3752,93.1254
10:57:42.074,43.7502,95.6254
10:57:42.085,44.0627,94.9379
10:57:42.094,43.5627,94.6879
10:57:42.104,43.0627,95.2504
10:57:42.114,41.4377,94.0004
10:57:42.123,40.1877,89.7503
10:57:42.134,37.9376,87.0628
10:57:42.143,35.1251,82.3128
10:57:42.154,31.9376,77.2503
10:57:42.164,29.3126,70.7503
10:57:42.174,25.3751,65.7503
10:57:42.184,22.3751,59.1252
10:57:42.193,19.5001,54.1877
10:57:42.204,18.0001,50.3127
10:57:42.215,15.6876,46.1252
10:57:42.223,14.9376,44.0002
10:57:42.234,13.6251,41.7502
10:57:42.243,12.3125,39.7502
10:57:42.254,11.8125,37.5626
10:57:42.264,9.9375,35.5626
10:57:42.295,9.8125,32.5626
10:57:42.297,7.875,30.3751
10:57:42.298,6.375,26.9376
10:57:42.305,3.875,24.1876
10:57:42.313,1.5625,20.1876
10:57:42.347,-0.125,14.8751
10:57:42.349,-2.125,10.5625
10:57:42.351,-5.4375,6.4375
10:57:42.354,-7.25,1.375
10:57:42.387,-10.9375,-3.375
10:57:42.396,-12.6875,-9
10:57:42.396,-15.4376,-14.4376
10:57:42.400,-18.0001,-19.5626
10:57:42.403,-20.7501,-22.6251
10:57:42.438,-22.3751,-28.7501
10:57:42.438,-24.8751,-33.7501
10:57:42.441,-27.5001,-38.6251
10:57:42.446,-29.5001,-42.1877
10:57:42.456,-32.1876,-47.8127
10:57:42.463,-33.5001,-53.1252
10:57:42.474,-36.9376,-57.9377
10:57:42.484,-38.1876,-62.0627
10:57:42.494,-40.5627,-66.6253
10:57:42.504,-42.6877,-69.0003
10:57:42.513,-44.1252,-73.8128
10:57:42.525,-45.7502,-78.7503
10:57:42.536,-47.6877,-81.1253
10:57:42.543,-49.1252,-85.8753
10:57:42.554,-50.4377,-88.0628
10:57:42.563,-51.5627,-90.7503
10:57:42.574,-51.1877,-90.8754
10:57:42.583,-48.6252,-88.8753
10:57:42.593,-43.3752,-80.3753
10:57:42.604,-36.3751,-67.0628
10:57:42.615,-27.3126,-51.7502
10:57:42.624,-17.8751,-31.6876
10:57:42.641,-7.9375,-14.0001
10:57:42.647,1.5625,4.8125
10:57:42.663,9.5625,23.1251
10:57:42.665,16.7501,37.5626
10:57:42.674,23.2501,50.2502
10:57:42.684,27.4376,61.3127
10:57:42.695,31.5626,69.0628
10:57:42.704,34.1251,76.8753
10:57:42.714,36.3751,79.9378
10:57:42.723,37.0626,83.0628
10:57:42.734,39.5627,85.5003
10:57:42.744,36.4376,86.1253
10:57:42.753,36.7501,85.4378
10:57:42.764,36.2501,85.7503
10:57:42.775,34.6876,83.2503
10:57:42.783,34.0626,82.2503
10:57:42.793,31.0626,80.0628
10:57:42.803,29.3126,76.3753
10:57:42.814,26.2501,70.5003
10:57:42.827,23.1876,65.0627
10:57:42.833,20.6251,59.4377
10:57:42.844,16.5001,54.1252
10:57:42.855,14.7501,49.5627
10:57:42.864,12.125,44.3127
10:57:42.874,10.6875,40.8127
10:57:42.884,8.3125,37.2501
10:57:42.895,7.6875,35.6251
10:57:42.903,6.75,34.0001
10:57:42.914,6.3125,32.4376
10:57:42.923,5.625,30.4376
10:57:42.933,4.4375,29.8751
10:57:42.943,3.4375,27.2501
10:57:42.953,2.3125,24.9376
10:57:42.965,1.25,22.6876
10:57:42.974,0.0625,18.8126
10:57:42.983,-2.4375,15.6251
10:57:42.993,-4.5,11.9375
10:57:43.009,-7.125,6.375
10:57:43.018,-9.3125,1.8125
10:57:43.030,-11.5625,-2.5
10:57:43.039,-14.4376,-8.5625
10:57:43.068,-17.6251,-13.1876
10:57:43.070,-19.8126,-19.5001
10:57:43.072,-22.7501,-24.1251
10:57:43.080,-24.9376,-29.7501
10:57:43.114,-27.3126,-34.6876
10:57:43.116,-30.4376,-40.1877
10:57:43.119,-32.3126,-44.6877
10:57:43.123,-34.8126,-50.3127
10:57:43.140,-37.5626,-55.1877
10:57:43.143,-39.5002,-60.5627
10:57:43.167,-42.2502,-65.3753
10:57:43.171,-44.1252,-70.2503
10:57:43.173,-48.0627,-76.7503
10:57:43.204,-49.7502,-81.7503
10:57:43.206,-51.4377,-86.8753
10:57:43.209,-51.7502,-88.9378
10:57:43.214,-55.1252,-94.3754
10:57:43.218,-56.6877,-97.4379
10:57:43.244,-57.8752,-101.7504
10:57:43.247,-59.2502,-104.7504
10:57:43.250,-59.3752,-104.1254
10:57:43.259,-57.3752,-103.0004
10:57:43.269,-52.4377,-96.5004
10:57:43.280,-44.3752,-83.1253
10:57:43.292,-36.0626,-66.7503
10:57:43.300,-24.8751,-47.3127
10:57:43.309,-14.2501,-27.0626
10:57:43.319,-3.5,-5.75
10:57:43.329,5.5,13.8751
10:57:43.351,14.3751,31.8126
10:57:43.353,22.8126,48.8752
10:57:43.367,28.2501,63.5002
10:57:43.370,34.3126,73.9378
10:57:43.379,38.9376,84.1253
10:57:43.389,41.1252,92.1254
10:57:43.398,43.6877,97.2504
10:57:43.409,45.2502,101.4379
10:57:43.421,46.8127,104.9379
10:57:43.429,47.1252,107.3129
10:57:43.441,47.4377,108.6879
10:57:43.448,48.3127,110.3754
10:57:43.458,47.3127,111.8129
10:57:43.469,47.5627,110.8129
10:57:43.479,46.1877,110.7504
10:57:43.488,44.6877,107.4379
10:57:43.498,42.7502,103.8129
10:57:43.509,39.6877,99.5004
10:57:43.519,38.0001,95.4379
10:57:43.529,34.4376,89.5628
10:57:43.540,31.1251,84.9378
10:57:43.548,28.5001,79.5003
10:57:43.559,25.9376,74.0628
10:57:43.569,24.8126,71.4378
10:57:43.579,22.9376,67.0628
10:57:43.589,21.4376,64.8127
10:57:43.598,21.1251,62.3752
10:57:43.609,18.9376,60.2502
10:57:43.619,18.1251,57.8752
10:57:43.629,17.3751,54.5627
10:57:43.639,14.6876,52.8127
10:57:43.649,13.5001,49.4377
10:57:43.659,11.25,45.4377
10:57:43.669,10.0625,41.5627
10:57:43.680,7.1875,36.2501
10:57:43.690,4,31.5001
10:57:43.698,1.625,25.9376
10:57:43.709,-1.4375,21.3751
10:57:43.733,-2.75,16.1251
10:57:43.734,-6.8125,10.75
10:57:43.739,-9.25,5.0625
10:57:43.768,-12.1875,-1.125
10:57:43.771,-15.0001,-6.8125
10:57:43.772,-17.5001,-12
10:57:43.782,-19.3126,-17.6251
10:57:43.811,-21.8751,-21.8751
10:57:43.814,-23.5001,-27.3751
10:57:43.816,-26.5626,-31.0001
10:57:43.825,-28.3751,-36.1251
10:57:43.833,-30.2501,-41.5627
10:57:43.838,-33.9376,-46.8127
10:57:43.874,-36.0626,-51.4377
10:57:43.878,-38.3751,-57.1877
10:57:43.879,-39.9377,-61.1877
10:57:43.885,-42.3127,-66.5003
10:57:43.892,-44.7502,-71.2503
10:57:43.899,-46.4377,-75.5628
10:57:43.909,-49.0627,-78.8753
10:57:43.919,-49.8127,-83.1253
10:57:43.929,-51.5627,-86.8753
10:57:43.946,-53.0627,-90.3128
10:57:43.960,-52.6877,-90.9379
10:57:43.963,-50.8127,-88.8753
10:57:43.979,-45.9377,-82.3753
10:57:43.981,-39.2502,-70.1878
10:57:43.988,-30.2501,-55.2502
10:57:43.998,-19.7501,-35.3126
10:57:44.008,-9.625,-14.5626
10:57:44.019,0.9375,6
10:57:44.029,11.4375,26.1251
10:57:44.045,19.2501,45.5002
10:57:44.050,27.4376,61.4377
10:57:44.059,33.8126,76.1253
10:57:44.069,39.0626,88.6878
10:57:44.079,43.1252,97.0004
10:57:44.090,46.2502,105.1254
10:57:44.100,48.5627,110.9379
10:57:44.109,49.6877,115.8129
10:57:44.119,51.3127,118.3755
10:57:44.129,51.6252,120.8755
10:57:44.139,51.7502,121.6255
10:57:44.149,51.7502,123.5005
10:57:44.159,51.5002,122.8755
10:57:44.169,51.0627,122.7505
10:57:44.178,49.9377,121.1255
10:57:44.189,48.7502,119.3755
10:57:44.199,47.3127,116.1254
10:57:44.210,44.3127,112.1879
10:57:44.218,41.5627,107.6254
10:57:44.229,39.1876,101.3129
10:57:44.238,36.6876,96.1879
10:57:44.248,34.5626,91.7504
10:57:44.259,32.4376,87.3128
10:57:44.270,30.2501,84.0003
10:57:44.278,30.1876,81.0628
10:57:44.289,28.7501,79.0628
10:57:44.299,28.4376,77.6253
10:57:44.309,27.6251,76.1878
10:57:44.320,26.0626,74.0628
10:57:44.329,25.6251,71.4378
10:57:44.340,24.5626,70.0628
10:57:44.350,23.3751,67.2503
10:57:44.359,22.4376,63.7502
10:57:44.368,20.8126,60.5002
10:57:44.378,19.0626,56.6877
10:57:44.389,16.3126,52.6252
10:57:44.399,14.2501,47.8127
10:57:44.420,11,41.8752
10:57:44.423,8.375,36.2501
10:57:44.455,5.9375,30.4376
10:57:44.456,2.4375,23.6876
10:57:44.459,0,18.2501
10:57:44.461,-2.5,12.25
10:57:44.469,-6.5,6.0625
10:57:44.513,-9.1875,0.5
10:57:44.519,-11.3125,-5.625
10:57:44.519,-15.0001,-10.9375
10:57:44.532,-17.6876,-17.8126
10:57:44.538,-20.6876,-22.9376
10:57:44.538,-22.8126,-27.6251
10:57:44.542,-25.2501,-33.5001
10:57:44.569,-27.5626,-37.5626
10:57:44.572,-30.6876,-43.8127
10:57:44.574,-32.4376,-49.1252
10:57:44.580,-34.1876,-54.2502
10:57:44.595,-37.5001,-58.7502
10:57:44.600,-39.2502,-62.9377
10:57:44.609,-41.6252,-67.8128
10:57:44.618,-43.4377,-73.1253
10:57:44.630,-45.3127,-77.0628
10:57:44.642,-47.1877,-81.8128
10:57:44.659,-49.0002,-85.1878
10:57:44.662,-50.3752,-89.1878
10:57:44.671,-50.5002,-90.7504
10:57:44.678,-50.3127,-91.8129
10:57:44.694,-46.6252,-86.5628
10:57:44.701,-40.8127,-77.6253
10:57:44.709,-31.7501,-62.8127
10:57:44.718,-22.1251,-44.0002
10:57:44.728,-10.8125,-24.0001
10:57:44.738,-0.625,-2
10:57:44.749,10.4375,17.5001
10:57:44.759,19.6876,38.8751
10:57:44.769,28.6251,55.8127
10:57:44.778,35.5001,71.4378
10:57:44.789,42.0002,83.0003
10:57:44.799,46.3127,94.6879
10:57:44.809,50.3127,103.0004
10:57:44.818,52.3127,109.0004
10:57:44.829,54.1252,114.0004
10:57:44.840,55.5002,116.1254
10:57:44.850,56.7502,120.063
10:57:44.859,57.3127,119.6255
10:57:44.869,56.9377,121.563
10:57:44.878,56.5627,122.313
10:57:44.889,56.1252,120.6255
10:57:44.900,55.6252,119.563
10:57:44.909,53.5627,117.5629
10:57:44.920,52.0002,114.5004
10:57:44.929,49.3127,109.6879
10:57:44.938,46.1877,104.9379
10:57:44.949,43.3752,98.6879
10:57:44.958,40.6252,93.8129
10:57:44.973,37.8751,88.8753
10:57:44.978,35.6876,83.6253
10:57:44.990,34.1251,79.9378
10:57:44.999,32.1876,76.0628
10:57:45.008,31.1876,73.1878
10:57:45.018,30.1251,70.7503
10:57:45.029,29.0626,68.0003
10:57:45.039,27.8751,66.3753
10:57:45.049,26.1251,64.3127
10:57:45.058,24.7501,61.3752
10:57:45.069,23.3751,57.6252
10:57:45.078,21.5626,54.0002
10:57:45.089,19.6251,49.5002
10:57:45.100,17.6251,45.2502
10:57:45.110,14.3751,40.4377
10:57:45.119,12.0625,36.2501
10:57:45.128,9.8125,29.5001
10:57:45.139,5.5625,24.3126
10:57:45.149,2.625,17.5001
10:57:45.179,-0.6875,11.6875
10:57:45.182,-2.8125,6.375
10:57:45.184,-6,-0.5625
10:57:45.191,-9.0625,-6.6875
10:57:45.221,-11.6875,-12.0625
10:57:45.224,-14.3751,-17.8126
10:57:45.227,-16.6251,-23.1876
10:57:45.232,-19.1876,-28.0001
10:57:45.310,-21.5001,-32.4376
10:57:45.310,-23.9376,-38.7501
10:57:45.315,-26.8751,-43.5002
10:57:45.316,-28.7501,-48.8127
10:57:45.316,-31.6876,-53.6877
10:57:45.333,-33.8126,-58.3127
10:57:45.335,-36.1876,-62.9377
10:57:45.347,-38.0626,-67.5003
10:57:45.355,-40.5002,-73.7503
10:57:45.364,-42.1877,-77.3753
10:57:45.374,-44.5627,-81.8753
10:57:45.385,-46.2502,-85.0628
10:57:45.393,-47.5627,-89.6253
10:57:45.404,-48.1252,-91.8754
10:57:45.415,-50.4377,-95.1254
10:57:45.423,-51.5002,-98.7504
10:57:45.434,-52.5627,-99.7504
10:57:45.444,-50.6877,-101.1254
10:57:45.455,-47.6877,-96.1254
10:57:45.464,-40.9377,-86.8753
10:57:45.474,-32.6876,-72.4378
10:57:45.484,15.3751,19.8126
10:57:45.495,24.6251,38.3751
10:57:45.503,32.7501,55.9377
10:57:45.514,38.5001,68.0628
10:57:45.523,44.6877,81.0628
10:57:45.534,48.1877,89.7503
10:57:45.544,51.1877,96.9379
10:57:45.555,53.2502,102.6879
10:57:45.563,54.9377,105.1254
10:57:45.575,54.1252,108.0629
10:57:45.613,54.2502,107.9379
10:57:45.614,54.4377,107.5629
10:57:45.616,52.9377,106.9379
10:57:45.622,52.1252,106.0004
10:57:45.629,50.6252,103.5629
10:57:45.640,48.6877,99.9379
10:57:45.648,45.5627,95.2504
10:57:45.658,42.3127,89.3128
10:57:45.669,38.6251,83.6878
10:57:45.678,34.0626,76.7503
10:57:45.689,30.8751,68.7503
10:57:45.698,26.6876,62.3752
10:57:45.710,23.8751,56.0002
10:57:45.724,20.6876,50.3752
10:57:45.730,18.0001,44.8127
10:57:45.739,16.1251,41.7502
10:57:45.749,13.2501,36.8751
10:57:45.759,12.125,34.8126
10:57:45.769,10.875,31.7501
10:57:45.778,9.5,27.6876
10:57:45.804,7.9375,25.3751
10:57:45.806,6.3125,20.3751
10:57:45.809,4.125,16.6876
10:57:45.820,1.875,12.0625
10:57:45.829,-1.1875,6.6875
10:57:45.839,-3.125,1.9375
10:57:45.849,-6.5625,-4
10:57:45.859,-9.5,-9.375
10:57:45.869,-12.5,-15.8751
10:57:45.878,-14.2501,-21.1876
10:57:45.888,-17.2501,-26.3126
10:57:45.899,-19.8751,-32.4376
10:57:45.909,-22.4376,-38.1251
10:57:45.919,-24.6251,-43.1877
10:57:45.950,-27.6251,-49.0002
10:57:45.951,-30.3751,-53.2502
10:57:45.954,-32.3751,-59.2502
10:57:45.960,-34.5001,-63.6877
10:57:45.971,-36.0626,-67.6878
10:57:46.003,-37.4376,-71.4378
10:57:46.006,-40.0627,-75.1878
10:57:46.033,-41.4377,-79.6253
10:57:46.074,-43.2502,-82.3753
10:57:46.077,-45.5627,-87.0003
10:57:46.077,-47.3127,-91.6254
10:57:46.091,-49.9377,-94.8754
10:57:46.094,-51.4377,-99.7504
10:57:46.097,-53.2502,-103.9379
10:57:46.097,-55.3752,-106.9379
10:57:46.097,-56.5002,-111.0629
10:57:46.108,-58.6877,-114.3754
10:57:46.111,-60.0627,-118.188
10:57:46.122,-61.5002,-120.938
10:57:46.130,-62.4377,-123.8755
10:57:46.138,-61.6877,-123.5005
10:57:46.149,-59.3752,-121.938
10:57:46.158,-53.9377,-113.6879
10:57:46.168,-46.7502,-102.0004
10:57:46.179,-36.5001,-83.3128
10:57:46.189,-24.8126,-62.5627
10:57:46.199,-14.2501,-40.6252
10:57:46.208,3.375,-7.5625
10:57:46.219,12.875,14.3751
10:57:46.229,22.0001,32.4376
10:57:46.239,29.8751,49.3752
10:57:46.248,35.3126,62.7502
10:57:46.259,43.5002,78.2503
10:57:46.269,45.6877,87.2503
10:57:46.279,47.5002,91.5629
10:57:46.289,49.7502,95.9379
10:57:46.298,50.2502,98.7504
10:57:46.309,50.1252,100.1254
10:57:46.318,50.3752,101.3129
10:57:46.329,50.2502,101.0004
10:57:46.339,49.5002,101.9379
10:57:46.351,48.8752,99.6254
10:57:46.360,47.7502,98.1879
10:57:46.369,45.3752,96.4379
10:57:46.378,43.2502,90.6879
10:57:46.389,40.0002,85.9378
10:57:46.399,37.5001,81.0003
10:57:46.408,34.3751,74.6253
10:57:46.419,31.3751,70.0003
10:57:46.430,28.7501,62.6252
10:57:46.440,26.4376,59.3127
10:57:46.450,24.8126,54.9377
10:57:46.460,23.4376,52.2502
10:57:46.469,21.7501,49.5002
10:57:46.478,21.3126,47.0627
10:57:46.488,19.8126,45.4377
10:57:46.498,19.1876,43.1252
10:57:46.509,17.5001,41.3752
10:57:46.519,16.5626,37.5001
10:57:46.530,14.9376,34.8751
10:57:46.539,12.625,30.5001
10:57:46.549,10.0625,27.2501
10:57:46.558,7.375,22.2501
10:57:46.575,4.8125,16.8126
10:57:46.589,2.4375,11.25
10:57:46.593,-0.4375,5.3125
10:57:46.607,-3.875,0
10:57:46.611,-7.6875,-6.4375
10:57:46.618,-10.0625,-13.2501
10:57:46.628,-13.9376,-18.6876
10:57:46.639,-17.1876,-25.8751
10:57:46.649,-20.4376,-32.3126
10:57:46.659,-23.8751,-39.1251
10:57:46.691,-26.1251,-45.1877
10:57:46.693,-28.4376,-50.4377
10:57:46.695,-31.7501,-56.3127
10:57:46.701,-33.8751,-60.7502
10:57:46.730,-35.8751,-65.7502
10:57:46.733,-38.6876,-70.0628
10:57:46.735,-40.7502,-74.3128
10:57:46.740,-42.6252,-79.9378
10:57:46.771,-45.3127,-82.6878
10:57:46.774,-46.7502,-89.0628
10:57:46.774,-49.1877,-91.5004
10:57:46.779,-51.1252,-97.6879
10:57:46.792,-52.6252,-102.1254
10:57:46.830,-55.0002,-105.4379
10:57:46.831,-57.1252,-110.3129
10:57:46.833,-58.5002,-114.3129
10:57:46.838,-60.6877,-117.0629
10:57:46.843,-61.8127,-121.6255
10:57:46.852,-62.9377,-122.563
10:57:46.860,-63.6877,-126.6255
10:57:46.873,-62.0627,-125.188
10:57:46.879,-57.7502,-119.438
10:57:46.889,-51.2502,-109.2504
10:57:46.899,-41.5002,-92.8754
10:57:46.909,-30.8751,-71.5628
10:57:46.918,-18.8126,-50.0627
10:57:46.929,-7.6875,-26.8126
10:57:46.939,4.0625,-5.9375
10:57:46.949,14.4376,14.6251
10:57:46.959,22.1251,33.7501
10:57:46.969,30.3751,48.0627
10:57:46.979,35.4376,61.7502
10:57:46.989,40.5627,71.3128
10:57:46.999,43.5627,79.8128
10:57:47.009,46.3752,85.5628
10:57:47.018,47.5627,91.3754
10:57:47.029,49.2502,92.4379
10:57:47.039,49.5627,95.0629
10:57:47.049,48.9377,96.4379
10:57:47.084,49.5002,95.6254
10:57:47.086,48.6252,97.3129
10:57:47.089,48.0002,95.5004
10:57:47.095,47.6877,94.5629
10:57:47.104,46.0002,92.3754
10:57:47.113,43.9377,89.0003
10:57:47.124,42.3752,84.3128
10:57:47.133,38.7501,79.4378
10:57:47.144,36.5626,73.5628
10:57:47.155,32.8751,68.3128
10:57:47.163,29.9376,63.0627
10:57:47.174,28.1251,58.6877
10:57:47.184,26.1876,55.3127
10:57:47.193,25.0626,51.4377
10:57:47.203,24.1251,50.6252
10:57:47.214,22.8751,47.6877
10:57:47.225,21.9376,46.8752
10:57:47.233,21.1876,44.5002
10:57:47.245,20.0001,41.0002
10:57:47.256,17.7501,38.6251
10:57:47.264,16.6251,35.1251
10:57:47.273,13.6876,32.0001
10:57:47.283,12.375,27.8751
10:57:47.294,9.75,22.8751
10:57:47.304,7.1875,18.6876
10:57:47.314,4.625,12.9375
10:57:47.323,1.875,7.8125
10:57:47.334,-0.6875,1.625
10:57:47.366,-3.3125,-4.5625
10:57:47.370,-7.0625,-10.5625
10:57:47.404,-9.875,-16.3126
10:57:47.405,-12.9375,-23.1251
10:57:47.437,-16.4376,-28.7501
10:57:47.444,-18.0626,-33.7501
10:57:47.444,-22.4376,-39.2502
10:57:47.444,-24.7501,-44.7502
10:57:47.449,-27.2501,-49.5002
10:57:47.475,-28.8751,-55.1252
10:57:47.478,-30.8751,-58.8127
10:57:47.482,-33.2501,-63.8752
10:57:47.511,-35.3126,-67.6878
10:57:47.514,-37.3751,-72.1878
10:57:47.516,-39.3751,-76.5003
10:57:47.519,-41.1877,-81.5003
10:57:47.528,-43.4377,-84.3753
10:57:47.540,-45.5002,-89.3753
10:57:47.548,-47.0002,-92.1879
10:57:47.560,-48.8127,-97.6254
10:57:47.570,-50.0002,-99.0629
10:57:47.580,-51.6877,-103.8129
10:57:47.590,-53.5627,-106.2504
10:57:47.599,-54.3752,-110.0629
10:57:47.610,-52.6877,-112.4379
10:57:47.623,-47.2502,-100.8129
10:57:47.630,-37.6876,-86.8753
10:57:47.639,-27.5001,-66.5628
10:57:47.650,-16.7501,-47.0627
10:57:47.658,-5,-24.9376
10:57:47.668,4.9375,-3.875
10:57:47.678,14.1876,13.9376
10:57:47.689,22.1251,31.1876
10:57:47.700,28.0001,46.3127
10:57:47.708,33.8751,56.5002
10:57:47.719,37.5001,66.3128
10:57:47.728,40.3127,71.9378
10:57:47.739,42.5002,77.0628
10:57:47.749,42.5002,79.3128
10:57:47.759,43.0002,80.9378
10:57:47.768,42.1877,81.3753
10:57:47.779,41.6252,80.3753
10:57:47.790,40.8752,79.5628
10:57:47.798,40.4377,77.4378
10:57:47.809,37.7501,75.9378
10:57:47.820,36.1251,72.1878
10:57:47.829,33.8126,68.1253
10:57:47.841,30.4376,63.0002
10:57:47.849,27.9376,56.7502
10:57:47.858,24.6876,50.2502
10:57:47.870,21.7501,45.6252
10:57:47.884,18.4376,38.7501
10:57:47.893,16.0626,34.3126
10:57:47.899,14.6876,29.8751
10:57:47.918,13.5001,27.5626
10:57:47.931,12.5,24.5001
10:57:47.932,12.3125,23.5626
10:57:47.940,12.1875,22.6251
10:57:47.950,10.75,21.2501
10:57:47.960,10.4375,19.8751
10:57:47.968,9.75,18.1876
10:57:47.979,7.5,15.8751
10:57:47.989,6.1875,12.0625
10:57:47.999,4.0625,9.5
10:57:48.010,2.25,5.5
10:57:48.018,0.5,1.125
10:57:48.030,-2.4375,-3
10:57:48.039,-5,-8.625
10:57:48.048,-7.3125,-13.3751
10:57:48.059,-10.875,-19.3126
10:57:48.069,-13.1251,-25.1251
10:57:48.079,-15.9376,-30.8126
10:57:48.088,-19.2501,-37.3126
10:57:48.130,-22.6251,-43.3752
10:57:48.131,-25.0626,-47.7502
10:57:48.134,-28.1251,-54.1877
10:57:48.136,-30.3126,-60.2502
10:57:48.140,-33.9376,-66.1253
10:57:48.170,-36.6251,-69.9378
10:57:48.173,-38.5626,-75.4378
10:57:48.175,-41.3127,-80.8753
10:57:48.204,-43.7502,-84.4378
10:57:48.205,-45.2502,-89.0628
10:57:48.208,-47.3752,-92.7504
10:57:48.214,-49.1252,-97.3754
10:57:48.231,-51.6252,-101.3754
10:57:48.233,-52.6877,-106.0004
10:57:48.261,-55.3752,-109.9379
10:57:48.264,-55.8127,-113.5004
10:57:48.266,-59.0002,-117.3129
10:57:48.273,-59.6252,-120.938
10:57:48.283,-61.5002,-123.1255
10:57:48.290,-62.8127,-127.813
10:57:48.300,-63.5002,-129.8755
10:57:48.310,-65.0627,-132.6255
10:57:48.319,-64.2502,-132.938
10:57:48.330,-61.1252,-128.438
10:57:48.339,-55.5002,-120.063
10:57:48.366,-45.3127,-105.4379
10:57:48.367,-35.6251,-84.5628
10:57:48.377,-22.7501,-63.3127
10:57:48.380,-11.75,-39.3127
10:57:48.390,0.3125,-17.9376
10:57:48.401,10.9375,2.75
10:57:48.408,19.6876,22.4376
10:57:48.419,27.3751,37.8126
10:57:48.429,34.1876,52.2502
10:57:48.440,38.5626,61.9377
10:57:48.449,42.8127,71.1878
10:57:48.459,44.6877,78.2503
10:57:48.470,46.5627,82.1253
10:57:48.480,48.2502,85.1878
10:57:48.489,48.1252,87.3128
10:57:48.500,48.5002,88.2503
10:57:48.509,47.1252,88.3753
10:57:48.520,48.1252,88.0003
10:57:48.530,46.4377,87.9378
10:57:48.539,45.5627,85.7503
10:57:48.550,44.5002,84.0003
10:57:48.560,42.1877,80.6253
10:57:48.570,39.5627,76.0628
10:57:48.578,36.6251,70.6878
10:57:48.591,33.7501,65.6878
10:57:48.600,30.6876,59.8752
10:57:48.610,27.5001,55.4377
10:57:48.620,25.7501,50.7502
10:57:48.630,24.0001,47.5627
10:57:48.640,21.8126,44.5002
10:57:48.648,20.8751,41.0002
10:57:48.660,20.0626,39.2501
10:57:48.669,19.5001,37.6251
10:57:48.687,17.8751,35.0626
10:57:48.690,18.2501,33.9376
10:57:48.705,17.0626,32.3751
10:57:48.720,14.8126,29.0001
10:57:48.723,14.4376,26.6251
10:57:48.733,11.8125,23.1251
10:57:48.740,9.9375,19.1251
10:57:48.753,6.6875,14.8751
10:57:48.760,4.4375,9.9375
10:57:48.770,1.75,4.0625
10:57:48.780,-2,-0.3125
10:57:48.789,-4.0625,-6.25
10:57:48.800,-7.75,-12.5
10:57:48.810,-10.75,-18.5001
10:57:48.819,-14.3751,-25.3751
10:57:48.831,-17.0001,-30.6876
10:57:48.840,-20.2501,-37.8126
10:57:48.863,-23.6876,-44.3752
10:57:48.865,-26.4376,-50.0627
10:57:48.894,-29.5001,-55.6877
10:57:48.896,-32.1251,-60.3127
10:57:48.899,-35.5626,-64.7502
10:57:48.901,-36.7501,-69.6878
10:57:48.935,-38.5626,-75.7503
10:57:48.937,-41.0627,-80.0003
10:57:48.939,-43.8752,-83.1253
10:57:48.941,-45.3127,-88.8753
10:57:48.969,-47.7502,-91.4379
10:57:48.973,-49.6877,-96.6254
10:57:48.976,-51.8752,-101.3754
10:57:49.009,-53.3752,-104.6254
10:57:49.010,-55.5002,-109.8129
10:57:49.012,-56.5627,-112.0004
10:57:49.017,-59.3752,-116.6254
10:57:49.021,-60.1877,-118.8755
10:57:49.032,-61.8127,-121.938
10:57:49.040,-62.5002,-126.938
10:57:49.050,-62.6252,-127.188
10:57:49.060,-62.1252,-127.0005
10:57:49.071,-57.5002,-121.2505
10:57:49.080,-50.3752,-108.5004
10:57:49.089,-40.8127,-92.7504
10:57:49.101,-28.8751,-71.8128
10:57:49.110,-16.7501,-48.1877
10:57:49.120,-4.8125,-26.0626
10:57:49.129,6.5625,-3.0625
10:57:49.141,16.3751,15.6251
10:57:49.150,24.9376,33.3751
10:57:49.160,31.3126,49.6877
10:57:49.170,37.2501,60.0627
10:57:49.181,41.5002,72.1878
10:57:49.202,45.0627,78.0628
10:57:49.205,47.8127,84.5003
10:57:49.218,48.7502,88.0003
10:57:49.221,50.1252,90.9379
10:57:49.237,49.8752,92.8129
10:57:49.240,50.4377,92.8129
10:57:49.250,49.7502,93.8129
10:57:49.260,47.9377,93.4379
10:57:49.270,47.1877,89.6253
10:57:49.279,46.6252,88.6253
10:57:49.288,44.3127,85.1878
10:57:49.300,41.6877,80.4378
10:57:49.310,38.8751,75.9378
10:57:49.321,35.5001,70.1253
10:57:49.331,33.2501,65.0627
10:57:49.340,29.6251,58.8127
10:57:49.350,27.4376,53.8127
10:57:49.360,25.1876,49.9377
10:57:49.370,23.4376,46.6877
10:57:49.380,21.1876,43.0002
10:57:49.391,20.4376,41.4377
10:57:49.400,19.6251,38.4376
10:57:49.410,19.5626,37.3126
10:57:49.419,18.1876,35.3751
10:57:49.430,17.8126,33.9376
10:57:49.440,17.0626,31.6876
10:57:49.450,15.0001,29.4376
10:57:49.461,13.8751,25.8751
10:57:49.470,11.6875,23.1251
10:57:49.480,9.375,19.7501
10:57:49.490,7.4375,13.7501
10:57:49.501,4.0625,9.3125
10:57:49.512,1.375,3.3125
10:57:49.520,-1.8125,-2.5
10:57:49.531,-4.625,-7.375
10:57:49.540,-8.3125,-15.3751
10:57:49.550,-11.5625,-20.6876
10:57:49.560,-14.3751,-27.2501
10:57:49.570,-17.7501,-33.4376
10:57:49.601,-20.7501,-39.5627
10:57:49.604,-23.6876,-45.5002
10:57:49.607,-26.4376,-51.1252
10:57:49.610,-29.5001,-56.8752
10:57:49.645,-31.5626,-61.7502
10:57:49.646,-34.1876,-66.6878
10:57:49.649,-35.6251,-71.3128
10:57:49.654,-38.5001,-75.3753
10:57:49.661,-40.7502,-79.1878
10:57:49.694,-42.2502,-84.1253
10:57:49.695,-44.7502,-87.0628
10:57:49.697,-46.1877,-91.5629
10:57:49.701,-47.8127,-95.7504
10:57:49.730,-50.8752,-100.3129
10:57:49.732,-52.3127,-103.6254
10:57:49.735,-54.3752,-107.2504
10:57:49.741,-55.2502,-110.8754
10:57:49.760,-56.8127,-114.6254
10:57:49.761,-58.1877,-117.1254
10:57:49.770,-59.6877,-120.938
10:57:49.780,-61.0627,-123.1255
10:57:49.790,-62.2502,-126.688
10:57:49.800,-62.1252,-127.688
10:57:49.810,-61.0627,-127.188
10:57:49.820,-57.8127,-122.2505
10:57:49.830,-50.2502,-111.3129
10:57:49.840,-41.5002,-93.8754
10:57:49.850,-30.1876,-75.0003
10:57:49.860,-17.8751,-52.0627
10:57:49.870,-6.8125,-29.1876
10:57:49.881,5.125,-7.375
10:57:49.890,14.3126,11.3125
10:57:49.900,22.5626,28.5626
10:57:49.911,29.7501,43.1252
10:57:49.920,34.3751,55.5627
10:57:49.930,38.2501,64.0002
10:57:49.940,42.1252,71.3128
10:57:49.950,43.6252,76.5003
10:57:49.959,44.8752,79.4378
10:57:49.970,45.4377,82.1878
10:57:49.980,45.2502,82.9378
10:57:49.990,44.8127,82.9378
10:57:50.006,44.1252,81.6253
10:57:50.022,43.0002,80.8128
10:57:50.025,41.0002,78.8753
10:57:50.032,39.4377,75.4378
10:57:50.040,37.5001,72.1878
10:57:50.050,34.4376,68.1878
10:57:50.060,32.1876,62.3127
10:57:50.070,28.5626,57.1877
10:57:50.080,25.4376,51.7502
10:57:50.090,23.1876,46.1252
10:57:50.100,20.1876,42.7502
10:57:50.110,19.0626,38.5626
10:57:50.120,17.8751,36.5626
10:57:50.131,17.6251,35.4376
10:57:50.140,16.8751,34.0626
10:57:50.150,16.8126,34.3751
10:57:50.161,16.6876,33.0626
10:57:50.169,16.0626,32.2501
10:57:50.180,15.9376,30.5001
10:57:50.190,14.1876,29.0001
10:57:50.200,13.5626,26.6876
10:57:50.210,11.8125,24.3751
10:57:50.220,9.6875,21.6876
10:57:50.233,8.625,17.3126
10:57:50.240,5.5625,13.1251
10:57:50.254,3.625,8.125
10:57:50.260,0.1875,3.1875
10:57:50.270,-2.8125,-2.8125
10:57:50.280,-5.875,-8.25
10:57:50.291,-8.8125,-12.9375
10:57:50.300,-11.625,-19.6876
10:57:50.313,-14.6251,-25.5001
10:57:50.320,-17.6251,-32.0626
10:57:50.330,-21.0001,-37.3751
10:57:50.357,-24.0626,-42.9377
10:57:50.360,-26.8126,-48.2502
10:57:50.362,-29.0626,-53.5627
10:57:50.370,-31.3126,-58.1252
10:57:50.403,-33.8751,-62.6252
10:57:50.406,-35.8751,-67.8753
10:57:50.409,-38.1876,-72.3128
10:57:50.414,-41.3127,-76.2503
10:57:50.430,-43.0002,-80.6878
10:57:50.432,-45.5627,-86.2503
10:57:50.464,-46.9377,-90.1253
10:57:50.466,-49.7502,-94.1879
10:57:50.469,-51.5627,-98.5004
10:57:50.474,-52.7502,-100.6879
10:57:50.480,-54.7502,-105.5004
10:57:50.511,-56.4377,-108.1254
10:57:50.513,-57.8752,-110.7504
10:57:50.529,-59.3752,-115.0004
10:57:50.544,-60.1877,-116.5004
10:57:50.546,-60.0002,-118.688
10:57:50.550,-58.5002,-116.5004
10:57:50.555,-54.3752,-112.0629
10:57:50.560,-47.5002,-100.2504
10:57:50.570,-38.4376,-83.3753
10:57:50.580,-27.5001,-64.2502
10:57:50.590,-16.5626,-43.3127
10:57:50.600,-5.4375,-21.5001
10:57:50.610,5.25,-0.5
10:57:50.620,13.4376,16.9376
10:57:50.629,20.6251,34.1251
10:57:50.640,26.6251,48.1252
10:57:50.650,31.8751,58.2502
10:57:50.660,34.9376,67.8753
10:57:50.670,37.5626,73.0628
10:57:50.679,38.4376,79.0628
10:57:50.690,39.4377,81.0628
10:57:50.700,39.2502,82.8753
10:57:50.710,35.3751,80.9378
10:57:50.720,33.0001,78.7503
10:57:50.730,30.1251,77.3128
10:57:50.741,25.9376,72.8128
10:57:50.750,22.0626,69.0628
10:57:50.760,16.0626,61.8752
10:57:50.770,11.5625,58.6877
10:57:50.780,3.3125,50.7502
10:57:50.790,-3.375,44.1252
10:57:50.800,-9.6875,38.8126
10:57:50.810,-13.8126,35.3751
10:57:50.820,-16.7501,32.5001
10:57:50.830,-16.5001,33.3751
10:57:50.840,-15.3126,35.5001
10:57:50.851,-13.4376,37.6251
10:57:50.860,-13.0625,40.1877
10:57:50.871,-12.5625,42.5002
10:57:50.880,-9.4375,45.6252
10:57:50.890,-9.25,48.1877
10:57:50.923,-7.5,49.9377
10:57:50.925,-6.5625,51.6252
10:57:50.927,-4.875,53.1877
10:57:50.932,-3,53.6252
10:57:50.942,-3.8125,53.6252
10:57:50.950,-4,50.8752
10:57:50.960,-6.3125,48.6252
10:57:50.970,-8.375,44.9377
10:57:50.980,-10.125,42.4377
10:57:50.991,-11.8125,37.7501
10:57:51.001,-12.9375,33.4376
10:57:51.011,-15.5001,28.1251
10:57:51.020,-17.5001,22.5626
10:57:51.030,-21.0001,17.1251
10:57:51.062,-24.0001,10.4375
10:57:51.065,-27.1876,4.8125
10:57:51.066,-30.5626,-1.875
10:57:51.071,-32.9376,-6.625
10:57:51.103,-35.6251,-13
10:57:51.105,-37.9376,-17.0001
10:57:51.107,-40.3127,-21.6876
10:57:51.139,-41.4377,-23.7501
10:57:51.141,-43.0627,-28.8751
10:57:51.144,-44.1252,-32.8126
10:57:51.146,-46.0627,-36.2501
10:57:51.177,-47.3127,-39.5627
10:57:51.179,-48.8752,-43.7502
10:57:51.181,-51.4377,-47.3752
10:57:51.210,-52.0002,-49.9377
10:57:51.210,-53.4377,-52.9377
10:57:51.212,-54.0627,-56.0002
10:57:51.219,-55.5002,-58.6877
10:57:51.226,-56.8127,-63.1877
10:57:51.235,-58.1877,-65.2503
10:57:51.245,-59.5627,-68.3128
10:57:51.255,-61.4377,-72.1253
10:57:51.265,-60.1877,-73.5628
10:57:51.275,-58.6252,-70.4378
10:57:51.285,-54.1252,-65.5003
10:57:51.295,-47.5002,-52.9377
10:57:51.316,-38.8751,-39.6252
10:57:51.319,-29.5001,-21.3126
10:57:51.327,-18.5626,-1.125
10:57:51.335,-7.625,18.5626
10:57:51.350,2.75,39.4377
10:57:51.359,11.9375,57.5002
10:57:51.365,19.7501,74.1253
10:57:51.381,26.6251,88.9378
10:57:51.385,33.1876,100.7504
10:57:51.395,38.4376,111.4379
10:57:51.405,42.6252,118.688
10:57:51.416,45.5627,124.8755
10:57:51.425,47.9377,128.7505
10:57:51.435,49.0002,133.0005
10:57:51.445,50.6252,134.8755
10:57:51.456,50.5627,135.938
10:57:51.465,50.4377,136.5005
10:57:51.475,50.6252,134.8755
10:57:51.485,49.9377,133.813
10:57:51.496,49.1877,132.063
10:57:51.505,46.8752,128.563
10:57:51.515,45.0627,125.313
10:57:51.525,42.4377,120.2505
10:57:51.537,40.5002,115.3754
10:57:51.545,38.4376,110.5004
10:57:51.555,35.8126,105.3754
10:57:51.566,34.9376,101.7504
10:57:51.575,32.0626,97.8754
10:57:51.585,31.4376,94.8754
10:57:51.595,30.5001,92.2504
10:57:51.605,28.9376,89.3753
10:57:51.615,28.0001,86.4378
10:57:51.625,27.5626,83.9378
10:57:51.635,26.8751,83.1878
10:57:51.646,26.6251,79.8128
10:57:51.656,26.0626,78.2503
10:57:51.667,27.5626,76.9378
10:57:51.676,26.7501,75.9378
10:57:51.686,26.8751,73.7503
10:57:51.695,26.1876,70.8128
10:57:51.705,25.0001,66.6878
10:57:51.737,23.2501,62.3127
10:57:51.739,21.6876,58.6252
10:57:51.741,21.2501,53.8127
10:57:51.746,18.8751,50.0002
10:57:51.779,17.8751,44.0002
10:57:51.781,16.3751,39.5002
10:57:51.784,15.3751,35.5001
10:57:51.786,13.1876,29.4376
10:57:51.819,13.1876,25.6876
10:57:51.821,12.25,21.5626
10:57:51.850,10.8125,17.6251
10:57:51.884,11.125,14.1876
10:57:51.886,9.9375,11.625
10:57:51.889,8.375,7.625
10:57:51.895,7.6875,3.9375
10:57:51.896,7.1875,-0.5
10:57:51.896,5.875,-4.125
10:57:51.901,5.875,-7.0625
10:57:51.911,3.875,-10.25
10:57:51.920,3.875,-11.9375
10:57:51.930,4.875,-14.9376
10:57:51.939,5.3125,-15.0626
10:57:51.952,7.375,-15.1876
10:57:51.961,10.375,-15.1876
10:57:51.971,12.4375,-14.0626
10:57:51.981,16.8126,-12.4375
10:57:51.991,20.1251,-11.0625
10:57:52.000,23.5001,-10.1875
10:57:52.010,27.5626,-6.3125
10:57:52.020,34.2501,1
10:57:52.030,43.1877,11.875
10:57:52.040,54.1877,27.0626
10:57:52.050,66.3753,46.3127
10:57:52.061,97.5004,98.8129
10:57:52.070,107.9379,118.563
10:57:52.080,115.8754,137.3755
10:57:52.090,123.3755,150.8756
10:57:52.100,128.313,164.0006
10:57:52.111,131.5005,171.8132
10:57:52.119,132.813,178.7507
10:57:52.130,133.438,182.8132
10:57:52.140,132.688,183.6882
10:57:52.150,131.688,184.0007
10:57:52.160,128.6255,183.4382
10:57:52.170,125.938,180.5632
10:57:52.203,122.313,177.4382
10:57:52.205,118.563,174.0632
10:57:52.208,115.1879,168.9381
10:57:52.210,111.8754,164.0631
10:57:52.222,106.7504,157.5006
10:57:52.232,102.7504,151.5006
10:57:52.240,97.4379,144.6255
10:57:52.250,91.3754,136.938
10:57:52.260,87.0003,128.813
10:57:52.270,81.8128,120.438
10:57:52.280,76.3753,113.6879
10:57:52.290,73.0628,106.3129
10:57:52.300,68.7503,100.7504
10:57:52.310,66.6253,97.0004
10:57:52.320,63.5002,92.5004
10:57:52.330,60.7502,88.1253
10:57:52.340,58.3752,85.3753
10:57:52.351,55.5002,82.0003
10:57:52.360,52.6877,77.4378
10:57:52.370,48.9377,72.8128
10:57:52.380,45.5002,68.9378
10:57:52.390,41.5627,64.2502
10:57:52.400,37.5001,58.1252
10:57:52.410,32.7501,52.8127
10:57:52.421,28.5626,45.3752
10:57:52.430,23.3126,39.1877
10:57:52.440,18.4376,30.9376
10:57:52.474,12.875,23.2501
10:57:52.475,8.25,15.2501
10:57:52.478,1.9375,6.5625
10:57:52.480,-4.3125,-1.5625
10:57:52.522,-9.9375,-11.1875
10:57:52.523,-17.9376,-20.3751
10:57:52.527,-25.1251,-32.2501
10:57:52.528,-33.0001,-42.0627
10:57:52.533,-41.2502,-53.8752
10:57:52.541,-50.3127,-64.3127
10:57:52.570,-58.0627,-75.8753
10:57:52.576,-65.8753,-85.7503
10:57:52.578,-71.8753,-95.5004
10:57:52.581,-77.6253,-104.5629
10:57:52.613,-82.9378,-111.1879
10:57:52.615,-88.5003,-120.188
10:57:52.618,-93.1254,-127.813
10:57:52.623,-98.5004,-135.5005
10:57:52.642,-103.2504,-143.1255
10:57:52.645,-107.6879,-149.5006
10:57:52.653,-112.5004,-156.2506
10:57:52.667,-116.5004,-163.3756
10:57:52.682,-121.938,-168.9381
10:57:52.685,-124.188,-175.3132
10:57:52.700,-128.063,-179.6257
10:57:52.702,-129.063,-182.4382
10:57:52.710,-128.0005,-180.8757
10:57:52.721,-124.688,-175.1882
10:57:52.730,-118.813,-163.8756
10:57:52.740,-111.0004,-148.6881
10:57:52.750,-101.1879,-131.0005
10:57:52.760,-91.0629,-111.2504
10:57:52.770,-80.7503,-92.6254
10:57:52.780,-71.6253,-72.6253
10:57:52.790,-62.0627,-56.2502
10:57:52.800,-54.5002,-39.4377
10:57:52.810,-47.6252,-27.2501
10:57:52.820,-40.9377,-15.5626
10:57:52.830,-37.1876,-6.25
10:57:52.840,-32.8751,0.25
10:57:52.850,-30.7501,5.3125
10:57:52.860,-27.6876,8.6875
10:57:52.870,-27.7501,11
10:57:52.880,-26.0626,11.8125
10:57:52.891,-26.3126,12.625
10:57:52.900,-26.0001,11.625
10:57:52.910,-25.9376,10.625
10:57:52.921,-26.7501,8.0625
10:57:52.931,-27.2501,5.5
10:57:52.940,-29.1876,2.75
10:57:52.949,-31.0626,-2.75
10:57:52.960,-32.4376,-7
10:57:52.970,-34.7501,-11.375
10:57:52.980,-36.3751,-16.6251
10:57:52.991,-36.6251,-18.8751
10:57:53.000,-38.0626,-21.6251
10:57:53.010,-37.8751,-23.0001
10:57:53.021,-37.7501,-22.3126
10:57:53.031,-36.4376,-23.2501
10:57:53.041,-35.9376,-21.1251
10:57:53.050,-35.0001,-22.0626
10:57:53.060,-34.4376,-20.3751
10:57:53.070,-33.3751,-21.8751
10:57:53.080,-33.0001,-20.8126
10:57:53.090,-32.8126,-21.8126
10:57:53.100,-33.3751,-23.8126
10:57:53.110,-35.3126,-25.7501
10:57:53.120,-36.3751,-28.5001
10:57:53.135,-36.4376,-30.0001
10:57:53.150,-38.3751,-34.8751
10:57:53.152,-38.8751,-36.7501
10:57:53.162,-41.3752,-39.9377
10:57:53.170,-43.3752,-45.1877
10:57:53.180,-45.0002,-49.5002
10:57:53.190,-47.2502,-53.5627
10:57:53.201,-49.0627,-58.6877
10:57:53.210,-50.5002,-61.7502
10:57:53.239,-51.7502,-64.3127
10:57:53.243,-53.5627,-70.5003
10:57:53.244,-54.8127,-73.5003
10:57:53.250,-56.8752,-77.5628
10:57:53.286,-58.1877,-81.0628
10:57:53.289,-59.8127,-84.3753
10:57:53.290,-61.8752,-89.1253
10:57:53.324,-63.1877,-92.1879
10:57:53.325,-64.7502,-96.5004
10:57:53.327,-66.0628,-99.3754
10:57:53.334,-68.0628,-102.0629
10:57:53.335,-69.2503,-106.3754
10:57:53.348,-71.7503,-108.1879
10:57:53.351,-72.0628,-112.9379
10:57:53.383,-73.3753,-114.4379
10:57:53.385,-75.3753,-117.688
10:57:53.387,-75.6878,-120.6255
10:57:53.393,-75.6878,-121.063
10:57:53.400,-74.1878,-120.313
10:57:53.416,-70.6253,-114.4379
10:57:53.421,-65.1878,-105.0629
10:57:53.430,-56.2502,-91.3129
10:57:53.440,-46.2502,-72.9378
10:57:53.450,-36.0001,-53.1877
10:57:53.484,-24.3126,-31.0626
10:57:53.487,-12.875,-11.125
10:57:53.489,-3.4375,10.0625
10:57:53.491,6.75,28.2501
10:57:53.500,14.7501,44.1252
10:57:53.511,21.4376,58.9377
10:57:53.520,26.7501,69.6253
10:57:53.530,31.3751,80.6878
10:57:53.540,35.0001,89.5628
10:57:53.550,39.2501,95.6879
10:57:53.560,40.6252,101.3754
10:57:53.570,42.3752,103.9379
10:57:53.580,42.6877,107.3129
10:57:53.590,44.0627,108.3754
10:57:53.600,43.6252,110.1879
10:57:53.611,42.6252,108.8754
10:57:53.620,42.2502,108.0004
10:57:53.630,39.4377,105.8754
10:57:53.640,37.5626,102.9379
10:57:53.650,35.4376,98.8754
10:57:53.660,32.6876,93.6879
10:57:53.670,28.6876,88.6878
10:57:53.680,26.0626,83.0003
10:57:53.690,23.1876,77.5003
10:57:53.700,19.8751,73.0628
10:57:53.710,17.2501,67.8128
10:57:53.719,14.8751,64.0627
10:57:53.730,13.5001,61.5002
10:57:53.740,12.0625,57.3752
10:57:53.750,10.8125,55.6877
10:57:53.760,8.875,51.6877
10:57:53.770,6.375,48.9377
10:57:53.780,3.4375,44.6252
10:57:53.791,1.6875,41.0627
10:57:53.800,-0.1875,36.6251
10:57:53.810,-4.4375,31.0001
10:57:53.820,-6.3125,25.8751
10:57:53.830,-10.6875,20.3751
10:57:53.840,-14.1251,12.75
10:57:53.850,-18.6251,6.3125
10:57:53.860,-22.5001,-1.625
10:57:53.870,-28.1251,-9.6875
10:57:53.880,-31.8126,-17.3126
10:57:53.915,-36.4376,-24.5001
10:57:53.916,-40.2502,-31.5626
10:57:53.919,-44.2502,-40.2502
10:57:53.924,-48.6877,-46.2502
10:57:53.930,-52.1252,-53.8127
10:57:53.970,-55.8127,-59.9377
10:57:53.971,-58.5627,-67.0628
10:57:54.042,-62.5627,-72.7503
10:57:54.042,-65.2502,-78.6253
10:57:54.042,-68.5628,-85.3753
10:57:54.042,-70.7503,-91.0004
10:57:54.045,-73.7503,-94.8754
10:57:54.046,-76.1878,-100.5004
10:57:54.051,-77.5003,-105.8129
10:57:54.051,-79.8753,-109.8754
10:57:54.051,-81.1878,-114.6254
10:57:54.069,-82.4378,-117.438
10:57:54.071,-84.5003,-122.6255
10:57:54.080,-85.6878,-125.8755
10:57:54.090,-87.2503,-130.5005
10:57:54.102,-87.6253,-132.938
10:57:54.110,-88.5003,-133.313
10:57:54.120,-86.3753,-134.188
10:57:54.131,-83.1253,-128.938
10:57:54.140,-76.9378,-120.438
10:57:54.150,-67.8128,-106.5629
10:57:54.166,-57.5002,-87.9378
10:57:54.171,-35.3126,-47.0627
10:57:54.181,-23.9376,-27.1876
10:57:54.190,-13.8126,-7.8125
10:57:54.200,-3.75,11.3125
10:57:54.210,4.0625,26.3751
10:57:54.220,10.875,40.9377
10:57:54.230,17.5001,52.3752
10:57:54.240,22.2501,62.5627
10:57:54.250,26.7501,71.0628
10:57:54.260,29.9376,78.2503
10:57:54.271,32.8751,83.4378
10:57:54.280,35.1876,88.0003
10:57:54.290,36.6251,91.3129
10:57:54.302,39.3127,93.2504
10:57:54.310,41.1252,96.0629
10:57:54.320,40.3752,96.0004
10:57:54.330,41.3752,96.3129
10:57:54.340,40.1252,95.1254
10:57:54.350,39.7502,93.1879
10:57:54.361,38.3126,90.3754
10:57:54.370,35.9376,86.0628
10:57:54.380,33.7501,80.6878
10:57:54.392,30.5001,75.6253
10:57:54.400,28.3126,70.9378
10:57:54.410,26.3751,66.7503
10:57:54.420,24.8751,63.6252
10:57:54.437,23.5626,60.9377
10:57:54.453,22.8751,57.4377
10:57:54.454,23.1251,55.2502
10:57:54.463,23.1251,54.5627
10:57:54.471,22.3126,52.3127
10:57:54.481,21.9376,51.3127
10:57:54.490,20.6251,48.0002
10:57:54.499,20.4376,46.6877
10:57:54.511,19.3126,45.1252
10:57:54.520,17.3126,43.5002
10:57:54.530,17.0001,40.4377
10:57:54.540,15.9376,38.4376
10:57:54.549,15.3126,36.1876
10:57:54.561,15.8751,32.9376
10:57:54.570,14.4376,29.7501
10:57:54.581,13.3751,25.3126
10:57:54.590,10.6875,20.6251
10:57:54.599,7.875,15.7501
10:57:54.610,5.0625,11.375
10:57:54.621,2.1875,4.125
10:57:54.630,-0.875,-1.25
10:57:54.642,-3.875,-6.375
10:57:54.649,-6.5,-12.375
10:57:54.660,-8.375,-15.7501
10:57:54.690,-10.375,-22.2501
10:57:54.693,-13.1876,-26.3126
10:57:54.696,-16.1251,-32.2501
10:57:54.702,-18.2501,-36.7501
10:57:54.735,-20.8751,-42.0627
10:57:54.738,-24.1251,-47.1252
10:57:54.740,-25.9376,-52.0627
10:57:54.765,-28.6876,-56.3127
10:57:54.770,-30.5001,-60.4377
10:57:54.772,-31.7501,-64.2502
10:57:54.772,-33.3751,-68.4378
10:57:54.814,-35.7501,-72.1253
10:57:54.815,-37.2501,-75.5628
10:57:54.819,-39.5627,-79.1253
10:57:54.819,-40.6877,-83.7503
10:57:54.823,-41.2502,-85.6253
10:57:54.854,-41.1877,-85.0628
10:57:54.856,-38.8126,-80.9378
10:57:54.860,-33.5626,-72.6878
10:57:54.864,-26.0626,-59.8752
10:57:54.873,-18.5626,-43.1252
10:57:54.882,-8.9375,-26.1876
10:57:54.890,1.375,-7.125
10:57:54.900,10.4375,12.1875
10:57:54.917,18.8126,28.0001
10:57:54.920,25.8751,43.4377
10:57:54.930,32.1876,56.9377
10:57:54.941,36.9376,68.0628
10:57:54.950,40.0002,77.6878
10:57:54.961,42.6252,83.3128
10:57:54.970,43.7502,88.5628
10:57:54.982,44.1252,91.3129
10:57:54.991,43.4377,92.3129
10:57:55.003,42.2502,92.3129
10:57:55.011,39.7502,92.6254
10:57:55.020,37.0001,88.8753
10:57:55.031,35.1251,86.8128
10:57:55.040,32.0626,83.4378
10:57:55.051,29.3126,79.6878
10:57:55.061,26.1251,76.1253
10:57:55.071,23.1876,70.0003
10:57:55.080,19.5626,64.3752
10:57:55.093,15.3751,57.8752
10:57:55.100,11.0625,51.4377
10:57:55.111,8,45.0627
10:57:55.126,3.875,38.9376
10:57:55.136,1.3125,33.8126
10:57:55.145,-1,28.7501
10:57:55.156,-4.4375,25.2501
10:57:55.165,-4.9375,20.9376
10:57:55.175,-8.125,18.0626
10:57:55.186,-10.25,14.3126
10:57:55.196,-13.6876,9.6875
10:57:55.205,-15.6251,4.4375
10:57:55.216,-19.3751,0.375
10:57:55.227,-22.3751,-6.0625
10:57:55.236,-27.1251,-11.625
10:57:55.246,-30.5001,-19.1876
10:57:55.255,-35.6251,-25.9376
10:57:55.266,-40.1877,-33.8751
10:57:55.282,-45.0002,-42.6877
10:57:55.300,-52.6877,-53.5002
10:57:55.302,-56.6252,-61.9377
10:57:55.305,-60.1877,-70.5628
10:57:55.316,-64.3752,-77.3753
10:57:55.325,-66.6253,-84.1878
10:57:55.336,-69.6253,-91.0004
10:57:55.346,-73.0628,-97.1254
10:57:55.357,-75.5003,-102.0004
10:57:55.366,-77.3128,-107.8754
10:57:55.376,-79.0628,-112.2504
10:57:55.397,-81.4378,-117.0629
10:57:55.397,-82.6878,-122.0005
10:57:55.425,-84.0628,-126.438
10:57:55.428,-86.0628,-130.3755
10:57:55.431,-86.6878,-134.813
10:57:55.436,-89.0003,-138.438
10:57:55.462,-89.8753,-141.1255
10:57:55.465,-90.3128,-145.3755
10:57:55.467,-91.4379,-148.4381
10:57:55.496,-92.3129,-152.9381
10:57:55.499,-93.3754,-154.6256
10:57:55.504,-94.8129,-157.6881
10:57:55.509,-95.1879,-160.8756
10:57:55.516,-95.5004,-161.9381
10:57:55.554,-94.4379,-163.2506
10:57:55.557,-91.6879,-161.0631
10:57:55.560,-86.5003,-153.1881
10:57:55.561,-79.3753,-143.5005
10:57:55.570,-70.1253,-127.188
10:57:55.576,-59.8752,-109.3129
10:57:55.587,-48.5002,-90.0629
10:57:55.596,-37.0001,-69.0003
10:57:55.606,-26.8126,-48.8752
10:57:55.615,-16.6876,-30.8126
10:57:55.626,-7.25,-12.9375
10:57:55.636,0.3125,2.8125
10:57:55.646,7.0625,15.1876
10:57:55.655,12.125,26.8751
10:57:55.671,16.7501,34.5626
10:57:55.676,21.0001,42.9377
10:57:55.686,22.8126,48.8752
10:57:55.696,25.6876,53.2502
10:57:55.706,27.6251,57.1252
10:57:55.716,28.9376,59.1877
10:57:55.726,29.4376,61.5627
10:57:55.746,29.8751,61.1252
10:57:55.752,29.6251,61.6877
10:57:55.767,28.1251,61.8752
10:57:55.769,27.5001,59.0627
10:57:55.776,26.3126,56.7502
10:57:55.786,22.9376,52.3752
10:57:55.795,21.0001,47.2502
10:57:55.806,18.3751,43.1877
10:57:55.816,15.8126,38.3126
10:57:55.827,13.6251,33.5001
10:57:55.836,11,30.0001
10:57:55.846,10.1875,26.5626
10:57:55.856,8.4375,24.5626
10:57:55.866,8.0625,21.6251
10:57:55.876,7,19.8126
10:57:55.887,6.5,17.5001
10:57:55.896,5.3125,15.5626
10:57:55.906,4.375,13.7501
10:57:55.920,4.8125,12.625
10:57:55.931,3.375,10.375
10:57:55.941,1.625,7.8125
10:57:55.951,-0.0625,3.75
10:57:55.960,-2.625,0.875
10:57:55.971,-4.875,-4.625
10:57:55.981,-6.875,-8.9375
10:57:55.992,-10.0625,-13.3751
10:57:56.001,-12.3125,-19.0001
10:57:56.011,-15.0626,-24.3751
10:57:56.043,-17.1251,-29.1876
10:57:56.045,-20.2501,-34.0626
10:57:56.047,-22.5001,-39.3752
10:57:56.051,-25.7501,-44.4377
10:57:56.061,-28.8126,-50.0002
10:57:56.071,-30.3751,-55.0002
10:57:56.082,-33.4376,-60.6877
10:57:56.091,-37.1876,-66.0003
10:57:56.117,-39.1877,-70.6253
10:57:56.118,-41.5002,-74.2503
10:57:56.121,-43.0627,-78.6253
10:57:56.165,-45.5627,-83.1253
10:57:56.165,-47.1252,-86.6878
10:57:56.167,-49.9377,-90.1879
10:57:56.171,-50.9377,-93.1254
10:57:56.174,-52.8752,-97.3754
10:57:56.184,-54.4377,-100.5629
10:57:56.214,-56.8752,-104.7504
10:57:56.216,-58.3127,-106.5629
10:57:56.218,-59.6877,-110.3754
10:57:56.221,-61.3127,-113.0629
10:57:56.254,-62.1252,-116.5004
10:57:56.256,-62.3752,-116.2504
10:57:56.259,-61.0627,-115.6254
10:57:56.262,-57.0002,-108.2504
10:57:56.271,-50.7502,-99.1254
10:57:56.285,-41.7502,-84.4378
10:57:56.291,-31.5001,-65.1252
10:57:56.301,-21.3126,-45.9377
10:57:56.311,-9.5,-25.9376
10:57:56.321,-0.5625,-5.0625
10:57:56.331,9.375,12.125
10:57:56.341,18.3126,29.5001
10:57:56.352,24.2501,44.4377
10:57:56.361,30.0626,55.3752
10:57:56.371,35.0001,66.0628
10:57:56.381,38.8126,74.8753
10:57:56.391,41.6877,81.1878
10:57:56.401,44.9377,86.0003
10:57:56.411,45.8127,90.3129
10:57:56.421,47.5627,93.8754
10:57:56.431,48.7502,96.1254
10:57:56.443,48.5627,98.1879
10:57:56.451,49.3127,98.5629
10:57:56.461,49.0002,101.0629
10:57:56.471,49.0627,98.8754
10:57:56.481,47.6877,98.6254
10:57:56.491,47.2502,95.4379
10:57:56.501,44.3752,92.1254
10:57:56.511,42.0627,87.0628
10:57:56.521,38.1876,81.9378
10:57:56.532,35.7501,75.6878
10:57:56.541,33.0626,69.6253
10:57:56.551,30.0001,64.1252
10:57:56.562,29.0001,59.8127
10:57:56.578,25.8751,55.3127
10:57:56.581,25.0001,51.8127
10:57:56.600,22.3751,48.6877
10:57:56.601,20.8126,45.2502
10:57:56.611,19.3126,41.3752
10:57:56.622,18.4376,38.2501
10:57:56.631,16.9376,35.2501
10:57:56.641,14.8126,32.2501
10:57:56.651,12.8125,26.9376
10:57:56.661,10.625,22.5626
10:57:56.671,8.0625,18.8751
10:57:56.681,5.3125,12.25
10:57:56.691,2.875,7.1875
10:57:56.701,0,0.4375
10:57:56.713,-2.9375,-4.1875
10:57:56.721,-5.875,-11.125
10:57:56.731,-9.4375,-17.6876
10:57:56.741,-12.375,-22.5001
10:57:56.751,-15.1876,-29.2501
10:57:56.762,-18.2501,-36.1251
10:57:56.772,-21.2501,-40.1252
10:57:56.781,-23.5001,-46.4377
10:57:56.791,-25.4376,-52.0002
10:57:56.803,-28.1876,-57.0002
10:57:56.811,-31.0001,-61.2502
10:57:56.821,-32.9376,-65.9378
10:57:56.831,-35.0001,-70.6253
10:57:56.841,-37.6251,-73.8128
10:57:56.851,-39.2502,-78.8128
10:57:56.861,-41.3127,-82.5628
10:57:56.893,-42.1252,-85.0628
10:57:56.895,-44.4377,-90.5004
10:57:56.897,-45.5002,-93.8754
10:57:56.902,-48.5002,-96.6879
10:57:56.932,-50.2502,-100.9379
10:57:56.934,-52.2502,-104.7504
10:57:56.938,-53.3127,-108.3129
10:57:56.941,-55.5002,-111.2504
10:57:56.966,-56.6877,-114.4379
10:57:56.969,-58.3127,-117.5004
10:57:56.972,-58.5002,-118.7505
10:57:57.006,-57.2502,-118.1255
10:57:57.010,-54.2502,-112.6254
10:57:57.011,-47.7502,-102.8754
10:57:57.019,-40.0627,-89.9378
10:57:57.021,-30.8126,-72.3753
10:57:57.049,-19.8126,-53.1877
10:57:57.052,-8.875,-33.6876
10:57:57.066,1.75,-13.3126
10:57:57.068,10.375,4.1875
10:57:57.075,19.1876,21.6876
10:57:57.081,26.0626,35.8751
10:57:57.091,32.8126,48.8127
10:57:57.101,37.0001,59.3127
10:57:57.112,41.3127,65.9378
10:57:57.121,43.8127,73.5628
10:57:57.131,46.5627,77.2503
10:57:57.141,47.1252,82.0628
10:57:57.152,48.5002,83.5628
10:57:57.162,50.0002,85.7503
10:57:57.171,49.2502,87.2503
10:57:57.181,48.5627,86.9378
10:57:57.196,48.3127,87.0003
10:57:57.201,46.8127,84.4378
10:57:57.211,45.9377,83.8128
10:57:57.221,43.5627,79.2503
10:57:57.231,39.8127,74.5003
10:57:57.241,37.3126,68.6253
10:57:57.252,33.3126,63.5002
10:57:57.261,30.6876,57.3127
10:57:57.271,27.8126,51.3752
10:57:57.281,25.1251,47.4377
10:57:57.291,23.0001,43.3127
10:57:57.324,22.0626,40.0002
10:57:57.325,20.0001,37.4376
10:57:57.328,19.0626,35.2501
10:57:57.332,18.1251,33.1876
10:57:57.343,16.8751,31.8126
10:57:57.352,16.0001,29.8751
10:57:57.361,14.8126,26.1251
10:57:57.373,13.8751,24.7501
10:57:57.381,11.8125,21.6251
10:57:57.391,9.9375,18.1251
10:57:57.401,8.125,14.6876
10:57:57.411,6.8125,12.0625
10:57:57.422,4.625,7.75
10:57:57.432,1.6875,4
10:57:57.441,2.6875,2.1875
10:57:57.451,2.875,-2.25
10:57:57.462,0.625,-7.5
10:57:57.471,-1.8125,-12.5
10:57:57.481,-3.125,-18.4376
10:57:57.491,-6.6875,-23.7501
10:57:57.501,-8.875,-28.6876
10:57:57.511,-10.6875,-33.6251
10:57:57.522,-12.375,-38.8751
10:57:57.532,-13.8126,-42.6877
10:57:57.542,-15.1251,-47.5002
10:57:57.552,-17.7501,-51.5627
10:57:57.568,-18.1251,-55.3752
10:57:57.571,-19.4376,-60.6252
10:57:57.599,-21.5001,-64.5002
10:57:57.601,-22.8126,-70.3753
10:57:57.603,-25.2501,-75.0628
10:57:57.642,-27.1876,-81.3753
10:57:57.644,-29.6876,-86.0003
10:57:57.646,-31.5001,-92.1254
10:57:57.649,-32.2501,-96.9379
10:57:57.656,-33.8751,-101.7504
10:57:57.662,-34.1251,-106.0004
10:57:57.695,-35.0001,-110.2504
10:57:57.696,-35.0626,-114.5004
10:57:57.698,-34.3126,-116.8754
10:57:57.703,-33.3126,-117.0629
10:57:57.734,-28.8751,-114.4379
10:57:57.737,-22.1251,-105.5629
10:57:57.738,-13.3126,-94.2504
10:57:57.746,-3.5,-78.6878
10:57:57.753,6.6875,-61.8127
10:57:57.762,17.7501,-42.7502
10:57:57.771,26.6876,-25.6251
10:57:57.781,33.5626,-10.6875
10:57:57.792,38.7501,1.875
10:57:57.801,44.1252,12.5625
10:57:57.811,46.5627,22.0001
10:57:57.821,49.9377,29.0626
10:57:57.831,52.6252,36.5001
10:57:57.841,53.8127,39.6252
10:57:57.851,53.5002,42.2502
10:57:57.861,53.8752,45.0627
10:57:57.876,53.9377,46.8752
10:57:57.891,52.9377,47.5627
10:57:57.893,52.7502,47.1877
10:57:57.901,50.6877,45.9377
10:57:57.911,49.5002,44.9377
10:57:57.921,47.3752,44.5627
10:57:57.931,45.3752,39.6877
10:57:57.941,41.6252,36.4376
10:57:57.951,38.8126,30.5626
10:57:57.961,34.9376,26.3751
10:57:57.972,31.4376,20.7501
10:57:57.981,28.1251,14.3126
10:57:57.991,25.2501,9.25
10:57:58.001,22.4376,5.375
10:57:58.011,19.8126,1.4375
10:57:58.021,17.8751,-1.5
10:57:58.031,16.0626,-4
10:57:58.041,14.9376,-7.1875
10:57:58.051,13.3751,-8.875
10:57:58.063,12.3125,-10.5
10:57:58.072,10,-12.125
10:57:58.081,8.8125,-14.1876
10:57:58.091,7.4375,-17.7501
10:57:58.101,4.6875,-20.0626
10:57:58.111,2.3125,-24.0001
10:57:58.121,0.1875,-28.6876
10:57:58.131,-1.5,-32.3751
10:57:58.141,-4.25,-36.5626
10:57:58.152,-7,-40.1252
10:57:58.161,-9.25,-45.6877
10:57:58.171,-12.6875,-50.8752
10:57:58.181,-15.4376,-55.4377
10:57:58.191,-18.6876,-62.2502
10:57:58.201,-22.1876,-66.6878
10:57:58.211,-24.3751,-72.8128
10:57:58.221,-28.6876,-78.2503
10:57:58.232,-31.0626,-84.5003
10:57:58.242,-34.2501,-88.3128
10:57:58.251,-36.0626,-94.0004
10:57:58.262,-38.8126,-97.2504
10:57:58.271,-41.0627,-102.9379
10:57:58.285,-43.5002,-105.6879
10:57:58.322,-44.6252,-110.3754
10:57:58.325,-47.1877,-113.6254
10:57:58.327,-49.4377,-118.6255
10:57:58.329,-51.0002,-122.813
10:57:58.369,-54.1252,-126.7505
10:57:58.372,-55.8752,-130.813
10:57:58.399,-57.5002,-133.6255
10:57:58.399,-59.3752,-138.188
10:57:58.400,-61.4377,-140.563
10:57:58.402,-63.2502,-144.938
10:57:58.428,-63.6252,-147.1256
10:57:58.432,-65.4378,-149.9381
10:57:58.433,-64.7502,-151.3131
10:57:58.443,-63.3127,-147.5631
10:57:58.443,-58.7502,-142.063
10:57:58.456,-51.2502,-130.8755
10:57:58.462,-43.3127,-114.6254
10:57:58.472,-33.2501,-97.2504
10:57:58.481,-21.2501,-77.0003
10:57:58.493,-10.75,-56.8752
10:57:58.502,0.3125,-36.5001
10:57:58.513,8.75,-17.2501
10:57:58.521,17.3751,-0.9375
10:57:58.531,24.1251,12.9375
10:57:58.541,35.1251,36.6251
10:57:58.553,38.7501,45.2502
10:57:58.561,42.0002,53.1252
10:57:58.571,44.0002,59.4377
10:57:58.604,45.1877,62.0627
10:57:58.606,45.7502,66.5628
10:57:58.609,47.0002,68.1253
10:57:58.612,47.5627,70.0003
10:57:58.622,46.9377,72.7503
10:57:58.631,47.1877,72.3753
10:57:58.641,47.0002,73.6253
10:57:58.651,45.0002,73.5628
10:57:58.661,43.6877,71.2503
10:57:58.671,41.6252,67.8753
10:57:58.681,39.1876,63.8127
10:57:58.693,36.0626,60.0002
10:57:58.701,33.8126,54.9377
10:57:58.711,30.6251,51.1252
10:57:58.721,28.0626,46.6877
10:57:58.731,26.0626,43.2502
10:57:58.741,23.8126,38.7501
10:57:58.751,23.0626,35.5001
10:57:58.761,20.8751,32.8751
10:57:58.771,19.4376,30.8751
10:57:58.783,18.1251,27.9376
10:57:58.791,16.4376,25.4376
10:57:58.801,14.5001,21.8751
10:57:58.811,13.2501,19.2501
10:57:58.821,10.375,16.0626
10:57:58.831,8,10.875
10:57:58.841,5.9375,7.25
10:57:58.851,3.0625,0.5625
10:57:58.861,-0.125,-3.8125
10:57:58.872,-2.3125,-9.1875
10:57:58.881,-6.0625,-13.7501
10:57:58.891,-8.9375,-20.1876
10:57:58.901,-12.1875,-26.6876
10:57:58.911,-16.1251,-31.3126
10:57:58.921,-18.5626,-38.1251
10:57:58.931,-22.1876,-43.5627
10:57:58.941,-24.9376,-49.9377
10:57:58.951,-28.3751,-54.9377
10:57:58.963,-30.6251,-59.6877
10:57:58.971,-32.9376,-65.6252
10:57:58.981,-34.6251,-68.8128
10:57:58.992,-37.2501,-74.2503
10:57:59.002,-39.7502,-78.4378
10:57:59.011,-41.2502,-81.6253
10:57:59.021,-44.0627,-85.3128
10:57:59.031,-45.2502,-89.2503
10:57:59.041,-47.3127,-92.4379
10:57:59.052,-48.3752,-96.5004
10:57:59.062,-51.0627,-100.3129
10:57:59.071,-52.5627,-104.0004
10:57:59.081,-54.4377,-106.2504
10:57:59.091,-55.6252,-111.0629
10:57:59.114,-58.1252,-113.7504
10:57:59.117,-59.2502,-115.6254
10:57:59.122,-61.3127,-120.938
10:57:59.154,-61.3752,-122.938
10:57:59.156,-63.3127,-125.6255
10:57:59.159,-64.1877,-127.5005
10:57:59.174,-61.6877,-124.438
10:57:59.205,-56.4377,-118.313
10:57:59.207,-48.9377,-105.1254
10:57:59.210,-39.4377,-91.3754
10:57:59.216,-28.2501,-70.9378
10:57:59.218,-17.2501,-49.3127
10:57:59.249,-5.5625,-29.1251
10:57:59.252,5.625,-9.1875
10:57:59.255,14.4376,9.0625
10:57:59.257,23.7501,26.0626
10:57:59.285,30.3751,40.4377
10:57:59.288,36.8126,52.8752
10:57:59.290,41.6877,63.8127
10:57:59.296,44.8752,70.5003
10:57:59.306,47.2502,80.8753
10:57:59.317,51.0627,85.0003
10:57:59.326,51.8127,87.2503
10:57:59.336,53.2502,89.9378
10:57:59.346,52.7502,90.4379
10:57:59.356,52.6877,90.6253
10:57:59.366,50.9377,89.9378
10:57:59.377,50.7502,87.8753
10:57:59.386,48.0627,85.1878
10:57:59.396,46.8752,81.1878
10:57:59.406,44.1252,77.8753
10:57:59.416,40.6252,72.2503
10:57:59.426,37.6251,65.7502
10:57:59.436,34.8751,59.4377
10:57:59.446,32.6876,55.4377
10:57:59.456,30.3126,50.3752
10:57:59.466,28.3126,48.0002
10:57:59.476,26.8126,44.8752
10:57:59.486,26.0626,43.0002
10:57:59.496,25.0001,40.8127
10:57:59.506,22.9376,38.7501
10:57:59.516,21.3751,36.9376
10:57:59.526,19.7501,33.6876
10:57:59.536,17.0001,30.5626
10:57:59.546,15.0001,25.6876
10:57:59.557,13.1876,22.4376
10:57:59.566,11.125,16.9376
10:57:59.576,7.9375,12.875
10:57:59.586,5.5,7
10:57:59.596,2.625,1.375
10:57:59.606,0.0625,-3.5625
10:57:59.616,-3.3125,-9.75
10:57:59.626,-6.75,-15.3126
10:57:59.641,-9.8125,-20.9376
10:57:59.656,-12.875,-27.0626
10:57:59.662,-15.1876,-32.3751
10:57:59.667,-17.7501,-37.1876
10:57:59.683,-21.1251,-41.6252
10:57:59.686,-23.0626,-47.1252
10:57:59.696,-25.3751,-50.8752
10:57:59.706,-27.7501,-56.1877
10:57:59.716,-30.5001,-60.5627
10:57:59.727,-32.8126,-64.5002
10:57:59.736,-35.4376,-69.7503
10:57:59.746,-37.0001,-73.3753
10:57:59.756,-38.8751,-78.5628
10:57:59.767,-41.0002,-82.1878
10:57:59.776,-43.6252,-87.3753
10:57:59.786,-44.6252,-90.8754
10:57:59.796,-46.8127,-93.0629
10:57:59.822,-48.4377,-98.1254
10:57:59.826,-50.5002,-101.3754
10:57:59.827,-52.1252,-104.7504
10:57:59.859,-53.6252,-106.7504
10:57:59.863,-54.8127,-110.3754
10:57:59.865,-55.7502,-113.0629
10:57:59.890,-56.6877,-114.0004
10:57:59.892,-56.1877,-114.0629
10:57:59.927,-52.9377,-110.5004
10:57:59.927,-47.8127,-100.6254
10:57:59.928,-39.3752,-88.8753
10:57:59.930,-30.0001,-70.3128
10:57:59.958,-19.0001,-52.6252
10:57:59.959,-7.6875,-32.6876
10:57:59.960,2.3125,-13
10:57:59.962,12.875,5.1875
10:57:59.970,20.1876,22.8751
10:57:59.977,28.0001,35.3126
10:57:59.989,33.2501,48.2502
10:57:59.996,38.0626,57.4377
10:58:00.006,41.5002,64.1252
10:58:00.016,43.4377,69.6253
10:58:00.026,45.7502,73.9378
10:58:00.037,45.4377,76.6253
10:58:00.046,46.0627,76.4378
10:58:00.057,45.9377,78.0003
10:58:00.066,45.9377,76.5628
10:58:00.076,44.6252,77.3128
10:58:00.086,44.3752,74.0003
10:58:00.097,43.0002,73.3128
10:58:00.106,41.0002,69.2503
10:58:00.116,37.8751,65.1877
10:58:00.126,36.0001,59.8752
10:58:00.136,32.8126,53.1877
10:58:00.147,29.6876,47.8127
10:58:00.156,26.7501,43.6252
10:58:00.166,24.2501,39.1876
10:58:00.176,21.8126,35.1876
10:58:00.187,21.1251,31.0001
10:58:00.196,20.1876,29.5001
10:58:00.207,18.7501,27.8126
10:58:00.216,18.0626,25.9376
10:58:00.226,17.9376,24.8126
10:58:00.236,16.6876,22.5001
10:58:00.246,15.5001,21.4376
10:58:00.256,14.2501,18.8751
10:58:00.266,12.75,16.5001
10:58:00.276,11.1875,12.75
10:58:00.286,8.75,9.375
10:58:00.296,6.8125,4.8125
10:58:00.306,4.125,0.5
10:58:00.316,1.25,-5.4375
10:58:00.326,-1.875,-10.5
10:58:00.336,-4.625,-16.4376
10:58:00.346,-8.5,-22.0001
10:58:00.356,-12.25,-29.0626
10:58:00.368,-14.8751,-34.3751
10:58:00.376,-18.1251,-40.7502
10:58:00.386,-20.9376,-45.8752
10:58:00.396,-24.7501,-52.6252
10:58:00.407,-27.1876,-57.6252
10:58:00.416,-30.1251,-63.7502
10:58:00.426,-32.2501,-68.0628
10:58:00.440,-34.8751,-73.5003
10:58:00.447,-37.6876,-78.0628
10:58:00.467,-39.8752,-82.9378
10:58:00.470,-42.1877,-86.7503
10:58:00.486,-44.6877,-92.1254
10:58:00.487,-46.7502,-95.1879
10:58:00.498,-48.7502,-101.0004
10:58:00.506,-51.5002,-105.1879
10:58:00.516,-51.6877,-108.0629
10:58:00.528,-54.6252,-111.5004
10:58:00.536,-56.1877,-115.0629
10:58:00.546,-57.2502,-117.7505
10:58:00.580,-59.3752,-121.7505
10:58:00.584,-59.6252,-124.5005
10:58:00.588,-60.8752,-124.563
10:58:00.589,-59.5002,-125.813
10:58:00.622,-54.8752,-119.813
10:58:00.625,-50.2502,-110.5629
10:58:00.626,-41.4377,-97.5004
10:58:00.629,-30.1251,-78.1253
10:58:00.670,-18.6251,-58.8752
10:58:00.671,-6.4375,-36.5001
10:58:00.675,4.75,-16.0001
10:58:00.700,15.1876,2.875
10:58:00.700,24.9376,22.1876
10:58:00.701,32.0626,37.9376
10:58:00.704,38.5626,49.8752
10:58:00.710,44.1877,61.4377
10:58:00.725,48.0002,70.5003
10:58:00.727,51.4377,76.4378
10:58:00.741,53.4377,83.3753
10:58:00.747,55.0627,85.3753
10:58:00.757,56.1877,88.0003
10:58:00.766,56.8127,90.0003
10:58:00.777,57.1877,91.0629
10:58:00.786,57.6877,91.1879
10:58:00.797,57.8752,91.3754
10:58:00.806,55.8752,90.1878
10:58:00.816,55.3127,88.5628
10:58:00.826,53.1252,86.2503
10:58:00.837,50.7502,82.3753
10:58:00.846,48.3752,77.2503
10:58:00.856,44.6252,72.6878
10:58:00.866,42.6252,66.6253
10:58:00.876,39.4377,62.4377
10:58:00.886,37.5001,56.5627
10:58:00.896,34.0626,53.5002
10:58:00.909,32.9376,48.6877
10:58:00.916,31.2501,47.6877
10:58:00.937,30.1251,43.4377
10:58:00.943,28.5001,42.1252
10:58:00.959,27.7501,38.9376
10:58:00.961,26.0001,37.6876
10:58:00.967,25.1876,34.3126
10:58:00.976,23.0626,33.1251
10:58:00.988,22.1876,28.4376
10:58:00.996,19.6251,26.1251
10:58:01.007,17.3126,20.3751
10:58:01.017,14.6876,17.0001
10:58:01.026,11.625,11.875
10:58:01.037,8.5,5.4375
10:58:01.046,6.1875,0.125
10:58:01.056,2.25,-5.8125
10:58:01.066,-1.25,-11.25
10:58:01.078,-3.75,-17.0001
10:58:01.086,-7.4375,-22.8126
10:58:01.096,-10.75,-28.1876
10:58:01.107,-13.5626,-33.6876
10:58:01.116,-16.6251,-40.2502
10:58:01.126,-19.0626,-44.3127
10:58:01.137,-22.1251,-50.1877
10:58:01.163,-24.8126,-55.4377
10:58:01.166,-26.6876,-59.5627
10:58:01.167,-29.0626,-64.1877
10:58:01.176,-32.4376,-67.7503
10:58:01.201,-33.7501,-73.3753
10:58:01.203,-36.2501,-76.6878
10:58:01.207,-38.1876,-81.3753
10:58:01.216,-40.6252,-85.1878
10:58:01.246,-42.1252,-89.8128
10:58:01.249,-44.9377,-92.6879
10:58:01.251,-46.3752,-97.0629
10:58:01.256,-47.0002,-100.3754
10:58:01.294,-49.3752,-104.1879
10:58:01.298,-51.6877,-107.6254
10:58:01.299,-52.0002,-110.0004
10:58:01.302,-53.3752,-110.1879
10:58:01.307,-52.3127,-112.2504
10:58:01.340,-50.4377,-108.3754
10:58:01.341,-45.0627,-102.1879
10:58:01.344,-36.6251,-89.3753
10:58:01.346,-27.3126,-72.0628
10:58:01.375,-15.1876,-52.6252
10:58:01.377,-4,-31.5001
10:58:01.383,7.75,-11.125
10:58:01.387,18.3126,9.625
10:58:01.396,27.9376,27.6876
10:58:01.407,36.4376,44.8127
10:58:01.416,43.2502,57.4377
10:58:01.427,48.6877,69.3128
10:58:01.437,53.5002,77.3753
10:58:01.446,56.9377,86.0003
10:58:01.457,58.6252,89.5003
10:58:01.467,60.5002,93.6254
10:58:01.477,60.8127,98.0004
10:58:01.486,61.8127,97.8754
10:58:01.497,62.0002,100.3129
10:58:01.508,62.1252,99.3129
10:58:01.517,62.3752,99.0004
10:58:01.527,60.9377,98.6254
10:58:01.536,59.5002,95.9379
10:58:01.547,58.0002,93.0629
10:58:01.556,55.4377,88.3128
10:58:01.567,51.5627,84.0003
10:58:01.578,48.6252,78.0628
10:58:01.587,45.4377,72.9378
10:58:01.597,43.6252,68.8128
10:58:01.607,40.8752,63.3127
10:58:01.617,38.7501,60.5627
10:58:01.626,37.4376,57.9377
10:58:01.636,36.3751,54.6877
10:58:01.646,35.8126,53.4377
10:58:01.656,34.6876,51.7502
10:58:01.668,33.8126,50.6252
10:58:01.676,33.0626,48.0627
10:58:01.687,31.5001,46.6252
10:58:01.697,30.7501,44.3127
10:58:01.707,28.6251,41.1877
10:58:01.718,26.5626,37.8751
10:58:01.726,24.8751,33.4376
10:58:01.737,22.0626,30.5626
10:58:01.746,20.3751,24.8751
10:58:01.763,17.1251,20.8126
10:58:01.767,14.5001,15.4376
10:58:01.782,11.125,10.3125
10:58:01.797,8.4375,4.625
10:58:01.802,5.25,-1.6875
10:58:01.818,3.25,-6.625
10:58:01.820,0.5,-11.125
10:58:01.827,-2.0625,-15.8751
10:58:01.839,-5,-20.1251
10:58:01.848,-7.0625,-24.9376
10:58:01.856,-10.0625,-29.3126
10:58:01.867,-12.5625,-34.6251
10:58:01.876,-15.5001,-39.6877
10:58:01.886,-17.9376,-44.7502
10:58:01.897,-20.5626,-50.0627
10:58:01.907,-22.5626,-54.0627
10:58:01.916,-25.2501,-58.6877
10:58:01.927,-27.6876,-62.4377
10:58:01.937,-30.5001,-67.1878
10:58:01.947,-31.9376,-71.4378
10:58:01.957,-34.0626,-75.0628
10:58:01.967,-36.3751,-78.5628
10:58:01.976,-37.8751,-82.7503
10:58:01.987,-39.2502,-85.4378
10:58:01.997,-41.3752,-87.8128
10:58:02.031,-42.0002,-90.6253
10:58:02.033,-39.6252,-88.2503
10:58:02.035,-36.1251,-83.0003
10:58:02.037,-29.3751,-72.9378
10:58:02.067,-20.6251,-57.3127
10:58:02.071,-10.4375,-40.1252
10:58:02.074,0.9375,-20.7501
10:58:02.079,12.875,0.6875
10:58:02.108,22.0626,20.0001
10:58:02.111,32.3126,37.0626
10:58:02.114,40.8752,53.1252
10:58:02.119,46.4377,66.5003
10:58:02.151,52.0627,76.5003
10:58:02.154,56.6877,85.6253
10:58:02.156,59.1877,91.9379
10:58:02.163,61.5627,96.7504
10:58:02.178,62.0002,99.0629
10:58:02.180,62.5002,100.5629
10:58:02.192,63.1877,102.2504
10:58:02.197,62.4377,101.6879
10:58:02.207,62.0002,101.4379
10:58:02.216,61.1252,101.0629
10:58:02.237,59.4377,98.8754
10:58:02.244,58.3752,96.0004
10:58:02.255,55.4377,91.6879
10:58:02.257,51.8127,86.6253
10:58:02.275,49.2502,79.9378
10:58:02.281,45.3127,74.3128
10:58:02.289,41.7502,69.6253
10:58:02.297,40.0627,63.0627
10:58:02.307,38.1876,59.3752
10:58:02.316,36.2501,56.0627
10:58:02.327,34.3751,53.4377
10:58:02.336,34.5001,51.8127
10:58:02.347,32.8751,50.1252
10:58:02.357,32.2501,47.8127
10:58:02.367,31.1251,45.9377
10:58:02.377,30.6251,43.8752
10:58:02.386,28.8126,41.9377
10:58:02.396,27.1876,39.3127
10:58:02.407,26.1876,35.1251
10:58:02.418,22.6876,32.1251
10:58:02.442,20.4376,27.8126
10:58:02.445,17.6251,22.5626
10:58:02.448,15.0626,17.6251
10:58:02.458,11.25,10.875
10:58:02.467,8.0625,5.3125
10:58:02.477,5.3125,-0.3125
10:58:02.486,1.1875,-5.5
10:58:02.498,-2,-12.125
10:58:02.509,-5.25,-19.4376
10:58:02.517,-8.8125,-24.7501
10:58:02.527,-11.375,-30.8751
10:58:02.537,-14.8126,-35.0626
10:58:02.546,-17.3126,-40.3752
10:58:02.557,-20.1251,-45.8752
10:58:02.567,-23.2501,-51.7502
10:58:02.576,-25.0626,-55.1877
10:58:02.587,-27.5001,-60.6252
10:58:02.598,-30.1876,-64.9377
10:58:02.607,-32.5001,-70.2503
10:58:02.617,-34.6876,-73.5003
10:58:02.627,-37.1876,-78.5003
10:58:02.637,-39.6877,-82.0628
10:58:02.647,-40.8127,-86.1253
10:58:02.658,-43.0002,-90.6254
10:58:02.667,-46.0002,-92.9379
10:58:02.677,-46.6877,-97.3754
10:58:02.689,-49.1252,-100.5004
10:58:02.697,-49.6877,-102.3129
10:58:02.708,-50.8127,-104.5004
10:58:02.728,-51.1252,-107.0004
10:58:02.731,-47.5002,-103.2504
10:58:02.737,-41.5002,-93.7504
10:58:02.768,-33.5626,-80.6253
10:58:02.771,-22.3126,-63.0627
10:58:02.773,-10.5,-41.4377
10:58:02.778,0.4375,-21.5626
10:58:02.806,12.5,0.5
10:58:02.808,22.6876,21.2501
10:58:02.810,34.1251,38.7501
10:58:02.848,40.8127,55.6877
10:58:02.849,47.8752,66.9378
10:58:02.853,52.6252,79.2503
10:58:02.858,56.9377,86.8753
10:58:02.859,59.9377,94.1879
10:58:02.894,62.1252,98.3129
10:58:02.898,63.6877,101.6879
10:58:02.900,64.5627,105.0629
10:58:02.902,65.3128,106.5004
10:58:02.909,65.1252,106.8129
10:58:02.917,64.6252,106.6879
10:58:02.927,65.3128,105.8129
10:58:02.937,62.9377,106.6254
10:58:02.947,62.6877,103.7504
10:58:02.957,60.6252,101.7504
10:58:02.967,58.5627,96.6879
10:58:02.977,55.2502,92.7504
10:58:02.988,52.1877,86.5628
10:58:02.998,49.5002,80.8753
10:58:03.007,46.7502,76.2503
10:58:03.017,44.8127,71.8753
10:58:03.027,41.1252,67.1878
10:58:03.037,40.1877,63.6877
10:58:03.048,37.9376,60.8127
10:58:03.057,36.8126,59.5002
10:58:03.067,36.2501,56.3752
10:58:03.083,34.9376,55.5627
10:58:03.091,34.0626,52.5002
10:58:03.098,32.6251,50.3127
10:58:03.113,31.5626,46.8752
10:58:03.116,28.5626,44.8752
10:58:03.127,27.0001,40.0002
10:58:03.138,24.6876,36.5001
10:58:03.152,21.7501,31.6876
10:58:03.163,18.7501,25.9376
10:58:03.173,15.8126,21.6251
10:58:03.182,12.875,15.2501
10:58:03.192,9.3125,9.4375
10:58:03.203,6.4375,3.8125
10:58:03.213,2.0625,-2.6875
10:58:03.222,-0.8125,-8.375
10:58:03.232,-4.375,-13.6876
10:58:03.243,-6.875,-19.8126
10:58:03.252,-10.25,-25.3126
10:58:03.262,-12.6875,-29.8126
10:58:03.272,-15.0001,-35.7501
10:58:03.282,-17.1876,-40.1877
10:58:03.292,-20.8126,-44.8127
10:58:03.302,-23.0626,-50.1877
10:58:03.313,-27.8751,-58.0627
10:58:03.322,-29.8126,-62.6252
10:58:03.333,-32.5001,-65.5628
10:58:03.342,-34.3751,-71.5003
10:58:03.352,-37.0626,-76.3753
10:58:03.362,-39.7502,-79.6878
10:58:03.372,-41.3127,-84.7503
10:58:03.382,-43.9377,-88.2503
10:58:03.392,-45.0002,-91.6254
10:58:03.402,-46.9377,-95.7504
10:58:03.412,-49.0627,-98.1879
10:58:03.422,-50.6877,-102.1879
10:58:03.432,-50.3752,-102.5629
10:58:03.442,-48.5002,-101.6254
10:58:03.476,-43.8127,-95.0629
10:58:03.478,-36.3751,-82.1253
10:58:03.481,-26.0001,-65.5627
10:58:03.482,-14.9376,-46.7502
10:58:03.518,-3.0625,-25.1251
10:58:03.520,8.5,-5.25
10:58:03.523,20.3751,16.1251
10:58:03.525,29.0626,34.8751
10:58:03.531,37.8751,50.1252
10:58:03.564,44.6252,64.6252
10:58:03.640,49.8752,75.5003
10:58:03.640,55.0002,84.5003
10:58:03.654,57.1252,91.0004
10:58:03.656,59.3127,95.1254
10:58:03.663,61.1877,99.5629
10:58:03.663,62.1877,102.0629
10:58:03.663,62.8127,103.2504
10:58:03.663,63.4377,104.2504
10:58:03.672,62.4377,105.0629
10:58:03.683,62.6877,103.9379
10:58:03.692,62.3752,103.6254
10:58:03.723,60.6252,102.7504
10:58:03.725,59.0002,98.7504
10:58:03.727,55.9377,94.3129
10:58:03.733,53.0002,89.8128
10:58:03.742,49.6877,84.1253
10:58:03.753,46.4377,79.5003
10:58:03.762,43.6877,72.9378
10:58:03.772,41.8127,68.6253
10:58:03.783,39.7502,64.7502
10:58:03.792,37.6876,60.8752
10:58:03.803,35.8126,57.8127
10:58:03.817,33.7501,55.7502
10:58:03.822,30.1876,47.1252
10:58:03.832,28.1251,43.7502
10:58:03.842,25.1876,39.8752
10:58:03.852,22.8751,36.0626
10:58:03.862,20.6251,31.5001
10:58:03.872,17.3126,26.6251
10:58:03.882,14.2501,21.4376
10:58:03.893,10.75,15.3126
10:58:03.902,8,8.8125
10:58:03.913,4.75,3.75
10:58:03.922,1.25,-3.125
10:58:03.933,-2.5,-8.4375
10:58:03.942,-5.1875,-14.3751
10:58:03.952,-8.6875,-20.5626
10:58:03.962,-12.0625,-26.0626
10:58:03.972,-15.0626,-32.6251
10:58:03.982,-18.1876,-36.3126
10:58:03.992,-20.1876,-42.1877
10:58:04.002,-22.8126,-46.1252
10:58:04.012,-25.1876,-51.1252
10:58:04.022,-27.6876,-56.5627
10:58:04.032,-29.0626,-59.4377
10:58:04.042,-31.3126,-63.8752
10:58:04.052,-34.0001,-67.4378
10:58:04.062,-35.3751,-71.7503
10:58:04.072,-38.6876,-75.1253
10:58:04.082,-39.5002,-79.4378
10:58:04.093,-42.3127,-82.2503
10:58:04.103,-42.4377,-86.3753
10:58:04.112,-45.5627,-89.6253
10:58:04.122,-46.9377,-93.7504
10:58:04.132,-48.6877,-95.8129
10:58:04.142,-50.1252,-99.6254
10:58:04.152,-50.0002,-101.2504
10:58:04.162,-51.2502,-102.5004
10:58:04.172,-50.3752,-102.8754
10:58:04.183,-46.7502,-97.9379
10:58:04.193,-40.3127,-88.4378
10:58:04.223,-31.3751,-73.4378
10:58:04.225,-20.0626,-55.1877
10:58:04.227,-8.9375,-35.1876
10:58:04.232,2.4375,-13.7501
10:58:04.259,14.0626,7.125
10:58:04.261,24.1876,26.1876
10:58:04.264,32.1251,42.6877
10:58:04.296,39.3127,56.7502
10:58:04.299,45.5002,67.1253
10:58:04.301,48.3127,75.6878
10:58:04.304,51.7502,81.8128
10:58:04.344,53.0627,86.8753
10:58:04.346,54.0002,88.8753
10:58:04.348,54.0002,90.1253
10:58:04.353,53.9377,90.0628
10:58:04.354,53.5002,90.6879
10:58:04.363,52.9377,89.7503
10:58:04.378,51.1877,88.0628
10:58:04.382,49.3127,86.3128
10:58:04.399,47.9377,82.8753
10:58:04.415,45.0627,79.6253
10:58:04.417,42.4377,74.4378
10:58:04.433,39.3752,68.0003
10:58:04.435,35.6251,63.9377
10:58:04.450,32.9376,57.1252
10:58:04.454,30.7501,52.8127
10:58:04.462,28.2501,48.3127
10:58:04.472,26.5626,44.6252
10:58:04.482,25.6251,42.0002
10:58:04.492,23.8751,40.1252
10:58:04.502,22.8751,39.3752
10:58:04.512,22.1876,37.0626
10:58:04.522,21.0001,35.2501
10:58:04.534,20.5626,33.4376
10:58:04.542,19.2501,31.3751
10:58:04.552,17.6251,28.1876
10:58:04.567,16.6251,26.1876
10:58:04.572,13.7501,22.6876
10:58:04.582,11.75,18.7501
10:58:04.592,9.125,14.2501
10:58:04.602,6.4375,9.625
10:58:04.612,3.75,5.25
10:58:04.622,0.5625,-1.0625
10:58:04.634,-2.875,-6.8125
10:58:04.643,-5.8125,-11.875
10:58:04.652,-8.8125,-18.5626
10:58:04.662,-12.5,-23.4376
10:58:04.672,-15.0626,-29.7501
10:58:04.682,-18.8751,-35.4376
10:58:04.694,-21.0001,-40.6252
10:58:04.702,-23.7501,-45.4377
10:58:04.712,-26.3751,-50.1877
10:58:04.722,-28.8126,-55.4377
10:58:04.736,-31.6251,-59.3127
10:58:04.742,-33.8126,-63.2502
10:58:04.753,-36.3751,-68.3753
10:58:04.762,-38.2501,-72.8128
10:58:04.773,-39.8752,-76.8128
10:58:04.782,-42.1877,-81.1253
10:58:04.793,-44.5627,-84.4378
10:58:04.802,-46.6877,-88.5628
10:58:04.812,-48.0627,-93.0004
10:58:04.822,-49.8752,-94.7504
10:58:04.833,-51.5627,-98.8129
10:58:04.842,-53.0627,-101.4379
10:58:04.852,-54.7502,-104.5004
10:58:04.862,-55.0627,-107.8754
10:58:04.877,-56.8752,-109.6879
10:58:04.883,-55.3127,-110.2504
10:58:04.910,-53.3752,-105.7504
10:58:04.912,-47.0627,-97.4379
10:58:04.927,-37.8751,-83.5003
10:58:04.930,-28.0626,-65.2503
10:58:05.010,-15.1876,-44.9377
10:58:05.010,-3.375,-21.8751
10:58:05.011,8.5,-1.75
10:58:05.018,19.3126,19.3126
10:58:05.019,28.1876,37.2501
10:58:05.019,36.0001,52.0002
10:58:05.051,41.7502,65.5628
10:58:05.054,46.8752,74.5003
10:58:05.058,50.8752,82.2503
10:58:05.059,52.5627,88.9378
10:58:05.072,54.5627,91.3754
10:58:05.077,54.5002,95.4379
10:58:05.087,55.2502,95.5004
10:58:05.097,54.7502,96.6879
10:58:05.107,54.0627,95.3754
10:58:05.118,53.0627,95.6879
10:58:05.127,52.8127,93.0629
10:58:05.138,50.8752,92.0629
10:58:05.149,49.3127,87.8753
10:58:05.158,46.8752,84.5003
10:58:05.167,43.6877,79.0628
10:58:05.177,40.1877,73.8753
10:58:05.187,31.0001,55.5627
10:58:05.197,28.6876,53.0627
10:58:05.207,27.4376,49.8752
10:58:05.217,26.1251,46.6877
10:58:05.227,25.3126,46.3127
10:58:05.237,24.6251,44.4377
10:58:05.247,23.1251,42.4377
10:58:05.257,22.7501,40.2502
10:58:05.267,20.0001,38.3751
10:58:05.277,18.5001,35.2501
10:58:05.287,15.5626,30.6876
10:58:05.297,10.1875,25.7501
10:58:05.307,4.3125,17.6876
10:58:05.317,-3.3125,9.1875
10:58:05.327,-10.875,0.9375
10:58:05.338,-20.8751,-9
10:58:05.347,-30.7501,-18.8751
10:58:05.357,-40.7502,-28.3126
10:58:05.367,-51.0002,-37.2501
10:58:05.377,-55.9377,-42.2502
10:58:05.387,-56.3752,-44.1252
10:58:05.398,-56.5002,-44.8127
10:58:05.407,-56.8752,-45.8752
10:58:05.417,-57.7502,-46.8127
10:58:05.428,-59.3127,-48.4377
10:58:05.437,-60.1877,-49.6877
10:58:05.452,-60.1252,-50.3127
10:58:05.457,-59.7502,-51.2502
10:58:05.467,-59.3752,-51.8127
10:58:05.477,-58.9377,-52.5002
10:58:05.487,-60.0627,-53.3127
10:58:05.498,-58.6252,-54.4377
10:58:05.507,-59.2502,-55.1877
10:58:05.517,-58.5002,-56.8127
10:58:05.527,-57.8752,-56.8752
10:58:05.537,-57.0002,-58.6252
10:58:05.547,-56.1252,-58.8752
10:58:05.557,-56.6252,-60.3752
10:58:05.567,-56.0627,-62.6877
10:58:05.577,-55.8752,-63.2502
10:58:05.587,-55.4377,-65.5002
10:58:05.597,-55.2502,-67.7503
10:58:05.608,-53.6877,-66.6253
10:58:05.617,-50.5627,-65.0627
10:58:05.627,-45.4377,-57.1877
10:58:05.637,-37.1251,-45.5002
10:58:05.647,-26.1251,-29.0001
10:58:05.657,-15.1876,-9.4375
10:58:05.681,-3,9.1875
10:58:05.683,8.375,30.7501
10:58:05.689,18.6876,49.3127
10:58:05.722,28.5626,66.4378
10:58:05.757,35.8126,81.2503
10:58:05.771,42.1877,93.8754
10:58:05.775,47.1877,105.0629
10:58:05.833,50.1252,110.6879
10:58:05.835,52.4377,116.1879
10:58:05.835,53.2502,121.3755
10:58:05.835,54.3752,121.813
10:58:05.838,54.8127,123.063
10:58:05.842,53.2502,123.1255
10:58:05.845,52.2502,120.3755
10:58:05.845,49.8752,119.1255
10:58:05.852,48.7502,115.2504
10:58:05.866,45.8127,111.6879
10:58:05.872,43.2502,107.4379
10:58:05.882,39.6877,102.4379
10:58:05.892,36.5626,95.3754
10:58:05.902,32.4376,89.3128
10:58:05.912,28.6876,80.3753
10:58:05.923,24.3751,72.9378
10:58:05.932,20.3751,65.9378
10:58:05.942,16.9376,58.8127
10:58:05.952,14.6251,52.9377
10:58:05.963,10.9375,45.6252
10:58:05.972,10,43.0002
10:58:05.982,9.625,40.8127
10:58:05.994,9.5,38.9376
10:58:06.002,9.125,37.7501
10:58:06.012,9.375,32.7501
10:58:06.022,7.5,29.8126
10:58:06.032,6,25.8751
10:58:06.042,3.25,21.5001
10:58:06.052,1,17.9376
10:58:06.063,-0.1875,12.8125
10:58:06.072,-2.8125,7.9375
10:58:06.082,-5.4375,3.9375
10:58:06.092,-8.1875,-2.75
10:58:06.104,-11.0625,-7.3125
10:58:06.112,-12.25,-12.125
10:58:06.122,-14.7501,-15.8751
10:58:06.132,-18.3751,-19.7501
10:58:06.142,-20.0001,-25.4376
10:58:06.153,-22.8751,-29.8751
10:58:06.162,-24.5626,-34.2501
10:58:06.172,-26.5001,-37.4376
10:58:06.183,-28.2501,-38.8126
10:58:06.192,-29.5001,-42.0002
10:58:06.202,-31.0626,-44.7502
10:58:06.214,-32.1876,-46.9377
10:58:06.222,-33.0626,-50.1877
10:58:06.232,-34.5001,-52.2502
10:58:06.246,-36.0001,-55.5002
10:58:06.253,-37.4376,-57.0627
10:58:06.282,-39.6252,-60.5002
10:58:06.300,-40.8752,-64.0627
10:58:06.312,-43.5002,-66.8128
10:58:06.314,-45.3127,-71.1253
10:58:06.329,-46.4377,-72.7503
10:58:06.329,-47.8752,-76.6253
10:58:06.331,-49.0002,-77.5628
10:58:06.333,-50.2502,-80.0628
10:58:06.343,-48.0627,-78.1878
10:58:06.353,-45.6877,-71.6878
10:58:06.382,-38.0626,-63.6252
10:58:06.383,-29.3751,-47.7502
10:58:06.386,-18.8126,-31.2501
10:58:06.392,-6.75,-11
10:58:06.425,3.9375,10.875
10:58:06.426,16.1876,32.3126
10:58:06.429,26.1251,51.6877
10:58:06.461,35.8126,70.1878
10:58:06.463,42.6252,85.3753
10:58:06.464,49.0627,98.6879
10:58:06.470,53.8127,108.1254
10:58:06.473,57.9377,115.3129
10:58:06.510,60.5627,122.7505
10:58:06.512,62.5002,125.938
10:58:06.513,64.1877,128.688
10:58:06.517,65.5628,129.6255
10:58:06.522,66.1253,131.563
10:58:06.539,65.6878,129.938
10:58:06.543,64.8127,129.7505
10:58:06.553,62.8127,127.3755
10:58:06.563,61.1877,122.6255
10:58:06.572,58.4377,118.2505
10:58:06.582,55.8127,113.8129
10:58:06.592,52.2502,106.3754
10:58:06.603,49.3752,100.8754
10:58:06.612,46.3127,94.6254
10:58:06.622,42.6877,88.4378
10:58:06.632,40.5002,84.3753
10:58:06.643,38.8751,79.4378
10:58:06.652,36.7501,76.7503
10:58:06.662,36.3751,72.0628
10:58:06.672,34.5626,69.5003
10:58:06.682,33.6876,66.5003
10:58:06.692,32.6251,64.2502
10:58:06.702,30.3751,61.5627
10:58:06.712,28.0626,58.0627
10:58:06.723,26.1251,52.0627
10:58:06.732,22.4376,47.5627
10:58:06.742,19.1251,41.6877
10:58:06.753,15.6876,36.1876
10:58:06.762,12.4375,30.3751
10:58:06.772,9,23.1876
10:58:06.783,4.8125,16.5001
10:58:06.792,0.4375,8.625
10:58:06.802,-4.5625,0.8125
10:58:06.812,-8.625,-6.4375
10:58:06.823,-13.3126,-16.0001
10:58:06.832,-18.1876,-22.8751
10:58:06.842,-21.8126,-32.0626
10:58:06.852,-26.7501,-38.9376
10:58:06.862,-30.5626,-46.5627
10:58:06.872,-34.1251,-54.9377
10:58:06.882,-37.4376,-61.6252
10:58:06.892,-41.8752,-69.2503
10:58:06.902,-45.1252,-75.3753
10:58:06.912,-48.4377,-83.3753
10:58:06.922,-51.5002,-89.6878
10:58:06.932,-54.8127,-97.0004
10:58:06.942,-56.6252,-101.9379
10:58:06.952,-60.0627,-107.9379
10:58:06.963,-62.8752,-113.5004
10:58:06.972,-65.8753,-120.688
10:58:06.982,-70.0003,-126.813
10:58:06.996,-73.3753,-133.8755
10:58:07.004,-76.6878,-138.7505
10:58:07.012,-79.7503,-143.8755
10:58:07.022,-81.6253,-150.1256
10:58:07.032,-82.6878,-153.9381
10:58:07.042,-84.8128,-157.8756
10:58:07.052,-84.1878,-159.5006
10:58:07.062,-82.4378,-156.9381
10:58:07.090,-77.3753,-148.3131
10:58:07.095,-68.8753,-136.6255
10:58:07.129,-57.6252,-116.8129
10:58:07.193,-43.7502,-94.6879
10:58:07.195,-29.2501,-70.3128
10:58:07.197,-16.4376,-48.1877
10:58:07.197,-4.0625,-26.5001
10:58:07.198,6,-7
10:58:07.202,14.5001,9
10:58:07.235,21.0001,23.2501
10:58:07.235,26.8126,34.6251
10:58:07.235,30.5626,45.0002
10:58:07.236,34.5626,51.6877
10:58:07.238,38.5001,59.0002
10:58:07.244,41.5002,66.3128
10:58:07.246,43.7502,68.6878
10:58:07.262,45.6877,72.7503
10:58:07.265,46.8752,73.9378
10:58:07.272,45.6877,75.0628
10:58:07.288,45.7502,73.5003
10:58:07.297,44.7502,73.0003
10:58:07.307,43.4377,71.3128
10:58:07.317,42.0627,68.5628
10:58:07.327,38.3126,65.0002
10:58:07.337,35.2501,60.5627
10:58:07.347,32.4376,54.9377
10:58:07.357,30.4376,51.9377
10:58:07.368,27.6876,47.8752
10:58:07.378,24.8751,45.6252
10:58:07.387,24.1251,44.3752
10:58:07.397,24.7501,44.0002
10:58:07.407,23.8751,44.7502
10:58:07.418,24.1251,44.0627
10:58:07.427,23.1251,43.5002
10:58:07.438,21.5001,41.9377
10:58:07.449,19.7501,40.5627
10:58:07.457,18.5626,37.5001
10:58:07.467,16.0001,34.1251
10:58:07.478,14.0001,31.7501
10:58:07.487,12.1875,28.0626
10:58:07.497,9.1875,23.8751
10:58:07.508,6.375,19.1876
10:58:07.517,3.1875,15.3126
10:58:07.528,1.0625,10.6875
10:58:07.538,-1.75,5.625
10:58:07.563,-5.4375,0.0625
10:58:07.567,-7.8125,-3.9375
10:58:07.568,-9.4375,-7.9375
10:58:07.577,-11.4375,-12.8125
10:58:07.596,-14.3126,-17.3126
10:58:07.603,-16.0001,-19.6876
10:58:07.618,-17.1876,-23.8126
10:58:07.621,-18.5626,-27.1251
10:58:07.636,-20.3126,-31.7501
10:58:07.651,-22.6251,-34.5001
10:58:07.653,-23.6876,-38.0626
10:58:07.660,-25.5001,-42.0627
10:58:07.667,-27.3751,-46.1252
10:58:07.678,-28.5626,-48.6252
10:58:07.690,-30.8126,-53.5627
10:58:07.699,-32.5626,-57.6252
10:58:07.707,-34.5001,-62.0002
10:58:07.717,-36.3751,-64.8127
10:58:07.727,-38.1251,-69.9378
10:58:07.738,-39.6252,-72.0003
10:58:07.749,-39.5002,-74.7503
10:58:07.758,-37.7501,-73.6878
10:58:07.768,-33.6876,-67.6878
10:58:07.777,-26.4376,-57.4377
10:58:07.787,-16.3751,-41.4377
10:58:07.797,-5.1875,-23.1876
10:58:07.808,6.5,-1.625
10:58:07.818,17.5001,17.8751
10:58:07.831,28.5626,37.6876
10:58:07.857,37.1876,56.6877
10:58:07.860,45.0002,71.1253
10:58:07.862,51.4377,83.1878
10:58:07.869,56.1877,94.0004
10:58:07.898,59.0002,101.6254
10:58:07.899,61.5627,105.4379
10:58:07.901,62.0002,109.3129
10:58:07.937,62.2502,109.6879
10:58:07.941,62.3127,110.0004
10:58:07.941,60.6252,109.0629
10:58:07.942,58.6252,106.6254
10:58:07.949,56.6252,103.9379
10:58:07.986,53.8752,100.3754
10:58:07.986,51.6252,96.5004
10:58:07.989,48.3127,92.7504
10:58:07.991,45.8127,86.7503
10:58:07.997,41.5002,80.8753
10:58:08.010,37.4376,72.6878
10:58:08.018,32.0626,63.1877
10:58:08.029,27.8126,55.4377
10:58:08.037,22.5001,46.0002
10:58:08.047,18.7501,39.0626
10:58:08.059,15.0626,31.9376
10:58:08.067,11.4375,24.5001
10:58:08.077,8.6875,18.8751
10:58:08.089,4.6875,14.0626
10:58:08.097,3.125,9.625
10:58:08.107,0.5,6.0625
10:58:08.122,-0.25,2.1875
10:58:08.130,-2.3125,-1.6875
10:58:08.139,-5.8125,-5.125
10:58:08.148,-7.625,-9.8125
10:58:08.159,-9.75,-14.5626
10:58:08.168,-12.75,-20.4376
10:58:08.177,-16.1876,-25.4376
10:58:08.188,-20.0626,-31.3751
10:58:08.197,-23.1251,-36.4376
10:58:08.208,-25.7501,-42.7502
10:58:08.217,-28.9376,-48.3752
10:58:08.228,-31.8126,-53.5002
10:58:08.238,-35.2501,-61.1877
10:58:08.248,-37.7501,-67.1878
10:58:08.260,-40.8752,-72.5628
10:58:08.267,-44.3127,-78.3128
10:58:08.278,-46.1877,-84.0003
10:58:08.290,-50.1252,-88.8753
10:58:08.299,-52.8752,-95.1254
10:58:08.308,-55.5002,-99.9379
10:58:08.317,-57.5002,-103.5004
10:58:08.327,-59.3127,-108.4379
10:58:08.338,-60.6877,-111.5629
10:58:08.348,-61.6877,-114.5629
10:58:08.359,-62.9377,-117.188
10:58:08.368,-63.9377,-120.438
10:58:08.377,-65.5628,-123.0005
10:58:08.388,-66.7503,-126.2505
10:58:08.397,-68.0003,-128.1255
10:58:08.408,-68.9378,-131.2505
10:58:08.418,-70.3128,-132.6255
10:58:08.438,-70.3753,-135.0005
10:58:08.441,-69.8128,-134.2505
10:58:08.451,-68.9378,-134.313
10:58:08.458,-66.1878,-131.8755
10:58:08.474,-62.6877,-126.188
10:58:08.481,-55.1252,-115.9379
10:58:08.489,-46.6252,-100.5004
10:58:08.497,-34.2501,-81.4378
10:58:08.537,-20.9376,-58.5627
10:58:08.539,-8.4375,-32.9376
10:58:08.541,5,-9.375
10:58:08.543,18.6876,14.6876
10:58:08.550,28.1876,35.9376
10:58:08.587,37.9376,54.7502
10:58:08.589,45.4377,71.6253
10:58:08.591,51.6252,84.6253
10:58:08.598,57.8752,96.6879
10:58:08.600,61.8127,106.4379
10:58:08.609,65.0627,113.7504
10:58:08.635,66.9378,119.8755
10:58:08.637,68.3128,122.6255
10:58:08.640,68.7503,126.7505
10:58:08.679,69.3753,127.438
10:58:08.680,69.8753,129.188
10:58:08.682,69.1253,129.8755
10:58:08.685,67.3753,128.8755
10:58:08.690,66.0003,127.6255
10:58:08.698,63.6252,125.1255
10:58:08.708,60.1252,121.0005
10:58:08.717,57.8127,116.0629
10:58:08.729,54.1252,111.1879
10:58:08.737,50.4377,105.5004
10:58:08.748,47.7502,100.1254
10:58:08.757,45.0627,96.4379
10:58:08.768,42.9377,92.9379
10:58:08.778,41.7502,90.6253
10:58:08.788,40.5627,89.2503
10:58:08.797,40.0002,89.0003
10:58:08.809,40.4377,87.6878
10:58:08.818,40.0002,87.8753
10:58:08.843,40.2502,85.8753
10:58:08.846,39.0001,84.6253
10:58:08.850,38.1876,83.4378
10:58:08.861,36.5626,79.4378
10:58:08.872,35.1251,76.5003
10:58:08.878,33.1251,72.8753
10:58:08.888,30.0001,68.0628
10:58:08.898,27.8126,62.8127
10:58:08.918,23.3126,56.5002
10:58:08.925,21.3751,50.8127
10:58:08.932,17.0626,44.7502
10:58:08.939,13.8751,38.7501
10:58:08.957,10.6875,31.6251
10:58:08.962,8.125,26.5001
10:58:08.971,5.375,19.1251
10:58:08.979,1.8125,14.3126
10:58:08.987,-1.25,6.625
10:58:08.998,-5.25,1.125
10:58:09.008,-7.8125,-6.1875
10:58:09.018,-11.875,-12.25
10:58:09.029,-14.3126,-19.6876
10:58:09.039,-18.9376,-25.8126
10:58:09.047,-22.3751,-33.6251
10:58:09.058,-25.7501,-39.4377
10:58:09.069,-29.7501,-47.7502
10:58:09.077,-33.8751,-54.8127
10:58:09.087,-37.8126,-61.1877
10:58:09.099,-40.6877,-67.0003
10:58:09.109,-44.0627,-74.1253
10:58:09.118,-47.0002,-80.8128
10:58:09.130,-51.0627,-87.3128
10:58:09.138,-54.8127,-93.6254
10:58:09.149,-57.5002,-100.2504
10:58:09.158,-59.8752,-105.0004
10:58:09.168,-60.2502,-106.0629
10:58:09.177,-57.6877,-104.1879
10:58:09.187,-51.8752,-97.5004
10:58:09.198,-43.5002,-84.5628
10:58:09.210,-33.1251,-67.0003
10:58:09.218,-22.6876,-46.8127
10:58:09.228,-12.5,-29.8126
10:58:09.238,-2,-11.6875
10:58:09.252,6.875,6
10:58:09.258,14.0001,18.3751
10:58:09.269,20.5626,31.1251
10:58:09.278,24.5001,41.5627
10:58:09.299,27.7501,46.8127
10:58:09.302,29.5001,51.7502
10:58:09.331,29.2501,53.8752
10:58:09.334,30.0626,54.8752
10:58:09.336,28.7501,55.0627
10:58:09.338,27.6251,53.8127
10:58:09.369,26.1251,52.8752
10:58:09.371,24.3126,49.6252
10:58:09.374,22.5626,46.3127
10:58:09.378,19.9376,45.0002
10:58:09.413,18.0626,38.3751
10:58:09.416,13.6876,34.8126
10:58:09.419,11.5,27.3751
10:58:09.423,7.5625,21.8751
10:58:09.432,4.3125,14.8126
10:58:09.458,0.1875,8.75
10:58:09.460,-2.4375,3.25
10:58:09.462,-4.9375,-2.1875
10:58:09.468,-6.4375,-4.8125
10:58:09.479,-7.9375,-7.6875
10:58:09.488,-8.5,-9.1875
10:58:09.497,-7.3125,-8.875
10:58:09.508,-7.4375,-9.5625
10:58:09.518,-7,-9.75
10:58:09.527,-7.75,-9.5625
10:58:09.539,-7.9375,-9.75
10:58:09.548,-8.1875,-10.0625
10:58:09.558,-8.3125,-10.125
10:58:09.570,-9.25,-10.4375
10:58:09.578,-9.25,-11.3125
10:58:09.587,-8.1875,-11.75
10:58:09.598,-8.8125,-14.0626
10:58:09.608,-10.625,-15.9376
10:58:09.618,-10.625,-19.0001
10:58:09.627,-13.6251,-21.1251
10:58:09.638,-16.3126,-27.3126
10:58:09.648,-18.8126,-30.7501
10:58:09.657,-21.0626,-34.0626
10:58:09.670,-22.8751,-37.4376
10:58:09.679,-24.5001,-41.4377
10:58:09.689,-26.8751,-43.6252
10:58:09.698,-29.2501,-49.0002
10:58:09.708,-30.4376,-51.4377
10:58:09.717,-31.8126,-53.5627
10:58:09.728,-34.1876,-56.0627
10:58:09.738,-34.6876,-59.6252
10:58:09.756,-37.6876,-62.5627
10:58:09.759,-39.2502,-66.3128
10:58:09.773,-40.7502,-68.8753
10:58:09.788,-42.6252,-71.4378
10:58:09.791,-44.1877,-75.0003
10:58:09.801,-46.0627,-76.7503
10:58:09.807,-47.5002,-79.6878
10:58:09.819,-48.5627,-82.3753
10:58:09.830,-50.1252,-84.5628
10:58:09.838,-52.6877,-87.7503
10:58:09.849,-53.7502,-90.0003
10:58:09.858,-53.1877,-90.6879
10:58:09.868,-51.5002,-86.8753
10:58:09.879,-45.8752,-79.0628
10:58:09.889,-37.9376,-65.9378
10:58:09.899,-27.9376,-49.1252
10:58:09.910,-16.5626,-26.9376
10:58:09.917,-3.5,-4.5
10:58:09.928,9,17.4376
10:58:09.938,21.1251,40.1252
10:58:09.948,32.3751,61.3752
10:58:09.957,41.8127,79.8753
10:58:09.968,50.3127,94.8754
10:58:09.978,55.7502,108.0004
10:58:09.992,61.3752,117.938
10:58:09.999,63.6877,126.2505
10:58:10.031,66.9378,130.813
10:58:10.034,68.6878,134.6255
10:58:10.035,69.8128,138.0005
10:58:10.039,69.2503,137.7505
10:58:10.076,70.0003,138.6255
10:58:10.078,68.5628,139.563
10:58:10.081,68.4378,137.5005
10:58:10.086,68.7503,136.3755
10:58:10.089,66.3753,134.5005
10:58:10.122,64.4377,130.188
10:58:10.125,60.8752,125.5005
10:58:10.127,57.1252,119.438
10:58:10.134,53.9377,112.1879
10:58:10.139,49.1877,105.8754
10:58:10.173,46.3127,98.0004
10:58:10.175,41.8127,91.5629
10:58:10.177,38.4376,84.3753
10:58:10.183,35.8126,78.7503
10:58:10.188,32.5001,73.5003
10:58:10.199,29.5626,66.7503
10:58:10.208,26.6251,63.0627
10:58:10.218,23.5626,57.1877
10:58:10.228,21.8751,53.0627
10:58:10.246,19.1876,48.5002
10:58:10.252,16.0626,42.3127
10:58:10.259,13.7501,37.8751
10:58:10.269,10.5,31.5626
10:58:10.283,5.8125,25.5001
10:58:10.300,3.3125,17.3751
10:58:10.303,-1.375,10.9375
10:58:10.310,-4.75,2.375
10:58:10.318,-9.3125,-5.625
10:58:10.328,-13.0625,-12.875
10:58:10.338,-17.5001,-22.0626
10:58:10.348,-22.2501,-31.6251
10:58:10.358,-26.4376,-40.0002
10:58:10.368,-31.0626,-48.6877
10:58:10.379,-34.2501,-57.6252
10:58:10.388,-39.3751,-65.4378
10:58:10.398,-42.8127,-74.3753
10:58:10.409,-47.6877,-83.3753
10:58:10.419,-53.1877,-92.2504
10:58:10.429,-57.2502,-100.3754
10:58:10.438,-61.1252,-108.5629
10:58:10.448,-64.8752,-115.3129
10:58:10.459,-69.0003,-123.813
10:58:10.468,-73.2503,-131.063
10:58:10.478,-76.4378,-139.0005
10:58:10.488,-80.6253,-146.1255
10:58:10.499,-84.8128,-153.6881
10:58:10.508,-87.8128,-159.9381
10:58:10.519,-91.5004,-163.8131
10:58:10.528,-93.6254,-170.8756
10:58:10.538,-95.7504,-175.1257
10:58:10.548,-98.7504,-180.0632
10:58:10.558,-100.0629,-184.1257
10:58:10.569,-100.5004,-185.2507
10:58:10.578,-98.6254,-186.5632
10:58:10.588,-93.3129,-179.8132
10:58:10.598,-86.1253,-169.0006
10:58:10.609,-75.5003,-151.7506
10:58:10.618,-63.2502,-129.7505
10:58:10.628,-49.5627,-107.5004
10:58:10.638,-36.9376,-83.9378
10:58:10.648,-25.6251,-60.8752
10:58:10.660,-14.3126,-40.2502
10:58:10.670,-3.9375,-19.9376
10:58:10.678,5.125,-3.6875
10:58:10.707,13.1876,11.375
10:58:10.710,18.8751,24.6876
10:58:10.713,24.7501,34.0626
10:58:10.753,28.4376,44.0002
10:58:10.755,32.4376,49.8752
10:58:10.757,33.6876,57.5002
10:58:10.763,37.0626,60.5627
10:58:10.764,38.7501,66.6878
10:58:10.768,40.5002,69.5628
10:58:10.801,42.5002,72.5003
10:58:10.804,42.8752,74.8128
10:58:10.805,43.2502,76.5003
10:58:10.809,43.8127,77.2503
10:58:10.838,41.8752,74.3753
10:58:10.841,40.6252,72.4378
10:58:10.844,37.4376,69.5003
10:58:10.849,34.8751,65.0627
10:58:10.868,31.8126,60.7502
10:58:10.870,30.1251,58.3127
10:58:10.878,28.1251,55.0627
10:58:10.888,26.2501,53.1877
10:58:10.899,25.0626,50.2502
10:58:10.908,23.9376,49.3752
10:58:10.924,23.3126,49.3752
10:58:10.928,23.5626,48.6252
10:58:10.940,23.0001,48.6252
10:58:10.949,22.5001,47.2502
10:58:10.959,21.2501,47.4377
10:58:10.969,20.1876,44.3752
10:58:10.978,18.8751,43.5002
10:58:10.988,16.9376,40.5002
10:58:10.999,13.1876,35.9376
10:58:11.009,10.25,31.5626
10:58:11.018,7.9375,28.0626
10:58:11.028,4.875,23.6251
10:58:11.038,2.25,19.2501
10:58:11.048,-1.125,15.1876
10:58:11.059,-3.875,9.8125
10:58:11.073,-6.5625,5.75
10:58:11.089,-9.875,1
10:58:11.092,-11.75,-3.1875
10:58:11.107,-14.7501,-8.125
10:58:11.110,-16.5626,-11.5625
10:58:11.126,-19.3751,-16.6876
10:58:11.129,-21.4376,-19.9376
10:58:11.140,-23.9376,-25.2501
10:58:11.149,-26.7501,-29.0626
10:58:11.160,-28.6251,-33.7501
10:58:11.168,-32.4376,-38.0626
10:58:11.178,-26.5001,-29.9376
10:58:11.188,-30.3126,-46.2502
10:58:11.198,-32.1251,-48.8127
10:58:11.208,-33.1876,-52.4377
10:58:11.218,-31.5626,-54.0627
10:58:11.228,-35.1251,-58.2502
10:58:11.238,-40.1877,-65.1252
10:58:11.248,-43.8752,-70.9378
10:58:11.258,-43.6877,-72.1878
10:58:11.268,-42.0002,-73.8128
10:58:11.278,-37.6876,-72.1253
10:58:11.299,-34.9376,-69.9378
10:58:11.303,-30.1876,-66.3128
10:58:11.314,-25.8751,-58.6252
10:58:11.325,-18.7501,-49.3127
10:58:11.334,-9.5,-33.5001
10:58:11.345,1.125,-16.9376
10:58:11.353,12.625,3.75
10:58:11.363,23.8751,20.3751
10:58:11.373,32.5001,38.7501
10:58:11.402,38.3126,49.8752
10:58:11.405,44.7502,62.0627
10:58:11.409,50.3127,73.0003
10:58:11.415,55.4377,81.0003
10:58:11.423,58.0627,87.8753
10:58:11.436,61.1252,90.5004
10:58:11.446,61.7502,92.3754
10:58:11.453,61.5002,92.0629
10:58:11.465,60.4377,90.7504
10:58:11.474,59.6252,87.6253
10:58:11.483,56.5627,83.2503
10:58:11.519,55.3127,78.4378
10:58:11.522,52.3752,74.6253
10:58:11.523,48.2502,68.8128
10:58:11.526,45.7502,61.2502
10:58:11.563,41.1877,53.1252
10:58:11.610,36.9376,44.3127
10:58:11.667,32.0001,35.6251
10:58:11.669,27.3126,27.5626
10:58:11.674,24.1876,19.1251
10:58:11.674,19.6876,12.125
10:58:11.674,17.3751,6.4375
10:58:11.675,15.0001,0.8125
10:58:11.676,13.2501,-2.8125
10:58:11.686,11.5,-7
10:58:11.687,9.125,-11.1875
10:58:11.688,7.6875,-14.9376
10:58:11.699,5.75,-17.9376
10:58:11.708,4.0625,-21.6876
10:58:11.718,1.0625,-25.6876
10:58:11.728,-0.6875,-29.8126
10:58:11.738,-3.5625,-34.6876
10:58:11.749,-5.125,-39.0001
10:58:11.758,-8.625,-44.3752
10:58:11.768,-12.5625,-49.5627
10:58:11.778,-15.5001,-56.5627
10:58:11.789,-18.5001,-61.9377
10:58:11.801,-22.8751,-68.9378
10:58:11.810,-44.0627,-111.1254
10:58:11.818,-46.8127,-116.5004
10:58:11.828,-48.7502,-122.313
10:58:11.838,-51.4377,-127.3755
10:58:11.849,-54.4377,-132.5005
10:58:11.858,-55.5627,-135.813
10:58:11.868,-58.4377,-142.188
10:58:11.878,-60.3752,-145.7505
10:58:11.888,-63.0627,-151.5631
10:58:11.898,-65.2502,-155.3131
10:58:11.909,-67.6253,-159.1881
10:58:11.918,-68.9378,-163.0006
10:58:11.929,-70.6253,-168.0006
10:58:11.939,-71.3128,-170.1257
10:58:11.949,-74.0628,-174.2507
10:58:11.958,-75.6253,-177.2507
10:58:11.968,-77.6878,-180.8757
10:58:11.978,-78.1253,-183.1257
10:58:11.988,-79.1253,-185.0632
10:58:11.998,-77.6253,-183.7507
10:58:12.008,-74.5628,-176.6882
10:58:12.018,-67.6253,-168.1881
10:58:12.028,-58.0002,-152.7506
10:58:12.039,-48.8127,-134.688
10:58:12.050,-38.3126,-115.3129
10:58:12.061,-27.8126,-94.0629
10:58:12.071,-17.4376,-76.0628
10:58:12.079,-7.9375,-56.8752
10:58:12.088,-1,-41.7502
10:58:12.098,6.4375,-27.4376
10:58:12.108,10.625,-14.4376
10:58:12.118,15.8751,-5.0625
10:58:12.128,18.1876,3.3125
10:58:12.138,21.3126,8.25
10:58:12.150,22.1251,14.3751
10:58:12.159,23.1876,16.0626
10:58:12.169,24.5001,19.0626
10:58:12.179,24.4376,21.6876
10:58:12.188,24.6876,22.2501
10:58:12.198,24.1251,23.1251
10:58:12.208,22.5626,22.2501
10:58:12.218,22.6251,21.7501
10:58:12.252,20.0626,19.8126
10:58:12.255,17.8126,15.7501
10:58:12.257,14.2501,12.3125
10:58:12.260,11.375,7.625
10:58:12.297,7.75,2.625
10:58:12.299,5.0625,-3.3125
10:58:12.301,2.1875,-7
10:58:12.303,-0.25,-11.625
10:58:12.308,-2.375,-14.0001
10:58:12.339,-3.5,-17.6876
10:58:12.341,-5.75,-18.8751
10:58:12.373,-6,-21.6876
10:58:12.376,-7.5625,-22.8751
10:58:12.377,-9.25,-24.0001
10:58:12.380,-10.375,-25.4376
10:58:12.428,-9.9375,-28.0626
10:58:12.429,-12.1875,-30.1876
10:58:12.436,-14.4376,-33.1876
10:58:12.450,-16.5001,-34.9376
10:58:12.451,-18.0001,-38.5626
10:58:12.451,-20.1251,-43.1877
10:58:12.466,-23.0626,-47.3752
10:58:12.468,-25.5001,-50.9377
10:58:12.473,-28.8751,-57.6877
10:58:12.479,-30.9376,-61.8127
10:58:12.489,-34.0626,-66.6878
10:58:12.499,-37.0001,-71.8128
10:58:12.508,-40.1252,-75.8753
10:58:12.519,-42.8127,-80.8128
10:58:12.528,-45.6252,-85.8753
10:58:12.540,-47.6877,-90.3128
10:58:12.548,-50.1252,-95.8754
10:58:12.558,-52.5002,-99.5004
10:58:12.569,-54.7502,-103.8754
10:58:12.579,-56.7502,-107.3129
10:58:12.588,-58.9377,-111.1879
10:58:12.598,-61.1252,-115.3754
10:58:12.608,-66.2503,-125.688
10:58:12.618,-68.3753,-129.313
10:58:12.630,-69.6253,-132.438
10:58:12.638,-71.5628,-134.7505
10:58:12.648,-72.3753,-139.5005
10:58:12.658,-75.5628,-140.813
10:58:12.683,-76.1878,-145.563
10:58:12.686,-77.2503,-148.3131
10:58:12.690,-79.1878,-150.5006
10:58:12.698,-78.3128,-152.5631
10:58:12.708,-79.1253,-151.3131
10:58:12.718,-75.1878,-148.0006
10:58:12.728,-67.3753,-137.0005
10:58:12.739,-59.6877,-124.1255
10:58:12.749,-49.4377,-106.8129
10:58:12.759,-39.8752,-85.5628
10:58:12.770,-28.3126,-67.0003
10:58:12.781,-17.0626,-47.1877
10:58:12.788,-8.5625,-28.4376
10:58:12.798,0.25,-11.5625
10:58:12.812,6.625,3.1875
10:58:12.820,12.8125,14.4376
10:58:12.829,18.0001,25.1876
10:58:12.839,21.3126,32.6876
10:58:12.850,24.1876,39.5627
10:58:12.859,25.0001,44.8127
10:58:12.869,26.5626,46.8752
10:58:12.889,28.3751,50.0627
10:58:12.891,27.5001,51.8752
10:58:12.926,28.8751,52.6877
10:58:12.962,26.8751,53.3127
10:58:12.964,26.8751,52.6252
10:58:12.967,26.5001,52.0002
10:58:12.974,23.3126,49.1252
10:58:12.974,22.0001,45.6877
10:58:12.974,19.0626,41.9377
10:58:12.978,16.1251,37.5626
10:58:13.013,13.3751,33.3126
10:58:13.015,10.3125,28.5001
10:58:13.017,7.75,22.8126
10:58:13.020,5.1875,19.7501
10:58:13.057,3.1875,14.6876
10:58:13.058,1.9375,12.8125
10:58:13.062,0.4375,10.25
10:58:13.072,-1.125,8.6875
10:58:13.073,-2,6.5625
10:58:13.082,-2.75,5.1875
10:58:13.088,-3.625,3.125
10:58:13.098,-5.4375,0.875
10:58:13.108,-7.1875,-1.3125
10:58:13.120,-9.25,-4.9375
10:58:13.129,-11.375,-7.9375
10:58:13.138,-15.8751,-15.8751
10:58:13.148,-18.6251,-20.4376
10:58:13.158,-20.0001,-25.5001
10:58:13.170,-23.1876,-30.3126
10:58:13.188,-26.5001,-34.6251
10:58:13.192,-28.8751,-40.0002
10:58:13.199,-31.3751,-46.1252
10:58:13.209,-34.6251,-51.6877
10:58:13.218,-38.1251,-57.0002
10:58:13.228,-40.5002,-60.8752
10:58:13.238,-42.9377,-66.5003
10:58:13.248,-45.0002,-71.7503
10:58:13.258,-47.4377,-75.2503
10:58:13.269,-49.5627,-79.4378
10:58:13.279,-51.7502,-83.3753
10:58:13.293,-53.5627,-87.4378
10:58:13.303,-55.8752,-91.2504
10:58:13.314,-57.0002,-95.7504
10:58:13.327,-59.1252,-98.9379
10:58:13.333,-60.7502,-103.8129
10:58:13.343,-63.0627,-105.8754
10:58:13.353,-64.3127,-110.8754
10:58:13.363,-65.5003,-113.6254
10:58:13.373,-67.3753,-115.8754
10:58:13.385,-68.4378,-119.7505
10:58:13.393,-70.1253,-122.313
10:58:13.403,-71.1878,-126.5005
10:58:13.413,-71.4378,-128.2505
10:58:13.423,-73.1253,-130.2505
10:58:13.434,-72.0628,-130.938
10:58:13.444,-69.9378,-128.063
10:58:13.454,-62.4377,-115.2504
10:58:13.465,-53.5002,-102.3754
10:58:13.474,-42.6252,-84.6878
10:58:13.483,-32.6876,-65.0002
10:58:13.494,-22.2501,-46.0627
10:58:13.505,-11.5625,-26.8126
10:58:13.515,-2.625,-7.125
10:58:13.524,5.5,7.1875
10:58:13.533,12.4375,23.0626
10:58:13.543,18.0626,33.4376
10:58:13.553,22.8751,42.6877
10:58:13.565,25.7501,49.8752
10:58:13.573,28.0001,54.8752
10:58:13.584,29.7501,58.5627
10:58:13.593,30.0626,59.8127
10:58:13.604,29.9376,60.5002
10:58:13.628,30.6876,62.0627
10:58:13.633,29.1876,61.5627
10:58:13.635,29.3126,60.2502
10:58:13.665,27.1876,58.8127
10:58:13.668,25.3751,55.0627
10:58:13.670,22.8751,52.5002
10:58:13.674,20.3126,48.8752
10:58:13.705,17.9376,43.3127
10:58:13.707,15.2501,38.6251
10:58:13.710,13.0625,33.4376
10:58:13.715,10.5,28.1251
10:58:13.743,9,24.6876
10:58:13.777,7.0625,21.0626
10:58:13.779,5.0625,18.8751
10:58:13.781,4.875,16.8126
10:58:13.785,3.3125,15.8126
10:58:13.797,3,14.5626
10:58:13.799,2.25,12.8125
10:58:13.800,1.625,10.75
10:58:13.805,0.25,10.0625
10:58:13.814,-0.1875,7.3125
10:58:13.825,-1.1875,5.75
10:58:13.836,-3,2.9375
10:58:13.843,-4.5625,-0.375
10:58:13.855,-7.4375,-4
10:58:13.863,-9.5625,-9.0625
10:58:13.873,-12.8125,-12.9375
10:58:13.884,-14.7501,-19.6251
10:58:13.894,-17.8126,-23.3126
10:58:13.905,-19.9376,-29.8751
10:58:13.913,-22.9376,-34.5626
10:58:13.923,-26.2501,-39.1876
10:58:13.936,-28.7501,-45.0627
10:58:13.962,-31.4376,-49.6877
10:58:13.965,-34.2501,-54.6252
10:58:13.967,-36.9376,-60.0002
10:58:13.973,-39.0626,-64.2502
10:58:13.985,-40.9377,-69.8128
10:58:13.993,-43.2502,-72.3753
10:58:14.004,-44.7502,-77.8128
10:58:14.013,-47.6877,-81.4378
10:58:14.023,-50.0002,-85.6253
10:58:14.033,-52.0002,-89.2503
10:58:14.044,-53.5002,-94.5629
10:58:14.056,-55.5627,-98.0004
10:58:14.064,-57.3752,-101.4379
10:58:14.074,-58.4377,-105.1254
10:58:14.083,-60.8127,-108.0629
10:58:14.093,-61.5627,-111.1879
10:58:14.104,-63.1252,-113.7504
10:58:14.116,-63.5627,-115.8754
10:58:14.124,-64.1877,-118.5005
10:58:14.134,-63.0627,-118.438
10:58:14.143,-60.2502,-113.9379
10:58:14.153,-54.7502,-105.7504
10:58:14.163,-46.5002,-92.1254
10:58:14.175,-36.8751,-75.4378
10:58:14.183,-25.6876,-55.1252
10:58:14.193,-15.3126,-36.8126
10:58:14.204,-4.75,-15.8126
10:58:14.221,4.9375,2.9375
10:58:14.236,13.6876,20.5626
10:58:14.239,20.3126,35.6251
10:58:14.243,27.2501,47.4377
10:58:14.256,32.6251,58.0002
10:58:14.263,34.8751,65.6252
10:58:14.275,38.4376,72.0628
10:58:14.283,39.9377,76.5628
10:58:14.293,42.0002,79.3753
10:58:14.303,42.6877,82.1253
10:58:14.315,42.2502,82.4378
10:58:14.324,42.8127,83.6878
10:58:14.334,41.0002,84.0628
10:58:14.345,40.2502,81.6253
10:58:14.353,39.9377,80.1253
10:58:14.391,37.0626,77.1878
10:58:14.393,35.6876,73.2503
10:58:14.396,32.9376,68.4378
10:58:14.398,29.1876,63.7502
10:58:14.405,27.0626,58.1877
10:58:14.433,23.8751,53.5002
10:58:14.436,21.6251,48.0002
10:58:14.439,18.8751,45.0627
10:58:14.445,17.9376,40.5627
10:58:14.471,16.1876,38.6251
10:58:14.473,15.2501,37.6251
10:58:14.476,14.6251,34.6251
10:58:14.502,14.2501,33.9376
10:58:14.504,14.0001,32.0001
10:58:14.507,12.5625,30.5001
10:58:14.513,12.3125,28.4376
10:58:14.545,10.25,26.4376
10:58:14.547,9.625,23.7501
10:58:14.550,7.3125,20.6876
10:58:14.555,4.875,17.0626
10:58:14.563,2.5625,12.1875
10:58:14.576,-0.375,8.125
10:58:14.584,-3.0625,2.0625
10:58:14.595,-5.8125,-3.125
10:58:14.604,-9.4375,-8.1875
10:58:14.615,-12.0625,-14.4376
10:58:14.626,-14.6876,-19.8751
10:58:14.634,-16.5626,-24.8126
10:58:14.643,-20.1251,-30.3126
10:58:14.654,-22.5001,-35.3751
10:58:14.664,-25.5001,-40.5002
10:58:14.675,-27.3126,-45.3127
10:58:14.687,-30.9376,-50.1252
10:58:14.694,-33.0626,-54.8127
10:58:14.703,-35.1876,-59.7502
10:58:14.714,-38.0001,-63.1877
10:58:14.723,-39.6252,-68.6878
10:58:14.735,-41.8127,-71.3128
10:58:14.743,-43.5627,-76.9378
10:58:14.753,-45.8752,-79.5003
10:58:14.764,-48.0002,-84.3128
10:58:14.774,-49.0627,-87.9378
10:58:14.783,-51.5002,-92.3754
10:58:14.794,-52.5627,-94.8129
10:58:14.805,-54.0002,-99.0629
10:58:14.814,-56.3127,-101.3754
10:58:14.823,-57.3752,-105.6879
10:58:14.833,-58.4377,-106.4379
10:58:14.843,-58.3127,-108.6879
10:58:14.855,-56.8127,-105.9379
10:58:14.866,-52.3752,-100.9379
10:58:14.877,-44.5627,-88.5003
10:58:14.884,-35.1876,-72.6253
10:58:14.893,-23.8126,-53.8127
10:58:14.903,-11.875,-31.4376
10:58:14.915,-1.6875,-10.9375
10:58:14.923,9.1875,10.375
10:58:14.933,18.8126,30.6876
10:58:14.943,27.8751,46.9377
10:58:14.953,35.6876,61.6252
10:58:14.965,40.4377,74.3128
10:58:14.978,45.9377,83.6878
10:58:14.983,49.8127,93.1254
10:58:14.996,52.3752,98.6254
10:58:15.003,54.8752,103.5004
10:58:15.014,54.7502,106.3754
10:58:15.037,56.0627,108.5004
10:58:15.040,56.1877,111.2504
10:58:15.054,56.3752,110.4379
10:58:15.066,56.0627,109.5004
10:58:15.066,54.8752,109.5629
10:58:15.073,54.0627,108.0004
10:58:15.085,52.2502,105.1879
10:58:15.095,49.9377,100.8754
10:58:15.104,47.8127,96.0629
10:58:15.115,44.8752,91.1254
10:58:15.126,41.6252,86.1878
10:58:15.135,38.8126,81.3128
10:58:15.143,36.7501,76.1878
10:58:15.186,34.1251,71.8128
10:58:15.190,32.0626,68.3753
10:58:15.191,30.9376,65.3127
10:58:15.194,29.7501,63.2502
10:58:15.197,29.2501,60.4377
10:58:15.233,27.6876,58.0002
10:58:15.235,26.7501,57.3752
10:58:15.238,26.0001,54.9377
10:58:15.253,23.5001,53.1252
10:58:15.255,22.4376,49.7502
10:58:15.256,20.0001,46.3127
10:58:15.281,18.0001,41.7502
10:58:15.283,15.6876,36.9376
10:58:15.286,12.125,31.0001
10:58:15.317,9.25,26.6251
10:58:15.319,6.5625,20.3126
10:58:15.321,2.875,14.5001
10:58:15.326,0,8.875
10:58:15.338,-3.125,2.1875
10:58:15.345,-6.5,-3.875
10:58:15.353,-9.1875,-10.5625
10:58:15.395,-13.3751,-16.4376
10:58:15.397,-16.0001,-22.8751
10:58:15.399,-19.0001,-27.9376
10:58:15.403,-22.2501,-33.3126
10:58:15.410,-24.9376,-39.2502
10:58:15.420,-27.5626,-44.5002
10:58:15.428,-29.6251,-49.0627
10:58:15.438,-32.3751,-53.1877
10:58:15.450,-34.1251,-57.0002
10:58:15.458,-36.8751,-62.4377
10:58:15.470,-38.3751,-66.5003
10:58:15.480,-40.5002,-70.8753
10:58:15.488,-43.1252,-74.8128
10:58:15.500,-43.5002,-78.6253
10:58:15.516,-46.8127,-83.1253
10:58:15.518,-48.8127,-87.5628
10:58:15.534,-52.4377,-93.0629
10:58:15.540,-53.3752,-95.8754
10:58:15.551,-54.8752,-100.1879
10:58:15.560,-56.3752,-103.3754
10:58:15.568,-56.9377,-105.8754
10:58:15.579,-56.5002,-104.8754
10:58:15.590,-52.4377,-100.8129
10:58:15.605,-47.1877,-92.6254
10:58:15.615,-39.0002,-78.9378
10:58:15.623,-28.9376,-61.0002
10:58:15.633,-18.0001,-41.0002
10:58:15.644,-6.25,-18.8751
10:58:15.654,4.9375,1.4375
10:58:15.666,14.8751,21.6876
10:58:15.673,25.0001,39.9377
10:58:15.685,31.9376,56.1877
10:58:15.695,39.1251,68.8128
10:58:15.705,43.0627,80.8128
10:58:15.714,47.3127,87.6878
10:58:15.725,50.2502,94.2504
10:58:15.734,52.0002,99.5004
10:58:15.745,53.3752,102.2504
10:58:15.755,53.9377,104.6879
10:58:15.765,54.0002,107.3129
10:58:15.773,53.9377,105.6879
10:58:15.784,53.1252,104.8754
10:58:15.794,51.9377,103.3754
10:58:15.807,49.3752,98.8129
10:58:15.821,46.6252,95.6879
10:58:15.825,44.1252,90.3753
10:58:15.834,40.8127,86.3753
10:58:15.869,37.3751,79.0003
10:58:15.871,34.5626,74.1878
10:58:15.874,32.1251,68.5003
10:58:15.876,29.8751,64.4377
10:58:15.910,27.6876,60.5627
10:58:15.913,27.1876,58.1877
10:58:15.915,25.9376,55.0002
10:58:15.917,25.0626,53.5627
10:58:15.947,23.9376,51.5627
10:58:15.949,23.5626,50.5002
10:58:15.952,22.4376,48.1877
10:58:15.979,21.5001,46.9377
10:58:15.980,20.0001,44.1252
10:58:15.982,18.7501,41.6877
10:58:15.987,16.5626,38.8126
10:58:16.022,15.0001,34.9376
10:58:16.024,12.5,30.5001
10:58:16.026,10.125,26.5626
10:58:16.028,7.25,21.3126
10:58:16.035,4,15.9376
10:58:16.045,1.25,10.4375
10:58:16.057,-1.625,4.5
10:58:16.065,-4.3125,-1.0625
10:58:16.073,-8.4375,-7
10:58:16.085,-10.9375,-12.3125
10:58:16.097,-13.4376,-17.8751
10:58:16.105,-16.5001,-22.5001
10:58:16.115,-18.8126,-27.8751
10:58:16.125,-21.7501,-33.1876
10:58:16.136,-23.4376,-37.0001
10:58:16.145,-25.1876,-42.0002
10:58:16.153,-26.9376,-45.6252
10:58:16.165,-29.5626,-50.6252
10:58:16.176,-31.7501,-54.6252
10:58:16.185,-33.8126,-59.0627
10:58:16.194,-35.8126,-62.8127
10:58:16.204,-37.3126,-66.5003
10:58:16.215,-40.0627,-70.1878
10:58:16.225,-41.5002,-74.5003
10:58:16.235,-43.0002,-76.8128
10:58:16.244,-45.0002,-81.3753
10:58:16.255,-45.7502,-83.8128
10:58:16.265,-47.6877,-85.6253
10:58:16.274,-48.4377,-90.5004
10:58:16.284,-49.3127,-91.6879
10:58:16.295,-50.7502,-94.1254
10:58:16.305,-48.4377,-93.7504
10:58:16.315,-45.3127,-87.8128
10:58:16.332,-39.5002,-79.1878
10:58:16.336,-31.5626,-64.8127
10:58:16.350,-21.1876,-47.4377
10:58:16.354,-10.375,-28.0001
10:58:16.365,0.375,-7.75
10:58:16.376,11.375,12.6875
10:58:16.385,20.7501,31.9376
10:58:16.394,29.7501,48.8752
10:58:16.405,36.1876,63.1877
10:58:16.417,42.1877,74.8753
10:58:16.425,46.3752,84.3128
10:58:16.435,49.6252,90.5629
10:58:16.444,51.6877,94.8129
10:58:16.456,51.5627,96.9379
10:58:16.465,51.9377,97.7504
10:58:16.475,51.5002,98.3129
10:58:16.485,50.8127,99.1254
10:58:16.495,50.4377,95.8754
10:58:16.524,48.4377,94.4379
10:58:16.526,46.3752,90.0628
10:58:16.529,44.2502,86.5628
10:58:16.534,40.6252,82.0003
10:58:16.569,38.6251,76.0628
10:58:16.571,34.0626,69.4378
10:58:16.573,31.0001,63.1877
10:58:16.577,28.1876,56.8127
10:58:16.617,24.8751,52.1252
10:58:16.618,23.1876,47.3127
10:58:16.621,21.5626,44.8752
10:58:16.625,20.5001,41.6252
10:58:16.627,19.6876,40.7502
10:58:16.661,18.9376,39.1252
10:58:16.663,18.4376,37.1251
10:58:16.666,18.0626,36.7501
10:58:16.669,17.0001,34.0626
10:58:16.675,16.3751,33.6876
10:58:16.706,15.3126,30.5626
10:58:16.709,14.2501,28.1251
10:58:16.711,12.1875,25.1876
10:58:16.716,9.625,21.9376
10:58:16.734,6.625,17.9376
10:58:16.736,5.0625,12.1875
10:58:16.745,1.125,7.6875
10:58:16.755,-1.25,1
10:58:16.766,-4.1875,-4.0625
10:58:16.775,-7.5,-9.75
10:58:16.785,-11.125,-16.7501
10:58:16.794,-13.4376,-22.0626
10:58:16.813,-16.4376,-27.3126
10:58:16.820,-19.3751,-33.1876
10:58:16.835,-21.7501,-38.7501
10:58:16.837,-25.0626,-43.7502
10:58:16.845,-26.3126,-48.7502
10:58:16.855,-29.5001,-53.3752
10:58:16.865,-32.4376,-57.3752
10:58:16.874,-34.5001,-62.2502
10:58:16.886,-36.6251,-66.6253
10:58:16.894,-38.5626,-70.7503
10:58:16.905,-40.8127,-75.8753
10:58:16.915,-42.7502,-79.9378
10:58:16.925,-45.0627,-83.6253
10:58:16.934,-46.7502,-87.0003
10:58:16.944,-48.8752,-92.6254
10:58:16.954,-50.0627,-95.0629
10:58:16.965,-52.4377,-98.9379
10:58:16.974,-53.0627,-101.2504
10:58:16.985,-55.3127,-104.8754
10:58:16.995,-56.0627,-106.8129
10:58:17.005,-56.4377,-107.6254
10:58:17.015,-53.9377,-107.0004
10:58:17.025,-50.3127,-99.2504
10:58:17.034,-42.4377,-89.1878
10:58:17.045,-32.6251,-72.9378
10:58:17.055,-22.6876,-53.8127
10:58:17.064,-11.125,-32.4376
10:58:17.074,0.625,-9.25
10:58:17.085,11.6875,11
10:58:17.097,23.0001,32.0626
10:58:17.110,31.0001,51.0002
10:58:17.115,39.0626,65.6878
10:58:17.125,45.3752,79.0003
10:58:17.135,49.6877,89.6878
10:58:17.145,53.6252,97.5629
10:58:17.154,56.6252,104.5629
10:58:17.167,58.3752,107.8129
10:58:17.175,59.7502,111.0004
10:58:17.185,59.9377,114.1254
10:58:17.194,59.8127,113.9379
10:58:17.207,60.2502,115.5004
10:58:17.214,59.5627,114.1879
10:58:17.225,59.8127,113.7504
10:58:17.235,58.0627,112.2504
10:58:17.245,57.0002,109.0629
10:58:17.255,54.3752,106.2504
10:58:17.265,51.9377,101.8129
10:58:17.276,48.9377,95.6254
10:58:17.285,46.0627,90.0003
10:58:17.295,43.7502,85.2503
10:58:17.305,41.0002,79.6253
10:58:17.316,38.5626,76.3753
10:58:17.334,37.0626,73.3128
10:58:17.336,36.1251,70.3753
10:58:17.362,34.7501,68.6878
10:58:17.365,33.2501,66.5628
10:58:17.367,32.5626,63.8127
10:58:17.396,31.8751,62.0627
10:58:17.398,30.3751,60.1877
10:58:17.401,29.5626,57.8752
10:58:17.406,28.1876,55.2502
10:58:17.443,25.8126,52.3127
10:58:17.446,23.5626,48.0627
10:58:17.450,20.8751,43.8127
10:58:17.452,18.7501,39.4377
10:58:17.456,15.8126,33.8751
10:58:17.496,12,29.2501
10:58:17.498,9.625,22.9376
10:58:17.499,6.1875,16.5626
10:58:17.502,2.8125,11.8125
10:58:17.506,-0.4375,4.9375
10:58:17.521,-3.8125,-0.875
10:58:17.524,-6.75,-6.8125
10:58:17.535,-10.125,-11.625
10:58:17.545,-12.5,-17.5626
10:58:17.554,-15.0001,-23.0001
10:58:17.565,-18.4376,-27.3126
10:58:17.575,-20.6251,-32.8126
10:58:17.584,-23.8751,-37.1251
10:58:17.595,-25.9376,-41.8752
10:58:17.606,-28.4376,-48.0002
10:58:17.615,-31.3126,-52.2502
10:58:17.633,-33.5626,-57.1877
10:58:17.647,-36.5001,-61.6252
10:58:17.649,-38.8751,-66.2503
10:58:17.655,-40.8127,-70.6878
10:58:17.665,-43.1877,-75.9378
10:58:17.674,-45.3752,-79.3753
10:58:17.684,-47.3752,-84.6878
10:58:17.695,-49.1252,-88.2503
10:58:17.705,-51.4377,-90.9379
10:58:17.714,-52.0002,-95.8129
10:58:17.725,-52.5627,-96.8129
10:58:17.735,-51.1252,-95.6254
10:58:17.745,-46.6877,-90.3128
10:58:17.755,-39.7502,-79.1878
10:58:17.765,-29.9376,-64.0002
10:58:17.774,-20.3126,-44.3752
10:58:17.803,-7,-23.1251
10:58:17.806,4.9375,-0.3125
10:58:17.807,16.8126,21.7501
10:58:17.815,26.3751,42.8127
10:58:17.825,36.1251,60.1252
10:58:17.835,44.5627,77.0003
10:58:17.845,50.3752,89.1878
10:58:17.857,55.3127,100.7504
10:58:17.864,59.3127,107.5004
10:58:17.875,61.1877,114.5629
10:58:17.885,63.3752,118.3755
10:58:17.897,64.1877,121.563
10:58:17.904,64.7502,124.313
10:58:17.914,64.9377,124.6255
10:58:17.924,65.3753,124.3755
10:58:17.935,64.2502,123.438
10:58:17.945,63.6877,122.313
10:58:17.955,62.1252,120.688
10:58:17.965,60.5002,116.4379
10:58:17.975,56.8752,112.0004
10:58:17.985,54.5627,107.3754
10:58:17.997,51.4377,102.1879
10:58:18.005,48.0627,96.5004
10:58:18.026,45.2502,90.0628
10:58:18.029,41.6877,84.8128
10:58:18.058,39.1877,80.2503
10:58:18.059,37.0001,75.0003
10:58:18.062,35.6876,71.7503
10:58:18.088,34.0001,69.0003
10:58:18.090,32.3126,66.3753
10:58:18.092,30.4376,63.6877
10:58:18.121,28.8126,61.3752
10:58:18.122,27.1876,57.1252
10:58:18.154,26.0001,54.7502
10:58:18.157,23.8751,51.1252
10:58:18.185,21.6876,47.3127
10:58:18.185,18.5001,42.5627
10:58:18.186,16.1251,37.9376
10:58:18.188,12.875,31.0626
10:58:18.198,9.75,25.3751
10:58:18.203,7,19.0626
10:58:18.207,3.125,13.8751
10:58:18.215,-0.625,7.75
10:58:18.225,-4.125,-0.3125
10:58:18.235,-7.25,-6.5
10:58:18.246,-10.375,-13.0625
10:58:18.255,-13.5001,-18.0626
10:58:18.271,-16.7501,-24.8126
10:58:18.275,-20.0001,-30.8126
10:58:18.285,-22.5001,-35.5001
10:58:18.295,-24.6251,-41.3127
10:58:18.304,-26.3751,-44.7502
10:58:18.314,-28.5001,-49.8752
10:58:18.325,-33.8126,-59.6877
10:58:18.335,-35.1251,-63.6877
10:58:18.345,-37.4376,-67.0003
10:58:18.355,-39.6252,-70.5628
10:58:18.365,-41.3127,-75.7503
10:58:18.374,-43.2502,-79.0003
10:58:18.387,-44.4377,-82.5628
10:58:18.394,-45.6877,-85.5003
10:58:18.405,-47.4377,-89.6253
10:58:18.416,-48.7502,-92.1254
10:58:18.425,-50.6877,-95.0004
10:58:18.434,-50.5627,-98.0629
10:58:18.445,-51.6877,-98.9379
10:58:18.458,-51.0002,-99.8754
10:58:18.465,-47.4377,-95.0004
10:58:18.475,-42.7502,-87.1878
10:58:18.486,-33.5626,-72.8753
10:58:18.495,-23.8751,-53.8127
10:58:18.505,-11.375,-34.0626
10:58:18.515,-0.75,-11.75
10:58:18.525,10.4375,8.875
10:58:18.534,21.9376,29.5626
10:58:18.544,30.9376,48.7502
10:58:18.557,38.8126,63.9377
10:58:18.565,45.3752,78.0628
10:58:18.575,49.2502,86.1253
10:58:18.587,53.3752,95.1879
10:58:18.594,54.8127,100.2504
10:58:18.604,56.6252,103.0004
10:58:18.616,57.5627,105.5004
10:58:18.625,56.1252,105.5004
10:58:18.635,55.9377,104.6879
10:58:18.646,55.3127,104.3129
10:58:18.655,53.8127,101.2504
10:58:18.664,52.5627,99.2504
10:58:18.675,49.1252,94.0004
10:58:18.685,47.1877,90.1879
10:58:18.695,43.8127,85.7503
10:58:18.705,40.3752,78.9378
10:58:18.715,37.3126,73.0628
10:58:18.725,34.1251,66.0003
10:58:18.735,31.6251,61.6252
10:58:18.746,29.3126,57.0002
10:58:18.755,27.3751,53.0627
10:58:18.764,25.6251,49.4377
10:58:18.800,24.0626,47.8127
10:58:18.802,23.8751,44.4377
10:58:18.805,22.3751,43.6252
10:58:18.807,22.2501,42.6877
10:58:18.843,20.8126,39.5627
10:58:18.845,19.4376,38.4376
10:58:18.848,18.2501,35.0001
10:58:18.850,16.6251,32.7501
10:58:18.854,13.7501,27.7501
10:58:18.864,11.8125,23.6251
10:58:18.895,9.375,18.9376
10:58:18.899,6.875,14.7501
10:58:18.901,4.5625,8.75
10:58:18.906,1.4375,3.25
10:58:18.943,-1.0625,-2.4375
10:58:18.945,-4.5625,-7.6875
10:58:18.947,-8.125,-13.6251
10:58:18.950,-10.8125,-20.3126
10:58:18.955,-14.2501,-25.9376
10:58:18.966,-16.3751,-31.3126
10:58:18.975,-19.8126,-36.5001
10:58:18.985,-22.1876,-42.0627
10:58:18.994,-24.8126,-46.1877
10:58:19.005,-26.5626,-51.5002
10:58:19.018,-29.5626,-54.9377
10:58:19.027,-31.7501,-60.1877
10:58:19.036,-34.1876,-65.3752
10:58:19.045,-36.1251,-69.3753
10:58:19.057,-37.8751,-73.3128
10:58:19.082,-40.3752,-78.2503
10:58:19.086,-43.0002,-80.9378
10:58:19.088,-43.8752,-86.0003
10:58:19.094,-46.4377,-88.3753
10:58:19.105,-47.3127,-92.6254
10:58:19.115,-50.0002,-94.8129
10:58:19.125,-51.0002,-99.5629
10:58:19.135,-51.9377,-101.2504
10:58:19.147,-52.0002,-103.2504
10:58:19.155,-48.9377,-101.1254
10:58:19.165,-46.6252,-95.5004
10:58:19.177,-39.0001,-84.6878
10:58:19.184,-28.9376,-66.9378
10:58:19.195,-18.1876,-48.1252
10:58:19.206,-5.5625,-25.5001
10:58:19.214,5.0625,-1.9375
10:58:19.225,16.8126,18.5001
10:58:19.235,27.0626,40.1877
10:58:19.245,37.3126,57.3127
10:58:19.255,45.2502,72.6878
10:58:19.265,50.2502,85.0628
10:58:19.275,54.8752,95.1254
10:58:19.285,59.0002,102.6879
10:58:19.295,61.0002,107.3754
10:58:19.307,62.9377,112.0004
10:58:19.315,62.7502,115.0004
10:58:19.324,63.0002,115.1879
10:58:19.336,62.7502,116.0004
10:58:19.345,62.1877,114.1879
10:58:19.354,61.6877,113.1879
10:58:19.365,60.1877,111.4379
10:58:19.375,58.5627,108.4379
10:58:19.397,56.3127,104.8129
10:58:19.400,53.1252,99.8754
10:58:19.417,50.5627,94.3129
10:58:19.432,47.1252,88.3753
10:58:19.433,43.8127,82.3753
10:58:19.457,40.5627,76.5628
10:58:19.462,38.1251,71.3128
10:58:19.462,36.1251,66.6878
10:58:19.489,33.9376,63.0002
10:58:19.494,32.5001,59.8752
10:58:19.495,31.2501,57.8127
10:58:19.500,31.0001,56.6252
10:58:19.534,30.8126,54.8752
10:58:19.535,28.4376,53.7502
10:58:19.538,27.8126,50.6877
10:58:19.542,25.8126,47.2502
10:58:19.573,23.6251,43.9377
10:58:19.575,20.4376,39.1252
10:58:19.577,18.1876,34.8126
10:58:19.581,16.0001,28.7501
10:58:19.618,11.9375,24.0001
10:58:19.621,9.8125,17.5001
10:58:19.624,5.875,12.4375
10:58:19.626,2.1875,6.75
10:58:19.631,-0.25,-0.5
10:58:19.641,-4.4375,-6.0625
10:58:19.650,-7.1875,-13.4376
10:58:19.659,-10.8125,-19.3751
10:58:19.672,-13.8751,-24.3751
10:58:19.680,-16.9376,-31.3126
10:58:19.689,-20.1876,-36.0001
10:58:19.700,-22.6251,-42.0002
10:58:19.710,-25.6251,-46.8752
10:58:19.720,-28.9376,-52.8752
10:58:19.730,-31.1251,-58.4377
10:58:19.741,-34.0001,-63.2502
10:58:19.750,-37.1251,-68.3753
10:58:19.760,-39.1251,-72.7503
10:58:19.773,-41.4377,-77.8753
10:58:19.780,-44.8127,-82.6878
10:58:19.790,-45.8752,-87.0628
10:58:19.799,-48.8127,-90.0629
10:58:19.809,-50.4377,-94.6254
10:58:19.820,-51.7502,-99.1254
10:58:19.834,-54.3127,-102.6254
10:58:19.839,-55.4377,-106.1879
10:58:19.851,-55.8127,-107.1254
10:58:19.860,-54.8127,-107.2504
10:58:19.870,-50.3127,-100.9379
10:58:19.879,-43.7502,-88.6253
10:58:19.890,-34.0626,-75.0628
10:58:19.899,-22.7501,-53.6252
10:58:19.909,-10.125,-31.3126
10:58:19.920,2.6875,-8.875
10:58:19.930,14.1251,13.8751
10:58:19.941,24.8126,34.6876
10:58:19.950,34.6876,53.8127
10:58:19.960,41.9377,70.3753
10:58:19.970,48.7502,82.0628
10:58:19.980,54.0627,93.0629
10:58:19.990,57.1252,101.0004
10:58:19.999,59.9377,107.5629
10:58:20.009,60.9377,112.1254
10:58:20.019,61.6877,113.0004
10:58:20.030,61.6877,115.1254
10:58:20.040,61.7502,115.3754
10:58:20.049,60.5627,114.5004
10:58:20.060,58.8752,114.0629
10:58:20.070,57.3752,110.5629
10:58:20.079,54.9377,107.1879
10:58:20.090,49.3752,101.8754
10:58:20.100,42.3127,93.7504
10:58:20.109,36.9376,85.9378
10:58:20.120,29.0626,76.1253
10:58:20.132,22.3751,66.8753
10:58:20.144,9.75,55.0002
10:58:20.149,-1.5625,45.4377
10:58:20.163,-8.0625,39.8752
10:58:20.170,-9.4375,38.5626
10:58:20.180,-9.5,41.0627
10:58:20.189,-7.4375,44.3752
10:58:20.199,-4.1875,48.3752
10:58:20.221,0.375,53.8127
10:58:20.225,2.5625,55.5627
10:58:20.276,4.1875,58.1877
10:58:20.278,5.625,59.5627
10:58:20.281,7.375,60.5002
10:58:20.285,9.6875,62.0627
10:58:20.287,10.8125,62.1252
10:58:20.287,12.625,62.3752
10:58:20.317,14.8126,61.2502
10:58:20.320,16.5626,60.1877
10:58:20.323,17.7501,57.9377
10:58:20.326,18.5626,57.2502
10:58:20.363,23.4376,56.6252
10:58:20.366,36.9376,66.4378
10:58:20.369,58.1877,84.0003
10:58:20.371,76.1253,100.4379
10:58:20.376,89.8753,111.3754
10:58:20.416,96.2504,114.3129
10:58:20.416,96.7504,107.2504
10:58:20.419,91.0629,91.3129
10:58:20.423,81.1878,69.3753
10:58:20.426,68.4378,45.0002
10:58:20.435,53.3752,19.5626
10:58:20.445,38.5626,-5.375
10:58:20.455,15.6251,-38.7501
10:58:20.465,3.1875,-58.1252
10:58:20.477,-5.75,-72.5003
10:58:20.485,-13.6876,-82.8128
10:58:20.497,-20.5626,-93.8129
10:58:20.505,-25.8751,-102.1879
10:58:20.521,-27.5626,-105.8129
10:58:20.526,-31.2501,-110.2504
10:58:20.535,-36.8751,-115.3129
10:58:20.545,-42.1252,-120.6255
10:58:20.556,-47.7502,-125.1255
10:58:20.565,-50.9377,-126.5005
10:58:20.576,-50.8127,-123.188
10:58:20.585,-48.8752,-117.3129
10:58:20.595,-46.0002,-107.4379
10:58:20.607,-40.8127,-93.9379
10:58:20.616,-36.6876,-78.7503
10:58:20.625,-31.6251,-62.5002
10:58:20.637,-27.4376,-43.9377
10:58:20.646,-22.3126,-25.3126
10:58:20.656,-17.3126,-6.375
10:58:20.667,-10.375,10.875
10:58:20.676,-1.5625,30.1251
10:58:20.685,7.5,47.1252
10:58:20.697,15.5001,60.3127
10:58:20.704,22.6251,72.2503
10:58:20.721,25.5626,79.1253
10:58:20.736,30.8126,87.3753
10:58:20.738,34.5626,93.2504
10:58:20.756,36.6876,96.2504
10:58:20.757,37.7501,99.0629
10:58:20.766,35.6876,100.6254
10:58:20.775,34.0626,98.0629
10:58:20.786,30.4376,96.5004
10:58:20.795,27.1251,92.5629
10:58:20.806,24.9376,91.3754
10:58:20.816,24.6876,87.7503
10:58:20.825,25.7501,85.2503
10:58:20.835,22.2501,80.1878
10:58:20.845,21.6876,74.5628
10:58:20.856,18.4376,68.5628
10:58:20.866,16.1251,62.7502
10:58:20.877,12.5,58.5627
10:58:20.886,9.9375,54.9377
10:58:20.896,9.8125,52.9377
10:58:20.906,9.375,53.3127
10:58:20.914,10.3125,51.8752
10:58:20.926,9.875,53.0002
10:58:20.936,9.75,51.1877
10:58:20.946,9.125,50.0627
10:58:20.955,8.5625,48.5002
10:58:20.966,7.8125,47.3127
10:58:20.974,7.6875,45.3752
10:58:20.985,6.4375,41.9377
10:58:20.995,6,38.8751
10:58:21.012,5.875,36.1251
10:58:21.016,3.8125,31.4376
10:58:21.046,2,25.5001
10:58:21.048,0.125,19.8751
10:58:21.051,-0.8125,15.5001
10:58:21.056,2.5625,14.2501
10:58:21.093,7,15.3126
10:58:21.096,15.0626,18.9376
10:58:21.098,18.2501,22.0626
10:58:21.100,20.8751,23.7501
10:58:21.106,21.3126,24.6251
10:58:21.120,21.5001,24.0626
10:58:21.126,22.1251,23.1876
10:58:21.153,22.8126,23.0001
10:58:21.156,23.0626,22.1876
10:58:21.158,24.8126,21.0001
10:58:21.165,24.9376,19.6876
10:58:21.185,24.0626,18.3751
10:58:21.187,23.5626,13.1251
10:58:21.195,22.1876,9.5625
10:58:21.208,20.7501,4.75
10:58:21.216,17.8751,-0.8125
10:58:21.226,12.875,-8.25
10:58:21.236,7.0625,-17.5001
10:58:21.244,0.3125,-25.1876
10:58:21.258,-5.875,-33.0626
10:58:21.264,-10.375,-40.5002
10:58:21.276,-14.6251,-44.0627
10:58:21.286,-15.1876,-42.1877
10:58:21.296,-13.3126,-36.5626
10:58:21.306,-10.5625,-27.3126
10:58:21.316,-5.9375,-13.4376
10:58:21.325,0.9375,0.5
10:58:21.338,7.1875,16.3126
10:58:21.346,13.8126,33.3126
10:58:21.356,19.9376,48.4377
10:58:21.366,26.1251,62.6252
10:58:21.375,30.8751,74.9378
10:58:21.386,33.9376,84.1253
10:58:21.395,36.0626,91.2504
10:58:21.404,36.1251,95.8129
10:58:21.414,36.3751,100.1879
10:58:21.424,36.5001,101.3754
10:58:21.436,33.5626,102.1879
10:58:21.447,32.3751,102.1879
10:58:21.456,32.5001,102.2504
10:58:21.464,32.3126,103.6879
10:58:21.478,32.1251,103.2504
10:58:21.486,30.9376,101.8129
10:58:21.496,31.6251,99.5004
10:58:21.507,32.1251,96.8129
10:58:21.523,31.5001,92.8129
10:58:21.526,29.6876,85.8753
10:58:21.541,26.0001,78.6878
10:58:21.549,22.3751,70.0003
10:58:21.556,18.8126,63.3752
10:58:21.566,17.2501,58.6877
10:58:21.576,16.1251,55.0627
10:58:21.584,16.0626,52.5627
10:58:21.596,18.1876,54.6252
10:58:21.605,23.0001,56.3752
10:58:21.616,26.1876,59.0627
10:58:21.642,29.3751,60.5627
10:58:21.645,30.7501,60.6252
10:58:21.651,30.7501,59.6877
10:58:21.655,30.5626,55.8752
10:58:21.685,28.0626,51.8127
10:58:21.687,23.7501,45.6877
10:58:21.691,19.3126,37.0001
10:58:21.696,14.0626,28.6876
10:58:21.734,8.4375,20.0001
10:58:21.735,2.6875,11.75
10:58:21.738,-2,2.4375
10:58:21.740,-8.375,-7.5625
10:58:21.745,-9.75,-15.7501
10:58:21.780,-6.3125,-17.9376
10:58:21.782,-0.8125,-15.7501
10:58:21.783,5.8125,-10.75
10:58:21.786,16.5626,-0.25
10:58:21.816,31.0001,15.8751
10:58:21.819,44.1252,31.0001
10:58:21.822,52.6877,39.1251
10:58:21.827,56.5002,36.1251
10:58:21.838,56.8127,25.5001
10:58:21.846,51.6252,8.5
10:58:21.854,43.2502,-11
10:58:21.867,30.6876,-34.5626
10:58:21.876,11.5625,-60.0002
10:58:21.886,-10.5625,-87.1253
10:58:21.896,-36.0001,-112.1879
10:58:21.906,-54.8752,-134.063
10:58:21.917,-61.1877,-142.438
