timestamp,Red,IR
12:53:20.590,6.875,2.0625
12:53:20.599,6.8125,0.875
12:53:20.609,5.6875,-0.8125
12:53:20.619,4.6875,-2.6875
12:53:20.628,4.5,-4.6875
12:53:20.639,3.625,-8.0625
12:53:20.648,3.25,-9.75
12:53:20.659,2.6875,-11.25
12:53:20.668,2.125,-12.5625
12:53:20.678,1.625,-13.3126
12:53:20.702,1.125,-15.0001
12:53:20.704,0.4375,-17.3751
12:53:20.708,1.125,-19.2501
12:53:20.739,-0.375,-20.9376
12:53:20.741,-1.375,-22.0626
12:53:20.774,-1,-23.6876
12:53:20.776,-1.6875,-26.0626
12:53:20.778,-2.1875,-26.5001
12:53:20.780,-3.1875,-26.5626
12:53:20.784,-2.75,-28.3126
12:53:20.790,-3.125,-28.7501
12:53:20.824,-3,-30.0001
12:53:20.829,-3.625,-31.4376
12:53:20.830,-3.9375,-30.8751
12:53:20.832,-4.4375,-32.7501
12:53:20.839,-4.1875,-33.0001
12:53:20.848,-4.5,-33.4376
12:53:20.869,-4.3125,-34.2501
12:53:20.872,-5.125,-34.9376
12:53:20.878,-5,-35.3751
12:53:20.888,-4.8125,-35.3751
12:53:20.900,-5.375,-36.6251
12:53:20.909,-5.5,-37.8751
12:53:20.918,-5.5625,-37.5001
12:53:20.928,-5.75,-38.9376
12:53:20.938,-5.5625,-38.7501
12:53:20.948,-6.625,-39.3127
12:53:20.963,-5.9375,-40.1252
12:53:20.968,-6.5,-38.6251
12:53:20.979,-6.9375,-38.9376
12:53:20.995,-6.1875,-37.0626
12:53:21.026,-4.3125,-31.5001
12:53:21.042,-1,-20.5001
12:53:21.045,3.375,-8.375
12:53:21.047,8.0625,6.1875
12:53:21.048,12.8125,18.3126
12:53:21.051,15.1876,30.5001
12:53:21.058,18.6876,37.3126
12:53:21.068,19.4376,43.8752
12:53:21.078,20.8126,45.3752
12:53:21.088,21.6876,48.5627
12:53:21.098,22.3126,49.5002
12:53:21.108,22.1876,50.1252
12:53:21.118,22.3751,50.6252
12:53:21.134,22.5626,49.8752
12:53:21.150,21.8751,49.5627
12:53:21.152,21.8751,49.3127
12:53:21.161,21.5001,49.0627
12:53:21.169,20.9376,48.2502
12:53:21.178,21.6876,47.3752
12:53:21.188,20.2501,44.9377
12:53:21.198,19.3126,42.5002
12:53:21.208,18.4376,39.6877
12:53:21.224,17.1251,35.6251
12:53:21.228,16.2501,31.6251
12:53:21.238,15.3751,30.0626
12:53:21.248,14.8751,26.8126
12:53:21.258,13.8126,24.1251
12:53:21.268,13.2501,21.5626
12:53:21.278,12.3125,19.8751
12:53:21.288,11.875,17.5626
12:53:21.299,11.4375,15.9376
12:53:21.308,11.4375,14.3751
12:53:21.318,11.3125,13.6876
12:53:21.328,10.1875,12.0625
12:53:21.338,10.6875,10.3125
12:53:21.348,9.375,8.9375
12:53:21.384,9.4375,7.9375
12:53:21.387,8.25,4.875
12:53:21.389,7.0625,2.6875
12:53:21.392,6.75,1.1875
12:53:21.398,6.4375,-2
12:53:21.433,5.4375,-3
12:53:21.437,4.625,-4.5
12:53:21.439,5.0625,-7.125
12:53:21.471,3.9375,-9.1875
12:53:21.472,3.25,-10.3125
12:53:21.475,2.9375,-12.875
12:53:21.481,2.3125,-14.6876
12:53:21.481,2.25,-15.6876
12:53:21.515,1.9375,-17.0626
12:53:21.517,1.0625,-17.5626
12:53:21.519,1,-19.2501
12:53:21.522,1,-20.5626
12:53:21.529,1,-21.3751
12:53:21.539,0.9375,-22.2501
12:53:21.548,0.125,-23.5001
12:53:21.558,-1.0625,-23.3126
12:53:21.568,-0.8125,-25.1251
12:53:21.579,-1.0625,-25.7501
12:53:21.588,-1.3125,-26.1251
12:53:21.599,-1.25,-27.1876
12:53:21.608,-1.625,-28.8126
12:53:21.619,-2.4375,-28.6876
12:53:21.628,-2.5,-28.5626
12:53:21.638,-2.5,-30.0626
12:53:21.649,-2.875,-31.5626
12:53:21.658,-2.6875,-30.3751
12:53:21.668,-3.125,-33.1876
12:53:21.678,-3.5,-33.3126
12:53:21.688,-3.4375,-34.3126
12:53:21.699,-4.3125,-34.3751
12:53:21.708,-4.8125,-34.3751
12:53:21.718,-4.5,-35.8751
12:53:21.728,-4.25,-36.8126
12:53:21.739,-4.125,-35.8126
12:53:21.749,-5.125,-36.5626
12:53:21.758,-5.75,-37.0626
12:53:21.769,-5.5,-36.6251
12:53:21.778,-3.875,-30.0001
12:53:21.788,-1.25,-22.1876
12:53:21.799,2.6875,-9.3125
12:53:21.809,8.5,5.375
12:53:21.818,12.25,19.4376
12:53:21.829,16.6251,31.3751
12:53:21.838,19.0001,39.6877
12:53:21.849,20.8751,46.8752
12:53:21.858,22.8751,50.1877
12:53:21.868,23.6876,53.6252
12:53:21.880,24.1876,55.9377
12:53:21.888,24.6876,55.9377
12:53:21.898,24.6876,57.6877
12:53:21.908,25.0001,56.8752
12:53:21.918,24.1251,57.6252
12:53:21.928,25.5001,57.1877
12:53:21.938,24.1251,56.8752
12:53:21.948,24.6876,55.3752
12:53:21.958,23.5001,55.3752
12:53:21.974,22.8126,54.2502
12:53:21.978,22.0626,51.8752
12:53:21.988,22.0001,48.5002
12:53:21.999,20.0626,44.8127
12:53:22.008,18.5626,41.5002
12:53:22.018,17.8126,37.5626
12:53:22.028,16.9376,34.0626
12:53:22.038,16.0626,31.1876
12:53:22.049,14.8751,27.9376
12:53:22.058,14.0626,26.0001
12:53:22.070,13.7501,23.9376
12:53:22.086,12.625,22.5001
12:53:22.094,12.4375,21.0626
12:53:22.123,11.875,18.6876
12:53:22.126,11.125,17.1876
12:53:22.129,10.5,14.6876
12:53:22.133,10.1875,12.625
12:53:22.164,10.1875,11.25
12:53:22.167,8.625,8.5625
12:53:22.170,8.1875,7.25
12:53:22.177,7.625,5.6875
12:53:22.214,7.6875,4.25
12:53:22.217,6.5625,1.3125
12:53:22.219,5.5,-0.75
12:53:22.242,5,-3.375
12:53:22.242,4.3125,-4.8125
12:53:22.246,4.125,-7.125
12:53:22.248,3.125,-9
12:53:22.282,1.6875,-12.4375
12:53:22.285,1.625,-13.2501
12:53:22.287,0.9375,-14.1251
12:53:22.292,1.0625,-16.6876
12:53:22.294,0.875,-18.1876
12:53:22.303,-0.75,-20.5001
12:53:22.320,-1.25,-20.5001
12:53:22.327,-1,-21.5001
12:53:22.344,-0.8125,-23.0626
12:53:22.353,-1.8125,-23.7501
12:53:22.365,-1.9375,-23.8751
12:53:22.371,-1.5625,-25.9376
12:53:22.375,-2.25,-27.1251
12:53:22.384,-2.5625,-29.1251
12:53:22.394,-3.4375,-29.3126
12:53:22.403,-3.9375,-30.0626
12:53:22.413,-4.25,-30.5001
12:53:22.427,-3.6875,-31.4376
12:53:22.442,-3.6875,-31.4376
12:53:22.445,-4.5625,-31.1876
12:53:22.459,-4.5625,-32.3751
12:53:22.474,-4.0625,-34.0626
12:53:22.478,-4.875,-33.3751
12:53:22.486,-4.75,-35.1876
12:53:22.493,-5.25,-36.4376
12:53:22.503,-5.125,-35.8126
12:53:22.513,-5,-36.8126
12:53:22.523,-5.3125,-36.7501
12:53:22.533,-4.8125,-37.0626
12:53:22.543,-6,-37.6876
12:53:22.553,-6,-37.4376
12:53:22.563,-4.3125,-32.8126
12:53:22.573,-1.9375,-24.3126
12:53:22.583,2.3125,-11.625
12:53:22.593,6.625,2.4375
12:53:22.603,11.375,17.3751
12:53:22.613,15.9376,30.0001
12:53:22.623,18.8751,40.6252
12:53:22.633,21.3126,47.3127
12:53:22.643,22.8751,51.1877
12:53:22.654,23.3126,55.6252
12:53:22.664,24.0001,55.8752
12:53:22.673,24.1876,56.5002
12:53:22.684,24.2501,57.3752
12:53:22.693,24.0626,56.8752
12:53:22.703,23.8751,56.8752
12:53:22.713,24.1251,57.3127
12:53:22.729,24.1251,57.1252
12:53:22.733,24.2501,56.8752
12:53:22.744,23.8126,56.0627
12:53:22.754,23.5001,55.3127
12:53:22.763,23.0626,54.2502
12:53:22.773,22.2501,50.8127
12:53:22.783,20.1876,47.5002
12:53:22.793,19.0626,44.0002
12:53:22.803,18.0001,39.1877
12:53:22.813,16.7501,35.8126
12:53:22.823,16.9376,33.1876
12:53:22.833,15.8126,30.3126
12:53:22.845,14.5626,28.7501
12:53:22.854,14.3751,26.5001
12:53:22.874,13.2501,24.9376
12:53:22.877,13.0625,23.3751
12:53:22.904,12.25,20.3126
12:53:22.906,11.625,18.8751
12:53:22.910,11.125,16.8751
12:53:22.915,10.375,14.5626
12:53:22.948,9.3125,13.9376
12:53:22.949,8.9375,10.875
12:53:22.952,8.4375,8.625
12:53:22.954,7.8125,7.125
12:53:22.983,7.0625,4.0625
12:53:22.986,6.25,1.5625
12:53:22.991,6.125,0.625
12:53:22.996,4.375,-1.875
12:53:23.020,4.125,-3.75
12:53:23.023,4.1875,-7
12:53:23.024,2.75,-7.6875
12:53:23.033,2.375,-11.625
12:53:23.047,1.125,-11.4375
12:53:23.054,1.0625,-14.5626
12:53:23.063,0.5625,-15.4376
12:53:23.074,-0.125,-15.6876
12:53:23.083,0,-18.8126
12:53:23.093,-0.625,-20.5626
12:53:23.103,-1.5,-22.1251
12:53:23.114,-1.875,-23.1251
12:53:23.124,-1.9375,-23.0626
12:53:23.133,-2.0625,-25.6251
12:53:23.143,-2.75,-27.1876
12:53:23.153,-3.6875,-27.4376
12:53:23.163,-3.625,-29.1876
12:53:23.173,-3.9375,-30.5001
12:53:23.183,-4.375,-31.5626
12:53:23.193,-4.1875,-31.7501
12:53:23.203,-4.8125,-32.3126
12:53:23.213,-4.9375,-33.0001
12:53:23.223,-4.8125,-34.3126
12:53:23.233,-6.0625,-33.6876
12:53:23.243,-5.8125,-36.0001
12:53:23.253,-6.1875,-35.6251
12:53:23.263,-6.125,-36.7501
12:53:23.273,-6.6875,-36.9376
12:53:23.283,-6.75,-36.6876
12:53:23.293,-6.0625,-37.8126
12:53:23.303,-6.4375,-36.6876
12:53:23.313,-5.875,-35.5001
12:53:23.324,-4.6875,-30.0001
12:53:23.333,-1.3125,-20.9376
12:53:23.345,2.75,-7.125
12:53:23.353,8.25,6.6875
12:53:23.363,11.8125,21.0626
12:53:23.373,16.3751,32.8126
12:53:23.383,18.8126,41.0627
12:53:23.393,20.7501,49.1877
12:53:23.403,22.6876,51.5627
12:53:23.414,23.0626,56.0002
12:53:23.423,24.1876,56.3127
12:53:23.433,24.5001,57.6877
12:53:23.443,24.5001,57.1877
12:53:23.453,24.4376,57.3127
12:53:23.463,24.5626,58.1252
12:53:23.480,24.8126,57.0002
12:53:23.484,24.9376,58.0627
12:53:23.493,25.0001,57.6252
12:53:23.503,24.6876,55.9377
12:53:23.513,23.8126,54.4377
12:53:23.523,22.8751,52.8752
12:53:23.561,22.3751,49.1877
12:53:23.564,20.4376,45.1877
12:53:23.566,19.0626,41.9377
12:53:23.592,17.7501,38.1251
12:53:23.593,17.1876,34.4376
12:53:23.598,15.3126,32.0001
12:53:23.602,15.2501,28.7501
12:53:23.604,13.8751,27.5001
12:53:23.647,13,24.1251
12:53:23.648,12.9375,22.1876
12:53:23.721,12.1875,20.2501
12:53:23.724,11.625,18.3126
12:53:23.726,10.4375,16.4376
12:53:23.731,10.25,14.1251
12:53:23.733,9.3125,12.125
12:53:23.733,7.375,10
12:53:23.741,7.5625,6.6875
12:53:23.751,6,4.375
12:53:23.767,5.25,2.3125
12:53:23.770,4.6875,-0.625
12:53:23.784,4.125,-2.4375
12:53:23.799,3.25,-5.1875
12:53:23.802,2.375,-7.6875
12:53:23.812,0.5625,-9.75
12:53:23.818,0.3125,-12.875
12:53:23.828,-0.875,-15.0626
12:53:23.838,-0.9375,-15.8751
12:53:23.852,-1.0625,-18.8751
12:53:23.858,-2.375,-19.8126
12:53:23.869,-3.0625,-22.0626
12:53:23.878,-2.75,-24.0626
12:53:23.888,-3.75,-24.9376
12:53:23.898,-6.9375,-34.3126
12:53:23.908,-7.875,-36.0626
12:53:23.919,-7.625,-36.7501
12:53:23.928,-8.0625,-37.7501
12:53:23.940,-8.6875,-38.3751
12:53:23.948,-8.25,-38.8126
12:53:23.958,-9,-40.0002
12:53:23.968,-9.75,-40.3127
12:53:23.978,-9.3125,-41.7502
12:53:23.989,-10.3125,-41.1877
12:53:23.998,-10.25,-43.8127
12:53:24.008,-11.0625,-44.5002
12:53:24.018,-11.3125,-45.5627
12:53:24.029,-12.4375,-46.8752
12:53:24.038,-12.1875,-47.5002
12:53:24.049,-13.2501,-48.8127
12:53:24.059,-13,-49.5627
12:53:24.068,-14.2501,-49.1252
12:53:24.078,-13.1876,-46.8752
12:53:24.088,-11.8125,-40.3127
12:53:24.099,-8,-30.5001
12:53:24.108,-3.375,-15.8751
12:53:24.118,2.125,-1.5625
12:53:24.128,5.5,12.0625
12:53:24.138,9.5625,22.4376
12:53:24.148,11.875,31.0001
12:53:24.158,14.2501,36.6876
12:53:24.168,15.3126,40.1877
12:53:24.178,16.6251,42.5627
12:53:24.188,16.5626,44.0002
12:53:24.198,17.0626,45.3752
12:53:24.208,17.6876,44.9377
12:53:24.218,17.1876,46.1252
12:53:24.229,17.5626,46.3752
12:53:24.238,18.4376,46.4377
12:53:24.249,17.9376,45.6252
12:53:24.282,17.8751,45.7502
12:53:24.282,17.0626,44.9377
12:53:24.285,16.6251,43.3127
12:53:24.290,16.0626,40.1252
12:53:24.319,14.0626,36.0001
12:53:24.324,12.5,32.5626
12:53:24.325,12.6875,28.6876
12:53:24.331,10.25,25.8126
12:53:24.339,9.5625,21.4376
12:53:24.371,9,18.0626
12:53:24.372,9,15.8126
12:53:24.374,8.5625,14.1876
12:53:24.381,7,12.375
12:53:24.410,7.4375,10.5625
12:53:24.413,5.75,8.9375
12:53:24.416,5.8125,6.25
12:53:24.423,4.1875,4.625
12:53:24.430,3.5625,2.4375
12:53:24.438,3,0.375
12:53:24.448,2.3125,-2.8125
12:53:24.458,1.875,-3.75
12:53:24.469,0.75,-7.3125
12:53:24.480,-0.125,-9.375
12:53:24.488,0.5,-10.875
12:53:24.498,-1.3125,-13.4376
12:53:24.508,-0.875,-15.8751
12:53:24.518,-2.1875,-17.1251
12:53:24.528,-2.4375,-18.8126
12:53:24.539,-2.3125,-20.7501
12:53:24.548,-3.6875,-22.0001
12:53:24.558,-4,-24.5001
12:53:24.568,-4.25,-26.0001
12:53:24.578,-4.0625,-26.6876
12:53:24.589,-4.8125,-27.8751
12:53:24.605,-5.375,-28.7501
12:53:24.609,-4.9375,-30.2501
12:53:24.620,-6,-31.0001
12:53:24.628,-5.3125,-32.1251
12:53:24.638,-6.375,-33.1251
12:53:24.649,-5.9375,-33.6876
12:53:24.658,-6.3125,-33.6251
12:53:24.668,-6,-34.8751
12:53:24.678,-6.5,-35.3751
12:53:24.688,-6.125,-35.6876
12:53:24.698,-6.4375,-35.5626
12:53:24.708,-6.9375,-37.1876
12:53:24.718,-6.4375,-37.1876
12:53:24.728,-7.25,-37.2501
12:53:24.739,-6.8125,-38.6251
12:53:24.748,-7.25,-39.8127
12:53:24.758,-7.4375,-39.3127
12:53:24.768,-7,-40.3127
12:53:24.778,-7.25,-40.3752
12:53:24.788,-7,-40.4377
12:53:24.798,-7.625,-40.3127
12:53:24.808,-7,-41.7502
12:53:24.839,-7.75,-41.2502
12:53:24.844,-7.4375,-41.1877
12:53:24.844,-7.8125,-39.6877
12:53:24.851,-6.5,-36.1251
12:53:24.858,-3.5625,-27.9376
12:53:24.868,0.3125,-15.0626
12:53:24.878,5.1875,-0.8125
12:53:24.888,10.375,14.6251
12:53:24.898,14.4376,26.3751
12:53:24.909,17.3751,35.6876
12:53:24.919,19.8126,42.3752
12:53:24.929,20.8126,47.0002
12:53:24.938,21.6876,49.8752
12:53:24.948,22.8751,51.6252
12:53:24.958,22.5626,52.3752
12:53:24.969,23.1876,52.1877
12:53:24.990,22.3126,52.8752
12:53:24.996,22.8751,53.4377
12:53:24.998,23.0001,51.3752
12:53:25.012,22.3751,53.5002
12:53:25.021,22.4376,51.1877
12:53:25.028,22.0001,50.6877
12:53:25.038,21.4376,48.6252
12:53:25.048,20.9376,47.0627
12:53:25.064,20.5001,44.0002
12:53:25.093,18.3126,40.5627
12:53:25.096,17.8126,36.8751
12:53:25.131,16.5001,32.5626
12:53:25.146,15.9376,30.8126
12:53:25.216,14.5626,26.6251
12:53:25.218,13.6251,24.0626
12:53:25.218,12.6875,21.6876
12:53:25.218,12.25,20.3126
12:53:25.219,12.1875,18.8751
12:53:25.221,11.0625,16.1876
12:53:25.234,10,14.5626
12:53:25.236,9.75,12.5625
12:53:25.236,8.6875,10.5625
12:53:25.238,8.5625,8.3125
12:53:25.248,7.625,6.3125
12:53:25.258,5.6875,4.25
12:53:25.269,5.3125,2
12:53:25.281,4.6875,-0.375
12:53:25.289,4.125,-2.25
12:53:25.298,4.125,-3.9375
12:53:25.308,3.5625,-6.125
12:53:25.318,3,-7.0625
12:53:25.330,2.75,-9
12:53:25.338,1.9375,-11.1875
12:53:25.354,0.375,-15.1876
12:53:25.360,-0.125,-16.6251
12:53:25.368,-1.625,-19.2501
12:53:25.378,-1.75,-21.0626
12:53:25.388,-2.75,-23.1251
12:53:25.398,-4.0625,-27.8126
12:53:25.408,-4.625,-29.2501
12:53:25.419,-5,-30.3751
12:53:25.428,-5.1875,-32.5626
12:53:25.439,-6,-32.0001
12:53:25.448,-6.375,-34.9376
12:53:25.458,-6.5625,-35.8126
12:53:25.468,-8.1875,-37.1876
12:53:25.478,-8.5625,-38.3751
12:53:25.489,-8.6875,-40.1252
12:53:25.498,-8.375,-39.8127
12:53:25.508,-9.5,-41.8127
12:53:25.519,-10.25,-42.2502
12:53:25.528,-10.8125,-43.6252
12:53:25.538,-10.8125,-44.6252
12:53:25.548,-11.1875,-45.2502
12:53:25.558,-12.1875,-46.1877
12:53:25.568,-12.75,-44.7502
12:53:25.578,-11,-40.0002
12:53:25.588,-9,-30.9376
12:53:25.599,-4.625,-19.4376
12:53:25.608,-0.75,-5.5625
12:53:25.620,3.375,7.25
12:53:25.629,6.5625,17.3751
12:53:25.638,8.3125,25.8751
12:53:25.648,10.5,29.6251
12:53:25.658,11.0625,33.8751
12:53:25.669,12,34.7501
12:53:25.678,11.5625,37.2501
12:53:25.688,12.1875,36.6876
12:53:25.698,12.25,37.8751
12:53:25.709,12.0625,36.8751
12:53:25.718,11.1875,35.5626
12:53:25.730,10.1875,35.6876
12:53:25.738,10,34.4376
12:53:25.749,9.9375,33.6876
12:53:25.780,9.375,31.8126
12:53:25.781,8.5,29.6876
12:53:25.783,7.0625,25.8126
12:53:25.790,5.6875,22.8126
12:53:25.820,4.1875,19.5626
12:53:25.821,4,15.2501
12:53:25.823,2.5,11.375
12:53:25.829,1.625,8.625
12:53:25.858,1.3125,6
12:53:25.861,-0.125,2.875
12:53:25.863,-0.625,1
12:53:25.892,-1.6875,-1.8125
12:53:25.893,-1.75,-2.5
12:53:25.896,-2.5625,-5.875
12:53:25.905,-2.8125,-6.5625
12:53:25.917,-3.625,-10.125
12:53:25.919,-3.9375,-10.1875
12:53:25.939,-4.5,-13.1251
12:53:25.942,-5.0625,-14.1251
12:53:25.949,-5,-15.5001
12:53:25.958,-5.1875,-17.8751
12:53:25.968,-5.625,-19.6876
12:53:25.979,-6.3125,-21.3126
12:53:25.988,-6.5625,-23.3126
12:53:26.000,-7.125,-24.3126
12:53:26.008,-7.375,-26.4376
12:53:26.018,-8.125,-28.0001
12:53:26.028,-8.4375,-29.7501
12:53:26.039,-9.25,-30.8751
12:53:26.054,-8.8125,-32.5626
12:53:26.063,-9.625,-33.0626
12:53:26.073,-9.625,-34.8126
12:53:26.084,-10,-34.9376
12:53:26.093,-10.3125,-34.8126
12:53:26.120,-9.75,-37.1876
12:53:26.123,-10.9375,-36.8751
12:53:26.134,-10.875,-38.5626
12:53:26.138,-10.625,-39.4377
12:53:26.144,-11.5625,-39.8752
12:53:26.153,-11.3125,-41.7502
12:53:26.163,-12.25,-41.8752
12:53:26.173,-12.125,-42.8127
12:53:26.191,-11.8125,-42.8127
12:53:26.200,-12.5,-43.0627
12:53:26.208,-12.8125,-45.0627
12:53:26.218,-13.2501,-45.6252
12:53:26.229,-14.3751,-47.6252
12:53:26.238,-14.3751,-48.0002
12:53:26.248,-13.8126,-47.5627
12:53:26.259,-14.1876,-49.0627
12:53:26.269,-14.5626,-49.4377
12:53:26.280,-13.8126,-49.5002
12:53:26.299,-14.8751,-50.5002
12:53:26.305,-14.8751,-49.6877
12:53:26.312,-14.0626,-46.9377
12:53:26.319,-11.875,-40.6252
12:53:26.336,-9.25,-30.1876
12:53:26.342,-5.3125,-18.8751
12:53:26.350,1.4375,3.3125
12:53:26.359,6,14.8126
12:53:26.369,8.9375,23.9376
12:53:26.381,11.375,31.2501
12:53:26.388,12.8125,36.0626
12:53:26.400,14.7501,39.3127
12:53:26.408,16.0001,42.2502
12:53:26.418,16.3126,43.5627
12:53:26.429,17.0001,45.1252
12:53:26.440,17.6876,46.4377
12:53:26.452,17.8751,45.9377
12:53:26.467,17.9376,47.0627
12:53:26.470,18.5626,47.0002
12:53:26.485,18.4376,46.6252
12:53:26.500,18.8751,46.6252
12:53:26.503,18.9376,44.6877
12:53:26.537,17.6876,44.1877
12:53:26.539,17.6251,40.3127
12:53:26.568,16.1876,36.8126
12:53:26.568,15.0001,33.2501
12:53:26.570,13.6876,30.0626
12:53:26.572,13.4376,25.8751
12:53:26.597,12.25,23.9376
12:53:26.599,11.25,19.3126
12:53:26.601,10.625,18.4376
12:53:26.603,9.875,14.9376
12:53:26.609,9.3125,14.3126
12:53:26.643,8.25,10.75
12:53:26.646,7,9.4375
12:53:26.647,7.125,8.0625
12:53:26.649,5.9375,5.75
12:53:26.678,5.4375,4.0625
12:53:26.680,4.6875,2.25
12:53:26.684,3.875,-0.375
12:53:26.690,3.375,-2.6875
12:53:26.700,3.0625,-4.9375
12:53:26.709,2.9375,-5.625
12:53:26.718,2.625,-8.4375
12:53:26.730,1.9375,-8.9375
12:53:26.738,2,-10.9375
12:53:26.748,0.9375,-12.0625
12:53:26.758,0.25,-13.1876
12:53:26.768,0.125,-15.6876
12:53:26.778,-0.625,-16.6251
12:53:26.788,-0.9375,-18.9376
12:53:26.798,-1.4375,-19.6876
12:53:26.808,-1.3125,-20.8751
12:53:26.818,-1.6875,-22.8751
12:53:26.829,-1.9375,-23.7501
12:53:26.839,-2.1875,-24.4376
12:53:26.848,-3.375,-25.4376
12:53:26.858,-3.5625,-27.0001
12:53:26.868,-3.875,-27.4376
12:53:26.878,-4.4375,-29.2501
12:53:26.889,-4.6875,-29.1251
12:53:26.898,-4.9375,-30.3751
12:53:26.908,-4.3125,-31.3751
12:53:26.918,-4.9375,-30.6251
12:53:26.928,-5,-32.6251
12:53:26.939,-5.125,-31.0626
12:53:26.948,-5.5,-33.8751
12:53:26.959,-4.5625,-33.9376
12:53:26.968,-6,-35.1876
12:53:26.978,-6.125,-35.5001
12:53:26.989,-5.9375,-35.3751
12:53:26.998,-6.75,-35.4376
12:53:27.010,-6.375,-37.6251
12:53:27.018,-7.125,-36.8751
12:53:27.030,-6.8125,-38.4376
12:53:27.038,-6.5625,-37.9376
12:53:27.048,-7.0625,-37.2501
12:53:27.058,-6.25,-34.9376
12:53:27.074,-3.8125,-26.9376
12:53:27.079,-0.5,-15.3751
12:53:27.089,4.6875,-2.5625
12:53:27.098,8.25,13.2501
12:53:27.108,13.2501,24.7501
12:53:27.118,17.3126,35.3751
12:53:27.128,18.1876,42.6252
12:53:27.138,20.5626,47.6252
12:53:27.148,20.8126,51.0627
12:53:27.158,22.5001,53.3127
12:53:27.169,23.0001,55.5002
12:53:27.178,23.4376,55.6877
12:53:27.188,22.7501,56.7502
12:53:27.198,23.7501,56.5002
12:53:27.208,22.9376,56.6877
12:53:27.218,23.6251,55.7502
12:53:27.228,22.8126,55.0627
12:53:27.239,22.6876,55.0627
12:53:27.248,22.2501,52.6877
12:53:27.258,21.8751,51.2502
12:53:27.277,21.5626,47.7502
12:53:27.279,19.9376,44.1252
12:53:27.308,18.3751,39.8127
12:53:27.313,17.0626,37.2501
12:53:27.315,15.4376,33.6876
12:53:27.319,15.0626,29.5001
12:53:27.351,13.3126,26.1251
12:53:27.353,11.6875,23.5001
12:53:27.355,11.375,20.1251
12:53:27.363,10.75,18.5626
12:53:27.398,10.375,16.4376
12:53:27.401,9.6875,13.8126
12:53:27.405,9.0625,12.9375
12:53:27.411,8.4375,10.125
12:53:27.411,8.125,7.9375
12:53:27.439,7.1875,5.6875
12:53:27.443,6.375,3.4375
12:53:27.444,5.9375,1.6875
12:53:27.450,5.0625,0.0625
12:53:27.461,3.6875,-1.9375
12:53:27.468,3.5,-4.75
12:53:27.478,2.4375,-6.4375
12:53:27.489,1.4375,-8.6875
12:53:27.498,1.1875,-11
12:53:27.508,0.4375,-13.5001
12:53:27.518,0.0625,-14.4376
12:53:27.528,-0.125,-15.5001
12:53:27.541,-0.8125,-16.0626
12:53:27.548,-1.375,-17.3751
12:53:27.558,-1,-19.5001
12:53:27.569,-2,-20.1251
12:53:27.578,-2.625,-20.8126
12:53:27.589,-2.75,-23.4376
12:53:27.599,-3.6875,-24.6251
12:53:27.608,-3.9375,-25.5626
12:53:27.628,-4.4375,-27.1251
12:53:27.636,-4.25,-27.3126
12:53:27.649,-4.625,-29.0626
12:53:27.652,-4.5,-28.7501
12:53:27.659,-4.6875,-29.5001
12:53:27.668,-4.5625,-30.1251
12:53:27.678,-5.1875,-30.8751
12:53:27.688,-5.125,-32.6876
12:53:27.698,-6.125,-32.0001
12:53:27.709,-5.6875,-34.9376
12:53:27.718,-5.375,-33.9376
12:53:27.729,-6.375,-35.6251
12:53:27.738,-6.5,-36.3126
12:53:27.748,-6.625,-36.2501
12:53:27.759,-7.1875,-36.0626
12:53:27.768,-6.3125,-37.6251
12:53:27.785,-5.375,-37.4376
12:53:27.802,-7.0625,-37.9376
12:53:27.803,-6.1875,-38.5626
12:53:27.812,-6.4375,-38.3751
12:53:27.819,-6.875,-38.3126
12:53:27.828,-7.5625,-37.5001
12:53:27.839,-6.375,-33.0626
12:53:27.848,-2.8125,-23.8751
12:53:27.859,0,-12.25
12:53:27.868,4.1875,-0.6875
12:53:27.878,8.9375,12.6875
12:53:27.888,11.6875,24.3126
12:53:27.898,14.8126,32.5001
12:53:27.908,17.5626,39.5627
12:53:27.918,18.2501,44.3127
12:53:27.928,18.9376,45.4377
12:53:27.940,19.5626,46.2502
12:53:27.948,19.0626,46.6877
12:53:27.959,19.6251,45.5002
12:53:27.968,18.4376,45.9377
12:53:27.978,18.3751,44.9377
12:53:27.988,17.8751,44.5002
12:53:28.020,18.1251,43.0627
12:53:28.023,17.7501,41.6252
12:53:28.025,17.4376,40.3752
12:53:28.029,16.2501,36.5001
12:53:28.060,14.5626,34.5001
12:53:28.062,14.2501,30.8126
12:53:28.065,13.9376,27.3751
12:53:28.072,11.9375,24.6251
12:53:28.098,11.125,21.0001
12:53:28.104,9.9375,17.8751
12:53:28.106,9.875,15.9376
12:53:28.109,8.5625,13.9376
12:53:28.119,7.25,11.625
12:53:28.149,7.3125,8.6875
12:53:28.152,5.9375,7.375
12:53:28.154,6.25,5.125
12:53:28.159,5.3125,5
12:53:28.177,5.25,1.75
12:53:28.179,4.3125,-0.375
12:53:28.189,4.125,-1.75
12:53:28.199,3.5625,-4.1875
12:53:28.212,3.0625,-5.25
12:53:28.218,2.6875,-7
12:53:28.228,2,-9.5625
12:53:28.238,0.75,-10
12:53:28.249,0.625,-12.5
12:53:28.259,0.5625,-14.4376
12:53:28.269,-0.625,-15.1876
12:53:28.280,-0.625,-17.4376
12:53:28.289,-1,-17.9376
12:53:28.298,-0.9375,-19.1251
12:53:28.308,-2.5,-20.8751
12:53:28.318,-3.1875,-22.4376
12:53:28.328,-3.875,-25.5001
12:53:28.338,-4.75,-26.5626
12:53:28.348,-4.875,-27.1251
12:53:28.358,-5.3125,-28.5626
12:53:28.368,-5.3125,-29.1876
12:53:28.378,-5.5,-30.8126
12:53:28.388,-5.625,-30.2501
12:53:28.398,-6.1875,-32.6251
12:53:28.408,-6.25,-32.3751
12:53:28.418,-6.875,-32.1251
12:53:28.428,-6.125,-33.7501
12:53:28.439,-7.3125,-33.9376
12:53:28.448,-7.0625,-34.7501
12:53:28.458,-6.75,-35.8751
12:53:28.469,-7.0625,-35.7501
12:53:28.478,-6.875,-37.3751
12:53:28.488,-6.9375,-37.1876
12:53:28.498,-7.8125,-37.0001
12:53:28.508,-7.4375,-38.5626
12:53:28.518,-8.125,-37.6251
12:53:28.528,-7.875,-39.8127
12:53:28.540,-7.125,-39.3126
12:53:28.548,-8.125,-39.7502
12:53:28.559,-8.4375,-40.6252
12:53:28.568,-8.0625,-41.0627
12:53:28.578,-9,-42.0627
12:53:28.592,-8.75,-42.0002
12:53:28.598,-9.375,-40.4377
12:53:28.609,-8.4375,-39.9377
12:53:28.618,-6.1875,-32.6251
12:53:28.628,-3.8125,-23.5626
12:53:28.638,0.375,-12.625
12:53:28.648,4.4375,1.375
12:53:28.680,8,11.9375
12:53:28.682,13.0625,23.3751
12:53:28.685,14.8126,32.1876
12:53:28.689,16.8751,36.9376
12:53:28.714,18.5626,40.8127
12:53:28.718,18.2501,42.7502
12:53:28.721,19.2501,43.9377
12:53:28.748,18.5626,43.6877
12:53:28.752,19.0626,44.3127
12:53:28.754,19.0001,44.1877
12:53:28.760,18.3126,43.6877
12:53:28.768,19.1251,42.7502
12:53:28.796,18.1251,42.6252
12:53:28.799,18.2501,41.3127
12:53:28.803,16.6251,38.9376
12:53:28.832,15.9376,36.8126
12:53:28.835,15.2501,32.5001
12:53:28.838,13.5626,28.3751
12:53:28.841,12,24.4376
12:53:28.875,10.875,22.6876
12:53:28.879,10.625,18.4376
12:53:28.880,9.0625,15.4376
12:53:28.886,8.875,13.5001
12:53:28.889,7.4375,11.1875
12:53:28.899,6.3125,8.6875
12:53:28.909,6.9375,6.75
12:53:28.918,5.6875,6.4375
12:53:28.934,5,3.25
12:53:28.951,3.6875,1.75
12:53:28.952,3.8125,-1.9375
12:53:28.967,2.25,-2.6875
12:53:28.970,2.1875,-5.375
12:53:28.978,1.3125,-7.9375
12:53:28.989,1.25,-9.3125
12:53:28.998,0.8125,-10.6875
12:53:29.008,-0.4375,-11.6875
12:53:29.020,-1.1875,-13.2501
12:53:29.029,-0.6875,-15.3751
12:53:29.039,-1.9375,-16.6876
12:53:29.050,-1.875,-18.4376
12:53:29.061,-2.5,-19.9376
12:53:29.069,-3.125,-20.1251
12:53:29.088,-3.5625,-22.1251
12:53:29.091,-3.8125,-23.3126
12:53:29.106,-4.4375,-23.8751
12:53:29.122,-4.625,-25.7501
12:53:29.124,-5.25,-27.1251
12:53:29.130,-4.875,-27.5001
12:53:29.139,-5.75,-29.5626
12:53:29.148,-5.5,-28.6876
12:53:29.158,-5.375,-30.5626
12:53:29.169,-5.4375,-29.4376
12:53:29.178,-6,-31.5001
12:53:29.188,-5.9375,-32.3126
12:53:29.199,-6.6875,-31.0001
12:53:29.208,-6.625,-33.2501
12:53:29.220,-5.75,-33.3126
12:53:29.230,-6.9375,-33.7501
12:53:29.238,-6.5,-34.3751
12:53:29.249,-6.8125,-34.3751
12:53:29.259,-6.75,-35.5001
12:53:29.268,-7.4375,-34.9376
12:53:29.279,-7.5,-37.1251
12:53:29.289,-7.0625,-37.1251
12:53:29.298,-8.375,-37.3126
12:53:29.311,-8.375,-39.5002
12:53:29.319,-7.375,-38.8126
12:53:29.328,-8.125,-39.0626
12:53:29.342,-7.8125,-39.5627
12:53:29.349,-7.75,-39.5002
12:53:29.360,-8.6875,-40.9377
12:53:29.370,-7.8125,-40.7502
12:53:29.378,-9.6875,-40.0002
12:53:29.390,-9.5625,-41.9377
12:53:29.399,-9.1875,-39.6252
12:53:29.413,-8.5,-35.0001
12:53:29.451,-5.625,-27.3751
12:53:29.453,-3.125,-16.8126
12:53:29.456,0.4375,-6.75
12:53:29.458,4.6875,5.375
12:53:29.464,8.875,16.0626
12:53:29.469,10.75,24.1876
12:53:29.501,12.8125,29.1251
12:53:29.503,14.0001,33.4376
12:53:29.505,14.1876,35.4376
12:53:29.509,15.1251,37.3126
12:53:29.540,14.9376,38.6876
12:53:29.543,15.3126,37.8751
12:53:29.545,16.0001,37.8751
12:53:29.552,15.0001,37.8126
12:53:29.577,14.5001,36.6876
12:53:29.580,14.3126,36.0626
12:53:29.582,14.1251,33.8126
12:53:29.588,12.9375,33.0626
12:53:29.599,12.125,29.8126
12:53:29.609,11.375,26.5626
12:53:29.618,9.9375,23.4376
12:53:29.630,9.0625,20.7501
12:53:29.639,9.5625,18.1876
12:53:29.648,8.4375,15.7501
12:53:29.659,7.25,12.625
12:53:29.671,6.75,11.8125
12:53:29.678,7.125,9.5
12:53:29.689,6.125,6.9375
12:53:29.699,5.125,5.9375
12:53:29.711,4.8125,3.625
12:53:29.723,3.6875,1
12:53:29.730,3.0625,-0.4375
12:53:29.741,3,-2.5
12:53:29.750,2.6875,-4.375
12:53:29.758,1.5625,-6.5
12:53:29.770,1.3125,-7.875
12:53:29.780,1.25,-9.1875
12:53:29.789,1,-10.125
12:53:29.799,-0.1875,-12.0625
12:53:29.810,-0.25,-12.75
12:53:29.819,-0.0625,-14.9376
12:53:29.830,-0.5625,-15.8751
12:53:29.841,-0.625,-16.6251
12:53:29.848,-0.75,-16.8126
12:53:29.859,-0.6875,-17.0001
12:53:29.869,-0.625,-19.1876
12:53:29.880,-1.4375,-19.1251
12:53:29.889,-0.875,-21.1251
12:53:29.898,-2.25,-21.0001
12:53:29.909,-2.375,-23.1251
12:53:29.919,-1.9375,-23.5626
12:53:29.929,-2.625,-24.5001
12:53:29.960,-2.875,-24.3126
12:53:29.962,-2.6875,-24.8751
12:53:29.966,-2.4375,-25.5626
12:53:29.971,-3,-25.9376
12:53:29.978,-2.6875,-27.0626
12:53:29.989,-3.125,-27.1251
12:53:29.999,-2.6875,-28.3126
12:53:30.008,-2.875,-27.4376
12:53:30.020,-3.5625,-28.6876
12:53:30.029,-3.125,-30.0001
12:53:30.039,-3.0625,-29.1251
12:53:30.049,-3.4375,-30.2501
12:53:30.058,-2.6875,-30.5001
12:53:30.069,-3.5625,-30.8751
12:53:30.079,-3.25,-31.5626
12:53:30.088,-3.8125,-31.5626
12:53:30.099,-3.625,-32.8751
12:53:30.109,-3.6875,-32.4376
12:53:30.120,-3.9375,-33.3126
12:53:30.129,-3.8125,-33.6251
12:53:30.158,-3.625,-33.8126
12:53:30.162,-4.6875,-34.1251
12:53:30.164,-5,-34.3126
12:53:30.171,-4.625,-33.5626
12:53:30.200,-4.5625,-32.8751
12:53:30.202,-3.0625,-27.8126
12:53:30.204,-1.5625,-19.7501
12:53:30.237,1.9375,-11.1875
12:53:30.240,5.4375,-0.5625
12:53:30.285,8.0625,9.375
12:53:30.287,11.5,19.0626
12:53:30.288,14.3126,27.8126
12:53:30.289,15.7501,31.8751
12:53:30.289,17.3751,36.1251
12:53:30.294,17.5001,39.0001
12:53:30.324,18.4376,39.1252
12:53:30.327,18.3126,39.7502
12:53:30.328,17.1251,40.2502
12:53:30.334,17.9376,39.3752
12:53:30.345,17.3751,39.1252
12:53:30.353,16.8751,37.5001
12:53:30.364,15.7501,35.8126
12:53:30.374,15.9376,35.0001
12:53:30.390,15.6251,32.5626
12:53:30.393,14.1876,29.5626
12:53:30.408,12.9375,26.0001
12:53:30.417,11.875,24.0001
12:53:30.425,11,20.9376
12:53:30.433,10.3125,20.0626
12:53:30.445,9.4375,16.1251
12:53:30.456,8.375,13.3751
12:53:30.464,7.5625,11.0625
12:53:30.473,7.25,8.6875
12:53:30.485,6.4375,6.5625
12:53:30.494,6.125,5
12:53:30.503,5.5625,4.3125
12:53:30.514,5.8125,1.125
12:53:30.524,4.875,0.1875
12:53:30.534,4.8125,-0.9375
12:53:30.544,4.5,-3.625
12:53:30.554,3.75,-5.375
12:53:30.563,3.25,-6.5
12:53:30.574,3.5,-7.125
12:53:30.584,3.375,-8.3125
12:53:30.594,3.4375,-10.125
12:53:30.604,2.8125,-11.4375
12:53:30.614,2.125,-12.375
12:53:30.623,1.625,-13.4376
12:53:30.634,2.125,-14.7501
12:53:30.644,1.5,-16.9376
12:53:30.654,1.0625,-15.1251
12:53:30.664,2.0625,-16.8126
12:53:30.675,1.5625,-17.5001
12:53:30.683,0.6875,-19.0001
12:53:30.694,0.75,-19.2501
12:53:30.704,0.25,-21.1251
12:53:30.713,-0.375,-22.5001
12:53:30.724,-0.0625,-22.2501
12:53:30.735,-1,-24.3751
12:53:30.745,-1.5,-24.1876
12:53:30.754,-1.0625,-24.9376
12:53:30.764,-1.5625,-26.6876
12:53:30.775,-1.875,-26.0001
12:53:30.787,-1.125,-26.9376
12:53:30.794,-2.375,-28.3126
12:53:30.804,-2.8125,-28.6251
12:53:30.814,-2.6875,-29.3126
12:53:30.824,-2.9375,-30.1876
12:53:30.838,-3.125,-29.5626
12:53:30.855,-2.5,-30.1251
12:53:30.858,-3.1875,-30.3751
12:53:30.885,-3.6875,-30.3126
12:53:30.888,-3,-31.3751
12:53:30.890,-4.125,-31.8751
12:53:30.895,-3.875,-32.3751
12:53:30.932,-4.1875,-33.0001
12:53:30.935,-3.875,-32.4376
12:53:30.936,-3.6875,-32.3751
12:53:30.964,-3.625,-31.7501
12:53:30.964,-3.1875,-30.7501
12:53:30.966,-2.4375,-27.7501
12:53:30.975,-0.0625,-21.1251
12:53:30.987,3.5625,-11.5
12:53:30.989,7.875,-0.25
12:53:31.016,13.2501,13.9376
12:53:31.018,18.6251,29.0626
12:53:31.021,24.3751,43.0002
12:53:31.025,29.0626,55.5002
12:53:31.037,34.3126,66.1253
12:53:31.045,39.5627,76.0003
12:53:31.053,42.8127,85.2503
12:53:31.065,47.6252,92.8754
12:53:31.075,53.0002,101.5629
12:53:31.084,60.7502,112.8754
12:53:31.094,69.0003,124.813
12:53:31.104,77.6253,137.188
12:53:31.115,87.5628,150.0631
12:53:31.125,98.2504,164.3756
12:53:31.134,103.6254,174.7507
12:53:31.143,106.8754,180.6882
12:53:31.154,108.6254,184.0632
12:53:31.164,110.1879,187.5007
12:53:31.173,112.0004,188.6257
12:53:31.185,112.6254,188.8757
12:53:31.194,112.6254,189.1257
12:53:31.204,112.9379,191.1257
12:53:31.215,114.7504,191.8132
12:53:31.241,114.2504,193.1882
12:53:31.242,114.5004,193.3757
12:53:31.248,113.0629,193.3757
12:53:31.254,111.8754,191.0007
12:53:31.263,109.6879,188.5632
12:53:31.275,108.0629,187.6882
12:53:31.284,107.2504,185.6882
12:53:31.295,106.2504,183.8132
12:53:31.304,104.9379,181.0007
12:53:31.314,103.3754,179.0632
12:53:31.323,101.5004,176.8757
12:53:31.334,100.5629,173.8132
12:53:31.345,99.5004,171.0007
12:53:31.354,98.2504,170.4382
12:53:31.363,97.2504,167.1256
12:53:31.375,95.8129,164.5006
12:53:31.391,94.9379,162.5006
12:53:31.393,93.4379,159.6881
12:53:31.405,92.0629,158.1881
12:53:31.418,90.3128,154.3131
12:53:31.432,88.8753,152.2506
12:53:31.441,87.3753,148.2506
12:53:31.448,86.0628,146.0631
12:53:31.461,84.2503,141.813
12:53:31.470,82.3128,139.813
12:53:31.479,82.0003,137.3755
12:53:31.488,81.0628,135.2505
12:53:31.499,79.5003,132.6255
12:53:31.509,78.9378,131.063
12:53:31.519,77.5003,127.7505
12:53:31.529,76.1253,124.2505
12:53:31.539,75.2503,121.563
12:53:31.554,72.7503,118.438
12:53:31.622,72.4378,116.4379
12:53:31.624,70.5003,113.5004
12:53:31.625,69.1253,111.3754
12:53:31.631,68.6878,107.6879
12:53:31.631,66.6253,105.1879
12:53:31.636,64.9377,103.3754
12:53:31.665,64.0627,99.5004
12:53:31.667,63.0002,96.7504
12:53:31.669,61.5002,94.2504
12:53:31.675,60.5002,91.8129
12:53:31.704,59.3752,88.9378
12:53:31.738,57.6877,87.3128
12:53:31.752,57.0627,85.2503
12:53:31.758,56.8127,83.1253
12:53:31.762,55.5627,83.3753
12:53:31.762,56.1252,85.6878
12:53:31.769,58.5627,91.1879
12:53:31.774,60.8752,99.7504
12:53:31.785,63.7502,111.1254
12:53:31.795,67.2503,121.0005
12:53:31.805,70.0003,130.7505
12:53:31.815,80.4378,166.3756
12:53:31.824,82.8753,171.6257
12:53:31.835,83.5628,176.0007
12:53:31.843,84.1878,179.5632
12:53:31.854,84.8753,181.9382
12:53:31.865,84.5628,181.8132
12:53:31.875,84.8128,184.1882
12:53:31.884,84.0003,186.0007
12:53:31.895,82.6878,186.5007
12:53:31.905,82.4378,187.0007
12:53:31.914,80.8753,187.2507
12:53:31.925,79.4378,190.0632
12:53:31.934,77.5628,187.6882
12:53:31.944,75.2503,182.8132
12:53:31.953,73.4378,178.7507
12:53:31.965,71.5003,175.8132
12:53:31.975,70.0628,173.2507
12:53:31.983,68.2503,170.7507
12:53:31.995,68.0628,167.6881
12:53:32.005,65.9378,166.0006
12:53:32.015,64.9377,162.6256
12:53:32.025,63.8127,161.4381
12:53:32.034,62.7502,159.2506
12:53:32.046,61.5627,156.8756
12:53:32.054,61.1252,154.1256
12:53:32.065,60.0002,151.8131
12:53:32.073,58.6252,149.6881
12:53:32.083,57.8752,147.3756
12:53:32.095,56.3127,144.438
12:53:32.103,55.7502,141.438
12:53:32.114,54.7502,139.313
12:53:32.124,53.1252,136.313
12:53:32.134,52.0627,133.1255
12:53:32.146,50.0002,130.313
12:53:32.155,49.4377,126.1255
12:53:32.165,47.2502,123.438
12:53:32.175,45.8752,119.563
12:53:32.184,44.4377,115.5629
12:53:32.193,43.0627,112.7504
12:53:32.205,41.6877,108.1254
12:53:32.214,40.5627,104.7504
12:53:32.224,39.5627,101.9379
12:53:32.234,38.9376,99.5629
12:53:32.245,38.0626,97.3754
12:53:32.256,37.0626,94.0004
12:53:32.264,36.0001,92.1879
12:53:32.274,35.0001,89.4378
12:53:32.284,33.9376,86.3753
12:53:32.300,32.1251,83.9378
12:53:32.304,32.1251,80.9378
12:53:32.338,31.4376,79.0003
12:53:32.341,30.1876,76.5628
12:53:32.343,28.7501,72.7503
12:53:32.346,27.9376,70.2503
12:53:32.382,26.8126,67.0003
12:53:32.383,25.8126,64.7502
12:53:32.387,24.6251,62.3127
12:53:32.392,23.5626,60.1877
12:53:32.397,22.4376,57.1252
12:53:32.432,22.4376,53.1877
12:53:32.433,21.5626,52.0002
12:53:32.436,20.2501,48.6877
12:53:32.440,19.5001,45.4377
12:53:32.446,19.1876,43.2502
12:53:32.475,18.5001,41.0627
12:53:32.478,17.3751,40.8752
12:53:32.479,18.5626,40.9377
12:53:32.484,19.5001,45.6252
12:53:32.495,21.6251,52.0627
12:53:32.520,24.5001,60.0627
12:53:32.522,27.5626,72.0003
12:53:32.526,30.7501,82.4378
12:53:32.536,33.8126,92.5629
12:53:32.544,36.8751,102.5004
12:53:32.554,38.6876,108.8129
12:53:32.564,41.0627,116.8754
12:53:32.576,42.1877,123.438
12:53:32.584,43.2502,127.8755
12:53:32.595,44.2502,132.1255
12:53:32.605,44.8752,134.6255
12:53:32.615,44.8752,138.6255
12:53:32.624,45.4377,140.563
12:53:32.634,45.5002,143.2505
12:53:32.645,45.8127,144.813
12:53:32.654,45.4377,146.0006
12:53:32.665,45.6252,148.5006
12:53:32.675,44.4377,149.8131
12:53:32.685,44.4377,149.3756
12:53:32.695,43.2502,149.3131
12:53:32.704,42.5627,147.3756
12:53:32.714,41.3752,146.188
12:53:32.724,39.5627,144.7505
12:53:32.735,39.6252,141.438
12:53:32.745,37.8126,139.938
12:53:32.754,37.4376,137.2505
12:53:32.765,35.8126,136.188
12:53:32.774,35.2501,134.063
12:53:32.785,34.6251,133.438
12:53:32.795,33.7501,131.7505
12:53:32.805,32.9376,129.813
12:53:32.814,32.9376,128.6255
12:53:32.825,31.7501,127.2505
12:53:32.834,30.6251,125.813
12:53:32.845,31.0626,124.063
12:53:32.855,29.6876,122.7505
12:53:32.870,30.0001,121.563
12:53:32.887,28.6876,120.3755
12:53:32.889,28.1876,118.313
12:53:32.894,27.5001,115.4379
12:53:32.912,25.4376,113.5004
12:53:32.915,24.4376,110.0629
12:53:32.926,22.7501,107.0004
12:53:32.934,21.6251,103.7504
12:53:32.945,20.8126,99.6254
12:53:32.954,20.0001,97.8129
12:53:32.964,18.7501,93.6254
12:53:32.975,17.6876,91.0629
12:53:32.985,17.5001,89.3128
12:53:32.994,15.5626,85.5003
12:53:33.004,14.8126,82.8753
12:53:33.021,12.375,78.6878
12:53:33.025,11.5,76.6253
12:53:33.039,10.4375,72.4378
12:53:33.045,9.375,68.5628
12:53:33.055,7.75,66.6878
12:53:33.065,7.125,62.5002
12:53:33.075,5.75,60.5627
12:53:33.085,5,57.3127
12:53:33.097,3.5625,54.0627
12:53:33.105,3.625,51.7502
12:53:33.142,1.8125,49.1877
12:53:33.143,1.375,47.0002
12:53:33.145,0.4375,44.3752
12:53:33.147,-0.625,41.6252
12:53:33.183,-1.25,38.0001
12:53:33.186,-2.1875,36.1251
12:53:33.186,-2.3125,33.3751
12:53:33.189,-3.25,30.8751
12:53:33.194,-4.1875,27.8751
12:53:33.229,-5.1875,25.0626
12:53:33.230,-6.875,22.5001
12:53:33.232,-6.625,20.4376
12:53:33.234,-7.6875,19.5626
12:53:33.266,-7.3125,18.6876
12:53:33.267,-7,19.8126
12:53:33.270,-5.1875,25.8126
12:53:33.278,-2.1875,34.1876
12:53:33.290,0.5,44.7502
12:53:33.294,4.1875,56.0002
12:53:33.304,7.25,65.7503
12:53:33.315,10.1875,75.8753
12:53:33.324,12.25,83.4378
12:53:33.335,14.5001,92.0004
12:53:33.344,16.5626,96.8129
12:53:33.354,17.5626,102.1879
12:53:33.365,17.5001,107.1879
12:53:33.374,18.8126,110.1879
12:53:33.385,18.5626,113.5629
12:53:33.395,19.0626,114.5629
12:53:33.404,18.8126,116.6879
12:53:33.414,19.1876,117.3754
12:53:33.424,18.5001,120.6255
12:53:33.435,18.5626,120.5005
12:53:33.445,19.1876,121.938
12:53:33.455,18.4376,121.813
12:53:33.464,17.1876,122.438
12:53:33.474,16.6876,121.063
12:53:33.485,16.2501,119.313
12:53:33.494,15.9376,117.3129
12:53:33.504,13.8126,114.5629
12:53:33.515,12.625,112.6254
12:53:33.524,12.0625,110.5629
12:53:33.535,10.625,109.1879
12:53:33.544,10.4375,107.0004
12:53:33.554,9.5625,104.8754
12:53:33.564,7.875,103.8754
12:53:33.574,8.3125,102.0629
12:53:33.584,7.75,101.7504
12:53:33.595,8,99.6879
12:53:33.604,7.4375,99.5629
12:53:33.614,7,97.8129
12:53:33.624,6.1875,96.6254
12:53:33.634,5.875,93.7504
12:53:33.644,4.25,92.6879
12:53:33.654,3.5625,89.7503
12:53:33.664,2.5625,86.8753
12:53:33.674,1.75,84.5628
12:53:33.684,1.25,82.2503
12:53:33.694,0.375,80.5003
12:53:33.704,0.5625,79.2503
12:53:33.714,-1.0625,76.6253
12:53:33.724,-0.875,75.0003
12:53:33.734,-2.5625,72.9378
12:53:33.744,-3,70.5003
12:53:33.754,-3.9375,67.6878
12:53:33.764,-4.8125,66.1878
12:53:33.774,-5.1875,64.1877
12:53:33.800,-5.625,61.4377
12:53:33.803,-6.125,59.5002
12:53:33.805,-6.75,57.5002
12:53:33.836,-8.1875,54.8752
12:53:33.838,-8.5625,53.0627
12:53:33.840,-9.875,51.6252
12:53:33.844,-10.5,48.6877
12:53:33.874,-11.75,46.9377
12:53:33.878,-12.9375,44.3127
12:53:33.881,-13.7501,40.4377
12:53:33.884,-15.0001,39.8752
12:53:33.923,-15.2501,35.8751
12:53:33.925,-16.9376,34.6876
12:53:33.928,-17.2501,31.2501
12:53:33.931,-17.4376,28.7501
12:53:33.934,-18.6251,26.3126
12:53:33.964,-18.3751,23.1876
12:53:33.965,-20.1876,20.5001
12:53:33.968,-19.5626,17.6876
12:53:33.974,-21.5001,14.3751
12:53:33.994,-21.2501,13.0625
12:53:33.999,-22.0001,10.4375
12:53:34.004,-22.0001,9.9375
12:53:34.014,-21.3751,11.5625
12:53:34.024,-19.7501,16.0626
12:53:34.040,-16.5626,25.1876
12:53:34.044,-13.5001,34.1251
12:53:34.054,-9.25,46.2502
12:53:34.064,-6.4375,56.1252
12:53:34.074,-3.625,67.1253
12:53:34.085,-0.6875,74.9378
12:53:34.096,1.75,83.9378
12:53:34.108,3.9375,91.3754
12:53:34.116,6,98.0004
12:53:34.125,6.9375,102.1254
12:53:34.134,7.9375,107.3129
12:53:34.145,8.25,111.1879
12:53:34.163,9.4375,112.8129
12:53:34.169,8.875,116.6879
12:53:34.184,9.9375,117.2504
12:53:34.187,8.9375,120.563
12:53:34.194,9.9375,121.438
12:53:34.204,9.25,123.7505
12:53:34.216,9.625,123.3755
12:53:34.224,8.4375,125.1255
12:53:34.234,9.125,123.8755
12:53:34.245,7.4375,123.563
12:53:34.259,7.9375,120.8755
12:53:34.269,6.125,119.688
12:53:34.279,5.6875,116.5004
12:53:34.290,4.0625,115.1879
12:53:34.301,3.75,111.3129
12:53:34.317,2.25,110.5004
12:53:34.320,2.125,107.0629
12:53:34.335,0.5,104.8754
12:53:34.339,-0.5625,103.2504
12:53:34.349,-1.5,100.0629
12:53:34.359,-1.5625,99.6879
12:53:34.369,-3,96.1254
12:53:34.379,-3.625,94.1254
12:53:34.389,-5.125,90.9379
12:53:34.399,-6.25,89.6878
12:53:34.415,-6.6875,85.8753
12:53:34.419,-8.8125,82.9378
12:53:34.429,-9.5,80.2503
12:53:34.439,-9.875,76.5628
12:53:34.450,-11.375,75.5628
12:53:34.459,-11.4375,71.2503
12:53:34.469,-12.5,69.7503
12:53:34.494,-13.1876,67.3128
12:53:34.498,-13.5001,64.6877
12:53:34.501,-13.9376,61.4377
12:53:34.532,-14.8751,58.7502
12:53:34.534,-15.6251,55.9377
12:53:34.537,-16.0001,53.5002
12:53:34.540,-16.8751,51.9377
12:53:34.572,-17.0001,49.5627
12:53:34.572,-17.5001,47.1877
12:53:34.574,-17.5626,45.3127
12:53:34.579,-18.1876,44.0627
12:53:34.596,-18.6251,40.6877
12:53:34.600,-18.6251,39.7502
12:53:34.627,-18.9376,37.3126
12:53:34.629,-19.0626,36.5001
12:53:34.632,-19.5001,33.8751
12:53:34.658,-19.9376,33.0001
12:53:34.660,-20.4376,29.6876
12:53:34.661,-21.2501,28.1876
12:53:34.670,-22.0001,24.9376
12:53:34.680,-22.1876,22.1876
12:53:34.690,-23.1251,20.8126
12:53:34.699,-22.7501,18.0626
12:53:34.709,-24.2501,17.1251
12:53:34.719,-23.6876,13.6876
12:53:34.732,-25.0001,13.9376
12:53:34.740,-24.0001,13.0625
12:53:34.749,-22.9376,16.3126
12:53:34.759,-20.3751,21.0001
12:53:34.769,-18.0001,29.6251
12:53:34.780,-14.3751,38.6251
12:53:34.789,-11.875,49.8752
12:53:34.799,-8.25,58.1877
12:53:34.809,-5,68.5003
12:53:34.820,-3.25,77.0628
12:53:34.829,-0.3125,84.3128
12:53:34.840,0.1875,90.1253
12:53:34.849,1.875,95.0629
12:53:34.861,2.875,99.8754
12:53:34.869,3.25,102.5629
12:53:34.880,4.0625,107.0004
12:53:34.889,3.0625,108.4379
12:53:34.899,3.6875,110.3754
12:53:34.909,4.25,112.7504
12:53:34.919,3.625,113.9379
12:53:34.929,4.5,115.5004
12:53:34.940,3.5,117.0004
12:53:34.949,4.125,117.3129
12:53:34.960,2.25,116.5004
12:53:34.970,2.5,115.7504
12:53:34.980,0.4375,113.9379
12:53:34.990,-0.5,111.5629
12:53:35.000,-1.625,108.2504
12:53:35.009,-3.0625,104.8754
12:53:35.020,-4.25,101.0629
12:53:35.030,-5.4375,97.6879
12:53:35.039,-6.75,94.8129
12:53:35.049,-6.625,91.6254
12:53:35.080,-8.5,89.1253
12:53:35.083,-8.75,86.8128
12:53:35.085,-10.125,84.5003
12:53:35.091,-11.1875,82.0003
12:53:35.100,-11.6875,78.2503
12:53:35.109,-13.1876,76.2503
12:53:35.120,-13.2501,72.6878
12:53:35.129,-14.4376,70.2503
12:53:35.139,-15.0001,67.6878
12:53:35.149,-15.3751,64.6877
12:53:35.167,-15.6251,62.0627
12:53:35.169,-16.8751,60.4377
12:53:35.180,-17.4376,56.5002
12:53:35.189,-17.7501,53.5002
12:53:35.200,-18.5001,50.6877
12:53:35.217,-17.8751,47.3127
12:53:35.219,-19.2501,45.0002
12:53:35.246,-19.7501,42.1877
12:53:35.250,-21.3751,39.0001
12:53:35.252,-20.8126,35.7501
12:53:35.266,-21.6876,33.4376
12:53:35.270,-21.5001,31.0626
12:53:35.307,-22.3751,29.2501
12:53:35.307,-22.2501,27.0626
12:53:35.309,-22.8126,24.0626
12:53:35.312,-23.1876,21.6251
12:53:35.319,-22.8126,20.0001
12:53:35.358,-23.1876,17.9376
12:53:35.359,-24.5626,16.1251
12:53:35.363,-23.7501,13.5626
12:53:35.369,-24.8126,11.875
12:53:35.372,-25.3126,10
12:53:35.388,-25.0001,7.4375
12:53:35.390,-25.7501,7
12:53:35.399,-24.9376,3.9375
12:53:35.409,-26.0001,3.0625
12:53:35.420,-25.0626,0.625
12:53:35.429,-26.5626,-0.6875
12:53:35.439,-26.5626,-3.0625
12:53:35.449,-27.9376,-3.625
12:53:35.465,-28.1876,-7.0625
12:53:35.481,-28.7501,-8.125
12:53:35.483,-28.6251,-9.5625
12:53:35.489,-28.3126,-8.6875
12:53:35.500,-26.8751,-5.9375
12:53:35.511,-24.9376,1.25
12:53:35.519,-21.3751,8.25
12:53:35.529,-18.6876,19.6251
12:53:35.541,-15.0626,29.5626
12:53:35.549,-12.125,40.6877
12:53:35.561,-9.125,48.4377
12:53:35.570,-6.75,56.9377
12:53:35.580,-5.4375,62.3752
12:53:35.589,-4.0625,68.2503
12:53:35.599,-3.1875,72.7503
12:53:35.614,-1.875,75.8128
12:53:35.629,-1.25,79.8753
12:53:35.632,-0.375,81.3753
12:53:35.639,-1.0625,84.0003
12:53:35.649,-0.375,84.8128
12:53:35.661,-0.375,86.1878
12:53:35.669,-0.1875,87.3753
12:53:35.679,-0.0625,88.1253
12:53:35.691,-0.4375,89.3128
12:53:35.699,-0.5,89.4378
12:53:35.709,-0.75,89.2503
12:53:35.721,-1.375,88.1878
12:53:35.729,-2.4375,85.2503
12:53:35.739,-4.125,83.4378
12:53:35.749,-4.625,79.8128
12:53:35.759,-6.625,76.4378
12:53:35.769,-6.3125,73.9378
12:53:35.780,-7.9375,70.8753
12:53:35.789,-8.5,68.3753
12:53:35.799,-9.25,65.6253
12:53:35.809,-9.875,62.7502
12:53:35.819,-11.25,60.0002
12:53:35.829,-12.625,56.5627
12:53:35.841,-13.1251,54.8752
12:53:35.849,-13,52.1877
12:53:35.859,-14.2501,48.6877
12:53:35.871,-14.5001,46.4377
12:53:35.879,-15.7501,43.3127
12:53:35.889,-15.7501,41.3752
12:53:35.899,-16.4376,38.2501
12:53:35.918,-16.3751,35.9376
12:53:35.920,-17.6251,32.7501
12:53:35.934,-18.1251,30.1876
12:53:35.941,-19.1251,27.5001
12:53:35.950,-19.5001,25.4376
12:53:35.961,-19.6876,21.3126
12:53:35.969,-20.6251,19.3126
12:53:35.980,-21.5626,15.7501
12:53:35.989,-21.8126,14.0626
12:53:36.000,-21.8126,11.25
12:53:36.033,-22.1876,9.8125
12:53:36.035,-21.8751,6.9375
12:53:36.041,-23.0626,5.25
12:53:36.044,-23.2501,2.1875
12:53:36.069,-24.0001,-0.125
12:53:36.077,-24.1251,-1.0625
12:53:36.077,-24.1876,-3.5625
12:53:36.080,-24.3751,-6.5
12:53:36.105,-24.3751,-6.875
12:53:36.108,-25.0626,-8.9375
12:53:36.111,-24.9376,-11.3125
12:53:36.147,-25.9376,-12.1875
12:53:36.148,-25.9376,-14.6251
12:53:36.153,-27.0626,-14.8126
12:53:36.177,-26.6251,-17.4376
12:53:36.179,-27.0626,-20.3126
12:53:36.181,-27.3751,-20.7501
12:53:36.185,-26.8751,-22.5626
12:53:36.191,-27.3126,-23.9376
12:53:36.199,-28.4376,-25.8751
12:53:36.212,-28.6876,-26.7501
12:53:36.220,-29.4376,-30.1876
12:53:36.229,-29.8126,-31.6251
12:53:36.240,-29.8751,-32.8126
12:53:36.250,-30.3751,-33.8126
12:53:36.260,-29.1876,-32.8751
12:53:36.269,-28.1251,-28.0626
12:53:36.279,-25.1251,-20.7501
12:53:36.290,-20.7501,-11.0625
12:53:36.301,-17.3751,0.4375
12:53:36.310,-13.5626,10.9375
12:53:36.319,-10.75,20.3751
12:53:36.330,-7.3125,29.5001
12:53:36.360,-5.0625,37.5626
12:53:36.362,-2.9375,44.0002
12:53:36.366,-1.0625,49.5627
12:53:36.370,0.125,54.3127
12:53:36.381,1.25,57.3127
12:53:36.389,1.4375,60.8127
12:53:36.400,2.6875,63.0002
12:53:36.411,2.3125,65.5002
12:53:36.419,2.875,67.4378
12:53:36.429,3.6875,67.9378
12:53:36.439,4.125,69.3753
12:53:36.450,4.1875,70.5003
12:53:36.461,4.5,71.0628
12:53:36.469,3.625,72.0628
12:53:36.479,3.6875,70.8128
12:53:36.489,2.6875,71.0003
12:53:36.499,3.25,68.3753
12:53:36.509,-11.5,65.6253
12:53:36.520,-11.5,39.8127
12:53:36.530,-4.4375,55.5002
12:53:36.540,-2.125,56.6252
12:53:36.549,-3.5625,56.6252
12:53:36.559,-5.25,51.3752
12:53:36.570,-7.9375,48.7502
12:53:36.579,-9.9375,44.4377
12:53:36.590,-11.9375,42.3127
12:53:36.600,-13.9376,36.7501
12:53:36.610,-16.6876,32.5001
12:53:36.619,-18.0626,27.7501
12:53:36.630,-19.9376,24.9376
12:53:36.639,-19.2501,21.8126
12:53:36.649,-19.0626,22.6251
12:53:36.659,-16.7501,22.3126
12:53:36.674,-17.0001,23.6251
12:53:36.680,-16.2501,21.3751
12:53:36.689,-17.4376,20.6876
12:53:36.699,-17.3126,17.0001
12:53:36.709,-17.9376,16.0626
12:53:36.720,-16.5001,14.5626
12:53:36.729,-17.1251,14.0001
12:53:36.740,-17.6251,9.75
12:53:36.810,-19.8751,8.0625
12:53:36.811,-20.9376,4.125
12:53:36.812,-22.0001,1.4375
12:53:36.817,-23.9376,-2.5625
12:53:36.819,-25.0001,-5.625
12:53:36.819,-27.0001,-9.3125
12:53:36.833,-27.2501,-12.25
12:53:36.836,-30.1876,-16.1251
12:53:36.861,-31.5001,-21.2501
12:53:36.863,-33.6876,-25.2501
12:53:36.865,-35.1251,-27.4376
12:53:36.898,-36.3751,-31.8126
12:53:36.941,-36.8126,-33.7501
12:53:36.941,-36.1876,-35.6251
12:53:36.944,-36.6876,-36.5001
12:53:36.944,-35.4376,-36.5001
12:53:36.944,-35.4376,-37.8126
12:53:36.947,-35.4376,-36.9376
12:53:36.955,-35.0626,-39.1252
12:53:36.964,-34.6876,-40.4377
12:53:36.975,-34.6251,-42.6877
12:53:36.985,-35.1251,-44.5002
12:53:36.995,-37.8751,-50.5627
12:53:37.005,-38.8751,-52.4377
12:53:37.015,-39.4377,-55.4377
12:53:37.025,-39.6877,-57.8127
12:53:37.034,-40.9377,-60.5627
12:53:37.048,-41.0627,-62.6252
12:53:37.056,-42.2502,-64.3752
12:53:37.065,-41.6252,-65.3753
12:53:37.074,-41.6252,-65.7503
12:53:37.085,-41.1877,-64.6252
12:53:37.096,-39.8752,-61.3752
12:53:37.104,-33.6251,-43.8127
12:53:37.114,-29.5001,-33.2501
12:53:37.125,-26.8751,-22.8751
12:53:37.136,-23.1251,-15.6251
12:53:37.145,-21.2501,-6.4375
12:53:37.155,-18.4376,-1.375
12:53:37.165,-16.7501,5.3125
12:53:37.175,-13.8751,8.6875
12:53:37.184,-12.75,13.5626
12:53:37.196,-11.5625,16.2501
12:53:37.204,-9.5,18.9376
12:53:37.215,-9.625,22.6876
12:53:37.224,-9,23.0001
12:53:37.234,-8.8125,23.6251
12:53:37.244,-8.25,25.6251
12:53:37.255,-8.5625,25.0626
12:53:37.264,-8,25.2501
12:53:37.274,-8.25,25.1876
12:53:37.284,-8.625,24.6876
12:53:37.294,-8.1875,24.3126
12:53:37.304,-8.375,24.3126
12:53:37.314,-8.875,20.8126
12:53:37.324,-8.5625,19.6876
12:53:37.337,-9.625,18.9376
12:53:37.344,-9.8125,16.2501
12:53:37.355,-11.4375,15.5001
12:53:37.364,-11.9375,11.9375
12:53:37.374,-13.8751,9.625
12:53:37.385,-14.9376,6.3125
12:53:37.417,-14.6876,4.625
12:53:37.420,-16.1251,3.6875
12:53:37.423,-15.8751,2.4375
12:53:37.428,-16.1251,1.9375
12:53:37.434,-14.9376,1.875
12:53:37.464,-15.6876,0.8125
12:53:37.467,-16.5001,-0.1875
12:53:37.469,-17.1876,-2.5625
12:53:37.477,-17.1876,-4.4375
12:53:37.505,-17.4376,-5.875
12:53:37.509,-16.8751,-7
12:53:37.511,-18.3126,-8.875
12:53:37.514,-18.5001,-10.875
12:53:37.545,-19.0626,-12.1875
12:53:37.547,-18.8126,-14.2501
12:53:37.550,-19.1251,-14.4376
12:53:37.556,-20.0626,-17.5626
12:53:37.566,-20.2501,-18.0626
12:53:37.582,-21.3126,-21.5626
12:53:37.584,-21.8126,-22.5626
12:53:37.595,-23.0626,-26.1251
12:53:37.604,-24.0626,-27.8751
12:53:37.614,-25.1876,-29.8751
12:53:37.640,-24.8751,-31.6876
12:53:37.642,-25.6251,-32.6876
12:53:37.646,-26.5626,-35.5626
12:53:37.656,-26.3751,-37.1251
12:53:37.664,-28.2501,-39.8752
12:53:37.674,-28.8126,-42.0627
12:53:37.684,-29.6251,-44.0627
12:53:37.694,-30.9376,-45.9377
12:53:37.706,-30.6251,-47.8127
12:53:37.715,-30.7501,-48.6877
12:53:37.725,-31.8751,-51.0627
12:53:37.734,-32.0001,-52.4377
12:53:37.744,-33.0001,-53.5002
12:53:37.754,-33.1876,-55.1252
12:53:37.764,-33.7501,-56.5627
12:53:37.775,-33.6251,-59.1252
12:53:37.784,-34.0626,-59.0002
12:53:37.794,-34.1876,-61.2502
12:53:37.804,-34.7501,-61.9377
12:53:37.814,-34.1876,-62.7502
12:53:37.824,-34.3126,-61.7502
12:53:37.834,-32.8126,-60.6877
12:53:37.844,-32.5626,-56.1877
12:53:37.855,-29.1251,-50.8752
12:53:37.865,-27.0626,-40.5002
12:53:37.875,-23.1876,-31.2501
12:53:37.886,-20.5001,-21.2501
12:53:37.895,-17.4376,-12.5
12:53:37.904,-16.0001,-4.125
12:53:37.915,-13.5626,0.9375
12:53:37.925,-12.375,6
12:53:37.934,-11.5625,9.3125
12:53:37.946,-10.625,12.4375
12:53:37.955,-9.9375,14.7501
12:53:37.965,-8.5,16.2501
12:53:37.975,-8.875,17.8751
12:53:37.984,-7.75,18.6251
12:53:37.996,-7.875,19.6251
12:53:38.006,-7.75,19.8126
12:53:38.014,-6.875,21.5001
12:53:38.025,-7.25,20.9376
12:53:38.035,-7.6875,21.0626
12:53:38.057,-7.4375,21.5001
12:53:38.059,-7.25,20.5001
12:53:38.074,-7.5,19.5001
12:53:38.076,-7.8125,18.0626
12:53:38.085,-7.8125,16.5001
12:53:38.095,-8.8125,14.3126
12:53:38.106,-9.4375,12.125
12:53:38.114,-10.25,10.5
12:53:38.125,-10.6875,8.9375
12:53:38.134,-11.25,7.375
12:53:38.145,-11.875,5.8125
12:53:38.154,-12.3125,4.25
12:53:38.164,-11.9375,3.6875
12:53:38.174,-13.0625,1.875
12:53:38.185,-13.1876,-0.125
12:53:38.207,-14.0626,-1.5
12:53:38.208,-14.3126,-2.6875
12:53:38.242,-14.4376,-3.25
12:53:38.245,-14.0001,-5.125
12:53:38.271,-14.5001,-5.625
12:53:38.271,-15.1251,-6.9375
12:53:38.272,-14.4376,-9.1875
12:53:38.277,-14.6251,-9.6875
12:53:38.278,-15.1251,-12.4375
12:53:38.312,-15.1251,-12.375
12:53:38.314,-15.8751,-15.2501
12:53:38.317,-15.5626,-15.3751
12:53:38.342,-16.1876,-16.8751
12:53:38.343,-15.8751,-19.4376
12:53:38.346,-17.2501,-20.3126
12:53:38.351,-17.5001,-22.5626
12:53:38.380,-17.3126,-24.4376
12:53:38.382,-18.6251,-25.4376
12:53:38.384,-18.4376,-27.7501
12:53:38.398,-18.8751,-28.9376
12:53:38.402,-19.1876,-30.6876
12:53:38.411,-19.5626,-30.8126
12:53:38.419,-19.8751,-33.0001
12:53:38.429,-19.3751,-33.6876
12:53:38.440,-20.6876,-35.0626
12:53:38.449,-22.0626,-37.3751
12:53:38.460,-21.6876,-39.2502
12:53:38.469,-21.8126,-39.1251
12:53:38.480,-22.1876,-39.0626
12:53:38.491,-22.1251,-41.2502
12:53:38.501,-21.8751,-41.8752
12:53:38.509,-22.8126,-43.3752
12:53:38.519,-23.0001,-45.1252
12:53:38.529,-23.5626,-46.9377
12:53:38.540,-24.3751,-48.3752
12:53:38.550,-24.6251,-49.8127
12:53:38.559,-25.3126,-50.4377
12:53:38.571,-25.6876,-52.4377
12:53:38.580,-25.8751,-53.0002
12:53:38.591,-26.3751,-54.1252
12:53:38.599,-25.9376,-54.8127
12:53:38.609,-26.5626,-55.5627
12:53:38.620,-25.7501,-55.7502
12:53:38.630,-24.8751,-52.8127
12:53:38.639,-23.0626,-47.9377
12:53:38.649,-20.9376,-39.8752
12:53:38.660,-16.9376,-30.5001
12:53:38.669,-14.0626,-18.8126
12:53:38.679,-10.5,-9.125
12:53:38.690,-8.0625,-1
12:53:38.700,-5.875,6.6875
12:53:38.710,-4.3125,11.875
12:53:38.720,-2.5,17.1876
12:53:38.729,-1.0625,20.2501
12:53:38.739,-0.5625,23.6876
12:53:38.749,-0.375,24.5001
12:53:38.759,-0.1875,26.4376
12:53:38.772,0.25,27.0626
12:53:38.780,0.3125,27.2501
12:53:38.789,0.125,27.4376
12:53:38.799,-0.125,27.8126
12:53:38.810,-0.4375,27.6876
12:53:38.821,-0.5625,27.4376
12:53:38.829,-0.875,27.0001
12:53:38.839,-0.5625,25.7501
12:53:38.850,-1.375,24.5626
12:53:38.861,-1.625,23.4376
12:53:38.869,-2.125,20.6876
12:53:38.880,-2.5,20.0626
12:53:38.920,-3.375,17.0001
12:53:38.921,-3.75,16.2501
12:53:38.923,-4.1875,13.1876
12:53:38.932,-4.125,12.8125
12:53:38.934,-4.3125,12.625
12:53:38.961,-4.8125,11.8125
12:53:38.963,-5.125,9.875
12:53:38.965,-6,9.375
12:53:38.973,-6.3125,6.9375
12:53:39.004,-7.75,6.25
12:53:39.006,-7.0625,3.625
12:53:39.010,-8.5625,3.75
12:53:39.011,-8,0.9375
12:53:39.042,-9.4375,0.5
12:53:39.045,-9.5,-2.4375
12:53:39.047,-11.125,-3.8125
12:53:39.051,-11.5625,-7.0625
12:53:39.071,-12.625,-7.75
12:53:39.073,-12.4375,-11.1875
12:53:39.080,-13.5626,-11.25
12:53:39.090,-13.6876,-14.8126
12:53:39.100,-12.9375,-15.6876
12:53:39.109,-15.1251,-17.7501
12:53:39.121,-14.1251,-19.0001
12:53:39.129,-15.6876,-21.0626
12:53:39.146,-15.3751,-22.8751
12:53:39.150,-15.2501,-23.5001
12:53:39.160,-16.1251,-26.0626
12:53:39.170,-16.2501,-26.2501
12:53:39.179,-17.0626,-27.8126
12:53:39.189,-16.9376,-30.5626
12:53:39.200,-17.6876,-30.5001
12:53:39.209,-17.8751,-34.0626
12:53:39.219,-17.6251,-33.8126
12:53:39.229,-18.6251,-35.0001
12:53:39.239,-18.3751,-35.5626
12:53:39.250,-19.0001,-37.5626
12:53:39.259,-18.2501,-38.2501
12:53:39.270,-19.0001,-38.7501
12:53:39.280,-18.5001,-40.3127
12:53:39.290,-18.6876,-40.5002
12:53:39.300,-19.0626,-40.3752
12:53:39.309,-18.6251,-41.3752
12:53:39.321,-18.8126,-43.4377
12:53:39.329,-19.0626,-43.5002
12:53:39.339,-19.0001,-45.2502
12:53:39.354,-19.4376,-45.5627
12:53:39.363,-19.5626,-47.1877
12:53:39.370,-19.5001,-47.5002
12:53:39.388,-19.5001,-49.0627
12:53:39.402,-19.7501,-50.3127
12:53:39.403,-20.4376,-50.6252
12:53:39.409,-19.8751,-51.0002
12:53:39.420,-19.3751,-48.8752
12:53:39.430,-17.6251,-44.8127
12:53:39.440,-15.9376,-37.5001
12:53:39.449,-12.0625,-28.8126
12:53:39.460,-9,-18.2501
12:53:39.470,-6.1875,-8.3125
12:53:39.479,-3.125,-0.0625
12:53:39.502,-1.4375,7.75
12:53:39.505,0.75,12.5
12:53:39.513,1.25,17.6251
12:53:39.520,2.4375,19.3126
12:53:39.537,3.125,22.0001
12:53:39.553,3.375,23.3751
12:53:39.556,3.8125,24.0001
12:53:39.560,3.8125,25.9376
12:53:39.570,4.625,26.0001
12:53:39.579,4.125,25.5001
12:53:39.589,3.875,25.3751
12:53:39.600,4.1875,25.8126
12:53:39.610,3.125,25.0001
12:53:39.620,2.5625,24.6251
12:53:39.629,2.1875,22.4376
12:53:39.662,1.8125,21.6251
12:53:39.664,1.375,19.0626
12:53:39.669,0.25,17.9376
12:53:39.672,0.3125,15.9376
12:53:39.706,-0.375,13.4376
12:53:39.709,-1.4375,12
12:53:39.712,-1.0625,11.25
12:53:39.713,-1.5,9.3125
12:53:39.745,-2.4375,8.4375
12:53:39.747,-3,7.875
12:53:39.750,-2.8125,6.0625
12:53:39.752,-4,4
12:53:39.785,-3.1875,4.375
12:53:39.789,-4.25,2.375
12:53:39.791,-3.75,2.8125
12:53:39.793,-4.5625,0.5
12:53:39.800,-4.6875,0.0625
12:53:39.821,-5.5625,-1.25
12:53:39.823,-5.9375,-2.25
12:53:39.830,-5.8125,-5.125
12:53:39.841,-7.5,-7.4375
12:53:39.850,-8.125,-7.9375
12:53:39.860,-8.125,-11.25
12:53:39.869,-9.5,-12.5625
12:53:39.879,-10.125,-14.6251
12:53:39.893,-10.4375,-17.3126
12:53:39.904,-11.375,-19.1876
12:53:39.911,-11.75,-20.8751
12:53:39.920,-12.3125,-22.7501
12:53:39.931,-12.25,-23.3126
12:53:39.940,-13,-25.6251
12:53:39.950,-13.5001,-26.9376
12:53:39.959,-14.3126,-28.3751
12:53:39.971,-15.0001,-29.2501
12:53:39.979,-15.0626,-31.3751
12:53:39.989,-15.5626,-32.3126
12:53:40.000,-16.0626,-34.0001
12:53:40.011,-16.3126,-36.2501
12:53:40.020,-16.7501,-36.5001
12:53:40.031,-17.2501,-37.5001
12:53:40.040,-17.3751,-40.0002
12:53:40.051,-17.7501,-40.9377
12:53:40.060,-18.2501,-41.5627
12:53:40.069,-18.0001,-42.5002
12:53:40.079,-18.8126,-44.2502
12:53:40.090,-18.6251,-45.8752
12:53:40.100,-18.8126,-47.0002
12:53:40.109,-19.5001,-47.4377
12:53:40.120,-20.1876,-48.6877
12:53:40.129,-19.9376,-50.3127
12:53:40.141,-21.0001,-51.3752
12:53:40.149,-21.1876,-53.3127
12:53:40.160,-21.8126,-53.8127
12:53:40.169,-21.5001,-55.4377
12:53:40.202,-22.4376,-56.3752
12:53:40.206,-22.1876,-56.7502
12:53:40.209,-22.1251,-57.1252
12:53:40.210,-21.5001,-56.0627
12:53:40.221,-20.9376,-53.3752
12:53:40.229,-19.3751,-47.9377
12:53:40.240,-16.2501,-41.1877
12:53:40.249,-13.5001,-30.3126
12:53:40.272,-9.6875,-20.9376
12:53:40.275,-7.3125,-10.4375
12:53:40.285,-3.5625,-2.3125
12:53:40.299,-1.25,5.75
12:53:40.307,1.0625,11.6875
12:53:40.315,1.4375,16.6251
12:53:40.324,3.625,19.8126
12:53:40.336,3.6875,21.4376
12:53:40.345,4.4375,24.1251
12:53:40.354,4.3125,23.7501
12:53:40.388,4.75,25.6876
12:53:40.391,4.375,24.3751
12:53:40.392,4.375,25.2501
12:53:40.395,4.25,24.9376
12:53:40.425,4.6875,25.1876
12:53:40.429,4.3125,26.1251
12:53:40.430,4.75,25.3126
12:53:40.436,4,26.3126
12:53:40.444,3.9375,23.9376
12:53:40.479,2.8125,23.5001
12:53:40.480,2.6875,20.7501
12:53:40.483,2.1875,18.2501
12:53:40.486,0.8125,17.2501
12:53:40.519,0.5,16.3126
12:53:40.521,1.0625,14.4376
12:53:40.523,0.125,13.9376
12:53:40.530,0,12.5625
12:53:40.535,-0.4375,11.625
12:53:40.544,-0.3125,10.5
12:53:40.555,-1.6875,9.625
12:53:40.564,-1.375,7.875
12:53:40.574,-2.125,7.5625
12:53:40.584,-2.5625,5.8125
12:53:40.596,-2.75,4.25
12:53:40.605,-3.1875,3.625
12:53:40.614,-3.75,1.9375
12:53:40.625,-4.375,-0.25
12:53:40.635,-5.25,-1.6875
12:53:40.646,-5.625,-4
12:53:40.655,-7.5625,-6.875
12:53:40.671,-7,-8.5625
12:53:40.687,-8.5,-10.5
12:53:40.689,-8.3125,-11.75
12:53:40.705,-9.375,-14.7501
12:53:40.707,-9.375,-15.5626
12:53:40.722,-11.1875,-17.5001
12:53:40.726,-10.8125,-18.9376
12:53:40.735,-11.75,-21.1876
12:53:40.744,-12.625,-23.6251
12:53:40.754,-12.625,-24.0001
12:53:40.765,-13.6876,-26.8126
12:53:40.775,-13.6251,-26.7501
12:53:40.785,-13.8126,-29.2501
12:53:40.794,-14.3126,-29.6251
12:53:40.806,-14.5001,-31.0001
12:53:40.825,-15.0001,-31.3751
12:53:40.828,-16.3126,-32.9376
12:53:40.838,-16.2501,-35.1876
12:53:40.847,-17.1876,-36.4376
12:53:40.860,-17.9376,-39.0626
12:53:40.869,-19.2501,-39.1876
12:53:40.875,-18.3126,-41.6252
12:53:40.884,-19.0001,-40.5002
12:53:40.896,-19.3126,-42.8752
12:53:40.906,-18.6876,-44.1252
12:53:40.915,-19.5001,-45.8752
12:53:40.925,-19.5001,-46.0002
12:53:40.934,-20.3126,-48.5627
12:53:40.946,-20.5626,-49.2502
12:53:40.955,-21.7501,-51.9377
12:53:40.965,-21.5626,-52.0002
12:53:40.981,-22.5626,-54.0002
12:53:40.986,-22.0001,-53.1877
12:53:40.996,-21.8126,-53.0002
12:53:41.006,-20.1876,-48.8752
12:53:41.021,-17.3751,-41.8752
12:53:41.026,-14.3126,-31.5626
12:53:41.034,-10.3125,-20.3751
12:53:41.062,-6.4375,-10.125
12:53:41.065,-3.4375,0.9375
12:53:41.066,-0.125,8.1875
12:53:41.082,1.4375,15.6251
12:53:41.084,3.4375,20.1876
12:53:41.123,4,23.5001
12:53:41.124,5.25,25.7501
12:53:41.128,5,28.0001
12:53:41.136,5.25,28.4376
12:53:41.137,5.125,28.4376
12:53:41.169,5.5,30.0001
12:53:41.170,5.5625,30.0001
12:53:41.173,5.3125,30.5001
12:53:41.201,5.5625,31.0626
12:53:41.202,6.125,31.4376
12:53:41.204,5.875,31.0001
12:53:41.208,6.1875,31.8126
12:53:41.229,5.625,30.5626
12:53:41.231,4.8125,29.0626
12:53:41.235,4.0625,26.6251
12:53:41.244,3.125,25.3126
12:53:41.255,3.125,23.0001
12:53:41.264,1.75,21.4376
12:53:41.276,1.25,20.1876
12:53:41.285,0.5625,19.3751
12:53:41.295,0.8125,17.3751
12:53:41.305,0.8125,16.2501
12:53:41.316,-0.3125,15.9376
12:53:41.324,0,15.4376
12:53:41.335,-0.875,13.8126
12:53:41.345,-0.125,13.6876
12:53:41.355,-1.5625,12
12:53:41.364,-1.6875,10.75
12:53:41.376,-3.0625,9.0625
12:53:41.384,-2.875,6.9375
12:53:41.395,-3.6875,5.5
12:53:41.405,-3.5,4.5625
12:53:41.415,-3.875,3.125
12:53:41.426,-4.9375,0.75
12:53:41.435,-6.0625,-0.875
12:53:41.446,-6.25,-3.0625
12:53:41.455,-7.5,-5.0625
12:53:41.480,-7.125,-6.375
12:53:41.483,-7.75,-7.9375
12:53:41.486,-7.375,-9.5625
12:53:41.495,-8.75,-11.1875
12:53:41.505,-9,-14.0001
12:53:41.516,-10,-15.5001
12:53:41.524,-9.5625,-17.0626
12:53:41.535,-11.4375,-18.4376
12:53:41.546,-10.5625,-20.6251
12:53:41.556,-11.625,-22.3126
12:53:41.564,-12.6875,-24.3751
12:53:41.575,-12.5,-25.2501
12:53:41.585,-13,-26.8751
12:53:41.595,-12.5625,-27.0626
12:53:41.606,-13.2501,-27.6251
12:53:41.615,-13.5626,-30.0001
12:53:41.627,-13.2501,-30.8126
12:53:41.636,-14.1876,-32.0626
12:53:41.646,-14.1876,-34.1251
12:53:41.656,-14.1251,-34.5626
12:53:41.666,-15.3126,-35.4376
12:53:41.676,-15.5626,-37.9376
12:53:41.685,-15.6251,-40.0002
12:53:41.696,-16.3126,-40.4377
12:53:41.705,-16.6876,-43.0002
12:53:41.715,-16.0626,-43.0627
12:53:41.726,-16.4376,-41.5002
12:53:41.735,-14.8126,-39.3752
12:53:41.746,-13.5001,-34.1251
12:53:41.756,-11,-26.1876
12:53:41.771,-7.5,-16.3751
12:53:41.776,-4.875,-7.1875
12:53:41.788,-1.625,3.25
12:53:41.796,0.9375,10.5
12:53:41.806,3.3125,18.7501
12:53:41.840,5.0625,23.5626
12:53:41.841,6.1875,28.5001
12:53:41.843,7.0625,30.8126
12:53:41.870,7.4375,33.7501
12:53:41.873,7.875,34.0001
12:53:41.873,8.125,36.5626
12:53:41.882,7.9375,36.8126
12:53:41.886,8.125,38.5001
12:53:41.915,8.25,37.8751
12:53:41.917,8.8125,39.8127
12:53:41.919,8.625,39.6252
12:53:41.928,8.5,41.0627
12:53:41.952,8.375,40.1877
12:53:41.954,8.125,41.0002
12:53:41.957,7.5625,39.0001
12:53:42.002,6.875,38.0626
12:53:42.005,6,36.0626
12:53:42.020,5.5625,33.9376
12:53:42.024,4.875,33.0626
12:53:42.036,4.375,31.0626
12:53:42.036,4.25,29.1876
12:53:42.037,3.125,26.6876
12:53:42.052,2.25,26.3751
12:53:42.054,2.0625,25.8126
12:53:42.057,1.6875,23.3751
12:53:42.065,1.3125,21.9376
12:53:42.076,0,20.8751
12:53:42.086,-0.25,20.0001
12:53:42.096,-0.1875,17.4376
12:53:42.106,-1.875,17.2501
12:53:42.114,-1.875,15.0626
12:53:42.126,-2.375,13.4376
12:53:42.146,-3.25,10.9375
12:53:42.161,-3.5625,8.375
12:53:42.164,-4.75,5.8125
12:53:42.178,-5.6875,3.5625
12:53:42.195,-7.25,0.3125
12:53:42.198,-8,-3
12:53:42.198,-8.25,-4.3125
12:53:42.206,-9.375,-6.6875
12:53:42.217,-9.8125,-8.75
12:53:42.225,-10.6875,-10.125
12:53:42.235,-11.25,-12.25
12:53:42.246,-11.8125,-15.0626
12:53:42.255,-12.5,-15.9376
12:53:42.265,-12.875,-19.1876
12:53:42.277,-13.3126,-19.1251
12:53:42.286,-13.2501,-18.7501
12:53:42.302,-13.0625,-21.5001
12:53:42.310,-14.1251,-22.9376
12:53:42.321,-14.0001,-23.6876
12:53:42.331,-14.3126,-25.2501
12:53:42.341,-14.8126,-25.6251
12:53:42.352,-14.2501,-26.6251
12:53:42.361,-14.8126,-26.6876
12:53:42.371,-14.9376,-27.9376
12:53:42.380,-15.0626,-27.5626
12:53:42.390,-15.3751,-26.6251
12:53:42.400,-15.2501,-29.1876
12:53:42.411,-15.2501,-29.9376
12:53:42.419,-16.5001,-31.6876
12:53:42.430,-17.0626,-34.0626
12:53:42.439,-17.4376,-34.5626
12:53:42.451,-18.0626,-36.0001
12:53:42.460,-19.0001,-38.3126
12:53:42.471,-18.8126,-38.7501
12:53:42.481,-18.0626,-38.0001
12:53:42.491,-17.5001,-35.0001
12:53:42.501,-13.7501,-28.5626
12:53:42.511,-11.5625,-19.3751
12:53:42.542,-7.3125,-9.0625
12:53:42.544,-4.5,1.125
12:53:42.547,-1.75,10.125
12:53:42.549,0.375,18.0001
12:53:42.581,2.625,23.5626
12:53:42.583,3.5625,29.3126
12:53:42.585,4.75,32.9376
12:53:42.592,4.9375,35.5001
12:53:42.620,6,37.2501
12:53:42.621,5.3125,38.6876
12:53:42.625,5.6875,39.0626
12:53:42.653,5.5,39.4377
12:53:42.655,6.125,40.5627
12:53:42.657,5.6875,40.5627
12:53:42.662,6.5625,40.3127
12:53:42.690,5.6875,41.0002
12:53:42.693,5.9375,41.1877
12:53:42.695,5,40.2502
12:53:42.714,4.25,38.1251
12:53:42.714,3.3125,35.0626
12:53:42.720,2.0625,32.0001
12:53:42.731,1.125,30.6876
12:53:42.760,1.125,28.6251
12:53:42.762,0.375,27.1251
12:53:42.770,-0.6875,25.9376
12:53:42.770,-0.9375,25.5001
12:53:42.781,-0.9375,23.7501
12:53:42.791,-1.8125,21.8126
12:53:42.801,-2.5,21.5001
12:53:42.811,-2.625,19.5001
12:53:42.821,-3.8125,17.3751
12:53:42.831,-4.5,16.0626
12:53:42.840,-5.5,15.5001
12:53:42.851,-5.75,12.25
12:53:42.860,-6.4375,9.5625
12:53:42.871,-6.9375,8.8125
12:53:42.881,-6.9375,7.9375
12:53:42.891,-8.5,5
12:53:42.902,-9,4.0625
12:53:42.911,-8.8125,2.0625
12:53:42.921,-10.5,-1.3125
12:53:42.931,-10.6875,-2.9375
12:53:42.941,-11.5,-5.9375
12:53:42.951,-12.75,-8
12:53:42.961,-12.75,-10.25
12:53:42.971,-14.5626,-12.5
12:53:42.981,-16.0626,-15.3751
12:53:42.991,-16.7501,-18.3751
12:53:43.000,-16.8751,-19.6251
12:53:43.011,-17.6251,-21.6251
12:53:43.021,-18.4376,-22.0626
12:53:43.031,-18.0001,-24.6251
12:53:43.041,-18.9376,-25.9376
12:53:43.050,-19.4376,-27.4376
12:53:43.060,-20.0626,-28.7501
12:53:43.071,-20.5626,-30.1876
12:53:43.081,-21.2501,-32.6251
12:53:43.091,-21.6876,-33.3751
12:53:43.101,-21.8126,-36.0001
12:53:43.110,-21.8751,-37.2501
12:53:43.120,-22.0001,-38.6251
12:53:43.130,-22.1251,-39.1251
12:53:43.141,-22.7501,-40.3127
12:53:43.151,-22.3751,-40.8127
12:53:43.161,-22.9376,-43.0002
12:53:43.171,-23.1876,-43.9377
12:53:43.181,-23.6876,-45.3752
12:53:43.190,-24.0626,-46.3127
12:53:43.200,-24.1251,-48.0627
12:53:43.210,-24.2501,-47.8752
12:53:43.220,-24.4376,-48.8752
12:53:43.232,-23.8126,-47.0002
12:53:43.241,-21.8126,-42.5627
12:53:43.250,-19.1251,-34.7501
12:53:43.261,-14.8751,-23.7501
12:53:43.277,-11.125,-11.8125
12:53:43.281,-6.625,-0.375
12:53:43.291,-4.125,9.875
12:53:43.301,-0.5,18.3751
12:53:43.318,0.75,25.0001
12:53:43.325,3.0625,29.6251
12:53:43.331,3.9375,33.6251
12:53:43.356,4.4375,37.3751
12:53:43.422,4.875,38.2501
12:53:43.423,5.1875,39.6252
12:53:43.427,5.0625,40.1252
12:53:43.427,5.5625,41.6252
12:53:43.427,5.75,42.6252
12:53:43.430,6.125,43.5002
12:53:43.458,6.4375,44.5002
12:53:43.462,6.4375,44.8752
12:53:43.497,6.0625,45.5002
12:53:43.510,5.6875,43.2502
12:53:43.513,4.9375,42.0627
12:53:43.526,4.25,39.8127
12:53:43.526,3.25,37.5626
12:53:43.529,1.75,35.7501
12:53:43.542,1.6875,34.2501
12:53:43.544,0.4375,30.7501
12:53:43.551,-0.1875,30.3126
12:53:43.560,-0.1875,28.2501
12:53:43.571,-1,26.8126
12:53:43.581,-1.1875,24.6876
12:53:43.591,-1.625,23.5001
12:53:43.601,-3.4375,19.6876
12:53:43.611,-3.875,18.1876
12:53:43.621,-4.5625,16.4376
12:53:43.631,-3.9375,14.9376
12:53:43.640,-4.75,13.9376
12:53:43.652,-6.3125,11
12:53:43.661,-5.875,8.9375
12:53:43.671,-7.5,6.25
12:53:43.680,-8.5625,1.5
12:53:43.691,-8.4375,0.125
12:53:43.700,-9.5625,-0.8125
12:53:43.712,-10.3125,-2.1875
12:53:43.720,-10.375,-5.0625
12:53:43.731,-10.1875,-7.0625
12:53:43.743,-10.9375,-8.75
12:53:43.751,-11.0625,-10
12:53:43.760,-11.5,-11.3125
12:53:43.771,-11.75,-12.8125
12:53:43.780,-12.5625,-13.5626
12:53:43.790,-12.3125,-16.3751
12:53:43.801,-12.5,-16.1251
12:53:43.812,-12.6875,-18.5626
12:53:43.820,-13.5001,-18.8751
12:53:43.830,-13.7501,-21.2501
12:53:43.841,-14.0001,-21.8126
12:53:43.850,-14.0001,-23.6251
12:53:43.863,-14.3126,-24.1251
12:53:43.871,-15.1876,-23.9376
12:53:43.881,-14.5001,-25.8126
12:53:43.891,-13.5001,-26.4376
12:53:43.900,-15.0001,-27.6251
12:53:43.911,-14.6876,-28.8126
12:53:43.920,-15.0626,-29.6251
12:53:43.931,-15.2501,-31.9376
12:53:43.943,-15.0626,-32.6251
12:53:43.951,-16.0001,-33.0626
12:53:43.961,-16.3126,-35.6251
12:53:43.971,-16.3751,-36.5626
12:53:43.980,-17.8126,-37.8126
12:53:43.990,-16.3126,-37.1251
12:53:44.000,-16.4376,-33.6251
12:53:44.011,-13.9376,-28.1251
12:53:44.046,-10.75,-18.8126
12:53:44.050,-7.3125,-7.125
12:53:44.053,-4.375,2.8125
12:53:44.059,0,12.875
12:53:44.060,2.375,22.4376
12:53:44.089,5.125,28.3126
12:53:44.091,7.0625,34.9376
12:53:44.093,7.5625,39.9377
12:53:44.100,9.3125,42.3752
12:53:44.133,9.1875,44.7502
12:53:44.135,9.8125,45.9377
12:53:44.138,10,47.5002
12:53:44.145,10.0625,49.3127
12:53:44.172,10,49.8127
12:53:44.173,10.3125,49.7502
12:53:44.177,10.1875,50.4377
12:53:44.202,10.375,50.8127
12:53:44.203,9.8125,52.3127
12:53:44.205,9.9375,51.0002
12:53:44.212,9.3125,51.5002
12:53:44.223,9.4375,49.6252
12:53:44.231,7.5625,46.1252
12:53:44.241,6.3125,45.0627
12:53:44.251,6,41.8127
12:53:44.261,4.5625,37.6251
12:53:44.271,3.6875,36.4376
12:53:44.280,3.3125,34.1251
12:53:44.291,2.125,32.6251
12:53:44.301,1.875,31.1251
12:53:44.311,1.0625,27.8751
12:53:44.320,0.125,26.9376
12:53:44.332,-0.25,25.3751
12:53:44.341,-0.4375,24.0626
12:53:44.351,-1.6875,21.7501
12:53:44.360,-2.3125,20.3751
12:53:44.370,-2.8125,18.3126
12:53:44.380,-3.1875,16.6251
12:53:44.391,-3.8125,14.5626
12:53:44.401,-4.5625,13.4376
12:53:44.411,-5,12.125
12:53:44.420,-5.125,9.625
12:53:44.430,-5.6875,8.25
12:53:44.441,-6,6.25
12:53:44.451,-6.25,4.4375
12:53:44.460,-7.5,3.8125
12:53:44.470,-7.6875,-0.1875
12:53:44.480,-8.625,-1.4375
12:53:44.491,-10.25,-4.6875
12:53:44.501,-10.3125,-7.0625
12:53:44.511,-11.9375,-8.3125
12:53:44.520,-12.1875,-12.125
12:53:44.530,-13.2501,-13.6251
12:53:44.541,-14.0001,-15.8126
12:53:44.551,-14.4376,-17.1876
12:53:44.561,-15.1251,-19.6251
12:53:44.571,-15.4376,-21.0001
12:53:44.581,-15.6251,-22.6876
12:53:44.591,-15.0001,-23.2501
12:53:44.600,-16.3126,-24.0001
12:53:44.610,-15.5001,-24.6876
12:53:44.621,-16.2501,-26.1251
12:53:44.630,-16.5626,-27.3751
12:53:44.640,-16.3751,-27.5626
12:53:44.650,-17.0001,-29.5626
12:53:44.665,-16.9376,-30.1251
12:53:44.683,-17.6876,-32.8126
12:53:44.684,-17.6876,-33.2501
12:53:44.700,-18.8751,-34.6876
12:53:44.702,-19.2501,-36.4376
12:53:44.717,-19.3751,-37.9376
12:53:44.721,-20.4376,-39.4377
12:53:44.730,-20.9376,-41.8127
12:53:44.740,-20.5626,-42.6252
12:53:44.751,-21.7501,-42.5002
12:53:44.761,-20.9376,-42.9377
12:53:44.771,-19.5626,-40.5627
12:53:44.792,-17.8126,-34.8751
12:53:44.795,-14.5001,-26.8126
12:53:44.826,-11.4375,-15.1876
12:53:44.861,-7.5,-5.0625
12:53:44.927,-4.125,5.25
12:53:44.930,-1.375,12.8125
12:53:44.932,1.5,21.0626
12:53:44.937,3,25.9376
12:53:44.937,4.75,31.1251
12:53:44.937,5.3125,34.2501
12:53:44.966,6.25,36.8126
12:53:44.967,6.375,38.6876
12:53:44.969,7.25,38.0626
12:53:44.978,7.4375,38.6251
12:53:44.990,7.125,40.7502
12:53:44.997,7.875,41.0002
12:53:45.006,7.6875,41.5627
12:53:45.016,8.1875,43.1252
12:53:45.025,8.75,43.0002
12:53:45.036,9.0625,42.8127
12:53:45.045,8.25,41.8752
12:53:45.055,7.125,40.5627
12:53:45.067,6.625,38.8751
12:53:45.076,5.8125,35.5626
12:53:45.086,4.9375,33.0001
12:53:45.096,2.8125,24.2501
12:53:45.106,1.6875,25.1251
12:53:45.116,1.25,24.1251
12:53:45.126,0.6875,23.3751
12:53:45.135,0.4375,20.0001
12:53:45.146,-0.1875,18.8126
12:53:45.158,-1.1875,16.6876
12:53:45.167,-2.5,14.8126
12:53:45.176,-3,12.1875
12:53:45.186,-5.0625,9.5625
12:53:45.196,-5.5,7.75
12:53:45.205,-6.375,4.625
12:53:45.216,-6.5,2.625
12:53:45.226,-7.3125,0.5625
12:53:45.235,-8.0625,-2.125
12:53:45.246,-8.625,-3.25
12:53:45.256,-9.1875,-6.0625
12:53:45.265,-9.875,-7.75
12:53:45.275,-10.5,-10.875
12:53:45.285,-11.3125,-12.125
12:53:45.296,-11.5625,-14.3751
12:53:45.322,-12.3125,-15.1251
12:53:45.325,-12.75,-17.5001
12:53:45.327,-13.1251,-18.5001
12:53:45.337,-13.8751,-20.7501
12:53:45.346,-14.3751,-21.2501
12:53:45.356,-15.0001,-23.8126
12:53:45.366,-15.1251,-24.4376
12:53:45.376,-15.6876,-26.4376
12:53:45.385,-16.1251,-27.3126
12:53:45.396,-16.3751,-29.8126
12:53:45.406,-16.4376,-30.1251
12:53:45.417,-17.5001,-31.6251
12:53:45.425,-17.3126,-33.7501
12:53:45.438,-17.3751,-34.4376
12:53:45.445,-18.1876,-35.5626
12:53:45.455,-17.8126,-37.5001
12:53:45.466,-18.2501,-38.3751
12:53:45.476,-18.5626,-40.5002
12:53:45.512,-18.5626,-40.6252
12:53:45.515,-19.0001,-43.2502
12:53:45.517,-19.5001,-43.3752
12:53:45.518,-20.0626,-43.5627
12:53:45.548,-19.3126,-43.6877
12:53:45.551,-19.0001,-39.0001
12:53:45.553,-16.4376,-33.7501
12:53:45.559,-12.6875,-24.6251
12:53:45.590,-9.375,-14.4376
12:53:45.593,-6,-4.1875
12:53:45.596,-3.125,5.5
12:53:45.598,-0.375,12.4375
12:53:45.628,2.125,19.4376
12:53:45.629,2.8125,25.7501
12:53:45.633,4.875,27.8126
12:53:45.637,4.6875,31.6251
12:53:45.663,5.75,31.7501
12:53:45.665,6.5625,33.6876
12:53:45.669,6.125,35.5001
12:53:45.676,7.5625,36.0626
12:53:45.685,6.875,36.5626
12:53:45.696,8.375,37.8126
12:53:45.705,6.9375,38.1251
12:53:45.716,7.9375,38.6251
12:53:45.725,7.1875,38.1251
12:53:45.735,7.625,37.5626
12:53:45.745,6.375,36.9376
12:53:45.756,5.5,34.0001
12:53:45.766,5.1875,32.5001
12:53:45.775,4.375,29.6876
12:53:45.785,4,28.2501
12:53:45.796,3,26.5001
12:53:45.805,2.9375,24.3751
12:53:45.816,1.75,22.1251
12:53:45.825,0.8125,21.9376
12:53:45.836,0.625,18.6876
12:53:45.845,0.5,18.0626
12:53:45.855,0.875,18.6251
12:53:45.865,1.5,17.5626
12:53:45.875,0.6875,17.1251
12:53:45.885,0.3125,16.6251
12:53:45.896,-0.3125,15.0626
12:53:45.907,-0.125,12.8125
12:53:45.915,-0.875,12
12:53:45.925,-1.5,11.0625
12:53:45.935,-2,7.5625
12:53:45.948,-3.25,4.9375
12:53:45.955,-3.4375,2.9375
12:53:45.966,-4.5625,1.75
12:53:45.983,-4.875,-1
12:53:45.989,-5.3125,-3.3125
12:53:45.998,-7.0625,-6
12:53:46.007,-8,-6.875
12:53:46.022,-8.4375,-9.4375
12:53:46.030,-8.5625,-12.375
12:53:46.042,-9.0625,-13.125
12:53:46.045,-8.875,-14.7501
12:53:46.056,-9.9375,-16.7501
12:53:46.065,-10.75,-17.7501
12:53:46.079,-10.875,-20.1876
12:53:46.085,-11.6875,-20.7501
12:53:46.096,-12.25,-23.7501
12:53:46.106,-12.4375,-25.2501
12:53:46.116,-13,-26.0001
12:53:46.125,-13.5626,-28.5626
12:53:46.136,-13.8126,-28.8126
12:53:46.145,-14.5001,-31.0001
12:53:46.156,-15.0626,-32.6251
12:53:46.178,-15.8126,-34.9376
12:53:46.179,-16.1876,-37.0626
12:53:46.188,-16.9376,-37.8751
12:53:46.196,-17.1251,-39.3127
12:53:46.210,-18.0001,-40.8752
12:53:46.220,-18.2501,-41.3752
12:53:46.225,-18.7501,-43.3752
12:53:46.260,-20.0001,-44.4377
12:53:46.262,-20.0001,-47.0002
12:53:46.264,-20.1876,-47.6877
12:53:46.267,-20.6876,-49.5627
12:53:46.298,-21.1876,-50.3127
12:53:46.302,-21.3751,-51.8752
12:53:46.304,-21.7501,-52.5002
12:53:46.308,-21.9376,-53.1877
12:53:46.343,-21.3751,-51.8127
12:53:46.343,-20.1876,-48.0002
12:53:46.346,-17.8751,-41.5627
12:53:46.348,-15.0626,-32.9376
12:53:46.390,-11.625,-21.8751
12:53:46.391,-7.0625,-11
12:53:46.393,-4.75,-2.0625
12:53:46.396,-2.5625,7.3125
12:53:46.402,-0.625,14.0626
12:53:46.417,1.75,17.8751
12:53:46.422,1.9375,22.0001
12:53:46.431,2.9375,22.8126
12:53:46.441,3.875,25.3126
12:53:46.450,3.625,27.1876
12:53:46.461,4.5,28.0001
12:53:46.471,3.875,28.4376
12:53:46.480,4.9375,29.6876
12:53:46.490,4.375,30.5626
12:53:46.500,4.75,30.8751
12:53:46.511,4.5625,32.0001
12:53:46.521,4.375,30.8751
12:53:46.530,4.125,30.3126
12:53:46.541,3.25,29.0626
12:53:46.550,2.1875,27.1251
12:53:46.562,1.875,24.6251
12:53:46.571,1.25,23.8751
12:53:46.599,1.5,21.6251
12:53:46.603,1.6875,21.1251
12:53:46.604,3.1875,21.8126
12:53:46.611,4.25,22.4376
12:53:46.621,5.125,25.5001
12:53:46.631,7.5625,26.8751
12:53:46.641,8.3125,27.9376
12:53:46.650,10.75,31.3126
12:53:46.660,15.4376,37.8751
12:53:46.671,20.1876,42.0002
12:53:46.681,24.0626,48.1877
12:53:46.691,27.5001,51.3127
12:53:46.700,27.8751,52.1877
12:53:46.711,28.0001,52.5002
12:53:46.721,28.3751,54.0002
12:53:46.732,29.0626,52.8752
12:53:46.741,29.3126,53.4377
12:53:46.750,29.5001,53.8127
12:53:46.761,29.5626,52.3127
12:53:46.770,29.0626,50.7502
12:53:46.780,30.1251,51.9377
12:53:46.792,29.6251,49.8752
12:53:46.801,29.3126,49.2502
12:53:46.812,27.7501,47.9377
12:53:46.821,27.8126,45.0002
12:53:46.831,25.9376,43.4377
12:53:46.840,24.5001,40.3752
12:53:46.851,23.4376,36.5626
12:53:46.861,21.8751,33.2501
12:53:46.872,20.3126,31.3126
12:53:46.880,19.3751,28.2501
12:53:46.890,17.8126,24.6876
12:53:46.901,16.6251,22.8126
12:53:46.912,16.0626,20.4376
12:53:46.943,15.1876,17.5001
12:53:46.945,13.3126,15.1251
12:53:46.948,11.75,13.0625
12:53:46.951,11.6875,10
12:53:46.986,8.9375,7.5625
12:53:46.991,8.25,5.0625
12:53:46.993,7.125,1.6875
12:53:46.997,5.875,-1.125
12:53:47.026,4.9375,-2.8125
12:53:47.028,4.625,-5.5625
12:53:47.030,3.875,-8.4375
12:53:47.038,1.9375,-9.625
12:53:47.042,1.5,-12.125
12:53:47.070,0.75,-15.5626
12:53:47.073,-0.6875,-17.5626
12:53:47.076,-1.0625,-19.0001
12:53:47.082,-1.25,-21.5001
12:53:47.093,-2.5,-24.5001
12:53:47.100,-2.8125,-24.4376
12:53:47.110,-2.6875,-25.7501
12:53:47.120,-2.6875,-26.3751
12:53:47.131,-2.4375,-24.4376
12:53:47.142,-1.25,-19.5001
12:53:47.151,0.875,-11.1875
12:53:47.167,5.125,-2.375
12:53:47.173,8.625,9.6875
12:53:47.181,12.5625,20.0001
12:53:47.190,15.3751,28.3126
12:53:47.200,17.2501,35.3126
12:53:47.210,19.2501,41.6252
12:53:47.221,20.0001,45.9377
12:53:47.231,21.0626,50.0627
12:53:47.240,22.2501,52.3127
12:53:47.252,22.1876,55.3752
12:53:47.260,22.2501,55.8752
12:53:47.270,22.4376,55.3752
12:53:47.281,23.2501,57.0002
12:53:47.290,23.2501,58.3752
12:53:47.305,23.6876,59.7502
12:53:47.324,23.6251,60.5002
12:53:47.331,23.8751,60.6252
12:53:47.333,24.1251,62.2502
12:53:47.348,23.8126,61.8752
12:53:47.351,23.1251,60.8752
12:53:47.361,23.1251,59.8127
12:53:47.370,22.6876,59.8127
12:53:47.382,23.9376,59.3127
12:53:47.391,23.0001,58.6252
12:53:47.401,23.4376,59.3127
12:53:47.410,23.5001,59.0002
12:53:47.420,23.3126,58.7502
12:53:47.430,1.4375,22.7501
12:53:47.441,7.125,33.2501
12:53:47.450,1.875,27.7501
12:53:47.461,6.6875,35.3751
12:53:47.471,9,37.3126
12:53:47.480,14.1876,43.2502
12:53:47.495,16.8126,44.8752
12:53:47.504,18.8751,47.8127
12:53:47.512,19.5626,48.6877
12:53:47.527,19.8126,47.1252
12:53:47.543,19.0626,46.1252
12:53:47.545,18.0001,44.6252
12:53:47.551,17.0626,42.4377
12:53:47.562,16.0001,39.5002
12:53:47.571,14.2501,37.2501
12:53:47.582,13.4376,36.1251
12:53:47.591,12.125,33.3126
12:53:47.600,11,30.5626
12:53:47.611,10.1875,28.9376
12:53:47.620,9.25,27.3126
12:53:47.631,8.625,24.7501
12:53:47.640,7.625,22.0626
12:53:47.650,6.375,19.1251
12:53:47.670,4.9375,16.5001
12:53:47.672,3.4375,15.6251
12:53:47.699,3.4375,12.375
12:53:47.702,1.8125,8.9375
12:53:47.704,0.625,5.9375
12:53:47.710,-0.9375,5.0625
12:53:47.740,-1.625,1.125
12:53:47.743,-2.25,-1.375
12:53:47.743,-4,-3.4375
12:53:47.773,-4.1875,-6.5
12:53:47.776,-5,-9.6875
12:53:47.778,-6.6875,-10.25
12:53:47.784,-6.3125,-13.7501
12:53:47.794,-7.125,-16.6876
12:53:47.818,-8,-17.8751
12:53:47.820,-7.625,-19.7501
12:53:47.823,-8.8125,-22.5001
12:53:47.831,-10.375,-23.1251
12:53:47.844,-10.6875,-27.2501
12:53:47.852,-12.0625,-30.0626
12:53:47.879,-12.3125,-31.6876
12:53:47.882,-12.5,-34.3126
12:53:47.884,-13.5626,-36.2501
12:53:47.890,-13.7501,-35.8126
12:53:47.900,-13.5001,-37.4376
12:53:47.915,-12.1875,-33.6876
12:53:47.921,-10.625,-28.7501
12:53:47.931,-7.25,-20.0001
12:53:47.940,-2.6875,-9.8125
12:53:47.950,1.375,2.8125
12:53:47.961,5.125,12.5625
12:53:47.973,7.25,22.8126
12:53:47.981,9.8125,29.0626
12:53:47.992,13,36.3126
12:53:48.001,15.2501,44.8752
12:53:48.010,17.6876,49.6877
12:53:48.021,20.1876,54.8127
12:53:48.031,21.2501,58.5627
12:53:48.041,23.4376,62.0627
12:53:48.052,24.2501,66.1878
12:53:48.060,26.0001,68.7503
12:53:48.071,26.7501,72.8128
12:53:48.080,28.2501,73.3128
12:53:48.094,28.8751,76.6878
12:53:48.101,29.1876,77.0628
12:53:48.111,29.5001,79.1253
12:53:48.121,27.8751,78.6878
12:53:48.131,28.0626,77.1878
12:53:48.140,26.3126,76.1253
12:53:48.151,25.8751,73.0628
12:53:48.161,24.8751,71.6878
12:53:48.171,24.4376,70.8753
12:53:48.181,23.5001,69.2503
12:53:48.192,23.4376,66.9378
12:53:48.201,21.5626,66.0628
12:53:48.210,21.2501,65.1877
12:53:48.220,20.1876,63.9377
12:53:48.231,19.4376,62.4377
12:53:48.240,19.1876,60.9377
12:53:48.252,18.8751,59.5002
12:53:48.261,17.8751,58.0002
12:53:48.271,17.2501,56.3127
12:53:48.282,16.0001,53.3127
12:53:48.295,13.8126,50.7502
12:53:48.301,13.1876,47.5002
12:53:48.311,12.625,43.9377
12:53:48.320,10.3125,41.8752
12:53:48.330,10.1875,39.0626
12:53:48.340,8.3125,35.5626
12:53:48.350,6.9375,32.8126
12:53:48.363,6.25,28.6251
12:53:48.371,4.375,25.5001
12:53:48.380,2.6875,21.8126
12:53:48.392,1.125,17.8126
12:53:48.400,-0.125,14.0001
12:53:48.411,-2.375,10.25
12:53:48.421,-3.3125,6.5625
12:53:48.438,-4.125,4.25
12:53:48.441,-5.25,1.25
12:53:48.475,-5.625,-1.6875
12:53:48.480,-6.5,-4.5625
12:53:48.481,-7.6875,-5.75
12:53:48.484,-7.6875,-9.1875
12:53:48.492,-8.75,-12.5
12:53:48.518,-9.75,-13.7501
12:53:48.521,-10.5,-16.4376
12:53:48.524,-12,-19.7501
12:53:48.531,-13.0625,-21.9376
12:53:48.572,-13.5001,-26.0001
12:53:48.574,-14.7501,-28.2501
12:53:48.577,-15.1876,-30.1876
12:53:48.579,-15.6876,-32.9376
12:53:48.584,-16.6876,-34.8126
12:53:48.592,-15.5626,-36.1876
12:53:48.614,-16.3126,-37.6251
12:53:48.629,-16.9376,-37.6251
12:53:48.644,-16.4376,-40.3127
12:53:48.647,-16.8751,-41.0002
12:53:48.663,-17.3751,-39.9377
12:53:48.679,-16.1251,-39.5002
12:53:48.684,-14.5626,-34.6876
12:53:48.685,-11.875,-25.8751
12:53:48.690,-7.75,-15.6251
12:53:48.692,-3.5,-4.1875
12:53:48.702,-0.1875,7.6875
12:53:48.712,5.375,18.0626
12:53:48.723,9.4375,30.7501
12:53:48.730,13.1876,38.7501
12:53:48.740,16.1251,47.0002
12:53:48.750,19.1876,53.9377
12:53:48.760,20.7501,60.8752
12:53:48.770,22.6876,64.1252
12:53:48.780,24.0626,69.3753
12:53:48.792,26.0001,71.1878
12:53:48.812,26.1251,74.0628
12:53:48.817,27.8126,77.3128
12:53:48.827,28.5001,78.8128
12:53:48.831,30.1251,82.4378
12:53:48.861,30.0626,83.0003
12:53:48.864,30.0626,84.1253
12:53:48.865,29.5626,85.2503
12:53:48.873,27.8751,84.5003
12:53:48.882,26.9376,82.8753
12:53:48.891,26.5626,80.4378
12:53:48.900,24.3126,78.2503
12:53:48.911,23.4376,76.3128
12:53:48.920,22.5626,73.1878
12:53:48.930,22.1251,71.6253
12:53:48.940,20.4376,68.8128
12:53:48.950,19.6251,67.1253
12:53:48.960,18.1251,64.5002
12:53:48.970,17.2501,63.8752
12:53:48.983,16.4376,61.5002
12:53:48.991,15.6876,58.3127
12:53:49.002,14.1251,56.2502
12:53:49.011,12.875,53.6877
12:53:49.022,11.625,50.3127
12:53:49.030,9.875,46.6877
12:53:49.046,8.375,43.2502
12:53:49.054,6.4375,39.3752
12:53:49.064,5.5625,36.2501
12:53:49.070,3.75,32.5001
12:53:49.080,3.625,30.3126
12:53:49.094,1.875,26.6251
12:53:49.102,1.875,23.3751
12:53:49.111,-0.125,21.0626
12:53:49.123,-0.0625,17.3126
12:53:49.131,-1.875,14.8751
12:53:49.160,-2.5625,11.4375
12:53:49.162,-4.5,7.875
12:53:49.164,-5.4375,4.5625
12:53:49.190,-6.9375,1.1875
12:53:49.193,-7.1875,-1.75
12:53:49.196,-9.125,-4.875
12:53:49.200,-10.0625,-8.1875
12:53:49.233,-11.5,-11.625
12:53:49.236,-11.9375,-14.1876
12:53:49.237,-12.875,-17.5001
12:53:49.243,-14.0001,-20.1251
12:53:49.268,-15.4376,-22.6876
12:53:49.271,-16.5626,-24.5001
12:53:49.273,-16.1876,-27.8751
12:53:49.303,-17.3126,-28.3126
12:53:49.306,-16.8751,-31.2501
12:53:49.308,-17.9376,-32.1251
12:53:49.312,-17.2501,-33.1876
12:53:49.341,-17.5626,-34.8126
12:53:49.344,-17.5001,-36.4376
12:53:49.345,-18.6876,-36.1251
12:53:49.354,-18.2501,-37.5626
12:53:49.362,-17.3126,-35.0626
12:53:49.372,-15.7501,-29.3751
12:53:49.383,-12.6875,-22.1251
12:53:49.390,-8.4375,-9.9375
12:53:49.401,-5.625,0.375
12:53:49.410,-1.375,10
12:53:49.425,3.25,21.5626
12:53:49.430,7.1875,31.2501
12:53:49.440,10.625,40.2502
12:53:49.452,13.0625,47.9377
12:53:49.460,15.5626,53.7502
12:53:49.472,17.7501,60.5002
12:53:49.482,19.7501,64.1877
12:53:49.491,22.0626,70.1878
12:53:49.500,23.5001,73.1253
12:53:49.514,25.4376,77.4378
12:53:49.523,27.3126,80.1253
12:53:49.530,27.4376,82.5628
12:53:49.542,28.5001,84.5003
12:53:49.551,28.0626,87.1253
12:53:49.560,27.7501,87.3753
12:53:49.572,27.1876,87.4378
12:53:49.581,26.4376,85.6878
12:53:49.591,25.3126,84.1878
12:53:49.601,23.7501,81.2503
12:53:49.612,22.1251,79.2503
12:53:49.620,21.1251,75.9378
12:53:49.634,19.7501,73.0628
12:53:49.640,19.0001,71.3753
12:53:49.652,17.8126,68.6878
12:53:49.663,16.5001,66.1878
12:53:49.671,14.8126,63.9377
12:53:49.682,13.8751,62.1252
12:53:49.692,13.125,59.7502
12:53:49.700,11.25,57.1252
12:53:49.711,10.3125,54.8127
12:53:49.720,9.0625,50.6877
12:53:49.733,7.9375,47.8127
12:53:49.742,6.6875,45.2502
12:53:49.752,5.25,41.6877
12:53:49.761,4.1875,38.9376
12:53:49.770,2.5625,36.0001
12:53:49.782,2.3125,32.5626
12:53:49.796,0.6875,29.5626
12:53:49.803,-0.875,26.3751
12:53:49.811,-1.9375,21.9376
12:53:49.822,-4.125,18.1251
12:53:49.831,-5.375,15.2501
12:53:49.842,-6.125,11.0625
12:53:49.871,-7.6875,7.8125
12:53:49.873,-8.5625,4.4375
12:53:49.876,-9.625,1
12:53:49.882,-10.3125,-1.625
12:53:49.914,-11.625,-4.1875
12:53:49.917,-11.375,-7
12:53:49.919,-13.2501,-9.125
12:53:49.922,-13.3126,-12.4375
12:53:49.951,-14.3126,-14.9376
12:53:49.953,-15.8126,-17.6876
12:53:49.982,-16.5626,-21.2501
12:53:49.985,-17.8126,-23.2501
12:53:49.989,-18.8126,-26.6876
12:53:49.991,-19.4376,-28.3126
12:53:49.996,-19.5626,-31.3126
12:53:50.004,-20.8126,-32.9376
12:53:50.035,-21.1876,-34.2501
12:53:50.037,-21.0626,-37.3126
12:53:50.040,-21.1876,-38.5001
12:53:50.042,-21.5001,-40.1877
12:53:50.052,-22.4376,-41.9377
12:53:50.062,-22.4376,-42.0627
12:53:50.072,-22.1876,-44.6252
12:53:50.081,-22.9376,-43.6877
12:53:50.092,-23.0626,-45.8127
12:53:50.102,-22.1251,-46.1252
12:53:50.111,-22.6251,-44.6877
12:53:50.131,-20.0001,-41.0002
12:53:50.134,-15.8751,-31.5626
12:53:50.148,-9.5,-19.1876
12:53:50.154,-5,-5.25
12:53:50.161,-0.6875,6.4375
12:53:50.172,3.4375,19.1251
12:53:50.180,6.75,29.4376
12:53:50.190,10.375,37.6876
12:53:50.202,12,46.1877
12:53:50.212,15.5626,51.0627
12:53:50.222,18.5001,57.3752
12:53:50.231,18.8126,61.6877
12:53:50.240,21.0001,65.1252
12:53:50.250,22.2501,69.2503
12:53:50.261,23.0001,72.5628
12:53:50.272,24.1876,74.0628
12:53:50.281,25.1251,77.0628
12:53:50.292,24.5001,78.0003
12:53:50.302,24.1251,78.8128
12:53:50.312,23.5001,78.9378
12:53:50.322,23.4376,79.0003
12:53:50.331,22.0001,79.1253
12:53:50.342,21.8126,77.6253
12:53:50.351,20.9376,75.1878
12:53:50.363,18.6251,73.0628
12:53:50.372,17.7501,70.3753
12:53:50.382,16.5626,66.5628
12:53:50.390,15.0626,64.3127
12:53:50.402,13.2501,60.8752
12:53:50.443,12.4375,58.1877
12:53:50.443,11.125,56.5002
12:53:50.446,9.625,53.8752
12:53:50.449,8.75,51.2502
12:53:50.456,7.25,48.8127
12:53:50.465,5.625,45.0627
12:53:50.475,4.0625,42.6252
12:53:50.487,2.625,38.5001
12:53:50.496,1.8125,35.2501
12:53:50.506,-0.125,31.5001
12:53:50.517,-2.4375,27.6876
12:53:50.525,-3.25,24.8126
12:53:50.548,-4.375,20.4376
12:53:50.551,-5.9375,17.3751
12:53:50.580,-6.5625,13.6876
12:53:50.583,-7.1875,10.6875
12:53:50.586,-9.1875,7.4375
12:53:50.589,-10,3.8125
12:53:50.623,-9.9375,-0.125
12:53:50.627,-11.3125,-2.625
12:53:50.627,-12.5625,-5.25
12:53:50.631,-13.0625,-8.5
12:53:50.661,-14.3126,-11.4375
12:53:50.663,-14.8126,-13.5626
12:53:50.665,-14.1876,-15.8126
12:53:50.700,-15.7501,-17.6251
12:53:50.700,-15.9376,-19.6876
12:53:50.702,-16.2501,-22.3751
12:53:50.709,-17.0001,-23.2501
12:53:50.709,-17.0626,-25.8751
12:53:50.717,-18.1251,-28.8126
12:53:50.727,-18.7501,-30.0001
12:53:50.737,-19.3751,-31.8126
12:53:50.747,-19.5001,-32.8126
12:53:50.757,-18.8751,-34.1876
12:53:50.767,-19.3751,-34.6876
12:53:50.779,-18.6876,-35.4376
12:53:50.787,-19.0001,-35.5001
12:53:50.798,-19.6876,-37.8126
12:53:50.807,-20.3126,-40.0627
12:53:50.817,-20.0626,-41.5002
12:53:50.826,-19.3751,-41.5627
12:53:50.837,-19.3126,-41.1252
12:53:50.847,-18.9376,-40.2502
12:53:50.857,-16.4376,-37.2501
12:53:50.867,-14.1251,-28.8126
12:53:50.877,-9.4375,-19.8751
12:53:50.888,-4.5625,-7.9375
12:53:50.897,-0.5,4.375
12:53:50.906,3.5625,14.3126
12:53:50.917,7.0625,24.5626
12:53:50.928,10.375,32.3126
12:53:50.937,12.6875,40.3752
12:53:50.949,14.7501,46.1877
12:53:50.958,16.3751,49.6252
12:53:50.968,16.7501,54.3752
12:53:50.978,17.1251,55.5627
12:53:50.987,17.4376,57.3127
12:53:50.995,16.8751,58.6877
12:53:51.007,17.0626,58.6252
12:53:51.017,16.6251,60.1877
12:53:51.026,16.6251,60.5002
12:53:51.037,16.8126,61.2502
12:53:51.047,15.4376,61.6252
12:53:51.057,15.4376,59.3752
12:53:51.066,14.2501,58.7502
12:53:51.077,13.8126,57.4377
12:53:51.087,11.5625,54.8752
12:53:51.102,10.625,50.8127
12:53:51.107,8.5,47.2502
12:53:51.117,6.75,42.8752
12:53:51.127,4.8125,39.7502
12:53:51.137,4.1875,37.0001
12:53:51.148,2.5,32.7501
12:53:51.157,1.1875,29.8126
12:53:51.167,-0.1875,26.7501
12:53:51.178,-2.0625,23.8751
12:53:51.187,-2.25,21.3126
12:53:51.197,-3.8125,18.8751
12:53:51.207,-4,16.8126
12:53:51.217,-4.875,14.9376
12:53:51.229,-5.4375,13.5626
12:53:51.249,-5.75,10.9375
12:53:51.255,-6.6875,9.5
12:53:51.269,-6.5,6.8125
12:53:51.272,-7.0625,4.625
12:53:51.278,-7.8125,3.75
12:53:51.313,-8,0.75
12:53:51.316,-8.1875,-0.5625
12:53:51.318,-8.625,-3.5
12:53:51.323,-9.1875,-5.625
12:53:51.327,-8.9375,-7.5625
12:53:51.360,-10.5625,-9.375
12:53:51.362,-10.5625,-12.625
12:53:51.364,-11.8125,-14.6251
12:53:51.367,-10.25,-16.0001
12:53:51.398,-11.3125,-16.8126
12:53:51.400,-11,-18.0626
12:53:51.403,-11.875,-19.0001
12:53:51.408,-12.25,-20.3751
12:53:51.471,-12.0625,-21.7501
12:53:51.471,-12.875,-22.1876
12:53:51.472,-12.1875,-22.9376
12:53:51.485,-12.625,-25.0001
12:53:51.485,-12.375,-25.3751
12:53:51.485,-14.1876,-26.5001
12:53:51.487,-15.1251,-29.3126
12:53:51.497,-15.3751,-30.6251
12:53:51.507,-22.5626,-31.8751
12:53:51.518,-30.6876,-62.6252
12:53:51.527,-19.6876,-40.9377
12:53:51.537,-20.0626,-40.7502
12:53:51.547,-22.3126,-44.4377
12:53:51.558,-37.3126,-65.8753
12:53:51.567,-38.7501,-69.1253
12:53:51.576,-41.1877,-73.6253
12:53:51.586,-42.8752,-76.3753
12:53:51.596,-43.5002,-78.8128
12:53:51.608,-44.1877,-78.2503
12:53:51.617,-42.3127,-75.0628
12:53:51.627,-38.6251,-68.7503
12:53:51.637,-34.3751,-59.5627
12:53:51.647,-18.3751,-30.6876
12:53:51.657,-10.375,-14.8751
12:53:51.669,-4.1875,-1.5
12:53:51.677,-0.75,8.5625
12:53:51.687,3.1875,16.6251
12:53:51.721,5.0625,22.6251
12:53:51.724,7.0625,27.2501
12:53:51.725,7.5625,31.0001
12:53:51.730,8.5625,33.2501
12:53:51.737,9.1875,36.7501
12:53:51.747,9,37.8126
12:53:51.757,10.4375,39.6877
12:53:51.767,11.5625,42.2502
12:53:51.777,10.9375,42.6252
12:53:51.788,11.5,44.6252
12:53:51.796,11.875,45.0627
12:53:51.807,12.0625,45.8127
12:53:51.817,11.375,44.6877
12:53:51.828,11.3125,44.2502
12:53:51.838,10,43.6877
12:53:51.850,10.3125,40.7502
12:53:51.862,7.625,39.0626
12:53:51.867,7.375,36.5626
12:53:51.878,6.5625,34.0001
12:53:51.886,5.8125,33.4376
12:53:51.897,5.25,30.8751
12:53:51.907,4,30.1876
12:53:51.917,2.75,26.5626
12:53:51.927,2.5625,25.5626
12:53:51.937,2,23.6251
12:53:51.948,1,22.4376
12:53:51.960,0.625,20.2501
12:53:51.968,-1,17.8751
12:53:51.977,-1.75,15.3751
12:53:51.987,-3.625,12.25
12:53:51.997,-4.875,10
12:53:52.007,-5.375,6.875
12:53:52.016,-6.6875,5.5
12:53:52.027,-7.5,3.5
12:53:52.037,-8.625,0.625
12:53:52.075,-9.375,-2.375
12:53:52.079,-10.6875,-5.125
12:53:52.080,-11.625,-8.375
12:53:52.085,-12.875,-11.1875
12:53:52.088,-13.125,-13.8751
12:53:52.124,-15.0001,-16.3751
12:53:52.125,-15.1251,-17.8751
12:53:52.128,-16.1876,-20.5001
12:53:52.131,-16.4376,-23.3751
12:53:52.164,-17.5001,-24.8126
12:53:52.167,-17.3126,-27.2501
12:53:52.168,-17.5626,-28.0626
12:53:52.171,-17.5001,-29.9376
12:53:52.177,-18.3126,-30.7501
12:53:52.209,-18.0626,-33.1876
12:53:52.211,-19.5001,-34.0001
12:53:52.214,-19.4376,-36.8126
12:53:52.217,-20.8751,-37.0001
12:53:52.230,-20.9376,-40.3752
12:53:52.240,-20.3751,-41.6252
12:53:52.247,-21.6876,-41.8127
12:53:52.257,-21.8751,-44.1252
12:53:52.267,-21.7501,-45.8752
12:53:52.277,-22.1251,-46.7502
12:53:52.288,-21.5626,-48.6252
12:53:52.297,-22.3126,-49.0627
12:53:52.307,-21.6876,-50.6252
12:53:52.316,-23.0626,-51.8127
12:53:52.328,-23.3126,-53.8752
12:53:52.337,-24.1251,-56.2502
12:53:52.347,-24.6876,-57.0002
12:53:52.357,-25.0626,-57.9377
12:53:52.367,-24.3126,-57.1252
12:53:52.377,-23.0626,-53.3127
12:53:52.388,-20.1876,-46.7502
12:53:52.399,-16.8126,-37.6876
12:53:52.407,-13.125,-27.0001
12:53:52.418,-10.4375,-17.8126
12:53:52.427,-7.3125,-9.4375
12:53:52.436,-5.0625,-2.5625
12:53:52.447,-2.9375,5.125
12:53:52.457,-0.5625,10.375
12:53:52.466,1.3125,15.9376
12:53:52.477,2.5625,19.5001
12:53:52.487,3.75,23.0626
12:53:52.497,4.3125,25.8126
12:53:52.509,5.9375,27.8751
12:53:52.517,5.3125,28.5001
12:53:52.527,5.9375,29.6876
12:53:52.549,5.25,30.0626
12:53:52.553,5.5,30.8751
12:53:52.568,5.3125,30.5626
12:53:52.573,5.75,32.3126
12:53:52.577,6.25,32.8751
12:53:52.587,6.8125,32.5001
12:53:52.598,6.875,31.6251
12:53:52.613,6.5,31.5626
12:53:52.618,5.875,28.5626
12:53:52.627,4.375,27.0626
12:53:52.637,3.5,23.8126
12:53:52.647,2.3125,20.7501
12:53:52.657,1.625,20.2501
12:53:52.667,0.8125,18.5001
12:53:52.676,0.5,17.4376
12:53:52.688,-0.25,15.3751
12:53:52.697,-0.4375,14.4376
12:53:52.708,-0.1875,13.1876
12:53:52.723,-0.0625,11.4375
12:53:52.727,-1.625,11.0625
12:53:52.743,-2,10
12:53:52.747,-2.375,8.1875
12:53:52.779,-2.75,6.125
12:53:52.781,-3.5,3.375
12:53:52.784,-4.875,1.1875
12:53:52.789,-5.375,-1.625
12:53:52.816,-6.875,-3.25
12:53:52.818,-7.625,-5.25
12:53:52.820,-8.4375,-9
12:53:52.827,-9.125,-9.875
12:53:52.853,-9.875,-12.9375
12:53:52.856,-10.875,-14.1251
12:53:52.858,-11.5,-17.6251
12:53:52.881,-12.625,-18.8751
12:53:52.884,-12.875,-22.3126
12:53:52.909,-13.5626,-23.1251
12:53:52.912,-14.1251,-25.4376
12:53:52.914,-15.1251,-27.5001
12:53:52.918,-15.0626,-29.3126
12:53:52.938,-16.5626,-31.5626
12:53:52.944,-16.3751,-32.8751
12:53:52.947,-18.5626,-35.0001
12:53:52.958,-18.5001,-37.1251
12:53:52.967,-18.6251,-37.4376
12:53:53.000,-19.3126,-39.3752
12:53:53.002,-18.6876,-40.3752
12:53:53.005,-20.2501,-40.6877
12:53:53.007,-20.3126,-43.5002
12:53:53.021,-20.3126,-44.2502
12:53:53.028,-20.7501,-45.8127
12:53:53.037,-21.0626,-47.6252
12:53:53.049,-21.5001,-48.0002
12:53:53.057,-21.8126,-50.8127
12:53:53.067,-22.6251,-51.6252
12:53:53.078,-22.0626,-53.2502
12:53:53.088,-23.2501,-53.1877
12:53:53.096,-23.4376,-56.0002
12:53:53.107,-23.6251,-56.0002
12:53:53.117,-23.3751,-56.6877
12:53:53.127,-22.3126,-53.5002
12:53:53.138,-20.6251,-50.5002
12:53:53.147,-18.0001,-42.3127
12:53:53.158,-14.6876,-32.8126
12:53:53.170,-11.25,-24.0001
12:53:53.177,-7.8125,-14.6251
12:53:53.187,-5.0625,-5.4375
12:53:53.197,-2.25,1.6875
12:53:53.207,-1.25,8.5625
12:53:53.216,1.25,11.5625
12:53:53.228,1.375,15.9376
12:53:53.236,2.6875,18.6251
12:53:53.247,3.1875,21.5001
12:53:53.257,4.1875,22.5001
12:53:53.267,4.6875,24.8126
12:53:53.277,4.875,24.8751
12:53:53.287,5.4375,26.8126
12:53:53.297,5.75,26.9376
12:53:53.307,5.3125,28.2501
12:53:53.319,5.5625,28.1876
12:53:53.327,5.5,28.0626
12:53:53.337,5.6875,27.6251
12:53:53.348,4.875,27.4376
12:53:53.358,4.1875,25.3126
12:53:53.367,4,22.7501
12:53:53.377,2.625,20.0001
12:53:53.387,1.25,18.5626
12:53:53.397,0.5625,16.4376
12:53:53.408,-0.5625,13.7501
12:53:53.417,-1.0625,12.75
12:53:53.427,-1.4375,11.6875
12:53:53.437,-1.9375,9.375
12:53:53.447,-3.375,7.3125
12:53:53.456,-4.0625,5.375
12:53:53.467,-4.6875,3.375
12:53:53.477,-4.1875,3.5
12:53:53.487,-5.4375,2.1875
12:53:53.498,-5.5625,1
12:53:53.507,-6.125,-1.25
12:53:53.520,-6.9375,-2.75
12:53:53.527,-7.375,-5.375
12:53:53.537,-8.4375,-8.3125
12:53:53.547,-9.1875,-9.125
12:53:53.563,-10,-12.25
12:53:53.567,-10.875,-14.3126
12:53:53.598,-11.3125,-16.9376
12:53:53.600,-13.4376,-20.2501
12:53:53.603,-13.125,-22.0001
12:53:53.608,-13.7501,-24.3751
12:53:53.634,-13.7501,-26.1251
12:53:53.637,-15.0626,-28.6251
12:53:53.639,-15.1876,-30.4376
12:53:53.670,-16.1251,-31.4376
12:53:53.672,-16.3126,-33.4376
12:53:53.675,-16.6251,-34.0001
12:53:53.680,-17.3126,-37.0001
12:53:53.709,-17.0626,-37.6251
12:53:53.712,-18.2501,-38.6876
12:53:53.714,-19.1251,-40.5002
12:53:53.740,-18.8751,-42.2502
12:53:53.740,-19.5001,-43.0002
12:53:53.742,-20.0626,-44.9377
12:53:53.748,-19.9376,-45.5627
12:53:53.759,-21.1251,-45.8752
12:53:53.772,-21.7501,-49.0002
12:53:53.777,-22.7501,-49.6877
12:53:53.787,-23.3751,-52.3127
12:53:53.797,-24.0626,-52.6877
12:53:53.808,-24.3751,-55.6252
12:53:53.818,-25.1876,-56.4377
12:53:53.827,-26.1251,-58.5002
12:53:53.839,-26.6251,-59.8752
12:53:53.856,-27.3126,-62.6877
12:53:53.861,-28.1876,-64.1877
12:53:53.877,-28.1876,-66.6253
12:53:53.879,-29.6251,-66.3128
12:53:53.886,-28.9376,-67.5628
12:53:53.898,-27.3126,-64.8127
12:53:53.908,-25.6876,-60.8127
12:53:53.917,-22.5001,-53.1877
12:53:53.926,-18.3751,-44.0627
12:53:53.937,-14.8126,-32.6251
12:53:53.948,-10.25,-21.9376
12:53:53.957,-6.9375,-11.8125
12:53:53.967,-4.25,-5.125
12:53:53.977,-1.75,1.75
12:53:53.987,-0.8125,6.625
12:53:53.997,0.3125,10.9375
12:53:54.020,2.1875,13.8126
12:53:54.022,2.4375,16.4376
12:53:54.038,3.625,18.8126
12:53:54.040,3.6875,19.9376
12:53:54.047,3.4375,20.3751
12:53:54.057,4,20.3126
12:53:54.067,3.8125,21.4376
12:53:54.079,2.6875,21.1876
12:53:54.087,3.125,21.8126
12:53:54.097,2.5,21.0626
12:53:54.107,2.8125,20.7501
12:53:54.117,2.125,20.1251
12:53:54.128,1.5,17.7501
12:53:54.136,-0.125,15.7501
12:53:54.152,-0.9375,12.75
12:53:54.156,-1.5625,9.75
12:53:54.167,-2.8125,6.8125
12:53:54.178,-3.8125,5.0625
12:53:54.187,-4.75,3.75
12:53:54.196,-4.9375,1.125
12:53:54.207,-5.9375,0.8125
12:53:54.219,-6.5,-2.125
12:53:54.226,-7.4375,-3.1875
12:53:54.237,-8.5,-6.375
12:53:54.247,-8.625,-7.4375
12:53:54.279,-9.1875,-8.875
12:53:54.282,-9.8125,-9.9375
12:53:54.285,-9.3125,-11.5625
12:53:54.290,-10.5625,-12.625
12:53:54.320,-10.25,-14.0626
12:53:54.322,-11.5625,-15.7501
12:53:54.324,-11.75,-17.6251
12:53:54.328,-12.8125,-20.5001
12:53:54.360,-13.2501,-22.8751
12:53:54.363,-14.4376,-24.8751
12:53:54.365,-15.2501,-27.0626
12:53:54.368,-16.5626,-30.1251
12:53:54.396,-16.8126,-32.1876
12:53:54.399,-18.0001,-34.4376
12:53:54.402,-18.6876,-37.1876
12:53:54.407,-19.2501,-38.6251
12:53:54.420,-20.1251,-39.1877
12:53:54.447,-19.7501,-42.1252
12:53:54.449,-21.2501,-42.7502
12:53:54.453,-21.1876,-45.0627
12:53:54.462,-21.6251,-47.0002
12:53:54.471,-22.1251,-47.4377
12:53:54.482,-22.7501,-50.1877
12:53:54.493,-23.3751,-51.2502
12:53:54.501,-24.5001,-51.6877
12:53:54.512,-24.6876,-55.0002
12:53:54.527,-25.8751,-55.3752
12:53:54.532,-25.8751,-58.1877
12:53:54.543,-25.9376,-58.8752
12:53:54.551,-27.0001,-60.6877
12:53:54.562,-27.1251,-61.5002
12:53:54.572,-27.2501,-62.1252
12:53:54.582,-27.8126,-64.3752
12:53:54.592,-28.8126,-66.5003
12:53:54.602,-28.6876,-68.1253
12:53:54.612,-29.1251,-68.3753
12:53:54.622,-28.7501,-69.6878
12:53:54.633,-28.9376,-71.2503
12:53:54.642,-29.5001,-70.8128
12:53:54.652,-29.7501,-74.0003
12:53:54.662,-30.2501,-73.4378
12:53:54.673,-30.5001,-75.5003
12:53:54.684,-29.8751,-73.6253
12:53:54.692,-28.5626,-70.5628
12:53:54.702,-25.7501,-63.8127
12:53:54.712,-22.3751,-54.7502
12:53:54.724,-18.1876,-43.2502
12:53:54.732,-14.5001,-31.9376
12:53:54.742,-11,-21.4376
12:53:54.752,-7.6875,-13.2501
12:53:54.762,-5.875,-6.375
12:53:54.775,-3.4375,-0.0625
12:53:54.782,-2.875,3.3125
12:53:54.792,-1.0625,6.6875
12:53:54.802,-0.375,8.375
12:53:54.813,0.75,10.0625
12:53:54.821,0.6875,10.5
12:53:54.832,1.25,12.3125
12:53:54.842,1,13.1876
12:53:54.853,2,12.875
12:53:54.866,1.25,13.4376
12:53:54.872,1.25,13.5001
12:53:54.882,0.5625,12.75
12:53:54.892,0.5625,11.0625
12:53:54.903,-0.4375,9.8125
12:53:54.934,-0.5,8.25
12:53:54.934,-1.6875,5.6875
12:53:54.938,-2.125,3.1875
12:53:54.942,-3.5625,0.75
12:53:54.970,-4.875,0.0625
12:53:54.972,-4.3125,-2.625
12:53:54.975,-5.3125,-3.3125
12:53:55.004,-5.8125,-5.6875
12:53:55.007,-6.375,-5.375
12:53:55.009,-6.5625,-7.75
12:53:55.014,-7.5625,-7.8125
12:53:55.047,-7.3125,-10.125
12:53:55.048,-7.8125,-10.9375
12:53:55.050,-7.9375,-11.5625
12:53:55.079,-8.5,-13.5001
12:53:55.080,-8.75,-15.1251
12:53:55.082,-9.75,-16.6876
12:53:55.087,-10.5625,-18.8126
12:53:55.095,-12.0625,-21.3126
12:53:55.102,-12.875,-24.0001
12:53:55.112,-14.0626,-26.2501
12:53:55.122,-14.2501,-28.0001
12:53:55.134,-15.3126,-30.0001
12:53:55.142,-15.6251,-32.8126
12:53:55.160,-16.2501,-32.9376
12:53:55.173,-16.7501,-35.7501
12:53:55.175,-16.9376,-36.0001
12:53:55.181,-17.9376,-38.3751
12:53:55.192,-17.8126,-40.3127
12:53:55.204,-18.8751,-41.0002
12:53:55.212,-19.3126,-43.3127
12:53:55.222,-19.1876,-44.5627
12:53:55.231,-20.1876,-45.1877
12:53:55.243,-20.6251,-47.3127
12:53:55.252,-20.1876,-48.3127
12:53:55.262,-21.0626,-48.7502
12:53:55.276,-21.3751,-50.8127
12:53:55.281,-21.8126,-51.8752
12:53:55.292,-20.9376,-52.3127
12:53:55.302,-22.6251,-52.5627
12:53:55.318,-22.3126,-54.6877
12:53:55.334,-23.1876,-55.0002
12:53:55.336,-22.8126,-57.1252
12:53:55.342,-23.0626,-57.9377
12:53:55.352,-23.5626,-59.2502
12:53:55.365,-23.9376,-60.6252
12:53:55.372,-24.0001,-61.0002
12:53:55.381,-24.8751,-62.2502
12:53:55.392,-25.3126,-64.1877
12:53:55.403,-25.1251,-65.0002
12:53:55.412,-25.6251,-63.3752
12:53:55.422,-23.9376,-63.1877
12:53:55.432,-23.2501,-58.8127
12:53:55.444,-20.5001,-53.4377
12:53:55.451,-17.1876,-43.1877
12:53:55.462,-13.1876,-32.3751
12:53:55.472,-10.125,-20.6251
12:53:55.484,-6.4375,-12.0625
12:53:55.492,-4.0625,-4.125
12:53:55.502,-1.1875,2.6875
12:53:55.512,0.125,8.75
12:53:55.524,2.1875,11.375
12:53:55.531,1.875,15.5001
12:53:55.560,3.5625,16.0001
12:53:55.563,3.75,18.0001
12:53:55.565,4.125,19.6876
12:53:55.574,5.125,20.2501
12:53:55.582,4.375,20.3751
12:53:55.595,4.9375,20.5001
12:53:55.602,4.375,21.2501
12:53:55.612,5.125,21.0626
12:53:55.622,4.5625,21.7501
12:53:55.633,5.125,20.5626
12:53:55.663,4.0625,19.3126
12:53:55.665,3.6875,16.8751
12:53:55.668,1.75,14.1876
12:53:55.673,0.6875,12.8125
12:53:55.705,1.0625,10.625
12:53:55.707,-0.5,7.5
12:53:55.709,-0.6875,7.25
12:53:55.712,-1.75,4.9375
12:53:55.743,-1.3125,3.75
12:53:55.745,-2.9375,2
12:53:55.747,-3.5,1
12:53:55.752,-4.0625,-0.5625
12:53:55.767,-3.5,-1.6875
12:53:55.772,-4.8125,-3.375
12:53:55.805,-5.4375,-5.1875
12:53:55.807,-5.9375,-5.8125
12:53:55.809,-6,-7.3125
12:53:55.815,-6.125,-8.5
12:53:55.829,-7.3125,-10.9375
12:53:55.832,-8.125,-12.4375
12:53:55.842,-8.4375,-15.3126
12:53:55.856,-9.25,-17.1251
12:53:55.862,-9.9375,-19.2501
12:53:55.872,-10.3125,-20.2501
12:53:55.882,-11.5625,-23.1251
12:53:55.894,-12,-25.3751
12:53:55.902,-13.0625,-26.9376
12:53:55.912,-13.6251,-28.3751
12:53:55.922,-14.6251,-29.0001
12:53:55.934,-14.1251,-32.6876
12:53:55.942,-15.1876,-32.8751
12:53:55.952,-15.4376,-35.8126
12:53:55.962,-16.0001,-36.1251
12:53:55.972,-16.6251,-37.9376
12:53:55.982,-16.6876,-40.0002
12:53:55.992,-16.5626,-40.6877
12:53:56.002,-17.5001,-40.5627
12:53:56.012,-17.3751,-42.3127
12:53:56.022,-17.3751,-44.1252
12:53:56.032,-18.6876,-44.8752
12:53:56.042,-18.3126,-46.9377
12:53:56.056,-19.2501,-47.8127
12:53:56.062,-19.0626,-48.5002
12:53:56.072,-18.6251,-48.5002
12:53:56.082,-19.9376,-48.8752
12:53:56.095,-19.6876,-51.0002
12:53:56.102,-20.0001,-52.7502
12:53:56.112,-20.1251,-53.8127
12:53:56.122,-20.3751,-54.3127
12:53:56.135,-20.8126,-55.1877
12:53:56.148,-20.8751,-56.7502
12:53:56.157,-20.6876,-56.9377
12:53:56.168,-21.5626,-56.4377
12:53:56.178,-21.3126,-58.3752
12:53:56.187,-20.5001,-56.0627
12:53:56.205,-19.7501,-52.8127
12:53:56.208,-17.1251,-45.7502
12:53:56.217,-13,-35.5626
12:53:56.227,-9.375,-24.5626
12:53:56.237,-5.25,-13.0625
12:53:56.249,-1.25,-1.375
12:53:56.257,1.5,6.1875
12:53:56.267,3.625,14.8751
12:53:56.278,6,19.3126
12:53:56.289,7.1875,24.6876
12:53:56.297,8.0625,27.8751
12:53:56.307,9.75,31.2501
12:53:56.317,10.625,33.7501
12:53:56.327,11.3125,34.5001
12:53:56.337,11.0625,36.0001
12:53:56.347,11.75,35.7501
12:53:56.359,11.375,37.8126
12:53:56.367,12.1875,37.9376
12:53:56.378,12,39.1876
12:53:56.387,12.6875,38.6876
12:53:56.397,12,38.6251
12:53:56.407,12.5625,37.0626
12:53:56.417,11.0625,36.7501
12:53:56.427,10.4375,33.1251
12:53:56.439,9,29.6876
12:53:56.453,7.8125,27.8751
12:53:56.498,7.375,24.8751
12:53:56.500,6.1875,24.0001
12:53:56.502,6.4375,22.2501
12:53:56.531,5,20.8751
12:53:56.531,4.375,18.8751
12:53:56.531,4.0625,17.2501
12:53:56.532,3.3125,16.5001
12:53:56.535,2.625,14.3751
12:53:56.540,1.8125,13.125
12:53:56.569,0.9375,9.9375
12:53:56.572,0.875,9.25
12:53:56.574,0.0625,6.9375
12:53:56.603,-0.5,5.0625
12:53:56.604,-1.4375,2.9375
12:53:56.630,-2.375,1
12:53:56.633,-2.6875,-0.9375
12:53:56.661,-4.3125,-3
12:53:56.661,-4.0625,-5.125
12:53:56.661,-5,-8.125
12:53:56.676,-6.25,-9.9375
12:53:56.678,-7,-11.625
12:53:56.687,-7.9375,-14.6251
12:53:56.688,-8.4375,-16.1876
12:53:56.693,-9,-19.1251
12:53:56.702,-9.375,-20.8126
12:53:56.713,-10.4375,-22.1876
12:53:56.722,-11.0625,-24.0626
12:53:56.732,-11.6875,-25.6876
12:53:56.744,-11.5,-26.5001
12:53:56.752,-12.25,-29.0626
12:53:56.761,-12.875,-29.4376
12:53:56.772,-13.3126,-32.0001
12:53:56.782,-13.6876,-32.5626
12:53:56.793,-14.0626,-34.7501
12:53:56.802,-15.0001,-36.0626
12:53:56.814,-14.7501,-38.0001
12:53:56.842,-15.8751,-38.1876
12:53:56.845,-15.7501,-39.1251
12:53:56.846,-16.4376,-41.8127
12:53:56.853,-17.0001,-42.2502
12:53:56.861,-17.3751,-43.5627
12:53:56.873,-18.0001,-45.9377
12:53:56.882,-17.9376,-46.9377
12:53:56.893,-19.3126,-47.6252
12:53:56.901,-19.2501,-50.0002
12:53:56.913,-19.0626,-51.3127
12:53:56.922,-19.5001,-51.9377
12:53:56.933,-19.8751,-51.7502
12:53:56.943,-19.5001,-52.7502
12:53:56.952,-19.1876,-49.2502
12:53:56.963,-17.3751,-46.5002
12:53:56.971,-14.1876,-38.7501
12:53:56.983,-10.125,-27.5626
12:53:56.992,-6.625,-17.0001
12:53:57.003,-2.625,-4.5
12:53:57.012,1.0625,4.6875
12:53:57.023,3.8125,13.6876
12:53:57.031,6.1875,20.3751
12:53:57.042,7.75,26.0001
12:53:57.053,9.3125,30.1876
12:53:57.062,10.4375,32.2501
12:53:57.073,10.75,35.0626
12:53:57.083,11.75,36.6251
12:53:57.094,11.6875,38.7501
12:53:57.102,12.5,39.8752
12:53:57.113,12.5,40.1252
12:53:57.122,12.625,40.8752
12:53:57.132,13.3751,40.9377
12:53:57.142,13.5626,42.6252
12:53:57.151,13.3751,42.3127
12:53:57.164,13.1876,43.0002
12:53:57.194,13.5001,41.1877
12:53:57.196,13,39.6877
12:53:57.199,11.75,38.4376
12:53:57.203,11.1875,35.6876
12:53:57.234,10.6875,32.5001
12:53:57.236,9.625,30.8126
12:53:57.238,9.5625,29.0626
12:53:57.244,7.8125,27.4376
12:53:57.273,7.375,25.7501
12:53:57.275,6.75,23.9376
12:53:57.279,6.4375,23.7501
12:53:57.283,6.25,21.8751
12:53:57.311,6,20.6876
12:53:57.313,5.3125,20.1876
12:53:57.315,4.625,17.3126
12:53:57.324,3.5,16.0001
12:53:57.348,3,13.2501
12:53:57.350,1.5625,11.0625
12:53:57.353,0.9375,9.3125
12:53:57.362,-0.25,7.125
12:53:57.373,-0.875,4.1875
12:53:57.382,-1.5625,3.25
12:53:57.396,-2.8125,-0.0625
12:53:57.403,-3.6875,-2.5
12:53:57.413,-3.4375,-4.375
12:53:57.426,-5.3125,-6.5625
12:53:57.433,-5.75,-8.5625
12:53:57.443,-6.5,-11.1875
12:53:57.453,-7.875,-13.3126
12:53:57.462,-7.9375,-15.8751
12:53:57.473,-9.375,-17.2501
12:53:57.483,-9.875,-19.5626
12:53:57.494,-10.1875,-21.6251
12:53:57.503,-10.875,-22.3126
12:53:57.513,-11.125,-24.8126
12:53:57.523,-11.75,-24.9376
12:53:57.533,-12.1875,-26.9376
12:53:57.542,-12.5625,-28.1251
12:53:57.553,-13.1876,-31.0626
12:53:57.562,-13.1876,-31.5001
12:53:57.573,-14.6251,-32.0001
12:53:57.584,-14.4376,-34.2501
12:53:57.592,-14.7501,-34.3751
12:53:57.604,-15.5001,-36.5626
12:53:57.612,-14.9376,-37.5001
12:53:57.622,-15.8751,-38.3751
12:53:57.633,-16.1251,-41.6252
12:53:57.643,-17.0626,-42.2502
12:53:57.656,-17.8126,-42.2502
12:53:57.663,-18.1251,-45.7502
12:53:57.673,-18.1251,-45.8752
12:53:57.685,-18.4376,-47.0627
12:53:57.693,-17.8126,-47.0002
12:53:57.703,-17.6251,-44.3127
12:53:57.714,-15.8751,-41.1252
12:53:57.724,-12.75,-32.6876
12:53:57.733,-9.875,-21.3126
12:53:57.744,-5.75,-11.25
12:53:57.752,-1.5625,0.8125
12:53:57.768,1.25,10.625
12:53:57.786,4.625,18.0626
12:53:57.788,7.6875,25.7501
12:53:57.802,8.4375,33.3751
12:53:57.804,10.9375,36.5626
12:53:57.813,12.125,40.5002
12:53:57.823,12.8125,42.4377
12:53:57.834,13.3751,44.9377
12:53:57.843,13.9376,46.1877
12:53:57.865,14.3751,47.5627
12:53:57.867,14.3126,48.7502
12:53:57.900,14.8751,49.8752
12:53:57.901,15.0626,51.0002
12:53:57.903,15.1251,51.2502
12:53:57.905,15.5001,52.6252
12:53:57.913,15.8751,51.8127
12:53:57.948,15.1876,50.6252
12:53:57.982,14.2501,49.1877
12:53:58.011,13.3751,46.8752
12:53:58.041,13.0625,44.1252
12:53:58.041,12.25,41.0627
12:53:58.041,10.6875,40.1877
12:53:58.042,10.5,37.4376
12:53:58.043,9.5,35.8126
12:53:58.049,9.0625,34.0001
12:53:58.051,8.625,33.2501
12:53:58.051,7.8125,31.8751
12:53:58.058,7.8125,30.4376
12:53:58.068,6.875,29.3126
12:53:58.077,6.9375,27.5626
12:53:58.089,5.3125,25.8126
12:53:58.120,4.625,24.9376
12:53:58.122,4.25,21.6876
12:53:58.124,3,20.5001
12:53:58.130,2.625,16.9376
12:53:58.138,2,15.3751
12:53:58.148,0.8125,13.1876
12:53:58.163,0,9.75
12:53:58.168,-0.6875,5.6875
12:53:58.178,-1.6875,4.125
12:53:58.189,-3,1.5
12:53:58.197,-3.1875,-0.9375
12:53:58.207,-4.6875,-2.6875
12:53:58.218,-6.4375,-9.0625
12:53:58.229,-7.5,-11.1875
12:53:58.238,-8.1875,-13.6876
12:53:58.248,-8.875,-15.3126
12:53:58.258,-10.5,-18.0001
12:53:58.268,-10.875,-20.3126
12:53:58.278,-11.625,-22.8126
12:53:58.287,-12.375,-23.8751
12:53:58.298,-12.5625,-26.1876
12:53:58.308,-13.3751,-27.1876
12:53:58.321,-13.2501,-27.7501
12:53:58.328,-14.0626,-28.8751
12:53:58.337,-14.0001,-30.8126
12:53:58.348,-15.1251,-32.7501
12:53:58.358,-15.0626,-34.0001
12:53:58.367,-15.1251,-34.2501
12:53:58.380,-15.7501,-36.2501
12:53:58.388,-15.3751,-36.8126
12:53:58.398,-16.2501,-37.5626
12:53:58.408,-16.0001,-40.0002
12:53:58.417,-17.8126,-40.8127
12:53:58.427,-17.9376,-43.0627
12:53:58.438,-18.5001,-45.0627
12:53:58.448,-19.0001,-46.0002
12:53:58.458,-19.3751,-47.8127
12:53:58.473,-18.3126,-46.0627
12:53:58.483,-18.1876,-43.0627
12:53:58.492,-15.8126,-38.0626
12:53:58.503,-11.75,-27.7501
12:53:58.513,-8,-15.8751
12:53:58.524,-2.875,-3.5625
12:53:58.541,0.1875,8.875
12:53:58.543,3.75,17.8126
12:53:58.553,7.125,26.8126
12:53:58.563,9.125,35.3126
12:53:58.572,11.125,39.0626
12:53:58.583,13.125,44.0627
12:53:58.593,13.6251,48.2502
12:53:58.605,14.7501,49.0627
12:53:58.613,15.7501,52.8127
12:53:58.623,15.6251,54.3752
12:53:58.633,17.2501,58.0002
12:53:58.643,17.8751,60.0627
12:53:58.653,18.9376,60.3752
12:53:58.662,18.6251,61.2502
12:53:58.702,19.3751,62.8127
12:53:58.705,19.0001,62.3752
12:53:58.707,19.6251,62.2502
12:53:58.709,18.1251,60.7502
12:53:58.713,17.6876,57.5002
12:53:58.742,16.2501,56.3752
12:53:58.745,16.0001,53.2502
12:53:58.747,13.7501,50.7502
12:53:58.752,12.8125,48.1877
12:53:58.768,12.5,45.2502
12:53:58.806,11.5,43.8752
12:53:58.811,11,41.5002
12:53:58.813,9.625,40.5627
12:53:58.815,8.875,38.1876
12:53:58.822,7.5,35.6876
12:53:58.823,7.9375,34.7501
12:53:58.846,6.1875,32.5001
12:53:58.849,6.375,31.0626
12:53:58.853,5.5625,28.8126
12:53:58.863,4.25,26.7501
12:53:58.877,3.5,24.2501
12:53:58.882,2.75,21.3126
12:53:58.893,2,19.5626
12:53:58.903,1.4375,17.1876
12:53:58.913,0.375,14.7501
12:53:58.923,0.125,12.4375
12:53:58.933,-1.9375,10.1875
12:53:58.943,-1.625,7.9375
12:53:58.954,-3.25,4.75
12:53:58.964,-4.125,3.0625
12:53:58.973,-5.25,0.5
12:53:58.983,-5.9375,-3
12:53:58.993,-6.125,-3.8125
12:53:59.003,-6.375,-6.3125
12:53:59.013,-8,-8.3125
12:53:59.023,-8.0625,-9.8125
12:53:59.033,-9.375,-12.1875
12:53:59.045,-9.875,-13.9376
12:53:59.053,-10.3125,-16.7501
12:53:59.063,-11.625,-18.1876
12:53:59.079,-12.0625,-20.3751
12:53:59.094,-12.8125,-22.6876
12:53:59.109,-12.875,-23.0001
12:53:59.111,-13.6876,-25.5001
12:53:59.127,-14.3126,-26.0001
12:53:59.130,-14.6876,-28.5626
12:53:59.133,-15.4376,-28.8126
12:53:59.144,-16.0001,-31.1876
12:53:59.155,-15.4376,-32.5626
12:53:59.164,-16.7501,-33.0001
12:53:59.174,-17.0001,-35.8751
12:53:59.184,-17.1876,-37.0626
12:53:59.193,-18.1876,-39.0001
12:53:59.203,-18.3126,-40.3752
12:53:59.213,-19.3751,-42.5002
12:53:59.226,-19.4376,-43.5627
12:53:59.233,-20.1251,-44.2502
12:53:59.244,-20.1251,-45.3752
12:53:59.256,-20.3126,-44.5627
12:53:59.263,-19.1251,-43.7502
12:53:59.275,-16.8126,-37.9376
12:53:59.295,-13.7501,-28.8751
12:53:59.296,-9.5,-17.3126
12:53:59.316,-5.875,-5.0625
12:53:59.317,-1.5,6
12:53:59.330,2.25,16.6251
12:53:59.333,4.3125,24.6876
12:53:59.343,8,31.5626
12:53:59.353,9.1875,36.7501
12:53:59.365,10.6875,41.0627
12:53:59.401,11.8125,45.1877
12:53:59.404,12.5625,47.1877
12:53:59.407,13.8126,49.1252
12:53:59.410,14.0626,52.1252
12:53:59.413,14.1876,52.3752
12:53:59.440,15.2501,54.1877
12:53:59.443,14.9376,55.5002
12:53:59.445,15.8126,56.0627
12:53:59.482,16.5001,57.3752
12:53:59.484,16.1876,57.6877
12:53:59.487,15.5626,58.1877
12:53:59.492,15.2501,56.5002
12:53:59.493,15.3126,54.0002
12:53:59.521,13.8751,50.9377
12:53:59.524,12.4375,49.8127
12:53:59.528,11.8125,46.8127
12:53:59.533,11.0625,44.3752
12:53:59.543,10.625,42.5002
12:53:59.553,9.75,40.3127
12:53:59.563,8.3125,38.3126
12:53:59.574,7.75,37.1876
12:53:59.583,6.875,34.4376
12:53:59.594,6.4375,32.9376
12:53:59.604,5.875,30.6876
12:53:59.614,4.8125,29.0001
12:53:59.623,5,26.6876
12:53:59.635,3.9375,25.9376
12:53:59.643,3.6875,23.1876
12:53:59.655,1.9375,20.8751
12:53:59.667,1.375,18.0626
12:53:59.673,0.1875,16.5001
12:53:59.683,-1.0625,14.0626
12:53:59.693,-1.4375,11.375
12:53:59.703,-2.5625,8.5
12:53:59.713,-3.125,6.4375
12:53:59.724,-3.8125,3.0625
12:53:59.733,-4.6875,1.3125
12:53:59.743,-5.5,-1.0625
12:53:59.753,-6.3125,-3.125
12:53:59.763,-6.75,-5.8125
12:53:59.775,-8.0625,-7.125
12:53:59.784,-7.625,-9.6875
12:53:59.793,-9.3125,-11.375
12:53:59.803,-9.5,-13.2501
12:53:59.813,-9.9375,-15.9376
12:53:59.823,-10.75,-16.4376
12:53:59.833,-11.375,-18.3751
12:53:59.843,-12.125,-19.5001
12:53:59.854,-11.75,-22.0001
12:53:59.863,-13,-22.5001
12:53:59.873,-13.2501,-25.3126
12:53:59.884,-14.3751,-26.9376
12:53:59.893,-14.2501,-28.6876
12:53:59.903,-15.5626,-29.2501
12:53:59.916,-16.0626,-31.6876
12:53:59.924,-15.5001,-32.5626
12:53:59.933,-17.1251,-35.1251
12:53:59.943,-17.3751,-37.1251
12:53:59.953,-17.5626,-38.0626
12:53:59.963,-18.8126,-38.8751
12:53:59.973,-18.5626,-41.0002
12:53:59.983,-18.6876,-42.7502
12:53:59.993,-20.0626,-44.1252
12:54:00.008,-20.5001,-45.7502
12:54:00.014,-19.8126,-45.0002
12:54:00.023,-19.7501,-41.4377
12:54:00.033,-17.5001,-37.5001
12:54:00.045,-13.6876,-29.6876
12:54:00.054,-10.3125,-18.2501
12:54:00.064,-6.0625,-7.125
12:54:00.073,-2.25,5.75
12:54:00.086,1.375,15.0626
12:54:00.093,4.4375,23.2501
12:54:00.124,7.1875,30.8751
12:54:00.127,8.1875,36.3126
12:54:00.129,9.5,39.8127
12:54:00.134,11.0625,44.0627
12:54:00.170,12.3125,45.8127
12:54:00.172,12.875,48.6252
12:54:00.175,13.4376,50.0002
12:54:00.177,14.2501,52.1252
12:54:00.183,14.0001,53.0627
12:54:00.214,15.6251,54.3752
12:54:00.217,15.0001,56.8127
12:54:00.219,15.6876,56.2502
12:54:00.223,16.5001,58.6877
12:54:00.259,16.1251,58.0627
12:54:00.262,16.6876,57.0002
12:54:00.264,14.8751,54.9377
12:54:00.267,13.9376,51.8127
12:54:00.273,13.3126,49.9377
12:54:00.286,11.8125,46.8127
12:54:00.293,11.5,44.1252
12:54:00.303,10,42.4377
12:54:00.313,9.4375,40.5002
12:54:00.323,9.0625,38.7501
12:54:00.334,8.125,36.6876
12:54:00.343,8.125,35.3751
12:54:00.353,7.9375,33.8126
12:54:00.364,6.6875,32.3126
12:54:00.373,6.375,30.6251
12:54:00.386,5.6875,29.0001
12:54:00.401,5.625,27.0626
12:54:00.408,3.5625,24.5001
12:54:00.420,2.5625,22.9376
12:54:00.423,2.0625,20.4376
12:54:00.433,1.6875,17.5626
12:54:00.448,0.25,14.7501
12:54:00.456,-0.8125,12.1875
12:54:00.463,-1.875,10.25
12:54:00.473,-1.875,7.4375
12:54:00.483,-2.9375,4.625
12:54:00.493,-4.1875,2.75
12:54:00.503,-4.9375,0.625
12:54:00.513,-5.5625,-2.0625
12:54:00.523,-6,-5.125
12:54:00.533,-7.375,-6.5
12:54:00.543,-7.875,-9.125
12:54:00.553,-8.5625,-11.875
12:54:00.563,-10.125,-14.5626
12:54:00.575,-11.0625,-16.1876
12:54:00.583,-11.5,-17.8126
12:54:00.605,-11.875,-18.8751
12:54:00.608,-11.875,-21.1876
12:54:00.623,-12.5,-22.9376
12:54:00.638,-13.3751,-24.2501
12:54:00.640,-14.1876,-25.5001
12:54:00.647,-14.3751,-27.7501
12:54:00.654,-15.0001,-30.1251
12:54:00.680,-15.8126,-30.5001
12:54:00.682,-16.1251,-32.8126
12:54:00.684,-16.9376,-35.0001
12:54:00.694,-17.2501,-36.6876
12:54:00.705,-18.3751,-39.1876
12:54:00.713,-18.7501,-40.3127
12:54:00.723,-19.4376,-41.5627
12:54:00.733,-19.0001,-42.8127
12:54:00.743,-20.4376,-44.0627
12:54:00.755,-20.4376,-46.1877
12:54:00.767,-20.8751,-47.6877
12:54:00.802,-21.3751,-47.7502
12:54:00.805,-20.6251,-46.3127
12:54:00.806,-19.1876,-43.0002
12:54:00.808,-15.6251,-35.1251
12:54:00.814,-12.8125,-24.5001
12:54:00.845,-8.3125,-13.1876
12:54:00.848,-4.25,-0.3125
12:54:00.849,-0.4375,9.625
12:54:00.855,2.75,19.0001
12:54:00.863,4.8125,28.3751
12:54:00.889,7.6875,33.3751
12:54:00.891,10.5,39.2501
12:54:00.896,10.625,42.9377
12:54:00.927,12,45.7502
12:54:00.928,12.8125,49.8752
12:54:00.932,14.0626,50.8127
12:54:00.933,15.2501,54.3127
12:54:00.949,15.5001,56.8752
12:54:00.953,16.3126,57.2502
12:54:00.963,16.0001,59.9377
12:54:00.973,17.1251,60.2502
12:54:00.983,17.8751,61.9377
12:54:00.995,17.3751,61.8752
12:54:01.003,17.6251,61.6877
12:54:01.013,16.3751,61.0002
12:54:01.023,16.8126,59.0002
12:54:01.033,14.8751,57.0002
12:54:01.044,14.1251,53.8752
12:54:01.053,13.1251,50.9377
12:54:01.063,12,47.3752
12:54:01.074,10.5,44.4377
12:54:01.083,9.5625,43.5002
12:54:01.093,9.125,41.1252
12:54:01.103,8.0625,38.2501
12:54:01.113,7.0625,38.5001
12:54:01.124,6.5625,35.3751
12:54:01.133,5.875,32.6876
12:54:01.143,5.375,32.3126
12:54:01.153,4.9375,29.8751
12:54:01.163,4,28.0626
12:54:01.173,3.4375,27.4376
12:54:01.183,3,24.8126
12:54:01.193,2.1875,21.9376
12:54:01.204,1.4375,20.0001
12:54:01.213,0.125,16.9376
12:54:01.223,-0.5,14.8126
12:54:01.236,-0.875,13.4376
12:54:01.244,-1,11.9375
12:54:01.253,-1.3125,9.3125
12:54:01.263,-1.75,7.875
12:54:01.273,-1.9375,6.125
12:54:01.283,-2.1875,4.1875
12:54:01.293,-3.3125,2
12:54:01.303,-3.3125,1
12:54:01.314,-4.125,-1.5
12:54:01.324,-5.1875,-3.9375
12:54:01.333,-5.75,-4.625
12:54:01.343,-5.875,-6.3125
12:54:01.356,-6,-8.4375
12:54:01.366,-7.3125,-10.5625
12:54:01.373,-6.9375,-11.125
12:54:01.385,-6.8125,-11.3125
12:54:01.393,-5.9375,-12.4375
12:54:01.403,-4.25,-10.5
12:54:01.413,-2.3125,-8.5625
12:54:01.423,0.4375,-6.25
12:54:01.433,3.6875,-2.9375
12:54:01.443,5.0625,-0.1875
12:54:01.453,6.5625,1.375
12:54:01.463,7.375,1.75
12:54:01.473,7,2.6875
12:54:01.484,7.1875,1.375
12:54:01.518,6.6875,1.0625
12:54:01.520,6.5625,-0.75
12:54:01.523,5.75,-2.1875
12:54:01.525,5.6875,-2.4375
12:54:01.552,4.5625,-4.0625
12:54:01.555,4.875,-4.1875
12:54:01.557,4.3125,-5.6875
12:54:01.563,4.625,-4.6875
12:54:01.590,6.25,-1.0625
12:54:01.594,8.25,4.8125
12:54:01.595,11.4375,14.9376
12:54:01.637,15.1251,25.0001
12:54:01.638,18.6251,36.5001
12:54:01.641,22.0626,47.1252
12:54:01.646,24.8751,56.7502
12:54:01.647,28.9376,65.6253
12:54:01.654,30.8126,72.8753
12:54:01.663,32.8751,79.9378
12:54:01.674,34.9376,85.0003
12:54:01.683,35.8126,89.9378
12:54:01.698,37.1251,94.3129
12:54:01.703,39.2502,98.0004
12:54:01.713,40.6252,101.7504
12:54:01.732,41.0002,104.1254
12:54:01.738,41.5627,106.6879
12:54:01.754,41.9377,106.6879
12:54:01.756,41.8127,109.0629
12:54:01.766,41.6252,111.4379
12:54:01.776,41.9377,112.3754
12:54:01.784,42.0627,112.6254
12:54:01.793,41.5627,111.6254
12:54:01.803,40.1252,108.9379
12:54:01.813,38.5001,107.0629
12:54:01.823,37.1876,104.8754
12:54:01.833,35.8751,100.5004
12:54:01.843,33.3751,96.0004
12:54:01.856,30.3751,92.0629
12:54:01.863,27.0626,86.2503
12:54:01.873,23.5001,79.9378
12:54:01.883,19.7501,75.1253
12:54:01.893,15.6876,67.5003
12:54:01.904,6.6875,58.4377
12:54:01.923,-6.25,43.5627
12:54:01.925,-18.4376,27.8126
12:54:01.959,-28.9376,14.3751
12:54:01.962,-36.7501,4.375
12:54:01.977,-42.7502,-3.4375
12:54:01.977,-46.3127,-9.0625
12:54:01.978,-48.1252,-14.5626
12:54:01.986,-49.7502,-21.1876
12:54:01.993,-50.5627,-29.1251
12:54:02.006,-54.0627,-40.9377
12:54:02.013,-59.6252,-55.1252
12:54:02.025,-61.5002,-67.5003
12:54:02.034,-63.1252,-76.8753
12:54:02.043,-62.0002,-84.6878
12:54:02.055,-59.9377,-89.8753
12:54:02.063,-56.5627,-90.8129
12:54:02.077,-51.0002,-88.9378
12:54:02.083,-42.4377,-81.5003
12:54:02.093,-28.5001,-69.4378
12:54:02.105,-13.3126,-50.9377
12:54:02.113,1.875,-30.1876
12:54:02.123,12.25,-17.5001
12:54:02.133,19.5001,-5.875
12:54:02.143,26.8126,2.8125
12:54:02.153,39.8752,17.2501
12:54:02.163,54.3127,35.0001
12:54:02.173,67.6253,52.5627
12:54:02.185,72.8753,61.0627
12:54:02.193,72.0003,58.1877
12:54:02.203,66.1878,53.7502
12:54:02.213,59.1877,44.5627
12:54:02.228,53.3127,36.9376
12:54:02.233,46.6877,28.6876
12:54:02.268,42.8127,22.0001
12:54:02.270,40.3752,18.7501
12:54:02.273,38.8126,14.7501
12:54:02.277,37.1876,13.6251
12:54:02.307,35.3126,9
12:54:02.311,33.8751,6.875
12:54:02.312,31.2501,2.5625
12:54:02.314,29.3126,-0.375
12:54:02.347,27.1251,-3.25
12:54:02.349,24.6876,-6.5625
12:54:02.352,23.4376,-9
12:54:02.354,21.0626,-10.625
12:54:02.387,21.5001,-10.0625
12:54:02.389,22.1251,-6.3125
12:54:02.392,23.3751,0.75
12:54:02.395,27.0626,9.0625
12:54:02.403,31.1876,20.6251
12:54:02.413,35.1251,33.3126
12:54:02.424,40.3752,46.3127
12:54:02.434,45.4377,58.3127
12:54:02.448,46.5002,67.0628
12:54:02.453,49.4377,74.0628
12:54:02.463,52.5627,86.4378
12:54:02.479,57.3127,95.9379
12:54:02.488,55.6252,102.6879
12:54:02.498,49.1877,99.8129
12:54:02.508,39.4377,93.5629
12:54:02.518,28.3751,83.8753
12:54:02.528,23.4376,79.3753
12:54:02.539,20.0626,78.5628
12:54:02.548,21.4376,81.6878
12:54:02.558,23.4376,87.0628
12:54:02.568,29.9376,97.3754
12:54:02.578,35.5626,107.2504
12:54:02.588,40.3127,109.8129
12:54:02.598,42.0002,108.5629
12:54:02.608,35.0626,98.1254
12:54:02.618,26.2501,85.0628
12:54:02.628,19.4376,73.4378
12:54:02.639,13.5001,62.3127
12:54:02.648,10.0625,55.8752
12:54:02.658,7.5625,48.0002
12:54:02.669,4.375,45.0627
12:54:02.678,4.625,41.0627
12:54:02.689,5.5,41.9377
12:54:02.698,10.0625,44.0002
12:54:02.708,16.8126,52.5002
12:54:02.718,25.8126,63.8127
12:54:02.728,32.1876,73.9378
12:54:02.739,37.0626,81.0628
12:54:02.748,38.6251,82.9378
12:54:02.758,42.0002,86.0628
12:54:02.768,49.1252,93.5629
12:54:02.778,55.6252,99.9379
12:54:02.790,62.1877,105.0004
12:54:02.798,63.8752,106.0004
12:54:02.808,61.6877,102.1879
12:54:02.824,58.5002,95.6254
12:54:02.828,54.5002,90.6879
12:54:02.841,52.1877,83.6253
12:54:02.848,47.6877,78.5003
12:54:02.858,43.6877,69.4378
12:54:02.868,38.8751,63.3127
12:54:02.878,38.0001,57.8752
