timestamp,Red,IR
12:33:26.940,10.3125,5.1875
12:33:26.944,10.8125,6.0625
12:33:26.946,10,4.75
12:33:26.947,9.0625,4.8125
12:33:26.949,9.4375,3.9375
12:33:26.956,8.4375,2.4375
12:33:26.967,7.625,0.8125
12:33:26.978,6.5,-0.1875
12:33:26.988,5.75,-1.25
12:33:26.996,5.5,-1.75
12:33:27.008,4.3125,-3.4375
12:33:27.018,3.4375,-5.375
12:33:27.028,2.4375,-6.75
12:33:27.040,1.25,-6.875
12:33:27.048,-0.0625,-8.5
12:33:27.058,-0.1875,-10.3125
12:33:27.067,-2,-12.5625
12:33:27.090,-2.875,-14.0626
12:33:27.093,-4.125,-14.6251
12:33:27.098,-4.4375,-15.2501
12:33:27.136,-4.875,-16.2501
12:33:27.139,-5.4375,-17.8126
12:33:27.141,-5.6875,-17.8751
12:33:27.146,-5.75,-18.3126
12:33:27.150,-6.0625,-19.3751
12:33:27.183,-6.375,-20.6251
12:33:27.184,-6.6875,-21.1251
12:33:27.187,-7.25,-22.1876
12:33:27.216,-7.375,-22.1876
12:33:27.218,-7.6875,-22.5626
12:33:27.218,-7.625,-22.6876
12:33:27.224,-8.5,-24.1251
12:33:27.230,-8.8125,-24.3751
12:33:27.237,-8.8125,-25.2501
12:33:27.259,-10.25,-26.3751
12:33:27.262,-10.8125,-27.3751
12:33:27.268,-11.1875,-28.1876
12:33:27.277,-12.25,-28.9376
12:33:27.287,-11.625,-30.6876
12:33:27.297,-13.2501,-30.8751
12:33:27.307,-12.625,-31.6876
12:33:27.317,-13.3126,-31.8751
12:33:27.332,-13.1876,-32.7501
12:33:27.341,-14.0626,-32.5626
12:33:27.347,-14.2501,-32.9376
12:33:27.364,-14.5001,-34.6251
12:33:27.380,-14.1876,-34.5001
12:33:27.382,-14.6876,-35.5626
12:33:27.388,-14.5001,-36.5626
12:33:27.397,-14.5626,-37.2501
12:33:27.407,-14.4376,-36.0626
12:33:27.418,-14.9376,-37.4376
12:33:27.427,-12.8125,-34.1876
12:33:27.437,-8.5625,-29.9376
12:33:27.447,-2.6875,-21.3126
12:33:27.456,3.75,-12
12:33:27.467,10.25,-2.375
12:33:27.478,15.8126,6.3125
12:33:27.487,19.9376,13.5626
12:33:27.498,23.8126,19.9376
12:33:27.507,26.1876,23.5001
12:33:27.518,27.1251,26.3751
12:33:27.527,28.0001,27.0001
12:33:27.537,28.0001,26.6876
12:33:27.547,28.2501,28.0626
12:33:27.558,27.6251,27.0001
12:33:27.567,27.5001,26.8751
12:33:27.577,26.7501,26.3751
12:33:27.587,27.1251,26.2501
12:33:27.598,26.4376,26.3126
12:33:27.606,26.6251,26.3751
12:33:27.617,25.7501,26.0001
12:33:27.628,25.9376,25.5001
12:33:27.637,26.3126,25.3126
12:33:27.647,25.3126,25.3126
12:33:27.658,24.6251,24.3126
12:33:27.667,24.5001,22.4376
12:33:27.677,22.8126,20.8126
12:33:27.687,21.3751,19.2501
12:33:27.697,20.6251,16.7501
12:33:27.707,18.3126,14.6251
12:33:27.717,16.5626,13.6251
12:33:27.729,16.4376,11.375
12:33:27.738,14.5001,10.0625
12:33:27.747,13.5626,9.4375
12:33:27.760,14.3126,8.8125
12:33:27.768,12.3125,8.125
12:33:27.777,11.625,7.6875
12:33:27.786,11.625,8.1875
12:33:27.799,12.1875,7.1875
12:33:27.807,10.6875,6.1875
12:33:27.818,10,6.625
12:33:27.827,10.0625,5.25
12:33:27.837,9.5625,3.625
12:33:27.865,8.8125,3.8125
12:33:27.869,8.4375,2.625
12:33:27.872,8.8125,1.25
12:33:27.879,8,0.75
12:33:27.906,7.9375,0.3125
12:33:27.908,7.625,-0.5625
12:33:27.911,6.625,-1.75
12:33:27.920,6,-2.1875
12:33:27.947,5,-3.75
12:33:27.949,4.0625,-5.75
12:33:27.954,3,-6.4375
12:33:27.961,2.0625,-7.9375
12:33:27.969,1.125,-9.625
12:33:27.998,-0.125,-11.0625
12:33:28.002,-0.3125,-11.6875
12:33:28.003,-2.1875,-14.3751
12:33:28.011,-3.5625,-15.3126
12:33:28.045,-5.0625,-16.5001
12:33:28.046,-5.5625,-17.8751
12:33:28.048,-6.3125,-19.8126
12:33:28.057,-7.0625,-20.3126
12:33:28.060,-7.4375,-19.9376
12:33:28.067,-7.6875,-21.2501
12:33:28.077,-7.625,-23.0001
12:33:28.088,-7.875,-23.0001
12:33:28.097,-7,-23.5626
12:33:28.112,-7.8125,-23.9376
12:33:28.117,-7.75,-23.5626
12:33:28.129,-7.9375,-24.4376
12:33:28.137,-8.4375,-24.1876
12:33:28.147,-8.0625,-25.6876
12:33:28.157,-9.125,-25.1876
12:33:28.167,-8.8125,-26.8751
12:33:28.176,-10,-27.5001
12:33:28.187,-11.5625,-29.1876
12:33:28.209,-12.1875,-31.1251
12:33:28.211,-13.3751,-31.9376
12:33:28.221,-13.3751,-32.6251
12:33:28.227,-13.5001,-33.0001
12:33:28.242,-12.6875,-33.4376
12:33:28.250,-12.6875,-33.9376
12:33:28.257,-13.7501,-35.0001
12:33:28.268,-14.0001,-35.6251
12:33:28.277,-13.6876,-35.5626
12:33:28.289,-12.625,-33.6251
12:33:28.297,-7.9375,-29.2501
12:33:28.307,-2.4375,-20.1876
12:33:28.317,5.75,-9.25
12:33:28.328,12.6875,1.625
12:33:28.337,19.8126,11.125
12:33:28.347,25.5626,20.8126
12:33:28.358,30.1876,27.8126
12:33:28.367,32.6251,32.1251
12:33:28.376,33.3751,36.6251
12:33:28.388,34.9376,38.2501
12:33:28.397,34.6251,40.5002
12:33:28.408,35.4376,40.3752
12:33:28.416,35.2501,41.8127
12:33:28.427,36.0626,42.3127
12:33:28.436,36.0626,43.6252
12:33:28.448,36.5001,43.3127
12:33:28.457,36.3751,44.4377
12:33:28.467,37.1876,44.3127
12:33:28.478,36.5626,45.0627
12:33:28.491,37.0626,45.9377
12:33:28.497,36.6876,45.5002
12:33:28.507,36.1876,45.4377
12:33:28.517,36.9376,45.3752
12:33:28.527,36.3126,44.7502
12:33:28.537,34.6251,44.6877
12:33:28.568,33.8126,42.1252
12:33:28.570,32.1876,39.6252
12:33:28.573,30.5001,38.1876
12:33:28.579,30.0001,35.7501
12:33:28.612,27.6251,33.1251
12:33:28.616,26.0001,31.5626
12:33:28.617,24.6251,30.3126
12:33:28.621,24.0001,28.8751
12:33:28.722,23.5626,28.1251
12:33:28.724,23.1251,28.6876
12:33:28.737,23.8126,27.8751
12:33:28.742,23.5626,27.5626
12:33:28.742,24.3126,27.7501
12:33:28.742,25.0626,27.6251
12:33:28.749,24.5626,26.9376
12:33:28.758,23.6876,25.5001
12:33:28.766,23.5001,26.0001
12:33:28.777,22.2501,24.1251
12:33:28.787,21.6251,22.6876
12:33:28.799,20.5626,22.2501
12:33:28.808,20.3751,20.6876
12:33:28.817,19.6876,19.8751
12:33:28.826,19.1251,18.3751
12:33:28.838,18.0626,17.9376
12:33:28.847,17.8751,15.7501
12:33:28.857,17.0626,13.7501
12:33:28.875,16.5001,12.8125
12:33:28.876,16.0001,11.875
12:33:28.888,14.5626,9.875
12:33:28.897,13.4376,8.1875
12:33:28.907,8.3125,-0.625
12:33:28.918,6.5625,-3
12:33:28.927,6,-3.125
12:33:28.939,5.625,-5.25
12:33:28.950,4.5625,-6.125
12:33:28.957,3.4375,-6.3125
12:33:28.967,3.125,-7.9375
12:33:28.979,2.0625,-9.8125
12:33:28.987,0.75,-10.75
12:33:28.998,0.3125,-12.4375
12:33:29.008,-0.75,-14.1876
12:33:29.017,-2.5625,-14.0626
12:33:29.028,-2.375,-15.8126
12:33:29.037,-3.375,-17.8751
12:33:29.048,-4.0625,-17.7501
12:33:29.057,-4.8125,-19.6251
12:33:29.067,-6.3125,-20.2501
12:33:29.076,-7.5,-22.1251
12:33:29.088,-8.4375,-24.3126
12:33:29.097,-10.0625,-25.2501
12:33:29.107,-10.4375,-26.2501
12:33:29.118,-12.375,-28.5001
12:33:29.127,-13.6876,-30.0626
12:33:29.137,-14.3126,-31.2501
12:33:29.148,-14.5001,-32.6251
12:33:29.157,-15.9376,-32.3751
12:33:29.167,-16.3751,-34.4376
12:33:29.177,-17.1876,-35.6876
12:33:29.188,-17.1876,-36.3751
12:33:29.197,-18.2501,-36.8126
12:33:29.208,-18.3126,-37.3751
12:33:29.216,-18.3126,-38.5626
12:33:29.227,-17.9376,-37.7501
12:33:29.238,-18.7501,-39.8127
12:33:29.247,-19.0001,-39.9377
12:33:29.257,-19.8751,-41.8752
12:33:29.266,-20.7501,-42.2502
12:33:29.278,-18.9376,-41.3752
12:33:29.287,-16.6251,-37.0001
12:33:29.328,-9.875,-29.0001
12:33:29.329,-2.75,-18.0001
12:33:29.333,5.375,-5.8125
12:33:29.335,12.3125,5.375
12:33:29.339,18.5626,14.8126
12:33:29.368,23.8126,23.1876
12:33:29.371,27.3751,30.1251
12:33:29.373,29.9376,34.3751
12:33:29.380,31.5001,36.8751
12:33:29.397,33.3126,40.0002
12:33:29.400,33.5626,41.0627
12:33:29.437,34.6251,42.0627
12:33:29.438,34.5626,42.8127
12:33:29.440,35.4376,43.5002
12:33:29.448,35.6876,44.3752
12:33:29.449,35.9376,44.5627
12:33:29.464,36.8751,45.3752
12:33:29.470,35.9376,44.7502
12:33:29.485,35.9376,45.8752
12:33:29.488,36.2501,44.7502
12:33:29.497,36.5001,44.8752
12:33:29.507,35.1876,45.0002
12:33:29.525,34.6876,43.0002
12:33:29.528,33.0626,41.3752
12:33:29.543,31.6251,40.3127
12:33:29.559,29.8751,37.1876
12:33:29.562,28.1251,34.3751
12:33:29.578,26.3751,32.8126
12:33:29.583,24.3751,30.8751
12:33:29.589,23.8751,29.0001
12:33:29.596,23.1251,27.0626
12:33:29.607,21.5001,26.6876
12:33:29.623,21.0626,25.6876
12:33:29.628,21.0626,24.8751
12:33:29.638,21.0001,23.6251
12:33:29.649,20.1876,24.0626
12:33:29.658,20.4376,23.7501
12:33:29.667,19.8751,22.5001
12:33:29.677,19.3126,21.1251
12:33:29.686,17.6876,20.0626
12:33:29.696,16.6876,19.1876
12:33:29.707,15.6876,17.2501
12:33:29.717,14.5626,15.4376
12:33:29.727,13.4376,13.3126
12:33:29.739,12.125,11.5
12:33:29.747,10.8125,11.4375
12:33:29.757,10.6875,8.8125
12:33:29.767,8.8125,7.125
12:33:29.777,7.25,5.25
12:33:29.787,6.9375,3.625
12:33:29.797,4.6875,1.125
12:33:29.806,3.3125,-0.375
12:33:29.817,1.8125,-1.4375
12:33:29.827,1.3125,-3.8125
12:33:29.837,-0.5625,-6.125
12:33:29.847,-2.1875,-7.8125
12:33:29.858,-4.0625,-9.5625
12:33:29.867,-4.25,-11.5
12:33:29.877,-6.375,-13.6876
12:33:29.887,-7.75,-14.7501
12:33:29.897,-9.125,-16.4376
12:33:29.906,-10,-18.9376
12:33:29.917,-11.625,-20.7501
12:33:29.928,-12.875,-21.6251
12:33:29.937,-13.2501,-22.3126
12:33:29.948,-13.8751,-24.0001
12:33:29.957,-14.7501,-26.0626
12:33:29.968,-16.0001,-26.9376
12:33:29.977,-16.0001,-27.8126
12:33:29.988,-17.2501,-28.4376
12:33:30.003,-17.1876,-29.6876
12:33:30.021,-18.7501,-31.8751
12:33:30.025,-19.8751,-33.0626
12:33:30.036,-20.6876,-33.9376
12:33:30.053,-21.6876,-35.5626
12:33:30.054,-22.6251,-36.8751
12:33:30.057,-23.1876,-38.2501
12:33:30.067,-24.4376,-39.1251
12:33:30.076,-26.4376,-41.6877
12:33:30.097,-27.0001,-41.8127
12:33:30.099,-27.7501,-44.0002
12:33:30.112,-28.5001,-44.0002
12:33:30.117,-29.1876,-46.0627
12:33:30.151,-29.6251,-45.7502
12:33:30.152,-29.5001,-47.0627
12:33:30.154,-29.5001,-47.3127
12:33:30.161,-29.3751,-48.1877
12:33:30.189,-29.3751,-48.1877
12:33:30.191,-29.5001,-47.1252
12:33:30.193,-29.0626,-49.1877
12:33:30.223,-29.4376,-50.0002
12:33:30.225,-28.9376,-49.4377
12:33:30.225,-29.5626,-50.6252
12:33:30.233,-29.8126,-51.5002
12:33:30.241,-30.7501,-52.1252
12:33:30.266,-30.5001,-53.6877
12:33:30.268,-29.6251,-51.6877
12:33:30.271,-26.5001,-48.0627
12:33:30.278,-19.5001,-39.0627
12:33:30.286,-12.4375,-27.7501
12:33:30.296,-4.875,-17.2501
12:33:30.308,1.8125,-6.4375
12:33:30.317,7.4375,0.9375
12:33:30.327,11.9375,9.25
12:33:30.337,14.8751,13.0625
12:33:30.348,16.6251,17.1251
12:33:30.357,17.6876,17.9376
12:33:30.373,17.1876,19.5626
12:33:30.379,17.1876,18.6251
12:33:30.387,16.8126,17.5001
12:33:30.397,15.7501,17.1876
12:33:30.407,15.9376,16.7501
12:33:30.417,15.1876,16.4376
12:33:30.428,14.3751,15.0626
12:33:30.437,13.3126,13.7501
12:33:30.448,12.6875,12.75
12:33:30.457,11,12
12:33:30.467,9.6875,9.8125
12:33:30.478,8.375,7.8125
12:33:30.487,7.375,7.4375
12:33:30.498,7,5.5625
12:33:30.508,4.8125,3.0625
12:33:30.517,2.75,0.5625
12:33:30.526,1.375,-0.75
12:33:30.537,0.25,-2.875
12:33:30.547,-1.25,-5.125
12:33:30.557,-2.375,-7.6875
12:33:30.567,-3.25,-7.0625
12:33:30.577,-3.25,-8.1875
12:33:30.603,-3.9375,-9.125
12:33:30.606,-3.875,-7.5625
12:33:30.609,-3.5,-8.6875
12:33:30.618,-3.75,-9
12:33:30.627,-3.6875,-8.9375
12:33:30.637,-3.125,-9.0625
12:33:30.649,-5.125,-10.9375
12:33:30.657,-6.0625,-10.8125
12:33:30.668,-6.625,-12.875
12:33:30.678,-7.5625,-14.1876
12:33:30.687,-8.375,-15.1251
12:33:30.697,-8.75,-16.6251
12:33:30.708,-10.8125,-18.5001
12:33:30.718,-11.125,-19.8751
12:33:30.729,-11.9375,-20.3751
12:33:30.737,-13.0625,-22.3126
12:33:30.748,-13.5001,-23.1876
12:33:30.757,-14.1251,-24.8751
12:33:30.767,-14.7501,-26.1251
12:33:30.777,-15.8751,-27.3751
12:33:30.807,-16.3126,-27.5626
12:33:30.808,-17.0001,-29.4376
12:33:30.811,-17.1251,-29.0626
12:33:30.817,-17.6251,-30.6876
12:33:30.842,-17.9376,-31.3751
12:33:30.877,-18.1876,-32.1251
12:33:30.878,-18.5626,-32.7501
12:33:30.972,-18.5626,-33.0001
12:33:30.974,-19.3126,-34.1251
12:33:30.974,-19.0001,-35.9376
12:33:30.974,-19.6251,-35.3126
12:33:30.975,-19.9376,-37.1876
12:33:30.977,-20.1251,-37.0001
12:33:30.986,-21.0001,-38.4376
12:33:30.986,-21.1876,-38.3751
12:33:30.986,-21.9376,-40.4377
12:33:30.993,-23.1251,-40.6877
12:33:31.002,-23.9376,-42.8752
12:33:31.012,-25.1251,-43.5002
12:33:31.022,-25.5001,-44.6877
12:33:31.032,-26.3126,-45.4377
12:33:31.042,-26.6876,-46.1877
12:33:31.051,-28.0626,-46.7502
12:33:31.062,-28.5001,-47.3127
12:33:31.072,-27.7501,-47.6877
12:33:31.081,-27.9376,-48.5627
12:33:31.091,-27.9376,-49.3127
12:33:31.102,-28.8751,-51.5002
12:33:31.111,-29.6251,-52.6252
12:33:31.124,-30.0626,-53.1877
12:33:31.132,-28.8751,-52.5002
12:33:31.142,-26.3126,-48.8752
12:33:31.151,-7.4375,-24.2501
12:33:31.162,-0.75,-14.5001
12:33:31.172,3.6875,-6
12:33:31.183,8.3125,0.4375
12:33:31.192,10.4375,5.75
12:33:31.202,12.5,8.875
12:33:31.213,12.8125,9.5
12:33:31.222,12.375,9.9375
12:33:31.232,11.9375,10.3125
12:33:31.244,12,9.875
12:33:31.251,11.5,9.5625
12:33:31.262,10.75,8.5625
12:33:31.272,10.5625,8.0625
12:33:31.282,10.25,8.375
12:33:31.292,9.4375,7.25
12:33:31.302,9.8125,7.25
12:33:31.320,8.6875,6.625
12:33:31.328,8.875,5.75
12:33:31.335,8.3125,5.3125
12:33:31.342,8.1875,4.6875
12:33:31.358,7.4375,3.5625
12:33:31.375,5.5,1.0625
12:33:31.375,4.25,0.1875
12:33:31.383,2.8125,-3.375
12:33:31.393,1.1875,-5
12:33:31.402,-0.75,-6.1875
12:33:31.415,-0.875,-8.9375
12:33:31.422,-2.3125,-10.75
12:33:31.431,-2.625,-10.125
12:33:31.442,-2.0625,-11
12:33:31.452,-3.8125,-12.25
12:33:31.462,-4.1875,-11.9375
12:33:31.472,-3.8125,-12.5625
12:33:31.503,-3.8125,-13.3126
12:33:31.505,-4,-12.75
12:33:31.509,-3.8125,-12.9375
12:33:31.514,-3.9375,-13.9376
12:33:31.549,-5.0625,-14.6876
12:33:31.550,-5.3125,-15.7501
12:33:31.552,-5.4375,-14.2501
12:33:31.558,-5.1875,-16.2501
12:33:31.568,-5.4375,-16.6251
12:33:31.573,-5.875,-17.6876
12:33:31.613,-6.6875,-17.9376
12:33:31.613,-7.1875,-19.8126
12:33:31.614,-8.75,-20.8126
12:33:31.621,-9.6875,-23.3126
12:33:31.625,-10.125,-23.6251
12:33:31.653,-11.375,-24.4376
12:33:31.655,-11.3125,-25.8126
12:33:31.658,-11.8125,-27.1251
12:33:31.662,-13.1876,-27.1251
12:33:31.674,-12.6875,-28.5001
12:33:31.682,-13.1251,-28.0001
12:33:31.694,-13.5626,-30.0626
12:33:31.702,-13.9376,-29.5626
12:33:31.712,-14.1876,-31.6251
12:33:31.721,-14.5001,-31.6251
12:33:31.733,-14.4376,-32.1876
12:33:31.742,-15.0001,-33.6876
12:33:31.752,-15.6876,-33.1876
12:33:31.762,-16.1876,-35.0626
12:33:31.771,-16.8751,-35.0626
12:33:31.781,-17.0001,-36.9376
12:33:31.792,-18.1876,-37.2501
12:33:31.803,-19.0626,-38.1251
12:33:31.813,-19.8751,-39.6252
12:33:31.821,-21.0626,-40.8752
12:33:31.832,-22.0626,-41.9377
12:33:31.841,-23.1251,-43.0627
12:33:31.852,-23.3751,-42.7502
12:33:31.882,-24.2501,-44.2502
12:33:31.884,-23.8751,-44.2502
12:33:31.888,-24.5001,-45.3752
12:33:31.892,-24.0626,-45.0002
12:33:31.903,-24.6876,-46.4377
12:33:31.912,-24.5001,-45.5627
12:33:31.927,-24.6251,-47.2502
12:33:31.937,-25.0626,-47.2502
12:33:31.947,-25.0001,-47.9377
12:33:31.957,-25.0626,-47.1252
12:33:31.966,-25.7501,-48.8752
12:33:31.977,-24.9376,-47.8127
12:33:31.987,-25.1876,-49.5002
12:33:31.996,-25.3751,-49.6252
12:33:32.007,-25.8126,-49.9377
12:33:32.016,-26.3126,-51.0002
12:33:32.027,-27.1251,-52.0627
12:33:32.037,-28.3126,-52.7502
12:33:32.049,-26.9376,-51.3752
12:33:32.057,-25.1251,-48.0627
12:33:32.068,-19.4376,-41.8127
12:33:32.078,-12.1875,-31.7501
12:33:32.087,-2.3125,-18.1876
12:33:32.096,6.375,-5.1875
12:33:32.107,12.625,3
12:33:32.117,17.3751,11.375
12:33:32.127,20.1876,17.0626
12:33:32.137,22.1251,18.6251
12:33:32.148,22.7501,21.7501
12:33:32.157,24.0001,21.3751
12:33:32.167,23.3751,23.1251
12:33:32.177,23.3751,21.8751
12:33:32.187,22.5626,22.1251
12:33:32.201,22.7501,20.4376
12:33:32.231,21.8751,20.5626
12:33:32.234,21.5626,19.6251
12:33:32.323,20.4376,20.2501
12:33:32.324,20.3126,18.2501
12:33:32.327,19.7501,18.3126
12:33:32.328,19.9376,17.3126
12:33:32.334,18.9376,16.2501
12:33:32.334,18.4376,16.1876
12:33:32.334,18.4376,14.6876
12:33:32.348,16.8751,13.1251
12:33:32.350,15.1251,11.75
12:33:32.377,14.0626,10.0625
12:33:32.380,12.4375,6.8125
12:33:32.383,11.3125,5.625
12:33:32.388,11.25,3.75
12:33:32.398,10.375,2.3125
12:33:32.407,9.375,1.625
12:33:32.417,9.0625,1.3125
12:33:32.428,9,0.6875
12:33:32.437,9.625,0.6875
12:33:32.447,9.375,0.5625
12:33:32.457,8.75,-0.125
12:33:32.468,8.4375,-0.6875
12:33:32.477,8.3125,-1.0625
12:33:32.487,7.375,-2.125
12:33:32.496,4.4375,-7.5
12:33:32.507,3.1875,-8.25
12:33:32.518,2.25,-9.9375
12:33:32.528,1.5,-10.4375
12:33:32.536,0.875,-11.9375
12:33:32.546,-0.25,-13
12:33:32.557,-0.8125,-13.8126
12:33:32.567,-1.5625,-16.1251
12:33:32.579,-2.125,-15.4376
12:33:32.588,-2.8125,-16.3126
12:33:32.598,-3.1875,-17.6876
12:33:32.607,-4,-18.7501
12:33:32.617,-4.375,-19.3126
12:33:32.626,-4.8125,-20.8126
12:33:32.643,-5.75,-21.5001
12:33:32.660,-5.25,-22.0001
12:33:32.661,-6.4375,-23.5626
12:33:32.676,-8,-23.0626
12:33:32.678,-8.3125,-25.5626
12:33:32.692,-9.5,-26.5001
12:33:32.698,-9.8125,-26.7501
12:33:32.709,-11.375,-28.9376
12:33:32.718,-12.9375,-29.8751
12:33:32.727,-13.8126,-31.2501
12:33:32.736,-14.1251,-31.8751
12:33:32.747,-14.6876,-33.1876
12:33:32.759,-15.3126,-32.9376
12:33:32.767,-15.8751,-34.4376
12:33:32.777,-17.0626,-34.6251
12:33:32.786,-17.1251,-36.1876
12:33:32.803,-17.3126,-35.9376
12:33:32.808,-17.9376,-36.8126
12:33:32.819,-18.4376,-37.1876
12:33:32.827,-19.0001,-37.6876
12:33:32.838,-19.3126,-38.8751
12:33:32.847,-19.8126,-39.3752
12:33:32.857,-19.7501,-39.3752
12:33:32.868,-19.6876,-40.2502
12:33:32.877,-20.7501,-40.9377
12:33:32.887,-21.5626,-41.0002
12:33:32.898,-21.5001,-42.5627
12:33:32.907,-22.1876,-42.4377
12:33:32.917,-22.8126,-43.5627
12:33:32.941,-23.0626,-43.4377
12:33:32.942,-23.1876,-45.4377
12:33:32.968,-24.3751,-44.6252
12:33:32.969,-23.5626,-46.0627
12:33:32.973,-23.8751,-45.8127
12:33:32.981,-24.1251,-47.1252
12:33:33.011,-25.1876,-46.5002
12:33:33.013,-25.5001,-48.8127
12:33:33.016,-26.0626,-48.5002
12:33:33.024,-25.1251,-47.6877
12:33:33.028,-22.1251,-42.0002
12:33:33.059,-15.8126,-34.7501
12:33:33.061,-9.25,-23.9376
12:33:33.063,-2,-14.0626
12:33:33.069,4.1875,-5.25
12:33:33.097,9.625,4.625
12:33:33.098,14.3126,10.3125
12:33:33.101,16.7501,15.6876
12:33:33.108,19.5001,18.6876
12:33:33.120,19.1876,20.3126
12:33:33.127,18.3126,20.8126
12:33:33.137,18.0001,19.2501
12:33:33.162,16.5626,19.1251
12:33:33.164,16.6251,18.0001
12:33:33.168,15.5001,17.4376
12:33:33.183,15.8751,17.0626
12:33:33.188,15.1876,15.8751
12:33:33.197,14.6876,16.3126
12:33:33.207,14.5626,15.3751
12:33:33.217,13.6251,14.9376
12:33:33.227,13.0625,13.5001
12:33:33.237,11.8125,12.75
12:33:33.247,11.0625,12.9375
12:33:33.257,11.0625,10.75
12:33:33.267,10.375,8.8125
12:33:33.278,8.75,7.1875
12:33:33.288,8.1875,5.5625
12:33:33.297,6.25,2.6875
12:33:33.306,5.25,2.3125
12:33:33.317,4.5625,0.4375
12:33:33.327,3.3125,-0.625
12:33:33.336,2.5,-0.5
12:33:33.350,2.25,-0.9375
12:33:33.357,2.8125,-1.5
12:33:33.368,2.9375,-2.1875
12:33:33.377,2.375,-0.8125
12:33:33.387,3.0625,-1.375
12:33:33.397,1.875,-2.4375
12:33:33.407,1.3125,-2.8125
12:33:33.417,1.0625,-3.1875
12:33:33.427,0.6875,-4.1875
12:33:33.437,-0.4375,-4.75
12:33:33.447,-0.9375,-5.3125
12:33:33.457,-0.875,-6.75
12:33:33.469,-1.3125,-7.25
12:33:33.477,-1.8125,-7.3125
12:33:33.487,-1.875,-8.3125
12:33:33.497,-3,-9.3125
12:33:33.508,-3.4375,-10.75
12:33:33.517,-4.1875,-12.75
12:33:33.528,-5.25,-12.625
12:33:33.538,-4.6875,-14.0001
12:33:33.547,-5.5625,-13.8751
12:33:33.564,-5,-15.6251
12:33:33.579,-5.5625,-15.9376
12:33:33.582,-5.8125,-15.3751
12:33:33.591,-6.9375,-17.6876
12:33:33.598,-6.9375,-18.1876
12:33:33.614,-7.125,-18.6251
12:33:33.629,-7.75,-19.7501
12:33:33.632,-8.1875,-20.2501
12:33:33.638,-8.875,-21.6876
12:33:33.648,-9.9375,-22.8126
12:33:33.658,-10.5625,-23.2501
12:33:33.667,-11.5,-24.3751
12:33:33.690,-12.6875,-24.6876
12:33:33.693,-14.0001,-26.8751
12:33:33.719,-14.8126,-27.6251
12:33:33.723,-15.3126,-28.0001
12:33:33.724,-14.8751,-28.5626
12:33:33.727,-15.3126,-28.8751
12:33:33.764,-15.7501,-28.9376
12:33:33.768,-16.0626,-30.0626
12:33:33.768,-16.9376,-30.5001
12:33:33.770,-17.9376,-31.8126
12:33:33.778,-18.3751,-31.3126
12:33:33.806,-18.1251,-33.3751
12:33:33.807,-18.7501,-33.5626
12:33:33.809,-19.6251,-34.8126
12:33:33.817,-19.8751,-34.6876
12:33:33.846,-20.6876,-35.1876
12:33:33.848,-20.8126,-36.8751
12:33:33.851,-20.8751,-35.5626
12:33:33.860,-19.3751,-34.2501
12:33:33.869,-15.0001,-28.7501
12:33:33.879,-9.125,-20.1876
12:33:33.887,-3.5625,-11.375
12:33:33.897,2.6875,-2.1875
12:33:33.909,8.0625,6.1875
12:33:33.917,13,12.8125
12:33:33.927,16.0001,19.4376
12:33:33.941,18.5626,22.0626
12:33:33.947,19.3126,24.1876
12:33:33.963,19.2501,25.1251
12:33:33.971,20.0001,26.3751
12:33:33.977,18.5626,26.4376
12:33:33.993,18.0626,27.0626
12:33:34.009,17.9376,25.4376
12:33:34.012,17.0001,25.6251
12:33:34.018,17.0001,24.8126
12:33:34.027,16.9376,25.5626
12:33:34.037,16.5626,23.9376
12:33:34.047,16.1876,24.3126
12:33:34.057,16.6876,23.3751
12:33:34.067,15.5626,24.1876
12:33:34.077,14.8751,22.8126
12:33:34.087,14.4376,21.0001
12:33:34.099,12.375,19.8126
12:33:34.107,11.8125,17.5001
12:33:34.116,10.1875,15.3126
12:33:34.127,8.375,12.9375
12:33:34.138,6.9375,12.875
12:33:34.147,6.5625,10.8125
12:33:34.156,5.9375,9.875
12:33:34.167,5.5625,8.4375
12:33:34.177,4.625,9.125
12:33:34.187,5.4375,8.625
12:33:34.198,5,8
12:33:34.207,4.5,8.125
12:33:34.217,4.5,8.9375
12:33:34.227,5.1875,7.875
12:33:34.237,4.1875,7.6875
12:33:34.247,4.8125,7.4375
12:33:34.256,3.75,5.9375
12:33:34.268,2.4375,5.5625
12:33:34.277,1.125,5.25
12:33:34.287,0.4375,3.5625
12:33:34.298,0.1875,2.1875
12:33:34.306,-0.25,0.6875
12:33:34.319,-1.0625,-0.125
12:33:34.327,-2.25,-1.75
12:33:34.337,-3.25,-2.0625
12:33:34.347,-3.6875,-3.25
12:33:34.358,-4.5,-5.1875
12:33:34.367,-6,-5.25
12:33:34.378,-6.25,-6.875
12:33:34.388,-6.9375,-8.375
12:33:34.419,-7.625,-9.375
12:33:34.421,-8.75,-9.625
12:33:34.423,-8.4375,-11.75
12:33:34.450,-9.5625,-11.5
12:33:34.450,-10.6875,-13.6876
12:33:34.452,-11.8125,-15.5001
12:33:34.483,-12.625,-15.8751
12:33:34.485,-13.3126,-17.5001
12:33:34.487,-13.6251,-17.7501
12:33:34.489,-14.0626,-18.6876
12:33:34.519,-14.1876,-19.1251
12:33:34.521,-14.9376,-19.8751
12:33:34.521,-15.6876,-20.2501
12:33:34.529,-17.0626,-21.8126
12:33:34.556,-17.3751,-22.4376
12:33:34.559,-17.9376,-24.0001
12:33:34.559,-19.1251,-24.5626
12:33:34.569,-19.6251,-26.4376
12:33:34.578,-20.0626,-26.2501
12:33:34.587,-20.5001,-27.8126
12:33:34.598,-20.9376,-27.0626
12:33:34.607,-21.4376,-29.3751
12:33:34.617,-21.7501,-29.5626
12:33:34.627,-21.6251,-28.2501
12:33:34.637,-19.6876,-26.1876
12:33:34.648,-15.1251,-20.7501
12:33:34.657,-8.125,-11.375
12:33:34.669,-1.5625,-1.5
12:33:34.677,4.6875,6.5
12:33:34.693,9.875,15.5001
12:33:34.696,15.4376,22.5626
12:33:34.707,18.3751,29.4376
12:33:34.717,20.8751,31.9376
12:33:34.727,22.5001,35.7501
12:33:34.738,24.6876,38.1876
12:33:34.747,25.6251,40.7502
12:33:34.756,26.8751,41.5002
12:33:34.767,28.5001,43.3752
12:33:34.777,30.4376,44.3752
12:33:34.787,30.4376,46.0627
12:33:34.796,31.3751,46.0627
12:33:34.806,31.5001,46.6877
12:33:34.817,31.6251,47.3752
12:33:34.827,31.6876,47.1877
12:33:34.837,31.0626,46.3752
12:33:34.847,31.0626,46.0002
12:33:34.857,32.3126,47.3752
12:33:34.867,31.6876,46.1252
12:33:34.879,30.9376,45.2502
12:33:34.895,29.2501,43.1877
12:33:34.897,28.1251,41.3752
12:33:34.911,26.4376,38.4376
12:33:34.919,24.4376,37.3126
12:33:34.935,24.1251,35.8126
12:33:34.937,22.0001,33.3751
12:33:34.952,21.9376,33.1876
12:33:34.959,22.3751,34.0626
12:33:34.967,23.3126,33.9376
12:33:34.977,22.5626,32.9376
12:33:34.988,21.8126,34.3751
12:33:34.997,22.3126,33.1876
12:33:35.012,22.3126,32.6251
12:33:35.022,20.8751,32.0001
12:33:35.032,20.3751,31.5626
12:33:35.042,20.3126,30.3751
12:33:35.052,20.6251,29.6251
12:33:35.067,20.1251,28.2501
12:33:35.072,19.0626,27.3126
12:33:35.081,18.4376,27.2501
12:33:35.092,17.9376,25.5001
12:33:35.102,17.1251,24.3126
12:33:35.111,16.4376,22.7501
12:33:35.122,15.2501,21.1876
12:33:35.132,15.1876,20.8751
12:33:35.142,14.2501,20.0626
12:33:35.152,14.1251,19.0626
12:33:35.162,13.6251,17.5001
12:33:35.196,12.1875,16.1251
12:33:35.197,10.875,14.6876
12:33:35.199,10.25,13.125
12:33:35.202,8.5,11.125
12:33:35.245,8.5625,10.375
12:33:35.247,6.875,8.6875
12:33:35.247,5.6875,7.875
12:33:35.249,5.8125,6.375
12:33:35.257,4.875,5.25
12:33:35.262,3.875,4.5
12:33:35.298,3.6875,2.625
12:33:35.301,1.6875,1
12:33:35.303,1.1875,-1.0625
12:33:35.304,0.1875,-0.0625
12:33:35.332,1.1875,-1.4375
12:33:35.334,0.1875,-2.25
12:33:35.337,-0.375,-2.25
12:33:35.344,-0.4375,-3.625
12:33:35.353,-0.75,-4.3125
12:33:35.362,-1.9375,-6
12:33:35.372,-2.0625,-6.75
12:33:35.383,-2.6875,-8.125
12:33:35.393,-3.3125,-9.5625
12:33:35.402,-4.375,-10.375
12:33:35.411,-3.875,-9.9375
12:33:35.421,-1.0625,-8.3125
12:33:35.431,2.25,-4.875
12:33:35.444,7.1875,2.4375
12:33:35.453,13.5001,13.0625
12:33:35.462,19.7501,22.2501
12:33:35.473,25.5001,31.0626
12:33:35.482,31.1876,39.6877
12:33:35.492,35.4376,46.4377
12:33:35.501,38.8751,52.3752
12:33:35.511,41.6877,56.2502
12:33:35.522,43.6877,60.5002
12:33:35.532,45.8127,62.8752
12:33:35.542,47.1252,66.0003
12:33:35.552,47.8752,66.8128
12:33:35.562,48.8752,69.0003
12:33:35.572,48.8127,69.5628
12:33:35.582,49.5002,70.3753
12:33:35.592,50.0627,71.1253
12:33:35.601,49.9377,71.5628
12:33:35.612,50.2502,73.4378
12:33:35.623,50.1877,73.1253
12:33:35.632,50.6877,73.0628
12:33:35.642,49.8127,72.2503
12:33:35.651,49.8752,72.9378
12:33:35.662,49.3127,71.8128
12:33:35.672,47.9377,70.0003
12:33:35.683,46.3127,67.3753
12:33:35.691,45.4377,65.3752
12:33:35.723,43.3752,63.2502
12:33:35.725,41.5002,61.7502
12:33:35.727,40.8127,58.7502
12:33:35.733,39.6252,57.1252
12:33:35.741,38.8751,56.1877
12:33:35.751,39.4377,56.3127
12:33:35.762,39.1876,56.3752
12:33:35.772,40.1877,56.3127
12:33:35.782,40.6252,56.6877
12:33:35.792,40.9377,57.0627
12:33:35.804,40.6252,55.9377
12:33:35.817,40.0627,56.0002
12:33:35.823,39.5627,54.2502
12:33:35.832,37.8126,53.6252
12:33:35.842,36.3751,50.7502
12:33:35.862,35.3751,50.3127
12:33:35.865,34.0001,48.0002
12:33:35.874,33.6876,46.4377
12:33:35.903,32.8126,45.7502
12:33:35.905,31.1876,44.1252
12:33:35.907,30.6876,42.3127
12:33:35.914,29.0626,40.1877
12:33:35.941,27.8751,38.8126
12:33:35.942,26.6251,37.3751
12:33:35.945,25.7501,35.5001
12:33:35.976,23.8751,32.8126
12:33:35.977,23.0626,32.0001
12:33:35.982,21.6251,30.0626
12:33:35.983,20.2501,28.6251
12:33:36.014,18.5001,25.6876
12:33:36.017,16.6876,24.1876
12:33:36.018,15.0001,23.0001
12:33:36.036,14.1251,20.5626
12:33:36.037,13.3751,18.8126
12:33:36.044,12,18.0626
12:33:36.052,11,17.0626
12:33:36.062,10.3125,14.7501
12:33:36.073,9.75,13.3126
12:33:36.083,8.4375,12.375
12:33:36.092,8.125,10.625
12:33:36.101,7.125,9.5625
12:33:36.112,5.75,7.375
12:33:36.122,4.5625,6.75
12:33:36.132,4.125,5.6875
12:33:36.142,3.875,4
12:33:36.151,3.3125,3.375
12:33:36.162,2.6875,2.875
12:33:36.173,3.3125,0.8125
12:33:36.181,1.1875,-0.8125
12:33:36.196,-0.0625,-2.625
12:33:36.201,-0.6875,-3.375
12:33:36.220,-1.4375,-4.75
12:33:36.223,-2.6875,-6
12:33:36.238,-3.75,-7.125
12:33:36.243,-4.5625,-9.1875
12:33:36.253,-4.6875,-10.1875
12:33:36.262,-5.625,-10.6875
12:33:36.272,-5.875,-11.75
12:33:36.283,-6.4375,-12.75
12:33:36.292,-8.0625,-15.0626
12:33:36.301,-9.25,-15.2501
12:33:36.313,-8.75,-16.8126
12:33:36.322,-9.5625,-17.4376
12:33:36.335,-7.625,-14.3126
12:33:36.341,-2.125,-8.9375
12:33:36.353,4.1875,1.6875
12:33:36.362,11.5,11.5625
12:33:36.372,18.5001,23.8751
12:33:36.381,25.1876,33.1876
12:33:36.392,30.6876,41.3752
12:33:36.401,36.0626,50.0002
12:33:36.412,38.8126,54.8127
12:33:36.423,41.6252,60.8752
12:33:36.432,44.0627,64.1877
12:33:36.441,45.1877,68.0003
12:33:36.452,47.1877,69.8753
12:33:36.462,48.1877,73.0628
12:33:36.472,49.7502,74.3128
12:33:36.482,49.7502,76.3128
12:33:36.491,50.6877,78.1253
12:33:36.502,50.6252,79.8128
12:33:36.512,50.2502,80.5628
12:33:36.522,51.0627,81.3753
12:33:36.532,51.3127,82.0003
12:33:36.542,50.7502,82.6253
12:33:36.552,50.8752,83.1253
12:33:36.562,50.9377,82.5628
12:33:36.578,49.8752,81.7503
12:33:36.593,49.0627,81.2503
12:33:36.595,49.1252,79.3128
12:33:36.602,46.6877,77.0628
12:33:36.613,44.8752,74.6253
12:33:36.622,42.6877,72.2503
12:33:36.631,41.3127,70.2503
12:33:36.642,39.5002,66.6253
12:33:36.668,38.2501,66.3753
12:33:36.671,37.2501,64.0002
12:33:36.673,36.6876,64.0627
12:33:36.703,36.2501,62.6877
12:33:36.705,35.3126,62.6252
12:33:36.708,34.6876,60.5627
12:33:36.713,33.3126,60.0627
12:33:36.741,30.8126,57.1252
12:33:36.744,28.1251,54.9377
12:33:36.745,25.2501,52.6252
12:33:36.753,21.9376,48.9377
12:33:36.778,18.0626,46.1877
12:33:36.780,13.2501,42.2502
12:33:36.783,5.6875,35.6876
12:33:36.792,-6.375,26.7501
12:33:36.828,-19.6876,15.1876
12:33:36.830,-32.5001,4.9375
12:33:36.834,-45.5627,-4.75
12:33:36.836,-56.2502,-13.5001
12:33:36.845,-64.5002,-20.5626
12:33:36.852,-72.1253,-26.7501
12:33:36.862,-73.7503,-27.1876
12:33:36.871,-87.2503,-37.2501
12:33:36.882,-84.3128,-36.5626
12:33:36.893,-81.5628,-34.6876
12:33:36.902,-79.3753,-33.2501
12:33:36.913,-76.1878,-31.6251
12:33:36.922,-73.0003,-30.5001
12:33:36.931,-73.1878,-32.3126
12:33:36.946,-63.0002,-21.8751
12:33:36.952,-60.6252,-27.3126
12:33:36.962,-48.4377,-18.8126
12:33:36.972,-50.4377,-19.5626
12:33:37.003,-54.3752,-25.3751
12:33:37.005,-52.2502,-25.5626
12:33:37.007,-50.5627,-24.8126
12:33:37.015,-49.6252,-25.9376
12:33:37.023,-44.5627,-23.1251
12:33:37.032,-42.4377,-23.2501
12:33:37.042,-45.1252,-27.1251
12:33:37.052,-38.4376,-22.8751
12:33:37.063,-32.8126,-20.5001
12:33:37.072,-33.1251,-22.4376
12:33:37.084,-35.3126,-23.2501
12:33:37.092,-35.3751,-25.7501
12:33:37.103,-33.2501,-25.4376
12:33:37.113,-32.7501,-26.2501
12:33:37.121,-31.2501,-27.0626
12:33:37.132,-31.8751,-27.1876
12:33:37.142,-34.4376,-28.3126
12:33:37.153,-34.4376,-30.0626
12:33:37.161,-37.3751,-31.5626
12:33:37.171,-39.6252,-34.5001
12:33:37.181,-39.8752,-34.9376
12:33:37.192,-35.0001,-33.9376
12:33:37.202,-29.1251,-31.7501
12:33:37.212,-30.8126,-33.8126
12:33:37.223,-31.5001,-36.3751
12:33:37.232,-33.8751,-38.7501
12:33:37.242,-35.9376,-42.0627
12:33:37.252,-38.8126,-44.6252
12:33:37.262,-41.9377,-46.6877
12:33:37.272,-44.1252,-49.7502
12:33:37.282,-45.9377,-50.2502
12:33:37.292,-47.5002,-53.1877
12:33:37.303,-50.0627,-55.0627
12:33:37.311,-52.4377,-57.3752
12:33:37.322,-53.0002,-58.8752
12:33:37.332,-51.5002,-59.3127
12:33:37.350,-49.9377,-59.3752
12:33:37.353,-51.1252,-60.2502
12:33:37.386,-50.8752,-61.8752
12:33:37.389,-47.4377,-60.5627
12:33:37.392,-43.7502,-56.8752
12:33:37.393,-40.3127,-57.0002
12:33:37.422,-39.3127,-56.0002
12:33:37.424,-41.2502,-56.8752
12:33:37.425,-42.7502,-60.3752
12:33:37.434,-45.8752,-62.3127
12:33:37.466,-47.4377,-63.5627
12:33:37.468,-48.6877,-65.6878
12:33:37.470,-48.6252,-65.2503
12:33:37.478,-47.8127,-66.3128
12:33:37.484,-47.8127,-67.3128
12:33:37.522,-49.1877,-68.5628
12:33:37.526,-50.5002,-70.1878
12:33:37.542,-52.4377,-71.8753
12:33:37.544,-52.8127,-74.6253
12:33:37.546,-51.6877,-73.3128
12:33:37.547,-51.1252,-75.1878
12:33:37.553,-49.8752,-74.0003
12:33:37.562,-48.6252,-70.5628
12:33:37.572,-42.3127,-65.3753
12:33:37.581,-33.5626,-55.9377
12:33:37.592,-26.0001,-44.0627
12:33:37.602,-18.6251,-34.3126
12:33:37.613,-13.8751,-24.3751
12:33:37.622,-8.6875,-16.5001
12:33:37.632,-3.8125,-9.8125
12:33:37.643,-1.0625,-3.875
12:33:37.653,1.25,0.6875
12:33:37.662,1.5,0.9375
12:33:37.672,1.1875,1.875
12:33:37.681,2.4375,3.9375
12:33:37.697,4.6875,6.3125
12:33:37.702,6.3125,7.625
12:33:37.712,6.9375,9.6875
12:33:37.724,6.6875,9.8125
12:33:37.732,6.0625,9.6875
12:33:37.742,5.9375,9.1875
12:33:37.754,5.5,10.0625
12:33:37.763,4.6875,7.9375
12:33:37.772,4.0625,8.375
12:33:37.782,3,5.8125
12:33:37.793,0.875,5.875
12:33:37.803,1.8125,4.5
12:33:37.812,1.4375,3.8125
12:33:37.822,1,4.0625
12:33:37.832,1.25,2.1875
12:33:37.842,-0.25,0.6875
12:33:37.853,-1.0625,-0.75
12:33:37.871,-2,-3.1875
12:33:37.876,-3.75,-5.4375
12:33:37.893,-5.5,-7.625
12:33:37.895,-7.375,-9.0625
12:33:37.902,-7.3125,-10.3125
12:33:37.911,-7.6875,-10.25
12:33:37.922,-6.75,-10.875
12:33:37.933,-6.625,-11
12:33:37.942,-8.5625,-11.8125
12:33:37.952,-11.9375,-16.0001
12:33:37.963,-16.2501,-18.8751
12:33:37.972,-18.6876,-21.2501
12:33:37.982,-18.5001,-23.1876
12:33:37.992,-18.1251,-22.7501
12:33:38.002,-18.0001,-24.9376
12:33:38.012,-19.0626,-25.4376
12:33:38.022,-21.4376,-26.3126
12:33:38.032,-22.3126,-30.3126
12:33:38.042,-25.5001,-31.4376
12:33:38.051,-27.9376,-35.8126
12:33:38.061,-31.8126,-38.5626
12:33:38.074,-35.8751,-42.7502
12:33:38.083,-38.5001,-46.3127
12:33:38.092,-42.2502,-48.1252
12:33:38.103,-43.9377,-52.0627
12:33:38.125,-45.1877,-52.8127
12:33:38.126,-47.0002,-53.1877
12:33:38.135,-47.3752,-54.7502
12:33:38.168,-47.1252,-56.5627
12:33:38.169,-46.2502,-56.0002
12:33:38.172,-46.5002,-55.4377
12:33:38.174,-46.6252,-57.0627
12:33:38.206,-45.5002,-57.1252
12:33:38.209,-47.0002,-57.5002
12:33:38.210,-47.0627,-58.9377
12:33:38.237,-46.8752,-58.9377
12:33:38.238,-44.8127,-59.2502
12:33:38.240,-43.3752,-57.8127
12:33:38.248,-43.2502,-56.9377
12:33:38.257,-42.0002,-57.6877
12:33:38.284,-42.5002,-59.0627
12:33:38.287,-44.5627,-60.4377
12:33:38.288,-44.6252,-62.0627
12:33:38.292,-46.1252,-62.3127
12:33:38.302,-45.3127,-62.6252
12:33:38.312,-44.3752,-63.4377
12:33:38.322,-47.8752,-64.6252
12:33:38.332,-50.7502,-69.3753
12:33:38.342,-53.1877,-70.8753
12:33:38.353,-54.3752,-71.8128
12:33:38.362,-53.5627,-72.1878
12:33:38.373,-54.7502,-73.1253
12:33:38.382,-56.2502,-74.8753
12:33:38.393,-56.5002,-75.7503
12:33:38.403,-58.0002,-77.9378
12:33:38.412,-58.1252,-78.4378
12:33:38.422,-58.2502,-78.6253
12:33:38.431,-56.6877,-78.6253
12:33:38.447,-56.0627,-78.5628
12:33:38.453,-53.2502,-76.3753
12:33:38.462,-50.8752,-75.0628
12:33:38.473,-47.4377,-73.9378
12:33:38.482,-45.0002,-71.8128
12:33:38.492,-42.5627,-71.1878
12:33:38.501,-43.0627,-71.2503
12:33:38.513,-43.6252,-71.7503
12:33:38.524,-42.2502,-71.3753
12:33:38.533,-38.3751,-67.6878
12:33:38.542,-36.8751,-66.2503
12:33:38.552,-33.8751,-65.2502
12:33:38.562,-30.7501,-63.1252
12:33:38.573,-27.3126,-59.5002
12:33:38.582,-24.0626,-58.5002
12:33:38.592,-24.4376,-57.6877
12:33:38.601,-25.8751,-59.1252
12:33:38.612,-26.3126,-58.3127
12:33:38.622,-27.2501,-60.0002
12:33:38.632,-26.0626,-59.4377
12:33:38.642,-25.0001,-59.0627
12:33:38.653,-22.8751,-57.1252
12:33:38.662,-19.8126,-55.8127
12:33:38.673,-16.8751,-52.3127
12:33:38.682,-13.8751,-49.7502
12:33:38.692,-9.5625,-43.8127
12:33:38.702,-5.0625,-37.0001
12:33:38.712,1.0625,-28.6251
12:33:38.722,6.8125,-21.5626
12:33:38.733,10.6875,-14.1876
12:33:38.742,13.6876,-11.25
12:33:38.751,14.0626,-9.1875
12:33:38.762,13.3126,-8.4375
12:33:38.772,12.3125,-9.3125
12:33:38.781,11.625,-9
12:33:38.793,10.4375,-9.8125
12:33:38.802,9.625,-10.3125
12:33:38.812,8.125,-11.1875
12:33:38.827,5.5,-12.8125
12:33:38.861,3.5625,-13.9376
12:33:38.864,1.5,-16.1251
12:33:38.892,-1.1875,-18.0626
12:33:38.892,-4.1875,-20.6876
12:33:38.894,-7.25,-23.6251
12:33:38.896,-11.8125,-26.7501
12:33:38.924,-14.6876,-29.6876
12:33:38.926,-17.9376,-33.3126
12:33:38.928,-20.9376,-34.8751
12:33:38.930,-23.6876,-38.8751
12:33:38.936,-27.0626,-43.1252
12:33:38.944,-30.8126,-46.0002
12:33:38.971,-34.6251,-50.6877
12:33:38.973,-38.5001,-53.4377
12:33:38.977,-40.4377,-56.1877
12:33:38.982,-42.8752,-59.7502
12:33:39.013,-45.2502,-60.8127
12:33:39.014,-45.6877,-60.2502
12:33:39.017,-45.6877,-60.8752
12:33:39.026,-44.6877,-60.8127
12:33:39.038,-45.2502,-59.2502
12:33:39.046,-44.5002,-60.1252
12:33:39.057,-45.8127,-61.0627
12:33:39.066,-46.9377,-61.3127
12:33:39.076,-48.5627,-63.4377
12:33:39.087,-49.3752,-63.2502
12:33:39.097,-48.1252,-63.8127
12:33:39.107,-47.5002,-63.2502
12:33:39.118,-46.2502,-62.7502
12:33:39.127,-46.5002,-63.8127
12:33:39.137,-48.5002,-64.4377
12:33:39.147,-50.1877,-67.5003
12:33:39.157,-52.5002,-68.1878
12:33:39.167,-54.3127,-70.6253
12:33:39.183,-57.4377,-73.8753
12:33:39.198,-57.6877,-75.1878
12:33:39.200,-57.7502,-75.6878
12:33:39.207,-57.1252,-74.6253
12:33:39.217,-57.0002,-76.4378
12:33:39.227,-58.1877,-77.2503
12:33:39.236,-59.0627,-78.3753
12:33:39.247,-59.5627,-78.9378
12:33:39.257,-58.3752,-78.0003
12:33:39.268,-56.1252,-77.3128
12:33:39.278,-54.0002,-76.7503
12:33:39.287,-52.8752,-75.6878
12:33:39.296,-50.5002,-74.4378
12:33:39.306,-49.4377,-74.5003
12:33:39.317,-49.2502,-74.6253
12:33:39.327,-50.8127,-74.3128
12:33:39.337,-49.8127,-74.0628
12:33:39.347,-49.2502,-72.4378
12:33:39.357,-48.5627,-72.3753
12:33:39.367,-47.4377,-72.4378
12:33:39.380,-45.2502,-71.2503
12:33:39.387,-44.7502,-70.6253
12:33:39.398,-44.7502,-69.5628
12:33:39.407,-43.1252,-69.6878
12:33:39.417,-43.6877,-69.8128
12:33:39.427,-42.6252,-69.5003
12:33:39.437,-41.5002,-68.4378
12:33:39.448,-38.8126,-66.1253
12:33:39.457,-35.6876,-65.0002
12:33:39.467,-33.4376,-63.4377
12:33:39.477,-32.0626,-62.3127
12:33:39.488,-31.6251,-60.7502
12:33:39.498,-30.9376,-61.5002
12:33:39.507,-32.5626,-61.6877
12:33:39.525,-33.4376,-62.1877
12:33:39.529,-34.4376,-62.1252
12:33:39.564,-43.7502,-65.6252
12:33:39.566,-46.5627,-66.7503
12:33:39.568,-41.3127,-68.2503
12:33:39.571,-37.0001,-72.3753
12:33:39.577,-33.4376,-72.7503
12:33:39.611,-31.7501,-70.8753
12:33:39.612,-30.0626,-65.6253
12:33:39.615,-29.5626,-58.8127
12:33:39.617,-25.1876,-57.0627
12:33:39.649,-26.0626,-58.8752
12:33:39.650,-28.0626,-61.1252
12:33:39.652,-31.0001,-62.5002
12:33:39.658,-31.6876,-63.3127
12:33:39.694,-30.6876,-62.5627
12:33:39.696,-28.2501,-60.4377
12:33:39.698,-28.2501,-59.7502
12:33:39.710,-28.5001,-61.4377
12:33:39.712,-29.8751,-62.1877
12:33:39.719,-32.8751,-64.6252
12:33:39.729,-37.3126,-66.7503
12:33:39.738,-40.8127,-70.2503
12:33:39.748,-41.8752,-70.9378
12:33:39.756,-39.6252,-68.9378
12:33:39.767,-34.9376,-62.3752
12:33:39.777,-28.8126,-55.0002
12:33:39.788,-26.8126,-49.3127
12:33:39.798,-26.1876,-47.0002
12:33:39.806,-27.0001,-45.1877
12:33:39.817,-27.3126,-42.4377
12:33:39.827,-27.8751,-41.1252
12:33:39.836,-27.0626,-39.8127
12:33:39.847,-26.2501,-38.5001
12:33:39.858,-24.6251,-34.6876
12:33:39.867,-23.0626,-34.6876
12:33:39.876,-23.3126,-33.8126
12:33:39.888,-23.3126,-33.8751
12:33:39.897,-23.9376,-33.3126
12:33:39.907,-23.5001,-34.3751
12:33:39.916,-23.1876,-33.2501
12:33:39.928,-21.7501,-33.3751
12:33:39.937,-20.0001,-30.8126
12:33:39.948,-20.3751,-32.6876
12:33:39.957,-21.5001,-33.0001
12:33:39.967,-22.1251,-35.3751
12:33:39.977,-23.1251,-35.8126
12:33:39.987,-24.4376,-38.5626
12:33:39.997,-26.3126,-40.1252
12:33:40.007,-27.5001,-42.1877
12:33:40.019,-28.8126,-42.8127
12:33:40.027,-29.5001,-45.3127
12:33:40.037,-29.8126,-45.3127
12:33:40.047,-29.6876,-45.9377
12:33:40.059,-29.0001,-45.0002
12:33:40.067,-27.8751,-45.3752
12:33:40.083,-27.9376,-44.9377
12:33:40.088,-27.2501,-45.3752
12:33:40.098,-26.6876,-44.2502
12:33:40.108,-25.8751,-44.6877
12:33:40.123,-26.0001,-43.8752
12:33:40.138,-24.6876,-44.8127
12:33:40.140,-23.5626,-43.3752
12:33:40.148,-22.2501,-44.0627
12:33:40.157,-21.5001,-42.8752
12:33:40.167,-22.5626,-44.3127
12:33:40.177,-21.7501,-42.5627
12:33:40.186,-19.0626,-41.2502
12:33:40.197,-20.3751,-42.1877
12:33:40.207,-22.0001,-43.3127
12:33:40.217,-21.0626,-43.1877
12:33:40.227,-20.4376,-42.6252
12:33:40.238,-18.6251,-42.0002
12:33:40.247,-18.0001,-41.8127
12:33:40.257,-17.5001,-40.5627
12:33:40.288,-17.3751,-41.1252
12:33:40.290,-19.2501,-41.1252
12:33:40.292,-19.6876,-42.6252
12:33:40.299,-19.7501,-43.4377
12:33:40.334,-18.0001,-41.7502
12:33:40.336,-16.1876,-38.8751
12:33:40.338,-14.1876,-39.0626
12:33:40.342,-14.8126,-38.0626
12:33:40.347,-14.3126,-39.3127
12:33:40.377,-13.8751,-37.5626
12:33:40.379,-13.4376,-38.1251
12:33:40.381,-14.4376,-38.7501
12:33:40.388,-16.0001,-40.7502
12:33:40.419,-17.2501,-41.0002
12:33:40.421,-16.8751,-41.3127
12:33:40.423,-15.9376,-39.6877
12:33:40.429,-14.4376,-39.5002
12:33:40.452,-12.8125,-38.5626
12:33:40.457,-11.25,-37.0626
12:33:40.461,-10.5,-36.3751
12:33:40.475,-11.6875,-37.9376
12:33:40.478,-12.375,-39.3127
12:33:40.494,-14.5001,-41.1252
12:33:40.498,-17.0001,-42.1252
12:33:40.507,-17.4376,-43.5002
12:33:40.517,-17.1876,-43.4377
12:33:40.527,-18.5626,-45.5002
12:33:40.537,-20.8126,-47.0002
12:33:40.547,-21.0001,-47.7502
12:33:40.557,-22.1251,-48.1877
12:33:40.568,-23.6876,-49.5627
12:33:40.577,-25.4376,-51.5627
12:33:40.587,-27.8126,-52.3127
12:33:40.597,-29.9376,-54.3127
12:33:40.607,-31.9376,-55.5002
12:33:40.617,-33.8751,-57.8752
12:33:40.627,-35.0001,-58.5002
12:33:40.637,-36.1876,-59.5002
12:33:40.647,-37.8126,-60.3127
12:33:40.656,-38.6876,-61.4377
12:33:40.666,-40.3752,-61.8127
12:33:40.676,-41.3752,-63.2502
12:33:40.687,-43.4377,-63.9377
12:33:40.697,-44.1252,-65.1877
12:33:40.707,-44.6252,-65.6878
12:33:40.718,-45.8752,-67.1253
12:33:40.727,-46.6877,-68.0628
12:33:40.738,-47.7502,-69.1878
12:33:40.747,-48.3752,-69.6878
12:33:40.757,-47.0002,-69.3128
12:33:40.768,-46.5002,-68.7503
12:33:40.777,-47.3127,-69.9378
12:33:40.787,-48.6877,-71.2503
12:33:40.797,-49.0002,-71.5003
12:33:40.807,-49.4377,-71.6878
12:33:40.818,-48.8127,-71.4378
12:33:40.845,-48.4377,-70.3128
12:33:40.845,-47.3127,-68.5003
12:33:40.848,-43.1877,-61.5002
12:33:40.864,-37.6876,-53.6252
12:33:40.869,-33.8126,-46.6877
12:33:40.877,-28.3751,-40.0002
12:33:40.886,-23.4376,-33.0626
12:33:40.899,-19.5001,-27.9376
12:33:40.907,-17.5626,-23.8751
12:33:40.916,-14.3126,-21.3751
12:33:40.928,-13,-18.6876
12:33:40.940,-10.6875,-16.5626
12:33:40.947,-8.875,-14.8126
12:33:40.985,-6.375,-13.2501
12:33:40.985,-6.125,-12.375
12:33:40.988,-4.8125,-11.625
12:33:40.992,-4.3125,-12.0625
12:33:41.021,-4.25,-10.75
12:33:41.023,-3.6875,-12
12:33:41.026,-3.25,-11.0625
12:33:41.028,-2.4375,-11.375
12:33:41.059,-3.25,-10.75
12:33:41.060,-2.5625,-12.8125
12:33:41.063,-2.3125,-12.3125
12:33:41.070,-2.875,-13.6876
12:33:41.097,-4.6875,-16.3751
12:33:41.100,-6.3125,-17.8751
12:33:41.102,-6.625,-19.4376
12:33:41.108,-7.0625,-20.5626
12:33:41.118,-6.4375,-20.3126
12:33:41.127,-5.4375,-20.0001
12:33:41.138,-4.375,-19.5001
12:33:41.149,-2.1875,-19.3126
12:33:41.158,-0.9375,-18.3126
12:33:41.167,1.125,-16.6251
12:33:41.177,-0.125,-15.8126
12:33:41.188,-11.875,-20.5626
12:33:41.198,-14.6251,-24.6876
12:33:41.207,-6.375,-29.6876
12:33:41.217,6.3125,-34.1876
12:33:41.227,16.8126,-40.4377
12:33:41.237,25.8751,-42.7502
12:33:41.247,35.5626,-43.2502
12:33:41.258,43.6252,-41.0627
12:33:41.267,46.0627,-41.4377
12:33:41.278,44.1252,-40.0002
12:33:41.288,45.8127,-38.5001
12:33:41.297,47.7502,-33.0001
12:33:41.307,48.3127,-29.0626
12:33:41.317,39.6877,-20.6251
12:33:41.328,23.8126,-13
12:33:41.337,15.6251,-11.25
12:33:41.348,7.75,-12.1875
12:33:41.357,-1.3125,-16.6876
12:33:41.367,-6.625,-19.3126
12:33:41.377,-8.6875,-22.6251
12:33:41.387,-8.4375,-21.6876
12:33:41.398,-10.375,-23.3751
12:33:41.418,-13.6251,-25.1251
12:33:41.421,-15.6876,-27.4376
12:33:41.436,-21.3751,-31.0626
12:33:41.438,-25.0626,-34.3126
12:33:41.452,-28.0001,-37.5001
12:33:41.456,-30.1876,-39.5627
12:33:41.467,-31.8126,-39.8752
12:33:41.477,-30.2501,-39.9377
12:33:41.487,-29.8751,-40.0002
12:33:41.497,-28.3751,-38.9376
12:33:41.508,-28.4376,-39.6877
12:33:41.517,-29.4376,-41.5627
12:33:41.527,-30.5626,-42.8752
12:33:41.539,-30.5001,-43.0002
12:33:41.548,-31.1876,-43.1252
12:33:41.558,-32.3751,-43.7502
12:33:41.567,-33.3751,-45.2502
12:33:41.578,-34.3751,-45.3127
12:33:41.587,-35.3126,-47.5002
12:33:41.598,-37.5001,-49.0002
12:33:41.611,-37.4376,-49.0627
12:33:41.622,-36.9376,-49.3752
12:33:41.627,-38.1251,-50.0002
12:33:41.638,-38.2501,-50.3752
12:33:41.648,-39.8752,-51.9377
12:33:41.657,-40.5627,-52.5002
12:33:41.667,-41.7502,-52.2502
12:33:41.677,-41.1252,-53.1877
12:33:41.687,-40.8127,-52.8752
12:33:41.697,-38.8126,-51.3752
12:33:41.707,-36.6251,-49.6877
12:33:41.728,-34.3126,-48.0002
12:33:41.734,-32.8751,-46.1877
12:33:41.739,-31.0626,-44.6877
12:33:41.767,-29.6251,-44.4377
12:33:41.769,-29.5626,-43.6877
12:33:41.894,-30.8751,-44.2502
12:33:41.895,-31.3751,-44.2502
12:33:41.897,-30.8126,-44.2502
12:33:41.897,-28.2501,-42.4377
12:33:41.898,-26.9376,-40.4377
12:33:41.901,-24.8126,-40.1252
12:33:41.907,-24.8126,-39.5002
12:33:41.908,-24.6876,-39.8127
12:33:41.908,-26.8751,-40.9377
12:33:41.917,-26.4376,-41.4377
12:33:41.927,-24.5001,-39.9377
12:33:41.938,-19.5626,-37.6251
12:33:41.947,-16.8751,-34.9376
12:33:41.956,-14.2501,-33.3126
12:33:41.967,-12.9375,-32.0001
12:33:41.978,-8.9375,-28.1251
12:33:41.988,-2.625,-21.0626
12:33:41.997,-0.4375,-14.8126
12:33:42.007,-10.9375,-15.8126
12:33:42.017,-7.1875,-17.6251
12:33:42.026,6.1875,-17.0626
12:33:42.039,19.9376,-18.8126
12:33:42.047,29.1876,-19.0001
12:33:42.057,36.3126,-18.5626
12:33:42.067,41.3127,-18.3126
12:33:42.078,22.2501,3.3125
12:33:42.087,17.6251,5.625
12:33:42.098,12.125,3.625
12:33:42.124,6.4375,0.1875
12:33:42.127,2.875,-3.5
12:33:42.130,2.25,-4.75
12:33:42.137,-0.0625,-6.125
12:33:42.147,-3.0625,-8.75
12:33:42.157,-4.9375,-11.375
12:33:42.167,-8,-14.5001
12:33:42.178,-10.0625,-16.7501
12:33:42.187,-13.9376,-19.7501
12:33:42.196,-19.0001,-23.4376
12:33:42.207,-24.3751,-28.4376
12:33:42.217,-30.1251,-32.6251
12:33:42.227,-34.6251,-35.3126
12:33:42.237,-35.6251,-37.7501
12:33:42.246,-36.8126,-39.0001
12:33:42.256,-37.3751,-38.5626
12:33:42.267,-36.5001,-38.8751
12:33:42.277,-35.8126,-38.9376
12:33:42.287,-36.0001,-38.1876
12:33:42.297,-35.0001,-38.6251
12:33:42.307,-35.5626,-38.5001
12:33:42.317,-34.2501,-38.6876
12:33:42.327,-34.3751,-38.1876
12:33:42.338,-32.3126,-37.0626
12:33:42.348,-31.5626,-36.1251
12:33:42.364,-28.9376,-35.3751
12:33:42.368,-28.7501,-35.1876
12:33:42.377,-27.6876,-35.2501
12:33:42.387,-28.0001,-35.3126
12:33:42.398,-26.0001,-34.5626
12:33:42.407,-25.5626,-34.5001
12:33:42.416,-24.1876,-33.3751
12:33:42.427,-22.8751,-34.0001
12:33:42.436,-22.6876,-33.4376
12:33:42.447,-21.9376,-32.6876
12:33:42.458,-21.6251,-33.3751
12:33:42.479,-20.2501,-31.8751
12:33:42.482,-19.3126,-31.8751
12:33:42.507,-19.6876,-31.5001
12:33:42.509,-18.3126,-31.1876
12:33:42.512,-18.2501,-30.5626
12:33:42.519,-17.5001,-31.1876
12:33:42.545,-18.0626,-31.6876
12:33:42.548,-19.0001,-31.2501
12:33:42.552,-17.9376,-32.5001
12:33:42.558,-17.3751,-31.1876
12:33:42.585,-13.5626,-29.5626
12:33:42.588,-11,-26.2501
12:33:42.590,-6.375,-24.8751
12:33:42.620,-4.25,-21.5001
12:33:42.622,-3.0625,-22.2501
12:33:42.624,-3.4375,-21.5001
12:33:42.630,-2.8125,-21.9376
12:33:42.649,-1.125,-20.6251
12:33:42.650,0.3125,-20.0001
12:33:42.656,1.1875,-20.8751
12:33:42.666,2,-19.0626
12:33:42.677,3.5,-18.8751
12:33:42.687,5.875,-17.3751
12:33:42.698,9.5,-16.0626
12:33:42.707,14.3126,-12.5625
12:33:42.724,17.3751,-11.3125
12:33:42.744,21.8126,-8.75
12:33:42.747,24.5626,-7.6875
12:33:42.762,45.9377,4.625
12:33:42.764,93.3754,38.1876
12:33:42.772,73.1878,31.8126
12:33:42.777,79.2503,34.2501
12:33:42.787,112.1879,54.4377
12:33:42.797,117.2504,62.2502
12:33:42.807,115.9379,65.5628
12:33:42.817,133.563,76.4378
12:33:42.827,143.2505,82.0628
12:33:42.837,146.1255,82.3128
12:33:42.847,142.5005,80.1253
12:33:42.857,136.438,74.4378
12:33:42.869,126.313,68.6878
12:33:42.877,125.188,65.8128
12:33:42.887,127.2505,67.1253
12:33:42.897,127.063,64.7502
12:33:42.908,130.813,68.1253
12:33:42.917,131.813,70.0628
12:33:42.927,135.938,76.0628
12:33:42.937,139.0005,83.1878
12:33:42.947,141.0005,87.6878
12:33:42.957,143.438,93.0629
12:33:42.967,144.7505,97.8129
12:33:42.977,142.5005,99.4379
12:33:42.987,140.188,100.3129
12:33:42.997,135.813,98.6254
12:33:43.007,131.438,97.1879
12:33:43.017,129.063,95.2504
12:33:43.028,125.938,93.9379
12:33:43.037,121.2505,90.8754
12:33:43.047,116.9379,87.1253
12:33:43.057,112.0629,83.3753
12:33:43.067,107.5629,79.4378
12:33:43.083,102.1879,76.5003
12:33:43.092,98.4379,71.6253
12:33:43.102,94.6254,68.7503
12:33:43.117,91.0629,65.3752
12:33:43.121,87.0003,62.1877
12:33:43.132,82.9378,59.6877
12:33:43.148,77.5628,56.1877
12:33:43.155,73.5003,51.9377
12:33:43.162,69.6878,48.1252
12:33:43.179,66.1253,45.6877
12:33:43.181,64.0002,41.6252
12:33:43.200,61.5627,39.7502
12:33:43.203,59.4377,36.5626
12:33:43.232,56.5002,34.5001
12:33:43.235,55.3127,33.1251
12:33:43.237,54.8127,31.8751
12:33:43.243,54.9377,33.0626
12:33:43.270,55.6877,33.0626
12:33:43.274,55.8127,32.5626
12:33:43.276,57.5627,33.2501
12:33:43.308,56.7502,31.6251
12:33:43.309,55.1252,31.9376
12:33:43.311,53.4377,29.7501
12:33:43.315,51.0002,27.1876
12:33:43.345,50.1252,25.7501
12:33:43.346,49.5627,25.2501
12:33:43.348,49.7502,25.4376
12:33:43.370,51.8752,26.8126
12:33:43.372,52.4377,26.1876
12:33:43.380,51.3127,24.5001
12:33:43.402,50.4377,23.6876
12:33:43.404,49.3127,23.1251
12:33:43.409,49.5002,21.7501
12:33:43.417,46.9377,19.8126
12:33:43.427,43.8127,17.0001
12:33:43.437,42.9377,15.8126
12:33:43.448,43.3127,16.3126
12:33:43.457,45.8752,17.3751
12:33:43.468,48.7502,18.8126
12:33:43.477,49.9377,19.3126
12:33:43.494,49.4377,19.3751
12:33:43.498,49.0627,18.2501
12:33:43.508,49.1252,16.8751
12:33:43.518,47.9377,16.3126
12:33:43.527,47.8127,15.6251
12:33:43.537,44.2502,12.6875
12:33:43.548,40.1877,9.875
12:33:43.557,36.8126,8.1875
12:33:43.569,35.0001,5.5625
12:33:43.577,35.6251,5.25
12:33:43.587,36.7501,6.375
12:33:43.597,38.9376,7.4375
12:33:43.609,39.6877,7.9375
12:33:43.617,39.1877,7.375
12:33:43.627,38.3751,7
12:33:43.637,38.0626,6.625
12:33:43.647,35.9376,4.3125
12:33:43.657,34.3751,2.9375
12:33:43.667,31.6251,1.75
12:33:43.678,28.7501,-0.3125
12:33:43.687,27.4376,-2.4375
12:33:43.696,27.4376,-3.25
12:33:43.707,26.6876,-3.6875
12:33:43.717,25.0626,-4.5625
12:33:43.727,23.3751,-4.9375
12:33:43.737,22.3751,-7.3125
12:33:43.747,19.2501,-10.125
12:33:43.758,16.1251,-12.0625
12:33:43.768,14.6876,-12.875
12:33:43.777,17.3126,-12.1875
12:33:43.787,20.2501,-10.625
12:33:43.799,23.3126,-8
12:33:43.807,26.3751,-6.4375
12:33:43.818,28.6876,-6
12:33:43.827,28.3126,-5.8125
12:33:43.836,27.3126,-5.6875
12:33:43.847,24.8126,-8.125
12:33:43.857,21.0626,-10.375
12:33:43.868,19.2501,-12.8125
12:33:43.877,16.1251,-12.75
12:33:43.888,15.3126,-16.0001
12:33:43.912,14.5626,-15.7501
12:33:43.916,14.9376,-16.3126
12:33:43.919,17.3126,-14.2501
12:33:43.927,19.2501,-13.5001
12:33:43.958,22.5626,-11.8125
12:33:43.961,23.8751,-10.1875
12:33:43.963,24.8751,-8.6875
12:33:43.969,25.4376,-8.9375
12:33:43.996,25.5626,-8.1875
12:33:43.999,28.1251,-4.5625
12:33:44.000,30.6251,1.75
12:33:44.007,33.2501,8.75
12:33:44.047,34.3751,12.625
12:33:44.049,34.7501,18.5626
12:33:44.085,35.0001,20.4376
12:33:44.087,36.3751,24.9376
12:33:44.102,37.3751,26.5001
12:33:44.117,40.0627,31.5001
12:33:44.119,43.2502,33.5626
12:33:44.119,45.6877,35.8126
12:33:44.119,47.0002,38.1251
12:33:44.121,48.3127,38.5626
12:33:44.132,48.8127,38.6876
12:33:44.143,47.4377,38.0001
12:33:44.153,45.5002,35.6251
12:33:44.162,43.0002,33.7501
12:33:44.172,40.3752,32.8751
12:33:44.182,37.1251,29.6876
12:33:44.192,33.4376,27.5001
12:33:44.202,30.2501,24.5626
12:33:44.212,30.5626,23.3751
12:33:44.222,31.3751,24.0001
12:33:44.232,31.5626,24.0001
12:33:44.243,31.1876,23.6251
12:33:44.252,30.2501,21.3751
12:33:44.261,29.7501,19.9376
12:33:44.271,30.5001,19.8126
12:33:44.281,29.0001,18.3126
12:33:44.293,26.6876,16.4376
12:33:44.302,24.1876,15.8126
12:33:44.312,22.8751,13.9376
12:33:44.323,21.7501,12.8125
12:33:44.331,22.1251,12.875
12:33:44.342,21.9376,13.5001
12:33:44.352,22.5626,12.8125
12:33:44.361,21.6876,11.6875
12:33:44.371,20.4376,11.875
12:33:44.381,20.2501,11.125
12:33:44.392,18.2501,8.625
12:33:44.404,16.5626,8.5625
12:33:44.413,16.6876,7.75
12:33:44.421,18.8751,7.75
12:33:44.431,21.5626,9.5625
12:33:44.444,24.5001,12.5625
12:33:44.454,27.0001,13.3751
12:33:44.470,28.2501,13.3751
12:33:44.477,27.3751,12.875
12:33:44.484,26.3126,12.625
12:33:44.492,25.4376,10.125
12:33:44.509,22.8751,8.3125
12:33:44.517,20.8751,6.0625
12:33:44.522,18.3751,5.5
12:33:44.531,17.8751,2.9375
12:33:44.543,14.0001,-0.125
12:33:44.552,10.4375,-1.9375
12:33:44.562,7.6875,-4.25
12:33:44.573,8.0625,-4.9375
12:33:44.581,9.25,-5
12:33:44.591,10.6875,-3.4375
12:33:44.604,11,-2.5625
12:33:44.618,11.0625,-3.875
12:33:44.622,8.875,-5.5
12:33:44.633,7,-6.6875
12:33:44.642,6,-7.9375
12:33:44.684,4.9375,-8
12:33:44.687,4.875,-8.0625
12:33:44.688,4.25,-9.1875
12:33:44.692,3,-11.125
12:33:44.697,0.9375,-11.4375
12:33:44.701,0.25,-13.9376
12:33:44.731,-1.5625,-14.9376
12:33:44.731,-4.125,-16.6251
12:33:44.733,-4.5,-17.3126
12:33:44.765,-5.9375,-19.0001
12:33:44.767,-7.625,-19.0626
12:33:44.770,-10.1875,-21.0626
12:33:44.772,-11.625,-23.8751
12:33:44.803,-13.3751,-23.2501
12:33:44.805,-13.9376,-24.7501
12:33:44.806,-15.0626,-26.8751
12:33:44.815,-16.6251,-26.8126
12:33:44.833,-17.5001,-28.2501
12:33:44.836,-18.9376,-30.4376
12:33:44.842,-20.9376,-32.1876
12:33:44.852,-21.8126,-32.3126
12:33:44.862,-18.8751,-30.6876
12:33:44.871,-16.8126,-29.2501
12:33:44.882,-13.5626,-26.5001
12:33:44.892,-10.6875,-26.0001
12:33:44.903,-10,-24.8126
12:33:44.912,-8.6875,-24.9376
12:33:44.923,-9.25,-25.2501
12:33:44.932,-9.875,-25.1251
12:33:44.943,-10.5,-26.3126
12:33:44.952,-11.9375,-27.1251
12:33:44.964,-13.7501,-29.4376
12:33:44.974,-15.1876,-29.7501
12:33:44.983,-16.2501,-31.3751
12:33:44.993,-16.8126,-31.3751
12:33:45.002,-16.4376,-31.5626
12:33:45.012,-17.3126,-31.6251
12:33:45.022,-15.9376,-31.6876
12:33:45.032,-15.6251,-30.8751
12:33:45.043,-14.4376,-30.6876
12:33:45.053,-15.6876,-31.1876
12:33:45.062,-16.0001,-31.6251
12:33:45.072,-15.7501,-31.1876
12:33:45.082,-14.3126,-31.3751
12:33:45.092,-15.0001,-31.9376
12:33:45.103,-15.8126,-32.0626
12:33:45.112,-14.5626,-31.6251
12:33:45.122,-11.4375,-27.8126
12:33:45.131,-5.8125,-21.5001
12:33:45.142,0.75,-11.8125
12:33:45.152,6.875,-3.1875
12:33:45.162,11,5.5625
12:33:45.172,16.0001,12.5
12:33:45.182,19.0626,19.1876
12:33:45.193,22.6876,23.3751
12:33:45.202,24.9376,27.7501
12:33:45.212,28.1876,30.5626
12:33:45.225,28.1876,33.8751
12:33:45.232,30.1251,33.5001
12:33:45.241,29.5001,35.2501
12:33:45.252,30.5001,34.7501
12:33:45.262,29.5001,35.5001
12:33:45.271,29.3126,33.9376
12:33:45.282,28.0001,34.3751
12:33:45.292,28.2501,33.3126
12:33:45.301,28.5626,34.4376
12:33:45.312,32.2501,36.8126
12:33:45.321,37.9376,40.0627
12:33:45.332,41.6877,42.5627
12:33:45.342,43.4377,44.7502
12:33:45.352,44.6877,45.9377
12:33:45.366,44.7502,44.5627
12:33:45.376,44.0002,43.7502
12:33:45.396,42.4377,43.5002
12:33:45.430,39.6877,40.5627
12:33:45.431,36.8751,36.6251
12:33:45.445,32.2501,32.8751
12:33:45.481,28.3126,31.6251
12:33:45.481,24.5626,27.4376
12:33:45.481,22.3126,25.0626
12:33:45.482,23.5626,25.8751
12:33:45.486,26.6251,27.0001
12:33:45.491,28.4376,28.5626
12:33:45.492,29.5001,30.5001
12:33:45.501,31.0626,30.3126
12:33:45.536,30.9376,29.8751
12:33:45.537,30.0626,29.9376
12:33:45.539,28.1876,29.2501
12:33:45.542,27.5001,27.1876
12:33:45.548,25.3126,25.5626
12:33:45.572,23.4376,23.3126
12:33:45.574,20.6876,21.8751
12:33:45.578,19.1876,20.5626
12:33:45.588,19.5001,20.1251
12:33:45.597,18.6251,19.2501
12:33:45.606,18.3751,18.0001
12:33:45.618,16.2501,15.5001
12:33:45.627,13.3751,13.0625
12:33:45.637,11.6875,11.375
12:33:45.646,11.125,11.0625
12:33:45.657,11.25,11.0625
12:33:45.667,10,9.8125
12:33:45.676,9.25,7.9375
12:33:45.687,8,6.75
12:33:45.696,7.125,6.625
12:33:45.707,8.25,6.5
12:33:45.717,9.5,7.375
12:33:45.728,11.3125,7.625
12:33:45.737,13.8126,10.0625
12:33:45.752,16.6251,10.6875
12:33:45.757,16.6876,10
12:33:45.767,16.1251,10.875
12:33:45.777,15.1876,10.25
12:33:45.795,14.3751,7.625
12:33:45.802,12.25,5.5625
12:33:45.811,10.4375,4
12:33:45.818,8.875,3.5625
12:33:45.833,8.1875,2
12:33:45.840,6.75,0.25
12:33:45.848,6.625,0.625
12:33:45.856,6.4375,0.9375
12:33:45.867,5.6875,-0.625
12:33:45.877,3.125,-3.1875
12:33:45.888,0.9375,-5
12:33:45.897,0.0625,-5
12:33:45.907,1.0625,-5.8125
12:33:45.917,1.0625,-5.625
12:33:45.927,1.4375,-5.9375
12:33:45.937,0.8125,-5.6875
12:33:45.963,2.5625,-5.1875
12:33:45.965,4.375,-4.625
12:33:45.968,5.8125,-4.125
12:33:45.977,6.5625,-3.5
12:33:45.987,6.3125,-3.4375
12:33:45.997,5.5,-4.6875
12:33:46.007,6.1875,-5.125
12:33:46.020,5.8125,-6.0625
12:33:46.026,5.9375,-7
12:33:46.037,5.875,-6.875
12:33:46.048,6.3125,-7.4375
12:33:46.056,5.5625,-8.5625
12:33:46.067,5.6875,-7
12:33:46.078,10.1875,-5.625
12:33:46.087,16.1251,-2.4375
12:33:46.100,20.5001,0.8125
12:33:46.132,22.4376,2.3125
12:33:46.133,22.3126,1.4375
12:33:46.134,21.7501,0.375
12:33:46.137,21.3751,1
12:33:46.170,20.9376,-0.25
12:33:46.172,20.5001,-0.1875
12:33:46.173,18.5001,-2.4375
12:33:46.179,16.1876,-3.5
12:33:46.206,14.4376,-6.0625
12:33:46.210,12.1875,-8.0625
12:33:46.211,13.8126,-6.8125
12:33:46.243,16.7501,-6.0625
12:33:46.246,19.3751,-4.3125
12:33:46.246,21.4376,-2.3125
12:33:46.254,21.3751,-2.625
12:33:46.278,19.6251,-4.1875
12:33:46.279,18.7501,-3.6875
12:33:46.282,20.1251,-2.3125
12:33:46.293,23.3126,2.1875
12:33:46.297,27.5626,8.6875
12:33:46.309,32.0626,18.3751
12:33:46.317,37.1876,26.3751
12:33:46.327,40.4377,32.8126
12:33:46.337,42.0002,39.1251
12:33:46.348,43.6877,42.5627
12:33:46.356,43.8127,45.3752
12:33:46.367,43.6877,46.5002
12:33:46.377,43.3752,48.8127
12:33:46.387,44.0002,49.5002
12:33:46.396,43.9377,50.1877
12:33:46.407,44.1252,50.2502
12:33:46.418,43.0627,50.0002
12:33:46.427,41.2502,51.1252
12:33:46.437,41.1252,49.3752
12:33:46.448,41.1252,48.6877
12:33:46.457,41.2502,49.5002
12:33:46.467,41.4377,50.6877
12:33:46.478,42.3127,49.6877
12:33:46.487,41.5002,49.0627
12:33:46.497,41.6252,50.6877
12:33:46.509,43.5627,51.6877
12:33:46.518,45.6252,51.7502
12:33:46.528,45.6877,52.3127
12:33:46.537,45.1877,51.3752
12:33:46.547,45.3752,50.1877
12:33:46.557,43.6252,48.3127
12:33:46.568,43.0002,47.0627
12:33:46.576,42.5002,47.1877
12:33:46.589,40.5627,44.9377
12:33:46.596,37.8126,43.1877
12:33:46.606,35.6876,42.2502
12:33:46.617,34.2501,39.6252
12:33:46.627,33.8126,39.2502
12:33:46.637,34.5626,40.5627
12:33:46.647,35.8751,40.8127
12:33:46.657,35.0001,39.8752
12:33:46.667,33.6251,41.1252
12:33:46.676,33.4376,39.0626
12:33:46.688,31.5626,37.5001
12:33:46.697,29.2501,35.4376
12:33:46.707,27.8751,34.7501
12:33:46.720,28.6251,34.2501
12:33:46.738,29.1876,34.1876
12:33:46.740,30.0626,34.8751
12:33:46.754,30.0001,35.0626
12:33:46.769,30.6251,33.8126
12:33:46.771,29.9376,32.4376
12:33:46.784,27.6251,31.2501
12:33:46.786,25.3126,29.0001
12:33:46.797,23.5626,26.6876
12:33:46.808,21.8751,25.9376
12:33:46.818,21.4376,24.5626
12:33:46.826,22.7501,24.3126
12:33:46.852,23.5626,24.6876
12:33:46.854,24.0626,25.1876
12:33:46.883,25.8126,24.9376
12:33:46.883,26.9376,25.2501
12:33:46.887,26.9376,25.8126
12:33:46.888,26.1876,24.1876
12:33:46.920,23.8126,22.3751
12:33:46.922,21.3126,20.8751
12:33:46.924,18.9376,17.9376
12:33:46.975,16.4376,15.3126
12:33:46.975,13.1876,13.9376
12:33:46.975,10.875,11.3125
12:33:46.977,7.4375,7.875
12:33:46.984,4.5625,7.375
12:33:46.985,4.4375,5.375
12:33:46.988,3.375,3.9375
12:33:47.013,1.625,2.625
12:33:47.016,0.9375,1.5625
12:33:47.017,0.75,2.1875
12:33:47.027,2.5625,2.4375
12:33:47.041,3.625,2.5625
12:33:47.046,3.9375,2.25
12:33:47.058,3.4375,2.125
12:33:47.067,2.8125,2.3125
12:33:47.077,3.25,1.25
12:33:47.087,2.8125,0.5625
12:33:47.097,1.6875,-1.0625
12:33:47.133,-1.375,-3.5625
12:33:47.134,-4.8125,-5.4375
12:33:47.152,-7.875,-8
12:33:47.157,-9.25,-9.75
12:33:47.157,-9.9375,-10.25
12:33:47.165,-11.5625,-12.4375
12:33:47.172,-13.8751,-14.1251
12:33:47.182,-14.1876,-14.0626
12:33:47.191,-13.7501,-13.7501
12:33:47.204,-12.625,-14.1876
12:33:47.214,-12.6875,-15.1876
12:33:47.244,-13.1876,-14.6876
12:33:47.247,-12.0625,-15.7501
12:33:47.248,-12.6875,-15.5001
12:33:47.256,-12.5625,-16.0001
12:33:47.264,-13.8751,-17.5626
12:33:47.272,-18.0626,-19.1876
12:33:47.281,-20.6876,-22.0626
12:33:47.292,-23.6876,-24.6876
12:33:47.302,-25.7501,-25.1251
12:33:47.313,-24.3751,-22.8126
12:33:47.322,-17.9376,-16.4376
12:33:47.333,-10.8125,-6.125
12:33:47.342,-2.3125,3.6875
12:33:47.351,4.375,13.3751
12:33:47.362,10.8125,22.0001
12:33:47.372,16.9376,30.1251
12:33:47.382,23.0626,36.8751
12:33:47.392,27.5626,42.5002
12:33:47.403,31.6876,48.1877
12:33:47.415,34.2501,50.5627
12:33:47.424,35.5626,52.4377
12:33:47.433,38.0001,55.1877
12:33:47.442,39.2501,56.5627
12:33:47.451,40.7502,57.3127
12:33:47.463,39.8127,58.3752
12:33:47.472,39.5002,57.1877
12:33:47.483,38.5626,55.9377
12:33:47.492,39.2502,57.2502
12:33:47.501,40.1877,57.3752
12:33:47.512,39.7502,58.3127
12:33:47.522,38.1876,58.2502
12:33:47.533,37.5626,56.9377
12:33:47.543,37.0001,55.7502
12:33:47.569,35.1251,54.5627
12:33:47.572,35.3126,54.1877
12:33:47.574,34.3126,52.8127
12:33:47.607,33.1876,51.8127
12:33:47.609,32.4376,51.0002
12:33:47.612,32.1876,49.5627
12:33:47.615,33.0001,50.1877
12:33:47.645,36.6876,52.9377
12:33:47.647,40.5627,55.0002
12:33:47.649,43.1252,56.5627
12:33:47.656,45.3127,58.5002
12:33:47.664,46.0627,58.6252
12:33:47.695,45.8752,58.7502
12:33:47.697,45.2502,58.3752
12:33:47.699,43.1252,57.1252
12:33:47.703,41.8752,55.7502
12:33:47.722,40.3752,54.0627
12:33:47.723,38.3126,52.7502
12:33:47.732,37.6251,51.0627
12:33:47.742,37.8126,50.2502
12:33:47.752,39.5002,51.5002
12:33:47.762,39.8127,51.1252
12:33:47.772,40.2502,50.4377
12:33:47.782,39.9377,50.5627
12:33:47.796,40.1877,49.6252
12:33:47.803,39.0626,47.3752
12:33:47.813,37.8126,46.4377
12:33:47.823,35.4376,43.7502
12:33:47.832,33.6251,41.1877
12:33:47.843,32.0001,39.3752
12:33:47.852,29.4376,37.6251
12:33:47.862,27.3126,36.6251
12:33:47.873,27.3751,35.0001
12:33:47.882,25.7501,33.2501
12:33:47.891,24.9376,31.8126
12:33:47.902,25.5626,31.1876
12:33:47.912,25.2501,30.4376
12:33:47.922,23.6251,28.5626
12:33:47.932,23.0626,27.6876
12:33:47.942,22.8126,26.3126
12:33:47.952,22.1876,26.3751
12:33:47.962,22.4376,26.6251
12:33:47.972,23.5001,25.4376
12:33:47.982,23.6251,25.7501
12:33:47.992,22.5626,23.9376
12:33:48.002,22.0001,21.7501
12:33:48.013,20.8751,21.0626
12:33:48.022,19.8751,20.0001
12:33:48.032,18.2501,18.3751
12:33:48.042,16.8751,17.1876
12:33:48.063,15.6251,15.3126
12:33:48.065,13.8751,14.2501
12:33:48.077,13.9376,13.6876
12:33:48.083,12.6875,12.8125
12:33:48.098,12.0625,10.9375
12:33:48.114,10,8.875
12:33:48.117,9.875,8.5625
12:33:48.124,12.6875,9.5
12:33:48.132,15.5001,10.75
12:33:48.142,17.3751,10.875
12:33:48.152,17.3751,10.0625
12:33:48.166,16.3751,10.5
12:33:48.172,14.3751,8.5
12:33:48.182,13.8751,7.6875
12:33:48.192,13.0625,5.3125
12:33:48.202,11.0625,3.375
12:33:48.213,9.5625,1.75
12:33:48.223,7.75,0.1875
12:33:48.232,5.625,-0.5625
12:33:48.244,4.25,-3.375
12:33:48.252,4.3125,-3.75
12:33:48.262,4.125,-4.9375
12:33:48.298,3.625,-5.625
12:33:48.300,4.8125,-4.5
12:33:48.302,5.9375,-4.5
12:33:48.304,5.4375,-4.6875
12:33:48.313,6.375,-4.5
12:33:48.344,5.875,-6.375
12:33:48.347,5.3125,-7.125
12:33:48.349,4.3125,-7.25
12:33:48.374,5.1875,-8.125
12:33:48.375,4.75,-8.9375
12:33:48.377,3.4375,-9.1875
12:33:48.385,3.4375,-10.25
12:33:48.393,3.9375,-10.875
12:33:48.419,7.9375,-6.6875
12:33:48.421,12.25,-2.6875
12:33:48.444,18.4376,6.75
12:33:48.458,26.6251,17.1251
12:33:48.461,33.2501,27.3751
12:33:48.475,38.8751,36.8751
12:33:48.475,43.3127,45.0627
12:33:48.476,47.1252,51.3752
12:33:48.485,48.8127,57.1877
12:33:48.492,48.6252,60.7502
12:33:48.524,48.4377,61.0002
12:33:48.524,49.1252,62.5002
12:33:48.527,50.0627,65.3752
12:33:48.534,50.3752,68.3128
12:33:48.547,50.5002,68.0628
12:33:48.552,47.9377,67.6253
12:33:48.563,46.2502,67.0628
12:33:48.572,46.3752,67.7503
12:33:48.582,46.4377,68.1878
12:33:48.593,46.7502,69.0628
12:33:48.603,47.4377,70.7503
12:33:48.612,47.6877,71.3753
12:33:48.622,49.1252,72.0003
12:33:48.633,51.3752,74.4378
12:33:48.642,53.3752,76.1253
12:33:48.652,54.1252,77.1878
12:33:48.663,53.1252,76.0628
12:33:48.672,52.2502,75.8753
12:33:48.682,51.8752,74.8753
12:33:48.692,51.3752,73.1253
12:33:48.702,50.6252,71.7503
12:33:48.712,50.4377,72.7503
12:33:48.722,50.7502,72.1878
12:33:48.732,50.8752,71.3753
12:33:48.743,52.0002,71.9378
12:33:48.751,53.3752,73.8753
12:33:48.762,55.5627,74.5628
12:33:48.773,57.8752,75.3753
12:33:48.784,59.0627,76.1253
12:33:48.792,59.0002,75.9378
12:33:48.802,58.2502,76.0003
12:33:48.812,57.1877,74.4378
12:33:48.823,55.7502,73.6878
12:33:48.832,54.5002,71.8753
12:33:48.842,53.3752,70.6253
12:33:48.852,51.8127,68.6253
12:33:48.863,49.3127,66.5628
12:33:48.872,47.7502,64.1252
12:33:48.881,45.3752,62.3752
12:33:48.892,43.3127,60.6252
12:33:48.902,40.8752,58.3752
12:33:48.917,38.5626,54.6877
12:33:48.922,37.7501,53.0002
12:33:48.932,38.2501,54.5002
12:33:48.942,39.0627,53.8127
12:33:48.953,39.5627,52.1252
12:33:48.962,39.1877,51.0627
12:33:48.972,39.5627,51.1252
12:33:48.982,39.1252,50.5627
12:33:48.991,38.0626,48.6252
12:33:49.002,35.7501,45.7502
12:33:49.012,33.1251,44.1877
12:33:49.021,31.8126,42.0627
12:33:49.033,29.3126,38.2501
12:33:49.044,26.6876,36.2501
12:33:49.052,25.6251,34.9376
12:33:49.069,25.9376,33.6251
12:33:49.072,24.7501,32.0626
12:33:49.103,24.2501,32.2501
12:33:49.105,22.7501,29.9376
12:33:49.108,21.7501,28.3126
12:33:49.113,21.6251,27.8751
12:33:49.142,22.1251,26.3751
12:33:49.145,21.6876,25.1251
12:33:49.147,21.0626,24.6251
12:33:49.154,21.0001,24.1251
12:33:49.191,20.8126,22.8126
12:33:49.193,19.1251,20.5001
12:33:49.196,18.3751,20.1876
12:33:49.198,18.1876,19.6876
12:33:49.202,19.5626,19.0626
12:33:49.233,20.1251,18.2501
12:33:49.234,20.4376,17.9376
12:33:49.238,20.3751,17.7501
12:33:49.243,20.6251,15.6876
12:33:49.253,19.3126,14.3751
12:33:49.261,19.0001,13.7501
12:33:49.273,17.5626,13
12:33:49.284,17.8126,11.1875
12:33:49.292,15.7501,8.5625
12:33:49.302,14.5001,7.3125
12:33:49.313,12.1875,6.1875
12:33:49.322,10.6875,4
12:33:49.334,8.5625,1.5
12:33:49.342,5.4375,-1.75
12:33:49.353,1.125,-4.9375
12:33:49.362,-2.625,-7.625
12:33:49.382,-6.9375,-11.4375
12:33:49.384,-10.3125,-14.2501
12:33:49.399,-13.3751,-17.3126
12:33:49.415,-14.8126,-17.5626
12:33:49.415,-14.5626,-18.8751
12:33:49.422,-14.2501,-20.0626
12:33:49.433,-13.9376,-18.0001
12:33:49.442,-12.1875,-18.2501
12:33:49.452,-10.8125,-18.8751
12:33:49.462,-10.125,-19.1876
12:33:49.472,-10,-19.1876
12:33:49.482,-10.6875,-20.3126
12:33:49.492,-10.5625,-21.8751
12:33:49.503,-11.75,-22.6251
12:33:49.511,-13.1876,-23.6876
12:33:49.522,-12.5625,-25.1251
12:33:49.532,-12.25,-23.8751
12:33:49.542,-11.75,-24.3751
12:33:49.552,-11.1875,-22.3126
12:33:49.562,-7.0625,-16.6251
12:33:49.572,-1.875,-7.8125
12:33:49.582,5.6875,3.0625
12:33:49.593,12.125,13.3751
12:33:49.602,18.5001,22.6876
12:33:49.612,22.8751,30.8751
12:33:49.622,27.0626,37.7501
12:33:49.633,29.5626,43.4377
12:33:49.642,32.2501,46.5002
12:33:49.652,35.5001,51.6252
12:33:49.668,37.4376,55.8127
12:33:49.675,39.2502,56.4377
12:33:49.684,40.8752,59.0002
12:33:49.692,42.0627,60.0627
12:33:49.701,42.6252,62.2502
12:33:49.712,42.7502,62.0002
12:33:49.722,42.8127,63.4377
12:33:49.733,42.8752,63.8752
12:33:49.741,42.0627,63.3752
12:33:49.759,40.5627,64.1877
12:33:49.766,39.8127,63.5002
12:33:49.834,38.9376,62.5002
12:33:49.834,37.7501,62.3127
12:33:49.868,37.5626,63.3752
12:33:49.868,37.6876,62.6877
12:33:49.868,36.8751,61.1877
12:33:49.868,38.6251,62.0627
12:33:49.871,39.1876,62.3752
12:33:49.898,38.7501,59.7502
12:33:49.900,37.7501,60.3127
12:33:49.900,37.4376,58.1252
12:33:49.903,37.8126,59.1877
12:33:49.908,38.6251,58.8752
12:33:49.914,39.5002,59.3752
12:33:49.944,40.1252,59.7502
12:33:49.946,40.6877,59.9377
12:33:49.948,41.0002,60.5627
12:33:49.953,40.7502,58.9377
12:33:49.979,39.5627,58.1877
12:33:49.982,39.3127,57.8752
12:33:49.986,37.7501,56.0627
12:33:49.992,36.5626,54.8752
12:33:50.003,31.9376,50.6877
12:33:50.013,30.1876,48.8752
12:33:50.022,28.3126,47.2502
12:33:50.034,27.6876,46.0627
12:33:50.042,26.6876,43.9377
12:33:50.053,27.6251,44.0002
12:33:50.061,29.1876,44.5002
12:33:50.071,30.5001,43.9377
12:33:50.083,31.7501,43.9377
12:33:50.093,31.3751,43.3127
12:33:50.102,29.6876,42.5627
12:33:50.111,29.7501,40.3127
12:33:50.121,28.3126,39.7502
12:33:50.133,27.3126,36.8751
12:33:50.142,24.3126,34.1876
12:33:50.152,23.2501,31.9376
12:33:50.161,21.1251,30.3126
12:33:50.172,20.1251,29.2501
12:33:50.183,19.3751,26.7501
12:33:50.192,18.3126,25.8126
12:33:50.202,17.5626,24.2501
12:33:50.211,17.8126,23.1251
12:33:50.222,18.0626,23.6251
12:33:50.233,15.1876,21.6251
12:33:50.242,12.8125,18.8126
12:33:50.252,9.75,16.2501
12:33:50.261,8.0625,14.6876
12:33:50.271,7.1875,12.6875
12:33:50.283,7.25,13.2501
12:33:50.292,8.625,12
12:33:50.302,8.25,11.75
12:33:50.312,7.875,11.3125
12:33:50.322,7.25,9.5
12:33:50.331,6.4375,8.625
12:33:50.342,6.4375,7.75
12:33:50.353,5.5,7.25
12:33:50.363,4.0625,5.125
12:33:50.372,2.125,2.125
12:33:50.382,0.4375,2.25
12:33:50.392,1,-0.5
12:33:50.402,0.75,-0.1875
12:33:50.417,1.4375,-0.625
12:33:50.422,1.875,-1.1875
12:33:50.433,3.0625,-1.4375
12:33:50.443,3.75,-1.9375
12:33:50.452,3.625,-2
12:33:50.463,3.6875,-2.6875
12:33:50.472,3.375,-3.4375
12:33:50.482,3.3125,-4.375
12:33:50.491,2.3125,-4.875
12:33:50.501,1.6875,-6.0625
12:33:50.512,0.8125,-8.25
12:33:50.543,0,-7.9375
12:33:50.544,1.875,-6.625
12:33:50.547,4.9375,-3.125
12:33:50.552,9.875,5.3125
12:33:50.585,16.3751,13.9376
12:33:50.586,24.1251,25.5626
12:33:50.588,31.0001,34.3126
12:33:50.597,37.1251,43.3752
12:33:50.621,41.0002,51.6252
12:33:50.624,44.6252,56.7502
12:33:50.625,44.5002,60.8752
12:33:50.632,45.5002,62.6252
12:33:50.704,45.2502,64.9377
12:33:50.706,45.9377,65.5627
12:33:50.716,45.0002,67.6253
12:33:50.717,45.9377,68.1253
12:33:50.733,44.8752,70.0003
12:33:50.734,46.5002,70.3753
12:33:50.739,47.8127,72.2503
12:33:50.739,48.6877,73.1878
12:33:50.741,48.6252,73.8753
12:33:50.752,49.0002,74.9378
12:33:50.762,49.3752,75.4378
12:33:50.774,48.6877,74.7503
12:33:50.782,48.3752,75.8128
12:33:50.792,47.7502,75.0003
12:33:50.803,47.5627,73.8753
12:33:50.814,45.4377,71.1878
12:33:50.823,43.5002,69.5003
12:33:50.832,41.0002,67.0628
12:33:50.842,39.6252,64.9377
12:33:50.852,38.3751,64.7502
12:33:50.862,38.0626,63.3127
12:33:50.872,38.5626,63.4377
12:33:50.881,38.3126,62.7502
12:33:50.892,38.5626,62.0627
12:33:50.902,39.7502,63.8752
12:33:50.912,38.4376,63.1252
12:33:50.922,36.9376,61.6252
12:33:50.932,35.6876,60.5002
12:33:50.942,34.7501,58.5627
12:33:50.952,32.0001,57.1877
12:33:50.963,29.6876,55.5627
12:33:50.971,28.6251,52.8752
12:33:50.981,28.0626,52.0002
12:33:50.991,28.5626,50.3752
12:33:51.002,28.1251,49.2502
12:33:51.012,29.1876,48.6877
12:33:51.021,29.5626,47.8127
12:33:51.031,29.5001,47.3127
12:33:51.042,29.1251,45.9377
12:33:51.053,28.3751,44.9377
12:33:51.084,27.8126,43.1877
12:33:51.099,27.0626,41.8752
12:33:51.105,25.0001,40.1252
12:33:51.120,24.2501,37.7501
12:33:51.122,22.2501,36.1251
12:33:51.123,20.0001,32.8126
12:33:51.125,17.9376,30.8126
12:33:51.132,16.2501,27.7501
12:33:51.141,13.8751,25.4376
12:33:51.158,12.75,23.9376
12:33:51.167,11.5,21.6876
12:33:51.202,10.0625,20.8126
12:33:51.204,9.5,19.1251
12:33:51.206,8.3125,17.9376
12:33:51.208,6.5,15.9376
12:33:51.243,4.3125,13.8751
12:33:51.244,3.875,12.25
12:33:51.247,3.3125,11
12:33:51.249,3.75,10.125
12:33:51.280,3.875,9.5625
12:33:51.285,3.5,8.875
12:33:51.287,2.4375,6.75
12:33:51.288,0.75,5.125
12:33:51.319,-1.5625,3.375
12:33:51.320,-4.25,0.125
12:33:51.323,-8.75,-2.5
12:33:51.329,-9.9375,-5.25
12:33:51.339,-10.5,-6.625
12:33:51.360,-10.75,-8
12:33:51.363,-11.625,-9.1875
12:33:51.368,-12.875,-10.125
12:33:51.377,-12.9375,-11.8125
12:33:51.386,-14.9376,-13.4376
12:33:51.398,-16.9376,-15.8751
12:33:51.407,-18.2501,-17.4376
12:33:51.418,-19.3126,-18.8751
12:33:51.428,-19.6251,-20.2501
12:33:51.437,-19.5001,-19.1876
12:33:51.447,-19.6876,-19.7501
12:33:51.457,-18.1876,-20.8751
12:33:51.469,-18.5626,-21.8751
12:33:51.477,-19.6251,-23.1251
12:33:51.486,-19.8126,-23.4376
12:33:51.497,-19.6876,-24.1251
12:33:51.507,-19.8751,-24.7501
12:33:51.517,-19.2501,-25.3751
12:33:51.527,-20.0001,-25.4376
12:33:51.542,-19.2501,-25.6876
12:33:51.547,-18.4376,-25.8751
12:33:51.558,-17.1251,-22.0626
12:33:51.568,-12.9375,-17.8751
12:33:51.577,-6.8125,-10.625
12:33:51.587,0.8125,0.875
12:33:51.597,6.75,10.5
12:33:51.609,12.1875,19.8751
12:33:51.617,15.5626,27.6251
12:33:51.627,19.4376,35.3126
12:33:51.637,21.8751,40.5002
12:33:51.647,24.1251,46.2502
12:33:51.656,27.1876,50.6252
12:33:51.667,29.0626,54.5002
12:33:51.677,31.4376,58.0627
12:33:51.686,33.0001,61.0627
12:33:51.697,34.9376,63.9377
12:33:51.707,36.8751,66.0003
12:33:51.717,37.4376,68.8128
12:33:51.727,38.1876,70.7503
12:33:51.737,37.9376,71.6878
12:33:51.747,37.6251,72.8128
12:33:51.757,37.4376,74.9378
12:33:51.767,37.4376,74.8753
12:33:51.777,38.0001,75.1878
12:33:51.787,37.5626,75.8753
12:33:51.797,37.4376,77.4378
12:33:51.807,36.8751,77.1253
12:33:51.817,36.7501,75.1253
12:33:51.827,36.3751,75.8753
12:33:51.837,35.9376,75.5003
12:33:51.848,35.5001,73.4378
12:33:51.857,35.3751,71.6878
12:33:51.868,34.0626,70.6878
12:33:51.876,33.9376,69.9378
12:33:51.888,33.0001,69.5628
12:33:51.897,31.4376,68.5628
12:33:51.906,30.7501,68.1253
12:33:51.922,31.9376,67.0628
12:33:51.927,32.3126,68.6878
12:33:51.937,33.0626,69.0003
12:33:51.970,34.3126,67.8128
12:33:51.972,34.2501,68.3753
12:33:51.974,32.7501,67.1253
12:33:51.977,31.7501,65.0002
12:33:52.007,31.3126,64.0627
12:33:52.009,30.0001,63.0627
12:33:52.062,28.6876,61.6877
12:33:52.063,27.2501,59.3752
12:33:52.066,25.6251,56.5627
12:33:52.067,24.3751,54.5002
12:33:52.070,23.2501,52.0002
12:33:52.071,22.0626,50.9377
12:33:52.101,21.2501,49.2502
12:33:52.102,19.7501,46.5627
12:33:52.102,17.2501,44.6877
12:33:52.106,13.3126,40.6877
12:33:52.111,7.5,36.0001
12:33:52.119,0.75,30.6251
12:33:52.129,-8.125,23.0001
12:33:52.138,-17.3751,17.1876
12:33:52.147,-24.0626,10.25
12:33:52.157,-32.6876,3.25
12:33:52.167,-40.6877,-3.0625
12:33:52.178,-48.2502,-10.1875
12:33:52.186,-55.0002,-17.5001
12:33:52.196,-65.1253,-25.9376
12:33:52.207,-80.0628,-39.5002
12:33:52.217,-85.1878,-45.4377
12:33:52.227,-89.3753,-49.8127
12:33:52.239,-98.8754,-56.2502
12:33:52.247,-103.8754,-59.3752
12:33:52.257,-101.7504,-58.5002
12:33:52.268,-99.2504,-57.2502
12:33:52.277,-99.5629,-59.0627
12:33:52.287,-97.3129,-58.3752
12:33:52.298,-91.8129,-56.1877
12:33:52.308,-87.7503,-55.5627
12:33:52.317,-87.3128,-54.3752
12:33:52.327,-87.5628,-57.5002
12:33:52.338,-86.7503,-57.2502
12:33:52.364,-83.8128,-56.6252
12:33:52.367,-78.7503,-56.5002
12:33:52.369,-75.3753,-54.8127
12:33:52.388,-73.0628,-53.6252
12:33:52.390,-69.6253,-52.5002
12:33:52.405,-65.4377,-50.4377
12:33:52.408,-60.5627,-48.1877
12:33:52.422,-55.8127,-44.5627
12:33:52.426,-52.1877,-42.8127
12:33:52.438,-50.3752,-43.3127
12:33:52.448,-51.0002,-43.3127
12:33:52.458,-51.6252,-46.0627
12:33:52.467,-52.8127,-46.5002
12:33:52.477,-53.1877,-48.6252
12:33:52.487,-52.3127,-49.0002
12:33:52.496,-52.8127,-49.8752
12:33:52.508,-52.0002,-51.0002
12:33:52.517,-53.3127,-52.1877
12:33:52.527,-53.1877,-52.9377
12:33:52.538,-53.2502,-53.3752
12:33:52.549,-53.1877,-55.1877
12:33:52.558,-52.5002,-55.1877
12:33:52.567,-48.0002,-51.7502
12:33:52.577,-43.3127,-46.6877
12:33:52.586,-35.3751,-38.0001
12:33:52.597,-29.3126,-28.6251
12:33:52.608,-21.0626,-18.0626
12:33:52.618,-14.5626,-6.9375
12:33:52.627,-9.4375,0.3125
12:33:52.637,-4.8125,8.6875
12:33:52.647,-2,14.8751
12:33:52.657,2.5,21.8751
12:33:52.673,5.8125,28.6251
12:33:52.677,9.1875,32.3751
12:33:52.687,10.6875,35.6876
12:33:52.699,12.4375,38.5626
12:33:52.707,19.0626,42.9377
12:33:52.717,23.5626,47.2502
12:33:52.730,25.3126,47.6877
12:33:52.760,27.6251,49.6252
12:33:52.760,30.4376,52.1252
12:33:52.763,32.8126,53.6877
12:33:52.774,28.1876,53.1877
12:33:52.779,20.0001,50.9377
12:33:52.812,16.3126,51.0627
12:33:52.814,9.875,47.0002
12:33:52.817,10.375,45.8127
12:33:52.825,11.6875,46.6252
12:33:52.830,18.4376,50.1877
12:33:52.838,23.8751,52.5002
12:33:52.867,24.0001,52.5627
12:33:52.870,22.9376,51.4377
12:33:52.872,19.1876,48.0002
12:33:52.881,16.7501,45.5002
12:33:52.888,15.8751,44.5002
12:33:52.904,18.0626,44.9377
12:33:52.907,21.8751,47.3752
12:33:52.917,25.2501,48.9377
12:33:52.927,25.6251,48.3127
12:33:52.937,23.6251,46.9377
12:33:52.947,24.6251,46.6252
12:33:52.956,25.5626,46.6252
12:33:52.967,24.1876,45.5002
12:33:52.977,21.5626,43.3752
12:33:52.987,18.2501,40.6877
12:33:52.998,15.3126,37.3751
12:33:53.007,12.0625,33.8126
12:33:53.017,8.875,31.5001
12:33:53.026,8.3125,31.1876
12:33:53.038,9.5625,32.1876
12:33:53.048,9.5625,30.5001
12:33:53.057,8.75,28.1251
12:33:53.067,6.25,26.7501
12:33:53.076,5.8125,24.3751
12:33:53.087,5.625,22.9376
12:33:53.098,5.1875,21.0626
12:33:53.108,4.1875,20.3126
12:33:53.117,4.0625,18.0001
12:33:53.128,2.125,14.4376
12:33:53.139,-1.1875,10.5
12:33:53.147,-4.375,7.75
12:33:53.157,-6.4375,3.75
12:33:53.167,-7.5,1.5
12:33:53.177,-9.625,0.5
12:33:53.188,-11,-2.3125
12:33:53.196,-13.1876,-6.5
12:33:53.208,-16.5626,-9.75
12:33:53.217,-18.6876,-11.4375
12:33:53.226,-19.4376,-13.5001
12:33:53.238,-20.1876,-16.0001
12:33:53.247,-21.8126,-17.6876
12:33:53.257,-22.8751,-19.0626
12:33:53.267,-24.5626,-20.8126
12:33:53.277,-25.8126,-23.5001
12:33:53.287,-28.1876,-25.7501
12:33:53.297,-29.1876,-26.0001
12:33:53.315,-29.4376,-28.9376
12:33:53.316,-30.5001,-30.2501
12:33:53.331,-30.3126,-30.2501
12:33:53.337,-29.9376,-31.2501
12:33:53.348,-28.8126,-30.4376
12:33:53.357,-27.3751,-31.4376
12:33:53.367,-26.6251,-30.8751
12:33:53.377,-25.6876,-31.4376
12:33:53.386,-24.4376,-30.9376
12:33:53.406,-24.6876,-31.8751
12:33:53.409,-25.9376,-33.0626
12:33:53.438,-25.6251,-32.1876
12:33:53.441,-22.3751,-29.4376
12:33:53.443,-27.4376,-30.2501
12:33:53.448,-28.1876,-28.3126
12:33:53.476,-24.7501,-22.1251
12:33:53.478,-23.5626,-16.1251
12:33:53.480,-20.0001,-8.75
12:33:53.510,-15.5626,-0.75
12:33:53.510,-10.125,7.3125
12:33:53.512,-5,16.8126
12:33:53.519,-0.1875,24.2501
12:33:53.527,4.75,31.5626
12:33:53.560,6.625,37.2501
12:33:53.561,8.25,40.0002
12:33:53.565,10.6875,45.3127
12:33:53.568,10.8125,47.2502
12:33:53.580,13.6876,49.4377
12:33:53.588,15.7501,53.6877
12:33:53.597,18.7501,54.8127
12:33:53.609,21.1876,58.1877
12:33:53.617,21.6251,59.0002
12:33:53.643,21.8751,58.7502
12:33:53.645,21.6876,60.3752
12:33:53.650,21.2501,60.3752
12:33:53.658,20.5626,60.7502
12:33:53.667,21.6876,62.1252
12:33:53.676,23.2501,63.8127
12:33:53.692,23.3751,64.5627
12:33:53.707,22.0626,63.6877
12:33:53.708,19.9376,62.5002
12:33:53.717,17.8751,60.0002
12:33:53.726,15.5001,57.8752
12:33:53.737,13.5001,56.3127
12:33:53.748,12.125,53.6877
12:33:53.757,10.5,51.1877
12:33:53.766,8.9375,48.4377
12:33:53.779,6.8125,46.8752
12:33:53.788,6.1875,45.9377
12:33:53.797,5.5,44.0002
12:33:53.807,4.5625,43.2502
12:33:53.818,4.5625,41.6252
12:33:53.826,4.6875,40.7502
12:33:53.837,2.625,38.3126
12:33:53.846,2.6875,37.6876
12:33:53.856,4,38.5626
12:33:53.867,3.3125,36.2501
12:33:53.879,2.6875,33.2501
12:33:53.887,-0.0625,30.5001
12:33:53.897,-1.4375,28.8126
12:33:53.908,-2.0625,26.9376
12:33:53.917,-3.5,24.3751
12:33:53.926,-4.75,21.2501
12:33:53.937,-5.625,20.9376
12:33:53.948,-6,18.0626
12:33:53.960,-6.8125,16.2501
12:33:53.967,-7.9375,13.6251
12:33:53.978,-9.4375,10.75
12:33:53.988,-11.6875,8.4375
12:33:53.997,-13.1876,4.6875
12:33:54.007,-17.0001,0.9375
12:33:54.020,-19.6876,-2.1875
12:33:54.027,-21.3751,-4.4375
12:33:54.037,-21.8126,-7.75
12:33:54.051,-23.1251,-9.875
12:33:54.058,-23.9376,-11.0625
12:33:54.067,-23.8751,-12.4375
12:33:54.078,-24.2501,-14.8126
12:33:54.086,-24.0001,-15.4376
12:33:54.098,-24.9376,-17.3126
12:33:54.107,-26.7501,-19.5626
12:33:54.117,-29.1876,-20.5626
12:33:54.126,-30.0626,-24.0001
12:33:54.137,-31.8126,-25.0001
12:33:54.172,-33.1251,-27.3126
12:33:54.174,-35.0001,-30.3751
12:33:54.177,-37.5001,-32.1251
12:33:54.179,-39.1252,-30.4376
12:33:54.210,-36.8751,-30.1876
12:33:54.214,-45.9377,-33.0626
12:33:54.215,-47.9377,-34.0626
12:33:54.218,-52.1252,-33.9376
12:33:54.228,-56.9377,-39.8127
12:33:54.262,-59.6877,-40.8127
12:33:54.265,-60.2502,-42.0627
12:33:54.267,-60.3127,-42.9377
12:33:54.269,-60.3127,-43.1252
12:33:54.300,-59.9377,-45.2502
12:33:54.303,-60.4377,-46.2502
12:33:54.304,-61.0627,-46.9377
12:33:54.307,-60.3127,-46.6877
12:33:54.334,-58.3752,-48.1252
12:33:54.337,-57.1252,-47.4377
12:33:54.338,-54.7502,-48.5627
12:33:54.348,-52.4377,-48.9377
12:33:54.357,-51.5627,-49.6252
12:33:54.369,-50.6252,-50.1877
12:33:54.378,-50.6877,-50.5002
12:33:54.387,-51.3752,-53.3752
12:33:54.398,-53.1877,-54.9377
12:33:54.407,-55.5002,-58.1252
12:33:54.418,-57.5627,-60.0002
12:33:54.427,-60.1252,-61.3127
12:33:54.438,-61.3752,-64.2502
12:33:54.448,-60.8127,-63.0627
12:33:54.457,-57.3127,-62.1877
12:33:54.468,-55.2502,-60.6252
12:33:54.477,-54.8127,-59.1877
12:33:54.488,-53.4377,-58.4377
12:33:54.497,-49.8127,-52.7502
12:33:54.510,-43.5627,-46.0627
12:33:54.517,-36.2501,-35.3751
12:33:54.528,-28.2501,-23.9376
12:33:54.538,-21.0626,-14.2501
12:33:54.547,-14.5001,-4.1875
12:33:54.558,-9.25,3.8125
12:33:54.568,-4.875,10.3125
12:33:54.577,-2.75,15.8126
12:33:54.587,-0.4375,18.5626
12:33:54.596,2,22.4376
12:33:54.611,4.5625,25.8126
12:33:54.627,6.125,29.3751
12:33:54.629,6.9375,30.5001
12:33:54.638,7.6875,31.6251
12:33:54.647,7.9375,32.8126
12:33:54.658,8.4375,33.3126
12:33:54.666,8.6875,35.1876
12:33:54.677,9.625,36.8126
12:33:54.688,9.75,37.5626
12:33:54.696,10.25,39.3127
12:33:54.713,10.5625,38.8751
12:33:54.718,9.25,40.3127
12:33:54.727,8.25,37.9376
12:33:54.738,6.1875,36.0626
12:33:54.747,4.5625,34.6876
12:33:54.758,2.625,33.0626
12:33:54.769,2,31.1251
12:33:54.777,1.4375,30.0001
12:33:54.786,1.125,28.0626
12:33:54.797,-0.25,26.0626
12:33:54.806,-0.4375,25.0626
12:33:54.817,-1.0625,23.8126
12:33:54.827,-0.4375,23.6251
12:33:54.839,-1,23.5626
12:33:54.847,-0.0625,23.4376
12:33:54.858,-0.4375,22.1876
12:33:54.868,-0.25,22.5001
12:33:54.877,0.5,22.1251
12:33:54.887,1.3125,22.3751
12:33:54.898,1.1875,22.3126
12:33:54.923,1.75,21.3751
12:33:54.925,0,20.8751
12:33:54.927,-1.6875,20.6251
12:33:54.961,-0.5,20.8751
12:33:54.966,-0.4375,19.6251
12:33:54.967,-7.75,17.5001
12:33:54.971,-10.5,15.0001
12:33:55.010,-11.6875,15.8751
12:33:55.012,-16.8751,11.5
12:33:55.014,-18.5626,10.8125
12:33:55.022,-18.3751,9.3125
12:33:55.022,-19.8126,8.4375
12:33:55.026,-22.3126,5.25
12:33:55.056,-23.8126,3.125
12:33:55.058,-26.6876,0.5625
12:33:55.063,-27.9376,-2.125
12:33:55.068,-29.0001,-4.0625
12:33:55.091,-28.1876,-6.125
12:33:55.093,-27.5626,-7.75
12:33:55.102,-26.8126,-9.6875
12:33:55.107,-26.7501,-10.75
12:33:55.120,-27.1876,-13.6876
12:33:55.128,-27.1876,-13.2501
12:33:55.138,-27.0001,-15.1251
12:33:55.150,-28.2501,-16.1876
12:33:55.163,-29.6251,-19.3126
12:33:55.172,-30.5001,-20.7501
12:33:55.183,-31.6251,-21.1251
12:33:55.193,-31.7501,-23.0001
12:33:55.202,-32.7501,-23.9376
12:33:55.213,-33.3126,-23.8751
12:33:55.222,-33.8126,-26.5626
12:33:55.232,-34.0626,-26.7501
12:33:55.242,-35.3126,-28.1251
12:33:55.253,-35.3751,-30.0001
12:33:55.262,-36.2501,-31.1876
12:33:55.274,-35.2501,-32.0001
12:33:55.283,-36.1876,-33.1876
12:33:55.293,-36.6876,-35.1876
12:33:55.301,-38.1251,-37.1876
12:33:55.313,-39.5627,-39.0626
12:33:55.321,-41.5002,-42.4377
12:33:55.333,-41.8752,-44.1252
12:33:55.342,-42.8127,-45.5002
12:33:55.352,-43.8752,-47.6252
12:33:55.363,-44.9377,-50.3127
12:33:55.373,-45.0002,-51.5627
12:33:55.382,-46.6252,-53.9377
12:33:55.395,-47.0627,-56.5002
12:33:55.404,-46.4377,-57.3752
12:33:55.412,-46.5627,-58.0002
12:33:55.423,-44.5627,-56.0627
12:33:55.431,-41.3752,-52.8752
12:33:55.443,-36.1876,-47.2502
12:33:55.456,-28.5001,-35.9376
12:33:55.467,-19.6876,-24.0001
12:33:55.472,-11.8125,-12.5
12:33:55.484,-5.5625,-3.875
12:33:55.493,-0.9375,4.75
12:33:55.502,2.0625,10.1875
12:33:55.513,3.625,15.2501
12:33:55.523,6.125,20.3126
12:33:55.533,8.5,23.6251
12:33:55.542,10,25.9376
12:33:55.551,10.125,27.8751
12:33:55.563,9.625,27.6251
12:33:55.573,9.125,28.5001
12:33:55.583,9.5,30.6876
12:33:55.612,11.875,31.6876
12:33:55.613,12.3125,33.6251
12:33:55.615,12.25,33.5626
12:33:55.622,11.375,34.6251
12:33:55.662,11,34.3126
12:33:55.663,9.625,34.4376
12:33:55.665,9.8125,34.0626
12:33:55.693,10.375,33.6876
12:33:55.695,10.375,33.8751
12:33:55.697,8.9375,34.1251
12:33:55.698,10,35.0001
12:33:55.703,10.75,34.3751
12:33:55.736,3.1875,31.1251
12:33:55.737,-0.9375,29.0626
12:33:55.739,-1.9375,31.8126
12:33:55.743,-7.0625,27.3126
12:33:55.769,-11.5625,25.6251
12:33:55.773,-13.3751,24.1876
12:33:55.774,-15.1251,21.8751
12:33:55.782,-16.6876,20.6876
12:33:55.794,-17.6251,19.7501
12:33:55.803,-19.4376,19.5001
12:33:55.813,-19.1876,18.7501
12:33:55.821,-19.1251,17.3126
12:33:55.833,-17.8751,16.6251
12:33:55.841,-17.5001,15.4376
12:33:55.853,-16.6251,13.0625
12:33:55.863,-16.6876,11.5625
12:33:55.873,-16.3126,10.375
12:33:55.883,-17.2501,9.25
12:33:55.895,-17.0626,8.25
12:33:55.908,-19.0001,5.5
12:33:55.923,-21.5626,3.3125
12:33:55.926,-23.5626,-0.4375
12:33:55.933,-25.9376,-2.3125
12:33:55.941,-27.7501,-5.25
12:33:55.953,-30.3751,-7.25
12:33:55.963,-29.1251,-8.5
12:33:55.971,-31.5001,-9.3125
12:33:55.982,-32.4376,-12.1875
12:33:55.992,-33.8126,-13
12:33:56.001,-32.8126,-14.6251
12:33:56.015,-33.1251,-15.3126
12:33:56.023,-33.0001,-16.5001
12:33:56.034,-33.9376,-18.1251
12:33:56.043,-34.8751,-20.5626
12:33:56.053,-36.0626,-21.6876
12:33:56.063,-36.0001,-24.8751
12:33:56.073,-35.0626,-24.8751
12:33:56.084,-33.8751,-25.8126
12:33:56.093,-34.9376,-26.1251
12:33:56.103,-34.8126,-29.2501
12:33:56.113,-37.5626,-29.8126
12:33:56.122,-38.0626,-33.1876
12:33:56.134,-38.3751,-35.2501
12:33:56.143,-39.5002,-36.7501
12:33:56.153,-40.5002,-39.5627
12:33:56.163,-40.5627,-39.8752
12:33:56.171,-41.3127,-42.1877
12:33:56.204,-42.4377,-43.4377
12:33:56.211,-44.2502,-44.4377
12:33:56.211,-44.6252,-47.5627
12:33:56.214,-46.4377,-49.0002
12:33:56.225,-45.8752,-50.7502
12:33:56.239,-45.6877,-51.3127
12:33:56.244,-42.8127,-48.3127
12:33:56.253,-38.1876,-45.7502
12:33:56.262,-32.7501,-38.9376
12:33:56.283,-26.1876,-29.6251
12:33:56.289,-20.1876,-19.9376
12:33:56.317,-14.4376,-9.25
12:33:56.319,-8.625,0.625
12:33:56.322,-2.875,8.6875
12:33:56.324,1.75,15.7501
12:33:56.353,5.75,22.1251
12:33:56.356,9.875,28.4376
12:33:56.359,13.3126,32.8126
12:33:56.365,15.4376,35.6251
12:33:56.393,17.1251,39.8127
12:33:56.394,17.8126,40.6252
12:33:56.396,18.5001,43.1252
12:33:56.401,18.9376,45.0002
12:33:56.436,18.0001,46.4377
12:33:56.437,17.0001,46.8752
12:33:56.439,15.3751,47.0002
12:33:56.444,14.5001,49.9377
12:33:56.481,17.4376,54.5627
12:33:56.482,16.1876,56.9377
12:33:56.484,11.0625,55.2502
12:33:56.487,12.6875,58.4377
12:33:56.493,10.25,59.5627
12:33:56.503,5.375,56.1877
12:33:56.513,1.875,52.3752
12:33:56.522,-2.8125,47.6877
12:33:56.533,-6.1875,45.0002
12:33:56.542,-9.625,42.2502
12:33:56.552,-12.375,39.9377
12:33:56.562,-12.75,38.3126
12:33:56.573,-13.3751,38.1876
12:33:56.585,-12.625,37.6876
12:33:56.594,-11.5625,38.0001
12:33:56.603,-10.5625,37.1876
12:33:56.616,-8.75,37.0001
12:33:56.623,-7.9375,36.0001
12:33:56.633,-5.375,36.5001
12:33:56.642,-4.5625,35.9376
12:33:56.653,-4.4375,36.5001
12:33:56.662,-4.875,34.7501
12:33:56.673,-6.875,32.2501
12:33:56.683,-7.0625,30.8751
12:33:56.693,-8.75,28.6251
12:33:56.702,-9.75,27.5626
12:33:56.713,-11.5,24.6251
12:33:56.723,-12.9375,23.0001
12:33:56.732,-14.1251,20.6251
12:33:56.743,-15.3751,18.9376
12:33:56.751,-16.5626,16.6251
12:33:56.764,-17.5626,14.7501
12:33:56.771,-19.4376,12.125
12:33:56.783,-19.5001,9.8125
12:33:56.793,-21.1876,8.0625
12:33:56.804,-22.5626,4.6875
12:33:56.811,-23.8751,3.1875
12:33:56.823,-25.0001,-0.1875
12:33:56.832,-27.1876,-2.5
12:33:56.843,-29.0001,-6.25
12:33:56.852,-30.6876,-8.4375
12:33:56.863,-31.0001,-12
12:33:56.873,-32.4376,-13.4376
12:33:56.883,-33.1251,-16.7501
12:33:56.892,-34.0001,-18.5001
12:33:56.903,-33.2501,-19.2501
12:33:56.913,-32.3126,-20.3751
12:33:56.923,-32.9376,-21.8751
12:33:56.933,-33.5001,-23.8751
12:33:56.943,-33.9376,-26.0001
12:33:56.953,-34.0001,-26.4376
12:33:56.962,-32.7501,-27.6876
12:33:56.973,-31.8126,-28.3126
12:33:56.990,-32.0626,-29.1876
12:33:56.993,-31.3751,-30.8751
12:33:57.004,-34.1251,-33.6876
12:33:57.016,-36.6876,-37.5001
12:33:57.021,-38.8126,-39.7502
12:33:57.040,-40.8127,-42.7502
12:33:57.043,-40.9377,-43.9377
12:33:57.084,-41.3752,-46.3127
12:33:57.086,-41.8127,-46.3752
12:33:57.088,-42.0627,-48.4377
12:33:57.090,-42.7502,-49.3127
12:33:57.095,-42.9377,-51.9377
12:33:57.104,-43.8127,-53.0627
12:33:57.131,-43.8752,-54.1877
12:33:57.133,-44.3752,-56.0627
12:33:57.135,-43.6252,-55.8127
12:33:57.169,-43.1877,-56.8127
12:33:57.170,-42.9377,-56.8127
12:33:57.173,-44.5627,-58.0627
12:33:57.175,-47.5627,-61.1877
12:33:57.208,-50.9377,-62.4377
12:33:57.223,-50.8127,-60.0627
12:33:57.226,-51.0627,-58.9377
12:33:57.232,-55.9377,-58.0627
12:33:57.236,-48.0002,-49.2502
12:33:57.236,-42.0002,-41.0627
12:33:57.243,-37.3126,-30.2501
12:33:57.253,-29.6876,-19.5001
12:33:57.263,-23.6251,-7.4375
12:33:57.274,-17.4376,2.1875
12:33:57.284,-12.0625,12.5
12:33:57.294,-6.4375,21.3751
12:33:57.304,-1.625,29.7501
12:33:57.314,2.25,36.6876
12:33:57.322,4.9375,40.7502
12:33:57.332,7,46.1877
12:33:57.342,8.125,49.1877
12:33:57.351,11.0625,53.3752
12:33:57.365,13.8126,58.0002
12:33:57.372,15.5001,61.0002
12:33:57.383,17.0626,63.3752
12:33:57.393,18.7501,66.7503
12:33:57.403,20.3126,68.3128
12:33:57.416,21.5001,69.6253
12:33:57.423,21.5001,70.1878
12:33:57.433,21.5001,71.0003
12:33:57.442,20.8126,70.3753
12:33:57.453,20.1876,71.0003
12:33:57.482,19.7501,71.0003
12:33:57.485,18.3751,69.9378
12:33:57.487,17.8751,69.6878
12:33:57.492,16.6876,67.8128
12:33:57.504,15.3751,67.0628
12:33:57.513,13.7501,64.5002
12:33:57.523,13.2501,62.8752
12:33:57.533,12.75,61.3752
12:33:57.544,10.75,59.6877
12:33:57.556,9.3125,58.3127
12:33:57.562,8.75,55.7502
12:33:57.585,7.125,54.3752
12:33:57.587,6.25,52.1252
12:33:57.603,4.25,50.2502
12:33:57.604,4,48.3752
12:33:57.613,3.375,46.3752
12:33:57.623,3.625,45.3752
12:33:57.631,3.125,44.5002
12:33:57.643,3.25,42.5627
12:33:57.654,2.4375,42.0002
12:33:57.661,1.625,38.8126
12:33:57.672,-0.75,36.8751
12:33:57.683,-2.6875,32.2501
12:33:57.693,-6.5,29.0626
12:33:57.702,-8.625,24.8126
12:33:57.713,-10.375,22.5001
12:33:57.724,-9.8125,21.1876
12:33:57.743,-9.25,20.5626
12:33:57.747,-7.875,19.8126
12:33:57.772,-6.6875,17.8126
12:33:57.773,-8.375,16.8751
12:33:57.775,-6.625,17.5001
12:33:57.791,-7.8125,16.7501
12:33:57.793,-10.75,12.1875
12:33:57.826,-10.75,10.125
12:33:57.829,-12.9375,8.8125
12:33:57.831,-12.625,6.9375
12:33:57.838,-11.625,6.625
12:33:57.851,-12.125,4.9375
12:33:57.854,-12.625,3.875
12:33:57.887,-14.0001,1.3125
12:33:57.889,-14.7501,0
12:33:57.890,-14.1876,0
12:33:57.895,-11.9375,-0.75
12:33:57.921,-9.1875,1.875
12:33:57.923,-7.3125,0.875
12:33:57.926,-6.5625,1.75
12:33:57.934,-6.375,1
12:33:57.943,-7,-0.25
12:33:57.953,-9.5,-3.25
12:33:57.963,-11.9375,-5.6875
12:33:57.974,-14.5001,-7.25
12:33:57.983,-15.3126,-8.75
12:33:57.993,-13.3751,-9.8125
12:33:58.004,-11.4375,-8.625
12:33:58.013,-9.3125,-8.6875
12:33:58.023,-9.3125,-7.625
12:33:58.033,3.8125,6.3125
12:33:58.042,42.9377,25.3126
12:33:58.053,49.3752,30.5626
12:33:58.064,54.5627,33.0001
12:33:58.071,62.7502,37.1251
12:33:58.086,73.6253,43.9377
12:33:58.092,85.0003,51.1252
12:33:58.103,98.9379,59.6252
12:33:58.112,114.7504,70.2503
12:33:58.123,135.063,82.6878
12:33:58.133,155.0006,95.1879
12:33:58.143,167.8131,102.3129
12:33:58.151,163.7506,100.0629
12:33:58.163,147.8131,87.5628
12:33:58.173,134.1255,76.7503
12:33:58.184,132.8755,75.2503
12:33:58.193,147.1256,84.6253
12:33:58.204,168.0006,100.4379
12:33:58.215,185.8132,118.0005
12:33:58.226,202.3758,135.6255
12:33:58.233,215.2508,149.5631
12:33:58.243,222.7509,160.6256
12:33:58.253,225.3134,167.6256
12:33:58.262,225.5009,172.5632
12:33:58.273,231.3759,179.1882
12:33:58.282,242.8759,188.0632
12:33:58.297,257.5635,199.5008
12:33:58.304,266.5635,206.7508
12:33:58.312,267.876,208.8133
12:33:58.323,263.001,206.1258
12:33:58.333,258.0635,203.0633
12:33:58.343,253.0635,199.0633
12:33:58.353,242.1884,192.5632
12:33:58.364,229.8134,182.8132
12:33:58.373,222.5634,178.9382
12:33:58.382,215.5008,174.0007
12:33:58.393,209.3133,168.9381
12:33:58.404,206.6258,168.0631
12:33:58.413,201.6258,164.2506
12:33:58.422,195.5007,159.6256
12:33:58.433,187.7507,152.8756
12:33:58.442,180.8132,146.7505
12:33:58.453,176.6257,142.6255
12:33:58.461,173.0007,139.8755
12:33:58.473,169.6881,136.2505
12:33:58.483,165.5006,131.438
12:33:58.499,158.0006,126.6255
12:33:58.503,150.4381,118.2505
12:33:58.536,144.063,114.1254
12:33:58.539,140.563,111.5629
12:33:58.542,137.6255,108.2504
12:33:58.543,134.7505,106.3754
12:33:58.573,132.063,103.8129
12:33:58.577,129.0005,101.2504
12:33:58.578,124.188,97.0629
12:33:58.584,117.7505,93.1254
12:33:58.610,111.3754,87.7503
12:33:58.610,107.9379,84.1878
12:33:58.613,104.3754,80.6878
12:33:58.643,101.2504,78.1253
12:33:58.645,97.2504,74.2503
12:33:58.649,94.1879,71.3128
12:33:58.655,91.0629,67.9378
12:33:58.679,87.5003,65.5002
12:33:58.682,84.9378,62.3127
12:33:58.684,81.3753,59.0627
12:33:58.699,77.3753,54.3752
12:33:58.703,73.4378,50.9377
12:33:58.715,70.3753,47.6252
12:33:58.722,67.6253,44.2502
12:33:58.733,65.2502,42.2502
12:33:58.763,62.5627,38.5001
12:33:58.766,58.6252,35.8751
12:33:58.768,55.8752,31.7501
12:33:58.775,52.9377,29.4376
12:33:58.784,51.1252,26.4376
12:33:58.793,47.8752,23.8126
12:33:58.804,46.0002,21.2501
12:33:58.814,43.1252,18.5626
12:33:58.822,39.8127,15.6251
12:33:58.831,37.0626,13.5001
12:33:58.843,32.9376,9.375
12:33:58.853,28.7501,5.5625
12:33:58.863,24.1876,2.4375
12:33:58.880,21.2501,-1.5625
12:33:58.887,19.1876,-3.6875
12:33:58.902,17.1876,-5.5
12:33:58.904,14.9376,-7.75
12:33:58.912,13.7501,-9.5625
12:33:58.923,12.1875,-10.3125
12:33:58.933,10.1875,-12.5
12:33:58.943,8.4375,-15.1876
12:33:58.956,7.125,-16.8126
12:33:58.962,5.6875,-18.0001
12:33:58.974,4.75,-20.1876
12:33:58.983,2.8125,-22.2501
12:33:58.993,1.9375,-24.1251
12:33:59.003,-0.6875,-26.1251
12:33:59.013,-1.5625,-27.3751
12:33:59.025,-2.8125,-29.6876
12:33:59.034,-4.5,-29.9376
12:33:59.043,-4.375,-29.8751
12:33:59.053,-1.4375,-25.5626
12:33:59.069,4,-17.7501
12:33:59.073,10.5,-7.375
12:33:59.083,17.8126,4.1875
12:33:59.093,25.0001,14.5001
12:33:59.103,32.3751,25.1251
12:33:59.113,37.9376,33.4376
12:33:59.123,41.5627,40.0002
12:33:59.133,41.6252,41.8127
12:33:59.144,41.0627,43.8752
12:33:59.155,39.7502,44.1877
12:33:59.169,36.2501,44.0627
12:33:59.178,33.6876,42.1877
12:33:59.190,34.0626,43.5002
12:33:59.196,35.2501,44.1877
12:33:59.208,35.9376,45.5002
12:33:59.218,34.5626,47.5002
12:33:59.228,35.0626,46.0627
12:33:59.238,33.9376,47.0627
12:33:59.274,34.6251,47.2502
12:33:59.278,33.9376,47.3127
12:33:59.278,34.0626,46.6877
12:33:59.283,35.8751,47.3127
12:33:59.316,36.3126,48.3752
12:33:59.320,35.8751,46.3127
12:33:59.321,34.0001,43.8752
12:33:59.323,31.5001,41.2502
12:33:59.357,28.7501,38.1251
12:33:59.359,27.9376,36.3751
12:33:59.362,27.0626,33.7501
12:33:59.369,25.7501,33.1251
12:33:59.373,25.9376,31.0001
12:33:59.398,25.1251,30.3751
12:33:59.400,24.8751,30.1251
12:33:59.403,25.1876,28.8751
12:33:59.425,24.3751,29.1876
12:33:59.428,24.6251,27.1251
12:33:59.433,23.7501,26.6876
12:33:59.446,23.7501,25.7501
12:33:59.456,22.3126,23.9376
12:33:59.463,20.8126,23.3126
12:33:59.473,19.5626,20.8126
12:33:59.481,18.2501,18.0626
12:33:59.493,16.4376,16.5626
12:33:59.502,14.6251,13.6876
12:33:59.513,13.0625,11.875
12:33:59.524,11.1875,10
12:33:59.534,9.0625,7.75
12:33:59.543,7.375,5.625
12:33:59.553,6.125,1.8125
12:33:59.563,3.25,-0.1875
12:33:59.572,1.875,-2.375
12:33:59.584,1.3125,-4.3125
12:33:59.593,1,-4.8125
12:33:59.603,0.125,-7.1875
12:33:59.613,-1.8125,-9.6875
12:33:59.622,-4.4375,-12.75
12:33:59.634,-8.0625,-15.5001
12:33:59.645,-10.125,-17.9376
12:33:59.653,-12.3125,-20.7501
12:33:59.663,-12.625,-20.9376
12:33:59.673,-12.5,-22.5626
12:33:59.683,-13.3126,-23.6876
12:33:59.693,-14.6251,-25.3751
12:33:59.704,-17.1876,-28.7501
12:33:59.713,-21.8751,-32.5626
12:33:59.723,-26.3751,-36.1876
12:33:59.733,-31.1251,-40.8752
12:33:59.744,-35.0001,-43.8127
12:33:59.755,-39.6877,-47.1877
12:33:59.763,-42.8127,-50.6877
12:33:59.773,-46.8752,-53.8752
12:33:59.783,-49.0002,-55.7502
12:33:59.798,-51.0627,-57.8752
12:33:59.806,-50.1252,-57.7502
12:33:59.813,-49.0627,-57.6252
12:33:59.834,-46.8752,-57.0627
12:33:59.837,-45.9377,-56.0002
12:33:59.845,-46.0002,-57.9377
12:33:59.855,-47.4377,-59.1877
12:33:59.864,-49.3127,-61.3752
12:33:59.875,-50.8752,-62.9377
12:33:59.883,-51.7502,-63.1877
12:33:59.893,-50.8127,-64.8127
12:33:59.903,-50.3752,-63.9377
12:33:59.913,-50.1877,-65.0002
12:33:59.924,-51.3127,-66.0628
12:33:59.937,-54.0627,-68.5003
12:33:59.964,-55.3752,-70.2503
12:33:59.966,-55.8752,-71.3128
12:33:59.969,-55.7502,-72.0003
12:33:59.973,-54.5627,-70.8128
12:34:00.008,-54.2502,-72.8128
12:34:00.010,-54.1252,-72.6253
12:34:00.013,-53.7502,-73.6878
12:34:00.016,-54.1877,-74.0003
12:34:00.042,-55.4377,-74.8753
12:34:00.044,-54.3752,-73.9378
12:34:00.046,-49.6252,-67.1253
12:34:00.075,-40.4377,-57.0002
12:34:00.078,-29.6251,-41.8127
12:34:00.081,-18.0626,-28.8751
12:34:00.086,-8.0625,-14.6251
12:34:00.107,-1.3125,-3.6875
12:34:00.110,4.5,4.6875
12:34:00.114,8.75,11.6875
12:34:00.123,11.8125,16.4376
12:34:00.133,15.0626,21.3126
12:34:00.142,18.4376,24.5001
12:34:00.153,22.0626,27.7501
12:34:00.163,24.3126,30.5001
12:34:00.181,26.6251,33.1876
12:34:00.188,27.9376,33.1876
12:34:00.197,27.7501,34.6876
12:34:00.203,28.8751,34.6251
12:34:00.219,28.4376,35.1876
12:34:00.224,27.8751,34.7501
12:34:00.237,27.6876,34.0626
12:34:00.243,27.2501,34.1876
12:34:00.253,27.8751,34.6251
12:34:00.263,27.2501,34.3751
12:34:00.273,27.5001,34.3126
12:34:00.285,28.5626,33.0001
12:34:00.293,27.0001,31.7501
12:34:00.303,25.7501,30.0626
12:34:00.313,23.3751,27.0626
12:34:00.324,20.2501,23.8126
12:34:00.333,16.9376,20.6876
12:34:00.344,14.3126,16.8126
12:34:00.353,11.6875,14.6876
12:34:00.363,8.625,12.375
12:34:00.373,7.75,10.375
12:34:00.383,7.125,8.9375
12:34:00.393,7,8.5625
12:34:00.405,6.625,8.5
12:34:00.413,7.4375,8.0625
12:34:00.423,8.4375,8.8125
12:34:00.433,7.5625,7.75
12:34:00.443,7.0625,7.375
12:34:00.453,6.375,5.75
12:34:00.463,4.5,3.125
12:34:00.473,3.625,2
12:34:00.483,3.625,0.625
12:34:00.493,2.1875,0.4375
12:34:00.504,1.3125,-1.6875
12:34:00.513,1.375,-2.3125
12:34:00.523,2.375,-3.375
12:34:00.533,2.4375,-3.75
12:34:00.543,2.4375,-4.375
12:34:00.553,2.625,-6.875
12:34:00.566,2.6875,-6.9375
12:34:00.573,2.6875,-7.5
12:34:00.583,1.3125,-9.8125
12:34:00.593,0.5625,-12.0625
12:34:00.603,-0.1875,-12.8125
12:34:00.615,-2,-14.0626
12:34:00.623,-3.5625,-15.8751
12:34:00.633,-4.75,-18.5626
12:34:00.643,-6.5,-20.1876
12:34:00.653,-7.875,-22.2501
12:34:00.664,-9.125,-24.3126
12:34:00.673,-9.8125,-24.3126
12:34:00.683,-9.4375,-25.8751
12:34:00.693,-10.4375,-26.2501
12:34:00.719,-11.6875,-28.5626
12:34:00.721,-13.1876,-30.2501
12:34:00.723,-14.5001,-31.3751
12:34:00.754,-15.5626,-32.6876
12:34:00.757,-16.8751,-35.1251
12:34:00.759,-17.5626,-35.8126
12:34:00.765,-18.2501,-37.2501
12:34:00.795,-18.6876,-37.8751
12:34:00.798,-20.5001,-39.1252
12:34:00.800,-21.1876,-40.7502
12:34:00.806,-21.6251,-41.5627
12:34:00.813,-22.5001,-43.8752
12:34:00.848,-23.5001,-43.9377
12:34:00.851,-23.5001,-45.1252
12:34:00.853,-22.8126,-45.6877
12:34:00.855,-23.0626,-46.1252
12:34:00.869,-23.5001,-47.9377
12:34:00.873,-24.1251,-48.1877
12:34:00.883,-26.2501,-50.8752
12:34:00.893,-27.5001,-51.8752
12:34:00.903,-28.3751,-51.6877
12:34:00.913,-28.8126,-54.3127
12:34:00.923,-29.0626,-55.1252
12:34:00.933,-29.3751,-55.6877
12:34:00.943,-30.0001,-56.5002
12:34:00.953,-31.1876,-58.5002
12:34:00.969,-34.0001,-60.7502
12:34:00.973,-36.6251,-62.5627
12:34:00.983,-40.3752,-65.1878
12:34:00.993,-41.8752,-66.0628
12:34:01.004,-39.0001,-63.0627
12:34:01.015,-33.1876,-52.8752
12:34:01.024,-22.5001,-40.7502
12:34:01.033,-12.9375,-25.7501
12:34:01.043,-3.375,-13.1876
12:34:01.054,3.8125,-2.25
12:34:01.063,9.1875,7.125
12:34:01.073,13.1876,13.7501
12:34:01.083,15.5001,18.6876
12:34:01.094,16.6876,21.4376
12:34:01.104,16.8751,23.5626
12:34:01.119,17.3126,24.0626
12:34:01.135,16.8126,24.9376
12:34:01.137,16.5626,26.1251
12:34:01.152,17.2501,25.4376
12:34:01.155,16.8751,25.7501
12:34:01.170,16.5626,25.3751
12:34:01.172,16.4376,24.8751
12:34:01.183,14.8751,25.5001
12:34:01.194,12.625,22.1251
12:34:01.203,9.5625,21.2501
12:34:01.213,4.375,16.5626
12:34:01.223,0.3125,14.5001
12:34:01.234,-2.9375,11
12:34:01.244,-4.875,7.75
12:34:01.253,-6.375,6.3125
12:34:01.264,-7,5.125
12:34:01.273,-7.4375,3.1875
12:34:01.283,-9.5625,0.25
12:34:01.297,-11.8125,-2.0625
12:34:01.321,-14.4376,-3.9375
12:34:01.325,-16.5001,-6.6875
12:34:01.327,-18.2501,-7.3125
12:34:01.333,-18.6251,-8.5
12:34:01.344,-19.3751,-8.9375
12:34:01.354,-20.5001,-10.0625
12:34:01.363,-21.5001,-11
12:34:01.373,-23.4376,-12.6875
12:34:01.383,-24.6251,-13.3751
12:34:01.394,-25.6251,-14.5001
12:34:01.409,-25.0001,-15.2501
12:34:01.413,-25.8751,-15.8126
12:34:01.439,-24.7501,-16.0001
12:34:01.442,-25.1251,-16.3751
12:34:01.444,-24.1251,-17.4376
12:34:01.477,-24.9376,-18.0001
12:34:01.478,-25.2501,-19.7501
12:34:01.481,-26.0001,-20.5626
12:34:01.484,-25.9376,-22.0626
12:34:01.518,-25.5626,-22.4376
12:34:01.521,-26.4376,-22.8126
12:34:01.599,-25.1251,-24.1251
12:34:01.599,-24.5001,-22.8126
12:34:01.599,-23.3751,-24.9376
12:34:01.599,-23.3751,-25.0626
12:34:01.603,-23.0626,-25.3126
12:34:01.614,-21.6251,-26.0626
12:34:01.624,-19.8126,-25.3126
12:34:01.633,-18.0626,-25.1876
12:34:01.643,-15.7501,-24.7501
12:34:01.654,-15.4376,-23.6876
12:34:01.663,-14.1251,-25.6251
12:34:01.673,-13,-25.4376
12:34:01.684,-14.5001,-26.6876
12:34:01.694,-15.7501,-28.3751
12:34:01.703,-16.8126,-29.2501
12:34:01.717,-16.6251,-30.8751
12:34:01.723,-15.6251,-29.8126
12:34:01.733,-14.5001,-30.5626
12:34:01.743,-13.9376,-30.5626
12:34:01.753,-14.8126,-31.7501
12:34:01.763,-18.6876,-41.9377
12:34:01.775,-17.1876,-39.5002
12:34:01.783,-13.6876,-39.1252
12:34:01.793,-10.9375,-37.5626
12:34:01.803,-10.125,-36.1251
12:34:01.814,-10.5,-39.0001
12:34:01.823,-10.9375,-39.5002
12:34:01.833,-12.6875,-41.8752
12:34:01.843,-13.3126,-41.5002
12:34:01.855,-11.3125,-40.0002
12:34:01.863,-6.5,-32.0626
12:34:01.873,0.9375,-23.1251
12:34:01.883,7.5,-10.5
12:34:01.893,14.8751,0.3125
12:34:01.909,20.0001,11.6875
12:34:01.913,23.6251,18.2501
12:34:01.923,25.7501,25.8751
12:34:01.933,27.6251,28.6876
12:34:01.944,26.8751,32.5001
12:34:01.953,27.0626,33.3126
12:34:01.963,26.7501,35.5626
12:34:01.973,27.0001,36.0626
12:34:01.983,26.7501,38.4376
12:34:01.993,27.5001,38.1251
12:34:02.003,27.0001,39.5627
12:34:02.015,26.6251,39.0626
12:34:02.023,27.3751,39.6877
12:34:02.033,28.6251,42.4377
12:34:02.043,29.9376,42.0627
12:34:02.053,30.4376,43.7502
12:34:02.064,31.5001,43.7502
12:34:02.073,31.5626,43.8752
12:34:02.083,30.1251,43.4377
12:34:02.095,30.3751,43.2502
12:34:02.103,29.4376,41.3752
12:34:02.113,28.4376,40.1252
12:34:02.123,27.7501,38.4376
12:34:02.134,25.3751,35.9376
12:34:02.143,23.1251,32.1876
12:34:02.153,21.0626,30.5001
12:34:02.163,20.1251,29.3126
12:34:02.173,20.5001,28.2501
12:34:02.185,20.6876,27.8751
12:34:02.193,21.6251,27.7501
12:34:02.231,21.6876,28.3126
12:34:02.232,21.9376,28.3751
12:34:02.236,22.3751,28.1251
12:34:02.237,22.2501,28.3751
12:34:02.244,22.9376,27.1876
12:34:02.273,20.7501,25.8126
12:34:02.276,20.3751,24.3751
12:34:02.278,19.9376,23.9376
12:34:02.285,18.8126,22.5626
12:34:02.309,17.7501,20.0001
12:34:02.312,17.1876,18.9376
12:34:02.314,16.4376,17.5001
12:34:02.350,15.4376,16.6251
12:34:02.352,15.0001,16.0001
12:34:02.354,14.5626,13.6876
12:34:02.360,12.6875,11.75
12:34:02.363,10.5625,8.8125
12:34:02.386,9.125,5.9375
12:34:02.388,8.25,5.25
12:34:02.392,6.125,2.3125
12:34:02.404,4.4375,0.125
12:34:02.413,4.375,-0.5625
12:34:02.423,3.75,-1.25
12:34:02.438,2.8125,-2.5625
12:34:02.454,1.875,-5.8125
12:34:02.459,0,-6.875
12:34:02.473,-0.375,-8.125
12:34:02.488,-0.75,-10.4375
12:34:02.490,-1.375,-11.5
12:34:02.492,-2.0625,-12.875
12:34:02.503,-3.4375,-13.4376
12:34:02.513,-4.5625,-15.5001
12:34:02.526,-4.8125,-16.5001
12:34:02.533,-6.5625,-17.8126
12:34:02.543,-7.0625,-19.4376
12:34:02.554,-7.8125,-21.6876
12:34:02.563,-8.375,-21.5626
12:34:02.575,-8.1875,-23.0001
12:34:02.602,-8.9375,-23.6876
12:34:02.605,-10.6875,-26.0626
12:34:02.607,-12.625,-28.0626
12:34:02.613,-13.7501,-29.9376
12:34:02.624,-16.0001,-31.4376
12:34:02.633,-15.9376,-32.8126
12:34:02.643,-18.3751,-34.9376
12:34:02.653,-19.4376,-36.1876
12:34:02.664,-21.5626,-37.9376
12:34:02.673,-23.8126,-41.3127
12:34:02.683,-25.7501,-42.1252
12:34:02.693,-26.9376,-43.8127
12:34:02.703,-26.1251,-44.6252
12:34:02.713,-25.8751,-43.2502
12:34:02.723,-25.1251,-45.0627
12:34:02.736,-24.5626,-44.7502
12:34:02.743,-23.8751,-45.3127
12:34:02.752,-23.8751,-45.5002
12:34:02.763,-24.6876,-45.5627
12:34:02.776,-25.7501,-47.5627
12:34:02.784,-25.9376,-48.1252
12:34:02.793,-26.6876,-50.0002
12:34:02.804,-27.2501,-50.5002
12:34:02.813,-26.6876,-51.0002
12:34:02.823,-23.6876,-48.6877
12:34:02.833,-17.6251,-40.5002
12:34:02.846,-9.6875,-30.0626
12:34:02.861,-1.0625,-16.5626
12:34:02.877,8.0625,-2.375
12:34:02.879,15.4376,10.0625
12:34:02.894,22.5626,20.6876
12:34:02.909,27.2501,29.8751
12:34:02.914,30.5626,37.1251
12:34:02.915,33.3751,41.1252
12:34:02.923,34.7501,45.6877
12:34:02.932,35.3751,48.1877
12:34:02.961,36.2501,49.3752
12:34:02.963,36.3751,51.9377
12:34:02.965,37.7501,53.3127
12:34:02.998,39.4377,56.1877
12:34:03.001,41.4377,57.4377
12:34:03.002,42.5627,59.5002
12:34:03.004,42.8127,59.8752
12:34:03.038,42.7502,61.6252
12:34:03.038,42.6877,61.1252
12:34:03.041,41.1252,60.6877
12:34:03.047,40.6252,62.0002
12:34:03.054,39.5002,61.2502
12:34:03.078,39.2501,60.2502
12:34:03.080,37.5001,57.8127
12:34:03.083,35.6876,56.8127
12:34:03.111,33.3126,53.3127
12:34:03.111,31.5626,51.1252
12:34:03.113,30.4376,49.0627
12:34:03.123,29.0001,48.5627
12:34:03.134,29.5001,46.3752
12:34:03.143,27.8126,45.9377
12:34:03.153,27.1876,44.3127
12:34:03.163,25.4376,42.6252
12:34:03.173,24.1251,41.8752
12:34:03.183,23.0626,39.8127
12:34:03.195,21.5626,39.3752
12:34:03.204,21.6876,38.3751
12:34:03.213,20.2501,36.8126
12:34:03.228,18.8751,36.2501
12:34:03.238,17.5001,33.7501
12:34:03.248,16.0626,33.5001
12:34:03.258,13.125,29.8751
12:34:03.268,10.8125,27.2501
12:34:03.279,9.75,25.3751
12:34:03.288,7.3125,23.1251
12:34:03.298,6.4375,21.1251
12:34:03.308,5.0625,18.9376
12:34:03.319,2.5,17.1876
12:34:03.328,0.8125,15.0626
12:34:03.338,-0.75,11.875
12:34:03.348,-1.3125,10.5
12:34:03.360,-2.625,8.0625
12:34:03.368,-4.4375,6.6875
12:34:03.378,-6.1875,3.875
12:34:03.388,-7.4375,1.75
12:34:03.400,-7.8125,0.6875
12:34:03.408,-7.5625,-1.0625
12:34:03.418,-8.125,-1.9375
12:34:03.428,-8.3125,-3.1875
12:34:03.437,-8.4375,-4.4375
12:34:03.448,-8.4375,-5.9375
12:34:03.458,-8.9375,-7.25
12:34:03.471,-9.25,-8.25
12:34:03.478,-8.875,-7.875
12:34:03.488,-8.1875,-8.4375
12:34:03.498,-8,-9
12:34:03.508,-7.9375,-10.1875
12:34:03.518,-8.1875,-12.1875
12:34:03.528,-9.5625,-12.625
12:34:03.540,-9.9375,-14.9376
12:34:03.548,-10.75,-14.8751
12:34:03.558,-10.6875,-16.7501
12:34:03.569,-11.3125,-18.6876
12:34:03.578,-11.625,-18.9376
12:34:03.594,-12.1875,-20.9376
12:34:03.599,-12.125,-21.0001
12:34:03.630,-12.1875,-22.0001
12:34:03.633,-12.9375,-23.5626
12:34:03.638,-12.1875,-24.5626
12:34:03.638,-13.3751,-25.0001
12:34:03.670,-13.0625,-26.5626
12:34:03.673,-13.8751,-26.2501
12:34:03.677,-13.1876,-28.0626
12:34:03.681,-13.6876,-28.5626
12:34:03.715,-13.6876,-28.6251
12:34:03.718,-13,-29.8751
12:34:03.719,-13,-29.9376
12:34:03.723,-13,-31.3751
12:34:03.754,-13.6876,-32.1876
12:34:03.781,-13.5001,-34.1251
12:34:03.784,-13.6251,-33.4376
12:34:03.798,-13.6876,-35.0626
12:34:03.815,-13.6876,-34.9376
12:34:03.816,-13.8751,-36.3751
12:34:03.816,-15.4376,-39.1251
12:34:03.817,-17.6876,-40.5002
12:34:03.831,-18.2501,-42.5002
12:34:03.833,-17.5626,-42.0002
12:34:03.838,-15.5001,-40.8752
12:34:03.849,-10.875,-34.8751
12:34:03.858,-2.8125,-24.1876
12:34:03.884,6.3125,-10.5625
12:34:03.886,14.5001,2.375
12:34:03.892,20.8751,13.8126
12:34:03.898,26.1251,25.2501
12:34:03.909,30.6251,32.8751
12:34:03.918,33.1876,41.0002
12:34:03.928,36.0001,46.0002
12:34:03.938,38.1251,50.1252
12:34:03.948,39.1251,52.1252
12:34:03.958,40.3127,55.0002
12:34:03.968,43.5627,61.3127
12:34:03.979,44.1877,61.9377
12:34:03.988,44.3752,62.2502
12:34:03.998,44.5627,64.4377
12:34:04.008,43.8752,64.1252
12:34:04.018,43.5002,65.5003
12:34:04.028,43.1252,64.1252
12:34:04.038,41.6252,65.2503
12:34:04.048,41.3752,64.8127
12:34:04.058,41.4377,63.5002
12:34:04.068,40.4377,63.5002
12:34:04.078,39.6252,63.0627
12:34:04.090,38.2501,60.2502
12:34:04.098,36.1876,56.9377
12:34:04.108,33.7501,54.8127
12:34:04.119,32.2501,52.3752
12:34:04.128,30.3751,51.1877
12:34:04.138,30.2501,48.8752
12:34:04.154,29.0001,48.7502
12:34:04.160,29.4376,47.8127
12:34:04.177,28.8751,46.7502
12:34:04.183,28.7501,47.0002
12:34:04.191,29.1251,46.6252
12:34:04.199,28.0001,46.2502
12:34:04.214,28.3751,45.8127
12:34:04.218,27.3751,45.0002
12:34:04.233,26.5001,44.7502
12:34:04.240,25.8751,43.3127
12:34:04.249,24.6876,41.5627
12:34:04.260,22.5626,38.9376
12:34:04.268,21.0001,36.6251
12:34:04.278,18.5626,36.0001
12:34:04.288,17.8751,32.5626
12:34:04.298,16.3751,30.4376
12:34:04.308,14.6251,27.8751
12:34:04.318,13.3126,26.1876
12:34:04.328,11.5625,24.5626
12:34:04.338,9.6875,21.6251
12:34:04.349,7.875,18.6876
12:34:04.360,5.6875,15.5001
12:34:04.368,3.625,14.6251
12:34:04.378,2.6875,12
12:34:04.388,0.9375,9.75
12:34:04.398,-0.3125,8.1875
12:34:04.430,-0.9375,6.5625
12:34:04.433,-2.25,5.0625
12:34:04.435,-3.25,3
12:34:04.438,-4.25,0.625
12:34:04.470,-5.75,-0.8125
12:34:04.474,-5.5,-2.25
12:34:04.474,-6.4375,-4.3125
12:34:04.478,-7.375,-3.3125
12:34:04.509,-7.1875,-5.25
12:34:04.511,-7.4375,-7.1875
12:34:04.514,-8.1875,-8.6875
12:34:04.519,-9.6875,-10.4375
12:34:04.546,-10.9375,-11.5625
12:34:04.550,-12.25,-12.6875
12:34:04.550,-12.625,-14.6876
12:34:04.580,-14.0626,-17.2501
12:34:04.581,-15.6251,-18.1876
12:34:04.584,-16.7501,-19.0626
12:34:04.589,-17.2501,-21.5001
12:34:04.606,-18.0626,-23.5001
12:34:04.608,-17.7501,-23.3751
12:34:04.618,-18.2501,-25.0001
12:34:04.628,-18.7501,-25.1251
12:34:04.638,-18.5001,-26.9376
12:34:04.648,-19.2501,-27.3126
12:34:04.658,-19.5626,-28.7501
12:34:04.668,-19.6251,-29.7501
12:34:04.678,-20.6251,-31.7501
12:34:04.688,-22.1251,-32.8751
12:34:04.698,-25.0001,-36.2501
12:34:04.708,-28.3126,-38.9376
12:34:04.718,-29.6876,-40.0627
12:34:04.728,-29.8751,-39.9377
12:34:04.738,-25.7501,-35.5626
12:34:04.748,-19.3126,-24.6876
12:34:04.760,-10.3125,-12.8125
12:34:04.768,-0.8125,0.25
12:34:04.778,6.5625,12.9375
12:34:04.788,14.1251,24.2501
12:34:04.798,19.4376,33.5001
12:34:04.808,23.9376,40.6877
12:34:04.818,27.3751,48.1252
12:34:04.828,29.8751,52.1877
12:34:04.838,32.3751,57.5627
12:34:04.850,32.8751,59.1877
12:34:04.858,33.1876,61.2502
12:34:04.867,32.1251,63.3752
12:34:04.880,32.3751,62.5002
12:34:04.887,32.6251,63.9377
12:34:04.898,30.5001,64.0627
12:34:04.908,30.1251,64.3752
12:34:04.918,30.5626,66.5628
12:34:04.928,30.5626,65.6878
12:34:04.939,30.6876,66.7503
12:34:04.948,31.1251,67.1878
12:34:04.958,31.8126,68.7503
12:34:04.968,33.7501,69.1253
12:34:04.982,34.1251,69.3753
12:34:04.990,32.7501,68.0628
12:34:04.998,31.6251,64.8127
12:34:05.011,30.3126,63.1877
12:34:05.018,29.8126,61.0002
12:34:05.028,28.5626,59.2502
12:34:05.040,28.5001,58.2502
12:34:05.047,28.1251,57.8752
12:34:05.058,27.8751,56.5627
12:34:05.069,25.8751,54.6252
12:34:05.078,24.6251,53.0627
12:34:05.098,23.1251,52.5627
12:34:05.101,21.5626,51.2502
12:34:05.114,21.1251,49.5627
12:34:05.153,19.5626,48.0627
12:34:05.185,18.1876,46.6252
12:34:05.188,16.5626,45.1252
12:34:05.189,15.4376,43.1252
12:34:05.195,13.6251,40.4377
12:34:05.197,11,38.0626
12:34:05.197,8.9375,36.1876
12:34:05.228,8.25,33.1251
12:34:05.230,6.6875,30.0626
12:34:05.233,4.5,28.6876
12:34:05.235,3.6875,26.0626
12:34:05.266,0.125,22.6876
12:34:05.268,-3.6875,18.3126
12:34:05.271,-6.75,15.2501
12:34:05.273,-9.1875,11.9375
12:34:05.304,-11.125,8.875
12:34:05.306,-12.8125,6.125
12:34:05.308,-14.3126,5.125
12:34:05.315,-16.0626,3
12:34:05.323,-17.3126,1
12:34:05.333,-18.0001,-1.1875
12:34:05.344,-19.1251,-2.6875
12:34:05.353,-20.4376,-5.625
12:34:05.363,-25.2501,-11.125
12:34:05.374,-25.6876,-13.3751
12:34:05.383,-27.6876,-16.2501
12:34:05.393,-28.6251,-16.8751
12:34:05.405,-28.2501,-17.0001
12:34:05.413,-28.3126,-19.6876
12:34:05.423,-27.7501,-19.1251
12:34:05.434,-27.0626,-19.7501
12:34:05.443,-27.0626,-21.7501
12:34:05.453,-28.5001,-21.8126
12:34:05.464,-27.7501,-23.6876
12:34:05.473,-28.1876,-25.3751
12:34:05.483,-28.5626,-26.0626
12:34:05.501,-27.4376,-26.0001
12:34:05.507,-27.8126,-27.4376
12:34:05.515,-27.6876,-28.7501
12:34:05.525,-29.4376,-30.0626
12:34:05.540,-29.9376,-31.8751
12:34:05.546,-31.8751,-32.9376
12:34:05.554,-33.5001,-36.3126
12:34:05.563,-33.8126,-37.9376
12:34:05.573,-35.1876,-39.1252
12:34:05.587,-35.6876,-41.4377
12:34:05.593,-36.6251,-42.0002
12:34:05.603,-37.9376,-44.3752
12:34:05.613,-39.3126,-45.3127
12:34:05.623,-40.7502,-48.1877
12:34:05.633,-42.0002,-48.5627
12:34:05.645,-42.5627,-51.0002
12:34:05.653,-42.5627,-50.0627
12:34:05.663,-42.8752,-52.6252
12:34:05.674,-42.5627,-52.1877
12:34:05.683,-42.1877,-53.5627
12:34:05.693,-42.1877,-53.6877
12:34:05.703,-43.3127,-55.1252
12:34:05.713,-44.5627,-56.4377
12:34:05.729,-47.4377,-60.6252
12:34:05.733,-48.8127,-61.1877
12:34:05.743,-50.0002,-63.6877
12:34:05.754,-49.5627,-62.1877
12:34:05.763,-47.5002,-60.6877
12:34:05.773,-42.4377,-54.3752
12:34:05.784,-35.3126,-42.3127
12:34:05.793,-25.1251,-29.1251
12:34:05.803,-15.1876,-12.3125
12:34:05.815,-5.625,0.75
12:34:05.823,3.3125,14.5001
12:34:05.833,10.375,26.1876
12:34:05.845,16.8751,34.9376
12:34:05.861,21.6251,43.6877
12:34:05.863,24.9376,49.2502
12:34:05.891,27.1876,53.5627
12:34:05.894,29.0626,57.7502
12:34:05.897,31.0626,60.6252
12:34:05.903,32.2501,63.5627
12:34:05.933,32.7501,65.6253
12:34:05.936,34.0626,67.7503
12:34:05.938,35.7501,70.6253
12:34:05.944,36.3126,72.6878
12:34:05.973,36.4376,74.8128
12:34:05.975,37.5001,74.8128
12:34:05.978,37.1876,76.0003
12:34:05.984,37.0626,77.7503
12:34:06.020,37.5626,78.0628
12:34:06.021,36.9376,77.2503
12:34:06.025,36.0626,77.4378
12:34:06.026,35.3751,75.6878
12:34:06.034,33.5001,74.0003
12:34:06.045,32.5626,71.5628
12:34:06.053,31.0626,69.9378
12:34:06.063,30.0626,67.6253
12:34:06.075,28.0626,66.3128
12:34:06.083,27.3751,65.0002
12:34:06.093,27.8126,63.7502
12:34:06.105,27.6251,63.9377
12:34:06.113,28.3126,63.4377
12:34:06.123,28.6876,62.5002
12:34:06.136,27.7501,61.9377
12:34:06.143,27.0001,61.0002
12:34:06.153,25.9376,60.0002
12:34:06.163,25.7501,58.7502
12:34:06.173,24.9376,58.3752
12:34:06.183,23.6251,57.3752
12:34:06.193,23.6251,54.7502
12:34:06.203,22.1251,52.7502
12:34:06.213,20.4376,50.5002
12:34:06.223,18.4376,47.2502
12:34:06.233,15.8126,44.0002
12:34:06.243,13.6876,41.5627
12:34:06.253,11.0625,39.5627
12:34:06.263,9,35.5626
12:34:06.276,7.5,33.3126
12:34:06.283,5.8125,31.4376
12:34:06.293,5.875,27.9376
12:34:06.304,3.4375,25.7501
12:34:06.313,1.9375,23.6876
12:34:06.323,0.3125,20.1251
12:34:06.335,-0.875,18.1251
12:34:06.343,-2,15.8751
12:34:06.353,-3.3125,13.8751
12:34:06.364,-3.6875,11.6875
12:34:06.373,-5.1875,10.8125
12:34:06.384,-6.0625,8.875
12:34:06.393,-7.0625,5.9375
12:34:06.403,-9.1875,4.4375
12:34:06.413,-10.3125,1.1875
12:34:06.442,-12.0625,-0.875
12:34:06.457,-13.3751,-2.6875
12:34:06.460,-15.2501,-5.75
12:34:06.480,-16.7501,-8
12:34:06.495,-18.0001,-10.3125
12:34:06.498,-20.0626,-11.9375
12:34:06.499,-21.9376,-13.8751
12:34:06.501,-22.0001,-16.0626
12:34:06.506,-22.8126,-17.3751
12:34:06.513,-23.4376,-19.7501
12:34:06.523,-24.8126,-20.6251
12:34:06.542,-25.3126,-22.1251
12:34:06.544,-26.2501,-24.5626
12:34:06.575,-27.6251,-25.1876
12:34:06.578,-28.8751,-27.3751
12:34:06.582,-30.2501,-30.5626
12:34:06.587,-31.7501,-31.8751
12:34:06.614,-33.0626,-34.0001
12:34:06.618,-33.8126,-36.1876
12:34:06.620,-33.5626,-36.3126
12:34:06.623,-33.8126,-37.3126
12:34:06.633,-34.1251,-38.2501
12:34:06.658,-35.2501,-40.8752
12:34:06.660,-35.8126,-42.1877
12:34:06.663,-37.8751,-44.5002
12:34:06.689,-38.1876,-46.3752
12:34:06.691,-39.8127,-46.9377
12:34:06.694,-41.4377,-49.6877
12:34:06.716,-41.1877,-50.3752
12:34:06.718,-42.2502,-52.0627
12:34:06.724,-43.1252,-53.8127
12:34:06.733,-44.6877,-54.8127
12:34:06.743,-46.2502,-56.3127
12:34:06.753,-46.9377,-57.9377
12:34:06.763,-46.6877,-58.6252
12:34:06.774,-46.9377,-59.4377
12:34:06.783,-45.8752,-60.8752
12:34:06.793,-46.8127,-60.0627
12:34:06.804,-47.3127,-63.1877
12:34:06.821,-49.6252,-64.5002
12:34:06.824,-51.8752,-66.8128
12:34:06.839,-53.1252,-68.9378
12:34:06.860,-49.6252,-66.0628
12:34:06.862,-42.6252,-57.5627
12:34:06.878,-32.6251,-43.5627
12:34:06.880,-21.0001,-28.5626
12:34:06.883,-10.75,-11.9375
12:34:06.893,-2.125,1.8125
12:34:06.903,5,14.1251
12:34:06.913,11.125,26.0001
12:34:06.923,17.0626,33.8751
12:34:06.933,20.2501,41.3127
12:34:06.943,23.1876,47.3752
12:34:06.953,25.8126,50.7502
12:34:06.964,27.9376,55.2502
12:34:06.973,29.5626,57.8752
12:34:06.983,30.2501,60.6877
12:34:06.993,30.7501,62.5627
12:34:07.003,31.3126,64.3752
12:34:07.014,31.7501,66.6253
12:34:07.023,32.7501,67.3753
12:34:07.033,31.4376,67.6253
12:34:07.043,31.5626,68.6253
12:34:07.053,30.6876,68.7503
12:34:07.063,29.9376,69.0003
12:34:07.073,29.3751,68.7503
12:34:07.083,29.5001,68.9378
12:34:07.093,28.9376,68.8128
12:34:07.103,28.6251,66.7503
12:34:07.113,28.1876,66.1878
12:34:07.125,27.1876,63.0627
12:34:07.133,26.7501,61.6252
12:34:07.143,26.5001,60.8127
12:34:07.153,26.3751,60.6877
12:34:07.164,28.0001,60.3752
12:34:07.173,28.9376,59.8127
12:34:07.183,28.6251,60.1877
12:34:07.193,29.5001,59.3752
12:34:07.204,29.0626,59.0627
12:34:07.214,28.9376,59.6877
12:34:07.223,28.8751,57.5002
12:34:07.255,27.5001,56.6252
12:34:07.258,25.3751,54.0627
12:34:07.260,22.8751,51.6877
12:34:07.268,20.5626,48.6252
12:34:07.296,17.3126,45.4377
12:34:07.298,14.3751,42.7502
12:34:07.300,11.1875,39.8752
12:34:07.331,8.5625,36.7501
12:34:07.333,6.875,32.8751
12:34:07.335,5.5625,31.2501
12:34:07.338,4.625,29.7501
12:34:07.374,3.8125,26.9376
12:34:07.376,3.0625,25.8126
12:34:07.379,2.4375,22.4376
12:34:07.384,2.375,21.5626
12:34:07.409,1.875,19.2501
12:34:07.411,1.125,17.9376
12:34:07.415,0.625,15.7501
12:34:07.419,-1.3125,13.5001
12:34:07.428,-2.625,11.5625
12:34:07.438,-3.75,8.1875
12:34:07.450,-6.3125,5.3125
12:34:07.458,-8.8125,1.8125
12:34:07.469,-10.9375,0.3125
12:34:07.478,-12.4375,-2.5625
12:34:07.488,-14.5001,-5.6875
12:34:07.498,-16.5626,-8.4375
12:34:07.508,-18.2501,-10
12:34:07.518,-18.8751,-12.3125
12:34:07.529,-19.3751,-14.2501
12:34:07.538,-19.8751,-15.5001
12:34:07.548,-21.0001,-16.5626
12:34:07.558,-21.0001,-17.5626
12:34:07.568,-22.4376,-20.0001
12:34:07.578,-24.0001,-20.4376
12:34:07.588,-24.0626,-23.0001
12:34:07.598,-25.8126,-25.1251
12:34:07.613,-27.0626,-26.1251
12:34:07.618,-28.6876,-29.1876
12:34:07.628,-30.3751,-31.9376
12:34:07.638,-31.5626,-32.1251
12:34:07.648,-32.0626,-34.3126
12:34:07.658,-33.6251,-35.6251
12:34:07.668,-33.6876,-37.6876
12:34:07.678,-35.3126,-38.8126
12:34:07.690,-35.3751,-40.3127
12:34:07.698,-35.8751,-41.3127
12:34:07.723,-35.5626,-41.7502
12:34:07.725,-36.1876,-43.7502
12:34:07.727,-36.6251,-44.3127
12:34:07.738,-37.2501,-46.4377
12:34:07.751,-38.1251,-46.4377
12:34:07.764,-37.7501,-48.9377
12:34:07.771,-38.0001,-48.7502
12:34:07.778,-39.3126,-50.6877
12:34:07.795,-40.8752,-52.8127
12:34:07.797,-43.1252,-54.6877
12:34:07.813,-43.8127,-56.4377
12:34:07.819,-43.5627,-55.6877
12:34:07.828,-41.0627,-51.8127
12:34:07.840,-34.6876,-44.0002
12:34:07.847,-27.1251,-31.3126
12:34:07.858,-18.4376,-19.1251
12:34:07.868,-9.8125,-5.0625
12:34:07.878,-3.3125,6.4375
12:34:07.889,2.625,17.0001
12:34:07.898,5.4375,26.1876
12:34:07.908,8.1875,31.0626
12:34:07.918,8.25,36.3751
12:34:07.927,7.25,37.1876
12:34:07.938,7.375,39.8752
12:34:07.948,8.1875,42.9377
12:34:07.958,4.9375,42.6877
12:34:07.969,-3.4375,36.9376
12:34:07.978,-17.9376,29.8751
12:34:07.988,-36.0001,17.9376
12:34:07.998,-60.4377,1.5
12:34:08.021,-72.5628,-7.875
12:34:08.024,-67.2503,-5.3125
12:34:08.052,-57.6877,2.625
12:34:08.056,-52.6877,9.125
12:34:08.057,-47.1252,11.25
12:34:08.059,-46.4377,12.1875
12:34:08.089,-55.0002,4.3125
12:34:08.092,-69.1253,-8.4375
12:34:08.094,-79.0003,-17.8751
12:34:08.099,-94.3754,-31.3126
12:34:08.128,-99.0629,-36.6251
12:34:08.132,-108.8754,-45.9377
12:34:08.133,-160.8131,-80.3753
12:34:08.159,-219.8758,-127.8755
12:34:08.161,-274.8135,-169.2506
12:34:08.204,-314.8762,-202.0633
12:34:08.207,-318.8137,-205.4383
12:34:08.207,-290.9386,-185.1882
12:34:08.207,-221.6258,-130.188
12:34:08.222,-168.6881,-81.1878
12:34:08.224,-212.6883,-104.5629
12:34:08.227,-301.5637,-175.5632
12:34:08.235,-371.3764,-232.9384
12:34:08.243,-405.564,-261.876
12:34:08.253,-414.6266,-271.626
12:34:08.264,-414.5641,-273.6885
12:34:08.273,-411.9391,-272.126
12:34:08.283,-409.7516,-271.3135
12:34:08.293,-399.8765,-264.751
12:34:08.304,-379.7515,-249.0009
12:34:08.313,-360.1889,-232.3759
12:34:08.323,-331.0638,-211.7508
12:34:08.333,-295.2511,-183.9382
12:34:08.346,-247.5009,-148.6256
12:34:08.353,-183.1257,-101.6879
12:34:08.366,-86.1878,-28.8751
12:34:08.373,-29.5626,11.1875
12:34:08.383,14.9376,43.4377
12:34:08.393,47.0627,64.5627
12:34:08.403,67.1878,78.5003
12:34:08.416,78.9378,84.2503
12:34:08.423,85.0628,86.2503
12:34:08.434,83.3753,85.3753
12:34:08.443,74.0003,75.1878
12:34:08.453,54.1877,60.1877
12:34:08.465,27.1876,38.7501
12:34:08.473,-11.0625,11.6875
12:34:08.483,-77.0003,-36.0626
12:34:08.493,-158.7506,-98.1254
12:34:08.503,-236.3134,-159.6256
12:34:08.514,-296.3762,-209.8133
