timestamp,Red,IR
12:38:33.314,-7.9688,-31.0626
12:38:33.318,-8.9375,-33.5626
12:38:33.327,-9.2188,-32.8751
12:38:33.337,-8.5625,-33.1876
12:38:33.347,-8.3438,-34.2501
12:38:33.357,-8.2188,-34.6251
12:38:33.367,-8.7188,-35.8126
12:38:33.378,-9.5,-37.3126
12:38:33.389,-10.0938,-37.2501
12:38:33.399,-11.1875,-37.9376
12:38:33.408,-10.7813,-39.6252
12:38:33.417,-12.375,-41.0627
12:38:33.428,-12.1875,-41.2502
12:38:33.448,-11.9375,-41.1252
12:38:33.450,-10.2813,-38.8751
12:38:33.466,-6.875,-32.0001
12:38:33.472,-0.875,-20.5626
12:38:33.480,6,-5.375
12:38:33.488,12.0938,9.75
12:38:33.498,17.2813,21.9376
12:38:33.507,21.9063,32.1876
12:38:33.516,23.8751,39.1877
12:38:33.528,25.0626,43.9377
12:38:33.537,25.4376,45.5002
12:38:33.548,25.9688,46.1252
12:38:33.558,24.9376,44.6252
12:38:33.568,24.5313,43.8752
12:38:33.578,23.4376,41.3752
12:38:33.587,22.6876,40.7502
12:38:33.597,21.4688,38.0001
12:38:33.606,20.3751,37.2501
12:38:33.617,20.5938,36.5001
12:38:33.628,20.1876,35.1876
12:38:33.636,19.8751,35.8751
12:38:33.647,20.0626,35.1251
12:38:33.658,19.7813,33.9376
12:38:33.668,18.6251,33.7501
12:38:33.706,18.6876,32.5001
12:38:33.708,16.5938,30.4376
12:38:33.755,15.6876,27.8751
12:38:33.757,13.125,25.6876
12:38:33.789,12.5313,22.2501
12:38:33.794,11.25,20.3126
12:38:33.794,10.2188,17.6251
12:38:33.794,9.3125,14.5001
12:38:33.801,9.0938,13.6251
12:38:33.823,8.5938,12.25
12:38:33.826,7.25,12.5
12:38:33.829,7.5938,11.1875
12:38:33.839,7.0625,10.5625
12:38:33.860,6.2813,8.8125
12:38:33.862,5.6875,9.9375
12:38:33.868,6.1563,8.375
12:38:33.877,5.7813,7.6875
12:38:33.888,5.7813,7.5
12:38:33.898,5.6563,7.5625
12:38:33.907,5.5625,5.9375
12:38:33.916,5.375,4.4375
12:38:33.926,5.2188,2.75
12:38:33.938,4.0313,1.375
12:38:33.970,3.1563,-0.4375
12:38:33.973,-0.1875,-9.125
12:38:33.975,-0.5,-10.0625
12:38:33.981,-1.2813,-11.8125
12:38:33.988,-2.2813,-14.4376
12:38:33.997,-3.9375,-15.2501
12:38:34.007,-3.9063,-15.8751
12:38:34.017,-4.125,-17.6251
12:38:34.028,-4.9688,-19.1876
12:38:34.037,-5.4375,-20.1251
12:38:34.048,-6.1563,-21.2501
12:38:34.059,-6.5625,-23.1876
12:38:34.067,-7.8125,-22.3751
12:38:34.078,-7.8438,-24.3751
12:38:34.088,-7.9375,-25.6251
12:38:34.100,-8.9375,-27.1876
12:38:34.110,-9.0938,-27.4376
12:38:34.118,-9.3438,-28.5001
12:38:34.126,-9.9375,-29.7501
12:38:34.138,-9.7813,-30.5626
12:38:34.148,-10.0938,-30.8126
12:38:34.157,-10.2188,-31.3751
12:38:34.167,-10.5625,-32.3751
12:38:34.178,-10.7188,-34.0626
12:38:34.188,-11,-34.0001
12:38:34.198,-11.4375,-35.6251
12:38:34.207,-11.7813,-35.5626
12:38:34.218,-12.4375,-36.3751
12:38:34.228,-12.4688,-36.6251
12:38:34.238,-12.5,-38.1251
12:38:34.246,-12.4375,-38.2501
12:38:34.257,-12.3125,-38.4376
12:38:34.267,-12.8125,-38.9376
12:38:34.278,-12.7188,-38.7501
12:38:34.288,-12.5625,-41.1877
12:38:34.298,-13.4376,-40.9377
12:38:34.307,-14.3751,-43.1252
12:38:34.317,-15.0313,-42.8752
12:38:34.328,-15.0938,-45.1877
12:38:34.342,-15.0626,-45.0002
12:38:34.348,-14.4376,-44.0627
12:38:34.357,-11.125,-38.2501
12:38:34.367,-5.5,-27.8751
12:38:34.378,0.5938,-13.5001
12:38:34.387,6.7813,1.125
12:38:34.397,12.2813,16.1876
12:38:34.408,17.1876,26.7501
12:38:34.416,19.1876,35.8126
12:38:34.428,21.6876,40.5627
12:38:34.436,22.5001,43.2502
12:38:34.470,22.8438,44.9377
12:38:34.471,22.0938,44.0627
12:38:34.474,22.2501,43.0627
12:38:34.479,22.7501,42.5002
12:38:34.505,22.0626,41.1252
12:38:34.508,22.4063,39.5002
12:38:34.509,23.0626,38.5001
12:38:34.543,21.8438,37.5626
12:38:34.545,22.1563,36.1876
12:38:34.549,22.0001,35.9376
12:38:34.556,21.1876,35.8126
12:38:34.567,20.6876,35.3126
12:38:34.569,20.4376,33.9376
12:38:34.599,20.2188,33.4376
12:38:34.601,19.2501,30.8751
12:38:34.602,17.4376,30.1251
12:38:34.609,15.5626,27.6876
12:38:34.618,14.2813,25.8751
12:38:34.628,13.6563,22.4376
12:38:34.638,12.4688,19.0626
12:38:34.648,10.6563,16.8751
12:38:34.657,9.8125,15.5626
12:38:34.668,10.0313,14.5626
12:38:34.678,10.3125,12.875
12:38:34.686,9.375,11.0625
12:38:34.698,8.2188,11.75
12:38:34.708,8.5,10.25
12:38:34.717,6.7813,9.4375
12:38:34.728,7.3438,9
12:38:34.738,6.625,7.4375
12:38:34.757,6.7188,7.4375
12:38:34.759,7.0938,6.5
12:38:34.774,5.5938,5.375
12:38:34.781,4.9688,5.25
12:38:34.787,4.875,2.75
12:38:34.798,3.5313,0.3125
12:38:34.808,2.5625,0.125
12:38:34.818,1.5,-2.1875
12:38:34.828,0.5625,-4.4375
12:38:34.837,-0.5,-5.1875
12:38:34.849,-1.1875,-7.75
12:38:34.858,-1.9375,-9.0625
12:38:34.868,-2.5938,-10
12:38:34.877,-2.7188,-12.625
12:38:34.887,-3.7188,-13.7501
12:38:34.897,-3.5938,-15.5001
12:38:34.908,-4.9063,-16.9376
12:38:34.918,-6.25,-18.8126
12:38:34.926,-6.9688,-18.8751
12:38:34.937,-7.0938,-20.7501
12:38:34.947,-7.5625,-22.3126
12:38:34.958,-8.8438,-23.2501
12:38:34.966,-8.875,-24.3751
12:38:34.978,-9.5,-25.8751
12:38:34.987,-9.6875,-25.8126
12:38:34.997,-9.9063,-27.9376
12:38:35.008,-9.9688,-27.6876
12:38:35.018,-10.7813,-29.0626
12:38:35.038,-10.8125,-29.0001
12:38:35.043,-11,-30.6251
12:38:35.057,-11.25,-31.2501
12:38:35.060,-11.5,-32.3751
12:38:35.069,-11.8438,-32.1251
12:38:35.078,-12.375,-33.0001
12:38:35.092,-12.5938,-34.7501
12:38:35.097,-13.7188,-34.8751
12:38:35.108,-13.7813,-35.9376
12:38:35.118,-13.6251,-36.3751
12:38:35.128,-13.6876,-37.3126
12:38:35.137,-13.9688,-37.1876
12:38:35.147,-14.5938,-37.8751
12:38:35.159,-14.1251,-38.1251
12:38:35.167,-14.1563,-39.5627
12:38:35.177,-14.9688,-38.6876
12:38:35.187,-15.0001,-40.5627
12:38:35.196,-16.3751,-41.3127
12:38:35.208,-17.0626,-42.5627
12:38:35.247,-17.4688,-44.4377
12:38:35.248,-17.2501,-44.0627
12:38:35.250,-17.5001,-45.1877
12:38:35.253,-16.4063,-41.5002
12:38:35.260,-12.2188,-35.3751
12:38:35.290,-6.7188,-22.3126
12:38:35.292,0.625,-8.25
12:38:35.294,7.2188,7.25
12:38:35.300,13.0938,21.3751
12:38:35.332,18.2813,32.0001
12:38:35.334,21.9688,40.1877
12:38:35.338,23.0938,45.5627
12:38:35.365,24.0001,46.1252
12:38:35.365,23.8438,46.8127
12:38:35.366,23.3126,46.5002
12:38:35.374,21.9688,43.6877
12:38:35.390,21.2188,42.6252
12:38:35.392,20.5938,41.3752
12:38:35.399,19.4688,40.0002
12:38:35.407,18.9688,39.0626
12:38:35.417,18.5626,37.8751
12:38:35.428,17.8438,37.3126
12:38:35.437,17.2188,36.5626
12:38:35.448,16.8751,35.2501
12:38:35.457,16.2813,36.2501
12:38:35.471,16.4688,35.2501
12:38:35.478,16.4688,33.8126
12:38:35.488,15.5938,32.8126
12:38:35.497,14.7501,30.5626
12:38:35.508,14.0938,29.1876
12:38:35.517,13.125,25.2501
12:38:35.528,11.7188,22.9376
12:38:35.538,10.6875,20.6876
12:38:35.548,9.6875,17.6876
12:38:35.558,9.8438,17.6251
12:38:35.567,9.6563,16.0001
12:38:35.579,9.7188,16.1876
12:38:35.587,9.875,14.5626
12:38:35.597,9.4688,15.3126
12:38:35.608,9.4688,13.8751
12:38:35.618,9.5,14.5626
12:38:35.628,8.9375,12.375
12:38:35.638,8.5938,12.875
12:38:35.648,8.125,11.3125
12:38:35.656,8.2188,11.25
12:38:35.667,7.875,9.5
12:38:35.677,7.2188,9.1875
12:38:35.688,7.0313,6.3125
12:38:35.698,6.0938,6
12:38:35.708,5.1875,3.375
12:38:35.717,4.0938,2.0625
12:38:35.729,3.1875,-0.625
12:38:35.738,1.6563,-1.625
12:38:35.747,0.4375,-4.9375
12:38:35.758,-0.4063,-5.125
12:38:35.768,-1.125,-7.4375
12:38:35.777,-1.2188,-8.625
12:38:35.789,-1.2813,-9.9375
12:38:35.798,-2.25,-11.5625
12:38:35.807,-1.9063,-12.8125
12:38:35.819,-2.3125,-13.4376
12:38:35.828,-3,-15.1251
12:38:35.836,-3.25,-15.9376
12:38:35.847,-3.4688,-16.7501
12:38:35.858,-3.875,-17.1251
12:38:35.868,-4.4375,-18.0626
12:38:35.879,-3.5625,-19.5001
12:38:35.888,-4.5938,-19.5001
12:38:35.918,-4.75,-21.9376
12:38:35.920,-4.8438,-22.2501
12:38:35.922,-5.5313,-23.0626
12:38:35.928,-5.5938,-24.2501
12:38:35.963,-7.0313,-24.6876
12:38:35.964,-8.0625,-27.5626
12:38:35.966,-8.4063,-27.5626
12:38:35.973,-9.7813,-27.6251
12:38:35.980,-9.5625,-29.3751
12:38:36.009,-9.4063,-30.1251
12:38:36.012,-9.6563,-30.0001
12:38:36.014,-9.5625,-30.8751
12:38:36.018,-9.0313,-31.5001
12:38:36.050,-9.0313,-31.0626
12:38:36.052,-9.625,-32.8126
12:38:36.066,-10.125,-33.7501
12:38:36.070,-10.9688,-34.0001
12:38:36.074,-11.0938,-35.9376
12:38:36.077,-10.6563,-36.1876
12:38:36.096,-11.5938,-35.8751
12:38:36.099,-11.4688,-38.6876
12:38:36.114,-10.9063,-38.1876
12:38:36.117,-9.7813,-36.3751
12:38:36.126,-5.9375,-29.5626
12:38:36.138,-1.7813,-19.0626
12:38:36.147,4.0938,-6.625
12:38:36.157,10.6875,8.375
12:38:36.168,15.2188,21.8751
12:38:36.178,19.5313,32.1876
12:38:36.189,22.1876,39.8752
12:38:36.197,23.1563,44.3127
12:38:36.210,24.1251,46.3752
12:38:36.220,23.7188,46.6877
12:38:36.230,23.6251,46.6252
12:38:36.238,23.0313,45.4377
12:38:36.247,22.2813,44.3127
12:38:36.258,21.8438,43.4377
12:38:36.269,22.2188,41.0627
12:38:36.278,21.3126,40.1877
12:38:36.288,20.8438,38.8126
12:38:36.297,20.0001,38.5001
12:38:36.309,20.3438,38.3751
12:38:36.318,19.8126,39.2502
12:38:36.329,20.2501,38.0001
12:38:36.338,20.2501,37.1251
12:38:36.353,19.9688,36.1251
12:38:36.360,19.5001,36.0626
12:38:36.367,18.6251,33.9376
12:38:36.384,16.6251,30.6251
12:38:36.400,14.8438,27.6251
12:38:36.402,13.2501,24.3126
12:38:36.408,12.2813,22.4376
12:38:36.417,12.0625,19.5626
12:38:36.428,11.4688,18.8126
12:38:36.437,11.6875,17.3751
12:38:36.448,11.4688,16.7501
12:38:36.458,11.4375,16.3751
12:38:36.469,11.0938,14.5626
12:38:36.478,11.6563,15.1251
12:38:36.488,11.5313,14.3751
12:38:36.497,10.8125,13.8751
12:38:36.522,11.25,13.6876
12:38:36.527,11.4375,12.875
12:38:36.530,11.375,12.625
12:38:36.538,11.125,11.375
12:38:36.547,11.0938,9.625
12:38:36.558,10.5,9
12:38:36.567,9.8438,6.75
12:38:36.577,8.875,5.9375
12:38:36.587,7.3438,3.0625
12:38:36.601,6.5625,1.75
12:38:36.608,5.4375,-0.125
12:38:36.619,4.5313,-1.8125
12:38:36.626,4.625,-3.25
12:38:36.637,3.8125,-4.75
12:38:36.652,2.8125,-6.8125
12:38:36.686,1.6875,-8.0625
12:38:36.690,1.9375,-9.1875
12:38:36.692,1.5938,-11.0625
12:38:36.693,0.3438,-10.8125
12:38:36.698,0,-13.3126
12:38:36.724,0.125,-13.9376
12:38:36.727,0.0313,-15.8751
12:38:36.729,-1.1563,-16.4376
12:38:36.761,-1,-18.0001
12:38:36.766,-1.0313,-16.9376
12:38:36.768,-0.8125,-19.3126
12:38:36.771,-1.0625,-18.8751
12:38:36.786,-0.9375,-20.6876
12:38:36.788,-1.5938,-21.2501
12:38:36.814,-2.5313,-22.1251
12:38:36.817,-2.5313,-23.7501
12:38:36.819,-3.7813,-24.5626
12:38:36.828,-4.0313,-25.5001
12:38:36.866,-5.5,-26.9376
12:38:36.868,-5.3438,-27.8126
12:38:36.872,-6.125,-28.6876
12:38:36.872,-6.0313,-29.7501
12:38:36.884,-6.4688,-29.8751
12:38:36.892,-7.2188,-31.4376
12:38:36.903,-6.8125,-31.9376
12:38:36.914,-7.3125,-31.1876
12:38:36.923,-6.5938,-32.8126
12:38:36.933,-7.6875,-32.8751
12:38:36.943,-8.3438,-34.7501
12:38:36.953,-8.25,-34.5001
12:38:36.962,-8.7188,-35.6251
12:38:36.976,-7.3438,-36.3751
12:38:36.983,-9.0313,-37.2501
12:38:36.994,-9.375,-39.1877
12:38:37.002,-10.2813,-40.0627
12:38:37.011,-10.2188,-39.3752
12:38:37.022,-9.125,-37.8751
12:38:37.032,-5.5938,-29.7501
12:38:37.043,-0.0938,-17.5001
12:38:37.053,7.4688,-3.3125
12:38:37.062,13.4688,12.1875
12:38:37.073,19.5626,25.1251
12:38:37.081,23.4376,35.6251
12:38:37.091,26.2501,42.4377
12:38:37.103,28.2501,46.9377
12:38:37.114,28.5001,48.6877
12:38:37.128,27.8126,48.9377
12:38:37.137,26.8751,47.1877
12:38:37.148,25.7501,46.8127
12:38:37.158,25.2501,44.3752
12:38:37.168,23.7501,43.9377
12:38:37.177,23.3438,41.5002
12:38:37.188,21.5626,40.2502
12:38:37.197,21.2188,39.0626
12:38:37.208,20.5626,38.7501
12:38:37.218,20.5938,38.0626
12:38:37.229,19.8438,37.0626
12:38:37.238,19.8126,37.4376
12:38:37.247,19.5001,37.0001
12:38:37.258,19.7188,35.8751
12:38:37.268,18.8126,33.9376
12:38:37.277,18.1563,32.5001
12:38:37.287,16.2188,29.2501
12:38:37.299,15.6251,26.6251
12:38:37.307,14.9688,23.9376
12:38:37.318,14.1563,22.6251
12:38:37.328,13.4688,19.3751
12:38:37.339,12.6875,18.8126
12:38:37.353,12.9375,17.5001
12:38:37.360,12.4688,17.3751
12:38:37.391,13,16.1251
12:38:37.393,12.375,15.5001
12:38:37.422,12.3125,15.3751
12:38:37.449,11.8438,14.5001
12:38:37.451,11.5,14.4376
12:38:37.453,10.6563,12.5625
12:38:37.453,9.5,11.5
12:38:37.457,8.1875,9.375
12:38:37.494,7.6563,7.9375
12:38:37.496,6,7.375
12:38:37.498,6.375,4.875
12:38:37.501,4.5625,3.625
12:38:37.532,3.5938,1.375
12:38:37.534,3.875,-0.125
12:38:37.537,3.5,-1.8125
12:38:37.543,3.5,-3.5625
12:38:37.548,2.2813,-5.3125
12:38:37.559,1.5625,-6.5625
12:38:37.568,1.125,-8.5
12:38:37.578,-0.2813,-10.1875
12:38:37.587,-0.9063,-11.9375
12:38:37.597,-1.25,-12.8125
12:38:37.608,-2.5625,-15.4376
12:38:37.618,-3.625,-19.0001
12:38:37.628,-3.625,-20.1251
12:38:37.637,-4.75,-20.8126
12:38:37.647,-5.5625,-22.2501
12:38:37.656,-5.7813,-23.8751
12:38:37.679,-6.0313,-24.5001
12:38:37.682,-7.4375,-24.6876
12:38:37.692,-7.4375,-27.3751
12:38:37.698,-7.5313,-26.5626
12:38:37.714,-7,-28.5001
12:38:37.727,-5.875,-28.6251
12:38:37.729,-6.8125,-28.8751
12:38:37.744,-6.4063,-30.1876
12:38:37.746,-7.8125,-31.1251
12:38:37.758,-8.5,-32.4376
12:38:37.768,-8.5938,-32.5001
12:38:37.777,-9.8125,-34.0626
12:38:37.804,-10.5313,-34.8126
12:38:37.806,-11.125,-34.6876
12:38:37.812,-11.4688,-36.1876
12:38:37.819,-10.9375,-36.6876
12:38:37.827,-11.3125,-36.7501
12:38:37.836,-11.5938,-37.8751
12:38:37.848,-12.4688,-37.7501
12:38:37.857,-13.0313,-39.6252
12:38:37.867,-14.1251,-39.9377
12:38:37.876,-15.8438,-41.8127
12:38:37.887,-16.7188,-43.8127
12:38:37.897,-16.9376,-44.1877
12:38:37.908,-16.6563,-44.6252
12:38:37.918,-15.8438,-43.9377
12:38:37.928,-14.3438,-40.3752
12:38:37.937,-10.3438,-33.0001
12:38:37.947,-4.0313,-20.6876
12:38:37.957,2.25,-5.4375
12:38:37.968,8.5938,10.3125
12:38:37.978,14.3751,22.0001
12:38:37.986,17.9063,33.7501
12:38:37.998,21.8751,40.5002
12:38:38.009,22.9688,45.5627
12:38:38.018,24.5313,46.9377
12:38:38.030,24.2813,47.6877
12:38:38.038,24.3438,46.2502
12:38:38.047,23.4063,44.7502
12:38:38.056,22.9688,44.1877
12:38:38.068,22.6563,42.5627
12:38:38.077,21.8438,41.3127
12:38:38.089,21.2188,40.2502
12:38:38.117,21.0313,39.1877
12:38:38.120,21.6563,39.3752
12:38:38.121,21.3126,38.7501
12:38:38.131,21.5313,38.2501
12:38:38.158,21.4376,38.3126
12:38:38.161,21.6251,37.5001
12:38:38.163,20.6563,35.8126
12:38:38.168,19.6251,34.7501
12:38:38.194,18.8751,32.0626
12:38:38.202,17.3751,29.4376
12:38:38.204,17.3438,27.0001
12:38:38.208,15.8438,24.7501
12:38:38.234,15.9376,22.5001
12:38:38.236,14.7188,20.8126
12:38:38.260,14.8438,19.4376
12:38:38.261,13.9688,19.0001
12:38:38.264,14.4688,17.5626
12:38:38.270,13.7813,17.6251
12:38:38.278,13.2501,16.8751
12:38:38.288,12.9375,15.3751
12:38:38.298,11.7188,15.3751
12:38:38.308,11.9688,13.8751
12:38:38.317,11.125,13.7501
12:38:38.327,11.3438,12.625
12:38:38.338,11.0938,11.8125
12:38:38.348,11.3125,11.125
12:38:38.357,11,10.0625
12:38:38.367,10.2813,8.3125
12:38:38.377,9.7188,7.3125
12:38:38.387,8.5625,5.6875
12:38:38.398,7.4063,3.625
12:38:38.407,6.0625,1.9375
12:38:38.418,5,0.1875
12:38:38.428,4.25,-2.125
12:38:38.438,3.0938,-3.25
12:38:38.449,3.3125,-5.5
12:38:38.458,1.9375,-6
12:38:38.466,1.75,-8.6875
12:38:38.479,1.1875,-8.75
12:38:38.487,1.1563,-11.125
12:38:38.497,-0.125,-11.4375
12:38:38.509,0.1563,-13.5001
12:38:38.520,-0.9688,-14.3126
12:38:38.528,-1.0625,-16.1251
12:38:38.538,-2.0625,-16.7501
12:38:38.548,-1.4688,-18.0001
12:38:38.558,-0.7188,-17.8126
12:38:38.569,1,-18.1251
12:38:38.579,3.8125,-18.2501
12:38:38.588,5.7188,-17.5626
12:38:38.597,7.3125,-18.8126
12:38:38.608,8.375,-18.9376
12:38:38.617,8.6875,-19.5626
12:38:38.628,8.7188,-20.2501
12:38:38.637,8.6875,-22.3126
12:38:38.648,8.3125,-22.1251
12:38:38.657,8.0313,-23.5626
12:38:38.667,7.9063,-24.8126
12:38:38.677,7.875,-24.7501
12:38:38.687,6.9063,-26.0001
12:38:38.705,6.5,-27.0626
12:38:38.709,4.7813,-27.9376
12:38:38.723,3.3125,-30.7501
12:38:38.738,1.4688,-30.9376
12:38:38.742,-0.7188,-33.3126
12:38:38.756,-2.6563,-35.0001
12:38:38.761,-5.4688,-35.8126
12:38:38.767,-6.6563,-38.7501
12:38:38.777,-7.8438,-38.7501
12:38:38.786,-7.875,-39.3126
12:38:38.797,-7.2188,-36.1876
12:38:38.806,-3.9375,-30.0626
12:38:38.817,-0.3125,-19.2501
12:38:38.827,5.6563,-4.8125
12:38:38.838,10.25,9.3125
12:38:38.846,14.5626,23.3126
12:38:38.857,18.7813,32.3751
12:38:38.872,20.9376,38.8126
12:38:38.878,22.3438,43.3127
12:38:38.911,22.4688,45.5002
12:38:38.913,22.9063,45.8752
12:38:38.915,22.1563,44.3752
12:38:38.918,22.0938,43.5002
12:38:38.949,21.5938,41.8752
12:38:38.951,19.8126,40.5627
12:38:38.953,19.0938,39.1252
12:38:38.956,18.1251,37.7501
12:38:38.986,18.3438,36.9376
12:38:38.991,17.9376,35.8751
12:38:38.992,16.7813,35.0626
12:38:38.999,16.7188,35.6251
12:38:39.059,17.2813,34.6876
12:38:39.059,15.8438,33.1251
12:38:39.085,15.6563,33.5001
12:38:39.086,15.0313,31.5001
12:38:39.086,14.0938,28.8751
12:38:39.102,13.8438,27.3126
12:38:39.105,12.25,24.3126
12:38:39.106,11.875,21.6251
12:38:39.109,10.9063,19.6876
12:38:39.109,10.25,18.1251
12:38:39.118,8.0313,16.2501
12:38:39.128,6.75,14.1251
12:38:39.137,5.6875,12.9375
12:38:39.147,5.375,11.8125
12:38:39.156,4.2188,11.8125
12:38:39.168,3.875,10.8125
12:38:39.176,3.5938,9.9375
12:38:39.186,2.9375,9
12:38:39.198,1.6563,8.375
12:38:39.208,0.875,6.6875
12:38:39.220,-0.4688,6.4375
12:38:39.226,-1.2188,3.5625
12:38:39.237,-1.5625,2.4375
12:38:39.248,-1.5,1.6875
12:38:39.256,-2.2188,0.0625
12:38:39.267,-2.625,-2.5
12:38:39.277,-3,-3.75
12:38:39.288,-5.0625,-5.3125
12:38:39.298,-6,-5.875
12:38:39.307,-6.4063,-8.9375
12:38:39.316,-6.875,-9.5
12:38:39.328,-7.25,-12
12:38:39.340,-7.2188,-12.6875
12:38:39.347,-7.625,-13.6876
12:38:39.358,-8.1875,-15.1251
12:38:39.368,-8.0313,-16.3126
12:38:39.377,-9.0625,-18.3126
12:38:39.387,-9.7813,-18.8126
12:38:39.396,-10.1563,-19.3126
12:38:39.408,-10.7188,-21.1251
12:38:39.418,-11.1875,-21.5001
12:38:39.429,-11.0625,-23.3751
12:38:39.442,-11.2813,-23.1876
12:38:39.453,-11.5,-22.9376
12:38:39.461,-11.4688,-25.1251
12:38:39.474,-11.8438,-25.5001
12:38:39.483,-11.8125,-26.2501
12:38:39.494,-12.5,-27.5001
12:38:39.501,-12.3125,-27.8751
12:38:39.513,-12.9375,-28.3751
12:38:39.523,-13.8126,-30.6251
12:38:39.532,-14.0313,-31.4376
12:38:39.542,-14.1563,-31.2501
12:38:39.551,-14.4063,-32.6251
12:38:39.563,-13.9376,-32.4376
12:38:39.572,-14.9376,-32.6251
12:38:39.584,-14.6876,-34.3126
12:38:39.618,-15.3751,-34.1876
12:38:39.619,-15.5626,-35.2501
12:38:39.621,-15.4063,-36.2501
12:38:39.648,-15.9688,-37.2501
12:38:39.649,-16.7813,-38.1251
12:38:39.650,-16.7188,-38.0001
12:38:39.657,-17.4063,-38.3751
12:38:39.664,-17.2813,-40.0002
12:38:39.695,-17.8126,-40.5002
12:38:39.696,-17.9063,-41.5627
12:38:39.699,-18.1251,-41.5627
12:38:39.701,-17.5313,-41.7502
12:38:39.735,-17.2501,-40.6877
12:38:39.736,-14.3751,-36.0626
12:38:39.741,-9.9688,-26.5626
12:38:39.745,-3.875,-12.1875
12:38:39.755,3.3438,1.875
12:38:39.762,8.6563,16.0001
12:38:39.774,13.6251,26.9376
12:38:39.783,17.3438,35.1251
12:38:39.793,19.0626,41.5002
12:38:39.804,20.0001,44.2502
12:38:39.812,20.2813,45.7502
12:38:39.823,20.0001,44.1877
12:38:39.831,19.5626,43.8127
12:38:39.843,19.0626,41.8752
12:38:39.851,18.6876,41.3127
12:38:39.862,18.5626,39.9377
12:38:39.873,18.5001,39.8127
12:38:39.883,17.4376,38.2501
12:38:39.893,17.2501,38.0626
12:38:39.901,17.2188,37.6876
12:38:39.913,17.3438,37.1876
12:38:39.921,17.8126,36.8751
12:38:39.933,16.9688,36.5001
12:38:39.942,16.0626,37.0001
12:38:39.952,15.8751,34.9376
12:38:39.961,15.4688,33.0626
12:38:39.973,15.0938,31.5001
12:38:39.981,13,29.4376
12:38:39.992,12.4688,26.3126
12:38:40.002,10.8125,24.2501
12:38:40.012,10.2188,21.6876
12:38:40.031,9.125,19.8126
12:38:40.034,8.5625,18.6251
12:38:40.049,9.1563,17.6876
12:38:40.064,8.4063,17.5001
12:38:40.066,8.7188,17.3126
12:38:40.076,8.75,15.6876
12:38:40.083,8.1875,15.5626
12:38:40.092,8.0938,14.8751
12:38:40.101,8.2188,14.8751
12:38:40.111,8.3438,13.8751
12:38:40.121,8.375,12.25
12:38:40.132,8.25,11.8125
12:38:40.142,8.0625,11
12:38:40.151,7.0625,9.5
12:38:40.162,5.75,7.875
12:38:40.171,5.2188,6.875
12:38:40.186,4.2813,4.125
12:38:40.191,4,2.875
12:38:40.203,2.8125,1.5625
12:38:40.211,3.2188,0
12:38:40.222,1.75,-1.6875
12:38:40.232,0.9375,-2.6875
12:38:40.242,0.8125,-4.875
12:38:40.252,-0.5313,-5.6875
12:38:40.261,-0.8125,-6.8125
12:38:40.274,-0.9063,-9.4375
12:38:40.282,-1.3438,-10.0625
12:38:40.292,-1.5,-11.375
12:38:40.303,-1.8438,-11.9375
12:38:40.333,-0.875,-13.125
12:38:40.336,-1.8438,-13.3751
12:38:40.337,-1.7188,-14.9376
12:38:40.372,-3.0625,-16.1876
12:38:40.372,-2.7188,-16.8751
12:38:40.403,-5.0313,-18.3751
12:38:40.433,-4.9688,-19.8751
12:38:40.435,-7.0313,-20.8126
12:38:40.437,-7.1563,-21.6251
12:38:40.437,-8.1875,-23.0001
12:38:40.439,-7.5,-23.3751
12:38:40.441,-8.3438,-24.4376
12:38:40.468,-9.1563,-25.8751
12:38:40.468,-9,-26.4376
12:38:40.470,-10.0313,-26.9376
12:38:40.472,-11.0313,-27.7501
12:38:40.477,-11.75,-29.3751
12:38:40.485,-12.8125,-29.8751
12:38:40.491,-13.125,-31.6251
12:38:40.503,-13.8126,-31.5001
12:38:40.511,-13.3751,-32.2501
12:38:40.523,-13.1563,-33.4376
12:38:40.532,-13.0313,-33.6876
12:38:40.542,-12.875,-34.6251
12:38:40.552,-13.0625,-35.0001
12:38:40.561,-13.4688,-35.6876
12:38:40.572,-13.5938,-36.1876
12:38:40.582,-14.4063,-37.5626
12:38:40.591,-15.3438,-38.8751
12:38:40.601,-16.2813,-38.8751
12:38:40.612,-15.8751,-40.9377
12:38:40.623,-17.4376,-41.5627
12:38:40.633,-17.6251,-42.8752
12:38:40.642,-17.4688,-42.4377
12:38:40.654,-16.0626,-41.0627
12:38:40.663,-12.875,-33.2501
12:38:40.672,-6.625,-23.0626
12:38:40.683,-0.4688,-8.9375
12:38:40.692,6.125,6.5625
12:38:40.701,11.9063,18.8126
12:38:40.711,16.4688,31.0001
12:38:40.723,19.4063,37.6876
12:38:40.732,21.2813,42.1877
12:38:40.742,22.3751,44.8752
12:38:40.751,22.3751,45.8752
12:38:40.763,22.4063,44.8127
12:38:40.772,20.1876,43.0002
12:38:40.782,19.3126,40.8127
12:38:40.791,18.0001,39.5627
12:38:40.803,16.8126,37.7501
12:38:40.813,16.1563,35.5626
12:38:40.822,15.4376,35.6876
12:38:40.832,15.4063,34.0001
12:38:40.842,15.5001,34.4376
12:38:40.853,15.8126,34.4376
12:38:40.862,15.6563,34.0001
12:38:40.872,14.9063,32.6251
12:38:40.888,13.8126,31.6876
12:38:40.899,13.1876,30.6876
12:38:40.909,12.375,29.0626
12:38:40.917,12,26.8751
12:38:40.928,10.7188,24.6876
12:38:40.938,10.4688,21.8751
12:38:40.948,9.5313,19.8751
12:38:40.957,9.1563,17.9376
12:38:40.966,7.6875,15.7501
12:38:40.976,6.875,14.3751
12:38:40.988,6.3438,13.5001
12:38:40.998,5.9688,12.9375
12:38:41.006,6.3438,11.8125
12:38:41.017,5.8438,12.4375
12:38:41.028,6.0625,11.6875
12:38:41.036,5.9688,10.75
12:38:41.048,6.1563,11.4375
12:38:41.081,6.4375,10.4375
12:38:41.082,5.5313,8.6875
12:38:41.085,6,7.25
12:38:41.087,4.875,7.125
12:38:41.122,4.5313,5.125
12:38:41.125,3.625,3.25
12:38:41.126,2.5313,1.625
12:38:41.129,1.875,-0.125
12:38:41.159,0.9063,-2.8125
12:38:41.163,0.125,-3.4375
12:38:41.164,0.2813,-4.1875
12:38:41.172,-0.3438,-6.5625
12:38:41.177,-1.3438,-7.9375
12:38:41.203,-2.4375,-8.6875
12:38:41.205,-2.3125,-11.1875
12:38:41.208,-3.125,-12.375
12:38:41.219,-4.0938,-12.875
12:38:41.235,-4.5,-14.6876
12:38:41.238,-5.75,-16.2501
12:38:41.247,-6.2813,-17.6876
12:38:41.256,-6.5313,-17.4376
12:38:41.267,-6.5625,-19.1876
12:38:41.276,-6.5313,-20.2501
12:38:41.288,-7.0625,-20.7501
12:38:41.298,-6.75,-21.0626
12:38:41.313,-7.0313,-22.8126
12:38:41.322,-7.625,-23.1876
12:38:41.327,-8.0313,-24.1251
12:38:41.337,-8.6563,-25.1251
12:38:41.357,-9.2813,-26.5001
12:38:41.360,-9.875,-27.0626
12:38:41.370,-9.875,-27.5001
12:38:41.379,-10.625,-27.6876
12:38:41.396,-10.6875,-28.6876
12:38:41.407,-10.2188,-30.0001
12:38:41.410,-10.625,-29.5001
12:38:41.416,-10.2813,-31.1251
12:38:41.428,-10.7188,-30.6876
12:38:41.436,-10.5625,-32.2501
12:38:41.448,-11.7188,-32.0626
12:38:41.457,-11.9688,-33.4376
12:38:41.467,-12.4688,-32.8126
12:38:41.478,-12.3125,-34.7501
12:38:41.488,-13.0313,-35.0626
12:38:41.498,-13,-36.5001
12:38:41.508,-13.3438,-37.3751
12:38:41.517,-13.6251,-38.0001
12:38:41.526,-13.4376,-39.1876
12:38:41.538,-13.5626,-39.3751
12:38:41.546,-11.875,-37.4376
12:38:41.556,-9.9063,-32.1876
12:38:41.568,-5.5,-22.9376
12:38:41.576,1.2188,-10.0625
12:38:41.587,6.5625,5.4375
12:38:41.598,13.5626,18.1251
12:38:41.606,17.4376,30.0001
12:38:41.617,20.5313,37.1251
12:38:41.645,22.1876,42.1877
12:38:41.646,22.9688,45.1252
12:38:41.653,23.5001,45.3127
12:38:41.658,23.6563,45.7502
12:38:41.668,23.3126,43.8127
12:38:41.687,22.9063,43.6252
12:38:41.690,21.8438,40.8127
12:38:41.706,20.7188,39.5627
12:38:41.722,19.8126,37.8751
12:38:41.727,18.5313,37.1876
12:38:41.731,17.6563,36.5626
12:38:41.736,17.9688,35.2501
12:38:41.747,17.4376,34.6876
12:38:41.776,17.7501,35.8751
12:38:41.779,17.9688,34.7501
12:38:41.781,17.4688,34.3126
12:38:41.788,16.9688,32.1251
12:38:41.823,16.5938,30.9376
12:38:41.825,15.6563,29.3126
12:38:41.827,14.1876,25.3751
12:38:41.829,12.9375,23.6876
12:38:41.838,11.625,20.7501
12:38:41.871,11.9688,19.3751
12:38:41.873,11.4688,17.9376
12:38:41.875,10.875,16.5626
12:38:41.877,10.7188,16.5626
12:38:41.909,10.0313,15.0001
12:38:41.911,10.375,14.5626
12:38:41.914,9.75,13.6251
12:38:41.918,9.4375,14.1876
12:38:41.942,9.25,13.1876
12:38:41.945,9.4688,12.0625
12:38:41.948,8.9375,13.0625
12:38:41.958,8.9063,11.4375
12:38:41.967,8.4688,9.5
12:38:41.976,7.5938,8.125
12:38:41.988,6.2188,7.4375
12:38:41.997,5.7813,5.375
12:38:42.007,4.7813,2.8125
12:38:42.017,4.4688,1.8125
12:38:42.027,3.9063,-0.375
12:38:42.037,2.5,-2.0625
12:38:42.048,2.375,-2.6875
12:38:42.062,2.4063,-4.5
12:38:42.068,0.9688,-6.75
12:38:42.077,0.1563,-7.9375
12:38:42.088,-0.7188,-9.75
12:38:42.098,-1.75,-10.75
12:38:42.108,-2.375,-12.6875
12:38:42.117,-3.4688,-13.3751
12:38:42.126,-3.0938,-14.6876
12:38:42.138,-4.4688,-16.0626
12:38:42.147,-4.5,-16.2501
12:38:42.156,-4.375,-17.2501
12:38:42.167,-4.4688,-18.8126
12:38:42.177,-4.75,-18.8126
12:38:42.187,-4.625,-20.0626
12:38:42.198,-4.7813,-20.8751
12:38:42.206,-5.2188,-20.5001
12:38:42.218,-4.9688,-22.4376
12:38:42.227,-7,-23.1876
12:38:42.237,-7.2813,-24.5626
12:38:42.246,-8.1563,-25.6876
12:38:42.256,-8.625,-25.8751
12:38:42.266,-8.9688,-26.3751
12:38:42.278,-9.1563,-26.8126
12:38:42.286,-9.0625,-28.6251
12:38:42.298,-9.0625,-28.3126
12:38:42.306,-8.2813,-27.9376
12:38:42.317,-8.9063,-29.1251
12:38:42.326,-9,-29.8751
12:38:42.337,-10,-30.3751
12:38:42.346,-10.625,-31.6876
12:38:42.358,-11.3125,-32.6876
12:38:42.366,-12.375,-34.1251
12:38:42.378,-13,-34.8126
12:38:42.386,-12.7813,-35.3126
12:38:42.398,-12.0625,-33.8126
12:38:42.406,-9.0938,-29.1876
12:38:42.418,-5.4688,-20.0626
12:38:42.427,0.875,-7.625
12:38:42.449,6.2188,5.625
12:38:42.452,12.3438,19.3126
12:38:42.479,16.4376,30.0001
12:38:42.484,19.4376,37.1876
12:38:42.484,22.4376,43.0627
12:38:42.488,24.0938,45.7502
12:38:42.501,24.7188,46.8752
12:38:42.513,24.7813,46.7502
12:38:42.517,23.8126,46.3752
12:38:42.550,23.2501,44.6252
12:38:42.552,21.9376,42.4377
12:38:42.554,21.1563,41.1877
12:38:42.581,20.2188,40.0627
12:38:42.581,19.4688,39.0001
12:38:42.583,19.5001,38.5626
12:38:42.591,19.9063,38.6251
12:38:42.605,19.5313,38.3126
12:38:42.607,19.8126,38.8126
12:38:42.621,20.1251,39.1251
12:38:42.627,19.6251,38.0001
12:38:42.637,18.9688,37.1876
12:38:42.648,17.6251,35.8751
12:38:42.657,17.1563,33.2501
12:38:42.677,14.9063,31.2501
12:38:42.679,13.9688,27.8126
12:38:42.693,12.5313,24.3751
12:38:42.701,11.8125,23.4376
12:38:42.707,10.9688,22.1251
12:38:42.717,10.7188,20.0001
12:38:42.727,10.25,18.6876
12:38:42.736,9.5625,17.8751
12:38:42.748,9.2188,18.5001
12:38:42.758,9.7188,17.1876
12:38:42.767,9.2188,16.1251
12:38:42.777,8.7813,16.3126
12:38:42.787,8.9375,16.8751
12:38:42.799,10.2188,15.8751
12:38:42.808,9.9375,14.5001
12:38:42.820,10.0938,14.1876
12:38:42.827,9.7188,12.3125
12:38:42.837,9.3438,11.125
12:38:42.847,8.625,10.125
12:38:42.856,8.0938,8.0625
12:38:42.868,6.9688,5.875
12:38:42.877,6.5,4.3125
12:38:42.886,5.5313,3.3125
12:38:42.896,5.875,1.75
12:38:42.922,5.2813,1.375
12:38:42.925,5.3438,-1.0625
12:38:42.929,5.6563,-2
12:38:42.938,4.875,-3.9375
12:38:42.946,4.4375,-5.5625
12:38:42.956,3.8125,-5.5
12:38:42.967,3.3125,-7.0625
12:38:42.977,2.0625,-9.125
12:38:42.992,1.5625,-10.75
12:38:43.007,0.7188,-10.625
12:38:43.009,1.2813,-12.5625
12:38:43.025,-0.2813,-13.5626
12:38:43.027,-1.0938,-13.6876
12:38:43.038,-0.9688,-15.5626
12:38:43.046,-1.5938,-16.0001
12:38:43.058,-1.6563,-16.7501
12:38:43.066,-2.125,-17.2501
12:38:43.077,-2.0313,-18.8126
12:38:43.088,-2.5,-20.2501
12:38:43.097,-3.3438,-20.6876
12:38:43.106,-2.5313,-20.9376
12:38:43.118,-3.1875,-22.6251
12:38:43.126,-3.625,-22.1251
12:38:43.136,-3.7188,-23.3126
12:38:43.147,-3.4375,-24.3751
12:38:43.181,-3.6563,-24.2501
12:38:43.183,-4.3438,-24.6251
12:38:43.187,-4.8438,-26.3751
12:38:43.187,-5.9063,-27.8751
12:38:43.218,-6.5313,-27.6876
12:38:43.220,-6.8125,-29.8751
12:38:43.222,-7.6563,-30.4376
12:38:43.230,-7.8125,-32.0001
12:38:43.258,-7.9063,-31.9376
12:38:43.260,-8.25,-33.3751
12:38:43.262,-8.8125,-34.6251
12:38:43.267,-9,-34.8751
12:38:43.276,-8.5938,-33.6876
12:38:43.308,-6.1875,-29.3126
12:38:43.311,-2.6563,-19.5001
12:38:43.313,3.5,-7
12:38:43.318,8.3438,6.125
12:38:43.345,14.2501,19.2501
12:38:43.346,17.6563,29.2501
12:38:43.349,21.0938,37.3751
12:38:43.359,22.6876,41.7502
12:38:43.368,24.2501,44.1252
12:38:43.376,24.1563,44.5627
12:38:43.388,23.8438,44.3752
12:38:43.398,23.0313,44.0002
12:38:43.406,22.4063,42.1877
12:38:43.416,21.2813,40.1252
12:38:43.427,20.7501,39.1876
12:38:43.437,20.6563,38.5001
12:38:43.447,19.9688,38.5001
12:38:43.458,20.2501,37.6876
12:38:43.466,20.9063,37.8751
12:38:43.476,20.5001,37.5626
12:38:43.487,20.5313,37.8751
12:38:43.499,20.9063,37.8751
12:38:43.506,19.7813,36.2501
12:38:43.518,18.7501,34.5626
12:38:43.527,17.7188,33.3126
12:38:43.538,16.4688,30.0626
12:38:43.547,14.6876,27.6876
12:38:43.557,13.5938,25.3751
12:38:43.566,12.3438,22.0626
12:38:43.578,10.8125,20.1251
12:38:43.587,9.6563,17.8126
12:38:43.597,9.2813,16.8751
12:38:43.608,7.5938,15.5001
12:38:43.616,7.375,15.0001
12:38:43.628,7.0625,14.6876
12:38:43.636,6.7188,14.4376
12:38:43.648,6.9063,15.0626
12:38:43.659,7.4063,14.3751
12:38:43.667,7.7188,13.3751
12:38:43.676,6.9688,12.5625
12:38:43.687,6.3438,12.3125
12:38:43.696,6.1563,11.25
12:38:43.707,5.9063,10.0625
12:38:43.721,5.4688,8.5
12:38:43.728,4.4063,6.5
12:38:43.738,4,5.6875
12:38:43.748,3.4063,4.75
12:38:43.757,3.4063,2.6875
12:38:43.767,2.25,0.4375
12:38:43.776,1.7813,-0.0625
12:38:43.788,1.6875,-1.25
12:38:43.797,1.5938,-2.9375
12:38:43.806,0.3438,-4.75
12:38:43.817,-0.625,-5.875
12:38:43.827,-0.7813,-7.1875
12:38:43.837,-2.0938,-9.0625
12:38:43.846,-2.375,-10.4375
12:38:43.856,-3.3125,-11
12:38:43.866,-3.875,-11.8125
12:38:43.879,-4.2813,-13.2501
12:38:43.888,-4.6563,-14.5626
12:38:43.897,-5.1875,-15.4376
12:38:43.906,-5.5625,-15.0626
12:38:43.916,-5.5938,-16.7501
12:38:43.927,-6.25,-17.4376
12:38:43.936,-6.75,-19.1251
12:38:43.947,-6.8438,-20.2501
12:38:43.958,-7.125,-19.8751
12:38:43.980,-7.7188,-21.6251
12:38:43.982,-7.9375,-22.1876
12:38:44.018,-8.4375,-23.0001
12:38:44.053,-8.7188,-23.3751
12:38:44.055,-9.4688,-24.3751
12:38:44.055,-10.1563,-24.6251
12:38:44.056,-11.1875,-26.1251
12:38:44.057,-12,-25.9376
12:38:44.065,-13.2501,-27.5626
12:38:44.068,-15.0313,-27.9376
12:38:44.068,-15.9376,-29.1251
12:38:44.098,-18.2188,-30.0001
12:38:44.099,-18.7188,-31.5001
12:38:44.101,-21.2188,-33.3751
12:38:44.109,-23.8438,-34.1876
12:38:44.138,-25.9688,-37.3751
12:38:44.141,-28.8751,-39.1251
12:38:44.144,-31.1564,-39.3752
12:38:44.148,-31.5939,-37.0626
12:38:44.178,-32.5626,-29.8126
12:38:44.180,-32.9689,-20.6876
12:38:44.182,-35.6876,-11.5625
12:38:44.209,-37.1251,-4.625
12:38:44.210,-39.5002,2.625
12:38:44.212,-42.7189,6.5
12:38:44.218,-47.8439,7.0625
12:38:44.232,-52.5002,6
12:38:44.236,-57.1565,3.1875
12:38:44.248,-63.969,-0.75
12:38:44.257,-70.1565,-6.375
12:38:44.268,-77.8128,-12.5625
12:38:44.276,-88.0003,-21.7501
12:38:44.293,-97.8754,-30.8751
12:38:44.309,-103.0941,-35.3126
12:38:44.312,-106.4379,-38.5001
12:38:44.316,-101.1566,-35.4376
12:38:44.326,-94.4379,-30.3751
12:38:44.337,-85.0003,-23.0626
12:38:44.348,-77.4065,-18.0001
12:38:44.357,-69.1565,-12.375
12:38:44.366,-58.6252,-6.8125
12:38:44.377,-50.7189,-1.5625
12:38:44.387,-44.1877,1.625
12:38:44.396,-38.7189,3.1875
12:38:44.408,-35.5314,3.0625
12:38:44.418,-32.5001,2.25
12:38:44.426,-29.7501,3.9375
12:38:44.437,-28.3439,2.25
12:38:44.447,-27.7814,2.5
12:38:44.458,-26.3439,1.875
12:38:44.467,-24.4688,2.125
12:38:44.477,-23.3751,2.6875
12:38:44.487,-23.5001,2.125
12:38:44.496,-23.6563,1.9375
12:38:44.506,-22.9063,1.6875
12:38:44.516,-22.4376,1.875
12:38:44.527,-21.1563,2.5
12:38:44.536,-21.1563,1.5
12:38:44.548,-20.2813,1.5625
12:38:44.559,-19.8126,1.25
12:38:44.566,-18.8751,1.75
12:38:44.576,-16.6876,1.25
12:38:44.586,-15.8751,0.1875
12:38:44.596,-15.5313,0.0625
12:38:44.606,-15.8126,-2.375
12:38:44.618,-17.6876,-4.5
12:38:44.628,-18.3751,-7.0625
12:38:44.658,-19.0938,-7.9375
12:38:44.660,-19.3126,-9.375
12:38:44.665,-19.5938,-10.625
12:38:44.672,-19.3438,-11.75
12:38:44.691,-20.7188,-13.6876
12:38:44.694,-21.7188,-14.3751
12:38:44.726,-23.2501,-17.5001
12:38:44.726,-25.6251,-18.7501
12:38:44.729,-26.0313,-21.1251
12:38:44.734,-24.9063,-21.4376
12:38:44.761,-24.8438,-21.6876
12:38:44.763,-23.9688,-22.0626
12:38:44.765,-25.4063,-23.8126
12:38:44.773,-25.7501,-24.8126
12:38:44.806,-25.0626,-25.0626
12:38:44.809,-24.2501,-25.5001
12:38:44.810,-23.6563,-24.7501
12:38:44.812,-24.4063,-26.3126
12:38:44.823,-26.4064,-27.2501
12:38:44.831,-27.6564,-29.0626
12:38:44.841,-27.7189,-30.0626
12:38:44.853,-27.8751,-30.1876
12:38:44.862,-28.7501,-30.5001
12:38:44.871,-29.1876,-31.1251
12:38:44.882,-28.8439,-32.1876
12:38:44.896,-29.7189,-31.9376
12:38:44.909,-29.1251,-33.0001
12:38:44.917,-29.7189,-33.1876
12:38:44.931,-30.6251,-34.2501
12:38:44.936,-31.5001,-35.6251
12:38:44.948,-32.4064,-36.5626
12:38:44.957,-32.4376,-37.8126
12:38:44.969,-32.4064,-38.0001
12:38:44.977,-31.2189,-37.1251
12:38:44.986,-27.3751,-32.2501
12:38:44.996,-22.5001,-23.4376
12:38:45.008,-16.6251,-11.375
12:38:45.016,-10.0313,1.75
12:38:45.027,-5.8125,13.3126
12:38:45.037,-1.1563,22.6251
12:38:45.047,2.0938,29.9376
12:38:45.056,6.4375,38.8751
12:38:45.068,7.9375,40.9377
12:38:45.076,9.3125,42.5002
12:38:45.086,8.875,42.4377
12:38:45.096,8.0938,41.3127
12:38:45.108,7.0313,41.1877
12:38:45.117,6.5938,39.5627
12:38:45.130,7.6563,40.4377
12:38:45.137,9.0625,40.6877
12:38:45.147,10.5938,42.4377
12:38:45.157,10.7188,42.1252
12:38:45.167,11.875,43.8127
12:38:45.179,11.5938,43.5002
12:38:45.186,11.5938,43.9377
12:38:45.196,11.75,43.0002
12:38:45.208,10.625,41.4377
12:38:45.218,9.125,39.9377
12:38:45.226,7.8125,38.0001
12:38:45.237,7.0625,34.8126
12:38:45.248,4.9375,32.0001
12:38:45.256,3.0625,28.4376
12:38:45.268,0.8125,26.2501
12:38:45.276,-0.0938,23.9376
12:38:45.287,-1.125,22.4376
12:38:45.302,-1.8438,21.6251
12:38:45.317,-2.375,19.5001
12:38:45.320,-2.25,19.4376
12:38:45.326,-1.1563,19.4376
12:38:45.338,0.125,20.5001
12:38:45.346,-0.0313,20.3751
12:38:45.358,-0.1563,18.6251
12:38:45.366,-1.6563,18.5626
12:38:45.387,-1.4063,16.7501
12:38:45.389,-1.6563,16.4376
12:38:45.425,-0.75,16.3751
12:38:45.428,-1.6563,14.8751
12:38:45.430,-1.5625,14.5001
12:38:45.432,-0.9375,13.3126
12:38:45.440,-0.3438,13.5626
12:38:45.472,0.0938,12.375
12:38:45.474,-0.3438,11.1875
12:38:45.476,-0.7813,10.5625
12:38:45.492,-2.1875,9.1875
12:38:45.493,-2.7813,6.9375
12:38:45.498,-4.4375,5.25
12:38:45.532,-4.1563,3.5625
12:38:45.536,-5.1563,2.125
12:38:45.537,-4.4688,1.5625
12:38:45.543,-4.75,0.5
12:38:45.549,-3.875,-0.125
12:38:45.556,-4.9063,-0.75
12:38:45.566,-5.625,-3.25
12:38:45.588,-6.0625,-3.75
12:38:45.592,-6.2813,-5.625
12:38:45.606,-5.875,-5.1875
12:38:45.608,-6.3125,-7.5
12:38:45.617,-5.625,-7.625
12:38:45.626,-4.9375,-8
12:38:45.638,-5.1563,-9.4375
12:38:45.647,-4.9688,-10.6875
12:38:45.658,-7.0313,-12.3125
12:38:45.666,-7.6563,-14.5626
12:38:45.677,-9.7188,-16.3126
12:38:45.686,-10.0938,-18.1251
12:38:45.700,-11.3438,-19.3126
12:38:45.706,-12.1563,-21.3126
12:38:45.718,-11.5313,-20.8126
12:38:45.728,-12.1563,-22.3751
12:38:45.736,-11.125,-23.3751
12:38:45.747,-11.6563,-22.9376
12:38:45.756,-12.5938,-26.2501
12:38:45.766,-13.6876,-26.0626
12:38:45.777,-15.3126,-27.9376
12:38:45.788,-15.1563,-29.1251
12:38:45.796,-16.9688,-30.4376
12:38:45.806,-17.7501,-32.4376
12:38:45.817,-18.4376,-33.3126
12:38:45.826,-19.0626,-34.1876
12:38:45.838,-19.0938,-34.9376
12:38:45.847,-19.4688,-35.3751
12:38:45.857,-19.4688,-36.6251
12:38:45.866,-17.6563,-34.0626
12:38:45.876,-15.5313,-27.6251
12:38:45.888,-8.8438,-17.2501
12:38:45.897,-1.5938,-2.625
12:38:45.908,4.9688,11.8125
12:38:45.916,10.4688,23.0626
12:38:45.926,13.9688,33.6251
12:38:45.936,16.7501,40.5002
12:38:45.947,18.4376,45.4377
12:38:45.956,19.9376,48.0627
12:38:45.968,20.0938,49.5627
12:38:45.976,19.9376,50.0002
12:38:45.987,19.6251,48.9377
12:38:45.997,18.0001,48.5627
12:38:46.009,17.9376,47.5627
12:38:46.016,17.6563,47.4377
12:38:46.027,17.5313,46.4377
12:38:46.037,16.6876,46.1252
12:38:46.047,17.4063,46.7502
12:38:46.058,16.8438,45.7502
12:38:46.068,16.9688,46.0002
12:38:46.076,15.5313,45.4377
12:38:46.087,15.0001,44.3127
12:38:46.098,14.4376,43.6252
12:38:46.121,13.7813,42.9377
12:38:46.124,13.9688,40.2502
12:38:46.128,11.3438,38.4376
12:38:46.159,10.6875,34.8751
12:38:46.160,8.8438,32.5001
12:38:46.163,6.8125,28.3126
12:38:46.171,4.75,25.5001
12:38:46.195,2.7813,23.5001
12:38:46.199,2,20.8126
12:38:46.200,1.5313,20.3751
12:38:46.235,2,19.6251
12:38:46.235,1.0625,19.1251
12:38:46.238,0.7813,19.1876
12:38:46.244,1.6875,18.0626
12:38:46.252,1.2813,18.5626
12:38:46.279,1.2188,16.5001
12:38:46.281,0.25,15.5001
12:38:46.283,-1.25,14.2501
12:38:46.290,-2.0625,12
12:38:46.298,-3.0313,10.5
12:38:46.307,-3.7188,8.375
12:38:46.318,-4.5625,6.9375
12:38:46.326,-4.4063,5.9375
12:38:46.338,-5.125,5.25
12:38:46.346,-4.6563,4.5
12:38:46.358,-4.0625,3.375
12:38:46.367,-4.8438,2.875
12:38:46.378,-5.7188,1.125
12:38:46.386,-6.2813,-1.125
12:38:46.397,-5.9688,-1.8125
12:38:46.406,-6.875,-3
12:38:46.418,-6.8125,-3.625
12:38:46.427,-7.0313,-5.1875
12:38:46.437,-7.2813,-5.625
12:38:46.450,-6.5938,-6.25
12:38:46.458,-7.4063,-7.4375
12:38:46.468,-6.9688,-8.125
12:38:46.477,-8.6875,-8.9375
12:38:46.486,-8.1875,-9.5
12:38:46.497,-8.875,-10.9375
12:38:46.508,-8.9375,-11.875
12:38:46.516,-9.75,-13
12:38:46.526,-9.7813,-13.6876
12:38:46.537,-10.4688,-14.5001
12:38:46.546,-11.0938,-15.5626
12:38:46.556,-12.5,-16.9376
12:38:46.567,-12.6563,-18.0001
12:38:46.577,-12.5938,-17.8126
12:38:46.596,-11.625,-18.6251
12:38:46.599,-10.8438,-18.4376
12:38:46.614,-10.125,-18.5001
12:38:46.617,-10.0313,-19.3751
12:38:46.628,-9.9688,-20.0001
12:38:46.637,-10.2188,-19.8126
12:38:46.648,-10.0313,-21.6251
12:38:46.656,-9.7813,-22.2501
12:38:46.666,-10.8125,-22.5626
12:38:46.678,-10.8125,-24.1876
12:38:46.686,-10.9063,-25.5626
12:38:46.697,-12.4688,-27.1251
12:38:46.708,-13.0938,-29.0001
12:38:46.716,-13.4063,-29.1876
12:38:46.727,-13.3126,-29.8751
12:38:46.737,-12.2813,-27.8126
12:38:46.764,-8.4688,-21.3751
12:38:46.768,-2.125,-11.0625
12:38:46.768,4.0625,1.75
12:38:46.777,10.4375,14.8751
12:38:46.786,16.3751,28.0626
12:38:46.796,20.3751,36.6876
12:38:46.806,23.3751,42.4377
12:38:46.818,24.5313,46.1252
12:38:46.829,24.1563,48.5627
12:38:46.837,24.8438,49.0002
12:38:46.846,25.1251,49.3127
12:38:46.857,25.3438,50.5627
12:38:46.866,25.2501,49.0627
12:38:46.886,24.9376,49.4377
12:38:46.891,25.4376,49.0002
12:38:46.919,24.6876,49.0002
12:38:46.922,24.3438,48.1252
12:38:46.922,24.2501,47.5002
12:38:46.929,23.6251,47.8127
12:38:46.954,22.5938,46.6877
12:38:46.956,22.5313,47.8127
12:38:46.959,23.0938,46.8752
12:38:46.984,22.8126,46.0627
12:38:46.988,21.8751,46.2502
12:38:46.989,20.9688,42.9377
12:38:47.028,19.6251,40.2502
12:38:47.029,17.7188,36.1876
12:38:47.034,15.7501,34.3751
12:38:47.055,13.9688,30.0626
12:38:47.055,12.5313,27.3751
12:38:47.056,11.9375,26.7501
12:38:47.062,10.375,24.2501
12:38:47.068,9.6563,24.0626
12:38:47.078,9.5313,22.5001
12:38:47.087,9.9688,22.8126
12:38:47.096,10.4375,22.6251
12:38:47.108,10.0313,20.3751
12:38:47.116,9.5625,20.3751
12:38:47.127,9.125,19.4376
12:38:47.137,8.0625,18.3751
12:38:47.149,6.6563,17.1251
12:38:47.156,6,14.6876
12:38:47.166,4.625,14.3751
12:38:47.177,4.5313,11.6875
12:38:47.186,4.4063,10.4375
12:38:47.204,4.2188,9.625
12:38:47.206,4.5,8.375
12:38:47.218,3.25,6.6875
12:38:47.226,2.1563,5.75
12:38:47.237,2.4063,3.6875
12:38:47.248,1.0313,2.1875
12:38:47.256,1.4063,0.3125
12:38:47.266,-0.4375,-1.1875
12:38:47.276,-1.25,-3.5625
12:38:47.288,-2.625,-5.1875
12:38:47.297,-2.9375,-7.3125
12:38:47.307,-3.75,-8.3125
12:38:47.317,-3.5938,-9.125
12:38:47.327,-3.7813,-10.6875
12:38:47.338,-3.3438,-10.6875
12:38:47.346,-2.75,-11.3125
12:38:47.356,-3.125,-11.4375
12:38:47.367,-2.1875,-11.625
12:38:47.377,-2.6875,-12
12:38:47.386,-2.5,-13.0625
12:38:47.398,-3.7813,-13.6251
12:38:47.408,-5.0625,-14.4376
12:38:47.417,-5.5625,-15.4376
12:38:47.426,-5.9688,-16.3751
12:38:47.437,-6.4375,-17.0626
12:38:47.446,-7.0625,-16.8126
12:38:47.457,-6.4688,-18.2501
12:38:47.467,-6.6875,-17.5626
12:38:47.476,-7.8125,-19.3751
12:38:47.488,-7.6563,-20.0626
12:38:47.497,-8.5938,-20.3751
12:38:47.506,-7.8125,-21.7501
12:38:47.517,-8.6875,-21.8126
12:38:47.527,-9.8438,-20.7501
12:38:47.536,-9.2188,-23.5001
12:38:47.546,-9.25,-23.7501
12:38:47.556,-10.5,-25.0626
12:38:47.588,-10.4688,-26.3126
12:38:47.592,-10.7188,-26.9376
12:38:47.594,-10.2813,-26.6251
12:38:47.597,-9.3125,-25.3126
12:38:47.637,-6.9063,-23.3751
12:38:47.640,-3.1875,-15.0626
12:38:47.641,0.9688,-4
12:38:47.647,6.25,6.125
12:38:47.647,11.2188,18.8126
12:38:47.676,14.9688,27.0626
12:38:47.678,18.0001,34.0001
12:38:47.681,19.4688,39.0626
12:38:47.687,21.4688,42.7502
12:38:47.712,22.0313,44.1252
12:38:47.715,23.1876,46.1877
12:38:47.717,23.5001,45.6877
12:38:47.745,24.5001,46.7502
12:38:47.746,24.1876,46.4377
12:38:47.748,23.3751,46.0627
12:38:47.757,23.2188,45.9377
12:38:47.767,22.4688,44.4377
12:38:47.776,21.7188,45.9377
12:38:47.786,22.0313,44.6877
12:38:47.796,21.7188,44.1877
12:38:47.809,21.2188,44.8752
12:38:47.817,20.5626,44.5002
12:38:47.826,20.5938,43.8127
12:38:47.838,19.5938,42.1877
12:38:47.848,19.3126,41.0002
12:38:47.856,18.0001,38.5001
12:38:47.867,17.2813,35.7501
12:38:47.877,15.6876,34.2501
12:38:47.893,15.0313,31.3126
12:38:47.909,14.0938,28.1876
12:38:47.910,12.8125,25.2501
12:38:47.917,10.9688,24.4376
12:38:47.926,10.875,22.3126
12:38:47.938,10.9688,21.7501
12:38:47.948,10.5,20.6876
12:38:47.956,10.0313,20.1251
12:38:47.966,9.8438,19.8751
12:38:47.977,9.4375,18.1876
12:38:47.986,8.75,17.2501
12:38:47.996,7.9688,16.4376
12:38:48.006,7.3438,15.8751
12:38:48.018,7.0625,14.3751
12:38:48.043,5.9375,13
12:38:48.045,5,12.5
12:38:48.051,5.5,10.5625
12:38:48.057,4.5,8.375
12:38:48.067,3.1875,6.4375
12:38:48.076,1.7188,4.4375
12:38:48.086,0.7188,2.1875
12:38:48.096,-0.0313,0.6875
12:38:48.107,-0.125,-0.125
12:38:48.117,-1.4063,-3.0625
12:38:48.128,-2.5625,-5.0625
12:38:48.136,-3.3438,-6
12:38:48.148,-3.0938,-7.5
12:38:48.156,-3.9375,-9.8125
12:38:48.167,-4.3438,-10.75
12:38:48.185,-4.3125,-10.8125
12:38:48.192,-3.8438,-12
12:38:48.206,-4.1875,-14.5001
12:38:48.208,-4.9375,-16.0001
12:38:48.216,-6.2813,-16.4376
12:38:48.226,-6.1563,-18.4376
12:38:48.236,-7.0313,-19.6876
12:38:48.247,-6.9375,-20.8751
12:38:48.257,-7,-20.5001
12:38:48.267,-7.0938,-22.3751
12:38:48.277,-7.5,-22.3751
12:38:48.286,-7.2188,-23.6251
12:38:48.297,-7.4375,-24.2501
12:38:48.306,-6.8125,-25.1876
12:38:48.322,-6.2813,-24.8751
12:38:48.328,-6.2813,-25.3751
12:38:48.358,-7.0313,-27.1251
12:38:48.360,-7.125,-28.0001
12:38:48.362,-7,-29.0001
12:38:48.369,-7.7188,-29.1876
12:38:48.400,-7.75,-30.5001
12:38:48.401,-8.5625,-29.9376
12:38:48.403,-9.3438,-31.6876
12:38:48.410,-10.4688,-32.4376
12:38:48.419,-11.0313,-32.5626
12:38:48.452,-11.0625,-34.2501
12:38:48.454,-11.5938,-33.0001
12:38:48.456,-11.0625,-34.3751
12:38:48.460,-10.9688,-33.7501
12:38:48.492,-11.4375,-35.6876
12:38:48.495,-12.6563,-35.0626
12:38:48.498,-13.1876,-36.6876
12:38:48.504,-13.3438,-37.3126
12:38:48.511,-12.8125,-38.3126
12:38:48.517,-13.1563,-38.6876
12:38:48.528,-12.75,-36.3126
12:38:48.536,-9.7813,-31.2501
12:38:48.546,-5.0625,-22.8126
12:38:48.558,1.1563,-10
12:38:48.567,8.7813,5.5625
12:38:48.576,15.5938,18.1251
12:38:48.587,20.5626,29.8751
12:38:48.597,24.3126,37.2501
12:38:48.606,26.8751,42.1252
12:38:48.617,28.0314,45.1877
12:38:48.627,27.9689,47.6877
12:38:48.636,27.5314,46.3752
12:38:48.647,27.1876,46.5627
12:38:48.658,27.9064,45.3127
12:38:48.666,26.7189,44.7502
12:38:48.677,25.9688,43.5002
12:38:48.686,25.5001,43.7502
12:38:48.698,24.7188,41.5002
12:38:48.707,23.3438,41.2502
12:38:48.717,22.6563,40.6252
12:38:48.728,22.1563,39.6877
12:38:48.736,21.5938,40.6252
12:38:48.746,22.4063,39.8127
12:38:48.756,22.5626,39.0001
12:38:48.767,21.3751,38.1876
12:38:48.776,20.6251,36.4376
12:38:48.786,19.1563,33.7501
12:38:48.797,18.2188,31.1876
12:38:48.807,16.2188,27.1876
12:38:48.816,14.6251,25.0626
12:38:48.826,14.4376,23.1876
12:38:48.836,12.8438,22.0626
12:38:48.846,13.1876,20.4376
12:38:48.857,13.1563,18.9376
12:38:48.866,12.375,19.2501
12:38:48.876,12.3438,16.9376
12:38:48.888,11.9375,18.0001
12:38:48.902,11.3125,16.6251
12:38:48.912,10.625,14.7501
12:38:48.921,9.6563,14.7501
12:38:48.931,9.375,13.1251
12:38:48.941,8.5,13.0625
12:38:48.952,8.1563,10.75
12:38:48.961,7.9688,10.5625
12:38:48.971,7.5625,9
12:38:48.981,6.7813,7.4375
12:38:48.992,5.8125,5.4375
12:38:49.001,4.625,4.3125
12:38:49.013,3.125,0.875
12:38:49.021,2.0938,-0.1875
12:38:49.031,1.25,-2.9375
12:38:49.041,-0.25,-4.125
12:38:49.053,-2,-7.4375
12:38:49.062,-2.3438,-9.8125
12:38:49.097,-2.25,-10.6875
12:38:49.101,-3.3125,-12.4375
12:38:49.101,-4.0313,-14.4376
12:38:49.104,-5.6875,-16.3126
12:38:49.137,-6.9375,-19.2501
12:38:49.139,-8.7813,-20.6251
12:38:49.139,-9.7813,-22.1876
12:38:49.166,-11.8438,-23.8126
12:38:49.167,-12.4688,-25.4376
12:38:49.171,-12.1875,-26.9376
12:38:49.176,-12.5938,-27.1876
12:38:49.190,-12.125,-27.8751
12:38:49.193,-12.4688,-28.3751
12:38:49.231,-13.8438,-29.4376
12:38:49.236,-14.0313,-31.5626
12:38:49.236,-14.3438,-32.2501
12:38:49.238,-15.3438,-32.5626
12:38:49.244,-15.2813,-33.9376
12:38:49.252,-16.1251,-34.8126
12:38:49.263,-15.5626,-36.1251
12:38:49.271,-16.7188,-36.2501
12:38:49.281,-16.5313,-37.6251
12:38:49.291,-17.5001,-38.0001
12:38:49.323,-17.9688,-38.9376
12:38:49.324,-18.6563,-39.2501
12:38:49.327,-18.0938,-39.8127
12:38:49.332,-17.9063,-40.1252
12:38:49.341,-17.5001,-39.8752
12:38:49.351,-18.2188,-40.7502
12:38:49.363,-18.8751,-40.5002
12:38:49.372,-17.4376,-41.1252
12:38:49.383,-18.8438,-42.0002
12:38:49.392,-18.4063,-41.9377
12:38:49.401,-18.7188,-42.7502
12:38:49.412,-19.6251,-43.8752
12:38:49.423,-20.7813,-44.7502
12:38:49.431,-21.4376,-44.4377
12:38:49.443,-20.7188,-43.1252
12:38:49.451,-18.8751,-37.7501
12:38:49.463,-12.6563,-28.2501
12:38:49.471,-7.2813,-14.3751
12:38:49.488,-0.4063,-0.125
12:38:49.502,5.625,12.5625
12:38:49.505,11.0938,23.5001
12:38:49.512,13.8751,31.2501
12:38:49.523,16.8126,36.0626
12:38:49.531,17.3438,38.9376
12:38:49.541,17.8126,40.0002
12:38:49.551,18.9688,39.5002
12:38:49.561,19.4688,40.2502
12:38:49.571,19.9063,39.5627
12:38:49.581,18.6876,39.0002
12:38:49.591,20.1563,38.1251
12:38:49.603,20.1876,37.9376
12:38:49.612,20.3438,37.0626
12:38:49.621,20.6876,36.8751
12:38:49.638,20.0626,36.1876
12:38:49.643,20.1876,36.0001
12:38:49.652,20.8438,35.5001
12:38:49.661,21.9376,35.2501
12:38:49.671,21.5938,34.8751
12:38:49.682,20.8751,35.0626
12:38:49.697,20.7188,32.1251
12:38:49.706,19.5001,30.3126
12:38:49.716,18.5313,26.9376
12:38:49.727,17.7501,25.8751
12:38:49.745,16.2813,22.9376
12:38:49.747,17.1563,22.0626
12:38:49.775,16.4063,20.3751
12:38:49.778,16.6563,19.6876
12:38:49.780,17.0938,19.7501
12:38:49.787,16.0626,18.3751
12:38:49.821,15.2501,17.3751
12:38:49.824,14.3751,16.3751
12:38:49.826,13.9376,15.8126
12:38:49.853,14.1251,14.6876
12:38:49.854,14.3126,15.2501
12:38:49.857,14.7813,13.7501
12:38:49.864,14.8751,13.4376
12:38:49.878,14.3438,12.3125
12:38:49.880,13.0313,10.25
12:38:49.913,12.125,8.5625
12:38:49.913,11.1875,7.75
12:38:49.916,10.8438,5.25
12:38:49.922,9.1875,3.125
12:38:49.928,8.3125,1.75
12:38:49.936,6.4688,0.625
12:38:49.946,6.2188,-1.4375
12:38:49.958,5.0938,-4.0625
12:38:49.967,4,-4.9375
12:38:49.976,2.7188,-6
12:38:49.987,1.0625,-8.3125
12:38:49.997,1.0625,-10.5625
12:38:50.010,-1.0313,-12.125
12:38:50.020,-2.5313,-13.8126
12:38:50.026,-3.6563,-15.3126
12:38:50.037,-4.0625,-16.1876
12:38:50.048,-4.875,-16.1251
12:38:50.058,-4.625,-18.5001
12:38:50.068,-5.625,-19.3126
12:38:50.077,-7.375,-20.9376
12:38:50.086,-8.8438,-20.3751
12:38:50.097,-8.625,-22.7501
12:38:50.106,-8.4375,-23.1251
12:38:50.116,-8.2813,-23.6251
12:38:50.128,-7.8125,-24.1876
12:38:50.137,-8.5625,-25.0626
12:38:50.148,-9.7188,-25.3751
12:38:50.157,-10,-27.5626
12:38:50.166,-11.4688,-29.2501
12:38:50.179,-12.2188,-29.7501
12:38:50.187,-13.1876,-30.4376
12:38:50.196,-13.4376,-31.4376
12:38:50.208,-14.2188,-31.8751
12:38:50.216,-14.0001,-32.1876
12:38:50.226,-13.0938,-30.7501
12:38:50.237,-12.3125,-31.4376
12:38:50.247,-12.2188,-30.6251
12:38:50.256,-12.3125,-32.5626
12:38:50.267,-13.4688,-31.8126
12:38:50.278,-13.1563,-33.3751
12:38:50.286,-14.4688,-32.9376
12:38:50.296,-13.8751,-34.6876
12:38:50.307,-13.8438,-34.7501
12:38:50.317,-14.2501,-35.3126
12:38:50.328,-14.2501,-35.6251
12:38:50.336,-14.1876,-35.8751
12:38:50.346,-13.2501,-33.6876
12:38:50.356,-10,-30.3126
12:38:50.366,-5.0938,-19.5626
12:38:50.376,2,-7.375
12:38:50.386,7.7813,7.625
12:38:50.401,13.9376,18.2501
12:38:50.406,18.0626,29.5001
12:38:50.416,22.2813,35.8751
12:38:50.427,24.2501,42.0627
12:38:50.436,24.2501,43.0627
12:38:50.447,22.5626,43.5627
12:38:50.456,22.0001,41.5627
12:38:50.468,21.2501,41.6252
12:38:50.485,21.6876,40.0627
12:38:50.487,21.2188,41.3752
12:38:50.503,21.5001,38.7501
12:38:50.519,21.3126,38.8751
12:38:50.520,22.0001,38.0001
12:38:50.536,18.7813,37.5001
12:38:50.538,14.3438,33.5001
12:38:50.570,59.3127,41.4377
12:38:50.571,54.6565,60.5627
12:38:50.574,68.594,68.6253
12:38:50.601,80.0941,75.3128
12:38:50.603,91.2816,82.5003
12:38:50.608,103.7191,86.3753
12:38:50.608,113.3442,88.5003
12:38:50.618,121.313,91.1879
12:38:50.655,125.9692,92.0629
12:38:50.656,129.313,90.1253
12:38:50.660,130.9068,88.3128
12:38:50.664,132.063,87.0003
12:38:50.689,132.8755,86.8753
12:38:50.691,133.563,85.1253
12:38:50.693,132.6568,82.6878
12:38:50.705,130.813,80.1878
12:38:50.710,128.313,78.6878
12:38:50.718,126.3442,77.5628
12:38:50.726,124.2817,74.8753
12:38:50.736,121.1255,71.6878
12:38:50.746,118.5942,70.0628
12:38:50.757,117.1567,68.2503
12:38:50.767,116.5942,65.9378
12:38:50.782,116.1879,64.5002
12:38:50.788,114.8442,62.9377
12:38:50.801,115.4379,60.6252
12:38:50.808,113.7817,58.4377
12:38:50.823,110.4692,56.3127
12:38:50.830,107.7504,52.5002
12:38:50.837,104.7816,48.8752
12:38:50.846,102.7504,46.1252
12:38:50.856,102.2191,43.5002
12:38:50.866,101.2191,41.6252
12:38:50.877,100.5316,39.7502
12:38:50.886,99.7191,37.8126
12:38:50.897,98.0629,35.0001
12:38:50.906,97.6566,32.7501
12:38:50.916,95.7504,30.0626
12:38:50.926,94.0316,27.8126
12:38:50.936,91.3129,24.8126
12:38:50.946,88.0316,22.1876
12:38:50.956,86.1878,19.6876
12:38:50.967,83.5316,17.1876
12:38:50.977,81.7191,15.0001
12:38:50.988,80.4066,12.625
12:38:50.996,78.9691,11.9375
12:38:51.007,78.3128,8.8125
12:38:51.016,77.1565,7.9375
12:38:51.026,75.969,6.25
12:38:51.037,74.6565,4.0625
12:38:51.046,72.2503,1.625
12:38:51.056,70.3128,-0.625
12:38:51.066,67.7815,-2.8125
12:38:51.076,65.7503,-6
12:38:51.087,63.969,-7.375
12:38:51.096,62.3127,-10
12:38:51.106,60.5315,-12.3125
12:38:51.116,58.7502,-14.0001
12:38:51.126,57.219,-15.9376
12:38:51.136,55.1877,-17.4376
12:38:51.152,54.9065,-18.9376
12:38:51.158,53.1565,-21.5001
12:38:51.166,51.7502,-22.6876
12:38:51.176,51.0314,-24.8126
12:38:51.186,50.1252,-25.4376
12:38:51.196,49.1252,-27.5626
12:38:51.207,47.7189,-29.3751
12:38:51.216,45.5939,-31.1251
12:38:51.227,42.5627,-32.6876
12:38:51.236,39.2501,-35.2501
12:38:51.265,37.0626,-36.6876
12:38:51.268,33.8751,-40.6877
12:38:51.270,31.0001,-41.0627
12:38:51.277,29.5001,-43.8752
12:38:51.307,27.6564,-43.6877
12:38:51.309,27.7814,-42.5002
12:38:51.311,30.0001,-35.3126
12:38:51.353,34.2189,-23.2501
12:38:51.355,40.6564,-5.125
12:38:51.357,47.0627,12.1875
12:38:51.385,52.5627,29.2501
12:38:51.385,56.4377,40.4377
12:38:51.386,59.0002,50.1877
12:38:51.388,60.219,54.4377
12:38:51.394,60.5627,57.6252
12:38:51.421,59.719,57.1877
12:38:51.423,58.5315,56.6252
12:38:51.425,57.219,55.4377
12:38:51.432,55.7502,54.0002
12:38:51.443,54.7502,52.2502
12:38:51.452,52.6564,50.1252
12:38:51.462,50.9689,47.1877
12:38:51.471,48.4064,45.6252
12:38:51.481,46.7502,43.7502
12:38:51.491,45.1877,42.1877
12:38:51.502,43.5314,40.6877
12:38:51.511,43.4689,39.8127
12:38:51.525,42.2814,39.1251
12:38:51.535,41.5314,37.6876
12:38:51.543,40.2814,34.6876
12:38:51.551,38.7189,32.6876
12:38:51.561,37.0939,28.5626
12:38:51.572,35.0314,26.4376
12:38:51.583,34.0626,24.0626
12:38:51.591,33.6876,21.7501
12:38:51.602,32.4064,19.8126
12:38:51.611,32.1564,17.5001
12:38:51.621,31.1876,16.7501
12:38:51.631,30.3751,16.1251
12:38:51.641,29.9376,14.5001
12:38:51.652,28.9689,13.8126
12:38:51.661,28.5001,12.3125
12:38:51.672,28.0626,12.75
12:38:51.682,27.0939,11.6875
12:38:51.691,25.9063,10.375
12:38:51.702,24.9688,9.25
12:38:51.711,22.3126,6.875
12:38:51.721,20.5626,5.125
12:38:51.731,18.2501,3.125
12:38:51.741,16.7188,0.75
12:38:51.753,15.1876,-1.5625
12:38:51.761,13.6563,-4.3125
12:38:51.771,12.125,-6.25
12:38:51.781,10.0313,-8.625
12:38:51.803,9.0625,-10.8125
12:38:51.805,7.5625,-12.4375
12:38:51.815,5.9688,-14.5626
12:38:51.821,5.3438,-16.1876
12:38:51.836,4.7188,-18.1251
12:38:51.843,3.6563,-19.9376
12:38:51.851,2.75,-22.2501
12:38:51.884,2.0625,-23.8751
12:38:51.885,1.1875,-25.1876
12:38:51.889,-0.5,-27.7501
12:38:51.893,-1.4688,-29.3126
12:38:51.905,-2.6875,-31.2501
12:38:51.911,-3.5313,-32.6251
12:38:51.922,-4.4375,-34.3751
12:38:51.933,-5.0625,-34.3751
12:38:51.942,-5.9063,-36.7501
12:38:51.956,-7.0625,-37.3751
12:38:51.987,-7.8438,-39.8752
12:38:51.992,-8.2813,-40.8127
12:38:51.993,-9.1563,-41.6877
12:38:51.997,-9.5313,-42.6252
12:38:52.003,-10.6875,-44.6877
12:38:52.035,-10.9688,-44.6877
12:38:52.036,-12.5625,-46.7502
12:38:52.039,-12.8125,-46.8752
12:38:52.041,-13.4688,-47.8752
12:38:52.075,-12.75,-47.9377
12:38:52.075,-13.3751,-49.5627
12:38:52.077,-13.4376,-50.2502
12:38:52.083,-14.2501,-49.8752
12:38:52.130,-14.2501,-51.5002
12:38:52.143,-14.4688,-52.8127
12:38:52.159,-15.2813,-53.1877
12:38:52.161,-15.9063,-55.1877
12:38:52.176,-16.9063,-55.5002
12:38:52.176,-18.1251,-57.1877
12:38:52.176,-19.1563,-57.6877
12:38:52.178,-19.3438,-59.1252
12:38:52.179,-18.5313,-56.6252
12:38:52.190,-15.6563,-51.5627
12:38:52.198,-10.3438,-39.1877
12:38:52.206,-3.375,-25.1876
12:38:52.216,4.25,-7.75
12:38:52.231,9.6875,8.3125
12:38:52.237,15.2188,21.3126
12:38:52.248,18.2188,31.5626
12:38:52.258,20.7188,36.0626
12:38:52.267,23.2813,39.8752
12:38:52.284,22.6876,41.1877
12:38:52.286,22.7813,40.8752
12:38:52.299,21.2501,39.1252
12:38:52.306,20.5001,37.8126
12:38:52.317,19.1876,35.2501
12:38:52.328,17.6876,33.5001
12:38:52.336,17.0001,30.3751
12:38:52.348,16.2813,30.3126
12:38:52.356,15.7188,28.2501
12:38:52.366,15.3438,27.7501
12:38:52.377,15.5001,26.6876
12:38:52.386,14.7501,25.7501
12:38:52.397,14.5313,25.8751
12:38:52.406,14.5313,24.1876
12:38:52.417,13.4063,22.5626
12:38:52.427,13.6563,19.6876
12:38:52.437,12.1875,17.1251
12:38:52.448,12.3125,15.2501
12:38:52.456,10.75,12.375
12:38:52.466,10.7188,9.9375
12:38:52.477,10.125,8.8125
12:38:52.487,9.5625,7.3125
12:38:52.496,9.25,5
12:38:52.507,7.9375,4.1875
12:38:52.517,7.0938,3.4375
12:38:52.527,6.4688,1.5625
12:38:52.536,5.8125,1.1875
12:38:52.546,5.75,0.0625
12:38:52.556,5.6875,0.25
12:38:52.566,5.4063,-0.3125
12:38:52.577,4.625,-1
12:38:52.586,5.5313,-2.25
12:38:52.596,4.6875,-3.375
12:38:52.607,3.2188,-4.625
12:38:52.617,1.3125,-6.5
12:38:52.627,1.3438,-7.875
12:38:52.636,-0.4688,-11
12:38:52.646,-1.4063,-11.875
12:38:52.657,-2.8125,-14.8751
12:38:52.666,-3.9375,-16.8751
12:38:52.676,-4.625,-18.0626
12:38:52.687,-4.9063,-19.8751
12:38:52.697,-5.6875,-21.4376
12:38:52.706,-7.0938,-24.4376
12:38:52.717,-7.8438,-25.8126
12:38:52.750,-8.125,-26.5626
12:38:52.753,-9.9063,-29.0001
12:38:52.755,-10.4063,-29.6876
12:38:52.782,-11.2188,-30.6876
12:38:52.784,-11.2188,-33.2501
12:38:52.785,-11.4375,-33.7501
12:38:52.791,-11.3125,-34.3126
12:38:52.800,-10.6875,-35.9376
12:38:52.828,-11.0313,-36.3126
12:38:52.829,-11.9375,-37.1876
12:38:52.831,-10.75,-38.3126
12:38:52.838,-10.8438,-38.3751
12:38:52.864,-12.125,-38.8126
12:38:52.867,-12.375,-40.7502
12:38:52.870,-12.8125,-41.6252
12:38:52.876,-14.1251,-42.6252
12:38:52.913,-13.4063,-43.1252
12:38:52.916,-13.7813,-44.0002
12:38:52.916,-13.3126,-44.2502
12:38:52.923,-14.9376,-44.5627
12:38:52.934,-15.6251,-47.3752
12:38:52.942,-15.9063,-47.1252
12:38:52.953,-17.0626,-48.0627
12:38:52.962,-17.2813,-49.1877
12:38:52.973,-17.7501,-49.8127
12:38:52.981,-18.2813,-49.8127
12:38:52.992,-18.1251,-52.0002
12:38:53.001,-17.0626,-51.9377
12:38:53.012,-17.8438,-53.0627
12:38:53.023,-17.4376,-53.7502
12:38:53.033,-17.4376,-53.6252
12:38:53.042,-17.3751,-54.8127
12:38:53.052,-16.0938,-53.7502
12:38:53.061,-15.4376,-51.3752
12:38:53.072,-11.4688,-44.9377
12:38:53.081,-3.8438,-25.8126
12:38:53.092,4.2813,-10.875
12:38:53.102,10.8438,4.8125
12:38:53.120,17.5313,18.5001
12:38:53.123,22.5313,28.3751
12:38:53.138,25.5626,36.8126
12:38:53.163,27.5626,40.2502
12:38:53.167,26.9064,42.7502
12:38:53.180,25.9063,42.3752
12:38:53.187,23.9063,41.9377
12:38:53.187,22.1876,39.7502
12:38:53.194,21.1251,39.1876
12:38:53.201,19.5938,36.7501
12:38:53.213,19.0938,35.9376
12:38:53.221,18.6251,34.0626
12:38:53.231,19.7188,34.1876
12:38:53.241,20.2501,32.9376
12:38:53.252,20.8126,33.1876
12:38:53.262,21.4688,31.5626
12:38:53.272,21.0938,30.5001
12:38:53.281,21.8126,29.6251
12:38:53.291,21.8751,28.7501
12:38:53.302,21.8438,26.2501
12:38:53.313,21.5313,24.6876
12:38:53.322,21.1563,22.3751
12:38:53.332,20.4376,21.0001
12:38:53.341,19.4688,18.8126
12:38:53.351,18.7188,16.6251
12:38:53.361,19.6251,15.1251
12:38:53.371,18.7501,14.1251
12:38:53.381,18.5626,12.5
12:38:53.391,17.5001,11.875
12:38:53.407,16.5001,9.5
12:38:53.411,15.0001,9.4375
12:38:53.421,14.7188,7.875
12:38:53.486,13.5001,7.9375
12:38:53.488,12.7813,7
12:38:53.531,11.8438,7
12:38:53.536,11,6
12:38:53.536,9.9063,4.8125
12:38:53.536,9.1875,4.0625
12:38:53.550,8.4688,1.5625
12:38:53.554,7.5313,0.5625
12:38:53.579,6.375,-1.5625
12:38:53.581,5.3438,-2.6875
12:38:53.584,5.0625,-4.8125
12:38:53.591,4.4375,-5.875
12:38:53.607,4.0938,-7.75
12:38:53.612,4.75,-7.6875
12:38:53.621,5.75,-9.875
12:38:53.632,8.875,-9.5625
12:38:53.641,10.875,-11.4375
12:38:53.653,11.375,-13.3751
12:38:53.661,11.2188,-14.3751
12:38:53.673,9.5313,-16.5626
12:38:53.681,8.4688,-18.3126
12:38:53.692,5.2188,-20.8126
12:38:53.701,-12.25,-38.1251
12:38:53.712,-14.6251,-40.1252
12:38:53.722,-18.4688,-41.8752
12:38:53.731,-21.3751,-43.6252
12:38:53.743,-23.4376,-46.0002
12:38:53.753,-24.9688,-47.3127
12:38:53.761,-26.9689,-47.1877
12:38:53.771,-27.2501,-49.3752
12:38:53.783,-27.0626,-49.2502
12:38:53.791,-28.8126,-50.1252
12:38:53.802,-28.6876,-50.8752
12:38:53.812,-30.4689,-52.1877
12:38:53.823,-31.7189,-52.8127
12:38:53.831,-33.8126,-53.6877
12:38:53.842,-34.7501,-54.5627
12:38:53.852,-36.6251,-55.7502
12:38:53.863,-37.1251,-56.8127
12:38:53.871,-38.3126,-58.4377
12:38:53.883,-38.8439,-59.1252
12:38:53.892,-37.8126,-58.6877
12:38:53.902,-38.1876,-57.0627
12:38:53.913,-35.0939,-52.2502
12:38:53.922,-29.5939,-43.0627
12:38:53.931,-22.7813,-28.7501
12:38:53.943,-15.9063,-14.1251
12:38:53.952,-8.5938,0.6875
12:38:53.962,-2.5625,14.3126
12:38:53.971,1.2188,23.3751
12:38:53.982,4.5625,31.3126
12:38:53.992,5.875,34.1876
12:38:54.002,6.5625,37.0626
12:38:54.011,7.4375,37.3126
12:38:54.022,7.9688,37.3126
12:38:54.031,8,36.5626
12:38:54.041,7.3438,35.1251
12:38:54.053,6.5625,33.3751
12:38:54.062,5.7188,31.9376
12:38:54.072,4.5625,29.1251
12:38:54.081,3.7813,29.1251
12:38:54.093,3.125,26.8751
12:38:54.101,3.1563,27.0001
12:38:54.112,3.3125,26.0001
12:38:54.121,3.25,25.5626
12:38:54.133,4.3125,25.3751
12:38:54.150,3.9688,23.8751
12:38:54.152,3.9063,22.8126
12:38:54.190,3.3438,20.0001
12:38:54.194,2.8125,18.1876
12:38:54.195,1.2188,15.3751
12:38:54.196,1.0313,12.9375
12:38:54.227,-0.2188,11.0625
12:38:54.228,-1.0313,9.6875
12:38:54.230,-0.875,8.4375
12:38:54.238,-1.5938,7.8125
12:38:54.245,-0.2813,7.1875
12:38:54.271,-0.2188,6.8125
12:38:54.273,1.4063,6.3125
12:38:54.279,1.3438,6.3125
12:38:54.285,2.4688,6.25
12:38:54.318,2.75,6.125
12:38:54.319,3.6875,5.875
12:38:54.323,2.4375,4.8125
12:38:54.328,1.8125,3.4375
12:38:54.336,1.0938,1.625
12:38:54.345,0.1563,0.5625
12:38:54.353,0.0313,-0.75
12:38:54.363,-0.6563,-3.1875
12:38:54.371,-1.125,-4.3125
12:38:54.383,-1.7188,-5.4375
12:38:54.393,-2.2188,-7.6875
12:38:54.401,-2.7813,-8.375
12:38:54.412,-2.0625,-10.375
12:38:54.442,-2.125,-11.6875
12:38:54.444,-2.25,-12.875
12:38:54.446,-2.8125,-15.4376
12:38:54.462,-4,-16.2501
12:38:54.465,-4.3438,-18.8751
12:38:54.475,-5.4063,-20.0001
12:38:54.482,-5.8125,-21.5001
12:38:54.497,-6.7813,-22.3126
12:38:54.512,-7.5625,-24.0626
12:38:54.515,-8.0625,-24.6251
12:38:54.522,-8.6563,-27.0626
12:38:54.531,-8.5,-27.3751
12:38:54.542,-9.7188,-26.9376
12:38:54.552,-9.6875,-29.3126
12:38:54.561,-9.6875,-30.0626
12:38:54.572,-11.25,-31.1251
12:38:54.581,-11.5625,-32.5001
12:38:54.591,-12.5938,-32.6876
12:38:54.602,-13.4376,-34.3126
12:38:54.611,-13.7501,-34.3126
12:38:54.621,-14.4063,-33.8751
12:38:54.633,-14.3438,-36.1251
12:38:54.641,-14.5938,-35.7501
12:38:54.652,-14.6876,-37.0626
12:38:54.663,-13.8126,-38.0001
12:38:54.671,-14.0938,-38.0626
12:38:54.681,-14.5001,-39.8127
12:38:54.691,-14.0626,-40.5627
12:38:54.702,-15.2501,-40.8127
12:38:54.713,-15.5313,-42.3127
12:38:54.721,-15.5313,-43.0627
12:38:54.731,-14.3751,-39.2501
12:38:54.742,-11.0313,-33.2501
12:38:54.751,-5.3438,-21.4376
12:38:54.762,0.5625,-8
12:38:54.771,7.4375,6.875
12:38:54.781,12.3125,19.8751
12:38:54.798,17.1876,29.5001
12:38:54.807,19.5313,36.3126
12:38:54.811,20.9688,40.1252
12:38:54.829,20.3438,41.8752
12:38:54.835,19.8751,42.5002
12:38:54.845,19.2188,41.1252
12:38:54.851,18.4376,39.5627
12:38:54.861,17.7501,38.8751
12:38:54.885,17.6563,37.2501
12:38:54.892,17.3126,36.3751
12:38:54.893,17.3438,34.9376
12:38:54.924,16.9063,34.6876
12:38:54.926,16.4376,33.1876
12:38:54.927,15.3126,32.7501
12:38:54.953,14.5313,31.2501
12:38:54.953,13.7188,30.8751
12:38:54.955,12.5313,30.0626
12:38:54.993,11.9063,28.1876
12:38:54.994,11.4375,26.2501
12:38:54.996,10.0625,24.1251
12:38:55.002,8.6875,22.1876
12:38:55.004,7.5938,18.7501
12:38:55.034,6.7813,17.0626
12:38:55.036,6.0625,14.5001
12:38:55.039,4.625,12.9375
12:38:55.043,4.2188,11.6875
12:38:55.053,2.3438,10.0625
12:38:55.063,1.5938,9.0625
12:38:55.073,0.3125,8
12:38:55.087,0.375,7.75
12:38:55.092,1.3438,6.5
12:38:55.103,0.9688,6.5
12:38:55.111,1.4375,5.5
12:38:55.121,1.9063,4.3125
12:38:55.131,2.9063,5.25
12:38:55.141,2.125,3.25
12:38:55.151,1.9375,1.875
12:38:55.162,0.8438,0.3125
12:38:55.172,0,-0.875
12:38:55.181,-0.7813,-2.6875
12:38:55.191,-1.5625,-4.25
12:38:55.203,-2.9375,-6.0625
12:38:55.212,-3.0938,-7.875
12:38:55.223,-4.9688,-10.3125
12:38:55.233,-6.3438,-11.8125
12:38:55.242,-7.0625,-14.4376
12:38:55.251,-7.0313,-15.8126
12:38:55.263,-7.1875,-18.1251
12:38:55.272,-7.2188,-19.3126
12:38:55.283,-7.3438,-21.3126
12:38:55.293,-7.4375,-22.0001
12:38:55.301,-8.4688,-24.6251
12:38:55.311,-8.8438,-24.9376
12:38:55.322,-9.8125,-27.1251
12:38:55.331,-10.125,-27.2501
12:38:55.343,-11.2188,-29.9376
12:38:55.352,-11.5,-30.4376
12:38:55.361,-12.625,-30.4376
12:38:55.372,-12.2813,-33.2501
12:38:55.382,-11.2188,-33.1251
12:38:55.391,-11.4375,-33.7501
12:38:55.402,-11.0625,-34.8751
12:38:55.411,-11.2188,-35.4376
12:38:55.422,-11.5938,-36.4376
12:38:55.432,-11.5,-37.1251
12:38:55.442,-13.3126,-37.2501
12:38:55.452,-13.5938,-39.0001
12:38:55.463,-13.5001,-39.5002
12:38:55.472,-13.4063,-39.1876
12:38:55.481,-13.7188,-40.6252
12:38:55.492,-13.6563,-41.0002
12:38:55.502,-14.2188,-40.6252
12:38:55.513,-13.8126,-42.5002
12:38:55.522,-13.6251,-42.7502
12:38:55.533,-14.5001,-43.8127
12:38:55.541,-15.1251,-45.1877
12:38:55.553,-15.7501,-46.6252
12:38:55.563,-17.0938,-47.7502
12:38:55.573,-17.4376,-48.5627
12:38:55.582,-17.8751,-48.5627
12:38:55.591,-16.8438,-47.2502
12:38:55.615,-14.1251,-41.3752
12:38:55.618,-9.2188,-31.5001
12:38:55.625,-2.5,-16.2501
12:38:55.656,4.5625,-0.8125
12:38:55.658,9.8125,14.0626
12:38:55.664,14.8126,26.1251
12:38:55.666,17.5313,34.8126
12:38:55.693,19.6563,41.1252
12:38:55.695,21.1251,43.9377
12:38:55.697,20.7501,45.5627
12:38:55.724,21.4063,44.7502
12:38:55.725,20.7501,45.0627
12:38:55.728,20.7188,43.3127
12:38:55.733,19.9063,42.5627
12:38:55.761,19.1563,40.2502
12:38:55.764,18.0938,38.0626
12:38:55.765,17.5626,37.3751
12:38:55.780,17.7501,36.3751
12:38:55.786,17.1563,35.2501
12:38:55.797,16.8126,34.2501
12:38:55.812,16.0626,34.1251
12:38:55.829,15.0626,34.0001
12:38:55.840,15.8751,32.1251
12:38:55.842,15.5938,30.5001
12:38:55.845,15.6251,29.0001
12:38:55.852,14.1563,27.3751
12:38:55.862,14.6563,24.3751
12:38:55.873,13.3751,22.3751
12:38:55.882,14.0001,20.0626
12:38:55.892,12.5,18.5626
12:38:55.904,11.9688,16.1876
12:38:55.911,10.25,15.8751
12:38:55.922,9.9688,14.4376
12:38:55.932,10.0625,13.1876
12:38:55.941,8.9375,12.8125
12:38:55.953,8.9688,12.1875
12:38:55.962,8.9688,11
12:38:55.973,9.6563,11.0625
12:38:55.983,10.5625,10.5
12:38:55.993,10.9063,10.5625
12:38:56.003,10.375,8.8125
12:38:56.012,10.9063,8.0625
12:38:56.023,9.6563,7.3125
12:38:56.032,9.4063,4.9375
12:38:56.045,7.2813,3.625
12:38:56.053,5.7813,1.5
12:38:56.063,4.875,-1
12:38:56.072,4.9063,-2.1875
12:38:56.083,5.0625,-4.4375
12:38:56.091,4.0313,-5.625
12:38:56.103,4.8438,-7.125
12:38:56.119,3.7813,-8.1875
12:38:56.121,3.4688,-9.8125
12:38:56.139,3.5313,-12.125
12:38:56.153,2.5938,-13.0625
12:38:56.153,2,-14.8751
12:38:56.169,1.375,-15.5626
12:38:56.172,1.0625,-16.8751
12:38:56.181,0.5625,-18.9376
12:38:56.193,0.125,-19.6251
12:38:56.203,-1.0938,-21.3126
12:38:56.212,-2.0313,-21.6251
12:38:56.222,-2.9375,-23.8126
12:38:56.233,-3.4688,-24.4376
12:38:56.242,-3.9375,-25.6876
12:38:56.254,-4.4375,-26.2501
12:38:56.263,-4.3438,-27.3751
12:38:56.273,-4.125,-28.0001
12:38:56.282,-3.8125,-28.4376
12:38:56.293,-3.3125,-29.2501
12:38:56.302,-3.9375,-28.8126
12:38:56.313,-3.5,-30.7501
12:38:56.321,-3.9375,-30.5001
12:38:56.332,-3.4375,-31.9376
12:38:56.344,-3.5625,-32.2501
12:38:56.353,-3.9375,-33.3126
12:38:56.363,-5,-32.8751
12:38:56.374,-4.25,-35.3751
12:38:56.412,-4.3125,-35.7501
12:38:56.415,-4.0625,-36.9376
12:38:56.417,-4.75,-38.0001
12:38:56.419,-5.0938,-39.6252
12:38:56.424,-5.6563,-40.5002
12:38:56.451,-5.5625,-41.0002
12:38:56.453,-5.25,-40.8752
12:38:56.456,-3.5938,-38.2501
12:38:56.461,0.2188,-31.6876
12:38:56.496,5.3125,-18.8751
12:38:56.497,12.0625,-4.8125
12:38:56.501,17.3751,9.625
12:38:56.503,22.1876,23.3751
12:38:56.540,25.5626,33.1251
12:38:56.542,28.1564,41.3752
12:38:56.544,29.9376,44.9377
12:38:56.546,30.4064,48.0627
12:38:56.554,30.5626,47.8752
12:38:56.561,30.2814,48.1252
12:38:56.571,29.9689,46.8127
12:38:56.588,28.4376,45.3752
12:38:56.592,26.6876,43.6877
12:38:56.602,25.2813,42.1877
12:38:56.613,23.8438,40.0627
12:38:56.621,23.1876,39.1251
12:38:56.632,22.3751,38.2501
12:38:56.642,21.5938,37.5001
12:38:56.653,21.9688,37.0626
12:38:56.661,20.5313,35.9376
12:38:56.672,19.9376,36.1251
12:38:56.682,19.5938,34.4376
12:38:56.693,18.6563,32.5626
12:38:56.703,17.5938,30.6251
12:38:56.712,15.8751,28.1876
12:38:56.722,15.4688,25.4376
12:38:56.732,14.2501,23.2501
12:38:56.744,13.9063,20.5001
12:38:56.752,13.0938,19.3751
12:38:56.763,13.3751,18.1251
12:38:56.772,12.375,17.3751
12:38:56.783,13.1876,16.5626
12:38:56.793,12.75,16.1251
12:38:56.802,13.3126,15.3126
12:38:56.812,12.375,15.1876
12:38:56.821,12.6875,14.0626
12:38:56.833,11.8125,13.4376
12:38:56.842,10.75,12.875
12:38:56.852,10.5,11
12:38:56.862,9.6563,10.625
12:38:56.873,9.4688,8.8125
12:38:56.883,8.25,7.8125
12:38:56.893,8.4063,5.5
12:38:56.903,7.5625,4.625
12:38:56.912,6.6563,3.5
12:38:56.922,5.9063,0.8125
12:38:56.933,4.8125,-0.3125
12:38:56.941,3.9688,-2.5625
12:38:56.952,2.7813,-4.4375
12:38:56.962,2.4063,-6.0625
12:38:56.977,0.6563,-7.25
12:38:57.002,0.4375,-8.8125
12:38:57.005,0.3125,-10.75
12:38:57.010,-1.0625,-12.125
12:38:57.017,-1.0938,-13.4376
12:38:57.027,-2.0625,-14.5626
12:38:57.038,-1.875,-16.4376
12:38:57.051,-2.4688,-17.2501
12:38:57.063,-3.3438,-18.3751
12:38:57.071,-3.625,-20.1251
12:38:57.082,-5.3438,-20.8126
12:38:57.124,-5.3125,-21.4376
12:38:57.127,-6.125,-23.0626
12:38:57.143,-5.7813,-24.4376
12:38:57.206,-6.5,-24.8126
12:38:57.206,-6.5,-26.0001
12:38:57.207,-7.375,-27.2501
12:38:57.208,-6.7188,-28.8751
12:38:57.211,-6.7188,-28.5626
12:38:57.240,-7.75,-31.0001
12:38:57.243,-7.875,-31.3126
12:38:57.243,-9.1563,-31.1876
12:38:57.245,-9.2188,-33.6251
12:38:57.245,-10.375,-34.3126
12:38:57.251,-11.375,-35.5001
12:38:57.265,-11.7188,-36.5001
12:38:57.266,-11.4063,-37.2501
12:38:57.273,-12.0625,-37.9376
12:38:57.284,-12.5313,-38.8126
12:38:57.291,-12.7813,-39.1251
12:38:57.303,-12.4063,-40.5627
12:38:57.312,-12.5313,-40.6252
12:38:57.323,-13.3751,-41.4377
12:38:57.337,-13.4376,-43.0627
12:38:57.343,-14.8126,-44.5627
12:38:57.352,-15.5001,-45.2502
12:38:57.363,-15.0313,-44.8127
12:38:57.371,-13.5626,-42.4377
12:38:57.383,2.4688,-8.8125
12:38:57.391,8.4375,7.8125
12:38:57.403,13.0313,20.6876
12:38:57.412,17.2501,32.8126
12:38:57.423,19.6563,40.3127
12:38:57.438,21.1563,44.8127
12:38:57.445,21.7188,47.0627
12:38:57.452,22.2813,46.9377
12:38:57.469,21.4688,46.7502
12:38:57.475,21.2501,45.5002
12:38:57.483,20.8751,43.8127
12:38:57.494,20.0626,41.4377
12:38:57.501,19.0001,40.6877
12:38:57.511,17.9063,38.3751
12:38:57.523,17.5001,37.6251
12:38:57.533,17.0313,36.9376
12:38:57.543,16.2188,36.3126
12:38:57.552,16.6876,34.9376
12:38:57.562,16.0938,34.8751
12:38:57.574,16.6251,34.0626
12:38:57.582,15.8126,32.3751
12:38:57.593,14.6876,30.5626
12:38:57.603,14.6251,28.5626
12:38:57.612,13.125,26.8126
12:38:57.623,12.4688,23.8126
12:38:57.632,11.8438,21.3751
12:38:57.642,11.25,19.3126
12:38:57.652,10.4375,17.8126
12:38:57.663,10.3438,17.1876
12:38:57.672,10,16.0001
12:38:57.683,9.5,15.2501
12:38:57.692,9.8438,14.2501
12:38:57.701,8.9688,14.0001
12:38:57.716,9.1563,13.5001
12:38:57.723,9.375,12.625
12:38:57.733,8.5,12.5
12:38:57.742,9.3438,10.75
12:38:57.751,7.9063,10
12:38:57.764,8.1875,8.9375
12:38:57.794,7.2188,9.125
12:38:57.797,7.4688,6.5625
12:38:57.799,7,5.25
12:38:57.803,6.875,3.3125
12:38:57.830,6.7188,2.125
12:38:57.833,6.6875,0.125
12:38:57.835,6.2813,-1
12:38:57.872,6.0625,-2.9375
12:38:57.873,5.0625,-5.5625
12:38:57.875,4.375,-6.5625
12:38:57.877,3.5313,-8.75
12:38:57.883,3.2188,-10.3125
12:38:57.896,2.9375,-11.8125
12:38:57.903,1.9688,-12.9375
12:38:57.935,2.4688,-14.5626
12:38:57.937,1.3438,-15.8751
12:38:57.939,1.4688,-17.2501
12:38:57.947,0.625,-19.2501
12:38:57.953,0.5313,-20.3126
12:38:57.963,-0.3125,-21.4376
12:38:57.971,-0.9375,-22.2501
12:38:57.983,-1.3438,-24.3126
12:38:57.992,-2.3438,-25.0626
12:38:58.001,-2.9063,-26.9376
12:38:58.013,-4.2188,-26.8126
12:38:58.021,-3.75,-28.3751
12:38:58.039,-4.375,-28.6876
12:38:58.044,-4.4063,-30.5001
12:38:58.053,-5.4063,-30.1876
12:38:58.061,-5.3125,-32.1251
12:38:58.072,-6.25,-32.5001
12:38:58.082,-7.0313,-33.8126
12:38:58.093,-8.9375,-34.2501
12:38:58.102,-9.875,-35.1251
12:38:58.112,-11,-36.5626
12:38:58.122,-11.1875,-36.5001
12:38:58.133,-12.125,-37.0626
12:38:58.141,-11.9688,-38.3751
12:38:58.152,-13.1563,-39.5002
12:38:58.163,-12.6563,-40.3752
12:38:58.172,-13.3751,-40.1877
12:38:58.181,-13.3438,-42.0002
12:38:58.192,-14.2188,-43.0002
12:38:58.201,-14.3751,-44.4377
12:38:58.213,-14.4376,-45.3127
12:38:58.221,-14.7813,-46.1252
12:38:58.232,-14.7813,-46.3127
12:38:58.241,-13.3438,-44.5627
12:38:58.253,-9.5625,-37.5001
12:38:58.285,-4.7188,-25.3751
12:38:58.285,2.0625,-9.3125
12:38:58.289,8.8438,5.5
12:38:58.292,13.7188,20.1251
12:38:58.304,18.3751,31.2501
12:38:58.311,21.6876,39.0626
12:38:58.323,23.4376,44.3752
12:38:58.333,24.0938,47.0002
12:38:58.342,24.0001,46.8752
12:38:58.353,22.5938,46.9377
12:38:58.361,21.9688,45.6252
12:38:58.371,20.5313,43.8752
12:38:58.382,20.0313,41.6252
12:38:58.392,18.4688,39.3752
12:38:58.403,17.2813,37.5001
12:38:58.413,15.9376,36.8126
12:38:58.426,15.4063,35.6251
12:38:58.433,15.0001,35.0626
12:38:58.452,14.7813,34.5626
12:38:58.455,13.5313,33.6876
12:38:58.466,13.3126,33.5001
12:38:58.472,13.6251,31.5001
12:38:58.488,12.5313,30.5001
12:38:58.495,12.4375,27.9376
12:38:58.504,11.2813,25.8751
12:38:58.513,10.4375,23.0001
12:38:58.522,9.8125,20.9376
12:38:58.553,8.9375,19.5626
12:38:58.554,8.9375,18.6876
12:38:58.556,8.4063,17.1251
12:38:58.562,9.25,16.0001
12:38:58.598,9.5938,16.1251
12:38:58.600,10.3438,14.8751
12:38:58.602,10.5625,14.3751
12:38:58.605,10.2813,13.5626
12:38:58.639,10.5938,12.5625
12:38:58.640,10.2188,12.375
12:38:58.642,9.7813,11.6875
12:38:58.669,8.9063,9.875
12:38:58.671,7.875,9.375
12:38:58.673,7.5938,8.5
12:38:58.680,6.9375,6.9375
12:38:58.685,7.0625,5.4375
12:38:58.709,6.0625,4.875
12:38:58.711,5.4063,2
12:38:58.713,4.9063,0.3125
12:38:58.721,3.6563,-0.8125
12:38:58.733,3.0313,-3.25
12:38:58.743,1.9688,-3.9375
12:38:58.759,1.0938,-7.3125
12:38:58.765,1.0938,-7.375
12:38:58.774,0.0313,-10
12:38:58.782,-0.7188,-10.1875
12:38:58.797,-1.0625,-12.1875
12:38:58.805,-1.6563,-13.6876
12:38:58.813,-2.0625,-15.0626
12:38:58.821,-2.5,-15.8751
12:38:58.832,-3.625,-16.9376
12:38:58.843,-4.0938,-17.5001
12:38:58.856,-5.0313,-19.0626
12:38:58.862,-5.75,-20.0626
12:38:58.875,-5.9688,-22.0001
12:38:58.882,-6.2813,-21.8126
12:38:58.891,-6.7188,-23.8751
12:38:58.903,-7.0938,-24.0001
12:38:58.911,-7.2813,-25.4376
12:38:58.922,-7.6563,-25.2501
12:38:58.933,-7.625,-26.2501
12:38:58.943,-8.25,-27.6251
12:38:58.952,-8.625,-27.0001
12:38:58.961,-8.6875,-28.9376
12:38:58.972,-8.7813,-29.3126
12:38:58.982,-9.6563,-30.1251
12:38:58.993,-9.75,-30.0001
12:38:59.003,-10.625,-31.8751
12:38:59.013,-10.3125,-32.4376
12:38:59.022,-10.4375,-33.3751
12:38:59.033,-10.2188,-33.9376
12:38:59.043,-10.7188,-34.3751
12:38:59.053,-10.2188,-36.3126
12:38:59.062,-10.375,-36.9376
12:38:59.073,-11.375,-37.9376
12:38:59.082,-11.125,-39.1876
12:38:59.092,-11.875,-38.8126
12:38:59.102,-9.9688,-36.8126
12:38:59.112,-6.5,-29.1876
12:38:59.122,-0.6875,-17.0626
12:38:59.133,5.6563,-2.25
12:38:59.144,11.7813,12
12:38:59.152,16.6563,25.6251
12:38:59.162,20.1251,35.7501
12:38:59.171,22.5313,43.1877
12:38:59.182,22.9063,46.1877
12:38:59.193,23.2188,48.0627
12:38:59.205,22.6876,47.9377
12:38:59.213,22.5938,48.0002
12:38:59.221,21.6251,45.1252
12:38:59.236,20.8126,43.5627
12:38:59.241,19.5313,41.4377
12:38:59.252,18.9376,40.3752
12:38:59.263,18.3751,38.5626
12:38:59.284,17.5626,37.5001
12:38:59.286,16.9376,36.2501
12:38:59.320,16.7501,35.4376
12:38:59.320,16.5001,34.2501
12:38:59.322,16.2188,34.4376
12:38:59.325,15.3438,33.5626
12:38:59.356,15.3126,31.6251
12:38:59.357,13.5313,30.3751
12:38:59.360,13,27.3126
12:38:59.362,12.1563,25.9376
12:38:59.392,11.2813,23.1251
12:38:59.394,10.5938,22.0626
12:38:59.396,9.4063,19.3126
12:38:59.403,9.0625,19.1251
12:38:59.412,8.0313,17.3751
12:38:59.441,7.4063,17.5001
12:38:59.442,6.4688,16.0001
12:38:59.445,6.1875,16.0001
12:38:59.453,5.125,14.8126
12:38:59.461,4.5938,14.8126
12:38:59.473,4.25,12.6875
12:38:59.483,3.3438,12.375
12:38:59.491,-0.4688,8.9375
12:38:59.501,-6.8125,6.75
12:38:59.512,-15.8438,1.125
12:38:59.522,-27.0001,-4.4375
12:38:59.532,-44.6252,-13.9376
12:38:59.562,-59.1252,-22.8126
12:38:59.564,-73.8753,-32.8751
12:38:59.566,-91.1566,-43.4377
12:38:59.572,-105.3129,-52.3752
12:38:59.582,-114.2817,-60.8752
12:38:59.593,-123.563,-68.3753
12:38:59.602,-134.8443,-76.5003
12:38:59.611,-150.5318,-91.9379
12:38:59.621,-159.1256,-99.8754
12:38:59.633,-165.4694,-106.9379
12:38:59.642,-166.1569,-109.1254
12:38:59.653,-162.0319,-107.5629
12:38:59.662,-154.6881,-102.0629
12:38:59.673,-144.563,-97.0004
12:38:59.683,-133.7818,-90.0628
12:38:59.692,-124.4692,-83.5628
12:38:59.702,-117.4692,-81.0003
12:38:59.713,-110.5629,-75.6253
12:38:59.723,-103.3129,-72.4378
12:38:59.733,-101.1254,-71.8753
12:38:59.743,-95.9379,-69.3753
12:38:59.752,-89.1878,-65.8128
12:38:59.770,-79.8753,-61.1252
12:38:59.772,-75.094,-58.6877
12:38:59.787,-71.9378,-56.7502
12:38:59.802,-69.5003,-57.3127
12:38:59.805,-67.0628,-56.5627
12:38:59.815,-65.5002,-55.5627
12:38:59.822,-63.219,-56.4377
12:38:59.835,-64.0002,-56.1877
12:38:59.842,-64.469,-58.6877
12:38:59.852,-63.0627,-58.9377
12:38:59.863,-62.5315,-58.6877
12:38:59.873,-62.1877,-59.7502
12:38:59.882,-61.7502,-60.1877
12:38:59.891,-62.1252,-62.2502
12:38:59.902,-60.5315,-61.3752
12:38:59.911,-60.8127,-61.0002
12:38:59.923,-61.0627,-63.3127
12:38:59.933,-62.844,-64.1252
12:38:59.941,-62.5627,-66.1878
12:38:59.952,-60.719,-66.3128
12:38:59.962,-61.1877,-66.4378
12:38:59.983,-59.7815,-66.5003
12:38:59.985,-57.7815,-63.1877
12:38:59.992,-53.4065,-56.3127
12:39:00.021,-47.5627,-44.5627
12:39:00.023,-41.4377,-32.0626
12:39:00.026,-34.8751,-18.5001
12:39:00.033,-30.3126,-6.3125
12:39:00.060,-25.8438,2.5
12:39:00.061,-22.3438,8.875
12:39:00.063,-20.9063,12.9375
12:39:00.140,-18.9688,14.5001
12:39:00.140,-19.0938,15.6251
12:39:00.162,-19.9376,13.5001
12:39:00.165,-19.5626,13.5626
12:39:00.168,-20.4376,13.1876
12:39:00.168,-20.8438,10.375
12:39:00.174,-21.3751,10.4375
12:39:00.181,-20.9063,8.4375
12:39:00.194,-20.8438,9.25
12:39:00.203,-20.2813,7.625
12:39:00.214,-20.1251,7.6875
12:39:00.223,-20.2188,7.75
12:39:00.232,-19.9376,6.5
12:39:00.243,-20.0626,6.9375
12:39:00.253,-20.7813,5.1875
12:39:00.261,-21.8751,3.875
12:39:00.273,-23.4376,0.6875
12:39:00.282,-24.3438,-0.8125
12:39:00.293,-26.4376,-3.25
12:39:00.302,-27.7501,-4.8125
12:39:00.311,-28.8126,-6.1875
12:39:00.321,-29.7189,-8.1875
12:39:00.332,-32.7814,-9
12:39:00.343,-32.1564,-7.4375
12:39:00.352,-31.3751,-7
12:39:00.364,-30.5001,-5.625
12:39:00.372,-30.2814,-6.5625
12:39:00.382,-30.4376,-6.375
12:39:00.393,-31.4064,-8.0625
12:39:00.402,-31.5626,-8.125
12:39:00.411,-31.5314,-9.625
12:39:00.421,-31.3439,-9.75
12:39:00.433,-30.9689,-11.0625
12:39:00.442,-29.7501,-11.0625
12:39:00.452,-29.8126,-10.625
12:39:00.463,-29.4376,-12.375
12:39:00.471,-28.9376,-13.0625
12:39:00.481,-28.9689,-13.5001
12:39:00.492,-28.8439,-15.0626
12:39:00.502,-28.4376,-15.5626
12:39:00.512,-26.7501,-15.3751
12:39:00.523,-26.5939,-15.5626
12:39:00.533,-25.0313,-16.0626
12:39:00.542,-24.0001,-15.4376
12:39:00.551,-23.4688,-16.8126
12:39:00.563,-23.9063,-17.5001
12:39:00.572,-24.6876,-19.3126
12:39:00.582,-25.7501,-19.8126
12:39:00.591,-25.6563,-21.6251
12:39:00.603,-26.1251,-21.6876
12:39:00.611,-26.4064,-21.2501
12:39:00.623,-25.8438,-23.5001
12:39:00.633,-25.3438,-23.8126
12:39:00.643,-24.9063,-23.8126
12:39:00.651,-24.9376,-24.2501
12:39:00.664,-24.8438,-24.9376
12:39:00.673,-24.6251,-25.6876
12:39:00.683,-24.6876,-26.8751
12:39:00.691,-24.5001,-27.6251
12:39:00.702,-24.5938,-28.0001
12:39:00.712,-24.0626,-29.5001
12:39:00.745,-24.5626,-31.1251
12:39:00.747,-24.2501,-32.6251
12:39:00.749,-24.0938,-34.6251
12:39:00.751,-24.2501,-35.9376
12:39:00.782,-25.4688,-38.5001
12:39:00.785,-27.0314,-42.0627
12:39:00.786,-28.6876,-44.5627
12:39:00.792,-29.6876,-48.5627
12:39:00.832,-31.0314,-50.1877
12:39:00.833,-31.2501,-55.0627
12:39:00.836,-33.5314,-58.0002
12:39:00.863,-34.5939,-62.4377
12:39:00.863,-34.7814,-63.0002
12:39:00.864,-33.7189,-62.6252
12:39:00.866,-31.2501,-57.4377
12:39:00.873,-26.0626,-47.2502
12:39:00.882,-18.9063,-32.1251
12:39:00.900,-11,-17.1876
12:39:00.911,-6.125,-2.375
12:39:00.912,-1.5938,7.6875
12:39:00.922,1.0625,16.6876
12:39:00.931,3.125,20.1876
12:39:00.942,2.8438,24.1876
12:39:00.953,3.6875,24.7501
12:39:00.962,3.9688,25.7501
12:39:00.973,4.25,25.2501
12:39:00.982,3.4688,25.7501
12:39:00.991,3.9375,25.0001
12:39:01.003,2.4063,24.3126
12:39:01.013,1.4375,23.3126
12:39:01.023,0.6563,22.4376
12:39:01.033,1.0938,23.1251
12:39:01.048,1.5625,24.8126
12:39:01.058,1,24.8751
12:39:01.069,0.4063,25.1251
12:39:01.088,1.1875,25.5626
12:39:01.090,0.125,26.0626
12:39:01.100,-0.3125,24.0626
12:39:01.108,-1.8438,24.1876
12:39:01.123,-2.9375,21.0001
12:39:01.138,-3.8438,18.8751
12:39:01.140,-4.3438,17.8751
12:39:01.147,-6.2188,17.0626
12:39:01.157,-7.2813,15.8126
12:39:01.167,-6.75,14.8126
12:39:01.178,-6.9375,15.3751
12:39:01.188,-6.6875,14.6876
12:39:01.198,-6.4063,15.1876
12:39:01.206,-7.3125,16.1876
12:39:01.217,-6.7813,14.9376
12:39:01.226,-5.8438,14.5001
12:39:01.238,-5.3125,15.0626
12:39:01.248,-4.375,14.7501
12:39:01.257,-4.5938,14.8126
12:39:01.267,-4.5625,12.5625
12:39:01.276,-4.7813,11.625
12:39:01.291,-3.75,11.375
12:39:01.298,-3.5313,10.875
12:39:01.307,-3.5938,10.875
12:39:01.317,-3.1563,9
12:39:01.330,-3.3125,7.125
12:39:01.338,-3.4063,7.125
12:39:01.347,-3.4063,5.3125
12:39:01.357,-3.5625,4.1875
12:39:01.366,-3.3125,3
12:39:01.379,-3.6563,2.5
12:39:01.388,-2.4063,1.875
12:39:01.396,-3.75,0.8125
12:39:01.408,-3.9688,-0.3125
12:39:01.423,-3.3438,-2.125
12:39:01.430,-4.4375,-2.5
12:39:01.437,-3.3125,-4.625
12:39:01.454,-3.8438,-3.875
12:39:01.460,-3.75,-6.1875
12:39:01.469,-4.25,-8.75
12:39:01.477,-4.4375,-9.375
12:39:01.505,-5.4063,-11.6875
12:39:01.507,-5.9063,-13.4376
12:39:01.511,-5.9688,-15.3751
12:39:01.534,-7.1875,-17.3751
12:39:01.536,-7,-20.0001
12:39:01.539,-8.9688,-22.5626
12:39:01.578,-10.0625,-24.5001
12:39:01.579,-11.6563,-28.3126
12:39:01.581,-13.6251,-30.0626
12:39:01.613,-15.0938,-34.9376
12:39:01.613,-17.8126,-37.7501
12:39:01.616,-19.8751,-41.2502
12:39:01.617,-20.9376,-43.6252
12:39:01.623,-21.8438,-45.3127
12:39:01.636,-23.3438,-48.9377
12:39:01.639,-24.2501,-50.5002
12:39:01.672,-25.1563,-54.3127
12:39:01.675,-26.4376,-55.6877
12:39:01.676,-27.5626,-59.4377
12:39:01.681,-29.2814,-61.5002
12:39:01.688,-30.2501,-63.5002
12:39:01.700,-30.2814,-63.3127
12:39:01.707,-28.6564,-60.2502
12:39:01.717,-24.4688,-50.5627
12:39:01.727,-17.3438,-36.4376
12:39:01.737,-9.4688,-17.6251
12:39:01.747,-1.0938,0.25
12:39:01.756,6.4688,16.6251
12:39:01.768,11.4688,28.0001
12:39:01.777,14.6563,36.5626
12:39:01.787,16.4063,41.1877
12:39:01.797,17.3438,44.5627
12:39:01.810,17.5626,45.3127
12:39:01.819,17.3126,46.7502
12:39:01.828,17.1563,46.1252
12:39:01.837,17.0313,46.5627
12:39:01.847,15.8751,47.5627
12:39:01.857,15.1563,45.5627
12:39:01.866,16.3438,46.8752
12:39:01.876,16.7501,48.6877
12:39:01.890,18.1876,48.3127
12:39:01.899,17.4063,49.1877
12:39:01.908,16.9688,47.9377
12:39:01.917,15.8751,47.4377
12:39:01.928,13.2813,44.3752
12:39:01.937,11.375,43.0002
12:39:01.948,10.8438,41.1252
12:39:01.957,10.0938,38.2501
12:39:01.967,9.4063,36.5001
12:39:01.977,8.4375,34.6251
12:39:01.987,8,32.8126
12:39:01.997,8.2813,32.3126
12:39:02.007,7.8438,31.3751
12:39:02.018,6.8438,30.7501
12:39:02.027,7.2188,30.4376
12:39:02.037,7.9688,30.5001
12:39:02.046,8.0313,29.7501
12:39:02.057,8.3125,30.4376
12:39:02.067,9.875,30.8751
12:39:02.077,9.9063,30.4376
12:39:02.089,10.6563,31.9376
12:39:02.098,11.6563,31.2501
12:39:02.123,12.0938,29.9376
12:39:02.124,12.7813,30.1876
12:39:02.127,13.8126,29.2501
12:39:02.137,12.0938,27.6876
12:39:02.149,11.3125,27.1876
12:39:02.158,11.125,24.3126
12:39:02.167,10.4063,22.5001
12:39:02.177,10.4375,21.6876
12:39:02.198,9.625,19.6876
12:39:02.201,9.6875,19.0626
12:39:02.232,10,17.4376
12:39:02.233,10.0625,15.8751
12:39:02.234,8.7813,13.7501
12:39:02.236,7.875,12.25
12:39:02.266,7.0625,9.75
12:39:02.270,5.9063,7.25
12:39:02.272,4.875,5.5625
12:39:02.278,4.75,3.125
12:39:02.306,3.5625,0.0625
12:39:02.308,3.4063,0
12:39:02.312,3.5,-3.5
12:39:02.319,1.7188,-6.125
12:39:02.328,0.3125,-8.6875
12:39:02.360,-1.8125,-12.1875
12:39:02.362,-3.875,-13.8126
12:39:02.364,-5.3125,-17.6251
12:39:02.367,-6.875,-20.3751
12:39:02.377,-7.7188,-22.0626
12:39:02.386,-7.9063,-23.9376
12:39:02.406,-8.2188,-25.9376
12:39:02.410,-9.9375,-26.8751
12:39:02.425,-10.5313,-30.0001
12:39:02.427,-11.6563,-32.6251
12:39:02.437,-13.6563,-33.9376
12:39:02.453,-14.1876,-36.3751
12:39:02.456,-15.7813,-39.0626
12:39:02.467,-16.5001,-38.8751
12:39:02.477,-17.5313,-42.7502
12:39:02.486,-18.9376,-44.8127
12:39:02.497,-19.8126,-46.1877
12:39:02.507,-20.8438,-47.4377
12:39:02.517,-21.2188,-49.1252
12:39:02.527,-20.8126,-47.8752
12:39:02.537,-19.7813,-45.6252
12:39:02.546,-16.3438,-39.1877
12:39:02.558,-11.3125,-26.3126
12:39:02.568,-3.8125,-9.625
12:39:02.582,3.2813,6.8125
12:39:02.592,9.8125,23.5626
12:39:02.601,14.7188,36.6876
12:39:02.612,19.2501,46.2502
12:39:02.622,22.1251,53.6252
12:39:02.633,23.0626,58.5627
12:39:02.642,24.5938,60.6252
12:39:02.653,25.5001,63.5002
12:39:02.662,25.1876,64.1252
12:39:02.671,23.6251,63.2502
12:39:02.682,19.2188,62.1877
12:39:02.692,19.2501,60.6252
12:39:02.701,19.8751,61.4377
12:39:02.713,18.6876,61.6877
12:39:02.722,18.4376,59.7502
12:39:02.745,18.5001,60.6877
12:39:02.747,17.7813,60.6252
12:39:02.763,15.9063,59.9377
12:39:02.766,16.6251,60.0627
12:39:02.774,17.4688,59.7502
12:39:02.783,17.1563,58.6252
12:39:02.792,18.9688,57.2502
12:39:02.801,19.2501,56.8752
12:39:02.813,20.1251,55.0002
12:39:02.829,21.5313,54.4377
12:39:02.832,22.8126,54.0627
12:39:02.842,24.5001,53.7502
12:39:02.852,24.1563,54.6252
12:39:02.862,23.1876,52.1252
12:39:02.884,22.3438,50.0627
12:39:02.886,22.8751,51.0002
12:39:02.915,24.5626,51.3127
12:39:02.917,25.3126,51.0002
12:39:02.918,25.9688,50.0002
12:39:02.922,26.1563,50.3127
12:39:02.950,25.6563,48.5627
12:39:02.953,24.8751,47.3127
12:39:02.955,24.8751,45.8127
12:39:02.988,23.7813,43.3752
12:39:02.989,22.6251,41.8127
12:39:02.992,21.3126,39.6252
12:39:02.998,20.9376,37.4376
12:39:03.008,21.1251,34.7501
12:39:03.034,19.6251,32.4376
12:39:03.036,18.6876,30.0626
12:39:03.040,16.7188,25.8751
12:39:03.042,15.0001,23.5001
12:39:03.053,13.4688,19.8751
12:39:03.062,11.4688,16.7501
12:39:03.071,10.4688,13.9376
12:39:03.081,8.2813,10.3125
12:39:03.092,6.3125,5.625
12:39:03.102,4.9375,3
12:39:03.111,3.5313,-0.375
12:39:03.122,1.625,-3.375
12:39:03.131,-0.1875,-4.9375
12:39:03.142,-1,-8
12:39:03.152,-1.625,-10.4375
12:39:03.162,-3.7188,-12.625
12:39:03.171,-4.3438,-14.8126
12:39:03.182,-5.9688,-16.8751
12:39:03.193,-6.4063,-16.9376
12:39:03.206,-6.9375,-18.6876
12:39:03.212,-7.9063,-21.2501
12:39:03.222,-9.0313,-21.5626
12:39:03.232,-9.4063,-23.0001
12:39:03.242,-9.125,-23.6251
12:39:03.252,-8.7188,-23.6876
12:39:03.262,-10.125,-24.1876
12:39:03.273,-10.4375,-25.5001
12:39:03.284,-11.5938,-24.7501
12:39:03.293,-11.7813,-25.7501
12:39:03.302,-12.875,-25.3126
12:39:03.314,-12.9063,-24.8751
12:39:03.321,-13.4063,-24.5001
12:39:03.334,-12,-22.3126
12:39:03.341,-10.5625,-21.3751
12:39:03.352,-10.8125,-19.8126
12:39:03.363,-13.0313,-21.3751
12:39:03.371,-16.8438,-24.3751
12:39:03.403,-18.5313,-24.1876
12:39:03.406,-18.6251,-25.4376
12:39:03.408,-17.9063,-24.8751
12:39:03.414,-17.7813,-24.1251
12:39:03.422,-14.0626,-19.8751
12:39:03.433,-9.9063,-10.6875
12:39:03.444,-3.8125,1.5625
12:39:03.454,3.875,14.9376
12:39:03.465,9.625,29.1876
12:39:03.473,15.2501,39.5627
12:39:03.481,20.5313,50.1877
12:39:03.492,25.1563,57.6877
12:39:03.503,28.0626,63.0627
12:39:03.513,30.0314,67.1253
12:39:03.521,32.4376,68.9378
12:39:03.532,33.3439,71.0628
12:39:03.542,33.6876,70.4378
12:39:03.551,35.1564,71.6253
12:39:03.561,35.1564,73.3753
12:39:03.580,35.2814,71.8128
12:39:03.583,36.0001,72.8128
12:39:03.592,34.5001,73.0003
12:39:03.602,33.8439,71.8753
12:39:03.611,33.9689,72.6253
12:39:03.624,34.0939,72.5628
12:39:03.632,34.2814,72.8753
12:39:03.642,34.1876,71.3128
12:39:03.652,33.0314,69.5628
12:39:03.664,31.9064,67.9378
12:39:03.673,30.2501,65.4377
12:39:03.682,29.2814,61.4377
12:39:03.719,27.0001,57.1877
12:39:03.721,24.7501,53.1877
12:39:03.723,22.8751,49.1877
12:39:03.753,22.2813,45.5002
12:39:03.753,22.1251,44.6252
12:39:03.754,21.6876,41.1252
12:39:03.760,19.9688,38.3126
12:39:03.765,18.7188,36.3126
12:39:03.795,17.6563,34.3751
12:39:03.797,16.0001,31.7501
12:39:03.800,14.4376,30.1876
12:39:03.802,13.7813,28.3751
12:39:03.832,12.8438,26.0626
12:39:03.835,11.5,24.2501
12:39:03.838,10.2813,24.0001
12:39:03.843,9.0938,20.8751
12:39:03.873,8.0938,18.0626
12:39:03.875,7,16.9376
12:39:03.877,6.25,15.4376
12:39:03.883,5.6563,14.1251
12:39:03.892,4.7813,11.5
12:39:03.903,3.6875,9.875
12:39:03.912,2.125,7.625
12:39:03.922,1.0938,5.625
12:39:03.932,0.0625,4.1875
12:39:03.942,-1.3125,3.4375
12:39:03.957,-2.5,2
12:39:03.963,-2.6563,0.75
12:39:03.973,-2.8438,-0.375
12:39:03.983,-2.9063,0
12:39:03.991,-3.2813,-0.5625
12:39:04.002,-3.625,-1
12:39:04.012,-2.7188,-2
12:39:04.022,-3.5,-2.625
12:39:04.041,-6.8125,-4.5625
12:39:04.049,-9.9688,-6.5
12:39:04.062,-9.8438,-8.25
12:39:04.064,-11.8438,-10.6875
12:39:04.072,-13.7501,-11.125
12:39:04.081,-13.6251,-12.25
12:39:04.093,-14.2501,-13.1876
12:39:04.105,-14.1251,-13.5001
12:39:04.111,-13.9376,-14.3751
12:39:04.122,-14.6251,-15.0626
12:39:04.133,-14.0938,-14.5626
12:39:04.142,-13.6251,-14.1876
12:39:04.152,-12.6563,-14.5626
12:39:04.162,-12.1563,-15.5001
12:39:04.172,-10.6875,-13.6876
12:39:04.181,-9.1563,-12.875
12:39:04.192,-7.1875,-11.8125
12:39:04.203,-5.125,-11.3125
12:39:04.214,-4.125,-10.375
12:39:04.224,-2.5625,-10.4375
12:39:04.231,-2.5,-10.9375
12:39:04.243,-2.25,-10.75
12:39:04.252,-2.6563,-11.9375
12:39:04.261,-2.4375,-13.4376
12:39:04.272,-2.7188,-13.2501
12:39:04.282,-2.9375,-15.6876
12:39:04.292,-3.375,-16.6876
12:39:04.303,-4.125,-17.6876
12:39:04.313,-4.0938,-19.8751
12:39:04.323,-4.5,-18.3751
12:39:04.334,-1.875,-15.9376
12:39:04.342,2.9063,-7.9375
12:39:04.371,7.9063,2.75
12:39:04.373,14.6251,14.8126
12:39:04.376,19.8126,27.0001
12:39:04.383,24.8438,37.0626
12:39:04.414,28.3439,46.0002
12:39:04.415,30.2814,49.1252
12:39:04.417,31.7814,52.0627
12:39:04.424,32.5626,53.2502
12:39:04.456,30.6251,52.6252
12:39:04.457,29.8751,51.5627
12:39:04.462,28.0314,50.0002
12:39:04.464,27.2501,48.2502
12:39:04.491,27.0314,47.5627
12:39:04.493,25.8751,45.9377
12:39:04.496,25.2188,46.2502
12:39:04.503,24.9063,44.5627
12:39:04.528,23.9376,44.0627
12:39:04.533,23.5001,44.1252
12:39:04.535,24.2188,45.7502
12:39:04.543,23.3751,44.6877
12:39:04.553,22.4063,43.5627
12:39:04.565,20.9376,41.1877
12:39:04.573,19.7813,39.0001
12:39:04.583,18.5001,37.1251
12:39:04.592,18.0626,34.6251
12:39:04.601,16.4688,31.8751
12:39:04.613,15.2188,30.7501
12:39:04.622,14.3751,28.3751
12:39:04.633,13.8438,26.4376
12:39:04.643,12.6563,25.1251
12:39:04.653,12.1875,24.6251
12:39:04.683,12.1563,24.2501
12:39:04.686,12.8125,23.8126
12:39:04.688,12.6875,23.9376
12:39:04.694,12.1563,24.6251
12:39:04.707,12.4063,24.2501
12:39:04.713,10.7813,22.8751
12:39:04.723,8.4375,21.4376
12:39:04.733,8.125,20.5001
12:39:04.744,8.3125,20.5001
12:39:04.754,7.0938,19.4376
12:39:04.761,7.25,18.0001
12:39:04.772,6.4375,16.5626
12:39:04.782,6.4375,15.8126
12:39:04.791,6.4375,14.6876
12:39:04.802,4.875,12.625
12:39:04.812,3.5938,11
12:39:04.823,2.375,9.25
12:39:04.834,1.875,7.5625
12:39:04.844,1.5313,6.125
12:39:04.851,1.2188,6.875
12:39:04.862,0.875,4.4375
12:39:04.872,-0.3125,2.9375
12:39:04.882,-0.6563,1.8125
12:39:04.892,0.2188,1.8125
12:39:04.903,0.0938,0.75
12:39:04.912,-0.4375,0.75
12:39:04.925,-0.4688,-0.875
12:39:04.932,-0.4688,-2.625
12:39:04.942,-1.3125,-2.25
12:39:04.952,-2.0938,-3.875
12:39:04.961,-4.0938,-6.6875
12:39:04.976,-5.4375,-7.5625
12:39:04.981,23.9688,1.0625
12:39:05.000,14.2501,4.0625
12:39:05.003,22.5001,11.125
12:39:05.017,13.5938,5.125
12:39:05.022,6.6563,-1.5625
12:39:05.032,6.8125,-1
12:39:05.042,17.9063,4.25
12:39:05.057,44.2502,19.4376
12:39:05.067,72.4065,38.2501
12:39:05.077,90.7504,47.8127
12:39:05.087,94.0941,49.1252
12:39:05.097,94.6254,47.0002
12:39:05.128,91.3129,44.1877
12:39:05.130,91.9066,43.5002
12:39:05.132,95.2191,42.6877
12:39:05.137,96.0004,42.6877
12:39:05.162,97.2816,40.8752
12:39:05.164,96.9379,39.8752
12:39:05.167,95.0941,37.1251
12:39:05.192,93.0004,34.2501
12:39:05.193,90.6566,31.0626
12:39:05.201,89.5316,29.2501
12:39:05.229,89.8128,30.5626
12:39:05.231,94.8754,38.6876
12:39:05.234,100.9379,49.6877
12:39:05.239,106.6879,62.1252
12:39:05.270,114.0317,75.9378
12:39:05.272,120.0942,86.8753
12:39:05.276,126.0317,96.2504
12:39:05.281,130.6255,101.5004
12:39:05.288,133.813,105.5004
12:39:05.298,135.9068,108.4379
12:39:05.307,135.7193,107.6879
12:39:05.317,136.438,107.5004
12:39:05.327,136.313,107.0629
12:39:05.338,136.5005,106.5004
12:39:05.352,135.0318,105.6879
12:39:05.368,134.2505,104.2504
12:39:05.372,133.438,103.1254
12:39:05.377,131.9068,101.3129
12:39:05.386,131.563,101.8754
12:39:05.397,130.0005,100.8129
12:39:05.409,127.9692,99.9379
12:39:05.419,127.188,99.2504
12:39:05.426,125.438,97.3754
12:39:05.437,122.313,95.3129
12:39:05.447,119.063,93.3129
12:39:05.460,115.4067,89.2503
12:39:05.471,111.7817,86.3753
12:39:05.478,107.6567,82.1253
12:39:05.487,104.3441,78.1253
12:39:05.500,101.6566,75.6878
12:39:05.506,98.7191,71.2503
12:39:05.518,95.9691,69.0003
12:39:05.527,94.5004,67.1878
12:39:05.537,91.0629,66.0628
12:39:05.547,89.8128,64.1877
12:39:05.559,87.2816,62.7502
12:39:05.568,85.6566,60.7502
12:39:05.577,82.8441,59.4377
12:39:05.587,81.0941,58.0002
12:39:05.598,77.5003,56.6252
12:39:05.608,74.4065,54.3127
12:39:05.618,70.9065,52.6252
12:39:05.628,68.719,50.2502
12:39:05.637,64.9377,48.1252
12:39:05.647,62.594,45.3752
12:39:05.656,59.844,43.5002
12:39:05.667,59.0002,40.7502
12:39:05.678,56.8127,38.8126
12:39:05.688,55.969,36.7501
12:39:05.696,54.6565,33.6251
12:39:05.707,53.0002,31.5626
12:39:05.716,51.9689,29.2501
12:39:05.726,49.9377,27.8751
12:39:05.737,48.0002,25.7501
12:39:05.748,45.9377,23.5001
12:39:05.760,44.1564,21.5626
12:39:05.768,41.8127,19.9376
12:39:05.778,40.5314,17.0626
12:39:05.787,38.5626,15.6251
12:39:05.798,37.0626,12.875
12:39:05.807,35.8126,10.4375
12:39:05.825,34.2814,9.25
12:39:05.827,33.0314,6.4375
12:39:05.856,32.5626,5.25
12:39:05.857,31.7501,3.25
12:39:05.860,30.8126,1.6875
12:39:05.891,30.0939,0.125
12:39:05.892,29.3751,-1.5
12:39:05.895,28.8126,-2.625
12:39:05.897,27.9689,-4.75
12:39:05.929,27.9064,-5.8125
12:39:05.931,27.3439,-7.3125
12:39:05.934,27.0939,-9.25
12:39:05.961,27.2501,-10.5625
12:39:05.963,27.6564,-12.0625
12:39:05.966,27.1251,-13.7501
12:39:05.971,26.4064,-14.8751
12:39:05.980,26.5001,-16.5626
12:39:06.006,24.5313,-17.2501
12:39:06.007,24.2813,-19.0001
12:39:06.011,22.4376,-19.6876
12:39:06.017,22.7188,-21.1876
12:39:06.027,21.5626,-21.6251
12:39:06.037,21.1876,-23.3751
12:39:06.047,19.8126,-23.6251
12:39:06.057,19.5938,-25.7501
12:39:06.068,18.2501,-25.1876
12:39:06.080,17.8438,-28.1251
12:39:06.087,16.7188,-27.5626
12:39:06.096,16.3126,-30.1876
12:39:06.108,14.6876,-31.1876
12:39:06.116,14.1251,-33.1251
12:39:06.128,13.2813,-33.1251
12:39:06.139,14.2188,-31.7501
12:39:06.148,15.4376,-26.1251
12:39:06.156,18.7501,-17.7501
12:39:06.167,22.9063,-4
12:39:06.177,27.3751,8.375
12:39:06.188,31.6564,22.1876
12:39:06.199,34.7814,32.1251
12:39:06.211,36.4689,39.6877
12:39:06.218,37.7814,45.6877
12:39:06.227,38.6564,47.4377
12:39:06.239,38.5314,49.0002
12:39:06.247,38.0939,48.5627
12:39:06.257,37.5939,48.5002
12:39:06.267,36.0939,46.7502
12:39:06.278,35.5626,46.6252
12:39:06.296,34.6876,44.6252
12:39:06.302,33.2501,44.2502
12:39:06.314,32.7501,42.5627
12:39:06.317,31.8439,43.2502
12:39:06.328,30.7814,41.5627
12:39:06.338,30.4064,41.9377
12:39:06.349,29.7189,41.1252
12:39:06.357,27.9376,40.6877
12:39:06.366,26.7814,39.3751
12:39:06.382,25.9063,38.3126
12:39:06.387,24.5626,37.1251
12:39:06.398,22.2188,33.8126
12:39:06.407,20.9063,31.1876
12:39:06.416,19.4376,29.1876
12:39:06.428,18.1876,26.5626
12:39:06.437,18.1563,23.3126
12:39:06.447,17.3126,22.0626
12:39:06.456,17.1251,19.9376
12:39:06.467,17.1251,18.8751
12:39:06.476,15.8751,18.1251
12:39:06.486,16.6251,17.1876
12:39:06.497,15.8438,15.7501
12:39:06.507,15.9688,15.6876
12:39:06.518,14.8126,14.8751
12:39:06.528,14.6876,14.8751
12:39:06.536,14.9063,12.625
12:39:06.548,13.9688,11.625
12:39:06.559,13.7188,10.25
12:39:06.571,13.2813,8.8125
12:39:06.586,12.625,8.1875
12:39:06.588,12.25,5.625
12:39:06.619,11.6563,3.875
12:39:06.622,10.5,1.9375
12:39:06.624,9.875,0
12:39:06.629,8.9375,-2.0625
12:39:06.662,8.25,-3.9375
12:39:06.665,7.625,-5.75
12:39:06.667,6.6875,-7.6875
12:39:06.700,6.125,-9.4375
12:39:06.704,4.75,-11.6875
12:39:06.704,4,-13.125
12:39:06.731,3.125,-14.9376
12:39:06.732,1.9688,-17.3751
12:39:06.733,1.8125,-18.1251
12:39:06.735,0.9063,-19.6251
12:39:06.740,1.0313,-20.9376
12:39:06.765,0.9688,-22.5626
12:39:06.766,-0.2188,-24.0001
12:39:06.769,0.125,-25.3751
12:39:06.777,0.0313,-27.1251
12:39:06.786,-0.8438,-26.8751
12:39:06.797,-0.4688,-29.3751
12:39:06.808,-1.5313,-30.0626
12:39:06.818,-1.2813,-31.8751
12:39:06.826,-1.7813,-33.3751
12:39:06.837,-1.9375,-33.9376
12:39:06.847,-2.0625,-35.8126
12:39:06.860,-2.375,-36.2501
12:39:06.868,-2.4063,-37.9376
12:39:06.878,-3.125,-38.5001
12:39:06.887,-3.4063,-39.5627
12:39:06.898,-4,-41.1252
12:39:06.907,-4.9063,-41.9377
12:39:06.917,-6.125,-42.4377
12:39:06.927,-6.8438,-43.0002
12:39:06.938,-7,-43.8127
12:39:06.948,-7.1563,-45.3752
12:39:06.958,-7.9688,-45.7502
12:39:06.967,-7.6563,-46.8127
12:39:06.977,-8.5938,-47.1252
12:39:06.988,-8.7813,-48.6252
12:39:07.000,-8.9063,-49.8127
12:39:07.006,-9.4375,-50.6252
12:39:07.017,-10.0938,-51.8127
12:39:07.027,-10.4688,-52.5002
12:39:07.038,-11.3438,-54.1252
12:39:07.050,-11.9375,-53.8752
12:39:07.057,-11.9688,-54.4377
12:39:07.066,-10.4375,-51.8127
12:39:07.077,-7.8438,-45.0627
12:39:07.087,-2.5,-33.7501
12:39:07.100,2.9063,-19.1251
12:39:07.107,9.1875,-2.625
12:39:07.117,14.2188,11.125
12:39:07.127,18.2501,23.9376
12:39:07.142,21.7813,32.0626
12:39:07.148,23.9688,37.6876
12:39:07.158,24.4376,41.5627
12:39:07.167,24.7501,42.5627
12:39:07.177,23.9376,43.4377
12:39:07.188,24.3438,42.0002
12:39:07.198,23.1251,41.5627
12:39:07.206,22.5001,39.6252
12:39:07.217,21.6876,39.3127
12:39:07.242,21.2813,37.9376
12:39:07.245,21.5001,37.0626
12:39:07.250,21.1251,36.2501
12:39:07.257,20.1563,35.8751
12:39:07.267,19.9376,36.0626
12:39:07.277,19.4063,35.5626
12:39:07.288,19.2188,35.7501
12:39:07.315,18.9376,34.2501
12:39:07.317,17.6876,32.8126
12:39:07.320,16.6563,31.3126
12:39:07.352,15.2188,27.6251
12:39:07.353,14.5938,25.8126
12:39:07.356,13.5001,22.4376
12:39:07.360,12.4063,19.9376
12:39:07.392,11.875,18.3126
12:39:07.395,10.6563,17.0626
12:39:07.397,9.875,16.0001
12:39:07.402,10.25,13.5001
12:39:07.433,9.4375,13.6876
12:39:07.434,9.5,12.4375
12:39:07.436,9.125,12.5625
12:39:07.439,9.5,12.25
12:39:07.470,9.5625,10.5625
12:39:07.472,8.8125,10.375
12:39:07.474,8.75,8.5
12:39:07.478,8.6563,8
12:39:07.486,8.2813,5.75
12:39:07.497,8.0938,4.9375
12:39:07.507,7.2813,3
12:39:07.517,6.8438,2.1875
12:39:07.527,5.9375,-0.25
12:39:07.536,5.6875,-1.625
12:39:07.547,5.0625,-4.125
12:39:07.557,3.7188,-6.25
12:39:07.568,3.0625,-7.5
12:39:07.578,2.7188,-9.5
12:39:07.594,1.625,-10.5625
12:39:07.609,2.2188,-13.5001
12:39:07.611,0.3438,-14.0626
12:39:07.617,0.2813,-17.1876
12:39:07.629,-0.9375,-17.9376
12:39:07.636,-1.0313,-20.0001
12:39:07.647,-2.375,-21.1251
12:39:07.657,-3.1563,-23.3126
12:39:07.668,-3.8125,-24.4376
12:39:07.678,-4.0313,-25.1876
12:39:07.688,-4.3125,-27.0626
12:39:07.697,-5.3438,-27.7501
12:39:07.708,-5.7813,-29.3126
12:39:07.719,-5.5,-30.5001
12:39:07.727,-6.6563,-31.0626
12:39:07.738,-6.7188,-32.8751
12:39:07.747,-7.0938,-33.7501
12:39:07.758,-7.4688,-34.5001
12:39:07.770,-7.5313,-35.5626
12:39:07.776,-8.1875,-37.2501
12:39:07.787,-8.5,-36.7501
12:39:07.798,-9.0938,-39.3752
12:39:07.810,-9.4063,-39.0001
12:39:07.816,-10,-40.5002
12:39:07.827,-10.0938,-40.4377
12:39:07.836,-10.3125,-41.2502
12:39:07.847,-10.25,-41.8752
12:39:07.857,-11.25,-43.8752
12:39:07.867,-11.5313,-43.7502
12:39:07.876,-11.6563,-45.4377
12:39:07.893,-11.9688,-46.3127
12:39:07.897,-12.4688,-47.6252
12:39:07.907,-13.2188,-48.8127
12:39:07.916,-13.3751,-49.1252
12:39:07.926,-13.8751,-49.6877
12:39:07.944,-13.4063,-47.6252
12:39:07.958,-11.1563,-43.1252
12:39:07.963,-7.2813,-33.4376
12:39:07.970,-0.9063,-19.3126
12:39:07.977,5.2188,-3.5625
12:39:07.989,10.3438,11.125
12:39:07.997,14.8126,23.0626
12:39:08.007,17.6563,32.5001
12:39:08.016,20.0001,39.0626
12:39:08.052,20.8751,43.2502
12:39:08.055,21.4063,44.1877
12:39:08.057,21.3751,44.5002
12:39:08.064,20.5001,43.6252
12:39:08.104,19.6251,43.3127
12:39:08.105,19.5938,41.9377
12:39:08.108,19.3126,40.4377
12:39:08.110,18.1563,40.1252
12:39:08.112,18.2813,38.0001
12:39:08.121,17.6251,37.5626
12:39:08.155,17.4063,36.9376
12:39:08.158,17.0313,35.8751
12:39:08.163,16.8126,36.5001
12:39:08.164,16.0626,35.1251
12:39:08.194,15.4688,34.6251
12:39:08.196,15.1876,33.8126
12:39:08.200,13.8438,30.8126
12:39:08.203,13.2813,28.3751
12:39:08.232,12.0625,25.3751
12:39:08.234,11.0938,23.8126
12:39:08.238,9.8125,21.6251
12:39:08.242,9.0938,19.7501
12:39:08.251,8.7188,17.4376
12:39:08.267,8,16.5626
12:39:08.274,7.4375,15.1876
12:39:08.281,7.0938,14.6876
12:39:08.291,7.1563,13.0625
12:39:08.303,6.8125,13.1876
12:39:08.311,7.1563,11.75
12:39:08.322,6.375,11.3125
12:39:08.332,6.5313,10.8125
12:39:08.343,5.5625,9.5625
12:39:08.353,5.0313,9.0625
12:39:08.363,5,6.75
12:39:08.372,4.0938,5.75
12:39:08.382,3.6563,4.5625
12:39:08.392,3.5938,2.125
12:39:08.405,2.5625,1.4375
12:39:08.412,1.8438,-1.125
12:39:08.423,1.0625,-2.5
12:39:08.433,0.375,-5
12:39:08.441,-0.5313,-6.125
12:39:08.451,-0.9063,-8
12:39:08.463,-1.9688,-9.9375
12:39:08.472,-3.0313,-11.75
12:39:08.484,-3.625,-14.1876
12:39:08.492,-5.3438,-15.1251
12:39:08.522,-5.6563,-17.5001
12:39:08.524,-6.9063,-18.1251
12:39:08.526,-7.4688,-20.5626
12:39:08.534,-9.0313,-21.0001
12:39:08.543,-9.0938,-24.0001
12:39:08.552,-10.4063,-24.6251
12:39:08.562,-10.4375,-25.0626
12:39:08.573,-10.9688,-27.3751
12:39:08.582,-11.5313,-27.6251
12:39:08.592,-12.0313,-30.1251
12:39:08.601,-12.4063,-30.3751
12:39:08.613,-13.4688,-31.5626
12:39:08.623,-14.3438,-32.1876
12:39:08.631,-15.0313,-33.6251
12:39:08.646,-16.1251,-34.8126
12:39:08.653,-16.3126,-35.8751
12:39:08.662,-16.3126,-36.1251
12:39:08.672,-16.2501,-37.2501
12:39:08.682,-16.5313,-38.7501
12:39:08.692,-17.1563,-39.3752
12:39:08.702,-17.4688,-40.0002
12:39:08.711,-17.0938,-41.1877
12:39:08.727,-17.2813,-42.3127
12:39:08.733,-18.0001,-42.7502
12:39:08.762,-17.6563,-44.5627
12:39:08.766,-18.6876,-45.1877
12:39:08.767,-18.7188,-46.3127
12:39:08.772,-19.4688,-46.0002
12:39:08.800,-19.5313,-47.3127
12:39:08.803,-20.3126,-48.6252
12:39:08.806,-20.9688,-49.0002
12:39:08.834,-20.5001,-50.8127
12:39:08.836,-20.3438,-50.2502
12:39:08.839,-21.2501,-52.4377
12:39:08.844,-21.8438,-52.1252
12:39:08.876,-21.4063,-52.1877
12:39:08.904,-19.7501,-47.6877
12:39:08.919,-14.7501,-37.8751
12:39:08.923,-9.4688,-23.6876
12:39:08.923,-2.8125,-7.625
12:39:08.923,2.7188,7
12:39:08.936,8.3438,21.1876
12:39:08.939,11.9688,30.7501
12:39:08.940,14.5313,38.0001
12:39:08.944,15.3126,40.9377
12:39:08.953,16.1563,43.1252
12:39:08.962,16.4376,43.5002
12:39:08.972,15.5626,43.0002
12:39:08.982,15.0001,41.2502
12:39:08.993,14.2501,39.3127
12:39:09.001,12.6875,38.4376
12:39:09.013,12.9063,36.6876
12:39:09.021,13,35.0626
12:39:09.031,12.7188,34.2501
12:39:09.045,12.5,33.8751
12:39:09.052,12.7813,33.0626
12:39:09.067,13.0625,31.8126
12:39:09.077,12.4688,30.6251
12:39:09.086,12.5938,30.3751
12:39:09.096,11.5313,28.3751
12:39:09.108,10.6875,26.7501
12:39:09.117,10.3125,25.6876
12:39:09.127,9.875,22.4376
12:39:09.140,8.8125,19.6251
12:39:09.147,7.5625,16.8126
12:39:09.160,6.75,13.9376
12:39:09.168,7,11.8125
12:39:09.177,6.5938,10.125
12:39:09.189,5.9688,9.25
12:39:09.197,5.4375,8.625
12:39:09.208,5.4688,6.5625
12:39:09.218,5.5313,6.5
12:39:09.226,5.4375,6.75
12:39:09.247,5.3125,4.9375
12:39:09.252,5.25,3.75
12:39:09.267,5.25,2.3125
12:39:09.270,4.8125,1.875
12:39:09.284,4.75,1.125
12:39:09.288,4.3125,-0.6875
12:39:09.296,2.8438,-2.5625
12:39:09.308,2.1563,-2.75
12:39:09.317,1.2188,-5.1875
12:39:09.327,0,-6.8125
12:39:09.337,-1.2813,-9.1875
12:39:09.346,-2.625,-10.375
12:39:09.358,-2.5938,-11.3125
12:39:09.366,-3.5938,-13.6876
12:39:09.377,-4.1875,-15.2501
12:39:09.388,-4.5,-16.6876
12:39:09.397,-5.3125,-19.2501
12:39:09.407,-6.4063,-21.2501
12:39:09.417,-6.375,-23.0626
12:39:09.429,-7,-24.6251
12:39:09.437,-7.625,-24.9376
12:39:09.447,-8.4063,-26.5001
12:39:09.458,-8.0938,-28.5001
12:39:09.470,-8.25,-28.3751
12:39:09.477,-8.8438,-30.5626
12:39:09.487,-9.0625,-32.4376
12:39:09.498,-9.7813,-33.5626
12:39:09.508,-10.1563,-34.6251
12:39:09.540,-11.4063,-35.5001
12:39:09.543,-11.1875,-36.7501
12:39:09.545,-11.9063,-37.6876
12:39:09.570,-12.1875,-39.3126
12:39:09.571,-12.8125,-39.8127
12:39:09.573,-12.6563,-41.1252
12:39:09.579,-13.4376,-42.1877
12:39:09.607,-13.7188,-42.1252
12:39:09.610,-13.2188,-44.4377
12:39:09.612,-12.5313,-43.4377
12:39:09.639,-10.75,-44.9377
12:39:09.640,-9.4688,-45.9377
12:39:09.643,-8.2813,-45.8752
12:39:09.649,-6.875,-47.6252
12:39:09.673,-6.0625,-47.2502
12:39:09.675,-5.1563,-49.0627
12:39:09.678,-4.75,-49.3752
12:39:09.701,-3.9375,-51.1252
12:39:09.703,-4.5938,-51.5627
12:39:09.708,-4.5625,-52.9377
12:39:09.720,-5.1563,-55.3127
12:39:09.727,-6.1563,-56.1252
12:39:09.736,-6.375,-58.8752
12:39:09.748,-8.1563,-59.2502
12:39:09.757,-8.9063,-59.9377
12:39:09.772,-9,-59.5627
12:39:09.778,-7.0625,-54.0627
12:39:09.806,-3.375,-42.8752
12:39:09.809,1.7813,-26.5626
12:39:09.812,7.875,-9.1875
12:39:09.818,12.9688,7.0625
12:39:09.826,17.3751,22.0001
12:39:09.836,20.7813,32.5001
12:39:09.846,22.6251,40.5627
12:39:09.856,23.1251,43.2502
12:39:09.867,23.4688,46.0002
12:39:09.877,22.4376,47.1877
12:39:09.887,22.2188,45.2502
12:39:09.897,21.8126,43.6877
12:39:09.910,19.7813,42.0002
12:39:09.916,19.5626,40.2502
12:39:09.928,18.0626,38.2501
12:39:09.938,17.0938,36.4376
12:39:09.946,16.8126,35.9376
12:39:09.956,15.9376,36.0626
12:39:09.970,15.0313,34.8126
12:39:09.977,14.4063,34.6251
12:39:09.986,14.2501,34.1251
12:39:09.997,13.8751,33.0626
12:39:10.008,12.9375,31.5626
12:39:10.017,12.5313,30.2501
12:39:10.028,10.5938,27.8126
12:39:10.037,9.7188,24.7501
12:39:10.046,8.2813,22.8751
12:39:10.057,7.5625,20.8751
12:39:10.067,6.1563,18.5626
12:39:10.077,5.4375,15.9376
12:39:10.088,4.9063,14.8751
12:39:10.098,3.9375,15.1251
12:39:10.106,4.3438,13.8126
12:39:10.118,3.8438,13.4376
12:39:10.126,3.5313,13.2501
12:39:10.136,3.9688,13.2501
12:39:10.151,3.8125,12
12:39:10.157,3.2188,11.125
12:39:10.166,2.9375,11.0625
12:39:10.176,3.1563,9.625
12:39:10.188,3.1875,7.8125
12:39:10.198,2.1563,6.8125
12:39:10.213,1.8438,5.6875
12:39:10.219,0.8125,3.375
12:39:10.230,-0.3438,2.875
12:39:10.244,-0.625,-0.25
12:39:10.260,-1.5313,-1.75
12:39:10.261,-1.8125,-2.75
12:39:10.267,-2.2813,-4.75
12:39:10.305,-2.9688,-6.75
12:39:10.308,-3.75,-8.3125
12:39:10.310,-3.7188,-10.4375
12:39:10.310,-5,-12.0625
12:39:10.341,-5.1563,-12.6875
12:39:10.343,-5.6563,-14.3751
12:39:10.346,-5.75,-16.1251
12:39:10.352,-6.375,-17.7501
12:39:10.357,-7.125,-18.1251
12:39:10.385,-7.375,-19.7501
12:39:10.387,-7.25,-21.5626
12:39:10.390,-7.5,-23.3751
12:39:10.421,-7.7188,-23.3126
12:39:10.425,-7,-24.7501
12:39:10.427,-5.8125,-24.9376
12:39:10.427,-6.7188,-26.6876
12:39:10.447,-6.75,-27.8751
12:39:10.448,-8.2188,-29.6876
12:39:10.456,-8.0938,-30.3751
12:39:10.468,-8.3125,-31.1876
12:39:10.477,-8.5938,-31.6251
12:39:10.487,-9.2813,-33.4376
12:39:10.497,-9.6875,-34.5001
12:39:10.510,-9.1875,-34.6876
12:39:10.517,-9.2813,-35.8126
12:39:10.526,-10,-37.0001
12:39:10.539,-9.4688,-38.5626
12:39:10.554,-10.2188,-39.5002
12:39:10.568,-11.0625,-40.5002
12:39:10.571,-11.25,-41.6877
12:39:10.582,-12.1875,-43.3752
12:39:10.587,-13.1876,-43.8127
12:39:10.597,-13.5001,-45.1252
12:39:10.606,-13.1876,-44.1877
12:39:10.617,-11.5313,-41.9377
12:39:10.626,-8.1563,-32.8751
12:39:10.638,-1.9375,-20.9376
12:39:10.646,3.5625,-4.9375
12:39:10.657,10,9.5625
12:39:10.667,15.5001,23.1876
12:39:10.677,18.8126,34.4376
12:39:10.687,21.8438,40.2502
12:39:10.697,22.6251,44.7502
12:39:10.706,23.4688,46.9377
12:39:10.717,23.5938,47.0627
12:39:10.726,22.8751,45.9377
12:39:10.739,22.2188,44.4377
12:39:10.747,20.8438,42.5002
12:39:10.757,20.2813,40.3752
12:39:10.768,19.8438,39.4377
12:39:10.777,18.9688,37.0626
12:39:10.787,18.5313,37.3126
12:39:10.797,17.9063,35.1251
12:39:10.808,17.3751,35.6876
12:39:10.817,17.4063,34.3751
12:39:10.829,16.9376,34.6251
12:39:10.836,17.0938,33.1251
12:39:10.847,15.7501,30.5001
12:39:10.857,15.1563,30.2501
12:39:10.867,14.3751,27.1876
12:39:10.878,13.5626,24.3751
12:39:10.887,12.5313,22.2501
12:39:10.903,11.7188,19.3751
12:39:10.908,10.8125,17.1876
12:39:10.918,10.3438,16.8126
12:39:10.951,10.875,15.0001
12:39:10.953,9.3125,13.6876
12:39:10.956,8.9688,13.6876
12:39:10.958,9.625,13
12:39:10.991,9.1563,11.75
12:39:10.992,9.1563,11.25
12:39:10.995,9,11.0625
12:39:10.998,9.0313,9.3125
12:39:11.029,8.4375,8.5625
12:39:11.032,7.9688,8.5
12:39:11.034,7.7813,6.5625
12:39:11.039,7.0313,5.25
12:39:11.072,6.0313,5.0625
12:39:11.074,5.6563,3
12:39:11.076,5.2188,0.375
12:39:11.101,4.1563,-0.625
12:39:11.102,3.8125,-3.125
12:39:11.105,3,-5.8125
12:39:11.109,1.8438,-8.1875
12:39:11.118,1.4375,-9.1875
12:39:11.126,0.8438,-11.3125
12:39:11.138,0.4688,-13.1876
12:39:11.147,-0.6875,-14.6251
12:39:11.157,-1.125,-15.5626
12:39:11.168,-1.375,-17.8126
12:39:11.176,-2.1875,-19.2501
12:39:11.187,-2.9063,-19.1251
12:39:11.197,-3.4063,-21.6251
12:39:11.208,-3.9688,-23.0626
12:39:11.218,-4.7188,-23.4376
12:39:11.229,-5,-24.5001
12:39:11.236,-5.4375,-26.0001
12:39:11.247,-6.4375,-27.6876
12:39:11.257,-6.625,-27.8751
12:39:11.266,-6.7813,-28.9376
12:39:11.281,-7.5313,-29.3751
12:39:11.286,-7.25,-30.6251
12:39:11.301,-8.4063,-32.5001
12:39:11.307,-8.9063,-31.7501
12:39:11.316,-9.25,-32.8126
12:39:11.331,-9.6875,-33.7501
12:39:11.337,-9.5625,-34.8126
12:39:11.348,-9.7813,-35.6251
12:39:11.359,-10.5313,-36.5001
12:39:11.367,-10.0938,-37.0001
12:39:11.377,-11.2188,-38.1876
12:39:11.390,-11.5313,-38.1251
12:39:11.397,-11.3438,-40.1877
12:39:11.407,-12.2188,-41.0002
12:39:11.417,-12.9063,-42.1877
12:39:11.427,-13.125,-43.6252
12:39:11.438,-13.5001,-43.9377
12:39:11.448,-13.5938,-44.9377
12:39:11.457,-13.5938,-44.1252
12:39:11.467,-10.625,-40.2502
12:39:11.479,-7.4688,-32.2501
12:39:11.487,-1.0625,-18.1251
12:39:11.497,4.5,-2.5625
12:39:11.510,10.375,13.125
12:39:11.518,15.3126,26.3126
12:39:11.535,19.9688,36.5626
12:39:11.539,21.8126,44.8127
12:39:11.553,23.6876,48.0627
12:39:11.568,25.0313,51.1252
12:39:11.572,23.9063,51.5002
12:39:11.580,23.6563,51.1877
12:39:11.587,23.4688,50.1877
12:39:11.596,22.5938,48.5627
12:39:11.607,22.5938,47.1252
12:39:11.617,20.9063,47.1252
12:39:11.628,20.6563,45.3127
12:39:11.637,21.1876,44.9377
12:39:11.648,20.7188,44.9377
12:39:11.656,20.2813,43.5627
12:39:11.668,20.0313,43.9377
12:39:11.691,20.4688,43.6877
12:39:11.693,20.4376,43.0627
12:39:11.697,19.6563,41.6877
12:39:11.729,18.6876,40.2502
12:39:11.731,17.3751,37.2501
12:39:11.733,16.9376,35.3126
12:39:11.737,16.2813,33.3126
12:39:11.767,14.7813,31.3751
12:39:11.770,13.9376,29.0626
12:39:11.771,12.8438,27.0001
12:39:11.777,12.9063,24.9376
12:39:11.803,12.25,23.7501
12:39:11.806,11.0938,22.4376
12:39:11.808,11.0313,21.6876
12:39:11.840,10.6875,20.7501
12:39:11.841,11.0625,20.4376
12:39:11.857,10.0625,19.3126
12:39:11.863,10.2188,18.5001
12:39:11.865,9.8438,17.3751
12:39:11.878,9.5,16.5626
12:39:11.881,8.5938,16.4376
12:39:11.896,8.125,14.4376
12:39:11.898,7.9063,12.25
12:39:11.907,7.6875,11.4375
12:39:11.917,6.9063,8.5
12:39:11.927,6.125,7.3125
12:39:11.937,4.75,5.4375
12:39:11.946,4.9688,3.5625
12:39:11.957,4.25,2.75
12:39:11.969,3.1875,0.5
12:39:11.978,2.25,-1.25
12:39:11.987,1.9375,-3.375
12:39:11.998,0.875,-3.9375
12:39:12.006,0.3125,-6.125
12:39:12.017,-0.3125,-8.1875
12:39:12.031,-1.3438,-10.1875
12:39:12.037,-1.7188,-11.4375
12:39:12.047,-2.0938,-12.75
12:39:12.059,-2.6875,-13.8751
12:39:12.066,-2.6563,-16.3126
12:39:12.077,-3.1563,-16.5001
12:39:12.090,-3.25,-18.2501
12:39:12.099,-4.5938,-19.1876
12:39:12.107,-5.2188,-19.9376
12:39:12.120,-5.6875,-21.7501
12:39:12.127,-5.9375,-22.0001
12:39:12.136,-6.5938,-23.9376
12:39:12.149,-7.125,-24.0626
12:39:12.156,-7.0313,-25.7501
12:39:12.167,-7.3125,-25.9376
12:39:12.176,-7.875,-27.7501
12:39:12.186,-8.625,-28.9376
12:39:12.197,-8.5,-28.5001
12:39:12.210,-8.4375,-31.0001
12:39:12.218,-8.625,-32.0626
12:39:12.227,-8.6875,-32.5001
12:39:12.240,-9.1875,-34.4376
12:39:12.248,-9.2813,-35.3751
12:39:12.257,-9.4688,-36.3126
12:39:12.268,-8.8125,-37.5626
12:39:12.277,-9.625,-37.7501
12:39:12.288,-9.7813,-39.8127
12:39:12.296,-10.4688,-41.6877
12:39:12.307,-10.875,-42.3752
12:39:12.318,-10.2813,-43.8127
12:39:12.328,-11.9375,-44.8752
12:39:12.337,-11.5313,-44.6252
12:39:12.364,-10.1563,-41.1877
12:39:12.366,-6.625,-34.6876
12:39:12.371,-1.125,-21.3751
12:39:12.377,4.25,-7.125
12:39:12.388,10.125,8.9375
12:39:12.397,14.2813,23.4376
12:39:12.408,18.4376,33.6251
12:39:12.418,21.9376,41.8127
12:39:12.428,22.0938,46.4377
12:39:12.441,23.1876,49.0627
12:39:12.472,22.8751,49.5627
12:39:12.472,22.1876,49.0002
12:39:12.475,21.4376,49.4377
12:39:12.477,20.8126,47.1252
12:39:12.513,19.9376,47.1252
12:39:12.517,19.1876,46.1252
12:39:12.519,18.7188,46.0002
12:39:12.522,18.1251,44.5627
12:39:12.526,17.4063,44.3752
12:39:12.557,16.2813,44.7502
12:39:12.560,15.9376,43.8752
12:39:12.562,15.7188,44.6252
12:39:12.567,15.9688,42.8127
12:39:12.595,14.6563,41.5002
12:39:12.597,13.5626,41.3127
12:39:12.600,12.7188,37.8126
12:39:12.615,12.0625,36.1876
12:39:12.619,11.25,32.4376
12:39:12.628,10.2188,30.3126
12:39:12.638,9.0313,28.5626
12:39:12.649,9.0625,25.6876
12:39:12.657,8.375,24.0001
12:39:12.668,8.5,21.5001
12:39:12.676,7.25,20.8751
12:39:12.687,8.0625,20.5001
12:39:12.698,7.1875,20.0001
12:39:12.706,6.6563,19.5001
12:39:12.717,6.5313,17.4376
12:39:12.727,6.3125,17.6876
12:39:12.738,6.4688,16.1876
12:39:12.747,6.25,15.7501
12:39:12.758,6.0938,14.0626
12:39:12.767,5.2813,12.375
12:39:12.781,5.3438,11.25
12:39:12.788,3.8438,9.0625
12:39:12.803,3.6875,7.6875
12:39:12.813,2.8438,5.1875
12:39:12.822,2.9688,3.375
12:39:12.835,1.5625,2
12:39:12.845,1.4375,-0.375
12:39:12.861,0.0625,-2.8125
12:39:12.864,-0.3125,-5.125
12:39:12.878,-0.75,-6.1875
12:39:12.894,-1.4063,-8.8125
12:39:12.899,-2.2188,-9.3125
12:39:12.905,-3.125,-12.1875
12:39:12.915,-3.8438,-13
12:39:12.922,-4.5,-15.1876
12:39:12.932,-5.2813,-15.6876
12:39:12.945,-6,-17.6251
12:39:12.953,-6.625,-17.9376
12:39:12.962,-7.4688,-19.6876
12:39:12.973,-7.0938,-22.0001
12:39:12.983,-8.25,-21.4376
12:39:12.993,-8.9375,-23.6251
12:39:13.002,-9.1563,-24.8126
12:39:13.011,-9.5625,-25.8126
12:39:13.025,-10.3125,-26.8126
12:39:13.033,-10.8125,-27.8751
12:39:13.044,-11.6875,-27.0626
12:39:13.052,-12.0313,-30.0626
12:39:13.062,-12.25,-30.1251
12:39:13.077,-12.5938,-31.0626
12:39:13.087,-13.0625,-32.5626
12:39:13.096,-13.7501,-33.1876
12:39:13.108,-14.3126,-34.3751
12:39:13.118,-14.0001,-34.9376
12:39:13.128,-14.6876,-35.1251
12:39:13.140,-14.5938,-36.5001
12:39:13.148,-15.5626,-36.4376
12:39:13.165,-16.5938,-38.0626
12:39:13.172,-17.6251,-40.0627
12:39:13.182,-18.5938,-40.5002
12:39:13.189,-20.3751,-42.3127
12:39:13.221,-20.7188,-42.9377
12:39:13.224,-22.3126,-43.6877
12:39:13.226,-22.2813,-44.9377
12:39:13.259,-22.1876,-44.5002
12:39:13.260,-20.0626,-38.3126
12:39:13.262,-15.7501,-27.4376
12:39:13.269,-10.125,-13.3126
12:39:13.270,-5.3125,1.8125
12:39:13.277,0,16.1876
12:39:13.303,2.4688,27.7501
12:39:13.306,3.4063,35.8751
12:39:13.308,2.1563,40.5002
12:39:13.343,-1.3438,42.0002
12:39:13.345,-6.625,40.6252
12:39:13.349,-13.1563,37.0001
12:39:13.350,-21.5313,33.0001
12:39:13.356,-31.9689,26.0001
12:39:13.372,-44.7502,19.1251
12:39:13.377,-56.3752,12.6875
12:39:13.387,-69.719,5.875
12:39:13.397,-80.8753,-0.375
12:39:13.407,-92.0941,-7.5625
12:39:13.418,-101.5316,-13
12:39:13.428,-112.6879,-18.8126
12:39:13.437,-122.8442,-26.0626
12:39:13.448,-132.4693,-32.9376
12:39:13.457,-142.2818,-40.3752
12:39:13.467,-150.3756,-50.2502
12:39:13.477,-150.5943,-53.9377
12:39:13.487,-147.6568,-54.5627
12:39:13.499,-146.813,-57.1252
12:39:13.506,-144.0318,-57.5002
12:39:13.517,-143.7818,-59.2502
12:39:13.531,-139.9693,-59.3127
12:39:13.537,-132.7818,-55.5627
12:39:13.548,-125.3442,-52.2502
12:39:13.557,-118.188,-48.2502
12:39:13.567,-113.6567,-45.1252
12:39:13.579,-109.9379,-44.3752
12:39:13.587,-106.8442,-44.1252
12:39:13.598,-104.6254,-42.4377
12:39:13.606,-102.3754,-43.0002
12:39:13.617,-100.7816,-42.5002
12:39:13.642,-99.9066,-43.1877
12:39:13.647,-99.8129,-43.5627
12:39:13.648,-100.0629,-44.1252
12:39:13.658,-98.6254,-45.6252
12:39:13.667,-95.8441,-44.3127
12:39:13.679,-92.1254,-43.3127
12:39:13.687,-87.0316,-41.0627
12:39:13.697,-82.1878,-39.0002
12:39:13.706,-77.4065,-38.0001
12:39:13.717,-74.4065,-37.3751
12:39:13.728,-72.8128,-39.4377
12:39:13.738,-71.594,-40.5627
12:39:13.747,-73.0628,-42.6877
12:39:13.760,-72.344,-44.5002
12:39:13.768,-70.3753,-45.3752
12:39:13.778,-67.0003,-45.1252
12:39:13.788,-59.844,-40.8752
12:39:13.797,-50.3127,-35.7501
12:39:13.807,-51.4689,-35.6876
12:39:13.818,-68.1878,-45.6252
12:39:13.827,-97.9066,-65.7503
12:39:13.836,-127.7817,-85.6878
12:39:13.848,-148.8443,-99.4379
12:39:13.877,-159.1256,-104.6879
12:39:13.880,-170.3131,-109.3754
12:39:13.882,-178.1882,-113.6254
12:39:13.888,-191.8445,-121.563
12:39:13.917,-207.657,-130.8755
12:39:13.920,-215.3758,-136.563
12:39:13.922,-218.4071,-138.0005
12:39:13.930,-213.1258,-136.3755
12:39:13.959,-208.3133,-132.7505
12:39:13.961,-209.0945,-132.2505
12:39:13.964,-204.8133,-132.0005
12:39:13.969,-203.5945,-131.5005
12:39:14.000,-204.282,-132.8755
12:39:14.002,-193.0632,-128.7505
12:39:14.005,-157.0006,-108.1254
12:39:14.030,-84.6253,-61.9377
12:39:14.031,-19.6876,-19.3751
12:39:14.033,11.0625,-0.8125
12:39:14.037,21.2813,0.875
12:39:14.047,30.4689,1.375
12:39:14.057,39.6877,4.25
12:39:14.068,50.2502,6.6875
12:39:14.077,59.6565,10.3125
12:39:14.087,66.2815,12.875
12:39:14.097,63.6877,15.4376
12:39:14.107,43.4689,11.1875
12:39:14.120,-8.0938,-7
12:39:14.128,-92.2191,-49.8127
12:39:14.139,-155.8131,-81.5628
12:39:14.148,-176.4069,-83.7503
12:39:14.157,-189.282,-83.3753
12:39:14.170,-177.4069,-68.3753
12:39:14.187,-132.2193,-32.5001
12:39:14.188,-81.6566,10.125
12:39:14.200,-47.0939,40.2502
12:39:14.207,-32.0939,54.0627
12:39:14.222,-32.3751,54.0627
12:39:14.230,-38.5626,50.2502
12:39:14.237,-48.8127,41.5627
12:39:14.246,-63.7502,29.0626
12:39:14.257,-82.8128,15.1251
12:39:14.268,-102.8441,-1.6875
12:39:14.278,-119.7817,-14.6876
12:39:14.287,-135.2193,-26.1876
12:39:14.299,-146.3755,-35.4376
12:39:14.307,-154.5943,-41.1877
12:39:14.317,-163.1881,-47.9377
12:39:14.326,-171.7194,-54.5002
12:39:14.337,-177.7194,-59.6877
12:39:14.348,-174.3757,-58.8752
12:39:14.357,-159.1881,-51.8752
12:39:14.367,-133.1255,-37.1876
12:39:14.377,-96.9066,-16.4376
12:39:14.387,-60.0627,7.25
12:39:14.397,-35.6876,22.1251
12:39:14.406,-25.2188,25.8751
12:39:14.419,-18.0938,28.0626
12:39:14.435,-3.3438,34.8751
12:39:14.438,19.2501,48.5002
12:39:14.448,47.0939,64.5627
12:39:14.467,69.9378,78.8753
12:39:14.472,84.5941,88.6253
12:39:14.488,89.2816,88.8753
12:39:14.489,90.0316,87.2503
12:39:14.500,90.0003,86.0628
12:39:14.508,89.1566,84.0628
12:39:14.521,84.6566,80.5003
12:39:14.526,75.594,74.0628
12:39:14.537,64.1877,64.3127
12:39:14.549,52.844,55.7502
12:39:14.557,45.8439,49.3127
12:39:14.569,41.4064,45.1877
12:39:14.577,33.9064,39.0001
12:39:14.588,23.0626,31.2501
12:39:14.597,9.9375,20.3751
12:39:14.607,-2.0313,12.3125
12:39:14.619,-8.2813,6.25
12:39:14.646,-13,4.0625
12:39:14.652,-31.4689,-7.1875
12:39:14.655,-70.7815,-34.0001
12:39:14.657,-124.0942,-69.1878
12:39:14.687,-165.1569,-95.4379
12:39:14.689,-187.282,-109.7504
12:39:14.691,-197.7508,-114.5629
12:39:14.697,-200.3758,-117.1255
12:39:14.724,-199.907,-115.6254
12:39:14.725,-198.3758,-115.1254
12:39:14.729,-197.3445,-114.5629
12:39:14.763,-200.532,-116.3129
12:39:14.765,-203.282,-119.3755
12:39:14.768,-205.907,-120.688
12:39:14.772,-206.7195,-122.063
12:39:14.777,-204.6883,-120.1255
12:39:14.810,-203.1883,-119.313
12:39:14.812,-200.2508,-118.1255
12:39:14.815,-201.4383,-117.3129
12:39:14.817,-209.6258,-124.5005
12:39:14.832,-210.1883,-127.0005
12:39:14.838,-193.9695,-115.6254
12:39:14.848,-158.3444,-95.0004
12:39:14.857,-119.7192,-69.2503
12:39:14.867,-107.7504,-62.1252
12:39:14.877,-120.0317,-71.4378
12:39:14.888,-142.0318,-86.8128
12:39:14.897,-160.0319,-99.3129
12:39:14.922,-164.7506,-103.4379
12:39:14.925,-161.9069,-99.5629
12:39:14.927,-160.2194,-99.5629
12:39:14.936,-159.5944,-98.6254
12:39:14.947,-156.5006,-96.5629
12:39:14.957,-150.3443,-93.3754
12:39:14.968,-149.9381,-91.1879
12:39:14.978,-155.2506,-94.6879
12:39:14.986,-156.4381,-94.6254
12:39:14.998,-155.0006,-91.2504
12:39:15.006,-149.7193,-84.5628
12:39:15.017,-142.0943,-74.5003
12:39:15.028,-132.7505,-65.0002
12:39:15.036,-119.3755,-51.5002
12:39:15.047,-97.8129,-34.4376
12:39:15.057,-65.7815,-11.125
12:39:15.066,-31.9376,14.0001
12:39:15.079,-2.6563,34.3751
12:39:15.088,31.9689,56.9377
12:39:15.098,56.969,76.0003
12:39:15.107,50.8439,72.3128
