timestamp,Red,IR
13:45:17.014,0.875,3.875
13:45:17.019,6.6875,3.625
13:45:17.062,6.0625,3.6875
13:45:17.065,5.6875,4.1875
13:45:17.068,6.6875,3.25
13:45:17.095,5.5,4
13:45:17.095,6.0625,2.75
13:45:17.096,5.4375,2.75
13:45:17.101,5.5,2.6875
13:45:17.103,5.25,1.5
13:45:17.135,5.0625,2.3125
13:45:17.137,4.6875,1.125
13:45:17.140,5.1875,1.625
13:45:17.142,5,0.4375
13:45:17.171,5.0625,1.9375
13:45:17.171,5.0625,1.1875
13:45:17.174,4.3125,0.9375
13:45:17.180,5.3125,0.6875
13:45:17.190,4.5,0
13:45:17.199,4.625,0.1875
13:45:17.210,4.625,0.5
13:45:17.218,4.375,-0.75
13:45:17.228,4.875,0.375
13:45:17.238,4.6875,-0.6875
13:45:17.247,4.75,0.1875
13:45:17.259,4.5625,-1.25
13:45:17.268,4.4375,-1.25
13:45:17.278,4.625,-1.0625
13:45:17.289,4.625,-1.25
13:45:17.298,5.625,-1.1875
13:45:17.309,4.5625,-1.3125
13:45:17.320,5.3125,-1.75
13:45:17.330,4.5625,-1.625
13:45:17.337,5.125,-2.0625
13:45:17.349,4.625,-2
13:45:17.358,5.1875,-2.5
13:45:17.369,4.3125,-2.6875
13:45:17.377,5,-1.875
13:45:17.426,4.875,-2.3125
13:45:17.426,5.5625,-2
13:45:17.442,5.625,-2.375
13:45:17.447,5.1875,-2.625
13:45:17.447,5.5625,-1.625
13:45:17.454,5.5,-2.1875
13:45:17.454,5.25,-1.625
13:45:17.460,4.8125,-3.3125
13:45:17.468,5.1875,-2.8125
13:45:17.478,4.875,-1.5
13:45:17.489,4.625,-3.0625
13:45:17.498,4.5625,-1.375
13:45:17.508,4.75,-2.9375
13:45:17.518,4.3125,-1.25
13:45:17.528,4.8125,-2.5
13:45:17.538,4.875,-2.3125
13:45:17.549,4.125,-2.3125
13:45:17.558,4.4375,-3.6875
13:45:17.569,3.9375,-2.75
13:45:17.578,4.875,-3.25
13:45:17.589,4.625,-2.6875
13:45:17.597,4.3125,-3
13:45:17.608,4.3125,-2.875
13:45:17.618,4.4375,-3.5625
13:45:17.629,4.375,-2.25
13:45:17.638,4.3125,-3.9375
13:45:17.649,4.4375,-2.3125
13:45:17.658,4.75,-3.125
13:45:17.670,4.1875,-2.25
13:45:17.678,4,-2.875
13:45:17.688,3.9375,-2
13:45:17.699,4.1875,-2.5
13:45:17.740,4.3125,-1.375
13:45:17.741,4.6875,0.25
13:45:17.746,5.5625,0.9375
13:45:17.746,6.4375,2.6875
13:45:17.749,6.25,3
13:45:17.781,6.375,4.5
13:45:17.783,6.625,4.75
13:45:17.785,7,4.5625
13:45:17.808,6.4375,4.0625
13:45:17.810,7.1875,4.0625
13:45:17.812,6.875,3.5625
13:45:17.818,6.125,2.875
13:45:17.859,6,2.6875
13:45:17.862,5.6875,2.125
13:45:17.864,6.25,2.75
13:45:17.879,5.375,1.9375
13:45:17.882,5.4375,1.6875
13:45:17.885,5.3125,1.5
13:45:17.889,5.75,2.5625
13:45:17.898,5.5625,1.0625
13:45:17.908,5.25,0.6875
13:45:17.918,4.5,0.4375
13:45:17.932,5.25,1.25
13:45:17.938,5.1875,0.75
13:45:17.948,5.3125,1.125
13:45:17.957,4.75,-0.5
13:45:17.971,4.6875,0.5625
13:45:17.978,4.625,-0.4375
13:45:17.988,4.375,-0.1875
13:45:17.997,4.25,-0.8125
13:45:18.007,4.0625,0.125
13:45:18.018,4.25,-0.875
13:45:18.029,3.6875,-0.3125
13:45:18.038,4,-1.125
13:45:18.047,4.125,-0.5
13:45:18.058,4.125,-1.375
13:45:18.067,3.5625,-1.1875
13:45:18.078,3.3125,-0.6875
13:45:18.088,4.25,-1.9375
13:45:18.098,3.875,-1.0625
13:45:18.109,3.75,-2
13:45:18.117,3.375,-1.875
13:45:18.129,3.625,-2.125
13:45:18.138,4.5,-2
13:45:18.148,3.9375,-1.875
13:45:18.157,4.3125,-2.375
13:45:18.167,3.4375,-2.3125
13:45:18.179,4.25,-2.125
13:45:18.187,3.625,-2.5625
13:45:18.198,4.125,-2.75
13:45:18.208,3.4375,-2.125
13:45:18.220,3.5,-2.9375
13:45:18.229,3.0625,-2.8125
13:45:18.237,3.1875,-2
13:45:18.249,3.8125,-2.5
13:45:18.257,3.75,-2.4375
13:45:18.269,3.125,-2.5
13:45:18.278,4,-2.1875
13:45:18.289,3.3125,-2.375
13:45:18.297,3.625,-3.5625
13:45:18.307,3.4375,-2.25
13:45:18.317,3.5625,-3.75
13:45:18.328,3.5,-2.75
13:45:18.337,2.9375,-3.125
13:45:18.348,2.8125,-2.875
13:45:18.357,2.9375,-2
13:45:18.368,3.25,-2.875
13:45:18.377,2.9375,-1.6875
13:45:18.388,3.625,-2.875
13:45:18.397,2.9375,-1.875
13:45:18.408,3.4375,-2.6875
13:45:18.417,2.3125,-1.875
13:45:18.428,3.1875,-2.9375
13:45:18.437,2.875,-2.25
13:45:18.447,3,-3.3125
13:45:18.457,3.125,-2.1875
13:45:18.467,3.5625,-2.875
13:45:18.478,2.9375,-1.4375
13:45:18.487,3.75,-2
13:45:18.498,3.375,0.0625
13:45:18.524,4.4375,0.0625
13:45:18.527,4.6875,2.8125
13:45:18.528,5.875,4.125
13:45:18.559,6.25,5.75
13:45:18.562,7.1875,5.8125
13:45:18.563,7.25,6.75
13:45:18.569,6.4375,6.1875
13:45:18.594,7.5625,6.125
13:45:18.596,7.1875,5.75
13:45:18.599,7.1875,5.8125
13:45:18.634,7.5625,5.375
13:45:18.637,7,5.1875
13:45:18.638,6.5625,5.75
13:45:18.645,7.125,5.875
13:45:18.647,7,5.9375
13:45:18.682,6.9375,5.125
13:45:18.685,6.4375,6
13:45:18.688,6.3125,4.875
13:45:18.689,6.5,5.125
13:45:18.705,6.3125,5.25
13:45:18.720,5.625,4.5625
13:45:18.722,6.1875,4.125
13:45:18.737,5.3125,4.375
13:45:18.739,6.0625,4.0625
13:45:18.754,5.5,3.3125
13:45:18.758,4.75,3.5625
13:45:18.767,4.8125,2.625
13:45:18.777,5.1875,2.8125
13:45:18.787,4.8125,2.8125
13:45:18.797,5.5,3.125
13:45:18.808,4.875,2.75
13:45:18.817,4.9375,2.4375
13:45:18.827,4.5625,1.5
13:45:18.837,4.4375,2.5625
13:45:18.847,4.375,1.4375
13:45:18.857,4.0625,0.6875
13:45:18.869,3.6875,1
13:45:18.878,4.0625,-0.5625
13:45:18.887,4,-0.0625
13:45:18.897,4.0625,-0.5
13:45:18.909,4,0.1875
13:45:18.917,3.875,-0.625
13:45:18.927,4.375,-0.5625
13:45:18.937,4.375,-0.9375
13:45:18.947,3.75,-1
13:45:18.957,4.125,-1.25
13:45:18.967,3.125,-2.0625
13:45:18.977,3.3125,-1.125
13:45:18.988,4.125,-2.25
13:45:18.997,3.375,-1.6875
13:45:19.008,3,-2.125
13:45:19.018,3.75,-2.25
13:45:19.028,3.6875,-2.5625
13:45:19.037,3,-2.75
13:45:19.050,3.6875,-1.875
13:45:19.074,3.1875,-3
13:45:19.077,3,-1.9375
13:45:19.080,3.125,-2.125
13:45:19.094,3.5625,-3.0625
13:45:19.098,3.1875,-2.5625
13:45:19.108,3.0625,-2.875
13:45:19.117,3,-2.625
13:45:19.128,3.25,-2.6875
13:45:19.137,3.8125,-3.0625
13:45:19.147,3.375,-2.375
13:45:19.159,3.75,-3.0625
13:45:19.167,3.3125,-2.75
13:45:19.198,3.125,-3.0625
13:45:19.201,3.1875,-2.625
13:45:19.203,3.5625,-3.0625
13:45:19.209,3.1875,-2.1875
13:45:19.242,3.5625,-2.5625
13:45:19.245,3.4375,-3.0625
13:45:19.247,3.375,-3
13:45:19.250,3.25,-2.875
13:45:19.280,3.5625,-2.3125
13:45:19.282,3,-2.6875
13:45:19.284,3.75,-2.375
13:45:19.292,2.6875,-2.75
13:45:19.316,3.3125,-2.25
13:45:19.318,3.25,-2.3125
13:45:19.321,3.5625,-2.0625
13:45:19.349,3.5625,-1.5
13:45:19.350,4.5,0.1875
13:45:19.352,5.375,1.75
13:45:19.359,6.4375,3.5
13:45:19.369,7.1875,5.6875
13:45:19.377,7.75,6.1875
13:45:19.387,7.8125,7.8125
13:45:19.397,7.5625,6.375
13:45:19.409,7.9375,7
13:45:19.418,7.8125,6.6875
13:45:19.428,7.9375,6.8125
13:45:19.437,7.8125,6.125
13:45:19.448,7.5,6.25
13:45:19.457,7.8125,5.6875
13:45:19.474,7.8125,6.3125
13:45:19.479,7.5,6.0625
13:45:19.487,7.375,6.3125
13:45:19.497,7.625,5.75
13:45:19.507,7.6875,6.25
13:45:19.518,7,4.875
13:45:19.527,7.3125,5.125
13:45:19.538,6.8125,3.875
13:45:19.547,6.75,4.875
13:45:19.557,7,3.75
13:45:19.567,6.5625,3.4375
13:45:19.577,6.1875,3.0625
13:45:19.588,6.3125,3.9375
13:45:19.597,6.0625,2.3125
13:45:19.607,6.1875,3.625
13:45:19.617,6.1875,2.25
13:45:19.627,6.1875,3.9375
13:45:19.637,6,2.3125
13:45:19.648,6.125,2.875
13:45:19.657,5.75,3.625
13:45:19.667,6.125,1.8125
13:45:19.677,5.5,2.0625
13:45:19.687,5.75,1.6875
13:45:19.698,5.3125,1.8125
13:45:19.707,5.6875,0.375
13:45:19.718,4.75,0.625
13:45:19.727,5.375,-0.125
13:45:19.737,4.875,-0.125
13:45:19.748,5.5,-0.1875
13:45:19.758,5,-0.375
13:45:19.767,4.6875,-1.3125
13:45:19.777,4.625,-1.375
13:45:19.788,5,-2.125
13:45:19.797,5.0625,-1.375
13:45:19.809,4.875,-1.5
13:45:19.817,4.25,-1.125
13:45:19.827,4.75,-0.875
13:45:19.837,4.375,-1.8125
13:45:19.849,4.75,-2.875
13:45:19.858,4.125,-0.9375
13:45:19.867,4.125,-2.75
13:45:19.877,5.1875,-2
13:45:19.887,4.375,-2.5
13:45:19.897,5,-2.5
13:45:19.908,4.375,-2.5
13:45:19.917,4.8125,-2.375
13:45:19.927,4.0625,-2.8125
13:45:19.937,4.25,-2.625
13:45:19.947,3.875,-2.375
13:45:19.971,4.1875,-2.375
13:45:19.973,3,-2.75
13:45:20.001,3.5625,-3.25
13:45:20.004,3.375,-1.8125
13:45:20.072,3,-2
13:45:20.072,3.75,-2.9375
13:45:20.073,4.0625,-2.625
13:45:20.081,3.375,-2.375
13:45:20.081,4.375,-2.8125
13:45:20.081,3.5,-2.1875
13:45:20.119,4.0625,-2.6875
13:45:20.120,3.375,-2.875
13:45:20.121,4.3125,-2.8125
13:45:20.124,3.75,-2.75
13:45:20.130,4.3125,-3.3125
13:45:20.138,3.8125,-2.5625
13:45:20.148,4.3125,-2.6875
13:45:20.157,3.875,-1.75
13:45:20.167,4.4375,-1.75
13:45:20.178,4.3125,-2
13:45:20.187,5,-0.1875
13:45:20.197,5.625,2.5
13:45:20.207,6.5,3.25
13:45:20.223,6.375,4.3125
13:45:20.228,7.125,4.8125
13:45:20.237,7.1875,5.1875
13:45:20.247,7.25,6.4375
13:45:20.258,7.5,5.125
13:45:20.267,7,5.9375
13:45:20.277,7.25,4.1875
13:45:20.287,7.3125,4.9375
13:45:20.297,6.625,4.1875
13:45:20.307,7.375,4.5625
13:45:20.317,6.6875,4.1875
13:45:20.327,7.125,4.25
13:45:20.352,6.6875,3.9375
13:45:20.355,6.8125,4.6875
13:45:20.360,6.25,3.625
13:45:20.367,5.9375,3.75
13:45:20.377,6.3125,3.5
13:45:20.387,5.9375,3.25
13:45:20.397,6.5625,3.0625
13:45:20.407,5.6875,3.625
13:45:20.417,6,3.125
13:45:20.429,5.5,2.125
13:45:20.437,5.4375,2.5625
13:45:20.447,5.5625,2.1875
13:45:20.457,5.3125,2.375
13:45:20.467,4.625,2.3125
13:45:20.477,5.4375,2
13:45:20.487,4.875,1
13:45:20.497,5,1.6875
13:45:20.507,4.5,1.8125
13:45:20.517,4.625,2.625
13:45:20.527,5.1875,0.9375
13:45:20.537,4.375,1.1875
13:45:20.547,4.625,0.125
13:45:20.557,4.1875,0.875
13:45:20.567,4.1875,-0.5
13:45:20.577,3.875,0.375
13:45:20.587,4.5,-1.3125
13:45:20.597,4.3125,0
13:45:20.607,4.1875,-1.5
13:45:20.617,3.875,-0.6875
13:45:20.628,3.9375,-2.3125
13:45:20.638,3.5,-1.5625
13:45:20.647,3.75,-2.6875
13:45:20.657,3.6875,-1.3125
13:45:20.669,4,-2.4375
13:45:20.677,3.25,-1.5
13:45:20.698,3.8125,-3.25
13:45:20.701,3.4375,-2.8125
13:45:20.727,3.5625,-2.375
13:45:20.731,3.375,-2.625
13:45:20.733,3.0625,-2.5
13:45:20.740,2.9375,-3.8125
13:45:20.773,2.4375,-2.375
13:45:20.775,2.875,-3.8125
13:45:20.777,2.5,-2.5
13:45:20.779,2.9375,-3.625
13:45:20.812,2.75,-3.5
13:45:20.813,2.4375,-3.625
13:45:20.817,2.25,-3.1875
13:45:20.824,2.25,-3.875
13:45:20.830,2.375,-3.5
13:45:20.858,2,-3.125
13:45:20.862,2.5,-3.1875
13:45:20.865,2.125,-2.0625
13:45:20.867,2.375,-3.25
13:45:20.877,1.75,-2.875
13:45:20.887,2.75,-3.875
13:45:20.898,1.75,-3.125
13:45:20.907,2.3125,-3.375
13:45:20.917,1.375,-2.875
13:45:20.928,1.6875,-3.375
13:45:20.938,1.3125,-3.1875
13:45:20.949,1.75,-3.375
13:45:20.957,1.75,-2.5625
13:45:20.974,2.75,-1.8125
13:45:20.980,3,0.1875
13:45:20.988,4.75,1.5
13:45:20.997,5.25,4.6875
13:45:21.007,6.5,5.5625
13:45:21.017,6.5625,7.5
13:45:21.028,7.125,7.4375
13:45:21.038,7,8.375
13:45:21.047,7.625,7.5625
13:45:21.057,7.125,8.875
13:45:21.068,7.25,7.25
13:45:21.077,7.375,8
13:45:21.088,7.25,7.625
13:45:21.098,8.375,7.375
13:45:21.107,7.5,8.5
13:45:21.118,8.5625,8
13:45:21.127,7.5625,8.4375
13:45:21.137,8,8.5
13:45:21.147,7.5,8.6875
13:45:21.157,8.4375,8.5
13:45:21.167,7.25,7.6875
13:45:21.177,6.6875,7.5
13:45:21.187,7.4375,6.9375
13:45:21.197,6.25,6.6875
13:45:21.207,6.375,6.0625
13:45:21.218,5.5625,6
13:45:21.227,6.25,5.125
13:45:21.238,5.625,5.6875
13:45:21.248,5.8125,4.5
13:45:21.257,5.375,6.125
13:45:21.268,5.625,4.6875
13:45:21.278,4.75,4.9375
13:45:21.296,5,3.5625
13:45:21.302,4.625,4.125
13:45:21.318,5.1875,3.25
13:45:21.320,4.1875,4.375
13:45:21.335,4.375,2.875
13:45:21.337,4.1875,1.9375
13:45:21.353,3.75,2.9375
13:45:21.357,4.25,0.875
13:45:21.368,4.125,1.625
13:45:21.378,4.25,0.8125
13:45:21.387,3.75,0.3125
13:45:21.420,3.875,0
13:45:21.422,3.5625,0.0625
13:45:21.424,3.4375,-0.25
13:45:21.428,3,-0.8125
13:45:21.462,2.9375,-0.1875
13:45:21.464,3.5625,-1.4375
13:45:21.467,2.875,-2.375
13:45:21.471,2.75,-1.375
13:45:21.510,2.8125,-2.5625
13:45:21.512,2.9375,-1.8125
13:45:21.513,3.0625,-2.625
13:45:21.519,2.5,-3.125
13:45:21.523,2.9375,-2.5
13:45:21.534,2.1875,-2.5625
13:45:21.537,2.375,-3
13:45:21.572,2.1875,-3.75
13:45:21.573,1.6875,-2.4375
13:45:21.576,2.25,-3
13:45:21.585,1.6875,-2.75
13:45:21.589,2.375,-3.6875
13:45:21.597,1.625,-2.75
13:45:21.607,1.625,-3.875
13:45:21.633,1.625,-2.5
13:45:21.635,2,-3.9375
13:45:21.637,2.3125,-4.1875
13:45:21.648,1.625,-3.875
13:45:21.658,1.9375,-3.8125
13:45:21.667,1.3125,-4.5625
13:45:21.677,2.125,-3.3125
13:45:21.688,1.9375,-4.125
13:45:21.697,2.875,-3.5625
13:45:21.708,2.1875,-3.6875
13:45:21.717,2.8125,-3.625
13:45:21.727,2.3125,-3.75
13:45:21.738,2.9375,-3.4375
13:45:21.747,2.5625,-3.1875
13:45:21.757,3.25,-4.4375
13:45:21.767,2.75,-4.0625
13:45:21.777,2.9375,-3.5625
13:45:21.787,2.875,-3.9375
13:45:21.797,3.3125,-3.625
13:45:21.809,2.625,-3
13:45:21.817,3.1875,-3.9375
13:45:21.828,2.625,-3.6875
13:45:21.837,3.1875,-3.4375
13:45:21.847,2.375,-3.875
13:45:21.858,2.8125,-3.3125
13:45:21.867,2.625,-3.3125
13:45:21.877,2.9375,-0.9375
13:45:21.887,4.3125,0.375
13:45:21.897,5.3125,4.375
13:45:21.907,6.1875,5.375
13:45:21.917,6.6875,7.875
13:45:21.927,7.4375,7.5625
13:45:21.937,7.1875,9.3125
13:45:21.947,8.0625,8.4375
13:45:21.957,7.375,9.25
13:45:21.967,8,8
13:45:21.977,7.625,8.5625
13:45:21.988,7.9375,7.3125
13:45:21.998,7.75,8.3125
13:45:22.007,8.0625,7.75
13:45:22.018,8.375,8.9375
13:45:22.027,8.875,8.375
13:45:22.038,8.75,9
13:45:22.047,8.3125,8.6875
13:45:22.057,8.375,9.25
13:45:22.068,8.625,7.9375
13:45:22.077,8.125,9.5625
13:45:22.087,8.375,7.8125
13:45:22.097,7.5,8.0625
13:45:22.107,7.9375,6.3125
13:45:22.118,7,7.375
13:45:22.128,7.5625,6.0625
13:45:22.163,6.5,6.8125
13:45:22.164,6.5,5.375
13:45:22.166,6,6
13:45:22.168,6.75,4.8125
13:45:22.203,6.375,5.9375
13:45:22.206,6.4375,4
13:45:22.208,5.5625,4.375
13:45:22.210,6.3125,4.1875
13:45:22.218,5.6875,4.8125
13:45:22.246,6.25,3.625
13:45:22.248,5.6875,3.3125
13:45:22.250,5.75,2.5625
13:45:22.282,5.3125,2.0625
13:45:22.283,5.125,2.125
13:45:22.287,5.625,0.8125
13:45:22.288,5,0.6875
13:45:22.318,5,1.25
13:45:22.321,4.4375,-0.6875
13:45:22.322,4.5,0.75
13:45:22.328,4.6875,-0.8125
13:45:22.337,3.8125,-0.25
13:45:22.348,4.625,-2.1875
13:45:22.357,3.5,-0.8125
13:45:22.367,3.8125,-2.375
13:45:22.377,3.5625,-2
13:45:22.387,3.3125,-2.4375
13:45:22.397,2.875,-1.75
13:45:22.407,4.25,-3.375
13:45:22.417,3.625,-2.0625
13:45:22.428,4.4375,-2.3125
13:45:22.438,3.875,-3.8125
13:45:22.447,4,-2.875
13:45:22.457,3.6875,-3.8125
13:45:22.467,3.8125,-3.25
13:45:22.477,3.9375,-3.1875
13:45:22.487,4.25,-3.8125
13:45:22.497,3.3125,-4.375
13:45:22.507,3.5,-3.8125
13:45:22.517,3.0625,-4.25
13:45:22.527,3.6875,-3
13:45:22.537,3.5,-4.9375
13:45:22.547,3.0625,-3.75
13:45:22.557,3.3125,-4.125
13:45:22.567,3.5625,-4.3125
13:45:22.577,3.375,-5.25
13:45:22.597,3.0625,-4.375
13:45:22.603,2.875,-5.5625
13:45:22.619,2.5625,-4.625
13:45:22.621,2.625,-5.625
13:45:22.636,2.9375,-4.5625
13:45:22.638,2.5,-5.25
13:45:22.653,2.375,-5.1875
13:45:22.656,2.0625,-4
13:45:22.667,3.3125,-4.9375
13:45:22.677,3.25,-4.125
13:45:22.689,2.9375,-4.875
13:45:22.697,3.4375,-5
13:45:22.708,2.5,-4.5
13:45:22.717,3.3125,-4.8125
13:45:22.727,3.375,-4.125
13:45:22.737,2.5,-4.8125
13:45:22.746,2.75,-3.6875
13:45:22.757,3,-3.3125
13:45:22.768,3.75,-2
13:45:22.777,4.6875,0.125
13:45:22.786,5.0625,2.4375
13:45:22.797,6.875,4.75
13:45:22.806,6.75,5.6875
13:45:22.823,7.1875,6.125
13:45:22.827,7.9375,6.25
13:45:22.859,7.5,5.6875
13:45:22.863,7.8125,6.5625
13:45:22.864,7.375,6.4375
13:45:22.867,7.4375,6.0625
13:45:22.904,7.3125,7.1875
13:45:22.905,7.875,6.125
13:45:22.907,7.1875,6.875
13:45:22.921,7.6875,5.5
13:45:22.924,6.8125,7.25
13:45:22.926,7.625,6.0625
13:45:22.953,6.9375,6.4375
13:45:22.955,7.1875,5
13:45:22.957,6.0625,6.25
13:45:22.989,6.5625,4.4375
13:45:22.991,6.25,5.5625
13:45:22.994,7,3.9375
13:45:22.998,5.5625,4.5
13:45:23.012,5.6875,3.8125
13:45:23.017,5.875,3.1875
13:45:23.026,6.125,3.5
13:45:23.037,5.3125,3
13:45:23.046,4.9375,4.5
13:45:23.057,6.125,3.75
13:45:23.067,5.75,2.4375
13:45:23.077,5.6875,3.5625
13:45:23.087,5.5625,3.25
13:45:23.097,5.375,2.25
13:45:23.106,4.75,1.9375
13:45:23.117,5.125,1.25
13:45:23.127,4.5625,1.4375
13:45:23.137,4.75,0.75
13:45:23.147,4.3125,-0.4375
13:45:23.157,3.75,0.3125
13:45:23.167,4.0625,-0.6875
13:45:23.176,4.0625,-0.5625
13:45:23.187,4,-1.5625
13:45:23.196,3.3125,-0.875
13:45:23.207,3.9375,-1.8125
13:45:23.218,2.8125,-1.75
13:45:23.227,3.375,-2.625
13:45:23.237,2.75,-3.1875
13:45:23.247,3.0625,-2.875
13:45:23.256,2.625,-3.625
13:45:23.267,3.25,-3.5625
13:45:23.279,3,-1.9375
13:45:23.288,2.875,-3.9375
13:45:23.297,2.625,-4.125
13:45:23.306,3.0625,-3.0625
13:45:23.317,2.3125,-4.5
13:45:23.326,2.75,-4.5
13:45:23.337,2.6875,-4.5
13:45:23.346,2.25,-4.125
13:45:23.357,2.3125,-5
13:45:23.367,2.125,-4.5
13:45:23.377,1.6875,-5.4375
13:45:23.386,2.0625,-4.4375
13:45:23.397,1.625,-5.5625
13:45:23.406,1.375,-4
13:45:23.417,1.6875,-5.6875
13:45:23.426,1.625,-4.4375
13:45:23.437,1.875,-5.625
13:45:23.446,2.125,-4.75
13:45:23.456,1.8125,-4.75
13:45:23.466,1.9375,-5.4375
13:45:23.476,1.25,-4.5625
13:45:23.487,2.3125,-5.625
13:45:23.496,1.6875,-4.625
13:45:23.508,2.375,-5
13:45:23.516,1.3125,-5.125
13:45:23.528,2.3125,-5.5625
13:45:23.536,1.6875,-4.125
13:45:23.547,2.125,-5.5
13:45:23.557,1.75,-4.375
13:45:23.566,2.1875,-5.25
13:45:23.577,1.4375,-4.0625
13:45:23.587,2.3125,-4.75
13:45:23.597,1.8125,-3.9375
13:45:23.606,2.5625,-1.1875
13:45:23.642,4.375,-0.125
13:45:23.644,4.75,3.1875
13:45:23.646,6.6875,5.625
13:45:23.648,6.1875,7.3125
13:45:23.683,7.5,7.9375
13:45:23.685,7.125,9.0625
13:45:23.687,7.625,8.375
13:45:23.691,7.3125,8.8125
13:45:23.697,7.1875,7.75
13:45:23.727,7.25,8.625
13:45:23.728,7.3125,8.1875
13:45:23.731,8.0625,8.1875
13:45:23.761,7.375,9.5
13:45:23.764,7.5625,8.625
13:45:23.766,7.875,9.625
13:45:23.772,7.5,9.5
13:45:23.776,7.75,9.0625
13:45:23.797,7.3125,9
13:45:23.800,8,8.5625
13:45:23.806,7.1875,7.875
13:45:23.816,7.375,7.25
13:45:23.826,6.875,7.3125
13:45:23.837,7.25,7
13:45:23.846,6.75,6.375
13:45:23.857,6.8125,6.3125
13:45:23.866,6.625,6.3125
13:45:23.876,6.5625,5.9375
13:45:23.886,6.1875,5.75
13:45:23.902,6.375,4.9375
13:45:23.911,5.5,5.3125
13:45:23.916,5.625,5.0625
13:45:23.932,5.375,4.3125
13:45:23.941,5.3125,4.5625
13:45:23.948,4.5625,3.4375
13:45:23.964,5.4375,3.5
13:45:23.982,4.6875,2.9375
13:45:23.982,5.3125,3.125
13:45:23.997,4.625,2.25
13:45:24.000,4.9375,1.9375
13:45:24.018,4.25,1.9375
13:45:24.021,4.1875,1.125
13:45:24.026,3.9375,0.875
13:45:24.036,4.25,0.5625
13:45:24.047,3.875,-0.75
13:45:24.056,3.1875,0.25
13:45:24.066,3,-1.0625
13:45:24.076,3.0625,-1.5
13:45:24.086,3.625,-1.1875
13:45:24.097,2.75,-2.5625
13:45:24.106,3.0625,-1.9375
13:45:24.116,2.5625,-3.125
13:45:24.127,2.9375,-2.25
13:45:24.136,3.25,-3.25
13:45:24.146,2.9375,-3.3125
13:45:24.156,3.375,-2.1875
13:45:24.168,3.3125,-3.5625
13:45:24.199,2.5625,-2.8125
13:45:24.200,3.1875,-3.5
13:45:24.204,2.1875,-3.6875
13:45:24.209,2.125,-4.375
13:45:24.218,1.625,-3.4375
13:45:24.226,2.375,-4.6875
13:45:24.237,1.9375,-4.375
13:45:24.246,2.1875,-5.3125
13:45:24.257,2.25,-4.875
13:45:24.266,1.9375,-4.6875
13:45:24.276,2.5,-4.6875
13:45:24.286,1.8125,-5.0625
13:45:24.296,2.0625,-5.8125
13:45:24.306,1.6875,-5.25
13:45:24.317,1.6875,-5.9375
13:45:24.349,1.5,-5.25
13:45:24.351,2.3125,-5.1875
13:45:24.354,2,-5.9375
13:45:24.356,1.25,-5.5
13:45:24.383,1.25,-5.3125
13:45:24.388,1.5625,-4.4375
13:45:24.390,2.1875,-5.75
13:45:24.397,1.8125,-5
13:45:24.431,1.875,-5.9375
13:45:24.435,1.625,-3.625
13:45:24.436,2.0625,-5.625
13:45:24.443,1.8125,-5.25
13:45:24.453,1.9375,-5.6875
13:45:24.480,1.75,-4.125
13:45:24.485,1.6875,-5.0625
13:45:24.485,1.6875,-3.9375
13:45:24.487,2,-4.4375
13:45:24.496,2.0625,-2.3125
13:45:24.506,4.25,-0.625
13:45:24.516,4.5625,2.3125
13:45:24.526,6.4375,4.75
13:45:24.536,6.375,7.1875
13:45:24.551,7.625,7.125
13:45:24.558,7.375,7.875
13:45:24.566,7.3125,8.1875
13:45:24.576,6.6875,8.3125
13:45:24.586,7,7.25
13:45:24.596,6.9375,8
13:45:24.606,7.1875,7.125
13:45:24.616,7.125,7.875
13:45:24.626,7.125,7.1875
13:45:24.636,7.3125,8.75
13:45:24.646,7.375,8.4375
13:45:24.657,7.5,7.4375
13:45:24.666,7.9375,8.75
13:45:24.676,7.5,7.9375
13:45:24.688,7.8125,8.375
13:45:24.697,7.0625,7.3125
13:45:24.706,7.1875,7.8125
13:45:24.716,7.1875,6.25
13:45:24.726,6.8125,6.5625
13:45:24.738,7.1875,5.875
13:45:24.747,6.5,5.75
13:45:24.756,7,5.6875
13:45:24.766,5.75,5.1875
13:45:24.776,7,4.875
13:45:24.786,6.125,4.8125
13:45:24.796,6.375,5
13:45:24.809,6.1875,4.625
13:45:24.816,5.75,5.5
13:45:24.825,5.75,4.0625
13:45:24.836,5.1875,4.625
13:45:24.846,5.6875,2.875
13:45:24.856,4.9375,4.625
13:45:24.866,4.875,2.5625
13:45:24.876,4.5,1.3125
13:45:24.886,4.4375,2.25
13:45:24.896,4.25,0.8125
13:45:24.906,4.125,0.8125
13:45:24.916,4.125,-0.1875
13:45:24.926,4.375,0.5
13:45:24.936,3.6875,-0.875
13:45:24.946,4,-0.3125
13:45:24.956,3.5,-1.5
13:45:24.966,3.5625,-1.375
13:45:24.976,4.0625,-1.8125
13:45:24.986,3.1875,-2
13:45:24.996,3.4375,-2.3125
13:45:25.006,2.8125,-2.5
13:45:25.016,3.0625,-3.25
13:45:25.026,2.75,-3.1875
13:45:25.050,3.25,-3.625
13:45:25.054,2.1875,-3.625
13:45:25.060,3.1875,-3.3125
13:45:25.089,2.125,-4.125
13:45:25.092,2.4375,-4.3125
13:45:25.094,2.1875,-4.25
13:45:25.096,2.75,-4.3125
13:45:25.128,2.0625,-4.8125
13:45:25.130,2.3125,-4.9375
13:45:25.132,2.1875,-4.625
13:45:25.138,2.375,-4.875
13:45:25.171,2.375,-4.8125
13:45:25.173,1.875,-6.1875
13:45:25.176,1.8125,-5.375
13:45:25.204,1.625,-5.75
13:45:25.219,2.125,-5
13:45:25.234,1.9375,-5.6875
13:45:25.236,2.25,-4.25
13:45:25.250,1.9375,-5.625
13:45:25.251,1.875,-4.8125
13:45:25.266,2.4375,-5
13:45:25.268,1.9375,-5.75
13:45:25.274,2.0625,-5.1875
13:45:25.274,2,-5.4375
13:45:25.287,1.6875,-5.75
13:45:25.289,1.75,-5.3125
13:45:25.302,1.6875,-6.1875
13:45:25.306,1.375,-5.9375
13:45:25.321,2.125,-5.5625
13:45:25.330,1.75,-5.6875
13:45:25.336,2.75,-5.1875
13:45:25.346,1.6875,-4.8125
13:45:25.356,2.0625,-4.625
13:45:25.366,2.125,-5.3125
13:45:25.376,2.3125,-3.4375
13:45:25.386,3.4375,-1.8125
13:45:25.396,4.3125,-0.3125
13:45:25.406,5.4375,3.25
13:45:25.416,6.875,5.25
13:45:25.426,7.375,6.5
13:45:25.436,7.8125,8
13:45:25.446,7.5,7.5625
13:45:25.472,7.125,7.8125
13:45:25.475,7.375,7.125
13:45:25.477,6.9375,7.8125
13:45:25.486,6.9375,6.5
13:45:25.496,6.875,7
13:45:25.506,7,7.125
13:45:25.516,7.1875,7
13:45:25.526,6.875,7.0625
13:45:25.536,7.4375,7.1875
13:45:25.546,7.1875,7.375
13:45:25.556,6.875,6.625
13:45:25.567,7,7.3125
13:45:25.576,6.75,6.0625
13:45:25.586,6.5,6
13:45:25.596,6.625,5.0625
13:45:25.607,6.375,5.375
13:45:25.616,6.625,5.0625
13:45:25.626,5.4375,4.375
13:45:25.636,5.375,4.875
13:45:25.646,6.375,4.0625
13:45:25.656,5.875,5.125
13:45:25.666,5.8125,3.0625
13:45:25.682,5.1875,4.6875
13:45:25.686,5.6875,2.875
13:45:25.696,5.4375,4.5625
13:45:25.706,5.6875,3.0625
13:45:25.716,4.875,3.0625
13:45:25.740,5.1875,2.375
13:45:25.742,4.9375,3.25
13:45:25.774,4.9375,1.3125
13:45:25.776,4.3125,1.9375
13:45:25.778,4.5,-0.5
13:45:25.781,3.625,0.8125
13:45:25.787,4.5625,-0.625
13:45:25.821,3.75,0.25
13:45:25.821,4.25,-0.875
13:45:25.854,4,-1.625
13:45:25.855,3.4375,-1.875
13:45:25.856,3.5,-2.1875
13:45:25.858,3.25,-2
13:45:25.866,2.75,-2.125
13:45:25.868,3.0625,-3.25
13:45:25.903,2.0625,-2.625
13:45:25.905,3.3125,-4.0625
13:45:25.909,2.375,-2.75
13:45:25.911,2.75,-3.625
13:45:25.918,2.375,-4.9375
13:45:25.927,2.3125,-3.4375
13:45:25.936,2.3125,-4.6875
13:45:25.946,2.125,-3.8125
13:45:25.956,2.3125,-5.125
13:45:25.966,2.125,-4.5
13:45:25.976,2.4375,-4.875
13:45:25.986,2.3125,-5.3125
13:45:25.996,2.1875,-5.875
13:45:26.006,2.25,-5.0625
13:45:26.016,2,-5.75
13:45:26.026,1.75,-5.375
13:45:26.036,1.6875,-6.25
13:45:26.046,1.6875,-4.9375
13:45:26.061,1.875,-6.0625
13:45:26.067,1.5,-5.6875
13:45:26.076,2.0625,-5.75
13:45:26.086,1.6875,-5.875
13:45:26.096,1.625,-6.625
13:45:26.106,1.625,-5.6875
13:45:26.116,1.8125,-6.4375
13:45:26.126,2,-5
13:45:26.136,2.125,-5.875
13:45:26.146,1.25,-5.6875
13:45:26.156,2.0625,-6
13:45:26.166,1.375,-6.375
13:45:26.176,1.75,-6
13:45:26.186,1.125,-5.625
13:45:26.196,1.3125,-6.25
13:45:26.206,0.875,-6.625
13:45:26.216,1.125,-6
13:45:26.226,0.375,-5.9375
13:45:26.237,1.375,-5.75
13:45:26.246,0.625,-6.25
13:45:26.256,1.3125,-6.1875
13:45:26.266,1,-6.125
13:45:26.277,1,-6.1875
13:45:26.286,1,-5.875
13:45:26.296,0.5,-6.125
13:45:26.306,0.5,-5.4375
13:45:26.316,-0.6875,-5.8125
13:45:26.326,-0.875,-4.5625
13:45:26.336,-1.125,-2.625
13:45:26.346,-2.1875,-0.9375
13:45:26.356,-3.25,0.125
13:45:26.366,-4.4375,1.3125
13:45:26.377,-3.3125,2.125
13:45:26.386,-5.9375,0.9375
13:45:26.396,-9.125,-0.875
13:45:26.406,-12.875,-2.375
13:45:26.416,-15.5626,-4.8125
13:45:26.426,-18.2501,-5.8125
13:45:26.437,-20.8751,-8.5625
13:45:26.446,-24.7501,-10.875
13:45:26.456,-28.3126,-13.2501
13:45:26.466,-31.8751,-14.3751
13:45:26.476,-35.6251,-17.1251
13:45:26.486,-39.8127,-18.1251
13:45:26.496,-44.0002,-20.6251
13:45:26.533,-45.5627,-21.5001
13:45:26.627,-45.4377,-20.2501
13:45:26.657,-44.3127,-20.9376
13:45:26.697,-43.5002,-19.8126
13:45:26.714,-43.3752,-19.1251
13:45:26.719,-43.1252,-21.3126
13:45:26.719,-43.5627,-20.6251
13:45:26.719,-43.6877,-22.0001
13:45:26.724,-43.2502,-22.0001
13:45:26.753,-42.8127,-20.8126
13:45:26.755,-41.8752,-21.0001
13:45:26.757,-40.7502,-20.6876
13:45:26.761,-39.9377,-20.1251
13:45:26.771,-39.3751,-20.3751
13:45:26.781,-38.5626,-19.3751
13:45:26.792,-38.1251,-19.9376
13:45:26.801,-37.3126,-19.3126
13:45:26.816,-37.8126,-20.3126
13:45:26.822,-37.1876,-20.2501
13:45:26.832,-37.2501,-19.5626
13:45:26.841,-36.3751,-20.9376
13:45:26.851,-37.1251,-21.2501
13:45:26.861,-35.5626,-21.1876
13:45:26.871,-35.1876,-21.5626
13:45:26.881,-43.0627,-30.1876
13:45:26.891,-40.5002,-28.8751
13:45:26.902,-39.6877,-27.6251
13:45:26.911,-37.1876,-26.8126
13:45:26.921,-35.8751,-27.1251
13:45:26.931,-34.8126,-26.0626
13:45:26.941,-33.0626,-25.0001
13:45:26.951,-32.0001,-25.1251
13:45:26.961,-31.2501,-24.3126
13:45:26.971,-30.6876,-23.6251
13:45:26.981,-30.1251,-25.0001
13:45:26.991,-30.5626,-24.3751
13:45:27.001,-29.8126,-24.9376
13:45:27.012,-30.0001,-25.0001
13:45:27.021,-28.9376,-23.3751
13:45:27.031,-28.1251,-22.3126
13:45:27.041,-26.2501,-22.8126
13:45:27.051,-25.6251,-21.6876
13:45:27.061,-25.8751,-23.0001
13:45:27.072,-25.6876,-22.8751
13:45:27.081,-24.9376,-21.3126
13:45:27.091,-25.0626,-22.1251
13:45:27.101,-25.2501,-22.1876
13:45:27.111,-25.0626,-21.1251
13:45:27.121,-24.4376,-22.3126
13:45:27.131,-24.6251,-21.3751
13:45:27.141,-23.5001,-21.4376
13:45:27.151,-22.0626,-20.8126
13:45:27.161,-21.2501,-19.2501
13:45:27.171,-20.3751,-18.5001
13:45:27.182,-20.3126,-18.9376
13:45:27.193,-20.7501,-19.2501
13:45:27.228,-21.1251,-20.0001
13:45:27.230,-22.5626,-19.5001
13:45:27.233,-22.3751,-19.8751
13:45:27.236,-22.7501,-19.0626
13:45:27.242,-21.5626,-18.6251
13:45:27.282,-20.1876,-18.3751
13:45:27.284,-19.3126,-17.2501
13:45:27.289,-17.9376,-15.2501
13:45:27.293,-16.5626,-11.9375
13:45:27.294,-15.5626,-9
13:45:27.301,-14.0626,-7.6875
13:45:27.333,-13.6876,-5.125
13:45:27.335,-13,-3.625
13:45:27.337,-12.125,-3.5625
13:45:27.342,-10.9375,-3.375
13:45:27.372,-11.4375,-3.5625
13:45:27.375,-11.4375,-3.0625
13:45:27.377,-11.6875,-2.6875
13:45:27.384,-11.6875,-3.0625
13:45:27.391,-11.875,-3.8125
13:45:27.401,-11.9375,-4.375
13:45:27.411,-12.125,-4.875
13:45:27.421,-11.8125,-3.1875
13:45:27.431,-11.125,-3.4375
13:45:27.441,-10.375,-2.625
13:45:27.451,-10.5625,-2.875
13:45:27.461,-10.9375,-3.5625
13:45:27.471,-10.875,-4.375
13:45:27.482,-11.75,-4.75
13:45:27.491,-12.9375,-6.5625
13:45:27.501,-13.6251,-7.0625
13:45:27.511,-13.7501,-7.125
13:45:27.522,-12.875,-6.1875
13:45:27.531,-12.25,-6.6875
13:45:27.541,-12.5,-6.875
13:45:27.551,-12.3125,-6
13:45:27.561,-11.5625,-6.5
13:45:27.571,-11.25,-6.125
13:45:27.581,-10.9375,-6.1875
13:45:27.591,-11.0625,-6.875
13:45:27.602,-11.3125,-6.5625
13:45:27.611,-11.9375,-6.375
13:45:27.621,-11.5625,-7.4375
13:45:27.631,-11.6875,-6.875
13:45:27.641,-10.6875,-8
13:45:27.651,-11.0625,-7.5625
13:45:27.661,-10.5,-7.5625
13:45:27.671,-10.25,-6.75
13:45:27.681,-9.5625,-7
13:45:27.691,-9.0625,-8.6875
13:45:27.702,-9.5625,-8.125
13:45:27.711,-9.5,-8.8125
13:45:27.721,-9.3125,-7.9375
13:45:27.731,-8.9375,-9.4375
13:45:27.741,-9.5625,-9
13:45:27.750,-8.9375,-9
13:45:27.761,-8.1875,-8.75
13:45:27.771,-7.5,-9
13:45:27.781,-8.375,-9.4375
13:45:27.791,-8.4375,-9.4375
13:45:27.801,-7.875,-9.9375
13:45:27.811,-7.875,-8.9375
13:45:27.821,-7.625,-9.5
13:45:27.831,-7.5625,-9.5
13:45:27.841,-7.1875,-9.5625
13:45:27.851,-6.3125,-9.8125
13:45:27.862,-6.5,-8.625
13:45:27.873,-6.1875,-8.125
13:45:27.882,-5.9375,-9
13:45:27.891,-5.5,-8.6875
13:45:27.906,-5.3125,-9.375
13:45:27.924,-5.375,-9.0625
13:45:27.931,-4.9375,-8.75
13:45:27.933,-4.3125,-7.375
13:45:27.949,-4.25,-7.6875
13:45:27.951,-3.6875,-8.125
13:45:27.977,-3.25,-7.25
13:45:27.980,-2.8125,-7.6875
13:45:27.994,-3.125,-6.4375
13:45:28.037,-3.5625,-8.625
13:45:28.037,-3.3125,-7.9375
13:45:28.038,-2.75,-7.375
13:45:28.064,-2.375,-7.5625
13:45:28.093,-2.3125,-6.375
13:45:28.093,-2,-7.0625
13:45:28.093,-2.0625,-7.3125
13:45:28.097,-2.125,-6.625
13:45:28.097,-2.1875,-6.6875
13:45:28.103,-2.3125,-6.4375
13:45:28.117,-1.875,-6
13:45:28.119,-0.375,-6.3125
13:45:28.148,-0.5,-5.125
13:45:28.150,0.6875,-5.625
13:45:28.153,0,-5.0625
13:45:28.157,-0.4375,-4.375
13:45:28.166,0.25,-3.5
13:45:28.176,1.125,-0.625
13:45:28.186,1.875,3.875
13:45:28.196,3.1875,4.8125
13:45:28.206,3,7.1875
13:45:28.217,3.375,6.9375
13:45:28.226,2.625,7.1875
13:45:28.236,2.375,6.9375
13:45:28.246,1.6875,7.25
13:45:28.256,2.6875,6.875
13:45:28.266,2.8125,7.5625
13:45:28.276,2,7.1875
13:45:28.287,2.0625,6.875
13:45:28.296,2.3125,7.5
13:45:28.306,2.25,5.8125
13:45:28.316,1.8125,6.9375
13:45:28.326,0.8125,6.6875
13:45:28.336,0.875,6
13:45:28.346,-0.125,6.125
13:45:28.356,-0.0625,4.625
13:45:28.366,-0.6875,5.25
13:45:28.376,0.125,3.4375
13:45:28.386,-0.25,4.25
13:45:28.396,-0.5,2.875
13:45:28.406,-1.375,2.375
13:45:28.416,-1.5625,1.8125
13:45:28.426,-2.5625,0.625
13:45:28.436,-3,1.125
13:45:28.446,-3.3125,-0.75
13:45:28.457,-3.25,0.5625
13:45:28.466,-3.375,-0.5
13:45:28.476,-3.25,0.75
13:45:28.486,-2.4375,-0.125
13:45:28.496,-2.5625,0.125
13:45:28.511,-2.8125,-1
13:45:28.524,-3.5,-1.0625
13:45:28.531,-3.9375,-0.75
13:45:28.541,-3.5625,-1.5625
13:45:28.551,-3.875,-2.1875
13:45:28.562,-4,-2.5625
13:45:28.571,-3.25,-3.3125
13:45:28.581,-4.3125,-4.0625
13:45:28.591,-3.625,-4
13:45:28.601,-3.5,-3.9375
13:45:28.611,-3.375,-4.25
13:45:28.621,-2.5,-4.375
13:45:28.631,-1.75,-3.6875
13:45:28.641,-1.5625,-3.3125
13:45:28.651,-0.625,-4.25
13:45:28.661,-0.625,-5
13:45:28.671,-1.375,-4.8125
13:45:28.681,-1.375,-5
13:45:28.691,-0.6875,-6
13:45:28.701,-0.375,-5.8125
13:45:28.711,-0.625,-4.9375
13:45:28.745,0.5,-5.0625
13:45:28.747,-0.0625,-5.1875
13:45:28.752,-0.125,-5.3125
13:45:28.752,-0.375,-5.5625
13:45:28.786,-0.5625,-5.6875
13:45:28.786,-0.125,-5.6875
13:45:28.788,0,-5.6875
13:45:28.792,0,-5
13:45:28.821,1.3125,-4.875
13:45:28.824,1.5625,-4.4375
13:45:28.825,1.0625,-4.9375
13:45:28.853,1.1875,-5.3125
13:45:28.855,1.875,-5.6875
13:45:28.857,1.5625,-4.75
13:45:28.861,0.9375,-5.0625
13:45:28.886,1.875,-5.0625
13:45:28.889,1.8125,-4.75
13:45:28.891,2.375,-4.8125
13:45:28.912,2.6875,-4.8125
13:45:28.916,2.8125,-3.9375
13:45:28.921,3.6875,-4.625
13:45:28.931,3,-3.6875
13:45:28.941,2.125,-3.875
13:45:28.951,1.875,-5.3125
13:45:28.961,1.4375,-5.0625
13:45:28.971,2.25,-5.3125
13:45:28.981,2.1875,-4.1875
13:45:28.994,3.1875,-4.125
13:45:29.001,4,-3.375
13:45:29.011,5.875,0.125
13:45:29.021,7.3125,3.125
13:45:29.031,7.6875,4.375
13:45:29.041,7.6875,6.4375
13:45:29.051,7.9375,8.25
13:45:29.061,8.4375,8.4375
13:45:29.071,8.0625,9.5
13:45:29.081,7.6875,9.1875
13:45:29.090,7.375,8.8125
13:45:29.101,6.8125,7.875
13:45:29.111,5.9375,7.125
13:45:29.121,6.0625,8.0625
13:45:29.131,6.1875,8.1875
13:45:29.140,6.4375,7.5625
13:45:29.151,6.125,8.125
13:45:29.161,5.5,6.9375
13:45:29.171,4.125,6.6875
13:45:29.181,4.3125,5.75
13:45:29.192,3.375,6.5
13:45:29.201,4.0625,4.75
13:45:29.216,3.1875,4.6875
13:45:29.225,3.5625,3.75
13:45:29.231,2,4.8125
13:45:29.247,2.5625,2.9375
13:45:29.265,1.6875,2
13:45:29.266,1.1875,1.375
13:45:29.271,0.6875,2.5625
13:45:29.286,0.8125,1.4375
13:45:29.314,0,2.0625
13:45:29.318,0.0625,0.9375
13:45:29.320,-0.75,-0.1875
13:45:29.325,-0.625,0.3125
13:45:29.331,-0.5625,-0.8125
13:45:29.348,-0.875,-0.8125
13:45:29.350,-2,-1.9375
13:45:29.364,-1.625,-1.3125
13:45:29.381,-2.6875,-1.9375
13:45:29.382,-3.3125,-2.9375
13:45:29.398,-2.6875,-3.125
13:45:29.401,-2.9375,-3.1875
13:45:29.410,-1.625,-2.5625
13:45:29.421,-2.125,-3
13:45:29.431,-1.9375,-2.5
13:45:29.440,-2.625,-3.75
13:45:29.473,-2,-3.875
13:45:29.474,-3.0625,-4.875
13:45:29.476,-2.875,-4.6875
13:45:29.483,-3.5,-4.875
13:45:29.509,-2.9375,-5.5
13:45:29.512,-2.625,-5.875
13:45:29.515,-2.6875,-6.6875
13:45:29.521,-2.75,-6.0625
13:45:29.546,-2.6875,-6.125
13:45:29.550,-2.125,-6
13:45:29.551,-1.5625,-6.25
13:45:29.566,-2.5,-6.25
13:45:29.596,-2.375,-6.75
13:45:29.599,-2,-7.125
13:45:29.601,-1.9375,-7.125
13:45:29.629,-0.9375,-6.6875
13:45:29.629,-0.5625,-6.25
13:45:29.634,-0.8125,-5.875
13:45:29.639,-0.875,-6.1875
13:45:29.644,-0.3125,-6.625
13:45:29.651,-0.25,-7.5
13:45:29.661,-0.6875,-6.3125
13:45:29.671,-0.625,-5.9375
13:45:29.679,-0.125,-6
13:45:29.691,0.375,-6.125
13:45:29.701,0.875,-6.75
13:45:29.709,0.0625,-6.625
13:45:29.721,-0.3125,-5.5
13:45:29.731,-0.5,-5.5625
13:45:29.741,-0.125,-6.5
13:45:29.751,0.25,-5.625
13:45:29.761,0.625,-6.1875
13:45:29.771,0.8125,-4.875
13:45:29.779,0.6875,-5.0625
13:45:29.791,2,-5
13:45:29.800,1.75,-5.75
13:45:29.811,1.125,-4.8125
13:45:29.820,2,-3.8125
13:45:29.831,2.9375,-1.3125
13:45:29.840,4.9375,1.625
13:45:29.851,5.5625,3.9375
13:45:29.861,6.25,6.5
13:45:29.871,7.5,8.3125
13:45:29.881,7.75,8.5625
13:45:29.891,8.125,10.375
13:45:29.899,8.5625,10.0625
13:45:29.911,8.0625,11
13:45:29.919,8.6875,9.9375
13:45:29.931,8.0625,10.75
13:45:29.941,8.375,9.25
13:45:29.950,8.5,9.875
13:45:29.960,9.1875,9.3125
13:45:29.971,9.3125,11.4375
13:45:29.980,9.4375,10.25
13:45:29.992,9.875,11.625
13:45:30.000,10,10.75
13:45:30.011,10,12.0625
13:45:30.021,9.75,11.125
13:45:30.031,8.9375,9.6875
13:45:30.045,8.625,9.375
13:45:30.050,7.8125,9.9375
13:45:30.059,7.5625,7.5625
13:45:30.069,6.9375,7.625
13:45:30.080,5.625,6.8125
13:45:30.091,5.4375,6.375
13:45:30.100,5.125,5.5
13:45:30.111,5.375,5.6875
13:45:30.122,5.375,4.8125
13:45:30.152,4.8125,5.875
13:45:30.155,6,5.625
13:45:30.157,5,5.4375
13:45:30.162,5.375,4.25
13:45:30.191,5.0625,4.25
13:45:30.192,4,3.6875
13:45:30.195,4.4375,3.5625
13:45:30.202,3.8125,3.0625
13:45:30.235,4.0625,2.4375
13:45:30.237,2.875,1.875
13:45:30.239,2.4375,0.8125
13:45:30.265,1.125,-0.25
13:45:30.266,0,-0.5625
13:45:30.269,-0.3125,-2.3125
13:45:30.273,-1,-1.3125
13:45:30.279,-1.625,-3.1875
13:45:30.311,-1.875,-3.3125
13:45:30.314,-2.5,-4.8125
13:45:30.316,-3.1875,-3.8125
13:45:30.323,-3.4375,-4.8125
13:45:30.333,-3.4375,-5.1875
13:45:30.344,-3.5,-5.0625
13:45:30.355,-2.8125,-6.375
13:45:30.365,-2.8125,-5.8125
13:45:30.376,-2.6875,-6.3125
13:45:30.386,-3.1875,-6.0625
13:45:30.395,-2.375,-6.4375
13:45:30.404,-3,-6.625
13:45:30.419,-2.875,-7.125
13:45:30.426,-2.875,-6.625
13:45:30.436,-3.375,-7
13:45:30.444,-2.25,-6.75
13:45:30.455,-2.1875,-7.125
13:45:30.465,-2.75,-6.75
13:45:30.475,-2.875,-7.4375
13:45:30.486,-3.1875,-7.8125
13:45:30.495,-3.6875,-7.75
13:45:30.506,-3.6875,-7.6875
13:45:30.515,-2.75,-8.5
13:45:30.532,-2.375,-7.4375
13:45:30.539,-2.375,-7.5625
13:45:30.556,-1.5625,-7.375
13:45:30.564,-1.125,-7.0625
13:45:30.565,-1.75,-7.25
13:45:30.595,-2.0625,-7.875
13:45:30.600,-2.375,-7.625
13:45:30.600,-2.1875,-7.625
13:45:30.605,-1.125,-7.4375
13:45:30.616,-0.6875,-7.5625
13:45:30.624,0.1875,-7.125
13:45:30.634,1.4375,-6.3125
13:45:30.645,2.6875,-5.0625
13:45:30.665,2.25,-5.75
13:45:30.668,2.0625,-5.6875
13:45:30.677,2,-4.75
13:45:30.684,2.0625,-4.5625
13:45:30.700,3.4375,-2.6875
13:45:30.707,5.5,0.3125
13:45:30.715,7.375,3.3125
13:45:30.725,8.25,5.6875
13:45:30.736,9.5,7.125
13:45:30.744,9.25,8.0625
13:45:30.755,9.375,9.0625
13:45:30.764,9.9375,9.25
13:45:30.775,10.5625,9.3125
13:45:30.786,11.5625,10.0625
13:45:30.801,11.625,9.6875
13:45:30.806,12.3125,9.8125
13:45:30.816,11.8125,10.125
13:45:30.829,11.1875,10.3125
13:45:30.841,11.3125,10.4375
13:45:30.877,10.8125,10.375
13:45:30.880,10.6875,9.75
13:45:30.882,9.75,9.0625
13:45:30.885,10.25,9.875
13:45:30.891,9.875,8.9375
13:45:30.923,10.6875,9.0625
13:45:30.926,9.8125,7.625
13:45:30.928,7.9375,8.375
13:45:30.932,7.375,5.8125
13:45:30.967,6.25,6.625
13:45:30.968,6.0625,4.875
13:45:30.970,6,5.3125
13:45:30.976,6.125,4.5625
13:45:30.982,6.5,6
13:45:31.011,6.875,5
13:45:31.013,5.875,5.25
13:45:31.016,5.5,4.6875
13:45:31.021,5.5,3.5
13:45:31.032,4.5625,3.9375
13:45:31.039,4.75,3.5625
13:45:31.049,4.5,3.125
13:45:31.060,5.0625,2.375
13:45:31.071,4.125,2.625
13:45:31.080,4.1875,2.625
13:45:31.091,4.125,0.9375
13:45:31.101,3.5,2.3125
13:45:31.113,3.1875,0.375
13:45:31.120,2.3125,-0.625
13:45:31.130,1.6875,-1
13:45:31.139,0.9375,-1.6875
13:45:31.149,1.1875,-2.0625
13:45:31.160,0.6875,-3
13:45:31.176,0.1875,-2
13:45:31.181,-0.5,-3.6875
13:45:31.189,-0.8125,-3.75
13:45:31.201,-0.9375,-4.75
13:45:31.210,-2.0625,-4.6875
13:45:31.219,-2.1875,-5.6875
13:45:31.230,-3.5,-6.4375
13:45:31.239,-4.25,-6.6875
13:45:31.249,-4.0625,-7.875
13:45:31.259,-4.875,-6.625
13:45:31.269,-3.25,-7.5
13:45:31.281,-3.75,-6.5625
13:45:31.291,-3.125,-7.1875
13:45:31.299,-3.1875,-7.125
13:45:31.310,-3,-7.875
13:45:31.319,-3,-8.125
13:45:31.329,-3,-8.1875
13:45:31.340,-2.5625,-7.4375
13:45:31.349,-2,-6.625
13:45:31.359,-1.1875,-6.75
13:45:31.369,-1.625,-6.8125
13:45:31.381,-1.8125,-7.0625
13:45:31.389,-1.625,-6.75
13:45:31.399,-1.5,-7.25
13:45:31.409,-1.25,-7.5
13:45:31.420,-1.1875,-7.5625
13:45:31.429,-1.875,-6.8125
13:45:31.440,-0.625,-7.375
13:45:31.449,-0.1875,-6.8125
13:45:31.459,1.0625,-6.3125
13:45:31.471,1.375,-6.6875
13:45:31.480,1.625,-6.3125
13:45:31.489,2.4375,-5.8125
13:45:31.499,2.625,-4.3125
13:45:31.509,3.6875,-4.6875
13:45:31.520,3.9375,-3.375
13:45:31.529,4.5,-1.9375
13:45:31.540,6.125,0.375
13:45:31.550,7.375,3
13:45:31.561,8.75,5.4375
13:45:31.569,9.875,8.125
13:45:31.579,10.125,8.625
13:45:31.589,11.125,9.3125
13:45:31.600,11.5625,11.0625
13:45:31.610,10.5625,10.3125
13:45:31.644,10.375,9.125
13:45:31.648,9.6875,9.5
13:45:31.648,10.0625,9.1875
13:45:31.652,9.625,9.3125
13:45:31.683,9.4375,9.25
13:45:31.686,9.4375,9.375
13:45:31.688,8.375,9
13:45:31.691,8.1875,8.9375
13:45:31.724,8.0625,8.5
13:45:31.726,6.4375,7.625
13:45:31.728,6.0625,7.9375
13:45:31.734,5.1875,6.375
13:45:31.741,4.25,7.1875
13:45:31.773,4.9375,5.4375
13:45:31.776,3.3125,6.3125
13:45:31.777,4.4375,4.875
13:45:31.780,3.6875,5.5625
13:45:31.802,4.375,5.4375
13:45:31.805,4.9375,4.375
13:45:31.811,4.5,6.125
13:45:31.820,4.1875,4.5
13:45:31.831,4,5.3125
13:45:31.847,4.875,4.8125
13:45:31.872,3.875,4.4375
13:45:31.886,3.5625,4.4375
13:45:31.893,3.5,4
13:45:31.893,2.25,4.8125
13:45:31.901,1,2.4375
13:45:31.903,0.75,1.9375
13:45:31.911,0.4375,1.3125
13:45:31.927,0.3125,0.25
13:45:31.929,-0.375,0.5
13:45:31.939,-0.0625,-0.3125
13:45:31.949,-0.6875,-1.0625
13:45:31.960,-1.5625,-1.75
13:45:31.970,-1.8125,-1.625
13:45:31.984,-1.375,-1.5625
13:45:31.992,-2.0625,-2.625
13:45:31.999,-2.25,-2.125
13:45:32.015,-1.4375,-2.25
13:45:32.024,-1.3125,-2.8125
13:45:32.030,-2.0625,-3.125
13:45:32.039,-1.8125,-2.5625
13:45:32.049,-0.9375,-2.8125
13:45:32.060,-1.25,-4.125
13:45:32.069,-0.3125,-2.8125
13:45:32.080,8.875,2.625
13:45:32.090,18.8751,6.625
13:45:32.101,18.8126,6.25
13:45:32.110,20.0001,7.375
13:45:32.120,21.5626,8.25
13:45:32.129,21.1251,8.3125
13:45:32.140,20.6251,7.4375
13:45:32.150,20.7501,7.3125
13:45:32.160,22.2501,7.6875
13:45:32.169,25.5001,11.5
13:45:32.180,30.7501,14.8126
13:45:32.191,37.4376,19.6876
13:45:32.200,42.8752,23.8126
13:45:32.210,44.0002,24.4376
13:45:32.219,44.4377,24.3751
13:45:32.230,44.8752,24.7501
13:45:32.240,47.3752,25.0001
13:45:32.249,49.8752,27.6876
13:45:32.260,52.1877,28.5001
13:45:32.270,53.8127,29.8126
13:45:32.281,56.6877,31.3126
13:45:32.289,57.0627,31.8751
13:45:32.299,58.8127,31.8126
13:45:32.309,58.7502,32.2501
13:45:32.319,60.5002,33.3126
13:45:32.329,60.8127,34.0001
13:45:32.339,61.0002,34.8126
13:45:32.350,61.6877,32.7501
13:45:32.360,59.8127,33.2501
13:45:32.396,60.6877,31.6876
13:45:32.398,59.4377,32.6251
13:45:32.401,59.2502,31.3751
13:45:32.405,58.3127,32.3751
13:45:32.438,58.3127,32.0001
13:45:32.442,58.2502,34.1251
13:45:32.444,59.1877,34.9376
13:45:32.446,58.7502,36.8751
13:45:32.452,59.5627,36.8126
13:45:32.482,57.7502,37.8126
13:45:32.485,57.7502,36.5001
13:45:32.486,56.9377,36.5626
13:45:32.512,56.8127,35.7501
13:45:32.514,55.8127,35.7501
13:45:32.517,55.1877,34.4376
13:45:32.521,53.7502,35.3126
13:45:32.553,53.3127,33.9376
13:45:32.556,51.6877,34.3126
13:45:32.556,51.4377,32.6876
13:45:32.563,50.0002,33.8126
13:45:32.573,49.5002,32.1876
13:45:32.580,48.0002,32.2501
13:45:32.591,48.0627,30.8751
13:45:32.600,46.3127,31.3126
13:45:32.609,46.0002,30.4376
13:45:32.619,45.1252,29.5626
13:45:32.630,44.6252,28.9376
13:45:32.643,43.5002,29.2501
13:45:32.649,43.5002,27.2501
13:45:32.660,42.6877,28.0001
13:45:32.676,41.5627,26.6251
13:45:32.681,41.6877,26.6251
13:45:32.690,40.0627,25.3126
13:45:32.700,39.6252,25.4376
13:45:32.709,38.9376,24.2501
13:45:32.719,38.1876,23.8751
13:45:32.731,37.1876,23.1251
13:45:32.739,37.0001,22.3751
13:45:32.749,36.1876,21.6876
13:45:32.759,35.8126,20.8126
13:45:32.770,34.6876,19.9376
13:45:32.779,34.4376,19.6876
13:45:32.790,33.8126,18.5001
13:45:32.800,33.5001,18.1876
13:45:32.810,32.6251,16.8126
13:45:32.821,32.5001,16.9376
13:45:32.829,31.3126,16.3751
13:45:32.839,31.1251,15.4376
13:45:32.850,30.4376,14.5626
13:45:32.859,29.8126,14.2501
13:45:32.869,29.2501,13.5626
13:45:32.879,28.8126,13.4376
13:45:32.889,28.1876,12.625
13:45:32.899,27.8126,12.4375
13:45:32.911,26.9376,12.5
13:45:32.920,26.4376,11.4375
13:45:32.929,26.0001,11.4375
13:45:32.940,25.7501,11.1875
13:45:32.949,25.1251,10.25
13:45:32.960,24.8126,9.625
13:45:32.969,24.1251,9.4375
13:45:32.979,24.2501,9.4375
13:45:32.990,23.7501,8.75
13:45:33.001,23.0001,9.5
13:45:33.010,23.0626,8.0625
13:45:33.021,22.2501,8.5
13:45:33.029,22.5626,7.875
13:45:33.039,21.5626,8.3125
13:45:33.078,21.8751,7
13:45:33.078,20.9376,7.5
13:45:33.091,20.8126,6.6875
13:45:33.091,20.5626,6.25
13:45:33.091,20.3751,6.3125
13:45:33.118,19.5626,4.875
13:45:33.120,19.5001,5.5625
13:45:33.122,18.5626,4.625
13:45:33.196,18.4376,5.5625
13:45:33.196,18.3126,4.0625
13:45:33.210,17.6876,4.25
13:45:33.213,17.3751,3.4375
13:45:33.234,16.8126,4.0625
13:45:33.234,16.3751,3.0625
13:45:33.236,15.7501,2.875
13:45:33.238,15.5001,3.0625
13:45:33.244,13.8751,3.1875
13:45:33.249,13.5626,2.625
13:45:33.259,11.5625,2.25
13:45:33.271,11,2.375
13:45:33.279,10.8125,1.3125
13:45:33.300,10,3.25
13:45:33.302,10.5625,3.0625
13:45:33.312,10.3125,6.125
13:45:33.319,10.75,5.25
13:45:33.334,10.6875,6.375
13:45:33.342,10.875,5.9375
13:45:33.350,10.6875,6.875
13:45:33.361,10.875,7.4375
13:45:33.369,10.5,6.5625
13:45:33.379,12.4375,6.5625
13:45:33.389,12.125,6.8125
13:45:33.400,12.6875,7.25
13:45:33.410,12,8.375
13:45:33.420,12.125,7.3125
13:45:33.429,11.5625,5.8125
13:45:33.440,11.4375,6.875
13:45:33.451,11.1875,6.1875
13:45:33.461,11.3125,6.5625
13:45:33.469,11.625,5.375
13:45:33.479,10.9375,4.6875
13:45:33.489,11.5625,4.9375
13:45:33.499,10.5,4.5625
13:45:33.511,10.6875,4.75
13:45:33.519,10.1875,4.375
13:45:33.530,10.5625,4.6875
13:45:33.541,10,3.6875
13:45:33.551,10.5,4.5625
13:45:33.561,9.6875,4.375
13:45:33.569,9.4375,4.1875
13:45:33.579,9.25,2.8125
13:45:33.589,9.625,3.3125
13:45:33.600,9.125,2.625
13:45:33.616,8.9375,2.625
13:45:33.619,8.5625,2.125
13:45:33.632,9.375,1.8125
13:45:33.641,8.875,1.75
13:45:33.650,9.3125,1.5
13:45:33.660,8.5,1.1875
13:45:33.669,8.5625,0.9375
13:45:33.680,8.625,0.9375
13:45:33.690,8.25,1.5625
13:45:33.700,8.5625,0
13:45:33.710,7.75,-0.75
13:45:33.721,8.3125,0.25
13:45:33.730,7.625,0.75
13:45:33.740,7.75,0.1875
13:45:33.749,7.5,-1.1875
13:45:33.760,7.5625,-0.25
13:45:33.769,7.5,-1.125
13:45:33.780,7.5625,-0.25
13:45:33.790,7.625,-1.3125
13:45:33.800,6.9375,-0.5625
13:45:33.811,7.5,-0.75
13:45:33.821,6.25,-1.3125
13:45:33.829,7.5,-1.0625
13:45:33.840,6.625,-0.5
13:45:33.871,7.375,-1
13:45:33.874,6.125,-1.25
13:45:33.875,6,-0.4375
13:45:33.881,6.6875,-1.75
13:45:33.913,6.3125,0.25
13:45:33.915,6.3125,-0.9375
13:45:33.917,7,-1.6875
13:45:33.919,6.5,-0.3125
13:45:33.950,6.375,-1.3125
13:45:33.952,7.125,-1.5625
13:45:33.955,6.75,-0.375
13:45:33.960,7.125,-1.6875
13:45:34.003,6.25,-0.375
13:45:34.005,6.5625,-1.875
13:45:34.009,6.5625,-0.5
13:45:34.011,6.6875,-1.5625
13:45:34.012,6.5625,-0.1875
13:45:34.034,7.4375,-0.5
13:45:34.036,7.125,2.4375
13:45:34.040,8.5625,3.3125
13:45:34.049,8.875,4.375
13:45:34.059,9.0625,6
13:45:34.070,9.9375,7.375
13:45:34.081,9.75,7.8125
13:45:34.089,10.4375,7.6875
13:45:34.100,9.625,8.375
13:45:34.110,10.0625,7.75
13:45:34.121,10.5625,7.875
13:45:34.129,9.75,7.4375
13:45:34.140,9.9375,7.4375
13:45:34.150,9.5625,7.375
13:45:34.159,9.75,7.3125
13:45:34.171,9.9375,7.3125
13:45:34.179,9.9375,7.625
13:45:34.190,10.4375,8.5
13:45:34.199,10.4375,8.1875
13:45:34.209,9.1875,8.375
13:45:34.220,9.6875,7.4375
13:45:34.229,9.3125,7.5
13:45:34.241,9.1875,6.25
13:45:34.249,8.3125,6.75
13:45:34.261,8.6875,5.4375
13:45:34.269,8.4375,4.3125
13:45:34.280,8.625,5.1875
13:45:34.291,8.0625,6.0625
13:45:34.299,8.25,4.9375
13:45:34.310,7.5625,3.625
13:45:34.320,7.625,4.5625
13:45:34.329,7.4375,4.125
13:45:34.339,8,3.875
13:45:34.351,7.3125,4.5625
13:45:34.360,7.1875,3.5625
13:45:34.369,6.5,4.1875
13:45:34.379,6.9375,2.625
13:45:34.390,6.6875,2.125
13:45:34.400,6.25,2.4375
13:45:34.432,5.8125,1.5
13:45:34.435,6.3125,1.9375
13:45:34.439,5.75,0.625
13:45:34.441,6.125,1.5
13:45:34.450,5.625,0.0625
13:45:34.460,5.25,0.4375
13:45:34.470,5.375,-0.25
13:45:34.479,5.25,0.0625
13:45:34.495,4.9375,0.375
13:45:34.502,5.125,-0.6875
13:45:34.511,5.125,0.1875
13:45:34.526,4.6875,-1.125
13:45:34.533,4.9375,-0.5625
13:45:34.542,5.1875,-0.8125
13:45:34.571,5.1875,-0.625
13:45:34.574,5,-1.6875
13:45:34.576,4.25,-0.5625
13:45:34.579,4.8125,-1.875
13:45:34.608,4.4375,0
13:45:34.611,4.875,-1.6875
13:45:34.651,4.5625,-2.375
13:45:34.687,4.6875,-1.5
13:45:34.687,4.4375,-2.875
13:45:34.687,4.75,-1.1875
13:45:34.688,4.625,-2.0625
13:45:34.731,4.1875,-2.3125
13:45:34.735,4.4375,-1.8125
13:45:34.736,4.375,-2.5625
13:45:34.736,4.3125,-1.3125
13:45:34.737,4.4375,-2.875
13:45:34.741,4,-1.8125
13:45:34.746,4.5,-2.75
13:45:34.755,3.875,-1.75
13:45:34.765,4.8125,-2.5
13:45:34.775,4.9375,-2.0625
13:45:34.785,3.75,-2.0625
13:45:34.795,4.5,-2.3125
13:45:34.805,4.1875,-2.5625
13:45:34.815,4.125,-1.625
13:45:34.824,4.0625,-2.25
13:45:34.835,5,0
13:45:34.845,5.5,0.5625
13:45:34.854,6.375,2.5625
13:45:34.864,6.5,3.6875
13:45:34.875,6.875,5.375
13:45:34.885,5.9375,2.25
13:45:34.895,8.125,7
13:45:34.905,8.25,6.625
13:45:34.915,7.6875,7.0625
13:45:34.924,8.0625,6.8125
13:45:34.935,8.4375,7
13:45:34.945,8.1875,7.75
13:45:34.955,8.4375,7.125
13:45:34.965,7.9375,7.25
13:45:34.974,8.4375,6.8125
13:45:34.984,8.125,7.4375
13:45:34.995,8.25,7
13:45:35.005,8,6.9375
13:45:35.015,7.25,6.25
13:45:35.025,7.5,5.125
13:45:35.035,7.1875,5.4375
13:45:35.045,7.3125,4.125
13:45:35.054,6.6875,4.5
13:45:35.065,6.625,4.375
13:45:35.075,6.875,3.4375
13:45:35.085,7,4
13:45:35.094,6.5,3.25
13:45:35.105,7,3.8125
13:45:35.115,6.6875,2.625
13:45:35.125,6.625,3.6875
13:45:35.134,6.375,2.3125
13:45:35.145,6.4375,3.25
13:45:35.161,6.1875,2.1875
13:45:35.164,6.375,2.625
13:45:35.175,5.625,2
13:45:35.185,5.75,1.3125
13:45:35.195,6.75,1.1875
13:45:35.204,5.75,1
13:45:35.214,6.0625,0.6875
13:45:35.224,5.0625,0.4375
13:45:35.234,5.8125,0.375
13:45:35.245,4.9375,-0.125
13:45:35.255,6.0625,-0.4375
13:45:35.264,4.625,-0.375
13:45:35.301,4.9375,-1.1875
13:45:35.302,5.5625,-0.625
13:45:35.306,4.9375,-1.5625
13:45:35.307,4.4375,-1.5
13:45:35.337,5.25,-1.1875
13:45:35.341,5,-1.5625
13:45:35.344,4.6875,-0.125
13:45:35.346,4.75,-2.0625
13:45:35.385,4,-0.5625
13:45:35.385,4.625,-2.0625
13:45:35.388,3.75,-1.3125
13:45:35.413,4.1875,-1.8125
13:45:35.414,3.75,-3
13:45:35.415,3.6875,-1.75
13:45:35.417,3.9375,-3.4375
13:45:35.427,3.6875,-1.6875
13:45:35.454,3.9375,-3.375
13:45:35.455,4.4375,-2.0625
13:45:35.459,4.25,-2.5
13:45:35.466,4.0625,-3
13:45:35.475,4.375,-2.25
13:45:35.486,4.625,-2.3125
13:45:35.495,4.1875,-2.8125
13:45:35.504,3.9375,-2.8125
13:45:35.515,3.9375,-3.6875
13:45:35.525,3.75,-2.25
13:45:35.534,3.5,-2.3125
13:45:35.544,4.3125,-3.0625
13:45:35.554,3.375,-2.8125
13:45:35.565,4,-3.25
13:45:35.575,3.875,-2.5625
13:45:35.584,4,-2.5625
13:45:35.595,4.6875,-3.0625
13:45:35.603,4.4375,-2.5625
13:45:35.615,4.0625,-2.875
13:45:35.624,4.6875,-1.125
13:45:35.633,4.3125,-1.4375
13:45:35.644,4.625,0.375
13:45:35.654,5.125,2.4375
13:45:35.665,6.625,2.375
13:45:35.674,6.75,5.375
13:45:35.683,7.0625,5.1875
13:45:35.714,6.6875,5.75
13:45:35.717,7.0625,5.1875
13:45:35.719,7.3125,5.75
13:45:35.725,6.5625,5.375
13:45:35.736,7.125,5.25
13:45:35.745,6.125,5.25
13:45:35.755,6.875,4.9375
13:45:35.765,6.4375,3.875
13:45:35.775,7.25,4.8125
13:45:35.785,6.25,5.1875
13:45:35.793,6.8125,5.0625
13:45:35.805,6.4375,4.75
13:45:35.821,6.125,4.3125
13:45:35.836,6.4375,4.9375
13:45:35.838,6.1875,3.25
13:45:35.845,6,3.625
13:45:35.855,5.5625,4.375
13:45:35.865,5.8125,3.5
13:45:35.874,5.625,2.8125
13:45:35.885,5.4375,3.125
13:45:35.895,5.5,1.75
13:45:35.910,5.375,2.4375
13:45:35.917,5.0625,1.8125
13:45:35.925,5.5625,2.4375
13:45:35.935,5.25,2.0625
13:45:35.945,4.6875,1.9375
13:45:35.955,5.3125,1.8125
13:45:35.964,4.625,1.625
13:45:35.975,5.125,1.625
13:45:35.985,5,0.75
13:45:36.022,4.3125,1.375
13:45:36.024,4.3125,0.5625
13:45:36.025,3.875,-1.125
13:45:36.026,3.875,0.1875
13:45:36.058,4.0625,-1
13:45:36.062,3.875,0.375
13:45:36.064,3.8125,-1.6875
13:45:36.067,3.625,-0.875
13:45:36.102,3.5625,-1.8125
13:45:36.104,3.625,-1.1875
13:45:36.106,3.25,-2.5
13:45:36.108,2.8125,-1.5625
13:45:36.115,2.9375,-1.75
13:45:36.146,3.3125,-1.5625
13:45:36.148,3.1875,-2.5625
13:45:36.151,2.75,-2.625
13:45:36.153,2.875,-2.5625
13:45:36.173,2.8125,-2.625
13:45:36.175,2.75,-1.9375
13:45:36.185,3,-3
13:45:36.195,2.75,-2.375
13:45:36.204,2.25,-3.5
13:45:36.214,1.875,-2.3125
13:45:36.224,2.5625,-3.25
13:45:36.235,3.0625,-2.4375
13:45:36.245,2.1875,-2.9375
13:45:36.254,2.8125,-3.0625
13:45:36.264,2.1875,-2.5625
13:45:36.275,2.5625,-3.3125
13:45:36.285,2.1875,-3.4375
13:45:36.295,2.5,-3.875
13:45:36.305,2.0625,-3.25
13:45:36.315,2.1875,-3.5625
13:45:36.325,2.75,-3.4375
13:45:36.333,2.5,-3.625
13:45:36.343,2.1875,-3.25
13:45:36.355,2.5625,-3.9375
13:45:36.363,2.8125,-3.5625
13:45:36.375,2.6875,-2.25
13:45:36.384,2.5625,-3.3125
13:45:36.395,2.4375,-2.5625
13:45:36.405,2.3125,-1.9375
13:45:36.414,3.625,-1.5
13:45:36.425,4,0.5625
13:45:36.433,4.9375,2.625
13:45:36.444,5.4375,4.1875
13:45:36.453,5.875,6.375
13:45:36.464,6.5,6.3125
13:45:36.473,6.4375,7.125
13:45:36.483,6.3125,7.0625
13:45:36.493,7.4375,7
13:45:36.503,6.9375,7.1875
13:45:36.513,6.375,7.3125
13:45:36.525,7,6.875
13:45:36.535,6.625,7
13:45:36.543,7.25,6.75
13:45:36.555,6.3125,8.3125
13:45:36.564,6.625,7.6875
13:45:36.575,7.1875,6.9375
13:45:36.583,6.75,7.625
13:45:36.595,7.1875,7.5
13:45:36.603,6.4375,6.875
13:45:36.614,7.0625,6.4375
13:45:36.625,5.75,6.25
13:45:36.633,6.5,5.8125
13:45:36.645,5.375,5.0625
13:45:36.660,5.6875,4.5625
13:45:36.665,5.375,4.9375
13:45:36.677,6.125,4.6875
13:45:36.684,5.1875,4.5
13:45:36.694,5.25,3.8125
13:45:36.703,4.9375,4.1875
13:45:36.714,4.9375,4.125
13:45:36.723,4.375,3.375
13:45:36.761,4.1875,4.1875
13:45:36.762,4.9375,2.4375
13:45:36.766,4.25,4.125
13:45:36.771,4.4375,2.125
13:45:36.774,3.6875,3.25
13:45:36.809,3.9375,1.75
13:45:36.813,4.0625,1.125
13:45:36.814,3.875,1.125
13:45:36.842,3.8125,0.625
13:45:36.842,3.6875,0.1875
13:45:36.844,3.4375,-0.875
13:45:36.852,3.6875,-0.375
13:45:36.858,3.375,-1
13:45:36.887,3.4375,-0.75
13:45:36.889,2.6875,-0.0625
13:45:36.891,3.625,-1.125
13:45:36.896,3.0625,-0.9375
13:45:36.920,3,-1.6875
13:45:36.922,3.3125,-1.875
13:45:36.925,3.0625,-1.9375
13:45:36.934,3.125,-2.4375
13:45:36.943,2.25,-1.875
13:45:36.955,3.375,-2.6875
13:45:36.963,2.6875,-3.0625
13:45:36.994,2.75,-2.0625
13:45:36.996,2.5,-3.3125
13:45:36.997,3.1875,-2.875
13:45:37.006,3,-2.5
13:45:37.016,3.1875,-3.4375
13:45:37.023,3.125,-2.9375
13:45:37.035,2.75,-3.6875
13:45:37.043,3.4375,-2.9375
13:45:37.053,3,-3.9375
13:45:37.065,2.9375,-3
13:45:37.073,3.1875,-3.6875
13:45:37.083,3.375,-3.125
13:45:37.093,2.875,-3.375
13:45:37.115,3.375,-3.5
13:45:37.121,2.5,-2.4375
13:45:37.136,3.1875,-3.5625
13:45:37.139,2.125,-3.25
13:45:37.147,2.75,-4.125
13:45:37.153,2.5,-2.5625
13:45:37.164,3.125,-4.3125
13:45:37.173,2.625,-3
13:45:37.183,3.1875,-3.3125
13:45:37.194,3.3125,-3.875
13:45:37.205,2.5,-3.5
13:45:37.213,3.5,-3.375
13:45:37.223,3.125,-2.6875
13:45:37.234,3.875,-1.625
13:45:37.243,4.3125,-0.125
13:45:37.253,5.5,1.9375
13:45:37.263,5.75,4.0625
13:45:37.273,6.625,5.0625
13:45:37.295,7,6.0625
13:45:37.297,7.8125,6.375
13:45:37.313,7,6.5
13:45:37.314,7.3125,6.375
13:45:37.325,7.375,6.375
13:45:37.333,7.1875,6.5625
13:45:37.344,6.875,6.6875
13:45:37.353,7.5625,6.3125
13:45:37.364,7.4375,6.375
13:45:37.373,6.9375,5.8125
13:45:37.383,7.5625,7.3125
13:45:37.394,7.3125,7.1875
13:45:37.412,7.75,7
13:45:37.413,6.875,7.625
13:45:37.424,7.3125,5.625
13:45:37.434,6.8125,6.5
13:45:37.444,6.8125,4.75
13:45:37.453,6.3125,5.9375
13:45:37.464,7.375,5.1875
13:45:37.474,7.0625,4.3125
13:45:37.484,7.25,5.1875
13:45:37.493,6.75,3.5
13:45:37.528,6.875,4.625
13:45:37.529,7.125,4
13:45:37.531,7.375,4.0625
13:45:37.535,7.25,2.9375
13:45:37.564,7.4375,4.125
13:45:37.566,7.125,3.375
13:45:37.570,6.9375,2.875
13:45:37.575,7.625,3.3125
13:45:37.603,7.6875,3.5625
13:45:37.605,7.25,2.5
13:45:37.607,7.5,2.3125
13:45:37.633,7.3125,2.125
13:45:37.636,8.25,2.3125
13:45:37.637,7.3125,0.875
13:45:37.644,7.25,0.8125
13:45:37.658,7,0.5625
13:45:37.665,6.9375,1.4375
13:45:37.687,6.875,0.1875
13:45:37.690,6.75,0.125
13:45:37.694,7.125,-0.625
13:45:37.704,7.4375,0.1875
13:45:37.714,6.875,-0.8125
13:45:37.723,7.75,0.4375
13:45:37.733,7.4375,-1
13:45:37.743,7.3125,-0.125
13:45:37.754,7,-1.375
13:45:37.763,7.25,-0.5
13:45:37.774,7.3125,-1.1875
13:45:37.785,6.6875,-0.8125
13:45:37.793,6.9375,-1.625
13:45:37.803,6.5625,-1
13:45:37.813,6.5,-1.0625
13:45:37.823,6.5625,-2.25
13:45:37.835,6.0625,-1.1875
13:45:37.843,6.3125,-2.1875
13:45:37.854,6,-1
13:45:37.863,6.375,-2.1875
13:45:37.874,6.1875,-1.5
13:45:37.883,6.25,-2.8125
13:45:37.895,5.8125,-2
13:45:37.904,5.375,-2.1875
13:45:37.913,5.5,-2.625
13:45:37.923,5.75,-2.9375
13:45:37.933,4.875,-3.4375
13:45:37.944,4.6875,-3.8125
13:45:37.955,4.625,-3.5625
13:45:37.963,4.8125,-3.6875
13:45:37.973,4.6875,-1.5
13:45:37.984,4.8125,-3.9375
13:45:37.994,4.375,-2.875
13:45:38.004,4.25,-3.25
13:45:38.013,4.0625,-3.375
13:45:38.023,4.8125,-3.625
13:45:38.034,4.1875,-2.3125
13:45:38.044,4.625,-3.8125
13:45:38.054,4.25,-3
13:45:38.064,4.0625,-3.125
13:45:38.074,4.875,-2.375
13:45:38.083,5.5625,-1.125
13:45:38.093,6.0625,0.625
13:45:38.103,6.4375,3.1875
13:45:38.114,7.0625,4.1875
13:45:38.123,7.6875,5.25
13:45:38.133,7.625,5.625
13:45:38.143,7.75,6.375
13:45:38.159,7.3125,6.125
13:45:38.164,7.5,6.4375
13:45:38.174,7.3125,5.4375
13:45:38.184,7.375,5.25
13:45:38.194,6.4375,5.0625
13:45:38.229,7.375,5.5
13:45:38.230,7.0625,5
13:45:38.233,7.125,5.125
13:45:38.235,6.6875,6.3125
13:45:38.276,7.4375,5.1875
13:45:38.276,6.6875,5.4375
13:45:38.280,6.375,4.8125
13:45:38.281,6.75,4.8125
13:45:38.288,5.9375,3.5625
13:45:38.294,5.8125,3.4375
13:45:38.329,5.75,3.0625
13:45:38.330,5.6875,3
13:45:38.332,5.8125,3.1875
13:45:38.336,6.6875,2.875
13:45:38.372,5.6875,2.9375
13:45:38.373,5.0625,2.8125
13:45:38.379,5.3125,2.875
13:45:38.383,5.5,2.5
13:45:38.385,5.4375,2.625
13:45:38.395,5.125,2.1875
13:45:38.404,4.375,1.8125
13:45:38.423,5.125,1.5
13:45:38.429,4.25,1.1875
13:45:38.445,4.6875,1.1875
13:45:38.447,4.25,0.25
13:45:38.454,4.0625,0.25
13:45:38.463,3.6875,0.1875
13:45:38.474,4.3125,-0.1875
13:45:38.483,3.625,-0.6875
13:45:38.493,4.1875,-0.625
13:45:38.503,3.375,-1.75
13:45:38.514,3.5625,-2.125
13:45:38.523,3.875,-0.75
13:45:38.535,3.5,-2
13:45:38.543,3.5,-2.875
13:45:38.553,2.8125,-2.4375
13:45:38.563,3,-2.625
13:45:38.574,3.3125,-2.125
13:45:38.591,2.625,-2.875
13:45:38.594,2.875,-2.125
13:45:38.609,2.75,-3.1875
13:45:38.614,2.0625,-2.3125
13:45:38.623,2.4375,-3.625
13:45:38.635,2.375,-2.9375
13:45:38.644,2.125,-3.6875
13:45:38.655,2.625,-3.4375
13:45:38.663,2.1875,-3.5
13:45:38.674,3.1875,-3.625
13:45:38.683,2.125,-3.625
13:45:38.693,2.0625,-3.625
13:45:38.704,2.0625,-3.5
13:45:38.713,2.4375,-3.875
13:45:38.724,2.1875,-4.1875
13:45:38.734,1.8125,-3.9375
13:45:38.743,1.9375,-4.1875
13:45:38.757,2.0625,-4.25
13:45:38.763,1.875,-3.875
13:45:38.774,2.0625,-3.875
13:45:38.784,2,-3.9375
13:45:38.793,1.625,-4.6875
13:45:38.804,1.8125,-3.5625
13:45:38.814,1.9375,-4.6875
13:45:38.823,1.6875,-4
13:45:38.833,1.9375,-4.9375
13:45:38.844,1.9375,-3.625
13:45:38.853,1.6875,-3.8125
13:45:38.863,2.1875,-3.125
13:45:38.873,2.5,-3.1875
13:45:38.884,2.6875,-0.9375
13:45:38.893,3.0625,1.4375
13:45:38.910,4.6875,3.125
13:45:38.915,5.375,5.1875
13:45:38.924,6.25,6.3125
13:45:38.953,6.8125,7.75
13:45:38.956,6.4375,8.3125
13:45:38.958,7.0625,8.0625
13:45:38.984,6.5,7.1875
13:45:38.986,6.5,7.875
13:45:38.989,6.5,8.0625
13:45:38.994,6.9375,7.4375
13:45:39.028,5.9375,7.375
13:45:39.033,6.625,7.9375
13:45:39.034,6,8.4375
13:45:39.036,6.875,8.375
13:45:39.074,5.875,7.625
13:45:39.076,6.25,8.125
13:45:39.079,5.625,6.6875
13:45:39.082,5.375,8
13:45:39.087,5.8125,6
13:45:39.095,4.875,6.8125
13:45:39.116,5.25,5.6875
13:45:39.118,5.1875,4.0625
13:45:39.125,4.5625,5.5625
13:45:39.133,4.9375,3.9375
13:45:39.143,4.6875,5.0625
13:45:39.153,4.375,3.5
13:45:39.164,4.5625,4.6875
13:45:39.173,4.3125,3.0625
13:45:39.183,4.0625,4.125
13:45:39.194,4.0625,2.875
13:45:39.205,4.0625,3
13:45:39.214,3.625,2.75
13:45:39.224,4.125,3.25
13:45:39.233,3.6875,3.0625
13:45:39.244,3.6875,2.0625
13:45:39.254,3.1875,1.5
13:45:39.264,3.375,1.6875
13:45:39.273,3.4375,1
13:45:39.285,2.875,0.6875
13:45:39.293,2.375,0.4375
13:45:39.304,2.875,-0.125
13:45:39.313,2.0625,0.625
13:45:39.323,2.9375,-0.6875
13:45:39.333,2.125,-1.5
13:45:39.344,2.25,-1.1875
13:45:39.353,1.9375,-2
13:45:39.363,1.875,-1.9375
13:45:39.374,2.1875,-1.25
13:45:39.383,1.625,-2.3125
13:45:39.395,1.5,-3.4375
13:45:39.403,1.5625,-2.3125
13:45:39.413,1.8125,-3
13:45:39.424,1.4375,-3.0625
13:45:39.433,1.1875,-2.5625
13:45:39.444,1.75,-3.625
13:45:39.453,0.9375,-2.4375
13:45:39.465,1.5625,-3.875
13:45:39.473,1.25,-2.75
13:45:39.483,1.875,-3.6875
13:45:39.493,1.0625,-3.0625
13:45:39.504,1.5625,-4.3125
13:45:39.514,1,-3.875
13:45:39.523,0.9375,-4
13:45:39.553,1.3125,-4.1875
13:45:39.555,1.0625,-4
13:45:39.558,1.4375,-4.5625
13:45:39.564,0.625,-4.4375
13:45:39.575,1.5,-4.6875
13:45:39.584,1.4375,-4.875
13:45:39.593,1.25,-4.875
13:45:39.604,0.9375,-4.125
13:45:39.614,1.25,-4.625
13:45:39.623,1.5625,-3.875
13:45:39.634,1.3125,-5.0625
13:45:39.644,1.125,-4.0625
13:45:39.657,0.625,-4.4375
13:45:39.664,1.0625,-4.4375
13:45:39.703,1.0625,-3.75
13:45:39.707,2.0625,-4.125
13:45:39.707,1.5,-4.375
13:45:39.711,1.3125,-3.75
13:45:39.744,1.3125,-5.1875
13:45:39.745,1.1875,-3.0625
13:45:39.747,2.0625,-2.875
13:45:39.775,2,-1.9375
13:45:39.776,2.6875,0.6875
13:45:39.778,3.9375,1.8125
13:45:39.780,4.625,5.0625
13:45:39.785,5.9375,5.1875
13:45:39.816,6.5625,6.75
13:45:39.820,5.75,6
13:45:39.821,5.1875,6.875
13:45:39.847,6.25,6.1875
13:45:39.847,5.9375,6.125
13:45:39.849,5.75,5.6875
13:45:39.855,5.4375,6.75
13:45:39.865,5.75,5.75
13:45:39.874,5.5625,6.5625
13:45:39.890,6.0625,6.5625
13:45:39.904,5.75,6.6875
13:45:39.907,6.125,6.3125
13:45:39.915,5.5,7.625
13:45:39.923,6,5.875
13:45:39.933,5.6875,5.4375
13:45:39.945,6.125,5.5625
13:45:39.954,5.3125,6.125
13:45:39.963,5.375,4.9375
13:45:39.973,5.1875,3.5625
13:45:39.983,4.5,4.75
13:45:39.993,4.3125,4
13:45:40.004,4.5625,3.5
13:45:40.013,4,3.125
13:45:40.023,4.125,3.1875
13:45:40.034,4.4375,2.4375
13:45:40.044,4.3125,3.9375
13:45:40.053,4.3125,2.8125
13:45:40.063,4,3.125
13:45:40.074,4.5,2.6875
13:45:40.084,3.75,2.4375
13:45:40.094,4.5,1.9375
13:45:40.104,3.25,1.875
13:45:40.113,3.625,1.5625
13:45:40.124,3.375,0.9375
13:45:40.133,3.875,0.625
13:45:40.144,2.5625,0.3125
13:45:40.155,3.625,-0.3125
13:45:40.164,2.1875,-0.75
13:45:40.173,2.3125,-0.125
13:45:40.183,2.875,-0.9375
13:45:40.193,2.4375,-0.875
13:45:40.204,2.5,-1.75
13:45:40.214,1.9375,-0.5625
13:45:40.224,2.5625,-2.5625
13:45:40.233,1.9375,-1.5
13:45:40.244,2.3125,-2.625
13:45:40.253,1.875,-3
13:45:40.264,2,-2.25
13:45:40.273,2,-3.375
13:45:40.283,1.8125,-2.375
13:45:40.293,1.75,-4.125
13:45:40.303,1.875,-3.4375
13:45:40.314,1.6875,-4.4375
13:45:40.323,1.5,-3.375
13:45:40.333,1.3125,-3.625
13:45:40.344,1.6875,-3.875
13:45:40.354,1.25,-3.5625
13:45:40.364,1.625,-4.5625
13:45:40.374,1.125,-3.6875
13:45:40.385,1.875,-4.875
13:45:40.393,1.25,-3.5625
13:45:40.410,1.75,-4.4375
13:45:40.413,1.4375,-3.5625
13:45:40.436,1.5,-4.9375
13:45:40.438,1.125,-3.625
13:45:40.470,1.8125,-4.5625
13:45:40.472,1.3125,-4.625
13:45:40.475,2.25,-5
13:45:40.479,1.6875,-4.625
13:45:40.485,1.75,-4.75
13:45:40.514,1.625,-4.625
13:45:40.518,1.8125,-5.25
13:45:40.519,1.9375,-4.3125
13:45:40.524,1.375,-4.9375
13:45:40.553,1.8125,-5.1875
13:45:40.555,0.6875,-5.0625
13:45:40.559,1.3125,-5.1875
13:45:40.564,1.5625,-4.3125
13:45:40.597,0.9375,-5.125
13:45:40.598,1.0625,-3.625
13:45:40.601,1.4375,-2.875
13:45:40.608,2.375,0.0625
13:45:40.616,3,1.25
13:45:40.625,3.3125,2.75
13:45:40.636,3.8125,3.875
13:45:40.644,4.25,4.5
13:45:40.653,4.3125,4.75
13:45:40.664,4.3125,5.5
13:45:40.673,4.5,5.0625
13:45:40.685,3.875,5.125
13:45:40.693,4,3.8125
13:45:40.703,4.125,4.875
13:45:40.713,3.875,4.5625
13:45:40.723,4.0625,5.125
13:45:40.734,3.8125,4.1875
13:45:40.744,3.625,4.6875
13:45:40.753,3.875,4.25
13:45:40.763,3.6875,4.625
13:45:40.773,3.9375,3.375
13:45:40.785,4.0625,3.5
13:45:40.793,3.375,4.125
13:45:40.803,3.75,3
13:45:40.833,2.75,3.0625
13:45:40.836,2.9375,2.6875
13:45:40.838,2.75,1.375
13:45:40.845,2.875,2.4375
13:45:40.853,3.4375,1.875
13:45:40.863,2.5625,2.125
13:45:40.873,3.0625,1.9375
13:45:40.885,2.5625,1.5
13:45:40.899,2.75,0.6875
13:45:40.909,1.6875,0.75
13:45:40.918,2.25,0.9375
13:45:40.929,2,1.3125
13:45:40.938,2.5625,0
13:45:40.949,1.375,-0.125
13:45:40.959,2.0625,-0.5625
13:45:40.969,1.6875,-0.5625
13:45:40.978,1.8125,-1.25
13:45:40.988,1.0625,-1.8125
13:45:40.998,1,-0.75
13:45:41.021,1.75,-2.875
13:45:41.024,0.8125,-0.875
13:45:41.038,1,-3.25
13:45:41.041,0.0625,-2.0625
13:45:41.056,0.3125,-4.1875
13:45:41.058,-0.1875,-3.5
13:45:41.068,-0.375,-4.1875
13:45:41.078,0.3125,-4.1875
13:45:41.087,-0.625,-3.8125
13:45:41.098,0.0625,-4.1875
13:45:41.114,-1.3125,-4.125
13:45:41.118,-0.625,-5.5625
13:45:41.145,-0.4375,-4.5625
13:45:41.147,-0.8125,-6.0625
13:45:41.149,-0.5,-5.125
13:45:41.181,-0.5625,-4.25
13:45:41.215,-1,-5.75
13:45:41.217,-0.8125,-5.5625
13:45:41.246,-0.6875,-6
13:45:41.246,-0.4375,-6.25
13:45:41.246,-0.25,-5.125
13:45:41.293,-0.375,-5.5625
13:45:41.295,-0.375,-5.8125
13:45:41.299,-0.3125,-4.1875
13:45:41.299,-0.4375,-5.1875
13:45:41.299,-0.5,-4.3125
13:45:41.301,0.3125,-5.4375
13:45:41.302,0.125,-5
13:45:41.308,0.125,-5.3125
13:45:41.313,0.125,-5.375
13:45:41.323,0.1875,-5.4375
13:45:41.332,-0.125,-5.0625
13:45:41.343,0.75,-5.75
13:45:41.353,0.25,-4.625
13:45:41.363,0.375,-5.75
13:45:41.373,0.125,-5.75
13:45:41.383,-0.4375,-5.3125
13:45:41.393,-1,-5.75
13:45:41.403,-1.9375,-5.125
13:45:41.413,-1.75,-6
13:45:41.423,-1.9375,-5
13:45:41.433,-1.6875,-4.8125
13:45:41.444,-2.3125,-1.5625
13:45:41.454,-1.8125,0.5625
13:45:41.463,-1.4375,1.5
13:45:41.473,-1.9375,2.8125
13:45:41.484,-3.25,2.0625
13:45:41.493,-5,0.9375
13:45:41.503,-8.125,-0.3125
13:45:41.513,-10.5,-1.6875
13:45:41.523,-12.125,-3.1875
13:45:41.533,-14.5001,-5.4375
13:45:41.542,-17.6251,-6.0625
13:45:41.552,-21.8126,-8.3125
13:45:41.564,-27.6876,-12.875
13:45:41.573,-35.7501,-16.1876
13:45:41.583,-44.8752,-22.3126
13:45:41.593,-51.8752,-26.0626
13:45:41.602,-55.8752,-28.9376
13:45:41.612,-57.3752,-30.3751
13:45:41.623,-57.0002,-30.0001
13:45:41.633,-56.3752,-30.4376
13:45:41.644,-55.0002,-29.7501
13:45:41.654,-54.6877,-30.0001
13:45:41.663,-54.0627,-29.5001
13:45:41.673,-53.3127,-28.1251
13:45:41.682,-51.8127,-28.9376
13:45:41.692,-51.1252,-27.3751
13:45:41.704,-49.5627,-28.2501
13:45:41.712,-48.1877,-26.3126
13:45:41.723,-47.1877,-26.3751
13:45:41.733,-47.0002,-26.7501
13:45:41.743,-47.1877,-26.5001
13:45:41.753,-46.5627,-25.9376
13:45:41.764,-45.3752,-26.3751
13:45:41.774,-44.5627,-25.6876
13:45:41.782,-43.4377,-25.3751
13:45:41.792,-43.1252,-25.9376
13:45:41.803,-42.3127,-25.1251
13:45:41.812,-41.5627,-25.1251
13:45:41.823,-40.5002,-25.3751
13:45:41.833,-40.0627,-24.5001
13:45:41.842,-39.8127,-25.7501
13:45:41.853,-39.2502,-25.5001
13:45:41.880,-39.1251,-26.3126
13:45:41.882,-37.5001,-26.1251
13:45:41.884,-36.6251,-25.0001
13:45:41.918,-35.8751,-25.3751
13:45:41.919,-34.6251,-24.1251
13:45:41.923,-33.7501,-24.3126
13:45:41.925,-32.8751,-24.8126
13:45:41.954,-32.3126,-23.6876
13:45:41.957,-32.0626,-23.5001
13:45:41.960,-30.7501,-24.1876
13:45:41.965,-30.8126,-23.8751
13:45:41.994,-30.4376,-24.5626
13:45:41.997,-30.5626,-24.3751
13:45:41.998,-30.0001,-24.0001
13:45:42.029,-28.5626,-24.4376
13:45:42.036,-27.7501,-23.5001
13:45:42.047,-27.4376,-22.3126
13:45:42.049,-25.7501,-22.6876
13:45:42.049,-26.1251,-22.1876
13:45:42.056,-25.3751,-22.8126
13:45:42.066,-25.5001,-21.3751
13:45:42.073,-25.7501,-22.0626
13:45:42.082,-25.2501,-22.3751
13:45:42.114,-25.8126,-22.6251
13:45:42.117,-26.0626,-23.1251
13:45:42.118,-26.4376,-23.1251
13:45:42.125,-27.0626,-23.1876
13:45:42.133,-26.5001,-22.8126
13:45:42.142,-27.1251,-22.3126
13:45:42.152,-25.9376,-22.6251
13:45:42.164,-25.5626,-22.0001
13:45:42.173,-25.2501,-21.5626
13:45:42.182,-25.0626,-21.6876
13:45:42.194,-25.5626,-21.6251
13:45:42.202,-25.7501,-21.5626
13:45:42.213,-26.5626,-22.6251
13:45:42.225,-27.2501,-22.3126
13:45:42.232,-27.5626,-22.9376
13:45:42.242,-27.3751,-23.1251
13:45:42.254,-27.5001,-22.3751
13:45:42.263,-26.3751,-22.6876
13:45:42.272,-25.9376,-21.0626
13:45:42.283,-24.6876,-21.1251
13:45:42.294,-24.7501,-20.6876
13:45:42.304,-24.3751,-20.6876
13:45:42.324,-23.1876,-20.7501
13:45:42.330,-21.3126,-18.3126
13:45:42.346,-21.3751,-17.3126
13:45:42.347,-20.6876,-16.0001
13:45:42.356,-19.6251,-13.5626
13:45:42.362,-19.5001,-12.125
13:45:42.372,-18.9376,-9.375
13:45:42.383,-19.1251,-7.375
13:45:42.393,-18.4376,-6.8125
13:45:42.403,-17.6876,-4.9375
13:45:42.414,-16.9376,-4.75
13:45:42.423,-16.6251,-3.6875
13:45:42.432,-16.5001,-4.125
13:45:42.444,-16.5626,-3.3125
13:45:42.454,-16.1251,-3.0625
13:45:42.463,-15.4376,-3.5625
13:45:42.473,-15.9376,-2.6875
13:45:42.482,-14.5001,-2.9375
13:45:42.492,-15.1876,-2.6875
13:45:42.504,-14.5626,-2
13:45:42.514,-14.1876,-1.125
13:45:42.524,-13.0625,-1
13:45:42.534,-12.6875,-1.5625
13:45:42.542,-12.6875,-1.4375
13:45:42.558,-12.0625,-0.625
13:45:42.590,-10.75,-1.625
13:45:42.628,-9.625,-0.375
13:45:42.629,-9.25,-1.3125
13:45:42.629,-8.875,-1.25
13:45:42.631,-8.5625,-0.6875
13:45:42.635,-7.875,-0.25
13:45:42.638,-6.75,-1.25
13:45:42.665,-6,-0.3125
13:45:42.666,-5.125,-0.625
13:45:42.669,-4.75,-0.1875
13:45:42.695,-4.5,0.9375
13:45:42.697,-4.0625,0.5
13:45:42.698,-4.1875,-0.5
13:45:42.700,-4.1875,-0.4375
13:45:42.708,-3.75,-0.5
13:45:42.714,-4.875,-1.5
13:45:42.722,-4.6875,-2.375
13:45:42.744,-5,-3.4375
13:45:42.746,-6.0625,-4.375
13:45:42.753,-5.6875,-4.9375
13:45:42.764,-5.9375,-6.25
13:45:42.773,-6,-6.375
13:45:42.782,-5.75,-6.375
13:45:42.792,-6,-7.6875
13:45:42.808,-5.375,-8.0625
13:45:42.812,-4.875,-7.8125
13:45:42.823,-5.5,-8.9375
13:45:42.833,-6.25,-8.75
13:45:42.843,-5.8125,-9.375
13:45:42.853,-5.25,-10.75
13:45:42.863,-6.1875,-11.5
13:45:42.876,-6.0625,-11
13:45:42.882,-6.5625,-11.4375
13:45:42.892,-6.1875,-11.5625
13:45:42.902,-6.0625,-11.3125
13:45:42.912,-5.3125,-11
13:45:42.924,-5.125,-9.8125
13:45:42.933,-3.6875,-9.1875
13:45:42.944,-3.9375,-8.1875
13:45:42.953,-2.9375,-7.875
13:45:42.962,-3,-7.3125
13:45:42.972,-3.4375,-7.8125
13:45:42.984,-3.875,-7.4375
13:45:42.994,-4.75,-7.75
13:45:43.002,-4.75,-8.4375
13:45:43.012,-4.875,-8.6875
13:45:43.022,-5.8125,-8.5
13:45:43.032,-6.1875,-8.3125
13:45:43.044,-6.6875,-8.4375
13:45:43.053,-6.375,-8.6875
13:45:43.062,-7.3125,-9.9375
13:45:43.072,-7.1875,-9.5625
13:45:43.082,-7.875,-9.4375
13:45:43.094,-8.3125,-9.3125
13:45:43.103,-7.6875,-9.6875
13:45:43.112,-6.9375,-9.4375
13:45:43.122,-6.375,-9
13:45:43.133,-6.625,-9.4375
13:45:43.142,-6.125,-8.5625
13:45:43.152,-5.5,-7.4375
13:45:43.162,-5.25,-7.9375
13:45:43.173,-4.0625,-7
13:45:43.182,-3.25,-5.5
13:45:43.193,-0.6875,-1.9375
13:45:43.202,-0.25,2
13:45:43.212,0.5,4.875
13:45:43.222,1.375,6.875
13:45:43.232,2.0625,6.875
13:45:43.243,1.75,7.4375
13:45:43.252,0.8125,6.5
13:45:43.262,-0.4375,7
13:45:43.272,-0.375,7.1875
13:45:43.308,-0.75,6.375
13:45:43.310,-0.375,7.5625
13:45:43.312,-0.0625,7.75
13:45:43.315,-0.25,7.5625
13:45:43.345,0,7.9375
13:45:43.347,0.3125,8.0625
13:45:43.351,-0.375,7.625
13:45:43.353,0.6875,8.1875
13:45:43.396,0.3125,8.25
13:45:43.399,0.5,7.75
13:45:43.400,-0.4375,7
13:45:43.405,-0.1875,6.9375
13:45:43.408,-0.375,6.4375
13:45:43.414,-0.25,6.25
13:45:43.452,0.5625,6.125
13:45:43.455,1.4375,6.3125
13:45:43.457,2.0625,6.75
13:45:43.460,1.75,6.4375
13:45:43.465,2.3125,6.1875
13:45:43.473,3.0625,6.625
13:45:43.482,3.125,6.875
13:45:43.492,2.9375,6.125
13:45:43.504,3.5,6.125
13:45:43.512,4.3125,6.1875
13:45:43.522,4,6.0625
13:45:43.533,5.4375,6.1875
13:45:43.542,5.1875,5.75
13:45:43.559,5.1875,6.25
13:45:43.563,6.0625,5.25
13:45:43.572,5.4375,5.8125
13:45:43.582,5.0625,3.625
13:45:43.592,4.5625,3.9375
13:45:43.603,5.0625,3.0625
13:45:43.613,4.25,2.5
13:45:43.631,4.1875,2
13:45:43.637,3.6875,1.4375
13:45:43.652,4,-0.25
13:45:43.655,3.25,0.5
13:45:43.669,3.4375,-1.4375
13:45:43.673,3,-1.0625
13:45:43.682,2.9375,-1.6875
13:45:43.692,2.875,-2.5625
13:45:43.703,3.125,-1.75
13:45:43.712,4,-2.25
13:45:43.722,3.375,-2.375
13:45:43.734,3.8125,-3
13:45:43.743,3.6875,-2.6875
13:45:43.753,4.9375,-3.3125
13:45:43.762,4.1875,-3.1875
13:45:43.772,4.375,-3.75
13:45:43.784,3.6875,-4.3125
13:45:43.793,4.1875,-3.125
13:45:43.802,4.625,-4
13:45:43.812,4.5,-4.375
13:45:43.822,4.75,-2.75
13:45:43.832,4.875,-3.4375
13:45:43.842,4.4375,-2.625
13:45:43.852,4.3125,-3.6875
13:45:43.872,3.625,-4
13:45:43.875,3.0625,-4
13:45:43.892,2.5,-4.5625
13:45:43.909,1.125,-4.5
13:45:43.909,0.6875,-4.875
13:45:43.913,0.1875,-4.375
13:45:43.922,-0.3125,-5.8125
13:45:43.934,-1,-4.75
13:45:43.944,-0.125,-5.75
13:45:43.952,-0.3125,-5.125
13:45:43.962,-0.5,-5.1875
13:45:43.972,0.0625,-5.4375
13:45:43.982,-1.6875,-6.125
13:45:43.992,-1.5,-6.3125
13:45:44.002,-2,-6
13:45:44.012,-2.25,-6.625
13:45:44.024,-2,-4.3125
13:45:44.032,-1.5,-3.75
13:45:44.042,-0.375,-1.1875
13:45:44.052,1.8125,2.25
13:45:44.062,2.375,3.8125
13:45:44.072,3.9375,5.4375
13:45:44.091,4.75,6.5625
13:45:44.093,6.5,8.5625
13:45:44.119,6.1875,10.1875
13:45:44.121,5.75,9.9375
13:45:44.123,5.8125,10.25
13:45:44.163,4.1875,10.0625
13:45:44.164,3.5,9.75
13:45:44.165,3.8125,9.4375
13:45:44.169,3.625,9.375
13:45:44.172,4.0625,10
13:45:44.199,3.875,10.75
13:45:44.202,2.625,9.5
13:45:44.206,2.375,10.1875
13:45:44.238,2.0625,9.1875
13:45:44.241,2,9.5
13:45:44.243,1.375,9.625
13:45:44.246,1.25,9.3125
13:45:44.253,1.8125,8.75
13:45:44.262,1.3125,8.5625
13:45:44.272,2.25,8.625
13:45:44.283,1.375,7.75
13:45:44.293,1,7.625
13:45:44.309,2.0625,7.8125
13:45:44.314,1.8125,7.1875
13:45:44.322,2.25,7.875
13:45:44.334,2.0625,7.3125
13:45:44.343,2.6875,7.125
13:45:44.352,3.375,6.875
13:45:44.362,3.8125,7.6875
13:45:44.373,3.75,6.5625
13:45:44.382,4,7.0625
13:45:44.392,3.9375,5.875
13:45:44.402,4.6875,6.625
13:45:44.412,5.1875,5.6875
13:45:44.423,4.9375,5.8125
13:45:44.432,6.4375,5.5
13:45:44.442,5.4375,4.5625
13:45:44.452,6.5625,5.1875
13:45:44.462,6.5625,3.625
13:45:44.473,6,4.9375
13:45:44.482,5.5,3.3125
13:45:44.492,5.6875,2.4375
13:45:44.502,5.6875,2.125
13:45:44.512,5.75,1.5
13:45:44.522,5.75,1
13:45:44.533,5.375,0.125
13:45:44.542,5.125,0.6875
13:45:44.552,4.5625,-1.1875
13:45:44.562,3.9375,-1.375
13:45:44.572,4.8125,-1.4375
13:45:44.582,4.9375,-1.8125
13:45:44.592,4.625,-2.0625
13:45:44.602,5.125,-1.6875
13:45:44.612,5.9375,-2.3125
13:45:44.622,5.875,-2.0625
13:45:44.632,7.1875,-2.0625
13:45:44.642,7,-2.0625
13:45:44.672,6.75,-1
13:45:44.675,7.0625,-2.3125
13:45:44.677,6.125,-1
13:45:44.689,5.5625,-3.0625
13:45:44.692,4.75,-3.875
13:45:44.703,4.5625,-3.0625
13:45:44.713,3.875,-4.125
13:45:44.722,3,-4.0625
13:45:44.732,1.625,-5.6875
13:45:44.742,0.5625,-5.75
13:45:44.752,-0.0625,-5.5625
13:45:44.762,-0.375,-6.3125
13:45:44.772,-1.25,-6.1875
13:45:44.783,-1.75,-7.375
13:45:44.802,-1.75,-6.375
13:45:44.804,-1.375,-7.25
13:45:44.832,-1.625,-7.1875
13:45:44.834,-2.1875,-7.4375
13:45:44.838,-3.875,-6.375
13:45:44.842,-3.6875,-8.625
13:45:44.876,-4.3125,-6.625
13:45:44.878,-2.75,-7.125
13:45:44.881,-2.5625,-3.1875
13:45:44.883,-2.125,-1.375
13:45:44.914,0.1875,0.4375
13:45:44.916,2.875,4.3125
13:45:44.918,2.4375,6.875
13:45:44.925,3.3125,8.375
13:45:44.953,3.875,8.0625
13:45:44.956,3,7.4375
13:45:44.977,2.125,6.875
13:45:44.983,0.6875,7.6875
13:45:44.983,0.625,7.1875
13:45:44.985,0.9375,6.875
13:45:44.992,0.5625,8
13:45:45.002,1.3125,7.8125
13:45:45.012,2.3125,9.125
13:45:45.022,2.375,9.25
13:45:45.032,2.5,9.375
13:45:45.044,2.5625,9
13:45:45.053,1.8125,8.4375
13:45:45.063,1.8125,8
13:45:45.074,1.9375,7.6875
13:45:45.082,1.3125,6.25
13:45:45.093,1.25,6.125
13:45:45.102,1.1875,5.25
13:45:45.112,1.375,6.9375
13:45:45.122,2.5625,6.25
13:45:45.132,1.9375,5.625
13:45:45.142,1.8125,5.4375
13:45:45.152,2.5,6.375
13:45:45.164,2.3125,5.6875
13:45:45.181,3.9375,5.5625
13:45:45.183,3.125,5.75
13:45:45.199,4.125,5.375
13:45:45.214,4.0625,5.125
13:45:45.216,4.3125,5.625
13:45:45.224,5.3125,4.75
13:45:45.232,5.75,5.1875
13:45:45.242,5.8125,4.625
13:45:45.252,6.375,4.625
13:45:45.262,6,3.9375
13:45:45.273,6.25,3.75
13:45:45.282,5,2.8125
13:45:45.292,5.8125,2.25
13:45:45.303,5.125,1.875
13:45:45.312,4.625,1.5625
13:45:45.322,4.875,0.125
13:45:45.333,3.625,0
13:45:45.342,3.8125,-0.5625
13:45:45.352,3.6875,-1.9375
13:45:45.362,3.25,-2.5625
13:45:45.372,4.5625,-2.25
13:45:45.382,3,-3.1875
13:45:45.392,2.8125,-3.25
13:45:45.402,4.125,-4.25
13:45:45.412,3.625,-4.4375
13:45:45.425,3.875,-4.1875
13:45:45.432,5.3125,-4.4375
13:45:45.447,4.25,-4.375
13:45:45.453,5.375,-4.75
13:45:45.462,4.3125,-4.5
13:45:45.500,5.375,-4.25
13:45:45.501,4,-4.375
13:45:45.502,4.875,-5.375
13:45:45.505,3.375,-5.0625
13:45:45.513,3.3125,-5.375
13:45:45.548,2.4375,-5.625
13:45:45.549,1.625,-5.875
13:45:45.553,1,-5.875
13:45:45.554,0.0625,-5.9375
13:45:45.581,0.4375,-6.9375
13:45:45.584,0,-6
13:45:45.586,0,-6.25
13:45:45.592,-0.5,-6.125
13:45:45.620,-1.5625,-6.9375
13:45:45.622,-2.1875,-7.375
13:45:45.624,-3.125,-7.4375
13:45:45.653,-3.75,-8.3125
13:45:45.655,-5.4375,-9.25
13:45:45.658,-4.875,-8.8125
13:45:45.665,-5,-9.4375
13:45:45.674,-4.875,-8.5625
13:45:45.683,-5,-9.625
13:45:45.692,-6.0625,-8.9375
13:45:45.702,-6,-9.4375
13:45:45.713,-6.375,-7.9375
13:45:45.722,-4.875,-7.0625
13:45:45.732,-1.1875,-2.9375
13:45:45.742,2.1875,2.75
13:45:45.752,3.8125,6.125
13:45:45.762,6.0625,9.0625
13:45:45.772,6.25,10.0625
13:45:45.782,6.0625,10.25
13:45:45.792,4.9375,10.25
13:45:45.804,3.5625,10.625
13:45:45.813,3.1875,10.625
13:45:45.822,3.4375,10.0625
13:45:45.832,3.75,10.8125
13:45:45.842,4.6875,11.1875
13:45:45.852,6.25,12.125
13:45:45.862,7,13.0625
13:45:45.872,8.125,13.9376
13:45:45.882,7.8125,14.8751
13:45:45.892,8.25,14.4376
13:45:45.903,8.0625,14.6876
13:45:45.913,8.625,14.5626
13:45:45.922,8.0625,14.4376
13:45:45.953,7.3125,13.0625
13:45:45.955,6.9375,12.875
13:45:45.957,7.1875,12.75
13:45:45.962,6.1875,12.0625
13:45:45.972,7.4375,12.125
13:45:45.983,6.75,12.0625
13:45:45.992,6.6875,13.1251
13:45:46.003,8.1875,12.3125
13:45:46.012,8.5625,13.3751
13:45:46.022,9.3125,13
13:45:46.033,9.125,12.25
13:45:46.042,13.6251,15.3126
13:45:46.052,20.1876,17.4376
13:45:46.063,22.6876,19.1251
13:45:46.072,25.6876,20.0001
13:45:46.082,25.8751,20.0626
13:45:46.092,27.4376,19.9376
13:45:46.102,27.0626,19.8126
13:45:46.112,28.3126,19.3751
13:45:46.124,28.0626,19.2501
13:45:46.133,29.1251,19.5001
13:45:46.142,29.6876,19.4376
13:45:46.152,33.0001,20.2501
13:45:46.162,35.1876,21.2501
13:45:46.172,39.6877,22.9376
13:45:46.182,42.0002,24.0626
13:45:46.197,44.3752,25.9376
13:45:46.202,47.3752,26.3751
13:45:46.213,49.0002,27.6251
13:45:46.222,52.7502,27.9376
13:45:46.232,52.1877,30.1876
13:45:46.242,51.9377,28.7501
13:45:46.275,52.4377,31.6876
13:45:46.350,53.6252,30.9376
13:45:46.351,54.3127,33.1251
13:45:46.352,55.5627,32.8126
13:45:46.354,55.6877,34.4376
13:45:46.361,56.8127,33.7501
13:45:46.361,56.0002,34.1251
13:45:46.361,56.1252,33.3126
13:45:46.369,55.6252,32.0626
13:45:46.399,55.0627,33.2501
13:45:46.401,55.0002,31.5001
13:45:46.404,54.4377,31.9376
13:45:46.407,54.6252,31.3126
13:45:46.442,53.4377,31.0626
13:45:46.446,53.2502,30.1251
13:45:46.447,52.4377,30.2501
13:45:46.450,52.6877,29.4376
13:45:46.459,51.8752,29.2501
13:45:46.467,50.8127,29.5626
13:45:46.477,50.2502,27.1876
13:45:46.487,48.7502,26.7501
13:45:46.507,47.8752,26.7501
13:45:46.510,47.8127,26.0001
13:45:46.520,46.6252,24.6876
13:45:46.527,47.1877,23.7501
13:45:46.542,46.2502,24.1876
13:45:46.549,45.6877,23.6251
13:45:46.557,45.0002,23.2501
13:45:46.572,44.8752,24.0626
13:45:46.577,44.1877,22.7501
13:45:46.587,43.3752,22.3126
13:45:46.597,43.1252,20.5626
13:45:46.607,42.0002,21.0626
13:45:46.617,41.5627,19.9376
13:45:46.628,41.3752,19.7501
13:45:46.637,40.1877,19.4376
13:45:46.647,39.3126,20.3126
13:45:46.657,39.3751,19.8126
13:45:46.667,39.8127,20.9376
13:45:46.677,40.1252,24.0626
13:45:46.687,40.3127,24.5001
13:45:46.697,40.5002,26.3126
13:45:46.707,40.5627,26.5626
13:45:46.717,40.5627,26.7501
13:45:46.728,39.2502,26.4376
13:45:46.737,39.3127,26.6251
13:45:46.747,38.8126,26.2501
13:45:46.757,38.6251,26.0001
13:45:46.767,38.3751,25.8751
13:45:46.777,37.1251,25.7501
13:45:46.787,37.0001,25.3126
13:45:46.797,36.5001,25.5001
13:45:46.807,36.0626,25.1251
13:45:46.817,35.3751,24.8751
13:45:46.827,35.0001,24.3126
13:45:46.837,34.6876,24.3126
13:45:46.847,34.1876,23.4376
13:45:46.857,33.5626,23.0626
13:45:46.867,33.1251,21.6876
13:45:46.877,31.7501,21.8126
13:45:46.887,32.0001,20.9376
13:45:46.897,30.4376,20.3751
13:45:46.907,29.7501,20.6876
13:45:46.917,30.0001,18.6876
13:45:46.927,28.7501,19.0626
13:45:46.939,28.5626,18.3126
13:45:46.957,27.5626,17.1876
13:45:46.959,27.6251,17.0001
13:45:46.968,27.5626,16.6251
13:45:47.001,27.1251,16.0001
13:45:47.003,26.5001,14.8126
13:45:47.005,26.1251,15.3751
13:45:47.007,25.3126,14.5001
13:45:47.039,25.0001,14.3126
13:45:47.043,24.1251,12.625
13:45:47.047,23.5626,13.3751
13:45:47.049,23.0626,12.1875
13:45:47.082,22.6251,12.1875
13:45:47.088,22.3126,10.1875
13:45:47.088,21.7501,11.0625
13:45:47.090,21.3751,9.25
13:45:47.125,20.3751,9.6875
13:45:47.126,20.2501,8.5
13:45:47.128,20.0001,8.4375
13:45:47.133,18.8126,7.25
13:45:47.137,18.9376,7.6875
13:45:47.152,19.0626,6.9375
13:45:47.157,18.2501,7.0625
13:45:47.167,18.7501,6.3125
13:45:47.177,17.3751,6.375
13:45:47.187,17.5001,6
13:45:47.197,16.2501,5.6875
13:45:47.208,16.5001,5.625
13:45:47.234,16.0626,4.6875
13:45:47.236,16.2501,4.6875
13:45:47.238,15.7501,4.3125
13:45:47.249,16.3751,5
13:45:47.260,15.6251,4.0625
13:45:47.267,16.0626,4.125
13:45:47.277,15.5001,3.125
13:45:47.287,15.0626,4.0625
13:45:47.297,15.1876,3.5625
13:45:47.307,14.6876,2.1875
13:45:47.317,14.8126,3.4375
13:45:47.327,15.4376,2.5
13:45:47.337,14.4376,1.625
13:45:47.347,14.1876,3.0625
13:45:47.357,14.5626,1.9375
13:45:47.367,13.9376,1.25
13:45:47.377,13.9376,1.4375
13:45:47.388,14.1876,0.5
13:45:47.399,13.6876,0.9375
13:45:47.407,14.0001,0.8125
13:45:47.417,13.5626,0.5625
13:45:47.428,13.6876,0.875
13:45:47.437,13.4376,-0.125
13:45:47.447,13,0.4375
13:45:47.457,12.0625,0.1875
13:45:47.467,13.3751,0
13:45:47.477,12,0.0625
13:45:47.487,12.625,-0.25
13:45:47.497,11.875,0.0625
13:45:47.507,12,0.5
13:45:47.518,12.125,0
13:45:47.528,11.1875,1.3125
13:45:47.537,12.25,1.375
13:45:47.548,11.8125,3.25
13:45:47.559,12.5,4.875
13:45:47.568,13.3751,7.5
13:45:47.579,14.7501,9.3125
13:45:47.590,14.8751,11.875
13:45:47.597,14.6251,11.25
13:45:47.614,14.8126,12.25
13:45:47.621,15.0001,11.8125
13:45:47.636,14.5001,12.125
13:45:47.639,15.3751,11.875
13:45:47.653,14.8751,12.6875
13:45:47.657,14.4376,12.1875
13:45:47.667,15.0626,10.9375
13:45:47.677,15.0626,12.125
13:45:47.719,14.7501,11.5
13:45:47.720,14.3751,12.375
13:45:47.724,14.5001,12
13:45:47.725,14.8126,12.5625
13:45:47.727,13.9376,10.9375
13:45:47.762,13.9376,11.625
13:45:47.764,13.0625,10.3125
13:45:47.768,12.9375,10.8125
13:45:47.772,12.375,9.5
13:45:47.777,12,9.8125
13:45:47.808,12.9375,9.25
13:45:47.810,11.375,8.875
13:45:47.812,11,9.0625
13:45:47.818,11,8.5625
13:45:47.854,10.6875,7.625
13:45:47.855,10.9375,8.4375
13:45:47.869,10.0625,6.875
13:45:47.874,10.375,8.125
13:45:47.886,10.1875,6.9375
13:45:47.887,9.625,6.6875
13:45:47.903,9.875,5.875
13:45:47.906,9.0625,6.1875
13:45:47.910,8.75,5.0625
13:45:47.917,8.625,4.3125
13:45:47.928,8.3125,5
13:45:47.937,9,3.4375
13:45:47.948,8.4375,4.75
13:45:47.957,8.4375,3
13:45:47.967,8.125,1.875
13:45:47.977,8.375,2.3125
13:45:47.991,8.3125,1.0625
13:45:47.997,7.625,1.4375
13:45:48.008,7.9375,1.125
13:45:48.017,7.9375,0.4375
13:45:48.027,7.6875,-0.0625
13:45:48.037,7.3125,-0.25
13:45:48.048,6.5625,0.6875
13:45:48.059,7.6875,-1.0625
13:45:48.067,7.375,-1.9375
13:45:48.077,6.5625,-1.125
13:45:48.087,6.5625,-1.875
13:45:48.097,6.8125,-1.1875
13:45:48.107,6.5625,-2.1875
13:45:48.117,6.75,-1.1875
13:45:48.127,6.375,-2.3125
13:45:48.137,6.625,-2.75
13:45:48.147,7,-2.3125
13:45:48.159,5.9375,-2.8125
13:45:48.169,6.8125,-2.4375
13:45:48.177,6.25,-3.0625
13:45:48.187,5.6875,-1.5625
13:45:48.197,5.8125,-2.375
13:45:48.207,5.375,-1.625
13:45:48.217,6.25,-2.875
13:45:48.227,6.0625,-2.3125
13:45:48.237,5.75,-3.3125
13:45:48.248,5.6875,-2.0625
13:45:48.259,5.375,-3.6875
13:45:48.267,5.875,-2.375
13:45:48.284,5.75,-3.375
13:45:48.287,6.0625,-2.5
13:45:48.298,5.5,-2.6875
13:45:48.308,5.9375,-2.875
13:45:48.317,5.3125,-2.8125
13:45:48.327,6.0625,-2.6875
13:45:48.337,4.8125,-3.25
13:45:48.348,5.8125,-3.4375
13:45:48.358,5.25,-2.75
13:45:48.367,6.0625,-3.1875
13:45:48.377,5.4375,-3.625
13:45:48.392,5.25,-4
13:45:48.397,5.125,-3.125
13:45:48.428,5,-4.4375
13:45:48.430,5.375,-2.75
13:45:48.432,5.125,-4.125
13:45:48.437,5.125,-2.9375
13:45:48.464,4.625,-2.375
13:45:48.467,5.125,-2.375
13:45:48.470,5.5,-0.6875
13:45:48.504,6.5,0.4375
13:45:48.505,6.8125,3.8125
13:45:48.507,8,4.5
13:45:48.522,7.875,7.375
13:45:48.523,8.75,7.0625
13:45:48.527,8.9375,8.1875
13:45:48.558,9.25,8.25
13:45:48.561,9.3125,7.625
13:45:48.563,8.3125,7.75
13:45:48.571,9.375,7.375
13:45:48.578,8.625,7.75
13:45:48.587,8.875,7.6875
13:45:48.597,8.625,7.75
13:45:48.607,9.125,7.8125
13:45:48.617,8.375,7.8125
13:45:48.627,8.875,8.5
13:45:48.637,8.3125,8.3125
13:45:48.647,9.25,7.75
13:45:48.658,8.5,7.625
13:45:48.667,8,7.875
13:45:48.677,8.1875,6.6875
13:45:48.687,7.5,6.5625
13:45:48.697,7.125,5.25
13:45:48.707,7.0625,6.4375
13:45:48.717,7.5625,4.875
13:45:48.727,7.0625,4.1875
13:45:48.737,6.125,4.875
13:45:48.746,7.375,4
13:45:48.757,6.625,4.6875
13:45:48.767,6.75,4
13:45:48.779,6.1875,4.1875
13:45:48.789,6,3.875
13:45:48.797,6,2.875
13:45:48.807,6,3.1875
13:45:48.817,5.4375,2.6875
13:45:48.827,5.6875,2.375
13:45:48.837,5,2.5625
13:45:48.848,5.25,1.6875
13:45:48.858,4.9375,1.375
13:45:48.868,5.25,1.1875
13:45:48.879,4.875,0.9375
13:45:48.887,5.5625,0.375
13:45:48.897,4.5625,-0.5625
13:45:48.907,4.8125,0.0625
13:45:48.922,4.1875,-0.625
13:45:48.939,4.625,-0.875
13:45:48.941,4.5625,-2
13:45:48.949,4.1875,-1.1875
13:45:48.959,4.4375,-2.1875
13:45:48.968,3.75,-0.4375
13:45:48.977,4.125,-2.1875
13:45:48.987,3.25,-3.1875
13:45:48.997,3.625,-2.5
13:45:49.007,3.1875,-3
13:45:49.017,2.9375,-2.75
13:45:49.034,3.875,-3.5
13:45:49.039,3.0625,-2.8125
13:45:49.047,3.125,-3.5625
13:45:49.056,3.0625,-3.875
13:45:49.067,3.1875,-3.8125
13:45:49.077,2.75,-3.625
13:45:49.087,3.125,-3.4375
13:45:49.097,2.6875,-3.375
13:45:49.132,3.4375,-3.9375
13:45:49.135,2.875,-3.3125
13:45:49.138,3.25,-3.875
13:45:49.142,3.375,-2.875
13:45:49.171,2.8125,-4.3125
13:45:49.174,2.6875,-2.875
13:45:49.207,2.6875,-4.6875
13:45:49.209,2.8125,-3.8125
13:45:49.238,2.25,-4.0625
13:45:49.238,2.6875,-3.9375
13:45:49.239,2.1875,-3.5
13:45:49.241,3,-3.625
13:45:49.248,2.8125,-2.8125
13:45:49.250,3.375,-4
13:45:49.258,2.6875,-2.8125
13:45:49.275,3.375,-3.625
13:45:49.277,2.9375,-2.5
13:45:49.287,3.625,-3.6875
13:45:49.296,2.9375,-3.3125
13:45:49.307,3.1875,-2.8125
13:45:49.316,2.9375,-2.75
13:45:49.328,3.375,-3.1875
13:45:49.338,3.1875,-1.125
13:45:49.347,3.625,-0.9375
13:45:49.357,4.4375,-0.1875
13:45:49.366,4.9375,1.125
13:45:49.377,6.375,4.9375
13:45:49.387,6.375,5
13:45:49.397,7.4375,5.25
13:45:49.407,6.6875,6.375
13:45:49.419,6.875,5.875
13:45:49.427,6.8125,5.6875
13:45:49.437,7.125,5.125
13:45:49.447,5.9375,5.375
13:45:49.457,6.625,4.6875
13:45:49.468,6.25,5.25
13:45:49.479,7,4.8125
13:45:49.489,6.5,4.4375
13:45:49.499,6.375,4.8125
13:45:49.507,6.3125,4.75
13:45:49.517,5.9375,4.5
13:45:49.527,6,4.75
13:45:49.538,5.375,3.75
13:45:49.549,5.3125,4.25
13:45:49.556,5.125,2.75
13:45:49.567,5.0625,3.875
13:45:49.576,5.0625,2.625
13:45:49.586,4.625,3.8125
13:45:49.597,4.375,1.75
13:45:49.607,4.5625,3.75
13:45:49.619,4.5,2
13:45:49.627,4.625,2.6875
13:45:49.637,4.5,1.25
13:45:49.647,4.6875,2.5
13:45:49.657,4.5,0.9375
13:45:49.666,4.5,1.9375
13:45:49.678,4.1875,0.375
13:45:49.687,4.25,1.625
13:45:49.697,3.875,0
13:45:49.707,4.0625,0.25
13:45:49.717,3.9375,0
13:45:49.728,3.5625,-0.4375
13:45:49.736,4.1875,-0.625
13:45:49.747,3.25,-0.8125
13:45:49.756,4,-1
13:45:49.767,3.9375,-1.8125
13:45:49.792,3.25,-0.75
13:45:49.795,3.625,-2
13:45:49.807,2.8125,-1.5
13:45:49.808,3.4375,-2.6875
13:45:49.820,2.875,-2.4375
13:45:49.826,3.4375,-2.1875
13:45:49.836,3,-2.625
13:45:49.846,3.125,-2.9375
13:45:49.857,3.1875,-3.375
13:45:49.868,3.6875,-2.125
13:45:49.876,3.25,-3.5625
13:45:49.909,3.25,-3.0625
13:45:49.911,2.875,-3.5625
13:45:49.913,3,-2.875
13:45:49.919,2.6875,-3.875
13:45:49.955,2.5625,-2.625
13:45:49.957,2.5,-2.875
13:45:49.960,2.6875,-3.3125
13:45:49.988,2.375,-3.5
13:45:49.990,2.6875,-3.875
13:45:49.994,2.75,-3.125
13:45:49.998,2.4375,-2.875
13:45:49.999,3.25,-3.6875
13:45:50.036,2.375,-3.875
13:45:50.039,3,-3.5625
13:45:50.041,3.1875,-2.9375
13:45:50.044,2.9375,-4.125
13:45:50.048,2.5,-3.875
13:45:50.071,2.6875,-4.6875
13:45:50.074,3.25,-3.5625
13:45:50.077,2.625,-4.6875
13:45:50.086,2.5,-3.1875
13:45:50.097,2.1875,-4.25
13:45:50.106,2.5625,-3.4375
13:45:50.116,2.8125,-3.6875
13:45:50.127,2.8125,-3.6875
13:45:50.139,2.5,-3.875
13:45:50.146,2.375,-2.5
13:45:50.156,2.875,-3.5
13:45:50.166,3.5,-1.6875
13:45:50.181,4.125,-0.375
13:45:50.187,4.6875,2.5625
13:45:50.196,5,2.9375
13:45:50.206,6,4.875
13:45:50.225,6.3125,7.4375
13:45:50.231,6.75,6.1875
13:45:50.247,6.4375,7.1875
13:45:50.251,6.75,6.625
13:45:50.265,7,6.4375
13:45:50.267,6.8125,6.4375
13:45:50.277,7.3125,6.125
13:45:50.290,6.375,6.375
13:45:50.296,7.5,6.5625
13:45:50.306,6.5,6.4375
13:45:50.316,7.75,6.625
13:45:50.327,6.625,6.5625
13:45:50.340,7.625,6.6875
13:45:50.347,7.25,6.25
13:45:50.356,7.4375,7
13:45:50.367,6.3125,6.25
13:45:50.377,6.75,5.5625
13:45:50.388,6.1875,5.8125
13:45:50.396,6.875,4.875
13:45:50.408,5.9375,4.3125
13:45:50.417,5.875,5.375
13:45:50.427,5.875,4.0625
13:45:50.437,5.75,3.75
13:45:50.449,5.75,4.0625
13:45:50.456,5.625,3.3125
13:45:50.467,5.625,3.0625
13:45:50.476,5.1875,2.5
13:45:50.492,6,3.25
13:45:50.508,5.375,3
13:45:50.510,4.875,2.6875
13:45:50.518,4.5625,2.4375
13:45:50.526,5.125,2.1875
13:45:50.537,5.125,1.875
13:45:50.546,4.8125,2.125
13:45:50.562,4.1875,0.25
13:45:50.567,4.25,0.625
13:45:50.575,3.6875,0.75
13:45:50.610,4.375,-0.1875
13:45:50.613,3.25,0.5625
13:45:50.616,3.5,-0.875
13:45:50.638,3.125,-2
13:45:50.641,3.375,-0.625
13:45:50.643,3.3125,-1.6875
13:45:50.647,3.125,-1.25
13:45:50.681,2.9375,-2
13:45:50.685,3.125,-2.3125
13:45:50.686,3.875,-2.1875
13:45:50.716,2.8125,-2.6875
13:45:50.717,2.5625,-2.5625
13:45:50.718,2.9375,-3.25
13:45:50.725,2.25,-2.5625
13:45:50.726,2.875,-3.3125
13:45:50.759,2.5,-3.75
13:45:50.761,2.8125,-3.8125
13:45:50.764,2.25,-3.375
13:45:50.767,2.5625,-3.75
13:45:50.780,2.0625,-2.875
13:45:50.786,3,-3.75
13:45:50.796,2.25,-2.4375
13:45:50.806,2.3125,-3.3125
13:45:50.818,2.125,-2.5
13:45:50.826,2.5625,-3.9375
13:45:50.837,1.9375,-2.5625
13:45:50.846,2.5625,-3.75
13:45:50.856,1.625,-3.0625
13:45:50.867,2.1875,-3.1875
13:45:50.876,2.375,-4.3125
13:45:50.887,1.75,-3.1875
13:45:50.896,2.1875,-3.125
13:45:50.906,2.25,-4.1875
13:45:50.920,1.3125,-3
13:45:50.926,2.125,-3.75
13:45:50.937,1.4375,-3.3125
13:45:50.946,1.8125,-4.625
13:45:50.956,1.5,-3.375
13:45:50.968,2.375,-4.1875
13:45:50.976,1.9375,-3.6875
13:45:50.986,2.1875,-3.625
13:45:50.996,2.5,-2.9375
13:45:51.007,1.5,-2.875
13:45:51.016,2.75,-1.75
13:45:51.026,2.9375,-0.4375
13:45:51.037,4.25,1.5
13:45:51.046,4.8125,3.6875
13:45:51.073,5.125,4.1875
13:45:51.075,5.375,5.3125
13:45:51.077,5.5625,5.75
13:45:51.088,6.1875,5.8125
13:45:51.096,6,6.3125
13:45:51.106,5.8125,5.6875
13:45:51.116,6.9375,5.4375
13:45:51.126,5.9375,5.875
13:45:51.137,6.1875,4.875
13:45:51.146,6.75,5.875
13:45:51.156,6.25,4.6875
13:45:51.166,6.1875,5.8125
13:45:51.177,5.9375,5.3125
13:45:51.188,6,5.4375
13:45:51.197,6,5.375
13:45:51.206,5.875,4.3125
13:45:51.216,5.625,6.0625
13:45:51.226,5.9375,4.4375
13:45:51.237,5.3125,4
13:45:51.246,5.0625,3.875
13:45:51.256,4.75,2.5
13:45:51.267,5,3.6875
13:45:51.277,5,2.875
13:45:51.288,4.6875,3.4375
13:45:51.296,5.3125,2.875
13:45:51.306,4.5,2.5625
13:45:51.320,4.5625,2.625
13:45:51.326,4.4375,2.75
13:45:51.336,4.4375,2.125
13:45:51.346,4.3125,2.1875
13:45:51.374,4.0625,1.4375
13:45:51.379,4.25,1.6875
13:45:51.379,3.875,0.6875
13:45:51.419,4.1875,1.625
13:45:51.420,3.75,0.125
13:45:51.422,3.375,0.0625
13:45:51.425,3.8125,-0.0625
13:45:51.432,3.3125,-0.125
13:45:51.436,3.3125,-0.75
13:45:51.461,3.4375,-0.25
13:45:51.463,3.1875,-1.3125
13:45:51.465,2.8125,-1.125
13:45:51.501,3.3125,-1.25
13:45:51.504,2.9375,-1
13:45:51.506,3.75,-1.9375
13:45:51.508,2.625,-1.5625
13:45:51.534,3.1875,-1.6875
13:45:51.536,2.75,-2.5
13:45:51.553,3,-1.625
13:45:51.566,2.9375,-2.75
13:45:51.569,2.75,-1.8125
13:45:51.569,3.375,-2.8125
13:45:51.575,2.5625,-1.8125
13:45:51.586,3.3125,-3.0625
13:45:51.596,3.5,-3.0625
13:45:51.606,2.5625,-2.6875
13:45:51.616,3.125,-2.9375
13:45:51.626,2.75,-3.875
13:45:51.636,2.75,-3.8125
13:45:51.649,2.75,-3.4375
13:45:51.656,2.0625,-4.1875
13:45:51.666,1.5625,-3.5625
13:45:51.676,1.75,-3.875
13:45:51.686,1.9375,-3.5
13:45:51.697,2.125,-4.5
13:45:51.706,1.625,-4.5625
13:45:51.716,2.5,-4.125
13:45:51.726,1.3125,-3.6875
13:45:51.736,1.5625,-4
13:45:51.745,1.4375,-4.75
13:45:51.756,1.9375,-4.3125
13:45:51.766,2.125,-4.625
13:45:51.778,1.6875,-4.25
13:45:51.795,1.9375,-4.5
13:45:51.797,1.5625,-4.25
13:45:51.812,1.4375,-3.875
13:45:51.820,1.625,-4.25
13:45:51.826,2.125,-1.9375
13:45:51.836,2.375,-1.125
13:45:51.846,4,0.125
13:45:51.858,4.75,2.875
13:45:51.865,4.9375,3.0625
13:45:51.876,5.25,4.9375
13:45:51.886,5.25,5.0625
13:45:51.898,5.375,4.875
13:45:51.906,5.75,5.25
13:45:51.916,5.375,4.875
13:45:51.926,5.25,5.0625
13:45:51.938,5.5625,4.875
13:45:51.946,5,4.625
13:45:51.956,5.25,4.5625
13:45:51.966,5.375,4.25
13:45:51.977,5.5,4.9375
13:45:51.986,5.3125,4.8125
13:45:51.997,5,4.1875
13:45:52.006,5,4.75
13:45:52.017,5.25,3.6875
13:45:52.026,4.5625,4.9375
13:45:52.036,4.8125,3.0625
13:45:52.046,4.4375,3.1875
13:45:52.056,4.1875,1.625
13:45:52.068,4.5625,2.8125
13:45:52.077,4.375,2.6875
13:45:52.086,4.5625,2.1875
13:45:52.096,4,2.0625
13:45:52.127,3.9375,1.75
13:45:52.129,4.375,0.9375
13:45:52.132,4.4375,2.125
13:45:52.137,4.625,1.5625
13:45:52.165,4.8125,1.3125
13:45:52.168,4.6875,0.6875
13:45:52.171,4.875,1.875
13:45:52.176,4.1875,0.875
13:45:52.203,3.8125,1.6875
13:45:52.206,4.5,0.25
13:45:52.209,3.625,-0.3125
13:45:52.237,4.1875,0.4375
13:45:52.238,3.8125,-0.25
13:45:52.241,3.75,-1.125
13:45:52.247,3.5625,-0.375
13:45:52.284,3.8125,-1
13:45:52.286,2.8125,-0.875
13:45:52.288,2.875,-1.125
13:45:52.291,3.1875,-1.5625
13:45:52.299,2.5,-0.25
13:45:52.306,2.875,-2.375
13:45:52.316,2.1875,-1.0625
13:45:52.326,2.5,-2.4375
13:45:52.356,2.4375,-2.1875
13:45:52.358,1.9375,-3.125
13:45:52.360,2.375,-3.125
13:45:52.366,1.9375,-2.5
13:45:52.377,2.5,-3.0625
13:45:52.386,2.125,-3.5625
13:45:52.396,2.3125,-3.5
13:45:52.406,1.6875,-3.75
13:45:52.416,2.1875,-3.625
13:45:52.426,1.3125,-3.5
13:45:52.436,2.25,-3.375
13:45:52.451,1.5625,-4.0625
13:45:52.457,1.8125,-4
13:45:52.466,1.4375,-4.5625
13:45:52.476,1.5,-3.875
13:45:52.486,0.8125,-4.125
13:45:52.496,1.5,-4.6875
13:45:52.506,1.0625,-4.375
13:45:52.516,0.9375,-4.5625
13:45:52.526,1.0625,-4.3125
13:45:52.536,1.4375,-3.8125
13:45:52.546,1.1875,-4.75
13:45:52.556,1.125,-4
13:45:52.566,1.3125,-4.8125
13:45:52.577,1,-4.375
13:45:52.586,1.375,-4.375
13:45:52.596,0.875,-3.6875
13:45:52.606,1,-4
13:45:52.617,1.625,-3.5
13:45:52.626,1.25,-3.4375
13:45:52.636,2.4375,-1.6875
13:45:52.646,3.125,0.375
13:45:52.658,4.3125,2.25
13:45:52.666,5,4.1875
13:45:52.676,5.25,5.1875
13:45:52.686,6.0625,5.9375
13:45:52.698,5.8125,6.6875
13:45:52.706,5.75,6.6875
13:45:52.716,5.5,6.5
13:45:52.727,5.4375,6.875
13:45:52.736,5.4375,6.1875
13:45:52.746,5.4375,6.8125
13:45:52.756,5.125,5.875
13:45:52.767,4.875,7
13:45:52.801,5.625,6.4375
13:45:52.803,6.3125,7.625
13:45:52.806,5.5,7
13:45:52.808,5.75,7.375
13:45:52.838,5.3125,7
13:45:52.872,5.0625,6
13:45:52.876,5.5625,6.875
13:45:52.877,4.625,6.875
13:45:52.884,4.875,5.875
13:45:52.884,4.25,6.0625
13:45:52.884,5,4.9375
13:45:52.891,4.0625,5
13:45:52.896,4,4.8125
13:45:52.921,4.25,4.5625
13:45:52.923,3.625,4.375
13:45:52.926,3.8125,3.6875
13:45:52.955,3.5,4.0625
13:45:52.958,3.8125,3.1875
13:45:52.959,3.3125,4.5
13:45:52.966,3.75,3
13:45:52.978,3.1875,3.3125
13:45:52.986,4.1875,2.1875
13:45:52.996,2.9375,2.75
13:45:53.006,3.3125,1.625
13:45:53.016,3.5,0.75
13:45:53.026,2.8125,0.125
13:45:53.036,3.3125,0.875
13:45:53.046,3.25,0.3125
13:45:53.057,2.0625,0.625
13:45:53.067,2.25,-0.375
13:45:53.076,1.625,0.125
13:45:53.098,1.6875,-1.125
13:45:53.099,1.25,-2.5
13:45:53.117,1.625,-1
13:45:53.118,1.375,-2.1875
13:45:53.126,1.875,-1.9375
13:45:53.138,1.75,-2.125
13:45:53.146,1.8125,-2.0625
13:45:53.156,1.625,-2.3125
13:45:53.166,1.375,-2.6875
13:45:53.176,0.875,-1.75
13:45:53.188,1.6875,-3
13:45:53.195,1.125,-2.875
13:45:53.208,1.1875,-3.75
13:45:53.216,0.5625,-3.125
13:45:53.226,1.4375,-3.8125
13:45:53.236,1.1875,-3.25
13:45:53.247,1.6875,-4.0625
13:45:53.256,1.5,-3.9375
13:45:53.266,1.125,-3.5
13:45:53.277,1.375,-3.9375
13:45:53.286,1.9375,-3.5625
13:45:53.296,1.6875,-3.875
13:45:53.306,0.9375,-3.875
13:45:53.318,1.1875,-4.4375
13:45:53.332,0.8125,-4.875
13:45:53.336,0.625,-4.5625
13:45:53.346,1.0625,-4.8125
13:45:53.356,0.5,-5
13:45:53.366,0.75,-4.4375
13:45:53.376,1.125,-5.25
13:45:53.386,1.0625,-4.4375
13:45:53.396,1,-5.0625
13:45:53.406,0.625,-4.375
13:45:53.416,0.6875,-4.9375
13:45:53.426,0.5,-4.0625
13:45:53.436,0.75,-3.625
13:45:53.446,1.5625,-3
13:45:53.457,2.3125,-0.9375
13:45:53.466,3.3125,1.6875
13:45:53.476,4.1875,3.6875
13:45:53.486,5.0625,5.125
13:45:53.498,5.5,5.5625
13:45:53.506,5.5,6.125
13:45:53.516,5.3125,5.6875
13:45:53.526,5.5,6.1875
13:45:53.536,5.125,5.5625
13:45:53.547,5.8125,6.25
13:45:53.555,5.4375,5.875
13:45:53.575,5.75,6.25
13:45:53.577,5.25,5.125
13:45:53.605,5.5625,7.0625
13:45:53.607,5.625,5.5625
13:45:53.611,5.375,6.5
13:45:53.636,5.1875,5.75
13:45:53.639,5.3125,6.625
13:45:53.672,4.9375,5.5625
13:45:53.673,4.9375,5.8125
13:45:53.676,5.125,4.875
13:45:53.679,5,5.25
13:45:53.683,4.3125,3.9375
13:45:53.687,4.4375,4.25
13:45:53.719,4.3125,3.9375
13:45:53.721,4.125,4.0625
13:45:53.724,4.5625,4.0625
13:45:53.726,4.125,3.625
13:45:53.753,4.1875,4
13:45:53.757,3.875,3.375
13:45:53.758,4.5,3.625
13:45:53.766,3.75,3.1875
13:45:53.776,4.3125,3.1875
13:45:53.786,4,2.625
13:45:53.796,3.3125,2.6875
13:45:53.806,3.1875,2.5
13:45:53.816,2.625,0.5625
13:45:53.828,2.9375,1.5
13:45:53.836,3.4375,1
13:45:53.846,2.75,-0.0625
13:45:53.858,2.25,-0.75
13:45:53.866,2.375,-0.625
13:45:53.876,2.5625,-0.625
13:45:53.886,1.9375,-1
13:45:53.899,2.6875,-1.125
13:45:53.907,2.25,-1.0625
13:45:53.921,2.5625,-1.3125
13:45:53.928,2.3125,-1.9375
13:45:53.936,2.3125,-2
13:45:53.946,2.125,-1.5625
13:45:53.957,2.875,-2.1875
13:45:53.968,1.8125,-2.4375
13:45:53.976,1.6875,-2.625
13:45:53.986,1.75,-2.8125
13:45:53.996,1.375,-2.0625
13:45:54.006,2.25,-3.5625
13:45:54.016,1.125,-2.375
13:45:54.026,1.375,-3.6875
13:45:54.036,1.375,-2.75
13:45:54.046,1.625,-3.0625
13:45:54.057,2.5625,-4
13:45:54.067,1.5625,-4.25
13:45:54.076,1.5,-3.9375
13:45:54.086,1.5,-4.0625
13:45:54.096,1.875,-3.625
13:45:54.109,0.8125,-4.25
13:45:54.116,1.625,-4.1875
13:45:54.132,0.75,-5
13:45:54.147,1.125,-4.0625
13:45:54.152,1.375,-4.375
13:45:54.156,1.4375,-4.625
13:45:54.167,0.9375,-4.75
13:45:54.176,1.625,-4.8125
13:45:54.186,0.9375,-4.9375
13:45:54.197,1.8125,-4.4375
13:45:54.206,1.1875,-4.375
13:45:54.215,1.4375,-4.5625
13:45:54.226,0.8125,-4.3125
13:45:54.253,1.625,-3.625
13:45:54.255,1.625,-2.75
13:45:54.258,2.6875,-0.875
13:45:54.288,3.3125,1.9375
13:45:54.291,4.875,4.0625
13:45:54.294,5.3125,4.9375
13:45:54.296,5.4375,7.125
13:45:54.324,6.25,7.1875
13:45:54.327,5.8125,7.4375
13:45:54.330,6.75,7.125
13:45:54.336,7,9.875
13:45:54.364,8,8.4375
13:45:54.366,6.25,8.125
13:45:54.372,6.0625,7.875
13:45:54.376,6.6875,7.5625
13:45:54.422,5.875,7.625
13:45:54.425,6.6875,7.3125
13:45:54.431,6.4375,7.75
13:45:54.432,7.25,7.75
13:45:54.436,6.125,7.8125
13:45:54.439,7.125,7.25
13:45:54.447,5.875,7.0625
13:45:54.456,6.5625,6.625
13:45:54.466,5.5625,6.125
13:45:54.477,6.0625,5.25
13:45:54.486,5.125,5.5
13:45:54.495,4.875,5.5625
13:45:54.506,5.4375,4.4375
13:45:54.518,4.9375,5.1875
13:45:54.526,5.5625,4.375
13:45:54.536,4.6875,5.6875
13:45:54.546,5.1875,4.25
13:45:54.556,4.4375,4.9375
13:45:54.566,4.375,3.8125
13:45:54.576,4,4.5625
13:45:54.586,4.125,3.4375
13:45:54.596,4.375,2.75
13:45:54.606,3.8125,3
13:45:54.616,3.625,2.4375
13:45:54.626,3.3125,2.6875
13:45:54.636,3.4375,0.75
13:45:54.646,3.25,1.5625
13:45:54.657,3.25,-0.0625
13:45:54.666,2.75,0.25
13:45:54.675,3.1875,0.375
13:45:54.687,2.625,-0.8125
13:45:54.696,2.9375,-0.1875
13:45:54.706,2.4375,-1.3125
13:45:54.717,2.3125,-1
13:45:54.726,2.4375,-1.375
13:45:54.736,2.25,-1.0625
13:45:54.746,2.6875,-1.75
13:45:54.756,1.9375,-1.75
13:45:54.766,2.4375,-2.1875
13:45:54.775,1.9375,-2.9375
13:45:54.789,2.0625,-2.1875
13:45:54.796,1.875,-3.25
13:45:54.806,2.125,-3.4375
13:45:54.818,2.1875,-3.25
13:45:54.827,1.875,-3.25
13:45:54.836,1.75,-3.375
13:45:54.846,2.125,-4.125
13:45:54.856,1.1875,-4.8125
13:45:54.865,1.5625,-3.4375
13:45:54.878,1.3125,-4.5625
13:45:54.886,1.4375,-3.6875
13:45:54.913,1.25,-5
13:45:54.915,1.1875,-4.375
13:45:54.917,1.0625,-3.6875
13:45:54.926,1.6875,-4.375
13:45:54.936,0.8125,-3.5
13:45:54.946,1.9375,-4.25
13:45:54.956,1,-3.5625
13:45:54.966,1.3125,-5
13:45:54.977,0.625,-4.1875
13:45:54.986,1,-5.0625
13:45:54.996,0.9375,-4.3125
13:45:55.006,0.8125,-4.75
13:45:55.017,0.75,-3.9375
13:45:55.044,1,-5.5625
13:45:55.047,1.0625,-3.375
13:45:55.052,1.25,-5.3125
13:45:55.056,0.75,-3.5625
13:45:55.090,1.1875,-4.9375
13:45:55.093,0.625,-4.1875
13:45:55.095,1.25,-4.75
13:45:55.097,1,-2.6875
13:45:55.130,2.25,-2.3125
13:45:55.132,2.5625,1.375
13:45:55.138,4.1875,2.5
13:45:55.169,4.6875,4.875
13:45:55.171,5.625,6.1875
13:45:55.174,6.0625,8
13:45:55.179,7,8.1875
13:45:55.181,6.375,8.9375
13:45:55.194,6.6875,8.125
13:45:55.196,6.9375,8.0625
13:45:55.209,7.0625,8.6875
13:45:55.216,6.625,7.5625
13:45:55.226,6.6875,8.625
13:45:55.236,7.0625,7.875
13:45:55.246,7.6875,9.375
13:45:55.256,7.625,9.1875
13:45:55.268,7.625,9.5625
13:45:55.276,7.625,9.3125
13:45:55.286,7.625,10.375
13:45:55.297,7.9375,10.0625
13:45:55.306,6.875,9
13:45:55.316,7.5625,8.6875
13:45:55.326,6.625,7.3125
13:45:55.336,5.9375,7.8125
13:45:55.345,6.0625,7.0625
13:45:55.356,6.125,5.6875
13:45:55.366,5.5,6.6875
13:45:55.375,5.75,5.5625
13:45:55.386,5.6875,6.8125
13:45:55.396,5.5,5.625
13:45:55.406,5.1875,6.375
13:45:55.429,5.3125,4.8125
13:45:55.431,4.9375,5.25
13:45:55.446,4.5625,5.3125
13:45:55.450,4.75,5.25
13:45:55.456,4.5625,4.25
13:45:55.466,4.25,4.4375
13:45:55.477,4.0625,3.0625
13:45:55.486,3.75,3.625
13:45:55.496,3.8125,2.0625
13:45:55.507,3.3125,2
13:45:55.516,3.125,1.4375
13:45:55.526,3.125,1.8125
13:45:55.536,3.125,0.4375
13:45:55.551,3.0625,1.6875
13:45:55.563,2.75,0.0625
13:45:55.571,2.6875,-0.1875
13:45:55.581,2.3125,-0.9375
13:45:55.592,2.625,-0.3125
13:45:55.601,2.375,-1.3125
13:45:55.611,2.125,-1.3125
13:45:55.621,2.75,-1.9375
13:45:55.631,2.4375,-1.75
13:45:55.641,2.1875,-1.6875
13:45:55.650,2.5625,-1.75
13:45:55.661,2.3125,-1.8125
13:45:55.671,2.4375,-2.3125
13:45:55.689,2.5625,-2.5625
13:45:55.692,2,-2.6875
13:45:55.707,2.375,-2.8125
13:45:55.714,1.8125,-3.75
13:45:55.721,2,-3.9375
13:45:55.731,2.25,-3.125
13:45:55.756,1.6875,-3.4375
13:45:55.759,1.5,-4
13:45:55.761,1.75,-4.1875
13:45:55.793,1.4375,-4.125
13:45:55.796,1.375,-5.0625
13:45:55.800,1.4375,-3.5
13:45:55.801,1.375,-4.6875
13:45:55.831,1.1875,-5
13:45:55.833,1.125,-4.25
13:45:55.836,0.75,-4.6875
13:45:55.841,1.1875,-5.3125
13:45:55.873,0.75,-5
13:45:55.874,1.1875,-5.5
13:45:55.877,-0.125,-5.3125
13:45:55.881,0.0625,-6.0625
13:45:55.909,0.4375,-5.4375
13:45:55.912,0.1875,-6
13:45:55.914,0.625,-5.75
13:45:55.921,-0.3125,-6.0625
13:45:55.931,0,-5.6875
13:45:55.941,-1.0625,-5.4375
13:45:55.951,-0.3125,-6.625
13:45:55.961,-0.875,-5.9375
13:45:55.971,-0.6875,-7.125
13:45:55.981,-0.75,-5.25
13:45:55.991,-0.125,-4.625
13:45:56.006,0.25,-1.25
13:45:56.011,1.375,-1.4375
13:45:56.021,1.9375,2.5
13:45:56.031,3,3.4375
13:45:56.041,3.25,5
13:45:56.051,3.875,4.75
13:45:56.061,3.4375,6.3125
13:45:56.071,3.5,4.9375
13:45:56.081,3.8125,5.8125
13:45:56.091,3.1875,5.4375
13:45:56.100,4.125,4.75
13:45:56.112,3.5,5.5
13:45:56.121,3.0625,5.25
13:45:56.131,3.875,5.0625
13:45:56.140,4.125,5.9375
13:45:56.151,4.3125,5.75
13:45:56.161,3.3125,5.5625
13:45:56.192,3.9375,5.5625
13:45:56.194,3,5.5
13:45:56.197,3.625,5.25
13:45:56.202,3.5,4.75
13:45:56.210,3.125,4.75
13:45:56.221,3.5,4.1875
13:45:56.230,3.1875,3.6875
13:45:56.241,3.0625,4.375
13:45:56.251,3.1875,3.75
13:45:56.263,3.1875,3.5
13:45:56.270,2.8125,3.6875
13:45:56.281,3.3125,3.5625
13:45:56.290,3.0625,4.5625
13:45:56.301,3,3.4375
13:45:56.311,3.75,3.4375
13:45:56.323,2.9375,2.5625
13:45:56.330,2.875,3.6875
13:45:56.341,3.1875,3.1875
13:45:56.352,1.9375,1.75
13:45:56.359,2.375,1.875
13:45:56.371,1.8125,0.9375
13:45:56.381,1.5625,2.0625
13:45:56.414,1.3125,0.25
13:45:56.416,1.3125,-1
13:45:56.421,0.75,-0.3125
13:45:56.450,-0.1875,-1.1875
13:45:56.451,-0.3125,-1.9375
13:45:56.454,-1.1875,-2.4375
13:45:56.459,-1.9375,-3.875
13:45:56.462,-4.375,-5.625
13:45:56.492,-7.4375,-7
13:45:56.493,-10.8125,-8.25
13:45:56.497,-12.875,-10.75
13:45:56.501,-16.3751,-13.9376
13:45:56.535,-18.9376,-14.8751
13:45:56.537,-24.5626,-19.5626
13:45:56.539,-29.3126,-21.5001
13:45:56.542,-35.8751,-27.0001
13:45:56.573,-42.3752,-30.1251
13:45:56.574,-51.0002,-37.3126
13:45:56.577,-55.6877,-39.0001
13:45:56.582,-58.6877,-40.6252
13:45:56.591,-60.8127,-41.1877
13:45:56.599,-61.8127,-41.5002
13:45:56.611,-62.5627,-42.5627
13:45:56.621,-63.1252,-41.6877
13:45:56.631,-61.7502,-41.9377
13:45:56.641,-60.8752,-42.3127
13:45:56.650,-59.8127,-41.5627
13:45:56.661,-59.6877,-40.4377
13:45:56.671,-58.4377,-41.0627
13:45:56.681,-56.6877,-39.6877
13:45:56.691,-55.0002,-39.3127
13:45:56.700,-53.1877,-38.8126
13:45:56.710,-52.5002,-38.2501
13:45:56.725,-52.1252,-37.8751
13:45:56.740,-51.4377,-37.6876
13:45:56.742,-50.9377,-36.0001
13:45:56.756,-50.0627,-37.2501
13:45:56.761,-48.6877,-37.3751
13:45:56.769,-47.9377,-36.5626
13:45:56.782,-46.8752,-36.1251
13:45:56.791,-45.5627,-34.0626
13:45:56.800,-43.9377,-33.5626
13:45:56.811,-42.1252,-33.5626
13:45:56.821,-41.5627,-32.3751
13:45:56.832,-40.4377,-31.7501
13:45:56.841,-39.8127,-31.2501
13:45:56.851,-39.3127,-30.5001
13:45:56.860,-39.1876,-31.3751
13:45:56.871,-38.3751,-30.9376
13:45:56.881,-38.3126,-29.6251
13:45:56.890,-38.1876,-29.8751
13:45:56.901,-37.3751,-28.1876
13:45:56.911,-35.6251,-26.5626
13:45:56.921,-32.0626,-22.0626
13:45:56.931,-26.8751,-18.1876
13:45:56.941,-19.3751,-11.4375
13:45:56.951,-13.1251,-6.5
13:45:56.961,-11.875,-5.375
13:45:56.971,-13.2501,-4.4375
13:45:56.988,-11.8125,-4.125
13:45:57.004,-8.625,-2.125
13:45:57.004,-4.9375,0.375
13:45:57.010,-1.125,1.6875
13:45:57.021,-1.3125,-0.1875
13:45:57.031,-4.0625,-2.0625
13:45:57.040,-14.5626,-7.3125
13:45:57.051,-27.0001,-12.9375
13:45:57.060,-45.1877,-19.6876
13:45:57.069,-56.7502,-25.3126
13:45:57.081,-60.5002,-26.5001
13:45:57.090,-68.9378,-30.8751
13:45:57.100,-84.8753,-42.8127
13:45:57.110,-94.8754,-49.8752
13:45:57.123,-112.3129,-64.2502
13:45:57.130,-134.313,-82.7503
13:45:57.140,-157.6881,-99.2504
13:45:57.150,-177.0632,-115.2504
13:45:57.159,-193.1257,-124.813
13:45:57.171,-203.3133,-131.8755
13:45:57.203,-209.8758,-134.0005
13:45:57.206,-215.2508,-134.063
13:45:57.208,-218.2508,-134.813
13:45:57.212,-228.2509,-139.0005
13:45:57.248,-240.3759,-144.8755
13:45:57.251,-248.8759,-148.4381
13:45:57.255,-255.876,-150.2506
13:45:57.256,-260.251,-152.1256
13:45:57.261,-265.6885,-151.5006
13:45:57.293,-268.8135,-152.6256
13:45:57.295,-267.9385,-150.1256
13:45:57.299,-263.9385,-145.688
13:45:57.301,-257.3135,-140.063
13:45:57.334,-248.5634,-131.938
13:45:57.336,-241.1259,-125.1255
13:45:57.338,-232.9384,-118.8755
13:45:57.341,-222.9384,-112.0629
13:45:57.350,-212.5633,-105.8754
13:45:57.360,-200.9383,-99.0629
13:45:57.370,-189.4382,-92.8754
13:45:57.379,-178.0632,-85.6253
13:45:57.391,-164.3131,-79.4378
13:45:57.401,-152.3756,-73.0003
13:45:57.409,-145.1255,-70.1878
13:45:57.419,-133.0005,-64.0627
13:45:57.430,-121.7505,-54.6252
13:45:57.441,-115.6254,-49.4377
13:45:57.473,-108.0629,-46.9377
13:45:57.475,-98.9379,-43.3127
13:45:57.477,-89.3753,-38.8751
13:45:57.482,-81.3753,-34.6876
13:45:57.493,-74.5628,-29.0001
13:45:57.506,-71.8753,-27.6251
13:45:57.510,-74.0628,-30.5001
13:45:57.521,-80.5003,-36.1251
13:45:57.529,-89.0003,-41.6877
13:45:57.540,-95.4379,-45.8127
13:45:57.550,-95.4379,-46.3127
13:45:57.561,-92.8754,-45.6252
13:45:57.571,-96.8754,-46.8127
13:45:57.580,-104.8129,-51.7502
13:45:57.591,-114.7504,-56.8752
13:45:57.600,-123.438,-61.2502
13:45:57.609,-130.563,-65.6253
13:45:57.622,-138.5005,-70.4378
13:45:57.630,-144.688,-73.6253
13:45:57.640,-146.6881,-74.3128
13:45:57.650,-146.5006,-73.9378
13:45:57.661,-142.563,-71.0628
13:45:57.671,-137.063,-68.1253
13:45:57.680,-132.8755,-63.9377
13:45:57.690,-127.0005,-60.0627
13:45:57.700,-118.3755,-54.8752
13:45:57.710,-106.7504,-47.7502
13:45:57.722,-96.9379,-42.4377
13:45:57.731,-90.4378,-38.1251
13:45:57.740,-86.5003,-38.0626
13:45:57.753,-82.0003,-37.8126
13:45:57.761,-76.8753,-35.4376
13:45:57.770,-70.6253,-31.0626
13:45:57.781,-61.1252,-24.5626
13:45:57.791,-53.1252,-18.8126
13:45:57.800,-45.5627,-13
13:45:57.809,-33.8126,-5.375
13:45:57.820,-22.4376,3.6875
13:45:57.830,-13.4376,10.5625
13:45:57.841,-6.6875,13.9376
13:45:57.851,-6.4375,14.6251
13:45:57.873,-10.125,11.4375
13:45:57.876,-17.3126,7.5
13:45:57.904,-26.3751,0.1875
13:45:57.908,-34.8751,-5.1875
13:45:57.911,-42.1252,-8.3125
13:45:57.913,-46.9377,-10.9375
13:45:57.941,-51.3127,-12.875
13:45:57.944,-56.1877,-15.5626
13:45:57.946,-64.1877,-18.4376
13:45:57.951,-71.5003,-22.1251
13:45:57.990,-78.2503,-27.0001
13:45:57.992,-84.0003,-30.8126
13:45:57.996,-88.8753,-33.6251
13:45:57.996,-92.3754,-35.1876
13:45:58.001,-93.1879,-36.3126
13:45:58.039,-91.0004,-34.8126
13:45:58.042,-87.1878,-31.5626
13:45:58.044,-81.5628,-27.1876
13:45:58.047,-75.3753,-23.9376
13:45:58.052,-69.3128,-20.3126
13:45:58.067,-59.7502,-15.1876
13:45:58.069,-50.7502,-11.0625
13:45:58.079,-41.9377,-5.3125
13:45:58.092,-35.5001,-3.375
13:45:58.099,-32.6251,-1.5
13:45:58.111,-29.5626,-1.8125
13:45:58.119,-24.8126,-1.0625
13:45:58.130,-22.6876,-1.5
13:45:58.141,-19.2501,-1
13:45:58.149,-11.875,3.9375
13:45:58.159,-1.5,10.875
13:45:58.173,13.125,20.3751
13:45:58.180,24.5626,27.6251
13:45:58.190,29.7501,31.5626
13:45:58.205,32.6251,31.7501
13:45:58.210,34.1876,31.6251
13:45:58.221,33.3126,30.6876
13:45:58.230,29.2501,29.2501
13:45:58.240,21.5001,22.1876
13:45:58.250,11.0625,15.3126
13:45:58.259,-1.8125,5.4375
13:45:58.271,-12.9375,-0.9375
13:45:58.288,-21.3751,-5.9375
13:45:58.299,-27.4376,-9.125
13:45:58.304,-28.8126,-9.6875
13:45:58.309,-32.8751,-10.25
13:45:58.321,-37.3751,-13.6876
13:45:58.330,-43.0627,-17.0626
13:45:58.340,-49.1252,-20.3126
13:45:58.351,-54.3127,-23.7501
13:45:58.359,-58.3127,-27.3751
13:45:58.371,-58.9377,-27.7501
13:45:58.381,-57.8752,-26.9376
13:45:58.390,-55.8752,-25.1251
13:45:58.400,-50.3752,-22.5626
13:45:58.410,-44.9377,-17.5626
13:45:58.421,-34.8751,-13
13:45:58.430,-25.1251,-7.125
13:45:58.441,-18.8126,-4
13:45:58.449,-16.6876,-4.875
13:45:58.459,-19.1251,-8.625
13:45:58.473,-19.8751,-10.75
13:45:58.479,-17.4376,-9
13:45:58.490,-12,-7.25
13:45:58.500,-4.375,-2.125
13:45:58.509,4.875,5
13:45:58.522,11.9375,8.3125
13:45:58.530,17.1876,13
13:45:58.540,21.5626,15.2501
13:45:58.551,26.5001,17.8126
13:45:58.561,29.4376,19.5626
13:45:58.572,30.5626,19.1876
13:45:58.580,30.0001,19.6876
13:45:58.590,30.1876,19.5626
13:45:58.600,28.7501,17.9376
13:45:58.611,24.6876,15.1876
13:45:58.622,19.0001,10.25
13:45:58.643,10.5,5.1875
13:45:58.646,2.1875,0.3125
13:45:58.652,-4.6875,-4.4375
13:45:58.687,-11,-5.4375
13:45:58.689,-14.6251,-7.0625
13:45:58.691,-20.0626,-5.5
13:45:58.695,-26.5626,-7.75
13:45:58.701,-32.6251,-9.625
13:45:58.741,-36.7501,-9.0625
13:45:58.743,-40.3752,-11.4375
13:45:58.746,-45.3752,-11.9375
13:45:58.764,-52.1252,-16.3126
13:45:58.766,-57.8127,-19.1251
13:45:58.767,-61.8127,-21.9376
13:45:58.793,-64.5627,-23.3126
13:45:58.795,-64.7502,-23.0001
13:45:58.797,-64.5627,-22.2501
13:45:58.808,-59.9377,-19.5001
13:45:58.818,-54.1877,-15.8126
13:45:58.821,-46.5002,-11.1875
13:45:58.831,-37.5626,-5.75
13:45:58.840,-27.3751,0.9375
13:45:58.850,-18.6876,5.375
13:45:58.860,-14.3751,7.9375
13:45:58.870,-11.75,6.9375
13:45:58.880,-8.5,6.9375
13:45:58.890,-2.9375,9.625
13:45:58.903,3.5625,13.3126
13:45:58.910,10.375,17.6251
13:45:58.921,12.8125,18.6251
13:45:58.929,15.1251,19.7501
13:45:58.940,18.0001,20.3751
13:45:58.950,22.2501,23.0001
13:45:58.959,26.0001,25.9376
13:45:58.970,30.3126,27.3751
13:45:58.980,34.6876,30.3126
13:45:58.990,39.1252,32.3126
13:45:59.000,41.3127,33.8126
13:45:59.011,42.8752,34.8126
13:45:59.021,40.8752,32.8126
13:45:59.029,35.4376,29.7501
13:45:59.040,27.6876,24.3126
13:45:59.050,19.8126,19.0626
13:45:59.060,11.5625,12.375
13:45:59.070,5.3125,9.125
13:45:59.079,1.125,5.3125
13:45:59.089,-2.5,4.125
13:45:59.104,-6.9375,0.8125
13:45:59.110,-13.1876,-1.8125
13:45:59.120,-21.8126,-6.625
13:45:59.130,-27.6876,-9.625
13:45:59.140,-32.9376,-12.4375
13:45:59.149,-37.3126,-13.7501
13:45:59.160,-41.8752,-16.8126
13:45:59.172,-46.8127,-19.4376
13:45:59.180,-49.1252,-21.8126
13:45:59.192,-49.6877,-21.6251
13:45:59.200,-46.8127,-19.5626
13:45:59.210,-42.6877,-17.5626
13:45:59.221,-39.5627,-14.5626
13:45:59.230,-33.0001,-12.5
13:45:59.241,-24.0001,-6.375
13:45:59.250,-12.5,-0.875
13:45:59.260,-6.6875,4
13:45:59.269,-3.875,2.375
13:45:59.281,-5.25,1.375
13:45:59.293,-5.375,-0.5
13:45:59.300,-0.75,1.1875
13:45:59.319,3.3125,3.5
13:45:59.327,10.3125,6.25
13:45:59.357,16.5001,10.8125
13:45:59.433,23.4376,12.9375
13:45:59.433,32.5001,19.0626
13:45:59.433,43.6877,26.2501
13:45:59.433,53.7502,32.8126
13:45:59.433,59.9377,37.6251
13:45:59.458,61.6252,38.2501
13:45:59.461,62.5627,38.2501
13:45:59.461,59.8752,36.6876
13:45:59.462,55.0002,33.6251
13:45:59.465,47.7502,26.6876
13:45:59.470,37.9376,20.6876
13:45:59.498,27.3126,12.25
13:45:59.501,16.5001,5.625
13:45:59.503,7.5,-0.875
13:45:59.515,0.625,-3.125
13:45:59.516,-4.0625,-6.6875
13:45:59.524,-9.3125,-7
13:45:59.537,-13.2501,-9.1875
13:45:59.545,-17.0001,-11.1875
13:45:59.554,-22.1251,-13.3126
13:45:59.566,-27.5626,-15.0626
13:45:59.581,-32.6876,-19.3751
13:45:59.596,-38.4376,-22.8126
13:45:59.598,-43.0627,-25.8126
13:45:59.613,-39.5627,-19.6251
13:45:59.628,-35.6876,-14.5626
13:45:59.632,-30.4376,-9.75
13:45:59.637,-24.6876,-5.3125
13:45:59.644,-17.5001,0.1875
13:45:59.655,-10.25,4.125
13:45:59.665,-5.75,7.375
13:45:59.674,-2.375,7.9375
13:45:59.685,0.3125,7.75
13:45:59.695,2.625,9
13:45:59.705,6.5,10.125
13:45:59.715,12.125,14.0001
13:45:59.724,19.1251,17.8126
13:45:59.735,29.0001,24.8751
13:45:59.745,38.6876,30.4376
13:45:59.755,47.3127,35.6251
13:45:59.764,55.1252,40.6877
13:45:59.775,62.8127,46.3127
13:45:59.785,68.6878,49.8752
13:45:59.795,72.5628,52.4377
13:45:59.805,73.4378,54.1877
13:45:59.815,73.9378,52.1877
13:45:59.825,69.7503,49.5627
13:45:59.835,63.5002,45.0627
13:45:59.845,55.8127,39.0627
13:45:59.857,46.4377,32.4376
13:45:59.865,35.7501,25.3751
13:45:59.875,25.9376,19.0001
13:45:59.885,17.1876,12.875
13:45:59.895,9.25,8.75
13:45:59.907,3.5,5.25
13:45:59.915,-3.25,2.8125
13:45:59.925,-8.6875,-0.25
13:45:59.935,-16.3126,-3.1875
13:45:59.948,-19.1251,-5.4375
13:45:59.955,-24.3751,-7.375
13:45:59.965,-30.0001,-10.625
13:45:59.976,-37.7501,-14.8126
13:45:59.985,-43.6877,-18.1251
13:45:59.995,-47.4377,-21.1876
13:46:00.005,-50.3127,-21.5626
13:46:00.032,-50.6252,-23.7501
13:46:00.035,-52.0627,-22.8751
13:46:00.037,-49.5002,-23.4376
13:46:00.045,-43.8752,-18.0626
13:46:00.057,-34.6876,-13.3751
13:46:00.065,-28.3751,-7.0625
13:46:00.075,-23.6251,-6.6875
13:46:00.084,-21.4376,-6.1875
13:46:00.095,-18.7501,-6.3125
13:46:00.105,-16.6251,-7.125
13:46:00.115,-14.8126,-7.75
13:46:00.124,-11.75,-5.875
13:46:00.134,-6.625,-3.1875
13:46:00.146,1.125,0.5
13:46:00.155,11.125,6.5625
13:46:00.186,20.2501,12.25
13:46:00.190,27.0001,16.9376
13:46:00.191,31.7501,18.4376
13:46:00.196,37.6251,21.7501
13:46:00.225,43.9377,25.7501
13:46:00.229,48.1877,28.8126
13:46:00.231,49.2502,28.1251
13:46:00.236,45.4377,26.5626
13:46:00.267,38.5626,21.8126
13:46:00.269,29.9376,15.3126
13:46:00.272,20.1876,8.25
13:46:00.275,11.875,2.625
13:46:00.303,3.875,-3.0625
13:46:00.304,-1.6875,-5.375
13:46:00.309,-7.125,-8.3125
13:46:00.337,-11.625,-10.1875
13:46:00.340,-15.1876,-12
13:46:00.341,-20.0001,-14.1251
13:46:00.346,-22.1251,-14.2501
13:46:00.355,-25.7501,-16.9376
13:46:00.366,-31.1876,-18.4376
13:46:00.374,-35.4376,-22.1876
13:46:00.385,-40.0002,-26.3751
13:46:00.396,-43.6252,-27.4376
13:46:00.404,-46.0627,-29.3126
13:46:00.415,-48.3752,-29.6876
13:46:00.425,-50.0002,-30.9376
13:46:00.435,-49.4377,-29.5626
13:46:00.445,-47.2502,-27.8126
13:46:00.455,-43.3127,-23.4376
13:46:00.465,-38.1876,-18.7501
13:46:00.475,-33.6251,-13.3751
13:46:00.485,-29.0001,-8.1875
13:46:00.495,-24.1251,-4.1875
13:46:00.505,-20.3126,-1.875
13:46:00.518,-17.0001,1.5
13:46:00.525,-12.0625,3.3125
13:46:00.536,-8.75,5.25
13:46:00.544,-7.4375,5.8125
13:46:00.555,-5.5625,4.875
13:46:00.565,-3.125,5.4375
13:46:00.574,1.5,7.25
13:46:00.585,7.1875,10.3125
13:46:00.596,12.9375,13.5626
13:46:00.607,19.8126,17.8126
13:46:00.614,27.1251,21.4376
13:46:00.625,32.6876,25.0626
13:46:00.635,38.1876,28.5626
13:46:00.645,44.1877,31.8126
13:46:00.654,51.8752,36.0001
13:46:00.669,57.1877,40.1252
13:46:00.678,58.8127,40.5002
13:46:00.686,57.0627,38.8126
13:46:00.712,52.3127,35.9376
13:46:00.714,46.3752,31.5626
13:46:00.730,38.6876,25.8126
13:46:00.732,30.6876,20.1876
13:46:00.736,21.4376,14.5001
13:46:00.745,15.2501,10.25
13:46:00.755,11.75,7.8125
13:46:00.765,14.5001,10.4375
13:46:00.775,17.3751,11.375
13:46:00.787,16.8126,11.1875
13:46:00.796,15.3126,11.125
13:46:00.822,12.625,8.75
13:46:00.824,8.875,7.625
13:46:00.827,4.6875,4
13:46:00.853,-0.25,1.4375
13:46:00.856,-0.8125,1.5
13:46:00.884,0.1875,2.125
13:46:00.948,0.375,3.125
13:46:00.963,1.25,3.75
13:46:00.988,2.5625,3.75
13:46:00.991,2.4375,3.375
13:46:00.991,1.375,1.5625
13:46:00.991,-1.25,-1.875
13:46:00.997,1.125,-1.4375
13:46:00.997,2.5,-0.25
13:46:01.001,6,2.4375
13:46:01.004,11.375,5.8125
13:46:01.015,16.3126,8.75
13:46:01.025,20.7501,11.8125
13:46:01.035,23.0626,12.4375
13:46:01.045,24.8126,14.6251
13:46:01.054,27.0001,14.7501
13:46:01.066,28.0626,16.5001
13:46:01.075,27.0626,14.0626
13:46:01.084,23.6876,12.75
13:46:01.095,20.2501,9.75
13:46:01.105,14.9376,6.25
13:46:01.114,10.75,2.125
13:46:01.125,5.75,-0.75
13:46:01.135,-9.8125,-9.875
13:46:01.144,-8.5,-9.5625
13:46:01.155,-8.5,-9.0625
13:46:01.165,-10.9375,-10
13:46:01.175,-13.5626,-11.75
13:46:01.185,-17.0001,-13.3126
13:46:01.194,-20.5001,-16.4376
13:46:01.206,-25.1876,-18.3126
13:46:01.215,-28.4376,-18.9376
13:46:01.226,-30.6876,-22.2501
13:46:01.234,-35.0626,-22.5626
13:46:01.245,-37.1876,-25.3126
13:46:01.255,-40.3127,-26.9376
13:46:01.265,-43.1877,-27.7501
13:46:01.275,-46.8127,-31.0626
13:46:01.285,-50.3127,-31.5001
13:46:01.312,-53.2502,-33.4376
13:46:01.318,-55.5002,-31.8126
13:46:01.318,-58.0002,-31.8751
13:46:01.325,-60.8127,-31.0626
13:46:01.336,-63.3127,-29.3751
13:46:01.345,-63.3127,-29.0001
13:46:01.355,-64.6877,-27.0001
13:46:01.365,-65.6253,-27.6876
13:46:01.374,-67.0628,-28.0001
13:46:01.385,-68.8128,-26.9376
13:46:01.394,-69.1253,-27.2501
13:46:01.407,-71.5003,-26.5626
13:46:01.415,-71.3753,-25.8751
13:46:01.426,-71.5628,-24.9376
13:46:01.435,-70.0003,-23.9376
13:46:01.445,-68.1878,-21.3751
13:46:01.461,-66.7503,-18.8126
13:46:01.464,-64.4377,-18.3751
13:46:01.474,-63.9377,-18.0626
13:46:01.485,-63.4377,-16.8751
13:46:01.498,-62.8127,-16.2501
13:46:01.505,-61.3752,-15.9376
13:46:01.517,-60.0002,-14.6876
13:46:01.525,-56.3752,-13.8126
13:46:01.535,-52.5002,-9.375
13:46:01.545,-51.8752,-9.5
13:46:01.555,-50.7502,-9.5625
13:46:01.588,-50.1252,-8.6875
13:46:01.590,-49.7502,-8.375
13:46:01.592,-48.6252,-8.375
13:46:01.598,-47.6252,-7.125
13:46:01.614,-47.1252,-6.9375
13:46:01.615,-46.2502,-7.125
13:46:01.648,-45.5627,-7.125
13:46:01.652,-44.4377,-6.3125
13:46:01.652,-42.0627,-4.3125
13:46:01.657,-40.7502,-2.9375
13:46:01.686,-39.1877,-3.0625
13:46:01.691,-37.8126,-2.5
13:46:01.692,-36.9376,-1.9375
13:46:01.694,-36.1251,-0.9375
13:46:01.722,-36.5626,-2.375
13:46:01.725,-36.8126,-3.0625
13:46:01.730,-36.5001,-2.25
13:46:01.749,-36.6251,-2.0625
13:46:01.751,-35.7501,-2.875
13:46:01.755,-35.8751,-2.1875
13:46:01.765,-35.8126,-3.375
13:46:01.775,-36.0626,-3.125
13:46:01.785,-36.1251,-2.4375
13:46:01.795,-35.8751,-3.1875
13:46:01.805,-35.6876,-2.5
13:46:01.815,-36.1251,-4.25
13:46:01.825,-36.5001,-3.5
13:46:01.834,-36.5001,-3.125
13:46:01.844,-35.9376,-3.625
13:46:01.858,-35.7501,-2.9375
13:46:01.865,-35.0001,-3.1875
13:46:01.876,-34.8126,-2.875
13:46:01.885,-33.3126,-3.25
13:46:01.895,-32.3126,-1.3125
13:46:01.905,-32.0626,-1.625
13:46:01.915,-31.5626,-2.0625
13:46:01.925,-32.1251,-1.875
13:46:01.935,-30.3126,-1
13:46:01.944,-28.7501,-0.25
13:46:01.955,-27.3126,-0.75
13:46:01.967,-26.3126,-0.125
13:46:01.975,-18.0001,3.5
13:46:01.986,-17.1876,4.75
13:46:01.998,-10.3125,8.8125
13:46:02.006,-4.875,12.1875
13:46:02.015,-0.4375,15.3126
13:46:02.029,4.5625,17.0626
13:46:02.040,10.375,21.3126
13:46:02.045,15.7501,23.1251
13:46:02.057,19.5001,26.0626
13:46:02.065,23.1876,28.6251
13:46:02.076,26.1876,29.1251
13:46:02.085,29.3126,30.7501
13:46:02.095,33.2501,32.0626
13:46:02.104,37.7501,34.1876
13:46:02.115,40.6877,35.5626
13:46:02.125,44.6877,39.5002
13:46:02.133,49.3127,43.0002
13:46:02.144,53.3127,45.3127
13:46:02.155,57.2502,48.3127
13:46:02.167,62.4377,53.2502
13:46:02.174,63.9377,56.5002
13:46:02.185,67.0628,56.8752
13:46:02.195,71.5628,60.3752
13:46:02.211,80.2503,65.7502
13:46:02.215,88.3128,70.1253
13:46:02.223,97.0004,76.3753
13:46:02.245,106.5004,80.7503
13:46:02.247,115.8129,87.5628
13:46:02.258,127.813,93.2504
13:46:02.264,135.8755,97.2504
13:46:02.306,140.938,100.3129
13:46:02.336,143.8755,100.6254
13:46:02.338,146.2505,101.3129
13:46:02.342,147.3131,101.5004
13:46:02.344,149.8756,101.6254
13:46:02.349,150.2506,100.4379
13:46:02.349,149.8756,101.1879
13:46:02.355,150.1881,99.0004
13:46:02.393,148.8131,98.3754
13:46:02.395,148.6256,96.0004
13:46:02.397,147.0631,95.5004
13:46:02.402,145.188,92.6879
13:46:02.406,142.313,91.1879
13:46:02.442,139.5005,88.5628
13:46:02.444,136.1255,85.6253
13:46:02.447,133.0005,84.0003
13:46:02.449,128.813,81.1878
13:46:02.456,124.563,78.5628
13:46:02.465,122.1255,76.5003
13:46:02.475,119.2505,74.0003
13:46:02.488,115.5004,72.7503
13:46:02.494,112.7504,70.2503
13:46:02.505,110.6254,67.5003
13:46:02.514,111.4379,67.8128
13:46:02.525,110.1254,67.8128
13:46:02.535,110.5629,66.0003
13:46:02.545,108.6254,65.3753
13:46:02.555,108.8754,64.9377
13:46:02.565,108.0004,62.8127
13:46:02.593,106.5629,62.3127
13:46:02.594,104.8129,60.5002
13:46:02.600,103.2504,59.8752
