timestamp,Red,IR
14:21:50.594,-17.5626,-44.3752
14:21:50.603,-18.3751,-49.1252
14:21:50.613,-18.7501,-51.5627
14:21:50.625,-19.9376,-55.3127
14:21:50.633,-20.8438,-58.8127
14:21:50.643,-21.7188,-61.4377
14:21:50.654,-22.0626,-63.9377
14:21:50.663,-22.2501,-67.3753
14:21:50.687,-23.6251,-70.3128
14:21:50.689,-23.9063,-72.8753
14:21:50.694,-24.6563,-75.0628
14:21:50.721,-24.5626,-77.5628
14:21:50.724,-25.3438,-80.5628
14:21:50.726,-26.3439,-83.5003
14:21:50.738,-27.2814,-85.7503
14:21:50.770,-27.2501,-89.7503
14:21:50.777,-28.0001,-92.1254
14:21:50.779,-29.0314,-96.1254
14:21:50.781,-29.5939,-98.4379
14:21:50.784,-30.3126,-101.0004
14:21:50.817,-30.5939,-102.0629
14:21:50.821,-28.6876,-99.3129
14:21:50.821,-24.4063,-84.3128
14:21:50.825,-15.3126,-61.0627
14:21:50.854,-7.875,-35.8751
14:21:50.858,-1.4375,-12.4375
14:21:50.859,4.2188,7.375
14:21:50.865,9.8438,27.6251
14:21:50.874,13.6251,43.8752
14:21:50.883,15.5626,58.0002
14:21:50.894,18.4688,69.9378
14:21:50.904,20.8126,79.6253
14:21:50.914,21.7813,86.8128
14:21:50.924,23.5313,93.4379
14:21:50.935,23.8126,98.6879
14:21:50.945,24.8126,102.9379
14:21:50.954,25.7188,106.9379
14:21:50.963,25.9376,109.1254
14:21:50.973,27.0001,111.0004
14:21:50.984,25.8438,112.6254
14:21:50.994,26.1876,112.8129
14:21:51.003,26.5314,113.2504
14:21:51.014,25.6251,111.3754
14:21:51.024,25.0626,108.8129
14:21:51.034,22.6563,104.4379
14:21:51.057,20.8438,99.2504
14:21:51.057,19.7188,93.0004
14:21:51.073,17.7813,85.9378
14:21:51.075,16.2813,80.5003
14:21:51.084,13.8438,75.2503
14:21:51.093,12.75,69.8128
14:21:51.104,11.1563,65.3753
14:21:51.114,10.75,60.9377
14:21:51.124,9.5625,57.2502
14:21:51.134,8.9688,54.5627
14:21:51.144,8.5625,51.7502
14:21:51.153,7.375,49.9377
14:21:51.165,7.375,47.0627
14:21:51.174,5.9063,43.3752
14:21:51.183,4.7813,40.6877
14:21:51.193,4.0938,36.8126
14:21:51.203,2.2188,33.4376
14:21:51.213,1.3125,28.1251
14:21:51.223,0.3125,23.2501
14:21:51.234,-1.7813,19.3751
14:21:51.245,-3.0625,14.8751
14:21:51.262,-3.875,10.625
14:21:51.265,-5.0313,5.8125
14:21:51.280,-6.5625,0.875
14:21:51.286,-7.75,-4
14:21:51.293,-8.0938,-7.375
14:21:51.303,-9.4375,-12.0625
14:21:51.314,-10,-17.2501
14:21:51.324,-11.2813,-21.3751
14:21:51.334,-12.875,-25.9376
14:21:51.344,-12.9063,-29.5001
14:21:51.354,-14.9063,-34.1251
14:21:51.364,-15.2813,-37.9376
14:21:51.374,-16.5001,-41.9377
14:21:51.383,-18.1251,-46.1877
14:21:51.393,-18.5626,-50.8752
14:21:51.404,-19.7501,-54.0002
14:21:51.414,-20.0313,-58.4377
14:21:51.423,-21.7501,-62.0627
14:21:51.434,-22.2813,-66.1878
14:21:51.461,-23.1251,-69.4378
14:21:51.462,-24.6876,-73.0628
14:21:51.464,-24.6876,-76.7503
14:21:51.474,-25.3438,-78.8128
14:21:51.488,-26.7189,-83.5003
14:21:51.494,-26.5001,-86.1878
14:21:51.531,-27.7814,-89.0003
14:21:51.533,-27.9689,-91.6254
14:21:51.536,-28.6876,-95.6879
14:21:51.540,-30.2189,-97.4379
14:21:51.557,-29.8439,-101.3129
14:21:51.559,-31.1251,-103.6879
14:21:51.587,-30.6564,-107.0629
14:21:51.589,-31.7501,-108.7504
14:21:51.591,-32.6251,-111.3129
14:21:51.597,-32.9064,-115.1254
14:21:51.609,-33.4689,-116.2504
14:21:51.616,-33.3751,-119.438
14:21:51.640,-33.8751,-121.3755
14:21:51.643,-34.7814,-124.5005
14:21:51.646,-34.7814,-125.063
14:21:51.663,-35.0314,-128.063
14:21:51.666,-35.2814,-129.938
14:21:51.673,-36.0626,-131.3755
14:21:51.685,-35.8126,-133.563
14:21:51.693,-36.6876,-135.438
14:21:51.704,-35.7189,-136.2505
14:21:51.714,-36.6251,-136.5005
14:21:51.724,-34.9064,-132.938
14:21:51.734,-28.7501,-113.6254
14:21:51.745,-16.8751,-79.1878
14:21:51.753,-4.5625,-39.4377
14:21:51.763,4,-10.9375
14:21:51.773,10.9688,14.5626
14:21:51.783,15.1251,35.4376
14:21:51.793,20.0001,52.8752
14:21:51.804,22.7188,69.1878
14:21:51.814,25.7188,80.2503
14:21:51.823,26.8751,92.6254
14:21:51.833,28.7814,100.1254
14:21:51.843,31.3751,108.5629
14:21:51.854,31.7501,115.8754
14:21:51.864,33.3126,120.7505
14:21:51.873,35.0314,127.188
14:21:51.884,35.1251,132.188
14:21:51.894,36.3126,134.438
14:21:51.904,36.5939,138.563
14:21:51.914,37.4689,139.2505
14:21:51.923,37.4376,140.563
14:21:51.933,36.8126,139.688
14:21:51.944,36.7501,138.1255
14:21:51.954,35.5314,136.1255
14:21:51.963,33.8751,130.5005
14:21:51.973,31.4689,124.813
14:21:51.983,29.1251,118.1255
14:21:51.995,27.5314,113.0004
14:21:52.003,25.6251,105.7504
14:21:52.014,24.5001,99.9379
14:21:52.024,22.5313,93.6879
14:21:52.034,20.6876,89.6253
14:21:52.043,19.7188,84.8128
14:21:52.053,18.7813,80.7503
14:21:52.063,18.5001,77.4378
14:21:52.073,17.0001,74.3128
14:21:52.083,15.2188,70.2503
14:21:52.093,14.8751,67.0628
14:21:52.104,13.7501,64.1252
14:21:52.113,12.5313,60.0627
14:21:52.123,11.25,55.5627
14:21:52.133,9.9375,51.0002
14:21:52.144,8.4063,46.5627
14:21:52.155,7.9375,41.6877
14:21:52.163,6.375,36.9376
14:21:52.173,5.25,32.8751
14:21:52.184,4.0938,27.7501
14:21:52.193,2.625,23.0626
14:21:52.203,2.0313,18.1876
14:21:52.234,0.4688,13.3751
14:21:52.238,-0.8125,8.8125
14:21:52.241,-2.4063,3.125
14:21:52.245,-3.5625,-1.5
14:21:52.273,-5.0938,-6.3125
14:21:52.277,-5.8438,-11.4375
14:21:52.278,-7.6875,-16.3126
14:21:52.285,-9.2188,-21.0001
14:21:52.319,-9.9688,-25.9376
14:21:52.324,-11.1563,-30.6876
14:21:52.327,-12.1563,-35.2501
14:21:52.330,-13.9063,-38.5001
14:21:52.335,-15.1251,-43.1877
14:21:52.366,-15.4063,-47.5002
14:21:52.394,-16.6563,-51.5627
14:21:52.410,-17.1563,-55.4377
14:21:52.412,-18.7813,-58.0627
14:21:52.415,-19.0626,-61.8752
14:21:52.417,-20.2188,-65.5002
14:21:52.417,-20.1876,-68.1253
14:21:52.420,-19.9376,-71.5003
14:21:52.431,-21.7188,-74.6253
14:21:52.439,-22.8751,-77.7503
14:21:52.450,-23.2188,-81.8128
14:21:52.461,-23.6563,-85.1878
14:21:52.470,-24.9376,-87.8753
14:21:52.480,-25.3751,-92.6879
14:21:52.488,-27.0939,-95.2504
14:21:52.499,-27.5626,-99.6879
14:21:52.510,-28.0939,-103.0629
14:21:52.519,-28.5314,-105.3129
14:21:52.530,-30.1564,-109.3129
14:21:52.543,-30.7814,-111.7504
14:21:52.558,-31.4064,-115.1879
14:21:52.561,-31.7189,-117.3129
14:21:52.576,-32.1876,-120.3755
14:21:52.583,-33.2189,-124.6255
14:21:52.589,-34.0939,-126.938
14:21:52.598,-34.0001,-128.813
14:21:52.609,-34.9064,-129.563
14:21:52.622,-35.1251,-132.688
14:21:52.629,-34.8439,-134.6255
14:21:52.638,-36.1876,-136.1255
14:21:52.650,-36.4064,-139.1255
14:21:52.679,-36.2501,-139.3755
14:21:52.682,-37.1876,-141.2505
14:21:52.686,-36.7189,-144.063
14:21:52.688,-37.8439,-145.063
14:21:52.701,-37.6564,-148.1881
14:21:52.709,-37.6564,-148.8756
14:21:52.719,-38.2189,-147.9381
14:21:52.729,-35.5001,-140.7505
14:21:52.739,-27.3751,-113.5629
14:21:52.750,-13.0313,-71.8128
14:21:52.759,-0.875,-30.7501
14:21:52.768,7.4063,-0.625
14:21:52.779,13.8751,21.8751
14:21:52.790,17.9376,41.9377
14:21:52.801,22.9688,58.1877
14:21:52.810,24.7501,73.6253
14:21:52.818,27.3751,83.1253
14:21:52.828,28.7814,92.8754
14:21:52.840,30.0939,100.7504
14:21:52.852,32.7501,108.6879
14:21:52.859,33.1251,114.0629
14:21:52.870,34.5001,118.6255
14:21:52.880,35.2814,123.2505
14:21:52.890,35.1251,127.563
14:21:52.900,36.3439,129.2505
14:21:52.908,37.4689,131.3755
14:21:52.941,36.9064,132.438
14:21:52.944,36.8751,131.1255
14:21:52.946,35.8751,130.8755
14:21:52.955,35.2501,128.188
14:21:52.986,34.5001,124.6255
14:21:52.989,32.5939,119.313
14:21:52.991,31.0939,113.3129
14:21:52.994,28.5626,107.3754
14:21:53.025,26.8439,100.8129
14:21:53.026,24.7501,94.4379
14:21:53.029,23.8126,88.2503
14:21:53.036,21.5313,83.3753
14:21:53.071,21.1563,78.2503
14:21:53.071,19.6251,75.4378
14:21:53.075,19.5938,71.5628
14:21:53.079,18.9688,68.1253
14:21:53.108,17.0313,63.9377
14:21:53.111,16.7813,62.1252
14:21:53.113,15.6563,58.8127
14:21:53.116,14.9376,54.4377
14:21:53.146,13.8126,50.8752
14:21:53.149,12.5,45.6877
14:21:53.151,10.4063,41.7502
14:21:53.154,9.3125,36.4376
14:21:53.167,7.5,31.3751
14:21:53.176,6,26.4376
14:21:53.185,5.2188,20.6251
14:21:53.195,3.3125,15.8126
14:21:53.204,2,9.625
14:21:53.215,0.0938,5.75
14:21:53.225,-0.8438,-0.5
14:21:53.235,-2.7813,-4.9375
14:21:53.245,-3.6563,-10.8125
14:21:53.255,-5.125,-15.0001
14:21:53.265,-6.4063,-19.0626
14:21:53.275,-7.5625,-24.6251
14:21:53.286,-8.7813,-28.3751
14:21:53.296,-9.625,-33.3751
14:21:53.305,-10.75,-37.0001
14:21:53.315,-11.5,-41.5627
14:21:53.324,-13.1563,-45.3752
14:21:53.335,-14.2188,-49.9377
14:21:53.344,-14.8438,-54.8127
14:21:53.355,-15.9688,-58.0002
14:21:53.365,-16.7501,-63.4377
14:21:53.375,-18.0313,-66.9378
14:21:53.386,-19.0001,-70.8753
14:21:53.395,-20.0626,-73.2503
14:21:53.405,-21.0001,-77.2503
14:21:53.414,-21.0938,-81.8753
14:21:53.425,-22.0938,-84.0003
14:21:53.435,-23.5938,-88.5003
14:21:53.445,-23.3438,-90.3753
14:21:53.455,-24.6563,-92.7504
14:21:53.465,-25.1876,-96.1879
14:21:53.475,-25.3126,-99.3129
14:21:53.485,-26.8126,-101.7504
14:21:53.495,-27.1251,-104.8754
14:21:53.505,-27.0626,-106.1879
14:21:53.515,-27.6876,-107.2504
14:21:53.524,-28.1251,-111.1879
14:21:53.535,-27.8126,-112.6254
14:21:53.544,-29.1251,-114.0629
14:21:53.555,-29.2814,-116.6254
14:21:53.566,-28.8126,-118.0005
14:21:53.575,-30.5001,-118.938
14:21:53.585,-30.5314,-122.7505
14:21:53.595,-29.7814,-123.688
14:21:53.605,-31.2814,-124.8755
14:21:53.615,-30.9376,-127.1255
14:21:53.624,-30.5939,-125.688
14:21:53.635,-28.8126,-121.1255
14:21:53.646,-22.0313,-100.2504
14:21:53.752,-11.1875,-66.5628
14:21:53.752,0.5313,-30.3751
14:21:53.784,7.875,-1.6875
14:21:53.784,14.5626,19.0626
14:21:53.789,18.9688,39.6252
14:21:53.792,23.4376,55.3127
14:21:53.793,25.7501,68.9378
14:21:53.793,28.4064,79.0628
14:21:53.800,28.6564,87.7503
14:21:53.831,30.2501,93.8754
14:21:53.834,30.9376,100.8754
14:21:53.835,32.5626,103.1254
14:21:53.841,32.8751,106.8129
14:21:53.861,32.4689,108.6254
14:21:53.863,33.6251,110.4379
14:21:53.878,33.6876,111.6879
14:21:53.881,34.1251,111.6254
14:21:53.890,33.4064,112.0004
14:21:53.900,33.1876,110.0004
14:21:53.910,32.3439,108.4379
14:21:53.921,31.9689,104.8129
14:21:53.930,29.7814,99.8129
14:21:53.960,28.3751,93.3129
14:21:53.964,26.0001,87.5628
14:21:53.965,21.0938,63.1877
14:21:53.972,19.7813,60.6252
14:21:53.980,19.9063,58.1252
14:21:53.990,18.4376,55.3127
14:21:54.000,19.0001,52.4377
14:21:54.009,16.4376,49.5002
14:21:54.020,15.1563,45.5002
14:21:54.030,13.9688,41.5002
14:21:54.041,12.4375,36.5626
14:21:54.052,11.3125,32.2501
14:21:54.060,10.1875,26.9376
14:21:54.070,8.5313,22.9376
14:21:54.080,7.5,17.7501
14:21:54.091,5.125,13.5001
14:21:54.100,3.7188,8.625
14:21:54.109,2.4688,2.5625
14:21:54.120,1.4375,-2.25
14:21:54.130,-0.3125,-6.6875
14:21:54.140,-1,-11.375
14:21:54.150,-2.7813,-16.3126
14:21:54.162,-3.4375,-20.1251
14:21:54.170,-5.5,-24.8751
14:21:54.180,-6.8125,-29.6251
14:21:54.189,-7.625,-35.0626
14:21:54.200,-9.875,-39.8752
14:21:54.211,-10.3438,-43.5002
14:21:54.220,-12.0313,-49.0002
14:21:54.230,-12.8125,-53.2502
14:21:54.240,-13.9376,-57.9377
14:21:54.250,-14.8126,-61.9377
14:21:54.260,-15.3438,-65.5002
14:21:54.270,-17.4376,-69.5003
14:21:54.280,-18.3438,-73.5003
14:21:54.294,-19.6876,-77.5003
14:21:54.300,-19.5938,-81.3753
14:21:54.313,-21.2501,-84.3753
14:21:54.320,-22.0313,-89.4378
14:21:54.330,-22.4063,-92.0004
14:21:54.340,-24.0313,-94.1254
14:21:54.350,-24.3751,-98.7504
14:21:54.367,-24.9376,-100.1254
14:21:54.371,-25.5938,-103.9379
14:21:54.396,-26.3751,-106.0004
14:21:54.400,-26.5001,-109.4379
14:21:54.403,-27.2814,-111.5004
14:21:54.411,-27.4064,-114.0629
14:21:54.441,-27.0001,-115.8754
14:21:54.443,-28.6876,-117.7504
14:21:54.446,-28.8126,-121.0005
14:21:54.451,-29.3126,-121.8755
14:21:54.480,-29.5314,-124.438
14:21:54.482,-29.5001,-125.2505
14:21:54.486,-29.7189,-127.313
14:21:54.512,-29.9689,-129.1255
14:21:54.513,-30.5939,-130.3755
14:21:54.516,-30.2814,-131.938
14:21:54.522,-30.5626,-131.2505
14:21:54.542,-29.5626,-129.1255
14:21:54.545,-24.8126,-115.6879
14:21:54.552,-14.0626,-80.8753
14:21:54.560,0.625,-35.9376
14:21:54.570,11.1563,0.25
14:21:54.580,18.2188,25.6876
14:21:54.589,23.6563,47.8127
14:21:54.600,28.3126,65.0628
14:21:54.611,31.4689,81.0003
14:21:54.620,33.1251,91.8754
14:21:54.631,35.3439,101.0004
14:21:54.640,36.4689,110.5629
14:21:54.650,38.5314,116.2504
14:21:54.661,38.8439,124.2505
14:21:54.670,40.7189,127.813
14:21:54.680,40.8439,132.8755
14:21:54.689,41.6252,135.1255
14:21:54.701,42.9064,138.2505
14:21:54.710,42.2814,140.688
14:21:54.720,43.4064,142.063
14:21:54.730,42.5627,143.188
14:21:54.740,42.2502,141.6255
14:21:54.750,41.2814,139.813
14:21:54.760,40.0627,136.1255
14:21:54.769,38.8751,132.438
14:21:54.780,37.3751,125.563
14:21:54.789,35.3751,119.688
14:21:54.800,33.6251,113.3754
14:21:54.810,31.5939,107.4379
14:21:54.820,29.3439,101.3754
14:21:54.831,27.3751,94.7504
14:21:54.840,26.0938,89.3753
14:21:54.850,24.8751,85.3753
14:21:54.860,24.0938,80.3128
14:21:54.870,23.4063,77.1878
14:21:54.881,22.7813,73.9378
14:21:54.890,21.3126,71.4378
14:21:54.900,20.5313,67.8753
14:21:54.911,19.4376,64.0627
14:21:54.921,18.2188,60.0627
14:21:54.930,16.8438,56.2502
14:21:54.940,15.7813,50.6252
14:21:54.950,14.6251,46.5002
14:21:54.960,13.1563,42.0627
14:21:54.970,11.75,36.8126
14:21:54.980,10.3125,31.9376
14:21:54.990,8.4688,26.8126
14:21:55.000,6.5,22.1876
14:21:55.010,5.7813,16.0626
14:21:55.020,3.6875,11.0625
14:21:55.036,2.3125,5.9375
14:21:55.044,1.4688,0.4375
14:21:55.058,0.5,-3.8125
14:21:55.064,-1.5,-9.4375
14:21:55.070,-2.5625,-14.3751
14:21:55.079,-4.2188,-19.5626
14:21:55.089,-5.4375,-24.0001
14:21:55.100,-6.0625,-28.8751
14:21:55.110,-8.0625,-33.3126
14:21:55.121,-8.5,-38.1876
14:21:55.130,-10.25,-42.5627
14:21:55.160,-11.5,-46.2502
14:21:55.163,-12.2188,-51.8127
14:21:55.233,-13.5001,-56.0627
14:21:55.261,-14.7188,-59.7502
14:21:55.293,-15.6563,-65.0627
14:21:55.297,-16.5001,-68.5003
14:21:55.297,-17.5626,-72.8128
14:21:55.297,-18.9688,-76.2503
14:21:55.301,-20.0001,-79.3128
14:21:55.302,-21.2188,-84.1878
14:21:55.320,-21.3126,-87.7503
14:21:55.320,-23.5001,-91.2504
14:21:55.321,-23.9376,-95.3754
14:21:55.324,-24.4376,-98.3754
14:21:55.330,-25.3751,-102.6879
14:21:55.340,-25.9063,-105.0004
14:21:55.350,-27.1564,-106.3754
14:21:55.360,-28.0001,-111.1879
14:21:55.369,-28.6876,-112.4379
14:21:55.380,-29.0001,-115.4379
14:21:55.390,-29.0626,-117.0004
14:21:55.401,-29.4689,-119.8755
14:21:55.409,-30.2814,-121.313
14:21:55.420,-30.3751,-124.063
14:21:55.431,-35.3439,-146.5006
14:21:55.441,-35.4689,-147.2506
14:21:55.450,-35.2501,-148.6256
14:21:55.461,-35.5001,-149.3756
14:21:55.470,-35.3439,-150.6881
14:21:55.480,-36.1876,-151.5631
14:21:55.490,-35.5314,-152.1881
14:21:55.500,-35.0314,-150.1256
14:21:55.509,-32.8126,-141.7505
14:21:55.519,-24.5313,-117.3755
14:21:55.529,-9.75,-70.3128
14:21:55.542,3.6875,-25.2501
14:21:55.550,12.9063,6.875
14:21:55.560,18.5938,30.8751
14:21:55.571,24.0626,50.2502
14:21:55.582,28.0314,67.1878
14:21:55.589,29.8439,80.3753
14:21:55.601,31.8751,88.2503
14:21:55.609,33.9064,98.1879
14:21:55.619,34.7189,105.1254
14:21:55.630,36.1564,110.8754
14:21:55.641,37.3126,117.0629
14:21:55.651,37.6564,121.6255
14:21:55.661,39.1564,124.563
14:21:55.670,39.3751,128.563
14:21:55.680,39.8439,129.313
14:21:55.690,40.8752,131.563
14:21:55.700,40.1252,131.8755
14:21:55.711,40.2814,132.438
14:21:55.720,39.2814,131.7505
14:21:55.731,39.1564,128.938
14:21:55.740,37.0001,125.3755
14:21:55.752,36.5626,119.813
14:21:55.760,33.6564,114.3129
14:21:55.771,32.6564,108.2504
14:21:55.780,30.1564,101.6879
14:21:55.791,29.2189,95.9379
14:21:55.821,26.9376,90.1253
14:21:55.824,25.3751,85.5628
14:21:55.826,24.8126,79.6878
14:21:55.832,23.3126,76.1253
14:21:55.861,22.5313,72.0628
14:21:55.864,21.1563,69.3128
14:21:55.866,20.8438,66.3128
14:21:55.873,19.5001,62.7502
14:21:55.900,19.1251,59.6877
14:21:55.902,17.7813,56.5627
14:21:55.905,16.6251,52.7502
14:21:55.930,15.0001,48.6877
14:21:55.932,13.8438,44.1877
14:21:55.935,12.4375,38.5001
14:21:55.940,11,34.0001
14:21:55.971,9.5,27.9376
14:21:55.972,8.25,24.3126
14:21:55.975,6.2188,18.0626
14:21:55.981,4.8438,12.5625
14:21:55.992,3.6875,7.8125
14:21:56.001,2.0625,3
14:21:56.011,0.9688,-2.625
14:21:56.021,-0.0625,-7
14:21:56.030,-1.75,-11.875
14:21:56.041,-2.9688,-16.5001
14:21:56.050,-3.875,-21.3751
14:21:56.059,-6.125,-25.4376
14:21:56.071,-6.4375,-31.2501
14:21:56.081,-8.5313,-35.6251
14:21:56.091,-9.5313,-40.3752
14:21:56.101,-11.4375,-45.5002
14:21:56.109,-11.625,-49.9377
14:21:56.120,-13.2501,-54.3752
14:21:56.131,-13.9688,-59.5002
14:21:56.142,-15.8438,-63.5002
14:21:56.151,-17.6563,-67.7503
14:21:56.161,-18.0626,-72.8128
14:21:56.170,-19.4063,-75.9378
14:21:56.181,-20.1876,-81.0003
14:21:56.191,-20.5001,-84.3128
14:21:56.201,-22.6251,-87.8128
14:21:56.213,-22.9376,-91.5629
14:21:56.221,-23.3126,-94.0004
14:21:56.231,-24.7501,-97.6254
14:21:56.241,-24.8751,-101.0629
14:21:56.251,-26.1876,-103.5004
14:21:56.261,-26.7501,-106.8754
14:21:56.271,-27.0626,-110.0004
14:21:56.281,-27.7189,-112.0004
14:21:56.290,-28.1876,-115.0004
14:21:56.301,-28.7814,-117.7505
14:21:56.310,-28.4689,-119.188
14:21:56.321,-29.1564,-121.7505
14:21:56.333,-29.6251,-123.813
14:21:56.350,-29.9689,-125.6255
14:21:56.352,-31.1251,-128.6255
14:21:56.367,-31.3126,-129.438
14:21:56.382,-31.5939,-131.3755
14:21:56.385,-31.5001,-132.563
14:21:56.393,-31.8751,-132.7505
14:21:56.401,-32.0626,-135.1255
14:21:56.411,-32.8439,-136.063
14:21:56.421,-32.0939,-137.0005
14:21:56.432,-32.4064,-138.8755
14:21:56.443,-32.5626,-139.063
14:21:56.453,-32.5001,-139.313
14:21:56.461,-32.0001,-140.5005
14:21:56.470,-31.0626,-139.813
14:21:56.481,-31.6251,-138.813
14:21:56.491,-29.0314,-131.0005
14:21:56.520,-23.0626,-108.8129
14:21:56.522,-8.7188,-64.3752
14:21:56.525,5.9063,-16.1876
14:21:56.532,15.0313,16.1251
14:21:56.594,20.9063,40.6252
14:21:56.595,25.5001,58.5002
14:21:56.611,29.1251,74.4378
14:21:56.637,31.1564,86.3753
14:21:56.637,32.3439,93.2504
14:21:56.637,34.0626,100.7504
14:21:56.675,33.9064,106.5629
14:21:56.676,34.4689,110.8754
14:21:56.679,35.8439,115.6879
14:21:56.680,36.8439,119.813
14:21:56.680,36.7189,123.063
14:21:56.687,37.3126,124.563
14:21:56.717,37.9689,126.7505
14:21:56.719,37.0626,128.438
14:21:56.721,37.8751,127.688
14:21:56.728,37.2501,127.063
14:21:56.737,36.0001,124.438
14:21:56.746,34.9376,122.063
14:21:56.756,33.7189,116.3754
14:21:56.766,32.4689,110.5004
14:21:56.777,31.0626,106.2504
14:21:56.786,29.2501,99.8129
14:21:56.797,25.5313,88.6878
14:21:56.807,25.4688,84.4378
14:21:56.816,23.8751,79.3753
14:21:56.826,23.8438,76.3753
14:21:56.836,22.3126,73.1253
14:21:56.846,21.1563,67.3753
14:21:56.856,19.7188,64.5627
14:21:56.866,19.0938,61.1252
14:21:56.876,18.2813,57.1252
14:21:56.886,16.6876,53.5002
14:21:56.896,15.0626,48.6252
14:21:56.907,13.7188,43.6877
14:21:56.916,12.125,38.8751
14:21:56.927,9.875,34.3751
14:21:56.936,8.5938,27.8751
14:21:56.946,6.9688,22.3751
14:21:56.956,5.5313,18.3126
14:21:56.966,4.3438,12.0625
14:21:56.976,2.8125,8.5625
14:21:56.986,1.5,2.375
14:21:56.996,0,-2.5625
14:21:57.006,-1.1875,-7.5625
14:21:57.016,-3.4063,-12.4375
14:21:57.026,-4.2813,-17.7501
14:21:57.036,-5.8438,-23.0626
14:21:57.046,-7.6563,-27.9376
14:21:57.056,-8.375,-32.5626
14:21:57.066,-10.0313,-37.8751
14:21:57.081,-10.7813,-42.6252
14:21:57.092,-11.9063,-46.8752
14:21:57.101,-12.75,-50.3752
14:21:57.111,-14.0313,-54.5002
14:21:57.121,-15.4376,-58.9377
14:21:57.131,-16.0626,-62.8127
14:21:57.141,-17.0001,-66.8753
14:21:57.151,-17.7813,-70.5628
14:21:57.161,-18.7501,-74.4378
14:21:57.171,-19.7813,-76.5003
14:21:57.181,-20.3438,-80.4378
14:21:57.192,-20.4688,-82.6878
14:21:57.201,-22.0938,-85.6253
14:21:57.212,-22.7188,-89.8128
14:21:57.222,-23.1251,-92.2504
14:21:57.231,-23.8438,-95.1879
14:21:57.241,-25.2813,-99.4379
14:21:57.251,-25.7813,-101.8754
14:21:57.286,-25.6876,-103.7504
14:21:57.288,-26.5626,-105.1879
14:21:57.290,-26.1251,-107.5629
14:21:57.292,-27.0939,-108.9379
14:21:57.323,-27.4689,-111.1254
14:21:57.328,-28.2814,-112.1879
14:21:57.330,-27.9064,-114.5629
14:21:57.331,-28.3751,-116.0629
14:21:57.357,-28.3751,-117.688
14:21:57.359,-29.0626,-118.5005
14:21:57.361,-28.8751,-120.6255
14:21:57.386,-28.2814,-121.563
14:21:57.389,-29.7501,-123.313
14:21:57.391,-28.4064,-123.938
14:21:57.426,-30.3751,-125.438
14:21:57.428,-29.6251,-125.7505
14:21:57.434,-28.0626,-121.8755
14:21:57.434,-25.2501,-110.0004
14:21:57.442,-14.3126,-80.0628
14:21:57.452,-0.625,-32.1251
14:21:57.461,10.8438,6.6875
14:21:57.472,19.0938,33.8751
14:21:57.482,23.5626,55.0627
14:21:57.492,28.8751,72.2503
14:21:57.501,31.0314,86.1878
14:21:57.511,32.4064,95.5004
14:21:57.521,34.5626,104.2504
14:21:57.531,35.0939,110.5004
14:21:57.541,35.5939,114.9379
14:21:57.551,36.7189,119.688
14:21:57.561,36.8439,123.8755
14:21:57.571,37.3439,125.813
14:21:57.582,38.1564,129.438
14:21:57.591,37.7189,129.1255
14:21:57.601,38.0939,131.188
14:21:57.612,37.8126,133.1255
14:21:57.621,37.8751,131.2505
14:21:57.631,36.8751,129.3755
14:21:57.641,36.4689,127.188
14:21:57.651,34.7814,122.3755
14:21:57.669,33.4689,118.1255
14:21:57.675,32.1564,112.6254
14:21:57.690,30.6876,107.1254
14:21:57.692,29.5314,102.0629
14:21:57.708,27.8126,97.3754
14:21:57.712,26.2814,93.5004
14:21:57.721,25.8126,89.2503
14:21:57.731,24.3438,85.3753
14:21:57.741,23.9063,83.3128
14:21:57.752,23.3126,80.5003
14:21:57.761,22.8126,78.3753
14:21:57.771,22.3438,76.1878
14:21:57.800,20.8438,73.0628
14:21:57.803,20.4688,70.8753
14:21:57.805,19.0313,67.0003
14:21:57.812,17.6876,63.8127
14:21:57.827,16.4688,60.1252
14:21:57.832,15.7188,54.6877
14:21:57.842,14.0938,51.1252
14:21:57.851,12.2813,46.3127
14:21:57.863,11.25,41.6877
14:21:57.873,10.0938,36.6251
14:21:57.881,8.8125,31.8126
14:21:57.891,8.1563,27.4376
14:21:57.901,5.9688,23.3126
14:21:57.920,4.625,17.9376
14:21:57.923,3.5625,13.8126
14:21:57.937,2.25,8.75
14:21:57.944,0.7813,5.125
14:21:57.951,-0.25,-0.25
14:21:57.961,-1.9375,-3.8125
14:21:57.974,-2.8125,-8.6875
14:21:57.982,-4.0313,-13.6251
14:21:57.991,-5.5313,-17.8751
14:21:58.001,-6.8438,-22.3126
14:21:58.011,-7.7813,-26.7501
14:21:58.021,-8.9375,-30.8126
14:21:58.031,-9.625,-34.8126
14:21:58.041,-10.7813,-38.6876
14:21:58.065,-12.1563,-42.2502
14:21:58.067,-13.3438,-46.2502
14:21:58.072,-14.0938,-50.3752
14:21:58.104,-15.0938,-53.3752
14:21:58.106,-16.0001,-57.1252
14:21:58.109,-17.3751,-59.5627
14:21:58.111,-18.1251,-63.5627
14:21:58.142,-18.8751,-66.5003
14:21:58.144,-19.3751,-70.1878
14:21:58.146,-19.5938,-74.1253
14:21:58.153,-21.1251,-76.8128
14:21:58.177,-22.1876,-80.0628
14:21:58.180,-22.0626,-81.8128
14:21:58.185,-22.6251,-86.0003
14:21:58.206,-23.7188,-88.1253
14:21:58.208,-24.0938,-90.6254
14:21:58.211,-24.7813,-92.6879
14:21:58.236,-24.5938,-94.8129
14:21:58.239,-25.0938,-98.0004
14:21:58.241,-25.8126,-100.0629
14:21:58.251,-26.8751,-100.8129
14:21:58.261,-26.8439,-104.1879
14:21:58.271,-27.3439,-105.3754
14:21:58.281,-27.4689,-107.9379
14:21:58.291,-28.4376,-109.1879
14:21:58.301,-28.6251,-112.3754
14:21:58.311,-28.4064,-113.1879
14:21:58.321,-29.3126,-115.6879
14:21:58.331,-29.0314,-116.7504
14:21:58.341,-30.0626,-118.0005
14:21:58.351,-29.9064,-119.063
14:21:58.362,-29.7189,-117.563
14:21:58.371,-27.0001,-109.8129
14:21:58.381,-18.0313,-84.1253
14:21:58.391,-4.4375,-40.1877
14:21:58.401,7.3125,-1.0625
14:21:58.411,15.0938,29.2501
14:21:58.421,21.1251,51.9377
14:21:58.431,25.6251,70.6253
14:21:58.441,29.4376,87.8753
14:21:58.451,31.3439,98.7504
14:21:58.461,33.3439,109.3129
14:21:58.494,34.5001,119.438
14:21:58.496,36.3126,126.3755
14:21:58.498,38.1251,133.438
14:21:58.510,38.6251,139.0005
14:21:58.517,40.5627,144.0005
14:21:58.528,40.6564,149.5631
14:21:58.537,41.0002,151.6881
14:21:58.547,42.0314,155.7506
14:21:58.556,42.0939,157.1256
14:21:58.566,42.0314,159.5631
14:21:58.577,42.5939,159.4381
14:21:58.586,42.0002,159.5631
14:21:58.596,41.1877,156.5006
14:21:58.612,40.1877,153.2506
14:21:58.616,38.7501,149.0006
14:21:58.625,36.4064,143.563
14:21:58.637,34.3439,136.188
14:21:58.646,32.9376,129.563
14:21:58.657,30.4064,124.938
14:21:58.666,29.0314,118.438
14:21:58.676,28.0314,114.0629
14:21:58.686,27.5314,109.9379
14:21:58.696,26.1876,106.6254
14:21:58.707,24.9688,103.5629
14:21:58.716,24.3751,100.7504
14:21:58.726,23.4063,98.4379
14:21:58.736,22.7813,94.6879
14:21:58.755,20.9063,90.7504
14:21:58.759,19.5313,88.1253
14:21:58.785,18.1876,82.4378
14:21:58.787,17.0001,79.6253
14:21:58.790,15.7188,74.0628
14:21:58.798,13.9376,69.5628
14:21:58.833,12.75,64.8127
14:21:58.836,11.4375,59.1252
14:21:58.836,10.25,54.8752
14:21:58.840,8.6563,48.8752
14:21:58.871,7.0938,44.2502
14:21:58.871,6.0625,39.1877
14:21:58.875,4.5313,34.3126
14:21:58.882,3.5938,29.8751
14:21:58.896,2.3438,24.8751
14:21:58.899,0.875,20.8126
14:21:58.927,-0.2188,16.0626
14:21:58.929,-2.3125,12.375
14:21:58.931,-2.75,7.125
14:21:58.938,-4.1875,3.5
14:21:58.946,-5,-2.5625
14:21:58.956,-6,-6.0625
14:21:58.976,-6.9063,-9.25
14:21:58.992,-7.9063,-14.2501
14:21:59.006,-8.8125,-17.6251
14:21:59.007,-9.5313,-21.3126
14:21:59.023,-11.1875,-25.4376
14:21:59.023,-11.625,-29.0001
14:21:59.026,-12.375,-33.3126
14:21:59.036,-13.9688,-36.5001
14:21:59.047,-14.4376,-40.3752
14:21:59.056,-15.4376,-43.3127
14:21:59.082,-15.8751,-47.1252
14:21:59.086,-16.7188,-49.1252
14:21:59.087,-17.2501,-53.2502
14:21:59.097,-18.1876,-56.6877
14:21:59.107,-18.5626,-59.0002
14:21:59.117,-19.5938,-62.6252
14:21:59.126,-19.5001,-65.6877
14:21:59.136,-21.5626,-69.0003
14:21:59.146,-22.1251,-72.3128
14:21:59.156,-23.0313,-74.7503
14:21:59.166,-23.5001,-78.0628
14:21:59.176,-24.0938,-81.5628
14:21:59.186,-24.4376,-84.3753
14:21:59.197,-25.8126,-86.3128
14:21:59.206,-25.7501,-89.6253
14:21:59.222,-26.6564,-92.1879
14:21:59.240,-27.0314,-95.1254
14:21:59.242,-27.2814,-97.5629
14:21:59.250,-28.8439,-100.2504
14:21:59.255,-29.0001,-103.3754
14:21:59.266,-29.2189,-105.3754
14:21:59.276,-30.4376,-106.2504
14:21:59.286,-30.4376,-109.7504
14:21:59.296,-30.3751,-111.6879
14:21:59.306,-31.2501,-114.1879
14:21:59.317,-31.8751,-116.7504
14:21:59.326,-31.9064,-117.8755
14:21:59.336,-32.9689,-121.8755
14:21:59.347,-33.3751,-123.688
14:21:59.362,-33.7814,-124.3755
14:21:59.368,-33.2501,-124.063
14:21:59.376,-29.9064,-117.0004
14:21:59.386,-23.1251,-93.8754
14:21:59.396,-9.8125,-53.5002
14:21:59.407,1.0625,-15.6876
14:21:59.417,8.7813,12.1875
14:21:59.428,14.7813,35.9376
14:21:59.436,19.5001,55.6252
14:21:59.446,23.2188,71.6878
14:21:59.456,25.9376,86.0003
14:21:59.466,27.9689,97.2504
14:21:59.477,30.5939,106.7504
14:21:59.486,31.4064,115.5629
14:21:59.496,32.2814,121.438
14:21:59.528,34.6564,128.2505
14:21:59.531,34.7189,134.438
14:21:59.533,36.1876,137.563
14:21:59.536,37.3751,141.5005
14:21:59.567,37.0001,143.7505
14:21:59.568,38.6876,146.7506
14:21:59.570,38.0001,147.5631
14:21:59.577,37.8126,148.6256
14:21:59.601,37.8126,147.6881
14:21:59.603,37.8439,146.2505
14:21:59.634,35.3751,143.7505
14:21:59.635,34.5626,138.6255
14:21:59.636,32.4689,133.2505
14:21:59.641,30.1251,126.7505
14:21:59.670,29.0001,120.1255
14:21:59.673,26.4063,114.5004
14:21:59.675,24.8751,108.2504
14:21:59.681,23.5626,102.4379
14:21:59.688,22.7501,98.1254
14:21:59.697,21.1563,94.3754
14:21:59.706,20.3751,91.5629
14:21:59.717,19.4063,88.1253
14:21:59.726,18.5001,85.7503
14:21:59.738,18.0938,82.8753
14:21:59.747,16.3126,80.3753
14:21:59.756,15.1251,76.8128
14:21:59.766,14.0313,71.3753
14:21:59.777,13,68.5628
14:21:59.787,12.1875,64.2502
14:21:59.797,10.8125,59.4377
14:21:59.807,8.7813,54.7502
14:21:59.817,8.3438,49.6252
14:21:59.827,6.125,44.6252
14:21:59.836,5.0938,41.0002
14:21:59.847,4,34.8751
14:21:59.856,2.1875,30.7501
14:21:59.867,0.875,25.1251
14:21:59.876,-0.2188,20.5001
14:21:59.888,-1.375,15.6876
14:21:59.897,-2.5,11
14:21:59.907,-3.4375,6.8125
14:21:59.916,-5.0938,1.875
14:21:59.926,-5.5938,-2.0625
14:21:59.938,-6.75,-6.5625
14:21:59.946,-8.3125,-10.375
14:21:59.958,-9.0313,-14.5626
14:21:59.967,-10.2813,-17.9376
14:21:59.977,-10.0313,-21.5001
14:21:59.986,-11.6875,-24.9376
14:21:59.997,-11.5625,-28.8751
14:22:00.006,-13.3438,-31.7501
14:22:00.017,-13.3751,-35.6251
14:22:00.027,-14.5626,-38.1876
14:22:00.036,-15.2501,-42.1252
14:22:00.046,-16.1251,-44.6877
14:22:00.057,-16.8126,-47.8127
14:22:00.066,-17.8438,-51.1877
14:22:00.077,-17.6876,-54.0002
14:22:00.087,-18.4376,-55.5627
14:22:00.096,-19.6876,-60.1252
14:22:00.110,-19.8751,-62.2502
14:22:00.120,-21.2501,-63.8752
14:22:00.126,-21.2813,-68.1253
14:22:00.137,-21.8438,-70.0003
14:22:00.147,-22.7501,-72.0628
14:22:00.158,-23.5001,-75.1253
14:22:00.167,-23.9376,-78.8128
14:22:00.176,-24.4376,-79.5628
14:22:00.187,-25.4063,-82.6253
14:22:00.196,-25.8438,-86.0628
14:22:00.206,-25.7813,-87.3128
14:22:00.217,-26.7189,-89.5003
14:22:00.227,-26.3126,-92.3129
14:22:00.237,-27.6876,-93.6879
14:22:00.248,-27.5626,-96.5004
14:22:00.257,-27.2501,-97.8754
14:22:00.290,-28.6251,-100.4379
14:22:00.292,-28.9689,-103.5004
14:22:00.362,-28.9689,-105.3129
14:22:00.364,-29.4064,-107.8754
14:22:00.366,-29.3126,-109.4379
14:22:00.373,-30.8751,-111.8754
14:22:00.373,-30.9064,-115.5629
14:22:00.373,-30.7501,-116.0629
14:22:00.381,-30.6564,-113.5629
14:22:00.415,-25.7813,-101.4379
14:22:00.421,-15.7501,-71.0003
14:22:00.423,-5.0313,-37.8751
14:22:00.424,3.4375,-8.875
14:22:00.429,8.9375,15.9376
14:22:00.437,15.1876,35.5001
14:22:00.447,19.2813,54.0627
14:22:00.456,21.6251,68.2503
14:22:00.467,24.7813,79.5003
14:22:00.476,25.8751,89.3128
14:22:00.488,28.0939,98.3129
14:22:00.497,28.9064,105.1254
14:22:00.507,30.5939,112.3754
14:22:00.525,31.5314,116.5629
14:22:00.528,32.1564,120.8755
14:22:00.542,35.5939,139.8755
14:22:00.553,36.8439,139.563
14:22:00.559,35.6251,139.813
14:22:00.568,34.9064,136.1255
14:22:00.577,33.5626,134.0005
14:22:00.588,32.1564,127.813
14:22:00.597,29.9376,122.8755
14:22:00.608,28.6251,116.9379
14:22:00.617,26.4376,110.4379
14:22:00.627,24.7501,104.5629
14:22:00.637,22.7188,99.5004
14:22:00.648,21.5626,94.3129
14:22:00.657,20.5313,89.8753
14:22:00.667,19.7188,85.8128
14:22:00.677,18.0001,83.1878
14:22:00.687,17.6251,80.3753
14:22:00.699,16.7188,76.8753
14:22:00.708,15.8751,73.8128
14:22:00.717,15.0626,71.4378
14:22:00.727,13.5626,67.8128
14:22:00.737,12.5,64.2502
14:22:00.748,11.375,59.7502
14:22:00.758,10.0938,57.1877
14:22:00.768,9.1875,51.5002
14:22:00.777,7.875,47.2502
14:22:00.789,7.1875,43.2502
14:22:00.797,5.25,38.1251
14:22:00.808,4.4375,33.9376
14:22:00.818,2.5,29.1251
14:22:00.827,2.3438,25.1876
14:22:00.837,0,20.3751
14:22:00.847,-0.75,16.0001
14:22:00.862,-1.5313,10.875
14:22:00.868,-3.5938,7
14:22:00.878,-3.75,1.875
14:22:00.887,-5.625,-1.0625
14:22:00.898,-6.75,-6.125
14:22:00.909,-7.4688,-10.6875
14:22:00.920,-7.9688,-14.0626
14:22:00.953,-9.2813,-18.3126
14:22:00.955,-10.375,-22.5001
14:22:00.957,-10.3125,-25.9376
14:22:00.960,-12.0313,-28.3751
14:22:00.989,-12.625,-32.9376
14:22:00.990,-13.1563,-36.5626
14:22:00.994,-15.1563,-39.4377
14:22:00.999,-15.0938,-43.2502
14:22:01.032,-15.8438,-44.3127
14:22:01.032,-15.5001,-48.0002
14:22:01.035,-16.2188,-48.2502
14:22:01.042,-15.7501,-51.8127
14:22:01.050,-16.2188,-51.6877
14:22:01.083,-15.9063,-53.3752
14:22:01.085,-17.2501,-54.5002
14:22:01.087,-16.2813,-55.0627
14:22:01.090,-17.1563,-56.2502
14:22:01.098,-18.6563,-57.6252
14:22:01.108,-17.5938,-57.1252
14:22:01.123,-18.3126,-56.6877
14:22:01.133,-18.2813,-56.1877
14:22:01.143,-17.7501,-54.1252
14:22:01.152,-17.9063,-52.7502
14:22:01.162,-16.0626,-50.4377
14:22:01.172,-15.3751,-48.8127
14:22:01.183,-16.3438,-49.7502
14:22:01.192,-16.1563,-51.3127
14:22:01.203,-18.1563,-54.5627
14:22:01.212,-19.0938,-60.1252
14:22:01.222,-20.4688,-65.0002
14:22:01.238,-21.0626,-69.9378
14:22:01.242,-21.7501,-73.3128
14:22:01.252,-21.2188,-77.0628
14:22:01.262,-21.2501,-78.8753
14:22:01.272,-19.7501,-81.8128
14:22:01.282,-18.4688,-84.9378
14:22:01.292,-17.5001,-87.9378
14:22:01.303,-17.1876,-93.9379
14:22:01.312,-19.2501,-99.8129
14:22:01.323,-19.5001,-105.7504
14:22:01.333,-20.0938,-106.6254
14:22:01.343,-18.4376,-103.2504
14:22:01.352,-15.2501,-94.6254
14:22:01.363,-10.3125,-79.1253
14:22:01.372,-2.4688,-51.7502
14:22:01.382,8.4063,-20.0001
14:22:01.392,15.5313,10.375
14:22:01.403,21.8438,35.5626
14:22:01.412,27.4064,54.7502
14:22:01.422,29.9376,71.0628
14:22:01.434,32.7814,82.8128
14:22:01.443,34.8751,94.8129
14:22:01.452,37.2189,105.6254
14:22:01.462,39.2814,115.5004
14:22:01.472,41.4689,124.7505
14:22:01.482,43.4377,134.3755
14:22:01.493,45.1252,142.313
14:22:01.502,46.8752,150.3131
14:22:01.513,47.8127,155.6256
14:22:01.522,49.0627,161.5006
14:22:01.533,49.1564,166.0006
14:22:01.542,50.1564,167.4381
14:22:01.552,49.6252,168.7506
14:22:01.562,50.2189,168.1256
14:22:01.572,49.5314,168.1256
14:22:01.582,50.0002,165.0631
14:22:01.592,48.8127,163.0006
14:22:01.612,48.0939,160.5631
14:22:01.615,48.0002,156.8131
14:22:01.630,47.8127,154.6256
14:22:01.643,46.1564,151.0631
14:22:01.644,44.3752,147.6255
14:22:01.659,41.8752,142.688
14:22:01.667,40.6252,135.1255
14:22:01.672,36.9689,128.688
14:22:01.683,35.1564,119.938
14:22:01.692,31.5626,112.6879
14:22:01.702,28.8751,103.5004
14:22:01.712,25.8438,93.5004
14:22:01.746,23.2501,84.4378
14:22:01.748,19.6876,74.4378
14:22:01.750,16.2188,64.6877
14:22:01.752,13.6563,54.2502
14:22:01.784,10.5313,43.6877
14:22:01.786,7.4688,34.2501
14:22:01.789,4.8438,24.6251
14:22:01.792,2.7188,15.1251
14:22:01.854,0.2813,7.0625
14:22:01.857,-0.8125,-2.5
14:22:01.883,-3.125,-10.4375
14:22:01.904,-5.3125,-20.0626
14:22:01.904,-7.8438,-27.5001
14:22:01.904,-9.5625,-36.0626
14:22:01.906,-11.0313,-43.0627
14:22:01.907,-12.375,-50.6252
14:22:01.914,-14.6251,-58.1252
14:22:01.923,-16.1876,-64.6877
14:22:01.933,-17.8751,-70.8128
14:22:01.943,-19.7188,-76.8753
14:22:01.952,-21.1251,-81.9378
14:22:01.962,-21.5313,-87.4378
14:22:01.972,-22.3438,-90.9379
14:22:01.989,-23.2501,-95.1879
14:22:01.993,-24.1563,-97.8754
14:22:02.003,-25.4688,-101.0004
14:22:02.012,-25.5313,-106.5629
14:22:02.024,-27.0939,-109.8129
14:22:02.032,-27.1564,-113.5629
14:22:02.042,-28.0001,-117.3129
14:22:02.052,-33.0001,-134.3755
14:22:02.063,-32.2501,-134.813
14:22:02.072,-34.5314,-136.0005
14:22:02.082,-34.4064,-139.6255
14:22:02.093,-35.0001,-140.688
14:22:02.102,-35.5001,-143.188
14:22:02.112,-35.1876,-144.938
14:22:02.123,-35.9064,-145.6255
14:22:02.132,-36.2501,-147.8131
14:22:02.142,-34.6876,-148.3131
14:22:02.153,-35.1251,-149.3131
14:22:02.163,-35.0939,-150.5631
14:22:02.172,-36.2189,-153.0006
14:22:02.183,-36.0626,-155.5006
14:22:02.192,-37.1876,-157.5006
14:22:02.202,-37.9376,-161.0006
14:22:02.213,-38.0001,-162.6881
14:22:02.224,-38.9064,-163.3131
14:22:02.232,-38.5314,-165.2506
14:22:02.243,-37.8751,-165.4381
14:22:02.253,-37.7814,-165.5006
14:22:02.262,-37.2189,-165.9381
14:22:02.272,-36.7501,-165.5006
14:22:02.282,-37.6876,-167.4381
14:22:02.293,-37.5001,-166.8131
14:22:02.302,-37.8126,-165.9381
14:22:02.312,-36.9689,-166.0631
14:22:02.323,-36.4689,-163.5006
14:22:02.332,-35.8439,-160.5006
14:22:02.342,-34.1564,-153.8131
14:22:02.353,-31.6876,-145.2505
14:22:02.362,-26.0938,-128.563
14:22:02.373,-13.8438,-91.3754
14:22:02.385,2.125,-39.5002
14:22:02.393,13.8438,3.375
14:22:02.402,21.6563,33.4376
14:22:02.413,29.4376,61.3127
14:22:02.437,33.9376,83.3753
14:22:02.440,36.9689,98.4379
14:22:02.442,40.3127,113.1254
14:22:02.470,42.9377,125.3755
14:22:02.471,45.2502,135.8755
14:22:02.473,47.1564,147.063
14:22:02.510,48.7189,155.8756
14:22:02.512,50.7814,163.6256
14:22:02.516,52.7502,172.7507
14:22:02.517,53.969,179.9382
14:22:02.522,56.469,185.8757
14:22:02.537,57.219,191.2507
14:22:02.542,57.8752,194.5007
14:22:02.573,58.344,196.6257
14:22:02.574,59.0627,198.3758
14:22:02.576,57.6565,197.8133
14:22:02.583,56.5002,195.6882
14:22:02.593,55.0315,193.5007
14:22:02.602,54.969,188.8132
14:22:02.612,53.344,185.1882
14:22:02.622,51.9064,180.8757
14:22:02.632,48.6564,174.4382
14:22:02.643,47.0627,168.3756
14:22:02.653,43.9689,160.5631
14:22:02.663,41.0002,152.2506
14:22:02.672,37.3126,142.8755
14:22:02.682,34.2189,131.438
14:22:02.692,31.4064,121.813
14:22:02.702,28.5939,111.6254
14:22:02.712,25.5626,102.0004
14:22:02.722,22.1876,92.4379
14:22:02.736,19.9688,81.7503
14:22:02.745,16.9063,73.7503
14:22:02.752,15.0626,62.8127
14:22:02.762,12.0625,54.5627
14:22:02.773,9.875,45.3752
14:22:02.782,7,36.4376
14:22:02.792,4.3438,27.9376
14:22:02.802,2.5938,18.7501
14:22:02.812,0.5938,11.1875
14:22:02.823,-1.1563,3.375
14:22:02.832,-3.7188,-3.875
14:22:02.842,-5.4688,-11.3125
14:22:02.852,-6.9375,-17.8126
14:22:02.862,-8.5625,-25.8751
14:22:02.873,-10.1563,-31.3751
14:22:02.882,-11.9063,-38.7501
14:22:02.892,-14.4063,-44.9377
14:22:02.920,-16.1876,-51.8752
14:22:02.923,-17.8438,-57.4377
14:22:02.925,-18.5938,-61.9377
14:22:02.944,-20.4376,-65.9378
14:22:02.944,-21.3126,-68.0003
14:22:02.965,-21.9063,-72.1253
14:22:02.969,-22.2813,-75.4378
14:22:02.973,-23.2813,-79.7503
14:22:02.983,-24.3126,-84.3128
14:22:02.992,-26.2501,-87.8753
14:22:03.002,-26.5939,-92.6879
14:22:03.013,-26.8439,-95.3129
14:22:03.024,-28.4689,-98.0629
14:22:03.032,-29.5314,-103.7504
14:22:03.043,-30.4376,-107.7504
14:22:03.052,-32.3439,-112.8129
14:22:03.063,-32.1564,-116.8129
14:22:03.072,-33.0314,-119.1255
14:22:03.082,-33.2814,-123.563
14:22:03.114,-33.3751,-125.063
14:22:03.117,-33.7189,-128.688
14:22:03.118,-34.1564,-131.313
14:22:03.124,-35.7189,-135.5005
14:22:03.150,-36.6251,-139.5005
14:22:03.153,-38.6564,-142.2505
14:22:03.155,-39.1564,-146.688
14:22:03.192,-38.5001,-148.5631
14:22:03.222,-38.7501,-149.1256
14:22:03.222,-38.2189,-151.4381
14:22:03.222,-38.3751,-151.1256
14:22:03.223,-38.2814,-153.1256
14:22:03.225,-37.8751,-153.6881
14:22:03.250,-38.6876,-152.8756
14:22:03.252,-38.6564,-153.6256
14:22:03.253,-37.4064,-150.2506
14:22:03.256,-36.7501,-146.6255
14:22:03.265,-32.7189,-136.813
14:22:03.274,-25.5313,-112.0629
14:22:03.288,-11.375,-68.3128
14:22:03.292,3.2188,-21.2501
14:22:03.302,12.0313,11.125
14:22:03.312,19.9688,39.4377
14:22:03.323,24.9063,64.0002
14:22:03.333,29.6251,80.7503
14:22:03.342,32.7814,94.5004
14:22:03.352,34.4376,106.1254
14:22:03.362,37.8751,117.313
14:22:03.372,39.0314,126.313
14:22:03.386,41.1252,136.0005
14:22:03.392,43.3127,144.7505
14:22:03.402,46.1877,153.5631
14:22:03.413,47.4689,161.0006
14:22:03.422,48.6877,166.6881
14:22:03.432,49.3752,172.0007
14:22:03.443,49.3752,173.5007
14:22:03.452,49.9689,176.3132
14:22:03.463,49.7189,177.0007
14:22:03.472,50.0939,176.6257
14:22:03.482,48.9064,174.1882
14:22:03.494,48.2814,172.9382
14:22:03.502,46.4689,168.3131
14:22:03.516,45.7814,165.0006
14:22:03.523,43.2189,159.3131
14:22:03.532,42.1252,154.5631
14:22:03.542,39.5314,148.4381
14:22:03.553,37.5314,142.0005
14:22:03.563,35.1876,134.313
14:22:03.572,33.0314,127.3755
14:22:03.583,30.4064,118.813
14:22:03.593,27.2189,110.7504
14:22:03.602,24.3751,101.1254
14:22:03.612,21.6876,91.5004
14:22:03.624,18.8126,82.5003
14:22:03.632,15.7501,72.4378
14:22:03.643,12.75,63.2502
14:22:03.652,10.6875,54.1252
14:22:03.668,9.3125,46.3127
14:22:03.673,6.125,37.3126
14:22:03.682,4.1563,28.5626
14:22:03.692,0.625,19.8126
14:22:03.702,-0.3125,11.3125
14:22:03.712,-2.4688,4.5625
14:22:03.723,-4.9375,-3.75
14:22:03.734,-6.5313,-11.625
14:22:03.743,-9.3125,-18.0001
14:22:03.753,-9.9063,-25.7501
14:22:03.762,-11.9375,-31.8126
14:22:03.773,-13.7188,-38.6876
14:22:03.785,-15.9376,-43.8752
14:22:03.792,-16.3751,-48.4377
14:22:03.804,-18.1251,-53.1877
14:22:03.813,-18.3751,-56.8752
14:22:03.823,-20.1563,-60.2502
14:22:03.832,-21.5626,-64.6877
14:22:03.843,-23.1563,-69.8753
14:22:03.852,-25.0626,-73.7503
14:22:03.862,-25.8126,-78.8128
14:22:03.872,-26.5314,-82.0003
14:22:03.894,-27.8439,-84.1253
14:22:03.897,-28.7814,-88.1878
14:22:03.924,-29.1876,-92.3129
14:22:03.927,-30.5939,-96.7504
14:22:03.929,-32.2501,-101.8754
14:22:03.935,-33.8751,-107.3754
14:22:03.971,-35.7189,-113.5004
14:22:03.976,-36.4689,-119.938
14:22:03.979,-37.6251,-124.1255
14:22:03.981,-38.6564,-129.563
14:22:04.013,-39.5627,-134.938
14:22:04.013,-40.0627,-138.0005
14:22:04.016,-40.9064,-141.5005
14:22:04.022,-40.9377,-146.813
14:22:04.026,-40.5939,-149.2506
14:22:04.032,-41.9689,-152.1256
14:22:04.064,-42.3439,-156.0006
14:22:04.066,-42.1877,-157.5631
14:22:04.068,-42.7189,-160.1881
14:22:04.074,-42.9064,-163.0631
14:22:04.084,-44.2189,-164.1256
14:22:04.093,-44.2502,-167.9381
14:22:04.103,-44.1252,-169.0631
14:22:04.113,-44.1252,-169.9381
14:22:04.124,-44.7502,-172.9382
14:22:04.133,-43.8439,-172.9382
14:22:04.149,-43.3752,-173.3132
14:22:04.152,-42.6252,-173.3132
14:22:04.166,-42.5627,-171.8757
14:22:04.175,-42.3127,-172.6882
14:22:04.200,-42.2502,-171.4382
14:22:04.202,-42.0002,-171.1882
14:22:04.205,-40.0939,-167.9381
14:22:04.216,-39.2814,-162.3131
14:22:04.223,-37.1251,-156.8756
14:22:04.245,-34.5314,-146.8756
14:22:04.247,-29.0626,-125.813
14:22:04.263,-17.2501,-89.5628
14:22:04.265,-0.0312,-36.3126
14:22:04.274,10.875,7.0625
14:22:04.283,19.2501,36.1876
14:22:04.293,25.6876,62.7502
14:22:04.302,31.1251,82.8128
14:22:04.335,35.0001,100.0004
14:22:04.338,36.8439,114.1254
14:22:04.340,40.6252,125.938
14:22:04.346,42.4064,139.2505
14:22:04.353,45.5314,149.5006
14:22:04.364,47.7814,161.4381
14:22:04.374,50.1564,169.0006
14:22:04.384,53.0627,178.2507
14:22:04.393,53.719,186.2507
14:22:04.403,56.0627,192.5007
14:22:04.414,57.4065,198.6258
14:22:04.424,58.7815,202.3133
14:22:04.440,58.3127,203.4383
14:22:04.443,58.6877,204.5633
14:22:04.464,57.7815,203.0008
14:22:04.466,57.5002,201.8133
14:22:04.481,56.4377,199.5633
14:22:04.485,54.2815,196.0632
14:22:04.493,53.0002,192.3757
14:22:04.502,51.1877,186.8757
14:22:04.514,50.8752,183.6257
14:22:04.522,48.6252,179.5007
14:22:04.533,47.8439,175.3132
14:22:04.544,45.0939,170.7506
14:22:04.553,44.5627,165.8756
14:22:04.564,42.5627,161.7506
14:22:04.574,41.2814,156.1256
14:22:04.598,38.8751,151.4381
14:22:04.601,37.3439,145.188
14:22:04.603,35.3126,139.188
14:22:04.632,32.8439,131.938
14:22:04.635,30.7501,124.2505
14:22:04.637,27.4376,115.6879
14:22:04.644,25.4063,107.5004
14:22:04.676,22.7813,98.3129
14:22:04.679,20.8126,89.1878
14:22:04.681,17.7813,80.3753
14:22:04.708,14.9688,70.8753
14:22:04.709,12.6875,61.7502
14:22:04.711,9.875,53.1252
14:22:04.716,7.8438,43.5627
14:22:04.741,4.4063,34.2501
14:22:04.744,2.1875,25.0626
14:22:04.746,-0.125,16.8751
14:22:04.753,-2.5625,9.9375
14:22:04.765,-3.25,3.25
14:22:04.774,-5.5,-3.5625
14:22:04.785,-8,-10
14:22:04.793,-9.9375,-18.1876
14:22:04.804,-12.0313,-24.6876
14:22:04.813,-13.6251,-31.8126
14:22:04.824,-16.0313,-38.3126
14:22:04.834,-17.7501,-44.8127
14:22:04.843,-19.4063,-51.0627
14:22:04.854,-20.3126,-55.8127
14:22:04.865,-19.8126,-59.6877
14:22:04.874,-21.3126,-63.9377
14:22:04.885,-23.5938,-69.2503
14:22:04.895,-25.5626,-76.3753
14:22:04.903,-26.7814,-83.0003
14:22:04.913,-28.7501,-88.6878
14:22:04.924,-30.6564,-94.1254
14:22:04.933,-31.8126,-102.3129
14:22:04.943,-33.3751,-106.8754
14:22:04.953,-33.9689,-113.3754
14:22:04.964,-35.3751,-117.938
14:22:04.974,-36.6876,-123.813
14:22:04.984,-37.4689,-129.3755
14:22:04.993,-39.7189,-134.313
14:22:05.003,-40.6877,-141.1255
14:22:05.014,-41.6877,-145.1255
14:22:05.023,-43.4377,-152.3756
14:22:05.034,-44.0627,-156.3131
14:22:05.043,-45.3127,-158.3131
14:22:05.054,-45.1877,-162.4381
14:22:05.065,-45.0939,-165.3131
14:22:05.073,-45.8752,-167.4381
14:22:05.084,-46.2814,-171.0632
14:22:05.097,-46.4377,-171.8132
14:22:05.104,-46.2189,-172.4382
14:22:05.113,-44.7814,-173.0007
14:22:05.123,-45.2502,-172.1882
14:22:05.134,-44.3439,-173.9382
14:22:05.143,-45.5627,-172.0007
14:22:05.158,-44.0939,-172.8132
14:22:05.170,-42.5939,-171.1257
14:22:05.179,-43.1252,-169.1881
14:22:05.190,-42.1252,-168.0006
14:22:05.199,-42.1564,-164.8756
14:22:05.208,-41.0314,-163.3756
14:22:05.219,-39.2814,-157.5631
14:22:05.229,-37.7814,-151.6881
14:22:05.238,-35.5001,-142.938
14:22:05.248,-33.2189,-134.3755
14:22:05.258,-28.9376,-121.8755
14:22:05.291,-23.5626,-102.9379
14:22:05.294,-13.6563,-72.8753
14:22:05.296,-1.0313,-31.9376
14:22:05.299,8.2188,2.625
14:22:05.334,15.3126,27.4376
14:22:05.335,23.4063,59.8127
14:22:05.337,28.1251,77.5003
14:22:05.340,30.9376,90.9379
14:22:05.374,32.7189,102.6879
14:22:05.378,35.3751,112.6879
14:22:05.380,38.3439,121.8755
14:22:05.386,38.7189,130.938
14:22:05.389,40.7502,137.5005
14:22:05.421,42.2814,146.563
14:22:05.422,44.2814,152.1256
14:22:05.425,46.3127,158.6256
14:22:05.431,46.7814,163.1881
14:22:05.451,47.4377,166.6256
14:22:05.453,47.3127,169.5006
14:22:05.482,47.6252,169.8756
14:22:05.484,47.1564,169.8756
14:22:05.486,46.8127,169.5631
14:22:05.489,46.5314,166.7506
14:22:05.499,45.2502,163.8756
14:22:05.509,43.9689,160.9381
14:22:05.519,43.5627,157.1256
14:22:05.528,42.0939,152.4381
14:22:05.544,39.6252,147.3755
14:22:05.567,37.9689,138.938
14:22:05.570,34.9376,130.188
14:22:05.574,32.3439,121.6255
14:22:05.580,29.0314,110.5629
14:22:05.589,26.5001,99.5629
14:22:05.599,23.4063,90.5629
14:22:05.608,21.2188,80.2503
14:22:05.619,18.7188,71.3753
14:22:05.631,16.9688,63.1252
14:22:05.638,14.1876,54.1877
14:22:05.648,11.9063,46.5627
14:22:05.659,9.875,38.7501
14:22:05.669,7.3438,29.4376
14:22:05.679,4.7188,21.4376
14:22:05.688,2.5625,13.6251
14:22:05.699,-0.0313,6.5
14:22:05.710,-1.9063,-0.6875
14:22:05.718,-3.3438,-6.8125
14:22:05.728,-4.6875,-12.375
14:22:05.739,-6.4375,-16.9376
14:22:05.760,-7.4063,-21.4376
14:22:05.762,-8.5938,-26.9376
14:22:05.777,-10.3438,-31.4376
14:22:05.781,-12.1875,-36.3751
14:22:05.790,-13.5938,-42.6877
14:22:05.798,-14.5626,-47.1877
14:22:05.809,-16.0313,-50.5002
14:22:05.819,-16.6563,-53.6877
14:22:05.828,-18.5626,-57.2502
14:22:05.839,-19.6251,-61.6252
14:22:05.849,-20.5626,-66.0003
14:22:05.859,-21.5626,-69.3128
14:22:05.868,-22.6251,-73.8128
14:22:05.880,-23.5938,-79.0003
14:22:05.889,-26.0938,-83.7503
14:22:05.899,-27.3126,-92.0629
14:22:05.908,-28.6564,-97.6254
14:22:05.919,-30.6876,-105.2504
14:22:05.928,-31.9064,-111.3129
14:22:05.944,-34.6251,-118.063
14:22:05.950,-35.6876,-125.188
14:22:05.959,-36.5939,-129.7505
14:22:05.969,-38.1251,-134.8755
14:22:05.978,-38.7814,-140.1255
14:22:05.988,-39.7814,-142.8755
14:22:05.999,-39.4064,-146.1255
14:22:06.008,-39.9377,-146.188
14:22:06.018,-39.4064,-150.0006
14:22:06.030,-40.0627,-150.5631
14:22:06.038,-41.0002,-153.0631
14:22:06.048,-40.7189,-155.1256
14:22:06.059,-41.3127,-155.7506
14:22:06.068,-41.3127,-158.8131
14:22:06.099,-41.5939,-158.7506
14:22:06.101,-41.6252,-160.5006
14:22:06.103,-40.5939,-159.5631
14:22:06.110,-40.0939,-158.6881
14:22:06.137,-39.4689,-159.1881
14:22:06.139,-40.0314,-155.6256
14:22:06.141,-39.3751,-155.6881
14:22:06.172,-37.5314,-151.1881
14:22:06.173,-36.2189,-144.313
14:22:06.176,-33.0314,-136.1255
14:22:06.182,-29.4689,-123.938
14:22:06.189,-24.2813,-106.3129
14:22:06.220,-12.9688,-71.1253
14:22:06.222,0.3438,-25.2501
14:22:06.223,11.8125,10
14:22:06.229,19.4376,36.7501
14:22:06.260,24.0313,57.4377
14:22:06.263,29.1251,75.3753
14:22:06.265,32.1564,90.4378
14:22:06.271,34.4376,99.8754
14:22:06.280,36.9064,110.0004
14:22:06.289,38.0001,117.938
14:22:06.299,39.9689,125.3755
14:22:06.309,41.4689,133.2505
14:22:06.320,43.7814,140.7505
14:22:06.329,45.4689,147.2505
14:22:06.339,46.0939,152.7506
14:22:06.348,46.7189,155.8131
14:22:06.359,47.0314,158.8756
14:22:06.369,47.0627,158.3756
14:22:06.379,46.2189,158.2506
14:22:06.388,45.6564,157.8131
14:22:06.399,46.1252,156.3756
14:22:06.408,45.2814,155.6256
14:22:06.419,45.2814,153.4381
14:22:06.429,44.2814,150.3131
14:22:06.438,42.7189,147.8131
14:22:06.448,41.5939,143.8755
14:22:06.458,40.3752,141.438
14:22:06.468,39.1252,136.313
14:22:06.478,37.4689,131.5005
14:22:06.489,35.5939,125.6255
14:22:06.499,33.2189,120.563
14:22:06.508,31.2501,113.9379
14:22:06.519,29.3439,106.8129
14:22:06.529,27.5314,99.0629
14:22:06.539,24.8126,92.6254
14:22:06.549,22.9063,85.7503
14:22:06.558,20.5001,77.5628
14:22:06.568,17.9688,70.9378
14:22:06.578,16.5313,63.8752
14:22:06.589,13.7188,56.8752
14:22:06.600,12.3438,50.5002
14:22:06.608,11,45.1252
14:22:06.619,9.9688,40.1252
14:22:06.628,5.1563,28.1251
14:22:06.639,1.5938,20.3126
14:22:06.648,-3.3125,8.625
14:22:06.658,-7.9063,-2
14:22:06.669,-10.9063,-12.1875
14:22:06.679,-14.7501,-20.3126
14:22:06.688,-15.7813,-26.3126
14:22:06.702,-14.7501,-29.9376
14:22:06.708,-14.2188,-33.2501
14:22:06.718,-16.1251,-42.7502
14:22:06.728,-22.3126,-55.4377
14:22:06.761,-27.3751,-70.5628
14:22:06.762,-32.4064,-83.6878
14:22:06.766,-34.1876,-95.3129
14:22:06.769,-36.1564,-103.3129
14:22:06.778,-37.6564,-111.5629
14:22:06.788,-40.7189,-119.3755
14:22:06.814,-42.5939,-127.0005
14:22:06.819,-43.5627,-133.7505
14:22:06.819,-46.6877,-139.938
14:22:06.838,-47.0314,-144.313
14:22:06.841,-47.4689,-147.5006
14:22:06.871,-48.9064,-151.8131
14:22:06.875,-49.5002,-155.0006
14:22:06.879,-49.2189,-157.1881
14:22:06.880,-50.3127,-159.3131
14:22:06.909,-51.0002,-162.6256
14:22:06.911,-52.2189,-165.6881
14:22:06.915,-52.844,-167.3756
14:22:06.919,-52.6252,-169.3756
14:22:06.951,-53.2502,-168.6881
14:22:06.954,-52.719,-169.6881
14:22:06.956,-52.1877,-169.0631
14:22:06.959,-52.3752,-168.0631
14:22:06.979,-51.4064,-166.9381
14:22:06.981,-52.0939,-164.8756
14:22:06.989,-50.5314,-164.7506
14:22:06.998,-51.0314,-163.7506
14:22:07.008,-50.1564,-162.5631
14:22:07.019,-50.0939,-161.8131
14:22:07.028,-48.6877,-161.0631
14:22:07.038,-48.6877,-161.0006
14:22:07.056,-48.5314,-160.6881
14:22:07.058,-48.0002,-158.7506
14:22:07.078,-46.7502,-157.2506
14:22:07.081,-43.4064,-145.5005
14:22:07.088,-36.2814,-120.188
14:22:07.098,-20.4688,-74.1253
14:22:07.109,-3.875,-17.3126
14:22:07.120,6.5625,18.7501
14:22:07.128,13.4688,44.1252
14:22:07.139,18.1876,64.0002
14:22:07.150,21.7813,80.6253
14:22:07.161,24.4688,94.3754
14:22:07.168,25.7501,105.6879
14:22:07.179,28.2189,114.8129
14:22:07.189,30.5314,123.813
14:22:07.199,30.9064,131.938
14:22:07.208,32.8439,138.813
14:22:07.219,34.4376,146.438
14:22:07.228,36.0939,151.8756
14:22:07.239,37.3751,157.4381
14:22:07.248,38.3126,161.3131
14:22:07.258,39.3439,165.7506
14:22:07.268,38.2814,168.2506
14:22:07.279,38.1564,167.3131
14:22:07.288,38.0001,167.6881
14:22:07.298,37.3439,166.1256
14:22:07.309,36.2501,162.5006
14:22:07.319,35.3126,158.8756
14:22:07.329,34.1564,152.6256
14:22:07.338,32.5001,147.3131
14:22:07.348,30.5001,141.3755
14:22:07.359,29.9689,136.1255
14:22:07.368,27.9064,130.438
14:22:07.380,26.7814,126.188
14:22:07.390,25.9063,121.938
14:22:07.399,24.7188,117.438
14:22:07.408,23.5313,114.0629
14:22:07.419,23.1251,110.1879
14:22:07.429,22.2188,107.0004
14:22:07.438,21.3126,103.6879
14:22:07.454,20.1251,100.0629
14:22:07.459,18.9376,95.6254
14:22:07.468,16.9063,90.3753
14:22:07.490,15.3438,86.4378
14:22:07.493,13.5938,79.6878
14:22:07.499,12.0313,75.1253
14:22:07.528,10.4688,69.3128
14:22:07.531,9,63.6252
14:22:07.532,7.8125,58.1252
14:22:07.540,6.2188,53.2502
14:22:07.573,4.1563,45.7502
14:22:07.575,3.0625,41.4377
14:22:07.577,1.625,35.0001
14:22:07.607,0.3438,31.1251
14:22:07.608,-1.25,24.1251
14:22:07.610,-2.4688,20.0001
14:22:07.615,-3.8125,15.4376
14:22:07.643,-4.5938,10.625
14:22:07.645,-6.0625,5.1875
14:22:07.647,-6.6563,0.5625
14:22:07.650,-8.3438,-4.375
14:22:07.660,-8.8438,-8.25
14:22:07.669,-10.625,-13.3126
14:22:07.678,-11.5313,-18.0626
14:22:07.689,-12.5625,-22.8751
14:22:07.699,-14.3126,-26.9376
14:22:07.709,-14.9376,-32.3126
14:22:07.720,-16.1876,-36.3126
14:22:07.729,-16.9063,-40.3752
14:22:07.739,-18.0938,-44.3752
14:22:07.750,-19.1563,-48.1877
14:22:07.760,-20.4688,-52.5002
14:22:07.768,-21.5313,-56.8127
14:22:07.778,-22.1876,-60.6877
14:22:07.789,-22.3751,-64.3752
14:22:07.801,-24.7813,-68.4378
14:22:07.809,-25.1251,-72.6878
14:22:07.820,-26.4376,-77.5003
14:22:07.829,-28.3439,-81.1253
14:22:07.838,-28.9064,-86.5003
14:22:07.848,-29.8439,-89.6253
14:22:07.860,-31.5314,-94.3129
14:22:07.869,-32.2814,-98.2504
14:22:07.879,-33.0626,-100.9379
14:22:07.889,-33.5939,-105.2504
14:22:07.899,-34.4064,-107.8754
14:22:07.909,-33.6251,-110.3129
14:22:07.920,-35.2814,-113.4379
14:22:07.929,-35.5001,-116.2504
14:22:07.938,-35.6876,-117.813
14:22:07.948,-36.8751,-122.438
14:22:07.959,-36.8126,-124.0005
14:22:07.969,-37.4376,-126.3755
14:22:07.979,-38.0626,-129.0005
14:22:07.989,-38.4064,-131.813
14:22:07.999,-38.2189,-132.6255
14:22:08.009,-38.8126,-134.7505
14:22:08.040,-38.5314,-135.7505
14:22:08.042,-39.2189,-135.1255
14:22:08.045,-38.8751,-138.0005
14:22:08.050,-39.0626,-135.938
14:22:08.059,-36.2814,-131.063
14:22:08.070,-30.0001,-112.6254
14:22:08.080,-17.1251,-74.6878
14:22:08.088,-3.7813,-31.8751
14:22:08.100,5.5938,0.5625
14:22:08.108,11.7813,22.8751
14:22:08.121,17.3751,43.3752
14:22:08.137,21.2813,59.3752
14:22:08.152,24.4376,74.3128
14:22:08.155,27.1564,84.1253
14:22:08.159,28.9689,95.3754
14:22:08.170,30.7189,102.5629
14:22:08.179,32.5314,111.2504
14:22:08.188,34.4689,116.8754
14:22:08.205,35.8439,123.8755
14:22:08.210,36.4064,128.0005
14:22:08.222,37.6564,132.563
14:22:08.229,38.2814,137.2505
14:22:08.260,39.1251,139.063
14:22:08.263,39.5627,141.0005
14:22:08.264,39.4689,141.6255
14:22:08.271,39.1251,141.188
14:22:08.279,38.2814,139.1255
14:22:08.290,37.8126,135.563
14:22:08.319,36.0939,130.2505
14:22:08.321,34.1876,125.313
14:22:08.323,32.4689,119.188
14:22:08.330,30.8751,113.0629
14:22:08.370,29.2501,108.1879
14:22:08.373,27.5626,102.0004
14:22:08.374,27.1251,97.5004
14:22:08.376,25.7813,93.5629
14:22:08.384,25.1563,90.1878
14:22:08.390,24.3126,86.7503
14:22:08.422,22.5313,83.8128
14:22:08.428,22.0626,80.9378
14:22:08.429,21.0626,77.0003
14:22:08.433,19.8126,75.1253
14:22:08.439,19.3751,70.4378
14:22:08.449,17.0001,66.6878
14:22:08.459,15.8126,61.3752
14:22:08.468,14.2188,55.8752
14:22:08.480,12.9375,51.6877
14:22:08.489,11.1875,45.5627
14:22:08.500,9.3438,40.1252
14:22:08.508,8.3438,35.6251
14:22:08.519,6.4688,30.5626
14:22:08.530,4.8125,25.0001
14:22:08.540,3.7813,18.5001
14:22:08.550,1.5938,13.1876
14:22:08.558,-0.0625,7.6875
14:22:08.569,-1.5,1.5
14:22:08.583,-2.6875,-3.125
14:22:08.589,-3.8438,-8.75
14:22:08.600,-5.8125,-14.1251
14:22:08.610,-7.125,-19.5001
14:22:08.619,-8.75,-23.8126
14:22:08.629,-10.4063,-28.7501
14:22:08.639,-12.125,-33.6876
14:22:08.650,-13.3126,-38.5001
14:22:08.661,-13.8751,-42.3127
14:22:08.670,-15.1251,-46.2502
14:22:08.680,-15.4063,-50.5627
14:22:08.689,-17.1876,-53.6877
14:22:08.700,-17.9688,-58.3127
14:22:08.708,-18.6251,-62.3752
14:22:08.720,-19.8751,-64.8752
14:22:08.731,-20.6563,-70.0628
14:22:08.739,-21.7188,-72.6878
14:22:08.749,-22.8126,-76.3128
14:22:08.759,-23.4688,-80.6878
14:22:08.770,-24.8751,-83.3128
14:22:08.780,-25.5938,-87.5003
14:22:08.788,-26.4689,-91.1254
14:22:08.801,-27.8751,-94.1254
14:22:08.809,-28.6251,-98.4379
14:22:08.818,-29.0314,-101.5004
14:22:08.830,-30.7814,-103.4379
14:22:08.840,-31.1564,-109.1254
14:22:08.851,-32.3439,-110.4379
14:22:08.859,-32.6251,-114.0004
14:22:08.870,-32.8126,-115.4379
14:22:08.880,-33.9064,-118.188
14:22:08.890,-34.1251,-121.1255
14:22:08.900,-34.6251,-122.188
14:22:08.911,-35.1876,-126.063
14:22:08.919,-35.0001,-127.438
14:22:08.930,-36.0001,-129.1255
14:22:08.954,-35.8751,-131.7505
14:22:08.956,-35.7501,-130.938
14:22:08.960,-33.5314,-124.313
14:22:08.990,-26.5001,-105.2504
14:22:08.992,-13.9688,-67.7503
14:22:08.995,-1.9688,-30.9376
14:22:09.000,5.8125,-2.25
14:22:09.033,12.25,18.2501
14:22:09.035,16.5938,36.9376
14:22:09.037,20.3126,52.2502
14:22:09.044,22.9688,65.0627
14:22:09.051,25.1563,76.5628
14:22:09.081,28.0314,84.1253
14:22:09.083,28.9064,92.3754
14:22:09.086,30.7814,98.3129
14:22:09.092,33.0939,104.1254
14:22:09.118,32.5314,108.5004
14:22:09.121,33.3126,111.3754
14:22:09.123,33.2501,114.4379
14:22:09.130,34.5626,116.0629
14:22:09.141,34.7814,118.8755
14:22:09.149,34.6564,118.813
14:22:09.165,34.9376,119.6255
14:22:09.176,34.3126,118.3755
14:22:09.185,32.7814,113.7504
14:22:09.195,31.0626,108.0004
14:22:09.205,29.5314,102.6254
14:22:09.215,27.9064,96.7504
14:22:09.228,26.6876,91.3754
14:22:09.236,25.5938,85.6878
14:22:09.245,23.1876,80.9378
14:22:09.255,22.3751,75.8128
14:22:09.265,20.6563,72.3753
14:22:09.275,19.8751,67.9378
14:22:09.285,19.1876,64.3752
14:22:09.295,17.9688,61.4377
14:22:09.320,17.4376,59.3752
14:22:09.324,16.8126,56.3752
14:22:09.326,15.6251,52.9377
14:22:09.335,14.4376,49.5002
14:22:09.345,13.125,44.0627
14:22:09.355,12.0625,39.3752
14:22:09.365,10.4063,34.1251
14:22:09.375,9.0313,29.1251
14:22:09.385,7.0313,24.3751
14:22:09.395,5.25,18.5626
14:22:09.405,3.8125,13.9376
14:22:09.417,3.0313,8.25
14:22:09.433,1.7813,3.9375
14:22:09.448,0.6563,-0.375
14:22:09.452,-0.5625,-4.875
14:22:09.465,-2.1563,-9.8125
14:22:09.482,-3.7188,-13.9376
14:22:09.485,-4.8438,-19.6876
14:22:09.486,-6.9688,-24.9376
14:22:09.495,-7.9375,-30.6251
14:22:09.505,-9.6563,-35.9376
14:22:09.515,-10.8125,-40.0002
14:22:09.525,-12.6875,-45.1252
14:22:09.535,-14.1876,-49.5627
14:22:09.545,-15.5938,-55.1877
14:22:09.556,-16.7813,-60.1877
14:22:09.566,-18.0313,-63.8127
14:22:09.576,-18.8126,-67.5628
14:22:09.585,-20.9688,-73.1878
14:22:09.595,-21.9376,-78.8753
14:22:09.605,-23.1563,-82.1253
14:22:09.615,-24.3751,-87.9378
14:22:09.625,-25.0313,-90.9379
14:22:09.635,-26.9376,-95.7504
14:22:09.650,-26.9376,-98.1254
14:22:09.667,-28.0001,-101.1254
14:22:09.668,-28.5626,-104.8129
14:22:09.684,-29.5939,-107.7504
14:22:09.700,-30.0314,-112.1879
14:22:09.702,-31.6564,-115.1254
14:22:09.704,-32.5626,-120.0005
14:22:09.714,-32.8439,-123.0005
14:22:09.728,-34.2501,-126.1255
14:22:09.734,-34.4064,-129.2505
14:22:09.745,-35.2501,-132.1255
14:22:09.771,-36.3439,-134.813
14:22:09.778,-36.5626,-136.188
14:22:09.781,-37.6251,-139.6255
14:22:09.811,-37.7501,-141.313
14:22:09.814,-38.9689,-142.5005
14:22:09.816,-38.6564,-146.3756
14:22:09.818,-39.5939,-147.1256
14:22:09.825,-38.3751,-148.5006
14:22:09.857,-39.3752,-150.3756
14:22:09.860,-38.8751,-151.3756
14:22:09.862,-39.4689,-153.6881
14:22:09.864,-39.3439,-154.1256
14:22:09.901,-39.7189,-154.8131
14:22:09.904,-39.3127,-156.1256
14:22:09.907,-39.8127,-154.6256
14:22:09.909,-37.5626,-149.2506
14:22:09.915,-30.2814,-127.1255
14:22:09.939,-15.9063,-82.2503
14:22:09.939,1.3125,-29.9376
14:22:09.945,10.5313,4.6875
14:22:09.955,17.3126,27.9376
14:22:09.965,21.9688,47.4377
14:22:09.975,26.4376,63.6877
14:22:09.985,28.2501,76.5628
14:22:09.994,31.0939,85.4378
14:22:10.004,33.2814,96.5629
14:22:10.017,34.3439,103.6879
14:22:10.025,36.4689,112.5004
14:22:10.035,37.6876,120.3755
14:22:10.044,40.0314,124.938
14:22:10.054,40.9064,131.688
14:22:10.065,41.8127,135.1255
14:22:10.075,43.7189,138.7505
14:22:10.084,43.1877,141.6255
14:22:10.095,44.3439,143.1255
14:22:10.105,43.6252,142.938
14:22:10.115,43.7502,142.188
14:22:10.126,42.2502,139.2505
14:22:10.135,41.6877,134.8755
14:22:10.144,40.0627,130.3755
14:22:10.156,38.9376,126.1255
14:22:10.164,37.4064,119.563
14:22:10.176,34.9064,114.6254
14:22:10.186,34.0626,107.8754
14:22:10.196,32.4689,103.8129
14:22:10.204,31.0939,98.7504
14:22:10.215,29.9064,94.8754
14:22:10.225,29.1251,91.5004
14:22:10.234,28.3126,87.9378
14:22:10.245,27.7501,84.3128
14:22:10.256,26.0313,81.0628
14:22:10.266,24.5313,77.3753
14:22:10.275,23.6563,73.6253
14:22:10.286,22.1563,68.9378
14:22:10.295,20.3126,64.0627
14:22:10.305,18.5938,59.0627
14:22:10.316,17.1563,53.6252
14:22:10.326,15.5626,48.5002
14:22:10.335,13.8126,41.7502
14:22:10.344,12.4063,36.1876
14:22:10.355,10.4063,31.4376
14:22:10.365,8.5625,26.2501
14:22:10.375,7.2813,21.3126
14:22:10.385,6.125,14.8126
14:22:10.395,3.6563,10.125
14:22:10.404,2.6563,4.875
14:22:10.415,1.4063,-0.75
14:22:10.425,0.2188,-5.5625
14:22:10.435,-1.0625,-10.625
14:22:10.460,-2.75,-16.2501
14:22:10.462,-3.4688,-20.3751
14:22:10.465,-6.25,-25.0626
14:22:10.498,-6.9688,-30.7501
14:22:10.502,-8.5938,-35.3751
14:22:10.502,-10.125,-39.8752
14:22:10.507,-11.3125,-45.0627
14:22:10.543,-12.8125,-49.3752
14:22:10.548,-13.4376,-53.5627
14:22:10.549,-15.0938,-57.4377
14:22:10.550,-16.0938,-62.1252
14:22:10.592,-17.6876,-66.4378
14:22:10.594,-18.3438,-70.6253
14:22:10.595,-20.0313,-75.7503
14:22:10.614,-21.1876,-80.5003
14:22:10.616,-22.5313,-85.1878
14:22:10.616,-23.2501,-88.6253
14:22:10.621,-24.9376,-91.7504
14:22:10.629,-25.4376,-96.5004
14:22:10.643,-27.2501,-99.2504
14:22:10.650,-28.0314,-104.6879
14:22:10.661,-29.2501,-107.1879
14:22:10.670,-30.2189,-111.6254
14:22:10.679,-29.8126,-114.0629
14:22:10.691,-31.1251,-117.3129
14:22:10.701,-31.6251,-121.0005
14:22:10.712,-33.0001,-122.6255
14:22:10.719,-33.7814,-126.063
14:22:10.729,-33.7814,-128.3755
14:22:10.747,-34.8751,-132.188
14:22:10.753,-35.8751,-134.188
14:22:10.761,-36.3751,-137.6255
14:22:10.770,-37.2501,-139.7505
14:22:10.785,-38.0001,-143.938
14:22:10.793,-38.0626,-145.6255
14:22:10.802,-38.5314,-147.2506
14:22:10.810,-38.0626,-149.8131
14:22:10.820,-39.3127,-150.0006
14:22:10.830,-39.3439,-154.0006
14:22:10.840,-38.7814,-154.6881
14:22:10.850,-39.6252,-156.4381
14:22:10.860,-38.9376,-158.1256
14:22:10.869,-39.5002,-158.4381
14:22:10.880,-39.3439,-159.1256
14:22:10.891,-38.6251,-160.4381
14:22:10.900,-37.8126,-159.8131
14:22:10.909,-38.2501,-160.4381
14:22:10.920,-37.1251,-159.1256
14:22:10.930,-38.0001,-158.2506
14:22:10.940,-35.5314,-152.7506
14:22:10.950,-31.4376,-133.813
14:22:10.967,-18.0001,-94.1879
14:22:10.982,0.3438,-34.2501
14:22:10.986,12.9688,7.375
14:22:10.999,20.5626,34.4376
14:22:11.002,24.4376,54.8127
14:22:11.009,28.7501,69.1878
14:22:11.020,32.5001,83.1253
14:22:11.030,34.0939,94.1879
14:22:11.041,36.3751,102.7504
14:22:11.051,38.0001,110.8129
14:22:11.059,39.3439,117.313
14:22:11.070,41.1252,124.8755
14:22:11.080,41.9689,131.8755
14:22:11.090,43.7502,135.3755
14:22:11.101,44.9689,139.0005
14:22:11.110,45.0002,143.0005
14:22:11.120,45.5002,144.438
14:22:11.129,46.4689,146.5631
14:22:11.141,46.2814,145.438
14:22:11.150,45.3752,144.188
14:22:11.159,44.7189,142.188
14:22:11.171,43.5002,137.063
14:22:11.180,42.2814,132.0005
14:22:11.190,40.0627,126.688
14:22:11.215,39.1876,120.438
14:22:11.219,37.0626,115.5629
14:22:11.226,35.3751,110.8129
14:22:11.254,35.2501,105.5004
14:22:11.258,33.5626,102.1254
14:22:11.260,32.8126,98.1879
14:22:11.266,31.8439,94.8129
14:22:11.295,31.3126,92.6254
14:22:11.298,30.8439,89.1253
14:22:11.302,30.1251,86.6253
14:22:11.304,29.0939,83.1878
14:22:11.340,27.9064,79.8753
14:22:11.343,27.0626,76.3128
14:22:11.346,25.2813,70.9378
14:22:11.351,23.9063,66.2503
14:22:11.365,21.7188,59.9377
14:22:11.367,20.6876,55.6252
14:22:11.376,18.4688,50.5627
14:22:11.384,16.5001,43.6877
14:22:11.395,14.0313,37.4376
14:22:11.405,12.1563,31.7501
14:22:11.414,10.7188,25.1251
14:22:11.425,8.2188,19.9376
14:22:11.434,7.0313,13.4376
14:22:11.445,5.1875,8.8125
14:22:11.454,4.0938,2.3125
14:22:11.464,1.9375,-2.4375
14:22:11.476,0.875,-8.1875
14:22:11.484,-1.2813,-13.7501
14:22:11.495,-2.625,-18.8751
14:22:11.505,-3.9688,-24.9376
14:22:11.515,-5.875,-29.1251
14:22:11.524,-7.7188,-35.7501
14:22:11.534,-9.25,-40.2502
14:22:11.545,-10.2188,-46.2502
14:22:11.555,-11.7188,-49.8752
14:22:11.564,-12.9688,-55.6877
14:22:11.575,-13.9688,-58.8127
14:22:11.584,-15.5626,-64.5002
14:22:11.596,-16.5001,-68.5628
14:22:11.605,-17.9688,-73.6253
14:22:11.614,-19.5626,-77.8128
14:22:11.625,-20.0626,-82.4378
14:22:11.635,-21.8438,-86.3753
14:22:11.644,-22.6563,-90.1253
14:22:11.655,-23.2501,-93.3129
14:22:11.664,-24.9063,-95.9379
14:22:11.675,-25.6251,-100.5629
14:22:11.685,-26.6251,-102.9379
14:22:11.695,-27.4689,-107.8754
14:22:11.705,-28.5001,-111.0629
14:22:11.715,-29.0626,-113.0004
14:22:11.726,-30.0939,-117.0629
14:22:11.735,-29.9376,-119.188
14:22:11.744,-31.4064,-121.2505
14:22:11.755,-31.5314,-123.063
14:22:11.764,-32.0626,-125.188
14:22:11.775,-32.6876,-126.1255
14:22:11.785,-32.4689,-129.7505
14:22:11.795,-33.7501,-130.438
14:22:11.805,-33.9689,-131.5005
14:22:11.815,-33.8126,-134.3755
14:22:11.826,-33.4064,-135.0005
14:22:11.835,-33.3751,-135.313
14:22:11.844,-33.8751,-135.563
14:22:11.855,-34.0939,-137.563
14:22:11.883,-32.9064,-137.563
14:22:11.885,-33.5314,-137.813
14:22:11.888,-32.8439,-136.8755
14:22:11.895,-30.4376,-128.188
14:22:11.926,-24.5001,-105.8129
14:22:11.928,-9.8125,-63.3127
14:22:11.931,5.8125,-13.8126
14:22:11.940,15.0001,19.0001
14:22:11.965,20.6251,40.6877
14:22:11.967,25.5313,58.2502
14:22:11.971,28.6251,72.8753
14:22:11.976,31.8439,84.8128
14:22:12.000,33.1876,94.3754
14:22:12.002,34.5314,100.7504
14:22:12.031,35.6251,106.8129
14:22:12.032,36.0939,111.1879
14:22:12.035,37.5314,115.3129
14:22:12.037,38.4689,119.3755
14:22:12.085,39.5002,122.438
14:22:12.100,40.3439,124.813
14:22:12.103,39.8752,126.7505
14:22:12.118,40.0002,126.8755
14:22:12.132,40.8439,126.6255
14:22:12.132,39.4377,125.1255
14:22:12.132,38.3439,122.1255
14:22:12.136,37.0001,117.4379
14:22:12.141,34.8126,112.9379
14:22:12.143,33.6876,106.3129
14:22:12.152,32.1251,100.5629
14:22:12.160,30.7501,95.6254
14:22:12.170,29.7501,90.3129
14:22:12.179,28.0001,85.5628
14:22:12.193,27.5939,80.9378
14:22:12.200,25.4688,77.3128
14:22:12.211,24.5938,74.0003
14:22:12.220,24.3438,71.6878
14:22:12.231,24.4063,70.9378
14:22:12.241,23.9063,68.4378
14:22:12.251,23.5313,66.3128
14:22:12.260,22.0938,63.0627
14:22:12.271,20.6563,57.9377
14:22:12.287,19.0938,54.2502
14:22:12.301,17.3126,50.0002
14:22:12.304,16.4688,44.2502
14:22:12.319,14.4376,40.1252
14:22:12.337,13.8751,34.7501
14:22:12.339,12.3125,30.6251
14:22:12.341,10.625,24.7501
14:22:12.351,8.625,19.5001
14:22:12.361,6.8438,13.3126
14:22:12.369,4.8438,9.25
14:22:12.381,3.75,3.1875
14:22:12.391,1.4688,-2.4375
14:22:12.401,-0.0625,-8.5625
14:22:12.410,-2.0625,-13.5001
14:22:12.421,-2.9063,-17.8126
14:22:12.431,-4.0625,-23.0626
14:22:12.441,-5.4375,-27.5626
14:22:12.452,-6.2813,-31.8751
14:22:12.461,-8.3438,-36.2501
14:22:12.469,-9.875,-41.7502
14:22:12.481,-10.8438,-46.1877
14:22:12.492,-12.125,-51.5002
14:22:12.501,-13.5001,-56.1252
14:22:12.510,-14.0001,-60.3752
14:22:12.521,-15.4376,-64.6877
14:22:12.529,-16.0938,-68.4378
14:22:12.541,-18.0938,-72.1253
14:22:12.549,-18.5626,-76.5628
14:22:12.562,-20.4376,-79.6253
14:22:12.571,-20.0313,-82.9378
14:22:12.581,-21.4063,-86.1878
14:22:12.590,-22.4063,-89.0628
14:22:12.601,-23.5313,-93.0004
14:22:12.611,-24.0313,-95.4379
14:22:12.620,-24.5313,-97.2504
14:22:12.636,-24.5626,-100.6879
14:22:12.640,-25.5626,-101.7504
14:22:12.675,-26.0313,-105.5629
14:22:12.677,-27.1876,-107.6254
14:22:12.678,-27.6876,-111.1879
14:22:12.681,-28.8126,-113.1254
14:22:12.712,-28.9376,-116.8129
14:22:12.713,-30.5626,-119.063
14:22:12.717,-31.0626,-122.938
14:22:12.749,-31.4376,-124.688
14:22:12.750,-32.2189,-126.3755
14:22:12.752,-32.3126,-128.6255
14:22:12.759,-32.7814,-130.6255
14:22:12.761,-34.1564,-132.938
14:22:12.790,-33.8751,-134.813
14:22:12.793,-34.1251,-136.5005
14:22:12.795,-34.9689,-138.1255
14:22:12.801,-34.7814,-138.938
14:22:12.811,-33.9689,-134.063
14:22:12.821,-29.5939,-120.1255
14:22:12.831,-18.5001,-86.0628
14:22:12.841,-1.375,-32.0626
14:22:12.850,12.0938,11.875
14:22:12.861,18.8751,40.1877
14:22:12.870,24.7501,59.8127
14:22:12.882,29.2189,77.7503
14:22:12.891,33.2814,91.0629
14:22:12.901,35.3751,103.4379
14:22:12.911,37.6251,113.3129
14:22:12.920,40.0314,121.3755
14:22:12.938,41.7814,129.2505
14:22:12.941,43.1564,136.5005
14:22:12.951,45.0314,141.938
14:22:12.961,46.6252,148.4381
14:22:12.970,47.5939,153.7506
14:22:12.981,49.4377,156.6256
14:22:12.991,49.7814,160.6256
14:22:13.001,49.9377,161.4381
14:22:13.011,50.5939,162.5631
14:22:13.021,49.5627,161.2506
14:22:13.033,49.0002,158.6881
14:22:13.041,48.1564,154.5631
14:22:13.051,45.8127,150.4381
14:22:13.060,44.4689,143.813
14:22:13.072,42.5314,138.7505
14:22:13.079,41.2814,133.188
14:22:13.091,39.8752,127.1255
14:22:13.101,38.6876,122.063
14:22:13.110,37.7189,118.188
14:22:13.121,35.5626,113.8754
14:22:13.132,35.2814,111.4379
14:22:13.160,34.4376,107.7504
14:22:13.163,32.9376,104.6254
14:22:13.165,32.7814,101.4379
14:22:13.172,31.0314,99.1254
14:22:13.186,30.3439,94.3754
14:22:13.196,28.5001,90.9379
14:22:13.206,27.2501,85.2503
14:22:13.216,25.1251,81.3753
14:22:13.226,24.0001,75.8128
14:22:13.236,22.5001,70.3128
14:22:13.246,20.5938,65.1877
14:22:13.256,18.7501,59.1252
14:22:13.265,16.5626,53.6877
14:22:13.276,15.0313,48.6252
14:22:13.286,14.1251,43.4377
14:22:13.296,12,38.1251
14:22:13.313,10.25,32.1251
14:22:13.315,8.5,27.5626
14:22:13.325,7.1875,22.5001
14:22:13.334,5.7188,16.6876
14:22:13.346,2.7188,9.625
14:22:13.361,1.25,3.8125
14:22:13.372,0.5,-1.5625
14:22:13.386,-1.2813,-5.25
14:22:13.418,-1.9375,-10.125
14:22:13.421,-3.2813,-15.4376
14:22:13.516,-4.6563,-19.5001
14:22:13.519,-6.6563,-25.1251
14:22:13.519,-7.5938,-29.5001
14:22:13.519,-9.1875,-34.6876
14:22:13.519,-11.125,-39.5627
14:22:13.519,-11.6875,-44.0627
14:22:13.528,-14.0001,-48.3752
14:22:13.528,-14.6876,-51.8752
14:22:13.528,-15.5001,-56.8127
14:22:13.543,-16.6563,-59.1877
14:22:13.546,-17.1251,-64.3127
14:22:13.561,-19.0938,-68.3128
14:22:13.569,-20.2188,-73.3753
14:22:13.576,-21.5001,-78.0628
14:22:13.586,-23.1876,-82.6253
14:22:13.601,-24.3438,-87.3753
14:22:13.618,-25.3438,-90.6254
14:22:13.620,-26.7501,-94.8754
14:22:13.635,-27.3751,-97.5629
14:22:13.637,-27.4064,-100.7504
14:22:13.652,-29.0626,-103.4379
14:22:13.656,-29.2501,-106.3129
14:22:13.666,-29.5626,-108.7504
14:22:13.676,-29.8126,-110.4379
14:22:13.691,-30.5314,-113.8754
14:22:13.696,-35.6876,-128.8755
14:22:13.707,-35.0314,-131.0005
14:22:13.716,-35.4689,-133.063
14:22:13.725,-36.6251,-134.6255
14:22:13.736,-36.7501,-136.5005
14:22:13.747,-36.8126,-137.063
14:22:13.756,-37.0314,-139.688
14:22:13.766,-37.1251,-139.063
14:22:13.776,-36.3439,-137.063
14:22:13.786,-33.3751,-126.438
14:22:13.796,-23.8751,-99.7504
14:22:13.806,-8.0938,-51.0627
14:22:13.816,4.0625,-10
14:22:13.827,12.875,18.8126
14:22:13.836,18.5626,43.5002
14:22:13.847,24.5626,62.0627
14:22:13.856,28.5001,80.3128
14:22:13.866,31.2814,93.0629
14:22:13.877,34.6876,105.0629
14:22:13.887,35.9376,114.9379
14:22:13.896,37.9376,122.813
14:22:13.906,40.1877,131.2505
14:22:13.916,41.1564,138.2505
14:22:13.927,43.4064,143.188
14:22:13.937,43.8752,149.0631
14:22:13.947,45.1252,152.5006
14:22:13.956,45.6877,155.5006
14:22:13.966,46.3752,158.3756
14:22:13.976,46.6877,161.0006
14:22:13.986,46.8127,161.1256
14:22:13.996,46.5627,160.9381
14:22:14.006,46.0002,158.8131
14:22:14.015,44.8752,154.6881
14:22:14.026,43.0314,150.4381
14:22:14.036,41.5627,143.813
14:22:14.048,39.6564,137.6255
14:22:14.056,37.2189,130.938
14:22:14.067,35.6251,124.8755
14:22:14.077,34.1251,119.1255
14:22:14.087,32.6564,113.5004
14:22:14.096,32.0626,109.1254
14:22:14.106,29.9376,104.6254
14:22:14.126,28.0001,101.1254
14:22:14.128,27.5626,97.0629
14:22:14.155,26.0626,93.8129
14:22:14.157,25.9063,89.4378
14:22:14.161,24.0001,85.7503
14:22:14.166,22.6563,82.3128
14:22:14.200,21.7188,76.6878
14:22:14.201,20.0001,73.1878
14:22:14.205,18.6251,67.0003
14:22:14.207,17.0626,62.9377
14:22:14.239,14.8438,56.0002
14:22:14.244,13.7813,51.4377
14:22:14.245,11.5313,44.7502
14:22:14.270,10.0938,40.5002
14:22:14.271,8.8438,33.2501
14:22:14.273,6.5938,28.4376
14:22:14.279,5.5313,23.5626
14:22:14.288,3.4375,18.0001
14:22:14.297,2.3125,12.75
14:22:14.306,0.0625,6.6875
14:22:14.317,-1.3438,2.75
14:22:14.326,-2.3438,-3.4375
14:22:14.336,-4,-7.3125
14:22:14.346,-4.7813,-13.0625
14:22:14.355,-7.125,-17.5001
14:22:14.366,-8.5313,-22.4376
14:22:14.377,-9.9375,-27.7501
14:22:14.386,-11.125,-32.6251
14:22:14.396,-11.5625,-37.3126
14:22:14.406,-13.7188,-41.0627
14:22:14.416,-14.8438,-46.1877
14:22:14.441,-16.2813,-51.1252
14:22:14.444,-17.5626,-55.3127
14:22:14.446,-18.7813,-58.7502
14:22:14.465,-19.7813,-64.1252
14:22:14.466,-21.7188,-67.8753
14:22:14.477,-21.4376,-71.5003
14:22:14.486,-23.4063,-75.8128
14:22:14.498,-23.5938,-79.1878
14:22:14.506,-24.4063,-82.1878
14:22:14.516,-26.0626,-84.2503
14:22:14.526,-26.2813,-89.2503
14:22:14.536,-27.7189,-91.5004
14:22:14.551,-28.0939,-95.0629
14:22:14.561,-28.5001,-98.8129
14:22:14.574,-29.7501,-101.9379
14:22:14.581,-30.1564,-105.4379
14:22:14.591,-31.0314,-107.2504
14:22:14.601,-31.5001,-111.7504
14:22:14.611,-32.5939,-114.0004
14:22:14.621,-34.0939,-116.6254
14:22:14.631,-34.1564,-120.063
14:22:14.641,-35.4376,-121.7505
14:22:14.651,-35.2501,-124.7505
14:22:14.661,-35.7189,-126.313
14:22:14.671,-36.5939,-128.8755
14:22:14.681,-36.3751,-131.438
14:22:14.691,-37.5939,-132.1255
14:22:14.701,-37.2189,-135.063
14:22:14.711,-37.9689,-137.6255
14:22:14.721,-38.7814,-137.688
14:22:14.731,-36.4064,-133.438
14:22:14.742,-30.1564,-114.4379
14:22:14.758,-17.6563,-77.3753
14:22:14.769,-2.5938,-33.8126
14:22:14.772,5.0625,-2.625
14:22:14.781,12.2188,20.6251
14:22:14.806,17.8751,41.5002
14:22:14.841,22.0626,58.0627
14:22:14.844,26.0938,73.3753
14:22:14.846,27.9064,85.9378
14:22:14.848,30.1251,94.5004
14:22:14.848,31.1564,103.3754
14:22:14.851,33.1564,109.3754
14:22:14.880,35.6876,115.6254
14:22:14.882,35.4689,120.563
14:22:14.885,37.5314,125.0005
14:22:14.893,38.0626,128.8755
14:22:14.918,38.8439,131.063
14:22:14.960,39.4689,133.8755
14:22:14.973,40.9377,136.813
14:22:14.977,40.1252,137.2505
14:22:14.992,40.6564,136.688
14:22:14.992,39.5002,135.0005
14:22:14.992,38.1564,131.313
14:22:15.006,37.0001,126.563
14:22:15.009,35.6564,120.2505
14:22:15.012,34.1876,115.8754
14:22:15.017,31.5626,109.0629
14:22:15.026,30.0939,104.5629
14:22:15.036,28.7189,97.7504
14:22:15.046,27.4064,94.3129
14:22:15.056,27.0314,90.6879
14:22:15.066,25.6251,87.8128
14:22:15.076,25.6251,84.6253
14:22:15.086,24.5001,82.6878
14:22:15.095,23.3751,80.3128
14:22:15.106,23.0001,78.0628
14:22:15.117,22.0626,74.8128
14:22:15.126,20.6251,71.6253
14:22:15.136,19.5313,67.0003
14:22:15.146,17.3751,58.7502
14:22:15.156,15.0938,53.3752
14:22:15.166,13.4688,47.8752
14:22:15.176,11.9063,42.3752
14:22:15.186,10.0625,38.1876
14:22:15.197,8.5313,31.7501
14:22:15.206,7.2813,27.3126
14:22:15.216,6,21.8751
14:22:15.226,4.7188,17.5626
14:22:15.236,3.3438,12.5
14:22:15.246,1.875,8.4375
14:22:15.257,1.25,3.1875
14:22:15.266,-1.1563,-1.75
14:22:15.277,-2.9063,-6.375
14:22:15.286,-4.0938,-11.4375
14:22:15.296,-5.5,-15.8126
14:22:15.306,-6.6563,-21.1876
14:22:15.316,-8.3125,-24.9376
14:22:15.326,-8.7813,-30.2501
14:22:15.336,-10.9063,-33.0001
14:22:15.346,-10.9063,-38.8751
14:22:15.356,-13.3438,-42.2502
14:22:15.365,-14.1876,-47.9377
14:22:15.376,-16.0938,-50.3127
14:22:15.386,-16.5626,-54.6252
14:22:15.396,-17.8438,-57.8127
14:22:15.406,-18.2188,-62.0627
14:22:15.416,-19.3751,-64.3127
14:22:15.426,-19.7501,-67.2503
14:22:15.436,-20.4063,-70.1253
14:22:15.447,-21.9063,-73.7503
14:22:15.456,-23.1251,-78.5628
14:22:15.467,-23.5001,-81.1253
14:22:15.476,-24.9063,-82.8128
14:22:15.486,-25.3126,-86.9378
14:22:15.496,-24.8751,-88.7503
14:22:15.506,-26.1563,-91.1879
14:22:15.516,-26.6564,-94.3129
14:22:15.527,-27.0939,-96.8129
14:22:15.536,-28.5314,-99.2504
14:22:15.546,-28.1876,-101.6254
14:22:15.557,-29.2501,-103.6879
14:22:15.584,-30.1876,-107.8129
14:22:15.587,-29.8126,-108.7504
14:22:15.589,-29.2814,-105.4379
14:22:15.596,-23.8751,-93.3129
14:22:15.630,-13.9063,-66.2503
14:22:15.632,-3.2188,-32.1876
14:22:15.633,6.4063,-1.9375
14:22:15.638,12.9688,23.6876
14:22:15.669,19.5626,43.8752
14:22:15.671,25.6251,65.0628
14:22:15.673,29.6564,82.1253
14:22:15.710,34.0001,97.3129
14:22:15.711,39.3126,112.7504
14:22:15.714,44.9377,127.813
14:22:15.729,50.2814,142.313
14:22:15.730,55.6252,154.8131
14:22:15.732,59.1252,165.8131
14:22:15.752,60.1252,174.0632
14:22:15.755,62.0627,180.5007
14:22:15.762,63.0627,185.1257
14:22:15.773,64.4065,189.6257
14:22:15.781,64.1565,193.4382
14:22:15.791,65.2502,195.0632
14:22:15.801,65.0627,196.5007
14:22:15.811,65.4065,194.8132
14:22:15.822,64.6252,193.0007
14:22:15.831,63.1252,190.3757
14:22:15.841,60.8127,184.0007
14:22:15.852,57.3127,175.5632
14:22:15.861,54.8127,165.7506
14:22:15.871,51.0314,155.2506
14:22:15.881,47.2814,144.188
14:22:15.891,43.8439,133.563
14:22:15.901,38.7814,119.5005
14:22:15.911,36.2501,111.1254
14:22:15.921,33.9689,103.2504
14:22:15.931,31.9376,98.4379
14:22:15.941,31.0001,93.3129
14:22:15.951,30.4689,90.0628
14:22:15.961,30.5939,88.3128
14:22:15.971,29.6251,86.2503
14:22:15.981,29.1564,83.6878
14:22:15.991,27.5001,80.5003
14:22:16.001,26.6876,75.6878
14:22:16.011,24.8751,72.3128
14:22:16.021,23.7501,68.1878
14:22:16.031,23.2188,64.1252
14:22:16.041,21.8751,59.9377
14:22:16.051,20.5001,54.9377
14:22:16.061,19.0938,49.1877
14:22:16.071,16.7813,43.5627
14:22:16.088,14.5938,36.1876
14:22:16.091,12.0938,28.1876
14:22:16.106,10.4375,21.3126
14:22:16.121,8.0313,14.8751
14:22:16.123,6.8438,8.4375
14:22:16.140,4.0625,1.875
14:22:16.142,2.8125,-6
14:22:16.152,-0.2188,-12.625
14:22:16.161,-2.625,-20.2501
14:22:16.171,-4.5,-29.0001
14:22:16.181,-6.6563,-35.3751
14:22:16.191,-7.875,-42.5627
14:22:16.201,-9.2188,-49.6252
14:22:16.212,-9.375,-54.5002
14:22:16.221,-10.9063,-61.5627
14:22:16.231,-12.9375,-68.5003
14:22:16.241,-14.0001,-74.8753
14:22:16.252,-15.2813,-81.9378
14:22:16.262,-17.6563,-88.9378
14:22:16.276,-19.0626,-94.9379
14:22:16.283,-21.0938,-101.7504
14:22:16.291,-23.4376,-108.8754
14:22:16.306,-25.4688,-114.7504
14:22:16.316,-26.8126,-120.938
14:22:16.321,-28.0626,-126.5005
14:22:16.353,-30.5314,-132.438
14:22:16.355,-32.1251,-137.188
14:22:16.359,-33.0939,-141.063
14:22:16.365,-35.0001,-146.2505
14:22:16.372,-35.7189,-148.7506
14:22:16.402,-36.8751,-150.4381
14:22:16.404,-36.9689,-154.1256
14:22:16.406,-37.4689,-156.6881
14:22:16.412,-39.0314,-159.5006
14:22:16.440,-39.4376,-162.4381
14:22:16.442,-39.7814,-163.1881
14:22:16.444,-39.7814,-165.0006
14:22:16.451,-39.8127,-165.4381
14:22:16.480,-40.4377,-168.1881
14:22:16.483,-40.4689,-168.2506
14:22:16.485,-40.5627,-168.4381
14:22:16.502,-40.3127,-169.0631
14:22:16.504,-39.1876,-165.8756
14:22:16.511,-36.9064,-160.1881
14:22:16.525,-32.3751,-143.8755
14:22:16.532,-22.1251,-110.8129
14:22:16.541,-5.2188,-61.5002
14:22:16.551,8.7188,-16.6251
14:22:16.562,15.8126,14.0001
14:22:16.572,22.2501,40.3752
14:22:16.581,27.6876,62.8127
14:22:16.593,32.3126,81.0628
14:22:16.602,34.8439,93.9379
14:22:16.611,36.7501,104.2504
14:22:16.622,38.7189,113.8754
14:22:16.631,40.1252,122.2505
14:22:16.642,42.5939,130.313
14:22:16.651,44.1564,137.0005
14:22:16.661,45.7502,142.813
14:22:16.671,47.4689,148.6256
14:22:16.682,48.1252,152.1256
14:22:16.691,49.5627,157.1256
14:22:16.702,50.1252,160.0006
14:22:16.711,51.6564,162.3131
14:22:16.721,50.8439,164.0006
14:22:16.732,50.7814,164.0631
14:22:16.742,50.0939,162.0006
14:22:16.751,48.5939,158.6881
14:22:16.761,47.1877,154.1256
14:22:16.773,44.5314,148.8756
14:22:16.781,42.8439,143.3755
14:22:16.792,41.7814,136.5005
14:22:16.801,40.0627,130.7505
14:22:16.811,38.2501,124.5005
14:22:16.821,36.8126,118.7505
14:22:16.831,34.7814,114.4379
14:22:16.842,33.3751,109.7504
14:22:16.851,32.8439,104.1879
14:22:16.861,30.1564,99.6879
14:22:16.871,28.2189,94.6254
14:22:16.881,26.5626,89.1878
14:22:16.892,25.0313,84.1253
14:22:16.904,22.8751,77.5003
14:22:16.911,20.8751,72.5003
14:22:16.922,18.2813,64.6877
14:22:16.931,15.2188,57.3127
14:22:16.942,13.5626,50.8752
14:22:16.951,11.6875,43.4377
14:22:16.963,8.8438,36.0626
14:22:16.972,6.25,28.4376
14:22:17.003,5.0313,20.1251
14:22:17.005,2.375,13.5001
14:22:17.008,0.75,3.8125
14:22:17.013,-0.9375,-2.25
14:22:17.045,-3.0938,-10.0625
14:22:17.049,-5.1563,-17.4376
14:22:17.050,-6.75,-24.3751
14:22:17.052,-9.0938,-31.6876
14:22:17.089,-11.2813,-39.5002
14:22:17.092,-13.6563,-48.8752
14:22:17.095,-16.4376,-56.5627
14:22:17.097,-18.9376,-65.8128
14:22:17.103,-21.5001,-74.7503
14:22:17.135,-23.7813,-83.1878
14:22:17.137,-26.4376,-91.2504
14:22:17.139,-28.9064,-98.3754
14:22:17.142,-30.4064,-104.3129
14:22:17.164,-31.5314,-110.4379
14:22:17.166,-33.1564,-114.5004
14:22:17.173,-33.9376,-120.313
14:22:17.182,-36.3439,-124.063
14:22:17.192,-37.3126,-130.063
14:22:17.202,-38.6251,-134.188
14:22:17.211,-40.1564,-139.188
14:22:17.223,-41.4064,-143.5005
14:22:17.232,-42.2189,-146.313
14:22:17.242,-42.3752,-149.5631
14:22:17.258,-43.1564,-150.8756
14:22:17.267,-42.5002,-152.8131
14:22:17.277,-42.2502,-153.0631
14:22:17.287,-42.9064,-152.1881
14:22:17.299,-42.6877,-153.5006
14:22:17.307,-42.3127,-152.0631
14:22:17.317,-41.7189,-151.5631
14:22:17.327,-40.4377,-150.5631
14:22:17.337,-40.4377,-149.6881
14:22:17.347,-39.6252,-148.3756
14:22:17.356,-39.2189,-147.8756
14:22:17.367,-38.4064,-146.1256
14:22:17.376,-37.6564,-144.438
14:22:17.387,-36.5314,-143.8755
14:22:17.404,-37.5314,-143.438
14:22:17.411,-38.3751,-145.438
14:22:17.422,-38.9376,-145.5005
14:22:17.427,-36.8439,-140.3755
14:22:17.442,-30.7814,-123.188
14:22:17.451,-20.3751,-88.7503
14:22:17.459,-6.0313,-45.3752
14:22:17.467,5.375,-6.75
14:22:17.477,13.9688,23.0001
14:22:17.486,21.8438,49.2502
14:22:17.497,28.0001,73.6878
14:22:17.506,32.7814,91.5004
14:22:17.517,35.6876,105.8129
14:22:17.529,37.4376,115.3129
14:22:17.537,39.7502,124.8755
14:22:17.547,41.0002,133.938
14:22:17.556,42.6564,138.313
14:22:17.568,42.7814,144.6255
14:22:17.577,44.8127,147.1881
14:22:17.592,44.8127,152.4381
14:22:17.599,45.9689,154.5006
14:22:17.607,47.0002,158.3131
14:22:17.623,47.6564,159.5631
14:22:17.625,48.0002,160.7506
14:22:17.641,47.2814,160.3756
14:22:17.652,46.6564,159.1256
14:22:17.657,45.6252,155.3756
14:22:17.666,44.2189,151.1256
14:22:17.677,42.4064,145.0005
14:22:17.688,40.6252,139.063
14:22:17.722,39.1876,133.1255
14:22:17.724,37.1251,126.0005
14:22:17.727,35.0939,119.5005
14:22:17.730,32.7814,112.3129
14:22:17.760,30.5314,106.3129
14:22:17.764,28.9064,99.9379
14:22:17.765,27.3126,95.5629
14:22:17.769,24.8438,91.0629
14:22:17.800,23.4688,85.6253
14:22:17.804,22.2188,80.8753
14:22:17.805,20.7813,76.1253
14:22:17.831,19.6251,72.0628
14:22:17.832,17.9063,66.3128
14:22:17.835,16.8438,61.0627
14:22:17.840,14.9376,54.0627
14:22:17.864,12,49.1252
14:22:17.866,10.8438,41.5002
14:22:17.868,8.9063,34.9376
14:22:17.877,7,27.4376
14:22:17.888,4.0313,19.8751
14:22:17.897,2.4063,12.375
14:22:17.907,0.6875,4.8125
14:22:17.919,-1.75,-2.8125
14:22:17.927,-3.875,-11.125
14:22:17.937,-7.0313,-19.5001
14:22:17.947,-8.8438,-27.3751
14:22:17.957,-11.8125,-36.1251
14:22:17.968,-15.1251,-44.2502
14:22:17.979,-17.5313,-52.6252
14:22:17.987,-19.8751,-61.5627
14:22:17.997,-21.7813,-68.1878
14:22:18.007,-23.3751,-75.2503
14:22:18.017,-25.4688,-80.4378
14:22:18.032,-26.6876,-87.2503
14:22:18.037,-28.6876,-92.8754
14:22:18.047,-29.7189,-98.6254
14:22:18.057,-30.9376,-102.3754
14:22:18.069,-31.9376,-107.0629
14:22:18.077,-33.5001,-110.6254
14:22:18.087,-33.8751,-114.3129
14:22:18.097,-35.0001,-117.0629
14:22:18.107,-35.1876,-119.7505
14:22:18.118,-36.1876,-122.5005
14:22:18.127,-36.7814,-126.313
14:22:18.137,-37.4689,-127.6255
14:22:18.147,-37.6876,-130.188
14:22:18.158,-37.4376,-129.8755
14:22:18.167,-37.8439,-129.813
14:22:18.177,-36.4689,-130.8755
14:22:18.187,-37.3439,-130.188
14:22:18.198,-36.5314,-130.313
14:22:18.207,-35.3751,-127.8755
14:22:18.217,-32.3751,-119.2505
14:22:18.227,-26.3126,-100.0004
14:22:18.237,-16.1563,-66.9378
14:22:18.248,-4.8125,-30.8126
14:22:18.281,4.8125,0.3125
14:22:18.283,11.8438,28.8126
14:22:18.285,20.2501,54.0002
14:22:18.291,25.4063,75.5003
14:22:18.299,28.0626,91.0004
14:22:18.308,31.7189,103.8754
14:22:18.317,34.1251,116.6879
14:22:18.327,36.6564,125.5005
14:22:18.338,38.8439,135.3755
14:22:18.347,40.5627,143.063
14:22:18.357,43.5939,149.1256
14:22:18.367,43.9377,156.1881
14:22:18.378,45.2502,158.8131
14:22:18.387,47.4377,163.7506
14:22:18.397,47.3752,167.0006
14:22:18.408,49.3127,170.1256
14:22:18.420,48.6877,171.5632
14:22:18.428,48.0939,172.5632
14:22:18.437,48.5314,170.2507
14:22:18.447,46.9689,167.7506
14:22:18.457,46.0627,162.5631
14:22:18.467,43.1252,156.4381
14:22:18.477,40.6877,149.8131
14:22:18.504,38.7189,140.688
14:22:18.506,36.4064,133.688
14:22:18.508,35.1564,126.688
14:22:18.540,31.8751,120.188
14:22:18.543,30.3751,113.8754
14:22:18.546,28.0314,108.0629
14:22:18.547,25.6876,102.6254
14:22:18.579,23.8126,95.2504
14:22:18.586,20.7813,90.5004
14:22:18.586,19.1876,83.0628
14:22:18.589,17.4063,78.7503
14:22:18.620,15.4688,72.1878
14:22:18.622,13.9063,66.1878
14:22:18.623,12.1875,60.8127
14:22:18.648,10.7813,53.5627
14:22:18.649,8.4375,47.4377
14:22:18.653,7.6875,40.8127
14:22:18.657,5.5,34.0626
14:22:18.667,3.9688,27.5626
14:22:18.677,2.625,19.0001
14:22:18.687,0.5625,12.875
14:22:18.698,-1.5625,4.8125
14:22:18.707,-4.125,-1.125
14:22:18.727,-5.9375,-10.4375
14:22:18.733,-8.4375,-18.9376
14:22:18.743,-10.4688,-28.0001
14:22:18.747,-14.9063,-35.8751
14:22:18.764,-17.1251,-46.8127
14:22:18.771,-20.5938,-56.0627
14:22:18.781,-23.3126,-67.1253
14:22:18.788,-26.8439,-76.0628
14:22:18.797,-28.9689,-84.3753
14:22:18.807,-31.4376,-93.2504
14:22:18.817,-34.6564,-100.3754
14:22:18.827,-35.8439,-108.5004
14:22:18.838,-37.8126,-114.2504
14:22:18.848,-39.8752,-120.3755
14:22:18.857,-40.5314,-126.063
14:22:18.868,-42.4377,-130.0005
14:22:18.878,-43.1877,-135.2505
14:22:18.889,-44.2189,-137.0005
14:22:18.908,-44.3439,-140.3755
14:22:18.911,-44.1564,-141.7505
14:22:18.920,-45.1564,-143.438
14:22:18.927,-44.1564,-144.063
14:22:18.942,-44.7814,-143.438
14:22:18.951,-43.7502,-143.688
14:22:18.957,-43.7814,-143.3755
14:22:18.971,-43.0314,-142.438
14:22:18.977,-41.1252,-140.2505
14:22:18.987,-40.2502,-137.8755
14:22:18.997,-38.7814,-134.2505
14:22:19.007,-37.4376,-133.563
14:22:19.017,-35.6251,-129.7505
14:22:19.027,-37.4064,-130.313
14:22:19.037,-38.6876,-133.313
14:22:19.049,-39.0314,-133.2505
14:22:19.058,-38.7501,-133.688
14:22:19.067,-36.8126,-131.0005
14:22:19.077,-34.7814,-125.2505
14:22:19.087,-29.0001,-109.3754
14:22:19.097,-19.7501,-80.8128
14:22:19.107,-7.7188,-44.8127
14:22:19.117,1.5313,-11.125
14:22:19.127,10.3438,17.9376
14:22:19.139,19.1563,47.9377
14:22:19.148,25.4376,75.3753
14:22:19.158,31.3751,94.7504
14:22:19.167,35.8751,112.1254
14:22:19.177,38.2501,124.688
14:22:19.187,40.8127,136.2505
14:22:19.197,42.2814,147.3755
14:22:19.232,45.2814,154.5006
14:22:19.235,47.4064,162.7506
14:22:19.239,49.1877,170.8131
14:22:19.241,51.4377,176.8132
14:22:19.247,52.5314,183.0007
14:22:19.280,54.5315,186.5632
14:22:19.283,54.469,190.7507
14:22:19.285,56.2502,192.4382
14:22:19.291,55.6252,194.8757
14:22:19.306,55.4377,193.5632
14:22:19.309,54.6877,192.3132
14:22:19.344,53.6252,189.5007
14:22:19.347,51.4377,182.6257
14:22:19.348,49.1877,176.7507
14:22:19.355,45.3439,166.5006
14:22:19.367,42.0002,156.5631
14:22:19.371,38.5626,146.1255
14:22:19.388,35.0626,135.938
14:22:19.392,32.5001,126.2505
14:22:19.400,28.4376,117.6255
14:22:19.407,26.0001,109.7504
14:22:19.419,24.0001,100.3129
14:22:19.428,21.2188,93.7504
14:22:19.437,19.8126,87.4378
14:22:19.447,18.7188,81.0003
14:22:19.457,18.0313,75.5003
14:22:19.467,16.7813,69.5003
14:22:19.478,15.4688,64.2502
14:22:19.487,12.9063,56.8752
14:22:19.498,10.5313,49.6252
14:22:19.508,8.3125,42.5627
14:22:19.517,6.5313,33.1251
14:22:19.531,3.5313,25.3126
14:22:19.561,1.0938,16.2501
14:22:19.563,-2.25,7.875
14:22:19.570,-4.625,-0.875
14:22:19.572,-8,-11.75
14:22:19.577,-11.3438,-20.8751
14:22:19.587,-14.4688,-30.7501
14:22:19.599,-16.7188,-38.5001
14:22:19.607,-18.5938,-45.8752
14:22:19.617,-20.5626,-52.0002
14:22:19.627,-21.8751,-58.1877
14:22:19.637,-22.9688,-64.7502
14:22:19.647,-24.9063,-69.8128
14:22:19.657,-26.2501,-76.3753
14:22:19.667,-28.2501,-83.4378
14:22:19.677,-30.0001,-89.0628
14:22:19.690,-31.6564,-95.6879
14:22:19.699,-33.0314,-100.0004
14:22:19.707,-33.3751,-103.7504
14:22:19.717,-34.7501,-107.8129
14:22:19.727,-34.8126,-110.9379
14:22:19.737,-35.5939,-113.1879
14:22:19.747,-35.8126,-115.9379
14:22:19.757,-35.2501,-116.7504
14:22:19.767,-35.9689,-117.438
14:22:19.778,-35.1251,-118.938
14:22:19.787,-35.2501,-119.188
14:22:19.797,-36.0939,-120.813
14:22:19.807,-33.9689,-119.938
14:22:19.817,-34.3751,-120.8755
14:22:19.829,-35.5001,-122.313
14:22:19.837,-35.5626,-122.6255
14:22:19.847,-35.9689,-121.7505
14:22:19.857,-35.2501,-122.938
14:22:19.868,-35.0314,-122.0005
14:22:19.877,-35.0314,-123.5005
14:22:19.887,-34.2501,-122.2505
14:22:19.897,-33.7189,-121.188
14:22:19.912,-32.0001,-119.688
14:22:19.917,-31.6564,-118.688
14:22:19.927,-32.1876,-119.938
14:22:19.937,-31.5626,-118.688
14:22:19.947,-31.6251,-117.063
14:22:19.959,-30.1251,-117.4379
14:22:19.988,-28.9689,-116.6254
14:22:19.989,-30.4689,-118.1255
14:22:19.992,-30.7501,-120.1255
14:22:19.998,-31.0626,-120.438
14:22:20.022,-31.3751,-121.2505
14:22:20.024,-29.3751,-118.688
14:22:20.029,-26.5001,-107.4379
14:22:20.068,-18.0626,-85.5628
14:22:20.072,-8.0625,-51.6252
14:22:20.098,2.5625,-19.5001
14:22:20.145,11.1875,9.25
14:22:20.146,17.1251,35.3126
14:22:20.153,22.8126,57.1252
14:22:20.153,27.3439,76.0003
14:22:20.153,29.7814,88.5628
14:22:20.153,32.4376,99.0004
14:22:20.163,33.1876,107.8129
14:22:20.172,33.6251,112.6879
14:22:20.182,35.7501,117.6879
14:22:20.192,35.5001,122.0005
14:22:20.202,37.0939,123.438
14:22:20.212,37.3751,127.7505
14:22:20.228,38.7501,129.5005
14:22:20.244,40.3752,133.188
14:22:20.246,41.6564,134.438
14:22:20.261,42.5627,135.6255
14:22:20.276,43.6877,137.188
14:22:20.277,43.9689,137.1255
14:22:20.289,43.9377,135.938
14:22:20.292,43.6252,133.6255
14:22:20.302,42.3752,129.8755
14:22:20.312,23.9688,74.1878
14:22:20.322,23.3126,83.6253
14:22:20.334,18.9376,71.1253
14:22:20.343,14.1563,59.5002
14:22:20.352,11.3125,50.6252
14:22:20.364,9.0313,42.9377
14:22:20.372,7.8125,37.8126
14:22:20.382,7.6875,34.0626
14:22:20.392,7.0938,32.2501
14:22:20.402,6.875,28.9376
14:22:20.412,6.0938,25.5626
14:22:20.422,4.875,21.5001
14:22:20.433,2.5,17.1251
14:22:20.442,0.2188,12.25
14:22:20.452,-1.25,7.1875
14:22:20.462,-1.8438,1.25
14:22:20.473,-2.9063,-3.1875
14:22:20.483,-4.3438,-7.25
14:22:20.493,-5.5625,-10.3125
14:22:20.502,-5.7813,-13.5001
14:22:20.515,-5.7188,-15.6876
14:22:20.524,-6.5313,-17.9376
14:22:20.532,-7,-22.0626
14:22:20.542,-7.8438,-24.6251
14:22:20.552,-8.1875,-26.5626
14:22:20.562,-8.0938,-28.3751
14:22:20.572,-7.125,-28.0001
14:22:20.582,-7.9063,-30.1876
14:22:20.592,-9.25,-32.3126
14:22:20.603,-10.125,-34.3751
14:22:20.612,-10.4375,-36.4376
14:22:20.622,-9.75,-37.3751
14:22:20.633,-10.4688,-38.8126
14:22:20.642,-9.5313,-39.1877
14:22:20.667,-10.5313,-40.5627
14:22:20.669,-10.5625,-42.1877
14:22:20.672,-10.5938,-43.1877
14:22:20.705,-12.5625,-44.6252
14:22:20.710,-13.5001,-48.3752
14:22:20.711,-13.5626,-50.3127
14:22:20.712,-14.6251,-52.1877
14:22:20.725,-14.4376,-53.4377
14:22:20.739,-15.0313,-55.1252
14:22:20.745,-14.4688,-56.0002
14:22:20.781,-15.1251,-57.3127
14:22:20.783,-15.8126,-59.1252
14:22:20.785,-15.9688,-61.7502
14:22:20.811,-17.1251,-64.7502
14:22:20.812,-17.0001,-67.2503
14:22:20.814,-18.4688,-69.7503
14:22:20.840,-18.5626,-71.2503
14:22:20.842,-17.7188,-70.2503
14:22:20.845,-14.4063,-61.2502
14:22:20.851,-9.3438,-45.3752
14:22:20.852,-2.25,-23.4376
14:22:20.863,5.1563,0.25
14:22:20.872,11.375,23.9376
14:22:20.882,16.0313,44.3752
14:22:20.893,20.4376,61.5627
14:22:20.902,22.6563,76.0003
14:22:20.912,25.5001,88.0628
14:22:20.923,27.3439,97.0004
14:22:20.933,27.9064,105.1254
14:22:20.944,30.1251,110.5004
14:22:20.953,30.6564,114.6254
14:22:20.964,31.3751,119.313
14:22:20.974,33.4064,122.063
14:22:20.984,33.6876,125.0005
14:22:20.993,34.6876,127.188
14:22:21.003,34.5314,127.0005
14:22:21.014,34.6876,128.438
14:22:21.023,34.9064,126.0005
14:22:21.033,33.0626,125.5005
14:22:21.043,32.7189,123.3755
14:22:21.052,30.4689,117.938
14:22:21.063,29.3751,112.8754
14:22:21.072,26.6564,106.0004
14:22:21.082,22.4063,96.8754
14:22:21.093,19.4688,85.7503
14:22:21.104,15.4688,75.3753
14:22:21.112,11.7813,65.1253
14:22:21.122,9.1563,54.6877
14:22:21.132,6.5938,46.0627
14:22:21.142,4.875,37.7501
14:22:21.152,2.0625,31.1251
14:22:21.165,1.0313,25.1251
14:22:21.172,-0.1875,20.8126
14:22:21.182,-0.8125,16.8751
14:22:21.193,-1.3438,14.1251
14:22:21.202,-2.75,11.3125
14:22:21.212,-3.3438,7.4375
14:22:21.223,-4.4063,3.4375
14:22:21.236,-5.0938,0.6875
14:22:21.243,-6.0938,-3
14:22:21.253,-7.0313,-5.3125
14:22:21.262,-7.625,-9.75
14:22:21.274,-8.1875,-12.875
14:22:21.282,-9.0313,-16.8751
14:22:21.298,-9.0313,-18.7501
14:22:21.309,-9.4063,-22.5001
14:22:21.317,-10.5938,-24.4376
14:22:21.327,-10.9375,-27.6251
14:22:21.338,-10.7188,-29.3751
14:22:21.347,-11.9688,-33.3751
14:22:21.358,-14.0313,-37.3751
14:22:21.368,-15.0001,-41.8752
14:22:21.378,-16.0313,-44.6252
14:22:21.404,-16.9688,-46.6877
14:22:21.440,-17.0313,-50.7502
14:22:21.440,-18.4376,-52.4377
14:22:21.443,-19.4376,-56.8752
14:22:21.451,-19.3438,-58.9377
14:22:21.451,-20.3751,-62.2502
14:22:21.451,-20.9688,-64.6877
14:22:21.483,-22.3438,-67.8753
14:22:21.487,-22.8126,-70.8128
14:22:21.490,-22.8126,-72.4378
14:22:21.491,-23.0001,-74.6253
14:22:21.497,-24.7188,-76.2503
14:22:21.534,-24.0313,-79.3753
14:22:21.537,-25.0313,-78.3128
14:22:21.569,-24.1563,-78.6253
14:22:21.571,-23.8751,-79.6878
14:22:21.572,-23.9063,-79.3128
14:22:21.573,-24.6251,-80.5628
14:22:21.579,-24.6876,-80.7503
14:22:21.581,-24.8751,-81.5003
14:22:21.590,-24.2813,-82.8753
14:22:21.601,-24.3438,-82.4378
14:22:21.611,-25.0001,-83.6253
14:22:21.618,-25.3751,-83.9378
14:22:21.628,-24.9063,-84.1253
14:22:21.638,-24.7501,-85.2503
14:22:21.649,-25.3438,-85.1878
14:22:21.657,-24.6876,-85.9378
14:22:21.669,-25.5001,-86.1253
14:22:21.678,-25.7188,-87.5628
14:22:21.689,-25.7188,-90.3754
14:22:21.698,-26.5939,-91.1254
14:22:21.707,-26.3126,-91.7504
14:22:21.718,-26.8751,-93.1254
14:22:21.730,-26.6876,-94.8754
14:22:21.740,-26.2188,-93.6879
14:22:21.748,-23.9063,-86.4378
14:22:21.758,-18.6563,-71.7503
14:22:21.768,-10.0313,-47.5627
14:22:21.778,-3,-20.9376
14:22:21.787,4.875,5.625
14:22:21.798,12.0625,33.2501
14:22:21.808,18.7501,56.5627
14:22:21.818,24.9063,79.0003
14:22:21.828,28.9689,97.1879
14:22:21.838,31.9376,110.8129
14:22:21.849,29.8126,113.0629
14:22:21.859,32.2501,126.688
14:22:21.868,37.6564,139.5005
14:22:21.879,38.6564,147.0631
14:22:21.888,38.2814,150.3131
14:22:21.898,38.1251,154.0631
14:22:21.907,38.8751,157.8756
14:22:21.918,40.0627,161.9381
14:22:21.927,40.2189,165.3131
14:22:21.938,39.6877,165.8131
14:22:21.948,38.7501,165.3131
14:22:21.958,37.7189,164.0006
14:22:21.968,36.1251,162.3756
14:22:21.978,34.1251,157.9381
14:22:21.989,31.9064,153.5006
14:22:21.999,29.2814,147.1881
14:22:22.010,26.5626,139.7505
14:22:22.020,23.9688,131.438
14:22:22.028,21.0313,123.438
14:22:22.038,17.9376,113.2504
14:22:22.048,15.0938,104.7504
14:22:22.058,11.9375,96.6879
14:22:22.068,9.0313,89.4378
14:22:22.078,7.75,81.9378
14:22:22.088,5.25,76.6253
14:22:22.120,3.875,69.8128
14:22:22.122,1.5,65.9378
14:22:22.126,0.7188,58.7502
14:22:22.129,-1.875,53.9377
14:22:22.158,-3.625,47.8127
14:22:22.161,-5.3438,41.6252
14:22:22.163,-6.9375,36.5001
14:22:22.169,-8.5625,30.5001
14:22:22.201,-10.5938,24.1876
14:22:22.204,-11.5938,18.6251
14:22:22.206,-14.2501,12.25
14:22:22.214,-15.0626,6.375
14:22:22.223,-17.3438,0.25
14:22:22.251,-17.7188,-5.625
14:22:22.253,-19.9063,-11.6875
14:22:22.256,-20.9688,-18.3751
14:22:22.259,-23.7501,-23.8126
14:22:22.285,-24.0001,-30.4376
14:22:22.286,-25.5938,-36.5626
14:22:22.288,-27.5939,-41.3127
14:22:22.298,-28.7501,-47.8752
14:22:22.308,-30.7814,-53.2502
14:22:22.322,-30.8126,-59.6252
14:22:22.329,-32.4064,-64.0627
14:22:22.338,-33.5001,-70.0628
14:22:22.350,-34.0626,-74.8753
14:22:22.361,-36.3439,-80.1878
14:22:22.368,-36.4689,-85.3128
14:22:22.379,-38.1564,-90.3128
14:22:22.388,-38.9689,-95.3754
14:22:22.399,-40.1252,-99.6254
14:22:22.408,-41.4377,-104.4379
14:22:22.418,-42.2189,-108.9379
14:22:22.428,-42.5627,-112.8129
14:22:22.438,-43.9064,-116.7504
14:22:22.450,-44.8127,-121.688
14:22:22.460,-45.6252,-124.438
14:22:22.468,-46.5002,-128.0005
14:22:22.478,-46.5627,-132.813
14:22:22.488,-47.2189,-136.0005
14:22:22.498,-48.4377,-139.688
14:22:22.509,-49.1877,-143.5005
14:22:22.518,-49.7189,-146.8131
14:22:22.528,-50.2814,-150.6881
14:22:22.539,-50.1564,-153.1881
14:22:22.551,-50.7189,-155.7506
14:22:22.558,-51.8127,-158.2506
14:22:22.568,-51.9377,-161.4381
14:22:22.579,-52.0939,-162.8131
14:22:22.588,-52.2502,-165.8756
14:22:22.599,-51.5314,-167.3756
14:22:22.608,-52.6252,-167.8756
14:22:22.620,-52.5627,-170.3131
14:22:22.628,-51.8752,-171.6257
14:22:22.638,-52.6877,-173.5007
14:22:22.648,-52.8127,-175.6882
14:22:22.659,-52.2189,-176.1882
14:22:22.670,-52.4064,-177.3132
14:22:22.678,-51.5002,-177.8132
14:22:22.688,-52.0627,-178.5007
14:22:22.698,-51.7814,-180.4382
14:22:22.715,-50.7814,-180.5007
14:22:22.736,-51.6564,-181.1882
14:22:22.739,-50.0002,-179.1257
14:22:22.741,-48.1564,-169.5006
14:22:22.748,-41.1252,-148.5631
14:22:22.758,-27.3751,-107.5004
14:22:22.768,-13.2813,-61.6877
14:22:22.779,-2.7813,-26.6876
14:22:22.789,3.9063,0.875
14:22:22.800,10.3125,20.5626
14:22:22.809,15.1876,40.0002
14:22:22.818,18.8751,55.6252
14:22:22.828,21.4688,66.9378
14:22:22.846,22.7501,75.5003
14:22:22.849,24.3751,82.6253
14:22:22.890,25.6876,89.3753
14:22:22.892,26.5626,94.0629
14:22:22.920,28.0939,99.0629
14:22:22.920,29.2814,102.0004
14:22:22.921,30.1876,106.8129
14:22:22.923,30.7501,109.5004
14:22:22.948,31.3751,110.5629
14:22:22.950,32.4064,113.0004
14:22:22.952,32.1251,113.1879
14:22:22.958,32.8751,112.3754
14:22:22.972,31.7189,110.2504
14:22:22.974,30.9376,107.3754
14:22:23.012,28.8751,102.1879
14:22:23.015,27.7501,96.3754
14:22:23.015,26.0626,89.5003
14:22:23.020,23.5938,82.2503
14:22:23.024,22.9063,77.1253
14:22:23.034,20.9376,72.6253
14:22:23.044,20.3438,66.9378
14:22:23.054,18.9688,62.6877
14:22:23.063,18.0001,59.6877
14:22:23.073,17.4376,56.0627
14:22:23.084,16.6876,53.8752
14:22:23.093,16.3126,50.5627
14:22:23.103,15.9376,49.1252
14:22:23.113,15.0001,45.4377
14:22:23.123,13.9688,42.5627
14:22:23.133,12.7813,38.9376
14:22:23.144,11.3438,34.2501
14:22:23.155,10.4375,29.4376
14:22:23.165,8.1563,25.0626
14:22:23.173,6.25,19.0626
14:22:23.183,5.375,13.6876
14:22:23.193,3.1563,8.375
14:22:23.204,1.6563,3.3125
14:22:23.213,-0.2188,-3.4375
14:22:23.224,-0.7813,-7.1875
14:22:23.233,-2.2813,-13.5001
14:22:23.243,-4.5625,-18.4376
14:22:23.253,-5.4375,-23.8751
14:22:23.263,-7.7813,-29.1876
14:22:23.273,-8.75,-34.6876
14:22:23.283,-10.125,-39.7502
14:22:23.293,-12.2188,-44.9377
14:22:23.304,-13.3751,-51.3752
14:22:23.315,-15.6251,-55.3752
14:22:23.324,-16.5313,-61.1252
14:22:23.333,-17.8751,-66.1878
14:22:23.344,-18.1563,-69.6878
14:22:23.353,-19.8438,-74.0003
14:22:23.363,-21.6251,-78.5003
14:22:23.374,-22.1563,-82.8128
14:22:23.400,-23.9688,-87.3753
14:22:23.402,-24.8126,-91.5629
14:22:23.404,-25.6876,-95.1254
14:22:23.413,-27.3439,-100.5629
14:22:23.423,-28.0626,-103.0629
14:22:23.433,-29.0626,-107.6879
14:22:23.444,-29.2501,-110.7504
14:22:23.453,-30.7501,-112.8129
14:22:23.464,-31.0626,-117.6255
14:22:23.476,-32.2814,-119.1255
14:22:23.489,-32.2501,-123.313
14:22:23.493,-33.4689,-124.7505
14:22:23.503,-33.6564,-129.188
14:22:23.513,-35.3126,-130.8755
14:22:23.523,-34.9689,-134.2505
14:22:23.535,-36.3751,-136.1255
14:22:23.543,-36.4689,-140.188
14:22:23.553,-37.3751,-141.2505
14:22:23.565,-37.5939,-144.5005
14:22:23.601,-37.0001,-142.6255
14:22:23.604,-33.8439,-133.7505
14:22:23.606,-25.7813,-110.3754
14:22:23.608,-13.3126,-72.8128
14:22:23.639,-1.1875,-33.0626
14:22:23.640,6.8438,-3.25
14:22:23.643,14.0626,20.0001
14:22:23.644,19.0626,41.1877
14:22:23.673,23.8751,60.1877
14:22:23.676,26.9064,74.4378
14:22:23.679,30.4064,85.1878
14:22:23.685,31.1251,94.4379
14:22:23.716,32.8126,101.0004
14:22:23.719,34.0939,107.2504
14:22:23.722,34.9376,110.9379
14:22:23.727,36.0314,115.8129
14:22:23.746,36.5939,118.8755
14:22:23.750,38.1876,122.063
14:22:23.753,37.3126,124.438
14:22:23.763,38.0314,125.063
14:22:23.774,38.3439,126.188
14:22:23.786,37.8439,125.7505
14:22:23.795,38.0626,124.5005
14:22:23.803,36.1876,121.2505
14:22:23.813,35.0626,116.6254
14:22:23.823,32.7501,111.5629
14:22:23.835,30.0314,104.5629
14:22:23.843,28.7814,96.6879
14:22:23.853,26.3751,90.0004
14:22:23.865,24.3438,84.1253
14:22:23.873,22.5313,76.6878
14:22:23.884,21.3438,71.0003
14:22:23.894,20.0313,66.0628
14:22:23.904,18.3751,61.8752
14:22:23.913,18.2813,58.1877
14:22:23.924,16.3126,54.7502
14:22:23.933,15.7813,52.3752
14:22:23.945,14.4688,48.8127
14:22:23.953,13.8438,45.4377
14:22:23.963,12.375,41.8127
14:22:23.973,11.5313,37.7501
14:22:23.983,9.6563,34.1876
14:22:23.993,8.1563,28.5001
14:22:24.009,7.4688,22.8126
14:22:24.026,5.2188,18.6876
14:22:24.029,3.7188,12.0625
14:22:24.034,1.375,6.9375
14:22:24.043,0.5938,1.25
14:22:24.054,-1.125,-4.25
14:22:24.063,-2.5625,-9.25
14:22:24.075,-3.8125,-15.1251
14:22:24.083,-5.8125,-20.3126
14:22:24.095,-6.5313,-26.6251
14:22:24.104,-9.1875,-32.1876
14:22:24.114,-10.4688,-37.1876
14:22:24.125,-11.9063,-42.1877
14:22:24.142,-13.9688,-46.9377
14:22:24.144,-15.1876,-53.0002
14:22:24.160,-16.4688,-58.5002
14:22:24.164,-17.6563,-63.3127
14:22:24.175,-18.1251,-67.8753
14:22:24.183,-20.3126,-72.1878
14:22:24.194,-21.6876,-76.7503
14:22:24.204,-22.2501,-83.0003
14:22:24.213,-24.1563,-86.2503
14:22:24.224,-25.0313,-91.7504
14:22:24.239,-25.3438,-94.5629
14:22:24.244,-26.6876,-99.8754
14:22:24.253,-27.1876,-103.5004
14:22:24.263,-27.7814,-106.4379
14:22:24.274,-28.6876,-111.1254
14:22:24.284,-29.2814,-114.6254
14:22:24.293,-30.5939,-117.6879
14:22:24.303,-31.4376,-121.938
14:22:24.313,-32.2501,-126.313
14:22:24.344,-33.0001,-129.2505
14:22:24.347,-33.9376,-132.7505
14:22:24.351,-33.8751,-135.0005
14:22:24.355,-34.8126,-136.563
14:22:24.381,-35.3751,-139.813
14:22:24.382,-35.2189,-141.188
14:22:24.385,-36.2189,-142.6255
14:22:24.411,-35.5939,-144.2505
14:22:24.413,-36.9689,-145.813
14:22:24.416,-37.2501,-148.5631
14:22:24.446,-37.0939,-148.9381
14:22:24.447,-37.7814,-148.8131
14:22:24.450,-37.4689,-152.0006
14:22:24.455,-37.6876,-151.6256
14:22:24.484,-37.7814,-153.0631
14:22:24.486,-38.0939,-152.9381
14:22:24.488,-37.3126,-154.6881
14:22:24.494,-36.8126,-152.0631
14:22:24.507,-36.1251,-150.3131
14:22:24.513,-32.7814,-141.1255
14:22:24.524,-26.1563,-118.688
14:22:24.533,-12.75,-78.6253
14:22:24.543,2.125,-30.2501
14:22:24.554,13.8126,6.5625
14:22:24.563,20.8126,35.1251
14:22:24.574,25.6251,55.4377
14:22:24.583,30.8439,75.0003
14:22:24.593,34.2189,90.2503
14:22:24.603,37.1876,103.1254
14:22:24.614,38.6564,113.0629
14:22:24.627,39.6877,119.688
14:22:24.633,41.3127,126.8755
14:22:24.643,42.6564,131.2505
14:22:24.653,44.2814,135.438
14:22:24.680,43.1564,138.438
14:22:24.682,43.9377,140.813
14:22:24.684,44.4064,142.7505
14:22:24.693,45.5002,144.063
14:22:24.703,44.2189,145.6255
14:22:24.713,44.2189,144.813
14:22:24.724,43.0627,143.3755
14:22:24.733,42.1877,141.1255
14:22:24.743,41.4689,138.313
14:22:24.755,39.5002,133.313
14:22:24.763,37.7501,126.813
14:22:24.774,36.1876,120.688
14:22:24.785,35.2189,115.2504
14:22:24.793,33.5626,108.9379
14:22:24.803,31.8126,103.0629
14:22:24.813,30.3751,97.1879
14:22:24.824,28.2189,92.0004
14:22:24.836,26.7189,87.4378
14:22:24.843,25.7188,83.6878
14:22:24.853,24.8438,80.6253
14:22:24.864,24.4063,77.6878
14:22:24.875,23.5313,74.3128
14:22:24.883,22.9063,71.4378
14:22:24.894,21.7501,68.1878
14:22:24.903,19.7813,64.1877
14:22:24.913,17.5938,60.0627
14:22:24.924,16.5001,53.8752
14:22:24.933,14.4688,49.6877
14:22:24.943,13.0625,44.4377
14:22:24.954,10.9375,39.7502
14:22:24.964,10.5,33.8126
14:22:24.974,7.8438,28.5626
14:22:24.983,6.7188,21.8751
14:22:25.014,4.2188,16.7501
14:22:25.016,2.5,10.5625
14:22:25.018,0.2813,4.375
14:22:25.025,-1.1875,0.1875
14:22:25.050,-2.7188,-5.625
14:22:25.052,-3.0625,-9.75
14:22:25.054,-4.7188,-15.2501
14:22:25.082,-6.0938,-21.3126
14:22:25.086,-7.7188,-26.3126
14:22:25.089,-10.3125,-31.2501
14:22:25.096,-11.5313,-35.8126
14:22:25.124,-12.2188,-41.8752
14:22:25.126,-14.2501,-46.1877
14:22:25.128,-15.3126,-50.7502
14:22:25.157,-16.4688,-55.3127
14:22:25.159,-17.2188,-59.1252
14:22:25.161,-18.7188,-63.3752
14:22:25.168,-20.1563,-67.4378
14:22:25.173,-20.1876,-70.3128
14:22:25.185,-21.9063,-73.8128
14:22:25.194,-22.5001,-77.0628
14:22:25.203,-24.2188,-80.0003
14:22:25.214,-24.6251,-83.9378
14:22:25.223,-25.1251,-86.6878
14:22:25.235,-26.5001,-87.9378
14:22:25.243,-26.8751,-92.3129
14:22:25.253,-26.8751,-95.0004
14:22:25.264,-27.8126,-96.7504
14:22:25.275,-28.5314,-101.6254
14:22:25.287,-29.2501,-103.6879
14:22:25.305,-30.4376,-105.5629
14:22:25.321,-30.2501,-110.0629
14:22:25.323,-30.7189,-112.7504
14:22:25.329,-31.3439,-115.9379
14:22:25.339,-31.4689,-119.313
14:22:25.349,-32.9064,-122.3755
14:22:25.360,-32.2501,-125.438
14:22:25.368,-32.2814,-127.8755
14:22:25.379,-33.3751,-129.813
14:22:25.391,-33.6564,-133.8755
14:22:25.399,-34.5939,-134.8755
14:22:25.410,-34.7814,-139.063
14:22:25.418,-35.0314,-140.2505
14:22:25.438,-35.5314,-143.688
14:22:25.441,-36.0939,-144.438
14:22:25.457,-36.6876,-146.813
14:22:25.459,-36.3439,-148.0631
14:22:25.470,-37.0001,-147.8131
14:22:25.479,-34.4689,-141.0005
14:22:25.488,-29.2501,-122.563
14:22:25.499,-16.8126,-84.0628
14:22:25.512,-1.25,-34.5001
14:22:25.519,8.8438,0.4375
14:22:25.529,14.9688,25.9376
14:22:25.539,20.0001,45.8752
14:22:25.551,24.5626,62.5627
14:22:25.560,28.2501,79.2503
14:22:25.569,31.2814,89.6253
14:22:25.579,33.2814,99.2504
14:22:25.589,34.7189,106.6254
14:22:25.602,36.1876,112.1879
14:22:25.610,36.5314,116.8754
14:22:25.618,37.5939,120.6255
14:22:25.629,37.5001,124.5005
14:22:25.641,38.1564,124.688
14:22:25.650,38.0939,127.1255
14:22:25.659,38.4064,128.813
14:22:25.669,38.9689,127.563
14:22:25.679,37.7189,127.1255
14:22:25.691,37.7189,124.438
14:22:25.698,35.6564,121.813
14:22:25.709,35.0314,117.0629
14:22:25.720,33.0314,110.5004
14:22:25.731,31.5939,105.3754
14:22:25.741,30.0001,97.9379
14:22:25.749,28.4689,92.6254
14:22:25.758,27.2501,85.8753
14:22:25.770,25.5001,80.9378
14:22:25.779,24.7188,75.8128
14:22:25.790,22.9063,71.9378
14:22:25.802,22.3751,67.8753
14:22:25.809,21.0001,65.4378
14:22:25.845,20.6876,61.2502
14:22:25.847,19.1876,58.4377
14:22:25.849,18.4688,56.3127
14:22:25.854,17.8751,51.4377
14:22:25.883,16.3438,48.8127
14:22:25.886,15.6251,43.8127
14:22:25.888,13.5001,40.8752
14:22:25.892,12.6563,35.3126
14:22:25.900,10.9375,30.4376
14:22:25.928,9.9688,24.8126
14:22:25.931,8.75,20.0001
14:22:25.933,6.2813,14.6251
14:22:25.960,5,10
14:22:25.962,2.9375,4.625
14:22:25.964,1.4688,-0.375
14:22:25.971,-0.3438,-7.3125
14:22:25.992,-2.4063,-12.4375
14:22:25.994,-3.4375,-17.4376
14:22:26.001,-5.0938,-22.7501
14:22:26.012,-6.5313,-28.0001
14:22:26.019,-7.9688,-33.7501
14:22:26.030,-9.125,-37.9376
14:22:26.040,-10.0313,-43.1252
14:22:26.050,-12.5625,-47.8752
14:22:26.060,-14.0001,-52.8752
14:22:26.069,-14.7501,-58.6877
14:22:26.080,-17.0938,-61.3752
14:22:26.091,-17.5313,-67.0628
14:22:26.100,-18.8438,-70.6253
14:22:26.109,-20.0001,-75.6878
14:22:26.120,-21.6563,-79.5628
14:22:26.132,-22.8438,-85.1253
14:22:26.140,-23.4376,-88.5003
14:22:26.149,-25.6876,-92.6254
14:22:26.160,-26.1563,-96.6254
14:22:26.169,-27.1564,-99.9379
14:22:26.180,-27.9689,-104.6254
14:22:26.191,-28.5314,-107.4379
14:22:26.201,-29.9064,-109.5629
14:22:26.210,-30.3751,-113.2504
14:22:26.220,-30.8439,-116.5629
14:22:26.229,-31.4689,-118.1255
14:22:26.241,-32.0001,-119.063
14:22:26.249,-32.5626,-122.0005
14:22:26.259,-32.5314,-124.6255
14:22:26.270,-33.5939,-127.438
14:22:26.281,-34.1251,-129.5005
14:22:26.289,-33.7501,-131.2505
14:22:26.299,-34.5939,-132.7505
14:22:26.309,-34.6564,-134.1255
14:22:26.323,-34.4689,-135.438
14:22:26.329,-35.0001,-135.5005
14:22:26.340,-33.9064,-131.5005
14:22:26.349,-29.8751,-118.2505
14:22:26.365,-21.0938,-90.3753
14:22:26.370,-6.1875,-46.3127
14:22:26.380,5.25,-4.9375
14:22:26.389,12.9063,21.2501
14:22:26.401,19.0938,41.8127
14:22:26.410,22.0001,58.0002
14:22:26.420,26.1251,72.3753
14:22:26.430,28.9376,85.8753
14:22:26.440,30.6564,93.3129
14:22:26.450,32.0939,100.8129
14:22:26.459,32.6876,105.7504
14:22:26.470,34.0001,109.1879
14:22:26.480,34.0939,112.5004
14:22:26.490,34.5314,113.5629
14:22:26.500,35.5001,116.5629
14:22:26.510,35.1251,116.7504
14:22:26.536,34.6251,115.8754
14:22:26.538,34.1564,114.8754
14:22:26.542,33.6251,114.2504
14:22:26.573,32.4064,109.6879
14:22:26.576,30.5314,105.7504
14:22:26.577,29.2501,98.1879
14:22:26.580,27.1564,92.5629
14:22:26.611,25.6563,86.6253
14:22:26.613,23.3751,79.1878
14:22:26.644,22.5001,74.4378
14:22:26.676,21.3126,68.5003
14:22:26.677,19.7813,63.6877
14:22:26.680,19.0938,59.9377
14:22:26.684,18.0626,56.7502
14:22:26.686,16.8438,54.5002
14:22:26.686,17.2813,50.5627
14:22:26.698,15.7188,49.5002
14:22:26.705,15.4063,47.0627
14:22:26.715,14.0938,43.1252
14:22:26.741,13.5001,41.6252
14:22:26.743,12.625,36.8751
14:22:26.758,11.6875,33.3751
14:22:26.760,10.8125,29.4376
14:22:26.776,9.2188,25.6251
14:22:26.778,7.9375,21.0626
14:22:26.784,6.375,16.1876
14:22:26.795,4.5,11.75
14:22:26.808,3.1563,6.9375
14:22:26.814,1.625,1.125
14:22:26.824,0.4688,-4.125
14:22:26.835,-1.6563,-9.375
14:22:26.849,-3,-14.8751
14:22:26.861,-7.625,-27.6251
14:22:26.870,-8.7813,-33.3126
14:22:26.880,-10.5938,-38.5626
14:22:26.889,-11.5313,-42.9377
14:22:26.901,-13.3126,-47.3752
14:22:26.909,-14.2501,-51.7502
14:22:26.920,-16.2501,-57.0002
14:22:26.929,-17.3438,-61.3127
14:22:26.940,-18.3438,-66.3753
14:22:26.949,-19.8751,-71.2503
14:22:26.960,-20.6251,-75.4378
14:22:26.969,-21.8126,-79.5628
14:22:26.981,-22.8751,-82.5003
14:22:26.989,-24.4376,-87.2503
14:22:27.000,-24.1563,-90.6879
14:22:27.010,-26.0626,-96.0629
14:22:27.020,-27.6251,-100.4379
14:22:27.030,-28.3439,-104.8754
14:22:27.040,-29.6876,-107.5004
14:22:27.051,-29.8751,-111.3754
14:22:27.060,-31.1564,-112.3754
14:22:27.070,-31.4376,-116.8754
14:22:27.080,-32.7814,-118.438
14:22:27.089,-33.3751,-122.188
14:22:27.100,-32.7814,-124.0005
14:22:27.115,-33.1251,-124.688
14:22:27.120,-33.5001,-127.063
14:22:27.129,-33.6564,-128.1255
14:22:27.140,-33.8126,-126.8755
14:22:27.149,-32.0939,-122.063
14:22:27.160,-25.9688,-102.7504
14:22:27.169,-13.5938,-63.7502
14:22:27.181,0.5313,-18.4376
14:22:27.203,9.5,14.3751
14:22:27.208,16.4063,37.8751
14:22:27.216,21.7501,58.8752
14:22:27.240,25.9376,74.8753
14:22:27.242,29.2814,90.3128
14:22:27.244,31.0939,100.4379
14:22:27.249,33.7501,110.1879
14:22:27.281,34.9376,117.7504
14:22:27.284,36.4064,123.813
14:22:27.286,37.0314,128.813
14:22:27.291,37.6564,131.8755
14:22:27.318,39.4064,135.188
14:22:27.320,39.4377,137.438
14:22:27.322,40.0314,139.313
14:22:27.357,39.5002,139.7505
14:22:27.360,39.3439,139.2505
14:22:27.362,39.0939,138.6255
14:22:27.367,38.1564,135.6255
14:22:27.370,36.8751,132.0005
14:22:27.380,35.5001,126.6255
14:22:27.389,32.9376,121.188
14:22:27.399,30.9689,114.4379
14:22:27.410,30.0314,108.5004
14:22:27.422,28.0001,103.5629
14:22:27.430,26.7501,97.0004
14:22:27.440,25.5626,91.5629
14:22:27.450,23.7501,87.3128
14:22:27.460,23.3438,83.6253
14:22:27.469,22.3438,80.2503
14:22:27.480,21.3751,77.3128
14:22:27.492,20.6251,74.0003
14:22:27.500,19.6251,70.9378
14:22:27.510,19.0313,68.5003
14:22:27.520,18.0001,65.0002
14:22:27.529,16.8751,62.1252
14:22:27.539,15.5626,58.0627
14:22:27.551,14.2813,52.8752
14:22:27.560,12.7813,49.1877
14:22:27.569,11.5938,43.8127
14:22:27.580,9.9063,39.4377
14:22:27.589,8.8125,34.1251
14:22:27.600,6.7813,29.0001
14:22:27.610,5.9063,24.3126
14:22:27.621,4.3438,17.7501
14:22:27.630,3.1563,13.0625
14:22:27.640,1.6875,7.875
14:22:27.650,-0.1875,2.6875
14:22:27.661,-2.0313,-1.4375
14:22:27.669,-3.3125,-7.625
14:22:27.679,-4.7188,-12.75
14:22:27.691,-5.875,-17.5626
14:22:27.700,-6.9375,-22.7501
14:22:27.709,-8.5,-26.2501
14:22:27.720,-10.125,-31.3126
14:22:27.731,-10.9688,-36.8126
14:22:27.740,-13.1563,-41.0002
14:22:27.749,-13.6876,-46.3752
14:22:27.762,-15.4688,-50.3127
14:22:27.769,-15.8438,-54.4377
14:22:27.780,-16.7501,-58.5002
14:22:27.791,-18.7813,-62.0627
14:22:27.800,-19.6251,-65.7503
14:22:27.809,-20.2813,-69.6878
14:22:27.820,-21.6251,-72.8753
14:22:27.830,-22.1876,-77.3753
14:22:27.840,-22.0313,-81.0003
14:22:27.850,-24.7813,-84.6878
14:22:27.865,-25.2813,-88.1253
14:22:27.870,-26.3438,-92.0004
14:22:27.880,-26.5939,-94.7504
14:22:27.890,-27.9376,-97.6879
14:22:27.899,-28.6876,-101.3754
14:22:27.910,-28.8126,-104.1879
14:22:27.919,-29.4689,-107.3129
14:22:27.934,-30.7501,-109.2504
14:22:27.943,-30.9064,-112.4379
14:22:27.949,-31.7501,-115.0004
14:22:27.964,-31.6876,-116.3754
14:22:27.974,-32.6564,-119.6255
14:22:27.981,-33.8751,-121.688
14:22:28.009,-33.5001,-123.7505
14:22:28.013,-34.5626,-125.5005
14:22:28.015,-34.2501,-127.3755
14:22:28.021,-35.4689,-127.6255
14:22:28.048,-34.6251,-128.0005
14:22:28.083,-32.2189,-119.438
14:22:28.112,-23.7188,-96.1879
14:22:28.164,-10,-49.6877
14:22:28.167,2.6563,-8.8125
14:22:28.167,10.5625,20.8751
14:22:28.167,16.4376,43.5627
14:22:28.168,21.8751,63.5002
14:22:28.171,25.4063,81.7503
14:22:28.176,28.6876,95.0629
14:22:28.176,30.6876,107.0004
14:22:28.176,32.6876,115.6879
14:22:28.188,33.8126,122.8755
14:22:28.194,35.3751,129.438
14:22:28.204,36.8439,134.7505
14:22:28.216,37.9689,139.0005
14:22:28.225,38.7189,142.6255
14:22:28.241,39.2502,145.563
14:22:28.246,39.6252,147.2506
14:22:28.255,40.2814,148.0631
14:22:28.265,39.9377,149.5006
14:22:28.275,38.9376,148.1256
14:22:28.285,39.0939,145.688
14:22:28.295,35.1876,134.188
14:22:28.304,32.9376,127.938
14:22:28.316,31.4376,122.313
14:22:28.325,29.6876,115.4379
14:22:28.335,28.4064,109.8129
14:22:28.345,26.1876,103.2504
14:22:28.355,24.6563,98.8754
14:22:28.364,23.9688,96.0629
14:22:28.374,23.1876,92.5004
14:22:28.386,21.9688,89.5003
14:22:28.395,21.0313,86.5628
14:22:28.407,20.6251,82.5003
14:22:28.414,19.2501,79.1878
14:22:28.425,17.2501,75.6253
14:22:28.435,16.3126,70.8753
14:22:28.445,14.6563,65.4377
14:22:28.455,13.0938,61.2502
14:22:28.465,11.5625,56.1252
14:22:28.475,10.3125,50.1877
14:22:28.486,8.9063,44.6252
14:22:28.495,7,38.8126
14:22:28.522,5.3125,34.4376
14:22:28.523,3.875,28.6251
14:22:28.526,2.4688,23.7501
14:22:28.534,0.75,17.6876
14:22:28.545,-0.625,12.9375
14:22:28.557,-2.5625,7
14:22:28.565,-4.1875,2.5
14:22:28.575,-5.1875,-3.75
14:22:28.586,-6.1563,-8.5
14:22:28.594,-7.8125,-14.0001
14:22:28.606,-8.8125,-19.0626
14:22:28.614,-10.7188,-23.8751
14:22:28.627,-12.4688,-29.6251
14:22:28.635,-13.6251,-34.6251
14:22:28.645,-14.9063,-39.9377
14:22:28.657,-16.2188,-43.6252
14:22:28.667,-18.1251,-49.5627
14:22:28.698,-18.7501,-54.3127
14:22:28.701,-19.8438,-58.3752
14:22:28.704,-20.6563,-62.8752
14:22:28.706,-21.8751,-66.3753
14:22:28.737,-23.0313,-70.8753
14:22:28.740,-24.1876,-75.6253
14:22:28.742,-25.4063,-80.3753
14:22:28.746,-26.2814,-84.0003
14:22:28.774,-27.4376,-87.5003
14:22:28.776,-27.8751,-91.2504
14:22:28.778,-29.6251,-94.1254
14:22:28.804,-29.9064,-99.0004
14:22:28.808,-30.5314,-102.5629
14:22:28.808,-31.5001,-104.3754
14:22:28.814,-32.1876,-108.8129
14:22:28.831,-32.3439,-110.4379
14:22:28.841,-33.5314,-114.3129
14:22:28.846,-33.4376,-116.0629
14:22:28.855,-34.1251,-118.7505
14:22:28.868,-34.3439,-121.1255
14:22:28.875,-35.2814,-122.813
14:22:28.885,-35.6876,-125.8755
14:22:28.895,-35.1876,-127.7505
14:22:28.905,-36.0939,-129.063
14:22:28.916,-36.5626,-131.438
14:22:28.926,-36.3751,-131.8755
14:22:28.936,-36.8439,-134.938
14:22:28.946,-37.3751,-136.313
14:22:28.954,-36.5939,-137.6255
14:22:28.966,-37.8126,-139.313
14:22:28.974,-37.6251,-140.8755
14:22:28.989,-37.7501,-141.813
14:22:28.996,-38.1251,-143.313
14:22:29.006,-37.5001,-142.2505
14:22:29.016,-35.0626,-134.7505
14:22:29.025,-29.5626,-115.1254
14:22:29.036,-16.5001,-74.6253
14:22:29.045,-1.8125,-25.3126
14:22:29.056,7.1875,8.125
14:22:29.065,13.5001,33.2501
14:22:29.076,18.9063,53.6252
14:22:29.085,23.3126,70.5628
14:22:29.095,26.4376,87.6878
14:22:29.105,28.9376,98.5004
14:22:29.115,31.0626,107.6254
14:22:29.127,32.0314,115.0004
14:22:29.135,33.4064,120.3755
14:22:29.146,34.6564,125.938
14:22:29.155,34.6251,130.0005
14:22:29.165,35.3126,132.7505
14:22:29.175,36.1876,134.688
14:22:29.186,36.0939,137.188
14:22:29.195,36.1876,136.7505
14:22:29.207,36.2814,137.2505
14:22:29.215,35.3439,137.0005
14:22:29.226,34.8439,134.1255
14:22:29.235,33.2189,130.063
14:22:29.253,31.5939,124.938
14:22:29.267,29.8751,118.8755
14:22:29.270,28.5939,112.7504
14:22:29.278,26.6876,106.9379
14:22:29.285,24.8751,101.1254
14:22:29.297,23.8438,95.3129
14:22:29.304,22.4063,91.0629
14:22:29.317,21.7813,87.0628
14:22:29.324,20.8751,83.7503
14:22:29.336,20.0313,80.5003
14:22:29.348,19.0001,78.0628
14:22:29.356,18.6563,76.3128
14:22:29.371,17.5313,73.7503
14:22:29.381,17.0938,71.0628
14:22:29.392,15.4063,67.1253
14:22:29.401,15.4688,64.4377
14:22:29.423,13.2501,61.1877
14:22:29.457,11.5938,57.3752
14:22:29.484,11.5,51.9377
14:22:29.515,9.6875,47.9377
14:22:29.547,8.1563,43.5627
14:22:29.547,7.0313,38.0626
14:22:29.547,5.6563,33.6876
14:22:29.548,4.5313,28.7501
14:22:29.550,2.9063,23.7501
14:22:29.556,0.9688,18.0626
14:22:29.557,-0.1563,13
14:22:29.557,-1.4375,8.5
14:22:29.571,-3.2813,1.3125
14:22:29.576,-4.7813,-5.0625
14:22:29.588,-6.5,-8.5625
14:22:29.596,-6.7188,-13.0625
14:22:29.606,-7.8125,-18.3126
14:22:29.616,-8.6875,-23.2501
14:22:29.626,-10.5625,-27.5001
14:22:29.636,-12.3125,-32.6251
14:22:29.644,-12.9375,-36.0626
14:22:29.656,-14.0938,-40.2502
14:22:29.669,-15.3126,-44.7502
14:22:29.676,-18.8751,-55.4377
14:22:29.686,-19.0001,-59.8127
14:22:29.696,-19.6251,-63.8127
14:22:29.704,-21.1563,-67.2503
14:22:29.720,-22.2813,-71.1253
14:22:29.726,-25.6251,-83.1878
14:22:29.737,-26.1251,-86.6878
14:22:29.747,-26.8439,-89.3753
14:22:29.756,-28.6564,-92.8754
14:22:29.766,-29.0314,-97.6254
14:22:29.776,-28.8751,-99.9379
14:22:29.801,-30.8126,-103.0004
14:22:29.805,-31.3439,-106.0004
14:22:29.806,-31.8751,-108.0004
14:22:29.818,-32.6564,-111.9379
14:22:29.825,-32.2814,-113.1879
14:22:29.836,-33.9376,-115.0004
14:22:29.846,-34.4376,-119.0005
14:22:29.856,-34.7814,-120.313
14:22:29.866,-35.2189,-121.813
14:22:29.876,-35.6876,-124.938
14:22:29.886,-36.0626,-126.563
14:22:29.896,-36.7814,-127.3755
14:22:29.906,-37.1251,-130.813
14:22:29.916,-36.6876,-132.1255
14:22:29.926,-37.1876,-133.063
14:22:29.937,-36.6251,-133.063
14:22:29.946,-35.4376,-127.813
14:22:29.956,-30.2189,-111.2504
14:22:29.966,-17.5626,-73.8753
14:22:29.976,-4.8438,-29.1251
14:22:29.986,4,1.1875
14:22:29.996,10.25,24.6251
14:22:30.006,15.0001,46.1877
14:22:30.016,19.7188,63.0002
14:22:30.026,23.4376,79.2503
14:22:30.036,25.3751,90.5628
14:22:30.046,27.2501,99.8754
14:22:30.056,27.9064,107.8129
14:22:30.066,29.4689,113.3129
14:22:30.076,30.9064,117.6879
14:22:30.086,30.9064,121.438
14:22:30.096,31.5626,122.1255
14:22:30.106,32.1564,125.2505
14:22:30.128,31.5939,126.8755
14:22:30.130,31.7189,126.813
14:22:30.150,32.3439,126.2505
14:22:30.151,31.9064,125.5005
14:22:30.178,30.5939,123.188
14:22:30.180,29.3439,119.5005
14:22:30.184,28.8439,114.8129
14:22:30.187,26.2501,108.9379
14:22:30.217,25.5313,103.2504
14:22:30.220,23.2188,97.8129
14:22:30.222,21.7501,92.6254
14:22:30.257,20.5938,87.2503
14:22:30.259,19.7813,83.3128
14:22:30.261,18.4688,79.8128
14:22:30.266,17.6563,77.4378
14:22:30.267,17.0938,74.5628
14:22:30.297,16.9688,72.1878
14:22:30.299,16.5938,71.0628
14:22:30.302,15.8438,67.9378
14:22:30.306,14.4376,65.9378
14:22:30.318,13.7501,63.1877
14:22:30.326,12.5938,59.0002
14:22:30.336,11.125,55.7502
14:22:30.348,10.2813,51.0627
14:22:30.356,8.7188,46.9377
14:22:30.366,7.4375,42.5002
14:22:30.378,6.2813,37.5001
14:22:30.386,5.125,33.6876
14:22:30.395,3.9375,28.3126
14:22:30.406,2.375,24.8751
14:22:30.416,0.5625,19.3751
14:22:30.426,-0.2188,14.4376
14:22:30.438,-1.7813,8.625
14:22:30.446,-3.25,4.6875
14:22:30.456,-4.4375,-0.375
14:22:30.468,-5.9688,-5.5
14:22:30.476,-6.6875,-9.6875
14:22:30.491,-7.8125,-13.8126
14:22:30.496,-9.0313,-18.1251
14:22:30.506,-10.5313,-22.8751
14:22:30.516,-11.75,-26.6251
14:22:30.526,-13.2188,-31.6251
14:22:30.536,-13.7813,-35.4376
14:22:30.554,-14.9688,-40.8752
14:22:30.562,-16.7501,-44.8127
14:22:30.569,-17.7813,-49.3752
14:22:30.579,-18.7188,-53.3127
14:22:30.593,-19.6251,-56.3127
14:22:30.595,-20.9063,-61.1252
14:22:30.611,-21.3751,-63.6252
14:22:30.617,-22.2501,-67.6878
14:22:30.626,-22.5001,-69.9378
14:22:30.636,-23.9376,-72.3128
14:22:30.646,-24.4063,-76.6878
14:22:30.656,-25.0938,-79.5628
14:22:30.666,-26.4376,-82.7503
14:22:30.676,-27.5314,-86.6253
14:22:30.687,-27.6876,-88.7503
14:22:30.696,-28.8126,-93.5004
14:22:30.706,-28.9064,-94.6254
14:22:30.718,-30.0314,-98.2504
14:22:30.726,-30.0626,-99.7504
14:22:30.736,-30.6564,-102.5629
14:22:30.746,-31.0939,-105.6254
14:22:30.756,-31.7189,-108.1254
14:22:30.766,-32.1251,-109.5629
14:22:30.776,-32.7501,-112.6879
14:22:30.789,-32.5314,-113.9379
14:22:30.805,-33.9689,-115.4379
14:22:30.807,-34.1564,-118.8755
14:22:30.822,-33.8751,-120.2505
14:22:30.837,-35.5001,-122.563
14:22:30.840,-35.0001,-124.688
14:22:30.849,-36.4376,-126.3755
14:22:30.856,-36.0314,-128.188
14:22:30.866,-36.3126,-128.938
14:22:30.877,-36.2814,-126.063
14:22:30.898,-32.8439,-118.063
14:22:30.900,-24.3438,-89.4378
14:22:30.940,-10.5625,-46.5627
14:22:30.941,0.1875,-9
14:22:30.944,7.7188,19.3126
14:22:30.947,13.7813,41.6877
14:22:30.951,19.1563,63.6252
14:22:30.986,22.9063,82.1253
14:22:30.988,26.4689,97.1254
14:22:30.991,28.4376,110.3754
14:22:30.995,31.6564,120.063
14:22:30.998,32.5626,128.688
14:22:31.012,34.8751,135.8755
14:22:31.017,35.2814,142.563
14:22:31.041,37.1876,147.1255
14:22:31.043,38.2814,152.6256
14:22:31.045,38.4689,155.6881
14:22:31.081,39.7502,158.6256
14:22:31.083,39.3439,160.6256
14:22:31.086,40.3127,162.7506
14:22:31.088,39.8752,163.5006
14:22:31.096,38.9689,162.0006
14:22:31.106,38.8751,159.3131
