timestamp,Red,IR
12:44:09.825,-1,-6.25
12:44:09.834,-1.375,-9.25
12:44:09.845,-2.625,-12.375
12:44:09.854,-3.125,-17.4376
12:44:09.864,-4.8125,-22.3751
12:44:09.874,-6.8125,-26.0626
12:44:09.885,-7.125,-30.8126
12:44:09.894,-8.375,-35.1251
12:44:09.905,-10,-38.4376
12:44:09.914,-10.6875,-40.6252
12:44:09.924,-12,-41.5002
12:44:09.934,-12.125,-43.0627
12:44:09.944,-12.6875,-44.6252
12:44:09.954,-13.1876,-43.9377
12:44:09.964,-13.5001,-44.1877
12:44:09.974,-13.1251,-42.6877
12:44:09.984,-12.5,-42.7502
12:44:09.994,-12.4375,-40.9377
12:44:10.005,-12.5625,-41.0002
12:44:10.015,-12.6875,-40.1252
12:44:10.024,-13.5626,-40.3752
12:44:10.034,-13.2501,-39.6877
12:44:10.044,-13.6251,-40.6252
12:44:10.054,-14.1251,-41.9377
12:44:10.064,-14.1876,-42.5627
12:44:10.074,-14.8751,-43.2502
12:44:10.084,-15.3751,-43.6877
12:44:10.095,-15.0626,-45.7502
12:44:10.113,-16.0001,-45.5002
12:44:10.125,-15.3751,-47.1252
12:44:10.128,-15.3126,-47.8127
12:44:10.143,-15.1251,-47.8752
12:44:10.158,-15.1876,-48.9377
12:44:10.161,-15.3126,-50.7502
12:44:10.166,-15.8751,-51.3127
12:44:10.174,-15.6251,-53.1252
12:44:10.184,-15.9376,-55.5002
12:44:10.194,-16.5001,-56.7502
12:44:10.204,-17.5626,-59.8127
12:44:10.214,-17.5001,-60.5627
12:44:10.224,-17.4376,-61.3127
12:44:10.234,-16.0626,-56.6252
12:44:10.244,-13.4376,-50.7502
12:44:10.254,-10.9375,-39.6252
12:44:10.264,-8.125,-31.3751
12:44:10.275,-6.375,-21.3751
12:44:10.284,-4.375,-15.0626
12:44:10.294,-1.8125,-7.8125
12:44:10.304,0,-2.6875
12:44:10.314,1.6875,2.125
12:44:10.325,3.0625,6.0625
12:44:10.334,5.4375,8.3125
12:44:10.346,5.5625,8.4375
12:44:10.372,5,8.375
12:44:10.373,5.1875,6.0625
12:44:10.410,4.3125,4.875
12:44:10.411,3.9375,2.125
12:44:10.413,3.8125,-1.3125
12:44:10.440,2.6875,-4.3125
12:44:10.441,2.625,-6.5625
12:44:10.442,2.1875,-10.625
12:44:10.445,1,-13.3126
12:44:10.449,0.75,-19.1876
12:44:10.454,-0.5,-21.8126
12:44:10.488,-1.3125,-26.1251
12:44:10.491,-2.0625,-27.5626
12:44:10.493,-2.5625,-30.8126
12:44:10.495,-3.4375,-32.7501
12:44:10.528,-4.5,-33.6251
12:44:10.530,-5.0625,-34.6876
12:44:10.531,-4.75,-34.4376
12:44:10.536,-4.6875,-34.6251
12:44:10.545,-5.1875,-32.7501
12:44:10.554,-4.8125,-31.4376
12:44:10.564,-3.6875,-30.0001
12:44:10.575,-4,-29.3126
12:44:10.585,-4.125,-27.8126
12:44:10.594,-3.75,-29.2501
12:44:10.604,-4.1875,-29.3751
12:44:10.614,-4.6875,-29.3751
12:44:10.625,-4.9375,-29.5001
12:44:10.634,-5.125,-31.0001
12:44:10.644,-5.625,-31.0001
12:44:10.655,-5.625,-31.9376
12:44:10.664,-5.5625,-32.3751
12:44:10.674,-5.875,-33.7501
12:44:10.684,-6.375,-35.9376
12:44:10.694,-6.8125,-37.0001
12:44:10.704,-7.75,-39.1877
12:44:10.714,-8.625,-40.8752
12:44:10.724,-9.25,-40.6252
12:44:10.739,-8.75,-43.3127
12:44:10.756,-9.3125,-44.6877
12:44:10.758,-9.6875,-46.8127
12:44:10.774,-10.25,-47.6252
12:44:10.789,-10.3125,-50.1877
12:44:10.792,-10.8125,-51.0627
12:44:10.794,-11.125,-53.2502
12:44:10.804,-10.8125,-49.4377
12:44:10.814,-8.125,-44.8127
12:44:10.824,-6.1875,-35.2501
12:44:10.834,-3.25,-26.9376
12:44:10.844,-2.4375,-18.6251
12:44:10.854,-0.3125,-12.375
12:44:10.864,0.8125,-5.5
12:44:10.874,3,-0.5
12:44:10.884,4.1875,4.8125
12:44:10.894,5.9375,6.6875
12:44:10.904,6.1875,8.1875
12:44:10.913,7.25,9.625
12:44:10.923,7.5625,9.5
12:44:10.934,7.0625,7.9375
12:44:10.944,7,7.4375
12:44:10.956,6.625,5.0625
12:44:10.964,6.5,1.6875
12:44:10.974,6.25,-0.5
12:44:10.991,5.375,-4.5
12:44:10.995,4.625,-8
12:44:11.033,2.6875,-13.2501
12:44:11.036,1.875,-16.6876
12:44:11.038,0.8125,-21.7501
12:44:11.040,0.1875,-24.6251
12:44:11.046,-1,-29.0001
12:44:11.074,-2.1875,-31.9376
12:44:11.077,-2.75,-32.5626
12:44:11.079,-3.3125,-33.8751
12:44:11.105,-4.1875,-35.6876
12:44:11.106,-4.6875,-36.0001
12:44:11.109,-4.125,-35.4376
12:44:11.115,-4.375,-34.3126
12:44:11.125,-3.875,-32.3126
12:44:11.166,-2.875,-31.0001
12:44:11.168,-3.4375,-29.9376
12:44:11.170,-3.125,-29.3126
12:44:11.173,-2.125,-29.1251
12:44:11.177,-2.75,-27.9376
12:44:11.185,-3.0625,-28.9376
12:44:11.194,-3.625,-30.1876
12:44:11.204,-5.125,-31.0626
12:44:11.214,-5.5,-31.9376
12:44:11.224,-6,-33.6876
12:44:11.233,-6.3125,-35.5626
12:44:11.246,-6.625,-35.7501
12:44:11.254,-7.3125,-37.4376
12:44:11.265,-7.75,-37.0626
12:44:11.274,-7.1875,-38.6876
12:44:11.285,-7.9375,-38.9376
12:44:11.297,-8.1875,-42.0002
12:44:11.304,-8.6875,-42.8752
12:44:11.314,-9.4375,-45.4377
12:44:11.324,-10.375,-46.5627
12:44:11.334,-9.6875,-49.3127
12:44:11.345,-11.4375,-50.3752
12:44:11.354,-11.625,-53.3752
12:44:11.365,-12.5,-53.7502
12:44:11.374,-12.25,-55.0002
12:44:11.384,-11.5625,-49.9377
12:44:11.394,-8.4375,-43.4377
12:44:11.404,-7.5625,-33.3751
12:44:11.425,-5.75,-26.4376
12:44:11.428,-3.4375,-17.7501
12:44:11.437,-0.625,-10.5625
12:44:11.444,1.3125,-3.25
12:44:11.459,3.9375,1.5
12:44:11.466,4.625,4.375
12:44:11.474,5.5625,7.75
12:44:11.485,6,7.3125
12:44:11.493,5.8125,7.1875
12:44:11.504,4.5625,5.0625
12:44:11.514,4.125,3.0625
12:44:11.523,3.8125,0.5
12:44:11.534,3.625,0
12:44:11.544,3.3125,-3.5625
12:44:11.574,3.8125,-5.125
12:44:11.577,3,-8.1875
12:44:11.579,2.4375,-12.0625
12:44:11.584,1.5,-15.0626
12:44:11.594,0.625,-20.5001
12:44:11.604,-1.1875,-24.0626
12:44:11.614,-1.625,-27.2501
12:44:11.624,-1.75,-29.8126
12:44:11.634,-2.375,-31.7501
12:44:11.644,-3.25,-31.2501
12:44:11.654,-2.8125,-32.5001
12:44:11.664,-3.5,-33.7501
12:44:11.674,-3.4375,-32.6876
12:44:11.684,-2.9375,-32.2501
12:44:11.694,-3.6875,-32.7501
12:44:11.704,-3.75,-30.5001
12:44:11.714,-3.5625,-30.1876
12:44:11.724,-3.8125,-29.8751
12:44:11.734,-3.375,-27.8126
12:44:11.743,-3.125,-28.3751
12:44:11.755,-3.4375,-27.6251
12:44:11.763,-2.9375,-28.0626
12:44:11.774,-3.0625,-27.7501
12:44:11.784,-3.75,-28.3126
12:44:11.794,-3.5,-28.8126
12:44:11.820,-4.1875,-30.0626
12:44:11.824,-4,-30.7501
12:44:11.824,-5.4375,-32.6876
12:44:11.851,-5.5625,-32.9376
12:44:11.853,-6.5,-35.5626
12:44:11.856,-6.9375,-36.8751
12:44:11.894,-7.5625,-39.3127
12:44:11.894,-8.25,-40.3752
12:44:11.897,-8.125,-41.6252
12:44:11.903,-8.5625,-42.3752
12:44:11.905,-8.125,-44.2502
12:44:11.939,-8.9375,-45.1252
12:44:11.940,-9.125,-47.3127
12:44:11.946,-9.3125,-48.3752
12:44:11.946,-9.8125,-49.7502
12:44:11.981,-9.75,-50.7502
12:44:11.982,-9.5625,-47.6252
12:44:11.984,-6.4375,-39.9377
12:44:11.989,-4.0625,-31.0001
12:44:11.998,-3.375,-22.0001
12:44:12.009,-1.1875,-15.6876
12:44:12.018,0.4375,-8.1875
12:44:12.029,1.8125,-3.125
12:44:12.039,3.5,2.625
12:44:12.048,5,6.25
12:44:12.064,5.75,9.0625
12:44:12.073,6.9375,11.25
12:44:12.079,7.1875,11.1875
12:44:12.097,7.1875,11.5
12:44:12.100,7.75,9.8125
12:44:12.114,7.625,9.6875
12:44:12.120,7.125,6.75
12:44:12.129,6.6875,3.3125
12:44:12.139,6.4375,-0.125
12:44:12.148,5.6875,-3.4375
12:44:12.159,4.6875,-8.625
12:44:12.169,2.9375,-12.3125
12:44:12.178,2.3125,-17.8751
12:44:12.189,0.6875,-22.2501
12:44:12.199,0.125,-25.0626
12:44:12.208,-0.875,-28.5626
12:44:12.220,-1.5625,-30.3751
12:44:12.228,-2.625,-30.2501
12:44:12.240,-2.375,-31.7501
12:44:12.250,-2.75,-33.2501
12:44:12.259,-3.3125,-32.2501
12:44:12.269,-3.6875,-31.4376
12:44:12.279,-2.8125,-31.5626
12:44:12.288,-3.1875,-30.8126
12:44:12.299,-2.8125,-28.3126
12:44:12.309,-3,-28.3751
12:44:12.319,-3.1875,-26.8751
12:44:12.329,-2.75,-26.0626
12:44:12.340,-1.6875,-25.9376
12:44:12.348,-2,-24.3751
12:44:12.360,-2.125,-25.7501
12:44:12.368,-2.875,-26.0626
12:44:12.379,-2.25,-26.3126
12:44:12.389,-3.5625,-28.4376
12:44:12.399,-3.1875,-28.7501
12:44:12.408,-3.9375,-30.8126
12:44:12.420,-4.375,-30.8751
12:44:12.429,-4.625,-33.5626
12:44:12.438,-5,-33.5001
12:44:12.449,-5.5,-36.0626
12:44:12.458,-5.25,-36.4376
12:44:12.469,-6,-38.7501
12:44:12.478,-6.0625,-39.3752
12:44:12.488,-6.5,-42.3127
12:44:12.498,-6.375,-42.9377
12:44:12.508,-7.4375,-45.6877
12:44:12.537,-7.625,-46.4377
12:44:12.541,-7.75,-48.4377
12:44:12.542,-7.6875,-47.6252
12:44:12.552,-6.4375,-44.8127
12:44:12.579,-3.25,-35.8126
12:44:12.583,0.375,-23.5626
12:44:12.584,2.8125,-13
12:44:12.590,3.6875,-5.9375
12:44:12.598,4.875,0.8125
12:44:12.629,6.5625,6.3125
12:44:12.631,7.1875,11.5
12:44:12.633,8.625,14.4376
12:44:12.639,9.125,17.5626
12:44:12.670,10.5,18.5001
12:44:12.671,11.9375,19.8751
12:44:12.673,12.1875,19.8126
12:44:12.679,13.0625,20.1876
12:44:12.700,14.0626,19.4376
12:44:12.702,13.8751,17.6251
12:44:12.709,13.2501,15.1251
12:44:12.718,13.4376,12.5625
12:44:12.729,13.3126,8.75
12:44:12.745,11.0625,4.75
12:44:12.752,10.0625,-0.0625
12:44:12.759,8.5625,-5.25
12:44:12.777,7.5,-8.25
12:44:12.782,7.0625,-12.375
12:44:12.797,6.4375,-14.9376
12:44:12.799,6,-15.5001
12:44:12.808,6.6875,-15.2501
12:44:12.819,6.0625,-16.5626
12:44:12.828,6.25,-14.6251
12:44:12.854,7.4375,-14.1876
12:44:12.856,7.4375,-12.9375
12:44:12.860,7.5625,-11.1875
12:44:12.870,8.5,-8.1875
12:44:12.880,9.5,-8.0625
12:44:12.890,8.6875,-7.5
12:44:12.900,8.125,-5.875
12:44:12.908,8.625,-6.125
12:44:12.921,7.4375,-6.125
12:44:12.928,7.8125,-6.25
12:44:12.938,7.1875,-7.1875
12:44:12.948,6.5625,-7.1875
12:44:12.958,7.25,-6.6875
12:44:12.969,8.0625,-7.75
12:44:12.978,8.3125,-7.5
12:44:12.989,8.5,-7.6875
12:44:12.998,7.875,-8.75
12:44:13.009,7.3125,-9.8125
12:44:13.018,7.6875,-11.8125
12:44:13.028,6.6875,-12.25
12:44:13.039,6.3125,-14.8126
12:44:13.049,5.625,-18.2501
12:44:13.059,5,-18.5626
12:44:13.068,4.625,-21.9376
12:44:13.078,3.875,-22.6251
12:44:13.089,3.125,-25.0001
12:44:13.098,2.8125,-25.4376
12:44:13.109,4.0625,-22.9376
12:44:13.118,6.4375,-15.1876
12:44:13.130,9.125,-5.25
12:44:13.139,11.3125,2.875
12:44:13.148,12.3125,11.75
12:44:13.158,14.3751,16.5626
12:44:13.172,15.8751,23.4376
12:44:13.179,17.1876,26.4376
12:44:13.188,17.3751,31.0001
12:44:13.198,18.6251,32.7501
12:44:13.229,19.2501,33.3751
12:44:13.232,20.1251,34.7501
12:44:13.234,20.3126,34.0001
12:44:13.267,19.2501,33.3751
12:44:13.268,18.8751,31.6251
12:44:13.270,18.9376,29.1251
12:44:13.277,19.0626,28.1251
12:44:13.279,19.1876,24.4376
12:44:13.307,18.2501,22.3751
12:44:13.310,18.0626,18.8126
12:44:13.312,17.6876,14.1251
12:44:13.320,17.0001,11.6875
12:44:13.344,16.3751,7.0625
12:44:13.346,14.9376,2.5625
12:44:13.349,13.8751,-0.4375
12:44:13.380,13.6251,-1.8125
12:44:13.397,12.5625,-4.0625
12:44:13.397,10.8125,-6
12:44:13.412,10.75,-7.0625
12:44:13.427,10.375,-7.6875
12:44:13.429,10.125,-6.8125
12:44:13.444,10.375,-5
12:44:13.448,11.1875,-3.625
12:44:13.450,11.375,-2.75
12:44:13.453,10.6875,-0.5
12:44:13.460,11.4375,-0.125
12:44:13.469,11.625,-0.3125
12:44:13.478,11.9375,1.25
12:44:13.488,10.4375,-0.4375
12:44:13.499,10.0625,-0.625
12:44:13.508,10.375,-1.8125
12:44:13.518,8.5625,-3.3125
12:44:13.528,8.4375,-4.1875
12:44:13.538,8,-6.3125
12:44:13.553,6.9375,-8.0625
12:44:13.558,6.625,-8.9375
12:44:13.568,5.75,-9.4375
12:44:13.578,5.6875,-12.3125
12:44:13.589,4.25,-14.1876
12:44:13.600,3.75,-15.1876
12:44:13.609,4.125,-17.0626
12:44:13.618,3.3125,-19.1251
12:44:13.628,3.125,-20.8126
12:44:13.638,2.0625,-23.1876
12:44:13.650,2,-24.5626
12:44:13.658,0.625,-26.6876
12:44:13.668,1.0625,-24.5001
12:44:13.678,2.875,-21.5001
12:44:13.688,4.9375,-11.625
12:44:13.698,8.1875,-2.75
12:44:13.708,9.3125,6.25
12:44:13.718,10.875,12.8125
12:44:13.728,12.8125,18.5626
12:44:13.738,14.3751,25.3751
12:44:13.749,15.5001,29.2501
12:44:13.758,16.9376,34.3126
12:44:13.769,17.2501,36.3751
12:44:13.778,18.2501,38.2501
12:44:13.788,19.5001,39.1251
12:44:13.798,20.0626,39.3127
12:44:13.808,20.5001,40.4377
12:44:13.818,21.2501,38.6251
12:44:13.829,21.4376,38.2501
12:44:13.838,21.6251,35.6251
12:44:13.848,20.6251,33.1876
12:44:13.858,19.6251,28.1876
12:44:13.869,18.6251,24.3751
12:44:13.878,17.3751,19.5626
12:44:13.889,16.2501,13.7501
12:44:13.898,15.3751,11.625
12:44:13.908,14.2501,7.8125
12:44:13.918,13.5001,5.125
12:44:13.928,12.625,3.375
12:44:13.939,12.25,1.625
12:44:13.948,11.9375,-0.0625
12:44:13.958,11.6875,1
12:44:13.968,12.4375,0.4375
12:44:13.984,11.625,0.4375
12:44:13.988,11.8125,2.5
12:44:14.014,12.5,3.625
12:44:14.017,12.1875,4.6875
12:44:14.019,12.25,5.875
12:44:14.051,12.9375,5.5625
12:44:14.052,11.625,5.1875
12:44:14.096,11.1875,5.75
12:44:14.098,11.25,5.3125
12:44:14.142,10.5625,4.25
12:44:14.142,10,4.1875
12:44:14.142,9.9375,2.1875
12:44:14.145,8.875,1.0625
12:44:14.156,7.4375,0.4375
12:44:14.157,8,-2.9375
12:44:14.157,6.4375,-3.625
12:44:14.159,6.25,-5.3125
12:44:14.168,5.875,-7.25
12:44:14.178,5.1875,-8.75
12:44:14.189,5,-10.4375
12:44:14.200,4.4375,-12.0625
12:44:14.211,4.6875,-14.0001
12:44:14.218,3.4375,-17.0001
12:44:14.228,2.6875,-18.8751
12:44:14.238,1.4375,-19.9376
12:44:14.249,0.4375,-23.8751
12:44:14.258,0.875,-22.0626
12:44:14.268,7.6875,2.6875
12:44:14.278,10.0625,10.4375
12:44:14.288,11.4375,17.1251
12:44:14.300,14.0626,25.0001
12:44:14.311,16.0001,31.3751
12:44:14.319,18.0001,37.7501
12:44:14.329,20.0626,41.9377
12:44:14.338,20.5626,45.3127
12:44:14.348,22.0001,46.8752
12:44:14.358,21.8126,47.8752
12:44:14.368,23.3126,47.8127
12:44:14.378,22.3126,45.8752
12:44:14.388,23.1876,45.0002
12:44:14.398,22.3751,42.7502
12:44:14.408,22.5001,41.6877
12:44:14.418,22.0626,38.6251
12:44:14.428,21.2501,34.6251
12:44:14.438,20.2501,31.5001
12:44:14.448,20.2501,28.1251
12:44:14.458,18.8751,23.1876
12:44:14.469,17.3751,21.0001
12:44:14.478,17.1251,16.0626
12:44:14.490,16.0001,14.0626
12:44:14.498,15.3126,12.25
12:44:14.509,15.3126,10.5625
12:44:14.518,14.6251,9.125
12:44:14.528,14.3126,7.875
12:44:14.538,13.4376,8.4375
12:44:14.548,13.8126,9.1875
12:44:14.558,13.7501,8.3125
12:44:14.568,12.9375,9.8125
12:44:14.578,13.0625,9.75
12:44:14.588,13.5001,11.125
12:44:14.598,13.3751,11.8125
12:44:14.609,13.7501,12.6875
12:44:14.619,13.9376,13.125
12:44:14.628,13.1251,12.625
12:44:14.638,13.2501,12.125
12:44:14.649,12,10.5625
12:44:14.658,12,10.0625
12:44:14.669,11.75,7.8125
12:44:14.682,10.9375,5.8125
12:44:14.688,9.5625,4.4375
12:44:14.722,9.625,3.3125
12:44:14.756,9.375,0.4375
12:44:14.791,8.5,-0.9375
12:44:14.793,7.3125,-2.3125
12:44:14.793,7.6875,-5.25
12:44:14.793,6.1875,-7.625
12:44:14.851,5.125,-9.625
12:44:14.852,5.5,-12.1875
12:44:14.857,3.4375,-15.5001
12:44:14.857,2.5625,-16.8751
12:44:14.857,2.3125,-18.6876
12:44:14.858,2.6875,-18.3751
12:44:14.863,4.5625,-10.4375
12:44:14.873,8.5625,-1.25
12:44:14.873,10.3125,8.125
12:44:14.877,11.0625,15.3751
12:44:14.883,12.75,23.1876
12:44:14.893,14.1876,30.1876
12:44:14.903,16.2501,35.2501
12:44:14.913,17.1251,39.7502
12:44:14.923,18.9376,44.6877
12:44:14.933,20.6876,48.1252
12:44:14.945,22.7501,53.7502
12:44:14.953,23.4376,53.7502
12:44:14.963,24.4376,53.2502
12:44:14.973,23.9376,51.8752
12:44:14.983,24.3126,49.2502
12:44:14.993,24.2501,43.6252
12:44:15.003,22.8751,39.3752
12:44:15.013,21.5626,35.1876
12:44:15.023,20.5626,31.6251
12:44:15.033,20.2501,27.1876
12:44:15.043,18.1876,23.0626
12:44:15.053,17.5626,20.2501
12:44:15.063,17.3126,17.1251
12:44:15.073,16.1251,14.5626
12:44:15.083,15.4376,14.4376
12:44:15.093,14.9376,12.75
12:44:15.104,15.3751,13.8126
12:44:15.113,16.2501,15.0626
12:44:15.123,16.0626,15.8751
12:44:15.133,16.0001,16.4376
12:44:15.143,16.6251,18.6251
12:44:15.153,16.8751,19.5626
12:44:15.163,16.4376,19.2501
12:44:15.174,16.0626,20.0626
12:44:15.183,16.3751,19.2501
12:44:15.193,15.8126,19.1876
12:44:15.203,15.5001,20.0001
12:44:15.213,15.5626,18.8751
12:44:15.224,14.7501,17.1251
12:44:15.234,13.8751,17.5626
12:44:15.245,14.1251,14.6876
12:44:15.253,13.4376,13.8126
12:44:15.263,13.5001,12.5625
12:44:15.273,12.75,9.9375
12:44:15.284,12.9375,8.8125
12:44:15.293,12.4375,7.3125
12:44:15.303,11.75,4.6875
12:44:15.313,10.875,3.1875
12:44:15.323,10,1
12:44:15.333,9.875,-2
12:44:15.343,8.125,-4.75
12:44:15.379,7.0625,-5.6875
12:44:15.380,7.4375,-7.0625
12:44:15.384,8.0625,-5
12:44:15.385,10.1875,2.0625
12:44:15.479,13.2501,11.625
12:44:15.482,14.5001,19.5626
12:44:15.519,15.5626,27.2501
12:44:15.520,17.5001,34.2501
12:44:15.524,19.3126,40.6252
12:44:15.528,20.4376,47.0002
12:44:15.528,22.6876,52.0627
12:44:15.528,24.3126,55.9377
12:44:15.536,25.1251,58.2502
12:44:15.543,25.4376,60.1252
12:44:15.553,25.6876,61.6252
12:44:15.564,26.8126,59.6877
12:44:15.573,26.6251,58.8127
12:44:15.583,26.7501,57.5002
12:44:15.594,25.8126,54.8127
12:44:15.604,25.3126,51.8127
12:44:15.617,24.8751,48.1877
12:44:15.623,24.0001,43.5627
12:44:15.633,22.6251,38.5626
12:44:15.643,21.1251,33.4376
12:44:15.653,19.7501,29.4376
12:44:15.663,19.0626,25.6251
12:44:15.673,17.7501,22.1251
12:44:15.683,16.3126,18.5626
12:44:15.693,16.4376,18.6251
12:44:15.703,16.1876,19.1251
12:44:15.714,15.6876,18.1876
12:44:15.723,15.0626,18.5626
12:44:15.733,15.3126,18.8126
12:44:15.743,14.6251,18.4376
12:44:15.753,14.7501,17.2501
12:44:15.763,13.8126,17.1876
12:44:15.773,13.5001,16.2501
12:44:15.784,12.4375,14.2501
12:44:15.793,11.6875,12.75
12:44:15.803,11.375,12
12:44:15.813,10.375,9.5625
12:44:15.823,9.6875,7.625
12:44:15.833,9.125,5.8125
12:44:15.843,9.1875,3.875
12:44:15.853,8.1875,1.5625
12:44:15.864,7.8125,0.3125
12:44:15.873,7.0625,-2.8125
12:44:15.883,5.6875,-5.125
12:44:15.893,4.125,-8.0625
12:44:15.904,4.0625,-11.5
12:44:15.914,2.75,-14.5001
12:44:15.923,1.625,-14.6251
12:44:15.933,3.5,-11.875
12:44:15.944,5.6875,-5
12:44:15.953,8.25,4.125
12:44:15.963,10.25,14.3126
12:44:15.973,12.25,21.6251
12:44:15.983,13.5626,28.0626
12:44:15.994,15.0001,35.5626
12:44:16.003,16.6876,42.2502
12:44:16.013,18.5626,48.8752
12:44:16.023,20.5001,52.8752
12:44:16.033,21.1251,56.0627
12:44:16.043,22.3126,59.1252
12:44:16.053,24.0626,59.8127
12:44:16.063,24.0001,59.1252
12:44:16.078,23.6251,57.5627
12:44:16.088,23.9376,57.1252
12:44:16.102,24.3126,54.7502
12:44:16.143,23.6251,51.3752
12:44:16.144,22.3126,48.0002
12:44:16.180,20.5626,44.3752
12:44:16.213,20.5001,39.6252
12:44:16.215,19.5001,34.6251
12:44:16.215,17.6251,29.5001
12:44:16.248,16.1876,25.8751
12:44:16.273,14.8126,23.0001
12:44:16.273,13.8126,21.5626
12:44:16.273,14.4376,18.3751
12:44:16.274,13.1876,16.0001
12:44:16.277,12.25,14.1251
12:44:16.282,11.625,13.9376
12:44:16.288,10.8125,15.8126
12:44:16.298,12.0625,15.1876
12:44:16.308,11.625,15.0626
12:44:16.318,10.9375,16.0626
12:44:16.328,10.4375,17.6251
12:44:16.338,10.25,17.6876
12:44:16.349,10.625,16.8126
12:44:16.358,10.25,17.3751
12:44:16.369,10.8125,16.5626
12:44:16.378,9.75,15.4376
12:44:16.389,9.6875,14.5001
12:44:16.398,9,13.2501
12:44:16.408,8.25,10.625
12:44:16.419,4.5625,-0.0625
12:44:16.429,4,-2.875
12:44:16.438,2.625,-5
12:44:16.448,1.625,-7.0625
12:44:16.458,1.625,-10.125
12:44:16.468,0.75,-12.5625
12:44:16.478,-0.4375,-13.8751
12:44:16.511,0.125,-13.8751
12:44:16.513,1.5625,-9.75
12:44:16.515,3.6875,-2
12:44:16.524,6,7.625
12:44:16.533,8.25,15.6876
12:44:16.544,9.375,23.6251
12:44:16.553,11.3125,30.3126
12:44:16.563,13.7501,39.3752
12:44:16.573,16.4376,45.8752
12:44:16.584,18.1876,51.6877
12:44:16.593,20.0626,57.8752
12:44:16.603,21.5001,60.6877
12:44:16.613,22.9376,61.5627
12:44:16.624,23.7501,63.3752
12:44:16.633,24.2501,63.1877
12:44:16.643,23.7501,62.3127
12:44:16.653,23.3751,59.3752
12:44:16.663,22.8751,56.4377
12:44:16.694,21.9376,53.2502
12:44:16.696,20.8751,48.3752
12:44:16.698,19.5001,44.8752
12:44:16.704,18.5626,40.1252
12:44:16.715,18.0626,34.4376
12:44:16.723,15.2501,30.7501
12:44:16.733,14.1251,27.5626
12:44:16.747,13.6251,24.0001
12:44:16.763,13,21.1876
12:44:16.764,12.0625,18.5001
12:44:16.774,11.5,19.0001
12:44:16.783,11.5625,18.2501
12:44:16.798,11.1875,18.3126
12:44:16.806,11.5,19.0626
12:44:16.814,12.0625,18.9376
12:44:16.834,10.6875,19.0001
12:44:16.836,10.4375,18.6876
12:44:16.863,10.625,20.5001
12:44:16.869,10.6875,19.6251
12:44:16.870,10.5,18.9376
12:44:16.907,9.25,18.5001
12:44:16.907,9.5625,19.1251
12:44:16.909,9.1875,17.9376
12:44:16.915,9.0625,16.5001
12:44:16.917,8.375,14.6876
12:44:16.924,7.75,14.0626
12:44:16.954,6.9375,13.4376
12:44:16.958,6.375,10.8125
12:44:16.960,6.5625,8.25
12:44:16.964,5.0625,5.375
12:44:17.001,4.5625,4.875
12:44:17.002,4.1875,2.125
12:44:17.004,3.6875,-0.625
12:44:17.010,2.9375,-3.8125
12:44:17.015,1.75,-6.4375
12:44:17.023,0.0625,-8.875
12:44:17.034,0.3125,-11.1875
12:44:17.043,-1.125,-13.2501
12:44:17.053,-0.875,-12.6875
12:44:17.063,0.8125,-7.0625
12:44:17.076,2.375,1.6875
12:44:17.084,5.5,10.0625
12:44:17.093,6.5625,18.0001
12:44:17.103,9.4375,27.5626
12:44:17.113,12.5625,35.5626
12:44:17.126,14.3126,43.1252
12:44:17.134,17.1251,50.8127
12:44:17.143,18.2501,57.1877
12:44:17.153,20.5626,61.1252
12:44:17.163,21.3126,63.3127
12:44:17.174,21.8751,65.0627
12:44:17.183,22.5001,66.3753
12:44:17.193,23.3751,65.1252
12:44:17.203,23.4376,64.0627
12:44:17.214,23.0626,62.1252
12:44:17.223,21.7501,58.2502
12:44:17.233,20.8126,55.0002
12:44:17.243,19.4376,51.2502
12:44:17.254,19.1251,46.9377
12:44:17.263,16.8751,40.9377
12:44:17.273,15.3751,37.0001
12:44:17.283,14.6876,33.0001
12:44:17.293,13.6251,28.5001
12:44:17.304,12.1875,25.6251
12:44:17.313,11.25,23.5001
12:44:17.323,10.75,21.0001
12:44:17.333,10.3125,19.1876
12:44:17.343,10,18.6876
12:44:17.353,9.8125,20.0001
12:44:17.363,10,19.1251
12:44:17.373,9.3125,19.5626
12:44:17.384,9.375,20.5626
12:44:17.393,8.9375,20.3751
12:44:17.403,8.6875,20.0001
12:44:17.413,8.1875,20.9376
12:44:17.423,8.4375,20.6876
12:44:17.433,8.5,20.1876
12:44:17.443,7.875,19.2501
12:44:17.453,7.6875,19.3751
12:44:17.463,7.5,17.3126
12:44:17.473,6.625,15.4376
12:44:17.483,6.125,14.1876
12:44:17.500,4.8125,13
12:44:17.517,4.875,10.5625
12:44:17.518,4.4375,8.4375
12:44:17.523,3.5,6.375
12:44:17.533,3,5.5
12:44:17.543,2.8125,2.1875
12:44:17.553,2,-0.8125
12:44:17.563,1.1875,-3.8125
12:44:17.573,-0.1875,-5
12:44:17.583,-0.4375,-8.8125
12:44:17.594,-1.8125,-12.5
12:44:17.603,-2.5625,-14.8751
12:44:17.613,-4.0625,-15.7501
12:44:17.624,-2.8125,-14.8751
12:44:17.653,-1,-8.875
12:44:17.655,1.0625,0
12:44:17.661,2.9375,8.4375
12:44:17.663,4.625,16.6876
12:44:17.688,7.375,25.7501
12:44:17.690,10.125,34.6251
12:44:17.702,13.2501,42.3752
12:44:17.719,15.2501,50.3127
12:44:17.722,17.9376,56.0002
12:44:17.726,19.1251,59.8752
12:44:17.756,20.4376,64.3752
12:44:17.757,21.3751,64.7502
12:44:17.759,22.0626,64.7502
12:44:17.764,21.7501,64.6252
12:44:17.794,21.7501,62.7502
12:44:17.796,22.3126,61.0002
12:44:17.798,20.8751,57.6252
12:44:17.813,20.4376,54.1252
12:44:17.814,18.4376,50.0627
12:44:17.824,17.5626,45.3752
12:44:17.833,16.0001,41.5627
12:44:17.843,14.1251,36.3126
12:44:17.853,13.5001,31.3126
12:44:17.863,12.0625,27.5001
12:44:17.874,11,24.6251
12:44:17.883,10.125,21.5626
12:44:17.894,9.6875,20.7501
12:44:17.903,9.25,18.8751
12:44:17.913,8.625,18.6876
12:44:17.924,8.4375,18.4376
12:44:17.934,8.0625,17.9376
12:44:17.943,8.0625,18.5001
12:44:17.973,7.6875,19.0001
12:44:17.976,8.3125,19.2501
12:44:17.978,7.3125,18.1251
12:44:17.986,6.9375,19.1251
12:44:17.993,7.0625,18.8751
12:44:18.003,6.9375,17.7501
12:44:18.013,6.3125,17.1876
12:44:18.023,6.5,17.1251
12:44:18.034,6.375,15.6876
12:44:18.043,5.4375,13.1876
12:44:18.054,5,12.875
12:44:18.063,4.875,11.3125
12:44:18.082,4.5,9
12:44:18.088,3.75,6.8125
12:44:18.104,2.5,3.8125
12:44:18.105,2,2.875
12:44:18.113,1.5625,-0.25
12:44:18.123,-0.1875,-3.8125
12:44:18.134,-1.5625,-6.8125
12:44:18.143,-2,-9.1875
12:44:18.153,-3.3125,-12.125
12:44:18.163,-4.75,-15.5626
12:44:18.173,-6.0625,-18.3126
12:44:18.184,-6.5,-19.6251
12:44:18.193,-6.5,-20.1251
12:44:18.203,-5.3125,-16.7501
12:44:18.214,-3.3125,-8.1875
12:44:18.224,-0.5625,1
12:44:18.233,1.875,9.8125
12:44:18.243,4.6875,18.7501
12:44:18.254,7.0625,28.6251
12:44:18.263,9.6875,37.5626
12:44:18.273,12.125,47.2502
12:44:18.283,15.1876,53.7502
12:44:18.293,17.6251,59.1877
12:44:18.326,19.4376,63.0002
12:44:18.328,20.2501,66.5628
12:44:18.333,21.1251,67.0628
12:44:18.334,20.9376,67.7503
12:44:18.363,21.2501,64.9377
12:44:18.366,21.1251,63.0627
12:44:18.368,20.8126,61.2502
12:44:18.375,19.8751,58.1252
12:44:18.401,19.4376,54.3752
12:44:18.403,18.1251,49.7502
12:44:18.406,17.3751,45.1877
12:44:18.434,15.5626,41.0627
12:44:18.437,14.2501,36.9376
12:44:18.439,13.1251,33.8126
12:44:18.444,12.1875,29.0001
12:44:18.472,11.9375,26.9376
12:44:18.474,10.5625,25.1876
12:44:18.477,10,24.0626
12:44:18.491,9.625,23.6251
12:44:18.493,10.5,22.9376
12:44:18.503,10.3125,23.6251
12:44:18.515,9.5,23.2501
12:44:18.524,9,23.7501
12:44:18.533,8.875,23.6876
12:44:18.543,9,23.0001
12:44:18.553,8.25,23.3126
12:44:18.563,8.5625,23.4376
12:44:18.574,8.0625,22.9376
12:44:18.584,7.125,22.6251
12:44:18.593,7.125,20.7501
12:44:18.603,6.75,19.5001
12:44:18.613,5.5625,17.9376
12:44:18.624,5.25,15.6876
12:44:18.633,5.4375,14.7501
12:44:18.644,4.75,12.0625
12:44:18.653,4,10.75
12:44:18.664,2.6875,7.9375
12:44:18.673,2.5625,5.9375
12:44:18.684,1,3.8125
12:44:18.693,0.5625,0.5625
12:44:18.703,-0.3125,-1.875
12:44:18.713,-1.5625,-4.5625
12:44:18.723,-2.875,-9
12:44:18.733,-4.1875,-11.5625
12:44:18.743,-5.0625,-13
12:44:18.753,-5.0625,-15.9376
12:44:18.763,-5.4375,-15.9376
12:44:18.773,-4.3125,-12.8125
12:44:18.795,-1.9375,-4.5
12:44:18.795,-0.125,5.6875
12:44:18.811,2.375,13.6251
12:44:18.815,4.5,21.6876
12:44:18.823,6.6875,31.7501
12:44:18.833,10.1875,40.2502
12:44:18.843,12.625,47.3752
12:44:18.853,14.8126,54.2502
12:44:18.863,17.4376,60.5002
12:44:18.873,18.9376,63.6877
12:44:18.884,19.3751,66.3128
12:44:18.894,20.2501,66.6253
12:44:18.903,20.0626,66.0003
12:44:18.913,19.4376,65.1877
12:44:18.923,19.0626,61.9377
12:44:18.933,18.1251,59.6877
12:44:18.943,18.0001,55.0002
12:44:18.953,16.3751,50.4377
12:44:18.963,14.7501,46.6877
12:44:18.973,13.125,43.1252
12:44:18.984,12.6875,37.7501
12:44:18.993,10.5625,32.1876
12:44:19.003,9.4375,29.0626
12:44:19.016,7.5625,25.9376
12:44:19.023,7,22.1876
12:44:19.067,6.5625,19.8126
12:44:19.067,5.4375,17.6251
12:44:19.069,5.3125,18.2501
12:44:19.072,4.875,17.1876
12:44:19.074,4.9375,18.2501
12:44:19.102,4.6875,17.3126
12:44:19.104,4.5625,17.1251
12:44:19.107,4.375,17.6876
12:44:19.115,3.3125,17.4376
12:44:19.123,2.75,17.8751
12:44:19.157,3.25,16.6876
12:44:19.158,2.5,16.9376
12:44:19.160,3.25,16.2501
12:44:19.163,2.0625,15.5626
12:44:19.194,2.5,14.9376
12:44:19.196,2,12.75
12:44:19.198,1.4375,10.625
12:44:19.204,0.5,8.3125
12:44:19.213,-0.5625,6.625
12:44:19.223,-2.1875,4.25
12:44:19.254,-2.75,0.875
12:44:19.256,-4.0625,-1.5
12:44:19.258,-4.4375,-4.3125
12:44:19.265,-5.625,-5.9375
12:44:19.273,-6.25,-8.25
12:44:19.283,-6.75,-11.4375
12:44:19.293,-7.875,-14.7501
12:44:19.304,-8.0625,-17.1876
12:44:19.314,-10.0625,-20.4376
12:44:19.324,-11.625,-22.6876
12:44:19.334,-11.8125,-24.8126
12:44:19.343,-12.1875,-23.3126
12:44:19.353,-10.5,-16.8751
12:44:19.363,-7.9375,-8.8125
12:44:19.383,-5.4375,2.5
12:44:19.404,-2.0625,11.3125
12:44:19.408,0.5,22.7501
12:44:19.409,4,31.5001
12:44:19.414,6.75,41.5627
12:44:19.424,9.25,50.0002
12:44:19.433,12.75,56.5002
12:44:19.443,13.1876,61.5627
12:44:19.454,15.4376,63.9377
12:44:19.464,15.5626,66.5628
12:44:19.473,16.1876,66.5003
12:44:19.483,16.2501,65.6253
12:44:19.493,16.0001,62.7502
12:44:19.503,15.5626,59.8127
12:44:19.514,14.4376,57.7502
12:44:19.523,13.3751,52.9377
12:44:19.533,12.75,48.6877
12:44:19.544,10.8125,44.0002
12:44:19.554,8.9375,39.0626
12:44:19.563,7.5625,33.2501
12:44:19.573,6.6875,28.9376
12:44:19.583,4.0625,25.3751
12:44:19.595,3.8125,22.0001
12:44:19.604,3,19.4376
12:44:19.614,2.3125,17.6251
12:44:19.623,2.4375,17.4376
12:44:19.633,2.8125,17.5001
12:44:19.643,1.4375,18.2501
12:44:19.654,2.1875,17.6251
12:44:19.663,0.8125,18.5001
12:44:19.673,1.3125,18.0001
12:44:19.683,0.5625,18.7501
12:44:19.693,0.8125,17.0626
12:44:19.703,0.3125,18.7501
12:44:19.713,0.5625,17.3126
12:44:19.723,-0.0625,17.7501
12:44:19.733,0.0625,17.0001
12:44:19.743,-0.9375,14.8126
12:44:19.753,-0.5,14.9376
12:44:19.768,-1.125,12.25
12:44:19.773,-2.0625,11
12:44:19.783,-2.3125,8.75
12:44:19.796,-3.375,7.25
12:44:19.827,-4.25,4.9375
12:44:19.828,-5.5,1.0625
12:44:19.831,-6.4375,-1.875
12:44:19.860,-6.75,-3.125
12:44:19.862,-7.875,-6.875
12:44:19.890,-8.625,-9.4375
12:44:19.890,-10.0625,-12.1875
12:44:19.892,-11.375,-15.0001
12:44:19.893,-12.4375,-18.1251
12:44:19.924,-14.2501,-21.6251
12:44:19.925,-15.5001,-24.5001
12:44:19.930,-16.0001,-28.0626
12:44:19.934,-16.5626,-27.6876
12:44:19.936,-15.3126,-24.1876
12:44:19.951,-13,-15.6876
12:44:19.957,-10.125,-5.8125
12:44:19.972,-6.8125,4.5
12:44:19.974,-3.5,15.6876
12:44:19.983,0.125,26.2501
12:44:19.994,2.375,36.1251
12:44:20.003,5.875,45.0627
12:44:20.013,8.1875,53.5627
12:44:20.023,10.5,60.0002
12:44:20.033,13.0625,64.2502
12:44:20.043,14.1251,67.3128
12:44:20.053,15.2501,69.6878
12:44:20.063,15.7501,70.2503
12:44:20.073,16.0626,67.9378
12:44:20.089,15.1876,66.6878
12:44:20.093,15.1876,63.3752
12:44:20.109,13.9376,60.8127
12:44:20.113,12.6875,55.8752
12:44:20.123,11.375,51.8752
12:44:20.143,10,46.5002
12:44:20.148,8.5625,42.0627
12:44:20.158,6.5625,37.2501
12:44:20.168,5.1875,32.9376
12:44:20.178,3.8125,28.8751
12:44:20.188,2.5625,24.2501
12:44:20.198,1.6875,21.9376
12:44:20.208,1.375,20.5626
12:44:20.218,0.8125,19.6251
12:44:20.229,-0.625,19.0626
12:44:20.239,-0.4375,19.0001
12:44:20.248,0.0625,19.0001
12:44:20.258,-0.125,19.3126
12:44:20.268,0.25,20.0001
12:44:20.278,-0.125,20.6876
12:44:20.288,-0.1875,20.2501
12:44:20.298,-1.1875,19.6876
12:44:20.309,-1.4375,19.4376
12:44:20.318,-1.25,18.5001
12:44:20.328,-1.3125,16.8751
12:44:20.338,-2.1875,17.1251
12:44:20.348,-2.125,15.8126
12:44:20.358,-2.4375,13.2501
12:44:20.368,-3.125,11.4375
12:44:20.378,-4.5,9.875
12:44:20.388,-4.8125,7.0625
12:44:20.398,-5.5625,4.4375
12:44:20.408,-7,1.6875
12:44:20.418,-8.0625,0.375
12:44:20.428,-8.375,-3.9375
12:44:20.438,-9.3125,-6.8125
12:44:20.449,-10.875,-9.4375
12:44:20.458,-11.875,-12.25
12:44:20.468,-13.5001,-16.2501
12:44:20.478,-14.1251,-19.3751
12:44:20.488,-15.8126,-22.0626
12:44:20.498,-16.5001,-25.3126
12:44:20.508,-18.6876,-28.0626
12:44:20.536,-19.2501,-29.1251
12:44:20.538,-18.1251,-28.1876
12:44:20.538,-16.6876,-21.3126
12:44:20.548,-14.2501,-11.1875
12:44:20.578,-11.75,-2.0625
12:44:20.581,-8.3125,9.5
12:44:20.583,-3.75,21.3126
12:44:20.589,-1.0625,32.6251
12:44:20.617,2.4375,42.0627
12:44:20.619,5.25,50.3752
12:44:20.622,8.25,57.6252
12:44:20.629,10.1875,62.3752
12:44:20.662,11.8125,65.6253
12:44:20.665,11.5625,66.5628
12:44:20.667,12.8125,67.3753
12:44:20.710,12.6875,66.3753
12:44:20.710,13.1876,64.7502
12:44:20.712,12.4375,63.1877
12:44:20.719,12.1875,60.3127
12:44:20.720,12.6875,58.1252
12:44:20.720,11.625,54.7502
12:44:20.731,10.3125,49.3127
12:44:20.738,9.25,46.3127
12:44:20.748,8.1875,41.0627
12:44:20.760,7.625,38.3126
12:44:20.768,7.6875,35.3126
12:44:20.778,7.25,33.9376
12:44:20.788,7.5625,34.0001
12:44:20.798,8.0625,34.3126
12:44:20.809,8.6875,35.2501
12:44:20.819,9.6875,37.5626
12:44:20.828,11.3125,38.1876
12:44:20.838,12.875,41.2502
12:44:20.849,14.6251,45.9377
12:44:20.858,16.3751,47.0002
12:44:20.868,20.3751,53.5002
12:44:20.878,25.3126,60.6252
12:44:20.888,31.1251,68.6253
12:44:20.898,37.6876,79.3753
12:44:20.908,47.1252,90.6879
12:44:20.918,56.1877,104.3129
12:44:20.929,64.0002,114.3129
12:44:20.938,73.1253,128.5005
12:44:20.949,85.0628,146.8131
12:44:20.958,94.8129,161.0631
12:44:20.968,102.0629,174.8757
12:44:20.978,108.5629,184.7507
12:44:20.988,112.0629,192.2507
12:44:20.998,115.1879,198.0633
12:44:21.008,118.2505,201.7508
12:44:21.018,118.813,203.8133
12:44:21.029,117.4379,202.5633
12:44:21.039,118.3755,201.8133
12:44:21.048,118.1255,202.5008
12:44:21.058,118.0005,201.1883
12:44:21.068,117.3755,199.1258
12:44:21.080,116.0004,196.6882
12:44:21.088,113.2504,191.6882
12:44:21.098,111.0004,188.0632
12:44:21.108,108.6254,182.6257
12:44:21.118,107.5629,179.6882
12:44:21.128,107.1254,178.8132
12:44:21.139,105.6254,179.7507
12:44:21.148,104.8129,182.4382
12:44:21.158,104.8129,185.6257
12:44:21.168,104.0629,190.5007
12:44:21.178,104.3754,196.2508
12:44:21.189,105.1879,201.7508
12:44:21.198,106.1879,208.7508
12:44:21.208,106.9379,215.0633
12:44:21.218,107.9379,220.6258
12:44:21.228,109.0004,224.8759
12:44:21.239,109.8129,227.3759
12:44:21.266,109.0629,229.9384
12:44:21.268,109.5004,229.6884
12:44:21.270,108.7504,229.6884
12:44:21.279,107.9379,228.7509
12:44:21.305,106.9379,225.8759
12:44:21.308,106.0629,223.0634
12:44:21.309,104.9379,220.7508
12:44:21.340,103.5004,217.4383
12:44:21.343,102.6879,214.3133
12:44:21.344,101.1254,210.6258
12:44:21.351,99.4379,206.4383
12:44:21.367,97.3754,202.3133
12:44:21.370,96.2504,197.3758
12:44:21.402,94.2504,193.4382
12:44:21.405,91.9379,188.2507
12:44:21.407,89.8128,184.0007
12:44:21.428,88.1253,180.6882
12:44:21.430,85.9378,177.2507
12:44:21.432,84.3128,173.5632
12:44:21.439,81.8128,169.6881
12:44:21.448,80.6878,167.3131
12:44:21.458,79.2503,164.5006
12:44:21.468,77.0628,162.3756
12:44:21.478,75.0628,159.2506
12:44:21.489,74.1253,155.9381
12:44:21.498,72.8753,154.3756
12:44:21.508,72.2503,152.7506
12:44:21.518,70.9378,150.7506
12:44:21.529,70.0003,148.1881
12:44:21.539,69.0003,146.5005
12:44:21.548,67.3128,144.2505
12:44:21.558,66.3753,142.7505
12:44:21.568,66.5003,140.063
12:44:21.578,64.4377,137.688
12:44:21.588,63.2502,134.5005
12:44:21.598,61.5002,132.3755
12:44:21.608,60.2502,129.6255
12:44:21.618,59.0002,127.313
12:44:21.628,57.4377,123.688
12:44:21.638,55.9377,120.2505
12:44:21.648,54.5002,117.8755
12:44:21.658,52.6252,114.9379
12:44:21.668,52.1877,111.5004
12:44:21.678,49.9377,109.8754
12:44:21.688,48.8752,106.6879
12:44:21.698,47.7502,103.8129
12:44:21.708,47.8127,103.0004
12:44:21.718,48.0002,103.2504
12:44:21.729,49.2502,105.1254
12:44:21.738,52.1252,110.1254
12:44:21.748,54.3752,117.6255
12:44:21.759,56.6877,126.7505
12:44:21.769,60.5002,137.1255
12:44:21.778,64.0627,147.9381
12:44:21.788,68.8753,161.2506
12:44:21.813,74.5003,173.0632
12:44:21.819,78.5003,183.5632
12:44:21.820,81.3128,190.8132
12:44:21.832,80.8128,192.5632
12:44:21.837,79.1878,192.6257
12:44:21.848,76.4378,190.5007
12:44:21.858,74.2503,187.1882
12:44:21.868,71.1253,182.5007
12:44:21.878,67.5628,177.0632
12:44:21.888,66.0628,172.6257
12:44:21.898,64.7502,168.7506
12:44:21.908,63.2502,165.8756
12:44:21.918,62.5002,160.4381
12:44:21.928,60.1252,155.4381
12:44:21.938,58.2502,149.7506
12:44:21.948,56.0627,142.688
12:44:21.958,52.3752,136.8755
12:44:21.968,48.7502,129.063
12:44:21.986,45.3752,122.438
12:44:21.987,42.8752,115.5629
12:44:22.018,39.3127,109.9379
12:44:22.022,36.8751,105.0004
12:44:22.048,34.8126,100.3129
12:44:22.050,32.6251,96.0629
12:44:22.052,31.2501,93.4379
12:44:22.078,29.6876,89.5003
12:44:22.082,28.8126,87.8753
12:44:22.082,27.7501,85.9378
12:44:22.083,26.8751,83.3128
12:44:22.088,26.6251,82.4378
12:44:22.120,25.1251,80.8128
12:44:22.122,24.7501,78.8128
12:44:22.124,22.9376,76.6878
12:44:22.132,22.5626,74.4378
12:44:22.160,20.8126,71.7503
12:44:22.163,19.4376,69.0003
12:44:22.164,19.0001,66.8128
12:44:22.170,17.5626,64.1252
12:44:22.178,16.8126,60.8127
12:44:22.188,15.7501,57.9377
12:44:22.198,14.5626,55.3752
12:44:22.211,13.3126,52.5002
12:44:22.219,12.5625,49.8752
12:44:22.228,11.75,47.0627
12:44:22.239,11.3125,44.0627
12:44:22.248,9.375,42.0627
12:44:22.258,8.25,37.1876
12:44:22.268,6.5625,33.3751
12:44:22.278,4.5625,29.5626
12:44:22.289,3,23.9376
12:44:22.298,0.75,21.0001
12:44:22.309,-0.6875,16.0001
12:44:22.318,-1,13.6876
12:44:22.329,-0.9375,13.9376
12:44:22.338,-0.125,17.0626
12:44:22.349,1.25,23.0001
12:44:22.358,2,29.9376
12:44:22.368,4.125,36.0001
12:44:22.378,5,42.6877
12:44:22.390,5.875,50.1252
12:44:22.398,6.9375,56.1252
12:44:22.409,7.375,61.5627
12:44:22.419,9.0625,65.3753
12:44:22.428,9.375,69.4378
12:44:22.438,9.8125,72.0628
12:44:22.449,10.75,73.1878
12:44:22.458,11.125,73.6253
12:44:22.469,11.0625,73.3128
12:44:22.478,10.125,72.6253
12:44:22.488,9.375,70.1253
12:44:22.498,8,68.0628
12:44:22.509,8,65.3127
12:44:22.518,6.875,62.1877
12:44:22.528,5.875,59.0627
12:44:22.538,4,55.6877
12:44:22.548,3.625,51.9377
12:44:22.558,1.9375,49.2502
12:44:22.569,0.5625,45.2502
12:44:22.583,-1.375,41.2502
12:44:22.588,-1.9375,38.3126
12:44:22.598,-4,35.3126
12:44:22.609,-4.3125,34.4376
12:44:22.618,-4.4375,33.8126
12:44:22.629,-4.9375,31.9376
12:44:22.638,-5.3125,32.3126
12:44:22.649,-5.4375,32.4376
12:44:22.658,-5.625,32.7501
12:44:22.690,-6,33.1876
12:44:22.719,-5.875,33.3126
12:44:22.721,-6.25,34.4376
12:44:22.723,-5.75,33.7501
12:44:22.725,-6.5625,35.0001
12:44:22.733,-6,34.1876
12:44:22.733,-5.9375,33.9376
12:44:22.738,-7.125,33.7501
12:44:22.780,-7.0625,32.1876
12:44:22.780,-6.625,32.5626
12:44:22.784,-6.875,31.5626
12:44:22.786,-7,31.4376
12:44:22.793,-7.9375,30.9376
12:44:22.798,-7.625,29.3751
12:44:22.825,-8.6875,28.1251
12:44:22.830,-8.8125,25.1876
12:44:22.830,-11,23.2501
12:44:22.849,-12.125,18.8751
12:44:22.852,-13.125,16.0001
12:44:22.858,-13.6876,14.5001
12:44:22.868,-14.8126,10.5625
12:44:22.878,-16.2501,7.3125
12:44:22.888,-17.6876,4.5
12:44:22.898,-18.0001,3.375
12:44:22.908,-18.7501,0.625
12:44:22.918,-18.3751,2.375
12:44:22.928,-17.4376,5.75
12:44:22.938,-15.5626,12.375
12:44:22.949,-13.8126,18.9376
12:44:22.958,-11.0625,26.8751
12:44:22.968,-9.5625,35.5626
12:44:22.978,-7.3125,43.6252
12:44:22.988,-5.25,51.1877
12:44:22.998,-2.5,58.5002
12:44:23.008,-0.375,64.8127
12:44:23.018,1.5,69.9378
12:44:23.028,2.6875,72.5628
12:44:23.038,4.625,75.0628
12:44:23.048,4.4375,76.5628
12:44:23.058,5.4375,76.0628
12:44:23.068,5.125,76.0628
12:44:23.093,5.5,74.1253
12:44:23.096,4.75,72.8753
12:44:23.098,5.1875,70.6253
12:44:23.108,4.5,67.7503
12:44:23.118,4.25,64.5627
12:44:23.128,2.875,61.5627
12:44:23.138,2.8125,57.3752
12:44:23.148,1.4375,54.9377
12:44:23.158,1.375,50.8752
12:44:23.167,-1,47.9377
12:44:23.178,-1.875,44.1252
12:44:23.191,-2.875,41.3127
12:44:23.198,-3.6875,39.3127
12:44:23.208,-4.1875,37.3126
12:44:23.218,-4.9375,35.6251
12:44:23.228,-5.25,34.2501
12:44:23.238,-6.0625,33.5626
12:44:23.248,-6.875,32.8751
12:44:23.258,-7.3125,31.6876
12:44:23.281,-7.9375,30.2501
12:44:23.283,-8.75,30.0001
12:44:23.298,-9.1875,28.2501
12:44:23.302,-9.75,26.5001
12:44:23.307,-10.25,25.1251
12:44:23.318,-11.4375,23.2501
12:44:23.333,-12.4375,21.0001
12:44:23.338,-13.4376,19.4376
12:44:23.346,-14.2501,17.0001
12:44:23.358,-16.1251,13.6876
12:44:23.368,-16.6876,10.5625
12:44:23.378,-18.6251,7.5625
12:44:23.388,-18.4376,6
12:44:23.398,-20.0626,3.5
12:44:23.408,-20.1251,0.625
12:44:23.419,-22.2501,-3.125
12:44:23.458,-23.1876,-6.5
12:44:23.459,-24.9376,-9.625
12:44:23.461,-25.9376,-12.375
12:44:23.464,-26.7501,-15.7501
12:44:23.469,-28.2501,-18.9376
12:44:23.499,-29.8126,-22.8751
12:44:23.501,-29.3126,-25.0626
12:44:23.503,-30.9376,-25.1876
12:44:23.510,-29.8751,-24.3126
12:44:23.539,-28.6251,-18.4376
12:44:23.541,-26.0001,-12.875
12:44:23.543,-24.2501,-3.1875
12:44:23.572,-21.5001,3.875
12:44:23.572,-19.1876,11.3125
12:44:23.574,-17.5626,19.0001
12:44:23.578,-15.1876,26.7501
12:44:23.595,-12.6875,32.9376
12:44:23.600,-10.25,38.8751
12:44:23.608,-8.6875,42.1877
12:44:23.618,-7.75,44.1877
12:44:23.628,-6.6875,47.1252
12:44:23.638,-5.75,48.0002
12:44:23.648,-4.875,48.1877
12:44:23.658,-4.75,47.9377
12:44:23.668,-4.75,45.8752
12:44:23.678,-4.75,43.3752
12:44:23.689,-5.1875,41.6252
12:44:23.699,-6.3125,37.3751
12:44:23.714,-6.5,34.6876
12:44:23.718,-7.8125,31.1251
12:44:23.728,-9.6875,27.3751
12:44:23.738,-11.3125,22.5001
12:44:23.748,-12.3125,18.5001
12:44:23.758,-14.5626,15.6876
12:44:23.768,-14.6251,11.625
12:44:23.778,-16.9376,9
12:44:23.788,-17.3126,6.75
12:44:23.798,-18.1251,4.3125
12:44:23.808,-19.0001,3.375
12:44:23.820,-18.8751,2.5625
12:44:23.828,-19.2501,2.1875
12:44:23.838,-19.3751,1.375
12:44:23.848,-19.0626,2.125
12:44:23.858,-18.9376,1.4375
12:44:23.869,-19.0626,1.9375
12:44:23.878,-19.3751,1.75
12:44:23.888,-19.1876,0.25
12:44:23.898,-19.6876,0.875
12:44:23.908,-19.3751,-1.125
12:44:23.918,-19.7501,-0.5
12:44:23.928,-18.6251,-2
12:44:23.938,-18.4376,-3.1875
12:44:23.948,-18.5001,-2.6875
12:44:23.958,-17.6876,-3.625
12:44:23.968,-18.7501,-6
12:44:23.984,-19.5001,-6.8125
12:44:24.000,-18.7501,-8.875
12:44:24.002,-19.6876,-11.75
12:44:24.010,-20.0001,-12.5
12:44:24.018,-20.7501,-16.3126
12:44:24.028,-22.0626,-18.8751
12:44:24.038,-22.3126,-21.3126
12:44:24.048,-23.3126,-25.1251
12:44:24.059,-25.0626,-27.1876
12:44:24.068,-25.2501,-30.5626
12:44:24.078,-26.1251,-31.9376
12:44:24.089,-24.5626,-29.8751
12:44:24.098,-22.9376,-25.1251
12:44:24.108,-20.8751,-18.4376
12:44:24.118,-18.1876,-11.5
12:44:24.129,-15.7501,-3.5625
12:44:24.143,-14.0001,2.8125
12:44:24.153,-12.5625,9.6875
12:44:24.163,-10.4375,15.4376
12:44:24.192,-9.875,19.8751
12:44:24.193,-9,24.3126
12:44:24.197,-7.6875,28.0001
12:44:24.203,-6.3125,30.5626
12:44:24.228,-6.0625,31.3751
12:44:24.230,-6.0625,31.5001
12:44:24.235,-5.5,30.9376
12:44:24.263,-5.625,29.8126
12:44:24.266,-6.3125,26.8126
12:44:24.268,-6.625,24.3126
12:44:24.274,-8.4375,21.7501
12:44:24.308,-9.0625,17.1251
12:44:24.310,-10.1875,13.4376
12:44:24.314,-12.9375,7.75
12:44:24.314,-14.3751,3.25
12:44:24.349,-15.5001,-2
12:44:24.352,-17.6251,-5.25
12:44:24.354,-18.6251,-9.625
12:44:24.380,-20.0626,-12.4375
12:44:24.385,-21.0001,-14.8126
12:44:24.388,-21.7501,-16.8751
12:44:24.388,-23.1876,-18.9376
12:44:24.393,-22.0626,-18.3751
12:44:24.403,-22.3751,-18.8126
12:44:24.413,-22.5001,-19.3126
12:44:24.425,-21.7501,-18.2501
12:44:24.433,-22.8126,-17.5626
12:44:24.444,-21.5626,-17.2501
12:44:24.454,-22.0001,-18.1876
12:44:24.465,-22.2501,-16.7501
12:44:24.473,-21.6251,-17.0001
12:44:24.483,-21.8126,-17.8126
12:44:24.493,-21.5626,-17.2501
12:44:24.503,-21.8126,-18.4376
12:44:24.513,-22.6251,-19.1876
12:44:24.523,-22.5001,-20.0626
12:44:24.533,-22.1876,-20.4376
12:44:24.543,-21.9376,-22.8126
12:44:24.553,-23.0001,-23.5626
12:44:24.563,-23.0626,-25.8126
12:44:24.580,-23.9376,-28.1251
12:44:24.595,-24.4376,-28.9376
12:44:24.597,-25.0626,-30.9376
12:44:24.613,-25.1876,-33.6876
12:44:24.614,-26.1251,-35.4376
12:44:24.623,-26.5001,-37.8751
12:44:24.633,-26.8126,-40.2502
12:44:24.643,-27.5001,-41.0002
12:44:24.653,-27.1251,-41.6877
12:44:24.663,-27.3751,-37.6876
12:44:24.674,-24.7501,-33.0001
12:44:24.683,-22.7501,-26.3751
12:44:24.693,-21.1876,-18.8126
12:44:24.703,-19.7501,-12.75
12:44:24.713,-18.0626,-4.625
12:44:24.723,-16.3126,2.3125
12:44:24.733,-14.3126,9.125
12:44:24.744,-12.125,15.0001
12:44:24.753,-10.5625,19.6251
12:44:24.763,-8.6875,23.5001
12:44:24.774,-7.4375,26.6876
12:44:24.783,-5.3125,28.6251
12:44:24.793,-4.0625,29.7501
12:44:24.803,-3.125,30.7501
12:44:24.813,-3.375,31.0626
12:44:24.823,-1.5,31.2501
12:44:24.833,-1.25,30.6251
12:44:24.847,-0.0625,29.2501
12:44:24.854,-1.125,27.0001
12:44:24.863,-0.9375,24.6876
12:44:24.873,-2.0625,21.5626
12:44:24.883,-2.9375,19.6251
12:44:24.893,-2.8125,15.9376
12:44:24.903,-4.1875,13.5001
12:44:24.913,-4.8125,10.625
12:44:24.930,-5.6875,9.3125
12:44:24.933,-5.875,7.3125
12:44:24.960,-5.6875,6.75
12:44:24.963,-5.5625,5.5625
12:44:24.967,-5.5,5.5
12:44:24.973,-5.5,6.4375
12:44:25.004,-5.0625,6.25
12:44:25.005,-4.6875,7.1875
12:44:25.009,-3.8125,7.375
12:44:25.036,-4.25,7.6875
12:44:25.036,-4.375,8
12:44:25.039,-4.0625,6.75
12:44:25.044,-4.375,5.125
12:44:25.080,-4.8125,5.9375
12:44:25.082,-4.75,4.8125
12:44:25.084,-5.9375,3.9375
12:44:25.086,-6.875,2.0625
12:44:25.094,-6.5625,-0.5
12:44:25.103,-7.6875,-2.5625
12:44:25.113,-9,-4.125
12:44:25.123,-9.3125,-6.25
12:44:25.133,-10.75,-8.8125
12:44:25.143,-11.6875,-11.75
12:44:25.153,-12.3125,-15.6876
12:44:25.163,-14.0626,-18.8126
12:44:25.173,-15.0626,-21.6251
12:44:25.184,-16.5626,-25.2501
12:44:25.193,-17.8126,-27.1251
12:44:25.203,-18.0001,-29.6251
12:44:25.213,-18.5626,-29.3126
12:44:25.223,-17.2501,-25.6876
12:44:25.233,-15.9376,-20.1876
12:44:25.243,-13.9376,-14.1876
12:44:25.253,-12.9375,-7.875
12:44:25.263,-11.4375,-0.6875
12:44:25.276,-10.1875,6.5
12:44:25.292,-8.25,13.6876
12:44:25.295,-6.625,20.1251
12:44:25.309,-4.0625,25.3751
12:44:25.324,-3.3125,30.7501
12:44:25.328,-1.25,34.5626
12:44:25.343,-0.625,37.5001
12:44:25.346,0.875,39.6877
12:44:25.353,1.4375,39.7502
12:44:25.363,2.5,40.5627
12:44:25.373,2.625,40.3752
12:44:25.383,2.9375,40.1252
12:44:25.393,2.875,38.4376
12:44:25.403,3.375,36.1251
12:44:25.413,1.875,34.1876
12:44:25.423,2.125,30.8751
12:44:25.433,0.9375,28.3126
12:44:25.443,-0.0625,25.0626
12:44:25.453,-0.8125,20.6876
12:44:25.463,-2.125,17.3751
12:44:25.472,-3.125,15.3126
12:44:25.483,-2.625,14.8126
12:44:25.493,-3.5625,12.1875
12:44:25.504,-3.9375,10.875
12:44:25.513,-4.5,11.0625
12:44:25.522,-4.3125,10.125
12:44:25.533,-5.1875,10
12:44:25.543,-4.75,10.3125
12:44:25.553,-5.0625,9.375
12:44:25.563,-5.8125,9.3125
12:44:25.573,-6.1875,8.3125
12:44:25.584,-6.8125,9.1875
12:44:25.594,-6.125,7.5625
12:44:25.606,-6.75,6.5625
12:44:25.613,-7.5625,6.4375
12:44:25.622,-8.1875,5.5625
12:44:25.655,-7.75,4.5
12:44:25.656,-8.0625,3.6875
12:44:25.658,-8.5625,1.875
12:44:25.664,-9,0.1875
12:44:25.698,-9.1875,-1.5
12:44:25.702,-9.3125,-2.6875
12:44:25.704,-10.5625,-5
12:44:25.705,-10.25,-6.9375
12:44:25.736,-10.8125,-8.75
12:44:25.737,-11.9375,-10
12:44:25.739,-11.875,-11.6875
12:44:25.767,-11.9375,-14.8751
12:44:25.768,-11.75,-14.0626
12:44:25.773,-10.25,-10.8125
12:44:25.777,-9.1875,-5.9375
12:44:25.791,-6.5625,0.625
12:44:25.794,-4.75,8.75
12:44:25.827,-2.5625,17.1251
12:44:25.830,0.25,25.1251
12:44:25.831,2.9375,33.1876
12:44:25.835,5.4375,41.3127
12:44:25.843,8.1875,48.5002
12:44:25.854,9.9375,53.5627
12:44:25.863,11.375,58.9377
12:44:25.884,13.0625,61.8127
12:44:25.888,13.5001,63.7502
12:44:25.896,15.0001,63.1877
12:44:25.903,14.3126,63.7502
12:44:25.918,14.1876,62.5627
12:44:25.927,14.5001,61.1877
12:44:25.932,13.8126,58.6252
12:44:25.943,13.2501,55.4377
12:44:25.953,12.625,53.0627
12:44:25.963,11.4375,48.8752
12:44:25.972,10.375,44.6877
12:44:25.984,8.75,40.5627
12:44:25.993,7.1875,36.3126
12:44:26.004,5.3125,31.4376
12:44:26.013,3.25,27.3751
12:44:26.024,2.0625,23.3751
12:44:26.033,0.6875,19.6876
12:44:26.043,-0.8125,17.7501
12:44:26.053,-1.1875,15.3751
12:44:26.063,-1.75,13.7501
12:44:26.073,-2.625,12.625
12:44:26.083,-3.1875,12.3125
12:44:26.093,-3,12.0625
12:44:26.103,-2.875,10.6875
12:44:26.113,-4.5,9.1875
12:44:26.123,-5.625,10.25
12:44:26.133,-5,8.8125
12:44:26.143,-5.25,8.0625
12:44:26.153,-5.875,7.25
12:44:26.161,-6.9375,6.5
12:44:26.173,-6.8125,5.4375
12:44:26.182,-7.5,2.8125
12:44:26.192,-8.125,2.125
12:44:26.203,-9.3125,-0.5
12:44:26.211,-9.875,-2.5
12:44:26.223,-10.25,-4.0625
12:44:26.233,-11.3125,-6.125
12:44:26.243,-11.5625,-7.625
12:44:26.253,-12.25,-10.9375
12:44:26.263,-13.3751,-13.8751
12:44:26.274,-14.4376,-15.2501
12:44:26.283,-15.0001,-18.9376
12:44:26.293,-14.8751,-19.0001
12:44:26.303,-15.0626,-18.9376
12:44:26.313,-14.3751,-16.7501
12:44:26.322,-11.875,-11.5
12:44:26.333,-11.5625,-5.5625
12:44:26.344,-9.1875,1.25
12:44:26.355,-6.75,8.8125
12:44:26.362,-5.5625,18.1876
12:44:26.373,-2.625,25.0626
12:44:26.383,-0.5625,33.1876
12:44:26.394,1.75,38.6876
12:44:26.407,3.1875,43.8127
12:44:26.413,4.9375,49.0002
12:44:26.451,6.375,52.1877
12:44:26.453,7.8125,54.1877
12:44:26.455,8.625,54.4377
12:44:26.458,9.4375,55.8127
12:44:26.463,8.8125,54.0002
12:44:26.498,9.5625,53.6252
12:44:26.500,8.1875,50.9377
12:44:26.502,7.3125,47.1877
12:44:26.504,6.25,44.6877
12:44:26.539,4.75,39.6877
12:44:26.542,3.3125,36.3126
12:44:26.543,1.8125,31.6251
12:44:26.545,1,28.6251
12:44:26.576,-0.6875,23.6251
12:44:26.577,-2.375,21.3126
12:44:26.579,-3.6875,17.6876
12:44:26.587,-3.6875,15.5626
12:44:26.593,-4.5625,14.6251
12:44:26.602,-4.8125,12.9375
12:44:26.618,-5.0625,13
12:44:26.628,-5.125,12.875
12:44:26.635,-4,13.7501
12:44:26.649,-4.125,14.1251
12:44:26.653,-3.625,14.8751
12:44:26.668,-3.375,15.3126
12:44:26.675,-2.625,16.2501
12:44:26.683,-2.5625,16.6876
12:44:26.692,-2.0625,17.0626
12:44:26.703,-2,16.3126
12:44:26.713,-2,16.3126
12:44:26.722,-2.375,15.6251
12:44:26.733,-2.4375,15.0001
12:44:26.743,-2.375,13.1876
12:44:26.753,-3.375,12.1875
12:44:26.763,-2.875,10.4375
12:44:26.772,-3.875,8.1875
12:44:26.783,-4.8125,5.9375
12:44:26.793,-4.625,4.3125
12:44:26.803,-5.6875,0.8125
12:44:26.813,-5.6875,0.25
12:44:26.822,-4.375,0
12:44:26.833,-4.25,-1.5
12:44:26.842,-3.5,0.375
12:44:26.853,-1.8125,3.0625
12:44:26.864,-0.25,8.25
12:44:26.872,1.3125,15.6876
12:44:26.883,4.4375,21.4376
12:44:26.893,6.25,30.4376
12:44:26.903,9.1875,38.4376
12:44:26.934,10.625,45.7502
12:44:26.937,12.1875,53.0002
12:44:26.939,14.2501,57.6877
12:44:26.945,14.7501,60.8752
12:44:26.954,15.0001,64.8752
12:44:26.963,16.3126,65.5628
12:44:26.973,16.3751,67.5628
12:44:26.983,16.0001,66.2503
12:44:26.991,14.7501,64.7502
12:44:27.003,14.6876,62.0627
12:44:27.013,12.3125,58.9377
12:44:27.022,11,56.1252
12:44:27.032,11.0625,51.8752
12:44:27.043,9.3125,47.5002
12:44:27.053,6.5625,41.9377
12:44:27.063,4.875,38.1876
12:44:27.072,3.125,33.0626
12:44:27.083,2.0625,28.4376
12:44:27.097,0.25,24.3751
12:44:27.102,-1.9375,21.8751
12:44:27.114,-2.6875,18.6876
12:44:27.121,-3.9375,16.1251
12:44:27.155,-4.5,14.6876
12:44:27.157,-5.0625,14.4376
12:44:27.161,-5.375,13.2501
12:44:27.163,-5.5625,13.125
12:44:27.193,-5,14.5626
12:44:27.195,-5.4375,14.1876
12:44:27.241,-5.75,14.4376
12:44:27.269,-6.1875,14.1251
12:44:27.298,-6,15.4376
12:44:27.299,-5.9375,16.1876
12:44:27.299,-4.625,16.1251
12:44:27.301,-4.9375,15.9376
12:44:27.303,-5.3125,16.0626
12:44:27.309,-5.5,14.2501
12:44:27.309,-5.1875,14.3751
12:44:27.319,-5.375,12.625
12:44:27.329,-6.8125,11.625
12:44:27.338,-7.6875,9.8125
12:44:27.347,-7.5,7.3125
12:44:27.358,-8.125,5
12:44:27.368,-9,3.625
12:44:27.377,-10.0625,0.3125
12:44:27.389,-10.875,-1.25
12:44:27.396,-11.625,-1.875
12:44:27.407,-10.4375,-2.25
12:44:27.418,-10.25,0.0625
12:44:27.428,-9.0625,4.125
12:44:27.438,-1.9375,36.9376
12:44:27.448,0,43.1877
12:44:27.457,1,48.6877
12:44:27.473,2.8125,54.7502
12:44:27.478,4.8125,59.6877
12:44:27.488,6.0625,62.1877
12:44:27.497,6.75,66.0003
12:44:27.506,8.375,65.9378
12:44:27.519,9,66.1878
12:44:27.528,9.8125,67.1878
12:44:27.538,9.375,65.1877
12:44:27.548,9.375,63.9377
12:44:27.557,10.6875,63.9377
12:44:27.568,9.4375,61.4377
12:44:27.578,8.3125,58.6877
12:44:27.587,6.75,53.3127
12:44:27.598,5.0625,48.0627
12:44:27.608,3.4375,45.8127
12:44:27.618,2.6875,42.0002
12:44:27.627,1.8125,38.7501
12:44:27.638,0.1875,35.1876
12:44:27.648,-2.25,33.3751
12:44:27.658,-2.875,31.3126
12:44:27.668,-4.1875,29.5001
12:44:27.677,-4.5,28.5626
12:44:27.689,-35.0626,-18.6876
12:44:27.698,-14.3751,14.8126
12:44:27.708,-9.625,20.7501
12:44:27.718,-7.8125,24.7501
12:44:27.728,-8.0625,24.8751
12:44:27.737,-12.375,20.2501
12:44:27.748,-16.4376,13.1876
12:44:27.756,-23.7501,4.875
12:44:27.768,-35.3126,-8.625
12:44:27.778,-45.4377,-22.6876
12:44:27.788,-54.5002,-37.9376
12:44:27.799,-64.6877,-51.3752
12:44:27.833,-72.9378,-64.0002
12:44:27.834,-81.4378,-77.1253
12:44:27.837,-89.1253,-89.6253
12:44:27.839,-97.1879,-103.8754
12:44:27.878,-104.4379,-115.9379
12:44:27.879,-109.5629,-126.438
12:44:27.882,-114.0629,-137.0005
12:44:27.885,-115.9379,-144.3755
12:44:27.890,-117.938,-151.3131
12:44:27.903,-120.5005,-156.0006
12:44:27.908,-123.6255,-161.3131
12:44:27.938,-126.188,-162.5006
12:44:27.940,-127.5005,-161.6881
12:44:27.970,-128.6255,-160.3131
12:44:27.986,-129.688,-155.6881
12:44:27.987,-128.313,-151.5006
12:44:27.987,-127.1255,-146.2505
12:44:27.988,-127.0005,-141.438
12:44:27.990,-125.438,-138.2505
12:44:27.998,-124.438,-134.2505
12:44:28.008,-123.688,-132.0005
12:44:28.017,-121.688,-130.063
12:44:28.028,-120.938,-128.2505
12:44:28.038,-119.6255,-129.0005
12:44:28.048,-119.8755,-129.563
12:44:28.060,-119.3755,-131.8755
12:44:28.067,-119.438,-133.688
12:44:28.078,-119.063,-136.313
12:44:28.088,-119.313,-139.6255
12:44:28.099,-119.188,-142.7505
12:44:28.108,-119.1255,-146.0005
12:44:28.118,-118.938,-149.6881
12:44:28.128,-119.5005,-153.5631
12:44:28.138,-119.1255,-157.4381
12:44:28.146,-120.0005,-159.6881
12:44:28.158,-120.188,-163.5006
12:44:28.167,-121.0005,-165.3756
12:44:28.183,-121.1255,-166.3131
12:44:28.216,-121.5005,-168.6256
12:44:28.219,-120.438,-168.1881
12:44:28.220,-119.313,-165.3756
12:44:28.224,-117.563,-164.0006
12:44:28.233,-115.1879,-161.5006
12:44:28.242,-113.4379,-157.7506
12:44:28.253,-111.3129,-155.3756
12:44:28.261,-108.3754,-152.1881
12:44:28.273,-107.5004,-150.1881
12:44:28.283,-105.3129,-149.4381
12:44:28.292,-104.6879,-147.5631
12:44:28.303,-103.4379,-147.3756
12:44:28.312,-102.1879,-147.5006
12:44:28.323,-101.9379,-147.1881
12:44:28.332,-101.5629,-148.6256
12:44:28.342,-101.3754,-149.5006
12:44:28.358,-98.8754,-150.5006
12:44:28.364,-98.9379,-151.3131
12:44:28.373,-96.7504,-151.8756
12:44:28.383,-96.5004,-152.1881
12:44:28.393,-95.0629,-152.9381
12:44:28.403,-94.3129,-153.9381
12:44:28.412,-93.8129,-155.2506
12:44:28.423,-92.5004,-155.5006
12:44:28.432,-92.9379,-155.5631
12:44:28.443,-91.2504,-155.4381
12:44:28.453,-88.1878,-149.7506
12:44:28.462,-85.0003,-140.1255
12:44:28.473,-79.5628,-127.813
12:44:28.483,-76.1253,-115.0004
12:44:28.493,-71.0628,-102.1879
12:44:28.503,-66.8753,-90.5004
12:44:28.513,-63.3752,-80.3128
12:44:28.523,-59.1252,-70.3753
12:44:28.553,-56.7502,-61.5627
12:44:28.556,-52.3127,-56.0002
12:44:28.621,-50.5002,-49.4377
12:44:28.623,-47.5002,-46.5627
12:44:28.627,-44.5627,-43.1877
12:44:28.627,-43.4377,-41.4377
12:44:28.627,-42.2502,-41.0002
12:44:28.634,-41.5002,-41.2502
12:44:28.669,-40.6877,-42.2502
12:44:28.671,-39.7502,-43.0002
12:44:28.675,-40.0002,-46.6877
12:44:28.676,-39.6252,-49.2502
12:44:28.708,-41.8127,-52.2502
12:44:28.709,-41.8752,-57.5002
12:44:28.712,-43.1877,-59.7502
12:44:28.718,-43.8127,-64.8752
12:44:28.723,-44.0627,-66.8753
12:44:28.735,-44.7502,-68.8753
12:44:28.744,-44.1252,-69.8753
12:44:28.753,-44.3127,-70.1878
12:44:28.763,-43.8127,-70.5003
12:44:28.773,-43.1877,-70.5003
12:44:28.782,-43.1877,-69.5628
12:44:28.792,-42.9377,-69.8128
12:44:28.803,-42.3127,-67.6253
12:44:28.814,-41.5627,-67.6253
12:44:28.824,-40.5002,-67.8128
12:44:28.833,-41.4377,-67.6878
12:44:28.841,-41.3752,-69.2503
12:44:28.853,-41.0002,-69.8753
12:44:28.863,-42.0627,-69.6878
12:44:28.873,-41.6252,-72.7503
12:44:28.883,-41.5002,-74.0628
12:44:28.893,-41.8127,-75.1878
12:44:28.902,-42.6877,-78.1253
12:44:28.913,-42.1877,-79.1253
12:44:28.922,-42.8127,-80.0003
12:44:28.933,-42.6877,-82.6878
12:44:28.943,-42.3752,-85.1253
12:44:28.953,-42.6877,-86.8128
12:44:28.964,-43.7502,-90.0629
12:44:28.973,-43.6877,-92.5629
12:44:28.982,-45.4377,-94.8754
12:44:28.993,-45.5002,-98.0004
12:44:29.003,-45.3127,-99.7504
12:44:29.011,-45.3127,-97.4379
12:44:29.023,-43.4377,-91.9379
12:44:29.033,-40.1252,-80.3128
12:44:29.042,-36.3751,-67.0628
12:44:29.053,-32.8751,-55.2502
12:44:29.063,-28.1876,-44.1877
12:44:29.072,-25.8126,-33.4376
12:44:29.083,-21.9376,-23.4376
12:44:29.093,-19.6251,-14.2501
12:44:29.102,-16.6251,-6.75
12:44:29.114,-13.3751,-1.8125
12:44:29.123,-10.75,3.8125
12:44:29.132,-9.625,5.3125
12:44:29.143,-7.6875,7.25
12:44:29.151,-7.375,7.125
12:44:29.163,-6.75,6.0625
12:44:29.172,-6.0625,5.4375
12:44:29.181,-6.4375,4
12:44:29.191,-7.4375,0.6875
12:44:29.203,-7.5,-3.25
12:44:29.212,-8.6875,-7.75
12:44:29.223,-9.9375,-12.9375
12:44:29.233,-10.5625,-16.6876
12:44:29.251,-12.375,-19.2501
12:44:29.254,-12.375,-22.6251
12:44:29.289,-12.5,-25.1876
12:44:29.291,-14.3751,-26.8751
12:44:29.319,-14.9376,-29.8126
12:44:29.320,-15.2501,-29.4376
12:44:29.332,-15.4376,-30.5001
12:44:29.335,-15.1251,-29.3126
12:44:29.338,-14.6876,-29.8751
12:44:29.339,-14.7501,-28.0626
12:44:29.342,-14.4376,-27.8751
12:44:29.377,-13.6876,-26.5626
12:44:29.378,-13.5626,-27.3126
12:44:29.381,-13.4376,-27.5626
12:44:29.383,-14.0001,-26.6251
12:44:29.422,-14.0626,-27.8126
12:44:29.424,-14.1876,-29.0001
12:44:29.428,-13.8126,-29.5001
12:44:29.433,-13.5626,-30.5001
12:44:29.435,-14.3126,-32.0626
12:44:29.453,-15.1251,-35.0001
12:44:29.454,-15.6251,-35.7501
12:44:29.463,-14.9376,-38.7501
12:44:29.494,-16.3751,-40.0627
12:44:29.496,-17.0626,-42.9377
12:44:29.498,-17.9376,-45.4377
12:44:29.505,-18.6251,-47.4377
12:44:29.519,-18.3751,-50.2502
12:44:29.523,-19.0001,-53.0002
12:44:29.533,-20.1251,-55.6877
12:44:29.543,-20.4376,-58.3752
12:44:29.552,-20.6876,-60.4377
12:44:29.563,-21.7501,-61.5627
12:44:29.573,-21.6876,-63.6252
12:44:29.584,-21.4376,-61.9377
12:44:29.593,-20.6251,-56.1877
12:44:29.602,-17.3751,-46.9377
12:44:29.612,-14.3751,-35.1876
12:44:29.623,-11.4375,-24.8126
12:44:29.633,-7.75,-13.6876
12:44:29.642,-4.625,-3.0625
12:44:29.654,-1.875,5.375
12:44:29.661,1.625,13.3751
12:44:29.673,3.25,19.3126
12:44:29.683,5.25,23.7501
12:44:29.693,6.1875,27.0001
12:44:29.703,7.6875,28.1251
12:44:29.711,8.375,28.9376
12:44:29.723,8.25,28.3126
12:44:29.731,8.4375,25.3126
12:44:29.744,9.0625,24.8751
12:44:29.752,7.5625,21.9376
12:44:29.762,7.125,17.6251
12:44:29.771,6.0625,13.5001
12:44:29.782,4.125,8.375
12:44:29.793,2.5,2.625
12:44:29.801,1.4375,-1.8125
12:44:29.812,-0.8125,-6.75
12:44:29.823,-1.75,-11.3125
12:44:29.832,-3.625,-13.4376
12:44:29.843,-4.625,-16.1876
12:44:29.853,-4.9375,-18.3126
12:44:29.862,-5,-18.1251
12:44:29.877,-4.8125,-18.9376
12:44:29.885,-5.625,-18.6876
12:44:29.899,-4.75,-18.8751
12:44:29.915,-4.9375,-18.3751
12:44:29.931,-4.5625,-18.1251
12:44:29.933,-4.625,-18.4376
12:44:29.935,-5.0625,-19.5001
12:44:29.941,-4.875,-19.5001
12:44:29.954,-5.625,-20.0626
12:44:29.962,-5.5625,-21.4376
12:44:29.971,-6.5,-22.6876
12:44:29.983,-7.875,-24.0626
12:44:29.991,-8,-27.1251
12:44:30.021,-8.6875,-28.6251
12:44:30.023,-10.0625,-31.6251
12:44:30.024,-10.1875,-34.9376
12:44:30.065,-11.375,-37.1251
12:44:30.067,-12.375,-39.5627
12:44:30.070,-13.1876,-41.4377
12:44:30.073,-14.2501,-44.9377
12:44:30.078,-14.5001,-47.4377
12:44:30.082,-16.6251,-50.8752
12:44:30.110,-16.5001,-53.8752
12:44:30.113,-18.6251,-57.5002
12:44:30.115,-20.0626,-61.5627
12:44:30.149,-21.0626,-65.3752
12:44:30.151,-22.6251,-69.1878
12:44:30.153,-22.9376,-70.5628
12:44:30.155,-24.1251,-72.8128
12:44:30.163,-23.7501,-70.9378
12:44:30.187,-22.0626,-66.0003
12:44:30.188,-19.3751,-55.2502
12:44:30.193,-16.0001,-43.6877
12:44:30.202,-11.625,-29.8126
12:44:30.212,-7.5625,-18.0626
12:44:30.227,-3.5,-6.625
12:44:30.232,-1.1875,3.6875
12:44:30.243,2.25,13.8126
12:44:30.253,5.5625,21.2501
12:44:30.262,9.375,28.9376
12:44:30.277,11.25,32.6251
12:44:30.282,12.5,35.3751
12:44:30.292,13.3126,35.6251
12:44:30.302,13.6876,35.5001
12:44:30.312,13.6251,34.0626
12:44:30.321,12.5625,31.3751
12:44:30.333,12.3125,28.6251
12:44:30.342,11.1875,25.6251
12:44:30.353,10.625,21.3751
12:44:30.362,9.8125,17.3126
12:44:30.373,8.4375,12.9375
12:44:30.382,7.5625,8.125
12:44:30.394,5.3125,3.25
12:44:30.402,3.5625,-1
12:44:30.414,1.5,-4.1875
12:44:30.422,0.5625,-9.0625
12:44:30.433,-0.4375,-11
12:44:30.441,-1.375,-13.1251
12:44:30.452,-1.3125,-13.1251
12:44:30.463,-1.9375,-14.3751
12:44:30.473,-1.75,-13.8126
12:44:30.482,-1.8125,-13.6876
12:44:30.492,-1.5,-12.9375
12:44:30.501,-1.875,-12.75
12:44:30.513,-2.125,-12.375
12:44:30.526,-1.125,-12.125
12:44:30.534,-2.1875,-12.9375
12:44:30.541,-2,-13.4376
12:44:30.552,-2.9375,-14.9376
12:44:30.562,-2.8125,-17.3126
12:44:30.573,-3.9375,-19.5626
12:44:30.582,-4.375,-21.7501
12:44:30.601,-6,-23.7501
12:44:30.604,-6.6875,-26.3126
12:44:30.619,-6.6875,-28.5626
12:44:30.626,-8.6875,-30.9376
12:44:30.633,-9.875,-34.6251
12:44:30.641,-10.3125,-37.3751
12:44:30.652,-11.5625,-40.0627
12:44:30.662,-12.625,-44.8127
12:44:30.671,-13.7501,-46.9377
12:44:30.682,-15.0001,-50.3752
12:44:30.692,-15.5001,-53.6252
12:44:30.702,-16.7501,-56.5002
12:44:30.712,-18.2501,-60.1877
12:44:30.748,-18.7501,-63.6877
12:44:30.750,-21.1251,-67.6253
12:44:30.753,-21.5626,-69.9378
12:44:30.778,-22.6251,-71.8128
12:44:30.779,-22.6876,-72.4378
12:44:30.782,-20.8751,-66.2503
12:44:30.817,-17.8126,-56.3127
12:44:30.817,-13.9376,-43.5627
12:44:30.818,-10.25,-30.8126
12:44:30.849,-6.0625,-18.3126
12:44:30.850,-2.875,-6.8125
12:44:30.851,0.875,3.75
12:44:30.852,3.5,13.1251
12:44:30.859,7.1875,20.9376
12:44:30.865,9.6875,28.1251
12:44:30.899,11.625,31.3126
12:44:30.901,13.6876,34.5626
12:44:30.904,14.4376,35.8126
12:44:30.909,14.1876,35.3751
12:44:30.914,14.8126,34.4376
12:44:30.921,14.5001,32.2501
12:44:30.934,13.6251,30.1876
12:44:30.942,13.3126,26.6251
12:44:30.953,12.625,21.6251
12:44:30.962,11.5625,19.0626
12:44:30.974,9.875,13.5626
12:44:30.982,8.3125,8.6875
12:44:30.993,6.75,3.375
12:44:31.002,4.4375,-1.875
12:44:31.013,3,-5.5625
12:44:31.022,1.5,-9.875
12:44:31.037,0.4375,-12.5
12:44:31.042,-0.8125,-14.6251
12:44:31.052,-1.5,-16.6876
12:44:31.062,-0.9375,-16.2501
12:44:31.073,-2.25,-16.8126
12:44:31.082,-1.9375,-17.7501
12:44:31.092,-2.9375,-18.0626
12:44:31.102,-3,-17.7501
12:44:31.112,-3.6875,-18.3126
12:44:31.123,-3.3125,-18.8751
12:44:31.132,-4.6875,-19.1251
12:44:31.142,-3.5625,-19.6876
12:44:31.153,-5.375,-21.3751
12:44:31.161,-5,-22.0626
12:44:31.172,-6.375,-24.8126
12:44:31.182,-6.625,-26.3126
12:44:31.199,-7.375,-28.3751
12:44:31.205,-7.8125,-31.0626
12:44:31.220,-7.9375,-32.8751
12:44:31.223,-8.4375,-35.0626
12:44:31.238,-10.25,-37.5626
12:44:31.243,-10.75,-39.9377
12:44:31.252,-11,-43.0002
12:44:31.263,-12.9375,-45.0002
12:44:31.273,-13.8126,-49.3127
12:44:31.282,-14.8751,-50.8752
12:44:31.293,-15.4376,-54.4377
12:44:31.302,-15.4376,-57.3127
12:44:31.312,-17.3751,-60.1877
12:44:31.322,-18.1251,-63.7502
12:44:31.331,-18.5001,-65.6253
12:44:31.341,-19.7501,-68.9378
12:44:31.352,-19.5626,-70.5003
12:44:31.364,-20.5626,-73.1878
12:44:31.372,-20.5001,-71.6878
12:44:31.382,-19.1876,-67.3128
12:44:31.393,-15.3751,-56.6252
12:44:31.402,-12.3125,-42.0627
12:44:31.417,-7.875,-30.0626
12:44:31.423,-3.875,-18.1876
12:44:31.437,-1.625,-6.25
12:44:31.473,2.875,4.375
12:44:31.474,6.4375,14.1876
12:44:31.478,9.625,22.4376
12:44:31.478,12.125,29.3751
12:44:31.483,13.8126,32.4376
12:44:31.509,15.6876,36.5626
12:44:31.511,17.0626,36.7501
12:44:31.515,17.9376,37.5626
12:44:31.542,16.5626,37.1876
12:44:31.544,16.7501,33.9376
12:44:31.549,17.4376,31.3126
12:44:31.555,15.8751,27.6251
12:44:31.562,15.1251,23.3751
12:44:31.590,13.6251,18.2501
12:44:31.598,11.875,14.8751
12:44:31.598,10.1875,8.125
12:44:31.603,8.9375,3.9375
12:44:31.613,7.125,-1.25
12:44:31.621,5,-5.4375
12:44:31.633,3.5625,-8.125
12:44:31.641,3.375,-11.4375
12:44:31.653,2.625,-13.4376
12:44:31.662,1.9375,-13.6876
12:44:31.672,1.9375,-14.2501
12:44:31.682,1.375,-14.8751
12:44:31.692,1.0625,-13.6876
12:44:31.702,1.5625,-12.5
12:44:31.714,1.8125,-13.0625
12:44:31.722,1.4375,-12.8125
12:44:31.731,1.0625,-11.875
12:44:31.742,1.4375,-13.1876
12:44:31.753,1.9375,-13.6876
12:44:31.763,0.8125,-13.6251
12:44:31.772,1.5625,-14.2501
12:44:31.783,0.4375,-16.0626
12:44:31.792,0.25,-17.7501
12:44:31.802,-0.6875,-20.5626
12:44:31.812,-2.125,-21.6251
12:44:31.822,-2.4375,-24.8126
12:44:31.832,-2.8125,-27.4376
12:44:31.842,-3.75,-29.0626
12:44:31.852,-4.6875,-32.5626
12:44:31.862,-5.6875,-34.0626
12:44:31.871,-6.6875,-37.8126
12:44:31.882,-7.9375,-40.4377
12:44:31.897,-8.25,-43.5002
12:44:31.912,-9.6875,-46.9377
12:44:31.914,-11,-48.0002
12:44:31.930,-12.125,-53.3752
12:44:31.945,-12.875,-57.1877
12:44:31.947,-13.3751,-59.2502
12:44:31.956,-14.8126,-62.6877
12:44:31.963,-16.0001,-64.3752
12:44:31.973,-16.0001,-64.8752
12:44:31.982,-14.5626,-59.7502
12:44:31.992,-12.3125,-50.3127
12:44:32.004,-8.75,-38.1876
12:44:32.013,-5.625,-25.9376
12:44:32.022,-2.1875,-14.8751
12:44:32.054,0.8125,-4.375
12:44:32.058,4.3125,5.5
12:44:32.058,7.375,14.0626
12:44:32.063,9.625,21.7501
12:44:32.072,12.125,27.0001
12:44:32.083,13,30.5001
12:44:32.092,14.8751,31.5001
12:44:32.102,15.3751,33.3751
12:44:32.111,16.4376,32.0001
12:44:32.122,16.1251,31.4376
12:44:32.133,15.1876,28.7501
12:44:32.142,15.4376,25.5001
12:44:32.152,15.0626,21.5626
12:44:32.164,12.75,17.5001
12:44:32.172,11.6875,11.5
12:44:32.182,11.0625,6.9375
12:44:32.193,9.1875,1.5625
12:44:32.224,8.0625,-3.125
12:44:32.225,6.125,-7.1875
12:44:32.228,4.625,-11.625
12:44:32.243,2.75,-15.3126
12:44:32.248,1.25,-18.0001
12:44:32.279,0,-21.4376
12:44:32.282,-0.9375,-23.1251
12:44:32.284,-1.5,-23.0626
12:44:32.311,-1.875,-24.0626
12:44:32.313,-1.4375,-22.3751
12:44:32.315,-1.375,-22.6876
12:44:32.323,-1.125,-22.2501
12:44:32.336,-1.0625,-21.3126
12:44:32.339,-0.625,-20.6251
12:44:32.370,-0.5625,-20.8126
12:44:32.372,-1.375,-22.2501
12:44:32.375,-2.125,-24.3751
12:44:32.379,-3.5625,-25.8126
12:44:32.389,-3.0625,-27.3751
12:44:32.397,-4.3125,-29.8751
12:44:32.407,-4.375,-31.9376
12:44:32.417,-4.8125,-33.9376
12:44:32.427,-5.875,-36.8126
12:44:32.437,-7.4375,-38.7501
12:44:32.447,-8.375,-41.3127
12:44:32.459,-9.5625,-45.3127
12:44:32.467,-10.875,-47.5002
12:44:32.477,-11.25,-51.0627
12:44:32.487,-11.75,-52.6877
12:44:32.507,-13.0625,-55.5627
12:44:32.514,-13.0625,-58.5627
12:44:32.528,-14.3751,-60.8127
12:44:32.530,-15.4376,-63.6877
12:44:32.544,-16.3751,-66.5628
12:44:32.548,-17.5001,-70.2503
12:44:32.557,-18.6251,-73.7503
12:44:32.567,-19.7501,-76.1253
12:44:32.577,-20.1876,-76.3753
12:44:32.587,-19.1251,-74.3753
12:44:32.597,-16.8126,-65.8128
12:44:32.607,-12.5,-52.3127
12:44:32.617,-8.75,-38.0626
12:44:32.627,-4.8125,-25.9376
12:44:32.637,-2.125,-12.1875
12:44:32.646,2.5,-2.75
12:44:32.657,5.625,7.9375
12:44:32.667,8.3125,15.5001
12:44:32.677,10.875,21.7501
12:44:32.687,13.5001,27.5626
12:44:32.696,15.1876,29.7501
12:44:32.707,16.4376,31.6251
12:44:32.717,16.8126,32.4376
12:44:32.728,17.8126,32.6876
12:44:32.736,17.8751,29.9376
12:44:32.746,17.1876,27.1251
12:44:32.757,15.8751,23.6251
12:44:32.767,14.5626,18.6876
12:44:32.778,12.8125,13.2501
12:44:32.786,11.625,9.375
12:44:32.797,10.3125,4.125
12:44:32.807,8.6875,-0.8125
12:44:32.818,7.25,-7
12:44:32.826,4.8125,-11
12:44:32.838,3.5625,-14.9376
12:44:32.846,1.5,-19.3751
12:44:32.858,0.25,-22.2501
12:44:32.867,-0.6875,-24.4376
12:44:32.877,-0.75,-25.2501
12:44:32.886,-1.25,-26.6876
12:44:32.905,-1.3125,-26.2501
12:44:32.908,-2,-25.6876
12:44:32.938,-1.9375,-25.5626
12:44:32.940,-1.75,-25.2501
12:44:32.945,-3,-25.0626
12:44:32.950,-2.125,-24.9376
12:44:32.976,-3.0625,-25.5626
12:44:32.981,-3.125,-27.0001
12:44:32.981,-3.875,-27.4376
12:44:32.987,-4.125,-29.1251
12:44:33.023,-5.5,-31.4376
12:44:33.023,-5.625,-33.5626
12:44:33.025,-7.125,-35.9376
12:44:33.028,-8.125,-38.5001
12:44:33.062,-9.1875,-40.7502
12:44:33.065,-10.25,-44.6877
12:44:33.066,-10.5,-47.0002
12:44:33.068,-12.75,-49.7502
12:44:33.088,-12.75,-53.0627
12:44:33.088,-14.4376,-55.4377
12:44:33.097,-14.7501,-58.0627
12:44:33.107,-15.1876,-60.3752
12:44:33.117,-16.0001,-63.9377
12:44:33.126,-16.5626,-66.0628
12:44:33.137,-18.8126,-69.9378
12:44:33.147,-19.4376,-73.2503
12:44:33.157,-21.4376,-77.2503
12:44:33.166,-23.6876,-82.2503
12:44:33.177,-24.4376,-84.4378
12:44:33.187,-25.2501,-87.8753
12:44:33.196,-25.7501,-87.1878
12:44:33.207,-23.9376,-82.2503
12:44:33.217,-20.4376,-71.5003
12:44:33.238,-16.7501,-56.8127
12:44:33.240,-13.125,-43.3127
12:44:33.250,-9.9375,-30.6876
12:44:33.257,-6.625,-20.8126
12:44:33.272,-3.1875,-10.1875
12:44:33.281,0.125,-1.875
12:44:33.286,3.125,7
12:44:33.299,6.6875,13.5001
12:44:33.307,8.125,17.1251
12:44:33.333,10.0625,19.6876
12:44:33.336,10.6875,21.1251
12:44:33.340,11,19.8751
12:44:33.349,11.375,18.9376
12:44:33.357,10.875,17.2501
12:44:33.367,10.25,12.375
12:44:33.377,9.625,9.625
12:44:33.387,8.3125,5.5625
12:44:33.397,8.3125,1.5
12:44:33.407,6.5,-2.625
12:44:33.418,5.4375,-8.6875
12:44:33.427,3.25,-13.3751
12:44:33.437,2.125,-20.0626
12:44:33.447,0.6875,-25.1876
12:44:33.461,-1.875,-28.8126
12:44:33.467,-3.5,-33.4376
12:44:33.477,-5.3125,-36.5001
12:44:33.486,-6.8125,-39.5002
12:44:33.497,-7.4375,-41.0627
12:44:33.507,-7.375,-42.0002
12:44:33.517,-7.8125,-41.4377
12:44:33.527,-7.8125,-41.2502
12:44:33.537,-7.5625,-40.5627
12:44:33.548,-8.125,-40.3752
12:44:33.557,-7.6875,-40.1252
12:44:33.567,-8.375,-40.0002
12:44:33.577,-8.1875,-38.5001
12:44:33.586,-8.125,-39.6877
12:44:33.597,-8.5625,-39.0001
12:44:33.606,-8.9375,-41.8127
12:44:33.630,-9.3125,-42.1877
12:44:33.632,-10.125,-44.8752
12:44:33.664,-10.375,-46.0627
12:44:33.666,-11.625,-48.6252
12:44:33.668,-12.0625,-51.1252
12:44:33.670,-12.6875,-51.8127
12:44:33.708,-13.125,-54.0627
12:44:33.709,-12.9375,-57.0627
12:44:33.711,-13.4376,-58.5002
12:44:33.714,-14.3751,-59.8127
12:44:33.719,-15.3126,-64.3127
12:44:33.753,-15.5001,-66.6878
12:44:33.754,-16.9376,-69.3753
12:44:33.754,-17.8751,-73.0628
12:44:33.788,-19.0626,-76.3753
12:44:33.789,-19.5626,-78.5628
12:44:33.792,-21.3751,-81.9378
12:44:33.799,-21.3751,-84.5003
12:44:33.799,-23.4376,-85.8128
12:44:33.814,-22.5001,-86.0628
12:44:33.821,-20.8126,-78.8128
12:44:33.836,-17.2501,-68.2503
12:44:33.845,-12.375,-51.8752
12:44:33.859,-8.75,-35.6251
12:44:33.862,-4.875,-23.7501
12:44:33.867,-2.3125,-12.6875
12:44:33.877,1.125,-4.8125
12:44:33.887,4.9375,3.6875
12:44:33.897,6.4375,9.875
12:44:33.907,8.6875,15.0626
12:44:33.918,10.6875,18.5001
12:44:33.927,12,19.8751
12:44:33.937,13.6876,21.1876
12:44:33.947,14.3751,20.3751
12:44:33.957,14.0001,19.0001
12:44:33.968,14.1251,16.3126
12:44:33.977,13.6251,14.2501
12:44:33.988,13.6876,9.1875
12:44:33.997,12.3125,5.125
12:44:34.007,11,-0.3125
12:44:34.017,9.4375,-5.9375
12:44:34.027,8.1875,-11.125
12:44:34.036,6.75,-16.0001
12:44:34.047,6.4375,-20.9376
12:44:34.057,3.75,-24.3751
12:44:34.066,3.3125,-27.5001
12:44:34.077,2.8125,-30.6876
12:44:34.086,0.8125,-32.8126
12:44:34.097,0.1875,-34.6251
12:44:34.107,-1.0625,-35.3126
12:44:34.116,-0.4375,-35.5626
12:44:34.127,-1.5625,-33.8751
12:44:34.137,-0.4375,-33.5626
12:44:34.146,-0.875,-31.7501
12:44:34.157,-0.625,-30.8751
12:44:34.167,-0.125,-30.8751
12:44:34.177,-0.25,-29.1251
12:44:34.187,0.1875,-29.4376
12:44:34.197,-0.125,-28.8751
12:44:34.212,-0.9375,-30.5626
12:44:34.217,-0.875,-30.8126
12:44:34.231,-1.5625,-33.8126
12:44:34.238,-2.25,-34.3751
12:44:34.246,-2.8125,-36.9376
12:44:34.258,-3.5625,-38.2501
12:44:34.268,-3.9375,-41.1877
12:44:34.277,-3.9375,-43.2502
12:44:34.287,-5.6875,-44.6252
12:44:34.303,-5.8125,-47.8752
12:44:34.307,-6.875,-49.4377
12:44:34.317,-7.75,-53.3752
12:44:34.328,-8.375,-56.1252
12:44:34.337,-9.4375,-59.0002
12:44:34.347,-11.6875,-61.2502
12:44:34.357,-12.875,-66.9378
12:44:34.368,-13.4376,-69.4378
12:44:34.382,-14.3126,-71.5628
12:44:34.387,-15.6876,-74.6253
12:44:34.413,-15.6876,-75.1253
12:44:34.415,-15.5626,-70.6253
12:44:34.418,-12.625,-62.2502
12:44:34.457,-8.25,-48.9377
12:44:34.458,-4.5,-33.8751
12:44:34.460,-0.4375,-20.5626
12:44:34.463,2.0625,-10.9375
12:44:34.469,3.6875,-1.8125
12:44:34.476,6.25,4.125
12:44:34.509,8.25,10.5625
12:44:34.511,9.5625,14.3126
12:44:34.513,11.1875,16.7501
12:44:34.518,12.5,18.9376
12:44:34.557,12.5625,18.3751
12:44:34.560,13.0625,17.3126
12:44:34.575,13.3126,15.3126
12:44:34.578,13.4376,12.375
12:44:34.617,12.125,10.1875
12:44:34.617,11.8125,4.5
12:44:34.617,10.625,0.375
12:44:34.619,9.8125,-4.0625
12:44:34.624,8.1875,-11.4375
12:44:34.625,6.5625,-16.0626
12:44:34.628,5.0625,-21.6251
12:44:34.637,3.0625,-27.8126
12:44:34.647,1.625,-32.3126
12:44:34.657,-0.0625,-35.0001
12:44:34.667,-1.75,-38.7501
12:44:34.677,-2.3125,-41.9377
12:44:34.690,-3.125,-43.8127
12:44:34.697,-4.25,-45.3127
12:44:34.708,-5.3125,-45.5002
12:44:34.718,-5.4375,-45.1252
12:44:34.726,-5.3125,-45.0627
12:44:34.737,-4.5,-44.0627
12:44:34.746,-4.5,-42.5627
12:44:34.757,-5.125,-41.6877
12:44:34.767,-5.375,-41.7502
12:44:34.777,-4.625,-41.0627
12:44:34.787,-4.9375,-42.0627
12:44:34.797,-5.5625,-42.0002
12:44:34.807,-6.0625,-43.8752
12:44:34.818,-7.1875,-44.0627
12:44:34.827,-7.8125,-46.8752
12:44:34.837,-8.6875,-48.3127
12:44:34.846,-9.25,-50.9377
12:44:34.858,-10.1875,-52.7502
12:44:34.868,-10.5625,-54.3127
12:44:34.877,-10.625,-56.2502
12:44:34.887,-11.75,-58.8127
12:44:34.896,-11.875,-61.1877
12:44:34.907,-12.625,-63.5627
12:44:34.917,-13.4376,-65.0002
12:44:34.927,-13.8751,-69.3128
12:44:34.937,-15.6876,-71.9378
12:44:34.946,-15.9376,-75.1878
12:44:34.957,-17.1251,-78.0628
12:44:34.970,-18.4376,-80.0628
12:44:34.976,-18.5001,-81.2503
12:44:34.987,-18.5001,-79.1253
12:44:34.996,-15.6251,-72.3128
12:44:35.007,-12.8125,-60.2502
12:44:35.017,-7.375,-44.1877
12:44:35.027,-4.125,-28.9376
12:44:35.037,-0.4375,-17.7501
12:44:35.047,0.8125,-8.625
12:44:35.057,2.75,-1.125
12:44:35.083,5.625,4.9375
12:44:35.085,7.25,11.3125
12:44:35.088,9.375,14.3126
12:44:35.152,10.9375,18.3126
12:44:35.154,12.4375,19.1876
12:44:35.156,13.0625,19.1876
12:44:35.158,13.3751,17.6251
12:44:35.185,12.5625,15.0001
12:44:35.185,12.5,11.1875
12:44:35.185,11.625,7.8125
12:44:35.189,10.5,5.5625
12:44:35.190,10.4375,-0.75
12:44:35.193,9.5625,-6.125
12:44:35.202,8.5,-10.5625
12:44:35.239,6.6875,-16.8126
12:44:35.242,4.875,-21.3126
12:44:35.244,3.125,-26.7501
12:44:35.247,1.5,-30.4376
12:44:35.252,0.8125,-34.5001
12:44:35.262,-0.6875,-37.1251
12:44:35.272,-1.6875,-39.6877
12:44:35.282,-2.5625,-40.8752
12:44:35.292,-2.4375,-40.5627
12:44:35.302,-3.0625,-40.1877
12:44:35.311,-2.5625,-39.0626
12:44:35.323,-2.625,-37.6876
12:44:35.332,-2.625,-35.9376
12:44:35.346,-3.125,-36.3751
12:44:35.352,-3.125,-37.0626
12:44:35.362,-3,-35.7501
12:44:35.372,-3.875,-35.5626
12:44:35.382,-3.4375,-37.3126
12:44:35.391,-4.4375,-37.1876
12:44:35.403,-4.75,-38.5001
12:44:35.412,-5.375,-40.6252
12:44:35.423,-5.5625,-41.8127
12:44:35.432,-5.9375,-43.0627
12:44:35.442,-7.25,-45.5002
12:44:35.452,-8.1875,-48.7502
12:44:35.461,-8.75,-50.6877
12:44:35.472,-10.25,-53.2502
12:44:35.483,-11.25,-56.5002
12:44:35.492,-11.0625,-59.1877
12:44:35.502,-12.6875,-61.5002
12:44:35.512,-13.0625,-63.8127
12:44:35.522,-13.6876,-65.8128
12:44:35.532,-14.7501,-69.5003
12:44:35.543,-15.7501,-72.5003
12:44:35.553,-17.1876,-74.6878
12:44:35.561,-17.6251,-77.3753
12:44:35.573,-17.6251,-75.9378
12:44:35.583,-15.9376,-70.1878
12:44:35.592,-11.9375,-59.2502
12:44:35.603,-7.875,-42.8752
12:44:35.612,-3.5,-27.7501
12:44:35.622,-0.4375,-14.6251
12:44:35.632,1.8125,-6.3125
12:44:35.641,3.75,1.125
12:44:35.651,6.4375,7.1875
12:44:35.662,8.625,14.6251
12:44:35.671,11.25,18.2501
12:44:35.682,12.125,22.6251
12:44:35.692,14.0626,23.5001
12:44:35.701,14.3751,24.1876
12:44:35.712,14.3126,23.1251
12:44:35.722,14.0626,21.3751
12:44:35.733,13.4376,18.4376
12:44:35.741,12.875,14.1876
12:44:35.752,12.9375,9.75
12:44:35.761,11.75,6.1875
12:44:35.772,10.375,0.6875
12:44:35.782,9.75,-3.625
12:44:35.791,8.125,-9.5625
12:44:35.808,6,-14.6876
12:44:35.813,4.875,-20.0001
12:44:35.838,3.75,-24.6251
12:44:35.840,2.375,-27.3126
12:44:35.843,1.0625,-31.1251
12:44:35.885,-0.5625,-33.3126
12:44:35.887,-1.375,-35.5626
12:44:35.888,-1.5,-35.5001
12:44:35.901,-1,-35.4376
12:44:35.907,-1.3125,-34.5626
12:44:35.908,-1.75,-33.0626
12:44:35.912,-1.375,-32.0626
12:44:35.944,-0.9375,-31.5626
12:44:35.948,-1.625,-29.8126
12:44:35.950,-1.125,-30.1251
12:44:35.953,-2.375,-29.3751
12:44:35.981,-1.75,-30.2501
12:44:35.983,-2.1875,-30.6251
12:44:35.986,-2.5625,-32.0001
12:44:35.992,-2.75,-33.0626
12:44:36.001,-4.25,-35.2501
12:44:36.012,-4.25,-36.9376
12:44:36.021,-5.375,-38.7501
12:44:36.033,-5.1875,-41.0002
12:44:36.042,-6.9375,-43.3127
12:44:36.052,-7.1875,-45.7502
12:44:36.063,-9,-48.1252
12:44:36.072,-9.5625,-51.4377
12:44:36.082,-10.5625,-53.2502
12:44:36.100,-12.25,-57.9377
12:44:36.103,-12.875,-60.3752
12:44:36.112,-14.5001,-63.0627
12:44:36.123,-15.2501,-66.3753
12:44:36.133,-15.4376,-69.5628
12:44:36.141,-16.3751,-70.4378
12:44:36.152,-16.2501,-70.6878
12:44:36.162,-14.4376,-66.1878
12:44:36.172,-11.125,-55.5002
12:44:36.182,-6.5,-42.7502
12:44:36.192,-2.0625,-27.0001
12:44:36.201,1.25,-13.6251
12:44:36.212,4,-3.6875
12:44:36.228,6.8125,5.3125
12:44:36.238,8.875,14.5001
12:44:36.247,12.1875,20.6876
12:44:36.256,15.9376,27.2501
12:44:36.267,17.6876,31.2501
12:44:36.276,19.9376,33.2501
12:44:36.288,21.4376,35.5626
12:44:36.296,21.0001,37.1876
12:44:36.307,22.8751,35.8126
12:44:36.317,23.1876,36.6876
12:44:36.328,24.6876,34.1251
12:44:36.337,25.5001,33.5626
12:44:36.348,26.1251,33.1251
12:44:36.357,28.6876,33.0001
12:44:36.367,31.5001,32.6251
12:44:36.377,34.3126,33.5001
12:44:36.388,38.8751,36.8751
12:44:36.397,44.1252,41.6252
12:44:36.407,51.0002,49.5627
12:44:36.416,57.7502,57.0627
12:44:36.432,67.3753,70.1253
12:44:36.446,79.0628,88.5003
12:44:36.449,91.6254,107.0004
12:44:36.457,106.3754,130.0005
12:44:36.474,118.1255,149.5631
12:44:36.477,128.8755,168.0631
12:44:36.487,135.938,183.1257
12:44:36.497,141.7505,195.5007
12:44:36.506,145.5005,203.8758
12:44:36.517,149.3756,211.9383
12:44:36.528,152.0631,217.5633
12:44:36.537,153.0006,220.1883
12:44:36.548,152.0631,220.6258
12:44:36.557,151.3756,220.0633
12:44:36.567,150.8756,218.3133
12:44:36.577,150.1256,218.0008
12:44:36.587,148.1881,216.6258
12:44:36.597,147.8131,213.5008
12:44:36.614,146.0631,210.1883
12:44:36.618,144.938,207.6258
12:44:36.644,143.063,203.1258
12:44:36.646,141.188,200.5633
12:44:36.650,139.188,196.5007
12:44:36.658,136.7505,192.6882
12:44:36.687,134.8755,187.6257
12:44:36.691,132.1255,181.8132
12:44:36.692,128.063,176.1257
12:44:36.699,124.7505,168.3131
12:44:36.730,121.438,162.2506
12:44:36.732,118.563,155.8131
12:44:36.736,115.8129,150.9381
12:44:36.763,113.6254,148.0631
12:44:36.765,112.9379,150.0006
12:44:36.767,112.3754,152.1256
12:44:36.771,111.9379,155.3756
12:44:36.784,111.6879,157.7506
12:44:36.788,110.3129,161.6256
12:44:36.797,110.3754,165.5006
12:44:36.807,110.5004,167.8131
12:44:36.817,109.8754,171.1882
12:44:36.828,109.9379,171.5632
12:44:36.837,109.1879,173.0632
12:44:36.853,109.5004,174.5007
12:44:36.858,108.2504,173.0007
12:44:36.867,107.0629,170.5006
12:44:36.876,105.5004,166.6256
12:44:36.887,102.6254,162.8131
12:44:36.896,101.8129,158.1256
12:44:36.907,99.0629,153.4381
12:44:36.917,97.3129,149.0631
12:44:36.926,95.4379,142.063
12:44:36.936,93.3754,137.063
12:44:36.947,91.2504,130.3755
12:44:36.957,89.0628,124.688
12:44:36.967,86.8128,118.7505
12:44:36.976,85.1878,112.6879
12:44:36.987,82.9378,109.0004
12:44:36.997,82.0003,105.0004
12:44:37.007,80.5628,102.8754
12:44:37.017,79.7503,98.8129
12:44:37.027,78.6878,97.0004
12:44:37.037,76.7503,94.0004
12:44:37.047,76.0628,93.6879
12:44:37.057,75.6878,92.0004
12:44:37.066,75.3128,91.1879
12:44:37.077,74.6878,90.7504
12:44:37.086,74.0003,91.3754
12:44:37.097,73.8128,90.3753
12:44:37.106,73.0003,90.1253
12:44:37.117,71.5628,89.0628
12:44:37.126,71.5628,88.0003
12:44:37.136,70.0628,86.1253
12:44:37.174,69.1253,86.6253
12:44:37.176,67.5003,83.6878
12:44:37.178,65.8128,82.1878
12:44:37.181,64.9377,78.8128
12:44:37.189,64.1252,79.0628
12:44:37.197,63.6877,77.0628
12:44:37.206,62.7502,77.2503
12:44:37.217,62.0627,75.1878
12:44:37.233,60.5002,72.7503
12:44:37.237,58.8127,69.0003
12:44:37.247,57.7502,67.1253
12:44:37.257,56.7502,64.8127
12:44:37.266,56.3127,64.8127
12:44:37.277,55.9377,63.4377
12:44:37.286,56.8127,67.5003
12:44:37.296,58.7502,71.4378
12:44:37.313,60.3752,77.7503
12:44:37.318,61.6877,84.5628
12:44:37.345,61.8127,90.5629
12:44:37.347,61.6252,95.3129
12:44:37.349,62.9377,102.8129
12:44:37.384,65.0627,108.3129
12:44:37.388,67.1253,116.5004
12:44:37.389,68.9378,122.1255
12:44:37.392,70.4378,126.063
12:44:37.397,71.8128,129.688
12:44:37.406,72.9378,132.688
12:44:37.433,74.2503,133.563
12:44:37.435,74.8753,135.188
12:44:37.438,75.2503,134.7505
12:44:37.466,75.3128,135.0005
12:44:37.467,75.4378,131.813
12:44:37.469,73.9378,130.0005
12:44:37.490,72.0003,124.3755
12:44:37.491,70.3128,119.2505
12:44:37.498,67.9378,113.6879
12:44:37.508,65.6877,107.5629
12:44:37.516,63.4377,101.9379
12:44:37.527,61.1877,96.3129
12:44:37.536,59.0002,91.6254
12:44:37.546,56.5002,87.6253
12:44:37.557,55.1252,83.0628
12:44:37.566,52.5002,78.7503
12:44:37.577,51.3752,74.8753
12:44:37.586,49.8127,72.2503
12:44:37.598,48.3752,71.0003
12:44:37.607,47.9377,68.0003
12:44:37.617,46.6877,66.8128
12:44:37.626,46.1252,65.5003
12:44:37.636,46.6252,63.7502
12:44:37.648,45.8127,63.1877
12:44:37.656,45.1877,61.5627
12:44:37.668,44.7502,61.1877
12:44:37.677,44.2502,59.3127
12:44:37.687,44.0627,57.6252
12:44:37.697,43.2502,56.1252
12:44:37.708,41.8752,54.2502
12:44:37.725,41.1252,52.1877
12:44:37.733,40.1877,49.2502
12:44:37.746,39.1252,46.1252
12:44:37.749,38.2501,43.3752
12:44:37.758,36.0626,39.5002
12:44:37.766,35.3751,36.4376
12:44:37.777,33.7501,31.7501
12:44:37.788,31.6251,28.6251
12:44:37.797,30.1876,23.8751
12:44:37.807,28.2501,19.5626
12:44:37.817,26.5626,16.6251
12:44:37.827,26.3126,14.7501
12:44:37.836,26.8126,16.2501
12:44:37.847,29.4376,22.0626
12:44:37.856,31.8126,29.1251
12:44:37.867,34.4376,38.5001
12:44:37.876,37.0001,45.6252
12:44:37.889,38.6251,52.5627
12:44:37.897,40.1252,59.0002
12:44:37.907,41.1252,65.1877
12:44:37.916,42.2502,69.6253
12:44:37.926,42.9377,73.4378
12:44:37.936,44.0002,76.3128
12:44:37.947,44.8127,79.0628
12:44:37.957,44.8127,79.0628
12:44:37.966,45.6877,80.3753
12:44:37.982,45.6252,80.5628
12:44:37.989,45.1252,79.6253
12:44:37.997,45.0627,78.4378
12:44:38.007,44.5627,76.6253
12:44:38.016,42.8127,73.0628
12:44:38.026,41.5002,69.9378
12:44:38.037,40.1877,65.0002
12:44:38.046,38.1876,61.9377
12:44:38.056,36.1251,56.6877
12:44:38.066,34.8751,53.9377
12:44:38.097,33.0001,49.8127
12:44:38.099,32.5626,47.8752
12:44:38.124,32.1251,46.3127
12:44:38.131,32.5001,46.4377
12:44:38.131,32.1876,45.8127
12:44:38.131,32.3126,47.2502
12:44:38.137,32.1876,47.1877
12:44:38.146,32.9376,47.8752
12:44:38.177,33.3126,48.7502
12:44:38.179,33.5001,50.5627
12:44:38.181,32.7501,49.6252
12:44:38.187,32.6251,50.6877
12:44:38.215,32.3751,49.5002
12:44:38.217,32.5001,49.3752
12:44:38.220,31.5626,49.3127
12:44:38.249,31.3126,48.6877
12:44:38.255,31.6876,48.2502
12:44:38.255,31.8126,48.3127
12:44:38.259,32.6876,48.1252
12:44:38.266,32.3751,47.7502
12:44:38.277,32.5001,46.8127
12:44:38.286,31.9376,45.5627
12:44:38.297,30.6876,44.6252
12:44:38.307,30.0626,40.9377
12:44:38.316,28.3126,38.0001
12:44:38.327,26.1251,34.1876
12:44:38.336,24.9376,30.0626
12:44:38.348,22.8126,27.6251
12:44:38.361,22.6876,25.0001
12:44:38.367,22.4376,24.8751
12:44:38.376,22.1876,27.3126
12:44:38.388,23.8126,32.0626
12:44:38.397,25.3126,36.7501
12:44:38.407,26.3751,43.0627
12:44:38.417,26.9376,48.8752
12:44:38.427,27.4376,53.1877
12:44:38.453,29.3126,58.9377
12:44:38.457,31.1251,64.3752
12:44:38.472,33.0626,68.3128
12:44:38.474,33.6876,72.3128
12:44:38.478,34.5001,73.8753
12:44:38.487,35.3126,76.5628
12:44:38.497,36.8751,77.5003
12:44:38.507,36.2501,77.3753
12:44:38.517,36.3751,75.9378
12:44:38.527,35.9376,73.2503
12:44:38.536,35.3751,71.4378
12:44:38.547,35.0001,68.8128
12:44:38.556,34.1251,64.7502
12:44:38.567,32.8126,61.3127
12:44:38.576,31.5626,56.2502
12:44:38.587,29.4376,51.3127
12:44:38.597,27.3751,45.3752
12:44:38.606,24.9376,40.1877
12:44:38.616,23.0001,35.8126
12:44:38.628,20.3126,30.5001
12:44:38.637,18.4376,27.9376
12:44:38.647,17.3126,24.3751
12:44:38.656,17.2501,21.6876
12:44:38.667,15.5626,19.2501
12:44:38.676,15.2501,17.9376
12:44:38.687,15.0001,17.6251
12:44:38.697,16.0626,17.4376
12:44:38.706,15.6876,18.5001
12:44:38.716,16.2501,18.8126
12:44:38.726,15.9376,19.3126
12:44:38.737,16.3751,18.9376
12:44:38.747,15.6876,18.6251
12:44:38.757,15.6251,17.3126
12:44:38.767,14.3751,16.4376
12:44:38.805,14.1876,15.2501
12:44:38.807,13.2501,15.3751
12:44:38.809,13.3751,13.3751
12:44:38.838,12.5,10.75
12:44:38.840,12.75,11.625
12:44:38.843,12.6875,10
12:44:38.846,11.5625,8.75
12:44:38.848,9.5625,5.875
12:44:38.888,6.6875,2.0625
12:44:38.890,4.5625,-2.125
12:44:38.893,3.5625,-6.0625
12:44:38.895,2.875,-5.75
12:44:38.898,4.8125,-5.125
12:44:38.926,6.8125,-2.125
12:44:38.930,10.5,5.75
12:44:38.930,13.3751,13.6876
12:44:38.937,16.0001,22.0626
12:44:38.962,18.0626,31.8126
12:44:38.964,20.5001,38.8126
12:44:38.966,22.5626,46.6877
12:44:38.980,24.0001,53.0627
12:44:38.987,25.9376,60.7502
12:44:38.997,28.2501,67.5628
12:44:39.006,29.9376,71.8753
12:44:39.025,31.4376,74.5628
12:44:39.032,31.3126,76.8128
12:44:39.048,32.1251,79.5628
12:44:39.049,32.7501,79.6878
12:44:39.057,32.8751,78.8753
12:44:39.067,33.0626,80.0003
12:44:39.076,33.8126,78.1878
12:44:39.086,33.5626,76.9378
12:44:39.098,33.1876,75.0628
12:44:39.110,31.8126,73.2503
12:44:39.118,30.5626,67.6253
12:44:39.127,28.9376,62.5627
12:44:39.137,26.6251,58.1252
12:44:39.148,25.3751,55.5002
12:44:39.157,24.1251,51.0627
12:44:39.167,22.7501,47.5627
12:44:39.177,20.6876,43.7502
12:44:39.187,19.5626,41.6252
12:44:39.198,18.5626,39.3752
12:44:39.207,17.8126,38.0626
12:44:39.217,16.8126,37.0626
12:44:39.226,16.6251,35.3751
12:44:39.237,15.3751,35.5626
12:44:39.246,16.0001,34.4376
12:44:39.257,14.8751,34.3126
12:44:39.266,15.7501,34.3126
12:44:39.277,15.3751,33.1876
12:44:39.287,15.6876,34.0001
12:44:39.297,15.7501,32.9376
12:44:39.307,15.5626,31.4376
12:44:39.317,15.3126,30.7501
12:44:39.326,14.1876,29.2501
12:44:39.338,14.4376,27.8126
12:44:39.347,13.1876,26.1876
12:44:39.357,13,23.6251
12:44:39.367,11.125,21.6876
12:44:39.377,9.1875,17.8751
12:44:39.387,8.4375,13.5626
12:44:39.397,5.75,9.625
12:44:39.407,3.9375,6.1875
12:44:39.417,2,1.375
12:44:39.428,0.375,-2.9375
12:44:39.436,-0.8125,-4.625
12:44:39.447,-0.375,-6.1875
12:44:39.457,0.1875,-4.0625
12:44:39.487,3.0625,1.875
12:44:39.489,5.5,9.8125
12:44:39.492,8.9375,18.6876
12:44:39.498,12,27.1876
12:44:39.524,14.7501,35.5626
12:44:39.526,17.5001,42.1877
12:44:39.529,19.2813,48.2502
12:44:39.558,21.3126,54.2502
12:44:39.562,22.3438,58.1252
12:44:39.565,24.0313,60.9377
12:44:39.568,24.6563,64.0002
12:44:39.596,25.2813,64.6877
12:44:39.598,25.6563,65.4378
12:44:39.601,24.3438,65.1252
12:44:39.607,23.7501,62.1252
12:44:39.622,23.0313,61.0002
12:44:39.627,21.9688,59.3127
12:44:39.641,22.2501,57.0002
12:44:39.648,21.3438,54.7502
12:44:39.657,18.8751,50.3752
12:44:39.667,16.2813,45.5627
12:44:39.676,13.7188,40.1252
12:44:39.687,12.0938,36.0001
12:44:39.696,10.125,32.6876
12:44:39.707,9.7188,32.0626
12:44:39.736,10.1875,30.7501
12:44:39.751,10.9375,30.5001
12:44:39.765,10.7813,32.5626
12:44:39.768,11.1563,32.6876
12:44:39.770,11.9688,33.7501
12:44:39.772,13.3751,36.1876
12:44:39.778,13.9688,37.5001
12:44:39.787,14.5001,39.4377
12:44:39.796,15.3751,41.5627
12:44:39.807,16.5626,43.5627
12:44:39.817,17.2501,44.2502
12:44:39.826,16.5313,45.4377
12:44:39.837,17.0938,45.3127
12:44:39.846,16.5313,44.4377
12:44:39.857,15.9376,43.6252
12:44:39.867,15.0626,42.9377
12:44:39.876,14.9063,41.1252
12:44:39.887,15.0001,40.6877
12:44:39.897,14.6876,39.6877
12:44:39.906,14.1251,38.0626
12:44:39.917,13.7501,38.0001
12:44:39.927,13.5001,35.8751
12:44:39.937,13.5626,35.0001
12:44:39.947,12.9688,33.0001
12:44:39.957,12.0938,31.0001
12:44:39.967,10.6875,29.1876
12:44:39.976,11.0625,27.4376
12:44:39.987,10.6563,26.6251
12:44:39.996,11.1563,29.1876
12:44:40.006,12.75,33.4376
12:44:40.018,14.3751,38.4376
12:44:40.027,15.7501,46.4377
12:44:40.036,18.5938,52.0002
12:44:40.046,19.9376,58.3127
12:44:40.056,21.3126,64.6877
12:44:40.066,22.5626,70.6878
12:44:40.077,24.9376,74.1253
12:44:40.087,25.7813,76.7503
12:44:40.096,25.2501,77.9378
12:44:40.107,25.3126,79.6878
12:44:40.117,26.1251,79.1253
12:44:40.128,25.5313,77.1878
12:44:40.137,24.9063,76.0628
12:44:40.146,24.6563,73.6253
12:44:40.156,23.2501,70.9378
12:44:40.166,22.1876,69.0003
12:44:40.177,22.0313,64.9377
12:44:40.206,21.0313,60.2502
12:44:40.210,19.2501,57.1252
12:44:40.211,17.3751,51.2502
12:44:40.217,14.8438,45.9377
12:44:40.250,12.5625,42.4377
12:44:40.253,10.9375,36.6876
12:44:40.254,8.4063,31.8126
12:44:40.278,7.1563,27.6251
12:44:40.280,4.9375,25.8126
12:44:40.283,4.9063,23.6876
12:44:40.315,4.5625,22.7501
12:44:40.345,4,22.7501
12:44:40.348,5.0938,21.3126
12:44:40.351,4.7188,22.5626
12:44:40.351,4.7188,22.9376
12:44:40.351,5.4688,22.5001
12:44:40.366,5.9688,22.8126
12:44:40.367,6.4375,22.3126
12:44:40.376,5.2813,21.8126
12:44:40.392,4.2813,19.5626
12:44:40.398,3.5938,18.1251
12:44:40.407,3.0625,16.1251
12:44:40.417,2.0625,13.9376
12:44:40.428,1.3125,13.7501
12:44:40.438,0.6563,12.9375
12:44:40.448,0.3125,10.3125
12:44:40.459,-0.375,8.25
12:44:40.466,-1.7188,5.8125
12:44:40.476,-2.6563,3.875
12:44:40.486,-3.125,1.3125
12:44:40.496,-4.375,-1
12:44:40.507,-6.0313,-3.75
12:44:40.517,-7.8438,-7.6875
12:44:40.526,-9.5313,-11.0625
12:44:40.536,-10.5313,-13.1876
12:44:40.547,-9.9688,-11.125
12:44:40.556,-8.25,-7.5625
12:44:40.567,-5.5313,-2
12:44:40.578,-3.2813,5.625
12:44:40.587,0.6563,16.0001
12:44:40.597,4.5938,25.1876
12:44:40.607,7.8438,33.8126
12:44:40.617,11.25,43.8127
12:44:40.627,14.0626,50.7502
12:44:40.637,17.2813,55.7502
12:44:40.647,19.3751,61.5002
12:44:40.657,20.7501,64.0627
12:44:40.666,21.9063,66.2503
12:44:40.676,22.4688,67.3753
12:44:40.686,23.0313,68.1253
12:44:40.696,23.5938,67.3128
12:44:40.708,22.3126,67.3753
12:44:40.717,23.0938,65.8128
12:44:40.728,22.1876,64.6252
12:44:40.737,22.6876,61.4377
12:44:40.747,20.6563,57.8127
12:44:40.757,18.8438,55.5002
12:44:40.767,17.3751,51.0627
12:44:40.777,15.0313,47.0627
12:44:40.788,13.9688,43.0002
12:44:40.796,12.4063,40.3127
12:44:40.807,10.6875,36.6876
12:44:40.816,9.6875,33.6876
12:44:40.827,9.25,31.7501
12:44:40.837,8.2188,29.0626
12:44:40.847,7.4375,28.0001
12:44:40.856,6.8125,26.1251
12:44:40.867,6.0938,25.6876
12:44:40.877,5.4063,25.1251
12:44:40.887,5.9063,23.0001
12:44:40.897,4.3125,21.3751
12:44:40.907,3.6875,20.2501
12:44:40.939,3.1563,19.0626
12:44:40.941,2.8125,17.5001
12:44:40.942,2.6563,15.5626
12:44:40.948,1.75,13.6251
12:44:40.974,1.4063,12.4375
12:44:40.977,0.6563,9.9375
12:44:40.979,0.5313,8.6875
12:44:40.987,-0.2813,5.25
12:44:41.013,-1.25,2.75
12:44:41.016,-2.25,-0.375
12:44:41.018,-3.3125,-3.125
12:44:41.049,-4.1875,-6.625
12:44:41.049,-5.1875,-10.5625
12:44:41.082,-7.2813,-14.2501
12:44:41.083,-8.0625,-18.0626
12:44:41.083,-10.4375,-21.3751
12:44:41.094,-11.25,-26.3126
12:44:41.102,-12.4688,-29.5001
12:44:41.113,-13.3438,-33.0626
12:44:41.122,-14.5001,-37.4376
12:44:41.133,-15.1876,-38.9376
12:44:41.141,-15.8438,-39.6877
12:44:41.152,-15.6251,-37.3751
12:44:41.161,-13.3438,-32.5001
12:44:41.171,-12.5938,-26.1876
12:44:41.182,-9.625,-19.3126
12:44:41.192,-8.5313,-12.6875
12:44:41.202,-6.375,-6.75
12:44:41.212,-4.125,-0.875
12:44:41.223,-3.7813,1.9375
12:44:41.232,-2.75,5.6875
12:44:41.241,-1.8125,7.1875
12:44:41.252,0.0313,11
12:44:41.261,0.4375,11.0625
12:44:41.271,0.125,9.25
12:44:41.282,-0.5938,8.5
12:44:41.292,-1.25,5.0625
12:44:41.302,-2.0938,2.8125
12:44:41.311,-3.875,-0.6875
12:44:41.321,-4.9375,-3.5
12:44:41.332,-6.1875,-8.1875
12:44:41.342,-8.4063,-12.125
12:44:41.351,-10.1563,-16.6876
12:44:41.362,-11.8438,-19.0626
12:44:41.372,-12.6875,-23.1251
12:44:41.382,-13.7813,-24.3751
12:44:41.392,-13.8438,-26.5001
12:44:41.404,-13.4063,-26.0001
12:44:41.412,-13.4688,-26.7501
12:44:41.423,-12.9375,-26.8126
12:44:41.432,-12.6875,-27.5001
12:44:41.442,-12.8438,-26.6876
12:44:41.452,-12.0938,-25.8126
12:44:41.462,-12.25,-25.5626
12:44:41.472,-11.0938,-24.6251
12:44:41.482,-11.625,-24.2501
12:44:41.493,-10.6875,-24.6876
12:44:41.502,-11.25,-24.2501
12:44:41.513,-10.8438,-25.3751
12:44:41.523,-11.0938,-25.8126
12:44:41.532,-10.5938,-26.6876
12:44:41.542,-10.7813,-26.3751
12:44:41.552,-9.0313,-26.2501
12:44:41.563,-9.0313,-27.1251
12:44:41.571,-9.5313,-28.2501
12:44:41.581,-9.8438,-30.7501
12:44:41.591,-11.375,-32.1876
12:44:41.602,-12.1875,-35.9376
12:44:41.623,-13.9063,-39.1877
12:44:41.625,-14.4688,-41.6877
12:44:41.634,-16.6251,-46.3127
12:44:41.644,-17.9688,-49.6877
12:44:41.657,-18.8438,-53.1877
12:44:41.667,-21.0001,-56.8127
12:44:41.671,-21.5001,-60.7502
12:44:41.682,-23.6251,-64.3127
12:44:41.691,-24.7813,-66.4378
12:44:41.702,-25.5938,-68.6253
12:44:41.712,-25.9376,-69.6878
12:44:41.726,-25.2501,-66.7503
12:44:41.757,-23.7813,-62.6877
12:44:41.758,-23.1563,-58.1877
12:44:41.761,-21.0313,-51.0002
12:44:41.763,-17.8126,-44.6877
12:44:41.794,-15.3126,-37.7501
12:44:41.798,-14.0313,-32.3751
12:44:41.800,-11.125,-28.3751
12:44:41.803,-10.25,-24.1876
12:44:41.832,-8.6563,-21.1876
12:44:41.834,-6.6875,-20.0626
12:44:41.838,-6.6875,-19.5626
12:44:41.842,-7.0625,-21.5626
12:44:41.852,-7.9063,-22.5626
12:44:41.888,-8.9063,-25.0626
12:44:41.890,-9.2188,-27.9376
12:44:41.894,-10.3438,-29.5626
12:44:41.896,-11.4063,-32.9376
12:44:41.910,-12.4375,-36.2501
12:44:41.913,-14.2501,-39.8127
12:44:41.922,-14.9376,-42.9377
12:44:41.932,-16.2501,-46.7502
12:44:41.945,-18.1251,-47.8752
12:44:41.952,-18.3438,-51.0627
12:44:41.961,-18.1563,-52.6252
12:44:41.971,-19.1563,-54.1252
12:44:41.981,-20.3438,-57.5002
12:44:41.992,-22.0001,-59.6877
12:44:42.003,-23.4063,-60.4377
12:44:42.012,-24.1876,-62.6252
12:44:42.021,-25.2813,-64.3752
12:44:42.032,-108.3129,-141.7505
12:44:42.041,-103.0629,-172.5632
12:44:42.052,-67.6565,-133.938
12:44:42.063,-54.5627,-110.5004
12:44:42.074,-54.719,-108.0629
12:44:42.082,-62.7502,-118.3755
12:44:42.092,-76.6253,-138.188
12:44:42.102,-92.3754,-159.4381
12:44:42.112,-105.0004,-177.3757
12:44:42.122,-118.313,-195.4382
12:44:42.133,-126.938,-209.0008
12:44:42.144,-135.2505,-221.0634
12:44:42.152,-141.313,-230.7509
12:44:42.162,-146.8755,-238.7509
12:44:42.171,-150.8131,-247.6259
12:44:42.182,-155.1256,-254.126
12:44:42.193,-157.3131,-260.8135
12:44:42.202,-160.6256,-267.5635
12:44:42.212,-163.7506,-273.376
12:44:42.222,-166.8756,-279.8136
12:44:42.232,-169.5631,-286.8136
12:44:42.242,-173.1882,-291.9386
12:44:42.254,-176.3757,-298.8762
12:44:42.261,-179.1257,-304.9387
12:44:42.293,-182.0007,-310.0012
12:44:42.295,-183.5007,-313.6262
12:44:42.298,-184.1882,-313.7512
12:44:42.308,-183.5632,-311.5012
12:44:42.311,-181.5632,-306.7512
12:44:42.321,-178.6882,-298.5012
12:44:42.341,-176.7507,-291.6886
12:44:42.344,-174.3757,-285.4386
12:44:42.358,-171.8132,-279.4386
12:44:42.379,-169.7506,-275.376
12:44:42.380,-166.9381,-269.6885
12:44:42.383,-164.7506,-265.5635
12:44:42.410,-162.8756,-264.0635
12:44:42.412,-160.0006,-261.376
12:44:42.414,-159.0006,-260.8135
12:44:42.448,-156.8756,-259.3135
12:44:42.452,-155.1256,-258.8135
12:44:42.452,-154.3131,-257.8135
12:44:42.455,-152.3756,-258.3135
12:44:42.493,-150.5631,-256.876
12:44:42.496,-148.5006,-257.6885
12:44:42.498,-147.5631,-257.6885
12:44:42.524,-145.813,-257.376
12:44:42.524,-144.188,-258.251
12:44:42.527,-143.313,-257.626
12:44:42.528,-141.2505,-258.001
12:44:42.534,-139.313,-255.8135
12:44:42.541,-138.438,-253.9385
12:44:42.551,-136.313,-251.5635
12:44:42.561,-134.8755,-249.9384
12:44:42.572,-132.188,-247.0009
12:44:42.581,-130.8755,-243.7509
12:44:42.594,-128.7505,-242.5009
12:44:42.602,-126.5005,-239.0009
12:44:42.611,-125.6255,-236.8759
12:44:42.621,-123.688,-235.1884
12:44:42.632,-122.813,-233.1259
12:44:42.642,-122.2505,-232.3134
12:44:42.652,-121.0005,-231.1259
12:44:42.664,-119.938,-229.8134
12:44:42.671,-118.2505,-227.5634
12:44:42.682,-117.188,-226.3759
12:44:42.693,-115.7504,-224.1259
12:44:42.701,-114.3754,-224.1259
12:44:42.713,-111.9379,-221.0633
12:44:42.724,-111.4379,-218.7508
12:44:42.732,-109.6254,-220.0008
12:44:42.741,-108.6879,-217.4383
12:44:42.751,-107.0004,-216.4383
12:44:42.762,-105.6254,-215.1258
12:44:42.772,-105.3129,-215.6883
12:44:42.782,-104.1879,-215.2508
12:44:42.792,-103.5004,-213.9383
12:44:42.801,-101.3129,-213.1883
12:44:42.812,-100.3754,-212.3758
12:44:42.823,-99.0004,-211.5008
12:44:42.832,-97.6254,-210.1883
12:44:42.841,-96.3129,-210.6883
12:44:42.852,-95.0629,-208.3133
12:44:42.861,-94.1254,-208.5633
12:44:42.872,-92.5629,-205.5008
12:44:42.883,-91.8754,-203.8133
12:44:42.892,-89.3753,-197.9383
12:44:42.903,-86.0003,-191.1257
12:44:42.912,-84.1253,-181.5632
12:44:42.922,-81.4378,-175.0632
12:44:42.941,-79.0003,-167.8131
12:44:42.946,-77.3753,-160.8131
12:44:42.958,-75.8753,-156.0631
12:44:42.962,-73.7503,-153.1881
12:44:42.978,-73.3128,-150.3131
12:44:42.984,-71.8753,-149.9381
12:44:42.993,-71.1253,-147.7506
12:44:43.003,-69.0628,-147.0631
12:44:43.012,-69.0003,-146.1881
12:44:43.021,-67.3753,-146.9381
12:44:43.032,-65.9378,-146.0005
12:44:43.042,-65.8753,-145.6255
12:44:43.058,-64.5002,-147.1256
12:44:43.064,-64.3127,-146.6881
12:44:43.072,-63.0627,-148.3756
12:44:43.082,-61.5627,-148.6256
12:44:43.091,-61.9377,-150.1256
12:44:43.102,-59.9377,-149.3131
12:44:43.112,-60.1877,-149.6256
12:44:43.123,-58.8752,-149.4381
12:44:43.132,-58.3127,-148.7506
12:44:43.142,-57.6252,-148.3131
12:44:43.152,-57.1252,-146.6256
12:44:43.162,-57.0627,-147.8756
12:44:43.179,-56.3127,-146.0005
12:44:43.182,-56.5627,-143.813
12:44:43.216,-55.5627,-144.1255
12:44:43.217,-55.1252,-141.7505
12:44:43.219,-55.1252,-141.1255
12:44:43.225,-53.2502,-138.938
12:44:43.261,-53.1252,-138.688
12:44:43.262,-51.8752,-136.8755
12:44:43.264,-51.9377,-135.813
12:44:43.272,-51.0627,-135.438
12:44:43.273,-51.0002,-134.813
12:44:43.305,-50.5002,-135.0005
12:44:43.308,-50.1252,-133.813
12:44:43.309,-50.0627,-134.313
12:44:43.311,-49.1252,-133.6255
12:44:43.338,-48.7502,-131.8755
12:44:43.341,-47.1252,-132.7505
12:44:43.343,-47.0627,-130.313
12:44:43.353,-46.4377,-131.313
12:44:43.361,-45.5002,-131.7505
12:44:43.371,-45.3127,-130.688
12:44:43.382,-44.1252,-131.313
12:44:43.395,-43.3752,-130.688
12:44:43.401,-42.3752,-130.313
12:44:43.412,-43.0002,-130.188
12:44:43.424,-41.8752,-129.6255
12:44:43.432,-41.7502,-130.8755
12:44:43.442,-41.4377,-130.8755
12:44:43.452,-41.3127,-131.0005
12:44:43.462,-40.6252,-131.188
12:44:43.473,-39.8127,-130.063
12:44:43.482,-40.0002,-129.1255
12:44:43.492,-39.5002,-127.6255
12:44:43.503,-38.6876,-122.2505
12:44:43.512,-36.9376,-117.1254
12:44:43.523,-35.1876,-109.9379
12:44:43.534,-34.2501,-103.5004
12:44:43.541,-32.1876,-98.4379
12:44:43.573,-31.4376,-93.8754
12:44:43.576,-30.8126,-89.4378
12:44:43.578,-30.3126,-88.4378
12:44:43.583,-29.7501,-87.6878
12:44:43.592,-30.9376,-87.8128
12:44:43.602,-30.3751,-88.8753
12:44:43.612,-29.9376,-89.5628
12:44:43.621,-29.6251,-89.9378
12:44:43.632,-29.0001,-89.8753
12:44:43.644,-29.3126,-90.2503
12:44:43.652,-28.3126,-92.6879
12:44:43.666,-27.3751,-93.7504
12:44:43.674,-28.0001,-94.5629
12:44:43.682,-28.1876,-97.5004
12:44:43.697,-27.8751,-97.8754
12:44:43.706,-27.8751,-98.6879
12:44:43.711,-27.1251,-100.9379
12:44:43.722,-27.7501,-100.2504
12:44:43.732,-26.5001,-101.9379
12:44:43.743,-26.0626,-99.6879
12:44:43.751,-25.5626,-99.4379
12:44:43.762,-24.0001,-98.8129
12:44:43.772,-24.8126,-98.3754
12:44:43.782,-25.2501,-98.1879
12:44:43.792,-25.5626,-97.0629
12:44:43.808,-25.8126,-98.2504
12:44:43.813,-25.2501,-97.5629
12:44:43.822,-26.3126,-96.5004
12:44:43.832,-26.0626,-96.7504
12:44:43.842,-26.0001,-94.5004
12:44:43.852,-25.0626,-95.0629
12:44:43.862,-24.1876,-94.1254
12:44:43.871,-24.4376,-94.0004
12:44:43.894,-24.3751,-93.6254
12:44:43.896,-23.5001,-92.2504
12:44:43.922,-23.0626,-93.3129
12:44:43.924,-22.2501,-91.8754
12:44:43.927,-22.1251,-92.2504
12:44:43.932,-22.0001,-92.5004
12:44:43.965,-22.1251,-91.2504
12:44:43.968,-21.5001,-92.6879
12:44:43.971,-20.3751,-92.5629
12:44:43.973,-20.6251,-92.0629
12:44:44.002,-20.0626,-92.3129
12:44:44.004,-20.3126,-92.0004
12:44:44.006,-19.7501,-92.9379
12:44:44.036,-19.1876,-92.6254
12:44:44.038,-18.8751,-92.9379
12:44:44.040,-18.8126,-93.8129
12:44:44.046,-18.1251,-93.4379
12:44:44.059,-17.7501,-93.6254
12:44:44.062,-17.0001,-93.9379
12:44:44.075,-17.5626,-93.7504
12:44:44.082,-17.3126,-94.9379
12:44:44.092,-18.3751,-94.7504
12:44:44.103,-17.8126,-94.3754
12:44:44.112,-17.6876,-91.6879
12:44:44.122,-17.0626,-87.1253
12:44:44.132,-15.6876,-81.6253
12:44:44.142,-15.3751,-74.0628
12:44:44.152,-13.8126,-70.1253
12:44:44.162,-13.4376,-64.3127
12:44:44.172,-12.3125,-61.8127
12:44:44.187,-12.0625,-58.8127
12:44:44.191,-11.875,-57.6252
12:44:44.201,-11.875,-57.3127
12:44:44.212,-12.0625,-57.5002
12:44:44.223,-12.5,-58.8127
12:44:44.232,-12.3125,-59.8127
12:44:44.241,-13.3126,-60.4377
12:44:44.268,-13.0625,-63.2502
12:44:44.274,-12.875,-63.9377
12:44:44.277,-12.3125,-64.9377
12:44:44.287,-11.75,-65.8753
12:44:44.305,-11.9375,-66.8128
12:44:44.311,-11,-68.7503
12:44:44.319,-10.9375,-70.0003
12:44:44.327,-11.1875,-71.0628
12:44:44.336,-11.5625,-73.4378
12:44:44.348,-11.875,-74.3753
12:44:44.357,-11.875,-74.8128
12:44:44.366,-12.5,-75.6878
12:44:44.377,-12.25,-75.6253
12:44:44.386,-12.25,-73.8753
12:44:44.397,-12.3125,-73.0628
12:44:44.407,-12.375,-73.5003
12:44:44.417,-11.75,-73.2503
12:44:44.427,-12.5625,-70.8128
12:44:44.438,-12.1875,-71.1878
12:44:44.447,-12.5625,-68.8753
12:44:44.456,-12.1875,-70.2503
12:44:44.467,-11.8125,-68.8128
12:44:44.476,-12.1875,-69.0628
12:44:44.489,-11.8125,-67.9378
12:44:44.496,-11.6875,-67.8128
12:44:44.507,-11.1875,-68.0003
12:44:44.517,-11.1875,-68.6878
12:44:44.528,-10.625,-67.8753
12:44:44.536,-11.0625,-68.0003
12:44:44.546,-11.0625,-67.9378
12:44:44.564,-11.0625,-68.3128
12:44:44.567,-10.9375,-69.5003
12:44:44.577,-11.5,-69.6253
12:44:44.586,-11.1875,-70.2503
12:44:44.596,-11.25,-70.4378
12:44:44.607,-11.0625,-70.3753
12:44:44.618,-10.4375,-70.5003
12:44:44.627,-11.3125,-70.6878
12:44:44.636,-10.3125,-71.0003
12:44:44.646,-11.0625,-71.3128
12:44:44.657,-10.375,-72.3128
12:44:44.683,-11,-73.6878
12:44:44.685,-11,-74.3128
12:44:44.716,-11.3125,-75.2503
12:44:44.719,-11.75,-75.1878
12:44:44.721,-11.625,-75.5003
12:44:44.726,-11.875,-73.5003
12:44:44.728,-10.3125,-70.2503
12:44:44.738,-9.5,-63.0627
12:44:44.767,-8.125,-57.9377
12:44:44.769,-7.75,-52.5002
12:44:44.771,-7.4375,-49.0627
12:44:44.778,-7.375,-45.1252
12:44:44.803,-7.5625,-42.9377
12:44:44.806,-8,-41.3752
12:44:44.808,-7.3125,-41.7502
12:44:44.843,-8.875,-42.8127
12:44:44.846,-9.3125,-43.8127
12:44:44.848,-9.25,-44.8752
12:44:44.864,-9.625,-46.2502
12:44:44.864,-9.4375,-47.5002
12:44:44.868,-9.4375,-50.2502
12:44:44.876,-9.8125,-50.5002
12:44:44.886,-10.3125,-52.4377
12:44:44.897,-10.0625,-55.1877
12:44:44.908,-10.4375,-56.0002
12:44:44.916,-10.6875,-59.8752
12:44:44.926,-11,-61.8752
12:44:44.936,-10.875,-62.9377
12:44:44.949,-12.25,-64.1252
12:44:44.957,-11.875,-64.8127
12:44:44.966,-11.8125,-66.5003
12:44:44.982,-12.5625,-64.9377
12:44:44.991,-12.3125,-65.3753
12:44:44.996,-12.25,-63.9377
12:44:45.015,-12.125,-63.3752
12:44:45.017,-12.25,-61.4377
12:44:45.033,-12,-62.0002
12:44:45.037,-12.0625,-60.8127
12:44:45.047,-11.4375,-61.0627
12:44:45.057,-12.125,-59.8752
12:44:45.067,-12.5,-60.0002
12:44:45.076,-12.6875,-60.8752
12:44:45.087,-12.8125,-59.1252
12:44:45.097,-12.75,-60.5002
12:44:45.107,-12.625,-59.6252
12:44:45.117,-12.3125,-60.4377
12:44:45.126,-12.3125,-59.3752
12:44:45.138,-11.3125,-59.8127
12:44:45.147,-13,-60.9377
12:44:45.157,-13,-60.9377
12:44:45.166,-12.6875,-62.5002
12:44:45.177,-13.5001,-63.1877
12:44:45.187,-13.8751,-62.4377
12:44:45.198,-13.1251,-63.8127
12:44:45.207,-13.5626,-63.6877
12:44:45.216,-13.3751,-64.3752
12:44:45.227,-13,-65.3127
12:44:45.237,-13.5626,-65.4377
12:44:45.247,-13.1876,-66.6878
12:44:45.257,-14.1876,-67.1253
12:44:45.266,-13.7501,-68.9378
12:44:45.277,-15.1251,-69.1878
12:44:45.287,-14.3751,-70.6878
12:44:45.296,-14.9376,-70.3753
12:44:45.313,-14.6876,-72.0628
12:44:45.319,-15.3126,-71.3128
12:44:45.327,-15.3126,-67.8128
12:44:45.337,-13.3126,-63.6252
12:44:45.351,-12.1875,-57.1877
12:44:45.361,-11.3125,-52.2502
12:44:45.372,-10.6875,-48.0002
12:44:45.382,-9.9375,-43.2502
12:44:45.421,-8.8125,-39.0626
12:44:45.421,-9.0625,-37.0001
12:44:45.427,-9.4375,-35.5626
12:44:45.427,-9.375,-35.5001
12:44:45.434,-10.0625,-36.7501
12:44:45.458,-10.5,-36.3751
12:44:45.463,-10.25,-38.9376
12:44:45.464,-11.0625,-40.1252
12:44:45.476,-10.0625,-42.1877
12:44:45.481,-11.4375,-43.5002
12:44:45.515,-11.0625,-45.6252
12:44:45.517,-11.125,-46.8127
12:44:45.519,-11,-49.8127
12:44:45.544,-11.875,-53.8752
12:44:45.545,-12.0625,-53.8752
12:44:45.548,-12.0625,-57.5627
12:44:45.553,-11.9375,-57.6252
12:44:45.569,-12.3125,-59.6252
12:44:45.572,-13.125,-60.0627
12:44:45.581,-12.625,-60.5627
12:44:45.597,-12.9375,-59.4377
12:44:45.607,-12.5,-59.1877
12:44:45.611,-13.1251,-58.4377
12:44:45.628,-12.875,-57.5002
12:44:45.634,-12.5,-57.8752
12:44:45.643,-12.375,-55.3752
12:44:45.652,-11.875,-55.8752
12:44:45.661,-12.1875,-55.6877
12:44:45.674,-12.625,-54.8752
12:44:45.688,-12.875,-54.8752
12:44:45.691,-13.1251,-54.1252
12:44:45.702,-12.1875,-54.0627
12:44:45.711,-13,-53.5627
12:44:45.722,-12,-53.5002
12:44:45.731,-12.4375,-54.0627
12:44:45.742,-12.0625,-53.3127
12:44:45.751,-11.625,-53.3752
12:44:45.761,-11.8125,-53.7502
12:44:45.772,-12.3125,-54.5002
12:44:45.783,-13.125,-55.3127
12:44:45.792,-12.625,-55.6877
12:44:45.802,-12.3125,-55.9377
12:44:45.812,-13.3751,-56.9377
12:44:45.824,-12.6875,-57.5002
12:44:45.832,-12.6875,-57.8127
12:44:45.842,-12.5,-58.1252
12:44:45.852,-12.4375,-59.4377
12:44:45.865,-13,-59.1877
12:44:45.871,-12.875,-60.3752
12:44:45.882,-13,-60.0627
12:44:45.891,-12.1875,-61.5002
12:44:45.902,-12.9375,-63.3752
12:44:45.911,-13.3126,-63.0627
12:44:45.922,-13.3126,-63.5002
12:44:45.932,-13.3751,-62.6877
12:44:45.942,-12.25,-60.3127
12:44:45.952,-12.375,-55.3752
12:44:45.962,-11.25,-50.2502
12:44:45.972,-11.6875,-45.1252
12:44:45.982,-10.4375,-41.0627
12:44:45.992,-10.5625,-37.6251
12:44:46.001,-10.375,-33.5001
12:44:46.014,-9.625,-31.8751
12:44:46.022,-10.25,-29.1251
12:44:46.032,-9.5625,-30.2501
12:44:46.043,-9.6875,-29.0001
12:44:46.081,-9.4375,-31.3126
12:44:46.081,-10.1875,-31.6251
12:44:46.086,-10.25,-34.0001
12:44:46.088,-10.6875,-35.8126
12:44:46.093,-10.5,-37.4376
12:44:46.124,-10.625,-39.8752
12:44:46.127,-11.25,-41.2502
12:44:46.130,-11.4375,-43.8752
12:44:46.143,-11.5,-45.0002
12:44:46.146,-10.6875,-46.3127
12:44:46.172,-11,-48.1252
12:44:46.175,-10.125,-49.6252
12:44:46.177,-11.0625,-50.6877
12:44:46.183,-10.6875,-51.8752
12:44:46.215,-11.375,-51.5002
12:44:46.216,-10.5,-51.8127
12:44:46.218,-10.5,-51.9377
12:44:46.225,-11.25,-51.0627
12:44:46.236,-11.75,-50.5627
12:44:46.243,-11.3125,-50.1252
12:44:46.252,-12.1875,-49.4377
12:44:46.264,-10.9375,-48.6877
12:44:46.271,-11.75,-48.4377
12:44:46.281,-11.8125,-47.3127
12:44:46.299,-11.375,-47.5627
12:44:46.301,-11.25,-46.6252
12:44:46.320,-11.0625,-47.0627
12:44:46.332,-11.75,-46.1252
12:44:46.334,-11.375,-46.8127
12:44:46.344,-11.75,-46.1877
12:44:46.352,-11.1875,-46.9377
12:44:46.362,-12.0625,-46.6877
12:44:46.372,-11.8125,-47.5002
12:44:46.382,-12.125,-47.1877
12:44:46.393,-11.75,-47.7502
12:44:46.402,-11.5,-49.3752
12:44:46.412,-11.4375,-49.0627
12:44:46.422,-10.9375,-49.0002
12:44:46.432,-11.0625,-48.9377
12:44:46.442,-10.125,-49.3127
12:44:46.451,-10.25,-50.0627
12:44:46.462,-10.875,-50.2502
12:44:46.471,-10.75,-51.2502
12:44:46.482,-10.4375,-51.9377
12:44:46.492,-11.25,-52.3127
12:44:46.501,-10.3125,-53.6252
12:44:46.512,-10.9375,-54.6252
12:44:46.522,-10.9375,-54.4377
12:44:46.532,-10.375,-55.1877
12:44:46.542,-10.875,-53.9377
12:44:46.552,-10.1875,-52.8127
12:44:46.563,-9.9375,-47.7502
12:44:46.572,-7.625,-41.8127
12:44:46.582,-7.5625,-35.6251
12:44:46.592,-7.0625,-31.8126
12:44:46.601,-7.3125,-27.5001
12:44:46.612,-6.75,-25.1251
12:44:46.622,-6.4375,-21.4376
12:44:46.633,-6.4375,-20.8126
12:44:46.641,-6.625,-19.5001
12:44:46.651,-5.625,-19.8126
12:44:46.662,-6.375,-20.0001
12:44:46.672,-6.1875,-20.0001
12:44:46.682,-6,-21.3751
12:44:46.692,-5.125,-22.4376
12:44:46.703,-5.75,-24.5626
12:44:46.712,-6.5,-25.1876
12:44:46.721,-5.8125,-28.0626
12:44:46.732,-5.9375,-29.0626
12:44:46.742,-4.75,-31.0626
12:44:46.751,-5.3125,-33.6251
12:44:46.762,-5.125,-34.8126
12:44:46.772,-5.5,-36.5001
12:44:46.782,-4.1875,-37.1876
12:44:46.792,-4.625,-38.3751
12:44:46.802,-3.875,-39.0626
12:44:46.812,-4.9375,-38.7501
12:44:46.822,-4.3125,-38.4376
12:44:46.837,-5.125,-38.7501
12:44:46.843,-4.375,-38.1876
12:44:46.874,-5.0625,-38.4376
12:44:46.877,-4.875,-36.8126
12:44:46.879,-5.3125,-36.0626
12:44:46.882,-4.25,-34.8751
12:44:46.911,-4.5625,-34.6251
12:44:46.939,-3.75,-33.8751
12:44:46.969,-4.75,-32.8751
12:44:47.019,-4,-32.5001
12:44:47.020,-4,-32.6876
12:44:47.020,-3.75,-31.9376
12:44:47.022,-3.875,-32.8751
12:44:47.024,-3.875,-31.8751
12:44:47.031,-3.9375,-32.8126
12:44:47.031,-5.1875,-32.4376
12:44:47.031,-4.9375,-34.3751
12:44:47.037,-5.1875,-35.6876
12:44:47.047,-5.625,-35.0001
12:44:47.058,-5.5625,-36.5001
12:44:47.067,-5.25,-36.5001
12:44:47.077,-4.5625,-36.8751
12:44:47.087,-4.875,-37.6876
12:44:47.097,-4.875,-38.0626
12:44:47.106,-4.1875,-38.7501
12:44:47.117,-4.9375,-38.7501
12:44:47.127,-4.6875,-39.3127
12:44:47.137,-5.125,-41.0002
12:44:47.146,-5.375,-41.1252
12:44:47.159,-5.375,-41.6877
12:44:47.167,-5.375,-42.8752
12:44:47.177,-5,-43.4377
12:44:47.188,-5.3125,-42.5627
12:44:47.196,-2.3125,-21.7501
12:44:47.207,-1.1875,-17.8751
12:44:47.219,-1.4375,-14.4376
12:44:47.227,-0.8125,-12.25
12:44:47.237,-0.75,-10.625
12:44:47.247,-0.875,-11.0625
12:44:47.256,-1.0625,-10.6875
12:44:47.266,-1.125,-12.0625
12:44:47.277,-1.5,-11.5625
12:44:47.287,-1.5625,-14.3126
12:44:47.296,-1.875,-15.1876
12:44:47.306,-0.8125,-17.1251
12:44:47.319,-1.5,-17.7501
12:44:47.326,-0.8125,-19.7501
12:44:47.337,-1.1875,-22.1251
12:44:47.348,-1.4375,-24.5626
12:44:47.357,-1.1875,-26.1876
12:44:47.366,-2,-28.8126
12:44:47.377,-2.5,-30.8751
12:44:47.387,-2.5625,-33.1251
12:44:47.412,-2.875,-34.2501
12:44:47.416,-3.1875,-33.8126
12:44:47.422,-3.0625,-34.5626
12:44:47.427,-3.1875,-33.8126
12:44:47.436,-3.25,-34.4376
12:44:47.447,-3.1875,-33.3126
12:44:47.457,-2.5625,-32.6876
12:44:47.466,-2.4375,-31.5001
12:44:47.478,-2.3125,-31.1876
12:44:47.487,-2.625,-29.5626
12:44:47.518,-2.5625,-30.7501
12:44:47.520,-2.4375,-28.4376
12:44:47.523,-2.75,-29.0626
12:44:47.528,-3,-28.1876
12:44:47.561,-2.75,-28.8751
12:44:47.563,-3.4375,-28.4376
12:44:47.566,-3.1875,-29.3751
12:44:47.570,-2.875,-29.3126
12:44:47.598,-2.875,-29.3126
12:44:47.601,-3.625,-29.5626
12:44:47.603,-2.6875,-30.5626
12:44:47.637,-3.5625,-30.6251
12:44:47.638,-3.5625,-31.2501
12:44:47.668,-4.1875,-32.5001
12:44:47.683,-4.4375,-32.8126
12:44:47.684,-4.5625,-34.6251
12:44:47.684,-5,-34.2501
12:44:47.699,-4.75,-35.8126
12:44:47.701,-4.375,-36.9376
12:44:47.704,-4.5,-36.0001
12:44:47.709,-4.25,-37.7501
12:44:47.717,-3.9375,-37.4376
12:44:47.727,-4.375,-39.2502
12:44:47.737,-4.4375,-40.1252
12:44:47.746,-4.375,-39.8127
12:44:47.757,-4.6875,-38.5001
12:44:47.769,-2.0625,-33.3751
12:44:47.777,-2.375,-27.4376
12:44:47.787,-1.1875,-21.0626
12:44:47.799,-0.375,-16.6876
12:44:47.807,-0.6875,-12.5
12:44:47.817,-0.1875,-8
12:44:47.827,0.375,-6.0625
12:44:47.837,1.5,-1.75
12:44:47.847,1.875,0
12:44:47.857,2.375,-0.625
12:44:47.867,2.5,-1.875
12:44:47.880,2.5,-1.5625
12:44:47.887,2.5625,-3.6875
12:44:47.897,2.875,-5.1875
12:44:47.909,3.0625,-5.0625
12:44:47.918,3.3125,-7.875
12:44:47.927,3.1875,-9.125
12:44:47.938,3.625,-10.625
12:44:47.947,3.375,-13.5626
12:44:47.956,3.8125,-14.7501
12:44:47.967,3.125,-18.3126
12:44:47.977,2.8125,-19.9376
12:44:47.987,2.8125,-21.4376
12:44:47.997,1.1875,-22.0626
12:44:48.007,1.6875,-22.5626
12:44:48.017,1.9375,-23.5626
12:44:48.027,1.3125,-22.3126
12:44:48.039,2.3125,-23.1876
12:44:48.046,1,-21.5626
12:44:48.057,2.125,-22.3126
12:44:48.068,2,-20.0626
12:44:48.077,2.125,-19.3751
12:44:48.087,2.25,-19.4376
12:44:48.097,2.4375,-17.6876
12:44:48.106,2.4375,-17.4376
12:44:48.116,2.3125,-16.8126
12:44:48.127,3.5,-16.7501
12:44:48.140,2.5,-17.6876
12:44:48.147,1.8125,-16.9376
12:44:48.157,1.75,-18.4376
12:44:48.167,1.5,-17.5001
12:44:48.176,1.75,-19.2501
12:44:48.187,0.8125,-18.3126
12:44:48.199,1.9375,-20.1876
12:44:48.207,1,-19.4376
12:44:48.217,1.8125,-21.6251
12:44:48.228,1.6875,-20.8751
12:44:48.237,0.9375,-22.8126
12:44:48.247,0.9375,-24.1876
12:44:48.257,0.875,-23.7501
12:44:48.267,0.625,-25.4376
12:44:48.281,0.75,-26.3126
12:44:48.289,-0.25,-26.6251
12:44:48.324,0,-28.6876
12:44:48.328,-0.75,-28.5001
12:44:48.369,-0.3125,-29.4376
12:44:48.370,-0.3125,-31.5626
12:44:48.372,-0.5625,-30.7501
12:44:48.372,-1.125,-29.4376
12:44:48.372,0.75,-26.5001
12:44:48.379,2.125,-18.4376
12:44:48.410,4.125,-13.1251
12:44:48.413,3.875,-6.5
12:44:48.415,4.9375,-3.375
12:44:48.417,4.4375,1.5625
12:44:48.452,5.625,6.0625
12:44:48.454,7.375,8.4375
12:44:48.457,7.625,12.1875
12:44:48.465,8.6875,14.2501
12:44:48.466,8.875,14.0001
12:44:48.477,9.9375,15.1876
12:44:48.488,10.75,14.0626
12:44:48.498,11.75,13.0625
12:44:48.507,10.5625,11.125
12:44:48.516,11.0625,9.4375
12:44:48.527,11.0625,8.1875
12:44:48.537,11.0625,6.75
12:44:48.546,10.9375,3.5
12:44:48.557,10.8125,0.5625
12:44:48.567,10.25,-1.5
12:44:48.577,10.875,-3.8125
12:44:48.587,9.3125,-5.4375
12:44:48.597,8.5625,-7.125
12:44:48.607,8.9375,-8.5625
12:44:48.616,8.3125,-9.3125
12:44:48.627,8.0625,-10.125
12:44:48.637,7.6875,-9.25
12:44:48.647,8.1875,-9.625
12:44:48.657,8.625,-9
12:44:48.668,8.3125,-7.3125
12:44:48.693,8.3125,-5.375
12:44:48.695,8.8125,-5.375
12:44:48.698,8.8125,-5.5625
12:44:48.707,8.625,-4.5
12:44:48.717,9.1875,-4.0625
12:44:48.729,8.5625,-4.25
12:44:48.736,7.9375,-3.8125
12:44:48.747,8.4375,-4.9375
12:44:48.758,7.75,-5.75
12:44:48.766,7.8125,-4.8125
12:44:48.777,7.75,-6.1875
12:44:48.788,6.9375,-8
12:44:48.797,6.25,-7.5
12:44:48.807,6.5625,-9.4375
12:44:48.819,5.9375,-9.1875
12:44:48.827,6.3125,-11.0625
12:44:48.836,6.0625,-10.6875
12:44:48.849,5.75,-11.875
12:44:48.858,5.875,-13.5001
12:44:48.867,5,-14.1251
12:44:48.877,5.9375,-15.1251
12:44:48.891,5.0625,-16.7501
12:44:48.898,4.3125,-17.0626
12:44:48.907,4,-19.0001
12:44:48.917,3.75,-19.0626
12:44:48.926,3.875,-20.8751
12:44:48.936,3.125,-21.1251
12:44:48.947,2.6875,-22.7501
12:44:48.965,3.4375,-22.1876
12:44:48.970,5,-16.3126
12:44:48.989,6.625,-10.8125
12:44:48.992,7.625,-3.6875
12:44:49.058,8.0625,2.9375
12:44:49.058,8.6875,6.625
12:44:49.058,8.75,12.625
12:44:49.059,10.6875,17.3751
12:44:49.063,11.8125,19.6251
12:44:49.069,12.9375,23.1876
12:44:49.069,14.4376,25.2501
12:44:49.069,14.6251,26.8751
12:44:49.098,15.6876,28.0626
12:44:49.102,16.1251,27.3751
12:44:49.104,16.0626,27.4376
12:44:49.108,16.6251,26.1251
12:44:49.138,16.4376,24.3126
12:44:49.140,16.7501,22.8751
12:44:49.143,16.6876,21.5626
12:44:49.148,16.7501,19.4376
12:44:49.163,17.6876,17.2501
12:44:49.167,17.3751,15.0001
12:44:49.176,16.8751,11.9375
12:44:49.187,16.1876,9.3125
12:44:49.196,15.4376,6.6875
12:44:49.208,15.1251,5.25
12:44:49.217,14.8126,4.8125
12:44:49.226,14.0001,3.0625
12:44:49.238,13.6876,3.5625
12:44:49.247,13.8751,2.25
12:44:49.257,14.0626,2.0625
12:44:49.267,12.9375,2.8125
12:44:49.276,14.0001,3.875
12:44:49.287,13.6876,3.6875
12:44:49.297,13.125,4.375
12:44:49.307,13.6251,6.6875
12:44:49.317,14.5626,7.125
12:44:49.326,13.8751,6.6875
12:44:49.337,13.5001,7.375
12:44:49.348,13.6251,7.25
12:44:49.357,12.4375,5.5
12:44:49.366,11.9375,5.5
12:44:49.378,12.5,4.75
12:44:49.387,11.6875,3.5
12:44:49.397,10.8125,2.3125
12:44:49.407,10.625,2.125
12:44:49.422,10.1875,1.3125
12:44:49.432,10.1875,-0.125
12:44:49.442,10.4375,-1.6875
12:44:49.452,9.4375,-2.1875
12:44:49.461,9.0625,-2.875
12:44:49.475,9.0625,-4.625
12:44:49.482,9,-6.875
12:44:49.492,8.125,-6.6875
12:44:49.502,7.3125,-8.4375
12:44:49.511,7.8125,-9.1875
12:44:49.522,7.3125,-10.8125
12:44:49.532,6.5625,-12.1875
12:44:49.541,6.4375,-12.5
12:44:49.553,6.5,-13.7501
12:44:49.562,6.375,-13.8751
12:44:49.572,7,-10.5625
12:44:49.585,9.8125,-2.125
12:44:49.593,9.9375,6.1875
12:44:49.609,10.875,12.5625
12:44:49.616,11.4375,17.1251
12:44:49.623,12.5,21.1876
12:44:49.632,13.2501,26.0001
12:44:49.653,14.6251,29.4376
12:44:49.656,14.8751,31.8126
12:44:49.664,15.2501,35.0001
12:44:49.672,16.0001,34.5626
12:44:49.681,16.7501,35.5626
12:44:49.692,17.3126,36.3126
12:44:49.702,18.3126,35.5001
12:44:49.712,18.5626,34.3751
12:44:49.722,18.5001,35.1251
12:44:49.732,18.8126,31.5626
12:44:49.742,18.5626,29.4376
12:44:49.752,18.1251,27.6251
12:44:49.775,17.5001,25.4376
12:44:49.778,17.6876,21.8126
12:44:49.781,17.5001,18.5001
12:44:49.819,16.2501,16.2501
12:44:49.822,15.8751,13.9376
12:44:49.823,15.7501,12.0625
12:44:49.825,15.4376,10.75
12:44:49.832,14.7501,9.9375
12:44:49.861,15.6251,9.5625
12:44:49.863,14.0626,8.8125
12:44:49.865,13.7501,10.375
12:44:49.873,14.1251,10.5
12:44:49.901,14.0626,10.375
12:44:49.904,13.6876,12.3125
12:44:49.906,13.6876,12.6875
12:44:49.913,13.5626,13.2501
12:44:49.943,13.125,12.75
12:44:49.946,12.5,13.6251
12:44:49.948,13.2501,13.5001
12:44:49.973,12.75,12.125
12:44:49.974,11.625,11.9375
12:44:49.977,11.1875,11.1875
12:44:49.983,10.75,9.6875
12:44:49.992,10.25,8.125
12:44:50.002,8.875,8.75
12:44:50.016,9.125,6.625
12:44:50.022,9.1875,5.5
12:44:50.032,8.4375,3.5
12:44:50.042,7.8125,2.875
12:44:50.051,7.4375,2.25
12:44:50.062,7,1.3125
12:44:50.072,7.3125,-0.875
12:44:50.082,6.25,-3.375
12:44:50.092,5.6875,-3.4375
12:44:50.102,4.6875,-5.5
12:44:50.112,4.8125,-7.125
12:44:50.122,4.5625,-9.1875
12:44:50.132,3.4375,-11.8125
12:44:50.141,2.9375,-10.1875
12:44:50.153,3.5625,-9.75
12:44:50.161,4.6875,-5.75
12:44:50.172,6.5,3
12:44:50.182,8.5,9.3125
12:44:50.191,8.0625,15.1876
12:44:50.205,8.25,21.6876
12:44:50.212,9.75,26.1876
12:44:50.222,10.75,30.1251
12:44:50.232,11.0625,33.1251
12:44:50.242,11.8125,38.6876
12:44:50.253,13,39.1251
12:44:50.261,13.3751,40.8752
12:44:50.272,14.6876,42.1252
12:44:50.283,14.3751,41.0002
12:44:50.302,14.6876,41.0002
12:44:50.304,15.1251,39.8752
12:44:50.314,15.1876,39.0002
12:44:50.321,15.7501,37.6251
12:44:50.337,14.7501,34.7501
12:44:50.344,14.1251,32.8751
12:44:50.352,14.5626,29.5626
12:44:50.363,14.1251,26.3751
12:44:50.371,13.3751,24.0001
12:44:50.381,13.7501,21.5001
12:44:50.392,11.875,18.3126
12:44:50.401,11.5,16.8751
12:44:50.411,11.25,15.6876
12:44:50.421,10.625,13.3126
12:44:50.437,9.375,12.3125
12:44:50.443,9.6875,12.625
12:44:50.474,9.5,12.5625
12:44:50.475,10,13.5626
12:44:50.478,10.3125,15.9376
12:44:50.504,10.6875,16.0001
12:44:50.505,9.75,16.1876
12:44:50.508,9.6875,18.7501
12:44:50.513,9.25,17.3751
12:44:50.539,9,16.1876
12:44:50.543,7.6875,15.6876
12:44:50.544,7.0625,15.2501
12:44:50.569,6.3125,13.5626
12:44:50.571,6.4375,14.5001
12:44:50.574,6.5625,13.2501
12:44:50.582,5.875,12.25
12:44:50.609,5.8125,11.5
12:44:50.611,5.125,11.6875
12:44:50.614,5.625,9.25
12:44:50.622,4.5,6.875
12:44:50.632,3.8125,6.0625
12:44:50.642,2.625,4.4375
12:44:50.651,2.875,2.6875
12:44:50.662,2.375,0.1875
12:44:50.672,1.875,-0.0625
12:44:50.681,1.8125,-2.1875
12:44:50.692,-0.0625,-4.8125
12:44:50.703,-0.25,-4.9375
12:44:50.712,0.25,-6.375
12:44:50.722,-0.625,-7.8125
12:44:50.732,-0.75,-6.625
12:44:50.744,1.3125,-0.9375
12:44:50.752,2.0625,5.1875
12:44:50.766,2.5625,13.8126
12:44:50.773,3.4375,18.8126
12:44:50.781,3.4375,23.0626
12:44:50.792,4.3125,29.3751
12:44:50.802,5.8125,34.2501
12:44:50.811,7.125,38.3751
12:44:50.822,7.75,42.0627
12:44:50.832,9.625,45.7502
12:44:50.842,10.4375,47.3127
12:44:50.852,12.1875,49.2502
12:44:50.861,12.8125,49.0002
12:44:50.873,13.125,49.7502
12:44:50.882,13.7501,48.0627
12:44:50.892,13.6876,47.8127
12:44:50.902,13.2501,45.5002
12:44:50.911,13.4376,43.5002
12:44:50.923,13.1876,41.3127
12:44:50.938,12.5625,37.7501
12:44:50.944,12.0625,34.0001
12:44:50.954,12.125,32.1876
12:44:50.962,11.625,28.1876
12:44:50.978,10.625,26.5001
12:44:50.993,10.625,23.8751
12:44:50.995,8.9375,21.8126
12:44:51.003,8.0625,20.4376
12:44:51.011,8.6875,19.1251
12:44:51.022,8.125,18.9376
12:44:51.032,7.625,19.6251
12:44:51.041,7.6875,19.6251
12:44:51.052,7.625,21.5001
12:44:51.062,7.8125,22.2501
12:44:51.072,8.5,22.6876
12:44:51.082,7.1875,22.1876
12:44:51.092,7,23.0001
12:44:51.102,6.4375,23.2501
12:44:51.112,6.6875,22.1251
12:44:51.122,6.5,21.7501
12:44:51.131,5.5,20.1876
12:44:51.141,4.875,19.2501
12:44:51.153,4.25,19.7501
12:44:51.162,4.9375,18.0626
12:44:51.172,3.75,15.8126
12:44:51.183,2.5625,15.8751
12:44:51.192,2.9375,13.6876
12:44:51.202,2.5625,11.4375
12:44:51.214,1.8125,11.375
12:44:51.254,1.4375,9.1875
12:44:51.257,0.875,6.375
12:44:51.260,0.625,4.4375
12:44:51.262,0.1875,4.3125
12:44:51.264,-0.4375,1.5
12:44:51.273,-1.1875,0.0625
12:44:51.306,-1.5,-1.5
12:44:51.309,-1,-4
12:44:51.310,-2.25,-4.5625
12:44:51.313,-1.5625,-3.1875
12:44:51.341,-0.5,-0.4375
12:44:51.345,0.4375,7.25
12:44:51.349,2.0625,14.5626
12:44:51.354,2.0625,20.0626
12:44:51.385,3.375,27.1876
12:44:51.388,4.375,32.8126
12:44:51.390,5.625,38.3751
12:44:51.394,7.3125,44.5627
12:44:51.403,8.5,49.3127
12:44:51.412,10.875,52.8752
12:44:51.422,11.4375,54.1877
12:44:51.432,12.5,56.5002
12:44:51.442,13.4376,56.1252
12:44:51.452,14.3751,57.5002
12:44:51.462,15.2501,56.1252
12:44:51.472,15.3751,54.8127
12:44:51.482,15.4376,53.6252
12:44:51.492,15.8126,53.1877
12:44:51.501,16.0001,50.7502
12:44:51.518,16.0626,47.3127
12:44:51.524,15.5001,44.8752
12:44:51.532,14.1876,40.9377
12:44:51.542,13.7501,37.3126
12:44:51.552,12.6875,34.1876
12:44:51.561,11.5625,32.8126
12:44:51.574,12.0625,29.5626
12:44:51.582,11.75,28.8751
12:44:51.592,11.6875,28.1876
12:44:51.602,12,30.1876
12:44:51.620,12.8125,30.1876
12:44:51.624,12.5,30.0626
12:44:51.636,12.1875,31.0001
12:44:51.652,12.1875,32.1251
12:44:51.654,12.3125,32.5001
12:44:51.664,12.25,32.0001
12:44:51.673,11.9375,32.4376
12:44:51.682,12.25,32.2501
12:44:51.691,11.625,31.0626
12:44:51.702,10.9375,32.0626
12:44:51.712,10.4375,30.8126
12:44:51.722,10,28.6251
12:44:51.731,9.3125,28.6251
12:44:51.742,9.4375,27.1876
12:44:51.752,9.75,26.6876
12:44:51.762,9.375,24.1876
12:44:51.774,8.0625,23.8126
12:44:51.782,7.875,22.6251
12:44:51.792,8.4375,21.1876
12:44:51.802,7.9375,18.7501
12:44:51.811,7.5,17.5626
12:44:51.824,6.625,15.8126
12:44:51.832,5.75,12.3125
12:44:51.842,5.3125,10.375
12:44:51.852,4.1875,8.125
12:44:51.862,3.8125,5.8125
12:44:51.873,2.4375,2.375
12:44:51.882,1.625,2.9375
12:44:51.920,2.125,1.8125
12:44:51.922,3.25,4.5625
12:44:51.924,4.4375,10.75
12:44:51.926,6,19.0626
