timestamp,Red,IR
13:58:57.915,-3.9375,-11.0625
13:58:57.925,-4.1875,-13.1251
13:58:57.936,-4.9063,-15.4376
13:58:57.946,-5.375,-16.8126
13:58:57.956,-5.5938,-18.6251
13:58:57.987,-6.375,-20.5001
13:58:57.988,-6.4375,-23.1876
13:58:57.991,-7.0313,-25.3126
13:58:57.995,-7.2188,-26.1251
13:58:58.006,-7.875,-29.1251
13:58:58.016,-8.5,-30.6876
13:58:58.026,-8.875,-31.8751
13:58:58.036,-9.1563,-34.0626
13:58:58.046,-9.4063,-34.8126
13:58:58.056,-9.75,-37.5001
13:58:58.066,-9.8438,-38.0001
13:58:58.075,-10.25,-39.6877
13:58:58.086,-10.125,-41.0002
13:58:58.095,-9.875,-42.0627
13:58:58.106,-10.7188,-42.6877
13:58:58.115,-10.3125,-44.7502
13:58:58.126,-10.7188,-45.2502
13:58:58.137,-9.7188,-45.8127
13:58:58.146,-10.8438,-46.4377
13:58:58.156,-10.6875,-48.2502
13:58:58.165,-11.0625,-47.6877
13:58:58.175,-10.375,-49.3752
13:58:58.187,-10.375,-49.2502
13:58:58.230,-10.25,-50.2502
13:58:58.245,-10.8438,-49.8127
13:58:58.247,-11.0938,-50.5002
13:58:58.264,-10.5625,-49.8127
13:58:58.264,-9.9375,-45.6877
13:58:58.264,-8.0938,-38.3751
13:58:58.264,-4.9063,-24.6876
13:58:58.266,-1.2813,-11.4375
13:58:58.277,1.7813,2.0625
13:58:58.286,3.5313,12.75
13:58:58.296,5.5313,21.1876
13:58:58.306,7.125,29.0626
13:58:58.316,7.5313,32.1876
13:58:58.326,9.1875,35.5001
13:58:58.336,9.9375,39.1251
13:58:58.347,9.9375,40.0002
13:58:58.356,10,41.5002
13:58:58.366,9.875,41.7502
13:58:58.376,10.2188,44.3127
13:58:58.386,10.5625,43.6252
13:58:58.395,10.5625,43.5002
13:58:58.405,10.4375,45.5002
13:58:58.427,11.0938,44.7502
13:58:58.430,10.1875,46.0002
13:58:58.437,10.9063,45.6877
13:58:58.463,10.125,44.5627
13:58:58.465,9.125,45.1877
13:58:58.470,9,42.6252
13:58:58.497,9.4063,40.4377
13:58:58.499,8.0938,37.8126
13:58:58.501,7.6563,35.5626
13:58:58.510,6.4063,32.6251
13:58:58.534,5.8125,29.9376
13:58:58.536,5.4063,26.6876
13:58:58.539,5,25.1876
13:58:58.569,4.0938,22.5626
13:58:58.574,3.5625,20.0626
13:58:58.575,3.3125,19.3126
13:58:58.584,2.9375,17.0001
13:58:58.595,2.5938,17.2501
13:58:58.597,2.3438,15.5626
13:58:58.608,1.875,15.0626
13:58:58.617,2.0938,13.3751
13:58:58.627,2.0938,12.125
13:58:58.636,1.9063,12.3125
13:58:58.645,1.375,9.125
13:58:58.656,1.1563,8.8125
13:58:58.665,0.9688,7.375
13:58:58.676,-0.1875,5.9375
13:58:58.686,-0.0313,4.1875
13:58:58.696,-0.3125,1.9375
13:58:58.706,-1.375,1.125
13:58:58.716,-0.4063,-1.25
13:58:58.726,-1.5625,-3.75
13:58:58.736,-1.5313,-5.4375
13:58:58.745,-2.1875,-7.3125
13:58:58.755,-2.3125,-9
13:58:58.765,-3.3438,-11.0625
13:58:58.776,-3.2813,-13.1876
13:58:58.787,-3.9375,-15.4376
13:58:58.796,-4.1563,-16.4376
13:58:58.806,-4.4063,-18.6876
13:58:58.817,-4.9063,-20.7501
13:58:58.826,-5.0938,-23.0626
13:58:58.837,-5.5938,-24.3126
13:58:58.846,-5.9688,-26.2501
13:58:58.857,-6.3438,-28.3126
13:58:58.866,-7,-30.1251
13:58:58.876,-7.5625,-32.3751
13:58:58.886,-7.2188,-33.0001
13:58:58.896,-7.8125,-35.1251
13:58:58.905,-7.8438,-36.4376
13:58:58.916,-7.9375,-36.8751
13:58:58.927,-8.3438,-39.5627
13:58:58.937,-8.2813,-40.6877
13:58:58.946,-8.875,-41.2502
13:58:58.957,-8.7188,-43.6877
13:58:58.966,-8.7188,-44.0002
13:58:58.976,-9.2813,-44.4377
13:58:58.985,-9.2188,-46.8752
13:58:58.997,-8.7188,-47.1877
13:58:59.005,-9.4375,-48.5627
13:58:59.016,-9.375,-49.7502
13:58:59.031,-9.8125,-49.5627
13:58:59.041,-10.125,-51.3127
13:58:59.051,-10.0938,-51.3127
13:58:59.061,-9.875,-50.9377
13:58:59.071,-9.75,-53.1252
13:58:59.083,-9.6563,-53.0002
13:58:59.091,-10.1875,-53.1877
13:58:59.102,-10.4063,-54.2502
13:58:59.124,-10.2188,-52.7502
13:58:59.126,-9.8438,-51.2502
13:58:59.131,-7.7813,-43.9377
13:58:59.163,-4.9375,-31.3126
13:58:59.166,-0.9688,-16.3751
13:58:59.169,1.9063,-3.125
13:58:59.171,4.8438,10.5625
13:58:59.198,7.6875,19.5001
13:58:59.201,8.375,27.5626
13:58:59.203,10.25,32.1876
13:58:59.245,10.8438,36.7501
13:58:59.247,11.625,38.6251
13:58:59.248,12.2813,40.1252
13:58:59.255,11.875,42.2502
13:58:59.256,12.5625,42.5627
13:58:59.269,12.5625,44.1877
13:58:59.274,13.1563,45.2502
13:58:59.296,12.6563,46.0002
13:58:59.299,12.8125,46.2502
13:58:59.301,12.6875,46.2502
13:58:59.312,12.4063,48.6252
13:58:59.321,12.75,46.9377
13:58:59.332,12.375,46.6252
13:58:59.341,12,46.7502
13:58:59.351,12,44.7502
13:58:59.365,10.6563,43.5002
13:58:59.372,10.375,40.0002
13:58:59.381,9.4063,37.3751
13:58:59.390,9.1563,34.7501
13:58:59.400,8.6875,31.8126
13:58:59.411,7.5938,28.0001
13:58:59.420,6.4063,26.5001
13:58:59.431,6.2813,24.1876
13:58:59.443,5.2813,21.9376
13:58:59.453,5.6875,20.6251
13:58:59.461,5.2188,18.9376
13:58:59.471,4.5,18.0626
13:58:59.480,4.75,16.8126
13:58:59.492,4.2188,16.7501
13:58:59.506,3.5938,15.9376
13:58:59.517,3.4063,13.5001
13:58:59.522,3.4063,13.125
13:58:59.537,3.5313,11.6875
13:58:59.553,2.9375,10.5625
13:58:59.555,2.3438,9.3125
13:58:59.564,2.1563,6.1875
13:58:59.572,1.2188,5.6875
13:58:59.586,1.6875,2.875
13:58:59.606,1.0313,2
13:58:59.606,0.875,-0.5
13:58:59.614,-0.3438,-2.25
13:58:59.622,0.0625,-3.875
13:58:59.632,-0.5938,-6.0625
13:58:59.641,-1.3125,-7.5
13:58:59.651,-1.5,-10.5
13:58:59.662,-2.1875,-12.3125
13:58:59.671,-2.0625,-13.5626
13:58:59.681,-1.8438,-15.7501
13:58:59.691,-2.8125,-16.8126
13:58:59.701,-3.2813,-18.1251
13:58:59.713,-3.3438,-21.1251
13:58:59.722,-3.875,-23.2501
13:58:59.733,-4,-24.5001
13:58:59.742,-4.375,-26.0626
13:58:59.752,-4.5,-27.8126
13:58:59.762,-5.2188,-29.1251
13:58:59.771,-5.25,-31.3751
13:58:59.781,-4.8438,-32.6251
13:58:59.791,-6.0938,-34.3126
13:58:59.801,-6,-35.3126
13:58:59.812,-6,-35.8126
13:58:59.821,-6.4063,-36.1876
13:58:59.830,-6.4688,-39.5002
13:58:59.842,-6.3125,-40.4377
13:58:59.852,-7.25,-41.6877
13:58:59.862,-6.8438,-43.1252
13:58:59.871,-6.75,-43.4377
13:58:59.881,-7.4063,-43.6877
13:58:59.892,-7.1875,-45.6252
13:58:59.901,-8.2188,-46.1877
13:58:59.937,-7.9063,-47.9377
13:58:59.940,-8.4688,-48.8127
13:58:59.942,-7.9375,-49.2502
13:58:59.944,-8.8438,-49.5002
13:58:59.975,-8.1563,-51.0002
13:58:59.977,-8.8125,-50.2502
13:58:59.978,-8.5625,-51.8127
13:58:59.981,-8.5313,-51.3752
13:59:00.008,-8.5313,-47.1877
13:59:00.013,-6.0938,-40.6877
13:59:00.016,-3.0625,-28.8751
13:59:00.021,0.6875,-13.5001
13:59:00.032,3.7188,-0.9375
13:59:00.065,6.5313,11.3125
13:59:00.067,9.0625,20.5001
13:59:00.070,10.4688,27.9376
13:59:00.074,11.4063,33.3126
13:59:00.091,12.5313,37.0001
13:59:00.094,12.5625,40.5627
13:59:00.103,13.8126,41.9377
13:59:00.118,13.8751,43.5002
13:59:00.122,14.2813,44.9377
13:59:00.132,14.0313,45.5627
13:59:00.141,14.5001,47.3127
13:59:00.152,15.3751,47.7502
13:59:00.163,14.5001,48.0627
13:59:00.173,15.2501,48.6252
13:59:00.181,14.4376,48.9377
13:59:00.191,14.3438,49.8752
13:59:00.203,14.5938,49.6877
13:59:00.211,14.3438,48.0002
13:59:00.221,13.6563,46.6877
13:59:00.231,13.1563,44.7502
13:59:00.241,12.0938,42.2502
13:59:00.252,10.9063,39.2501
13:59:00.261,10.9688,37.5626
13:59:00.270,9.8125,34.0626
13:59:00.282,8.5625,31.9376
13:59:00.291,8.9063,29.1251
13:59:00.301,8.3438,27.1876
13:59:00.310,7.3438,25.1876
13:59:00.321,7.0625,23.1876
13:59:00.331,6.7813,22.4376
13:59:00.341,6.5625,20.6876
13:59:00.351,6.375,20.3751
13:59:00.363,6.0938,19.1876
13:59:00.371,6.1875,19.3751
13:59:00.381,5.6563,17.0626
13:59:00.392,5.3438,16.5626
13:59:00.400,5.25,14.5626
13:59:00.412,5.1563,14.5626
13:59:00.421,4.375,12.25
13:59:00.432,4.125,11.1875
13:59:00.442,3.8125,8.9375
13:59:00.451,3.375,6.9375
13:59:00.462,3.0625,5.75
13:59:00.473,2.5625,3.75
13:59:00.481,2.6563,1.5
13:59:00.497,1.375,0.25
13:59:00.522,1.9688,-1.4375
13:59:00.524,1.1875,-4.5625
13:59:00.527,0.3125,-5.625
13:59:00.534,0.3125,-8
13:59:00.542,-0.5313,-9.8125
13:59:00.550,-0.9688,-12.5625
13:59:00.562,-1.2188,-14.5001
13:59:00.573,-1.75,-15.8751
13:59:00.581,-2.3438,-18.8126
13:59:00.591,-2.2188,-20.3126
13:59:00.600,-2.375,-22.0626
13:59:00.613,-2.75,-23.3751
13:59:00.623,-3.4375,-26.2501
13:59:00.658,-4.1563,-27.8751
13:59:00.661,-3.875,-29.6251
13:59:00.663,-4.4375,-30.3126
13:59:00.666,-4.4375,-32.1876
13:59:00.673,-4.8125,-33.1876
13:59:00.700,-5.0313,-34.8751
13:59:00.702,-4.875,-36.6876
13:59:00.707,-5.6875,-36.3751
13:59:00.711,-6.0625,-38.8751
13:59:00.741,-5.6875,-40.0627
13:59:00.742,-6.0938,-40.8752
13:59:00.744,-6.4688,-43.3127
13:59:00.771,-6.25,-43.6252
13:59:00.773,-6.9063,-43.7502
13:59:00.775,-6.9688,-46.1252
13:59:00.781,-6.625,-46.6252
13:59:00.815,-7.0938,-46.8127
13:59:00.816,-6.9063,-48.2502
13:59:00.820,-7.0313,-48.5627
13:59:00.823,-7.4375,-50.3752
13:59:00.838,-7.5625,-49.0627
13:59:00.845,-7.4375,-50.8127
13:59:00.853,-7.3125,-51.0002
13:59:00.861,-7.5,-51.5002
13:59:00.879,-7.9063,-52.6877
13:59:00.884,-7.5313,-50.6877
13:59:00.893,-6.8438,-47.2502
13:59:00.909,-4.875,-37.6251
13:59:00.914,-0.6563,-23.1876
13:59:00.928,2.25,-8.0625
13:59:00.942,6.3125,4.8125
13:59:00.945,8.1875,15.6251
13:59:00.960,10.2188,24.2501
13:59:00.966,11,30.5001
13:59:00.971,13.2501,34.5626
13:59:00.982,13.7501,37.3751
13:59:00.992,14.0938,41.2502
13:59:01.003,14.1251,42.0627
13:59:01.011,14.2813,43.8752
13:59:01.022,14.8751,43.6252
13:59:01.032,15.0313,45.9377
13:59:01.042,15.4063,45.4377
13:59:01.050,14.9688,46.3752
13:59:01.062,15.0938,47.3127
13:59:01.071,14.6876,46.8127
13:59:01.081,14.6876,46.6252
13:59:01.092,14.3438,46.8752
13:59:01.102,13.8438,45.6877
13:59:01.113,14.5313,44.1252
13:59:01.122,13.0625,42.7502
13:59:01.132,12.4688,39.8752
13:59:01.141,11.7188,36.9376
13:59:01.153,11.0313,34.1251
13:59:01.161,10.5625,31.5001
13:59:01.173,8.9375,28.8751
13:59:01.182,8.9375,27.6251
13:59:01.192,8.4063,24.6876
13:59:01.202,7.625,22.5001
13:59:01.214,7.5,21.5001
13:59:01.224,7.3438,20.1251
13:59:01.231,7.2813,18.4376
13:59:01.243,6.9688,17.4376
13:59:01.254,6.7813,17.0626
13:59:01.264,6.9063,16.5001
13:59:01.271,6.1875,15.4376
13:59:01.299,6.375,14.0626
13:59:01.301,5.5313,13.4376
13:59:01.304,5.5313,11.6875
13:59:01.314,5,10.6875
13:59:01.343,4.9688,9.0625
13:59:01.346,4.625,7.25
13:59:01.347,4.375,5.75
13:59:01.352,3.75,3.875
13:59:01.382,2.7813,1.8125
13:59:01.385,2.4375,-0.875
13:59:01.385,2,-2.375
13:59:01.421,2.0625,-4.5625
13:59:01.424,0.7813,-5.3125
13:59:01.424,0.8125,-8.3125
13:59:01.432,-0.0938,-9.625
13:59:01.435,-0.0938,-12.875
13:59:01.463,-0.7188,-14.7501
13:59:01.465,-0.2813,-17.0001
13:59:01.467,-1.2188,-17.9376
13:59:01.477,-1.8125,-19.4376
13:59:01.482,-1.6875,-22.8751
13:59:01.491,-2.1563,-23.0626
13:59:01.501,-2.9375,-26.1251
13:59:01.512,-2.9688,-26.5626
13:59:01.521,-3.75,-29.8751
13:59:01.533,-3.4063,-31.0001
13:59:01.542,-4.0938,-31.3126
13:59:01.552,-4.0938,-34.2501
13:59:01.562,-4.4375,-35.3126
13:59:01.572,-4.0938,-36.3126
13:59:01.582,-5.3125,-36.6251
13:59:01.592,-5.1563,-40.0627
13:59:01.602,-4.5938,-39.8752
13:59:01.613,-5.5313,-40.8752
13:59:01.624,-5.9063,-42.7502
13:59:01.634,-5.8125,-43.4377
13:59:01.642,-6.25,-44.2502
13:59:01.654,-6.5,-44.3127
13:59:01.662,-5.6875,-45.8127
13:59:01.672,-6.6563,-45.3752
13:59:01.683,-6.1875,-47.3752
13:59:01.693,-6.625,-46.9377
13:59:01.703,-6.25,-48.5002
13:59:01.713,-6.5313,-48.9377
13:59:01.724,-6.9063,-48.5627
13:59:01.732,-7.0313,-50.1252
13:59:01.743,-6.5625,-46.8752
13:59:01.752,-5.4375,-41.4377
13:59:01.765,-2.25,-30.6251
13:59:01.771,0.9063,-15.8126
13:59:01.803,4.5938,-2.25
13:59:01.809,7,9.875
13:59:01.809,9.5938,21.8751
13:59:01.813,11.1563,28.6876
13:59:01.823,12.625,34.8126
13:59:01.832,13.7501,37.8126
13:59:01.843,14.6876,42.9377
13:59:01.852,14.7188,43.4377
13:59:01.862,15.2188,46.3127
13:59:01.872,14.9688,45.5002
13:59:01.881,15.6251,47.4377
13:59:01.893,15.2813,47.1252
13:59:01.901,15.6876,49.0627
13:59:01.912,15.2188,48.0627
13:59:01.921,15.1563,48.9377
13:59:01.934,15.0938,50.3127
13:59:01.942,15.4688,48.9377
13:59:01.952,14.7501,48.0627
13:59:01.960,14.5626,48.0002
13:59:01.972,14.4063,47.1252
13:59:01.981,13.2188,44.1252
13:59:01.992,12.9063,42.7502
13:59:02.001,11.9688,39.1251
13:59:02.016,10.7813,36.6251
13:59:02.055,11.0313,33.6251
13:59:02.057,9.0938,30.4376
13:59:02.060,9.3438,28.1251
13:59:02.062,7.8438,25.5626
13:59:02.064,8.25,24.6251
13:59:02.072,7.3438,23.0626
13:59:02.102,7.4063,21.6251
13:59:02.103,6.4688,20.6876
13:59:02.109,7.0625,19.4376
13:59:02.113,6.125,18.6876
13:59:02.141,6.4688,17.5626
13:59:02.143,5.3125,16.3751
13:59:02.146,5.5938,15.0626
13:59:02.190,5.3125,13.3126
13:59:02.192,4.625,12.6875
13:59:02.208,4.2188,10.75
13:59:02.212,4.5313,8.875
13:59:02.226,3.25,7.375
13:59:02.226,3.6875,5.8125
13:59:02.226,2.7188,4.0625
13:59:02.227,2.4688,2.3125
13:59:02.240,2.0313,-1.0625
13:59:02.257,1.3438,-2
13:59:02.257,0.7188,-4.125
13:59:02.272,0.2813,-7
13:59:02.275,0.375,-9.1875
13:59:02.290,-0.1563,-11.125
13:59:02.292,-1,-12.8125
13:59:02.301,-0.8125,-15.2501
13:59:02.312,-1.6875,-16.7501
13:59:02.323,-1.5625,-17.6876
13:59:02.333,-2.25,-20.1876
13:59:02.342,-3.1563,-22.5001
13:59:02.353,-3.3438,-25.5626
13:59:02.361,-2.9375,-25.7501
13:59:02.378,-3.6875,-27.7501
13:59:02.385,-3.8125,-29.5001
13:59:02.392,-4.7813,-30.9376
13:59:02.402,-4.9375,-32.2501
13:59:02.412,-4.9688,-34.1251
13:59:02.422,-4.375,-35.5001
13:59:02.432,-5.6875,-37.1251
13:59:02.442,-4.8438,-38.1251
13:59:02.452,-6.4375,-39.0627
13:59:02.463,-6.25,-40.7502
13:59:02.472,-6.0625,-41.1877
13:59:02.485,-6.3438,-42.8127
13:59:02.492,-6.625,-42.4377
13:59:02.502,-6.4688,-44.5627
13:59:02.512,-6.9063,-44.5002
13:59:02.522,-6.5938,-46.3127
13:59:02.532,-7.2188,-45.7502
13:59:02.542,-7.1875,-48.4377
13:59:02.552,-7.4063,-48.0002
13:59:02.563,-7.5,-48.3752
13:59:02.574,-7.1563,-48.7502
13:59:02.583,-7.6563,-48.3752
13:59:02.593,-7.2188,-47.3127
13:59:02.602,-6.6875,-43.0627
13:59:02.613,-3.9375,-34.3126
13:59:02.621,-0.4688,-20.8126
13:59:02.634,3.2813,-4.5
13:59:02.643,5.75,8.1875
13:59:02.652,9.2813,18.8126
13:59:02.663,11.0313,27.6876
13:59:02.672,12.0625,35.6876
13:59:02.682,14.0938,39.0627
13:59:02.692,14.7813,44.0627
13:59:02.704,15.0001,45.4377
13:59:02.713,15.6251,48.5002
13:59:02.722,15.7188,48.9377
13:59:02.733,15.8438,51.4377
13:59:02.742,16.0001,51.8752
13:59:02.752,16.9063,53.3752
13:59:02.763,16.5001,54.5002
13:59:02.776,17.4063,55.0002
13:59:02.813,16.8438,55.1877
13:59:02.816,16.2188,56.8127
13:59:02.817,16.5626,56.0627
13:59:02.819,16.2188,55.3127
13:59:02.827,15.7501,55.1252
13:59:02.832,14.5626,52.5002
13:59:02.862,14.0626,50.1877
13:59:02.864,12.7813,47.6877
13:59:02.867,11.75,45.1877
13:59:02.874,11.9688,41.1252
13:59:02.903,10.4375,39.9377
13:59:02.906,10.4375,36.0626
13:59:02.908,9.4063,33.8126
13:59:02.914,9.4063,31.6251
13:59:02.932,8.3438,31.0001
13:59:02.934,8.1875,29.3126
13:59:02.952,7.875,27.5001
13:59:02.955,7.9375,26.6251
13:59:02.962,7.5313,25.5001
13:59:02.972,7.375,24.1876
13:59:02.982,6.875,22.7501
13:59:02.992,6.8125,21.8126
13:59:03.003,6.5938,20.6251
13:59:03.014,5.5938,19.6876
13:59:03.022,5.5,18.3751
13:59:03.039,4.9688,16.1251
13:59:03.047,4.0313,15.5001
13:59:03.057,4.4688,12.125
13:59:03.083,3.6875,11.4375
13:59:03.086,3.4063,9.0625
13:59:03.089,2.875,7.125
13:59:03.097,2.1563,4.4375
13:59:03.108,1.6563,3.375
13:59:03.118,1.5625,0.625
13:59:03.128,0.5,-1.125
13:59:03.137,0.8438,-3.5625
13:59:03.149,-0.3438,-5.0625
13:59:03.160,-0.5313,-8.0625
13:59:03.167,-1.3438,-9.75
13:59:03.177,-1.5313,-12.6875
13:59:03.187,-1.7188,-13.5001
13:59:03.197,-2.0938,-16.3751
13:59:03.207,-2.7813,-17.7501
13:59:03.219,-2.7813,-19.6251
13:59:03.227,-3,-21.9376
13:59:03.238,-3.625,-22.1876
13:59:03.247,-4,-25.3751
13:59:03.256,-4.4375,-26.7501
13:59:03.267,-4.8438,-27.9376
13:59:03.277,-5.125,-29.9376
13:59:03.287,-5.7188,-31.3126
13:59:03.297,-5.75,-33.0001
13:59:03.307,-6.375,-35.7501
13:59:03.317,-6.4688,-36.2501
13:59:03.328,-6.8125,-37.8751
13:59:03.339,-6.6563,-39.0001
13:59:03.347,-7.75,-40.1252
13:59:03.357,-7.5625,-42.0627
13:59:03.367,-7.9375,-41.8752
13:59:03.377,-8.0938,-44.0002
13:59:03.387,-8.0625,-43.3127
13:59:03.397,-8.0313,-45.9377
13:59:03.409,-8.5,-45.7502
13:59:03.418,-8.0625,-47.4377
13:59:03.427,-8.6563,-46.9377
13:59:03.437,-8.375,-48.5627
13:59:03.447,-8.8125,-48.5627
13:59:03.457,-8.8438,-49.8127
13:59:03.518,-8.9063,-49.8127
13:59:03.519,-8.625,-50.1877
13:59:03.523,-8.875,-49.5627
13:59:03.524,-7.7813,-46.0627
13:59:03.528,-6.0938,-37.8126
13:59:03.587,-2.0938,-24.5001
13:59:03.590,0.7813,-8.5
13:59:03.590,5.5,5.5625
13:59:03.590,7.0938,16.8126
13:59:03.601,10.3125,27.0626
13:59:03.601,11.4688,34.0626
13:59:03.601,12.9688,40.7502
13:59:03.627,13.7188,43.3752
13:59:03.630,13.5001,46.2502
13:59:03.632,15.0313,48.1252
13:59:03.639,14.6876,50.4377
13:59:03.653,15.7813,52.0627
13:59:03.660,15.6251,53.0002
13:59:03.666,15.6876,54.3127
13:59:03.677,15.9376,55.7502
13:59:03.687,16.4063,57.2502
13:59:03.697,15.7813,58.0627
13:59:03.708,15.6251,59.4377
13:59:03.717,16.4688,59.0002
13:59:03.727,15.2813,58.6877
13:59:03.736,15.3751,58.1252
13:59:03.748,14.3751,55.4377
13:59:03.759,13.7813,53.2502
13:59:03.767,12.9063,49.8752
13:59:03.777,11.625,46.8127
13:59:03.787,11.375,44.6877
13:59:03.797,9.8438,41.1877
13:59:03.807,9.6875,39.2502
13:59:03.817,9.0938,35.8126
13:59:03.829,7.625,35.2501
13:59:03.839,7.7188,32.8751
13:59:03.847,7.0625,31.4376
13:59:03.857,6.75,30.3126
13:59:03.868,6.375,28.3751
13:59:03.879,6,27.4376
13:59:03.887,5.3125,26.0626
13:59:03.897,5.3125,24.6251
13:59:03.907,5.5625,24.0001
13:59:03.920,4.5625,22.7501
13:59:03.928,4.1875,21.0001
13:59:03.938,4.0313,18.8751
13:59:03.948,3.25,18.1251
13:59:03.957,2.8125,16.0001
13:59:03.968,2.875,13.4376
13:59:03.977,2.5938,11
13:59:03.987,1.3438,8.9375
13:59:03.997,1.4063,7
13:59:04.006,0.625,4.5625
13:59:04.018,0.1563,2.8125
13:59:04.029,-1.125,0.375
13:59:04.039,-1.3438,-1.1875
13:59:04.049,-1.3438,-3.4375
13:59:04.057,-1.9375,-6.125
13:59:04.068,-2.4688,-7.875
13:59:04.078,-2.7813,-8.5625
13:59:04.087,-3.125,-11.4375
13:59:04.097,-3.5313,-14.5626
13:59:04.107,-3.8438,-15.5626
13:59:04.117,-3.8438,-17.2501
13:59:04.127,-5.3125,-20.1251
13:59:04.138,-5.6875,-20.4376
13:59:04.149,-5.125,-23.3126
13:59:04.158,-5.9063,-25.6251
13:59:04.167,-6.2188,-26.8126
13:59:04.177,-6.0313,-28.8126
13:59:04.188,-6.9375,-30.0626
13:59:04.197,-7.4063,-31.0001
13:59:04.208,-6.9375,-34.1876
13:59:04.217,-8.0625,-34.7501
13:59:04.228,-8.0625,-37.3751
13:59:04.237,-8.5,-37.0626
13:59:04.247,-8.2188,-39.5002
13:59:04.258,-8.3125,-40.3752
13:59:04.269,-8.8438,-42.3127
13:59:04.279,-9.2813,-42.8752
13:59:04.300,-9.4375,-44.0627
13:59:04.303,-9.75,-45.2502
13:59:04.307,-9.5,-46.2502
13:59:04.335,-9.7813,-46.5002
13:59:04.337,-9.5938,-47.9377
13:59:04.340,-10.3438,-47.9377
13:59:04.366,-9.8125,-49.4377
13:59:04.367,-10.125,-49.1877
13:59:04.369,-9.9688,-49.8752
13:59:04.405,-10.0313,-51.4377
13:59:04.407,-10.0625,-51.0627
13:59:04.408,-9.7813,-51.8127
13:59:04.411,-9.375,-51.6877
13:59:04.418,-10.1875,-53.0002
13:59:04.449,-10.5313,-52.4377
13:59:04.451,-10.125,-50.0002
13:59:04.453,-8.8438,-44.0627
13:59:04.458,-5.4688,-32.1876
13:59:04.477,-1.8125,-17.5626
13:59:04.482,1.2813,-1.1875
13:59:04.487,4.875,11.1875
13:59:04.497,7.4688,21.4376
13:59:04.508,9.5313,29.6876
13:59:04.517,10.75,35.0626
13:59:04.528,12.125,39.6252
13:59:04.537,11.875,42.7502
13:59:04.547,12.6563,44.4377
13:59:04.559,12.625,46.5002
13:59:04.568,13.6563,47.8127
13:59:04.577,14.7501,49.6877
13:59:04.589,13.9376,51.7502
13:59:04.598,14.6251,51.3127
13:59:04.607,14.0001,53.1252
13:59:04.617,14.7188,52.8127
13:59:04.628,13.7813,54.0627
13:59:04.637,13.9063,52.4377
13:59:04.647,13.2813,53.0627
13:59:04.657,12.75,51.3752
13:59:04.667,12.3438,50.3127
13:59:04.677,11.6563,48.5627
13:59:04.688,10.9063,45.5627
13:59:04.697,10.125,42.7502
13:59:04.708,9.375,39.7502
13:59:04.718,8.5938,36.2501
13:59:04.727,8.5625,34.4376
13:59:04.737,6.7813,32.1251
13:59:04.749,6.5,30.9376
13:59:04.757,6.75,28.0001
13:59:04.767,5.6563,26.9376
13:59:04.777,6.0313,25.3126
13:59:04.799,5.2188,23.4376
13:59:04.802,4.8438,23.3126
13:59:04.816,4.5313,22.0001
13:59:04.818,4.0938,20.5001
13:59:04.827,4.2813,18.8751
13:59:04.837,3.8438,17.5001
13:59:04.859,3.4063,16.5626
13:59:04.862,3.1563,15.4376
13:59:04.876,2.9375,14.1251
13:59:04.879,3,12.0625
13:59:04.887,1.8125,9.375
13:59:04.897,1.375,8.1875
13:59:04.908,1.3125,5.8125
13:59:04.918,0.7813,2.9375
13:59:04.927,0.125,1.3125
13:59:04.937,-0.9063,0.0625
13:59:04.948,-0.4375,-2.3125
13:59:04.960,-0.5313,-4.6875
13:59:04.969,-1.6563,-7.5625
13:59:04.977,-2.2813,-10.3125
13:59:04.987,-2.5313,-12.125
13:59:04.997,-3.3125,-14.6251
13:59:05.022,-3.875,-17.2501
13:59:05.024,-4.1563,-18.7501
13:59:05.035,-4.5938,-20.6251
13:59:05.039,-4.5,-22.8751
13:59:05.069,-5.875,-24.8751
13:59:05.071,-6.375,-26.2501
13:59:05.073,-5.8125,-29.6251
13:59:05.079,-7,-31.0626
13:59:05.106,-6.5938,-31.8751
13:59:05.109,-7.2813,-34.4376
13:59:05.110,-8.1875,-35.7501
13:59:05.139,-7.6875,-37.8126
13:59:05.141,-8.3438,-39.3126
13:59:05.143,-8.625,-40.2502
13:59:05.150,-8.625,-42.3752
13:59:05.161,-9.1563,-42.6252
13:59:05.168,-8.8125,-44.0002
13:59:05.193,-9.0625,-45.6877
13:59:05.195,-9.3438,-45.3752
13:59:05.198,-9.375,-47.8127
13:59:05.207,-9.5313,-47.5002
13:59:05.216,-9.4063,-48.8752
13:59:05.228,-9.625,-49.6252
13:59:05.238,-8.75,-50.0002
13:59:05.247,-9.375,-50.0627
13:59:05.259,-9.4375,-51.0002
13:59:05.268,-10,-49.9377
13:59:05.277,-9.375,-52.2502
13:59:05.288,-9.6875,-51.1252
13:59:05.297,-9.6563,-52.6252
13:59:05.307,-9.2188,-51.3127
13:59:05.317,-9.5313,-52.3127
13:59:05.327,-9.0938,-53.0002
13:59:05.336,-9.1563,-53.1877
13:59:05.347,-8.8438,-53.1877
13:59:05.357,-9.5625,-52.8127
13:59:05.369,-9.25,-54.3127
13:59:05.377,-9.5313,-53.5002
13:59:05.387,-10.1875,-52.3752
13:59:05.397,-8.75,-50.0002
13:59:05.407,-7.2813,-40.1252
13:59:05.417,-3.1563,-26.6251
13:59:05.428,0.2813,-10
13:59:05.437,4.0313,4.0625
13:59:05.447,7.5,16.5001
13:59:05.457,8.3125,25.7501
13:59:05.469,10.75,31.1876
13:59:05.477,11.5625,35.8751
13:59:05.487,12.125,38.8126
13:59:05.498,12.8125,41.3127
13:59:05.507,12.875,43.9377
13:59:05.520,13.125,43.0627
13:59:05.528,12.875,45.5002
13:59:05.538,13.2188,45.6877
13:59:05.549,14.0313,45.8127
13:59:05.558,13.3126,47.0627
13:59:05.568,13.4688,47.1877
13:59:05.577,13.8751,48.9377
13:59:05.587,12.8438,49.0002
13:59:05.601,12.9688,46.5627
13:59:05.609,12.25,46.0627
13:59:05.618,12.125,43.5627
13:59:05.643,10.6875,41.7502
13:59:05.645,9.9688,39.3127
13:59:05.647,10.0313,36.6876
13:59:05.657,8.5,32.1876
13:59:05.669,7.625,29.0001
13:59:05.677,7.1563,27.0001
13:59:05.687,6.3438,24.1876
13:59:05.705,5.5313,21.3751
13:59:05.709,5.8438,20.5626
13:59:05.738,5.5313,18.5001
13:59:05.742,5.0625,17.3751
13:59:05.747,4.4688,17.1876
13:59:05.748,4.5,15.6251
13:59:05.780,3.9063,15.0626
13:59:05.782,4.375,15.0001
13:59:05.783,4.5313,13.3126
13:59:05.790,3.7813,11.4375
13:59:05.823,3.4375,11.4375
13:59:05.824,3.5313,10.75
13:59:05.827,3.2813,8
13:59:05.830,2.5,7.25
13:59:05.839,2.5,5.3125
13:59:05.865,1.9063,3.375
13:59:05.867,1.6563,1.1875
13:59:05.869,0.875,-0.25
13:59:05.878,1.1875,-2.75
13:59:05.887,0.4375,-4.875
13:59:05.898,-0.4688,-7.0625
13:59:05.907,-1.125,-8.25
13:59:05.918,-0.5313,-10.6875
13:59:05.927,-1.5,-13.5001
13:59:05.938,-2.4063,-15.4376
13:59:05.948,-2.5313,-16.3126
13:59:05.958,-2.875,-19.0626
13:59:05.968,-3.4688,-21.5626
13:59:05.977,-4,-22.1251
13:59:05.988,-4.2813,-23.8751
13:59:05.998,-4.5,-26.1251
13:59:06.007,-4.4375,-29.1251
13:59:06.018,-5.375,-31.5001
13:59:06.027,-5.5938,-32.2501
13:59:06.038,-5.7188,-34.3751
13:59:06.048,-6.4688,-35.8126
13:59:06.057,-6.6563,-37.5001
13:59:06.067,-7.0625,-38.5001
13:59:06.080,-7.2188,-41.0002
13:59:06.097,-7.5,-41.2502
13:59:06.098,-7.6875,-43.0002
13:59:06.114,-7.7813,-43.0627
13:59:06.119,-8.125,-44.4377
13:59:06.127,-7.9063,-45.0627
13:59:06.137,-7.8125,-46.2502
13:59:06.155,-8.375,-46.7502
13:59:06.157,-8.0313,-47.4377
13:59:06.172,-8.4063,-47.6877
13:59:06.177,-8.4375,-48.3752
13:59:06.188,-8.75,-49.5002
13:59:06.197,-8.5938,-49.9377
13:59:06.207,-8.0625,-49.5002
13:59:06.220,-8.5938,-49.8127
13:59:06.227,-8.4063,-50.8752
13:59:06.237,-8.9063,-51.3752
13:59:06.248,-8.375,-51.3127
13:59:06.257,-8.7188,-51.3752
13:59:06.268,-7.9688,-50.4377
13:59:06.277,-8.8125,-50.6877
13:59:06.288,-8.75,-52.6252
13:59:06.298,-8.9375,-51.1252
13:59:06.307,-9.1563,-50.1877
13:59:06.317,-7.125,-42.6877
13:59:06.327,-4.1563,-31.2501
13:59:06.338,-0.4375,-16.4376
13:59:06.353,2.875,-0.25
13:59:06.357,6.0938,10.75
13:59:06.368,9.0313,20.9376
13:59:06.379,9.4688,27.8126
13:59:06.387,11.25,32.3751
13:59:06.397,12.4063,36.9376
13:59:06.407,12.4375,37.6251
13:59:06.417,13.6251,40.0002
13:59:06.427,13.5938,41.9377
13:59:06.439,13.4688,41.3127
13:59:06.465,13.5313,42.7502
13:59:06.468,13.6876,42.4377
13:59:06.470,13.8438,43.7502
13:59:06.503,14.0626,43.0627
13:59:06.505,13.8126,43.7502
13:59:06.507,13.4688,42.6877
13:59:06.509,13.5938,43.0627
13:59:06.541,13.5938,42.1252
13:59:06.543,12.7813,39.9377
13:59:06.546,11.75,37.8751
13:59:06.571,11.3125,36.4376
13:59:06.573,10.5313,33.4376
13:59:06.575,10.1563,30.9376
13:59:06.583,9.5,27.3126
13:59:06.610,8.375,25.8126
13:59:06.611,7.9063,23.4376
13:59:06.615,7.0625,21.0001
13:59:06.628,6.9375,20.3126
13:59:06.630,7.125,18.4376
13:59:06.639,6.2813,18.0001
13:59:06.647,6.1563,16.1876
13:59:06.657,5.7188,15.3751
13:59:06.668,5.5938,14.7501
13:59:06.677,5.75,13.5001
13:59:06.687,5.4688,12.8125
13:59:06.697,4.8125,11.75
13:59:06.709,4.5625,10.6875
13:59:06.718,4.5,8.5
13:59:06.728,3.3438,7.6875
13:59:06.738,3.25,5.9375
13:59:06.747,2.9063,3.3125
13:59:06.761,2.3438,2.0625
13:59:06.767,2.125,0.0625
13:59:06.778,1.1875,-1.8125
13:59:06.787,0.5313,-3
13:59:06.798,0.3438,-6.0625
13:59:06.808,0.25,-7.8125
13:59:06.818,-0.1875,-10.6875
13:59:06.828,-1.0938,-12.1875
13:59:06.838,-1.8438,-14.3126
13:59:06.848,-2.4375,-17.3751
13:59:06.857,-2.875,-18.2501
13:59:06.867,-2.6563,-21.1876
13:59:06.877,-3.4375,-22.3751
13:59:06.888,-3.7813,-25.3126
13:59:06.898,-4.0625,-26.8126
13:59:06.923,-4.0625,-27.6876
13:59:06.926,-4.9688,-29.1876
13:59:06.930,-4.2813,-30.8126
13:59:06.938,-5.5625,-32.6251
13:59:06.948,-5.4063,-35.0626
13:59:06.957,-6.4375,-36.2501
13:59:06.966,-6.0938,-37.6876
13:59:06.979,-6.4688,-38.3751
13:59:06.988,-6.8125,-40.9377
13:59:06.997,-6.75,-41.6252
13:59:07.008,-7.2813,-41.8127
13:59:07.018,-7.5,-43.6877
13:59:07.030,-7.1563,-44.4377
13:59:07.038,-7.375,-44.2502
13:59:07.047,-7.75,-44.4377
13:59:07.064,-7.4688,-46.3752
13:59:07.072,-6.9688,-46.2502
13:59:07.083,-7.6875,-47.0627
13:59:07.095,-7.8438,-48.3752
13:59:07.103,-7.7813,-48.1252
13:59:07.113,-7.875,-47.5627
13:59:07.123,-7.375,-49.3127
13:59:07.134,-7,-49.6252
13:59:07.142,-8.125,-49.5627
13:59:07.153,-7.875,-50.8127
13:59:07.163,-7.9375,-49.1252
13:59:07.199,-7.9063,-49.6252
13:59:07.200,-7.1563,-51.0627
13:59:07.205,-7.25,-50.1877
13:59:07.212,-8.0625,-50.9377
13:59:07.214,-7.9688,-51.6877
13:59:07.251,-8.5313,-51.6877
13:59:07.254,-8.6875,-51.3752
13:59:07.254,-7.625,-48.0002
13:59:07.257,-6.1563,-41.2502
13:59:07.264,-2.4375,-27.6876
13:59:07.301,1.375,-11.4375
13:59:07.303,4.0938,3.125
13:59:07.305,7.5625,15.5001
13:59:07.307,9.125,23.8751
13:59:07.314,11.1563,31.6876
13:59:07.340,12.0938,35.3751
13:59:07.342,12.75,40.1252
13:59:07.344,13.5313,41.6877
13:59:07.358,13.8751,43.9377
13:59:07.362,14.2813,45.8127
13:59:07.373,14.9688,47.2502
13:59:07.393,14.7501,47.5627
13:59:07.399,15.3751,49.0002
13:59:07.415,14.9063,48.7502
13:59:07.416,15.0001,49.6252
13:59:07.424,15.0313,50.1252
13:59:07.433,14.8438,50.0627
13:59:07.452,14.4376,49.8127
13:59:07.454,14.1876,49.1252
13:59:07.468,13.7188,47.1252
13:59:07.479,13.0313,45.6877
13:59:07.485,13.2501,43.6252
13:59:07.493,11.6875,41.6252
13:59:07.505,11.1563,38.3126
13:59:07.513,10.1563,34.6251
13:59:07.523,9.7188,33.0626
13:59:07.534,8.9063,28.9376
13:59:07.543,8.1563,28.1251
13:59:07.553,8.0625,25.7501
13:59:07.562,7.0313,24.1251
13:59:07.573,7.3125,22.9376
13:59:07.584,6.5625,21.4376
13:59:07.593,6.8125,20.7501
13:59:07.602,5.5625,19.6251
13:59:07.613,6.125,18.6876
13:59:07.622,5.7188,18.5626
13:59:07.635,5.1563,18.2501
13:59:07.643,5.4375,15.3751
13:59:07.653,4.8438,15.5001
13:59:07.664,4.5938,12.8125
13:59:07.673,4.1875,12
13:59:07.684,3.9375,9.5
13:59:07.693,3.6875,8.25
13:59:07.704,3.1563,7.0625
13:59:07.713,2.4688,3.625
13:59:07.723,2.6875,2.5
13:59:07.732,1.9688,0.3125
13:59:07.745,2.0625,-1.125
13:59:07.752,1.3125,-3.125
13:59:07.763,1.375,-4
13:59:07.773,1.3438,-6.5
13:59:07.784,1.375,-7
13:59:07.793,1.5938,-8.6875
13:59:07.802,0.9688,-10.5
13:59:07.814,0.9688,-10.8125
13:59:07.823,0.375,-12.5
13:59:07.835,0.9063,-13.7501
13:59:07.844,0.2813,-15.0001
13:59:07.859,0.1563,-16.9376
13:59:07.863,-0.8438,-18.6876
13:59:07.875,-0.7188,-20.0001
13:59:07.883,-1.4375,-21.1876
13:59:07.893,-1.6563,-21.8751
13:59:07.904,-2.6563,-24.6251
13:59:07.913,-2.7813,-26.4376
13:59:07.943,-4.2188,-28.3751
13:59:07.945,-4.6875,-30.5001
13:59:07.947,-5.2813,-32.6876
13:59:07.953,-5.4063,-33.6251
13:59:07.977,-5.5625,-34.1876
13:59:07.980,-6.4063,-36.3126
13:59:07.983,-7.1563,-37.6251
13:59:08.016,-7.6563,-39.9377
13:59:08.017,-8.5313,-41.0002
13:59:08.021,-9.6563,-41.5627
13:59:08.027,-9.3125,-42.8127
13:59:08.037,-10.7813,-44.6252
13:59:08.043,-10.9063,-46.5627
13:59:08.073,-10.6875,-45.8752
13:59:08.076,-10.5625,-46.0002
13:59:08.079,-10.4688,-45.6252
13:59:08.084,-11.0313,-47.0627
13:59:08.093,-10.6563,-46.8127
13:59:08.104,-11.5625,-48.0627
13:59:08.114,-12.0938,-47.8752
13:59:08.124,-13.9376,-50.8127
13:59:08.133,-14.4376,-51.6252
13:59:08.145,-15.4376,-52.9377
13:59:08.153,-16.2501,-52.8752
13:59:08.165,-17.2188,-54.3127
13:59:08.173,-17.8751,-55.3127
13:59:08.204,-18.9376,-56.0002
13:59:08.205,-18.0313,-55.0627
13:59:08.207,-18.1876,-55.5002
13:59:08.214,-18.4376,-53.5002
13:59:08.223,-17.3751,-52.1877
13:59:08.236,-15.3751,-44.1252
13:59:08.243,-13.1876,-36.8126
13:59:08.253,-10.1875,-25.5626
13:59:08.263,-7.0938,-16.7501
13:59:08.273,-5.625,-8.625
13:59:08.284,-3.7188,-3.0625
13:59:08.293,-2.7813,1.75
13:59:08.304,-1,4.625
13:59:08.313,-0.9063,7.4375
13:59:08.323,0.5625,9.6875
13:59:08.334,0.5313,11
13:59:08.344,1.0313,12.375
13:59:08.353,1.5313,11.6875
13:59:08.363,1.4375,14.0626
13:59:08.374,1.4063,12.6875
13:59:08.385,1.75,13.4376
13:59:08.394,2.4063,12.9375
13:59:08.405,2,11.1875
13:59:08.413,1.8438,10.6875
13:59:08.424,1.5625,9.125
13:59:08.434,1.75,8.1875
13:59:08.444,1.5625,7.125
13:59:08.454,1.5625,4
13:59:08.464,0.8438,1.25
13:59:08.473,0.5938,0.125
13:59:08.483,0.125,-3
13:59:08.493,0.75,-3.6875
13:59:08.505,0.3438,-4.875
13:59:08.513,0.1875,-5
13:59:08.523,0.1563,-5.75
13:59:08.533,0.8125,-7.25
13:59:08.545,0.5313,-7.6875
13:59:08.553,0.0938,-8.0625
13:59:08.563,0.5625,-7.9375
13:59:08.573,0.5938,-9.0625
13:59:08.585,0.5,-10.1875
13:59:08.594,0.625,-10.3125
13:59:08.609,0.2188,-11.4375
13:59:08.613,0.3438,-12.9375
13:59:08.623,-0.4063,-14.7501
13:59:08.633,-0.625,-15.5001
13:59:08.644,-0.75,-16.6251
13:59:08.653,-1.0313,-18.6876
13:59:08.664,-1.25,-20.4376
13:59:08.699,-1.1875,-20.6251
13:59:08.703,-1.9063,-22.7501
13:59:08.777,-1.8125,-22.6876
13:59:08.783,-2.9688,-25.5001
13:59:08.783,-3.125,-26.1251
13:59:08.785,-3.5,-28.0626
13:59:08.785,-3.4375,-27.8126
13:59:08.785,-3.625,-29.6251
13:59:08.787,-4.0313,-30.1876
13:59:08.793,-5.0313,-31.6876
13:59:08.793,-5.1875,-31.8751
13:59:08.793,-5.7188,-33.3751
13:59:08.804,-5.3125,-33.7501
13:59:08.835,-5.8125,-34.2501
13:59:08.837,-5.8125,-34.1876
13:59:08.839,-5.0938,-34.0001
13:59:08.846,-5.875,-34.1876
13:59:08.853,-4.7188,-34.8126
13:59:08.863,-5.1875,-35.3126
13:59:08.875,-5.5313,-35.1876
13:59:08.885,-5.2188,-34.3751
13:59:08.894,-4.875,-34.8126
13:59:08.903,-5.25,-35.1251
13:59:08.913,-5.0313,-35.1876
13:59:08.925,-4.7188,-35.6876
13:59:08.934,-4.5313,-35.8126
13:59:08.945,-4.625,-35.6251
13:59:08.953,-3.4375,-34.6876
13:59:08.963,-3.6875,-35.3126
13:59:08.975,-4.1875,-34.7501
13:59:08.991,-3.9375,-35.5001
13:59:08.994,-4,-36.1876
13:59:09.004,-3.8438,-35.3751
13:59:09.013,-4.5,-36.0001
13:59:09.024,-4.125,-36.0626
13:59:09.034,-4.9375,-37.6876
13:59:09.043,-4.5313,-36.8751
13:59:09.054,-4.7813,-38.0626
13:59:09.064,-3.75,-36.1876
13:59:09.074,-3.7813,-36.1876
13:59:09.084,-3.9063,-35.8751
13:59:09.093,-3.4375,-35.6251
13:59:09.103,-4.3438,-36.5626
13:59:09.113,-3.9063,-37.0626
13:59:09.126,-3.6563,-33.9376
13:59:09.135,-0.625,-26.6251
13:59:09.143,1.75,-16.5626
13:59:09.153,5.1875,-5.875
13:59:09.163,7.3438,3.375
13:59:09.173,8.5313,11.3125
13:59:09.183,9.875,16.8126
13:59:09.193,10.8125,19.8126
13:59:09.205,12.4375,23.2501
13:59:09.215,13.2501,25.3751
13:59:09.223,13.3751,27.1876
13:59:09.233,13.3751,27.5626
13:59:09.243,14.5313,30.0626
13:59:09.254,14.6563,30.2501
13:59:09.264,14.8126,32.3751
13:59:09.273,14.9376,32.6876
13:59:09.283,15.2813,33.0001
13:59:09.293,14.9688,34.6251
13:59:09.304,15.1876,32.5626
13:59:09.313,14.3126,33.2501
13:59:09.323,14.5626,30.1876
13:59:09.334,13.5938,27.6251
13:59:09.344,13.4688,26.8126
13:59:09.354,13,23.8126
13:59:09.365,11.9688,21.2501
13:59:09.373,10.6875,17.5001
13:59:09.406,9.4688,16.1876
13:59:09.407,9.6875,14.1251
13:59:09.410,9.5313,11.875
13:59:09.415,8.625,10.1875
13:59:09.443,7.5313,9.125
13:59:09.444,7.9688,6.625
13:59:09.447,7.5625,5.1875
13:59:09.487,6.875,4.5625
13:59:09.489,6.25,3.25
13:59:09.490,5.25,-0.0625
13:59:09.497,5.4063,-0.1875
13:59:09.497,4.9375,-1.6875
13:59:09.506,4.6563,-3.875
13:59:09.535,4.125,-4.875
13:59:09.537,3.5938,-5.6875
13:59:09.539,3.1875,-7.8125
13:59:09.543,2.7813,-10.125
13:59:09.566,2,-11.6875
13:59:09.568,0.9688,-12.625
13:59:09.574,0.5625,-16.1251
13:59:09.584,0.1875,-18.1876
13:59:09.594,-0.125,-19.8126
13:59:09.603,-0.5,-20.4376
13:59:09.613,-0.6875,-21.5001
13:59:09.624,-0.7813,-23.5001
13:59:09.635,-0.6875,-24.0626
13:59:09.644,-0.25,-24.0626
13:59:09.654,-0.0938,-23.3751
13:59:09.664,0.4375,-23.5626
13:59:09.673,0.75,-24.0626
13:59:09.683,0,-24.8751
13:59:09.695,0.3125,-24.7501
13:59:09.703,0.5313,-26.2501
13:59:09.713,0.5625,-24.3751
13:59:09.724,1.1563,-25.4376
13:59:09.740,1.1563,-26.7501
13:59:09.745,1.0313,-26.0626
13:59:09.753,1.625,-26.0626
13:59:09.765,1.7188,-26.0001
13:59:09.774,0.6875,-26.5626
13:59:09.783,1.1875,-26.3751
13:59:09.795,1.1875,-27.3751
13:59:09.804,1.1875,-26.8126
13:59:09.813,1.2813,-26.5626
13:59:09.824,1.3125,-27.4376
13:59:09.833,1.0313,-27.5626
13:59:09.844,0.875,-28.5001
13:59:09.853,0.5938,-27.6251
13:59:09.863,0.5938,-28.8126
13:59:09.874,0.0938,-29.6251
13:59:09.883,-0.625,-29.1251
13:59:09.893,-0.5313,-30.3751
13:59:09.903,-0.8125,-30.6251
13:59:09.913,-0.625,-30.4376
13:59:09.923,-1.0938,-31.5626
13:59:09.933,-1.75,-31.2501
13:59:09.944,-1.4375,-30.8126
13:59:09.953,-1.8125,-32.4376
13:59:09.964,-1.5,-31.3751
13:59:09.974,-2.0313,-32.3751
13:59:09.995,-2.4688,-32.8126
13:59:10.002,-2.3125,-32.6876
13:59:10.017,-2.2813,-33.6251
13:59:10.020,-2.5625,-32.0626
13:59:10.035,-2.7188,-34.3126
13:59:10.049,-3.7813,-33.8751
13:59:10.054,-2.5,-30.2501
13:59:10.068,-0.9063,-24.6251
13:59:10.082,1.1875,-13.6876
13:59:10.085,3.5,-6.8125
13:59:10.117,5,2.25
13:59:10.120,7.2188,8.875
13:59:10.123,7.875,13
13:59:10.123,8.9375,17.9376
13:59:10.125,9.7813,19.2501
13:59:10.152,9.6875,21.0001
13:59:10.154,10.0313,22.8126
13:59:10.157,10.6563,23.3126
13:59:10.166,11.1875,25.2501
13:59:10.192,12.2188,25.4376
13:59:10.196,11.25,26.3751
13:59:10.197,11.4688,27.4376
13:59:10.203,11.8438,26.0626
13:59:10.230,11.2188,26.8751
13:59:10.232,11.1875,25.6251
13:59:10.235,10.5313,24.0001
13:59:10.260,10.0313,22.3126
13:59:10.262,9.125,19.9376
13:59:10.266,8.3438,16.8126
13:59:10.284,7.75,14.9376
13:59:10.287,7.3438,12.4375
13:59:10.293,6.7813,9.3125
13:59:10.305,5.8125,6.4375
13:59:10.314,5.125,4.1875
13:59:10.323,4.1875,1.375
13:59:10.333,3.5938,-0.0625
13:59:10.344,3.0938,-2.75
13:59:10.353,2.7188,-4.9375
13:59:10.363,2.5625,-7.3125
13:59:10.374,2.0938,-8
13:59:10.384,1.5313,-8.75
13:59:10.393,1.3125,-9.5
13:59:10.404,1.4375,-10.4375
13:59:10.413,1.625,-12.125
13:59:10.423,1.3438,-13.3751
13:59:10.434,0.4688,-15.2501
13:59:10.444,0.0313,-16.5626
13:59:10.453,-0.9688,-16.1251
13:59:10.464,-0.7813,-19.2501
13:59:10.474,-0.8438,-21.1251
13:59:10.485,-1.5625,-21.1251
13:59:10.493,-1.7188,-21.7501
13:59:10.503,-1.9375,-23.0001
13:59:10.513,-2.2813,-24.0001
13:59:10.523,-2.2188,-23.8751
13:59:10.533,-2,-24.7501
13:59:10.545,-2.9375,-25.1876
13:59:10.554,-3.0625,-25.3126
13:59:10.564,-3,-26.9376
13:59:10.575,-3.5625,-27.8751
13:59:10.585,-3.5,-27.1251
13:59:10.594,-3.7188,-28.0001
13:59:10.603,-4.4688,-28.2501
13:59:10.613,-4.1563,-29.0626
13:59:10.624,-4,-30.1876
13:59:10.633,-5.0938,-31.0001
13:59:10.643,-5.125,-32.9376
13:59:10.657,-6.0313,-33.6876
13:59:10.663,-5.5938,-32.9376
13:59:10.674,-5.6563,-34.4376
13:59:10.683,-6.1875,-33.6876
13:59:10.693,-5.5938,-34.3751
13:59:10.704,-6.375,-34.1876
13:59:10.713,-5.625,-34.1251
13:59:10.724,-5.9688,-34.6251
13:59:10.735,-6.6875,-34.0626
13:59:10.763,-6.3438,-35.8126
13:59:10.765,-6.9063,-34.2501
13:59:10.767,-6.8438,-35.1251
13:59:10.775,-6.9063,-35.3126
13:59:10.783,-6.5313,-35.3751
13:59:10.794,-6.75,-35.8126
13:59:10.805,-6.4688,-34.6876
13:59:10.813,-6.875,-36.0626
13:59:10.830,-6.5938,-34.6251
13:59:10.835,-6.8438,-35.5626
13:59:10.847,-6.2188,-33.7501
13:59:10.853,-6.1563,-35.3126
13:59:10.884,-5.5938,-33.6251
13:59:10.886,-5.4375,-34.3126
13:59:10.888,-5.875,-33.9376
13:59:10.894,-5.75,-33.8751
13:59:10.903,-5.8438,-33.3751
13:59:10.932,-4.8125,-33.0626
13:59:10.934,-5.125,-33.8751
13:59:10.937,-5.7813,-33.8751
13:59:10.943,-6.0313,-34.3126
13:59:10.976,-5.5625,-31.5001
13:59:10.978,-4.6563,-27.9376
13:59:10.981,-2.9063,-22.1251
13:59:10.987,-1.0313,-12.4375
13:59:11.006,0.4688,-5.25
13:59:11.007,2.0313,0.9375
13:59:11.013,4.6875,6.875
13:59:11.025,4.8438,11.25
13:59:11.034,5,14.1251
13:59:11.046,6.2813,15.8126
13:59:11.054,6.4688,18.3751
13:59:11.064,7.3125,18.3751
13:59:11.079,7.0938,20.4376
13:59:11.088,7.8438,20.8126
13:59:11.098,7.2188,20.3126
13:59:11.108,8.1563,22.5001
13:59:11.119,8.7188,22.1876
13:59:11.128,8.125,22.0626
13:59:11.140,8.125,22.6876
13:59:11.149,8.2188,21.0001
13:59:11.158,7.6875,20.6876
13:59:11.168,8.0625,17.8126
13:59:11.178,6.9375,14.5626
13:59:11.189,6.375,12
13:59:11.198,5.2188,10.3125
13:59:11.208,5.4063,6.9375
13:59:11.218,5.0938,3.5
13:59:11.230,3.7813,0.375
13:59:11.239,2.9375,-3
13:59:11.249,2.5625,-5
13:59:11.259,1.9688,-6.1875
13:59:11.268,1.9688,-8.0625
13:59:11.278,1.7188,-9.875
13:59:11.289,0.5625,-12.5625
13:59:11.305,-0.0625,-13.5626
13:59:11.319,-0.2813,-15.1251
13:59:11.322,-0.3438,-16.8751
13:59:11.337,-1.3438,-17.5626
13:59:11.339,-2.2813,-19.2501
13:59:11.348,-2.2813,-20.5001
13:59:11.367,-2.5625,-22.1251
13:59:11.371,-2.8125,-24.4376
13:59:11.385,-3.0625,-23.1251
13:59:11.393,-3.3438,-25.0001
13:59:11.398,-3.8125,-26.4376
13:59:11.414,-3.7813,-26.4376
13:59:11.421,-4.125,-26.9376
13:59:11.430,-4.125,-27.9376
13:59:11.438,-4.0625,-29.4376
13:59:11.449,-4.3438,-29.0001
13:59:11.460,-3.625,-28.7501
13:59:11.468,-4.4688,-29.6876
13:59:11.478,-4.6563,-29.3126
13:59:11.488,-4.25,-29.4376
13:59:11.498,-4.9375,-31.0001
13:59:11.509,-5.25,-31.3126
13:59:11.518,-5.3438,-32.0626
13:59:11.528,-5.3438,-31.1876
13:59:11.538,-5.9063,-31.0626
13:59:11.568,-5.2813,-32.2501
13:59:11.571,-5.4688,-31.2501
13:59:11.573,-5.1875,-31.8751
13:59:11.579,-5.25,-32.4376
13:59:11.614,-5.2813,-31.4376
13:59:11.615,-5.6875,-33.5001
13:59:11.618,-5.125,-32.1251
13:59:11.624,-5.4375,-33.4376
13:59:11.654,-4.8438,-31.5001
13:59:11.655,-4.4688,-32.6876
13:59:11.657,-5.0625,-31.8126
13:59:11.662,-4.0625,-31.6876
13:59:11.690,-4.8125,-32.0001
13:59:11.691,-3.5313,-31.6251
13:59:11.693,-4.0938,-31.4376
13:59:11.719,-3.375,-31.0626
13:59:11.724,-3.5938,-30.3751
13:59:11.725,-3.1563,-30.5001
13:59:11.729,-2.8125,-31.2501
13:59:11.738,-2.9063,-29.5001
13:59:11.748,-2.5313,-30.5001
13:59:11.758,-3.0938,-30.4376
13:59:11.769,-2.7813,-30.0626
13:59:11.779,-3,-30.3751
13:59:11.788,-2.0313,-29.7501
13:59:11.798,-2.3438,-30.5626
13:59:11.808,-3.1563,-30.5001
13:59:11.818,-3.4375,-30.0626
13:59:11.828,-2.7813,-29.9376
13:59:11.838,-2.5,-25.5626
13:59:11.848,-1.125,-20.0001
13:59:11.859,0.9688,-11.9375
13:59:11.869,3,-3.8125
13:59:11.879,5.375,2.5625
13:59:11.891,6.4375,9.375
13:59:11.899,7.5313,13.8126
13:59:11.908,8.75,17.5001
13:59:11.919,9.375,21.0001
13:59:11.928,10.3125,23.1876
13:59:11.939,10.75,24.8126
13:59:11.949,10.9375,26.0001
13:59:11.958,11.0938,26.3126
13:59:11.969,11.4375,28.0001
13:59:11.983,12,28.0626
13:59:11.988,11.4688,28.1251
13:59:11.999,12.0938,27.9376
13:59:12.008,12.1875,27.6876
13:59:12.018,11.7813,27.4376
13:59:12.045,11.375,25.0001
13:59:12.046,11.1875,23.9376
13:59:12.048,10.7188,21.1876
13:59:12.061,9.7188,18.0001
13:59:12.070,8.6563,14.9376
13:59:12.080,7.7813,12.8125
13:59:12.088,7.6875,8.375
13:59:12.101,6.875,5.1875
13:59:12.108,5.9063,3.5
13:59:12.118,5.3438,0.375
13:59:12.129,4.6563,-2.25
13:59:12.138,3.8125,-4.5625
13:59:12.149,3.625,-4.9375
13:59:12.158,3.9688,-7.5
13:59:12.173,2,-9.0625
13:59:12.179,1.5,-10.375
13:59:12.190,2.0938,-12.1875
13:59:12.198,1.9375,-13.1876
13:59:12.210,1,-15.5626
13:59:12.218,0.375,-15.1251
13:59:12.228,0.4063,-16.4376
13:59:12.238,0.125,-18.8751
13:59:12.249,-0.6563,-20.2501
13:59:12.260,-0.9375,-19.5626
13:59:12.268,-0.5313,-20.5626
13:59:12.280,-0.6563,-22.3751
13:59:12.308,-0.625,-22.4376
13:59:12.312,-0.9375,-23.1876
13:59:12.313,-1.5,-23.7501
13:59:12.320,-1.0313,-23.8126
13:59:12.345,-1.3125,-24.6251
13:59:12.346,-1.7813,-24.1876
13:59:12.348,-1.9375,-25.0001
13:59:12.376,-1.8125,-25.9376
13:59:12.381,-2,-25.3751
13:59:12.382,-1.4063,-25.5626
13:59:12.412,-1.75,-26.2501
13:59:12.414,-1.7188,-26.8751
13:59:12.415,-2.1875,-26.9376
13:59:12.423,-2,-26.6876
13:59:12.454,-1.8438,-27.0626
13:59:12.456,-2.375,-26.3126
13:59:12.459,-1.8438,-27.6876
13:59:12.470,-2.5,-28.7501
13:59:12.471,-2.1563,-27.4376
13:59:12.479,-1.5625,-27.5001
13:59:12.488,-2.3125,-28.0626
13:59:12.499,-1.5313,-27.7501
13:59:12.509,-2.3438,-27.5626
13:59:12.518,-1.625,-27.5626
13:59:12.529,-1.9375,-28.0626
13:59:12.538,-1.6563,-27.3126
13:59:12.548,-1.6563,-27.8751
13:59:12.559,-1.4375,-27.1251
13:59:12.568,-1.625,-28.5626
13:59:12.580,-1.125,-26.6876
13:59:12.589,-0.8438,-27.5001
13:59:12.606,-1.2188,-26.5626
13:59:12.621,-0.9688,-27.1251
13:59:12.625,-0.9688,-26.3751
13:59:12.632,-0.125,-27.1251
13:59:12.639,-0.4688,-26.3751
13:59:12.650,-0.6875,-26.9376
13:59:12.669,-0.5625,-26.4376
13:59:12.672,-1.2813,-27.3751
13:59:12.687,-0.875,-27.3751
13:59:12.690,-0.7813,-25.6876
13:59:12.703,0.9375,-21.0626
13:59:12.709,2.125,-12.875
13:59:12.719,4.6563,-3.6875
13:59:12.729,7,5.75
13:59:12.741,8.4375,13.3126
13:59:12.749,9.9375,18.0626
13:59:12.760,10.7188,23.6876
13:59:12.770,12.0625,25.9376
13:59:12.778,13,28.6876
13:59:12.788,13.5313,30.9376
13:59:12.800,13.2501,30.4376
13:59:12.809,13.125,33.0626
13:59:12.819,13.6876,32.3751
13:59:12.830,13.9063,33.6251
13:59:12.839,14.2501,34.7501
13:59:12.848,14.8126,34.4376
13:59:12.860,14.4376,34.9376
13:59:12.869,14.3438,35.0626
13:59:12.879,14.5938,33.7501
13:59:12.889,13.5001,33.4376
13:59:12.900,13.5001,31.1251
13:59:12.909,12.8438,28.1876
13:59:12.921,12.2188,25.5001
13:59:12.930,11.9375,23.8126
13:59:12.938,11.4063,20.8751
13:59:12.948,10.625,17.6876
13:59:12.959,9.2188,14.3751
13:59:12.972,9.125,12.5
13:59:12.980,8.4688,10.0625
13:59:12.990,7.6875,7
13:59:13.011,6.625,6.9375
13:59:13.013,6.875,4.5
13:59:13.040,6.3125,2.5625
13:59:13.042,6.0625,2
13:59:13.045,5.6875,0.4375
13:59:13.050,5.4375,-1.5
13:59:13.084,4.7813,-3.3125
13:59:13.085,4.0625,-3.375
13:59:13.089,3.9063,-5.6875
13:59:13.090,3.2188,-6.5
13:59:13.122,3.125,-8.0625
13:59:13.125,2.7188,-10.3125
13:59:13.126,1.75,-12.1875
13:59:13.152,1.7188,-12.25
13:59:13.153,1.7188,-14.3126
13:59:13.155,0.8438,-16.0001
13:59:13.159,0.5313,-16.5001
13:59:13.185,0.8438,-18.1876
13:59:13.185,-0.1563,-19.7501
13:59:13.189,0.0625,-19.5626
13:59:13.200,-0.75,-20.7501
13:59:13.210,-0.3438,-21.3751
13:59:13.221,-1,-21.8126
13:59:13.230,-0.9063,-22.1251
13:59:13.241,-0.5625,-23.3126
13:59:13.249,-0.875,-22.9376
13:59:13.259,-1.2188,-23.8751
13:59:13.269,-1.25,-23.6251
13:59:13.280,-1.4375,-25.0626
13:59:13.290,-0.6563,-24.7501
13:59:13.298,-1.375,-25.1251
13:59:13.324,-1.6563,-25.1251
13:59:13.325,-0.8125,-24.8126
13:59:13.328,-1.7188,-24.6876
13:59:13.340,-1.4375,-25.5626
13:59:13.349,-1.6563,-26.3126
13:59:13.360,-1.625,-25.1876
13:59:13.369,-1.4375,-26.2501
13:59:13.379,-1.3438,-25.6251
13:59:13.391,-1.2188,-26.4376
13:59:13.400,-1,-26.3126
13:59:13.409,-1.4063,-26.8751
13:59:13.421,-1.6563,-26.0626
13:59:13.430,-1.4688,-26.7501
13:59:13.439,-1.375,-26.2501
13:59:13.449,-1.5938,-27.3126
13:59:13.459,-1.4375,-26.1251
13:59:13.470,-0.75,-26.4376
13:59:13.479,-0.9375,-25.3126
13:59:13.489,-0.8125,-25.8751
13:59:13.499,-1.3125,-25.0001
13:59:13.512,-0.2188,-25.8751
13:59:13.520,-0.6875,-25.4376
13:59:13.529,-0.2188,-25.7501
13:59:13.541,0.0313,-24.4376
13:59:13.549,-0.1875,-25.1251
13:59:13.560,-0.4063,-25.0626
13:59:13.570,0.1875,-25.5001
13:59:13.581,0,-21.3126
13:59:13.591,2,-16.3126
13:59:13.600,4.0313,-6.875
13:59:13.610,7,1.5625
13:59:13.619,8.5625,10.5
13:59:13.630,10.0313,16.9376
13:59:13.640,11.375,22.9376
13:59:13.649,12.6563,26.3751
13:59:13.661,13.4063,30.4376
13:59:13.675,13.9688,31.1251
13:59:13.679,14.0001,34.4376
13:59:13.691,15.2501,35.1876
13:59:13.699,14.5626,36.8751
13:59:13.733,15.3751,36.2501
13:59:13.736,14.7813,37.6876
13:59:13.738,15.2813,37.0626
13:59:13.740,15.3751,36.3126
13:59:13.770,15.0001,37.0626
13:59:13.772,15.0001,35.4376
13:59:13.775,14.9376,35.5626
13:59:13.781,15.3751,34.8751
13:59:13.809,14.6876,32.8751
13:59:13.811,13.6251,31.1251
13:59:13.813,13.4688,27.6251
13:59:13.820,12.4375,24.3126
13:59:13.834,11.5,23.3751
13:59:13.840,11.8438,21.1251
13:59:13.871,10.6563,17.6876
13:59:13.873,10.125,16.8751
13:59:13.876,10.0625,15.2501
13:59:13.881,9.3125,14.1876
13:59:13.896,9.0938,12.375
13:59:13.899,8.9375,11.0625
13:59:13.916,8.875,10.3125
13:59:13.922,8.1875,10.125
13:59:13.929,8.625,9
13:59:13.944,8.3125,6.75
13:59:13.961,7.875,6.625
13:59:13.963,7.5,5.1875
13:59:13.979,6.9688,3.875
13:59:13.982,6.5938,2.75
13:59:13.996,6.4688,0.8125
13:59:14.011,7,-0.0625
13:59:14.013,5.5313,-1.875
13:59:14.028,5.125,-2.375
13:59:14.030,4.6563,-5.1875
13:59:14.040,4.5313,-7.5625
13:59:14.056,3.6563,-8.25
13:59:14.059,3.4375,-10.4375
13:59:14.069,3.1563,-12.1875
13:59:14.080,2.1875,-11.625
13:59:14.090,2.9375,-13.8751
13:59:14.100,2.125,-16.0001
13:59:14.110,2.6563,-16.1251
13:59:14.120,2.5625,-17.0626
13:59:14.129,1.875,-18.5001
13:59:14.140,1.5313,-19.8126
13:59:14.150,1.6563,-18.8751
13:59:14.159,1.6563,-19.5001
13:59:14.169,1.4688,-21.1876
13:59:14.180,1.375,-22.4376
13:59:14.190,1.25,-21.9376
13:59:14.200,1.875,-22.5001
13:59:14.209,1.3125,-23.0626
13:59:14.220,1.4063,-23.5626
13:59:14.231,1.125,-23.5001
13:59:14.240,0.6875,-22.8126
13:59:14.251,1.5,-24.0626
13:59:14.259,1.2813,-24.2501
13:59:14.269,0.8125,-24.0626
13:59:14.279,1.4688,-24.0001
13:59:14.290,1,-25.0001
13:59:14.299,1.0938,-23.4376
13:59:14.310,1.5,-24.8126
13:59:14.321,0.75,-24.0626
13:59:14.329,1.3125,-25.0001
13:59:14.341,1.2188,-25.3751
13:59:14.349,1.3125,-25.2501
13:59:14.360,1.25,-24.7501
13:59:14.369,1.375,-26.0001
13:59:14.379,0.7813,-26.5626
13:59:14.389,0.9063,-25.1876
13:59:14.422,1.3438,-26.4376
13:59:14.424,0.4063,-26.4376
13:59:14.427,0.5,-27.1876
13:59:14.458,0.125,-27.6251
13:59:14.459,-0.5313,-26.1876
13:59:14.462,1.0625,-23.9376
13:59:14.465,2.1875,-15.6876
13:59:14.471,4.9063,-5.25
13:59:14.480,7.3125,5.8125
13:59:14.504,9.5,16.4376
13:59:14.507,12.125,25.7501
13:59:14.510,14.0313,31.9376
13:59:14.544,14.9376,37.2501
13:59:14.547,16.2188,42.9377
13:59:14.550,16.8126,45.3127
13:59:14.552,17.7813,49.2502
13:59:14.591,18.1251,50.6252
13:59:14.594,18.7813,53.2502
13:59:14.597,19.3438,55.2502
13:59:14.621,19.5938,56.5627
13:59:14.621,19.9063,56.8752
13:59:14.622,20.6563,59.5627
13:59:14.626,20.7813,59.6252
13:59:14.630,20.7188,60.6252
13:59:14.639,22.3126,62.2502
13:59:14.649,21.1876,61.8127
13:59:14.660,21.6251,62.6252
13:59:14.669,22.0626,62.1877
13:59:14.681,21.4688,60.3752
13:59:14.690,21.2813,59.4377
13:59:14.699,20.2188,57.4377
13:59:14.710,20.8751,54.9377
13:59:14.720,20.3126,52.4377
13:59:14.729,19.8751,50.9377
13:59:14.740,19.5001,49.5627
13:59:14.751,19.3438,47.2502
13:59:14.761,18.9688,46.4377
13:59:14.771,18.5001,45.0627
13:59:14.779,19.2501,43.3752
13:59:14.789,19.2188,43.6877
13:59:14.799,19.0626,43.3127
13:59:14.809,19.1876,42.1877
13:59:14.819,18.9688,41.2502
13:59:14.830,18.8751,41.1252
13:59:14.840,19.5001,40.3127
13:59:14.849,19.4376,39.3127
13:59:14.860,19.2188,38.4376
13:59:14.870,19.3751,36.8126
13:59:14.880,18.6876,35.8126
13:59:14.889,18.5001,34.5626
13:59:14.899,18.2813,32.4376
13:59:14.910,18.3751,30.8126
13:59:14.919,18.0626,30.1876
13:59:14.929,17.3438,26.6876
13:59:14.940,16.5938,25.7501
13:59:14.951,16.3126,22.7501
13:59:14.961,16.4688,22.5001
13:59:14.972,15.9063,20.1876
13:59:14.979,15.3438,17.6876
13:59:14.993,14.9376,16.3126
13:59:14.999,13.9376,14.1876
13:59:15.009,14.5313,12.5
13:59:15.022,13.1563,10.4375
13:59:15.031,13.1876,8.625
13:59:15.040,12.5,6.9375
13:59:15.049,12.5,5.3125
13:59:15.061,11.875,3.5625
13:59:15.070,12.0938,2.1875
13:59:15.106,11.5,0.5625
13:59:15.107,10.3125,-0.5
13:59:15.110,10.9688,-3.125
13:59:15.115,10.0938,-3.875
13:59:15.125,10.3438,-6.1875
13:59:15.134,9.25,-6.375
13:59:15.144,9.25,-8.9375
13:59:15.155,8.2813,-10.3125
13:59:15.165,7.9063,-11.1875
13:59:15.175,7.9375,-13.8751
13:59:15.185,7.5938,-15.1251
13:59:15.194,7.5313,-15.3126
13:59:15.207,6.375,-18.1251
13:59:15.241,7.0938,-18.8126
13:59:15.241,5.8438,-20.3126
13:59:15.270,5.6875,-22.0001
13:59:15.304,4.25,-24.0001
13:59:15.334,4.6875,-25.7501
13:59:15.406,4.4688,-26.2501
13:59:15.407,3.8125,-28.5001
13:59:15.407,4.0938,-27.0001
13:59:15.407,4.25,-26.8126
13:59:15.411,5,-22.1251
13:59:15.412,6.5625,-16.6251
13:59:15.419,9.0313,-5.375
13:59:15.419,11.375,5.9375
13:59:15.419,14.5938,18.7501
13:59:15.427,16.5626,27.5001
13:59:15.436,18.8751,37.8751
13:59:15.444,20.6876,44.3127
13:59:15.454,21.8126,50.2502
13:59:15.464,22.6876,56.1877
13:59:15.475,23.3126,60.1252
13:59:15.484,24.1563,62.6877
13:59:15.494,25.1876,64.6252
13:59:15.505,25.1563,68.0628
13:59:15.514,25.4688,69.1878
13:59:15.524,25.8751,70.5628
13:59:15.534,28.7814,83.0003
13:59:15.544,28.0939,83.8128
13:59:15.555,28.1251,83.7503
13:59:15.565,27.8439,82.6253
13:59:15.574,27.1564,82.1878
13:59:15.584,25.9376,77.9378
13:59:15.595,25.2501,75.8128
13:59:15.605,23.7501,71.5628
13:59:15.617,22.7501,70.3128
13:59:15.624,22.7501,67.4378
13:59:15.635,21.7813,64.4377
13:59:15.644,20.4688,63.3752
13:59:15.655,21.0938,61.1877
13:59:15.665,19.8126,59.7502
13:59:15.674,19.1876,58.6252
13:59:15.684,19.0938,56.0002
13:59:15.695,18.9376,55.3752
13:59:15.704,18.3438,53.6252
13:59:15.715,17.7813,52.4377
13:59:15.726,17.7501,50.6877
13:59:15.735,16.8751,49.5627
13:59:15.745,15.7813,48.0002
13:59:15.754,15.3438,45.0627
13:59:15.770,14.8126,42.3752
13:59:15.776,14.0938,41.3127
13:59:15.785,13.3751,38.2501
13:59:15.794,13.4063,35.9376
13:59:15.804,12.4375,33.4376
13:59:15.815,12.125,31.0626
13:59:15.824,11.5,29.1251
13:59:15.835,9.9063,26.3126
13:59:15.845,9.8125,23.4376
13:59:15.854,9.1875,21.0001
13:59:15.883,8.1563,18.7501
13:59:15.885,8.0938,15.6251
13:59:15.887,6.875,14.3751
13:59:15.895,6.5625,10.375
13:59:15.905,5.5,9
13:59:15.941,5.2188,6.1875
13:59:15.943,4.4063,3.6875
13:59:15.946,4.3438,1.8125
13:59:15.948,3.5938,-0.875
13:59:15.976,3.5625,-3.5625
13:59:15.977,2.625,-5.3125
13:59:15.981,2.0938,-7.625
13:59:15.985,1.7813,-10.1875
13:59:16.014,1.2188,-12.125
13:59:16.016,1.5625,-14.0626
13:59:16.018,1,-15.8126
13:59:16.048,0.0938,-17.6876
13:59:16.052,-0.3125,-18.9376
13:59:16.052,-0.5625,-22.0001
13:59:16.058,-0.6563,-23.0626
13:59:16.065,-1.0313,-26.1876
13:59:16.094,-1.125,-27.5626
13:59:16.096,-1.5625,-28.8126
13:59:16.098,-2.875,-30.3126
13:59:16.105,-2.3125,-31.8126
13:59:16.114,-3,-33.0626
13:59:16.124,-2.9375,-35.4376
13:59:16.134,-3.5625,-37.8126
13:59:16.145,-4.4375,-38.3126
13:59:16.156,-4.5625,-40.8127
13:59:16.164,-5.3125,-41.8127
13:59:16.175,-4.7188,-44.0002
13:59:16.185,-5.3438,-45.1877
13:59:16.194,-5.5938,-45.4377
13:59:16.206,-6.0313,-43.7502
13:59:16.216,-4.2188,-40.6252
13:59:16.224,-2.5313,-31.6251
13:59:16.235,1.4063,-19.3751
13:59:16.245,4.0313,-4.0625
13:59:16.254,7.9063,10.5625
13:59:16.264,10.125,22.6251
13:59:16.275,12.625,33.0626
13:59:16.284,13.9376,40.4377
13:59:16.295,15.9063,46.8127
13:59:16.304,16.0313,51.8752
13:59:16.314,17.9063,55.1252
13:59:16.324,17.5626,57.8752
13:59:16.334,18.5001,59.5002
13:59:16.345,18.4688,61.8127
13:59:16.355,19.1563,62.9377
13:59:16.365,18.7501,64.6252
13:59:16.375,19.0938,64.9377
13:59:16.385,18.5313,66.0003
13:59:16.394,19.1563,66.1878
13:59:16.404,18.5313,67.6253
13:59:16.415,17.9376,67.7503
13:59:16.425,18.6563,67.1878
13:59:16.436,17.8438,66.3753
13:59:16.444,17.0626,65.6878
13:59:16.455,17.0313,63.3752
13:59:16.465,15.4688,61.6252
13:59:16.474,15.0001,58.3752
13:59:16.484,13.3751,56.0002
13:59:16.494,13.1875,51.7502
13:59:16.505,11.9375,49.4377
13:59:16.523,11.1563,45.8127
13:59:16.525,10.25,42.8752
13:59:16.534,10.0313,41.0002
13:59:16.553,9.4375,38.7501
13:59:16.558,8.625,37.0001
13:59:16.573,8.75,35.7501
13:59:16.575,7.6875,34.5001
13:59:16.590,7.6563,33.0001
13:59:16.596,7.375,31.5626
13:59:16.604,6.875,31.1251
13:59:16.615,6.8125,28.4376
13:59:16.635,6.1563,27.7501
13:59:16.641,5.5,25.6876
13:59:16.644,4.625,22.8126
13:59:16.682,3.8438,22.2501
13:59:16.717,4,18.9376
13:59:16.746,3.7813,17.6876
13:59:16.748,3.1875,15.5001
13:59:16.752,3.0625,13.3751
13:59:16.752,2.4375,11.125
13:59:16.752,1.8125,8.9375
13:59:16.756,1.1563,7.0625
13:59:16.783,0.875,3.875
13:59:16.785,0.1563,0.75
13:59:16.788,-0.5,-1.375
13:59:16.795,-0.3125,-3.75
13:59:16.805,-1.5938,-5.375
13:59:16.814,-1.625,-7.8125
13:59:16.824,-2.4063,-11.3125
13:59:16.837,-3.25,-14.0001
13:59:16.846,-3.5313,-15.6876
13:59:16.855,-3.875,-18.4376
13:59:16.865,-4.6563,-20.8126
13:59:16.875,-5.125,-22.4376
13:59:16.884,-5.2188,-25.5626
13:59:16.895,-5.0625,-26.8126
13:59:16.904,-5.9375,-29.6876
13:59:16.915,-7.9375,-39.9377
13:59:16.925,-7.2188,-41.2502
13:59:16.934,-8.6875,-42.5002
13:59:16.945,-8.4688,-44.5002
13:59:16.954,-9,-45.1252
13:59:16.965,-9.1875,-47.6252
13:59:16.975,-9.0625,-49.1252
13:59:16.987,-9.6875,-51.0002
13:59:16.994,-9.9688,-52.8752
13:59:17.004,-10.125,-53.2502
13:59:17.015,-10.1563,-54.4377
13:59:17.025,-9.6563,-55.4377
13:59:17.036,-10.4688,-54.6877
13:59:17.044,-9.9063,-57.0002
13:59:17.055,-10.25,-58.0002
13:59:17.065,-10.7813,-57.0627
13:59:17.075,-10.1875,-58.2502
13:59:17.086,-10.3125,-55.6252
13:59:17.094,-9,-52.7502
13:59:17.104,-7.75,-43.6877
13:59:17.114,-3.875,-30.1251
13:59:17.125,-0.125,-12.625
13:59:17.134,4.1563,2.9375
13:59:17.163,6.75,16.6876
13:59:17.167,9.0625,27.7501
13:59:17.168,11.2813,35.1876
13:59:17.175,13,42.8752
13:59:17.184,13.5938,45.6252
13:59:17.194,14.6876,50.0002
13:59:17.204,15.1251,51.9377
13:59:17.215,15.6563,55.0002
13:59:17.227,15.8751,55.0002
13:59:17.236,16.4376,57.4377
13:59:17.245,16.3438,57.6252
13:59:17.255,16.1876,59.6252
13:59:17.268,16.1563,59.1877
13:59:17.275,16.5001,59.9377
13:59:17.285,15.8438,59.8127
13:59:17.295,15.9376,60.6877
13:59:17.304,16.0313,59.8752
13:59:17.314,14.9688,58.4377
13:59:17.325,14.4376,58.1252
13:59:17.335,13.5938,54.3127
13:59:17.344,12.7188,52.9377
13:59:17.354,12.3125,49.6877
13:59:17.365,11.5625,46.6877
13:59:17.392,10.125,42.7502
13:59:17.395,9.8125,41.1252
13:59:17.397,9,37.2501
13:59:17.428,8.0313,35.5001
13:59:17.429,7.4688,32.3126
13:59:17.432,7.1563,31.5001
13:59:17.437,6.6875,28.6876
13:59:17.465,6.125,29.0001
13:59:17.467,5.875,27.0001
13:59:17.469,6,26.4376
13:59:17.497,5.8125,25.1876
13:59:17.499,5.5,23.7501
13:59:17.500,5,22.7501
13:59:17.505,4.6563,21.4376
13:59:17.532,4.3125,19.0001
13:59:17.534,3.7813,18.5001
13:59:17.537,3.3438,15.8751
13:59:17.545,3,13.7501
13:59:17.554,2.9063,12.375
13:59:17.565,1.875,10.1875
13:59:17.575,1.875,7.6875
13:59:17.585,1.25,5.375
13:59:17.595,-0.0313,2.8125
13:59:17.604,-0.1563,1.4375
13:59:17.615,-0.2813,-1.5625
13:59:17.625,-1.125,-4.0625
13:59:17.635,-1.3438,-7.0625
13:59:17.646,-1.875,-9.125
13:59:17.655,-2.2813,-10.375
13:59:17.666,-3.25,-13.6251
13:59:17.674,-3.2188,-15.8751
13:59:17.684,-4.4063,-17.8126
13:59:17.694,-4.4688,-20.0626
13:59:17.704,-4.7188,-23.1251
13:59:17.714,-5.7188,-24.9376
13:59:17.726,-5.9688,-28.0001
13:59:17.734,-6.125,-29.9376
13:59:17.745,-6.7813,-31.6251
13:59:17.755,-7.3125,-34.6251
13:59:17.765,-7.3438,-35.8126
13:59:17.774,-7.6875,-38.8126
13:59:17.786,-7.8125,-40.1877
13:59:17.795,-8.0938,-41.6877
13:59:17.805,-8.6563,-42.7502
13:59:17.815,-8.8125,-45.5627
13:59:17.824,-8.9688,-46.4377
13:59:17.835,-9.6563,-48.5627
13:59:17.844,-9.8438,-48.3127
13:59:17.854,-9.625,-50.3752
13:59:17.869,-10.2813,-51.3752
13:59:17.881,-9.8125,-53.6252
13:59:17.889,-10.125,-53.4377
13:59:17.901,-10.125,-55.5002
13:59:17.908,-11,-55.5002
13:59:17.916,-10.3125,-57.2502
13:59:17.924,-10.9375,-57.0002
13:59:17.935,-10.2188,-58.8127
13:59:17.945,-10.4375,-58.1252
13:59:17.954,-10.25,-59.5627
13:59:17.965,-11.25,-58.5002
13:59:17.976,-10.3438,-60.1252
13:59:17.984,-11.0938,-59.2502
13:59:18.000,-10.375,-56.2502
13:59:18.021,-9.3438,-51.0002
13:59:18.038,-6.3438,-38.5001
13:59:18.038,-1.625,-20.9376
13:59:18.041,2.2813,-1.8125
13:59:18.048,6.1563,14.0626
13:59:18.056,8.7813,25.5001
13:59:18.064,10.9063,36.1251
13:59:18.095,12.7813,43.1877
13:59:18.103,13.7813,47.4377
13:59:18.105,14.5626,52.0002
13:59:18.105,15.2501,54.6877
13:59:18.136,15.9376,55.3752
13:59:18.138,15.6876,56.8752
13:59:18.140,15.8751,58.0002
13:59:18.146,15.8438,58.4377
13:59:18.175,15.9376,60.0627
13:59:18.177,16.0313,60.6877
13:59:18.180,15.3751,61.6252
13:59:18.184,15.9063,61.4377
13:59:18.194,15.5001,61.3752
13:59:18.230,14.6876,62.4377
13:59:18.232,14.5626,60.6877
13:59:18.235,14.1251,58.7502
13:59:18.240,13.3126,58.6877
13:59:18.246,13.0625,55.4377
13:59:18.257,11.75,53.8752
13:59:18.267,11.1563,50.1877
13:59:18.276,10.0313,48.0627
13:59:18.285,9.25,45.1877
13:59:18.295,8.5313,41.1877
13:59:18.305,8.5625,39.8127
13:59:18.316,7.4688,37.1876
13:59:18.325,7.0625,35.5626
13:59:18.336,7.1563,33.6876
13:59:18.344,6.3125,32.6876
13:59:18.356,6.2188,31.1251
13:59:18.364,5.9688,30.5001
13:59:18.376,5.2813,28.6876
13:59:18.385,4.9375,27.9376
13:59:18.396,4.75,27.5001
13:59:18.406,4.875,25.1251
13:59:18.416,4.375,24.2501
13:59:18.442,3.5,22.1251
13:59:18.444,3.1563,20.3751
13:59:18.447,3.2188,17.5001
13:59:18.455,2.0625,15.6876
13:59:18.468,2.0938,13.1251
13:59:18.477,0.8125,11.5
13:59:18.485,1.0625,8.3125
13:59:18.495,-0.0313,6.25
13:59:18.507,-0.25,3.9375
13:59:18.515,-0.8125,1.75
13:59:18.526,-1.625,-0.1875
13:59:18.534,-1.7813,-3.75
13:59:18.545,-1.8438,-5.9375
13:59:18.556,-2.1875,-8.5
13:59:18.565,-3.4375,-10.3125
13:59:18.576,-3.5938,-12.9375
13:59:18.585,-4.0625,-15.7501
13:59:18.594,-4.625,-18.1251
13:59:18.604,-5.375,-19.9376
13:59:18.616,-5.375,-23.1251
13:59:18.625,-6.125,-25.6251
13:59:18.637,-6.375,-26.8751
13:59:18.646,-6.4375,-29.8126
13:59:18.656,-6.875,-31.9376
13:59:18.664,-7.9688,-32.5626
13:59:18.677,-7.4688,-36.0001
13:59:18.685,-8.375,-37.0626
13:59:18.696,-8.3438,-39.4377
13:59:18.704,-8.4375,-40.7502
13:59:18.715,-9.0938,-43.1252
13:59:18.724,-9.0625,-44.6877
13:59:18.736,-9.5625,-46.8127
13:59:18.745,-9.7188,-48.3127
13:59:18.756,-10.375,-48.9377
13:59:18.771,-9.875,-50.8752
13:59:18.776,-10.5938,-51.6252
13:59:18.785,-9.9063,-51.8752
13:59:18.796,-10.375,-53.3752
13:59:18.806,-10.6875,-54.6877
13:59:18.839,-11,-54.6877
13:59:18.841,-10.6563,-55.8752
13:59:18.843,-10.5625,-55.8127
13:59:18.871,-10.6563,-57.2502
13:59:18.872,-10.3438,-57.6877
13:59:18.873,-10.7813,-57.5627
13:59:18.880,-10.4063,-57.6877
13:59:18.889,-10.625,-58.3752
13:59:18.895,-10.4375,-57.6877
13:59:18.931,-10.7813,-58.1252
13:59:18.933,-10.625,-57.4377
13:59:18.935,-10.2813,-54.6877
13:59:18.940,-8.5313,-46.6252
13:59:18.945,-5.7188,-34.0626
13:59:18.974,-0.5938,-16.1251
13:59:18.976,2.7813,2.9375
13:59:18.978,7.3125,18.5001
13:59:19.001,9.2813,30.6876
13:59:19.003,11.625,38.7501
13:59:19.006,13.2188,45.0627
13:59:19.015,13.9376,48.1877
13:59:19.027,14.9063,52.7502
13:59:19.036,15.2501,53.3127
13:59:19.045,15.2813,55.6252
13:59:19.054,15.5938,56.5627
13:59:19.066,14.5938,57.3127
13:59:19.075,14.9688,57.2502
13:59:19.086,15.3126,58.6252
13:59:19.094,15.1563,58.7502
13:59:19.105,15.3751,59.0627
13:59:19.116,15.8751,59.9377
13:59:19.125,14.4688,60.2502
13:59:19.135,15.0626,59.0627
13:59:19.146,13.5626,58.3752
13:59:19.156,13.6876,55.4377
13:59:19.165,12.0625,54.0002
13:59:19.186,11.875,50.8127
13:59:19.193,10.4688,47.5002
13:59:19.208,10.2188,44.3127
13:59:19.224,9.0313,41.4377
13:59:19.225,8.875,38.5626
13:59:19.230,7.1875,35.6251
13:59:19.240,6.9375,32.5626
13:59:19.251,5.7813,30.5001
13:59:19.261,5.625,28.5001
13:59:19.271,4.8438,27.3126
13:59:19.281,4.7813,24.9376
13:59:19.290,4.3438,23.8751
13:59:19.305,3.7188,21.7501
13:59:19.319,3.9063,20.3751
13:59:19.322,3.2813,19.3126
13:59:19.337,3.3125,17.5001
13:59:19.340,2.375,15.4376
13:59:19.350,2.0625,13.7501
13:59:19.361,1.4063,10.875
13:59:19.371,0.6563,8.25
13:59:19.381,-0.0938,7.5
13:59:19.391,0.625,4.4375
13:59:19.401,-0.9063,0.75
13:59:19.411,-1.7813,0
13:59:19.421,-1.8125,-3.5
13:59:19.431,-2.75,-6.75
13:59:19.440,-3.125,-8.625
13:59:19.451,-3.1875,-11.25
13:59:19.459,-3.8438,-14.5626
13:59:19.470,-4.6563,-17.8751
13:59:19.482,-5.3438,-20.6251
13:59:19.491,-6.0313,-22.5626
13:59:19.501,-6.9063,-25.3126
13:59:19.511,-6.8125,-28.3751
13:59:19.521,-7.6875,-30.8751
13:59:19.531,-8.1563,-34.0001
13:59:19.542,-8.4688,-35.4376
13:59:19.551,-8.0313,-37.2501
13:59:19.560,-9.2813,-39.8752
13:59:19.570,-10.0625,-41.0627
13:59:19.598,-9.6563,-43.8127
13:59:19.601,-9.9688,-43.6252
13:59:19.603,-9.625,-46.2502
13:59:19.635,-10.5625,-46.4377
13:59:19.638,-10.4063,-49.2502
13:59:19.639,-10.5938,-48.6252
13:59:19.642,-10.2813,-50.6877
13:59:19.676,-10.4688,-50.9377
13:59:19.678,-10.5625,-51.5002
13:59:19.680,-10.25,-52.1877
13:59:19.714,-10,-53.3752
13:59:19.715,-10.125,-53.8752
13:59:19.717,-10.4375,-54.3127
13:59:19.732,-10,-54.0002
13:59:19.733,-10.5625,-54.7502
13:59:19.734,-9.7813,-55.1252
13:59:19.757,-10.125,-54.0002
13:59:19.760,-9.4063,-55.3127
13:59:19.762,-10.1563,-54.8127
13:59:19.771,-9.8438,-55.5627
13:59:19.781,-8.75,-55.5002
13:59:19.791,-9.0625,-55.1252
13:59:19.801,-8.6875,-54.6252
13:59:19.811,-8.7188,-54.5002
13:59:19.821,-9.6875,-56.1252
13:59:19.831,-9.6875,-55.0627
13:59:19.841,-9.6563,-55.1252
13:59:19.850,-9.0313,-52.8752
13:59:19.860,-7.1875,-45.6252
13:59:19.871,-4.9063,-33.1876
13:59:19.881,-0.5313,-16.6251
13:59:19.896,3.9063,3.6875
13:59:19.901,7.4063,20.0001
13:59:19.911,10.6875,32.0626
13:59:19.920,12,41.5627
13:59:19.931,14.1251,47.1252
13:59:19.941,15.5313,51.5002
13:59:19.951,15.9063,55.6877
13:59:19.960,16.6251,56.5627
13:59:19.971,16.8126,58.2502
13:59:19.981,16.8126,60.1252
13:59:19.991,16.8438,60.3127
13:59:20.001,17.4063,60.1877
13:59:20.011,16.1251,60.4377
13:59:20.020,16.2813,60.7502
13:59:20.030,16.3751,61.2502
13:59:20.040,16.4376,60.3752
13:59:20.050,15.9688,60.1252
13:59:20.061,15.6251,58.3752
13:59:20.072,14.7188,57.3752
13:59:20.081,13.6876,54.3127
13:59:20.092,13.0625,52.5002
13:59:20.101,12.3438,47.8752
13:59:20.111,11.6875,45.5627
13:59:20.122,10.5,41.0627
13:59:20.131,9.4688,37.9376
13:59:20.141,9.3438,35.1251
13:59:20.150,7.7813,32.8751
13:59:20.160,7.7188,30.2501
13:59:20.171,6.6875,27.5001
13:59:20.181,6.375,27.1251
13:59:20.192,5.9063,24.5626
13:59:20.201,5.5,23.9376
13:59:20.211,5.4688,21.6876
13:59:20.221,5.0625,20.8126
13:59:20.231,4.4375,20.5001
13:59:20.241,4.25,18.6251
13:59:20.251,3.6875,16.8126
13:59:20.261,3.8125,16.9376
13:59:20.274,3.8125,14.1876
13:59:20.280,2.9063,12.0625
13:59:20.291,2.1563,11.5
13:59:20.301,2.375,8.5
13:59:20.311,1.4063,4.9375
13:59:20.320,0.9375,3.9375
13:59:20.331,0.5625,0.8125
13:59:20.360,-0.1563,-2.5
13:59:20.363,-0.625,-3.0625
13:59:20.365,-0.4688,-6.125
13:59:20.372,-1.2813,-9.0625
13:59:20.396,-2.1563,-12.1875
13:59:20.398,-2.875,-13.1876
13:59:20.401,-2.7188,-17.0626
13:59:20.431,-3.875,-19.5626
13:59:20.433,-3.8438,-21.1876
13:59:20.436,-4.1563,-24.1251
13:59:20.443,-5.0313,-27.1876
13:59:20.468,-5.6875,-27.3126
13:59:20.470,-5.2813,-31.0626
13:59:20.473,-6.375,-32.5001
13:59:20.508,-6.0625,-34.3751
13:59:20.524,-6.8125,-36.7501
13:59:20.539,-7,-38.5001
13:59:20.543,-7.0938,-40.6877
13:59:20.543,-7.4375,-42.5002
13:59:20.543,-7.6563,-43.0002
13:59:20.544,-7.625,-44.7502
13:59:20.551,-8.25,-45.7502
13:59:20.561,-8.3438,-46.6252
13:59:20.570,-8.5,-46.8127
13:59:20.582,-8.625,-47.8127
13:59:20.591,-8.1875,-48.1252
13:59:20.606,-8.5313,-49.5627
13:59:20.624,-8.2188,-49.5002
13:59:20.628,-8.5313,-49.3752
13:59:20.633,-8.625,-51.1877
13:59:20.642,-7.875,-51.0627
13:59:20.649,-8.7188,-50.9377
13:59:20.661,-8.25,-51.6252
13:59:20.670,-8.3125,-52.3752
13:59:20.680,-8.3438,-51.8752
13:59:20.692,-8.0938,-51.6252
13:59:20.701,-8.25,-52.9377
13:59:20.711,-7.7813,-52.8127
13:59:20.721,-8.625,-52.2502
13:59:20.731,-8.125,-53.5627
13:59:20.741,-8.875,-52.0627
13:59:20.751,-8.5625,-51.7502
13:59:20.760,-7,-46.2502
13:59:20.770,-5.4063,-36.6876
13:59:20.781,-1.3125,-21.7501
13:59:20.791,3,-1.9375
13:59:20.801,7.5938,16.1251
13:59:20.811,10.5625,31.0001
13:59:20.822,13.3751,40.0627
13:59:20.831,15.2188,48.3752
13:59:20.840,15.8126,52.6877
13:59:20.850,17.1876,57.1252
13:59:20.861,16.9063,60.4377
13:59:20.871,17.8751,60.5002
13:59:20.880,18.4688,62.7502
13:59:20.891,17.9376,63.4377
13:59:20.903,17.8438,63.6877
13:59:20.912,18.1876,64.8127
13:59:20.921,17.6876,65.3127
13:59:20.930,17.8751,64.5002
13:59:20.941,17.7813,65.7503
13:59:20.951,17.3751,64.3127
13:59:20.961,17.3751,63.1252
13:59:20.973,16.4376,62.5002
13:59:21.004,15.4688,61.4377
13:59:21.005,15.1563,58.4377
13:59:21.008,14.1876,55.1252
13:59:21.016,12.75,53.2502
13:59:21.022,12.0938,48.6252
13:59:21.032,11.0313,44.8752
13:59:21.040,10.6875,42.9377
13:59:21.050,9.7813,39.7502
13:59:21.084,9.1875,37.2501
13:59:21.085,8.4688,35.7501
13:59:21.087,7.9375,33.6876
13:59:21.092,7.25,31.0626
13:59:21.120,6.625,30.3751
13:59:21.122,5.9063,28.0001
13:59:21.124,5.7188,26.6251
13:59:21.130,5.1563,26.3751
13:59:21.145,4.7188,23.6251
13:59:21.152,4.4063,23.0626
13:59:21.184,4.3438,20.6876
13:59:21.187,3.7813,18.9376
13:59:21.189,3.3125,17.5001
13:59:21.192,2.4688,15.1251
13:59:21.222,2.1875,13.2501
13:59:21.224,1.7813,10.1875
13:59:21.229,0.8125,7.5625
13:59:21.244,0.5938,6.1875
13:59:21.245,-0.2188,2.5625
13:59:21.250,-0.4688,-0.0625
13:59:21.260,-1.1563,-3.25
13:59:21.271,-1.5313,-5.875
13:59:21.280,-2.1875,-8.125
13:59:21.290,-3.1875,-11.3125
13:59:21.301,-3.5313,-13.9376
13:59:21.312,-4.625,-16.8751
13:59:21.321,-4.2813,-19.7501
13:59:21.331,-5.9375,-21.8751
13:59:21.340,-6.4375,-24.3751
13:59:21.351,-6.9063,-27.5626
13:59:21.361,-7.5,-30.3751
13:59:21.371,-8.0313,-31.8126
13:59:21.380,-8.1875,-35.3126
13:59:21.391,-7.8125,-35.6876
13:59:21.401,-8.5938,-38.7501
13:59:21.410,-8.875,-39.1876
13:59:21.420,-9.125,-42.0002
13:59:21.430,-9.0625,-43.0627
13:59:21.441,-9.9375,-43.6877
13:59:21.451,-9.4375,-45.6877
13:59:21.463,-9.0313,-46.3752
13:59:21.470,-9.7813,-47.8127
13:59:21.480,-9.625,-48.6252
13:59:21.491,-9.7813,-48.6252
13:59:21.500,-10.1875,-50.3752
13:59:21.511,-9.6875,-49.5002
13:59:21.522,-9.3438,-51.0002
13:59:21.531,-10.125,-50.8127
13:59:21.541,-10.2188,-52.1877
13:59:21.551,-9.6563,-51.1877
13:59:21.561,-9.3125,-52.5627
13:59:21.571,-9.8125,-51.8127
13:59:21.580,-10.25,-53.3752
13:59:21.591,-9.625,-52.1877
13:59:21.600,-9.875,-53.6252
13:59:21.610,-8.5,-52.7502
13:59:21.620,-9.9063,-51.2502
13:59:21.631,-9.2188,-53.8127
13:59:21.642,-8.6875,-52.8127
13:59:21.651,-9.8125,-53.7502
13:59:21.660,-8.7188,-53.4377
13:59:21.672,-9.625,-53.2502
13:59:21.680,-9.8438,-52.6252
13:59:21.690,-9.5938,-48.3752
13:59:21.701,-7.4063,-41.2502
13:59:21.711,-4.2188,-26.3751
13:59:21.751,0.0938,-9.625
13:59:21.753,5.375,10.5625
13:59:21.755,8.0938,27.5626
13:59:21.758,10.9688,37.0001
13:59:21.760,13.6251,45.1252
13:59:21.815,14.0938,52.1252
13:59:21.815,15.1251,54.2502
13:59:21.825,15.6563,57.3752
13:59:21.828,15.6251,58.5002
13:59:21.834,16.1563,59.3127
13:59:21.834,16.2501,61.4377
13:59:21.839,16.3126,60.8127
13:59:21.846,16.1563,61.6877
13:59:21.873,16.4376,62.6252
13:59:21.876,16.3751,62.9377
13:59:21.878,16.1563,62.6877
13:59:21.910,15.4688,62.0627
13:59:21.910,15.7188,61.4377
13:59:21.926,14.3438,60.1252
13:59:21.929,13.6251,58.4377
13:59:21.932,13.1876,55.6252
13:59:21.937,12.6563,52.6877
13:59:21.946,11.2188,49.9377
13:59:21.956,10.375,46.6877
13:59:21.966,9,43.5627
13:59:21.976,8.2188,40.8127
13:59:21.987,7.625,37.0626
13:59:21.997,6.8125,34.3751
13:59:22.006,5.5938,32.1251
13:59:22.016,5.5625,30.3126
13:59:22.026,5,27.3126
13:59:22.035,4.8438,26.3126
13:59:22.046,4.5313,25.3126
13:59:22.055,3.9375,24.1251
13:59:22.065,4.1563,23.2501
13:59:22.076,3.0313,21.8751
13:59:22.086,3.5,19.4376
13:59:22.096,2.7813,18.3126
13:59:22.106,2.2188,15.8126
13:59:22.116,1.8438,14.0001
13:59:22.126,1.4688,12.125
13:59:22.136,0.3438,9.3125
13:59:22.147,0.8125,7
13:59:22.156,-0.6563,5.125
13:59:22.165,-1.0625,2.375
13:59:22.176,-1.3438,-1.5
13:59:22.185,-2.5938,-4.1875
13:59:22.196,-3.125,-6.625
13:59:22.205,-3.7188,-10.3125
13:59:22.216,-4.2813,-12.125
13:59:22.225,-4.875,-16.0626
13:59:22.236,-5.6875,-18.6876
13:59:22.246,-5.2813,-21.3751
13:59:22.255,-7.2813,-24.0626
13:59:22.282,-6.9688,-26.3751
13:59:22.285,-7.7813,-29.3751
13:59:22.288,-8.2813,-31.3126
13:59:22.295,-8.8125,-34.4376
13:59:22.306,-9.1563,-36.1251
13:59:22.316,-8.9688,-37.3126
13:59:22.325,-9.5313,-39.6877
13:59:22.335,-9.5313,-40.1877
13:59:22.346,-9.875,-42.6252
13:59:22.356,-10.0625,-42.8752
13:59:22.366,-9.9063,-45.0002
13:59:22.375,-10.0625,-45.0002
13:59:22.386,-10.3438,-47.5002
13:59:22.396,-10.4688,-47.1252
13:59:22.406,-10.9375,-47.4377
13:59:22.416,-10.2813,-49.1252
13:59:22.425,-10.4688,-48.0002
13:59:22.435,-10.4688,-50.2502
13:59:22.445,-10.8125,-49.6877
13:59:22.455,-10.2188,-51.0627
13:59:22.466,-10.0313,-50.3127
13:59:22.475,-10.2188,-51.1252
13:59:22.485,-10.5,-51.8127
13:59:22.496,-10.5,-51.6252
13:59:22.506,-9.6875,-52.1252
13:59:22.535,-10.0313,-52.0627
13:59:22.539,-9.4688,-52.1252
13:59:22.541,-9.6563,-52.1877
13:59:22.545,-9.875,-52.8127
13:59:22.577,-9,-52.1877
13:59:22.579,-9.6875,-51.6252
13:59:22.581,-9.625,-53.2502
13:59:22.587,-9.4063,-52.8127
13:59:22.613,-9.5,-52.9377
13:59:22.616,-9.7188,-53.3752
13:59:22.618,-9.9688,-53.4377
13:59:22.648,-9.6875,-51.8752
13:59:22.649,-9.3438,-46.8127
13:59:22.651,-7.5313,-37.9376
13:59:22.657,-4.0938,-23.2501
13:59:22.691,0.25,-5.125
13:59:22.693,5.5313,13.7501
13:59:22.696,8.4063,27.7501
13:59:22.706,10.5625,38.9376
13:59:22.708,11.9375,45.0627
13:59:22.715,14.0001,50.3752
13:59:22.725,13.9688,53.1877
13:59:22.736,14.2501,55.5002
13:59:22.746,15.0938,55.5002
13:59:22.755,14.5626,57.0627
13:59:22.766,14.8751,58.0627
13:59:22.776,14.5626,56.3127
13:59:22.785,14.5938,57.8752
13:59:22.796,13.7813,56.4377
13:59:22.805,13.9063,57.3752
13:59:22.816,13.2813,56.0002
13:59:22.826,12.9688,54.9377
13:59:22.836,12.7188,52.3127
13:59:22.846,11.5625,49.8127
13:59:22.856,10.1563,47.6252
13:59:22.866,9.9063,45.0002
13:59:22.875,8.4688,41.2502
13:59:22.885,8.9063,38.1876
13:59:22.895,7.5938,35.6876
13:59:22.906,6.9688,32.6251
13:59:22.916,7.5625,31.1876
13:59:22.926,7.875,30.1876
13:59:22.936,8.3125,30.8751
13:59:22.946,9.3125,31.0001
13:59:22.955,10.5938,33.0626
13:59:22.966,11.875,34.1251
13:59:22.976,13.5626,38.3126
13:59:22.985,14.6251,39.9377
13:59:22.995,15.1563,41.3127
13:59:23.006,15.5626,42.7502
13:59:23.016,15.4376,42.5002
13:59:23.026,15.5626,42.1877
13:59:23.036,14.1563,40.9377
13:59:23.046,13.1563,40.0002
13:59:23.056,12.6875,37.6251
13:59:23.066,11.5313,35.9376
13:59:23.080,11.2813,33.4376
13:59:23.086,10.9688,32.6251
13:59:23.105,10.0938,31.0626
13:59:23.110,10.2188,29.1876
13:59:23.125,9.6875,27.9376
13:59:23.128,9.0938,24.5001
13:59:23.136,9.1875,22.8126
13:59:23.145,7.8125,21.5626
13:59:23.155,7.1875,18.5001
13:59:23.166,6.3125,16.3126
13:59:23.175,5.9375,14.4376
13:59:23.186,5.5625,10.6875
13:59:23.248,5,8.875
13:59:23.249,4.5,6.5
13:59:23.251,4.1563,5.0625
13:59:23.252,4.0313,3.1875
13:59:23.258,3.5938,0.875
13:59:23.259,3.5313,-0.25
13:59:23.263,3.0625,-2.0625
13:59:23.295,2.75,-3.625
13:59:23.297,2.3438,-6.0625
13:59:23.299,3.1875,-8.5
13:59:23.302,2.0938,-9.5
13:59:23.330,1.8125,-11.5625
13:59:23.332,1.1875,-13.125
13:59:23.334,0.9063,-14.1251
13:59:23.341,0.7188,-17.1251
13:59:23.365,0.3125,-18.2501
13:59:23.367,-0.1563,-20.0001
13:59:23.372,-0.7188,-22.0001
13:59:23.381,0,-23.0001
13:59:23.390,0.25,-23.0001
13:59:23.401,0.4375,-23.0001
13:59:23.410,0.8438,-23.3126
13:59:23.420,0.0625,-25.0001
13:59:23.431,0.4688,-25.5001
13:59:23.441,0,-26.1876
13:59:23.454,0.4063,-26.3751
13:59:23.460,0.25,-26.3751
13:59:23.471,0.375,-28.0001
13:59:23.481,0.125,-27.6251
13:59:23.491,-0.375,-28.8126
13:59:23.501,-0.8438,-30.1876
13:59:23.511,-1.0313,-30.4376
13:59:23.521,-0.25,-27.5626
13:59:23.531,0.9375,-21.4376
13:59:23.563,3.125,-12.25
13:59:23.565,5.75,0.25
13:59:23.567,8.75,12.3125
13:59:23.572,10.6563,20.9376
13:59:23.580,11.5938,28.0001
13:59:23.591,13.1875,31.5001
13:59:23.601,13.5001,36.0001
13:59:23.612,14.2188,38.6251
13:59:23.621,14.5313,39.5627
13:59:23.630,14.8751,40.0002
13:59:23.641,15.3126,41.1877
13:59:23.651,13.7501,40.3127
13:59:23.660,14.5001,40.5002
13:59:23.671,14.5313,39.2501
13:59:23.681,13.7501,38.5626
13:59:23.691,13.0625,37.7501
13:59:23.701,12.7813,36.8126
13:59:23.711,12.4063,34.5626
13:59:23.721,11.4688,31.8126
13:59:23.730,10.2813,30.1876
13:59:23.741,10.25,27.2501
13:59:23.750,9.1875,23.5626
13:59:23.760,7.9375,20.4376
13:59:23.770,7.2188,18.8751
13:59:23.781,6.8438,15.8126
13:59:23.790,5.375,12
13:59:23.801,4.2813,11.75
13:59:23.811,4.6563,9
13:59:23.821,3.7813,7
13:59:23.831,2.8125,5.4375
13:59:23.840,2.75,5.1875
13:59:23.851,3.125,3.5
13:59:23.861,2.7188,2.625
13:59:23.871,1.5313,1.6875
13:59:23.881,0.2813,0.6875
13:59:23.890,0.875,-0.3125
13:59:23.901,0.2188,-1.875
13:59:23.911,-0.75,-3.5
13:59:23.921,-1.5313,-5.125
13:59:23.930,-1.6563,-6.75
13:59:23.950,-2.3125,-8.625
13:59:23.953,-2.8438,-10.5
13:59:23.987,-3.25,-10.5
13:59:23.991,-2.75,-12.375
13:59:23.992,-3.0625,-14.0001
13:59:23.995,-3.7813,-16.1876
13:59:24.001,-3.7813,-17.5001
13:59:24.031,-4.4688,-18.5001
13:59:24.033,-4.375,-20.5001
13:59:24.036,-5.0938,-22.5626
13:59:24.062,-5.375,-23.2501
13:59:24.068,-5.3125,-24.0626
13:59:24.071,-5.5313,-26.7501
13:59:24.073,-5.7188,-27.6876
13:59:24.103,-5.7813,-29.0626
13:59:24.104,-6.25,-29.8126
13:59:24.107,-5.625,-30.1251
13:59:24.112,-6.3438,-31.5001
13:59:24.124,-5.9063,-31.3126
13:59:24.130,-6.2188,-31.8751
13:59:24.141,-6.3125,-31.5626
13:59:24.150,-6.125,-33.2501
13:59:24.161,-6.3438,-33.4376
13:59:24.171,-6.1563,-34.5626
13:59:24.181,-6.3438,-34.2501
13:59:24.191,-5.875,-34.6251
13:59:24.204,-6.0313,-35.8126
13:59:24.212,-5.6875,-35.2501
13:59:24.221,-5.3125,-35.8751
13:59:24.230,-5.5313,-35.3126
13:59:24.241,-5.75,-36.3126
13:59:24.251,-5.8438,-35.9376
13:59:24.261,-6,-37.0626
13:59:24.270,-6.0625,-36.3126
13:59:24.280,-5.4688,-36.8126
13:59:24.291,-5.8125,-38.1876
13:59:24.301,-5.9063,-37.4376
13:59:24.311,-6.25,-39.0001
13:59:24.321,-6,-38.6876
13:59:24.331,-6.1563,-38.0001
13:59:24.340,-5.9063,-38.7501
13:59:24.350,-5.7813,-38.8126
13:59:24.361,-5.7188,-39.4377
13:59:24.371,-5.7188,-38.6251
13:59:24.380,-5.4063,-39.1251
13:59:24.391,-6.3125,-39.3752
13:59:24.405,-5.25,-38.8126
13:59:24.422,-5.7188,-36.0626
13:59:24.424,-3.4688,-29.6251
13:59:24.430,-0.6875,-17.6251
13:59:24.443,0.5313,-6.9375
13:59:24.450,3.2813,5.8125
13:59:24.460,5.75,15.2501
13:59:24.472,7.6563,22.1876
13:59:24.480,9.3125,27.6876
13:59:24.501,9.6875,31.8126
13:59:24.503,10.5,33.7501
13:59:24.519,10.2813,35.5001
13:59:24.522,10.875,37.0626
13:59:24.531,11.125,37.5626
13:59:24.542,11.2813,37.5001
13:59:24.550,10.9688,37.8126
13:59:24.561,10.8125,37.6251
13:59:24.570,10.125,37.5001
13:59:24.582,10.4375,37.0626
13:59:24.591,9.375,35.6251
13:59:24.602,9.6563,33.9376
13:59:24.610,9.0313,31.6251
13:59:24.621,7.75,30.6876
13:59:24.631,7.4063,27.1251
13:59:24.642,7.0938,23.9376
13:59:24.651,6.1875,21.4376
13:59:24.661,5.0938,18.4376
13:59:24.671,4.5938,14.9376
13:59:24.680,4.0938,11.625
13:59:24.710,2.7188,8.5625
13:59:24.713,2.0625,6.5
13:59:24.716,1.5625,3.75
13:59:24.722,0.5938,2.375
13:59:24.748,0.9063,2
13:59:24.751,0.625,0.375
13:59:24.753,-0.125,-1.8125
13:59:24.761,-0.3438,-1.0625
13:59:24.792,-0.5,-2.6875
13:59:24.794,-0.875,-3.6875
13:59:24.797,-1.25,-4.1875
13:59:24.834,-1.6563,-4.25
13:59:24.835,-1.25,-5.4375
13:59:24.837,-1.9063,-7.1875
13:59:24.853,-2,-6.8125
13:59:24.854,-1.8125,-8.625
13:59:24.855,-2.4375,-10
13:59:24.864,-3.3438,-9.6875
13:59:24.872,-3.5938,-11.8125
13:59:24.881,-4.5,-14.3751
13:59:24.890,-4.375,-15.0001
13:59:24.902,-4.6875,-16.2501
13:59:24.910,-4.875,-18.6251
13:59:24.921,-5.2188,-19.6876
13:59:24.933,-5.2188,-19.3751
13:59:24.942,-5.3438,-21.6876
13:59:24.955,-5.2813,-22.5001
13:59:24.960,-5.5,-23.7501
13:59:24.972,-6.0938,-24.6251
13:59:24.981,-5.2813,-26.0001
13:59:24.991,-6.0938,-27.2501
13:59:25.002,-6.4688,-28.3751
13:59:25.012,-6.0313,-29.1251
13:59:25.020,-6.8125,-28.6251
13:59:25.033,-6.375,-30.1251
13:59:25.041,-6.8438,-30.1251
13:59:25.052,-6.3125,-31.5001
13:59:25.060,-7,-30.1876
13:59:25.071,-6.75,-33.1251
13:59:25.081,-6.9375,-31.5001
13:59:25.092,-7.0625,-33.8126
13:59:25.100,-6.9063,-33.5626
13:59:25.111,-6.8438,-33.8126
13:59:25.121,-7.1563,-34.9376
13:59:25.133,-6.6563,-34.4376
13:59:25.141,-6.4688,-35.8751
13:59:25.152,-6.1563,-34.1876
13:59:25.160,-6.375,-35.6876
13:59:25.171,-6.75,-35.0001
13:59:25.180,-6.6563,-37.4376
13:59:25.191,-7.1875,-36.4376
13:59:25.202,-7,-37.5626
13:59:25.210,-6.9375,-36.7501
13:59:25.222,-7.25,-38.2501
13:59:25.230,-7.2188,-38.3751
13:59:25.241,-6.9375,-38.3751
13:59:25.252,-6.9063,-38.4376
13:59:25.262,-6.7813,-39.0001
13:59:25.270,-6.375,-38.8126
13:59:25.282,-6.6875,-38.8126
13:59:25.290,-6.9063,-38.3751
13:59:25.302,-6.5625,-38.8751
13:59:25.310,-6.5938,-38.6251
13:59:25.321,-6.5625,-38.4376
13:59:25.332,-7.25,-37.3751
13:59:25.342,-5.0625,-33.3751
13:59:25.354,-3.7188,-24.2501
13:59:25.363,-0.5938,-10.375
13:59:25.370,3.0938,2.0625
13:59:25.381,5,14.2501
13:59:25.392,7.9063,22.1876
13:59:25.402,8.6563,28.8126
13:59:25.411,9.5,33.3751
13:59:25.422,9.8438,37.0626
13:59:25.449,11.1875,38.3751
13:59:25.452,11.125,39.4377
13:59:25.453,11.25,39.8127
13:59:25.490,10.625,40.6877
13:59:25.491,10.7188,39.3752
13:59:25.494,10,40.3752
13:59:25.495,10.2188,39.1252
13:59:25.502,9.25,37.3751
13:59:25.536,8.4688,35.4376
13:59:25.538,8.1563,35.1876
13:59:25.540,7.8438,33.8751
13:59:25.544,7.5313,31.6251
13:59:25.550,6.4063,29.7501
13:59:25.586,5.0938,27.6251
13:59:25.589,4.7813,24.0626
13:59:25.593,4.0313,20.6876
13:59:25.593,3.0938,18.0001
13:59:25.602,2.4688,14.7501
13:59:25.612,1.2813,11.5
13:59:25.622,0.0313,9.75
13:59:25.632,-0.2813,7.6875
13:59:25.642,-0.0313,5.5
13:59:25.652,-1,3.3125
13:59:25.661,-2,2.1875
13:59:25.672,-1.9688,1.875
13:59:25.681,-2.5313,1.4375
13:59:25.705,-1.5938,0.9375
13:59:25.707,-2.625,-0.3125
13:59:25.722,-2.8438,-1.0625
13:59:25.726,-2.9688,-1.75
13:59:25.732,-2.3125,-1.5625
13:59:25.742,-2.0938,-2.8125
13:59:25.752,-2.75,-3.4375
13:59:25.763,-3.8125,-3
13:59:25.771,-3.6875,-6.4375
13:59:25.782,-4.375,-7.875
13:59:25.797,-4.8438,-8.1875
13:59:25.814,-4.9375,-10.625
13:59:25.815,-4.9688,-10.1875
13:59:25.821,-5.7188,-12.5625
13:59:25.832,-6.0313,-13.1876
13:59:25.842,-5.4063,-14.4376
13:59:25.850,-5.9375,-15.3751
13:59:25.862,-6.4063,-16.3126
13:59:25.872,-6.875,-18.9376
13:59:25.881,-6.9375,-20.3126
13:59:25.891,-7.5313,-21.4376
13:59:25.902,-7.7188,-22.3126
13:59:25.911,-7.75,-24.3126
13:59:25.922,-8.5938,-24.8751
13:59:25.930,-8.0625,-26.5626
13:59:25.941,-8.9688,-27.0626
13:59:25.952,-8.875,-28.1251
13:59:25.963,-8.9688,-30.0626
13:59:25.973,-9.4375,-30.3751
13:59:25.982,-9.5,-31.1251
13:59:25.990,-9.5938,-32.3126
13:59:26.002,-9.7188,-33.2501
13:59:26.011,-9.7813,-34.3126
13:59:26.021,-10.0313,-35.6251
13:59:26.032,-10.0313,-35.1251
13:59:26.042,-10.2188,-36.7501
13:59:26.052,-10.125,-36.1251
13:59:26.062,-10.0938,-36.6251
13:59:26.072,-9.8125,-37.8126
13:59:26.082,-10.125,-37.0626
13:59:26.093,-9.9375,-38.4376
13:59:26.124,-9.9375,-37.3126
13:59:26.124,-9.5938,-38.8751
13:59:26.127,-10.375,-38.5001
13:59:26.132,-10.1875,-39.6877
13:59:26.160,-10.0938,-39.0001
13:59:26.163,-9.5625,-40.6252
13:59:26.165,-9.875,-40.0627
13:59:26.173,-10.0938,-41.0627
13:59:26.206,-10.0625,-41.1877
13:59:26.209,-10,-41.5627
13:59:26.211,-9.0938,-41.9377
13:59:26.213,-9.5938,-41.6877
13:59:26.244,-9.5938,-42.3752
13:59:26.247,-9.8125,-42.5627
13:59:26.249,-9.5625,-41.8752
13:59:26.252,-9.9375,-42.7502
13:59:26.282,-9.9688,-43.1877
13:59:26.283,-9.9688,-42.3752
13:59:26.285,-9.9375,-37.2501
13:59:26.292,-7.3438,-30.4376
13:59:26.321,-4.0938,-16.1876
13:59:26.325,-0.9063,-3.9375
13:59:26.326,1.3125,6.8125
13:59:26.332,3.4063,17.2501
13:59:26.342,4.8125,23.4376
13:59:26.352,6.5625,28.5626
13:59:26.362,7.4063,30.7501
13:59:26.372,7.5625,34.8126
13:59:26.383,8.2188,35.6251
13:59:26.392,8.375,36.1876
13:59:26.401,8.2188,36.6876
13:59:26.411,8.3125,36.1876
13:59:26.421,7.9375,36.0001
13:59:26.431,7.5,35.4376
13:59:26.442,7.4063,35.0626
13:59:26.457,7.9375,35.1876
13:59:26.462,7.2813,32.8751
13:59:26.473,6.9375,33.1876
13:59:26.482,7.0625,31.1251
13:59:26.492,5.7813,29.3126
13:59:26.502,5.8125,26.7501
13:59:26.511,4.7188,23.1251
13:59:26.522,2.9688,21.6876
13:59:26.532,3.0938,17.1876
13:59:26.541,2,13.8126
13:59:26.552,1.1875,10.875
13:59:26.562,0.2188,8.125
13:59:26.572,-0.2188,4.9375
13:59:26.582,-0.75,2.1875
13:59:26.593,-1.3125,1.875
13:59:26.603,-1.6563,-0.6875
13:59:26.612,-2.0313,-2.1875
13:59:26.622,-2.4688,-1.9375
13:59:26.632,-2.0625,-3.4375
13:59:26.642,-2.9063,-4.8125
13:59:26.650,-3,-6.125
13:59:26.661,-3.0938,-6.375
13:59:26.672,-3.0625,-7.25
13:59:26.682,-3,-8.4375
13:59:26.692,-3.3438,-8.625
13:59:26.702,-3.75,-9.1875
13:59:26.712,-3.4688,-10.875
13:59:26.722,-4.2188,-12.625
13:59:26.732,-4.5938,-13.5626
13:59:26.741,-4,-14.0626
13:59:26.752,-4.2188,-15.9376
13:59:26.761,-4.5625,-15.8751
13:59:26.772,-5.0625,-17.7501
13:59:26.782,-5.6563,-18.1876
13:59:26.792,-5.9063,-20.9376
13:59:26.802,-6.5625,-21.8126
13:59:26.812,-6.4063,-24.9376
13:59:26.821,-6.8125,-24.8751
13:59:26.833,-6.7188,-26.2501
13:59:26.864,-7.7813,-26.1876
13:59:26.868,-6.9375,-28.8126
13:59:26.869,-6.9688,-28.6251
13:59:26.872,-7.125,-29.4376
13:59:26.901,-6.9063,-30.6251
13:59:26.903,-7.6875,-31.1876
13:59:26.906,-7.9063,-32.8751
13:59:26.913,-7.7188,-33.0626
13:59:26.937,-7.5938,-34.5001
13:59:26.939,-7.8125,-34.4376
13:59:26.941,-8.0625,-35.9376
13:59:26.970,-8,-34.6876
13:59:26.973,-7.625,-36.5001
13:59:26.975,-7.4688,-35.6251
13:59:27.019,-7.875,-37.2501
13:59:27.023,-7.1875,-35.8126
13:59:27.038,-7.2188,-37.0626
13:59:27.040,-6.8438,-36.6876
13:59:27.053,-6.9063,-37.8126
13:59:27.053,-6.8125,-36.8126
13:59:27.055,-7.4375,-37.9376
13:59:27.072,-6.7188,-37.1876
13:59:27.075,-6.4688,-37.7501
13:59:27.076,-6.125,-38.1876
13:59:27.095,-6.5,-38.5626
13:59:27.097,-5.8438,-37.5001
13:59:27.111,-5.875,-37.6876
13:59:27.127,-5.7188,-37.0626
13:59:27.130,-6.0313,-37.6876
13:59:27.147,-6.25,-38.1251
13:59:27.149,-5.5,-37.8751
13:59:27.157,-6.0625,-37.8126
13:59:27.167,-6,-38.1251
13:59:27.177,-5.8125,-38.6876
13:59:27.186,-6.4063,-39.9377
13:59:27.197,-6.6563,-40.2502
13:59:27.212,-6.9063,-40.0627
13:59:27.222,-6.9688,-39.8127
13:59:27.231,-6,-36.0626
13:59:27.242,-3.5938,-26.1876
13:59:27.251,-0.1563,-12.875
13:59:27.261,3.0625,2.125
13:59:27.272,6.25,14.6251
13:59:27.282,7.9375,23.9376
13:59:27.292,9.9375,32.1876
13:59:27.303,11.75,36.1876
13:59:27.312,12.4063,40.0002
13:59:27.322,12.875,42.0002
13:59:27.331,13.125,43.0627
13:59:27.342,13.3751,44.1252
13:59:27.352,13.2813,44.0002
13:59:27.362,13.5938,43.9377
13:59:27.372,13.5626,44.5627
13:59:27.402,13.0938,44.9377
13:59:27.405,13.5001,43.1877
13:59:27.407,13.4063,43.5002
13:59:27.412,13.6251,42.3752
13:59:27.422,12.5313,40.3752
13:59:27.432,11.25,40.2502
13:59:27.442,11.25,37.2501
13:59:27.452,11.375,34.3126
13:59:27.462,9.9688,30.1876
13:59:27.471,8.5625,26.3126
13:59:27.481,7.6875,24.0001
13:59:27.492,7.3438,19.3126
13:59:27.502,6.4063,16.6876
13:59:27.512,5.4688,13.8126
13:59:27.522,4.6563,10.0625
13:59:27.532,4,8.375
13:59:27.542,4.0938,6.375
13:59:27.561,4,6.375
13:59:27.563,3.1563,4.625
13:59:27.589,2.375,3.5625
13:59:27.592,2.2188,1.6875
13:59:27.594,2.3125,0.5
13:59:27.603,2.5313,0.4375
13:59:27.632,1.5,0.3125
13:59:27.634,1.8125,-0.875
13:59:27.637,1.6875,-1.875
13:59:27.642,1.4375,-1.75
13:59:27.673,2.0313,-2.75
13:59:27.674,1.4688,-4.625
13:59:27.677,0.8125,-5.5
13:59:27.687,0.5313,-6.4375
13:59:27.709,0.8125,-8.375
13:59:27.711,0.125,-8.875
13:59:27.713,0.1875,-10.375
13:59:27.737,0.125,-12.6875
13:59:27.740,-1.4688,-14.1876
13:59:27.742,-1.0625,-15.5626
13:59:27.752,-1.8125,-17.0626
13:59:27.762,-1.25,-18.3126
13:59:27.772,-2.875,-19.7501
13:59:27.782,-2.8125,-21.3751
13:59:27.793,-3.3125,-22.3751
13:59:27.802,-2.9375,-23.5001
13:59:27.812,-3.0938,-24.5626
13:59:27.822,-2.9688,-25.6876
13:59:27.832,-3.6563,-27.1876
13:59:27.841,-3.4688,-27.7501
13:59:27.852,-3.75,-28.6876
13:59:27.862,-4.5,-29.5001
13:59:27.872,-4.6875,-31.8751
13:59:27.882,-5.3438,-31.4376
13:59:27.891,-5.375,-33.7501
13:59:27.902,-6.1875,-33.0001
13:59:27.913,-5.3438,-34.9376
13:59:27.923,-5.75,-34.6251
13:59:27.933,-5.9063,-34.9376
13:59:27.942,-5.6563,-35.8751
13:59:27.952,-6.6875,-36.3126
13:59:27.961,-6.5,-37.0626
13:59:27.971,-6.4375,-36.1251
13:59:27.982,-6.375,-37.5001
13:59:27.992,-6.625,-36.8126
13:59:28.001,-6.7188,-37.1251
13:59:28.012,-6.2188,-37.0001
13:59:28.022,-7.2813,-36.3751
13:59:28.032,-6,-36.7501
13:59:28.042,-7.0625,-35.7501
13:59:28.052,-6.7188,-37.3126
13:59:28.068,-7.2188,-36.5001
13:59:28.078,-6.9688,-38.0001
13:59:28.087,-6.9063,-36.5626
13:59:28.096,-7.375,-37.1876
13:59:28.111,-6.4063,-36.9376
13:59:28.117,-6.9688,-37.1251
13:59:28.127,-6.8125,-36.6876
13:59:28.137,-7.125,-36.3126
13:59:28.146,-7.0625,-37.8751
13:59:28.157,-6.9375,-36.5626
13:59:28.167,-6.7813,-37.1876
13:59:28.178,-6.375,-31.3751
13:59:28.187,-3.375,-21.6876
13:59:28.197,-0.1875,-8.6875
13:59:28.207,2.6875,4.9375
13:59:28.217,5.7813,18.3126
13:59:28.227,9.2813,32.1251
13:59:28.237,10.6875,38.2501
13:59:28.247,12.9375,44.2502
13:59:28.257,13.6876,46.6252
13:59:28.267,14.7813,50.8752
13:59:28.278,15.7813,53.3752
13:59:28.287,15.6563,55.0627
13:59:28.297,16.6563,57.0627
13:59:28.328,16.7813,57.1877
13:59:28.329,16.1876,59.5002
13:59:28.358,16.8438,58.8752
13:59:28.388,16.0626,58.5002
13:59:28.390,16.7501,59.5002
13:59:28.393,16.3126,58.8127
13:59:28.394,14.8438,56.4377
13:59:28.394,14.0313,55.6877
13:59:28.425,14.5313,54.8127
13:59:28.428,14.2501,53.0002
13:59:28.497,13.9376,52.0627
13:59:28.498,13.7501,50.5002
13:59:28.509,14.5313,48.3752
13:59:28.511,14.2501,47.7502
13:59:28.514,15.4688,47.0002
13:59:28.514,15.0626,46.3127
13:59:28.518,15.3126,45.4377
13:59:28.527,16.0313,43.5627
13:59:28.537,15.5938,43.5627
13:59:28.546,15.8438,43.1877
13:59:28.556,16.2813,42.3752
13:59:28.567,16.9376,42.5627
13:59:28.577,16.3438,41.5002
13:59:28.587,16.2501,40.0627
13:59:28.597,12.5,39.3127
13:59:28.607,15.3438,37.3126
13:59:28.616,16.0313,35.0001
13:59:28.627,14.8751,34.3126
13:59:28.637,14.0938,33.2501
13:59:28.647,14.1251,30.6251
13:59:28.657,13.5001,27.8126
13:59:28.682,13.9063,25.9376
13:59:28.684,12.9063,21.3751
13:59:28.687,12.25,17.1876
13:59:28.700,11.9063,14.7501
13:59:28.706,11.3125,13.125
13:59:28.717,10.8438,11.1875
13:59:28.728,10.1563,8.5625
13:59:28.737,9.125,6.5
13:59:28.747,8.2813,3.625
13:59:28.757,7.625,0.5625
13:59:28.768,7.4688,-1.125
13:59:28.777,6.5313,-4.25
13:59:28.787,5.3438,-6.5
13:59:28.796,5.1563,-9
13:59:28.807,3.75,-10.875
13:59:28.817,3.875,-13.6876
13:59:28.827,3.0938,-16.4376
13:59:28.837,2.2813,-17.9376
13:59:28.847,1.9063,-19.5001
13:59:28.863,0.9688,-22.6876
13:59:28.868,0.7188,-24.6876
13:59:28.878,0.5313,-26.3126
13:59:28.887,-0.875,-28.1251
13:59:28.897,-1.125,-30.5001
13:59:28.907,-1.625,-32.6251
13:59:28.917,-2.625,-35.1251
13:59:28.927,-2.4688,-36.1876
13:59:28.937,-3.8125,-38.8751
13:59:28.947,-3.9688,-39.1876
13:59:28.957,-4.8125,-41.9377
13:59:28.966,-5.8438,-44.1877
13:59:28.976,-7.25,-47.8127
13:59:28.987,-8.9375,-51.0627
13:59:28.998,-9.375,-53.3752
13:59:29.007,-10.7813,-55.5627
13:59:29.017,-11.4375,-57.3752
13:59:29.027,-11.5938,-60.1252
13:59:29.037,-11.5313,-60.6877
13:59:29.047,-12.5,-62.8752
13:59:29.057,-12.6875,-63.8752
13:59:29.066,-13.125,-64.3752
13:59:29.076,-13.8751,-65.0627
13:59:29.087,-14.0001,-66.1253
13:59:29.100,-14.9063,-64.6252
13:59:29.107,-14.7188,-61.8127
13:59:29.144,-13.0625,-56.2502
13:59:29.145,-11.2188,-44.7502
13:59:29.147,-8.5,-30.7501
13:59:29.172,-4.9688,-15.6876
13:59:29.173,-2.0313,-0.875
13:59:29.176,-0.4688,9.3125
13:59:29.181,0.5938,17.0001
13:59:29.209,1,22.8751
13:59:29.210,1.2813,24.6876
13:59:29.213,1.25,26.3126
13:59:29.239,2.0625,28.5626
13:59:29.241,1.9375,28.4376
13:59:29.244,1.375,28.6251
13:59:29.248,1.4063,30.3751
13:59:29.273,1.625,29.3126
13:59:29.276,1.2188,29.8751
13:59:29.278,1.2813,28.6251
13:59:29.287,0.625,29.3126
13:59:29.297,0.6875,26.6876
13:59:29.308,-0.375,25.1251
13:59:29.317,-0.6563,23.5001
13:59:29.327,-1.25,20.8751
13:59:29.337,-2.5313,19.7501
13:59:29.347,-3,15.9376
13:59:29.357,-4.375,12.875
13:59:29.366,-5.4375,8.1875
13:59:29.377,-6.9688,2.75
13:59:29.387,-8.1563,-1.125
13:59:29.397,-9.5313,-6.375
13:59:29.407,-11.2813,-10.5
13:59:29.417,-11.7813,-14.6876
13:59:29.427,-13.2813,-18.0626
13:59:29.437,-14.6563,-21.0626
13:59:29.446,-15.6251,-24.3751
13:59:29.457,-15.9376,-27.0001
13:59:29.467,-15.9376,-28.1251
13:59:29.478,-16.9063,-31.6251
13:59:29.488,-17.2813,-33.3751
13:59:29.497,-18.1563,-35.7501
13:59:29.507,-17.9376,-36.1876
13:59:29.517,-18.5313,-39.0001
13:59:29.527,-18.6563,-41.6252
13:59:29.537,-19.7813,-43.4377
13:59:29.547,-20.1876,-47.1252
13:59:29.557,-20.0313,-49.1252
13:59:29.567,-21.5938,-52.6877
13:59:29.577,-22.0938,-56.5002
13:59:29.587,-22.9063,-59.0002
13:59:29.598,-24.1876,-61.5002
13:59:29.607,-24.3438,-65.6252
13:59:29.616,-24.0938,-68.1878
13:59:29.627,-25.0313,-70.5628
13:59:29.637,-25.0313,-73.1253
13:59:29.647,-25.3126,-73.5628
13:59:29.661,-25.5626,-75.6878
13:59:29.667,-25.6563,-76.5628
13:59:29.677,-25.3438,-76.6878
13:59:29.688,-25.3751,-77.8753
13:59:29.696,-24.6251,-78.0003
13:59:29.712,-24.7813,-78.1878
13:59:29.721,-24.4688,-78.1253
13:59:29.727,-24.1876,-78.1878
13:59:29.744,-23.6251,-78.3128
13:59:29.749,-23.6876,-77.5003
13:59:29.757,-23.5938,-79.3128
13:59:29.786,-23.6563,-78.5003
13:59:29.789,-23.5001,-79.6253
13:59:29.818,-23.2813,-79.0628
13:59:29.849,-23.8751,-77.5628
13:59:29.852,-23.2813,-79.0628
13:59:29.852,-23.4063,-79.0628
13:59:29.853,-22.8751,-78.0003
13:59:29.855,-23.0313,-79.3128
13:59:29.861,-22.3751,-78.1878
13:59:29.863,-22.7501,-77.9378
13:59:29.867,-22.3438,-77.8128
13:59:29.899,-21.9688,-77.3753
13:59:29.900,-22.2813,-76.6253
13:59:29.903,-21.3751,-76.5003
13:59:29.908,-21.1563,-76.8128
13:59:29.953,-20.0001,-74.3753
13:59:29.954,-19.5001,-74.0628
13:59:29.958,-19.7501,-73.8128
13:59:29.971,-19.4688,-72.6253
13:59:29.976,-18.6563,-71.0003
13:59:29.976,-18.0938,-70.0628
13:59:29.978,-17.1251,-68.8753
13:59:29.987,-17.2188,-66.8753
13:59:29.997,-16.2813,-66.6253
13:59:30.007,-16.0313,-66.2503
13:59:30.017,-16.2813,-65.3127
13:59:30.027,-15.2188,-63.9377
13:59:30.042,-15.3438,-60.7502
13:59:30.047,-13.4376,-54.2502
13:59:30.057,-11.25,-44.5627
13:59:30.067,-8.375,-29.6251
13:59:30.077,-3.875,-15.2501
13:59:30.086,-0.1563,1.625
13:59:30.096,4.0313,16.6876
13:59:30.107,7.3125,28.0626
13:59:30.118,9.2813,36.7501
13:59:30.127,11.7188,43.4377
13:59:30.137,13.1876,47.9377
13:59:30.147,14.0938,52.1877
13:59:30.157,14.6251,53.8752
13:59:30.166,14.7501,56.0627
13:59:30.177,15.5626,55.8127
13:59:30.187,15.1876,57.1877
13:59:30.197,16.3751,56.4377
13:59:30.207,15.5938,56.9377
13:59:30.216,15.5001,55.1252
13:59:30.227,14.9688,55.0002
13:59:30.237,15.5001,53.0627
13:59:30.247,14.8438,50.9377
13:59:30.257,14.6251,49.1252
13:59:30.267,13.6876,47.0002
13:59:30.277,13.9688,43.6877
13:59:30.288,12.625,40.7502
13:59:30.297,11.9688,37.9376
13:59:30.307,11.9375,35.6251
13:59:30.316,11.4063,33.0626
13:59:30.328,11.0313,32.1251
13:59:30.337,10.875,29.2501
13:59:30.347,10.5938,28.8126
13:59:30.359,9.8438,26.3126
13:59:30.367,10.1563,25.6876
13:59:30.377,10.375,24.0001
13:59:30.387,9.7188,24.1876
13:59:30.397,9.6875,23.1251
13:59:30.407,9.375,22.6251
13:59:30.417,9.4063,20.9376
13:59:30.427,9.375,20.5001
13:59:30.436,9.4063,18.9376
13:59:30.447,9.25,17.8751
13:59:30.457,8.5625,14.9376
13:59:30.487,9.0313,14.0626
13:59:30.489,8.375,11.5
13:59:30.491,7.9063,10.625
13:59:30.532,7.3438,6.6875
13:59:30.532,6.9688,6.375
13:59:30.535,6.7188,3.125
13:59:30.536,7,2.0625
13:59:30.542,6.1875,-0.9375
13:59:30.548,5.8125,-2.25
13:59:30.576,5.1875,-5.4375
13:59:30.577,5.0313,-6.6875
13:59:30.579,4.8125,-10.125
13:59:30.612,4.4375,-11.0625
13:59:30.613,4.125,-14.6251
13:59:30.618,4.0313,-16.0626
13:59:30.619,3.3438,-17.6251
13:59:30.648,3.8438,-19.5626
13:59:30.651,3.4688,-20.9376
13:59:30.653,2.9063,-22.2501
13:59:30.658,2.5,-23.4376
13:59:30.667,2.4375,-25.1876
13:59:30.676,2.5938,-26.7501
13:59:30.686,2.4688,-28.4376
13:59:30.698,2.9375,-29.1876
13:59:30.708,2.125,-29.6251
13:59:30.717,2.125,-31.0626
13:59:30.727,1.875,-30.5626
13:59:30.737,2.3125,-31.8126
13:59:30.748,1.5313,-34.1251
13:59:30.757,1.6563,-34.1251
13:59:30.768,1.9063,-34.8126
13:59:30.778,1.125,-34.7501
13:59:30.794,1.5625,-36.0001
13:59:30.796,0.8125,-36.1876
13:59:30.807,1.4688,-36.5001
13:59:30.817,0.7813,-36.6876
13:59:30.827,1,-37.4376
13:59:30.841,1.3125,-38.1876
13:59:30.848,0.6563,-37.4376
13:59:30.857,0.7813,-38.2501
13:59:30.867,0.8125,-38.6251
13:59:30.878,0.7188,-38.8126
13:59:30.887,0.6563,-39.0626
13:59:30.898,0.5625,-39.5002
13:59:30.908,0.4063,-39.4377
13:59:30.917,-0.0938,-39.3126
13:59:30.926,0.1563,-38.6251
13:59:30.937,-0.0313,-39.9377
13:59:30.948,0.2813,-40.3752
13:59:30.958,0,-39.4377
13:59:30.967,0.4375,-37.8751
13:59:30.978,0.9063,-32.9376
13:59:30.986,3.4063,-23.9376
13:59:30.996,7.375,-9.25
13:59:31.007,11.25,11.5625
13:59:31.017,16.8438,32.1876
13:59:31.029,19.8438,47.8752
13:59:31.038,22.5313,59.5002
13:59:31.054,24.0001,66.2503
13:59:31.062,25.0938,72.5628
13:59:31.072,25.2813,75.7503
13:59:31.077,25.2813,78.1253
13:59:31.093,26.4376,80.2503
13:59:31.100,26.2501,80.8128
13:59:31.109,25.3438,82.8753
13:59:31.124,25.9376,81.6253
13:59:31.128,25.9688,82.3753
13:59:31.141,25.7813,83.1878
13:59:31.157,25.8438,82.0003
13:59:31.159,24.9376,82.6253
13:59:31.174,25.1251,82.4378
13:59:31.178,24.9376,80.4378
13:59:31.189,23.5938,79.5003
13:59:31.198,23.9376,78.5628
13:59:31.207,22.5938,75.4378
13:59:31.218,21.4376,72.7503
13:59:31.245,21.4063,70.8753
13:59:31.247,20.8126,67.0003
13:59:31.249,19.7813,64.8752
13:59:31.258,19.2188,61.6877
13:59:31.273,18.4063,60.0002
13:59:31.287,17.9376,58.3127
13:59:31.311,17.7501,55.9377
13:59:31.313,17.2813,53.8752
13:59:31.321,16.5313,52.3752
13:59:31.328,17.0626,51.5002
13:59:31.362,15.9688,50.1877
13:59:31.364,16.0938,49.3752
13:59:31.367,16.0938,47.6252
13:59:31.371,15.5626,47.4377
13:59:31.408,15.2813,45.1877
13:59:31.409,15.0313,45.1252
13:59:31.412,15.0313,42.2502
13:59:31.415,14.0001,41.3752
13:59:31.420,14.0313,38.8126
13:59:31.451,13.2501,37.3126
13:59:31.452,13.0625,34.9376
13:59:31.454,12.6875,32.1251
13:59:31.458,11.6563,28.8751
13:59:31.475,11.2813,27.0626
13:59:31.478,10.25,24.8126
13:59:31.487,10.6563,21.6876
13:59:31.498,9.1875,19.1251
13:59:31.508,8.9375,17.7501
13:59:31.518,8.1563,14.3751
13:59:31.527,7.75,12.25
13:59:31.544,8.0625,9.125
13:59:31.547,7,6.0625
13:59:31.557,5.75,3.375
13:59:31.567,4.9063,0.9375
13:59:31.578,4.1563,-0.3125
13:59:31.588,4.75,-4.125
13:59:31.598,3.2813,-6.875
13:59:31.609,2.8125,-8.5625
13:59:31.617,3.1563,-10.625
13:59:31.628,1.7813,-13.125
13:59:31.638,1.3125,-14.5001
13:59:31.646,1.0938,-17.8126
13:59:31.658,0.4063,-20.0001
13:59:31.667,-0.0313,-21.1251
13:59:31.676,-0.5313,-21.9376
13:59:31.688,-0.4063,-24.1251
13:59:31.698,-0.5625,-26.5626
13:59:31.708,-1.5313,-26.6251
13:59:31.718,-1.0625,-28.2501
13:59:31.728,-1.1875,-30.4376
13:59:31.738,-2.2813,-31.4376
13:59:31.747,-1.9688,-32.2501
13:59:31.758,-2.7188,-33.8126
13:59:31.769,-2.5,-33.9376
13:59:31.777,-2.6563,-35.2501
13:59:31.788,-2.8125,-36.4376
13:59:31.798,-2.3125,-36.5001
13:59:31.809,-2.8438,-37.3751
13:59:31.819,-2.8438,-38.0626
13:59:31.827,-2.7188,-39.4377
13:59:31.838,-3.0625,-38.5626
13:59:31.846,-3.6563,-38.6251
13:59:31.858,-3.3438,-40.3127
13:59:31.868,-3.125,-40.5002
13:59:31.880,-3.4375,-40.0627
13:59:31.888,-3.8125,-41.3752
13:59:31.898,-4.0938,-42.0627
13:59:31.908,-3.4688,-41.4377
13:59:31.919,-4.3125,-40.5627
13:59:31.928,-3.7188,-36.9376
13:59:31.938,-1.5938,-27.6876
13:59:31.947,1.4375,-15.0626
13:59:31.958,6.2188,2.9375
13:59:31.968,10.1875,21.7501
13:59:31.979,13.5313,36.9376
13:59:31.988,16.5313,47.3752
13:59:31.998,18.1563,55.8752
13:59:32.008,19.4688,61.0002
13:59:32.038,20.5626,66.1878
13:59:32.040,21.4688,68.4378
13:59:32.046,21.5938,70.5628
13:59:32.048,21.9688,72.8753
13:59:32.077,22.1251,72.5628
13:59:32.080,22.2501,73.6253
13:59:32.081,21.8438,74.4378
13:59:32.088,22.5938,74.7503
13:59:32.115,21.6563,74.1878
13:59:32.117,21.7501,73.3128
13:59:32.119,20.9063,72.9378
13:59:32.154,21.1876,72.1253
13:59:32.156,20.0626,71.0628
13:59:32.158,20.5001,70.0003
13:59:32.163,19.5313,67.5628
13:59:32.168,18.4688,65.0002
13:59:32.197,18.0001,62.6252
13:59:32.199,16.2188,59.9377
13:59:32.202,16.9063,56.1877
13:59:32.208,15.0313,53.1252
13:59:32.218,14.3126,50.5627
13:59:32.229,13.4688,48.1252
13:59:32.238,12.5625,46.2502
13:59:32.248,12.2813,44.8127
13:59:32.258,11.7188,42.8127
13:59:32.268,11.5625,40.5627
13:59:32.278,10.5313,38.6876
13:59:32.289,9.375,37.9376
13:59:32.302,9.7813,36.0626
13:59:32.308,9.2188,33.6876
13:59:32.318,8.0313,31.5626
13:59:32.328,7.8438,30.6876
13:59:32.339,7.375,27.7501
13:59:32.350,6.6875,26.6876
13:59:32.358,5.5938,24.6876
13:59:32.376,5.375,20.8751
13:59:32.383,4.2813,17.5001
13:59:32.391,3.7813,15.5626
13:59:32.400,3.2188,12.5
13:59:32.414,2.1563,9.5
13:59:32.420,1.375,8.1875
13:59:32.428,1.2813,3.875
13:59:32.444,0,0.5625
13:59:32.452,-0.6875,-1.625
13:59:32.459,-0.7813,-5.0625
13:59:32.469,-2.0313,-8.375
13:59:32.478,-3.0938,-10.5
13:59:32.493,-2.5313,-14.0626
13:59:32.525,-3.5,-17.1251
13:59:32.528,-4.1875,-19.7501
13:59:32.529,-5.3125,-23.1251
13:59:32.534,-6.3125,-26.2501
13:59:32.538,-6.5938,-27.8751
13:59:32.548,-6.7188,-30.9376
13:59:32.558,-6.9688,-33.3751
13:59:32.569,-8.1563,-36.7501
13:59:32.578,-8.4063,-37.6876
13:59:32.588,-8.125,-40.1252
13:59:32.600,-9.125,-42.1252
13:59:32.608,-9.75,-43.7502
13:59:32.618,-9.625,-45.4377
13:59:32.628,-10.5313,-46.8752
13:59:32.640,-10.0313,-47.8752
13:59:32.648,-10.5938,-48.3127
13:59:32.658,-10.5313,-50.8127
13:59:32.680,-10.6875,-51.0627
13:59:32.683,-11.4375,-52.8752
13:59:32.689,-10.9375,-53.0627
13:59:32.720,-11.6875,-53.3752
13:59:32.723,-11.5,-54.5627
13:59:32.725,-11.25,-55.5002
13:59:32.728,-11.2188,-54.8127
13:59:32.759,-11.75,-55.1877
13:59:32.762,-11.0938,-56.5002
13:59:32.765,-11.1563,-55.7502
13:59:32.771,-11.0938,-57.3127
13:59:32.806,-11.1563,-56.2502
13:59:32.811,-11.4063,-56.1877
13:59:32.811,-10.75,-57.0002
13:59:32.840,-10.125,-56.5627
13:59:32.840,-11.0938,-56.4377
13:59:32.842,-10.8125,-56.5002
13:59:32.844,-11.125,-55.9377
13:59:32.849,-11.125,-57.0627
13:59:32.860,-10.5625,-55.8127
13:59:32.870,-11.2188,-53.8752
13:59:32.878,-10.7813,-49.8752
13:59:32.888,-8.8125,-40.7502
13:59:32.898,-5.0625,-27.2501
13:59:32.908,-1.2188,-8.125
13:59:32.918,4.3438,10.375
13:59:32.928,8.125,26.4376
13:59:32.938,10,38.0626
13:59:32.950,12.7813,46.1877
13:59:32.958,13.6563,52.6252
13:59:32.968,15.0313,56.5627
13:59:32.979,15.6251,60.6252
13:59:32.988,15.9376,60.8752
13:59:32.998,16.3438,63.6252
13:59:33.008,16.5626,63.0627
13:59:33.018,16.6876,63.3127
13:59:33.028,17.0938,64.8127
13:59:33.038,16.3438,63.8752
13:59:33.049,16.6251,64.0002
13:59:33.058,16.7813,63.6252
13:59:33.068,15.9376,62.3127
13:59:33.078,16.1251,61.8127
13:59:33.088,15.2501,59.3752
13:59:33.098,14.2188,58.3752
13:59:33.108,14.3751,55.0002
13:59:33.118,13.125,52.5627
13:59:33.128,12.0313,49.0002
13:59:33.140,12.1875,45.8752
13:59:33.149,11.1875,43.3127
13:59:33.158,10.5938,39.9377
13:59:33.168,9.3438,38.1876
13:59:33.178,9.2813,34.7501
13:59:33.188,8.1875,33.6876
13:59:33.198,8.1563,32.0001
13:59:33.208,8.2188,29.8751
13:59:33.218,7.25,29.6876
13:59:33.234,6.9063,26.6251
13:59:33.238,7.3125,27.3126
13:59:33.248,6.6875,24.5626
13:59:33.258,6.875,23.9376
13:59:33.270,6.25,22.1251
13:59:33.278,5.6563,21.7501
13:59:33.288,5.3125,19.2501
13:59:33.298,5.25,17.0001
13:59:33.309,5,15.5626
13:59:33.318,4.25,13.9376
13:59:33.328,3.9688,11.5
13:59:33.338,3,9.125
13:59:33.349,2.8438,6.8125
13:59:33.358,2.375,3.5625
13:59:33.368,1.2188,1.0625
13:59:33.378,0.0625,-2.375
13:59:33.389,-0.0938,-4.8125
13:59:33.399,-0.5938,-6.625
13:59:33.408,-1.5313,-10.875
13:59:33.418,-1.8438,-13.4376
13:59:33.429,-2.5625,-16.0001
13:59:33.438,-2.9063,-18.5001
13:59:33.448,-3.5938,-22.0626
13:59:33.459,-4.3438,-24.5626
13:59:33.468,-5.1563,-27.6251
13:59:33.478,-5.6875,-30.5626
13:59:33.507,-5.75,-32.1251
13:59:33.509,-6.1875,-34.6876
13:59:33.512,-7.0313,-37.0001
13:59:33.518,-7.4375,-39.3752
13:59:33.550,-7.6563,-41.0627
13:59:33.553,-7.875,-43.0627
13:59:33.555,-8,-44.3752
13:59:33.558,-8.75,-45.5002
13:59:33.588,-8.9688,-48.0627
13:59:33.590,-9.5313,-48.6252
13:59:33.593,-9.625,-50.3127
13:59:33.598,-9.25,-51.0002
13:59:33.634,-10.2188,-50.7502
13:59:33.637,-9.8438,-53.5627
13:59:33.641,-9.5938,-53.0627
13:59:33.642,-10.0938,-54.1252
13:59:33.670,-9.625,-55.1877
13:59:33.673,-9.4063,-55.1252
13:59:33.675,-10.0938,-55.0627
13:59:33.678,-9.625,-56.0627
13:59:33.688,-8.875,-55.9377
13:59:33.698,-9.7813,-55.9377
13:59:33.708,-9.125,-56.5002
13:59:33.728,-9.75,-56.3127
13:59:33.733,-9.5313,-56.0002
13:59:33.743,-9.4063,-54.6252
13:59:33.749,-8.8438,-51.8127
13:59:33.776,-7.4688,-44.3752
13:59:33.778,-5.1875,-34.1876
13:59:33.803,-0.375,-16.8126
13:59:33.819,4.3438,3.8125
13:59:33.821,9.1563,22.0001
13:59:33.835,11.4063,36.2501
13:59:33.837,13.8751,45.0002
13:59:33.851,15.9688,52.6252
13:59:33.856,17.1563,57.8127
13:59:33.857,17.8126,61.9377
13:59:33.860,18.6876,63.8752
13:59:33.869,19.1251,65.7503
13:59:33.878,18.5313,66.3128
13:59:33.888,18.6876,66.3128
13:59:33.899,18.5626,66.3128
13:59:33.909,18.8126,66.2503
13:59:33.918,18.4688,64.7502
13:59:33.928,18.5001,64.8752
13:59:33.938,18.3438,63.9377
13:59:33.948,17.4063,62.9377
13:59:33.958,16.6876,62.8752
13:59:33.969,16.5313,61.1252
13:59:33.978,15.8126,58.1252
13:59:33.988,15.3126,54.7502
13:59:33.998,14.2501,52.2502
13:59:34.008,13.7188,49.4377
13:59:34.018,12.5,45.8752
13:59:34.028,11.5938,43.2502
13:59:34.044,11.1875,39.8127
13:59:34.049,9.9688,37.6251
13:59:34.058,10.1563,35.6251
13:59:34.068,9.875,33.0626
13:59:34.078,9.3125,31.6876
13:59:34.089,8.6563,30.0001
13:59:34.098,8.1875,29.0001
13:59:34.108,8.0625,28.0626
13:59:34.118,8.25,26.4376
13:59:34.128,6.8125,25.8126
13:59:34.138,7.375,23.5626
13:59:34.148,6.1875,22.6251
13:59:34.159,6.1563,21.9376
13:59:34.168,5.6875,18.2501
13:59:34.178,5.5313,16.8751
13:59:34.188,4.75,14.8126
13:59:34.199,3.9688,12.625
13:59:34.225,3.75,10.75
13:59:34.228,3.1563,8.3125
13:59:34.230,2.8125,6.0625
13:59:34.260,1.5625,3
13:59:34.263,2,0.625
13:59:34.265,0.9063,-1.75
13:59:34.268,0.4375,-4.5625
13:59:34.296,-0.375,-6.8125
13:59:34.298,-0.7813,-8.9375
13:59:34.303,-1.3125,-12.75
13:59:34.309,-2.0625,-14.8126
13:59:34.342,-2.8438,-17.4376
13:59:34.344,-3.3125,-21.0001
13:59:34.350,-3.5,-22.8751
13:59:34.351,-4.3125,-25.3126
13:59:34.379,-4.6875,-27.8751
13:59:34.382,-4.9688,-30.2501
13:59:34.384,-5.7188,-32.3126
13:59:34.391,-6.25,-34.5626
13:59:34.398,-6.9063,-36.8751
13:59:34.410,-7.4688,-38.2501
13:59:34.420,-7.7813,-40.9377
13:59:34.428,-7.6875,-43.2502
13:59:34.438,-7.9375,-44.6877
13:59:34.448,-8.6875,-44.5002
13:59:34.458,-7.9375,-47.6877
13:59:34.469,-8.5938,-47.3127
13:59:34.478,-8.9375,-49.8752
13:59:34.488,-8.4375,-51.5002
13:59:34.498,-9.4375,-52.1877
13:59:34.508,-8.5625,-52.8127
13:59:34.519,-9.5938,-53.5002
13:59:34.528,-9.5,-55.5002
13:59:34.538,-9.0938,-54.4377
13:59:34.548,-9.0938,-54.9377
13:59:34.558,-9.5625,-55.6252
13:59:34.568,-9.2813,-56.1877
13:59:34.581,-9.5,-55.8752
13:59:34.589,-9,-56.8752
13:59:34.598,-9,-56.1877
13:59:34.608,-8.9063,-56.0627
13:59:34.618,-8.6875,-56.8127
13:59:34.628,-9.1875,-55.8127
13:59:34.638,-9.2188,-56.8752
13:59:34.650,-9.5625,-55.0002
13:59:34.658,-8.625,-51.8752
13:59:34.668,-7.1563,-44.5627
13:59:34.679,-4.5625,-33.5626
13:59:34.688,0.25,-14.3126
13:59:34.698,5.3125,5.875
13:59:34.708,9.1875,23.8751
13:59:34.721,12.3125,36.8126
13:59:34.728,14.7188,46.6877
13:59:34.738,16.7501,53.8127
13:59:34.749,17.6876,58.5627
13:59:34.758,18.3126,61.1252
13:59:34.768,18.7501,63.3127
13:59:34.778,19.0938,64.5627
13:59:34.789,18.9688,64.9377
13:59:34.802,19.2188,65.4378
13:59:34.808,19.2188,65.4377
13:59:34.818,18.9063,64.8752
13:59:34.828,19.4376,66.1253
13:59:34.838,18.7813,64.8752
13:59:34.848,18.3751,65.9378
13:59:34.858,19.3751,65.3753
13:59:34.868,18.0001,63.6877
13:59:34.878,17.4376,63.5002
13:59:34.888,17.0313,60.1877
13:59:34.898,16.8751,59.1877
13:59:34.908,15.9688,55.6877
13:59:34.918,15.4063,53.1877
13:59:34.928,14.2501,49.3752
13:59:34.952,13.6876,46.3752
13:59:34.955,13.2188,44.5002
13:59:34.958,12.125,41.9377
13:59:34.989,11.0625,39.7502
13:59:34.991,10.5938,36.9376
13:59:34.994,10.0313,36.3751
13:59:34.998,10.4375,34.0001
13:59:35.036,9.3125,33.0626
13:59:35.037,9.25,31.1251
13:59:35.106,8.375,30.0626
13:59:35.106,8.1563,28.7501
13:59:35.108,8.1563,27.6251
13:59:35.133,7.875,26.4376
13:59:35.147,8.4063,25.6251
13:59:35.147,7.1875,23.7501
13:59:35.148,7.0313,22.3126
13:59:35.163,5.9375,20.7501
13:59:35.166,5.5625,18.3126
13:59:35.182,4.9375,16.2501
13:59:35.183,4.4063,13.7501
13:59:35.194,4.1875,11.5
13:59:35.203,3.7813,8.6875
13:59:35.213,2.9688,7.0625
13:59:35.223,2.9688,3.875
13:59:35.233,2.0313,1.75
13:59:35.244,0.9375,-0.5
13:59:35.253,0.6875,-3.1875
13:59:35.263,0.2813,-7.3125
13:59:35.273,-0.125,-9.125
13:59:35.283,-1.25,-11.9375
13:59:35.293,-2.125,-15.8751
13:59:35.303,-5.9063,-34.8751
13:59:35.313,-6.6563,-37.3751
13:59:35.325,-7.0313,-39.0001
13:59:35.339,-7.3438,-41.5627
13:59:35.348,-7.9375,-43.3752
13:59:35.358,-8.3438,-45.3127
13:59:35.368,-8.75,-45.8752
13:59:35.378,-8.625,-48.6877
13:59:35.389,-9.5625,-49.0002
13:59:35.398,-9.5313,-51.0627
13:59:35.408,-9.5313,-51.6877
13:59:35.418,-9.0313,-52.9377
13:59:35.428,-10.3438,-52.4377
13:59:35.438,-10.3438,-55.6252
13:59:35.448,-9.875,-55.2502
13:59:35.460,-10,-56.1877
13:59:35.468,-9.625,-56.7502
13:59:35.478,-9.5625,-56.0627
13:59:35.488,-10.25,-57.7502
13:59:35.498,-10.125,-55.3752
13:59:35.511,-8.8438,-52.1877
13:59:35.518,-7.4375,-43.5627
13:59:35.528,-3.7813,-32.3751
13:59:35.538,0.0625,-13.4376
13:59:35.553,5.125,5.5
13:59:35.558,8.3125,21.5001
13:59:35.568,12.1563,33.3126
13:59:35.580,13.8438,44.5002
13:59:35.588,16.0626,50.0002
13:59:35.598,16.7188,56.4377
13:59:35.609,18.0313,58.7502
13:59:35.618,18.4063,62.3752
13:59:35.628,18.8438,62.7502
13:59:35.639,18.7501,65.0627
13:59:35.648,19.5938,64.1252
13:59:35.658,19.0313,65.6252
13:59:35.689,19.0313,65.0627
13:59:35.692,18.6251,65.5628
13:59:35.694,18.4376,65.1877
13:59:35.699,18.2188,64.3127
13:59:35.727,18.0626,64.2502
13:59:35.732,18.1876,63.3127
13:59:35.734,17.5626,62.0002
13:59:35.738,16.4376,59.5002
13:59:35.766,16.5938,58.4377
13:59:35.769,15.1876,56.3127
13:59:35.770,14.3438,53.5627
13:59:35.797,13.5938,50.3127
13:59:35.800,12.3438,47.5002
13:59:35.801,11.75,44.1252
13:59:35.809,11.0313,41.8127
13:59:35.822,10.4688,38.9376
13:59:35.828,9.5313,37.8126
13:59:35.850,9.7188,34.8751
13:59:35.853,8.8438,33.0001
13:59:35.859,8.7188,32.5626
13:59:35.870,8.125,30.1876
13:59:35.878,7.4375,29.3751
13:59:35.888,7.375,27.9376
13:59:35.900,6.4375,26.3126
13:59:35.908,6.2188,25.6876
13:59:35.918,6.5,22.5001
13:59:35.928,5.7188,21.5001
13:59:35.938,5.4375,20.0626
13:59:35.948,4.9063,17.2501
13:59:35.958,4.4063,15.7501
13:59:35.968,3.9375,13.3751
13:59:35.978,3.5,12.25
13:59:35.988,2.7813,10.0625
13:59:35.998,2.7188,6.4375
13:59:36.008,1.6563,5.25
13:59:36.018,1.625,1.4375
13:59:36.028,0.5313,-0.8125
13:59:36.038,0.2813,-3.125
13:59:36.049,-0.3438,-6.9375
13:59:36.058,-0.6563,-8.375
13:59:36.068,-1.0625,-11.5625
13:59:36.078,-1.6875,-13.8126
13:59:36.088,-2.0313,-16.1876
13:59:36.098,-3.1875,-18.5001
13:59:36.108,-3.75,-20.9376
13:59:36.118,-3.75,-24.1251
13:59:36.128,-5,-26.1876
13:59:36.138,-4.6875,-29.5626
13:59:36.149,-6.5313,-31.3751
13:59:36.158,-5.8438,-34.1251
13:59:36.168,-6.75,-35.0001
13:59:36.178,-6.8438,-38.5001
13:59:36.188,-7.7813,-39.3752
13:59:36.198,-8.125,-42.3127
13:59:36.208,-8.625,-42.8752
13:59:36.218,-8.9688,-46.3127
13:59:36.228,-8.3438,-46.8752
13:59:36.238,-9.375,-48.0627
13:59:36.248,-9.4688,-50.5002
13:59:36.258,-9.4375,-51.0627
13:59:36.268,-9.9375,-50.8752
13:59:36.278,-9.6875,-52.7502
13:59:36.288,-9.25,-53.1252
13:59:36.301,-9.875,-54.6877
13:59:36.333,-10.125,-54.8127
13:59:36.336,-10.5313,-53.8752
13:59:36.338,-9.3125,-53.4377
13:59:36.363,-9.1875,-48.1252
13:59:36.365,-6.5938,-41.6877
13:59:36.398,-3.625,-27.4376
13:59:36.398,0.9063,-8.75
13:59:36.399,5.1563,9.5
13:59:36.403,8.75,25.0001
13:59:36.429,11.7813,35.8751
13:59:36.431,13.8438,46.1252
13:59:36.434,15.7188,53.1252
13:59:36.467,16.5626,58.1252
13:59:36.490,17.1251,60.1252
13:59:36.491,17.3438,63.0627
13:59:36.493,17.5313,63.2502
13:59:36.508,18.1563,65.6253
13:59:36.512,18.1876,65.0002
13:59:36.512,17.5313,65.8752
13:59:36.512,17.5938,65.5003
13:59:36.526,17.5001,65.1877
13:59:36.527,17.0001,64.8127
13:59:36.542,17.2501,65.1252
13:59:36.543,17.2188,65.1877
13:59:36.558,16.5626,63.8127
13:59:36.560,16.0001,62.9377
13:59:36.569,14.8126,62.2502
13:59:36.578,14.4063,59.5002
13:59:36.589,13.4688,56.0002
13:59:36.600,12.875,53.3127
13:59:36.608,12.0625,50.8127
13:59:36.618,11.0938,48.3127
13:59:36.628,9.9375,45.3127
13:59:36.639,9.5938,42.0002
13:59:36.648,9.0938,40.2502
13:59:36.660,8.125,37.5626
13:59:36.668,7.3125,36.3751
13:59:36.678,7,33.3126
13:59:36.688,6.7813,31.6251
13:59:36.698,6.75,30.9376
13:59:36.708,6.5625,29.5626
13:59:36.720,5.7813,29.8126
13:59:36.728,5.4688,27.6876
13:59:36.738,5.125,25.8751
13:59:36.748,5.125,24.9376
13:59:36.758,4.8125,22.4376
13:59:36.768,3.75,22.2501
13:59:36.780,3.2813,19.1251
13:59:36.788,2.5938,16.5626
13:59:36.798,1.9063,13.8126
13:59:36.810,2,11.3125
13:59:36.818,1.1875,9.125
13:59:36.828,0.1875,6.4375
13:59:36.841,-0.1563,2.8125
13:59:36.848,-1.875,0.0625
13:59:36.858,-2,-2.875
13:59:36.870,-2.9688,-6.0625
13:59:36.880,-3.625,-9.375
13:59:36.888,-4.375,-12.125
13:59:36.900,-5.125,-15.7501
13:59:36.908,-5.8125,-19.0001
13:59:36.918,-6.625,-22.3751
13:59:36.928,-6.8125,-25.3126
13:59:36.938,-7,-27.5001
13:59:36.949,-8.0938,-30.5626
13:59:36.958,-8.7188,-33.0001
13:59:36.969,-8.7813,-36.3751
13:59:36.979,-9.5625,-38.1251
13:59:36.988,-9.9063,-41.0002
13:59:36.998,-9.75,-43.3752
13:59:37.008,-10.8438,-45.0627
13:59:37.018,-11.5,-47.8127
13:59:37.028,-10.8125,-48.3127
13:59:37.040,-11.7188,-50.7502
13:59:37.072,-12.25,-53.0627
13:59:37.075,-12.25,-53.9377
13:59:37.076,-13.2501,-54.7502
13:59:37.105,-12.8125,-56.4377
13:59:37.106,-13.125,-56.9377
13:59:37.108,-13.0625,-58.5627
13:59:37.113,-13.1563,-58.9377
13:59:37.142,-13.4063,-58.9377
13:59:37.144,-13.3438,-60.5627
13:59:37.147,-13.0938,-60.5627
13:59:37.149,-13.0313,-61.5627
13:59:37.181,-13.3126,-61.4377
13:59:37.184,-13.3126,-61.1877
13:59:37.185,-12.7813,-61.3127
13:59:37.188,-12.3125,-60.7502
13:59:37.220,-12.2813,-56.8127
13:59:37.222,-10.4688,-52.8127
13:59:37.226,-7.9688,-43.6877
13:59:37.229,-2.9688,-25.3126
13:59:37.238,3.9063,-3.125
13:59:37.253,10.4688,20.6876
13:59:37.258,15.6563,39.3126
13:59:37.268,19.5938,55.1877
13:59:37.279,24.0313,67.9378
13:59:37.288,27.2814,76.6878
13:59:37.298,29.0939,84.6253
13:59:37.309,31.0626,89.5003
13:59:37.318,31.7189,93.3129
13:59:37.328,31.6564,96.0004
13:59:37.340,31.3439,97.2504
13:59:37.348,31.1564,97.0629
13:59:37.360,30.4064,98.0629
13:59:37.371,29.9689,97.3129
13:59:37.378,29.2189,97.1879
13:59:37.388,28.8126,97.3754
13:59:37.400,27.5626,96.6879
13:59:37.408,26.5001,95.9379
13:59:37.418,25.5626,96.2504
13:59:37.430,24.8751,93.1254
13:59:37.438,23.2813,90.6879
13:59:37.448,22.9063,88.1253
13:59:37.458,21.3438,86.5628
13:59:37.468,21.6563,83.8753
13:59:37.479,21.2501,82.9378
13:59:37.488,20.2813,80.0628
13:59:37.498,19.8438,78.0628
13:59:37.510,19.2188,75.8753
13:59:37.518,19.0626,74.6253
13:59:37.528,19.0938,73.5003
13:59:37.538,18.5626,73.1253
13:59:37.548,18.6876,72.0003
13:59:37.558,18.1876,71.9378
13:59:37.568,18.0001,70.3753
13:59:37.579,17.8126,69.4378
13:59:37.589,17.2813,69.2503
13:59:37.598,17.5313,67.6878
13:59:37.608,16.3751,66.6253
13:59:37.619,16.2813,63.7502
13:59:37.645,15.5313,61.5002
13:59:37.648,15.0626,60.0627
13:59:37.650,14.2501,57.3127
13:59:37.658,13.6876,55.4377
13:59:37.673,13.3751,53.0002
13:59:37.678,13.1563,51.7502
13:59:37.688,12.25,49.0627
13:59:37.700,11.2813,46.2502
13:59:37.708,10.9063,44.3752
13:59:37.718,9.7188,42.2502
13:59:37.730,9.8125,38.8126
13:59:37.738,8.75,36.7501
13:59:37.749,8.2188,33.9376
13:59:37.760,8.0938,31.0001
13:59:37.779,8.0625,30.1876
13:59:37.782,9.1563,27.6251
13:59:37.812,8.25,26.8751
13:59:37.815,8.2188,23.0001
13:59:37.842,6.5625,21.3126
13:59:37.843,6.5938,17.8126
13:59:37.847,7.0938,17.1876
13:59:37.949,6.4688,13.4376
13:59:37.951,6.0313,12.1875
13:59:37.951,6.1875,11.1875
13:59:37.951,6.4063,10.5
13:59:37.952,7.75,9.25
13:59:37.954,6.8125,9.25
13:59:37.960,6.9375,7.3125
13:59:37.961,5.9688,6.875
13:59:37.961,5.625,4
13:59:37.969,4.0313,1.25
13:59:37.978,1.1875,-2.75
13:59:37.988,-1.25,-9
13:59:37.998,3.3125,-4.6875
13:59:38.008,7.625,1.5
13:59:38.019,11.0313,5.8125
13:59:38.028,15.5626,13.2501
13:59:38.039,19.2501,18.9376
13:59:38.048,21.7813,23.0626
13:59:38.058,24.0938,26.3751
13:59:38.069,25.3751,28.2501
13:59:38.080,26.7501,30.9376
13:59:38.089,27.0314,32.4376
13:59:38.098,28.0001,36.4376
13:59:38.108,29.3439,42.3752
13:59:38.119,30.6876,48.1877
13:59:38.129,30.1876,77.8753
13:59:38.139,27.6876,77.6878
13:59:38.150,23.3438,76.0003
13:59:38.158,18.0313,71.3753
13:59:38.168,10.25,64.9377
13:59:38.178,3.7813,58.3752
13:59:38.188,-1.3125,50.3752
13:59:38.198,-5.6563,44.6252
13:59:38.209,-8.375,41.7502
13:59:38.218,-6.125,42.2502
13:59:38.230,-0.0938,49.8752
13:59:38.239,3.4688,58.6877
13:59:38.249,4.9063,62.8127
13:59:38.258,4.25,62.5002
13:59:38.269,3.1563,62.7502
13:59:38.278,3.6563,62.4377
13:59:38.288,2.75,61.6252
13:59:38.298,1.1563,61.1252
13:59:38.309,0.4375,57.8127
13:59:38.318,-1.0938,54.8127
13:59:38.328,-2.1563,52.0627
13:59:38.338,-2.875,48.6877
13:59:38.351,-4.1563,44.3752
13:59:38.360,-5.0625,41.5002
13:59:38.369,-6.4375,37.9376
13:59:38.379,-6.9375,36.1876
13:59:38.389,-8.0625,31.6876
13:59:38.399,-8.625,29.8126
13:59:38.408,-9.1563,26.5626
13:59:38.424,-9.9063,25.8126
13:59:38.429,-10.2813,23.3126
13:59:38.438,-9.6875,22.2501
13:59:38.451,-10.5313,20.4376
13:59:38.460,-10.5938,19.0001
13:59:38.469,-11.8125,16.9376
13:59:38.478,-12.5313,14.6876
13:59:38.489,-13.0625,12.6875
13:59:38.500,-14.0313,11.1875
13:59:38.509,-14.5938,8.375
13:59:38.519,-14.8751,5.25
13:59:38.531,-16.5001,3.5
13:59:38.539,-16.6876,-0.125
13:59:38.549,-17.8438,-2.3125
13:59:38.558,-18.5313,-5.75
13:59:38.569,-18.7813,-9.25
13:59:38.581,-19.6251,-10.9375
13:59:38.589,-19.5001,-12.9375
13:59:38.602,-19.2188,-13.8751
13:59:38.631,-19.4063,-16.5001
13:59:38.633,-19.4688,-17.0001
13:59:38.635,-19.4376,-18.7501
13:59:38.639,-18.4376,-19.9376
13:59:38.668,-19.2188,-20.6251
13:59:38.671,-18.5938,-21.8751
13:59:38.673,-18.9063,-23.2501
13:59:38.679,-18.0001,-23.0626
13:59:38.710,-16.7188,-23.3751
13:59:38.712,-16.5313,-23.1251
13:59:38.714,-15.9063,-24.5626
13:59:38.746,-15.4688,-23.6251
13:59:38.747,-15.7501,-25.6251
13:59:38.750,-14.9063,-25.5001
13:59:38.754,-16.1251,-25.5626
13:59:38.760,-15.8126,-27.7501
13:59:38.780,-16.0938,-28.2501
13:59:38.781,-16.5313,-28.8751
13:59:38.789,-17.1251,-31.1251
13:59:38.801,-17.9688,-32.4376
13:59:38.810,-17.1563,-33.4376
13:59:38.820,-18.6876,-33.1876
13:59:38.829,-18.0626,-33.5626
13:59:38.838,-18.4376,-35.3126
13:59:38.849,-19.5938,-35.5001
13:59:38.859,-20.1876,-37.7501
13:59:38.870,-20.7813,-37.9376
13:59:38.879,-21.1563,-39.4377
13:59:38.890,-20.3126,-39.1252
13:59:38.898,-20.5626,-40.0002
13:59:38.923,-20.0001,-39.9377
13:59:38.927,-19.3751,-39.3752
13:59:38.930,-20.0626,-40.5627
13:59:38.940,-19.6563,-40.3752
13:59:38.949,-19.6251,-41.6252
13:59:38.960,-19.5938,-42.3752
13:59:38.969,-19.9688,-43.0002
13:59:38.980,-19.6251,-42.8127
13:59:38.990,-20.0001,-43.5002
13:59:38.999,-19.3438,-44.1877
13:59:39.010,-20.2188,-44.3127
13:59:39.020,-19.6251,-44.6877
13:59:39.029,-20.7813,-45.1252
13:59:39.040,-19.1876,-43.1252
13:59:39.049,-18.1563,-38.0001
13:59:39.062,-15.7813,-31.3126
13:59:39.071,-13.2813,-22.5001
13:59:39.079,-10.6563,-12.6875
13:59:39.089,-7.625,-3.5625
13:59:39.099,-6.2188,3.4375
13:59:39.111,-3.5313,9.3125
13:59:39.127,-2.75,14.0001
13:59:39.133,-2.0625,17.5626
13:59:39.148,-0.5313,20.1251
13:59:39.150,-0.3125,22.6876
13:59:39.161,2.6563,26.8751
13:59:39.174,5.5938,33.5626
13:59:39.179,8.5313,39.5627
13:59:39.198,10.0625,43.5002
13:59:39.200,10.875,45.2502
13:59:39.214,10.875,46.3752
13:59:39.220,11.5313,46.8127
13:59:39.229,10.75,46.3752
13:59:39.239,11.1563,46.5627
13:59:39.251,11,45.6877
13:59:39.260,12.125,44.9377
13:59:39.270,11.8438,45.3127
13:59:39.279,12.2188,45.6252
13:59:39.290,13.4063,45.6877
13:59:39.299,13.2813,44.3752
13:59:39.309,12.875,44.6252
13:59:39.334,12.8125,44.3752
13:59:39.340,12.4063,43.5002
13:59:39.340,12.0938,42.6252
13:59:39.372,12.375,43.8752
13:59:39.373,12.8438,42.8127
13:59:39.377,12.2813,43.0627
13:59:39.406,12.2188,42.8127
13:59:39.408,12.3438,42.7502
13:59:39.411,13.2501,43.1877
13:59:39.416,12.6563,42.0002
13:59:39.442,10.9688,41.3752
13:59:39.447,11.0625,40.1877
13:59:39.447,9.1563,38.1251
13:59:39.473,7.9375,34.6876
13:59:39.477,4.4375,31.1876
13:59:39.479,0.8438,26.9376
13:59:39.484,-2.1875,21.8126
13:59:39.497,-5.8438,17.3126
13:59:39.504,-8.5938,11.8125
13:59:39.514,-12.5,6.625
13:59:39.524,-16.0938,1.375
13:59:39.534,-18.9688,-3.625
13:59:39.547,-23.8438,-8.5625
13:59:39.559,-26.1563,-12.5
13:59:39.565,-27.5001,-15.4376
13:59:39.575,-30.0314,-18.3751
13:59:39.584,-30.3126,-19.2501
13:59:39.594,-31.6564,-21.1876
13:59:39.604,-32.7814,-22.6876
13:59:39.614,-33.5626,-24.0626
13:59:39.624,-34.1564,-25.5626
13:59:39.634,-33.9064,-25.5626
13:59:39.644,-33.6564,-25.6876
13:59:39.656,-33.5001,-27.0001
13:59:39.665,-33.4064,-26.6251
13:59:39.675,-32.9064,-29.1876
13:59:39.685,-32.1564,-29.0626
13:59:39.694,-31.1251,-28.6876
13:59:39.704,-31.2501,-31.3751
13:59:39.714,-30.0314,-31.9376
13:59:39.726,-29.0939,-33.3126
13:59:39.735,-27.1564,-33.6876
13:59:39.744,-22.1251,-28.1251
13:59:39.754,-20.8438,-26.0626
13:59:39.764,-19.7188,-27.8126
13:59:39.775,-19.1251,-27.8751
13:59:39.785,-18.5938,-29.6876
13:59:39.794,-16.9376,-29.8126
13:59:39.804,-16.2813,-29.7501
13:59:39.814,-15.7501,-29.8126
13:59:39.824,-14.2813,-30.3126
13:59:39.834,-14.2188,-29.6876
13:59:39.845,-13,-29.9376
13:59:39.854,-13.125,-30.8751
13:59:39.864,-13.5001,-30.8126
13:59:39.874,-14.0001,-32.0001
13:59:39.884,-13.3751,-33.5626
13:59:39.895,-13.5938,-33.1876
13:59:39.904,-13.1876,-34.4376
13:59:39.914,-13.4688,-34.3751
13:59:39.924,-13.8751,-34.4376
13:59:39.935,-14.0001,-34.9376
13:59:39.945,-14.0001,-35.4376
13:59:39.954,-14.0626,-32.8126
13:59:39.964,-12.7813,-29.6251
13:59:39.974,-10.625,-20.2501
13:59:39.999,-8.0625,-11.5
13:59:40.001,-5.4063,-1.6875
13:59:40.004,-3.7813,7.8125
13:59:40.031,-1.6875,12.8125
13:59:40.033,-0.6563,18.5001
13:59:40.037,-0.2813,21.5001
13:59:40.068,-0.0313,23.2501
13:59:40.072,0.2188,25.6876
13:59:40.074,0.3438,25.4376
13:59:40.076,0.9688,27.6876
13:59:40.111,1.4375,27.8751
13:59:40.113,1.6563,31.2501
13:59:40.116,2,30.3751
13:59:40.146,2.0313,31.2501
13:59:40.147,2.4688,31.7501
13:59:40.152,1.8438,31.6876
13:59:40.156,3,32.1251
13:59:40.157,2.9688,32.2501
13:59:40.165,1.9688,31.5626
13:59:40.174,2.5625,29.5001
13:59:40.202,1.1563,26.7501
13:59:40.205,1.125,26.1876
