timestamp,Red,IR
12:49:57.452,4.0625,8.5625
12:49:57.461,3.75,7.75
12:49:57.471,3.4375,6.25
12:49:57.483,3.3125,5.9375
12:49:57.491,3.0625,4.3125
12:49:57.501,3.0625,1.625
12:49:57.512,2.75,0.1875
12:49:57.522,2.125,-1.9375
12:49:57.532,1.3125,-4.0625
12:49:57.541,0.9375,-7.8125
12:49:57.551,0.625,-11
12:49:57.561,0.3125,-12.9375
12:49:57.571,-0.4375,-14.8751
12:49:57.582,-0.875,-17.1251
12:49:57.592,-1.0625,-20.8126
12:49:57.601,-1.375,-21.0626
12:49:57.612,-2.3125,-23.3751
12:49:57.623,-2,-23.6251
12:49:57.631,-2.3125,-26.4376
12:49:57.642,-2.625,-26.5626
12:49:57.655,-3.1875,-29.6876
12:49:57.661,-2.625,-29.4376
12:49:57.672,-2.8125,-30.3126
12:49:57.682,-3,-30.0001
12:49:57.692,-3.375,-32.1876
12:49:57.701,-3.375,-31.7501
12:49:57.711,-3.625,-33.6876
12:49:57.722,-4.1875,-33.7501
12:49:57.732,-4.0625,-32.8751
12:49:57.742,-4.1875,-35.0001
12:49:57.752,-3.375,-34.6251
12:49:57.842,-4.25,-34.9376
12:49:57.844,-3.9375,-35.3751
12:49:57.878,-3.9375,-36.1876
12:49:57.883,-4.1875,-36.6251
12:49:57.883,-4.4375,-36.2501
12:49:57.883,-4.125,-36.5626
12:49:57.888,-3.875,-34.8126
12:49:57.918,-4.0625,-36.9376
12:49:57.921,-3.9375,-36.0001
12:49:57.922,-4.3125,-34.9376
12:49:57.928,-4.5,-36.2501
12:49:57.943,-3.75,-35.7501
12:49:57.947,-4.1875,-35.2501
12:49:57.957,-3.8125,-34.8751
12:49:57.966,-4.6875,-34.1251
12:49:57.978,-3.875,-29.9376
12:49:57.986,-2.5625,-20.5001
12:49:57.998,-0.5,-8.5625
12:49:58.008,3,10.3125
12:49:58.016,8.0625,30.3751
12:49:58.027,11.625,43.1877
12:49:58.038,13.5626,50.1877
12:49:58.047,5.4375,8.0625
12:49:58.057,12.6875,47.0627
12:49:58.069,13,44.0627
12:49:58.078,12.3125,43.3752
12:49:58.088,11.5625,40.0002
12:49:58.097,11.1875,35.9376
12:49:58.106,10.0625,34.3751
12:49:58.116,9.5625,29.6251
12:49:58.126,9.625,28.1876
12:49:58.136,8.5,25.7501
12:49:58.146,8.25,22.6251
12:49:58.156,7.75,22.0001
12:49:58.167,7.5625,20.9376
12:49:58.176,7.8125,20.4376
12:49:58.187,7.75,20.3126
12:49:58.197,7.4375,19.1251
12:49:58.207,6.625,18.6251
12:49:58.217,7.3125,19.4376
12:49:58.226,7.375,17.8126
12:49:58.237,6.875,16.7501
12:49:58.247,6.25,15.6876
12:49:58.257,5.875,13.2501
12:49:58.267,5.5,10.1875
12:49:58.277,4.9375,8.125
12:49:58.286,4.8125,5.875
12:49:58.297,4.375,3.25
12:49:58.307,3.0625,-0.0625
12:49:58.316,2.5625,-1.75
12:49:58.326,2.4375,-4.75
12:49:58.338,1.6875,-8.375
12:49:58.346,0.5625,-9.25
12:49:58.358,0.625,-12.25
12:49:58.367,0.4375,-15.1251
12:49:58.376,0.25,-17.0001
12:49:58.386,-0.6875,-17.3126
12:49:58.396,-0.125,-19.3751
12:49:58.408,-0.4375,-21.3126
12:49:58.417,-0.9375,-22.6876
12:49:58.426,-1.75,-22.8126
12:49:58.453,-1.875,-24.4376
12:49:58.455,-1.75,-25.7501
12:49:58.458,-2.625,-26.6876
12:49:58.469,-2.4375,-26.6251
12:49:58.477,-1.375,-28.5626
12:49:58.486,-2.0625,-28.6251
12:49:58.497,-2.0625,-29.1251
12:49:58.506,-2.3125,-29.8751
12:49:58.517,-2.875,-30.4376
12:49:58.550,-2.75,-29.9376
12:49:58.552,-2.4375,-31.3126
12:49:58.555,-3.3125,-30.6876
12:49:58.557,-3.1875,-32.1251
12:49:58.596,-3.1875,-31.1876
12:49:58.602,-3.25,-31.6251
12:49:58.606,-3.0625,-32.1251
12:49:58.619,-3.4375,-32.2501
12:49:58.647,-3.0625,-32.5001
12:49:58.648,-2.9375,-33.4376
12:49:58.650,-3.4375,-32.3126
12:49:58.666,-2.5,-33.3751
12:49:58.696,-3.875,-33.0626
12:49:58.696,-3.5625,-33.5626
12:49:58.696,-3.5625,-31.9376
12:49:58.696,-3.25,-33.1251
12:49:58.699,-3.25,-32.8751
12:49:58.707,-3.6875,-32.5626
12:49:58.709,-3.25,-32.7501
12:49:58.718,-3.5625,-31.5626
12:49:58.726,-3.5625,-30.6251
12:49:58.736,-3.125,-29.0626
12:49:58.746,-2.125,-21.0626
12:49:58.757,-1.5,-9.8125
12:49:58.766,1.75,5.4375
12:49:58.781,6.625,24.4376
12:49:58.787,10.1875,40.6252
12:49:58.796,11.9375,47.5002
12:49:58.813,12.75,51.5627
12:49:58.821,13.125,52.1252
12:49:58.831,13.1876,50.0627
12:49:58.842,13.1876,48.8752
12:49:58.851,12.6875,47.0002
12:49:58.861,12,44.1877
12:49:58.871,11.8125,42.4377
12:49:58.881,11.5,40.6252
12:49:58.891,11.1875,39.1251
12:49:58.901,10.375,36.8751
12:49:58.911,10.3125,35.7501
12:49:58.922,9.25,32.5626
12:49:58.931,9,29.8751
12:49:58.941,8.1875,27.3126
12:49:58.952,7.625,24.9376
12:49:58.962,6.3125,20.0626
12:49:58.971,5.8125,18.5001
12:49:58.981,6.25,15.9376
12:49:58.992,5.5,14.4376
12:49:59.002,5.0625,14.0626
12:49:59.012,5.8125,13.6251
12:49:59.022,5.4375,13.1876
12:49:59.031,5.6875,12.5625
12:49:59.043,4.8125,13.1876
12:49:59.051,5.5625,13
12:49:59.067,4.625,10.5625
12:49:59.072,4.25,10.5625
12:49:59.081,4.0625,9.5625
12:49:59.092,3.9375,6.0625
12:49:59.102,2.875,3.1875
12:49:59.111,2.5,1.75
12:49:59.131,2.125,-0.6875
12:49:59.137,2.3125,-3.8125
12:49:59.145,1.25,-6.9375
12:49:59.152,0.3125,-7.5625
12:49:59.161,0.1875,-11.1875
12:49:59.177,0.3125,-13.8126
12:49:59.185,-0.5,-16.8126
12:49:59.192,-1.25,-18.0001
12:49:59.227,-1.625,-19.2501
12:49:59.228,-1.8125,-21.3126
12:49:59.231,-2.625,-22.6876
12:49:59.237,-2.6875,-23.5001
12:49:59.269,-2.5,-25.8126
12:49:59.273,-3.25,-26.6251
12:49:59.275,-3.6875,-27.7501
12:49:59.275,-3.375,-29.0626
12:49:59.282,-3.75,-29.9376
12:49:59.314,-3.875,-29.7501
12:49:59.316,-4.25,-29.8126
12:49:59.318,-4.875,-31.6251
12:49:59.322,-4.5625,-31.8751
12:49:59.360,-4.4375,-31.6876
12:49:59.361,-4.3125,-33.0001
12:49:59.363,-4.5625,-34.0626
12:49:59.365,-4.625,-33.0626
12:49:59.374,-4.3125,-33.7501
12:49:59.386,-4.5625,-34.4376
12:49:59.391,-4.5625,-33.8751
12:49:59.404,-4.625,-34.0626
12:49:59.413,-4.125,-34.5001
12:49:59.421,-4.5,-34.0626
12:49:59.433,-4.625,-33.5001
12:49:59.441,-4.3125,-33.8751
12:49:59.452,-4.4375,-33.8126
12:49:59.461,-5,-32.3126
12:49:59.471,-4.3125,-34.0626
12:49:59.481,-4.125,-33.0001
12:49:59.492,-4.5,-33.3751
12:49:59.502,-4.125,-32.8126
12:49:59.511,-4.3125,-33.0001
12:49:59.522,-3.4375,-32.7501
12:49:59.537,-3.625,-31.5626
12:49:59.542,-3.625,-32.8126
12:49:59.553,-4.0625,-31.8126
12:49:59.561,-4,-30.1251
12:49:59.572,-3.8125,-29.5001
12:49:59.581,-2.3125,-23.5001
12:49:59.591,-2.625,-16.4376
12:49:59.602,-0.4375,-3.4375
12:49:59.613,2.6875,13
12:49:59.622,7.375,29.3126
12:49:59.632,10.4375,42.0627
12:49:59.641,12,46.2502
12:49:59.651,12.1875,49.5002
12:49:59.661,12.25,47.4377
12:49:59.673,12.1875,46.5627
12:49:59.681,11.4375,44.5002
12:49:59.691,11.125,40.4377
12:49:59.701,9.9375,39.5002
12:49:59.733,9.4375,36.2501
12:49:59.735,9.0625,33.2501
12:49:59.737,8.5625,31.0626
12:49:59.744,8.375,28.9376
12:49:59.751,7.5625,27.6876
12:49:59.761,6.8125,23.1876
12:49:59.773,6.5,21.9376
12:49:59.781,6.25,18.6251
12:49:59.791,5.75,16.1876
12:49:59.801,4.8125,13.8751
12:49:59.814,4.625,11.6875
12:49:59.822,3.4375,10.1875
12:49:59.831,4,9.5
12:49:59.842,3.8125,8
12:49:59.851,2.6875,7.625
12:49:59.862,3.1875,7.9375
12:49:59.871,3.6875,7.25
12:49:59.883,3.5625,6.75
12:49:59.892,2.6875,7.0625
12:49:59.902,2.5,5.9375
12:49:59.911,2.625,3
12:49:59.921,2.125,2.25
12:49:59.932,2.125,-0.1875
12:49:59.942,1.1875,-1.25
12:49:59.959,0.875,-3.75
12:49:59.973,0.9375,-6.5625
12:49:59.975,0.125,-8.25
12:49:59.991,0.25,-10
12:50:00.007,-0.125,-12.9375
12:50:00.008,-1.3125,-15.6251
12:50:00.011,-1.25,-17.1251
12:50:00.042,-1.9375,-17.6251
12:50:00.043,-0.8125,-19.8126
12:50:00.045,-1.25,-21.3751
12:50:00.053,-2.5,-21.8126
12:50:00.075,-2.5625,-22.9376
12:50:00.078,-2.25,-24.1876
12:50:00.107,-2.6875,-25.7501
12:50:00.109,-2.9375,-26.9376
12:50:00.111,-3.5625,-26.0626
12:50:00.114,-2.6875,-26.6251
12:50:00.143,-3.0625,-27.1251
12:50:00.145,-2.5625,-26.4376
12:50:00.148,-2.125,-28.1876
12:50:00.154,-2.9375,-27.1876
12:50:00.162,-2.4375,-27.4376
12:50:00.183,-2.1875,-28.2501
12:50:00.186,-1.875,-27.8751
12:50:00.192,-2.375,-28.5626
12:50:00.201,-2.9375,-28.6251
12:50:00.212,-2.5625,-29.0626
12:50:00.222,-2.75,-28.6251
12:50:00.232,-1.25,-28.5626
12:50:00.242,-2.1875,-27.5001
12:50:00.253,-2.3125,-27.8126
12:50:00.263,-2.4375,-28.0626
12:50:00.271,-1.9375,-26.7501
12:50:00.288,-1.5,-27.0626
12:50:00.294,-1.625,-27.3126
12:50:00.302,-2.6875,-28.3126
12:50:00.311,-1.875,-26.2501
12:50:00.323,-1.875,-27.3126
12:50:00.331,-1.75,-25.8751
12:50:00.343,-1.8125,-27.5001
12:50:00.351,-2.625,-26.8751
12:50:00.362,-2.5625,-28.0001
12:50:00.371,-2.625,-27.1876
12:50:00.381,-2,-26.8751
12:50:00.391,-2.6875,-25.5001
12:50:00.401,-2.8125,-26.5001
12:50:00.413,-3.0625,-26.5626
12:50:00.421,-2.75,-26.7501
12:50:00.432,-2.9375,-28.0001
12:50:00.441,-2.75,-25.7501
12:50:00.463,-3.375,-26.4376
12:50:00.469,-3.3125,-23.4376
12:50:00.477,-2.1875,-18.8751
12:50:00.483,-1.6875,-11
12:50:00.500,0.0625,0.4375
12:50:00.502,2.25,13.8751
12:50:00.517,5.875,27.6876
12:50:00.523,7.9375,36.3751
12:50:00.531,9.4375,40.7502
12:50:00.541,9.3125,42.0002
12:50:00.552,8.9375,41.1252
12:50:00.563,8.875,38.8751
12:50:00.571,7.875,36.5001
12:50:00.581,8.0625,32.8751
12:50:00.594,7,30.6876
12:50:00.601,6.6875,27.2501
12:50:00.612,5.9375,26.5626
12:50:00.622,5.875,24.2501
12:50:00.632,5.5,20.5001
12:50:00.642,5,17.9376
12:50:00.654,4.5,15.7501
12:50:00.662,4.4375,12.8125
12:50:00.671,3.3125,10.3125
12:50:00.681,3.1875,8.0625
12:50:00.700,3.25,7.4375
12:50:00.702,2.125,4.9375
12:50:00.731,1.625,5
12:50:00.733,2.125,4.375
12:50:00.735,2,3.75
12:50:00.744,1.5625,3.1875
12:50:00.769,0.5,3.5
12:50:00.771,1.8125,2.1875
12:50:00.773,1.1875,1
12:50:00.805,1.375,2
12:50:00.808,1.75,0.5625
12:50:00.809,0.9375,-1.375
12:50:00.815,0.625,-2.8125
12:50:00.841,0.1875,-3.375
12:50:00.844,0.75,-6
12:50:00.847,0.1875,-8.4375
12:50:00.877,-0.3125,-10.375
12:50:00.877,-1,-11
12:50:00.877,-0.3125,-12.875
12:50:00.884,-0.4375,-14.4376
12:50:00.894,-1.25,-16.4376
12:50:00.901,-1.5625,-16.5626
12:50:00.912,-1.5625,-17.8126
12:50:00.922,-1.1875,-18.7501
12:50:00.932,-1.1875,-19.9376
12:50:00.942,-2,-20.1251
12:50:00.953,-2.5,-20.6251
12:50:00.962,-1.6875,-22.1251
12:50:00.972,-1.8125,-22.1251
12:50:00.982,-2.125,-21.5626
12:50:01.013,-1.125,-22.5001
12:50:01.015,-2.25,-23.3126
12:50:01.017,-2.4375,-22.2501
12:50:01.022,-2.125,-23.5001
12:50:01.038,-2.1875,-23.0626
12:50:01.043,-2.125,-24.1876
12:50:01.052,-2.8125,-22.9376
12:50:01.061,-1.5625,-24.3126
12:50:01.072,-2.5,-23.5001
12:50:01.081,-2.375,-24.0626
12:50:01.092,-2.4375,-23.8751
12:50:01.101,-2.6875,-24.6251
12:50:01.112,-2.875,-24.3126
12:50:01.123,-2.5625,-24.1251
12:50:01.133,-2.375,-25.0001
12:50:01.142,-2.1875,-23.6876
12:50:01.152,-2.4375,-24.7501
12:50:01.163,-2.125,-24.2501
12:50:01.172,-1.375,-23.8126
12:50:01.182,-1.9375,-23.2501
12:50:01.191,-1.75,-23.6251
12:50:01.202,-2,-24.2501
12:50:01.212,-2,-23.5001
12:50:01.222,-1.75,-23.5001
12:50:01.231,-2.25,-22.6876
12:50:01.241,-1.75,-21.6251
12:50:01.253,-2.375,-17.7501
12:50:01.261,-1.125,-12.8125
12:50:01.281,-0.6875,-4.75
12:50:01.283,1,4.1875
12:50:01.298,3.125,16.4376
12:50:01.314,6.0625,27.7501
12:50:01.316,8.1875,35.0626
12:50:01.325,9.5,40.3752
12:50:01.333,10,40.3127
12:50:01.342,10,40.1877
12:50:01.351,9.3125,37.3751
12:50:01.363,8.25,34.6251
12:50:01.373,8.375,31.5626
12:50:01.392,7.1875,27.9376
12:50:01.395,6.9375,24.6876
12:50:01.412,5.625,21.0001
12:50:01.414,5.0625,17.7501
12:50:01.440,4.25,14.4376
12:50:01.443,3.5625,11.875
12:50:01.445,3.375,7.8125
12:50:01.474,2.4375,4.75
12:50:01.478,1.4375,3.25
12:50:01.481,1.125,1.4375
12:50:01.486,1.3125,-0.0625
12:50:01.494,1.4375,-1.25
12:50:01.529,0.8125,-0.6875
12:50:01.530,1.5,-0.75
12:50:01.532,0.9375,-0.9375
12:50:01.537,0.5625,0.375
12:50:01.566,0.8125,0.4375
12:50:01.569,1.9375,0.0625
12:50:01.571,0.75,-1.125
12:50:01.578,0.4375,-2.3125
12:50:01.585,0.375,-1.9375
12:50:01.595,0.875,-3.375
12:50:01.603,0.625,-5.875
12:50:01.612,-0.375,-5.25
12:50:01.622,-0.0625,-8.5625
12:50:01.633,0.1875,-10.125
12:50:01.643,-0.875,-12.375
12:50:01.652,-1.3125,-12.0625
12:50:01.662,-0.375,-14.5626
12:50:01.671,-1.125,-15.8126
12:50:01.683,-1.0625,-16.1876
12:50:01.691,-0.3125,-17.5001
12:50:01.702,-1.9375,-18.8751
12:50:01.712,-1,-18.5001
12:50:01.724,-1.1875,-19.5001
12:50:01.732,-1.9375,-20.6251
12:50:01.743,-2.0625,-20.2501
12:50:01.751,-2.5625,-21.6251
12:50:01.762,-1.9375,-20.2501
12:50:01.772,-2.25,-21.7501
12:50:01.794,-2.5,-21.1251
12:50:01.797,-2.1875,-22.3751
12:50:01.806,-1.625,-21.0626
12:50:01.812,-2.1875,-21.6876
12:50:01.828,-1.5625,-22.3751
12:50:01.836,-1.6875,-21.8126
12:50:01.844,-2.125,-21.2501
12:50:01.853,-1.6875,-21.4376
12:50:01.861,-1.5625,-21.6251
12:50:01.872,-1.375,-20.6876
12:50:01.883,-1.75,-21.3126
12:50:01.892,-1.375,-22.1251
12:50:01.902,-2.125,-21.6876
12:50:01.911,-1.25,-21.8126
12:50:01.922,-2,-22.1876
12:50:01.932,-2.25,-21.0001
12:50:01.943,-2.3125,-22.2501
12:50:01.952,-2.125,-22.4376
12:50:01.966,-1.8125,-19.7501
12:50:01.972,-1.3125,-15.0001
12:50:01.983,-0.875,-8.75
12:50:01.991,0.6875,0.5
12:50:02.001,1.75,9.875
12:50:02.012,4.375,20.5626
12:50:02.023,6.8125,28.6876
12:50:02.031,7.9375,35.0001
12:50:02.043,9.4375,35.8751
12:50:02.052,8.5625,36.1876
12:50:02.063,8.4375,35.1251
12:50:02.072,8.875,33.0626
12:50:02.082,8,31.3126
12:50:02.093,8.25,28.8126
12:50:02.102,6.9375,27.1251
12:50:02.111,6.625,24.6251
12:50:02.123,5.6875,21.8751
12:50:02.133,5.125,18.3751
12:50:02.141,4.875,15.7501
12:50:02.152,4.625,12.75
12:50:02.162,3.125,9.5625
12:50:02.190,3.1875,8.125
12:50:02.193,2.8125,6.4375
12:50:02.199,3.5625,4.4375
12:50:02.203,2.375,2.5625
12:50:02.233,2.0625,2.625
12:50:02.235,2.6875,2.6875
12:50:02.237,1.75,1.75
12:50:02.245,1.625,0.8125
12:50:02.269,1,1.4375
12:50:02.282,1.625,1.125
12:50:02.286,1.375,0.625
12:50:02.298,0.625,0.375
12:50:02.300,1.75,-0.9375
12:50:02.302,0.8125,-2.3125
12:50:02.336,0.5,-3.5625
12:50:02.338,0.875,-3.5625
12:50:02.342,-0.1875,-5.25
12:50:02.343,0.4375,-6.75
12:50:02.357,0,-8.875
12:50:02.363,-0.375,-9.875
12:50:02.371,-0.25,-10.4375
12:50:02.383,-0.8125,-13.3126
12:50:02.391,0.125,-14.0001
12:50:02.401,-1.125,-15.5001
12:50:02.412,-1.375,-15.9376
12:50:02.421,-0.625,-16.0001
12:50:02.433,-0.625,-17.7501
12:50:02.443,-0.9375,-19.1251
12:50:02.453,-1.5625,-19.6251
12:50:02.462,-1.6875,-18.9376
12:50:02.471,-1.5625,-20.3751
12:50:02.484,-1.8125,-19.1876
12:50:02.493,-1.125,-20.6251
12:50:02.501,-2.3125,-20.8126
12:50:02.512,-1.5625,-20.9376
12:50:02.521,-2.6875,-22.0001
12:50:02.532,-2.25,-21.8126
12:50:02.541,-2.8125,-22.8126
12:50:02.553,-2.0625,-22.5001
12:50:02.562,-2.9375,-22.0001
12:50:02.572,-2.625,-21.8751
12:50:02.582,-2.5,-23.2501
12:50:02.601,-2.9375,-23.4376
12:50:02.603,-3,-22.0001
12:50:02.617,-2.75,-22.9376
12:50:02.634,-2.5,-22.0626
12:50:02.635,-2.9375,-22.8751
12:50:02.644,-2.3125,-23.2501
12:50:02.651,-2.25,-22.6251
12:50:02.662,-2.625,-22.3751
12:50:02.672,-2.5625,-23.0001
12:50:02.684,-2.3125,-22.9376
12:50:02.693,-3.0625,-21.6251
12:50:02.702,-2.6875,-22.5001
12:50:02.711,-3.0625,-19.3126
12:50:02.723,-2.0625,-13.0625
12:50:02.732,-1.6875,-5.875
12:50:02.742,0.5625,7
12:50:02.753,4,20.0626
12:50:02.762,6.5625,32.9376
12:50:02.771,8.875,42.8752
12:50:02.781,9.9375,46.0002
12:50:02.792,10.5625,45.7502
12:50:02.801,10.75,47.2502
12:50:02.837,10.9375,45.1252
12:50:02.838,10.875,43.6252
12:50:02.842,10,41.7502
12:50:02.850,10.1875,39.6877
12:50:02.857,9.5625,39.2502
12:50:02.868,9.8125,39.3127
12:50:02.877,9.375,37.9376
12:50:02.888,8.3125,35.7501
12:50:02.897,8.8125,33.2501
12:50:02.908,7.1875,31.4376
12:50:02.917,6.75,29.8751
12:50:02.945,7.0625,27.3751
12:50:02.947,6.5625,24.0626
12:50:02.950,5.6875,21.5001
12:50:02.956,4.625,20.8751
12:50:03.000,4.9375,19.0001
12:50:03.002,4.75,17.5001
12:50:03.004,4.5,14.9376
12:50:03.013,3.875,14.9376
12:50:03.015,4.1875,15.4376
12:50:03.020,3.6875,15.5001
12:50:03.048,4.25,14.5001
12:50:03.050,3.8125,15.1251
12:50:03.052,3.6875,13.3751
12:50:03.057,3.625,10.625
12:50:03.090,2.9375,10.4375
12:50:03.092,2.4375,8.4375
12:50:03.093,2.9375,6.5
12:50:03.112,1.875,3.4375
12:50:03.115,1.5625,2.75
12:50:03.129,1.5625,0.25
12:50:03.132,0.9375,-2.8125
12:50:03.140,0.5,-5.5
12:50:03.147,-0.1875,-5.8125
12:50:03.156,-0.6875,-7.0625
12:50:03.166,-0.75,-9.6875
12:50:03.176,-0.75,-12.1875
12:50:03.187,-1.0625,-13.3751
12:50:03.198,-1.875,-14.7501
12:50:03.206,-1.625,-16.1876
12:50:03.217,-2.0625,-18.1876
12:50:03.226,-2.25,-18.5626
12:50:03.237,-2.75,-19.4376
12:50:03.246,-2.75,-20.6251
12:50:03.257,-3.3125,-22.1876
12:50:03.266,-3.5,-22.1251
12:50:03.278,-3.75,-22.3126
12:50:03.288,-3.5,-23.4376
12:50:03.297,-4.0625,-24.6876
12:50:03.306,-4,-25.3126
12:50:03.317,-3.4375,-25.1251
12:50:03.328,-4.125,-25.3126
12:50:03.337,-3.4375,-26.5626
12:50:03.347,-4.3125,-26.8126
12:50:03.359,-4.375,-25.9376
12:50:03.368,-4.125,-27.8751
12:50:03.377,-4.4375,-26.5626
12:50:03.387,-4.125,-27.6876
12:50:03.397,-4.875,-27.4376
12:50:03.408,-4,-28.5001
12:50:03.417,-4.75,-26.8126
12:50:03.428,-4.125,-28.4376
12:50:03.437,-4.5625,-26.7501
12:50:03.447,-4.1875,-27.9376
12:50:03.457,-4.5625,-26.2501
12:50:03.469,-3.8125,-25.3126
12:50:03.477,-3.5,-18.7501
12:50:03.486,-2.6875,-11.625
12:50:03.498,-1,1.125
12:50:03.508,2.3125,17.8126
12:50:03.516,6.6875,33.1251
12:50:03.526,9.8125,45.1877
12:50:03.538,11.375,49.1877
12:50:03.546,11.5625,52.7502
12:50:03.573,11.75,52.1877
12:50:03.576,12.25,52.3752
12:50:03.577,11.875,50.0627
12:50:03.588,11.875,49.4377
12:50:03.598,10.8125,47.3127
12:50:03.607,10.6875,46.4377
12:50:03.616,10.875,45.1252
12:50:03.627,10.75,44.5002
12:50:03.637,10.125,44.0627
12:50:03.646,9.75,41.9377
12:50:03.683,9.4375,38.7501
12:50:03.683,9.0625,37.8126
12:50:03.686,9.3125,34.5626
12:50:03.688,7.9375,30.7501
12:50:03.721,6.6875,28.0001
12:50:03.724,6.25,27.1251
12:50:03.725,5.625,25.0626
12:50:03.727,6.0625,22.7501
12:50:03.761,5.125,21.6251
12:50:03.762,5,20.0001
12:50:03.766,4.9375,19.5001
12:50:03.797,3.75,18.5626
12:50:03.798,4.375,18.3126
12:50:03.800,4.125,17.0001
12:50:03.807,3.5625,16.8751
12:50:03.811,3.9375,15.2501
12:50:03.836,3.5,13.1251
12:50:03.838,3.5,13
12:50:03.840,3.4375,10.3125
12:50:03.847,2.125,7.4375
12:50:03.862,1.25,6.75
12:50:03.869,1.6875,3.6875
12:50:03.877,1.4375,1.125
12:50:03.887,0.8125,-1.875
12:50:03.902,-0.375,-2.3125
12:50:03.907,-0.3125,-6.4375
12:50:03.921,-0.125,-8.375
12:50:03.930,-1.0625,-10.375
12:50:03.937,-1.375,-12.8125
12:50:03.948,-2.375,-14.1876
12:50:03.957,-2.8125,-15.7501
12:50:03.968,-2.9375,-17.1251
12:50:03.979,-2.6875,-19.3751
12:50:03.987,-3.3125,-21.3751
12:50:03.997,-3.8125,-21.6251
12:50:04.008,-3.5,-23.6876
12:50:04.017,-4.0625,-25.3751
12:50:04.027,-4.4375,-25.2501
12:50:04.037,-4.9375,-26.1251
12:50:04.049,-4.5,-26.8126
12:50:04.058,-4.6875,-28.8751
12:50:04.069,-4.6875,-29.6876
12:50:04.077,-4.9375,-30.0626
12:50:04.088,-5.5,-30.6251
12:50:04.098,-6.0625,-30.6876
12:50:04.107,-6.5625,-31.6876
12:50:04.117,-6.0625,-32.3751
12:50:04.127,-6.75,-33.1876
12:50:04.137,-6.625,-33.3126
12:50:04.146,-6.3125,-33.5001
12:50:04.158,-6.625,-32.8751
12:50:04.168,-6.1875,-33.1251
12:50:04.178,-6.125,-33.3751
12:50:04.188,-6.1875,-32.5626
12:50:04.196,-5.875,-33.5626
12:50:04.207,-5.5,-32.6251
12:50:04.218,-5.4375,-32.8126
12:50:04.229,-5.4375,-32.0626
12:50:04.240,-5.0625,-33.0626
12:50:04.248,-5.4375,-31.9376
12:50:04.257,-4.625,-31.3126
12:50:04.267,-4.9375,-31.8126
12:50:04.277,-4.625,-30.6876
12:50:04.286,-5.1875,-31.4376
12:50:04.298,-5.625,-30.4376
12:50:04.308,-5.5,-30.8751
12:50:04.316,-5.5,-29.0626
12:50:04.327,-4.5,-22.1876
12:50:04.336,-3.8125,-14.1251
12:50:04.349,-2.4375,-1.75
12:50:04.357,1.125,13.3751
12:50:04.368,4.125,25.2501
12:50:04.377,6.25,34.7501
12:50:04.417,7.75,38.5626
12:50:04.418,8.1875,41.2502
12:50:04.448,7.9375,41.2502
12:50:04.480,8.3125,39.8127
12:50:04.481,7.625,39.3127
12:50:04.487,7.75,37.9376
12:50:04.489,8.0625,37.0001
12:50:04.489,7.25,36.1876
12:50:04.505,7.3125,35.2501
12:50:04.508,7.625,35.3126
12:50:04.537,7,32.2501
12:50:04.538,6.75,31.6251
12:50:04.542,5.9375,28.3751
12:50:04.548,5.125,27.4376
12:50:04.562,4.5625,23.1876
12:50:04.567,4.25,21.0001
12:50:04.577,3.375,18.7501
12:50:04.587,2.8125,17.8126
12:50:04.598,2.375,16.1876
12:50:04.611,2.6875,14.7501
12:50:04.618,2.625,14.3126
12:50:04.626,1.9375,14.0626
12:50:04.638,1.5625,13.3126
12:50:04.648,1.75,12.0625
12:50:04.656,0.8125,8.25
12:50:04.667,0.5,6.3125
12:50:04.678,0.4375,5.5625
12:50:04.688,-0.25,2.3125
12:50:04.696,-1.0625,1.125
12:50:04.707,-1.375,-1
12:50:04.716,-1.5625,-4
12:50:04.728,-1.8125,-7.1875
12:50:04.737,-2.0625,-8.3125
12:50:04.748,-2.5,-11
12:50:04.757,-3.3125,-13.1876
12:50:04.767,-4,-14.3126
12:50:04.776,-3.875,-16.3751
12:50:04.787,-4.125,-18.0001
12:50:04.797,-4.8125,-19.3751
12:50:04.807,-5.0625,-20.3751
12:50:04.817,-4.3125,-22.6251
12:50:04.827,-5.125,-24.3751
12:50:04.852,-5.4375,-24.4376
12:50:04.855,-5.9375,-24.6876
12:50:04.860,-5.25,-26.2501
12:50:04.867,-6.375,-26.7501
12:50:04.877,-6.0625,-28.1876
12:50:04.886,-6.0625,-27.5626
12:50:04.896,-5.875,-28.5626
12:50:04.907,-6.3125,-28.3751
12:50:04.916,-6,-30.6251
12:50:04.928,-7.0625,-30.3126
12:50:04.940,-6.3125,-31.7501
12:50:04.947,-7.0625,-31.8126
12:50:04.957,-6.25,-30.9376
12:50:04.967,-6.625,-32.3751
12:50:04.978,-6.5625,-31.5626
12:50:04.989,-6.8125,-33.0626
12:50:04.997,-6.25,-31.3126
12:50:05.006,-6.75,-33.1876
12:50:05.017,-6.8125,-32.4376
12:50:05.027,-6.0625,-32.0001
12:50:05.037,-6.875,-32.5001
12:50:05.048,-6,-32.4376
12:50:05.058,-6.1875,-32.6876
12:50:05.068,-5.9375,-31.7501
12:50:05.078,-6.3125,-33.1251
12:50:05.087,-6.8125,-32.9376
12:50:05.116,-6.625,-31.1251
12:50:05.118,-5.9375,-30.7501
12:50:05.120,-4.8125,-25.7501
12:50:05.128,-4.5,-19.7501
12:50:05.152,-3.5625,-9.3125
12:50:05.154,-0.5625,5.125
12:50:05.156,2.8125,21.3126
12:50:05.189,6.3125,33.9376
12:50:05.192,8.1875,42.3127
12:50:05.222,9.3125,45.7502
12:50:05.257,9.6875,46.1252
12:50:05.277,9.1875,46.8127
12:50:05.277,9.5,43.0627
12:50:05.278,8.4375,41.1877
12:50:05.281,7.875,39.3126
12:50:05.286,7.5,36.6876
12:50:05.289,7.75,36.6251
12:50:05.289,7.25,33.8751
12:50:05.292,7.0625,33.0001
12:50:05.301,7.125,30.6251
12:50:05.311,5.375,28.9376
12:50:05.322,5.25,26.0001
12:50:05.332,5,22.2501
12:50:05.341,3.75,19.8751
12:50:05.353,3.75,18.6251
12:50:05.362,4,16.1251
12:50:05.372,2.8125,15.0626
12:50:05.383,2.9375,14.1251
12:50:05.392,2.5,13.0625
12:50:05.402,2.6875,13.7501
12:50:05.412,2.3125,14.6251
12:50:05.422,2.875,13.5626
12:50:05.431,2.8125,13.3126
12:50:05.443,2.375,12.1875
12:50:05.453,1.5,10.25
12:50:05.462,1.5,8.875
12:50:05.472,1.75,6.1875
12:50:05.482,0.6875,3.5625
12:50:05.493,-0.3125,1.875
12:50:05.502,0.4375,0.125
12:50:05.513,0.125,-3.0625
12:50:05.522,-0.75,-6.0625
12:50:05.531,-1.3125,-6.125
12:50:05.543,-1.25,-8.9375
12:50:05.553,-2.5,-11.8125
12:50:05.562,-2.125,-13.3126
12:50:05.572,-2.8125,-13.7501
12:50:05.583,-2.0625,-16.5001
12:50:05.591,-3.3125,-18.0626
12:50:05.602,-3.75,-19.6251
12:50:05.611,-3.125,-19.1251
12:50:05.622,-3.75,-20.1251
12:50:05.633,-4,-22.0626
12:50:05.642,-4.625,-23.3126
12:50:05.652,-4.5625,-23.1251
12:50:05.662,-3.625,-24.6876
12:50:05.672,-4.9375,-25.6876
12:50:05.682,-4.5625,-25.9376
12:50:05.692,-5.75,-26.8126
12:50:05.702,-4.625,-27.6876
12:50:05.712,-5.125,-28.1251
12:50:05.738,-5.625,-29.1876
12:50:05.752,-5.5,-30.0001
12:50:05.757,-6.3125,-29.7501
12:50:05.769,-6.0625,-32.0001
12:50:05.771,-6.5625,-30.6251
12:50:05.774,-6.375,-32.5001
12:50:05.782,-6.75,-32.4376
12:50:05.793,-7.125,-32.6251
12:50:05.802,-7,-33.0626
12:50:05.812,-6.5625,-32.3126
12:50:05.822,-6.5,-29.5001
12:50:05.832,-6.125,-24.2501
12:50:05.843,-5.125,-16.9376
12:50:05.871,-2.125,-4.5625
12:50:05.875,0.625,9.75
12:50:05.875,4.125,24.5626
12:50:05.907,7.3125,35.0001
12:50:05.910,8.125,41.9377
12:50:05.912,9.1875,43.9377
12:50:05.915,9.875,44.0627
12:50:05.949,8.875,43.1877
12:50:05.950,8.4375,41.0627
12:50:05.953,7.5625,40.0627
12:50:05.958,7.3125,36.2501
12:50:05.964,7.125,33.7501
12:50:05.999,6.5,32.4376
12:50:06.000,5.625,30.5001
12:50:06.002,5.4375,27.8126
12:50:06.005,5.1875,25.0001
12:50:06.035,4.625,22.6251
12:50:06.036,3.9375,19.3751
12:50:06.039,3.0625,16.8751
12:50:06.046,3.125,13.7501
12:50:06.052,2,10.8125
12:50:06.062,1.3125,8.75
12:50:06.074,0.8125,7.9375
12:50:06.082,1.4375,7.5
12:50:06.091,0.5,6.4375
12:50:06.103,0.6875,7.375
12:50:06.135,0.875,8.375
12:50:06.136,1.5625,7.5625
12:50:06.141,0.5625,6.25
12:50:06.146,0.1875,6.25
12:50:06.154,-0.125,4.9375
12:50:06.164,0.0625,3.6875
12:50:06.172,-0.125,1.8125
12:50:06.183,-0.6875,0
12:50:06.193,-0.9375,-1.5625
12:50:06.202,-1,-2.875
12:50:06.212,-0.8125,-6.125
12:50:06.222,-1.6875,-8.5625
12:50:06.233,-2.6875,-11.5
12:50:06.243,-3.25,-12.0625
12:50:06.253,-2.9375,-14.8126
12:50:06.262,-3.25,-17.6876
12:50:06.273,-3.375,-17.9376
12:50:06.281,-4.5,-20.2501
12:50:06.292,-4.375,-21.4376
12:50:06.302,-4.625,-23.5626
12:50:06.312,-5.125,-24.0626
12:50:06.322,-4.875,-25.3751
12:50:06.332,-5.375,-26.8126
12:50:06.342,-5.5,-26.8126
12:50:06.351,-5.5,-27.5626
12:50:06.362,-5.625,-29.3751
12:50:06.371,-4.625,-29.3751
12:50:06.383,-5.3125,-31.0626
12:50:06.393,-5.3125,-30.6251
12:50:06.403,-5.8125,-31.6876
12:50:06.411,-5.625,-30.5626
12:50:06.422,-6.1875,-33.0626
12:50:06.432,-6.25,-32.5001
12:50:06.444,-5.625,-33.0001
12:50:06.452,-6.0625,-32.6876
12:50:06.463,-5.25,-32.3751
12:50:06.472,-5.8125,-32.7501
12:50:06.487,-5.9375,-32.6876
12:50:06.493,-6.125,-33.5001
12:50:06.502,-6.0625,-33.4376
12:50:06.512,-5.6875,-34.2501
12:50:06.522,-6.3125,-32.7501
12:50:06.539,-6.5,-34.3126
12:50:06.542,-6,-34.9376
12:50:06.557,-6.1875,-34.3751
12:50:06.563,-5.75,-33.1876
12:50:06.571,-5.5,-33.7501
12:50:06.602,-5.9375,-34.2501
12:50:06.604,-5.5625,-33.5626
12:50:06.607,-5.6875,-34.0001
12:50:06.612,-5.8125,-33.6876
12:50:06.650,-5,-33.6251
12:50:06.652,-6.25,-33.3126
12:50:06.654,-5.6875,-30.4376
12:50:06.656,-5.5,-24.1251
12:50:06.663,-3.3125,-14.3126
12:50:06.696,-1.375,-0.375
12:50:06.699,3.125,17.7501
12:50:06.701,7.3125,36.5001
12:50:06.703,10.3125,49.6252
12:50:06.736,12.25,54.6877
12:50:06.737,13.5001,58.0627
12:50:06.740,13.5626,59.1252
12:50:06.742,12.8125,58.4377
12:50:06.763,13.1251,56.9377
12:50:06.765,12.9375,55.1252
12:50:06.774,12.75,53.9377
12:50:06.782,12.0625,51.9377
12:50:06.791,12.0625,50.3752
12:50:06.802,11.6875,49.8752
12:50:06.811,12.125,50.2502
12:50:06.823,11.5625,48.7502
12:50:06.831,11.5625,48.2502
12:50:06.842,11.3125,45.4377
12:50:06.851,10.75,42.4377
12:50:06.867,9.9375,41.0002
12:50:06.877,9.9375,36.5001
12:50:06.887,8.4375,34.1251
12:50:06.898,8.375,31.8751
12:50:06.907,7.375,30.3751
12:50:06.917,7.9375,29.0626
12:50:06.928,7.125,27.6251
12:50:06.938,8.0625,27.7501
12:50:06.948,6.875,27.0626
12:50:06.957,6.5625,26.8126
12:50:06.966,6.25,25.6251
12:50:06.977,6.875,24.2501
12:50:06.987,5.5,23.2501
12:50:06.996,5.5625,21.4376
12:50:07.008,4.9375,19.8751
12:50:07.017,4.25,16.5626
12:50:07.036,2.4375,13.125
12:50:07.042,2.1875,9.875
12:50:07.059,2.3125,7.3125
12:50:07.062,1.6875,4.3125
12:50:07.067,1.125,1.375
12:50:07.078,0.3125,-1.125
12:50:07.088,0.75,-3.6875
12:50:07.096,-0.6875,-6.75
12:50:07.107,-1.3125,-8.4375
12:50:07.116,-1.9375,-10.4375
12:50:07.128,-1.9375,-13.5001
12:50:07.138,-3.0625,-16.1251
12:50:07.148,-3.375,-16.8126
12:50:07.156,-3.0625,-18.5626
12:50:07.167,-3.375,-21.0626
12:50:07.176,-3.5625,-20.6876
12:50:07.188,-4.25,-23.1251
12:50:07.197,-4.375,-23.8751
12:50:07.207,-4.9375,-23.7501
12:50:07.217,-4.625,-26.0001
12:50:07.257,-4.5625,-27.1876
12:50:07.257,-4.8125,-27.7501
12:50:07.257,-5.375,-27.1876
12:50:07.260,-5.125,-29.1876
12:50:07.296,-5.6875,-29.1876
12:50:07.297,-5.25,-31.1251
12:50:07.300,-6.1875,-29.9376
12:50:07.302,-6.125,-32.8751
12:50:07.308,-6.375,-32.8751
12:50:07.344,-6.4375,-33.7501
12:50:07.345,-6.1875,-33.0626
12:50:07.348,-6.5,-34.3126
12:50:07.350,-6.8125,-35.3751
12:50:07.384,-6,-34.6251
12:50:07.385,-6.8125,-36.3751
12:50:07.387,-6.625,-36.5001
12:50:07.414,-6.8125,-36.5001
12:50:07.417,-7,-35.8751
12:50:07.421,-7.25,-37.0001
12:50:07.421,-6.75,-36.0626
12:50:07.428,-7.0625,-37.1251
12:50:07.444,-7.125,-36.6251
12:50:07.448,-7.125,-36.8751
12:50:07.457,-6.125,-35.6251
12:50:07.467,-6.6875,-37.0001
12:50:07.479,-6.25,-36.2501
12:50:07.488,-6.75,-36.5626
12:50:07.497,-6.1875,-34.3126
12:50:07.507,-5.9375,-29.3126
12:50:07.517,-5.0625,-19.9376
12:50:07.526,-2.1875,-6.5
12:50:07.537,1.125,11.5625
12:50:07.547,5.8125,30.8126
12:50:07.558,9.625,44.3752
12:50:07.567,11.3125,52.0627
12:50:07.578,12.375,55.1877
12:50:07.587,12.25,55.8127
12:50:07.596,12.1875,56.4377
12:50:07.607,12.625,54.8127
12:50:07.616,11.5625,52.9377
12:50:07.628,11.4375,50.8127
12:50:07.638,10.75,50.3127
12:50:07.647,11.5625,50.4377
12:50:07.657,11.0625,49.1252
12:50:07.667,11.4375,49.1252
12:50:07.677,10.3125,48.3752
12:50:07.686,10.3125,46.8127
12:50:07.698,9.5,44.1252
12:50:07.708,9.375,42.6252
12:50:07.717,9.1875,39.8127
12:50:07.728,7.9375,36.6876
12:50:07.736,7.875,33.1876
12:50:07.747,6.375,30.2501
12:50:07.758,6,27.9376
12:50:07.768,5.1875,24.4376
12:50:07.778,4.6875,24.1251
12:50:07.787,5.0625,22.4376
12:50:07.798,4.5625,22.6251
12:50:07.807,5.1875,22.2501
12:50:07.821,4.8125,22.6876
12:50:07.836,5,21.0626
12:50:07.838,4.25,20.0626
12:50:07.853,3.9375,18.7501
12:50:07.858,3.5,16.3126
12:50:07.866,2.5,13.8126
12:50:07.877,2.0625,13.0625
12:50:07.888,1.3125,10.0625
12:50:07.897,1.875,7.25
12:50:07.908,0.75,4.6875
12:50:07.917,0.5,2.3125
12:50:07.928,-0.5,-1.75
12:50:07.937,-1.1875,-3.75
12:50:07.968,-1.625,-6.6875
12:50:07.972,-1.9375,-8.6875
12:50:07.973,-3.0625,-10.8125
12:50:07.979,-3.0625,-12.1875
12:50:08.005,-3.375,-15.6876
12:50:08.008,-3.5625,-17.8751
12:50:08.010,-4.0625,-19.4376
12:50:08.019,-4.625,-20.4376
12:50:08.059,-4.0625,-21.6876
12:50:08.060,-5.3125,-24.0626
12:50:08.065,-5.25,-23.7501
12:50:08.066,-5.25,-25.1251
12:50:08.067,-5.75,-27.3126
12:50:08.096,-5.6875,-27.8126
12:50:08.097,-5.6875,-28.5001
12:50:08.100,-6.3125,-29.3751
12:50:08.131,-6.1875,-30.5626
12:50:08.132,-6.3125,-31.8751
12:50:08.135,-6.0625,-32.0626
12:50:08.140,-7.0625,-32.8751
12:50:08.148,-6.4375,-34.1876
12:50:08.157,-6.125,-34.8126
12:50:08.168,-6.5625,-35.1876
12:50:08.177,-6.1875,-35.7501
12:50:08.192,-6.3125,-36.0626
12:50:08.197,-7.0625,-36.0626
12:50:08.207,-6.5625,-36.3126
12:50:08.217,-7.1875,-36.8751
12:50:08.227,-7.3125,-37.0001
12:50:08.237,-6.5625,-38.1876
12:50:08.246,-7,-37.7501
12:50:08.258,-6.8125,-37.0001
12:50:08.268,-7.3125,-37.9376
12:50:08.277,-6.6875,-37.2501
12:50:08.287,-6.5625,-38.0001
12:50:08.297,-5.5,-36.6251
12:50:08.307,-5.6875,-36.5626
12:50:08.317,-5.0625,-36.7501
12:50:08.338,-3.5,-34.0001
12:50:08.344,-0.9375,-30.6876
12:50:08.359,2.8125,-26.9376
12:50:08.362,4.3125,-22.3126
12:50:08.368,6.5,-20.6251
12:50:08.377,9.6875,-16.2501
12:50:08.387,10.5,-14.5626
12:50:08.396,11.75,-12.9375
12:50:08.408,11.9375,-12.0625
12:50:08.417,11.875,-12.9375
12:50:08.428,12.625,-9.5
12:50:08.438,16.0001,-4.75
12:50:08.447,19.2501,5
12:50:08.457,23.9376,19.3126
12:50:08.467,26.2501,36.1876
12:50:08.477,31.4376,58.3752
12:50:08.488,37.5001,83.0628
12:50:08.497,41.3127,99.7504
12:50:08.508,43.5002,110.1254
12:50:08.517,45.8127,117.1879
12:50:08.528,45.5627,120.188
12:50:08.537,44.3752,119.813
12:50:08.547,43.1877,117.8755
12:50:08.557,42.1252,115.3129
12:50:08.573,40.9377,112.4379
12:50:08.577,40.0002,111.1879
12:50:08.588,39.5002,109.8129
12:50:08.597,39.6877,110.0629
12:50:08.608,39.0001,109.0629
12:50:08.618,38.7501,107.0629
12:50:08.627,38.1876,107.6879
12:50:08.638,37.1251,104.5629
12:50:08.647,36.0626,102.1879
12:50:08.658,34.8126,98.5629
12:50:08.668,33.0626,95.5629
12:50:08.693,31.6876,90.8754
12:50:08.695,30.3751,87.9378
12:50:08.697,29.5001,84.0003
12:50:08.707,27.8751,81.2503
12:50:08.719,27.6251,79.1253
12:50:08.752,26.6876,77.6253
12:50:08.754,25.2501,75.3128
12:50:08.756,25.0626,72.8128
12:50:08.759,23.0001,71.3128
12:50:08.795,22.5001,67.2503
12:50:08.799,20.3751,66.0003
12:50:08.799,19.6876,62.2502
12:50:08.806,18.5001,60.2502
12:50:08.812,17.3126,57.3752
12:50:08.817,16.2501,53.1252
12:50:08.851,14.8126,50.8752
12:50:08.852,13.7501,46.6252
12:50:08.858,13,43.6252
12:50:08.859,12.9375,41.7502
12:50:08.897,11,38.0626
12:50:08.899,10.625,35.5626
12:50:08.900,9.625,33.1251
12:50:08.906,8.5,30.5626
12:50:08.906,8.1875,27.2501
12:50:08.917,7.25,23.8126
12:50:08.927,5.6875,21.2501
12:50:08.938,4.8125,16.8126
12:50:08.953,3.9375,14.1876
12:50:08.957,3.375,11.5625
12:50:08.967,1.8125,8.375
12:50:08.977,2.375,6.6875
12:50:08.987,0.9375,4.125
12:50:08.998,1.6875,2.9375
12:50:09.007,0.1875,1.4375
12:50:09.017,-0.875,-0.875
12:50:09.028,-0.875,-3.75
12:50:09.037,-1.9375,-3.875
12:50:09.048,-1.4375,-6
12:50:09.057,-1.0625,-7.3125
12:50:09.067,-1.375,-7.4375
12:50:09.077,-1.5625,-9.5625
12:50:09.088,-1.5,-9.125
12:50:09.098,-0.6875,-11.5
12:50:09.107,-1.625,-12.125
12:50:09.117,-1.5625,-13.3126
12:50:09.133,-2.4375,-13.6876
12:50:09.148,-1.125,-15.2501
12:50:09.150,-1.5,-16.0001
12:50:09.158,-1.875,-16.8751
12:50:09.167,-2.125,-19.0001
12:50:09.177,-2.125,-21.0001
12:50:09.188,-1.5625,-20.2501
12:50:09.197,-1.5,-20.4376
12:50:09.207,-1.3125,-22.6251
12:50:09.217,-1.625,-22.1876
12:50:09.227,-1.6875,-23.0001
12:50:09.238,-1.1875,-23.8751
12:50:09.247,-1.9375,-24.7501
12:50:09.257,-1.625,-26.0001
12:50:09.267,-1.8125,-25.7501
12:50:09.277,-2.375,-25.1251
12:50:09.287,-1.125,-24.4376
12:50:09.297,-0.5625,-19.7501
12:50:09.307,0.4375,-11.375
12:50:09.317,2.25,0.375
12:50:09.329,5.875,16.8126
12:50:09.337,9.5625,31.6876
12:50:09.347,13.0625,43.0002
12:50:09.358,14.5626,50.1252
12:50:09.368,15.5001,53.1252
12:50:09.377,15.3751,55.5627
12:50:09.387,15.9376,54.4377
12:50:09.397,16.2501,54.9377
12:50:09.408,16.1251,52.5627
12:50:09.418,15.8126,52.0002
12:50:09.427,15.1251,49.6252
12:50:09.450,16.2501,48.6877
12:50:09.452,14.8751,47.4377
12:50:09.485,14.4376,45.3127
12:50:09.487,13.7501,45.5002
12:50:09.490,13.4376,43.0627
12:50:09.493,13,41.2502
12:50:09.499,12.875,37.5626
12:50:09.531,11.75,35.1876
12:50:09.536,11.125,31.9376
12:50:09.538,9.9375,30.4376
12:50:09.543,10.375,28.6876
12:50:09.551,9.5,27.9376
12:50:09.576,9.6875,27.5001
12:50:09.578,9.25,26.0626
12:50:09.581,8.6875,27.0001
12:50:09.588,8.875,26.5626
12:50:09.611,9.5,25.8751
12:50:09.614,9.3125,26.6251
12:50:09.618,8.75,25.8751
12:50:09.638,8.25,24.9376
12:50:09.642,8.5625,24.5626
12:50:09.656,8.125,23.9376
12:50:09.660,6.875,21.8126
12:50:09.667,7.0625,19.0626
12:50:09.677,6.125,18.8126
12:50:09.687,6.8125,16.4376
12:50:09.705,6.375,15.3126
12:50:09.707,6.25,14.0001
12:50:09.717,5.625,9.9375
12:50:09.728,5.125,9.0625
12:50:09.737,5.25,7.125
12:50:09.748,4.375,5.125
12:50:09.757,4.25,3.0625
12:50:09.767,2.9375,1.0625
12:50:09.778,1.9375,-0.75
12:50:09.787,2.5,-2.875
12:50:09.797,1.5625,-3.75
12:50:09.808,1.3125,-5.5625
12:50:09.817,1,-6.5
12:50:09.828,0.8125,-7.875
12:50:09.837,0.1875,-8.6875
12:50:09.847,0.875,-11
12:50:09.857,-0.4375,-11.5625
12:50:09.867,-0.1875,-14.6251
12:50:09.878,-0.75,-16.0626
12:50:09.887,-0.8125,-15.8751
12:50:09.897,-1.0625,-17.9376
12:50:09.907,-0.75,-17.7501
12:50:09.917,-1.0625,-19.0001
12:50:09.927,-1.125,-19.7501
12:50:09.937,-1.125,-20.8126
12:50:09.947,-1.4375,-20.6876
12:50:09.974,-1.75,-22.6251
12:50:09.976,-1.9375,-23.0001
12:50:09.978,-2.125,-24.8751
12:50:09.989,-2.0625,-24.3751
12:50:09.997,-2.5,-26.8126
12:50:10.007,-2.5625,-26.4376
12:50:10.018,-2.9375,-28.5001
12:50:10.027,-2.875,-28.4376
12:50:10.038,-3.25,-30.5626
12:50:10.048,-3.25,-30.2501
12:50:10.057,-3.875,-30.8126
12:50:10.067,-3.4375,-32.8126
12:50:10.078,-2.625,-32.6251
12:50:10.088,-3.9375,-33.2501
12:50:10.097,-3.25,-33.7501
12:50:10.107,-3.625,-33.7501
12:50:10.118,-3.1875,-33.4376
12:50:10.127,-3.3125,-30.9376
12:50:10.138,-2.375,-26.1876
12:50:10.147,-0.9375,-16.9376
12:50:10.157,1.625,-6
12:50:10.172,5.125,11.9375
12:50:10.177,8.6875,27.3751
12:50:10.201,11.0625,39.0626
12:50:10.204,12.625,45.4377
12:50:10.207,13.5626,49.2502
12:50:10.248,13.1251,49.0002
12:50:10.251,14.4376,51.0627
12:50:10.252,13.5626,50.8752
12:50:10.256,13.5626,48.1877
12:50:10.263,13.6251,47.4377
12:50:10.270,13.1251,46.1252
12:50:10.296,13,45.3752
12:50:10.300,13.2501,45.1252
12:50:10.301,12.75,44.7502
12:50:10.307,13.2501,44.3127
12:50:10.335,12.375,41.9377
12:50:10.340,12.25,40.6252
12:50:10.340,12,39.8127
12:50:10.349,12.8125,37.6876
12:50:10.357,11.3125,34.0626
12:50:10.368,9.9375,32.6876
12:50:10.378,10.125,29.6251
12:50:10.387,9.5,27.9376
12:50:10.398,10.3125,27.0001
12:50:10.407,8.75,25.3126
12:50:10.427,9.25,24.5626
12:50:10.430,8.3125,24.8126
12:50:10.445,9,23.8751
12:50:10.448,8.4375,23.0001
12:50:10.462,7.9375,22.1876
12:50:10.469,8.125,20.8751
12:50:10.477,7.5,20.0626
12:50:10.487,7.4375,19.0001
12:50:10.498,6.8125,17.5626
12:50:10.507,6.875,15.7501
12:50:10.517,6.25,13.6876
12:50:10.527,5.9375,13.1876
12:50:10.538,5.5625,11.125
12:50:10.548,5.6875,8.5
12:50:10.558,5.1875,5.9375
12:50:10.568,4.375,4.125
12:50:10.577,4.5625,3.25
12:50:10.587,3.75,1.3125
12:50:10.597,3.4375,-0.8125
12:50:10.607,2.8125,-2.6875
12:50:10.618,2.8125,-4.75
12:50:10.627,2.875,-4.25
12:50:10.638,2.1875,-7.5
12:50:10.647,2.625,-8.1875
12:50:10.659,2.1875,-9.4375
12:50:10.668,1.4375,-10.1875
12:50:10.677,2.125,-11.4375
12:50:10.688,1,-12
12:50:10.697,0.1875,-14.4376
12:50:10.707,0.5,-16.5001
12:50:10.717,-0.8125,-17.1876
12:50:10.727,-0.6875,-18.0626
12:50:10.738,-1.1875,-20.6876
12:50:10.747,-0.5,-20.8751
12:50:10.758,-1,-21.9376
12:50:10.767,-0.875,-21.6251
12:50:10.777,-0.875,-23.5001
12:50:10.787,-0.875,-22.5626
12:50:10.797,-0.6875,-25.5626
12:50:10.808,-1.1875,-25.6251
12:50:10.817,-2,-27.1876
12:50:10.827,-1.625,-27.1251
12:50:10.837,-2.5,-29.5626
12:50:10.847,-2.4375,-29.4376
12:50:10.857,-2.5625,-31.5626
12:50:10.872,-2.6875,-31.5001
12:50:10.883,-3,-33.5626
12:50:10.893,-3,-32.7501
12:50:10.902,-3.125,-33.0001
12:50:10.922,-3.4375,-34.7501
12:50:10.966,-3.0625,-34.6251
12:50:10.966,-3.8125,-35.3126
12:50:10.969,-3.8125,-35.0626
12:50:10.975,-3.875,-36.3126
12:50:11.003,-4.0625,-34.8126
12:50:11.003,-3.625,-30.5626
12:50:11.004,-2.8125,-23.5626
12:50:11.006,-0.4375,-12.0625
12:50:11.034,2.4375,3.6875
12:50:11.034,6.625,19.8751
12:50:11.035,8.5,32.3751
12:50:11.038,11.9375,42.7502
12:50:11.043,12.0625,46.5627
12:50:11.076,11.9375,46.6877
12:50:11.080,11.8125,46.9377
12:50:11.081,11.25,45.9377
12:50:11.083,10.625,44.2502
12:50:11.092,10.875,41.9377
12:50:11.103,9.9375,41.3752
12:50:11.112,9.75,40.1877
12:50:11.122,10.25,39.1251
12:50:11.133,9.5,37.5626
12:50:11.143,9.6875,37.6876
12:50:11.152,9.4375,34.8126
12:50:11.162,9.625,34.9376
12:50:11.172,8.6875,33.3126
12:50:11.182,9.25,30.3751
12:50:11.192,9.1875,28.1876
12:50:11.203,8.1875,26.5626
12:50:11.212,7.9375,24.3751
12:50:11.222,7.0625,22.3126
12:50:11.254,7.0625,22.1876
12:50:11.255,7.5625,20.0626
12:50:11.257,7.4375,20.3751
12:50:11.262,7.4375,20.1251
12:50:11.273,6.4375,20.4376
12:50:11.284,6.5,20.0001
12:50:11.293,6.1875,19.7501
12:50:11.303,6.5,17.5626
12:50:11.312,7.25,17.5626
12:50:11.322,7.1875,16.9376
12:50:11.332,6.625,16.2501
12:50:11.342,6.5625,15.3126
12:50:11.352,6.1875,13.3751
12:50:11.362,6.4375,11
12:50:11.372,5.25,8.8125
12:50:11.383,5.5,7.4375
12:50:11.392,4.9375,5.25
12:50:11.402,4.375,3.75
12:50:11.412,4.0625,1.25
12:50:11.422,2.9375,-1.1875
12:50:11.433,2.0625,-4.375
12:50:11.442,2.4375,-5.125
12:50:11.452,1.4375,-7.6875
12:50:11.464,1.75,-8.3125
12:50:11.473,0.6875,-10.6875
12:50:11.483,1.375,-11.9375
12:50:11.492,0.75,-13.1876
12:50:11.503,0.5,-14.8751
12:50:11.512,-0.25,-16.1251
12:50:11.522,0.1875,-17.1876
12:50:11.532,-0.5625,-17.8126
12:50:11.542,-0.125,-19.1876
12:50:11.552,-1,-19.8751
12:50:11.562,-0.3125,-21.0001
12:50:11.573,-1.8125,-21.6251
12:50:11.588,-0.8125,-22.2501
12:50:11.594,-1.75,-23.5626
12:50:11.602,-1.25,-24.8126
12:50:11.612,-1.5,-25.3751
12:50:11.622,-1.25,-26.0001
12:50:11.632,-2.4375,-27.5001
12:50:11.643,-2.0625,-28.2501
12:50:11.652,-2.9375,-29.5001
12:50:11.663,-2.25,-30.3126
12:50:11.672,-3.5,-31.0001
12:50:11.704,-3.125,-31.1876
12:50:11.705,-3.5,-31.1876
12:50:11.707,-3.0625,-30.6876
12:50:11.752,-2.375,-26.5001
12:50:11.752,-1.75,-21.9376
12:50:11.752,0.1875,-10.8125
12:50:11.779,2.9375,1.3125
12:50:11.779,4.9375,15.8751
12:50:11.779,8.5,28.3126
12:50:11.782,9.875,37.8126
12:50:11.808,10.9375,41.7502
12:50:11.810,12.4375,45.2502
12:50:11.812,11.8125,46.7502
12:50:11.818,12.0625,46.0002
12:50:11.826,12.6875,46.0627
12:50:11.832,12.0625,45.0002
12:50:11.856,11.5625,44.3752
12:50:11.859,11,42.5002
12:50:11.863,12.125,40.5002
12:50:11.875,10.3125,39.4377
12:50:11.884,10.5625,39.0626
12:50:11.892,10.875,37.0001
12:50:11.902,10.375,35.3751
12:50:11.913,9.0625,32.0626
12:50:11.922,8.125,30.4376
12:50:11.932,8.125,28.0001
12:50:11.942,7.375,25.3126
12:50:11.953,6.5,24.0626
12:50:11.962,6.8125,21.3126
12:50:11.976,6.625,20.5001
12:50:11.982,6,18.3126
12:50:11.992,5.5,18.3751
12:50:12.002,5.6875,18.6876
12:50:12.012,6.3125,18.1251
12:50:12.022,5.625,16.7501
12:50:12.032,4.5,18.3126
12:50:12.042,5.4375,17.1876
12:50:12.052,4.9375,15.0626
12:50:12.062,4.75,14.7501
12:50:12.072,4.8125,12.75
12:50:12.083,4.6875,11.125
12:50:12.092,3.8125,8.1875
12:50:12.102,2.875,6.6875
12:50:12.112,3.3125,4.9375
12:50:12.122,2.5,2.5
12:50:12.133,2.75,0
12:50:12.142,2.5625,-0.0625
12:50:12.152,2.8125,-2.375
12:50:12.162,3.375,-3.25
12:50:12.173,2.625,-5.25
12:50:12.183,2.375,-5.3125
12:50:12.192,2.875,-7.0625
12:50:12.203,1.8125,-9.625
12:50:12.212,1,-10.9375
12:50:12.232,0.75,-12.0625
12:50:12.238,0.4375,-14.1251
12:50:12.252,0.0625,-16.1251
12:50:12.255,-0.5625,-17.7501
12:50:12.262,-1,-17.3751
12:50:12.272,-0.75,-18.7501
12:50:12.282,-1.1875,-20.0001
12:50:12.292,-0.9375,-21.3751
12:50:12.302,-1.5625,-22.0626
12:50:12.313,-0.5,-22.3751
12:50:12.323,-1.125,-23.6251
12:50:12.337,-1.25,-22.8751
12:50:12.343,-1.0625,-24.8126
12:50:12.353,-1.625,-25.8126
12:50:12.363,-1.1875,-27.1251
12:50:12.372,-1.375,-28.5626
12:50:12.386,-1.8125,-28.5626
12:50:12.392,-1,-29.2501
12:50:12.427,-1.375,-31.6876
12:50:12.428,-2.0625,-31.3126
12:50:12.431,-2,-33.3126
12:50:12.434,-2.6875,-33.0626
12:50:12.466,-2.625,-34.3126
12:50:12.468,-2.9375,-35.3126
12:50:12.470,-2.625,-33.4376
12:50:12.476,-2.5625,-32.0626
12:50:12.484,-2,-25.5626
12:50:12.522,0,-16.4376
12:50:12.525,2.0625,-1.75
12:50:12.529,6.125,15.5626
12:50:12.542,9.25,28.5001
12:50:12.547,11.375,37.2501
12:50:12.548,13.2501,44.4377
12:50:12.557,13.1251,46.4377
12:50:12.562,13.0625,48.3127
12:50:12.572,13.8751,48.6877
12:50:12.583,13.3751,47.6252
12:50:12.592,13.1251,47.8127
12:50:12.603,12.625,45.1252
12:50:12.613,12.0625,44.2502
12:50:12.622,12.1875,42.9377
12:50:12.632,12.4375,43.0002
12:50:12.642,12.3125,43.5627
12:50:12.652,12.25,42.1877
12:50:12.663,12,40.8752
12:50:12.672,11.9375,40.1877
12:50:12.683,11.75,38.5626
12:50:12.692,11.25,35.3751
12:50:12.702,10.5,32.8751
12:50:12.712,9.75,30.3126
12:50:12.722,9.875,29.0001
12:50:12.733,9.75,28.3751
12:50:12.742,9.375,28.1876
12:50:12.752,10.375,28.2501
12:50:12.762,10.125,29.4376
12:50:12.772,11,29.1876
12:50:12.782,10.6875,29.8126
12:50:12.793,10.875,28.4376
12:50:12.802,10.375,29.1876
12:50:12.812,10.3125,28.2501
12:50:12.822,10.75,26.0001
12:50:12.833,10.4375,25.0001
12:50:12.843,10.5625,23.8751
12:50:12.852,9.875,21.8751
12:50:12.862,8.9375,19.8126
12:50:12.872,8.375,17.6251
12:50:12.882,8.5,15.1251
12:50:12.892,8.25,13
12:50:12.902,6.875,9.625
12:50:12.912,5.75,7.8125
12:50:12.922,5.5,5.4375
12:50:12.932,5.5625,3.1875
12:50:12.942,4.3125,1.1875
12:50:12.953,4.75,-1.0625
12:50:12.962,3.6875,-2.6875
12:50:12.972,3.6875,-3.875
12:50:12.982,3.875,-6.4375
12:50:12.992,3.375,-7.3125
12:50:13.002,3.1875,-8.9375
12:50:13.019,2.3125,-9.375
12:50:13.022,1.8125,-10.5
12:50:13.037,2,-12.5625
12:50:13.054,2.125,-12.8125
12:50:13.057,1.5,-13.5626
12:50:13.064,1.6875,-14.5001
12:50:13.072,1.875,-15.2501
12:50:13.090,1.4375,-15.3126
12:50:13.093,1.25,-17.4376
12:50:13.103,0.0625,-17.5626
12:50:13.112,-0.3125,-18.6876
12:50:13.123,-0.125,-20.2501
12:50:13.132,-0.125,-20.7501
12:50:13.142,-0.6875,-21.8126
12:50:13.170,-0.625,-22.8751
12:50:13.170,-0.1875,-23.9376
12:50:13.201,-0.125,-23.6251
12:50:13.203,0.1875,-24.8751
12:50:13.205,-0.6875,-25.9376
12:50:13.210,-0.3125,-27.2501
12:50:13.213,-1.5,-28.6251
12:50:13.245,-1.5625,-30.0626
12:50:13.248,-1.5,-31.5001
12:50:13.250,-2.1875,-32.4376
12:50:13.252,-2.625,-34.9376
12:50:13.284,-2.625,-35.0001
12:50:13.285,-2.125,-35.5001
12:50:13.286,-1.6875,-35.3126
12:50:13.294,-2.125,-32.9376
12:50:13.329,-1.5625,-29.3751
12:50:13.332,-0.75,-23.2501
12:50:13.333,1.375,-10.25
12:50:13.339,5.5,4.125
12:50:13.342,9.0625,21.4376
12:50:13.353,11.875,32.1876
12:50:13.363,13,40.3127
12:50:13.372,14.6251,45.8752
12:50:13.382,14.6876,48.1877
12:50:13.392,15.5001,48.7502
12:50:13.402,14.9376,47.4377
12:50:13.412,14.3126,47.3127
12:50:13.422,13.8126,48.0627
12:50:13.432,14.7501,44.5002
12:50:13.442,14.3751,44.5002
12:50:13.453,14.0001,43.1877
12:50:13.466,13.4376,43.0627
12:50:13.472,13.8126,41.3127
12:50:13.483,13.6251,41.6252
12:50:13.492,13.3126,40.4377
12:50:13.502,13,39.3126
12:50:13.512,12.9375,36.0001
12:50:13.533,12.25,33.8126
12:50:13.538,11.25,31.6876
12:50:13.546,11.3125,30.3751
12:50:13.552,10.75,28.7501
12:50:13.570,11.1875,27.5001
12:50:13.576,10.125,26.8751
12:50:13.585,11,27.0626
12:50:13.592,10.875,26.4376
12:50:13.603,9.875,26.6251
12:50:13.612,9.25,26.5001
12:50:13.622,10.125,25.0001
12:50:13.632,10.375,24.5626
12:50:13.643,10.125,24.8126
12:50:13.652,9.0625,23.1876
12:50:13.663,8.875,22.5001
12:50:13.672,8.625,20.4376
12:50:13.683,8.375,18.3751
12:50:13.693,8.125,16.1876
12:50:13.702,7.5625,14.5626
12:50:13.712,6.375,12.75
12:50:13.722,6.625,10.8125
12:50:13.732,6.5625,8.3125
12:50:13.742,5.5,6.125
12:50:13.752,4.875,4.1875
12:50:13.762,4.5,1.125
12:50:13.773,4,-1
12:50:13.782,4.1875,-2.6875
12:50:13.814,3.1875,-4.4375
12:50:13.816,1.9375,-5.5625
12:50:13.818,2.4375,-7.625
12:50:13.823,2.25,-10.125
12:50:13.859,2,-10.9375
12:50:13.860,2.5,-11.3125
12:50:13.861,1.6875,-13.3751
12:50:13.865,0.3125,-14.7501
12:50:13.894,0.25,-16.7501
12:50:13.898,-0.0625,-18.3751
12:50:13.901,-0.8125,-19.4376
12:50:13.905,-1,-20.7501
12:50:13.936,-0.8125,-22.5001
12:50:13.937,-1.25,-22.9376
12:50:13.940,-0.8125,-23.2501
12:50:13.942,-1.125,-26.1251
12:50:13.977,-1.625,-26.5626
12:50:13.978,-1.75,-28.7501
12:50:13.981,-1.3125,-29.3751
12:50:13.982,-1.75,-30.6876
12:50:14.016,-1.625,-31.0626
12:50:14.018,-2,-33.0001
12:50:14.021,-1.5625,-33.3751
12:50:14.028,-1.5,-33.7501
12:50:14.034,-1.6875,-34.6876
12:50:14.045,-2,-35.8126
12:50:14.052,-2.3125,-36.5626
12:50:14.062,-2.3125,-36.8751
12:50:14.072,-2.625,-36.8751
12:50:14.082,-1.875,-36.6251
12:50:14.092,-1.6875,-34.2501
12:50:14.104,-0.6875,-30.5001
12:50:14.112,-0.25,-22.1876
12:50:14.122,3.0625,-7.875
12:50:14.132,7.25,12.25
12:50:14.142,11.0625,28.1876
12:50:14.152,14.5626,40.7502
12:50:14.162,15.5001,49.2502
12:50:14.173,16.7501,52.5627
12:50:14.182,16.4376,55.5002
12:50:14.192,17.0626,55.3127
12:50:14.202,16.9376,54.9377
12:50:14.213,16.9376,54.5627
12:50:14.222,16.6251,54.1877
12:50:14.232,17.1876,52.8752
12:50:14.242,17.5001,52.6877
12:50:14.253,16.8126,51.5627
12:50:14.262,16.6876,52.1252
12:50:14.273,17.0001,51.6252
12:50:14.282,17.1251,50.5002
12:50:14.292,16.5001,48.4377
12:50:14.302,16.1251,46.9377
12:50:14.312,16.2501,44.3127
12:50:14.323,14.8751,41.4377
12:50:14.338,14.0626,38.3751
12:50:14.349,15.0001,37.1251
12:50:14.352,13.3751,36.0626
12:50:14.369,13,34.3751
12:50:14.372,13.4376,33.7501
12:50:14.387,13.4376,33.6876
12:50:14.392,13.3751,34.1876
12:50:14.402,8.875,25.3126
12:50:14.412,10.875,28.3126
12:50:14.422,9.1875,27.4376
12:50:14.433,8.3125,25.1251
12:50:14.443,7.5625,22.3126
12:50:14.452,6.625,20.0626
12:50:14.463,4.375,14.6251
12:50:14.472,0.6875,7.875
12:50:14.482,-2.8125,0.0625
12:50:14.493,-5,-7.625
12:50:14.502,-7.5625,-14.3126
12:50:14.513,-8.6875,-18.3751
12:50:14.523,-8.875,-22.0001
12:50:14.532,-7.875,-23.5626
12:50:14.542,-7.0625,-24.5001
12:50:14.553,-7.0625,-26.5626
12:50:14.563,-8.1875,-28.3126
12:50:14.572,-8.1875,-31.6876
12:50:14.582,-8.9375,-34.1876
12:50:14.592,-8.6875,-36.8751
12:50:14.602,-8.8125,-39.5002
12:50:14.634,-9.5,-39.1251
12:50:14.636,-8.625,-40.1877
12:50:14.638,-8.3125,-41.5002
12:50:14.643,-8,-40.3752
12:50:14.677,-7.9375,-42.0627
12:50:14.677,-8.375,-40.2502
12:50:14.681,-7.875,-41.1252
12:50:14.685,-7.5,-41.5002
12:50:14.694,-8.5,-43.1877
12:50:14.719,-8.875,-44.1252
12:50:14.722,-10.0625,-46.0627
12:50:14.724,-10.8125,-48.2502
12:50:14.741,-12.6875,-51.0627
12:50:14.744,-14.1876,-55.4377
12:50:14.778,-15.9376,-57.8127
12:50:14.781,-16.6251,-60.1252
12:50:14.796,-18.4376,-63.0627
12:50:14.798,-18.1876,-64.8127
12:50:14.799,-19.0626,-66.8753
12:50:14.802,-20.1876,-68.1878
12:50:14.812,-21.0626,-68.1253
12:50:14.822,-20.5626,-67.4378
12:50:14.833,-19.8126,-62.1877
12:50:14.842,-19.0626,-56.3752
12:50:14.859,-16.4376,-44.4377
12:50:14.862,-13.3126,-28.0001
12:50:14.877,-9.3125,-14.0626
12:50:14.894,-6.25,-1.5
12:50:14.901,-4.1875,6.875
12:50:14.907,-2.8125,11.625
12:50:14.917,-2.4375,14.9376
12:50:14.927,-2.25,14.3126
12:50:14.937,-1.0625,16.3751
12:50:14.947,-0.875,15.4376
12:50:14.957,-1.6875,14.6251
12:50:14.968,-1.625,12.6875
12:50:14.978,-1.875,12.25
12:50:14.987,-2.3125,12.4375
12:50:14.998,-1.75,8.625
12:50:15.007,-3.375,7.8125
12:50:15.017,-3.625,5
12:50:15.027,-4.8125,1.3125
12:50:15.037,-6.1875,-3.3125
12:50:15.048,-6.1875,-7.5
12:50:15.057,-6.6875,-10.1875
12:50:15.068,-6.6875,-11.5
12:50:15.093,-6.8125,-14.2501
12:50:15.095,-7.375,-15.1876
12:50:15.097,-7.6875,-16.5626
12:50:15.107,-7.1875,-17.7501
12:50:15.118,-7.8125,-17.3126
12:50:15.127,-7.4375,-17.4376
12:50:15.137,-7.6875,-18.6876
12:50:15.147,-7.4375,-18.8751
12:50:15.157,-6.9375,-18.7501
12:50:15.169,-7.6875,-19.8126
12:50:15.178,-8.25,-20.3126
12:50:15.187,-7.9375,-22.4376
12:50:15.197,-8.1875,-25.5626
12:50:15.207,-8.5,-26.8751
12:50:15.218,-9.5625,-29.8751
12:50:15.227,-9.875,-32.6876
12:50:15.237,-9.8125,-35.1876
12:50:15.247,-10.25,-37.7501
12:50:15.257,-11.25,-39.5627
12:50:15.268,-10.9375,-42.8752
12:50:15.277,-11.75,-44.8752
12:50:15.288,-12.25,-47.2502
12:50:15.297,-12.0625,-50.2502
12:50:15.307,-12.9375,-51.8127
12:50:15.317,-13.7501,-53.9377
12:50:15.327,-13.5626,-55.1877
12:50:15.337,-14.0001,-57.8752
12:50:15.364,-13.9376,-59.0002
12:50:15.366,-13.8751,-58.9377
12:50:15.369,-14.5001,-60.2502
12:50:15.383,-14.4376,-59.7502
12:50:15.387,-14.3751,-61.6252
12:50:15.413,-14.1251,-63.0627
12:50:15.416,-14.5001,-63.0002
12:50:15.449,-15.0001,-63.6877
12:50:15.453,-14.3126,-63.4377
12:50:15.454,-14.8751,-64.4377
12:50:15.458,-14.3126,-63.5002
12:50:15.460,-14.3126,-65.3753
12:50:15.468,-14.5001,-64.0627
12:50:15.494,-13.7501,-64.7502
12:50:15.496,-14.2501,-65.1252
12:50:15.498,-14.4376,-64.5627
12:50:15.518,-14.1251,-65.1252
12:50:15.520,-14.1251,-64.0002
12:50:15.527,-13.6251,-63.8752
12:50:15.544,-13.5626,-65.0627
12:50:15.548,-12.9375,-63.5002
12:50:15.558,-13.8126,-63.1252
12:50:15.568,-13.5626,-60.4377
12:50:15.577,-12.1875,-56.2502
12:50:15.587,-11.125,-48.1252
12:50:15.598,-9.8125,-37.7501
12:50:15.608,-6.4375,-23.1251
12:50:15.617,-2.875,-5
12:50:15.627,2.1875,12.375
12:50:15.637,4.4375,25.0001
12:50:15.654,7.0625,32.3751
12:50:15.657,7.125,36.0001
12:50:15.672,7.5625,37.8126
12:50:15.687,8.5625,39.0627
12:50:15.690,8.25,40.4377
12:50:15.700,8.0625,38.8751
12:50:15.708,8.1875,39.5002
12:50:15.717,8.0625,39.3127
12:50:15.727,8.6875,39.2501
12:50:15.737,8.3125,38.5001
12:50:15.747,8.5,37.2501
12:50:15.758,7.6875,36.9376
12:50:15.768,7.625,33.8126
12:50:15.777,7.3125,31.5001
12:50:15.788,6.5,27.5001
12:50:15.797,6.5625,24.7501
12:50:15.807,5.6875,22.1876
12:50:15.817,4.9375,19.8751
12:50:15.827,4.4375,18.0626
12:50:15.837,4.5,16.5626
12:50:15.847,3.875,14.3126
12:50:15.857,3.375,15.6876
12:50:15.867,4,15.0001
12:50:15.878,3.875,13.8126
12:50:15.887,3.5625,12.75
12:50:15.898,3.25,13.1876
12:50:15.908,3.375,11.5625
12:50:15.921,3.3125,10.3125
12:50:15.928,2.875,8.5625
12:50:15.937,1.875,7.75
12:50:15.947,2,4.9375
12:50:15.957,1.9375,1.625
12:50:15.967,1.25,-0.5
12:50:15.977,0.25,-2.5
12:50:15.987,-0.625,-5.5625
12:50:15.997,-1.1875,-8.6875
12:50:16.007,-1.375,-11.25
12:50:16.017,-1.5625,-14.3751
12:50:16.031,-2.625,-16.3126
12:50:16.037,-3.1875,-18.8751
12:50:16.072,-3.375,-21.6876
12:50:16.074,-4.1875,-24.2501
12:50:16.076,-4.8125,-25.8126
12:50:16.078,-4.9375,-26.8751
12:50:16.120,-5.1875,-29.3751
12:50:16.122,-5.375,-30.6251
12:50:16.124,-5.75,-32.1876
12:50:16.128,-6.625,-33.1876
12:50:16.130,-6.375,-34.6876
12:50:16.137,-6.875,-36.3751
12:50:16.165,-6.75,-37.8126
12:50:16.210,-6.9375,-38.6876
12:50:16.210,-7.5,-39.8752
12:50:16.225,-7.125,-40.3752
12:50:16.240,-7.875,-42.2502
12:50:16.241,-7.5,-42.9377
12:50:16.241,-7.9375,-44.6252
12:50:16.242,-8.0625,-45.3127
12:50:16.249,-8.9375,-45.8752
12:50:16.257,-8.0625,-47.2502
12:50:16.267,-8.75,-47.5002
12:50:16.277,-8.9375,-46.8752
12:50:16.287,-8.75,-46.8127
12:50:16.297,-8.25,-46.5627
12:50:16.309,-7.625,-41.8752
12:50:16.317,-7,-35.6251
12:50:16.328,-5.3125,-24.5001
12:50:16.337,-2,-9.8125
12:50:16.347,2.4375,9.3125
12:50:16.375,6.3125,25.3751
12:50:16.377,8.5,38.1251
12:50:16.377,10.5625,44.7502
12:50:16.388,11.4375,48.1252
12:50:16.398,12.3125,51.5627
12:50:16.407,11.4375,52.3752
12:50:16.417,11.75,50.4377
12:50:16.427,12,50.3752
12:50:16.437,11.75,50.2502
12:50:16.447,12.375,49.3127
12:50:16.457,11.3125,48.4377
12:50:16.467,11.375,46.4377
12:50:16.478,11,45.0627
12:50:16.487,10,41.3127
12:50:16.497,9.625,38.3751
12:50:16.508,8.3125,34.5626
12:50:16.518,8,30.9376
12:50:16.528,7.625,28.0001
12:50:16.538,6.0625,25.5626
12:50:16.548,6.5,23.3751
12:50:16.557,5.9375,22.3751
12:50:16.567,5.125,21.5001
12:50:16.577,5.8125,20.3126
12:50:16.588,5.0625,20.1251
12:50:16.597,4.9375,20.0626
12:50:16.608,5.125,19.3126
12:50:16.617,5,18.5001
12:50:16.628,5.1875,17.1251
12:50:16.637,4.25,15.0001
12:50:16.648,3.4375,12.8125
12:50:16.657,2.8125,11.6875
12:50:16.672,2.5,8.3125
12:50:16.677,2.5,5.8125
12:50:16.688,1.3125,2.25
12:50:16.697,0.5,-1.375
12:50:16.707,-0.6875,-3.3125
12:50:16.717,-0.0625,-6
12:50:16.727,-1.125,-9.625
12:50:16.752,-2.375,-13.6876
12:50:16.755,-2.5625,-14.4376
12:50:16.757,-3.25,-17.3126
12:50:16.785,-3.25,-19.8126
12:50:16.788,-3.9375,-22.4376
12:50:16.791,-4.625,-22.8126
12:50:16.797,-4.125,-25.1251
12:50:16.836,-5.1875,-27.0626
12:50:16.837,-5.875,-29.4376
12:50:16.840,-6.375,-29.9376
12:50:16.865,-5.5625,-32.1876
12:50:16.866,-6.5625,-33.2501
12:50:16.867,-7.0625,-34.4376
12:50:16.870,-7.1875,-34.8126
12:50:16.878,-7.4375,-37.1251
12:50:16.909,-8.25,-38.4376
12:50:16.910,-7.9375,-40.0002
12:50:16.913,-8.375,-40.8752
12:50:16.918,-8.8125,-43.6877
12:50:16.929,-8.875,-43.6252
12:50:16.937,-9.1875,-45.3752
12:50:16.948,-8.75,-45.8127
12:50:16.957,-9.4375,-45.9377
12:50:16.972,-9.0625,-44.8127
12:50:16.982,-8.625,-44.0002
12:50:16.989,-9.0625,-39.4377
12:50:17.005,-8.125,-31.3751
12:50:17.007,-5.375,-20.7501
12:50:17.022,-2.5625,-3.3125
12:50:17.027,2.25,15.1876
12:50:17.037,5.5625,28.9376
12:50:17.047,8,38.8751
12:50:17.058,9.125,44.3752
12:50:17.068,9.9375,48.0627
12:50:17.077,10.25,48.6877
12:50:17.087,10.3125,47.8752
12:50:17.098,10.0625,47.5002
12:50:17.107,9.3125,47.6252
12:50:17.117,9.4375,45.5627
12:50:17.127,9.25,45.8127
12:50:17.137,9.4375,43.6877
12:50:17.148,9.375,44.9377
12:50:17.157,9.125,42.4377
12:50:17.168,8.625,41.5627
12:50:17.177,8.125,38.6876
12:50:17.187,7.4375,35.5626
12:50:17.197,6.875,31.6251
12:50:17.208,5.3125,27.2501
12:50:17.218,5.0625,23.8751
12:50:17.227,4.125,20.7501
12:50:17.237,3.9375,19.1876
12:50:17.247,3.5,16.3126
12:50:17.257,3.5625,15.1251
12:50:17.267,3.25,15.0001
12:50:17.277,2.8125,14.6876
12:50:17.287,3.25,14.2501
12:50:17.298,2.6875,14.1876
12:50:17.308,2.375,13.8751
12:50:17.317,2.1875,13.2501
12:50:17.327,1.9375,11.9375
12:50:17.337,1.625,9.0625
12:50:17.347,1.4375,7.625
12:50:17.357,1,4.875
12:50:17.367,0.75,2.75
12:50:17.378,0.0625,0.1875
12:50:17.387,-0.9375,-2.625
12:50:17.398,-0.9375,-6.875
12:50:17.408,-2.5625,-9
12:50:17.423,-2.625,-12
12:50:17.429,-2.875,-15.3751
12:50:17.437,-3.375,-17.8751
12:50:17.447,-3.4375,-20.5001
12:50:17.457,-4.4375,-22.5001
12:50:17.467,-5.8125,-23.5626
12:50:17.478,-5.375,-27.7501
12:50:17.487,-6.375,-29.8126
12:50:17.507,-6.3125,-30.5626
12:50:17.514,-6.5625,-33.0001
12:50:17.521,-6.8125,-33.6251
12:50:17.527,-6.375,-35.3126
12:50:17.558,-7.375,-37.1876
12:50:17.587,-6.8125,-38.0001
12:50:17.590,-8.5625,-39.6252
12:50:17.592,-8,-41.0627
12:50:17.594,-8.3125,-42.9377
12:50:17.594,-8.25,-42.8752
12:50:17.598,-8.4375,-44.3127
12:50:17.625,-9.0625,-45.5627
12:50:17.627,-9.125,-45.6877
12:50:17.629,-8.875,-47.0002
12:50:17.656,-9.25,-47.4377
12:50:17.660,-9.5625,-48.3127
12:50:17.661,-9.4375,-48.5002
12:50:17.668,-9.75,-48.1252
12:50:17.695,-9.8125,-49.0002
12:50:17.698,-9.5,-50.5627
12:50:17.700,-9.8125,-49.8127
12:50:17.709,-9.5,-50.6877
12:50:17.717,-10,-51.9377
12:50:17.727,-9.8125,-51.0002
12:50:17.737,-9.75,-51.1252
12:50:17.747,-9.875,-52.4377
12:50:17.757,-9.8125,-51.3752
12:50:17.767,-10,-52.3127
12:50:17.777,-9.8125,-52.8127
12:50:17.787,-10.0625,-52.9377
12:50:17.797,-9.625,-52.1252
12:50:17.807,-10.0625,-49.6252
12:50:17.817,-9.5625,-44.6877
12:50:17.827,-8,-37.8751
12:50:17.837,-6.625,-24.3751
12:50:17.848,-3.125,-6.4375
12:50:17.858,1.8125,14.4376
12:50:17.867,6.25,34.0001
12:50:17.877,9.1875,45.9377
12:50:17.887,9.6875,51.9377
12:50:17.897,11.4375,55.0627
12:50:17.907,11.25,56.1877
12:50:17.917,11.3125,56.1252
12:50:17.927,10.9375,54.3127
12:50:17.938,11.125,53.1252
12:50:17.947,10.5,51.6877
12:50:17.957,9.875,52.1252
12:50:17.967,10.25,51.2502
12:50:17.978,10.125,50.2502
12:50:17.987,9.875,49.6877
12:50:17.997,9.5625,47.6252
12:50:18.008,9.4375,46.5002
12:50:18.017,8.75,42.6877
12:50:18.027,8.3125,40.2502
12:50:18.038,7.375,36.8751
12:50:18.047,6.6875,33.5001
12:50:18.057,6.375,30.9376
12:50:18.067,6.25,28.8751
12:50:18.077,5.375,27.1251
12:50:18.087,4.625,25.8126
12:50:18.098,5,24.5626
12:50:18.107,4.5625,25.0626
12:50:18.117,4.625,23.9376
12:50:18.127,4.9375,23.3751
12:50:18.138,4.875,23.6251
12:50:18.148,4.625,21.3751
12:50:18.157,3.6875,20.6251
12:50:18.170,3.875,18.6876
12:50:18.180,3.375,16.5626
12:50:18.188,2.3125,14.4376
12:50:18.197,2.375,10.75
12:50:18.207,1.75,8.1875
12:50:18.217,0.9375,5.9375
12:50:18.227,0.875,3.5
12:50:18.237,0.1875,-0.375
12:50:18.263,-1.125,-2.6875
12:50:18.266,-1.5,-6
12:50:18.267,-1.8125,-8.75
12:50:18.285,-1.9375,-11.25
12:50:18.358,-2.6875,-14.4376
12:50:18.358,-3.625,-17.1876
12:50:18.369,-4.125,-18.0001
12:50:18.398,-3.5,-20.0626
12:50:18.399,-3.875,-22.0626
12:50:18.399,-5.0625,-25.0001
12:50:18.400,-5.375,-25.3126
12:50:18.403,-5.6875,-26.7501
12:50:18.409,-5.4375,-28.1251
12:50:18.409,-6.25,-30.4376
12:50:18.431,-6.1875,-31.0001
12:50:18.434,-6.5,-30.9376
12:50:18.438,-6.8125,-32.6251
12:50:18.447,-6.875,-34.1251
12:50:18.457,-6.875,-34.6251
12:50:18.467,-7.0625,-36.3126
12:50:18.477,-7.25,-36.7501
12:50:18.488,-7.25,-37.8751
12:50:18.497,-7.4375,-38.1251
12:50:18.507,-7.8125,-38.8126
12:50:18.518,-7.8125,-40.3752
12:50:18.527,-7.625,-42.3752
12:50:18.538,-7.75,-47.0002
12:50:18.547,-8.9375,-47.9377
12:50:18.557,-9.1875,-48.3127
12:50:18.567,-9,-48.4377
12:50:18.579,-9.5625,-47.8752
12:50:18.587,-8.8125,-46.8127
12:50:18.597,-8.1875,-42.8127
12:50:18.607,-7.4375,-34.8751
12:50:18.617,-5.75,-22.8126
12:50:18.628,-2.3125,-6.5
12:50:18.637,2.125,13.125
12:50:18.648,5.4375,30.2501
12:50:18.657,8.0625,40.3127
12:50:18.667,9.625,47.8127
12:50:18.677,10.0625,49.4377
12:50:18.687,9.5625,49.5627
12:50:18.697,9.6875,49.6252
12:50:18.707,9.8125,47.3127
12:50:18.718,9.875,46.6877
12:50:18.727,9.625,44.0627
12:50:18.737,9.0625,43.8752
12:50:18.747,8.1875,41.3127
12:50:18.758,8.1875,40.9377
12:50:18.767,8.5,39.1251
12:50:18.778,7.5625,36.7501
12:50:18.787,6.375,33.3751
12:50:18.797,6.1875,30.0001
12:50:18.807,5.5,25.9376
12:50:18.817,4.9375,22.6251
12:50:18.828,4.1875,19.1876
12:50:18.842,3.75,17.9376
12:50:18.850,3.375,16.7501
12:50:18.857,2.6875,15.6876
12:50:18.872,3,14.5626
12:50:18.889,2.4375,13.4376
12:50:18.891,2.8125,13.7501
12:50:18.897,2.6875,13.4376
12:50:18.907,2.3125,13.8126
12:50:18.933,2.875,12.625
12:50:18.937,2.3125,11.9375
12:50:18.942,1.375,10.25
12:50:18.971,0.75,7.9375
12:50:18.974,0.375,4.875
12:50:18.976,0.9375,3.1875
12:50:18.983,0.75,0.375
12:50:19.009,-0.6875,-1.875
12:50:19.013,-1.0625,-4.125
12:50:19.014,-1.0625,-7.75
12:50:19.050,-1.5,-9.125
12:50:19.052,-1.6875,-11.75
12:50:19.053,-1.75,-14.8751
12:50:19.061,-2.1875,-16.1251
12:50:19.062,-2.0625,-17.4376
12:50:19.094,-1.875,-19.3126
12:50:19.097,-3.25,-22.0626
12:50:19.099,-4.625,-25.8126
12:50:19.103,-4.1875,-27.8126
12:50:19.127,-4.6875,-28.9376
12:50:19.130,-4.8125,-31.8126
12:50:19.134,-5.8125,-31.7501
12:50:19.143,-5.75,-33.7501
12:50:19.152,-6.125,-34.9376
12:50:19.162,-5.75,-35.8751
12:50:19.172,-6.625,-37.8751
12:50:19.182,-6.3125,-39.3127
12:50:19.193,-7.625,-40.3127
12:50:19.202,-7.125,-41.5002
12:50:19.212,-7.1875,-41.8752
12:50:19.222,-7,-43.0627
12:50:19.232,-8.1875,-42.7502
12:50:19.243,-8.0625,-45.1252
12:50:19.252,-8.3125,-45.0002
12:50:19.262,-9,-45.6252
12:50:19.272,-8.3125,-47.6877
12:50:19.282,-8.5625,-47.9377
12:50:19.293,-9.5,-47.7502
12:50:19.302,-9.0625,-48.6252
12:50:19.312,-9.3125,-48.3752
12:50:19.322,-9.1875,-49.4377
12:50:19.332,-9.5,-49.8127
12:50:19.342,-9.25,-49.5627
12:50:19.352,-9.75,-50.5002
12:50:19.362,-9.375,-49.7502
12:50:19.373,-9.0625,-49.8752
12:50:19.383,-8.875,-51.1252
12:50:19.393,-10,-49.1877
12:50:19.402,-9.75,-50.0002
12:50:19.413,-9.8125,-50.2502
12:50:19.422,-9.25,-49.3752
12:50:19.432,-9.5,-49.8752
12:50:19.442,-9.9375,-47.4377
12:50:19.452,-9.0625,-42.9377
12:50:19.462,-8.1875,-34.5001
12:50:19.472,-5.8125,-21.6876
12:50:19.482,-3.375,-4.625
12:50:19.492,1.25,16.9376
12:50:19.502,5.3125,34.8751
12:50:19.512,8.1875,45.6877
12:50:19.522,8.875,51.8752
12:50:19.532,10.4375,53.8127
12:50:19.543,9.5625,54.2502
12:50:19.553,9.3125,54.3752
12:50:19.562,9.5625,53.0627
12:50:19.572,9.6875,51.0627
12:50:19.582,9.125,50.5002
12:50:19.593,9,50.0627
12:50:19.603,9.1875,48.5002
12:50:19.612,8.5625,49.8127
12:50:19.622,9.125,47.3752
12:50:19.632,8.875,46.3127
12:50:19.651,7.5625,44.3752
12:50:19.653,7.375,39.5627
12:50:19.674,6.3125,37.8126
12:50:19.676,5.6875,35.0626
12:50:19.710,5.3125,30.4376
12:50:19.712,4.875,27.3751
12:50:19.739,4.8125,25.6876
12:50:19.739,3.75,23.9376
12:50:19.740,4.3125,22.5001
12:50:19.743,3.4375,21.3126
12:50:19.747,3.8125,21.1251
12:50:19.782,2.875,20.7501
12:50:19.784,3.5,19.6876
12:50:19.786,3.4375,19.1876
12:50:19.819,2.9375,18.8126
12:50:19.820,3.4375,16.6251
12:50:19.821,2.3125,15.8751
12:50:19.824,1.875,13.3126
12:50:19.830,1.875,9.875
12:50:19.836,1.1875,7.5625
12:50:19.864,0.75,4.25
12:50:19.867,0.1875,1.25
12:50:19.868,-0.1875,-1.6875
12:50:19.873,-1.3125,-4.375
12:50:19.886,-1.3125,-7.6875
12:50:19.894,-2.5,-10
12:50:19.902,-2.8125,-13.125
12:50:19.912,-2.9375,-16.0626
12:50:19.922,-3.625,-19.5001
12:50:19.932,-4.5,-22.1251
12:50:19.943,-5.0625,-23.2501
12:50:19.952,-5.6875,-24.0626
12:50:19.962,-5.6875,-26.3751
12:50:19.972,-5.125,-28.5626
12:50:19.982,-5.5625,-30.1251
12:50:19.993,-6.4375,-32.2501
12:50:20.002,-7.125,-32.6251
12:50:20.012,-7.375,-33.5001
12:50:20.022,-7.1875,-35.4376
12:50:20.032,-7.3125,-37.2501
12:50:20.043,-7.875,-37.6251
12:50:20.052,-7.75,-39.3126
12:50:20.062,-7.5,-40.0002
12:50:20.072,-8.125,-40.8752
12:50:20.082,-8.125,-42.5627
12:50:20.092,-8.625,-42.6252
12:50:20.102,-9.125,-42.5627
12:50:20.112,-7.75,-43.6252
12:50:20.123,-9.1875,-44.3752
12:50:20.132,-8.875,-45.0627
12:50:20.142,-9.25,-45.8127
12:50:20.157,-8.9375,-45.4377
12:50:20.176,-9.5,-46.4377
12:50:20.182,-8.875,-46.9377
12:50:20.184,-9.375,-47.4377
12:50:20.217,-9.6875,-46.6252
12:50:20.219,-9.0625,-47.8752
12:50:20.221,-9.5,-47.6252
12:50:20.228,-9.1875,-47.7502
12:50:20.233,-9,-48.3127
12:50:20.242,-9.4375,-47.7502
12:50:20.252,-8.9375,-48.1877
12:50:20.262,-8.5,-46.9377
12:50:20.272,-8.625,-47.4377
12:50:20.282,-9,-47.0627
12:50:20.292,-8.875,-47.0627
12:50:20.302,-8.8125,-46.8752
12:50:20.312,-9.5625,-45.8127
12:50:20.323,-9.4375,-46.4377
12:50:20.332,-9.125,-47.1252
12:50:20.342,-8.75,-44.8752
12:50:20.352,-8.375,-41.1252
12:50:20.362,-7.9375,-33.7501
12:50:20.372,-6.875,-21.8751
12:50:20.383,-3.9375,-7.8125
12:50:20.393,-0.6875,13.1876
12:50:20.403,4.1875,31.9376
12:50:20.414,7.4375,45.7502
12:50:20.422,8.75,53.5627
12:50:20.433,10.0625,55.1252
12:50:20.442,10.625,57.4377
12:50:20.466,10.1875,56.5002
12:50:20.468,10.75,55.6877
12:50:20.475,10.0625,53.1877
12:50:20.504,9.4375,52.5627
12:50:20.507,9.9375,52.0002
12:50:20.508,9.3125,50.9377
12:50:20.512,9.1875,51.0002
12:50:20.544,9.4375,49.6877
12:50:20.545,8.6875,49.6877
12:50:20.547,9.0625,46.3127
12:50:20.555,8.125,44.6877
12:50:20.592,7.8125,41.8752
12:50:20.594,7.6875,37.6251
12:50:20.596,6.0625,34.8751
12:50:20.602,5.8125,30.8126
12:50:20.602,4.875,28.3126
12:50:20.629,4.9375,26.3751
12:50:20.635,4.375,24.5626
12:50:20.637,4.3125,23.1876
12:50:20.644,3.5,23.1251
12:50:20.653,4.125,22.0001
12:50:20.663,3.5625,21.8751
12:50:20.672,3.3125,21.3126
12:50:20.682,3.4375,19.1251
12:50:20.692,2.625,18.2501
12:50:20.702,2.8125,16.9376
12:50:20.712,2.5,14.0626
12:50:20.722,1.6875,11.875
12:50:20.732,1.0625,9.4375
12:50:20.742,0.4375,6.125
12:50:20.752,-0.6875,2.4375
12:50:20.762,-0.375,-0.875
12:50:20.773,-1.4375,-2.5
12:50:20.782,-1.3125,-6.625
12:50:20.792,-2,-9.9375
12:50:20.803,-2.3125,-13.3751
12:50:20.813,-3.3125,-16.3126
12:50:20.823,-4,-18.6876
12:50:20.832,-4.3125,-21.8126
12:50:20.842,-4.875,-23.5626
12:50:20.854,-5.25,-24.0001
12:50:20.862,-5.125,-27.0626
12:50:20.872,-5.1875,-29.5626
12:50:20.882,-5.6875,-30.8751
12:50:20.892,-6.625,-32.3126
12:50:20.902,-5.9375,-32.1876
12:50:20.912,-5.6875,-34.1251
12:50:20.922,-6.875,-35.2501
12:50:20.932,-6.25,-36.7501
12:50:20.943,-7.5625,-37.3751
12:50:20.952,-7.0625,-37.5626
12:50:20.962,-7.375,-38.7501
12:50:20.972,-7.4375,-39.5002
12:50:20.993,-7.6875,-40.0627
12:50:20.996,-8.125,-40.2502
12:50:21.006,-7.625,-41.0002
12:50:21.017,-7.75,-41.1252
12:50:21.032,-8,-42.8127
12:50:21.034,-8.375,-43.0627
12:50:21.045,-8.0625,-43.7502
12:50:21.053,-8.5,-42.8127
12:50:21.062,-8.25,-44.0002
12:50:21.072,-8.125,-44.0627
12:50:21.083,-8.75,-43.1877
12:50:21.092,-8.125,-44.2502
12:50:21.103,-8.6875,-42.6252
12:50:21.113,-8.1875,-44.1252
12:50:21.122,-7.25,-44.0627
12:50:21.132,-8.375,-44.1877
12:50:21.142,-8.1875,-44.4377
12:50:21.153,-8.375,-43.0002
12:50:21.163,-8.375,-42.9377
12:50:21.172,-8.1875,-44.3752
12:50:21.182,-8.375,-43.3752
12:50:21.211,-8.25,-44.3752
12:50:21.214,-8.75,-42.6877
12:50:21.217,-8.3125,-43.3127
12:50:21.222,-7.625,-43.1252
12:50:21.250,-8.25,-42.5002
12:50:21.252,-7.8125,-42.8127
12:50:21.255,-7.9375,-40.5002
12:50:21.286,-7.8125,-38.3751
12:50:21.289,-6.75,-32.3126
12:50:21.290,-6.5,-22.4376
12:50:21.292,-4.5,-9.9375
12:50:21.325,-1.625,5.6875
12:50:21.328,1.9375,24.0001
12:50:21.330,5.625,38.1876
12:50:21.364,8.125,47.7502
12:50:21.364,8.625,51.1877
12:50:21.368,9.75,52.3752
12:50:21.372,9,53.3752
12:50:21.373,9.25,49.6877
12:50:21.383,8.3125,49.5002
12:50:21.392,8.0625,45.4377
12:50:21.404,7.625,45.8752
12:50:21.413,7.9375,42.7502
12:50:21.422,8.5,42.0627
12:50:21.432,7.0625,41.1252
12:50:21.443,7.0625,38.6876
12:50:21.452,6,36.9376
12:50:21.467,6.3125,33.8751
12:50:21.480,5.1875,31.6876
12:50:21.497,5.0625,27.6876
12:50:21.498,3.8125,25.6251
12:50:21.512,3.8125,22.0626
12:50:21.514,3.1875,20.1251
12:50:21.529,2.625,18.5626
12:50:21.533,2.75,18.5001
12:50:21.543,2.4375,17.5001
12:50:21.553,2.6875,17.3126
12:50:21.562,2.375,16.0001
12:50:21.572,1.75,16.1876
12:50:21.582,2.5,15.6251
12:50:21.593,2.625,14.7501
12:50:21.602,1.8125,13.125
12:50:21.612,1.25,12.5
12:50:21.622,1.375,10.375
12:50:21.633,1.4375,7.8125
12:50:21.642,0.75,4.1875
12:50:21.652,-0.5,1.5625
12:50:21.662,-0.9375,-0.6875
12:50:21.672,-1.625,-2.875
12:50:21.683,-1.5625,-6.125
12:50:21.692,-2.5625,-8.8125
12:50:21.703,-1.9375,-11.5625
12:50:21.712,-2.875,-13.8751
12:50:21.722,-3.5625,-15.9376
12:50:21.732,-4,-17.6876
12:50:21.742,-4.125,-20.5626
12:50:21.752,-4.375,-22.0626
12:50:21.765,-4.5,-23.7501
12:50:21.775,-5.3125,-26.4376
12:50:21.782,-5.375,-26.9376
12:50:21.792,-4.875,-28.1251
12:50:21.802,-5.9375,-30.1251
12:50:21.812,-6.4375,-31.3751
12:50:21.822,-6.375,-31.2501
12:50:21.832,-6.3125,-32.5626
12:50:21.843,-7.0625,-33.2501
12:50:21.853,-7.1875,-34.6251
12:50:21.862,-6.3125,-34.2501
12:50:21.872,-7.375,-35.5001
12:50:21.882,-7,-36.2501
12:50:21.892,-6.625,-36.5001
12:50:21.902,-7.8125,-36.2501
12:50:21.924,-7.3125,-37.5001
12:50:21.926,-7.8125,-38.2501
12:50:21.959,-7,-38.5626
12:50:21.961,-7.875,-39.4377
12:50:21.964,-7.3125,-39.1251
12:50:21.969,-7.4375,-37.8751
12:50:21.973,-7.5625,-40.2502
12:50:22.003,-7.9375,-39.2502
12:50:22.006,-8.125,-39.9377
12:50:22.008,-7.375,-40.1252
12:50:22.013,-8.0625,-40.2502
12:50:22.047,-7.625,-40.3127
12:50:22.053,-8.3125,-40.4377
12:50:22.053,-7.6875,-39.4377
12:50:22.056,-8.125,-37.6251
12:50:22.084,-6.875,-34.5626
12:50:22.087,-6.4375,-27.1876
12:50:22.089,-5.4375,-17.6251
12:50:22.094,-3.4375,-3.625
12:50:22.103,-0.5,11.5
12:50:22.112,3.8125,29.3751
12:50:22.122,6.25,39.4377
12:50:22.132,8.4375,46.8127
12:50:22.147,8.5,50.4377
12:50:22.152,9.4375,49.5002
12:50:22.162,8.625,50.1252
12:50:22.172,8.5,47.0627
12:50:22.182,8.4375,46.5002
12:50:22.192,8,43.4377
12:50:22.202,7.5,43.5627
12:50:22.213,7.875,40.8752
12:50:22.222,7.0625,39.8752
12:50:22.232,6.4375,36.8126
12:50:22.242,5.5625,35.5001
12:50:22.252,5.125,31.4376
12:50:22.262,4.8125,29.3126
12:50:22.272,3.9375,24.8751
12:50:22.282,4.25,22.5626
12:50:22.292,3.4375,19.0001
12:50:22.302,3,18.0626
12:50:22.318,3.625,15.7501
12:50:22.326,2.875,14.3751
12:50:22.333,2.0625,12.9375
12:50:22.349,1.5,13.6251
12:50:22.352,2.75,13.4376
12:50:22.369,1.75,11.8125
12:50:22.373,1.5,10.9375
12:50:22.384,2,12.5625
12:50:22.392,2.375,10.6875
12:50:22.403,1.4375,8.5625
12:50:22.413,0.75,7.9375
12:50:22.422,0.625,5.0625
12:50:22.432,0.4375,2.375
12:50:22.443,-0.5625,-0.6875
12:50:22.452,-1.4375,-3.8125
12:50:22.462,-2,-5.0625
12:50:22.473,-1.5625,-8.125
12:50:22.483,-2.6875,-11.4375
12:50:22.492,-2.6875,-14.3126
12:50:22.502,-3.4375,-16.4376
12:50:22.512,-3.5625,-19.1876
12:50:22.522,-4,-21.2501
12:50:22.532,-4.4375,-23.0626
12:50:22.542,-4.8125,-24.1251
12:50:22.552,-4.5,-25.2501
12:50:22.562,-5.3125,-27.2501
12:50:22.583,-5.625,-28.9376
12:50:22.585,-5.75,-29.1251
12:50:22.612,-5.875,-31.4376
12:50:22.614,-6.25,-32.0001
12:50:22.617,-6.1875,-31.5001
12:50:22.623,-5.9375,-33.5001
12:50:22.651,-6.125,-33.2501
12:50:22.654,-6.1875,-34.7501
12:50:22.658,-6.3125,-34.7501
12:50:22.663,-6.75,-35.1251
12:50:22.691,-6.125,-36.5001
12:50:22.693,-6.9375,-36.4376
12:50:22.695,-6.5625,-36.7501
12:50:22.727,-7.375,-37.3126
12:50:22.730,-6.9375,-36.7501
12:50:22.732,-7.0625,-37.3126
12:50:22.741,-6.4375,-38.0001
12:50:22.773,-7,-38.6251
12:50:22.776,-7.1875,-37.4376
12:50:22.778,-6.875,-26.7501
12:50:22.782,-6.875,-14.0626
12:50:22.784,-7.0625,-14.7501
12:50:22.798,-6.6875,-15.4376
12:50:22.807,-7.625,-15.0626
12:50:22.812,-7.375,-16.8126
12:50:22.829,-7.8125,-16.2501
12:50:22.844,-6.875,-17.0001
12:50:22.846,-6,-16.9376
12:50:22.852,-7.25,-16.8126
12:50:22.862,-6.25,-17.5626
12:50:22.873,-7.5625,-17.3751
12:50:22.882,-6.875,-15.7501
12:50:22.899,-7.0625,-11.375
12:50:22.903,-4.875,-2
12:50:22.912,-3.9375,9.875
12:50:22.922,-1.0625,25.9376
12:50:22.957,3.9375,45.8127
12:50:22.960,7.4375,62.3127
12:50:22.963,9.6875,70.6878
12:50:22.968,10.75,75.1878
12:50:22.977,11.25,76.0628
12:50:22.987,11.75,75.8128
12:50:22.997,11.1875,74.3128
12:50:23.008,11.9375,73.5628
12:50:23.017,11,71.3128
12:50:23.027,11.4375,70.2503
12:50:23.037,10.875,69.7503
12:50:23.047,10.875,68.3128
12:50:23.057,10.75,68.0628
12:50:23.067,11.375,66.6878
12:50:23.077,10.4375,64.5627
12:50:23.088,10,61.7502
12:50:23.097,8.6875,57.3752
12:50:23.107,8.75,54.1252
12:50:23.117,7.8125,50.3127
12:50:23.128,6.875,47.1252
12:50:23.138,7.5625,44.8127
12:50:23.147,7.0625,42.5627
12:50:23.157,6,40.3127
12:50:23.167,6.25,40.5627
12:50:23.177,6.25,38.3751
12:50:23.188,6.1875,39.0626
12:50:23.197,7.8125,39.2502
12:50:23.207,7.3125,37.5626
12:50:23.217,7.3125,36.7501
12:50:23.227,8,37.3126
12:50:23.238,8.9375,36.7501
12:50:23.248,9.1875,36.1876
12:50:23.257,9.3125,34.5626
12:50:23.272,10.6875,36.0001
12:50:23.277,12.5,35.3126
12:50:23.287,12.625,34.5001
12:50:23.298,12.625,34.0001
12:50:23.307,13.8751,34.1876
12:50:23.318,13.4376,31.8126
12:50:23.327,12.8125,29.9376
12:50:23.338,12.75,28.3126
12:50:23.347,13.1251,29.6876
12:50:23.364,14.5001,28.6251
12:50:23.367,14.5626,28.0626
12:50:23.396,14.5001,28.1876
12:50:23.398,15.0001,29.8751
12:50:23.401,16.0001,31.1876
12:50:23.408,20.5626,34.9376
12:50:23.438,21.3751,36.5626
12:50:23.439,22.5626,38.3751
12:50:23.441,24.3751,39.6252
12:50:23.448,25.6876,43.2502
12:50:23.480,28.6876,48.0002
12:50:23.482,30.3751,52.0627
12:50:23.485,32.2501,55.6252
12:50:23.488,32.5626,60.5002
12:50:23.523,33.2501,60.5627
12:50:23.525,31.3126,58.7502
12:50:23.529,30.1251,57.3752
12:50:23.530,28.8126,56.0002
12:50:23.539,29.0001,55.0002
12:50:23.547,28.4376,53.3127
12:50:23.558,28.0001,52.5002
12:50:23.567,28.7501,53.9377
12:50:23.577,28.8126,53.9377
12:50:23.588,28.1251,52.6877
12:50:23.597,27.3126,51.5627
12:50:23.607,26.8126,50.7502
12:50:23.617,26.1251,48.1877
12:50:23.635,25.4376,46.0002
12:50:23.637,24.7501,45.0002
12:50:23.652,24.3751,43.5627
12:50:23.667,24.4376,41.5002
12:50:23.668,24.0001,39.6877
12:50:23.679,23.0626,37.5001
12:50:23.688,22.3751,36.0001
12:50:23.697,23.4376,33.3126
12:50:23.709,22.5626,30.2501
12:50:23.717,21.8751,27.5001
12:50:23.727,20.8126,26.5001
12:50:23.738,20.5001,26.3126
12:50:23.748,20.6876,25.7501
12:50:23.757,20.1251,27.1251
12:50:23.768,21.3126,35.3126
12:50:23.778,23.6251,46.0002
12:50:23.788,25.9376,57.9377
12:50:23.797,28.4376,69.3753
12:50:23.807,30.3751,78.3128
12:50:23.817,30.9376,84.5628
12:50:23.828,31.5001,85.8128
12:50:23.837,31.3126,85.7503
12:50:23.848,30.1876,84.5628
12:50:23.858,29.9376,84.0003
12:50:23.867,29.3751,80.8753
12:50:23.877,28.7501,78.0003
12:50:23.887,27.5626,75.9378
12:50:23.897,27.8126,74.7503
12:50:23.907,27.2501,72.5003
12:50:23.919,26.1876,70.3128
12:50:23.927,25.3126,69.9378
12:50:23.937,25.4376,67.6253
12:50:23.947,24.1251,64.8752
12:50:23.957,23.7501,62.3127
12:50:23.969,23.4376,60.8752
12:50:23.977,22.3126,56.7502
12:50:23.987,20.8126,53.0002
12:50:23.997,19.9376,49.9377
12:50:24.007,20.1251,46.3752
12:50:24.017,19.3751,44.5627
12:50:24.029,18.4376,43.4377
12:50:24.052,18.0626,42.6877
12:50:24.055,17.8751,42.1877
12:50:24.059,18.0626,41.2502
12:50:24.069,17.0001,42.1252
12:50:24.099,17.2501,41.1252
12:50:24.101,16.5626,42.1877
12:50:24.134,17.1876,41.0627
12:50:24.136,17.1251,41.5002
12:50:24.138,17.2501,41.5002
12:50:24.144,17.0626,40.0627
12:50:24.145,17.1251,40.5627
12:50:24.149,16.3126,38.5626
12:50:24.177,15.3751,36.5001
12:50:24.180,14.7501,35.0626
12:50:24.182,15.0001,33.9376
12:50:24.188,15.0001,33.5001
12:50:24.214,15.0001,32.8126
12:50:24.217,15.8751,32.9376
12:50:24.218,14.5001,31.1251
12:50:24.241,14.3126,29.3751
12:50:24.242,13.9376,27.4376
12:50:24.249,13.9376,26.5001
12:50:24.258,14.7501,25.5626
12:50:24.267,13.8751,25.0001
12:50:24.277,14.3126,25.6876
12:50:24.288,14.6251,26.2501
12:50:24.298,14.8751,25.6876
12:50:24.307,15.3126,24.8751
12:50:24.317,15.0001,25.3126
12:50:24.329,14.0626,23.6251
12:50:24.338,14.5001,22.4376
12:50:24.347,13.8751,22.1251
12:50:24.357,13.1251,20.8126
12:50:24.368,12.9375,20.1251
12:50:24.377,11.8125,18.5001
12:50:24.387,12.125,18.9376
12:50:24.404,11.8125,18.0001
12:50:24.408,12.25,17.3751
12:50:24.417,11.4375,16.8126
12:50:24.427,10.75,16.6251
12:50:24.437,10.5625,16.2501
12:50:24.447,9.625,14.3751
12:50:24.457,9.875,12
12:50:24.468,8.375,11.5
12:50:24.477,8.1875,8.4375
12:50:24.487,7.3125,7.75
12:50:24.497,6.25,5.4375
12:50:24.508,6.1875,1.625
12:50:24.517,6,0.375
12:50:24.527,4.3125,-4.625
12:50:24.537,3.875,-7.1875
12:50:24.547,2.9375,-10.375
12:50:24.557,2.375,-13.3126
12:50:24.567,1.9375,-16.5001
12:50:24.578,0.5625,-18.4376
12:50:24.588,0.125,-21.2501
12:50:24.597,0.25,-23.5001
12:50:24.609,-0.125,-22.5001
12:50:24.617,0.5,-21.7501
12:50:24.628,0.5625,-16.1251
12:50:24.637,2.75,-5.4375
12:50:24.647,5.875,8.5625
12:50:24.657,8.875,22.6251
12:50:24.669,11.625,34.6251
12:50:24.677,13.0625,42.6252
12:50:24.687,13.9376,46.3127
12:50:24.697,14.0626,48.1252
12:50:24.708,14.1876,47.8127
12:50:24.717,14.1876,46.5002
12:50:24.727,13,45.0627
12:50:24.737,13.1876,42.8752
12:50:24.747,12.3125,41.3127
12:50:24.757,12.5,40.1877
12:50:24.767,12.375,39.0626
12:50:24.778,11.5625,39.4377
12:50:24.788,12.3125,38.5001
12:50:24.806,12.375,38.0626
12:50:24.808,12.625,38.1251
12:50:24.836,12.875,36.3126
12:50:24.839,12.1875,33.9376
12:50:24.841,11.625,30.8126
12:50:24.848,11.3125,30.1876
12:50:24.877,12.3125,29.5626
12:50:24.878,11.625,28.6251
12:50:24.881,11.25,28.0001
12:50:24.889,11.4375,29.9376
12:50:24.916,12.0625,29.8751
12:50:24.918,12.375,30.1876
12:50:24.923,11.9375,32.1876
12:50:24.927,12.0625,32.5001
12:50:24.963,12.3125,32.5001
12:50:24.982,12,32.0001
12:50:24.985,11.4375,32.7501
12:50:24.990,11.4375,31.0001
12:50:24.990,10.9375,28.3126
12:50:24.991,10.8125,27.1251
12:50:24.997,11.0625,26.7501
12:50:25.007,11.0625,26.4376
12:50:25.017,11.5,23.8751
12:50:25.028,10.5,21.5626
12:50:25.037,10,19.3751
12:50:25.048,9.875,18.8126
12:50:25.057,10.125,16.5626
12:50:25.068,9.9375,15.8751
12:50:25.077,9.75,13.7501
12:50:25.088,9.625,13.8751
12:50:25.097,10.125,13.1876
12:50:25.108,9.0625,10.4375
12:50:25.118,8.9375,10.0625
12:50:25.127,8.375,8.9375
12:50:25.137,8.375,8.625
12:50:25.153,8.0625,9.0625
12:50:25.159,7.875,7.9375
12:50:25.167,7.375,6.625
12:50:25.177,5.9375,5.6875
12:50:25.187,5.625,5.4375
12:50:25.197,6.625,6.125
12:50:25.207,6.5625,5.3125
12:50:25.217,5.5625,4.5625
12:50:25.227,5.0625,5.0625
12:50:25.237,6.0625,3.75
12:50:25.247,5,2.1875
12:50:25.259,4.6875,0.9375
12:50:25.268,4.5625,1.125
12:50:25.277,3.9375,-1.75
12:50:25.287,3.625,-2.8125
12:50:25.297,3.5,-4.25
12:50:25.309,2.8125,-5.1875
12:50:25.334,3,-8.1875
12:50:25.336,1.9375,-11.5
12:50:25.337,1,-14.3126
12:50:25.348,-0.25,-16.5626
12:50:25.357,-0.3125,-18.8751
12:50:25.367,-1,-22.8126
12:50:25.377,-1.6875,-25.3126
12:50:25.387,-2.5,-27.8751
12:50:25.397,-3.1875,-28.6876
12:50:25.413,-3.1875,-29.8126
12:50:25.430,-2.75,-28.1876
12:50:25.432,-2.6875,-23.8751
12:50:25.437,-1.5,-12.75
12:50:25.447,1.9375,-0.1875
12:50:25.459,4.5625,11.75
12:50:25.467,6.5,23.3751
12:50:25.478,8.25,31.1876
12:50:25.487,9.75,36.0001
12:50:25.498,10.25,38.1251
12:50:25.508,10.125,39.9377
12:50:25.517,10.75,39.5002
12:50:25.529,10.875,39.6252
12:50:25.562,10.0625,40.1877
12:50:25.562,10.75,38.5626
12:50:25.565,10.875,37.5001
12:50:25.568,11.125,38.3126
12:50:25.597,11.0625,36.6876
12:50:25.599,11.0625,37.4376
12:50:25.603,11.9375,38.6876
12:50:25.607,11.5625,38.1251
12:50:25.643,11.75,37.8751
12:50:25.644,12.1875,35.0001
12:50:25.646,11.375,33.4376
12:50:25.689,11,33.0001
12:50:25.689,11.1875,30.9376
12:50:25.689,10.6875,28.8126
12:50:25.693,10.0625,27.6876
12:50:25.697,9.5625,28.5001
12:50:25.698,10.5625,27.8751
12:50:25.714,9.8125,27.6251
12:50:25.719,10.0625,28.2501
12:50:25.728,10.625,29.5626
12:50:25.737,11.125,29.6876
12:50:25.747,11.5,30.2501
12:50:25.758,11.625,30.5626
12:50:25.768,12.375,30.7501
12:50:25.777,12.3125,29.8126
12:50:25.787,12,29.2501
12:50:25.799,12.0625,27.9376
12:50:25.808,11.8125,27.5626
12:50:25.817,11.875,25.9376
12:50:25.827,11.5,23.3751
12:50:25.838,10.375,21.1876
12:50:25.847,10.3125,20.5001
12:50:25.858,9.75,17.5626
12:50:25.867,9.0625,15.4376
12:50:25.877,8.375,14.8126
12:50:25.887,8.625,13.7501
12:50:25.903,7.5625,11.5625
12:50:25.908,7.3125,10.1875
12:50:25.918,7.3125,9.9375
12:50:25.927,8,8.625
12:50:25.937,7.375,7.8125
12:50:25.948,7.1875,7.75
12:50:25.957,6.3125,7.5
12:50:25.967,6.75,5.375
12:50:25.977,6,3.9375
12:50:25.987,5.375,4.125
12:50:25.998,5.3125,4.125
12:50:26.008,5.4375,1.75
12:50:26.017,5.625,0.9375
12:50:26.027,4.9375,-0.5
12:50:26.037,4.3125,-1.9375
12:50:26.047,4.3125,-2.625
12:50:26.059,4.4375,-4.4375
12:50:26.068,3.4375,-7.0625
12:50:26.077,2.5625,-8.5
12:50:26.088,2.25,-9.8125
12:50:26.097,1.8125,-13.5001
12:50:26.107,1.25,-15.5001
12:50:26.117,0.875,-17.6251
12:50:26.129,0.4375,-20.5626
12:50:26.138,-0.9375,-23.3751
12:50:26.147,-1.3125,-25.2501
12:50:26.157,-1.3125,-28.6876
12:50:26.167,-2.6875,-32.5001
12:50:26.177,-3.8125,-33.3126
12:50:26.187,-3.625,-36.2501
12:50:26.219,-4.25,-39.6877
12:50:26.221,-5.25,-42.6252
12:50:26.225,-4.3125,-43.3752
12:50:26.228,-5.1875,-45.8127
12:50:26.260,-5.8125,-45.3127
12:50:26.262,-5.25,-48.1877
12:50:26.295,-6.25,-47.9377
12:50:26.298,-5.6875,-48.0002
12:50:26.330,-5.5625,-45.0002
12:50:26.330,-4.5,-35.8751
12:50:26.330,-1.5625,-23.6876
12:50:26.332,2.25,-3.6875
12:50:26.333,6.9375,13.9376
12:50:26.359,9.625,28.8126
12:50:26.360,11.375,37.2501
12:50:26.363,12.8125,43.4377
12:50:26.365,13,46.3127
12:50:26.369,13.6876,47.6877
12:50:26.384,13.1876,47.4377
12:50:26.388,13.5001,49.9377
12:50:26.397,14.0001,47.7502
12:50:26.407,14.3126,49.5002
12:50:26.417,14.7501,49.1252
12:50:26.427,14.1876,50.5627
12:50:26.438,14.4376,51.4377
12:50:26.447,14.7501,52.0002
12:50:26.457,14.5626,50.3127
12:50:26.467,14.1251,49.7502
12:50:26.477,14.2501,48.3752
12:50:26.488,13.6251,48.1877
12:50:26.499,13.9376,45.3752
12:50:26.507,14.0626,42.3752
12:50:26.517,13.8126,41.3127
12:50:26.527,13.6876,39.1251
12:50:26.537,13.5626,38.8126
12:50:26.549,14.3751,38.3751
12:50:26.559,14.3751,37.8126
12:50:26.567,14.5626,38.3126
12:50:26.577,13.8751,38.0001
12:50:26.588,14.5001,39.0001
12:50:26.612,14.1876,38.8751
12:50:26.615,13.4376,37.3751
12:50:26.620,13.2501,35.9376
12:50:26.628,12.6875,35.3751
12:50:26.638,12.5625,34.3126
12:50:26.647,12.25,34.6251
12:50:26.659,12.25,32.1251
12:50:26.667,11.875,30.6251
12:50:26.677,11.5625,29.0001
12:50:26.687,10.75,29.0001
12:50:26.708,11.1875,26.1251
12:50:26.712,10.1875,24.7501
12:50:26.727,10.1875,22.5001
12:50:26.730,9.0625,21.0626
12:50:26.737,9.125,19.3751
12:50:26.747,8.25,16.1876
12:50:26.758,8.125,14.3751
12:50:26.767,7.9375,11.5625
12:50:26.777,6.625,9.625
12:50:26.787,6.375,8
12:50:26.797,5.6875,4.9375
12:50:26.807,4.5,2.875
12:50:26.817,4.875,-0.75
12:50:26.827,3.0625,-3.4375
12:50:26.837,2.375,-5.25
12:50:26.847,2.25,-9.375
12:50:26.859,1.8125,-12.3125
12:50:26.868,1.4375,-14.0001
12:50:26.877,0.3125,-17.5001
12:50:26.887,0.25,-18.8126
12:50:26.898,0.1875,-21.1251
12:50:26.907,-0.3125,-24.3751
12:50:26.917,-0.875,-26.5001
12:50:26.928,-0.75,-28.5001
12:50:26.942,-1.9375,-30.1251
12:50:26.952,-2.5,-32.0626
12:50:26.962,-2.8125,-35.8751
12:50:26.972,-3.4375,-37.6876
12:50:26.982,-3.5,-39.6252
12:50:26.993,-4.3125,-40.0627
12:50:27.021,-3.125,-43.0627
12:50:27.022,-4.375,-44.2502
12:50:27.025,-3.5,-45.9377
12:50:27.033,-4.1875,-45.9377
12:50:27.064,-3.75,-46.9377
12:50:27.066,-3.6875,-47.6877
12:50:27.068,-3.875,-48.8752
12:50:27.076,-4.25,-49.3127
12:50:27.104,-3.125,-50.0002
12:50:27.111,-3.5,-50.0002
12:50:27.112,-3.6875,-50.8127
12:50:27.115,-3.75,-51.0627
12:50:27.123,-4.4375,-52.4377
12:50:27.155,-4.75,-51.6877
12:50:27.157,-4.4375,-51.5002
12:50:27.160,-5.3125,-49.8752
12:50:27.164,-4.375,-47.2502
12:50:27.188,-3.1875,-39.8127
12:50:27.190,-1.4375,-25.0626
12:50:27.193,3.625,-6.25
12:50:27.204,8.5,18.3126
12:50:27.214,13,34.8126
12:50:27.224,15.5001,46.6877
12:50:27.234,18.0626,54.9377
12:50:27.244,18.5626,59.1252
12:50:27.254,18.8751,61.0627
12:50:27.264,19.6876,62.2502
12:50:27.275,19.6251,61.5627
12:50:27.283,19.2501,62.4377
12:50:27.294,19.2501,60.4377
12:50:27.305,18.6876,61.3127
12:50:27.315,18.5626,59.5627
12:50:27.324,18.5626,58.9377
12:50:27.334,18.2501,59.2502
12:50:27.345,18.5626,58.8752
12:50:27.352,18.0626,58.5002
12:50:27.362,17.2501,56.8752
12:50:27.372,16.5626,56.1877
12:50:27.382,16.4376,54.3752
12:50:27.392,16.5001,52.4377
12:50:27.402,16.3751,50.5002
12:50:27.412,15.6876,49.0002
12:50:27.422,15.4376,47.0002
12:50:27.432,14.8751,45.8127
12:50:27.442,15.3126,45.1252
12:50:27.454,15.0001,44.1877
12:50:27.462,14.2501,42.7502
12:50:27.472,14.5001,42.4377
12:50:27.483,13.1876,41.5002
12:50:27.493,13.125,39.5627
12:50:27.505,12.75,37.8126
12:50:27.513,11.6875,36.9376
12:50:27.522,11.3125,32.8751
12:50:27.532,10.1875,31.0626
12:50:27.542,10.1875,28.8126
12:50:27.563,9.9375,24.9376
12:50:27.566,9.3125,23.1876
12:50:27.582,7.625,20.0001
12:50:27.587,7.6875,15.3126
12:50:27.592,7,12.375
12:50:27.603,6.6875,8
12:50:27.612,4.875,3.875
12:50:27.622,4.6875,0.5
12:50:27.632,4,-1.875
12:50:27.643,2.9375,-5.25
12:50:27.652,2.25,-9.625
12:50:27.662,2.5,-11.625
12:50:27.672,1.4375,-15.2501
12:50:27.682,0.625,-18.0626
12:50:27.692,0.1875,-19.1251
12:50:27.702,-0.25,-22.6251
12:50:27.724,-0.75,-24.8751
12:50:27.726,-0.9375,-26.3751
12:50:27.755,-0.8125,-28.6876
12:50:27.756,-1.75,-30.0001
12:50:27.759,-0.9375,-31.9376
12:50:27.765,-2,-32.6876
12:50:27.796,-1.4375,-33.8126
12:50:27.798,-2.0625,-35.7501
12:50:27.801,-2.3125,-37.1251
12:50:27.804,-2.1875,-38.0001
12:50:27.840,-2.5,-38.1251
12:50:27.842,-2.625,-38.3126
12:50:27.849,-2.625,-38.7501
12:50:27.850,-2.3125,-38.0626
12:50:27.859,-2,-38.0001
12:50:27.864,-1.875,-37.5626
12:50:27.892,-1.9375,-39.6877
12:50:27.895,-2.6875,-39.4377
12:50:27.897,-2.5,-41.3127
12:50:27.904,-2.3125,-40.3127
12:50:27.913,-3.0625,-41.5002
12:50:27.923,-2.0625,-41.8127
12:50:27.937,-3.0625,-42.5627
12:50:27.942,-3.0625,-43.3752
12:50:27.952,-2.5,-43.3127
12:50:27.962,-2.625,-43.2502
12:50:27.972,-2.6875,-41.9377
12:50:27.982,-1.8125,-37.9376
12:50:27.992,-0.625,-32.1251
12:50:28.002,0.625,-19.4376
12:50:28.017,4.3125,-2
12:50:28.033,8.6875,19.1876
12:50:28.034,12.75,35.4376
12:50:28.043,14.9376,47.8752
12:50:28.052,16.7501,55.0627
12:50:28.062,17.6876,58.7502
12:50:28.072,18.1251,62.3127
12:50:28.082,18.1251,62.4377
12:50:28.092,18.6251,63.3127
12:50:28.102,17.8751,62.4377
12:50:28.112,17.3751,60.6877
12:50:28.122,17.8751,60.7502
12:50:28.132,16.6251,59.2502
12:50:28.142,16.1876,58.9377
12:50:28.152,16.6876,57.0627
12:50:28.162,15.8751,56.6252
12:50:28.172,15.3126,55.3127
12:50:28.182,14.6251,52.6877
12:50:28.192,14.4376,49.4377
12:50:28.202,13.4376,48.1877
12:50:28.212,13.0625,44.0002
12:50:28.222,12.625,40.5627
12:50:28.232,12.3125,38.7501
12:50:28.243,11.625,37.0626
12:50:28.252,12.6875,36.3126
12:50:28.262,11.9375,35.5001
12:50:28.273,12.125,34.7501
12:50:28.282,12.125,35.2501
12:50:28.292,12.25,36.1251
12:50:28.303,13.0625,36.2501
12:50:28.317,12.9375,36.3126
12:50:28.322,13.0625,37.0001
12:50:28.334,13.0625,36.4376
12:50:28.344,12.5,36.4376
12:50:28.352,12.3125,34.5626
12:50:28.362,12.3125,34.0626
12:50:28.372,12,32.9376
12:50:28.382,11.625,31.4376
12:50:28.392,11.3125,30.0626
12:50:28.402,10.875,27.8126
12:50:28.412,9.75,25.4376
12:50:28.422,10,23.1876
12:50:28.432,9.125,20.9376
12:50:28.456,9.0625,17.9376
12:50:28.458,8.0625,16.5626
12:50:28.485,8.0625,14.8126
12:50:28.487,7.1875,11.5625
12:50:28.490,6.625,9.875
12:50:28.494,6.375,8.5
12:50:28.530,6.125,7.625
12:50:28.531,6.1875,5.8125
12:50:28.534,6.0625,4.5625
12:50:28.536,5.6875,4.4375
12:50:28.542,6.125,2.375
12:50:28.582,5.125,1.8125
12:50:28.585,4.8125,0.875
12:50:28.587,4,-1.4375
12:50:28.591,3.8125,-2.0625
12:50:28.594,3.75,-3.8125
12:50:28.620,-3.125,-14.8126
12:50:28.622,-4.9375,-18.7501
12:50:28.625,-8.625,-24.8751
12:50:28.632,-11.4375,-30.4376
12:50:28.642,-12.9375,-36.7501
12:50:28.652,-14.0626,-40.1877
12:50:28.662,-14.6251,-42.5627
12:50:28.673,-14.3751,-46.0627
12:50:28.682,-15.1251,-47.9377
12:50:28.693,-15.9376,-51.0002
12:50:28.702,-16.3126,-54.0002
12:50:28.713,-17.3126,-55.7502
12:50:28.726,-17.1251,-58.6877
12:50:28.733,-18.0626,-61.2502
12:50:28.742,-18.1876,-63.1877
12:50:28.752,-19.2501,-64.0627
12:50:28.762,-19.4376,-68.5003
12:50:28.772,-21.4376,-70.0003
12:50:28.782,-21.7501,-74.3753
12:50:28.792,-22.9376,-76.3128
12:50:28.802,-23.5001,-78.3128
12:50:28.812,-24.1251,-80.2503
12:50:28.822,-24.1251,-80.1253
12:50:28.832,-24.5626,-82.9378
12:50:28.842,-24.7501,-82.7503
12:50:28.859,-24.8751,-83.5628
12:50:28.862,-25.0001,-85.3753
12:50:28.877,-25.3126,-83.5003
12:50:28.882,-24.6876,-81.2503
12:50:28.892,-23.8126,-73.9378
12:50:28.902,-22.3126,-63.2502
12:50:28.912,-20.0001,-48.0002
12:50:28.922,-15.8126,-29.0001
12:50:28.932,-12.125,-10.8125
12:50:28.942,-9.3125,0.625
12:50:28.952,-6.75,7.625
12:50:28.962,-6.75,12.1875
12:50:28.972,-6.1875,12
12:50:28.983,-5.125,12.9375
12:50:28.993,-6.625,12.5625
12:50:29.004,-6.4375,9.0625
12:50:29.012,-6.1875,8.8125
12:50:29.022,-6.875,7.5
12:50:29.032,-6.25,6.625
12:50:29.042,-6.9375,6.25
12:50:29.052,-6.5,5.5
12:50:29.067,-6.5,5.875
12:50:29.073,-7.1875,5.1875
12:50:29.082,-6.625,2.875
12:50:29.093,-7.8125,1.5
12:50:29.102,-8.1875,-2.9375
12:50:29.112,-9.125,-5.0625
12:50:29.122,-9.75,-9.1875
12:50:29.133,-10.4375,-11.9375
12:50:29.142,-10.6875,-15.6876
12:50:29.175,-11.3125,-17.4376
12:50:29.177,-11.0625,-19.1876
12:50:29.180,-11.5,-19.9376
12:50:29.184,-12,-22.1876
12:50:29.215,-12.3125,-22.9376
12:50:29.217,-12.4375,-23.6251
12:50:29.220,-12.625,-25.2501
12:50:29.223,-12.9375,-26.3751
12:50:29.251,-13,-26.8126
12:50:29.253,-12.8125,-28.9376
12:50:29.256,-13.3126,-28.8751
12:50:29.263,-13.5001,-32.5626
12:50:29.290,-14.0001,-34.0001
12:50:29.292,-14.4376,-37.1876
12:50:29.295,-15.1251,-41.1877
12:50:29.331,-14.8751,-42.9377
12:50:29.334,-16.1251,-46.8127
12:50:29.334,-16.2501,-49.2502
12:50:29.340,-16.7501,-52.2502
12:50:29.344,-17.0001,-54.6877
12:50:29.354,-16.8751,-56.8752
12:50:29.362,-18.1251,-59.3127
12:50:29.373,-17.5626,-61.6877
12:50:29.382,-19.0001,-63.8127
12:50:29.392,-19.5001,-67.3128
12:50:29.403,-19.5001,-67.6878
12:50:29.413,-20.2501,-70.5628
12:50:29.424,-20.0001,-70.6878
12:50:29.432,-20.2501,-71.2503
12:50:29.449,-19.8751,-73.2503
12:50:29.452,-20.7501,-72.6878
12:50:29.462,-20.3751,-75.0628
12:50:29.472,-20.3751,-75.5003
12:50:29.482,-20.4376,-76.1253
12:50:29.492,-20.6251,-77.0628
12:50:29.502,-20.8751,-77.6253
12:50:29.512,-20.5626,-77.8753
12:50:29.524,-20.8126,-77.8753
12:50:29.532,-20.6251,-78.1878
12:50:29.542,-20.8751,-77.5628
12:50:29.552,-20.5626,-79.0003
12:50:29.562,-20.6876,-78.1878
12:50:29.572,-20.5626,-79.0628
12:50:29.583,-20.5001,-77.3128
12:50:29.592,-20.4376,-78.5003
12:50:29.602,-20.0626,-76.3753
12:50:29.612,-19.8126,-77.6253
12:50:29.622,-19.5001,-78.3128
12:50:29.633,-19.3751,-76.8753
12:50:29.643,-19.5001,-76.8128
12:50:29.652,-19.4376,-76.1878
12:50:29.662,-19.0001,-75.9378
12:50:29.672,-18.9376,-74.5628
12:50:29.682,-17.9376,-74.2503
12:50:29.692,-18.8126,-73.5628
12:50:29.703,-18.5626,-72.8128
12:50:29.717,-18.4376,-73.3128
12:50:29.727,-18.3751,-72.1878
12:50:29.740,-18.3126,-72.3753
12:50:29.749,-18.1876,-70.6878
12:50:29.757,-17.8126,-70.1878
12:50:29.768,-17.6251,-69.6878
12:50:29.777,-17.8126,-68.2503
12:50:29.787,-16.9376,-65.3127
12:50:29.797,-16.6876,-58.6252
12:50:29.807,-15.5001,-49.2502
12:50:29.821,-13.3126,-37.3126
12:50:29.827,-10.6875,-23.4376
12:50:29.837,-7.875,-7.625
12:50:29.847,-5,5.3125
12:50:29.857,-2.6875,13.9376
12:50:29.869,-2,20.1251
12:50:29.892,-1.1875,22.8126
12:50:29.895,-0.6875,22.6876
12:50:29.897,-0.5625,21.3751
12:50:29.927,-1.125,21.1876
12:50:29.930,-0.75,19.4376
12:50:29.932,-1.4375,19.9376
12:50:29.937,-1.625,18.8751
12:50:29.964,-1.8125,17.5626
12:50:29.968,-1.625,16.0626
12:50:29.970,-2.3125,15.1876
12:50:29.997,-2.3125,11.875
12:50:29.998,-3.4375,9.125
12:50:30.001,-3.5625,6.4375
12:50:30.007,-4.9375,1.3125
12:50:30.039,-5.375,-1
12:50:30.041,-5.8125,-4.625
12:50:30.043,-6.5,-6.5625
12:50:30.048,-7,-8.25
12:50:30.061,-7.3125,-11.3125
12:50:30.070,-7.5,-11.1875
12:50:30.077,-7.625,-13
12:50:30.087,-7.5625,-12.375
12:50:30.097,-7.625,-14.1876
12:50:30.107,-8.1875,-14.0626
12:50:30.117,-8.5625,-17.0626
12:50:30.128,-8.625,-17.3751
12:50:30.138,-9.0625,-19.3751
12:50:30.156,-9.5625,-21.2501
12:50:30.158,-10.125,-24.5001
12:50:30.174,-9.6875,-26.2501
12:50:30.182,-10.75,-27.5626
12:50:30.188,-10.75,-30.9376
12:50:30.200,-11.375,-32.1251
12:50:30.211,-11.625,-35.6251
12:50:30.218,-12,-37.6251
12:50:30.227,-11.75,-38.2501
12:50:30.237,-12.5,-41.4377
12:50:30.247,-12.375,-41.6877
12:50:30.258,-13.3751,-43.5627
12:50:30.267,-13.5626,-45.4377
12:50:30.278,-13.1876,-47.2502
12:50:30.287,-13.9376,-47.9377
12:50:30.297,-14.1251,-49.4377
12:50:30.308,-13.9376,-49.3752
12:50:30.318,-14.0001,-50.5002
12:50:30.330,-13.9376,-50.9377
12:50:30.337,-13.8751,-51.2502
12:50:30.347,-14.5001,-52.2502
12:50:30.357,-14.7501,-52.4377
12:50:30.367,-14.5001,-53.0002
12:50:30.377,-14.6251,-52.9377
12:50:30.388,-14.6251,-53.2502
12:50:30.397,-14.3126,-53.3127
12:50:30.408,-14.5626,-54.1877
12:50:30.417,-14.6876,-53.7502
12:50:30.427,-14.1876,-53.8752
12:50:30.452,-15.2501,-53.5002
12:50:30.454,-14.3126,-53.7502
12:50:30.460,-15.3126,-53.3752
12:50:30.468,-14.5626,-54.1252
12:50:30.478,-14.9376,-53.5002
12:50:30.487,-14.7501,-53.0002
12:50:30.498,-14.8126,-52.8752
12:50:30.507,-15.1876,-52.8752
12:50:30.518,-14.3751,-53.3127
12:50:30.528,-15.1251,-51.9377
12:50:30.538,-14.9376,-52.7502
12:50:30.547,-14.8751,-51.1877
12:50:30.557,-14.4376,-52.6252
12:50:30.571,-14.8126,-51.5627
12:50:30.577,-14.5626,-50.1877
12:50:30.589,-14.5001,-47.0002
12:50:30.608,-13.3126,-40.0002
12:50:30.613,-11.625,-30.7501
12:50:30.628,-10.5,-20.3126
12:50:30.630,-8.625,-8.6875
12:50:30.641,-7.25,2.4375
12:50:30.669,-4.75,13.2501
12:50:30.670,-2.875,20.0001
12:50:30.672,-1.8125,23.1876
12:50:30.707,-1.375,25.2501
12:50:30.710,-1.25,25.0626
12:50:30.712,-0.9375,23.8126
12:50:30.740,-1.625,22.1251
12:50:30.740,-2.1875,21.5626
12:50:30.740,-1.1875,20.2501
12:50:30.742,-2,19.8751
12:50:30.747,-2.5625,18.5626
12:50:30.764,-2.6875,14.9376
12:50:30.771,-3.25,12.625
12:50:30.800,-3.6875,10.3125
12:50:30.802,-3.875,7
12:50:30.805,-5.1875,3.875
12:50:30.811,-5.1875,0.75
12:50:30.818,-5.75,-2.8125
12:50:30.828,-6.875,-6.125
12:50:30.838,-6.625,-6.5625
12:50:30.847,-7.375,-9.125
12:50:30.857,-7.625,-9.5
12:50:30.867,-7.4375,-9.8125
12:50:30.877,-7.9375,-11.9375
12:50:30.888,-7.75,-13.3751
12:50:30.898,-8.0625,-13.6876
12:50:30.908,-8.1875,-14.5001
12:50:30.917,-8.625,-15.3126
12:50:30.927,-7.8125,-16.1876
12:50:30.939,-8.875,-18.1251
12:50:30.953,-9.3125,-20.0001
12:50:30.963,-9.1875,-21.1876
12:50:30.972,-9.8125,-24.3751
12:50:30.982,-9.875,-25.3751
12:50:30.992,-10.375,-27.0626
12:50:31.002,-10.8125,-29.1876
12:50:31.013,-10.5,-31.0626
12:50:31.022,-11.375,-32.8751
12:50:31.032,-10.875,-33.8751
12:50:31.042,-11.5625,-35.4376
12:50:31.054,-11.3125,-36.5626
12:50:31.063,-11.5,-37.9376
12:50:31.074,-11.8125,-37.3126
12:50:31.082,-11.875,-39.1876
12:50:31.093,-11.4375,-39.8752
12:50:31.102,-12,-40.3752
12:50:31.113,-11.625,-41.6252
12:50:31.124,-12,-41.5627
12:50:31.132,-11.4375,-41.3752
12:50:31.142,-12,-42.3752
12:50:31.152,-11.375,-41.8127
12:50:31.162,-12.375,-42.0002
12:50:31.172,-12.3125,-43.0002
12:50:31.184,-12.5625,-42.1252
12:50:31.192,-11.25,-42.6877
12:50:31.202,-12.125,-42.8752
12:50:31.212,-11.625,-42.3752
12:50:31.222,-12,-43.5002
12:50:31.234,-12.1875,-41.6877
12:50:31.242,-11.5625,-42.9377
12:50:31.252,-11.75,-41.6877
12:50:31.262,-11.4375,-42.5627
12:50:31.274,-11.8125,-43.0002
12:50:31.285,-11.5,-41.5002
12:50:31.292,-11.5625,-42.5627
12:50:31.304,-11.9375,-41.6252
12:50:31.312,-11.125,-41.4377
12:50:31.322,-11.3125,-41.8752
12:50:31.334,-11.5625,-40.5627
12:50:31.342,-11.375,-41.6252
12:50:31.352,-11.5,-41.3752
12:50:31.362,-11.1875,-40.8127
12:50:31.373,-11.3125,-41.1252
12:50:31.384,-11.5625,-39.9377
12:50:31.396,-10.875,-40.3752
12:50:31.420,-11.3125,-39.3126
12:50:31.422,-10.9375,-38.2501
12:50:31.424,-10.625,-35.1876
12:50:31.456,-10.3125,-26.6251
12:50:31.498,-8.75,-18.0626
12:50:31.526,-7.125,-7.4375
12:50:31.554,-4.75,5.625
12:50:31.556,-2.3125,17.3126
12:50:31.584,0,28.7501
12:50:31.584,2.3125,35.3126
12:50:31.585,2.4375,39.5627
12:50:31.588,3.375,39.6877
12:50:31.593,2.75,39.5002
12:50:31.596,2.625,38.8126
12:50:31.596,2.75,37.0626
12:50:31.602,2.375,36.9376
12:50:31.612,2.5,34.3751
12:50:31.622,1.8125,33.1876
12:50:31.632,1.4375,32.5001
12:50:31.642,1.5,31.3126
12:50:31.655,1.1875,29.4376
12:50:31.664,1.5,27.0626
12:50:31.672,0.6875,24.0001
12:50:31.682,0.125,20.7501
12:50:31.700,-0.9375,17.0001
12:50:31.702,-1.1875,13.3751
12:50:31.736,-4.0625,4.625
12:50:31.741,-4,3.875
12:50:31.742,-4.1875,1.625
12:50:31.747,-3.6875,1.625
12:50:31.754,-4.6875,0.0625
12:50:31.762,-4.875,-2.875
12:50:31.772,-5.75,-4.4375
12:50:31.782,-6.1875,-6
12:50:31.792,-6.0625,-9.0625
12:50:31.802,-5.9375,-10.75
12:50:31.812,-6.625,-13.1251
12:50:31.823,-7.375,-16.0001
12:50:31.833,-6.875,-17.3751
12:50:31.843,-8,-18.8126
12:50:31.856,-7.875,-20.4376
12:50:31.862,-7.9375,-23.1251
12:50:31.873,-7.75,-24.4376
12:50:31.883,-8.3125,-25.9376
12:50:31.893,-9.0625,-26.5626
12:50:31.915,-7.875,-28.4376
12:50:31.922,-9.1875,-27.8126
12:50:31.924,-8.875,-30.8126
12:50:31.937,-8.375,-30.0626
12:50:31.946,-9.125,-31.1251
12:50:31.953,-8.375,-32.0626
12:50:31.964,-9.125,-32.1251
12:50:31.972,-8.875,-33.0001
12:50:31.983,-9.6875,-33.2501
12:50:31.993,-9.1875,-33.9376
12:50:32.002,-9.0625,-33.6876
12:50:32.014,-9.625,-34.4376
12:50:32.022,-9.3125,-35.1876
12:50:32.033,-9.4375,-34.2501
12:50:32.043,-8.8125,-34.5001
12:50:32.053,-9.0625,-35.3751
12:50:32.064,-9.875,-34.5626
12:50:32.076,-9.8125,-35.6876
12:50:32.083,-9.5625,-36.6251
12:50:32.094,-9.9375,-35.8126
12:50:32.123,-9.125,-35.4376
12:50:32.126,-9.3125,-36.8126
12:50:32.129,-9.9375,-35.5001
12:50:32.133,-9.3125,-36.3751
12:50:32.161,-9.75,-35.3126
12:50:32.163,-9.5,-36.3126
12:50:32.167,-9.8125,-37.3126
12:50:32.172,-9.625,-35.8126
12:50:32.198,-9.4375,-36.6251
12:50:32.203,-9.6875,-36.5001
12:50:32.203,-9,-36.0626
12:50:32.239,-10.125,-35.3751
12:50:32.240,-9,-35.3751
12:50:32.242,-9.75,-36.0626
12:50:32.248,-9.875,-34.8126
12:50:32.256,-9.1875,-35.3751
12:50:32.262,-9.875,-33.8126
12:50:32.282,-9.5,-31.3126
12:50:32.284,-8.9375,-26.8751
12:50:32.292,-7.625,-18.9376
12:50:32.303,-6.0625,-8
12:50:32.315,-4.3125,3.4375
12:50:32.323,-1.8125,14.5626
12:50:32.334,-0.5,25.0626
12:50:32.343,1.375,32.3751
12:50:32.354,2.9375,36.7501
12:50:32.364,2.4375,38.8751
12:50:32.374,3.125,37.5626
12:50:32.382,2.875,35.5001
12:50:32.393,2,34.6251
12:50:32.404,2.375,33.1876
12:50:32.413,1.9375,31.2501
12:50:32.422,1.375,29.6876
12:50:32.434,1.1875,28.3126
12:50:32.450,1.25,27.0626
12:50:32.452,0.125,25.0001
12:50:32.462,0.875,22.1251
12:50:32.472,-0.625,19.5001
12:50:32.486,-1,17.3126
12:50:32.494,-1.3125,14.0626
12:50:32.503,-1.5625,9.875
12:50:32.513,-2.1875,8.75
12:50:32.522,-2.75,7.375
12:50:32.532,-2.1875,4.625
12:50:32.543,-2.8125,3.125
12:50:32.552,-3.0625,1.8125
12:50:32.564,-3.75,1.5625
12:50:32.574,-3.8125,0.75
12:50:32.582,-3.6875,-0.875
12:50:32.593,-3.5,-1.4375
12:50:32.603,-4.125,-1.875
12:50:32.613,-4.1875,-2.375
12:50:32.622,-3.75,-4.6875
12:50:32.634,-4.5625,-6.25
12:50:32.644,-5,-7.125
12:50:32.654,-4.8125,-10.25
12:50:32.662,-5,-12.4375
12:50:32.673,-5.4375,-13.6251
12:50:32.682,-5.8125,-16.1876
12:50:32.694,-6.3125,-17.7501
12:50:32.702,-6.25,-18.6251
12:50:32.712,-6.125,-21.4376
12:50:32.723,-6.75,-21.7501
12:50:32.733,-6.8125,-22.6876
12:50:32.744,-6.8125,-24.8126
12:50:32.752,-6.5,-25.0626
12:50:32.763,-7.375,-27.3126
12:50:32.773,-7.5625,-27.0626
12:50:32.784,-7.5625,-28.3126
12:50:32.793,-7.25,-28.0626
12:50:32.825,-7.5625,-29.0001
12:50:32.883,-7.5,-29.0626
12:50:32.914,-8.25,-30.7501
12:50:32.916,-7.625,-29.6876
12:50:32.918,-7.8125,-30.7501
12:50:32.926,-8.0625,-30.8126
12:50:32.926,-7.25,-30.8126
12:50:32.926,-8.875,-31.3751
12:50:32.934,-7.9375,-31.1876
12:50:32.957,-8.5,-31.2501
12:50:32.961,-8.0625,-31.6251
12:50:32.963,-8.25,-32.7501
12:50:32.988,-9.0625,-31.5626
12:50:33.013,-8.8125,-32.5626
12:50:33.016,-8.375,-31.9376
12:50:33.018,-8.4375,-32.1251
12:50:33.022,-8.375,-32.5001
12:50:33.025,-8.5625,-32.7501
12:50:33.036,-8.5625,-31.4376
12:50:33.042,-8.4375,-31.8126
12:50:33.052,-7.5,-32.4376
12:50:33.064,-8.125,-33.3126
12:50:33.076,-9,-33.8126
12:50:33.082,-9,-33.7501
12:50:33.093,-8.5625,-22.4376
12:50:33.103,-7.25,-14.1876
12:50:33.116,-6.0625,-4.5
12:50:33.123,-5.0625,5.9375
12:50:33.133,-2.875,14.7501
12:50:33.143,-0.75,23.6876
12:50:33.152,0.4375,28.3126
12:50:33.162,0.9375,30.8126
12:50:33.174,0.8125,31.9376
12:50:33.184,1.3125,30.0626
12:50:33.195,0.625,29.0626
12:50:33.203,0.125,27.0626
12:50:33.225,0.875,24.2501
12:50:33.229,-0.4375,22.3751
12:50:33.243,-0.3125,21.3126
12:50:33.247,-1,18.9376
12:50:33.262,-1.875,16.9376
12:50:33.264,-1.9375,12.75
12:50:33.272,-2.875,10.875
12:50:33.284,-3.25,6.8125
12:50:33.293,-3.125,3.75
12:50:33.302,-3.8125,2
12:50:33.313,-3.1875,0.25
12:50:33.323,-4.6875,-2.0625
12:50:33.332,-4.6875,-2.6875
12:50:33.343,-4.5625,-3.375
12:50:33.352,-4.9375,-5
12:50:33.364,-5.0625,-6.25
12:50:33.373,-5.9375,-6.125
12:50:33.384,-5.375,-6.8125
12:50:33.392,-4.8125,-7.4375
12:50:33.404,-5.75,-8.625
12:50:33.412,-5.9375,-10
12:50:33.423,-6,-11.125
12:50:33.433,-6.5625,-13.2501
12:50:33.444,-6.375,-13.8126
12:50:33.452,-6.5,-15.8126
12:50:33.464,-6.375,-18.0626
12:50:33.473,-7.3125,-20.8126
12:50:33.484,-7.125,-20.6876
12:50:33.492,-7.1875,-22.6251
12:50:33.504,-7.1875,-24.1251
12:50:33.513,-7.3125,-26.0626
12:50:33.525,-7.3125,-26.2501
12:50:33.533,-7.8125,-27.0001
12:50:33.542,-7.875,-26.6876
12:50:33.574,-8.125,-29.0001
12:50:33.576,-7.75,-29.6251
12:50:33.578,-8,-29.3126
12:50:33.605,-8.0625,-30.0626
12:50:33.606,-8.125,-29.9376
12:50:33.608,-8.4375,-30.3126
12:50:33.613,-7.625,-31.1876
12:50:33.647,-8.375,-31.2501
12:50:33.649,-8.1875,-31.3751
12:50:33.651,-8.75,-31.0001
12:50:33.653,-8.0625,-31.4376
12:50:33.684,-8.6875,-31.5626
12:50:33.686,-8.5,-30.8126
12:50:33.688,-8,-31.9376
12:50:33.696,-8.6875,-30.6251
12:50:33.722,-8.1875,-32.0001
12:50:33.725,-8,-33.4376
12:50:33.727,-8.875,-32.0001
12:50:33.733,-8.5,-32.6251
12:50:33.744,-8.5,-31.6876
12:50:33.753,-8.5625,-32.8126
12:50:33.765,-8.3125,-32.0001
12:50:33.772,-8.5625,-32.5626
12:50:33.783,-8.1875,-31.6251
12:50:33.793,-8.5625,-31.5626
12:50:33.805,-7.75,-31.0001
12:50:33.814,-8.25,-32.6876
12:50:33.823,-8.25,-32.1251
12:50:33.834,-7.875,-32.1876
12:50:33.845,-8,-30.7501
12:50:33.852,-7.9375,-30.6876
12:50:33.864,-7.8125,-30.6876
12:50:33.873,-8.3125,-29.2501
12:50:33.886,-7.25,-24.0626
12:50:33.894,-6.6875,-17.5001
12:50:33.903,-5.0625,-6.875
12:50:33.914,-3.5,2.5625
12:50:33.922,-2.625,12.3125
12:50:33.934,-0.0625,21.0001
12:50:33.943,0.75,28.7501
12:50:33.955,2.3125,34.2501
12:50:33.964,3.5,35.7501
12:50:33.973,2.9375,37.0626
12:50:33.983,3.25,34.6876
12:50:33.994,2.5625,33.8126
12:50:34.003,2.6875,32.2501
12:50:34.013,2.6875,30.3126
12:50:34.025,2.0625,28.8126
12:50:34.034,2.3125,27.6251
12:50:34.043,1.0625,26.5001
12:50:34.053,1.9375,24.1876
12:50:34.062,0.625,21.5626
12:50:34.073,-0.0625,18.0001
12:50:34.083,-0.625,14.5626
12:50:34.095,-1.4375,13.5626
12:50:34.104,-1.1875,10.1875
12:50:34.119,-1.6875,7.5
12:50:34.123,-2.5,5.1875
12:50:34.134,-2.75,4.625
12:50:34.143,-2.3125,3.0625
12:50:34.156,-2.875,0.625
12:50:34.172,-3.3125,0.6875
12:50:34.174,-2.4375,0.125
12:50:34.190,-2.875,-0.875
12:50:34.205,-3.5625,-1.6875
12:50:34.207,-3.75,-2.3125
12:50:34.216,-3.0625,-4
12:50:34.224,-3.5625,-5.9375
12:50:34.254,-4.1875,-7.5625
12:50:34.256,-4.3125,-8
12:50:34.258,-4.5,-10.5
12:50:34.265,-4.4375,-11.3125
12:50:34.294,-4.5625,-13.6251
12:50:34.296,-4.75,-15.7501
12:50:34.298,-5.4375,-15.8126
12:50:34.305,-4.8125,-18.2501
12:50:34.328,-5.375,-20.5001
12:50:34.330,-5.6875,-21.0626
12:50:34.362,-6.125,-21.6876
12:50:34.365,-5.5625,-22.8126
12:50:34.367,-6.25,-23.4376
12:50:34.370,-6.25,-23.9376
12:50:34.375,-5.875,-25.1876
12:50:34.400,-5.875,-25.7501
12:50:34.403,-6.25,-26.3751
12:50:34.404,-6.375,-27.0001
12:50:34.417,-6.3125,-26.9376
12:50:34.423,-6.5625,-27.8751
12:50:34.435,-6.6875,-27.5001
12:50:34.444,-6.375,-27.3751
12:50:34.453,-6.125,-27.7501
12:50:34.464,-6.1875,-28.2501
12:50:34.474,-6.25,-28.6876
12:50:34.485,-6.9375,-28.1876
12:50:34.493,-7.0625,-27.5001
12:50:34.503,-6.9375,-28.6251
12:50:34.513,-6.4375,-27.6251
12:50:34.531,-6.6875,-28.8751
12:50:34.537,-7.1875,-28.2501
12:50:34.544,-6.4375,-28.6876
12:50:34.553,-7.0625,-29.3126
12:50:34.568,-6.625,-28.5001
12:50:34.578,-7.25,-29.6876
12:50:34.583,-7.125,-28.6251
12:50:34.594,-6.8125,-29.0001
12:50:34.606,-6.625,-28.7501
12:50:34.613,-6.6875,-29.1876
12:50:34.623,-6.6875,-29.0001
12:50:34.634,-6.625,-29.0001
12:50:34.643,-6.3125,-28.3751
12:50:34.653,-6.6875,-28.8751
12:50:34.664,-6.1875,-27.8751
12:50:34.673,-6.875,-28.2501
12:50:34.682,-6.9375,-27.8751
12:50:34.694,-6.1875,-26.8126
12:50:34.706,-6.1875,-25.1876
12:50:34.714,-6.1875,-20.4376
12:50:34.724,-5.375,-12.125
12:50:34.733,-3.9375,-2.25
12:50:34.745,-1.875,10.125
12:50:34.753,-0.375,19.6251
12:50:34.763,1.5,30.0626
12:50:34.772,3.8125,37.0626
12:50:34.783,4.3125,42.3127
12:50:34.793,5.4375,44.3127
12:50:34.804,5.5625,43.3127
12:50:34.812,5.4375,43.1877
12:50:34.823,5.4375,41.2502
12:50:34.834,4.125,40.4377
12:50:34.846,4.875,37.5626
12:50:34.853,4.0625,36.9376
12:50:34.870,4.25,35.3126
12:50:34.875,3.1875,34.6251
12:50:34.884,3.4375,31.5001
12:50:34.893,2.75,29.2501
12:50:34.904,2.5,27.2501
12:50:34.913,1.8125,22.4376
12:50:34.922,1.3125,21.0001
12:50:34.933,1.125,18.3751
12:50:34.943,1.125,15.3126
12:50:34.953,0.5,12.625
12:50:34.964,-0.4375,11.3125
12:50:34.973,-0.0625,9.5
12:50:34.985,-1.375,7.4375
12:50:34.994,-1.4375,7.5
12:50:35.022,-1.125,5.9375
12:50:35.025,-1.6875,4.625
12:50:35.028,-1.4375,4.9375
12:50:35.034,-1.5625,3.5
12:50:35.069,-1.8125,2.1875
12:50:35.072,-1.5,0.9375
12:50:35.073,-1.9375,-0.1875
12:50:35.080,-1.6875,-2.9375
12:50:35.109,-2.75,-5.25
12:50:35.112,-3.3125,-7.75
12:50:35.113,-3.5625,-8.3125
12:50:35.118,-2.75,-10.5625
12:50:35.144,-4.0625,-12.875
12:50:35.147,-4.5,-13.5001
12:50:35.150,-4.125,-15.6876
12:50:35.160,-4.4375,-17.3751
12:50:35.184,-4.6875,-18.1876
12:50:35.187,-4.875,-20.0626
12:50:35.189,-5.4375,-21.1251
12:50:35.201,-4.5,-21.5626
12:50:35.209,-4.5,-22.6251
12:50:35.218,-4.875,-22.4376
12:50:35.230,-5.375,-24.3126
12:50:35.246,-5.5,-23.3751
12:50:35.248,-5,-24.5626
12:50:35.261,-4.75,-23.7501
12:50:35.268,-4.3125,-23.9376
12:50:35.278,-4.625,-23.7501
12:50:35.291,-2.6875,-23.0001
12:50:35.298,-1.8125,-21.3126
12:50:35.308,0.375,-18.4376
12:50:35.319,1.5625,-17.3751
12:50:35.329,2.4375,-16.3751
12:50:35.338,3.4375,-16.0001
12:50:35.349,5.3125,-13.4376
12:50:35.359,6.4375,-12.875
12:50:35.368,6.25,-11.625
12:50:35.378,7.0625,-11.1875
12:50:35.391,7.375,-10.1875
12:50:35.398,8,-10.5
12:50:35.408,7.9375,-10.375
12:50:35.420,7.1875,-10.5
12:50:35.435,6.4375,-11.0625
12:50:35.443,6.8125,-11.5625
12:50:35.452,5.9375,-11.75
12:50:35.464,6.1875,-12.5625
12:50:35.474,5.1875,-13.6251
12:50:35.493,3.875,-12.8125
12:50:35.496,4.5,-15.0001
12:50:35.511,3.3125,-14.5626
12:50:35.526,3.9375,-14.8751
12:50:35.531,3.625,-15.0001
12:50:35.545,2.8125,-13.9376
12:50:35.546,3.6875,-13.7501
12:50:35.573,3.375,-11.25
12:50:35.575,4.125,-3.375
12:50:35.577,5.125,5.375
12:50:35.584,5.8125,18.3751
12:50:35.594,8.6875,35.5001
12:50:35.602,12.25,53.8752
12:50:35.620,14.4376,63.8752
12:50:35.624,15.5001,68.4378
12:50:35.634,16.0001,71.0003
12:50:35.644,15.8126,70.2503
12:50:35.653,15.5626,68.3753
12:50:35.664,14.8751,67.3128
12:50:35.673,14.7501,64.7502
12:50:35.683,14.1876,61.7502
12:50:35.698,13.4376,59.6877
12:50:35.703,13.125,58.6877
12:50:35.728,13.4376,55.3752
12:50:35.730,11.875,54.0627
12:50:35.733,10.5625,52.6252
12:50:35.766,11,48.3127
12:50:35.768,10.0625,45.5002
12:50:35.771,9.375,41.7502
12:50:35.801,8.625,37.5001
12:50:35.802,7.5,34.5001
12:50:35.805,7.3125,32.6876
12:50:35.808,6.875,30.1251
12:50:35.838,6.125,27.4376
12:50:35.840,5.625,25.5626
12:50:35.842,3.625,25.0626
12:50:35.873,4.1875,22.3126
12:50:35.889,3.5,21.6251
12:50:35.906,3.125,19.1251
12:50:35.907,2.1875,18.7501
12:50:35.921,2.3125,17.5626
12:50:35.921,2,14.3126
12:50:35.921,1.9375,12.4375
12:50:35.922,1.5625,10.1875
12:50:35.933,0.375,8.3125
12:50:35.943,-0.375,4.4375
12:50:35.954,-1.25,0.5625
12:50:35.964,-1.4375,-2.125
12:50:35.974,-2.25,-5.75
12:50:35.984,-3.875,-8.375
12:50:35.995,-4.0625,-11.1875
12:50:36.005,-4.875,-13.3751
12:50:36.015,-4.375,-15.4376
12:50:36.023,-5.4375,-17.9376
12:50:36.033,-6,-20.0626
12:50:36.044,-6.0625,-21.2501
12:50:36.053,-6.375,-22.6876
12:50:36.063,-6.5625,-24.8751
12:50:36.073,-6.5625,-26.0001
12:50:36.084,-7.125,-26.6251
12:50:36.094,-7.4375,-28.5001
12:50:36.104,-6.5625,-27.2501
12:50:36.114,-6.75,-28.6876
12:50:36.123,-6.5,-28.3126
12:50:36.133,-6.75,-29.3126
12:50:36.143,-6.6875,-28.8751
12:50:36.153,-6.3125,-30.0001
12:50:36.164,-6.25,-29.4376
12:50:36.173,-6.0625,-29.6251
12:50:36.183,-6.4375,-29.8751
12:50:36.193,-6.5,-29.1251
12:50:36.207,-5.5625,-29.8126
12:50:36.213,-6.125,-31.0626
12:50:36.224,-6.25,-30.3751
12:50:36.235,-6.375,-31.3126
12:50:36.243,-5.8125,-29.6251
12:50:36.253,-5.875,-30.9376
12:50:36.266,-5.4375,-30.1876
12:50:36.273,-6.0625,-32.1876
12:50:36.283,-6.1875,-30.9376
12:50:36.294,-6.5625,-31.0001
12:50:36.303,-5.875,-31.3126
12:50:36.313,-5.5,-31.5001
12:50:36.323,-5.625,-30.5626
12:50:36.334,-5.875,-31.0001
12:50:36.343,-6.125,-30.8751
12:50:36.353,-5.625,-30.7501
12:50:36.370,-5.6875,-29.7501
12:50:36.373,-5.875,-27.5001
12:50:36.384,-4.75,-19.3126
12:50:36.393,-4.0625,-11.1875
12:50:36.403,-2.5,0.875
12:50:36.414,-0.875,12.375
12:50:36.423,1.25,22.5626
12:50:36.433,2.5625,32.0001
12:50:36.444,4.5,38.6251
12:50:36.454,4.625,40.5002
12:50:36.464,5.1875,41.5002
12:50:36.486,4.375,38.6876
12:50:36.488,3.625,38.1251
12:50:36.529,3,33.5001
12:50:36.530,2.75,33.3126
12:50:36.531,2.25,29.3751
12:50:36.534,2.4375,28.6876
12:50:36.536,1.3125,25.2501
12:50:36.574,0.8125,22.5001
12:50:36.577,0.125,18.9376
12:50:36.580,-0.25,16.8126
12:50:36.614,-0.9375,13.7501
12:50:36.614,-1.1875,10.125
12:50:36.614,-2.125,7.5625
12:50:36.617,-2.1875,5.75
12:50:36.622,-2.5625,3.0625
12:50:36.623,-3.25,1.1875
12:50:36.655,-3.75,1
12:50:36.657,-3.4375,-1
12:50:36.660,-3.4375,-2.25
12:50:36.663,-4.25,-2.125
12:50:36.674,-4.5625,-2.625
12:50:36.684,-3.9375,-4.0625
12:50:36.696,-4.375,-5.6875
12:50:36.703,-4.5,-5.1875
12:50:36.713,-4.125,-7.1875
12:50:36.724,-4.6875,-9.4375
12:50:36.734,-5.3125,-11.3125
12:50:36.744,-5,-12.875
12:50:36.753,-4.875,-14.6251
12:50:36.763,-6.0625,-16.9376
12:50:36.774,-6.6875,-17.9376
12:50:36.784,-6.75,-20.3126
12:50:36.795,-6.875,-23.5626
12:50:36.811,-6.75,-23.7501
12:50:36.813,-7.25,-25.1251
12:50:36.829,-7.8125,-26.9376
12:50:36.854,-7.4375,-27.3126
12:50:36.856,-8.0625,-28.5626
12:50:36.871,-7.9375,-30.2501
12:50:36.874,-8.25,-30.3126
12:50:36.876,-7.875,-31.1876
12:50:36.883,-8.4375,-31.5001
12:50:36.894,-8,-31.6876
12:50:36.905,-8.3125,-31.8126
12:50:36.914,-8.0625,-32.5626
12:50:36.923,-8.375,-33.0001
12:50:36.935,-7.5625,-32.3126
12:50:36.944,-8.875,-32.4376
12:50:36.953,-8.25,-33.6251
12:50:36.963,-8.5,-33.8126
12:50:36.974,-8.4375,-33.0626
12:50:36.983,-7.5625,-34.5626
12:50:36.993,-8.4375,-34.0626
12:50:37.003,-8.5,-34.1251
12:50:37.014,-7.8125,-34.6251
12:50:37.023,-8.25,-33.7501
12:50:37.033,-7.625,-33.9376
12:50:37.045,-8.125,-33.5626
12:50:37.053,-7.375,-33.1876
12:50:37.063,-7.625,-33.7501
12:50:37.073,-7.5,-33.1876
12:50:37.083,-6.75,-33.4376
12:50:37.093,-7.3125,-33.8751
12:50:37.106,-6.9375,-32.8126
12:50:37.116,-7.1875,-33.5626
12:50:37.128,-7.4375,-33.5626
12:50:37.134,-7.4375,-33.8126
12:50:37.143,-7.625,-33.3751
12:50:37.154,-6.9375,-33.0626
12:50:37.163,-7,-31.9376
12:50:37.173,-6.1875,-31.8751
12:50:37.195,-7.1875,-32.8126
12:50:37.197,-7.375,-31.3751
12:50:37.207,-7.75,-29.9376
12:50:37.241,-6.75,-26.2501
12:50:37.243,-6.875,-19.8126
12:50:37.275,-4.75,-9.9375
12:50:37.278,-3.1875,0.6875
12:50:37.280,-2.0625,13.8751
12:50:37.285,0,22.6251
12:50:37.286,1.6875,31.7501
12:50:37.286,3.25,36.3751
12:50:37.296,4.1875,39.5002
12:50:37.326,4.5,40.6877
12:50:37.329,4.1875,38.8126
12:50:37.331,3.875,38.3126
12:50:37.333,3.625,35.3751
12:50:37.364,3.5625,34.4376
12:50:37.366,3.6875,32.4376
12:50:37.369,3.8125,30.9376
12:50:37.373,2.25,29.5001
12:50:37.396,2.5625,28.6876
12:50:37.398,2.4375,25.7501
12:50:37.403,1.8125,24.2501
12:50:37.414,1.75,21.5626
12:50:37.424,0.8125,18.5626
12:50:37.435,0.75,16.3126
12:50:37.443,-0.5625,13.0625
12:50:37.453,0.3125,11.8125
12:50:37.466,-1.125,8.625
12:50:37.473,-1.6875,7.625
12:50:37.484,-1.125,6.5
12:50:37.497,-1.75,5.125
12:50:37.504,-2.1875,4.5
12:50:37.514,-2.6875,4.5
12:50:37.524,-2.1875,2
12:50:37.533,-2.5625,1.5625
12:50:37.545,-2.5,0.0625
12:50:37.554,-2.9375,0.25
12:50:37.564,-2.8125,-1.6875
12:50:37.573,-2.5625,-4.1875
12:50:37.583,-3.375,-6.375
12:50:37.594,-4.1875,-8.3125
12:50:37.604,-3.6875,-9.25
12:50:37.613,-3.8125,-11.5
12:50:37.624,-4.875,-13.9376
12:50:37.633,-5.4375,-15.2501
12:50:37.644,-4.625,-17.5001
12:50:37.656,-5.8125,-17.3751
12:50:37.664,-5.4375,-19.6876
12:50:37.674,-5.875,-22.2501
12:50:37.683,-5.9375,-21.9376
12:50:37.694,-5.0625,-23.0626
12:50:37.705,-5.5,-25.0626
12:50:37.714,-6.125,-25.1876
12:50:37.723,-6.1875,-25.3126
12:50:37.733,-6.1875,-26.9376
12:50:37.743,-6.3125,-26.1251
12:50:37.754,-6.25,-27.4376
12:50:37.762,-6.5,-27.3751
12:50:37.775,-6.625,-29.0626
12:50:37.785,-6.625,-27.8751
12:50:37.793,-6.4375,-29.1251
12:50:37.803,-6.625,-28.3126
12:50:37.814,-5.875,-28.9376
12:50:37.824,-6.1875,-28.1876
12:50:37.834,-6,-29.3126
12:50:37.843,-6.1875,-29.3126
12:50:37.854,-6.25,-29.3751
12:50:37.870,-6.3125,-29.5626
12:50:37.873,-6.125,-29.3126
12:50:37.884,-6.375,-30.0626
12:50:37.896,-6.4375,-28.8751
12:50:37.903,-5.8125,-30.0001
12:50:37.913,-6.75,-29.3751
12:50:37.923,-6.375,-30.7501
12:50:37.949,-6.5625,-28.9376
12:50:37.951,-6.6875,-30.9376
12:50:37.953,-7.0625,-29.0001
12:50:37.980,-6.25,-29.8126
12:50:37.982,-6.9375,-29.0626
12:50:37.986,-6.0625,-28.8751
12:50:38.016,-6.1875,-28.1876
12:50:38.020,-6.5,-28.7501
12:50:38.021,-5.75,-29.3751
12:50:38.023,-6,-28.1251
12:50:38.057,-5.875,-28.8126
12:50:38.058,-5.875,-27.0626
12:50:38.061,-5.9375,-28.2501
12:50:38.066,-5.9375,-27.0001
12:50:38.091,-6.0625,-28.2501
12:50:38.093,-5.9375,-26.6876
12:50:38.098,-6.125,-27.4376
12:50:38.141,-5.875,-25.2501
12:50:38.142,-5.75,-23.1251
12:50:38.157,-5.125,-16.8126
12:50:38.173,-3.875,-8.0625
12:50:38.173,-1.875,3.9375
12:50:38.173,-0.6875,15.4376
12:50:38.173,0.75,25.9376
12:50:38.181,3.1875,33.1876
12:50:38.188,3.8125,39.0001
12:50:38.199,4.6875,41.5627
12:50:38.208,4.4375,42.5002
12:50:38.219,4.1875,42.0627
12:50:38.230,4.0625,39.2502
12:50:38.246,3.375,37.1876
12:50:38.248,2.625,35.3751
12:50:38.258,2,31.9376
12:50:38.269,2.125,30.9376
12:50:38.278,1.5,28.2501
12:50:38.288,1.1875,27.0626
12:50:38.298,0.9375,26.0001
12:50:38.311,1.0625,24.0001
12:50:38.319,0.625,20.3126
12:50:38.329,-0.375,16.5001
12:50:38.338,-1.125,14.8751
12:50:38.348,-0.9375,11.75
12:50:38.359,-0.875,8.375
12:50:38.368,-1.3125,7.875
12:50:38.378,-0.1875,7.3125
12:50:38.388,-1.125,5.375
12:50:38.398,-1.4375,5.3125
12:50:38.408,-1.8125,4.375
12:50:38.418,-1.375,3.625
12:50:38.428,-1.9375,1.75
12:50:38.440,-2.3125,1.8125
12:50:38.449,-1.9375,1.0625
12:50:38.459,-2.4375,-0.8125
12:50:38.469,-2.5625,-1.8125
12:50:38.478,-2.75,-3.1875
12:50:38.490,-2.8125,-5.3125
12:50:38.498,-3.5625,-7.6875
12:50:38.508,-3.125,-8.5
12:50:38.526,-3.5625,-11.25
12:50:38.532,-3.875,-11.75
12:50:38.547,-3,-13.7501
12:50:38.550,-4.1875,-14.8126
12:50:38.565,-3.9375,-16.6876
12:50:38.569,-3.9375,-17.9376
12:50:38.578,-4.6875,-17.5626
12:50:38.589,-3.9375,-19.3751
12:50:38.599,-4.3125,-21.1876
12:50:38.608,-3.6875,-20.7501
12:50:38.623,-3.875,-21.0626
12:50:38.629,-5.0625,-21.7501
12:50:38.638,-3.875,-22.3751
12:50:38.648,-4.75,-22.2501
12:50:38.677,-4.5625,-22.8126
12:50:38.679,-4.9375,-24.6876
12:50:38.681,-5.4375,-24.0001
12:50:38.722,-5.3125,-24.8126
12:50:38.723,-5.6875,-26.4376
12:50:38.726,-5.4375,-26.3126
12:50:38.728,-4.8125,-25.5626
12:50:38.733,-5.3125,-25.7501
12:50:38.738,-4.8125,-25.6876
12:50:38.769,-5.6875,-25.6251
12:50:38.772,-4.875,-26.5001
12:50:38.775,-5.1875,-25.1876
12:50:38.778,-4.6875,-26.6251
12:50:38.809,-5.5,-26.8126
12:50:38.811,-5,-27.5001
12:50:38.813,-5.25,-26.3751
12:50:38.818,-4.625,-25.7501
12:50:38.831,-5.125,-25.5626
12:50:38.838,-4.9375,-25.7501
12:50:38.848,-5.0625,-26.3751
12:50:38.859,-4.75,-25.5001
12:50:38.869,-4.5,-26.1876
12:50:38.880,-5.125,-24.9376
12:50:38.888,-4.5,-25.8751
12:50:38.899,-5.125,-25.5001
12:50:38.908,-5.3125,-25.0001
12:50:38.918,-4.6875,-25.3751
12:50:38.932,-4.125,-24.5001
12:50:38.938,-4.9375,-25.3126
12:50:38.948,-4.375,-23.8751
12:50:38.959,-4.875,-25.3126
12:50:38.969,-4.375,-24.2501
12:50:38.979,-4.9375,-25.1876
12:50:38.988,-4.625,-23.8751
12:50:38.998,-4.6875,-24.3126
12:50:39.008,-4.3125,-23.5001
12:50:39.018,-4,-23.0001
12:50:39.029,-4.5625,-21.1251
12:50:39.039,-4.375,-19.6876
12:50:39.048,-3.25,-12.5625
12:50:39.059,-1.3125,-4.0625
12:50:39.069,3.8125,10.4375
12:50:39.083,11.9375,30.6251
12:50:39.094,21.7501,53.4377
12:50:39.104,30.8751,73.9378
12:50:39.114,39.3127,94.0004
12:50:39.123,44.9377,108.7504
12:50:39.133,46.7502,114.2504
12:50:39.144,46.8127,114.8754
12:50:39.153,47.0002,116.6254
12:50:39.165,46.1252,114.8129
12:50:39.173,45.3127,114.5629
12:50:39.183,43.9377,111.0629
12:50:39.193,43.2502,110.3129
12:50:39.203,42.8752,109.5004
12:50:39.216,42.3752,109.8754
12:50:39.223,40.5627,106.8754
12:50:39.233,39.1876,105.5629
12:50:39.244,39.8752,106.1254
12:50:39.255,40.5002,105.4379
12:50:39.265,40.1877,107.8754
12:50:39.273,40.5002,105.8129
12:50:39.283,39.0626,103.5629
12:50:39.294,38.0001,101.8754
12:50:39.303,36.8751,99.0004
12:50:39.315,35.6876,97.0629
12:50:39.324,34.1876,93.7504
12:50:39.334,32.5626,91.1254
12:50:39.343,31.5626,88.8128
12:50:39.353,30.7501,85.8753
12:50:39.367,30.6876,83.3753
12:50:39.402,29.3751,81.0003
12:50:39.404,29.1876,79.5003
12:50:39.407,28.8751,77.8128
12:50:39.421,28.8126,75.8128
12:50:39.423,27.1251,73.6878
12:50:39.428,25.5626,69.8128
12:50:39.454,24.8126,65.0627
12:50:39.457,22.9376,61.5627
12:50:39.491,21.8751,56.7502
12:50:39.506,19.8126,52.3127
12:50:39.507,18.3751,48.0002
12:50:39.509,16.6876,41.5002
12:50:39.513,12.9375,35.0001
12:50:39.513,12.375,30.3126
12:50:39.515,11.875,29.6251
12:50:39.546,12.125,27.7501
12:50:39.549,12.5,28.1876
12:50:39.551,11.6875,26.3751
12:50:39.553,9.1875,21.6876
12:50:39.564,7.125,16.8751
12:50:39.574,7.75,14.9376
12:50:39.584,9.1875,17.9376
12:50:39.593,10.0625,20.7501
12:50:39.605,11.8125,22.4376
12:50:39.614,13.2501,23.0001
12:50:39.623,13.6251,24.3751
12:50:39.634,14.3751,23.8126
12:50:39.643,13.5001,20.1251
12:50:39.655,13.4376,18.8126
12:50:39.663,12.1875,15.0626
12:50:39.674,8.75,8.125
12:50:39.684,5.375,0.0625
12:50:39.693,3.8125,-3.25
12:50:39.703,2.875,-7.5625
12:50:39.713,2.625,-11.0625
12:50:39.724,2.25,-10.5625
12:50:39.733,3.9375,-10.625
12:50:39.744,3.75,-8.75
12:50:39.756,5.1875,-6.125
12:50:39.764,5.875,-5.0625
12:50:39.774,4.6875,-4.4375
12:50:39.784,5.75,-4.8125
12:50:39.793,5.4375,-3.6875
12:50:39.806,4.9375,-6.25
12:50:39.813,3.9375,-7.875
12:50:39.833,5.25,-6.625
12:50:39.841,6.0625,-6.875
12:50:39.856,4.5625,-5.875
12:50:39.858,5.25,-3.6875
12:50:39.866,6.5625,2.1875
12:50:39.874,9.5,13.1251
12:50:39.884,10.6875,25.1876
12:50:39.893,13.9376,38.9376
12:50:39.907,15.6251,50.8752
12:50:39.920,18.0626,59.0627
12:50:39.925,18.2501,63.3752
12:50:39.934,19.3751,65.0627
12:50:39.943,16.9376,64.4377
12:50:39.953,16.0626,60.7502
12:50:39.964,13.2501,55.1877
12:50:39.975,11.8125,49.8752
12:50:39.984,10.9375,47.5627
12:50:39.995,11.375,48.0002
12:50:40.004,13.2501,49.1877
12:50:40.015,14.8126,51.7502
12:50:40.023,15.1251,52.7502
12:50:40.033,15.1876,52.2502
12:50:40.044,14.0626,48.8752
12:50:40.056,12.4375,44.5002
12:50:40.063,12.375,41.4377
12:50:40.074,13.125,40.5002
12:50:40.084,13.9376,41.5627
12:50:40.094,14.7501,41.6877
12:50:40.104,14.4376,39.4377
12:50:40.113,13.3751,38.2501
12:50:40.124,11.9375,36.3126
12:50:40.133,11.625,32.9376
12:50:40.145,11.125,31.0626
12:50:40.154,11.0625,30.3751
12:50:40.164,10.25,29.8751
12:50:40.174,10.25,28.3751
12:50:40.205,10,26.0001
12:50:40.207,8,24.2501
12:50:40.210,6,18.6251
12:50:40.214,4.5,13.9376
12:50:40.242,5,11.75
12:50:40.244,5.875,11.25
12:50:40.249,7.25,13.3751
12:50:40.254,6.8125,13
12:50:40.283,6.5625,10.0625
12:50:40.286,3.875,6.25
12:50:40.288,2.125,0.75
12:50:40.324,1.75,-2.3125
12:50:40.326,2.4375,-3.25
12:50:40.329,2.8125,-4.5
12:50:40.334,2.9375,-5.4375
12:50:40.334,2.4375,-5.75
12:50:40.357,2.3125,-7.5625
12:50:40.360,3.375,-6.1875
12:50:40.364,3.4375,-7.3125
12:50:40.373,3.8125,-9.375
12:50:40.386,4.125,-10.0625
12:50:40.394,3.75,-10.625
12:50:40.404,3.125,-11.5
12:50:40.414,3.25,-13
12:50:40.423,3.1875,-14.8751
12:50:40.433,2.375,-15.2501
12:50:40.443,2.5,-15.5001
12:50:40.453,1.9375,-16.6876
12:50:40.464,2.0625,-16.6876
12:50:40.473,1.875,-18.1251
12:50:40.484,1.4375,-18.2501
