timestamp,Red,IR
14:06:03.996,9.6875,14.7501
14:06:04.009,12,23.1251
14:06:04.009,14.0001,29.8751
14:06:04.012,16.7501,33.6251
14:06:04.016,17.6876,37.5001
14:06:04.046,18.5001,40.6252
14:06:04.051,18.8751,44.7502
14:06:04.056,20.0626,46.1877
14:06:04.078,20.0626,47.2502
14:06:04.080,20.8751,49.4377
14:06:04.082,21.5626,50.0002
14:06:04.086,21.1876,51.3752
14:06:04.115,21.7501,52.4377
14:06:04.116,21.5626,53.1877
14:06:04.118,21.3751,53.8752
14:06:04.149,21.1251,53.1252
14:06:04.151,20.2501,54.5002
14:06:04.153,19.8126,52.3752
14:06:04.160,19.6251,50.4377
14:06:04.165,18.1876,48.0002
14:06:04.175,17.1251,47.0002
14:06:04.183,16.3126,43.6252
14:06:04.194,14.8126,40.8127
14:06:04.203,13.4376,38.8126
14:06:04.214,12.9375,35.9376
14:06:04.223,11.875,34.1251
14:06:04.249,10.9375,32.1876
14:06:04.251,10.25,29.8126
14:06:04.254,9.875,29.3126
14:06:04.265,9.25,27.1876
14:06:04.273,8.625,25.4376
14:06:04.283,8.5625,24.5001
14:06:04.293,8.25,23.7501
14:06:04.303,7.8125,22.6876
14:06:04.312,7.875,21.7501
14:06:04.323,8.125,20.5001
14:06:04.333,6.3125,18.9376
14:06:04.342,6.5,17.8751
14:06:04.352,4.6875,16.6876
14:06:04.363,5.1875,14.2501
14:06:04.380,3.4375,12.25
14:06:04.385,2.9375,11
14:06:04.400,2.3125,8.875
14:06:04.408,1.1875,7.25
14:06:04.414,0.6875,4.5
14:06:04.432,-0.5625,2.9375
14:06:04.438,-0.8125,0.25
14:06:04.444,-2.0625,-1.4375
14:06:04.461,-2.5625,-3.8125
14:06:04.475,-3.25,-6.375
14:06:04.477,-4,-8.3125
14:06:04.487,-4.75,-10.875
14:06:04.493,-5.75,-12
14:06:04.509,-6.375,-14.7501
14:06:04.518,-7,-16.8751
14:06:04.523,-7.625,-18.8751
14:06:04.533,-8.0625,-20.3126
14:06:04.545,-8.9375,-21.7501
14:06:04.553,-10,-23.5001
14:06:04.564,-10.9375,-25.3126
14:06:04.574,-11.1875,-27.7501
14:06:04.583,-11.1875,-28.9376
14:06:04.594,-12.5625,-30.9376
14:06:04.603,-12.875,-32.8126
14:06:04.612,-14.1876,-35.0001
14:06:04.623,-14.5626,-36.8751
14:06:04.633,-15.1876,-38.7501
14:06:04.644,-16.4376,-40.7502
14:06:04.653,-17.1876,-42.9377
14:06:04.663,-17.7501,-45.3127
14:06:04.674,-18.6251,-47.1252
14:06:04.683,-19.6251,-49.8752
14:06:04.692,-19.8126,-51.5627
14:06:04.703,-21.2501,-52.7502
14:06:04.713,-21.0001,-55.3127
14:06:04.744,-20.4376,-53.1252
14:06:04.746,-18.8126,-49.5002
14:06:04.757,-15.0001,-40.6252
14:06:04.759,-8.375,-29.0001
14:06:04.764,-2.5625,-14.4376
14:06:04.795,3.4375,-0.75
14:06:04.798,8,10.3125
14:06:04.800,11.5625,20.1876
14:06:04.804,14.2501,27.4376
14:06:04.835,15.9376,32.8126
14:06:04.837,17.5001,37.5626
14:06:04.839,19.4376,42.5002
14:06:04.848,19.7501,46.5002
14:06:04.877,21.0626,48.5627
14:06:04.879,21.3751,50.7502
14:06:04.881,22.6251,53.6252
14:06:04.898,22.4376,55.3127
14:06:04.902,23.5626,57.8127
14:06:04.909,23.3751,59.3752
14:06:04.919,24.3751,60.5002
14:06:04.927,24.3126,61.5627
14:06:04.939,24.1251,62.7502
14:06:04.949,23.3751,63.2502
14:06:04.959,23.2501,63.8752
14:06:04.969,23.5626,62.3752
14:06:04.979,22.4376,60.8127
14:06:04.991,22.2501,59.4377
14:06:04.998,19.9376,57.8752
14:06:05.009,19.6251,54.7502
14:06:05.020,17.5626,52.0627
14:06:05.029,15.8751,49.4377
14:06:05.038,15.5001,46.6877
14:06:05.049,15.0001,44.6877
14:06:05.059,14.1876,42.8127
14:06:05.068,13.9376,41.1877
14:06:05.080,12.5,40.1877
14:06:05.089,12.8125,38.6876
14:06:05.100,12.0625,37.5001
14:06:05.109,11.1875,36.5626
14:06:05.119,11.25,34.5626
14:06:05.129,10.5,34.0626
14:06:05.139,10.75,32.3126
14:06:05.150,9.9375,31.4376
14:06:05.160,9.0625,29.1251
14:06:05.170,8.4375,27.6876
14:06:05.177,7.1875,26.3751
14:06:05.189,6.5625,23.3126
14:06:05.199,6.1875,22.2501
14:06:05.210,5.3125,20.1876
14:06:05.219,4.5625,18.0626
14:06:05.229,3.875,15.2501
14:06:05.239,2.875,14.0626
14:06:05.248,2.125,12.625
14:06:05.260,1.4375,9.5
14:06:05.269,1.1875,8.4375
14:06:05.279,-0.1875,5.625
14:06:05.289,-1.4375,3.75
14:06:05.301,-1.6875,0.8125
14:06:05.308,-3.375,-1.3125
14:06:05.319,-3.125,-3.9375
14:06:05.328,-4.25,-5
14:06:05.339,-5.0625,-7.125
14:06:05.350,-5.875,-9.625
14:06:05.359,-6.6875,-11.4375
14:06:05.370,-6.9375,-13.7501
14:06:05.378,-7.875,-15.5001
14:06:05.387,-8.6875,-17.6251
14:06:05.399,-9.1875,-19.6251
14:06:05.409,-9.4375,-20.9376
14:06:05.442,-10.875,-22.6876
14:06:05.443,-11.6875,-24.8751
14:06:05.445,-12.1875,-27.7501
14:06:05.448,-13.0625,-28.6251
14:06:05.486,-13.5626,-31.5626
14:06:05.486,-13.8751,-33.1876
14:06:05.489,-15.6876,-37.0626
14:06:05.494,-16.0001,-38.6876
14:06:05.502,-17.5001,-40.7502
14:06:05.531,-18.0626,-44.3752
14:06:05.533,-18.7501,-45.1877
14:06:05.535,-20.0626,-45.8127
14:06:05.539,-19.8751,-48.7502
14:06:05.568,-18.7501,-47.3127
14:06:05.569,-17.3126,-43.4377
14:06:05.571,-12.9375,-35.0626
14:06:05.589,-7.5625,-23.0001
14:06:05.590,-1.75,-9.25
14:06:05.600,3.0625,3.0625
14:06:05.608,7.125,13
14:06:05.620,10.4375,21.2501
14:06:05.629,12,27.1251
14:06:05.640,14.2501,32.8751
14:06:05.649,16.3126,36.9376
14:06:05.657,17.5626,41.4377
14:06:05.670,17.9376,44.5002
14:06:05.679,19.6876,46.7502
14:06:05.690,19.9376,48.5002
14:06:05.699,20.2501,51.5627
14:06:05.708,21.3126,52.3752
14:06:05.719,21.1251,54.5002
14:06:05.728,22.1876,55.0002
14:06:05.745,22.0626,57.3752
14:06:05.754,22.2501,58.2502
14:06:05.760,21.9376,59.0627
14:06:05.777,22.3126,58.6877
14:06:05.784,21.8126,57.5627
14:06:05.789,20.9376,56.8127
14:06:05.804,19.6876,55.8127
14:06:05.813,19.6876,52.5002
14:06:05.819,18.5626,51.0002
14:06:05.830,16.9376,47.2502
14:06:05.839,15.8751,45.4377
14:06:05.854,14.9376,42.2502
14:06:05.863,13.6251,39.5627
14:06:05.869,13.5001,37.6251
14:06:05.879,11.875,36.0626
14:06:05.890,11.6875,34.4376
14:06:05.900,10.8125,33.1251
14:06:05.908,10.1875,32.0626
14:06:05.919,10.1875,30.1251
14:06:05.930,9.625,28.3751
14:06:05.939,9.3125,28.1251
14:06:05.950,9.125,26.8126
14:06:05.959,8.1875,25.7501
14:06:05.969,8.5,24.9376
14:06:05.977,7.375,23.2501
14:06:05.989,7.1875,21.8751
14:06:05.998,6.6875,20.1251
14:06:06.009,5.3125,18.3751
14:06:06.019,4.5,16.5001
14:06:06.029,3.875,13.5626
14:06:06.039,3.4375,12.5
14:06:06.049,2.625,10.0625
14:06:06.059,1.9375,8.5
14:06:06.071,0.75,6.9375
14:06:06.079,0.9375,4.1875
14:06:06.088,-0.8125,3.125
14:06:06.099,-1.4375,0.5625
14:06:06.109,-1.8125,-1.8125
14:06:06.119,-2.625,-3.3125
14:06:06.129,-3.25,-6.125
14:06:06.139,-3.8125,-7.1875
14:06:06.149,-4.375,-8.625
14:06:06.160,-5.1875,-10.375
14:06:06.169,-6.0625,-12.1875
14:06:06.179,-6.5,-14.3126
14:06:06.189,-6.6875,-15.3126
14:06:06.199,-7.8125,-17.0626
14:06:06.224,-8.25,-19.0626
14:06:06.227,-9.375,-20.6251
14:06:06.230,-9.375,-22.5001
14:06:06.264,-10.6875,-24.1251
14:06:06.267,-11.3125,-26.5626
14:06:06.268,-12.6875,-28.6251
14:06:06.270,-13.2501,-30.6251
14:06:06.279,-13.3126,-31.8751
14:06:06.307,-14.5626,-33.5001
14:06:06.309,-14.8751,-36.6876
14:06:06.312,-15.6876,-37.6251
14:06:06.321,-15.7501,-38.2501
14:06:06.353,-14.8751,-37.0626
14:06:06.355,-13.6876,-34.8126
14:06:06.358,-10.125,-28.8751
14:06:06.362,-5.6875,-18.4376
14:06:06.391,-1.625,-8.6875
14:06:06.392,3.0625,1
14:06:06.395,5.9375,11.5
14:06:06.401,9.25,16.9376
14:06:06.409,11,23.1251
14:06:06.420,12.5,28.6251
14:06:06.430,14.6251,31.5001
14:06:06.439,15.6876,36.0626
14:06:06.449,16.3751,37.1251
14:06:06.460,16.2501,40.1877
14:06:06.469,16.8751,41.0627
14:06:06.479,17.3126,42.3127
14:06:06.489,18.3126,43.3127
14:06:06.499,17.7501,44.8752
14:06:06.509,17.9376,45.1877
14:06:06.520,17.8126,45.0627
14:06:06.528,17.9376,45.6877
14:06:06.539,17.8126,45.3127
14:06:06.549,17.6876,44.9377
14:06:06.559,16.1876,43.8127
14:06:06.569,15.6876,41.0627
14:06:06.581,14.6876,40.1252
14:06:06.589,14.0626,37.4376
14:06:06.600,12.75,34.4376
14:06:06.610,11.4375,31.1251
14:06:06.619,9.6875,29.0626
14:06:06.629,9.1875,27.1251
14:06:06.639,8.875,24.6876
14:06:06.649,8,22.6876
14:06:06.660,7.125,22.1876
14:06:06.669,6.125,19.7501
14:06:06.679,6.6875,18.5001
14:06:06.689,5.9375,18.3126
14:06:06.700,5.6875,17.2501
14:06:06.709,4.9375,16.1251
14:06:06.719,4.3125,14.6876
14:06:06.729,3.75,14.1876
14:06:06.763,3.875,12
14:06:06.764,3.0625,11.5625
14:06:06.766,2.375,10.5
14:06:06.769,1.5,7.5
14:06:06.783,0.9375,6.375
14:06:06.792,1.25,5.25
14:06:06.800,-0.4375,4.125
14:06:06.809,-1.25,2.125
14:06:06.819,-2.25,-0.875
14:06:06.830,-3.125,-2.125
14:06:06.839,-3.3125,-4.5625
14:06:06.849,-3.9375,-6
14:06:06.861,-4.875,-8.125
14:06:06.869,-5.8125,-10.6875
14:06:06.880,-5.9375,-12.5625
14:06:06.889,-6.8125,-14.7501
14:06:06.904,-7.5625,-15.8751
14:06:06.914,-8.4375,-18.7501
14:06:06.924,-9,-20.5001
14:06:06.935,-9.0625,-21.5001
14:06:06.949,-10.375,-23.1251
14:06:06.955,-10.9375,-24.5626
14:06:06.986,-11.875,-27.5626
14:06:06.988,-12.4375,-28.4376
14:06:06.990,-13.7501,-30.1251
14:06:06.993,-13.5626,-32.0001
14:06:07.023,-14.4376,-33.6876
14:06:07.024,-15.3126,-35.1251
14:06:07.027,-15.5626,-37.6876
14:06:07.057,-16.6876,-38.8126
14:06:07.057,-16.8751,-41.4377
14:06:07.063,-17.0626,-43.0002
14:06:07.067,-19.1251,-45.2502
14:06:07.102,-19.7501,-48.7502
14:06:07.104,-19.6876,-48.8752
14:06:07.130,-19.6251,-49.1877
14:06:07.131,-18.4376,-47.1252
14:06:07.131,-16.5626,-42.6877
14:06:07.133,-11.9375,-33.4376
14:06:07.162,-7.5,-22.8751
14:06:07.163,-2.375,-11.3125
14:06:07.164,1.5,0
14:06:07.179,4.6875,7.5625
14:06:07.181,7.875,15.1251
14:06:07.195,10.0625,20.8126
14:06:07.198,11.375,25.1876
14:06:07.211,12.9375,28.8751
14:06:07.219,13.5626,32.6251
14:06:07.224,14.8126,34.6876
14:06:07.234,15.0626,37.0626
14:06:07.245,16.0001,39.1251
14:06:07.255,16.9376,40.9377
14:06:07.264,16.8126,42.9377
14:06:07.273,17.3751,44.1252
14:06:07.284,17.5001,44.6877
14:06:07.294,17.8751,46.7502
14:06:07.305,18.6876,47.2502
14:06:07.315,17.6251,47.0627
14:06:07.324,17.5626,47.8752
14:06:07.334,17.2501,47.5627
14:06:07.344,16.1876,46.0002
14:06:07.354,15.8751,43.5627
14:06:07.365,14.3751,41.1252
14:06:07.373,13.1251,38.6251
14:06:07.385,12.25,37.2501
14:06:07.396,11.4375,33.2501
14:06:07.404,10.9375,30.8751
14:06:07.414,9.8125,29.3126
14:06:07.424,8.5,27.3751
14:06:07.434,7.6875,25.5626
14:06:07.444,7.125,23.9376
14:06:07.454,6.5625,22.3751
14:06:07.464,6.5625,20.5626
14:06:07.474,4.9375,20.9376
14:06:07.485,5.375,18.5626
14:06:07.494,4.4375,17.7501
14:06:07.504,4.0625,16.6251
14:06:07.519,3.6875,14.6251
14:06:07.529,3.1875,13.3751
14:06:07.540,3.5,12.1875
14:06:07.550,1.625,10.6875
14:06:07.559,1.6875,9.0625
14:06:07.569,0.6875,7.75
14:06:07.579,-0.375,6.25
14:06:07.589,-0.9375,4.5
14:06:07.600,-1.75,1.25
14:06:07.609,-2.1875,0.6875
14:06:07.619,-3.125,-2.1875
14:06:07.629,-3.4375,-3.5
14:06:07.639,-3.625,-5.25
14:06:07.650,-5,-7.1875
14:06:07.660,-5.3125,-9.375
14:06:07.671,-6.5,-10.25
14:06:07.707,-7.0625,-12.9375
14:06:07.707,-8.5,-14.8751
14:06:07.711,-8.4375,-17.8126
14:06:07.713,-9.8125,-19.3751
14:06:07.743,-10.4375,-20.3751
14:06:07.746,-10.375,-22.4376
14:06:07.747,-11.875,-23.0626
14:06:07.749,-12.0625,-26.4376
14:06:07.778,-12.4375,-27.7501
14:06:07.780,-13.1251,-29.3751
14:06:07.783,-13.7501,-31.1251
14:06:07.813,-14.3751,-32.3126
14:06:07.816,-15.6251,-35.3126
14:06:07.818,-16.2501,-37.4376
14:06:07.825,-17.2501,-37.8751
14:06:07.849,-18.1251,-41.0627
14:06:07.849,-18.0626,-43.3752
14:06:07.856,-19.5001,-45.6252
14:06:07.865,-20.1876,-47.7502
14:06:07.876,-21.1251,-49.3127
14:06:07.886,-20.9376,-49.0002
14:06:07.895,-19.5626,-46.9377
14:06:07.903,-17.3126,-43.0002
14:06:07.914,-12.625,-33.8751
14:06:07.924,-7.875,-21.8126
14:06:07.934,-3.375,-11.25
14:06:07.945,1.375,-0.625
14:06:07.954,5.6875,11.125
14:06:07.964,8.0625,18.3126
14:06:07.975,11,24.2501
14:06:07.985,12.125,27.9376
14:06:07.994,13.6251,31.1876
14:06:08.003,14.3751,33.0001
14:06:08.015,14.8751,37.5626
14:06:08.043,16.0001,38.8126
14:06:08.044,16.7501,41.8752
14:06:08.049,17.5001,41.7502
14:06:08.056,17.2501,44.0627
14:06:08.065,18.2501,44.5627
14:06:08.074,18.0001,47.1877
14:06:08.084,18.8126,46.8752
14:06:08.094,18.5001,48.0627
14:06:08.104,18.8751,47.5627
14:06:08.114,17.5626,46.5627
14:06:08.124,17.2501,46.8127
14:06:08.135,17.4376,44.8127
14:06:08.145,16.1251,42.1252
14:06:08.154,14.0001,39.6252
14:06:08.164,13.2501,38.3126
14:06:08.174,11.5625,35.0626
14:06:08.184,11.4375,32.7501
14:06:08.194,10.125,30.7501
14:06:08.204,9.1875,28.7501
14:06:08.215,8.6875,26.4376
14:06:08.225,7.6875,25.5626
14:06:08.234,7.625,23.0001
14:06:08.244,6.8125,21.5001
14:06:08.254,7.125,21.0626
14:06:08.263,6.25,20.1251
14:06:08.274,5.75,19.6251
14:06:08.287,6.3125,17.9376
14:06:08.296,5.4375,16.9376
14:06:08.305,5.6875,16.1251
14:06:08.314,5.1875,14.8751
14:06:08.324,4.4375,13.9376
14:06:08.335,3.625,12.4375
14:06:08.344,3.5625,11.0625
14:06:08.356,2.875,9.8125
14:06:08.375,2.25,7.5
14:06:08.377,1.125,6
14:06:08.384,1.0625,4.6875
14:06:08.422,-0.0625,2.6875
14:06:08.424,-1.5625,1
14:06:08.426,-1.75,-2.125
14:06:08.429,-3.0625,-2.875
14:06:08.435,-2.9375,-6.125
14:06:08.464,-4.4375,-7.25
14:06:08.522,-4.5,-9.75
14:06:08.524,-5.4375,-11.5625
14:06:08.546,-6.0625,-12.4375
14:06:08.546,-5.9375,-15.6251
14:06:08.546,-7.0625,-16.2501
14:06:08.547,-7.3125,-18.0626
14:06:08.560,-7.9375,-19.1876
14:06:08.576,-9.125,-21.8126
14:06:08.576,-9.125,-23.2501
14:06:08.576,-9.75,-25.0626
14:06:08.576,-11.1875,-26.6876
14:06:08.591,-10.875,-28.7501
14:06:08.594,-12.125,-30.0001
14:06:08.599,-12.3125,-32.5001
14:06:08.609,-13.3751,-33.5001
14:06:08.621,-14.3751,-36.4376
14:06:08.630,-14.4376,-37.8751
14:06:08.639,-15.8126,-39.8127
14:06:08.649,-15.4376,-41.0002
14:06:08.666,-15.5001,-40.5627
14:06:08.669,-14.4376,-38.0626
14:06:08.680,-11.4375,-33.1251
14:06:08.689,-6.875,-23.3751
14:06:08.699,-1.5625,-12.4375
14:06:08.709,2.25,-1.9375
14:06:08.719,5.5,6.6875
14:06:08.729,12.75,23.6251
14:06:08.739,14.1251,29.4376
14:06:08.749,15.6251,31.7501
14:06:08.760,16.2501,35.1251
14:06:08.770,17.3751,36.8751
14:06:08.778,17.8126,38.8751
14:06:08.789,18.8126,40.6877
14:06:08.799,18.7501,42.3127
14:06:08.809,19.1251,42.5627
14:06:08.820,19.3751,44.2502
14:06:08.829,19.8126,44.1877
14:06:08.839,19.3751,45.3752
14:06:08.849,19.8126,45.1877
14:06:08.860,19.4376,44.5627
14:06:08.869,18.6876,44.3752
14:06:08.879,17.2501,42.1252
14:06:08.890,16.6251,41.6252
14:06:08.900,16.0001,39.0001
14:06:08.909,14.6251,35.3751
14:06:08.920,13.2501,34.5001
14:06:08.930,12.8125,31.3751
14:06:08.939,11.875,28.7501
14:06:08.950,10.25,27.6251
14:06:08.960,9.625,25.5001
14:06:08.969,9.5625,23.3751
14:06:08.979,8.375,21.2501
14:06:08.989,8.25,20.5001
14:06:08.999,8.4375,19.8126
14:06:09.008,7.4375,18.7501
14:06:09.020,7.3125,18.3126
14:06:09.029,6.6875,16.8126
14:06:09.045,6.75,16.3751
14:06:09.051,5.8125,14.8751
14:06:09.059,6.0625,14.0001
14:06:09.069,4.5,12.75
14:06:09.079,4.0625,10.5
14:06:09.089,3.25,9.4375
14:06:09.100,2.25,7.875
14:06:09.109,1.875,5.4375
14:06:09.120,0.75,4.5625
14:06:09.130,0.3125,2.375
14:06:09.143,0.25,0.6875
14:06:09.178,-1.0625,-1.3125
14:06:09.180,-1.75,-2.875
14:06:09.181,-2.125,-4.8125
14:06:09.182,-3.0625,-6.1875
14:06:09.191,-3.8125,-8.875
14:06:09.217,-4.5625,-9.75
14:06:09.222,-5.25,-12.6875
14:06:09.225,-6.4375,-13.1876
14:06:09.230,-6.6875,-16.1876
14:06:09.239,-7.625,-17.3126
14:06:09.268,-8.25,-19.3126
14:06:09.270,-8.4375,-21.1876
14:06:09.273,-9.75,-22.7501
14:06:09.281,-10.1875,-24.5626
14:06:09.315,-10.375,-26.3126
14:06:09.316,-11.8125,-28.1876
14:06:09.319,-12.4375,-31.6876
14:06:09.333,-13,-32.6251
14:06:09.336,-14.2501,-35.8751
14:06:09.341,-14.3126,-37.2501
14:06:09.349,-15.1876,-37.9376
14:06:09.360,-15.3126,-39.2502
14:06:09.369,-14.3126,-36.1876
14:06:09.379,-11.9375,-31.4376
14:06:09.388,-7.8125,-24.1876
14:06:09.400,-2.3125,-14.2501
14:06:09.416,0.5625,-3.875
14:06:09.421,4.875,4.875
14:06:09.430,8.4375,13.1876
14:06:09.440,10.125,20.6251
14:06:09.449,12.25,24.3751
14:06:09.459,13.4376,29.8126
14:06:09.470,15.2501,32.7501
14:06:09.480,16.3126,36.8126
14:06:09.490,17.1251,38.3751
14:06:09.499,17.9376,40.1252
14:06:09.509,18.3751,42.4377
14:06:09.520,19.1251,43.9377
14:06:09.529,19.8751,45.2502
14:06:09.539,19.1876,47.3752
14:06:09.550,19.8751,47.1877
14:06:09.559,20.1251,48.0002
14:06:09.569,19.8126,49.0002
14:06:09.580,20.0626,49.2502
14:06:09.589,19.4376,49.0002
14:06:09.601,18.1251,47.4377
14:06:09.609,17.8751,45.6877
14:06:09.619,16.4376,43.1877
14:06:09.630,15.0626,41.3127
14:06:09.639,14.2501,38.6251
14:06:09.648,12.625,35.5001
14:06:09.659,11.5625,33.6876
14:06:09.670,11.125,31.4376
14:06:09.680,10.125,28.5001
14:06:09.689,8.4375,26.8126
14:06:09.700,7.9375,25.5626
14:06:09.708,7.875,24.1251
14:06:09.720,7,22.5626
14:06:09.729,6.4375,22.0626
14:06:09.739,6.25,19.8126
14:06:09.749,5.125,19.5001
14:06:09.760,4.9375,18.3751
14:06:09.769,4.6875,16.9376
14:06:09.779,4.5,16.1876
14:06:09.794,4.125,15.0001
14:06:09.810,2.8125,12.875
14:06:09.817,1.6875,12.75
14:06:09.819,1.6875,9.6875
14:06:09.854,1.375,7.25
14:06:09.882,-0.0625,6.875
14:06:09.882,-0.375,4.375
14:06:09.912,-1.625,2.75
14:06:09.913,-2.375,0.8125
14:06:09.940,-2.5,-1.5
14:06:09.972,-3.9375,-3.875
14:06:09.972,-5.125,-5.375
14:06:09.972,-4.8125,-7.5
14:06:10.016,-6,-10
14:06:10.019,-7.4375,-11.1875
14:06:10.020,-8,-13.7501
14:06:10.022,-9,-16.3751
14:06:10.022,-10.0625,-17.6876
14:06:10.024,-10.3125,-18.8751
14:06:10.027,-10.8125,-21.5626
14:06:10.031,-11.625,-23.1876
14:06:10.039,-12.4375,-25.0626
14:06:10.055,-12.875,-27.3126
14:06:10.064,-14.0626,-28.4376
14:06:10.073,-13.3751,-30.0626
14:06:10.084,-15.1876,-31.4376
14:06:10.095,-16.2501,-34.0626
14:06:10.105,-17.0626,-35.5626
14:06:10.114,-17.6876,-37.6251
14:06:10.123,-18.6251,-41.6252
14:06:10.134,-20.4376,-42.1877
14:06:10.144,-21.0626,-45.8752
14:06:10.154,-21.6251,-48.1252
14:06:10.170,-22.1251,-50.1252
14:06:10.176,-13.6251,-34.6876
14:06:10.184,-8.5,-23.0001
14:06:10.194,-2.9375,-10.875
14:06:10.203,0.875,-0.1875
14:06:10.214,5.4375,9.75
14:06:10.224,9.3125,18.5626
14:06:10.234,10.875,23.8126
14:06:10.244,13.0625,28.1876
14:06:10.254,13.8751,31.3751
14:06:10.264,14.9376,34.6251
14:06:10.274,16.5626,38.5001
14:06:10.284,16.9376,39.0626
14:06:10.294,17.3751,41.8752
14:06:10.303,17.5001,44.8127
14:06:10.314,18.6251,45.3127
14:06:10.324,19.0001,47.9377
14:06:10.335,18.8126,48.6252
14:06:10.344,18.8751,49.3752
14:06:10.353,18.5626,50.1877
14:06:10.363,18.3751,50.0002
14:06:10.373,17.7501,50.1877
14:06:10.384,17.0626,48.8127
14:06:10.393,15.6251,47.4377
14:06:10.403,14.5001,44.6877
14:06:10.414,14.0001,43.1252
14:06:10.424,12.5625,41.1252
14:06:10.435,11.625,38.0001
14:06:10.443,10.625,34.9376
14:06:10.454,8.4375,33.5001
14:06:10.464,8.4375,31.1251
14:06:10.474,7.375,28.3126
14:06:10.484,6.375,27.0001
14:06:10.495,5.375,25.0626
14:06:10.504,5.125,23.3126
14:06:10.514,4.4375,21.3751
14:06:10.525,4.25,21.6876
14:06:10.535,3.8125,19.8751
14:06:10.544,3.125,18.0626
14:06:10.554,1.625,17.3751
14:06:10.565,1.75,15.5001
14:06:10.574,1.6875,13.7501
14:06:10.602,0.8125,13
14:06:10.604,0.375,11.0625
14:06:10.607,-1.125,9.9375
14:06:10.634,-1.6875,8.3125
14:06:10.636,-1.9375,5.6875
14:06:10.639,-2,3.5
14:06:10.645,-3.4375,1.375
14:06:10.654,-5,0.0625
14:06:10.687,-5.1875,-2.875
14:06:10.690,-5.6875,-5.5
14:06:10.691,-6.75,-6.125
14:06:10.694,-7,-8.75
14:06:10.722,-8.9375,-10.5625
14:06:10.724,-9.6875,-12.4375
14:06:10.726,-9.625,-14.8751
14:06:10.758,-10.875,-17.5001
14:06:10.759,-12,-19.2501
14:06:10.762,-12.875,-20.6251
14:06:10.770,-12.8125,-22.5001
14:06:10.777,-13.5626,-25.2501
14:06:10.784,-14.3126,-26.5626
14:06:10.794,-15.1876,-29.6876
14:06:10.806,-16.3126,-30.6251
14:06:10.814,-16.6251,-32.6251
14:06:10.824,-16.6251,-33.4376
14:06:10.836,-17.4376,-35.5001
14:06:10.843,-18.1251,-37.1876
14:06:10.855,-18.7501,-38.8126
14:06:10.864,-19.6251,-40.6877
14:06:10.874,-20.1251,-42.9377
14:06:10.884,-21.3126,-44.6877
14:06:10.894,-21.7501,-46.4377
14:06:10.905,-23.1251,-48.6252
14:06:10.919,-24.3126,-50.5627
14:06:10.924,-24.1876,-53.8127
14:06:10.935,-25.5001,-55.0002
14:06:10.945,-25.5001,-58.0002
14:06:10.954,-26.8751,-58.5627
14:06:10.964,-26.5626,-58.6877
14:06:10.974,-25.1251,-57.1877
14:06:10.985,-22.2501,-51.8127
14:06:10.995,-16.5626,-40.5627
14:06:11.005,-10.3125,-27.8751
14:06:11.014,-3.9375,-13.5001
14:06:11.025,0.875,-2.125
14:06:11.034,5.0625,7.8125
14:06:11.044,8.0625,14.3126
14:06:11.054,11.0625,21.5626
14:06:11.064,12.1875,27.5001
14:06:11.074,14.3751,29.9376
14:06:11.085,15.8126,33.8126
14:06:11.094,16.2501,36.3126
14:06:11.104,17.8126,38.3126
14:06:11.114,17.6876,40.9377
14:06:11.124,18.9376,41.9377
14:06:11.134,19.7501,44.0002
14:06:11.145,19.2501,46.0627
14:06:11.154,19.8751,45.8752
14:06:11.164,19.8751,47.4377
14:06:11.175,20.1876,47.5002
14:06:11.195,19.7501,48.5002
14:06:11.201,19.9376,47.6252
14:06:11.205,19.4376,46.6252
14:06:11.219,18.5001,45.5002
14:06:11.234,17.5001,43.2502
14:06:11.237,16.7501,41.6877
14:06:11.251,15.5626,39.7502
14:06:11.256,14.6876,36.6251
14:06:11.265,12.4375,34.2501
14:06:11.282,11.5625,31.0001
14:06:11.296,10.6875,28.7501
14:06:11.299,9.8125,25.6251
14:06:11.329,8.5625,25.1251
14:06:11.362,8.8125,22.5626
14:06:11.364,7.5,20.4376
14:06:11.366,6.75,18.8751
14:06:11.368,6.25,18.3126
14:06:11.372,6.3125,17.5001
14:06:11.375,5.625,15.4376
14:06:11.375,5.25,14.3126
14:06:11.404,4.625,13.8126
14:06:11.407,3.375,13
14:06:11.411,3.3125,10.5625
14:06:11.417,2.6875,9.0625
14:06:11.443,1.9375,6.6875
14:06:11.446,1.0625,5.8125
14:06:11.451,0.625,4.0625
14:06:11.475,0.375,1.75
14:06:11.479,-0.8125,0
14:06:11.480,-1.6875,-2.5
14:06:11.485,-2.75,-5.5625
14:06:11.494,-3.6875,-5.75
14:06:11.505,-4.125,-8.3125
14:06:11.515,-5.5,-10.625
14:06:11.525,-5.875,-13.125
14:06:11.535,-7.25,-16.3751
14:06:11.544,-7.8125,-17.0626
14:06:11.555,-8.9375,-19.4376
14:06:11.563,-10.1875,-22.0626
14:06:11.575,-10.9375,-23.0626
14:06:11.585,-11.3125,-26.1251
14:06:11.595,-12.5,-28.1876
14:06:11.604,-13.3126,-30.1251
14:06:11.615,-14.3126,-31.3751
14:06:11.623,-15.1251,-34.3126
14:06:11.635,-15.8126,-36.6876
14:06:11.645,-16.6876,-37.6251
14:06:11.656,-17.5626,-40.8127
14:06:11.669,-18.4376,-41.0002
14:06:11.674,-18.7501,-43.3127
14:06:11.683,-19.6876,-45.6877
14:06:11.695,-20.4376,-45.8752
14:06:11.704,-20.5626,-49.3752
14:06:11.713,-21.9376,-49.1877
14:06:11.725,-22.3751,-53.0627
14:06:11.735,-23.6251,-54.5627
14:06:11.745,-24.1876,-57.1877
14:06:11.755,-25.5001,-59.5002
14:06:11.766,-25.8751,-62.6252
14:06:11.775,-27.5626,-63.8752
14:06:11.784,-27.9376,-68.5628
14:06:11.795,-29.8126,-69.7503
14:06:11.805,-30.5001,-73.6253
14:06:11.816,-30.0001,-73.6253
14:06:11.825,-30.1876,-71.8753
14:06:11.836,-27.5626,-69.5003
14:06:11.845,-22.6251,-59.1877
14:06:11.883,-15.9376,-45.0627
14:06:11.884,-7.5,-28.0626
14:06:11.887,-0.3125,-11.3125
14:06:11.893,5.25,0.3125
14:06:11.904,9.3125,11.125
14:06:11.909,12.5,19.5001
14:06:11.920,14.8126,23.6251
14:06:11.931,16.4376,29.0001
14:06:11.941,18.3126,31.3751
14:06:11.950,19.4376,34.0001
14:06:11.960,19.6251,36.0001
14:06:11.983,20.1876,37.7501
14:06:11.986,21.0001,39.4377
14:06:11.991,21.6251,41.0627
14:06:12.019,21.3126,41.5002
14:06:12.022,21.7501,41.6252
14:06:12.024,22.1251,43.3127
14:06:12.030,22.0001,44.3127
14:06:12.056,22.6251,43.7502
14:06:12.059,21.0626,43.1877
14:06:12.060,20.2501,43.1252
14:06:12.073,20.0626,40.8752
14:06:12.102,18.9376,37.7501
14:06:12.104,17.2501,35.8751
14:06:12.107,15.6876,32.8126
14:06:12.136,14.3126,30.1251
14:06:12.136,13.5001,28.4376
14:06:12.139,12,24.5626
14:06:12.145,11.8125,22.2501
14:06:12.154,10.4375,21.1251
14:06:12.160,9.9375,18.9376
14:06:12.170,9.1875,18.5001
14:06:12.180,8.375,16.3751
14:06:12.190,7.5,16.1876
14:06:12.199,7.625,13.5626
14:06:12.210,6.4375,14.0001
14:06:12.221,7.3125,12.125
14:06:12.230,5.375,11.3125
14:06:12.240,5.5,9.375
14:06:12.252,4.375,9.125
14:06:12.259,4.375,6.6875
14:06:12.271,3.125,6.25
14:06:12.280,2.5625,3.4375
14:06:12.289,1.75,0.8125
14:06:12.300,1.375,-0.4375
14:06:12.311,0,-2.5625
14:06:12.320,-0.375,-3.75
14:06:12.330,-1.9375,-7
14:06:12.340,-2.5,-8.3125
14:06:12.351,-3.875,-11.4375
14:06:12.360,-4.5625,-13.3126
14:06:12.370,-4.6875,-15.1876
14:06:12.380,-5.75,-16.1251
14:06:12.390,-7.625,-19.6876
14:06:12.400,-8.375,-21.5626
14:06:12.410,-9.625,-24.1876
14:06:12.420,-9.75,-26.7501
14:06:12.431,-10.8125,-28.0626
14:06:12.442,-11.9375,-30.0626
14:06:12.451,-12.25,-31.7501
14:06:12.461,-13.5001,-32.6876
14:06:12.471,-13.7501,-35.0626
14:06:12.481,-15.5626,-37.2501
14:06:12.490,-15.8126,-39.7502
14:06:12.500,-16.8126,-40.6252
14:06:12.521,-17.5626,-43.8752
14:06:12.525,-17.5626,-44.7502
14:06:12.540,-18.9376,-46.6252
14:06:12.543,-20.0001,-48.3752
14:06:12.551,-21.0626,-51.0002
14:06:12.559,-21.7501,-52.7502
14:06:12.570,-22.6876,-54.5002
14:06:12.582,-23.7501,-58.2502
14:06:12.590,-24.6251,-60.1252
14:06:12.612,-26.2501,-63.3127
14:06:12.614,-27.2501,-66.6878
14:06:12.628,-28.3126,-68.5003
14:06:12.631,-29.1251,-72.1253
14:06:12.640,-29.8126,-73.1878
14:06:12.650,-30.0626,-71.9378
14:06:12.660,-27.4376,-70.1253
14:06:12.670,-24.7501,-61.8752
14:06:12.681,-17.9376,-50.6877
14:06:12.690,-10.125,-33.5001
14:06:12.700,-2.0625,-18.2501
14:06:12.710,5.0625,-3.5625
14:06:12.720,8.9375,7.6875
14:06:12.730,12.8125,15.3126
14:06:12.740,15.5626,22.8126
14:06:12.751,16.8751,25.6876
14:06:12.760,18.8126,30.3751
14:06:12.770,19.5626,32.2501
14:06:12.780,20.3751,35.6251
14:06:12.810,20.7501,36.3751
14:06:12.813,20.8751,37.6251
14:06:12.816,21.1251,38.9376
14:06:12.821,22.3126,39.3752
14:06:12.847,21.4376,39.9377
14:06:12.849,21.4376,38.9376
14:06:12.851,20.8751,39.4377
14:06:12.885,20.7501,38.1251
14:06:12.887,20.6876,38.7501
14:06:12.889,19.6876,36.5001
14:06:12.891,18.3126,34.5626
14:06:12.925,17.3126,33.0001
14:06:12.928,16.0626,30.6251
14:06:12.930,14.8126,27.8126
14:06:12.957,14.1876,25.2501
14:06:12.957,12,22.6876
14:06:12.961,11.125,19.5626
14:06:12.967,9.9375,17.3126
14:06:12.975,8.75,16.6251
14:06:12.980,8.5625,13.8126
14:06:12.990,6.875,12.6875
14:06:13.000,6.375,10.375
14:06:13.010,5.8125,9.5625
14:06:13.021,5.6875,8.5625
14:06:13.030,5.125,7.1875
14:06:13.040,4.8125,6.625
14:06:13.050,4.0625,4.3125
14:06:13.060,3.6875,4.25
14:06:13.071,3.5625,2
14:06:13.081,2.5625,0.625
14:06:13.090,2.125,0.1875
14:06:13.100,1.3125,-2.25
14:06:13.112,0.125,-3.9375
14:06:13.121,-0.25,-6.25
14:06:13.130,-1.1875,-7.8125
14:06:13.163,-2.375,-10
14:06:13.165,-2.625,-11.875
14:06:13.167,-4.625,-13.7501
14:06:13.172,-3.9375,-15.5001
14:06:13.181,-6,-17.8126
14:06:13.190,-6.5,-20.0001
14:06:13.200,-7.75,-22.1251
14:06:13.210,-9.4375,-23.8751
14:06:13.220,-9.1875,-26.8126
14:06:13.230,-11.5,-29.3751
14:06:13.241,-11.875,-31.5001
14:06:13.250,-12.9375,-33.8751
14:06:13.261,-13.9376,-35.4376
14:06:13.271,-14.6251,-38.3126
14:06:13.281,-15.5001,-40.3752
14:06:13.290,-16.8126,-40.9377
14:06:13.300,-17.6876,-44.0627
14:06:13.310,-18.5626,-45.4377
14:06:13.320,-19.4376,-48.3752
14:06:13.330,-19.6251,-50.3752
14:06:13.341,-20.2501,-52.3127
14:06:13.352,-21.5001,-53.9377
14:06:13.361,-22.0626,-55.1252
14:06:13.371,-23.0001,-57.3752
14:06:13.380,-23.7501,-59.5002
14:06:13.390,-24.2501,-60.3752
14:06:13.400,-25.2501,-62.8127
14:06:13.410,-26.5626,-64.6252
14:06:13.421,-26.4376,-65.9378
14:06:13.430,-28.1251,-69.1253
14:06:13.440,-28.7501,-69.9378
14:06:13.451,-30.2501,-70.8753
14:06:13.484,-30.4376,-73.0003
14:06:13.484,-31.4376,-73.4378
14:06:13.487,-31.1251,-73.6253
14:06:13.490,-29.1251,-70.5003
14:06:13.520,-26.5001,-63.1252
14:06:13.522,-20.3126,-49.7502
14:06:13.524,-11.875,-31.6876
14:06:13.530,-4.125,-15.2501
14:06:13.563,3.3125,2.5
14:06:13.565,8.1875,14.0626
14:06:13.567,11.5625,23.3126
14:06:13.594,13.3126,29.9376
14:06:13.595,14.3751,32.3126
14:06:13.597,16.1876,36.2501
14:06:13.603,20.9376,44.7502
14:06:13.631,23.1251,48.1877
14:06:13.639,22.8126,49.1252
14:06:13.639,21.6251,48.4377
14:06:13.645,21.6876,47.1877
14:06:13.650,21.5001,47.4377
14:06:13.660,22.0001,48.0627
14:06:13.670,21.7501,47.5002
14:06:13.680,22.0001,47.7502
14:06:13.690,20.9376,46.8752
14:06:13.700,21.5626,46.5627
14:06:13.710,20.7501,44.3752
14:06:13.725,19.6876,42.2502
14:06:13.731,20.6251,42.0627
14:06:13.741,19.3126,41.1877
14:06:13.750,19.8751,40.2502
14:06:13.760,20.1251,39.6252
14:06:13.770,20.0001,40.2502
14:06:13.780,19.2501,37.3126
14:06:13.790,17.8126,36.6876
14:06:13.801,17.1251,34.2501
14:06:13.821,16.6876,32.9376
14:06:13.826,16.4376,32.0001
14:06:13.841,16.4376,31.0001
14:06:13.846,17.3126,31.8126
14:06:13.850,17.1251,31.3126
14:06:13.860,13.9376,27.3751
14:06:13.870,12.375,23.5626
14:06:13.880,9.625,18.5626
14:06:13.890,7.5,15.3751
14:06:13.907,6.0625,10.875
14:06:13.910,5,7.625
14:06:13.925,4.375,6.25
14:06:13.930,3.5,2.5
14:06:13.940,2.125,1.125
14:06:13.950,1.625,-1.9375
14:06:13.960,0.75,-4.4375
14:06:13.971,-0.625,-7.375
14:06:13.980,-2.5625,-11.5625
14:06:13.990,-4.5,-16.1251
14:06:14.000,-6.9375,-21.1876
14:06:14.010,-8.8125,-26.4376
14:06:14.020,-12.375,-31.6876
14:06:14.030,-15.5001,-37.0001
14:06:14.041,-17.7501,-43.3752
14:06:14.050,-20.3126,-49.3127
14:06:14.060,-22.0626,-53.5627
14:06:14.071,-24.4376,-59.3127
14:06:14.080,-27.5001,-64.4377
14:06:14.090,-28.9376,-68.0628
14:06:14.101,-30.3751,-72.6253
14:06:14.110,-31.1876,-74.9378
14:06:14.120,-32.2501,-77.7503
14:06:14.130,-32.5001,-79.4378
14:06:14.140,-33.9376,-81.5003
14:06:14.150,-33.5626,-83.0003
14:06:14.160,-33.5626,-81.8128
14:06:14.170,-34.2501,-84.2503
14:06:14.180,-33.6251,-83.9378
14:06:14.190,-34.2501,-82.4378
14:06:14.200,-33.5001,-84.2503
14:06:14.210,-32.0626,-83.5003
14:06:14.220,-33.5626,-83.6878
14:06:14.230,-33.8126,-85.5628
14:06:14.240,-34.0626,-85.1253
14:06:14.272,-33.9376,-87.2503
14:06:14.274,-33.6876,-87.5003
14:06:14.276,-35.1876,-88.1878
14:06:14.280,-34.9376,-90.7504
14:06:14.316,-35.1876,-91.3129
14:06:14.318,-35.6251,-91.6879
14:06:14.320,-34.5001,-91.6879
14:06:14.328,-32.3751,-86.8753
14:06:14.339,-28.3126,-78.1878
14:06:14.342,-20.6876,-63.6877
14:06:14.350,-11.5,-44.1877
14:06:14.361,-0.8125,-24.1876
14:06:14.394,7.8125,-4.4375
14:06:14.395,14.6876,10.0625
14:06:14.398,19.5626,21.1876
14:06:14.400,23.0626,28.1251
14:06:14.442,26.2501,34.1876
14:06:14.444,26.8751,38.1251
14:06:14.445,28.8126,41.0627
14:06:14.457,28.7501,44.1252
14:06:14.460,30.5001,45.3127
14:06:14.461,31.3751,47.5002
14:06:14.476,31.7501,48.4377
14:06:14.481,32.0001,50.1252
14:06:14.490,31.6251,50.8127
14:06:14.500,32.8126,51.1252
14:06:14.511,32.9376,52.5627
14:06:14.523,32.6876,51.6252
14:06:14.530,33.8126,52.0002
14:06:14.540,32.1876,51.5002
14:06:14.551,31.8751,50.1877
14:06:14.561,31.8751,47.8752
14:06:14.571,30.8751,47.1252
14:06:14.580,30.1876,44.4377
14:06:14.590,29.0001,43.1252
14:06:14.600,28.6876,41.8752
14:06:14.610,28.7501,39.4377
14:06:14.621,27.7501,37.5626
14:06:14.630,27.3126,36.5626
14:06:14.640,26.4376,36.6251
14:06:14.650,26.7501,35.9376
14:06:14.660,27.8751,34.5626
14:06:14.670,27.5001,35.7501
14:06:14.680,27.8126,34.3751
14:06:14.690,26.1876,33.3126
14:06:14.700,25.4376,30.4376
14:06:14.711,24.0001,28.1876
14:06:14.720,22.3751,24.8126
14:06:14.730,21.2501,22.1876
14:06:14.740,20.3126,20.4376
14:06:14.752,19.6876,17.8126
14:06:14.760,19.2501,16.4376
14:06:14.770,18.5001,14.6876
14:06:14.780,18.8126,13.125
14:06:14.791,17.9376,13.2501
14:06:14.800,18.7501,11.25
14:06:14.810,18.6251,9.5
14:06:14.821,16.9376,6.5
14:06:14.830,14.1876,0.875
14:06:14.840,11.25,-2.875
14:06:14.852,8.5625,-9.25
14:06:14.861,6.5,-13.5001
14:06:14.871,3.5625,-19.3751
14:06:14.880,0.625,-24.8126
14:06:14.890,-1.9375,-29.2501
14:06:14.901,-4.375,-35.1876
14:06:14.910,-6.1875,-39.6252
14:06:14.921,-8.375,-44.5627
14:06:14.946,-11.3125,-49.1252
14:06:14.948,-13.5001,-53.3752
14:06:14.950,-15.2501,-58.5627
14:06:14.989,-17.1876,-62.4377
14:06:14.991,-18.6876,-66.7503
14:06:14.993,-20.8751,-70.0003
14:06:14.995,-22.5001,-72.7503
14:06:15.004,-23.6876,-75.7503
14:06:15.032,-24.1876,-78.0003
14:06:15.034,-24.8751,-80.2503
14:06:15.037,-26.1251,-81.6253
14:06:15.062,-26.6251,-83.6253
14:06:15.064,-27.6251,-85.3128
14:06:15.095,-28.5626,-88.1878
14:06:15.097,-29.4376,-89.6878
14:06:15.122,-31.6251,-91.9379
14:06:15.122,-31.6251,-93.5004
14:06:15.123,-32.5626,-94.4379
14:06:15.125,-32.0001,-95.5004
14:06:15.142,-30.7501,-92.5629
14:06:15.144,-29.7501,-90.8129
14:06:15.146,-24.5626,-80.0003
14:06:15.155,-17.0626,-65.7503
14:06:15.165,-7.0625,-46.0002
14:06:15.175,2.75,-23.7501
14:06:15.185,12.25,-5.0625
14:06:15.204,18.3751,11.8125
14:06:15.206,23.6251,21.2501
14:06:15.227,26.1876,29.5626
14:06:15.232,29.0001,34.0626
14:06:15.236,30.4376,39.3127
14:06:15.245,31.5626,42.3752
14:06:15.255,32.8126,43.5627
14:06:15.266,33.4376,47.0002
14:06:15.275,33.8126,48.9377
14:06:15.285,34.3126,48.7502
14:06:15.295,33.8751,50.1252
14:06:15.305,35.0626,50.0627
14:06:15.316,33.8751,50.6252
14:06:15.327,33.8751,49.5002
14:06:15.336,33.7501,48.7502
14:06:15.346,32.1251,47.3752
14:06:15.355,32.4376,46.5002
14:06:15.365,31.5001,44.7502
14:06:15.375,30.1876,42.8127
14:06:15.385,29.7501,41.4377
14:06:15.395,28.9376,38.8126
14:06:15.405,28.3126,38.3751
14:06:15.416,27.7501,37.0001
14:06:15.425,27.6251,35.0626
14:06:15.435,27.0001,34.5001
14:06:15.445,27.3751,34.0626
14:06:15.455,26.3126,33.2501
14:06:15.465,27.0626,32.4376
14:06:15.476,26.2501,32.6876
14:06:15.485,26.8751,31.5626
14:06:15.495,25.3751,31.8751
14:06:15.507,25.4376,28.9376
14:06:15.515,24.0001,27.1251
14:06:15.525,23.9376,25.2501
14:06:15.535,22.3126,24.1876
14:06:15.545,22.1876,21.9376
14:06:15.555,20.3751,20.1876
14:06:15.566,19.4376,17.0626
14:06:15.575,17.6251,15.0001
14:06:15.585,16.0001,11.0625
14:06:15.600,13.7501,8.4375
14:06:15.605,12.875,5.5625
14:06:15.617,10.8125,3.1875
14:06:15.625,10.125,-0.5
14:06:15.635,8.125,-3.125
14:06:15.645,7.0625,-5.3125
14:06:15.655,5.25,-9.1875
14:06:15.666,4.1875,-11.6875
14:06:15.675,2.5,-15.2501
14:06:15.685,1.4375,-18.0001
14:06:15.724,-0.25,-20.4376
14:06:15.725,-1.625,-23.5626
14:06:15.728,-2.9375,-27.5626
14:06:15.730,-4,-29.1876
14:06:15.738,-5.0625,-32.3751
14:06:15.768,-6.5,-34.3126
14:06:15.770,-7.5625,-39.0001
14:06:15.771,-9.0625,-42.2502
14:06:15.795,-11.25,-46.1877
14:06:15.796,-13.5001,-49.3752
14:06:15.799,-15.2501,-54.2502
14:06:15.807,-17.6251,-57.8752
14:06:15.815,-19.5001,-62.3127
14:06:15.850,-20.8126,-66.5003
14:06:15.851,-22.1876,-68.3128
14:06:15.854,-23.4376,-71.7503
14:06:15.857,-24.2501,-73.1878
14:06:15.878,-25.3751,-75.4378
14:06:15.881,-25.3751,-76.8753
14:06:15.891,-26.5626,-77.3128
14:06:15.901,-25.7501,-76.0003
14:06:15.910,-22.6251,-71.1253
14:06:15.920,-18.1876,-61.7502
14:06:15.930,-10.375,-47.3752
14:06:15.941,-2.25,-28.6876
14:06:15.951,6.125,-11.6875
14:06:15.961,13.125,4.375
14:06:15.978,16.8751,14.3126
14:06:15.980,20.5001,21.4376
14:06:15.990,22.8126,28.5001
14:06:16.000,24.5626,32.3751
14:06:16.010,26.1251,36.6876
14:06:16.020,26.6876,38.3126
14:06:16.030,28.0001,43.3127
14:06:16.041,29.0626,45.1252
14:06:16.051,29.3126,47.0627
14:06:16.060,30.0626,48.1252
14:06:16.070,30.2501,48.0627
14:06:16.080,30.6876,49.2502
14:06:16.090,30.7501,49.5002
14:06:16.100,30.5001,51.1877
14:06:16.110,30.2501,49.0627
14:06:16.120,29.5001,48.3127
14:06:16.130,28.6251,46.8127
14:06:16.140,27.5626,46.1877
14:06:16.150,27.3126,44.0002
14:06:16.160,26.3126,41.9377
14:06:16.171,25.3126,39.6877
14:06:16.180,24.4376,36.6876
14:06:16.190,24.0626,36.6876
14:06:16.203,22.6876,34.8126
14:06:16.211,23.0001,33.0626
14:06:16.220,22.7501,31.5001
14:06:16.231,22.0626,32.1876
14:06:16.240,22.1251,30.0001
14:06:16.250,22.4376,31.0626
14:06:16.260,22.1251,29.1251
14:06:16.271,21.7501,28.6251
14:06:16.281,21.6876,26.5626
14:06:16.290,20.9376,26.6876
14:06:16.300,20.3751,24.7501
14:06:16.310,20.0626,24.0001
14:06:16.320,19.2501,21.7501
14:06:16.331,18.0001,19.6876
14:06:16.340,16.8126,17.6251
14:06:16.361,15.9376,15.7501
14:06:16.365,15.2501,14.2501
14:06:16.391,14.2501,11.4375
14:06:16.393,13.6876,9.4375
14:06:16.395,12.1875,7.4375
14:06:16.402,10.5625,4.5
14:06:16.435,8.6875,1.1875
14:06:16.437,7.4375,-2.6875
14:06:16.440,5.25,-5.3125
14:06:16.446,4.125,-8.1875
14:06:16.473,2.3125,-11.375
14:06:16.476,1,-16.0001
14:06:16.478,-1.375,-18.9376
14:06:16.508,-2.9375,-22.9376
14:06:16.508,-5.3125,-26.5626
14:06:16.535,-5.5,-30.2501
14:06:16.537,-7.3125,-33.7501
14:06:16.541,-9.375,-36.7501
14:06:16.541,-9.875,-38.9376
14:06:16.549,-10.375,-41.0002
14:06:16.556,-10.4375,-41.6877
14:06:16.565,-11.1875,-43.8752
14:06:16.575,-11.4375,-45.2502
14:06:16.585,-12,-47.0627
14:06:16.595,-14.3751,-48.6877
14:06:16.605,-15.4376,-51.8127
14:06:16.615,-17.1251,-55.5627
14:06:16.625,-18.3126,-58.8752
14:06:16.635,-19.7501,-62.3752
14:06:16.645,-21.0001,-63.1877
14:06:16.655,-22.2501,-65.8128
14:06:16.666,-22.2501,-67.9378
14:06:16.675,-23.6251,-69.6878
14:06:16.686,-25.0626,-70.8128
14:06:16.696,-24.9376,-72.4378
14:06:16.705,-23.4376,-70.0628
14:06:16.715,-20.0626,-63.9377
14:06:16.725,-15.2501,-52.9377
14:06:16.736,-8.125,-38.4376
14:06:16.745,0.5,-21.2501
14:06:16.757,7.3125,-4.5625
14:06:16.765,12.0625,6.1875
14:06:16.775,16.8751,16.4376
14:06:16.787,19.5001,23.6876
14:06:16.795,21.5626,29.5626
14:06:16.807,23.9376,33.5001
14:06:16.815,26.1876,37.3751
14:06:16.825,26.5001,41.5627
14:06:16.835,27.5626,42.8127
14:06:16.845,28.6251,44.6252
14:06:16.855,29.2501,47.8752
14:06:16.865,30.1251,48.1252
14:06:16.875,30.3126,50.8127
14:06:16.885,30.8126,50.8752
14:06:16.895,31.1876,53.2502
14:06:16.907,31.6251,53.0002
14:06:16.915,31.0001,54.8127
14:06:16.925,31.5626,53.4377
14:06:16.935,30.5001,52.1252
14:06:16.945,29.1251,51.1877
14:06:16.955,29.1876,49.0627
14:06:16.966,27.5001,47.5002
14:06:16.976,27.1251,45.3752
14:06:17.001,26.1876,43.0627
14:06:17.005,24.5626,41.0627
14:06:17.006,24.5001,39.8127
14:06:17.016,24.0001,38.0001
14:06:17.025,24.2501,37.0626
14:06:17.035,23.3751,36.2501
14:06:17.045,23.8126,35.6251
14:06:17.056,23.7501,34.0001
14:06:17.066,22.8126,34.0001
14:06:17.075,23.1251,33.8751
14:06:17.086,22.8751,32.4376
14:06:17.095,22.7501,32.4376
14:06:17.106,22.4376,31.2501
14:06:17.115,21.7501,29.6876
14:06:17.153,20.7501,27.6876
14:06:17.154,19.3751,25.7501
14:06:17.157,18.3751,24.4376
14:06:17.159,18.5001,21.7501
14:06:17.189,16.8751,21.3751
14:06:17.190,16.7501,18.5626
14:06:17.193,15.6251,17.3126
14:06:17.199,14.9376,14.3751
14:06:17.228,13.8126,13.3126
14:06:17.229,12.9375,9.5
14:06:17.232,11.625,7.8125
14:06:17.237,10.25,3.625
14:06:17.270,8.125,1.6875
14:06:17.273,7.9375,-2.1875
14:06:17.274,4.875,-4.625
14:06:17.276,4.4375,-8.75
14:06:17.308,2.3125,-11.1875
14:06:17.311,0.9375,-13.8126
14:06:17.313,-0.25,-18.3126
14:06:17.319,-2,-21.0626
14:06:17.328,-2.4375,-23.5001
14:06:17.336,-4.9375,-27.2501
14:06:17.351,-5.1875,-29.6251
14:06:17.360,-6.625,-31.8751
14:06:17.365,-7.125,-34.7501
14:06:17.376,-8.5625,-37.3751
14:06:17.385,-9.1875,-38.6251
14:06:17.395,-10.125,-41.0002
14:06:17.407,-11.25,-42.6877
14:06:17.415,-11.9375,-46.2502
14:06:17.427,-13,-47.5002
14:06:17.436,-13.7501,-50.5627
14:06:17.445,-13.6876,-51.8127
14:06:17.456,-15.3751,-53.6252
14:06:17.466,-15.2501,-55.4377
14:06:17.476,-17.0001,-56.9377
14:06:17.485,-17.8126,-59.7502
14:06:17.496,-18.5626,-61.4377
14:06:17.505,-19.6876,-62.1877
14:06:17.517,-20.6251,-64.5627
14:06:17.525,-20.4376,-65.8128
14:06:17.536,-21.1876,-65.1252
14:06:17.545,-18.1876,-61.8752
14:06:17.555,-13.3751,-52.1252
14:06:17.566,-7.4375,-37.5001
14:06:17.576,1.0625,-22.9376
14:06:17.586,7.5625,-5.4375
14:06:17.596,13.5001,6.6875
14:06:17.605,18.1251,17.1251
14:06:17.616,20.8751,23.8126
14:06:17.625,23.6251,30.7501
14:06:17.635,24.5001,34.6251
14:06:17.646,26.5001,38.9376
14:06:17.655,27.6876,42.5627
14:06:17.666,28.4376,44.0627
14:06:17.677,29.3751,46.5002
14:06:17.687,29.8751,47.2502
14:06:17.699,29.5001,49.7502
14:06:17.716,31.1251,50.2502
14:06:17.718,30.7501,50.7502
14:06:17.732,30.8126,52.5627
14:06:17.736,30.6876,51.7502
14:06:17.745,30.8751,53.8127
14:06:17.757,31.3126,52.4377
14:06:17.766,30.1251,51.3127
14:06:17.775,29.0001,51.2502
14:06:17.787,28.1876,48.0002
14:06:17.804,27.6876,46.3127
14:06:17.817,26.5626,44.3127
14:06:17.820,25.3751,42.1252
14:06:17.829,25.0001,40.3752
14:06:17.837,23.4376,39.3752
14:06:17.846,23.0001,38.3751
14:06:17.869,23.1251,37.1876
14:06:17.871,23.0626,36.7501
14:06:17.884,23.1876,35.3751
14:06:17.887,23.1251,34.3751
14:06:17.913,23.1251,34.0001
14:06:17.915,23.2501,33.6251
14:06:17.918,22.4376,33.3751
14:06:17.951,22.8126,33.1251
14:06:17.953,21.6251,31.1251
14:06:17.955,20.8126,29.9376
14:06:17.959,20.9376,29.2501
14:06:17.987,19.9376,26.3751
14:06:17.989,19.3126,25.7501
14:06:17.991,18.3126,23.5626
14:06:18.016,18.0626,21.8751
14:06:18.018,16.8751,20.8751
14:06:18.022,16.4376,18.0626
14:06:18.032,15.9376,16.3126
14:06:18.041,14.4376,14.3751
14:06:18.052,13.0625,11.75
14:06:18.060,12.4375,10.125
14:06:18.071,11.0625,6.6875
14:06:18.081,9.8125,4.5625
14:06:18.090,8.0625,1.6875
14:06:18.102,7.0625,-1.0625
14:06:18.111,5.375,-3
14:06:18.121,4.5,-6.9375
14:06:18.132,3.125,-9.1875
14:06:18.141,1.3125,-12.5
14:06:18.150,0.5625,-15.4376
14:06:18.161,-1.1875,-18.3126
14:06:18.170,-3,-22.6251
14:06:18.181,-5.25,-26.9376
14:06:18.192,-6.3125,-28.8751
14:06:18.201,-7,-31.5626
14:06:18.211,-7.5625,-34.0626
14:06:18.222,-8.5,-36.0001
14:06:18.230,-9.4375,-39.1877
14:06:18.241,-10.9375,-41.0002
14:06:18.251,-11.6875,-43.6252
14:06:18.281,-13.125,-45.6252
14:06:18.284,-13.4376,-48.1877
14:06:18.286,-14.5001,-50.3127
14:06:18.292,-15.0001,-51.6877
14:06:18.302,-16.0001,-53.6252
14:06:18.311,-15.0626,-53.2502
14:06:18.320,-15.9376,-53.3127
14:06:18.332,-14.5001,-51.8127
14:06:18.341,-12.0625,-45.8752
14:06:18.350,-7.5,-38.5001
14:06:18.362,-1.3125,-25.3751
14:06:18.373,3.875,-11.3125
14:06:18.381,9.4375,-0.6875
14:06:18.392,14.8126,10.6875
14:06:18.401,16.6251,17.8751
14:06:18.410,19.6876,23.5626
14:06:18.424,21.6251,29.2501
14:06:18.433,23.1876,33.1251
14:06:18.442,24.6876,37.6876
14:06:18.453,26.0001,39.3752
14:06:18.461,26.5001,41.3752
14:06:18.471,27.1251,43.5627
14:06:18.481,27.9376,45.0002
14:06:18.492,27.7501,45.7502
14:06:18.501,27.8126,47.8752
14:06:18.511,28.8751,47.8752
14:06:18.521,28.2501,47.1252
14:06:18.530,28.0626,48.8127
14:06:18.541,28.1251,48.6252
14:06:18.551,27.3126,47.8752
14:06:18.577,27.3126,48.0627
14:06:18.581,27.0001,45.3127
14:06:18.583,25.9376,43.6877
14:06:18.617,24.5001,43.0627
14:06:18.618,24.0626,39.4377
14:06:18.620,22.6251,38.0001
14:06:18.623,22.1876,35.1251
14:06:18.654,21.0001,33.3126
14:06:18.657,20.4376,31.6876
14:06:18.660,19.7501,30.1251
14:06:18.689,18.8126,29.1876
14:06:18.691,19.0626,27.5626
14:06:18.693,18.5626,26.1876
14:06:18.698,18.3751,26.4376
14:06:18.731,17.8751,26.0001
14:06:18.731,18.3126,26.7501
14:06:18.733,17.5001,24.7501
14:06:18.740,16.9376,24.0001
14:06:18.745,17.1251,23.3751
14:06:18.756,17.1251,22.1251
14:06:18.766,16.8751,20.2501
14:06:18.776,16.2501,18.6251
14:06:18.787,15.4376,18.1876
14:06:18.796,14.5001,17.0001
14:06:18.806,13.9376,14.3126
14:06:18.816,12.875,12.9375
14:06:18.826,12.5625,10.375
14:06:18.837,11.1875,7.75
14:06:18.846,10.75,6
14:06:18.856,10,3.9375
14:06:18.866,8.25,0.875
14:06:18.877,6.4375,-2.1875
14:06:18.887,5,-4.6875
14:06:18.897,4,-8.1875
14:06:18.907,3.1875,-11.5625
14:06:18.917,1.6875,-14.5001
14:06:18.926,-0.5625,-17.0001
14:06:18.936,-1.75,-20.3126
14:06:18.946,-3,-23.5626
14:06:18.956,-3.75,-26.2501
14:06:18.966,-5.375,-27.8126
14:06:18.977,-6.125,-29.8126
14:06:18.987,-7.5625,-32.1251
14:06:18.997,-9.0625,-34.4376
14:06:19.013,-9.125,-37.9376
14:06:19.027,-10.9375,-40.8127
14:06:19.043,-12.25,-43.8752
14:06:19.047,-13.9376,-48.0627
14:06:19.049,-15.3126,-50.5627
14:06:19.057,-16.2501,-55.0002
14:06:19.066,-17.3751,-56.8127
14:06:19.076,-18.8751,-60.0627
14:06:19.087,-19.7501,-63.3752
14:06:19.104,-21.5626,-64.9377
14:06:19.106,-22.6251,-69.3128
14:06:19.121,-22.8126,-71.4378
14:06:19.130,-24.1876,-71.6878
14:06:19.136,-23.4376,-71.3753
14:06:19.146,-19.3126,-64.3752
14:06:19.157,-15.0001,-52.1877
14:06:19.167,-6.4375,-37.9376
14:06:19.177,1.25,-17.6876
14:06:19.193,8.8125,-2.9375
14:06:19.196,13.6876,11
14:06:19.207,17.6251,18.5626
14:06:19.216,21.5001,25.0001
14:06:19.226,21.9376,30.8126
14:06:19.236,23.5626,33.8751
14:06:19.246,25.2501,38.7501
14:06:19.256,26.5001,42.3752
14:06:19.266,27.5001,43.5002
14:06:19.277,27.5626,47.5002
14:06:19.286,28.6876,49.6252
14:06:19.296,29.6876,51.6877
14:06:19.306,29.8751,54.3127
14:06:19.316,30.4376,54.8127
14:06:19.327,30.4376,57.6877
14:06:19.337,31.0001,57.2502
14:06:19.372,29.3751,56.7502
14:06:19.374,28.4376,56.5002
14:06:19.376,28.0001,53.9377
14:06:19.378,26.2501,52.0627
14:06:19.411,25.5626,50.3752
14:06:19.413,24.4376,47.5002
14:06:19.414,24.0001,45.5627
14:06:19.416,22.5001,43.1252
14:06:19.457,20.9376,41.3127
14:06:19.459,19.4376,38.3126
14:06:19.461,15.8126,24.3126
14:06:19.467,19.0001,33.8751
14:06:19.469,19.9376,32.4376
14:06:19.498,21.3126,33.9376
14:06:19.499,21.3751,32.5626
14:06:19.501,20.7501,32.0626
14:06:19.508,20.0626,29.9376
14:06:19.527,19.8751,28.0001
14:06:19.527,18.1251,26.7501
14:06:19.537,17.2501,25.4376
14:06:19.562,16.5001,22.0626
14:06:19.564,15.7501,20.0001
14:06:19.566,14.8751,17.4376
14:06:19.584,14.0626,14.3751
14:06:19.589,13.4376,11.625
14:06:19.597,12.625,9.625
14:06:19.606,12.3125,8.0625
14:06:19.616,12,6.125
14:06:19.628,12,4.375
14:06:19.636,11.3125,3
14:06:19.646,11.6875,2.1875
14:06:19.656,11.75,-0.3125
14:06:19.666,11.5625,-0.9375
14:06:19.677,11.5625,-1.375
14:06:19.686,11.375,-3.75
14:06:19.696,11.375,-4.875
14:06:19.706,10.3125,-5.9375
14:06:19.716,10.625,-7.4375
14:06:19.727,9.75,-9.5
14:06:19.736,8.8125,-10.0625
14:06:19.747,8.6875,-12.625
14:06:19.756,8,-13.6251
14:06:19.767,6.9375,-14.6876
14:06:19.776,6.3125,-17.0001
14:06:19.788,5.8125,-18.0626
14:06:19.796,5.5625,-19.8126
14:06:19.807,4.875,-20.9376
14:06:19.817,2.875,-21.8126
14:06:19.827,3.1875,-24.5626
14:06:19.836,2.6875,-25.0001
14:06:19.846,2.1875,-26.5001
14:06:19.856,0.5,-27.5001
14:06:19.867,0,-30.1876
14:06:19.877,-0.9375,-31.2501
14:06:19.891,-1.625,-33.5001
14:06:19.901,-2.0625,-34.6251
14:06:19.911,-3.1875,-36.9376
14:06:19.921,-4.1875,-38.9376
14:06:19.931,-5.125,-40.7502
14:06:19.942,-5.25,-41.7502
14:06:19.955,-6.0625,-42.9377
14:06:19.961,-6.25,-40.8752
14:06:19.973,-4.1875,-38.7501
14:06:19.982,-0.625,-29.8751
14:06:19.992,4.875,-20.5001
14:06:20.021,10,-7.0625
14:06:20.023,15.3126,3.6875
14:06:20.025,18.8751,14.8126
14:06:20.031,21.9376,22.2501
14:06:20.058,24.2501,28.4376
14:06:20.061,27.4376,36.9376
14:06:20.063,29.1876,40.5627
14:06:20.090,29.4376,45.5002
14:06:20.093,30.3751,48.2502
14:06:20.096,31.8126,50.0627
14:06:20.101,32.4376,52.6877
14:06:20.111,33.1876,55.3752
14:06:20.141,33.0626,56.2502
14:06:20.145,33.9376,58.4377
14:06:20.146,33.6251,59.7502
14:06:20.153,33.8126,61.0002
14:06:20.184,33.7501,61.6252
14:06:20.186,33.2501,62.0002
14:06:20.189,33.0001,63.0002
14:06:20.191,33.3751,62.5627
14:06:20.201,31.8751,61.1877
14:06:20.212,30.7501,60.9377
14:06:20.222,30.1876,57.6877
14:06:20.232,29.3126,54.8752
14:06:20.242,27.3126,53.9377
14:06:20.251,26.4376,50.6252
14:06:20.261,24.9376,48.5002
14:06:20.271,24.0001,46.6252
14:06:20.281,23.3126,45.0627
14:06:20.292,22.5626,43.1877
14:06:20.313,22.6876,41.9377
14:06:20.319,21.2501,41.0627
14:06:20.322,21.0626,39.8127
14:06:20.339,20.3126,38.5001
14:06:20.352,19.6251,37.8751
14:06:20.355,19.5001,35.8751
14:06:20.361,18.2501,36.0001
14:06:20.372,17.9376,33.1251
14:06:20.381,16.8126,32.6251
14:06:20.391,16.2501,31.0001
14:06:20.408,15.6251,29.0001
14:06:20.423,14.3751,27.6251
14:06:20.427,13.6876,25.4376
14:06:20.433,12.8125,24.1251
14:06:20.443,11.375,22.1251
14:06:20.451,11.25,20.1876
14:06:20.461,9.875,17.1251
14:06:20.472,8.5625,15.4376
14:06:20.481,8.125,14.0626
14:06:20.492,7.4375,10.875
14:06:20.501,6.125,9
14:06:20.511,5.8125,7.0625
14:06:20.521,4.75,4.9375
14:06:20.531,3.5625,3.3125
14:06:20.541,2.625,1.8125
14:06:20.551,1.625,-1.125
14:06:20.561,0.3125,-3.6875
14:06:20.571,-0.625,-5.5625
14:06:20.581,-1.3125,-8.375
14:06:20.592,-2.0625,-9.5
14:06:20.601,-2.4375,-11.875
14:06:20.612,-3.625,-13
14:06:20.621,-4,-14.6251
14:06:20.631,-4.625,-16.8751
14:06:20.642,-5.375,-17.1876
14:06:20.652,-5.5,-19.8126
14:06:20.661,-6.875,-21.0626
14:06:20.672,-7.625,-22.8126
14:06:20.681,-8.625,-24.7501
14:06:20.691,-8.875,-26.5001
14:06:20.701,-9.375,-29.1251
14:06:20.711,-9.9375,-29.9376
14:06:20.721,-11.625,-33.0001
14:06:20.731,-11.75,-34.6876
14:06:20.741,-13.5626,-35.6251
14:06:20.751,-13.8751,-40.0627
14:06:20.761,-14.4376,-41.5002
14:06:20.771,-16.1251,-44.0002
14:06:20.782,-16.3751,-46.1877
14:06:20.792,-16.0001,-45.7502
14:06:20.801,-15.4376,-44.7502
14:06:20.811,-12.25,-39.4377
14:06:20.843,-8.1875,-29.9376
14:06:20.851,-2.875,-18.0626
14:06:20.851,2.9375,-5.6875
14:06:20.853,7.625,6.3125
14:06:20.880,11.875,15.1876
14:06:20.884,14.5626,22.7501
14:06:20.885,16.8126,29.2501
14:06:20.891,19.4376,35.0626
14:06:20.907,20.4376,38.8126
14:06:20.911,22.0001,42.5627
14:06:20.946,22.1876,45.4377
14:06:20.948,23.3751,47.6252
14:06:20.950,23.8751,50.2502
14:06:20.955,25.3126,52.1877
14:06:20.963,24.9376,54.1877
14:06:20.988,25.1876,55.7502
14:06:20.991,25.3126,56.8752
14:06:20.993,25.8751,57.1877
14:06:21.002,25.8126,57.3752
14:06:21.012,24.8126,58.7502
14:06:21.021,24.8751,57.5002
14:06:21.031,24.3751,56.2502
14:06:21.041,23.6876,54.6252
14:06:21.051,22.6251,53.1877
14:06:21.061,22.1251,50.6252
14:06:21.071,20.6251,47.9377
14:06:21.085,19.3751,45.9377
14:06:21.091,18.7501,44.5002
14:06:21.101,17.3751,42.0002
14:06:21.112,16.5001,39.6877
14:06:21.121,15.1876,36.8126
14:06:21.131,15.1251,35.6251
14:06:21.141,14.6876,33.7501
14:06:21.151,14.7501,32.7501
14:06:21.162,13.5001,31.5001
14:06:21.171,13.0625,30.6251
14:06:21.181,12.25,29.3126
14:06:21.192,12.375,28.7501
14:06:21.201,12.25,27.3126
14:06:21.211,11,25.9376
14:06:21.221,10.75,24.9376
14:06:21.231,9.75,23.9376
14:06:21.243,9.25,22.6251
14:06:21.252,9,20.1251
14:06:21.261,7.6875,18.8126
14:06:21.272,6.875,16.7501
14:06:21.281,6,15.6876
14:06:21.291,5.75,12.75
14:06:21.301,4.875,10.5
14:06:21.312,3.625,9.75
14:06:21.322,2.75,6.4375
14:06:21.331,2.0625,4.5
14:06:21.341,2.5,3.4375
14:06:21.353,0.875,1.1875
14:06:21.362,0.625,-0.3125
14:06:21.372,-1.25,-2.8125
14:06:21.382,-1.4375,-4.4375
14:06:21.391,-2,-7.25
14:06:21.401,-3,-8.25
14:06:21.411,-4.3125,-10.5625
14:06:21.421,-5.3125,-13.4376
14:06:21.431,-6.0625,-14.4376
14:06:21.441,-6.1875,-16.2501
14:06:21.451,-6.125,-17.0626
14:06:21.463,-7.0625,-19.5626
14:06:21.499,-7.375,-21.0626
14:06:21.501,-7.6875,-22.1876
14:06:21.503,-8.625,-23.0626
14:06:21.506,-8.625,-24.6876
14:06:21.512,-9.75,-26.3751
14:06:21.540,-10.8125,-27.8751
14:06:21.543,-11.625,-31.0001
14:06:21.545,-12.3125,-31.6251
14:06:21.577,-12.875,-34.5001
14:06:21.579,-12.9375,-36.6251
14:06:21.581,-15.2501,-38.2501
14:06:21.587,-15.3126,-40.6877
14:06:21.594,-16.0001,-41.5627
14:06:21.624,-16.1251,-43.9377
14:06:21.647,-16.1251,-42.3127
14:06:21.661,-15.0001,-41.3752
14:06:21.664,-11.625,-34.9376
14:06:21.666,-6.375,-24.6251
14:06:21.671,-1.5625,-13.6876
14:06:21.671,3,-2.125
14:06:21.671,6,7.6875
14:06:21.682,10,15.6876
14:06:21.691,12.5625,24.1876
14:06:21.710,15.1876,28.2501
14:06:21.712,16.6251,33.8126
14:06:21.727,18.0001,36.0001
14:06:21.744,18.8751,40.8752
14:06:21.747,19.8751,42.5002
14:06:21.761,20.6876,44.0002
14:06:21.764,21.1251,45.6877
14:06:21.772,21.1251,46.6877
14:06:21.781,21.6876,48.2502
14:06:21.791,22.5001,49.1252
14:06:21.802,22.2501,50.0002
14:06:21.812,22.0001,50.8752
14:06:21.821,21.6251,50.8752
14:06:21.832,21.5626,49.5627
14:06:21.844,21.0001,48.0002
14:06:21.853,20.3751,45.8752
14:06:21.861,19.5626,45.5627
14:06:21.871,17.7501,43.1877
14:06:21.881,17.4376,40.3127
14:06:21.892,16.8126,38.3126
14:06:21.901,15.6251,35.0626
14:06:21.911,14.5001,34.5001
14:06:21.922,13.8126,31.5626
14:06:21.931,13.3751,29.7501
14:06:21.942,12.25,27.9376
14:06:21.951,12.1875,27.0626
14:06:21.961,11.5625,26.3126
14:06:21.972,11.25,25.0001
14:06:21.981,11,24.3126
14:06:21.991,10.4375,23.1251
14:06:22.001,10.5,21.6876
14:06:22.012,10.1875,20.7501
14:06:22.021,9,19.8126
14:06:22.031,8.875,18.1876
14:06:22.042,8.5,17.1251
14:06:22.052,7.4375,16.0626
14:06:22.062,7.5,14.5626
14:06:22.071,5.5625,13.3126
14:06:22.081,4.9375,11.125
14:06:22.092,4.9375,8.875
14:06:22.121,3.875,7.3125
14:06:22.124,3.8125,4.875
14:06:22.127,1.75,3.9375
14:06:22.131,1.9375,0.9375
14:06:22.141,0.5,-0.5
14:06:22.152,0.375,-2.4375
14:06:22.161,-0.875,-4.8125
14:06:22.171,-1.375,-6.4375
14:06:22.181,-2.5,-8.875
14:06:22.191,-2.75,-10.125
14:06:22.202,-3.6875,-12.625
14:06:22.211,-4.375,-14.8751
14:06:22.222,-5.9375,-16.0626
14:06:22.232,-6.3125,-18.4376
14:06:22.260,-7,-20.5626
14:06:22.263,-7.5,-21.3126
14:06:22.263,-8.3125,-24.0001
14:06:22.272,-8.75,-25.6876
14:06:22.299,-9.1875,-26.8751
14:06:22.309,-9.8125,-28.7501
14:06:22.309,-9.4375,-29.9376
14:06:22.336,-10.9375,-31.3126
14:06:22.338,-11.5,-34.0001
14:06:22.340,-12.6875,-34.3126
14:06:22.348,-12.875,-37.8126
14:06:22.354,-13.6876,-38.9376
14:06:22.385,-14.6876,-40.4377
14:06:22.388,-15.7501,-42.8127
14:06:22.390,-15.3751,-44.7502
14:06:22.393,-17.0626,-46.9377
14:06:22.421,-16.6251,-48.3752
14:06:22.422,-17.5626,-49.4377
14:06:22.425,-17.0626,-48.3752
14:06:22.433,-15.3751,-44.9377
14:06:22.443,-11.125,-37.6876
14:06:22.451,-5.8125,-25.7501
14:06:22.461,-0.6875,-13.2501
14:06:22.471,4.9375,-2
14:06:22.481,7.9375,8
14:06:22.492,12.125,16.1876
14:06:22.502,14.9376,22.2501
14:06:22.511,17.0626,29.1251
14:06:22.521,18.1876,33.5001
14:06:22.531,19.8126,37.4376
14:06:22.541,21.3751,40.1877
14:06:22.552,21.6876,43.6252
14:06:22.563,23.1251,45.5627
14:06:22.571,23.1876,48.2502
14:06:22.587,24.0001,49.7502
14:06:22.592,24.6251,52.5627
14:06:22.602,25.6876,53.2502
14:06:22.611,26.0001,53.6877
14:06:22.621,26.0626,55.3127
14:06:22.632,25.8751,55.4377
14:06:22.641,26.0626,56.6877
14:06:22.651,26.2501,56.3127
14:06:22.661,25.3126,54.3127
14:06:22.671,23.8751,52.1877
14:06:22.681,23.0001,51.3127
14:06:22.692,22.8126,49.1877
14:06:22.701,21.0001,48.0627
14:06:22.712,21.1876,44.8127
14:06:22.722,18.9376,43.2502
14:06:22.732,18.0001,40.6252
14:06:22.741,17.2501,38.6251
14:06:22.751,16.9376,36.9376
14:06:22.761,16.1251,34.4376
14:06:22.772,15.5001,34.0001
14:06:22.781,15.1251,31.7501
14:06:22.792,14.9376,32.0626
14:06:22.803,14.6251,29.7501
14:06:22.811,14.0626,29.8751
14:06:22.821,13.5626,27.6876
14:06:22.831,13.1876,27.4376
14:06:22.841,12.6875,25.2501
14:06:22.851,12.4375,24.2501
14:06:22.862,12.25,22.6876
14:06:22.872,11,21.0001
14:06:22.881,10.5,19.3126
14:06:22.892,9.375,17.6251
14:06:22.901,9.4375,15.4376
14:06:22.911,7.9375,14.3751
14:06:22.921,7.6875,11.6875
14:06:22.938,6.4375,10.25
14:06:22.945,6,8.1875
14:06:22.952,5.25,5.4375
14:06:22.969,4.1875,4.1875
14:06:22.975,3.125,1.1875
14:06:22.985,2.1875,-1.0625
14:06:22.991,1.5,-2
14:06:23.055,0.9375,-5.8125
14:06:23.065,0.0625,-6.1875
14:06:23.069,-0.4375,-9.4375
14:06:23.116,-1,-11.0625
14:06:23.117,-1.9375,-12.75
14:06:23.117,-2.3125,-14.6876
14:06:23.117,-3.75,-17.4376
14:06:23.119,-4.1875,-18.1876
14:06:23.124,-5.125,-20.9376
14:06:23.125,-5.6875,-22.4376
14:06:23.125,-5.9375,-23.3751
14:06:23.158,-6.875,-25.9376
14:06:23.159,-7.75,-27.1876
14:06:23.161,-7.6875,-28.8751
14:06:23.164,-8.75,-31.0001
14:06:23.176,-9.375,-32.1251
14:06:23.182,-10.375,-35.1251
14:06:23.192,-11.375,-36.4376
14:06:23.203,-12,-38.6876
14:06:23.211,-12.75,-40.5627
14:06:23.223,-13.6251,-42.3127
14:06:23.231,-14.1251,-45.5627
14:06:23.242,-16.0626,-49.6252
14:06:23.251,-15.7501,-49.3752
14:06:23.263,-14.2501,-47.0627
14:06:23.272,-11.9375,-40.8127
14:06:23.281,-6.5625,-31.5626
14:06:23.292,1.625,-12.75
14:06:23.302,5.5625,-1.625
14:06:23.313,10.25,8.9375
14:06:23.321,13.3751,15.7501
14:06:23.331,15.4376,24.1251
14:06:23.343,18.0001,28.9376
14:06:23.351,19.5001,33.1251
14:06:23.361,21.1876,37.9376
14:06:23.372,22.7501,40.2502
14:06:23.402,23.5626,45.1252
14:06:23.404,24.3126,46.5627
14:06:23.406,25.0626,49.4377
14:06:23.413,25.9376,50.6877
14:06:23.424,26.2501,53.8127
14:06:23.433,26.0001,54.1877
14:06:23.441,27.0001,56.2502
14:06:23.453,27.3126,56.9377
14:06:23.462,27.2501,58.0627
14:06:23.473,26.1876,58.8127
14:06:23.483,27.0626,57.7502
14:06:23.492,26.0001,56.3127
14:06:23.503,25.6876,55.6252
14:06:23.511,25.2501,53.2502
14:06:23.523,23.6251,51.1252
14:06:23.533,22.0001,49.4377
14:06:23.543,21.7501,46.6877
14:06:23.551,20.7501,44.5627
14:06:23.563,20.1876,42.3127
14:06:23.572,18.5626,40.5627
14:06:23.582,18.3751,38.6251
14:06:23.593,17.1251,37.6251
14:06:23.602,17.5001,36.1876
14:06:23.613,16.1876,34.8126
14:06:23.622,16.3751,33.5626
14:06:23.632,15.3126,32.8126
14:06:23.643,14.6251,31.5626
14:06:23.651,14.7501,29.1876
14:06:23.663,14.0001,28.7501
14:06:23.673,13.2501,27.3751
14:06:23.683,12.5625,26.6876
14:06:23.693,12.8125,24.5001
14:06:23.726,11.6875,23.0001
14:06:23.727,10.875,20.3751
14:06:23.730,9.9375,18.9376
14:06:23.763,9.1875,17.0001
14:06:23.764,8.5,14.8751
14:06:23.766,7.3125,12.1875
14:06:23.775,7.1875,10.75
14:06:23.775,5.1875,9.25
14:06:23.786,4.75,7.3125
14:06:23.811,4.75,4.75
14:06:23.816,3.5,2.875
14:06:23.816,2.5625,0.6875
14:06:23.824,1.8125,-2.0625
14:06:23.849,0.75,-3.125
14:06:23.851,0.5,-6.375
14:06:23.854,-1.125,-8.1875
14:06:23.885,-1.125,-10.125
14:06:23.888,-2.1875,-12.75
14:06:23.895,-3.6875,-13.7501
14:06:23.898,-3.3125,-15.3126
14:06:23.907,-4.4375,-17.8751
14:06:23.917,-5.5625,-19.8126
14:06:23.927,-5.5625,-20.2501
14:06:23.937,-6,-23.2501
14:06:23.948,-7.625,-24.6876
14:06:23.956,-7.75,-26.9376
14:06:23.968,-8.75,-28.6251
14:06:23.978,-9.25,-30.5626
14:06:23.988,-9.875,-31.8751
14:06:23.998,-10.875,-34.0001
14:06:24.008,-12.0625,-35.5626
14:06:24.017,-12.8125,-38.6876
14:06:24.026,-12.625,-40.2502
14:06:24.037,-14.4376,-42.5002
14:06:24.047,-14.4376,-44.6877
14:06:24.057,-16.1251,-47.0002
14:06:24.068,-16.4376,-49.3752
14:06:24.077,-17.3126,-48.6877
14:06:24.087,-14.8126,-47.3127
14:06:24.097,-12.5,-41.6252
14:06:24.107,-7.375,-31.1876
14:06:24.117,-2.0625,-19.0626
14:06:24.128,2.8125,-6.4375
14:06:24.137,7.4375,4.25
14:06:24.148,11,12.9375
14:06:24.157,13.8751,20.7501
14:06:24.167,16.1251,27.0626
14:06:24.178,18.0001,32.8126
14:06:24.187,20.1876,36.5001
14:06:24.197,20.5001,41.0002
14:06:24.208,22.2501,42.8752
14:06:24.218,22.0001,45.6877
14:06:24.228,23.3126,48.8752
14:06:24.238,23.3751,50.0002
14:06:24.248,23.8126,51.8127
14:06:24.268,24.5626,52.7502
14:06:24.274,23.7501,53.6252
14:06:24.280,24.1251,55.3752
14:06:24.290,24.8126,55.8752
14:06:24.297,24.1876,56.3752
14:06:24.312,24.0001,56.4377
14:06:24.321,23.5001,55.1877
14:06:24.327,23.0626,53.7502
14:06:24.337,21.5626,51.3752
14:06:24.357,20.3751,49.9377
14:06:24.360,19.7501,47.6252
14:06:24.370,18.0626,45.8127
14:06:24.377,17.5626,42.8127
14:06:24.393,16.2501,42.0002
14:06:24.400,15.7501,38.8126
14:06:24.408,14.9376,37.1876
14:06:24.417,14.3126,36.3751
14:06:24.427,14.3751,34.6251
14:06:24.437,13.1876,33.8126
14:06:24.448,13.5001,33.2501
14:06:24.457,13.1251,32.1251
14:06:24.468,12.875,31.8126
14:06:24.482,12.5,30.4376
14:06:24.489,11,30.3126
14:06:24.521,11.25,27.6876
14:06:24.523,10.375,26.9376
14:06:24.525,9.5,25.1251
14:06:24.529,8.875,22.4376
14:06:24.558,8.3125,22.4376
14:06:24.561,7.8125,19.5626
14:06:24.562,6.6875,17.8126
14:06:24.589,6.0625,16.0626
14:06:24.590,5.1875,14.0626
14:06:24.593,4.0625,12.875
14:06:24.599,3.625,9.6875
14:06:24.634,1.875,7.875
14:06:24.636,1.8125,5.5625
14:06:24.638,0.375,4
14:06:24.673,0.125,2.3125
14:06:24.674,-0.875,0.875
14:06:24.676,-1.0625,-2.4375
14:06:24.689,-3,-3.8125
14:06:24.690,-3,-5.375
14:06:24.691,-3.8125,-6.8125
14:06:24.700,-4.4375,-8.75
14:06:24.708,-5.3125,-11.875
14:06:24.719,-6,-13.1876
14:06:24.727,-7,-15.2501
14:06:24.737,-7.75,-16.8751
14:06:24.748,-8.8125,-19.0626
14:06:24.757,-9.6875,-21.0626
14:06:24.768,-10.625,-22.7501
14:06:24.779,-11.1875,-25.5001
14:06:24.787,-12.0625,-27.2501
14:06:24.800,-12.625,-30.0626
14:06:24.808,-13.3751,-32.6876
14:06:24.817,-14.0001,-32.4376
14:06:24.827,-12.9375,-32.3751
14:06:24.838,-12.0625,-29.8751
14:06:24.847,-9.1875,-24.7501
14:06:24.858,-4.375,-15.8751
14:06:24.868,-1.0625,-5.4375
14:06:24.878,2.9375,2.6875
14:06:24.888,6.8125,11.8125
14:06:24.899,9.3125,19.0626
14:06:24.908,11.375,24.4376
14:06:24.918,13.5001,30.6876
14:06:24.927,15.3751,34.5001
14:06:24.937,15.6251,39.8752
14:06:24.948,17.1876,41.8127
14:06:24.958,18.3126,44.1252
14:06:24.967,18.5001,47.0627
14:06:24.977,19.1251,48.4377
14:06:24.987,19.6876,51.0627
14:06:24.997,19.7501,52.2502
14:06:25.008,20.0626,52.5002
14:06:25.018,19.9376,54.3127
14:06:25.027,20.1251,54.3127
14:06:25.036,19.8751,54.3127
14:06:25.049,18.9376,54.3127
14:06:25.057,18.3126,53.0002
14:06:25.068,18.0626,51.3127
14:06:25.078,17.0626,48.4377
14:06:25.087,15.4376,46.8752
14:06:25.097,14.2501,44.1252
14:06:25.108,13.7501,41.1252
14:06:25.119,12.1875,38.1251
14:06:25.127,11.5625,37.3751
14:06:25.138,11.5,35.3126
14:06:25.147,10.1875,32.6876
14:06:25.158,9.25,31.6876
14:06:25.168,8.75,29.1251
14:06:25.199,8.25,29.6876
14:06:25.201,7.25,27.6251
14:06:25.203,8.0625,27.0626
14:06:25.208,7.1875,25.9376
14:06:25.238,6.5625,25.1251
14:06:25.243,5.75,24.0001
14:06:25.244,5.125,22.4376
14:06:25.249,4.625,20.7501
14:06:25.258,4.0625,18.8126
14:06:25.287,3.125,16.0001
14:06:25.290,2.4375,14.3126
14:06:25.293,1.375,12.6875
14:06:25.297,0.125,10.6875
14:06:25.331,-0.125,8.0625
14:06:25.333,-1.25,6.75
14:06:25.335,-2.125,4.6875
14:06:25.339,-2.4375,2.875
14:06:25.357,-3.875,0.75
14:06:25.359,-4.5,-2.4375
14:06:25.367,-5.125,-4.8125
14:06:25.377,-5.5,-5.5
14:06:25.387,-6.625,-8.5
14:06:25.397,-7.375,-10.8125
14:06:25.409,-7.125,-12.6875
14:06:25.420,-9.4375,-14.5626
14:06:25.427,-9.1875,-16.0001
14:06:25.438,-10.3125,-17.5001
14:06:25.448,-11.5625,-19.3751
14:06:25.458,-11.6875,-22.3751
14:06:25.468,-12.9375,-22.9376
14:06:25.477,-13.0625,-26.3751
14:06:25.487,-14.4376,-26.1876
14:06:25.498,-14.4376,-29.8126
14:06:25.507,-15.8751,-31.0001
14:06:25.517,-16.1251,-32.8751
14:06:25.528,-16.9376,-35.3126
14:06:25.538,-17.2501,-36.0001
14:06:25.548,-18.0001,-39.6252
14:06:25.558,-19.1876,-40.8752
14:06:25.567,-19.6876,-42.7502
14:06:25.577,-20.3751,-45.6877
14:06:25.597,-21.3126,-46.8752
14:06:25.603,-21.8751,-48.6877
14:06:25.619,-21.4376,-49.1877
14:06:25.621,-20.4376,-46.5002
14:06:25.636,-17.7501,-43.1252
14:06:25.639,-13.8126,-33.9376
14:06:25.648,-9.1875,-21.9376
14:06:25.657,-3.9375,-11.8125
14:06:25.676,0.25,0.0625
14:06:25.678,4.0625,8.75
14:06:25.693,7.625,17.1251
14:06:25.702,10.0625,24.5001
14:06:25.708,12.6875,29.6251
14:06:25.717,14.1876,34.9376
14:06:25.727,15.7501,40.4377
14:06:25.738,16.8751,43.3752
14:06:25.748,18.3126,47.7502
14:06:25.758,19.3751,49.6252
14:06:25.768,19.5626,53.5002
14:06:25.777,20.8126,55.9377
14:06:25.789,21.5001,58.2502
14:06:25.798,21.5001,60.7502
14:06:25.807,22.3751,62.2502
14:06:25.818,21.7501,63.8127
14:06:25.828,22.7501,65.2503
14:06:25.838,22.7501,66.0628
14:06:25.848,22.5001,65.7503
14:06:25.859,21.2501,64.1877
14:06:25.867,20.0001,63.7502
14:06:25.878,20.2501,61.9377
14:06:25.887,18.1251,59.0002
14:06:25.917,16.9376,56.9377
14:06:25.919,16.0001,53.5627
14:06:25.921,14.6876,51.3752
14:06:25.931,14.1876,50.1252
14:06:25.967,13.125,48.4377
14:06:25.968,12.9375,45.7502
14:06:25.971,11.75,43.9377
14:06:25.973,11.75,42.1877
14:06:25.979,10.5,41.4377
14:06:26.007,10.5,39.8127
14:06:26.009,9.875,39.1251
14:06:26.013,9.75,37.0626
14:06:26.019,8.5625,36.0626
14:06:26.046,7.6875,34.6251
14:06:26.048,7.6875,32.5626
14:06:26.051,6.4375,31.1251
14:06:26.057,5.9375,28.6251
14:06:26.079,5.0625,26.3126
14:06:26.081,4.8125,24.8126
14:06:26.089,3.5625,23.3126
14:06:26.098,3.1875,20.5626
14:06:26.108,2.5625,18.4376
14:06:26.118,0.6875,16.4376
14:06:26.127,0.4375,15.3751
14:06:26.138,-0.3125,12.4375
14:06:26.147,-2,10.625
14:06:26.161,-2.0625,7
14:06:26.168,-3.375,4.5625
14:06:26.178,-4.3125,3.1875
14:06:26.188,-5.375,0.5
14:06:26.197,-6.1875,-1.8125
14:06:26.208,-6.625,-4.375
14:06:26.218,-8.4375,-6.5
14:06:26.229,-8.875,-8.4375
14:06:26.237,-9.3125,-11.3125
14:06:26.247,-10.5,-11.75
14:06:26.257,-10.6875,-15.3751
14:06:26.267,-12.4375,-16.5001
14:06:26.277,-11.9375,-18.5626
14:06:26.287,-13.4376,-19.5626
14:06:26.298,-13.3751,-21.3751
14:06:26.307,-14.0001,-24.8751
14:06:26.318,-14.6876,-25.4376
14:06:26.328,-15.6251,-28.8751
14:06:26.339,-16.2501,-29.9376
14:06:26.348,-17.2501,-32.5001
14:06:26.358,-18.3126,-34.8126
14:06:26.367,-19.6876,-38.1876
14:06:26.378,-19.3126,-39.7502
14:06:26.387,-20.8126,-39.7502
14:06:26.397,-21.0626,-43.4377
14:06:26.408,-20.9376,-42.3127
14:06:26.418,-19.8126,-42.2502
14:06:26.428,-16.7501,-37.3126
14:06:26.438,-14.0626,-29.4376
14:06:26.447,-8.8125,-19.4376
14:06:26.458,-4,-8.4375
14:06:26.468,-0.25,2.375
14:06:26.478,3.9375,10.9375
14:06:26.487,6.5,18.5001
14:06:26.497,8.9375,26.1251
14:06:26.507,11.5625,30.6876
14:06:26.517,12.5,37.5001
14:06:26.528,14.3126,41.1877
14:06:26.538,14.9376,45.6877
14:06:26.551,16.3126,48.4377
14:06:26.558,17.2501,50.6252
14:06:26.591,17.7501,54.8752
14:06:26.593,18.3126,56.3752
14:06:26.595,19.1251,60.0627
14:06:26.597,19.6251,60.8752
14:06:26.631,20.0626,63.3127
14:06:26.633,19.3751,63.5627
14:06:26.635,20.1876,66.1253
14:06:26.638,19.0626,65.5628
14:06:26.670,18.5626,64.8127
14:06:26.672,17.3126,64.3752
14:06:26.674,16.6876,61.1877
14:06:26.709,15.6251,59.8752
14:06:26.709,14.7501,58.8752
14:06:26.710,13.2501,55.3752
14:06:26.718,12.9375,53.5002
14:06:26.719,11.0625,51.1877
14:06:26.745,11.25,48.5627
14:06:26.747,9.1875,47.0627
14:06:26.749,9.125,44.6252
14:06:26.758,7.9375,42.5627
14:06:26.768,7.6875,41.0002
14:06:26.778,6.75,40.1252
14:06:26.787,6.0625,38.1876
14:06:26.797,6.1875,37.4376
14:06:26.807,5.375,35.6251
14:06:26.818,5.1875,34.0626
14:06:26.827,4.5,32.8751
14:06:26.838,4,32.4376
14:06:26.847,3.75,30.1251
14:06:26.858,2.8125,27.6251
14:06:26.868,2.0625,26.2501
14:06:26.878,0.8125,24.4376
14:06:26.887,0.75,21.8751
14:06:26.904,-0.5625,20.4376
14:06:26.910,-1.8125,17.6876
14:06:26.926,-2.375,14.7501
14:06:26.928,-3.1875,12.6875
14:06:26.944,-4.8125,10.5625
14:06:26.951,-5,8.125
14:06:26.958,-6.4375,5.625
14:06:26.979,-6.75,3.125
14:06:26.981,-7.9375,0.75
14:06:26.996,-9.25,-0.5625
14:06:26.998,-9.625,-4.375
14:06:27.014,-10.9375,-6.6875
14:06:27.017,-11.6875,-8.125
14:06:27.028,-12.375,-11.1875
14:06:27.037,-12.8125,-13.5001
14:06:27.047,-12.6875,-15.3751
14:06:27.058,-14.1876,-17.1251
14:06:27.068,-15.1876,-19.7501
14:06:27.077,-16.0001,-21.8751
14:06:27.087,-17.2501,-23.1876
14:06:27.097,-17.1251,-25.5626
14:06:27.107,-17.7501,-28.3751
14:06:27.117,-18.3126,-29.5626
14:06:27.128,-19.5001,-31.4376
14:06:27.137,-20.3126,-33.4376
14:06:27.147,-20.8126,-36.6251
14:06:27.158,-21.4376,-38.3751
14:06:27.167,-22.6876,-40.6877
14:06:27.177,-22.9376,-42.6252
14:06:27.188,-23.9376,-43.7502
14:06:27.198,-24.8751,-46.9377
14:06:27.207,-24.6876,-49.1877
14:06:27.218,-26.0001,-50.1252
14:06:27.242,-25.0626,-50.2502
14:06:27.245,-23.8126,-47.6877
14:06:27.247,-21.0626,-43.4377
14:06:27.258,-16.6876,-34.7501
14:06:27.268,-10.625,-22.4376
14:06:27.279,-6.6875,-11.125
14:06:27.287,-2.25,-0.5625
14:06:27.299,1.6875,8.875
14:06:27.311,4.375,15.3126
14:06:27.318,6.75,22.5626
14:06:27.327,9.3125,27.3126
14:06:27.338,10.625,33.4376
14:06:27.347,12,37.3751
14:06:27.361,13.4376,40.5002
14:06:27.367,13.8751,42.8752
14:06:27.403,14.8751,46.5627
14:06:27.403,15.6876,48.2502
14:06:27.408,15.7501,51.6252
14:06:27.408,16.5626,52.6252
14:06:27.441,16.2501,55.2502
14:06:27.443,17.1251,55.8752
14:06:27.445,16.7501,58.8127
14:06:27.452,17.5626,57.8752
14:06:27.460,16.5001,59.0002
14:06:27.491,15.9376,56.4377
14:06:27.493,15.1876,55.0627
14:06:27.496,14.0626,54.6252
14:06:27.497,13.3751,51.5627
14:06:27.535,11.6875,48.6877
14:06:27.537,10.375,46.1252
14:06:27.539,9.25,43.0002
14:06:27.545,8.25,41.7502
14:06:27.547,7.4375,38.5626
14:06:27.557,6.875,37.0626
14:06:27.568,5.75,35.1876
14:06:27.577,5.5,34.0001
14:06:27.588,5.125,32.6876
14:06:27.597,4.3125,31.8126
14:06:27.608,3.375,30.6251
14:06:27.617,2.9375,29.1251
14:06:27.627,2.5,27.6251
14:06:27.637,2,26.1251
14:06:27.647,1.4375,24.8126
14:06:27.658,0.8125,22.7501
14:06:27.668,-0.875,20.5626
14:06:27.683,-0.6875,19.3751
14:06:27.688,-1.625,16.8126
14:06:27.698,-2.375,14.8126
14:06:27.708,-2.9375,12.5625
14:06:27.717,-4.75,10.9375
14:06:27.727,-5.1875,8.3125
14:06:27.737,-6.1875,6.25
14:06:27.748,-6.875,3.875
14:06:27.758,-7.875,1
14:06:27.767,-9.3125,-0.375
14:06:27.777,-9.9375,-3.125
14:06:27.787,-10.8125,-5.375
14:06:27.798,-11.375,-8.1875
14:06:27.808,-12.6875,-10.125
14:06:27.817,-13.5001,-12.8125
14:06:27.827,-14.6251,-14.3751
14:06:27.839,-14.6251,-16.9376
14:06:27.848,-15.0626,-18.5001
14:06:27.857,-15.8126,-20.6876
14:06:27.867,-17.1251,-21.6876
14:06:27.877,-17.6251,-24.6876
14:06:27.887,-18.3126,-25.7501
14:06:27.898,-18.7501,-28.5626
14:06:27.908,-19.8126,-29.6251
14:06:27.923,-20.8751,-33.0001
14:06:27.933,-21.1876,-33.2501
14:06:27.943,-22.3126,-36.3751
14:06:27.952,-22.3126,-38.3751
14:06:27.963,-23.8751,-40.3127
14:06:27.973,-24.5626,-42.9377
14:06:27.983,-24.8126,-44.7502
14:06:27.992,-26.1876,-46.3752
14:06:28.002,-26.4376,-48.6252
14:06:28.013,-25.8751,-48.5627
14:06:28.024,-25.0626,-46.1877
14:06:28.043,-22.2501,-42.8127
14:06:28.044,-18.0001,-34.5001
14:06:28.072,-14.1876,-23.1251
14:06:28.074,-9.5,-14.3751
14:06:28.076,-5.4375,-4.9375
14:06:28.084,-1.0625,7.25
14:06:28.109,2.1875,15.6251
14:06:28.111,4.3125,20.8751
14:06:28.114,5.8125,25.5626
14:06:28.143,7.5,29.6251
14:06:28.147,8.3125,33.3126
14:06:28.147,10.25,36.5001
14:06:28.155,9.875,38.5626
14:06:28.180,10.4375,40.6252
14:06:28.183,11.25,41.9377
14:06:28.185,11.125,44.2502
14:06:28.218,12,45.5627
14:06:28.221,11.5625,46.7502
14:06:28.235,11.875,46.3127
14:06:28.241,10.625,46.9377
14:06:28.252,10.125,45.9377
14:06:28.253,9.5625,44.3127
14:06:28.255,8.375,43.3752
14:06:28.263,7.6875,40.3127
14:06:28.282,5.8125,37.1876
14:06:28.283,4.625,34.7501
14:06:28.301,3.875,33.1876
14:06:28.315,3,30.2501
14:06:28.318,1.4375,28.9376
14:06:28.323,1.1875,26.0001
14:06:28.332,0,25.3126
14:06:28.343,-0.25,23.5001
14:06:28.352,-1.125,20.8126
14:06:28.363,-1.75,20.3751
14:06:28.373,-2.125,19.4376
14:06:28.382,-2.6875,18.3126
14:06:28.393,-2.5,16.8126
14:06:28.403,-3.25,15.8126
14:06:28.413,-3.1875,14.9376
14:06:28.422,-4.875,12.625
14:06:28.432,-4.75,11.4375
14:06:28.444,-5.5,10.1875
14:06:28.453,-7.125,7.8125
14:06:28.463,-7.375,6.6875
14:06:28.473,-8.25,3.25
14:06:28.484,-9.0625,1.875
14:06:28.492,-9.125,0.25
14:06:28.521,-11,-2.0625
14:06:28.524,-11.1875,-4.4375
14:06:28.526,-12.5625,-7
14:06:28.533,-13.1876,-9.1875
14:06:28.542,-13.8126,-11.25
14:06:28.553,-14.8126,-13.8126
14:06:28.563,-16.1876,-15.3126
14:06:28.573,-17.1876,-17.8126
14:06:28.582,-17.4376,-20.5626
14:06:28.594,-18.6876,-22.5001
14:06:28.602,-19.0626,-25.3751
14:06:28.613,-20.8126,-26.1251
14:06:28.622,-20.8126,-29.7501
14:06:28.632,-22.1876,-31.0001
14:06:28.643,-21.6251,-33.1876
14:06:28.652,-23.1251,-34.6251
14:06:28.662,-23.2501,-36.2501
14:06:28.672,-24.6876,-37.2501
14:06:28.682,-24.4376,-40.4377
14:06:28.692,-24.8126,-41.5627
14:06:28.702,-26.0626,-42.6877
14:06:28.712,-26.7501,-44.6877
14:06:28.723,-27.0626,-47.0627
14:06:28.732,-28.5001,-47.9377
14:06:28.742,-28.1251,-51.1252
14:06:28.753,-29.8751,-51.9377
14:06:28.762,-30.0001,-55.1252
14:06:28.784,-31.1876,-56.7502
14:06:28.786,-31.6876,-59.2502
14:06:28.814,-31.8751,-60.4377
14:06:28.816,-32.5626,-61.0627
14:06:28.819,-30.8751,-60.3752
14:06:28.824,-30.0001,-56.9377
14:06:28.851,-26.3126,-49.5002
14:06:28.854,-20.1876,-37.6876
14:06:28.856,-14.8751,-27.2501
14:06:28.863,-9.4375,-14.3126
14:06:28.895,-5.4375,-3.4375
14:06:28.898,-1.3125,4.9375
14:06:28.899,2.3125,13.4376
14:06:28.931,3.9375,20.6251
14:06:28.931,6.5625,26.8751
14:06:28.934,7.875,30.7501
14:06:28.940,9.125,36.0001
14:06:28.952,10.875,40.1252
14:06:28.955,9.875,42.0627
14:06:28.969,10.3125,46.9377
14:06:28.974,11.125,48.1252
14:06:28.982,11.4375,50.0002
14:06:28.992,11.4375,51.5002
14:06:29.003,9.5625,51.0627
14:06:29.014,8.9375,51.3752
14:06:29.022,8,50.1252
14:06:29.032,6.9375,50.3127
14:06:29.043,5.9375,47.9377
14:06:29.053,7.1875,47.7502
14:06:29.063,6.5625,49.0002
14:06:29.072,4.25,43.8752
14:06:29.083,2,39.6252
14:06:29.093,0.5625,37.5001
14:06:29.102,-0.125,33.4376
14:06:29.113,-0.25,32.1876
14:06:29.122,-1.5625,28.9376
14:06:29.132,-2.9375,26.8751
14:06:29.142,-3.375,23.8751
14:06:29.154,-4.3125,22.0001
14:06:29.162,-4.8125,19.8126
14:06:29.173,-5.625,18.8126
14:06:29.182,-5.6875,16.9376
14:06:29.193,-6.1875,14.0626
14:06:29.204,-7.25,12.5
14:06:29.213,-7.875,9.6875
14:06:29.222,-9.125,8
14:06:29.232,-9.75,5.1875
14:06:29.243,-10.4375,1.75
14:06:29.253,-11.375,-1.4375
14:06:29.263,-12.5,-4.4375
14:06:29.272,-14.2501,-8.8125
14:06:29.282,-15.0001,-10.5
14:06:29.293,-16.3126,-15.0001
14:06:29.303,-17.3751,-17.4376
14:06:29.313,-18.7501,-21.6876
14:06:29.324,-19.1251,-23.3751
14:06:29.333,-20.0001,-27.6251
14:06:29.346,-20.9376,-29.3751
14:06:29.352,-22.1876,-34.0626
14:06:29.363,-23.2501,-36.0626
14:06:29.374,-24.3126,-40.0627
14:06:29.383,-25.6876,-41.5002
14:06:29.392,-26.4376,-45.4377
14:06:29.404,-28.3751,-48.2502
14:06:29.413,-30.1876,-51.4377
14:06:29.423,-31.1876,-53.1252
14:06:29.433,-31.9376,-55.2502
14:06:29.442,-31.9376,-55.6877
14:06:29.453,-33.8751,-57.9377
14:06:29.463,-35.3751,-61.5002
14:06:29.474,-36.2501,-63.9377
14:06:29.485,-39.4377,-66.6253
14:06:29.522,-40.2502,-69.9378
14:06:29.523,-41.8752,-72.0628
14:06:29.557,-42.9377,-74.8128
14:06:29.562,-43.4377,-75.3128
14:06:29.563,-44.6877,-76.0628
14:06:29.568,-45.0002,-78.9378
14:06:29.568,-45.1877,-80.3128
14:06:29.568,-46.5627,-81.6253
14:06:29.607,-46.7502,-83.0003
14:06:29.610,-46.8752,-83.2503
14:06:29.611,-47.6252,-85.6253
14:06:29.614,-47.3127,-85.0003
14:06:29.616,-46.6252,-84.1253
14:06:29.624,-43.8752,-81.1253
14:06:29.656,-40.6877,-72.5003
14:06:29.658,-35.6251,-63.3752
14:06:29.660,-29.1251,-50.3752
14:06:29.665,-23.9376,-36.5001
14:06:29.673,-17.8751,-25.0001
14:06:29.683,-13,-14.5626
14:06:29.693,-9.6875,-6.6875
14:06:29.702,-7.1875,-1.0625
14:06:29.713,-5.5,5.25
14:06:29.724,-3.25,9
14:06:29.734,-1.625,12.875
14:06:29.745,0.5625,14.9376
14:06:29.754,1.4375,17.3126
14:06:29.763,2.9375,19.3126
14:06:29.772,3.3125,21.8751
14:06:29.801,5.3125,21.8751
14:06:29.804,6.25,24.1251
14:06:29.806,6.4375,24.6251
14:06:29.812,7.6875,26.1251
14:06:29.823,7.6875,27.2501
14:06:29.833,8,26.0001
14:06:29.844,7.9375,25.9376
14:06:29.853,7.1875,24.3751
14:06:29.864,6.1875,22.3751
14:06:29.873,4.5,19.8126
14:06:29.886,3.75,15.9376
14:06:29.893,0.875,12.5
14:06:29.904,-0.3125,8
14:06:29.912,-2.375,4.6875
14:06:29.927,-4.25,-0.25
14:06:29.932,-5.8125,-3.875
14:06:29.944,-7.0625,-6.625
14:06:29.952,-7.75,-9.1875
14:06:29.963,-7.75,-9.3125
14:06:29.974,-7.25,-9.625
14:06:29.984,-6,-7.75
14:06:29.994,-5.375,-6.4375
14:06:30.004,-5.875,-5.5625
14:06:30.013,-5.875,-4.75
14:06:30.023,-6.4375,-4.4375
14:06:30.033,-6.5,-5.375
14:06:30.043,-8.5625,-6.4375
14:06:30.054,-11.8125,-11.125
14:06:30.063,-14.0626,-14.1251
14:06:30.073,-13.3751,-15.6876
14:06:30.084,-14.1251,-16.3751
14:06:30.096,-14.2501,-17.6251
14:06:30.103,-14.9376,-19.1251
14:06:30.115,-15.5626,-20.0001
14:06:30.122,-14.9376,-19.5626
14:06:30.134,-15.2501,-18.9376
14:06:30.143,-15.1251,-20.9376
14:06:30.152,-15.0626,-21.0626
14:06:30.164,-15.6876,-21.0626
14:06:30.172,-14.9376,-21.6876
14:06:30.182,-14.8126,-20.3751
14:06:30.193,-15.0001,-22.2501
14:06:30.202,-14.9376,-21.8126
14:06:30.226,-15.1876,-21.0001
14:06:30.229,-14.6251,-22.8751
14:06:30.259,-13.7501,-22.5626
14:06:30.261,-14.6876,-24.0626
14:06:30.264,-14.5626,-25.6251
14:06:30.266,-14.6876,-26.1876
14:06:30.300,-15.8751,-27.7501
14:06:30.301,-15.6876,-31.8126
14:06:30.304,-17.6251,-34.5626
14:06:30.308,-18.4376,-39.1252
14:06:30.334,-19.1251,-43.1877
14:06:30.335,-23.0626,-50.1877
14:06:30.338,-25.1876,-57.3752
14:06:30.361,-27.6251,-64.0627
14:06:30.363,-30.6876,-73.6253
14:06:30.366,-33.9376,-80.5628
14:06:30.375,-37.3751,-89.1878
14:06:30.395,-40.5002,-99.8129
14:06:30.397,-44.0002,-108.6254
14:06:30.404,-47.2502,-116.6879
14:06:30.413,-48.9377,-121.8755
14:06:30.422,-49.3752,-123.1255
14:06:30.434,-47.1877,-119.7505
14:06:30.444,-42.5627,-111.1879
14:06:30.454,-36.1251,-95.8129
14:06:30.464,-27.1251,-76.8753
14:06:30.479,-16.3751,-55.3752
14:06:30.483,-7.4375,-33.4376
14:06:30.493,0.5625,-15.8126
14:06:30.504,5.3125,-3.1875
14:06:30.513,8.875,5.3125
14:06:30.524,11.375,10.6875
14:06:30.534,12.3125,15.7501
14:06:30.543,13.4376,17.7501
14:06:30.554,15.0001,20.1876
14:06:30.563,14.6251,22.1251
14:06:30.574,15.5001,23.6876
14:06:30.584,16.6251,27.1876
14:06:30.594,17.1251,28.8751
14:06:30.604,17.9376,31.3126
14:06:30.614,17.5001,34.3751
14:06:30.624,17.9376,34.9376
14:06:30.635,17.6251,35.2501
14:06:30.642,15.7501,34.9376
14:06:30.654,15.1251,32.8126
14:06:30.662,13.3751,31.5001
14:06:30.674,12.5625,28.7501
14:06:30.685,10.5,27.3751
14:06:30.694,9.75,25.5001
14:06:30.702,7.875,21.5626
14:06:30.714,4.6875,19.2501
14:06:30.724,4.5,16.5001
14:06:30.734,3.0625,15.4376
14:06:30.743,3.875,14.8126
14:06:30.754,2.9375,15.3126
14:06:30.763,3.5625,14.6876
14:06:30.774,3.1875,14.9376
14:06:30.784,3.0625,15.2501
14:06:30.792,2.125,13.8751
14:06:30.804,1.875,13.7501
14:06:30.820,1.8125,12.5
14:06:30.835,1.9375,12.375
14:06:30.837,2,11.875
14:06:30.844,1.8125,11.3125
14:06:30.858,1.625,9.5
14:06:30.863,1.4375,9.125
14:06:30.880,0.9375,6.625
14:06:30.883,0.625,5.0625
14:06:30.897,-1.25,1.3125
14:06:30.904,-1.9375,-0.5
14:06:30.914,-3.125,-4.8125
14:06:30.924,-4.3125,-7.4375
14:06:30.934,-5.6875,-12.0625
14:06:30.944,-7.375,-15.3126
14:06:30.954,-8.0625,-19.2501
14:06:30.978,-8.875,-23.3751
14:06:30.982,-9.6875,-27.7501
14:06:30.983,-10.3125,-31.5001
14:06:31.009,-11.375,-35.5626
14:06:31.012,-13.1876,-40.1877
14:06:31.014,-14.5626,-45.3752
14:06:31.048,-16.4376,-51.0627
14:06:31.053,-19.1876,-56.0627
14:06:31.053,-20.6876,-61.9377
14:06:31.055,-23.1876,-68.8753
14:06:31.083,-26.0626,-74.7503
14:06:31.086,-29.3126,-82.0628
14:06:31.088,-31.3751,-87.8753
14:06:31.121,-34.6876,-94.1254
14:06:31.123,-37.3751,-101.3129
14:06:31.125,-39.4377,-107.2504
14:06:31.148,-42.6252,-113.1879
14:06:31.150,-44.0627,-118.7505
14:06:31.150,-45.8127,-122.1255
14:06:31.157,-46.7502,-124.438
14:06:31.164,-45.4377,-122.813
14:06:31.174,-42.8127,-114.1254
14:06:31.183,-36.1251,-101.3129
14:06:31.194,-26.3751,-80.9378
14:06:31.204,-15.0001,-56.9377
14:06:31.213,-3.4375,-30.6876
14:06:31.223,6.625,-7
14:06:31.233,13.6251,10.6875
14:06:31.247,18.3751,23.3126
14:06:31.254,21.0626,30.5001
14:06:31.264,22.6876,36.1251
14:06:31.273,23.1251,41.1252
14:06:31.284,24.1876,43.6877
14:06:31.294,24.3126,46.5002
14:06:31.302,24.2501,47.1877
14:06:31.314,24.4376,48.3127
14:06:31.323,23.6876,50.4377
14:06:31.334,25.2501,52.3127
14:06:31.344,25.3751,53.5627
14:06:31.355,24.4376,52.4377
14:06:31.363,24.2501,53.4377
14:06:31.374,23.6251,54.1877
14:06:31.384,23.5626,52.3752
14:06:31.393,22.1876,51.7502
14:06:31.404,21.0001,49.4377
14:06:31.412,20.3126,48.1252
14:06:31.424,19.0001,46.3752
14:06:31.433,17.8751,43.4377
14:06:31.444,17.4376,42.6877
14:06:31.456,16.4376,39.9377
14:06:31.464,15.8751,39.3752
14:06:31.474,15.0626,38.0001
14:06:31.484,15.1251,37.6876
14:06:31.493,15.3126,37.0626
14:06:31.502,15.3126,37.6251
14:06:31.514,16.1876,37.5626
14:06:31.524,15.5626,37.0626
14:06:31.534,16.6876,36.6251
14:06:31.544,16.2501,35.6876
14:06:31.554,15.7501,35.3126
14:06:31.565,15.4376,33.1251
14:06:31.574,14.8751,31.5626
14:06:31.584,13.6251,28.4376
14:06:31.594,12,24.4376
14:06:31.608,11.0625,20.6251
14:06:31.614,9.5625,16.6876
14:06:31.624,8.5625,13.2501
14:06:31.633,7.5,8.625
14:06:31.643,6.0625,5.0625
14:06:31.654,4.9375,-0.125
14:06:31.663,4.125,-4.375
14:06:31.676,3.0625,-7.3125
14:06:31.684,1.25,-11.375
14:06:31.694,0.75,-15.0001
14:06:31.705,-1.5,-19.0626
14:06:31.714,-2.1875,-22.6251
14:06:31.732,-4.3125,-25.4376
14:06:31.733,-6,-29.4376
14:06:31.761,-7.4375,-34.7501
14:06:31.764,-10.0625,-39.2502
14:06:31.766,-12.25,-44.6877
14:06:31.797,-15.6251,-51.5002
14:06:31.799,-18.6251,-58.5002
14:06:31.801,-20.1876,-64.5002
14:06:31.804,-24.6876,-71.5003
14:06:31.835,-26.3751,-77.3753
14:06:31.838,-29.8126,-83.3128
14:06:31.840,-31.7501,-89.6878
14:06:31.845,-33.8126,-95.1254
14:06:31.875,-36.1876,-99.3754
14:06:31.876,-38.1876,-102.6879
14:06:31.879,-40.0002,-107.8129
14:06:31.904,-40.1252,-109.9379
14:06:31.905,-41.2502,-110.6879
14:06:31.907,-41.5002,-110.9379
14:06:31.914,-39.3126,-107.6254
14:06:31.929,-35.9376,-98.8129
14:06:31.939,-29.0626,-85.6253
14:06:31.949,-18.5626,-64.1877
14:06:31.959,-8.25,-37.8126
14:06:31.968,4.1875,-13.1875
14:06:31.984,13,9.5625
14:06:31.990,18.4376,24.7501
14:06:31.998,21.5626,32.8751
14:06:32.009,24.7501,41.5002
14:06:32.018,26.6251,47.9377
14:06:32.030,29.0626,52.6252
14:06:32.039,29.1251,56.5002
14:06:32.049,29.6876,57.6252
14:06:32.058,29.1251,61.1252
14:06:32.070,30.6876,61.7502
14:06:32.080,31.3126,65.0628
14:06:32.089,32.2501,69.8128
14:06:32.098,33.5626,70.6253
14:06:32.114,33.4376,73.4378
14:06:32.129,33.6251,76.5003
14:06:32.131,34.8751,76.6253
14:06:32.139,34.6876,77.5628
14:06:32.149,35.2501,78.2503
14:06:32.159,34.8126,77.3128
14:06:32.176,34.3126,76.9378
14:06:32.181,34.1251,74.5628
14:06:32.195,32.9376,73.6878
14:06:32.199,33.0001,70.8753
14:06:32.210,31.4376,70.5628
14:06:32.220,31.2501,68.8753
14:06:32.229,30.8751,67.0628
14:06:32.238,30.8751,64.5627
14:06:32.249,29.1876,62.6252
14:06:32.260,28.6876,60.5002
14:06:32.269,28.0001,58.6252
14:06:32.280,26.6876,56.0002
14:06:32.289,26.2501,53.0627
14:06:32.299,25.0626,50.3127
14:06:32.311,23.5001,48.0002
14:06:32.319,22.6876,44.7502
14:06:32.329,21.3126,41.5627
14:06:32.363,20.6876,38.1876
14:06:32.366,19.6251,34.4376
14:06:32.368,19.0626,31.0001
14:06:32.374,18.0001,27.7501
14:06:32.383,16.6876,23.0626
14:06:32.392,15.1251,18.1876
14:06:32.401,14.1251,13.8751
14:06:32.409,11.1875,9.6875
14:06:32.419,10.4375,5
14:06:32.429,7.6875,0.625
14:06:32.441,6,-5.1875
14:06:32.449,3.4375,-10.3125
14:06:32.459,1.125,-15.2501
14:06:32.468,-1.0625,-20.9376
14:06:32.479,-2.9375,-26.0001
14:06:32.489,-4.4375,-30.9376
14:06:32.517,-6.75,-34.8126
14:06:32.520,-8.5625,-39.2501
14:06:32.523,-10.5625,-42.8127
14:06:32.530,-12.25,-46.1877
14:06:32.554,-13.8751,-50.4377
14:06:32.556,-15.1251,-53.2502
14:06:32.559,-16.6876,-56.0002
14:06:32.596,-18.1251,-59.6252
14:06:32.598,-19.3126,-62.5627
14:06:32.600,-20.7501,-64.8752
14:06:32.603,-21.7501,-66.8753
14:06:32.609,-22.0001,-66.2503
14:06:32.640,-22.8751,-68.2503
14:06:32.643,-22.5626,-67.7503
14:06:32.646,-23.0001,-68.4378
14:06:32.649,-23.0626,-67.3128
14:06:32.676,-23.1251,-64.6877
14:06:32.677,-21.3751,-62.9377
14:06:32.680,-18.4376,-57.0627
14:06:32.689,-15.2501,-46.5002
14:06:32.699,-8,-33.6251
14:06:32.710,0.25,-14.9376
14:06:32.719,6.9375,1.25
14:06:32.729,12.4375,14.1876
14:06:32.742,16.0001,22.7501
14:06:32.749,18.0001,30.2501
14:06:32.759,20.4376,36.0001
14:06:32.769,22.5001,41.8752
14:06:32.779,24.2501,46.8127
14:06:32.790,26.0626,50.8752
14:06:32.800,27.1251,53.6877
14:06:32.809,28.3126,57.8752
14:06:32.819,29.5001,61.2502
14:06:32.829,29.6876,64.0627
14:06:32.839,30.7501,65.5628
14:06:32.848,32.1876,69.1878
14:06:32.859,32.3126,72.8753
14:06:32.869,33.3751,73.6253
14:06:32.879,34.0626,76.5628
14:06:32.890,34.4376,76.5628
14:06:32.898,34.0001,77.6878
14:06:32.908,34.5626,76.6253
14:06:32.919,33.6876,76.0003
14:06:32.929,33.3126,75.4378
14:06:32.938,32.8126,72.6253
14:06:32.949,32.0626,69.9378
14:06:32.958,31.1251,69.5628
14:06:32.969,30.6251,66.6878
14:06:32.982,29.5001,65.3127
14:06:32.990,29.6251,62.3127
14:06:32.999,27.5001,58.2502
14:06:33.010,25.9376,54.9377
14:06:33.020,24.4376,53.1252
14:06:33.030,23.6251,50.1877
14:06:33.040,22.3126,45.6252
14:06:33.050,20.9376,41.5002
14:06:33.059,19.5626,39.3751
14:06:33.070,18.7501,36.3126
14:06:33.079,18.8126,32.6251
14:06:33.089,17.4376,29.1251
14:06:33.099,16.6876,25.5626
14:06:33.109,15.1876,23.0626
14:06:33.118,14.2501,19.3751
14:06:33.134,13.3126,15.1876
14:06:33.139,11.1875,11.375
14:06:33.149,10.5625,7.1875
14:06:33.160,7.75,2.3125
14:06:33.169,5.0625,-0.9375
14:06:33.179,3.625,-6.6875
14:06:33.189,1.0625,-11.6875
14:06:33.210,-0.5,-15.4376
14:06:33.212,-2.75,-18.2501
14:06:33.244,-3.6875,-22.3126
14:06:33.245,-4.9375,-25.3751
14:06:33.249,-6.125,-27.1251
14:06:33.251,-7.5,-29.1251
14:06:33.287,-8.375,-31.6876
14:06:33.289,-9.5625,-34.6251
14:06:33.291,-10.125,-35.3751
14:06:33.294,-10.5625,-36.6876
14:06:33.299,-10.875,-37.8751
14:06:33.333,-12.25,-38.3751
14:06:33.339,-12.375,-37.1876
14:06:33.339,-12.375,-38.1251
14:06:33.341,-14.2501,-38.8126
14:06:33.374,-14.9376,-39.0626
14:06:33.381,-15.5001,-40.5627
14:06:33.381,-15.7501,-40.1252
14:06:33.382,-15.8126,-41.3752
14:06:33.394,-15.9376,-40.5002
14:06:33.409,-14.6876,-37.1251
14:06:33.415,-11.875,-31.5626
14:06:33.430,-7.125,-21.8751
14:06:33.432,-3,-11.625
14:06:33.438,1.1875,-2.1875
14:06:33.448,4.4375,7.5625
14:06:33.459,7.8125,14.4376
14:06:33.474,11.25,22.5626
14:06:33.490,13.6251,29.8751
14:06:33.492,15.9376,33.8126
14:06:33.499,18.1251,38.8126
14:06:33.509,18.5626,42.6252
14:06:33.520,20.7501,46.7502
14:06:33.529,21.2501,50.2502
14:06:33.538,22.0626,52.8752
14:06:33.549,24.1251,55.7502
14:06:33.559,24.3126,59.7502
14:06:33.569,26.3126,61.8752
14:06:33.579,26.6876,66.1253
14:06:33.589,27.6251,65.5002
14:06:33.599,28.0001,68.5628
14:06:33.610,28.3126,67.1878
14:06:33.641,27.8126,68.0628
14:06:33.644,28.0626,65.6253
14:06:33.647,26.8126,63.8752
14:06:33.649,26.1876,61.8127
14:06:33.659,25.1251,58.9377
14:06:33.669,24.3751,56.8127
14:06:33.679,23.5626,53.5002
14:06:33.689,21.8126,51.0002
14:06:33.700,20.5001,47.5002
14:06:33.710,18.8126,43.2502
14:06:33.719,17.4376,41.3127
14:06:33.729,16.5626,38.9376
14:06:33.738,15.6251,34.8751
14:06:33.749,14.7501,31.3751
14:06:33.759,13.8126,29.3126
14:06:33.769,13.5001,26.3751
14:06:33.779,12.75,23.3751
14:06:33.790,11.5,19.7501
14:06:33.799,11.1875,17.6251
14:06:33.808,9.375,13.5626
14:06:33.822,7.5,9.1875
14:06:33.829,6,6.625
14:06:33.838,4.5625,1.875
14:06:33.849,2.5,-2.625
14:06:33.859,0.4375,-7.0625
14:06:33.869,-2.0625,-12.25
14:06:33.885,-3.6875,-18.1876
14:06:33.889,-6.5,-24.6876
14:06:33.899,-9.3125,-28.5626
14:06:33.910,-11.5,-32.5001
14:06:33.929,-13.0625,-37.0001
14:06:33.932,-14.0626,-40.1877
14:06:33.966,-15.3126,-42.6877
14:06:33.969,-16.6876,-43.4377
14:06:33.970,-17.1876,-45.5002
14:06:33.975,-17.3751,-46.6877
14:06:33.978,-17.3126,-45.8127
14:06:34.018,-17.4376,-45.6252
14:06:34.020,-17.0001,-45.8752
14:06:34.021,-18.1251,-46.5002
14:06:34.024,-17.5626,-44.8127
14:06:34.030,-17.1876,-44.5002
14:06:34.060,-17.8126,-44.0627
14:06:34.063,-17.8751,-44.0627
14:06:34.065,-18.6876,-43.4377
14:06:34.069,-18.4376,-44.1252
14:06:34.099,-18.1876,-43.5627
14:06:34.101,-18.8126,-43.0627
14:06:34.104,-17.5001,-42.4377
14:06:34.110,-19.3751,-43.2502
14:06:34.119,-17.6876,-42.1252
14:06:34.129,-16.5001,-37.6876
14:06:34.139,-12.625,-29.9376
14:06:34.150,-7.1875,-17.8751
14:06:34.160,-2.25,-7.3125
14:06:34.169,1.9375,3.6875
14:06:34.179,6.5625,13
14:06:34.189,9.0625,21.6876
14:06:34.200,12.25,26.6251
14:06:34.209,14.6251,32.9376
14:06:34.219,16.0001,38.4376
14:06:34.229,18.6876,42.5627
14:06:34.241,20.1876,47.1877
14:06:34.249,21.7501,49.2502
14:06:34.263,23.3751,52.8752
14:06:34.273,23.8751,56.1252
14:06:34.279,24.6876,58.0627
14:06:34.289,24.8751,59.8127
14:06:34.299,25.6876,60.6877
14:06:34.309,26.6876,62.6877
14:06:34.319,26.3751,65.8128
14:06:34.330,27.4376,66.3128
14:06:34.339,27.6251,67.3128
14:06:34.349,27.5626,66.8753
14:06:34.359,26.2501,66.2503
14:06:34.369,26.0626,64.9377
14:06:34.379,24.6876,63.1877
14:06:34.389,24.0626,61.3127
14:06:34.400,22.4376,58.1877
14:06:34.411,20.8126,55.4377
14:06:34.420,19.8751,53.2502
14:06:34.431,19.4376,51.2502
14:06:34.439,19.1251,49.5627
14:06:34.448,17.7501,49.0627
14:06:34.459,17.5626,46.5002
14:06:34.468,16.1251,41.1252
14:06:34.479,16.2501,42.1252
14:06:34.489,15.5626,40.1252
14:06:34.499,16.2501,38.1876
14:06:34.510,15.2501,36.1876
14:06:34.519,16.0001,36.1251
14:06:34.532,16.2501,34.7501
14:06:34.540,15.7501,32.7501
14:06:34.550,14.9376,32.2501
14:06:34.560,14.9376,29.8126
14:06:34.570,14.1251,26.9376
14:06:34.580,12.8125,26.0001
14:06:34.591,12.6875,22.9376
14:06:34.603,11.1875,20.1876
14:06:34.609,10.0625,18.9376
14:06:34.623,9.5,16.0001
14:06:34.629,8.875,13.3751
14:06:34.640,7.6875,12.1875
14:06:34.649,7.5,9.1875
14:06:34.659,5.5625,6.4375
14:06:34.670,4.375,5.6875
14:06:34.680,4.4375,2.625
14:06:34.690,3.25,-0.875
14:06:34.733,2.375,-1.75
14:06:34.736,2.0625,-3.9375
14:06:34.738,0.375,-5.375
14:06:34.743,0.75,-6.9375
14:06:34.743,-0.125,-8.875
14:06:34.750,-1.4375,-11.25
14:06:34.815,-1.9375,-12.1875
14:06:34.817,-3,-13.9376
14:06:34.817,-3.9375,-15.5001
14:06:34.819,-3.75,-17.3751
14:06:34.822,-5.375,-19.2501
14:06:34.851,-6.625,-21.7501
14:06:34.851,-7.0625,-21.8751
14:06:34.854,-7.8125,-24.2501
14:06:34.854,-9.3125,-26.6251
14:06:34.855,-10.1875,-26.9376
14:06:34.861,-10.625,-29.3751
14:06:34.876,-11.625,-31.4376
14:06:34.881,-12.125,-32.4376
14:06:34.889,-12.375,-33.2501
14:06:34.921,-11.75,-31.8751
14:06:34.924,-10.5625,-30.0001
14:06:34.926,-7.3125,-22.8751
14:06:34.929,-3.8125,-15.6876
14:06:34.940,-0.8125,-6.75
14:06:34.952,3.375,1.9375
14:06:34.962,5.8125,10.3125
14:06:34.969,8.6875,16.0001
14:06:34.979,10.5,20.5001
14:06:34.989,12.875,26.0626
14:06:34.998,13.1876,31.8751
14:06:35.010,15.5626,34.7501
14:06:35.020,16.1876,38.8751
14:06:35.029,16.3126,41.3752
14:06:35.041,17.6251,44.1877
14:06:35.050,18.1876,47.2502
14:06:35.060,18.6876,48.8127
14:06:35.071,19.6251,51.7502
14:06:35.079,19.6876,54.1252
14:06:35.089,20.4376,55.5627
14:06:35.099,20.6876,58.0002
14:06:35.109,20.5001,58.6252
14:06:35.120,20.8751,59.5627
14:06:35.129,19.9376,58.5002
14:06:35.140,18.8751,57.4377
14:06:35.150,18.3126,55.8752
14:06:35.160,17.0001,54.5002
14:06:35.170,16.3126,52.0002
14:06:35.182,14.1876,50.2502
14:06:35.189,12.8125,46.5002
14:06:35.198,10.9375,44.8127
14:06:35.209,10.375,41.6252
14:06:35.219,9.5,40.0002
14:06:35.230,8.125,37.8126
14:06:35.238,7.1875,36.2501
14:06:35.249,6.5,35.6876
14:06:35.258,6.25,33.4376
14:06:35.271,6.25,33.7501
14:06:35.278,5.5,31.0001
14:06:35.289,5,30.6251
14:06:35.299,4,28.8751
14:06:35.308,3,28.8126
14:06:35.320,3.125,26.6251
14:06:35.328,2,24.3126
14:06:35.339,0.9375,23.2501
14:06:35.349,0.125,22.6876
14:06:35.360,-0.0625,20.1251
14:06:35.371,-0.875,18.2501
14:06:35.382,-2.25,16.6876
14:06:35.394,-3.0625,14.6876
14:06:35.399,-3.625,12.9375
14:06:35.434,-4.6875,10.1875
14:06:35.435,-5.3125,9.4375
14:06:35.438,-6.375,7.125
14:06:35.440,-6.8125,5.3125
14:06:35.470,-8.1875,3.125
14:06:35.472,-9.3125,0.625
14:06:35.475,-10.0625,0.9375
14:06:35.483,-10.875,-2
14:06:35.511,-11.75,-4.75
14:06:35.514,-12.75,-5.9375
14:06:35.516,-14.0001,-6.8125
14:06:35.520,-13.8751,-9.625
14:06:35.549,-15.0001,-12.0625
14:06:35.551,-16.1251,-12.6875
14:06:35.554,-16.3751,-14.9376
14:06:35.582,-17.2501,-16.0626
14:06:35.583,-17.2501,-17.0001
14:06:35.585,-18.8126,-19.0001
14:06:35.591,-20.0626,-20.6251
14:06:35.601,-20.1251,-23.3126
14:06:35.609,-21.5001,-24.3126
14:06:35.619,-21.2501,-26.5626
14:06:35.629,-23.0626,-27.7501
14:06:35.639,-24.0001,-30.0001
14:06:35.648,-24.5001,-32.8126
14:06:35.659,-25.0001,-33.2501
14:06:35.669,-25.5626,-34.6251
14:06:35.680,-25.8126,-35.6251
14:06:35.688,-25.5626,-35.1251
14:06:35.699,-24.3126,-32.4376
14:06:35.709,-20.4376,-27.3751
14:06:35.718,-17.1876,-19.0001
14:06:35.729,-12.9375,-9.875
14:06:35.738,-9.375,-1.125
14:06:35.748,-6.25,6.8125
14:06:35.760,-3.5,13.1876
14:06:35.771,-1,18.6251
14:06:35.779,1.375,24.1876
14:06:35.789,2.4375,28.0626
14:06:35.798,3.375,31.6251
14:06:35.809,5,36.3126
14:06:35.818,5.875,37.5001
14:06:35.828,7.8125,41.6877
14:06:35.839,7.75,44.2502
14:06:35.850,8.625,45.6252
14:06:35.862,8.75,48.1877
14:06:35.870,10.3125,49.4377
14:06:35.879,9.6875,51.8127
14:06:35.889,10.5625,51.5002
14:06:35.899,9.75,53.4377
14:06:35.909,10.1875,53.0002
14:06:35.921,10.75,52.0002
14:06:35.935,9,51.5627
14:06:35.945,8.25,50.1252
14:06:35.954,6.75,48.0627
14:06:35.964,5.4375,45.3127
14:06:35.975,5.1875,43.0002
14:06:35.984,4.1875,40.5627
14:06:35.994,2.5,38.6251
14:06:36.010,1.75,36.3751
14:06:36.017,1.625,34.5001
14:06:36.025,1.1875,32.6251
14:06:36.043,0.125,31.6251
14:06:36.057,-0.0625,30.6876
14:06:36.057,-1,28.7501
14:06:36.073,-1.125,27.5626
14:06:36.075,-1.4375,27.6876
14:06:36.089,-2,25.4376
14:06:36.104,-2.6875,24.6251
14:06:36.106,-3.1875,22.5001
14:06:36.121,-3.625,22.6876
14:06:36.125,-4.0625,20.1251
14:06:36.133,-4.75,17.6876
14:06:36.164,-6,16.3126
14:06:36.168,-5.1875,14.2501
14:06:36.171,-5.9375,12.1875
14:06:36.175,-7.1875,10.5
14:06:36.201,-8.0625,9.0625
14:06:36.204,-8.625,6.875
14:06:36.207,-9.5,4.5625
14:06:36.239,-10.125,2.375
14:06:36.240,-11.1875,1.0625
14:06:36.243,-11.125,-0.8125
14:06:36.249,-12.6875,-2.625
14:06:36.256,-13.4376,-3.1875
14:06:36.283,-14.1876,-6.4375
14:06:36.284,-14.4376,-8.625
14:06:36.287,-15.5001,-9.5
14:06:36.319,-15.7501,-11.1875
14:06:36.321,-16.3126,-13.4376
14:06:36.324,-16.2501,-15.0001
14:06:36.328,-17.5626,-16.4376
14:06:36.340,-18.6876,-17.6876
14:06:36.345,-19.0626,-20.0001
14:06:36.354,-19.7501,-22.0001
14:06:36.364,-20.2501,-24.0001
14:06:36.375,-21.0626,-25.8126
14:06:36.384,-21.9376,-27.9376
14:06:36.394,-22.8126,-29.6251
14:06:36.407,-22.9376,-32.4376
14:06:36.413,-24.2501,-32.7501
14:06:36.424,-24.1251,-35.5001
14:06:36.436,-25.1251,-35.8126
14:06:36.445,-25.0626,-37.3751
14:06:36.454,-24.8751,-35.8126
14:06:36.465,-22.8751,-33.1876
14:06:36.474,-19.0001,-27.3751
14:06:36.483,-15.3751,-18.7501
14:06:36.493,-11.25,-10.5
14:06:36.504,-8.0625,-2
14:06:36.516,-4.3125,4.75
14:06:36.524,-2.1875,11
14:06:36.534,0.5625,16.6876
14:06:36.543,2.0625,21.0001
14:06:36.555,3.875,25.1876
14:06:36.564,5.0625,28.3751
14:06:36.575,6.5625,31.1876
14:06:36.585,7.875,33.3126
14:06:36.594,7.9375,35.5001
14:06:36.604,9.5,37.6251
14:06:36.614,9.1875,39.5002
14:06:36.624,10.5625,40.8752
14:06:36.636,10.375,42.3752
14:06:36.644,10.875,43.5627
14:06:36.654,10.9375,45.1877
14:06:36.664,10.875,43.9377
14:06:36.673,11.0625,44.2502
14:06:36.684,10.1875,41.8752
14:06:36.695,9.3125,41.2502
14:06:36.707,8.0625,38.4376
14:06:36.719,7.625,36.7501
14:06:36.725,6.6875,34.3126
14:06:36.734,5.5625,32.3126
14:06:36.745,4.125,30.6251
14:06:36.754,3.5625,27.1251
14:06:36.765,2.1875,25.7501
14:06:36.774,1.9375,24.0626
14:06:36.783,1.3125,21.8751
14:06:36.794,0.75,21.0626
14:06:36.805,0.3125,19.3751
14:06:36.815,0.375,18.4376
14:06:36.848,0.0625,17.3751
14:06:36.852,-0.75,15.8751
14:06:36.854,-1.3125,14.2501
14:06:36.883,-2,13.7501
14:06:36.885,-1.3125,11.875
14:06:36.887,-2.75,11.25
14:06:36.891,-3.5,9.5625
14:06:36.895,-3.5625,7
14:06:36.931,-4.75,6.1875
14:06:36.932,-4.4375,3.5625
14:06:36.934,-6,1.25
14:06:36.936,-6.875,-0.625
14:06:36.944,-8.3125,-1.8125
14:06:36.975,-7.75,-3.5
14:06:36.977,-8.625,-6
14:06:36.980,-10,-8.1875
14:06:36.985,-9.9375,-9.5
14:06:37.009,-11.125,-12
14:06:37.011,-12.5625,-13.8751
14:06:37.015,-12.8125,-16.0626
14:06:37.025,-13.5001,-18.0001
14:06:37.034,-14.8126,-20.4376
14:06:37.045,-15.5626,-21.7501
14:06:37.054,-15.6876,-22.9376
14:06:37.065,-17.1251,-25.4376
14:06:37.074,-17.6251,-26.9376
14:06:37.085,-17.6876,-28.5001
14:06:37.094,-18.6251,-31.0626
14:06:37.105,-19.5001,-32.8751
14:06:37.114,-19.8751,-34.0626
14:06:37.124,-20.5626,-35.7501
14:06:37.134,-20.8126,-37.5001
14:06:37.143,-22.0001,-38.8126
14:06:37.154,-22.0626,-40.0002
14:06:37.165,-22.7501,-41.3752
14:06:37.175,-22.8126,-43.4377
14:06:37.185,-23.6251,-44.1252
14:06:37.194,-24.7501,-45.9377
14:06:37.204,-25.1876,-47.0627
14:06:37.215,-26.0001,-49.6252
14:06:37.225,-26.6251,-50.9377
14:06:37.237,-27.1876,-53.5002
14:06:37.244,-28.0001,-54.5002
14:06:37.255,-29.2501,-57.0002
14:06:37.265,-29.1876,-56.6877
14:06:37.274,-28.5001,-56.8752
14:06:37.286,-27.2501,-53.8752
14:06:37.295,-23.6876,-48.1877
14:06:37.305,-19.4376,-39.1876
14:06:37.324,-13.6876,-28.3126
14:06:37.330,-8.5,-16.3126
14:06:37.339,-4.75,-7.9375
14:06:37.345,-1,0.5
14:06:37.361,1.375,7.3125
14:06:37.371,4.3125,13.0625
14:06:37.391,6.25,18.1876
14:06:37.394,8.4375,21.5626
14:06:37.407,9.25,26.2501
14:06:37.423,10.3125,29.0001
14:06:37.426,12.0625,32.7501
14:06:37.432,12.625,34.1876
14:06:37.440,14.0001,36.8751
14:06:37.451,14.3126,40.0627
14:06:37.481,15.7501,41.5627
14:06:37.484,16.0001,44.9377
14:06:37.486,16.6251,45.4377
14:06:37.491,17.3751,46.4377
14:06:37.502,17.4376,47.6252
14:06:37.508,17.8126,47.4377
14:06:37.520,17.1251,46.8127
14:06:37.532,16.7501,45.3752
14:06:37.541,14.8751,44.2502
14:06:37.550,13.6251,41.9377
14:06:37.558,12.5625,39.0001
14:06:37.570,11.6875,36.3126
14:06:37.580,10.5,34.3126
14:06:37.588,9.625,31.8126
14:06:37.600,8.5,30.8126
14:06:37.610,7.8125,28.6251
14:06:37.625,7.375,27.0626
14:06:37.630,6.6875,25.3126
14:06:37.661,6.3125,23.2501
14:06:37.663,5.5,23.8126
14:06:37.666,5.0625,22.0001
14:06:37.670,5.125,20.0626
14:06:37.697,5.25,19.0626
14:06:37.699,3.4375,17.6876
14:06:37.701,3.4375,16.6876
14:06:37.731,2.875,15.5626
14:06:37.733,2.9375,13
14:06:37.735,1.75,11.0625
14:06:37.740,0.1875,10.1875
14:06:37.772,0.25,7.125
14:06:37.774,-1.125,6.25
14:06:37.776,-1.375,4.0625
14:06:37.779,-2.1875,1.6875
14:06:37.799,-3.5,0.375
14:06:37.801,-4.3125,-1.125
14:06:37.810,-4.875,-3.5625
14:06:37.819,-6,-6.8125
14:06:37.829,-6.9375,-8.9375
14:06:37.840,-8.0625,-10.875
14:06:37.848,-8.5625,-13.6251
14:06:37.860,-9.3125,-15.1251
14:06:37.870,-10.0625,-16.6876
14:06:37.878,-10.875,-19.8751
14:06:37.890,-12.5625,-21.7501
14:06:37.902,-13.0625,-24.3751
14:06:37.910,-14.1251,-26.0001
14:06:37.922,-14.5001,-28.6251
14:06:37.930,-15.5001,-30.6251
14:06:37.939,-16.5001,-31.9376
14:06:37.950,-17.0001,-32.8751
14:06:37.960,-17.8126,-35.5626
14:06:37.972,-18.8751,-36.9376
14:06:37.980,-18.8751,-38.8126
14:06:37.990,-20.5001,-40.5002
14:06:37.998,-20.1876,-41.4377
14:06:38.011,-21.1251,-43.1252
14:06:38.022,-21.5001,-43.7502
14:06:38.030,-21.5001,-46.3752
14:06:38.040,-23.0626,-48.1252
14:06:38.050,-23.1251,-48.8752
14:06:38.061,-24.4376,-51.7502
14:06:38.069,-24.6876,-52.1877
14:06:38.080,-25.8126,-54.9377
14:06:38.090,-26.1876,-56.6877
14:06:38.101,-26.8751,-57.5002
14:06:38.112,-28.1251,-60.0627
14:06:38.120,-28.5626,-61.6877
14:06:38.130,-29.1251,-62.1877
14:06:38.140,-29.7501,-64.3127
14:06:38.150,-29.1251,-63.2502
14:06:38.162,-27.1251,-59.0627
14:06:38.170,-23.1251,-52.6877
14:06:38.180,-17.1876,-41.6877
14:06:38.190,-12.1875,-28.4376
14:06:38.201,-5.6875,-16.7501
14:06:38.210,-2.1875,-4.9375
14:06:38.220,1.875,1.875
14:06:38.230,5.25,9.0625
14:06:38.241,7,14.8126
14:06:38.254,9.9375,19.7501
14:06:38.260,10.25,23.3751
14:06:38.270,11.8125,27.0001
14:06:38.281,13.6251,30.4376
14:06:38.291,13.2501,34.3751
14:06:38.309,14.6876,34.5001
14:06:38.311,15.6876,37.9376
14:06:38.337,16.3751,39.0001
14:06:38.340,17.8751,41.0627
14:06:38.342,17.2501,42.6252
14:06:38.350,18.2501,44.2502
14:06:38.380,18.3751,45.2502
14:06:38.383,18.5626,46.2502
14:06:38.385,18.2501,44.8752
14:06:38.390,17.1876,45.0002
14:06:38.423,17.4376,43.1252
14:06:38.425,15.4376,42.3752
14:06:38.427,15.2501,39.2502
14:06:38.431,13.4376,36.9376
14:06:38.468,12.6875,35.5626
14:06:38.471,11.5625,32.1876
14:06:38.473,10.5,30.7501
14:06:38.487,10,28.2501
14:06:38.487,8.9375,26.1251
14:06:38.490,8.125,24.5001
14:06:38.500,7.5625,22.8751
14:06:38.510,7.125,21.5001
14:06:38.521,6.3125,21.7501
14:06:38.530,6.0625,19.8751
14:06:38.540,5.9375,18.1251
14:06:38.550,4.875,17.6251
14:06:38.560,4.875,16.5001
14:06:38.572,4.3125,14.9376
14:06:38.580,3,12.0625
14:06:38.590,2.5,11.125
14:06:38.600,2.375,10
14:06:38.610,1.5625,8.0625
14:06:38.620,0.25,5.4375
14:06:38.630,-0.6875,3.375
14:06:38.647,-2.375,2.5625
14:06:38.651,-2.625,0.0625
14:06:38.667,-3.625,-2.5625
14:06:38.680,-4.625,-3.875
14:06:38.683,-6.0625,-5.5
14:06:38.697,-6.3125,-8.5625
14:06:38.712,-6.4375,-10.4375
14:06:38.715,-8.125,-13.7501
14:06:38.730,-8.625,-14.1251
14:06:38.765,-9.8125,-16.4376
14:06:38.768,-11.125,-19.7501
14:06:38.782,-12,-21.0626
14:06:38.782,-11.8125,-23.3126
14:06:38.782,-13,-25.6876
14:06:38.786,-14.3126,-27.9376
14:06:38.790,-15.3751,-28.7501
14:06:38.800,-15.1876,-31.6876
14:06:38.810,-16.7501,-34.0626
14:06:38.820,-17.4376,-35.5626
14:06:38.830,-18.1876,-36.6251
14:06:38.840,-19.4376,-39.5002
14:06:38.850,-19.7501,-40.6877
14:06:38.860,-20.3126,-42.5627
14:06:38.878,-21.1876,-43.3752
14:06:38.881,-20.9376,-45.3127
14:06:38.894,-22.3126,-46.8752
14:06:38.900,-23.3126,-47.2502
14:06:38.930,-24.0001,-49.0627
14:06:38.935,-23.4376,-51.1877
14:06:38.936,-24.6251,-52.6877
14:06:38.940,-24.8751,-54.0627
14:06:38.973,-26.1251,-55.7502
14:06:38.977,-26.2501,-57.3127
14:06:38.978,-27.2501,-58.8752
14:06:39.010,-27.8126,-61.7502
14:06:39.011,-28.8126,-63.7502
14:06:39.014,-30.1876,-65.5628
14:06:39.019,-30.8751,-67.9378
14:06:39.020,-31.7501,-69.0003
14:06:39.050,-32.3126,-71.3128
14:06:39.052,-32.1876,-71.6253
14:06:39.055,-31.3751,-68.3753
14:06:39.060,-27.6251,-64.0002
14:06:39.076,-21.4376,-52.8127
14:06:39.080,-15.8126,-39.3752
14:06:39.090,-8.6875,-24.6876
14:06:39.100,-3.5,-11.8125
14:06:39.112,1.5,-1.4375
14:06:39.120,5.25,8.1875
14:06:39.130,7.75,14.1251
14:06:39.141,10.0625,19.4376
14:06:39.150,12.25,23.1876
14:06:39.160,13.5001,27.5626
14:06:39.170,15.1251,30.8126
14:06:39.180,15.8126,34.1876
14:06:39.191,16.5626,35.1251
14:06:39.200,17.7501,38.1876
14:06:39.210,18.2501,40.8752
14:06:39.221,19.0626,41.5002
14:06:39.231,19.8126,43.0627
14:06:39.240,19.1251,44.3127
14:06:39.250,19.7501,45.2502
14:06:39.260,19.5626,46.2502
14:06:39.273,19.5001,46.7502
14:06:39.281,19.2501,45.2502
14:06:39.290,17.8126,43.8752
14:06:39.300,17.3751,42.5627
14:06:39.313,16.2501,38.7501
14:06:39.320,15.4376,37.6876
14:06:39.330,13.9376,35.0001
14:06:39.340,12.8125,31.5626
14:06:39.352,11.75,30.4376
14:06:39.360,10.5,29.0626
14:06:39.370,10.6875,26.2501
14:06:39.381,9.4375,23.8751
14:06:39.390,8.25,23.0001
14:06:39.400,7.625,21.7501
14:06:39.410,7.5,19.7501
14:06:39.420,7.375,18.3751
14:06:39.432,6.5625,17.9376
14:06:39.440,5.5,16.7501
14:06:39.455,5.625,15.5001
14:06:39.460,4.5,13.5626
14:06:39.470,4.125,11.5
14:06:39.480,3,11.4375
14:06:39.492,2.8125,9
14:06:39.500,1.9375,7.3125
14:06:39.510,0.9375,5.375
14:06:39.520,0,3.875
14:06:39.532,-0.375,1.25
14:06:39.540,-2.0625,0.1875
14:06:39.550,-2.5625,-2.0625
14:06:39.560,-3.6875,-5.3125
14:06:39.570,-4.375,-6.8125
14:06:39.580,-5.375,-8.375
14:06:39.590,-5.9375,-11.375
14:06:39.600,-7.125,-14.0626
14:06:39.611,-8.375,-16.1251
14:06:39.620,-9.375,-17.5001
14:06:39.632,-10.125,-20.6251
14:06:39.640,-11.4375,-23.5001
14:06:39.650,-12.1875,-24.4376
14:06:39.676,-13,-27.4376
14:06:39.678,-13.3751,-29.7501
14:06:39.706,-14.5001,-32.3126
14:06:39.709,-15.6876,-33.8751
14:06:39.711,-16.3126,-35.6876
14:06:39.717,-17.6876,-38.0626
14:06:39.720,-18.0001,-39.3127
14:06:39.759,-19.0626,-42.0002
14:06:39.761,-20.1876,-43.0627
14:06:39.761,-20.6876,-45.8752
14:06:39.764,-21.5001,-47.5002
14:06:39.794,-21.6251,-48.8752
14:06:39.797,-22.5001,-51.5002
14:06:39.800,-23.2501,-52.5627
14:06:39.804,-24.3126,-53.8752
14:06:39.838,-24.8126,-56.1252
14:06:39.839,-25.1876,-58.1877
14:06:39.841,-26.2501,-58.6252
14:06:39.844,-27.1251,-62.2502
14:06:39.850,-27.8126,-62.1877
14:06:39.864,-28.4376,-65.5002
14:06:39.870,-28.9376,-66.6253
14:06:39.880,-29.7501,-69.2503
14:06:39.892,-31.4376,-70.0003
14:06:39.900,-31.3751,-73.3128
14:06:39.910,-33.3126,-74.1253
14:06:39.920,-33.8126,-78.4378
14:06:39.933,-34.2501,-80.3128
14:06:39.945,-36.0001,-83.0628
14:06:39.964,-36.7501,-85.0628
14:06:39.970,-36.8126,-85.1253
14:06:39.978,-35.0626,-82.4378
14:06:39.986,-31.1876,-75.3753
14:06:40.001,-26.0001,-63.1877
14:06:40.007,-17.0001,-47.3127
14:06:40.016,-9.5,-29.1251
14:06:40.041,-1.75,-12.875
14:06:40.056,4.5625,-0.375
14:06:40.073,8.1875,10.125
14:06:40.073,11.75,17.8751
14:06:40.087,13.7501,23.3126
14:06:40.104,15.1251,27.5626
14:06:40.108,17.1876,30.9376
14:06:40.109,17.6251,34.6251
14:06:40.110,19.3126,37.9376
14:06:40.117,20.4376,39.5627
14:06:40.125,20.6876,42.0627
14:06:40.135,20.7501,42.0002
14:06:40.145,21.2501,43.3752
14:06:40.155,21.0626,44.8752
14:06:40.165,21.6251,45.3127
14:06:40.177,20.6876,45.5627
14:06:40.185,21.1251,44.2502
14:06:40.195,19.8751,44.3127
14:06:40.205,18.9376,41.8127
14:06:40.218,17.9376,38.7501
14:06:40.225,16.7501,36.2501
14:06:40.239,15.6251,34.5001
14:06:40.245,13.7501,31.7501
14:06:40.255,12.8125,28.9376
14:06:40.265,12.0625,26.3126
14:06:40.275,11.375,24.8126
14:06:40.285,10.125,22.5626
14:06:40.295,9.75,21.7501
14:06:40.305,9,19.8126
14:06:40.315,8.3125,18.9376
14:06:40.326,7.25,17.3751
14:06:40.335,7.3125,16.8126
14:06:40.345,7.125,15.8751
14:06:40.367,6.875,15.5626
14:06:40.370,5.8125,14.1251
14:06:40.400,6.0625,12.4375
14:06:40.402,4.625,11.125
14:06:40.404,3.9375,10
14:06:40.406,3.3125,7.8125
14:06:40.436,2.125,6.5625
14:06:40.439,1.75,4.3125
14:06:40.441,0.9375,2.3125
14:06:40.445,-0.1875,1.5
14:06:40.477,-0.5625,-1.4375
14:06:40.480,-1.6875,-3.3125
14:06:40.482,-2.6875,-5.375
14:06:40.512,-3.4375,-7.3125
14:06:40.513,-4.6875,-8.9375
14:06:40.514,-5.4375,-12.0625
14:06:40.521,-6.5625,-14.5626
14:06:40.525,-7.625,-16.8126
14:06:40.535,-8.3125,-18.3126
14:06:40.545,-9.3125,-21.3126
14:06:40.555,-10.3125,-22.6251
14:06:40.565,-10.75,-25.3126
14:06:40.576,-12.5625,-27.6876
14:06:40.585,-13.5001,-29.8751
14:06:40.595,-14.5626,-31.5626
14:06:40.605,-14.5001,-33.9376
14:06:40.615,-15.9376,-34.8126
14:06:40.625,-16.5626,-36.7501
14:06:40.635,-16.3751,-38.4376
14:06:40.647,-18.1876,-40.1877
14:06:40.655,-18.7501,-43.0002
14:06:40.665,-19.1251,-43.7502
14:06:40.675,-19.9376,-46.5002
14:06:40.685,-20.6251,-47.6252
14:06:40.695,-22.0626,-48.7502
14:06:40.705,-22.0001,-50.8752
14:06:40.717,-23.0001,-53.5002
14:06:40.725,-24.0001,-54.5627
14:06:40.735,-25.1251,-57.8752
14:06:40.745,-26.4376,-59.7502
14:06:40.755,-27.1876,-62.4377
14:06:40.765,-27.9376,-64.2502
14:06:40.778,-29.5626,-66.0003
14:06:40.785,-30.0001,-68.3753
14:06:40.795,-28.8126,-67.9378
14:06:40.806,-28.1876,-64.6252
14:06:40.816,-25.0001,-58.8752
14:06:40.825,-18.8126,-46.8127
14:06:40.835,-11.9375,-33.4376
14:06:40.846,-4.6875,-17.9376
14:06:40.855,1,-5.1875
14:06:40.865,5.4375,5.375
14:06:40.875,8.6875,12.8125
14:06:40.885,11.3125,20.0626
14:06:40.895,12.75,25.8126
14:06:40.908,15.0001,28.5626
14:06:40.916,16.5001,31.6876
14:06:40.925,16.8751,34.0626
14:06:40.937,17.4376,36.6251
14:06:40.945,18.2501,37.1876
14:06:40.955,19.0001,38.8751
14:06:40.965,18.8751,39.7502
14:06:40.975,18.8126,40.8752
14:06:40.992,19.3126,41.1252
14:06:40.995,18.9376,41.3752
14:06:41.005,19.1251,41.1252
14:06:41.016,18.0626,40.1252
14:06:41.027,17.1251,39.6877
14:06:41.035,16.4376,37.8126
14:06:41.045,15.6876,34.8126
14:06:41.056,13.8751,33.5626
14:06:41.065,12.75,30.0626
14:06:41.075,11.75,26.6876
14:06:41.085,10.125,25.3751
14:06:41.100,9.6875,23.0626
14:06:41.106,8.5625,21.1876
14:06:41.136,7.875,18.8751
14:06:41.138,6.6875,17.2501
14:06:41.141,5.375,16.5001
14:06:41.148,5.4375,14.0626
14:06:41.174,5.5625,13.6251
14:06:41.176,4.875,12.1875
14:06:41.179,4.4375,11
14:06:41.185,3.8125,10.1875
14:06:41.217,3.25,8.625
14:06:41.220,2.625,8.375
14:06:41.223,2.125,6.3125
14:06:41.252,1.5625,4.25
14:06:41.252,-0.125,4.125
14:06:41.255,0.25,1.1875
14:06:41.261,-1.25,0.3125
14:06:41.265,-1.9375,-1.9375
14:06:41.281,-3.125,-5.3125
14:06:41.298,-3.625,-7
14:06:41.330,-4.125,-8.375
14:06:41.344,-5.875,-10.125
14:06:41.346,-6.4375,-13.2501
14:06:41.366,-7.6875,-15.3751
14:06:41.366,-9.0625,-17.1876
14:06:41.368,-9.3125,-20.3751
14:06:41.383,-10.8125,-21.6876
14:06:41.386,-11.5625,-24.6876
14:06:41.391,-12.9375,-28.0001
14:06:41.395,-14.0001,-29.9376
14:06:41.415,-14.5001,-32.1251
14:06:41.417,-15.7501,-33.8751
14:06:41.432,-15.8751,-35.9376
14:06:41.436,-17.4376,-38.6251
14:06:41.445,-18.5626,-41.6252
14:06:41.455,-18.8751,-42.3752
14:06:41.465,-20.2501,-45.5627
14:06:41.476,-20.5001,-46.1877
14:06:41.485,-21.6876,-48.9377
14:06:41.495,-22.9376,-50.5002
14:06:41.505,-23.8751,-52.7502
14:06:41.515,-24.5001,-56.7502
14:06:41.525,-26.6251,-57.6877
14:06:41.536,-27.4376,-60.6252
14:06:41.545,-27.5001,-62.6252
14:06:41.555,-27.9376,-63.1877
14:06:41.565,-28.5001,-64.6877
14:06:41.575,-28.8751,-67.3128
14:06:41.585,-30.9376,-67.6878
14:06:41.595,-30.8126,-71.1253
14:06:41.605,-32.3126,-72.6253
14:06:41.615,-32.8751,-75.9378
14:06:41.627,-33.5626,-77.8128
14:06:41.635,-35.8751,-80.3128
14:06:41.645,-36.2501,-83.5628
14:06:41.657,-36.4376,-84.6253
14:06:41.665,-37.3751,-84.6878
14:06:41.675,-36.0626,-85.2503
14:06:41.687,-34.9376,-79.3128
14:06:41.695,-29.2501,-71.3128
14:06:41.705,-20.4376,-55.3127
14:06:41.717,-12.75,-37.4376
14:06:41.725,-4.5625,-19.0001
14:06:41.739,2.4375,-3.6875
14:06:41.747,7.6875,8.5625
14:06:41.755,11.8125,18.4376
14:06:41.765,15.0626,24.3751
14:06:41.778,16.6876,30.8126
14:06:41.785,18.1251,34.5626
14:06:41.795,19.6876,38.8126
14:06:41.807,21.6876,42.3127
14:06:41.815,22.8126,44.1252
14:06:41.825,22.7501,47.5002
14:06:41.835,23.7501,48.5002
14:06:41.845,25.0626,50.6877
14:06:41.877,25.0001,51.8127
14:06:41.883,25.6251,53.0002
14:06:41.883,25.7501,54.1877
14:06:41.887,25.3751,53.8127
14:06:41.915,25.3751,55.3752
14:06:41.917,25.1876,54.3127
14:06:41.920,24.6876,53.0627
14:06:41.926,24.1251,51.8752
14:06:41.953,22.1251,50.7502
14:06:41.956,21.5626,47.4377
14:06:41.959,20.1251,45.2502
14:06:41.991,18.3126,42.9377
14:06:41.993,17.2501,40.8752
14:06:41.996,16.5626,37.2501
14:06:42.001,15.6251,35.8751
14:06:42.029,14.5626,33.8751
14:06:42.033,13.7501,32.5001
14:06:42.034,12.9375,30.3751
14:06:42.036,12.1875,28.8126
14:06:42.046,12.625,28.1876
14:06:42.055,11.5,27.6251
14:06:42.067,10.375,26.7501
14:06:42.075,9.8125,25.3751
14:06:42.085,9.5,23.2501
14:06:42.097,9,22.7501
14:06:42.106,8.3125,20.2501
14:06:42.115,7.5625,18.6251
14:06:42.125,7,17.2501
14:06:42.135,5.6875,15.9376
14:06:42.145,5.9375,14.1251
14:06:42.157,4.6875,12.6875
14:06:42.165,3.25,10.25
14:06:42.175,2.8125,7.1875
14:06:42.188,1.3125,5.5625
14:06:42.195,0.9375,3.1875
14:06:42.205,-0.375,0.4375
14:06:42.217,-1.0625,-1.625
14:06:42.225,-2.125,-3.75
14:06:42.235,-3.25,-6.1875
14:06:42.248,-3.9375,-8.125
14:06:42.255,-5.4375,-9.625
14:06:42.265,-6.1875,-12.0625
14:06:42.275,-6.5625,-14.8126
14:06:42.285,-8.75,-16.1251
14:06:42.296,-8.9375,-19.1876
14:06:42.307,-10.0625,-21.1876
14:06:42.315,-10.625,-24.1251
14:06:42.325,-12.25,-26.0626
14:06:42.336,-13,-28.1251
14:06:42.345,-13.9376,-30.8126
14:06:42.355,-14.9376,-30.9376
14:06:42.367,-15.3126,-34.4376
14:06:42.375,-15.6251,-35.9376
14:06:42.385,-16.6876,-36.2501
14:06:42.399,-17.0626,-38.8126
14:06:42.406,-18.0001,-39.8752
14:06:42.415,-18.6251,-41.8752
14:06:42.429,-18.8751,-43.0002
14:06:42.435,-20.3126,-45.6252
14:06:42.445,-20.6251,-46.9377
14:06:42.457,-21.0626,-47.9377
14:06:42.465,-22.3126,-50.3752
14:06:42.475,-22.9376,-53.1877
14:06:42.488,-24.7501,-53.8127
14:06:42.496,-25.0626,-56.8752
14:06:42.505,-25.0001,-58.8752
14:06:42.517,-26.8126,-60.3752
14:06:42.526,-27.0626,-63.1252
14:06:42.535,-27.8126,-64.0627
14:06:42.568,-27.1251,-61.3127
14:06:42.570,-24.1251,-57.3752
14:06:42.572,-19.2501,-47.8127
14:06:42.604,-13,-34.1251
14:06:42.606,-5.4375,-19.3126
14:06:42.608,0.625,-5.25
14:06:42.613,6.0625,7
14:06:42.643,10.25,16.2501
14:06:42.644,13.6876,24.5001
14:06:42.715,16.1876,30.1251
14:06:42.743,18.5626,35.5626
14:06:42.743,20.5001,39.9377
14:06:42.759,21.3751,43.5627
14:06:42.777,23.1876,46.2502
14:06:42.777,23.5001,49.5002
14:06:42.777,24.5626,52.0002
14:06:42.778,24.6876,54.1252
14:06:42.792,25.8751,55.6252
14:06:42.795,25.7501,57.6252
14:06:42.800,26.4376,59.2502
14:06:42.811,26.3126,59.3752
14:06:42.820,26.3751,61.2502
14:06:42.834,27.0626,60.2502
14:06:42.840,25.7501,59.5002
14:06:42.851,24.8751,58.8127
14:06:42.864,24.1251,56.9377
14:06:42.870,23.0001,55.1877
14:06:42.880,21.7501,53.1252
14:06:42.891,20.7501,50.8127
14:06:42.900,19.7501,48.5002
14:06:42.911,18.3126,46.3752
14:06:42.920,17.5626,44.1877
14:06:42.931,15.3751,38.8126
14:06:42.940,14.0001,38.1251
14:06:42.951,13.5626,36.8751
14:06:42.960,12.875,34.6876
14:06:42.970,12.1875,32.7501
14:06:42.982,11.25,31.0626
14:06:42.990,10.1875,28.7501
14:06:43.000,9.6875,27.9376
14:06:43.011,8.625,24.8126
14:06:43.021,8.4375,22.7501
14:06:43.031,7.4375,20.8751
14:06:43.040,5.625,19.2501
14:06:43.052,5.5,16.5626
14:06:43.060,4.1875,14.2501
14:06:43.071,2.9375,11.8125
14:06:43.080,2.5625,9.4375
14:06:43.090,0.75,8.0625
14:06:43.101,0.5,5.125
14:06:43.110,-0.75,3.3125
14:06:43.121,-1.1875,1.8125
14:06:43.130,-2.5625,-1.0625
14:06:43.141,-3.6875,-2.75
14:06:43.150,-4.125,-4.1875
14:06:43.160,-5.125,-5.875
14:06:43.171,-5.625,-8.3125
14:06:43.183,-6.75,-10.125
14:06:43.191,-7.8125,-11.4375
14:06:43.201,-8.0625,-13.6876
14:06:43.210,-9,-15.5001
14:06:43.222,-9.4375,-16.0001
14:06:43.230,-9.6875,-18.0001
14:06:43.241,-10.3125,-18.0626
14:06:43.250,-10.4375,-19.8751
14:06:43.262,-11.75,-20.8126
14:06:43.272,-12.9375,-22.2501
14:06:43.281,-15.6876,-24.8126
14:06:43.290,-17.5626,-27.1251
14:06:43.301,-23.5626,-30.8126
14:06:43.312,-28.6876,-39.0001
14:06:43.341,-30.1251,-42.6252
14:06:43.345,-31.6876,-44.5002
14:06:43.345,-32.0626,-47.9377
14:06:43.351,-31.9376,-48.8752
14:06:43.393,-34.0626,-52.1252
14:06:43.396,-37.0001,-56.0002
14:06:43.397,-41.0002,-60.3127
14:06:43.400,-43.5627,-63.8752
14:06:43.405,-44.7502,-63.4377
14:06:43.412,-42.8752,-60.0627
14:06:43.439,-39.2501,-50.6252
14:06:43.441,-34.1876,-38.8126
14:06:43.444,-29.5626,-28.0001
14:06:43.450,-24.4376,-18.1876
14:06:43.478,-20.7501,-8.875
14:06:43.480,-16.1251,-2.3125
14:06:43.482,-12.3125,4.0625
14:06:43.498,-8.4375,11.1875
14:06:43.503,-5.5,14.5626
14:06:43.510,-2.875,20.0626
14:06:43.521,-1.375,22.1251
14:06:43.533,-0.75,24.3126
14:06:43.540,0.875,26.5626
14:06:43.551,2.8125,27.0626
14:06:43.560,5.75,30.7501
14:06:43.571,10.6875,33.6876
14:06:43.581,13,34.6876
14:06:43.590,12.875,30.6876
14:06:43.601,12.125,27.2501
14:06:43.613,12.25,22.7501
14:06:43.622,2.9375,7.9375
14:06:43.631,-9.8125,-12.375
14:06:43.642,-23.6876,-34.8751
14:06:43.651,-31.0626,-48.3127
14:06:43.661,-32.2501,-50.8752
14:06:43.670,-26.1876,-42.6252
14:06:43.681,-13.1875,-18.2501
14:06:43.690,0.5625,4.9375
14:06:43.701,8.875,20.7501
14:06:43.711,12.375,29.6251
14:06:43.721,10.3125,31.1251
14:06:43.731,4.4375,26.0001
14:06:43.740,-4,17.5626
14:06:43.753,-11.875,5.875
14:06:43.760,-19.8126,-6.8125
14:06:43.771,-27.5001,-16.7501
14:06:43.781,-33.3126,-25.8126
14:06:43.790,-37.0001,-32.6876
14:06:43.803,-37.3126,-36.7501
14:06:43.811,-37.8126,-36.8126
14:06:43.821,-32.3126,-35.6876
14:06:43.835,-24.1251,-26.0626
14:06:43.841,-18.5001,-16.5001
14:06:43.851,-14.0626,-9.6875
14:06:43.884,-6.4375,1.125
14:06:43.886,1.5,11.625
14:06:43.890,5.625,17.0001
14:06:43.895,6.8125,17.7501
14:06:43.901,8,17.2501
14:06:43.910,7.125,15.3126
14:06:43.923,6.75,14.9376
14:06:43.931,3.6875,12.4375
14:06:43.941,-2.9375,5.4375
14:06:43.950,-13.3126,-7.875
14:06:43.961,-27.0001,-26.6251
14:06:43.972,-38.6251,-45.1877
14:06:43.980,-49.6877,-62.2502
14:06:43.995,-58.4377,-76.3753
14:06:44.005,-64.6877,-86.1878
14:06:44.011,-68.1878,-93.3129
14:06:44.026,-70.2503,-97.2504
14:06:44.042,-71.1253,-99.6254
14:06:44.058,-70.0003,-99.8754
14:06:44.060,-68.3128,-99.4379
14:06:44.069,-67.6878,-99.6879
14:06:44.104,-66.0003,-100.0004
14:06:44.161,-65.0627,-98.6254
14:06:44.163,-63.0627,-97.3129
14:06:44.165,-61.0002,-95.6254
14:06:44.166,-58.0627,-94.5629
14:06:44.166,-57.3752,-93.3754
14:06:44.171,-57.1252,-94.0004
14:06:44.195,-57.2502,-94.2504
14:06:44.197,-58.3127,-97.0004
14:06:44.207,-59.6877,-97.9379
14:06:44.211,-59.6252,-97.3129
14:06:44.241,-57.5627,-88.1878
14:06:44.243,-53.2502,-77.3753
14:06:44.247,-47.5002,-65.1252
14:06:44.251,-41.5627,-50.1252
14:06:44.262,-36.1251,-37.0001
14:06:44.271,-29.5001,-21.1251
14:06:44.282,-24.5001,-10
14:06:44.291,-20.2501,-0.25
14:06:44.301,-15.7501,5.9375
14:06:44.311,-12.375,12
14:06:44.321,-7.125,20.0626
14:06:44.333,18.3126,61.6877
14:06:44.341,19.1876,66.3753
14:06:44.351,24.9376,75.0628
14:06:44.365,30.1251,83.6878
14:06:44.371,32.3126,86.3753
14:06:44.381,35.1251,88.5003
14:06:44.392,37.1251,90.1878
14:06:44.402,39.5002,90.9379
14:06:44.412,37.9376,89.2503
14:06:44.422,38.2501,88.6878
14:06:44.432,37.5001,86.9378
14:06:44.443,33.1251,82.3753
14:06:44.452,27.3751,74.8128
14:06:44.461,19.0626,65.6253
14:06:44.471,9.75,52.5002
14:06:44.481,1.0625,42.3752
14:06:44.492,-5.3125,32.9376
14:06:44.501,-11.125,24.6251
14:06:44.511,-18.6251,15.6251
14:06:44.521,-23.4376,9.875
14:06:44.531,-25.3126,5.1875
14:06:44.541,-28.3751,0.25
14:06:44.551,-29.3126,-6.25
14:06:44.562,-33.0001,-13.1876
14:06:44.572,-35.3751,-20.6251
14:06:44.581,-39.8752,-27.9376
14:06:44.591,-31.7501,-15.6876
14:06:44.601,-21.1876,-0.8125
14:06:44.612,-4.125,17.9376
14:06:44.621,17.6251,48.2502
14:06:44.631,45.5002,88.7503
14:06:44.643,58.4377,113.4379
14:06:44.651,59.3127,115.0004
14:06:44.661,52.1877,103.3754
14:06:44.672,47.6877,90.5629
14:06:44.681,43.8127,82.0628
14:06:44.692,43.0627,78.7503
14:06:44.702,42.4377,78.7503
14:06:44.711,41.5627,79.5628
14:06:44.724,39.0001,80.8753
14:06:44.731,36.8126,81.7503
14:06:44.746,31.6876,79.5628
14:06:44.751,21.5626,62.3127
14:06:44.762,10.75,44.9377
14:06:44.772,0.375,26.7501
14:06:44.781,-8.3125,12.6875
14:06:44.791,-15.3126,-0.1875
14:06:44.804,-20.3751,-10.1875
14:06:44.811,-22.6251,-16.5626
14:06:44.822,-22.6876,-20.0001
14:06:44.851,-23.2501,-20.6876
14:06:44.856,-22.8126,-22.1251
14:06:44.856,-21.5001,-22.3126
14:06:44.860,-21.7501,-24.0626
14:06:44.894,-23.0626,-26.6251
14:06:44.896,-25.2501,-30.6876
14:06:44.898,-30.8126,-38.4376
14:06:44.901,-35.9376,-47.0002
14:06:44.932,-40.1877,-54.8127
14:06:44.934,-39.6877,-53.3127
14:06:44.937,-37.0001,-50.4377
14:06:44.941,-30.1251,-41.0627
14:06:44.971,-14.3751,-22.8126
14:06:44.974,4.125,4.4375
14:06:44.976,16.5626,25.3126
14:06:44.981,23.3751,36.6876
14:06:45.012,27.1251,44.6877
14:06:45.014,29.7501,50.4377
14:06:45.015,23.8126,49.9377
14:06:45.021,9.8125,32.8126
14:06:45.031,-4.5,14.8126
14:06:45.041,-13.9376,4.125
14:06:45.051,-17.7501,-2.375
14:06:45.061,-17.8126,-2.5625
14:06:45.073,-14.9376,1.1875
14:06:45.081,-13,3.25
14:06:45.091,-11.3125,6.25
14:06:45.101,-9.5,8.9375
14:06:45.111,-6.6875,13.4376
14:06:45.121,0,21.7501
14:06:45.131,11.375,36.6876
14:06:45.161,41.5002,76.6878
14:06:45.164,79.6878,132.438
14:06:45.167,90.6254,159.1256
14:06:45.171,83.2503,152.0006
14:06:45.181,73.5628,137.3755
14:06:45.191,71.0628,128.563
14:06:45.201,71.1253,126.313
14:06:45.211,71.6253,126.1255
14:06:45.221,69.8753,125.8755
14:06:45.232,68.2503,124.5005
14:06:45.241,67.9378,130.3755
14:06:45.252,67.0003,137.7505
14:06:45.261,65.8128,146.688
14:06:45.271,66.3128,153.2506
14:06:45.281,61.7502,152.8756
14:06:45.292,54.6877,140.1255
14:06:45.310,45.4377,124.563
14:06:45.318,36.8751,109.0004
14:06:45.324,30.4376,96.6879
14:06:45.333,26.4376,89.0003
14:06:45.349,22.5626,82.5003
14:06:45.354,18.0626,73.1878
14:06:45.366,12.1875,63.2502
14:06:45.372,9.5,56.6877
14:06:45.382,13.6251,60.6252
14:06:45.392,29.8126,78.3128
14:06:45.412,61.1252,120.313
14:06:45.417,89.0003,165.3131
14:06:45.424,95.3129,185.6257
14:06:45.432,86.3128,175.1882
14:06:45.447,76.6878,156.2506
14:06:45.455,72.5628,146.5005
14:06:45.462,69.1878,141.0005
14:06:45.471,65.1252,137.0005
14:06:45.481,60.5627,133.1255
14:06:45.491,56.7502,131.5005
14:06:45.503,54.7502,134.188
14:06:45.511,53.1877,139.5005
14:06:45.521,51.1252,137.5005
14:06:45.531,43.5627,123.1255
14:06:45.541,31.9376,99.1254
14:06:45.574,20.5001,74.8753
14:06:45.576,11.5,56.3127
14:06:45.580,5.9375,43.3752
14:06:45.583,-1,32.1876
14:06:45.612,-6.25,21.1251
14:06:45.615,-9.8125,11.4375
14:06:45.617,-9.3125,8.375
14:06:45.622,4.375,20.8126
14:06:45.650,32.7501,60.3752
14:06:45.654,60.2502,111.5629
14:06:45.655,61.3752,127.563
14:06:45.661,48.7502,113.6254
14:06:45.671,40.8752,97.5004
14:06:45.701,37.7501,87.0003
14:06:45.704,37.0626,81.1253
14:06:45.705,35.0001,77.0628
14:06:45.711,33.5001,77.1878
14:06:45.737,31.6251,76.4378
14:06:45.739,28.2501,77.1253
14:06:45.741,24.5626,80.5628
14:06:45.751,22.6876,84.5628
14:06:45.761,23.3751,88.2503
14:06:45.772,19.9376,75.6878
14:06:45.781,8.1875,48.0627
14:06:45.794,-3.375,22.1251
14:06:45.801,-10.375,3.75
14:06:45.811,-11.9375,-6.1875
14:06:45.822,-15.1251,-10.75
14:06:45.831,-18.6251,-16.1251
14:06:45.843,-21.8126,-21.0626
14:06:45.853,-23.0001,-23.3126
14:06:45.861,-18.1876,-16.3126
14:06:45.871,6.125,17.5001
14:06:45.885,50.3752,89.3753
14:06:45.891,73.8128,144.813
14:06:45.901,68.6253,152.0006
14:06:45.911,59.7502,141.0005
14:06:45.921,61.8127,134.063
14:06:45.931,67.9378,134.438
14:06:45.944,73.5003,142.563
14:06:45.951,76.7503,151.4381
14:06:45.961,77.0003,159.2506
14:06:45.971,76.0003,166.8756
14:06:45.981,75.1253,176.4382
