timestamp,Red,IR
14:43:01.558,3.9375,-7.0625
14:43:01.559,4.3125,-7.125
14:43:01.564,44.7188,-4.9375
14:43:01.566,0.6875,-5.8125
14:43:01.569,5.9375,-5.4375
14:43:01.596,7,-2.6875
14:43:01.598,7.9375,-0.375
14:43:01.601,9.3438,2.75
14:43:01.608,10.9375,4.4375
14:43:01.636,11.125,6.3125
14:43:01.640,11.0938,6.3125
14:43:01.643,10.3438,6.3125
14:43:01.648,9.4063,5.1875
14:43:01.658,8.4688,2.5625
14:43:01.668,7.3438,0.1875
14:43:01.678,5.6875,-1.875
14:43:01.688,4.6563,-3.25
14:43:01.698,2.7188,-7.3125
14:43:01.708,1.3125,-9
14:43:01.718,-0.5938,-13.4376
14:43:01.729,-2.0625,-15.8126
14:43:01.739,-3.9375,-18.0001
14:43:01.748,-5.0313,-21.0001
14:43:01.756,-6.9063,-23.3751
14:43:01.768,-8.0625,-25.3126
14:43:01.778,-9.1875,-26.8126
14:43:01.788,-10.3438,-28.5001
14:43:01.798,-11.25,-30.8126
14:43:01.808,-11.875,-31.1251
14:43:01.818,-12.75,-32.7501
14:43:01.828,-13.6251,-33.4376
14:43:01.838,-14.2188,-35.0626
14:43:01.848,-14.9376,-35.6251
14:43:01.859,-15.6563,-37.0626
14:43:01.869,-16.1563,-37.5626
14:43:01.888,-16.3438,-38.1876
14:43:01.894,-16.8126,-39.0626
14:43:01.897,-16.8438,-38.5626
14:43:01.912,-17.1876,-40.1252
14:43:01.920,-16.3751,-39.5002
14:43:01.928,-17.4063,-39.8752
14:43:01.938,-17.6876,-40.4377
14:43:01.947,-17.7813,-40.3127
14:43:01.958,-17.6876,-41.1877
14:43:01.969,-17.7188,-40.8127
14:43:01.978,-18.0938,-41.3752
14:43:01.988,-17.8126,-41.0627
14:43:01.998,-18.4063,-41.5627
14:43:02.008,-17.8751,-41.5627
14:43:02.018,-18.3126,-40.4377
14:43:02.027,-18.4063,-41.7502
14:43:02.038,-17.1563,-41.4377
14:43:02.047,-18.2188,-41.7502
14:43:02.058,-17.5001,-41.7502
14:43:02.068,-17.5001,-41.5002
14:43:02.077,-15.4688,-40.0627
14:43:02.088,-13.125,-38.0626
14:43:02.096,-8.7813,-34.3126
14:43:02.108,-1.4375,-24.6251
14:43:02.118,9.8125,-7.375
14:43:02.128,23.8126,20.8126
14:43:02.149,34.4376,46.0627
14:43:02.150,41.3752,61.5002
14:43:02.177,44.7814,70.1878
14:43:02.179,46.1877,73.1878
14:43:02.181,46.2502,74.6253
14:43:02.188,45.8752,74.3128
14:43:02.214,43.9689,71.3128
14:43:02.217,42.4064,67.4378
14:43:02.221,39.3752,62.6877
14:43:02.250,36.0626,58.6252
14:43:02.253,33.5314,50.8127
14:43:02.257,29.2189,45.5627
14:43:02.262,26.4064,38.3126
14:43:02.275,22.4688,31.6876
14:43:02.279,19.3751,25.9376
14:43:02.305,16.6251,19.5626
14:43:02.311,13.7501,14.5001
14:43:02.311,10.75,10.375
14:43:02.324,8.0313,4.3125
14:43:02.328,5.9063,0.875
14:43:02.338,4.2188,-3.375
14:43:02.347,2.7188,-6.375
14:43:02.358,1.4688,-9.4375
14:43:02.368,0.375,-11.3125
14:43:02.378,0.5625,-11.6875
14:43:02.388,0.4688,-13.1876
14:43:02.398,1.25,-13
14:43:02.410,0.875,-13.125
14:43:02.418,1.9063,-11.875
14:43:02.428,3.4375,-11
14:43:02.438,4.5,-8.375
14:43:02.448,6.0938,-6.6875
14:43:02.458,7.3438,-4.125
14:43:02.469,8.3125,-2.625
14:43:02.496,8.5625,-0.9375
14:43:02.499,8.6563,-0.8125
14:43:02.501,8.1875,-1
14:43:02.507,7.4688,-2.1875
14:43:02.518,6.375,-3.75
14:43:02.529,5.25,-4.9375
14:43:02.538,4.25,-7.1875
14:43:02.548,2.3438,-9.5625
14:43:02.558,1.0625,-11.75
14:43:02.568,0.0625,-13.9376
14:43:02.578,-1.5625,-16.3751
14:43:02.588,-2.75,-17.6876
14:43:02.598,-4.0313,-20.2501
14:43:02.608,-5.0625,-22.1251
14:43:02.618,-6.2813,-23.5626
14:43:02.628,-7,-24.8126
14:43:02.637,-8.1563,-26.5001
14:43:02.648,-8.7813,-27.5001
14:43:02.656,-9.4063,-29.8126
14:43:02.679,-9.9688,-29.6876
14:43:02.681,-11,-30.1251
14:43:02.703,-10.75,-31.1876
14:43:02.704,-11.6875,-31.9376
14:43:02.720,-11.6563,-32.8126
14:43:02.725,-12.4063,-33.2501
14:43:02.728,-12.8125,-33.4376
14:43:02.738,-12.5313,-33.0001
14:43:02.747,-12.2813,-34.3751
14:43:02.758,-13.0313,-33.8751
14:43:02.768,-12.9688,-35.2501
14:43:02.778,-13.5001,-34.1251
14:43:02.793,-13.5313,-35.1251
14:43:02.802,-13.0625,-35.4376
14:43:02.813,-13.9063,-35.6251
14:43:02.823,-13.7501,-36.2501
14:43:02.833,-14.1876,-35.7501
14:43:02.843,-13.6563,-35.8126
14:43:02.853,-14.4688,-36.7501
14:43:02.863,-13.8438,-36.3751
14:43:02.873,-14.3126,-36.0626
14:43:02.912,-12.8125,-35.3751
14:43:02.913,-10.9063,-33.7501
14:43:02.917,-7.25,-30.5626
14:43:02.918,-1,-23.6876
14:43:02.923,7.5,-9.3125
14:43:02.956,20.5313,14.3751
14:43:02.958,31.4064,39.0626
14:43:02.959,42.3439,64.4377
14:43:02.965,45.5939,71.3128
14:43:02.977,46.3752,75.0003
14:43:02.981,46.0939,75.0003
14:43:03.012,45.1252,72.2503
14:43:03.014,43.4689,70.0003
14:43:03.017,40.9689,65.3127
14:43:03.023,38.4064,61.4377
14:43:03.054,35.2189,54.4377
14:43:03.057,31.8439,48.7502
14:43:03.058,27.9689,41.2502
14:43:03.064,24.8438,35.5626
14:43:03.074,20.8126,27.6251
14:43:03.083,17.8751,22.3126
14:43:03.093,14.1563,15.1251
14:43:03.101,10.8125,9.0625
14:43:03.112,7.8125,4.6875
14:43:03.123,5.375,1.125
14:43:03.132,3.4063,-3.0625
14:43:03.143,2.5,-6.1875
14:43:03.153,1.125,-8.6875
14:43:03.163,-0.0625,-10.5
14:43:03.172,-0.7813,-12.4375
14:43:03.183,-1.4375,-13.7501
14:43:03.203,-0.5,-13.8126
14:43:03.209,-0.375,-15.3751
14:43:03.212,0.8438,-14.0626
14:43:03.223,1.6563,-13.3751
14:43:03.240,3,-10.25
14:43:03.248,4.5938,-9.125
14:43:03.254,6.625,-5.8125
14:43:03.263,7.4063,-4.0625
14:43:03.273,7.8438,-2.4375
14:43:03.283,8.0625,-1.625
14:43:03.293,7.9688,-1.8125
14:43:03.303,7.2188,-2.375
14:43:03.313,6.2188,-3.375
14:43:03.323,5,-5.875
14:43:03.333,3.9375,-6.75
14:43:03.343,2.6563,-9.3125
14:43:03.353,1.1563,-11.75
14:43:03.363,-0.5625,-12.6875
14:43:03.373,-1.25,-15.7501
14:43:03.382,-3.2813,-16.5001
14:43:03.392,-3.7188,-19.8126
14:43:03.402,-5.5625,-20.7501
14:43:03.413,-5.875,-22.7501
14:43:03.421,-7.3125,-23.0626
14:43:03.433,-8.1875,-24.6876
14:43:03.449,-8.8125,-25.0001
14:43:03.453,-9.125,-26.8126
14:43:03.463,-10.0313,-27.1251
14:43:03.473,-9.9063,-28.7501
14:43:03.482,-11.125,-27.9376
14:43:03.493,-11.0313,-29.8126
14:43:03.504,-11.7813,-29.7501
14:43:03.511,-12.125,-31.4376
14:43:03.523,-12.4688,-31.0001
14:43:03.533,-12.6563,-31.7501
14:43:03.543,-12.5,-32.3126
14:43:03.551,-13.1876,-32.9376
14:43:03.563,-13.1563,-33.3751
14:43:03.573,-13.8751,-33.5626
14:43:03.581,-14.1876,-34.1876
14:43:03.593,-14.6876,-34.3126
14:43:03.601,-14.8438,-35.8126
14:43:03.613,-14.4063,-35.1251
14:43:03.622,-14.7501,-34.1251
14:43:03.633,-13.6876,-34.5626
14:43:03.642,-11.5938,-33.5001
14:43:03.653,-8.1563,-30.2501
14:43:03.662,-2.4375,-24.5001
14:43:03.689,6.4375,-11
14:43:03.692,18.9376,13.5626
14:43:03.695,31.1876,40.2502
14:43:03.720,39.4377,59.5002
14:43:03.723,22.7501,70.8753
14:43:03.756,3.4063,77.4378
14:43:03.760,5.1875,79.3753
14:43:03.765,6.0625,79.7503
14:43:03.794,5.125,77.6253
14:43:03.794,3.9063,73.8753
14:43:03.795,2.375,70.3753
14:43:03.797,0.6563,64.1252
14:43:03.803,-1.7188,59.6877
14:43:03.804,-4.7188,52.0002
14:43:03.840,-7.5938,46.3127
14:43:03.841,-9.7188,38.8751
14:43:03.843,-12.9688,33.3126
14:43:03.847,-15.3751,26.5626
14:43:03.853,-17.0938,20.2501
14:43:03.868,-20.0626,14.6876
14:43:03.873,-22.4063,9.6875
14:43:03.883,-24.5001,5.4375
14:43:03.891,-25.5626,0.875
14:43:03.903,-26.7814,-2.1875
14:43:03.913,-27.4689,-5
14:43:03.921,-27.1876,-6.5625
14:43:03.933,-27.9689,-8.5
14:43:03.941,-27.2501,-9.25
14:43:03.952,-26.6876,-10.5
14:43:03.963,-25.5626,-10.4375
14:43:03.973,-23.4688,-9.375
14:43:03.994,-22.2501,-7.125
14:43:03.997,-19.5938,-5.625
14:43:04.006,-18.0001,-2.125
14:43:04.013,-16.4376,-0.25
14:43:04.029,-15.0938,2.4375
14:43:04.035,-13.9688,3.625
14:43:04.042,-13.7813,4.375
14:43:04.054,-12.9688,3.1875
14:43:04.062,-13.6251,3
14:43:04.074,-14.2501,1.25
14:43:04.082,-14.4063,-0.9375
14:43:04.093,-16.0626,-2.6875
14:43:04.101,-16.8126,-6.1875
14:43:04.112,-17.9688,-8.0625
14:43:04.123,-19.8126,-9.875
14:43:04.131,-20.4063,-13.3751
14:43:04.143,-21.5938,-14.6251
14:43:04.153,-22.2188,-18.0626
14:43:04.162,-23.4063,-19.3751
14:43:04.172,-23.7813,-21.4376
14:43:04.183,-24.2501,-22.5001
14:43:04.192,-24.7501,-24.3126
14:43:04.204,-24.5938,-25.1876
14:43:04.214,-25.9376,-27.0626
14:43:04.221,-25.5626,-27.8126
14:43:04.233,-26.2813,-28.6876
14:43:04.241,-26.0938,-29.1876
14:43:04.251,-26.3439,-29.4376
14:43:04.264,-26.0938,-30.6876
14:43:04.273,-26.4376,-30.8751
14:43:04.282,-26.9064,-31.0001
14:43:04.292,-26.5001,-32.3751
14:43:04.301,-26.2813,-32.0001
14:43:04.313,-26.5001,-33.1251
14:43:04.322,-26.6564,-33.5626
14:43:04.346,-26.4376,-33.2501
14:43:04.348,-26.5939,-34.3751
14:43:04.358,-25.8438,-34.6876
14:43:04.363,-26.6251,-33.6876
14:43:04.403,-26.5314,-35.5626
14:43:04.404,-25.4376,-35.1251
14:43:04.408,-26.3126,-35.5001
14:43:04.412,-25.7501,-36.1876
14:43:04.415,-25.2188,-35.8751
14:43:04.424,-25.3751,-34.6876
14:43:04.461,-23.4688,-35.0001
14:43:04.462,-20.4688,-32.6876
14:43:04.464,-16.4688,-28.7501
14:43:04.467,-8.875,-19.8126
14:43:04.473,1.7188,-2.375
14:43:04.481,16.6563,26.5626
14:43:04.509,27.5626,52.0627
14:43:04.512,34.8751,68.8128
14:43:04.514,39.2501,79.3753
14:43:04.532,41.4064,83.3753
14:43:04.540,41.9689,86.1878
14:43:04.553,41.5627,84.3753
14:43:04.555,40.4377,83.2503
14:43:04.567,38.3439,79.1253
14:43:04.573,36.1564,75.6253
14:43:04.581,33.2814,70.3128
14:43:04.593,31.3439,65.0002
14:43:04.602,27.9376,59.2502
14:43:04.616,25.4376,53.3127
14:43:04.623,22.1251,46.6252
14:43:04.633,18.6876,41.3752
14:43:04.641,16.8126,35.3126
14:43:04.653,13.7501,28.9376
14:43:04.663,11.375,24.6251
14:43:04.673,8.9375,20.0001
14:43:04.681,6.4063,15.2501
14:43:04.693,4.6563,11.3125
14:43:04.702,2.5,6.3125
14:43:04.712,1,3.6875
14:43:04.723,0.6563,1.125
14:43:04.732,-0.375,-0.0625
14:43:04.743,0.9063,-0.8125
14:43:04.752,0.3125,-1.25
14:43:04.763,1.9063,-0.5625
14:43:04.771,1.8125,1
14:43:04.783,3.75,3.5
14:43:04.791,5.5313,6
14:43:04.803,7.7813,8.625
14:43:04.812,7.75,11.0625
14:43:04.823,9.2188,12.6875
14:43:04.832,9.0625,13.9376
14:43:04.841,10.0313,14.1876
14:43:04.853,8.4688,13.5001
14:43:04.862,8.4063,12.0625
14:43:04.872,6.5625,10.0625
14:43:04.882,5.5313,7.8125
14:43:04.893,4.9688,5.375
14:43:04.902,2.5313,3.0625
14:43:04.913,1.375,-1.0625
14:43:04.923,-1.2813,-2.8125
14:43:04.932,-2,-5.75
14:43:04.943,-3.4375,-8.625
14:43:04.951,-4.6875,-12.0625
14:43:04.961,-6.4688,-14.1251
14:43:04.973,-7.7813,-17.0626
14:43:04.999,-9.5,-18.6251
14:43:05.001,-10.2188,-21.0001
14:43:05.003,-11.0313,-23.4376
14:43:05.018,-11.9688,-23.6876
14:43:05.024,-12.7813,-26.1876
14:43:05.033,-13.0938,-27.5626
14:43:05.042,-13.6563,-28.5001
14:43:05.052,-14.4063,-28.9376
14:43:05.063,-14.6251,-29.6876
14:43:05.071,-15.5313,-30.8126
14:43:05.084,-15.8751,-30.5001
14:43:05.093,-15.9063,-32.3126
14:43:05.102,-16.2188,-32.1876
14:43:05.113,-16.5001,-32.8751
14:43:05.121,-16.1876,-33.3751
14:43:05.131,-16.9688,-34.3126
14:43:05.143,-16.6876,-34.9376
14:43:05.160,-17.3126,-34.5626
14:43:05.164,-17.4376,-36.3126
14:43:05.190,-17.5938,-36.0001
14:43:05.192,-17.3438,-35.1251
14:43:05.195,-17.5626,-36.0626
14:43:05.227,-17.6876,-36.6876
14:43:05.229,-17.7813,-35.5001
14:43:05.232,-18.0938,-37.1876
14:43:05.237,-18.1251,-37.3751
14:43:05.249,-17.9376,-36.6251
14:43:05.253,-18.3751,-37.5001
14:43:05.283,-17.8438,-37.6876
14:43:05.285,-17.5938,-37.0001
14:43:05.288,-16.1251,-36.8751
14:43:05.293,-12.875,-33.5001
14:43:05.320,-8.3438,-28.6251
14:43:05.323,-0.4063,-17.8126
14:43:05.337,12.4063,5.5
14:43:05.340,25.9063,34.6251
14:43:05.355,36.8751,57.5627
14:43:05.357,43.0627,73.2503
14:43:05.364,46.6564,82.1253
14:43:05.372,48.5314,86.1253
14:43:05.382,48.3752,87.4378
14:43:05.393,47.8127,86.8128
14:43:05.401,46.5314,84.1253
14:43:05.412,44.5002,80.9378
14:43:05.422,42.0627,76.8128
14:43:05.432,40.1252,71.7503
14:43:05.442,36.7814,67.0003
14:43:05.452,34.0626,60.3752
14:43:05.462,30.9064,55.3127
14:43:05.474,28.1251,49.1252
14:43:05.482,25.1251,43.5002
14:43:05.493,22.2813,39.6252
14:43:05.502,20.6251,33.9376
14:43:05.512,17.9063,28.5001
14:43:05.523,15.0313,25.1251
14:43:05.532,13.2501,19.8126
14:43:05.542,11,15.8751
14:43:05.551,9.4688,12.25
14:43:05.561,7.9063,9.6875
14:43:05.571,6.875,7.25
14:43:05.583,6.25,5.1875
14:43:05.592,6.8438,4.5625
14:43:05.602,6.75,4.3125
14:43:05.611,7.8125,5.0625
14:43:05.621,8.7188,7.1875
14:43:05.632,10.0625,9.5625
14:43:05.642,11.9688,12.9375
14:43:05.651,12.875,15.6876
14:43:05.661,13.8126,17.6251
14:43:05.671,14.2813,18.9376
14:43:05.682,13.8126,19.3126
14:43:05.692,13.8751,18.3126
14:43:05.704,12.25,17.4376
14:43:05.712,12,16.0001
14:43:05.722,10.5938,14.1251
14:43:05.732,10,12.3125
14:43:05.742,8.375,8.6875
14:43:05.751,6.625,6.1875
14:43:05.766,5,2.3125
14:43:05.773,3.0938,-0.4375
14:43:05.783,1.5938,-3.875
14:43:05.791,-0.5313,-6.3125
14:43:05.801,-1.7813,-9.5625
14:43:05.812,-3.5313,-13.0625
14:43:05.821,-4.9375,-15.6251
14:43:05.852,-6.2813,-17.6251
14:43:05.855,-7.7188,-20.4376
14:43:05.871,-8.6563,-22.1876
14:43:05.900,-9.4063,-24.3126
14:43:05.903,-10.3438,-25.5626
14:43:05.904,-11.5625,-27.5001
14:43:05.907,-11.9375,-28.2501
14:43:05.914,-12.8438,-30.3751
14:43:05.916,-13.4376,-30.7501
14:43:05.946,-13.9688,-32.1876
14:43:05.947,-14.7501,-32.5626
14:43:05.949,-15.0626,-33.9376
14:43:05.952,-14.9688,-34.0001
14:43:05.983,-15.9688,-33.7501
14:43:05.985,-16.1876,-35.4376
14:43:05.992,-15.5001,-35.0001
14:43:05.996,-16.5626,-35.3751
14:43:06.025,-15.6563,-35.8751
14:43:06.029,-16.7501,-36.2501
14:43:06.033,-16.1876,-36.6251
14:43:06.035,-16.9376,-36.5626
14:43:06.042,-16.4688,-37.4376
14:43:06.057,-17.2813,-37.5001
14:43:06.067,-17.4688,-37.4376
14:43:06.077,-17.5626,-37.9376
14:43:06.086,-17.8438,-38.5626
14:43:06.096,-18.0938,-38.0626
14:43:06.107,-17.9376,-39.4377
14:43:06.117,-18.3126,-38.8126
14:43:06.126,-18.8438,-37.9376
14:43:06.139,-18.2501,-39.5627
14:43:06.149,-18.7501,-38.5626
14:43:06.157,-19.1563,-39.7502
14:43:06.166,-18.1563,-39.8127
14:43:06.177,-17.1563,-39.3126
14:43:06.186,-15.7188,-37.6876
14:43:06.198,-12.1563,-34.0626
14:43:06.208,-6.0313,-27.0626
14:43:06.216,10.3438,-0.6875
14:43:06.227,24.6563,29.3751
14:43:06.237,35.9689,54.5002
14:43:06.246,42.9064,70.9378
14:43:06.279,45.8439,79.1253
14:43:06.281,47.9689,84.6878
14:43:06.285,48.0002,85.3128
14:43:06.290,47.2189,85.3753
14:43:06.298,46.0314,82.6253
14:43:06.306,43.9064,79.1253
14:43:06.316,41.7502,75.2503
14:43:06.326,39.1876,69.9378
14:43:06.338,36.2501,64.8127
14:43:06.347,33.1564,59.0002
14:43:06.356,30.4376,53.2502
14:43:06.366,26.9689,47.6252
14:43:06.376,24.4063,41.3752
14:43:06.388,21.4376,36.6251
14:43:06.398,19.5626,31.1876
14:43:06.406,16.4688,26.1251
14:43:06.418,14.0938,21.8751
14:43:06.426,12.0313,16.7501
14:43:06.437,9.9375,13.1251
14:43:06.447,8.5313,9.3125
14:43:06.457,6.75,6.5
14:43:06.467,5.3125,4.8125
14:43:06.476,5.25,2.3125
14:43:06.487,4.7188,2.25
14:43:06.497,5.5313,2.4375
14:43:06.508,6.375,3
14:43:06.518,8.0625,5.875
14:43:06.527,9.5313,7.3125
14:43:06.537,10.8125,11.1875
14:43:06.547,12.125,12.75
14:43:06.556,12.6563,15.7501
14:43:06.566,13.4376,16.1876
14:43:06.576,13.4376,17.6251
14:43:06.650,12.9688,17.1251
14:43:06.652,12.5938,16.2501
14:43:06.664,11.4375,14.2501
14:43:06.667,10.3438,13.3751
14:43:06.697,8.9063,9.9375
14:43:06.701,7.4063,8.3125
14:43:06.701,5.7188,3.75
14:43:06.701,4.3438,2
14:43:06.703,2.2813,-2
14:43:06.709,0.75,-4.5625
14:43:06.713,-1.0625,-8.3125
14:43:06.738,-2.5625,-10.625
14:43:06.741,-4.0313,-14.5626
14:43:06.743,-5.2188,-15.9376
14:43:06.749,-6.7813,-18.8126
14:43:06.761,-8.1563,-20.5001
14:43:06.766,-9.6875,-23.8126
14:43:06.778,-10.1563,-25.0626
14:43:06.787,-11.2188,-27.1251
14:43:06.797,-12.1563,-27.9376
14:43:06.807,-13.3126,-30.0001
14:43:06.823,-13.5626,-31.5001
14:43:06.832,-14.1563,-32.3126
14:43:06.841,-16.5938,-35.0626
14:43:06.853,-16.7188,-36.0626
14:43:06.862,-16.8751,-37.6251
14:43:06.871,-17.5313,-36.7501
14:43:06.881,-17.5938,-38.1251
14:43:06.891,-17.5938,-38.1876
14:43:06.903,-18.2813,-38.5001
14:43:06.912,-17.4063,-38.5626
14:43:06.921,-18.1876,-38.8126
14:43:06.931,-18.1251,-39.6877
14:43:06.941,-18.6563,-38.8751
14:43:06.952,-18.5626,-40.0627
14:43:06.962,-18.0626,-40.0627
14:43:06.972,-18.7501,-40.5627
14:43:06.982,-19.5626,-40.9377
14:43:06.991,-19.4688,-41.5627
14:43:07.002,-19.8126,-41.6877
14:43:07.011,-20.0313,-41.6877
14:43:07.021,-19.5313,-42.1877
14:43:07.032,-20.1563,-41.8752
14:43:07.041,-20.4063,-42.5002
14:43:07.052,-20.0938,-43.1252
14:43:07.062,-20.1251,-42.6877
14:43:07.071,-20.0313,-42.8127
14:43:07.081,-19.7813,-42.7502
14:43:07.091,-18.2813,-41.3752
14:43:07.103,-16.1563,-39.8752
14:43:07.112,-11.9063,-35.5626
14:43:07.122,-5.0625,-27.3126
14:43:07.132,5.375,-10.1875
14:43:07.142,19.2188,16.6876
14:43:07.156,30.6564,43.9377
14:43:07.171,38.7501,62.0002
14:43:07.178,43.7189,74.1253
14:43:07.186,45.8752,78.5003
14:43:07.192,46.3752,82.1878
14:43:07.202,46.2814,81.2503
14:43:07.212,44.7814,78.5003
14:43:07.222,43.0627,75.7503
14:43:07.231,40.6564,71.7503
14:43:07.242,37.6876,66.3128
14:43:07.252,35.2814,61.6877
14:43:07.270,31.9689,54.6877
14:43:07.272,28.7814,48.8752
14:43:07.281,25.5001,42.7502
14:43:07.292,23.0001,37.8751
14:43:07.324,20.0938,31.2501
14:43:07.326,17.1563,25.8751
14:43:07.328,14.5626,21.9376
14:43:07.333,12.1875,15.5626
14:43:07.360,9.4375,11.1875
14:43:07.364,7.8125,6.75
14:43:07.366,6.1563,3.5625
14:43:07.373,4.5313,-0.125
14:43:07.399,3.7188,-1.375
14:43:07.402,2.9063,-3.75
14:43:07.404,3,-4.1875
14:43:07.433,3.1563,-5.3125
14:43:07.435,4.1875,-3.875
14:43:07.438,5.2813,-3.0625
14:43:07.446,6.0938,-0.875
14:43:07.471,8.375,2.0625
14:43:07.477,8.9688,5.375
14:43:07.477,10.5313,8.125
14:43:07.483,10.7813,9.3125
14:43:07.492,10.9688,11.125
14:43:07.502,11.4063,10.375
14:43:07.512,10.1875,9.8125
14:43:07.522,9.6875,9.5625
14:43:07.532,8.3438,6.8125
14:43:07.559,7.25,5.0625
14:43:07.561,5.5938,1.5625
14:43:07.563,4.7813,-0.3125
14:43:07.573,2.9688,-3.875
14:43:07.581,1.5313,-5.4375
14:43:07.592,-0.0625,-8.875
14:43:07.602,-1.4063,-11.125
14:43:07.611,-3.1875,-14.5626
14:43:07.621,-4.375,-17.0001
14:43:07.631,-5.625,-19.6876
14:43:07.646,-6.9063,-20.7501
14:43:07.652,-7.5625,-23.1251
14:43:07.661,-9.25,-24.9376
14:43:07.671,-9.8438,-26.0626
14:43:07.681,-10.5313,-27.7501
14:43:07.692,-11.9063,-29.0626
14:43:07.701,-12.6875,-30.3126
14:43:07.711,-12.625,-31.3126
14:43:07.721,-13.4063,-31.5626
14:43:07.732,-14.2501,-32.5626
14:43:07.742,-13.5626,-32.7501
14:43:07.751,-14.3126,-32.4376
14:43:07.761,-14.2501,-34.3126
14:43:07.771,-14.2501,-34.4376
14:43:07.782,-15.1251,-34.8751
14:43:07.791,-15.4376,-35.1251
14:43:07.801,-15.0938,-34.6251
14:43:07.811,-16.0626,-36.5626
14:43:07.821,-15.8438,-36.2501
14:43:07.831,-16.1563,-36.6251
14:43:07.842,-16.0938,-36.2501
14:43:07.851,-16.1251,-37.3751
14:43:07.861,-16.7501,-37.3126
14:43:07.872,-16.5938,-38.4376
14:43:07.882,-17.3438,-37.6876
14:43:07.892,-17.2188,-38.5626
14:43:07.901,-17.5313,-37.1876
14:43:07.912,-17.6563,-38.9376
14:43:07.921,-17.9063,-38.5626
14:43:07.932,-17.6563,-39.2502
14:43:07.949,-18.0313,-39.0626
14:43:07.953,-17.5001,-38.8126
14:43:07.968,-17.8438,-39.5002
14:43:07.974,-16.9063,-38.3751
14:43:07.981,-14.9376,-37.5626
14:43:07.992,-12.125,-34.4376
14:43:08.001,-7,-28.3126
14:43:08.021,1,-18.3126
14:43:08.024,12.5,3.625
14:43:08.033,24.7813,29.4376
14:43:08.065,33.7189,51.8127
14:43:08.068,39.8127,65.4378
14:43:08.069,42.6877,73.1253
14:43:08.073,43.7502,75.6253
14:43:08.104,43.9064,76.2503
14:43:08.105,42.2189,75.3128
14:43:08.108,41.3127,72.1253
14:43:08.114,38.5939,68.1253
14:43:08.140,35.7189,62.4377
14:43:08.142,33.2501,57.5627
14:43:08.146,29.9064,51.5627
14:43:08.175,26.5314,44.0002
14:43:08.179,22.7813,38.4376
14:43:08.181,19.9376,31.0001
14:43:08.187,16.0313,24.3126
14:43:08.203,12.8125,19.1876
14:43:08.208,10.875,13.2501
14:43:08.212,7.2813,8.0625
14:43:08.222,4.8125,3.875
14:43:08.231,2.875,-0.9375
14:43:08.241,0.8125,-4.0625
14:43:08.252,0.5938,-6.25
14:43:08.261,-0.7813,-7.9375
14:43:08.272,-0.8438,-9.9375
14:43:08.282,-1.2813,-10.1875
14:43:08.292,-0.4063,-10.25
14:43:08.301,0.8125,-9.6875
14:43:08.311,1.5,-8.375
14:43:08.322,3.3438,-6.3125
14:43:08.332,4.4688,-3.5
14:43:08.341,6.1875,-0.25
14:43:08.357,7.4688,2
14:43:08.361,8.4688,4.25
14:43:08.372,8.7813,4.4375
14:43:08.382,8.7188,5.5625
14:43:08.391,8.25,5.75
14:43:08.402,8.1563,4.375
14:43:08.412,6.3125,3.375
14:43:08.422,5.1875,1.0625
14:43:08.432,4.5625,-1.75
14:43:08.442,2.375,-3.5
14:43:08.463,0.9375,-7.125
14:43:08.469,-0.0938,-9.5625
14:43:08.485,-1.7813,-11.1875
14:43:08.487,-3.375,-14.0001
14:43:08.493,-4.0938,-16.1251
14:43:08.502,-6.1875,-18.3126
14:43:08.511,-6.9063,-20.5001
14:43:08.524,-8.4063,-21.8751
14:43:08.532,-8.9688,-23.6251
14:43:08.542,-10,-24.9376
14:43:08.552,-11.125,-25.8751
14:43:08.561,-11.5625,-27.4376
14:43:08.578,-12.0938,-27.8126
14:43:08.583,-12.875,-29.0626
14:43:08.592,-13.3751,-29.6876
14:43:08.602,-13.5626,-30.8126
14:43:08.612,-13.8751,-30.3751
14:43:08.622,-13.6251,-32.0626
14:43:08.632,-14.2501,-31.1251
14:43:08.641,-14.3126,-32.7501
14:43:08.652,-14.8438,-32.3751
14:43:08.662,-15.4063,-33.1876
14:43:08.672,-15.2501,-34.0001
14:43:08.682,-15.9376,-35.0626
14:43:08.691,-16.0313,-34.5626
14:43:08.701,-16.0626,-34.6876
14:43:08.711,-15.9063,-35.3126
14:43:08.722,-16.1563,-34.7501
14:43:08.731,-16.0626,-36.1876
14:43:08.742,-16.5313,-35.1876
14:43:08.751,-16.4063,-36.4376
14:43:08.781,-16.7501,-35.4376
14:43:08.783,-16.5938,-36.7501
14:43:08.785,-16.6251,-36.0001
14:43:08.791,-15.1563,-35.7501
14:43:08.828,-14.1876,-33.7501
14:43:08.829,-10.5,-31.7501
14:43:08.832,-5.75,-24.7501
14:43:08.847,2.375,-14.0626
14:43:08.849,13.8751,8.375
14:43:08.882,26.2501,34.2501
14:43:08.884,35.3439,56.0002
14:43:08.887,41.3752,69.1878
14:43:08.892,43.4377,77.4378
14:43:08.893,45.3439,80.0628
14:43:08.926,45.0002,81.2503
14:43:08.930,44.5002,79.3128
14:43:08.931,42.2189,77.1253
14:43:08.934,39.8752,71.6253
14:43:08.955,37.1251,68.2503
14:43:08.957,34.9376,61.4377
14:43:08.963,31.1251,56.1252
14:43:08.975,27.7501,49.0002
14:43:08.982,24.2501,41.6877
14:43:08.992,21.0938,36.2501
14:43:09.002,18.2501,29.8126
14:43:09.013,15.2813,23.2501
14:43:09.022,12.0313,17.3126
14:43:09.031,8.6563,12.4375
14:43:09.041,6.4063,7.375
14:43:09.052,4.125,3.125
14:43:09.065,2.6875,-0.6875
14:43:09.071,0.6875,-3.0625
14:43:09.082,-0.4063,-4.9375
14:43:09.091,-0.1875,-7.5625
14:43:09.102,-0.2813,-8.0625
14:43:09.112,0.4063,-8.4375
14:43:09.122,1.0313,-7.75
14:43:09.131,1.9688,-6.6875
14:43:09.142,3.1563,-5.0625
14:43:09.151,4.7188,-2.25
14:43:09.161,6.625,0.5
14:43:09.171,8.0625,3.0625
14:43:09.182,8.5625,5.625
14:43:09.191,8.9375,6.625
14:43:09.202,9.1875,7.25
14:43:09.212,8.9063,7
14:43:09.221,8.0625,5.9375
14:43:09.232,6.0625,3.875
14:43:09.247,5.1563,2
14:43:09.262,3.4688,-1
14:43:09.264,2.5938,-2.6875
14:43:09.271,0.625,-5.5
14:43:09.281,-0.4375,-8.5
14:43:09.291,-2.4375,-10.1875
14:43:09.302,-3.5313,-13.4376
14:43:09.313,-5.1875,-15.1876
14:43:09.328,-6.25,-17.6251
14:43:09.334,-7.4688,-19.3751
14:43:09.341,-8.4063,-21.3126
14:43:09.352,-9.25,-22.5626
14:43:09.362,-9.8438,-25.0626
14:43:09.372,-11.5313,-25.6876
14:43:09.381,-11.8125,-27.8751
14:43:09.392,-12.75,-28.3751
14:43:09.402,-13.2501,-28.8751
14:43:09.412,-13.7501,-30.3751
14:43:09.421,-13.7501,-30.7501
14:43:09.432,-14.6251,-31.1876
14:43:09.441,-14.4376,-30.8751
14:43:09.452,-14.9376,-31.2501
14:43:09.462,-15.2813,-32.5626
14:43:09.472,-14.7501,-32.7501
14:43:09.482,-15.6563,-33.1251
14:43:09.491,-15.1251,-33.1251
14:43:09.502,-16.0001,-34.0001
14:43:09.539,-15.4063,-33.3751
14:43:09.541,-16.1876,-34.8751
14:43:09.543,-16.4063,-34.6251
14:43:09.545,-16.5938,-35.1876
14:43:09.553,-16.8126,-35.4376
14:43:09.584,-16.7813,-35.7501
14:43:09.588,-16.8126,-35.0001
14:43:09.588,-17.2188,-36.2501
14:43:09.593,-17.1251,-36.1251
14:43:09.602,-16.5626,-36.4376
14:43:09.635,-16.3751,-35.7501
14:43:09.637,-14.6563,-34.7501
14:43:09.639,-13.2501,-32.6876
14:43:09.642,-8,-28.0001
14:43:09.672,-1.375,-19.1876
14:43:09.674,10.125,-0.0625
14:43:09.677,23.5001,28.9376
14:43:09.683,34.4376,54.6252
14:43:09.692,42.2814,70.8753
14:43:09.702,45.9689,82.3753
14:43:09.712,48.2189,86.5628
14:43:09.721,48.5939,89.6878
14:43:09.731,47.9689,88.2503
14:43:09.742,46.8127,86.1253
14:43:09.752,45.0002,83.4378
14:43:09.767,43.0002,80.0003
14:43:09.781,40.4689,74.5628
14:43:09.785,37.5314,68.6253
14:43:09.791,34.7814,63.1252
14:43:09.803,32.3439,57.1252
14:43:09.814,28.8126,51.1252
14:43:09.821,26.4064,45.1877
14:43:09.831,22.8438,39.3752
14:43:09.842,19.6563,34.9376
14:43:09.851,17.7188,29.6876
14:43:09.862,15.1563,24.3751
14:43:09.872,13.3126,19.3751
14:43:09.881,10.4063,15.4376
14:43:09.892,9.6563,11.4375
14:43:09.902,7.1875,7.875
14:43:09.911,6.875,5.375
14:43:09.921,5.3438,3.5625
14:43:09.931,5.4063,2.25
14:43:09.942,5.5,1.3125
14:43:09.951,5.75,3.625
14:43:09.962,7.3125,3.9375
14:43:09.971,8.5938,7.625
14:43:09.982,10.4375,9.5625
14:43:09.992,11.1875,13
14:43:10.001,13.2188,15.3126
14:43:10.013,13.0313,17.5626
14:43:10.021,14.1251,17.5001
14:43:10.032,13.3438,18.6876
14:43:10.042,13.1563,16.8751
14:43:10.052,11.5,16.6251
14:43:10.061,10.7188,13.5626
14:43:10.079,9.25,11.6875
14:43:10.083,8.3438,8.5
14:43:10.092,5.875,6.3125
14:43:10.117,5.0625,2.9375
14:43:10.119,2.875,-0.0625
14:43:10.123,1.2188,-3.4375
14:43:10.133,0.125,-6.75
14:43:10.142,-1.5938,-10.25
14:43:10.152,-3.5,-11.9375
14:43:10.161,-4.3125,-15.3126
14:43:10.171,-6.5313,-16.9376
14:43:10.182,-7.625,-20.3126
14:43:10.191,-9.0938,-21.6876
14:43:10.205,-9.875,-22.8126
14:43:10.233,-10.5938,-24.7501
14:43:10.237,-11.9688,-26.6251
14:43:10.240,-12.125,-27.7501
14:43:10.243,-12.9375,-28.9376
14:43:10.279,-13.5626,-30.4376
14:43:10.281,-14.0001,-30.7501
14:43:10.287,-14.4688,-32.1876
14:43:10.287,-15.3126,-32.6251
14:43:10.294,-15.5001,-33.8751
14:43:10.323,-15.7813,-32.8751
14:43:10.325,-16.0001,-34.1876
14:43:10.329,-15.9688,-34.1876
14:43:10.334,-15.9063,-34.9376
14:43:10.359,-16.6251,-34.9376
14:43:10.362,-16.1876,-36.1251
14:43:10.364,-16.5938,-35.2501
14:43:10.378,-16.5313,-35.9376
14:43:10.383,-16.8438,-37.0001
14:43:10.392,-17.0313,-36.0626
14:43:10.401,-17.0313,-36.9376
14:43:10.412,-17.3438,-37.0626
14:43:10.422,-17.2813,-37.7501
14:43:10.432,-17.4376,-38.2501
14:43:10.442,-17.7501,-38.0626
14:43:10.453,-17.8126,-38.2501
14:43:10.461,-17.8126,-38.2501
14:43:10.472,-17.1563,-37.8751
14:43:10.482,-15.8751,-36.5001
14:43:10.492,-13.8751,-34.8126
14:43:10.502,-8.8125,-29.6876
14:43:10.512,-2.0313,-20.2501
14:43:10.522,9.5,-0.75
14:43:10.541,23.0001,28.3126
14:43:10.544,33.7501,53.3752
14:43:10.559,41.3127,70.5628
14:43:10.561,44.9377,80.8753
14:43:10.572,47.4064,86.1878
14:43:10.582,47.8752,88.4378
14:43:10.592,47.5627,88.4378
14:43:10.601,46.6252,86.2503
14:43:10.611,44.6252,84.3128
14:43:10.622,42.6877,79.3753
14:43:10.632,40.2814,75.5003
14:43:10.642,37.7814,69.8128
14:43:10.651,34.6876,65.1252
14:43:10.663,32.3751,59.6877
14:43:10.671,29.5001,54.0002
14:43:10.682,27.6564,48.9377
14:43:10.691,24.7188,43.4377
14:43:10.701,22.0001,38.5001
14:43:10.711,19.7813,34.2501
14:43:10.722,17.4688,30.1251
14:43:10.732,15.0313,25.5001
14:43:10.741,13.1251,21.8126
14:43:10.752,11.0313,17.2501
14:43:10.761,9.5938,14.3126
14:43:10.773,8.4375,11.1875
14:43:10.782,7.8125,9
14:43:10.791,7.3438,8.125
14:43:10.802,7.2813,8
14:43:10.811,7.375,8.625
14:43:10.828,8.8438,9
14:43:10.837,9.5938,11.125
14:43:10.848,10.6875,13.6251
14:43:10.858,11.875,15.6251
14:43:10.866,12.6563,17.8751
14:43:10.876,12.9063,18.8751
14:43:10.886,13.8126,19.2501
14:43:10.907,13.0938,19.2501
14:43:10.909,13.1876,18.7501
14:43:10.918,12.0938,17.1251
14:43:10.950,10.4375,15.5001
14:43:10.952,9.1875,13.1251
14:43:10.956,7.7188,10.25
14:43:10.959,6.0313,7.6875
14:43:10.996,4.375,4.4375
14:43:10.997,3.3438,0.9375
14:43:11.000,0.2813,-3.0625
14:43:11.026,-1.3438,-6.4375
14:43:11.027,-2.8438,-9.5
14:43:11.028,-4.1875,-12.1875
14:43:11.031,-6.125,-14.9376
14:43:11.041,-6.7813,-17.8126
14:43:11.048,-7.7813,-20.1251
14:43:11.078,-9.4688,-22.0626
14:43:11.081,-10.5313,-23.6251
14:43:11.083,-11.4063,-25.6876
14:43:11.088,-12.5,-26.6251
14:43:11.097,-13.5626,-27.8126
14:43:11.107,-14.4376,-30.0001
14:43:11.116,-14.5626,-31.5626
14:43:11.127,-15.2501,-32.0626
14:43:11.137,-15.7188,-33.7501
14:43:11.147,-16.6876,-34.1251
14:43:11.158,-16.3438,-34.1251
14:43:11.167,-16.6876,-35.5626
14:43:11.176,-17.4063,-35.5001
14:43:11.187,-17.0626,-36.0626
14:43:11.204,-17.9688,-36.3751
14:43:11.207,-17.5001,-37.1251
14:43:11.220,-18.0001,-37.8126
14:43:11.226,-18.5313,-37.3126
14:43:11.237,-19.0626,-37.9376
14:43:11.247,-19.2188,-39.0001
14:43:11.257,-19.4688,-38.3126
14:43:11.267,-19.2813,-40.0627
14:43:11.276,-19.3438,-39.1877
14:43:11.286,-19.4376,-39.8752
14:43:11.297,-19.6876,-39.3127
14:43:11.307,-19.4063,-40.0002
14:43:11.317,-19.9688,-39.6877
14:43:11.326,-19.5313,-40.6252
14:43:11.336,-20.3438,-40.5627
14:43:11.347,-20.4063,-40.7502
14:43:11.356,-20.7813,-40.9377
14:43:11.366,-20.1563,-41.0627
14:43:11.398,-20.0313,-40.2502
14:43:11.399,-18.6251,-39.5627
14:43:11.402,-17.0938,-37.5626
14:43:11.407,-13.2501,-34.0001
14:43:11.416,-6.125,-26.3751
14:43:11.427,3.4063,-10
14:43:11.439,16.9376,17.6251
14:43:11.447,28.9689,44.9377
14:43:11.456,37.4064,66.0003
14:43:11.466,42.6877,76.8128
14:43:11.476,45.2189,83.3753
14:43:11.486,45.8439,86.0628
14:43:11.496,45.5314,87.1878
14:43:11.507,44.8752,86.1878
14:43:11.516,42.8439,83.0003
14:43:11.527,41.1252,79.0628
14:43:11.537,38.3751,74.5628
14:43:11.547,35.3439,69.9378
14:43:11.557,32.7814,63.9377
14:43:11.566,29.1251,58.0627
14:43:11.578,26.6251,51.7502
14:43:11.587,23.5626,45.5627
14:43:11.597,20.7188,41.9377
14:43:11.606,17.9688,35.8751
14:43:11.648,15.5313,30.6876
14:43:11.649,12.8438,26.0626
14:43:11.652,10.3125,21.0001
14:43:11.654,7.6563,16.7501
14:43:11.657,4.7188,11.875
14:43:11.689,2.5625,9.0625
14:43:11.691,0.6875,5.0625
14:43:11.693,-1,2.9375
14:43:11.700,-1.4688,1.5625
14:43:11.724,-2.8125,0.6875
14:43:11.726,-2.7188,0.8125
14:43:11.728,-3.375,2.25
14:43:11.757,-2.1875,4.1875
14:43:11.758,-2.7188,7.0625
14:43:11.761,-1.7188,9.5
14:43:11.766,-1.4063,12.5
14:43:11.797,-1.625,14.3126
14:43:11.797,-2,14.1251
14:43:11.803,-3.5938,14.7501
14:43:11.807,-6.2813,13.6251
14:43:11.816,-10.875,11.0625
14:43:11.838,-16.1876,9.6875
14:43:11.840,-21.3438,7
14:43:11.857,-26.5314,4.125
14:43:11.859,-35.8751,-0.875
14:43:11.868,-44.6564,-6.375
14:43:11.876,-51.4377,-12.8125
14:43:11.887,-58.844,-18.6876
14:43:11.897,-65.3127,-21.8751
14:43:11.907,-72.1565,-27.8751
14:43:11.917,-81.5941,-34.9376
14:43:11.927,-93.2816,-42.0002
14:43:11.937,-101.3441,-49.5627
14:43:11.953,-106.6254,-54.0002
14:43:11.958,-111.3129,-56.1877
14:43:11.966,-118.9692,-63.0002
14:43:11.977,-127.2817,-68.3128
14:43:11.987,-147.9693,-87.5628
14:43:11.997,-155.7818,-94.7504
14:43:12.007,-161.3756,-97.4379
14:43:12.017,-169.5006,-103.6254
14:43:12.027,-180.9695,-112.1254
14:43:12.037,-190.3757,-118.563
14:43:12.048,-192.3445,-122.6255
14:43:12.056,-192.3132,-120.5005
14:43:12.068,-191.1882,-118.7505
14:43:12.076,-190.407,-116.9379
14:43:12.087,-188.3757,-116.1254
14:43:12.097,-187.0632,-114.8129
14:43:12.107,-184.8757,-111.1879
14:43:12.116,-183.532,-111.3129
14:43:12.127,-181.2194,-110.8129
14:43:12.137,-179.8132,-108.8754
14:43:12.146,-177.9069,-109.3754
14:43:12.157,-176.6257,-107.3129
14:43:12.166,-174.2819,-106.8754
14:43:12.177,-171.5632,-106.4379
14:43:12.187,-168.9069,-105.2504
14:43:12.197,-167.3444,-105.1879
14:43:12.207,-165.5631,-104.0629
14:43:12.217,-163.9069,-105.4379
14:43:12.227,-162.4381,-104.2504
14:43:12.236,-161.0944,-106.0629
14:43:12.246,-160.2819,-105.8129
14:43:12.257,-158.7819,-106.0004
14:43:12.269,-157.6256,-106.8129
14:43:12.277,-155.6881,-107.4379
14:43:12.287,-151.7506,-104.3129
14:43:12.296,-147.0943,-101.1254
14:43:12.308,-138.6255,-90.8754
14:43:12.316,-127.313,-77.6253
14:43:12.328,-113.6254,-58.5627
14:43:12.337,-100.6254,-40.4377
14:43:12.357,-88.6566,-22.0626
14:43:12.363,-79.5003,-7.75
14:43:12.379,-70.9378,5.5625
14:43:12.380,-64.7815,15.3751
14:43:12.387,-60.3752,21.9376
14:43:12.396,-57.7502,28.1876
14:43:12.407,-55.1877,30.5626
14:43:12.417,-55.219,32.6876
14:43:12.427,-55.5627,30.6251
14:43:12.436,-55.5627,29.4376
14:43:12.458,-57.844,27.0626
14:43:12.460,-59.219,22.8751
14:43:12.498,-62.3127,18.8751
14:43:12.502,-64.5315,14.1251
14:43:12.505,-66.6565,10.3125
14:43:12.505,-68.844,6.3125
14:43:12.507,-70.469,1.8125
14:43:12.535,-72.0315,-1.0625
14:43:12.539,-73.4378,-4.9375
14:43:12.540,-75.0315,-9.25
14:43:12.571,-76.3753,-13.6876
14:43:12.572,-78.1878,-16.8126
14:43:12.576,-79.0628,-19.8126
14:43:12.582,-79.7816,-23.0626
14:43:12.589,-79.3128,-24.1251
14:43:12.620,-79.5003,-24.8126
14:43:12.622,-78.2815,-24.6876
14:43:12.623,-76.8753,-24.9376
14:43:12.627,-75.3128,-23.3126
14:43:12.638,-72.6565,-20.5626
14:43:12.647,-69.719,-18.0001
14:43:12.679,-67.844,-15.7501
14:43:12.681,-66.1565,-14.0001
14:43:12.683,-64.1877,-11.4375
14:43:12.688,-62.9065,-11.0625
14:43:12.704,-61.4065,-10.5
14:43:12.709,-61.094,-10.3125
14:43:12.718,-60.2502,-10.5
14:43:12.727,-60.719,-11.875
14:43:12.736,-60.7502,-12.75
14:43:12.747,-61.719,-14.3126
14:43:12.757,-61.6877,-16.0626
14:43:12.767,-62.6877,-17.6251
14:43:12.777,-63.4065,-20.3126
14:43:12.787,-64.1877,-23.0626
14:43:12.797,-65.5628,-24.8126
14:43:12.807,-66.594,-28.4376
14:43:12.817,-68.0315,-30.6251
14:43:12.826,-68.7815,-34.6876
14:43:12.836,-70.0628,-36.2501
14:43:12.848,-70.7815,-39.3127
14:43:12.857,-72.344,-40.6877
14:43:12.866,-72.469,-42.6252
14:43:12.877,-72.094,-45.2502
14:43:12.886,-72.219,-45.4377
14:43:12.898,-72.4065,-47.8127
14:43:12.906,-72.2815,-48.1877
14:43:12.916,-72.1253,-49.6877
14:43:12.927,-71.5315,-50.3127
14:43:12.936,-71.2503,-51.5627
14:43:12.947,-71.219,-51.8752
14:43:12.958,-70.969,-53.3127
14:43:12.967,-70.8128,-53.5627
14:43:12.977,-69.594,-54.3127
14:43:12.988,-69.4065,-53.1877
14:43:12.997,-68.469,-54.0002
14:43:13.007,-67.5003,-55.0002
14:43:13.017,-67.5315,-54.6252
14:43:13.027,-68.094,-56.2502
14:43:13.036,-67.9378,-55.7502
14:43:13.047,-67.3753,-56.3752
14:43:13.057,-67.219,-56.6877
14:43:13.066,-66.344,-56.3752
14:43:13.078,-65.4378,-56.7502
14:43:13.087,-65.8753,-57.2502
14:43:13.097,-64.7815,-57.3127
14:43:13.159,-63.7815,-55.6252
14:43:13.161,-59.4065,-52.2502
14:43:13.163,-52.8127,-44.5627
14:43:13.164,-42.3752,-30.0001
14:43:13.194,-28.8439,-8.1875
14:43:13.196,-16.0626,12
14:43:13.196,-6.2188,30.3751
14:43:13.198,2.6563,43.5002
14:43:13.200,8.3125,54.4377
14:43:13.207,11.5938,61.7502
14:43:13.212,13.5001,66.9378
14:43:13.241,14.7813,69.1878
14:43:13.244,14.9376,69.8128
14:43:13.245,13.4688,68.8128
14:43:13.254,11.6875,65.2502
14:43:13.278,9.5938,62.4377
14:43:13.280,6.5938,58.6877
14:43:13.283,4.125,53.1877
14:43:13.292,1.0313,48.1252
14:43:13.301,-1.5,42.7502
14:43:13.312,-5.0625,38.1876
14:43:13.321,-7.7188,33.1876
14:43:13.332,-10.9375,27.1251
14:43:13.342,-15.9688,18.8751
14:43:13.351,-19.7501,11.875
14:43:13.362,-22.3751,7
14:43:13.372,-24.4063,1.875
14:43:13.382,-26.2188,-2.1875
14:43:13.392,-27.7189,-5
14:43:13.401,-28.2189,-6.75
14:43:13.412,-28.0626,-7.625
14:43:13.421,-26.6876,-6.6875
14:43:13.432,-25.0938,-4.625
14:43:13.442,-22.7188,-2.6875
14:43:13.458,-20.8126,0.375
14:43:13.462,-18.8438,3.625
14:43:13.471,-16.1563,6.8125
14:43:13.481,-15.3126,8.5
14:43:13.492,-14.6563,10.4375
14:43:13.501,-13.9688,10.8125
14:43:13.511,-14.1563,9.625
14:43:13.521,-15.0626,9.625
14:43:13.532,-16.1251,7.6875
14:43:13.541,-17.7501,5.3125
14:43:13.552,-18.1876,4.1875
14:43:13.563,-20.2501,0.75
14:43:13.571,-21.2501,-1.1875
14:43:13.582,-22.8126,-4.8125
14:43:13.592,-25.5001,-7.1875
14:43:13.601,-26.6876,-11.3125
14:43:13.612,-28.6251,-15.0001
14:43:13.622,-29.9689,-17.5001
14:43:13.631,-31.3439,-20.7501
14:43:13.642,-33.6251,-23.6251
14:43:13.658,-34.7814,-27.0001
14:43:13.665,-36.4689,-29.5001
14:43:13.673,-37.9376,-31.6251
14:43:13.681,-39.0001,-34.6251
14:43:13.696,-40.1564,-37.8126
14:43:13.705,-40.7814,-38.1876
14:43:13.711,-41.0314,-40.4377
14:43:13.722,-41.9064,-41.3127
14:43:13.731,-41.6877,-43.1877
14:43:13.741,-42.1877,-43.4377
14:43:13.752,-41.6877,-44.1252
14:43:13.762,-41.5314,-44.8127
14:43:13.772,-41.5627,-44.5002
14:43:13.781,-41.5314,-45.2502
14:43:13.792,-40.7189,-45.4377
14:43:13.802,-41.2189,-44.3127
14:43:13.832,-39.8752,-46.0002
14:43:13.834,-40.0314,-44.9377
14:43:13.836,-40.1252,-45.8127
14:43:13.842,-40.4689,-45.1877
14:43:13.874,-39.5939,-46.1877
14:43:13.876,-39.4064,-45.3752
14:43:13.878,-37.1251,-44.2502
14:43:13.883,-33.3439,-39.0627
14:43:13.911,-25.5938,-32.5001
14:43:13.913,-14.8126,-15.9376
14:43:13.916,0.25,6.5
14:43:13.923,15.4376,30.9376
14:43:13.957,24.8126,50.0002
14:43:13.961,33.5939,66.5003
14:43:13.962,40.7814,80.0003
14:43:13.964,45.6252,90.3753
14:43:13.993,48.3127,96.5004
14:43:13.996,49.0314,100.6879
14:43:13.998,49.2502,101.6879
14:43:14.002,47.5627,102.5629
14:43:14.012,46.3439,99.6879
14:43:14.021,43.8439,98.6254
14:43:14.032,41.4377,94.7504
14:43:14.042,37.5939,91.3129
14:43:14.051,35.2814,85.9378
14:43:14.062,31.5001,82.0628
14:43:14.072,29.4064,76.5628
14:43:14.082,26.0938,72.5628
14:43:14.092,23.5001,67.6253
14:43:14.101,20.1876,62.3752
14:43:14.112,16.7813,57.3752
14:43:14.122,14.4063,52.9377
14:43:14.132,10.9688,48.2502
14:43:14.142,9.3438,44.4377
14:43:14.151,6.75,41.2502
14:43:14.162,5.125,38.5001
14:43:14.172,4.4688,36.5001
14:43:14.182,4.6563,35.1876
14:43:14.192,5.7188,36.3126
14:43:14.202,7.2813,37.3751
14:43:14.212,8.3125,39.2501
14:43:14.222,10.6563,41.5002
14:43:14.231,11.9063,43.8127
14:43:14.242,13.8438,45.7502
14:43:14.252,15.0938,47.9377
14:43:14.262,14.5938,47.7502
14:43:14.273,14.8751,47.4377
14:43:14.282,14.6876,46.8752
14:43:14.292,14.2501,45.5627
14:43:14.302,13.3751,44.1877
14:43:14.312,11.7813,42.0002
14:43:14.322,10.4375,39.5002
14:43:14.332,8.2813,37.0626
14:43:14.342,6.1875,33.7501
14:43:14.352,4.3438,30.8126
14:43:14.362,2.4375,26.5626
14:43:14.372,0.875,24.0001
14:43:14.381,-0.8125,20.6876
14:43:14.392,-3.875,16.6876
14:43:14.402,-4.7188,13.5626
14:43:14.411,-7.125,10.5625
14:43:14.431,-9.2188,5.9375
14:43:14.433,-11.375,2.375
14:43:14.448,-13.8438,-1.4375
14:43:14.464,-15.7188,-4.25
14:43:14.467,-17.2501,-7.5625
14:43:14.481,-19.1563,-10.125
14:43:14.484,-19.5313,-11.4375
14:43:14.491,-19.7188,-13.1876
14:43:14.502,-21.0313,-14.9376
14:43:14.511,-21.6876,-16.1876
14:43:14.522,-22.4376,-18.8126
14:43:14.531,-22.4063,-19.8751
14:43:14.541,-23.2813,-21.1251
14:43:14.551,-24.6251,-22.6876
14:43:14.562,-24.8438,-24.1876
14:43:14.571,-26.3126,-25.9376
14:43:14.581,-26.1876,-27.1876
14:43:14.591,-27.4689,-28.3751
14:43:14.601,-26.8126,-29.7501
14:43:14.611,-28.5001,-31.3126
14:43:14.621,-27.3439,-32.3751
14:43:14.645,-27.9689,-32.3126
14:43:14.650,-25.4688,-30.7501
14:43:14.653,-19.9376,-24.0626
14:43:14.683,-11.1563,-12.6875
14:43:14.685,1.5938,7.0625
14:43:14.688,14.0001,28.3126
14:43:14.692,24.3126,47.0627
14:43:14.725,34.1251,63.5627
14:43:14.727,40.8439,77.6878
14:43:14.729,45.8127,87.4378
14:43:14.736,49.0939,96.0004
14:43:14.741,51.0002,101.0629
14:43:14.769,51.8752,105.5004
14:43:14.772,50.5939,105.8129
14:43:14.774,50.1877,106.5629
14:43:14.805,47.9689,106.2504
14:43:14.808,46.1877,103.1879
14:43:14.814,43.0002,101.0004
14:43:14.814,40.6877,97.3129
14:43:14.828,37.7814,95.1879
14:43:14.837,35.7501,91.1254
14:43:14.847,33.1564,87.6878
14:43:14.857,30.9376,84.6253
14:43:14.867,27.3439,79.4378
14:43:14.878,25.2188,77.2503
14:43:14.886,24.4376,74.3753
14:43:14.899,21.5001,70.8128
14:43:14.907,19.7188,67.2503
14:43:14.917,17.1251,64.2502
14:43:14.926,15.3751,60.6877
14:43:14.936,13.5626,57.9377
14:43:14.947,11.9063,57.0002
14:43:14.956,11.9063,54.8752
14:43:14.967,12.0625,55.1252
14:43:14.982,12.875,56.5002
14:43:14.990,13.9376,56.9377
14:43:14.997,15.3126,61.3127
14:43:15.014,15.5626,61.4377
14:43:15.020,16.2813,62.1877
14:43:15.028,16.3438,62.2502
14:43:15.037,16.3751,62.5627
14:43:15.047,15.6251,60.6252
14:43:15.056,13.6876,59.5627
14:43:15.067,12.8438,57.8127
14:43:15.077,10.8438,55.4377
14:43:15.086,9.4688,52.7502
14:43:15.097,7.375,50.5627
14:43:15.106,4.875,46.3752
14:43:15.117,2.6875,43.6252
14:43:15.127,1,39.7502
14:43:15.136,-1.6875,36.5001
14:43:15.146,-2.875,34.1251
14:43:15.157,-5.1875,30.4376
14:43:15.167,-6.75,27.4376
14:43:15.176,-8.2188,24.1251
14:43:15.187,-9.2813,21.8751
14:43:15.197,-10.5313,19.5001
14:43:15.207,-11.5313,16.0001
14:43:15.238,-13.0625,13.6876
14:43:15.240,-14.0626,11.9375
14:43:15.242,-15.2501,9.0625
14:43:15.248,-16.4063,6.9375
14:43:15.256,-17.1563,5.9375
14:43:15.267,-17.4063,3
14:43:15.276,-18.2813,2.25
14:43:15.286,-17.8126,1.25
14:43:15.297,-18.5313,-1.4375
14:43:15.312,-19.3126,-1.875
14:43:15.317,-18.2813,-3.625
14:43:15.344,-19.1876,-3.5625
14:43:15.347,-18.7188,-6.25
14:43:15.349,-20.4376,-7.0625
14:43:15.381,-21.0626,-10.625
14:43:15.382,-22.0626,-11
14:43:15.385,-22.9063,-13.7501
14:43:15.387,-24.2813,-15.3126
14:43:15.420,-25.1251,-18.1876
14:43:15.422,-26.8439,-19.2501
14:43:15.424,-26.0626,-20.8126
14:43:15.430,-25.3438,-19.1251
14:43:15.438,-21.2501,-15.4376
14:43:15.471,-15.3126,-5.6875
14:43:15.472,-6.8125,6.75
14:43:15.474,1,22.0626
14:43:15.477,9.1563,35.5626
14:43:15.488,17.2188,49.3752
14:43:15.496,21.5938,59.9377
14:43:15.506,26.6564,69.9378
14:43:15.517,29.4376,77.3753
14:43:15.526,30.5939,82.0628
14:43:15.537,31.6564,85.0628
14:43:15.546,30.2189,87.4378
14:43:15.557,29.4064,85.7503
14:43:15.567,27.5001,85.5003
14:43:15.579,25.6251,82.3128
14:43:15.589,23.6876,81.1878
14:43:15.597,21.8751,77.7503
14:43:15.607,20.0938,74.6878
14:43:15.617,18.9063,73.3753
14:43:15.626,17.7188,71.0003
14:43:15.637,17.0626,69.8753
14:43:15.646,15.4376,66.8753
14:43:15.657,13.9063,64.6877
14:43:15.667,12.2188,62.0002
14:43:15.676,10.1563,59.9377
14:43:15.687,8.2813,55.9377
14:43:15.696,5.7813,52.7502
14:43:15.707,4.6563,49.9377
14:43:15.717,2.5,47.8127
14:43:15.726,2.0625,46.5627
14:43:15.749,0.9375,44.2502
14:43:15.750,0.1563,44.6252
14:43:15.759,0.875,43.0002
14:43:15.768,-0.125,43.1877
14:43:15.781,-0.2813,42.8127
14:43:15.791,0.2813,43.3127
14:43:15.796,0.6875,43.6877
14:43:15.808,0.75,44.2502
14:43:15.817,-0.0938,45.1877
14:43:15.826,0.1875,44.0627
14:43:15.836,-1.0313,42.6252
14:43:15.847,-2.6875,41.7502
14:43:15.857,-3.4688,40.5002
14:43:15.867,-4.0938,38.1876
14:43:15.877,-5.375,36.8751
14:43:15.887,-6.6875,35.6876
14:43:15.897,-8.4688,32.9376
14:43:15.906,-9.1875,30.0626
14:43:15.917,-11.0625,27.5626
14:43:15.927,-12.7813,25.8751
14:43:15.936,-13.9376,23.3751
14:43:15.947,-14.6563,20.3751
14:43:15.956,-16.6563,16.8751
14:43:15.966,-18.4063,14.6876
14:43:15.977,-19.6563,11.9375
14:43:15.987,-20.5938,8.375
14:43:15.997,-22.4688,6.375
14:43:16.006,-23.5626,4
14:43:16.016,-24.8438,1
14:43:16.053,-26.6564,-1.6875
14:43:16.056,-27.1251,-4
14:43:16.058,-29.2814,-6.0625
14:43:16.063,-30.6251,-8
14:43:16.070,-31.2189,-10.125
14:43:16.096,-32.4064,-11.25
14:43:16.098,-32.7814,-13.3126
14:43:16.101,-32.9064,-15.1251
14:43:16.107,-33.5001,-15.0001
14:43:16.135,-33.6251,-16.9376
14:43:16.138,-34.3439,-17.9376
14:43:16.140,-34.5001,-18.8126
14:43:16.147,-35.1564,-20.2501
14:43:16.156,-35.5314,-21.6251
14:43:16.190,-36.3126,-22.6251
14:43:16.193,-37.0314,-23.9376
14:43:16.194,-37.5626,-25.8126
14:43:16.197,-38.6876,-28.1251
14:43:16.212,-38.5001,-30.2501
14:43:16.217,-39.1251,-30.8126
14:43:16.226,-38.6876,-30.8751
14:43:16.237,-36.9376,-29.5001
14:43:16.247,-32.8439,-25.9376
14:43:16.256,-25.9688,-17.1251
14:43:16.266,-18.4376,-3.6875
14:43:16.276,-9.8438,9.625
14:43:16.287,-1.5,23.6251
14:43:16.303,3.9375,35.0001
14:43:16.309,9.4688,45.0627
14:43:16.318,13.1563,54.1252
14:43:16.332,15.2188,58.6877
14:43:16.347,16.1251,62.1877
14:43:16.349,15.3126,64.1252
14:43:16.360,14.3751,62.6252
14:43:16.367,11.7813,61.5002
14:43:16.376,9,57.4377
14:43:16.387,7.2188,54.3752
14:43:16.397,3.3125,50.6877
14:43:16.407,0.3438,45.6252
14:43:16.417,-2.0938,42.6877
14:43:16.427,-4.8438,39.6877
14:43:16.436,-6.3438,35.8751
14:43:16.446,-8.6875,33.3126
14:43:16.456,-11.2188,30.1876
14:43:16.467,-13.4688,26.1876
14:43:16.476,-15.3126,22.6251
14:43:16.487,-17.4063,18.1876
14:43:16.517,-20.1876,14.8751
14:43:16.521,-20.9376,11.6875
14:43:16.522,-22.5313,10.1875
14:43:16.527,-22.5938,8.875
14:43:16.538,-22.8438,8.5
14:43:16.547,-22.2188,9.0625
14:43:16.556,-21.0626,9
14:43:16.567,-20.0626,11
14:43:16.576,-17.6876,13.2501
14:43:16.587,-16.6563,15.9376
14:43:16.596,-14.6563,16.6876
14:43:16.607,-14.2813,18.6876
14:43:16.617,-13.3438,18.8126
14:43:16.627,-12.75,20.3751
14:43:16.636,-12.9375,19.5626
14:43:16.647,-13.2188,19.8751
14:43:16.657,-13.1563,18.8126
14:43:16.667,-14.9063,17.4376
14:43:16.677,-16.0626,17.0626
14:43:16.686,-16.4376,15.1251
14:43:16.696,-17.0938,12.75
14:43:16.707,-18.7813,11
14:43:16.717,-20.0938,8.5
14:43:16.727,-21.9063,6.0625
14:43:16.737,-23.5001,4.25
14:43:16.747,-24.9376,0.375
14:43:16.757,-27.2814,-1.5
14:43:16.785,-28.6876,-4.0625
14:43:16.787,-30.8751,-7.625
14:43:16.789,-31.3439,-8.875
14:43:16.797,-30.9376,-9.4375
14:43:16.828,-32.1251,-10.375
14:43:16.830,-32.2501,-12.25
14:43:16.833,-33.0626,-13.1876
14:43:16.838,-32.7189,-14.6876
14:43:16.867,-34.5626,-15.8126
14:43:16.868,-34.3751,-16.2501
14:43:16.871,-34.8126,-17.0626
14:43:16.896,-34.8439,-16.8751
14:43:16.898,-33.9689,-18.2501
14:43:16.900,-34.8751,-19.1251
14:43:16.907,-34.6876,-19.5001
14:43:16.921,-35.7501,-21.2501
14:43:16.928,-35.5939,-22.5001
14:43:16.945,-37.0314,-24.6251
14:43:16.949,-37.6564,-25.3751
14:43:16.956,-38.5626,-28.6251
14:43:16.966,-40.0939,-29.5626
14:43:16.977,-40.9377,-32.5626
14:43:16.987,-41.9377,-34.2501
14:43:16.997,-41.8127,-34.8751
14:43:17.007,-40.4689,-33.6251
14:43:17.016,-36.2814,-28.1876
14:43:17.026,-31.1251,-19.5626
14:43:17.036,-23.1563,-7.875
14:43:17.045,-15.1563,6
14:43:17.065,-8.1563,18.1876
14:43:17.068,-2.5,30.0001
14:43:17.100,2.75,39.4377
14:43:17.102,6.3125,47.1252
14:43:17.119,8.875,52.6252
14:43:17.121,8.75,55.5627
14:43:17.125,9.3125,56.4377
14:43:17.126,8.6563,57.0002
14:43:17.136,7.3438,54.2502
14:43:17.147,5.7813,53.0627
14:43:17.156,3.8125,48.8127
14:43:17.167,2.4688,46.2502
14:43:17.175,0.7188,43.4377
14:43:17.187,-0.125,39.1251
14:43:17.197,-2.0625,36.7501
14:43:17.207,-2.9375,32.6251
14:43:17.216,-4.75,28.8751
14:43:17.227,-6.0625,26.2501
14:43:17.236,-7.5313,22.5626
14:43:17.247,-9.7813,18.1251
14:43:17.256,-12.5,13.3126
14:43:17.266,-14.6563,10.625
14:43:17.277,-16.1251,7.375
14:43:17.286,-16.6251,4.9375
14:43:17.297,-17.5001,4.5
14:43:17.306,-18.0626,3.3125
14:43:17.317,-17.8438,3.75
14:43:17.326,-16.8438,5.3125
14:43:17.337,-16.2501,6.875
14:43:17.346,-15.4376,8.4375
14:43:17.357,-16.0626,9.0625
14:43:17.367,-15.7501,9.375
14:43:17.376,-15.4376,11.25
14:43:17.386,-15.5313,11.0625
14:43:17.396,-16.0626,11.875
14:43:17.406,-16.2501,10.3125
14:43:17.417,-17.5313,8.9375
14:43:17.426,-18.6563,7.5625
14:43:17.436,-18.9376,6.0625
14:43:17.447,-20.3126,4.375
14:43:17.458,-21.6563,3.25
14:43:17.468,-22.4688,0.3125
14:43:17.476,-23.7813,-1.25
14:43:17.487,-24.2501,-3.125
14:43:17.496,-25.0626,-6.25
14:43:17.506,-25.7813,-8.1875
14:43:17.522,-28.1564,-10.9375
14:43:17.526,-29.5314,-13.8126
14:43:17.558,-29.8439,-15.3126
14:43:17.559,-30.9689,-17.3126
14:43:17.562,-32.7189,-18.9376
14:43:17.566,-32.9376,-21.1876
14:43:17.599,-33.7189,-22.0001
14:43:17.601,-33.2501,-23.5001
14:43:17.603,-33.7814,-25.3126
14:43:17.609,-33.5939,-25.0626
14:43:17.676,-34.1564,-26.4376
14:43:17.676,-34.4064,-26.8751
14:43:17.704,-34.2189,-27.1876
14:43:17.717,-34.4689,-28.0001
14:43:17.717,-34.6564,-29.1251
14:43:17.717,-35.1564,-29.6876
14:43:17.718,-35.0939,-30.4376
14:43:17.723,-35.4376,-30.8751
14:43:17.731,-35.0626,-32.0626
14:43:17.742,-35.6251,-32.9376
14:43:17.751,-35.5939,-34.3126
14:43:17.763,-36.0001,-35.1251
14:43:17.771,-35.7501,-36.2501
14:43:17.800,-36.5626,-37.2501
14:43:17.803,-36.8751,-38.6251
14:43:17.805,-36.6251,-39.5002
14:43:17.812,-36.3126,-37.7501
14:43:17.820,-33.3751,-35.8126
14:43:17.836,-28.4376,-29.1876
14:43:17.840,-20.9376,-17.4376
14:43:17.852,-12.125,-3.4375
14:43:17.861,-3.4063,11.4375
14:43:17.871,21.3126,62.3127
14:43:17.881,22.1251,66.5003
14:43:17.892,22.5938,68.3753
14:43:17.901,21.5626,68.5003
14:43:17.911,20.1876,67.9378
14:43:17.920,18.2188,65.2502
14:43:17.932,16.3751,62.6877
14:43:17.942,13.7813,59.5627
14:43:17.951,11.125,56.3752
14:43:17.961,9.375,51.7502
14:43:17.971,6.75,49.1252
14:43:17.982,5.5625,45.6252
14:43:17.993,3.4063,44.1252
14:43:18.002,2.9688,41.1877
14:43:18.012,0.9375,38.7501
14:43:18.022,-0.2188,36.6876
14:43:18.031,-2.0938,33.1876
14:43:18.041,-3.1563,31.0626
14:43:18.053,-5.0313,28.1876
14:43:18.062,-5.2188,25.3751
14:43:18.071,-6.8438,24.0626
14:43:18.081,-7.125,22.2501
14:43:18.091,-6.5938,21.1251
14:43:18.102,-6.6563,21.9376
14:43:18.111,-5.5,21.6876
14:43:18.121,-4.8125,23.3751
14:43:18.132,-3.2813,24.1251
14:43:18.140,-2.4375,24.8751
14:43:18.152,-0.4688,26.1251
14:43:18.161,0.2188,27.6251
14:43:18.170,0.2188,27.4376
14:43:18.180,0.3125,27.4376
14:43:18.191,0.6563,27.8126
14:43:18.202,0.75,27.5001
14:43:18.211,0.5,27.5626
14:43:18.222,-0.625,27.5001
14:43:18.230,-1.0313,25.5001
14:43:18.242,-1.9375,25.5626
14:43:18.250,-3.2813,22.7501
14:43:18.260,-6.9375,19.9376
14:43:18.273,-9,18.1876
14:43:18.307,-10.5313,15.3751
14:43:18.308,-11.5625,15.6876
14:43:18.311,-11.1563,13.0625
14:43:18.313,-11.6875,12.3125
14:43:18.343,-11.6875,13.4376
14:43:18.348,-11.4063,12.0625
14:43:18.353,-11.75,11.125
14:43:18.353,-12.0313,11.5
14:43:18.382,-12.1875,10.375
14:43:18.382,-13.3126,8.3125
14:43:18.413,-14.2501,7.5
14:43:18.455,-13.7188,6.375
14:43:18.456,-15.5001,5.75
14:43:18.456,-15.7813,4.5
14:43:18.470,-15.3751,3.6875
14:43:18.472,-14.4376,5.5625
14:43:18.476,-12.4063,4.875
14:43:18.476,-11.125,5.75
14:43:18.476,-10.5,6.375
14:43:18.481,-10.0313,5.125
14:43:18.490,-9.7188,4.6875
14:43:18.502,-10.0938,3.1875
14:43:18.512,-10.625,2.5625
14:43:18.520,7.375,20.0626
14:43:18.532,20.5313,21.6251
14:43:18.542,40.1877,33.3126
14:43:18.550,49.3127,39.4377
14:43:18.562,55.1565,42.7502
14:43:18.572,59.1252,44.0002
14:43:18.585,61.0002,44.0002
14:43:18.592,66.5628,45.0002
14:43:18.601,75.0315,48.9377
14:43:18.612,82.0941,53.6877
14:43:18.623,88.8128,58.9377
14:43:18.632,94.4379,66.1878
14:43:18.642,118.7505,96.8129
14:43:18.652,133.0943,115.5004
14:43:18.660,141.6568,128.5005
14:43:18.671,147.4068,139.8755
14:43:18.682,151.5006,147.1255
14:43:18.690,154.2193,152.3756
14:43:18.701,157.6569,159.0006
14:43:18.710,159.0006,158.3756
14:43:18.721,158.0631,158.4381
14:43:18.730,157.0006,157.6256
14:43:18.742,155.6256,153.4381
14:43:18.751,153.9693,150.8756
14:43:18.762,153.4068,147.2506
14:43:18.772,151.5943,143.938
14:43:18.781,151.7506,140.188
14:43:18.791,152.9381,137.3755
14:43:18.801,153.1256,134.6255
14:43:18.811,152.9068,132.188
14:43:18.821,151.6881,129.0005
14:43:18.832,151.1881,125.938
14:43:18.841,148.5631,123.063
14:43:18.851,146.8756,118.563
14:43:18.860,143.7818,113.6254
14:43:18.871,141.7193,109.2504
14:43:18.886,138.9068,104.6254
14:43:18.897,137.1255,101.0004
14:43:18.907,135.9693,97.0629
14:43:18.916,134.4068,94.5629
14:43:18.925,133.563,91.5004
14:43:18.937,132.9693,90.9379
14:43:18.945,131.9693,89.8128
14:43:18.958,130.938,88.7503
14:43:18.966,129.5317,87.6253
14:43:18.982,128.5005,87.0003
14:43:18.991,127.1567,87.3128
14:43:18.996,125.2192,85.3128
14:43:19.025,123.4067,84.3753
14:43:19.028,120.938,80.5628
14:43:19.044,118.2817,77.9378
14:43:19.046,115.7192,75.1878
14:43:19.048,112.9379,71.6878
14:43:19.079,110.6254,67.6878
14:43:19.080,108.3754,64.8127
14:43:19.083,105.5317,60.5002
14:43:19.114,103.1254,57.5627
14:43:19.114,100.7191,52.5627
14:43:19.117,97.4379,48.5002
14:43:19.141,94.1254,43.3127
14:43:19.142,91.4066,39.4377
14:43:19.145,88.7191,35.1876
14:43:19.152,85.3441,30.7501
14:43:19.157,82.8441,26.8126
14:43:19.178,81.4066,22.0001
14:43:19.180,78.0628,18.6876
14:43:19.186,76.1565,14.5626
14:43:19.196,73.8753,10.625
14:43:19.207,70.6878,6.5
14:43:19.217,68.344,2.75
14:43:19.227,65.6565,-0.375
14:43:19.236,63.219,-2.6875
14:43:19.246,60.9065,-6.1875
14:43:19.256,58.8752,-8.875
14:43:19.267,57.2815,-12.1875
14:43:19.276,54.5315,-13.8751
14:43:19.286,53.469,-16.4376
14:43:19.297,51.6877,-17.5626
14:43:19.307,50.0939,-20.8751
14:43:19.317,48.1252,-22.0001
14:43:19.327,46.8127,-24.3126
14:43:19.340,44.8127,-25.5626
14:43:19.348,44.2502,-28.1251
14:43:19.357,41.8439,-29.5626
14:43:19.366,41.1877,-32.3751
14:43:19.376,39.2814,-33.4376
14:43:19.386,37.9689,-35.9376
14:43:19.396,37.0314,-37.8126
14:43:19.407,35.6876,-40.3127
14:43:19.416,33.7814,-42.4377
14:43:19.427,32.5626,-44.8752
14:43:19.436,31.4376,-46.5002
14:43:19.447,30.9376,-48.5002
14:43:19.456,30.5626,-49.5627
14:43:19.466,32.4376,-47.1877
14:43:19.477,36.3439,-39.6252
14:43:19.487,45.1252,-23.1251
14:43:19.497,57.094,2
14:43:19.506,68.219,26.2501
14:43:19.517,74.1253,44.0627
14:43:19.525,78.4066,54.8127
14:43:19.537,80.1566,62.7502
14:43:19.547,80.7191,67.0628
14:43:19.556,80.5003,68.8753
14:43:19.565,79.4066,68.2503
14:43:19.576,76.969,66.0628
14:43:19.586,74.5315,63.1877
14:43:19.595,71.6565,59.7502
14:43:19.606,69.0003,54.3752
14:43:19.615,65.719,49.6252
14:43:19.626,62.4377,44.5002
14:43:19.636,59.7502,39.6877
14:43:19.645,57.2815,35.0626
14:43:19.657,54.4065,30.5626
14:43:19.666,52.1252,27.1251
14:43:19.695,49.4064,22.7501
14:43:19.700,47.4064,20.3126
14:43:19.702,45.3752,16.3126
14:43:19.707,43.2814,13.0625
14:43:19.743,41.1877,9
14:43:19.772,39.2189,6.0625
14:43:19.806,37.3126,1.9375
14:43:19.808,35.8439,-0.625
14:43:19.844,35.0001,-2.875
14:43:19.844,33.6564,-3.375
14:43:19.858,33.1876,-4.25
14:43:19.864,33.3751,-3.3125
14:43:19.865,33.5001,-1.75
14:43:19.865,33.7501,-1.1875
14:43:19.865,34.0626,0.625
14:43:19.865,33.7814,1.5
14:43:19.880,33.8751,1.5625
14:43:19.886,34.0314,2.1875
14:43:19.895,33.2189,2.125
14:43:19.907,32.2501,0.9375
14:43:19.916,30.8439,0.125
14:43:19.927,30.1564,-2
14:43:19.937,28.2814,-4.625
14:43:19.946,27.1564,-6.375
14:43:19.955,24.9376,-9.1875
14:43:19.967,23.5938,-12.375
14:43:19.978,21.5938,-16.0626
14:43:19.987,20.0938,-19.3126
14:43:19.997,17.8438,-22.7501
14:43:20.005,16.2188,-26.1251
14:43:20.017,13.5626,-29.6876
14:43:20.026,5.1563,-46.7502
14:43:20.035,4.2188,-48.0627
14:43:20.046,3.3438,-50.7502
14:43:20.056,1.6563,-53.5627
14:43:20.065,0.3438,-55.9377
14:43:20.077,-0.875,-56.8752
14:43:20.087,-1.4375,-59.2502
14:43:20.095,-2.4063,-59.8752
14:43:20.106,-3.1875,-61.0627
14:43:20.117,-3.6563,-63.1877
14:43:20.125,-5.0313,-64.6252
14:43:20.137,-5.5938,-64.7502
14:43:20.147,-6.375,-66.7503
14:43:20.157,-6.6875,-66.6253
14:43:20.167,-6.5938,-67.3128
14:43:20.176,-7.75,-68.2503
14:43:20.187,-8.6563,-68.3128
14:43:20.195,-8.5625,-69.5003
14:43:20.207,-9.7188,-69.6878
14:43:20.216,-9.9063,-70.5628
14:43:20.225,-10.7188,-72.3128
14:43:20.236,-12.1563,-73.2503
14:43:20.245,-12.9375,-73.6878
14:43:20.256,-13.2188,-75.2503
14:43:20.267,-14.3438,-74.9378
14:43:20.277,-14.8126,-76.5628
14:43:20.287,-13.2501,-74.6253
14:43:20.296,-10.75,-71.0003
14:43:20.312,-4.3125,-62.0002
14:43:20.317,5.25,-40.7502
14:43:20.328,17.7813,-13.7501
14:43:20.362,29.1251,11.875
14:43:20.364,34.3439,28.1876
14:43:20.379,39.2189,38.2501
14:43:20.381,39.8752,44.6252
14:43:20.385,40.2189,46.4377
14:43:20.387,39.8439,47.4377
14:43:20.395,38.5626,46.2502
14:43:20.407,37.1876,43.4377
14:43:20.415,34.4064,39.7502
14:43:20.427,32.5314,35.2501
14:43:20.446,29.4689,31.3126
14:43:20.449,26.7501,25.1876
14:43:20.477,24.7501,19.6876
14:43:20.479,21.9688,14.6251
14:43:20.480,19.5001,10
14:43:20.486,17.3438,5.75
14:43:20.518,15.4688,1.625
14:43:20.521,13.4063,-2
14:43:20.523,11.5938,-6.3125
14:43:20.527,9.375,-10.875
14:43:20.556,7.375,-15.1251
14:43:20.558,5.1563,-18.8751
14:43:20.561,4.75,-21.1876
14:43:20.565,3.25,-23.2501
14:43:20.582,2.8438,-24.3751
14:43:20.585,2.7813,-23.6876
14:43:20.618,3.75,-22.4376
14:43:20.621,5.2813,-20.8126
14:43:20.623,5.8438,-16.8751
14:43:20.629,7.6563,-14.5626
14:43:20.641,8.3438,-11.3125
14:43:20.648,9.375,-8.8125
14:43:20.655,10.4063,-7.5
14:43:20.666,9.7813,-6.625
14:43:20.676,9.875,-6.625
14:43:20.686,9,-7.1875
14:43:20.696,8.4688,-9
14:43:20.705,7.6563,-10
14:43:20.716,6.5625,-12.9375
14:43:20.726,5.25,-14.8126
14:43:20.735,3.8125,-17.8126
14:43:20.748,2.3125,-20.0001
14:43:20.757,1,-22.9376
14:43:20.768,0,-26.8751
14:43:20.776,-2.0313,-28.6876
14:43:20.785,-2.7813,-32.2501
14:43:20.797,-5.0625,-35.0626
14:43:20.805,-7.0938,-38.3126
14:43:20.817,-8.2188,-42.1877
14:43:20.826,-10,-43.6877
14:43:20.835,-11.0625,-47.7502
14:43:20.847,-12.0313,-50.5002
14:43:20.857,-13.5001,-52.1877
14:43:20.865,-14.3751,-54.8752
14:43:20.876,-15.6563,-56.7502
14:43:20.885,-15.9688,-58.8127
14:43:20.896,-16.9688,-61.0627
14:43:20.906,-17.9063,-60.6252
14:43:20.915,-18.8126,-63.0002
14:43:20.926,-19.5626,-65.0628
14:43:20.936,-19.8126,-65.2502
14:43:20.948,-20.4063,-66.3128
14:43:20.956,-20.3751,-66.7503
14:43:20.965,-20.2501,-67.2503
14:43:20.976,-21.3438,-67.6878
14:43:20.985,-21.5313,-68.6878
14:43:20.996,-22.3126,-69.1878
14:43:21.005,-22.0626,-69.9378
14:43:21.017,-23.0938,-71.1253
14:43:21.025,-23.2188,-71.8753
14:43:21.035,-24.6251,-72.0628
14:43:21.047,-24.1251,-72.8753
14:43:21.055,-24.2501,-72.1878
14:43:21.066,-22.8126,-70.3128
14:43:21.075,-18.5938,-67.0003
14:43:21.085,-11.9375,-54.5002
14:43:21.097,0.75,-31.9376
14:43:21.105,13.8438,0.3125
14:43:21.125,23.6251,22.6876
14:43:21.128,29.0626,37.0001
14:43:21.144,32.4689,46.3752
14:43:21.160,33.7189,51.0002
14:43:21.161,33.8751,53.6252
14:43:21.175,33.2189,52.6252
14:43:21.180,31.6564,50.8752
14:43:21.187,30.3439,47.7502
14:43:21.197,27.7814,44.5002
14:43:21.213,25.3126,39.3752
14:43:21.217,22.9688,33.1876
14:43:21.247,19.8126,28.5626
14:43:21.248,17.3126,22.2501
14:43:21.251,15.0626,17.0626
14:43:21.257,12.6875,11.8125
14:43:21.282,10.9375,6.75
14:43:21.285,8.1563,2.75
14:43:21.287,6.2188,-1.25
14:43:21.317,4.3438,-6.25
14:43:21.319,2.2813,-11.25
14:43:21.321,0.6563,-14.6876
14:43:21.328,-0.8438,-18.0001
14:43:21.363,-2.7188,-21.5001
14:43:21.365,-3.4688,-23.3751
14:43:21.367,-4.0625,-24.5001
14:43:21.373,-3.6875,-23.6876
14:43:21.381,-2.3125,-23.3126
14:43:21.386,-0.7813,-19.6876
14:43:21.401,0.7188,-17.4376
14:43:21.407,2.5625,-12.9375
14:43:21.415,5.1875,-9.25
14:43:21.425,5.7188,-6.1875
14:43:21.437,6.8125,-3.9375
14:43:21.445,7.5625,-3.4375
14:43:21.455,6.8125,-2.625
14:43:21.465,6.3125,-4.1875
14:43:21.475,5.6563,-4.8125
14:43:21.485,5.2188,-7.1875
14:43:21.495,3.875,-9.25
14:43:21.507,2.375,-11
14:43:21.515,1,-14.5626
14:43:21.526,-0.8125,-16.8751
14:43:21.535,-2.125,-21.4376
14:43:21.546,-3.9375,-23.2501
14:43:21.556,-5.0938,-27.6251
14:43:21.566,-6.9688,-29.8751
14:43:21.575,-8.1875,-34.1876
14:43:21.587,-10.25,-37.8751
14:43:21.595,-11.9375,-40.1252
14:43:21.606,-13.5001,-44.0627
14:43:21.638,-14.7813,-46.5627
14:43:21.639,-15.8438,-49.5627
14:43:21.656,-17.4063,-51.3127
14:43:21.660,-17.7813,-53.1877
14:43:21.671,-19.8751,-55.5627
14:43:21.687,-20.9063,-56.8752
14:43:21.688,-21.0001,-59.0627
14:43:21.703,-21.9688,-59.6877
14:43:21.707,-22.2501,-61.5002
14:43:21.709,-23.3126,-61.6252
14:43:21.716,-23.4688,-63.2502
14:43:21.727,-23.7813,-63.6877
14:43:21.735,-23.8126,-64.8127
14:43:21.748,-24.3438,-64.9377
14:43:21.756,-24.6876,-65.6878
14:43:21.766,-24.9688,-65.3753
14:43:21.776,-24.5938,-66.7503
14:43:21.786,-24.9063,-66.1253
14:43:21.796,-25.3751,-67.1253
14:43:21.806,-25.7813,-67.1878
14:43:21.816,-26.2814,-68.3753
14:43:21.827,-26.4376,-69.1878
14:43:21.836,-26.4689,-68.7503
14:43:21.845,-26.0938,-68.1878
14:43:21.857,-25.0938,-66.7503
14:43:21.866,-21.5938,-63.5627
14:43:21.876,-16.4688,-56.6252
14:43:21.885,-5.75,-39.0626
14:43:21.897,9.9688,-7.9375
14:43:21.934,22.3751,24.0001
14:43:21.935,30.7501,42.6252
14:43:21.939,34.1251,54.6877
14:43:21.941,37.1564,59.8127
14:43:21.950,37.3126,64.5002
14:43:21.976,38.0314,64.1877
14:43:21.978,36.3439,63.7502
14:43:21.980,35.2189,59.7502
14:43:22.007,32.7189,56.8127
14:43:22.009,30.9064,51.5627
14:43:22.012,28.0314,46.0627
14:43:22.016,25.6563,40.3127
14:43:22.041,23.0313,34.0626
14:43:22.043,20.6251,29.3126
14:43:22.045,18.0313,22.8126
14:43:22.077,15.9376,19.0626
14:43:22.079,13.5938,13.8751
14:43:22.090,11.6563,10.3125
14:43:22.092,10.0313,5.8125
14:43:22.096,7.9063,2.4375
14:43:22.105,6.5313,-2.3125
14:43:22.115,4.8125,-4.4375
14:43:22.127,3.5,-9.5
14:43:22.137,2.4375,-11.6875
14:43:22.152,1.5625,-12.9375
14:43:22.156,1.5,-15.0001
14:43:22.165,1.625,-14.6251
14:43:22.176,2.9063,-13.1876
14:43:22.185,3.1875,-10.9375
14:43:22.196,4.9375,-7.125
14:43:22.205,6.9063,-5
14:43:22.216,7.875,-0.9375
14:43:22.225,10.0938,0.3125
14:43:22.235,9.7188,2.8125
14:43:22.246,10.5938,3.625
14:43:22.255,10.5,2.6875
14:43:22.266,10.25,2
14:43:22.276,9.25,1.8125
14:43:22.285,8.0625,-0.875
14:43:22.295,6.875,-2.125
14:43:22.305,6.125,-6.375
14:43:22.315,4.3438,-7.75
14:43:22.325,3.0313,-12.0625
14:43:22.337,1.3125,-15.1876
14:43:22.345,0,-19.2501
14:43:22.356,-1.9375,-21.3751
14:43:22.365,-3.2188,-26.1876
14:43:22.375,-5.5313,-29.0001
14:43:22.385,-6.2813,-32.6251
14:43:22.395,-8.2813,-35.5001
14:43:22.405,-9.25,-39.1251
14:43:22.415,-11.2813,-42.0002
14:43:22.425,-12.2813,-44.2502
14:43:22.441,-13.4688,-46.7502
14:43:22.458,-14.5001,-48.4377
14:43:22.460,-15.7188,-51.8752
14:43:22.476,-16.5626,-52.0627
14:43:22.491,-16.9376,-54.5627
14:43:22.494,-17.9688,-56.0627
14:43:22.496,-18.2813,-56.0627
14:43:22.506,-18.5938,-57.5002
14:43:22.515,-19.1251,-57.9377
14:43:22.526,-19.2501,-59.1877
14:43:22.536,-20.1563,-60.3752
14:43:22.546,-20.6251,-60.6877
14:43:22.555,-20.6251,-61.1877
14:43:22.565,-20.5313,-61.1252
14:43:22.576,-21.0313,-60.6252
14:43:22.585,-20.9376,-61.8752
14:43:22.595,-21.5938,-61.8752
14:43:22.605,-21.4688,-61.7502
14:43:22.615,-21.2813,-62.5002
14:43:22.625,-22.0938,-61.8127
14:43:22.635,-22.2188,-62.5002
14:43:22.655,-22.9376,-63.1252
14:43:22.658,-22.5313,-62.3752
14:43:22.685,-22.1876,-62.3752
14:43:22.687,-22.0313,-62.0002
14:43:22.689,-20.0001,-60.3127
14:43:22.697,-16.4063,-55.3127
14:43:22.720,-8.625,-45.5002
14:43:22.723,3.7188,-22.3751
14:43:22.725,19.7188,12
14:43:22.758,30.6876,39.8752
14:43:22.760,36.7814,55.4377
14:43:22.761,39.6877,65.0627
14:43:22.767,41.2189,69.4378
14:43:22.796,41.3752,71.2503
14:43:22.798,41.1877,70.7503
14:43:22.800,39.6564,69.1878
14:43:22.805,37.9689,65.7502
14:43:22.816,35.7189,62.0002
14:43:22.829,34.0314,56.7502
14:43:22.835,30.8126,51.1877
14:43:22.845,28.1564,45.7502
14:43:22.856,24.9376,39.9377
14:43:22.865,22.3438,34.0001
14:43:22.876,20.5938,28.2501
14:43:22.885,17.8751,22.9376
14:43:22.918,15.7188,18.9376
14:43:22.920,13.7188,13.9376
14:43:22.921,12.1875,11.5
14:43:22.937,11.2188,6.75
14:43:22.941,8.4688,4
14:43:22.950,7.6563,-0.1875
14:43:22.972,5.9063,-3
14:43:22.978,5.1563,-5.75
14:43:22.987,4.4063,-7.8125
14:43:22.990,3.9063,-8.0625
14:43:23.008,5.0625,-8.1875
14:43:23.015,5.8125,-6.5625
14:43:23.022,7.4063,-4.6875
14:43:23.032,8.5938,-1.75
14:43:23.040,10.4375,1.875
14:43:23.051,11.625,5.75
14:43:23.060,12.1563,8
14:43:23.070,13.2501,9.25
14:43:23.080,13.125,8.75
14:43:23.091,13.1875,9.125
14:43:23.100,11.6875,7.5625
14:43:23.111,11.4375,5.125
14:43:23.120,9.7188,3.375
14:43:23.132,8.5625,0.875
14:43:23.140,6.9375,-3.125
14:43:23.151,5.2813,-5.625
14:43:23.160,4.0313,-9.0625
14:43:23.170,2.3125,-12.375
14:43:23.180,0.6875,-16.3751
14:43:23.190,-1.625,-19.0001
14:43:23.201,-3.1563,-23.4376
14:43:23.211,-4.4688,-26.1876
14:43:23.222,-6.2813,-30.1251
14:43:23.232,-7.3438,-33.3126
14:43:23.241,-9.5,-36.0626
14:43:23.250,-10.8438,-38.5001
14:43:23.261,-11.5938,-41.1252
14:43:23.271,-13.2501,-43.0627
14:43:23.280,-14.0938,-46.3752
14:43:23.304,-15.2188,-47.2502
14:43:23.307,-15.3751,-48.6877
14:43:23.334,-17.0626,-50.5627
14:43:23.335,-16.6563,-51.5002
14:43:23.339,-18.1563,-53.0002
14:43:23.341,-18.5313,-53.8752
14:43:23.368,-18.4688,-53.6877
14:43:23.369,-19.1251,-55.0627
14:43:23.372,-19.4688,-55.8127
14:43:23.398,-19.6563,-56.2502
14:43:23.401,-20.4688,-57.1252
14:43:23.402,-20.5938,-56.5627
14:43:23.436,-20.6563,-57.6877
14:43:23.438,-20.2188,-56.8752
14:43:23.441,-20.6563,-57.9377
14:43:23.443,-20.9063,-58.0627
14:43:23.477,-21.1876,-57.8127
14:43:23.478,-21.2501,-58.0627
14:43:23.481,-21.2813,-58.3127
14:43:23.484,-21.4063,-57.9377
14:43:23.497,-21.3751,-58.2502
14:43:23.501,-21.4376,-57.4377
14:43:23.510,-19.9376,-57.1877
14:43:23.520,-18.1876,-55.0002
14:43:23.530,-13.125,-51.2502
14:43:23.541,-6.4688,-40.7502
14:43:23.550,7.1875,-17.3126
14:43:23.561,22.6876,16.4376
14:43:23.571,32.9689,44.3127
14:43:23.581,39.6252,60.0002
14:43:23.591,42.2189,68.1253
14:43:23.600,44.1252,73.1878
14:43:23.611,44.2502,73.9378
14:43:23.622,43.8439,73.6878
14:43:23.631,42.4689,70.3128
14:43:23.640,39.9064,67.3128
14:43:23.650,38.0939,62.3127
14:43:23.660,35.2189,57.1252
14:43:23.670,32.3439,50.7502
14:43:23.680,29.1876,44.7502
14:43:23.690,26.2813,39.1251
14:43:23.701,23.2501,32.5626
14:43:23.710,21.3438,27.0001
14:43:23.721,17.7813,20.5626
14:43:23.731,15.3751,16.5001
14:43:23.740,13.3751,10.75
14:43:23.759,10.75,6.0625
14:43:23.761,9.1563,1.875
14:43:23.776,7.125,-2.3125
14:43:23.792,5.1563,-6
14:43:23.794,3.75,-9.0625
14:43:23.803,2.5313,-12
14:43:23.810,2.375,-13.3751
14:43:23.820,2.4375,-13.9376
14:43:23.830,3.25,-13.3126
14:43:23.841,3.9063,-11.5625
14:43:23.850,6.1563,-7.125
14:43:23.860,8,-3.9375
14:43:23.871,10.25,0.875
14:43:23.881,11.8438,3.5
14:43:23.890,13.3438,7.8125
14:43:23.900,13.9688,10.3125
14:43:23.912,13.9376,10.5625
14:43:23.920,14.0001,10
14:43:23.931,13.5313,8.625
14:43:23.940,11.9375,6.875
14:43:23.950,11.8125,5.4375
14:43:23.961,10.5625,2.25
14:43:23.971,8.5625,-0.6875
14:43:23.981,7.2188,-3.25
14:43:23.990,5.1563,-7.25
14:43:24.000,3.2813,-10.625
14:43:24.011,2.25,-14.1876
14:43:24.021,-0.3125,-17.9376
14:43:24.031,-1.9688,-20.4376
14:43:24.040,-3.375,-25.0001
14:43:24.051,-5.1563,-28.0626
14:43:24.061,-6.8438,-30.9376
14:43:24.070,-7.8125,-33.4376
14:43:24.081,-8.8125,-36.5001
14:43:24.090,-10.3125,-38.0001
14:43:24.100,-12.0313,-39.8752
14:43:24.110,-11.8438,-41.8752
14:43:24.124,-13.3438,-43.6877
14:43:24.131,-13.9688,-44.7502
14:43:24.162,-14.5938,-46.0627
14:43:24.165,-15.4063,-47.4377
14:43:24.166,-15.4688,-47.6252
14:43:24.172,-16.0313,-49.0627
14:43:24.198,-15.9063,-48.7502
14:43:24.201,-16.2813,-50.3127
14:43:24.203,-16.8438,-49.7502
14:43:24.231,-16.1563,-50.8752
14:43:24.233,-17.2813,-51.1877
14:43:24.236,-16.5313,-51.2502
14:43:24.242,-17.0313,-51.0627
14:43:24.256,-17.2188,-51.8752
14:43:24.260,-17.3438,-52.1877
14:43:24.289,-17.9063,-52.7502
14:43:24.292,-17.9063,-52.1877
14:43:24.308,-18.0626,-52.7502
14:43:24.321,-18.4063,-51.5002
14:43:24.323,-17.5626,-51.2502
14:43:24.338,-16.7188,-51.1252
14:43:24.341,-13.5001,-46.6877
14:43:24.356,-7.6563,-41.0627
14:43:24.357,1.75,-24.1251
14:43:24.361,16.3126,3.9375
14:43:24.372,29.0939,35.0001
14:43:24.380,37.4376,55.1252
14:43:24.390,41.1252,65.6878
14:43:24.400,43.5939,72.5003
14:43:24.415,43.9689,74.2503
14:43:24.425,42.8439,74.5628
14:43:24.435,41.3439,71.5628
14:43:24.448,40.1564,68.6878
14:43:24.455,37.6876,64.1877
14:43:24.465,34.9689,58.4377
14:43:24.475,32.4064,53.5002
14:43:24.485,28.8126,45.6252
14:43:24.495,25.1251,39.7502
14:43:24.506,22.1251,32.6876
14:43:24.515,19.2188,25.3751
14:43:24.525,15.7501,18.3751
14:43:24.535,12.4688,13.2501
14:43:24.545,9.9688,6.6875
14:43:24.555,7.625,1.125
14:43:24.565,4.9688,-4.25
14:43:24.575,2.1875,-10.375
14:43:24.585,-0.0625,-15.4376
14:43:24.596,-1.8438,-17.8126
14:43:24.605,-2.3438,-19.1251
14:43:24.615,-1.6563,-20.9376
14:43:24.625,-1.5625,-19.3126
14:43:24.635,0,-18.5626
14:43:24.646,1.625,-14.9376
14:43:24.655,5,-10.6875
14:43:24.665,7.1563,-4.375
14:43:24.676,10.0625,0.875
14:43:24.685,12.2188,5.5
14:43:24.696,13.9063,9.8125
14:43:24.705,14.4688,11
14:43:24.716,14.5313,11.9375
14:43:24.726,14.0626,10.625
14:43:24.736,13.1876,8.9375
14:43:24.745,12.1563,7.3125
14:43:24.756,10.625,4.75
14:43:24.765,9.4063,1.375
14:43:24.775,8.0625,-1.6875
14:43:24.811,5.875,-5.5625
14:43:24.812,4.6563,-9
14:43:24.817,1.9063,-12.5
14:43:24.820,0.4063,-16.4376
14:43:24.846,-1.1563,-20.4376
14:43:24.850,-3.3125,-23.5001
14:43:24.854,-4.5938,-25.6876
14:43:24.857,-5.5313,-28.8126
14:43:24.882,-7.875,-32.0001
14:43:24.884,-9.0938,-33.5626
14:43:24.887,-9.9688,-36.6251
14:43:24.915,-11.125,-38.5626
14:43:24.919,-12.1875,-39.1251
14:43:24.920,-12.3438,-41.3127
14:43:24.926,-13.4688,-43.0002
14:43:24.960,-14.2188,-42.5627
14:43:24.961,-14.5313,-43.9377
14:43:24.964,-14.8751,-45.5627
14:43:24.969,-15.5001,-44.5627
14:43:24.977,-15.2188,-45.8127
14:43:24.986,-16.4376,-46.3127
14:43:24.997,-16.3751,-46.8127
14:43:25.005,-16.8751,-47.6252
14:43:25.015,-16.3126,-47.5627
14:43:25.025,-17.3751,-47.9377
14:43:25.036,-17.6251,-48.1252
14:43:25.045,-17.1563,-48.6252
14:43:25.057,-17.0938,-47.1877
14:43:25.078,-15.3438,-46.5627
14:43:25.080,-12.0313,-43.9377
14:43:25.095,-6.3125,-35.8126
14:43:25.098,5.3125,-17.3751
14:43:25.106,19.5626,13.3751
14:43:25.115,31.9689,42.1252
14:43:25.125,38.5314,60.8127
14:43:25.135,42.4377,70.7503
14:43:25.145,43.8439,76.4378
14:43:25.156,44.7189,78.1878
14:43:25.165,44.2502,77.8128
14:43:25.175,42.4377,76.5628
14:43:25.185,40.7502,72.6253
14:43:25.195,38.0626,68.8753
14:43:25.205,36.0626,62.9377
14:43:25.215,33.2501,57.1252
14:43:25.225,30.7501,51.6877
14:43:25.235,27.0314,43.8752
14:43:25.245,23.3126,37.3751
14:43:25.256,20.4063,31.8751
14:43:25.266,18.4688,24.6251
14:43:25.276,15.0938,18.3126
14:43:25.285,12.1875,12.75
14:43:25.295,8.9688,6.9375
14:43:25.305,6.8438,1.5
14:43:25.316,5.1563,-3.5625
14:43:25.327,2.9375,-7.875
14:43:25.335,1.5,-11.125
14:43:25.345,0.375,-13.9376
14:43:25.355,0.125,-14.4376
14:43:25.365,0.75,-15.1251
14:43:25.375,1.875,-13.5626
14:43:25.385,3.3438,-11.5
14:43:25.397,5.125,-6.5
14:43:25.405,8,-1.5625
14:43:25.416,10.875,3.5625
14:43:25.425,13.125,8
14:43:25.436,14.2813,11.5
14:43:25.445,14.7188,14.3751
14:43:25.479,15.2813,14.3126
14:43:25.480,14.3438,13.9376
14:43:25.483,13.8126,12.625
14:43:25.487,12.5938,11.1875
14:43:25.518,12,8.625
14:43:25.520,9.6563,6.6875
14:43:25.523,8.4375,2.0625
14:43:25.527,7.5938,-0.75
14:43:25.561,4.5313,-4.625
14:43:25.563,3.875,-8
14:43:25.567,1,-12.0625
14:43:25.568,0.125,-15.6876
14:43:25.598,-2.3438,-18.9376
14:43:25.600,-3.6563,-21.9376
14:43:25.604,-5.6563,-25.1251
14:43:25.606,-6.7188,-28.6876
14:43:25.641,-8.3125,-30.0626
14:43:25.643,-9.0313,-32.1876
14:43:25.646,-9.8438,-34.8751
14:43:25.654,-10.875,-36.5626
14:43:25.656,-12.0313,-38.7501
14:43:25.674,-12.5938,-38.9376
14:43:25.677,-12.625,-40.1252
14:43:25.686,-13.1563,-41.8127
14:43:25.695,-14.5938,-43.3127
14:43:25.705,-14.6251,-42.8752
14:43:25.715,-14.0626,-44.1877
14:43:25.725,-15.2813,-45.2502
14:43:25.735,-15.9688,-45.0002
14:43:25.745,-15.8126,-46.7502
14:43:25.756,-16.5938,-46.8752
14:43:25.766,-16.5938,-46.6252
14:43:25.775,-17.0001,-48.4377
14:43:25.785,-16.7501,-47.5002
14:43:25.795,-16.1251,-47.6252
14:43:25.805,-15.7813,-46.8127
14:43:25.820,-13,-43.7502
14:43:25.825,-8.3125,-39.6252
14:43:25.835,-0.1875,-24.6251
14:43:25.845,14.6563,2.6875
14:43:25.855,28.4376,35.5001
14:43:25.870,38.4376,59.2502
14:43:25.881,43.0627,72.3128
14:43:25.890,46.5314,80.9378
14:43:25.900,47.5627,84.3753
14:43:25.910,47.8439,86.0628
14:43:25.920,47.0002,85.0628
14:43:25.930,45.4064,83.7503
14:43:25.941,43.7502,79.8128
14:43:25.950,41.2814,75.8753
14:43:25.960,38.6564,70.1253
14:43:25.971,36.6251,65.2503
14:43:25.981,33.3126,58.1252
14:43:25.991,30.7189,53.0002
14:43:26.000,27.4376,47.2502
14:43:26.010,25.0938,41.8127
14:43:26.020,23.1251,37.0001
14:43:26.031,20.1251,29.9376
14:43:26.041,18.1876,25.0626
14:43:26.052,15.6876,20.7501
14:43:26.060,14.1251,16.3751
14:43:26.070,12.125,13.0625
14:43:26.082,10.5938,8.875
14:43:26.091,9.3438,6.5625
14:43:26.100,9.0313,5.375
14:43:26.110,8.7813,3.375
14:43:26.120,10.3438,5.0625
14:43:26.131,11.25,6.125
14:43:26.140,12.25,8.4375
14:43:26.150,14.3751,11.9375
14:43:26.160,15.9063,16.2501
14:43:26.170,18.5001,19.2501
14:43:26.181,18.5001,22.4376
14:43:26.195,19.6563,23.7501
14:43:26.201,18.8751,24.1251
14:43:26.211,19.3751,23.8751
14:43:26.220,17.8751,22.2501
14:43:26.231,18.1876,20.4376
14:43:26.256,15.7813,17.9376
14:43:26.259,15.1563,15.1251
14:43:26.261,12.9688,12
14:43:26.270,12.5,9
14:43:26.307,9.625,5.375
14:43:26.308,8.4688,1.4375
14:43:26.312,5.6563,-2.3125
14:43:26.313,4.75,-6.25
14:43:26.346,2.4063,-9.75
14:43:26.348,1.4063,-12.875
14:43:26.351,-1.3125,-16.2501
14:43:26.382,-2.8438,-20.0001
14:43:26.382,-3.4063,-22.5626
14:43:26.412,-5.2188,-26.1876
14:43:26.413,-6.3438,-28.1251
14:43:26.417,-7.5938,-30.0626
14:43:26.417,-8.5313,-33.1251
14:43:26.420,-9.0625,-34.5001
14:43:26.430,-10.1875,-34.7501
14:43:26.441,-10.7188,-37.1876
14:43:26.450,-11.9063,-39.0002
14:43:26.460,-12.3125,-40.6252
14:43:26.472,-12.8438,-41.0002
14:43:26.481,-13.2188,-41.5002
14:43:26.491,-13.2188,-42.4377
14:43:26.500,-13.5938,-44.2502
14:43:26.511,-13.5626,-45.0002
14:43:26.520,-14.0313,-44.8127
14:43:26.531,-13.5313,-45.8752
14:43:26.540,-14.8751,-46.0627
14:43:26.551,-15.2813,-46.1877
14:43:26.560,-14.6251,-46.8127
14:43:26.576,-14.0001,-46.7502
14:43:26.580,-6.7813,-39.3126
14:43:26.590,2.0938,-24.0626
14:43:26.601,16.5001,5.625
14:43:26.610,28.6564,36.4376
14:43:26.621,37.4064,59.1877
14:43:26.630,42.2814,72.1253
14:43:26.640,45.2814,81.1878
14:43:26.650,46.0002,84.8128
14:43:26.661,45.5939,87.1253
14:43:26.670,44.5939,86.3128
14:43:26.680,40.6252,84.6878
14:43:26.690,37.1876,81.1253
14:43:26.700,32.4064,77.7503
14:43:26.710,28.4689,73.5628
14:43:26.720,23.7813,68.1253
14:43:26.731,19.5313,63.5627
14:43:26.757,14.6563,57.3127
14:43:26.759,9.1875,52.1252
14:43:26.762,2.5625,46.5627
14:43:26.771,-6.5625,41.3127
14:43:26.780,-17.8438,35.5626
14:43:26.790,-28.5626,28.9376
14:43:26.801,-38.4376,21.3126
14:43:26.810,-50.0002,14.6251
14:43:26.821,-59.3127,6.625
14:43:26.830,-71.6253,-1.3125
14:43:26.841,-81.2503,-8.5625
14:43:26.850,-91.3754,-15.3126
14:43:26.860,-102.8441,-21.3751
14:43:26.870,-114.2504,-28.9376
14:43:26.880,-144.6255,-48.1252
14:43:26.890,-161.6569,-62.3127
14:43:26.901,-169.6256,-66.5003
14:43:26.919,-181.0007,-71.7503
14:43:26.925,-186.1882,-75.6878
14:43:26.940,-187.0007,-73.5003
14:43:26.943,-186.5632,-72.3753
14:43:26.956,-184.7195,-70.0628
14:43:26.965,-180.9382,-68.0003
14:43:26.976,-179.2507,-65.8753
14:43:27.012,-177.6569,-65.8753
14:43:27.014,-175.2819,-65.1252
14:43:27.017,-173.1882,-64.1252
14:43:27.019,-170.0319,-63.3752
14:43:27.050,-167.5631,-63.4377
14:43:27.052,-166.3756,-63.1877
14:43:27.054,-163.7506,-63.8752
14:43:27.057,-161.0319,-62.6252
14:43:27.086,-159.0944,-63.3127
14:43:27.089,-155.1881,-63.0002
14:43:27.090,-152.4381,-62.1877
14:43:27.121,-149.9068,-61.8127
14:43:27.123,-147.6881,-62.1252
14:43:27.125,-145.563,-61.8752
14:43:27.131,-142.5005,-62.7502
14:43:27.139,-140.8755,-62.0002
14:43:27.146,-139.813,-63.3752
14:43:27.155,-137.938,-64.2502
14:43:27.165,-136.063,-63.8752
14:43:27.175,-135.0943,-65.0628
14:43:27.185,-133.813,-65.0628
14:43:27.195,-132.938,-66.1878
14:43:27.206,-133.3443,-67.5003
14:43:27.216,-132.188,-68.8753
14:43:27.227,-133.5318,-71.1253
14:43:27.235,-134.2818,-73.4378
14:43:27.245,-135.2818,-75.7503
14:43:27.256,-134.6255,-77.0628
14:43:27.265,-135.0318,-79.2503
14:43:27.275,-135.5005,-81.6878
14:43:27.286,-136.1568,-84.4378
14:43:27.297,-136.8755,-86.6253
14:43:27.305,-136.7505,-89.6878
14:43:27.316,-137.5005,-90.6879
14:43:27.331,-136.5005,-91.9379
14:43:27.336,-133.438,-89.8753
14:43:27.345,-126.9692,-82.3753
14:43:27.355,-116.9692,-68.0003
14:43:27.365,-105.4691,-51.3127
14:43:27.377,-95.9691,-32.6251
14:43:27.385,-87.0628,-19.0001
14:43:27.395,-80.0003,-4.3125
14:43:27.405,-73.5315,5.5
14:43:27.416,-69.1565,14.1876
14:43:27.427,-65.219,21.0626
14:43:27.436,-63.594,23.9376
14:43:27.446,-63.1252,26.2501
14:43:27.456,-62.9377,26.3126
14:43:27.465,-63.8127,23.5001
14:43:27.477,-64.9065,22.1251
14:43:27.485,-66.6878,18.1876
14:43:27.495,-69.0628,14.5001
14:43:27.505,-71.4065,10.8125
14:43:27.515,-73.0003,6.125
14:43:27.526,-73.5003,2.1875
14:43:27.536,-75.1565,-0.8125
14:43:27.545,-77.0628,-4.6875
14:43:27.556,-77.844,-7.9375
14:43:27.565,-79.0003,-10
14:43:27.575,-79.7816,-13.3126
14:43:27.587,-80.8753,-15.6251
14:43:27.596,-81.0003,-17.9376
14:43:27.606,-80.7503,-17.8751
14:43:27.615,-79.5003,-18.5001
14:43:27.627,-77.719,-17.2501
14:43:27.635,-74.3753,-13.7501
14:43:27.645,-71.4065,-10.75
14:43:27.655,-67.594,-6.5625
14:43:27.675,-63.9377,-1.3125
14:43:27.678,-59.9065,2.125
14:43:27.693,-56.6877,6.625
14:43:27.696,-53.344,10.3125
14:43:27.705,-49.2502,14.0001
14:43:27.715,-46.5314,16.8751
14:43:27.726,-44.0939,18.3126
14:43:27.736,-42.5314,19.8751
14:43:27.745,-41.4377,21.1876
14:43:27.773,-38.8751,21.0001
14:43:27.775,-37.3126,22.1876
14:43:27.777,-40.1564,20.5001
14:43:27.786,-41.9377,16.4376
14:43:27.816,-43.3752,14.8126
14:43:27.818,-43.9689,14.6251
14:43:27.820,-43.4064,11.8125
14:43:27.825,-44.2189,11.3125
14:43:27.841,-44.6564,9.125
14:43:27.846,-45.5939,6.5625
14:43:27.887,-45.0627,5.25
14:43:27.890,-44.3127,4.25
14:43:27.892,-44.3127,3
14:43:27.898,-43.0939,1.8125
14:43:27.899,-43.9689,0.875
14:43:27.905,-42.9689,-0.6875
14:43:27.934,-43.0002,-1.125
14:43:27.936,-42.5002,-2.8125
14:43:27.939,-42.8127,-4.25
14:43:27.945,-42.4064,-4.3125
14:43:27.955,-42.7502,-6.3125
14:43:27.965,-43.2189,-7.125
14:43:27.976,-43.9064,-8.75
14:43:27.985,-43.5002,-11.3125
14:43:27.996,-44.5939,-11.5
14:43:28.005,-44.2814,-14.6251
14:43:28.037,-45.0002,-16.5626
14:43:28.040,-46.2502,-19.8126
14:43:28.042,-45.4064,-20.3751
14:43:28.048,-41.6877,-17.6251
14:43:28.055,-35.8751,-11
14:43:28.065,-27.5626,1.3125
14:43:28.082,-18.1876,16.0001
14:43:28.086,-9.3438,31.3126
14:43:28.095,-2.1563,44.6877
14:43:28.105,3.5,56.8752
14:43:28.116,8.375,66.5003
14:43:28.126,10.5,74.0628
14:43:28.135,12.4688,78.3753
14:43:28.145,12.625,80.1253
14:43:28.155,11.2813,81.1253
14:43:28.165,9.4375,78.3128
14:43:28.176,6.375,76.5628
14:43:28.185,4,70.1878
14:43:28.195,0.2813,66.5003
14:43:28.205,-2.9375,60.5002
14:43:28.229,-6,55.1252
14:43:28.230,-9.4688,48.9377
14:43:28.246,-13.2188,44.6877
14:43:28.248,-16.4063,38.7501
14:43:28.257,-19.5626,33.0626
14:43:28.266,-22.7501,28.0001
14:43:28.276,-25.9063,22.8126
14:43:28.285,-28.6876,17.0626
14:43:28.296,-31.9376,13.0625
14:43:28.305,-32.6876,8.9375
14:43:28.315,-34.1251,7.75
14:43:28.326,-33.9064,6.5
14:43:28.336,-33.8126,6.5
14:43:28.345,-32.6564,7.625
14:43:28.355,-30.4376,10.5625
14:43:28.366,-28.5314,13.7501
14:43:28.375,-26.4064,16.0001
14:43:28.385,-24.8126,20.3126
14:43:28.395,-22.2501,22.5001
14:43:28.406,-21.1251,25.6251
14:43:28.416,-19.4063,27.2501
14:43:28.425,-18.9688,29.8126
14:43:28.436,-18.0001,28.6251
14:43:28.445,-17.9376,29.3751
14:43:28.478,-18.2501,29.3751
14:43:28.481,-18.6251,27.6251
14:43:28.484,-19.0001,27.6251
14:43:28.485,-19.2501,26.6251
14:43:28.514,-18.7501,25.0626
14:43:28.518,-18.3438,24.9376
14:43:28.519,-17.8126,24.4376
14:43:28.526,-16.7813,23.7501
14:43:28.549,-16.6876,22.6251
14:43:28.552,-15.2813,22.6251
14:43:28.584,-13.7813,22.9376
14:43:28.585,-10.6563,23.6876
14:43:28.588,-8.25,26.1251
14:43:28.591,-10.5,23.6876
14:43:28.595,-12.5938,21.6251
14:43:28.628,-15.7501,19.0001
14:43:28.631,-16.5001,15.5001
14:43:28.633,-17.1251,15.8751
14:43:28.638,-16.6251,13.9376
14:43:28.646,-17.1251,14.1876
14:43:28.655,-17.5626,12.25
14:43:28.667,-16.3126,11.375
14:43:28.676,-16.5313,10.8125
14:43:28.686,-14.6251,10.75
14:43:28.695,-14.1876,10.25
14:43:28.707,-13.0313,9.875
14:43:28.716,-12.9688,10
14:43:28.725,-11.0938,9.25
14:43:28.735,-9.9375,11.625
14:43:28.745,-6.0938,14.8126
14:43:28.757,-1.25,21.6876
14:43:28.765,6.0313,33.0626
14:43:28.775,13.7501,45.9377
14:43:28.785,22.1251,62.8127
14:43:28.796,29.5314,77.1878
14:43:28.807,35.9376,91.5004
14:43:28.815,41.6564,104.6879
14:43:28.825,45.4377,115.0004
14:43:28.835,48.1564,122.5005
14:43:28.845,48.7189,127.813
14:43:28.857,47.5314,130.813
14:43:28.865,46.0939,129.8755
14:43:28.875,42.6564,127.438
14:43:28.885,40.3439,125.5005
14:43:28.895,37.0939,121.0005
14:43:28.905,34.0314,117.1254
14:43:28.915,31.5626,112.5004
14:43:28.925,27.2189,106.9379
14:43:28.935,23.7813,102.8129
14:43:28.946,21.3438,97.0004
14:43:28.955,17.5313,91.6879
14:43:28.973,14.8438,87.1878
14:43:28.975,11.125,81.6253
14:43:28.990,7.75,76.0628
14:43:28.995,3.875,70.3128
14:43:29.005,0.0313,65.0002
14:43:29.015,-2.25,59.0002
14:43:29.025,-4.6875,54.8752
14:43:29.035,-6.125,50.5002
14:43:29.045,-7.625,48.6877
14:43:29.058,-7.8125,46.3752
14:43:29.066,-8.4375,46.4377
14:43:29.075,-8,45.6877
14:43:29.085,-8.125,46.0627
14:43:29.095,-7.4063,46.9377
14:43:29.105,-7.6875,48.0002
14:43:29.115,-8.0313,46.8752
14:43:29.127,-8.5938,46.0002
14:43:29.135,-9.625,44.5627
14:43:29.145,-10.1875,43.1877
14:43:29.157,-11.4375,41.3752
14:43:29.165,-12.7188,39.8127
14:43:29.176,-14.3438,37.6876
14:43:29.209,-15.8438,34.8126
14:43:29.209,-17.0626,33.0626
14:43:29.211,-18.9063,29.1876
14:43:29.237,-20.1563,26.8751
14:43:29.239,-22.3438,25.2501
14:43:29.241,-23.1563,22.2501
14:43:29.267,-24.8126,20.4376
14:43:29.268,-25.4063,18.8126
14:43:29.271,-25.0313,17.3126
14:43:29.278,-25.5626,16.0626
14:43:29.308,-25.7501,13.6876
14:43:29.310,-26.7501,12.9375
14:43:29.312,-26.0626,12
14:43:29.343,-26.5939,11.125
14:43:29.345,-25.0001,11.0625
14:43:29.348,-24.9688,10.75
14:43:29.353,-23.2188,10.875
14:43:29.355,-23.0626,11.4375
14:43:29.374,-22.0001,11.625
14:43:29.376,-19.9063,11.625
14:43:29.385,-18.2501,13.3126
14:43:29.395,-13.8438,14.7501
14:43:29.406,-13.3126,16.5001
14:43:29.418,-16.7813,11.8125
14:43:29.426,-20.8438,8.875
14:43:29.435,-23.6251,5
14:43:29.445,-25.1563,3.8125
14:43:29.456,-24.6563,1.9375
14:43:29.465,-24.3751,2.8125
14:43:29.477,-22.2813,3.1875
14:43:29.486,-19.4688,6.6875
14:43:29.496,-13.0938,12.8125
14:43:29.506,-5.3438,24.3751
14:43:29.524,4.7188,39.0001
14:43:29.530,15.4376,56.6252
14:43:29.545,25.1251,74.1253
14:43:29.548,33.8126,91.1879
14:43:29.555,40.2814,105.6879
14:43:29.565,46.2814,118.438
14:43:29.575,50.5314,129.1255
14:43:29.585,51.5002,136.3755
14:43:29.595,51.7814,141.438
14:43:29.605,49.3439,142.6255
14:43:29.615,46.8127,143.0005
14:43:29.626,43.1252,140.063
14:43:29.636,39.3127,138.0005
14:43:29.645,35.7814,133.813
14:43:29.656,33.3126,130.8755
14:43:29.665,30.2501,127.2505
14:43:29.675,27.9064,123.5005
14:43:29.685,24.9063,118.2505
14:43:29.695,22.0938,114.7504
14:43:29.705,19.1251,110.1254
14:43:29.716,16.7501,105.5629
14:43:29.725,14.7188,100.5629
14:43:29.735,10.75,95.0629
14:43:29.750,8.7813,89.0628
14:43:29.757,4.9375,83.1878
14:43:29.766,1.5313,78.1878
14:43:29.775,-1,72.0003
14:43:29.785,-4.0625,67.6253
14:43:29.796,-5.7188,62.8752
14:43:29.806,-8.5938,59.8127
14:43:29.815,-9.7188,56.4377
14:43:29.825,-11.4688,54.7502
14:43:29.835,-11.7188,52.8752
14:43:29.845,-12.5313,52.0627
14:43:29.855,-12.8125,49.7502
14:43:29.865,-13.5626,49.0002
14:43:29.875,-14.0313,47.3752
14:43:29.894,-15.8751,45.6877
14:43:29.896,-17.3126,43.0627
14:43:29.926,-18.7813,39.3127
14:43:29.929,-20.5938,36.8751
14:43:29.931,-21.9688,33.2501
14:43:29.967,-24.5313,29.8751
14:43:29.972,-26.3126,26.2501
14:43:29.973,-28.0626,23.1251
14:43:29.977,-30.3751,18.5626
14:43:29.977,-31.8126,16.3126
14:43:30.010,-33.4689,12.75
14:43:30.011,-34.7501,10.1875
14:43:30.014,-35.7501,7.0625
14:43:30.016,-36.8126,5
14:43:30.048,-38.1876,2.625
14:43:30.051,-39.3752,-0.1875
14:43:30.053,-40.4064,-1.375
14:43:30.055,-39.4689,-3.125
14:43:30.065,-39.9064,-2.625
14:43:30.075,-38.4689,-4.125
14:43:30.085,-39.0001,-3.875
14:43:30.095,-38.7501,-5.6875
14:43:30.105,-39.3439,-6
14:43:30.115,-38.4689,-7.25
14:43:30.126,-37.5626,-6.5625
14:43:30.139,-36.7814,-6.5
14:43:30.145,-35.0314,-6.375
14:43:30.156,-31.7501,-4.6875
14:43:30.165,-29.4689,-2.8125
14:43:30.175,-33.0939,-6.125
14:43:30.185,-37.0314,-8.75
14:43:30.195,-38.0939,-10.8125
14:43:30.205,-39.9064,-13.125
14:43:30.215,-39.1251,-14.1251
14:43:30.225,-39.8127,-13.9376
14:43:30.235,-40.5627,-15.3126
14:43:30.245,-39.6252,-16.3126
14:43:30.255,-40.1564,-16.6876
14:43:30.272,-38.7501,-16.7501
14:43:30.286,-34.5939,-12.0625
14:43:30.289,-28.8751,-4.1875
14:43:30.295,-21.4688,7.75
14:43:30.305,-10.9375,22.5626
14:43:30.318,-2.25,39.3127
14:43:30.325,7.375,55.6877
14:43:30.335,15.8751,71.7503
14:43:30.346,23.4376,84.6878
14:43:30.355,29.4689,96.0629
14:43:30.365,32.0626,104.8129
14:43:30.375,33.3126,108.7504
14:43:30.385,33.2189,111.4379
14:43:30.395,31.3439,112.5004
14:43:30.405,29.5314,111.3754
14:43:30.415,25.8751,109.0629
14:43:30.425,23.2188,105.1254
14:43:30.437,18.5626,101.0629
14:43:30.446,15.8751,96.1254
14:43:30.455,11.375,92.0004
14:43:30.465,8.1563,86.7503
14:43:30.475,5.4688,83.3128
14:43:30.486,2.6875,78.2503
14:43:30.500,-0.75,74.2503
14:43:30.507,-3.8125,68.1878
14:43:30.517,-6.5938,63.5627
14:43:30.527,-9.875,57.1877
14:43:30.536,-12,51.8127
14:43:30.548,-14.7813,45.9377
14:43:30.557,-17.0001,40.6877
14:43:30.568,-18.8126,36.5626
14:43:30.597,-19.8438,33.3751
14:43:30.599,-20.7813,30.9376
14:43:30.602,-22.6251,28.9376
14:43:30.606,-22.7813,27.4376
14:43:30.616,-23.7188,26.4376
14:43:30.625,-23.2188,25.8751
14:43:30.637,-24.4376,23.8126
14:43:30.646,-24.7188,23.6251
14:43:30.687,-25.0626,20.8126
14:43:30.688,-27.2814,19.9376
14:43:30.690,-28.1251,16.5001
14:43:30.693,-30.5626,14.5001
14:43:30.698,-32.3751,10.5
14:43:30.723,-34.5626,7.3125
14:43:30.725,-36.6876,3.25
14:43:30.728,-37.4376,0.0625
14:43:30.760,-40.9689,-4.0625
14:43:30.762,-42.2502,-7.9375
14:43:30.765,-44.7502,-11.3125
14:43:30.767,-46.6252,-14.7501
14:43:30.801,-48.5002,-18.4376
14:43:30.803,-49.1877,-21.5626
14:43:30.806,-50.9689,-24.3126
14:43:30.832,-51.5627,-26.8126
14:43:30.833,-51.9377,-27.6876
14:43:30.848,-51.8127,-29.2501
14:43:30.850,-52.3127,-30.8126
14:43:30.864,-51.0939,-30.8751
14:43:30.865,-51.9064,-31.8126
14:43:30.883,-51.5627,-32.0626
14:43:30.885,-50.7189,-32.9376
14:43:30.889,-50.6877,-32.5626
14:43:30.895,-50.0314,-33.0001
14:43:30.905,-48.7189,-32.5001
14:43:30.915,-47.6252,-32.1876
14:43:30.925,-46.5002,-30.6876
14:43:30.935,-45.0939,-30.8751
14:43:30.945,-39.7189,-27.1251
14:43:30.961,-42.1252,-28.5001
14:43:30.970,-44.3439,-29.8126
14:43:30.981,-45.6252,-31.4376
14:43:30.990,-45.9377,-33.3126
14:43:31.000,-47.0627,-34.3126
14:43:31.011,-47.0939,-35.0626
14:43:31.020,-47.3127,-36.1876
14:43:31.030,-47.8127,-35.1876
14:43:31.041,-46.9064,-36.7501
14:43:31.050,-46.1564,-35.3126
14:43:31.061,-43.0627,-31.9376
14:43:31.071,-38.0314,-24.0626
14:43:31.080,-30.1876,-12.75
14:43:31.090,-22.0626,1.8125
14:43:31.100,-13.8126,15.3126
14:43:31.110,-6.3438,29.6251
14:43:31.120,2.5,48.4377
14:43:31.130,7.25,57.5002
14:43:31.140,10.3438,66.0628
14:43:31.150,12.5,69.8128
14:43:31.161,12.9375,71.8128
14:43:31.170,12.8125,73.5003
14:43:31.181,12.1875,72.0628
14:43:31.190,10.375,70.4378
14:43:31.200,9.1563,68.1878
14:43:31.210,5.75,64.3752
14:43:31.220,3.5313,60.5002
14:43:31.230,1.1875,56.3127
14:43:31.240,-1.5625,52.8127
14:43:31.257,-3.6875,49.0627
14:43:31.261,-5.6563,45.1252
14:43:31.272,-8.375,41.2502
14:43:31.283,-10.9375,36.6876
14:43:31.292,-14.8751,31.4376
14:43:31.300,-17.7813,26.1876
14:43:31.310,-20.3126,21.3751
14:43:31.320,-22.8438,16.8751
14:43:31.330,-24.7501,13.2501
14:43:31.351,-26.1563,10.5
14:43:31.353,-26.3751,8.75
14:43:31.380,-26.0938,7.6875
14:43:31.384,-25.9063,7.1875
14:43:31.387,-25.0313,7.3125
14:43:31.393,-24.3751,6.375
14:43:31.419,-23.9688,7
14:43:31.421,-24.3126,5.375
14:43:31.424,-24.5313,5.1875
14:43:31.430,-25.3438,3
14:43:31.445,-26.5626,1.1875
14:43:31.451,-28.5626,-2.25
14:43:31.476,-29.7814,-3.6875
14:43:31.479,-31.3751,-7.5
14:43:31.481,-32.6251,-9.6875
14:43:31.513,-34.8439,-13.8126
14:43:31.515,-36.3126,-16.6251
14:43:31.518,-37.8126,-20.5626
14:43:31.524,-41.5627,-24.3126
14:43:31.534,-43.2814,-28.8126
14:43:31.541,-46.8439,-34.0626
14:43:31.550,-49.0939,-36.5001
14:43:31.567,-51.1877,-40.6877
14:43:31.582,-52.6877,-43.2502
14:43:31.585,-54.094,-47.2502
14:43:31.593,-55.6877,-49.0627
14:43:31.600,-56.7815,-51.9377
14:43:31.610,-57.6565,-53.6252
14:43:31.620,-58.7815,-55.5002
14:43:31.634,-59.3127,-57.3752
14:43:31.641,-60.6877,-58.3752
14:43:31.650,-60.2502,-59.4377
14:43:31.660,-59.8127,-58.5627
14:43:31.671,-58.844,-59.2502
14:43:31.681,-57.5627,-57.7502
14:43:31.691,-57.844,-58.2502
14:43:31.702,-56.969,-59.0002
14:43:31.712,-57.0627,-57.2502
14:43:31.721,-55.719,-57.8127
14:43:31.732,-54.594,-55.7502
14:43:31.743,-52.0939,-55.6877
14:43:31.750,-47.7502,-52.2502
14:43:31.760,-46.6877,-50.7502
14:43:31.771,-48.9377,-52.7502
14:43:31.780,-52.4689,-54.2502
14:43:31.790,-53.6252,-56.5627
14:43:31.801,-53.5315,-55.6877
14:43:31.810,-49.8127,-51.6877
14:43:31.820,-44.9689,-43.4377
14:43:31.831,-35.9376,-31.6251
14:43:31.841,-28.3751,-17.6876
14:43:31.850,-19.7813,-3.0625
14:43:31.876,-12.875,11
14:43:31.879,-6.5625,22.3126
14:43:31.882,-1.875,32.9376
14:43:31.890,2,39.3127
14:43:31.901,4.4688,45.1877
14:43:31.910,5.25,47.9377
14:43:31.921,5.1563,49.5002
14:43:31.930,5.1875,49.9377
14:43:31.940,4.9375,48.0627
14:43:31.950,4.7813,47.5627
14:43:31.960,4.9688,45.7502
14:43:31.970,3.9375,43.2502
14:43:31.982,3.2188,42.5002
14:43:31.992,2.75,38.2501
14:43:32.001,1,35.7501
14:43:32.010,-0.3125,33.6251
14:43:32.020,-2.125,30.0001
14:43:32.030,-4.125,27.0001
14:43:32.041,-6.7813,22.8126
14:43:32.050,-9.9375,17.5001
14:43:32.060,-12.9375,12.8125
14:43:32.070,-15.4688,8.875
14:43:32.081,-17.7501,4.5
14:43:32.090,-19.3751,2.125
14:43:32.100,-20.0938,-0.0625
14:43:32.111,-20.3126,-2.1875
14:43:32.121,-21.1563,-2.25
14:43:32.131,-21.0001,-3.9375
14:43:32.163,-19.3438,-2.0625
14:43:32.235,-17.1563,-1.125
14:43:32.235,-15.7813,0.25
14:43:32.235,-14.2813,0.75
14:43:32.239,-14.7188,0.8125
14:43:32.244,-14.2813,0.25
14:43:32.244,-15.6563,-0.4375
14:43:32.244,-16.3438,-1.9375
14:43:32.273,-18.6876,-4.1875
14:43:32.275,-19.9376,-6.4375
14:43:32.276,-22.2813,-8.75
14:43:32.303,-23.9063,-10.25
14:43:32.305,-25.5001,-13.5626
14:43:32.308,-26.6251,-16.2501
14:43:32.321,-29.2189,-18.9376
14:43:32.322,-32.6251,-23.8126
14:43:32.332,-35.5314,-27.1251
14:43:32.340,-38.6564,-31.2501
14:43:32.350,-40.1252,-32.8751
14:43:32.360,-40.4377,-35.5001
14:43:32.370,-38.0626,-34.7501
14:43:32.385,-34.3439,-31.5001
14:43:32.391,-35.9689,-31.9376
14:43:32.402,-38.0626,-34.8126
14:43:32.412,-44.3752,-42.4377
14:43:32.423,-44.0314,-40.5627
14:43:32.431,-42.7814,-42.8127
14:43:32.441,-42.4377,-41.8752
14:43:32.450,-43.1252,-43.0002
14:43:32.461,-44.8127,-44.8127
14:43:32.470,-46.5627,-45.1877
14:43:32.480,-46.1564,-46.3752
14:43:32.490,-26.6876,-34.3126
14:43:32.501,-27.6564,-33.5626
14:43:32.510,-30.8126,-36.0001
14:43:32.521,-39.8439,-41.5627
14:43:32.533,-39.7814,-43.6252
14:43:32.540,-36.6251,-41.3752
14:43:32.550,-33.2501,-40.6252
14:43:32.560,-31.8126,-39.1251
14:43:32.571,-30.7814,-40.3127
14:43:32.581,-30.9689,-39.9377
14:43:32.590,-31.6876,-42.0002
14:43:32.601,-16.5938,-30.7501
14:43:32.613,14.2188,-6.75
14:43:32.620,38.3126,11.875
14:43:32.630,59.1877,31.6876
14:43:32.640,74.8753,49.6252
14:43:32.652,84.2503,62.8752
14:43:32.660,86.2816,72.1253
14:43:32.671,90.0941,80.4378
14:43:32.680,91.6254,86.3753
14:43:32.691,89.8441,88.1878
14:43:32.701,87.9066,89.3753
14:43:32.710,87.3128,90.3754
14:43:32.721,84.4378,88.7503
14:43:32.730,78.1878,83.7503
14:43:32.740,68.0003,77.5003
14:43:32.750,59.0627,68.6878
14:43:32.761,48.5627,60.1877
14:43:32.771,38.3126,51.2502
14:43:32.782,31.8126,45.3752
14:43:32.790,28.8126,41.9377
14:43:32.802,27.3751,38.6876
14:43:32.810,25.2813,36.5001
14:43:32.821,23.6876,35.6251
14:43:32.830,23.2813,33.5001
14:43:32.840,24.1251,32.0001
14:43:32.850,27.4689,33.1876
14:43:32.862,34.9064,35.7501
14:43:32.875,43.3752,41.2502
14:43:32.897,49.3127,44.4377
14:43:32.899,53.6252,44.1877
14:43:32.973,58.1565,47.6252
14:43:32.974,64.8127,50.5002
14:43:32.976,70.3128,53.5627
14:43:32.976,77.8128,58.0627
14:43:32.976,83.2816,61.7502
14:43:32.976,87.2816,65.8753
14:43:32.980,90.3129,67.3753
14:43:32.984,93.1879,68.8753
14:43:32.985,94.5941,69.0003
14:43:32.993,95.6879,68.3128
14:43:33.027,95.4066,67.1878
14:43:33.029,94.8754,65.0627
14:43:33.031,92.7504,62.1877
14:43:33.034,91.0629,59.2502
14:43:33.071,89.1566,56.0002
14:43:33.074,87.7191,53.0627
14:43:33.075,86.1878,50.6252
14:43:33.078,86.0628,48.8752
14:43:33.084,85.2816,46.0002
14:43:33.090,84.3441,42.2502
14:43:33.100,83.2816,39.1876
14:43:33.110,82.9691,36.5626
14:43:33.120,82.0003,34.5626
14:43:33.159,80.6566,30.6876
14:43:33.161,79.8441,27.3751
14:43:33.163,78.4066,24.4376
14:43:33.168,76.969,21.0626
14:43:33.172,75.5628,18.1876
14:43:33.181,74.1253,14.5001
14:43:33.191,72.0628,11.6875
14:43:33.203,71.0628,8.1875
14:43:33.210,69.3753,6
14:43:33.220,68.0003,2.9375
14:43:33.230,67.469,-0.1875
14:43:33.241,66.1253,-1.625
14:43:33.250,64.7502,-4.6875
14:43:33.261,63.969,-6.375
14:43:33.271,63.5627,-7.4375
14:43:33.282,63.6252,-10.125
14:43:33.290,63.1252,-11.4375
14:43:33.300,61.6877,-14.2501
14:43:33.310,60.6565,-15.3126
14:43:33.320,59.4065,-16.6876
14:43:33.330,58.344,-20.0626
14:43:33.341,56.4065,-22.0001
14:43:33.351,54.6565,-23.8126
14:43:33.363,53.5315,-26.8126
14:43:33.370,51.6564,-29.4376
14:43:33.380,49.9064,-31.8126
14:43:33.390,47.4377,-34.8126
14:43:33.401,46.0314,-37.3126
14:43:33.411,43.5939,-39.1252
14:43:33.422,43.2502,-40.6877
14:43:33.430,43.8439,-38.6251
14:43:33.440,48.6252,-32.0001
14:43:33.450,56.219,-17.6251
14:43:33.461,66.5003,0.5625
14:43:33.477,73.0628,17.0001
14:43:33.492,78.7503,28.7501
14:43:33.492,81.6253,37.1876
14:43:33.504,83.4691,43.5002
14:43:33.516,83.5316,46.5627
14:43:33.520,83.6253,47.8127
14:43:33.531,80.9066,46.6252
14:43:33.540,78.8128,44.3752
14:43:33.552,76.1878,40.6877
14:43:33.560,73.5003,37.6876
14:43:33.576,70.4378,33.0001
14:43:33.581,67.719,28.6251
14:43:33.612,65.344,24.3751
14:43:33.614,62.6565,19.5626
14:43:33.616,60.0627,15.3751
14:43:33.621,57.3127,12.625
14:43:33.651,54.7815,9.5
14:43:33.653,52.4064,5.4375
14:43:33.656,49.9689,1.5625
14:43:33.660,47.3752,-1.1875
14:43:33.670,44.9689,-5.5
14:43:33.701,43.4689,-8.3125
14:43:33.703,40.7814,-11.4375
14:43:33.706,39.9064,-13.7501
14:43:33.712,38.1876,-15.5626
14:43:33.738,37.0001,-16.1876
14:43:33.742,36.9376,-17.6251
14:43:33.745,36.1564,-16.5626
14:43:33.751,36.1251,-16.1876
14:43:33.760,36.3439,-15.8751
14:43:33.772,36.5939,-14.1876
14:43:33.783,37.2501,-13.0625
14:43:33.790,37.2501,-13.5626
14:43:33.800,36.6876,-12.5625
14:43:33.810,35.6876,-12.25
14:43:33.820,35.9689,-13.1876
14:43:33.830,34.6564,-14.2501
14:43:33.841,34.0314,-15.5001
14:43:33.850,32.6876,-17.0001
14:43:33.861,32.8751,-18.5001
14:43:33.871,30.4689,-20.3751
14:43:33.881,30.2189,-22.6876
14:43:33.891,27.8439,-25.0626
14:43:33.901,27.4376,-27.8126
14:43:33.910,25.0938,-30.1251
14:43:33.920,24.4063,-32.4376
14:43:33.931,22.7501,-35.1876
14:43:33.940,21.4376,-38.0001
14:43:33.950,19.6563,-40.5002
14:43:33.961,18.6251,-42.7502
14:43:33.970,17.1563,-45.0002
14:43:33.980,16.3438,-47.1252
14:43:33.992,13.6563,-49.5627
14:43:34.000,12.4375,-52.0002
14:43:34.010,10.3125,-54.3752
14:43:34.020,9.0313,-56.1252
14:43:34.030,7.3125,-57.8127
14:43:34.041,6.6875,-59.2502
14:43:34.051,5.2813,-60.5627
14:43:34.063,5.0938,-61.3127
14:43:34.070,3.3125,-61.6877
14:43:34.081,2.875,-63.3127
14:43:34.090,1.875,-64.5002
14:43:34.100,2.0938,-65.0002
14:43:34.110,0.3438,-65.6877
14:43:34.121,-0.0938,-66.5628
14:43:34.130,-0.9063,-66.6878
14:43:34.141,-1.0938,-67.5003
14:43:34.150,-2.2813,-68.8128
14:43:34.160,-3,-69.0628
14:43:34.171,-3.125,-69.2503
14:43:34.181,-3.8438,-70.6878
14:43:34.190,-4.3125,-71.3128
14:43:34.200,-4.875,-72.2503
14:43:34.210,-5.1875,-72.5628
14:43:34.225,-2.8125,-70.1253
14:43:34.234,0.5625,-64.7502
14:43:34.243,8.4688,-53.5627
14:43:34.256,18.5001,-34.8751
14:43:34.266,29.1564,-14.4376
14:43:34.299,36.1251,0.75
14:43:34.301,41.2814,12.875
14:43:34.304,44.4689,18.5001
14:43:34.309,45.3127,23.8126
14:43:34.318,46.0939,24.4376
14:43:34.321,45.4377,25.2501
14:43:34.348,44.0627,23.0626
14:43:34.350,42.4689,19.8126
14:43:34.352,40.3439,17.0001
14:43:34.381,38.0314,12.875
14:43:34.385,35.6251,9.6875
14:43:34.386,33.5001,4.375
14:43:34.390,30.5001,-0.4375
14:43:34.428,28.2814,-3.4375
14:43:34.432,26.0313,-7.9375
14:43:34.433,23.8438,-11.0625
14:43:34.450,21.7501,-14.5001
14:43:34.451,19.9063,-18.0626
14:43:34.453,18.4376,-21.5001
14:43:34.463,15.8438,-24.9376
14:43:34.471,14.1251,-27.4376
14:43:34.481,12.9063,-31.5626
14:43:34.492,11.125,-33.8126
14:43:34.500,10.8125,-34.8126
14:43:34.510,10.3125,-34.7501
14:43:34.520,11.5938,-33.8126
14:43:34.530,12.3125,-32.3751
14:43:34.541,12.6875,-30.1251
14:43:34.550,14.6251,-28.1251
14:43:34.560,15.1563,-24.8126
14:43:34.570,16.4688,-23.1876
14:43:34.581,17.0313,-21.1876
14:43:34.591,17.0626,-20.1251
14:43:34.603,16.8751,-21.1876
14:43:34.610,16.3751,-21.0626
14:43:34.620,15.8126,-21.4376
14:43:34.630,15.6563,-23.3126
14:43:34.641,13.7501,-24.0626
14:43:34.651,12.9688,-26.8126
14:43:34.660,11.0625,-27.7501
14:43:34.670,10.1563,-30.9376
14:43:34.680,8.5938,-32.8126
14:43:34.691,7.875,-35.6251
14:43:34.700,5.8125,-37.7501
14:43:34.710,4.6875,-41.0627
14:43:34.721,2.4375,-42.1252
14:43:34.730,1.75,-46.0002
14:43:34.741,-0.125,-48.1252
14:43:34.753,-1.3125,-50.4377
14:43:34.761,-3.4063,-52.0002
14:43:34.778,-3.7188,-54.5002
14:43:34.784,-5.6563,-55.6877
14:43:34.791,-6.0313,-58.5002
14:43:34.802,-7.7813,-59.4377
14:43:34.816,-8,-61.1252
14:43:34.824,-9.8438,-61.6877
14:43:34.830,-9.6875,-63.3127
14:43:34.841,-10.8438,-64.1252
14:43:34.853,-11.375,-66.0003
14:43:34.860,-12.5625,-66.5628
14:43:34.870,-12.8438,-67.1253
14:43:34.880,-13.9376,-68.0003
14:43:34.890,-14.3126,-69.1878
14:43:34.901,-15.0626,-69.9378
14:43:34.911,-15.3751,-70.2503
14:43:34.920,-16.9063,-71.5628
14:43:34.930,-16.7188,-72.5003
14:43:34.941,-17.7813,-72.3753
14:43:34.951,-17.7501,-73.8128
14:43:34.963,-18.0626,-72.1253
14:43:34.970,-16.0313,-71.3753
14:43:34.980,-12.5313,-66.0628
14:43:34.995,-5.125,-56.7502
14:43:35.005,6.875,-35.7501
14:43:35.021,18.0938,-13.3751
14:43:35.025,26.7501,4.4375
14:43:35.056,32.6564,17.0001
14:43:35.059,35.3751,23.4376
14:43:35.061,37.2501,28.8751
14:43:35.065,37.2501,31.5626
14:43:35.099,36.9064,30.3126
14:43:35.102,36.1876,29.0626
14:43:35.104,33.8751,26.5626
14:43:35.107,31.9064,22.9376
14:43:35.137,29.3439,19.1876
14:43:35.140,27.9689,16.0626
14:43:35.141,24.6876,11.375
14:43:35.145,22.5938,6.25
14:43:35.177,18.8126,0.6875
14:43:35.179,17.0626,-2.1875
14:43:35.182,15.1876,-6.5
14:43:35.187,12.4375,-10.375
14:43:35.214,10.1563,-12.5625
14:43:35.216,8.4063,-15.8751
14:43:35.219,6.3438,-18.6251
14:43:35.225,5.0625,-22.1251
14:43:35.236,3.1875,-24.9376
14:43:35.246,1.875,-26.5626
14:43:35.255,1.3125,-27.8126
14:43:35.265,1.9063,-28.2501
14:43:35.276,2.5625,-26.7501
14:43:35.286,3.1875,-26.1251
14:43:35.295,4.6875,-23.5626
14:43:35.305,6.2188,-21.5626
14:43:35.315,6.9063,-18.0001
14:43:35.325,8.625,-17.1876
14:43:35.335,9.1875,-15.8126
14:43:35.345,8.4375,-14.7501
14:43:35.355,8.9688,-14.8126
14:43:35.366,8.4063,-14.2501
14:43:35.378,8.4688,-15.6876
14:43:35.385,7.0625,-16.5001
14:43:35.395,6.7188,-18.0626
14:43:35.405,5.2813,-19.0626
14:43:35.415,4.8125,-22.1251
14:43:35.428,3.125,-23.1876
14:43:35.435,2,-25.9376
14:43:35.445,0.9375,-28.0626
14:43:35.455,-0.375,-30.6876
14:43:35.466,-2.25,-32.3751
14:43:35.475,-3.4688,-35.8751
14:43:35.485,-5,-37.6876
14:43:35.495,-6.5,-41.0002
14:43:35.505,-8.0938,-42.3127
14:43:35.516,-9.0313,-44.8752
14:43:35.525,-10.6563,-46.3752
14:43:35.535,-11.125,-49.3752
14:43:35.557,-12.4688,-50.0002
14:43:35.559,-13.0625,-52.8127
14:43:35.568,-14.1876,-52.5002
14:43:35.576,-14.0313,-55.5002
14:43:35.590,-15.5938,-55.1877
14:43:35.597,-15.3126,-57.5627
14:43:35.605,-16.6563,-57.1252
14:43:35.615,-17.0313,-58.9377
14:43:35.626,-16.6876,-59.0627
14:43:35.635,-17.7501,-59.9377
14:43:35.645,-17.7188,-61.1877
14:43:35.655,-18.6251,-61.3127
14:43:35.665,-18.5938,-61.6877
14:43:35.675,-18.9376,-61.7502
14:43:35.685,-19.2501,-62.2502
14:43:35.719,-19.6563,-64.1877
14:43:35.723,-20.0626,-63.5002
14:43:35.724,-20.7813,-64.5002
14:43:35.727,-20.5001,-64.3752
14:43:35.736,-20.8126,-65.0627
14:43:35.745,-19.5313,-63.6252
14:43:35.755,-17.4688,-62.0002
14:43:35.784,-11.3438,-55.0002
14:43:35.786,-2.375,-39.3752
14:43:35.789,11.6563,-15.8751
14:43:35.818,22.5626,6.8125
14:43:35.820,30.0939,22.7501
14:43:35.823,34.5626,34.0001
14:43:35.828,37.5939,39.6252
14:43:35.857,38.5314,43.4377
14:43:35.859,38.3126,43.2502
14:43:35.862,36.8439,43.1252
14:43:35.866,36.0001,40.8127
14:43:35.893,34.0939,37.6251
14:43:35.895,31.9376,34.1251
14:43:35.898,29.8751,30.1876
14:43:35.927,27.0314,26.0001
14:43:35.929,24.9376,21.5626
14:43:35.932,22.6563,17.6876
14:43:35.938,20.0626,13.3751
14:43:35.954,18.7188,8.8125
14:43:35.956,16.0313,5.75
14:43:35.965,14.5938,2.5625
14:43:35.976,13.4376,-0.5
14:43:35.985,11,-4.3125
14:43:35.995,8.6875,-7
14:43:36.005,7.1875,-9.9375
14:43:36.016,6.1563,-12.4375
14:43:36.025,4.9375,-14.6876
14:43:36.035,5.25,-15.3126
14:43:36.045,5.1563,-16.1876
14:43:36.055,4.8438,-15.4376
14:43:36.067,5.8125,-13.5001
14:43:36.075,7.6563,-12.0625
14:43:36.085,8.0313,-10.3125
14:43:36.104,9.2188,-7
14:43:36.109,10.4688,-5.75
14:43:36.116,11.2188,-4.5
14:43:36.125,11.4063,-2.6875
14:43:36.148,12.4375,-2.5
14:43:36.151,11.375,-3.1875
14:43:36.158,10.5313,-3.25
14:43:36.168,10.25,-4.5
14:43:36.175,9,-6.75
14:43:36.185,7.8125,-7.625
14:43:36.195,7.625,-10.5625
14:43:36.208,5.6563,-12.4375
14:43:36.215,4.4063,-15.2501
14:43:36.225,3.25,-17.1251
14:43:36.235,1.625,-20.0001
14:43:36.245,0.875,-21.8126
14:43:36.258,-1.3438,-24.3751
14:43:36.265,-2.6563,-26.6251
14:43:36.275,-3.1875,-29.1876
14:43:36.285,-4.8438,-32.0001
14:43:36.298,-6.4375,-33.4376
14:43:36.305,-7.2188,-36.5001
14:43:36.315,-8.375,-38.1876
14:43:36.325,-9.1875,-40.1252
14:43:36.338,-10.3438,-42.9377
14:43:36.345,-10.6875,-43.6252
14:43:36.355,-11.5938,-45.9377
14:43:36.365,-11.9688,-46.4377
14:43:36.377,-13.1876,-48.3127
14:43:36.385,-13.9376,-49.3127
14:43:36.395,-13.5938,-49.9377
14:43:36.405,-15.0938,-50.7502
14:43:36.417,-14.9063,-51.0627
14:43:36.427,-15.6563,-52.1877
14:43:36.436,-16.0626,-52.6252
14:43:36.445,-16.5626,-54.3752
14:43:36.456,-17.4376,-53.4377
14:43:36.465,-17.2188,-54.7502
14:43:36.475,-17.7813,-54.1877
14:43:36.485,-17.6251,-55.6877
14:43:36.509,-17.4376,-56.0002
14:43:36.512,-18.8751,-55.5627
14:43:36.540,-18.6251,-57.1877
14:43:36.540,-17.9688,-56.9377
14:43:36.543,-19.5313,-57.2502
14:43:36.545,-18.0001,-57.0002
14:43:36.580,-18.7501,-57.5002
14:43:36.581,-16.2813,-54.8752
14:43:36.584,-11.0625,-49.0627
14:43:36.612,-2.5625,-36.9376
14:43:36.614,11.7813,-12.75
14:43:36.615,23.8126,13.2501
14:43:36.620,32.1251,30.7501
14:43:36.646,37.9376,42.3752
14:43:36.648,40.8127,49.8127
14:43:36.650,42.0314,52.5627
14:43:36.655,42.3127,54.8127
14:43:36.678,41.1877,53.8127
14:43:36.682,40.2189,51.9377
14:43:36.685,37.2814,49.8752
14:43:36.697,36.0001,44.8127
14:43:36.708,32.5001,41.6252
14:43:36.715,30.5626,35.9376
14:43:36.725,28.3439,31.6251
14:43:36.735,25.2188,26.2501
14:43:36.746,23.3126,21.3126
14:43:36.755,19.7813,16.6251
14:43:36.765,17.8751,12.25
14:43:36.775,15.7813,8.5
14:43:36.787,13.7813,4.9375
14:43:36.795,12.0938,0.8125
14:43:36.805,9.6563,-2.4375
14:43:36.815,7.7188,-6.1875
14:43:36.827,6.1563,-8.3125
14:43:36.839,4.9688,-11.0625
14:43:36.845,4.3438,-12.9375
14:43:36.856,4.25,-13.1251
14:43:36.875,4.8438,-12.5625
14:43:36.877,5.6875,-10.4375
14:43:36.894,7.1875,-7.875
14:43:36.896,9.5938,-5.5625
14:43:36.910,10.5625,-1.4375
14:43:36.915,12.5313,0.8125
14:43:36.925,13.0313,2.9375
14:43:36.935,13.8751,3.9375
14:43:36.945,13.5626,4.625
14:43:36.957,13.0938,4.625
14:43:36.965,12.9375,2.8125
14:43:36.997,12.4063,3.125
14:43:36.999,11.1875,0.3125
14:43:37.002,10.25,-0.5
14:43:37.008,8.5625,-3.5
14:43:37.015,7.6875,-4.5625
14:43:37.025,6.0625,-8.5
14:43:37.035,4.8438,-10.375
14:43:37.051,3,-14.5001
14:43:37.056,1.5,-16.5626
14:43:37.065,0.4688,-19.0001
14:43:37.076,-2.1875,-21.8126
14:43:37.085,-3.0938,-24.5626
14:43:37.095,-4.6563,-26.8126
14:43:37.105,-6.5313,-29.8126
14:43:37.118,-7.6563,-31.5626
14:43:37.125,-8.8125,-34.8751
14:43:37.135,-9.6875,-35.5626
14:43:37.146,-11,-38.4376
14:43:37.155,-11.9375,-39.5627
14:43:37.165,-13.0625,-41.8127
14:43:37.186,-13.3751,-42.8752
14:43:37.190,-15.3126,-43.8752
14:43:37.195,-15.6563,-45.4377
14:43:37.228,-16.4688,-47.3127
14:43:37.229,-17.2501,-47.1877
14:43:37.232,-17.8751,-47.5627
14:43:37.236,-17.9063,-49.1252
14:43:37.270,-18.2813,-49.3752
14:43:37.273,-19.0313,-49.8752
14:43:37.276,-18.8438,-50.4377
14:43:37.280,-19.0313,-50.1252
14:43:37.285,-19.4376,-51.9377
14:43:37.313,-19.4688,-50.8752
14:43:37.315,-20.0938,-53.0002
14:43:37.317,-20.2501,-52.5627
14:43:37.325,-20.6251,-52.0627
14:43:37.351,-20.9063,-52.9377
14:43:37.355,-20.9688,-53.6877
14:43:37.357,-21.8751,-53.7502
14:43:37.365,-21.3438,-54.1877
14:43:37.375,-19.4063,-52.2502
14:43:37.388,-17.8438,-49.7502
14:43:37.395,-12.4063,-44.1877
14:43:37.405,-1.7188,-29.4376
14:43:37.416,12.3125,-3
14:43:37.433,24.9063,21.5626
14:43:37.439,32.1564,38.5626
14:43:37.456,37.1251,49.4377
14:43:37.456,40.1877,56.1877
14:43:37.472,40.7814,59.6252
14:43:37.475,41.2814,60.9377
14:43:37.488,39.5627,58.9377
14:43:37.497,38.8751,57.4377
14:43:37.505,36.0314,54.0627
14:43:37.516,34.2814,49.8127
14:43:37.525,31.3126,45.2502
14:43:37.535,28.3751,39.8752
14:43:37.545,26.3751,34.5001
14:43:37.556,23.0313,29.8126
14:43:37.565,19.5626,23.7501
14:43:37.575,17.5001,18.8126
14:43:37.585,14.4376,13.3751
14:43:37.597,11.75,8.875
14:43:37.605,9,4.625
14:43:37.615,6.7813,0.0625
14:43:37.625,4.5938,-3.5625
14:43:37.635,2.6563,-7.1875
14:43:37.646,0.75,-11.375
14:43:37.655,0.0625,-12.6875
14:43:37.665,-0.5938,-14.8751
14:43:37.675,-0.375,-14.6876
14:43:37.685,0.7188,-13.2501
14:43:37.696,2.0625,-11.6875
14:43:37.705,3,-8.1875
14:43:37.715,5.25,-5.125
14:43:37.727,8.2188,-1.125
14:43:37.735,9.875,2.125
14:43:37.745,11.125,4.9375
14:43:37.756,11.5938,6.9375
14:43:37.768,11.6563,8.625
14:43:37.775,11.8125,7.375
14:43:37.785,10.5938,6.6875
14:43:37.801,10.0625,5.125
14:43:37.805,8.3125,3.875
14:43:37.816,7.4063,1.125
14:43:37.825,5.9375,-0.75
14:43:37.835,4.3125,-3.6875
14:43:37.845,2.8125,-7.0625
14:43:37.855,1.0625,-10.3125
14:43:37.865,-0.3125,-13.3126
14:43:37.875,-1.6563,-16.2501
14:43:37.885,-3.3125,-19.0626
14:43:37.896,-5.2813,-22.2501
14:43:37.906,-6.6875,-25.1876
14:43:37.915,-8.8125,-27.6251
14:43:37.925,-9.6875,-29.8126
14:43:37.936,-11.4063,-32.3751
14:43:37.945,-12.0625,-34.6876
14:43:37.974,-14.4063,-36.4376
14:43:37.977,-14.8751,-38.0626
14:43:37.980,-15.9376,-40.7502
14:43:37.985,-17.0938,-41.4377
14:43:38.014,-17.8126,-43.0002
14:43:38.016,-17.5313,-44.2502
14:43:38.019,-19.0938,-45.4377
14:43:38.025,-19.6563,-46.6252
14:43:38.064,-20.4688,-46.8752
14:43:38.069,-20.6251,-48.0002
14:43:38.071,-20.7501,-48.6877
14:43:38.072,-21.5626,-47.8127
14:43:38.077,-21.8438,-49.4377
14:43:38.105,-21.5001,-49.8752
14:43:38.107,-22.1876,-50.3752
14:43:38.109,-21.9688,-50.3752
14:43:38.115,-22.5626,-50.5002
14:43:38.126,-22.3751,-50.9377
14:43:38.137,-22.6876,-51.3127
14:43:38.145,-22.5001,-51.4377
14:43:38.155,-23.1563,-51.0627
14:43:38.165,-21.6563,-51.9377
14:43:38.177,-19.6251,-48.6252
14:43:38.193,-15.5626,-44.4377
14:43:38.195,-6.7188,-33.8751
14:43:38.210,7.4375,-10.5625
14:43:38.226,20.6876,17.1251
14:43:38.242,30.9064,37.2501
14:43:38.246,36.6876,51.0002
14:43:38.249,40.3127,58.0627
14:43:38.276,41.7814,62.5002
14:43:38.279,41.5627,64.3752
14:43:38.281,41.0627,63.7502
14:43:38.285,40.0939,61.5002
14:43:38.295,37.3751,58.1877
14:43:38.308,35.6564,53.6252
14:43:38.315,33.1564,49.0627
14:43:38.325,29.4689,44.8127
14:43:38.336,27.0001,38.1251
14:43:38.347,22.8438,32.6251
14:43:38.355,19.9688,25.8751
14:43:38.365,17.1251,20.3126
14:43:38.376,13.9376,14.6876
14:43:38.385,11,9.9375
14:43:38.395,8.1875,5.4375
14:43:38.405,5.3438,-0.5625
14:43:38.415,2.75,-4.875
14:43:38.425,0.875,-9.9375
14:43:38.436,-0.9375,-12.6875
14:43:38.445,-1.625,-15.4376
14:43:38.458,-2.7188,-16.9376
14:43:38.465,-2.4063,-16.5626
14:43:38.476,-1.1875,-16.3126
14:43:38.485,0,-13.7501
14:43:38.495,2.5,-10
14:43:38.507,5.3438,-5.5
14:43:38.515,8.2813,-0.125
14:43:38.525,11.1563,4.4375
14:43:38.537,12.7188,8.6875
14:43:38.554,13.7188,10.8125
14:43:38.555,14.0001,11.375
14:43:38.566,13.5313,11.8125
14:43:38.575,13.0313,9.8125
14:43:38.585,11.6563,9.125
14:43:38.595,10.7188,6.1875
14:43:38.608,9.6563,4.9375
14:43:38.615,8.1563,1.5
14:43:38.625,6.5313,-0.9375
14:43:38.635,5.0938,-3.75
14:43:38.645,3.4375,-7.875
14:43:38.655,1.0313,-10.75
14:43:38.666,-0.5938,-14.3751
14:43:38.686,-1.9688,-16.5001
14:43:38.689,-4.1875,-20.5626
14:43:38.714,-5.4688,-23.1876
14:43:38.716,-6.9375,-25.7501
14:43:38.719,-8.7188,-27.3126
14:43:38.726,-9.375,-29.2501
14:43:38.736,-11.5625,-31.1876
14:43:38.863,-11.625,-33.8126
14:43:38.863,-12.9063,-36.0001
14:43:38.868,-14.3126,-36.7501
14:43:38.872,-14.5938,-38.6876
14:43:38.873,-16.2188,-39.1251
14:43:38.873,-15.7188,-41.0002
14:43:38.880,-17.5001,-41.5002
14:43:38.891,-17.3126,-43.1252
14:43:38.900,-18.3438,-43.5627
14:43:38.910,-18.7813,-45.8752
14:43:38.928,-18.9688,-45.0002
14:43:38.930,-19.6563,-46.8752
14:43:38.943,-19.8438,-46.8127
14:43:38.951,-20.8438,-47.6877
14:43:38.960,-20.8126,-48.4377
14:43:38.971,-20.5938,-47.0627
14:43:38.980,-20.0001,-47.8127
14:43:39.015,-17.4063,-44.5002
14:43:39.018,-12.0625,-39.4377
14:43:39.020,-2.5938,-25.8751
14:43:39.026,11.875,0.125
14:43:39.035,23.5626,24.7501
14:43:39.045,41.0314,65.7502
14:43:39.055,38.3751,61.6252
14:43:39.065,35.1876,55.4377
14:43:39.080,32.4689,49.7502
14:43:39.090,28.5001,44.4377
14:43:39.100,25.4688,37.1251
14:43:39.112,21.7501,32.2501
14:43:39.120,19.1251,25.1251
14:43:39.130,15.6876,20.3126
14:43:39.143,12.8125,12.75
14:43:39.150,10.25,7.3125
14:43:39.161,6.1875,1.0625
14:43:39.170,3.3125,-5.1875
14:43:39.181,2.1563,-7.9375
14:43:39.190,0.875,-10.9375
14:43:39.201,0.8438,-11.0625
14:43:39.210,1.8438,-12
14:43:39.221,2.875,-9.8125
14:43:39.230,5.125,-8
14:43:39.243,9.0625,-0.75
14:43:39.250,12.6875,4.5625
14:43:39.260,15.2501,9.8125
14:43:39.272,17.2188,14.5626
14:43:39.281,18.3751,16.2501
14:43:39.290,18.2813,17.1251
14:43:39.301,18.0938,18.1876
14:43:39.310,17.5938,16.4376
14:43:39.320,16.6563,13.8126
14:43:39.331,16.0626,13
14:43:39.340,13.8438,9.5
14:43:39.350,12.1563,7.5625
14:43:39.361,10.6563,3.875
14:43:39.375,8.5313,0.5625
14:43:39.380,6.1875,-2
14:43:39.390,4.6563,-6.6875
14:43:39.401,2.25,-10.3125
14:43:39.424,0.75,-12.8125
14:43:39.426,-1.0625,-16.7501
14:43:39.431,-2.8125,-19.6876
14:43:39.459,-4.4688,-21.1251
14:43:39.462,-5.4375,-24.6251
14:43:39.464,-7.1875,-27.1251
14:43:39.470,-7.9063,-29.6876
14:43:39.537,-9.6563,-30.5001
14:43:39.539,-10.3125,-31.9376
14:43:39.566,-11.5938,-34.6876
14:43:39.589,-12.25,-35.7501
14:43:39.591,-13.3751,-37.1876
14:43:39.591,-13.8126,-37.8126
14:43:39.593,-14.2501,-39.5627
14:43:39.595,-15.5001,-40.7502
14:43:39.600,-16.3751,-40.8127
14:43:39.611,-16.0626,-42.8127
14:43:39.620,-17.0626,-43.3752
14:43:39.631,-17.9376,-43.8127
14:43:39.640,-18.4376,-44.5002
14:43:39.650,-17.9688,-45.1252
14:43:39.660,-17.0626,-44.5002
14:43:39.676,-15.3126,-42.9377
14:43:39.680,-10.5625,-38.3126
14:43:39.690,-2.4375,-25.1876
14:43:39.700,11.7813,-2.875
14:43:39.711,26.0313,26.2501
14:43:39.720,35.8439,47.1252
14:43:39.730,42.0314,60.3752
14:43:39.740,49.2189,80.1253
14:43:39.751,47.7502,76.7503
14:43:39.760,45.9064,73.9378
14:43:39.770,42.7189,68.1878
14:43:39.780,40.0314,63.3127
14:43:39.790,36.2501,58.3127
14:43:39.801,33.1876,51.2502
14:43:39.811,30.1876,46.2502
14:43:39.820,27.3751,40.3127
14:43:39.830,24.5938,34.1251
14:43:39.840,20.6251,28.9376
14:43:39.853,18.4376,23.2501
14:43:39.860,16.0626,19.0626
14:43:39.870,13.6251,13.1876
14:43:39.883,10.6875,8.75
14:43:39.890,8.75,4.875
14:43:39.900,7.5313,1.6875
14:43:39.911,6.7813,-0.0625
14:43:39.920,6.2813,-1.0625
14:43:39.930,7.4375,-0.25
14:43:39.940,7.875,1.375
14:43:39.951,10.6563,4.5
14:43:39.960,12.6875,8.9375
14:43:39.970,15.0938,13.6876
14:43:39.980,17.0626,16.1876
14:43:39.990,17.8751,20.1251
14:43:40.002,18.9376,21.9376
14:43:40.010,19.3126,22.7501
14:43:40.020,19.6251,22.3751
14:43:40.033,18.5626,21.7501
14:43:40.040,17.7501,20.1876
14:43:40.051,16.7188,17.0626
14:43:40.061,15.4688,15.3126
14:43:40.071,14.7501,12.0625
14:43:40.081,12.9375,9.5
14:43:40.090,10.6563,6
14:43:40.105,9.8438,2.625
14:43:40.120,7.3438,-1.1875
14:43:40.123,6.0625,-4.25
14:43:40.133,3.8438,-8.125
14:43:40.141,1.6875,-10.4375
14:43:40.151,0.5938,-14.3126
14:43:40.161,-1.0313,-16.9376
14:43:40.172,-2.3125,-19.3126
14:43:40.180,-4.3438,-22.9376
14:43:40.190,-5.9688,-25.5001
14:43:40.202,-7.1875,-26.6876
14:43:40.210,-7.4688,-29.1251
14:43:40.235,-8.125,-31.5001
14:43:40.238,-8.8438,-32.1876
14:43:40.240,-8.625,-33.3126
14:43:40.272,-9.0938,-35.0001
14:43:40.272,-8.9375,-34.7501
14:43:40.274,-8.5313,-35.7501
14:43:40.280,-8.4375,-36.3751
14:43:40.315,-9.125,-38.1876
14:43:40.317,-9.5313,-38.7501
14:43:40.320,-9.3125,-38.4376
14:43:40.324,-9.0625,-39.8127
14:43:40.330,-9.4688,-39.5002
14:43:40.357,-9.9063,-40.7502
14:43:40.359,-9.3125,-41.3127
14:43:40.362,-9.5625,-40.3752
14:43:40.395,-8.7813,-40.8127
14:43:40.398,-7.1875,-40.3127
14:43:40.400,-5.4063,-37.3126
14:43:40.403,1.375,-30.5626
14:43:40.410,11.8438,-12.8125
14:43:40.426,27.6876,16.1251
14:43:40.431,39.7189,43.5002
14:43:40.440,47.6877,62.0002
14:43:40.451,52.0939,73.0628
14:43:40.460,55.0627,79.8128
14:43:40.470,56.1565,82.4378
14:43:40.483,55.094,84.0628
14:43:40.490,54.094,82.5003
14:43:40.500,52.0002,79.2503
14:43:40.511,50.1877,77.2503
14:43:40.520,47.6564,71.5628
14:43:40.530,44.6252,67.4378
14:43:40.540,41.1877,61.9377
14:43:40.550,38.4064,56.5627
14:43:40.560,35.0939,50.4377
14:43:40.570,32.5001,45.1252
14:43:40.580,29.0626,38.8751
14:43:40.590,26.3751,34.3751
14:43:40.601,24.0938,29.2501
14:43:40.610,21.5626,25.1876
14:43:40.620,18.9688,19.9376
14:43:40.630,16.5001,15.2501
14:43:40.640,14.3438,11.125
14:43:40.652,12.5625,8.25
14:43:40.660,11.2188,5.125
14:43:40.670,11.0938,4
14:43:40.681,10.5625,3.25
14:43:40.691,10.9688,3.75
14:43:40.700,12,5.5
14:43:40.711,13.8751,8.25
14:43:40.720,16.0001,11.8125
14:43:40.730,17.1563,16.0626
14:43:40.740,18.9688,18.3751
14:43:40.750,19.8751,20.9376
14:43:40.760,20.3751,22.0001
14:43:40.770,20.7501,21.9376
14:43:40.780,20.2188,21.6876
14:43:40.791,18.9688,20.1251
14:43:40.800,18.0938,18.2501
14:43:40.810,16.4688,16.1251
14:43:40.838,15.4376,13.6251
14:43:40.844,13.4688,9.875
14:43:40.860,11.375,7.5625
14:43:40.861,9.8438,4.3125
14:43:40.876,7.4063,0.875
14:43:40.892,5.9375,-2.8125
14:43:40.894,3.5938,-6.125
14:43:40.909,1.75,-9.5
14:43:40.911,0.625,-13.2501
14:43:40.914,-1.9688,-16.3126
14:43:40.921,-3.625,-19.6251
14:43:40.930,-4.5625,-22.3126
14:43:40.952,-7.0625,-24.8126
14:43:40.954,-7.625,-28.0626
14:43:40.984,-9.4063,-30.0626
14:43:40.987,-9.8438,-31.9376
14:43:40.989,-11.4375,-35.0626
14:43:40.992,-13,-36.1251
14:43:41.024,-13.8438,-37.5001
14:43:41.028,-13.5938,-38.7501
14:43:41.028,-14.1876,-39.8752
14:43:41.031,-15.4688,-41.6252
14:43:41.067,-16.1563,-41.5002
14:43:41.069,-16.5313,-42.1877
14:43:41.071,-16.1251,-43.5002
14:43:41.076,-16.8438,-44.5627
14:43:41.080,-17.3438,-44.6252
14:43:41.117,-18.2188,-45.2502
14:43:41.119,-17.7188,-46.2502
14:43:41.121,-18.1251,-45.6877
14:43:41.124,-18.0626,-46.5002
14:43:41.130,-19.0938,-46.8752
14:43:41.140,-19.4063,-47.2502
14:43:41.150,-19.4688,-48.5002
14:43:41.160,-20.1563,-48.3127
14:43:41.176,-20.4063,-49.0002
14:43:41.180,-20.5001,-48.8127
14:43:41.190,-19.8438,-49.3752
14:43:41.200,-17.4063,-47.1877
14:43:41.210,-13.6251,-42.3127
14:43:41.221,-5.3438,-30.9376
14:43:41.230,9.7188,-6.1875
14:43:41.241,24.1563,26.0626
14:43:41.250,34.9064,49.4377
14:43:41.260,41.0939,65.3127
14:43:41.271,44.8752,74.0628
14:43:41.280,46.7814,78.9378
14:43:41.290,47.2814,82.4378
14:43:41.302,46.8752,81.5628
14:43:41.310,45.8752,81.3753
14:43:41.320,44.1252,77.1878
14:43:41.331,41.6252,74.5628
14:43:41.340,39.0939,69.5003
14:43:41.351,36.3126,64.5002
14:43:41.360,33.8126,58.6877
14:43:41.370,31.3126,53.6252
14:43:41.381,28.1251,48.7502
14:43:41.390,25.9688,43.4377
14:43:41.406,23.0001,38.8751
14:43:41.412,21.5313,34.0001
14:43:41.428,18.7813,29.1876
14:43:41.430,16.3438,25.2501
14:43:41.445,14.0313,20.4376
14:43:41.450,11.8125,15.9376
14:43:41.460,10.5,13.4376
14:43:41.470,8.8438,9.5625
14:43:41.480,8.5,7.625
14:43:41.490,7.9375,6.6875
14:43:41.500,7.9375,6.5625
14:43:41.510,8.7813,6.75
14:43:41.520,9.875,9.5625
14:43:41.531,11.3438,11.9375
14:43:41.540,13.5626,15.2501
14:43:41.551,15.0938,18.3126
14:43:41.560,15.7813,21.3126
14:43:41.570,16.7813,23.7501
14:43:41.581,17.0938,23.6251
14:43:41.590,16.5313,23.1876
14:43:41.600,16.0938,22.5626
14:43:41.612,15.5001,21.0001
14:43:41.620,13.9376,19.0001
14:43:41.645,12.9688,16.4376
14:43:41.648,11.0938,14.0001
14:43:41.650,9.4063,10.75
14:43:41.676,7.5313,7.875
14:43:41.681,5.8125,4.125
14:43:41.683,4.1875,0.8125
14:43:41.713,2.5625,-3.125
14:43:41.716,-0.3125,-6.4375
14:43:41.718,-1.5,-10.1875
14:43:41.720,-4.1875,-13.0625
14:43:41.758,-5.2813,-16.6251
14:43:41.760,-7.5938,-20.3751
14:43:41.763,-9.9375,-23.1251
14:43:41.768,-12.9688,-24.8126
14:43:41.771,-16.1876,-29.0626
14:43:41.800,-21.5626,-33.5001
14:43:41.802,-27.5001,-35.6251
14:43:41.805,-32.9064,-40.3127
14:43:41.811,-39.9377,-45.3127
14:43:41.820,-47.9377,-47.6877
14:43:41.830,-52.6565,-51.5627
14:43:41.841,-59.2815,-55.8127
14:43:41.850,-65.1252,-58.9377
14:43:41.860,-68.1565,-60.8127
14:43:41.871,-73.9378,-63.8127
14:43:41.880,-79.7816,-66.8753
14:43:41.890,-86.2191,-71.0003
14:43:41.900,-92.6254,-74.5628
14:43:41.910,-95.9379,-76.1878
14:43:41.926,-98.2816,-76.7503
14:43:41.930,-99.6879,-76.2503
14:43:41.941,-101.1566,-76.3128
14:43:41.953,-102.7504,-76.6253
14:43:41.960,-103.7816,-76.1878
14:43:41.970,-110.0942,-79.5628
14:43:41.980,-114.0942,-82.6878
14:43:41.990,-117.3129,-84.4378
14:43:42.001,-120.7192,-86.3753
14:43:42.010,-136.188,-98.0004
14:43:42.020,-153.4068,-112.5004
14:43:42.032,-163.6569,-119.063
14:43:42.040,-171.9694,-122.563
14:43:42.050,-176.7819,-120.813
14:43:42.061,-176.2194,-109.0004
14:43:42.070,-170.4694,-94.5629
14:43:42.081,-161.0944,-74.8128
14:43:42.090,-152.0006,-58.3752
14:43:42.116,-142.5005,-42.0002
14:43:42.119,-134.3755,-26.6876
14:43:42.121,-126.938,-15.0001
14:43:42.130,-120.563,-5.5625
14:43:42.141,-116.1567,3.375
14:43:42.151,-113.8442,7.625
14:43:42.160,-111.5942,10.625
14:43:42.177,-111.5004,13
14:43:42.179,-109.9379,12.125
14:43:42.194,-111.1567,11.3125
14:43:42.200,-113.3129,9.5
14:43:42.210,-114.3754,6.625
14:43:42.219,-115.9692,3.9375
14:43:42.230,-115.2504,1.5
14:43:42.240,-113.8129,0.4375
14:43:42.251,-112.6879,0.6875
14:43:42.260,-111.8129,-2.5625
14:43:42.272,-111.4692,-3.8125
14:43:42.280,-110.2504,-5.6875
14:43:42.290,-109.1567,-8.1875
14:43:42.304,-108.5004,-9.5
14:43:42.310,-106.8442,-10.625
14:43:42.320,-105.1879,-11.0625
14:43:42.330,-102.6254,-11.75
14:43:42.361,-99.6254,-9.75
14:43:42.363,-95.3129,-7.8125
14:43:42.366,-90.9379,-4.1875
14:43:42.393,-86.6566,-1.75
14:43:42.394,-82.9691,1.875
14:43:42.397,-79.7191,4.25
14:43:42.400,-77.7815,7.0625
14:43:42.432,-73.5003,8.75
14:43:42.434,-72.1253,10.1875
14:43:42.436,-69.6565,9.6875
14:43:42.440,-68.1878,10.9375
14:43:42.469,-67.2815,9.6875
14:43:42.474,-67.5628,8.0625
14:43:42.475,-72.4378,4.6875
14:43:42.481,-76.594,-0.6875
14:43:42.513,-79.4691,-5.375
14:43:42.515,-81.2191,-7.875
14:43:42.518,-80.8441,-10.9375
14:43:42.523,-80.4691,-10.9375
14:43:42.530,-79.5003,-13
14:43:42.541,-79.1566,-16.0001
14:43:42.550,-80.1878,-17.5626
14:43:42.560,-80.7191,-22.3126
14:43:42.572,-83.6566,-26.0001
14:43:42.580,-85.2503,-29.6251
14:43:42.591,-87.5003,-33.5001
14:43:42.600,-88.3441,-36.5626
14:43:42.610,-88.9378,-38.4376
14:43:42.620,-89.1253,-39.5627
14:43:42.630,-88.6566,-43.1252
14:43:42.640,-90.2191,-45.1877
14:43:42.651,-90.8754,-49.0627
14:43:42.660,-92.3441,-52.9377
14:43:42.674,-94.4691,-56.3127
14:43:42.684,-96.6254,-60.5627
14:43:42.690,-98.6254,-62.0627
14:43:42.701,-97.7191,-62.7502
14:43:42.715,-95.2816,-63.0627
14:43:42.730,-93.9691,-61.8752
14:43:42.732,-91.9379,-61.9377
14:43:42.741,-90.9066,-61.5002
14:43:42.750,-89.2191,-61.8127
14:43:42.760,-87.9691,-62.0002
14:43:42.772,-87.6566,-62.7502
14:43:42.780,-87.3441,-62.6252
14:43:42.791,-86.9691,-64.8127
14:43:42.800,-86.5628,-64.6877
14:43:42.810,-86.7191,-66.8753
14:43:42.823,-86.3441,-67.8753
14:43:42.830,-86.9691,-70.3128
14:43:42.841,-89.3128,-72.1253
14:43:42.850,-90.5941,-75.8753
14:43:42.860,-90.6566,-77.3128
14:43:42.870,-90.3753,-79.3128
14:43:42.880,-88.9691,-77.5628
14:43:42.890,-83.1253,-72.0003
14:43:42.900,-71.9378,-55.9377
14:43:42.910,-57.219,-35.3751
14:43:42.923,-43.5002,-11.375
14:43:42.929,-29.2814,8.625
14:43:42.940,-19.1876,26.9376
14:43:42.950,-10.2813,39.4377
