timestamp,Red,IR
14:52:56.868,10.0938,39.5627
14:52:56.879,8.8438,37.0001
14:52:56.889,6.75,32.9376
14:52:56.899,5.3125,28.7501
14:52:56.909,4.2813,26.3126
14:52:56.920,3.0938,23.3126
14:52:56.930,1.9063,20.3438
14:52:56.940,1.5313,16.4376
14:52:56.949,-0.0625,13.3438
14:52:56.958,-1.4688,10.7813
14:52:56.968,-2.5938,7.2813
14:52:56.978,-4.625,4.375
14:52:56.988,-5.1563,0.625
14:52:56.998,-6.7813,-3.5625
14:52:57.014,-8.5,-6.0625
14:52:57.023,-9.8438,-10
14:52:57.034,-10.9063,-12.8438
14:52:57.043,-11.1563,-16.0313
14:52:57.053,-13.0625,-18.8126
14:52:57.064,-14.1876,-22.7501
14:52:57.073,-16.6563,-26.0001
14:52:57.084,-18.1563,-29.0314
14:52:57.093,-19.5938,-32.8751
14:52:57.103,-21.3126,-35.2814
14:52:57.113,-22.9688,-38.7814
14:52:57.125,-24.8751,-42.9377
14:52:57.134,-25.9063,-44.9064
14:52:57.143,-26.6251,-48.7814
14:52:57.167,-28.0626,-50.4689
14:52:57.174,-29.4689,-54.0627
14:52:57.174,-31.6251,-58.469
14:52:57.217,-32.8751,-61.0627
14:52:57.223,-34.1564,-64.6565
14:52:57.223,-35.4689,-67.0003
14:52:57.284,-37.2814,-70.0003
14:52:57.287,-37.6564,-73.0628
14:52:57.314,-39.0001,-74.7503
14:52:57.314,-39.5939,-77.1253
14:52:57.315,-40.3127,-79.0628
14:52:57.322,-42.0002,-83.2191
14:52:57.325,-43.2814,-84.6878
14:52:57.327,-44.5314,-88.3128
14:52:57.334,-45.7502,-88.9691
14:52:57.343,-47.2814,-92.7191
14:52:57.357,-47.6252,-93.8754
14:52:57.364,-49.0314,-96.9691
14:52:57.373,-49.4064,-97.6566
14:52:57.388,-50.6252,-99.8129
14:52:57.404,-51.4377,-101.4379
14:52:57.406,-52.0314,-104.0316
14:52:57.413,-52.719,-105.2504
14:52:57.423,-54.2815,-108.6567
14:52:57.433,-55.2815,-110.1254
14:52:57.443,-55.3127,-111.9379
14:52:57.453,-63.0315,-129.1255
14:52:57.463,-64.219,-131.7505
14:52:57.473,-64.9377,-132.0005
14:52:57.485,-64.719,-133.8755
14:52:57.494,-63.594,-131.0005
14:52:57.505,-59.6565,-126.5005
14:52:57.513,-53.3127,-115.3754
14:52:57.523,-44.8439,-101.5629
14:52:57.533,-35.1564,-83.0628
14:52:57.543,-25.9376,-66.0628
14:52:57.554,-16.5313,-46.8752
14:52:57.563,-7.7813,-29.9376
14:52:57.574,0.4063,-13.2501
14:52:57.583,7.2188,0.9375
14:52:57.594,14.3126,16.0626
14:52:57.603,20.1251,28.5626
14:52:57.613,26.5314,41.7502
14:52:57.624,32.2501,54.9377
14:52:57.633,37.7501,65.8753
14:52:57.643,43.2189,77.5628
14:52:57.674,47.8752,89.4378
14:52:57.676,53.9377,100.1254
14:52:57.679,57.5627,111.4379
14:52:57.685,63.1565,121.6255
14:52:57.693,68.594,133.688
14:52:57.703,73.4378,143.0005
14:52:57.713,77.8128,153.5006
14:52:57.723,81.1253,161.2506
14:52:57.733,83.7503,168.7506
14:52:57.743,85.5941,174.5319
14:52:57.754,87.5941,178.4694
14:52:57.763,87.4691,179.9382
14:52:57.773,86.5316,179.8132
14:52:57.784,84.7503,178.1882
14:52:57.793,82.4691,175.4694
14:52:57.803,80.0628,172.8132
14:52:57.813,78.5941,168.0631
14:52:57.823,75.719,164.6881
14:52:57.835,73.7815,161.6569
14:52:57.844,71.7815,157.9694
14:52:57.853,70.844,155.5943
14:52:57.864,69.5315,153.8756
14:52:57.873,67.6565,151.5631
14:52:57.885,67.1878,149.1568
14:52:57.893,65.4378,147.063
14:52:57.903,63.469,144.188
14:52:57.932,61.9377,139.7818
14:52:57.934,59.7815,136.313
14:52:57.937,57.4065,132.9693
14:52:57.945,55.2815,128.1255
14:52:57.975,53.0315,124.188
14:52:57.977,50.9377,120.0317
14:52:57.979,48.6252,115.7817
14:52:57.984,47.2502,111.4379
14:52:57.998,44.4064,107.2192
14:52:58.022,41.5627,102.9691
14:52:58.025,39.2814,96.5941
14:52:58.028,36.5314,91.3754
14:52:58.036,33.7189,86.2503
14:52:58.067,31.7189,82.0316
14:52:58.069,29.2189,78.0003
14:52:58.072,26.8439,72.3753
14:52:58.075,24.8751,68.3753
14:52:58.083,23.0001,64.0002
14:52:58.094,21.5001,59.9065
14:52:58.104,19.9688,55.4065
14:52:58.115,17.1251,51.3752
14:52:58.124,14.2813,47.3127
14:52:58.137,12.4688,42.1877
14:52:58.143,10.9063,37.3126
14:52:58.154,8.8125,34.0314
14:52:58.164,6.7188,28.2189
14:52:58.173,4.6875,24.5313
14:52:58.183,3.2188,20.6563
14:52:58.196,2.0625,16.5626
14:52:58.204,-0.8438,12.7813
14:52:58.215,-2.4063,7.9063
14:52:58.225,-4.8125,3.2813
14:52:58.234,-5.7188,-0.2813
14:52:58.243,-7.5625,-4.1563
14:52:58.253,-10.0625,-7.8125
14:52:58.263,-11.6563,-12.0313
14:52:58.273,-13.2813,-16.2188
14:52:58.284,-15.0626,-18.8751
14:52:58.295,-16.0938,-22.9376
14:52:58.305,-17.9063,-27.3751
14:52:58.313,-19.3126,-31.1564
14:52:58.323,-20.7501,-34.7814
14:52:58.333,-22.7501,-37.5626
14:52:58.343,-23.9063,-40.4689
14:52:58.353,-25.0001,-44.7502
14:52:58.363,-26.7814,-48.5002
14:52:58.373,-28.7814,-52.1252
14:52:58.384,-30.3126,-54.219
14:52:58.393,-31.0001,-58.844
14:52:58.403,-33.0939,-60.4377
14:52:58.414,-34.1876,-64.8127
14:52:58.423,-34.9064,-67.3753
14:52:58.433,-37.0939,-70.6253
14:52:58.443,-37.4689,-73.8128
14:52:58.453,-39.3439,-76.8128
14:52:58.463,-40.3439,-80.3441
14:52:58.475,-41.8439,-82.9378
14:52:58.483,-44.1252,-85.3441
14:52:58.493,-45.4064,-90.0003
14:52:58.503,-47.3439,-91.7191
14:52:58.513,-48.0939,-96.6566
14:52:58.523,-50.0627,-98.1566
14:52:58.535,-50.7189,-102.0629
14:52:58.557,-51.8752,-105.2816
14:52:58.558,-53.594,-108.0317
14:52:58.575,-54.4377,-111.4067
14:52:58.578,-57.1565,-114.5317
14:52:58.584,-58.5002,-118.7817
14:52:58.594,-59.594,-120.7192
14:52:58.603,-61.0627,-124.7505
14:52:58.613,-62.1252,-126.5005
14:52:58.623,-63.6565,-129.6567
14:52:58.633,-64.1877,-133.3443
14:52:58.643,-66.4065,-135.438
14:52:58.654,-67.4065,-139.563
14:52:58.664,-68.2815,-142.4693
14:52:58.706,-70.6253,-145.3755
14:52:58.708,-71.5628,-149.5318
14:52:58.712,-74.344,-153.3443
14:52:58.716,-75.6878,-156.7818
14:52:58.717,-76.9378,-159.9069
14:52:58.754,-78.9378,-164.1881
14:52:58.758,-81.5003,-168.6881
14:52:58.759,-83.4378,-172.9694
14:52:58.762,-84.9378,-175.9069
14:52:58.765,-86.7503,-180.5632
14:52:58.797,-88.0003,-183.2195
14:52:58.798,-90.4691,-188.6882
14:52:58.801,-92.2191,-192.4382
14:52:58.806,-94.3754,-195.3132
14:52:58.835,-95.7816,-200.3133
14:52:58.836,-96.7504,-203.6258
14:52:58.838,-99.4379,-207.3758
14:52:58.851,-101.0004,-210.3133
14:52:58.853,-100.9066,-212.3758
14:52:58.864,-98.3129,-209.5008
14:52:58.873,-92.4379,-199.6258
14:52:58.883,-81.6566,-183.8757
14:52:58.918,-68.4378,-160.5006
14:52:58.921,-55.2502,-136.938
14:52:58.925,-41.9064,-111.5004
14:52:58.927,-30.0939,-89.1253
14:52:58.936,-18.5001,-66.6878
14:52:58.944,-8.4375,-45.9377
14:52:58.953,2.25,-25.8751
14:52:58.963,10.7813,-6
14:52:58.975,19.8126,11.0625
14:52:58.983,28.4689,30.0001
14:52:58.993,37.1251,46.0002
14:52:59.004,44.8439,63.3752
14:52:59.014,52.3127,78.6878
14:52:59.023,60.1252,95.4379
14:52:59.033,66.969,111.1254
14:52:59.043,74.219,126.188
14:52:59.053,79.8128,140.813
14:52:59.065,85.3753,154.3756
14:52:59.074,91.6879,166.5006
14:52:59.083,96.7504,178.6257
14:52:59.093,101.5004,188.2507
14:52:59.104,103.7816,196.8133
14:52:59.113,106.3754,201.7508
14:52:59.123,106.3442,205.8133
14:52:59.133,106.3129,206.1258
14:52:59.143,104.6566,205.1883
14:52:59.153,102.8129,203.2508
14:52:59.163,101.3441,200.1883
14:52:59.174,99.4379,197.2195
14:52:59.183,97.5629,194.532
14:52:59.194,95.7816,191.5632
14:52:59.203,94.7191,190.532
14:52:59.214,92.9379,187.8445
14:52:59.224,91.6879,186.2195
14:52:59.233,90.4691,185.2195
14:52:59.243,89.1878,182.4382
14:52:59.253,87.8441,180.5319
14:52:59.263,86.5003,177.8444
14:52:59.273,83.7191,175.3132
14:52:59.284,82.3128,171.3132
14:52:59.298,79.5941,167.5631
14:52:59.303,77.0003,163.4694
14:52:59.313,74.0628,159.2194
14:52:59.323,71.6253,153.6256
14:52:59.334,69.469,149.3443
14:52:59.344,67.4378,145.7193
14:52:59.355,64.6252,140.813
14:52:59.363,61.6877,136.5943
14:52:59.374,59.1565,130.8755
14:52:59.383,56.594,126.813
14:52:59.397,54.469,121.5317
14:52:59.403,52.2814,117.0004
14:52:59.434,49.4689,112.1254
14:52:59.437,46.9377,106.9379
14:52:59.441,43.8752,101.9066
14:52:59.443,41.8439,97.3754
14:52:59.454,39.4689,92.6254
14:52:59.493,37.0314,87.9378
14:52:59.496,34.7189,83.3128
14:52:59.498,32.6564,78.219
14:52:59.500,30.4689,74.0003
14:52:59.504,28.5939,69.5315
14:52:59.532,26.0001,64.9377
14:52:59.535,23.5001,60.8127
14:52:59.539,22.0938,56.8752
14:52:59.563,20.3126,51.6877
14:52:59.565,17.7501,48.0939
14:52:59.568,15.0626,42.9689
14:52:59.574,13.4063,38.0314
14:52:59.583,11,33.5314
14:52:59.593,9.0938,29.4064
14:52:59.603,7.2188,25.6876
14:52:59.613,5.4688,21.4688
14:52:59.623,4.0625,17.6876
14:52:59.633,2.0938,12.6563
14:52:59.649,0,8.5625
14:52:59.654,-1.8438,3.9688
14:52:59.663,-4.1563,-0.4375
14:52:59.673,-5.8438,-4.5313
14:52:59.683,-7.6563,-8.375
14:52:59.693,-9.9375,-12.7188
14:52:59.703,-11.4375,-15.9063
14:52:59.713,-13.5626,-19.8438
14:52:59.723,-14.9688,-24.3126
14:52:59.734,-15.9376,-27.7814
14:52:59.743,-18.0938,-31.7814
14:52:59.753,-20.5001,-35.3439
14:52:59.763,-21.6876,-38.8439
14:52:59.774,-23.4688,-43.0002
14:52:59.784,-25.3438,-46.5002
14:52:59.793,-26.7189,-50.5939
14:52:59.803,-28.1564,-53.8752
14:52:59.813,-29.5939,-56.9377
14:52:59.824,-30.7814,-59.7815
14:52:59.833,-32.1251,-63.1877
14:52:59.852,-34.0001,-67.4065
14:52:59.858,-35.6251,-70.5628
14:52:59.867,-37.8439,-74.469
14:52:59.873,-39.1564,-78.1253
14:52:59.890,-41.1877,-80.6878
14:52:59.905,-42.4064,-85.2191
14:52:59.908,-44.4064,-88.5941
14:52:59.914,-45.6252,-91.8129
14:52:59.923,-47.0314,-94.8441
14:52:59.933,-49.0627,-99.0629
14:52:59.945,-51.2814,-102.5004
14:52:59.953,-52.6252,-107.0004
14:52:59.963,-55.0627,-110.0004
14:52:59.981,-56.0627,-114.3442
14:52:59.983,-58.469,-117.1254
14:52:59.998,-59.4065,-121.5005
14:53:00.013,-61.7815,-124.063
14:53:00.015,-62.594,-128.688
14:53:00.036,-64.6565,-131.0318
14:53:00.039,-66.3128,-135.9693
14:53:00.043,-67.9378,-139.5005
14:53:00.053,-70.0628,-143.5318
14:53:00.063,-72.3753,-146.5006
14:53:00.073,-73.8128,-151.6881
14:53:00.083,-74.6565,-154.7818
14:53:00.094,-76.844,-158.3131
14:53:00.103,-78.3753,-162.4381
14:53:00.113,-80.4066,-165.9069
14:53:00.145,-83.0628,-171.0944
14:53:00.145,-85.0316,-175.5944
14:53:00.149,-86.5941,-178.9694
14:53:00.155,-88.0003,-181.0632
14:53:00.201,-85.4378,-179.6882
14:53:00.201,-80.9066,-172.2819
14:53:00.203,-72.6878,-159.6569
14:53:00.206,-62.3752,-140.688
14:53:00.217,-49.5627,-119.4692
14:53:00.217,-38.2189,-97.0629
14:53:00.244,-26.5626,-75.8128
14:53:00.247,-16.8126,-55.3127
14:53:00.249,-7.4063,-36.8126
14:53:00.255,1.625,-18.8126
14:53:00.287,10.5,-0.875
14:53:00.288,18.8438,16.1876
14:53:00.291,27.1564,32.6876
14:53:00.293,34.6251,48.5002
14:53:00.304,42.5002,64.5002
14:53:00.313,49.3127,80.1878
14:53:00.323,57.3127,94.8754
14:53:00.333,63.219,109.3442
14:53:00.343,69.9065,122.9067
14:53:00.353,75.719,136.6255
14:53:00.366,82.0941,149.5318
14:53:00.373,86.6253,161.3756
14:53:00.384,91.1566,170.8444
14:53:00.397,94.6566,179.7194
14:53:00.407,97.3754,186.4695
14:53:00.413,98.5629,191.032
14:53:00.423,99.0629,193.407
14:53:00.435,97.9379,194.282
14:53:00.443,96.5004,192.8132
14:53:00.454,93.9379,189.5945
14:53:00.464,91.1254,184.9695
14:53:00.473,87.7503,181.8132
14:53:00.483,85.7816,177.7819
14:53:00.493,83.0316,174.9069
14:53:00.504,81.7191,172.2507
14:53:00.514,80.4378,169.6256
14:53:00.523,79.0316,166.9694
14:53:00.533,77.844,164.9069
14:53:00.544,75.6565,162.0319
14:53:00.553,73.6878,159.5006
14:53:00.563,71.594,156.7506
14:53:00.573,69.094,152.9693
14:53:00.585,66.5315,147.8756
14:53:00.594,64.5315,144.1255
14:53:00.604,62.6252,140.2818
14:53:00.613,60.2502,136.188
14:53:00.623,58.3752,131.7818
14:53:00.634,55.7502,126.4692
14:53:00.643,52.4377,122.0005
14:53:00.653,50.0939,117.2504
14:53:00.663,47.5002,111.2192
14:53:00.673,45.0627,106.3754
14:53:00.683,41.8439,101.4066
14:53:00.696,39.4377,96.5941
14:53:00.704,37.3751,91.1879
14:53:00.713,35.8751,86.5628
14:53:00.726,33.7189,81.9066
14:53:00.733,30.8751,76.7503
14:53:00.743,28.2189,71.6253
14:53:00.753,25.4063,66.8128
14:53:00.764,23.2813,60.6565
14:53:00.773,21.5313,56.6252
14:53:00.783,19.5001,51.8752
14:53:00.793,16.8126,47.5314
14:53:00.803,15.5313,43.3752
14:53:00.814,13.7501,38.6876
14:53:00.826,11.8438,34.4689
14:53:00.848,10.1563,30.3439
14:53:00.850,7.875,24.6563
14:53:00.854,6.3438,20.9376
14:53:00.887,4.2188,15.5938
14:53:00.888,2.0938,12.25
14:53:00.893,-0.9375,6.9375
14:53:00.893,-2.875,2.625
14:53:00.924,-4.4688,-2.2813
14:53:00.925,-5.6563,-6.0938
14:53:00.929,-7.0938,-10.7188
14:53:00.933,-8.9063,-13.8751
14:53:00.945,-10.5313,-18.3751
14:53:00.975,-13.1251,-23.2501
14:53:00.976,-15.6251,-28.0939
14:53:00.979,-16.9376,-31.7814
14:53:00.985,-18.7188,-36.4064
14:53:01.013,-21.0313,-40.5627
14:53:01.015,-23.0938,-44.6877
14:53:01.017,-24.7501,-48.4377
14:53:01.024,-26.0626,-52.8127
14:53:01.033,-26.7814,-55.6252
14:53:01.044,-28.3126,-59.4377
14:53:01.059,-30.4376,-62.8127
14:53:01.069,-31.6564,-66.3753
14:53:01.078,-32.7189,-68.969
14:53:01.088,-34.7501,-73.6878
14:53:01.098,-36.6251,-76.969
14:53:01.109,-38.2189,-81.0941
14:53:01.118,-39.8752,-84.2503
14:53:01.129,-41.8127,-87.2503
14:53:01.138,-42.3439,-90.1879
14:53:01.148,-43.3439,-92.7504
14:53:01.158,-45.5314,-96.3754
14:53:01.175,-46.7502,-99.9066
14:53:01.182,-48.7814,-102.9066
14:53:01.193,-49.5939,-106.1254
14:53:01.198,-51.5627,-109.0942
14:53:01.213,-53.3127,-112.5629
14:53:01.223,-55.9065,-117.1254
14:53:01.229,-55.9065,-120.563
14:53:01.239,-58.1565,-123.2505
14:53:01.248,-58.8127,-126.8442
14:53:01.258,-60.969,-129.7817
14:53:01.268,-62.094,-132.8755
14:53:01.278,-64.469,-136.4068
14:53:01.288,-65.5315,-139.188
14:53:01.305,-66.469,-141.813
14:53:01.320,-68.7503,-146.9381
14:53:01.322,-70.1878,-149.1881
14:53:01.337,-71.344,-153.0318
14:53:01.339,-72.844,-155.6881
14:53:01.356,-75.2503,-161.0631
14:53:01.360,-77.094,-164.0944
14:53:01.368,-79.6253,-169.1881
14:53:01.378,-81.5316,-172.1257
14:53:01.388,-83.1878,-177.4382
14:53:01.398,-85.4066,-180.1569
14:53:01.408,-87.4378,-185.407
14:53:01.418,-88.6878,-188.3445
14:53:01.428,-91.3129,-193.407
14:53:01.438,-92.9379,-196.2195
14:53:01.448,-94.8129,-200.8758
14:53:01.476,-96.9379,-204.5008
14:53:01.478,-98.5941,-209.3133
14:53:01.481,-99.8129,-211.8133
14:53:01.488,-101.6566,-215.7508
14:53:01.498,-103.4066,-218.8758
14:53:01.533,-104.6566,-222.5009
14:53:01.536,-106.4379,-225.5009
14:53:01.538,-107.6567,-228.8134
14:53:01.540,-109.8129,-232.6884
14:53:01.577,-111.4067,-235.8134
14:53:01.579,-111.8442,-236.0634
14:53:01.584,-109.6567,-234.8134
14:53:01.584,-104.2504,-226.7509
14:53:01.591,-95.7816,-212.0633
14:53:01.624,-83.4691,-192.4382
14:53:01.627,-69.5628,-167.1881
14:53:01.628,-56.3127,-141.1255
14:53:01.631,-42.5939,-116.7504
14:53:01.660,-31.0001,-92.8754
14:53:01.662,-19.4376,-70.9378
14:53:01.666,-9.3438,-49.0002
14:53:01.669,0.9375,-30.3126
14:53:01.695,11.0313,-9.3125
14:53:01.699,20.8438,8.8125
14:53:01.702,29.4376,28.1876
14:53:01.708,37.7814,44.6252
14:53:01.718,46.6564,63.4377
14:53:01.729,54.1252,79.1878
14:53:01.741,62.094,97.0004
14:53:01.748,69.0628,111.6254
14:53:01.758,75.1253,127.3755
14:53:01.768,81.3753,139.813
14:53:01.779,87.0316,153.0631
14:53:01.788,91.6879,163.5631
14:53:01.798,95.2191,173.0632
14:53:01.810,97.5004,178.8757
14:53:01.818,97.9691,183.5007
14:53:01.828,97.4066,184.2507
14:53:01.838,96.4691,184.6257
14:53:01.848,95.2504,182.9382
14:53:01.858,93.0941,180.8757
14:53:01.868,91.3754,178.5632
14:53:01.878,89.8128,175.9382
14:53:01.888,88.4378,174.0632
14:53:01.898,87.8128,173.2507
14:53:01.908,86.9066,171.3132
14:53:01.918,86.1878,170.0319
14:53:01.928,84.5628,168.7819
14:53:01.938,83.4691,167.4069
14:53:01.949,82.6253,165.2819
14:53:01.958,80.5941,163.4381
14:53:01.969,78.1565,160.2194
14:53:01.978,76.469,157.0631
14:53:01.988,74.6878,152.9068
14:53:01.998,72.469,150.1881
14:53:02.008,70.1565,144.9068
14:53:02.018,67.969,141.063
14:53:02.028,65.6878,137.0318
14:53:02.038,62.969,133.0318
14:53:02.048,60.5002,127.9692
14:53:02.059,57.9377,124.0942
14:53:02.072,55.2502,119.2505
14:53:02.078,53.0627,114.6254
14:53:02.088,51.0002,109.7817
14:53:02.098,49.5627,105.0316
14:53:02.108,47.1877,101.0004
14:53:02.119,44.3439,96.3754
14:53:02.128,42.8127,92.4691
14:53:02.138,40.1877,87.8128
14:53:02.148,37.0626,83.3753
14:53:02.158,35.4376,77.719
14:53:02.168,32.4689,73.7503
14:53:02.178,31.0001,69.094
14:53:02.188,29.6564,65.4377
14:53:02.198,28.4689,61.094
14:53:02.208,27.1564,57.844
14:53:02.218,25.5001,53.469
14:53:02.228,23.4688,50.2189
14:53:02.238,21.2188,45.4064
14:53:02.248,18.5626,41.3752
14:53:02.258,17.2813,36.2189
14:53:02.268,14.6251,32.5001
14:53:02.278,13,28.7501
14:53:02.288,11.5625,24.0626
14:53:02.298,9.6875,20.3438
14:53:02.308,7.875,16.8126
14:53:02.335,6.7188,12.8125
14:53:02.338,4.5938,8.2188
14:53:02.341,2.75,3.875
14:53:02.349,1.1563,-0.4688
14:53:02.383,-0.9688,-3.75
14:53:02.383,-2.7813,-7.1563
14:53:02.388,-4.4688,-11.3438
14:53:02.411,-5.6875,-14.3126
14:53:02.413,-6.4063,-18.6563
14:53:02.415,-7.8438,-21.8751
14:53:02.420,-9.3125,-25.8126
14:53:02.431,-11.25,-29.0626
14:53:02.452,-13.8126,-32.8751
14:53:02.454,-15.0938,-36.0939
14:53:02.486,-16.5626,-39.7502
14:53:02.507,-18.2501,-42.7502
14:53:02.520,-19.2188,-46.5939
14:53:02.527,-20.4688,-49.1252
14:53:02.531,-21.8751,-51.9377
14:53:02.544,-22.8438,-54.4065
14:53:02.545,-24.8751,-57.594
14:53:02.545,-25.6563,-60.4065
14:53:02.560,-27.4689,-63.5627
14:53:02.562,-28.8751,-66.219
14:53:02.564,-30.3439,-69.5315
14:53:02.570,-31.5001,-72.469
14:53:02.578,-32.6876,-74.4378
14:53:02.588,-34.0626,-77.719
14:53:02.598,-34.9689,-80.1566
14:53:02.610,-36.2501,-83.2816
14:53:02.624,-37.3751,-84.7816
14:53:02.633,-38.5314,-87.9378
14:53:02.638,-39.9377,-89.5003
14:53:02.656,-40.7502,-92.6254
14:53:02.658,-41.6252,-94.4691
14:53:02.673,-41.9689,-96.9066
14:53:02.679,-43.2814,-98.7816
14:53:02.688,-43.9064,-100.5629
14:53:02.698,-44.7502,-103.0004
14:53:02.708,-44.5314,-104.0316
14:53:02.718,-47.2814,-107.2817
14:53:02.728,-47.5627,-108.8442
14:53:02.757,-47.6564,-109.6879
14:53:02.759,-49.3439,-111.1254
14:53:02.761,-49.7502,-113.9692
14:53:02.772,-52.1877,-114.8442
14:53:02.782,-51.3127,-117.3755
14:53:02.788,-53.344,-117.6567
14:53:02.798,-53.0315,-120.063
14:53:02.809,-53.8127,-120.2817
14:53:02.820,-53.8752,-122.5317
14:53:02.830,-55.1877,-123.1567
14:53:02.838,-55.469,-125.0317
14:53:02.848,-55.844,-126.2192
14:53:02.858,-56.5627,-126.9067
14:53:02.868,-57.1877,-129.313
14:53:02.884,-57.6252,-129.2192
14:53:02.889,-57.9377,-130.688
14:53:02.898,-58.1252,-132.063
14:53:02.909,-59.219,-132.8755
14:53:02.920,-59.5315,-133.2505
14:53:02.928,-58.7502,-133.063
14:53:02.939,-56.5315,-130.438
14:53:02.952,-52.8127,-122.688
14:53:02.958,-45.5939,-112.0629
14:53:02.968,-36.3751,-95.8754
14:53:02.978,-26.6564,-77.1253
14:53:02.988,-15.4063,-57.3127
14:53:02.998,-5.0938,-36.7501
14:53:03.009,3.375,-20.5626
14:53:03.018,12.0938,-3.4375
14:53:03.048,18.8438,11.5625
14:53:03.051,25.9063,24.5626
14:53:03.053,31.1251,36.6876
14:53:03.060,37.2501,48.0002
14:53:03.087,41.8127,60.0002
14:53:03.090,47.3752,69.5003
14:53:03.092,53.0315,80.8128
14:53:03.098,57.3127,91.2504
14:53:03.131,62.1877,101.2504
14:53:03.135,66.6565,112.3754
14:53:03.137,71.4378,120.6255
14:53:03.142,76.6253,131.6255
14:53:03.170,80.4691,140.563
14:53:03.173,84.5003,148.5006
14:53:03.175,87.2503,156.7506
14:53:03.202,89.9691,161.1569
14:53:03.203,90.7504,164.6569
14:53:03.205,90.0941,166.1569
14:53:03.209,89.1566,164.1256
14:53:03.218,86.3128,161.6256
14:53:03.228,84.7503,158.4069
14:53:03.238,81.8128,155.0318
14:53:03.251,79.9378,151.7506
14:53:03.262,78.2815,148.2818
14:53:03.268,76.3128,146.5943
14:53:03.278,75.6253,144.063
14:53:03.289,74.2815,143.2818
14:53:03.298,73.844,141.063
14:53:03.308,72.8128,140.0943
14:53:03.318,71.2815,137.5318
14:53:03.328,69.7503,133.9693
14:53:03.340,68.219,132.1255
14:53:03.348,65.594,127.3755
14:53:03.358,63.1252,123.563
14:53:03.369,61.1252,120.1255
14:53:03.378,59.5627,115.9067
14:53:03.388,56.8752,112.0004
14:53:03.398,54.7815,108.3442
14:53:03.408,53.0002,102.8441
14:53:03.418,50.4377,99.2504
14:53:03.428,48.1877,95.1879
14:53:03.438,45.7814,90.2191
14:53:03.448,42.7189,85.7816
14:53:03.458,40.4377,81.5628
14:53:03.469,38.1876,76.5003
14:53:03.478,36.5626,72.594
14:53:03.488,34.5314,69.094
14:53:03.499,32.4064,65.0002
14:53:03.509,30.7189,60.5627
14:53:03.518,27.9689,56.719
14:53:03.528,25.5938,52.3439
14:53:03.540,23.8126,48.5627
14:53:03.549,21.7813,43.6877
14:53:03.558,20.0001,40.6877
14:53:03.568,18.1876,36.0001
14:53:03.578,16.1563,32.4689
14:53:03.588,14.9063,28.5314
14:53:03.598,13,25.4376
14:53:03.608,11.5938,22.2501
14:53:03.619,10.125,17.7501
14:53:03.633,7.2188,13.8126
14:53:03.638,6.2813,10.875
14:53:03.648,4.6563,6.25
14:53:03.658,2.9688,3.6563
14:53:03.670,1.3438,-0.75
14:53:03.678,-1,-4.6563
14:53:03.688,-2.25,-8.0625
14:53:03.698,-3.9688,-11.4375
14:53:03.708,-5.9375,-14.9063
14:53:03.718,-6.9688,-18.6251
14:53:03.728,-8.9063,-22.1876
14:53:03.738,-10.2188,-24.9376
14:53:03.748,-12.125,-29.5626
14:53:03.758,-13.6563,-31.8439
14:53:03.768,-15.5626,-36.5939
14:53:03.796,-16.9376,-39.5002
14:53:03.798,-17.8751,-42.6252
14:53:03.800,-20.2501,-45.5627
14:53:03.900,-21.0938,-48.6564
14:53:03.902,-22.8751,-51.1877
14:53:03.962,-24.2813,-53.3752
14:53:03.977,-25.1876,-57.6252
14:53:03.980,-25.8438,-59.594
14:53:03.994,-28.1876,-62.1877
14:53:03.994,-29.3751,-65.2502
14:53:03.994,-31.2501,-68.5628
14:53:04.009,-32.5001,-71.094
14:53:04.011,-33.2501,-72.9065
14:53:04.037,-34.4689,-76.0628
14:53:04.040,-34.8126,-77.6565
14:53:04.041,-36.1251,-79.0628
14:53:04.048,-36.8439,-81.9066
14:53:04.049,-38.1876,-83.8441
14:53:04.058,-38.5939,-86.3441
14:53:04.068,-39.1876,-88.8753
14:53:04.078,-40.0627,-90.4691
14:53:04.088,-41.9064,-91.6566
14:53:04.098,-41.6877,-94.6566
14:53:04.108,-42.9377,-96.6254
14:53:04.118,-43.3439,-98.1566
14:53:04.129,-44.9377,-100.0004
14:53:04.138,-46.0314,-102.3441
14:53:04.148,-62.969,-137.7818
14:53:04.158,-63.4377,-139.563
14:53:04.168,-63.5315,-140.7505
14:53:04.178,-63.9065,-140.688
14:53:04.188,-64.0002,-141.8755
14:53:04.199,-62.9377,-140.2818
14:53:04.210,-61.6565,-138.563
14:53:04.218,-56.9377,-131.0317
14:53:04.228,-50.1564,-118.2505
14:53:04.238,-39.9377,-102.1879
14:53:04.249,-30.4376,-84.0316
14:53:04.258,-20.7188,-65.0627
14:53:04.269,-11.9063,-48.5627
14:53:04.278,-3.375,-31.4376
14:53:04.290,3.6563,-17.6876
14:53:04.299,10.2188,-4.3438
14:53:04.309,14.6563,7.125
14:53:04.318,19.7813,16.5626
14:53:04.329,23.9063,26.7189
14:53:04.338,28.5001,35.1251
14:53:04.348,32.3439,45.0314
14:53:04.358,37.3126,53.0002
14:53:04.368,42.0002,63.844
14:53:04.384,45.9064,71.5003
14:53:04.389,50.1564,80.2191
14:53:04.398,53.344,88.8753
14:53:04.408,57.3752,96.3754
14:53:04.419,61.469,104.7191
14:53:04.429,63.5002,111.0942
14:53:04.439,65.5315,115.2504
14:53:04.448,66.094,119.5942
14:53:04.472,66.469,120.0942
14:53:04.475,65.9065,119.813
14:53:04.506,64.344,116.9692
14:53:04.507,61.9377,114.7817
14:53:04.510,60.2502,112.3442
14:53:04.512,58.6877,109.7817
14:53:04.518,58.344,107.9067
14:53:04.549,57.5002,106.8442
14:53:04.552,56.7502,107.5317
14:53:04.554,56.3752,105.3441
14:53:04.581,54.7815,103.7816
14:53:04.582,54.469,102.4379
14:53:04.585,52.2814,100.3441
14:53:04.589,51.1252,97.5941
14:53:04.628,48.4689,94.7504
14:53:04.631,47.4377,91.4691
14:53:04.632,44.4064,88.1878
14:53:04.634,43.0002,85.1566
14:53:04.641,40.7502,81.2816
14:53:04.649,38.4689,77.8128
14:53:04.658,36.6251,73.6878
14:53:04.670,34.8751,69.5003
14:53:04.678,33.0001,66.969
14:53:04.688,30.5314,62.844
14:53:04.698,28.1251,58.594
14:53:04.708,26.5939,55.6565
14:53:04.719,24.7813,50.5002
14:53:04.728,22.4688,47.8127
14:53:04.738,21.4063,44.6252
14:53:04.748,20.0313,40.7189
14:53:04.761,18.0938,36.6564
14:53:04.768,16.0313,33.5626
14:53:04.779,14.2188,30.2189
14:53:04.788,12.375,27.1564
14:53:04.798,11.1563,24.1251
14:53:04.809,9.4688,19.8438
14:53:04.819,8.1875,16.6563
14:53:04.828,6.625,13.6251
14:53:04.839,5,10.5
14:53:04.849,3.5938,7.625
14:53:04.860,0.9688,4.3125
14:53:04.870,0.125,0.625
14:53:04.879,-1.875,-1.9375
14:53:04.889,-2.8125,-5.3438
14:53:04.899,-4.5,-8.5625
14:53:04.910,-5.5625,-12.0625
14:53:04.919,-7.7188,-15.2188
14:53:04.929,-9.4375,-18.5001
14:53:04.938,-11.0938,-21.8126
14:53:04.948,-12.75,-25.1876
14:53:04.958,-13.7813,-28.6876
14:53:04.968,-15.8438,-32.0626
14:53:04.978,-17.3438,-34.9689
14:53:04.988,-18.6251,-37.3126
14:53:04.998,-20.7813,-40.4064
14:53:05.010,-22.0626,-44.0314
14:53:05.018,-22.7813,-46.6877
14:53:05.029,-24.5626,-48.7502
14:53:05.039,-24.8438,-51.9689
14:53:05.051,-27.2501,-54.219
14:53:05.059,-28.3751,-57.2815
14:53:05.068,-28.5939,-59.7815
14:53:05.081,-30.6251,-62.219
14:53:05.088,-31.1251,-64.9377
14:53:05.100,-33.5314,-67.3753
14:53:05.108,-33.4689,-70.1253
14:53:05.118,-35.5626,-72.3128
14:53:05.136,-36.2189,-75.1878
14:53:05.139,-36.8126,-76.0315
14:53:05.150,-38.0001,-79.6566
14:53:05.166,-38.5001,-80.8128
14:53:05.182,-40.3752,-82.8128
14:53:05.188,-41.0002,-86.2191
14:53:05.197,-42.9377,-87.3441
14:53:05.205,-43.4064,-90.3441
14:53:05.272,-44.8439,-91.0004
14:53:05.272,-45.3127,-93.7191
14:53:05.311,-45.6252,-95.9379
14:53:05.311,-47.3127,-97.5941
14:53:05.311,-47.0939,-98.9691
14:53:05.328,-49.1252,-100.9066
14:53:05.361,-49.5627,-103.3441
14:53:05.390,-51.1877,-104.9066
14:53:05.390,-51.9689,-106.9379
14:53:05.390,-52.3752,-107.4692
14:53:05.396,-53.3752,-109.5629
14:53:05.397,-55.1877,-112.1879
14:53:05.401,-55.1877,-113.8754
14:53:05.401,-56.4065,-115.0629
14:53:05.401,-55.719,-116.1567
14:53:05.409,-56.969,-117.0317
14:53:05.418,-56.7502,-118.4067
14:53:05.428,-58.0627,-119.3442
14:53:05.441,-59.094,-120.813
14:53:05.449,-60.0315,-122.438
14:53:05.458,-60.3752,-125.1255
14:53:05.468,-63.7815,-132.563
14:53:05.479,-64.8752,-133.4068
14:53:05.488,-65.3753,-134.063
14:53:05.499,-65.3753,-135.813
14:53:05.509,-65.844,-135.5005
14:53:05.519,-58.719,-126.188
14:53:05.530,-50.6564,-112.0629
14:53:05.539,-40.4377,-93.7504
14:53:05.549,-29.7189,-74.9378
14:53:05.558,-19.1563,-55.4377
14:53:05.568,5.8438,-4.6875
14:53:05.579,11.9688,7.3125
14:53:05.588,17.5938,20.5001
14:53:05.598,22.5626,30.6876
14:53:05.608,28.0939,41.4377
14:53:05.618,32.3751,52.5002
14:53:05.629,37.9064,62.5627
14:53:05.638,42.6252,74.0628
14:53:05.649,48.4377,84.5003
14:53:05.660,53.1877,95.3129
14:53:05.669,57.969,104.3754
14:53:05.681,61.4377,114.6879
14:53:05.688,65.9065,123.0005
14:53:05.698,69.5315,132.188
14:53:05.709,72.844,138.813
14:53:05.718,75.9378,145.7505
14:53:05.729,77.219,150.4693
14:53:05.739,78.094,152.8756
14:53:05.748,77.969,154.4381
14:53:05.758,77.1253,153.2818
14:53:05.769,75.344,150.7506
14:53:05.778,72.469,147.1256
14:53:05.789,69.594,144.0005
14:53:05.799,68.3128,141.1255
14:53:05.809,66.844,138.4693
14:53:05.821,64.6877,135.7818
14:53:05.829,63.4377,133.7505
14:53:05.838,62.5002,131.438
14:53:05.849,61.6565,130.1255
14:53:05.859,61.1252,128.5005
14:53:05.868,59.469,126.438
14:53:05.878,58.1877,123.063
14:53:05.892,55.969,120.6255
14:53:05.898,53.7502,117.0317
14:53:05.909,51.7502,113.4379
14:53:05.920,49.6877,108.5004
14:53:05.928,46.9689,104.9379
14:53:05.938,45.4064,100.7191
14:53:05.951,42.9064,97.2504
14:53:05.972,40.8439,93.0004
14:53:05.974,39.8127,88.9066
14:53:06.007,37.1876,84.9378
14:53:06.008,35.3751,80.9691
14:53:06.011,32.8126,75.8128
14:53:06.013,31.1564,72.2815
14:53:06.021,29.0939,67.1565
14:53:06.051,26.8751,62.5002
14:53:06.053,24.4688,58.3752
14:53:06.055,22.1251,54.2502
14:53:06.084,20.4688,49.8752
14:53:06.086,18.3438,46.4689
14:53:06.088,15.9688,42.5627
14:53:06.092,14.1563,38.1876
14:53:06.124,12.5625,34.2814
14:53:06.125,11.0313,30.5939
14:53:06.128,9.3125,25.5313
14:53:06.129,7,22.7501
14:53:06.140,5.0313,17.1563
14:53:06.149,3.5,13.6876
14:53:06.158,1.1875,9.5625
14:53:06.169,-1.4375,5.5938
14:53:06.179,-3.3438,1.875
14:53:06.190,-5.2813,-2.2188
14:53:06.198,-6.4688,-6.625
14:53:06.209,-8.5625,-10.125
14:53:06.219,-9.75,-14.0626
14:53:06.229,-11.8438,-17.7188
14:53:06.238,-14.2188,-22.1251
14:53:06.249,-15.8751,-26.4064
14:53:06.266,-17.5938,-30.2814
14:53:06.269,-19.7188,-33.9689
14:53:06.278,-22.3751,-37.6564
14:53:06.289,-23.5313,-42.5314
14:53:06.298,-25.8751,-46.3752
14:53:06.310,-27.5314,-50.3439
14:53:06.318,-29.3751,-54.7815
14:53:06.329,-32.2501,-58.8127
14:53:06.338,-34.4376,-63.4377
14:53:06.348,-36.9064,-67.469
14:53:06.359,-39.0626,-72.3753
14:53:06.371,-41.5002,-76.6253
14:53:06.379,-44.1252,-80.7503
14:53:06.389,-46.4064,-86.1253
14:53:06.400,-48.2189,-90.3753
14:53:06.409,-50.9377,-95.4379
14:53:06.420,-54.0315,-99.9691
14:53:06.429,-56.0627,-105.7817
14:53:06.439,-58.094,-110.4692
14:53:06.449,-61.1565,-115.0004
14:53:06.459,-62.9065,-120.563
14:53:06.469,-66.5315,-125.688
14:53:06.479,-68.4065,-130.0317
14:53:06.489,-70.9378,-134.6255
14:53:06.498,-72.5315,-139.0005
14:53:06.517,-74.5315,-142.7818
14:53:06.523,-77.469,-148.7506
14:53:06.532,-79.5628,-153.0631
14:53:06.538,-82.3441,-156.8443
14:53:06.555,-83.9691,-161.9694
14:53:06.560,-86.6566,-165.4069
14:53:06.570,-88.5316,-170.4069
14:53:06.598,-90.9691,-173.5944
14:53:06.600,-92.7816,-179.0319
14:53:06.602,-94.4691,-181.8132
14:53:06.610,-95.8441,-186.282
14:53:06.619,-97.8754,-188.4695
14:53:06.629,-99.2504,-192.2195
14:53:06.644,-100.0316,-196.2507
14:53:06.655,-103.0941,-200.3133
14:53:06.658,-104.4066,-203.5008
14:53:06.676,-106.4067,-206.8133
14:53:06.678,-107.6879,-209.2508
14:53:06.720,-109.0942,-213.1883
14:53:06.722,-109.6879,-215.2508
14:53:06.727,-111.5317,-217.3758
14:53:06.729,-112.9379,-220.0633
14:53:06.735,-113.8754,-223.0009
14:53:06.739,-115.5317,-224.8759
14:53:06.766,-116.0317,-228.2509
14:53:06.771,-117.7192,-229.7509
14:53:06.772,-118.6255,-233.1259
14:53:06.778,-119.8442,-234.5634
14:53:06.804,-120.2505,-236.4384
14:53:06.807,-120.938,-237.4384
14:53:06.809,-121.8755,-239.7509
14:53:06.841,-121.0942,-240.8759
14:53:06.843,-121.2505,-241.3134
14:53:06.846,-118.8442,-238.2509
14:53:06.850,-115.4067,-232.3759
14:53:06.864,-108.5629,-221.3758
14:53:06.869,-99.3441,-206.4383
14:53:06.878,-88.6878,-187.3757
14:53:06.888,-76.7503,-165.1256
14:53:06.898,-62.719,-141.1255
14:53:06.908,-49.8752,-116.4379
14:53:06.918,-36.0314,-92.3754
14:53:06.929,-23.5938,-68.0628
14:53:06.939,-11.1563,-45.0627
14:53:06.949,-0.2813,-22.6251
14:53:06.960,11.2188,-1.3125
14:53:06.969,21.5313,19.3751
14:53:06.980,32.0314,39.4377
14:53:06.988,41.4064,59.5002
14:53:06.998,51.1564,78.1878
14:53:07.009,59.2502,96.7504
14:53:07.020,68.6253,114.4379
14:53:07.028,76.219,131.7505
14:53:07.039,83.4066,146.063
14:53:07.049,89.1253,160.0006
14:53:07.058,94.0004,171.0006
14:53:07.069,97.9691,180.8757
14:53:07.080,100.3754,186.7507
14:53:07.088,101.8441,191.7507
14:53:07.100,101.3754,191.8757
14:53:07.110,100.9691,193.1257
14:53:07.118,99.8129,191.8757
14:53:07.130,98.0629,190.3757
14:53:07.139,97.0941,188.0007
14:53:07.148,96.3129,186.8757
14:53:07.159,95.4691,186.2507
14:53:07.169,95.2816,185.2507
14:53:07.178,94.4066,185.0632
14:53:07.189,93.5629,184.5007
14:53:07.199,93.0004,182.7507
14:53:07.208,92.2816,182.1882
14:53:07.219,90.8129,180.8132
14:53:07.228,88.8753,177.6257
14:53:07.238,87.4066,175.9382
14:53:07.249,85.9691,173.3757
14:53:07.260,84.6253,169.5631
14:53:07.270,82.2191,166.3756
14:53:07.279,80.1253,163.0631
14:53:07.288,78.0003,158.4381
14:53:07.299,74.9065,154.5006
14:53:07.309,72.8128,150.5006
14:53:07.319,70.344,145.188
14:53:07.328,67.719,140.7505
14:53:07.338,65.5002,137.0943
14:53:07.350,63.6877,132.2818
14:53:07.360,60.1565,128.0317
14:53:07.369,57.6252,123.2192
14:53:07.380,55.7502,117.4692
14:53:07.389,53.1252,113.5317
14:53:07.399,50.4064,109.3129
14:53:07.408,47.6564,104.9379
14:53:07.418,44.8752,100.2816
14:53:07.429,42.7814,95.2816
14:53:07.441,40.8439,92.0316
14:53:07.471,39.7189,88.8128
14:53:07.476,37.8126,83.6566
14:53:07.477,36.1876,80.7191
14:53:07.482,32.9689,74.7503
14:53:07.510,29.5626,69.5003
14:53:07.512,25.7813,64.9065
14:53:07.514,22.5001,60.0315
14:53:07.541,19.6251,55.7815
14:53:07.542,16.7813,51.5002
14:53:07.544,14.7813,48.3439
14:53:07.550,13.4688,44.9377
14:53:07.577,11.2188,40.5314
14:53:07.580,10,37.4689
14:53:07.580,8.5938,34.2189
14:53:07.589,5.9063,30.5626
14:53:07.620,4.2188,27.1251
14:53:07.623,1.4375,22.7188
14:53:07.625,-0.1875,18.7501
14:53:07.630,-1.875,15.0313
14:53:07.640,-2.8125,12.25
14:53:07.649,-5.1563,7.9688
14:53:07.659,-6.875,4.75
14:53:07.668,-8.2813,1.2188
14:53:07.679,-10,-1.5938
14:53:07.689,-11.2813,-4.7813
14:53:07.698,-12.4063,-8.0313
14:53:07.709,-13.6563,-10.1563
14:53:07.718,-14.5938,-14.2813
14:53:07.729,-15.6563,-16.7188
14:53:07.739,-16.2813,-18.9688
14:53:07.748,-18.2188,-20.9688
14:53:07.761,-19.6563,-23.8438
14:53:07.774,-20.0626,-27.5001
14:53:07.779,-21.5626,-28.8126
14:53:07.789,-22.5938,-32.8439
14:53:07.800,-24.5626,-35.8126
14:53:07.809,-26.1251,-38.1251
14:53:07.818,-26.6876,-41.6564
14:53:07.829,-27.3751,-43.5939
14:53:07.844,-29.0314,-46.7502
14:53:07.876,-30.5001,-49.5002
14:53:07.891,-30.5939,-51.3752
14:53:07.894,-32.1564,-54.344
14:53:07.908,-33.0001,-57.3752
14:53:07.909,-34.6564,-59.7815
14:53:07.911,-35.0001,-62.594
14:53:07.913,-36.4064,-64.3127
14:53:07.919,-37.6876,-67.5003
14:53:07.930,-38.1564,-70.1565
14:53:07.940,-39.9689,-71.4378
14:53:07.948,-40.5314,-74.4378
14:53:07.963,-40.8752,-76.6878
14:53:07.973,-42.2189,-78.4691
14:53:07.978,-41.9689,-80.9066
14:53:07.996,-43.5939,-82.9691
14:53:08.002,-43.6564,-85.1566
14:53:08.009,-46.0314,-87.0628
14:53:08.019,-46.5627,-89.0316
14:53:08.028,-47.5002,-91.6566
14:53:08.040,-49.1252,-93.6566
14:53:08.049,-49.8127,-95.8754
14:53:08.059,-50.7189,-97.5941
14:53:08.068,-51.5627,-98.9691
14:53:08.079,-52.1877,-100.5629
14:53:08.089,-53.094,-101.9066
14:53:08.100,-54.219,-103.9379
14:53:08.110,-54.844,-105.2504
14:53:08.120,-56.094,-107.6879
14:53:08.129,-57.094,-109.5004
14:53:08.140,-56.719,-109.8754
14:53:08.167,-57.1565,-109.1879
14:53:08.168,-54.4377,-106.8754
14:53:08.171,-50.5939,-99.7504
14:53:08.202,-42.4064,-88.1878
14:53:08.205,-33.6564,-71.7503
14:53:08.207,-23.6251,-54.6877
14:53:08.210,-13.0938,-34.4376
14:53:08.240,-3.5,-16.3126
14:53:08.243,6.1563,3.5625
14:53:08.244,15.0001,20.0001
14:53:08.252,22.9688,35.7501
14:53:08.276,29.8126,51.2502
14:53:08.278,36.5939,63.3127
14:53:08.281,41.4689,76.6878
14:53:08.307,47.8127,88.1253
14:53:08.309,52.969,101.2504
14:53:08.311,59.219,112.5004
14:53:08.318,64.5315,125.438
14:53:08.334,70.5003,135.813
14:53:08.339,76.2815,147.5631
14:53:08.349,80.6878,158.6256
14:53:08.359,86.3128,170.2506
14:53:08.368,90.0316,180.1257
14:53:08.379,94.5629,189.0007
14:53:08.389,99.1254,199.282
14:53:08.399,102.1566,207.7195
14:53:08.409,105.0941,214.9696
14:53:08.421,108.3442,220.7196
14:53:08.430,108.7817,225.4384
14:53:08.439,109.2192,227.3759
14:53:08.449,107.5942,226.0009
14:53:08.460,104.6254,222.6884
14:53:08.468,101.1879,217.9383
14:53:08.480,97.0629,211.1258
14:53:08.490,93.5004,205.1258
14:53:08.499,89.9691,200.0945
14:53:08.509,87.2191,195.407
14:53:08.519,85.4066,190.657
14:53:08.528,83.9378,187.5007
14:53:08.539,82.9066,184.782
14:53:08.550,81.1878,182.4695
14:53:08.558,79.2503,178.4069
14:53:08.570,76.8753,175.1257
14:53:08.580,74.5628,170.2194
14:53:08.589,71.6878,166.1569
14:53:08.599,69.469,161.8756
14:53:08.608,66.8753,157.2194
14:53:08.618,65.1565,152.0318
14:53:08.629,62.9377,147.5631
14:53:08.638,60.8752,142.7193
14:53:08.649,58.7815,137.7193
14:53:08.659,55.2502,131.3755
14:53:08.669,53.1565,126.313
14:53:08.680,50.0939,120.2817
14:53:08.688,47.8752,114.1567
14:53:08.699,45.4064,109.0629
14:53:08.710,42.7189,103.7504
14:53:08.718,40.5314,98.4691
14:53:08.729,37.9689,92.3129
14:53:08.740,35.4064,86.5628
14:53:08.749,32.5001,81.9066
14:53:08.759,30.5626,75.4065
14:53:08.769,27.9689,70.0003
14:53:08.778,25.6563,65.5315
14:53:08.789,23.5626,60.3752
14:53:08.799,21.1563,55.5002
14:53:08.809,19.2188,50.0627
14:53:08.829,17.4376,45.2189
14:53:08.831,15.5626,41.0002
14:53:08.864,14.0313,35.4376
14:53:08.865,12.5938,31.5001
14:53:08.868,11.1563,27.1564
14:53:08.871,9.9063,23.1876
14:53:08.907,9.125,20.0938
14:53:08.908,8.1563,15.9376
14:53:08.912,7.4688,12.125
14:53:08.914,6.25,8.875
14:53:08.922,5.7188,4.7813
14:53:08.961,4.2813,1.125
14:53:08.962,2.5313,-2.8125
14:53:08.971,0.9688,-7.5313
14:53:08.972,-1.0625,-12.25
14:53:08.972,-3.2188,-15.7501
14:53:08.988,-5.25,-21.3438
14:53:08.997,-8.2188,-26.2813
14:53:09.001,-9.9688,-30.3126
14:53:09.009,-13.4688,-34.8751
14:53:09.019,-16.7813,-39.6564
14:53:09.030,-18.3438,-45.1877
14:53:09.039,-21.6251,-48.9689
14:53:09.049,-23.6876,-52.5314
14:53:09.060,-25.5313,-57.6877
14:53:09.071,-28.1876,-61.594
14:53:09.079,-29.4376,-65.0627
14:53:09.089,-31.9376,-68.969
14:53:09.099,-34.0939,-72.3753
14:53:09.109,-35.2189,-76.344
14:53:09.119,-37.5001,-79.0941
14:53:09.129,-38.3126,-83.3441
14:53:09.157,-39.1876,-85.2191
14:53:09.158,-40.4689,-87.1566
14:53:09.162,-40.9689,-90.5316
14:53:09.174,-42.3752,-92.4379
14:53:09.186,-42.4377,-94.9691
14:53:09.189,-43.8752,-96.8441
14:53:09.207,-44.8127,-100.2816
14:53:09.216,-45.9377,-101.9379
14:53:09.232,-47.0939,-104.2816
14:53:09.235,-47.4689,-105.6254
14:53:09.245,-49.4377,-108.3754
14:53:09.255,-50.2502,-110.7192
14:53:09.264,-51.9377,-112.5004
14:53:09.279,-53.4065,-115.3442
14:53:09.288,-53.9377,-117.5317
14:53:09.294,-55.594,-119.188
14:53:09.311,-56.1565,-121.438
14:53:09.315,-57.8752,-123.0942
14:53:09.329,-58.1877,-124.6567
14:53:09.333,-59.1565,-126.3755
14:53:09.344,-59.6252,-127.9692
14:53:09.355,-61.0315,-129.3442
14:53:09.366,-61.5627,-131.6568
14:53:09.375,-63.5315,-134.5943
14:53:09.385,-64.1565,-135.438
14:53:09.394,-64.7502,-137.5318
14:53:09.404,-66.1878,-138.0005
14:53:09.414,-66.1565,-140.6568
14:53:09.424,-66.8753,-140.9693
14:53:09.435,-67.1878,-142.938
14:53:09.445,-68.6565,-144.2505
14:53:09.455,-69.344,-146.5631
14:53:09.465,-70.8128,-147.4068
14:53:09.474,-71.3753,-149.1568
14:53:09.485,-71.8128,-150.5006
14:53:09.494,-72.5003,-152.3131
14:53:09.504,-73.6253,-152.2193
14:53:09.516,-73.7815,-154.5318
14:53:09.524,-72.4378,-153.3443
14:53:09.534,-70.8128,-149.5943
14:53:09.544,-65.6565,-143.1255
14:53:09.554,-59.1877,-130.438
14:53:09.594,-49.4377,-114.1879
14:53:09.597,-39.9377,-95.6566
14:53:09.599,-29.1564,-76.5315
14:53:09.625,-19.8126,-57.344
14:53:09.625,-10.4063,-39.5627
14:53:09.626,-2.375,-22.7501
14:53:09.629,5.1563,-7.5
14:53:09.635,11.5,6.5313
14:53:09.664,18.5313,19.9688
14:53:09.668,23.5313,33.4376
14:53:09.669,29.8439,45.3752
14:53:09.675,34.8126,57.2815
14:53:09.701,39.9689,69.094
14:53:09.705,44.6877,80.4066
14:53:09.706,50.0627,91.4691
14:53:09.742,55.1877,103.4691
14:53:09.743,61.0627,114.3129
14:53:09.746,65.0002,125.1567
14:53:09.748,69.5003,135.2193
14:53:09.755,73.7503,144.938
14:53:09.764,77.7815,154.2193
14:53:09.776,80.5003,161.6256
14:53:09.785,83.5003,168.3756
14:53:09.794,84.3128,173.0007
14:53:09.806,85.3753,176.0007
14:53:09.814,84.6566,177.1257
14:53:09.825,82.4691,175.3444
14:53:09.839,80.2191,172.3132
14:53:09.844,77.5003,167.6256
14:53:09.855,74.4378,163.2506
14:53:09.864,72.1565,158.6256
14:53:09.874,69.6253,155.3756
14:53:09.884,67.0003,152.1881
14:53:09.894,65.2815,148.5318
14:53:09.905,63.344,145.2193
14:53:09.914,62.5315,143.8443
14:53:09.924,60.7815,140.6255
14:53:09.934,58.9377,138.4693
14:53:09.945,57.4065,134.7505
14:53:09.954,55.1877,131.3755
14:53:09.964,54.5627,128.8755
14:53:09.974,51.6877,126.1255
14:53:09.984,49.7814,122.0005
14:53:09.994,48.3127,117.1254
14:53:10.004,45.7814,113.9379
14:53:10.015,43.5627,109.9692
14:53:10.024,41.3439,105.2191
14:53:10.034,39.5627,100.8129
14:53:10.044,37.4689,96.7816
14:53:10.054,35.5314,92.9691
14:53:10.065,33.1251,89.1878
14:53:10.074,31.2501,84.4691
14:53:10.084,29.0939,79.7816
14:53:10.094,27.9064,75.6878
14:53:10.105,26.0938,71.4378
14:53:10.114,23.7188,67.844
14:53:10.124,21.1876,63.0315
14:53:10.134,20.0001,58.5002
14:53:10.144,17.7188,54.9065
14:53:10.154,16.3438,50.9689
14:53:10.164,15.0001,46.6877
14:53:10.174,13.2501,42.5627
14:53:10.184,11.875,38.6876
14:53:10.195,10.5313,35.4064
14:53:10.204,9.0625,31.8126
14:53:10.215,8.375,26.8126
14:53:10.224,6.8438,23.9688
14:53:10.234,5.125,19.7501
14:53:10.244,3.9063,15.4376
14:53:10.254,2.375,11.9375
14:53:10.264,1.875,8.3438
14:53:10.274,-0.4375,4.5313
14:53:10.284,-1,0.5625
14:53:10.294,-2.8438,-2.9063
14:53:10.305,-3.9375,-6.9063
14:53:10.315,-6.0313,-10.0313
14:53:10.324,-6.7813,-13.125
14:53:10.334,-8.125,-18.0626
14:53:10.356,-10.0938,-20.9063
14:53:10.359,-11.625,-24.2188
14:53:10.364,-12.5,-28.2189
14:53:10.400,-14.1251,-31.3751
14:53:10.403,-15.3126,-35.3126
14:53:10.407,-17.5938,-38.4064
14:53:10.409,-19.9063,-42.3439
14:53:10.437,-22.1876,-46.5002
14:53:10.438,-23.5001,-50.3439
14:53:10.441,-25.2501,-53.3127
14:53:10.446,-26.7501,-57.6877
14:53:10.469,-28.5314,-59.7502
14:53:10.471,-30.0939,-63.8752
14:53:10.504,-31.5314,-65.844
14:53:10.506,-32.8439,-69.844
14:53:10.526,-34.0314,-71.8128
14:53:10.527,-35.8439,-76.0628
14:53:10.531,-36.8751,-77.7503
14:53:10.531,-38.4689,-80.8128
14:53:10.534,-38.6564,-83.0628
14:53:10.548,-39.9689,-84.7816
14:53:10.555,-40.6564,-87.9378
14:53:10.564,-42.1252,-90.0316
14:53:10.574,-42.3439,-92.0004
14:53:10.597,-44.2502,-92.6254
14:53:10.599,-45.2502,-96.5629
14:53:10.614,-46.4064,-97.4379
14:53:10.616,-47.0627,-100.4379
14:53:10.625,-48.0627,-100.6566
14:53:10.635,-48.3752,-102.9691
14:53:10.644,-49.6252,-103.0004
14:53:10.655,-49.7189,-105.7192
14:53:10.665,-50.3439,-107.0317
14:53:10.674,-50.9064,-108.0942
14:53:10.684,-51.2502,-108.4067
14:53:10.694,-51.9064,-109.9692
14:53:10.704,-51.7502,-110.9379
14:53:10.714,-52.844,-111.9692
14:53:10.725,-53.344,-113.5004
14:53:10.735,-53.6252,-113.9067
14:53:10.744,-54.2815,-115.6879
14:53:10.754,-54.8752,-115.8442
14:53:10.765,-55.8127,-118.1255
14:53:10.774,-56.4377,-119.063
14:53:10.784,-57.2502,-120.5942
14:53:10.794,-57.6565,-121.2505
14:53:10.804,-58.3752,-122.8442
14:53:10.814,-57.7815,-121.813
14:53:10.824,-56.4377,-120.0942
14:53:10.834,-52.1252,-112.5317
14:53:10.845,-45.9689,-103.1879
14:53:10.854,-37.7814,-88.0628
14:53:10.864,-29.1876,-72.2815
14:53:10.874,-19.8126,-54.2815
14:53:10.884,-11.5313,-38.5001
14:53:10.894,-4.1563,-23.0313
14:53:10.904,2.5938,-8.75
14:53:10.915,8.25,3.9063
14:53:10.924,13.9376,15.0626
14:53:10.935,18.7188,25.3751
14:53:10.945,23.4063,35.5001
14:53:10.954,27.0939,44.3439
14:53:10.964,30.6564,53.0315
14:53:10.976,34.5314,62.4065
14:53:10.984,38.4064,70.6878
14:53:10.994,42.2502,79.6566
14:53:11.005,45.4689,87.7816
14:53:11.015,48.5002,96.2816
14:53:11.024,52.969,104.1254
14:53:11.034,55.3127,112.0004
14:53:11.044,58.344,117.8755
14:53:11.054,59.1877,123.2817
14:53:11.074,60.0315,126.1567
14:53:11.078,59.344,126.7505
14:53:11.105,58.4065,126.4067
14:53:11.108,55.8127,123.9692
14:53:11.109,53.0315,120.6567
14:53:11.115,50.6877,117.2817
14:53:11.142,48.9377,114.1254
14:53:11.144,47.8752,111.9067
14:53:11.148,46.2189,110.2192
14:53:11.155,44.7814,108.9067
14:53:11.187,43.4689,107.5942
14:53:11.189,42.5939,105.5317
14:53:11.193,41.5314,103.8754
14:53:11.219,40.3752,101.7504
14:53:11.220,38.8439,99.4379
14:53:11.223,36.3439,96.5316
14:53:11.228,35.0314,93.8441
14:53:11.235,32.6251,89.7503
14:53:11.247,30.7501,85.7816
14:53:11.260,28.5939,82.7503
14:53:11.264,27.2189,79.0003
14:53:11.275,25.2188,75.9065
14:53:11.285,24.2188,73.4378
14:53:11.294,22.0313,69.3753
14:53:11.304,20.5626,65.219
14:53:11.315,18.8751,62.1877
14:53:11.326,17.1563,58.594
14:53:11.339,15.5626,55.5627
14:53:11.344,14.2501,52.1877
14:53:11.354,12.3438,48.5314
14:53:11.365,10.5625,46.1564
14:53:11.374,9.2813,42.0314
14:53:11.385,8.0938,38.7189
14:53:11.394,6.375,35.8126
14:53:11.404,4.9375,32.1876
14:53:11.414,3.5,28.7189
14:53:11.424,2.5,26.3126
14:53:11.434,1.3125,22.8438
14:53:11.444,-0.125,20.1563
14:53:11.454,-1.3438,17.0313
14:53:11.465,-2.5,13.2188
14:53:11.474,-3.875,9.8125
14:53:11.484,-5.1563,7.3125
14:53:11.494,-6.875,3.6563
14:53:11.504,-8.2813,-0.1875
14:53:11.514,-8.8438,-2.625
14:53:11.524,-9.625,-5.3438
14:53:11.534,-11.3438,-7.9688
14:53:11.544,-12,-11.1563
14:53:11.554,-13.2813,-13.9688
14:53:11.564,-13.8438,-17.3438
14:53:11.574,-14.6876,-19.8126
14:53:11.584,-15.1563,-22.4688
14:53:11.594,-16.0313,-25.5001
14:53:11.608,-16.8751,-28.5001
14:53:11.614,-17.4688,-31.0626
14:53:11.624,-18.4688,-33.9064
14:53:11.634,-18.9063,-36.4689
14:53:11.644,-18.5313,-38.3439
14:53:11.654,-19.8126,-40.4689
14:53:11.665,-20.2813,-42.5939
14:53:11.674,-21.0313,-46.2189
14:53:11.684,-22.0313,-47.7189
14:53:11.717,-22.4376,-51.3127
14:53:11.720,-22.3751,-53.344
14:53:11.723,-23.8751,-55.8127
14:53:11.727,-24.6876,-58.8752
14:53:11.755,-26.0313,-61.5627
14:53:11.757,-27.5626,-64.8752
14:53:11.760,-29.1564,-67.5315
14:53:11.764,-31.2814,-71.2815
14:53:11.824,-32.8126,-73.8128
14:53:11.828,-34.1251,-76.9378
14:53:11.829,-34.7814,-79.2191
14:53:11.861,-36.5314,-82.3128
14:53:11.861,-38.0314,-84.1566
14:53:11.861,-39.5314,-86.6878
14:53:11.862,-39.4064,-88.4378
14:53:11.864,-40.4064,-90.5941
14:53:11.869,-42.0939,-91.4379
14:53:11.872,-42.6877,-93.4379
14:53:11.914,-43.5939,-95.9691
14:53:11.917,-44.3127,-97.3441
14:53:11.919,-44.5627,-98.6254
14:53:11.922,-45.1564,-100.2816
14:53:11.924,-45.9689,-100.7504
14:53:11.933,-46.5002,-102.0004
14:53:11.940,-46.4064,-103.5316
14:53:11.949,-47.2814,-104.7504
14:53:11.960,-48.3752,-106.0317
14:53:11.970,-49.1877,-106.8129
14:53:11.981,-50.2502,-107.9067
14:53:11.989,-50.5939,-109.8129
14:53:11.999,-52.719,-111.3442
14:53:12.009,-52.0939,-111.2192
14:53:12.019,-50.1877,-109.1254
14:53:12.030,-46.5314,-102.4066
14:53:12.039,-40.3752,-92.2816
14:53:12.049,-32.8126,-77.6878
14:53:12.061,-24.1563,-62.5627
14:53:12.069,-15.6251,-45.6877
14:53:12.080,-7.0625,-28.3439
14:53:12.090,-0.0625,-12.5313
14:53:12.100,7.125,1.1875
14:53:12.113,12.5625,14.9376
14:53:12.119,18.6251,25.4376
14:53:12.129,24.5313,37.3439
14:53:12.139,28.4376,47.5939
14:53:12.149,34.0314,57.844
14:53:12.159,38.1564,67.9378
14:53:12.171,43.3127,77.969
14:53:12.179,47.1252,87.7816
14:53:12.189,52.2814,97.5316
14:53:12.199,56.4065,107.6567
14:53:12.209,61.0627,116.6254
14:53:12.219,64.9377,126.8442
14:53:12.230,69.0628,135.563
14:53:12.239,72.6253,143.6568
14:53:12.250,74.969,151.5943
14:53:12.259,77.0315,156.0943
14:53:12.269,76.9065,159.4069
14:53:12.279,76.844,160.1881
14:53:12.289,74.5315,160.1569
14:53:12.299,72.8128,156.1881
14:53:12.309,68.5628,152.7506
14:53:12.321,66.2815,147.2506
14:53:12.329,62.6877,143.5318
14:53:12.339,60.219,137.563
14:53:12.349,57.4065,135.7505
14:53:12.359,57.0002,131.563
14:53:12.369,54.1877,129.5317
14:53:12.379,53.0315,125.1567
14:53:12.389,50.6252,123.313
14:53:12.399,48.8439,119.2817
14:53:12.409,46.2814,116.6254
14:53:12.419,44.1252,111.9067
14:53:12.429,41.9689,108.0004
14:53:12.439,39.9064,103.6254
14:53:12.449,37.5939,99.1879
14:53:12.460,35.3751,94.8441
14:53:12.469,33.1564,90.5629
14:53:12.480,30.1251,86.5316
14:53:12.493,28.6876,81.8753
14:53:12.499,26.2501,77.219
14:53:12.509,23.3126,73.0628
14:53:12.540,20.7501,67.1253
14:53:12.542,17.5938,62.9065
14:53:12.544,15.9688,57.5315
14:53:12.550,13.1563,53.9377
14:53:12.580,11.125,49.2502
14:53:12.582,9.375,44.0627
14:53:12.584,8.125,40.2502
14:53:12.589,6.25,36.8439
14:53:12.617,4.125,32.9064
14:53:12.620,2.5625,28.7814
14:53:12.622,0.0938,24.7501
14:53:12.657,-1.5,21.3126
14:53:12.659,-2.9688,17.0626
14:53:12.661,-4.8125,14.0938
14:53:12.668,-6.375,10.4063
14:53:12.676,-7.5313,6.5938
14:53:12.680,-8.625,3.25
14:53:12.697,-9.8125,0.4063
14:53:12.699,-11.6563,-2.7188
14:53:12.709,-12.1875,-5.875
14:53:12.719,-14.6563,-9.1563
14:53:12.729,-16.0001,-12.875
14:53:12.739,-17.7188,-16.3438
14:53:12.749,-18.8751,-20.2813
14:53:12.761,-20.1563,-23.9688
14:53:12.769,-21.7501,-27.3751
14:53:12.779,-23.1876,-31.0001
14:53:12.789,-23.7813,-34.0626
14:53:12.799,-25.7501,-37.3126
14:53:12.809,-27.0314,-40.0627
14:53:12.820,-28.4064,-44.2814
14:53:12.829,-30.2189,-46.7814
14:53:12.839,-31.2189,-51.2189
14:53:12.849,-32.7189,-54.1565
14:53:12.860,-33.6564,-57.594
14:53:12.869,-35.7189,-59.969
14:53:12.879,-36.4064,-64.0627
14:53:12.889,-37.6564,-67.1253
14:53:12.899,-38.6251,-69.0003
14:53:12.911,-39.8752,-73.0003
14:53:12.920,-40.6564,-75.0003
14:53:12.929,-42.2502,-79.0941
14:53:12.939,-42.8439,-80.7503
14:53:12.949,-44.3439,-84.2816
14:53:12.959,-45.0627,-86.0628
14:53:12.971,-46.5627,-89.1878
14:53:12.996,-47.0314,-91.1566
14:53:12.999,-47.8127,-93.0941
14:53:13.001,-48.2814,-95.6566
14:53:13.009,-49.0314,-98.1566
14:53:13.020,-49.0939,-99.4379
14:53:13.030,-49.5314,-101.9691
14:53:13.039,-49.9377,-102.5941
14:53:13.054,-49.6877,-105.3129
14:53:13.064,-49.8439,-106.2192
14:53:13.074,-50.0939,-107.9379
14:53:13.085,-50.0627,-108.8129
14:53:13.100,-50.0627,-109.8442
14:53:13.117,-50.1252,-110.5317
14:53:13.126,-50.0002,-112.6567
14:53:13.126,-50.3127,-114.0004
14:53:13.134,-50.6252,-115.1879
14:53:13.144,-50.7189,-115.9067
14:53:13.154,-51.0939,-117.5317
14:53:13.167,-51.9377,-119.2817
14:53:13.174,-52.7189,-121.7505
14:53:13.194,-53.0002,-122.563
14:53:13.197,-54.344,-124.9067
14:53:13.211,-54.5315,-125.9692
14:53:13.214,-55.2815,-126.9067
14:53:13.229,-52.7189,-124.3442
14:53:13.239,-49.0002,-117.3754
14:53:13.269,-42.1252,-106.8129
14:53:13.273,-33.8126,-91.5316
14:53:13.280,-24.0626,-75.219
14:53:13.282,-15.3751,-56.4377
14:53:13.308,-6.25,-39.6877
14:53:13.313,1.875,-23.3126
14:53:13.314,9.25,-8.2188
14:53:13.319,15.8438,5.7188
14:53:13.329,22.3751,19.9376
14:53:13.357,28.5626,32.0939
14:53:13.359,34.2814,45.2189
14:53:13.361,39.7814,56.7502
14:53:13.370,45.1564,68.5628
14:53:13.400,50.1877,79.6253
14:53:13.403,57.4377,98.8754
14:53:13.407,62.969,109.0942
14:53:13.411,68.2815,120.0942
14:53:13.428,72.4378,130.563
14:53:13.431,76.9065,141.7505
14:53:13.440,80.7191,150.7193
14:53:13.449,84.4066,159.8131
14:53:13.459,86.7503,166.9069
14:53:13.469,89.2191,174.3757
14:53:13.479,90.5941,178.5007
14:53:13.489,89.9691,181.3132
14:53:13.499,89.6878,182.1257
14:53:13.509,87.7816,180.5319
14:53:13.519,84.5628,177.7819
14:53:13.529,81.5628,173.6882
14:53:13.539,78.1565,168.1881
14:53:13.550,74.6878,163.1569
14:53:13.559,71.8753,159.0631
14:53:13.569,68.9378,154.7506
14:53:13.579,66.469,151.0318
14:53:13.589,64.719,147.6881
14:53:13.600,63.1565,144.8443
14:53:13.609,61.1565,142.2818
14:53:13.619,60.0627,139.1568
14:53:13.632,57.6565,136.813
14:53:13.640,56.1565,133.313
14:53:13.649,53.9065,129.188
14:53:13.659,51.2189,125.4692
14:53:13.669,49.8127,120.7817
14:53:13.679,46.1252,116.0629
14:53:13.690,42.8127,110.2504
14:53:13.701,40.0002,105.0004
14:53:13.710,37.6251,99.5941
14:53:13.719,34.1251,95.5316
14:53:13.729,32.4689,89.8753
14:53:13.739,29.0939,85.5316
14:53:13.749,28.2501,79.9066
14:53:13.761,24.0938,75.094
14:53:13.769,22.4688,69.7503
14:53:13.781,19.4688,65.3128
14:53:13.789,17.4688,59.5315
14:53:13.803,14.5938,54.8127
14:53:13.809,12.7813,49.5627
14:53:13.819,10.3438,44.6877
14:53:13.830,8.0313,41.0627
14:53:13.839,5.7813,35.4064
14:53:13.849,3.875,31.2501
14:53:13.860,1.5625,25.3751
14:53:13.869,-0.7813,20.8126
14:53:13.879,-3.1563,16.7501
14:53:13.889,-5.5,12.4063
14:53:13.900,-7.0313,8.2813
14:53:13.909,-8.5625,3.25
14:53:13.919,-11.3438,-0.6875
14:53:13.929,-13.2188,-5.1563
14:53:13.940,-15.1876,-9.375
14:53:13.964,-17.0001,-13.3438
14:53:13.965,-18.2813,-18.5313
14:53:13.969,-20.1876,-21.7501
14:53:14.003,-21.4063,-25.6251
14:53:14.004,-23.7188,-29.9064
14:53:14.008,-25.4063,-33.6876
14:53:14.012,-27.2189,-37.7189
14:53:14.045,-28.8126,-41.7814
14:53:14.048,-30.3126,-46.5939
14:53:14.049,-32.2814,-49.5627
14:53:14.053,-33.8439,-54.5002
14:53:14.081,-35.6876,-57.1252
14:53:14.083,-36.8126,-61.594
14:53:14.085,-37.9689,-65.1877
14:53:14.091,-40.1877,-68.1253
14:53:14.118,-41.0002,-72.094
14:53:14.120,-43.2814,-75.6878
14:53:14.124,-44.1877,-78.6878
14:53:14.131,-45.3752,-80.9378
14:53:14.140,-46.2189,-85.0003
14:53:14.151,-47.0939,-86.9691
14:53:14.163,-48.7502,-90.3754
14:53:14.169,-49.5939,-93.4691
14:53:14.179,-51.1877,-94.9066
14:53:14.189,-52.1877,-98.7816
14:53:14.199,-53.2502,-100.5941
14:53:14.209,-54.6252,-103.6566
14:53:14.220,-55.2502,-106.9379
14:53:14.229,-56.3752,-108.7504
14:53:14.239,-57.469,-111.9067
14:53:14.249,-57.8752,-113.5317
14:53:14.275,-59.719,-115.5317
14:53:14.278,-60.2815,-118.6567
14:53:14.280,-61.094,-120.2817
14:53:14.290,-61.4065,-122.5317
14:53:14.299,-62.1252,-123.438
14:53:14.309,-62.7502,-125.6255
14:53:14.319,-63.2502,-127.813
14:53:14.329,-65.0315,-129.563
14:53:14.339,-64.219,-131.1255
14:53:14.349,-64.844,-131.9693
14:53:14.359,-65.0627,-133.688
14:53:14.372,-66.6565,-135.563
14:53:14.380,-67.0003,-137.0005
14:53:14.398,-67.2503,-137.3755
14:53:14.406,-67.8753,-139.3443
14:53:14.420,-68.1565,-141.0318
14:53:14.423,-69.0315,-141.2193
14:53:14.429,-69.5315,-142.7193
14:53:14.440,-69.8753,-143.6568
14:53:14.449,-70.3128,-146.063
14:53:14.459,-69.9378,-146.5006
14:53:14.471,-70.594,-147.4068
14:53:14.490,-71.9065,-148.6568
14:53:14.494,-72.4378,-150.0318
14:53:14.510,-71.6253,-149.9068
14:53:14.512,-70.094,-147.2193
14:53:14.519,-67.1253,-142.7818
14:53:14.529,-60.6565,-132.7818
14:53:14.539,-52.969,-117.7192
14:53:14.554,-43.2502,-101.3441
14:53:14.563,-33.7501,-82.4066
14:53:14.569,-23.7188,-63.0627
14:53:14.579,-14.0938,-44.7189
14:53:14.589,-4.9063,-26.6251
14:53:14.599,2.3438,-10.125
14:53:14.609,9.5,4.4688
14:53:14.619,15.0938,18.8438
14:53:14.630,21.4376,31.8439
14:53:14.639,27.3439,45.9064
14:53:14.649,33.1564,58.0002
14:53:14.659,38.3751,70.5003
14:53:14.669,44.4064,83.5941
14:53:14.680,49.2502,95.5004
14:53:14.689,54.7502,107.0004
14:53:14.699,60.1877,120.7817
14:53:14.733,65.719,132.0943
14:53:14.734,70.2815,145.5005
14:53:14.737,75.5315,156.0943
14:53:14.739,80.6253,167.4381
14:53:14.778,84.2191,177.0007
14:53:14.779,87.4691,184.907
14:53:14.781,88.8441,191.1882
14:53:14.783,89.7816,196.2507
14:53:14.812,89.6566,198.157
14:53:14.815,88.5003,197.8445
14:53:14.817,86.0628,195.9382
14:53:14.821,83.3441,192.532
14:53:14.850,80.0003,187.1882
14:53:14.852,76.5628,181.9382
14:53:14.856,73.219,176.9069
14:53:14.861,70.5315,171.5632
14:53:14.888,68.2815,168.4694
14:53:14.891,66.1565,164.3756
14:53:14.893,64.0627,161.0319
14:53:14.900,62.719,158.6256
14:53:14.910,60.8752,156.1881
14:53:14.919,58.5627,152.2193
14:53:14.933,56.6877,150.2506
14:53:14.939,55.2815,145.7505
14:53:14.949,52.969,142.313
14:53:14.960,50.0627,136.9693
14:53:14.969,47.7814,132.7193
14:53:14.980,45.0939,127.6255
14:53:14.990,42.4064,122.9067
14:53:15.000,39.4689,118.1255
14:53:15.009,36.5001,112.5004
14:53:15.019,33.3126,106.1879
14:53:15.029,30.5626,102.0004
14:53:15.039,28.3439,96.0316
14:53:15.050,25.8126,91.2816
14:53:15.059,23.6563,86.5316
14:53:15.069,21.1251,80.8128
14:53:15.079,19.0001,76.0003
14:53:15.089,16.5001,71.2503
14:53:15.099,13.9063,65.594
14:53:15.109,11.8438,60.469
14:53:15.119,9.4063,55.219
14:53:15.130,7.7813,51.4689
14:53:15.139,5.3438,46.0314
14:53:15.149,3.9688,42.1252
14:53:15.160,1.8125,37.0939
14:53:15.170,-0.2188,32.7814
14:53:15.179,-1.7813,28.2814
14:53:15.189,-3.6875,24.6563
14:53:15.199,-5.8438,19.5313
14:53:15.209,-7.1875,15.1876
14:53:15.220,-9.5313,10.5625
14:53:15.230,-10.875,6.9375
14:53:15.239,-12.6563,2.8125
14:53:15.249,-14.3751,-1.25
14:53:15.262,-15.3126,-5.5
14:53:15.269,-17.4688,-9.1563
14:53:15.279,-18.7813,-13.6251
14:53:15.289,-21.2501,-17.9063
14:53:15.305,-22.5001,-21.3126
14:53:15.311,-23.9063,-24.6251
14:53:15.319,-26.0938,-29.2501
14:53:15.329,-27.4376,-32.5001
14:53:15.339,-29.2501,-36.2189
14:53:15.349,-30.3439,-40.1877
14:53:15.361,-31.8126,-43.6564
14:53:15.369,-33.0939,-46.9689
14:53:15.379,-34.0314,-50.5314
14:53:15.389,-35.5314,-53.8752
14:53:15.401,-37.1876,-56.5002
14:53:15.409,-38.2501,-60.594
14:53:15.441,-39.8127,-63.219
14:53:15.443,-41.3752,-67.2503
14:53:15.445,-42.3752,-70.4065
14:53:15.450,-43.5627,-73.2815
14:53:15.483,-45.1252,-76.219
14:53:15.488,-45.4064,-78.9378
14:53:15.488,-47.2189,-81.1878
14:53:15.492,-48.3439,-84.5941
14:53:15.521,-49.8752,-86.7816
14:53:15.522,-50.7189,-90.2503
14:53:15.525,-52.4689,-92.3129
14:53:15.529,-52.9065,-95.5004
14:53:15.555,-54.1252,-97.9066
14:53:15.558,-55.6565,-100.0004
14:53:15.561,-55.344,-102.8441
14:53:15.571,-56.969,-104.5629
14:53:15.603,-57.6252,-107.5317
14:53:15.604,-58.844,-109.0004
14:53:15.608,-60.0627,-112.0942
14:53:15.610,-60.1252,-113.4379
14:53:15.619,-61.5315,-117.1879
14:53:15.629,-62.1877,-118.2505
14:53:15.641,-63.219,-121.0317
14:53:15.649,-63.094,-121.3442
14:53:15.659,-63.6252,-123.438
14:53:15.669,-64.5627,-124.7505
14:53:15.679,-65.1565,-126.938
14:53:15.700,-65.3753,-128.2505
14:53:15.705,-65.7503,-129.3755
14:53:15.720,-66.1878,-129.4692
14:53:15.723,-66.6253,-132.313
14:53:15.731,-66.469,-132.9068
14:53:15.740,-67.844,-133.9693
14:53:15.749,-67.6565,-135.1255
14:53:15.759,-68.0315,-136.8755
14:53:15.769,-69.5003,-137.438
14:53:15.786,-69.4065,-139.7818
14:53:15.789,-70.2503,-140.7193
14:53:15.804,-70.969,-141.2818
14:53:15.810,-70.5003,-142.813
14:53:15.819,-71.2815,-142.9693
14:53:15.829,-70.5628,-143.9693
14:53:15.839,-70.6565,-142.9693
14:53:15.850,-68.469,-141.5005
14:53:15.859,-64.7502,-135.4068
14:53:15.869,-58.0627,-124.9067
14:53:15.881,-49.9377,-110.0317
14:53:15.889,-40.0627,-92.7191
14:53:15.899,-30.5939,-72.8753
14:53:15.909,-20.4688,-53.7502
14:53:15.919,-11.5938,-36.0939
14:53:15.929,-3,-17.7501
14:53:15.939,4.375,-2.2188
14:53:15.949,12,13.2188
14:53:15.959,18.3126,27.0001
14:53:15.970,24.6563,41.0002
14:53:15.980,30.3126,53.344
14:53:15.989,36.0626,66.594
14:53:16.000,41.6252,79.3441
14:53:16.009,47.3752,91.2504
14:53:16.021,52.2814,104.0941
14:53:16.029,58.1565,116.3442
14:53:16.039,62.8127,128.5942
14:53:16.052,68.5315,140.063
14:53:16.061,73.219,151.5006
14:53:16.072,77.8128,162.0319
14:53:16.079,81.2503,171.7819
14:53:16.089,84.6878,180.8757
14:53:16.100,87.2503,187.407
14:53:16.109,89.6878,193.907
14:53:16.119,90.1878,197.6258
14:53:16.150,89.4066,198.8758
14:53:16.152,88.0316,198.532
14:53:16.156,85.4066,195.407
14:53:16.162,82.3753,191.5007
14:53:16.193,79.0941,186.782
14:53:16.197,76.2815,181.7195
14:53:16.199,73.1878,176.7819
14:53:16.201,70.3128,172.5007
14:53:16.233,68.5315,168.0006
14:53:16.234,66.8753,165.5631
14:53:16.237,65.1565,162.8444
14:53:16.271,62.844,160.2819
14:53:16.272,60.9065,156.9068
14:53:16.273,58.8752,153.1568
14:53:16.281,57.0002,149.7818
14:53:16.281,55.594,146.313
14:53:16.311,53.0315,142.0943
14:53:16.313,50.1252,137.7818
14:53:16.315,48.4377,132.688
14:53:16.321,45.6252,129.0317
14:53:16.330,43.6877,123.1255
14:53:16.340,40.1564,117.8129
14:53:16.351,37.9064,113.4692
14:53:16.360,36.7501,109.5942
14:53:16.369,33.6876,103.9379
14:53:16.381,31.0626,99.0629
14:53:16.389,28.0626,93.7191
14:53:16.399,25.9376,88.4066
14:53:16.410,23.8438,83.3753
14:53:16.420,21.1251,78.1878
14:53:16.429,18.8126,73.844
14:53:16.440,17.1876,68.7503
14:53:16.449,14.7501,64.6252
14:53:16.459,13.0938,59.4065
14:53:16.469,11.375,54.6877
14:53:16.479,9.5313,50.5627
14:53:16.490,7.2188,46.6564
14:53:16.499,5.5625,42.3439
14:53:16.511,4.0938,37.7501
14:53:16.519,1,33.0001
14:53:16.529,-1.625,28.7501
14:53:16.539,-3.625,23.6251
14:53:16.549,-4.6563,19.9063
14:53:16.559,-6.125,16.3126
14:53:16.569,-7.625,13.2813
14:53:16.579,-8.8438,9.3125
14:53:16.591,-9.9063,5.0625
14:53:16.599,-12.1875,1.9688
14:53:16.611,-14.2188,-2.5313
14:53:16.619,-16.0313,-7.125
14:53:16.630,-17.6876,-11.0313
14:53:16.639,-19.3751,-15.2813
14:53:16.650,-21.5001,-18.0938
14:53:16.660,-23.0001,-21.9063
14:53:16.669,-24.2188,-25.8438
14:53:16.680,-25.3751,-29.5939
14:53:16.689,-26.0626,-32.3751
14:53:16.699,-27.0626,-35.4689
14:53:16.709,-28.7189,-39.3439
14:53:16.719,-29.9376,-43.1877
14:53:16.729,-30.9689,-46.1252
14:53:16.741,-32.3439,-49.4689
14:53:16.749,-29.5001,-52.0314
14:53:16.759,-25.4688,-47.8752
14:53:16.769,-26.4689,-50.7502
14:53:16.779,-26.5939,-53.594
14:53:16.789,-31.0626,-58.4377
14:53:16.804,-34.3439,-63.6877
14:53:16.810,-37.2189,-67.7503
14:53:16.837,-38.0001,-70.3128
14:53:16.839,-36.0001,-70.6565
14:53:16.842,-33.6876,-71.844
14:53:16.849,-31.1564,-70.219
14:53:16.860,-29.9689,-72.4065
14:53:16.870,-30.8126,-74.3753
14:53:16.879,-32.6876,-78.6566
14:53:16.889,-33.8439,-80.4066
14:53:16.899,-35.5939,-84.5941
14:53:16.909,-36.0314,-86.4691
14:53:16.921,-36.5314,-89.4691
14:53:16.930,-35.9064,-89.9378
14:53:16.968,-37.0001,-93.0941
14:53:16.972,-38.5001,-95.5941
14:53:16.974,-39.5627,-98.1566
14:53:16.977,-41.6564,-101.5629
14:53:16.981,-43.1564,-104.3441
14:53:17.012,-45.1564,-106.8129
14:53:17.045,-46.2814,-109.4067
14:53:17.105,-46.7189,-110.3442
14:53:17.126,-47.0002,-112.9692
14:53:17.143,-46.5627,-113.0004
14:53:17.143,-46.5002,-114.8442
14:53:17.143,-47.1252,-115.1879
14:53:17.157,-47.4689,-117.5005
14:53:17.159,-48.8752,-118.438
14:53:17.163,-50.4064,-121.5005
14:53:17.163,-51.8752,-122.938
14:53:17.163,-52.8127,-125.188
14:53:17.171,-53.4377,-126.2505
14:53:17.180,-53.0315,-127.1567
14:53:17.190,-53.9065,-127.9067
14:53:17.200,-53.1877,-128.938
14:53:17.211,-54.1877,-129.4692
14:53:17.219,-54.9065,-131.5943
14:53:17.230,-56.2502,-133.0005
14:53:17.239,-56.0002,-133.313
14:53:17.250,-55.2502,-130.813
14:53:17.260,-51.8752,-123.938
14:53:17.270,-44.7189,-113.3442
14:53:17.279,12.8438,-4.0938
14:53:17.295,19.2501,11.125
14:53:17.306,26.6564,25.7188
14:53:17.314,32.5626,38.2814
14:53:17.325,37.8751,50.8752
14:53:17.335,46.3752,70.719
14:53:17.345,51.6564,81.9691
14:53:17.355,55.7815,93.6254
14:53:17.366,61.219,105.8442
14:53:17.375,66.4065,118.0005
14:53:17.384,72.0628,129.1567
14:53:17.395,76.4065,140.7818
14:53:17.407,81.7503,150.9693
14:53:17.414,85.2503,161.2506
14:53:17.424,89.4066,169.4381
14:53:17.435,91.5941,177.6257
14:53:17.445,93.5629,183.1882
14:53:17.457,94.8441,190.0632
14:53:17.465,94.6879,190.782
14:53:17.475,92.8129,189.2507
14:53:17.484,89.3441,186.3757
14:53:17.495,87.7816,182.3757
14:53:17.505,84.0316,177.4694
14:53:17.515,81.3128,172.8757
14:53:17.525,78.8128,167.9381
14:53:17.535,75.6565,163.6256
14:53:17.544,73.7503,160.2194
14:53:17.557,71.8753,156.6256
14:53:17.565,70.2503,153.9068
14:53:17.576,68.969,151.0006
14:53:17.585,66.8128,148.6881
14:53:17.596,65.6565,145.813
14:53:17.605,63.9065,143.0005
14:53:17.615,62.5002,139.563
14:53:17.633,60.5627,135.1255
14:53:17.635,57.844,130.2817
14:53:17.651,55.3127,126.6255
14:53:17.659,52.5002,120.7817
14:53:17.666,49.6252,115.5004
14:53:17.702,47.2814,110.7504
14:53:17.702,44.7502,104.6879
14:53:17.704,41.5314,100.3754
14:53:17.710,39.4064,95.2504
14:53:17.716,36.7814,89.1253
14:53:17.745,33.0626,83.6253
14:53:17.747,30.2501,77.719
14:53:17.749,27.3439,72.7503
14:53:17.756,25.6251,67.4378
14:53:17.789,23.8126,62.469
14:53:17.793,21.3438,57.8127
14:53:17.794,19.0938,52.719
14:53:17.800,16.2188,47.3439
14:53:17.808,14.2188,42.6252
14:53:17.841,11.5,37.4064
14:53:17.843,9.6875,32.3439
14:53:17.845,8.0313,28.4689
14:53:17.848,5.5313,24.9688
14:53:17.855,4.4063,19.5626
14:53:17.867,2.7813,15.1251
14:53:17.875,-0.125,11.6875
14:53:17.885,-1.7188,5.6563
14:53:17.897,-3.8438,1.75
14:53:17.905,-5.6563,-2.25
14:53:17.914,-7.75,-6.6875
14:53:17.930,-10.1563,-11.0938
14:53:17.935,-12.1875,-15.7501
14:53:17.945,-13.4063,-19.7501
14:53:17.955,-14.9063,-23.7813
14:53:17.966,-16.3751,-27.4689
14:53:17.974,-18.0313,-31.0314
14:53:17.987,-19.9376,-34.8126
14:53:17.996,-21.9376,-39.5627
14:53:18.005,-23.9063,-44.1252
14:53:18.015,-25.4376,-47.8127
14:53:18.025,-27.6251,-51.1564
14:53:18.035,-28.4376,-54.9065
14:53:18.045,-30.1251,-58.4065
14:53:18.055,-31.3439,-61.719
14:53:18.065,-32.3751,-64.719
14:53:18.076,-34.1876,-67.8128
14:53:18.085,-35.5626,-71.6878
14:53:18.116,-36.9689,-74.4378
14:53:18.118,-37.8751,-77.469
14:53:18.122,-39.4064,-80.1878
14:53:18.126,-40.9377,-83.8128
14:53:18.135,-42.5939,-86.5628
14:53:18.146,-43.8439,-89.7191
14:53:18.156,-44.9377,-92.0316
14:53:18.165,-45.8752,-94.6879
14:53:18.176,-45.5939,-96.0316
14:53:18.185,-47.0627,-99.1254
14:53:18.195,-48.5939,-101.7504
14:53:18.205,-49.8439,-104.4691
14:53:18.215,-50.0627,-106.3442
14:53:18.225,-51.0627,-107.9379
14:53:18.237,-51.6564,-110.4379
14:53:18.245,-53.7502,-112.9067
14:53:18.256,-54.5315,-116.1254
14:53:18.265,-55.9377,-117.7192
14:53:18.275,-56.5315,-120.4067
14:53:18.285,-57.5315,-121.9067
14:53:18.296,-58.0002,-123.313
14:53:18.307,-57.5627,-125.1567
14:53:18.384,-58.8752,-127.063
14:53:18.384,-60.2815,-128.063
14:53:18.386,-60.4065,-130.9693
14:53:18.391,-61.4377,-131.6255
14:53:18.391,-61.8752,-134.313
14:53:18.396,-62.969,-135.0943
14:53:18.423,-63.719,-137.438
14:53:18.423,-64.5627,-139.3443
14:53:18.424,-64.3127,-140.1568
14:53:18.427,-65.1565,-140.3443
14:53:18.452,-64.8127,-142.063
14:53:18.453,-65.844,-142.5943
14:53:18.456,-66.1253,-144.688
14:53:18.461,-66.3753,-144.5318
14:53:18.488,-66.0315,-146.1881
14:53:18.490,-66.0315,-146.3443
14:53:18.494,-66.719,-147.3756
14:53:18.501,-67.7815,-149.3443
14:53:18.507,-67.344,-149.2193
14:53:18.515,-67.3128,-150.4068
14:53:18.525,-68.0003,-150.7818
14:53:18.537,-68.3753,-151.7193
14:53:18.545,-68.8128,-152.8443
14:53:18.556,-69.1253,-154.1256
14:53:18.565,-70.0003,-157.8131
14:53:18.577,-69.5315,-155.5631
14:53:18.585,-67.6253,-153.6256
14:53:18.596,-63.0315,-147.4693
14:53:18.605,-56.1877,-134.7818
14:53:18.616,-46.1252,-117.7192
14:53:18.628,-35.7189,-98.0941
14:53:18.635,-25.7813,-78.4065
14:53:18.645,-15.5938,-57.469
14:53:18.655,-6.3125,-38.8439
14:53:18.665,3.0938,-20.3751
14:53:18.682,10.875,-3.25
14:53:18.685,16.8438,11.0938
14:53:18.696,22.9376,24.2813
14:53:18.705,28.7189,37.6251
14:53:18.716,34.1564,50.4689
14:53:18.725,40.0627,63.0002
14:53:18.735,44.8439,74.344
14:53:18.747,49.3127,86.4378
14:53:18.755,54.7502,97.7191
14:53:18.765,59.0315,108.9692
14:53:18.776,63.9065,119.9692
14:53:18.785,68.0315,131.7505
14:53:18.796,72.094,140.438
14:53:18.805,75.4065,150.6881
14:53:18.815,78.6878,158.3756
14:53:18.825,82.0316,166.5319
14:53:18.835,83.6878,171.6257
14:53:18.846,85.3128,176.1257
14:53:18.856,84.9378,177.2819
14:53:18.865,82.5941,176.7507
14:53:18.876,80.6878,173.8757
14:53:18.885,77.2815,170.6256
14:53:18.895,74.3128,166.5944
14:53:18.905,72.219,162.7819
14:53:18.915,70.5628,159.2194
14:53:18.936,68.2503,155.4693
14:53:18.939,66.4065,152.4693
14:53:18.954,64.8127,149.9693
14:53:18.958,63.1565,147.3131
14:53:18.971,62.094,144.6568
14:53:18.977,60.9065,142.938
14:53:18.986,58.3127,139.7818
14:53:18.995,57.2502,136.4693
14:53:19.005,54.8752,132.7505
14:53:19.016,52.3127,129.5317
14:53:19.025,49.7502,124.313
14:53:19.063,46.8439,119.438
14:53:19.063,45.0314,114.9379
14:53:19.066,43.0002,110.6254
14:53:19.068,40.3752,106.3442
14:53:19.101,38.4376,101.3441
14:53:19.104,35.7501,95.9379
14:53:19.105,32.6564,90.4379
14:53:19.108,30.3126,85.9066
14:53:19.143,28.1251,80.9691
14:53:19.144,25.5626,76.6878
14:53:19.147,22.1876,71.6253
14:53:19.151,20.2501,65.6877
14:53:19.176,17.7188,61.2815
14:53:19.179,15.9376,56.6252
14:53:19.181,14.0626,51.9377
14:53:19.185,12.4063,47.3752
14:53:19.215,10.2188,42.7814
14:53:19.217,7.4063,38.1564
14:53:19.219,5.2188,33.4689
14:53:19.225,4.0625,29.7189
14:53:19.236,2.1875,24.8438
14:53:19.245,0.6875,21.3438
14:53:19.256,-0.3438,16.5938
14:53:19.266,-1.7188,13.1563
14:53:19.275,-3.1563,8.9688
14:53:19.285,-5.5938,5.6563
14:53:19.295,-7.5938,1.1563
14:53:19.305,-9.5938,-4.0313
14:53:19.315,-11.0938,-6.4688
14:53:19.325,-11.5938,-10.9375
14:53:19.336,-13.9376,-14.5313
14:53:19.345,-15.7501,-18.9688
14:53:19.356,-17.1876,-23.6251
14:53:19.365,-18.3751,-27.2189
14:53:19.396,-20.2188,-31.1876
14:53:19.398,-21.1876,-34.4064
14:53:19.400,-22.3751,-38.1251
14:53:19.407,-24.4063,-41.0939
14:53:19.416,-25.4688,-44.9689
14:53:19.425,-27.4689,-48.0627
14:53:19.436,-28.9689,-52.1252
14:53:19.445,-30.1876,-55.469
14:53:19.456,-30.5626,-58.4065
14:53:19.466,-32.6876,-61.5627
14:53:19.475,-34.0314,-65.4377
14:53:19.485,-35.9064,-68.4378
14:53:19.495,-36.8126,-71.844
14:53:19.505,-38.0314,-73.7503
14:53:19.515,-39.6252,-77.844
14:53:19.527,-41.1252,-80.4066
14:53:19.536,-43.0939,-84.1253
14:53:19.545,-43.6877,-86.0003
14:53:19.557,-45.1877,-89.3753
14:53:19.565,-45.5002,-91.3441
14:53:19.575,-46.7814,-92.6254
14:53:19.585,-47.0627,-95.7504
14:53:19.595,-47.0314,-97.0941
14:53:19.612,-47.7502,-99.0941
14:53:19.615,-48.3439,-101.7191
14:53:19.626,-50.3752,-104.5629
14:53:19.635,-51.0939,-106.9067
14:53:19.652,-52.4064,-108.9692
14:53:19.669,-52.8127,-111.9067
14:53:19.671,-54.4065,-113.9067
14:53:19.686,-54.719,-116.2817
14:53:19.688,-55.4377,-117.4692
14:53:19.695,-56.219,-119.563
14:53:19.705,-56.0002,-120.4692
14:53:19.715,-57.0627,-122.813
14:53:19.725,-57.8752,-124.2192
14:53:19.735,-59.5627,-127.5005
14:53:19.745,-59.6877,-128.0942
14:53:19.757,-60.2815,-130.313
14:53:19.765,-60.469,-131.2193
14:53:19.775,-60.7502,-132.7193
14:53:19.785,-60.9065,-133.1568
14:53:19.796,-61.3752,-135.3443
14:53:19.805,-61.1877,-135.4693
14:53:19.816,-61.594,-136.7818
14:53:19.825,-61.2815,-137.3755
14:53:19.835,-61.344,-138.4068
14:53:19.870,-62.5002,-139.4693
14:53:19.872,-63.1565,-140.9068
14:53:19.874,-63.719,-142.1255
14:53:19.877,-64.3752,-143.688
14:53:19.909,-64.3752,-144.1255
14:53:19.912,-64.6877,-145.4693
14:53:19.914,-64.9065,-145.813
14:53:19.917,-65.6878,-147.6881
14:53:19.945,-65.5627,-147.4068
14:53:19.947,-66.2503,-149.8443
14:53:19.952,-67.1565,-150.0943
14:53:19.956,-67.3753,-151.5006
14:53:19.994,-66.344,-149.3443
14:53:19.996,-64.0627,-145.7505
14:53:20.000,-58.6565,-136.688
14:53:20.003,-51.0939,-121.9067
14:53:20.007,-40.5939,-104.0004
14:53:20.034,-30.1876,-83.5316
14:53:20.036,-18.8751,-62.6252
14:53:20.038,-8.0938,-41.1564
14:53:20.046,1.625,-22.7501
14:53:20.056,10.2188,-4.4063
14:53:20.065,17.7188,11.1875
14:53:20.075,23.7188,26.2814
14:53:20.085,29.5939,38.2189
14:53:20.095,35.4689,50.6252
14:53:20.106,39.7502,62.344
14:53:20.115,45.6564,74.0003
14:53:20.125,49.5939,85.5003
14:53:20.135,55.4377,96.7816
14:53:20.147,59.594,108.2817
14:53:20.155,65.594,119.563
14:53:20.165,69.8128,130.7817
14:53:20.175,74.719,140.9068
14:53:20.187,77.9065,150.3131
14:53:20.195,81.5628,158.8444
14:53:20.206,84.9378,167.3756
14:53:20.215,87.0941,173.2819
14:53:20.225,88.4691,178.2507
14:53:20.245,88.6253,180.4069
14:53:20.248,87.9691,181.2194
14:53:20.258,86.2503,180.0632
14:53:20.266,84.8441,176.8132
14:53:20.281,82.7816,173.7819
14:53:20.288,81.4066,170.3756
14:53:20.297,78.7816,166.0006
14:53:20.306,76.2815,162.7194
14:53:20.315,74.594,160.1256
14:53:20.325,72.5628,157.8131
14:53:20.337,71.3753,155.8131
14:53:20.345,70.0003,153.3131
14:53:20.356,68.1878,150.9693
14:53:20.365,67.0003,148.5006
14:53:20.375,65.7503,145.9693
14:53:20.385,64.3127,142.6255
14:53:20.395,64.7502,140.563
14:53:20.405,61.5627,135.3755
14:53:20.415,59.1252,130.7505
14:53:20.425,56.5627,127.438
14:53:20.435,54.4377,122.2505
14:53:20.446,52.6877,118.1255
14:53:20.456,50.1252,112.5942
14:53:20.465,47.7502,107.9067
14:53:20.476,45.6252,103.9066
14:53:20.485,43.2502,99.8129
14:53:20.496,41.0939,94.9066
14:53:20.505,38.2501,89.4378
14:53:20.532,34.9064,85.4691
14:53:20.534,31.8439,79.5003
14:53:20.537,29.5001,74.0628
14:53:20.565,27.7189,69.8753
14:53:20.568,25.6251,65.5002
14:53:20.569,23.7501,61.594
14:53:20.575,21.8751,57.2815
14:53:20.614,19.5938,53.5002
14:53:20.617,17.0001,48.5002
14:53:20.620,15.1563,44.7814
14:53:20.623,13.3751,41.2502
14:53:20.629,12.4375,37.1876
14:53:20.667,10.625,33.9689
14:53:20.668,9.2813,29.3439
14:53:20.671,6.75,26.7189
14:53:20.684,5.3438,21.7188
14:53:20.686,3.25,18.6876
14:53:20.700,2.0938,13.6876
14:53:20.703,0.125,9.9375
14:53:20.705,-1.1875,5.5625
14:53:20.715,-2.25,2.6563
14:53:20.725,-4.875,-1.2188
14:53:20.735,-6.4375,-5.4375
14:53:20.745,-7.5,-9.9063
14:53:20.755,-9.625,-12.875
14:53:20.765,-10.625,-16.2188
14:53:20.781,-12.1563,-19.4063
14:53:20.786,-13.8126,-22.8126
14:53:20.796,-14.8438,-25.9063
14:53:20.805,-16.5626,-30.2189
14:53:20.815,-18.4376,-32.9376
14:53:20.825,-19.5626,-35.7814
14:53:20.837,-21.0626,-40.0002
14:53:20.845,-22.7501,-43.0314
14:53:20.855,-23.8438,-46.0627
14:53:20.865,-25.5001,-48.8439
14:53:20.875,-25.9688,-51.7814
14:53:20.888,-27.6564,-54.2815
14:53:20.896,-28.2814,-57.2815
14:53:20.905,-29.8751,-59.5627
14:53:20.915,-31.2814,-62.9377
14:53:20.925,-32.5626,-65.2815
14:53:20.935,-34.1564,-68.5628
14:53:20.954,-34.7814,-70.5628
14:53:20.961,-35.6564,-71.5628
14:53:20.970,-36.6251,-74.4378
14:53:20.976,-36.7189,-76.9378
14:53:20.991,-38.9064,-79.2191
14:53:20.998,-39.9064,-82.3128
14:53:21.006,-40.9064,-83.6253
14:53:21.015,-41.5314,-86.9066
14:53:21.025,-42.5939,-87.5316
14:53:21.038,-43.6252,-91.0004
14:53:21.045,-43.7502,-92.4691
14:53:21.055,-45.0002,-93.5316
14:53:21.065,-45.1252,-95.6879
14:53:21.076,-45.7502,-96.9066
14:53:21.086,-46.7189,-98.5004
14:53:21.095,-47.0627,-101.2816
14:53:21.105,-48.9689,-103.4066
14:53:21.115,-48.6877,-104.3441
14:53:21.125,-50.3127,-106.3129
14:53:21.135,-50.6564,-108.0942
14:53:21.145,-51.6252,-108.6879
14:53:21.159,-51.9377,-109.5629
14:53:21.165,-52.3439,-111.2504
14:53:21.176,-52.3752,-111.8129
14:53:21.185,-53.0627,-113.3754
14:53:21.195,-52.4689,-114.0004
14:53:21.205,-54.1252,-114.6879
14:53:21.216,-53.6252,-116.1879
14:53:21.225,-54.0315,-116.5317
14:53:21.236,-54.844,-118.8442
14:53:21.255,-55.0315,-118.2505
14:53:21.258,-55.1565,-119.688
14:53:21.268,-55.2815,-120.688
14:53:21.291,-55.1877,-121.5005
14:53:21.294,-54.8127,-121.813
14:53:21.296,-55.844,-121.938
14:53:21.330,-56.3127,-124.313
14:53:21.335,-55.8752,-124.2817
14:53:21.337,-55.719,-122.938
14:53:21.342,-53.0315,-119.313
14:53:21.371,-46.8439,-109.1254
14:53:21.375,-39.1564,-95.9379
14:53:21.377,-30.3126,-78.0003
14:53:21.382,-20.7188,-60.2815
14:53:21.396,-11.3438,-39.8439
14:53:21.401,-1.9063,-22.0938
14:53:21.426,6,-4.4375
14:53:21.429,12.1563,8.9688
14:53:21.432,17.9063,22.9063
14:53:21.442,22.2188,33.0314
14:53:21.451,27.1251,44.1252
14:53:21.460,31.4376,52.969
14:53:21.470,37.6564,67.7503
14:53:21.485,42.4377,76.844
14:53:21.495,47.0314,86.2816
14:53:21.505,50.3439,95.4066
14:53:21.517,54.4065,103.4691
14:53:21.531,56.7502,112.1567
14:53:21.536,60.7502,119.3442
14:53:21.545,62.6252,127.313
14:53:21.565,65.1565,131.9068
14:53:21.568,66.094,137.563
14:53:21.578,66.7815,138.5318
14:53:21.585,66.1253,139.4693
14:53:21.601,65.9377,138.0005
14:53:21.608,64.2502,136.1255
14:53:21.616,62.4377,133.2818
14:53:21.625,60.8752,130.688
14:53:21.635,58.8752,128.6567
14:53:21.645,58.2815,127.0942
14:53:21.656,57.0315,126.8442
14:53:21.666,57.1565,126.4692
14:53:21.676,57.0627,126.2192
14:53:21.685,56.219,125.8442
14:53:21.695,55.3752,123.063
14:53:21.706,53.719,121.188
14:53:21.716,51.8752,118.4692
14:53:21.726,51.1564,114.9067
14:53:21.736,49.0314,112.0004
14:53:21.745,45.8439,107.7192
14:53:21.756,43.5939,103.0941
14:53:21.766,41.4064,99.3754
14:53:21.775,40.0627,95.7191
14:53:21.786,38.2189,91.4379
14:53:21.795,36.2501,87.3753
14:53:21.805,34.4376,83.3753
14:53:21.816,32.6564,79.9378
14:53:21.825,30.1876,76.2503
14:53:21.835,28.8751,71.7815
14:53:21.845,26.7189,68.094
14:53:21.857,24.6563,63.7815
14:53:21.866,22.9688,60.344
14:53:21.875,21.6251,57.4065
14:53:21.885,19.9376,53.094
14:53:21.895,18.5313,50.3439
14:53:21.908,16.6563,46.0939
14:53:21.916,14.6251,43.3439
14:53:21.927,13.5938,39.1876
14:53:21.955,12,36.2501
14:53:21.958,10.4063,32.4689
14:53:21.960,9.125,29.0314
14:53:21.966,7.9063,25.6251
14:53:21.976,5.8438,22.5001
14:53:21.986,5.2813,19.1876
14:53:21.996,3.3125,16.3751
14:53:22.005,2.1563,14.0313
14:53:22.039,1.2813,9.4688
14:53:22.040,-0.6563,6.75
14:53:22.043,-2.1563,2.7813
14:53:22.047,-3.8125,-0.9375
14:53:22.077,-5.8438,-4.5313
14:53:22.080,-6.9375,-8.4063
14:53:22.083,-7.5938,-11.1563
14:53:22.088,-8.5625,-14.0001
14:53:22.114,-9.9688,-16.6251
14:53:22.117,-11.6563,-19.8438
14:53:22.119,-12.7188,-23.2813
14:53:22.125,-14.3438,-26.8751
14:53:22.156,-15.4376,-29.3126
14:53:22.158,-17.2501,-32.2501
14:53:22.160,-18.3751,-35.2501
14:53:22.167,-19.2188,-38.9064
14:53:22.193,-20.2813,-40.6877
14:53:22.196,-21.3126,-43.7189
14:53:22.198,-21.9376,-46.0627
14:53:22.205,-22.5313,-48.2814
14:53:22.215,-24.5313,-51.2502
14:53:22.227,-25.1563,-53.8127
14:53:22.235,-26.0001,-55.5315
14:53:22.245,-26.8126,-58.5627
14:53:22.257,-27.5314,-60.4065
14:53:22.265,-28.7189,-63.1252
14:53:22.283,-29.5314,-65.094
14:53:22.290,-30.5626,-65.969
14:53:22.307,-31.0314,-69.9065
14:53:22.308,-33.0626,-71.8128
14:53:22.326,-33.6876,-74.4065
14:53:22.326,-34.6251,-76.7503
14:53:22.335,-35.7501,-77.8753
14:53:22.348,-36.3751,-80.7816
14:53:22.355,-37.4376,-81.4691
14:53:22.365,-37.6251,-84.3128
14:53:22.375,-39.0314,-84.8753
14:53:22.386,-40.0002,-88.4378
14:53:22.396,-41.1252,-88.6566
14:53:22.405,-40.6564,-91.3754
14:53:22.415,-41.3439,-90.9379
14:53:22.425,-42.0314,-93.6254
14:53:22.435,-42.5314,-95.7191
14:53:22.445,-43.0002,-96.1879
14:53:22.456,-43.2189,-97.0941
14:53:22.467,-44.6252,-98.9691
14:53:22.475,-46.5314,-99.1566
14:53:22.485,-46.7814,-102.0004
14:53:22.496,-48.0939,-103.3129
14:53:22.507,-48.9689,-105.3754
14:53:22.515,-50.4377,-107.2504
14:53:22.525,-51.8752,-108.9692
14:53:22.535,-53.8127,-110.7504
14:53:22.546,-57.5315,-114.7504
14:53:22.556,-60.594,-117.1254
14:53:22.566,-63.0315,-119.0942
14:53:22.575,-63.3127,-120.313
14:53:22.585,-62.5627,-117.5004
14:53:22.596,-58.9065,-113.2192
14:53:22.605,-55.1877,-103.2816
14:53:22.615,-48.9377,-91.0316
14:53:22.625,-40.9064,-73.3128
14:53:22.636,-35.0001,-58.1565
14:53:22.646,-28.5314,-41.1564
14:53:22.658,-22.6563,-24.7501
14:53:22.665,-14.0626,-7.75
14:53:22.675,-7.5313,7.8438
14:53:22.688,-1.0625,20.5938
14:53:22.696,4.0313,33.3126
14:53:22.705,9.0625,43.9064
14:53:22.715,14.2813,54.6877
14:53:22.725,18.0626,66.1565
14:53:22.735,22.6876,75.4378
14:53:22.746,27.3439,85.2503
14:53:22.756,31.0626,95.4066
14:53:22.790,36.1251,104.5941
14:53:22.792,39.7189,114.8129
14:53:22.793,44.6252,123.313
14:53:22.797,47.4064,132.4068
14:53:22.824,50.0939,139.313
14:53:22.826,53.1877,146.1255
14:53:22.829,55.344,151.2818
14:53:22.835,56.9377,155.9068
14:53:22.866,56.8127,157.4694
14:53:22.868,56.219,157.2193
14:53:22.872,56.0315,155.9381
14:53:22.878,54.4377,153.9068
14:53:22.914,52.9377,150.2506
14:53:22.948,51.7502,147.9693
14:53:22.963,51.1877,145.0318
14:53:22.965,51.4064,143.9693
14:53:22.965,51.7814,142.8755
14:53:22.981,51.3127,141.2505
14:53:22.983,50.8752,140.313
14:53:22.985,50.4689,137.8443
14:53:22.985,49.0627,135.188
14:53:22.992,47.0002,131.188
14:53:23.003,44.6564,126.2505
14:53:23.011,42.5939,122.438
14:53:23.020,39.6252,116.6879
14:53:23.036,36.7501,111.0004
14:53:23.040,34.7189,106.3129
14:53:23.053,31.2189,100.4066
14:53:23.060,28.7814,95.5004
14:53:23.070,25.5938,89.0941
14:53:23.080,23.2188,83.8441
14:53:23.090,20.3751,77.969
14:53:23.100,18.1251,71.969
14:53:23.111,15.5001,66.3753
14:53:23.120,12.5938,61.1252
14:53:23.130,10.9375,55.7502
14:53:23.140,8.1875,50.3439
14:53:23.150,3.9375,37.7814
14:53:23.160,1.3125,33.2501
14:53:23.172,-0.5938,26.8751
14:53:23.180,-2.6875,22.5938
14:53:23.190,-4.5,16.8438
14:53:23.201,-6.4375,11.1563
14:53:23.210,-8.5,6.125
14:53:23.238,-11,0.1563
14:53:23.240,-12.6563,-5.3125
14:53:23.243,-14.8438,-10.375
14:53:23.253,-16.8438,-15.8751
14:53:23.261,-19.5001,-20.9688
14:53:23.271,-21.5626,-26.3751
14:53:23.281,-23.5626,-31.6251
14:53:23.291,-26.4064,-36.6251
14:53:23.302,-27.9064,-41.2814
14:53:23.312,-30.1876,-46.8439
14:53:23.321,-32.6564,-52.0627
14:53:23.330,-33.6876,-56.9065
14:53:23.340,-35.9064,-61.3752
14:53:23.350,-38.1564,-66.2503
14:53:23.363,-40.3439,-71.3753
14:53:23.371,-41.8127,-75.7503
14:53:23.382,-43.8127,-79.8128
14:53:23.390,-45.0939,-84.3441
14:53:23.401,-47.5314,-89.9066
14:53:23.412,-49.4689,-93.5316
14:53:23.421,-51.7502,-97.1879
14:53:23.430,-53.094,-102.0004
14:53:23.441,-54.5315,-106.0629
14:53:23.478,-57.2815,-109.7817
14:53:23.481,-58.1565,-113.3442
14:53:23.483,-61.2502,-117.5004
14:53:23.487,-62.2502,-121.1255
14:53:23.492,-63.719,-123.9067
14:53:23.523,-65.594,-128.063
14:53:23.525,-66.6878,-130.1567
14:53:23.528,-68.0315,-132.813
14:53:23.553,-69.094,-136.5943
14:53:23.554,-71.1878,-138.5943
14:53:23.557,-72.0315,-142.688
14:53:23.562,-73.1878,-144.3755
14:53:23.593,-74.3128,-147.4068
14:53:23.637,-74.9378,-149.2818
14:53:23.639,-76.4378,-151.3443
14:53:23.642,-77.3753,-153.4381
14:53:23.645,-78.0628,-155.8131
14:53:23.648,-78.469,-158.0944
14:53:23.649,-79.3128,-159.7819
14:53:23.649,-79.1878,-161.3444
14:53:23.656,-80.0941,-162.7506
14:53:23.665,-79.5316,-164.0319
14:53:23.675,-80.0628,-164.9069
14:53:23.687,-79.7816,-165.5319
14:53:23.695,-80.5941,-165.7506
14:53:23.708,-80.0003,-166.5006
14:53:23.715,-79.8753,-166.6569
14:53:23.726,-79.3128,-166.6881
14:53:23.736,-78.3753,-165.6256
14:53:23.745,-77.594,-165.8131
14:53:23.756,-76.8128,-164.6881
14:53:23.767,-75.7815,-164.2506
14:53:23.776,-75.719,-163.8444
14:53:23.785,-75.2815,-163.6569
14:53:23.796,-75.7503,-163.8131
14:53:23.805,-76.8128,-165.0631
14:53:23.815,-79.2816,-167.6569
14:53:23.826,-79.7191,-168.5319
14:53:23.835,-79.0628,-167.5631
14:53:23.846,-78.9378,-165.4694
14:53:23.855,-76.2815,-163.0944
14:53:23.866,-72.1878,-154.8756
14:53:23.875,-66.0628,-144.5318
14:53:23.885,-57.8127,-127.7817
14:53:23.895,-48.0939,-109.4067
14:53:23.908,-37.4376,-88.0316
14:53:23.915,-28.0939,-66.6253
14:53:23.925,-17.4688,-45.1564
14:53:23.936,-8.2188,-25.1876
14:53:23.946,1.7813,-5.4688
14:53:23.956,9.9063,12.625
14:53:23.967,18.3751,29.3439
14:53:23.976,26.0001,46.0627
14:53:23.987,33.3751,61.0315
14:53:23.995,40.5002,77.219
14:53:24.008,46.5627,90.2816
14:53:24.015,52.6565,105.8129
14:53:24.025,58.0627,119.1255
14:53:24.035,64.5002,133.8443
14:53:24.045,70.1565,147.0318
14:53:24.058,75.6565,160.3756
14:53:24.066,81.0628,173.8757
14:53:24.077,87.2816,185.8445
14:53:24.087,93.1254,197.6258
14:53:24.095,96.5629,208.532
14:53:24.105,100.4691,216.2508
14:53:24.115,102.5629,223.9384
14:53:24.126,103.9691,229.1571
14:53:24.137,104.0004,232.0009
14:53:24.145,103.0004,231.6884
14:53:24.161,101.3754,228.9071
14:53:24.166,98.5941,225.8759
14:53:24.176,96.4691,221.6259
14:53:24.186,94.6254,217.0321
14:53:24.195,93.0629,212.8758
14:53:24.205,91.4379,209.2508
14:53:24.215,90.0941,206.6258
14:53:24.226,89.2503,204.3445
14:53:24.236,89.5003,201.2508
14:53:24.358,87.8441,199.3445
14:53:24.359,86.9066,197.1257
14:53:24.370,85.6878,193.2195
14:53:24.373,84.2503,189.532
14:53:24.375,82.3753,185.5632
14:53:24.375,79.3753,181.532
14:53:24.382,77.719,176.4382
14:53:24.414,73.594,170.6256
14:53:24.417,70.2815,164.7506
14:53:24.419,67.094,157.8756
14:53:24.422,63.2502,152.1568
14:53:24.432,59.8127,145.5318
14:53:24.440,56.3752,138.2505
14:53:24.451,53.2502,131.3755
14:53:24.463,50.5314,124.7817
14:53:24.471,47.2502,119.2192
14:53:24.482,43.7502,111.7504
14:53:24.490,41.1877,105.3754
14:53:24.515,39.1877,98.5941
14:53:24.518,36.2501,92.8754
14:53:24.523,34.4064,85.9691
14:53:24.536,31.9689,79.9066
14:53:24.541,14.7188,33.5314
14:53:24.550,13.4688,28.3439
14:53:24.560,12.8125,23.5001
14:53:24.571,11.9688,18.5313
14:53:24.583,11.6563,13.5938
14:53:24.590,9.8125,8.8125
14:53:24.604,9.4063,4.5313
14:53:24.611,8.5313,0.5
14:53:24.620,8.625,-3.4063
14:53:24.632,9.2813,-6.0625
14:53:24.641,10.0938,-9.875
14:53:24.651,10.0313,-13.6876
14:53:24.663,10.0313,-17.2501
14:53:24.670,10.4688,-20.2501
14:53:24.680,10.4375,-23.5626
14:53:24.692,8.9375,-28.1564
14:53:24.701,6.875,-34.0939
14:53:24.710,3.875,-39.7189
14:53:24.721,1.9375,-45.3127
14:53:24.730,-1.125,-50.3127
14:53:24.740,-4.5,-56.1877
14:53:24.750,-7.75,-62.6877
14:53:24.761,-11.625,-69.8128
14:53:24.770,-15.3126,-76.4065
14:53:24.783,-20.2188,-83.6878
14:53:24.792,-24.8438,-90.3128
14:53:24.802,-30.1251,-98.5316
14:53:24.812,-35.2814,-105.6567
14:53:24.820,-40.1877,-112.1254
14:53:24.831,-44.5314,-118.3442
14:53:24.841,-48.5002,-124.1255
14:53:24.850,-52.6252,-129.8442
14:53:24.860,-56.844,-135.6568
14:53:24.872,-59.969,-140.2193
14:53:24.882,-63.8127,-145.6255
14:53:24.890,-67.1878,-149.6256
14:53:24.901,-69.6253,-154.2193
14:53:25.032,-72.6878,-156.9381
14:53:25.036,-75.5628,-161.6881
14:53:25.036,-77.4065,-164.1569
14:53:25.036,-79.5316,-167.7194
14:53:25.037,-80.5316,-169.6569
14:53:25.062,-82.0003,-170.9069
14:53:25.064,-83.5316,-174.3757
14:53:25.064,-83.9378,-176.3757
14:53:25.065,-86.4691,-178.5632
14:53:25.068,-87.0628,-180.4694
14:53:25.073,-87.3441,-180.7194
14:53:25.098,-87.4066,-182.1882
14:53:25.100,-87.0628,-181.0007
14:53:25.103,-87.2191,-182.8132
14:53:25.111,-86.8441,-182.3132
14:53:25.125,-86.9691,-182.657
14:53:25.131,-86.9378,-182.7507
14:53:25.140,-85.8441,-181.8757
14:53:25.151,-85.3128,-180.5632
14:53:25.161,-84.4066,-180.4694
14:53:25.171,-83.8753,-180.3132
14:53:25.181,-83.3128,-179.1882
14:53:25.192,-82.5316,-178.0007
14:53:25.200,-80.7503,-177.0632
14:53:25.213,-82.0316,-179.9069
14:53:25.221,-74.094,-164.1569
14:53:25.230,-64.0627,-146.3443
14:53:25.241,-53.594,-124.5005
14:53:25.250,-42.7189,-101.5004
14:53:25.262,-30.5001,-77.6878
14:53:25.271,-19.9063,-55.4065
14:53:25.288,-9.8125,-33.6564
14:53:25.290,-0.125,-12.9688
14:53:25.300,9.625,6.1875
14:53:25.312,17.7813,24.9376
14:53:25.322,25.5001,42.1564
14:53:25.332,32.5939,58.0002
14:53:25.341,39.5627,74.5003
14:53:25.351,45.7502,90.1253
14:53:25.363,53.3127,105.6567
14:53:25.372,59.8752,121.2192
14:53:25.382,67.5315,137.438
14:53:25.391,74.844,153.4068
14:53:25.401,80.7503,167.2819
14:53:25.410,86.7816,182.2195
14:53:25.420,92.0004,193.4695
14:53:25.432,97.0941,206.0945
14:53:25.441,100.4066,217.6883
14:53:25.453,104.1566,225.3759
14:53:25.462,106.9692,234.0009
14:53:25.480,109.4067,238.6572
14:53:25.487,110.4379,242.1884
14:53:25.497,110.6567,243.8759
14:53:25.507,110.5942,242.7509
14:53:25.515,109.7817,240.7822
14:53:25.525,108.9067,237.4697
14:53:25.537,106.6567,234.0946
14:53:25.545,105.1254,230.3759
14:53:25.557,103.5316,225.7509
14:53:25.567,100.5629,221.9384
14:53:25.577,98.7504,217.0321
14:53:25.587,96.0629,213.7196
14:53:25.595,93.2816,208.5008
14:53:25.606,90.3754,204.2508
14:53:25.618,86.8128,199.5008
14:53:25.637,83.7191,192.5007
14:53:25.639,79.8753,187.3132
14:53:25.655,76.9378,180.3132
14:53:25.677,73.5628,174.5319
14:53:25.679,70.344,167.0319
14:53:25.681,66.969,161.0319
14:53:25.709,63.6565,153.7818
14:53:25.712,60.1877,146.8755
14:53:25.715,57.094,140.1255
14:53:25.718,54.594,133.0318
14:53:25.744,51.7814,126.6255
14:53:25.747,49.4377,119.3755
14:53:25.749,46.6877,112.2192
14:53:25.756,44.0939,104.9066
14:53:25.786,41.4377,97.6254
14:53:25.789,38.1564,90.6879
14:53:25.792,34.0626,82.6566
14:53:25.807,30.9689,75.3128
14:53:25.809,27.9376,67.969
14:53:25.847,24.7813,61.1252
14:53:25.849,21.5626,54.1565
14:53:25.865,19.5001,46.9064
14:53:25.867,16.6251,40.5314
14:53:25.868,14.6876,34.5939
14:53:25.869,13.1876,29.5314
14:53:25.877,11.2813,23.7813
14:53:25.885,9.5313,19.2813
14:53:25.896,7.9375,13.3751
14:53:25.906,6.6875,7.9375
14:53:25.915,4.9688,3.5938
14:53:25.929,4.0313,-2.1563
14:53:25.937,2.0625,-7
14:53:25.945,0.6563,-11.4063
14:53:25.956,-0.875,-16.9063
14:53:25.965,-3.0938,-21.2501
14:53:25.977,-4.4688,-27.2189
14:53:25.987,-7.2188,-32.9064
14:53:25.996,-9.7188,-37.8126
14:53:26.005,-12.5,-43.5627
14:53:26.016,-15.0313,-49.0627
14:53:26.025,-17.2188,-54.6877
14:53:26.040,-19.9376,-59.6565
14:53:26.047,-22.9688,-64.844
14:53:26.056,-25.0313,-70.7815
14:53:26.065,-29.2814,-76.6878
14:53:26.078,-32.0939,-82.6566
14:53:26.087,-35.4689,-88.3753
14:53:26.097,-38.8439,-93.0629
14:53:26.106,-41.5002,-99.0941
14:53:26.117,-45.3127,-103.9691
14:53:26.127,-47.2502,-109.0629
14:53:26.137,-50.7189,-113.7817
14:53:26.146,-52.844,-118.4067
14:53:26.156,-55.844,-122.813
14:53:26.166,-58.219,-126.563
14:53:26.175,-60.094,-130.0942
14:53:26.188,-61.9377,-133.5005
14:53:26.197,-64.094,-136.5318
14:53:26.207,-65.594,-140.2505
14:53:26.217,-67.8753,-143.1255
14:53:26.228,-68.8128,-145.7818
14:53:26.237,-70.9378,-148.8756
14:53:26.247,-72.219,-151.6256
14:53:26.257,-74.1878,-154.5631
14:53:26.271,-75.344,-156.8443
14:53:26.287,-76.8753,-159.0319
14:53:26.289,-78.7503,-162.4381
14:53:26.304,-80.2191,-163.5631
14:53:26.309,-81.3128,-166.1569
14:53:26.317,-82.2503,-167.6256
14:53:26.334,-82.4691,-169.0631
14:53:26.340,-82.5316,-169.0944
14:53:26.369,-82.0941,-170.3132
14:53:26.374,-82.7191,-170.3757
14:53:26.377,-82.7816,-171.5944
14:53:26.380,-83.9378,-171.9069
14:53:26.413,-84.1878,-173.1882
14:53:26.416,-83.7191,-172.0319
14:53:26.419,-83.1566,-172.2194
14:53:26.421,-81.9066,-170.7507
14:53:26.427,-80.7816,-170.0006
14:53:26.461,-80.4378,-169.1569
14:53:26.465,-79.1566,-168.4694
14:53:26.468,-79.5628,-167.1881
14:53:26.470,-77.6878,-165.2819
14:53:26.478,-77.1878,-164.6569
14:53:26.509,-75.344,-163.3756
14:53:26.512,-74.3128,-161.7506
14:53:26.514,-73.719,-159.9381
14:53:26.519,-74.2503,-160.6569
14:53:26.530,-74.1565,-160.3131
14:53:26.538,-74.4378,-160.3131
14:53:26.546,-72.844,-156.5318
14:53:26.557,-69.6878,-151.9068
14:53:26.566,-64.094,-141.438
14:53:26.577,-55.3127,-128.1255
14:53:26.586,-46.6252,-110.1567
14:53:26.598,-37.5314,-90.0316
14:53:26.606,-27.8126,-70.1253
14:53:26.616,-18.0626,-48.3127
14:53:26.627,-9.2813,-28.4376
14:53:26.636,-1.1875,-9.5625
14:53:26.646,7.625,8.25
14:53:26.656,15.2501,25.4063
14:53:26.667,22.9376,41.4689
14:53:26.677,29.3751,56.7815
14:53:26.686,36.2189,71.719
14:53:26.697,42.5627,86.5316
14:53:26.707,49.5002,99.9691
14:53:26.717,56.1252,115.1567
14:53:26.726,62.219,128.4692
14:53:26.736,68.6253,142.4693
14:53:26.746,73.9065,154.3443
14:53:26.757,79.3753,167.0944
14:53:26.767,83.7816,178.3132
14:53:26.777,88.8128,188.782
14:53:26.786,91.8441,198.8758
14:53:26.796,95.1254,206.0008
14:53:26.807,96.7191,212.4696
14:53:26.817,97.8441,215.6258
14:53:26.826,98.2191,216.6571
14:53:26.836,96.7816,216.9383
14:53:26.846,96.2191,215.3758
14:53:26.856,94.5316,212.1571
14:53:26.866,92.7504,209.2508
14:53:26.876,92.5629,206.6883
14:53:26.886,92.5316,204.7195
14:53:26.897,92.8754,203.532
14:53:26.907,92.7191,201.9383
14:53:26.916,92.5004,200.032
14:53:26.926,91.5941,197.9695
14:53:26.945,88.9066,194.8757
14:53:26.948,86.7816,190.7507
14:53:26.963,84.3441,185.9382
14:53:26.971,81.0003,181.3445
14:53:26.976,78.5003,175.9694
14:53:26.986,75.1253,170.2819
14:53:26.999,71.1878,164.6881
14:53:27.008,68.0315,159.0631
14:53:27.017,64.8127,152.0631
14:53:27.026,60.3752,146.3755
14:53:27.036,57.4377,139.313
14:53:27.046,54.5627,132.813
14:53:27.076,51.8752,125.938
14:53:27.078,49.3127,120.0005
14:53:27.080,46.2189,113.5317
14:53:27.087,43.1564,106.3754
14:53:27.096,40.6252,99.6254
14:53:27.108,37.3439,92.8441
14:53:27.119,35.1876,85.6878
14:53:27.127,33.3751,79.9378
14:53:27.136,30.1564,74.0003
14:53:27.146,28.1876,67.6878
14:53:27.185,25.3438,61.219
14:53:27.185,22.0938,54.5002
14:53:27.188,20.0626,48.1252
14:53:27.191,18.2813,41.5627
14:53:27.197,15.8751,35.5314
14:53:27.230,14.7813,29.9376
14:53:27.233,12.75,24.4688
14:53:27.235,11.6563,20.3126
14:53:27.238,11.5625,15.0938
14:53:27.269,11.2188,12.4375
14:53:27.272,12.4375,8.25
14:53:27.275,13.0313,5.125
14:53:27.278,14.9376,2.6875
14:53:27.307,15.6563,-0.0625
14:53:27.310,17.5938,-2.6563
14:53:27.312,17.9063,-4.3125
14:53:27.317,19.1563,-7.5625
14:53:27.345,19.1876,-9.8438
14:53:27.348,19.3126,-13.0938
14:53:27.351,19.8438,-16.8751
14:53:27.357,19.3751,-20.0313
14:53:27.366,17.1876,-24.5001
14:53:27.376,15.5001,-29.0626
14:53:27.387,12.3125,-34.9376
14:53:27.397,9.4688,-39.7502
14:53:27.409,5.9688,-46.1252
14:53:27.417,1.125,-52.6252
14:53:27.427,-2.625,-60.3752
14:53:27.437,-7.8438,-66.6253
14:53:27.446,-11.6563,-73.8128
14:53:27.457,-17.7188,-81.0316
14:53:27.466,-22.5001,-88.3753
14:53:27.477,-28.1876,-94.6566
14:53:27.486,-32.2189,-101.5629
14:53:27.498,-37.5001,-107.6879
14:53:27.506,-41.4064,-113.6567
14:53:27.517,-46.0627,-119.9067
14:53:27.527,-49.4377,-125.4067
14:53:27.537,-54.0002,-130.063
14:53:27.547,-56.719,-135.063
14:53:27.558,-60.5627,-140.1255
14:53:27.572,-63.3752,-144.563
14:53:27.588,-67.0628,-148.5943
14:53:27.592,-69.6878,-153.1256
14:53:27.597,-73.0628,-157.3756
14:53:27.606,-75.2815,-160.5944
14:53:27.616,-77.969,-163.8131
14:53:27.627,-78.719,-166.5319
14:53:27.636,-81.0941,-169.0006
14:53:27.646,-81.9691,-171.3132
14:53:27.656,-84.1253,-173.7819
14:53:27.667,-85.6253,-175.7819
14:53:27.677,-87.3128,-177.4694
14:53:27.688,-87.9691,-178.9069
14:53:27.699,-89.2503,-180.1569
14:53:27.706,-89.2191,-180.7819
14:53:27.719,-90.7503,-181.8132
14:53:27.726,-89.9691,-181.782
14:53:27.736,-90.6566,-182.1257
14:53:27.746,-90.9379,-181.3757
14:53:27.756,-91.0316,-182.157
14:53:27.767,-91.6879,-181.1882
14:53:27.778,-90.6253,-181.4382
14:53:27.788,-90.5941,-180.1257
14:53:27.796,-90.0316,-180.9382
14:53:27.806,-90.4691,-179.1882
14:53:27.816,-89.9691,-180.5319
14:53:27.826,-89.3128,-178.2819
14:53:27.855,-87.0316,-177.1882
14:53:27.858,-85.6253,-173.2507
14:53:27.860,-81.4691,-169.1881
14:53:27.867,-75.7503,-158.6569
14:53:27.896,-65.844,-144.0005
14:53:27.898,-56.2815,-124.3442
14:53:27.900,-46.5627,-105.2504
14:53:27.907,-35.6251,-82.5941
14:53:27.923,-24.5313,-61.469
14:53:27.926,-15.9688,-39.9689
14:53:27.956,-7.125,-21.6251
14:53:27.959,0.5938,-2.0313
14:53:27.961,8.75,14.1876
14:53:27.967,16.4376,31.0001
14:53:27.994,20.9376,45.7189
14:53:27.997,27.4064,60.1252
14:53:27.999,32.9064,75.5315
14:53:28.006,40.0314,89.6253
14:53:28.017,45.5939,104.8129
14:53:28.027,52.3439,118.1567
14:53:28.037,58.594,133.9068
14:53:28.046,64.6877,146.2505
14:53:28.056,70.5003,161.0631
14:53:28.066,75.469,173.1882
14:53:28.076,80.9378,185.9382
14:53:28.094,84.9066,195.657
14:53:28.096,88.8441,206.3445
14:53:28.107,91.7504,213.3133
14:53:28.117,94.7504,219.8133
14:53:28.126,94.6254,222.1884
14:53:28.136,93.5941,223.3134
14:53:28.146,92.2191,221.8759
14:53:28.156,90.6253,218.6258
14:53:28.167,87.9691,215.6571
14:53:28.176,86.0316,212.3758
14:53:28.187,84.9691,209.532
14:53:28.197,84.2503,207.2195
14:53:28.207,84.1253,205.8445
14:53:28.218,84.2816,204.032
14:53:28.227,84.2816,203.2508
14:53:28.248,84.8128,201.8758
14:53:28.250,84.4378,199.7195
14:53:28.266,84.5003,196.8758
14:53:28.268,83.3441,193.657
14:53:28.277,80.5003,189.0945
14:53:28.286,78.7191,184.3445
14:53:28.296,75.094,178.5007
14:53:28.306,71.344,172.6882
14:53:28.317,67.8128,165.7506
14:53:28.326,64.2815,158.7506
14:53:28.359,60.344,151.6881
14:53:28.360,56.1877,144.0005
14:53:28.363,51.9377,136.5318
14:53:28.366,48.3127,129.8442
14:53:28.376,45.1252,122.7817
14:53:28.386,41.3127,116.0317
14:53:28.396,38.7501,109.0942
14:53:28.407,36.0001,102.1254
14:53:28.416,32.9689,95.3129
14:53:28.427,30.2814,89.3753
14:53:28.437,27.6564,81.2503
14:53:28.446,24.6876,75.969
14:53:28.457,22.6563,68.969
14:53:28.469,20.5001,62.7815
14:53:28.477,18.8751,56.9377
14:53:28.487,17.0313,51.1877
14:53:28.497,14.9063,46.0627
14:53:28.507,12.4375,39.5002
14:53:28.517,10.1563,33.2501
14:53:28.526,7.375,25.9688
14:53:28.537,4.5938,19.1876
14:53:28.546,1.6563,12.9063
14:53:28.556,-0.8438,6.6563
14:53:28.598,-2.8125,0.7813
14:53:28.601,-5.0625,-5.0625
14:53:28.603,-7.9688,-10.3125
14:53:28.608,-9.4688,-16.3438
14:53:28.609,-11.3438,-22.8126
14:53:28.642,-13.6251,-28.0939
14:53:28.645,-15.1876,-33.3439
14:53:28.647,-18.0313,-38.7814
14:53:28.649,-20.1876,-44.1252
14:53:28.681,-22.4063,-50.5314
14:53:28.686,-24.9063,-55.8752
14:53:28.686,-27.1251,-61.469
14:53:28.688,-29.8439,-66.7815
14:53:28.723,-32.6876,-71.4065
14:53:28.724,-34.5314,-76.6878
14:53:28.727,-37.4689,-81.8753
14:53:28.732,-40.5314,-86.0316
14:53:28.752,-42.6564,-92.0941
14:53:28.755,-45.1564,-95.5316
14:53:28.758,-48.0627,-101.6566
14:53:28.767,-50.8752,-105.0004
14:53:28.778,-52.8439,-111.1879
14:53:28.786,-56.0002,-115.3754
14:53:28.797,-57.9065,-120.4067
14:53:28.806,-61.1565,-123.6567
14:53:28.816,-63.5627,-129.0005
14:53:28.826,-64.5627,-132.2505
14:53:28.836,-67.6565,-136.4068
14:53:28.846,-68.719,-139.688
14:53:28.870,-71.5003,-143.7193
14:53:28.870,-72.5628,-146.0318
14:53:28.886,-75.219,-149.1256
14:53:28.892,-75.9065,-151.6256
14:53:28.897,-77.344,-154.1256
14:53:28.906,-77.594,-156.5631
14:53:28.916,-79.2503,-158.2194
14:53:28.926,-79.5628,-159.9381
14:53:28.937,-81.6253,-161.7194
14:53:28.947,-81.7816,-163.5631
14:53:28.956,-82.9691,-165.6256
14:53:28.967,-84.0316,-166.9694
14:53:28.976,-85.2816,-168.5319
14:53:28.986,-85.2816,-169.7506
14:53:28.996,-86.0003,-170.5944
14:53:29.008,-85.5003,-170.7507
14:53:29.017,-86.4691,-170.7819
14:53:29.028,-84.9691,-170.8757
14:53:29.038,-85.1566,-171.2819
14:53:29.046,-85.1566,-171.0319
14:53:29.056,-85.1566,-172.5319
14:53:29.067,-85.9378,-171.5944
14:53:29.077,-85.3128,-172.0319
14:53:29.087,-84.2816,-171.4694
14:53:29.097,-83.7503,-170.9382
14:53:29.107,-83.3753,-170.6882
14:53:29.116,-83.4691,-170.7194
14:53:29.127,-82.2816,-169.8131
14:53:29.137,-81.9378,-168.9381
14:53:29.147,-78.6253,-167.3444
14:53:29.158,-77.3753,-163.8444
14:53:29.167,-75.1253,-159.5319
14:53:29.176,-71.1878,-151.0006
14:53:29.186,-63.4377,-137.313
14:53:29.196,-54.6877,-118.5942
14:53:29.206,-42.7502,-97.2816
14:53:29.221,-31.7501,-74.6253
14:53:29.228,-20.2188,-52.2502
14:53:29.236,-10.375,-30.0626
14:53:29.246,-0.2188,-10.0313
14:53:29.256,7.7188,8.8438
14:53:29.267,16.4376,27.7189
14:53:29.276,24.3126,44.6252
14:53:29.286,32.2501,60.6252
14:53:29.297,38.4376,77.3128
14:53:29.308,46.4377,93.4379
14:53:29.316,52.6565,108.4379
14:53:29.326,60.1877,123.6255
14:53:29.355,66.1253,139.0005
14:53:29.358,73.3753,153.7193
14:53:29.360,78.8753,168.6256
14:53:29.368,85.9691,182.532
14:53:29.393,90.5004,195.2507
14:53:29.395,96.3441,207.282
14:53:29.398,100.0004,218.4696
14:53:29.429,104.6254,227.4384
14:53:29.431,106.3129,234.8134
14:53:29.433,107.8129,240.2822
14:53:29.437,108.1254,242.3134
14:53:29.465,106.8754,241.9072
14:53:29.468,105.1254,239.3759
14:53:29.470,102.0004,235.5634
14:53:29.500,99.1566,230.8134
14:53:29.505,96.5629,225.8759
14:53:29.506,93.5004,222.0009
14:53:29.512,91.7191,218.2821
14:53:29.521,90.1566,215.0008
14:53:29.533,88.3753,212.6883
14:53:29.546,87.2503,208.9695
14:53:29.562,85.4691,206.8445
14:53:29.564,83.7191,203.5008
14:53:29.571,81.0003,199.532
14:53:29.581,79.7503,196.4382
14:53:29.597,77.9378,192.3757
14:53:29.601,75.5003,188.2507
14:53:29.613,73.219,183.032
14:53:29.638,70.5315,179.0944
14:53:29.640,68.219,173.3757
14:53:29.644,64.6565,167.0006
14:53:29.653,62.1877,162.0944
14:53:29.662,59.9377,156.0006
14:53:29.671,56.5002,150.5943
14:53:29.681,53.8752,144.7818
14:53:29.691,50.8439,138.7193
14:53:29.701,48.7189,132.563
14:53:29.711,46.3127,127.1255
14:53:29.724,42.9377,121.5942
14:53:29.732,40.5314,115.7192
14:53:29.741,38.7189,109.8442
14:53:29.752,35.6251,105.0316
14:53:29.761,33.7189,99.6566
14:53:29.772,31.0939,94.5316
14:53:29.783,29.0939,89.2816
14:53:29.791,26.8126,83.7503
14:53:29.802,24.1563,79.1253
14:53:29.812,22.9376,74.5315
14:53:29.821,19.9688,69.3128
14:53:29.832,19.2188,64.3752
14:53:29.843,16.4376,59.8127
14:53:29.851,15.2813,55.2502
14:53:29.862,12.8438,50.9377
14:53:29.872,11.125,46.4377
14:53:29.881,9.0625,42.0002
14:53:29.891,7.1563,37.0314
14:53:29.902,5.875,32.0314
14:53:29.913,3.5938,28.1564
14:53:29.921,2.4688,23.5313
14:53:29.932,-0.4688,19.7188
14:53:29.941,-1.5625,14.8751
14:53:29.952,-4,10.1563
14:53:29.962,-5.1563,5.3438
14:53:29.972,-7.2813,2.25
14:53:29.981,-9,-2.4063
14:53:29.991,-10.6563,-6.0938
14:53:30.001,-12.375,-10.7188
14:53:30.012,-14.4376,-14.5313
14:53:30.034,-15.3751,-18.5001
14:53:30.036,-17.2813,-22.4376
14:53:30.046,-18.6563,-25.5626
14:53:30.075,-19.9376,-29.5314
14:53:30.077,-20.9376,-32.1876
14:53:30.079,-22.4063,-35.6251
14:53:30.082,-23.6876,-37.8751
14:53:30.112,-25.1251,-42.0002
14:53:30.114,-26.1251,-44.9377
14:53:30.116,-27.5626,-47.8439
14:53:30.122,-28.9064,-50.7502
14:53:30.153,-30.0314,-54.1252
14:53:30.187,-30.5314,-56.1252
14:53:30.189,-32.1251,-59.5002
14:53:30.192,-32.8126,-62.1252
14:53:30.194,-34.2189,-64.2815
14:53:30.199,-35.0939,-67.6253
14:53:30.200,-36.8751,-69.469
14:53:30.204,-37.7814,-73.344
14:53:30.212,-38.3751,-75.969
14:53:30.221,-41.0002,-78.7191
14:53:30.231,-40.8127,-80.9691
14:53:30.241,-42.4377,-83.1878
14:53:30.251,-43.0002,-85.5628
14:53:30.264,-43.6252,-87.4691
14:53:30.271,-44.5314,-89.6566
14:53:30.281,-44.3752,-91.0941
14:53:30.291,-46.2502,-92.1254
14:53:30.301,-46.4689,-95.1566
14:53:30.312,-47.8439,-97.1566
14:53:30.324,-48.0002,-98.0941
14:53:30.335,-48.8439,-100.4379
14:53:30.348,-49.4064,-101.8129
14:53:30.351,-49.7814,-103.2191
14:53:30.361,-50.7189,-105.0316
14:53:30.372,-50.2189,-105.8442
14:53:30.383,-51.4689,-106.7504
14:53:30.391,-51.9689,-108.0317
14:53:30.401,-52.8127,-110.0942
14:53:30.411,-53.1252,-111.5317
14:53:30.421,-54.1252,-112.7504
14:53:30.432,-54.4065,-114.4692
14:53:30.444,-54.594,-114.8442
14:53:30.452,-54.7815,-115.7504
14:53:30.461,-52.5314,-113.5004
14:53:30.471,-49.5002,-106.5942
14:53:30.482,-42.8439,-96.6566
14:53:30.492,-34.3439,-81.0003
14:53:30.501,-24.9688,-63.2815
14:53:30.514,-13.5001,-42.6877
14:53:30.521,-4.125,-22.0626
14:53:30.531,5.4688,-2.75
14:53:30.542,14.4688,16.3751
14:53:30.551,22.2188,33.4376
14:53:30.562,30.4064,50.5314
14:53:30.571,36.8751,66.0315
14:53:30.581,44.2814,80.6566
14:53:30.593,50.6564,95.7191
14:53:30.601,56.844,109.5004
14:53:30.611,63.2502,123.313
14:53:30.621,68.3128,136.6568
14:53:30.632,74.469,149.8756
14:53:30.642,79.9691,163.0319
14:53:30.653,85.7503,175.1257
14:53:30.661,95.8129,191.8757
14:53:30.672,103.2504,206.3445
14:53:30.681,112.8442,220.1258
14:53:30.691,118.688,232.2509
14:53:30.701,122.8442,240.9072
14:53:30.712,125.5942,248.2822
14:53:30.726,128.2505,253.4072
14:53:30.731,129.2192,258.1885
14:53:30.747,129.6255,259.0947
14:53:30.753,128.6567,258.3135
14:53:30.785,126.8442,255.4072
14:53:30.789,125.2817,250.4072
14:53:30.792,123.9067,246.5947
14:53:30.795,120.9067,239.6884
14:53:30.802,118.188,234.4384
14:53:30.841,115.0629,228.3759
14:53:30.843,113.0942,224.5009
14:53:30.878,110.6567,219.2508
14:53:30.878,110.2817,216.2508
14:53:30.881,108.9067,212.6258
14:53:30.888,108.0942,209.3758
14:53:30.888,106.1254,204.9695
14:53:30.888,104.5004,201.0633
14:53:30.892,102.6254,195.4695
14:53:30.917,100.2504,189.8132
14:53:30.919,98.5004,184.8757
14:53:30.921,95.8754,178.4382
14:53:30.932,93.8129,172.9694
14:53:30.941,90.9066,167.2819
14:53:30.953,87.2816,161.5006
14:53:30.961,85.8441,153.7818
14:53:30.973,82.1878,147.438
14:53:30.981,79.6566,141.2505
14:53:30.991,77.594,134.2505
14:53:31.001,73.8753,128.188
14:53:31.011,71.5628,121.5942
14:53:31.022,68.469,114.2817
14:53:31.032,65.3753,108.0317
14:53:31.041,61.2815,99.5004
14:53:31.051,58.219,92.5004
14:53:31.061,55.469,86.6253
14:53:31.073,52.5627,80.7191
14:53:31.084,49.8439,74.4065
14:53:31.092,47.0314,68.2503
14:53:31.107,44.4689,62.0315
14:53:31.112,41.1564,56.4377
14:53:31.122,38.9689,50.0002
14:53:31.132,37.1876,44.6252
14:53:31.144,35.0001,40.2814
14:53:31.151,32.6876,34.2814
14:53:31.163,30.9376,29.5626
14:53:31.172,29.3126,24.0626
14:53:31.183,28.0626,19.4376
14:53:31.193,26.0001,14.1251
14:53:31.201,23.6251,9.4375
14:53:31.211,20.5313,3.125
14:53:31.221,19.0626,-1.8125
14:53:31.232,18.1876,-5.8438
14:53:31.245,17.2813,-9.4688
14:53:31.253,17.4063,-12.8438
14:53:31.262,16.8751,-16.5938
14:53:31.271,15.6876,-21.4063
14:53:31.283,14.5313,-24.9688
14:53:31.292,13.2188,-30.0314
14:53:31.301,11.9063,-33.8751
14:53:31.311,10.9375,-38.2501
14:53:31.324,8.9063,-42.9377
14:53:31.332,7.1563,-47.2189
14:53:31.343,4.2813,-52.5314
14:53:31.351,2.9375,-56.8127
14:53:31.363,0.4063,-61.594
14:53:31.372,-1.5938,-66.1565
14:53:31.383,-3.2813,-69.469
14:53:31.391,-3.8125,-73.1253
14:53:31.403,-4.625,-75.9065
14:53:31.415,-5.8125,-80.2816
14:53:31.422,-6.9375,-82.7816
14:53:31.432,-8.3438,-87.1253
14:53:31.442,-9.125,-89.3753
14:53:31.511,-11.4375,-93.5941
14:53:31.511,-12.9375,-97.1879
14:53:31.515,-14.0938,-100.4691
14:53:31.517,-16.0001,-103.3129
14:53:31.552,-16.6251,-106.1254
14:53:31.552,-18.5626,-109.5629
14:53:31.552,-20.0938,-113.0942
14:53:31.552,-22.6876,-116.4692
14:53:31.553,-23.3438,-119.5005
14:53:31.580,-25.5313,-122.438
14:53:31.582,-27.1564,-126.2505
14:53:31.584,-29.1564,-128.5317
14:53:31.586,-31.5939,-132.3755
14:53:31.589,-33.3751,-134.9068
14:53:31.602,-34.2501,-137.9693
14:53:31.608,-36.0314,-140.6255
14:53:31.635,-37.1251,-143.063
14:53:31.638,-39.6252,-146.313
14:53:31.640,-41.5314,-148.0943
14:53:31.648,-42.8752,-151.9068
14:53:31.658,-45.5939,-153.7506
14:53:31.666,-46.2814,-155.9381
14:53:31.678,-48.1564,-158.5631
14:53:31.688,-50.2189,-162.4381
14:53:31.698,-50.9689,-162.6881
14:53:31.708,-50.9377,-165.0944
14:53:31.716,-52.5314,-165.0319
14:53:31.727,-53.0002,-167.5944
14:53:31.738,-54.0315,-168.2819
14:53:31.748,-54.844,-170.3757
14:53:31.758,-55.1565,-171.1882
14:53:31.767,-56.5627,-172.7819
14:53:31.778,-57.719,-173.4382
14:53:31.786,-58.9065,-176.5007
14:53:31.799,-60.2502,-176.3132
14:53:31.808,-60.0315,-178.0007
14:53:31.816,-60.6877,-177.5944
14:53:31.828,-58.969,-176.2507
14:53:31.839,-56.6252,-170.3131
14:53:31.847,-50.0314,-160.8131
14:53:31.857,-41.7189,-143.6568
14:53:31.868,-31.4064,-124.5317
14:53:31.876,-20.9688,-101.2816
14:53:31.887,-9.6875,-80.0941
14:53:31.898,0.625,-57.0627
14:53:31.906,10.4063,-37.3126
14:53:31.918,18.4688,-16.5938
14:53:31.930,27.1251,0.5313
14:53:31.936,34.0626,18.0001
14:53:31.948,41.1564,33.0939
14:53:31.958,47.2189,49.3752
14:53:31.968,53.4065,63.1565
14:53:31.978,60.0627,78.0315
14:53:31.988,64.7815,92.2504
14:53:31.997,70.844,105.9692
14:53:32.009,76.0003,119.7817
14:53:32.018,80.6878,131.8443
14:53:32.028,86.0316,145.9693
14:53:32.037,91.7816,158.5944
14:53:32.048,96.6254,171.6882
14:53:32.058,100.0629,181.5007
14:53:32.066,103.5004,192.5632
14:53:32.078,106.8442,199.7195
14:53:32.087,108.1567,207.2508
14:53:32.097,109.5004,212.2508
14:53:32.108,107.9379,214.6571
14:53:32.116,106.5004,213.4071
14:53:32.137,103.7191,211.2508
14:53:32.139,100.5629,206.2508
14:53:32.154,97.3754,201.5633
14:53:32.161,93.9066,195.282
14:53:32.168,91.1879,190.157
14:53:32.195,88.5316,185.2507
14:53:32.198,85.0941,180.8757
14:53:32.200,83.6566,177.4069
14:53:32.206,81.7191,173.5632
14:53:32.218,79.1253,169.5319
14:53:32.242,76.8128,165.9694
14:53:32.244,74.7815,161.6569
14:53:32.271,72.4065,157.6256
14:53:32.273,69.6565,152.9068
14:53:32.276,67.1253,148.4693
14:53:32.278,64.5002,143.8755
14:53:32.309,61.2502,138.2505
14:53:32.312,58.1252,132.3443
14:53:32.316,55.3127,126.8755
14:53:32.318,52.6565,121.0317
14:53:32.361,49.8752,115.8129
14:53:32.362,46.8127,109.8754
14:53:32.365,43.6564,103.4691
14:53:32.368,40.5314,97.7816
14:53:32.371,36.8751,90.8754
14:53:32.398,33.7814,84.8441
14:53:32.400,31.1564,78.8128
14:53:32.404,28.5626,73.219
14:53:32.408,24.8751,67.6878
14:53:32.421,22.5001,61.7815
14:53:32.426,19.7501,56.0627
14:53:32.436,17.2501,50.1252
14:53:32.448,16.1876,45.1252
14:53:32.457,14.0626,40.5314
14:53:32.468,11.3438,35.4376
14:53:32.478,8.8125,30.2189
14:53:32.487,5.9063,24.7501
14:53:32.499,3.9688,19.8126
14:53:32.507,2.5938,15.0001
14:53:32.517,0.2188,10.2813
14:53:32.528,-1.625,5.5625
14:53:32.536,-4.2188,1.5
14:53:32.548,-6.4063,-3.3438
14:53:32.556,-8.375,-8.3438
14:53:32.566,-10.375,-12.625
14:53:32.578,-12.875,-18.0626
14:53:32.587,-14.9063,-22.0938
14:53:32.599,-16.8126,-27.0314
14:53:32.608,-19.2501,-31.1564
14:53:32.618,-21.2188,-35.3439
14:53:32.628,-22.2813,-38.9376
14:53:32.638,-23.9376,-43.3439
14:53:32.648,-25.5001,-46.2814
14:53:32.658,-26.8439,-51.6252
14:53:32.668,-28.1876,-55.2502
14:53:32.678,-30.6251,-59.344
14:53:32.690,-33.1251,-63.0627
14:53:32.697,-34.9376,-67.094
14:53:32.708,-36.6564,-70.6878
14:53:32.718,-37.3439,-73.6565
14:53:32.730,-39.3127,-76.9065
14:53:32.737,-41.0627,-81.2503
14:53:32.757,-42.9689,-84.2816
14:53:32.764,-44.8439,-88.3128
14:53:32.779,-45.5314,-90.6253
14:53:32.781,-46.1564,-93.9066
14:53:32.788,-46.8752,-96.0316
14:53:32.801,-49.2502,-98.7191
14:53:32.808,-49.9064,-102.7191
14:53:32.817,-51.8439,-103.8754
14:53:32.829,-52.0939,-107.3129
14:53:32.838,-52.7814,-109.0004
14:53:32.848,-54.094,-112.1254
14:53:32.858,-54.219,-115.2504
14:53:32.868,-55.9065,-117.0317
14:53:32.878,-56.0627,-119.813
14:53:32.888,-58.3752,-122.5005
14:53:32.898,-58.094,-124.5317
14:53:32.908,-59.219,-126.4067
14:53:32.919,-60.094,-128.9067
14:53:32.955,-61.094,-131.4068
14:53:32.958,-61.7815,-132.7818
14:53:32.961,-63.0627,-135.9068
14:53:32.963,-64.3127,-138.2818
14:53:32.970,-65.0315,-140.7193
14:53:32.999,-65.344,-142.4693
14:53:33.002,-66.8128,-144.5005
14:53:33.004,-66.8128,-146.313
14:53:33.008,-68.469,-148.2818
14:53:33.047,-69.0315,-149.6881
14:53:33.048,-68.9378,-150.5631
14:53:33.052,-69.469,-152.5006
14:53:33.054,-69.6565,-153.1568
14:53:33.058,-70.7815,-154.5006
14:53:33.086,-71.4378,-156.2818
14:53:33.087,-72.1878,-157.1568
14:53:33.090,-71.469,-158.9069
14:53:33.107,-72.5315,-158.8444
14:53:33.111,-72.4065,-160.5006
14:53:33.118,-73.0003,-161.2506
14:53:33.128,-73.344,-162.3131
14:53:33.138,-74.219,-164.3756
14:53:33.148,-74.844,-164.4069
14:53:33.158,-75.219,-167.3444
14:53:33.169,-74.8753,-167.3444
14:53:33.181,-75.8128,-167.6881
14:53:33.188,-75.5003,-167.9381
14:53:33.199,-74.5003,-166.5944
14:53:33.209,-71.844,-161.1256
14:53:33.220,-65.1878,-150.7506
14:53:33.228,-55.1877,-132.5005
14:53:33.238,-43.6877,-112.0629
14:53:33.249,-30.4689,-88.8128
14:53:33.258,-19.8438,-64.7502
14:53:33.268,-8.9063,-44.0939
14:53:33.278,0.6875,-22.7501
14:53:33.290,9.6875,-5.25
14:53:33.298,16.4063,12.5938
14:53:33.308,23.5001,26.8439
14:53:33.318,29.1876,42.6877
14:53:33.328,35.8751,56.0002
14:53:33.338,42.5314,71.2815
14:53:33.348,49.6564,84.7191
14:53:33.359,55.4377,98.0629
14:53:33.368,61.094,110.6879
14:53:33.378,67.1565,123.2817
14:53:33.388,72.1878,135.688
14:53:33.398,78.094,147.8756
14:53:33.408,82.6878,158.9694
14:53:33.418,87.0316,170.0631
14:53:33.433,90.5629,179.7194
14:53:33.443,94.3754,188.0632
14:53:33.448,95.8129,195.4695
14:53:33.476,97.8441,200.782
14:53:33.491,99.3129,204.0945
14:53:33.493,96.9691,204.1883
14:53:33.501,95.0004,200.907
14:53:33.503,91.8129,197.2508
14:53:33.513,88.6878,192.0632
14:53:33.523,85.7503,186.8445
14:53:33.538,82.5316,182.5945
14:53:33.551,80.0003,176.8132
14:53:33.559,78.094,173.2194
14:53:33.568,76.2815,168.7506
14:53:33.578,75.0003,166.3756
14:53:33.588,73.094,162.6256
14:53:33.599,71.6878,159.2194
14:53:33.608,68.8128,156.5943
14:53:33.618,67.8128,152.1256
14:53:33.628,65.3752,148.4381
14:53:33.638,63.719,144.2505
14:53:33.648,60.844,139.0005
14:53:33.658,57.0627,132.5318
14:53:33.668,54.8127,127.813
14:53:33.678,51.3439,122.0942
14:53:33.688,49.4377,116.6879
14:53:33.708,46.0939,109.9692
14:53:33.712,43.6564,104.2816
14:53:33.717,41.1564,98.2504
14:53:33.745,37.9689,93.2191
14:53:33.748,35.5001,87.0316
14:53:33.750,32.0626,81.0628
14:53:33.758,29.5314,75.3128
14:53:33.783,27.3439,69.219
14:53:33.785,24.7813,63.9065
14:53:33.788,22.8126,58.844
14:53:33.815,20.2501,54.1565
14:53:33.817,18.0313,48.7189
14:53:33.820,16.2813,44.5939
14:53:33.852,13.7813,39.4064
14:53:33.853,11.875,34.8126
14:53:33.856,9.9375,29.5001
14:53:33.861,7.4375,25.1876
14:53:33.868,5.5,20.1563
14:53:33.878,3.8125,15.0938
14:53:33.890,1.75,10.8438
14:53:33.898,0.1875,5.75
14:53:33.908,-1.25,1.9688
14:53:33.918,-3,-2.0938
14:53:33.932,-5.0625,-6.6563
14:53:33.938,-6.8125,-11.6875
14:53:33.948,-8.875,-15.8126
14:53:33.958,-11.6875,-20.2188
14:53:33.968,-13.9063,-24.8126
14:53:33.978,-15.6876,-29.1564
14:53:33.988,-17.3751,-33.8751
14:53:33.998,-18.9376,-37.2814
14:53:34.008,-21.1251,-42.1252
14:53:34.018,-22.1876,-45.6564
14:53:34.029,-23.7813,-49.2502
14:53:34.038,-25.0313,-52.4689
14:53:34.058,-27.0626,-56.7815
14:53:34.064,-28.7814,-60.1565
14:53:34.072,-30.3126,-64.094
14:53:34.078,-31.8126,-67.5003
14:53:34.095,-33.2189,-71.1878
14:53:34.102,-35.4376,-74.3128
14:53:34.110,-36.6564,-77.7503
14:53:34.118,-38.3439,-80.8753
14:53:34.128,-39.1251,-83.7816
14:53:34.138,-40.4377,-86.7816
14:53:34.148,-41.0314,-89.4691
14:53:34.158,-42.5627,-92.6566
14:53:34.168,-43.4064,-95.2816
14:53:34.178,-45.0314,-97.6566
14:53:34.190,-45.8439,-101.1879
14:53:34.198,-47.5002,-103.3754
14:53:34.208,-48.2814,-106.0942
14:53:34.219,-49.4064,-108.4379
14:53:34.228,-49.2502,-110.2192
14:53:34.238,-50.9689,-112.7504
14:53:34.248,-51.5939,-115.8129
14:53:34.258,-53.0627,-117.0942
14:53:34.268,-53.4377,-119.438
14:53:34.278,-54.3127,-120.9067
14:53:34.288,-54.6565,-123.063
14:53:34.298,-55.7815,-124.8442
14:53:34.306,-55.9065,-127.0317
14:53:34.318,-57.344,-129.188
14:53:34.328,-57.9377,-130.9693
14:53:34.339,-59.2502,-133.188
14:53:34.349,-59.3752,-135.438
14:53:34.358,-60.969,-137.0005
14:53:34.368,-60.7815,-138.7193
14:53:34.380,-61.9065,-139.7505
14:53:34.388,-61.8127,-141.5005
14:53:34.398,-62.8127,-142.6255
14:53:34.408,-62.844,-144.7818
14:53:34.418,-64.094,-145.6568
14:53:34.428,-63.9065,-147.0943
14:53:34.458,-65.1878,-148.0943
14:53:34.460,-65.0315,-149.3756
14:53:34.463,-66.0628,-150.5943
14:53:34.468,-65.469,-151.2818
14:53:34.501,-66.219,-151.4693
14:53:34.503,-65.594,-152.0631
14:53:34.505,-66.3128,-153.0943
14:53:34.508,-66.7815,-154.0006
14:53:34.545,-66.8753,-154.0943
14:53:34.548,-67.1878,-155.5943
14:53:34.551,-67.3753,-156.0006
14:53:34.555,-67.6878,-156.8756
14:53:34.559,-68.344,-157.6881
14:53:34.588,-68.0315,-158.6881
14:53:34.590,-68.844,-159.0944
14:53:34.593,-68.1878,-159.7194
14:53:34.599,-68.594,-159.0319
14:53:34.621,-66.1565,-155.7818
14:53:34.627,-61.6565,-147.4381
14:53:34.628,-52.0627,-132.438
14:53:34.640,-41.8752,-112.7817
14:53:34.649,-30.0939,-91.2191
14:53:34.658,-19.3751,-67.5315
14:53:34.669,-7.5,-45.0627
14:53:34.682,2.4688,-23.5001
14:53:34.688,12.3438,-4.0625
14:53:34.698,20.3438,13.4063
14:53:34.708,26.7189,29.6876
14:53:34.718,33.8751,43.6877
14:53:34.728,40.7189,58.0002
14:53:34.759,46.2189,71.219
14:53:34.762,52.7502,84.5941
14:53:34.779,57.1565,96.8129
14:53:34.792,63.219,109.1879
14:53:34.794,67.6565,121.2817
14:53:34.809,73.7815,132.7505
14:53:34.812,77.969,144.813
14:53:34.825,84.4691,156.3131
14:53:34.828,88.5003,167.5944
14:53:34.831,93.6254,177.1569
14:53:34.838,96.5316,185.4695
14:53:34.850,99.5941,192.3132
14:53:34.858,100.5004,197.0007
14:53:34.872,100.5004,199.3133
14:53:34.879,99.3754,198.6258
14:53:34.890,97.4691,195.4695
14:53:34.899,95.4691,192.5945
14:53:34.908,92.3441,188.0007
14:53:34.918,89.6253,183.6882
14:53:34.928,87.4378,179.9069
14:53:34.938,85.3753,175.7507
14:53:34.948,83.5003,171.7819
14:53:34.958,81.2816,169.0631
14:53:34.968,80.4066,166.2194
14:53:34.978,78.6566,163.4069
14:53:34.988,77.0003,159.6881
14:53:34.998,75.1253,156.1881
14:53:35.008,73.4065,152.9068
14:53:35.018,71.1253,149.1881
14:53:35.028,68.3128,144.7818
14:53:35.038,66.719,140.5005
14:53:35.048,64.3127,134.8443
14:53:35.061,61.4065,130.0317
14:53:35.068,58.8127,124.5317
14:53:35.079,56.344,119.1255
14:53:35.088,54.3752,114.4379
14:53:35.098,52.4064,109.6254
14:53:35.108,49.6564,104.1254
14:53:35.141,47.4064,98.9066
14:53:35.143,45.4689,93.5004
14:53:35.146,42.2502,88.1878
14:53:35.148,39.8752,83.3753
14:53:35.183,37.1251,77.219
14:53:35.186,34.3439,72.6878
14:53:35.188,32.0939,67.0315
14:53:35.190,29.9064,61.8752
14:53:35.198,27.7189,56.9065
14:53:35.225,24.9063,51.9377
14:53:35.228,23.4688,47.6564
14:53:35.230,21.4688,42.3127
14:53:35.238,20.2188,37.5626
14:53:35.267,18.3751,33.8439
14:53:35.269,15.4688,29.1564
14:53:35.271,14.1251,25.1876
14:53:35.278,12.25,20.6563
14:53:35.303,9.625,15.1876
14:53:35.305,7.6875,11.125
14:53:35.308,5.7188,5.9063
14:53:35.318,3.8438,1.75
14:53:35.328,3,-1.5938
14:53:35.339,0.4375,-5.875
14:53:35.348,-1.2188,-9.875
14:53:35.358,-2.7813,-14.2813
14:53:35.369,-5.0625,-18.3751
14:53:35.386,-6.5938,-22.7188
14:53:35.391,-8.25,-26.7501
14:53:35.401,-9.7188,-30.0626
14:53:35.408,-11.1875,-33.8751
14:53:35.423,-12.7813,-38.2814
14:53:35.436,-14.8126,-41.7189
14:53:35.439,-16.4688,-46.3127
14:53:35.448,-17.8438,-49.5627
14:53:35.458,-20.1563,-53.2502
14:53:35.468,-21.4063,-56.344
14:53:35.478,-22.8438,-59.969
14:53:35.488,-24.5001,-63.6877
14:53:35.498,-26.9376,-66.969
14:53:35.508,-27.8126,-69.719
14:53:35.518,-29.2189,-72.6565
14:53:35.528,-30.3126,-76.0315
14:53:35.539,-32.2814,-78.7816
14:53:35.548,-33.1564,-81.2191
14:53:35.558,-35.4064,-84.4691
14:53:35.570,-36.3439,-87.3128
14:53:35.578,-37.9376,-90.0003
14:53:35.588,-38.5314,-92.5004
14:53:35.599,-41.0627,-95.0941
14:53:35.608,-41.8127,-98.0004
14:53:35.618,-44.0002,-100.5004
14:53:35.631,-44.7189,-103.0004
14:53:35.638,-45.8439,-105.5629
14:53:35.648,-46.4064,-107.6879
14:53:35.660,-47.3439,-109.5004
14:53:35.668,-48.0939,-111.3129
14:53:35.678,-49.7814,-113.6254
14:53:35.689,-50.1877,-116.6567
14:53:35.698,-52.0314,-118.6255
14:53:35.708,-52.8127,-120.9067
14:53:35.718,-54.6252,-123.2192
14:53:35.728,-54.9065,-125.3442
14:53:35.738,-56.5002,-127.0317
14:53:35.748,-56.4377,-128.4692
14:53:35.758,-58.344,-130.4693
14:53:35.768,-58.5315,-132.4068
14:53:35.778,-59.7502,-133.6255
14:53:35.788,-60.0002,-135.2505
14:53:35.798,-60.5627,-136.063
14:53:35.814,-60.7502,-137.4693
14:53:35.819,-61.844,-138.4693
14:53:35.828,-61.594,-139.7505
14:53:35.838,-62.8127,-141.0318
14:53:35.848,-62.5315,-141.8443
14:53:35.869,-63.219,-142.688
14:53:35.872,-63.969,-144.438
14:53:35.896,-64.0627,-144.5943
14:53:35.899,-64.7502,-146.5318
14:53:35.901,-65.1565,-146.6881
14:53:35.908,-65.719,-149.1568
14:53:35.946,-66.9065,-149.6568
14:53:35.947,-66.6253,-150.8443
14:53:35.949,-66.2815,-150.9068
14:53:35.954,-64.6877,-147.4693
14:53:35.959,-60.3127,-141.2193
14:53:35.995,-52.5939,-128.9692
14:53:35.998,-42.9064,-110.7817
14:53:36.000,-30.7189,-90.1253
14:53:36.004,-19.8126,-67.2503
14:53:36.009,-8.3438,-45.5939
14:53:36.037,2.8125,-23.7501
14:53:36.040,12.25,-4.5938
14:53:36.042,20.1876,13.2813
14:53:36.048,27.5939,28.5314
14:53:36.058,33.7814,43.2502
14:53:36.068,39.8439,57.2502
14:53:36.078,46.0314,69.5315
14:53:36.094,53.0002,82.3441
14:53:36.103,57.9065,94.6879
14:53:36.108,64.1877,106.8754
14:53:36.125,68.7815,118.9692
14:53:36.128,74.219,129.7192
14:53:36.143,79.1253,140.688
14:53:36.149,84.6566,151.3756
14:53:36.158,88.6253,161.3756
14:53:36.168,92.6879,170.4069
14:53:36.178,96.1879,179.7194
14:53:36.190,98.8441,185.4695
14:53:36.198,101.0629,192.0007
14:53:36.208,101.4691,193.8132
14:53:36.218,100.8754,194.8445
14:53:36.228,99.4066,192.3132
14:53:36.238,96.4691,188.6882
14:53:36.248,94.3129,185.5632
14:53:36.260,91.0941,180.2819
14:53:36.268,88.9066,175.1569
14:53:36.278,87.1253,171.5007
14:53:36.288,84.9066,169.0319
14:53:36.298,83.1878,164.5944
14:53:36.308,81.6878,161.3756
14:53:36.318,79.2191,158.8131
14:53:36.328,77.969,154.8756
14:53:36.338,76.469,152.1568
14:53:36.348,75.1565,148.3756
14:53:36.358,71.8753,144.7193
14:53:36.368,69.8128,139.6255
14:53:36.378,67.344,135.3755
14:53:36.388,64.4065,130.5317
14:53:36.398,62.2502,125.2817
14:53:36.408,59.594,119.8755
14:53:36.418,57.0002,115.0942
14:53:36.428,54.2502,109.5004
14:53:36.438,51.9064,104.1254
14:53:36.448,49.3127,98.6879
14:53:36.458,46.2502,93.9379
14:53:36.468,43.2502,87.1253
14:53:36.478,41.5002,82.7191
14:53:36.488,38.6564,76.8753
14:53:36.498,36.3126,71.9378
14:53:36.508,34.5939,67.0628
14:53:36.518,31.0939,62.469
14:53:36.528,29.7814,57.344
14:53:36.538,26.5314,52.5314
14:53:36.548,24.9376,48.0627
14:53:36.564,22.5626,42.6877
14:53:36.569,19.5001,37.7501
14:53:36.578,17.5626,32.9689
14:53:36.589,15.2813,28.2501
14:53:36.599,14.0938,23.7813
14:53:36.609,12.6875,20.4688
14:53:36.635,11.6563,16.7813
14:53:36.638,8.8438,11.6563
14:53:36.640,7.5313,7.25
14:53:36.671,5.2188,2.7188
14:53:36.673,3.2188,-1.0938
14:53:36.676,1.25,-5.0625
14:53:36.680,-1.5313,-9.8438
14:53:36.708,-3.75,-14.6251
14:53:36.752,-5.1563,-19.6251
14:53:36.797,-6.3438,-22.6251
14:53:36.800,-8.0313,-26.3126
14:53:36.800,-10.3438,-30.5939
14:53:36.800,-12.0938,-35.1564
14:53:36.801,-14.7501,-39.5314
14:53:36.803,-15.8438,-43.0314
14:53:36.808,-17.8438,-46.2189
14:53:36.810,-19.6563,-50.2814
14:53:36.810,-21.9376,-54.594
14:53:36.818,-22.9376,-58.2815
14:53:36.828,-24.1563,-61.0315
14:53:36.838,-25.8126,-64.5002
14:53:36.848,-28.0939,-68.3128
14:53:36.858,-29.7814,-71.344
14:53:36.868,-31.0626,-73.1878
14:53:36.878,-32.4376,-77.6253
14:53:36.889,-33.5314,-79.9066
14:53:36.898,-35.2189,-83.5003
14:53:36.908,-36.9376,-86.8753
14:53:36.918,-38.7189,-90.2191
14:53:36.928,-43.6877,-99.6566
14:53:36.941,-44.7814,-102.0941
14:53:36.948,-45.7502,-105.3441
14:53:36.958,-47.5314,-106.9692
14:53:36.968,-48.2814,-110.0942
14:53:36.978,-50.9064,-114.3442
14:53:36.988,-51.4064,-116.7504
14:53:36.998,-53.3752,-119.2505
14:53:37.008,-54.1252,-121.688
14:53:37.018,-55.2502,-123.563
14:53:37.028,-56.1565,-126.0942
14:53:37.038,-57.2815,-127.5942
14:53:37.048,-58.594,-129.938
14:53:37.058,-59.8752,-132.2193
14:53:37.068,-60.6565,-133.7193
14:53:37.078,-62.0315,-135.4693
14:53:37.088,-62.7502,-137.8443
14:53:37.098,-64.1565,-139.3755
14:53:37.108,-63.844,-141.4693
14:53:37.118,-64.9377,-142.5318
14:53:37.128,-65.0315,-144.1255
14:53:37.138,-66.2503,-145.063
