timestamp,Red,IR
13:07:05.767,-40.6877,-122.2505
13:07:05.776,-41.0627,-124.3755
13:07:05.800,-42.4377,-126.313
13:07:05.803,-43.7502,-128.7505
13:07:05.806,-42.8752,-127.8755
13:07:05.839,-37.2501,-112.8129
13:07:05.843,-18.8751,-68.5628
13:07:05.845,7.125,-1.375
13:07:05.852,23.5626,51.4377
13:07:05.861,35.3126,82.2503
13:07:05.866,44.3752,110.8754
13:07:05.891,50.5002,130.188
13:07:05.894,52.1877,138.2505
13:07:05.895,51.4377,140.8755
13:07:05.921,50.0627,139.7505
13:07:05.923,48.3752,136.8755
13:07:05.925,46.6252,132.438
13:07:05.967,43.0627,124.438
13:07:05.967,39.8127,115.1254
13:07:05.969,36.8751,107.7504
13:07:05.972,33.7501,98.9379
13:07:05.978,31.2501,91.7504
13:07:05.987,28.6251,86.2503
13:07:05.996,26.8751,79.4378
13:07:06.005,25.0001,75.0628
13:07:06.016,24.5001,71.4378
13:07:06.030,22.6251,66.4378
13:07:06.036,19.8751,60.6252
13:07:06.045,17.3126,52.9377
13:07:06.056,15.6251,47.5002
13:07:06.066,13.7501,41.7502
13:07:06.075,12.5625,37.5626
13:07:06.085,11.3125,33.8751
13:07:06.095,10.0625,31.3126
13:07:06.105,10.6875,30.1876
13:07:06.115,11,29.8126
13:07:06.125,11.125,31.1251
13:07:06.137,12.1875,32.1876
13:07:06.146,11.375,32.6876
13:07:06.155,11.6875,31.3751
13:07:06.165,10.5625,30.3751
13:07:06.175,11.125,27.7501
13:07:06.185,8.875,24.6876
13:07:06.206,7.3125,19.0001
13:07:06.212,4.5,14.6876
13:07:06.226,3.0625,7.6875
13:07:06.229,0.375,1.25
13:07:06.238,-2,-7.0625
13:07:06.246,-5.25,-12.6875
13:07:06.262,-7.5625,-21.5626
13:07:06.267,-10.4375,-27.0001
13:07:06.280,-11.75,-35.4376
13:07:06.289,-14.6876,-40.8127
13:07:06.296,-16.4376,-48.1252
13:07:06.325,-19.1876,-52.7502
13:07:06.328,-20.1251,-58.8752
13:07:06.330,-21.8751,-63.3752
13:07:06.338,-22.8126,-68.3128
13:07:06.346,-25.1251,-73.0003
13:07:06.356,-25.4376,-77.2503
13:07:06.367,-26.7501,-80.0003
13:07:06.377,-27.3126,-83.2503
13:07:06.385,-28.0626,-85.9378
13:07:06.395,-29.7501,-88.1253
13:07:06.406,-30.1251,-90.6879
13:07:06.415,-30.4376,-92.1879
13:07:06.425,-30.6876,-95.1254
13:07:06.435,-31.1876,-96.2504
13:07:06.449,-32.5001,-101.2504
13:07:06.455,-33.1251,-103.0629
13:07:06.491,-34.3751,-106.1879
13:07:06.493,-32.7501,-105.1254
13:07:06.495,-28.7501,-91.4379
13:07:06.502,-13.6876,-56.3752
13:07:06.510,8.25,-0.5625
13:07:06.516,23.3751,43.5627
13:07:06.550,35.4376,75.7503
13:07:06.552,45.3752,105.3129
13:07:06.554,49.7502,124.5005
13:07:06.560,51.6877,131.6255
13:07:06.592,51.4377,135.5005
13:07:06.594,50.5627,133.5005
13:07:06.596,49.5627,130.563
13:07:06.622,45.7502,125.313
13:07:06.623,43.6877,118.2505
13:07:06.625,40.0002,110.9379
13:07:06.633,36.4376,102.5004
13:07:06.635,34.0626,92.7504
13:07:06.647,29.6876,85.0003
13:07:06.655,27.9376,77.1878
13:07:06.666,25.5626,72.6878
13:07:06.675,24.8751,67.4378
13:07:06.686,23.1251,63.2502
13:07:06.695,21.4376,57.4377
13:07:06.705,18.5001,51.8127
13:07:06.715,16.6876,45.3127
13:07:06.725,14.8751,38.1876
13:07:06.735,12.8125,34.0626
13:07:06.746,10.75,28.3751
13:07:06.757,10.5625,24.7501
13:07:06.765,9.25,22.2501
13:07:06.777,9.6875,21.7501
13:07:06.786,10.5625,22.6251
13:07:06.795,10.375,24.4376
13:07:06.805,10.875,24.6876
13:07:06.816,11,25.0001
13:07:06.825,10.9375,24.1251
13:07:06.836,10.125,22.5626
13:07:06.845,8.625,18.7501
13:07:06.857,7.3125,15.3751
13:07:06.867,5.9375,10.25
13:07:06.876,3.125,4.4375
13:07:06.885,0.9375,-1.8125
13:07:06.896,-2.3125,-9.4375
13:07:06.906,-4.5625,-16.3751
13:07:06.916,-6.5,-23.2501
13:07:06.925,-10.0625,-32.4376
13:07:06.935,-13.2501,-38.5626
13:07:06.945,-15.3126,-46.1877
13:07:06.955,-18.5001,-52.8127
13:07:06.965,-19.8751,-58.8127
13:07:06.975,-21.5626,-65.7503
13:07:06.985,-23.6251,-70.5003
13:07:06.996,-26.0001,-74.8753
13:07:07.005,-26.7501,-80.5628
13:07:07.016,-28.4376,-82.1253
13:07:07.025,-28.3751,-86.4378
13:07:07.035,-29.8126,-89.7503
13:07:07.045,-31.6876,-92.1879
13:07:07.056,-31.3751,-94.2504
13:07:07.065,-32.0626,-96.8129
13:07:07.075,-32.0626,-99.4379
13:07:07.085,-33.3126,-101.1254
13:07:07.095,-33.8126,-104.2504
13:07:07.105,-34.0001,-106.2504
13:07:07.116,-36.0001,-110.1879
13:07:07.125,-36.3751,-113.6254
13:07:07.135,-36.0001,-113.5629
13:07:07.145,-35.1251,-106.6879
13:07:07.156,-23.3751,-80.1253
13:07:07.165,-2.0625,-28.9376
13:07:07.176,16.3126,22.4376
13:07:07.185,28.0626,56.2502
13:07:07.195,38.5626,86.5628
13:07:07.205,45.3752,111.8754
13:07:07.220,49.1877,122.063
13:07:07.227,50.1252,125.813
13:07:07.258,48.0002,125.813
13:07:07.260,46.7502,122.6255
13:07:07.263,44.7502,117.938
13:07:07.265,41.5002,112.6879
13:07:07.303,38.1876,103.0004
13:07:07.306,35.5626,94.5629
13:07:07.307,30.2501,85.2503
13:07:07.334,28.1876,76.5003
13:07:07.334,25.4376,70.0003
13:07:07.338,23.5001,64.5002
13:07:07.342,22.3751,59.2502
13:07:07.347,20.0001,55.0627
13:07:07.380,18.6251,48.8752
13:07:07.383,15.8126,43.1877
13:07:07.386,14.4376,35.7501
13:07:07.388,11.6875,31.8751
13:07:07.396,11,26.4376
13:07:07.406,10.125,24.8751
13:07:07.415,10.5,23.4376
13:07:07.425,10.8125,24.2501
13:07:07.435,11.625,25.5001
13:07:07.445,12.1875,27.6876
13:07:07.456,14.0001,31.2501
13:07:07.465,14.8751,33.3126
13:07:07.475,15.1251,34.6251
13:07:07.485,15.2501,34.6251
13:07:07.497,13.7501,32.5001
13:07:07.513,13,28.7501
13:07:07.529,11.25,25.3751
13:07:07.544,9.6875,19.4376
13:07:07.574,7.625,13
13:07:07.590,3.4375,6.625
13:07:07.603,1.5625,-0.875
13:07:07.603,-0.875,-7.0625
13:07:07.604,-2.625,-14.1876
13:07:07.619,-5.3125,-20.9376
13:07:07.621,-8.0625,-25.8126
13:07:07.636,-9.625,-33.1876
13:07:07.636,-11.8125,-37.0626
13:07:07.636,-12.3125,-42.9377
13:07:07.644,-13.8751,-47.0002
13:07:07.650,-16.6251,-50.6252
13:07:07.662,-16.5001,-52.8752
13:07:07.672,-17.5626,-57.1252
13:07:07.680,-19.1251,-61.6252
13:07:07.690,-19.8751,-65.0627
13:07:07.700,-20.8126,-68.2503
13:07:07.712,-21.8126,-70.3753
13:07:07.721,-22.7501,-73.0628
13:07:07.730,-23.1876,-75.8128
13:07:07.740,-24.2501,-79.1253
13:07:07.750,-22.9376,-77.0628
13:07:07.761,-16.8126,-64.3752
13:07:07.770,-4.125,-34.3126
13:07:07.781,10.1875,4.375
13:07:07.791,24.1251,41.6877
13:07:07.800,35.2501,73.9378
13:07:07.810,44.8127,100.8754
13:07:07.821,49.6877,114.6254
13:07:07.830,50.2502,121.3755
13:07:07.842,50.4377,124.1255
13:07:07.850,50.0627,124.313
13:07:07.860,49.2502,122.3755
13:07:07.870,46.8127,117.2504
13:07:07.880,45.1252,112.4379
13:07:07.892,42.0002,105.7504
13:07:07.900,38.5626,98.6879
13:07:07.912,37.0626,92.0629
13:07:07.920,34.4376,86.2503
13:07:07.930,32.3751,80.8128
13:07:07.941,30.7501,77.1253
13:07:07.950,29.4376,72.5628
13:07:07.961,28.0001,68.4378
13:07:07.971,25.8751,62.4377
13:07:07.981,23.6251,56.1877
13:07:07.990,21.4376,49.5627
13:07:08.020,19.7501,45.0002
13:07:08.024,19.2501,42.1252
13:07:08.028,18.5001,40.3127
13:07:08.032,18.3751,38.2501
13:07:08.060,19.5001,40.3752
13:07:08.063,19.8126,41.1252
13:07:08.065,20.3751,43.8127
13:07:08.073,20.9376,44.1877
13:07:08.099,21.5626,46.1877
13:07:08.101,20.7501,44.6252
13:07:08.102,20.1876,42.9377
13:07:08.132,19.3126,40.6252
13:07:08.134,18.3751,36.8751
13:07:08.138,15.3751,31.8126
13:07:08.145,13.6251,25.8751
13:07:08.152,10.9375,19.4376
13:07:08.182,9.1875,13.5626
13:07:08.184,7,6.6875
13:07:08.187,5.3125,1.375
13:07:08.191,2.5,-5.5625
13:07:08.200,0.5625,-10.1875
13:07:08.212,-1.125,-16.3126
13:07:08.221,-2.3125,-21.0626
13:07:08.230,-4.1875,-25.1876
13:07:08.241,-5.5,-29.1876
13:07:08.250,-6.4375,-32.7501
13:07:08.261,-8,-36.0001
13:07:08.279,-9.125,-38.3751
13:07:08.282,-9.75,-41.3127
13:07:08.292,-11.375,-45.5627
13:07:08.302,-12,-48.3127
13:07:08.311,-13.2501,-52.1877
13:07:08.320,-14.6251,-56.5002
13:07:08.330,-15.4376,-59.6877
13:07:08.341,-17.4376,-62.9377
13:07:08.351,-18.5626,-64.4377
13:07:08.361,-16.5626,-63.6252
13:07:08.372,-9.4375,-49.3127
13:07:08.380,1.4375,-20.5626
13:07:08.390,15.8751,15.6251
13:07:08.401,28.8126,51.9377
13:07:08.411,40.1252,80.8128
13:07:08.420,46.3752,102.1254
13:07:08.431,48.4377,113.3129
13:07:08.440,50.8127,119.1255
13:07:08.450,51.0002,124.0005
13:07:08.460,50.6877,124.563
13:07:08.470,50.0002,122.813
13:07:08.482,48.8752,121.3755
13:07:08.491,47.1252,116.3754
13:07:08.500,45.5002,112.0629
13:07:08.510,43.6877,107.3129
13:07:08.520,41.8752,102.4379
13:07:08.530,41.1877,99.8129
13:07:08.540,39.8127,96.3129
13:07:08.550,38.1876,94.6879
13:07:08.561,38.7501,92.5004
13:07:08.571,36.7501,89.3128
13:07:08.580,35.5001,85.0628
13:07:08.590,33.0001,79.1878
13:07:08.603,31.1251,73.5003
13:07:08.610,29.3751,68.1878
13:07:08.622,27.8126,63.7502
13:07:08.633,26.1251,58.8752
13:07:08.641,25.6876,57.3127
13:07:08.653,25.5626,55.2502
13:07:08.660,25.5001,54.8127
13:07:08.672,25.9376,55.1252
13:07:08.680,26.1251,55.6877
13:07:08.691,25.5001,54.5002
13:07:08.700,25.3751,54.2502
13:07:08.711,24.8126,52.3752
13:07:08.720,24.1251,50.0002
13:07:08.757,22.5626,46.1252
13:07:08.759,20.7501,41.6252
13:07:08.761,18.8751,36.6251
13:07:08.764,16.0626,31.7501
13:07:08.770,15.0626,25.9376
13:07:08.805,12.375,19.8751
13:07:08.808,9.5625,13.6251
13:07:08.811,7.5,8
13:07:08.858,5.6875,2.1875
13:07:08.858,4.75,-3.4375
13:07:08.907,2.875,-8.25
13:07:08.908,0.5625,-12.625
13:07:08.924,-0.5,-17.0626
13:07:08.924,-2,-21.1876
13:07:08.924,-2.375,-24.5626
13:07:08.938,-4.125,-27.8751
13:07:08.940,-5.8125,-31.8751
13:07:08.945,-6.875,-35.5626
13:07:08.955,-7.5625,-38.1251
13:07:08.966,-9,-42.0002
13:07:08.977,-10.25,-44.5627
13:07:08.986,-10.75,-48.2502
13:07:08.996,-12.5625,-50.1877
13:07:09.007,-13.4376,-53.4377
13:07:09.017,-13.3126,-57.2502
13:07:09.028,-15.2501,-60.2502
13:07:09.037,-14.9376,-61.1877
13:07:09.046,-12.3125,-55.3127
13:07:09.056,-4.5,-37.5001
13:07:09.066,8.5,-7.625
13:07:09.076,51.2502,115.6879
13:07:09.087,52.4377,121.563
13:07:09.097,51.7502,123.3755
13:07:09.106,52.3127,122.7505
13:07:09.117,51.3127,121.313
13:07:09.126,50.1252,118.938
13:07:09.136,49.0002,115.0629
13:07:09.146,47.0627,110.8754
13:07:09.156,45.6877,107.4379
13:07:09.166,45.0627,105.0004
13:07:09.175,44.5627,102.5004
13:07:09.187,43.5002,100.8754
13:07:09.195,43.0627,98.3129
13:07:09.206,42.0002,96.3129
13:07:09.217,39.5002,93.1254
13:07:09.226,38.8751,86.1878
13:07:09.236,36.1251,81.8128
13:07:09.245,34.3751,75.0628
13:07:09.256,31.5626,70.2503
13:07:09.267,30.1251,64.9377
13:07:09.275,28.8751,61.2502
13:07:09.287,29.0001,59.6877
13:07:09.295,28.4376,57.8127
13:07:09.307,28.0626,57.7502
13:07:09.317,29.0001,57.4377
13:07:09.326,28.1251,56.7502
13:07:09.336,28.4376,55.9377
13:07:09.346,26.2501,53.9377
13:07:09.357,25.7501,50.8752
13:07:09.365,24.3126,48.3127
13:07:09.377,23.0001,43.8752
13:07:09.387,20.4376,38.4376
13:07:09.396,18.6251,32.7501
13:07:09.409,16.3126,27.5626
13:07:09.417,14.1876,21.2501
13:07:09.427,11.75,15.5001
13:07:09.436,10.1875,9.375
13:07:09.446,7.5625,3.625
13:07:09.459,5.6875,-2.3125
13:07:09.490,3.625,-7.6875
13:07:09.494,2.0625,-12.3125
13:07:09.496,0.25,-17.6251
13:07:09.498,-1.5625,-22.8751
13:07:09.529,-3.5625,-26.8126
13:07:09.532,-4.75,-32.3126
13:07:09.534,-6.1875,-36.6876
13:07:09.536,-7.75,-40.8127
13:07:09.574,-9.6875,-45.2502
13:07:09.574,-10.9375,-48.9377
13:07:09.578,-12,-53.1252
13:07:09.604,-13.4376,-56.5002
13:07:09.604,-14.5626,-59.2502
13:07:09.606,-15.5626,-62.3752
13:07:09.612,-16.2501,-64.5002
13:07:09.620,-16.7501,-67.7503
13:07:09.626,-17.2501,-69.6253
13:07:09.640,-18.7501,-72.8753
13:07:09.647,-19.7501,-75.5003
13:07:09.657,-21.4376,-77.7503
13:07:09.666,-22.6876,-83.3128
13:07:09.676,-23.8126,-85.1253
13:07:09.686,-21.9376,-83.6253
13:07:09.697,-15.7501,-68.9378
13:07:09.706,-3.9375,-39.6252
13:07:09.716,9.9375,-3.125
13:07:09.726,24.2501,33.8126
13:07:09.737,33.5001,63.0627
13:07:09.747,38.8126,81.6253
13:07:09.756,41.3127,93.5629
13:07:09.767,44.2502,99.0629
13:07:09.778,45.8127,102.6254
13:07:09.787,44.5627,104.0629
13:07:09.797,43.2502,100.8754
13:07:09.806,42.1877,99.0629
13:07:09.818,40.2502,94.3129
13:07:09.828,39.1252,89.3128
13:07:09.837,36.3751,85.8753
13:07:09.847,35.1876,80.3753
13:07:09.856,33.6876,78.1253
13:07:09.867,32.8751,75.0628
13:07:09.876,33.4376,72.8753
13:07:09.887,32.9376,71.7503
13:07:09.897,30.3751,69.3128
13:07:09.906,29.1876,63.5627
13:07:09.917,27.1876,58.4377
13:07:09.926,25.3751,52.6877
13:07:09.937,23.5626,47.8752
13:07:09.947,21.3751,42.8127
13:07:09.956,19.9376,37.9376
13:07:09.966,19.6251,35.4376
13:07:09.976,19.2501,33.6876
13:07:09.987,18.7501,33.2501
13:07:09.997,18.3126,33.0001
13:07:10.007,18.6251,33.0001
13:07:10.018,18.3751,32.5626
13:07:10.027,18.5626,32.4376
13:07:10.037,17.8126,30.1251
13:07:10.046,16.6876,27.8126
13:07:10.057,15.1876,23.8751
13:07:10.067,13.1251,19.8751
13:07:10.077,12.5,15.6876
13:07:10.086,9.4375,9.8125
13:07:10.097,7.625,4.5625
13:07:10.107,4.375,-1.5625
13:07:10.164,3.5,-7.5
13:07:10.165,0.6875,-13.5626
13:07:10.168,-1.1875,-20.5001
13:07:10.174,-4.25,-26.3751
13:07:10.207,-5.9375,-30.8126
13:07:10.207,-7.625,-36.3751
13:07:10.209,-9.25,-41.5002
13:07:10.240,-10.875,-44.7502
13:07:10.250,-12.75,-50.5002
13:07:10.250,-14.0001,-54.6252
13:07:10.250,-15.6876,-58.5627
13:07:10.252,-16.9376,-61.4377
13:07:10.278,-18.1876,-65.0627
13:07:10.280,-18.6251,-68.8128
13:07:10.283,-19.6876,-71.0003
13:07:10.324,-20.4376,-71.1253
13:07:10.329,-20.2501,-74.0003
13:07:10.332,-21.3751,-76.5628
13:07:10.332,-21.8126,-76.8753
13:07:10.340,-22.4376,-78.8128
13:07:10.342,-23.0626,-81.0003
13:07:10.353,-24.1251,-84.7503
13:07:10.362,-26.6876,-89.0003
13:07:10.371,-28.2501,-92.4379
13:07:10.382,-28.6876,-95.7504
13:07:10.392,-28.0626,-95.0004
13:07:10.403,-23.7501,-84.1253
13:07:10.412,14.7501,12.9375
13:07:10.421,26.8126,47.0627
13:07:10.431,32.6876,68.6253
13:07:10.441,35.8126,80.0003
13:07:10.451,36.9376,87.1878
13:07:10.462,38.4376,90.5629
13:07:10.471,38.5626,91.8129
13:07:10.481,37.3126,89.9378
13:07:10.492,35.5626,86.3128
13:07:10.501,33.3126,82.1878
13:07:10.511,31.4376,76.0628
13:07:10.523,29.2501,70.5003
13:07:10.531,27.5001,64.9377
13:07:10.542,26.5626,60.1877
13:07:10.552,24.0626,56.6252
13:07:10.561,23.7501,52.5002
13:07:10.571,22.8126,50.1877
13:07:10.581,21.0001,46.2502
13:07:10.592,18.7501,40.6877
13:07:10.602,16.8126,35.0001
13:07:10.611,14.5001,30.0626
13:07:10.621,14.3751,25.0001
13:07:10.631,12.5625,22.3126
13:07:10.642,11.1875,19.5626
13:07:10.652,11.25,17.5626
13:07:10.662,11,18.3751
13:07:10.672,12.125,19.2501
13:07:10.682,12.375,20.4376
13:07:10.692,13,22.0626
13:07:10.702,13.1251,21.7501
13:07:10.712,13.6251,22.6251
13:07:10.721,12.8125,20.9376
13:07:10.735,12.625,18.6251
13:07:10.743,10.8125,16.2501
13:07:10.753,8.5,11.6875
13:07:10.761,6.1875,5.6875
13:07:10.771,4.8125,0.4375
13:07:10.781,2.25,-5.3125
13:07:10.792,-0.125,-11.5625
13:07:10.801,-2.5625,-18.0626
13:07:10.811,-3.9375,-23.0001
13:07:10.822,-5.6875,-29.3126
13:07:10.831,-7.9375,-34.3751
13:07:10.842,-9,-38.3126
13:07:10.874,-11.1875,-42.5627
13:07:10.876,-12.9375,-47.0627
13:07:10.879,-13.8126,-50.6252
13:07:10.881,-15.0626,-54.9377
13:07:10.914,-15.8751,-57.1877
13:07:10.915,-16.6876,-60.3752
13:07:10.917,-18.2501,-62.8127
13:07:10.923,-18.0626,-64.5002
13:07:10.950,-19.0626,-66.4378
13:07:10.952,-20.5001,-69.1253
13:07:10.955,-21.3126,-71.2503
13:07:10.993,-22.1876,-73.6878
13:07:10.994,-23.2501,-76.7503
13:07:10.996,-23.1876,-78.8128
13:07:11.004,-25.7501,-83.6253
13:07:11.005,-26.3751,-84.6253
13:07:11.017,-26.8126,-87.5003
13:07:11.022,-24.3126,-81.2503
13:07:11.037,-16.5626,-63.5627
13:07:11.041,-4.25,-31.1251
13:07:11.051,9.375,3.5625
13:07:11.063,21.4376,39.0001
13:07:11.072,30.6251,65.0627
13:07:11.081,34.1876,80.1253
13:07:11.092,36.6251,89.3753
13:07:11.101,37.8751,94.1879
13:07:11.111,38.5001,97.4379
13:07:11.121,37.8126,96.7504
13:07:11.132,36.1876,95.2504
13:07:11.142,35.1251,91.0629
13:07:11.152,33.3126,85.6253
13:07:11.161,31.8751,81.0003
13:07:11.171,29.5001,76.1878
13:07:11.182,27.8751,70.5003
13:07:11.192,26.8126,66.7503
13:07:11.201,25.1251,65.1877
13:07:11.212,24.6876,61.0002
13:07:11.222,23.8126,59.5002
13:07:11.233,22.5001,54.5627
13:07:11.241,20.0001,49.8127
13:07:11.251,18.1876,42.8752
13:07:11.262,15.7501,38.2501
13:07:11.271,14.9376,32.0626
13:07:11.282,13.4376,29.1876
13:07:11.292,12.375,26.3126
13:07:11.302,11.9375,24.4376
13:07:11.312,12.625,25.3751
13:07:11.323,13.1876,26.1876
13:07:11.332,13.4376,27.3751
13:07:11.342,14.5001,28.5001
13:07:11.352,13.3751,29.3126
13:07:11.361,13.3126,29.0001
13:07:11.371,13,25.5626
13:07:11.381,11.5625,22.7501
13:07:11.411,9.8125,19.0001
13:07:11.414,8.1875,13.4376
13:07:11.416,6,8.25
13:07:11.422,4.75,3
13:07:11.438,2.1875,-2.5
13:07:11.454,-0.6875,-8.1875
13:07:11.456,-2.5625,-15.5001
13:07:11.464,-4.6875,-20.8751
13:07:11.472,-7.0625,-25.7501
13:07:11.486,-8.5,-32.6251
13:07:11.504,-11,-37.3126
13:07:11.505,-11.6875,-41.9377
13:07:11.520,-13.2501,-46.1252
13:07:11.522,-14.5626,-49.0002
13:07:11.532,-16.3126,-53.7502
13:07:11.541,-18.0626,-57.9377
13:07:11.552,-19.3751,-61.6252
13:07:11.561,-20.3751,-65.4377
13:07:11.571,-20.5626,-68.0628
13:07:11.582,-21.5001,-70.6878
13:07:11.597,-22.5001,-72.8753
13:07:11.607,-22.7501,-74.0003
13:07:11.616,-24.2501,-76.3753
13:07:11.636,-24.5626,-78.3753
13:07:11.639,-24.9376,-79.0628
13:07:11.648,-25.8751,-82.6253
13:07:11.674,-26.9376,-83.7503
13:07:11.677,-27.9376,-87.3753
13:07:11.678,-28.4376,-88.7503
13:07:11.718,-29.7501,-92.4379
13:07:11.719,-29.8751,-92.7504
13:07:11.720,-26.3126,-85.3128
13:07:11.724,-17.9376,-63.1252
13:07:11.730,-2.9375,-27.5001
13:07:11.758,10.375,11.625
13:07:11.760,22.8751,46.2502
13:07:11.762,33.1251,82.3753
13:07:11.794,37.7501,93.9379
13:07:11.794,38.8751,101.5004
13:07:11.796,39.9377,105.5004
13:07:11.802,39.8127,106.1254
13:07:11.807,39.5627,105.5629
13:07:11.816,38.6876,103.1879
13:07:11.827,37.5626,99.8129
13:07:11.837,35.6876,95.9379
13:07:11.846,33.5626,90.8129
13:07:11.858,32.6251,88.5628
13:07:11.870,31.8126,83.7503
13:07:11.876,31.0626,81.9378
13:07:11.887,29.4376,80.3753
13:07:11.896,29.3751,77.8128
13:07:11.906,28.0001,76.0003
13:07:11.917,26.7501,72.6253
13:07:11.926,25.6251,65.8128
13:07:11.936,23.5626,61.1877
13:07:11.946,21.3126,55.3752
13:07:11.956,18.8751,49.7502
13:07:11.969,17.0626,46.9377
13:07:11.977,16.3126,42.5002
13:07:11.986,15.1251,39.9377
13:07:11.997,14.5626,37.9376
13:07:12.007,14.8126,37.6251
13:07:12.018,15.2501,36.9376
13:07:12.026,15.2501,37.7501
13:07:12.037,14.5626,36.5626
13:07:12.046,14.2501,34.3126
13:07:12.056,13.3751,33.3126
13:07:12.066,12.6875,29.3751
13:07:12.076,11.5625,26.1876
13:07:12.087,9.9375,21.0001
13:07:12.097,7.75,16.7501
13:07:12.106,6.3125,10.875
13:07:12.117,3.75,4.75
13:07:12.127,1.6875,-1.375
13:07:12.137,-0.375,-7
13:07:12.146,-3.625,-12.875
13:07:12.156,-5.6875,-19.5626
13:07:12.166,-7.25,-25.6876
13:07:12.176,-8.375,-29.8751
13:07:12.186,-10.625,-35.3751
13:07:12.196,-11.9375,-40.0002
13:07:12.206,-13.8751,-44.7502
13:07:12.218,-14.9376,-48.6877
13:07:12.226,-16.5001,-52.9377
13:07:12.238,-17.3751,-57.6252
13:07:12.246,-19.6876,-61.1252
13:07:12.257,-20.3126,-63.6877
13:07:12.266,-21.8126,-67.9378
13:07:12.276,-22.6251,-70.8753
13:07:12.286,-22.1876,-73.1878
13:07:12.298,-24.3126,-75.3753
13:07:12.307,-24.8126,-77.6878
13:07:12.316,-25.5626,-79.1253
13:07:12.326,-25.7501,-81.9378
13:07:12.343,-26.5001,-82.6253
13:07:12.347,-26.9376,-83.5628
13:07:12.377,-27.8751,-85.1878
13:07:12.379,-28.6251,-87.1878
13:07:12.381,-29.6876,-89.5628
13:07:12.388,-31.0626,-94.6879
13:07:12.415,-32.4376,-96.6879
13:07:12.417,-33.2501,-100.2504
13:07:12.419,-32.7501,-100.2504
13:07:12.427,-29.3751,-91.3754
13:07:12.459,-17.8751,-65.0627
13:07:12.461,-4.25,-26.3751
13:07:12.464,10.375,13.1876
13:07:12.490,22.7501,48.5627
13:07:12.492,31.5001,76.2503
13:07:12.494,35.5626,90.1879
13:07:12.519,37.6876,100.3129
13:07:12.520,39.3127,104.8129
13:07:12.524,40.0627,108.3754
13:07:12.532,39.7502,107.5004
13:07:12.542,38.8126,106.0629
13:07:12.552,36.8126,104.1254
13:07:12.562,35.2501,97.4379
13:07:12.571,34.0626,93.3129
13:07:12.582,32.6876,88.2503
13:07:12.591,31.8126,85.1253
13:07:12.601,29.6251,81.7503
13:07:12.614,29.4376,79.5628
13:07:12.622,28.4376,78.3753
13:07:12.632,28.0626,74.5628
13:07:12.641,26.5626,71.3753
13:07:12.652,24.8751,68.1253
13:07:12.661,22.8751,61.6877
13:07:12.693,20.9376,56.4377
13:07:12.697,19.9376,50.3127
13:07:12.698,17.5626,46.4377
13:07:12.704,16.1876,42.0627
13:07:12.713,15.4376,40.0002
13:07:12.722,15.5626,37.1251
13:07:12.737,15.3751,36.8751
13:07:12.751,15.1251,37.5626
13:07:12.754,15.1251,35.5626
13:07:12.761,14.7501,36.3751
13:07:12.772,14.7501,33.5001
13:07:12.781,13.9376,31.5001
13:07:12.799,12.875,28.9376
13:07:12.802,10.625,25.4376
13:07:12.818,9.8125,20.3751
13:07:12.826,7.5,15.3126
13:07:12.831,5.75,9.8125
13:07:12.843,2.6875,3.4375
13:07:12.852,-0.1875,-3.0625
13:07:12.862,-2.4375,-9.6875
13:07:12.872,-4.625,-16.3126
13:07:12.883,-6.0625,-23.3126
13:07:12.891,-8.75,-29.1876
13:07:12.901,-10.6875,-35.1876
13:07:12.911,-12.25,-40.6877
13:07:12.921,-14.0001,-46.1877
13:07:12.931,-15.1876,-50.8752
13:07:12.942,-18.3126,-56.1877
13:07:12.952,-19.0001,-61.0627
13:07:12.961,-21.1876,-65.5628
13:07:12.972,-22.7501,-70.0003
13:07:12.981,-23.9376,-74.6878
13:07:12.993,-25.5626,-77.9378
13:07:13.002,-26.7501,-82.5628
13:07:13.011,-28.5001,-84.8128
13:07:13.021,-29.2501,-89.6878
13:07:13.031,-30.1876,-92.3754
13:07:13.042,-32.1251,-94.0629
13:07:13.052,-32.7501,-96.1879
13:07:13.062,-33.1876,-99.0004
13:07:13.082,-32.7501,-100.1879
13:07:13.085,-34.7501,-101.1879
13:07:13.093,-35.1876,-103.8129
13:07:13.120,-35.3126,-105.1879
13:07:13.127,-37.0626,-105.7504
13:07:13.130,-37.0626,-109.6254
13:07:13.132,-37.7501,-112.5629
13:07:13.167,-39.8127,-115.2504
13:07:13.169,-40.6252,-119.3755
13:07:13.171,-41.0627,-120.688
13:07:13.179,-39.5627,-115.5004
13:07:13.189,-29.8751,-93.6879
13:07:13.193,-12.875,-50.5627
13:07:13.216,2.5,-6.375
13:07:13.224,15.2501,31.2501
13:07:13.224,26.8751,63.7502
13:07:13.234,34.0001,86.5003
13:07:13.253,35.6251,97.3129
13:07:13.254,37.6876,103.4379
13:07:13.262,37.0626,105.0004
13:07:13.271,37.4376,105.1879
13:07:13.281,35.5001,102.5004
13:07:13.291,33.1876,97.0004
13:07:13.301,31.2501,91.6879
13:07:13.311,28.5001,86.3128
13:07:13.321,26.6251,77.8128
13:07:13.332,24.0626,73.0003
13:07:13.341,22.5001,66.2503
13:07:13.352,21.5626,62.6877
13:07:13.364,20.0626,59.3127
13:07:13.371,20.3126,56.8752
13:07:13.381,18.6251,53.5002
13:07:13.392,16.6876,49.7502
13:07:13.401,14.6251,43.2502
13:07:13.411,12.4375,37.2501
13:07:13.421,11.375,32.3751
13:07:13.434,9.3125,27.6876
13:07:13.441,7.625,23.1251
13:07:13.451,6.375,20.0626
13:07:13.461,6.25,18.3126
13:07:13.472,6.375,17.9376
13:07:13.482,6.875,18.2501
13:07:13.491,6.9375,18.5001
13:07:13.501,7.125,19.0626
13:07:13.512,6.625,18.9376
13:07:13.522,7.0625,18.5626
13:07:13.533,6.125,15.6251
13:07:13.542,4.5625,12.0625
13:07:13.551,2.625,7.75
13:07:13.561,1.3125,2.4375
13:07:13.572,-0.9375,-3.9375
13:07:13.583,-3.375,-10.125
13:07:13.592,-6.0625,-17.8751
13:07:13.602,-8.8125,-23.8751
13:07:13.611,-11.0625,-30.9376
13:07:13.621,-13.1251,-37.1876
13:07:13.632,-15.6251,-44.9377
13:07:13.641,-18.1251,-49.8752
13:07:13.651,-20.1876,-55.9377
13:07:13.661,-21.7501,-61.5002
13:07:13.671,-23.5001,-67.1878
13:07:13.682,-25.4376,-71.5628
13:07:13.691,-26.9376,-76.1253
13:07:13.701,-28.5626,-79.2503
13:07:13.711,-29.7501,-84.0628
13:07:13.721,-30.2501,-87.0628
13:07:13.731,-31.4376,-88.8128
13:07:13.745,-32.3126,-93.3129
13:07:13.752,-32.5626,-94.2504
13:07:13.761,-34.0001,-95.6254
13:07:13.772,-33.8751,-97.4379
13:07:13.781,-34.1251,-96.5004
13:07:13.791,-34.7501,-98.8754
13:07:13.801,-35.2501,-100.7504
13:07:13.811,-34.7501,-101.0004
13:07:13.822,-35.9376,-102.6879
13:07:13.852,-36.5001,-105.5004
13:07:13.856,-37.6251,-107.6254
13:07:13.857,-39.3127,-109.1879
13:07:13.862,-39.6877,-113.3129
13:07:13.897,-38.7501,-111.8129
13:07:13.897,-33.3126,-98.9379
13:07:13.900,-19.8126,-65.5003
13:07:13.903,-3.25,-20.6251
13:07:13.933,10.1875,16.6876
13:07:13.935,21.9376,51.5002
13:07:13.937,30.4376,80.0628
13:07:13.947,35.2501,96.0629
13:07:13.970,36.0001,104.0629
13:07:13.972,36.9376,105.6879
13:07:13.976,37.6251,106.8754
13:07:14.004,35.5626,103.6879
13:07:14.006,33.5001,98.1254
13:07:14.014,30.6876,92.8129
13:07:14.016,27.8126,83.5628
13:07:14.030,25.1876,75.5003
13:07:14.037,22.6251,67.2503
13:07:14.054,18.9376,59.3752
13:07:14.057,17.0001,53.1252
13:07:14.062,14.8751,48.8752
13:07:14.073,14.1251,43.8127
13:07:14.082,12.125,38.7501
13:07:14.096,10.5625,32.6251
13:07:14.111,8.1875,27.1251
13:07:14.119,5.8125,20.1251
13:07:14.124,4.3125,15.4376
13:07:14.132,3.0625,10.625
13:07:14.141,2,8.25
13:07:14.151,1.5,6.25
13:07:14.162,2.9375,7
13:07:14.172,3.8125,9.1875
13:07:14.181,4.1875,12.1875
13:07:14.192,4.9375,14.5626
13:07:14.201,5.6875,15.6251
13:07:14.212,6.0625,17.0001
13:07:14.221,6.375,17.0626
13:07:14.231,5.5,13.7501
13:07:14.241,3.875,11.625
13:07:14.251,2.8125,6.5625
13:07:14.262,0.25,1.8125
13:07:14.271,-1.1875,-4.625
13:07:14.282,-3.125,-11.8125
13:07:14.291,-7.125,-18.6251
13:07:14.301,-8.9375,-26.3126
13:07:14.312,-12.125,-32.6876
13:07:14.322,-13.6876,-39.5002
13:07:14.332,-15.9376,-46.1877
13:07:14.342,-18.7501,-52.3127
13:07:14.352,-21.0001,-57.7502
13:07:14.362,-22.3751,-63.3752
13:07:14.371,-23.8126,-68.6878
13:07:14.381,-25.3126,-72.1878
13:07:14.392,-27.4376,-77.9378
13:07:14.401,-28.8126,-81.3128
13:07:14.412,-29.6251,-85.2503
13:07:14.421,-30.5626,-87.9378
13:07:14.432,-31.6251,-90.3129
13:07:14.441,-32.0001,-93.6254
13:07:14.451,-32.9376,-94.5629
13:07:14.461,-33.8751,-96.3129
13:07:14.472,-33.6876,-97.8129
13:07:14.481,-33.6251,-98.9379
13:07:14.496,-34.1251,-101.1254
13:07:14.502,-36.3126,-103.5629
13:07:14.512,-36.8751,-106.6879
13:07:14.521,-36.9376,-108.3129
13:07:14.532,-38.1251,-109.0004
13:07:14.542,-36.8751,-107.7504
13:07:14.551,-29.1876,-90.0628
13:07:14.566,-13.8126,-49.2502
13:07:14.596,2.875,-4.5
13:07:14.597,16.0626,33.4376
13:07:14.601,26.5001,67.2503
13:07:14.602,34.1876,92.4379
13:07:14.633,38.0626,106.0004
13:07:14.635,40.2502,113.6879
13:07:14.637,40.0627,114.8754
13:07:14.642,40.2502,115.6879
13:07:14.670,38.2501,114.1879
13:07:14.674,36.6876,107.1254
13:07:14.675,34.6251,101.5629
13:07:14.685,31.1251,94.3129
13:07:14.716,28.5001,86.1878
13:07:14.718,25.5626,78.9378
13:07:14.720,23.6251,71.0003
13:07:14.723,21.8126,65.8127
13:07:14.737,19.9376,60.0002
13:07:14.742,18.8126,56.8127
13:07:14.754,17.8126,52.5002
13:07:14.761,15.3126,47.8752
13:07:14.772,13.7501,40.8752
13:07:14.781,11.75,35.3126
13:07:14.792,9.875,29.9376
13:07:14.802,7.6875,26.0001
13:07:14.812,7.25,23.0001
13:07:14.821,6.8125,19.5626
13:07:14.832,5.9375,18.5001
13:07:14.842,6.75,19.3126
13:07:14.852,7.25,20.4376
13:07:14.861,7.9375,22.8751
13:07:14.871,8.875,23.5001
13:07:14.881,8.4375,23.8751
13:07:14.891,8.1875,22.1251
13:07:14.902,7.0625,21.0001
13:07:14.912,6.25,16.4376
13:07:14.921,4.8125,13.3751
13:07:14.933,2.75,6.6875
13:07:14.941,0.6875,1.875
13:07:14.952,-2.1875,-5.75
13:07:14.962,-4.4375,-11.9375
13:07:14.973,-6.625,-19.1876
13:07:14.981,-9.5,-26.2501
13:07:14.991,-12.0625,-33.1876
13:07:15.002,-14.3751,-38.7501
13:07:15.011,-15.5001,-45.9377
13:07:15.021,-17.6876,-51.5002
13:07:15.032,-19.8751,-56.4377
13:07:15.042,-20.3126,-62.2502
13:07:15.052,-23.1251,-67.8753
13:07:15.061,-24.9376,-71.1878
13:07:15.071,-25.0626,-76.2503
13:07:15.084,-27.1251,-79.3128
13:07:15.094,-28.5001,-84.0003
13:07:15.101,-29.9376,-87.7503
13:07:15.112,-29.8751,-90.2503
13:07:15.121,-31.0001,-93.0004
13:07:15.132,-31.5626,-94.1254
13:07:15.141,-32.6251,-96.9379
13:07:15.151,-32.7501,-98.0629
13:07:15.161,-33.6876,-99.6254
13:07:15.172,-33.7501,-99.3754
13:07:15.181,-33.8126,-101.5629
13:07:15.192,-34.2501,-103.3754
13:07:15.201,-34.9376,-104.5004
13:07:15.211,-35.6876,-106.7504
13:07:15.223,-35.6251,-109.5004
13:07:15.250,-36.0001,-110.3129
13:07:15.255,-36.2501,-107.9379
13:07:15.257,-28.6251,-91.0629
13:07:15.266,-11.4375,-47.5627
13:07:15.272,6.3125,1.875
13:07:15.281,19.5626,40.8127
13:07:15.292,31.1251,75.0628
13:07:15.356,38.0626,101.9379
13:07:15.359,41.8752,116.0004
13:07:15.359,43.8127,123.688
13:07:15.359,44.5627,125.688
13:07:15.363,44.1877,126.8755
13:07:15.395,42.5002,125.2505
13:07:15.395,41.2502,120.1255
13:07:15.395,40.1252,114.9379
13:07:15.412,36.5626,108.7504
13:07:15.416,33.5626,100.5004
13:07:15.441,31.6876,94.0004
13:07:15.441,29.5001,88.3753
13:07:15.442,28.4376,83.0628
13:07:15.444,26.8751,81.0003
13:07:15.469,25.9376,77.1878
13:07:15.472,24.3751,74.6878
13:07:15.474,23.9376,69.7503
13:07:15.481,21.7501,65.0003
13:07:15.488,19.8126,59.5627
13:07:15.498,17.8751,52.2502
13:07:15.508,15.5626,47.6252
13:07:15.518,13.9376,42.5627
13:07:15.526,13.2501,37.7501
13:07:15.536,12.4375,35.3126
13:07:15.548,11.9375,34.5001
13:07:15.557,12.1875,34.5001
13:07:15.567,12.5,34.4376
13:07:15.577,13.3126,34.9376
13:07:15.586,13.2501,35.2501
13:07:15.596,12.3125,34.2501
13:07:15.614,11.375,32.5001
13:07:15.623,9.9375,29.7501
13:07:15.631,9.1875,25.1876
13:07:15.643,6.5,18.9376
13:07:15.652,4.1875,12
13:07:15.661,1.75,6.5625
13:07:15.673,0.6875,-0.5625
13:07:15.683,-2.8125,-7.3125
13:07:15.692,-5.125,-15.1876
13:07:15.706,-8.1875,-21.5626
13:07:15.713,-9.75,-28.0001
13:07:15.723,-11.8125,-35.2501
13:07:15.732,-13.3126,-40.1877
13:07:15.743,-15.8751,-46.8752
13:07:15.753,-17.5626,-51.7502
13:07:15.761,-19.1876,-57.0002
13:07:15.771,-20.8751,-62.2502
13:07:15.783,-21.8751,-66.9378
13:07:15.792,-23.3126,-72.1253
13:07:15.803,-25.2501,-75.1253
13:07:15.811,-26.0626,-78.4378
13:07:15.825,-26.3751,-82.5628
13:07:15.833,-27.8751,-85.3128
13:07:15.842,-29.2501,-86.9378
13:07:15.853,-29.8126,-89.1253
13:07:15.861,-30.0001,-90.1253
13:07:15.872,-30.1251,-90.4378
13:07:15.883,-30.1251,-91.9379
13:07:15.892,-30.0626,-93.1254
13:07:15.901,-30.7501,-94.0004
13:07:15.913,-30.8751,-95.6879
13:07:15.923,-30.6876,-97.6254
13:07:15.932,-29.7501,-97.6254
13:07:15.950,-26.2501,-93.0629
13:07:15.955,-21.7501,-86.5628
13:07:15.988,-17.1251,-74.0003
13:07:15.990,-4.75,-49.1877
13:07:15.993,10.1875,-6.625
13:07:15.995,26.9376,37.7501
13:07:16.024,41.8752,82.1878
13:07:16.027,53.5002,118.313
13:07:16.027,61.6877,140.688
13:07:16.034,68.1253,158.5006
13:07:16.062,71.2503,170.8131
13:07:16.068,73.1253,176.0007
13:07:16.069,72.1878,178.2507
13:07:16.101,69.5628,177.0007
13:07:16.102,68.6253,174.3132
13:07:16.106,66.0628,170.8756
13:07:16.114,64.8752,166.1881
13:07:16.114,61.4377,161.2506
13:07:16.123,58.4377,153.3756
13:07:16.134,56.2502,148.5006
13:07:16.146,54.5627,142.438
13:07:16.159,52.5627,138.813
13:07:16.167,51.6252,135.5005
13:07:16.177,50.4377,131.3755
13:07:16.189,49.5002,127.813
13:07:16.196,47.2502,123.5005
13:07:16.208,45.3752,118.438
13:07:16.217,43.3752,113.5629
13:07:16.229,41.8752,108.6254
13:07:16.238,40.0002,103.5629
13:07:16.247,38.6876,100.3754
13:07:16.258,38.1876,97.6879
13:07:16.267,39.0001,96.0004
13:07:16.276,38.8126,95.9379
13:07:16.286,39.6877,95.5004
13:07:16.297,39.5002,96.1879
13:07:16.306,39.6252,94.2504
13:07:16.317,39.1876,92.9379
13:07:16.328,40.1252,90.9379
13:07:16.338,38.2501,88.0628
13:07:16.346,36.5626,83.7503
13:07:16.358,35.3751,77.6878
13:07:16.367,33.6251,72.4378
13:07:16.376,32.0626,67.0628
13:07:16.387,30.5001,60.6252
13:07:16.396,29.1251,56.5002
13:07:16.406,27.4376,49.2502
13:07:16.418,26.3751,44.0627
13:07:16.428,25.8751,38.6876
13:07:16.438,23.6251,32.1251
13:07:16.449,21.1876,25.5001
13:07:16.459,18.4376,18.8126
13:07:16.468,17.1876,13.5626
13:07:16.477,14.8751,7.9375
13:07:16.489,12.1875,3.1875
13:07:16.499,9.5625,-2.4375
13:07:16.507,8.0625,-8.5
13:07:16.532,5.5,-14.6876
13:07:16.534,3.0625,-20.9376
13:07:16.538,0.375,-26.8751
13:07:16.549,-2.25,-34.2501
13:07:16.556,-4.5625,-40.5002
13:07:16.568,-5.8125,-44.6877
13:07:16.578,-7.0625,-48.9377
13:07:16.588,-8.5625,-52.2502
13:07:16.598,-10.0625,-56.3752
13:07:16.608,-10.9375,-60.8752
13:07:16.628,-11.4375,-63.3752
13:07:16.635,-12.375,-67.8128
13:07:16.642,-13,-70.5628
13:07:16.647,-14.7501,-74.6253
13:07:16.665,-15.5001,-76.6253
13:07:16.672,-15.6251,-79.7503
13:07:16.677,-16.3751,-82.0003
13:07:16.713,-16.1876,-82.8753
13:07:16.817,-14.8126,-78.3128
13:07:16.817,-6.875,-60.3127
13:07:16.817,5.375,-26.3126
13:07:16.817,19.9376,12.4375
13:07:16.817,34.2501,53.1252
13:07:16.824,43.0002,84.1253
13:07:16.827,48.3127,99.5004
13:07:16.848,51.7502,110.5004
13:07:16.848,52.5002,115.5004
13:07:16.848,53.9377,119.5005
13:07:16.849,51.4377,119.5005
13:07:16.853,50.6877,117.2504
13:07:16.856,48.8752,114.1879
13:07:16.869,47.0627,107.3129
13:07:16.871,45.5627,103.2504
13:07:16.883,41.5627,97.1254
13:07:16.893,40.5002,89.6878
13:07:16.901,37.8126,84.5628
13:07:16.913,36.4376,78.6253
13:07:16.922,35.0001,74.8753
13:07:16.933,32.6251,69.5628
13:07:16.942,31.6251,64.2502
13:07:16.953,29.4376,59.6877
13:07:16.962,27.2501,54.3752
13:07:16.972,26.2501,49.3752
13:07:16.983,24.5626,45.2502
13:07:16.992,26.2501,43.2502
13:07:17.002,27.1251,45.0002
13:07:17.012,28.4376,47.3752
13:07:17.021,30.1251,49.7502
13:07:17.032,30.5001,50.8127
13:07:17.043,31.0626,50.8127
13:07:17.053,29.8751,48.8752
13:07:17.063,29.7501,47.4377
13:07:17.073,28.3751,44.2502
13:07:17.083,27.3751,40.9377
13:07:17.093,25.7501,36.1876
13:07:17.102,23.0626,32.0626
13:07:17.113,22.0001,25.3126
13:07:17.123,20.1251,19.9376
13:07:17.133,17.9376,14.0001
13:07:17.143,15.2501,6.8125
13:07:17.153,12.875,-0.3125
13:07:17.163,10.5625,-6.6875
13:07:17.172,8.625,-11
13:07:17.183,6.6875,-16.5001
13:07:17.193,5.625,-21.9376
13:07:17.202,4,-24.4376
13:07:17.211,3.25,-28.0001
13:07:17.223,2.25,-31.0001
13:07:17.233,1.625,-34.4376
13:07:17.243,0.25,-37.5626
13:07:17.259,-1.3125,-39.8752
13:07:17.263,-2.1875,-43.1877
13:07:17.273,-4.625,-46.3752
13:07:17.283,-6.9375,-50.9377
13:07:17.292,-8.875,-55.3127
13:07:17.303,-10.375,-59.5627
13:07:17.312,-11.625,-63.5627
13:07:17.322,-13.1876,-67.8753
13:07:17.333,-14.0001,-71.1253
13:07:17.343,-15.1876,-75.0628
13:07:17.353,-17.1876,-78.7503
13:07:17.362,-16.5626,-78.8128
13:07:17.373,-13.8751,-73.1253
13:07:17.383,-5.5625,-54.1252
13:07:17.393,4.875,-24.0001
13:07:17.403,18.5001,12.25
13:07:17.412,29.6876,45.1877
13:07:17.424,36.5626,68.1878
13:07:17.434,39.7502,80.7503
13:07:17.443,41.0627,89.4378
13:07:17.453,42.0002,94.3754
13:07:17.462,41.7502,97.1879
13:07:17.484,42.0627,97.0004
13:07:17.485,39.4377,94.8754
13:07:17.504,37.4376,90.6879
13:07:17.504,34.9376,86.1253
13:07:17.533,33.8751,80.8753
13:07:17.534,31.0001,76.1253
13:07:17.537,29.8126,71.3128
13:07:17.543,27.6251,66.5003
13:07:17.553,26.8126,63.2502
13:07:17.579,26.0001,60.4377
13:07:17.581,25.2501,57.3127
13:07:17.584,23.7501,54.1252
13:07:17.614,21.8751,48.1252
13:07:17.616,19.2501,43.1877
13:07:17.619,18.1251,37.1251
13:07:17.623,16.6251,32.9376
13:07:17.654,15.5001,30.0001
13:07:17.657,15.1251,26.8126
13:07:17.658,15.0001,26.0626
13:07:17.663,16.2501,27.6251
13:07:17.680,16.6251,28.7501
13:07:17.683,17.6251,30.4376
13:07:17.693,17.4376,30.3751
13:07:17.703,16.8126,31.5626
13:07:17.713,17.5626,28.9376
13:07:17.723,16.2501,28.9376
13:07:17.733,16.3126,26.0001
13:07:17.743,15.0626,23.9376
13:07:17.753,14.7501,20.8751
13:07:17.763,14.0001,18.0001
13:07:17.773,13.4376,14.7501
13:07:17.783,12.3125,9.8125
13:07:17.811,10.1875,5.0625
13:07:17.813,8.5,0.6875
13:07:17.815,7.875,-4.625
13:07:17.823,5.9375,-8.125
13:07:17.833,5.5625,-13.4376
13:07:17.842,3.875,-17.0626
13:07:17.852,2.4375,-21.0001
13:07:17.863,1.5625,-25.4376
13:07:17.874,1.25,-27.5626
13:07:17.882,0.5,-31.0001
13:07:17.893,-1.4375,-34.1876
13:07:17.903,-2.5,-37.1251
13:07:17.913,-3.125,-40.8752
13:07:17.923,-4.4375,-43.1877
13:07:17.933,-5,-46.4377
13:07:17.943,-6.5,-49.8752
13:07:17.954,-7.75,-51.6252
13:07:17.962,-8.8125,-55.0627
13:07:17.977,-10.1875,-58.0627
13:07:17.986,-11.25,-62.2502
13:07:17.993,-12.5,-64.8752
13:07:18.010,-12.5625,-65.1252
13:07:18.013,-10.125,-57.7502
13:07:18.027,-2.4375,-39.7502
13:07:18.032,6.625,-11.125
13:07:18.043,17.3126,19.4376
13:07:18.057,24.0001,44.9377
13:07:18.066,28.9376,60.3752
13:07:18.072,30.7501,70.8753
13:07:18.090,33.0001,78.5003
13:07:18.093,32.5626,84.3128
13:07:18.107,33.1876,86.8753
13:07:18.112,32.0001,86.7503
13:07:18.124,31.1251,85.6253
13:07:18.151,29.7501,83.6253
13:07:18.154,28.3126,78.6878
13:07:18.155,26.5001,75.5003
13:07:18.194,25.1251,70.5628
13:07:18.194,24.4376,66.6878
13:07:18.199,22.1876,63.1252
13:07:18.200,21.1876,60.3127
13:07:18.204,20.5001,58.0002
13:07:18.229,19.7501,56.1252
13:07:18.232,19.5626,53.3752
13:07:18.234,17.9376,49.6252
13:07:18.273,15.8751,44.6877
13:07:18.275,14.0626,39.8752
13:07:18.278,12.9375,37.3751
13:07:18.284,12.3125,33.4376
13:07:18.284,11.8125,32.5001
13:07:18.312,11.875,30.3751
13:07:18.314,11.5625,31.1876
13:07:18.316,12.1875,32.6876
13:07:18.324,12.75,32.9376
13:07:18.333,13.5001,34.0001
13:07:18.342,14.0001,35.5626
13:07:18.353,14.1876,35.4376
13:07:18.363,13.8126,34.2501
13:07:18.373,12.875,31.4376
13:07:18.383,11.75,29.7501
13:07:18.392,10.8125,25.9376
13:07:18.402,9.9375,20.8751
13:07:18.414,9,17.5001
13:07:18.429,7.5,12.25
13:07:18.433,5.875,8.3125
13:07:18.442,3.375,1.5625
13:07:18.452,2.4375,-3.75
13:07:18.463,0.3125,-8.6875
13:07:18.473,0,-12.75
13:07:18.483,-1.4375,-17.8751
13:07:18.493,-2.875,-22.5001
13:07:18.502,-3.875,-25.6251
13:07:18.514,-4.1875,-29.1876
13:07:18.522,-5.625,-32.1876
13:07:18.533,-5.6875,-35.1876
13:07:18.542,-6,-37.8751
13:07:18.552,-6,-39.6252
13:07:18.563,-5.875,-41.0627
13:07:18.573,-6.875,-43.3752
13:07:18.583,-6.5,-45.1877
13:07:18.593,-7.125,-48.0627
13:07:18.603,-7.6875,-49.6252
13:07:18.613,-7.75,-50.7502
13:07:18.623,-7.5,-52.9377
13:07:18.633,-8.375,-55.5627
13:07:18.643,-9.125,-58.6877
13:07:18.653,-9.625,-61.0002
13:07:18.664,-9.625,-62.1252
13:07:18.673,-6.75,-56.5002
13:07:18.682,-0.5625,-41.9377
13:07:18.693,10.25,-12.5
13:07:18.702,21.3126,18.8126
13:07:18.713,29.2501,46.9377
13:07:18.722,34.3126,64.0002
13:07:18.732,37.5001,76.0628
13:07:18.742,38.3126,85.9378
13:07:18.753,40.0627,91.8754
13:07:18.763,39.6877,98.3129
13:07:18.772,40.0002,98.1254
13:07:18.783,40.1252,98.8129
13:07:18.792,37.8751,96.7504
13:07:18.808,36.8126,94.3754
13:07:18.813,34.4376,91.0629
13:07:18.823,33.5626,87.9378
13:07:18.833,30.5001,83.0003
13:07:18.842,27.6251,78.0003
13:07:18.852,26.4376,75.0628
13:07:18.862,24.8126,72.8128
13:07:18.873,23.6876,70.0628
13:07:18.883,23.0626,67.5628
13:07:18.893,20.5626,64.8128
13:07:18.902,18.2501,59.7502
13:07:18.913,17.3126,54.1252
13:07:18.923,15.6251,49.1877
13:07:18.932,14.2501,45.5627
13:07:18.943,13.6251,41.5627
13:07:18.982,12.125,38.5626
13:07:18.983,12.375,37.4376
13:07:18.985,11.875,37.0626
13:07:18.988,12.5,37.1251
13:07:18.994,12.5,37.0626
13:07:19.030,12.6875,37.8751
13:07:19.032,11.875,36.8751
13:07:19.034,11.8125,36.1876
13:07:19.043,10.6875,34.8126
13:07:19.044,10.75,32.1876
13:07:19.081,9.3125,28.1251
13:07:19.083,8.25,26.2501
13:07:19.087,7.3125,22.3751
13:07:19.100,6.5,18.1251
13:07:19.104,4.5625,13.0625
13:07:19.105,3.5,9.25
13:07:19.133,2.0625,5.75
13:07:19.136,1.4375,1.5
13:07:19.138,1.0625,-2.75
13:07:19.143,-0.375,-6.8125
13:07:19.153,-1.875,-11.5
13:07:19.162,-2.5,-13.6251
13:07:19.172,-2.5,-17.6251
13:07:19.188,-3.375,-21.8751
13:07:19.193,-5,-25.3126
13:07:19.203,-6.125,-28.1251
13:07:19.213,-6,-31.5626
13:07:19.223,-6.625,-34.8751
13:07:19.232,-7.25,-38.0626
13:07:19.243,-7.875,-40.8127
13:07:19.253,-8.3125,-42.6877
13:07:19.263,-8.5625,-44.0627
13:07:19.274,-8.8125,-46.7502
13:07:19.283,-9.4375,-50.3127
13:07:19.298,-11.5625,-54.1252
13:07:19.305,-11.6875,-56.0002
13:07:19.313,-12.125,-56.9377
13:07:19.327,-11.6875,-61.2502
13:07:19.338,-12.25,-62.7502
13:07:19.343,-13.1251,-66.1253
13:07:19.353,-12.4375,-66.1253
13:07:19.363,-12,-64.6252
13:07:19.378,-7.1875,-54.9377
13:07:19.386,2.375,-31.8751
13:07:19.394,13,0
13:07:19.409,23.6876,30.3751
13:07:19.416,29.8751,54.1252
13:07:19.424,34.0626,66.3753
13:07:19.432,37.6251,77.9378
13:07:19.443,39.0002,86.4378
13:07:19.453,40.1877,91.1879
13:07:19.462,40.7502,94.0004
13:07:19.473,40.6252,94.5629
13:07:19.483,39.4377,93.8754
13:07:19.493,37.9376,89.3753
13:07:19.502,35.6876,86.6878
13:07:19.512,34.4376,82.6253
13:07:19.522,32.7501,77.7503
13:07:19.533,31.3126,75.0003
13:07:19.542,30.0626,72.4378
13:07:19.553,29.3751,70.5628
13:07:19.563,29.0001,71.3753
13:07:19.573,28.1251,69.2503
13:07:19.599,27.6251,66.1878
13:07:19.601,25.6251,63.5002
13:07:19.603,24.5001,59.5627
13:07:19.637,21.4376,54.9377
13:07:19.639,19.8751,50.5002
13:07:19.641,17.2501,44.8127
13:07:19.644,14.6876,39.4377
13:07:19.674,13.6251,37.6251
13:07:19.675,12.75,34.0626
13:07:19.677,12.625,33.0001
13:07:19.705,12.8125,32.1876
13:07:19.706,12.625,32.3126
13:07:19.709,12.75,32.1876
13:07:19.742,11.8125,31.8751
13:07:19.744,11.9375,31.2501
13:07:19.746,11.75,27.9376
13:07:19.751,10.25,27.1251
13:07:19.764,9.375,23.0626
13:07:19.768,8,20.0001
13:07:19.778,6.0625,16.1251
13:07:19.789,4.8125,10.9375
13:07:19.798,2.875,7.0625
13:07:19.808,0.5625,-0.0625
13:07:19.817,-1.8125,-6.1875
13:07:19.828,-3.0625,-11.875
13:07:19.838,-3.375,-17.1251
13:07:19.849,-5.3125,-21.3126
13:07:19.857,-6.6875,-23.8751
13:07:19.868,-7.375,-28.1251
13:07:19.879,-7.6875,-32.0626
13:07:19.887,-7.875,-34.1876
13:07:19.897,-9,-35.2501
13:07:19.908,-9.25,-38.0626
13:07:19.918,-8.6875,-40.5002
13:07:19.928,-8.9375,-42.2502
13:07:19.937,-8.9375,-41.3127
13:07:19.948,-8.4375,-43.6877
13:07:19.958,-8.5,-44.7502
13:07:19.969,-8.375,-44.8127
13:07:19.977,-8.1875,-45.5002
13:07:19.988,-7.8125,-47.3752
13:07:19.998,-8.8125,-48.0002
13:07:20.008,-9.1875,-50.8127
13:07:20.018,-9.875,-52.9377
13:07:20.027,-9.75,-56.8127
13:07:20.038,-10.875,-58.2502
13:07:20.049,-9.5625,-59.6877
13:07:20.059,-6.5625,-52.1877
13:07:20.067,1.125,-34.9376
13:07:20.077,12.3125,-5.375
13:07:20.088,23.8751,24.0626
13:07:20.098,29.8126,46.0002
13:07:20.108,33.9376,61.6877
13:07:20.117,37.1876,72.9378
13:07:20.128,39.0626,79.0628
13:07:20.138,40.1877,84.8128
13:07:20.149,40.3752,88.0628
13:07:20.158,39.5002,88.6878
13:07:20.168,39.1876,86.1253
13:07:20.178,38.2501,83.7503
13:07:20.189,36.5626,82.3128
13:07:20.198,35.4376,76.4378
13:07:20.208,34.4376,72.7503
13:07:20.217,32.2501,68.4378
13:07:20.228,31.3751,64.6252
13:07:20.239,29.8126,61.3127
13:07:20.248,28.4376,57.8127
13:07:20.257,26.9376,55.6252
13:07:20.268,26.4376,51.1877
13:07:20.278,24.2501,46.1252
13:07:20.288,22.6876,40.3752
13:07:20.298,19.8126,34.2501
13:07:20.314,16.9376,29.2501
13:07:20.320,15.3126,24.1876
13:07:20.329,13.6876,21.0001
13:07:20.337,12.625,17.9376
13:07:20.370,11.875,18.0001
13:07:20.372,12.5,17.6876
13:07:20.375,13.1251,20.1876
13:07:20.378,14.1251,20.9376
13:07:20.388,13.1876,22.6876
13:07:20.398,12.8125,21.8751
13:07:20.442,11.9375,19.2501
13:07:20.444,10.9375,17.3126
13:07:20.445,9.5,13.4376
13:07:20.447,7.0625,8.5625
13:07:20.451,4.9375,3.375
13:07:20.486,2.6875,-1.25
13:07:20.488,1.625,-5.5625
13:07:20.490,-0.0625,-11
13:07:20.493,-1.3125,-15.3751
13:07:20.499,-3,-19.5626
13:07:20.535,-4.1875,-23.2501
13:07:20.537,-5.1875,-25.7501
13:07:20.541,-5.4375,-29.7501
13:07:20.544,-5.25,-31.9376
13:07:20.549,-5.8125,-33.6876
13:07:20.583,-6.25,-34.4376
13:07:20.586,-5.25,-34.8126
13:07:20.587,-5.4375,-37.2501
13:07:20.590,-6.375,-38.2501
13:07:20.600,-6.3125,-39.7502
13:07:20.615,-6.5,-43.6877
13:07:20.621,-7.375,-45.0002
13:07:20.628,-7.5,-47.8127
13:07:20.645,-7.6875,-49.5627
13:07:20.653,-8.625,-52.5627
13:07:20.659,-9.375,-54.6252
13:07:20.668,-9.8125,-57.6877
13:07:20.677,-10.625,-59.9377
13:07:20.693,-10.875,-63.9377
13:07:20.701,-11.25,-65.6878
13:07:20.707,-9.6875,-63.3127
13:07:20.726,-5.4375,-52.6252
13:07:20.728,3.375,-31.5001
13:07:20.742,15.2501,1.3125
13:07:20.749,25.3126,32.1251
13:07:20.758,31.6876,53.2502
13:07:20.768,35.2501,66.7503
13:07:20.779,38.8126,76.1878
13:07:20.788,41.3752,84.4378
13:07:20.798,41.6877,88.6253
13:07:20.807,41.6877,92.0629
13:07:20.817,42.0627,91.5004
13:07:20.828,40.2502,89.7503
13:07:20.837,39.6877,86.4378
13:07:20.848,36.7501,82.9378
13:07:20.858,35.9376,80.1253
13:07:20.869,34.3751,76.6878
13:07:20.878,34.1876,73.0628
13:07:20.889,33.8126,70.6253
13:07:20.897,32.6251,68.3753
13:07:20.907,31.9376,67.1878
13:07:20.917,31.2501,65.1878
13:07:20.928,30.3126,61.1252
13:07:20.937,29.1251,57.4377
13:07:20.949,26.7501,51.1877
13:07:20.959,25.8126,48.8127
13:07:20.968,24.8751,43.0627
13:07:20.978,24.0001,40.9377
13:07:20.988,23.0001,37.8126
13:07:20.998,21.6251,35.9376
13:07:21.007,21.4376,34.0626
13:07:21.018,19.9376,33.1876
13:07:21.028,18.5626,31.4376
13:07:21.038,17.7501,30.0001
13:07:21.050,16.7501,29.1876
13:07:21.064,16.4376,27.3751
13:07:21.069,14.5626,25.1876
13:07:21.078,13,20.1251
13:07:21.088,9.75,15.7501
13:07:21.098,6.5625,9.625
13:07:21.108,3.5625,5.0625
13:07:21.117,0.625,-1.1875
13:07:21.128,-2.375,-5.75
13:07:21.140,-4.0625,-11.5625
13:07:21.174,-6.8125,-15.8126
13:07:21.175,-7.75,-19.7501
13:07:21.177,-9.5625,-23.1251
13:07:21.180,-11,-27.8126
13:07:21.188,-12.625,-31.1876
13:07:21.222,-14.6876,-35.3751
13:07:21.224,-16.6251,-40.2502
13:07:21.226,-18.8126,-45.1252
13:07:21.230,-20.5001,-51.6252
13:07:21.271,-21.9376,-55.5627
13:07:21.273,-23.7501,-59.3127
13:07:21.273,-25.3751,-62.4377
13:07:21.302,-25.7501,-65.9378
13:07:21.304,-26.8751,-68.8128
13:07:21.306,-26.3126,-71.1253
13:07:21.307,-27.9376,-72.8128
13:07:21.316,-26.7501,-74.1878
13:07:21.320,-27.9376,-75.1253
13:07:21.329,-27.1251,-76.9378
13:07:21.338,-27.6251,-79.0628
13:07:21.349,-28.8126,-81.9378
13:07:21.357,-29.1876,-83.6253
13:07:21.367,-29.6251,-87.9378
13:07:21.378,-30.4376,-89.1253
13:07:21.389,-29.0626,-87.8753
13:07:21.398,-23.1251,-74.1253
13:07:21.409,-12.625,-47.7502
13:07:21.418,0.9375,-10.75
13:07:21.428,11.4375,20.8126
13:07:21.437,18.5001,42.3752
13:07:21.452,22.6251,55.1252
13:07:21.462,25.5626,67.1253
13:07:21.473,28.1251,73.5003
13:07:21.483,28.3126,77.8128
13:07:21.494,29.1251,79.6253
13:07:21.503,28.0626,79.2503
13:07:21.514,27.4376,78.4378
13:07:21.523,26.3751,74.8753
13:07:21.533,25.1876,71.5003
13:07:21.542,24.6876,68.5628
13:07:21.553,22.5626,66.1878
13:07:21.563,21.9376,63.2502
13:07:21.573,22.3751,61.8752
13:07:21.583,21.0626,59.6877
13:07:21.593,21.8751,58.6877
13:07:21.602,21.2501,57.0002
13:07:21.612,20.0626,52.8752
13:07:21.622,18.1251,47.4377
13:07:21.652,15.4376,42.0627
13:07:21.653,13.7501,36.6876
13:07:21.656,12.5,33.1251
13:07:21.664,12.0625,28.3126
13:07:21.673,11.0625,27.4376
13:07:21.683,11.875,23.9376
13:07:21.694,10.5,23.9376
13:07:21.703,11,23.3751
13:07:21.714,10.6875,22.4376
13:07:21.722,10,22.1251
13:07:21.732,9.25,18.3751
13:07:21.743,7.1875,16.4376
13:07:21.753,5.6875,11.3125
13:07:21.762,4.0625,8.3125
13:07:21.772,3.5,3.4375
13:07:21.805,2.5,1.0625
13:07:21.807,2.25,-1.8125
13:07:21.809,3.875,-2.3125
13:07:21.815,5.6875,-0.3125
13:07:21.842,7.3125,2.5625
13:07:21.844,8.3125,3.125
13:07:21.849,8.3125,1.25
13:07:21.853,8.3125,1.75
13:07:21.883,8.75,0
13:07:21.886,8.8125,-0.6875
13:07:21.888,8.125,-2.25
13:07:21.893,6.75,-5.25
13:07:21.902,4.6875,-8.9375
13:07:21.934,1.3125,-15.1251
13:07:21.937,-3,-22.3751
13:07:21.981,-7.9375,-30.2501
13:07:21.995,-11.875,-36.2501
13:07:21.996,-15.1251,-43.3127
13:07:22.011,-18.3751,-47.3127
13:07:22.011,-20.8126,-53.1877
13:07:22.012,-22.8751,-54.6877
13:07:22.026,-24.2501,-58.3127
13:07:22.029,-24.3126,-59.1252
13:07:22.036,-24.8751,-59.1252
13:07:22.042,-26.0001,-60.1252
13:07:22.058,-25.7501,-60.8127
13:07:22.066,-26.8751,-61.6252
13:07:22.074,-27.5626,-64.0627
13:07:22.084,-29.0001,-64.9377
13:07:22.093,-31.3126,-71.1878
13:07:22.104,-33.2501,-74.0003
13:07:22.113,-36.1251,-79.6253
13:07:22.124,-36.7501,-80.3753
13:07:22.132,-33.8126,-72.3128
13:07:22.143,-25.8751,-51.5627
13:07:22.156,-15.3751,-21.9376
13:07:22.164,5,44.0002
13:07:22.173,8.375,56.5002
13:07:22.183,10.9375,67.4378
13:07:22.193,11.875,72.9378
13:07:22.204,13.7501,77.8753
13:07:22.213,12.4375,79.4378
13:07:22.224,11.8125,79.1878
13:07:22.232,10.625,77.9378
13:07:22.244,10.125,74.5003
13:07:22.254,9.125,72.0628
13:07:22.263,8.0625,70.8128
13:07:22.273,7.625,67.0628
13:07:22.284,6.9375,66.0628
13:07:22.293,5.875,64.4377
13:07:22.304,5.625,62.8127
13:07:22.313,5.0625,62.8752
13:07:22.324,5.1875,60.8752
13:07:22.332,6.5625,60.0002
13:07:22.347,6.9375,59.0627
13:07:22.354,7.375,57.3752
13:07:22.362,7.9375,56.3127
13:07:22.374,8.25,54.8752
13:07:22.383,7.1875,51.8127
13:07:22.392,6.3125,48.5002
13:07:22.403,5.375,46.7502
13:07:22.413,5.6875,45.3127
13:07:22.423,4.75,44.1877
13:07:22.434,4.875,43.4377
13:07:22.443,4.375,43.2502
13:07:22.452,5.4375,42.6252
13:07:22.463,4.625,42.0002
13:07:22.474,6.0625,40.6877
13:07:22.482,4.625,39.1252
13:07:22.494,4.875,36.7501
13:07:22.503,3.25,33.8126
13:07:22.513,2.5,30.6876
13:07:22.523,2.1875,26.0626
13:07:22.533,1,22.6251
13:07:22.545,0.1875,18.1876
13:07:22.554,-0.1875,15.0001
13:07:22.591,-0.75,11.8125
13:07:22.593,0.1875,9.3125
13:07:22.595,-0.5,5.9375
13:07:22.598,-2.125,1.5625
13:07:22.604,-2.6875,-2.3125
13:07:22.617,-3.8125,-7.3125
13:07:22.649,-4.25,-10.875
13:07:22.651,-5.5,-14.1251
13:07:22.653,-6.5625,-17.0001
13:07:22.655,-6.75,-20.6876
13:07:22.685,-7.1875,-21.9376
13:07:22.686,-7.3125,-24.5626
13:07:22.689,-7.125,-26.1876
13:07:22.724,-7.1875,-28.3751
13:07:22.726,-7.875,-30.8751
13:07:22.729,-8.6875,-33.6876
13:07:22.732,-9.0625,-35.3126
13:07:22.734,-9.6875,-38.5626
13:07:22.749,-10.25,-40.5002
13:07:22.754,-10.3125,-41.8752
13:07:22.762,-10.3125,-42.2502
13:07:22.773,-11.25,-43.8752
13:07:22.784,-11.9375,-46.7502
13:07:22.793,-13.3126,-48.6877
13:07:22.804,-14.7501,-52.8752
13:07:22.814,-15.1876,-56.1877
13:07:22.822,-16.6251,-59.5627
13:07:22.834,-17.6251,-61.2502
13:07:22.844,-15.4376,-59.0627
13:07:22.853,-9.1875,-42.6877
13:07:22.864,0.5625,-16.6876
13:07:22.873,11.5,14.1876
13:07:22.884,18.6251,37.8126
13:07:22.893,24.1251,53.5002
13:07:22.903,27.6251,66.8128
13:07:22.931,30.2501,77.3128
13:07:22.933,33.1251,85.1253
13:07:22.935,34.9376,91.2504
13:07:22.944,34.7501,94.0629
13:07:22.953,34.7501,94.9379
13:07:22.964,34.0001,94.1879
13:07:22.974,32.5626,92.0004
13:07:22.984,31.6876,88.9378
13:07:22.994,29.2501,86.6878
13:07:23.004,28.6251,82.9378
13:07:23.014,28.3751,80.8753
13:07:23.024,27.1251,78.1878
13:07:23.034,27.5001,77.7503
13:07:23.044,26.0626,76.1253
13:07:23.054,26.0001,74.0003
13:07:23.063,24.6251,71.2503
13:07:23.074,22.5001,67.0628
13:07:23.083,20.8751,63.6877
13:07:23.094,19.1251,59.4377
13:07:23.102,18.1251,55.0002
13:07:23.114,17.5001,52.5627
13:07:23.125,16.3751,49.3752
13:07:23.134,15.1251,47.3127
13:07:23.142,15.6876,45.6877
13:07:23.154,15.3751,46.3127
13:07:23.163,15.8751,46.3127
13:07:23.175,15.6251,47.6252
13:07:23.183,16.0626,46.1877
13:07:23.193,14.9376,45.8127
13:07:23.204,14.8751,43.7502
13:07:23.213,13.6251,41.6252
13:07:23.224,12.8125,39.6252
13:07:23.234,11.9375,35.8751
13:07:23.244,10.5625,33.5001
13:07:23.254,9.1875,27.6251
13:07:23.289,7.125,24.0626
13:07:23.291,5.5625,18.6876
13:07:23.331,3.8125,14.2501
13:07:23.362,1.5,7.3125
13:07:23.365,-0.5625,3.625
13:07:23.402,-2.0625,-2.1875
13:07:23.402,-3.1875,-6.125
13:07:23.402,-5.5,-10.6875
13:07:23.402,-7,-15.4376
13:07:23.403,-9.0625,-20.4376
13:07:23.444,-10.4375,-24.7501
13:07:23.459,-11.625,-27.6876
13:07:23.459,-12.6875,-32.4376
13:07:23.464,-14.5626,-35.0001
13:07:23.465,-16.5001,-38.8126
13:07:23.475,-17.1876,-41.5627
13:07:23.484,-18.2501,-43.8752
13:07:23.500,-20.0001,-48.1252
13:07:23.504,-21.3751,-50.6877
13:07:23.514,-22.3126,-53.1877
13:07:23.524,-23.5001,-56.9377
13:07:23.534,-24.3126,-60.3127
13:07:23.545,-26.3751,-63.5627
13:07:23.553,-27.8751,-68.0628
13:07:23.564,-20.8126,-51.0627
13:07:23.574,-11.6875,-23.2501
13:07:23.584,-3.4375,3.9375
13:07:23.592,2.75,22.8751
13:07:23.604,6.25,37.3126
13:07:23.614,18.1876,76.1253
13:07:23.624,18.5001,78.1253
13:07:23.633,18.5001,78.3128
13:07:23.644,17.9376,76.5003
13:07:23.654,15.6251,74.3753
13:07:23.664,14.9376,70.2503
13:07:23.674,14.6876,67.1253
13:07:23.684,12.1875,63.1877
13:07:23.694,11.25,59.1252
13:07:23.702,9.875,56.8752
13:07:23.714,8.9375,53.5627
13:07:23.724,9.1875,51.6252
13:07:23.734,7.625,49.0627
13:07:23.766,5.875,44.6877
13:07:23.769,5,40.3752
13:07:23.771,3,35.8126
13:07:23.779,1.8125,32.5626
13:07:23.789,1.3125,28.3126
13:07:23.798,-0.5,26.1251
13:07:23.808,-0.5,23.0626
13:07:23.819,-1.125,22.3751
13:07:23.829,-0.25,21.6251
13:07:23.840,-0.3125,22.5626
13:07:23.849,-0.5,23.0626
13:07:23.859,-0.25,21.9376
13:07:23.872,-0.4375,21.8126
13:07:23.881,-0.9375,20.0626
13:07:23.889,-2.375,16.9376
13:07:23.899,-4,12.6875
13:07:23.909,-7.0625,7.9375
13:07:23.919,-8.75,3.0625
13:07:23.929,-9.8125,-1.1875
13:07:23.939,-10.9375,-7
13:07:23.949,-13.6251,-12.5625
13:07:23.959,-14.9376,-16.8126
13:07:23.969,-16.0626,-21.3126
13:07:23.979,-18.3751,-27.6876
13:07:23.990,-20.1876,-32.1876
13:07:24.004,-22.2501,-37.8751
13:07:24.009,-23.8126,-41.8752
13:07:24.042,-25.3751,-46.6252
13:07:24.045,-26.8126,-52.5002
13:07:24.046,-27.9376,-55.3752
13:07:24.074,-30.3751,-60.3752
13:07:24.075,-31.4376,-63.8127
13:07:24.078,-32.3751,-67.1878
13:07:24.082,-33.5626,-70.6878
13:07:24.089,-34.9376,-72.6253
13:07:24.116,-36.3126,-75.2503
13:07:24.120,-36.3126,-78.5628
13:07:24.122,-37.3126,-80.9378
13:07:24.152,-38.1251,-83.3128
13:07:24.155,-39.6877,-85.8753
13:07:24.156,-41.1252,-88.5628
13:07:24.159,-42.2502,-92.3129
13:07:24.176,-43.4377,-95.8129
13:07:24.179,-44.3127,-99.2504
13:07:24.211,-46.5627,-102.3754
13:07:24.214,-45.4377,-102.5004
13:07:24.216,-42.6877,-93.9379
13:07:24.219,-34.1251,-71.9378
13:07:24.229,-21.5626,-39.0626
13:07:24.239,-11.375,-6.625
13:07:24.249,-3.875,16.1251
13:07:24.258,0.8125,33.1251
13:07:24.269,4.5625,44.0627
13:07:24.279,8.5,53.0002
13:07:24.289,9.375,59.0627
13:07:24.299,9.8125,61.2502
13:07:24.309,10.8125,63.4377
13:07:24.318,10.25,61.1252
13:07:24.329,10.5,59.0002
13:07:24.339,7.9375,56.6252
13:07:24.349,6.9375,51.5627
13:07:24.358,6.875,48.3752
13:07:24.369,4.1875,43.9377
13:07:24.379,4.375,40.2502
13:07:24.388,2.625,37.8751
13:07:24.399,2.1875,34.0626
13:07:24.409,2,33.1251
13:07:24.420,0.875,29.6251
13:07:24.429,0.0625,26.4376
13:07:24.439,-1.8125,21.4376
13:07:24.449,-4.125,17.5001
13:07:24.459,-3.875,14.2501
13:07:24.469,-5.6875,11.375
13:07:24.479,-6.0625,8.4375
13:07:24.489,-7.125,5.9375
13:07:24.499,-7.4375,5.375
13:07:24.509,-7.5,4
13:07:24.519,-7.8125,4.875
13:07:24.529,-6.9375,5.1875
13:07:24.539,-6.875,3.75
13:07:24.549,-8.3125,3
13:07:24.559,-8.4375,1.4375
13:07:24.569,-9.875,-0.8125
13:07:24.579,-10.5,-4.625
13:07:24.589,-12.0625,-8.625
13:07:24.599,-14.5001,-12.875
13:07:24.609,-15.6876,-17.6876
13:07:24.624,-17.6251,-22.5626
13:07:24.628,-18.7501,-28.0001
13:07:24.639,-20.6876,-33.1251
13:07:24.649,-24.4376,-39.6877
13:07:24.669,-25.5001,-46.0002
13:07:24.674,-28.6876,-51.1252
13:07:24.683,-29.5001,-56.6252
13:07:24.688,-32.1251,-61.3752
13:07:24.705,-34.0626,-66.9378
13:07:24.711,-36.5626,-72.3753
13:07:24.719,-37.3126,-77.0003
13:07:24.753,-40.0002,-82.3753
13:07:24.851,-41.9377,-87.5003
13:07:24.851,-44.5002,-91.1254
13:07:24.855,-45.6877,-96.8754
13:07:24.860,-47.2502,-100.4379
13:07:24.861,-48.6252,-103.1879
13:07:24.861,-49.5002,-107.0004
13:07:24.892,-51.5002,-110.3129
13:07:24.894,-51.5002,-111.8129
13:07:24.896,-52.0002,-114.4379
13:07:24.899,-52.7502,-116.5004
13:07:24.912,-53.4377,-117.4379
13:07:24.919,-54.3752,-120.563
13:07:24.929,-55.4377,-123.1255
13:07:24.939,-56.4377,-125.313
13:07:24.950,-57.3752,-128.5005
13:07:24.959,-59.1252,-131.563
13:07:24.969,-60.1877,-135.813
13:07:24.979,-59.3127,-134.563
13:07:24.989,-55.7502,-127.7505
13:07:24.999,-47.1252,-103.9379
13:07:25.009,-34.4376,-68.6253
13:07:25.020,-19.7501,-28.7501
13:07:25.029,11.25,64.9377
13:07:25.041,9.4375,62.5002
13:07:25.049,8.1875,57.2502
13:07:25.059,7.6875,54.0002
13:07:25.069,5.6875,50.8752
13:07:25.079,6.1875,45.6252
13:07:25.089,5.5625,43.6877
13:07:25.099,4.375,40.0002
13:07:25.109,4.5,38.8126
13:07:25.119,4,36.6876
13:07:25.130,4.5,34.3751
13:07:25.139,2.625,31.1251
13:07:25.149,1.3125,26.8751
13:07:25.159,0.4375,23.3751
13:07:25.169,-0.625,17.7501
13:07:25.179,-1.75,15.3126
13:07:25.189,-2.75,11.25
13:07:25.199,-3.8125,9.125
13:07:25.209,-4.0625,7.25
13:07:25.219,-3.9375,7.375
13:07:25.229,-3,8.0625
13:07:25.238,-2.9375,7.5625
13:07:25.249,-3.0625,8.5
13:07:25.259,-2.5,7.875
13:07:25.269,-2.5,7.1875
13:07:25.279,-2.5,5.0625
13:07:25.289,-4.125,2.625
13:07:25.299,-5.625,-0.875
13:07:25.309,-7.3125,-6.5
13:07:25.319,-8.6875,-11.4375
13:07:25.329,-11.0625,-18.6251
13:07:25.339,-13.6251,-23.3126
13:07:25.348,-16.1251,-31.1876
13:07:25.359,-18.1876,-37.0001
13:07:25.373,-20.6876,-43.5002
13:07:25.380,-22.5626,-49.0002
13:07:25.389,-24.9376,-56.0002
13:07:25.399,-26.8751,-59.6877
13:07:25.409,-29.1876,-67.0628
13:07:25.419,-31.0626,-71.8753
13:07:25.429,-32.2501,-77.1878
13:07:25.438,-33.8126,-81.0003
13:07:25.469,-35.8126,-86.5003
13:07:25.472,-37.0626,-89.6878
13:07:25.474,-38.9376,-95.2504
13:07:25.499,-39.6252,-97.0629
13:07:25.502,-42.0002,-102.1254
13:07:25.504,-43.1252,-104.5629
13:07:25.510,-44.0627,-108.9379
13:07:25.536,-44.6252,-111.6879
13:07:25.540,-46.4377,-113.3129
13:07:25.541,-47.0002,-117.313
13:07:25.549,-47.8127,-119.1255
13:07:25.565,-49.5627,-122.188
13:07:25.569,-50.3127,-124.938
13:07:25.597,-51.0627,-127.0005
13:07:25.599,-52.6877,-129.688
13:07:25.600,-53.3127,-132.7505
13:07:25.629,-55.0627,-135.688
13:07:25.631,-55.9377,-140.0005
13:07:25.634,-57.0002,-141.813
13:07:25.639,-56.7502,-144.688
13:07:25.649,-54.1252,-139.2505
13:07:25.659,-46.6252,-118.938
13:07:25.671,-32.4376,-82.9378
13:07:25.680,-17.6251,-39.5627
13:07:25.689,-1.75,3.8125
13:07:25.699,7.9375,34.1251
13:07:25.709,12.8125,49.2502
13:07:25.719,16.7501,60.3127
13:07:25.729,18.5626,67.1878
13:07:25.739,20.2501,70.1878
13:07:25.749,19.6251,71.3128
13:07:25.759,18.9376,68.1253
13:07:25.769,17.6251,65.3127
13:07:25.779,16.3126,59.1877
13:07:25.791,14.5626,54.0627
13:07:25.799,12.25,47.1252
13:07:25.809,10.4375,40.7502
13:07:25.819,8.9375,35.3751
13:07:25.829,7.9375,30.6876
13:07:25.839,6.9375,27.8126
13:07:25.849,6,24.1251
13:07:25.859,4.875,22.4376
13:07:25.869,4.25,17.6876
13:07:25.879,2.625,13.7501
13:07:25.889,0.75,7.5625
13:07:25.899,-0.5625,3.4375
13:07:25.909,-1.4375,0.3125
13:07:25.920,-2.625,-1.9375
13:07:25.930,-2.6875,-3.125
13:07:25.939,-2.0625,-3.25
13:07:25.951,-2.25,-1.75
13:07:25.959,-1.125,-1
13:07:25.969,-1.1875,0.8125
13:07:25.978,-0.125,0.8125
13:07:25.989,-0.6875,2.5
13:07:25.999,-0.0625,0.5
13:07:26.018,-1.9375,-0.5
13:07:26.024,-2.375,-4.625
13:07:26.033,-4.1875,-8.375
13:07:26.039,-5.8125,-12.625
13:07:26.056,-7.875,-18.6876
13:07:26.059,-10,-23.6876
13:07:26.074,-12.3125,-31.0001
13:07:26.080,-14.5626,-36.8126
13:07:26.098,-17.8126,-42.7502
13:07:26.100,-19.6251,-50.3127
13:07:26.115,-21.8126,-56.6252
13:07:26.124,-23.9376,-62.5002
13:07:26.138,-25.9376,-68.5003
13:07:26.140,-27.8126,-72.5003
13:07:26.156,-29.3751,-77.3753
13:07:26.160,-30.2501,-81.2503
13:07:26.169,-32.1251,-83.6253
13:07:26.179,-32.7501,-89.3753
13:07:26.189,-35.4376,-91.3129
13:07:26.199,-35.7501,-96.3754
13:07:26.242,-37.1876,-98.4379
13:07:26.244,-38.6251,-102.1879
13:07:26.244,-39.0626,-104.1879
13:07:26.248,-40.0002,-107.3754
13:07:26.253,-40.3127,-109.0004
13:07:26.261,-42.3752,-111.2504
13:07:26.293,-42.9377,-114.3754
13:07:26.296,-44.1877,-117.563
13:07:26.298,-44.9377,-120.188
13:07:26.300,-46.8752,-123.938
13:07:26.333,-47.6877,-127.063
13:07:26.337,-48.3127,-127.938
13:07:26.338,-43.8752,-119.438
13:07:26.343,-34.6251,-93.6254
13:07:26.369,-20.5626,-57.3127
13:07:26.372,-5,-13.9376
13:07:26.374,8.25,25.8126
13:07:26.380,17.3126,48.6877
13:07:26.390,20.6251,63.8752
13:07:26.399,23.8126,71.1253
13:07:26.409,24.8751,76.2503
13:07:26.419,25.3126,77.3128
13:07:26.428,25.3751,75.7503
13:07:26.439,23.5626,72.5003
13:07:26.450,22.0001,67.2503
13:07:26.459,19.1876,61.9377
13:07:26.469,16.5626,52.8127
13:07:26.479,15.1876,46.1877
13:07:26.489,12.0625,40.0627
13:07:26.499,10.75,32.9376
13:07:26.509,9.125,27.9376
13:07:26.518,7.6875,22.8126
13:07:26.529,6.125,18.7501
13:07:26.539,5,12.8125
13:07:26.549,2.5625,7.3125
13:07:26.559,0.75,0.875
13:07:26.569,-1.3125,-4
13:07:26.579,-2.625,-8.4375
13:07:26.589,-3.375,-10.5
13:07:26.599,-3.375,-11.3125
13:07:26.609,-2.9375,-12.3125
13:07:26.619,-2.1875,-9.1875
13:07:26.629,-1.0625,-8.0625
13:07:26.639,0.625,-3.5625
13:07:26.649,1.4375,-2.25
13:07:26.659,1.875,-0.5
13:07:26.669,2.8125,0.1875
13:07:26.679,1.3125,-1
13:07:26.689,1.4375,-3.6875
13:07:26.699,-1.125,-7.0625
13:07:26.709,-2.6875,-12.5625
13:07:26.719,-4.625,-17.9376
13:07:26.729,-6.6875,-23.6251
13:07:26.739,-9.125,-29.6251
13:07:26.770,-11.0625,-36.8751
13:07:26.773,-14.1251,-42.7502
13:07:26.775,-16.1876,-51.0627
13:07:26.780,-18.6251,-56.3752
13:07:26.789,-21.2501,-61.8127
13:07:26.799,-23.6251,-69.6253
13:07:26.808,-24.7501,-74.0628
13:07:26.819,-26.8751,-78.9378
13:07:26.830,-27.8126,-84.0628
13:07:26.839,-30.3126,-88.3753
13:07:26.849,-31.2501,-92.6879
13:07:26.858,-33.6251,-96.7504
13:07:26.874,-34.6876,-99.9379
13:07:26.879,-35.6251,-102.2504
13:07:26.889,-36.3751,-106.1879
13:07:26.899,-37.4376,-108.3754
13:07:26.934,-38.8126,-109.9379
13:07:26.935,-39.4377,-112.6879
13:07:26.937,-39.6252,-114.5629
13:07:26.940,-41.2502,-115.9379
13:07:26.971,-42.0002,-120.563
13:07:26.974,-43.1877,-123.438
13:07:26.976,-44.7502,-124.313
13:07:27.002,-45.1877,-127.1255
13:07:27.005,-42.5627,-121.688
13:07:27.007,-33.7501,-98.5004
13:07:27.041,-20.2501,-62.6252
13:07:27.043,-3.8125,-18.9376
13:07:27.045,11.625,24.6876
13:07:27.053,22.1251,56.1877
13:07:27.054,28.2501,75.3128
13:07:27.086,30.2501,86.5628
13:07:27.089,32.5626,91.9379
13:07:27.091,33.7501,95.8129
13:07:27.095,33.6251,95.7504
13:07:27.108,33.1876,94.6254
13:07:27.115,30.0626,88.8128
13:07:27.124,28.2501,81.6878
13:07:27.134,26.3751,76.3128
13:07:27.144,23.8751,68.4378
13:07:27.154,22.9376,62.6252
13:07:27.164,20.5001,57.1877
13:07:27.174,19.0626,51.0627
13:07:27.184,18.6876,49.0627
13:07:27.194,17.3126,44.4377
13:07:27.204,15.8751,40.5627
13:07:27.214,14.8126,35.8126
13:07:27.224,12.5625,30.2501
13:07:27.234,11.4375,25.3126
13:07:27.249,8.8125,20.7501
13:07:27.254,8.0625,18.2501
13:07:27.264,7.8125,16.2501
13:07:27.273,7.5625,14.6876
13:07:27.284,8.0625,14.6876
13:07:27.294,8.4375,16.6876
13:07:27.304,9.4375,16.8751
13:07:27.314,9.875,19.2501
13:07:27.324,10.375,20.0001
13:07:27.341,9.9375,20.2501
13:07:27.350,9.5,18.7501
13:07:27.364,8.6875,15.8751
13:07:27.367,7.5,12.0625
13:07:27.374,5.625,8.1875
13:07:27.384,4.375,2.5
13:07:27.393,2.25,-3.625
13:07:27.404,0.1875,-9.75
13:07:27.423,-2.8125,-15.8126
13:07:27.425,-4.375,-23.0626
13:07:27.441,-6.875,-28.5001
13:07:27.445,-8.75,-35.5626
13:07:27.453,-11.0625,-40.5627
13:07:27.464,-12.5625,-46.5627
13:07:27.474,-15.3751,-52.0627
13:07:27.484,-16.6251,-57.6877
13:07:27.494,-19.0626,-62.2502
13:07:27.504,-20.3751,-67.6878
13:07:27.514,-21.9376,-72.1878
13:07:27.525,-24.0626,-75.6253
13:07:27.534,-24.8751,-80.3128
13:07:27.544,-26.8751,-83.5628
13:07:27.554,-27.9376,-86.8128
13:07:27.564,-29.8126,-90.1254
13:07:27.574,-30.3126,-92.7504
13:07:27.584,-30.8126,-93.2504
13:07:27.594,-31.6876,-96.4379
13:07:27.604,-32.0626,-96.7504
13:07:27.614,-33.3126,-99.8129
13:07:27.631,-34.0626,-102.0004
13:07:27.634,-35.0626,-104.3129
13:07:27.644,-36.6876,-108.4379
13:07:27.654,-37.0001,-110.8754
13:07:27.665,-37.6251,-111.5004
13:07:27.674,-35.9376,-104.7504
13:07:27.706,-26.3751,-83.4378
13:07:27.708,-12.5,-44.9377
13:07:27.710,3.5,-1.4375
13:07:27.715,18.8126,39.8127
13:07:27.748,27.5001,71.0628
13:07:27.750,33.1876,87.3753
13:07:27.752,36.7501,98.5004
13:07:27.755,37.6876,106.6254
13:07:27.790,39.3752,108.8129
13:07:27.792,39.9377,110.6254
13:07:27.794,38.3126,108.6254
13:07:27.800,37.3751,104.1254
13:07:27.806,36.1251,99.3129
13:07:27.836,34.3751,93.8129
13:07:27.838,31.0626,87.8753
13:07:27.840,29.1251,80.1253
13:07:27.860,27.8751,75.2503
13:07:27.861,26.1251,69.6253
13:07:27.869,24.6251,66.6253
13:07:27.880,23.7501,63.8127
13:07:27.889,22.9376,60.2502
13:07:27.900,21.8126,55.3752
13:07:27.909,20.3126,51.6877
13:07:27.919,18.1251,45.5627
13:07:27.929,17.0626,42.4377
13:07:27.939,15.4376,36.6251
13:07:27.949,14.7501,33.7501
13:07:27.959,14.8126,32.8126
13:07:27.969,14.1876,31.6251
13:07:27.980,14.5001,31.4376
13:07:27.989,14.3126,34.0626
13:07:28.005,15.5001,33.0001
13:07:28.009,15.8126,34.5001
13:07:28.019,15.4376,33.0626
13:07:28.052,14.6876,32.0626
13:07:28.053,13.6876,27.9376
13:07:28.055,12.625,25.1876
13:07:28.060,10.75,20.5001
13:07:28.069,8.6875,16.6251
13:07:28.079,7,10.3125
13:07:28.089,5.0625,4.9375
13:07:28.099,3.3125,-1.9375
13:07:28.109,1.0625,-7.5625
13:07:28.120,-1,-14.6251
13:07:28.129,-3.625,-20.2501
13:07:28.140,-5.5,-27.5001
13:07:28.149,-7.0625,-32.1251
13:07:28.159,-9.3125,-38.2501
13:07:28.169,-11.4375,-42.8127
13:07:28.179,-13.4376,-49.1877
13:07:28.189,-14.8751,-52.8127
13:07:28.199,-17.1251,-58.6252
13:07:28.209,-17.9376,-62.7502
13:07:28.219,-19.6251,-66.4378
13:07:28.229,-21.6251,-70.8128
13:07:28.239,-22.3751,-73.7503
13:07:28.249,-24.5001,-77.8753
13:07:28.260,-25.1251,-81.3753
13:07:28.269,-26.6876,-84.0003
13:07:28.279,-26.8126,-86.6253
13:07:28.289,-28.2501,-88.5003
13:07:28.299,-29.0626,-91.5004
13:07:28.309,-29.7501,-93.5629
13:07:28.319,-31.6876,-94.8754
13:07:28.329,-32.6251,-99.8129
13:07:28.339,-32.8751,-101.5629
13:07:28.349,-35.9376,-105.5629
13:07:28.360,-37.1251,-110.2504
13:07:28.370,-38.6251,-114.0004
13:07:28.379,-37.9376,-114.8129
13:07:28.389,-36.2501,-108.1254
13:07:28.399,-26.8751,-85.6253
13:07:28.409,-12.6875,-45.8752
13:07:28.419,2.4375,-2.4375
13:07:28.429,17.8126,38.8751
13:07:28.446,27.0001,71.9378
13:07:28.450,33.1876,88.1878
13:07:28.476,36.3126,99.3129
13:07:28.478,37.5001,105.2504
13:07:28.480,38.9376,108.3754
13:07:28.513,39.1877,109.7504
13:07:28.515,37.6251,107.5004
13:07:28.518,36.9376,102.1254
13:07:28.520,35.0001,97.2504
13:07:28.549,32.4376,91.3129
13:07:28.551,29.6251,82.3753
13:07:28.553,27.7501,76.8753
13:07:28.578,25.5626,71.1253
13:07:28.582,24.8126,66.1878
13:07:28.582,23.5626,62.3127
13:07:28.590,22.5001,59.6252
13:07:28.620,22.1251,56.5002
13:07:28.622,20.0626,52.3752
13:07:28.624,18.8126,47.3752
13:07:28.644,16.9376,41.5002
13:07:28.646,15.1876,38.4376
13:07:28.660,14.5626,33.0626
13:07:28.663,13.0625,31.1876
13:07:28.668,13.1251,28.4376
13:07:28.679,12.8125,27.1876
13:07:28.689,13.5626,28.2501
13:07:28.699,13.5626,29.0626
13:07:28.719,14.5001,30.4376
13:07:28.721,14.6876,31.3126
13:07:28.736,14.8751,32.0001
13:07:28.740,15.1251,31.7501
13:07:28.755,13.9376,28.3751
13:07:28.760,12.9375,24.7501
13:07:28.769,11,20.3126
13:07:28.780,8.3125,15.7501
13:07:28.789,6.9375,8.5625
13:07:28.799,4.3125,3.25
13:07:28.810,1.5,-3.8125
13:07:28.820,-0.25,-11.125
13:07:28.829,-2.1875,-18.3126
13:07:28.840,-4.125,-23.6876
13:07:28.849,-6.3125,-30.2501
13:07:28.860,-8.875,-37.3126
13:07:28.870,-11.125,-42.3127
13:07:28.879,-12.8125,-47.1252
13:07:28.888,-14.3126,-52.0002
13:07:28.900,-15.7501,-56.4377
13:07:28.909,-17.8126,-61.8127
13:07:28.919,-18.8751,-64.6252
13:07:28.929,-20.1876,-67.8753
13:07:28.939,-21.3751,-70.9378
13:07:28.949,-22.2501,-75.0628
13:07:28.961,-23.8751,-77.8128
13:07:28.969,-24.5001,-78.6253
13:07:28.980,-25.0626,-81.3128
13:07:28.990,-26.0001,-82.1253
13:07:28.999,-26.3751,-86.0628
13:07:29.009,-27.1876,-85.9378
13:07:29.020,-27.8126,-88.7503
13:07:29.029,-29.3126,-90.8754
13:07:29.039,-30.1251,-94.3754
13:07:29.050,-31.0626,-98.5004
13:07:29.060,-33.8751,-100.7504
13:07:29.069,-33.7501,-102.6879
13:07:29.080,-30.3126,-95.7504
13:07:29.089,-22.4376,-74.1253
13:07:29.100,-9.25,-39.5627
13:07:29.110,5.5625,2.3125
13:07:29.120,19.5001,44.2502
13:07:29.130,29.1876,72.1253
13:07:29.160,33.5001,90.5004
13:07:29.162,37.4376,99.4379
13:07:29.165,38.8751,105.1254
13:07:29.170,39.6877,108.1254
13:07:29.198,39.1876,107.9379
13:07:29.201,38.1876,103.5629
13:07:29.203,37.3126,99.2504
13:07:29.210,34.0626,92.4379
13:07:29.235,31.3126,85.3128
13:07:29.239,28.6876,76.8128
13:07:29.241,25.8751,68.8128
13:07:29.274,24.1251,62.4377
13:07:29.274,21.9376,57.9377
13:07:29.276,21.3751,52.9377
13:07:29.282,19.6251,49.0627
13:07:29.321,17.6876,44.3752
13:07:29.323,16.0001,37.4376
13:07:29.326,13.8126,32.1876
13:07:29.342,12.6875,27.3126
13:07:29.342,11.4375,23.5626
13:07:29.342,11,20.6876
13:07:29.349,10.9375,19.6251
13:07:29.360,11.3125,19.8126
13:07:29.369,11.5625,22.6251
13:07:29.379,12.625,23.4376
13:07:29.389,14.2501,27.0001
13:07:29.402,14.6251,28.4376
13:07:29.409,14.1876,29.8126
13:07:29.419,14.9376,28.9376
13:07:29.429,14.0626,26.6251
13:07:29.440,11.75,25.1251
13:07:29.450,10.875,19.9376
13:07:29.458,9.0625,15.3751
13:07:29.469,7.1875,8.625
13:07:29.480,4.9375,2.4375
13:07:29.490,2.625,-3.6875
13:07:29.505,0.6875,-11.6875
13:07:29.509,-1.8125,-17.9376
13:07:29.520,-4,-24.8751
13:07:29.529,-6.125,-30.3751
13:07:29.540,-7.8125,-36.6251
13:07:29.549,-9.625,-41.7502
13:07:29.559,-11.625,-46.9377
13:07:29.569,-12.625,-51.2502
13:07:29.578,-14.3751,-55.9377
13:07:29.590,-15.5626,-59.3752
13:07:29.600,-17.5001,-63.6877
13:07:29.610,-19.1251,-65.9378
13:07:29.619,-19.6251,-69.5628
13:07:29.629,-20.3126,-72.7503
13:07:29.640,-21.3126,-73.6253
13:07:29.650,-21.6251,-76.3753
13:07:29.659,-23.2501,-78.0628
13:07:29.670,-23.7501,-80.2503
13:07:29.680,-25.1251,-82.6253
13:07:29.689,-25.5001,-84.8753
13:07:29.700,-26.5626,-88.6878
13:07:29.710,-27.8126,-91.0004
13:07:29.718,-29.9376,-94.8754
13:07:29.729,-30.1251,-96.6879
13:07:29.740,-29.3126,-93.7504
13:07:29.749,-23.4376,-78.5003
13:07:29.759,-11.4375,-47.3752
13:07:29.770,3.3125,-6.75
13:07:29.779,17.3126,32.0001
13:07:29.790,28.8126,66.4378
13:07:29.799,35.0001,87.3128
13:07:29.810,37.7501,99.0004
13:07:29.820,40.2502,105.4379
13:07:29.829,41.8127,111.1254
13:07:29.840,42.3127,112.5629
13:07:29.850,41.8752,110.8129
13:07:29.860,41.1252,108.1254
13:07:29.868,38.3126,102.8754
13:07:29.884,36.1876,95.8129
13:07:29.889,34.2501,89.8128
13:07:29.923,31.3126,82.6253
13:07:29.924,29.8751,76.5628
13:07:29.956,28.2501,71.3753
13:07:29.959,26.1876,67.5003
13:07:29.964,25.5001,64.2502
13:07:29.964,24.3751,60.1877
13:07:29.970,22.9376,55.3752
13:07:30.005,20.7501,49.9377
13:07:30.006,17.8126,43.8752
13:07:30.022,16.5001,38.0626
13:07:30.024,15.4376,33.0626
13:07:30.058,14.3126,31.1876
13:07:30.060,13.8751,28.3751
13:07:30.063,13.3126,28.0626
13:07:30.068,14.0001,28.0001
13:07:30.069,14.1876,29.0626
13:07:30.069,14.2501,30.1251
13:07:30.080,14.9376,31.8751
13:07:30.090,14.9376,30.9376
13:07:30.100,15.1876,30.1876
13:07:30.110,13.8751,27.2501
13:07:30.120,12.3125,24.0001
13:07:30.129,8.625,15.9376
13:07:30.139,7.3125,9.1875
13:07:30.149,4.5,3.25
13:07:30.160,2.125,-4.0625
13:07:30.170,0,-11.5
13:07:30.179,-2.375,-17.5001
13:07:30.189,-4.125,-23.5626
13:07:30.200,-6.625,-30.2501
13:07:30.210,-8.9375,-35.6251
13:07:30.220,-10.125,-41.3752
13:07:30.230,-11.8125,-45.9377
13:07:30.241,-13.2501,-51.0627
13:07:30.250,-14.6876,-55.6252
13:07:30.265,-16.6251,-59.5002
13:07:30.270,-17.0626,-62.9377
13:07:30.281,-19.2501,-66.5003
13:07:30.290,-19.9376,-70.2503
13:07:30.300,-21.6251,-73.9378
13:07:30.310,-22.0626,-76.0003
13:07:30.321,-24.0001,-79.2503
13:07:30.331,-24.6251,-81.0003
13:07:30.339,-25.0626,-82.7503
13:07:30.350,-25.8126,-85.6878
13:07:30.359,-26.1251,-87.0628
13:07:30.371,-28.2501,-88.0003
13:07:30.380,-28.1876,-90.2504
13:07:30.389,-28.8751,-93.6254
13:07:30.400,-30.0626,-96.6254
13:07:30.410,-32.0626,-100.0004
13:07:30.420,-33.3751,-101.3129
13:07:30.430,-32.0626,-99.8129
13:07:30.440,-26.1251,-85.8128
13:07:30.450,-14.8126,-56.0002
13:07:30.459,-0.1875,-15.3751
13:07:30.471,14.6876,26.3751
13:07:30.479,27.0001,63.5627
13:07:30.490,34.8126,87.5628
13:07:30.500,39.0626,100.2504
13:07:30.510,41.6877,110.1879
13:07:30.520,43.9377,115.6254
13:07:30.530,43.8127,118.938
13:07:30.554,44.2502,116.4379
13:07:30.556,43.5002,114.8754
13:07:30.560,40.8127,110.8129
13:07:30.602,39.4377,104.8129
13:07:30.603,36.6876,98.5004
13:07:30.606,35.3751,92.5629
13:07:30.620,33.5001,86.7503
13:07:30.625,31.1876,82.2503
13:07:30.625,30.6251,79.9378
13:07:30.630,29.6876,77.0003
13:07:30.664,29.6251,75.5628
13:07:30.665,28.0001,71.1878
13:07:30.667,26.0626,67.6253
13:07:30.670,24.5001,61.1252
13:07:30.705,22.4376,55.6877
13:07:30.707,20.7501,50.6877
13:07:30.710,19.6251,46.2502
13:07:30.715,18.5001,44.1252
13:07:30.720,17.7501,41.0002
13:07:30.734,18.3126,41.6252
13:07:30.739,18.3126,41.1252
13:07:30.750,17.8751,41.7502
13:07:30.759,17.6251,41.3127
13:07:30.769,18.1876,41.0627
13:07:30.779,17.5001,41.3752
13:07:30.790,18.0001,38.8126
13:07:30.800,15.5001,36.3126
13:07:30.812,14.7501,32.1876
13:07:30.820,13.3126,27.4376
13:07:30.829,11.25,22.8751
13:07:30.840,9.375,16.3126
13:07:30.849,6.9375,9.4375
13:07:30.860,4.5,3.9375
13:07:30.870,2.75,-3.6875
13:07:30.880,0.75,-9
13:07:30.890,-1.1875,-15.6251
13:07:30.901,-2.4375,-20.4376
13:07:30.910,-4,-25.6876
13:07:30.920,-3.6875,-28.5626
13:07:30.930,-3.5,-29.7501
13:07:30.941,-1.1875,-28.3751
13:07:30.950,1.625,-26.0626
13:07:30.962,6.1875,-17.0001
13:07:30.971,8.375,-11.6875
13:07:30.980,10.0625,-5.6875
13:07:30.990,12.1875,-0.375
13:07:31.005,14.8126,5.875
13:07:31.014,17.8126,13.1251
13:07:31.025,22.1876,20.0626
13:07:31.035,25.7501,29.5626
13:07:31.045,31.0001,36.4376
13:07:31.055,31.1251,39.2502
13:07:31.065,31.3126,37.1876
13:07:31.075,29.3751,33.6251
13:07:31.086,26.3751,28.3126
13:07:31.095,24.4376,22.3126
13:07:31.106,22.6876,17.2501
13:07:31.116,20.7501,11.3125
13:07:31.125,18.6251,4.9375
13:07:31.135,16.8751,-1.0625
13:07:31.145,15.4376,-5.1875
13:07:31.155,16.8751,-3.3125
13:07:31.166,26.1251,22.0001
13:07:31.175,37.3126,53.0627
13:07:31.186,47.6877,82.5003
13:07:31.195,54.1252,104.7504
13:07:31.205,58.6877,118.1255
13:07:31.215,61.1252,129.7505
13:07:31.235,62.9377,137.813
13:07:31.242,63.6252,141.7505
13:07:31.257,63.4377,145.563
13:07:31.258,63.3127,144.1255
13:07:31.265,61.4377,141.3755
13:07:31.277,59.6252,137.313
13:07:31.286,58.3752,131.0005
13:07:31.323,55.1252,124.6255
13:07:31.325,52.6877,117.938
13:07:31.363,50.5002,110.5629
13:07:31.366,48.8127,105.5629
13:07:31.368,47.6252,101.0004
13:07:31.372,45.5627,98.1254
13:07:31.374,45.4377,93.0004
13:07:31.374,43.3127,90.1878
13:07:31.380,41.3752,84.9378
13:07:31.409,39.6877,78.4378
13:07:31.412,36.7501,72.3753
13:07:31.413,34.5001,66.2503
13:07:31.441,32.3751,62.8752
13:07:31.444,31.3126,60.1877
13:07:31.445,30.9376,57.5002
13:07:31.452,30.8126,57.6252
13:07:31.480,31.3126,57.8752
13:07:31.483,30.2501,58.7502
13:07:31.484,30.1251,59.5627
13:07:31.499,30.5626,60.0627
13:07:31.501,30.0001,59.1877
13:07:31.510,29.5626,58.1877
13:07:31.520,28.8126,56.8127
13:07:31.530,28.4376,55.1252
13:07:31.541,26.3751,49.1252
13:07:31.550,22.1251,42.0002
13:07:31.561,17.9376,33.1251
13:07:31.570,15.7501,26.4376
13:07:31.580,14.3126,21.3126
13:07:31.590,12.0625,15.3751
13:07:31.601,10.1875,9.3125
13:07:31.610,8.75,5.375
13:07:31.620,8.9375,2.375
13:07:31.630,8.5625,0.3125
13:07:31.640,8.5,-3.5
13:07:31.651,7.375,-6.5
13:07:31.660,6.375,-9.5
13:07:31.670,4.875,-14.3126
13:07:31.680,3.8125,-16.2501
13:07:31.690,2.8125,-19.3751
13:07:31.700,2.4375,-22.3126
13:07:31.710,1.8125,-24.0626
13:07:31.721,1.25,-25.0626
13:07:31.730,2.0625,-25.8751
13:07:31.741,2.375,-25.8126
13:07:31.750,3,-25.8751
13:07:31.760,3.4375,-26.3126
13:07:31.770,4.8125,-25.5001
13:07:31.780,5.0625,-24.4376
13:07:31.790,5.3125,-25.6251
13:07:31.800,5.6875,-28.1251
13:07:31.810,3.5,-31.1876
13:07:31.820,3.125,-35.1251
13:07:31.830,-0.0625,-40.1877
13:07:31.841,-2.3125,-46.6252
13:07:31.855,-3.3125,-53.0002
13:07:31.866,-3.3125,-51.1877
13:07:31.892,1.875,-40.3752
13:07:31.895,9.9375,-15.2501
13:07:31.896,21.4376,16.1251
13:07:31.906,32.4376,46.8752
13:07:31.917,38.1876,66.6253
13:07:31.925,42.0002,81.7503
13:07:31.935,45.5627,89.8128
13:07:31.945,46.8752,96.5629
13:07:31.955,47.7502,97.3129
13:07:31.965,46.5627,97.2504
13:07:31.975,45.6252,95.1879
13:07:31.985,43.5627,89.5003
13:07:31.995,41.5627,84.1878
13:07:32.007,37.9376,73.9378
13:07:32.038,33.4376,63.1252
13:07:32.041,30.3126,55.8127
13:07:32.041,28.6876,47.5002
13:07:32.046,25.8126,42.0002
13:07:32.077,24.1876,37.0626
13:07:32.079,22.3751,31.5001
13:07:32.083,19.9376,26.7501
13:07:32.087,17.8751,20.3751
13:07:32.114,15.3126,14.8751
13:07:32.116,14.0626,9.75
13:07:32.119,11.6875,6.4375
13:07:32.125,10.9375,5.375
13:07:32.168,11.125,3.125
13:07:32.169,10.6875,3.625
13:07:32.172,11.875,5.5
13:07:32.176,12.1875,7.25
13:07:32.177,13.3751,10.75
13:07:32.188,13.9376,13.2501
13:07:32.196,14.5001,14.4376
13:07:32.205,14.1876,14.8751
13:07:32.215,14.2501,15.3751
13:07:32.225,13.4376,14.0626
13:07:32.236,13,12.5625
13:07:32.245,12.1875,9.9375
13:07:32.256,10.5625,7.375
13:07:32.266,9.75,5.0625
13:07:32.281,6.9375,0.875
13:07:32.286,2.625,-6.0625
13:07:32.296,1,-11.5
13:07:32.306,-0.375,-16.8126
13:07:32.316,-2,-20.4376
13:07:32.325,-3.125,-24.9376
13:07:32.335,-3.625,-27.6876
13:07:32.345,-3.4375,-30.6876
13:07:32.356,-3.875,-32.6251
13:07:32.365,-4.1875,-34.0001
13:07:32.375,-3.8125,-36.6876
13:07:32.385,-4.125,-38.1251
13:07:32.395,-4.125,-39.0626
13:07:32.406,-4,-41.5002
13:07:32.415,-5.25,-43.0002
13:07:32.425,-5.375,-44.1252
13:07:32.435,-6.0625,-45.8127
13:07:32.445,-5.3125,-46.6877
13:07:32.456,-5.4375,-47.3127
13:07:32.465,-5.125,-47.3752
13:07:32.475,-5.125,-47.1252
13:07:32.485,-5.125,-48.9377
13:07:32.495,-4.3125,-48.6877
13:07:32.505,-4.625,-48.9377
13:07:32.517,-2.9375,-49.5002
13:07:32.537,-0.625,-44.5002
13:07:32.543,4,-31.5001
13:07:32.545,12.9375,-8.25
13:07:32.561,24.3126,23.1251
13:07:32.565,32.7501,49.8127
13:07:32.575,38.5626,69.4378
13:07:32.585,42.2502,82.3128
13:07:32.595,44.8752,91.8129
13:07:32.619,46.2502,99.0004
13:07:32.620,46.3752,103.0629
13:07:32.635,47.3752,104.6254
13:07:32.637,45.3127,103.5004
13:07:32.646,44.4377,98.5004
13:07:32.662,41.1252,93.5004
13:07:32.665,38.5001,86.3753
13:07:32.675,36.1251,77.7503
13:07:32.685,32.4376,70.4378
13:07:32.695,29.8751,61.6252
13:07:32.707,28.0001,52.8127
13:07:32.717,25.6876,47.0002
13:07:32.726,23.5001,42.3752
13:07:32.736,20.9376,36.2501
13:07:32.745,18.2501,29.7501
13:07:32.755,16.4376,20.9376
13:07:32.766,12.1875,12.8125
13:07:32.775,9.6875,4.375
13:07:32.793,7.3125,-2.9375
13:07:32.795,5,-8.1875
13:07:32.824,3.5625,-12.25
13:07:32.825,2.125,-14.1251
13:07:32.828,2.0625,-14.1876
13:07:32.835,2,-12
13:07:32.869,3.1875,-9.75
13:07:32.873,3.75,-7.8125
13:07:32.873,3.5,-4.9375
13:07:32.877,4.0625,-5.125
13:07:32.905,2.9375,-5.9375
13:07:32.906,1.4375,-8.6875
13:07:32.909,0.25,-12.1875
13:07:32.942,-1.5625,-16.1876
13:07:32.945,-3.0625,-20.0001
13:07:32.946,-4.9375,-22.8126
13:07:32.952,-5.9375,-27.2501
13:07:32.956,-6.6875,-31.1251
13:07:32.966,-7.875,-32.6251
13:07:32.975,-8.0625,-35.8126
13:07:32.985,-9.3125,-36.8126
13:07:32.995,-9.75,-39.4377
13:07:33.005,-11.3125,-40.7502
13:07:33.017,-14.0001,-47.7502
13:07:33.025,-16.1251,-49.3752
13:07:33.035,-15.4376,-52.4377
13:07:33.045,-16.3126,-53.6252
13:07:33.056,-16.4376,-56.9377
13:07:33.066,-16.9376,-59.5002
13:07:33.076,-16.6251,-60.0627
13:07:33.085,-16.1876,-60.1252
13:07:33.096,-15.6251,-60.8752
13:07:33.105,-15.3751,-61.1252
13:07:33.115,-14.8126,-61.6877
13:07:33.125,-14.5626,-60.5627
13:07:33.135,-13.1251,-60.8127
13:07:33.145,-11.875,-58.0002
13:07:33.170,-10.3125,-56.9377
13:07:33.173,-9.5,-54.6252
13:07:33.175,-8.375,-53.8127
13:07:33.185,-6.5,-52.1877
13:07:33.197,-6.375,-50.5627
13:07:33.205,-3.9375,-47.9377
13:07:33.215,-0.75,-40.0627
13:07:33.225,5.9375,-23.5626
13:07:33.235,16.1251,4.25
13:07:33.245,26.3126,33.5626
13:07:33.256,34.4376,60.9377
13:07:33.266,39.1877,77.0628
13:07:33.276,42.5002,89.6253
13:07:33.287,44.8752,100.1254
13:07:33.295,46.5002,105.1879
13:07:33.305,45.5627,109.1254
13:07:33.315,45.6877,108.1879
13:07:33.325,43.6252,106.6254
13:07:33.335,41.8752,101.2504
13:07:33.345,38.8751,95.5629
13:07:33.356,36.8126,87.6878
13:07:33.365,33.0001,81.0003
13:07:33.375,30.8751,71.8128
13:07:33.386,28.0626,64.0627
13:07:33.396,25.8751,57.5002
13:07:33.409,23.3126,51.5002
13:07:33.415,21.6251,44.5002
13:07:33.425,19.0626,40.4377
13:07:33.436,17.1251,34.1876
13:07:33.445,14.6251,26.5626
13:07:33.455,11.4375,19.2501
13:07:33.465,7.75,9.625
13:07:33.475,5.3125,2.75
13:07:33.486,1.8125,-4.1875
13:07:33.496,-1.0625,-9.25
13:07:33.505,-3.1875,-12.625
13:07:33.538,-4.875,-16.3751
13:07:33.539,-5.375,-15.9376
13:07:33.543,-5.625,-14.6876
13:07:33.549,-5.8125,-15.5626
13:07:33.576,-5.8125,-12.75
13:07:33.577,-5.625,-13.4376
13:07:33.580,-6.75,-13.5626
13:07:33.585,-7.6875,-13.8751
13:07:33.599,-7.5625,-16.5001
13:07:33.605,-9,-16.8751
13:07:33.635,-10,-20.0001
13:07:33.638,-11.25,-22.4376
13:07:33.640,-12.4375,-25.6876
13:07:33.647,-14.0001,-29.3751
13:07:33.685,-15.1876,-30.6876
13:07:33.686,-15.9376,-34.9376
13:07:33.689,-15.7501,-35.1876
13:07:33.700,-15.8751,-36.8126
13:07:33.700,-17.1876,-38.6251
13:07:33.709,-19.3751,-41.4377
13:07:33.715,-21.0001,-45.7502
13:07:33.726,-19.8751,-45.8127
13:07:33.735,-19.7501,-47.7502
13:07:33.746,-19.0001,-49.2502
13:07:33.755,-17.9376,-50.2502
13:07:33.765,-17.6251,-50.2502
13:07:33.775,-16.5626,-50.1877
13:07:33.785,-15.2501,-48.9377
13:07:33.795,-14.1876,-48.2502
13:07:33.805,-13.8751,-47.8127
13:07:33.815,-13.6251,-45.0002
13:07:33.837,-11.5625,-44.2502
13:07:33.840,-9.75,-39.8127
13:07:33.856,-6.9375,-35.4376
13:07:33.858,-5.0625,-33.0001
13:07:33.872,-3.3125,-30.0001
13:07:33.878,-2.0625,-28.0626
13:07:33.885,-0.6875,-26.2501
13:07:33.895,0.75,-26.1251
13:07:33.914,-0.5,-28.6251
13:07:33.916,-3.75,-31.5001
13:07:33.937,-5.0625,-38.2501
13:07:33.939,-6.9375,-39.6252
13:07:33.949,-4.4375,-32.8126
13:07:33.955,2.125,-15.0001
13:07:33.965,10.75,12.375
13:07:33.975,18.6251,36.2501
13:07:33.987,23.5626,55.6877
13:07:33.996,27.5001,67.8753
13:07:34.005,30.2501,75.2503
13:07:34.015,30.8126,80.2503
13:07:34.027,31.8126,83.0003
13:07:34.036,31.5001,82.8753
13:07:34.045,30.8751,79.8753
13:07:34.055,29.1251,75.3753
13:07:34.065,25.8751,67.8753
13:07:34.075,22.9376,60.6877
13:07:34.085,19.6876,52.7502
13:07:34.095,16.8751,44.2502
13:07:34.105,14.7501,38.9376
13:07:34.116,11.875,31.9376
13:07:34.125,9.4375,26.8751
13:07:34.135,7.1875,24.0626
13:07:34.145,5.5625,19.0001
13:07:34.161,2.9375,14.0626
13:07:34.166,0.9375,9.75
13:07:34.177,-2.0625,4.8125
13:07:34.185,-4.75,-0.1875
13:07:34.195,-5.5625,-5.5
13:07:34.205,-7.625,-8.75
13:07:34.215,-8.9375,-10.5
13:07:34.225,-9.5625,-13.3126
13:07:34.243,-9.6875,-13.3126
13:07:34.246,-8.6875,-11.125
13:07:34.273,-9.125,-8.375
13:07:34.275,-8.8125,-5.5625
13:07:34.280,-7,-3.125
13:07:34.286,-7.125,0.0625
13:07:34.317,-6.25,1.4375
13:07:34.320,-5.75,2.4375
13:07:34.322,-6,2.875
13:07:34.328,-5.375,1.375
13:07:34.353,-8.125,-1.4375
13:07:34.355,-11.0625,-7.0625
13:07:34.358,-11.625,-10.125
13:07:34.390,-11.6875,-14.1876
13:07:34.393,-10.75,-15.0001
13:07:34.395,-10.5625,-18.0626
13:07:34.402,-8.1875,-17.4376
13:07:34.409,-7.625,-17.3751
13:07:34.415,-6.375,-18.2501
13:07:34.425,-6.875,-18.8751
13:07:34.452,-7.125,-21.6251
13:07:34.455,-8.6875,-23.5001
13:07:34.456,-10.0625,-25.5626
13:07:34.466,-11.4375,-26.7501
13:07:34.476,-9.875,-27.9376
13:07:34.485,-8.875,-26.3751
13:07:34.495,-8.125,-26.5626
13:07:34.505,-6.25,-25.5001
13:07:34.515,-5.6875,-24.0001
13:07:34.525,-3.5,-23.5001
13:07:34.540,-1.625,-22.3126
13:07:34.545,-2.25,-24.0626
13:07:34.557,-3.25,-26.3751
13:07:34.566,-5.625,-31.3751
13:07:34.575,-7.1875,-36.8751
13:07:34.585,-9.875,-44.4377
13:07:34.595,-12.5625,-51.2502
13:07:34.605,-15.2501,-59.9377
13:07:34.615,-19.0001,-67.9378
13:07:34.625,-21.9376,-77.6253
13:07:34.635,-26.1251,-86.4378
13:07:34.645,-28.1251,-95.1879
13:07:34.655,-28.8126,-94.4379
13:07:34.665,-23.0626,-82.5628
13:07:34.675,-12.8125,-53.1877
13:07:34.685,0.3125,-18.8126
13:07:34.695,12.4375,16.8126
13:07:34.705,21.1876,42.9377
13:07:34.715,25.1251,57.3752
13:07:34.725,29.5626,67.1253
13:07:34.735,31.9376,70.4378
13:07:34.745,31.6876,70.0003
13:07:34.755,30.6251,65.1252
13:07:34.765,28.3126,60.3752
13:07:34.775,23.3751,51.0002
13:07:34.787,17.2501,40.6252
13:07:34.796,11.75,30.3126
13:07:34.805,5.1875,19.8126
13:07:34.816,-0.25,9
13:07:34.826,-3.9375,-0.3125
13:07:34.836,-7.9375,-6.6875
13:07:34.846,-9.1875,-12
13:07:34.856,-11.125,-13.3126
13:07:34.866,-12.5625,-17.3751
13:07:34.876,-14.4376,-20.3126
13:07:34.886,-15.5626,-25.1251
13:07:34.895,-17.0626,-28.4376
13:07:34.905,-18.2501,-31.6251
13:07:34.915,-18.5626,-31.2501
13:07:34.925,-17.7501,-31.2501
13:07:34.935,-16.6251,-28.5001
13:07:34.945,-15.0626,-26.0626
13:07:34.982,-13.9376,-22.1251
13:07:34.985,-12.5,-18.3126
13:07:34.986,-11.1875,-14.4376
13:07:34.989,-8.5625,-10.5625
13:07:34.996,-7.5625,-8.125
13:07:35.028,-7.0625,-7.0625
13:07:35.030,-8.375,-7.9375
13:07:35.031,-11.5625,-11.4375
13:07:35.083,-12.1875,-15.3751
13:07:35.083,-12.5625,-16.8751
13:07:35.083,-12,-19.1251
13:07:35.084,-12.125,-21.3126
13:07:35.092,-11.3125,-22.7501
13:07:35.092,-11,-22.2501
13:07:35.095,-8.875,-23.6251
13:07:35.124,-8.8125,-23.5626
13:07:35.126,-10.1875,-26.3751
13:07:35.143,-9.4375,-27.6251
13:07:35.158,-11.8125,-30.6876
13:07:35.160,-12.0625,-33.9376
13:07:35.168,-13.9376,-36.1876
13:07:35.168,-15.1876,-38.3126
13:07:35.175,-14.4376,-40.8127
13:07:35.185,-15.0001,-40.5627
13:07:35.195,-13.5001,-42.8127
13:07:35.205,-14.3751,-43.1877
13:07:35.224,-13.8126,-44.8127
13:07:35.226,-13.8126,-44.1252
13:07:35.240,-12.9375,-46.3127
13:07:35.247,-12.5,-47.8752
13:07:35.255,-13.5001,-49.5627
13:07:35.265,-15.5626,-55.0002
13:07:35.275,-18.6251,-59.6877
13:07:35.294,-20.8751,-67.5003
13:07:35.295,-23.0001,-75.0003
13:07:35.306,-25.9376,-79.6253
13:07:35.316,-26.9376,-81.8128
13:07:35.325,-24.4376,-74.7503
13:07:35.336,-17.7501,-55.6252
13:07:35.345,-7.3125,-27.8751
13:07:35.355,2.4375,4.5
13:07:35.365,10.75,28.5626
13:07:35.375,15.1251,45.3752
13:07:35.386,18.7501,55.3752
13:07:35.395,20.5626,60.8127
13:07:35.405,21.0001,64.3127
13:07:35.415,19.8751,63.8127
13:07:35.425,19.3126,61.3127
13:07:35.436,17.2501,56.8127
13:07:35.445,15.0626,50.3127
13:07:35.455,12.625,42.6252
13:07:35.466,9.1875,35.8751
13:07:35.475,6.875,27.8751
13:07:35.485,4.8125,22.7501
13:07:35.495,3.375,17.1876
13:07:35.505,2.3125,14.3126
13:07:35.515,1.5625,13.1876
13:07:35.525,0.9375,9.875
13:07:35.535,-0.1875,8.125
13:07:35.545,-1.125,3.1875
13:07:35.556,-2.625,0
13:07:35.566,-5,-5.8125
13:07:35.575,-6.125,-9.4375
13:07:35.585,-6.6875,-11.875
13:07:35.595,-7.875,-13.8751
13:07:35.605,-7.375,-14.5626
13:07:35.615,-7.8125,-14.0626
13:07:35.628,-7.125,-11.75
13:07:35.635,-5.5625,-9.75
13:07:35.653,-4.25,-6.75
13:07:35.655,-3.375,-3.3125
13:07:35.695,-3,-2.5625
13:07:35.697,-2.0625,-0.6875
13:07:35.699,-4.8125,-4.25
13:07:35.702,-6.625,-8.4375
13:07:35.706,-8.5,-10.875
13:07:35.731,-8.75,-15.0626
13:07:35.733,-9.5625,-15.8126
13:07:35.737,-9.3125,-18.5001
13:07:35.760,-8.3125,-20.5626
13:07:35.762,-8.1875,-20.7501
13:07:35.789,-7.875,-22.5626
13:07:35.793,-6.25,-22.1251
13:07:35.793,-6.375,-20.4376
13:07:35.795,-5.6875,-23.6876
13:07:35.827,-5.9375,-24.6251
13:07:35.829,-8,-27.3751
13:07:35.831,-8.75,-30.1876
13:07:35.841,-9.4375,-31.5001
13:07:35.850,-9.4375,-34.6876
13:07:35.861,-9.6875,-35.6876
13:07:35.870,-10.4375,-36.5001
13:07:35.880,-10.0625,-38.1876
13:07:35.891,-9.375,-39.1876
13:07:35.900,-9.625,-39.5627
13:07:35.911,-9.1875,-41.8752
13:07:35.920,-9,-41.6877
13:07:35.931,-9.4375,-43.3752
13:07:35.943,-9.375,-45.3127
13:07:35.951,-11.0625,-48.5627
13:07:35.960,-13.3126,-54.8127
13:07:35.971,-15.8751,-59.9377
13:07:35.980,-18.4376,-67.7503
13:07:35.990,-20.7501,-73.3128
13:07:36.000,-22.8126,-79.0003
13:07:36.011,-22.6251,-79.6253
13:07:36.020,-15.7501,-59.7502
13:07:36.031,-5.5,-31.6251
13:07:36.042,5,1.1875
13:07:36.051,13.6251,29.8126
13:07:36.061,18.5626,46.3752
13:07:36.071,21.4376,58.1252
13:07:36.080,22.8126,63.3127
13:07:36.091,23.9376,68.3128
13:07:36.100,24.0626,67.9378
13:07:36.110,22.8126,67.1878
13:07:36.120,21.6876,63.1252
13:07:36.130,20.5626,60.3752
13:07:36.141,19.0001,54.3127
13:07:36.150,16.6251,49.3752
13:07:36.161,15.0001,44.1877
13:07:36.170,13.1876,41.6252
13:07:36.181,12.6875,38.5626
13:07:36.191,12.875,39.0001
13:07:36.202,12.8125,37.3751
13:07:36.213,12.25,37.1251
13:07:36.223,12.6875,36.3126
13:07:36.233,10.9375,33.6876
13:07:36.242,10.125,30.5001
13:07:36.251,9,24.7501
13:07:36.260,7.6875,22.1876
13:07:36.270,6.5625,19.0626
13:07:36.281,6.5,17.6876
13:07:36.290,6.6875,15.9376
13:07:36.301,6.875,15.6251
13:07:36.310,5.375,14.7501
13:07:36.321,4.0625,13.3751
13:07:36.330,4.75,14.1876
13:07:36.341,5.4375,15.7501
13:07:36.350,6.25,16.3751
13:07:36.361,6.9375,17.7501
13:07:36.372,8.5625,17.8751
13:07:36.381,8.5625,19.0626
13:07:36.392,9.25,19.0626
13:07:36.402,10.5,17.9376
13:07:36.427,9.5,17.1876
13:07:36.429,8.125,14.7501
13:07:36.530,6.8125,10.125
13:07:36.588,5.75,7
13:07:36.602,5.5,3.875
13:07:36.602,2.75,-0.125
13:07:36.602,1.5,-3.6875
13:07:36.604,-0.6875,-7
13:07:36.620,-1.625,-10.375
13:07:36.623,-4.0625,-13.3751
13:07:36.623,-5.1875,-16.9376
13:07:36.623,-7.75,-20.4376
13:07:36.631,-10.125,-23.2501
13:07:36.642,-11.1875,-27.3126
13:07:36.651,-13.4376,-30.0001
13:07:36.662,-15.3126,-32.4376
13:07:36.673,-16.1251,-35.6251
13:07:36.681,-16.8751,-35.3126
13:07:36.691,-17.6876,-37.2501
13:07:36.701,-17.1251,-37.5001
13:07:36.710,-18.1876,-38.8751
13:07:36.720,-20.6876,-43.6877
13:07:36.731,-21.6876,-48.3752
13:07:36.740,-24.1876,-60.2502
13:07:36.751,-25.2501,-62.5627
13:07:36.761,-27.2501,-65.2502
13:07:36.771,-26.2501,-63.2502
13:07:36.782,-21.6251,-49.3752
13:07:36.793,14.6876,67.0628
13:07:36.800,17.6251,76.5003
13:07:36.810,20.6251,83.3128
13:07:36.821,23.3751,88.1253
13:07:36.830,24.4376,91.7504
13:07:36.841,26.1251,91.9379
13:07:36.850,26.7501,92.3754
13:07:36.861,26.4376,91.1254
13:07:36.871,26.8126,89.1878
13:07:36.881,26.5001,87.8128
13:07:36.891,26.0001,84.8753
13:07:36.902,26.7501,84.3128
13:07:36.913,25.7501,84.1253
13:07:36.923,26.2501,82.6253
13:07:36.932,26.5626,81.6878
13:07:36.940,25.8126,79.8753
13:07:36.950,25.2501,78.5628
13:07:36.961,24.3126,74.8128
13:07:36.971,23.6876,71.3128
13:07:36.981,21.6251,67.3128
13:07:37.010,21.0626,63.5627
13:07:37.013,19.1876,60.1877
13:07:37.016,18.8126,57.0002
13:07:37.021,18.1876,55.0002
13:07:37.032,17.1251,54.0627
13:07:37.042,17.2501,52.6877
13:07:37.053,17.0001,52.8127
13:07:37.065,17.1251,51.0627
13:07:37.071,16.0626,50.4377
13:07:37.081,15.0626,49.0002
13:07:37.091,14.6251,45.6877
13:07:37.100,14.0626,43.6877
13:07:37.111,13.0625,40.3752
13:07:37.120,11.0625,36.8126
13:07:37.130,9.5,33.0001
13:07:37.142,8.125,27.3751
13:07:37.150,5.5625,23.1251
13:07:37.161,2.25,13.8751
13:07:37.170,-2.3125,6.3125
13:07:37.197,-5.4375,-2.25
13:07:37.200,-10.125,-9.75
13:07:37.203,-13.2501,-19.2501
13:07:37.232,-17.8751,-27.1876
13:07:37.235,-20.6876,-35.8751
13:07:37.237,-24.8751,-42.8127
13:07:37.243,-29.1251,-52.0002
13:07:37.269,-33.2501,-61.2502
13:07:37.270,-37.5626,-69.3753
13:07:37.273,-40.6877,-78.2503
13:07:37.301,-43.7502,-85.6253
13:07:37.304,-46.9377,-92.3129
13:07:37.306,-51.0627,-99.3754
13:07:37.311,-53.3752,-107.1254
13:07:37.335,-56.5002,-112.6254
13:07:37.339,-58.4377,-117.4379
13:07:37.341,-60.1252,-122.5005
13:07:37.372,-61.4377,-126.1255
13:07:37.372,-64.9377,-131.2505
13:07:37.374,-66.8753,-136.688
13:07:37.381,-69.1878,-140.5005
13:07:37.393,-71.3753,-146.7505
13:07:37.403,-73.0003,-151.1256
13:07:37.411,-76.1878,-155.4381
13:07:37.420,-77.7503,-163.2506
13:07:37.431,-81.1253,-168.3131
13:07:37.441,-82.3128,-174.2507
13:07:37.452,-82.1253,-174.3757
13:07:37.461,-78.8128,-164.9381
13:07:37.473,-68.8128,-137.7505
13:07:37.481,-55.0627,-98.5004
13:07:37.491,-40.5627,-59.5002
13:07:37.501,-26.0001,-18.8751
13:07:37.511,-16.7501,8.4375
13:07:37.523,-11.0625,25.5001
13:07:37.531,-9.5625,35.5626
13:07:37.541,-7.375,37.3751
13:07:37.552,-6.125,39.0626
13:07:37.562,-7.8125,37.0001
13:07:37.574,-8.375,32.6251
13:07:37.581,-10,28.2501
13:07:37.592,-11.5,22.3751
13:07:37.601,-12.5,17.0001
13:07:37.611,-14.5626,10.0625
13:07:37.621,-15.4376,5.9375
13:07:37.632,-16.8126,3.125
13:07:37.643,-16.0626,0.4375
13:07:37.653,-17.0001,-0.375
13:07:37.661,-17.1876,-3.125
13:07:37.671,-16.8126,-5.1875
13:07:37.681,-18.2501,-9.0625
13:07:37.691,-18.4376,-13.1251
13:07:37.701,-20.2501,-17.4376
13:07:37.712,-20.8751,-23.1251
13:07:37.723,-22.1876,-26.6876
13:07:37.730,-22.6876,-29.4376
13:07:37.741,-23.5626,-31.0001
13:07:37.752,-22.5626,-32.3126
13:07:37.770,-22.5626,-31.3126
13:07:37.776,-21.2501,-30.5626
13:07:37.791,-20.1876,-29.0626
13:07:37.793,-18.9376,-26.1251
13:07:37.803,-17.9376,-25.8126
13:07:37.811,-17.8751,-26.3126
13:07:37.822,-17.6251,-27.5001
13:07:37.832,-18.2501,-30.1251
13:07:37.860,-20.0001,-34.4376
13:07:37.862,-20.6251,-39.0626
13:07:37.865,-23.5001,-46.0627
13:07:37.871,-25.1876,-50.7502
13:07:37.899,-27.5001,-57.5002
13:07:37.962,-29.1876,-63.2502
13:07:37.990,-30.6251,-68.3753
13:07:38.024,-32.3126,-75.5628
13:07:38.026,-34.1251,-80.4378
13:07:38.026,-35.7501,-85.0003
13:07:38.028,-37.9376,-91.5629
13:07:38.033,-39.1251,-95.1879
13:07:38.037,-40.9377,-100.1879
13:07:38.037,-42.4377,-104.3754
13:07:38.037,-43.5627,-108.1879
13:07:38.049,-44.7502,-111.3129
13:07:38.056,-45.4377,-113.7504
13:07:38.066,-46.2502,-116.1879
13:07:38.079,-46.3752,-117.4379
13:07:38.086,-47.6877,-118.813
13:07:38.097,-47.9377,-120.563
13:07:38.108,-48.1252,-123.938
13:07:38.118,-49.4377,-125.3755
13:07:38.126,-49.5627,-126.8755
13:07:38.136,-50.6877,-129.3755
13:07:38.146,-52.1252,-131.813
13:07:38.156,-51.0627,-128.938
13:07:38.166,-39.3127,-99.2504
13:07:38.177,-25.5001,-59.5627
13:07:38.189,-10.625,-18.3751
13:07:38.196,2.8125,17.5001
13:07:38.206,-5.3125,0
13:07:38.216,22.3751,78.3128
13:07:38.226,22.0001,78.2503
13:07:38.236,21.2501,75.5628
13:07:38.247,20.1251,71.2503
13:07:38.258,17.4376,65.0627
13:07:38.269,15.7501,58.5627
13:07:38.294,13.8751,52.9377
13:07:38.295,11.5,48.5627
13:07:38.297,10.1875,41.1252
13:07:38.306,10,37.7501
13:07:38.316,8.5,34.8126
13:07:38.326,8,32.3126
13:07:38.336,6.875,29.6251
13:07:38.346,5.5,23.9376
13:07:38.357,2.6875,18.6251
13:07:38.366,0.9375,10.875
13:07:38.376,-0.125,7.5
13:07:38.386,-1.125,2.3125
13:07:38.396,-2.375,-0.625
13:07:38.406,-3.125,-3.75
13:07:38.417,-2.5625,-4.75
13:07:38.428,-2.6875,-4.4375
13:07:38.436,-2.375,-2.5
13:07:38.446,-1.625,-1
13:07:38.457,-0.5,-0.0625
13:07:38.467,-0.9375,0.25
13:07:38.476,-0.75,-0.5
13:07:38.486,-1.625,-2
13:07:38.504,-2.375,-5.8125
13:07:38.506,-3.75,-8.5
13:07:38.516,-5.5625,-15.1251
13:07:38.526,-7.0625,-21.4376
13:07:38.536,-9.1875,-26.3126
13:07:38.546,-11.5625,-34.3126
13:07:38.556,-13.8126,-39.8127
13:07:38.567,-16.2501,-46.6252
13:07:38.577,-18.0626,-53.6252
13:07:38.590,-19.5001,-59.7502
13:07:38.611,-22.5626,-65.6253
13:07:38.613,-23.3126,-70.8128
13:07:38.617,-26.1876,-76.3128
13:07:38.652,-27.4376,-81.6253
13:07:38.655,-29.2501,-84.8128
13:07:38.657,-30.6251,-90.5004
13:07:38.659,-32.1251,-93.3754
13:07:38.666,-33.6251,-98.1254
13:07:38.698,-35.3751,-100.3129
13:07:38.700,-36.1876,-105.3129
13:07:38.702,-36.6251,-106.7504
13:07:38.706,-37.7501,-109.4379
13:07:38.739,-38.8751,-110.4379
13:07:38.741,-39.1251,-112.8129
13:07:38.744,-40.6252,-113.4379
13:07:38.746,-41.1877,-117.3129
13:07:38.776,-41.5627,-118.938
13:07:38.780,-42.8752,-121.813
13:07:38.782,-44.9377,-124.313
13:07:38.786,-44.6877,-126.7505
13:07:38.796,-44.7502,-125.3755
13:07:38.806,-39.6877,-115.0629
13:07:38.817,-27.9376,-85.8128
13:07:38.828,-12.4375,-42.5002
13:07:38.836,1.4375,-0.1875
13:07:38.846,14.7501,37.8751
13:07:38.856,25.8751,69.8753
13:07:38.866,31.9376,89.1253
13:07:38.877,34.6251,98.8754
13:07:38.886,36.3126,103.2504
13:07:38.896,37.0626,106.1879
13:07:38.906,36.6251,104.5004
13:07:38.916,35.8751,102.1254
13:07:38.927,33.4376,98.1879
13:07:38.938,31.7501,91.9379
13:07:38.946,28.9376,86.1253
13:07:38.956,26.7501,78.7503
13:07:38.966,25.9376,72.6878
13:07:38.976,23.1251,67.8753
13:07:38.987,22.6876,63.8752
13:07:38.996,21.6876,60.8752
13:07:39.006,21.1251,58.0627
13:07:39.016,20.0001,54.6877
13:07:39.026,18.9376,50.4377
13:07:39.038,16.4376,45.3127
13:07:39.046,14.4376,39.1252
13:07:39.056,12.625,33.5626
13:07:39.077,11.125,28.6251
13:07:39.080,10.5,24.7501
13:07:39.095,9.5,22.8126
13:07:39.097,9.4375,21.1251
13:07:39.112,10,20.3126
13:07:39.117,10,21.1876
13:07:39.128,9.9375,20.3126
13:07:39.138,9.75,21.7501
13:07:39.146,9.8125,19.0626
13:07:39.158,9.9375,19.6876
13:07:39.166,8.875,16.0001
13:07:39.176,7.875,12.875
13:07:39.186,6.6875,9
13:07:39.198,4.375,3.625
13:07:39.206,2.6875,-1.9375
13:07:39.216,-0.4375,-9.3125
13:07:39.226,-2.3125,-15.9376
13:07:39.237,-4.5625,-22.7501
13:07:39.253,-7.25,-28.9376
13:07:39.256,-9.1875,-35.2501
13:07:39.274,-11.25,-42.5002
13:07:39.276,-13.3126,-48.3127
13:07:39.292,-14.7501,-53.2502
13:07:39.300,-16.8751,-58.5627
13:07:39.308,-18.7501,-62.9377
13:07:39.316,-20.0001,-69.1878
13:07:39.326,-22.3751,-73.1878
13:07:39.336,-24.0626,-77.1253
13:07:39.346,-24.8751,-81.9378
13:07:39.359,-25.5626,-84.8753
13:07:39.368,-26.9376,-88.1878
13:07:39.376,-29.0001,-90.8129
13:07:39.386,-30.0001,-93.6879
13:07:39.424,-30.1251,-95.6879
13:07:39.428,-31.4376,-96.5629
13:07:39.429,-31.2501,-99.3754
13:07:39.430,-32.8751,-100.8129
13:07:39.436,-33.8751,-102.1879
13:07:39.465,-34.3126,-104.9379
13:07:39.468,-35.9376,-107.8754
13:07:39.470,-36.2501,-109.4379
13:07:39.476,-37.5626,-113.3129
13:07:39.509,-38.7501,-114.5004
13:07:39.512,-37.9376,-113.5629
13:07:39.514,-31.3126,-96.3129
13:07:39.516,-18.5626,-63.2502
13:07:39.544,-3.6875,-20.1251
13:07:39.546,11,22.1251
13:07:39.549,23.4376,58.1252
13:07:39.574,33.1251,87.3128
13:07:39.578,37.3751,101.0004
13:07:39.580,40.3752,110.1879
13:07:39.586,42.1877,113.9379
13:07:39.597,44.1252,116.9379
13:07:39.606,42.5627,117.1879
13:07:39.617,41.8127,112.1254
13:07:39.628,38.9376,107.9379
13:07:39.636,37.3751,101.0004
13:07:39.647,34.5626,95.8129
13:07:39.656,33.0001,88.2503
13:07:39.666,30.6251,84.0628
13:07:39.676,29.4376,78.0003
13:07:39.688,27.8751,75.8128
13:07:39.696,28.5626,73.3753
13:07:39.706,26.7501,70.1878
13:07:39.716,25.3751,65.8753
13:07:39.726,23.8751,61.0627
13:07:39.737,22.0001,54.8127
13:07:39.750,19.4376,48.3752
13:07:39.756,17.8126,43.5627
13:07:39.766,16.5001,38.7501
13:07:39.776,14.3126,34.6876
13:07:39.787,14.2501,32.5001
13:07:39.796,13.9376,31.5626
13:07:39.806,13.2501,31.0001
13:07:39.816,13.5001,29.3126
13:07:39.827,12.875,29.5626
13:07:39.838,13.125,29.3126
13:07:39.846,12.8125,26.9376
13:07:39.856,12.75,25.5001
13:07:39.866,11.625,22.4376
13:07:39.877,9.8125,18.6251
13:07:39.888,7,12.9375
13:07:39.896,5.1875,7.6875
13:07:39.906,3.3125,-0.3125
13:07:39.916,1.25,-6.9375
13:07:39.926,-1.5625,-13.8126
13:07:39.937,-4.3125,-21.3751
13:07:39.946,-6.875,-28.2501
13:07:39.956,-9.25,-35.3126
13:07:39.966,-12.0625,-42.6252
13:07:39.977,-13.9376,-50.0002
13:07:39.989,-16.7501,-56.6877
13:07:39.998,-19.0626,-63.7502
13:07:40.008,-20.9376,-69.5003
13:07:40.031,-23.5001,-74.6253
13:07:40.034,-25.3751,-81.3753
13:07:40.063,-26.9376,-86.1253
13:07:40.065,-28.7501,-90.1879
13:07:40.068,-31.0626,-95.0004
13:07:40.073,-31.5001,-98.9379
13:07:40.100,-34.4376,-102.7504
13:07:40.102,-35.3751,-105.9379
13:07:40.105,-37.0626,-109.1879
13:07:40.112,-37.3126,-112.1879
13:07:40.140,-37.6251,-114.0629
13:07:40.142,-39.4377,-113.7504
13:07:40.145,-39.6252,-117.813
13:07:40.172,-40.1877,-118.313
13:07:40.174,-41.3127,-121.063
13:07:40.176,-42.0627,-124.688
13:07:40.182,-44.6877,-130.5005
13:07:40.205,-45.6877,-131.813
13:07:40.207,-45.6252,-135.0005
13:07:40.211,-44.4377,-127.2505
13:07:40.224,-34.3751,-104.2504
13:07:40.231,-18.3126,-59.3127
13:07:40.242,-3.125,-14.5001
13:07:40.251,11,23.8751
13:07:40.262,22.8751,59.8752
13:07:40.273,31.9376,85.3128
13:07:40.281,37.2501,99.4379
13:07:40.291,37.5626,106.7504
13:07:40.301,38.3126,106.7504
13:07:40.311,37.4376,106.5629
13:07:40.323,36.5001,101.6879
13:07:40.331,33.4376,96.2504
13:07:40.341,30.8751,88.0628
13:07:40.352,27.7501,81.2503
13:07:40.362,24.8126,71.1253
13:07:40.385,22.5001,63.6252
13:07:40.388,19.7501,56.4377
13:07:40.402,18.1876,50.7502
13:07:40.407,16.6251,47.1252
13:07:40.418,15.9376,43.0002
13:07:40.422,14.3751,38.8751
13:07:40.434,13.3126,35.0001
13:07:40.441,11.125,29.2501
13:07:40.451,9.5625,23.3751
13:07:40.462,7.5625,17.1876
13:07:40.471,6,14.0001
13:07:40.481,5.5625,9.25
13:07:40.491,4.375,8.875
13:07:40.501,5.1875,6.9375
13:07:40.512,4.9375,8.1875
13:07:40.522,5.8125,8.5
13:07:40.531,6.375,10.9375
13:07:40.541,7.4375,12.75
13:07:40.552,8.5625,13.0625
13:07:40.561,7.25,12.8125
13:07:40.577,6.5625,10.5625
13:07:40.593,5.0625,5.8125
13:07:40.609,3.0625,1.9375
13:07:40.610,1.3125,-4.125
13:07:40.616,-1.1875,-11.6875
13:07:40.629,-2.6875,-17.5001
13:07:40.636,-5.6875,-24.4376
13:07:40.646,-8,-31.3126
13:07:40.656,-10.125,-38.6876
13:07:40.667,-12.8125,-46.0627
13:07:40.676,-15.4376,-53.0002
13:07:40.686,-17.4376,-58.8752
13:07:40.696,-18.8751,-63.9377
13:07:40.708,-21.5626,-69.3128
13:07:40.717,-23.5001,-74.1878
13:07:40.726,-24.7501,-80.1878
13:07:40.736,-27.5626,-84.4378
13:07:40.747,-28.3126,-89.3753
13:07:40.759,-29.5626,-92.1254
13:07:40.767,-30.1251,-94.3129
13:07:40.776,-30.8751,-96.3129
13:07:40.786,-32.0001,-97.4379
13:07:40.797,-32.5626,-100.0629
13:07:40.806,-33.5626,-102.4379
13:07:40.816,-35.2501,-104.3754
13:07:40.826,-35.9376,-108.4379
13:07:40.853,-36.1251,-111.4379
13:07:40.855,-38.4376,-114.4379
13:07:40.860,-39.0001,-116.1879
13:07:40.888,-37.1876,-112.3754
13:07:40.889,-30.5001,-94.6879
13:07:40.891,-16.3126,-59.0627
13:07:40.920,-2.1875,-15.6876
13:07:40.922,12.75,23.1876
13:07:40.924,25.5626,59.0002
13:07:40.950,34.3751,86.9378
13:07:40.951,39.3127,100.6879
13:07:40.954,41.8752,108.4379
13:07:40.958,41.3127,110.7504
13:07:40.988,40.9377,108.5629
13:07:40.990,40.0002,105.1254
13:07:40.992,38.0626,100.0629
13:07:41.021,34.7501,94.1879
13:07:41.024,32.6876,84.1253
13:07:41.026,28.6251,76.5628
13:07:41.030,25.8751,66.8128
13:07:41.037,23.3751,59.1877
13:07:41.046,21.0001,53.0002
13:07:41.057,19.3126,46.8752
13:07:41.066,18.1251,43.1877
13:07:41.076,17.0626,37.3126
13:07:41.086,13.8751,31.0626
13:07:41.097,11.9375,24.8751
13:07:41.108,9.6875,19.4376
13:07:41.116,9.25,14.5001
13:07:41.135,7.4375,11.3125
13:07:41.138,6.875,10.4375
13:07:41.146,7.1875,9
13:07:41.156,7.5625,10.125
13:07:41.166,8.5,12.3125
13:07:41.177,9.6875,14.1251
13:07:41.186,11.0625,16.5001
13:07:41.196,10.9375,17.8126
13:07:41.206,10.9375,17.6876
13:07:41.217,10.875,16.5626
13:07:41.226,9.1875,14.6251
13:07:41.236,9.1875,10.0625
13:07:41.246,5.875,5.625
13:07:41.258,4.625,-0.8125
13:07:41.266,1.625,-7.25
13:07:41.276,-1.625,-14.1251
13:07:41.286,-3.9375,-22.7501
13:07:41.297,-6.9375,-29.1876
13:07:41.306,-7.9375,-36.5001
13:07:41.316,-11.1875,-43.1252
13:07:41.326,-12.5625,-50.1252
13:07:41.338,-15.1251,-54.6252
13:07:41.346,-16.7501,-60.8127
13:07:41.356,-19.1876,-65.8128
13:07:41.367,-20.1876,-71.6253
13:07:41.377,-22.6251,-74.8753
13:07:41.386,-23.0001,-78.5628
13:07:41.396,-25.2501,-81.3128
13:07:41.407,-25.2501,-85.0003
13:07:41.416,-27.1876,-87.1253
13:07:41.426,-27.8751,-91.0004
13:07:41.436,-28.3126,-94.3754
13:07:41.448,-29.3751,-95.5629
13:07:41.456,-30.9376,-98.0004
13:07:41.466,-31.6876,-101.9379
13:07:41.476,-32.3751,-104.8129
13:07:41.488,-33.6876,-106.3754
13:07:41.496,-33.3126,-106.6879
13:07:41.508,-28.6251,-96.2504
13:07:41.516,-18.5626,-66.5628
13:07:41.528,-3.25,-27.0001
13:07:41.552,12.1875,16.6251
13:07:41.554,25.3126,55.0002
13:07:41.557,36.0626,85.3753
13:07:41.582,42.1252,104.5004
13:07:41.584,44.4377,115.3754
13:07:41.586,46.7502,119.188
13:07:41.624,47.1877,121.813
13:07:41.626,46.8127,121.1255
13:07:41.628,45.1877,116.1879
13:07:41.630,43.2502,111.3754
13:07:41.659,41.2502,105.4379
13:07:41.661,38.6876,99.2504
13:07:41.664,36.6876,91.0629
13:07:41.669,34.3126,84.9378
13:07:41.699,31.8751,77.8128
13:07:41.701,30.4376,73.4378
13:07:41.717,29.2501,69.9378
13:07:41.718,28.1876,66.6878
13:07:41.734,26.6876,61.1252
13:07:41.736,24.9376,55.6877
13:07:41.739,22.6876,49.7502
13:07:41.749,20.1251,44.0627
13:07:41.756,18.5001,37.8751
13:07:41.766,16.9376,33.3126
13:07:41.777,14.6251,29.5001
13:07:41.786,14.1876,28.4376
13:07:41.796,14.5001,28.1876
13:07:41.806,14.9376,29.0626
13:07:41.817,15.0001,27.9376
13:07:41.826,15.3126,29.5626
13:07:41.836,14.8126,29.2501
13:07:41.846,14.1876,28.9376
13:07:41.858,13.3126,27.0626
13:07:41.866,13.125,23.2501
13:07:41.886,10.6875,19.0626
13:07:41.889,9.25,14.1251
13:07:41.899,7.3125,8.5
13:07:41.907,4.4375,1.8125
13:07:41.921,2.5,-4.75
13:07:41.930,-0.5625,-12.25
13:07:41.938,-2.6875,-19.0626
13:07:41.946,-5.5625,-25.6251
13:07:41.957,-7.8125,-32.1251
13:07:41.966,-9.4375,-38.9376
13:07:41.976,-11.0625,-44.8752
13:07:41.988,-13,-49.1252
13:07:41.998,-14.8126,-54.5002
13:07:42.006,-15.8751,-59.1252
13:07:42.016,-17.7501,-62.7502
13:07:42.026,-19.0626,-67.1253
13:07:42.037,-20.3126,-71.0628
13:07:42.046,-20.6251,-73.0628
13:07:42.056,-21.1251,-76.3128
13:07:42.067,-23.0001,-79.0003
13:07:42.076,-24.6251,-80.6878
13:07:42.086,-25.0626,-84.8128
13:07:42.096,-26.2501,-85.7503
13:07:42.108,-27.4376,-89.6253
13:07:42.131,-28.5626,-93.3129
13:07:42.136,-29.3126,-95.3754
13:07:42.138,-30.4376,-97.8754
13:07:42.146,-28.1251,-93.3754
13:07:42.156,-21.5626,-74.5628
13:07:42.167,-8.3125,-41.1252
13:07:42.179,5.6875,1.375
13:07:42.186,19.6876,41.3127
13:07:42.196,32.8126,76.8128
13:07:42.207,38.6876,98.5004
13:07:42.216,43.4377,111.4379
13:07:42.226,45.6252,120.5005
13:07:42.236,47.1252,123.188
13:07:42.249,47.2502,124.8755
13:07:42.257,45.7502,124.7505
13:07:42.266,44.6252,119.438
13:07:42.286,42.6252,114.6254
13:07:42.291,39.9377,109.3129
13:07:42.297,38.1876,102.1254
13:07:42.323,36.5626,96.6254
13:07:42.325,33.7501,91.4379
13:07:42.328,32.3751,85.4378
13:07:42.361,32.0626,82.3753
13:07:42.364,30.2501,79.3128
13:07:42.366,29.8126,76.5003
13:07:42.370,27.8751,71.5628
13:07:42.405,25.8751,65.8128
13:07:42.407,23.1251,59.5627
13:07:42.409,21.5001,53.7502
13:07:42.414,19.6876,48.2502
13:07:42.417,18.8751,44.3752
13:07:42.453,16.9376,40.2502
13:07:42.456,16.6251,39.6252
13:07:42.459,17.3126,38.8751
13:07:42.460,17.0626,40.3752
13:07:42.466,17.7501,39.3127
13:07:42.479,17.3126,39.9377
13:07:42.486,17.0001,38.7501
13:07:42.496,16.2501,37.5626
13:07:42.508,15.9376,35.2501
13:07:42.516,14.4376,31.5626
13:07:42.526,12.6875,27.1876
13:07:42.537,10.8125,21.6251
13:07:42.551,8.8125,15.6251
13:07:42.557,6.6875,9.25
13:07:42.567,4.375,2.4375
13:07:42.579,2,-5.0625
13:07:42.588,-1.625,-12.1875
13:07:42.596,-3.1875,-19.1251
13:07:42.607,-5.5,-26.3126
13:07:42.617,-7.875,-32.3126
13:07:42.633,-10,-39.1876
13:07:42.637,-12.25,-45.0002
13:07:42.646,-14.0626,-50.8752
13:07:42.657,-16.0001,-56.3752
13:07:42.667,-17.9376,-62.0002
13:07:42.677,-19.6876,-65.7503
13:07:42.689,-21.4376,-70.4378
13:07:42.696,-22.6251,-75.4378
13:07:42.707,-24.5001,-78.2503
13:07:42.718,-25.8126,-82.1253
13:07:42.727,-26.3126,-86.0003
13:07:42.738,-28.9376,-90.0003
13:07:42.746,-29.6876,-93.2504
13:07:42.757,-31.0001,-96.8129
13:07:42.766,-32.2501,-100.2504
13:07:42.777,-33.8126,-105.3129
13:07:42.788,-34.9376,-108.2504
13:07:42.797,-36.1876,-109.5004
13:07:42.807,-33.3751,-104.3754
13:07:42.821,-26.0626,-83.4378
13:07:42.826,-12.8125,-48.1877
13:07:42.837,2.4375,-6.25
13:07:42.848,16.7501,35.2501
13:07:42.858,28.8751,69.3753
13:07:42.866,35.8751,91.3129
13:07:42.878,39.1252,104.3754
13:07:42.886,40.9377,109.2504
13:07:42.897,41.9377,113.4379
13:07:42.906,41.6877,111.9379
13:07:42.920,39.7502,110.3754
13:07:42.926,37.7501,105.0004
13:07:42.938,35.6251,98.7504
13:07:42.949,32.6876,92.1254
13:07:42.958,31.1876,83.7503
13:07:42.967,29.1251,78.4378
13:07:42.978,26.8751,74.1878
13:07:42.986,26.0626,68.4378
13:07:43.010,24.5001,65.5003
13:07:43.026,23.8126,61.1877
13:07:43.030,21.8126,57.6877
13:07:43.060,20.6251,51.7502
13:07:43.062,17.3126,46.2502
13:07:43.065,16.3751,39.0001
13:07:43.065,13.8126,34.0626
13:07:43.067,13.1251,29.0626
13:07:43.094,11,25.5001
13:07:43.097,10.5625,22.7501
13:07:43.100,10.3125,23.0001
13:07:43.130,11.5,21.5001
13:07:43.132,10.625,23.1876
13:07:43.136,11.6875,23.6876
13:07:43.137,11.1875,24.1251
13:07:43.169,11.6875,23.3751
13:07:43.171,11.125,22.9376
13:07:43.173,10,19.8751
13:07:43.179,8.4375,15.8751
13:07:43.219,6.5,12.125
13:07:43.221,5.4375,6.9375
13:07:43.235,3.0625,0.3125
13:07:43.237,1.1875,-6.5625
13:07:43.251,-1.25,-13.6876
13:07:43.251,-3.75,-20.5001
13:07:43.252,-6.3125,-27.1251
13:07:43.258,-8.0625,-33.6251
13:07:43.266,-11.0625,-40.1877
13:07:43.279,-12.6875,-47.1252
13:07:43.286,-15.5626,-53.0002
13:07:43.296,-16.5626,-58.4377
13:07:43.307,-18.6251,-63.5002
13:07:43.316,-19.8751,-67.7503
13:07:43.326,-21.5001,-72.3753
13:07:43.337,-23.0626,-75.1878
13:07:43.347,-23.8126,-78.6878
13:07:43.356,-24.6251,-82.1878
13:07:43.366,-25.8751,-84.6253
13:07:43.382,-26.9376,-86.6878
13:07:43.410,-28.3751,-89.3128
13:07:43.412,-29.1876,-93.0629
13:07:43.415,-29.4376,-95.8129
13:07:43.420,-31.2501,-98.0629
13:07:43.429,-32.5626,-101.8129
13:07:43.438,-33.8751,-105.3129
13:07:43.448,-33.6876,-106.4379
13:07:43.460,-31.8751,-101.2504
13:07:43.467,-23.8751,-80.6253
13:07:43.478,-11.5625,-44.6877
13:07:43.486,3.625,-3.6875
13:07:43.497,17.6251,36.5001
13:07:43.506,29.8126,69.7503
13:07:43.517,34.1251,89.7503
13:07:43.526,38.3751,100.2504
13:07:43.536,40.5627,106.7504
13:07:43.549,40.4377,108.7504
13:07:43.557,40.2502,106.8754
13:07:43.567,37.8126,103.2504
13:07:43.577,35.5626,96.5004
13:07:43.590,33.0001,90.3753
13:07:43.597,29.9376,83.0003
13:07:43.608,27.6876,74.7503
13:07:43.620,25.9376,67.6878
13:07:43.626,22.5626,61.2502
13:07:43.639,20.9376,54.5627
13:07:43.649,19.8126,51.1877
13:07:43.657,18.8751,46.0002
13:07:43.666,17.1251,42.6877
13:07:43.678,14.8751,35.1251
13:07:43.686,12.8125,28.8126
13:07:43.696,11.125,23.5626
13:07:43.730,9.5625,18.7501
13:07:43.733,8.625,16.0001
13:07:43.735,8.5,14.7501
13:07:43.737,7.75,14.6251
13:07:43.768,9.6875,15.5001
13:07:43.769,9.875,18.1251
13:07:43.771,11.125,19.9376
13:07:43.777,11.5,21.8751
13:07:43.804,11.625,22.6876
13:07:43.807,11.3125,21.6251
13:07:43.810,11.0625,21.1876
13:07:43.843,9.6875,16.6251
13:07:43.845,7.8125,13.4376
13:07:43.847,5.9375,7
13:07:43.852,4.625,2.125
13:07:43.880,2.25,-5.1875
13:07:43.882,-0.6875,-12.375
13:07:43.884,-3.3125,-19.8751
13:07:43.887,-6.625,-26.2501
13:07:43.902,-8.6875,-33.3751
13:07:43.909,-10.5,-40.3752
13:07:43.917,-13.125,-45.8752
13:07:43.930,-15.1251,-51.8127
13:07:43.937,-17.1251,-58.3752
13:07:43.948,-18.0626,-61.7502
13:07:43.960,-18.9376,-65.6252
13:07:43.966,-20.6251,-69.2503
13:07:43.977,-21.1251,-72.0003
13:07:43.987,-23.0001,-74.6878
13:07:43.996,-23.4376,-77.2503
13:07:44.008,-24.6251,-81.0628
13:07:44.019,-25.9376,-82.3753
13:07:44.033,-27.2501,-87.1253
13:07:44.042,-28.3126,-89.6878
13:07:44.055,-29.7501,-93.1879
13:07:44.063,-30.6251,-97.2504
13:07:44.073,-30.8751,-98.0629
13:07:44.081,-30.9376,-94.5629
13:07:44.093,-24.5001,-81.2503
13:07:44.103,-12.75,-49.1252
13:07:44.112,0.8125,-10
13:07:44.123,15.3751,29.4376
13:07:44.133,26.4376,64.6877
13:07:44.143,33.1251,85.7503
13:07:44.152,37.5001,98.8754
13:07:44.162,40.2502,105.9379
13:07:44.171,40.7502,110.0004
13:07:44.183,40.7502,109.0629
13:07:44.193,39.1252,106.6254
13:07:44.206,37.5626,100.6254
13:07:44.212,34.5001,93.6879
13:07:44.222,32.5626,86.0003
13:07:44.233,28.9376,78.4378
13:07:44.241,27.6876,71.0003
13:07:44.253,24.8126,64.6252
13:07:44.262,23.6251,59.3752
13:07:44.274,22.5626,56.4377
13:07:44.284,20.6876,51.1877
13:07:44.292,18.8751,46.7502
13:07:44.311,16.5001,39.1251
13:07:44.316,14.6876,32.3126
13:07:44.332,12.5625,26.9376
13:07:44.333,11.25,22.6876
13:07:44.349,10.125,19.5626
13:07:44.352,9.5625,17.8751
13:07:44.364,10.0625,17.5001
13:07:44.373,10,18.7501
13:07:44.382,11.25,20.8126
13:07:44.393,11.1875,23.0626
13:07:44.402,12.375,24.5626
13:07:44.413,11.9375,25.0001
13:07:44.423,11.5,24.6876
13:07:44.433,11.1875,21.3751
13:07:44.443,9.625,18.2501
13:07:44.453,7.75,13.3751
13:07:44.486,5.8125,7.25
13:07:44.489,3.8125,1.6875
13:07:44.492,1.5625,-5.5
13:07:44.494,-1.75,-12.75
13:07:44.566,-4.6875,-20.1251
13:07:44.571,-6.875,-28.1876
13:07:44.571,-9.625,-34.5626
13:07:44.571,-11.75,-41.1877
13:07:44.604,-14.1251,-47.3127
13:07:44.605,-15.8126,-52.1252
13:07:44.605,-17.5001,-58.8127
13:07:44.606,-19.3751,-62.2502
13:07:44.609,-20.6876,-67.3128
13:07:44.614,-22.5626,-71.3753
13:07:44.617,-23.0626,-73.9378
13:07:44.646,-24.3751,-77.5003
13:07:44.649,-24.5626,-79.1253
13:07:44.651,-25.8751,-81.4378
13:07:44.665,-27.6876,-83.4378
13:07:44.690,-28.2501,-87.8753
13:07:44.693,-28.3751,-90.3754
13:07:44.696,-30.6876,-93.0004
13:07:44.700,-31.2501,-96.4379
13:07:44.711,-33.5626,-99.1254
13:07:44.719,-32.8751,-100.0629
13:07:44.728,-30.3751,-94.8754
13:07:44.738,-23.3751,-74.0003
13:07:44.747,10.5,22.2501
13:07:44.759,24.3751,59.3127
13:07:44.767,32.4376,85.6253
13:07:44.777,37.0626,100.3129
13:07:44.789,40.1877,110.5629
13:07:44.797,41.3127,114.0629
13:07:44.808,41.7502,115.8754
13:07:44.818,41.0002,116.6254
13:07:44.828,40.3127,112.5629
13:07:44.837,39.0001,109.2504
13:07:44.847,36.5626,101.6879
13:07:44.857,33.9376,96.6254
13:07:44.870,32.4376,89.8753
13:07:44.878,30.7501,84.1878
13:07:44.888,30.1876,80.6878
13:07:44.902,28.5626,76.3128
13:07:44.908,28.1251,74.6253
13:07:44.918,27.0626,70.6253
13:07:44.928,25.7501,66.4378
13:07:44.937,23.6876,61.2502
13:07:44.948,21.3126,54.8127
13:07:44.957,19.6876,49.3752
13:07:44.968,17.8126,44.0627
13:07:44.977,17.1251,40.5002
13:07:44.988,15.3751,36.8751
13:07:44.998,15.3126,34.1876
13:07:45.008,14.6251,33.7501
13:07:45.017,13.7501,33.5626
13:07:45.028,14.2501,32.1251
13:07:45.042,14.1876,32.8751
13:07:45.048,14.5626,32.7501
13:07:45.058,14.1876,32.2501
13:07:45.070,13,29.6876
13:07:45.079,11.9375,26.3126
13:07:45.088,10.25,22.0001
13:07:45.099,8.5625,17.3126
13:07:45.108,6.4375,12.125
13:07:45.118,5,5.75
13:07:45.128,2.5625,-1.125
13:07:45.137,0.0625,-7.4375
13:07:45.147,-2.625,-15.4376
13:07:45.180,-5.125,-22.2501
13:07:45.182,-6.9375,-28.5001
13:07:45.185,-9.5,-35.3751
13:07:45.188,-11.625,-41.6252
13:07:45.221,-13.3126,-46.7502
13:07:45.222,-15.3751,-51.1877
13:07:45.225,-16.5626,-55.8752
13:07:45.228,-18.4376,-60.8752
13:07:45.259,-19.6876,-63.8752
13:07:45.261,-20.5001,-68.8128
13:07:45.264,-22.5001,-70.3753
13:07:45.269,-22.4376,-73.8753
13:07:45.295,-23.6251,-76.9378
13:07:45.297,-24.4376,-78.8753
13:07:45.302,-25.5001,-80.4378
13:07:45.326,-27.0626,-81.7503
13:07:45.329,-27.9376,-86.1878
13:07:45.333,-28.8126,-87.6253
13:07:45.337,-30.2501,-92.1254
13:07:45.350,-31.1876,-94.2504
13:07:45.357,-32.1876,-96.7504
13:07:45.368,-32.3126,-96.6254
13:07:45.378,-28.8126,-84.1878
13:07:45.387,-17.7501,-57.6877
13:07:45.398,-5.125,-17.7501
13:07:45.408,9.9375,21.7501
13:07:45.417,21.5001,59.9377
13:07:45.429,29.8751,83.5003
13:07:45.439,34.9376,99.1254
13:07:45.448,37.5001,108.2504
13:07:45.459,39.9377,114.9379
13:07:45.468,39.8752,116.8754
13:07:45.477,39.7502,115.7504
13:07:45.491,38.8751,114.6879
13:07:45.497,37.1251,110.0629
13:07:45.509,36.0626,104.8754
13:07:45.518,33.8126,100.1254
13:07:45.529,32.2501,93.5629
13:07:45.538,30.8126,89.7503
13:07:45.548,29.5626,85.5628
13:07:45.558,29.0001,83.8753
13:07:45.569,29.0626,81.4378
13:07:45.578,27.4376,78.8128
13:07:45.591,26.6251,76.6878
13:07:45.599,24.9376,70.6253
13:07:45.619,23.1251,65.7503
13:07:45.625,21.3751,59.2502
13:07:45.641,19.1876,53.9377
13:07:45.645,18.6251,49.1252
13:07:45.648,16.1876,45.3752
13:07:45.659,15.3126,43.0627
13:07:45.667,15.6251,39.8752
13:07:45.678,14.8126,39.3127
13:07:45.690,14.8126,38.6876
13:07:45.698,15.3126,38.1251
13:07:45.709,14.9376,38.1876
13:07:45.719,15.1876,36.6876
13:07:45.729,14.1876,34.5626
13:07:45.737,13.5001,32.8751
13:07:45.751,12,28.8751
13:07:45.758,10.4375,24.8126
13:07:45.768,8.1875,18.2501
13:07:45.777,6.4375,12.6875
13:07:45.790,4.4375,5.4375
13:07:45.801,1.625,-1.125
13:07:45.816,-0.0625,-6.9375
13:07:45.818,-2.25,-14.1251
13:07:45.833,-4.9375,-20.8126
13:07:45.837,-6.6875,-26.0001
13:07:45.848,-8.5,-32.9376
13:07:45.859,-11,-38.8751
13:07:45.867,-13.1251,-43.5002
13:07:45.878,-14.3126,-49.5002
13:07:45.889,-16.2501,-54.8752
13:07:45.898,-17.8751,-59.4377
13:07:45.908,-18.6251,-62.7502
13:07:45.917,-20.6876,-66.4378
13:07:45.927,-21.3751,-70.3753
13:07:45.940,-22.3126,-73.6878
13:07:45.971,-24.0001,-76.5003
13:07:45.974,-24.3126,-76.9378
13:07:45.976,-24.6876,-80.1253
13:07:45.980,-26.3126,-81.7503
13:07:46.014,-26.7501,-82.8753
13:07:46.016,-27.8126,-86.6878
13:07:46.019,-28.3751,-89.1878
13:07:46.022,-29.6251,-90.9379
13:07:46.028,-31.1251,-94.5004
13:07:46.068,-31.4376,-98.1879
13:07:46.070,-30.2501,-95.6254
13:07:46.074,-25.1876,-81.7503
13:07:46.075,-9.875,-51.7502
13:07:46.077,9.6875,-3.625
13:07:46.110,34.2501,51.8127
13:07:46.110,63.7502,113.0004
13:07:46.113,74.0628,146.5631
13:07:46.119,79.0628,162.7506
13:07:46.129,81.6878,175.8132
13:07:46.138,83.0628,183.8132
13:07:46.151,76.3753,181.2507
13:07:46.160,68.5628,172.3757
13:07:46.167,63.2502,166.8131
13:07:46.178,59.9377,161.0006
13:07:46.187,59.5002,160.2506
13:07:46.201,57.8752,159.2506
13:07:46.208,57.1252,154.5006
13:07:46.218,54.0627,150.3756
13:07:46.227,52.6877,143.813
13:07:46.238,53.0002,142.438
13:07:46.249,52.6877,141.1255
13:07:46.258,52.5002,139.563
13:07:46.267,50.5627,134.563
13:07:46.280,47.9377,129.3755
13:07:46.287,45.6877,122.188
13:07:46.298,43.3752,117.3754
13:07:46.310,42.1877,110.8129
13:07:46.318,41.1252,106.1879
13:07:46.328,40.5627,102.9379
13:07:46.341,39.7502,98.5004
13:07:46.348,39.6877,96.1879
13:07:46.358,38.7501,93.2504
13:07:46.367,37.8751,91.1879
13:07:46.378,36.3751,87.6878
13:07:46.390,34.4376,84.8128
13:07:46.399,33.6251,82.5628
13:07:46.408,32.8751,80.1878
13:07:46.417,30.0001,76.8128
13:07:46.429,28.0001,69.8128
13:07:46.438,25.3751,64.1877
13:07:46.448,22.9376,57.4377
13:07:46.457,19.4376,48.8127
13:07:46.468,16.5001,40.4377
13:07:46.478,12.25,30.5001
13:07:46.489,8.375,22.5001
13:07:46.498,4.8125,13.3126
13:07:46.507,0.8125,3.5625
13:07:46.520,-1.0625,-2.4375
13:07:46.527,0.375,-5.8125
13:07:46.543,2.375,-6.3125
13:07:46.548,8.5,-0.4375
13:07:46.558,19.3126,9.625
13:07:46.567,26.0001,18.4376
13:07:46.578,29.0001,22.6876
13:07:46.587,34.1876,30.0626
13:07:46.598,36.6251,36.2501
13:07:46.609,36.3751,39.3752
13:07:46.617,36.1251,41.4377
13:07:46.637,34.3751,41.6877
13:07:46.640,35.7501,43.5002
13:07:46.675,42.4377,51.6252
13:07:46.678,51.9377,65.0627
13:07:46.680,59.7502,76.2503
13:07:46.682,59.8127,77.5003
13:07:46.689,54.5002,69.8753
13:07:46.721,50.5002,59.1877
13:07:46.724,41.8752,41.5002
13:07:46.726,33.1876,21.1251
13:07:46.732,25.0626,4.1875
13:07:46.763,16.5626,-16.0626
13:07:46.766,5.5,-39.5627
13:07:46.766,-3.375,-59.9377
13:07:46.769,-12.5,-81.3753
13:07:46.800,-20.3126,-94.0629
13:07:46.802,-19.5626,-87.6253
13:07:46.805,-11.1875,-59.5627
13:07:46.807,0.625,-18.7501
13:07:46.818,12.9375,24.5001
13:07:46.827,21.8751,60.2502
13:07:46.839,29.8126,85.0628
13:07:46.848,36.7501,100.8129
13:07:46.858,41.2502,112.6879
13:07:46.870,44.1877,118.688
13:07:46.878,43.2502,118.5005
13:07:46.887,42.3127,118.438
13:07:46.897,43.9377,119.813
13:07:46.919,47.7502,124.688
13:07:46.921,55.2502,132.563
13:07:46.936,66.9378,146.438
13:07:46.939,77.0628,161.3131
13:07:46.947,76.8128,159.2506
13:07:46.958,71.5628,150.2506
13:07:46.970,68.8753,143.2505
13:07:46.977,63.3752,132.938
13:07:46.987,57.3752,119.3755
13:07:46.998,50.5627,107.1879
13:07:47.007,43.5002,90.5003
13:07:47.018,33.6251,73.1253
13:07:47.027,20.6876,48.6252
13:07:47.037,6.875,27.8751
13:07:47.048,3,16.5626
13:07:47.059,0.75,14.3751
13:07:47.068,1.125,13.5626
13:07:47.080,3.9375,19.1876
13:07:47.088,9.375,29.8751
13:07:47.098,12.6875,38.0626
13:07:47.113,14.4376,44.7502
13:07:47.129,16.5001,49.5627
13:07:47.131,18.6251,54.1877
13:07:47.138,27.5626,66.3128
13:07:47.149,37.4376,80.6253
13:07:47.158,46.4377,94.1254
13:07:47.168,51.7502,101.5629
13:07:47.178,52.9377,104.0629
13:07:47.187,50.7502,99.5004
13:07:47.198,40.5002,84.8128
13:07:47.210,24.6251,60.2502
13:07:47.217,5.625,24.8751
13:07:47.251,-12.625,-10.375
13:07:47.253,-22.1251,-33.5001
13:07:47.255,-30.8126,-53.5627
13:07:47.257,-38.8751,-71.9378
13:07:47.268,-43.8752,-84.9378
13:07:47.281,-49.9377,-95.2504
13:07:47.288,-53.4377,-103.8129
13:07:47.298,-50.6877,-101.8754
13:07:47.307,-45.0002,-91.5004
13:07:47.318,-38.8751,-75.5003
13:07:47.329,-28.6876,-56.8752
13:07:47.338,-9.5,-24.4376
13:07:47.347,12.1875,10.25
13:07:47.358,23.6251,34.4376
13:07:47.368,27.1876,41.5627
13:07:47.399,18.8751,32.5001
13:07:47.401,9.625,13.1251
13:07:47.404,-1.0625,-7.6875
13:07:47.409,-10.625,-29.9376
13:07:47.441,-20.6251,-55.3752
13:07:47.444,-31.3126,-80.5628
13:07:47.446,-42.8127,-103.4379
13:07:47.449,-48.3127,-115.1254
