timestamp,Red,IR
13:17:47.551,20.3126,31.5001
13:17:47.554,20.0626,31.1876
13:17:47.557,19.7501,29.9376
13:17:47.562,18.7501,28.8126
13:17:47.565,18.3126,28.1251
13:17:47.595,17.5001,26.7501
13:17:47.604,16.6876,25.6251
13:17:47.606,17.1251,22.8126
13:17:47.632,16.0626,20.6251
13:17:47.634,14.8751,18.4376
13:17:47.636,14.1876,16.6876
13:17:47.661,13.3126,16.9376
13:17:47.661,13.3126,14.0001
13:17:47.664,12.1875,11
13:17:47.694,11.625,9.375
13:17:47.696,10.375,8.625
13:17:47.698,9.3125,6.8125
13:17:47.706,9.875,3.875
13:17:47.707,8.5625,1.625
13:17:47.715,7.4375,0.375
13:17:47.727,6.8125,-1.625
13:17:47.736,6.25,-3.4375
13:17:47.746,5.75,-5.0625
13:17:47.761,5.3125,-7.125
13:17:47.769,4.875,-8.3125
13:17:47.775,3.4375,-10.4375
13:17:47.785,2.9375,-11.9375
13:17:47.795,2.75,-12.875
13:17:47.805,1.5,-15.7501
13:17:47.815,0.9375,-16.9376
13:17:47.825,0.875,-18.3751
13:17:47.835,-0.25,-18.9376
13:17:47.846,0.125,-21.1876
13:17:47.855,-1.375,-23.5626
13:17:47.866,-2.125,-25.4376
13:17:47.875,-2.625,-25.5001
13:17:47.885,-2.8125,-28.0626
13:17:47.895,-3.5625,-30.3126
13:17:47.905,-4.8125,-31.0626
13:17:47.916,-4.6875,-32.8751
13:17:47.926,-5.3125,-34.0001
13:17:47.936,-5.625,-35.9376
13:17:47.945,-6.6875,-37.7501
13:17:47.955,-7.75,-38.7501
13:17:47.965,-8,-40.2502
13:17:47.978,-8.75,-43.6252
13:17:47.993,-9.875,-45.2502
13:17:47.997,-10.5,-47.3752
13:17:48.012,-11.5625,-50.3127
13:17:48.027,-12.6875,-50.6877
13:17:48.029,-12.8125,-54.0002
13:17:48.045,-13.6876,-56.5002
13:17:48.047,-14.1251,-55.5627
13:17:48.055,-12.375,-52.6877
13:17:48.065,-8.375,-42.3127
13:17:48.076,-1.625,-27.3751
13:17:48.086,5.5625,-8.5625
13:17:48.096,11.5,7.8125
13:17:48.105,16.6251,22.6876
13:17:48.115,20.4376,33.1251
13:17:48.125,24.0001,41.8127
13:17:48.135,25.6876,47.1252
13:17:48.145,27.7501,51.8127
13:17:48.155,28.3126,54.5002
13:17:48.165,29.1876,57.6877
13:17:48.175,30.0626,58.7502
13:17:48.187,30.6251,60.8752
13:17:48.195,31.4376,62.1877
13:17:48.205,31.3126,62.1252
13:17:48.215,32.6876,63.4377
13:17:48.244,32.1251,63.9377
13:17:48.246,32.3751,63.4377
13:17:48.249,32.3751,64.0627
13:17:48.258,32.0001,64.6877
13:17:48.289,31.7501,63.6252
13:17:48.293,32.3126,64.1877
13:17:48.294,31.5001,62.4377
13:17:48.296,30.3126,59.5002
13:17:48.332,29.3751,58.6252
13:17:48.333,28.2501,54.9377
13:17:48.335,27.1251,52.6877
13:17:48.343,26.3126,50.6877
13:17:48.352,26.0626,47.5002
13:17:48.356,24.3751,44.8752
13:17:48.393,23.8751,44.0002
13:17:48.396,23.3751,43.2502
13:17:48.397,22.9376,41.1877
13:17:48.404,22.2501,39.0001
13:17:48.410,21.6876,38.4376
13:17:48.416,21.1876,39.3752
13:17:48.426,21.5001,38.6251
13:17:48.435,21.3126,36.5626
13:17:48.445,21.0626,35.1876
13:17:48.456,20.1876,34.7501
13:17:48.465,19.6876,33.4376
13:17:48.476,19.2501,32.8751
13:17:48.485,19.3126,30.3751
13:17:48.496,18.1251,28.1876
13:17:48.505,17.1251,27.3126
13:17:48.515,17.2501,25.5001
13:17:48.525,17.1876,23.6876
13:17:48.535,15.3751,21.6251
13:17:48.545,14.9376,21.1251
13:17:48.555,14.4376,18.4376
13:17:48.565,14.0001,16.8126
13:17:48.575,12.9375,14.1251
13:17:48.586,11.9375,12.1875
13:17:48.595,12.0625,10.5625
13:17:48.605,10.6875,8.5625
13:17:48.615,9.625,6.6875
13:17:48.625,9.4375,5.3125
13:17:48.635,9.25,2.9375
13:17:48.645,8.5625,0.875
13:17:48.655,7.5,-1.3125
13:17:48.665,6.9375,-2.3125
13:17:48.676,6.375,-3.25
13:17:48.686,6.0625,-5.8125
13:17:48.695,4.4375,-9.0625
13:17:48.705,3.875,-10.4375
13:17:48.715,3.625,-11.5625
13:17:48.729,3.375,-13.3751
13:17:48.735,2,-16.2501
13:17:48.745,1.3125,-17.8126
13:17:48.755,0.0625,-18.6251
13:17:48.765,-0.5625,-18.8751
13:17:48.775,0.375,-21.5001
13:17:48.785,-1.25,-23.2501
13:17:48.796,-2.375,-25.1876
13:17:48.806,-2.3125,-26.2501
13:17:48.815,-3.8125,-29.3751
13:17:48.826,-4.25,-31.2501
13:17:48.852,-4.5625,-33.0626
13:17:48.854,-5.5625,-36.1876
13:17:48.856,-6.6875,-36.6251
13:17:48.865,-6.375,-38.4376
13:17:48.875,-7.25,-40.1252
13:17:48.885,-6.4375,-38.3126
13:17:48.895,-2.8125,-30.7501
13:17:48.905,1.1875,-18.7501
13:17:48.915,7.4375,-3.875
13:17:48.925,13,10.4375
13:17:48.960,17.6251,22.5626
13:17:48.960,21.5626,33.7501
13:17:48.964,23.6251,41.6252
13:17:48.966,26.2501,48.4377
13:17:49.002,27.6251,52.4377
13:17:49.003,29.5626,56.8127
13:17:49.005,30.6251,58.8127
13:17:49.008,31.6876,61.1877
13:17:49.038,31.7501,62.6252
13:17:49.040,32.5626,64.5002
13:17:49.043,32.7501,65.0002
13:17:49.050,33.0626,64.3752
13:17:49.064,32.5626,65.7503
13:17:49.070,32.6251,65.6878
13:17:49.096,32.9376,65.8753
13:17:49.100,32.6251,64.8752
13:17:49.103,32.6876,65.6253
13:17:49.106,31.6876,63.3752
13:17:49.115,31.0001,62.0002
13:17:49.125,30.1876,59.6877
13:17:49.136,29.3751,56.9377
13:17:49.145,28.5626,54.3752
13:17:49.156,26.6876,51.3127
13:17:49.165,25.6876,49.3752
13:17:49.175,25.3751,47.6877
13:17:49.186,24.6876,45.2502
13:17:49.195,23.8751,43.9377
13:17:49.205,22.9376,42.6877
13:17:49.216,23.8126,42.5627
13:17:49.225,22.9376,41.6252
13:17:49.235,22.9376,40.4377
13:17:49.246,22.0626,39.5627
13:17:49.255,21.8751,39.5627
13:17:49.266,22.0626,39.0002
13:17:49.275,21.6251,36.4376
13:17:49.285,21.2501,35.0626
13:17:49.296,20.0626,33.8751
13:17:49.311,19.4376,32.1251
13:17:49.338,18.4376,29.6251
13:17:49.341,17.5626,28.1876
13:17:49.355,16.5626,27.1876
13:17:49.358,16.0626,25.0001
13:17:49.362,15.6251,21.8751
13:17:49.365,14.6251,20.8126
13:17:49.375,14.0001,19.1876
13:17:49.385,13,16.3751
13:17:49.395,12.5,13.3751
13:17:49.405,11.3125,11.25
13:17:49.416,10.4375,10.125
13:17:49.424,10.25,7.25
13:17:49.435,9.0625,4.125
13:17:49.445,8,2
13:17:49.455,7,0.75
13:17:49.465,6.5625,-2.1875
13:17:49.475,5.6875,-3
13:17:49.491,4.5625,-7.25
13:17:49.496,4.4375,-8.75
13:17:49.506,4,-10.5625
13:17:49.515,2.75,-12.5
13:17:49.525,2,-14.6251
13:17:49.536,1.0625,-15.6251
13:17:49.545,0.75,-17.8751
13:17:49.555,-0.1875,-20.1251
13:17:49.565,-0.8125,-21.8751
13:17:49.575,-1.8125,-23.1251
13:17:49.585,-2.6875,-25.5001
13:17:49.595,-2.5625,-27.9376
13:17:49.605,-4.0625,-30.3126
13:17:49.615,-4.6875,-31.9376
13:17:49.625,-5.5625,-34.1876
13:17:49.636,-6.375,-35.6876
13:17:49.645,-6.3125,-37.7501
13:17:49.655,-8.5,-41.3127
13:17:49.685,-9.1875,-42.9377
13:17:49.689,-9.8125,-44.8127
13:17:49.690,-11.125,-48.1877
13:17:49.696,-11.1875,-50.0002
13:17:49.730,-11.375,-48.1877
13:17:49.731,-9.5,-44.3752
13:17:49.734,-5.1875,-34.0001
13:17:49.738,0.8125,-18.0001
13:17:49.771,7.75,-3.125
13:17:49.774,13.0625,12.0625
13:17:49.776,17.2501,24.8751
13:17:49.781,21.3126,33.9376
13:17:49.787,23.7501,42.0627
13:17:49.818,25.4376,46.9377
13:17:49.820,27.4376,52.0627
13:17:49.822,28.0626,54.4377
13:17:49.826,29.1251,57.3752
13:17:49.843,29.1251,58.5002
13:17:49.848,30.3751,59.8752
13:17:49.855,30.0626,61.3127
13:17:49.867,30.6251,61.3127
13:17:49.875,30.8126,62.6252
13:17:49.885,29.9376,61.1877
13:17:49.895,30.6251,61.8752
13:17:49.906,29.8751,60.7502
13:17:49.915,29.5626,61.4377
13:17:49.925,29.0001,59.4377
13:17:49.935,27.8751,56.8752
13:17:49.946,27.1876,54.8752
13:17:49.955,25.5626,51.9377
13:17:49.965,24.0626,49.8752
13:17:49.976,23.8751,46.3752
13:17:49.986,22.4376,42.8127
13:17:49.995,21.1251,40.0002
13:17:50.005,20.7501,38.4376
13:17:50.016,20.1251,38.1876
13:17:50.025,20.1876,36.3751
13:17:50.035,19.0001,33.6876
13:17:50.045,19.1876,34.2501
13:17:50.055,19.0001,33.8126
13:17:50.065,18.5626,33.0626
13:17:50.075,17.8126,32.5626
13:17:50.085,17.3751,31.8126
13:17:50.095,17.2501,29.6876
13:17:50.105,16.6251,28.0001
13:17:50.132,15.6251,27.6251
13:17:50.133,15.3126,25.5001
13:17:50.139,14.1876,22.3751
13:17:50.146,13.6876,20.6251
13:17:50.155,12.3125,19.5626
13:17:50.165,12.4375,17.8751
13:17:50.176,11.5,14.8751
13:17:50.185,10.875,12.5
13:17:50.195,9.9375,12.25
13:17:50.205,8.5,8.8125
13:17:50.215,8.1875,6
13:17:50.226,7.9375,3.8125
13:17:50.242,5.9375,-0.6875
13:17:50.245,5,-2.9375
13:17:50.255,3.3125,-4.125
13:17:50.265,2.3125,-7
13:17:50.275,1.875,-10.3125
13:17:50.286,0.375,-13
13:17:50.296,0.875,-15.1251
13:17:50.305,-0.5625,-17.7501
13:17:50.316,-1.5625,-20.5001
13:17:50.325,-2.8125,-22.4376
13:17:50.335,-3.9375,-24.8751
13:17:50.345,-4.75,-27.3126
13:17:50.355,-5.9375,-29.6876
13:17:50.366,-6.5625,-31.5001
13:17:50.375,-6.5625,-33.6251
13:17:50.385,-8.125,-36.8126
13:17:50.395,-8,-38.0626
13:17:50.405,-9.6875,-40.6252
13:17:50.445,-10.75,-42.3752
13:17:50.447,-10.875,-44.1252
13:17:50.449,-12.5625,-47.1252
13:17:50.473,-12.875,-48.2502
13:17:50.473,-13.7501,-51.5002
13:17:50.475,-13.8751,-52.5627
13:17:50.481,-15.3751,-55.5002
13:17:50.509,-16.2501,-58.8127
13:17:50.509,-16.5626,-59.5627
13:17:50.513,-17.9376,-63.0627
13:17:50.536,-18.0001,-65.3127
13:17:50.541,-19.1876,-66.8753
13:17:50.543,-20.0001,-71.0003
13:17:50.547,-20.4376,-71.7503
13:17:50.576,-21.6876,-75.2503
13:17:50.578,-22.0001,-74.8753
13:17:50.580,-20.6876,-72.2503
13:17:50.608,-17.7501,-64.3752
13:17:50.610,-10.875,-48.1877
13:17:50.625,-3.3125,-26.3126
13:17:50.640,5.4375,-5.0625
13:17:50.640,12.1875,13.3751
13:17:50.641,16.6251,26.5626
13:17:50.657,20.5001,37.2501
13:17:50.660,23.0626,44.7502
13:17:50.665,25.1251,50.1877
13:17:50.675,26.4376,54.6877
13:17:50.685,26.9376,56.0627
13:17:50.697,27.8751,58.4377
13:17:50.705,27.8126,58.7502
13:17:50.716,28.4376,60.1252
13:17:50.725,28.0001,58.6877
13:17:50.735,27.5626,59.9377
13:17:50.745,28.0626,59.5002
13:17:50.755,28.3751,58.9377
13:17:50.765,27.4376,57.9377
13:17:50.779,27.4376,56.7502
13:17:50.786,26.4376,55.1877
13:17:50.795,25.3751,53.8127
13:17:50.805,25.0626,51.5002
13:17:50.815,22.7501,48.0002
13:17:50.825,22.0626,44.5002
13:17:50.835,20.3751,40.6877
13:17:50.845,19.1876,38.0001
13:17:50.855,18.3751,35.3126
13:17:50.865,17.3126,33.7501
13:17:50.875,16.6876,31.3751
13:17:50.885,16.1876,30.5001
13:17:50.895,16.6876,29.2501
13:17:50.905,15.4376,29.1251
13:17:50.915,15.7501,28.6876
13:17:50.925,15.2501,27.6251
13:17:50.935,15.3126,26.4376
13:17:50.945,14.5001,26.1876
13:17:50.955,14.7501,25.8126
13:17:50.965,14.1876,24.0626
13:17:50.975,14.0001,23.0626
13:17:50.985,12.875,21.5001
13:17:50.996,12.75,20.5001
13:17:51.005,11.75,18.5001
13:17:51.015,11.5625,15.6876
13:17:51.025,10.3125,14.6876
13:17:51.035,9.6875,11.6875
13:17:51.045,9.0625,9.75
13:17:51.057,8.125,7.0625
13:17:51.066,7.3125,5.25
13:17:51.075,6.3125,2.375
13:17:51.085,5.375,-0.0625
13:17:51.095,4.75,-1.75
13:17:51.106,3.9375,-5.6875
13:17:51.116,3.5625,-6.3125
13:17:51.125,2,-10.125
13:17:51.136,0.8125,-12.6875
13:17:51.145,0,-14.6876
13:17:51.155,-1,-18.1876
13:17:51.186,-2.5,-20.6876
13:17:51.188,-2.875,-23.0626
13:17:51.190,-4.125,-26.8126
13:17:51.197,-4.875,-27.9376
13:17:51.225,-5.3125,-30.7501
13:17:51.229,-6.0625,-31.5001
13:17:51.230,-6.8125,-33.9376
13:17:51.236,-8.1875,-36.0001
13:17:51.264,-8.6875,-38.0001
13:17:51.267,-9.25,-39.0626
13:17:51.269,-9.125,-41.1252
13:17:51.302,-10.8125,-43.6252
13:17:51.304,-11.125,-46.3752
13:17:51.308,-12.1875,-48.3127
13:17:51.313,-12.8125,-51.5002
13:17:51.322,-14.1251,-53.8127
13:17:51.327,-15.0626,-57.7502
13:17:51.348,-15.8126,-59.8752
13:17:51.351,-17.1251,-61.3127
13:17:51.355,-16.3751,-62.3752
13:17:51.368,-16.0001,-58.5002
13:17:51.375,-12.4375,-51.8752
13:17:51.413,-6.3125,-35.7501
13:17:51.413,0.9375,-17.1251
13:17:51.417,8.5625,3.25
13:17:51.425,14.8126,19.5001
13:17:51.430,19.3126,32.8126
13:17:51.440,22.2501,42.4377
13:17:51.451,25.2501,49.7502
13:17:51.462,27.0001,55.2502
13:17:51.471,29.4376,59.5627
13:17:51.480,30.1876,63.3752
13:17:51.490,30.3126,64.2502
13:17:51.500,31.1251,67.0628
13:17:51.510,31.5001,67.4378
13:17:51.521,31.9376,68.1253
13:17:51.530,32.0626,69.0628
13:17:51.540,31.9376,70.2503
13:17:51.550,32.1876,71.6253
13:17:51.560,32.5001,70.9378
13:17:51.570,33.3126,70.1878
13:17:51.580,32.0001,68.2503
13:17:51.591,31.2501,67.9378
13:17:51.600,29.8751,64.8752
13:17:51.610,28.6876,62.0627
13:17:51.620,29.0001,59.3752
13:17:51.630,26.4376,57.0002
13:17:51.640,25.1876,54.2502
13:17:51.650,24.1251,50.2502
13:17:51.660,23.1876,48.7502
13:17:51.670,23.0001,46.5002
13:17:51.685,22.0001,43.6252
13:17:51.695,21.1876,42.5002
13:17:51.705,21.0001,41.4377
13:17:51.715,19.4376,40.3752
13:17:51.725,20.1876,39.1876
13:17:51.735,19.5001,37.9376
13:17:51.746,17.8126,36.9376
13:17:51.755,17.4376,35.1251
13:17:51.766,17.1251,33.2501
13:17:51.775,16.8126,31.1251
13:17:51.785,16.3126,29.6251
13:17:51.797,14.8126,27.9376
13:17:51.805,13.3751,26.5626
13:17:51.819,13.2501,23.7501
13:17:51.825,13.3126,22.3751
13:17:51.858,12.25,19.6251
13:17:51.860,11.25,16.5626
13:17:51.862,10.625,16.1251
13:17:51.891,9.875,12.4375
13:17:51.921,8.5,10.375
13:17:51.923,8.125,7.5625
13:17:51.957,6.875,3.375
13:17:51.957,5.875,2.5
13:17:51.957,4.75,-0.875
13:17:51.990,4.8125,-2.8125
13:17:51.992,3.75,-6.1875
13:17:52.008,2.1875,-7.75
13:17:52.012,1.625,-10.9375
13:17:52.012,0.5625,-13.2501
13:17:52.013,0.25,-15.1251
13:17:52.025,-0.875,-17.3751
13:17:52.028,-1.9375,-20.6251
13:17:52.043,-3.0625,-22.5626
13:17:52.044,-3.1875,-24.5001
13:17:52.058,-4.1875,-27.0001
13:17:52.061,-4.625,-28.3126
13:17:52.070,-5.8125,-31.1251
13:17:52.080,-6.6875,-33.1251
13:17:52.090,-7.75,-36.8751
13:17:52.100,-7.625,-38.5626
13:17:52.110,-9.0625,-41.2502
13:17:52.120,-10.75,-44.5627
13:17:52.131,-10.875,-45.4377
13:17:52.140,-11.0625,-46.4377
13:17:52.150,-9.9375,-43.1877
13:17:52.160,0.5625,-18.6876
13:17:52.170,7.125,-1.375
13:17:52.180,13.6251,15.2501
13:17:52.190,18.8126,29.1876
13:17:52.200,23.0626,41.3127
13:17:52.210,26.5626,50.6877
13:17:52.221,28.8126,58.5002
13:17:52.230,31.3126,64.4377
13:17:52.241,32.8751,69.6878
13:17:52.250,34.6876,72.6878
13:17:52.261,35.4376,76.6878
13:17:52.272,35.9376,77.6253
13:17:52.281,36.8751,81.5628
13:17:52.290,37.4376,81.8128
13:17:52.301,38.2501,84.6878
13:17:52.310,37.6251,84.5003
13:17:52.321,38.0626,85.5628
13:17:52.330,38.1251,86.9378
13:17:52.340,38.9376,87.0628
13:17:52.350,38.3751,86.1878
13:17:52.360,37.7501,86.0003
13:17:52.371,37.3751,83.8753
13:17:52.380,36.0626,81.5003
13:17:52.391,34.9376,78.5628
13:17:52.400,33.6251,77.6253
13:17:52.410,32.6876,72.4378
13:17:52.420,31.5001,69.1878
13:17:52.430,30.2501,67.5003
13:17:52.440,29.6251,66.4378
13:17:52.450,28.8126,62.8127
13:17:52.460,28.2501,61.4377
13:17:52.470,27.8126,59.8127
13:17:52.480,27.3126,58.8127
13:17:52.493,28.0001,58.0627
13:17:52.502,27.1251,57.5627
13:17:52.511,26.1876,56.8752
13:17:52.520,26.1876,55.6877
13:17:52.530,25.5626,53.8127
13:17:52.556,25.1876,52.1877
13:17:52.558,24.8751,50.7502
13:17:52.561,23.6876,48.0627
13:17:52.589,22.1876,46.8127
13:17:52.592,21.6876,44.5627
13:17:52.595,21.2501,41.4377
13:17:52.601,19.8751,39.3127
13:17:52.627,19.6251,37.1251
13:17:52.629,18.5001,34.6876
13:17:52.632,17.1251,32.1251
13:17:52.657,16.1876,29.7501
13:17:52.659,15.7501,26.0001
13:17:52.662,14.6251,24.3126
13:17:52.692,13.6876,20.5626
13:17:52.694,12.875,18.5001
13:17:52.695,11.875,15.7501
13:17:52.702,10.375,12.8125
13:17:52.716,9,9.8125
13:17:52.722,7.6875,6.8125
13:17:52.730,7.1875,4.25
13:17:52.741,6.625,0.8125
13:17:52.750,5.5625,-1.6875
13:17:52.760,4.125,-3.625
13:17:52.770,3.5625,-6.1875
13:17:52.780,2.6875,-8.375
13:17:52.790,1.4375,-11.25
13:17:52.800,1,-12.8125
13:17:52.810,0,-15.4376
13:17:52.820,-1.125,-16.5626
13:17:52.830,-2.0625,-18.8126
13:17:52.840,-2.0625,-21.6251
13:17:52.850,-3.0625,-24.1251
13:17:52.860,-3.8125,-26.6876
13:17:52.870,-4.9375,-29.6251
13:17:52.880,-6.1875,-31.0626
13:17:52.890,-7.25,-34.2501
13:17:52.901,-8.3125,-38.0626
13:17:52.910,-9.6875,-41.3127
13:17:52.920,-10.125,-42.1877
13:17:52.930,-10,-42.5627
13:17:52.940,-7.9375,-37.1251
13:17:52.950,-3.3125,-27.1251
13:17:52.961,2.8125,-10.5
13:17:52.970,10.125,6.875
13:17:52.980,16.1876,24.4376
13:17:52.990,21.6251,37.5626
13:17:53.000,26.0001,50.0627
13:17:53.010,28.3126,60.9377
13:17:53.020,31.9376,67.4378
13:17:53.030,33.6876,76.0003
13:17:53.040,36.3126,80.1253
13:17:53.050,38.5626,85.1253
13:17:53.060,39.1251,89.7503
13:17:53.070,40.4377,93.0004
13:17:53.080,41.0002,97.0629
13:17:53.091,42.5627,98.6879
13:17:53.100,43.2502,102.1879
13:17:53.110,43.3127,103.2504
13:17:53.120,44.1877,106.5629
13:17:53.130,43.8752,107.4379
13:17:53.140,45.0627,109.1254
13:17:53.150,44.9377,109.0629
13:17:53.160,44.4377,109.1254
13:17:53.170,44.1252,108.8129
13:17:53.181,42.8752,107.1879
13:17:53.190,42.4377,104.3129
13:17:53.200,40.8127,100.4379
13:17:53.210,38.6876,98.1254
13:17:53.220,37.8751,93.9379
13:17:53.230,36.0626,90.7504
13:17:53.244,34.7501,88.5003
13:17:53.252,34.0626,84.5628
13:17:53.260,33.6251,83.8128
13:17:53.290,33.1251,82.7503
13:17:53.325,32.4064,81.4378
13:17:53.358,32.3126,80.0628
13:17:53.361,31.5939,77.8128
13:17:53.363,30.5626,77.8753
13:17:53.364,30.7501,75.3753
13:17:53.364,29.5939,74.6253
13:17:53.400,28.9064,72.5003
13:17:53.404,28.4376,69.4378
13:17:53.405,27.0939,68.0628
13:17:53.406,26.3126,65.3752
13:17:53.442,25.3438,62.8752
13:17:53.442,24.3126,60.6252
13:17:53.444,23.8751,57.4377
13:17:53.453,21.9688,54.3127
13:17:53.454,21.7501,51.6252
13:17:53.460,20.4688,49.0627
13:17:53.470,19.0938,46.1252
13:17:53.481,18.0626,43.0627
13:17:53.490,16.0938,39.3127
13:17:53.501,15.2188,36.1251
13:17:53.510,14.3751,33.8126
13:17:53.520,13.1876,29.8751
13:17:53.531,9.3438,20.2501
13:17:53.540,8.3125,16.2501
13:17:53.550,7.7188,13.3126
13:17:53.560,5.9375,10.25
13:17:53.570,4.7188,7.375
13:17:53.581,3.7188,4.0625
13:17:53.591,2.6875,1.625
13:17:53.601,0.875,-2.4375
13:17:53.610,0.0938,-4.875
13:17:53.620,-1.5625,-7.0625
13:17:53.630,-1.7188,-11.3125
13:17:53.640,-3.1563,-13.5001
13:17:53.650,-3.8438,-16.6876
13:17:53.660,-5.0625,-19.0001
13:17:53.670,-6.0938,-21.0626
13:17:53.680,-7.1563,-23.0001
13:17:53.691,-6.9375,-26.1251
13:17:53.700,-8.5313,-27.7501
13:17:53.710,-9.25,-31.0001
13:17:53.721,-10.1875,-34.0626
13:17:53.730,-11.2813,-36.7501
13:17:53.740,-11.9375,-38.7501
13:17:53.750,-13.1875,-42.6877
13:17:53.760,-15.0001,-45.1252
13:17:53.770,-16.0626,-48.6877
13:17:53.780,-17.1251,-52.1877
13:17:53.790,-17.2813,-54.8127
13:17:53.800,-19.2501,-57.1877
13:17:53.810,-19.2813,-60.3752
13:17:53.821,-19.3438,-58.3752
13:17:53.830,-16.4376,-53.3752
13:17:53.840,-11.9063,-39.1876
13:17:53.852,-3.5,-21.9376
13:17:53.860,3.375,-0.625
13:17:53.870,10.6563,16.0001
13:17:53.881,16.8126,32.2501
13:17:53.890,20.5626,45.9377
13:17:53.900,24.8438,55.9377
13:17:53.910,27.1564,63.9377
13:17:53.920,30.1564,71.1878
13:17:53.930,31.6564,77.0628
13:17:53.940,33.7501,82.0628
13:17:53.969,34.8126,85.6878
13:17:53.974,36.2814,90.1254
13:17:53.979,37.1251,93.6879
13:17:53.982,37.7189,95.1254
13:17:53.994,38.5001,98.8129
13:17:54.000,39.0627,99.1254
13:17:54.010,39.3751,102.2504
13:17:54.035,39.5314,103.7504
13:17:54.037,40.9064,104.4379
13:17:54.040,39.6877,104.6254
13:17:54.068,39.8127,105.2504
13:17:54.070,38.7814,103.0629
13:17:54.072,37.7814,100.8754
13:17:54.109,37.1564,98.3129
13:17:54.110,36.0939,96.0004
13:17:54.114,34.2501,92.2504
13:17:54.118,32.6876,88.8128
13:17:54.123,31.7501,86.1878
13:17:54.153,30.6251,82.9378
13:17:54.155,29.9376,81.0003
13:17:54.157,29.3126,78.7503
13:17:54.162,27.9064,78.1253
13:17:54.189,27.5314,75.8128
13:17:54.192,27.0939,74.0003
13:17:54.195,26.9376,72.6253
13:17:54.202,26.3751,70.6253
13:17:54.210,25.1563,69.6253
13:17:54.220,24.3438,68.1253
13:17:54.230,23.8126,65.7503
13:17:54.240,22.5313,64.4377
13:17:54.250,22.1876,61.0627
13:17:54.261,21.1876,59.0627
13:17:54.270,20.6251,56.3752
13:17:54.280,19.5938,53.4377
13:17:54.291,18.5938,50.8127
13:17:54.300,17.4063,47.9377
13:17:54.310,15.8751,44.9377
13:17:54.322,14.9376,42.2502
13:17:54.330,13.7501,38.0626
13:17:54.340,12.25,34.6251
13:17:54.350,11.5,31.5001
13:17:54.361,10.25,27.6876
13:17:54.375,9.0938,24.8751
13:17:54.381,7.9375,21.5626
13:17:54.390,6.5313,19.3126
13:17:54.400,5.2188,15.4376
13:17:54.410,4.0625,11.4375
13:17:54.420,2.375,8.875
13:17:54.430,1.5625,4.25
13:17:54.440,-0.0313,1.25
13:17:54.453,-1.5625,-2.0625
13:17:54.460,-2.6563,-6.3125
13:17:54.470,-3.125,-8.875
13:17:54.480,-4.4688,-12.1875
13:17:54.490,-6.1563,-15.4376
13:17:54.501,-6.5,-18.7501
13:17:54.510,-8.5313,-21.5626
13:17:54.521,-8.875,-25.0001
13:17:54.530,-10.3125,-27.3751
13:17:54.540,-11.8125,-29.8751
13:17:54.550,-12.25,-33.8126
13:17:54.560,-14.0001,-36.7501
13:17:54.571,-14.6251,-39.2502
13:17:54.581,-15.5938,-43.4377
13:17:54.590,-16.5313,-45.4377
13:17:54.600,-18.0001,-49.3127
13:17:54.610,-18.6876,-51.6877
13:17:54.620,-19.7501,-53.1252
13:17:54.631,-20.2813,-57.2502
13:17:54.640,-20.3751,-59.1252
13:17:54.651,-21.8438,-61.5627
13:17:54.660,-22.7501,-64.9377
13:17:54.670,-23.3751,-66.5628
13:17:54.688,-24.1563,-69.9378
13:17:54.695,-24.7188,-71.3128
13:17:54.700,-26.0626,-74.0003
13:17:54.712,-26.7189,-77.3128
13:17:54.720,-27.3439,-78.6253
13:17:54.735,-27.2189,-81.8128
13:17:54.742,-28.7814,-82.6878
13:17:54.774,-29.2814,-85.5628
13:17:54.780,-28.7501,-85.6253
13:17:54.783,-27.2189,-81.3753
13:17:54.798,-23.1251,-69.8128
13:17:54.800,-16.0313,-51.6252
13:17:54.811,-6.8438,-26.0626
13:17:54.811,2.125,-2.9375
13:17:54.842,8.375,16.3126
13:17:54.844,14.0626,31.7501
13:17:54.846,18.4376,43.9377
13:17:54.851,21.0001,52.5002
13:17:54.881,23.2813,60.0627
13:17:54.884,25.2188,64.8752
13:17:54.886,26.6564,68.7503
13:17:54.893,27.9376,72.3753
13:17:54.930,27.6251,73.3128
13:17:54.933,28.3751,75.2503
13:17:54.935,28.2189,77.6878
13:17:54.940,29.6876,77.9378
13:17:54.941,28.9376,78.2503
13:17:54.971,29.5939,78.6878
13:17:54.973,28.8751,80.6878
13:17:54.976,28.8439,78.5003
13:17:54.980,28.0314,78.2503
13:17:54.990,27.4376,75.8128
13:17:55.000,25.5001,73.0628
13:17:55.010,24.8438,70.6253
13:17:55.020,23.5626,66.8128
13:17:55.030,23.1876,63.3127
13:17:55.040,21.6563,60.1877
13:17:55.050,20.2188,57.5002
13:17:55.060,18.6251,55.2502
13:17:55.070,18.5626,52.4377
13:17:55.080,18.3751,50.1877
13:17:55.091,17.8751,48.5002
13:17:55.100,17.0938,47.5627
13:17:55.110,16.5001,46.9377
13:17:55.120,16.2501,46.0002
13:17:55.136,16.6251,44.8127
13:17:55.141,15.4063,44.5002
13:17:55.151,15.5938,42.3752
13:17:55.160,14.0938,41.3752
13:17:55.170,14.3751,39.3752
13:17:55.180,13.6251,37.6251
13:17:55.190,12.3125,35.7501
13:17:55.200,11.6563,32.8751
13:17:55.210,10.9063,30.1251
13:17:55.220,9.9375,27.8751
13:17:55.249,9.5938,24.7501
13:17:55.251,8.8125,23.3751
13:17:55.255,6.8438,20.5626
13:17:55.261,6.5625,18.2501
13:17:55.270,5.4688,14.5001
13:17:55.280,4.8125,11.625
13:17:55.290,3.25,9.0625
13:17:55.301,2.3438,5.125
13:17:55.311,1.4375,2.3125
13:17:55.320,0.8438,-0.6875
13:17:55.330,-0.9063,-3.375
13:17:55.340,-1.5313,-6.6875
13:17:55.350,-3.5625,-9.5625
13:17:55.361,-4.25,-12.5
13:17:55.370,-4.6875,-16.3126
13:17:55.380,-6.1875,-18.1251
13:17:55.390,-6.9375,-22.0626
13:17:55.400,-8.6875,-25.3751
13:17:55.410,-9.3125,-27.9376
13:17:55.420,-10,-30.9376
13:17:55.430,-10.5313,-33.3126
13:17:55.441,-11.4063,-35.8126
13:17:55.455,-12.8125,-38.5626
13:17:55.465,-13.4688,-41.0627
13:17:55.475,-14.5938,-43.6252
13:17:55.485,-15.8438,-44.4377
13:17:55.495,-15.8126,-48.4377
13:17:55.511,-16.3126,-50.3752
13:17:55.516,-17.5938,-52.5627
13:17:55.525,-17.8126,-55.1877
13:17:55.535,-19.3751,-57.5002
13:17:55.545,-19.8126,-60.2502
13:17:55.556,-20.8751,-62.1252
13:17:55.590,-21.7813,-65.3128
13:17:55.592,-22.1563,-66.9378
13:17:55.594,-23.5626,-69.6253
13:17:55.596,-24.0313,-72.2503
13:17:55.632,-24.8438,-75.8753
13:17:55.635,-26.6251,-78.9378
13:17:55.637,-26.1563,-81.9378
13:17:55.640,-26.4689,-82.5628
13:17:55.645,-25.7813,-80.7503
13:17:55.656,-22.8126,-73.0628
13:17:55.692,-17.3438,-57.4377
13:17:55.696,-8.5,-34.8126
13:17:55.698,-0.0938,-11.9375
13:17:55.700,7,8.5
13:17:55.705,12.8438,25.0626
13:17:55.716,17.4063,38.6251
13:17:55.731,21.0001,49.3752
13:17:55.737,23.5938,56.7502
13:17:55.745,25.5313,62.8127
13:17:55.755,26.8439,67.7503
13:17:55.765,28.2814,70.0628
13:17:55.775,28.4064,73.3753
13:17:55.785,29.0626,74.3753
13:17:55.795,29.0626,75.3753
13:17:55.805,29.6251,75.3128
13:17:55.815,29.6251,77.8128
13:17:55.825,29.8126,77.1253
13:17:55.835,30.2189,78.1878
13:17:55.845,29.9064,78.3128
13:17:55.855,29.6876,78.3753
13:17:55.865,28.9376,76.3753
13:17:55.876,28.3439,74.3753
13:17:55.887,28.1564,71.8753
13:17:55.895,26.1876,69.6878
13:17:55.905,24.9063,66.1878
13:17:55.915,23.9688,62.3752
13:17:55.925,22.2813,59.4377
13:17:55.935,21.2501,55.6877
13:17:55.945,19.6876,53.3752
13:17:55.955,19.1251,50.9377
13:17:55.965,18.5938,49.2502
13:17:55.975,18.8126,48.1252
13:17:55.985,17.8438,46.1252
13:17:55.995,16.6563,45.1877
13:17:56.005,17.1876,44.6252
13:17:56.015,16.3438,43.9377
13:17:56.025,15.9063,42.4377
13:17:56.040,15.4688,40.0002
13:17:56.045,14.4688,38.5001
13:17:56.089,14.3438,37.7501
13:17:56.093,13.2501,34.7501
13:17:56.112,12.7188,32.6876
13:17:56.115,11.875,29.1876
13:17:56.127,10.0938,27.1876
13:17:56.128,9.9688,24.3126
13:17:56.141,8.0938,20.9376
13:17:56.142,7.1875,17.5001
13:17:56.146,6.0625,14.1876
13:17:56.147,5.1875,12.0625
13:17:56.155,3.5,8.8125
13:17:56.165,3.0313,6.1875
13:17:56.175,1.7188,2.875
13:17:56.185,1.8125,0
13:17:56.195,0.5313,-2.9375
13:17:56.206,-1,-6.75
13:17:56.215,-2.2188,-8.9375
13:17:56.225,-3.3125,-12.75
13:17:56.235,-4.7188,-16.8126
13:17:56.245,-6.0625,-18.8751
13:17:56.268,-6.875,-22.6251
13:17:56.270,-8.3438,-25.2501
13:17:56.286,-9.4688,-29.6876
13:17:56.289,-10.75,-32.7501
13:17:56.316,-11.8438,-35.3126
13:17:56.319,-12.5625,-38.6251
13:17:56.322,-13.8126,-41.3127
13:17:56.327,-13.5626,-43.4377
13:17:56.336,-14.9063,-46.1877
13:17:56.369,-15.3438,-47.5627
13:17:56.372,-16.3126,-49.8752
13:17:56.374,-16.8126,-51.0627
13:17:56.377,-17.3751,-54.7502
13:17:56.407,-18.6876,-56.9377
13:17:56.409,-19.3438,-59.6877
13:17:56.413,-19.8126,-62.2502
13:17:56.419,-21.1876,-64.2502
13:17:56.445,-21.8438,-68.0628
13:17:56.448,-22.6251,-70.3128
13:17:56.450,-23.0313,-71.1878
13:17:56.455,-24.3438,-75.0003
13:17:56.465,-24.8438,-75.9378
13:17:56.475,-25.0938,-78.9378
13:17:56.485,-25.9688,-80.6878
13:17:56.496,-26.8439,-83.3128
13:17:56.505,-26.0938,-82.6253
13:17:56.532,-25.1251,-80.9378
13:17:56.532,-22.6563,-72.0628
13:17:56.535,-15.6876,-55.8752
13:17:56.546,-7.6875,-31.9376
13:17:56.555,1.375,-7.8125
13:17:56.565,8.9375,12.125
13:17:56.575,14.6876,30.5001
13:17:56.586,19.6251,43.6252
13:17:56.595,22.8751,54.5002
13:17:56.605,25.4063,63.6877
13:17:56.615,28.1876,70.0003
13:17:56.625,29.7814,74.8753
13:17:56.635,30.8126,80.1253
13:17:56.645,32.2814,83.1253
13:17:56.655,33.3126,85.7503
13:17:56.666,34.9064,87.9378
13:17:56.675,35.6564,91.4379
13:17:56.685,35.8126,92.0629
13:17:56.695,35.7814,94.1879
13:17:56.706,35.3126,95.5004
13:17:56.715,35.7814,95.4379
13:17:56.725,35.7814,95.4379
13:17:56.735,35.1251,94.1879
13:17:56.745,33.9689,93.3754
13:17:56.755,33.1564,90.8129
13:17:56.765,31.9376,88.3128
13:17:56.775,30.9689,85.9378
13:17:56.785,29.4689,81.0003
13:17:56.795,28.6564,78.3753
13:17:56.805,27.5001,75.6878
13:17:56.816,25.6563,72.6878
13:17:56.825,25.3438,70.1253
13:17:56.835,23.8126,67.6253
13:17:56.845,23.1876,65.9378
13:17:56.855,22.3438,63.3752
13:17:56.865,21.8751,62.6252
13:17:56.875,21.2501,61.5002
13:17:56.885,20.6251,58.0627
13:17:56.895,20.2188,57.6877
13:17:56.906,19.5626,55.2502
13:17:56.915,18.6876,53.3127
13:17:56.945,17.4376,51.2502
13:17:56.947,17.2501,49.1252
13:17:56.950,16.4688,46.9377
13:17:56.957,15.1251,44.8127
13:17:56.984,14.4063,43.0627
13:17:56.988,13.6563,39.3752
13:17:56.988,12.75,37.4376
13:17:57.012,11.2813,33.9376
13:17:57.014,10.5625,30.5001
13:17:57.016,9.25,28.0001
13:17:57.050,8.1875,23.8126
13:17:57.052,7.1563,21.0001
13:17:57.054,5.8125,16.5626
13:17:57.087,4.5625,13.5626
13:17:57.088,3.3125,10
13:17:57.090,1.9375,7.4375
13:17:57.097,1,4.125
13:17:57.098,-0.125,-0.5625
13:17:57.106,-1.7813,-3.625
13:17:57.115,-2.625,-5.5625
13:17:57.125,-3.125,-9.3125
13:17:57.135,-4.1563,-11.6875
13:17:57.145,-5.4063,-15.2501
13:17:57.155,-6,-17.8126
13:17:57.167,-6.9375,-21.1876
13:17:57.175,-7.8438,-23.3126
13:17:57.185,-9.0313,-26.0001
13:17:57.195,-9.9063,-29.9376
13:17:57.208,-11.0938,-32.8126
13:17:57.216,-11.7188,-36.0001
13:17:57.225,-12.9375,-38.1876
13:17:57.235,-13.8438,-41.2502
13:17:57.245,-15.1563,-43.2502
13:17:57.255,-15.6876,-46.8752
13:17:57.265,-15.9063,-49.0002
13:17:57.275,-17.7813,-51.0627
13:17:57.285,-17.3438,-53.6877
13:17:57.295,-18.5626,-56.4377
13:17:57.305,-19.9063,-58.0627
13:17:57.316,-20.3126,-61.3127
13:17:57.325,-21.0313,-63.8127
13:17:57.335,-21.6563,-67.1253
13:17:57.345,-22.8751,-69.4378
13:17:57.355,-23.5938,-71.5003
13:17:57.377,-24.4376,-74.0003
13:17:57.383,-25.0313,-77.5628
13:17:57.387,-25.9688,-79.5003
13:17:57.395,-26.8751,-83.3128
13:17:57.425,-27.1251,-83.4378
13:17:57.428,-26.6564,-82.6878
13:17:57.442,-24.2813,-76.1878
13:17:57.445,-19.2813,-62.0627
13:17:57.460,-11.75,-39.5627
13:17:57.479,-2,-14.8751
13:17:57.483,5.9063,6.5625
13:17:57.485,11.8438,25.0001
13:17:57.486,17.2501,39.8752
13:17:57.495,20.9688,51.8127
13:17:57.506,24.1876,60.2502
13:17:57.515,26.0938,67.4378
13:17:57.525,27.5626,73.1878
13:17:57.535,30.0626,76.1253
13:17:57.545,30.0939,81.5003
13:17:57.555,31.3751,82.4378
13:17:57.566,33.0314,85.5003
13:17:57.578,32.6564,87.5003
13:17:57.585,32.7814,89.4378
13:17:57.595,33.0626,89.3128
13:17:57.606,33.3751,91.5004
13:17:57.616,33.6564,91.6879
13:17:57.625,33.4064,92.5004
13:17:57.635,32.8751,91.8129
13:17:57.645,32.6564,89.5628
13:17:57.656,31.6564,88.9378
13:17:57.666,30.8126,85.3128
13:17:57.675,29.4064,82.5003
13:17:57.685,28.5626,79.9378
13:17:57.709,26.9689,76.4378
13:17:57.713,25.9063,74.5003
13:17:57.721,25.5001,70.3128
13:17:57.729,24.0001,68.8128
13:17:57.749,23.5313,66.3128
13:17:57.751,22.7813,64.6877
13:17:57.775,22.0626,63.1252
13:17:57.777,21.2501,61.4377
13:17:57.779,21.0001,60.0627
13:17:57.813,20.5001,57.8752
13:17:57.815,20.2501,57.5627
13:17:57.817,19.4376,54.8752
13:17:57.820,18.9063,53.9377
13:17:57.826,18.1876,51.2502
13:17:57.853,17.4376,49.1877
13:17:57.855,16.2813,46.3752
13:17:57.879,15.1563,43.7502
13:17:57.883,14.3438,40.9377
13:17:57.884,12.7813,38.6876
13:17:57.889,12.3438,36.2501
13:17:57.901,11.125,32.8751
13:17:57.906,9.9375,29.6251
13:17:57.915,9.4063,26.7501
13:17:57.925,8.1875,22.9376
13:17:57.935,6.6563,20.6251
13:17:57.945,6.8125,17.3751
13:17:57.955,5.5313,14.8751
13:17:57.965,4.625,11.8125
13:17:57.975,3.125,9.3125
13:17:57.985,1.5313,4.5
13:17:57.996,0.875,1.625
13:17:58.005,-0.5625,-1.0625
13:17:58.015,-0.9063,-3.375
13:17:58.025,-1.5313,-4.5625
13:17:58.035,-2.375,-6
13:17:58.045,-1.7188,-6.5625
13:17:58.056,1.5,-2.5
13:17:58.065,3.75,2.3125
13:17:58.076,6.8438,8.0625
13:17:58.086,9.1875,11.8125
13:17:58.096,9.4375,10.5625
13:17:58.105,8.2188,9.5
13:17:58.115,7.2813,7.875
13:17:58.125,6.75,6.5
13:17:58.135,5.2188,3.1875
13:17:58.145,5.0625,0.9375
13:17:58.155,4.0625,1.0625
13:17:58.165,3.7188,-2
13:17:58.176,3.25,-4
13:17:58.185,2.5938,-5.5
13:17:58.195,2.25,-8.0625
13:17:58.206,1.7188,-9.75
13:17:58.215,1.625,-13.6251
13:17:58.226,0.8438,-13.4376
13:17:58.236,-0.375,-14.6876
13:17:58.245,1.3438,-15.8751
13:17:58.255,0.4375,-16.4376
13:17:58.265,0.1875,-16.9376
13:17:58.278,0.1563,-18.6251
13:17:58.285,-1.5625,-21.2501
13:17:58.295,-2.6563,-22.2501
13:17:58.306,-3.0938,-25.0626
13:17:58.315,-3.7188,-28.1876
13:17:58.325,-4.0625,-28.1251
13:17:58.335,-2.9063,-26.4376
13:17:58.345,-1.5938,-22.3751
13:17:58.355,2.0313,-11.1875
13:17:58.365,7.7188,0.5
13:17:58.375,13.2501,14.8751
13:17:58.385,18.1876,29.8751
13:17:58.415,23.1251,42.9377
13:17:58.417,25.6876,55.0002
13:17:58.420,29.6564,64.1252
13:17:58.429,31.2814,72.3753
13:17:58.457,32.7189,80.0628
13:17:58.459,35.5939,84.5003
13:17:58.461,36.7501,89.9378
13:17:58.468,37.4064,92.8129
13:17:58.496,38.7501,96.8754
13:17:58.497,39.5002,99.5004
13:17:58.500,40.2814,103.3754
13:17:58.507,41.8127,105.3129
13:17:58.532,41.4064,107.1254
13:17:58.534,42.3752,108.8754
13:17:58.537,42.4689,110.3129
13:17:58.569,42.1564,110.4379
13:17:58.571,42.0314,110.4379
13:17:58.574,41.7814,110.0004
13:17:58.580,41.2502,107.6879
13:17:58.586,39.3752,106.8754
13:17:58.595,38.5626,103.8129
13:17:58.605,37.8126,101.0004
13:17:58.615,37.2501,98.3754
13:17:58.625,36.3439,96.8129
13:17:58.635,35.1251,94.6879
13:17:58.646,34.0939,93.1879
13:17:58.655,33.7814,92.0629
13:17:58.665,33.0314,89.6878
13:17:58.675,32.9689,89.5003
13:17:58.693,32.2189,87.5628
13:17:58.700,31.8751,87.1878
13:17:58.709,31.9689,85.9378
13:17:58.715,30.7814,84.5003
13:17:58.732,30.3439,82.9378
13:17:58.748,29.4064,81.3128
13:17:58.750,28.2501,79.9378
13:17:58.763,27.9689,76.8128
13:17:58.766,27.1251,74.5003
13:17:58.781,26.1251,72.3753
13:17:58.797,25.0001,69.0628
13:17:58.799,23.5626,67.5003
13:17:58.807,23.0001,63.0002
13:17:58.816,21.8751,60.8127
13:17:58.825,20.9688,57.6877
13:17:58.835,20.2813,55.0002
13:17:58.845,19.0313,51.8127
13:17:58.855,17.6251,49.3127
13:17:58.865,17.0938,47.0002
13:17:58.875,16.2813,43.3127
13:17:58.885,14.5001,41.3127
13:17:58.896,13.7501,39.0626
13:17:58.905,13.8126,35.8126
13:17:58.915,11.9375,32.6251
13:17:58.925,10.7813,30.6251
13:17:58.935,10.0938,27.4376
13:17:58.945,8.7813,26.3126
13:17:58.955,8.4063,22.0001
13:17:58.965,7.3125,19.1876
13:17:58.976,6.6563,15.9376
13:17:58.985,5.75,13.5001
13:17:58.995,4.7188,11.9375
13:17:59.005,4.4375,8.6875
13:17:59.015,3.25,6.125
13:17:59.029,3.125,3.875
13:17:59.035,1.4375,2.6875
13:17:59.045,0.25,0.6875
13:17:59.055,1.1563,-2.25
13:17:59.065,-0.5938,-4.5625
13:17:59.090,-1.1563,-6.625
13:17:59.092,-1.75,-8.625
13:17:59.096,-2.5625,-11.125
13:17:59.106,-3.0313,-14.3751
13:17:59.115,-4.6875,-16.6251
13:17:59.125,-5.5,-19.8751
13:17:59.137,-6.25,-22.6251
13:17:59.146,-6.75,-23.9376
13:17:59.155,-6.7188,-25.5626
13:17:59.165,-7,-24.5001
13:17:59.175,-4.4375,-19.7501
13:17:59.185,-0.8438,-10.4375
13:17:59.201,3.875,2
13:17:59.206,9.0625,15.3126
13:17:59.237,12.8125,28.7501
13:17:59.242,17.6876,41.0002
13:17:59.242,20.4063,52.8752
13:17:59.250,24.0626,61.8752
13:17:59.257,27.5626,70.5628
13:17:59.288,28.1251,78.0003
13:17:59.289,30.5001,82.4378
13:17:59.291,32.4064,88.4378
13:17:59.297,32.5001,92.5004
13:17:59.327,34.1564,95.9379
13:17:59.330,34.6564,100.0004
13:17:59.331,34.9064,101.3129
13:17:59.340,35.5626,103.9379
13:17:59.348,35.6876,105.2504
13:17:59.377,36.2501,107.8129
13:17:59.379,36.4689,107.3754
13:17:59.381,35.9064,108.0004
13:17:59.386,35.4689,107.3754
13:17:59.395,34.3439,105.3754
13:17:59.405,33.3439,102.0629
13:17:59.417,31.7189,100.0004
13:17:59.426,31.1876,95.9379
13:17:59.435,29.4689,93.3129
13:17:59.445,28.2501,89.5628
13:17:59.461,27.6564,86.5003
13:17:59.470,25.9063,83.3753
13:17:59.480,25.0313,80.6253
13:17:59.490,24.5313,78.8753
13:17:59.500,23.9688,77.6878
13:17:59.510,23.6563,77.0003
13:17:59.520,23.4063,74.3753
13:17:59.530,22.7813,73.1253
13:17:59.540,22.6251,72.6253
13:17:59.550,22.9063,72.0628
13:17:59.560,22.2188,71.0628
13:17:59.570,22.0938,69.5003
13:17:59.580,21.1251,67.9378
13:17:59.590,20.4063,67.0628
13:17:59.600,20.1563,65.1252
13:17:59.610,19.9688,62.6252
13:17:59.620,18.4376,61.0002
13:17:59.630,17.7188,58.3127
13:17:59.642,17.0001,57.2502
13:17:59.651,16.4376,53.5627
13:17:59.660,15.7188,51.6877
13:17:59.670,13.9376,47.5002
13:17:59.680,13.2188,45.8752
13:17:59.691,12.2188,43.1252
13:17:59.700,11.4375,40.4377
13:17:59.710,10.3438,37.0001
13:17:59.720,9.8438,34.5626
13:17:59.730,8.2813,30.8751
13:17:59.740,7.75,29.0626
13:17:59.750,6.7188,25.3751
13:17:59.760,6.4063,23.3751
13:17:59.771,5.3125,20.2501
13:17:59.782,4.875,18.2501
13:17:59.790,3.7813,16.3126
13:17:59.801,2.75,13.1876
13:17:59.810,3.0313,11.1875
13:17:59.820,1.0625,8.875
13:17:59.830,0.75,5.875
13:17:59.841,-0.1875,3.375
13:17:59.850,-1.5313,1.125
13:17:59.862,-1.6563,-2.3125
13:17:59.872,-2.9375,-4.5625
13:17:59.881,-3.5,-6.8125
13:17:59.890,-3.875,-9.1875
13:17:59.901,-4.625,-11.3125
13:17:59.911,-5.9688,-14.0001
13:17:59.936,-6.2813,-16.0001
13:17:59.939,-7.125,-18.6876
13:17:59.941,-7.7813,-20.3751
13:17:59.982,-8.6563,-23.7501
13:17:59.983,-9.875,-25.9376
13:17:59.985,-9.5938,-28.6876
13:17:59.988,-11.375,-30.8126
13:17:59.994,-11.1563,-33.8126
13:18:00.004,-12.75,-36.1251
13:18:00.077,-12.7813,-37.5001
13:18:00.089,-12.6875,-37.8126
13:18:00.090,-11.125,-34.6251
13:18:00.090,-8.0625,-25.9376
13:18:00.110,-3.625,-15.0626
13:18:00.112,1.625,-0.125
13:18:00.112,6.1563,14.1876
13:18:00.112,10.7813,27.2501
13:18:00.127,14.9063,41.0627
13:18:00.144,19.0938,51.0627
13:18:00.147,22.3438,62.2502
13:18:00.161,24.9376,70.4378
13:18:00.176,27.5626,77.6878
13:18:00.177,29.0314,85.8128
13:18:00.180,31.1876,90.3129
13:18:00.183,33.0001,97.0629
13:18:00.188,33.4376,100.8129
13:18:00.196,35.2814,106.1254
13:18:00.205,36.1564,110.2504
13:18:00.216,37.1876,115.1254
13:18:00.227,38.0314,118.0005
13:18:00.236,39.0626,121.563
13:18:00.245,39.1564,124.7505
13:18:00.257,39.9377,125.563
13:18:00.265,40.9377,130.6255
13:18:00.276,40.3439,130.438
13:18:00.285,40.0627,128.063
13:18:00.297,38.5001,126.0005
13:18:00.306,37.7189,124.0005
13:18:00.318,36.7501,120.563
13:18:00.328,35.9689,117.4379
13:18:00.335,35.1564,115.3754
13:18:00.370,34.4376,113.4379
13:18:00.373,33.3439,111.7504
13:18:00.375,33.2814,109.6879
13:18:00.376,32.2189,108.4379
13:18:00.387,32.0939,106.3129
13:18:00.395,30.7501,104.6879
13:18:00.405,30.7501,102.6879
13:18:00.416,29.2501,100.5004
13:18:00.425,29.4064,98.7504
13:18:00.435,27.5001,96.3129
13:18:00.445,27.2189,94.5004
13:18:00.456,25.7501,91.3129
13:18:00.465,25.2813,87.6878
13:18:00.478,23.6876,84.5003
13:18:00.486,22.8751,81.8128
13:18:00.498,21.6563,79.3753
13:18:00.505,20.0938,76.4378
13:18:00.516,19.3751,72.0003
13:18:00.525,18.2188,69.0003
13:18:00.535,17.2501,66.4378
13:18:00.545,16.0313,62.2502
13:18:00.557,14.8126,59.8127
13:18:00.565,13.9376,56.1877
13:18:00.576,13.5001,54.2502
13:18:00.585,12.5938,51.0002
13:18:00.596,11.8438,48.0002
13:18:00.638,11.0313,45.1877
13:18:00.640,9.375,41.9377
13:18:00.642,9.1563,39.0001
13:18:00.644,7.4063,36.1876
13:18:00.647,7.7813,34.3751
13:18:00.679,6.25,31.3751
13:18:00.681,5.9375,28.7501
13:18:00.681,4.3438,26.3751
13:18:00.689,4.5,24.0001
13:18:00.697,3.6563,22.0626
13:18:00.724,4.0938,20.1876
13:18:00.726,1.9688,17.6251
13:18:00.729,2.0938,16.0001
13:18:00.766,1.2813,13.8126
13:18:00.770,1.4063,12.1875
13:18:00.773,-0.1875,10.625
13:18:00.774,-0.5938,8.25
13:18:00.780,-1.2813,5.5625
13:18:00.785,-1.8125,3.3125
13:18:00.796,-2.0938,1
13:18:00.805,-3.4375,-1.625
13:18:00.815,-3.5938,-4.125
13:18:00.826,-4.9375,-6.5
13:18:00.836,-6.0938,-8.9375
13:18:00.845,-6.5938,-11.8125
13:18:00.857,-7.875,-15.2501
13:18:00.866,-8.625,-18.8126
13:18:00.876,-10,-21.1251
13:18:00.885,-10.75,-23.8751
13:18:00.895,-11.4063,-27.7501
13:18:00.913,-11.8438,-28.4376
13:18:00.915,-11.0625,-29.0001
13:18:00.925,-10.875,-24.6251
13:18:00.936,-7.4063,-19.5626
13:18:00.947,-3.25,-9.25
13:18:00.956,1,2.9375
13:18:00.965,5.3125,16.2501
13:18:00.975,9.7188,29.3751
13:18:00.986,13.125,41.8127
13:18:00.996,17.2501,50.8752
13:18:01.006,20.6251,60.0627
13:18:01.015,21.7813,67.8128
13:18:01.026,24.3751,75.3128
13:18:01.035,26.0001,81.5003
13:18:01.045,28.5001,86.3128
13:18:01.055,29.4376,92.0629
13:18:01.065,30.5314,97.0629
13:18:01.075,32.0314,99.8754
13:18:01.085,33.5939,105.5629
13:18:01.095,35.0314,108.7504
13:18:01.105,35.9064,113.1879
13:18:01.116,36.5001,115.6879
13:18:01.125,37.0314,118.063
13:18:01.137,37.7814,118.5005
13:18:01.146,36.6876,119.688
13:18:01.155,37.0314,118.813
13:18:01.166,35.1251,117.7505
13:18:01.176,34.5939,114.7504
13:18:01.186,33.5626,112.1879
13:18:01.195,32.7814,110.1254
13:18:01.207,31.7501,106.6879
13:18:01.215,30.4064,104.6254
13:18:01.225,29.7814,102.3754
13:18:01.235,29.4376,100.8129
13:18:01.246,28.7814,99.6254
13:18:01.256,28.4689,97.6879
13:18:01.265,28.0001,97.1254
13:18:01.275,26.8439,95.7504
13:18:01.285,27.0314,94.4379
13:18:01.324,26.5314,93.7504
13:18:01.326,25.2188,92.3129
13:18:01.328,24.8751,89.5003
13:18:01.330,23.1876,88.1878
13:18:01.336,23.5313,85.5628
13:18:01.371,21.9063,83.3128
13:18:01.415,20.9688,80.3128
13:18:01.416,19.4063,77.3753
13:18:01.448,18.0938,74.6253
13:18:01.475,16.9063,70.5003
13:18:01.475,16.0626,67.9378
13:18:01.475,14.9063,63.8127
13:18:01.476,13.1876,60.0627
13:18:01.478,11.9375,56.8752
13:18:01.494,10.3125,52.7502
13:18:01.507,9.5,49.4377
13:18:01.510,7.375,46.1252
13:18:01.512,6.5625,42.3127
13:18:01.516,5.4375,38.6876
13:18:01.526,4.0313,35.9376
13:18:01.535,3.5938,32.0626
13:18:01.546,2.375,30.1876
13:18:01.556,1.4375,26.5001
13:18:01.565,0.4688,22.9376
13:18:01.578,0,21.3751
13:18:01.585,-0.625,19.4376
13:18:01.596,-2,16.1876
13:18:01.605,-2.9063,12.8125
13:18:01.615,-6.6875,3.5
13:18:01.625,-7.3438,1.5625
13:18:01.650,-7.9688,-1.1875
13:18:01.653,-7.8125,-2.625
13:18:01.655,-8.6563,-5.3125
13:18:01.671,-9.3438,-7.5
13:18:01.677,-9.4688,-9.5625
13:18:01.685,-10.8438,-11.25
13:18:01.696,-11.2813,-13.3126
13:18:01.707,-11.8125,-16.3126
13:18:01.715,-12.7188,-17.4376
13:18:01.730,-13.2188,-21.1251
13:18:01.742,-13.9376,-21.5626
13:18:01.750,-14.6563,-25.6251
13:18:01.760,-15.0938,-27.3751
13:18:01.771,-15.9063,-29.0001
13:18:01.782,-14.1876,-25.9376
13:18:01.790,-13,-23.1876
13:18:01.801,-9.5,-15.2501
13:18:01.811,-6.3125,-5.25
13:18:01.820,-2.3438,5.6875
13:18:01.831,1.6875,17.1251
13:18:01.842,4.9688,28.1876
13:18:01.850,8.4375,35.2501
13:18:01.862,10.6563,43.5627
13:18:01.872,12.3438,51.1252
13:18:01.880,14.8438,55.5002
13:18:01.892,17.1876,63.4377
13:18:01.900,18.5626,67.5003
13:18:01.910,19.6251,70.3128
13:18:01.921,20.5001,73.8128
13:18:01.930,20.5313,77.8753
13:18:01.941,21.4688,78.9378
13:18:01.950,22.2188,80.4378
13:18:01.962,22.3751,81.7503
13:18:01.971,22.7501,82.5003
13:18:01.982,23.0313,84.0003
13:18:01.990,23.0001,82.7503
13:18:02.001,22.3126,82.0003
13:18:02.012,21.5626,80.2503
13:18:02.022,20.5626,77.1878
13:18:02.030,19.2501,75.4378
13:18:02.046,18.5313,71.7503
13:18:02.064,17.2188,68.6878
13:18:02.066,16.6876,66.1253
13:18:02.080,15.8751,64.5627
13:18:02.082,14.8751,62.5002
13:18:02.115,14.9376,60.8127
13:18:02.118,13.8751,59.1877
13:18:02.120,14.2501,57.6252
13:18:02.146,12.9063,56.7502
13:18:02.147,13.3438,56.0002
13:18:02.151,12.1875,54.1252
13:18:02.155,11.5,53.3752
13:18:02.163,11.0625,50.8127
13:18:02.189,9.2188,49.3127
13:18:02.192,8.75,47.1252
13:18:02.194,8.3125,44.1877
13:18:02.224,7.4375,41.9377
13:18:02.228,6.4375,39.1251
13:18:02.228,4.7188,37.2501
13:18:02.231,4.5,34.8126
13:18:02.243,3.5938,31.2501
13:18:02.252,2.5313,28.8126
13:18:02.260,1.125,25.6251
13:18:02.270,-0.125,22.8751
13:18:02.280,-0.625,20.7501
13:18:02.290,-1.25,17.5626
13:18:02.300,-2.4688,14.3751
13:18:02.311,-2.625,12.125
13:18:02.320,-4.7188,9.625
13:18:02.331,-5.2188,7
13:18:02.340,-6,4.9375
13:18:02.350,-6.2188,2.25
13:18:02.361,-7.4063,-0.0625
13:18:02.371,-8.5625,-2.6875
13:18:02.380,-9.4375,-5.75
13:18:02.391,-10.1563,-7.8125
13:18:02.401,-10.4688,-10.125
13:18:02.410,-11.9688,-12.875
13:18:02.421,-12.7188,-14.8126
13:18:02.431,-13.4688,-18.6251
13:18:02.440,-14.3126,-20.1251
13:18:02.451,-15.2813,-23.5001
13:18:02.461,-15.7813,-24.4376
13:18:02.470,-16.8126,-27.6251
13:18:02.481,-17.0626,-28.2501
13:18:02.491,-17.9063,-31.1251
13:18:02.500,-18.0313,-31.8126
13:18:02.510,-18.3438,-34.3751
13:18:02.521,-18.8126,-35.3126
13:18:02.531,-20.0626,-38.6876
13:18:02.540,-19.7188,-39.6877
13:18:02.551,-21.1563,-41.1252
13:18:02.561,-21.3751,-43.1877
13:18:02.570,-21.2813,-45.2502
13:18:02.581,-22.8126,-47.5002
13:18:02.592,-23.2188,-49.8127
13:18:02.600,-23.3126,-51.1877
13:18:02.610,-24.7501,-51.5627
13:18:02.620,-24.5001,-54.1252
13:18:02.631,-23.8438,-53.1877
13:18:02.640,-23.2501,-50.8127
13:18:02.650,-20.7501,-45.8127
13:18:02.662,-16.4376,-35.1876
13:18:02.670,-12.375,-24.8751
13:18:02.681,-7.4688,-11.4375
13:18:02.691,-4,-0.8125
13:18:02.700,-0.25,9.6875
13:18:02.711,1.9688,19.1251
13:18:02.720,4.8438,25.1876
13:18:02.730,7.25,32.1251
13:18:02.745,8.1875,36.8751
13:18:02.761,10.25,40.4377
13:18:02.776,12.125,46.2502
13:18:02.778,12.75,48.6252
13:18:02.810,14.1876,53.0002
13:18:02.815,14.4376,56.7502
13:18:02.815,16.4063,58.5627
13:18:02.815,17.3126,61.8127
13:18:02.822,17.4688,63.5002
13:18:02.832,19.1876,65.6878
13:18:02.840,19.1251,67.7503
13:18:02.850,19.1876,67.3753
13:18:02.885,19.3438,68.3753
13:18:02.888,18.9376,67.1878
13:18:02.890,18.5001,65.8752
13:18:02.893,17.7501,63.5627
13:18:02.933,17.0001,60.8127
13:18:02.933,15.6251,58.1252
13:18:02.937,14.6563,55.5002
13:18:02.942,13.9376,54.5627
13:18:02.944,12.9063,52.0627
13:18:02.954,12.7188,49.2502
13:18:02.992,12.2188,48.1877
13:18:02.993,11.6875,46.2502
13:18:02.995,11.4063,45.5627
13:18:02.998,11.1563,44.1877
13:18:03.003,10.7188,42.9377
13:18:03.026,9.875,41.6252
13:18:03.029,9.0938,40.5627
13:18:03.032,8.8438,38.4376
13:18:03.041,8.4375,36.2501
13:18:03.050,7.5,34.0626
13:18:03.062,6.3438,33.3126
13:18:03.071,6.1875,30.5001
13:18:03.081,-4.7813,16.1876
13:18:03.090,2,19.5001
13:18:03.102,1.0625,18.3126
13:18:03.112,1.6875,18.3751
13:18:03.121,1.4063,16.4376
13:18:03.131,-0.125,14.6876
13:18:03.141,-0.9375,12.25
13:18:03.152,-1.8125,8.6875
13:18:03.160,-2.5625,8.3125
13:18:03.170,-2.8125,5.3125
13:18:03.181,-3.1875,3.3125
13:18:03.190,-14.9063,-17.0001
13:18:03.201,-8.375,-8.0625
13:18:03.211,-19.3126,-24.8751
13:18:03.220,-19.9688,-26.9376
13:18:03.231,-20.5938,-29.8751
13:18:03.241,-21.9063,-34.8751
13:18:03.250,-22.2813,-37.9376
13:18:03.261,-22.9063,-38.4376
13:18:03.271,-23.7813,-41.9377
13:18:03.280,-25.9688,-46.2502
13:18:03.291,-27.2501,-49.1877
13:18:03.301,-29.1876,-54.2502
13:18:03.310,-30.3751,-56.6252
13:18:03.321,-30.7501,-60.0002
13:18:03.331,-31.3751,-62.8752
13:18:03.340,-32.5939,-64.0002
13:18:03.351,-33.3439,-68.3753
13:18:03.361,-33.7501,-70.3128
13:18:03.372,-34.9064,-73.0628
13:18:03.381,-34.7814,-73.6253
13:18:03.390,-35.4689,-74.5628
13:18:03.400,-35.2501,-77.5003
13:18:03.412,-34.6876,-77.6878
13:18:03.420,-36.2501,-79.5003
13:18:03.432,-36.5626,-82.5628
13:18:03.440,-37.2189,-84.7503
13:18:03.453,-38.7814,-86.5003
13:18:03.461,-39.3439,-90.0004
13:18:03.470,-39.4689,-92.1879
13:18:03.481,-41.0314,-94.8754
13:18:03.507,-41.5314,-97.7504
13:18:03.509,-42.7502,-99.7504
13:18:03.511,-43.6564,-104.1879
13:18:03.544,-44.4064,-106.0004
13:18:03.547,-45.2502,-107.8129
13:18:03.549,-45.5314,-109.8754
13:18:03.558,-43.9377,-108.3754
13:18:03.589,-42.4689,-102.8754
13:18:03.590,-37.9376,-93.8754
13:18:03.593,-31.2189,-77.2503
13:18:03.620,-24.0001,-59.8127
13:18:03.621,-16.7813,-41.1252
13:18:03.623,-11.1875,-24.3126
13:18:03.629,-6.625,-11.625
13:18:03.645,-2.5938,-1.6875
13:18:03.647,-0.25,6.25
13:18:03.674,1.6875,10.8125
13:18:03.676,3.375,15.9376
13:18:03.679,4.2813,19.4376
13:18:03.686,6.375,23.8126
13:18:03.696,6.8125,25.7501
13:18:03.705,8.4688,28.5001
13:18:03.715,8.125,31.1876
13:18:03.726,8.7188,30.3751
13:18:03.735,8.9375,32.6876
13:18:03.746,9.5,32.6876
13:18:03.755,9.7188,32.6876
13:18:03.766,8.75,33.5626
13:18:03.776,8.625,31.7501
13:18:03.787,8.7188,31.0626
13:18:03.797,8,29.6876
13:18:03.806,6.4063,27.0626
13:18:03.816,5.9375,24.2501
13:18:03.825,5.5625,21.5626
13:18:03.836,4.6875,18.6876
13:18:03.846,3.8438,17.0001
13:18:03.857,3,13.8751
13:18:03.865,2.125,12.9375
13:18:03.876,2.125,11.125
13:18:03.885,1.75,9.25
13:18:03.896,1.6875,9.125
13:18:03.907,1.5,8.3125
13:18:03.917,0.8438,7.6875
13:18:03.925,1.5313,5.9375
13:18:03.936,0.6875,5.5
13:18:03.946,0.125,3.625
13:18:03.955,-1.1563,2.375
13:18:03.966,-1.6875,0
13:18:03.976,-2.0313,-2.5625
13:18:03.987,-1.8438,-3.625
13:18:03.996,-3.0313,-5.375
13:18:04.005,-3.75,-7.375
13:18:04.016,-4.625,-9.8125
13:18:04.026,-5.625,-11.75
13:18:04.035,-5.8438,-14.4376
13:18:04.055,-6.9063,-16.8751
13:18:04.061,-8.2188,-19.3126
13:18:04.066,-8.5,-21.7501
13:18:04.100,-9.6563,-24.4376
13:18:04.101,-9.5938,-26.0001
13:18:04.117,-10.8438,-29.0626
13:18:04.119,-12.1875,-30.4376
13:18:04.124,-12.1875,-32.7501
13:18:04.126,-13.2813,-35.1876
13:18:04.137,-13.2501,-37.1876
13:18:04.145,-14.6876,-38.8751
13:18:04.156,-15.6563,-41.1877
13:18:04.166,-15.9376,-42.7502
13:18:04.177,-16.8438,-44.2502
13:18:04.210,-16.7188,-46.7502
13:18:04.213,-17.0313,-48.0002
13:18:04.215,-18.8438,-50.2502
13:18:04.217,-18.4688,-52.3127
13:18:04.227,-19.5626,-52.4377
13:18:04.235,-19.4063,-55.6877
13:18:04.246,-19.8126,-56.3752
13:18:04.256,-21.1563,-58.8127
13:18:04.265,-21.5313,-59.3752
13:18:04.277,-21.4063,-60.7502
13:18:04.286,-22.2188,-62.5627
13:18:04.299,-22.7188,-65.1253
13:18:04.334,-23.1563,-65.6878
13:18:04.335,-24.2501,-66.9378
13:18:04.337,-24.4063,-69.6878
13:18:04.340,-24.1251,-70.6878
13:18:04.378,-25.8126,-72.3128
13:18:04.379,-26.4064,-74.9378
13:18:04.381,-26.5939,-76.0628
13:18:04.388,-27.2501,-78.2503
13:18:04.389,-27.5314,-79.9378
13:18:04.397,-28.0939,-81.3128
13:18:04.425,-29.9689,-83.8753
13:18:04.428,-29.5939,-86.1253
13:18:04.430,-29.3126,-84.1878
13:18:04.437,-28.0626,-83.7503
13:18:04.470,-25.5626,-76.3128
13:18:04.472,-22.1876,-64.3752
13:18:04.473,-15.7501,-51.6252
13:18:04.478,-9.4063,-33.8751
13:18:04.490,-3.9063,-19.3126
13:18:04.497,0.4688,-6.4375
13:18:04.506,2.75,4.125
13:18:04.516,5.75,10.4375
13:18:04.526,7.4063,17.0626
13:18:04.536,9.1875,20.3751
13:18:04.548,9.8438,23.7501
13:18:04.556,10.3125,25.5626
13:18:04.567,11.3125,27.8751
13:18:04.576,11.7188,29.6876
13:18:04.586,12.8438,29.4376
13:18:04.596,13.3751,30.7501
13:18:04.605,12.9688,31.2501
13:18:04.616,13.2813,31.6876
13:18:04.627,12.75,31.8751
13:18:04.635,13.4063,30.6876
13:18:04.646,13.1563,30.3126
13:18:04.656,11.75,29.8126
13:18:04.667,11.4688,26.8751
13:18:04.676,10.2813,25.2501
13:18:04.686,9.5313,21.9376
13:18:04.696,8.875,18.9376
13:18:04.706,7.7813,16.7501
13:18:04.717,6.9375,13.4376
13:18:04.728,6.25,12.9375
13:18:04.736,5.5625,10.0625
13:18:04.745,5.3438,9.4375
13:18:04.757,4.8438,7.8125
13:18:04.766,5,7.75
13:18:04.777,4.7813,7.3125
13:18:04.785,4.2188,7
13:18:04.796,4.625,6.625
13:18:04.805,4.0313,5.75
13:18:04.818,3.4063,5.0625
13:18:04.826,3.1875,2.375
13:18:04.837,2.4375,1.5625
13:18:04.845,2.5625,-0.5625
13:18:04.857,1.125,-1.3125
13:18:04.866,1.0313,-3.5
13:18:04.876,0.6563,-4.625
13:18:04.886,-0.2188,-6.75
13:18:04.896,-0.6563,-9.3125
13:18:04.907,-1.125,-11.125
13:18:04.916,-2.125,-12.9375
13:18:04.926,-2.6875,-15.2501
13:18:04.935,-3.5938,-17.2501
13:18:04.946,-4.2813,-19.8751
13:18:04.956,-5,-21.6251
13:18:04.986,-5.9375,-23.3751
13:18:04.988,-6.1563,-25.5626
13:18:04.989,-7.3438,-27.4376
13:18:05.021,-7.2188,-29.3751
13:18:05.023,-8.2188,-31.3751
13:18:05.025,-8.9375,-33.0626
13:18:05.031,-9.125,-34.8126
13:18:05.046,-9.7813,-36.6876
13:18:05.047,-10.1875,-37.5001
13:18:05.076,-10.8125,-39.6252
13:18:05.078,-11.25,-40.8752
13:18:05.080,-12.1563,-41.1877
13:18:05.089,-12.4688,-44.6252
13:18:05.100,-11.9375,-45.0627
13:18:05.106,-13.4688,-46.8752
13:18:05.140,-13.9376,-47.8752
13:18:05.142,-13.6876,-48.8127
13:18:05.144,-14.7813,-51.0627
13:18:05.149,-14.8126,-53.5002
13:18:05.160,-15.6876,-54.5002
13:18:05.166,-17.6251,-56.5002
13:18:05.178,-17.4063,-59.2502
13:18:05.188,-18.9688,-61.6877
13:18:05.196,-19.4063,-63.6877
13:18:05.206,-19.9376,-65.1878
13:18:05.217,-19.9063,-65.2502
13:18:05.226,-19.3438,-63.6252
13:18:05.237,-17.3126,-59.4377
13:18:05.247,-13.1875,-49.3127
13:18:05.256,-8.1563,-36.9376
13:18:05.267,-2.75,-22.3126
13:18:05.276,2.2188,-8.5625
13:18:05.287,5.6875,3.125
13:18:05.296,8.9375,13.0626
13:18:05.306,12.0313,20.1251
13:18:05.316,13.7813,25.8751
13:18:05.326,15.6876,30.5001
13:18:05.336,16.7188,34.2501
13:18:05.346,18.0626,37.1876
13:18:05.358,18.0313,39.9377
13:18:05.378,19.9063,42.0002
13:18:05.381,20.4688,43.8127
13:18:05.397,20.7813,44.7502
13:18:05.398,21.7188,45.9377
13:18:05.414,21.7188,47.5002
13:18:05.429,21.8126,48.8127
13:18:05.431,22.0313,48.6252
13:18:05.437,22.0938,48.3127
13:18:05.447,22.4063,48.1252
13:18:05.456,21.3126,47.4377
13:18:05.489,20.8126,46.0002
13:18:05.492,19.9063,44.0627
13:18:05.494,18.7188,40.1877
13:18:05.497,17.8126,37.3751
13:18:05.508,16.4063,35.6251
13:18:05.516,16.0001,32.7501
13:18:05.526,16.2188,31.8751
13:18:05.538,14.8126,29.1251
13:18:05.546,14.8438,28.1251
13:18:05.557,14.7813,27.8126
13:18:05.566,14.7813,27.1251
13:18:05.576,14.2188,26.0626
13:18:05.587,13.9376,25.6876
13:18:05.596,13.5313,23.1876
13:18:05.606,12.5938,23.5001
13:18:05.615,12.3438,21.4376
13:18:05.628,12.2813,21.2501
13:18:05.636,11.2813,18.2501
13:18:05.646,10.875,17.3126
13:18:05.656,9.9688,15.2501
13:18:05.666,9.625,13.6876
13:18:05.676,8.9688,11.5
13:18:05.686,7.8125,9.125
13:18:05.696,7.875,7.1875
13:18:05.706,6.25,4.8125
13:18:05.718,5.9375,2.625
13:18:05.726,4.8438,0.75
13:18:05.736,4.3125,-1.9375
13:18:05.747,3.0313,-4.625
13:18:05.756,2.5,-6.75
13:18:05.780,1.1875,-9.3125
13:18:05.782,0.6875,-11.25
13:18:05.795,-0.1563,-13.5626
13:18:05.796,-0.3438,-15.4376
13:18:05.835,-1.3438,-16.9376
13:18:05.838,-2.125,-20.1251
13:18:05.838,-3.2188,-21.3751
13:18:05.845,-3.9688,-24.2501
13:18:05.846,-4.0938,-26.0626
13:18:05.880,-4.6563,-26.9376
13:18:05.881,-5.625,-28.3126
13:18:05.884,-5.0313,-29.8751
13:18:05.886,-6.7188,-31.5626
13:18:05.918,-6.4063,-33.1876
13:18:05.921,-8.1875,-36.2501
13:18:05.921,-7.9375,-37.0001
13:18:05.928,-8.75,-38.0626
13:18:05.943,-8.75,-40.3127
13:18:05.947,-10.4063,-42.4377
13:18:05.956,-10.7813,-44.8752
13:18:05.966,-11.1875,-45.7502
13:18:05.976,-12.0938,-46.5002
13:18:05.991,-12.4688,-50.0002
13:18:05.996,-13.1563,-50.3752
13:18:06.006,-13.0938,-50.6252
13:18:06.016,-11,-47.0627
13:18:06.026,-8,-38.6876
13:18:06.036,-4,-29.5626
13:18:06.046,1.4375,-14.8751
13:18:06.056,6.125,-1.9375
13:18:06.066,9.5313,10.3125
13:18:06.077,13.9063,19.6876
13:18:06.086,15.6563,27.2501
13:18:06.096,17.8438,33.3751
13:18:06.106,20.2813,39.0626
13:18:06.116,21.1251,44.3127
13:18:06.126,23.2813,47.5627
13:18:06.136,23.3751,50.7502
13:18:06.146,25.3126,53.8127
13:18:06.156,25.2813,56.9377
13:18:06.168,26.8751,59.1877
13:18:06.177,26.5939,60.7502
13:18:06.186,27.1876,62.8752
13:18:06.196,27.8126,64.5002
13:18:06.206,27.5626,65.5627
13:18:06.216,29.1251,66.6253
13:18:06.226,28.6564,68.8128
13:18:06.237,28.4376,68.1253
13:18:06.246,28.5001,67.0628
13:18:06.258,27.5626,64.8127
13:18:06.266,26.4064,64.1252
13:18:06.277,25.5001,59.8752
13:18:06.286,24.4376,56.8752
13:18:06.296,23.4063,53.7502
13:18:06.306,22.2813,51.5002
13:18:06.317,21.7501,49.4377
13:18:06.326,20.8751,47.7502
13:18:06.336,20.7813,45.7502
13:18:06.348,19.3751,44.9377
13:18:06.356,19.5313,43.3127
13:18:06.370,18.3126,42.5002
13:18:06.377,17.8126,41.0627
13:18:06.386,17.5313,39.3127
13:18:06.396,17.0938,38.4376
13:18:06.406,16.6563,36.7501
13:18:06.416,16.5001,35.1251
13:18:06.447,15.6251,34.1251
13:18:06.449,15.0001,31.5626
13:18:06.452,13.7188,29.3126
13:18:06.456,12.25,26.6876
13:18:06.492,12.2188,23.8751
13:18:06.494,10.9688,22.1876
13:18:06.497,9.8438,18.5001
13:18:06.499,8.5625,16.1251
13:18:06.532,7.7188,12.75
13:18:06.533,6.5313,9.8125
13:18:06.535,5.9375,7.5625
13:18:06.564,4.9063,4.5625
13:18:06.566,3.8438,2.5625
13:18:06.568,2.875,-0.4375
13:18:06.572,1.75,-2.5625
13:18:06.576,1.6563,-5.625
13:18:06.607,0.6875,-8.4375
13:18:06.609,-0.3125,-10.3125
13:18:06.613,-1.375,-13
13:18:06.620,-1.875,-15.1251
13:18:06.626,-2.2188,-16.1876
13:18:06.637,-3.125,-19.3126
13:18:06.646,-3.875,-21.1876
13:18:06.656,-4.1875,-23.3751
13:18:06.666,-6,-25.7501
13:18:06.682,-6.125,-27.5626
13:18:06.689,-7.6563,-30.0001
13:18:06.696,-8.375,-32.5001
13:18:06.711,-8.6875,-34.5626
13:18:06.726,-10.25,-36.0626
13:18:06.729,-10.5313,-39.0626
13:18:06.770,-10.9688,-41.3127
13:18:06.772,-12.25,-44.1252
13:18:06.775,-13.1875,-46.6877
13:18:06.776,-13.7813,-48.1877
13:18:06.783,-15.4688,-51.1877
13:18:06.787,-16.1563,-53.3752
13:18:06.798,-16.1563,-54.8752
13:18:06.806,-17.6251,-57.5627
13:18:06.816,-17.9063,-59.3127
13:18:06.827,-19.2813,-61.4377
13:18:06.836,-19.9688,-64.3127
13:18:06.847,-20.7813,-66.5628
13:18:06.857,-21.6251,-68.9378
13:18:06.867,-23.1251,-71.3753
13:18:06.876,-23.0313,-74.0003
13:18:06.888,-25.0626,-77.2503
13:18:06.896,-25.3751,-78.8753
13:18:06.907,-25.7813,-79.5628
13:18:06.917,-24.6876,-78.9378
13:18:06.927,-22.4688,-72.6253
13:18:06.936,-17.5001,-62.4377
13:18:06.946,-11.0938,-45.6252
13:18:06.956,-3.9063,-27.0001
13:18:06.966,2.375,-8.25
13:18:06.978,8.1875,6.1875
13:18:06.986,11.1875,18.7501
13:18:06.996,14.9376,27.6251
13:18:07.006,16.9063,34.5626
13:18:07.017,19.1563,41.5627
13:18:07.026,21.6876,45.7502
13:18:07.037,23.2501,50.7502
13:18:07.046,24.5313,54.1252
13:18:07.056,26.4376,59.0002
13:18:07.068,26.9689,61.5627
13:18:07.078,27.9376,64.5627
13:18:07.086,29.2814,67.3128
13:18:07.097,29.9064,69.7503
13:18:07.106,30.8751,71.8128
13:18:07.120,31.3751,74.1878
13:18:07.127,31.2501,76.3128
13:18:07.138,32.4064,76.6878
13:18:07.169,32.3439,76.8128
13:18:07.173,31.4689,77.0003
13:18:07.174,31.0001,75.0628
13:18:07.176,29.3751,73.1253
13:18:07.206,28.7501,69.3128
13:18:07.210,27.6876,66.4378
13:18:07.211,26.4689,64.3127
13:18:07.217,25.5313,60.8752
13:18:07.261,25.2188,58.5002
13:18:07.262,23.8126,56.7502
13:18:07.264,22.9688,54.7502
13:18:07.271,23.2501,53.0002
13:18:07.271,21.6251,51.9377
13:18:07.286,21.8751,50.1877
13:18:07.287,20.1876,48.6877
13:18:07.315,19.9063,47.4377
13:18:07.318,18.6876,45.8752
13:18:07.320,19.2501,43.6877
13:18:07.327,17.4063,42.1252
13:18:07.338,16.1563,39.8752
13:18:07.346,16.1251,36.6251
13:18:07.356,14.5001,34.4376
13:18:07.366,13.8126,32.4376
13:18:07.376,12.625,29.1876
13:18:07.386,11.3438,27.0001
13:18:07.396,10.6563,23.5626
13:18:07.406,9.8125,21.3751
13:18:07.416,9.2188,19.1251
13:18:07.427,8.75,16.1876
13:18:07.436,6.9375,14.5626
13:18:07.446,6.75,10.6875
13:18:07.457,5.0313,8.125
13:18:07.466,4.0938,5
13:18:07.476,3.25,1.4375
13:18:07.486,2.375,-0.375
13:18:07.495,1.1563,-3.5
13:18:07.506,0.7813,-4.75
13:18:07.517,-0.5,-8.5625
13:18:07.531,-0.5313,-10.875
13:18:07.541,-2.0938,-13.8751
13:18:07.551,-3.2813,-16.1876
13:18:07.562,-3.7813,-18.5001
13:18:07.571,-4.4063,-20.3126
13:18:07.582,-5.8125,-22.0001
13:18:07.591,-5.9688,-25.5626
13:18:07.601,-7.1875,-26.6876
13:18:07.611,-7.9688,-28.9376
13:18:07.621,-8.8438,-31.3751
13:18:07.631,-9.2188,-33.4376
13:18:07.641,-9.75,-35.8751
13:18:07.651,-11.3438,-37.8126
13:18:07.663,-11.2188,-40.3752
13:18:07.671,-12.2813,-42.5002
13:18:07.682,-13.2813,-45.1877
13:18:07.691,-15.0626,-48.1877
13:18:07.701,-14.9063,-50.5002
13:18:07.711,-15.5626,-51.8752
13:18:07.722,-16.0001,-55.0627
13:18:07.731,-16.9688,-56.6252
13:18:07.741,-18.3126,-58.0002
13:18:07.751,-18.7501,-61.6252
13:18:07.761,-19.7813,-63.6877
13:18:07.771,-20.1563,-66.1253
13:18:07.782,-21.9063,-67.8128
13:18:07.791,-21.8438,-70.6253
13:18:07.802,-23.3751,-72.3128
13:18:07.812,-23.9376,-74.8753
13:18:07.821,-25.0001,-77.5628
13:18:07.831,-26.1876,-81.0003
13:18:07.841,-27.2814,-83.3128
13:18:07.851,-28.0939,-86.5003
13:18:07.861,-28.9689,-87.6253
13:18:07.870,-27.9376,-87.6878
13:18:07.881,-27.4064,-84.6253
13:18:07.891,-23.7188,-76.8128
13:18:07.901,-18.2188,-62.0002
13:18:07.911,-10.4688,-43.4377
13:18:07.921,-2.7813,-23.7501
13:18:07.955,3.9688,-5.25
13:18:07.960,8.2813,8.375
13:18:07.960,11.7188,21.2501
13:18:07.969,15.0313,28.8751
13:18:07.979,16.9376,35.6876
13:18:07.984,18.6563,41.3127
13:18:08.023,19.7501,45.1252
13:18:08.025,21.5313,49.7502
13:18:08.087,22.5313,52.1877
13:18:08.089,23.3751,54.1877
13:18:08.091,23.9063,58.0002
13:18:08.091,24.1251,58.5627
13:18:08.091,25.0938,60.6252
13:18:08.098,24.8438,62.0002
13:18:08.117,26.0001,62.8752
13:18:08.119,26.0938,64.1877
13:18:08.128,25.2188,64.8127
13:18:08.136,25.2188,63.5002
13:18:08.147,24.2501,62.4377
13:18:08.156,23.9063,60.5002
13:18:08.167,22.4376,58.1877
13:18:08.176,20.6563,55.7502
13:18:08.186,19.8438,51.8127
13:18:08.196,18.9376,48.2502
13:18:08.206,18.0626,46.0627
13:18:08.216,17.2813,44.5627
13:18:08.227,15.9688,41.2502
13:18:08.237,15.6876,40.1252
13:18:08.253,14.6251,37.3751
13:18:08.257,12.9375,33.6876
13:18:08.266,12.75,32.3126
13:18:08.276,12.625,30.5626
13:18:08.286,11.75,30.2501
13:18:08.296,10.8438,27.4376
13:18:08.306,10.6875,25.1251
13:18:08.316,9.75,22.9376
13:18:08.328,8.4063,21.0626
13:18:08.336,8.3438,18.4376
13:18:08.346,6.9063,15.8751
13:18:08.356,6.3125,13
13:18:08.366,5.4375,10.5625
13:18:08.377,5.125,8.125
13:18:08.386,3.4063,5.3125
13:18:08.397,2.0313,2.625
13:18:08.406,1.7813,-0.8125
13:18:08.418,0.0938,-3.6875
13:18:08.426,-1.2188,-6.1875
13:18:08.436,-1.875,-10.4375
13:18:08.446,-3.0625,-12.6875
13:18:08.456,-3.6875,-15.5626
13:18:08.466,-5.0313,-18.5001
13:18:08.476,-5.7813,-20.9376
13:18:08.487,-7.1563,-23.1876
13:18:08.496,-7.7188,-26.5001
13:18:08.507,-9.1563,-28.8751
13:18:08.516,-9.0313,-31.1876
13:18:08.526,-10.5938,-33.5001
13:18:08.537,-11.0313,-36.3751
13:18:08.546,-12.75,-39.0001
13:18:08.556,-13.3126,-42.0002
13:18:08.566,-14.3438,-46.0002
13:18:08.576,-16.0313,-46.7502
13:18:08.586,-16.6563,-50.9377
13:18:08.598,-16.5938,-52.8752
13:18:08.608,-19.1563,-56.0002
13:18:08.616,-19.0938,-57.7502
13:18:08.627,-19.8126,-61.0002
13:18:08.636,-20.9688,-62.6252
13:18:08.646,-21.6251,-65.1252
13:18:08.656,-22.4376,-67.0628
13:18:08.670,-23.2501,-70.0003
13:18:08.676,-23.9688,-71.3753
13:18:08.710,-24.6251,-74.6878
13:18:08.713,-25.2501,-75.8128
13:18:08.715,-26.0313,-78.1253
13:18:08.723,-26.3438,-80.2503
13:18:08.731,-26.7189,-81.9378
13:18:08.737,-27.7501,-84.0003
13:18:08.773,-28.0001,-85.3128
13:18:08.775,-29.0939,-87.3128
13:18:08.778,-28.8751,-90.0003
13:18:08.783,-30.2814,-92.0004
13:18:08.790,-30.9376,-95.1254
13:18:08.797,-32.5314,-97.0629
13:18:08.826,-32.0626,-98.2504
13:18:08.829,-31.7501,-97.2504
13:18:08.831,-30.0939,-91.6254
13:18:08.836,-25.8751,-82.9378
13:18:08.846,-18.2188,-64.6252
13:18:08.856,-11.3438,-43.2502
13:18:08.867,-2.2188,-22.7501
13:18:08.879,4.4375,-1.9375
13:18:08.886,9.9375,12.4375
13:18:08.896,13.5001,25.5626
13:18:08.906,16.5001,33.0001
13:18:08.916,17.9063,39.7502
13:18:08.926,20.0313,43.7502
13:18:08.936,20.5938,47.1252
13:18:08.946,22.1563,49.3127
13:18:08.957,22.0626,52.1877
13:18:08.966,22.5626,51.4377
13:18:08.977,23.0001,53.9377
13:18:08.986,23.2188,53.3127
13:18:09.002,23.9063,54.1877
13:18:09.008,22.8751,54.5002
13:18:09.017,22.6563,53.3752
13:18:09.026,22.4063,53.7502
13:18:09.036,21.4688,51.5002
13:18:09.047,20.8438,49.6877
13:18:09.057,20.5313,48.0002
13:18:09.066,18.8751,44.8752
13:18:09.076,18.3126,41.4377
13:18:09.086,16.5938,37.7501
13:18:09.096,15.8126,35.6251
13:18:09.106,14.3126,33.5001
13:18:09.116,13.9063,30.0626
13:18:09.126,13.8438,28.4376
13:18:09.137,12.8125,26.8126
13:18:09.149,11.9063,25.3126
13:18:09.157,11.7813,25.5626
13:18:09.166,11.25,23.7501
13:18:09.177,11,22.0001
13:18:09.186,10.5938,21.0001
13:18:09.196,9.7188,19.5626
13:18:09.206,9.3125,18.2501
13:18:09.217,8.6875,16.5626
13:18:09.227,8,14.6876
13:18:09.236,6.9375,13.5626
13:18:09.246,6.75,10.6875
13:18:09.257,5.3125,9.9375
13:18:09.267,5.1563,6.9375
13:18:09.276,3.8125,3.1875
13:18:09.286,2.625,1.375
13:18:09.302,2.2188,-1.625
13:18:09.331,0.9063,-4.0625
13:18:09.333,1.1875,-6.6875
13:18:09.348,-0.1563,-8.875
13:18:09.350,-1.2813,-11.8125
13:18:09.365,-1.75,-14.8126
13:18:09.379,-3.0625,-16.3751
13:18:09.379,-4.1563,-18.3126
13:18:09.380,-4.875,-23.0001
13:18:09.395,-6.25,-25.8126
13:18:09.397,-7.0938,-29.1251
13:18:09.412,-9,-30.3751
13:18:09.418,-9.125,-33.4376
13:18:09.441,-9.8125,-36.2501
13:18:09.444,-11.375,-39.7502
13:18:09.446,-12.5938,-41.5627
13:18:09.475,-12.9688,-43.7502
13:18:09.477,-13.5938,-47.4377
13:18:09.480,-15.0313,-49.3752
13:18:09.487,-15.7188,-51.7502
13:18:09.498,-16.4376,-54.4377
13:18:09.528,-17.5938,-55.2502
13:18:09.530,-17.9376,-58.5627
13:18:09.532,-18.4063,-60.3752
13:18:09.537,-19.5001,-62.6877
13:18:09.570,-20.0938,-65.0627
13:18:09.574,-20.7188,-66.6253
13:18:09.575,-21.0626,-68.7503
13:18:09.582,-22.0626,-71.7503
13:18:09.603,-22.8438,-73.1878
13:18:09.606,-23.7501,-75.4378
13:18:09.608,-24.4688,-77.1878
13:18:09.618,-25.2501,-78.9378
13:18:09.626,-25.3126,-81.8128
13:18:09.636,-26.7501,-84.3753
13:18:09.646,-26.8751,-85.1878
13:18:09.656,-27.3439,-88.0003
13:18:09.666,-28.4689,-89.0003
13:18:09.677,-28.9376,-93.4379
13:18:09.686,-30.0626,-94.1254
13:18:09.697,-30.2189,-96.8754
13:18:09.706,-30.0939,-94.8754
13:18:09.717,-28.0001,-91.3754
13:18:09.726,-23.1563,-79.9378
13:18:09.737,-16.2813,-61.2502
13:18:09.752,-7.0938,-38.8126
13:18:09.756,0.9688,-16.1876
13:18:09.767,8.8125,4.8125
13:18:09.776,14.5001,19.8751
13:18:09.786,18.0626,33.3126
13:18:09.796,21.2813,41.8752
13:18:09.806,23.7813,50.0627
13:18:09.816,25.5626,55.7502
13:18:09.826,27.6251,60.0002
13:18:09.836,27.4064,64.4377
13:18:09.846,29.5314,66.1253
13:18:09.858,29.5314,69.6878
13:18:09.867,30.3751,70.8753
13:18:09.876,30.5939,71.3128
13:18:09.886,31.0939,73.5003
13:18:09.896,31.2814,75.6878
13:18:09.906,31.6251,75.1878
13:18:09.916,31.8126,76.8128
13:18:09.926,32.0001,76.0003
13:18:09.936,31.0626,76.3753
13:18:09.948,30.6564,75.1878
13:18:09.956,30.2189,73.0003
13:18:09.966,29.2189,69.6878
13:18:09.977,27.9689,66.8753
13:18:09.986,26.0626,64.2502
13:18:09.996,24.9376,60.9377
13:18:10.006,24.0001,58.8752
13:18:10.018,22.8438,55.5627
13:18:10.026,22.3126,53.1252
13:18:10.038,21.2813,51.3752
13:18:10.046,20.5001,49.4377
13:18:10.057,20.4063,47.8127
13:18:10.066,19.7813,46.5627
13:18:10.076,19.9063,45.4377
13:18:10.086,18.3751,44.6877
13:18:10.096,17.9688,42.8752
13:18:10.106,17.4376,41.1252
13:18:10.116,16.6563,38.2501
13:18:10.129,15.9376,36.0626
13:18:10.137,14.5626,33.9376
13:18:10.146,14.0313,32.9376
13:18:10.157,13.2813,30.4376
13:18:10.190,13.2501,27.9376
13:18:10.192,11.7188,24.5001
13:18:10.195,10.5938,22.0626
13:18:10.197,9.875,20.0001
13:18:10.230,8.25,17.5626
13:18:10.233,8.0938,14.0626
13:18:10.235,6.9375,10.75
13:18:10.238,5.1563,7.125
13:18:10.266,4.4063,5.0625
13:18:10.267,3.0938,3.125
13:18:10.271,3.375,-0.4375
13:18:10.295,1.6563,-4.0625
13:18:10.297,0.2813,-6.1875
13:18:10.299,-0.2188,-8.9375
13:18:10.309,-1.6563,-12.5
13:18:10.336,-2.3125,-15.7501
13:18:10.339,-3.9688,-17.8751
13:18:10.340,-5.125,-20.0001
13:18:10.348,-5.9063,-22.9376
13:18:10.357,-6.0938,-25.5001
13:18:10.366,-7.5,-27.9376
13:18:10.378,-8.4063,-31.6251
13:18:10.386,-8.9688,-34.1251
13:18:10.397,-10.375,-36.8751
13:18:10.406,-11.7813,-39.4377
13:18:10.416,-12.5625,-41.6252
13:18:10.426,-12.7813,-44.5002
13:18:10.436,-14.2188,-46.8752
13:18:10.446,-15.3126,-48.7502
13:18:10.457,-15.8751,-52.1252
13:18:10.466,-16.1876,-53.8752
13:18:10.476,-17.8438,-56.5627
13:18:10.487,-18.3751,-59.9377
13:18:10.496,-19.3126,-61.6252
13:18:10.506,-20.3751,-65.1252
13:18:10.516,-20.1563,-66.8128
13:18:10.526,-22.3751,-69.3753
13:18:10.536,-22.0938,-71.6253
13:18:10.546,-23.6251,-73.3128
13:18:10.556,-24.0938,-77.2503
13:18:10.566,-24.2501,-78.0003
13:18:10.577,-25.7188,-80.1253
13:18:10.609,-26.2813,-83.6878
13:18:10.611,-27.2814,-85.1878
13:18:10.627,-27.2189,-87.6253
13:18:10.630,-28.6251,-89.3753
13:18:10.645,-28.7501,-92.9379
13:18:10.660,-30.5626,-93.6879
13:18:10.662,-30.3126,-96.7504
13:18:10.663,-29.8751,-95.8754
13:18:10.668,-28.8751,-93.1879
13:18:10.684,-25.4376,-83.8753
13:18:10.698,-19.2188,-66.8753
13:18:10.701,-9.9375,-43.6252
13:18:10.716,-0.9688,-21.3126
13:18:10.719,7.6563,1.6875
13:18:10.727,13.5626,20.1251
13:18:10.736,18.9688,35.6876
13:18:10.746,22.4063,46.8127
13:18:10.758,25.6876,55.2502
13:18:10.766,27.0314,61.1252
13:18:10.776,29.4376,67.1253
13:18:10.786,30.0626,71.5003
13:18:10.804,31.5939,75.4378
13:18:10.806,32.8751,78.6878
13:18:10.835,33.8751,82.4378
13:18:10.837,34.1251,83.3128
13:18:10.838,35.0626,86.3128
13:18:10.870,34.8439,88.5003
13:18:10.873,36.3126,89.6878
13:18:10.875,35.7814,91.1879
13:18:10.877,35.9376,92.4379
13:18:10.908,36.5626,91.8754
13:18:10.910,35.5939,92.3129
13:18:10.913,35.3439,91.8754
13:18:10.918,34.8439,89.4378
13:18:10.952,33.9689,86.3753
13:18:10.952,32.2189,83.0003
13:18:10.954,30.8751,81.8128
13:18:10.979,30.1564,78.0628
13:18:10.980,28.9689,75.0628
13:18:10.982,27.4064,72.3128
13:18:10.988,26.9376,69.9378
13:18:10.999,26.0938,67.2503
13:18:11.008,25.2501,66.0003
13:18:11.017,24.6876,63.8752
13:18:11.028,23.9063,62.1877
13:18:11.036,23.9688,61.3752
13:18:11.046,23.2188,59.7502
13:18:11.056,22.0313,57.4377
13:18:11.066,21.7188,55.4377
13:18:11.076,20.3751,53.0002
13:18:11.086,19.0938,50.8127
13:18:11.096,18.5626,49.1252
13:18:11.106,17.4376,45.4377
13:18:11.117,15.7501,44.1877
13:18:11.126,15.5313,40.3127
13:18:11.136,13.9063,37.3126
13:18:11.146,12.5,34.8751
13:18:11.156,11.625,30.9376
13:18:11.166,10.5938,28.1876
13:18:11.177,9.375,24.1876
13:18:11.186,8.5938,21.0001
13:18:11.196,6.9063,18.0001
13:18:11.208,5.4063,14.1876
13:18:11.216,4.8125,11.4375
13:18:11.226,2.9688,8.9375
13:18:11.236,1.75,5.5625
13:18:11.246,1.2188,1.0625
13:18:11.257,-0.6875,-1.3125
13:18:11.267,-1.5625,-5.125
13:18:11.277,-2.6563,-7.9375
13:18:11.286,-3.7188,-10.5
13:18:11.297,-5,-14.3751
13:18:11.306,-6.0313,-17.3126
13:18:11.316,-6.3125,-20.1251
13:18:11.326,-8.3125,-23.4376
13:18:11.336,-9.0625,-25.4376
13:18:11.346,-10.4063,-28.3751
13:18:11.356,-11.4688,-31.5626
13:18:11.366,-11.875,-35.3751
13:18:11.377,-13.2813,-38.1876
13:18:11.388,-14.8438,-39.9377
13:18:11.396,-15.6563,-44.1252
13:18:11.406,-16.6563,-46.4377
13:18:11.417,-17.8438,-50.7502
13:18:11.426,-18.5001,-53.2502
13:18:11.436,-20.6563,-54.8752
13:18:11.446,-20.5626,-59.0627
13:18:11.456,-22.8438,-61.5627
13:18:11.466,-23.2813,-65.5002
13:18:11.478,-23.3126,-67.8753
13:18:11.486,-25.5313,-70.8128
13:18:11.496,-25.9063,-73.5628
13:18:11.507,-26.7501,-75.7503
13:18:11.516,-27.6564,-78.6253
13:18:11.545,-27.7501,-81.0628
13:18:11.546,-29.6876,-82.6878
13:18:11.549,-29.9064,-85.6253
13:18:11.588,-30.4064,-88.5003
13:18:11.589,-31.2814,-90.7504
13:18:11.592,-31.4064,-92.9379
13:18:11.596,-32.8751,-95.1879
13:18:11.628,-33.6251,-98.6254
13:18:11.630,-33.6876,-100.2504
13:18:11.634,-34.8439,-101.5629
13:18:11.637,-35.1876,-104.5004
13:18:11.645,-35.7501,-104.3129
13:18:11.671,-34.2814,-103.0629
13:18:11.675,-32.0001,-95.3754
13:18:11.676,-26.1563,-79.8753
13:18:11.681,-17.9376,-56.4377
13:18:11.710,-8.625,-34.1251
13:18:11.713,-0.2813,-10.8125
13:18:11.717,7.125,8.0625
13:18:11.722,12.2188,24.0626
13:18:11.731,17.1876,41.6252
13:18:11.741,20.4688,48.3752
13:18:11.751,22.4688,55.5002
13:18:11.762,23.3126,60.1252
13:18:11.771,25.0626,62.0627
13:18:11.781,24.7501,65.8753
13:18:11.792,26.3751,67.0003
13:18:11.801,26.7814,70.3753
13:18:11.811,27.1564,71.6253
13:18:11.822,27.9376,72.4378
13:18:11.832,27.0001,73.5003
13:18:11.841,27.5939,73.8753
13:18:11.851,27.9064,74.8753
13:18:11.861,27.0626,73.7503
13:18:11.889,26.9064,73.8128
13:18:11.893,25.8751,71.2503
13:18:11.894,25.0938,70.9378
13:18:11.902,24.0938,66.6878
13:18:11.911,23.5313,64.1877
13:18:11.921,22.2501,60.8127
13:18:11.936,19.9376,57.8752
13:18:11.946,19.7813,53.5002
13:18:11.952,18.6876,51.4377
13:18:11.984,17.2813,49.5627
13:18:11.986,16.8438,47.4377
13:18:12.001,15.7813,46.5002
13:18:12.003,16.2813,45.0002
13:18:12.020,15.6876,43.7502
13:18:12.022,15.1251,42.9377
13:18:12.025,14.6563,41.2502
13:18:12.033,14.5001,40.3127
13:18:12.042,14.3126,38.6251
13:18:12.051,13.7813,36.8126
13:18:12.061,12.3125,36.3126
13:18:12.071,11.6875,32.6876
13:18:12.081,10.9063,31.0001
13:18:12.092,9.8438,27.9376
13:18:12.101,9.5313,25.5626
13:18:12.111,8.7813,23.3126
13:18:12.123,7.4375,20.1251
13:18:12.131,6.2813,17.3126
13:18:12.141,5.4375,14.6876
13:18:12.151,4.9688,12.125
13:18:12.162,3.4375,9.0625
13:18:12.171,2.375,6.8125
13:18:12.181,1.2188,4.25
13:18:12.191,0.3438,0.8125
13:18:12.202,-0.75,-1.75
13:18:12.211,-0.4063,-5.5
13:18:12.221,-3,-7.3125
13:18:12.231,-3.6875,-11.0625
13:18:12.241,-4.9375,-13.8751
13:18:12.261,-5.125,-16.1251
13:18:12.264,-6.1563,-20.3126
13:18:12.290,-7,-21.8751
13:18:12.292,-8.2813,-24.5626
13:18:12.295,-8.2813,-27.0626
13:18:12.302,-8.625,-28.7501
13:18:12.332,-10.3125,-31.3751
13:18:12.336,-10.9063,-33.9376
13:18:12.339,-11.6875,-36.0626
13:18:12.364,-13.2813,-39.1877
13:18:12.365,-13.2813,-41.8752
13:18:12.368,-14.8126,-43.3127
13:18:12.373,-15.6563,-47.0627
13:18:12.400,-16.2188,-49.0627
13:18:12.403,-17.3126,-50.8752
13:18:12.405,-17.6876,-53.8752
13:18:12.411,-18.0313,-56.1877
13:18:12.429,-19.4688,-57.6252
13:18:12.432,-20.4376,-61.0002
13:18:12.442,-20.5626,-62.7502
13:18:12.451,-21.2188,-64.9377
13:18:12.461,-21.5001,-66.9378
13:18:12.472,-22.0938,-68.6878
13:18:12.481,-23.2188,-70.0628
13:18:12.491,-23.1251,-73.8753
13:18:12.502,-23.3438,-75.6253
13:18:12.511,-24.8438,-78.1878
13:18:12.522,-25.7188,-81.0003
13:18:12.531,-27.5939,-83.3128
13:18:12.542,-27.8439,-86.2503
13:18:12.552,-28.5001,-89.3128
13:18:12.561,-28.9064,-90.2503
13:18:12.571,-28.4689,-88.9378
13:18:12.581,-26.5626,-82.6878
13:18:12.592,-20.8126,-69.5003
13:18:12.601,-13.0938,-49.8752
13:18:12.611,-4.5313,-29.1251
13:18:12.622,2.9375,-7.9375
13:18:12.632,9.5313,10.625
13:18:12.641,14.8438,26.1876
13:18:12.651,19.0313,39.6252
13:18:12.663,22.8438,47.8752
13:18:12.673,24.4376,56.3752
13:18:12.682,26.4064,61.1877
13:18:12.692,27.8751,65.3128
13:18:12.701,29.4064,68.5003
13:18:12.711,30.5001,72.1253
13:18:12.723,30.6564,74.4378
13:18:12.732,31.5001,75.9378
13:18:12.743,32.2501,78.7503
13:18:12.752,32.4376,79.9378
13:18:12.762,33.0626,80.5628
13:18:12.773,32.8751,82.1878
13:18:12.783,33.0314,81.6253
13:18:12.791,33.2501,82.8128
13:18:12.804,33.3126,81.9378
13:18:12.813,32.3439,80.8753
13:18:12.821,31.5626,78.3128
13:18:12.832,30.3751,75.5003
13:18:12.842,29.0626,72.9378
13:18:12.851,27.5939,69.0628
13:18:12.862,26.9376,66.5003
13:18:12.875,24.9688,63.8127
13:18:12.881,24.5626,60.9377
13:18:12.891,22.5938,59.5002
13:18:12.901,22.2501,57.8752
13:18:12.911,22.0938,55.5002
13:18:12.922,21.0938,55.0002
13:18:12.931,21.5938,53.2502
13:18:12.941,20.5938,52.6877
13:18:12.953,20.1876,50.4377
13:18:12.963,18.6876,48.8752
13:18:12.972,17.7188,45.1877
13:18:12.981,16.5626,44.0627
13:18:13.011,15.2501,41.3752
13:18:13.014,15.2188,38.5001
13:18:13.016,13.8751,35.7501
13:18:13.023,11.4688,31.5626
13:18:13.054,9.8438,28.6251
13:18:13.056,8.7813,25.6251
13:18:13.059,9.0313,24.6876
13:18:13.064,10.2188,24.4376
13:18:13.094,15.5938,31.6251
13:18:13.099,15.0313,30.8751
13:18:13.100,12.3125,27.8751
13:18:13.122,9.5625,22.2501
13:18:13.123,6.7188,16.9376
13:18:13.127,4.4063,11.9375
13:18:13.133,2.3438,7.0625
13:18:13.172,0.5938,3.1875
13:18:13.174,-0.0938,-0.875
13:18:13.176,-1.7188,-5.0625
13:18:13.179,-2.7813,-10.0625
13:18:13.183,-5.1875,-14.2501
13:18:13.194,-6.9375,-19.8751
13:18:13.201,-9.0313,-24.6251
13:18:13.211,-10.2813,-28.4376
13:18:13.221,-11.4688,-32.4376
13:18:13.231,-11.9688,-35.3126
13:18:13.242,-13.2188,-37.8751
13:18:13.257,-13.1876,-40.2502
13:18:13.265,-14.1251,-43.5002
13:18:13.272,-15.1251,-45.7502
13:18:13.299,-15.3751,-47.5002
13:18:13.303,-16.5313,-49.1877
13:18:13.316,-16.4688,-52.0002
13:18:13.319,-17.9688,-54.5627
13:18:13.335,-18.5001,-56.5002
13:18:13.341,-18.9688,-58.5627
13:18:13.342,-19.5001,-61.0627
13:18:13.353,-21.0313,-63.5627
13:18:13.365,-21.8438,-67.6878
13:18:13.372,-23.1251,-70.1878
13:18:13.382,-24.5626,-73.9378
13:18:13.392,-25.9376,-76.8128
13:18:13.401,-26.8126,-81.0003
13:18:13.412,-27.4689,-85.4378
13:18:13.422,-28.5314,-87.6253
13:18:13.433,-28.9689,-91.1254
13:18:13.441,-29.8751,-93.6254
13:18:13.453,-30.0939,-97.5004
13:18:13.462,-32.1876,-100.6879
13:18:13.471,-33.3126,-103.5629
13:18:13.482,-33.5314,-106.8754
13:18:13.491,-34.4689,-109.3754
13:18:13.502,-34.9064,-110.8129
13:18:13.513,-35.2814,-112.8129
13:18:13.524,-35.4064,-113.6254
13:18:13.533,-35.1564,-114.3129
13:18:13.541,-34.4376,-112.6879
13:18:13.552,-33.6251,-111.4379
13:18:13.561,-30.9376,-104.5004
13:18:13.571,-25.7188,-89.8128
13:18:13.582,-15.6876,-63.0627
13:18:13.593,-5.5938,-33.7501
13:18:13.603,4.75,-8.125
13:18:13.612,11.75,15.0001
13:18:13.626,18.5001,32.4376
13:18:13.632,23.7813,46.3752
13:18:13.641,26.5939,57.7502
13:18:13.652,29.8126,64.6877
13:18:13.663,30.4064,71.0003
13:18:13.671,31.7501,75.0628
13:18:13.682,33.2814,79.5003
13:18:13.693,34.4064,82.1878
13:18:13.703,35.6876,85.3128
13:18:13.712,35.0001,86.7503
13:18:13.723,36.1251,88.4378
13:18:13.731,36.5001,92.2504
13:18:13.742,36.7189,92.7504
13:18:13.752,38.2189,95.1254
13:18:13.762,37.3126,95.8754
13:18:13.773,37.0626,96.2504
13:18:13.783,37.0626,95.0004
13:18:13.792,36.2814,94.5629
13:18:13.806,35.6564,92.6879
13:18:13.842,33.2501,89.6253
13:18:13.845,31.3439,85.6878
13:18:13.846,30.4376,81.4378
13:18:13.849,28.5939,78.0628
13:18:13.855,27.8126,74.8753
13:18:13.863,26.1251,72.3128
13:18:13.892,26.0626,69.4378
13:18:13.895,24.0001,67.6253
13:18:13.899,24.0313,65.1253
13:18:13.902,22.6876,63.2502
13:18:13.937,22.8438,60.2502
13:18:13.941,21.1563,59.5002
13:18:13.941,21.2501,57.5627
13:18:13.944,19.7501,56.5002
13:18:13.975,19.7501,54.0002
13:18:13.976,18.4688,52.9377
13:18:13.978,18.3438,50.1877
13:18:13.985,16.7188,48.8127
13:18:13.996,16.7501,45.5627
13:18:14.005,15.5001,43.5002
13:18:14.014,14.8126,41.9377
13:18:14.023,13.4063,37.6876
13:18:14.031,12.7188,36.6876
13:18:14.042,11.8438,32.5626
13:18:14.052,10.4688,30.1251
13:18:14.065,9.2188,26.7501
13:18:14.072,7.875,23.6876
13:18:14.082,6.5938,20.0626
13:18:14.093,5.5313,15.6251
13:18:14.102,3.5938,13.0625
13:18:14.112,2.1563,8.5
13:18:14.121,0.6563,4.8125
13:18:14.133,-0.4688,0.3125
13:18:14.143,-1.9688,-2.8125
13:18:14.153,-2.4063,-6.3125
13:18:14.162,-3.4375,-10.5
13:18:14.171,-5,-14.3751
13:18:14.184,-6.5938,-17.0001
13:18:14.192,-7.5625,-22.6876
13:18:14.203,-10.0625,-27.5626
13:18:14.211,-11.6563,-32.3126
13:18:14.222,-13.0313,-36.5001
13:18:14.233,-14.8751,-41.6877
13:18:14.242,-17.1876,-46.6877
13:18:14.252,-18.9688,-51.6877
13:18:14.261,-20.5313,-57.5627
13:18:14.271,-22.3751,-63.8752
13:18:14.282,-24.1876,-69.1253
13:18:14.291,-26.5001,-73.8128
13:18:14.302,-27.6251,-79.0628
13:18:14.313,-29.4376,-84.9378
13:18:14.323,-31.2501,-88.4378
13:18:14.332,-32.3126,-94.1254
13:18:14.342,-33.4689,-97.6879
13:18:14.352,-34.2189,-101.4379
13:18:14.362,-35.5939,-104.6254
13:18:14.373,-36.3439,-107.8754
13:18:14.381,-36.6876,-109.2504
13:18:14.393,-37.4689,-112.2504
13:18:14.401,-37.0626,-113.9379
13:18:14.411,-38.3751,-115.9379
13:18:14.422,-38.5001,-116.9379
13:18:14.450,-38.7189,-117.0629
13:18:14.453,-38.1564,-118.7505
13:18:14.455,-37.9689,-118.563
13:18:14.486,-38.2501,-117.938
13:18:14.489,-37.4689,-118.938
13:18:14.491,-38.0626,-117.3754
13:18:14.493,-37.0001,-118.6255
13:18:14.523,-36.7189,-117.7505
13:18:14.525,-36.9689,-117.563
13:18:14.527,-36.4064,-117.0629
13:18:14.599,-36.4376,-115.8129
13:18:14.599,-34.5939,-114.0004
13:18:14.628,-34.1564,-110.4379
13:18:14.643,-30.7814,-101.3754
13:18:14.645,-24.5313,-81.8128
13:18:14.645,-14.2501,-53.0002
13:18:14.658,-2.5313,-21.5001
13:18:14.662,7.3438,2.875
13:18:14.676,14.8438,26.8126
13:18:14.680,20.9376,42.6252
13:18:14.692,25.1876,55.7502
13:18:14.695,27.5001,65.7503
13:18:14.698,30.5626,71.5003
13:18:14.708,32.7189,77.3753
13:18:14.717,33.3126,81.3753
13:18:14.727,35.2814,85.1253
13:18:14.736,35.6564,89.0003
13:18:14.747,36.5001,89.5628
13:18:14.758,36.4376,92.5629
13:18:14.768,36.6564,92.9379
13:18:14.777,37.4064,94.2504
13:18:14.786,37.1876,95.3129
13:18:14.798,35.2814,94.7504
13:18:14.807,33.8126,91.1879
13:18:14.820,32.2189,86.3753
13:18:14.829,30.8751,83.0628
13:18:14.837,29.6251,80.1253
13:18:14.849,28.4064,76.5003
13:18:14.858,27.4064,74.3128
13:18:14.868,26.4376,70.7503
13:18:14.877,25.1563,68.6253
13:18:14.888,25.7501,66.7503
13:18:14.898,25.1876,65.4377
13:18:14.907,24.4063,63.9377
13:18:14.918,23.0626,63.0002
13:18:14.928,23.0626,60.9377
13:18:14.937,21.8751,59.3127
13:18:14.948,21.0938,57.2502
13:18:14.956,20.2188,54.2502
13:18:14.968,18.5313,51.8752
13:18:14.977,18.6563,48.8752
13:18:14.988,17.5001,46.6252
13:18:14.998,16.6563,44.3127
13:18:15.007,15.0626,40.7502
13:18:15.017,13.9376,38.6251
13:18:15.027,12.7188,34.5626
13:18:15.038,11.9063,32.3751
13:18:15.048,10.5625,27.8126
13:18:15.057,8.8438,24.6251
13:18:15.067,7.5625,19.6251
13:18:15.077,6.1563,17.0626
13:18:15.087,5,12.6875
13:18:15.098,2.9063,8.0625
13:18:15.106,1.5938,3
13:18:15.118,-0.5625,-0.9375
13:18:15.132,-1.3438,-6.1875
13:18:15.137,-3.0938,-10.1875
13:18:15.148,-4.5,-15.1251
13:18:15.157,-6.75,-20.1251
13:18:15.167,-9.125,-24.6251
13:18:15.183,-10.25,-29.1876
13:18:15.212,-11.3438,-34.5001
13:18:15.215,-13.2501,-38.3751
13:18:15.217,-14.1563,-43.2502
13:18:15.220,-15.8751,-47.7502
13:18:15.254,-16.9063,-52.5002
13:18:15.256,-17.5313,-55.6877
13:18:15.260,-19.0001,-60.1877
13:18:15.263,-21.0938,-64.1252
13:18:15.268,-22.0313,-68.7503
13:18:15.297,-23.3438,-73.0628
13:18:15.299,-23.9063,-75.8128
13:18:15.302,-25.8751,-79.5628
13:18:15.307,-27.0001,-83.6878
13:18:15.341,-28.0314,-86.8128
13:18:15.344,-28.8751,-90.1254
13:18:15.350,-29.2814,-93.8129
13:18:15.350,-30.8126,-96.4379
13:18:15.358,-31.1876,-99.3754
13:18:15.367,-32.1564,-100.5629
13:18:15.377,-31.8751,-102.6879
13:18:15.387,-32.0626,-103.9379
13:18:15.398,-32.7189,-104.5629
13:18:15.407,-33.0626,-107.0629
13:18:15.416,-32.8751,-107.0004
13:18:15.429,-33.5626,-106.6879
13:18:15.437,-33.4376,-108.1879
13:18:15.448,-32.9064,-108.5629
13:18:15.457,-33.4064,-109.0004
13:18:15.467,-33.1876,-109.1254
13:18:15.477,-32.5314,-108.0629
13:18:15.487,-32.2189,-106.4379
13:18:15.497,-30.0314,-100.3129
13:18:15.507,-25.7501,-87.3753
13:18:15.518,-17.1876,-64.3752
13:18:15.527,-6.9063,-34.3126
13:18:15.537,3.8125,-8.125
13:18:15.547,12.8125,15.0001
13:18:15.557,18.2813,34.3126
13:18:15.568,23.8438,48.6252
13:18:15.577,27.5626,59.7502
13:18:15.588,29.5314,66.5628
13:18:15.597,31.9064,72.9378
13:18:15.607,32.9689,77.3753
13:18:15.622,34.5939,81.2503
13:18:15.632,35.5001,86.0628
13:18:15.642,37.0001,87.3128
13:18:15.652,37.6876,89.5003
13:18:15.663,37.8439,91.4379
13:18:15.672,38.0626,92.1879
13:18:15.682,38.1876,94.3754
13:18:15.692,37.9689,94.5004
13:18:15.702,38.3126,94.3754
13:18:15.730,36.7814,94.1254
13:18:15.733,36.6251,92.2504
13:18:15.735,35.6251,89.1253
13:18:15.742,34.3126,86.2503
13:18:15.753,33.3439,83.0628
13:18:15.762,31.6251,79.5003
13:18:15.772,30.2814,75.8128
13:18:15.782,28.5939,73.0003
13:18:15.792,27.6564,69.8128
13:18:15.804,27.5001,68.3128
13:18:15.813,25.9376,65.6878
13:18:15.822,25.0313,64.3127
13:18:15.832,25.0001,63.1877
13:18:15.842,24.2188,60.8127
13:18:15.852,23.7813,59.7502
13:18:15.865,23.0001,58.6252
13:18:15.884,22.6563,57.5002
13:18:15.889,21.3751,55.5002
13:18:15.904,21.1876,53.1877
13:18:15.921,19.6251,51.2502
13:18:16.006,19.3751,48.0002
13:18:16.043,17.6563,45.8752
13:18:16.047,17.6563,43.3752
13:18:16.047,15.7501,40.2502
13:18:16.047,15.8438,36.8126
13:18:16.047,13.0625,33.4376
13:18:16.047,12.4063,29.7501
13:18:16.075,10.9375,25.4376
13:18:16.076,9.2813,22.0626
13:18:16.076,8.25,19.0626
13:18:16.077,6.5625,14.8126
13:18:16.080,5.5938,10.6875
13:18:16.084,4.1875,6.5625
13:18:16.094,2.4688,2.8125
13:18:16.103,1.75,-0.625
13:18:16.112,-0.375,-3.875
13:18:16.122,-1.8125,-7.0625
13:18:16.132,-2.375,-11.5625
13:18:16.142,-4.0625,-15.7501
13:18:16.152,-5.4375,-19.0626
13:18:16.162,-7.125,-23.7501
13:18:16.172,-12.1875,-41.1877
13:18:16.182,-14.9688,-43.9377
13:18:16.192,-15.8126,-49.1252
13:18:16.202,-17.9063,-53.8127
13:18:16.213,-19.0001,-60.1252
13:18:16.223,-26.3751,-80.7503
13:18:16.232,-27.6251,-84.8128
13:18:16.242,-30.3439,-89.1253
13:18:16.258,-30.6564,-93.6879
13:18:16.262,-32.3126,-97.8754
13:18:16.272,-32.5314,-100.0004
13:18:16.282,-33.8439,-101.8129
13:18:16.292,-34.0939,-105.3129
13:18:16.303,-33.5939,-106.8129
13:18:16.312,-35.0939,-107.8129
13:18:16.322,-34.9064,-109.0629
13:18:16.333,-34.9376,-108.8129
13:18:16.342,-35.7189,-108.6879
13:18:16.352,-35.3751,-110.8754
13:18:16.363,-35.7501,-110.2504
13:18:16.372,-36.4689,-110.7504
13:18:16.384,-34.9376,-110.8754
13:18:16.393,-35.6876,-110.4379
13:18:16.402,-35.2501,-110.8129
13:18:16.412,-35.2501,-110.3129
13:18:16.423,-34.1251,-109.2504
13:18:16.433,-35.0626,-108.8129
13:18:16.442,-34.6564,-109.0004
13:18:16.452,-33.9689,-106.5629
13:18:16.462,-32.3439,-103.0004
13:18:16.472,-29.0001,-92.3129
13:18:16.482,-22.1563,-74.1878
13:18:16.492,-13.0625,-47.5627
13:18:16.502,-2.6875,-22.2501
13:18:16.512,5.2813,2.25
13:18:16.522,13.4376,24.0626
13:18:16.532,20.0313,41.8127
13:18:16.543,23.9376,56.6877
13:18:16.552,28.3126,65.1253
13:18:16.565,30.7501,74.6878
13:18:16.574,33.1251,80.4378
13:18:16.582,34.5939,86.1253
13:18:16.592,36.4376,89.5628
13:18:16.603,38.1876,93.8129
13:18:16.613,38.4064,97.3129
13:18:16.622,39.2502,99.3754
13:18:16.632,40.3127,102.7504
13:18:16.642,40.4064,103.5004
13:18:16.660,41.1564,105.9379
13:18:16.663,41.8752,107.0629
13:18:16.699,41.1564,108.1254
13:18:16.700,42.0314,108.6254
13:18:16.702,40.8127,107.6254
13:18:16.705,40.5939,106.5629
13:18:16.745,39.7189,104.0004
13:18:16.747,38.2501,103.0629
13:18:16.749,37.8751,100.3754
13:18:16.753,37.1251,96.5004
13:18:16.758,36.2501,95.4379
13:18:16.764,34.9376,91.9379
13:18:16.796,34.1251,89.4378
13:18:16.797,33.7814,87.5003
13:18:16.800,33.0001,85.3128
13:18:16.802,32.2189,84.0003
13:18:16.833,31.4689,81.8753
13:18:16.836,30.4689,80.8128
13:18:16.838,29.7189,78.6253
13:18:16.844,29.2189,75.6878
13:18:16.853,28.1564,73.7503
13:18:16.864,27.8126,71.6878
13:18:16.873,26.0313,69.2503
13:18:16.883,25.3438,66.3753
13:18:16.892,24.0313,62.0002
13:18:16.902,22.2188,59.1252
13:18:16.912,20.9376,55.3752
13:18:16.922,19.4376,50.1252
13:18:16.932,17.8751,47.0627
13:18:16.942,16.1251,41.1252
13:18:16.952,14.5626,37.1251
13:18:16.964,12.2188,32.1876
13:18:16.972,10.9063,26.7501
13:18:16.982,9.1563,21.5001
13:18:17.009,7.4375,16.1251
13:18:17.012,4.7188,10.75
13:18:17.014,3.4688,5.875
13:18:17.028,1.8438,1.5625
13:18:17.032,0,-3.125
13:18:17.042,-2.0313,-8.375
13:18:17.053,-2.9375,-13.0625
13:18:17.062,-5.2188,-17.0001
13:18:17.072,-6.4688,-21.8126
13:18:17.082,-8.3125,-25.3126
13:18:17.093,-9.8125,-30.6876
13:18:17.102,-11.2813,-36.1251
13:18:17.112,-13.1563,-40.1877
13:18:17.123,-14.5313,-46.0002
13:18:17.132,-15.8438,-49.7502
13:18:17.142,-17.3751,-54.0002
13:18:17.152,-18.9063,-57.5002
13:18:17.162,-20.6563,-61.2502
13:18:17.172,-21.7188,-65.8753
13:18:17.182,-23.1876,-68.5628
13:18:17.203,-23.9063,-71.1253
13:18:17.209,-24.2813,-74.5003
13:18:17.225,-25.2501,-76.5003
13:18:17.228,-26.3751,-79.1878
13:18:17.235,-26.2501,-80.8128
13:18:17.243,-27.7501,-81.8128
13:18:17.252,-27.3126,-84.7503
13:18:17.262,-27.4689,-86.3128
13:18:17.272,-28.9064,-87.3128
13:18:17.287,-28.8751,-88.3753
13:18:17.304,-29.1251,-88.8128
13:18:17.306,-29.0626,-90.6878
13:18:17.314,-29.2189,-90.4378
13:18:17.322,-29.5314,-90.1878
13:18:17.332,-29.2501,-91.7504
13:18:17.342,-29.6564,-91.9379
13:18:17.352,-29.9689,-91.7504
13:18:17.362,-30.1876,-91.9379
13:18:17.372,-30.2501,-93.3754
13:18:17.382,-30.3439,-93.0004
13:18:17.393,-30.1564,-94.8754
13:18:17.403,-30.1564,-95.0629
13:18:17.413,-30.2814,-96.0629
13:18:17.423,-30.1564,-96.1254
13:18:17.433,-30.0626,-95.8754
13:18:17.446,-29.0314,-93.3754
13:18:17.476,-26.0938,-84.6878
13:18:17.477,-20.8751,-69.8753
13:18:17.480,-11.625,-46.8752
13:18:17.483,-3.0313,-22.0626
13:18:17.519,5.5625,-0.6875
13:18:17.521,14.0001,21.8126
13:18:17.524,19.8751,39.8127
13:18:17.526,25.4063,54.1252
13:18:17.532,28.6564,65.5628
13:18:17.569,31.4376,73.2503
13:18:17.571,34.6876,81.5003
13:18:17.574,35.5626,87.7503
13:18:17.576,37.5939,91.2504
13:18:17.582,39.5627,95.4379
13:18:17.610,39.7189,99.2504
13:18:17.613,40.2814,100.6254
13:18:17.615,41.5939,103.2504
13:18:17.627,41.3439,106.4379
13:18:17.632,42.1564,107.3754
13:18:17.643,43.0939,108.1879
13:18:17.653,42.8127,109.3754
13:18:17.662,43.0002,109.5004
13:18:17.672,42.2502,108.7504
13:18:17.683,42.0939,107.3754
13:18:17.693,40.4377,105.2504
13:18:17.704,40.1252,102.3129
13:18:17.715,38.1251,98.8754
13:18:17.724,37.0314,96.0004
13:18:17.735,36.1251,91.5629
13:18:17.742,33.8439,89.6253
13:18:17.752,33.9689,86.3753
13:18:17.763,32.3751,85.0628
13:18:17.776,32.1876,81.0628
13:18:17.782,31.3126,79.8128
13:18:17.793,30.6251,77.1253
13:18:17.802,28.6564,75.0003
13:18:17.812,28.4376,72.1253
13:18:17.822,27.1876,70.2503
13:18:17.832,26.8751,67.2503
13:18:17.842,25.5938,64.8127
13:18:17.852,24.4063,61.7502
13:18:17.862,22.8126,58.4377
13:18:17.872,22.5938,55.1252
13:18:17.882,20.0626,51.8752
13:18:17.892,18.7813,47.3127
13:18:17.902,16.7188,43.4377
13:18:17.912,15.5938,39.1876
13:18:17.922,14.3126,34.4376
13:18:17.936,12.8125,30.6251
13:18:17.942,11.125,26.1876
13:18:17.952,9.2813,23.0626
13:18:17.962,8.3125,18.9376
13:18:17.972,6.375,14.7501
13:18:17.982,5.2813,10.5625
13:18:17.992,3.9063,5.6875
13:18:18.002,1.3438,2.125
13:18:18.012,0.75,-2.875
13:18:18.022,-1.0938,-6.3125
13:18:18.033,-1.8125,-10.9375
13:18:18.042,-3.9063,-14.5626
13:18:18.052,-4.9375,-18.0626
13:18:18.063,-6.4063,-20.7501
13:18:18.073,-6.5313,-24.3126
13:18:18.085,-8.75,-26.6876
13:18:18.108,-9.9688,-30.5626
13:18:18.110,-11.1875,-34.1251
13:18:18.112,-12,-36.7501
13:18:18.147,-12.7813,-39.7502
13:18:18.150,-13.9688,-42.1877
13:18:18.152,-14.7501,-45.0627
13:18:18.154,-16.4376,-46.9377
13:18:18.185,-15.9376,-48.4377
13:18:18.186,-16.5313,-50.5627
13:18:18.191,-16.6563,-51.6877
13:18:18.194,-18.2188,-53.1252
13:18:18.222,-18.5938,-55.4377
13:18:18.224,-18.2813,-55.9377
13:18:18.228,-19.1876,-55.8127
13:18:18.232,-19.2188,-58.3127
13:18:18.260,-19.7188,-59.1252
13:18:18.262,-20.1251,-60.9377
13:18:18.265,-20.7188,-61.3752
13:18:18.290,-20.6251,-64.0627
13:18:18.292,-21.2188,-63.5627
13:18:18.304,-21.7188,-65.3753
13:18:18.305,-22.0938,-66.0003
13:18:18.316,-22.0001,-67.8128
13:18:18.322,-22.2813,-68.1878
13:18:18.332,-23.1251,-70.6878
13:18:18.342,-23.8126,-72.8128
13:18:18.352,-24.6876,-74.5003
13:18:18.363,-24.9063,-76.3753
13:18:18.373,-25.3126,-77.5003
13:18:18.382,-26.5314,-78.5003
13:18:18.392,-25.8438,-77.6878
13:18:18.403,-23.8438,-71.8753
13:18:18.416,-19.2813,-61.2502
13:18:18.422,-12.1563,-44.6252
13:18:18.432,-4.5938,-24.5626
13:18:18.442,2.6563,-3.875
13:18:18.452,9.9375,15.5626
13:18:18.462,15.4376,33.3126
13:18:18.472,20.5938,47.2502
13:18:18.482,25.0313,60.3127
13:18:18.493,19.1251,52.0002
13:18:18.510,27.7814,70.8753
13:18:18.516,31.6251,81.7503
13:18:18.531,34.0314,86.5003
13:18:18.536,35.3439,91.9379
13:18:18.548,36.7501,97.2504
13:18:18.553,38.1564,101.3754
13:18:18.563,40.1877,107.8129
13:18:18.572,42.2502,111.8129
13:18:18.590,43.7814,117.2504
13:18:18.594,36.8126,111.3754
13:18:18.607,44.0627,119.688
13:18:18.616,44.9377,123.2505
13:18:18.622,46.6877,127.0005
13:18:18.632,42.4064,123.1255
13:18:18.642,43.8127,123.7505
13:18:18.652,39.6564,118.188
13:18:18.662,37.4064,113.6879
13:18:18.680,35.2814,107.9379
13:18:18.683,33.0001,102.8754
13:18:18.693,30.9064,97.8754
13:18:18.703,28.7189,93.1254
13:18:18.712,27.0314,89.8128
13:18:18.722,25.9063,86.0003
13:18:18.732,25.2813,83.2503
13:18:18.742,24.1251,80.2503
13:18:18.753,22.8438,77.5628
13:18:18.762,21.0313,74.5628
13:18:18.773,20.7501,72.9378
13:18:18.783,20.2813,70.0003
13:18:18.793,19.5626,69.0003
13:18:18.802,18.8438,66.9378
13:18:18.812,18.2501,64.9377
13:18:18.822,17.5938,61.0002
13:18:18.832,16.5626,58.5627
13:18:18.842,15.3751,55.1252
13:18:18.852,14.5626,52.2502
13:18:18.873,12.7813,49.3127
13:18:18.875,11.625,44.8127
13:18:18.903,10.0625,40.0002
13:18:18.905,8.0938,36.3751
13:18:18.907,6.7813,32.9376
13:18:18.914,4.9063,28.1876
13:18:18.941,3.5,24.9376
13:18:18.947,2.5,20.8126
13:18:18.947,1.1875,17.0626
13:18:18.955,-0.6875,12.875
13:18:18.988,-1.9063,8.6875
13:18:18.989,-2.625,6.1875
13:18:18.991,-4.0938,0.8125
13:18:19.018,-5.4375,-2.1875
13:18:19.020,-6.3438,-5.1875
13:18:19.022,-7.5313,-7.9375
13:18:19.027,-8.3125,-11.625
13:18:19.045,-10.125,-15.3126
13:18:19.054,-11.125,-19.0001
13:18:19.056,-12.125,-22.3751
13:18:19.066,-13.6876,-24.8751
13:18:19.072,-14.0313,-27.5626
13:18:19.085,-14.2501,-30.6251
13:18:19.095,-15.5938,-34.0001
13:18:19.103,-16.0626,-37.1876
13:18:19.113,-17.3438,-38.3126
13:18:19.122,-18.4376,-41.9377
13:18:19.132,-18.5626,-45.5627
13:18:19.142,-19.4063,-47.6877
13:18:19.152,-20.3438,-50.3752
13:18:19.163,-21.8751,-52.3127
13:18:19.172,-21.9376,-54.9377
13:18:19.183,-22.7813,-57.8752
13:18:19.195,-23.2501,-60.6877
13:18:19.202,-24.7501,-63.5002
13:18:19.213,-25.2813,-65.5628
13:18:19.222,-26.1876,-67.9378
13:18:19.234,-26.2813,-71.5003
13:18:19.242,-27.4376,-74.8128
13:18:19.253,-28.0314,-76.6253
13:18:19.265,-28.8126,-78.0628
13:18:19.272,-29.8751,-80.1878
13:18:19.283,-29.9064,-83.3753
13:18:19.292,-31.0314,-85.0003
13:18:19.302,-31.5001,-89.0628
13:18:19.312,-31.8751,-90.1878
13:18:19.322,-32.7501,-91.4379
13:18:19.333,-33.0626,-95.0004
13:18:19.345,-34.0626,-96.9379
13:18:19.352,-34.8126,-100.1879
13:18:19.362,-35.3439,-101.0004
13:18:19.372,-35.5001,-102.1254
13:18:19.382,-34.0001,-101.0629
13:18:19.393,-32.2814,-93.6879
13:18:19.403,-26.6564,-80.0628
13:18:19.415,-18.4376,-58.2502
13:18:19.422,-9.9063,-36.4376
13:18:19.434,-1.5313,-15.7501
13:18:19.442,4.5625,4.9375
13:18:19.452,10.2813,20.4376
13:18:19.462,14.7188,34.9376
13:18:19.472,18.8438,44.3127
13:18:19.484,21.6876,52.8127
13:18:19.497,23.3751,59.2502
13:18:19.502,25.5626,64.3752
13:18:19.515,27.3439,70.3128
13:18:19.522,28.5939,73.3753
13:18:19.533,29.4689,76.1878
13:18:19.543,29.8126,80.7503
13:18:19.569,30.6876,83.0628
13:18:19.571,31.7814,85.0628
13:18:19.573,32.5001,87.6253
13:18:19.583,33.0001,88.0628
13:18:19.592,32.9376,90.1878
13:18:19.602,33.3126,91.6879
13:18:19.612,33.1876,92.1254
13:18:19.632,33.0001,90.7504
13:18:19.634,32.7814,88.8753
13:18:19.664,31.2189,86.5003
13:18:19.667,30.1251,83.5003
13:18:19.670,28.1251,79.5003
13:18:19.699,27.7814,76.6878
13:18:19.702,26.2501,73.2503
13:18:19.704,24.8751,70.2503
13:18:19.708,24.7188,68.4378
13:18:19.739,22.9376,66.7503
13:18:19.742,22.4688,64.4377
13:18:19.745,21.9063,61.7502
13:18:19.748,21.0938,60.1252
13:18:19.778,20.8126,58.8752
13:18:19.781,19.9688,57.3127
13:18:19.784,19.4376,55.6877
13:18:19.821,18.4376,52.5627
13:18:19.835,17.2188,52.0002
13:18:19.838,16.9376,49.2502
13:18:19.852,15.4688,46.8752
13:18:19.853,14.3751,44.4377
13:18:19.853,13.1563,40.6877
13:18:19.854,12.1875,37.6251
13:18:19.858,11.5313,34.1251
13:18:19.868,9.75,29.6251
13:18:19.877,8.25,27.4376
13:18:19.892,7.125,23.3126
13:18:19.909,5.8438,20.0001
13:18:19.914,4.6875,16.5001
13:18:19.920,3.375,12.5
13:18:19.927,1.8438,9.3125
13:18:19.937,1.25,5.625
13:18:19.948,-0.5938,2.0625
13:18:19.960,-2.3125,-0.1875
13:18:19.967,-2.9063,-4.1875
13:18:19.977,-4.1563,-7.0625
13:18:19.987,-5.625,-11.0625
13:18:19.997,-7.0313,-15.1251
13:18:20.007,-7.8438,-18.3751
13:18:20.018,-8.8438,-20.0626
13:18:20.027,-9.7813,-23.8751
13:18:20.037,-11,-27.9376
13:18:20.047,-12.0938,-30.3126
13:18:20.057,-13.5313,-31.5626
13:18:20.067,-13.5626,-34.7501
13:18:20.078,-14.1876,-38.4376
13:18:20.092,-15.9376,-40.9377
13:18:20.103,-16.5938,-43.6877
13:18:20.112,-17.3438,-46.7502
13:18:20.124,-18.3751,-47.7502
13:18:20.133,-19.3438,-52.0627
13:18:20.142,-20.3438,-53.6877
13:18:20.152,-20.8438,-57.2502
13:18:20.162,-21.5001,-58.5627
13:18:20.173,-22.5001,-60.5627
13:18:20.189,-23.2813,-64.3127
13:18:20.195,-23.5001,-66.1878
13:18:20.202,-25.0001,-68.9378
13:18:20.212,-25.6563,-71.5003
13:18:20.222,-25.9376,-72.4378
13:18:20.234,-26.4689,-76.5628
13:18:20.245,-27.5314,-78.4378
13:18:20.252,-29.1564,-81.4378
13:18:20.262,-29.5314,-84.9378
13:18:20.273,-29.5939,-86.5003
13:18:20.302,-31.4376,-89.3753
13:18:20.304,-31.7814,-92.9379
13:18:20.306,-32.7814,-94.4379
13:18:20.312,-33.7189,-98.1254
13:18:20.339,-34.3439,-100.3754
13:18:20.341,-34.9064,-101.9379
13:18:20.343,-34.5314,-100.9379
13:18:20.375,-32.7189,-95.1254
13:18:20.378,-27.9376,-85.8753
13:18:20.380,-21.5938,-67.0003
13:18:20.382,-13.3438,-47.3752
13:18:20.414,-5.9375,-26.0001
13:18:20.416,0.9688,-6.125
13:18:20.418,6.75,10.0625
13:18:20.444,11.5313,24.4376
13:18:20.445,15.1563,33.1251
13:18:20.448,17.3126,42.3752
13:18:20.453,19.3438,46.4377
13:18:20.465,21.0626,52.4377
13:18:20.472,22.2813,54.5627
13:18:20.482,23.0001,57.5002
13:18:20.492,23.0001,60.2502
13:18:20.502,23.8438,62.1252
13:18:20.513,24.1563,62.6252
13:18:20.526,24.9376,64.3752
13:18:20.532,24.5938,64.8127
13:18:20.542,24.5938,64.8752
13:18:20.552,25.2813,65.6253
13:18:20.564,23.8438,64.5627
13:18:20.572,23.5313,64.0002
13:18:20.582,22.5938,60.9377
13:18:20.592,20.9063,58.8752
13:18:20.602,20.0313,55.1877
13:18:20.612,19.2188,51.3752
13:18:20.624,17.9063,49.2502
13:18:20.632,16.5626,45.1877
13:18:20.644,15.3751,43.4377
13:18:20.652,14.8126,41.2502
13:18:20.662,14.7813,39.6252
13:18:20.673,14.1563,37.8751
13:18:20.683,13.1251,37.3751
13:18:20.692,13.2813,35.6876
13:18:20.702,13.3438,34.7501
13:18:20.712,12.3438,33.0001
13:18:20.722,11.6875,33.2501
13:18:20.732,11.6875,30.9376
13:18:20.742,10.5938,28.5626
13:18:20.752,9.4688,26.9376
13:18:20.762,8.5313,25.0001
13:18:20.773,8.1875,22.2501
13:18:20.784,6.9063,18.3751
13:18:20.792,6.1875,17.8126
13:18:20.802,5.5938,14.5626
13:18:20.812,4.3438,11.3125
13:18:20.822,3,8.625
13:18:20.850,2.0625,6.25
13:18:20.852,1.4375,2.6875
13:18:20.858,0,-0.125
13:18:20.862,-1.1563,-2.6875
13:18:20.872,-1.3438,-6
13:18:20.883,-2.5,-9.5625
13:18:20.893,-3.6875,-11.0625
13:18:20.902,-4.6563,-15.3126
13:18:20.912,-6.3125,-18.5626
13:18:20.922,-7.375,-19.8751
13:18:20.938,-7.6563,-24.4376
13:18:20.945,-8.8438,-27.3126
13:18:20.953,-10.125,-28.6876
13:18:20.962,-10.0625,-31.8751
13:18:20.972,-11.3438,-35.0626
13:18:20.982,-13.1563,-36.9376
13:18:20.995,-13.2813,-40.0627
13:18:21.011,-14.4688,-43.0002
13:18:21.013,-15.3438,-45.1252
13:18:21.040,-15.6876,-47.6252
13:18:21.042,-17.2188,-50.6877
13:18:21.045,-17.3126,-52.7502
13:18:21.053,-18.7188,-54.9377
13:18:21.090,-19.1251,-57.5627
13:18:21.093,-20.1876,-59.8752
13:18:21.095,-20.7813,-62.5002
13:18:21.097,-22.2813,-63.5627
13:18:21.103,-22.5313,-67.1253
13:18:21.145,-22.2813,-68.8128
13:18:21.146,-23.6876,-70.7503
13:18:21.149,-24.2501,-73.4378
13:18:21.151,-24.6251,-75.0003
13:18:21.154,-25.9063,-76.3128
13:18:21.183,-26.5314,-79.8128
13:18:21.198,-26.9689,-80.6253
13:18:21.213,-27.5939,-83.8128
13:18:21.216,-28.7814,-85.1878
13:18:21.221,-29.1251,-88.6878
13:18:21.221,-29.0626,-90.7504
13:18:21.223,-31.0001,-93.3129
13:18:21.233,-31.5001,-96.2504
13:18:21.242,-32.6564,-98.2504
13:18:21.252,-32.6251,-99.3754
13:18:21.262,-32.3751,-98.2504
13:18:21.273,-30.3439,-94.0629
13:18:21.283,-25.5001,-81.6878
13:18:21.292,-18.2188,-63.3752
13:18:21.302,-10.625,-41.4377
13:18:21.314,-2.7813,-20.1876
13:18:21.326,4.4375,1.6875
13:18:21.332,10.125,16.8126
13:18:21.342,14.8751,31.9376
13:18:21.352,18.6876,41.6252
13:18:21.363,21.6251,49.8752
13:18:21.374,22.4688,55.8127
13:18:21.382,24.8751,61.7502
13:18:21.392,26.1251,63.8127
13:18:21.402,27.1251,68.2503
13:18:21.413,28.0314,69.8753
13:18:21.422,29.5001,73.5003
13:18:21.432,30.0314,76.0003
13:18:21.442,30.9064,77.8128
13:18:21.453,30.4689,80.7503
13:18:21.464,31.1251,80.3753
13:18:21.472,31.9689,81.3128
13:18:21.482,31.2814,82.2503
13:18:21.495,30.6876,81.1253
13:18:21.502,30.0314,81.3753
13:18:21.513,29.6564,79.1253
13:18:21.523,28.4376,76.5628
13:18:21.532,27.5314,73.5628
13:18:21.542,25.5313,70.3128
13:18:21.552,24.4688,67.3753
13:18:21.565,23.1563,64.3127
13:18:21.572,22.2501,61.8127
13:18:21.582,21.4376,58.5627
13:18:21.594,20.4376,56.6877
13:18:21.605,19.9376,53.9377
13:18:21.613,19.0313,53.4377
13:18:21.622,19.1251,51.1877
13:18:21.632,17.8751,49.2502
13:18:21.643,17.7813,47.9377
13:18:21.654,16.8751,46.5002
13:18:21.662,16.1251,44.4377
13:18:21.672,15.6563,41.8127
13:18:21.689,14.9688,39.6877
13:18:21.694,13.6876,37.1876
13:18:21.702,12.6875,34.9376
13:18:21.712,11.7188,32.5001
13:18:21.722,11.4063,30.1876
13:18:21.733,10.4063,27.3126
13:18:21.742,8.875,23.9376
13:18:21.753,8.0313,21.2501
13:18:21.762,6.7188,18.1876
13:18:21.773,6.4063,15.0626
13:18:21.799,4.4063,11.9375
13:18:21.802,3.25,8.5625
13:18:21.803,2.375,5.6875
13:18:21.840,1.125,2.625
13:18:21.843,-0.1563,-0.8125
13:18:21.845,-0.9063,-4.125
13:18:21.847,-2.5938,-7.5625
13:18:21.852,-2.9688,-9.9375
13:18:21.886,-3.9375,-13.8751
13:18:21.886,-5.8125,-16.3751
13:18:21.890,-6.2813,-20.3126
13:18:21.895,-7.875,-22.5626
13:18:21.928,-8.5313,-24.1876
13:18:21.931,-9.5,-28.3751
13:18:21.934,-10.0625,-29.3751
13:18:21.936,-10.125,-33.3126
13:18:21.962,-11.625,-34.8751
13:18:21.964,-11.6563,-37.8126
13:18:21.966,-12.6875,-39.4377
13:18:21.974,-13.6251,-41.9377
13:18:21.987,-14.6876,-45.0627
13:18:21.992,-14.7813,-47.4377
13:18:22.002,-16.7813,-49.5627
13:18:22.013,-17.2813,-53.5002
13:18:22.022,-18.5626,-55.4377
13:18:22.032,-18.8438,-59.1877
13:18:22.044,-19.9063,-60.9377
13:18:22.053,-21.5001,-63.1877
13:18:22.065,-21.6563,-66.1878
13:18:22.072,-22.8126,-67.4378
13:18:22.084,-22.9688,-71.7503
13:18:22.092,-24.1251,-72.7503
13:18:22.102,-25.1563,-75.4378
13:18:22.129,-25.7501,-79.2503
13:18:22.131,-26.3438,-80.5003
13:18:22.134,-27.4689,-83.4378
13:18:22.142,-27.6876,-85.7503
13:18:22.152,-28.9064,-86.5628
13:18:22.164,-29.2814,-89.5003
13:18:22.172,-29.1876,-91.7504
13:18:22.183,-30.6876,-94.5629
13:18:22.192,-31.1876,-96.1879
13:18:22.202,-31.8126,-97.5004
13:18:22.214,-32.4376,-101.6254
13:18:22.223,-32.3126,-101.8129
13:18:22.232,-32.5001,-101.6254
13:18:22.242,-30.9689,-97.8754
13:18:22.254,-26.8439,-87.0003
13:18:22.262,-20.2501,-70.4378
13:18:22.273,-11.6563,-46.1877
13:18:22.283,-2.9063,-24.8126
13:18:22.293,4.875,-1.6875
13:18:22.305,11.375,18.6876
13:18:22.312,17.8126,34.3126
13:18:22.322,21.0938,46.5627
13:18:22.333,24.8126,55.1877
13:18:22.343,26.4376,62.6877
13:18:22.352,28.7501,69.0003
13:18:22.362,30.0939,73.5628
13:18:22.374,31.3126,77.1253
13:18:22.383,32.9064,81.5003
13:18:22.394,33.1564,83.9378
13:18:22.402,34.6251,87.7503
13:18:22.420,34.7814,91.5004
13:18:22.439,35.6564,92.5629
13:18:22.441,36.5626,94.6254
13:18:22.443,35.6251,96.1879
13:18:22.452,36.1876,97.2504
13:18:22.464,36.0314,98.1254
13:18:22.474,36.6876,98.8129
13:18:22.491,35.5001,97.6254
13:18:22.493,35.3751,96.5004
13:18:22.509,33.9064,95.0629
13:18:22.514,32.9064,91.5629
13:18:22.524,32.7189,88.5003
13:18:22.533,31.1251,86.0003
13:18:22.542,29.8751,82.5003
13:18:22.586,28.6251,80.3128
13:18:22.588,28.7814,77.5003
13:18:22.590,27.4376,76.5628
13:18:22.593,27.5314,74.1253
13:18:22.595,26.9064,72.7503
13:18:22.603,26.2501,72.1878
13:18:22.627,26.4689,70.5003
13:18:22.630,24.5938,68.9378
13:18:22.633,24.1563,67.1253
13:18:22.642,23.1563,64.4377
13:18:22.669,22.0001,62.2502
13:18:22.672,21.5001,60.0627
13:18:22.674,20.8438,57.6877
13:18:22.709,19.1563,55.0002
13:18:22.712,18.5938,51.8752
13:18:22.714,16.3126,48.5002
13:18:22.716,15.0938,45.2502
13:18:22.732,14.0001,41.2502
13:18:22.732,12.4688,38.0001
13:18:22.744,11.0625,34.0626
13:18:22.752,9.625,30.6251
13:18:22.764,8.9375,26.3126
13:18:22.773,6.875,23.7501
13:18:22.783,5.5625,20.0626
13:18:22.792,4.5938,15.3751
13:18:22.804,3.7813,13.2501
13:18:22.813,2.6563,10.25
13:18:22.824,1.7813,6.375
13:18:22.832,0.0625,2.9375
13:18:22.843,-0.6563,0.1875
13:18:22.852,-1.625,-3
13:18:22.862,-2.5,-5.6875
13:18:22.873,-3.5938,-7.6875
13:18:22.883,-4.8438,-11.25
13:18:22.896,-5.4375,-13.5626
13:18:22.903,-6.3125,-16.5626
13:18:22.912,-7.1875,-19.3751
13:18:22.923,-7.9688,-21.8751
13:18:22.935,-8.9375,-25.2501
13:18:22.942,-9.9063,-27.5001
13:18:22.952,-11.0938,-29.9376
13:18:22.962,-11.0938,-32.4376
13:18:22.974,-12.2813,-35.3751
13:18:22.982,-13.9688,-38.2501
13:18:22.993,-13.5626,-40.5627
13:18:23.003,-15.4688,-42.6877
13:18:23.013,-15.3438,-46.1877
13:18:23.022,-17.0938,-49.0002
13:18:23.032,-18.3126,-51.6877
13:18:23.044,-19.6563,-55.0627
13:18:23.053,-19.6876,-57.8127
13:18:23.062,-20.9063,-59.6877
13:18:23.072,-21.9376,-63.8752
13:18:23.082,-22.9376,-65.2503
13:18:23.092,-23.9688,-69.0003
13:18:23.102,-24.9376,-72.1253
13:18:23.113,-25.2188,-73.0628
13:18:23.125,-26.1251,-76.2503
13:18:23.132,-26.8439,-77.1878
13:18:23.143,-27.6564,-81.0003
13:18:23.154,-27.7501,-81.8753
13:18:23.162,-28.2814,-85.2503
13:18:23.173,-28.7814,-86.5628
13:18:23.188,-30.3751,-89.9378
13:18:23.194,-30.8126,-91.3129
13:18:23.202,-31.1876,-94.0004
13:18:23.213,-32.0001,-95.7504
13:18:23.222,-32.2501,-98.1254
13:18:23.232,-33.4376,-99.7504
13:18:23.243,-33.6564,-99.2504
13:18:23.255,-31.9376,-98.0629
13:18:23.268,-29.0939,-88.5628
13:18:23.301,-23.1563,-75.0628
13:18:23.304,-15.8751,-52.8127
13:18:23.307,-6.4688,-31.1251
13:18:23.308,0.875,-8.5625
13:18:23.315,8.25,11
13:18:23.346,14.1251,28.6251
13:18:23.349,18.1251,39.5002
13:18:23.351,21.2813,50.6252
13:18:23.357,23.4688,59.0627
13:18:23.388,25.7188,64.1877
13:18:23.390,27.7814,69.6878
13:18:23.394,28.4376,73.8753
13:18:23.418,30.4689,78.1878
13:18:23.420,30.9064,81.3753
13:18:23.423,31.6251,83.4378
13:18:23.440,32.2814,85.9378
13:18:23.441,32.4064,87.5003
13:18:23.450,32.5314,89.8753
13:18:23.453,32.7189,89.9378
13:18:23.465,33.5314,92.2504
13:18:23.472,32.9689,92.6254
13:18:23.483,32.4376,92.1879
13:18:23.494,31.8751,90.9379
13:18:23.502,30.7189,89.4378
13:18:23.514,30.2189,87.1878
13:18:23.523,28.7814,82.8753
13:18:23.534,26.5001,80.1878
13:18:23.543,26.2188,76.3128
13:18:23.553,24.1876,74.0628
13:18:23.564,23.5938,69.8128
13:18:23.574,22.0313,67.3128
13:18:23.583,20.9688,64.1877
13:18:23.592,20.4063,61.8752
13:18:23.603,19.4688,60.6877
13:18:23.616,19.9063,58.8752
13:18:23.624,18.0626,57.1877
13:18:23.632,17.3438,55.1252
13:18:23.644,16.2501,53.4377
13:18:23.655,15.6876,51.5627
13:18:23.662,15.2188,48.5002
13:18:23.674,13.7188,46.7502
13:18:23.688,13,43.3752
13:18:23.699,11.5313,41.5002
13:18:23.713,10.6563,37.4376
13:18:23.730,9.7188,34.8126
13:18:23.732,8.5625,31.9376
13:18:23.738,7,27.9376
13:18:23.747,5.8125,25.0626
13:18:23.759,5.125,21.0626
13:18:23.769,4.3125,17.7501
13:18:23.787,2.75,14.6251
13:18:23.790,0.5313,11
13:18:23.807,0.2188,7.375
13:18:23.808,-1.2813,4.1875
13:18:23.820,-2.0625,1
13:18:23.829,-3,-3.125
13:18:23.838,-5.2813,-6.8125
13:18:23.851,-7.5313,-11.75
13:18:23.859,-7.5,-15.1251
13:18:23.868,-8.5938,-19.0626
13:18:23.879,-10.4063,-23.0626
13:18:23.889,-11.9063,-25.6876
13:18:23.899,-12.7813,-29.0626
13:18:23.909,-13.6251,-32.8126
13:18:23.920,-15.0938,-34.6876
13:18:23.957,-15.1876,-38.1876
13:18:23.959,-16.8126,-41.8127
13:18:23.961,-17.9376,-45.1877
13:18:23.967,-18.6876,-47.4377
13:18:23.970,-20.4063,-49.9377
13:18:24.006,-20.5313,-54.3127
13:18:24.009,-22.1251,-55.4377
13:18:24.012,-22.4063,-59.5002
13:18:24.018,-23.3438,-61.1877
13:18:24.019,-24.4688,-65.0627
13:18:24.051,-25.3126,-68.3128
13:18:24.054,-26.4064,-70.0003
13:18:24.055,-26.6876,-73.5628
13:18:24.059,-27.4064,-76.0003
13:18:24.088,-28.4689,-77.5003
13:18:24.090,-29.1251,-81.2503
13:18:24.093,-30.5314,-82.8753
13:18:24.099,-30.7814,-86.1878
13:18:24.116,-30.8126,-88.9378
13:18:24.119,-32.4376,-90.0003
13:18:24.129,-32.6564,-93.3129
13:18:24.139,-33.3751,-95.6254
13:18:24.149,-33.9376,-98.1879
13:18:24.159,-34.3126,-100.4379
13:18:24.168,-35.6564,-102.6254
13:18:24.177,-36.1251,-105.0629
13:18:24.187,-37.9064,-107.5004
13:18:24.197,-37.7814,-110.6879
13:18:24.209,-37.8751,-111.4379
13:18:24.219,-37.9689,-113.6879
13:18:24.228,-38.0939,-112.5004
13:18:24.238,-36.6251,-106.6254
13:18:24.249,-31.2501,-94.6254
13:18:24.258,-23.3126,-73.9378
13:18:24.269,-15.1876,-49.4377
13:18:24.278,-6.4688,-27.3126
13:18:24.287,1.5938,-5.125
13:18:24.297,7.75,13.4376
13:18:24.309,13,27.3126
13:18:24.317,15.7501,38.8126
13:18:24.329,18.3126,45.5002
13:18:24.338,20.8126,52.0002
13:18:24.351,21.6251,56.4377
13:18:24.360,22.9063,58.8752
13:18:24.368,23.6251,61.4377
13:18:24.379,23.7813,62.5002
13:18:24.389,23.6563,64.6252
13:18:24.398,25.2813,65.8128
13:18:24.408,24.6876,66.1253
13:18:24.418,25.0626,67.0628
13:18:24.428,24.1563,66.8753
13:18:24.438,23.9688,66.4378
13:18:24.449,23.8126,65.8753
13:18:24.458,23.6251,63.6877
13:18:24.469,22.0938,61.2502
13:18:24.481,21.2813,58.5002
13:18:24.494,18.9063,55.0002
13:18:24.498,18.3438,52.5002
13:18:24.509,17.4376,47.8127
13:18:24.519,15.5626,45.3127
13:18:24.527,15.4688,42.6252
13:18:24.538,13.5938,41.1252
13:18:24.551,13.8751,38.6251
13:18:24.557,13.0625,37.1876
13:18:24.568,12.6875,36.7501
13:18:24.579,12.2813,34.5001
13:18:24.589,11.9688,34.3751
13:18:24.599,11.2813,32.6876
13:18:24.609,11.5,31.5001
13:18:24.620,10.3438,30.5626
13:18:24.628,9.7188,28.1251
13:18:24.639,8.7188,26.5001
13:18:24.650,8.5938,24.8751
13:18:24.659,7.875,21.7501
13:18:24.692,7.0938,19.9376
13:18:24.692,6.0625,17.5626
13:18:24.723,5.125,14.1876
13:18:24.723,3.8125,11.25
13:18:24.724,2.875,9.75
13:18:24.726,2.5313,5.625
13:18:24.733,0.75,2.5625
13:18:24.738,-0.4688,-0.5625
13:18:24.777,-1.9688,-2
13:18:24.778,-1.9375,-6.125
13:18:24.780,-2.9688,-9.375
13:18:24.782,-4.7188,-13.0625
13:18:24.789,-6.1563,-15.1876
13:18:24.821,-6.5313,-18.8751
13:18:24.823,-7.2188,-21.6876
13:18:24.826,-8.3125,-24.0001
13:18:24.828,-9.0625,-27.3751
13:18:24.846,-10.3438,-31.0001
13:18:24.848,-11.5938,-34.0001
13:18:24.858,-11.7188,-35.8126
13:18:24.867,-11.875,-38.4376
13:18:24.877,-13.5001,-41.4377
13:18:24.888,-15.5001,-44.7502
13:18:24.899,-15.7813,-46.6252
13:18:24.909,-15.7813,-48.9377
13:18:24.918,-17.0938,-51.8127
13:18:24.930,-17.8126,-53.8752
13:18:24.939,-19.3438,-55.9377
13:18:24.949,-19.2501,-58.0002
13:18:24.960,-19.9688,-59.3752
13:18:24.967,-20.8438,-63.1252
13:18:24.979,-21.3438,-63.5002
13:18:24.989,-22.5313,-66.8128
13:18:25.008,-22.6563,-69.0003
13:18:25.015,-22.6876,-70.1253
13:18:25.030,-23.5313,-70.8128
13:18:25.033,-23.8438,-75.1253
13:18:25.039,-25.0001,-76.4378
13:18:25.049,-25.7501,-78.4378
13:18:25.058,-25.7501,-80.9378
13:18:25.068,-26.1251,-82.4378
13:18:25.083,-27.3126,-86.2503
13:18:25.100,-28.3751,-88.1253
13:18:25.102,-29.9064,-89.5628
13:18:25.109,-29.9689,-93.0629
13:18:25.120,-29.9064,-94.8129
13:18:25.128,-30.7189,-95.8754
13:18:25.139,-29.6876,-93.1879
13:18:25.150,-26.6251,-85.1878
13:18:25.158,-21.0001,-68.8753
13:18:25.169,-12.8438,-49.1877
13:18:25.179,-5.3438,-26.8751
13:18:25.188,3,-6.375
13:18:25.198,9.2813,14.6876
13:18:25.209,15.5313,30.2501
13:18:25.219,19.9063,42.8127
13:18:25.229,22.6876,53.0627
13:18:25.244,25.4376,60.0627
13:18:25.248,27.5939,67.3753
13:18:25.259,29.1564,71.0003
13:18:25.269,31.0314,76.3753
13:18:25.281,30.8439,80.1878
13:18:25.289,31.8126,83.1253
13:18:25.299,33.4376,85.2503
13:18:25.309,34.5001,88.3753
13:18:25.318,34.0314,91.1879
13:18:25.328,34.8439,91.5629
13:18:25.339,35.7814,93.6254
13:18:25.348,34.6564,94.3754
13:18:25.358,35.7189,94.8129
13:18:25.368,34.8126,94.2504
13:18:25.381,34.2501,93.0629
13:18:25.389,32.7501,91.0004
13:18:25.398,31.9689,87.8753
13:18:25.427,30.9376,85.0628
13:18:25.430,29.1876,82.6878
13:18:25.432,27.7814,78.9378
13:18:25.439,26.8751,75.3128
13:18:25.465,26.4689,73.0628
13:18:25.467,25.7188,70.6878
13:18:25.470,24.7188,68.8128
13:18:25.502,24.1563,66.8128
13:18:25.502,22.9063,65.3752
13:18:25.505,22.5313,63.9377
13:18:25.510,21.9376,62.3752
13:18:25.540,21.7188,60.6877
13:18:25.542,19.9376,58.9377
13:18:25.545,20.1563,57.0627
13:18:25.571,18.9688,55.5002
13:18:25.572,19.0626,53.1877
13:18:25.576,17.4688,51.0002
13:18:25.581,17.0313,47.8752
13:18:25.589,14.4688,44.6877
13:18:25.599,14.4688,41.3127
13:18:25.609,12.9688,38.8751
13:18:25.619,11.375,35.4376
13:18:25.628,10.125,31.0001
13:18:25.639,8.5,28.6251
13:18:25.649,7.7188,24.3126
13:18:25.659,6.5625,21.2501
13:18:25.668,5.1875,18.4376
13:18:25.679,3.5625,14.5001
13:18:25.689,2.6563,11.3125
13:18:25.699,1.875,7.3125
13:18:25.709,0.9688,3.5625
13:18:25.719,-0.4375,1.3125
13:18:25.729,-1.5313,-2.3125
13:18:25.739,-2.2813,-4.8125
13:18:25.749,-3.4688,-7.0625
13:18:25.759,-3.625,-10.4375
13:18:25.769,-4.5625,-13.3126
13:18:25.778,-6.4688,-15.8751
13:18:25.789,-7.3438,-19.6251
13:18:25.801,-6.9375,-21.4376
13:18:25.808,-8.5625,-23.8751
13:18:25.819,-9.6563,-26.5626
13:18:25.829,-10.7188,-30.5001
13:18:25.838,-11.7813,-33.7501
13:18:25.849,-12.9063,-35.5001
13:18:25.859,-13.3751,-38.9376
13:18:25.868,-14.2813,-41.1877
13:18:25.879,-15.2188,-44.8752
13:18:25.889,-16.0001,-46.1877
13:18:25.899,-16.5938,-49.6252
13:18:25.908,-17.5313,-51.3127
13:18:25.919,-18.7188,-53.5002
13:18:25.929,-19.5626,-56.9377
13:18:25.939,-19.0313,-58.6877
13:18:25.972,-21.6563,-61.5627
13:18:25.973,-21.7813,-64.6877
13:18:25.976,-22.1876,-65.8128
13:18:25.981,-23.5626,-68.7503
13:18:25.995,-24.4688,-71.5628
13:18:25.998,-24.1563,-73.0628
13:18:26.009,-25.5313,-75.5628
13:18:26.019,-26.3751,-78.1253
13:18:26.030,-27.1876,-80.8753
13:18:26.038,-28.3126,-83.6878
13:18:26.049,-28.8439,-86.9378
13:18:26.059,-28.9064,-89.0628
13:18:26.068,-30.1564,-91.0004
13:18:26.078,-30.5001,-93.1879
13:18:26.088,-30.6876,-91.7504
13:18:26.099,-27.5626,-85.7503
13:18:26.109,-22.7501,-72.4378
13:18:26.137,-15.1251,-53.4377
13:18:26.141,-7.2188,-31.3751
13:18:26.143,0.5938,-10.5625
13:18:26.148,8.0625,10.8125
13:18:26.179,14.0001,27.8126
13:18:26.182,19.0938,41.6877
13:18:26.184,22.3751,52.9377
13:18:26.190,25.5313,62.2502
13:18:26.219,27.4376,69.3128
13:18:26.222,30.4376,75.5628
13:18:26.224,31.1251,81.4378
13:18:26.229,32.6564,84.2503
13:18:26.255,33.9064,89.3128
13:18:26.259,35.0001,93.3754
13:18:26.260,37.0314,96.6254
13:18:26.290,36.4376,99.0629
13:18:26.292,37.3751,101.2504
13:18:26.295,37.5314,104.4379
13:18:26.314,37.9689,104.9379
13:18:26.314,38.6564,108.0629
13:18:26.321,38.4689,107.4379
13:18:26.330,37.5001,107.0629
13:18:26.345,37.2189,105.8754
13:18:26.352,36.1251,104.1879
13:18:26.361,34.9064,101.1879
13:18:26.380,34.3439,97.4379
13:18:26.382,32.3126,93.8129
13:18:26.391,31.0626,91.6254
13:18:26.399,29.7814,87.6878
13:18:26.414,29.3751,84.6253
13:18:26.421,28.9689,83.0628
13:18:26.430,27.4689,80.4378
13:18:26.438,27.0001,78.8753
13:18:26.450,25.7501,77.5628
13:18:26.458,24.8751,76.1878
13:18:26.469,24.3751,73.9378
13:18:26.480,23.4063,71.3128
13:18:26.489,23.1563,69.5628
13:18:26.498,22.5626,67.4378
13:18:26.511,21.2501,65.5003
13:18:26.518,20.4063,62.8752
13:18:26.529,19.1251,59.1252
13:18:26.539,17.5626,56.3752
13:18:26.549,16.6876,53.2502
13:18:26.560,15.1251,49.3127
13:18:26.569,14.3438,45.8752
13:18:26.579,13.1563,42.5627
13:18:26.590,11.5313,39.3752
13:18:26.599,9.75,36.3126
13:18:26.608,9.5,32.0001
13:18:26.620,7.5,28.8751
13:18:26.629,6.1875,24.8751
13:18:26.639,5.125,20.8126
13:18:26.650,4.3125,17.6876
13:18:26.659,3.4375,14.4376
13:18:26.669,1.0313,11.125
13:18:26.678,0.1875,7.875
13:18:26.688,-0.9375,3.375
13:18:26.699,-2.2188,0.5
13:18:26.709,-2.6875,-2.375
13:18:26.719,-4.1875,-5.875
13:18:26.729,-5,-8.0625
13:18:26.739,-5.7188,-11.6875
13:18:26.752,-6.9063,-13.6876
13:18:26.759,-7.4688,-17.3751
13:18:26.769,-8.5,-20.6876
13:18:26.779,-9.6875,-23.3126
13:18:26.788,-11.1563,-25.6251
13:18:26.798,-12.3125,-29.0626
13:18:26.810,-12.9688,-32.0626
13:18:26.818,-13.5626,-35.5001
13:18:26.829,-14.3438,-37.5626
13:18:26.839,-14.9063,-40.1252
13:18:26.849,-16.5626,-42.9377
13:18:26.860,-16.6876,-46.0002
13:18:26.869,-18.6563,-48.8752
13:18:26.878,-19.2501,-52.6252
13:18:26.891,-20.6563,-54.3127
13:18:26.907,-21.7501,-58.4377
13:18:26.910,-21.8438,-61.5002
13:18:26.941,-23.0313,-63.3752
13:18:26.942,-24.2188,-66.7503
13:18:26.946,-24.4376,-70.1878
13:18:26.950,-26.4376,-72.6878
13:18:26.978,-25.8126,-73.8128
13:18:26.981,-24.9376,-70.3128
13:18:26.982,-22.4376,-63.0627
13:18:27.016,-16.1563,-50.6877
13:18:27.018,-10.4375,-33.1876
13:18:27.020,-2.9375,-15.0626
13:18:27.029,3.8438,3.125
13:18:27.029,8.7813,19.4376
13:18:27.066,13.6876,32.6876
13:18:27.069,17.4688,43.7502
13:18:27.071,21.0001,52.5627
13:18:27.073,23.1251,60.8127
13:18:27.080,24.9376,66.5003
13:18:27.089,26.5626,71.8128
13:18:27.098,27.9689,75.6253
13:18:27.109,29.0001,79.7503
13:18:27.118,29.8751,82.8128
13:18:27.134,30.3439,84.1253
13:18:27.141,31.0939,87.7503
13:18:27.148,31.2189,89.5003
13:18:27.158,31.9689,90.7504
13:18:27.171,32.3439,91.8129
13:18:27.178,31.3751,92.1254
13:18:27.188,31.3439,91.5629
13:18:27.198,30.2501,90.5004
13:18:27.208,28.9689,88.4378
13:18:27.219,28.1876,84.6878
13:18:27.250,26.3751,81.5003
13:18:27.253,25.5313,77.5628
13:18:27.254,23.1563,73.9378
13:18:27.260,22.2501,70.4378
13:18:27.269,20.8751,67.3753
13:18:27.279,19.2813,65.2502
13:18:27.289,19.6251,62.3752
13:18:27.298,18.3438,60.9377
13:18:27.309,18.3438,59.0002
13:18:27.318,17.4688,57.5627
13:18:27.330,16.5626,56.6877
13:18:27.339,15.9376,55.3127
13:18:27.349,15.9376,53.2502
13:18:27.358,14.8751,51.6252
13:18:27.369,14.1876,48.5627
13:18:27.379,12.3438,45.9377
13:18:27.389,11.7813,43.4377
13:18:27.399,10.3438,39.6252
13:18:27.409,9.875,36.9376
13:18:27.418,9.1875,34.1876
13:18:27.428,6.8125,30.1251
13:18:27.441,6.75,27.0626
13:18:27.449,4.4688,24.3751
13:18:27.458,3.375,21.5626
13:18:27.468,2.7813,17.8751
13:18:27.479,1.2188,14.3126
13:18:27.489,0.5625,10.6875
13:18:27.499,-1.2813,7.3125
13:18:27.508,-1.2188,3.75
13:18:27.520,-3.2813,0.125
13:18:27.528,-4.25,-3.3125
13:18:27.539,-5.5,-7
13:18:27.549,-6.8438,-9.625
13:18:27.558,-7.6875,-13.5626
13:18:27.569,-8.75,-17.1251
13:18:27.600,-9.5938,-19.8751
13:18:27.603,-10.4063,-23.3126
13:18:27.603,-12.5938,-25.5001
13:18:27.609,-12.7813,-29.1251
13:18:27.639,-13.8751,-31.7501
13:18:27.643,-14.5313,-34.9376
13:18:27.711,-15.7813,-37.0001
13:18:27.762,-16.9063,-39.6252
13:18:27.778,-17.3751,-43.3127
13:18:27.790,-17.7188,-45.3127
13:18:27.790,-19.0313,-48.6252
13:18:27.790,-19.1876,-50.0002
13:18:27.793,-21.0938,-51.6877
13:18:27.807,-21.2501,-55.7502
13:18:27.815,-21.4376,-58.3127
13:18:27.815,-22.5313,-60.2502
13:18:27.815,-22.9376,-63.0002
13:18:27.818,-23.6876,-63.8752
13:18:27.830,-24.8126,-66.1253
13:18:27.839,-24.9688,-69.4378
13:18:27.851,-26.0938,-71.1253
13:18:27.859,-27.2501,-74.5628
13:18:27.868,-28.8751,-76.0003
13:18:27.884,-27.5001,-77.0003
13:18:27.889,-26.5939,-74.8753
13:18:27.899,-24.6876,-73.0003
13:18:27.909,-21.2188,-67.5628
13:18:27.918,-11.0938,-47.9377
13:18:27.932,29.3751,66.7503
13:18:27.939,32.0001,73.6878
13:18:27.950,33.2814,81.0003
13:18:27.958,34.6564,85.1878
13:18:27.969,35.6564,88.5628
13:18:27.980,37.1251,92.4379
13:18:27.988,38.2189,95.6254
13:18:27.998,38.7189,97.8754
13:18:28.009,39.5002,100.8129
13:18:28.019,40.4064,102.6879
13:18:28.029,41.5939,107.1254
13:18:28.039,44.8752,111.9379
13:18:28.048,44.9689,115.1254
13:18:28.059,47.2502,119.563
13:18:28.069,55.2815,128.063
13:18:28.078,60.6565,137.188
13:18:28.090,61.7815,141.188
13:18:28.098,60.1565,139.813
13:18:28.109,58.0315,138.2505
13:18:28.119,58.969,139.6255
13:18:28.128,59.7815,141.6255
13:18:28.140,60.0002,143.2505
13:18:28.148,60.0627,145.438
13:18:28.158,60.8752,145.813
13:18:28.171,60.9377,145.438
13:18:28.178,60.4377,144.938
13:18:28.189,58.469,142.938
13:18:28.198,57.1252,141.7505
13:18:28.209,55.8752,139.313
13:18:28.220,54.1252,136.3755
13:18:28.228,51.2814,131.813
13:18:28.238,49.0314,126.7505
13:18:28.249,45.5627,121.563
13:18:28.259,43.0314,116.0629
13:18:28.269,40.7814,110.2504
13:18:28.279,38.3439,106.3754
13:18:28.289,36.9376,101.6879
13:18:28.300,35.3751,97.8754
13:18:28.309,33.7814,95.5004
13:18:28.322,32.3751,91.0629
13:18:28.328,30.5001,85.9378
13:18:28.362,30.8126,85.3128
13:18:28.363,31.0314,86.1878
13:18:28.367,30.8751,85.3128
13:18:28.369,30.7189,85.5003
13:18:28.398,29.3439,83.0003
13:18:28.399,28.0314,79.8753
13:18:28.403,26.0001,76.5003
13:18:28.409,24.5626,70.8753
13:18:28.424,23.7188,68.8128
13:18:28.429,23.1876,65.6878
13:18:28.457,21.4376,62.6252
13:18:28.457,18.3126,56.3752
13:18:28.461,15.2813,49.1252
13:18:28.496,11.0938,38.5626
13:18:28.501,7.0938,30.1876
13:18:28.501,4.5313,22.6251
13:18:28.529,0.7188,14.5001
13:18:28.531,-2.7188,6.1875
13:18:28.532,-6.5313,-2.6875
13:18:28.533,-9.75,-9.5625
13:18:28.540,-11.8125,-16.4376
13:18:28.549,-15.1563,-22.1251
13:18:28.559,-17.2501,-28.4376
13:18:28.568,-17.9376,-33.3126
13:18:28.580,-17.4688,-32.6876
13:18:28.588,-15.7188,-31.5001
13:18:28.599,-16.2813,-30.2501
13:18:28.609,-15.4063,-29.7501
13:18:28.619,-12.4063,-23.5626
13:18:28.634,-8.4063,-14.7501
13:18:28.639,-7.25,-9.5625
13:18:28.648,-7.5,-8.25
13:18:28.660,-6.5625,-10.9375
13:18:28.669,-6.6875,-13.6251
13:18:28.678,-7.0313,-16.0001
13:18:28.688,-9.375,-21.3126
13:18:28.698,-12.625,-29.7501
13:18:28.709,-17.1563,-39.1877
13:18:28.719,-20.7813,-50.5002
13:18:28.728,-23.7501,-59.2502
13:18:28.740,-28.0626,-68.0003
13:18:28.750,-31.4064,-77.3753
13:18:28.759,-33.4376,-84.1878
13:18:28.768,-35.0939,-89.3753
13:18:28.778,-35.2814,-91.8754
13:18:28.789,-33.9376,-90.7504
13:18:28.799,-31.3439,-82.0628
13:18:28.810,-26.0938,-69.4378
13:18:28.819,-18.9063,-52.9377
13:18:28.828,-11.7813,-31.6876
13:18:28.838,-2.2813,-10.375
13:18:28.849,5.375,12.4375
13:18:28.859,12.8438,30.6251
13:18:28.869,18.5001,46.3752
13:18:28.878,21.2188,59.5627
13:18:28.889,24.7188,69.2503
13:18:28.898,27.6876,80.6253
13:18:28.911,28.8439,89.0628
13:18:28.918,31.2189,94.0629
13:18:28.928,32.2814,98.5004
13:18:28.938,33.0626,101.9379
13:18:28.948,35.5314,105.6254
13:18:28.959,37.3751,109.1879
13:18:28.968,36.4376,109.5629
13:18:28.990,34.0626,105.0004
13:18:28.993,30.7814,101.9379
