timestamp,Red,IR
14:13:33.559,25.7813,55.9065
14:13:33.565,26.8439,56.9065
14:13:33.570,24.9063,52.7815
14:13:33.601,23.6251,50.4689
14:13:33.603,22.4376,49.1877
14:13:33.606,21.2813,46.8439
14:13:33.611,20.1251,43.5002
14:13:33.637,18.6563,41.1564
14:13:33.642,16.6876,38.3126
14:13:33.644,15.0313,35.2814
14:13:33.650,13.5626,31.8126
14:13:33.682,12.0625,28.9689
14:13:33.684,10.125,25.2813
14:13:33.687,8.7813,21.4376
14:13:33.689,6.75,18.2813
14:13:33.729,5.5313,14.9376
14:13:33.732,3.6563,11.0313
14:13:33.734,2.0625,7.7813
14:13:33.736,0.3125,5.2813
14:13:33.743,-1.5625,1.6875
14:13:33.750,-2.75,-1.2188
14:13:33.759,-4.3438,-5.5625
14:13:33.770,-5.7813,-7.9063
14:13:33.780,-7.5,-11.5313
14:13:33.789,-8.3438,-14.4063
14:13:33.800,-9.6563,-16.9688
14:13:33.810,-11.1875,-20.6563
14:13:33.821,-12.7813,-23.4688
14:13:33.829,-14.5313,-26.0626
14:13:33.841,-15.8126,-29.6876
14:13:33.850,-16.6876,-32.0939
14:13:33.859,-18.0626,-35.0314
14:13:33.870,-19.1251,-37.9064
14:13:33.880,-20.8438,-40.5939
14:13:33.889,-21.2813,-42.4377
14:13:33.902,-22.2188,-45.4064
14:13:33.909,-22.9376,-47.4064
14:13:33.919,-24.3438,-49.2814
14:13:33.929,-24.8438,-51.8127
14:13:33.940,-26.6564,-53.0315
14:13:33.960,-26.9376,-56.0315
14:13:33.967,-27.6876,-58.8127
14:13:33.969,-29.0314,-60.6565
14:13:33.985,-30.2189,-62.9065
14:13:33.992,-30.8751,-64.7502
14:13:34.000,-32.0001,-67.0315
14:13:34.010,-32.9376,-69.344
14:13:34.020,-33.6564,-70.219
14:13:34.029,-34.3439,-72.844
14:13:34.040,-35.1876,-73.2503
14:13:34.049,-35.2501,-74.0003
14:13:34.059,-34.7814,-74.7503
14:13:34.070,-33.6876,-74.2815
14:13:34.080,-32.1564,-72.1878
14:13:34.090,-29.6876,-68.5003
14:13:34.100,-26.5939,-63.5002
14:13:34.109,-22.6563,-57.2815
14:13:34.120,-18.1563,-50.4064
14:13:34.130,-14.1251,-41.2502
14:13:34.141,-8.9375,-31.8126
14:13:34.149,-3.375,-22.3126
14:13:34.160,1.9063,-12.4375
14:13:34.169,6.8438,-2.2188
14:13:34.180,11.2188,7.8125
14:13:34.190,15.8438,16.0626
14:13:34.200,20.9376,25.0626
14:13:34.211,24.2188,32.8439
14:13:34.221,27.8126,39.5627
14:13:34.229,30.9689,46.6564
14:13:34.240,33.5626,52.4377
14:13:34.250,36.5314,58.8752
14:13:34.260,38.8751,62.4065
14:13:34.274,41.0314,67.6565
14:13:34.281,42.1252,71.6878
14:13:34.291,43.7814,74.5003
14:13:34.299,43.7189,76.7815
14:13:34.310,44.2189,77.5003
14:13:34.319,42.7189,78.5003
14:13:34.331,42.6564,76.8128
14:13:34.340,40.7502,76.1253
14:13:34.350,39.4064,74.1878
14:13:34.372,37.8439,70.719
14:13:34.375,36.0314,68.9065
14:13:34.391,33.8439,65.2502
14:13:34.392,32.2501,63.6565
14:13:34.422,30.5939,60.594
14:13:34.422,28.3439,57.5002
14:13:34.425,26.6564,55.7502
14:13:34.432,25.2188,52.7814
14:13:34.447,23.9063,50.0627
14:13:34.449,22.6251,47.8752
14:13:34.478,21.6251,45.4064
14:13:34.480,19.5001,43.4689
14:13:34.482,18.8126,41.1564
14:13:34.513,16.6251,38.0314
14:13:34.514,15.2813,35.1564
14:13:34.517,13.9376,31.5314
14:13:34.524,11.625,28.5314
14:13:34.537,10.5313,25.7813
14:13:34.539,8.875,22.4376
14:13:34.549,7.9375,19.4063
14:13:34.559,6.3438,15.6876
14:13:34.569,4.4375,12.9063
14:13:34.581,3.9688,10.125
14:13:34.590,1.9063,7.4063
14:13:34.599,0.0938,3.7813
14:13:34.612,-1.25,0.1875
14:13:34.620,-2.6875,-2.4375
14:13:34.629,-4.0938,-5.8125
14:13:34.639,-6.2813,-8.7813
14:13:34.649,-7.5625,-12.3125
14:13:34.659,-8.75,-15.2501
14:13:34.670,-10.4688,-18.0938
14:13:34.680,-11.7813,-21.5313
14:13:34.690,-13.5001,-23.5938
14:13:34.701,-14.5313,-26.9689
14:13:34.709,-16.0001,-30.7501
14:13:34.719,-17.5001,-32.8126
14:13:34.729,-18.5313,-34.9376
14:13:34.762,-19.6563,-37.4064
14:13:34.765,-20.1563,-40.2814
14:13:34.781,-21.5938,-43.1252
14:13:34.783,-23.1876,-43.9689
14:13:34.797,-23.7813,-47.3127
14:13:34.812,-24.9688,-48.6564
14:13:34.814,-25.6876,-51.3439
14:13:34.815,-26.2501,-54.1252
14:13:34.830,-27.3751,-55.4065
14:13:34.832,-27.8439,-57.719
14:13:34.841,-28.7814,-59.5315
14:13:34.850,-29.4376,-61.5627
14:13:34.860,-30.4064,-63.219
14:13:34.869,-30.5939,-65.0315
14:13:34.880,-31.7189,-66.344
14:13:34.890,-33.0314,-68.0315
14:13:34.901,-33.5626,-70.7503
14:13:34.910,-34.6564,-71.9065
14:13:34.919,-35.0001,-73.6878
14:13:34.929,-35.9064,-75.6878
14:13:34.939,-36.1876,-76.7815
14:13:34.949,-35.6876,-77.5628
14:13:34.960,-36.2189,-77.5628
14:13:34.970,-34.1564,-76.4065
14:13:34.980,-33.1564,-73.344
14:13:34.990,-30.4689,-70.4378
14:13:34.999,-27.1876,-64.7815
14:13:35.009,-23.1251,-58.5315
14:13:35.023,-18.8438,-51.8439
14:13:35.031,-14.0313,-41.4689
14:13:35.055,-8.625,-32.5626
14:13:35.057,-3.0938,-21.8126
14:13:35.067,2.125,-10.8438
14:13:35.071,7.5625,-1.9688
14:13:35.100,12.125,9.0938
14:13:35.102,17.3438,17.8751
14:13:35.104,21.3126,27.4689
14:13:35.114,25.4376,34.5626
14:13:35.120,29.9376,43.0002
14:13:35.150,31.9064,49.5627
14:13:35.152,35.3751,56.2502
14:13:35.155,37.7501,61.5315
14:13:35.161,39.7189,65.969
14:13:35.196,41.7814,71.7503
14:13:35.198,43.2814,74.844
14:13:35.201,45.4064,79.0316
14:13:35.206,45.6877,82.9066
14:13:35.217,46.0627,82.5628
14:13:35.221,45.5314,83.5316
14:13:35.231,44.6564,83.2503
14:13:35.241,43.2502,82.6253
14:13:35.249,42.2502,80.1566
14:13:35.267,40.4064,78.1878
14:13:35.274,38.5314,76.1878
14:13:35.281,36.8751,72.969
14:13:35.290,35.5001,71.0628
14:13:35.305,33.4376,68.219
14:13:35.323,31.9376,65.5002
14:13:35.326,30.0939,63.4065
14:13:35.335,29.0001,61.1565
14:13:35.345,27.7814,59.344
14:13:35.356,26.1876,57.0002
14:13:35.364,25.0001,55.0627
14:13:35.375,23.7501,51.7502
14:13:35.384,22.0313,50.1877
14:13:35.398,20.0938,47.1564
14:13:35.405,19.1563,43.7814
14:13:35.415,17.5001,41.4689
14:13:35.424,15.8438,37.7814
14:13:35.435,14.6251,35.0626
14:13:35.445,14.2501,32.8126
14:13:35.455,12.2813,30.3439
14:13:35.465,10.5938,26.7814
14:13:35.474,8.1563,21.9063
14:13:35.484,7.1563,19.3751
14:13:35.494,5.5938,16.1563
14:13:35.505,3.9375,13.2188
14:13:35.515,2.8125,9.625
14:13:35.524,0.7188,6.0938
14:13:35.535,-0.8125,2.4375
14:13:35.544,-2,0
14:13:35.555,-3.5625,-4.1875
14:13:35.564,-5.2813,-7.375
14:13:35.574,-7.5938,-9.5625
14:13:35.584,-8.8438,-12.6875
14:13:35.595,-9.4375,-16.0626
14:13:35.604,-11.0625,-19.3751
14:13:35.614,-12.8438,-21.2188
14:13:35.625,-13.8751,-24.8126
14:13:35.634,-15.1251,-27.8439
14:13:35.644,-16.5626,-30.9689
14:13:35.655,-17.3751,-32.0314
14:13:35.665,-18.0938,-35.1564
14:13:35.674,-19.3126,-37.4689
14:13:35.684,-20.5938,-40.0314
14:13:35.696,-21.3126,-41.8127
14:13:35.705,-22.0626,-44.8752
14:13:35.714,-23.4063,-46.0314
14:13:35.725,-23.8751,-49.3439
14:13:35.735,-24.5626,-50.9377
14:13:35.745,-25.8438,-52.4064
14:13:35.757,-26.3126,-55.094
14:13:35.764,-27.5939,-56.2502
14:13:35.778,-28.3751,-59.5627
14:13:35.785,-28.7814,-60.6877
14:13:35.794,-29.5626,-62.5002
14:13:35.820,-30.4376,-64.7815
14:13:35.823,-30.7189,-65.2815
14:13:35.827,-31.4064,-67.4378
14:13:35.855,-30.9376,-67.344
14:13:35.858,-30.4376,-65.5628
14:13:35.859,-28.5001,-65.0315
14:13:35.866,-25.8751,-61.094
14:13:35.891,-23.5001,-56.4065
14:13:35.894,-19.4376,-50.1564
14:13:35.896,-14.6563,-41.5314
14:13:35.927,-10.2188,-33.9689
14:13:35.930,-4.5,-23.2813
14:13:35.932,0.2813,-12.4688
14:13:35.934,6.3125,-2.5625
14:13:35.965,11.1563,8.3125
14:13:35.968,15.7813,17.6876
14:13:35.970,20.9063,26.7814
14:13:35.978,25.0938,35.5626
14:13:35.985,29.3439,43.8752
14:13:35.995,33.0626,51.9064
14:13:36.004,35.9689,58.1252
14:13:36.014,39.0001,64.3127
14:13:36.041,41.4377,69.4378
14:13:36.043,43.5002,75.1253
14:13:36.047,45.1252,80.5316
14:13:36.055,47.4689,83.8753
14:13:36.064,48.5314,87.7503
14:13:36.074,49.0939,89.7816
14:13:36.095,49.9377,91.6879
14:13:36.098,49.0627,91.8754
14:13:36.108,48.4689,91.1566
14:13:36.115,46.8127,90.0941
14:13:36.129,44.7814,88.0316
14:13:36.138,43.4064,85.7503
14:13:36.144,42.0314,83.0316
14:13:36.161,39.0314,80.3128
14:13:36.166,37.4376,77.0315
14:13:36.174,35.8439,74.0628
14:13:36.185,33.5001,71.6565
14:13:36.194,32.4064,70.094
14:13:36.205,31.0001,66.594
14:13:36.215,30.1564,64.219
14:13:36.226,28.3439,61.5315
14:13:36.236,27.0939,59.4377
14:13:36.245,25.5626,56.6565
14:13:36.254,24.0001,54.6877
14:13:36.265,22.6251,51.7502
14:13:36.274,21.6251,49.3439
14:13:36.284,20.2188,45.9689
14:13:36.294,18.9063,43.5002
14:13:36.305,18.4063,40.8127
14:13:36.315,16.1563,38.4376
14:13:36.325,15.0001,35.4689
14:13:36.335,13.6251,31.3439
14:13:36.344,12.25,29.2501
14:13:36.355,10.5,26.3126
14:13:36.365,9.3125,22.8751
14:13:36.374,8.0938,19.7501
14:13:36.386,6.4375,16.2188
14:13:36.394,4.4688,13.7501
14:13:36.406,3.0625,10.3125
14:13:36.415,1.1875,6.6875
14:13:36.425,0.1563,3.1875
14:13:36.435,-1.8125,-0.0938
14:13:36.444,-3.9375,-3.2188
14:13:36.463,-5.1875,-6.125
14:13:36.478,-6.5938,-9.6563
14:13:36.482,-7.875,-12.5313
14:13:36.487,-9.5313,-16.6876
14:13:36.495,-10.75,-18.5626
14:13:36.506,-12,-22.3438
14:13:36.515,-13.0625,-24.5938
14:13:36.524,-13.9376,-28.0314
14:13:36.536,-15.0001,-29.8751
14:13:36.568,-15.2188,-32.7814
14:13:36.569,-17.0626,-35.0939
14:13:36.572,-17.1251,-37.7814
14:13:36.574,-18.8751,-39.7502
14:13:36.679,-19.3751,-42.1252
14:13:36.680,-20.2501,-43.7189
14:13:36.682,-20.5626,-46.0314
14:13:36.685,-21.7188,-47.8439
14:13:36.690,-22.1251,-49.9064
14:13:36.692,-23.4688,-51.4064
14:13:36.692,-23.6876,-52.9377
14:13:36.700,-25.5001,-54.719
14:13:36.716,-25.7813,-57.344
14:13:36.722,-27.0626,-58.6877
14:13:36.731,-28.4689,-60.7502
14:13:36.740,-29.5001,-63.7815
14:13:36.750,-30.1564,-65.6253
14:13:36.760,-30.3126,-67.344
14:13:36.769,-31.5626,-68.7503
14:13:36.779,-31.6251,-69.969
14:13:36.789,-32.4689,-70.5315
14:13:36.800,-31.5001,-71.3753
14:13:36.809,-30.5626,-69.2815
14:13:36.820,-28.4689,-67.6878
14:13:36.830,-25.7501,-62.5315
14:13:36.840,-22.5626,-57.6877
14:13:36.850,-18.4376,-51.6877
14:13:36.860,8.3438,-2.125
14:13:36.869,12.9063,8.4688
14:13:36.879,17.3438,18.0938
14:13:36.889,22.5313,26.7814
14:13:36.899,25.3438,35.0626
14:13:36.910,29.0626,42.8752
14:13:36.919,32.4376,50.2502
14:13:36.929,35.4376,56.4377
14:13:36.940,38.2814,62.6252
14:13:36.950,40.3752,69.3753
14:13:36.960,42.7189,72.7815
14:13:36.969,44.3127,77.6565
14:13:36.979,46.2502,81.5003
14:13:36.990,47.8752,84.5941
14:13:36.999,47.6564,86.5316
14:13:37.009,47.6564,86.7816
14:13:37.019,47.0002,87.3441
14:13:37.029,45.4377,86.3441
14:13:37.040,44.2189,84.4691
14:13:37.049,42.7502,82.6878
14:13:37.060,40.9064,80.2503
14:13:37.069,38.7189,76.8753
14:13:37.079,37.3751,74.7503
14:13:37.093,34.9064,71.844
14:13:37.100,33.8439,69.7503
14:13:37.111,32.1564,67.1253
14:13:37.121,30.7189,64.8752
14:13:37.129,29.5001,62.7815
14:13:37.140,28.2814,60.844
14:13:37.149,26.6251,57.9065
14:13:37.159,25.0626,56.0002
14:13:37.170,23.9688,52.7502
14:13:37.180,22.3438,50.8752
14:13:37.190,20.7813,46.7189
14:13:37.200,19.3126,44.8127
14:13:37.209,17.5938,40.8127
14:13:37.221,16.3438,37.9689
14:13:37.244,14.7501,34.4064
14:13:37.246,13.6876,31.5939
14:13:37.275,12.1875,28.3126
14:13:37.277,9.8438,25.0001
14:13:37.279,7.8125,21.9376
14:13:37.283,7,18.6251
14:13:37.323,4.75,14.8751
14:13:37.325,3.2813,11.4688
14:13:37.327,1.5,7.9063
14:13:37.332,-0.125,5.1563
14:13:37.337,-1.5,1.2188
14:13:37.343,-2.6875,-1.0625
14:13:37.370,-4.5938,-5.1563
14:13:37.372,-5.6563,-8.0313
14:13:37.375,-6.7813,-11.25
14:13:37.381,-8.5625,-13.7501
14:13:37.409,-9.8438,-16.3751
14:13:37.412,-10.625,-20.1563
14:13:37.428,-12.5,-22.2501
14:13:37.431,-13.4063,-25.5313
14:13:37.445,-14.9376,-28.3439
14:13:37.445,-16.3751,-30.2814
14:13:37.461,-17.4376,-33.5626
14:13:37.483,-18.8126,-35.8439
14:13:37.485,-19.7501,-39.3127
14:13:37.487,-20.7188,-41.1877
14:13:37.493,-21.6563,-43.6564
14:13:37.501,-22.7501,-45.8439
14:13:37.509,-24.2813,-48.7502
14:13:37.520,-25.1876,-50.7814
14:13:37.532,-26.5001,-53.469
14:13:37.540,-26.9064,-55.4377
14:13:37.550,-28.4064,-56.9377
14:13:37.561,-29.3751,-60.1877
14:13:37.570,-30.7814,-61.7502
14:13:37.581,-31.9376,-64.3127
14:13:37.590,-33.0626,-65.844
14:13:37.600,-34.0001,-68.9065
14:13:37.610,-34.7189,-70.969
14:13:37.621,-35.8439,-73.594
14:13:37.631,-36.9689,-74.5315
14:13:37.641,-36.5001,-76.469
14:13:37.650,-36.9376,-75.5628
14:13:37.660,-35.5939,-75.469
14:13:37.670,-33.5626,-72.969
14:13:37.680,-30.7814,-68.469
14:13:37.692,-27.9689,-63.8127
14:13:37.699,-23.6876,-57.1565
14:13:37.712,-19.8438,-48.1252
14:13:37.721,-14.5001,-40.2502
14:13:37.729,-9.125,-30.0939
14:13:37.740,-4.3438,-20.2813
14:13:37.749,0.75,-10.5625
14:13:37.759,5.5938,-0.5625
14:13:37.769,10.6563,8
14:13:37.780,15.0001,17.0313
14:13:37.789,18.4688,26.1876
14:13:37.802,22.2813,32.9064
14:13:37.811,25.8751,39.5627
14:13:37.819,27.7189,46.0002
14:13:37.831,30.8751,51.3439
14:13:37.846,33.2814,56.969
14:13:37.850,35.1251,61.2815
14:13:37.861,37.4689,64.6252
14:13:37.870,38.0939,69.2815
14:13:37.879,39.4064,70.7503
14:13:37.890,40.1252,72.7503
14:13:37.900,39.7814,73.9065
14:13:37.911,39.0939,73.7503
14:13:37.920,37.8751,73.1878
14:13:37.931,36.6251,70.6253
14:13:37.945,35.6876,69.3128
14:13:37.955,33.6876,66.1565
14:13:37.961,31.2814,63.7815
14:13:38.027,30.1251,61.8752
14:13:38.029,28.3751,58.8752
14:13:38.030,26.6251,57.0315
14:13:38.032,26.1251,54.4065
14:13:38.040,23.8438,51.7814
14:13:38.040,22.2813,49.3439
14:13:38.040,21.3751,47.8127
14:13:38.046,21.0938,45.4377
14:13:38.054,18.3438,42.3439
14:13:38.084,17.6251,39.9064
14:13:38.087,16.0001,37.8126
14:13:38.090,14.8751,35.8126
14:13:38.096,13.6563,31.7189
14:13:38.122,12.2188,29.2814
14:13:38.125,11,26.2188
14:13:38.127,8.7813,23.5626
14:13:38.154,7.9063,20.8751
14:13:38.154,6.25,16.8438
14:13:38.157,4.5,14.1876
14:13:38.166,3.625,10.5938
14:13:38.178,1.3125,8
14:13:38.185,-0.5,4.9063
14:13:38.197,-2.2188,0.4375
14:13:38.205,-5.3125,-3.5625
14:13:38.221,-6.625,-7.2813
14:13:38.226,-7.875,-11.2188
14:13:38.235,-9.9063,-13.3751
14:13:38.245,-11.0313,-18.2813
14:13:38.256,-13.0313,-20.3126
14:13:38.267,-14.1251,-23.7501
14:13:38.276,-15.9063,-26.3751
14:13:38.286,-16.9063,-29.8439
14:13:38.295,-18.7813,-32.1251
14:13:38.304,-19.5626,-35.0626
14:13:38.317,-21.0001,-38.3439
14:13:38.326,-22.2501,-41.0314
14:13:38.336,-23.1876,-43.2502
14:13:38.345,-24.1563,-45.6252
14:13:38.355,-25.4688,-48.4064
14:13:38.366,-26.3751,-50.4377
14:13:38.375,-26.6564,-52.5627
14:13:38.386,-28.0314,-54.9377
14:13:38.394,-29.0626,-57.3752
14:13:38.405,-29.7814,-59.1252
14:13:38.416,-31.0939,-61.5627
14:13:38.424,-31.5939,-63.2502
14:13:38.436,-32.9689,-64.2502
14:13:38.445,-33.8439,-67.094
14:13:38.455,-34.4064,-68.7815
14:13:38.465,-35.4064,-70.0628
14:13:38.475,-36.5001,-72.969
14:13:38.487,-36.9064,-74.0628
14:13:38.496,-38.1876,-77.094
14:13:38.507,-38.8126,-78.0628
14:13:38.516,-40.2814,-78.5628
14:13:38.524,-40.4377,-82.0316
14:13:38.536,-41.0627,-82.8753
14:13:38.547,-42.1877,-85.3128
14:13:38.556,-42.6252,-86.7503
14:13:38.566,-43.8127,-88.0316
14:13:38.576,-43.1877,-88.2503
14:13:38.602,-42.5627,-87.1253
14:13:38.606,-41.3439,-86.5316
14:13:38.611,-38.8126,-83.5003
14:13:38.623,-36.7501,-78.469
14:13:38.631,-33.1876,-73.344
14:13:38.639,-28.2501,-66.0315
14:13:38.651,-24.2501,-57.9065
14:13:38.661,-19.1251,-49.2814
14:13:38.671,-14.3126,-38.5001
14:13:38.680,-8.75,-28.6251
14:13:38.713,-3,-17.5938
14:13:38.715,2.0938,-8.1875
14:13:38.719,6.7813,1.1875
14:13:38.720,10.7813,11.5938
14:13:38.756,15.6251,19.2501
14:13:38.756,20.2501,27.7189
14:13:38.783,24.1876,37.7814
14:13:38.810,27.8751,45.5002
14:13:38.814,31.1564,52.2502
14:13:38.876,33.2501,58.719
14:13:38.876,35.8126,62.719
14:13:38.879,38.2501,67.1878
14:13:38.879,38.6564,70.969
14:13:38.884,39.7189,73.7815
14:13:38.886,40.3752,75.719
14:13:38.886,39.9689,78.1565
14:13:38.890,39.5314,76.594
14:13:38.901,38.9064,76.0315
14:13:38.910,37.2189,75.4378
14:13:38.920,36.6876,73.219
14:13:38.931,34.3439,70.969
14:13:38.941,33.6251,69.1253
14:13:38.951,30.9064,66.8128
14:13:38.959,30.0001,65.0627
14:13:38.971,28.3439,62.469
14:13:38.980,27.3439,60.2502
14:13:38.991,25.2188,58.594
14:13:39.002,22.7188,54.5627
14:13:39.011,21.6251,52.0627
14:13:39.020,20.5313,50.3752
14:13:39.031,18.3438,46.7814
14:13:39.041,17.4688,43.8439
14:13:39.051,13.2813,36.4689
14:13:39.061,12.5625,34.2501
14:13:39.071,10.0625,31.5626
14:13:39.081,9.75,28.4064
14:13:39.091,7.6875,25.6251
14:13:39.101,6.75,22.1876
14:13:39.112,4.5313,19.6563
14:13:39.120,3.1563,16.5313
14:13:39.131,1.6875,12.7188
14:13:39.140,0.2813,9.5313
14:13:39.150,-1.9063,6.4688
14:13:39.160,-4.0313,2.0313
14:13:39.170,-5.375,0.0313
14:13:39.181,-6.5938,-4
14:13:39.191,-8,-7.5625
14:13:39.200,-10.375,-10.625
14:13:39.210,-11.9375,-14.0001
14:13:39.221,-12.6875,-16.8438
14:13:39.231,-14.4376,-19.9376
14:13:39.241,-15.1876,-23.0001
14:13:39.251,-17.0938,-25.9376
14:13:39.260,-18.5001,-28.4689
14:13:39.275,-20.0001,-31.0626
14:13:39.284,-21.0001,-33.9064
14:13:39.291,-21.7501,-36.8751
14:13:39.307,-23.3751,-38.3751
14:13:39.313,-24.0001,-41.2502
14:13:39.323,-24.9376,-43.0314
14:13:39.331,-26.0313,-45.3752
14:13:39.341,-25.7501,-47.6877
14:13:39.351,-27.6564,-49.8439
14:13:39.360,-28.8751,-52.1252
14:13:39.375,-29.6564,-53.469
14:13:39.381,-30.7814,-55.844
14:13:39.391,-31.1876,-57.8127
14:13:39.400,-32.4376,-58.6877
14:13:39.417,-33.1564,-61.5627
14:13:39.426,-33.4064,-63.7502
14:13:39.436,-34.9689,-65.344
14:13:39.453,-34.8126,-67.2815
14:13:39.456,-36.4376,-68.0315
14:13:39.466,-37.2814,-70.844
14:13:39.500,-37.6564,-71.9065
14:13:39.502,-38.6876,-74.5003
14:13:39.504,-39.4064,-75.5003
14:13:39.507,-40.3439,-76.7503
14:13:39.539,-41.5314,-78.6878
14:13:39.542,-41.5314,-80.3753
14:13:39.544,-42.0939,-80.9378
14:13:39.549,-40.9689,-80.9378
14:13:39.563,-41.0002,-80.3441
14:13:39.566,-39.6252,-79.0628
14:13:39.598,-36.2501,-74.6253
14:13:39.599,-33.0001,-68.719
14:13:39.603,-29.2189,-63.4377
14:13:39.610,-25.0626,-55.3752
14:13:39.617,-20.0001,-46.9377
14:13:39.625,-15.0626,-37.2189
14:13:39.635,-9.6875,-27.7501
14:13:39.646,-4.8125,-17.5938
14:13:39.656,0.5938,-7.5938
14:13:39.665,4.875,1.5313
14:13:39.676,9.875,10.5625
14:13:39.687,13.6563,18.8751
14:13:39.696,18.0313,27.1876
14:13:39.706,21.0001,35.4689
14:13:39.715,24.5938,41.0939
14:13:39.726,28.4376,48.0002
14:13:39.737,30.1251,53.7815
14:13:39.750,31.9689,57.8752
14:13:39.756,33.8126,63.3752
14:13:39.765,35.5939,66.594
14:13:39.775,36.6876,70.0315
14:13:39.786,38.1876,72.5628
14:13:39.796,37.0939,73.3753
14:13:39.806,36.6251,73.3128
14:13:39.816,36.0626,73.5628
14:13:39.826,34.7189,72.0003
14:13:39.836,33.4376,70.6565
14:13:39.845,32.0626,68.5628
14:13:39.855,30.3439,66.8753
14:13:39.881,29.0626,64.969
14:13:39.883,27.5626,62.5627
14:13:39.885,26.2188,61.1252
14:13:39.897,24.6563,58.219
14:13:39.906,23.6876,56.969
14:13:39.916,21.9376,54.9065
14:13:39.926,21.4688,53.5627
14:13:39.936,19.8438,52.0939
14:13:39.946,18.7813,50.0939
14:13:39.955,17.7188,46.8752
14:13:39.966,15.9376,45.6877
14:13:39.975,14.9063,42.2502
14:13:39.986,13.8126,40.8752
14:13:39.996,12.8438,37.1876
14:13:40.006,10.9063,34.6564
14:13:40.016,9.4375,32.0939
14:13:40.026,8.5625,28.6564
14:13:40.036,6.5625,25.3126
14:13:40.046,5.625,22.1563
14:13:40.056,3.4375,19.8438
14:13:40.066,1.6875,16.5313
14:13:40.076,0.5,13.4063
14:13:40.085,-0.8438,10.3125
14:13:40.096,-2.9375,6.875
14:13:40.105,-3.7813,3.625
14:13:40.145,-5.875,1.1563
14:13:40.146,-6.8125,-2.0938
14:13:40.209,-8.5625,-5.5625
14:13:40.241,-10.3125,-8.1563
14:13:40.243,-11.375,-11.875
14:13:40.243,-13.6876,-14.3126
14:13:40.245,-14.6876,-17.8126
14:13:40.247,-15.8751,-20.2501
14:13:40.256,-17.0313,-23.6563
14:13:40.256,-19.1251,-26.5001
14:13:40.256,-19.7813,-30.1251
14:13:40.261,-21.3438,-31.4064
14:13:40.289,-22.3126,-34.7189
14:13:40.295,-23.6251,-36.6564
14:13:40.295,-24.0313,-40.0002
14:13:40.301,-26.1251,-41.5627
14:13:40.312,-26.3126,-44.9377
14:13:40.321,-27.9689,-46.5627
14:13:40.331,-29.1876,-50.0627
14:13:40.340,-30.3126,-51.3752
14:13:40.353,-30.8751,-53.6565
14:13:40.360,-32.0001,-56.344
14:13:40.371,-34.1564,-61.6252
14:13:40.380,-35.5001,-61.9377
14:13:40.391,-36.3126,-64.9377
14:13:40.403,-36.7189,-66.969
14:13:40.411,-37.9064,-68.469
14:13:40.420,-42.7189,-79.0941
14:13:40.431,-43.9064,-81.1566
14:13:40.441,-44.5939,-82.3128
14:13:40.451,-45.4064,-83.8128
14:13:40.461,-45.6877,-84.1878
14:13:40.471,-45.6252,-84.2503
14:13:40.480,-45.0002,-84.8753
14:13:40.491,-44.0939,-82.1878
14:13:40.505,-41.5002,-80.8128
14:13:40.512,-39.1876,-76.3753
14:13:40.520,-35.7189,-70.594
14:13:40.531,-32.0001,-64.094
14:13:40.541,-27.2501,-57.344
14:13:40.551,-23.1876,-48.5002
14:13:40.561,-17.8751,-39.9377
14:13:40.571,-13.2188,-29.5626
14:13:40.580,-7.7813,-20.7188
14:13:40.596,-3.2188,-10.0625
14:13:40.612,2.1563,-1.4688
14:13:40.614,6.75,8.3438
14:13:40.629,10.4375,18.0001
14:13:40.632,14.6563,24.7813
14:13:40.647,19.3751,32.4689
14:13:40.651,21.6876,39.2189
14:13:40.660,24.2501,45.2814
14:13:40.671,27.1564,51.9377
14:13:40.680,28.7189,55.9065
14:13:40.691,30.9689,60.3752
14:13:40.701,31.8439,64.844
14:13:40.712,33.5314,66.7815
14:13:40.721,33.5001,70.1565
14:13:40.731,33.5939,69.844
14:13:40.740,33.2189,71.2503
14:13:40.751,31.9064,69.6565
14:13:40.761,31.2189,68.5315
14:13:40.770,28.9376,67.719
14:13:40.780,27.6564,65.1252
14:13:40.791,26.2813,63.3127
14:13:40.801,24.9688,60.9377
14:13:40.811,23.4063,59.1877
14:13:40.821,22.5938,57.1252
14:13:40.853,20.8751,56.0315
14:13:40.856,19.5938,53.2815
14:13:40.858,18.5313,51.2502
14:13:40.861,16.7813,49.5002
14:13:40.889,15.8126,47.3752
14:13:40.892,14.2813,45.1877
14:13:40.917,13.7188,42.7814
14:13:40.921,12.2813,40.2502
14:13:40.922,11.3125,37.9689
14:13:40.925,9.5938,35.2501
14:13:40.953,8.25,31.8751
14:13:40.958,7.0625,29.3439
14:13:40.958,5.7813,26.7189
14:13:40.966,4.125,23.8438
14:13:40.999,2.7813,21.2188
14:13:41.001,1.9375,18.1876
14:13:41.003,-0.0625,14.5938
14:13:41.022,-0.9375,11.6875
14:13:41.023,-3.125,8.8125
14:13:41.026,-5.2188,6.4063
14:13:41.036,-6.2188,2.625
14:13:41.046,-8.4375,-1.7813
14:13:41.056,-10.1563,-5.7188
14:13:41.065,-12.1875,-8.2813
14:13:41.075,-13.5313,-11.0625
14:13:41.085,-15.0938,-14.8438
14:13:41.097,-16.5001,-17.4063
14:13:41.105,-17.6563,-21.2188
14:13:41.115,-18.8438,-24.0313
14:13:41.126,-20.1876,-26.8751
14:13:41.136,-22.0313,-29.6251
14:13:41.161,-22.5626,-32.3439
14:13:41.163,-24.0001,-35.4376
14:13:41.169,-25.3751,-37.0001
14:13:41.177,-26.0001,-40.1564
14:13:41.187,-27.4376,-41.7189
14:13:41.196,-28.0314,-44.8127
14:13:41.206,-29.3751,-46.8752
14:13:41.216,-30.0001,-49.7189
14:13:41.226,-31.5626,-50.9377
14:13:41.235,-32.3439,-54.0627
14:13:41.245,-33.3751,-56.9377
14:13:41.256,-34.0001,-58.1252
14:13:41.265,-35.5626,-60.5315
14:13:41.276,-35.9376,-62.844
14:13:41.286,-36.8439,-64.0627
14:13:41.295,-37.1251,-66.5628
14:13:41.306,-38.4689,-67.344
14:13:41.317,-39.0939,-69.6878
14:13:41.325,-39.9064,-71.1253
14:13:41.337,-41.0627,-72.7503
14:13:41.345,-41.5314,-75.5315
14:13:41.355,-42.6877,-76.344
14:13:41.366,-43.2814,-78.7191
14:13:41.377,-44.6877,-80.1253
14:13:41.385,-44.6877,-82.3128
14:13:41.395,-45.8439,-83.0941
14:13:41.406,-46.0627,-85.5003
14:13:41.415,-46.3127,-85.1566
14:13:41.426,-45.8127,-85.0003
14:13:41.436,-44.4377,-83.8128
14:13:41.447,-43.0627,-82.1878
14:13:41.456,-40.6252,-78.6878
14:13:41.467,-37.5314,-74.6253
14:13:41.476,-34.7189,-67.6253
14:13:41.491,-30.2189,-62.5627
14:13:41.499,-26.2814,-54.5627
14:13:41.505,-21.6876,-46.4377
14:13:41.523,-17.2813,-36.3439
14:13:41.526,-11.8125,-28.0939
14:13:41.541,-7.3125,-18.4688
14:13:41.547,-2.2813,-8.5938
14:13:41.556,2.0625,-0.375
14:13:41.566,6.375,8.0938
14:13:41.576,10.5938,16.7813
14:13:41.591,13.8438,24.4688
14:13:41.595,17.1876,30.2814
14:13:41.624,20.2813,36.9689
14:13:41.626,22.5626,42.8752
14:13:41.627,25.1876,47.9064
14:13:41.662,26.9689,52.5002
14:13:41.665,27.9689,55.094
14:13:41.666,29.4689,58.7815
14:13:41.668,29.5001,61.5002
14:13:41.698,29.9376,62.094
14:13:41.702,29.6876,63.3127
14:13:41.703,29.1876,62.7815
14:13:41.711,28.5626,61.719
14:13:41.724,27.6251,60.2502
14:13:41.727,26.2188,59.3127
14:13:41.764,24.8126,57.9377
14:13:41.765,23.8438,56.1252
14:13:41.767,22.5313,54.6877
14:13:41.776,21.6563,53.6565
14:13:41.778,21.0001,52.1252
14:13:41.791,19.6251,51.1252
14:13:41.797,18.5626,49.2502
14:13:41.806,17.3438,46.9064
14:13:41.816,16.4063,45.5002
14:13:41.827,15.5626,44.3752
14:13:41.835,14.7813,42.4064
14:13:41.846,13.1251,40.0939
14:13:41.856,12.0625,38.0001
14:13:41.866,11.5625,36.0001
14:13:41.876,9.625,33.7501
14:13:41.886,8.8438,31.2189
14:13:41.896,7.3438,27.9376
14:13:41.913,6.125,25.6251
14:13:41.922,4.2813,23.4376
14:13:41.928,2.6875,20.7188
14:13:41.935,1.875,17.4376
14:13:41.952,0.5313,14.7188
14:13:41.960,-0.9063,12.0938
14:13:41.966,-3.375,9.6563
14:13:41.975,-3.8438,6.5938
14:13:41.985,-5.8438,4.0938
14:13:41.995,-6.75,0.125
14:13:42.006,-8.75,-1.5625
14:13:42.017,-10,-5.4688
14:13:42.025,-11.5313,-8.1563
14:13:42.036,-12.5313,-10.9688
14:13:42.046,-14.5313,-13.7813
14:13:42.056,-15.8438,-16.5313
14:13:42.066,-16.5938,-19.2188
14:13:42.076,-18.3126,-22.4376
14:13:42.086,-19.3751,-25.2188
14:13:42.095,-20.8126,-27.4064
14:13:42.106,-21.8751,-29.8751
14:13:42.116,-22.2501,-32.2501
14:13:42.125,-23.5626,-34.9689
14:13:42.135,-24.8126,-36.1251
14:13:42.146,-25.1876,-39.0939
14:13:42.155,-27.0626,-41.9064
14:13:42.165,-27.8439,-43.6252
14:13:42.175,-28.6251,-45.4377
14:13:42.185,-28.6876,-46.6877
14:13:42.195,-30.0626,-49.7189
14:13:42.205,-30.6876,-51.8752
14:13:42.217,-31.5626,-53.9377
14:13:42.225,-32.1251,-55.344
14:13:42.236,-32.5939,-57.2815
14:13:42.246,-34.2501,-59.344
14:13:42.256,-34.6876,-60.844
14:13:42.265,-35.4376,-62.6565
14:13:42.275,-36.3751,-64.594
14:13:42.286,-36.7501,-65.844
14:13:42.295,-37.6564,-68.094
14:13:42.307,-38.7189,-69.344
14:13:42.316,-39.5002,-71.219
14:13:42.348,-40.4064,-72.1565
14:13:42.353,-40.1564,-73.4378
14:13:42.353,-40.6252,-73.0628
14:13:42.358,-40.0627,-73.1565
14:13:42.383,-38.1251,-71.5628
14:13:42.386,-35.8751,-67.4378
14:13:42.387,-33.2189,-64.5002
14:13:42.420,-30.0626,-58.6252
14:13:42.422,-26.5626,-51.3752
14:13:42.425,-22.0001,-45.1564
14:13:42.450,-17.5938,-35.8751
14:13:42.454,-12.5,-27.2814
14:13:42.456,-6.875,-17.9688
14:13:42.456,-2.4063,-7.875
14:13:42.488,2.5625,2.5625
14:13:42.491,7.4688,11.0313
14:13:42.493,11.9375,20.3751
14:13:42.495,15.9376,28.5001
14:13:42.507,20.2501,36.6564
14:13:42.516,23.1876,44.5314
14:13:42.525,26.5314,50.3752
14:13:42.540,29.6876,57.219
14:13:42.546,31.5939,61.969
14:13:42.556,33.6564,67.4065
14:13:42.565,35.7189,71.2815
14:13:42.577,36.8439,75.8128
14:13:42.586,37.7189,77.0315
14:13:42.596,38.3126,78.7816
14:13:42.606,37.7501,79.6253
14:13:42.617,36.6876,80.1878
14:13:42.626,36.3126,79.5003
14:13:42.636,35.1564,77.8753
14:13:42.645,34.0314,77.0315
14:13:42.656,32.2814,75.1565
14:13:42.665,31.0939,73.719
14:13:42.676,30.3751,71.5003
14:13:42.687,28.4064,70.1253
14:13:42.696,27.2189,67.844
14:13:42.707,25.6876,65.8753
14:13:42.716,24.7813,64.594
14:13:42.726,23.6876,62.469
14:13:42.736,23.0938,61.5315
14:13:42.745,21.8126,58.9065
14:13:42.756,20.1563,56.844
14:13:42.765,19.5001,54.9065
14:13:42.776,18.1563,53.0627
14:13:42.788,16.6563,50.1564
14:13:42.796,15.3126,47.7502
14:13:42.810,13.6876,44.2189
14:13:42.820,12.375,42.3439
14:13:42.828,11.3438,39.4377
14:13:42.841,10.4063,35.9689
14:13:42.849,8.625,32.5314
14:13:42.856,6.7188,30.5626
14:13:42.865,5.5625,27.0314
14:13:42.876,4.1563,23.6251
14:13:42.887,2.3125,19.8751
14:13:42.896,0.1875,17.5001
14:13:42.906,-1.1875,14.0001
14:13:42.915,-2.4375,10.625
14:13:42.931,-4.4375,8.7188
14:13:42.936,-5.125,4.7813
14:13:42.947,-6.6875,1.4375
14:13:42.955,-8.7813,-1.4688
14:13:42.967,-10.4688,-3.5625
14:13:42.975,-11,-7.4063
14:13:42.986,-12.6875,-10.6875
14:13:42.996,-14.3751,-14.0313
14:13:43.006,-15.8126,-16.2813
14:13:43.016,-16.4688,-19.0001
14:13:43.037,-18.6251,-22.3751
14:13:43.038,-19.6563,-23.2501
14:13:43.073,-20.2188,-26.8751
14:13:43.075,-21.3438,-29.5939
14:13:43.077,-22.7188,-31.0939
14:13:43.079,-23.5313,-33.8751
14:13:43.086,-24.4063,-36.8751
14:13:43.129,-26.2813,-38.2501
14:13:43.132,-26.9064,-40.5002
14:13:43.134,-27.7501,-43.2502
14:13:43.162,-28.3751,-45.1877
14:13:43.162,-29.1876,-47.2502
14:13:43.163,-30.2814,-49.7502
14:13:43.165,-31.4689,-51.0939
14:13:43.172,-32.3439,-53.8127
14:13:43.180,-32.6251,-55.4377
14:13:43.186,-34.0314,-56.0315
14:13:43.207,-34.6564,-59.094
14:13:43.210,-35.0939,-60.6252
14:13:43.216,-36.3751,-62.4065
14:13:43.236,-36.5939,-64.7815
14:13:43.242,-38.3751,-66.1253
14:13:43.249,-38.5001,-68.094
14:13:43.256,-39.0001,-69.6565
14:13:43.274,-39.5314,-69.6565
14:13:43.279,-39.2501,-71.1878
14:13:43.291,-38.6564,-70.0628
14:13:43.295,-37.1564,-69.1253
14:13:43.306,-35.3126,-66.344
14:13:43.317,-33.1251,-63.1877
14:13:43.326,-29.3439,-57.969
14:13:43.336,-26.2501,-51.0002
14:13:43.345,-21.7188,-44.7189
14:13:43.355,-16.7188,-36.1876
14:13:43.367,-12.6563,-25.9376
14:13:43.375,-7.1875,-17.9063
14:13:43.386,-2.6875,-7.375
14:13:43.397,3.1875,1.2188
14:13:43.405,7.375,11.9063
14:13:43.416,11.6875,19.6876
14:13:43.426,16.5626,28.9689
14:13:43.436,20.9063,36.5001
14:13:43.447,23.5938,45.1877
14:13:43.461,27.0001,50.7814
14:13:43.471,29.9376,57.2502
14:13:43.481,32.5626,62.844
14:13:43.492,34.8439,68.7503
14:13:43.501,36.9376,72.6253
14:13:43.512,38.0626,76.5628
14:13:43.520,39.4064,79.3128
14:13:43.531,39.6252,82.2503
14:13:43.541,39.3439,81.8441
14:13:43.551,39.6877,82.4066
14:13:43.561,37.5001,81.5628
14:13:43.571,36.6564,80.4691
14:13:43.582,35.2189,79.1566
14:13:43.591,34.0626,77.2815
14:13:43.601,32.3126,75.5315
14:13:43.611,30.9689,73.2815
14:13:43.621,29.6251,72.7815
14:13:43.632,27.8751,70.469
14:13:43.640,27.6564,68.2503
14:13:43.651,26.3126,66.344
14:13:43.662,25.4063,65.2502
14:13:43.672,24.0313,64.094
14:13:43.680,23.6876,61.3752
14:13:43.691,22.1876,59.4065
14:13:43.720,20.9376,56.7815
14:13:43.726,19.8438,55.094
14:13:43.730,18.1876,52.8127
14:13:43.731,17.0001,50.4689
14:13:43.742,15.5313,48.2189
14:13:43.766,14.7188,45.6252
14:13:43.768,13.6563,42.5627
14:13:43.772,11.7188,40.4064
14:13:43.805,11.2188,36.5626
14:13:43.807,9.2188,34.1564
14:13:43.811,8.125,31.2814
14:13:43.839,6.625,27.6564
14:13:43.840,5,25.7813
14:13:43.842,3.1875,21.1876
14:13:43.847,1.75,18.6563
14:13:43.854,0.2813,15.8751
14:13:43.885,-1.4063,12.9375
14:13:43.888,-2.9375,9.4688
14:13:43.889,-4.1563,6.75
14:13:43.892,-6,4.0938
14:13:43.925,-7.2188,0.7188
14:13:43.927,-8.2188,-2.6563
14:13:43.929,-10,-5.3438
14:13:43.938,-10.5313,-8
14:13:43.944,-12.9688,-10.9375
14:13:43.952,-13.9063,-13.125
14:13:43.962,-15.1563,-16.6563
14:13:43.972,-16.6251,-19.4688
14:13:43.982,-17.9376,-21.0313
14:13:43.992,-19.2813,-25.2501
14:13:44.000,-20.0938,-27.4689
14:13:44.013,-20.7813,-29.4064
14:13:44.022,-22.1563,-31.9064
14:13:44.031,-22.8751,-33.9064
14:13:44.040,-24.1876,-35.9064
14:13:44.055,-24.4063,-38.0626
14:13:44.060,-25.1876,-39.9064
14:13:44.072,-26.5314,-42.9689
14:13:44.082,-26.7814,-44.0939
14:13:44.091,-28.1876,-46.3752
14:13:44.102,-28.4064,-47.8752
14:13:44.111,-28.4376,-49.0314
14:13:44.128,-29.4689,-50.4377
14:13:44.144,-29.8751,-52.5002
14:13:44.147,-29.9376,-52.969
14:13:44.152,-30.7189,-54.0315
14:13:44.162,-29.2814,-53.5627
14:13:44.172,-28.9064,-51.7189
14:13:44.183,-27.2189,-51.3752
14:13:44.192,-24.2813,-48.2189
14:13:44.201,-20.5313,-42.5939
14:13:44.211,-15.3438,-36.9376
14:13:44.222,-9.0625,-28.3439
14:13:44.232,-2.25,-17.7501
14:13:44.241,6.625,-5.5313
14:13:44.251,15.9063,8.2188
14:13:44.261,23.4063,22.1876
14:13:44.271,30.9689,36.4689
14:13:44.282,38.8126,52.6252
14:13:44.292,46.1877,66.6878
14:13:44.302,53.594,83.0316
14:13:44.311,59.219,95.6566
14:13:44.322,65.6878,109.6567
14:13:44.331,68.1878,121.0317
14:13:44.342,71.219,130.0005
14:13:44.351,74.844,139.2193
14:13:44.363,77.6253,148.0943
14:13:44.372,81.7816,157.2819
14:13:44.382,84.6253,165.8131
14:13:44.391,88.3753,173.3757
14:13:44.402,91.1879,182.0632
14:13:44.411,93.5629,188.032
14:13:44.422,96.1879,195.032
14:13:44.432,98.9379,200.5945
14:13:44.443,100.7191,205.0633
14:13:44.452,102.0004,209.7508
14:13:44.462,103.1879,214.1883
14:13:44.473,104.9066,215.6571
14:13:44.482,105.5317,218.4071
14:13:44.516,106.2817,219.8446
14:13:44.517,106.1879,221.1883
14:13:44.520,107.9692,223.0321
14:13:44.522,107.4379,223.4696
14:13:44.553,108.2817,224.9696
14:13:44.556,107.2192,224.4384
14:13:44.573,106.5317,223.6884
14:13:44.575,105.5004,223.0009
14:13:44.609,105.5004,222.3446
14:13:44.611,104.8754,222.1571
14:13:44.613,103.7504,221.9384
14:13:44.621,103.0941,221.1259
14:13:44.651,101.4379,219.1258
14:13:44.651,100.6566,216.4696
14:13:44.652,98.6254,215.0633
14:13:44.655,97.4691,212.4071
14:13:44.673,94.4691,210.3446
14:13:44.674,93.3441,205.8758
14:13:44.675,90.7816,202.782
14:13:44.682,88.1878,198.282
14:13:44.692,85.0628,194.1882
14:13:44.703,82.3128,189.3445
14:13:44.712,79.5628,185.1257
14:13:44.722,77.0628,180.9069
14:13:44.730,75.219,175.7507
14:13:44.742,71.9378,171.0006
14:13:44.752,69.594,166.4069
14:13:44.761,67.5315,162.3756
14:13:44.773,64.8127,157.5631
14:13:44.782,62.8752,152.9068
14:13:44.792,59.6877,148.3443
14:13:44.805,57.1252,143.0943
14:13:44.813,54.8127,137.7818
14:13:44.821,52.5002,133.1255
14:13:44.832,49.9689,127.7817
14:13:44.842,47.4064,123.3755
14:13:44.852,45.4064,118.9692
14:13:44.862,42.8752,114.2192
14:13:44.872,41.0002,109.0629
14:13:44.882,38.1876,104.6879
14:13:44.892,36.8751,100.5629
14:13:44.900,34.5001,95.9379
14:13:44.913,32.8751,92.0941
14:13:44.921,31.1251,88.6253
14:13:44.932,29.2189,84.5628
14:13:44.942,27.9064,79.9691
14:13:44.952,25.6876,77.6253
14:13:44.962,25.0938,73.1565
14:13:44.974,23.4376,70.219
14:13:45.002,21.7188,67.0628
14:13:45.004,19.6876,61.6565
14:13:45.007,17.6876,58.719
14:13:45.013,16.0938,54.5627
14:13:45.023,14.9688,50.7814
14:13:45.032,13.1251,46.9064
14:13:45.042,11.4688,43.5314
14:13:45.053,9.75,39.6564
14:13:45.062,8.0313,36.2501
14:13:45.072,7.1563,32.8751
14:13:45.082,5.1563,29.6251
14:13:45.092,4.375,26.3126
14:13:45.102,2.1563,23.8751
14:13:45.112,1.4063,20.6251
14:13:45.122,0.5313,17.5001
14:13:45.133,-1.2813,14.9063
14:13:45.142,-2.0625,12
14:13:45.152,-2.2188,11.6563
14:13:45.161,-1.0938,11.7188
14:13:45.172,0.7188,13.2188
14:13:45.183,3.2813,16.0626
14:13:45.192,6.625,20.3751
14:13:45.202,9.75,25.9688
14:13:45.212,15.2188,32.6564
14:13:45.242,19.1876,40.7814
14:13:45.244,25.2501,48.9377
14:13:45.247,29.9064,57.8127
14:13:45.254,35.3126,66.969
14:13:45.280,40.2814,75.719
14:13:45.282,45.9377,84.5941
14:13:45.285,50.1877,93.5004
14:13:45.315,54.7502,101.2816
14:13:45.317,58.594,108.5942
14:13:45.319,62.4065,114.9067
14:13:45.325,65.6878,122.313
14:13:45.333,68.9065,127.7817
14:13:45.363,71.7815,133.4693
14:13:45.364,74.9378,139.2505
14:13:45.367,77.0003,143.688
14:13:45.376,78.7816,147.5318
14:13:45.400,80.6566,150.3756
14:13:45.402,80.5628,152.8131
14:13:45.404,81.0941,155.0318
14:13:45.424,80.5628,154.1881
14:13:45.426,79.5628,154.5006
14:13:45.440,78.7816,152.6881
14:13:45.443,76.6565,150.7506
14:13:45.452,74.1878,147.6568
14:13:45.462,72.219,145.2193
14:13:45.472,69.7503,141.5318
14:13:45.482,66.9378,138.0005
14:13:45.493,64.719,134.8443
14:13:45.502,62.0315,132.0005
14:13:45.511,59.4065,128.7817
14:13:45.522,58.1252,125.063
14:13:45.532,55.8127,122.4692
14:13:45.542,54.594,118.938
14:13:45.555,52.8752,116.4067
14:13:45.562,51.0939,112.6879
14:13:45.572,48.9689,109.6567
14:13:45.582,47.4377,106.8442
14:13:45.592,45.7814,103.9066
14:13:45.602,43.9689,100.7504
14:13:45.612,42.0314,97.5941
14:13:45.622,40.4377,93.1879
14:13:45.632,37.7814,90.0941
14:13:45.642,35.8751,86.0628
14:13:45.652,33.8439,82.5316
14:13:45.662,32.0314,79.0941
14:13:45.672,29.5626,74.219
14:13:45.682,27.6876,70.8753
14:13:45.692,25.2813,66.5315
14:13:45.702,22.4063,62.4377
14:13:45.712,20.6876,58.1252
14:13:45.724,17.9063,54.1252
14:13:45.732,16.1876,50.0939
14:13:45.742,12.875,45.5939
14:13:45.751,11.4375,41.5939
14:13:45.762,9.4688,36.7189
14:13:45.772,6.5625,33.1876
14:13:45.782,5.1563,28.7501
14:13:45.792,3.5313,25.0626
14:13:45.802,1.4688,22.2501
14:13:45.812,0.25,18.3126
14:13:45.822,-1.7188,15.5001
14:13:45.832,-2.75,12.1875
14:13:45.842,-3.9375,9.625
14:13:45.852,-5.2188,7.0313
14:13:45.868,-6.3125,4.2813
14:13:45.883,-7.7188,1.875
14:13:45.886,-8.7813,0.0938
14:13:45.892,-9.5313,-2.6563
14:13:45.902,-9.5313,-3.875
14:13:45.912,-10.7188,-5.5
14:13:45.922,-11.4375,-7.4688
14:13:45.937,-12.3125,-10.25
14:13:45.942,-13.8438,-12
14:13:45.951,-15.0313,-13.6563
14:13:45.962,-16.0626,-15.7501
14:13:45.972,-17.8126,-19.3126
14:13:45.982,-19.4688,-21.3751
14:13:45.993,-22.7188,-25.8751
14:13:46.002,-28.6251,-31.1876
14:13:46.012,-34.0001,-36.9064
14:13:46.044,-36.1564,-39.5002
14:13:46.046,-36.8751,-41.7189
14:13:46.048,-38.4376,-44.2814
14:13:46.052,-39.7814,-45.0314
14:13:46.087,-39.4377,-46.4377
14:13:46.090,-38.0626,-45.8752
14:13:46.093,-37.1251,-44.3752
14:13:46.093,-33.9376,-41.8439
14:13:46.130,-31.0314,-37.3126
14:13:46.133,-26.0938,-32.0314
14:13:46.133,-20.3751,-23.9376
14:13:46.139,-15.4376,-15.1876
14:13:46.149,-9.1875,-7.3125
14:13:46.180,-3.2188,3.2188
14:13:46.182,2.4063,12.0938
14:13:46.184,9.375,22.0626
14:13:46.187,14.4688,31.8439
14:13:46.199,20.0626,41.1877
14:13:46.208,24.5001,49.2502
14:13:46.217,29.0314,57.5315
14:13:46.227,33.3751,64.969
14:13:46.238,36.4689,72.0315
14:13:46.247,40.2814,77.1878
14:13:46.257,42.4064,83.9066
14:13:46.282,44.7189,87.9378
14:13:46.284,47.2814,91.3754
14:13:46.289,48.3752,94.8441
14:13:46.297,49.7189,97.9691
14:13:46.313,50.2502,100.9379
14:13:46.317,49.2502,101.1879
14:13:46.327,48.8752,101.4379
14:13:46.337,47.0939,99.0316
14:13:46.348,44.9377,97.1254
14:13:46.357,41.8439,94.8754
14:13:46.367,40.0002,90.7191
14:13:46.378,36.7501,87.8128
14:13:46.387,35.0001,84.2503
14:13:46.397,32.9689,81.1253
14:13:46.407,31.3751,78.9378
14:13:46.418,30.2501,76.3128
14:13:46.427,28.6564,74.1253
14:13:46.437,27.3751,72.4378
14:13:46.447,26.5939,70.0628
14:13:46.456,25.3438,69.094
14:13:46.468,24.8438,66.594
14:13:46.477,23.1251,64.6252
14:13:46.487,22.3438,61.7502
14:13:46.497,20.7813,59.0002
14:13:46.507,19.2188,56.2815
14:13:46.517,17.2501,53.1252
14:13:46.527,14.4376,50.2814
14:13:46.537,12.9375,46.7189
14:13:46.547,10.625,42.7814
14:13:46.556,7.9375,40.0002
14:13:46.567,5.7188,35.0939
14:13:46.577,3.2188,31.2189
14:13:46.586,1.5938,27.1251
14:13:46.597,-0.4063,24.2813
14:13:46.607,-3.1875,20.5938
14:13:46.617,-4.9063,17.0938
14:13:46.628,-7.0313,13.0313
14:13:46.637,-9,9.0938
14:13:46.647,-11.0625,5.1563
14:13:46.657,-13.0313,2.5
14:13:46.667,-14.4688,-0.6875
14:13:46.677,-16.6251,-4.875
14:13:46.687,-17.7501,-7.8125
14:13:46.746,-18.3751,-10
14:13:46.748,-19.7813,-11.0625
14:13:46.749,-20.2813,-13.0625
14:13:46.751,-20.8438,-15.9376
14:13:46.754,-21.8126,-16.9063
14:13:46.781,-22.6563,-18.7501
14:13:46.781,-23.0313,-20.6563
14:13:46.782,-23.0938,-21.2813
14:13:46.785,-24.3438,-24.0001
14:13:46.790,-24.6876,-25.2188
14:13:46.817,-25.5313,-27.3439
14:13:46.822,-26.6564,-29.0939
14:13:46.823,-27.3439,-31.4689
14:13:46.845,-27.9064,-33.5314
14:13:46.848,-29.0626,-35.0626
14:13:46.850,-30.1251,-37.1251
14:13:46.857,-30.2189,-38.8439
14:13:46.871,-31.5314,-40.1252
14:13:46.877,-31.2189,-41.8127
14:13:46.887,-32.7814,-44.0939
14:13:46.897,-33.7189,-44.4377
14:13:46.907,-34.0626,-46.2189
14:13:46.917,-34.2501,-47.6877
14:13:46.927,-34.0939,-47.6252
14:13:46.937,-33.0626,-48.0939
14:13:46.947,-32.5314,-46.3127
14:13:46.957,-29.8439,-44.4064
14:13:46.967,-26.5939,-39.9064
14:13:46.977,-22.0001,-35.2814
14:13:46.987,-17.4376,-28.2814
14:13:46.997,-12.375,-21.1876
14:13:47.007,-6.625,-12.9688
14:13:47.016,-0.8125,-3
14:13:47.028,5.0313,5.75
14:13:47.037,10.8125,16.0313
14:13:47.052,16.3126,24.7501
14:13:47.062,21.9063,34.7189
14:13:47.072,27.2814,43.4689
14:13:47.081,31.0939,51.6252
14:13:47.092,35.5939,59.0002
14:13:47.102,38.5314,65.9378
14:13:47.112,41.9377,72.9378
14:13:47.122,45.1252,78.0003
14:13:47.132,47.1252,83.2191
14:13:47.142,49.7189,86.9691
14:13:47.162,50.9064,91.1879
14:13:47.167,52.0314,93.7504
14:13:47.182,52.5627,96.7816
14:13:47.183,53.1252,98.0004
14:13:47.192,52.719,99.8441
14:13:47.202,51.9064,100.2504
14:13:47.212,50.5314,98.9691
14:13:47.221,47.9064,96.3129
14:13:47.233,44.8752,93.5941
14:13:47.243,41.8752,88.7503
14:13:47.252,39.8127,85.5941
14:13:47.262,37.8126,82.8441
14:13:47.271,35.2501,79.4691
14:13:47.282,33.8439,76.7815
14:13:47.293,31.9689,74.2503
14:13:47.303,30.1564,71.719
14:13:47.312,28.2501,68.1878
14:13:47.322,26.7501,65.219
14:13:47.332,25.2813,62.5002
14:13:47.341,23.4376,59.6877
14:13:47.352,22.1563,57.2815
14:13:47.362,19.5001,54.1252
14:13:47.372,18.0001,50.2502
14:13:47.382,16.0938,48.0002
14:13:47.392,13.8438,43.9377
14:13:47.402,11.25,40.7502
14:13:47.414,9.2813,36.9376
14:13:47.422,7.1875,33.9376
14:13:47.437,5,31.2501
14:13:47.442,2.875,26.9376
14:13:47.452,0.9688,23.9688
14:13:47.462,0.0313,20.9688
14:13:47.479,-2.4063,17.6251
14:13:47.487,-4.3125,14.0626
14:13:47.515,-5.4688,10.2813
14:13:47.517,-7.3438,7.9063
14:13:47.519,-8.4375,5.0313
14:13:47.564,-9.9688,3.375
14:13:47.566,-10.7188,0.9063
14:13:47.567,-11.6875,-1.375
14:13:47.571,-12.5313,-3.8125
14:13:47.576,-13.2813,-5.8438
14:13:47.577,-13.8751,-7.625
14:13:47.607,-14.7813,-10.0313
14:13:47.610,-16.0001,-11.7188
14:13:47.612,-16.4688,-13.3126
14:13:47.618,-17.9688,-16.3751
14:13:47.648,-18.8438,-17.8438
14:13:47.651,-20.0313,-20.6251
14:13:47.653,-20.5626,-23.1563
14:13:47.660,-21.8126,-23.6563
14:13:47.681,-21.8126,-25.7188
14:13:47.682,-23.3438,-28.5001
14:13:47.688,-24.4688,-30.1876
14:13:47.696,-25.0626,-32.0939
14:13:47.707,-25.7188,-33.9376
14:13:47.718,-26.6251,-34.8126
14:13:47.727,-27.0626,-36.3751
14:13:47.737,-27.8126,-38.9376
14:13:47.748,-28.5626,-40.0627
14:13:47.757,-29.5001,-42.4064
14:13:47.767,-30.6251,-43.6564
14:13:47.778,-31.3751,-46.4064
14:13:47.787,-32.5626,-47.9377
14:13:47.797,-32.9376,-49.1564
14:13:47.812,-32.1876,-49.9064
14:13:47.817,-31.2501,-49.8439
14:13:47.827,-28.9064,-47.9064
14:13:47.838,-25.6251,-43.5314
14:13:47.849,-22.1876,-37.8126
14:13:47.857,-16.9063,-31.0626
14:13:47.867,-11.5938,-22.7501
14:13:47.877,-5.9375,-14.5938
14:13:47.887,-0.9375,-5.9688
14:13:47.898,4.625,2.9063
14:13:47.908,9.2813,11.4688
14:13:47.917,14.6876,19.7813
14:13:47.927,18.5313,27.2814
14:13:47.937,23.0626,34.6564
14:13:47.948,26.1251,41.5939
14:13:47.956,30.0939,48.0314
14:13:47.967,32.8751,54.219
14:13:47.977,35.4689,58.844
14:13:47.987,37.5939,63.0627
14:13:47.997,39.5002,67.4065
14:13:48.007,40.9377,71.3753
14:13:48.029,42.7189,74.6565
14:13:48.038,43.5627,77.9065
14:13:48.046,44.6877,79.9066
14:13:48.048,44.3752,81.1878
14:13:48.057,44.3127,82.0628
14:13:48.069,43.6877,81.6253
14:13:48.077,42.2814,80.5316
14:13:48.087,40.0627,80.0003
14:13:48.097,37.9689,76.719
14:13:48.107,35.5939,73.8128
14:13:48.117,33.1251,70.844
14:13:48.127,30.3439,66.6565
14:13:48.136,28.3439,64.2815
14:13:48.147,26.1876,60.5627
14:13:48.157,24.1876,57.8752
14:13:48.168,22.9063,55.3127
14:13:48.187,20.0626,52.0002
14:13:48.190,17.9376,50.0627
14:13:48.220,16.3438,45.3439
14:13:48.222,14.4376,42.4064
14:13:48.224,12.375,39.8752
14:13:48.229,10.6563,36.5001
14:13:48.256,8.8438,34.0314
14:13:48.260,6.6875,30.4689
14:13:48.261,5.75,27.9376
14:13:48.267,4.0938,25.3126
14:13:48.303,1.7813,23.0001
14:13:48.305,0.5625,20.2188
14:13:48.307,-1.0625,16.5001
14:13:48.333,-3.3125,14.0313
14:13:48.335,-4.875,11.5625
14:13:48.337,-6.6875,7.625
14:13:48.343,-7.625,5.4375
14:13:48.350,-8.9688,2.875
14:13:48.363,-10.5,0.3438
14:13:48.368,-11.5,-2.375
14:13:48.378,-12.2188,-4.9063
14:13:48.388,-13,-6.6875
14:13:48.397,-14.6876,-9.7813
14:13:48.408,-16.0626,-11.9063
14:13:48.417,-16.3751,-13.7813
14:13:48.428,-18.1563,-16.4688
14:13:48.438,-19.0626,-18.5626
14:13:48.447,-19.7501,-20.8126
14:13:48.465,-21.5626,-23.7188
14:13:48.479,-22.2188,-25.0938
14:13:48.480,-22.6876,-27.3126
14:13:48.487,-24.2813,-29.9689
14:13:48.498,-25.5313,-31.1564
14:13:48.507,-25.7813,-33.6251
14:13:48.518,-26.8439,-35.4376
14:13:48.528,-28.0626,-37.0626
14:13:48.537,-29.1564,-39.8127
14:13:48.548,-30.4376,-41.2189
14:13:48.558,-31.1876,-43.8439
14:13:48.568,-32.0001,-45.8439
14:13:48.577,-33.2501,-47.6877
14:13:48.588,-34.4689,-50.2814
14:13:48.597,-35.4064,-52.9065
14:13:48.608,-35.8751,-53.719
14:13:48.618,-36.9376,-55.844
14:13:48.628,-38.2501,-57.8127
14:13:48.638,-38.6251,-58.5002
14:13:48.648,-38.2814,-59.7815
14:13:48.657,-36.8439,-58.9377
14:13:48.669,-34.5001,-56.9377
14:13:48.680,-31.7814,-52.5627
14:13:48.687,-27.7189,-47.9064
14:13:48.698,-23.2501,-42.4064
14:13:48.708,-18.6251,-34.3751
14:13:48.717,-13,-26.5314
14:13:48.728,-7.5,-17.3126
14:13:48.741,-1.9375,-9.5313
14:13:48.748,3,-0.0938
14:13:48.757,8.0313,7.3125
14:13:48.769,12.7188,15.6251
14:13:48.778,16.7188,22.1251
14:13:48.788,20.7813,30.1876
14:13:48.799,23.5626,35.3126
14:13:48.808,26.8439,41.0314
14:13:48.817,29.7501,46.8752
14:13:48.842,31.4376,51.6877
14:13:48.846,33.3126,54.6565
14:13:48.849,35.1876,58.6565
14:13:48.858,36.4689,62.3752
14:13:48.868,37.8126,64.844
14:13:48.878,38.2189,67.5628
14:13:48.887,38.6564,68.6565
14:13:48.919,38.7189,70.1565
14:13:48.922,37.6564,70.3753
14:13:48.923,36.1564,68.7503
14:13:48.928,34.0626,66.0628
14:13:48.962,31.5626,64.094
14:13:48.965,29.2501,60.9065
14:13:48.967,26.8439,57.8127
14:13:48.969,24.1876,54.594
14:13:49.001,22.1251,51.5627
14:13:49.003,19.9376,47.7189
14:13:49.007,17.2813,44.9689
14:13:49.031,16.7188,42.3439
14:13:49.032,13.7501,39.7502
14:13:49.034,12.4375,36.5314
14:13:49.043,10.1563,33.7189
14:13:49.056,9.0625,29.9376
14:13:49.058,6.4375,27.0314
14:13:49.067,4.2188,24.2501
14:13:49.078,2.3438,20.0626
14:13:49.088,0.0625,17.0313
14:13:49.098,-1.875,13.7188
14:13:49.108,-3.4375,10.2813
14:13:49.117,-5.1875,6.7188
14:13:49.128,-7.75,3.5625
14:13:49.139,-9.0625,1
14:13:49.149,-10.875,-1.9063
14:13:49.157,-11.75,-3.7813
14:13:49.168,-13.5001,-5.8438
14:13:49.177,-14.3126,-9.0938
14:13:49.189,-15.7188,-11.6563
14:13:49.198,-15.9376,-13.8438
14:13:49.209,-16.5001,-15.1876
14:13:49.219,-17.7501,-17.0313
14:13:49.228,-18.7813,-19.3126
14:13:49.238,-19.8751,-21.8751
14:13:49.248,-20.4063,-23.9063
14:13:49.258,-21.3751,-26.3438
14:13:49.269,-22.2188,-27.5001
14:13:49.278,-23.5313,-30.4376
14:13:49.288,-23.9376,-31.6564
14:13:49.299,-24.3751,-33.8439
14:13:49.308,-25.5938,-36.2501
14:13:49.324,-26.7501,-38.3751
14:13:49.341,-27.6876,-40.8752
14:13:49.342,-29.0314,-42.8752
14:13:49.347,-29.9064,-44.6252
14:13:49.358,-30.9064,-47.3127
14:13:49.368,-32.1876,-48.5627
14:13:49.377,-33.3751,-50.9064
14:13:49.390,-33.9376,-52.3127
14:13:49.399,-34.5626,-54.5627
14:13:49.408,-34.5001,-54.8127
14:13:49.419,-35.4064,-57.4377
14:13:49.428,-36.3751,-58.8752
14:13:49.438,-37.5001,-60.844
14:13:49.448,-37.6251,-62.3752
14:13:49.456,-38.8439,-64.1565
14:13:49.468,-39.1564,-65.5628
14:13:49.479,-40.3439,-67.9065
14:13:49.492,-41.3127,-68.219
14:13:49.498,-40.8127,-68.6565
14:13:49.508,-38.9689,-68.1253
14:13:49.518,-36.4376,-65.344
14:13:49.529,-33.9376,-61.1565
14:13:49.538,-29.2501,-55.6877
14:13:49.548,-24.2813,-48.5314
14:13:49.560,-18.2188,-40.6564
14:13:49.569,-13.4376,-32.3126
14:13:49.578,-7.3125,-23.6876
14:13:49.588,-2.1875,-14.8438
14:13:49.598,3.0938,-6.375
14:13:49.608,8.4688,2.25
14:13:49.618,13.3126,10.6875
14:13:49.628,17.3751,18.1876
14:13:49.639,21.4063,25.8438
14:13:49.649,24.9688,31.4689
14:13:49.659,28.8439,38.2501
14:13:49.667,32.1251,44.0627
14:13:49.683,33.5626,48.9377
14:13:49.689,35.8439,53.1877
14:13:49.724,38.2189,57.8127
14:13:49.725,39.5002,61.9377
14:13:49.728,41.4377,65.219
14:13:49.729,42.2189,68.594
14:13:49.765,43.0627,70.7815
14:13:49.766,43.7502,72.0315
14:13:49.793,43.1877,73.594
14:13:49.798,42.1564,72.6565
14:13:49.798,41.1877,72.9065
14:13:49.798,39.1877,71.0628
14:13:49.803,37.1251,68.3128
14:13:49.835,35.2189,66.3753
14:13:49.838,32.1876,62.844
14:13:49.841,29.7189,59.6252
14:13:49.843,26.8126,56.7815
14:13:49.856,25.2813,53.1565
14:13:49.864,22.9063,51.0314
14:13:49.875,21.2501,47.3752
14:13:49.883,19.4376,45.0314
14:13:49.893,17.5001,42.2814
14:13:49.903,16.7188,39.2189
14:13:49.914,14.6251,36.8439
14:13:49.923,12.9688,34.0314
14:13:49.933,11.5938,30.9064
14:13:49.943,9.4375,28.6564
14:13:49.953,8.4063,24.8438
14:13:49.963,5.9375,21.3751
14:13:49.973,4.125,19.2188
14:13:49.983,2.3125,15.7813
14:13:49.993,0.75,13.125
14:13:50.003,-0.9063,10.1563
14:13:50.013,-2.0938,7.0313
14:13:50.023,-3.5625,4.5
14:13:50.033,-4.2813,1.9063
14:13:50.044,-6.4375,-0.5938
14:13:50.053,-6.6875,-2.6875
14:13:50.063,-8.0625,-4.9688
14:13:50.073,-9.125,-6.375
14:13:50.083,-10.0938,-9.9375
14:13:50.094,-11.375,-11.875
14:13:50.121,-12.7188,-13.5626
14:13:50.123,-13.1563,-16.3751
14:13:50.125,-14.0313,-18.7813
14:13:50.134,-14.6876,-19.9063
14:13:50.143,-14.8438,-21.5626
14:13:50.153,-15.8126,-23.5938
14:13:50.163,-17.0313,-25.4063
14:13:50.173,-17.2813,-26.8126
14:13:50.183,-18.2188,-29.0939
14:13:50.193,-18.5001,-29.8439
14:13:50.203,-19.2813,-32.0001
14:13:50.213,-20.2813,-33.3751
14:13:50.223,-20.5313,-34.8751
14:13:50.233,-22.0313,-36.8126
14:13:50.242,-22.6876,-38.4689
14:13:50.253,-24.0626,-40.7189
14:13:50.263,-24.6876,-42.7814
14:13:50.273,-26.0313,-43.9689
14:13:50.283,-28.0939,-46.4377
14:13:50.293,-29.5001,-48.7502
14:13:50.304,-30.3126,-51.0002
14:13:50.313,-31.2189,-52.6252
14:13:50.323,-32.2189,-53.7815
14:13:50.333,-32.1251,-55.0002
14:13:50.343,-31.3126,-54.5627
14:13:50.353,-29.4376,-52.6564
14:13:50.377,-26.5939,-49.5314
14:13:50.380,-21.3126,-42.7189
14:13:50.383,-14.6251,-34.3751
14:13:50.414,-4,-21.1251
14:13:50.417,21.6251,8.5
14:13:50.419,18.5938,13.9688
14:13:50.424,18.0313,14.7501
14:13:50.455,21.9376,21.1876
14:13:50.458,25.5313,28.9376
14:13:50.459,30.3439,36.8126
14:13:50.488,34.2501,44.0002
14:13:50.489,39.5939,52.2189
14:13:50.491,44.1564,60.5627
14:13:50.497,49.0314,68.3128
14:13:50.504,51.5002,74.6878
14:13:50.532,54.6565,80.2191
14:13:50.534,57.094,85.7816
14:13:50.537,59.6877,90.4066
14:13:50.546,62.0627,95.8754
14:13:50.553,63.5627,99.7816
14:13:50.563,64.5315,102.8754
14:13:50.573,65.469,104.1566
14:13:50.584,65.219,105.3442
14:13:50.594,64.469,105.6254
14:13:50.604,62.844,104.7816
14:13:50.620,60.7502,103.3129
14:13:50.623,59.219,100.9379
14:13:50.638,56.4377,98.5004
14:13:50.647,54.094,95.0629
14:13:50.653,51.1252,91.7504
14:13:50.663,48.1252,88.0316
14:13:50.673,45.6252,84.9691
14:13:50.683,42.5002,80.9066
14:13:50.693,40.9064,78.344
14:13:50.704,38.0626,75.0628
14:13:50.714,36.3751,71.7503
14:13:50.723,34.4689,68.969
14:13:50.733,32.4689,66.3128
14:13:50.743,30.9064,63.0002
14:13:50.753,29.2189,59.6252
14:13:50.763,28.4064,57.1877
14:13:50.773,26.9064,54.5315
14:13:50.783,25.8751,52.2814
14:13:50.793,23.8438,49.6564
14:13:50.803,22.9688,47.6877
14:13:50.814,21.5626,44.5002
14:13:50.823,20.1251,42.4689
14:13:50.833,19.6563,40.3439
14:13:50.843,18.4063,39.4064
14:13:50.853,17.3751,37.8751
14:13:50.863,17.0938,35.8439
14:13:50.873,16.4688,34.4064
14:13:50.883,15.4688,33.5314
14:13:50.893,14.3126,31.1876
14:13:50.903,13.9063,30.1876
14:13:50.913,12.9063,28.4064
14:13:50.923,11.6563,27.0314
14:13:50.933,11.0938,24.5626
14:13:50.944,9.875,23.0001
14:13:50.953,9.2813,21.8126
14:13:50.963,8.125,19.2813
14:13:50.974,6.4375,16.8438
14:13:50.983,4.875,14.3438
14:13:50.995,3.6563,11.9063
14:13:51.003,2.25,9.6875
14:13:51.014,1.0938,6.0938
14:13:51.023,-1.4063,3.4375
14:13:51.033,-3.3125,0.4063
14:13:51.043,-4.9063,-3.7813
14:13:51.053,-7.4063,-7.375
14:13:51.068,-10.2188,-11.9063
14:13:51.076,-12.2813,-16.6563
14:13:51.083,-15.3126,-20.8751
14:13:51.099,-17.0313,-24.7813
14:13:51.107,-19.4688,-29.5314
14:13:51.114,-22.7188,-33.8439
14:13:51.123,-24.5313,-38.6251
14:13:51.133,-27.1876,-43.3439
14:13:51.143,-29.0001,-46.7814
14:13:51.168,-30.7501,-50.4064
14:13:51.171,-32.2189,-53.8752
14:13:51.173,-33.8126,-56.9065
14:13:51.205,-34.6876,-59.094
14:13:51.207,-35.4689,-61.3752
14:13:51.210,-34.4689,-61.1565
14:13:51.213,-33.0626,-61.094
14:13:51.244,-30.4376,-58.1252
14:13:51.247,-27.4689,-54.594
14:13:51.250,-23.0313,-47.8439
14:13:51.255,-17.7813,-41.8127
14:13:51.282,-13.1876,-33.5001
14:13:51.284,-7.375,-25.9376
14:13:51.287,-1.7813,-17.1876
14:13:51.317,2.7813,-7.9063
14:13:51.319,7.8125,-0.4063
14:13:51.320,12.4063,7.1875
14:13:51.329,16.8751,15.5626
14:13:51.333,20.8751,22.5313
14:13:51.343,24.8438,30.2501
14:13:51.353,28.2814,37.2814
14:13:51.370,31.6564,43.0939
14:13:51.373,34.9689,48.2814
14:13:51.401,36.6876,53.4377
14:13:51.404,39.3439,58.3752
14:13:51.405,40.8752,62.0315
14:13:51.414,42.5314,65.8128
14:13:51.423,43.3439,68.1253
14:13:51.434,44.4064,70.8128
14:13:51.443,44.1252,72.094
14:13:51.453,43.2189,72.219
14:13:51.463,41.6252,71.1565
14:13:51.473,40.6564,69.9065
14:13:51.489,38.1876,68.0003
14:13:51.500,35.3751,65.219
14:13:51.508,33.1564,61.6565
14:13:51.518,30.4689,59.3127
14:13:51.528,28.5314,56.219
14:13:51.538,26.3126,52.6877
14:13:51.549,24.9688,50.2189
14:13:51.558,22.8751,47.5002
14:13:51.568,20.9376,45.0314
14:13:51.578,19.5313,42.1252
14:13:51.588,17.3126,39.4689
14:13:51.598,15.6251,37.3751
14:13:51.608,14.8438,34.5939
14:13:51.618,12.9375,32.2814
14:13:51.629,11.875,28.6876
14:13:51.640,10.2813,26.2188
14:13:51.649,7.8125,23.2501
14:13:51.658,5.8125,19.1563
14:13:51.668,4.5,15.7188
14:13:51.678,2.4688,12.3125
14:13:51.688,0.0938,8.7813
14:13:51.698,-1.25,6.4688
14:13:51.708,-2.7188,2.7813
14:13:51.718,-5.0313,-0.625
14:13:51.729,-6.5,-3.625
14:13:51.745,-8.125,-6.7813
14:13:51.750,-9.9688,-10.2188
14:13:51.759,-11.75,-12.6875
14:13:51.769,-12.7188,-16.1563
14:13:51.778,-14.3751,-19.0938
14:13:51.788,-15.6563,-22.5626
14:13:51.798,-17.4376,-24.8751
14:13:51.809,-18.8438,-27.0001
14:13:51.819,-20.0001,-30.5939
14:13:51.829,-21.3751,-33.6564
14:13:51.838,-22.8438,-36.1876
14:13:51.848,-24.4063,-38.3126
14:13:51.873,-24.9063,-40.2189
14:13:51.876,-26.0626,-43.0627
14:13:51.887,-26.6251,-45.1564
14:13:51.888,-27.9376,-46.8439
14:13:51.925,-28.9064,-49.2502
14:13:51.928,-29.1876,-50.8752
14:13:51.958,-30.6564,-53.969
14:13:51.992,-31.9064,-55.1252
14:13:52.019,-32.5314,-56.5315
14:13:52.019,-33.5001,-58.719
14:13:52.019,-33.7189,-60.594
14:13:52.021,-35.6251,-62.7815
14:13:52.037,-36.3126,-64.4377
14:13:52.042,-36.7189,-66.3128
14:13:52.042,-38.5314,-67.1878
14:13:52.042,-39.1877,-69.3753
14:13:52.050,-39.1564,-71.8128
14:13:52.059,-40.8752,-73.219
14:13:52.069,-41.2502,-75.219
14:13:52.079,-42.6564,-76.1565
14:13:52.089,-42.0002,-77.1878
14:13:52.098,-42.2814,-78.094
14:13:52.108,-40.7502,-77.4065
14:13:52.123,-38.6564,-74.6253
14:13:52.129,-35.5939,-69.8753
14:13:52.139,-31.2501,-65.1878
14:13:52.148,-26.3751,-58.6877
14:13:52.158,-21.0938,-49.6564
14:13:52.168,-15.4688,-41.3127
14:13:52.179,-9.75,-31.4689
14:13:52.188,-3.4375,-21.8126
14:13:52.198,1.6875,-13.0313
14:13:52.208,22.3438,22.2188
14:13:52.218,25.5001,29.7814
14:13:52.228,29.2189,36.5001
14:13:52.238,31.5939,42.8752
14:13:52.248,34.8751,48.1252
14:13:52.258,37.6564,53.6565
14:13:52.269,39.4064,59.219
14:13:52.279,41.1252,62.469
14:13:52.289,43.5627,67.0628
14:13:52.298,43.6252,69.5003
14:13:52.308,44.8439,71.5628
14:13:52.318,45.3439,73.1253
14:13:52.328,44.0314,74.469
14:13:52.338,43.1252,73.3753
14:13:52.349,41.9377,72.2815
14:13:52.359,39.2189,70.2815
14:13:52.368,37.4689,67.1565
14:13:52.378,34.3126,64.3127
14:13:52.393,31.1251,61.3752
14:13:52.402,29.6251,58.0002
14:13:52.408,26.7814,55.3127
14:13:52.424,25.6251,52.0002
14:13:52.432,23.5626,48.6564
14:13:52.439,22.3438,46.7814
14:13:52.450,20.8438,44.1564
14:13:52.458,19.2501,42.1564
14:13:52.468,18.5313,39.4064
14:13:52.478,16.5938,37.3126
14:13:52.488,15.8751,34.6876
14:13:52.498,13.9688,32.4376
14:13:52.508,13,30.5626
14:13:52.520,11.5625,27.5939
14:13:52.528,10.1563,24.9688
14:13:52.540,8.4688,23.9063
14:13:52.548,7.0625,20.2501
14:13:52.558,5.625,17.1563
14:13:52.568,3.75,14.0626
14:13:52.579,2.0313,12.0938
14:13:52.590,0.8125,9.4063
14:13:52.605,-0.3125,6.375
14:13:52.608,-2.5938,2.9688
14:13:52.641,-4.2188,0.5313
14:13:52.643,-5.25,-2.9063
14:13:52.645,-7.2188,-5.8125
14:13:52.683,-8.875,-8.6875
14:13:52.687,-9.875,-12.5
14:13:52.688,-11.5313,-14.7188
14:13:52.693,-13.0625,-16.9376
14:13:52.693,-13.7188,-20.2188
14:13:52.731,-15.0001,-23.2188
14:13:52.734,-16.0626,-25.0313
14:13:52.736,-17.4376,-28.1876
14:13:52.738,-18.5001,-30.7501
14:13:52.744,-20.2813,-32.1876
14:13:52.776,-20.6876,-35.1251
14:13:52.777,-21.4376,-37.5939
14:13:52.781,-23.1251,-39.7502
14:13:52.786,-23.5626,-41.6252
14:13:52.794,-25.1563,-43.2814
14:13:52.803,-26.3126,-45.2502
14:13:52.813,-28.0939,-49.2189
14:13:52.824,-31.5314,-52.4689
14:13:52.833,-32.6564,-55.094
14:13:52.843,-34.7814,-57.0002
14:13:52.855,-35.6876,-59.6877
14:13:52.863,-36.9064,-61.5315
14:13:52.873,-38.2814,-63.7502
14:13:52.883,-38.9689,-66.2815
14:13:52.895,-41.1564,-66.969
14:13:52.906,-41.4377,-70.2815
14:13:52.913,-41.6877,-71.6565
14:13:52.925,-43.4377,-73.1253
14:13:52.935,-43.0627,-74.9065
14:13:52.945,-42.3127,-73.5003
14:13:52.953,-40.7189,-73.3128
14:13:52.964,-38.4376,-70.5003
14:13:52.975,-34.5001,-65.6565
14:13:52.985,-30.2814,-59.0627
14:13:52.994,-25.1876,-51.9064
14:13:53.005,-19.7188,-43.0939
14:13:53.013,-13.4376,-34.6564
14:13:53.023,-6.9375,-25.1251
14:13:53.034,-1.6563,-14.7501
14:13:53.043,3.9063,-5.9375
14:13:53.054,9.0313,3.5
14:13:53.064,13.4063,11.375
14:13:53.073,18.5626,19.3438
14:13:53.084,22.5626,27.7814
14:13:53.093,26.1251,34.2501
14:13:53.105,29.8126,40.6564
14:13:53.114,32.8439,46.6252
14:13:53.124,34.6251,52.4689
14:13:53.133,37.0939,56.0315
14:13:53.144,38.6564,60.3752
14:13:53.156,39.7502,64.9065
14:13:53.163,41.0002,67.0315
14:13:53.173,41.8439,69.3128
14:13:53.185,41.7502,71.9378
14:13:53.193,41.2502,71.219
14:13:53.205,40.1564,72.094
14:13:53.214,38.8439,69.9065
14:13:53.223,36.3439,67.6565
14:13:53.233,34.3751,65.5003
14:13:53.248,31.7814,63.344
14:13:53.267,30.4376,60.094
14:13:53.268,26.7814,56.7815
14:13:53.274,25.3126,53.2815
14:13:53.306,22.7813,49.6564
14:13:53.308,21.4376,47.5314
14:13:53.343,19.3751,44.5314
14:13:53.357,18.4688,42.8439
14:13:53.359,17.1563,39.8752
14:13:53.392,15.2813,37.4064
14:13:53.392,13.9376,36.6876
14:13:53.394,13.6251,33.5314
14:13:53.425,11.9375,30.8439
14:13:53.427,10.875,29.2814
14:13:53.439,9.4375,26.7189
14:13:53.439,8.125,24.5938
14:13:53.440,6.5313,21.5938
14:13:53.444,4.75,18.9063
14:13:53.455,3.9063,16.0626
14:13:53.464,1.2188,13.0313
14:13:53.475,-0.1563,10.9375
14:13:53.484,-1.3438,7.9375
14:13:53.495,-2.9375,4.9063
14:13:53.505,-4.8438,1.625
14:13:53.513,-6.5625,-0.6563
14:13:53.524,-8.1875,-4.0625
14:13:53.533,-9.7813,-6.9688
14:13:53.545,-13.8438,-15.3438
14:13:53.554,-15.1563,-18.3751
14:13:53.564,-16.6251,-20.0938
14:13:53.574,-17.3751,-23.1563
14:13:53.584,-19.1251,-26.4689
14:13:53.594,-22.2501,-32.8439
14:13:53.604,-23.5001,-36.2501
14:13:53.614,-24.3751,-38.3751
14:13:53.624,-25.4688,-40.6877
14:13:53.634,-26.4689,-42.9377
14:13:53.644,-27.4064,-44.7814
14:13:53.655,-27.9376,-47.0939
14:13:53.663,-29.6564,-49.1564
14:13:53.675,-30.0314,-51.2814
14:13:53.684,-31.4376,-52.9065
14:13:53.694,-32.1876,-54.6565
14:13:53.710,-33.4376,-56.4377
14:13:53.726,-34.1876,-58.0627
14:13:53.729,-35.8751,-59.6252
14:13:53.737,-37.0626,-62.8127
14:13:53.744,-39.3127,-65.2502
14:13:53.755,-41.7189,-68.1565
14:13:53.764,-42.4689,-70.0003
14:13:53.774,-43.8439,-71.7815
14:13:53.784,-44.8439,-73.6565
14:13:53.795,-45.0002,-75.5003
14:13:53.804,-46.8439,-76.0315
14:13:53.814,-47.6564,-78.9691
14:13:53.825,-47.8752,-80.1566
14:13:53.835,-48.6564,-81.0003
14:13:53.844,-48.3439,-81.5003
14:13:53.855,-46.8127,-80.1253
14:13:53.865,-44.8127,-78.5941
14:13:53.874,-40.4377,-73.5315
14:13:53.884,-36.8126,-68.1878
14:13:53.894,-31.1564,-60.1565
14:13:53.904,-26.4376,-51.7189
14:13:53.915,-20.3126,-43.8439
14:13:53.924,-13.4376,-34.2501
14:13:53.935,-8.5625,-24.7188
14:13:53.961,-2.4063,-15.1563
14:13:53.963,3.3125,-4.6875
14:13:53.966,8.1875,3.5313
14:13:53.975,13.2813,12.5
14:13:54.008,17.6876,20.8438
14:13:54.012,21.5001,28.8439
14:13:54.012,25.7813,35.5939
14:13:54.014,29.4376,42.9064
14:13:54.051,32.2501,49.4377
14:13:54.053,34.7814,54.469
14:13:54.056,36.2501,59.594
14:13:54.059,38.5939,63.219
14:13:54.064,40.8127,67.3753
14:13:54.106,41.6564,71.0315
14:13:54.107,41.9689,72.6565
14:13:54.110,42.0002,74.1878
14:13:54.114,41.1877,75.5315
14:13:54.115,40.8127,74.469
14:13:54.144,38.8126,73.9065
14:13:54.146,36.5001,71.594
14:13:54.148,34.6876,68.469
14:13:54.153,32.1251,66.4065
14:13:54.169,29.5626,63.5627
14:13:54.174,27.5314,59.6252
14:13:54.185,25.2501,57.1252
14:13:54.194,23.4688,54.0627
14:13:54.204,21.7501,51.2502
14:13:54.214,20.0313,48.8439
14:13:54.224,18.4376,47.3752
14:13:54.234,16.7813,43.7814
14:13:54.244,16.3126,41.7189
14:13:54.254,14.2501,40.1252
14:13:54.264,12.5625,37.5626
14:13:54.275,12.125,34.7501
14:13:54.289,9.7813,32.7189
14:13:54.300,8.9375,29.5939
14:13:54.309,7.7188,27.6876
14:13:54.319,6.125,25.0626
14:13:54.329,4.625,22.0313
14:13:54.339,3.1875,19.8438
14:13:54.350,1.2813,16.3438
14:13:54.359,-0.1875,13.4063
14:13:54.370,-1.9063,10.375
14:13:54.380,-3.375,6.9688
14:13:54.389,-4.75,4.8125
14:13:54.399,-6.9063,1.9688
14:13:54.409,-8.4375,-0.9688
14:13:54.419,-10.3125,-4.5313
14:13:54.429,-11.9063,-7.1563
14:13:54.439,-13.2813,-10.9375
14:13:54.449,-15.9376,-14.6876
14:13:54.459,-16.7501,-17.7501
14:13:54.469,-18.1876,-20.8438
14:13:54.480,-19.5626,-23.4376
14:13:54.490,-20.5313,-26.4689
14:13:54.500,-22.2813,-29.1251
14:13:54.509,-22.6563,-31.5314
14:13:54.519,-24.5938,-34.0314
14:13:54.529,-25.4376,-36.7189
14:13:54.544,-26.1876,-38.8751
14:13:54.551,-27.5626,-41.1564
14:13:54.559,-28.4689,-42.5939
14:13:54.569,-29.0001,-44.5002
14:13:54.580,-30.8126,-46.6564
14:13:54.589,-31.9689,-49.0939
14:13:54.600,-33.8126,-51.3127
14:13:54.609,-36.3439,-54.6252
14:13:54.619,-37.1564,-56.719
14:13:54.630,-39.0002,-58.1252
14:13:54.639,-40.0002,-60.7502
14:13:54.649,-40.2814,-62.5627
14:13:54.659,-41.4689,-63.9065
14:13:54.679,-42.5314,-66.3128
14:13:54.680,-43.5627,-67.719
14:13:54.696,-45.0002,-68.5628
14:13:54.712,-45.7814,-71.6878
14:13:54.713,-46.1877,-72.8753
14:13:54.721,-46.9689,-74.9378
14:13:54.730,-48.2814,-76.969
14:13:54.740,-47.2814,-77.6253
14:13:54.749,-47.6564,-76.594
14:13:54.759,-45.4377,-76.1565
14:13:54.769,-42.2814,-72.969
14:13:54.779,-39.3752,-68.1878
14:13:54.789,-34.6564,-62.3752
14:13:54.822,-29.5939,-54.8127
14:13:54.824,-24.2501,-47.6252
14:13:54.827,-17.8126,-38.0626
14:13:54.830,-12.5938,-28.8126
14:13:54.861,-6.8438,-19.4688
14:13:54.863,-1.5,-10.2188
14:13:54.865,4.5938,-1.0938
14:13:54.869,9,7.375
14:13:54.900,13.8751,16.0001
14:13:54.902,18.3126,24.1876
14:13:54.904,22.8126,31.0626
14:13:54.910,25.7813,38.6564
14:13:54.943,29.1251,43.8439
14:13:54.946,31.5939,49.8439
14:13:54.949,33.1876,53.6252
14:13:54.949,35.6564,57.9065
14:13:54.981,37.0626,61.5627
14:13:54.983,38.1251,65.5315
14:13:54.984,38.7814,67.219
14:13:54.991,39.0001,68.969
14:13:55.012,39.0314,69.8128
14:13:55.015,37.9376,70.219
14:13:55.029,36.4689,68.9065
14:13:55.031,34.6564,66.4378
14:13:55.039,32.2501,65.0002
14:13:55.049,30.2501,62.2502
14:13:55.059,28.0314,59.719
14:13:55.069,26.7189,57.3752
14:13:55.080,24.0626,54.2502
14:13:55.089,22.5938,51.8439
14:13:55.099,21.1876,49.5627
14:13:55.109,19.1251,47.8127
14:13:55.120,18.0001,45.4689
14:13:55.129,16.7188,42.3439
14:13:55.140,16.0938,41.0002
14:13:55.149,14.5313,38.6564
14:13:55.159,13.7813,36.4376
14:13:55.169,12.4063,34.7814
14:13:55.179,10.9375,32.4064
14:13:55.189,9.25,29.8751
14:13:55.200,8.0938,28.1251
14:13:55.210,6.6563,24.6251
14:13:55.241,5.0313,21.8751
14:13:55.243,3.625,19.4063
14:13:55.247,0.875,16.4376
14:13:55.249,-0.75,13.9063
14:13:55.259,-1.5938,10.2188
14:13:55.270,-3.3438,8.3438
14:13:55.279,-4.7813,4.5938
14:13:55.289,-6.9688,2.0625
14:13:55.299,-8.8438,-1.4063
14:13:55.309,-9.9063,-4.75
14:13:55.320,-11.4688,-7.2188
14:13:55.329,-12.5,-10.0625
14:13:55.339,-14.1251,-13.0938
14:13:55.349,-15.9063,-15.5001
14:13:55.360,-16.6563,-18.8126
14:13:55.377,-18.4063,-21.1876
14:13:55.381,-19.2813,-24.1251
14:13:55.391,-20.8126,-26.5626
14:13:55.401,-21.5001,-29.2501
14:13:55.410,-22.1251,-31.2501
14:13:55.420,-23.9063,-33.5939
14:13:55.430,-24.5626,-35.8751
14:13:55.439,-26.1251,-38.0626
14:13:55.449,-26.0938,-39.6877
14:13:55.460,-28.1876,-41.7502
14:13:55.469,-29.7814,-44.9064
14:13:55.480,-32.5001,-48.1564
14:13:55.489,-33.0939,-49.6877
14:13:55.499,-35.0001,-51.6564
14:13:55.509,-34.7189,-53.9065
14:13:55.528,-36.8126,-55.594
14:13:55.529,-37.6251,-57.7502
14:13:55.559,-39.0001,-59.4377
14:13:55.562,-40.0939,-61.7815
14:13:55.569,-40.7814,-62.594
14:13:55.597,-42.1252,-65.1878
14:13:55.599,-42.6564,-66.0628
14:13:55.604,-43.8439,-67.5315
14:13:55.605,-44.6252,-70.5003
14:13:55.633,-44.7502,-71.4378
14:13:55.637,-45.3752,-72.094
14:13:55.638,-44.3127,-73.0003
14:13:55.645,-43.7189,-71.3753
14:13:55.658,-40.5627,-69.1253
14:13:55.688,-37.9376,-64.8127
14:13:55.691,-33.5626,-59.6877
14:13:55.693,-29.1251,-52.6877
14:13:55.695,-23.1563,-44.6564
14:13:55.705,-17.8751,-36.1251
14:13:55.716,-11.875,-27.4376
14:13:55.724,-3.9688,-13.3751
14:13:55.734,1.875,-3.0625
14:13:55.751,7.75,6.3438
14:13:55.754,12.7813,14.3126
14:13:55.765,17.3438,23.5001
14:13:55.774,21.6251,30.8439
14:13:55.784,25.7501,38.2814
14:13:55.794,30.2189,46.1252
14:13:55.804,33.4376,51.7502
14:13:55.814,36.1564,58.1877
14:13:55.824,38.7189,63.0627
14:13:55.834,40.5939,67.9065
14:13:55.845,42.2814,71.3753
14:13:55.855,43.4689,75.5003
14:13:55.865,44.7189,77.844
14:13:55.874,44.8127,79.3441
14:13:55.885,44.0939,79.2191
14:13:55.894,42.8439,79.5316
14:13:55.905,42.5314,78.8753
14:13:55.914,39.7814,76.219
14:13:55.924,37.5001,73.9378
14:13:55.935,35.7501,71.469
14:13:55.945,33.2189,68.969
14:13:55.954,31.4689,65.5315
14:13:55.964,29.0314,63.219
14:13:55.975,27.9689,60.8127
14:13:55.985,25.5626,58.1877
14:13:56.004,23.9063,56.8127
14:13:56.007,23.4376,54.094
14:13:56.017,21.7813,52.7502
14:13:56.025,21.3751,50.3127
14:13:56.039,19.4376,48.0627
14:13:56.046,19.2188,46.2189
14:13:56.054,17.3751,45.4377
14:13:56.065,16.9376,42.5314
14:13:56.074,15.4688,41.1252
14:13:56.085,14.7501,39.4377
14:13:56.095,13.0625,37.2189
14:13:56.104,11.875,35.4689
14:13:56.114,10.9688,33.3751
14:13:56.124,9.1875,31.1251
14:13:56.135,8.6563,29.0626
14:13:56.144,6.3438,26.2501
14:13:56.154,5.1563,23.9376
14:13:56.164,3.4063,20.8438
14:13:56.174,1.9063,18.6251
14:13:56.184,1,15.0313
14:13:56.194,-0.375,12.875
14:13:56.206,-2.375,9.625
14:13:56.214,-3.5938,7.5
14:13:56.225,-5.125,3.9688
14:13:56.254,-7.1875,1.625
14:13:56.255,-9.25,-2.7188
14:13:56.259,-12.2188,-5.4375
14:13:56.264,-13.7501,-9.1563
14:13:56.292,-15.4376,-12.0625
14:13:56.295,-16.2813,-14.4376
14:13:56.297,-17.0938,-16.5313
14:13:56.392,-19.2813,-19.3751
14:13:56.394,-20.0938,-21.4376
14:13:56.396,-21.8751,-24.2813
14:13:56.404,-23.0313,-26.8751
14:13:56.404,-23.8126,-29.5626
14:13:56.404,-25.4376,-30.9064
14:13:56.417,-26.0313,-34.1251
14:13:56.420,-28.1251,-35.7501
14:13:56.429,-28.2814,-38.6564
14:13:56.440,-29.9689,-40.7502
14:13:56.449,-30.9689,-43.0002
14:13:56.459,-31.8751,-44.5627
14:13:56.469,-32.5626,-46.7502
14:13:56.479,-33.4376,-48.8439
14:13:56.490,-34.8751,-51.0627
14:13:56.521,-35.6251,-52.5314
14:13:56.523,-36.8126,-54.3752
14:13:56.526,-38.0314,-56.469
14:13:56.530,-38.8126,-58.1565
14:13:56.546,-39.6877,-59.6877
14:13:56.550,-39.7814,-61.1565
14:13:56.559,-40.8752,-61.8127
14:13:56.570,-29.5626,-51.5939
14:13:56.580,-24.1563,-43.1564
14:13:56.589,-18.1876,-34.5001
14:13:56.599,-12.0625,-25.0626
14:13:56.609,-5.4375,-15.4688
14:13:56.619,0.0625,-5.625
14:13:56.629,5.875,3.7188
14:13:56.639,11.9375,13.0625
14:13:56.650,16.5938,22.2188
14:13:56.659,21.5626,30.4064
14:13:56.669,26.0001,39.5627
14:13:56.679,30.1876,46.0939
14:13:56.690,33.1564,52.6877
14:13:56.700,36.7189,59.5315
14:13:56.709,39.8127,64.7815
14:13:56.720,42.6564,70.3128
14:13:56.729,44.7814,74.7503
14:13:56.740,46.5314,79.0941
14:13:56.749,48.0627,82.5628
14:13:56.760,48.8439,85.5628
14:13:56.769,49.5939,86.8753
14:13:56.779,48.9064,88.1566
14:13:56.789,48.1564,87.4066
14:13:56.799,46.2189,86.0941
14:13:56.809,43.8752,84.3128
14:13:56.819,41.5939,82.1253
14:13:56.829,38.4376,78.8128
14:13:56.839,36.6876,75.6565
14:13:56.850,34.0939,71.6878
14:13:56.859,32.3751,70.1565
14:13:56.869,30.5314,67.0628
14:13:56.879,29.1251,64.5315
14:13:56.890,27.9064,62.2502
14:13:56.899,27.1251,60.1252
14:13:56.909,25.8126,58.2815
14:13:56.919,24.6563,56.844
14:13:56.950,23.4063,54.7815
14:13:56.952,22.4063,52.9377
14:13:56.954,21.2501,50.5627
14:13:56.961,19.8438,49.1877
14:13:56.985,19.2813,46.5314
14:13:56.988,16.9688,44.5939
14:13:56.991,15.8126,41.9064
14:13:57.019,14.4688,39.9064
14:13:57.024,12.8438,37.7189
14:13:57.024,11.75,34.6564
14:13:57.031,9.6875,31.8751
14:13:57.056,8.6875,29.3126
14:13:57.057,6.6875,26.2501
14:13:57.059,5.5938,23.3751
14:13:57.070,3.2813,20.2813
14:13:57.102,2.0313,17.6876
14:13:57.107,0.6875,14.0938
14:13:57.107,-2.625,10.8438
14:13:57.109,-5.125,6
14:13:57.119,-6.8438,2.8125
14:13:57.131,-8.1563,0
14:13:57.139,-9.7813,-2.9688
14:13:57.150,-11.8438,-5.7188
14:13:57.159,-13.5938,-8.2813
14:13:57.169,-14.3438,-11.3438
14:13:57.179,-16.5001,-13.4688
14:13:57.190,-17.1876,-16.5626
14:13:57.199,-19.0313,-19.0001
14:13:57.210,-19.6563,-22.2188
14:13:57.220,-21.1876,-24.2188
14:13:57.230,-22.5938,-27.0001
14:13:57.241,-23.9063,-28.9064
14:13:57.249,-25.0001,-31.5314
14:13:57.261,-25.9376,-33.2814
14:13:57.269,-26.7501,-35.5001
14:13:57.279,-28.5314,-37.0314
14:13:57.296,-29.0626,-39.8439
14:13:57.301,-29.7501,-41.5314
14:13:57.311,-31.4689,-43.5002
14:13:57.330,-32.1251,-45.6564
14:13:57.333,-33.1564,-47.6564
14:13:57.343,-34.5939,-49.1877
14:13:57.351,-35.8126,-52.2814
14:13:57.365,-36.2814,-53.8127
14:13:57.382,-37.4689,-55.8752
14:13:57.383,-38.1564,-57.719
14:13:57.391,-38.7501,-59.344
14:13:57.399,-38.7501,-59.0002
14:13:57.412,-37.1876,-58.6877
14:13:57.419,-35.1876,-55.6877
14:13:57.431,-31.5626,-52.7815
14:13:57.439,-26.9689,-46.8752
14:13:57.449,-22.3126,-39.8127
14:13:57.459,-16.7188,-31.5314
14:13:57.470,-10.3438,-22.3751
14:13:57.480,-4.6875,-13.8438
14:13:57.490,1.75,-3.9375
14:13:57.500,6.9375,5.75
14:13:57.509,12.4375,15.3438
14:13:57.519,17.9063,23.4376
14:13:57.530,22.3126,32.0001
14:13:57.540,26.7189,39.4689
14:13:57.550,30.3751,47.5627
14:13:57.561,34.3751,53.9377
14:13:57.570,37.8126,60.7502
14:13:57.579,40.4377,65.6877
14:13:57.589,43.3752,70.8128
14:13:57.601,44.5627,75.5628
14:13:57.609,46.5627,79.2816
14:13:57.621,48.3752,82.9691
14:13:57.645,48.9689,85.1253
14:13:57.717,49.3127,86.1253
14:13:57.719,48.3127,87.4066
14:13:57.721,47.9689,86.3753
14:13:57.728,45.5314,84.7816
14:13:57.728,43.0627,83.2191
14:13:57.728,41.7189,79.7816
14:13:57.735,38.3439,77.094
14:13:57.766,36.8751,73.719
14:13:57.768,34.3126,71.5003
14:13:57.771,33.0314,67.7815
14:13:57.776,31.0001,65.6565
14:13:57.802,29.8751,63.1565
14:13:57.805,27.9064,61.1877
14:13:57.807,27.3126,58.5315
14:13:57.829,26.0938,56.969
14:13:57.832,25.0001,55.0315
14:13:57.835,23.7188,52.7814
14:13:57.848,22.1876,50.6252
14:13:57.856,21.4376,48.3127
14:13:57.866,19.0626,45.5002
14:13:57.876,17.5313,42.9064
14:13:57.886,15.5001,40.2189
14:13:57.895,9.375,31.2814
14:13:57.905,8.25,27.1876
14:13:57.915,5.875,25.0001
14:13:57.926,4.7813,21.0313
14:13:57.937,2.8438,17.8751
14:13:57.945,1.8438,14.6876
14:13:57.955,-0.4375,12.5
14:13:57.965,-1.5625,8.3438
14:13:57.976,-4.5625,5.5313
14:13:57.986,-7.4688,0.4063
14:13:57.995,-9.375,-2.5
14:13:58.005,-10.5625,-5.8125
14:13:58.015,-12.7188,-7.0938
14:13:58.025,-13.125,-11.1875
14:13:58.036,-15.1563,-13.3438
14:13:58.044,-15.9063,-16.2501
14:13:58.056,-17.4063,-17.8438
14:13:58.065,-18.3438,-20.6876
14:13:58.074,-19.5938,-22.9063
14:13:58.085,-20.5001,-25.5001
14:13:58.095,-22.4063,-27.1876
14:13:58.104,-23.2188,-29.7501
14:13:58.116,-24.9063,-31.5626
14:13:58.127,-25.0938,-34.4064
14:13:58.135,-27.2501,-36.1564
14:13:58.144,-27.5001,-39.3126
14:13:58.155,-29.0001,-40.6252
14:13:58.164,-29.5314,-42.8752
14:13:58.175,-30.7814,-44.0002
14:13:58.185,-31.7501,-46.5939
14:13:58.195,-32.6564,-49.0314
14:13:58.204,-33.5626,-50.5314
14:13:58.215,-35.0314,-52.0627
14:13:58.226,-36.0626,-55.2815
14:13:58.236,-36.5001,-57.0002
14:13:58.245,-37.7501,-58.844
14:13:58.254,-38.5939,-60.5315
14:13:58.266,-39.3439,-62.4065
14:13:58.276,-40.3439,-64.219
14:13:58.286,-40.0627,-65.1877
14:13:58.296,-39.0939,-63.7502
14:13:58.304,-36.6251,-62.1565
14:13:58.316,-34.0001,-57.4065
14:13:58.326,-28.8751,-52.6877
14:13:58.335,-24.1251,-45.1564
14:13:58.344,-18.2188,-37.4689
14:13:58.356,-12.75,-28.6251
14:13:58.366,-6.1875,-18.9063
14:13:58.376,0.0625,-8.8125
14:13:58.386,6.5938,1.4063
14:13:58.395,12.1563,10.6875
14:13:58.406,17.1251,20.4376
14:13:58.418,22.4063,28.8751
14:13:58.453,27.1876,37.7501
14:13:58.455,31.8126,45.0314
14:13:58.458,35.2501,53.1252
14:13:58.459,38.6876,59.9377
14:13:58.467,42.5002,66.219
14:13:58.499,45.5939,72.4378
14:13:58.500,48.4689,77.2503
14:13:58.502,49.6877,81.5003
14:13:58.508,51.4377,84.9066
14:13:58.516,52.0314,87.8441
14:13:58.553,53.3127,90.1566
14:13:58.555,52.8752,91.6879
14:13:58.557,52.0939,92.5004
14:13:58.559,51.2814,91.0629
14:13:58.566,48.6564,88.9691
14:13:58.601,46.7189,87.4378
14:13:58.603,44.5939,84.8753
14:13:58.606,41.5314,81.0003
14:13:58.607,39.2814,77.4065
14:13:58.616,37.0939,74.8128
14:13:58.625,35.2189,71.1565
14:13:58.638,33.1564,68.844
14:13:58.657,31.4376,66.5003
14:13:58.661,30.3751,63.6565
14:13:58.677,29.3126,61.469
14:13:58.690,28.5314,59.3752
14:13:58.694,27.1564,57.7815
14:13:58.707,26.9064,55.844
14:13:58.709,24.8438,54.2502
14:13:58.716,23.1563,51.7502
14:13:58.726,22.3438,48.8752
14:13:58.735,20.2501,47.0002
14:13:58.745,18.5938,42.9064
14:13:58.756,16.9063,41.3439
14:13:58.765,15.2813,38.1876
14:13:58.775,13.7501,34.6876
14:13:58.785,12.1563,31.8751
14:13:58.796,10.125,29.1251
14:13:58.806,8.5625,25.6876
14:13:58.816,7.25,22.4063
14:13:58.825,5.3438,19.4063
14:13:58.835,3.8125,16.1251
14:13:58.845,2.4688,13.2813
14:13:58.856,1.0625,10.4688
14:13:58.866,-0.6875,7.4688
14:13:58.875,-1.1875,4.8125
14:13:58.885,-3.5938,2.1563
14:13:58.895,-4.9375,-1.875
14:13:58.906,-7.2188,-4.7813
14:13:58.916,-8.0313,-7.0625
14:13:58.926,-9.9375,-9.8438
14:13:58.936,-11.4375,-12.9063
14:13:58.949,-13.1563,-15.4063
14:13:58.966,-15.0626,-18.1251
14:13:58.972,-15.5313,-21.3751
14:13:58.979,-17.2188,-23.2188
14:13:58.985,-18.6876,-25.8126
14:13:59.003,-19.9688,-28.9064
14:13:59.009,-21.6251,-31.1251
14:13:59.017,-23.8751,-34.3751
14:13:59.026,-25.8126,-37.2189
14:13:59.035,-27.4376,-38.9689
14:13:59.045,-28.2501,-40.5939
14:13:59.055,-29.4689,-43.5939
14:13:59.081,-30.2814,-44.9064
14:13:59.083,-31.7814,-46.6877
14:13:59.085,-32.8439,-48.8127
14:13:59.116,-33.3126,-50.8127
14:13:59.118,-34.8439,-52.0627
14:13:59.121,-35.4376,-54.6565
14:13:59.126,-36.2814,-56.5002
14:13:59.157,-37.0314,-57.594
14:13:59.160,-38.2501,-60.0627
14:13:59.162,-39.8127,-62.2502
14:13:59.176,-40.4377,-63.594
14:13:59.196,-40.8127,-65.8127
14:13:59.199,-41.8439,-65.8753
14:13:59.200,-40.6877,-66.9378
14:13:59.206,-40.2814,-65.3752
14:13:59.216,-37.3751,-62.8752
14:13:59.246,-33.8126,-59.1877
14:13:59.249,-28.9064,-52.5314
14:13:59.252,-23.8751,-45.3752
14:13:59.256,-17.7501,-36.2189
14:13:59.272,-11.6563,-27.2189
14:13:59.277,-5.1875,-16.4063
14:13:59.286,0.5313,-7.3125
14:13:59.296,6.8125,3.8125
14:13:59.306,12.4063,13.2188
14:13:59.315,18.1251,23.7813
14:13:59.325,23.0313,31.6251
14:13:59.335,27.3751,41.0314
14:13:59.345,31.5939,48.2814
14:13:59.356,35.8439,56.1252
14:13:59.367,39.5002,63.8752
14:13:59.377,42.5627,69.7503
14:13:59.385,45.5314,75.4065
14:13:59.396,46.4064,80.8128
14:13:59.407,48.3752,83.4378
14:13:59.416,49.2814,87.1566
14:13:59.425,49.7189,89.6253
14:13:59.436,50.3439,91.1566
14:13:59.446,48.4377,90.7504
14:13:59.456,47.1877,90.4691
14:13:59.465,45.4064,89.2816
14:13:59.476,41.9689,87.5316
14:13:59.485,39.0939,83.8128
14:13:59.496,35.4376,80.5003
14:13:59.506,32.4376,76.5628
14:13:59.516,29.0939,74.2503
14:13:59.525,27.6876,71.2815
14:13:59.536,26.5626,70.344
14:13:59.547,25.0001,68.969
14:13:59.555,24.5313,68.6878
14:13:59.565,21.7813,65.969
14:13:59.575,20.9063,64.219
14:13:59.585,18.7813,62.969
14:13:59.596,18.0938,61.844
14:13:59.605,17.6251,60.6252
14:13:59.616,16.2188,58.3752
14:13:59.625,15.0001,57.4377
14:13:59.635,13.1251,55.094
14:13:59.651,11.4375,51.3752
14:13:59.660,8.8125,48.5002
14:13:59.671,6.8125,45.5939
14:13:59.680,4.5,41.4064
14:13:59.691,2.7188,37.7501
14:13:59.701,0.125,33.7189
14:13:59.710,-3.5625,29.3126
14:13:59.720,-6.9375,24.8126
14:13:59.731,-8.4688,19.9376
14:13:59.741,-12.375,15.7501
14:13:59.752,-14.7501,10.3438
14:13:59.761,-18.3126,5.75
14:13:59.771,-20.8751,0.6875
14:13:59.780,-23.5938,-4.1563
14:13:59.791,-26.2814,-8.875
14:13:59.800,-28.2501,-13.4376
14:13:59.811,-31.6876,-19.2188
14:13:59.821,-33.3439,-22.5938
14:13:59.830,-34.7189,-25.6251
14:13:59.845,-36.2501,-28.5939
14:13:59.873,-38.2501,-33.1251
14:13:59.875,-40.4064,-37.0626
14:13:59.878,-42.4064,-40.0939
14:13:59.881,-44.5314,-44.9689
14:13:59.912,-46.5002,-49.7502
14:13:59.913,-48.2189,-52.5627
14:13:59.915,-49.8752,-56.469
14:13:59.922,-51.8752,-59.969
14:13:59.949,-53.7502,-63.8127
14:13:59.952,-56.3127,-67.4378
14:13:59.955,-58.0002,-71.8753
14:13:59.961,-61.0315,-76.094
14:13:59.976,-64.0627,-82.6253
14:14:00.006,-70.719,-93.1566
14:14:00.012,-77.2503,-106.0004
14:14:00.016,-80.4378,-111.9379
14:14:00.030,-80.3441,-113.2192
14:14:00.031,-81.7816,-113.8129
14:14:00.035,-83.3441,-117.7192
14:14:00.042,-84.1878,-118.313
14:14:00.051,-83.4378,-118.1255
14:14:00.060,-82.1878,-118.1567
14:14:00.071,-81.6878,-117.0317
14:14:00.080,-81.3128,-117.938
14:14:00.090,-81.8753,-119.063
14:14:00.101,-81.4691,-120.9067
14:14:00.110,-81.9066,-121.8755
14:14:00.127,-81.1566,-122.938
14:14:00.130,-79.7503,-122.063
14:14:00.140,-74.1253,-117.9067
14:14:00.151,-69.6253,-111.7817
14:14:00.160,-63.9065,-105.4692
14:14:00.171,-57.9377,-97.9379
14:14:00.181,-51.4377,-89.0941
14:14:00.191,-44.2502,-79.7191
14:14:00.203,-37.7189,-69.0003
14:14:00.210,-30.9689,-60.2502
14:14:00.221,-24.0938,-48.9064
14:14:00.231,-17.3438,-40.0939
14:14:00.242,-10.2188,-29.5626
14:14:00.251,-5.3438,-20.1251
14:14:00.260,0.4063,-11.1875
14:14:00.272,5,-2.1563
14:14:00.281,10.1563,5.4375
14:14:00.295,14.7188,13.8126
14:14:00.313,18.3751,19.4063
14:14:00.315,21.5001,26.5939
14:14:00.323,23.9688,31.6876
14:14:00.331,27.3126,36.9689
14:14:00.361,28.6876,42.0002
14:14:00.363,30.5626,44.1252
14:14:00.365,30.2189,46.9689
14:14:00.371,30.5314,47.0939
14:14:00.380,29.0939,47.7189
14:14:00.390,27.7501,45.9377
14:14:00.400,25.7188,43.5002
14:14:00.410,22.5313,40.6564
14:14:00.421,20.8751,37.5001
14:14:00.430,18.1876,34.5001
14:14:00.441,17.6563,33.1876
14:14:00.451,15.5626,31.1251
14:14:00.461,14.1251,29.5626
14:14:00.470,13.4376,27.8439
14:14:00.481,12.625,25.7813
14:14:00.490,11.6563,24.4688
14:14:00.505,11.5,23.3438
14:14:00.511,9.4375,22.3126
14:14:00.521,8.8438,21.3126
14:14:00.530,8.4063,19.6563
14:14:00.541,7.5,18.7188
14:14:00.550,5.8125,15.9063
14:14:00.560,5.5938,15.3126
14:14:00.571,5.7813,16.0626
14:14:00.580,5.0938,13.8751
14:14:00.590,4.25,12.9063
14:14:00.602,3.4688,11.5
14:14:00.610,2.1875,9.7188
14:14:00.640,1.4063,8.4688
14:14:00.642,0.0625,6.5625
14:14:00.644,-0.5625,5.5938
14:14:00.650,-1.4063,2.6875
14:14:00.682,-3.1875,0.625
14:14:00.684,-4.5625,-0.5
14:14:00.687,-5.1875,-2.5938
14:14:00.691,-6.5,-4.6563
14:14:00.726,-7.375,-6.5
14:14:00.727,-8.3125,-7.3125
14:14:00.731,-9.1875,-7.9688
14:14:00.735,-9.5,-9.8125
14:14:00.741,-11.1563,-12.6563
14:14:00.768,-13.5001,-15.2501
14:14:00.769,-15.0938,-16.7501
14:14:00.772,-16.1563,-19.4688
14:14:00.806,-18.1876,-23.1563
14:14:00.808,-19.7501,-25.6251
14:14:00.812,-21.8438,-28.3439
14:14:00.813,-22.3751,-30.5939
14:14:00.820,-24.2188,-32.5314
14:14:00.830,-25.4688,-34.6564
14:14:00.841,-27.3439,-37.5626
14:14:00.850,-28.2501,-40.3127
14:14:00.862,-29.1251,-41.3752
14:14:00.871,-30.1564,-43.3127
14:14:00.880,-31.7189,-45.1877
14:14:00.890,-31.7501,-47.4064
14:14:00.903,-33.3439,-49.7189
14:14:00.911,-34.2189,-51.4377
14:14:00.921,-35.5001,-53.3127
14:14:00.931,-36.5314,-55.2502
14:14:00.940,-37.8439,-57.1877
14:14:00.951,-38.4064,-60.0002
14:14:00.961,-39.5314,-62.094
14:14:00.971,-41.3127,-63.4377
14:14:00.981,-42.5002,-66.9065
14:14:00.990,-44.8127,-68.6878
14:14:01.000,-45.8752,-73.3128
14:14:01.012,-48.2189,-75.0628
14:14:01.021,-48.7502,-77.8753
14:14:01.031,-50.1252,-78.6878
14:14:01.042,-49.3127,-80.3753
14:14:01.051,-48.3439,-79.5941
14:14:01.063,-46.0314,-77.7815
14:14:01.070,-42.6877,-73.7815
14:14:01.081,-38.6876,-67.2503
14:14:01.092,-33.1251,-61.594
14:14:01.102,-27.0626,-53.4065
14:14:01.111,-22.1251,-45.3127
14:14:01.121,-16.1876,-37.0939
14:14:01.131,-10.4375,-27.3126
14:14:01.141,-5.375,-19.0626
14:14:01.150,0.1563,-11.375
14:14:01.161,5.5938,-2.375
14:14:01.171,9.5313,5.625
14:14:01.180,13.6251,12.9063
14:14:01.192,18.0938,20.1563
14:14:01.200,21.7813,26.5001
14:14:01.211,25.5001,34.3439
14:14:01.221,28.7814,40.0002
14:14:01.230,31.3751,45.9064
14:14:01.240,34.6876,52.0314
14:14:01.252,36.9376,56.4377
14:14:01.262,38.5001,59.844
14:14:01.327,39.5627,63.594
14:14:01.327,39.8439,65.2502
14:14:01.328,40.0939,66.8128
14:14:01.331,39.0001,67.6565
14:14:01.337,37.8751,66.7503
14:14:01.337,36.2814,65.2502
14:14:01.337,33.9376,63.9065
14:14:01.342,33.5939,63.6565
14:14:01.369,32.8751,62.094
14:14:01.376,31.2814,61.5002
14:14:01.376,29.8751,59.5315
14:14:01.383,28.2814,56.8127
14:14:01.417,27.6564,55.8127
14:14:01.419,26.7814,54.469
14:14:01.422,26.0313,53.8127
14:14:01.426,25.5938,52.969
14:14:01.455,24.6876,52.1877
14:14:01.458,24.0938,51.1252
14:14:01.459,23.7188,49.9064
14:14:01.466,22.8751,48.3752
14:14:01.472,20.9063,46.4377
14:14:01.480,19.7501,45.3439
14:14:01.490,18.6251,43.2814
14:14:01.502,17.0001,41.7502
14:14:01.511,16.0001,40.0002
14:14:01.520,14.6563,37.5001
14:14:01.532,12.8125,35.4064
14:14:01.542,11.0938,33.3439
14:14:01.551,10.0938,30.7189
14:14:01.560,7.5938,27.4064
14:14:01.571,5.5938,24.1876
14:14:01.580,3.0625,20.4688
14:14:01.597,0.75,17.5938
14:14:01.614,-1.0313,13.5313
14:14:01.616,-4.375,9.4063
14:14:01.644,-6.1875,6.0313
14:14:01.646,-8,2.4063
14:14:01.648,-10.125,-1.9688
14:14:01.659,-11.875,-5.125
14:14:01.662,-13.4688,-7.8125
14:14:01.673,-14.7813,-10.9375
14:14:01.683,-15.8751,-13.9688
14:14:01.692,-17.0938,-16.0938
14:14:01.701,-18.3438,-18.9376
14:14:01.711,-20.1563,-22.9063
14:14:01.722,-21.5626,-25.0001
14:14:01.732,-23.4063,-29.4376
14:14:01.741,-25.1251,-32.2814
14:14:01.751,-26.6876,-35.6251
14:14:01.761,-29.5939,-39.9689
14:14:01.770,-31.5314,-44.3127
14:14:01.782,-34.0001,-47.3752
14:14:01.790,-35.3126,-50.6564
14:14:01.800,-36.8751,-54.2815
14:14:01.810,-38.7814,-57.0315
14:14:01.821,-39.7814,-59.5315
14:14:01.830,-40.7502,-61.1877
14:14:01.841,-41.5314,-63.6252
14:14:01.850,-42.8439,-65.0627
14:14:01.860,-43.9689,-67.8753
14:14:01.871,-44.5314,-70.344
14:14:01.880,-45.5002,-71.594
14:14:01.891,-46.6564,-73.594
14:14:01.900,-47.4689,-76.0003
14:14:01.911,-47.8439,-77.0628
14:14:01.920,-49.0939,-78.6253
14:14:01.932,-48.9689,-80.2191
14:14:01.943,-50.0627,-80.4378
14:14:01.952,-50.4064,-81.7816
14:14:01.960,-49.5002,-82.6878
14:14:01.973,-49.0314,-81.4378
14:14:01.980,-47.2189,-79.7816
14:14:01.991,-43.5627,-75.4378
14:14:02.001,-40.0314,-70.1565
14:14:02.012,-35.2814,-65.9065
14:14:02.021,-30.0314,-57.8127
14:14:02.032,-24.3126,-49.9377
14:14:02.041,-18.4688,-41.1252
14:14:02.050,-11.0938,-28.8439
14:14:02.061,-3.5625,-18.9063
14:14:02.070,2.875,-7.2813
14:14:02.080,9.0625,2.25
14:14:02.090,13.9376,12.5
14:14:02.118,18.9688,21.0001
14:14:02.120,23.7188,30.5001
14:14:02.123,28.4689,39.0001
14:14:02.130,33.7189,47.5002
14:14:02.157,36.5939,56.1252
14:14:02.160,40.0627,61.719
14:14:02.162,44.0627,68.2503
14:14:02.171,46.1252,74.469
14:14:02.205,48.8127,79.3753
14:14:02.205,51.0314,84.4691
14:14:02.209,52.2502,87.7816
14:14:02.239,53.2815,91.5629
14:14:02.240,53.3752,92.1879
14:14:02.242,52.4689,92.6254
14:14:02.250,51.5002,92.8441
14:14:02.251,50.1564,92.1566
14:14:02.282,48.2189,89.2503
14:14:02.285,45.4689,87.0316
14:14:02.287,42.8439,85.6566
14:14:02.291,41.1252,82.5628
14:14:02.301,38.0939,80.2503
14:14:02.312,36.2814,77.844
14:14:02.322,34.0939,74.2815
14:14:02.332,32.3439,71.9065
14:14:02.342,31.0939,70.1253
14:14:02.351,29.0314,67.5003
14:14:02.360,27.4064,63.6252
14:14:02.371,25.5626,61.5315
14:14:02.381,24.5001,57.6877
14:14:02.392,22.8126,55.2502
14:14:02.407,20.7501,52.0002
14:14:02.411,19.1563,48.0314
14:14:02.421,16.3751,45.3752
14:14:02.431,14.2813,39.8752
14:14:02.442,11.1563,36.5314
14:14:02.451,8.1875,31.0314
14:14:02.461,4.6563,26.4063
14:14:02.472,1.6875,22.0001
14:14:02.480,-1.0313,16.2188
14:14:02.491,-3.9688,11.9063
14:14:02.502,-6.0313,7.4688
14:14:02.511,-8.4063,3.0625
14:14:02.522,-10.5625,-0.7188
14:14:02.531,-12.0625,-4.5938
14:14:02.542,-14.0001,-8.125
14:14:02.552,-16.0626,-11.3438
14:14:02.561,-17.8751,-14.6876
14:14:02.571,-19.4376,-19.1876
14:14:02.580,-21.6563,-22.1563
14:14:02.597,-23.0001,-26.2814
14:14:02.611,-25.0001,-29.3126
14:14:02.613,-26.5939,-32.3751
14:14:02.622,-28.1251,-35.9064
14:14:02.632,-29.2814,-38.2814
14:14:02.642,-30.8439,-40.8127
14:14:02.652,-31.3751,-42.7189
14:14:02.662,-32.9376,-46.0002
14:14:02.671,-33.5314,-47.3127
14:14:02.682,-34.5939,-50.2502
14:14:02.692,-35.7189,-52.5314
14:14:02.701,-36.4376,-53.1877
14:14:02.712,-37.4689,-56.3127
14:14:02.720,-37.7189,-58.5315
14:14:02.732,-39.4064,-60.5315
14:14:02.743,-40.1252,-62.344
14:14:02.753,-40.9377,-63.0315
14:14:02.763,-42.0314,-65.5002
14:14:02.772,-42.3127,-67.5003
14:14:02.783,-43.6252,-68.0003
14:14:02.792,-43.6877,-70.6878
14:14:02.803,-44.4689,-71.0315
14:14:02.823,-45.7502,-73.0628
14:14:02.825,-46.4689,-74.8753
14:14:02.864,-45.2502,-74.844
14:14:02.864,-45.3127,-74.5315
14:14:02.868,-45.1564,-75.344
14:14:02.869,-45.9689,-76.0003
14:14:02.871,-46.3752,-77.8753
14:14:02.912,-45.6252,-77.9378
14:14:02.913,-45.5314,-77.5315
14:14:02.917,-43.1877,-76.0003
14:14:02.930,-41.5002,-73.6253
14:14:02.932,-38.0939,-69.844
14:14:02.933,-34.1251,-64.4065
14:14:02.964,-29.0314,-57.3752
14:14:02.966,-23.0626,-49.8439
14:14:02.968,-17.6876,-41.0314
14:14:02.972,-10.375,-30.9689
14:14:02.988,-4.5938,-19.5938
14:14:02.992,2.375,-10.125
14:14:03.001,8.6563,1.5625
14:14:03.010,14.8126,10.6875
14:14:03.022,20.8438,21.0001
14:14:03.032,26.1876,31.1564
14:14:03.042,31.5314,40.3439
14:14:03.052,36.0001,49.4064
14:14:03.062,39.9377,55.719
14:14:03.070,43.5939,61.8127
14:14:03.082,45.8752,68.844
14:14:03.092,48.6564,73.8128
14:14:03.102,50.8439,78.9691
14:14:03.112,52.3752,82.0003
14:14:03.122,53.6877,85.5628
14:14:03.130,53.6877,87.7503
14:14:03.141,53.8127,89.3753
14:14:03.157,53.8127,89.8128
14:14:03.161,52.5314,90.0316
14:14:03.171,51.9689,88.4066
14:14:03.182,49.3439,86.7503
14:14:03.190,46.5314,84.5316
14:14:03.202,44.0939,80.9378
14:14:03.212,41.3439,78.2503
14:14:03.222,38.5939,73.594
14:14:03.232,36.3126,70.219
14:14:03.241,33.5314,66.2815
14:14:03.251,30.7189,62.0627
14:14:03.262,28.1564,58.2502
14:14:03.271,25.3126,53.594
14:14:03.282,22.7813,49.9377
14:14:03.291,20.0626,45.7814
14:14:03.302,18.0938,42.0939
14:14:03.311,15.5626,38.0314
14:14:03.322,13.1875,34.1564
14:14:03.331,10.8125,31.0626
14:14:03.342,8.9688,27.4376
14:14:03.351,7.2188,23.9688
14:14:03.362,5.2188,21.0626
14:14:03.371,3.1563,16.9688
14:14:03.382,1.2188,13.8126
14:14:03.391,-1.2188,10.25
14:14:03.401,-3.1875,6.4375
14:14:03.411,-5.4688,2.5625
14:14:03.421,-6.625,-0.8438
14:14:03.431,-9.6563,-4.125
14:14:03.442,-10.5938,-7.4063
14:14:03.451,-12.4063,-11.1875
14:14:03.461,-14.6563,-14.7188
14:14:03.472,-15.4688,-18.1563
14:14:03.481,-17.6876,-20.8438
14:14:03.495,-19.1876,-23.1876
14:14:03.502,-20.0001,-26.9376
14:14:03.530,-21.3751,-29.2189
14:14:03.533,-22.1876,-32.2189
14:14:03.535,-24.0938,-34.0626
14:14:03.542,-24.5626,-36.0939
14:14:03.568,-26.5626,-39.3751
14:14:03.571,-27.2501,-41.7189
14:14:03.599,-28.4689,-44.3127
14:14:03.600,-30.0314,-46.3439
14:14:03.602,-31.0001,-47.8439
14:14:03.609,-32.1876,-49.1877
14:14:03.637,-32.5626,-51.9689
14:14:03.639,-32.9064,-53.1877
14:14:03.642,-34.5939,-54.6877
14:14:03.648,-34.8751,-56.6565
14:14:03.673,-34.7189,-56.6565
14:14:03.675,-33.7189,-57.344
14:14:03.683,-34.6564,-57.5315
14:14:03.693,-35.2501,-59.2815
14:14:03.703,-35.9376,-60.1877
14:14:03.712,-37.0314,-60.719
14:14:03.721,-37.0939,-62.3127
14:14:03.731,-37.9376,-64.5315
14:14:03.742,-38.9376,-65.6878
14:14:03.752,-39.7814,-67.5628
14:14:03.762,-39.5314,-67.9378
14:14:03.771,-40.8752,-69.1565
14:14:03.781,-41.4689,-70.7503
14:14:03.791,-42.0002,-70.9065
14:14:03.801,-42.0627,-72.0003
14:14:03.812,-41.2502,-71.5628
14:14:03.821,-39.7502,-69.3128
14:14:03.831,-35.5001,-65.3752
14:14:03.841,-32.6876,-60.6252
14:14:03.853,-27.8751,-54.3752
14:14:03.862,-22.5626,-47.0314
14:14:03.872,-16.8126,-38.4064
14:14:03.889,-11.125,-29.7814
14:14:03.892,-5.2188,-20.0626
14:14:03.907,0.8438,-10.875
14:14:03.912,6.4688,-1.3125
14:14:03.922,11.1563,7.1875
14:14:03.931,15.6251,15.8438
14:14:03.942,20.1876,23.2813
14:14:03.951,24.4688,31.3751
14:14:03.961,29.2189,38.7501
14:14:03.972,32.2501,46.0002
14:14:03.981,36.1251,51.7814
14:14:03.992,38.7814,57.344
14:14:04.001,41.2814,62.0315
14:14:04.015,42.8439,66.2503
14:14:04.021,44.5939,69.4378
14:14:04.032,44.7189,72.0315
14:14:04.041,45.3127,73.469
14:14:04.052,44.1564,73.0003
14:14:04.062,42.5627,72.844
14:14:04.072,40.0939,71.0003
14:14:04.082,36.6564,66.8128
14:14:04.092,33.6564,63.8127
14:14:04.102,30.0626,59.3127
14:14:04.113,27.0314,56.1877
14:14:04.122,24.9376,51.3752
14:14:04.132,21.3126,47.8439
14:14:04.143,19.6563,43.7502
14:14:04.155,17.3438,40.8127
14:14:04.162,15.5626,37.7501
14:14:04.172,14.2813,34.4376
14:14:04.234,12.4063,31.5001
14:14:04.235,11.4688,29.0001
14:14:04.237,10.2813,26.3751
14:14:04.269,8.9375,24.1876
14:14:04.269,7.2813,22.1876
14:14:04.269,6.375,19.1251
14:14:04.270,5.625,16.9376
14:14:04.273,4.6563,14.8438
14:14:04.278,2.9375,12.4375
14:14:04.281,1.7188,10.4375
14:14:04.312,0.3438,7.8438
14:14:04.313,-0.9375,5.5938
14:14:04.316,-1.875,3.1563
14:14:04.323,-3.375,0.875
14:14:04.359,-5,-1.4063
14:14:04.362,-6.5313,-4.6875
14:14:04.363,-7.5,-6.7813
14:14:04.366,-7.9063,-8.6875
14:14:04.372,-9.3438,-11.0313
14:14:04.381,-11.1875,-12.9375
14:14:04.391,-12.8125,-16.3751
14:14:04.401,-13.5938,-17.5626
14:14:04.412,-12.7813,-17.8438
14:14:04.425,-13.0625,-19.7813
14:14:04.431,-14.4063,-21.1876
14:14:04.441,-16.0001,-23.3438
14:14:04.452,-16.9688,-25.0313
14:14:04.462,-17.2501,-27.2501
14:14:04.471,-18.3126,-28.5314
14:14:04.482,-18.2813,-29.4376
14:14:04.493,-20.2188,-30.8751
14:14:04.503,-20.7501,-32.8751
14:14:04.512,-20.2813,-32.7501
14:14:04.522,-19.6563,-32.5314
14:14:04.532,-21.1251,-33.3439
14:14:04.541,-21.2188,-35.0939
14:14:04.552,-22.2813,-35.5314
14:14:04.561,-22.4688,-37.6251
14:14:04.572,-22.7813,-38.4064
14:14:04.582,-24.3126,-38.7189
14:14:04.592,-24.7188,-41.1564
14:14:04.602,-25.5938,-41.4064
14:14:04.612,-26.4689,-44.3439
14:14:04.623,-27.6876,-44.5002
14:14:04.633,-28.7189,-47.0939
14:14:04.642,-29.7501,-49.8439
14:14:04.652,-30.9376,-50.8127
14:14:04.661,-32.6876,-53.719
14:14:04.672,-34.2814,-54.6565
14:14:04.681,-35.0314,-58.0315
14:14:04.691,-36.6564,-60.0002
14:14:04.702,-37.7189,-61.344
14:14:04.712,-37.8751,-62.594
14:14:04.722,-37.3126,-62.1565
14:14:04.732,-34.5626,-60.8127
14:14:04.744,-32.5939,-57.5002
14:14:04.752,-28.3439,-52.4064
14:14:04.761,-24.4063,-47.6564
14:14:04.772,-19.7188,-41.6877
14:14:04.781,-15.3126,-34.7189
14:14:04.791,-9.8438,-27.5001
14:14:04.801,-6.125,-20.3438
14:14:04.812,-1.625,-13.6876
14:14:04.822,1.9375,-7
14:14:04.832,5.6563,-1.4688
14:14:04.844,8.2188,4.3438
14:14:04.854,11.2188,10
14:14:04.861,13.7813,14.5938
14:14:04.872,16.5001,20.9688
14:14:04.881,19.0313,24.3126
14:14:04.892,21.1563,28.0314
14:14:04.902,23.2188,32.5314
14:14:04.911,24.7188,35.7814
14:14:04.922,26.4064,39.4064
14:14:04.945,26.7189,40.6877
14:14:04.946,27.5001,43.0314
14:14:04.984,27.7501,44.1252
14:14:04.988,27.2814,45.1877
14:14:04.991,27.5001,45.3439
14:14:04.993,26.8439,44.4377
14:14:04.993,25.5001,43.2189
14:14:05.021,24.5938,42.8752
14:14:05.028,23.5313,41.2189
14:14:05.028,22.3751,39.5314
14:14:05.034,21.1563,37.5626
14:14:05.066,19.5001,36.0626
14:14:05.068,18.7501,35.0314
14:14:05.070,17.7813,32.4689
14:14:05.072,17.1251,32.0626
14:14:05.105,16.2813,29.9376
14:14:05.107,15.5938,29.3126
14:14:05.112,15.3751,28.5626
14:14:05.112,14.2813,27.7189
14:14:05.123,13.6876,27.3751
14:14:05.135,12.9688,25.1563
14:14:05.141,12.25,23.4688
14:14:05.152,11.9375,23.2188
14:14:05.163,12.7188,23.2501
14:14:05.185,12.5938,23.6563
14:14:05.188,11.8125,22.8438
14:14:05.203,9.5938,20.2501
14:14:05.205,8.8438,17.4063
14:14:05.212,7.0938,15.8751
14:14:05.224,5.4688,13.4376
14:14:05.232,3.5938,10.7188
14:14:05.243,2.125,8.2188
14:14:05.253,0.4688,6.0938
14:14:05.263,-1.0625,2.1875
14:14:05.274,-0.5625,2.125
14:14:05.282,-0.9375,1.375
14:14:05.292,-2.6563,-0.125
14:14:05.301,-4.4063,-3.375
14:14:05.312,-5.3438,-5.1563
14:14:05.322,-6.9063,-8.1563
14:14:05.332,-8.3125,-10.9375
14:14:05.342,-10.3438,-13.5938
14:14:05.352,-11.0313,-15.3126
14:14:05.363,-13.1876,-17.9376
14:14:05.373,-14.0313,-20.6251
14:14:05.384,-15.5626,-22.7813
14:14:05.392,-16.6563,-24.1563
14:14:05.402,-17.8126,-26.9689
14:14:05.411,-19.3438,-29.0314
14:14:05.422,-20.6563,-31.9689
14:14:05.432,-21.4376,-34.2814
14:14:05.443,-24.0938,-36.0939
14:14:05.453,-25.0313,-39.9377
14:14:05.489,-26.6876,-42.8752
14:14:05.492,-27.6876,-44.6564
14:14:05.507,-29.2501,-48.4689
14:14:05.509,-30.6251,-50.0627
14:14:05.510,-30.8751,-52.0314
14:14:05.514,-32.5314,-53.594
14:14:05.522,-32.6876,-56.344
14:14:05.531,-33.2501,-57.6565
14:14:05.541,-33.8439,-59.844
14:14:05.553,-34.7501,-61.0627
14:14:05.562,-35.1251,-63.469
14:14:05.572,-36.0939,-65.7503
14:14:05.583,-36.7814,-68.219
14:14:05.592,-38.7189,-69.8128
14:14:05.602,-39.1564,-72.6878
14:14:05.612,-40.9377,-74.7503
14:14:05.621,-41.1564,-76.2815
14:14:05.632,-40.8439,-77.719
14:14:05.641,-40.8439,-77.1565
14:14:05.652,-38.8751,-76.0628
14:14:05.661,-36.8439,-72.2815
14:14:05.676,-33.0001,-69.219
14:14:05.708,-27.3751,-61.219
14:14:05.710,-21.7501,-53.9377
14:14:05.712,-15.6563,-45.1564
14:14:05.714,-10.0313,-36.7501
14:14:05.722,-4.5938,-28.8751
14:14:05.756,0.4688,-20.4376
14:14:05.759,5.4375,-11.0313
14:14:05.761,10.9688,-2.5938
14:14:05.766,15.1251,6.25
14:14:05.798,20.2188,14.3126
14:14:05.801,23.2813,21.8126
14:14:05.803,29.3751,29.8439
14:14:05.810,32.4376,38.5001
14:14:05.813,35.2189,42.2502
14:14:05.843,36.8439,47.9377
14:14:05.846,38.4689,52.2814
14:14:05.848,40.8439,55.3752
14:14:05.853,41.8127,59.8127
14:14:05.862,42.9064,63.3752
14:14:05.871,43.9064,65.5628
14:14:05.882,44.3127,68.094
14:14:05.892,43.4377,68.0003
14:14:05.902,41.9377,67.5003
14:14:05.912,39.4689,66.0628
14:14:05.924,37.4064,61.8127
14:14:05.932,33.8751,57.6877
14:14:05.942,29.8439,51.8439
14:14:05.952,25.4063,45.4064
14:14:05.962,21.5938,40.0002
14:14:05.972,16.2188,35.1251
14:14:05.983,30.1251,36.3751
14:14:05.992,19.4688,33.0001
14:14:06.002,15.7813,27.9689
14:14:06.012,10.75,19.6251
14:14:06.022,14.4063,17.9688
14:14:06.032,15.0938,21.2188
14:14:06.042,15.7813,19.7813
14:14:06.054,16.3751,20.8438
14:14:06.061,16.6563,19.5626
14:14:06.071,16.0313,17.6876
14:14:06.081,14.8126,15.0001
14:14:06.091,13.6563,12.9375
14:14:06.102,12.0313,9.3125
14:14:06.112,11.2813,6.6875
14:14:06.123,10.3125,3.9375
14:14:06.134,8.3438,0.4063
14:14:06.142,6.4063,-2.0938
14:14:06.151,5.125,-4.9688
14:14:06.162,4.1875,-7.3125
14:14:06.172,3.4688,-10.125
14:14:06.182,1.375,-12.4688
14:14:06.192,-0.8125,-16.5626
14:14:06.202,-2.4375,-19.6876
14:14:06.212,-3.4375,-22.0938
14:14:06.221,-5.3438,-25.2813
14:14:06.232,-6.4063,-28.5001
14:14:06.243,-8.4688,-31.2189
14:14:06.254,-10.6563,-35.0626
14:14:06.262,-12.6563,-38.9689
14:14:06.273,-14.0938,-42.3439
14:14:06.282,-16.4063,-44.8752
14:14:06.292,-17.9063,-48.6877
14:14:06.304,-19.2813,-51.7502
14:14:06.313,-20.5938,-55.4377
14:14:06.322,-21.6251,-57.4065
14:14:06.332,-23.1876,-58.5627
14:14:06.342,-23.6876,-62.3752
14:14:06.352,-25.5313,-63.1565
14:14:06.362,-26.2188,-65.6565
14:14:06.373,-28.3126,-66.6878
14:14:06.381,-30.7814,-70.8128
14:14:06.391,-33.1251,-72.6253
14:14:06.402,-37.0314,-77.9065
14:14:06.411,-40.0939,-81.0941
14:14:06.422,-42.0627,-84.6566
14:14:06.432,-43.8439,-86.2816
14:14:06.442,-44.9689,-89.0628
14:14:06.452,-46.0002,-91.4691
14:14:06.521,-47.0002,-93.8129
14:14:06.521,-48.5627,-95.2504
14:14:06.522,-49.5939,-97.8129
14:14:06.524,-50.6564,-99.6879
14:14:06.527,-51.6564,-101.8441
14:14:06.532,-52.0939,-103.3754
14:14:06.532,-52.844,-104.5629
14:14:06.532,-52.8127,-106.5942
14:14:06.563,-51.6564,-106.5317
14:14:06.565,-50.1564,-105.6879
14:14:06.568,-47.4689,-103.6254
14:14:06.573,-45.3752,-100.3441
14:14:06.601,-41.8127,-96.5316
14:14:06.603,-37.2814,-90.4378
14:14:06.605,-33.2814,-82.2816
14:14:06.611,-27.5939,-75.5628
14:14:06.645,-22.1876,-67.0003
14:14:06.649,-16.1876,-56.5315
14:14:06.651,-11.0938,-48.5627
14:14:06.657,-6.1563,-38.2189
14:14:06.663,-1.3438,-29.4376
14:14:06.675,3.6563,-20.5626
14:14:06.682,8.2813,-11.375
14:14:06.692,12.3125,-2.9063
14:14:06.703,16.9063,5.9688
14:14:06.712,20.0626,13.5313
14:14:06.723,22.6563,19.5313
14:14:06.731,25.6251,25.9063
14:14:06.762,27.9376,32.5314
14:14:06.765,30.2501,36.9376
14:14:06.767,31.3751,42.0002
14:14:06.772,33.1564,45.5939
14:14:06.786,34.1251,50.3439
14:14:06.802,35.3126,52.3752
14:14:06.803,35.4064,55.6877
14:14:06.813,35.6564,56.219
14:14:06.822,35.3751,57.5627
14:14:06.833,34.9689,58.2502
14:14:06.845,34.1564,57.344
14:14:06.853,33.3751,56.9065
14:14:06.862,31.3751,56.1252
14:14:06.873,30.4064,54.469
14:14:06.881,29.2501,53.2815
14:14:06.893,27.8439,51.8127
14:14:06.904,26.2814,49.4689
14:14:06.913,24.0626,47.0939
14:14:06.922,21.4063,43.9689
14:14:06.932,19.5001,42.0002
14:14:06.942,17.7188,38.4376
14:14:06.952,16.3126,36.7814
14:14:06.963,14.8438,34.0626
14:14:06.972,12.7813,32.1564
14:14:06.982,12.0313,29.4689
14:14:06.995,10.0938,26.6564
14:14:07.001,8.9688,23.7813
14:14:07.013,6.4375,20.5938
14:14:07.022,5.25,17.6876
14:14:07.033,3.25,15.4688
14:14:07.042,1.875,11.75
14:14:07.053,-0.125,9.7188
14:14:07.061,-1.5,6.3438
14:14:07.073,-3.375,2.8438
14:14:07.082,-4.75,0.9688
14:14:07.093,-6.4063,-2.25
14:14:07.102,-8.125,-5.4375
14:14:07.113,-10.4688,-7.6875
14:14:07.122,-11.5938,-10.125
14:14:07.153,-13.6563,-13.4063
14:14:07.156,-15.0938,-15.8126
14:14:07.159,-16.2501,-18.5001
14:14:07.164,-18.5626,-21.4063
14:14:07.191,-19.8438,-22.9376
14:14:07.193,-21.2188,-25.9688
14:14:07.195,-24.8438,-30.2814
14:14:07.232,-28.0939,-33.2501
14:14:07.235,-28.6564,-35.6251
14:14:07.237,-29.9689,-37.9376
14:14:07.243,-31.1251,-39.2189
14:14:07.243,-32.4064,-42.3439
14:14:07.269,-33.7814,-44.1564
14:14:07.273,-34.8751,-47.0627
14:14:07.275,-36.4376,-48.7814
14:14:07.284,-37.3751,-52.2502
14:14:07.303,-39.2814,-54.1877
14:14:07.305,-39.7814,-57.3127
14:14:07.311,-41.6252,-58.9377
14:14:07.323,-42.4689,-61.5315
14:14:07.333,-43.4689,-62.719
14:14:07.344,-44.2189,-65.7815
14:14:07.352,-45.4064,-67.0003
14:14:07.365,-46.0627,-69.1565
14:14:07.373,-46.1564,-71.1565
14:14:07.383,-46.9064,-71.844
14:14:07.393,-47.1877,-74.1878
14:14:07.401,-48.3439,-75.3753
14:14:07.413,-48.4064,-77.1253
14:14:07.424,-49.1564,-77.469
14:14:07.435,-49.3439,-79.9691
14:14:07.443,-49.0002,-80.5003
14:14:07.451,-48.8752,-81.5628
14:14:07.463,-48.0002,-81.3128
14:14:07.473,-46.0939,-78.3128
14:14:07.484,-43.1877,-74.8753
14:14:07.493,-38.9064,-70.469
14:14:07.503,-34.2501,-63.969
14:14:07.512,-29.2814,-56.219
14:14:07.523,-24.0938,-48.3752
14:14:07.533,-17.9376,-39.7189
14:14:07.543,-13.5938,-30.2501
14:14:07.553,-7.6875,-22.5938
14:14:07.564,-2.2188,-13.125
14:14:07.572,2.5,-3.9375
14:14:07.583,6.9688,3.9375
14:14:07.592,11.7813,12.4375
14:14:07.603,15.2188,20.3751
14:14:07.614,19.0313,27.2814
14:14:07.623,22.4063,34.0939
14:14:07.633,26.0938,40.7189
14:14:07.643,28.3751,46.7189
14:14:07.653,30.9064,51.2502
14:14:07.662,33.4064,56.1877
14:14:07.678,34.3751,60.9377
14:14:07.688,36.3751,63.9377
14:14:07.698,38.0939,67.9065
14:14:07.713,37.9689,70.594
14:14:07.723,37.8126,71.1565
14:14:07.733,37.5001,72.0003
14:14:07.744,36.5314,72.6565
14:14:07.753,34.8751,70.7815
14:14:07.761,33.7814,69.5315
14:14:07.778,31.6251,67.5003
14:14:07.786,29.8751,65.6878
14:14:07.793,28.1251,63.1252
14:14:07.811,25.5626,61.2502
14:14:07.814,24.5938,59.2815
14:14:07.829,22.5626,56.8127
14:14:07.834,21.2813,54.6877
14:14:07.844,18.3438,52.2502
14:14:07.853,17.7813,50.1252
14:14:07.863,16.1251,49.2814
14:14:07.874,14.5938,46.0314
14:14:07.885,12.7188,43.8439
14:14:07.893,11.9375,41.3439
14:14:07.903,10.0313,38.1876
14:14:07.918,8.5938,35.9689
14:14:07.923,6.8438,33.3439
14:14:07.953,5.8438,30.2189
14:14:07.955,3.6875,27.1564
14:14:07.959,2.1875,24.4688
14:14:07.964,0.0625,21.6876
14:14:07.990,-1.5,18.3126
14:14:07.992,-3.0625,14.5313
14:14:07.994,-4.9375,11.8125
14:14:08.031,-6,8.7813
14:14:08.032,-8.0938,5.4375
14:14:08.034,-10.0938,1.9063
14:14:08.048,-11.875,-0.6875
14:14:08.050,-13.3126,-3.8125
14:14:08.054,-14.7813,-7.5
14:14:08.082,-16.5938,-10.625
14:14:08.099,-18.5313,-13.0625
14:14:08.113,-20.0938,-16.6251
14:14:08.114,-20.8126,-19.8126
14:14:08.129,-22.6563,-22.9376
14:14:08.129,-24.1876,-25.5626
14:14:08.132,-25.1876,-28.1251
14:14:08.146,-26.2501,-31.0939
14:14:08.148,-27.2189,-34.3126
14:14:08.153,-28.5626,-36.0939
14:14:08.163,-29.5001,-39.0939
14:14:08.173,-30.7189,-40.7189
14:14:08.189,-30.8439,-43.0627
14:14:08.193,-32.4689,-45.5939
14:14:08.203,-33.4376,-46.8127
14:14:08.213,-34.3751,-49.1252
14:14:08.223,-35.6564,-51.9064
14:14:08.233,-36.3126,-52.8752
14:14:08.243,-36.5001,-55.594
14:14:08.253,-37.8439,-57.1877
14:14:08.264,-38.7501,-59.094
14:14:08.273,-38.9376,-60.8752
14:14:08.283,-40.5002,-62.969
14:14:08.293,-40.8752,-65.1878
14:14:08.304,-42.2189,-66.2815
14:14:08.313,-42.8127,-68.6565
14:14:08.323,-43.8127,-69.4378
14:14:08.333,-44.7189,-72.6253
14:14:08.343,-44.8439,-73.0003
14:14:08.353,-46.2189,-75.4378
14:14:08.363,-46.5314,-76.3753
14:14:08.374,-46.3752,-76.9378
14:14:08.383,-44.9064,-76.469
14:14:08.395,-43.3439,-73.5003
14:14:08.404,-40.5314,-70.7503
14:14:08.413,-35.9376,-66.1878
14:14:08.423,-31.8126,-59.7815
14:14:08.433,-26.4064,-52.5939
14:14:08.443,-20.8126,-43.8752
14:14:08.453,-15.3751,-36.0939
14:14:08.464,-9.375,-26.9376
14:14:08.475,-3.9688,-16.3126
14:14:08.483,1.5313,-7.875
14:14:08.493,6.9063,1.0625
14:14:08.505,11.3438,9.7188
14:14:08.514,16.2501,17.6876
14:14:08.523,19.5938,25.8751
14:14:08.533,23.8438,32.9376
14:14:08.543,27.5314,40.8752
14:14:08.553,30.2189,46.5627
14:14:08.567,33.6564,52.5314
14:14:08.573,35.0939,58.2815
14:14:08.598,37.4689,62.2502
14:14:08.600,40.0314,66.8753
14:14:08.608,41.0002,71.0628
14:14:08.618,42.7814,73.719
14:14:08.623,43.0002,76.344
14:14:08.655,43.3127,77.5628
14:14:08.658,42.8127,78.9066
14:14:08.660,41.5627,77.2503
14:14:08.664,40.5627,76.5628
14:14:08.693,39.0626,74.5628
14:14:08.695,37.0626,72.5003
14:14:08.698,34.6564,69.9378
14:14:08.704,32.4376,67.469
14:14:08.728,31.0001,65.3127
14:14:08.731,29.5626,62.4065
14:14:08.733,27.5001,59.844
14:14:08.760,25.6563,58.094
14:14:08.761,24.3751,56.1252
14:14:08.764,23.0938,53.6252
14:14:08.773,21.4688,50.3439
14:14:08.783,20.5626,48.6252
14:14:08.793,19.7188,45.8127
14:14:08.803,17.7501,44.2502
14:14:08.815,16.4376,42.2814
14:14:08.823,15.6563,39.1564
14:14:08.833,13.7813,37.3751
14:14:08.843,12.1875,34.7501
14:14:08.853,11.2188,32.0939
14:14:08.863,9.9063,30.8439
14:14:08.873,8.1563,27.0314
14:14:08.883,6.4375,24.8126
14:14:08.895,5.0938,21.9688
14:14:08.903,3.25,19.6876
14:14:08.913,1.5313,16.7188
14:14:08.923,0.0313,13.3438
14:14:08.939,-2.0313,11.1875
14:14:08.943,-3.375,7.375
14:14:08.953,-5.4063,4.625
14:14:08.963,-7.6875,0.3438
14:14:08.975,-10.5938,-3
14:14:08.983,-11.9375,-6.3438
14:14:08.993,-14.2501,-8.625
14:14:09.003,-15.9376,-12
14:14:09.013,-17.1876,-15.3751
14:14:09.023,-18.1563,-17.8438
14:14:09.033,-19.2813,-20.4688
14:14:09.043,-20.8438,-22.4688
14:14:09.053,-21.7188,-24.4376
14:14:09.063,-22.1563,-27.8439
14:14:09.073,-23.8126,-29.8751
14:14:09.084,-24.8751,-32.1876
14:14:09.099,-26.0938,-35.3439
14:14:09.114,-26.7189,-37.0001
14:14:09.129,-28.2501,-40.2189
14:14:09.132,-29.7501,-42.4377
14:14:09.149,-30.1876,-44.5314
14:14:09.149,-32.0626,-46.6252
14:14:09.153,-32.4064,-49.1252
14:14:09.164,-34.1251,-51.2189
14:14:09.173,-34.8751,-53.719
14:14:09.185,-35.7814,-55.2502
14:14:09.194,-37.3751,-56.094
14:14:09.203,-37.6251,-59.0627
14:14:09.213,-37.9689,-60.8127
14:14:09.224,-39.7189,-62.7815
14:14:09.233,-40.4377,-64.4377
14:14:09.243,-41.8752,-66.8128
14:14:09.253,-41.7502,-68.594
14:14:09.266,-42.4689,-70.0628
14:14:09.273,-42.5627,-69.8128
14:14:09.283,-41.0002,-69.3753
14:14:09.294,-38.0939,-67.3753
14:14:09.321,-34.8126,-63.094
14:14:09.323,-30.1876,-57.7502
14:14:09.325,-26.2813,-51.3752
14:14:09.339,-20.5938,-43.5627
14:14:09.344,-15.2813,-34.9376
14:14:09.354,-9.125,-26.0626
14:14:09.363,-3.7188,-16.8751
14:14:09.373,1.25,-8.9375
14:14:09.405,6.5313,0.75
14:14:09.514,10.5313,9.5
14:14:09.514,16.3126,17.5001
14:14:09.514,19.8438,25.6876
14:14:09.514,23.8751,32.5939
14:14:09.541,27.9064,40.3127
14:14:09.543,30.5939,46.1252
14:14:09.543,33.7501,51.8439
14:14:09.543,35.5626,57.4377
14:14:09.545,37.9064,61.3752
14:14:09.549,39.1251,66.3753
14:14:09.560,41.2189,68.9065
14:14:09.568,41.2189,72.5003
14:14:09.578,41.7502,73.2815
14:14:09.588,40.7814,74.6565
14:14:09.598,40.2502,74.1878
14:14:09.608,39.0626,73.0628
14:14:09.618,37.4064,71.219
14:14:09.628,35.1564,68.719
14:14:09.640,32.7501,67.5628
14:14:09.648,31.1251,64.5315
14:14:09.658,29.0939,61.3752
14:14:09.668,27.5314,60.2815
14:14:09.680,25.6876,56.4065
14:14:09.688,19.9376,48.0939
14:14:09.698,17.7813,46.2814
14:14:09.715,16.4376,43.3752
14:14:09.720,15.0938,41.1564
14:14:09.729,13.2501,38.0939
14:14:09.738,11.5938,34.6876
14:14:09.748,9.9688,32.5939
14:14:09.759,8.25,28.4689
14:14:09.768,6.7188,25.8438
14:14:09.778,4.3125,22.2813
14:14:09.788,3.5938,19.9063
14:14:09.798,1.2813,16.6251
14:14:09.808,-0.25,13.4376
14:14:09.819,-1.75,10.5313
14:14:09.828,-3.0938,7.5938
14:14:09.838,-4.7188,4.25
14:14:09.850,-6.0625,1.5938
14:14:09.858,-7.9688,-1.375
14:14:09.868,-9,-4.9375
14:14:09.879,-10.8125,-7.9688
14:14:09.888,-12.4063,-11.1563
14:14:09.898,-13.7188,-14.3126
14:14:09.909,-14.7813,-17.3126
14:14:09.918,-15.5938,-19.6563
14:14:09.928,-17.4376,-22.1251
14:14:09.938,-18.2813,-24.2501
14:14:09.948,-19.0938,-27.1564
14:14:09.960,-21.0313,-29.0314
14:14:09.968,-21.7813,-32.0314
14:14:09.978,-23.2813,-34.0626
14:14:09.988,-24.0938,-36.0001
14:14:10.002,-24.8126,-38.1251
14:14:10.009,-25.9688,-40.9377
14:14:10.018,-27.0939,-42.7189
14:14:10.030,-28.2189,-44.6877
14:14:10.038,-30.9064,-47.0939
14:14:10.048,-32.8126,-50.0939
14:14:10.058,-33.4689,-52.3752
14:14:10.068,-34.9376,-54.6252
14:14:10.078,-36.0314,-56.844
14:14:10.090,-36.5001,-58.094
14:14:10.101,-37.8751,-60.1877
14:14:10.130,-38.5314,-62.0002
14:14:10.132,-40.3439,-63.5002
14:14:10.135,-41.0939,-66.2503
14:14:10.140,-41.2502,-67.4065
14:14:10.173,-43.5627,-69.594
14:14:10.177,-44.1252,-71.3128
14:14:10.178,-43.7814,-71.8128
14:14:10.182,-43.2814,-71.844
14:14:10.209,-42.0314,-71.594
14:14:10.209,-38.9064,-68.3128
14:14:10.211,-36.3439,-64.5627
14:14:10.242,-31.8439,-59.0002
14:14:10.244,-27.5314,-52.2189
14:14:10.247,-21.7813,-45.0627
14:14:10.252,-15.8126,-36.0939
14:14:10.279,-10.7813,-25.9063
14:14:10.281,-4.9375,-18.2813
14:14:10.282,1,-8.3438
14:14:10.288,6.2188,1.8125
14:14:10.300,11.2813,10.6875
14:14:10.308,16.8126,20.2501
14:14:10.318,21.2813,28.9064
14:14:10.328,26.4689,37.4689
14:14:10.341,29.8126,45.4064
14:14:10.348,33.7814,52.7815
14:14:10.359,36.6564,58.4377
14:14:10.369,39.5314,64.844
14:14:10.378,42.1877,70.1878
14:14:10.388,43.9377,75.094
14:14:10.398,45.9377,78.7503
14:14:10.414,46.8127,83.0628
14:14:10.429,47.9064,85.1566
14:14:10.430,47.3752,87.6878
14:14:10.446,47.8127,88.2191
14:14:10.449,46.4689,87.5316
14:14:10.469,44.8752,86.4066
14:14:10.469,43.3439,84.8753
14:14:10.478,40.7814,82.3753
14:14:10.488,38.0626,79.3128
14:14:10.498,35.6251,75.5003
14:14:10.508,34.0314,73.0628
14:14:10.518,31.9689,70.6253
14:14:10.529,30.4689,68.0628
14:14:10.539,28.2189,65.469
14:14:10.548,27.2189,63.3752
14:14:10.558,25.6563,60.844
14:14:10.568,24.5313,58.1877
14:14:10.601,22.7813,55.7815
14:14:10.603,21.5626,53.5315
14:14:10.605,20.1251,51.9377
14:14:10.609,19.2813,49.5002
14:14:10.618,17.7188,46.6564
14:14:10.629,15.3751,43.5627
14:14:10.638,13.9688,41.1564
14:14:10.650,12.4688,38.2501
14:14:10.658,10.9375,35.0626
14:14:10.668,8.625,32.0626
14:14:10.678,6.8438,28.8439
14:14:10.688,5.1875,25.5001
14:14:10.698,4.1563,22.5938
14:14:10.708,1.4688,19.3751
14:14:10.721,0,16.8438
14:14:10.728,-1.875,14.0938
14:14:10.739,-2.4063,11.3125
14:14:10.748,-3.6563,8.5938
14:14:10.758,-5.4063,5.4688
14:14:10.774,-6.6875,2.1563
14:14:10.783,-8.3438,-0.0313
14:14:10.788,-9.4063,-4.25
14:14:10.855,-11.6875,-7.1563
14:14:10.855,-12.375,-10.25
14:14:10.856,-13.6876,-12.1563
14:14:10.863,-14.8438,-14.9063
14:14:10.863,-16.3126,-16.8438
14:14:10.863,-16.3438,-19.1876
14:14:10.878,-17.6251,-20.2501
14:14:10.881,-18.4688,-22.1876
14:14:10.912,-19.5001,-24.2501
14:14:10.913,-19.6251,-25.6563
14:14:10.915,-21.2188,-26.5626
14:14:10.942,-21.3438,-28.9064
14:14:10.943,-23.9063,-29.9376
14:14:10.946,-26.5314,-33.7501
14:14:10.951,-27.7501,-34.6876
14:14:10.962,-28.3751,-36.7814
14:14:10.969,-28.7814,-37.7814
14:14:10.979,-29.9689,-39.1251
14:14:10.989,-30.7814,-40.8127
14:14:10.999,-31.5001,-41.6564
14:14:11.008,-32.2189,-42.1877
14:14:11.018,-32.7189,-44.3439
14:14:11.028,-35.0001,-47.5939
14:14:11.038,-35.3439,-49.0314
14:14:11.048,-35.9376,-50.5002
14:14:11.058,-37.2189,-51.7189
14:14:11.068,-37.3439,-53.8127
14:14:11.080,-37.0939,-53.5002
14:14:11.088,-36.4064,-51.9377
14:14:11.098,-34.5314,-50.9689
14:14:11.108,-30.4689,-47.0314
14:14:11.118,-27.1564,-41.5314
14:14:11.128,-22.3126,-35.3751
14:14:11.138,-16.9688,-26.9064
14:14:11.149,-11.4063,-18.2501
14:14:11.158,-5.5313,-9.25
14:14:11.169,0,-0.0938
14:14:11.178,5.7188,9
14:14:11.188,10.8125,18.4688
14:14:11.198,16.5001,27.2814
14:14:11.208,20.6563,36.8439
14:14:11.218,25.7813,43.8752
14:14:11.228,28.3126,51.4377
14:14:11.238,32.3439,57.4377
14:14:11.248,35.2501,64.4065
14:14:11.260,38.8126,69.9065
14:14:11.268,40.6877,74.7503
14:14:11.281,43.4377,79.6253
14:14:11.288,44.9377,83.2503
14:14:11.298,45.5939,86.1253
14:14:11.309,46.6564,88.5003
14:14:11.318,46.1252,90.4066
14:14:11.329,46.0314,90.7191
14:14:11.340,45.3127,90.0003
14:14:11.349,43.5314,89.3753
14:14:11.358,42.0002,86.8128
14:14:11.369,39.8439,84.6878
14:14:11.378,37.0939,82.1566
14:14:11.388,35.2814,79.1253
14:14:11.398,33.3751,76.9378
14:14:11.410,31.7189,73.4065
14:14:11.420,30.3751,71.5315
14:14:11.428,28.5314,68.0003
14:14:11.440,27.0626,65.6252
14:14:11.451,25.9376,63.219
14:14:11.459,24.5938,61.219
14:14:11.469,23.4063,58.2502
14:14:11.480,21.7501,55.594
14:14:11.489,20.2813,53.0315
14:14:11.498,18.7501,50.4377
14:14:11.511,17.1563,47.2814
14:14:11.518,15.9376,45.2189
14:14:11.529,13.7501,42.2814
14:14:11.539,12.5625,39.5627
14:14:11.549,10.2188,36.4376
14:14:11.569,8.2813,32.9376
14:14:11.571,6.9063,30.2501
14:14:11.600,4.5,26.8751
14:14:11.602,3.0625,23.4063
14:14:11.605,1.0938,20.1251
14:14:11.610,-0.625,17.0626
14:14:11.640,-2.2813,13.5626
14:14:11.642,-4,10.5625
14:14:11.644,-4.9688,7
14:14:11.651,-6.8125,5.1875
14:14:11.675,-8.0313,0.875
14:14:11.677,-9.5,-0.8125
14:14:11.679,-10.8125,-4.5938
14:14:11.712,-11.625,-7.0313
14:14:11.713,-13.4688,-8.875
14:14:11.715,-14.4688,-12.4688
14:14:11.747,-15.5938,-13.6563
14:14:11.762,-16.8751,-17.2813
14:14:11.776,-18.4376,-18.9063
14:14:11.779,-19.0938,-21.8438
14:14:11.786,-20.2813,-23.2501
14:14:11.786,-21.7813,-26.3126
14:14:11.790,-22.1563,-28.3439
14:14:11.800,-24.0313,-29.6251
14:14:11.810,-24.7501,-32.7501
14:14:11.818,-26.3751,-34.6876
14:14:11.830,-26.7814,-37.9376
14:14:11.838,-28.6876,-38.9064
14:14:11.850,-29.6251,-42.8127
14:14:11.882,-30.6876,-44.4689
14:14:11.883,-31.2189,-46.0314
14:14:11.887,-32.6876,-49.1877
14:14:11.891,-33.8126,-51.0939
14:14:11.899,-35.5001,-53.1252
14:14:11.910,-37.3751,-57.0315
14:14:11.918,-39.2814,-59.9377
14:14:11.929,-41.7814,-63.344
14:14:11.938,-42.2814,-65.6253
14:14:11.951,-43.4689,-68.219
14:14:11.958,-43.2814,-69.5628
14:14:11.969,-42.3127,-67.9378
14:14:11.979,-39.0314,-66.5003
14:14:11.989,-35.7814,-61.9377
14:14:11.998,-31.7814,-57.4065
14:14:12.010,-26.1876,-49.9689
14:14:12.018,-20.0001,-42.1252
14:14:12.029,-14.0626,-33.1251
14:14:12.038,-8.3125,-24.7501
14:14:12.049,-2.9688,-15.1563
14:14:12.060,2.3438,-6.625
14:14:12.069,7.9063,2.75
14:14:12.081,12.7813,11.375
14:14:12.088,17.6251,20.2188
14:14:12.103,22.1876,27.8126
14:14:12.112,26.4064,36.9689
14:14:12.121,29.7189,43.2502
14:14:12.138,32.7189,50.7502
14:14:12.151,35.5939,55.6877
14:14:12.153,38.1251,61.719
14:14:12.160,40.7814,65.719
14:14:12.169,42.3752,71.5315
14:14:12.179,44.8127,74.0003
14:14:12.189,45.0939,78.0628
14:14:12.199,46.3439,79.8753
14:14:12.208,45.9689,81.8753
14:14:12.219,45.8127,81.8441
14:14:12.228,44.5939,80.5003
14:14:12.240,42.7814,80.2503
14:14:12.249,42.1877,77.6565
14:14:12.259,39.5314,75.344
14:14:12.269,37.6876,73.4378
14:14:12.278,36.3439,70.0003
14:14:12.290,34.3751,67.7503
14:14:12.299,33.9376,65.969
14:14:12.309,32.0314,64.3127
14:14:12.334,30.6564,61.9377
14:14:12.336,30.4376,60.0002
14:14:12.340,28.2814,58.219
14:14:12.374,27.8126,55.8127
14:14:12.377,26.2813,54.1877
14:14:12.379,25.2188,52.594
14:14:12.382,23.9063,49.9377
14:14:12.417,22.6876,47.8439
14:14:12.419,20.9688,45.1564
14:14:12.422,19.9063,42.8127
14:14:12.445,18.6876,39.9377
14:14:12.447,16.2501,37.2189
14:14:12.449,15.0626,34.3126
14:14:12.453,13.5001,31.3126
14:14:12.481,11.25,28.8439
14:14:12.484,10.6563,25.4376
14:14:12.487,9.0938,23.1251
14:14:12.489,7.3125,20.4376
14:14:12.503,6.2813,16.5313
14:14:12.509,4.7813,14.0938
14:14:12.520,3.3125,10.5313
14:14:12.529,1.25,7.7188
14:14:12.540,0.5,5.1563
14:14:12.549,-1.5,2.375
14:14:12.559,-2.6875,-1.0313
14:14:12.569,-4.0938,-3.7813
14:14:12.579,-5.9375,-6.4375
14:14:12.589,-6.9688,-9.125
14:14:12.599,-8.75,-11.9688
14:14:12.609,-9.4375,-14.2188
14:14:12.619,-10.5625,-16.5626
14:14:12.631,-11.8438,-19.0626
14:14:12.640,-12.6875,-19.7188
14:14:12.649,-14.0001,-22.7813
14:14:12.660,-15.3751,-24.5001
14:14:12.669,-16.2813,-26.1251
14:14:12.679,-17.2501,-28.0626
14:14:12.691,-18.1563,-30.5001
14:14:12.699,-19.3751,-32.2501
14:14:12.709,-20.5313,-34.0001
14:14:12.719,-21.7813,-36.6876
14:14:12.729,-22.5626,-38.1564
14:14:12.740,-24.0938,-40.4377
14:14:12.749,-24.2188,-41.7814
14:14:12.760,-26.2814,-42.5939
14:14:12.769,-27.0939,-45.7814
14:14:12.782,-27.9064,-47.8127
14:14:12.789,-28.5001,-48.5939
14:14:12.800,-30.0626,-50.7814
14:14:12.809,-30.5939,-52.5939
14:14:12.819,-31.8126,-54.0002
14:14:12.830,-32.3751,-56.2502
14:14:12.839,-32.9376,-57.9065
14:14:12.849,-32.5939,-58.719
14:14:12.860,-32.2501,-58.5315
14:14:12.869,-30.8439,-56.9065
14:14:12.879,-27.4689,-53.6565
14:14:12.890,-25.0001,-49.2502
14:14:12.899,-20.4063,-42.8127
14:14:12.909,-15.4063,-36.2501
14:14:12.919,-10.4063,-27.0626
14:14:12.929,-5.1563,-19.1251
14:14:12.939,0.7813,-9.4688
14:14:12.950,5.7188,-0.6563
14:14:12.959,11.4688,9.6875
14:14:12.969,15.7501,17.6563
14:14:12.980,21.0626,26.5001
14:14:12.989,24.6563,34.5626
14:14:12.999,28.8439,42.5002
14:14:13.009,32.1251,49.9064
14:14:13.035,35.3126,56.219
14:14:13.038,38.1876,62.0002
14:14:13.039,40.8127,67.594
14:14:13.073,42.6877,73.1253
14:14:13.108,44.7502,76.6253
14:14:13.171,46.1877,81.7503
14:14:13.206,47.8752,84.3753
14:14:13.208,47.6564,86.3128
14:14:13.208,47.6877,87.7816
14:14:13.208,46.9064,87.2191
14:14:13.209,45.1877,86.5316
14:14:13.212,43.1252,85.0941
14:14:13.217,41.0939,81.8441
14:14:13.218,38.9064,79.3753
14:14:13.218,37.0314,77.0628
14:14:13.226,34.8126,74.4065
14:14:13.234,33.0626,70.844
14:14:13.247,31.7814,69.2815
14:14:13.253,30.2189,66.0628
14:14:13.264,29.0626,64.2815
14:14:13.278,28.4689,62.5315
14:14:13.284,26.7189,60.9377
14:14:13.295,25.7501,58.6877
14:14:13.306,24.7188,56.2502
14:14:13.314,23.5626,55.094
14:14:13.324,21.8751,51.9064
14:14:13.337,18.1563,46.1564
14:14:13.344,15.8751,44.0627
14:14:13.354,14.1876,40.3127
14:14:13.368,12.4375,37.0939
14:14:13.374,11.2188,34.2814
14:14:13.384,5.7813,24.7501
14:14:13.394,5.1875,22.7813
14:14:13.404,3.7813,19.8438
14:14:13.421,1.7813,16.8438
14:14:13.435,0.5313,13.8438
14:14:13.438,-0.5938,10.8125
14:14:13.453,-1.6563,8.125
14:14:13.469,-3.1875,5.5938
14:14:13.469,-4.4375,2.6563
14:14:13.478,-5.6563,-0.1563
14:14:13.485,-6.375,-2.5625
14:14:13.495,-7.4688,-4.9063
14:14:13.504,-9.25,-7.625
14:14:13.514,-10.4063,-9.6875
14:14:13.526,-11.6875,-12.875
14:14:13.535,-13.5313,-15.6563
14:14:13.544,-14.5626,-18.2188
14:14:13.556,-16.4376,-20.2813
14:14:13.564,-17.3438,-23.1251
14:14:13.574,-18.8126,-25.3438
14:14:13.587,-19.7501,-28.5001
14:14:13.594,-21.2501,-30.9064
14:14:13.604,-22.6876,-32.9376
14:14:13.614,-23.0001,-34.4376
14:14:13.629,-24.1251,-36.2814
14:14:13.635,-23.9688,-37.2814
14:14:13.644,-25.0001,-38.3751
14:14:13.654,-26.1251,-41.0939
14:14:13.664,-26.1876,-42.2502
14:14:13.674,-27.5939,-43.6877
14:14:13.684,-27.8126,-45.5002
14:14:13.695,-28.6564,-47.1564
14:14:13.704,-28.2814,-48.0939
14:14:13.714,-27.7189,-47.5939
14:14:13.726,-26.2188,-46.0002
14:14:13.735,-23.6876,-43.3127
14:14:13.762,-20.6876,-38.2814
14:14:13.764,-16.2188,-33.0314
14:14:13.767,-11.8125,-25.7188
14:14:13.775,-6.3125,-17.0626
14:14:13.809,-0.9688,-8.6875
14:14:13.811,4.125,0.7813
14:14:13.813,10.125,9.4063
14:14:13.815,15.6563,19.8751
14:14:13.848,20.4688,28.2189
14:14:13.851,25.2813,37.8126
14:14:13.853,29.9376,46.0627
14:14:13.858,34.5314,54.219
14:14:13.884,38.1564,62.344
14:14:13.887,41.9689,68.3753
14:14:13.889,44.9689,74.8753
14:14:13.894,48.4377,81.0316
14:14:13.920,51.0002,86.1566
14:14:13.924,52.3752,90.9691
14:14:13.924,54.6252,94.8441
14:14:13.934,55.0315,97.9379
14:14:13.944,56.1565,100.0316
14:14:13.954,55.469,101.0941
14:14:13.965,54.3127,101.6566
14:14:13.975,53.2815,99.5316
14:14:13.984,50.8127,96.0316
14:14:13.994,47.7189,93.5941
14:14:14.004,44.7189,90.2816
14:14:14.014,42.7814,85.4066
14:14:14.024,40.5314,81.6566
14:14:14.035,38.3751,78.2816
14:14:14.044,35.3126,74.6565
14:14:14.054,33.8439,71.0315
14:14:14.064,31.7501,67.9378
14:14:14.074,30.2501,64.5002
14:14:14.084,28.1564,61.6565
14:14:14.095,26.6876,58.1565
14:14:14.104,25.3438,55.594
14:14:14.114,23.8751,52.8127
14:14:14.125,22.2188,50.5002
14:14:14.134,20.3751,47.4689
14:14:14.145,18.8438,44.3752
14:14:14.154,16.5001,41.2502
14:14:14.164,15.0001,38.5001
14:14:14.175,13.8751,34.6251
14:14:14.184,12.7188,31.7189
14:14:14.194,10.9375,28.8126
14:14:14.206,9.0313,26.4689
14:14:14.214,8.0313,23.6876
14:14:14.224,6.75,20.3438
14:14:14.234,5.375,17.8126
14:14:14.244,3.375,14.4063
14:14:14.254,2.2813,12.0313
14:14:14.265,0.7813,9
14:14:14.274,-0.6563,6.2188
14:14:14.284,-2.2188,3.0938
14:14:14.294,-3.5938,0.5313
14:14:14.304,-5.0625,-3.3438
14:14:14.315,-6.0938,-5.25
14:14:14.324,-7.3125,-7.6875
14:14:14.334,-8.875,-11.3438
14:14:14.347,-10.125,-13.5001
14:14:14.354,-11.5625,-16.3126
14:14:14.364,-12.4688,-18.4688
14:14:14.380,-12.9063,-20.0626
14:14:14.384,-13.9063,-21.6876
14:14:14.397,-15.7188,-24.8126
14:14:14.404,-16.2813,-27.1564
14:14:14.414,-17.3751,-29.1876
14:14:14.442,-18.4376,-30.9689
14:14:14.455,-19.1563,-32.8439
14:14:14.470,-20.4376,-34.5626
14:14:14.472,-21.3126,-36.5314
14:14:14.487,-22.0938,-38.2501
14:14:14.489,-23.0938,-39.9689
14:14:14.524,-23.6251,-42.0627
14:14:14.527,-25.8438,-44.1564
14:14:14.528,-27.1251,-46.8439
14:14:14.530,-29.5001,-50.1877
14:14:14.535,-30.8751,-52.844
14:14:14.535,-34.0001,-56.1565
14:14:14.567,-36.9064,-60.0627
14:14:14.570,-39.4064,-64.5627
14:14:14.571,-42.1564,-67.3128
14:14:14.574,-44.5314,-69.969
14:14:14.612,-46.2814,-72.6878
14:14:14.615,-48.3127,-72.2503
14:14:14.617,-50.7189,-74.969
14:14:14.620,-48.3439,-70.719
14:14:14.625,-44.4377,-64.969
14:14:14.650,-38.8439,-56.6877
14:14:14.656,-32.3126,-47.2502
14:14:14.658,-25.6876,-36.6876
14:14:14.666,-18.2501,-24.7188
14:14:14.674,-10.8125,-12.4688
14:14:14.684,-4.1563,0.1563
14:14:14.694,2.4688,10
14:14:14.706,8.4375,21.6876
14:14:14.715,14.2188,31.9064
14:14:14.737,19.0626,41.1564
14:14:14.740,22.8751,49.0939
14:14:14.746,26.2501,56.9377
14:14:14.770,28.4064,62.0627
14:14:14.785,30.1876,68.1565
14:14:14.791,30.2814,70.219
