timestamp,Red,IR
12:52:38.744,-5.5,1
12:52:38.754,-6.5625,-3.375
12:52:38.763,-7.9375,-6.375
12:52:38.773,-7.6875,-8.5
12:52:38.785,-8.9375,-10.625
12:52:38.793,-9,-9.75
12:52:38.803,-8.3125,-9.375
12:52:38.813,-8.375,-7.4375
12:52:38.823,-7.5,-5
12:52:38.833,-6.5625,-2.6875
12:52:38.843,-5.4375,0.75
12:52:38.853,-4.625,3.75
12:52:38.863,-3.0625,6.25
12:52:38.873,-2.125,9.375
12:52:38.883,-1.75,10.9375
12:52:38.893,-1.4375,11.6875
12:52:38.903,-1.3125,13.4376
12:52:38.914,-1.125,14.3751
12:52:38.923,-0.4375,12.5
12:52:38.933,-1.125,12.5625
12:52:38.943,-1.5625,11.375
12:52:38.953,-1.625,9.875
12:52:38.963,-2.625,8.0625
12:52:38.973,-3,5.3125
12:52:38.983,-4.5,3.4375
12:52:38.993,-5,0.0625
12:52:39.003,-5.875,-1.4375
12:52:39.013,-6.375,-5.0625
12:52:39.024,-7.3125,-7.8125
12:52:39.033,-7.6875,-10.875
12:52:39.043,-9.4375,-13.3126
12:52:39.053,-9.5,-16.1251
12:52:39.063,-10.9375,-18.5001
12:52:39.073,-11.125,-20.9376
12:52:39.083,-12.25,-24.5001
12:52:39.093,-12.5625,-25.2501
12:52:39.103,-13.3751,-27.1251
12:52:39.114,-13.8126,-29.6251
12:52:39.125,-14.6876,-30.0001
12:52:39.133,-15.3751,-33.0001
12:52:39.177,-15.3126,-34.3751
12:52:39.245,-16.5626,-36.1251
12:52:39.251,-17.0626,-38.6876
12:52:39.253,-17.1876,-39.6252
12:52:39.253,-17.8751,-41.1252
12:52:39.253,-18.5001,-41.7502
12:52:39.254,-17.5626,-40.1252
12:52:39.256,-15.7501,-34.6251
12:52:39.286,-13.6876,-28.4376
12:52:39.286,-11.0625,-18.5626
12:52:39.288,-7.375,-7.4375
12:52:39.292,-4.625,5.125
12:52:39.294,-1,15.8126
12:52:39.296,2.375,24.9376
12:52:39.303,4.75,33.1876
12:52:39.329,6.6875,41.9377
12:52:39.332,8.6875,48.8752
12:52:39.334,10.0625,51.3752
12:52:39.344,11,52.3127
12:52:39.353,10.6875,51.9377
12:52:39.369,10.6875,51.0627
12:52:39.373,10.375,49.8127
12:52:39.383,9.75,46.5627
12:52:39.393,7.9375,42.5002
12:52:39.403,7.5625,39.1876
12:52:39.413,5.625,34.8126
12:52:39.423,4.0625,30.5626
12:52:39.433,3.625,26.3751
12:52:39.443,2.1875,21.5001
12:52:39.453,1.125,17.6876
12:52:39.464,-0.75,13.1251
12:52:39.475,-2.0625,7.0625
12:52:39.483,-3.125,4.4375
12:52:39.493,-4.375,-0.125
12:52:39.503,-5.75,-3.875
12:52:39.513,-6,-6.4375
12:52:39.523,-6.875,-7.5
12:52:39.533,-6.875,-6.875
12:52:39.543,-6.8125,-8.0625
12:52:39.553,-5.9375,-6.1875
12:52:39.563,-5.4375,-4.25
12:52:39.573,-5.1875,-1.5
12:52:39.583,-4.125,1.8125
12:52:39.593,-3.625,3.625
12:52:39.603,-3.375,4.375
12:52:39.614,-3.5625,6.0625
12:52:39.623,-2.5625,7.25
12:52:39.633,-1.625,9.5
12:52:39.643,-0.4375,10.25
12:52:39.653,-1.0625,9.75
12:52:39.663,-1.875,8.1875
12:52:39.673,-2.4375,7.1875
12:52:39.683,-2.8125,6.5625
12:52:39.693,-2.6875,5.0625
12:52:39.703,-3.375,3.3125
12:52:39.713,-3.9375,1.9375
12:52:39.724,-4.5625,0.125
12:52:39.733,-5.3125,-2.5
12:52:39.744,-5.5,-4.25
12:52:39.753,-6.125,-7.8125
12:52:39.784,-7.125,-9.125
12:52:39.786,-7.625,-11.625
12:52:39.788,-8.6875,-13.4376
12:52:39.793,-9,-17.5001
12:52:39.803,-10.0625,-19.1251
12:52:39.813,-11.4375,-22.0626
12:52:39.833,-12.5625,-25.8126
12:52:39.837,-13.3126,-28.5626
12:52:39.844,-14.3126,-30.5626
12:52:39.876,-14.8751,-34.4376
12:52:39.879,-15.8126,-34.8751
12:52:39.884,-16.5626,-37.1876
12:52:39.885,-15.8126,-38.1251
12:52:39.918,-16.1876,-39.8127
12:52:39.921,-17.3126,-41.6877
12:52:39.922,-17.6251,-43.2502
12:52:39.929,-17.1251,-42.8752
12:52:39.939,-16.9376,-41.0627
12:52:39.966,-16.0626,-37.1876
12:52:39.970,-13.7501,-30.0001
12:52:39.972,-10.375,-18.1876
12:52:39.979,-6.875,-4.375
12:52:40.006,-2.875,7.25
12:52:40.008,1.0625,20.2501
12:52:40.012,5,32.9376
12:52:40.018,8.5625,43.7502
12:52:40.028,11,53.8127
12:52:40.038,12.9375,60.6877
12:52:40.049,14.8751,65.1877
12:52:40.058,16.0626,67.8753
12:52:40.068,15.4376,68.6878
12:52:40.078,16.0626,68.0003
12:52:40.088,15.7501,66.3128
12:52:40.099,14.5001,63.8127
12:52:40.108,14.1251,60.2502
12:52:40.123,12.6875,57.2502
12:52:40.128,12.25,53.0627
12:52:40.138,10.625,48.7502
12:52:40.148,9,44.3127
12:52:40.158,7.8125,41.0002
12:52:40.168,7.125,37.1251
12:52:40.179,4.9375,32.4376
12:52:40.188,3.875,28.6876
12:52:40.198,2.9375,23.4376
12:52:40.208,2.0625,19.8751
12:52:40.218,0.4375,16.3751
12:52:40.228,-0.375,13.3126
12:52:40.238,-1.5625,11.0625
12:52:40.248,-1.375,9.375
12:52:40.258,-1.6875,8.5625
12:52:40.268,-2.125,10.125
12:52:40.278,-0.625,10.25
12:52:40.288,-1.375,13.3751
12:52:40.298,-0.75,14.6876
12:52:40.310,-0.9375,15.0626
12:52:40.319,-0.5625,17.3126
12:52:40.329,-0.6875,18.6876
12:52:40.338,-0.375,19.8126
12:52:40.349,-0.125,20.1251
12:52:40.358,-0.8125,18.1876
12:52:40.368,-0.9375,19.0626
12:52:40.378,-1.5625,17.2501
12:52:40.388,-1.4375,16.6876
12:52:40.398,-1.375,15.9376
12:52:40.408,-2.875,13.3751
12:52:40.418,-3.6875,11.9375
12:52:40.429,-4,10.4375
12:52:40.438,-5.3125,6.625
12:52:40.453,-5.9375,5.375
12:52:40.470,-6.4375,1.125
12:52:40.474,-7.375,0.125
12:52:40.488,-7.9375,-3.9375
12:52:40.489,-9.0625,-4.75
12:52:40.506,-9.375,-8.8125
12:52:40.521,-10.125,-10.625
12:52:40.537,-11.0625,-14.2501
12:52:40.562,-12.125,-16.2501
12:52:40.564,-13.2501,-20.0626
12:52:40.589,-14.3126,-22.8126
12:52:40.593,-15.5001,-27.1251
12:52:40.618,-16.8126,-28.3751
12:52:40.620,-17.4376,-33.0626
12:52:40.620,-18.5626,-33.5626
12:52:40.621,-18.6251,-36.4376
12:52:40.623,-18.8126,-37.1876
12:52:40.630,-20.3126,-40.8752
12:52:40.632,-20.1251,-41.5002
12:52:40.660,-20.9376,-42.5002
12:52:40.662,-20.0626,-43.7502
12:52:40.665,-20.2501,-42.3127
12:52:40.694,-19.1876,-39.6252
12:52:40.697,-17.1876,-32.7501
12:52:40.698,-13.3126,-22.0001
12:52:40.705,-11,-8.25
12:52:40.722,-6.4375,3.25
12:52:40.724,-2.875,16.5626
12:52:40.733,2.0625,30.1876
12:52:40.744,5.9375,42.8752
12:52:40.753,9.375,53.9377
12:52:40.763,11.875,61.6877
12:52:40.773,14.4376,68.3753
12:52:40.783,14.8751,72.6253
12:52:40.793,15.6876,73.1878
12:52:40.804,15.8751,73.5628
12:52:40.813,15.6876,72.6878
12:52:40.823,15.4376,69.6253
12:52:40.833,14.2501,66.8753
12:52:40.843,13.3126,63.0627
12:52:40.853,12.375,58.9377
12:52:40.863,10.9375,55.4377
12:52:40.874,9,50.1877
12:52:40.883,7.25,46.3752
12:52:40.893,5.9375,42.6877
12:52:40.903,5.5,37.4376
12:52:40.913,3.5625,33.0001
12:52:40.923,2.0625,28.7501
12:52:40.933,0.5625,23.8751
12:52:40.943,-1.125,20.5001
12:52:40.953,-1.75,16.1876
12:52:40.963,-2.5625,13.5626
12:52:40.973,-3.875,12.6875
12:52:40.984,-3.6875,12.25
12:52:41.012,-3.1875,12.1875
12:52:41.015,-3.125,13.6251
12:52:41.021,-2.625,15.7501
12:52:41.022,-2.5625,17.1251
12:52:41.034,-1.625,19.2501
12:52:41.043,-0.75,21.1251
12:52:41.053,-1,22.5001
12:52:41.064,-0.375,24.6251
12:52:41.073,-0.1875,24.1876
12:52:41.083,-0.5625,25.0626
12:52:41.093,-0.3125,25.1251
12:52:41.103,-0.3125,23.5626
12:52:41.114,-1,24.1251
12:52:41.123,-0.875,22.6876
12:52:41.133,-2.0625,20.6876
12:52:41.143,-1.4375,19.8751
12:52:41.153,-2.375,18.1876
12:52:41.163,-3,16.3126
12:52:41.174,-4.1875,12.3125
12:52:41.182,-5,10.375
12:52:41.193,-5.0625,7.8125
12:52:41.203,-5.8125,5.1875
12:52:41.213,-6.9375,3.25
12:52:41.223,-7.8125,-1.1875
12:52:41.233,-8.9375,-2.75
12:52:41.248,-9.3125,-6.5625
12:52:41.253,-10.1875,-8.6875
12:52:41.263,-10.625,-11.25
12:52:41.273,-11.875,-14.5626
12:52:41.283,-12.0625,-16.3751
12:52:41.293,-12.875,-18.8751
12:52:41.302,-12.9375,-20.1251
12:52:41.313,-13.4376,-22.3126
12:52:41.323,-14.1251,-23.7501
12:52:41.353,-14.5626,-26.1876
12:52:41.355,-15.1251,-27.4376
12:52:41.357,-14.9376,-28.2501
12:52:41.364,-15.5626,-29.9376
12:52:41.396,-15.8126,-29.9376
12:52:41.397,-15.8126,-28.3126
12:52:41.400,-13.8126,-24.0001
12:52:41.407,-11.875,-16.5001
12:52:41.434,-9.25,-7
12:52:41.436,-5.5,5.6875
12:52:41.439,-2.125,17.8126
12:52:41.465,2.5,30.8751
12:52:41.466,6.1875,42.6877
12:52:41.470,10.4375,53.1877
12:52:41.477,12.8125,62.5002
12:52:41.507,14.5626,68.1878
12:52:41.510,16.5001,73.3128
12:52:41.512,17.4376,75.3128
12:52:41.517,17.8126,75.9378
12:52:41.524,16.8126,74.3753
12:52:41.533,16.0626,71.6878
12:52:41.543,15.6251,68.8128
12:52:41.553,14.1251,65.0628
12:52:41.562,13.3751,60.5627
12:52:41.573,11.5,56.0002
12:52:41.584,10,51.5627
12:52:41.592,7.75,46.6877
12:52:41.604,6.75,42.3127
12:52:41.613,5.8125,36.8126
12:52:41.623,3.625,32.0626
12:52:41.633,2.3125,28.1251
12:52:41.643,1.6875,23.6876
12:52:41.654,0.1875,19.7501
12:52:41.663,-0.4375,16.8751
12:52:41.673,-1.6875,14.7501
12:52:41.683,-1.9375,14.3126
12:52:41.692,-1.5625,13.8751
12:52:41.703,-0.9375,14.3751
12:52:41.712,-1.3125,15.8126
12:52:41.723,-0.8125,17.9376
12:52:41.733,0.5,20.5001
12:52:41.742,1.3125,22.5001
12:52:41.753,1.25,24.3126
12:52:41.771,1.875,26.7501
12:52:41.773,2.125,26.2501
12:52:41.788,2.6875,27.1251
12:52:41.803,2.6875,28.8751
12:52:41.806,2.625,28.6251
12:52:41.814,2.5625,26.6251
12:52:41.823,1.75,26.5001
12:52:41.833,1.6875,24.6876
12:52:41.843,0.8125,22.0001
12:52:41.852,0.4375,20.7501
12:52:41.876,-0.3125,17.8126
12:52:41.878,-1.75,15.5626
12:52:41.893,-1.75,13
12:52:41.897,-3.3125,9.0625
12:52:41.906,-4,6.875
12:52:41.914,-5.4375,4.25
12:52:41.923,-6.4375,0.875
12:52:41.932,-6.375,-2.625
12:52:41.943,-7.5,-6
12:52:41.952,-8.9375,-9.25
12:52:41.962,-10.0625,-12.25
12:52:41.974,-10.5,-15.3126
12:52:41.983,-11.5625,-18.1251
12:52:41.992,-11.75,-19.0626
12:52:42.024,-11.9375,-21.3126
12:52:42.027,-12.6875,-24.0001
12:52:42.029,-13.6251,-24.8751
12:52:42.034,-13.8126,-27.3751
12:52:42.062,-14.6876,-29.0001
12:52:42.066,-14.3126,-29.5001
12:52:42.070,-15.0001,-29.7501
12:52:42.074,-13.6876,-27.8751
12:52:42.109,-12.6875,-23.0001
12:52:42.111,-9.1875,-14.1876
12:52:42.113,-5.6875,-2.75
12:52:42.118,-2,10.375
12:52:42.123,1.9375,25.0001
12:52:42.152,6.9375,39.0626
12:52:42.155,11.25,53.2502
12:52:42.157,15.1251,65.1877
12:52:42.164,18.5626,74.6253
12:52:42.188,21.4376,82.8128
12:52:42.191,22.3126,86.1878
12:52:42.193,23.8751,89.1253
12:52:42.203,24.1251,90.0004
12:52:42.213,23.7501,87.8753
12:52:42.223,22.9376,86.6878
12:52:42.233,21.6251,84.3753
12:52:42.242,21.3751,79.6253
12:52:42.256,19.6251,75.9378
12:52:42.263,18.3126,71.4378
12:52:42.292,16.8751,67.8128
12:52:42.295,15.4376,62.5002
12:52:42.299,13.2501,58.7502
12:52:42.303,12.8125,53.4377
12:52:42.313,10.6875,49.5002
12:52:42.323,8.9375,44.3752
12:52:42.338,7.4375,39.3126
12:52:42.350,5.75,36.0001
12:52:42.357,5.75,31.5626
12:52:42.367,4.1875,29.6876
12:52:42.382,3.25,27.4376
12:52:42.388,3.0625,25.8751
12:52:42.397,3.125,26.8751
12:52:42.407,3.5,26.9376
12:52:42.418,3.3125,28.3751
12:52:42.428,3.4375,30.5001
12:52:42.438,3.75,31.8751
12:52:42.448,4.0625,33.1876
12:52:42.457,4.875,34.0626
12:52:42.468,4.375,35.5001
12:52:42.478,4.375,35.0001
12:52:42.488,4.125,36.1876
12:52:42.498,4.75,36.5001
12:52:42.508,5.5625,35.1251
12:52:42.517,4.375,33.2501
12:52:42.528,3.6875,31.3126
12:52:42.538,2.9375,31.1876
12:52:42.548,3.25,29.0626
12:52:42.558,2.5,26.3751
12:52:42.568,1.375,23.7501
12:52:42.578,0.375,21.8751
12:52:42.588,0.4375,19.1251
12:52:42.598,-1,16.6876
12:52:42.608,-1.625,13.8751
12:52:42.620,-2.0625,11.5
12:52:42.627,-3.375,7.4375
12:52:42.637,-4.375,6.125
12:52:42.647,-5.625,1.5625
12:52:42.658,-6.4375,-0.625
12:52:42.669,-7.1875,-3.9375
12:52:42.679,-7.75,-7.75
12:52:42.688,-9.5,-11.5625
12:52:42.697,-10.125,-12.875
12:52:42.708,-11,-17.4376
12:52:42.717,-13.0625,-19.5001
12:52:42.728,-13.4376,-21.8126
12:52:42.738,-13.8126,-24.7501
12:52:42.769,-14.7501,-27.2501
12:52:42.772,-14.8751,-27.9376
12:52:42.774,-15.6876,-30.8126
12:52:42.780,-17.1876,-32.3751
12:52:42.808,-17.1876,-33.7501
12:52:42.810,-17.2501,-34.1251
12:52:42.813,-17.1251,-33.3126
12:52:42.841,-15.7501,-27.7501
12:52:42.842,-12.9375,-20.5001
12:52:42.848,-10,-7.8125
12:52:42.850,-5.375,4.5625
12:52:42.880,-0.8125,20.6876
12:52:42.882,4.625,35.8751
12:52:42.887,9.5625,51.0002
12:52:42.911,13.8126,64.5002
12:52:42.912,17.9376,77.6253
12:52:42.914,21.6876,86.3753
12:52:42.919,23.8126,93.0004
12:52:42.937,24.4376,95.7504
12:52:42.943,24.4376,98.0629
12:52:42.949,25.0626,95.6254
12:52:42.957,24.5626,95.0629
12:52:42.968,23.7501,91.7504
12:52:42.977,21.8126,88.2503
12:52:42.987,20.4376,83.8753
12:52:42.997,19.5626,81.1878
12:52:43.009,18.7501,76.5003
12:52:43.017,16.7501,72.9378
12:52:43.028,14.8751,69.6253
12:52:43.037,14.1251,65.1877
12:52:43.047,12.4375,61.1877
12:52:43.057,10.625,57.3752
12:52:43.067,9.6875,51.4377
12:52:43.085,7.5,48.0002
12:52:43.099,6.3125,44.0002
12:52:43.104,5.125,39.3752
12:52:43.108,4.25,37.7501
12:52:43.118,3.5,35.4376
12:52:43.130,2.875,35.3751
12:52:43.138,2.75,33.7501
12:52:43.148,3.0625,35.6251
12:52:43.171,3.5,35.1876
12:52:43.176,3.3125,37.3751
12:52:43.189,4.0625,38.6251
12:52:43.191,4.375,40.0002
12:52:43.198,4.6875,40.5627
12:52:43.208,5.625,41.8127
12:52:43.218,5.25,42.2502
12:52:43.227,5.1875,41.8127
12:52:43.238,5.4375,42.0627
12:52:43.249,5.3125,40.9377
12:52:43.257,3.6875,38.6876
12:52:43.268,2.8125,36.4376
12:52:43.278,1.6875,33.1251
12:52:43.288,0.6875,31.0626
12:52:43.298,0.25,27.7501
12:52:43.310,-0.875,25.3751
12:52:43.318,-1.6875,22.0626
12:52:43.328,-2.4375,18.1876
12:52:43.337,-3.625,14.7501
12:52:43.347,-5.3125,10.875
12:52:43.357,-6.3125,9.6875
12:52:43.367,-7.1875,5.375
12:52:43.378,-8.5,1.1875
12:52:43.387,-9.9375,-0.1875
12:52:43.398,-9.875,-4
12:52:43.408,-11.25,-6.75
12:52:43.418,-12.375,-8.8125
12:52:43.427,-13.1876,-11.0625
12:52:43.438,-13.8751,-14.1251
12:52:43.449,-14.8751,-17.3126
12:52:43.459,-15.3751,-17.6251
12:52:43.469,-15.6876,-21.5626
12:52:43.479,-16.8126,-23.1251
12:52:43.488,-16.8126,-24.3126
12:52:43.498,-17.5001,-26.3126
12:52:43.508,-17.5001,-27.8751
12:52:43.532,-19.0001,-30.2501
12:52:43.534,-19.7501,-32.0626
12:52:43.537,-19.7501,-35.5001
12:52:43.567,-20.7501,-36.6876
12:52:43.570,-21.5001,-38.6876
12:52:43.572,-22.5001,-40.5002
12:52:43.585,-22.4376,-43.1877
12:52:43.590,-23.4376,-43.3752
12:52:43.597,-23.6251,-45.5627
12:52:43.633,-23.7501,-47.4377
12:52:43.636,-23.7501,-47.4377
12:52:43.637,-24.3751,-50.1252
12:52:43.642,-25.1251,-50.3127
12:52:43.668,-24.8751,-50.8752
12:52:43.669,-23.5001,-47.9377
12:52:43.672,-22.1876,-43.3127
12:52:43.678,-19.6251,-33.8751
12:52:43.690,-15.6251,-21.8126
12:52:43.705,-10.625,-7.1875
12:52:43.707,-6.25,8.6875
12:52:43.718,-1,25.0626
12:52:43.729,5,40.9377
12:52:43.737,8.8125,53.6877
12:52:43.748,12.75,65.6253
12:52:43.758,15.3126,73.0628
12:52:43.767,17.1251,79.3753
12:52:43.778,17.6251,81.3128
12:52:43.787,18.0001,82.0628
12:52:43.798,17.3751,82.3753
12:52:43.807,16.8126,77.9378
12:52:43.818,16.0001,74.8753
12:52:43.827,13.7501,71.5003
12:52:43.838,12.8125,66.1878
12:52:43.847,11.5625,62.8752
12:52:43.858,9.5,57.9377
12:52:43.868,8.3125,53.6252
12:52:43.878,6.125,49.1252
12:52:43.888,4.4375,44.6252
12:52:43.899,2.5625,39.9377
12:52:43.907,1.25,35.8126
12:52:43.918,-0.0625,30.9376
12:52:43.928,-2.4375,26.3751
12:52:43.938,-2.9375,22.8126
12:52:43.947,-4.9375,20.3751
12:52:43.958,-4.875,17.6876
12:52:43.967,-5.6875,17.3126
12:52:43.978,-5.375,17.0001
12:52:43.988,-5.3125,19.3751
12:52:43.998,-4.25,20.5626
12:52:44.007,-4,23.5001
12:52:44.017,-2.375,25.3751
12:52:44.028,-2.125,27.8751
12:52:44.037,-0.9375,30.1251
12:52:44.049,-0.5,32.8126
12:52:44.058,0.1875,32.6876
12:52:44.068,0.0625,33.8751
12:52:44.081,0,33.3751
12:52:44.087,-0.1875,32.8126
12:52:44.098,-0.1875,31.5001
12:52:44.107,-1,31.3751
12:52:44.118,-0.9375,28.6251
12:52:44.127,-2.4375,27.0001
12:52:44.137,-2.75,24.3126
12:52:44.148,-3.625,23.0001
12:52:44.157,-3.9375,18.8126
12:52:44.168,-4.875,16.2501
12:52:44.177,-6,13.3751
12:52:44.187,-7.0625,9
12:52:44.197,-8.6875,6.625
12:52:44.207,-9.125,2.4375
12:52:44.218,-10.0625,-0.125
12:52:44.227,-10.3125,-3.5625
12:52:44.262,-11.875,-7.1875
12:52:44.264,-13.8751,-10.0625
12:52:44.269,-13.5626,-13.4376
12:52:44.270,-15.3126,-15.1251
12:52:44.300,-15.5626,-20.0626
12:52:44.304,-16.8126,-22.0001
12:52:44.304,-18.1251,-24.8751
12:52:44.307,-18.6251,-28.0001
12:52:44.337,-19.1876,-29.0001
12:52:44.340,-19.5001,-31.9376
12:52:44.342,-20.1251,-32.5626
12:52:44.371,-20.0626,-34.8126
12:52:44.373,-20.8126,-36.1251
12:52:44.408,-21.2501,-35.6876
12:52:44.418,-21.3751,-38.5626
12:52:44.418,-21.1251,-37.0626
12:52:44.418,-20.8751,-37.1876
12:52:44.422,-19.6876,-32.0001
12:52:44.427,-16.4376,-25.6876
12:52:44.437,-13.5001,-15.3751
12:52:44.457,-9.75,-3.4375
12:52:44.460,-5.3125,11.125
12:52:44.473,-0.125,25.2501
12:52:44.488,5.25,38.6876
12:52:44.491,9.1875,50.6877
12:52:44.498,13,60.8752
12:52:44.508,15.0626,68.8753
12:52:44.517,17.1876,73.6253
12:52:44.529,17.1876,75.6253
12:52:44.537,16.9376,76.4378
12:52:44.548,16.8751,74.6253
12:52:44.557,16.1876,71.0628
12:52:44.569,14.6876,66.5003
12:52:44.577,13.125,63.9377
12:52:44.588,12.5,59.8127
12:52:44.597,11,54.9377
12:52:44.607,8.8125,49.7502
12:52:44.617,7.4375,45.6252
12:52:44.629,6.0625,40.0002
12:52:44.637,3.0625,34.0001
12:52:44.647,1.3125,28.2501
12:52:44.658,-0.25,24.3126
12:52:44.667,-3,18.1876
12:52:44.677,-3.5625,13.8126
12:52:44.689,-5.4375,10.125
12:52:44.697,-5.75,7.1875
12:52:44.707,-7.5,5.5
12:52:44.717,-6.9375,4.9375
12:52:44.727,-6.9375,5.4375
12:52:44.737,-6,6.4375
12:52:44.747,-6.1875,8.4375
12:52:44.758,-4.9375,10.1875
12:52:44.768,-4.4375,12.625
12:52:44.777,-3.5,14.9376
12:52:44.789,-3.0625,15.3751
12:52:44.797,-3.125,17.3751
12:52:44.807,-3,17.4376
12:52:44.817,-2.6875,16.2501
12:52:44.854,-2.6875,16.1876
12:52:44.856,-3.3125,14.9376
12:52:44.860,-3.25,14.5626
12:52:44.865,-3.8125,12.375
12:52:44.870,-4.4375,10.5625
12:52:44.877,-5.25,7.75
12:52:44.887,-5.75,5.9375
12:52:44.897,-6.6875,2.375
12:52:44.908,-8.0625,0.5
12:52:44.918,-9.125,-4.0625
12:52:44.927,-9.8125,-5.5625
12:52:44.938,-11.1875,-10.375
12:52:44.948,-12.1875,-12.125
12:52:44.958,-13.3126,-16.6876
12:52:44.968,-14.4376,-18.6251
12:52:44.977,-15.7501,-23.5626
12:52:44.996,-17.0001,-26.3751
12:52:44.998,-17.8751,-30.5001
12:52:45.030,-18.6876,-32.2501
12:52:45.033,-19.9376,-36.2501
12:52:45.034,-20.7501,-38.4376
12:52:45.038,-21.8751,-42.4377
12:52:45.068,-21.2501,-43.9377
12:52:45.071,-23.3126,-45.1252
12:52:45.072,-23.1876,-47.8127
12:52:45.097,-23.5001,-48.7502
12:52:45.101,-24.3126,-51.4377
12:52:45.102,-24.5626,-52.3127
12:52:45.109,-25.4376,-55.5002
12:52:45.117,-25.8126,-55.0002
12:52:45.151,-25.8126,-56.1252
12:52:45.152,-24.7501,-55.1252
12:52:45.155,-23.6876,-49.5002
12:52:45.161,-20.9376,-43.6252
12:52:45.170,-17.3751,-32.1876
12:52:45.180,-13.1251,-20.3751
12:52:45.187,-8.5625,-4.25
12:52:45.197,-2.625,9.75
12:52:45.208,2.8125,25.4376
12:52:45.217,7.5625,38.6876
12:52:45.228,11.875,51.6877
12:52:45.238,15.3751,59.7502
12:52:45.248,17.4376,65.8753
12:52:45.257,18.4376,67.5003
12:52:45.268,18.6251,68.8128
12:52:45.279,17.7501,66.8128
12:52:45.287,17.2501,65.1252
12:52:45.297,16.0001,61.6252
12:52:45.307,14.6876,58.8127
12:52:45.317,13.5001,54.0627
12:52:45.328,12.3125,50.0627
12:52:45.337,10.4375,46.0002
12:52:45.347,10.0625,41.9377
12:52:45.357,7.8125,37.7501
12:52:45.367,6.9375,33.9376
12:52:45.378,4.75,28.4376
12:52:45.387,3.375,24.6251
12:52:45.397,1.6875,20.9376
12:52:45.407,0.75,16.3751
12:52:45.417,-0.625,12.6875
12:52:45.427,-1.3125,8.5
12:52:45.437,-3.375,7.0625
12:52:45.447,-3.3125,4.0625
12:52:45.460,-4.25,4.3125
12:52:45.468,-3.375,3.9375
12:52:45.477,-3.8125,5.375
12:52:45.487,-2.4375,6
12:52:45.497,-2.25,8.1875
12:52:45.509,-0.9375,8.875
12:52:45.518,-1.5,12.3125
12:52:45.527,0,12.9375
12:52:45.537,0.25,14.9376
12:52:45.547,0.5625,14.0626
12:52:45.558,0.4375,14.6876
12:52:45.568,0.875,13.9376
12:52:45.584,0.4375,12.75
12:52:45.588,-0.8125,11.6875
12:52:45.597,-0.9375,8.8125
12:52:45.607,-1.375,7.5
12:52:45.617,-2.6875,5.0625
12:52:45.627,-3.25,1.5
12:52:45.638,-4.5625,-0.5
12:52:45.647,-5.75,-4.375
12:52:45.666,-6.9375,-6.8125
12:52:45.668,-7.625,-10.8125
12:52:45.731,-8.5625,-12.9375
12:52:45.731,-9.6875,-17.1251
12:52:45.733,-11.25,-19.9376
12:52:45.736,-11.5625,-22.8751
12:52:45.770,-12.75,-24.5001
12:52:45.770,-13.0625,-28.1251
12:52:45.770,-13.6876,-29.2501
12:52:45.772,-13.7501,-32.2501
12:52:45.800,-15.1876,-33.1876
12:52:45.832,-15.6251,-36.0001
12:52:45.832,-16.1876,-36.9376
12:52:45.832,-16.6876,-39.6877
12:52:45.833,-17.1876,-41.1252
12:52:45.835,-17.9376,-43.1877
12:52:45.842,-17.6876,-44.3752
12:52:45.843,-18.1251,-46.6252
12:52:45.849,-18.9376,-48.8752
12:52:45.857,-18.9376,-50.1877
12:52:45.867,-20.7501,-52.5627
12:52:45.877,-21.3751,-54.6252
12:52:45.887,-21.8751,-57.0002
12:52:45.897,-22.1876,-59.2502
12:52:45.907,-23.0001,-61.3752
12:52:45.917,-24.3751,-63.9377
12:52:45.927,-24.8126,-65.1878
12:52:45.938,-25.5626,-66.2503
12:52:45.948,-25.5001,-67.6878
12:52:45.958,-25.6251,-69.3753
12:52:45.968,-26.8126,-70.3128
12:52:45.977,-25.7501,-68.9378
12:52:45.987,-24.5626,-65.6877
12:52:45.997,-22.0001,-57.8127
12:52:46.007,-18.1251,-46.2502
12:52:46.017,-13.6251,-33.4376
12:52:46.027,-8.5,-18.3126
12:52:46.037,-3.6875,-3.5
12:52:46.047,1.75,11.6875
12:52:46.057,6.25,24.5626
12:52:46.067,10.8125,36.3126
12:52:46.077,14.1876,45.9377
12:52:46.087,16.2501,52.9377
12:52:46.097,18.5626,56.3127
12:52:46.132,18.8751,57.3752
12:52:46.134,17.8751,56.4377
12:52:46.137,17.1876,54.3127
12:52:46.142,16.6876,51.3127
12:52:46.153,14.6876,48.6877
12:52:46.162,14.1876,43.6252
12:52:46.172,11.875,39.9377
12:52:46.182,10,35.0626
12:52:46.192,8.6875,30.1876
12:52:46.202,7.125,26.2501
12:52:46.212,5.375,21.0001
12:52:46.222,3.625,17.5626
12:52:46.232,2.4375,12.75
12:52:46.242,0.3125,9
12:52:46.252,-0.8125,5.25
12:52:46.262,-1.6875,1.1875
12:52:46.272,-3.0625,-2.625
12:52:46.284,-4,-5.6875
12:52:46.292,-4.25,-7.125
12:52:46.302,-4.8125,-7.5
12:52:46.312,-4.8125,-7.25
12:52:46.322,-4.125,-6.6875
12:52:46.332,-3.1875,-5
12:52:46.342,-2.5,-2.6875
12:52:46.362,-1.8125,-1.4375
12:52:46.387,-1.1875,0.0625
12:52:46.391,-0.8125,1
12:52:46.393,-0.1875,2
12:52:46.424,0.6875,3.25
12:52:46.426,-0.6875,3.625
12:52:46.428,0,2.625
12:52:46.434,-0.5,2
12:52:46.438,-0.3125,0.75
12:52:46.472,-2.0625,-1.5
12:52:46.475,-2.5,-4.4375
12:52:46.478,-3.25,-6.375
12:52:46.481,-5.125,-10.125
12:52:46.510,-5.375,-12.9375
12:52:46.512,-7.0625,-14.6876
12:52:46.514,-7.375,-18.8126
12:52:46.521,-8.4375,-21.0001
12:52:46.531,-7.375,-20.8751
12:52:46.537,-8.1875,-24.5001
12:52:46.547,-8.125,-25.8126
12:52:46.557,-9.4375,-28.5001
12:52:46.567,-10.0625,-30.9376
12:52:46.577,-11.6875,-33.1876
12:52:46.587,-12.625,-36.0626
12:52:46.597,-13.3751,-36.9376
12:52:46.607,-13.8751,-40.7502
12:52:46.617,-13.8751,-42.8752
12:52:46.627,-15.4376,-45.1252
12:52:46.637,-16.1251,-47.5002
12:52:46.647,-16.5626,-49.5002
12:52:46.658,-17.6876,-52.3752
12:52:46.667,-18.4376,-54.2502
12:52:46.677,-19.3126,-55.4377
12:52:46.688,-19.9376,-57.4377
12:52:46.698,-19.3751,-59.6877
12:52:46.713,-20.6876,-60.2502
12:52:46.717,-20.5001,-63.0002
12:52:46.727,-21.0001,-62.7502
12:52:46.737,-20.8126,-64.7502
12:52:46.747,-21.4376,-64.3752
12:52:46.757,-21.6251,-66.5003
12:52:46.767,-22.3126,-65.8753
12:52:46.777,-21.4376,-67.8128
12:52:46.787,-22.0001,-67.3753
12:52:46.797,-20.7501,-66.2503
12:52:46.807,-20.0001,-61.1252
12:52:46.817,-17.0626,-55.0002
12:52:46.827,-13.5001,-44.2502
12:52:46.837,-10,-33.9376
12:52:46.847,-6.4375,-20.3751
12:52:46.857,-1.25,-9
12:52:46.867,2,2.875
12:52:46.877,5.75,12.25
12:52:46.887,8.375,21.0626
12:52:46.897,10.6875,25.5626
12:52:46.907,11.625,30.3751
12:52:46.917,12.875,31.1251
12:52:46.928,12.5625,31.3126
12:52:46.937,11.1875,29.0626
12:52:46.947,11,26.9376
12:52:46.958,9.625,23.3751
12:52:46.967,9.25,19.5626
12:52:46.986,7.3125,16.0001
12:52:46.988,6.0625,12.1875
12:52:47.003,5,8
12:52:47.010,3.0625,4.4375
12:52:47.017,1.6875,-0.125
12:52:47.027,0.125,-3.625
12:52:47.037,-0.625,-8.3125
12:52:47.047,-2.6875,-11.625
12:52:47.064,-4,-16.1251
12:52:47.068,-5.25,-19.4376
12:52:47.095,-5.625,-22.7501
12:52:47.097,-7,-25.3751
12:52:47.103,-7.1875,-27.1251
12:52:47.110,-8,-27.5626
12:52:47.141,-7.375,-28.1251
12:52:47.142,-7.375,-27.1251
12:52:47.145,-7.25,-25.6876
12:52:47.150,-6.875,-24.2501
12:52:47.178,-5.875,-22.7501
12:52:47.181,-4.4375,-19.7501
12:52:47.185,-4.25,-18.0001
12:52:47.211,-4.4375,-17.0626
12:52:47.212,-3.9375,-16.6251
12:52:47.214,-2.75,-14.6251
12:52:47.218,-3.8125,-13.1876
12:52:47.250,-2.6875,-14.1251
12:52:47.252,-3.3125,-14.1251
12:52:47.257,-3.8125,-16.4376
12:52:47.262,-3.75,-17.4376
12:52:47.269,-3.8125,-18.8751
12:52:47.278,-5.3125,-19.6876
12:52:47.287,-6.125,-23.0626
12:52:47.297,-5.9375,-24.6876
12:52:47.307,-8.125,-27.0626
12:52:47.317,-8.0625,-30.6876
12:52:47.327,-8.5625,-31.3751
12:52:47.337,-10.0625,-34.8126
12:52:47.347,-10.5,-37.3126
12:52:47.357,-11.8125,-40.0627
12:52:47.369,-12.9375,-42.6877
12:52:47.377,-13.4376,-45.8127
12:52:47.387,-14.3751,-48.5627
12:52:47.413,-15.2501,-50.3127
12:52:47.416,-15.6251,-52.2502
12:52:47.418,-16.1251,-53.8127
12:52:47.427,-16.7501,-56.1252
12:52:47.437,-18.0001,-57.6877
12:52:47.448,-18.1251,-59.3127
12:52:47.464,-18.6251,-61.3752
12:52:47.469,-19.4376,-62.0627
12:52:47.477,-19.6251,-63.6877
12:52:47.488,-20.0001,-65.2503
12:52:47.497,-20.5626,-66.0628
12:52:47.507,-20.0001,-65.8128
12:52:47.517,-19.2501,-63.0627
12:52:47.527,-17.0001,-57.7502
12:52:47.537,-14.8751,-49.0627
12:52:47.547,-11.125,-39.9377
12:52:47.557,-8.1875,-29.1251
12:52:47.567,-3.625,-17.6876
12:52:47.577,-0.125,-6.625
12:52:47.587,3.4375,4.1875
12:52:47.597,7,12.25
12:52:47.607,9.5625,19.6876
12:52:47.617,10.875,23.3126
12:52:47.628,12.25,26.7501
12:52:47.637,12.5625,27.7501
12:52:47.647,12.8125,27.0626
12:52:47.657,11.5,24.9376
12:52:47.667,11.875,22.7501
12:52:47.677,10.125,20.1876
12:52:47.687,9.5625,16.9376
12:52:47.698,7.8125,12.4375
12:52:47.713,6.4375,9.625
12:52:47.722,6.0625,5.8125
12:52:47.733,4.25,2
12:52:47.742,2.6875,-1.5625
12:52:47.752,1.4375,-5.25
12:52:47.762,0.4375,-10.0625
12:52:47.772,-1.9375,-14.9376
12:52:47.782,-2.9375,-17.6251
12:52:47.792,-4,-21.2501
12:52:47.802,-5.8125,-23.8751
12:52:47.812,-5.75,-26.5626
12:52:47.822,-5.9375,-27.1251
12:52:47.838,-6,-27.8751
12:52:47.844,-6.3125,-27.6251
12:52:47.853,-6.3125,-26.9376
12:52:47.862,-5.6875,-25.5626
12:52:47.872,-5.375,-24.0626
12:52:47.897,-5.125,-22.2501
12:52:47.900,-4.625,-22.2501
12:52:47.933,-4.4375,-21.6876
12:52:47.936,-4.6875,-19.6251
12:52:47.937,-3.75,-19.9376
12:52:47.940,-4.5,-20.1876
12:52:47.947,-5,-22.1251
12:52:47.953,-3.9375,-21.0626
12:52:47.980,-5.6875,-22.0001
12:52:47.982,-5.4375,-24.1876
12:52:47.984,-5.75,-25.7501
12:52:47.992,-6.625,-27.5001
12:52:48.024,-7.125,-30.0626
12:52:48.029,-8.125,-31.4376
12:52:48.029,-8.125,-34.1251
12:52:48.032,-8.8125,-35.6876
12:52:48.066,-10.625,-37.2501
12:52:48.068,-9.9375,-39.8127
12:52:48.071,-11.125,-41.3752
12:52:48.076,-11.375,-43.6877
12:52:48.083,-11.375,-45.0002
12:52:48.092,-12.6875,-47.0627
12:52:48.102,-12.875,-48.8752
12:52:48.112,-13.8126,-49.7502
12:52:48.122,-13.3126,-52.6877
12:52:48.132,-14.0626,-53.5627
12:52:48.142,-14.8751,-55.6252
12:52:48.152,-15.2501,-57.2502
12:52:48.162,-16.0626,-58.5002
12:52:48.172,-16.1876,-59.8752
12:52:48.182,-17.0001,-60.5002
12:52:48.192,-16.5626,-62.5002
12:52:48.202,-18.2501,-64.0002
12:52:48.216,-18.1876,-66.0003
12:52:48.222,-18.2501,-67.7503
12:52:48.232,-19.1251,-68.0003
12:52:48.242,-19.4376,-70.6878
12:52:48.252,-20.1251,-70.1253
12:52:48.262,-19.6251,-72.0003
12:52:48.280,-20.5626,-72.5003
12:52:48.287,-20.4376,-72.8128
12:52:48.306,-20.9376,-74.3128
12:52:48.306,-19.9376,-72.8753
12:52:48.320,-18.8126,-71.5003
12:52:48.325,-17.2501,-65.5002
12:52:48.332,-14.3751,-56.3752
12:52:48.342,-11.4375,-45.8752
12:52:48.360,-7,-34.0626
12:52:48.363,-3.4375,-21.1876
12:52:48.378,0.875,-7.875
12:52:48.386,5.375,3.9375
12:52:48.392,9.3125,13.6251
12:52:48.402,12.3125,24.0001
12:52:48.412,14.6251,29.2501
12:52:48.422,16.7501,33.3126
12:52:48.432,18.0626,36.4376
12:52:48.442,18.3126,37.1251
12:52:48.452,18.0626,37.0001
12:52:48.462,17.6876,34.7501
12:52:48.472,17.4376,32.6251
12:52:48.482,16.1251,30.1251
12:52:48.492,15.0001,25.6251
12:52:48.502,14.4376,24.3126
12:52:48.512,13.7501,20.2501
12:52:48.522,12.8125,18.1251
12:52:48.532,11.5,15.2501
12:52:48.542,11.125,12.25
12:52:48.553,10.75,9.75
12:52:48.562,10.9375,9.9375
12:52:48.572,11.5625,8.3125
12:52:48.582,12.875,9.25
12:52:48.592,16.3751,12.5625
12:52:48.629,19.2501,15.4376
12:52:48.633,20.1251,17.1251
12:52:48.633,22.6876,19.5626
12:52:48.637,24.1876,22.8126
12:52:48.642,25.0626,24.6876
12:52:48.684,25.5001,27.2501
12:52:48.686,29.0001,32.0001
12:52:48.688,30.5626,37.0001
12:52:48.703,30.5626,40.1252
12:52:48.709,32.0001,43.6252
12:52:48.709,33.0626,46.3127
12:52:48.715,34.1251,49.3127
12:52:48.741,36.6251,53.6252
12:52:48.744,36.8751,56.9377
12:52:48.745,36.8751,58.3752
12:52:48.752,37.0001,57.6877
12:52:48.779,36.1876,58.1877
12:52:48.781,36.3126,57.4377
12:52:48.784,35.6251,54.7502
12:52:48.793,32.2501,50.8752
12:52:48.802,29.7501,46.0627
12:52:48.812,28.3751,41.2502
12:52:48.822,27.4376,38.2501
12:52:48.832,26.9376,35.1251
12:52:48.842,24.0001,30.5626
12:52:48.852,21.3751,25.5626
12:52:48.862,20.1251,21.2501
12:52:48.872,18.3751,17.1876
12:52:48.882,16.8126,13.0625
12:52:48.892,14.4376,8.125
12:52:48.902,12.1875,3.75
12:52:48.912,10.875,-0.4375
12:52:48.922,9.75,-3.875
12:52:48.932,8.6875,-6.375
12:52:48.942,7.5,-9.3125
12:52:48.952,6.25,-12.5625
12:52:48.967,5.5,-13.6251
12:52:48.972,4.75,-17.6251
12:52:48.982,2.8125,-20.8751
12:52:48.992,0.8125,-23.9376
12:52:49.003,-0.5,-25.2501
12:52:49.012,-2.0625,-27.8751
12:52:49.022,-3.3125,-32.0626
12:52:49.033,-4.5,-35.1251
12:52:49.042,-7.0625,-37.9376
12:52:49.052,-7.8125,-40.6252
12:52:49.062,-8.9375,-41.5002
12:52:49.073,-10.375,-44.6252
12:52:49.082,-11.75,-47.4377
12:52:49.092,-13.1251,-50.3752
12:52:49.102,-13.8126,-52.3127
12:52:49.112,-14.5626,-52.3752
12:52:49.122,-13.8751,-53.9377
12:52:49.132,-13.6876,-52.0002
12:52:49.142,-12.4375,-46.5002
12:52:49.152,-12.0625,-41.6877
12:52:49.163,-9.375,-33.8751
12:52:49.172,-5.9375,-23.8751
12:52:49.182,-2.0625,-10.6875
12:52:49.192,2.5,-0.25
12:52:49.202,7.125,13.5626
12:52:49.213,12.1875,23.6251
12:52:49.222,15.5626,33.1251
12:52:49.232,18.5626,38.9376
12:52:49.242,21.1251,44.2502
12:52:49.252,23.6251,48.7502
12:52:49.262,25.3751,51.0002
12:52:49.272,25.5626,51.1252
12:52:49.282,25.8126,49.8127
12:52:49.292,25.1251,48.5627
12:52:49.302,25.9376,46.1877
12:52:49.312,25.0626,44.8127
12:52:49.322,25.1251,41.3752
12:52:49.332,24.8751,40.3752
12:52:49.342,23.3751,35.7501
12:52:49.352,22.1251,34.1876
12:52:49.373,20.9376,30.3751
12:52:49.376,19.8751,27.5626
12:52:49.385,19.4376,23.9376
12:52:49.413,18.8126,22.2501
12:52:49.416,18.2501,19.6251
12:52:49.418,17.1251,17.7501
12:52:49.423,17.8126,17.0626
12:52:49.456,16.8126,15.9376
12:52:49.459,15.4376,14.6876
12:52:49.461,16.2501,13.6876
12:52:49.468,15.4376,13.6251
12:52:49.473,16.3126,13.8126
12:52:49.506,16.6251,16.2501
12:52:49.508,15.8126,17.5001
12:52:49.511,17.2501,19.5626
12:52:49.513,16.3751,21.0001
12:52:49.545,16.5001,22.2501
12:52:49.547,16.3751,22.1876
12:52:49.550,14.6876,23.7501
12:52:49.556,15.3126,23.3751
12:52:49.564,14.6876,24.3126
12:52:49.572,14.8751,24.3751
12:52:49.582,15.1876,24.3126
12:52:49.599,14.3751,23.2501
12:52:49.613,14.0001,23.0626
12:52:49.628,12.875,21.0626
12:52:49.630,12.125,19.1251
12:52:49.645,10.5625,15.8126
12:52:49.649,8.3125,11.75
12:52:49.655,7.3125,8.1875
12:52:49.669,5.125,4.4375
12:52:49.672,3.375,0.625
12:52:49.688,1.125,-2.5
12:52:49.703,-1.125,-7.375
12:52:49.706,-1.75,-11.25
12:52:49.721,-3.4375,-15.0626
12:52:49.724,-5.8125,-19.2501
12:52:49.732,-6.875,-22.3751
12:52:49.742,-9.6875,-27.0626
12:52:49.753,-11.1875,-30.1876
12:52:49.763,-13.2501,-33.8751
12:52:49.772,-15.1251,-38.3751
12:52:49.782,-16.0626,-42.0002
12:52:49.792,-18.6876,-46.3752
12:52:49.802,-19.8126,-49.7502
12:52:49.812,-22.0001,-52.0002
12:52:49.822,-23.2501,-55.5627
12:52:49.832,-23.8751,-57.8752
12:52:49.842,-25.3751,-59.8752
12:52:49.853,-25.6251,-61.6252
12:52:49.862,-24.9376,-59.1252
12:52:49.873,-24.6251,-58.3127
12:52:49.882,-24.1251,-54.8127
12:52:49.892,-21.4376,-46.0627
12:52:49.902,-17.8126,-36.8751
12:52:49.912,-13.6876,-25.3751
12:52:49.922,-9.75,-15.0626
12:52:49.932,-5.8125,-3
12:52:49.942,-1.9375,5.4375
12:52:49.973,0.4375,14.8126
12:52:49.976,2.875,19.6251
12:52:49.978,4,22.6876
12:52:49.983,5.1875,26.0001
12:52:49.992,7.375,28.5001
12:52:50.002,7.625,29.6876
12:52:50.012,9.3125,30.4376
12:52:50.023,9.75,31.2501
12:52:50.032,10.4375,29.5626
12:52:50.042,9.75,29.1251
12:52:50.077,10.625,26.9376
12:52:50.078,10.3125,25.6876
12:52:50.082,10.25,22.1876
12:52:50.083,9.25,21.2501
12:52:50.122,9.125,17.4376
12:52:50.122,9.125,16.0626
12:52:50.125,9.3125,12.8125
12:52:50.127,8.6875,9.75
12:52:50.134,9.125,7.4375
12:52:50.166,8.125,4.6875
12:52:50.169,7.75,2.875
12:52:50.171,7.8125,0.9375
12:52:50.178,7.875,-0.125
12:52:50.189,7.5,0.8125
12:52:50.194,8.1875,1.125
12:52:50.227,8.875,3
12:52:50.229,10.1875,4
12:52:50.231,10.6875,6.5625
12:52:50.235,11.3125,7.875
12:52:50.243,11.25,11.0625
12:52:50.254,12.9375,12.25
12:52:50.262,12.9375,15.6251
12:52:50.272,13.9376,16.8126
12:52:50.282,14.4376,18.4376
12:52:50.294,14.0001,19.5001
12:52:50.302,14.7501,20.1876
12:52:50.312,13.6251,19.4376
12:52:50.322,12.8125,17.6251
12:52:50.332,11.5625,16.1251
12:52:50.344,10.875,14.3126
12:52:50.352,9.4375,13.1876
12:52:50.362,8.5625,10.75
12:52:50.378,7.5625,9.0625
12:52:50.387,7.625,6.9375
12:52:50.397,5.25,4.375
12:52:50.407,4.25,1.3125
12:52:50.417,3,-1.8125
12:52:50.427,1.5,-4.1875
12:52:50.437,0.9375,-7.1875
12:52:50.447,-0.6875,-9.625
12:52:50.457,-1,-12.3125
12:52:50.467,-2.875,-15.3126
12:52:50.477,-5.625,-19.0626
12:52:50.487,-6.875,-22.9376
12:52:50.497,-9.25,-28.0001
12:52:50.507,-12.75,-32.1876
12:52:50.517,-14.2501,-37.0001
12:52:50.527,-16.5626,-41.3127
12:52:50.537,-20.1876,-47.4377
12:52:50.547,-21.8126,-51.0002
12:52:50.557,-23.1251,-53.5627
12:52:50.567,-23.9376,-55.7502
12:52:50.577,-23.5001,-53.5627
12:52:50.587,-22.4376,-49.5002
12:52:50.597,-19.2501,-39.0626
12:52:50.607,-16.6251,-29.7501
12:52:50.617,-12.5,-17.9376
12:52:50.627,-10,-8.875
12:52:50.637,-6.1875,3.5
12:52:50.647,-1.375,15.6251
12:52:50.657,3.25,26.0001
12:52:50.667,6.3125,34.3751
12:52:50.677,8.1875,39.6252
12:52:50.687,9.125,44.1877
12:52:50.697,9.9375,45.0002
12:52:50.707,10.875,47.0002
12:52:50.717,11,45.5627
12:52:50.727,10,43.5002
12:52:50.737,9.9375,41.5002
12:52:50.747,8.5625,37.5626
12:52:50.757,6.875,34.8751
12:52:50.767,5.5625,28.6876
12:52:50.777,4,23.0626
12:52:50.788,2.3125,19.0626
12:52:50.817,0.9375,14.5626
12:52:50.821,-0.5,10.5625
12:52:50.822,-0.75,7.125
12:52:50.829,-1.0625,3.8125
12:52:50.856,-0.875,2.1875
12:52:50.858,0.375,1.5625
12:52:50.862,1.375,1.25
12:52:50.868,1.5625,1.0625
12:52:50.877,1.6875,-0.5625
12:52:50.912,1.6875,-0.8125
12:52:50.981,3.8125,2.125
12:52:50.982,5.4375,4.25
12:52:50.997,7.875,6.75
12:52:51.010,9.6875,10.25
12:52:51.011,10,13.1876
12:52:51.011,10.9375,15.5626
12:52:51.012,11.375,16.2501
12:52:51.027,11.6875,18.6876
12:52:51.042,13.6251,19.6876
12:52:51.045,12.8125,22.0626
12:52:51.059,13.8751,21.1251
12:52:51.062,13.3126,21.6251
12:52:51.067,14.0001,22.1876
12:52:51.077,14.6876,21.3751
12:52:51.087,14.8751,22.7501
12:52:51.098,15.7501,22.4376
12:52:51.107,14.6251,21.3126
12:52:51.117,14.7501,19.5001
12:52:51.127,12.75,17.3126
12:52:51.137,11,14.2501
12:52:51.147,10.375,11.625
12:52:51.157,8.75,9.4375
12:52:51.167,3.1875,-6
12:52:51.177,2.5625,-8.8125
12:52:51.187,0.75,-11.875
12:52:51.197,-1.0625,-14.9376
12:52:51.207,-2.5625,-17.5001
12:52:51.217,-3.4375,-21.5626
12:52:51.227,-4.9375,-23.6251
12:52:51.252,-6.8125,-28.0626
12:52:51.255,-8.375,-30.9376
12:52:51.257,-9.6875,-33.5626
12:52:51.269,-11.6875,-36.1251
12:52:51.277,-13.4376,-39.7502
12:52:51.287,-14.4376,-42.0002
12:52:51.297,-14.8751,-40.8127
12:52:51.307,-13.9376,-36.4376
12:52:51.317,-11.5,-29.8751
12:52:51.327,-9.375,-20.8751
12:52:51.338,-6.25,-9.3125
12:52:51.347,-2.9375,1.5
12:52:51.357,0.1875,11.875
12:52:51.367,2.9375,22.3126
12:52:51.380,7.375,32.5001
12:52:51.387,10.5625,41.5627
12:52:51.397,13.3751,49.2502
12:52:51.407,16.6251,55.6252
12:52:51.418,18.0001,59.3127
12:52:51.428,18.5001,59.5627
12:52:51.437,17.0001,58.3127
12:52:51.447,16.6876,55.5002
12:52:51.457,15.4376,53.0627
12:52:51.467,14.5001,48.9377
12:52:51.477,13,45.0002
12:52:51.488,12.1875,41.5002
12:52:51.513,11.125,38.1251
12:52:51.517,10,34.8751
12:52:51.519,9.75,29.9376
12:52:51.551,7,24.0001
12:52:51.552,4.5625,19.3751
12:52:51.555,2.5625,14.1251
12:52:51.559,1.25,9.375
12:52:51.587,0.375,5.875
12:52:51.588,0.4375,4
12:52:51.591,1.25,2.9375
12:52:51.600,2.5,4.4375
12:52:51.612,4.5625,6.5625
12:52:51.617,6.0625,7.8125
12:52:51.652,8.4375,9.9375
12:52:51.656,9.0625,12.5625
12:52:51.657,9.625,14.8126
12:52:51.662,11.875,18.2501
12:52:51.667,13.8126,21.1251
12:52:51.678,15.0001,23.6251
12:52:51.687,15.7501,25.9376
12:52:51.697,17.7501,27.9376
12:52:51.707,17.4376,29.5626
12:52:51.719,18.6876,30.0001
12:52:51.727,18.1876,30.1876
12:52:51.737,19.1876,30.5001
12:52:51.747,19.1251,30.3751
12:52:51.764,19.1876,30.6251
12:52:51.768,20.0626,30.0001
12:52:51.777,19.3751,28.5626
12:52:51.787,18.8126,27.4376
12:52:51.797,18.1876,25.8751
12:52:51.807,16.8751,23.0626
12:52:51.817,16.2501,20.8751
12:52:51.827,14.2501,18.0001
12:52:51.837,12.875,14.5001
12:52:51.847,11.8125,12.0625
12:52:51.857,10.625,9.375
12:52:51.867,9.9375,7.0625
12:52:51.877,8,3.5625
12:52:51.887,6.3125,1.625
12:52:51.897,4.625,-2.25
12:52:51.907,3.25,-5.3125
12:52:51.917,2.25,-7.6875
12:52:51.930,1,-10.4375
12:52:51.937,-0.6875,-12.625
12:52:51.948,-1.625,-16.2501
12:52:51.957,-3.8125,-18.8126
12:52:51.967,-5.1875,-23.3126
12:52:51.977,-7.9375,-27.5626
12:52:51.987,-10.0625,-30.7501
12:52:51.997,-11.875,-36.3751
12:52:52.007,-13.6876,-38.6251
12:52:52.017,-15.1876,-43.0627
12:52:52.027,-16.3751,-46.9377
12:52:52.037,-18.3126,-49.6252
12:52:52.047,-19.4376,-52.2502
12:52:52.057,-21.3751,-54.4377
12:52:52.067,-22.1251,-55.1252
12:52:52.077,-21.4376,-53.3127
12:52:52.087,-19.5626,-47.0002
12:52:52.097,-16.8126,-38.5001
12:52:52.107,-12.5625,-26.5001
12:52:52.117,-8.8125,-15.2501
12:52:52.127,-4.0625,-2.6875
12:52:52.137,-0.4375,12.3125
12:52:52.147,5.0625,23.6876
12:52:52.157,8.3125,33.9376
12:52:52.167,12.25,43.5627
12:52:52.177,14.4376,48.8752
12:52:52.187,16.7501,54.0627
12:52:52.198,17.6876,56.3752
12:52:52.207,17.9376,55.7502
12:52:52.217,18.3126,56.1252
12:52:52.227,17.1876,52.2502
12:52:52.237,16.6876,51.3127
12:52:52.247,16.3751,47.6252
12:52:52.257,15.3126,45.0002
12:52:52.352,14.2501,39.0627
12:52:52.353,11.625,33.6251
12:52:52.357,9.875,28.5626
12:52:52.358,8.25,24.1251
12:52:52.358,7.5,21.0001
12:52:52.389,7.75,17.4376
12:52:52.390,6.125,13.8126
12:52:52.417,7,12.6875
12:52:52.418,7.3125,11.1875
12:52:52.420,8.125,10.9375
12:52:52.423,7.75,9.875
12:52:52.427,8.375,8.5
12:52:52.439,7.875,8.6875
12:52:52.442,9.9375,10.3125
12:52:52.452,10.6875,11.625
12:52:52.462,12.4375,14.8126
12:52:52.472,12.4375,16.3751
12:52:52.482,13,18.9376
12:52:52.492,14.0626,21.5626
12:52:52.502,16.1876,24.8126
12:52:52.534,16.2501,26.0001
12:52:52.536,20.4376,36.3126
12:52:52.538,20.6876,35.6876
12:52:52.546,20.8751,36.1251
12:52:52.554,20.0626,35.3751
12:52:52.562,20.1251,33.6876
12:52:52.573,19.8751,32.3751
12:52:52.582,19.0626,30.5001
12:52:52.592,17.6876,28.6251
12:52:52.602,16.6876,26.1876
12:52:52.612,15.9376,22.5626
12:52:52.623,14.1876,20.1876
12:52:52.632,12.875,15.3751
12:52:52.642,10.875,11.6875
12:52:52.652,9.375,8.625
12:52:52.662,8,4.5625
12:52:52.672,6.25,1.0625
12:52:52.682,5.0625,-2.5
12:52:52.692,3.3125,-5.1875
12:52:52.702,2.5,-8.625
12:52:52.712,1.8125,-9.75
12:52:52.722,0.375,-13.8751
12:52:52.732,-1,-15.3126
12:52:52.742,-3,-20.3126
12:52:52.752,-5.3125,-22.8751
12:52:52.762,-7.1875,-28.2501
12:52:52.772,-9,-30.2501
12:52:52.782,-9.875,-32.0626
12:52:52.792,-10.3125,-30.6251
12:52:52.802,-9.625,-26.7501
12:52:52.812,-7.25,-18.9376
12:52:52.822,-4.125,-8.5
12:52:52.832,-1.25,1.1875
12:52:52.842,2.6875,13.1251
12:52:52.852,6.625,24.3751
12:52:52.862,10.5,34.2501
12:52:52.872,14.3751,44.7502
12:52:52.888,17.7501,53.8127
12:52:52.892,19.6876,60.8127
12:52:52.902,21.2501,63.0627
12:52:52.912,21.8751,65.2502
12:52:52.922,21.6251,65.0628
12:52:52.932,21.6251,62.8752
12:52:52.942,20.8751,60.1252
12:52:52.952,19.0001,56.1877
12:52:52.962,17.6876,51.7502
12:52:52.972,16.0001,47.9377
12:52:52.982,14.1876,42.2502
12:52:52.996,12.6875,37.1251
12:52:53.002,9.875,31.7501
12:52:53.032,8,25.4376
12:52:53.035,5.125,19.8126
12:52:53.037,3.5625,13.8126
12:52:53.045,2.0625,10.3125
12:52:53.073,2.0625,6.6875
12:52:53.075,1.875,4.1875
12:52:53.077,1.4375,2.5
12:52:53.082,3.25,3.5625
12:52:53.117,3.4375,3.625
12:52:53.120,4.8125,5.5
12:52:53.122,6.6875,7.75
12:52:53.124,7.5,9.75
12:52:53.162,8.875,13.5001
12:52:53.166,10.75,16.0626
12:52:53.166,12.875,19.6876
12:52:53.170,14.4376,22.5626
12:52:53.173,15.3126,25.6876
12:52:53.182,16.6876,27.9376
12:52:53.192,17.3751,29.0001
12:52:53.204,18.1251,30.8751
12:52:53.213,19.5626,32.5626
12:52:53.222,19.8126,31.9376
12:52:53.232,19.6251,32.0001
12:52:53.242,20.3751,32.0626
12:52:53.252,21.3751,31.9376
12:52:53.263,22.3126,33.5626
12:52:53.272,24.5626,34.0001
12:52:53.282,24.3126,33.3751
12:52:53.293,23.1876,32.0001
12:52:53.302,22.5001,29.6876
12:52:53.312,20.6876,26.6251
12:52:53.323,18.8751,23.1876
12:52:53.332,17.9376,19.8126
12:52:53.342,16.3126,15.5626
12:52:53.352,14.1251,11.5625
12:52:53.362,13,9.8125
12:52:53.372,11.25,4.25
12:52:53.383,9.5625,2.1875
12:52:53.392,8.5625,-1.25
12:52:53.402,7.5,-3.5625
12:52:53.412,6.9375,-6.25
12:52:53.422,6.1875,-7.5
12:52:53.432,5.8125,-9.25
12:52:53.442,3.5,-11.5
12:52:53.452,1.75,-13.0625
12:52:53.462,0.75,-17.5626
12:52:53.472,-0.75,-19.4376
12:52:53.482,-0.8125,-17.7501
12:52:53.492,-1.1875,-16.5001
12:52:53.502,-0.9375,-11.6875
12:52:53.512,1.125,-4.125
12:52:53.522,3.625,3.9375
12:52:53.532,5.625,13.8126
12:52:53.542,9.3125,24.6876
12:52:53.553,12.625,35.0001
12:52:53.562,15.6876,44.6877
12:52:53.573,20.3126,54.6877
12:52:53.582,22.1876,62.3752
12:52:53.592,23.7501,67.9378
12:52:53.602,25.1876,70.7503
12:52:53.612,25.0626,70.1253
12:52:53.622,24.4376,69.9378
12:52:53.632,23.6876,66.6253
12:52:53.665,22.8126,63.7502
12:52:53.668,20.8126,59.7502
12:52:53.671,19.1251,55.1252
12:52:53.672,16.5626,48.8127
12:52:53.810,14.6876,43.6252
12:52:53.836,12.0625,38.7501
12:52:53.836,10.625,34.1251
12:52:53.840,8.4375,29.2501
12:52:53.840,5.875,24.2501
12:52:53.846,4.6875,18.5626
12:52:53.849,2.25,14.7501
12:52:53.849,2.25,10.6875
12:52:53.852,1.125,8.75
12:52:53.862,1.1875,5.375
12:52:53.872,0.875,5.5
12:52:53.882,1.6875,3.6875
12:52:53.892,1.8125,4.9375
12:52:53.902,2.875,4.9375
12:52:53.912,4.1875,5.8125
12:52:53.922,5.125,9.75
12:52:53.932,7.1875,11.6875
12:52:53.942,8.9375,15.0001
12:52:53.952,10.4375,17.3126
12:52:53.962,11.25,21.0001
12:52:53.972,12.6875,23.0001
12:52:53.982,14.0001,24.4376
12:52:53.992,14.8751,27.0001
12:52:54.002,16.2501,28.0626
12:52:54.012,21.0626,26.4376
12:52:54.022,20.0626,22.9376
12:52:54.032,19.5626,22.9376
12:52:54.042,18.1876,19.1251
12:52:54.052,18.2501,17.2501
12:52:54.062,16.9376,14.4376
12:52:54.072,16.2501,13.4376
12:52:54.082,15.0626,10.125
12:52:54.092,13.5626,7.75
12:52:54.103,12.75,6
12:52:54.112,12.6875,3.0625
12:52:54.122,10.375,0.625
12:52:54.132,8.4375,-2.625
12:52:54.142,7.3125,-5.875
12:52:54.152,6.1875,-7.75
12:52:54.162,5.5,-10.5
12:52:54.172,4.4375,-11.5625
12:52:54.182,4.5,-12.4375
12:52:54.192,3.3125,-14.8751
12:52:54.202,2.4375,-14.3751
12:52:54.212,3.4375,-14.0626
12:52:54.222,5.125,-9.9375
12:52:54.232,7.8125,-1.5625
12:52:54.242,11.3125,7.8125
12:52:54.252,14.8751,19.9376
12:52:54.262,19.1876,34.3126
12:52:54.272,24.3126,47.0627
12:52:54.282,29.8126,60.3127
12:52:54.292,34.4376,74.3753
12:52:54.302,39.3126,85.7503
12:52:54.314,41.9377,94.4379
12:52:54.322,45.0627,101.7504
12:52:54.332,47.4377,105.0004
12:52:54.342,47.1877,108.5629
12:52:54.352,47.3752,107.3129
12:52:54.362,46.6252,104.8754
12:52:54.371,45.6877,103.3754
12:52:54.382,45.1877,99.8129
12:52:54.398,41.8127,94.2504
12:52:54.402,39.8127,90.1253
12:52:54.413,38.6251,85.3128
12:52:54.422,36.3126,80.4378
12:52:54.431,35.0001,76.4378
12:52:54.448,31.8751,69.0003
12:52:54.452,29.3751,63.8752
12:52:54.482,26.5626,57.6877
12:52:54.484,24.0626,51.6252
12:52:54.486,21.6876,46.5002
12:52:54.492,19.6251,40.6877
12:52:54.518,17.0001,36.0001
12:52:54.522,15.8126,32.9376
12:52:54.523,14.3126,28.1876
12:52:54.558,12.5625,26.3126
12:52:54.558,11.25,23.1876
12:52:54.562,9.125,22.4376
12:52:54.567,9,19.9376
12:52:54.596,7.375,19.8751
12:52:54.600,6.5625,17.6876
12:52:54.601,5.625,17.8751
12:52:54.607,4.4375,15.6876
12:52:54.624,3.25,15.1251
12:52:54.627,2.375,12.75
12:52:54.635,0.75,11.5
12:52:54.647,-0.125,8.625
12:52:54.657,-2.0625,7.1875
12:52:54.667,-3.0625,3.125
12:52:54.677,-5.375,0.0625
12:52:54.687,-6.625,-4.5625
12:52:54.697,-9.4375,-8.3125
12:52:54.707,-10.8125,-12.6875
12:52:54.717,-13.5626,-17.3126
12:52:54.727,-16.7501,-22.7501
12:52:54.737,-17.8126,-28.4376
12:52:54.747,-19.8126,-33.3126
12:52:54.757,-21.6876,-37.0626
12:52:54.773,-23.1251,-41.1252
12:52:54.777,-26.1251,-46.1877
12:52:54.787,-27.8126,-48.7502
12:52:54.800,-27.9376,-52.1877
12:52:54.807,-29.0626,-55.9377
12:52:54.817,-29.7501,-57.0627
12:52:54.826,-29.7501,-59.7502
12:52:54.837,-29.5001,-59.6252
12:52:54.847,-28.6251,-59.8127
12:52:54.857,-29.1876,-60.7502
12:52:54.867,-28.1876,-62.0002
12:52:54.877,-28.8126,-62.1252
12:52:54.887,-28.4376,-63.1252
12:52:54.897,-28.3126,-63.5627
12:52:54.907,-27.8126,-64.6252
12:52:54.917,-29.4376,-66.0628
12:52:54.928,-29.8751,-69.6253
12:52:54.937,-32.5626,-72.8753
12:52:54.948,-33.8751,-76.5003
12:52:54.957,-35.3751,-79.3753
12:52:54.968,-36.8126,-81.7503
12:52:54.987,-38.7501,-85.5628
12:52:54.994,-40.7502,-89.0003
12:52:55.010,-42.8127,-92.0004
12:52:55.012,-44.3752,-95.6879
12:52:55.027,-44.6877,-98.1879
12:52:55.029,-46.8752,-100.1254
12:52:55.038,-47.6252,-102.6254
12:52:55.047,-48.0627,-102.8754
12:52:55.057,-48.4377,-102.6254
12:52:55.067,-46.4377,-97.6879
12:52:55.093,-43.6252,-89.6253
12:52:55.096,-41.8127,-79.8128
12:52:55.111,-37.6251,-68.9378
12:52:55.125,-33.3126,-55.4377
12:52:55.128,-29.6251,-41.5627
12:52:55.131,-25.0626,-30.6876
12:52:55.160,-19.0626,-17.9376
12:52:55.162,-15.2501,-6.5
12:52:55.165,-10.1875,2.625
12:52:55.172,-7.9375,9.0625
12:52:55.197,-6.9375,10.375
12:52:55.208,-6,11.8125
12:52:55.211,-6.375,11.375
12:52:55.232,-7.25,8.875
12:52:55.236,-7.8125,5.75
12:52:55.259,-9.5,2.0625
12:52:55.261,-11.125,-3.5
12:52:55.262,-11.75,-5.5625
12:52:55.263,-13.1876,-10.8125
12:52:55.270,-14.5001,-13.8126
12:52:55.279,-15.8751,-18.6876
12:52:55.317,-17.3751,-21.6251
12:52:55.318,-18.9376,-25.7501
12:52:55.321,-20.0626,-31.2501
12:52:55.324,-22.3751,-34.2501
12:52:55.330,-23.5626,-40.2502
12:52:55.337,-25.1251,-43.7502
12:52:55.352,-26.4376,-46.3127
12:52:55.356,-26.9376,-47.6252
12:52:55.367,-26.5626,-49.3127
12:52:55.376,-25.0626,-47.6877
12:52:55.387,-24.7501,-45.3127
12:52:55.397,-24.1251,-42.3127
12:52:55.407,-22.2501,-40.8127
12:52:55.417,-21.2501,-37.8126
12:52:55.427,-20.5626,-35.5001
12:52:55.437,-19.1876,-32.6876
12:52:55.445,-18.3751,-30.0626
12:52:55.457,-17.3751,-28.5626
12:52:55.466,-15.1876,-25.8751
12:52:55.477,-15.6876,-23.6251
12:52:55.487,-15.1251,-24.2501
12:52:55.497,-14.1876,-23.8751
12:52:55.505,-14.4376,-23.5001
12:52:55.517,-14.7501,-25.3751
12:52:55.527,-15.2501,-27.8126
12:52:55.536,-15.6251,-29.2501
12:52:55.547,-16.6876,-29.7501
12:52:55.557,-16.4376,-32.6876
12:52:55.567,-17.2501,-34.0001
12:52:55.577,-18.2501,-37.6251
12:52:55.587,-18.7501,-39.1876
12:52:55.596,-19.7501,-41.8127
12:52:55.607,-19.3751,-43.6252
12:52:55.617,-21.1876,-46.5002
12:52:55.627,-22.3751,-50.0627
12:52:55.637,-23.9376,-53.0627
12:52:55.645,-23.9376,-56.2502
12:52:55.657,-25.8126,-59.0002
12:52:55.666,-26.7501,-61.7502
12:52:55.677,-28.3126,-65.1252
12:52:55.685,-29.4376,-66.8128
12:52:55.697,-29.4376,-69.9378
12:52:55.707,-30.5001,-71.0628
12:52:55.717,-31.0001,-74.5003
12:52:55.729,-32.1876,-76.1878
12:52:55.737,-32.1876,-77.3753
12:52:55.747,-32.6251,-77.7503
12:52:55.757,-32.4376,-79.7503
12:52:55.767,-33.5001,-80.0003
12:52:55.775,-33.3751,-82.3753
12:52:55.787,-33.3126,-81.8753
12:52:55.797,-33.1251,-81.5628
12:52:55.806,-31.3751,-80.0628
12:52:55.816,-31.1251,-76.1253
12:52:55.827,-28.0626,-69.6253
12:52:55.835,-25.3751,-61.3127
12:52:55.852,-21.0626,-50.0002
12:52:55.857,-16.8126,-36.7501
12:52:55.888,-11.6875,-22.5626
12:52:55.890,-7.75,-9.4375
12:52:55.892,-2.25,3.375
12:52:55.895,0.8125,13.8751
12:52:55.927,3.5,20.8751
12:52:55.928,4.0625,25.8126
12:52:55.931,4.25,27.1251
12:52:55.960,5.3125,27.3126
12:52:55.960,5.125,27.0001
12:52:55.961,5.375,27.0001
12:52:55.967,5.25,23.8751
12:52:55.982,4,21.3126
12:52:55.985,3.4375,17.3751
12:52:56.018,2.9375,14.3751
12:52:56.021,1.375,10.9375
12:52:56.024,-0.1875,6.75
12:52:56.028,-0.8125,3.625
12:52:56.041,-2.8125,0.0625
12:52:56.047,-4.1875,-5.125
12:52:56.057,-4.75,-9.4375
12:52:56.067,-6.6875,-13.3751
12:52:56.077,-7.75,-16.6876
12:52:56.087,-8.8125,-20.0626
12:52:56.102,-10.1875,-22.2501
12:52:56.107,-10,-25.3126
12:52:56.117,-11,-26.8751
12:52:56.128,-11.375,-26.8126
12:52:56.137,-10.4375,-25.5626
12:52:56.146,-8.875,-23.1251
12:52:56.157,-7.8125,-20.2501
12:52:56.167,-7.375,-17.0001
12:52:56.175,-6.375,-15.5001
12:52:56.187,-5.3125,-12.1875
12:52:56.196,-5.3125,-11.5
12:52:56.207,-3.625,-9.375
12:52:56.217,-4.25,-8.9375
12:52:56.227,-4.1875,-8.3125
12:52:56.237,-5,-7.6875
12:52:56.247,-4.75,-9.625
12:52:56.257,-4.4375,-10.375
12:52:56.267,-5.6875,-12.125
12:52:56.277,-6.1875,-13.8126
12:52:56.294,-7.75,-16.3126
12:52:56.300,-7.875,-18.9376
12:52:56.315,-8.3125,-20.8126
12:52:56.318,-10.1875,-24.0001
12:52:56.333,-11,-26.2501
12:52:56.337,-11.125,-29.2501
12:52:56.346,-12.3125,-29.9376
12:52:56.372,-12.3125,-33.5626
12:52:56.374,-13.2501,-35.3126
12:52:56.377,-14.7501,-37.6876
12:52:56.395,-15.0001,-40.6252
12:52:56.398,-15.0001,-41.2502
12:52:56.412,-15.3751,-44.2502
12:52:56.420,-15.9376,-44.5627
12:52:56.427,-17.0001,-46.1252
12:52:56.436,-17.3126,-48.2502
12:52:56.447,-18.0001,-48.3752
12:52:56.457,-18.3751,-51.3752
12:52:56.467,-19.1876,-53.4377
12:52:56.477,-19.4376,-54.0627
12:52:56.487,-20.0001,-55.8127
12:52:56.495,-20.1251,-56.7502
12:52:56.508,-19.6251,-57.8752
12:52:56.516,-20.5001,-59.6252
12:52:56.525,-21.3126,-61.2502
12:52:56.537,-22.3126,-62.5627
12:52:56.546,-22.5626,-64.1252
12:52:56.557,-22.5626,-66.5628
12:52:56.566,-24.0001,-65.8753
12:52:56.577,-24.7501,-69.0003
12:52:56.585,-24.8751,-69.8128
12:52:56.597,-24.4376,-70.5003
12:52:56.606,-25.0626,-72.0003
12:52:56.617,-25.0001,-71.5628
12:52:56.626,-25.5001,-73.0003
12:52:56.637,-25.3751,-72.3753
12:52:56.647,-25.1876,-71.1253
12:52:56.657,-22.8126,-68.1253
12:52:56.665,-20.8751,-59.6877
12:52:56.683,-17.8126,-48.8752
12:52:56.688,-12.625,-36.0001
12:52:56.721,-8,-21.7501
12:52:56.725,-1.5625,-5.625
12:52:56.726,4.0625,9.5
12:52:56.728,8.875,24.4376
12:52:56.762,13.6876,37.6251
12:52:56.763,18.7501,48.8127
12:52:56.766,22.1251,56.8752
12:52:56.793,24.3126,61.8752
12:52:56.797,25.2501,64.0002
12:52:56.798,24.9376,63.8127
12:52:56.802,24.3126,62.9377
12:52:56.806,23.8751,59.5627
12:52:56.816,21.9376,56.1877
12:52:56.840,19.3751,50.6252
12:52:56.843,17.8751,46.0627
12:52:56.853,16.6251,41.3127
12:52:56.855,15.3126,36.1876
12:52:56.867,13.1251,31.8751
12:52:56.877,11.25,28.1251
12:52:56.885,10.0625,24.6251
12:52:56.897,7.8125,18.8751
12:52:56.906,6.5625,14.6876
12:52:56.916,5.375,10.0625
12:52:56.926,3.375,6.5
12:52:56.936,2.1875,2.3125
12:52:56.946,1.1875,0.75
12:52:56.956,1.1875,-1.625
12:52:56.965,0.5625,-1.875
12:52:56.976,0.4375,-2.25
12:52:56.985,0.5,-0.5
12:52:56.997,2.125,2.4375
12:52:57.005,2.6875,5.3125
12:52:57.017,3.75,7.9375
12:52:57.027,2.9375,9.0625
12:52:57.035,4,11.6875
12:52:57.045,5,12.5
12:52:57.055,5.5625,13.8751
12:52:57.065,6.75,15.5626
12:52:57.076,6.0625,16.4376
12:52:57.085,5.875,15.4376
12:52:57.095,5.75,14.5626
12:52:57.107,5.5,13.0625
12:52:57.115,4.8125,11.9375
12:52:57.127,4,10.3125
12:52:57.137,2.75,6.5625
12:52:57.146,1.9375,5
12:52:57.155,0.6875,0.75
12:52:57.166,-0.9375,-1.75
12:52:57.177,-1.75,-6.5625
12:52:57.186,-4.0625,-10.25
12:52:57.196,-5.25,-14.1876
12:52:57.207,-6.5625,-17.6251
12:52:57.216,-7.8125,-20.3751
12:52:57.232,-8.5,-22.9376
12:52:57.237,-9.4375,-25.6251
12:52:57.246,-10.25,-28.2501
12:52:57.255,-11.4375,-31.2501
12:52:57.267,-12.5625,-33.6251
12:52:57.276,-13.5001,-35.5001
12:52:57.287,-14.6876,-38.1251
12:52:57.295,-16.0626,-40.6252
12:52:57.307,-17.0001,-42.9377
12:52:57.316,-17.7501,-45.4377
12:52:57.327,-18.3751,-47.3752
12:52:57.337,-19.0626,-48.6877
12:52:57.347,-18.8751,-51.0002
12:52:57.357,-20.6251,-53.1252
12:52:57.365,-21.3126,-55.6252
12:52:57.403,-21.7501,-58.3127
12:52:57.404,-22.9376,-58.8127
12:52:57.407,-23.1876,-61.4377
12:52:57.409,-24.5626,-62.5002
12:52:57.444,-24.8751,-65.5627
12:52:57.445,-26.1876,-66.3128
12:52:57.449,-26.0626,-68.0628
12:52:57.450,-25.6876,-67.9378
12:52:57.456,-25.8751,-68.9378
12:52:57.497,-25.6251,-69.1253
12:52:57.499,-25.7501,-69.8128
12:52:57.502,-26.0626,-69.5003
12:52:57.503,-24.8126,-65.5627
12:52:57.506,-22.6251,-59.6252
12:52:57.516,-19.0001,-48.8752
12:52:57.552,-15.3751,-36.4376
12:52:57.555,-10.3125,-21.1251
12:52:57.557,-5.5625,-7
12:52:57.561,0,7.9375
12:52:57.567,4.4375,20.8126
12:52:57.576,8.9375,32.6251
12:52:57.587,12.4375,42.8127
12:52:57.609,14.7501,50.9377
12:52:57.610,16.4376,54.6252
12:52:57.626,19.0001,57.9377
12:52:57.628,17.9376,58.3127
12:52:57.653,17.6251,56.5002
12:52:57.656,16.6876,53.9377
12:52:57.659,15.9376,49.2502
12:52:57.666,14.3126,46.0002
12:52:57.677,11.6875,40.0002
12:52:57.697,10.75,36.2501
12:52:57.699,9.375,32.2501
12:52:57.714,7.5625,27.3126
12:52:57.717,6.875,22.4376
12:52:57.730,4.625,18.1251
12:52:57.737,3.3125,13.8126
12:52:57.747,1.8125,9.625
12:52:57.757,-0.75,4.375
12:52:57.766,-2.125,-0.375
12:52:57.777,-3.375,-4.4375
12:52:57.786,-4,-7.0625
12:52:57.797,-4.8125,-8.3125
12:52:57.807,-5.1875,-10.625
12:52:57.817,-4.9375,-10.25
12:52:57.825,-4.75,-8.625
12:52:57.837,-4.75,-6.9375
12:52:57.846,-3.5,-5.125
12:52:57.857,-2.875,-3.0625
12:52:57.867,-2.0625,-0.0625
12:52:57.877,-1.3125,2
12:52:57.885,-0.8125,4.1875
12:52:57.897,-0.75,6.0625
12:52:57.905,0,5.5625
12:52:57.917,-0.25,6.5625
12:52:57.925,-0.3125,5.9375
12:52:57.937,-1.375,5.625
12:52:57.946,-1,3.5
12:52:57.958,-2.5625,1.75
12:52:57.966,-2.75,-1.5625
12:52:57.983,-3.9375,-3.0625
12:52:57.987,-4.625,-5.25
12:52:57.997,-5.75,-7.75
12:52:58.007,-6.375,-12.125
12:52:58.016,-8.0625,-14.5001
12:52:58.027,-9.6875,-18.8751
12:52:58.037,-10.6875,-21.6251
12:52:58.047,-11.3125,-25.8126
12:52:58.056,-13.1251,-28.0626
12:52:58.066,-13.125,-32.3126
12:52:58.077,-15.0626,-33.5626
12:52:58.085,-15.2501,-36.8126
12:52:58.096,-16.3751,-38.3751
12:52:58.106,-16.8751,-41.0002
12:52:58.123,-17.9376,-43.1252
12:52:58.126,-18.4376,-46.0002
12:52:58.164,-19.8751,-48.0002
12:52:58.166,-20.3126,-50.9377
12:52:58.168,-20.6251,-53.5002
12:52:58.171,-22.0001,-56.0627
12:52:58.177,-23.1251,-59.0002
12:52:58.211,-24.3751,-60.2502
12:52:58.213,-24.8751,-63.1252
12:52:58.216,-25.8751,-64.4377
12:52:58.242,-25.8751,-67.6253
12:52:58.245,-27.1251,-67.7503
12:52:58.245,-27.7501,-70.3128
12:52:58.252,-28.0001,-73.3128
12:52:58.257,-28.3751,-73.2503
12:52:58.285,-29.3126,-75.8128
12:52:58.287,-30.0626,-76.5003
12:52:58.290,-30.8126,-77.8128
12:52:58.297,-29.9376,-78.6253
12:52:58.306,-30.0001,-79.0628
12:52:58.317,-28.8126,-75.1253
12:52:58.326,-27.2501,-69.5003
12:52:58.335,-23.9376,-59.1877
12:52:58.347,-19.5626,-46.9377
12:52:58.357,-15.8126,-32.6876
12:52:58.365,-10.375,-18.8751
12:52:58.375,-6,-5.1875
12:52:58.385,-0.8125,10
12:52:58.396,4,22.5001
12:52:58.406,7.875,31.7501
12:52:58.415,10.625,38.2501
12:52:58.425,11.8125,42.9377
12:52:58.436,12.8125,45.4377
12:52:58.446,12.8125,46.1252
12:52:58.457,12.875,43.8127
12:52:58.466,11.25,40.0627
12:52:58.475,10,36.5001
12:52:58.486,8.875,33.8126
12:52:58.496,7.25,27.1251
12:52:58.505,6,22.9376
12:52:58.516,3.6875,19.3126
12:52:58.525,2.6875,13.8751
12:52:58.535,1.375,9.625
12:52:58.546,-0.375,4.4375
12:52:58.556,-1.625,-1.4375
12:52:58.572,-3.75,-5.9375
12:52:58.581,-4.9375,-10.6875
12:52:58.592,-6.5625,-13.8126
12:52:58.600,-7.6875,-18.3126
12:52:58.610,-8.9375,-21.8126
12:52:58.624,-9.3125,-24.0001
12:52:58.630,-9.5625,-24.1251
12:52:58.641,-9.75,-23.6876
12:52:58.651,-8.875,-22.3751
12:52:58.660,-9.125,-20.4376
12:52:58.670,-8.125,-18.1876
12:52:58.681,-7.6875,-14.6876
12:52:58.691,-6.75,-11.5625
12:52:58.700,-5.4375,-8.375
12:52:58.711,-5,-8.25
12:52:58.720,-4.9375,-6.25
12:52:58.732,-4.625,-3.9375
12:52:58.741,-4.3125,-3.375
12:52:58.750,-4.5625,-5.5625
12:52:58.761,-3.8125,-6.25
12:52:58.776,-5.3125,-6.8125
12:52:58.782,-4.9375,-8.1875
12:52:58.816,-6.4375,-11.3125
12:52:58.817,-7.0625,-13.1251
12:52:58.819,-8.125,-16.4376
12:52:58.822,-9.0625,-18.1251
12:52:58.855,-9.5,-21.5626
12:52:58.856,-11.0625,-24.1251
12:52:58.858,-11.1875,-27.3751
12:52:58.893,-13.5001,-31.0626
12:52:58.894,-14.1251,-34.0001
12:52:58.896,-14.8126,-37.1876
12:52:58.940,-15.6251,-40.1252
12:52:58.941,-16.7501,-43.2502
12:52:58.942,-17.8126,-46.8127
12:52:58.957,-19.0001,-49.2502
12:52:58.960,-19.1876,-51.8752
12:52:58.964,-20.3751,-54.5627
12:52:58.964,-20.6876,-57.0627
12:52:58.967,-21.8751,-59.4377
12:52:58.975,-21.1876,-60.5627
12:52:58.987,-22.8751,-62.0002
12:52:59.002,-23.0626,-63.5627
12:52:59.016,-23.7501,-64.8752
12:52:59.019,-23.9376,-66.5003
12:52:59.034,-24.2501,-67.2503
12:52:59.037,-24.5001,-68.0628
12:52:59.045,-24.5626,-68.5003
12:52:59.055,-24.4376,-65.9378
12:52:59.065,-22.0001,-61.3752
12:52:59.076,-19.1251,-51.3752
12:52:59.085,-14.3751,-39.8127
12:52:59.097,-11.125,-26.6251
12:52:59.107,-6.0625,-12.125
12:52:59.118,-1.5,0.625
12:52:59.125,4.4375,19.8126
12:52:59.136,7.6875,29.2501
12:52:59.145,11,38.7501
12:52:59.155,13,43.1252
12:52:59.165,15.1876,47.5627
12:52:59.176,16.0001,48.3752
12:52:59.185,15.5001,47.7502
12:52:59.195,15.8126,46.8752
12:52:59.205,13.8126,43.8127
12:52:59.215,13.1876,40.1252
12:52:59.226,11.9375,35.0001
12:52:59.236,9.875,30.8751
12:52:59.247,8.9375,26.0001
12:52:59.256,7.1875,21.5626
12:52:59.266,5.5625,16.1876
12:52:59.278,4.1875,11.375
12:52:59.286,1.9375,4.9375
12:52:59.296,-0.125,1.1875
12:52:59.305,-1.625,-5.5
12:52:59.315,-3.375,-10.4375
12:52:59.326,-5.125,-15.3751
12:52:59.336,-6.6875,-18.8751
12:52:59.345,-7.0625,-20.8751
12:52:59.356,-7.5,-21.6876
12:52:59.366,-6.9375,-20.6251
12:52:59.376,-6.1875,-20.1251
12:52:59.386,-5.5625,-16.8751
12:52:59.396,-3.9375,-13.7501
12:52:59.405,-3.75,-10.1875
12:52:59.416,-2.4375,-9.0625
12:52:59.425,-2.3125,-5.75
12:52:59.436,-1.3125,-4.375
12:52:59.446,-0.9375,-2.375
12:52:59.455,-0.75,-1.25
12:52:59.466,-0.25,-1.5
12:52:59.479,0,-1.4375
12:52:59.489,-0.9375,-0.8125
12:52:59.497,-1.5,-3.3125
12:52:59.505,-1.5,-5.1875
12:52:59.515,-2.6875,-6.5625
12:52:59.526,-3.5,-9.875
12:52:59.535,-4.3125,-10.875
12:52:59.545,-5.625,-13.5001
12:52:59.568,-6.1875,-17.1876
12:52:59.569,-6.9375,-19.5626
12:52:59.577,-7.75,-22.3751
12:52:59.609,-8.125,-24.1876
12:52:59.611,-9.375,-27.4376
12:52:59.613,-10,-29.8751
12:52:59.616,-10.875,-33.3126
12:52:59.646,-11.875,-35.4376
12:52:59.650,-12.6875,-37.7501
12:52:59.651,-13.5001,-40.1252
12:52:59.658,-14.5626,-42.8752
12:52:59.688,-14.8126,-44.1877
12:52:59.689,-15.7501,-46.4377
12:52:59.692,-16.0626,-48.1252
12:52:59.719,-17.0626,-50.3127
12:52:59.721,-17.7501,-52.1877
12:52:59.722,-17.6876,-53.1252
12:52:59.727,-19.6251,-55.6252
12:52:59.741,-19.6876,-57.8127
12:52:59.747,-20.8126,-59.3127
12:52:59.755,-20.7501,-61.5627
12:52:59.766,-22.2501,-63.0002
12:52:59.776,-22.8751,-65.9378
12:52:59.785,-22.8751,-67.0003
12:52:59.795,-23.3751,-69.0628
12:52:59.806,-24.3751,-70.1878
12:52:59.816,-24.0001,-71.2503
12:52:59.826,-24.6876,-72.2503
12:52:59.836,-24.3751,-73.0003
12:52:59.845,-25.3751,-73.2503
12:52:59.858,-25.3751,-72.8128
12:52:59.867,-24.1876,-70.2503
12:52:59.876,-22.0626,-61.5002
12:52:59.886,-17.3126,-50.0002
12:52:59.895,-13.0625,-35.1876
12:52:59.906,-8.625,-19.6251
12:52:59.916,-3.375,-5.1875
12:52:59.925,1.5,10.75
12:52:59.936,6.25,24.8126
12:52:59.945,10.125,36.8126
12:52:59.955,13.6876,46.9377
12:52:59.966,16.7501,53.6252
12:52:59.976,18.1251,58.6877
12:52:59.986,19.1876,60.5627
12:52:59.996,18.2501,60.7502
12:53:00.005,18.0626,57.5002
12:53:00.016,16.4376,55.2502
12:53:00.025,15.6251,49.8752
12:53:00.035,13.4376,46.6252
12:53:00.045,11.9375,40.3752
12:53:00.056,9.625,35.6876
12:53:00.066,9,29.8751
12:53:00.076,6.5625,26.8751
12:53:00.085,5.5625,21.5001
12:53:00.095,3.875,15.3751
12:53:00.106,2.25,11.0625
12:53:00.116,0.0625,5.5625
12:53:00.126,-1.125,1.25
12:53:00.136,-2.875,-2.75
12:53:00.145,-3.5625,-6.3125
12:53:00.156,-4.375,-9.25
12:53:00.166,-4.5625,-10.625
12:53:00.176,-4.8125,-11.0625
12:53:00.185,-4.75,-11.0625
12:53:00.212,-4.375,-8.6875
12:53:00.245,-4.25,-8.9375
12:53:00.246,-3.625,-5.4375
12:53:00.249,-2.9375,-3.25
12:53:00.251,-2,0.4375
12:53:00.257,-0.9375,2.5
12:53:00.258,-0.5625,5.625
12:53:00.266,0.5,6.1875
12:53:00.276,-0.125,7.9375
12:53:00.330,-0.3125,6.625
12:53:00.331,0.25,7.9375
12:53:00.334,-0.5,7.4375
12:53:00.337,-1.3125,4.625
12:53:00.339,-1.5,3.375
12:53:00.339,-2.875,1.9375
12:53:00.347,-4.125,-2.875
12:53:00.376,-4.6875,-4.8125
12:53:00.378,-6,-6.0625
12:53:00.381,-6.5,-10.625
12:53:00.387,-8.1875,-12.1875
12:53:00.414,-9.25,-16.7501
12:53:00.417,-10.9375,-21.1876
12:53:00.418,-11.8125,-23.5001
12:53:00.450,-13,-27.1251
12:53:00.452,-13.7501,-30.1251
12:53:00.454,-15.0626,-31.5001
12:53:00.457,-15.3751,-35.3126
12:53:00.469,-16.5626,-38.0001
12:53:00.478,-16.9376,-39.8127
12:53:00.486,-17.6251,-41.8752
12:53:00.495,-17.8126,-44.6877
12:53:00.506,-18.5626,-45.3127
12:53:00.515,-18.5001,-46.6877
12:53:00.526,-18.9376,-49.4377
12:53:00.535,-19.7501,-49.8127
12:53:00.545,-20.1876,-53.0627
12:53:00.556,-20.3126,-54.3752
12:53:00.566,-21.4376,-56.5627
12:53:00.575,-22.4376,-57.5002
12:53:00.586,-21.8751,-59.1252
12:53:00.596,-22.3751,-59.9377
12:53:00.607,-21.8751,-62.3127
12:53:00.616,-23.0001,-62.5002
12:53:00.625,-22.8751,-64.1252
12:53:00.636,-23.7501,-64.3752
12:53:00.646,-23.8751,-65.2502
12:53:00.656,-23.5001,-66.2503
12:53:00.665,-23.5001,-64.8752
12:53:00.676,-21.4376,-60.5627
12:53:00.686,-19.6251,-52.5002
12:53:00.696,-15.6251,-40.3127
12:53:00.706,-12.1875,-26.6876
12:53:00.716,-7.0625,-11.8125
12:53:00.725,-2.625,4.0625
12:53:00.735,2.1875,17.8751
12:53:00.745,6.4375,31.9376
12:53:00.756,10.0625,41.9377
12:53:00.766,13.6251,51.9377
12:53:00.776,15.1251,56.3752
12:53:00.786,16.4376,60.8127
12:53:00.796,17.0001,61.5627
12:53:00.806,16.3751,61.5002
12:53:00.815,15.9376,58.8127
12:53:00.825,15.0001,56.0627
12:53:00.835,13.4376,52.0002
12:53:00.845,12.5625,48.5002
12:53:00.856,11.4375,42.6877
12:53:00.865,9.625,38.4376
12:53:00.875,7.9375,32.9376
12:53:00.885,6.25,28.7501
12:53:00.895,4.6875,22.1876
12:53:00.905,2.625,18.4376
12:53:00.916,1.875,13.3751
12:53:00.925,-0.1875,9.0625
12:53:00.935,-1.25,4.0625
12:53:00.946,-2.8125,0.1875
12:53:00.956,-3.375,-4.3125
12:53:00.968,-4.375,-5.8125
12:53:00.982,-4.4375,-8.25
12:53:00.987,-5.0625,-8.0625
12:53:00.996,-5.25,-7.1875
12:53:01.005,-4.75,-7
12:53:01.016,-3.5,-4.25
12:53:01.037,-3,-1.25
12:53:01.040,-2.125,2.75
12:53:01.070,-0.875,4.375
12:53:01.070,0,6.625
12:53:01.073,0.6875,8.5625
12:53:01.082,0.125,9.6875
12:53:01.089,0.75,11.0625
12:53:01.116,0.1875,11
12:53:01.117,0,10.625
12:53:01.120,-0.1875,9.6875
12:53:01.126,-0.8125,8
12:53:01.153,-1.25,6.375
12:53:01.157,-2.8125,5.75
12:53:01.158,-3.25,1.9375
12:53:01.188,-3.8125,-0.5
12:53:01.189,-4.8125,-2.5
12:53:01.193,-5.3125,-5
12:53:01.198,-7,-7.9375
12:53:01.206,-7.125,-11
12:53:01.215,-8.875,-14.0001
12:53:01.225,-10.125,-16.3126
12:53:01.236,-10.625,-19.3126
12:53:01.246,-11.375,-23.0626
12:53:01.255,-13,-25.7501
12:53:01.265,-13.3126,-29.3751
12:53:01.275,-14.6876,-31.6251
12:53:01.286,-14.4376,-34.5626
12:53:01.296,-15.8751,-37.5626
12:53:01.306,-16.6251,-40.1252
12:53:01.315,-17.2501,-42.8127
12:53:01.325,-18.2501,-45.3127
12:53:01.335,-18.3751,-46.8752
12:53:01.345,-19.2501,-47.7502
12:53:01.359,-19.0626,-50.3127
12:53:01.366,-20.1251,-50.6252
12:53:01.375,-20.4376,-53.6252
12:53:01.386,-20.8126,-54.3127
12:53:01.396,-20.6876,-55.9377
12:53:01.405,-21.0626,-57.3127
12:53:01.416,-21.4376,-57.3752
12:53:01.426,-20.4376,-57.0627
12:53:01.437,-20.1876,-54.7502
12:53:01.446,-18.1251,-48.3127
12:53:01.456,-14.8751,-39.5627
12:53:01.468,-11,-25.1876
12:53:01.494,-6.625,-12.5
12:53:01.497,-2.375,3
12:53:01.499,2.125,16.5001
12:53:01.507,6.6875,31.3751
12:53:01.523,10.9375,43.0627
12:53:01.526,14.6876,55.0627
12:53:01.540,18.1251,61.5627
12:53:01.547,18.9376,67.0628
12:53:01.556,20.3751,69.6253
12:53:01.565,20.0626,70.0628
12:53:01.575,19.8751,68.0628
12:53:01.586,18.2501,64.8752
12:53:01.600,17.7501,61.0627
12:53:01.615,15.4376,56.6877
12:53:01.618,15.0626,51.6252
12:53:01.625,12.6875,47.3752
12:53:01.636,11.75,42.2502
12:53:01.645,9.5625,36.3751
12:53:01.655,7.5625,31.5626
12:53:01.665,6.3125,26.7501
12:53:01.676,4.5625,20.1251
12:53:01.685,2.9375,15.8126
12:53:01.695,1.5,10.3125
12:53:01.705,-0.25,5.875
12:53:01.715,-1,2.0625
12:53:01.726,-2.3125,0.125
12:53:01.747,-2.0625,-2.125
12:53:01.749,-2.25,-1.6875
12:53:01.783,-1.875,-1
12:53:01.785,-1.9375,0.25
12:53:01.787,-1.0625,2.8125
12:53:01.789,-0.25,5.75
12:53:01.819,1.1875,9.625
12:53:01.821,1.5,11.5
12:53:01.823,2.1875,15.5626
12:53:01.826,2.9375,16.0626
12:53:01.864,3.8125,18.2501
12:53:01.867,3.375,18.4376
12:53:01.869,3.3125,19.1876
12:53:01.898,3.125,18.2501
12:53:01.899,3.3125,18.9376
12:53:01.902,2.5625,18.5001
12:53:01.907,2.8125,16.0626
12:53:01.908,1.875,14.2501
12:53:01.916,0.4375,11.9375
12:53:01.926,0.4375,9.5
12:53:01.936,-0.375,7.375
12:53:01.947,-1.625,3.8125
12:53:01.955,-2.9375,1.8125
12:53:01.966,-4.1875,-2.625
12:53:01.977,-4.625,-4.8125
12:53:01.986,-5.0625,-7.8125
12:53:01.995,-6.4375,-10.125
12:53:02.006,-8.5625,-14.3126
12:53:02.015,-9.1875,-17.7501
12:53:02.026,-10.1875,-21.5626
12:53:02.035,-11.6875,-24.6251
12:53:02.045,-11.6875,-27.7501
12:53:02.056,-12.9375,-29.6876
12:53:02.065,-14.5626,-31.5001
12:53:02.076,-14.5626,-35.0001
12:53:02.086,-15.7501,-36.9376
12:53:02.095,-15.9376,-40.1252
12:53:02.110,-17.1876,-40.2502
12:53:02.115,-17.5626,-43.7502
12:53:02.126,-18.4376,-44.6252
12:53:02.135,-18.8126,-47.3752
12:53:02.145,-19.1876,-48.5627
12:53:02.155,-19.1251,-47.8127
12:53:02.166,-18.0001,-44.8127
12:53:02.176,-15.3751,-37.4376
12:53:02.185,-11.6875,-26.7501
12:53:02.198,-7.75,-13
12:53:02.205,-4.0625,0.375
12:53:02.215,0.875,15.3751
12:53:02.226,4.625,29.0626
12:53:02.236,9.6875,41.5002
12:53:02.245,13.3126,52.6252
12:53:02.255,16.0626,60.8752
12:53:02.265,18.4376,67.8128
12:53:02.276,19.2501,70.3753
12:53:02.285,20.1251,71.1253
12:53:02.296,20.0001,70.8753
12:53:02.306,18.5001,68.9378
12:53:02.316,17.9376,64.9377
12:53:02.325,16.3751,60.2502
12:53:02.335,15.2501,55.8752
12:53:02.345,13.6251,50.6252
12:53:02.356,11.75,46.1252
12:53:02.366,9.5625,40.6252
12:53:02.376,8.9375,35.5001
12:53:02.385,7.1875,29.6251
12:53:02.396,4.5,25.0626
12:53:02.405,3,18.8126
12:53:02.416,0.9375,12.875
12:53:02.426,0.0625,8.5
12:53:02.435,-1.5,4.3125
12:53:02.445,-1.375,1.25
12:53:02.477,-3.0625,-0.375
12:53:02.480,-3.75,-1
12:53:02.483,-3.0625,-1.375
12:53:02.487,-2.8125,0.9375
12:53:02.521,-1.75,2.3125
12:53:02.523,-1.6875,5.75
12:53:02.526,-1,7.6875
12:53:02.528,-0.8125,11.5625
12:53:02.558,0.6875,12.8125
12:53:02.561,0.25,15.2501
12:53:02.563,1.375,15.6251
12:53:02.567,0.8125,16.5626
12:53:02.598,1.3125,16.6251
12:53:02.601,0.75,16.9376
12:53:02.602,0.625,15.2501
12:53:02.632,-0.75,14.4376
12:53:02.634,-1.375,11.8125
12:53:02.636,-1.625,10
12:53:02.646,-2.9375,7.5625
12:53:02.655,-3.375,4.5
12:53:02.665,-4.8125,1.6875
12:53:02.675,-5.625,-0.75
12:53:02.685,-6.8125,-3.25
12:53:02.695,-6.5,-6.3125
12:53:02.705,-8.375,-9.1875
12:53:02.717,-8.75,-11.875
12:53:02.725,-9.5625,-14.7501
12:53:02.735,-10.9375,-17.7501
12:53:02.747,-12.3125,-22.3126
12:53:02.772,-12.4375,-25.2501
12:53:02.774,-14.8751,-28.6876
12:53:02.777,-15.0001,-33.1251
12:53:02.786,-17.0001,-36.2501
12:53:02.798,-17.0626,-39.0627
12:53:02.818,-18.0626,-40.6252
12:53:02.820,-19.6251,-44.1252
12:53:02.834,-19.0001,-44.5002
12:53:02.837,-19.9376,-45.1877
12:53:02.845,-19.8126,-49.0627
12:53:02.855,-20.6876,-50.4377
12:53:02.866,-21.6876,-51.5002
12:53:02.875,-21.5001,-52.1877
12:53:02.894,-21.0626,-50.8752
12:53:02.897,-19.6251,-47.1877
12:53:02.911,-16.8126,-39.0627
12:53:02.916,-13.5626,-27.8126
12:53:02.925,-9.4375,-11.6875
12:53:02.935,-3.8125,3.4375
12:53:02.946,1.25,19.5626
12:53:02.955,6.8125,35.1251
12:53:02.965,10.5625,49.6877
12:53:02.975,14.8751,62.1252
12:53:02.985,19.0001,71.0628
12:53:02.995,21.7501,78.8753
12:53:03.008,23.2501,82.6253
12:53:03.015,23.4376,83.6878
12:53:03.025,24.0001,83.9378
12:53:03.035,23.6876,81.5003
12:53:03.046,22.5001,78.1878
12:53:03.056,20.5626,74.3128
12:53:03.065,19.1251,69.1253
12:53:03.075,17.4376,63.8752
12:53:03.086,15.7501,59.5002
12:53:03.096,14.6251,53.9377
12:53:03.106,12,47.9377
12:53:03.115,9.9375,43.0627
12:53:03.125,9.1875,37.8751
12:53:03.135,7.5625,33.6251
12:53:03.146,5.8125,28.1251
12:53:03.172,4.8125,22.5626
12:53:03.173,2.1875,18.5001
12:53:03.186,1.375,15.1251
12:53:03.188,0.5625,13.2501
12:53:03.217,0.3125,12
12:53:03.218,-0.375,11.375
12:53:03.221,-0.5625,12.5625
12:53:03.226,0.4375,13.6251
12:53:03.242,1,17.2501
12:53:03.247,2.25,18.8751
12:53:03.272,2.3125,20.9376
12:53:03.276,3.25,23.0001
12:53:03.278,3.375,25.8751
12:53:03.303,4.875,27.4376
12:53:03.306,4.5625,28.3751
12:53:03.308,4.4375,28.3751
12:53:03.333,4.1875,27.8751
12:53:03.335,4.1875,28.3126
12:53:03.338,3.625,25.5626
12:53:03.345,3.25,24.8751
12:53:03.355,1.9375,21.8751
12:53:03.365,0.8125,19.3126
12:53:03.382,0.9375,17.0001
12:53:03.387,-0.4375,14.3751
12:53:03.397,-2.125,10.6875
12:53:03.406,-2.9375,7.625
12:53:03.416,-4.5625,3.625
12:53:03.426,-5.5625,1
12:53:03.435,-6,-3.25
12:53:03.446,-7.75,-5.6875
12:53:03.456,-9.0625,-8.9375
12:53:03.465,-9.125,-11.6875
12:53:03.475,-9.75,-14.0001
12:53:03.485,-11.125,-16.4376
12:53:03.495,-11.75,-18.8751
12:53:03.506,-13.1876,-22.3751
12:53:03.516,-13.3751,-24.3126
12:53:03.525,-14.6876,-26.8751
12:53:03.536,-14.6876,-28.4376
12:53:03.546,-16.0001,-31.4376
12:53:03.556,-16.7501,-33.3751
12:53:03.565,-17.9376,-36.2501
12:53:03.575,-17.8126,-38.8751
12:53:03.585,-18.6251,-39.9377
12:53:03.596,-19.3751,-43.6252
12:53:03.605,-19.8751,-44.8752
12:53:03.616,-21.0626,-46.5627
12:53:03.625,-20.8126,-48.1877
12:53:03.636,-21.3126,-49.9377
12:53:03.646,-22.0626,-51.7502
12:53:03.656,-22.5626,-52.6252
12:53:03.666,-22.5626,-53.3127
12:53:03.676,-23.1876,-53.4377
12:53:03.686,-21.4376,-51.8752
12:53:03.696,-20.5001,-47.0002
12:53:03.706,-18.3126,-36.9376
12:53:03.715,-13.1876,-24.3126
12:53:03.725,-8.75,-8.0625
12:53:03.737,-3.3125,7.8125
12:53:03.746,1.875,25.1876
12:53:03.762,6.625,41.5002
12:53:03.767,12.75,57.3752
12:53:03.775,17.2501,70.3128
12:53:03.786,22.7501,81.6878
12:53:03.795,26.9376,92.0629
12:53:03.805,31.4376,98.5004
12:53:03.816,34.3751,105.0004
12:53:03.825,37.8126,108.4379
12:53:03.836,43.8752,116.4379
12:53:03.845,50.3752,123.2505
12:53:03.855,53.8752,127.813
12:53:03.866,58.3127,131.938
12:53:03.876,65.3128,139.938
12:53:03.886,68.8753,144.3755
12:53:03.896,70.8128,147.7506
12:53:03.905,71.5003,146.1255
12:53:03.925,73.5628,149.0631
12:53:03.928,77.0003,150.9381
12:53:03.937,79.1878,153.1881
12:53:03.965,80.3753,152.6256
12:53:03.967,78.1878,150.1256
12:53:03.970,77.6253,146.8756
12:53:03.977,74.9378,144.063
12:53:04.001,73.8753,138.5005
12:53:04.003,71.3753,135.938
12:53:04.006,69.7503,131.938
12:53:04.043,67.5003,130.7505
12:53:04.045,65.4377,127.313
12:53:04.047,62.4377,124.8755
12:53:04.061,59.5002,121.938
12:53:04.065,57.6877,119.438
12:53:04.067,55.7502,117.813
12:53:04.094,54.3127,116.3129
12:53:04.098,52.4377,114.4379
12:53:04.098,50.6877,111.2504
12:53:04.115,48.6877,108.7504
12:53:04.120,46.7502,105.8754
12:53:04.136,42.8127,100.0004
12:53:04.139,40.6252,94.1254
12:53:04.145,37.0001,89.3753
12:53:04.156,34.0626,83.0003
12:53:04.166,30.8126,76.5628
12:53:04.176,28.6876,69.9378
12:53:04.191,26.7501,63.6252
12:53:04.208,25.0001,57.3127
12:53:04.209,24.0626,53.7502
12:53:04.215,22.5001,48.6252
12:53:04.225,21.5626,43.3752
12:53:04.235,20.4376,37.9376
12:53:04.246,18.1876,32.7501
12:53:04.255,15.5626,26.1251
12:53:04.265,12.75,19.3126
12:53:04.276,10.5625,13.6251
12:53:04.286,9.4375,8.3125
12:53:04.296,8.0625,4.4375
12:53:04.305,7.375,2.3125
12:53:04.316,7.0625,-0.25
12:53:04.326,7.625,-0.125
12:53:04.336,6.875,-1.3125
12:53:04.345,6.625,-3.5
12:53:04.355,6.25,-4.9375
12:53:04.365,6,-4.9375
12:53:04.376,7.5,-4.0625
12:53:04.385,7.625,-2.9375
12:53:04.395,8.75,-1.75
12:53:04.405,8.8125,-0.375
12:53:04.415,8.875,1.6875
12:53:04.426,11.3125,4.375
12:53:04.435,12.8125,11.5
12:53:04.446,16.8126,22.1251
12:53:04.455,19.5001,35.0001
12:53:04.466,23.4376,47.5002
12:53:04.476,27.1876,61.8752
12:53:04.486,34.9376,78.6253
12:53:04.496,41.5627,97.0629
12:53:04.512,47.5002,114.3129
12:53:04.517,53.8752,129.813
12:53:04.525,58.8127,143.063
12:53:04.535,63.8752,153.1881
12:53:04.545,65.8128,159.2506
12:53:04.556,66.9378,162.0631
12:53:04.566,67.2503,163.6256
12:53:04.575,67.1878,161.5006
12:53:04.586,66.6253,159.4381
12:53:04.596,65.5628,155.9381
12:53:04.616,63.5627,151.3756
12:53:04.618,61.6252,146.6255
12:53:04.644,58.9377,140.0005
12:53:04.647,56.0627,133.2505
12:53:04.649,51.3127,124.1255
12:53:04.656,47.5002,115.1879
12:53:04.689,41.8752,105.7504
12:53:04.692,37.0626,95.3754
12:53:04.694,32.6876,84.8128
12:53:04.701,27.9376,76.6878
12:53:04.730,24.7501,67.8128
12:53:04.732,20.8126,61.6877
12:53:04.734,19.5626,57.5002
12:53:04.761,17.1251,53.6877
12:53:04.762,15.5001,50.0627
12:53:04.764,13.5001,47.5627
12:53:04.768,12.4375,45.5627
12:53:04.789,12,46.3752
12:53:04.792,12.8125,46.6877
12:53:04.798,11.3125,45.9377
12:53:04.805,9.875,44.5002
12:53:04.816,8.875,43.7502
12:53:04.826,9.3125,41.0627
12:53:04.835,8.9375,41.1252
12:53:04.846,11,41.6877
12:53:04.855,13.4376,43.0002
12:53:04.865,15.7501,45.0627
12:53:04.875,15.4376,43.8752
12:53:04.887,11.5,38.1251
12:53:04.896,5.6875,28.8126
12:53:04.906,0.875,18.1251
12:53:04.916,-2,10.5
12:53:04.925,-4.9375,3
12:53:04.935,-6.875,-3.625
12:53:04.945,-9.5,-10.5
12:53:04.957,-10.75,-16.3751
12:53:04.967,-12.1875,-20.0001
12:53:04.975,-12.9375,-24.3126
12:53:04.985,-12.5625,-26.9376
12:53:04.996,-13.3126,-29.4376
12:53:05.005,-14.5626,-32.3126
12:53:05.015,-15.2501,-34.7501
12:53:05.026,-16.3751,-37.6876
12:53:05.035,-16.4376,-40.4377
12:53:05.045,-17.8751,-42.8752
12:53:05.058,-18.0001,-45.5002
12:53:05.066,-19.0001,-46.5627
12:53:05.076,-18.3751,-47.1252
12:53:05.086,-17.6251,-45.5627
12:53:05.095,-18.0001,-44.7502
12:53:05.105,-17.4376,-45.5627
12:53:05.117,-17.3126,-45.5002
12:53:05.125,-17.8751,-45.1877
12:53:05.136,-17.9376,-45.3752
12:53:05.145,-16.4376,-41.8127
12:53:05.155,-14.5626,-34.2501
12:53:05.165,-10.1875,-22.0001
12:53:05.176,-7.6875,-10.9375
12:53:05.185,-3.9375,1.4375
12:53:05.195,1.6875,19.0001
12:53:05.207,9.5,38.6876
12:53:05.215,17.9376,58.8127
12:53:05.225,24.8126,78.5628
12:53:05.236,31.8751,93.6879
12:53:05.245,37.3126,107.6254
12:53:05.263,39.8127,118.313
12:53:05.265,43.0002,124.313
12:53:05.276,46.2502,128.8755
12:53:05.285,47.1877,132.188
12:53:05.295,48.2502,133.3755
12:53:05.305,48.0002,132.938
12:53:05.332,47.0002,129.563
12:53:05.335,45.1252,125.7505
12:53:05.337,41.7502,119.7505
12:53:05.345,38.0001,111.3754
12:53:05.362,34.3126,102.2504
12:53:05.367,29.3126,93.4379
12:53:05.401,25.2501,83.8753
12:53:05.408,19.8126,73.8128
12:53:05.442,15.8751,65.2503
12:53:05.445,11.3125,55.6877
12:53:05.447,7.25,47.4377
12:53:05.448,3.8125,38.5626
12:53:05.448,0.3125,32.6876
12:53:05.452,-3.25,25.3751
12:53:05.487,-6.4375,20.5001
12:53:05.492,-7.4375,16.5001
12:53:05.522,-7.75,16.8751
12:53:05.525,-7.25,15.6876
12:53:05.528,-8.4375,16.1251
12:53:05.529,-8.0625,14.3751
12:53:05.529,-7.25,16.4376
12:53:05.537,-4.75,20.0001
12:53:05.545,-1.0625,24.5001
12:53:05.556,2.1875,28.3751
12:53:05.565,3.875,30.6251
12:53:05.576,2.0625,29.3126
12:53:05.586,-1.5,22.9376
12:53:05.596,-5.1875,15.6251
12:53:05.606,-9.3125,8.1875
12:53:05.615,-7.8125,8.4375
12:53:05.625,-15.7501,-6.25
12:53:05.637,-16.8126,-9.75
12:53:05.646,-17.0626,-14.5626
12:53:05.656,-17.3751,-16.5001
12:53:05.665,-17.6251,-18.1251
12:53:05.676,-17.2501,-19.4376
12:53:05.685,-17.5001,-21.8751
12:53:05.696,-17.6876,-23.9376
12:53:05.706,-18.3751,-27.3126
12:53:05.715,-19.0626,-29.2501
12:53:05.726,-20.8126,-32.0626
12:53:05.736,-21.5001,-33.8751
12:53:05.745,-21.9376,-35.6876
12:53:05.755,-23.3126,-37.3126
12:53:05.766,-22.7501,-37.1251
12:53:05.777,-21.7501,-37.4376
12:53:05.785,-20.4376,-33.6251
12:53:05.795,-19.0001,-32.5001
12:53:05.805,-17.7501,-32.0626
12:53:05.817,-18.3751,-31.6876
12:53:05.826,-20.6251,-36.3126
12:53:05.836,-21.9376,-38.6251
12:53:05.847,-20.6251,-39.3752
12:53:05.855,-18.0001,-36.5001
12:53:05.866,-17.6251,-34.0001
12:53:05.875,-15.5626,-32.8126
12:53:05.885,-13.5626,-30.1251
12:53:05.897,-12.25,-28.1251
12:53:05.905,-10.6875,-26.3126
12:53:05.916,-9.625,-25.8751
12:53:05.925,-8.75,-22.8751
12:53:05.935,-7.3125,-19.7501
12:53:05.947,-4.4375,-13.6251
12:53:05.955,-2.5,-5.4375
12:53:05.966,1,5.25
12:53:05.976,4.875,19.9376
12:53:05.985,10.375,35.6876
12:53:05.996,16.0001,54.8127
12:53:06.012,20.8126,70.5003
12:53:06.017,24.9376,87.0003
12:53:06.025,28.5001,99.9379
12:53:06.035,31.4376,111.3129
12:53:06.045,32.6876,119.188
12:53:06.056,33.3126,122.7505
12:53:06.065,33.4376,124.5005
12:53:06.076,30.5626,122.5005
12:53:06.085,29.1876,117.938
12:53:06.097,25.6251,111.8129
12:53:06.106,22.4376,103.8129
12:53:06.115,18.8126,96.6254
12:53:06.125,14.8126,87.8128
12:53:06.148,11.8125,79.2503
12:53:06.151,9.125,71.8753
12:53:06.185,7.125,65.5003
12:53:06.186,5.8125,58.8752
12:53:06.188,3.1875,51.7502
12:53:06.191,0.75,44.9377
12:53:06.196,-0.1875,37.1251
12:53:06.242,-1.625,31.6251
12:53:06.242,-0.1875,27.5001
12:53:06.249,1.6875,27.0001
12:53:06.274,2.625,25.7501
12:53:06.274,0.875,21.5001
12:53:06.276,-3.1875,13.7501
12:53:06.278,-9.125,3.6875
12:53:06.283,-13.5001,-4.3125
12:53:06.288,-16.3751,-8.9375
12:53:06.313,-17.3126,-10.9375
12:53:06.315,-18.0001,-11.125
12:53:06.319,-17.7501,-12.25
12:53:06.325,-18.6251,-11.75
12:53:06.337,-18.6251,-10.8125
12:53:06.345,-17.0001,-10.3125
12:53:06.356,-16.6251,-8.5
12:53:06.365,-15.2501,-7.5
12:53:06.376,-15.5626,-6.5
12:53:06.390,-14.9376,-6.875
12:53:06.396,-15.4376,-6.5625
12:53:06.405,-15.5626,-8.625
12:53:06.416,-15.5001,-9.1875
12:53:06.425,-15.1251,-10.625
12:53:06.435,-15.2501,-10
12:53:06.446,-14.1876,-9.9375
12:53:06.455,-14.5626,-11.25
12:53:06.466,-13.3751,-11.6875
12:53:06.475,-14.5001,-13.8751
12:53:06.487,-15.3126,-15.2501
12:53:06.496,-16.3751,-17.3126
12:53:06.506,-15.2501,-18.4376
12:53:06.515,-16.3126,-20.0626
12:53:06.526,-18.1876,-24.0001
12:53:06.535,-20.3751,-27.0001
12:53:06.549,-20.5001,-29.8751
12:53:06.558,-17.5626,-27.3126
12:53:06.567,-16.6876,-24.4376
12:53:06.575,-15.1876,-23.6251
12:53:06.585,-13.3751,-22.1251
12:53:06.612,-13.0625,-20.3126
12:53:06.614,-11.0625,-19.6876
12:53:06.620,-10.75,-19.1876
12:53:06.630,-10.125,-19.4376
12:53:06.640,-9.3125,-17.3126
12:53:06.650,-7.5625,-16.6876
12:53:06.660,-7.0625,-16.6251
12:53:06.670,-5.875,-15.0001
12:53:06.681,-6.25,-15.6251
12:53:06.690,-5.9375,-16.1251
12:53:06.700,-8.5,-18.0626
12:53:06.717,-9.4375,-21.6251
12:53:06.723,-12.4375,-25.2501
12:53:06.732,-14.3126,-28.9376
12:53:06.740,-17.1251,-32.3126
12:53:06.755,-19.0001,-35.9376
12:53:06.765,-21.8126,-40.1252
12:53:06.771,-22.3751,-39.5627
12:53:06.787,-23.7501,-37.6251
12:53:06.803,-22.7501,-32.9376
12:53:06.806,-21.8126,-23.6876
12:53:06.820,-19.4376,-14.7501
12:53:06.823,-16.0626,-1.6875
12:53:06.838,-12.625,11.6875
12:53:06.842,-8.0625,24.0626
12:53:06.852,-2.4375,37.1876
12:53:06.861,0.25,47.3127
12:53:06.871,3.125,53.1877
12:53:06.880,2.75,56.1877
12:53:06.898,2.9375,56.1252
12:53:06.901,2,54.0002
12:53:06.928,1.5625,50.1877
12:53:06.931,1.5625,47.0002
12:53:06.934,1.6875,43.1252
12:53:06.964,1.4375,39.5002
12:53:06.966,0.5,34.3751
12:53:06.968,-0.9375,28.4376
12:53:06.971,-3.75,20.8751
12:53:07.000,-6.75,13.3126
12:53:07.003,-10.25,4.4375
12:53:07.006,-13.125,-2.75
12:53:07.011,-14.3751,-10.4375
12:53:07.028,-16.0001,-15.5626
12:53:07.032,-17.4376,-20.3751
12:53:07.068,-18.6251,-25.1876
12:53:07.070,-19.6876,-28.6876
12:53:07.072,-20.5001,-31.9376
12:53:07.078,-21.3126,-32.5626
12:53:07.080,-20.5626,-33.6251
12:53:07.090,-21.3126,-33.1251
12:53:07.100,-21.0626,-31.3126
12:53:07.110,-20.0001,-28.5001
12:53:07.121,-18.2501,-22.1251
12:53:07.130,-16.0626,-17.3126
12:53:07.145,-13.6251,-10.4375
12:53:07.150,-11.25,-5.4375
12:53:07.160,-9.4375,0
12:53:07.170,-7.5625,4.5
12:53:07.180,-5.6875,7.625
12:53:07.190,-5.75,10.1875
12:53:07.200,-4.6875,10.5625
12:53:07.210,-4.4375,11.375
12:53:07.221,-5.125,10.6875
12:53:07.230,-8.875,5.3125
12:53:07.240,-10.875,0.25
12:53:07.250,-8.4375,1.625
12:53:07.261,-8.125,3.1875
12:53:07.270,-6.75,3.25
12:53:07.280,-5.875,4
12:53:07.290,-5.1875,3
12:53:07.300,-4.1875,5.0625
12:53:07.310,-3.625,2.6875
12:53:07.320,-3.4375,2.625
12:53:07.331,-3.25,0.25
12:53:07.343,-2.6875,0.6875
12:53:07.352,-2.5,-1.375
12:53:07.362,-2.125,-1.375
12:53:07.370,-1.9375,-2.875
12:53:07.380,-0.875,-2.5
12:53:07.390,-0.375,-3.3125
12:53:07.400,-0.0625,-3.5
12:53:07.410,-0.625,-5.6875
12:53:07.420,-2.375,-7.6875
12:53:07.430,-4.375,-13
12:53:07.440,-6.75,-16.6251
12:53:07.453,-9.8125,-21.6251
12:53:07.460,-12.125,-26.2501
12:53:07.471,-14.8751,-31.0001
12:53:07.480,-17.0001,-33.1251
12:53:07.491,-18.5626,-36.2501
12:53:07.502,-18.3126,-32.3126
12:53:07.516,-17.6876,-28.3751
12:53:07.521,-15.0626,-19.5626
12:53:07.534,-12.625,-7.875
12:53:07.542,-10.5625,0.5625
12:53:07.550,-7.5625,10.75
12:53:07.561,-5.9375,20.1876
12:53:07.570,-2.6875,29.0626
12:53:07.581,-0.75,37.3126
12:53:07.611,0.6875,40.7502
12:53:07.614,1.8125,44.5627
12:53:07.616,0.6875,44.0627
12:53:07.640,-0.3125,40.2502
12:53:07.640,-1.25,36.4376
12:53:07.646,-2.875,31.3126
12:53:07.652,-4.4375,26.4376
12:53:07.687,-5.6875,21.8751
12:53:07.688,-6.6875,15.3751
12:53:07.691,-8.3125,11
12:53:07.695,-9.1875,4.875
12:53:07.732,-10.875,-1.375
12:53:07.734,-12.6875,-6.9375
12:53:07.736,-14.5001,-13.1251
12:53:07.740,-15.5626,-19.0001
12:53:07.744,-16.8126,-22.1876
12:53:07.750,-16.7501,-27.0001
12:53:07.777,-17.6251,-31.2501
12:53:07.780,-19.1876,-34.9376
12:53:07.782,-19.3126,-36.6876
12:53:07.792,-19.8126,-38.3126
12:53:07.804,-18.6251,-36.9376
12:53:07.810,-17.9376,-35.4376
12:53:07.822,-15.8126,-29.7501
12:53:07.831,-13.0625,-24.0001
12:53:07.841,-10.4375,-17.3126
12:53:07.850,-8.1875,-12.3125
12:53:07.860,-7.6875,-8.375
12:53:07.893,-6.875,-5.8125
12:53:07.895,-5.8125,-2.5
12:53:07.897,-4.8125,-0.6875
12:53:07.904,-3.875,3.125
12:53:07.912,-5.625,2.625
12:53:07.921,-7.625,-1.6875
12:53:07.930,-7.1875,-1.3125
12:53:07.941,-5.0625,0.25
12:53:07.950,-3.0625,3.25
12:53:07.960,-2,3.1875
12:53:07.970,-0.0625,5.25
12:53:07.981,0.75,6.875
12:53:07.990,1.9375,7.125
12:53:08.001,3.875,9.125
12:53:08.011,4.875,8.1875
12:53:08.020,6,10.5625
12:53:08.039,6.375,9.9375
12:53:08.047,7.0625,9.25
12:53:08.062,7.125,10.0625
12:53:08.065,7.125,8.1875
12:53:08.079,6.5,6.8125
12:53:08.096,6.4375,5.3125
12:53:08.096,5.5625,2.6875
12:53:08.111,4.1875,-0.4375
12:53:08.114,0.875,-5.8125
12:53:08.128,-1.9375,-10.375
12:53:08.143,-4.5,-16.0626
12:53:08.146,-7.4375,-20.6251
12:53:08.161,-9.9375,-26.9376
12:53:08.163,-12.625,-31.9376
12:53:08.173,-15.1876,-36.9376
12:53:08.181,-18.1251,-42.0002
12:53:08.190,-21.1876,-47.4377
12:53:08.200,-23.1876,-52.8127
12:53:08.210,-26.1876,-59.1252
12:53:08.220,-29.2501,-64.3127
12:53:08.230,-31.8751,-69.3753
12:53:08.241,-33.6251,-75.3128
12:53:08.250,-35.1876,-79.2503
12:53:08.273,-36.1876,-82.6253
12:53:08.276,-37.3751,-86.8128
12:53:08.303,-39.0001,-89.1878
12:53:08.304,-40.2502,-93.5629
12:53:08.307,-40.4377,-92.3129
12:53:08.315,-38.5001,-88.1878
12:53:08.322,-35.9376,-78.0003
12:53:08.357,-31.6876,-64.8127
12:53:08.362,-25.5626,-50.6252
12:53:08.362,-19.1876,-34.1876
12:53:08.369,-14.1251,-19.6251
12:53:08.371,-8.25,-4.625
12:53:08.402,-4.4375,8.875
12:53:08.405,0.1875,19.7501
12:53:08.408,3.5625,27.8126
12:53:08.412,6.25,34.3751
12:53:08.442,7.75,38.3126
12:53:08.445,9.375,41.4377
12:53:08.447,10.25,41.8127
12:53:08.452,10.25,41.0002
12:53:08.461,10.125,39.1877
12:53:08.471,9.6875,36.0626
12:53:08.481,9.25,34.2501
12:53:08.492,8.9375,31.3751
12:53:08.502,10.125,30.6876
12:53:08.512,9.6875,26.9376
12:53:08.521,9.125,26.3126
12:53:08.531,8.375,23.5001
12:53:08.540,7.25,19.3751
12:53:08.550,6.5,16.3751
12:53:08.560,5.375,11.6875
12:53:08.571,4,10.3125
12:53:08.580,1.625,6.1875
12:53:08.590,-1.125,0.125
12:53:08.600,-0.75,-0.6875
12:53:08.610,1.6875,0.875
12:53:08.620,2.0625,4.875
12:53:08.630,3.625,8.125
12:53:08.640,5.8125,12
12:53:08.650,8.25,17.6251
12:53:08.660,11,22.1251
12:53:08.671,12.1875,26.3126
12:53:08.681,15.2501,32.8126
12:53:08.691,17.6876,37.3126
12:53:08.701,20.1876,41.2502
12:53:08.710,22.7501,45.7502
12:53:08.720,23.6251,49.1877
12:53:08.730,26.2501,52.3752
12:53:08.741,27.3126,54.7502
12:53:08.751,27.7501,57.1252
12:53:08.761,27.2501,54.4377
12:53:08.770,24.5626,51.8752
12:53:08.781,22.3751,45.9377
12:53:08.791,18.2501,41.7502
12:53:08.801,15.8126,34.9376
12:53:08.812,12.1875,27.8126
12:53:08.822,8.5,21.5626
12:53:08.832,5.375,14.1251
12:53:08.841,1.875,7.25
12:53:08.852,-1.5625,-0.3125
12:53:08.860,-5.5625,-8.6875
12:53:08.870,-9.5625,-14.8751
12:53:08.881,-12.25,-23.0001
12:53:08.890,-16.3751,-30.5001
12:53:08.900,-18.1251,-37.2501
12:53:08.910,-20.3751,-43.7502
12:53:08.920,-23.6251,-49.8752
12:53:08.930,-25.6251,-55.9377
12:53:08.941,-27.6251,-62.4377
12:53:08.950,-29.5001,-66.1878
12:53:08.961,-29.5001,-72.4378
12:53:08.970,-31.6876,-76.4378
12:53:08.982,-32.1876,-79.8128
12:53:09.001,-32.9376,-84.2503
12:53:09.004,-32.6251,-85.2503
12:53:09.031,-31.0001,-86.6253
12:53:09.033,-29.8126,-85.5628
12:53:09.037,-29.3126,-84.8128
12:53:09.043,-28.1251,-84.4378
12:53:09.069,-28.1876,-82.7503
12:53:09.072,-26.6876,-83.5628
12:53:09.074,-26.8126,-82.3128
12:53:09.080,-27.1251,-82.4378
12:53:09.112,-27.5001,-82.5003
12:53:09.115,-27.6251,-82.3753
12:53:09.117,-28.1876,-83.3128
12:53:09.144,-27.0626,-79.8753
12:53:09.146,-24.2501,-70.5003
12:53:09.149,-20.0001,-58.1877
12:53:09.174,-13.1251,-40.0002
12:53:09.174,-6.6875,-23.0001
12:53:09.177,0.5,-3.0625
12:53:09.182,6.5,15.9376
12:53:09.193,13.6251,34.9376
12:53:09.206,19.5001,52.1252
12:53:09.211,23.2501,62.4377
12:53:09.221,25.0626,71.1878
12:53:09.230,27.9376,77.1253
12:53:09.240,30.6251,83.2503
12:53:09.250,32.5626,85.8753
12:53:09.260,33.8751,88.7503
12:53:09.270,35.3126,88.8128
12:53:09.281,36.1876,90.0628
12:53:09.290,36.6876,87.5003
12:53:09.300,36.3751,86.5003
12:53:09.310,34.5001,80.8753
12:53:09.320,33.1876,77.2503
12:53:09.331,31.3126,72.3753
12:53:09.341,29.2501,67.8128
12:53:09.362,28.2501,63.4377
12:53:09.366,27.5001,60.1877
12:53:09.373,26.3751,55.5002
12:53:09.380,24.5626,52.3127
12:53:09.398,24.0001,48.5002
12:53:09.412,23.5626,47.0627
12:53:09.414,19.0001,40.6252
12:53:09.430,12.0625,28.8126
12:53:09.437,9.3125,24.5001
12:53:09.441,12.0625,27.0626
12:53:09.459,16.1251,33.9376
12:53:09.462,18.6876,39.3127
12:53:09.477,19.8126,42.6877
12:53:09.482,19.6251,46.3752
12:53:09.492,18.5626,46.1252
12:53:09.503,18.4376,47.0002
12:53:09.510,18.6251,47.6252
12:53:09.520,19.7501,51.3752
12:53:09.531,21.7501,55.6252
12:53:09.540,23.4376,57.9377
12:53:09.550,19.5626,54.0002
12:53:09.560,14.1251,46.5002
12:53:09.576,10.8125,39.3126
12:53:09.581,9.9375,36.0626
12:53:09.591,8.4375,33.8751
12:53:09.600,7.8125,31.3126
12:53:09.611,6,27.8751
12:53:09.620,4.25,23.1876
12:53:09.630,1.3125,16.9376
12:53:09.640,-3.5,10.3125
12:53:09.650,-6.1875,3.375
12:53:09.660,-9.875,-5.4375
12:53:09.670,-15.0626,-12.625
12:53:09.681,-18.4376,-20.9376
12:53:09.691,-20.8751,-27.8751
12:53:09.700,-22.8751,-33.5001
12:53:09.711,-24.3751,-38.7501
12:53:09.721,-25.9376,-43.3752
12:53:09.730,-27.5626,-47.5002
12:53:09.741,-29.3126,-50.6877
12:53:09.750,-30.9376,-54.8127
12:53:09.761,-31.0001,-58.4377
12:53:09.770,-32.6876,-60.6877
12:53:09.780,-33.6251,-63.1877
12:53:09.792,-34.3751,-66.3753
12:53:09.800,-34.0626,-68.7503
12:53:09.838,-35.9376,-70.0003
12:53:09.838,-35.2501,-72.3128
12:53:09.842,-35.0001,-70.8753
12:53:09.843,-35.7501,-72.3128
12:53:09.850,-37.3751,-73.9378
12:53:09.880,-29.7501,-58.3752
12:53:09.882,-22.1876,-41.5002
12:53:09.886,-15.6251,-25.6251
12:53:09.909,-10.625,-8.5
12:53:09.911,-4.9375,5.3125
12:53:09.913,0.4375,20.1251
12:53:09.946,2.9375,30.6251
12:53:09.948,6.1875,39.7502
12:53:09.951,6.125,43.8752
12:53:09.957,5.25,44.0002
12:53:09.968,3.6875,43.1252
12:53:09.972,0.6875,39.6877
12:53:09.994,-2.875,33.1876
12:53:09.997,-7.125,25.3751
12:53:10.002,-9.6875,18.0001
12:53:10.010,-12.1875,12.4375
12:53:10.022,-14.5626,6.4375
12:53:10.031,-17.6876,-1.0625
12:53:10.040,-20.5001,-7.25
12:53:10.052,-22.6876,-15.5626
12:53:10.063,-25.5001,-22.6251
12:53:10.070,-27.8751,-28.0001
12:53:10.080,-29.5626,-35.4376
12:53:10.090,-33.2501,-42.6877
12:53:10.100,-36.5001,-50.9377
12:53:10.110,-38.7501,-58.8752
12:53:10.120,-41.7502,-65.3753
12:53:10.130,-42.6877,-69.8753
12:53:10.141,-43.5627,-72.2503
12:53:10.150,-41.5627,-72.1253
12:53:10.161,-41.8752,-71.6878
12:53:10.171,-40.8752,-72.0628
12:53:10.180,-40.0627,-68.7503
12:53:10.190,-39.1251,-67.1878
12:53:10.200,-37.4376,-64.8752
12:53:10.210,-35.9376,-61.5627
12:53:10.221,-35.8126,-60.0002
12:53:10.230,-35.3751,-58.7502
12:53:10.241,-35.0626,-57.3127
12:53:10.253,-34.5001,-58.4377
12:53:10.260,-34.3126,-58.1877
12:53:10.270,-35.1251,-60.0627
12:53:10.281,-34.7501,-60.5002
12:53:10.290,-36.6251,-61.1252
12:53:10.300,-36.7501,-64.3127
12:53:10.310,-37.6876,-66.6878
12:53:10.320,-39.3127,-70.0003
12:53:10.331,-40.0627,-73.0628
12:53:10.342,-40.5002,-75.0003
12:53:10.350,-41.0627,-78.8128
12:53:10.360,-41.8752,-80.6878
12:53:10.372,-42.8752,-84.3128
12:53:10.381,-43.6252,-85.5003
12:53:10.390,-44.2502,-89.1253
12:53:10.401,-44.6877,-91.8129
12:53:10.411,-45.6877,-93.1879
12:53:10.422,-46.3752,-96.9379
12:53:10.452,-46.5627,-98.6254
12:53:10.454,-47.8127,-100.5629
12:53:10.457,-47.5627,-102.8129
12:53:10.462,-48.4377,-105.2504
12:53:10.473,-49.0002,-107.5629
12:53:10.481,-50.4377,-109.2504
12:53:10.491,-50.5002,-113.0629
12:53:10.501,-50.8752,-114.2504
12:53:10.510,-51.5627,-116.7504
12:53:10.521,-51.8127,-119.7505
12:53:10.534,-54.0002,-120.6255
12:53:10.563,-54.4377,-124.938
12:53:10.571,-54.3127,-126.7505
12:53:10.571,-55.4377,-129.0005
12:53:10.573,-56.0002,-131.188
12:53:10.603,-57.1877,-132.313
12:53:10.606,-57.7502,-135.438
12:53:10.609,-57.2502,-135.3755
12:53:10.639,-57.2502,-136.938
12:53:10.643,-56.8127,-135.0005
12:53:10.644,-56.1252,-130.3755
12:53:10.646,-52.5002,-124.313
12:53:10.656,-48.2502,-109.8754
12:53:10.714,-42.8127,-94.5629
12:53:10.723,-36.6876,-77.9378
12:53:10.725,-32.6251,-61.9377
12:53:10.747,-27.4376,-46.7502
12:53:10.749,-22.6251,-31.3126
12:53:10.752,-18.3126,-18.8751
12:53:10.752,-15.0001,-8.125
12:53:10.752,-11.6875,0.25
12:53:10.767,-10.5625,5.8125
12:53:10.782,-8.5625,9.25
12:53:10.784,-8.125,10.75
12:53:10.800,-8.5,9.375
12:53:10.816,-8.6875,6.0625
12:53:10.818,-9.875,4
12:53:10.832,-10.3125,-0.875
12:53:10.837,-11.0625,-4.875
12:53:10.838,-12.3125,-10
12:53:10.846,-12.9375,-13.6251
12:53:10.855,-15.0626,-18.5626
12:53:10.866,-17.0626,-22.7501
12:53:10.875,-17.9376,-28.7501
12:53:10.887,-19.1251,-32.8126
12:53:10.895,-20.8751,-37.0626
12:53:10.906,-22.5001,-43.3752
12:53:10.915,-25.6876,-52.5002
12:53:10.925,-26.7501,-55.5002
12:53:10.936,-26.6251,-58.3127
12:53:10.945,-26.8126,-59.5627
12:53:10.958,-25.8751,-58.4377
12:53:10.966,-26.0001,-58.3752
12:53:10.976,-25.3126,-55.0627
12:53:10.986,-24.2501,-52.7502
12:53:10.995,-23.0001,-48.6877
12:53:11.006,-22.1251,-46.3752
12:53:11.017,-20.6251,-43.5627
12:53:11.026,-20.3126,-40.0002
12:53:11.035,-19.7501,-39.8127
12:53:11.046,-19.0001,-37.8126
12:53:11.056,-19.2501,-38.0626
12:53:11.065,-17.9376,-37.8126
12:53:11.075,-19.7501,-38.8126
12:53:11.086,-19.8751,-39.8127
12:53:11.098,-20.3126,-40.5627
12:53:11.105,-20.0626,-42.6877
12:53:11.122,-20.1251,-43.6252
12:53:11.126,-20.6876,-45.5002
12:53:11.136,-21.1251,-49.0627
12:53:11.146,-23.0001,-50.5002
12:53:11.155,-23.0626,-55.1252
12:53:11.165,-23.8126,-56.0627
12:53:11.175,-24.6876,-59.5002
12:53:11.186,-25.2501,-63.0002
12:53:11.196,-27.1876,-65.8127
12:53:11.234,-28.0001,-69.5003
12:53:11.235,-28.5626,-72.3128
12:53:11.237,-30.0626,-74.5628
12:53:11.240,-30.3126,-78.0003
12:53:11.246,-31.5001,-79.8753
12:53:11.277,-32.3751,-83.5628
12:53:11.280,-32.0001,-85.0003
12:53:11.282,-33.3751,-87.3128
12:53:11.287,-33.0001,-89.5003
12:53:11.316,-34.1251,-91.8129
12:53:11.318,-34.1251,-93.7504
12:53:11.321,-34.8126,-94.1879
12:53:11.351,-35.0001,-97.9379
12:53:11.353,-36.0001,-98.4379
12:53:11.356,-36.7501,-99.8754
12:53:11.361,-36.0626,-102.1254
12:53:11.365,-35.8751,-102.3754
12:53:11.381,-37.0626,-103.8754
12:53:11.385,-37.0001,-104.6879
12:53:11.397,-37.8751,-104.9379
12:53:11.405,-37.0626,-106.0629
12:53:11.416,-37.3751,-104.2504
12:53:11.425,-36.0626,-103.0004
12:53:11.436,-33.8126,-94.6254
12:53:11.450,-29.7501,-81.3128
12:53:11.456,-24.5001,-65.8128
12:53:11.465,-19.4376,-48.0627
12:53:11.476,-13.8751,-32.8126
12:53:11.485,-8.3125,-17.5001
12:53:11.496,-4.9375,-4.0625
12:53:11.505,-0.375,8
12:53:11.515,1.875,18.0626
12:53:11.525,5.3125,24.5001
12:53:11.535,6.4375,29.6876
12:53:11.545,7.5625,31.4376
12:53:11.555,7.9375,31.2501
12:53:11.566,8.3125,30.5626
12:53:11.575,7.25,27.3126
12:53:11.585,7,24.4376
12:53:11.595,5.375,20.6876
12:53:11.605,4.625,15.0626
12:53:11.616,2.25,10.3125
12:53:11.626,1.5,5.3125
12:53:11.636,-0.3125,0.6875
12:53:11.647,-1.75,-5.1875
12:53:11.656,-3.3125,-9.4375
12:53:11.665,-5,-14.2501
12:53:11.675,-6.0625,-20.3126
12:53:11.685,-8.5,-25.8751
12:53:11.695,-10.25,-30.0626
12:53:11.707,-11.3125,-35.9376
12:53:11.732,-12.1875,-38.4376
12:53:11.735,-12,-40.0002
12:53:11.738,-13.5001,-39.5627
12:53:11.746,-12.3125,-38.1876
12:53:11.755,-11.875,-35.5626
12:53:11.766,-10.5625,-32.0001
12:53:11.777,-8.875,-28.8751
12:53:11.786,-7.75,-24.1251
12:53:11.795,-6.75,-21.1876
12:53:11.805,-5.6875,-17.6876
12:53:11.815,-4.75,-15.3126
12:53:11.826,-3.5625,-13.5001
12:53:11.835,-3.8125,-11.0625
12:53:11.845,-3.4375,-12.1875
12:53:11.855,-3.1875,-10.875
12:53:11.873,-4.125,-10.8125
12:53:11.876,-3.25,-13.1876
12:53:11.885,-4.75,-13.5626
12:53:11.895,-5.0625,-16.7501
12:53:11.906,-5.375,-17.9376
12:53:11.916,-6,-19.5001
12:53:11.927,-7.0625,-24.5001
12:53:11.937,-8,-26.1876
12:53:11.946,-9.0625,-28.3751
12:53:11.956,-9.5625,-32.4376
12:53:11.965,-10.875,-34.7501
12:53:11.975,-11.5,-38.6876
12:53:11.987,-12.5,-42.8127
12:53:11.996,-13.3126,-45.0627
12:53:12.024,-15.2501,-49.8752
12:53:12.027,-15.8751,-52.2502
12:53:12.029,-16.6876,-55.2502
12:53:12.036,-17.1251,-57.8127
12:53:12.064,-18.6251,-58.3127
12:53:12.065,-18.9376,-61.5002
12:53:12.098,-18.8126,-62.8752
12:53:12.101,-19.5626,-64.9377
12:53:12.104,-19.5001,-66.8753
12:53:12.104,-20.8751,-68.7503
12:53:12.138,-20.7501,-70.1253
12:53:12.141,-22.0626,-71.4378
12:53:12.143,-21.6876,-72.8128
12:53:12.174,-21.7501,-70.0003
12:53:12.178,-19.4376,-63.8752
12:53:12.178,-16.1876,-52.6252
12:53:12.190,-11.125,-39.5627
12:53:12.206,-6.5625,-23.9376
12:53:12.206,-1.625,-10.25
12:53:12.207,3.25,4.5625
12:53:12.208,6.25,17.0626
12:53:12.224,11.125,28.0626
12:53:12.226,13.7501,38.1251
12:53:12.235,16.1876,43.1877
12:53:12.247,17.8751,47.8127
12:53:12.255,18.6876,49.5627
12:53:12.265,18.7501,48.8127
12:53:12.276,17.7501,46.8752
12:53:12.287,15.8751,42.8127
12:53:12.295,14.9376,39.1251
12:53:12.307,13.8751,34.8126
12:53:12.315,11.8125,29.3751
12:53:12.325,10.5625,23.9376
12:53:12.337,7.75,18.6876
12:53:12.345,6.5625,13.6876
12:53:12.356,4.875,6.6875
12:53:12.365,2.6875,0.9375
12:53:12.375,1,-5.6875
12:53:12.386,-1.1875,-11.4375
12:53:12.396,-2.875,-17.3126
12:53:12.408,-4.3125,-20.6876
12:53:12.416,-4.8125,-24.2501
12:53:12.425,-5.6875,-27.8751
12:53:12.435,-6.5625,-27.5626
12:53:12.445,-5.8125,-28.3751
12:53:12.456,-5.9375,-26.8751
12:53:12.468,-4.75,-23.6876
12:53:12.475,-3.6875,-20.1876
12:53:12.485,-2.25,-17.1876
12:53:12.495,-1.25,-14.5001
12:53:12.505,-0.4375,-11.25
12:53:12.516,0.4375,-7.375
12:53:12.525,1.625,-6.1875
12:53:12.535,1.5625,-5.875
12:53:12.545,2.0625,-4.75
12:53:12.555,1.1875,-4.625
12:53:12.567,1.375,-4.5625
12:53:12.576,1.0625,-6.8125
12:53:12.586,0.3125,-6.625
12:53:12.595,-0.0625,-9.1875
12:53:12.605,-0.375,-9.9375
12:53:12.622,-1.375,-13.3751
12:53:12.627,-2.0625,-15.9376
12:53:12.635,-2.8125,-18.3751
12:53:12.645,-4.125,-21.1251
12:53:12.656,-4.4375,-23.4376
12:53:12.667,-5.8125,-26.5001
12:53:12.676,-6.75,-30.3126
12:53:12.685,-8.0625,-34.4376
12:53:12.695,-9.75,-36.9376
12:53:12.705,-10.3125,-40.2502
12:53:12.718,-11.5,-44.0627
12:53:12.725,-12.9375,-46.7502
12:53:12.737,-13.5626,-49.8127
12:53:12.774,-14.5001,-53.6877
12:53:12.778,-15.8126,-55.5002
12:53:12.778,-16.8126,-57.9377
12:53:12.781,-17.1251,-60.1877
12:53:12.788,-18.1251,-62.1252
12:53:12.816,-18.9376,-64.6252
12:53:12.818,-19.5001,-65.8753
12:53:12.821,-19.8126,-67.8128
12:53:12.827,-19.3751,-66.6878
12:53:12.861,-18.7501,-64.3127
12:53:12.864,-16.0001,-57.4377
12:53:12.865,-12,-44.8127
12:53:12.867,-7,-29.0001
12:53:12.901,-2.4375,-13.6876
12:53:12.902,2.5,1.625
12:53:12.906,7.5,16.8126
12:53:12.909,12.3125,31.4376
12:53:12.917,16.6251,44.0627
12:53:12.925,20.2501,53.1877
12:53:12.936,22.9376,61.8127
12:53:12.946,24.3751,66.6253
12:53:12.956,25.8126,68.0628
12:53:12.966,25.4376,67.6878
12:53:12.977,25.6251,67.0628
12:53:12.985,24.0001,64.8752
12:53:13.012,22.7501,59.8752
12:53:13.015,21.9376,55.5002
12:53:13.017,21.0001,50.0002
12:53:13.027,18.7501,45.2502
12:53:13.037,16.5626,38.8126
12:53:13.046,14.6251,34.0626
12:53:13.055,12.5625,28.1251
12:53:13.066,11.0625,21.6251
12:53:13.076,9.125,16.3751
12:53:13.085,7.375,10.5625
12:53:13.096,4.3125,5
12:53:13.106,3.5625,-0.0625
12:53:13.116,1.5625,-4.1875
12:53:13.126,0.6875,-7
12:53:13.136,-0.0625,-9.0625
12:53:13.145,-1.0625,-8.625
12:53:13.156,0.125,-8.5625
12:53:13.165,0.6875,-6.3125
12:53:13.176,1.25,-3.625
12:53:13.188,1.8125,-1.0625
12:53:13.196,2.875,1.6875
12:53:13.205,3.6875,3.25
12:53:13.215,4.375,5.4375
12:53:13.226,4.625,8.3125
12:53:13.235,5.4375,8.125
12:53:13.246,4.5625,7.75
12:53:13.255,4.5625,7.625
12:53:13.266,4.875,7.5
12:53:13.278,4.0625,6.125
12:53:13.286,3.5,4.8125
12:53:13.295,2.4375,2.625
12:53:13.306,2.25,0.5
12:53:13.316,1.8125,-0.9375
12:53:13.328,0.3125,-3.75
12:53:13.336,-0.375,-6.5625
12:53:13.345,-1.8125,-9.375
12:53:13.356,-2.3125,-12.1875
12:53:13.367,-2.9375,-15.0626
12:53:13.376,-4.1875,-19.0626
12:53:13.386,-5.375,-21.1876
12:53:13.396,-6.125,-24.0626
12:53:13.405,-6.375,-28.0001
12:53:13.417,-8.25,-32.1251
12:53:13.437,-9.1875,-33.9376
12:53:13.439,-10.125,-37.8126
12:53:13.478,-11.0625,-41.3127
12:53:13.511,-12.75,-42.6877
12:53:13.513,-13.2501,-46.3752
12:53:13.515,-14.5001,-49.6252
12:53:13.516,-15.2501,-51.5627
12:53:13.553,-15.9376,-54.0002
12:53:13.556,-16.1876,-56.4377
12:53:13.557,-16.7501,-57.8752
12:53:13.557,-17.4376,-58.8752
12:53:13.589,-17.6251,-60.1877
12:53:13.590,-17.3751,-59.6877
12:53:13.592,-16.5001,-57.0627
12:53:13.596,-13.6251,-50.3752
12:53:13.605,-10.5,-38.8126
12:53:13.616,-5.25,-23.8751
12:53:13.627,-0.9375,-7.8125
12:53:13.635,5.5,9.5625
12:53:13.645,10.75,26.7501
12:53:13.656,16.8126,43.5002
12:53:13.666,21.5626,57.8127
12:53:13.676,26.3751,70.0003
12:53:13.686,29.6251,78.1253
12:53:13.695,31.3751,84.6878
12:53:13.705,32.7501,87.9378
12:53:13.717,32.8751,86.8753
12:53:13.725,31.6876,80.0628
12:53:13.735,29.3126,74.9378
12:53:13.745,27.6876,69.5003
12:53:13.756,25.2501,63.5627
12:53:13.765,23.7501,59.0002
12:53:13.777,21.6876,52.6252
12:53:13.787,19.5001,46.1252
12:53:13.798,17.1876,41.3752
12:53:13.805,15.3751,35.7501
12:53:13.815,13.7501,30.6251
12:53:13.825,12.25,25.3126
12:53:13.837,10.9375,20.1251
12:53:13.845,9.5625,18.2501
12:53:13.855,9.625,15.4376
12:53:13.865,8.25,15.2501
12:53:13.876,9.8125,16.0001
12:53:13.886,8.8125,16.5001
12:53:13.896,9.375,18.3126
12:53:13.905,10,19.6251
12:53:13.916,10,22.6876
12:53:13.925,11.5,24.1876
12:53:13.935,10.875,25.6876
12:53:13.946,11.625,27.8751
12:53:13.957,11.875,28.0001
12:53:13.967,11.8125,28.1876
12:53:13.975,12.5625,28.3751
12:53:13.985,11.5,27.2501
12:53:13.998,11.8125,27.1251
12:53:14.006,10.875,24.8126
12:53:14.016,9.8125,22.5626
12:53:14.025,9.6875,19.3751
12:53:14.038,7.75,16.6251
12:53:14.045,6.625,14.0001
12:53:14.055,5.8125,9.6875
12:53:14.065,4.375,6.0625
12:53:14.078,3.8125,4.5
12:53:14.085,2.4375,0.1875
12:53:14.095,1.1875,-2.125
12:53:14.106,0.9375,-5.75
12:53:14.116,-0.875,-9.125
12:53:14.125,-2.1875,-11.6875
12:53:14.135,-2.8125,-15.3751
12:53:14.146,-3.875,-18.0626
12:53:14.177,-5.1875,-20.8751
12:53:14.179,-6.0625,-22.5001
12:53:14.182,-6.5,-26.2501
12:53:14.187,-7.1875,-29.6876
12:53:14.215,-8.625,-32.3126
12:53:14.217,-9.8125,-34.0001
12:53:14.220,-10.5,-37.7501
12:53:14.246,-11.5,-41.0002
12:53:14.248,-12.625,-43.1877
12:53:14.251,-13.1876,-46.0627
12:53:14.257,-14.6876,-48.2502
12:53:14.293,-15.5001,-50.1252
12:53:14.296,-15.7501,-52.5002
12:53:14.298,-16.5626,-53.6877
12:53:14.300,-16.2501,-56.0002
12:53:14.307,-17.5001,-56.1877
12:53:14.337,-17.1876,-58.1877
12:53:14.340,-18.0001,-57.6252
12:53:14.342,-17.8751,-57.4377
12:53:14.346,-15.6876,-52.5627
12:53:14.355,-11.9375,-42.3127
12:53:14.367,-8.0625,-28.1876
12:53:14.375,-2.5625,-11.4375
12:53:14.386,3.3125,5.4375
12:53:14.395,9.5,23.8126
12:53:14.406,15.1876,38.8126
12:53:14.415,20.2501,55.5002
12:53:14.425,25.5626,68.2503
12:53:14.436,28.6876,78.5003
12:53:14.448,31.2501,85.0628
12:53:14.456,32.4376,87.6253
12:53:14.465,33.1876,89.6253
12:53:14.475,32.0626,89.1878
12:53:14.487,31.8126,84.5003
12:53:14.496,30.1251,81.0003
12:53:14.506,28.3751,74.1878
12:53:14.515,27.2501,69.7503
12:53:14.530,23.1876,62.3752
12:53:14.536,22.9376,57.7502
12:53:14.545,21.4376,52.2502
12:53:14.556,18.6876,46.0002
12:53:14.568,15.6251,39.6252
12:53:14.576,15.1251,34.8126
12:53:14.585,12.125,28.9376
12:53:14.599,9.375,22.4376
12:53:14.606,7.8125,16.5001
12:53:14.616,6.25,13.6876
12:53:14.626,5.1875,8.6875
12:53:14.636,3.9375,5.5
12:53:14.651,4.1875,5.75
12:53:14.661,4.1875,5.3125
12:53:14.671,4.3125,7.8125
12:53:14.680,6,10.5
12:53:14.690,6.75,13.2501
12:53:14.701,8.8125,16.5626
12:53:14.710,8.125,19.3751
12:53:14.721,10.125,23.1251
12:53:14.730,10.8125,26.1251
12:53:14.740,11.4375,26.8126
12:53:14.753,11.625,28.5001
12:53:14.760,12.5625,29.2501
12:53:14.770,11.5,28.9376
12:53:14.781,11.625,27.6251
12:53:14.793,11.0625,26.2501
12:53:14.801,10.375,24.5001
12:53:14.810,9,20.4376
12:53:14.820,8.9375,18.2501
12:53:14.874,7,15.0626
12:53:14.909,5.5625,11.625
12:53:14.937,3.875,6.875
12:53:14.969,2.625,3.5
12:53:14.972,1.5,-0.3125
12:53:14.972,-0.0625,-5.5
12:53:14.972,-1.9375,-8.875
12:53:14.976,-3.25,-13
12:53:14.978,-4.3125,-18.1251
12:53:15.010,-5.625,-20.3751
12:53:15.010,-6.875,-24.0626
12:53:15.010,-7.25,-27.9376
12:53:15.013,-8.4375,-31.0001
12:53:15.033,-9.875,-34.0626
12:53:15.036,-11.125,-36.4376
12:53:15.037,-10.9375,-38.5001
12:53:15.042,-12,-42.3127
12:53:15.051,-13.2501,-44.1877
12:53:15.061,-13.8126,-46.8127
12:53:15.070,-15.0626,-47.3127
12:53:15.081,-15.1876,-48.4377
12:53:15.091,-15.7501,-49.8752
12:53:15.100,-15.6876,-51.0002
12:53:15.110,3.125,4.75
12:53:15.120,9.375,20.1876
12:53:15.133,14.7501,36.0626
12:53:15.141,20.3126,49.4377
12:53:15.150,24.0626,60.1877
12:53:15.162,27.3751,68.8753
12:53:15.171,28.3751,74.7503
12:53:15.180,29.5001,76.6878
12:53:15.190,30.3126,76.5628
12:53:15.202,29.6876,73.8128
12:53:15.210,28.0626,69.8753
12:53:15.220,26.6876,65.5003
12:53:15.231,25.1251,59.5002
12:53:15.242,23.3126,54.0002
12:53:15.250,20.6251,48.3127
12:53:15.261,18.9376,42.0002
12:53:15.271,16.4376,35.6251
12:53:15.281,14.3126,29.1251
12:53:15.291,12.375,22.2501
12:53:15.300,9.8125,16.9376
12:53:15.312,7.75,9.875
12:53:15.320,6,5.375
12:53:15.330,5.125,0.9375
12:53:15.341,4.125,-1.375
12:53:15.353,3.25,-4.3125
12:53:15.360,3.3125,-3
12:53:15.371,3.4375,-3.875
12:53:15.381,3.875,-1.6875
12:53:15.390,5.3125,1.75
12:53:15.400,5.3125,3.75
12:53:15.410,6.5,7.4375
12:53:15.422,6.75,10.25
12:53:15.430,8,12.25
12:53:15.441,8.0625,13.2501
12:53:15.450,8.1875,14.0626
12:53:15.460,8.6875,14.4376
12:53:15.470,8.5625,14.3126
12:53:15.480,7.625,13.5626
12:53:15.491,7.4375,12.4375
12:53:15.500,6.5,10.3125
12:53:15.510,5.8125,7.625
12:53:15.520,5.25,6.375
12:53:15.530,4.125,2.625
12:53:15.540,2.875,0
12:53:15.572,1.5625,-3.4375
12:53:15.576,0.25,-6.3125
12:53:15.577,-0.875,-8.875
12:53:15.582,-0.9375,-13.5001
12:53:15.612,-3.25,-16.6251
12:53:15.614,-5.0625,-20.6251
12:53:15.617,-5.875,-24.2501
12:53:15.643,-7.75,-27.5626
12:53:15.643,-8.4375,-31.0626
12:53:15.647,-9.5625,-35.4376
12:53:15.651,-11.4375,-37.8126
12:53:15.668,-12.8125,-41.7502
12:53:15.672,-13.5626,-45.6877
12:53:15.715,-13.9376,-48.3127
12:53:15.716,-14.9376,-50.1252
12:53:15.718,-15.8751,-52.6252
12:53:15.724,-16.6251,-55.0627
12:53:15.724,-17.4376,-56.4377
12:53:15.732,-18.4376,-58.7502
12:53:15.741,-18.6251,-60.8752
12:53:15.751,-18.8126,-61.4377
12:53:15.761,-19.0626,-62.3752
12:53:15.771,-19.6876,-61.5002
12:53:15.783,-17.1876,-56.2502
12:53:15.792,-13.8751,-46.8127
12:53:15.801,-9.9375,-34.0626
12:53:15.813,-5.125,-17.5001
12:53:15.820,0.5625,-1.0625
12:53:15.830,7.9375,18.0001
12:53:15.841,13.5001,34.5626
12:53:15.850,18.8126,50.8127
12:53:15.861,23.5001,62.9377
12:53:15.870,26.5626,72.5003
12:53:15.883,29.1876,80.0003
12:53:15.890,30.5001,82.7503
12:53:15.901,30.8126,83.7503
12:53:15.913,30.0626,80.8128
12:53:15.921,28.4376,78.3128
12:53:15.930,27.1251,72.9378
12:53:15.941,25.1251,68.0628
12:53:15.950,22.6251,61.7502
12:53:15.961,20.2501,56.0002
12:53:15.970,18.8751,51.3752
12:53:15.982,17.3126,44.0627
12:53:15.990,15.1251,40.0627
12:53:16.000,13,33.3751
12:53:16.011,10.5625,28.0626
12:53:16.021,8.625,20.9376
12:53:16.031,6.5,15.8751
12:53:16.041,4.5625,10.125
12:53:16.051,2.6875,4.5
12:53:16.060,1.5,2.125
12:53:16.070,0.4375,-0.5625
12:53:16.082,1.125,-0.25
12:53:16.090,0.6875,-0.4375
12:53:16.100,1.3125,1.375
12:53:16.111,2.0625,4.125
12:53:16.121,3.4375,6.8125
12:53:16.130,4.75,9.4375
12:53:16.141,4.3125,12.3125
12:53:16.150,5.875,14.3751
12:53:16.162,5.875,16.8126
12:53:16.170,6.3125,17.5626
12:53:16.183,6.875,18.8126
12:53:16.190,6.4375,17.9376
12:53:16.200,5.875,16.1251
12:53:16.242,4.8125,14.4376
12:53:16.247,4.5,13.5626
12:53:16.249,3.375,9.3125
12:53:16.253,2.9375,7.6875
12:53:16.253,1.25,2.75
12:53:16.269,-0.3125,0.3125
12:53:16.270,-1,-2.9375
12:53:16.285,-2.3125,-6.75
12:53:16.297,-3.625,-9.875
12:53:16.300,-5.1875,-14.1876
12:53:16.312,-5.8125,-16.9376
12:53:16.320,-7.375,-20.3751
12:53:16.330,-8.75,-22.6251
12:53:16.348,-8.5625,-26.1251
12:53:16.350,-10.75,-29.0626
12:53:16.381,-10.5625,-31.3751
12:53:16.383,-11.0625,-34.0626
12:53:16.385,-12.1875,-35.0001
12:53:16.392,-12.875,-37.5001
12:53:16.421,-12.625,-40.0627
12:53:16.423,-13.6251,-41.3127
12:53:16.425,-14.0626,-43.0002
12:53:16.432,-13.8751,-44.5627
12:53:16.467,-15.1876,-46.5002
12:53:16.473,-15.7501,-48.1877
12:53:16.473,-16.2501,-50.4377
12:53:16.478,-16.8751,-52.8127
12:53:16.480,-17.0626,-53.6877
12:53:16.514,-18.0626,-55.1877
12:53:16.518,-18.5001,-57.5627
12:53:16.520,-18.6251,-59.5627
12:53:16.521,-20.1876,-61.3752
12:53:16.535,-20.8126,-63.1252
12:53:16.541,-20.8751,-64.5002
12:53:16.551,-21.1876,-65.7503
12:53:16.561,-21.6876,-67.3753
12:53:16.571,-22.0001,-66.5628
12:53:16.583,-22.2501,-68.1878
12:53:16.590,-21.2501,-65.7503
12:53:16.601,-19.0626,-60.2502
12:53:16.612,-15.5001,-49.6252
12:53:16.621,-10.75,-34.5626
12:53:16.631,-5.1875,-16.0626
12:53:16.642,1.3125,2.3125
12:53:16.651,7.375,19.9376
12:53:16.660,14.3751,38.6251
12:53:16.672,19.8126,55.3752
12:53:16.681,24.5626,69.3753
12:53:16.690,28.8126,80.5628
12:53:16.700,31.0626,86.5003
12:53:16.711,32.5001,90.2503
12:53:16.721,33.1876,91.0004
12:53:16.730,32.3751,89.2503
12:53:16.744,32.4376,84.8128
12:53:16.751,29.6251,80.3753
12:53:16.760,28.2501,75.3753
12:53:16.770,25.5626,69.7503
12:53:16.780,23.3751,63.8127
12:53:16.790,21.8126,58.3752
12:53:16.802,20.2501,52.9377
12:53:16.811,18.0626,46.2502
12:53:16.820,15.5626,42.7502
12:53:16.852,13.9376,36.0001
12:53:16.855,12.1875,30.7501
12:53:16.857,9.8125,24.3751
12:53:16.862,7.9375,19.6876
12:53:16.871,6.5,14.6251
12:53:16.881,3.875,11.125
12:53:16.891,4.125,8.375
12:53:16.901,2.875,7.0625
12:53:16.911,2.8125,7.0625
12:53:16.920,3.625,7.875
12:53:16.931,3.8125,10.0625
12:53:16.940,4.6875,12.75
12:53:16.951,5.625,14.3126
12:53:16.961,6.8125,18.3751
12:53:16.971,7.1875,19.7501
12:53:16.981,7.625,22.2501
12:53:16.990,7.9375,23.1876
12:53:17.003,7.875,23.0001
12:53:17.011,8.375,23.4376
12:53:17.021,7,22.2501
12:53:17.032,6.4375,20.6876
12:53:17.041,5.6875,19.3751
12:53:17.052,6,16.5626
12:53:17.061,4,14.4376
12:53:17.070,2.9375,10.75
12:53:17.081,1.75,6.875
12:53:17.091,0.3125,3
12:53:17.102,-1.4375,-0.5
12:53:17.111,-2.1875,-5.375
12:53:17.143,-3.9375,-9.375
12:53:17.145,-5.6875,-13.3126
12:53:17.147,-6.875,-17.0626
12:53:17.150,-8,-20.6251
12:53:17.190,-8.9375,-23.5626
12:53:17.193,-10.0625,-27.5001
12:53:17.194,-11.125,-29.6251
12:53:17.197,-12.25,-33.2501
12:53:17.202,-12.9375,-36.1251
12:53:17.232,-14.0001,-38.5626
12:53:17.233,-14.5001,-40.0002
12:53:17.237,-15.6251,-43.0002
12:53:17.262,-15.8126,-44.9377
12:53:17.265,-16.6251,-47.0627
12:53:17.267,-17.7501,-48.6252
12:53:17.296,-18.4376,-52.0627
12:53:17.296,-18.7501,-52.7502
12:53:17.298,-20.1876,-54.9377
12:53:17.305,-21.0001,-58.4377
12:53:17.312,-20.8751,-59.9377
12:53:17.323,-22.7501,-63.0002
12:53:17.333,-23.6251,-63.8752
12:53:17.340,-23.5001,-66.3753
12:53:17.350,-23.9376,-67.4378
12:53:17.363,-24.3126,-69.0003
12:53:17.370,-25.3126,-69.6878
12:53:17.380,-24.5626,-71.3753
12:53:17.390,-25.0626,-71.1253
12:53:17.402,-25.8126,-73.6253
12:53:17.411,-25.9376,-73.2503
12:53:17.421,-25.4376,-72.8753
12:53:17.432,-24.1251,-67.8753
12:53:17.441,-20.6876,-60.0627
12:53:17.450,-16.4376,-46.0627
12:53:17.460,-10.6875,-31.1876
12:53:17.473,-5,-13.125
12:53:17.481,1,4.1875
12:53:17.491,7.1875,22.1876
12:53:17.503,12.875,38.0626
12:53:17.511,17.6876,52.0002
12:53:17.520,22.0001,61.1877
12:53:17.531,25.4376,70.3753
12:53:17.540,26.6251,73.9378
12:53:17.557,28.1251,75.6253
12:53:17.572,27.7501,74.1253
12:53:17.574,26.9376,72.6878
12:53:17.589,25.1251,67.4378
12:53:17.607,23.8126,62.3752
12:53:17.608,21.3751,55.3127
12:53:17.610,19.6876,50.1877
12:53:17.621,17.1251,43.7502
12:53:17.631,14.8126,39.0001
12:53:17.641,12.875,31.8126
12:53:17.651,10.5625,26.5626
12:53:17.661,9.25,20.2501
12:53:17.670,6.75,15.0001
12:53:17.680,4.5,9.875
12:53:17.690,2.9375,3.375
12:53:17.701,1.25,-0.625
12:53:17.710,0.0625,-3.5
12:53:17.720,-1.625,-5.8125
12:53:17.731,-1.625,-5.1875
12:53:17.741,-1.375,-5.375
12:53:17.750,-0.8125,-3.5
12:53:17.761,0.6875,-0.125
12:53:17.771,2.3125,3.875
12:53:17.780,2.5,7.1875
12:53:17.793,4.125,11
12:53:17.800,4.5,13.8126
12:53:17.810,5.3125,16.1876
12:53:17.820,6,17.5626
12:53:17.831,5.6875,20.6251
12:53:17.848,6.75,19.9376
12:53:17.850,6,20.3126
12:53:17.880,6.125,18.4376
12:53:17.882,4.25,17.2501
12:53:17.884,3.75,13.8751
12:53:17.891,3.5,12.1875
12:53:17.917,1.8125,8.875
12:53:17.921,0.375,4.3125
12:53:17.922,-0.75,1.75
12:53:17.958,-2.1875,-1.8125
12:53:17.960,-3.375,-5.5
12:53:17.963,-4.375,-9.125
12:53:17.967,-6.1875,-12.8125
12:53:17.983,-7.75,-16.1876
12:53:17.984,-9,-21.1251
12:53:18.013,-10.4375,-23.3751
12:53:18.016,-11.625,-28.1251
12:53:18.018,-13,-30.8751
12:53:18.020,-14.7501,-34.7501
12:53:18.030,-15.8751,-39.0001
12:53:18.040,-16.6876,-41.1252
12:53:18.051,-17.8751,-45.5627
12:53:18.066,-18.2501,-47.9377
12:53:18.070,-19.9376,-50.5002
12:53:18.081,-21.4376,-53.3752
12:53:18.090,-22.3126,-56.2502
12:53:18.100,-22.5626,-57.3127
12:53:18.133,-22.9376,-60.4377
12:53:18.136,-24.0626,-60.3752
12:53:18.138,-24.1251,-61.8127
12:53:18.142,-24.8126,-63.7502
12:53:18.151,-24.8126,-64.5002
12:53:18.160,-24.3751,-64.5627
12:53:18.171,-22.8751,-61.5627
12:53:18.180,-19.6876,-55.4377
12:53:18.191,-15.0001,-45.1877
12:53:18.206,-8.0625,-29.6876
12:53:18.217,-1.25,-11.9375
12:53:18.225,6.125,7.75
12:53:18.236,14.5001,28.3126
12:53:18.248,22.7501,48.7502
12:53:18.256,32.2501,69.6878
12:53:18.265,42.0002,89.5003
12:53:18.278,51.3127,108.7504
12:53:18.285,61.0627,125.563
12:53:18.296,70.9378,142.0005
12:53:18.305,82.4378,158.8756
12:53:18.316,93.4379,175.5632
12:53:18.325,97.8754,183.1257
12:53:18.335,100.3754,186.6882
12:53:18.346,100.3754,185.3132
12:53:18.356,99.6254,183.3757
12:53:18.365,97.6254,179.2507
12:53:18.375,96.5004,176.0632
12:53:18.386,96.1879,173.1882
12:53:18.395,95.4379,169.9381
12:53:18.405,94.1879,166.3131
12:53:18.417,93.6879,160.7506
12:53:18.425,93.5629,158.0631
12:53:18.439,92.6254,152.5006
12:53:18.446,85.6878,141.438
12:53:18.456,78.2503,128.563
12:53:18.465,70.7503,114.6254
12:53:18.476,65.3752,107.1879
12:53:18.486,62.6877,100.0004
12:53:18.496,60.0002,96.5629
12:53:18.505,58.8752,93.8129
12:53:18.515,57.6252,93.2504
12:53:18.526,56.6252,93.1254
12:53:18.535,55.5002,91.8129
12:53:18.546,54.0627,91.0004
12:53:18.555,53.6252,90.0628
12:53:18.583,51.6252,88.8753
12:53:18.589,50.3752,87.1253
12:53:18.589,44.7502,81.8753
12:53:18.619,35.6251,68.6253
12:53:18.622,28.5626,58.3127
12:53:18.628,26.8751,53.0002
12:53:18.629,31.6251,57.7502
12:53:18.658,41.8127,70.7503
12:53:18.661,51.1252,83.1878
12:53:18.663,60.6877,95.0004
12:53:18.668,69.3753,107.7504
12:53:18.699,76.9378,117.438
12:53:18.702,82.0003,122.6255
12:53:18.704,83.6878,124.5005
12:53:18.712,82.6878,122.3755
12:53:18.738,84.0003,119.813
12:53:18.740,86.3753,121.3755
12:53:18.743,86.0003,119.8755
12:53:18.750,80.8128,112.1254
12:53:18.763,74.0003,99.2504
12:53:18.771,64.5627,84.8128
12:53:18.781,56.4377,69.6878
12:53:18.791,43.5002,49.6252
12:53:18.800,38.0626,35.6251
12:53:18.814,37.0626,32.3751
12:53:18.821,35.1876,26.6876
12:53:18.831,32.1876,20.6876
12:53:18.851,28.5001,16.4376
12:53:18.857,26.8126,10.5625
12:53:18.860,21.6251,4.0625
12:53:18.883,10.625,-11.25
12:53:18.886,-0.125,-27.0626
12:53:18.901,-5.3125,-37.3751
12:53:18.903,-3.625,-38.6251
12:53:18.919,2.375,-29.5626
12:53:18.924,14.6876,-14.0001
12:53:18.931,30.6251,10.5
12:53:18.940,42.0002,30.5626
12:53:18.951,47.5002,41.0002
12:53:18.961,50.5627,46.1252
12:53:18.971,52.0002,48.3752
12:53:18.981,49.0627,45.7502
12:53:18.990,48.5627,41.0002
12:53:19.003,49.3127,41.1877
12:53:19.011,52.0627,44.3127
12:53:19.020,51.3127,43.6877
12:53:19.031,49.0002,41.4377
12:53:19.041,50.3127,47.6877
12:53:19.052,45.8752,49.1877
12:53:19.060,37.0001,44.8127
12:53:19.071,12.3125,21.6251
12:53:19.084,1.6875,9.0625
12:53:19.090,12.6875,29.6251
12:53:19.101,17.1876,44.0002
12:53:19.112,25.1251,58.9377
12:53:19.120,28.5001,71.7503
12:53:19.130,27.3751,74.7503
12:53:19.141,22.3126,69.6878
12:53:19.150,23.0626,70.9378
12:53:19.161,26.9376,74.5628
12:53:19.170,33.6876,84.3128
12:53:19.180,45.5002,98.9379
12:53:19.191,57.3752,116.5004
12:53:19.200,66.8753,130.313
12:53:19.210,72.9378,140.5005
12:53:19.221,78.6878,147.188
12:53:19.230,84.5003,153.2506
12:53:19.241,86.0628,154.1256
12:53:19.259,83.5628,146.938
12:53:19.261,80.8128,140.688
12:53:19.289,69.8128,123.2505
12:53:19.292,59.7502,106.1879
12:53:19.296,52.6877,91.5629
12:53:19.300,43.4377,74.6253
12:53:19.326,31.5626,54.3752
12:53:19.330,20.1876,34.8126
12:53:19.330,11.1875,19.1876
12:53:19.355,6.8125,8.8125
12:53:19.361,5.75,4.9375
12:53:19.361,7.8125,8.75
12:53:19.402,8.5,12
12:53:19.405,7.0625,13.4376
12:53:19.408,2.4375,8.25
12:53:19.421,0.625,8.125
12:53:19.423,2.1875,11.875
12:53:19.425,6.375,18.6876
12:53:19.435,15.3126,32.7501
12:53:19.447,25.5626,49.0002
12:53:19.456,34.5001,65.6252
12:53:19.465,40.8752,76.9378
12:53:19.477,47.8127,89.5003
12:53:19.486,58.3752,103.3754
12:53:19.495,62.5002,110.5629
12:53:19.505,63.1252,110.0629
12:53:19.516,60.5002,106.0629
12:53:19.526,49.8127,91.3754
12:53:19.535,40.8127,76.1878
12:53:19.546,32.3751,62.6877
12:53:19.558,23.3126,45.3752
12:53:19.573,8.375,19.8751
12:53:19.576,-1.0625,2.875
12:53:19.586,-6.75,-11.6875
12:53:19.596,-8.3125,-18.1876
12:53:19.606,-9.375,-22.3751
12:53:19.615,-11.5,-26.3126
12:53:19.625,-16.7501,-35.0001
12:53:19.636,-25.2501,-46.5002
12:53:19.646,-29.8126,-56.7502
12:53:19.656,-28.8751,-57.5002
12:53:19.665,-22.8126,-50.5002
12:53:19.676,-12,-34.2501
12:53:19.686,-0.3125,-15.8126
12:53:19.695,9.1875,-0.8125
12:53:19.705,16.5626,12.6875
12:53:19.716,24.7501,23.1251
12:53:19.725,31.3126,33.3751
12:53:19.736,34.3126,36.5001
12:53:19.747,36.0626,37.8126
12:53:19.756,30.4376,29.3751
12:53:19.765,16.0001,7.9375
12:53:19.778,5.375,-8.5
12:53:19.785,-4.1875,-25.2501
12:53:19.795,-16.8751,-45.5627
12:53:19.806,-26.5626,-64.2502
12:53:19.815,-34.6876,-78.4378
12:53:19.826,-37.5626,-87.3128
12:53:19.836,-36.1251,-86.8753
12:53:19.846,-32.0001,-82.6878
12:53:19.856,-27.5001,-70.9378
12:53:19.865,-25.7501,-57.5627
12:53:19.876,-24.0001,-45.3127
12:53:19.886,-19.0001,-29.9376
12:53:19.895,-8.4375,-5.75
12:53:19.908,6.375,23.8126
12:53:19.916,20.7501,54.6252
12:53:19.925,34.5001,84.3753
12:53:19.936,49.1252,111.1254
12:53:19.946,63.7502,139.3755
12:53:19.957,80.5628,165.5006
12:53:19.966,90.4379,186.3757
12:53:20.004,93.1254,191.6257
12:53:20.006,90.5629,190.1882
12:53:20.010,73.6253,169.1256
12:53:20.016,62.0002,148.0631
12:53:20.017,48.8752,127.813
12:53:20.050,33.0626,101.1879
12:53:20.053,20.0001,76.0003
12:53:20.053,8.875,54.6877
12:53:20.056,1.4375,35.1251
12:53:20.087,-0.9375,26.2501
12:53:20.090,-0.625,21.0001
12:53:20.092,-4.25,13.6876
12:53:20.096,-12.5625,-0.9375
12:53:20.130,-19.9376,-15.3751
12:53:20.132,-21.0626,-19.6876
12:53:20.134,-15.4376,-15.3126
12:53:20.139,-3.5,1.0625
12:53:20.159,9.625,22.3126
12:53:20.160,21.3126,42.1252
12:53:20.166,32.3751,62.0627
12:53:20.182,44.1877,78.9378
12:53:20.197,49.1877,90.5629
12:53:20.200,49.0627,90.0003
12:53:20.215,50.7502,91.3754
12:53:20.229,53.0627,95.5004
12:53:20.232,48.0002,92.3754
12:53:20.237,37.3751,79.2503
12:53:20.246,27.8126,66.1878
12:53:20.255,15.3751,49.8127
12:53:20.268,3.0625,31.3126
12:53:20.276,-6.3125,13.4376
12:53:20.286,-18.8751,-6
12:53:20.296,-13.6251,-6.5
12:53:20.305,-8.0625,0.5625
12:53:20.319,-4.5,4.5
12:53:20.326,-2.1875,6.375
12:53:20.335,-3.25,4.375
12:53:20.345,-7.4375,-2.0625
12:53:20.356,-13.6251,-12.625
12:53:20.365,-16.4376,-18.1876
12:53:20.376,-12.6875,-15.5001
12:53:20.385,-7,-10.5
12:53:20.396,-1.9375,-1.6875
12:53:20.406,5.75,8.375
12:53:20.418,11.1875,16.4376
12:53:20.425,14.3126,21.8126
12:53:20.437,18.3751,26.5001
12:53:20.446,25.1876,33.0001
12:53:20.456,30.8751,39.4377
12:53:20.468,31.0001,38.8126
12:53:20.476,29.9376,35.1876
12:53:20.486,19.8126,21.6876
12:53:20.496,12.5625,7.875
12:53:20.505,2.875,-6.125
12:53:20.519,-8.25,-25.3751
12:53:20.525,-19.5001,-44.6252
12:53:20.536,-31.4376,-64.2502
12:53:20.545,-42.6877,-84.5003
12:53:20.555,-48.0002,-97.6879
12:53:20.566,-46.6877,-100.1879
12:53:20.575,-43.7502,-98.3754
12:53:20.586,-43.8752,-97.6254
12:53:20.595,-46.8752,-99.3754
12:53:20.605,-48.0627,-98.0629
12:53:20.615,-43.8127,-87.1253
12:53:20.625,-35.6876,-66.8753
12:53:20.636,-24.4376,-42.0002
12:53:20.646,-10.625,-12.625
12:53:20.655,5.875,20.0001
12:53:20.666,20.8751,51.0002
12:53:20.692,35.0626,81.6878
12:53:20.694,52.3752,111.8129
12:53:20.697,67.0003,140.063
12:53:20.723,77.0628,157.1881
12:53:20.726,79.1253,165.7506
12:53:20.729,71.1253,157.6256
12:53:20.736,62.9377,146.188
12:53:20.770,56.6252,135.563
12:53:20.772,47.0627,121.438
12:53:20.774,32.8126,97.0629
12:53:20.798,13,65.8128
12:53:20.799,-10.6875,23.8751
12:53:20.802,-11.875,11.1875
12:53:20.807,-10.8125,8.125
12:53:20.838,-8.25,3.0625
12:53:20.841,-8.8125,-0.6875
12:53:20.842,-11.5,-8.1875
12:53:20.846,-22.1251,-23.1251
12:53:20.869,-30.8751,-39.0626
12:53:20.872,-32.5626,-46.3752
12:53:20.876,-29.3751,-45.1252
12:53:20.885,-20.7501,-36.4376
12:53:20.896,-6.125,-14.3751
12:53:20.905,8.5,10.25
12:53:20.915,18.8126,30.3751
12:53:20.925,28.6251,47.7502
12:53:20.936,36.8126,60.8127
12:53:20.945,43.0627,72.8753
12:53:20.957,45.8127,76.3753
12:53:20.966,41.6877,74.5628
12:53:20.978,32.4376,61.0627
12:53:20.986,27.8126,55.9377
12:53:21.001,22.8751,49.1877
12:53:21.011,14.0001,36.5626
12:53:21.021,1.875,18.9376
12:53:21.031,-13.1875,-2.6875
12:53:21.040,-34.7501,-37.8126
