timestamp,Red,IR
14:39:03.763,-2.0625,29.4376
14:39:03.772,-0.5625,32.8751
14:39:03.782,0.25,35.0626
14:39:03.793,0.5,36.1876
14:39:03.803,0.9375,36.1876
14:39:03.813,1.875,36.8126
14:39:03.822,1.8125,35.9376
14:39:03.832,0.8125,35.1251
14:39:03.844,1.5625,33.7501
14:39:03.852,0.75,32.1251
14:39:03.863,0.625,31.6876
14:39:03.873,1.5,29.3126
14:39:03.882,1.3125,28.3751
14:39:03.893,0.625,26.3126
14:39:03.904,0.0625,25.7501
14:39:03.912,0.5625,23.5001
14:39:03.922,0.125,20.8751
14:39:03.932,-0.25,21.1251
14:39:03.942,-0.0625,19.6876
14:39:03.952,0.5,18.4376
14:39:03.962,0.25,18.5626
14:39:03.972,0.0625,19.3751
14:39:03.982,0.6875,20.4376
14:39:03.992,0.625,19.8751
14:39:04.002,0.6875,20.4376
14:39:04.012,0.8125,22.0001
14:39:04.022,0.8125,21.8126
14:39:04.032,0.25,20.6251
14:39:04.042,-0.25,20.5626
14:39:04.053,-0.375,20.5626
14:39:04.062,0.1875,19.6876
14:39:04.072,-1.4375,17.2501
14:39:04.082,-2,16.7501
14:39:04.092,-1.75,15.3126
14:39:04.102,-2.8125,12.75
14:39:04.112,-4.0625,11.9375
14:39:04.122,-3.25,9.3125
14:39:04.132,-4.1875,6.8125
14:39:04.142,-5.8125,4.0625
14:39:04.167,-5.0625,1.75
14:39:04.173,-6.3125,-0.1875
14:39:04.208,-6.1875,-1.5625
14:39:04.211,-6.5625,-4
14:39:04.214,-8.125,-4.9375
14:39:04.242,-8.4375,-7.75
14:39:04.242,-8.875,-10.5625
14:39:04.245,-9.3125,-12.4375
14:39:04.272,-9.75,-15.0626
14:39:04.298,-10.5625,-16.6251
14:39:04.298,-9.4375,-17.1251
14:39:04.298,-10.5625,-18.5626
14:39:04.301,-10.125,-18.6876
14:39:04.304,-9.3125,-19.6876
14:39:04.307,-10.3125,-20.4376
14:39:04.329,-10.4375,-21.6876
14:39:04.331,-10.25,-23.7501
14:39:04.335,-10.6875,-25.3126
14:39:04.342,-11,-26.8126
14:39:04.352,-11.3125,-28.2501
14:39:04.362,-11.5625,-28.0001
14:39:04.377,-11.4375,-27.4376
14:39:04.382,-11.1875,-26.5001
14:39:04.392,-10.0625,-20.1251
14:39:04.403,-8.375,-13.1251
14:39:04.431,-6,-3.25
14:39:04.436,-4,4.8125
14:39:04.436,-2.1875,13.1876
14:39:04.442,-0.75,21.0626
14:39:04.454,1.75,27.8751
14:39:04.462,4.1875,34.8751
14:39:04.472,5.1875,39.5627
14:39:04.487,6.625,43.4377
14:39:04.497,6.9375,45.8127
14:39:04.507,8.5625,47.3127
14:39:04.517,8.4375,47.5627
14:39:04.527,8.75,47.2502
14:39:04.537,8.6875,46.4377
14:39:04.547,8,46.0627
14:39:04.557,8.3125,43.0627
14:39:04.567,7.5625,40.8127
14:39:04.577,7.25,41.1252
14:39:04.587,7.0625,38.5001
14:39:04.597,5.8125,34.6876
14:39:04.607,6,33.7501
14:39:04.617,4.8125,31.8751
14:39:04.627,5.1875,30.0626
14:39:04.637,3.9375,27.5001
14:39:04.647,2.5625,26.9376
14:39:04.657,2.8125,23.9376
14:39:04.667,1.6875,21.6876
14:39:04.677,1,21.8126
14:39:04.687,1.0625,22.5626
14:39:04.697,1.4375,21.7501
14:39:04.707,1.5625,21.6876
14:39:04.717,1.8125,24.1251
14:39:04.727,1.625,23.1251
14:39:04.737,0.875,23.2501
14:39:04.752,-0.125,23.6876
14:39:04.757,0.25,22.5626
14:39:04.768,-0.6875,20.2501
14:39:04.777,-1.4375,19.5001
14:39:04.787,-1.125,17.7501
14:39:04.797,-1.9375,16.0626
14:39:04.807,-2.875,14.2501
14:39:04.817,-3.375,12.5625
14:39:04.828,-4.25,9.5625
14:39:04.837,-5.375,7.625
14:39:04.847,-5.4375,4.9375
14:39:04.858,-6.6875,1.375
14:39:04.867,-7.9375,0.0625
14:39:04.877,-7.9375,-2.6875
14:39:04.889,-8.9375,-5.8125
14:39:04.897,-9.5625,-7.375
14:39:04.907,-9.8125,-9.5
14:39:04.921,-10.5625,-11.9375
14:39:04.927,-11.6875,-12.625
14:39:04.959,-11,-16.1876
14:39:04.961,-11.9375,-16.8126
14:39:04.962,-12.5,-19.9376
14:39:04.969,-12.875,-21.4376
14:39:04.997,-13,-22.6251
14:39:05.000,-12.9375,-24.3751
14:39:05.002,-12.8125,-25.2501
14:39:05.008,-13.2501,-24.9376
14:39:05.035,-12.625,-27.1876
14:39:05.037,-13.5001,-27.3751
14:39:05.044,-12.75,-29.1876
14:39:05.066,-13,-29.6876
14:39:05.068,-12.9375,-31.4376
14:39:05.071,-13.8751,-32.5001
14:39:05.077,-13.8751,-32.7501
14:39:05.094,-14.2501,-35.0626
14:39:05.097,-13.7501,-35.3126
14:39:05.107,-13.7501,-37.0001
14:39:05.117,-14.1251,-37.0626
14:39:05.127,-12.875,-35.8126
14:39:05.137,-13.3751,-33.0626
14:39:05.147,-11.8125,-27.6251
14:39:05.157,-10.625,-19.5626
14:39:05.168,-7.875,-10.75
14:39:05.177,-6.375,-2.25
14:39:05.187,-3.3125,6.6875
14:39:05.197,-1.75,14.0001
14:39:05.207,-0.4375,22.1876
14:39:05.217,1.6875,28.0626
14:39:05.229,3.375,34.1876
14:39:05.237,4.375,36.5626
14:39:05.247,6,38.9376
14:39:05.257,5.375,41.0627
14:39:05.267,5.5,39.6252
14:39:05.277,6.125,39.1251
14:39:05.287,5,38.1876
14:39:05.297,5,35.6876
14:39:05.308,4,35.0001
14:39:05.317,3.9375,33.1876
14:39:05.327,4.375,32.0626
14:39:05.338,3.6875,31.0001
14:39:05.347,3.9375,30.4376
14:39:05.357,3.125,28.1251
14:39:05.368,2.8125,27.5001
14:39:05.378,2.6875,24.8126
14:39:05.387,2.8125,23.5626
14:39:05.399,2.5,22.2501
14:39:05.407,1.3125,21.2501
14:39:05.417,0.9375,20.3126
14:39:05.427,1.0625,21.6876
14:39:05.437,0.8125,20.1251
14:39:05.448,0.6875,19.3751
14:39:05.457,-0.125,18.5626
14:39:05.468,-0.4375,20.3751
14:39:05.477,0.5625,20.1251
14:39:05.487,-0.125,19.8126
14:39:05.502,-0.5625,19.3126
14:39:05.507,-0.3125,19.5001
14:39:05.526,-1.0625,18.6876
14:39:05.532,-0.9375,16.8751
14:39:05.537,-1.9375,16.6876
14:39:05.555,-1.5625,14.8126
14:39:05.557,-2.75,13.125
14:39:05.572,-4.1875,10
14:39:05.587,-4.6875,8.375
14:39:05.590,-4.8125,5.875
14:39:05.600,-6.125,2.9375
14:39:05.608,-7.25,0.625
14:39:05.641,-7.0625,-0.25
14:39:05.656,-6.875,-2.5625
14:39:05.660,-8.625,-5.1875
14:39:05.674,-9.1875,-7
14:39:05.674,-9.875,-8.8125
14:39:05.675,-10.125,-12.1875
14:39:05.677,-10.9375,-13.4376
14:39:05.687,-11.0625,-15.5001
14:39:05.728,-11.0625,-17.6251
14:39:05.730,-11.625,-19.3126
14:39:05.734,-11.8125,-19.4376
14:39:05.735,-11.75,-22.2501
14:39:05.737,-12.4375,-23.1251
14:39:05.773,-12.1875,-23.8126
14:39:05.775,-13.3751,-26.1251
14:39:05.777,-13.8126,-26.3751
14:39:05.785,-13.3126,-27.8751
14:39:05.793,-13.6876,-29.7501
14:39:05.797,-14.1251,-30.6251
14:39:05.822,-13.9376,-31.9376
14:39:05.825,-14.7501,-32.3126
14:39:05.827,-14.5001,-33.5626
14:39:05.854,-14.5626,-36.1251
14:39:05.856,-15.6251,-36.0001
14:39:05.859,-15.7501,-38.5001
14:39:05.883,-16.5001,-39.5002
14:39:05.886,-16.2501,-40.4377
14:39:05.891,-16.2501,-41.8752
14:39:05.897,-15.6876,-42.4377
14:39:05.907,-15.8126,-40.8127
14:39:05.917,-15.4376,-38.7501
14:39:05.927,-13.5626,-34.0001
14:39:05.937,-12.0625,-25.5001
14:39:05.948,-10.0625,-17.0626
14:39:05.957,-7.8125,-9
14:39:05.967,-5.4375,-0.8125
14:39:05.977,-3.875,7.5625
14:39:05.988,-1.6875,14.7501
14:39:05.997,-0.125,20.7501
14:39:06.007,1.3125,24.8126
14:39:06.017,2,28.6251
14:39:06.027,2.6875,29.5626
14:39:06.038,2.8125,31.3751
14:39:06.047,2.625,31.0626
14:39:06.058,3.75,30.0626
14:39:06.067,2.4375,29.8126
14:39:06.077,2.375,27.3751
14:39:06.087,2.75,27.0626
14:39:06.098,1.9375,26.5001
14:39:06.107,2,22.8126
14:39:06.118,1.125,23.1251
14:39:06.127,1.1875,20.6251
14:39:06.137,0.375,19.5001
14:39:06.147,0.3125,18.3751
14:39:06.157,-0.4375,16.6251
14:39:06.167,-0.5,14.5626
14:39:06.177,-1.375,12.8125
14:39:06.187,-2.0625,10.9375
14:39:06.197,-2.9375,8.75
14:39:06.208,-2.875,7.9375
14:39:06.217,-3.5625,7.75
14:39:06.228,-4.0625,6.5
14:39:06.237,-4.5,7.0625
14:39:06.248,-4.75,7.6875
14:39:06.257,-4.125,7.3125
14:39:06.267,-5.25,7.3125
14:39:06.277,-4.875,8.25
14:39:06.287,-5.375,6.4375
14:39:06.298,-5.8125,6.75
14:39:06.307,-5.75,5.4375
14:39:06.318,-6.4375,5.25
14:39:06.327,-7.3125,4.25
14:39:06.364,-7.0625,0.625
14:39:06.371,-8.3125,-1.6875
14:39:06.371,-8.625,-2.25
14:39:06.374,-9.125,-5.25
14:39:06.403,-10.0625,-6.4375
14:39:06.406,-9.5625,-9
14:39:06.409,-11.0625,-10.9375
14:39:06.410,-11.375,-11.8125
14:39:06.441,-11.3125,-14.3126
14:39:06.443,-12,-17.4376
14:39:06.445,-12.6875,-19.3751
14:39:06.481,-12.875,-21.0626
14:39:06.481,-14.1876,-23.5001
14:39:06.484,-14.1876,-25.1876
14:39:06.485,-14.8751,-26.7501
14:39:06.489,-15.4376,-27.7501
14:39:06.520,-16.3751,-30.3126
14:39:06.525,-16.1876,-32.3751
14:39:06.525,-17.0001,-33.3751
14:39:06.530,-17.3126,-36.1251
14:39:06.537,-18.6251,-37.2501
14:39:06.547,-18.5626,-39.7502
14:39:06.557,-19.3126,-40.5627
14:39:06.567,-18.5001,-41.9377
14:39:06.578,-19.5001,-43.1252
14:39:06.587,-20.0001,-43.3127
14:39:06.597,-20.8126,-45.0002
14:39:06.609,-20.7501,-46.0002
14:39:06.619,-20.5626,-47.4377
14:39:06.634,-21.2501,-47.8752
14:39:06.637,-20.8751,-49.5627
14:39:06.648,-21.6876,-50.8752
14:39:06.657,-22.0626,-51.8127
14:39:06.667,-22.7501,-53.4377
14:39:06.677,-23.2501,-55.8752
14:39:06.687,-23.7501,-57.8752
14:39:06.697,-24.1876,-57.5627
14:39:06.707,-24.5626,-59.8752
14:39:06.718,-24.0001,-58.5627
14:39:06.727,-24.0626,-55.3127
14:39:06.737,-23.0626,-48.8127
14:39:06.747,-21.6876,-41.5002
14:39:06.758,-20.3751,-33.5626
14:39:06.768,-17.9376,-26.0001
14:39:06.777,-16.7501,-18.3751
14:39:06.787,-15.5626,-12.25
14:39:06.797,-14.5001,-6.6875
14:39:06.807,-13,-2.75
14:39:06.818,-11.625,1.625
14:39:06.827,-11.5,3.0625
14:39:06.837,-10.5625,4.25
14:39:06.847,-10.25,5.75
14:39:06.857,-9.9375,4.875
14:39:06.869,-9.375,5.3125
14:39:06.888,-8.75,5.1875
14:39:06.891,-8.4375,4.8125
14:39:06.919,-9.0625,4.5625
14:39:06.921,-8.625,2.5
14:39:06.928,-8.5625,2.375
14:39:06.928,-8.375,0
14:39:06.953,-7.75,-0.4375
14:39:06.968,-8.4375,-1.4375
14:39:06.970,-8.25,-2.375
14:39:06.971,-7.6875,-4.5
14:39:06.986,-8.75,-5.0625
14:39:07.002,-8.8125,-6.875
14:39:07.002,-9.4375,-7.0625
14:39:07.014,-8.75,-8.4375
14:39:07.018,-9.6875,-6.875
14:39:07.027,-8.9375,-8.4375
14:39:07.037,-9.4375,-6.875
14:39:07.047,-8.0625,-7.0625
14:39:07.057,-9,-5
14:39:07.067,-8.5625,-5.375
14:39:07.077,-8.4375,-4.875
14:39:07.087,-8.1875,-4.1875
14:39:07.097,-8.25,-4.5625
14:39:07.107,-7.75,-3.6875
14:39:07.117,-8.9375,-5.875
14:39:07.127,-8.75,-6.875
14:39:07.151,-9.875,-7.3125
14:39:07.153,-9.3125,-9.6875
14:39:07.157,-9,-9.5
14:39:07.188,-9.375,-11.3125
14:39:07.190,-8.8125,-13.1251
14:39:07.193,-9.25,-13.8126
14:39:07.197,-9.4375,-15.6876
14:39:07.234,-9.625,-16.1251
14:39:07.235,-9.9375,-17.6876
14:39:07.238,-9.3125,-19.0626
14:39:07.269,-9.0625,-20.8751
14:39:07.270,-10,-21.1876
14:39:07.273,-10.1875,-22.8126
14:39:07.277,-9.0625,-24.1876
14:39:07.279,-10.4375,-24.7501
14:39:07.289,-10.8125,-26.8751
14:39:07.320,-10.3125,-28.1876
14:39:07.322,-11.6875,-28.8126
14:39:07.323,-11.375,-31.6251
14:39:07.327,-11.5,-32.5001
14:39:07.337,-12.0625,-34.3126
14:39:07.347,-13.4376,-34.6876
14:39:07.357,-14.0001,-36.6876
14:39:07.368,-14.3126,-39.1251
14:39:07.377,-14.9376,-40.3127
14:39:07.388,-15.6876,-42.7502
14:39:07.397,-15.7501,-43.9377
14:39:07.409,-17.1251,-45.8752
14:39:07.417,-17.4376,-46.0627
14:39:07.428,-18.3126,-49.2502
14:39:07.437,-18.6251,-48.8752
14:39:07.447,-18.8126,-50.2502
14:39:07.457,-18.5001,-48.7502
14:39:07.467,-17.5626,-45.1877
14:39:07.477,-16.0001,-39.4377
14:39:07.487,-15.1251,-31.5001
14:39:07.497,-13,-24.6876
14:39:07.507,-12.375,-16.2501
14:39:07.517,-10.25,-10.6875
14:39:07.528,-8.625,-3.6875
14:39:07.537,-7.5625,1.125
14:39:07.547,-6.875,6.3125
14:39:07.557,-5.3125,8.4375
14:39:07.567,-5.5,11.5625
14:39:07.578,-4.0625,11.125
14:39:07.587,-4.875,12.4375
14:39:07.598,-4.4375,11.3125
14:39:07.607,-4.1875,11.8125
14:39:07.617,-3.75,10.6875
14:39:07.628,-4.4375,9.4375
14:39:07.637,-3.9375,7.0625
14:39:07.648,-4.25,6.75
14:39:07.657,-4.4375,4.8125
14:39:07.667,-4.625,5.4375
14:39:07.677,-3.8125,2.3125
14:39:07.687,-4.9375,2.1875
14:39:07.698,-4.5,0.25
14:39:07.707,-4.9375,-0.0625
14:39:07.717,-4.75,-2.25
14:39:07.728,-5.125,-4.0625
14:39:07.737,-5.5625,-5.3125
14:39:07.747,-5.875,-6
14:39:07.763,-6.4375,-6
14:39:07.768,-6,-6.0625
14:39:07.777,-6.0625,-6.625
14:39:07.787,-6.8125,-5.8125
14:39:07.797,-6.1875,-5.0625
14:39:07.807,-6.625,-4.5
14:39:07.817,-5.8125,-3.5625
14:39:07.827,-6.125,-4.375
14:39:07.837,-6.5,-4.1875
14:39:07.847,-6.6875,-4.75
14:39:07.857,-6.9375,-5.625
14:39:07.868,-7.0625,-5.0625
14:39:07.877,-6.8125,-8
14:39:07.887,-7.3125,-7.75
14:39:07.912,-7.4375,-10.125
14:39:07.916,-8.125,-10.375
14:39:07.917,-7.6875,-13.2501
14:39:07.953,-8.5,-14.0626
14:39:07.956,-8.6875,-16.9376
14:39:07.960,-9.1875,-17.4376
14:39:07.962,-9.5625,-20.9376
14:39:07.991,-10.1875,-20.6876
14:39:07.994,-10.25,-24.3126
14:39:07.996,-10.9375,-25.1251
14:39:08.003,-11.6875,-27.2501
14:39:08.015,-12,-29.1876
14:39:08.046,-12.6875,-30.8126
14:39:08.050,-12,-32.0626
14:39:08.051,-13.4376,-33.5626
14:39:08.055,-12.6875,-35.1251
14:39:08.080,-13.5626,-37.2501
14:39:08.082,-13.2501,-37.2501
14:39:08.085,-14.1876,-38.8126
14:39:08.092,-13.7501,-39.9377
14:39:08.102,-14.6251,-40.4377
14:39:08.112,-13.8751,-41.1252
14:39:08.122,-14.0001,-41.2502
14:39:08.140,-14.0626,-42.8127
14:39:08.143,-14.6876,-43.9377
14:39:08.153,-14.5626,-44.5627
14:39:08.162,-15.1876,-46.3752
14:39:08.173,-14.7501,-47.0002
14:39:08.199,-15.8751,-47.9377
14:39:08.201,-16.1876,-49.5002
14:39:08.205,-16.3751,-49.1252
14:39:08.212,-15.6251,-46.5627
14:39:08.222,-15.1876,-40.8752
14:39:08.237,-13.5001,-35.6876
14:39:08.246,-12.5625,-27.3126
14:39:08.252,-10.8125,-19.8751
14:39:08.280,-9.3125,-13.6251
14:39:08.282,-8.375,-7.3125
14:39:08.298,-7.3125,-1.625
14:39:08.300,-5.8125,2.1875
14:39:08.316,-5.375,6.5
14:39:08.332,-4.375,7.9375
14:39:08.333,-4,9.8125
14:39:08.340,-3.125,10.125
14:39:08.342,-3.1875,10.8125
14:39:08.352,-2.3125,10.5625
14:39:08.362,-1.5,9.9375
14:39:08.372,-1.0625,9.8125
14:39:08.381,-1.5,9.25
14:39:08.392,-0.3125,8.25
14:39:08.402,-0.875,7.5
14:39:08.412,-0.625,7.6875
14:39:08.422,-1.125,6.25
14:39:08.432,-1.25,3
14:39:08.442,-1.3125,2.625
14:39:08.452,-0.6875,1.5625
14:39:08.463,-0.875,-0.5625
14:39:08.472,-2.0625,-1.0625
14:39:08.481,-1.8125,-2.6875
14:39:08.497,-2.125,-3.125
14:39:08.513,-2.375,-3.25
14:39:08.517,-2.4375,-5.0625
14:39:08.532,-3.3125,-4.25
14:39:08.537,-2.6875,-5.25
14:39:08.568,-3.375,-5.3125
14:39:08.571,-3.4375,-4.125
14:39:08.573,-3.1875,-3.8125
14:39:08.577,-4.1875,-4.125
14:39:08.609,-4.375,-4.1875
14:39:08.611,-4.5,-4.8125
14:39:08.613,-4.625,-5.3125
14:39:08.640,-5,-7.625
14:39:08.642,-5.375,-7.625
14:39:08.644,-6.0625,-9
14:39:08.649,-6.5,-11.5625
14:39:08.676,-7.5625,-13.4376
14:39:08.679,-7.6875,-15.4376
14:39:08.681,-9.0625,-16.8751
14:39:08.706,-9.5625,-19.8751
14:39:08.712,-9.6875,-21.8751
14:39:08.713,-11,-24.3126
14:39:08.719,-11.25,-25.4376
14:39:08.731,-11.8125,-26.6251
14:39:08.737,-12.3125,-29.1876
14:39:08.747,-12.3125,-30.1876
14:39:08.756,-11.875,-31.6876
14:39:08.766,-12.3125,-32.2501
14:39:08.776,-12.75,-33.9376
14:39:08.787,-13.3751,-35.1251
14:39:08.796,-13.1876,-37.1251
14:39:08.807,-13.8126,-37.4376
14:39:08.817,-13.1876,-39.5002
14:39:08.827,-13.8751,-39.0626
14:39:08.836,-14.1876,-41.3752
14:39:08.847,-13.9376,-41.6252
14:39:08.856,-13.8126,-41.9377
14:39:08.868,-13.0625,-43.7502
14:39:08.876,-14.8126,-44.4377
14:39:08.891,-14.5001,-46.1877
14:39:08.897,-15.1251,-47.2502
14:39:08.907,-14.8126,-48.2502
14:39:08.916,-15.1251,-48.6252
14:39:08.927,-14.2501,-47.2502
14:39:08.937,-13.3126,-44.0627
14:39:08.947,-13.1251,-39.2502
14:39:08.956,-11.875,-31.3126
14:39:08.967,-10.3125,-24.3126
14:39:08.976,-9,-17.5001
14:39:08.987,-7.6875,-11.0625
14:39:08.997,-7.1875,-5.6875
14:39:09.007,-5.875,-1.125
14:39:09.017,-5.1875,2.9375
14:39:09.027,-5.1875,4.6875
14:39:09.036,-5.125,6.875
14:39:09.047,-4.6875,6.5625
14:39:09.057,-3.9375,8.25
14:39:09.068,-4.4375,6.25
14:39:09.076,-4.1875,6.0625
14:39:09.087,-4.6875,4.625
14:39:09.096,-4.5625,3.625
14:39:09.106,-5.4375,1.25
14:39:09.116,-5.625,0
14:39:09.126,-5.875,-2.125
14:39:09.137,-6.125,-2.6875
14:39:09.147,-6.4375,-5
14:39:09.156,-6.6875,-5.875
14:39:09.166,-7.5,-8.4375
14:39:09.176,-8,-9.5
14:39:09.187,-8.4375,-12.4375
14:39:09.196,-9.4375,-13.0625
14:39:09.206,-9.125,-14.7501
14:39:09.216,-9.875,-15.1876
14:39:09.226,-9.375,-15.3751
14:39:09.237,-10,-15.3126
14:39:09.246,-10.1875,-15.8751
14:39:09.257,-11.125,-15.5626
14:39:09.271,-10.875,-15.8751
14:39:09.278,-11.8125,-16.5001
14:39:09.287,-11.9375,-16.8126
14:39:09.317,-12.875,-17.2501
14:39:09.319,-13.3751,-18.1251
14:39:09.321,-14.0626,-17.7501
14:39:09.328,-14.0626,-20.1251
14:39:09.352,-14.1876,-20.0001
14:39:09.355,-14.4376,-18.6876
14:39:09.357,-13.3126,-21.0626
14:39:09.386,-12.9375,-20.5001
14:39:09.389,-12.375,-21.4376
14:39:09.391,-13,-21.7501
14:39:09.396,-11.4375,-23.3751
14:39:09.428,-11.625,-22.0626
14:39:09.430,-11.875,-25.6876
14:39:09.433,-11.8125,-25.7501
14:39:09.439,-11.9375,-28.1876
14:39:09.450,-12.6875,-29.1876
14:39:09.478,-12.6875,-30.3751
14:39:09.480,-13,-31.9376
14:39:09.483,-13.6251,-33.3751
14:39:09.486,-13.7501,-34.9376
14:39:09.497,-14.0626,-35.3126
14:39:09.506,-13.2501,-36.4376
14:39:09.517,-13.8126,-37.5626
14:39:09.526,-13.8751,-39.6877
14:39:09.536,-14.7501,-41.1877
14:39:09.551,-14.8751,-41.4377
14:39:09.558,-16.1251,-42.8127
14:39:09.567,-15.4376,-44.3127
14:39:09.582,-15.1876,-44.5627
14:39:09.590,-15.3751,-44.5627
14:39:09.609,-15.0001,-41.6252
14:39:09.611,-13.4376,-38.6251
14:39:09.620,-12.4375,-31.3751
14:39:09.627,-10.5625,-22.9376
14:39:09.648,-7.75,-16.1876
14:39:09.651,-6.0625,-8.4375
14:39:09.669,-4.5,-1.4375
14:39:09.670,-1.8125,4.0625
14:39:09.676,-0.125,9.875
14:39:09.686,1.875,14.3751
14:39:09.696,2.25,18.0001
14:39:09.706,4.0625,20.1876
14:39:09.717,4.75,20.8126
14:39:09.726,5.5,22.2501
14:39:09.736,5.3125,20.8751
14:39:09.747,4.75,21.1876
14:39:09.756,5.5625,19.3126
14:39:09.766,5.125,18.8126
14:39:09.776,5.0625,16.9376
14:39:09.786,5,15.4376
14:39:09.796,5,15.0001
14:39:09.806,4.625,12.25
14:39:09.816,3.8125,11
14:39:09.826,4.625,9.0625
14:39:09.836,2.9375,6.375
14:39:09.846,2.25,6.8125
14:39:09.856,2.1875,3.3125
14:39:09.866,1.25,1.0625
14:39:09.876,0.875,1.6875
14:39:09.887,0.9375,-0.25
14:39:09.896,0.5625,-0.3125
14:39:09.906,0.625,-0.5
14:39:09.916,0.25,0.9375
14:39:09.926,0.4375,0.625
14:39:09.936,-0.375,1.5
14:39:09.946,0.625,2.1875
14:39:09.958,0.75,2.75
14:39:09.966,0.1875,4.1875
14:39:09.976,0.75,2.375
14:39:09.986,0.1875,4.0625
14:39:09.996,0.8125,2.625
14:39:10.006,0.875,1.625
14:39:10.018,1.75,2.3125
14:39:10.026,1.625,0.9375
14:39:10.056,1.5625,0.5625
14:39:10.059,2.3125,-0.3125
14:39:10.061,1.8125,-1.8125
14:39:10.067,0.9375,-3.875
14:39:10.102,1.0625,-3.8125
14:39:10.104,1.4375,-5.4375
14:39:10.109,0.5,-7.4375
14:39:10.132,0.5,-7.3125
14:39:10.132,0.8125,-8.875
14:39:10.135,0.75,-10.3125
14:39:10.142,-0.1875,-12.0625
14:39:10.168,-0.8125,-11.6875
14:39:10.172,-0.4375,-13.1876
14:39:10.173,-1.0625,-15.8126
14:39:10.199,-1.125,-16.4376
14:39:10.200,-1.375,-17.7501
14:39:10.203,-2.6875,-19.2501
14:39:10.207,-2.375,-21.4376
14:39:10.217,-3.875,-23.6876
14:39:10.226,-4.5,-25.2501
14:39:10.236,-4.875,-25.4376
14:39:10.246,-5.1875,-26.8126
14:39:10.256,-5.5,-25.5001
14:39:10.266,-4.5,-23.8751
14:39:10.277,-4.25,-19.3126
14:39:10.286,-2.5,-12.4375
14:39:10.296,-1.8125,-4.6875
14:39:10.306,-1,2.625
14:39:10.316,1.0625,8.0625
14:39:10.327,1.5625,14.9376
14:39:10.336,3.0625,18.5626
14:39:10.346,3.5625,23.6876
14:39:10.356,4.6875,26.4376
14:39:10.366,4.6875,29.3751
14:39:10.376,6.125,29.8126
14:39:10.386,5.5625,30.9376
14:39:10.396,6.5625,30.6251
14:39:10.408,5.8125,31.8126
14:39:10.416,6.125,29.1251
14:39:10.427,5.5625,29.0626
14:39:10.436,5.6875,27.2501
14:39:10.446,5.9375,25.1876
14:39:10.456,5.5625,26.0001
14:39:10.467,5.625,23.3126
14:39:10.476,4.875,21.6251
14:39:10.486,5.125,20.5001
14:39:10.496,4.3125,18.6876
14:39:10.506,3.5,16.0626
14:39:10.516,3.1875,14.3751
14:39:10.526,3.0625,13.6251
14:39:10.536,2.125,11.1875
14:39:10.546,1.1875,12.125
14:39:10.556,1.5,9.9375
14:39:10.566,0.75,8.8125
14:39:10.576,0.4375,8.9375
14:39:10.586,0.3125,9.125
14:39:10.596,0.8125,8.3125
14:39:10.606,0.125,9.3125
14:39:10.616,0.4375,9.0625
14:39:10.626,0.1875,8.3125
14:39:10.637,0.75,9.5625
14:39:10.646,0.875,8.6875
14:39:10.656,0.5,8.1875
14:39:10.666,0.6875,7.5625
14:39:10.676,0.9375,7.0625
14:39:10.686,0.625,5.4375
14:39:10.696,0.625,5.625
14:39:10.706,1.625,4.8125
14:39:10.716,1.125,2.625
14:39:10.726,1.1875,1.5
14:39:10.759,1.9375,1.875
14:39:10.762,2.5,-0.375
14:39:10.766,2.125,-1.5
14:39:10.767,0.75,-3.875
14:39:10.795,-0.4375,-5.4375
14:39:10.800,-0.3125,-7.8125
14:39:10.803,-0.9375,-9.5
14:39:10.807,-1.625,-11.3125
14:39:10.829,-2.125,-13.4376
14:39:10.831,-3.125,-15.8126
14:39:10.858,-3.375,-17.1251
14:39:10.860,-3.625,-18.1251
14:39:10.924,-4.0625,-20.7501
14:39:10.935,-5.4375,-23.3751
14:39:10.952,-6.375,-24.5001
14:39:10.952,-6.8125,-26.6251
14:39:10.952,-6.75,-29.2501
14:39:10.953,-8.25,-28.0626
14:39:10.968,-7.875,-28.3751
14:39:10.982,-7.8125,-23.8126
14:39:10.986,-6.5625,-17.7501
14:39:10.999,-5,-10.0625
14:39:11.016,-3.6875,-2.75
14:39:11.019,-2.25,4.5
14:39:11.021,-0.375,9.5
14:39:11.027,-0.0625,16.1876
14:39:11.036,1.0625,20.3126
14:39:11.046,2.5625,23.7501
14:39:11.056,2.9375,25.6251
14:39:11.066,3.4375,28.6251
14:39:11.076,3.75,28.6876
14:39:11.086,3.875,28.7501
14:39:11.096,4.8125,28.0001
14:39:11.107,3.8125,27.2501
14:39:11.116,4.3125,26.0626
14:39:11.126,4.1875,23.7501
14:39:11.137,3.8125,23.1251
14:39:11.146,3.75,20.9376
14:39:11.156,2.8125,19.5626
14:39:11.166,1.8125,18.5626
14:39:11.176,1.5625,16.0626
14:39:11.186,1.625,14.0001
14:39:11.196,0.8125,11.8125
14:39:11.206,0.75,11.875
14:39:11.216,1.4375,10.8125
14:39:11.227,0.9375,9.375
14:39:11.236,0.5,10.25
14:39:11.246,1.625,10.5
14:39:11.256,1.5625,10.3125
14:39:11.266,1.6875,11.75
14:39:11.276,1.75,13.6876
14:39:11.294,2.75,12.75
14:39:11.296,3.1875,13.1251
14:39:11.306,2.625,14.8126
14:39:11.316,3.6875,13.6251
14:39:11.326,2.625,12.875
14:39:11.336,1.6875,10.875
14:39:11.346,1.6875,11.375
14:39:11.356,1.8125,9.9375
14:39:11.366,1.3125,8.5
14:39:11.376,0.6875,7.375
14:39:11.386,-0.0625,5.3125
14:39:11.396,-0.625,3.625
14:39:11.406,-1.25,1.3125
14:39:11.416,-2.9375,-2.25
14:39:11.426,-3.6875,-3.25
14:39:11.436,-3.25,-6.375
14:39:11.446,-4.9375,-9.0625
14:39:11.456,-5.4375,-9.875
14:39:11.466,-5.9375,-11.5625
14:39:11.476,-6.4375,-14.6251
14:39:11.486,-7.25,-16.8126
14:39:11.506,-8.375,-18.1876
14:39:11.507,-8.8125,-20.1251
14:39:11.516,-9.375,-22.3126
14:39:11.544,-10.1875,-25.1251
14:39:11.546,-10.875,-25.3751
14:39:11.548,-11.0625,-28.0626
14:39:11.556,-11.0625,-29.8751
14:39:11.581,-10.8125,-28.4376
14:39:11.584,-10.375,-25.8126
14:39:11.586,-9.5,-22.8126
14:39:11.618,-7.8125,-15.5626
14:39:11.621,-6.1875,-7.75
14:39:11.622,-3.75,0.5
14:39:11.629,-2.25,9.0625
14:39:11.637,0.3125,15.7501
14:39:11.671,1.8125,23.4376
14:39:11.672,4.25,29.1876
14:39:11.675,5.4375,34.1251
14:39:11.679,6.9375,36.8126
14:39:11.691,7.125,37.9376
14:39:11.695,7.25,38.7501
14:39:11.706,7.875,38.3126
14:39:11.717,7.6875,38.3126
14:39:11.726,7.6875,37.0001
14:39:11.736,7.4375,37.3126
14:39:11.746,8.75,36.0001
14:39:11.756,8.75,36.2501
14:39:11.766,8.875,34.0001
14:39:11.776,8.6875,34.9376
14:39:11.786,9.4375,31.5626
14:39:11.796,8.1875,31.6876
14:39:11.806,8.875,29.3126
14:39:11.816,8.3125,27.1876
14:39:11.826,7.625,25.5626
14:39:11.836,7.375,23.8126
14:39:11.846,7.0625,23.5001
14:39:11.856,7.125,21.6876
14:39:11.866,5.375,20.0001
14:39:11.876,5.6875,22.3751
14:39:11.886,6.125,20.2501
14:39:11.897,4.625,19.7501
14:39:11.906,4.875,20.7501
14:39:11.916,5.1875,20.3751
14:39:11.926,4.5625,20.9376
14:39:11.936,4.75,21.3751
14:39:11.946,4.9375,19.6876
14:39:11.956,4.5625,18.6876
14:39:11.966,3.8125,20.0001
14:39:11.976,4.75,19.1876
14:39:11.986,4.4375,16.3751
14:39:11.996,3.25,15.1251
14:39:12.006,3.6875,14.7501
14:39:12.037,3.5,12.8125
14:39:12.040,2.75,10.3125
14:39:12.043,2.0625,8.4375
14:39:12.048,1.75,7.625
14:39:12.057,1.5625,5
14:39:12.069,0.75,4
14:39:12.076,0.875,2.1875
14:39:12.086,0.875,-0.0625
14:39:12.096,0.0625,-1.5
14:39:12.107,-0.25,-1.625
14:39:12.116,0.1875,-4
14:39:12.126,-0.5,-6
14:39:12.137,-1.1875,-7.5625
14:39:12.146,-1.5625,-9
14:39:12.156,-2.25,-11.5
14:39:12.166,-2.9375,-13.5001
14:39:12.176,-3.25,-13.8126
14:39:12.186,-2.9375,-14.9376
14:39:12.196,-3.125,-13.6876
14:39:12.229,-2.5,-11
14:39:12.292,-1.4375,-4.5
14:39:12.292,-0.375,2.5625
14:39:12.295,1.8125,10.75
14:39:12.328,3.5,19.0001
14:39:12.333,5.25,25.4376
14:39:12.333,7.3125,33.6876
14:39:12.333,8.5625,38.5001
14:39:12.364,9.625,43.5002
14:39:12.367,10.0625,45.8752
14:39:12.398,10.75,49.5002
14:39:12.400,11.0625,50.0627
14:39:12.401,11.8125,50.4377
14:39:12.404,11.5,50.9377
14:39:12.410,11.8125,48.6877
14:39:12.413,11.625,49.0002
14:39:12.416,11.5625,47.6877
14:39:12.426,11.25,45.3127
14:39:12.436,11.5625,45.8752
14:39:12.446,11.1875,43.3752
14:39:12.456,10.875,41.9377
14:39:12.466,10.5,40.4377
14:39:12.476,10.375,38.3751
14:39:12.486,10.125,37.2501
14:39:12.496,11.125,38.2501
14:39:12.506,11.625,37.6876
14:39:12.516,11.6875,38.7501
14:39:12.526,11.5,39.5627
14:39:12.538,11.5,40.0002
14:39:12.547,11.125,40.6252
14:39:12.556,11.25,40.4377
14:39:12.566,11.375,39.3127
14:39:12.578,10.5625,37.0001
14:39:12.591,9.5,37.2501
14:39:12.602,10.25,35.5001
14:39:12.611,9.625,33.6251
14:39:12.626,8.625,31.6251
14:39:12.636,8.125,30.5626
14:39:12.646,7.6875,27.9376
14:39:12.656,7.0625,25.8751
14:39:12.666,6.8125,24.0626
14:39:12.676,6.1875,22.8126
14:39:12.686,6.1875,19.0001
14:39:12.696,4.75,16.9376
14:39:12.706,4.6875,16.2501
14:39:12.716,4.375,12.9375
14:39:12.726,3.9375,11.375
14:39:12.736,3.25,10.0625
14:39:12.746,2.75,7.25
14:39:12.756,1.8125,4.75
14:39:12.766,1.375,2.4375
14:39:12.776,0.25,1.75
14:39:12.786,-0.1875,-1.8125
14:39:12.796,-0.5,-2.625
14:39:12.806,-0.9375,-4.375
14:39:12.822,-1.8125,-7.625
14:39:12.827,-2.4375,-8.6875
14:39:12.836,-3.125,-10.625
14:39:12.846,-3.25,-12.125
14:39:12.856,-3.3125,-12.625
14:39:12.866,-2.4375,-9.625
14:39:12.876,-0.4375,-5.875
14:39:12.886,-0.4375,0.75
14:39:12.896,2,9.875
14:39:12.906,4.125,18.6876
14:39:12.917,7.0625,26.5001
14:39:12.926,7.875,34.1251
14:39:12.937,9.4375,42.9377
14:39:12.946,11.75,48.3127
14:39:12.956,13.1876,54.1252
14:39:12.966,14.5626,56.6877
14:39:12.976,15.0001,59.5002
14:39:12.987,15.2501,60.1252
14:39:12.996,14.9376,61.0627
14:39:13.030,16.0001,60.4377
14:39:13.032,15.0001,60.9377
14:39:13.034,14.9376,58.2502
14:39:13.036,14.5001,58.0627
14:39:13.069,15.3751,56.2502
14:39:13.072,14.1251,56.6252
14:39:13.077,15.3751,55.8752
14:39:13.077,14.8751,53.9377
14:39:13.107,15.0001,54.6252
14:39:13.110,14.6876,52.6252
14:39:13.112,14.0001,51.6252
14:39:13.143,14.8126,50.1252
14:39:13.143,13.6251,48.0002
14:39:13.144,13.6251,48.8127
14:39:13.153,13.3126,46.8127
14:39:13.159,14.1876,46.2502
14:39:13.188,13.5626,46.3127
14:39:13.193,13.6251,46.8752
14:39:13.194,14.2501,47.3127
14:39:13.196,13.2501,46.0627
14:39:13.210,13.7501,47.1877
14:39:13.216,14.5626,47.3752
14:39:13.226,13.5001,45.8752
14:39:13.237,12.9375,46.9377
14:39:13.248,12.625,45.3127
14:39:13.256,13,43.7502
14:39:13.266,12.5625,42.7502
14:39:13.276,11.8125,42.5627
14:39:13.284,11.375,39.5002
14:39:13.319,10.8125,37.0001
14:39:13.320,10.0625,35.5001
14:39:13.323,10.5625,33.1251
14:39:13.330,9.375,30.8751
14:39:13.336,9.4375,29.1876
14:39:13.346,8.1875,26.0001
14:39:13.356,7.125,23.0001
14:39:13.365,6.8125,22.3751
14:39:13.377,6.5625,18.6876
14:39:13.386,5.5625,16.6876
14:39:13.396,4.125,14.7501
14:39:13.406,4.1875,12.9375
14:39:13.415,3.5625,10.9375
14:39:13.425,3.625,8.75
14:39:13.436,2.6875,7.5
14:39:13.447,1.9375,5.125
14:39:13.456,1.25,2.75
14:39:13.466,0.125,0.3125
14:39:13.476,-0.9375,-0.875
14:39:13.486,-1.9375,-4
14:39:13.496,-2.6875,-6.9375
14:39:13.506,-3.875,-8.9375
14:39:13.516,-4.75,-10.75
14:39:13.526,-4.875,-13.8751
14:39:13.536,-6.25,-15.7501
14:39:13.546,-7.4375,-17.6251
14:39:13.556,-7.8125,-20.3751
14:39:13.566,-9.3125,-22.1876
14:39:13.575,-8.875,-22.8126
14:39:13.590,-8.9375,-20.9376
14:39:13.595,-8.1875,-15.3751
14:39:13.606,-5.9375,-8.625
14:39:13.626,-3.9375,-0.75
14:39:13.632,-1.125,9.375
14:39:13.641,0.5,15.7501
14:39:13.647,2.75,24.7501
14:39:13.676,5.5,31.8751
14:39:13.677,6.5,37.0626
14:39:13.714,7.375,40.6877
14:39:13.717,8.1875,43.5627
14:39:13.720,8.4375,44.3752
14:39:13.720,7.375,44.8127
14:39:13.720,7.75,44.5627
14:39:13.727,7.25,43.8127
14:39:13.756,7.5625,42.6877
14:39:13.759,6.75,41.5627
14:39:13.761,7.3125,40.5002
14:39:13.767,6.5625,39.6252
14:39:13.796,6.5625,38.0626
14:39:13.800,6.0625,37.0626
14:39:13.803,5.5625,37.5626
14:39:13.806,6.4375,35.3126
14:39:13.836,6.1875,33.6876
14:39:13.839,5.75,32.1251
14:39:13.841,4.8125,30.0626
14:39:13.846,4.625,29.7501
14:39:13.856,4.625,29.4376
14:39:13.866,4.4375,28.4376
14:39:13.878,4.5,27.5626
14:39:13.887,4.4375,27.7501
14:39:13.896,4.125,26.8126
14:39:13.905,4.1875,26.5001
14:39:13.916,4,27.2501
14:39:13.926,4.5,28.1876
14:39:13.935,4.25,26.8751
14:39:13.945,4.4375,26.8126
14:39:13.956,4.5625,28.0001
14:39:13.966,5.1875,28.3751
14:39:13.975,5.625,26.6876
14:39:13.986,6.125,27.5001
14:39:13.996,7.5625,26.8126
14:39:14.004,8.5,26.0626
14:39:14.015,8.8125,27.8126
14:39:14.026,10.625,27.8751
14:39:14.034,12.875,28.4376
14:39:14.045,14.4376,30.0001
14:39:14.054,16.5626,31.1251
14:39:14.066,17.6876,30.1251
14:39:14.076,18.2501,29.4376
14:39:14.084,19.4376,30.7501
14:39:14.095,19.7501,28.7501
14:39:14.105,19.0626,26.8126
14:39:14.115,18.2501,26.0001
14:39:14.126,18.2501,23.3126
14:39:14.135,16.8751,20.0626
14:39:14.145,15.8126,18.3751
14:39:14.156,15.4376,18.3126
14:39:14.166,15.5626,15.5626
14:39:14.175,14.6251,13.3751
14:39:14.186,13.6876,12.625
14:39:14.196,13.8126,11.1875
14:39:14.205,14.6251,10.125
14:39:14.216,13.9376,8.375
14:39:14.226,14.0001,9.875
14:39:14.235,15.5626,8.75
14:39:14.245,15.5001,8.75
14:39:14.257,17.3126,10.25
14:39:14.266,18.2501,10.125
14:39:14.275,19.1251,10.5
14:39:14.284,19.4376,10.9375
14:39:14.295,19.8751,9.375
14:39:14.306,18.1251,6.6875
14:39:14.315,16.9376,6.25
14:39:14.325,17.4376,4.625
14:39:14.340,17.3126,4.125
14:39:14.346,14.9376,3.0625
14:39:14.355,17.5001,10
14:39:14.365,24.2501,19.6876
14:39:14.375,33.3751,38.8751
14:39:14.385,38.3126,52.1252
14:39:14.394,43.0627,62.9377
14:39:14.405,44.9377,70.6878
14:39:14.415,47.5627,78.6878
14:39:14.426,49.8752,87.1878
14:39:14.436,52.4377,91.6254
14:39:14.447,54.2502,94.9379
14:39:14.455,51.7502,93.4379
14:39:14.475,50.5002,94.1254
14:39:14.477,49.0627,90.3129
14:39:14.512,46.5627,87.1878
14:39:14.513,46.7502,88.2503
14:39:14.518,45.5002,85.1878
14:39:14.519,45.6252,84.0628
14:39:14.528,44.7502,84.6878
14:39:14.560,48.3127,86.1878
14:39:14.561,49.7502,89.1253
14:39:14.564,48.8127,85.1878
14:39:14.568,47.2502,81.9378
14:39:14.597,46.0627,80.3753
14:39:14.602,46.2502,80.3753
14:39:14.602,45.8752,77.9378
14:39:14.604,45.3127,77.8128
14:39:14.637,46.2502,77.1253
14:39:14.639,47.1252,78.6253
14:39:14.642,48.1252,79.8128
14:39:14.646,48.5002,79.8128
14:39:14.655,47.3752,79.8753
14:39:14.665,46.1252,77.5003
14:39:14.674,46.4377,78.6253
14:39:14.684,46.0627,78.1253
14:39:14.696,45.0627,78.6253
14:39:14.707,44.3752,76.9378
14:39:14.714,40.8752,72.5003
14:39:14.724,37.0626,69.5628
14:39:14.735,34.6876,64.0627
14:39:14.746,31.8126,59.0627
14:39:14.755,28.9376,53.3127
14:39:14.766,27.0626,49.0002
14:39:14.777,25.3751,45.1877
14:39:14.786,23.1251,41.3752
14:39:14.796,22.1876,36.7501
14:39:14.804,19.9376,31.9376
14:39:14.815,18.6876,29.6251
14:39:14.825,17.0001,25.1876
14:39:14.834,15.9376,22.0626
14:39:14.845,15.1251,19.2501
14:39:14.855,13.1876,15.0001
14:39:14.865,11.8125,11.25
14:39:14.875,10.375,8.0625
14:39:14.886,7.25,2.875
14:39:14.895,4.625,-1
14:39:14.905,2.25,-5.8125
14:39:14.914,0.0625,-10.5625
14:39:14.926,-1.625,-13.3751
14:39:14.945,-2.1875,-17.0001
14:39:14.949,-3.5,-18.7501
14:39:14.965,-5.5625,-22.6251
14:39:14.967,-7.5625,-26.7501
14:39:14.982,-9.5625,-29.6876
14:39:14.997,-11.3125,-33.1251
14:39:15.000,-12.6875,-35.8751
14:39:15.006,-12.875,-37.5626
14:39:15.015,-14.7501,-39.6877
14:39:15.025,-14.6876,-42.1877
14:39:15.035,-16.6876,-44.6252
14:39:15.045,-17.6251,-46.7502
14:39:15.055,-17.0001,-49.6877
14:39:15.066,-18.0626,-49.6252
14:39:15.075,-17.8751,-51.7502
14:39:15.089,-18.6251,-52.5627
14:39:15.096,-19.8751,-55.5002
14:39:15.105,-22.1876,-57.1877
14:39:15.116,-23.0001,-59.5002
14:39:15.125,-22.6876,-57.3752
14:39:15.135,-22.2501,-52.3127
14:39:15.144,-19.1876,-42.8752
14:39:15.156,-15.5626,-34.5626
14:39:15.164,-12.0625,-23.9376
14:39:15.175,-8.25,-15.3751
14:39:15.185,-6.4375,-7.9375
14:39:15.208,-5.5625,-4.1875
14:39:15.211,-4.875,-0.375
14:39:15.217,-4,2.125
14:39:15.251,-2.75,5.375
14:39:15.252,-1.5625,7.8125
14:39:15.255,0.875,10.125
14:39:15.257,3.0625,12.0625
14:39:15.286,4.3125,14.8126
14:39:15.289,7.5,16.8126
14:39:15.292,9.75,19.7501
14:39:15.296,12,22.0626
14:39:15.324,14.3126,23.0626
14:39:15.327,14.5001,24.5626
14:39:15.329,16.4376,24.5626
14:39:15.359,15.8751,25.3751
14:39:15.361,15.9376,22.0001
14:39:15.363,14.0626,20.8751
14:39:15.370,14.0626,19.2501
14:39:15.376,14.5001,17.3751
14:39:15.385,15.7501,19.6876
14:39:15.395,18.6876,20.0626
14:39:15.405,19.5626,20.7501
14:39:15.415,20.2501,20.9376
14:39:15.426,19.1876,21.3751
14:39:15.436,17.7501,17.4376
14:39:15.445,14.3126,12.75
14:39:15.456,11.3125,8.25
14:39:15.465,9.5,7.3125
14:39:15.475,8.9375,5.3125
14:39:15.485,7.1875,2.875
14:39:15.495,7.625,3.0625
14:39:15.505,8.125,1.3125
14:39:15.516,8.125,0.75
14:39:15.525,7.8125,-1.875
14:39:15.535,5.9375,-4
14:39:15.544,6,-6.0625
14:39:15.554,3.875,-8.9375
14:39:15.565,1.5,-12.3125
14:39:15.576,1.6875,-15.4376
14:39:15.584,1.25,-16.0626
14:39:15.595,1.5625,-17.3751
14:39:15.606,0.8125,-19.5626
14:39:15.616,0.4375,-22.1876
14:39:15.625,-2.0625,-24.4376
14:39:15.634,-3.125,-28.4376
14:39:15.645,-4.8125,-30.4376
14:39:15.654,-5.9375,-33.8126
14:39:15.664,-7.5,-35.5626
14:39:15.674,-8.0625,-37.5626
14:39:15.684,-9.375,-39.5002
14:39:15.696,-11.25,-43.6877
14:39:15.705,-13.0625,-45.5002
14:39:15.716,-13.8126,-47.4377
14:39:15.725,-15.6876,-50.0627
14:39:15.735,-17.6251,-52.1252
14:39:15.744,-20.1251,-55.2502
14:39:15.754,-22.1876,-58.5627
14:39:15.764,-25.5001,-61.3127
14:39:15.775,-26.5626,-64.6877
14:39:15.786,-27.6251,-64.2502
14:39:15.795,-24.4376,-63.8127
14:39:15.804,-19.2501,-57.7502
14:39:15.815,-16.5626,-55.0002
14:39:15.825,-15.5626,-55.0627
14:39:15.840,-18.2501,-56.9377
14:39:15.844,-19.0626,-59.8752
14:39:15.878,-20.5001,-61.1877
14:39:15.880,-22.6251,-62.1252
14:39:15.882,-21.6251,-62.8127
14:39:15.887,-20.6251,-61.9377
14:39:15.897,-21.8751,-62.3127
14:39:15.905,-20.8126,-61.1877
14:39:15.921,-22.0001,-59.3127
14:39:15.927,-20.5626,-54.8752
14:39:15.952,-20.3126,-48.2502
14:39:15.954,-18.8126,-43.0627
14:39:15.957,-17.3126,-36.1876
14:39:15.967,-16.1251,-30.3126
14:39:15.996,-18.2501,-29.5626
14:39:16.006,-22.3126,-32.3751
14:39:16.007,-26.8126,-36.5626
14:39:16.010,-29.5001,-38.1251
14:39:16.034,-30.3126,-39.6877
14:39:16.036,-28.9376,-37.5626
14:39:16.038,-28.2501,-37.8751
14:39:16.045,-28.3126,-37.1876
14:39:16.056,-28.1251,-38.6251
14:39:16.086,-29.0626,-39.6877
14:39:16.091,-27.3751,-39.4377
14:39:16.091,-27.3126,-40.0627
14:39:16.097,-25.5626,-39.0626
14:39:16.105,-25.3126,-39.7502
14:39:16.116,-24.0001,-37.1876
14:39:16.124,-23.5626,-38.0001
14:39:16.136,-22.7501,-37.6876
14:39:16.146,-21.6876,-38.0626
14:39:16.155,-21.2501,-37.6251
14:39:16.165,-18.0001,-35.3126
14:39:16.175,-15.2501,-32.9376
14:39:16.185,-12.9375,-31.3126
14:39:16.196,-10.3125,-28.4376
14:39:16.215,-7.625,-26.1876
14:39:16.220,-7.0625,-25.7501
14:39:16.230,-6.3125,-25.1251
14:39:16.246,-7.375,-27.0626
14:39:16.261,-8.125,-26.4376
14:39:16.264,-8.9375,-26.6876
14:39:16.279,-8.9375,-26.5626
14:39:16.281,-8.3125,-25.6251
14:39:16.296,-7.0625,-24.3751
14:39:16.301,-6,-23.4376
14:39:16.309,-6.75,-23.6251
14:39:16.319,-5.75,-21.8751
14:39:16.330,-3.8125,-21.4376
14:39:16.340,-2.25,-19.1876
14:39:16.349,-1.125,-19.3126
14:39:16.360,-0.875,-18.1251
14:39:16.371,1,-18.4376
14:39:16.380,1,-18.8751
14:39:16.389,0,-21.0626
14:39:16.400,-1.4375,-23.3126
14:39:16.409,-3.125,-24.2501
14:39:16.420,-3.375,-26.8126
14:39:16.429,-4.3125,-28.8126
14:39:16.440,-3.75,-29.8751
14:39:16.449,-3.125,-30.8751
14:39:16.460,-3.0625,-30.6876
14:39:16.470,-2.3125,-31.6251
14:39:16.480,-2,-32.6876
14:39:16.490,-3.0625,-32.6251
14:39:16.500,-3.9375,-36.3751
14:39:16.510,-4.75,-36.7501
14:39:16.519,-4.875,-39.5627
14:39:16.530,-4.6875,-39.0627
14:39:16.540,-4.875,-40.2502
14:39:16.550,-4.9375,-40.0627
14:39:16.560,-4.8125,-41.0627
14:39:16.569,-4.6875,-41.8127
14:39:16.580,-5.1875,-42.5627
14:39:16.589,-5.9375,-43.0627
14:39:16.627,-7,-44.6877
14:39:16.629,-6.5625,-44.8127
14:39:16.631,-6.5625,-43.3127
14:39:16.636,-5.9375,-43.1252
14:39:16.669,-5.1875,-42.5002
14:39:16.670,-4.8125,-41.6252
14:39:16.673,-4.375,-38.6876
14:39:16.697,-4.125,-36.5626
14:39:16.699,-4.75,-31.1876
14:39:16.704,-3.375,-28.3751
14:39:16.707,-3.9375,-23.3126
14:39:16.733,-3.5625,-20.6251
14:39:16.735,-2.8125,-17.3126
14:39:16.737,-1.6875,-13.5001
14:39:16.762,-0.875,-13.2501
14:39:16.764,-0.5625,-10.75
14:39:16.767,-0.4375,-8.75
14:39:16.777,-0.8125,-10
14:39:16.785,-2.25,-11.375
14:39:16.795,-3.875,-13.7501
14:39:16.805,-4.8125,-16.5626
14:39:16.814,-5.1875,-16.6251
14:39:16.824,-5.4375,-18.8126
14:39:16.835,-6.8125,-20.8126
14:39:16.845,-6.75,-22.6876
14:39:16.855,-6.5625,-22.2501
14:39:16.866,-7.25,-24.1251
14:39:16.875,-7.625,-25.8751
14:39:16.884,-8.8125,-28.0001
14:39:16.895,-9.875,-30.5626
14:39:16.904,-11.0625,-32.1251
14:39:16.915,-11.375,-34.1876
14:39:16.924,-11.5,-34.5001
14:39:16.935,-11.6875,-36.5626
14:39:16.946,-12.8125,-37.6251
14:39:16.956,-14.2501,-40.0627
14:39:16.970,-15.7501,-40.5002
14:39:16.975,-16.5001,-42.1877
14:39:16.985,-18.0001,-43.1252
14:39:16.995,-18.4376,-43.9377
14:39:17.005,-19.6251,-42.8752
14:39:17.015,-19.0626,-44.1252
14:39:17.024,-18.7501,-42.6252
14:39:17.034,-16.9376,-41.3752
14:39:17.046,-14.8126,-37.8751
14:39:17.055,-11.9375,-35.7501
14:39:17.065,-10.9375,-33.3126
14:39:17.075,-8.625,-32.2501
14:39:17.084,-8.5625,-31.1251
14:39:17.094,-6.5,-31.1876
14:39:17.105,-5.625,-30.2501
14:39:17.115,-5,-28.3126
14:39:17.125,-4.125,-29.6251
14:39:17.159,-4.125,-30.1876
14:39:17.161,-2.75,-29.3126
14:39:17.162,-1.125,-28.8126
14:39:17.169,0.625,-27.0001
14:39:17.177,2.625,-26.8751
14:39:17.184,2.75,-25.5626
14:39:17.195,3.4375,-27.5626
14:39:17.204,2.125,-28.6251
14:39:17.215,1.4375,-30.8126
14:39:17.226,0.625,-31.3126
14:39:17.234,-0.375,-34.4376
14:39:17.244,-1.5,-36.0001
14:39:17.254,-2.1875,-37.7501
14:39:17.265,-3.0625,-37.5001
14:39:17.275,-2.25,-38.7501
14:39:17.284,-2.75,-38.5001
14:39:17.294,-2.875,-39.6252
14:39:17.305,-3.0625,-39.5627
14:39:17.316,-2.0625,-38.7501
14:39:17.324,-1.5,-39.5627
14:39:17.335,-1,-38.8751
14:39:17.344,-0.5,-37.1876
14:39:17.377,0.25,-37.5626
14:39:17.381,-0.0625,-35.2501
14:39:17.384,-0.375,-37.6876
14:39:17.385,-1.375,-37.9376
14:39:17.415,-0.5,-38.1876
14:39:17.417,0.3125,-38.3751
14:39:17.420,-0.25,-39.0626
14:39:17.427,1.4375,-38.0001
14:39:17.449,2.1875,-37.3126
14:39:17.452,2.125,-36.6251
14:39:17.455,1.375,-34.5001
14:39:17.485,1.9375,-32.0001
14:39:17.487,3.3125,-27.5626
14:39:17.490,3.125,-24.3751
14:39:17.496,3.1875,-20.4376
14:39:17.531,2.6875,-19.3126
14:39:17.532,2.75,-17.0626
14:39:17.548,3.1875,-13.5001
14:39:17.562,4.25,-11.25
14:39:17.564,5.8125,-8.625
14:39:17.579,5.25,-8.1875
14:39:17.581,3.875,-9.1875
14:39:17.594,3.5,-9.6875
14:39:17.597,3.3125,-11
14:39:17.599,2.375,-12.4375
14:39:17.605,1.875,-13.6251
14:39:17.615,0.125,-14.6876
14:39:17.625,-0.25,-15.6251
14:39:17.635,-1.6875,-19.1251
14:39:17.645,-3.75,-21.0626
14:39:17.654,-4.4375,-22.3126
14:39:17.665,-5.5625,-23.8751
14:39:17.676,-6.625,-24.6876
14:39:17.685,-6.9375,-26.5626
14:39:17.695,-8.125,-28.5626
14:39:17.704,-9.1875,-29.5626
14:39:17.721,-8.625,-27.8751
14:39:17.730,-4.5625,-25.1251
14:39:17.740,-2.9375,-23.4376
14:39:17.750,-4,-25.1251
14:39:17.760,-5.5625,-25.6876
14:39:17.769,-7.5,-28.8751
14:39:17.780,-11.75,-31.9376
14:39:17.790,-13.2501,-33.8126
14:39:17.800,-14.4376,-34.4376
14:39:17.809,-11.875,-32.8751
14:39:17.819,-8.875,-29.1876
14:39:17.830,-6.125,-25.5001
14:39:17.839,-3.625,-23.6251
14:39:17.849,-2.6875,-22.3126
14:39:17.860,-2.125,-22.6251
14:39:17.870,-3.625,-24.1251
14:39:17.880,-7,-30.0001
14:39:17.890,-9.3125,-33.0001
14:39:17.900,-11.5625,-36.5001
14:39:17.909,-12.1875,-39.3752
14:39:17.920,-14.2501,-42.5002
14:39:17.929,-15.5626,-45.6252
14:39:17.940,-17.6876,-48.8752
14:39:17.951,-18.8126,-50.1877
14:39:17.960,-20.5001,-52.3752
14:39:17.969,-21.0001,-54.3127
14:39:17.980,-21.8126,-55.1252
14:39:17.989,-22.1876,-55.4377
14:39:18.000,-20.7501,-55.4377
14:39:18.010,-19.8126,-52.6252
14:39:18.019,-17.5001,-52.5627
14:39:18.029,-16.3126,-49.0002
14:39:18.039,-15.1251,-48.3127
14:39:18.049,-14.0001,-45.8127
14:39:18.060,-12.625,-46.0002
14:39:18.070,-12.4375,-44.8752
14:39:18.080,-12.5625,-46.8127
14:39:18.095,-13.0625,-47.5002
14:39:18.100,-12.3125,-46.4377
14:39:18.110,-12.4375,-47.5002
14:39:18.143,-10.25,-45.8127
14:39:18.145,-9.875,-45.6877
14:39:18.147,-8.4375,-44.3752
14:39:18.149,-7.9375,-44.2502
14:39:18.180,-6.625,-42.3127
14:39:18.182,-4.4375,-40.7502
14:39:18.184,-3.8125,-39.1252
14:39:18.191,-2.75,-38.0626
14:39:18.219,-1.375,-37.9376
14:39:18.222,0.1875,-35.0626
14:39:18.224,2.5,-33.3126
14:39:18.230,2.5625,-32.1251
14:39:18.269,2.8125,-31.0626
14:39:18.271,2.5,-26.5626
14:39:18.274,4.0625,-23.0001
14:39:18.276,4.75,-17.8751
14:39:18.281,5.3125,-14.0626
14:39:18.304,6,-10.5625
14:39:18.307,6.125,-6.8125
14:39:18.312,6.125,-6.5
14:39:18.320,6.625,-5.5
14:39:18.330,5,-4.625
14:39:18.339,4.25,-5.5
14:39:18.349,3.6875,-7.4375
14:39:18.360,3.1875,-6.75
14:39:18.370,3.5,-8.875
14:39:18.379,3,-9.0625
14:39:18.389,2.625,-11.125
14:39:18.400,1.4375,-13.8751
14:39:18.410,0.3125,-14.4376
14:39:18.438,1.25,-16.5626
14:39:18.440,0.375,-18.6876
14:39:18.442,-0.6875,-19.2501
14:39:18.450,-1.875,-22.0001
14:39:18.461,-3.4375,-23.7501
14:39:18.470,-3.6875,-25.5001
14:39:18.479,-4.4375,-26.7501
14:39:18.489,-4.625,-27.6876
14:39:18.499,-4.875,-28.6876
14:39:18.510,-5.5,-29.1876
14:39:18.520,-4.6875,-28.1876
14:39:18.530,-5.5,-29.8126
14:39:18.540,-5.625,-28.0626
14:39:18.550,-5.8125,-28.0626
14:39:18.560,-6.25,-27.8751
14:39:18.569,-5.9375,-28.0001
14:39:18.580,-6.4375,-27.6876
14:39:18.589,-7.125,-27.5626
14:39:18.600,-6.25,-26.5626
14:39:18.609,-6.25,-26.5001
14:39:18.620,-6.4375,-26.5626
14:39:18.630,-6.0625,-26.3126
14:39:18.639,-6.625,-26.3751
14:39:18.649,-6.125,-26.8751
14:39:18.659,-7.375,-27.6251
14:39:18.670,-6.8125,-29.4376
14:39:18.678,-7.4375,-29.9376
14:39:18.689,-7,-30.3751
14:39:18.700,-7.75,-30.5001
14:39:18.709,-7.625,-32.8126
14:39:18.719,-8.5625,-32.8126
14:39:18.730,-7.6875,-34.5626
14:39:18.739,-8.875,-35.1876
14:39:18.776,-8.25,-36.5001
14:39:18.778,-8.9375,-36.8751
14:39:18.781,-9.4375,-38.8126
14:39:18.783,-9.9375,-39.1876
14:39:18.790,-10.375,-39.1252
14:39:18.819,-9.75,-40.1877
14:39:18.821,-11.5,-40.0627
14:39:18.823,-12.25,-44.1252
14:39:18.861,-13.7501,-44.3127
14:39:18.863,-15.4376,-48.0002
14:39:18.894,-17.2501,-48.0002
14:39:18.897,-18.5626,-50.5002
14:39:18.901,-18.8751,-51.4377
14:39:18.901,-17.9376,-50.6252
14:39:18.905,-18.3751,-51.0002
14:39:18.937,-19.1876,-50.3752
14:39:18.939,-19.0626,-51.2502
14:39:18.941,-18.3751,-49.3752
14:39:18.944,-17.2501,-49.7502
14:39:18.955,-16.2501,-47.7502
14:39:18.965,-15.6251,-46.8127
14:39:18.974,-14.1876,-45.9377
14:39:18.984,-14.0001,-46.0627
14:39:18.995,-13.8751,-46.0002
14:39:19.004,-13.8126,-43.9377
14:39:19.015,-12.375,-40.6877
14:39:19.026,-10.5,-36.6251
14:39:19.034,-8.75,-31.6251
14:39:19.043,-6.125,-26.4376
14:39:19.054,-4.625,-21.5001
14:39:19.063,1.625,-10.3125
14:39:19.075,4,-7.4375
14:39:19.084,6.6875,-4.125
14:39:19.093,7.875,-1.1875
14:39:19.104,8.75,-0.1875
14:39:19.116,9.375,-0.0625
14:39:19.124,9.125,-1.0625
14:39:19.135,7.9375,-2.9375
14:39:19.145,7.8125,-4.5625
14:39:19.154,7.625,-5.5
14:39:19.163,8.125,-5.75
14:39:19.174,7.5,-6.6875
14:39:19.185,8.5625,-6.375
14:39:19.195,8.75,-6.3125
14:39:19.206,8.625,-6.875
14:39:19.215,6.8125,-9.0625
14:39:19.225,5.6875,-12.0625
14:39:19.234,3.125,-14.6251
14:39:19.245,1.6875,-16.3126
14:39:19.254,2.3125,-17.5001
14:39:19.265,2.75,-15.6876
14:39:19.277,3.875,-14.8751
14:39:19.285,5.5625,-13
14:39:19.296,6.3125,-11.0625
14:39:19.303,6,-11.8125
14:39:19.314,6.4375,-11.3125
14:39:19.325,5.1875,-12.5
14:39:19.333,4.625,-12.125
14:39:19.345,4.4375,-13.1876
14:39:19.355,2.8125,-14.8126
14:39:19.363,1.5625,-17.6876
14:39:19.373,0.1875,-20.2501
14:39:19.386,-0.75,-19.5001
14:39:19.394,-0.25,-21.1876
14:39:19.404,-1.375,-20.1251
14:39:19.413,-0.75,-22.0626
14:39:19.425,-0.875,-23.4376
14:39:19.435,-1.625,-23.3126
14:39:19.444,-1.75,-25.2501
14:39:19.455,-1.75,-25.3126
14:39:19.463,-2.25,-26.7501
14:39:19.476,-3.25,-28.0001
14:39:19.483,-4.25,-28.4376
14:39:19.495,-3.5625,-30.0001
14:39:19.504,-4.5625,-32.3751
14:39:19.515,-4.6875,-31.0626
14:39:19.524,-4.75,-33.0626
14:39:19.535,-5.3125,-33.3751
14:39:19.543,-5.1875,-32.5001
14:39:19.553,-6.1875,-34.9376
14:39:19.588,-7.75,-36.0001
14:39:19.591,-8,-37.8126
14:39:19.593,-9.75,-39.5002
14:39:19.596,-9.875,-40.1252
14:39:19.626,-11.1875,-42.6877
14:39:19.631,-12.25,-43.8752
14:39:19.631,-13.7501,-47.5627
14:39:19.635,-14.5626,-48.3127
14:39:19.669,-15.6251,-49.6877
14:39:19.670,-15.7501,-49.9377
14:39:19.673,-17.3126,-51.7502
14:39:19.678,-22.5001,-57.2502
14:39:19.686,-34.4376,-69.3128
14:39:19.719,-38.0626,-75.0628
14:39:19.721,-39.5627,-77.5628
14:39:19.724,-46.5002,-86.2503
14:39:19.727,-47.6252,-91.0004
14:39:19.749,-45.1252,-87.5003
14:39:19.753,-38.8126,-77.5628
14:39:19.753,-29.3751,-66.0003
14:39:19.766,-20.7501,-50.3127
14:39:19.775,-13.8751,-39.6252
14:39:19.783,-10.5625,-31.6251
14:39:19.794,-10.3125,-27.9376
14:39:19.804,-9.5,-25.3751
14:39:19.814,-10.1875,-23.1251
14:39:19.825,-6.3125,-18.2501
14:39:19.833,0.75,-6.6875
14:39:19.845,7.1875,3.375
14:39:19.853,11.375,9.375
14:39:19.864,10.5,8.25
14:39:19.875,7.6875,5.1875
14:39:19.883,2.375,-3.8125
14:39:19.895,-2.4375,-11.375
14:39:19.903,-5.0625,-15.9376
14:39:19.914,-6,-19.6251
14:39:19.926,-4.625,-18.3751
14:39:19.935,-3.5,-15.5001
14:39:19.943,-2.6875,-16.6251
14:39:19.954,-2.6875,-15.5001
14:39:19.964,-1,-15.8126
14:39:19.975,0.8125,-13.8126
14:39:19.984,0.4375,-13.3751
14:39:19.994,1.6875,-12.6875
14:39:20.003,3.4375,-9.9375
14:39:20.013,6.875,-7.125
14:39:20.024,8.1875,-5.875
14:39:20.033,7,-6.125
14:39:20.045,5.3125,-9
14:39:20.053,3.3125,-11.875
14:39:20.064,1.9375,-13.8751
14:39:20.075,0.4375,-13.5001
14:39:20.085,0.1875,-15.5626
14:39:20.095,0.375,-13.5001
14:39:20.104,1.4375,-13.1876
14:39:20.114,3.875,-8.625
14:39:20.123,8.5625,-3.125
14:39:20.143,9.9375,1.125
14:39:20.145,9.875,-0.0625
14:39:20.160,9,-0.25
14:39:20.167,6.9375,-3.3125
14:39:20.173,6.0625,-5.5625
14:39:20.189,6.125,-6
14:39:20.206,5.8125,-6.3125
14:39:20.208,6.4375,-6.75
14:39:20.225,6.4375,-7.1875
14:39:20.226,6.8125,-4.9375
14:39:20.241,8,-5.5625
14:39:20.244,8.5625,-5.5625
14:39:20.253,9.875,-4.625
14:39:20.264,8.8125,-5.625
14:39:20.274,9.125,-4.5625
14:39:20.286,10,-5.5625
14:39:20.293,9.875,-5.5
14:39:20.329,9,-5.25
14:39:20.331,10.125,-5.8125
14:39:20.332,9.875,-6.875
14:39:20.335,8.375,-8.9375
14:39:20.365,7.75,-9.75
14:39:20.367,7.375,-12
14:39:20.369,5.1875,-14.1876
14:39:20.393,3.6875,-15.2501
14:39:20.396,2.75,-17.8751
14:39:20.398,1.1875,-19.0001
14:39:20.428,0.9375,-20.8126
14:39:20.430,-1.625,-23.0001
14:39:20.432,-2.75,-26.0626
14:39:20.437,-5.3125,-28.8751
14:39:20.445,-6.4375,-30.1251
14:39:20.475,-6.8125,-31.9376
14:39:20.477,-8.125,-32.8751
14:39:20.480,-9.1875,-34.5001
14:39:20.486,-11.1875,-37.8751
14:39:20.497,-12.125,-39.3752
14:39:20.504,-13.0625,-41.6252
14:39:20.514,-13.7501,-42.1877
14:39:20.523,-14.6251,-42.5002
14:39:20.534,-14.6876,-43.0627
14:39:20.544,-15.0626,-42.3127
14:39:20.553,-14.6251,-38.4376
14:39:20.563,-13.125,-35.0626
14:39:20.573,-10.625,-28.0626
14:39:20.583,-9.3125,-22.1876
14:39:20.595,-7.4375,-17.8126
14:39:20.603,-6.0625,-13.6876
14:39:20.613,-4.75,-9.3125
14:39:20.628,-4.9375,-7.75
14:39:20.639,-4.125,-6.375
14:39:20.648,-4.0625,-6.5
14:39:20.659,-4.75,-6.9375
14:39:20.668,-6.625,-8.875
14:39:20.679,-7.9375,-12.5
14:39:20.688,-9.375,-12.9375
14:39:20.698,-10.125,-15.8126
14:39:20.708,-10.25,-17.7501
14:39:20.718,-10.125,-17.3126
14:39:20.728,-9.875,-19.1876
14:39:20.738,-9.25,-18.6251
14:39:20.748,-9.5625,-20.4376
14:39:20.758,-10.5625,-20.6251
14:39:20.769,-10.6875,-22.8751
14:39:20.778,-10.9375,-22.4376
14:39:20.789,-11.25,-24.3126
14:39:20.798,-11.25,-23.9376
14:39:20.809,-10.625,-24.3126
14:39:20.819,-10.0625,-24.3751
14:39:20.829,-10.0625,-23.1251
14:39:20.839,-9.6875,-23.8126
14:39:20.849,-9.375,-22.4376
14:39:20.858,-9.5,-22.9376
14:39:20.875,-9.3125,-23.4376
14:39:20.880,-8.4375,-20.5626
14:39:20.888,-8,-20.3126
14:39:20.899,-7.125,-19.1876
14:39:20.909,-7,-18.3751
14:39:20.918,-6.875,-18.7501
14:39:20.928,-7.6875,-19.1876
14:39:20.938,-9.3125,-20.0001
14:39:20.949,-9.625,-22.1876
14:39:20.962,-10.1875,-22.7501
14:39:21.000,-10.625,-23.6251
14:39:21.002,-10.75,-24.7501
14:39:21.006,-10.8125,-24.0626
14:39:21.007,-10.8125,-25.4376
14:39:21.012,-11.375,-26.2501
14:39:21.036,-12,-28.1251
14:39:21.039,-11.6875,-28.1876
14:39:21.041,-11.375,-28.9376
14:39:21.071,-12.25,-29.1876
14:39:21.073,-11.875,-31.1876
14:39:21.075,-11.75,-29.9376
14:39:21.080,-10.75,-30.8126
14:39:21.089,-11.6875,-30.2501
14:39:21.098,-11.125,-31.5626
14:39:21.128,-11.1875,-31.8126
14:39:21.131,-11.125,-33.1251
14:39:21.133,-11.6875,-32.0626
14:39:21.139,-11.5,-33.3126
14:39:21.150,-11.6875,-32.6876
14:39:21.158,-11.6875,-33.7501
14:39:21.169,-11.5625,-33.3751
14:39:21.179,-10.6875,-34.9376
14:39:21.188,-12,-34.0001
14:39:21.198,-11.25,-35.3126
14:39:21.208,-11.5,-35.1876
14:39:21.218,-11.875,-36.1251
14:39:21.228,-11.5625,-36.5001
14:39:21.238,-12.5,-36.5626
14:39:21.250,-12.3125,-35.3126
14:39:21.258,-12.1875,-36.9376
14:39:21.268,-12.75,-33.5626
14:39:21.279,-11.5,-31.1876
14:39:21.289,-10.875,-25.6251
14:39:21.298,-9.8125,-21.7501
14:39:21.309,-8.5625,-17.4376
14:39:21.319,-7.8125,-13.8126
14:39:21.328,-6.75,-9.9375
14:39:21.338,-6.3125,-7.25
14:39:21.348,-5.3125,-5.5
14:39:21.359,-5.5625,-4.375
14:39:21.368,-4.75,-4.25
14:39:21.379,-4.875,-4
14:39:21.388,-4.125,-4.25
14:39:21.398,-3.8125,-4.0625
14:39:21.408,-4.125,-5.75
14:39:21.418,-5.5,-7.0625
14:39:21.428,-5.0625,-9.125
14:39:21.450,-5.75,-10.625
14:39:21.452,-6,-11.5625
14:39:21.462,-6.3125,-12.1875
14:39:21.468,-6.5625,-14.3751
14:39:21.483,-6.875,-13.3751
14:39:21.492,-6.5,-14.6876
14:39:21.499,-6.0625,-14.8126
14:39:21.515,-6.5625,-15.1876
14:39:21.531,-5.625,-16.3126
14:39:21.533,-6.625,-15.4376
14:39:21.548,-6.3125,-16.8126
14:39:21.551,-6.5625,-16.9376
14:39:21.566,-6.375,-16.8751
14:39:21.568,-6.9375,-17.3751
14:39:21.579,-6,-16.3126
14:39:21.588,-6.0625,-14.1251
14:39:21.598,-4.875,-13.9376
14:39:21.609,-4.5625,-13.3751
14:39:21.625,-4.8125,-11.75
14:39:21.630,-4.5625,-12.0625
14:39:21.639,-4.6875,-11.6875
14:39:21.649,-4.8125,-13.3126
14:39:21.658,-5.125,-13.5626
14:39:21.668,-5.5,-13.8751
14:39:21.679,-4.6875,-13.8126
14:39:21.688,-4.1875,-13.5001
14:39:21.726,-5.125,-14.2501
14:39:21.728,-4.8125,-15.5626
14:39:21.731,-6,-17.0001
14:39:21.732,-5.9375,-17.8126
14:39:21.739,-7.1875,-19.5001
14:39:21.774,-7.5,-20.6251
14:39:21.777,-8,-22.3126
14:39:21.778,-8.5625,-22.6251
14:39:21.783,-8.1875,-24.5626
14:39:21.813,-8.8125,-24.1251
14:39:21.814,-8.25,-25.6876
14:39:21.817,-8.6875,-24.8126
14:39:21.820,-8.75,-26.8126
14:39:21.852,-9.5,-25.7501
14:39:21.854,-8.6875,-27.0626
14:39:21.857,-8.6875,-26.6876
14:39:21.860,-8.75,-27.9376
14:39:21.869,-9.125,-27.6876
14:39:21.878,-9.0625,-29.3751
14:39:21.888,-9.8125,-28.6876
14:39:21.898,-9.4375,-29.0626
14:39:21.908,-8.6875,-29.7501
14:39:21.918,-9.5625,-30.0626
14:39:21.928,-8.875,-29.8751
14:39:21.938,-8.5,-30.8126
14:39:21.948,-9.25,-30.5001
14:39:21.959,-9.5,-31.8751
14:39:21.968,-9.5625,-32.5001
14:39:21.979,-9.3125,-30.8751
14:39:21.988,-9.4375,-30.6251
14:39:22.003,-8.875,-29.0626
14:39:22.009,-7.5625,-24.9376
14:39:22.018,-5.625,-17.8126
14:39:22.028,-4.125,-12
14:39:22.039,-2.4375,-7.125
14:39:22.048,-1.6875,-2.25
14:39:22.058,0.125,1.25
14:39:22.069,0.6875,5.125
14:39:22.078,2.3125,7.5625
14:39:22.089,2.75,9
14:39:22.098,3.625,10.75
14:39:22.108,3.875,10.6875
14:39:22.118,3.5625,10.8125
14:39:22.128,4.375,10.125
14:39:22.138,3.1875,8.375
14:39:22.148,3.75,7.8125
14:39:22.158,3.25,6.4375
14:39:22.168,4.4375,7.5625
14:39:22.179,5.0625,7.375
14:39:22.188,5.0625,7.375
14:39:22.199,5.8125,6
14:39:22.208,5.375,7.3125
14:39:22.218,6.875,6.5
14:39:22.228,6.9375,6
14:39:22.239,7.1875,4.375
14:39:22.249,6.75,6.0625
14:39:22.279,7.75,4.875
14:39:22.282,7.875,4.8125
14:39:22.283,7.875,4.3125
14:39:22.291,8.125,4.0625
14:39:22.298,8.5625,4.5625
14:39:22.309,8.125,6
14:39:22.319,7.9375,6.5625
14:39:22.328,9.25,7
14:39:22.338,8.5,6.3125
14:39:22.348,7.6875,7.9375
14:39:22.359,7.875,6.3125
14:39:22.368,7.625,6.125
14:39:22.378,8.0625,8.25
14:39:22.388,8.3125,6.1875
14:39:22.398,6.6875,5.25
14:39:22.413,5.6875,5.9375
14:39:22.420,6,3
14:39:22.449,4.625,1.3125
14:39:22.452,3.875,0.25
14:39:22.455,2.3125,-1
14:39:22.462,1.875,-4.375
14:39:22.489,1.0625,-5.5
14:39:22.491,1,-5.75
14:39:22.493,0.9375,-8.1875
14:39:22.500,0.125,-9.75
14:39:22.531,-0.875,-10.5
14:39:22.533,-0.5,-10.9375
14:39:22.536,-0.4375,-12.5
14:39:22.541,-1.4375,-14.6251
14:39:22.565,-2.8125,-16.5001
14:39:22.567,-2.625,-15.8751
14:39:22.570,-2.0625,-16.4376
14:39:22.593,-2.4375,-17.6251
14:39:22.596,-2.6875,-16.9376
14:39:22.600,-2.875,-18.8126
14:39:22.608,-3.6875,-19.3126
14:39:22.618,-4.4375,-20.1251
14:39:22.628,-4.625,-21.9376
14:39:22.640,-4.6875,-22.1876
14:39:22.648,-4.5,-22.8126
14:39:22.658,-4.75,-23.9376
14:39:22.668,-5.8125,-22.6876
14:39:22.678,-5.125,-24.1876
14:39:22.688,-6,-25.8751
14:39:22.698,-5.1875,-24.3126
14:39:22.708,-5.125,-22.4376
14:39:22.719,-4.0625,-17.8751
14:39:22.729,-2.5625,-12.625
14:39:22.738,-1.4375,-6.625
14:39:22.753,0.25,-1.375
14:39:22.770,1,4.3125
14:39:22.772,2,8.3125
14:39:22.787,3.3125,10.5625
14:39:22.803,3.4375,13.8751
14:39:22.806,4.625,14.3751
14:39:22.810,3.9375,15.0001
14:39:22.819,4.125,16.1251
14:39:22.835,4.4375,15.6251
14:39:22.849,5.4375,15.5626
14:39:22.852,5.375,14.6251
14:39:22.861,5.125,14.4376
14:39:22.868,6,14.5001
14:39:22.879,5.625,14.1876
14:39:22.889,6.5625,13.0625
14:39:22.898,6.0625,12.5625
14:39:22.908,6.3125,11.3125
14:39:22.918,6.1875,9.875
14:39:22.928,5.875,9
14:39:22.938,5.5625,8.25
14:39:22.949,6,7.375
14:39:22.959,5.8125,7.75
14:39:22.968,5.75,7.5
14:39:22.978,6.3125,6.6875
14:39:22.988,6.6875,5.8125
14:39:22.998,6.375,6.8125
14:39:23.008,6.1875,7.5
14:39:23.018,6.625,7.375
14:39:23.029,6.4375,7
14:39:23.038,6.3125,9.25
14:39:23.048,7.9375,9.25
14:39:23.058,7.8125,9.5
14:39:23.068,7.4375,9.9375
14:39:23.079,7.6875,11.4375
14:39:23.089,8.6875,11.6875
14:39:23.098,8.9375,11.1875
14:39:23.108,8.4375,11.5625
14:39:23.118,7.9375,11.625
14:39:23.132,8.1875,10.9375
14:39:23.138,8.5625,9.8125
14:39:23.149,8.8125,9
14:39:23.159,8.1875,9.375
14:39:23.169,9.125,8.0625
14:39:23.179,8.3125,6.875
14:39:23.188,7.375,5
14:39:23.198,7.8125,4.625
14:39:23.208,6.8125,3.4375
14:39:23.239,6.875,2.125
14:39:23.243,7.1875,3.0625
14:39:23.244,7.6875,1.6875
14:39:23.248,6.5,-0.1875
14:39:23.259,6.4375,0.625
14:39:23.285,6.6875,-0.0625
14:39:23.288,6.9375,-1.3125
14:39:23.290,5.875,-0.125
14:39:23.314,6.625,-2.4375
14:39:23.318,6.6875,-3
14:39:23.320,6.625,-2.5625
14:39:23.359,6.75,-2.8125
14:39:23.360,6.625,-3.4375
14:39:23.362,6.875,-5
14:39:23.368,6.4375,-5.0625
14:39:23.373,6.5625,-3.4375
14:39:23.383,7.25,1.3125
14:39:23.388,8.5,6.625
14:39:23.400,10.75,11.5625
14:39:23.408,11.25,17.0626
14:39:23.418,12.625,23.1251
14:39:23.428,13.8751,27.3126
14:39:23.438,14.4376,30.9376
14:39:23.448,15.3126,33.3126
14:39:23.458,16.5001,34.9376
14:39:23.469,16.0626,35.6876
14:39:23.478,16.6251,37.3126
14:39:23.488,17.7501,36.9376
14:39:23.498,16.4376,36.5626
14:39:23.509,16.1251,35.8126
14:39:23.519,16.3126,34.2501
14:39:23.528,15.8751,32.0626
14:39:23.558,15.6251,33.1876
14:39:23.561,16.5001,31.1876
14:39:23.562,15.5626,29.9376
14:39:23.570,15.1876,29.5001
14:39:23.579,15.5626,28.0001
14:39:23.588,14.7501,25.0001
14:39:23.598,14.1876,24.7501
14:39:23.608,13.2501,23.6876
14:39:23.619,13.6251,21.8126
14:39:23.628,13.2501,20.1876
14:39:23.638,13,20.4376
14:39:23.648,13.0625,20.8126
14:39:23.658,13.1876,19.8751
14:39:23.669,13.1876,19.3751
14:39:23.678,13.4376,20.6876
14:39:23.689,12.75,21.4376
14:39:23.699,13.0625,21.3126
14:39:23.708,12.375,19.7501
14:39:23.718,13,21.3751
14:39:23.728,13.5001,21.7501
14:39:23.738,13,22.0001
14:39:23.748,12.6875,22.6876
14:39:23.758,12.75,20.7501
14:39:23.768,11.5625,19.3751
14:39:23.779,11.375,19.5001
14:39:23.789,11.6875,17.2501
14:39:23.799,10.8125,15.8126
14:39:23.808,9.75,14.7501
14:39:23.818,9.625,14.2501
14:39:23.829,10.625,12.75
14:39:23.838,9.25,10.875
14:39:23.848,8.875,9.8125
14:39:23.859,8.6875,9.8125
14:39:23.887,9.1875,8.4375
14:39:23.889,8.25,6.75
14:39:23.891,7.375,6.375
14:39:23.898,6.625,5.0625
14:39:23.935,7.125,2.75
14:39:23.936,5.875,2.0625
14:39:23.941,5.375,0.25
14:39:23.943,5.4375,0.5
14:39:23.948,5.5,-0.9375
14:39:23.976,4.5625,-2.625
14:39:23.979,3.8125,-2.25
14:39:23.981,4.625,-3.5625
14:39:23.988,3.75,-6.1875
14:39:24.016,3.3125,-5.5
14:39:24.019,4,-6.625
14:39:24.021,3.8125,-6.875
14:39:24.052,3.5,-6.125
14:39:24.054,3.875,-2.8125
14:39:24.056,6.0625,2.25
14:39:24.058,7.375,8.0625
14:39:24.079,8.125,14.0626
14:39:24.081,10.0625,21.5626
14:39:24.091,11.875,25.8126
14:39:24.099,12.75,30.4376
14:39:24.113,13.7501,35.1876
14:39:24.121,14.3126,36.6876
14:39:24.128,14.7501,39.5627
14:39:24.143,15.1876,40.2502
14:39:24.152,15.0001,40.3127
14:39:24.159,15.9376,40.9377
14:39:24.176,15.0626,39.3752
14:39:24.178,16.5001,40.0627
14:39:24.193,15.7501,38.7501
14:39:24.200,16.0626,38.6876
14:39:24.208,16.5626,37.3126
14:39:24.218,15.6876,36.0626
14:39:24.228,15.4376,36.0626
14:39:24.238,15.7501,34.0001
14:39:24.249,15.1251,32.6251
14:39:24.258,15.0001,32.5001
14:39:24.269,15.5626,32.5626
14:39:24.278,15.4376,31.6876
14:39:24.288,15.9376,29.3751
14:39:24.299,14.9376,28.5626
14:39:24.308,14.3126,28.6876
14:39:24.318,14.3126,28.4376
14:39:24.328,14.2501,26.5001
14:39:24.339,13.6251,25.3751
14:39:24.349,13,26.0626
14:39:24.358,13.8126,26.9376
14:39:24.368,13.6251,26.5001
14:39:24.378,13,27.6876
14:39:24.388,13.3751,28.0626
14:39:24.399,13.1876,28.0001
14:39:24.408,13.5001,27.0626
14:39:24.418,13.3126,27.5626
14:39:24.428,13.1876,28.0626
14:39:24.438,13.9376,26.8126
14:39:24.448,13.1876,25.7501
14:39:24.458,12.3125,24.4376
14:39:24.469,12.3125,24.5001
14:39:24.478,12.375,21.8126
14:39:24.489,11.375,20.1876
14:39:24.498,11,19.6251
14:39:24.508,10.75,17.5001
14:39:24.519,10.6875,16.6876
14:39:24.528,10.4375,16.0001
14:39:24.538,9.5,13.9376
14:39:24.548,8.8125,12.8125
14:39:24.558,8.5,9.9375
14:39:24.569,8.1875,10.125
14:39:24.579,7.375,8.1875
14:39:24.588,7.1875,6.4375
14:39:24.601,6.4375,6.375
14:39:24.608,6.5,4.5
14:39:24.618,6.375,3.5
14:39:24.633,5.5,1.375
14:39:24.643,4.5625,0.3125
14:39:24.653,5.125,-0.75
14:39:24.663,4.0625,-2.5625
14:39:24.673,3.5,-2.1875
14:39:24.704,3.875,-4
14:39:24.707,3.4375,-4.875
14:39:24.708,3.4375,-4.375
14:39:24.714,3.8125,-5.375
14:39:24.741,3.75,-2.75
14:39:24.744,5.5,-0.5
14:39:24.747,5.375,3.75
14:39:24.774,6.5,12.1875
14:39:24.776,9.1875,16.7501
14:39:24.778,10.4375,23.8126
14:39:24.786,11.9375,30.6251
14:39:24.816,14.6251,37.5626
14:39:24.823,15.6251,40.2502
14:39:24.824,15.9376,44.6252
14:39:24.850,17.1251,44.3752
14:39:24.852,16.8751,44.8752
14:39:24.852,16.6876,45.6877
14:39:24.858,17.0001,44.8752
14:39:24.869,17.3751,45.2502
14:39:24.880,17.7501,44.4377
14:39:24.889,17.2501,43.3127
14:39:24.898,17.8126,42.5002
14:39:24.908,16.9376,40.6877
14:39:24.919,17.0001,41.3752
14:39:24.928,17.0626,39.2502
14:39:24.939,16.6251,38.3126
14:39:24.948,16.3751,36.6251
14:39:24.958,16.1876,36.1876
14:39:24.968,16.0626,34.6876
14:39:24.979,15.8751,33.6251
14:39:24.989,15.1876,31.6251
14:39:24.999,14.1251,30.3126
14:39:25.008,13.6251,29.5001
14:39:25.018,13.6251,28.8126
14:39:25.028,13.3751,29.9376
14:39:25.038,13.5001,28.5001
14:39:25.049,12.6875,28.6251
14:39:25.058,12,29.5626
14:39:25.068,13.0625,29.0626
14:39:25.078,12.75,29.2501
14:39:25.088,12.5625,29.5001
14:39:25.099,12.0625,28.6251
14:39:25.107,11.6875,28.4376
14:39:25.119,11.8125,28.1876
14:39:25.128,11.75,26.5001
14:39:25.138,10.6875,25.1251
14:39:25.149,10.5625,23.8751
14:39:25.158,10.375,21.8751
14:39:25.167,8.875,20.6876
14:39:25.178,8.75,18.5626
14:39:25.188,8.375,16.6251
14:39:25.197,7,14.9376
14:39:25.208,6.5625,13.5626
14:39:25.219,5.6875,11.125
14:39:25.227,5.9375,10.1875
14:39:25.243,4.875,7.6875
14:39:25.248,4.875,6.6875
14:39:25.260,4.1875,6.25
14:39:25.269,4.5625,4.6875
14:39:25.279,3.9375,2.125
14:39:25.288,3.8125,2.625
14:39:25.297,3.25,0.6875
14:39:25.308,3.0625,0
14:39:25.328,2.5625,0.0625
14:39:25.331,3.25,-1.625
14:39:25.338,2.5625,-3.125
14:39:25.368,2.625,-3.6875
14:39:25.370,2.75,-4.875
14:39:25.372,1.625,-7.125
14:39:25.379,1.25,-6.4375
14:39:25.405,1.9375,-8.3125
14:39:25.488,1.625,-7.5625
14:39:25.493,2.375,-3.625
14:39:25.508,3.875,0.25
14:39:25.521,4.5,5.1875
14:39:25.521,6.0625,12.1875
14:39:25.522,7.6875,19.8751
14:39:25.537,10.25,26.5626
14:39:25.539,11,30.2501
14:39:25.543,12.0625,34.7501
14:39:25.543,12.625,38.8126
14:39:25.548,14.6876,41.3752
14:39:25.559,14.0626,43.8127
14:39:25.567,15.2501,43.8752
14:39:25.577,15.8126,44.1877
14:39:25.588,15.3126,45.1252
14:39:25.599,15.8751,43.2502
14:39:25.608,15.7501,43.0627
14:39:25.619,16.0001,42.6252
14:39:25.628,16.0626,41.0627
14:39:25.638,15.8751,40.1252
14:39:25.647,16.0001,38.3751
14:39:25.658,15.0626,34.8751
14:39:25.669,15.6251,32.8126
14:39:25.678,14.6876,30.8751
14:39:25.688,14.6876,30.8751
14:39:25.699,14.2501,30.0001
14:39:25.707,13.6876,30.7501
14:39:25.717,13.9376,30.4376
14:39:25.728,13.2501,30.7501
14:39:25.741,13.6876,31.0001
14:39:25.747,14.0001,30.8126
14:39:25.758,13.8126,32.6251
14:39:25.768,15.0626,32.6876
14:39:25.778,14.3751,32.2501
14:39:25.787,14.2501,31.5001
14:39:25.798,14.3751,32.5626
14:39:25.808,13.4376,30.5626
14:39:25.819,12.8125,29.8751
14:39:25.830,13.3751,27.8751
14:39:25.838,12.0625,25.5626
14:39:25.848,11.625,24.4376
14:39:25.858,11.0625,24.1251
14:39:25.867,11.0625,21.7501
14:39:25.877,10.3125,19.3751
14:39:25.888,9.4375,19.3751
14:39:25.898,9.8125,18.1251
14:39:25.908,9.6875,16.5001
14:39:25.918,9.625,14.8126
14:39:25.928,9.0625,13.125
14:39:25.938,8.4375,13.8126
14:39:25.947,10,12.4375
14:39:25.958,8.625,10.5625
14:39:25.967,8.0625,10.1875
14:39:25.977,8.3125,9.6875
14:39:25.995,7.6875,6.5
14:39:25.997,7.3125,6.1875
14:39:26.007,6.4375,5.25
14:39:26.017,6.75,3.5625
14:39:26.028,7.125,2.6875
14:39:26.037,6.4375,0.75
14:39:26.047,6,0.1875
14:39:26.058,6.125,1.4375
14:39:26.068,7.8125,2.625
14:39:26.077,7.6875,5.6875
14:39:26.089,8.875,13.125
14:39:26.118,11,18.5626
14:39:26.121,12.0625,24.0626
14:39:26.124,13.4376,31.6251
14:39:26.128,16.4376,37.6251
14:39:26.157,17.5626,42.0627
14:39:26.160,18.1251,46.6252
14:39:26.162,19.6251,51.0627
14:39:26.169,21.0001,52.5002
14:39:26.178,20.8126,53.3127
14:39:26.206,20.5001,56.5002
14:39:26.209,21.5626,54.8127
14:39:26.211,19.6876,53.0627
14:39:26.218,20.3126,53.4377
14:39:26.256,20.2501,52.0627
14:39:26.259,19.7501,50.0002
14:39:26.261,19.0001,47.9377
14:39:26.268,18.2501,47.5002
14:39:26.269,18.7501,45.0002
14:39:26.278,17.6876,42.9377
14:39:26.287,16.8126,41.1252
14:39:26.298,16.0001,39.0001
14:39:26.309,15.5626,36.5001
14:39:26.317,15.1876,36.3751
14:39:26.327,15.1876,34.0626
14:39:26.339,14.3751,33.1251
14:39:26.347,14.6876,32.6251
14:39:26.357,14.2501,31.7501
14:39:26.373,14.2501,31.0001
14:39:26.378,14.1251,31.1251
14:39:26.387,13.3751,32.7501
14:39:26.397,13.3126,31.9376
14:39:26.408,14.1876,32.1251
14:39:26.418,14.1251,32.3751
14:39:26.427,13.1251,32.1876
14:39:26.437,12.5625,32.3126
14:39:26.448,13,31.0626
14:39:26.458,12.125,30.8126
14:39:26.467,11.25,29.8126
14:39:26.477,11.8125,27.6876
14:39:26.487,9.75,25.1876
14:39:26.497,9.4375,25.1876
14:39:26.509,9.375,22.6251
14:39:26.518,9.375,20.1251
14:39:26.527,7.875,18.8126
14:39:26.538,7.5625,17.4376
14:39:26.548,7.25,15.3126
14:39:26.558,5.625,12
14:39:26.567,4.8125,10.875
14:39:26.578,4.1875,8.875
14:39:26.587,3.9375,6.6875
14:39:26.598,3,5.1875
14:39:26.608,2.25,4.8125
14:39:26.617,3,2
14:39:26.627,1.3125,-0.375
14:39:26.637,0.9375,-0.5
14:39:26.648,1.0625,-2.5625
14:39:26.657,-0.125,-4.75
14:39:26.667,-0.75,-4.6875
14:39:26.677,-0.75,-6.6875
14:39:26.688,-2.0625,-9.0625
14:39:26.698,-2.5,-9.6875
14:39:26.716,-1.375,-10.875
14:39:26.722,-2.75,-12.75
14:39:26.737,-3.6875,-13.3126
14:39:26.740,-3.3125,-14.6251
14:39:26.747,-3.875,-15.6876
14:39:26.762,-3.75,-16.6876
14:39:26.768,-4.5,-16.0001
14:39:26.778,-3.8125,-16.7501
14:39:26.789,-4.4375,-12.5
14:39:26.806,-2.5,-8.5625
14:39:26.810,-0.5625,-3
14:39:26.824,1.4375,5.3125
14:39:26.832,2.6875,11.75
14:39:26.839,4,19.6251
14:39:26.856,5.875,25.6251
14:39:26.858,7.6875,30.7501
14:39:26.886,8.75,35.1876
14:39:26.891,9.1875,39.0627
14:39:26.892,10.8125,41.0627
14:39:26.898,10.75,42.4377
14:39:26.929,11.1875,44.6877
14:39:26.932,11.625,44.0002
14:39:26.934,10.8125,43.5627
14:39:26.959,10.875,43.2502
14:39:26.960,10.875,41.4377
14:39:26.962,10.875,40.2502
14:39:26.969,10.8125,39.0001
14:39:26.983,9.4375,36.3751
14:39:26.988,9.4375,35.2501
14:39:27.013,8.9375,35.0626
14:39:27.016,9.125,32.7501
14:39:27.018,7.8125,30.6876
14:39:27.030,6.75,30.4376
14:39:27.037,6.5625,27.8126
14:39:27.048,6.375,26.0001
14:39:27.057,5.6875,25.5001
14:39:27.067,6.6875,24.4376
14:39:27.077,4.625,22.5626
14:39:27.087,4.5625,22.6251
14:39:27.097,4.375,23.7501
14:39:27.107,5,23.0001
14:39:27.122,4.3125,22.5626
14:39:27.128,3.4375,23.0626
14:39:27.137,4.375,23.9376
14:39:27.147,5,24.1876
14:39:27.157,4.75,23.6876
14:39:27.167,4.25,23.7501
14:39:27.177,3.6875,23.5626
14:39:27.187,3.8125,21.8126
14:39:27.197,3.0625,20.8751
14:39:27.207,3.3125,18.5001
14:39:27.217,2.5625,17.7501
14:39:27.227,1.375,14.8126
14:39:27.238,1.25,14.6876
14:39:27.247,0.8125,14.5001
14:39:27.257,1.125,11.4375
14:39:27.267,0.375,9.1875
14:39:27.277,-0.5,8.1875
14:39:27.288,-1.375,7.5625
14:39:27.297,-0.9375,4.375
14:39:27.307,-1.875,1.875
14:39:27.318,-2.8125,1.375
14:39:27.328,-2.5625,-1
14:39:27.337,-3.4375,-3.125
14:39:27.347,-4.375,-4.875
14:39:27.357,-3.9375,-5.75
14:39:27.367,-4.0625,-7.0625
14:39:27.396,-5.375,-8.75
14:39:27.402,-5.8125,-10.25
14:39:27.405,-6.0625,-10.5625
14:39:27.407,-5.375,-12.625
14:39:27.418,-6.5,-14.6251
14:39:27.428,-7.3125,-15.6876
14:39:27.437,-7.4375,-15.8126
14:39:27.447,-7.4375,-17.6876
14:39:27.457,-7.4375,-18.4376
14:39:27.467,-6.875,-19.2501
14:39:27.479,-8.75,-21.3751
14:39:27.488,-9.0625,-21.9376
14:39:27.502,-8.8125,-23.1251
14:39:27.507,-9.25,-22.0001
14:39:27.517,-8.5625,-22.1251
14:39:27.527,-8.25,-17.7501
14:39:27.537,-7.5,-13.2501
14:39:27.547,-5.25,-6.875
14:39:27.557,-3.25,0.875
14:39:27.567,-1.875,8
14:39:27.577,0.5,14.7501
14:39:27.613,1.1875,21.7501
14:39:27.615,2.6875,25.9376
14:39:27.617,3.8125,29.6876
14:39:27.620,4.625,33.1251
14:39:27.653,4.8125,34.0626
14:39:27.656,4.9375,34.4376
14:39:27.657,5.5625,34.9376
14:39:27.661,4.75,34.3126
14:39:27.667,5.125,32.9376
14:39:27.697,4.8125,33.0001
14:39:27.700,4.375,30.9376
14:39:27.702,3.875,29.8126
14:39:27.708,4.4375,28.3751
14:39:27.732,3.4375,26.1876
14:39:27.737,2.4375,25.0001
14:39:27.737,2,22.8751
14:39:27.749,1.1875,21.6876
14:39:27.771,0.4375,19.5001
14:39:27.774,-0.0625,18.2501
14:39:27.779,-0.5625,16.1876
14:39:27.787,-1.3125,13.8126
14:39:27.797,-1.1875,13.4376
14:39:27.807,-1.75,13.1876
14:39:27.817,-1.5,12.1875
14:39:27.827,-1.75,11.375
14:39:27.837,-2.125,11.6875
14:39:27.847,-1.875,13.125
14:39:27.857,-1.875,13.8126
14:39:27.869,-0.6875,13.5626
14:39:27.878,-1.625,13.125
14:39:27.888,-1.9375,13.8126
14:39:27.897,-1.75,14.6876
14:39:27.907,-0.75,13.6251
14:39:27.917,-1.875,12.8125
14:39:27.927,-2.375,12
14:39:27.937,-2.625,10.1875
14:39:27.947,-2.8125,9.8125
14:39:27.957,-2.75,8.25
14:39:27.968,-3,6.0625
14:39:27.977,-3.4375,5.5625
14:39:27.987,-4,3.6875
14:39:27.997,-5.25,2.1875
14:39:28.007,-5.1875,-0.375
14:39:28.018,-5.375,-2.75
14:39:28.042,-6.4375,-2.125
14:39:28.045,-6.125,-5.1875
14:39:28.059,-7.125,-6.625
14:39:28.077,-7.1875,-7.875
14:39:28.079,-8.0625,-10.75
14:39:28.092,-8.8125,-10.9375
14:39:28.095,-8.5625,-12.3125
14:39:28.109,-9,-14.8751
14:39:28.113,-10.3125,-15.1251
14:39:28.127,-10.1875,-17.4376
14:39:28.129,-9.8125,-18.0001
14:39:28.145,-11.3125,-19.6876
14:39:28.149,-11.625,-21.0001
14:39:28.157,-11.625,-23.2501
14:39:28.168,-11.6875,-24.0626
14:39:28.177,-12.375,-25.8126
14:39:28.187,-12.6875,-25.1251
14:39:28.197,-12.625,-26.5001
14:39:28.208,-12.0625,-26.2501
14:39:28.217,-11.1875,-22.6876
14:39:28.227,-9.6875,-17.7501
14:39:28.251,-8.1875,-10.125
14:39:28.253,-6.375,-2.375
14:39:28.291,-4.0625,3.625
14:39:28.291,-2.3125,9.4375
14:39:28.293,-0.3125,17.0626
14:39:28.297,1.625,22.3126
14:39:28.300,2.1875,27.0001
14:39:28.331,4,30.4376
14:39:28.332,4.75,32.6251
14:39:28.335,5.3125,33.0626
14:39:28.344,4.8125,33.1876
14:39:28.349,4.875,32.8126
14:39:28.378,4.375,32.5626
14:39:28.381,4.75,30.1876
14:39:28.385,4.4375,29.1251
14:39:28.387,3.875,28.0001
14:39:28.416,4.0625,27.5626
14:39:28.419,3.9375,26.0626
14:39:28.421,3.375,24.7501
14:39:28.427,2.8125,24.3126
14:39:28.437,3.0625,21.5626
14:39:28.448,3.375,19.1876
14:39:28.458,2.5,18.5001
14:39:28.468,2.5,17.0001
14:39:28.477,1.8125,15.8126
14:39:28.487,1.9375,14.8751
14:39:28.497,2,13.8126
14:39:28.507,1.375,13.8126
14:39:28.517,2.1875,14.6251
14:39:28.527,2.5625,15.1251
14:39:28.538,2.375,15.8126
14:39:28.547,2.6875,16.3126
14:39:28.558,2.8125,17.8126
14:39:28.567,3.0625,16.6251
14:39:28.577,2.5625,16.2501
14:39:28.587,1.5625,17.2501
14:39:28.597,1.875,16.3751
14:39:28.608,1.75,14.6251
14:39:28.617,1.3125,13.1876
14:39:28.627,0.5,13.9376
14:39:28.637,0.9375,11.625
14:39:28.647,-0.4375,8.75
14:39:28.679,-0.4375,8.625
14:39:28.680,0.25,7
14:39:28.683,-1.1875,4.5625
14:39:28.692,-2,3.25
14:39:28.703,-2.75,2.375
14:39:28.713,-2.4375,-0.6875
14:39:28.722,-2.9375,-2.375
14:39:28.732,-4.5625,-3.6875
14:39:28.742,-4.5,-4.8125
14:39:28.752,-4.625,-7.875
14:39:28.762,-6.3125,-10.0625
14:39:28.773,-6.75,-11.0625
14:39:28.783,-7,-13.1876
14:39:28.792,-7.75,-15.5001
14:39:28.802,-7.875,-15.5001
14:39:28.816,-7.875,-17.4376
14:39:28.822,-8.6875,-19.8126
14:39:28.834,-9.875,-21.0626
14:39:28.842,-9.875,-22.5626
14:39:28.852,-10.0625,-24.5626
14:39:28.862,-10.375,-25.5001
14:39:28.872,-10.1875,-25.2501
14:39:28.882,-10.3125,-24.4376
14:39:28.892,-9.75,-21.8751
14:39:28.902,-8.625,-15.5001
14:39:28.914,-6,-8.125
14:39:28.922,-5,-0.0625
14:39:28.932,-2.25,7.4375
14:39:28.942,-0.5625,15.1876
14:39:28.953,2.3125,21.7501
14:39:28.962,3.5,26.0001
14:39:28.972,4.25,31.1251
14:39:28.982,4.8125,33.1251
14:39:28.992,4.5625,36.1251
14:39:29.003,5.8125,35.1876
14:39:29.012,5.1875,36.4376
14:39:29.022,5.125,34.9376
14:39:29.047,5.25,33.8751
14:39:29.050,4.4375,33.7501
14:39:29.054,4.5625,31.2501
14:39:29.090,5.125,31.1876
14:39:29.092,3.9375,28.8751
14:39:29.095,4.3125,28.0626
14:39:29.097,4.1875,26.6876
14:39:29.102,3.75,25.5626
14:39:29.135,2.875,24.3126
14:39:29.136,2.6875,22.0626
14:39:29.139,2.75,19.9376
14:39:29.142,1.25,16.7501
14:39:29.173,0.875,16.3126
14:39:29.176,0.9375,14.6876
14:39:29.178,-0.25,13.3751
14:39:29.182,-0.1875,13.7501
14:39:29.212,0.8125,13.4376
14:39:29.215,0.8125,14.0626
14:39:29.217,0.1875,14.1876
14:39:29.224,-0.5,15.0626
14:39:29.233,-0.5,16.0626
14:39:29.242,-0.25,15.1876
14:39:29.252,-0.3125,14.3751
14:39:29.262,-1.0625,13.1876
14:39:29.272,-1.75,14.5001
14:39:29.282,-1,13.1251
14:39:29.292,-0.5,11.625
14:39:29.302,-1.5625,10.0625
14:39:29.312,-2.0625,11.0625
14:39:29.322,-1.625,8.6875
14:39:29.332,-0.875,7
14:39:29.342,-2.4375,5.5625
14:39:29.361,-2.6875,4.25
14:39:29.367,-2.1875,2.6875
14:39:29.382,-2.6875,0.6875
14:39:29.384,-2.3125,0.5625
14:39:29.395,-1.6875,-0.1875
14:39:29.402,-2.125,-1.8125
14:39:29.417,-2.875,-1.5
14:39:29.424,-2.75,-5.0625
14:39:29.432,-3.75,-4.6875
14:39:29.447,-3.8125,-7.625
14:39:29.463,-4.3125,-10.0625
14:39:29.466,-4.8125,-10.375
14:39:29.472,-5.1875,-13.2501
14:39:29.483,-5.8125,-13.6876
14:39:29.492,-4.8125,-14.3126
14:39:29.502,-4.75,-14.9376
14:39:29.514,-5.0625,-14.5001
14:39:29.522,-5.5,-16.4376
14:39:29.532,-5.5,-18.3126
14:39:29.542,-5.125,-18.0001
14:39:29.553,-4.9375,-19.1876
14:39:29.562,-5.1875,-19.3126
14:39:29.572,-4.5625,-17.1251
14:39:29.582,-2.9375,-14.6251
14:39:29.593,-0.6875,-6.25
14:39:29.602,2.375,1.3125
14:39:29.617,5,10.4375
14:39:29.622,9.0625,20.5001
14:39:29.632,13.125,30.1876
14:39:29.643,17.7501,41.3752
14:39:29.652,23.5626,53.1252
14:39:29.663,26.8751,60.6252
14:39:29.672,28.5626,65.5002
14:39:29.682,31.3751,70.0003
14:39:29.692,33.3126,75.0003
14:39:29.703,36.0001,77.7503
14:39:29.712,37.0626,80.8753
14:39:29.723,39.1877,82.2503
14:39:29.732,38.4376,82.9378
14:39:29.742,37.0001,79.2503
14:39:29.754,35.8751,79.6253
14:39:29.762,34.1876,75.0003
14:39:29.772,32.1251,70.2503
14:39:29.787,29.4376,67.4378
14:39:29.792,30.5626,67.2503
14:39:29.823,29.8751,64.8127
14:39:29.827,29.5626,63.9377
14:39:29.828,30.1251,63.6877
14:39:29.834,26.4376,57.5002
14:39:29.864,24.0626,54.0627
14:39:29.865,23.5626,52.8127
14:39:29.869,23.9376,53.5627
14:39:29.903,25.2501,54.4377
14:39:29.904,25.2501,54.8752
14:39:29.906,26.6876,56.5002
14:39:29.912,28.0626,57.2502
14:39:29.913,28.3126,60.1252
14:39:29.947,30.0626,61.5002
14:39:29.950,31.4376,63.8752
14:39:29.952,32.9376,64.6252
14:39:29.967,31.8126,65.1252
14:39:29.970,32.6876,64.2502
14:39:29.972,33.0001,64.5627
14:39:29.982,32.6251,64.5627
14:39:29.997,32.1876,64.0002
14:39:30.002,29.6251,60.1252
14:39:30.012,26.5001,55.5002
14:39:30.023,24.6876,51.3752
14:39:30.032,21.8126,48.3752
14:39:30.043,20.4376,45.1252
14:39:30.052,18.8126,41.0627
14:39:30.062,16.8751,38.3126
14:39:30.072,16.5626,35.9376
14:39:30.082,15.2501,31.8751
14:39:30.094,15.1876,29.0001
14:39:30.102,14.6251,26.1251
14:39:30.113,13.7501,23.5626
14:39:30.122,14.8751,22.0626
14:39:30.132,14.6251,20.6251
14:39:30.143,15.5001,18.0626
14:39:30.152,15.9376,17.0626
14:39:30.162,14.7501,14.6251
14:39:30.172,15.1251,13
14:39:30.182,15.5001,10.1875
14:39:30.192,16.2501,9.1875
14:39:30.202,16.3126,8.5
14:39:30.212,15.3751,6.25
14:39:30.222,16.5626,5.1875
14:39:30.232,15.7501,4.3125
14:39:30.243,15.1251,3
14:39:30.252,15.1876,1.125
14:39:30.262,13.6251,2.1875
14:39:30.272,14.6876,4.5625
14:39:30.282,15.5001,10
14:39:30.292,17.5001,16.5626
14:39:30.303,18.8126,22.5001
14:39:30.312,19.8126,29.6876
14:39:30.322,20.4376,34.3751
14:39:30.332,21.3126,40.1252
14:39:30.344,21.8126,42.9377
14:39:30.352,23.0001,46.1877
14:39:30.362,23.3126,47.6877
14:39:30.372,23.0626,49.5002
14:39:30.382,23.4376,50.6252
14:39:30.392,24.0626,49.3127
14:39:30.404,24.0001,49.6252
14:39:30.412,24.2501,48.2502
14:39:30.423,23.9376,47.3127
14:39:30.440,22.8751,46.0002
14:39:30.442,21.8751,43.9377
14:39:30.479,21.2501,39.9377
14:39:30.483,18.7501,38.4376
14:39:30.483,17.8751,34.5626
14:39:30.487,17.1876,32.3126
14:39:30.492,16.3126,32.0626
14:39:30.523,16.1876,30.2501
14:39:30.525,16.3751,28.3751
14:39:30.530,16.3126,29.0001
14:39:30.532,16.1251,28.8126
14:39:30.558,16.5626,27.1251
14:39:30.559,11.1875,21.3751
14:39:30.562,-1.3125,9.375
14:39:30.594,-9.6875,-3.375
14:39:30.596,-12,-6.3125
14:39:30.598,-12.375,-7.25
14:39:30.602,-10.9375,-3.875
14:39:30.613,-7.75,-1.625
14:39:30.622,-10.75,-4.75
14:39:30.632,-11.875,-6.3125
14:39:30.642,-12.1875,-6.3125
14:39:30.652,-9.25,-5
14:39:30.673,-7.625,-3.75
14:39:30.675,-5.8125,-0.9375
14:39:30.684,-3.9375,1.375
14:39:30.693,-2.625,1.0625
14:39:30.707,-1.8125,0.6875
14:39:30.714,-1.4375,2.25
14:39:30.722,0,1.625
14:39:30.738,1.125,3.5625
14:39:30.742,3.0625,2.375
14:39:30.754,3.6875,3.25
14:39:30.770,5.125,2.5625
14:39:30.773,5.875,4.3125
14:39:30.788,6.9375,3.4375
14:39:30.792,7.5,4.5625
14:39:30.802,9.1875,3.75
14:39:30.812,9.125,5.4375
14:39:30.822,9.0625,3.125
14:39:30.832,7.4375,0.9375
14:39:30.843,5.6875,-0.3125
14:39:30.852,4.5,-3.5
14:39:30.862,1.625,-5.9375
14:39:30.872,0.125,-9.875
14:39:30.882,-2.5625,-13.3751
14:39:30.892,-4.6875,-16.8126
14:39:30.902,-6.0625,-18.7501
14:39:30.912,-6.375,-20.7501
14:39:30.922,-6.8125,-20.5001
14:39:30.932,-5.75,-16.4376
14:39:30.943,-4.5625,-11.25
14:39:30.952,-1.1875,-3.5625
14:39:30.962,2.125,6.125
14:39:30.972,5.8125,14.2501
14:39:30.984,8.8125,21.1876
14:39:30.992,10.5,25.3126
14:39:31.002,12.0625,31.1876
14:39:31.012,14.4376,33.4376
14:39:31.022,14.3751,35.3751
14:39:31.032,15.8751,38.4376
14:39:31.042,17.0001,38.5001
14:39:31.054,17.7501,38.0001
14:39:31.063,17.1876,38.7501
14:39:31.076,17.6251,36.5001
14:39:31.082,17.6876,36.3751
14:39:31.095,17.4376,33.0626
14:39:31.102,17.2501,30.5626
14:39:31.112,15.2501,27.3751
14:39:31.125,13.5626,24.6876
14:39:31.136,11.875,21.5626
14:39:31.142,10.9375,17.7501
14:39:31.152,8.6875,11.9375
14:39:31.162,6.25,7.8125
14:39:31.172,4.5,5.375
14:39:31.182,4.625,1.6875
14:39:31.192,3.8125,-0.4375
14:39:31.202,2.8125,-2.25
14:39:31.240,2.375,-2.75
14:39:31.242,2.4375,-1.1875
14:39:31.243,2.5,-2
14:39:31.248,1.75,-2.9375
14:39:31.252,1.9375,-0.375
14:39:31.285,2.0625,-1.125
14:39:31.288,1.875,-1.5
14:39:31.290,1.625,-1.125
14:39:31.292,2.9375,-0.8125
14:39:31.321,2.875,-2.125
14:39:31.324,1.5,-2.4375
14:39:31.326,1.125,-2.4375
14:39:31.333,0.875,-4.3125
14:39:31.344,-0.125,-6.3125
14:39:31.379,-1.75,-9.5625
14:39:31.381,-2.5,-9.625
14:39:31.383,-2.25,-10.75
14:39:31.386,-1.5625,-10.375
14:39:31.392,-0.75,-7.875
14:39:31.402,0.25,-8.6875
14:39:31.412,0.375,-9.6875
14:39:31.422,-0.75,-10.375
14:39:31.432,-0.875,-12.5625
14:39:31.444,-2.25,-15.1876
14:39:31.452,-1.5625,-13.7501
14:39:31.462,-3.8125,-17.1876
14:39:31.474,-8,-23.0001
14:39:31.482,-13.5001,-29.0626
14:39:31.492,-22.4376,-40.8752
14:39:31.502,-26.5001,-47.5002
14:39:31.512,-27.2501,-49.5002
14:39:31.524,-27.5626,-50.6877
14:39:31.532,-25.6876,-50.3752
14:39:31.542,-24.1251,-49.3752
14:39:31.552,-22.7501,-49.6252
14:39:31.562,-22.4376,-48.4377
14:39:31.575,-20.9376,-47.8127
14:39:31.582,-19.6251,-45.8127
14:39:31.592,-16.6876,-40.0002
14:39:31.602,-12.4375,-31.0001
14:39:31.612,-6.5625,-18.8126
14:39:31.622,-3.25,-7.6875
14:39:31.632,2.25,2.75
14:39:31.644,5.4375,13.7501
14:39:31.653,10.8125,23.8751
14:39:31.662,12.875,32.8751
14:39:31.674,16.0626,40.8127
14:39:31.682,17.6251,47.1252
14:39:31.692,20.0001,50.8127
14:39:31.702,21.0001,56.3127
14:39:31.712,21.5626,57.5002
14:39:31.722,22.2501,58.8752
14:39:31.732,21.0626,58.7502
14:39:31.742,19.3751,56.1877
14:39:31.752,18.0001,53.7502
14:39:31.764,15.2501,52.1877
14:39:31.772,13.3126,46.7502
14:39:31.783,11.5625,43.4377
14:39:31.792,9.0625,39.4377
14:39:31.802,7.625,36.2501
14:39:31.812,7.1875,32.5626
14:39:31.822,5.625,30.3126
14:39:31.832,6.25,27.6876
14:39:31.842,5.125,25.4376
14:39:31.853,6.1875,23.0626
14:39:31.862,6.3125,22.1251
14:39:31.877,7.9375,22.5626
14:39:31.882,8.5625,22.0626
14:39:31.913,8.625,21.9376
14:39:31.916,8.4375,19.5626
14:39:31.921,7.25,18.1876
14:39:31.922,6.5625,15.1251
14:39:31.953,6.25,13.7501
14:39:31.955,6.0625,13.5626
14:39:31.957,6.3125,12.6875
14:39:31.962,5.375,12.5625
14:39:31.993,5.8125,10.875
14:39:31.996,5.5625,12.0625
14:39:32.028,5.125,9.9375
14:39:32.029,4.375,6.9375
14:39:32.032,3.8125,6.3125
14:39:32.037,2.5,2.5625
14:39:32.038,2.0625,-0.6875
14:39:32.042,-0.5625,-3.6875
14:39:32.075,-2.4375,-7.25
14:39:32.078,-4.4375,-11.0625
14:39:32.080,-6,-13.8751
14:39:32.087,-7.125,-16.7501
14:39:32.098,-8.4375,-20.8751
14:39:32.107,-9.4375,-23.3751
14:39:32.119,-11.125,-26.0001
14:39:32.128,-11.4375,-27.6251
14:39:32.137,-11.8125,-30.7501
14:39:32.147,-11.9375,-31.9376
14:39:32.157,-12.0625,-31.8126
14:39:32.167,-11.8125,-32.5626
14:39:32.177,-12.9375,-35.1876
14:39:32.187,-12.8125,-37.1251
14:39:32.197,-13,-37.4376
14:39:32.206,-13.0625,-37.4376
14:39:32.217,-11.3125,-36.3751
14:39:32.227,-11.625,-35.3126
14:39:32.237,-10.875,-34.4376
14:39:32.250,-11.9375,-37.6251
14:39:32.257,-13.8126,-38.6876
14:39:32.267,-13.5001,-40.5627
14:39:32.277,-13.6251,-39.1876
14:39:32.287,-12.125,-38.0626
14:39:32.299,-13.8126,-36.5001
14:39:32.307,-15.7501,-34.8126
14:39:32.317,-15.4376,-28.5626
14:39:32.331,-16.0626,-25.3126
14:39:32.337,-20.1251,-21.6251
14:39:32.347,-22.1251,-19.5001
14:39:32.358,-18.9376,-10.9375
14:39:32.367,-16.8126,-5.4375
14:39:32.377,-15.4376,1.8125
14:39:32.388,-12.375,6.5
14:39:32.397,-10.125,12.5
14:39:32.412,-8.6875,15.3126
14:39:32.422,-9.3125,14.3751
14:39:32.431,-10.625,14.0001
14:39:32.442,-11.4375,10.75
14:39:32.452,-9.9375,12.8125
14:39:32.462,-8.0625,14.6876
14:39:32.472,-5.5625,17.6876
14:39:32.482,-3.375,19.6876
14:39:32.492,-1.5625,20.6876
14:39:32.517,0.4375,22.5626
14:39:32.520,1.8125,24.2501
14:39:32.522,1.875,24.4376
14:39:32.533,1.5,23.4376
14:39:32.542,4,23.5626
14:39:32.552,5,24.6876
14:39:32.562,4.8125,24.6876
14:39:32.573,6.3125,25.8126
14:39:32.582,6.3125,26.0626
14:39:32.591,6.625,25.3751
14:39:32.602,5.9375,25.9376
14:39:32.615,5.375,27.0626
14:39:32.625,4.8125,25.0626
14:39:32.632,3.9375,26.2501
14:39:32.654,2.875,24.1876
14:39:32.657,2.9375,24.3751
14:39:32.688,2.25,23.1251
14:39:32.694,1.0625,22.5626
14:39:32.694,1,21.3126
14:39:32.695,1.0625,19.9376
14:39:32.724,0.25,17.8126
14:39:32.726,-0.25,16.8126
14:39:32.728,-0.875,13.1251
14:39:32.760,-2.1875,9.625
14:39:32.762,-2.8125,7.8125
14:39:32.766,-2.5,4.375
14:39:32.771,-2.625,2.3125
14:39:32.777,-2.25,2.375
14:39:32.804,-0.5625,1.875
14:39:32.806,0.75,0.125
14:39:32.808,0.875,0.25
14:39:32.824,0.9375,-2.8125
14:39:32.827,0,-6.375
14:39:32.840,-0.4375,-8.6875
14:39:32.849,-0.1875,-10.75
14:39:32.857,-1.0625,-13.2501
14:39:32.867,-0.625,-15.0626
14:39:32.877,-1.1875,-16.6876
14:39:32.886,-0.9375,-18.5001
14:39:32.897,-1.8125,-20.0001
14:39:32.907,-1.6875,-21.5001
14:39:32.917,-3.125,-24.7501
14:39:32.927,-4.5,-27.6876
14:39:32.937,-5.6875,-29.1876
14:39:32.946,-8.6875,-35.1876
14:39:32.957,-11.0625,-39.4377
14:39:32.966,-13.8126,-43.6252
14:39:32.979,-15.9376,-49.3752
14:39:32.985,-18.1251,-51.2502
14:39:32.998,-18.9376,-54.1252
14:39:33.007,-18.5626,-55.5627
14:39:33.017,-16.7501,-51.4377
14:39:33.026,-14.3751,-47.2502
14:39:33.037,-10.875,-36.1876
14:39:33.046,-8,-27.8751
14:39:33.057,-5.5625,-17.8126
14:39:33.066,-3.625,-10.625
14:39:33.077,-1.875,-3.1875
14:39:33.086,-0.9375,2.4375
14:39:33.097,1,7.5625
14:39:33.106,1.9375,11.125
14:39:33.116,3.8125,15.6251
14:39:33.126,5.3125,19.3751
14:39:33.137,6.375,21.7501
14:39:33.146,6.3125,22.7501
14:39:33.156,6.6875,22.0001
14:39:33.166,5.9375,20.8751
14:39:33.176,4.9375,19.0626
14:39:33.187,4.4375,18.2501
14:39:33.197,4.375,17.7501
14:39:33.207,4.9375,19.1876
14:39:33.216,3.125,16.0001
14:39:33.227,-0.25,10.0625
14:39:33.237,-3.375,5.6875
14:39:33.246,-10.5625,-3.0625
14:39:33.257,-19.6251,-13.7501
14:39:33.267,-22.1251,-19.1251
14:39:33.276,-22.6876,-21.7501
14:39:33.290,-24.4376,-24.5626
14:39:33.305,-23.1876,-23.6876
14:39:33.309,-19.9376,-20.8126
14:39:33.318,-22.9376,-23.2501
14:39:33.328,-26.3751,-27.8751
14:39:33.338,-25.8126,-28.4376
14:39:33.353,-24.1251,-23.6876
14:39:33.356,-19.6876,-20.1876
14:39:33.371,-17.2501,-14.3126
14:39:33.392,-14.3751,-12
14:39:33.395,-14.5626,-11.375
14:39:33.397,-13.9376,-9.75
14:39:33.421,-11.4375,-8.125
14:39:33.423,-9.25,-3.875
14:39:33.427,-4.6875,-0.1875
14:39:33.463,-1.75,4.1875
14:39:33.465,2.3125,7.75
14:39:33.467,4.5,10.875
14:39:33.493,5.5,11.5
14:39:33.495,8.125,11
14:39:33.497,8.5625,14.5626
14:39:33.501,9.9375,14.6251
14:39:33.508,11.375,14.0001
14:39:33.539,12.0625,16.0626
14:39:33.540,12.8125,15.0626
14:39:33.543,12.0625,14.7501
14:39:33.548,10.9375,12.5
14:39:33.567,8.125,8.3125
14:39:33.571,5.5,6.0625
14:39:33.576,3.375,0.3125
14:39:33.587,-0.1875,-3.0625
14:39:33.596,-1.8125,-7.1875
14:39:33.606,-3.75,-10.875
14:39:33.617,-5.1875,-13.3126
14:39:33.627,-5.5625,-17.8751
14:39:33.637,-7.6875,-20.4376
14:39:33.646,-8.1875,-21.8751
14:39:33.657,-7.5,-24.0626
14:39:33.666,-5.75,-25.5001
14:39:33.678,-5,-25.5626
14:39:33.688,-3.0625,-26.8751
14:39:33.697,-3.25,-28.1251
14:39:33.707,-3.375,-29.8751
14:39:33.717,-2.6875,-30.1876
14:39:33.726,-2.1875,-33.5626
14:39:33.737,-3.6875,-36.5001
14:39:33.747,-4.5625,-35.8126
14:39:33.757,-3.1875,-34.8751
14:39:33.767,-1.0625,-28.3751
14:39:33.799,2.5,-20.6876
14:39:33.803,5.625,-11.375
14:39:33.804,8.6875,-2.5625
14:39:33.806,10.375,5.625
14:39:33.819,11.75,9.6875
14:39:33.826,12.875,13.9376
14:39:33.836,12.5625,16.2501
14:39:33.846,11.375,16.9376
14:39:33.856,9.75,14.8751
14:39:33.866,7.75,13.8751
14:39:33.876,6.1875,9.9375
14:39:33.886,3.9375,8.3125
14:39:33.897,1.625,4.0625
14:39:33.906,1,2.5625
14:39:33.916,0.9375,-1.25
14:39:33.927,-0.8125,-2.5625
14:39:33.935,-1.25,-5.375
14:39:33.947,-2.5,-7.625
14:39:33.955,-3.25,-10
14:39:33.967,-4.5625,-14.3126
14:39:33.976,-5.625,-15.0626
14:39:33.987,-4.5,-17.0626
14:39:33.997,-6,-18.8126
14:39:34.008,-6.5,-18.7501
14:39:34.016,-5.875,-19.5001
14:39:34.026,-4.75,-20.1251
14:39:34.036,-6.4375,-22.6251
14:39:34.047,-6.625,-20.7501
14:39:34.056,-5.1875,-18.3126
14:39:34.066,-4.3125,-17.1876
14:39:34.076,-3.1875,-13.8126
14:39:34.087,-1,-10
14:39:34.096,0.25,-5.9375
14:39:34.106,1.625,-3.625
14:39:34.116,2.3125,-1.3125
14:39:34.132,-2.4375,-7.4375
14:39:34.138,-4.375,-9.625
14:39:34.146,-7.8125,-13.7501
14:39:34.156,-17.5001,-23.4376
14:39:34.167,-26.0626,-34.5626
14:39:34.176,-27.8126,-37.8126
14:39:34.201,-28.7501,-39.2502
14:39:34.203,-26.8126,-37.1876
14:39:34.207,-25.3126,-35.5001
14:39:34.247,-25.8126,-37.1876
14:39:34.250,-29.3126,-42.5002
14:39:34.252,-27.3751,-43.6877
14:39:34.255,-25.1251,-39.6252
14:39:34.261,-20.8751,-37.3126
14:39:34.274,-17.3751,-33.1876
14:39:34.280,-14.5626,-30.5626
14:39:34.304,-13,-29.3126
14:39:34.306,-9.9375,-25.5626
14:39:34.308,-8,-22.8751
14:39:34.349,-5.125,-19.6876
14:39:34.352,-2.125,-18.9376
14:39:34.353,-0.25,-16.5626
14:39:34.358,1.1875,-14.8751
14:39:34.362,3.6875,-12.1875
14:39:34.367,4.625,-12.375
14:39:34.376,5.1875,-10.6875
14:39:34.386,6.5625,-10.3125
14:39:34.396,7.3125,-9.0625
14:39:34.406,7.5,-8.625
14:39:34.417,6.5,-9.875
14:39:34.427,5.6875,-11.625
14:39:34.438,4.3125,-13.5001
14:39:34.445,1.75,-16.2501
14:39:34.455,1,-18.3126
14:39:34.466,-1.375,-22.1251
14:39:34.476,-3,-25.2501
14:39:34.487,-5.6875,-29.1876
14:39:34.495,-7.125,-33.1876
14:39:34.508,-9.125,-35.1251
14:39:34.516,-8.375,-34.5001
14:39:34.526,-8,-32.5626
14:39:34.536,-5.3125,-26.3751
14:39:34.547,-1.9375,-19.2501
14:39:34.555,1.375,-10.1875
14:39:34.569,5.9375,-2.25
14:39:34.585,7.9375,4.4375
14:39:34.591,10.5,11.375
14:39:34.606,12.4375,14.6251
14:39:34.611,13.1251,19.5001
14:39:34.616,15.1251,19.0001
14:39:34.626,14.5001,21.0001
14:39:34.637,15.9376,20.0001
14:39:34.652,17.4376,21.8751
14:39:34.668,18.8126,23.6876
14:39:34.669,20.8126,24.5626
14:39:34.676,22.0626,25.4376
14:39:34.686,24.5001,25.6251
14:39:34.698,25.6876,26.1251
14:39:34.706,26.0626,25.3751
14:39:34.716,24.3126,21.8751
14:39:34.726,21.1876,17.1251
14:39:34.737,16.0626,8
14:39:34.745,10.0625,-0.3125
14:39:34.756,5.6875,-6.75
14:39:34.767,1.6875,-13.9376
14:39:34.776,-2.375,-19.5001
14:39:34.786,-4.9375,-23.1876
14:39:34.798,-6.4375,-25.8126
14:39:34.808,-7.375,-28.1251
14:39:34.816,-8.4375,-29.2501
14:39:34.825,-9.125,-29.9376
14:39:34.836,-8.0625,-27.9376
14:39:34.845,-8.125,-28.1876
14:39:34.856,-9.25,-27.8751
14:39:34.877,-9.0625,-28.0001
14:39:34.877,-9.5,-27.7501
14:39:34.906,-9.5,-27.0626
14:39:34.908,-9.125,-24.5626
14:39:34.911,-7.6875,-23.8126
14:39:34.917,-7.875,-24.3751
14:39:34.945,-7.375,-23.0626
14:39:34.948,-6.625,-22.2501
14:39:34.951,-6.1875,-23.1251
14:39:34.956,-6.625,-22.7501
14:39:34.988,-7.25,-25.2501
14:39:34.991,-8.125,-27.0626
14:39:34.992,-8.875,-29.8126
14:39:34.999,-9.25,-29.5001
14:39:35.009,-9.625,-30.2501
14:39:35.032,-7.9375,-27.9376
14:39:35.034,-7.5,-28.3126
14:39:35.037,-7.625,-28.0001
14:39:35.052,-11.875,-33.3126
14:39:35.078,-14.0626,-38.3126
14:39:35.078,-16.5626,-40.9377
14:39:35.081,-19.3126,-45.8127
14:39:35.087,-23.5001,-49.8127
14:39:35.097,-28.6876,-56.6252
14:39:35.108,-32.5626,-61.9377
14:39:35.118,-34.5626,-64.4377
14:39:35.126,-36.3751,-67.1253
14:39:35.136,-36.7501,-67.2503
14:39:35.146,-36.3751,-68.0003
14:39:35.156,-35.3126,-66.4378
14:39:35.166,-33.9376,-65.0628
14:39:35.176,-34.6876,-64.9377
14:39:35.186,-35.8751,-67.6253
14:39:35.198,-41.0002,-73.1253
14:39:35.206,-43.2502,-78.6253
14:39:35.216,-44.0002,-80.6878
14:39:35.226,-44.8752,-80.7503
14:39:35.238,-43.7502,-82.2503
14:39:35.246,-42.5627,-78.8128
14:39:35.256,-39.4377,-73.0628
14:39:35.267,-36.1876,-64.5627
14:39:35.277,-32.1876,-56.3127
14:39:35.289,-28.0001,-46.0627
14:39:35.296,-25.2501,-36.8751
14:39:35.306,-22.1251,-29.0001
14:39:35.316,-20.0626,-23.3751
14:39:35.326,-18.4376,-16.8751
14:39:35.336,-17.5001,-12.9375
14:39:35.347,-17.2501,-10.625
14:39:35.357,-16.6876,-9.5625
14:39:35.365,-15.6251,-7.375
14:39:35.376,-14.6876,-6.75
14:39:35.386,-13.8751,-3.9375
14:39:35.396,-13.2501,-4.3125
14:39:35.406,-12.125,-4.75
14:39:35.418,-13.8126,-5
14:39:35.425,-14.7501,-9
14:39:35.436,-12.4375,-7.5
14:39:35.446,-12.125,-5.5625
14:39:35.456,-11.6875,-6.8125
14:39:35.466,-11.0625,-6.5
14:39:35.476,-12.3125,-7
14:39:35.487,-11.75,-10
14:39:35.496,-12,-11.8125
14:39:35.505,-13,-13.0625
14:39:35.516,-13.1876,-15.0626
14:39:35.526,-13.3751,-15.7501
14:39:35.536,-12.25,-14.9376
14:39:35.553,-12.5,-13.8751
14:39:35.557,-11.25,-12.75
14:39:35.583,-9.0625,-9.8125
14:39:35.587,-9.1875,-6.0625
14:39:35.591,-7.5625,-6
14:39:35.596,-7.6875,-3.875
14:39:35.625,-6.8125,-3.0625
14:39:35.628,-6.3125,-2.625
14:39:35.630,-6.1875,-2.125
14:39:35.636,-5.625,-1.25
14:39:35.661,-4.625,-1.0625
14:39:35.664,-3.1875,-0.0625
14:39:35.689,-3.5625,0.3125
14:39:35.691,-4.0625,-0.5625
14:39:35.692,-3.5625,-1.25
14:39:35.725,-3,-1.625
14:39:35.726,-3.875,-1.75
14:39:35.730,-3.5625,-4
14:39:35.731,-3.4375,-3.9375
14:39:35.737,-2.875,-4
14:39:35.746,-2.4375,-4.375
14:39:35.756,-2.6875,-3.0625
14:39:35.766,-1.4375,-4.5625
14:39:35.776,-0.5,-4.125
14:39:35.787,-0.1875,-4.0625
14:39:35.802,0.8125,-5.125
14:39:35.806,1.875,-4.5625
14:39:35.816,1.75,-2.875
14:39:35.826,3,-4.0625
14:39:35.836,3.125,-2
14:39:35.846,4.25,-3.6875
14:39:35.856,5.1875,-2
14:39:35.868,5.25,-2.125
14:39:35.886,5.75,-3.5625
14:39:35.892,4.4375,-4.625
14:39:35.907,4.8125,-5.9375
14:39:35.909,5,-6.1875
14:39:35.916,3.875,-7.125
14:39:35.926,2.875,-8.8125
14:39:35.946,2.4375,-9.5
14:39:35.949,1.5625,-8.1875
14:39:35.963,0.875,-7.25
14:39:35.969,2,-1.6875
14:39:35.977,3.25,3.625
14:39:35.986,5.625,11.5
14:39:35.996,6.5625,16.8126
14:39:36.006,8.0625,23.0626
14:39:36.016,9,27.3751
14:39:36.027,9.875,30.9376
14:39:36.039,9.625,32.5001
14:39:36.046,8,32.5001
14:39:36.055,8.3125,32.1251
14:39:36.066,6.4375,31.6876
14:39:36.076,5.75,29.5001
14:39:36.086,3.5625,27.7501
14:39:36.098,2.625,25.1251
14:39:36.105,1.0625,23.8126
14:39:36.116,1.375,21.6876
14:39:36.125,0.25,19.3126
14:39:36.136,-0.8125,18.1251
14:39:36.146,-0.125,16.0626
14:39:36.158,-1.0625,15.0626
14:39:36.165,-1.3125,12.875
14:39:36.180,-1.5625,11.25
14:39:36.186,-1.625,9.625
14:39:36.196,-2.125,7.625
14:39:36.206,-2.5625,7.9375
14:39:36.217,-2.125,6.25
14:39:36.228,-2.1875,4.5625
14:39:36.237,-3.0625,3.4375
14:39:36.246,-3.625,3.3125
14:39:36.256,-3.9375,3.75
14:39:36.266,-3.125,3.5625
14:39:36.276,-3.375,4.0625
14:39:36.287,-3.8125,5.625
14:39:36.296,-3.125,4.9375
14:39:36.306,-3.9375,5.5625
14:39:36.316,-3.4375,5.25
14:39:36.326,-3.375,4.375
14:39:36.361,-3.3125,5.0625
14:39:36.361,-3.6875,3.5
14:39:36.391,-5.0625,1.5
14:39:36.391,-6.125,0.5
14:39:36.393,-6.4375,-2.8125
14:39:36.396,-8.25,-3.375
14:39:36.425,-9,-7.1875
14:39:36.426,-9.875,-9.75
14:39:36.428,-9.375,-10.375
14:39:36.433,-9.625,-12.625
14:39:36.437,-10.625,-13.5626
14:39:36.469,-11.125,-16.1876
14:39:36.472,-12.625,-17.8751
14:39:36.473,-13.1876,-20.0001
14:39:36.478,-14.1251,-23.0626
14:39:36.508,-15.5626,-24.0626
14:39:36.510,-15.8126,-26.5626
14:39:36.513,-16.0626,-28.5626
14:39:36.516,-16.6251,-30.2501
14:39:36.526,-17.6251,-31.5626
14:39:36.536,-17.0626,-31.8751
14:39:36.550,-16.9376,-33.0626
14:39:36.556,-16.5001,-32.6251
14:39:36.566,-16.1876,-33.4376
14:39:36.576,-16.0626,-34.0626
14:39:36.586,-16.0001,-35.0626
14:39:36.596,-17.2501,-36.8126
14:39:36.606,-16.8751,-37.8751
14:39:36.619,-17.6876,-38.4376
14:39:36.626,-18.3751,-38.0626
14:39:36.635,-16.6251,-35.8751
14:39:36.646,-15.5626,-31.5626
14:39:36.656,-13.4376,-23.5001
14:39:36.666,-11.9375,-17.3126
14:39:36.676,-10.3125,-10
14:39:36.685,-7.9375,-2.9375
14:39:36.696,-6.25,3.75
14:39:36.711,-4.9375,9.5
14:39:36.721,-4,14.1876
14:39:36.731,-2.5625,17.5626
14:39:36.741,-2.4375,20.7501
14:39:36.753,-1.8125,20.8751
14:39:36.760,-1.9375,23.0001
14:39:36.771,-0.875,22.9376
14:39:36.781,-1.3125,23.2501
14:39:36.791,-1.5625,22.5626
14:39:36.801,-1.4375,22.0626
14:39:36.811,-1.125,21.3126
14:39:36.821,-0.875,19.1876
14:39:36.831,-1.625,20.1876
14:39:36.841,-1.8125,16.8751
14:39:36.851,-2.3125,15.2501
14:39:36.862,-2.875,14.0001
14:39:36.870,-3.4375,11.8125
14:39:36.881,-3.625,9.8125
14:39:36.891,-3.9375,8.875
14:39:36.901,-3.5625,8.625
14:39:36.913,-3,7.6875
14:39:36.927,-4.3125,6.625
14:39:36.931,-5.125,6.0625
14:39:36.941,-5.3125,4.5
14:39:36.951,-5.6875,6.5625
14:39:36.961,-5.1875,5.625
14:39:36.971,-4.9375,5.25
14:39:36.981,-4.5,6.875
14:39:36.993,-4.625,6.1875
14:39:37.001,-4.8125,6.9375
14:39:37.011,-4.5625,7.125
14:39:37.021,-4.9375,5.875
14:39:37.031,-5.875,5.875
14:39:37.043,-5.5,4.625
14:39:37.051,-5.375,3.5625
14:39:37.087,-5.1875,2.4375
14:39:37.088,-6.3125,0.25
14:39:37.093,-6.5625,-0.625
14:39:37.093,-6.0625,-1.875
14:39:37.122,-7.25,-2.8125
14:39:37.124,-7.4375,-5.4375
14:39:37.127,-7.8125,-7.5625
14:39:37.131,-8.75,-8.4375
14:39:37.141,-8.75,-10.5625
14:39:37.166,-10,-12.5
14:39:37.168,-9.5625,-14.5001
14:39:37.171,-10,-16.5001
14:39:37.239,-11.6875,-18.6251
14:39:37.240,-11.9375,-19.1251
14:39:37.244,-12,-20.6251
14:39:37.257,-11.8125,-23.4376
14:39:37.272,-12.6875,-24.1251
14:39:37.274,-12.5,-24.3751
14:39:37.274,-12.5625,-27.1876
14:39:37.274,-12.75,-26.6876
14:39:37.290,-13.125,-28.6876
14:39:37.305,-13.3751,-29.6251
14:39:37.308,-13.6251,-32.0001
14:39:37.322,-13.9376,-31.7501
14:39:37.337,-13.2501,-30.2501
14:39:37.342,-11.25,-27.1251
14:39:37.342,-10.6875,-20.6876
14:39:37.346,-8.625,-13.7501
14:39:37.356,-5.5,-6.5
14:39:37.367,-3.9375,1.0625
14:39:37.375,-1,8.625
14:39:37.386,-0.375,14.0001
14:39:37.395,0.4375,19.8751
14:39:37.406,1.875,24.8751
14:39:37.417,2.625,27.3126
14:39:37.426,5.125,33.3126
14:39:37.436,4.8125,32.3751
14:39:37.446,5.125,31.5626
14:39:37.457,5.625,31.0626
14:39:37.466,4.9375,30.0001
14:39:37.475,4.0625,26.9376
14:39:37.485,2.5,26.6251
14:39:37.496,2.875,24.9376
14:39:37.506,2.5625,22.9376
14:39:37.518,2,22.3751
14:39:37.526,1.75,19.1251
14:39:37.535,1.4375,18.3126
14:39:37.546,1.3125,16.5626
14:39:37.556,0.6875,14.1251
14:39:37.568,0.4375,14.6876
14:39:37.576,1.0625,13.3751
14:39:37.586,0.5,12
14:39:37.596,0.5625,11.6875
14:39:37.606,0.75,12.1875
14:39:37.637,0.5,12.125
14:39:37.639,0,11.0625
14:39:37.642,-0.0625,12.25
14:39:37.647,1.3125,13.5626
14:39:37.656,1.5,14.1876
14:39:37.667,1.625,13.8126
14:39:37.677,1.5625,14.6251
14:39:37.686,2.375,14.5626
14:39:37.696,2.375,14.1876
14:39:37.706,2.8125,13.7501
14:39:37.719,2,14.1876
14:39:37.726,2,12.125
14:39:37.736,1.625,10.5625
14:39:37.746,0.6875,8.5625
14:39:37.756,0.5625,8.1875
14:39:37.768,0.1875,6.1875
14:39:37.776,-0.0625,5.9375
14:39:37.786,0.0625,5.5625
14:39:37.796,0.5,3.5625
14:39:37.807,1,2.1875
14:39:37.817,1.4375,2.25
14:39:37.847,2.5,2.4375
14:39:37.850,3.5,2
14:39:37.852,3.75,2.9375
14:39:37.856,4.8125,2.75
14:39:37.884,5.375,1.6875
14:39:37.887,4.9375,0.5
14:39:37.889,4.1875,0.75
14:39:37.895,4.9375,-1.75
14:39:37.911,4.5,-3.625
14:39:37.917,3.5,-4.5
14:39:37.948,3,-5.75
14:39:37.951,3.25,-6.6875
14:39:37.954,3.125,-5.875
14:39:37.957,4.4375,-1.375
14:39:37.987,6.1875,4.875
14:39:37.990,8.125,11.6875
14:39:37.991,10.625,20.6251
14:39:38.004,13.6876,30.0001
14:39:38.006,17.0626,37.3126
14:39:38.016,18.1251,43.4377
14:39:38.026,19.7501,49.1877
14:39:38.039,21.3751,53.5627
14:39:38.052,22.4376,55.8752
14:39:38.056,22.2501,58.6252
14:39:38.066,22.3126,58.9377
14:39:38.076,22.7501,59.0002
14:39:38.086,22.4376,58.1877
14:39:38.097,22.6251,57.8127
14:39:38.106,22.8751,58.2502
14:39:38.116,23.0001,56.9377
14:39:38.127,23.5626,55.6877
14:39:38.136,23.4376,56.1252
14:39:38.144,24.3751,54.0627
14:39:38.156,23.1251,52.8752
14:39:38.166,23.5001,53.1252
14:39:38.177,24.8751,51.3127
14:39:38.186,24.3126,49.6877
14:39:38.196,24.4376,49.8127
14:39:38.205,24.1251,47.1877
14:39:38.216,23.3751,47.1252
14:39:38.230,23.5001,45.6877
14:39:38.236,22.9376,44.7502
14:39:38.245,22.3751,46.4377
14:39:38.256,22.9376,45.5627
14:39:38.268,23.1251,45.0627
14:39:38.276,24.1876,48.1877
14:39:38.286,24.3126,48.0627
14:39:38.294,24.0001,49.5627
14:39:38.307,24.3751,49.7502
14:39:38.316,24.2501,48.2502
14:39:38.324,23.3751,48.3127
14:39:38.336,23.1876,47.3752
14:39:38.346,21.8751,44.7502
14:39:38.356,21.2501,43.3752
14:39:38.366,20.8751,41.3752
14:39:38.376,20.0626,39.5627
14:39:38.385,18.9376,37.7501
14:39:38.396,18.4376,36.9376
14:39:38.408,18.0626,34.0626
14:39:38.416,18.0001,33.4376
14:39:38.431,17.8126,31.5001
14:39:38.436,17.4376,30.9376
14:39:38.447,16.6251,29.2501
14:39:38.456,16.8751,26.6251
14:39:38.466,16.3126,24.3751
14:39:38.476,14.6251,23.1876
14:39:38.486,15.0626,21.1876
14:39:38.495,13.4376,18.8751
14:39:38.508,12.6875,17.8751
14:39:38.520,12.4375,15.2501
14:39:38.526,11.4375,12.6875
14:39:38.556,10.6875,11.125
14:39:38.589,9.875,10.1875
14:39:38.591,9.9375,7.8125
14:39:38.632,9.0625,5.25
14:39:38.633,8.125,6.375
14:39:38.633,9.0625,8.0625
14:39:38.634,10.875,12.4375
14:39:38.636,11.875,18.6876
14:39:38.691,14.3126,26.5626
14:39:38.691,16.2501,34.1251
14:39:38.691,18.3126,42.1252
14:39:38.693,20.6876,50.3127
14:39:38.697,23.1876,56.1877
14:39:38.701,24.1876,60.0627
14:39:38.711,25.0626,66.0003
14:39:38.721,26.7501,68.1253
14:39:38.731,25.8126,70.1878
14:39:38.741,26.6876,71.3753
14:39:38.751,27.4376,71.3753
14:39:38.760,27.5626,70.2503
14:39:38.771,27.0626,70.5003
14:39:38.781,26.6876,68.8753
14:39:38.791,26.5626,67.8128
14:39:38.807,25.7501,67.3128
14:39:38.811,25.4376,65.9378
14:39:38.819,24.8126,63.6252
14:39:38.831,23.7501,61.1877
14:39:38.841,23.3751,56.8752
14:39:38.851,22.8751,55.0002
14:39:38.863,21.8126,55.0627
14:39:38.870,22.1251,53.6252
14:39:38.881,21.7501,52.7502
14:39:38.889,22.1876,53.8127
14:39:38.919,21.5626,53.0627
14:39:38.922,21.5001,53.8752
14:39:38.925,23.3751,54.5627
14:39:38.931,23.1251,54.8752
14:39:38.940,22.5626,55.2502
14:39:38.949,23.0626,56.4377
14:39:38.961,22.0001,54.0627
14:39:38.969,21.2501,52.7502
14:39:38.980,20.8126,52.5627
14:39:38.991,20.8751,51.5627
14:39:39.003,20.5626,49.4377
14:39:39.009,19.6876,48.8127
14:39:39.021,19.8751,46.2502
14:39:39.031,18.4376,44.5002
14:39:39.039,17.8751,43.1252
14:39:39.049,17.2501,39.8752
14:39:39.061,16.0001,36.8751
14:39:39.071,15.6251,35.6876
14:39:39.079,15.0001,32.8126
14:39:39.089,14.5626,31.6251
14:39:39.101,13.3751,28.6876
14:39:39.111,12.5,25.7501
14:39:39.123,11.625,25.1251
14:39:39.129,11.4375,22.0001
14:39:39.141,10.375,20.1876
14:39:39.151,9.6875,17.8126
14:39:39.160,8.6875,17.3751
14:39:39.171,8.8125,15.0001
14:39:39.182,7.75,11.8125
14:39:39.192,6.75,11.4375
14:39:39.201,7.1875,10.0625
14:39:39.210,6.4375,7.4375
14:39:39.221,5.5,5.5
14:39:39.233,5.1875,5.8125
14:39:39.239,6,4.8125
14:39:39.250,6.1875,6.9375
14:39:39.261,6.5625,10.625
14:39:39.270,8.375,17.9376
14:39:39.281,10.8125,25.8126
14:39:39.310,12.9375,33.5001
14:39:39.313,15.1251,42.0002
14:39:39.318,17.5001,48.3752
14:39:39.321,19.6251,54.3752
14:39:39.349,20.6251,58.5002
14:39:39.352,20.7501,63.1877
14:39:39.355,22.7501,65.1252
14:39:39.361,23.1251,66.3128
14:39:39.388,22.8126,66.2503
14:39:39.391,22.6251,67.4378
14:39:39.393,22.7501,66.8128
14:39:39.422,22.5626,64.6877
14:39:39.425,22.1876,62.9377
14:39:39.427,21.2501,63.0002
14:39:39.433,21.6251,60.1877
14:39:39.468,20.6876,57.9377
14:39:39.471,20.8126,57.4377
14:39:39.473,19.6876,55.5627
14:39:39.476,18.7501,52.2502
14:39:39.481,17.7501,52.0002
14:39:39.490,18.0001,49.9377
14:39:39.501,17.6251,47.8752
14:39:39.510,16.2501,45.2502
14:39:39.521,15.7501,45.9377
14:39:39.531,16.0626,43.5002
14:39:39.540,15.7501,43.2502
14:39:39.549,15.5001,43.1252
14:39:39.565,15.2501,43.2502
14:39:39.572,16.1251,43.6877
14:39:39.581,16.1251,43.0627
14:39:39.589,16.0626,43.4377
14:39:39.600,15.8751,44.8752
14:39:39.613,16.0626,43.5627
14:39:39.621,15.3751,42.1252
14:39:39.630,14.3751,41.7502
14:39:39.641,15.3751,41.0002
14:39:39.649,13.8751,39.8752
14:39:39.659,13,38.5626
14:39:39.669,13.3751,35.8751
14:39:39.681,12,33.1251
14:39:39.689,11.5625,33.0001
14:39:39.700,11.9375,30.5001
14:39:39.711,10.125,27.7501
14:39:39.721,10.125,25.8751
14:39:39.729,9.0625,23.1876
14:39:39.741,8,22.6251
14:39:39.751,7.875,19.6251
14:39:39.759,6.125,16.5626
14:39:39.771,5.8125,15.5626
14:39:39.780,5.3125,12.6875
14:39:39.790,4.25,10.875
14:39:39.802,3.75,10.3125
14:39:39.811,3.25,6.8125
14:39:39.819,2.8125,4.25
14:39:39.831,0.9375,3.5625
14:39:39.841,1.1875,1.375
14:39:39.849,0.4375,-1.5
14:39:39.861,-0.9375,-3.375
14:39:39.873,-1.4375,-5.1875
14:39:39.880,-3.75,-8.875
14:39:39.891,-4.875,-11.625
14:39:39.901,-5.0625,-11.75
14:39:39.911,-5.125,-10.4375
14:39:39.945,-4.1875,-8.75
14:39:39.947,-3.6875,-2.6875
14:39:39.949,-1.0625,4.1875
14:39:39.990,1.6875,11.125
14:39:40.022,3.25,18.3751
14:39:40.024,4.875,26.7501
14:39:40.026,7.375,31.4376
14:39:40.026,8.75,36.6251
14:39:40.027,9.8125,41.8127
14:39:40.059,10.5625,42.9377
14:39:40.061,10.75,44.9377
14:39:40.113,11.125,45.7502
14:39:40.113,10.6875,46.5002
14:39:40.116,11.1875,45.3752
14:39:40.116,11.1875,44.3127
14:39:40.120,11.1875,43.5002
14:39:40.121,10.625,42.4377
14:39:40.121,10.875,41.5002
14:39:40.126,10.625,39.3752
14:39:40.136,10.125,39.0626
14:39:40.144,9.125,37.4376
14:39:40.154,9.0625,35.0626
14:39:40.167,8.3125,32.6876
14:39:40.198,8.125,30.3751
14:39:40.201,7.875,28.3126
14:39:40.203,7.25,27.0626
14:39:40.208,6.3125,26.0626
14:39:40.214,5.75,25.1876
14:39:40.225,5.9375,24.4376
14:39:40.234,6.0625,26.7501
14:39:40.244,7.3125,27.1876
14:39:40.255,8.8125,28.1251
14:39:40.266,8.0625,28.6251
14:39:40.275,8,28.6251
14:39:40.284,8,29.4376
14:39:40.295,7.375,26.9376
14:39:40.305,6.8125,25.6251
14:39:40.314,5.3125,24.3126
14:39:40.324,4.25,22.7501
14:39:40.336,3.8125,19.1876
14:39:40.346,2.875,16.2501
14:39:40.356,2.3125,16.3126
14:39:40.366,1.25,14.3751
14:39:40.376,1.1875,11.25
14:39:40.384,-0.0625,9.8125
14:39:40.395,-1,7.4375
14:39:40.405,-1,4.625
14:39:40.419,-2.1875,1.5625
14:39:40.424,-3.375,0.9375
14:39:40.434,-3.8125,-2.1875
14:39:40.447,-4.25,-4.875
14:39:40.456,-5.375,-4.8125
14:39:40.464,-4.6875,-7.875
14:39:40.475,-5.9375,-10.125
14:39:40.484,-7.3125,-12.125
14:39:40.496,-7.6875,-13
14:39:40.505,-8.1875,-16.6876
14:39:40.515,-10.3125,-19.8126
14:39:40.524,-11.5,-20.0626
14:39:40.536,-12,-23.8751
14:39:40.546,-13.6251,-23.4376
14:39:40.556,-13.4376,-23.6876
14:39:40.565,-14.0001,-21.1876
14:39:40.574,-12.5,-14.8751
14:39:40.587,-11.25,-9.5625
14:39:40.594,-9.875,-2.3125
14:39:40.604,-8.0625,3.625
14:39:40.614,-6.5,9.125
14:39:40.626,-5.6875,14.3751
14:39:40.635,-4.875,17.9376
14:39:40.646,-3.25,20.7501
14:39:40.655,-2.8125,22.8751
14:39:40.667,-2.1875,23.5626
14:39:40.701,-2.0625,24.4376
14:39:40.704,-2,23.6251
14:39:40.705,-2.0625,22.6251
14:39:40.707,-2.0625,21.8126
14:39:40.740,-2.8125,19.6876
14:39:40.745,-3.4375,17.6876
14:39:40.745,-3.375,17.1251
14:39:40.748,-3.875,14.6876
14:39:40.784,-3.9375,14.6876
14:39:40.786,-4.125,12.4375
14:39:40.788,-4.625,11.25
14:39:40.814,-4.5,9.625
14:39:40.816,-4.5625,7.3125
14:39:40.818,-5.25,6.25
14:39:40.822,-5.1875,4.75
14:39:40.847,-6.0625,5.375
14:39:40.851,-6,3
14:39:40.852,-6.3125,1.9375
14:39:40.865,-6.125,2.875
14:39:40.871,-6.375,2.0625
14:39:40.880,-6.75,3.125
14:39:40.889,-6.1875,5.3125
14:39:40.899,-5.3125,4.9375
14:39:40.909,-4.625,5.125
14:39:40.921,-5.25,4.9375
14:39:40.929,-5.75,4.8125
14:39:40.940,-5.75,3
14:39:40.950,-6.1875,2.125
14:39:40.960,-7.0625,0.3125
14:39:40.969,-6.75,-0.9375
14:39:40.980,-7.875,-3
14:39:40.991,-8.9375,-4.375
14:39:40.999,-9.1875,-7.9375
14:39:41.010,-10.75,-8.4375
14:39:41.019,-10.75,-11.25
14:39:41.029,-11.375,-13.2501
14:39:41.040,-11.5625,-14.7501
14:39:41.053,-12.4375,-17.5001
14:39:41.060,-12.75,-18.2501
14:39:41.071,-13.9376,-22.0626
14:39:41.079,-14.2501,-22.8751
14:39:41.090,-14.2501,-24.2501
14:39:41.099,-15.0001,-26.1876
14:39:41.111,-15.5626,-28.2501
14:39:41.119,-16.5626,-28.7501
14:39:41.129,-16.0001,-30.4376
14:39:41.139,-16.5001,-31.6876
14:39:41.149,-16.8751,-32.4376
14:39:41.159,-17.1251,-35.0626
14:39:41.169,-18.6251,-35.0626
14:39:41.179,-17.7501,-38.0001
14:39:41.189,-18.7501,-38.0626
14:39:41.199,-18.9376,-40.2502
14:39:41.212,-19.1876,-39.2502
14:39:41.220,-19.1251,-37.0626
14:39:41.229,-16.6876,-33.1876
14:39:41.242,-14.4376,-25.8751
14:39:41.249,-12,-18.1876
14:39:41.259,-10.375,-11.1875
14:39:41.272,-8,-3.25
14:39:41.279,-6.3125,3.625
14:39:41.291,-4.25,9.25
14:39:41.303,-3.9375,14.0626
14:39:41.309,-2.5,16.9376
14:39:41.320,-2.6875,19.8751
14:39:41.331,-1.0625,20.7501
14:39:41.346,-0.4375,22.1876
14:39:41.362,-0.375,21.3126
14:39:41.376,-0.8125,21.0626
14:39:41.378,-1.75,20.1876
14:39:41.392,-1.25,19.1251
14:39:41.393,-1.75,16.8751
14:39:41.403,-2.0625,15.7501
14:39:41.432,-2.5,14.3751
14:39:41.436,-2.625,14.0001
14:39:41.469,-2.75,12.6875
14:39:41.498,-3.0625,12.3125
14:39:41.500,-2.4375,10.875
14:39:41.500,-2.8125,8.625
14:39:41.529,-3.6875,9.4375
14:39:41.530,-3.5625,6.9375
14:39:41.534,-3.9375,5.875
14:39:41.534,-3.75,6.375
14:39:41.534,-4.5625,3.9375
14:39:41.564,-5.25,4
14:39:41.568,-5.5,3.75
14:39:41.568,-3.875,4.1875
14:39:41.570,-3.6875,4.5625
14:39:41.584,-3.9375,5.6875
14:39:41.589,-3.6875,6.5
14:39:41.599,-3.125,6.625
14:39:41.616,-3.625,5.8125
14:39:41.621,-4.0625,6.375
14:39:41.629,-4.5625,4.8125
14:39:41.640,-5.4375,3.25
14:39:41.649,-7.3125,0.3125
14:39:41.659,-8.0625,-2.375
14:39:41.669,-8.5625,-5.5
14:39:41.681,-9.8125,-7.3125
14:39:41.689,-9.75,-9.1875
14:39:41.699,-10.875,-12.5
14:39:41.710,-12.0625,-15.5001
14:39:41.719,-12.75,-16.5626
14:39:41.731,-13,-17.6876
14:39:41.740,-12.6875,-20.0001
14:39:41.749,-13.3751,-21.8751
14:39:41.760,-14.5626,-23.6251
14:39:41.769,-14.7501,-26.1251
14:39:41.782,-15.1251,-26.7501
14:39:41.790,-14.8126,-27.9376
14:39:41.799,-15.6876,-30.6876
14:39:41.811,-16.8126,-30.6251
14:39:41.821,-17.1876,-33.4376
14:39:41.830,-17.9376,-35.5001
14:39:41.839,-18.5001,-36.8751
14:39:41.854,-18.6876,-38.7501
14:39:41.861,-19.0001,-39.1252
14:39:41.870,-18.9376,-39.8127
14:39:41.879,-18.4376,-37.3126
14:39:41.889,-16.8751,-33.4376
14:39:41.900,-14.6251,-26.3126
14:39:41.909,-12.375,-19.7501
14:39:41.920,-10.4375,-11.875
14:39:41.930,-8.875,-5.25
14:39:41.940,-7.0625,1.5
14:39:41.949,-5.375,7.1875
14:39:41.959,-4.3125,11.4375
14:39:41.970,-3.75,16.0626
14:39:41.979,-2.6875,17.6876
14:39:41.991,-0.9375,19.4376
14:39:41.999,-0.1875,20.8126
14:39:42.010,-0.3125,20.1251
14:39:42.021,-0.125,20.0001
14:39:42.030,-0.1875,19.5626
14:39:42.039,0.5625,19.9376
14:39:42.051,0.4375,18.2501
14:39:42.059,-0.375,17.5001
14:39:42.069,0.0625,16.5001
14:39:42.080,-0.5625,14.5626
14:39:42.089,-0.4375,14.8751
14:39:42.099,-0.5625,13
14:39:42.110,-1.25,10.375
14:39:42.119,-0.6875,9.8125
14:39:42.131,-1.5625,7.5625
14:39:42.140,-2.4375,6.1875
14:39:42.149,-2.6875,5.1875
14:39:42.183,-3,3.9375
14:39:42.186,-3.5625,4
14:39:42.188,-3.625,2.8125
14:39:42.191,-4.25,3.6875
14:39:42.223,-4.0625,3
14:39:42.226,-3.9375,2.875
14:39:42.228,-4.1875,3.5625
14:39:42.231,-3.5,4.0625
14:39:42.263,-3.8125,3.875
14:39:42.265,-4.0625,4.4375
14:39:42.267,-4.25,4.5
14:39:42.272,-3.8125,2.9375
14:39:42.304,-4.375,3
14:39:42.306,-3.8125,1.625
14:39:42.308,-5.125,0.3125
14:39:42.339,-4.625,-1
14:39:42.339,-5.875,-2.9375
14:39:42.341,-5.625,-4.125
14:39:42.347,-6.625,-6.375
14:39:42.349,-7.3125,-7.625
14:39:42.364,-7.9375,-8.75
14:39:42.372,-8.3125,-12
14:39:42.380,-8.6875,-12.5
14:39:42.389,-7.9375,-13.8126
14:39:42.401,-8.875,-15.1876
14:39:42.410,-9.0625,-16.3751
14:39:42.419,-9,-18.2501
14:39:42.430,-9.8125,-20.1251
14:39:42.440,-10.4375,-20.8126
14:39:42.450,-10.75,-23.6251
14:39:42.460,-12.25,-24.7501
14:39:42.470,-12.375,-26.4376
14:39:42.479,-12.8125,-28.1876
14:39:42.490,-13.6876,-29.1876
14:39:42.500,-13.2501,-30.3751
14:39:42.509,-13.3126,-28.8751
14:39:42.520,-12.5,-26.8126
14:39:42.530,-11.5625,-21.6251
14:39:42.540,-9.5,-14.1251
14:39:42.552,-7.1875,-7.125
14:39:42.559,-4.9375,-0.8125
14:39:42.569,-3.1875,6.3125
14:39:42.579,-1.5625,11.625
14:39:42.589,-0.0625,17.0626
14:39:42.600,1.375,20.3126
14:39:42.610,1.875,23.3751
14:39:42.620,3.0625,24.0001
14:39:42.629,3.125,26.3751
14:39:42.639,3.75,25.2501
14:39:42.649,3.5,25.4376
14:39:42.661,3.3125,24.3751
14:39:42.676,2.9375,23.5626
14:39:42.682,2.25,21.7501
14:39:42.691,1.9375,20.2501
14:39:42.700,1.3125,18.1876
14:39:42.715,0.625,17.3126
14:39:42.730,1.1875,14.5626
14:39:42.731,-0.125,14.6876
14:39:42.760,-0.5625,11.5
14:39:42.763,-1.125,8.375
14:39:42.765,-2.0625,7.8125
14:39:42.781,-2.5,5.5625
14:39:42.786,-3.3125,3.9375
14:39:42.789,-3.8125,4.375
14:39:42.804,-3.75,2.625
14:39:42.820,-4.3125,1.4375
14:39:42.822,-4.1875,2
14:39:42.832,-4.375,3.1875
14:39:42.839,-4.25,3.5
14:39:42.849,-3.875,3.4375
14:39:42.861,-3.5,3.5625
14:39:42.869,-3.375,3.125
14:39:42.879,-3.4375,4.3125
14:39:42.892,-3.25,4.3125
14:39:42.900,-3.125,3.25
14:39:42.927,-3.4375,1.8125
14:39:42.929,-4.3125,0.875
14:39:42.932,-4.5,0.375
14:39:42.961,-4.5625,-1.5625
14:39:42.965,-4.875,-1.5625
14:39:42.968,-4.375,-3.5
14:39:42.969,-4.9375,-3.3125
14:39:42.999,-4.9375,-5.25
14:39:43.004,-4.75,-7.875
14:39:43.004,-5.25,-8.3125
14:39:43.011,-5.625,-9.875
14:39:43.036,-5.75,-10.5625
14:39:43.038,-4.9375,-11.3125
14:39:43.041,-6.3125,-13.1876
14:39:43.068,-6.125,-14.0626
14:39:43.071,-6.0625,-15.9376
14:39:43.073,-7.1875,-17.0626
14:39:43.081,-7,-17.7501
14:39:43.089,-6.8125,-19.3751
14:39:43.099,-7.25,-20.8126
14:39:43.113,-7.3125,-21.5001
14:39:43.122,-8.25,-22.4376
14:39:43.129,-8.25,-24.5001
14:39:43.142,-9.5625,-26.9376
14:39:43.149,-9.75,-28.2501
14:39:43.160,-10.4375,-29.6876
14:39:43.170,-10.8125,-29.8126
14:39:43.180,-10.0625,-26.8126
14:39:43.189,-8.6875,-22.9376
14:39:43.200,-7.5,-16.7501
14:39:43.209,-5.3125,-9.25
14:39:43.222,-3.25,-1.9375
14:39:43.230,-0.0625,5.625
14:39:43.239,1.5,12.6875
14:39:43.252,4,17.9376
14:39:43.260,4.75,23.1251
14:39:43.269,7,27.2501
14:39:43.280,7.1875,29.3751
14:39:43.289,7.875,30.7501
14:39:43.300,7.875,31.6251
14:39:43.310,8.5625,31.8126
14:39:43.320,7.875,31.3751
14:39:43.330,7.875,30.5626
14:39:43.340,7.625,30.0001
14:39:43.349,7.5625,28.2501
14:39:43.359,6.5,26.7501
14:39:43.369,7.375,26.3751
14:39:43.379,6.5625,25.5626
14:39:43.390,6.3125,24.6251
14:39:43.400,6.4375,21.8126
14:39:43.410,5.8125,20.6876
14:39:43.420,5.8125,21.6876
14:39:43.429,7.3125,20.5626
14:39:43.439,7.4375,19.9376
14:39:43.449,7.6875,20.3126
14:39:43.459,7.75,20.9376
14:39:43.469,9.1875,20.9376
14:39:43.480,9.625,21.5001
14:39:43.489,8.875,21.5626
14:39:43.500,8.4375,22.2501
14:39:43.510,8.5625,21.4376
14:39:43.520,7.5,19.8126
14:39:43.530,6.375,19.6876
14:39:43.541,6.4375,19.8126
14:39:43.549,6.0625,18.1251
14:39:43.559,4.9375,16.6876
14:39:43.590,4,15.5626
14:39:43.592,3.5,14.9376
14:39:43.595,3.6875,12.9375
14:39:43.601,3.0625,11.4375
14:39:43.628,1.875,11.8125
14:39:43.631,2.125,9.4375
14:39:43.633,1.625,7.75
14:39:43.640,1.75,6.875
14:39:43.667,1.75,5.1875
14:39:43.669,0.5,2.6875
14:39:43.672,0.0625,3
14:39:43.694,0.3125,0.5625
14:39:43.697,0.0625,-1.6875
14:39:43.726,-0.75,-2.0625
14:39:43.730,0,-3.8125
14:39:43.731,-1.6875,-6.125
14:39:43.733,-2.75,-6.6875
14:39:43.740,-2.4375,-8.875
14:39:43.753,-2.8125,-10.875
14:39:43.759,-4.6875,-14.0001
14:39:43.772,-4.875,-15.8126
14:39:43.780,-6.6875,-18.9376
14:39:43.789,-7.875,-21.6251
14:39:43.800,-8.5625,-21.8751
14:39:43.810,-9.1875,-24.3751
14:39:43.820,-9.5,-23.6876
14:39:43.830,-9,-21.0001
14:39:43.839,-6.9375,-16.1251
14:39:43.850,-5.375,-10.0625
14:39:43.862,-3.875,-2.8125
14:39:43.870,-0.125,4.5
14:39:43.879,1.25,12.4375
14:39:43.889,4.25,18.8126
14:39:43.900,6.0625,24.2501
14:39:43.910,7.1875,28.5626
14:39:43.919,8.125,32.3751
14:39:43.931,9.25,34.2501
14:39:43.940,10.0625,35.8751
14:39:43.949,9.625,34.7501
14:39:43.963,10.3125,35.0001
14:39:43.970,9.4375,34.0626
14:39:43.980,9.25,33.8751
14:39:43.998,9.1875,32.5001
14:39:44.005,8.8125,31.7501
14:39:44.013,8.5625,29.4376
14:39:44.051,8.1875,29.6876
14:39:44.066,7.375,25.9376
14:39:44.068,6.6875,25.8751
14:39:44.068,5.9375,22.7501
14:39:44.070,4.75,20.5001
14:39:44.074,4.5625,18.3751
14:39:44.080,3.1875,15.2501
14:39:44.090,0.875,12.3125
14:39:44.104,-1,9.9375
14:39:44.121,-3.0625,7.25
14:39:44.124,-3.6875,5.1875
14:39:44.140,-6,2.0625
14:39:44.141,-6.5625,2.0625
14:39:44.149,-6.1875,3.0625
14:39:44.159,-6,2.6875
14:39:44.170,-5.3125,3.0625
14:39:44.185,-5,3.75
14:39:44.190,-4.625,5.1875
14:39:44.199,-4.375,4.8125
14:39:44.209,-4.875,3.5
14:39:44.221,-4.9375,1.6875
14:39:44.230,-5.875,-0.25
14:39:44.243,-6.875,-2
14:39:44.249,-6.4375,-3.875
14:39:44.259,-7.5625,-5.9375
14:39:44.271,-8,-6.9375
14:39:44.280,-8.0625,-7.9375
14:39:44.289,-8,-9.9375
14:39:44.299,-9.3125,-12.5625
14:39:44.310,-9.9375,-13.9376
14:39:44.319,-10,-16.6251
14:39:44.329,-10.9375,-17.3126
14:39:44.339,-11.125,-19.6876
14:39:44.368,-12.25,-22.5001
14:39:44.370,-12.5625,-23.1876
14:39:44.373,-13.7501,-26.1876
14:39:44.408,-14.6251,-28.0001
14:39:44.408,-14.9376,-30.1876
14:39:44.408,-16.2501,-32.8751
14:39:44.414,-16.7501,-34.8126
14:39:44.420,-17.6251,-36.6876
14:39:44.445,-18.4376,-38.6251
14:39:44.447,-19.5001,-41.1877
14:39:44.449,-19.4376,-42.1252
14:39:44.479,-19.8126,-43.6877
14:39:44.483,-19.7501,-42.9377
14:39:44.488,-19.5001,-39.4377
14:39:44.490,-17.5626,-34.8751
14:39:44.526,-15.4376,-27.3126
14:39:44.529,-13.4376,-21.2501
14:39:44.532,-11.1875,-12.375
14:39:44.536,-8.75,-6.125
14:39:44.539,-6.375,1.4375
14:39:44.551,-4.1875,6.75
14:39:44.560,-2.375,11.8125
14:39:44.569,-1.5625,14.8751
14:39:44.580,-0.4375,17.2501
14:39:44.589,-0.5625,17.1251
14:39:44.600,-1.125,17.4376
14:39:44.610,-0.375,17.1251
14:39:44.618,-1.625,16.1251
14:39:44.632,-5,11.875
14:39:44.640,-7.125,6.625
14:39:44.649,-10.5625,2.25
14:39:44.659,-12.3125,-0.75
14:39:44.669,-12.8125,-3.3125
14:39:44.681,-13.4376,-4.6875
14:39:44.689,-12.125,-3.875
14:39:44.699,-9.9375,-1.75
14:39:44.710,-7.6875,0.125
14:39:44.719,-5.1875,1.1875
14:39:44.731,-4.125,0.6875
14:39:44.739,-2.5,3.4375
14:39:44.749,-0.6875,4.5625
14:39:44.761,2.625,8.625
14:39:44.769,6.5,12.9375
14:39:44.781,8.9375,16.3751
14:39:44.789,8.3125,17.2501
14:39:44.800,8.9375,15.8126
14:39:44.815,11.9375,22.3126
14:39:44.824,14.0001,24.0001
14:39:44.834,14.3126,25.9376
14:39:44.844,11.75,23.1251
14:39:44.856,8.9375,17.6251
14:39:44.865,7.8125,16.8126
14:39:44.875,7.75,16.0001
14:39:44.883,7.75,15.8751
14:39:44.896,7.8125,15.0001
14:39:44.904,8.6875,17.2501
14:39:44.914,8.4375,16.3751
14:39:44.925,8.5,16.3126
14:39:44.934,13.125,19.6251
14:39:44.946,19.0626,25.5626
14:39:44.955,22.8126,28.6876
14:39:44.964,22.3751,27.4376
14:39:44.975,23.3751,27.0001
14:39:44.984,21.3126,23.7501
14:39:44.995,15.0626,17.8751
14:39:45.005,8.875,8.625
14:39:45.014,6.75,2.1875
14:39:45.047,5.8125,-0.0625
14:39:45.049,4.875,-0.9375
14:39:45.052,5.3125,-3.375
14:39:45.078,4.125,-5.6875
14:39:45.080,2.1875,-9.25
14:39:45.082,-1.6875,-13.6876
14:39:45.087,-6.4375,-21.7501
14:39:45.115,-12.875,-29.8126
14:39:45.120,-18.3751,-35.3126
14:39:45.120,-21.3126,-39.2502
14:39:45.126,-23.8126,-38.4376
14:39:45.154,-24.8751,-35.0626
14:39:45.156,-24.3751,-31.9376
14:39:45.158,-24.3751,-27.8751
14:39:45.165,-22.3126,-21.8751
14:39:45.191,-19.6876,-14.5626
14:39:45.195,-15.1251,-8.875
14:39:45.196,-10.4375,-1.625
14:39:45.205,-4.4375,7.75
14:39:45.216,1.5,14.6251
14:39:45.224,7.5,22.3751
14:39:45.234,12.375,28.2501
14:39:45.245,15.3751,30.8126
14:39:45.254,15.6251,30.4376
14:39:45.263,14.3751,27.6876
14:39:45.278,11.9375,23.4376
14:39:45.285,10.25,20.1251
14:39:45.293,10.8125,18.8126
14:39:45.318,10.5625,17.6251
14:39:45.320,15.8751,22.1251
14:39:45.336,24.1251,29.7501
14:39:45.337,29.5001,35.8751
14:39:45.352,30.1876,35.8126
14:39:45.369,28.3126,33.4376
14:39:45.385,28.8126,31.3126
14:39:45.387,31.3126,34.9376
14:39:45.389,32.9376,37.0626
14:39:45.396,30.3751,32.3126
14:39:45.405,28.8126,30.6251
14:39:45.422,25.8126,28.0001
14:39:45.426,21.5626,22.0001
14:39:45.440,16.6876,14.6876
14:39:45.455,9,6.375
14:39:45.457,-0.3125,-6.625
14:39:45.467,-7.1875,-17.4376
14:39:45.474,-9.9375,-22.6876
14:39:45.483,-6.625,-17.5001
14:39:45.495,-0.5625,-10.9375
14:39:45.503,7.375,-3.8125
14:39:45.514,18.0626,7.8125
14:39:45.524,31.4376,23.3751
14:39:45.533,43.6877,39.4377
14:39:45.544,54.3752,52.3752
14:39:45.554,62.9377,60.8127
14:39:45.563,69.4378,68.1878
14:39:45.576,70.7503,70.0003
14:39:45.584,64.6877,61.0627
14:39:45.598,45.5002,36.0001
14:39:45.605,8.25,-9.1875
14:39:45.615,-26.8751,-55.6252
14:39:45.625,-43.6877,-79.8128
14:39:45.634,-51.5627,-89.0628
14:39:45.645,-53.9377,-96.0004
14:39:45.654,-55.3752,-96.6879
14:39:45.663,-56.0002,-99.3129
14:39:45.674,-58.3752,-100.8754
14:39:45.683,-61.0002,-102.6254
14:39:45.695,-60.5627,-103.6879
14:39:45.705,-59.7502,-101.6879
14:39:45.714,-61.8127,-104.4379
14:39:45.725,-64.1252,-106.9379
14:39:45.735,-64.0627,-108.5004
14:39:45.744,-62.8752,-106.5004
14:39:45.756,-59.3752,-103.5629
14:39:45.764,-53.8752,-96.2504
14:39:45.774,-45.3752,-87.8753
14:39:45.784,-37.3126,-76.3753
14:39:45.794,-33.1251,-72.8128
14:39:45.824,-25.8751,-61.8127
14:39:45.827,-12.9375,-44.8752
14:39:45.829,3.0625,-20.4376
14:39:45.836,19.0001,2.4375
14:39:45.863,32.1876,24.0001
14:39:45.865,41.3127,40.6252
14:39:45.867,50.8752,56.2502
14:39:45.874,58.9377,71.8753
14:39:45.904,64.6877,80.6253
14:39:45.906,69.8753,90.6253
14:39:45.909,73.0628,98.4379
14:39:45.915,76.4378,101.5629
14:39:45.942,78.5628,106.2504
14:39:45.945,82.1878,108.6254
14:39:45.947,85.2503,113.6879
14:39:45.955,88.1878,116.3754
14:39:45.982,88.5003,115.6879
14:39:45.985,81.6878,107.6254
14:39:45.987,69.9378,91.4379
14:39:45.994,50.5627,69.3128
14:39:46.003,28.3751,40.5002
14:39:46.014,6.75,12.875
14:39:46.026,-10.0625,-8.375
14:39:46.036,-20.1876,-24.9376
14:39:46.044,-28.5001,-35.3126
14:39:46.053,-33.1251,-41.7502
14:39:46.065,-36.8126,-47.3752
14:39:46.073,-39.5002,-49.8127
14:39:46.087,-41.5002,-53.3127
14:39:46.095,-42.9377,-54.7502
14:39:46.105,-45.5627,-57.3127
14:39:46.120,-46.5002,-57.1877
14:39:46.124,-45.5627,-55.1877
14:39:46.135,-45.1877,-54.0627
14:39:46.143,-42.6252,-50.8752
14:39:46.157,-39.5002,-45.4377
14:39:46.164,-33.4376,-37.5626
14:39:46.174,-27.0626,-30.4376
14:39:46.185,-20.3751,-22.3126
14:39:46.194,-14.1876,-13.3126
14:39:46.208,-7.125,-5.1875
14:39:46.214,-3.4375,-0.5625
14:39:46.226,-9.1875,-12.4375
14:39:46.235,-11.625,-19.0626
14:39:46.244,-9,-16.5001
14:39:46.254,-5.9375,-13.0625
14:39:46.264,-10.3125,-15.9376
14:39:46.273,-11.5,-21.3126
14:39:46.284,-19.5001,-31.0001
14:39:46.296,-24.8126,-41.8752
14:39:46.305,-27.3126,-46.7502
14:39:46.315,-30.0001,-49.3752
14:39:46.324,-29.8751,-52.1877
14:39:46.333,-29.3751,-53.0627
14:39:46.348,-25.9376,-48.8752
14:39:46.354,-19.2501,-41.8127
14:39:46.365,-12.875,-32.3126
14:39:46.376,-7.8125,-27.0001
14:39:46.383,-4.25,-24.3751
14:39:46.393,-4.3125,-23.4376
14:39:46.404,-4.0625,-24.2501
14:39:46.413,-5.4375,-24.6876
14:39:46.423,-6.125,-27.5626
14:39:46.435,-7.0625,-29.7501
14:39:46.443,-12.125,-33.6251
14:39:46.454,-19.0626,-44.1252
14:39:46.465,-28.1876,-52.5002
14:39:46.475,-34.2501,-63.9377
14:39:46.483,-40.2502,-72.5003
14:39:46.493,-44.3752,-77.1253
14:39:46.505,-45.4377,-80.2503
14:39:46.516,-42.0627,-76.8753
14:39:46.524,-37.9376,-71.3753
14:39:46.547,-35.7501,-70.2503
14:39:46.549,-40.6252,-75.3753
14:39:46.558,-55.5627,-90.4379
14:39:46.588,-79.6253,-119.3755
14:39:46.592,-87.1253,-126.8755
14:39:46.593,-73.8753,-108.8754
14:39:46.608,-42.0002,-66.1253
14:39:46.612,-0.625,-9.9375
14:39:46.636,28.5626,32.5626
14:39:46.637,47.5627,62.1877
14:39:46.665,60.6877,83.8753
14:39:46.667,66.9378,95.3754
14:39:46.711,69.5003,103.2504
14:39:46.726,68.1253,103.8754
14:39:46.728,66.1253,102.1879
14:39:46.728,64.8752,102.3754
14:39:46.728,67.4378,102.1879
14:39:46.742,68.8128,105.7504
14:39:46.751,68.4378,102.8754
14:39:46.752,67.7503,100.2504
14:39:46.768,70.8128,102.3129
14:39:46.780,79.0628,110.6879
14:39:46.783,86.9378,120.313
14:39:46.797,93.8129,128.1255
14:39:46.798,101.1879,137.1255
14:39:46.804,105.2504,140.313
14:39:46.810,102.6254,138.1255
14:39:46.822,93.8129,126.313
14:39:46.828,77.5003,106.6254
14:39:46.839,60.4377,84.8128
