timestamp,Red,IR
12:57:59.952,5.25,3.3125
12:57:59.965,4.8125,2.0625
12:57:59.974,4.1875,1.8125
12:57:59.984,4.9375,2.3125
12:57:59.993,4.375,0.9375
12:58:00.007,4.125,0.8125
12:58:00.014,3.8125,0.625
12:58:00.023,3.625,1.9375
12:58:00.034,3.625,0.3125
12:58:00.043,4.0625,-0.1875
12:58:00.052,3.25,0.3125
12:58:00.064,3.625,0.1875
12:58:00.073,3.8125,-0.6875
12:58:00.083,3.4375,-0.9375
12:58:00.095,3.5625,-0.1875
12:58:00.109,4.5625,-0.25
12:58:00.116,3.25,-1.5
12:58:00.123,2.875,-0.0625
12:58:00.133,3.1875,-1.375
12:58:00.144,3.125,-2.1875
12:58:00.152,2.6875,-2.125
12:58:00.164,2.375,-1.25
12:58:00.172,2.625,-2.5625
12:58:00.182,2.4375,-3.0625
12:58:00.194,2.5,-3.1875
12:58:00.203,1.9375,-3.4375
12:58:00.212,2.3125,-4.1875
12:58:00.223,2.375,-4.125
12:58:00.233,2.25,-2.8125
12:58:00.244,2.375,-4.75
12:58:00.252,2.5,-2.8125
12:58:00.264,2.6875,-3.5
12:58:00.274,3.1875,-2.125
12:58:00.315,3.875,-1
12:58:00.317,3.8125,-0.625
12:58:00.320,4.25,1.375
12:58:00.324,5.1875,2.9375
12:58:00.325,5.6875,3.625
12:58:00.333,5.8125,5.5
12:58:00.360,7.4375,6.4375
12:58:00.366,6.75,6.125
12:58:00.369,7.5625,7.5
12:58:00.438,7.875,7.3125
12:58:00.440,7.5,7.75
12:58:00.442,7.3125,7.5
12:58:00.445,7.125,7.1875
12:58:00.471,7.6875,7.6875
12:58:00.474,7.5,7.3125
12:58:00.474,7.4375,7.5625
12:58:00.474,7.75,7.6875
12:58:00.475,7.4375,7.9375
12:58:00.477,8.75,8.125
12:58:00.482,8.0625,7.0625
12:58:00.489,8.1875,6.8125
12:58:00.498,7.875,7.4375
12:58:00.509,8.25,6.625
12:58:00.519,7.625,6.3125
12:58:00.529,7.125,5.8125
12:58:00.537,7,6.0625
12:58:00.548,7.9375,6.0625
12:58:00.557,7.75,6
12:58:00.568,7.375,5.5
12:58:00.579,6.6875,5.25
12:58:00.587,6.625,5.25
12:58:00.597,6.875,5.0625
12:58:00.608,6.6875,4.625
12:58:00.619,6.375,4.25
12:58:00.627,6.4375,4.9375
12:58:00.638,6.25,5.25
12:58:00.648,6.3125,3.5625
12:58:00.657,6.375,3.8125
12:58:00.667,5.6875,4.875
12:58:00.679,6.3125,3.6875
12:58:00.688,6.375,2.625
12:58:00.697,5.625,2.75
12:58:00.708,5.875,2.875
12:58:00.717,5.9375,1.3125
12:58:00.733,5.0625,1.4375
12:58:00.745,5.75,1.9375
12:58:00.753,5.6875,1.1875
12:58:00.762,5.0625,0.5
12:58:00.774,4.5,1.125
12:58:00.782,5.0625,-0.0625
12:58:00.794,4.6875,-0.5
12:58:00.803,4.4375,-0.4375
12:58:00.812,4.1875,0.25
12:58:00.822,4.6875,-0.5
12:58:00.832,4.125,-1.5
12:58:00.843,3.8125,-0.125
12:58:00.854,3.625,-0.6875
12:58:00.862,4.75,-1.3125
12:58:00.873,3.625,-2.375
12:58:00.882,3.875,-2.6875
12:58:00.892,3.9375,-2
12:58:00.902,3.375,-3.3125
12:58:00.912,3.6875,-3.875
12:58:00.928,3,-3.75
12:58:00.933,3,-2.5
12:58:00.942,3.5625,-3.8125
12:58:00.954,2.375,-3.0625
12:58:00.962,2.5,-4.4375
12:58:00.972,2.9375,-5.625
12:58:00.983,2.375,-4.875
12:58:01.014,2.5,-5.0625
12:58:01.017,2.1875,-5.1875
12:58:01.019,2.1875,-4.75
12:58:01.028,3.0625,-5.625
12:58:01.038,3.25,-3.5625
12:58:01.049,4.5625,-3.75
12:58:01.079,5,-2.1875
12:58:01.081,5.6875,0.625
12:58:01.083,6.4375,1.4375
12:58:01.088,6.8125,3.5625
12:58:01.121,7.875,4.625
12:58:01.123,7.875,5.125
12:58:01.125,8.1875,7.0625
12:58:01.127,9,7.25
12:58:01.156,8.9375,7.4375
12:58:01.159,8.5625,8.3125
12:58:01.162,9,8.1875
12:58:01.167,9.25,9.125
12:58:01.202,10,9
12:58:01.203,9.375,9.125
12:58:01.207,9.875,10.0625
12:58:01.208,10.1875,9.875
12:58:01.238,10.5,9.375
12:58:01.241,10.125,10.6875
12:58:01.242,9.9375,10.875
12:58:01.249,10.3125,10.3125
12:58:01.258,9.9375,10.1875
12:58:01.268,9.875,10.6875
12:58:01.277,9.5625,10.0625
12:58:01.288,8.5625,9.375
12:58:01.302,8.1875,9.0625
12:58:01.309,7.4375,9.6875
12:58:01.318,8.375,8.5
12:58:01.327,8,7.9375
12:58:01.337,7.25,8.5
12:58:01.348,7.0625,8.5625
12:58:01.358,7.375,8.375
12:58:01.368,7.3125,7.25
12:58:01.378,6.875,7.0625
12:58:01.388,5.9375,7.125
12:58:01.397,7.0625,7.1875
12:58:01.408,6.4375,6.25
12:58:01.417,6.3125,7.5625
12:58:01.428,5.875,6.6875
12:58:01.437,5.4375,5.375
12:58:01.448,5.875,5.625
12:58:01.458,5.5,5.8125
12:58:01.467,5.875,4.9375
12:58:01.477,5.6875,3.75
12:58:01.487,4.375,4.4375
12:58:01.498,4.8125,3.4375
12:58:01.507,4.4375,2.5
12:58:01.517,4.25,3.75
12:58:01.527,4.75,2.5
12:58:01.538,4.0625,1.625
12:58:01.548,4.125,2.625
12:58:01.557,3.9375,1.5625
12:58:01.568,3.875,1.125
12:58:01.577,3.75,1.3125
12:58:01.588,3.9375,1.75
12:58:01.597,3.9375,0.625
12:58:01.607,3.375,0.6875
12:58:01.617,2.5625,1
12:58:01.627,4.125,-0.4375
12:58:01.638,2.5625,-1.125
12:58:01.648,2.9375,-0.5
12:58:01.658,2.3125,-1.3125
12:58:01.668,2.4375,-1.3125
12:58:01.677,2.875,-1.125
12:58:01.688,1.8125,-2.1875
12:58:01.697,1.4375,-2.1875
12:58:01.708,1.5,-1.8125
12:58:01.717,1.5,-2.8125
12:58:01.727,1.125,-2.5625
12:58:01.737,1.5,-1.9375
12:58:01.790,1.1875,-2.875
12:58:01.791,0.75,-3.25
12:58:01.805,1.0625,-3.4375
12:58:01.838,1.6875,-3.875
12:58:01.840,0.75,-3.25
12:58:01.840,1.625,-4.3125
12:58:01.841,0.5,-5.125
12:58:01.842,0.3125,-3.875
12:58:01.921,0.5,-5.0625
12:58:01.922,0,-6.0625
12:58:01.922,0.5625,-4.3125
12:58:01.922,0.125,-5.375
12:58:01.924,0.125,-5
12:58:01.932,1.25,-4.125
12:58:01.933,0.9375,-3.4375
12:58:01.937,1.9375,-0.4375
12:58:01.949,3.875,0.25
12:58:01.957,3.9375,1.1875
12:58:01.967,4.75,3.625
12:58:01.978,4.875,5.75
12:58:01.987,5.375,7.125
12:58:01.997,6.1875,6.375
12:58:02.008,6.4375,7.5625
12:58:02.018,6.875,9.3125
12:58:02.027,7.25,8.8125
12:58:02.037,8.0625,8.625
12:58:02.050,7.375,8.6875
12:58:02.060,9.125,10.375
12:58:02.067,8.625,9.875
12:58:02.077,8.5625,9.625
12:58:02.087,8.1875,10.6875
12:58:02.098,8.6875,10.1875
12:58:02.107,8.375,10.625
12:58:02.117,8.5,10.1875
12:58:02.127,8.25,9.3125
12:58:02.138,7.5625,10.375
12:58:02.148,8.3125,10.5
12:58:02.158,7.625,8.5625
12:58:02.168,7.3125,8.5
12:58:02.177,6.6875,8.1875
12:58:02.187,7.1875,7.4375
12:58:02.197,7,6.5625
12:58:02.209,6.9375,7.1875
12:58:02.218,7.25,7.25
12:58:02.229,6.5,6.25
12:58:02.237,6.0625,7.5625
12:58:02.248,5.8125,7.5
12:58:02.258,6.5,6.875
12:58:02.267,6.375,6.25
12:58:02.293,5.9375,5.6875
12:58:02.295,5.25,6.625
12:58:02.299,5.9375,6.3125
12:58:02.307,6.375,5
12:58:02.317,5.3125,3.9375
12:58:02.328,4.875,4.4375
12:58:02.337,5,4.125
12:58:02.348,4.75,3.375
12:58:02.357,4.625,3
12:58:02.367,5.125,3
12:58:02.377,4.8125,1.875
12:58:02.389,3.5,2.875
12:58:02.397,4,3.0625
12:58:02.407,4.5,2.75
12:58:02.418,4.0625,1.375
12:58:02.433,3.5,0.4375
12:58:02.448,2.6875,1.125
12:58:02.451,3.1875,0.9375
12:58:02.483,3.6875,0.125
12:58:02.486,3.5625,-0.125
12:58:02.488,2.8125,0.6875
12:58:02.490,3.25,-0.6875
12:58:02.523,2.8125,-1.5
12:58:02.524,2.5625,-1.4375
12:58:02.526,2.8125,-1.4375
12:58:02.529,2.5625,-2.5625
12:58:02.563,2.25,-2.5
12:58:02.565,1.4375,-1.9375
12:58:02.567,2.5,-2.25
12:58:02.596,1.875,-3.8125
12:58:02.598,1.1875,-3.0625
12:58:02.601,1.1875,-3.5
12:58:02.605,1.0625,-4.5
12:58:02.610,1,-4.25
12:58:02.618,1.625,-4.1875
12:58:02.627,1.375,-5.5
12:58:02.638,1.0625,-4.1875
12:58:02.648,2.3125,-3.0625
12:58:02.657,2.8125,-2.9375
12:58:02.668,3.4375,-1.5625
12:58:02.677,3.4375,0.75
12:58:02.687,5,1.4375
12:58:02.698,5,3.5625
12:58:02.707,6.0625,4.5625
12:58:02.718,6.5,5.25
12:58:02.728,6.3125,5.3125
12:58:02.738,6.125,7
12:58:02.747,7.125,7.4375
12:58:02.758,7.0625,7.3125
12:58:02.768,7.25,8.125
12:58:02.778,8.5,8.0625
12:58:02.788,7.4375,8
12:58:02.797,6.6875,8.0625
12:58:02.808,7.875,7.1875
12:58:02.817,6.75,8.5
12:58:02.828,7.5625,7.5
12:58:02.837,7.6875,6.5
12:58:02.848,7.3125,7.625
12:58:02.857,7.4375,8
12:58:02.867,7.625,7
12:58:02.877,6.875,6.6875
12:58:02.888,6.6875,7.5
12:58:02.897,6.625,6.625
12:58:02.907,5.9375,5.5625
12:58:02.918,5.625,6
12:58:02.928,6,5.4375
12:58:02.938,5.9375,4.8125
12:58:02.948,5.5,4.125
12:58:02.957,5.0625,5.625
12:58:02.968,5.625,4.375
12:58:02.978,5.9375,3.5625
12:58:02.987,5.3125,3.1875
12:58:02.998,6.125,3.625
12:58:03.007,5.375,2.9375
12:58:03.017,4.5,3.9375
12:58:03.028,4.75,2.75
12:58:03.038,4.1875,2.5
12:58:03.048,4.25,3.1875
12:58:03.057,3.9375,3.1875
12:58:03.067,3.9375,1.9375
12:58:03.077,3.3125,2.375
12:58:03.087,3.5,2.0625
12:58:03.098,3.6875,1.3125
12:58:03.107,3.0625,1.125
12:58:03.118,3.1875,0.375
12:58:03.128,3.75,-0.3125
12:58:03.183,2.8125,-1.25
12:58:03.183,3.25,-0.1875
12:58:03.184,2.625,-1.375
12:58:03.188,2.125,-1.625
12:58:03.219,1.75,-1.125
12:58:03.219,2.0625,-1.75
12:58:03.258,1.3125,-3.1875
12:58:03.260,1.375,-1.6875
12:58:03.262,1.25,-2.5625
12:58:03.264,1.0625,-3.5
12:58:03.264,0.8125,-1.875
12:58:03.268,1.125,-2.8125
12:58:03.299,1.6875,-3.875
12:58:03.301,1,-5
12:58:03.304,1.1875,-5.1875
12:58:03.308,1.0625,-4.8125
12:58:03.327,1.125,-5.875
12:58:03.328,0.75,-5
12:58:03.338,-0.125,-5.0625
12:58:03.348,0.375,-5.8125
12:58:03.357,0.0625,-6.125
12:58:03.368,0.125,-5.6875
12:58:03.378,-0.0625,-5.8125
12:58:03.387,0.25,-4.8125
12:58:03.397,0.375,-3.375
12:58:03.407,1.3125,-2.5
12:58:03.417,2.125,-1.25
12:58:03.428,6.0625,3.6875
12:58:03.437,6,4.1875
12:58:03.447,6.3125,5.125
12:58:03.458,6.0625,6.3125
12:58:03.468,6.875,6
12:58:03.478,6.75,5.8125
12:58:03.488,6.625,6.1875
12:58:03.497,6.3125,6.1875
12:58:03.507,6.5625,7.125
12:58:03.517,6.625,5.5625
12:58:03.527,7.25,7.25
12:58:03.538,6.5,6.625
12:58:03.571,7.125,8
12:58:03.573,7.25,7
12:58:03.576,6.8125,6.5625
12:58:03.579,8.125,6.75
12:58:03.587,6.9375,6.3125
12:58:03.598,6.75,7.4375
12:58:03.607,7.6875,6.1875
12:58:03.618,6.9375,5.0625
12:58:03.628,6.4375,6
12:58:03.637,6.6875,5.375
12:58:03.648,6.5,4.0625
12:58:03.657,5.5,5.375
12:58:03.669,5.8125,4
12:58:03.678,5.6875,3.1875
12:58:03.687,5.5625,3.9375
12:58:03.702,5.625,4.4375
12:58:03.707,6.375,3.5
12:58:03.717,5.5,3.4375
12:58:03.727,5.4375,3.1875
12:58:03.736,4.8125,3.375
12:58:03.747,5,2
12:58:03.757,4.3125,2.0625
12:58:03.768,4.3125,1.625
12:58:03.777,5.125,1.1875
12:58:03.788,4.125,0.5
12:58:03.796,3.875,2.0625
12:58:03.807,4.375,0.75
12:58:03.818,4,0.25
12:58:03.827,3.5,0.8125
12:58:03.837,4.4375,0.25
12:58:03.848,3.1875,-0.8125
12:58:03.858,3,0.1875
12:58:03.867,3.5,-1.4375
12:58:03.877,3.0625,-2.125
12:58:03.887,2.375,-2.4375
12:58:03.897,2.875,-2.25
12:58:03.907,2.375,-3.125
12:58:03.917,2,-2.0625
12:58:03.927,2.5625,-3
12:58:03.936,2,-3.9375
12:58:03.947,1.8125,-2.4375
12:58:03.965,2.125,-3.3125
12:58:03.968,1.6875,-4.5
12:58:03.994,1.1875,-4.8125
12:58:03.999,1.5625,-3.5625
12:58:04.002,1.8125,-4.6875
12:58:04.033,1.6875,-5.625
12:58:04.035,0.375,-4.4375
12:58:04.037,1.125,-5.6875
12:58:04.040,0.4375,-6.6875
12:58:04.073,0.8125,-6.125
12:58:04.074,0.6875,-7.4375
12:58:04.076,0.5625,-6.5
12:58:04.084,0.0625,-6.9375
12:58:04.094,-0.3125,-6.8125
12:58:04.099,0.6875,-6.4375
12:58:04.125,-0.125,-7.6875
12:58:04.126,-1,-6.9375
12:58:04.129,-0.25,-8.3125
12:58:04.143,-1.125,-8.375
12:58:04.146,-0.375,-8
12:58:04.157,0.3125,-8.5
12:58:04.166,-0.4375,-8.5
12:58:04.178,-0.125,-8.1875
12:58:04.187,0.1875,-8.75
12:58:04.197,0.125,-7.375
12:58:04.208,1.5625,-6.1875
12:58:04.217,1.75,-5.5
12:58:04.228,1.9375,-2.625
12:58:04.237,3.9375,-0.5
12:58:04.248,3.8125,0.9375
12:58:04.257,5.0625,2.75
12:58:04.267,5.125,2.375
12:58:04.277,5.125,4.5625
12:58:04.287,5.5625,4
12:58:04.298,5.625,5.75
12:58:04.307,6.5,5.375
12:58:04.316,5.3125,6.5
12:58:04.326,6.5,5.4375
12:58:04.337,6.25,5.6875
12:58:04.346,6.875,7.1875
12:58:04.358,6.5,5.625
12:58:04.369,6.625,7.125
12:58:04.377,6.8125,6.75
12:58:04.386,6.5625,7.4375
12:58:04.398,7.125,6.625
12:58:04.406,6.6875,5.9375
12:58:04.417,6.375,7.625
12:58:04.429,6.6875,7.1875
12:58:04.436,6.3125,6.125
12:58:04.446,5.9375,6.1875
12:58:04.457,5.5,7.125
12:58:04.467,5.625,5.375
12:58:04.509,4.9375,4.5
12:58:04.514,5.1875,4.5
12:58:04.529,4.75,5.125
12:58:04.543,5.375,4
12:58:04.543,4.625,3.1875
12:58:04.543,4.9375,4.5
12:58:04.559,4.4375,3.625
12:58:04.562,4.9375,3.6875
12:58:04.565,4.375,3.3125
12:58:04.567,4.375,2.875
12:58:04.577,3.75,2.625
12:58:04.587,3.6875,3.4375
12:58:04.596,4.9375,2.9375
12:58:04.606,3.5,2.0625
12:58:04.616,2.8125,2.4375
12:58:04.626,2.8125,1.9375
12:58:04.637,2.875,1.25
12:58:04.646,2.5,0.25
12:58:04.657,2.5,-0.4375
12:58:04.667,2.5,-0.625
12:58:04.677,2.5,-1.125
12:58:04.712,1.9375,-0.375
12:58:04.714,2.0625,-0.0625
12:58:04.716,1.875,-0.875
12:58:04.719,1.5625,-1.6875
12:58:04.749,1.8125,-2.4375
12:58:04.751,0.875,-2.625
12:58:04.754,1.5625,-2
12:58:04.757,1.1875,-3.1875
12:58:04.787,0.8125,-3.0625
12:58:04.789,1.0625,-3.5
12:58:04.791,0.5,-4
12:58:04.823,0.125,-3.25
12:58:04.824,1,-4.25
12:58:04.826,0.0625,-4.125
12:58:04.855,0.5625,-4.0625
12:58:04.857,0.125,-4.8125
12:58:04.857,-0.1875,-4.875
12:58:04.863,-0.625,-5.25
12:58:04.873,0.0625,-6.25
12:58:04.882,-0.8125,-4.9375
12:58:04.892,-0.5625,-6.375
12:58:04.901,-0.5625,-5
12:58:04.912,-0.3125,-6.75
12:58:04.921,-0.6875,-6.375
12:58:04.931,-0.9375,-6.875
12:58:04.941,-0.75,-7.875
12:58:04.952,-0.5625,-7.6875
12:58:04.961,-1.375,-8.375
12:58:04.971,-1.9375,-8.25
12:58:04.981,-1.3125,-8.125
12:58:04.991,-1.25,-8.875
12:58:05.002,-1.25,-9.5
12:58:05.012,-1.5,-9.625
12:58:05.022,-1.4375,-8.125
12:58:05.032,-1.25,-8.8125
12:58:05.042,-0.625,-7.9375
12:58:05.052,0.3125,-5.625
12:58:05.062,0.8125,-5.5
12:58:05.072,1.75,-2.625
12:58:05.081,2.5,-1.6875
12:58:05.093,3.0625,1.1875
12:58:05.102,4.1875,1.4375
12:58:05.111,5.1875,3.5625
12:58:05.121,4.9375,3.4375
12:58:05.131,4.875,4.5625
12:58:05.141,5.25,4.5625
12:58:05.151,5.25,5.375
12:58:05.162,5.5,3.9375
12:58:05.173,5.0625,4.5625
12:58:05.181,5.25,4.125
12:58:05.192,5.6875,5.4375
12:58:05.201,5.5625,5.625
12:58:05.213,6.75,5.25
12:58:05.222,5.6875,6.125
12:58:05.231,6.625,5.25
12:58:05.241,6.0625,6.875
12:58:05.251,6.125,5.625
12:58:05.261,5.875,5.8125
12:58:05.277,5.875,4.75
12:58:05.282,4.875,5.3125
12:58:05.291,5.75,4.3125
12:58:05.301,4.4375,3.8125
12:58:05.313,4.8125,3.875
12:58:05.321,4.375,2.3125
12:58:05.331,4.8125,3.3125
12:58:05.341,5.0625,2.25
12:58:05.351,4.25,1.8125
12:58:05.362,3.9375,3.0625
12:58:05.372,4.1875,1.4375
12:58:05.394,3.875,2.5
12:58:05.396,3.875,2.5
12:58:05.424,3.9375,1.4375
12:58:05.427,3.1875,1.375
12:58:05.429,3.875,1.9375
12:58:05.431,3.125,1.25
12:58:05.460,3.0625,0.875
12:58:05.461,2.9375,0.3125
12:58:05.465,2.3125,-1.125
12:58:05.496,2.9375,-0.125
12:58:05.499,3,-0.3125
12:58:05.500,2.0625,-1.375
12:58:05.502,2,-0.8125
12:58:05.512,2.8125,-2.125
12:58:05.546,1.8125,-0.875
12:58:05.547,2.3125,-2.125
12:58:05.551,1.6875,-2.9375
12:58:05.552,1.0625,-3.125
12:58:05.561,1.625,-3
12:58:05.572,1.8125,-3.5
12:58:05.581,0.6875,-4.375
12:58:05.592,1,-3.25
12:58:05.602,0.9375,-4.25
12:58:05.611,0.875,-4.6875
12:58:05.621,1,-4.3125
12:58:05.631,0,-4.25
12:58:05.641,0.9375,-5
12:58:05.651,0,-5.625
12:58:05.661,-0.125,-5.5625
12:58:05.671,0.5625,-5.75
12:58:05.681,-0.4375,-4.375
12:58:05.691,0.1875,-6.125
12:58:05.701,-0.9375,-6.9375
12:58:05.711,-0.9375,-7.125
12:58:05.721,-0.4375,-6.8125
12:58:05.731,-1.125,-7.1875
12:58:05.741,-1.5625,-6.875
12:58:05.751,-0.625,-7.3125
12:58:05.761,-0.75,-8.375
12:58:05.772,-0.5625,-7.4375
12:58:05.787,-0.3125,-7.25
12:58:05.801,0.375,-4.9375
12:58:05.803,0.6875,-5.125
12:58:05.818,2.125,-2.1875
12:58:05.834,3,-0.5
12:58:05.838,2.8125,1.0625
12:58:05.851,3.9375,2
12:58:05.857,4.25,3.6875
12:58:05.865,5.25,4.1875
12:58:05.871,4.8125,4.75
12:58:05.888,5,5.5625
12:58:05.892,5.3125,4.9375
12:58:05.908,5.4375,5.25
12:58:05.911,5.625,4.875
12:58:05.921,5.4375,6.1875
12:58:05.931,5.5,5.4375
12:58:05.941,5.25,6.75
12:58:05.951,6.125,5.5625
12:58:05.961,5.5,4.4375
12:58:05.971,4.75,5.75
12:58:05.981,5.5625,5.4375
12:58:05.991,5.6875,5.125
12:58:06.001,4.9375,4.0625
12:58:06.011,4.5625,4.4375
12:58:06.026,5,4.6875
12:58:06.032,3.9375,3.25
12:58:06.041,3.9375,4.375
12:58:06.051,3.8125,3
12:58:06.061,4.5,1.9375
12:58:06.071,4.125,1.75
12:58:06.101,3.6875,3.0625
12:58:06.104,4.375,3.125
12:58:06.107,4.1875,2.0625
12:58:06.131,3.6875,1.5
12:58:06.134,3.1875,2.3125
12:58:06.138,3.5625,2.75
12:58:06.142,4.1875,1.5
12:58:06.168,3.5,0.9375
12:58:06.173,3,0.3125
12:58:06.174,3.125,0.875
12:58:06.203,3.5625,1.125
12:58:06.205,2.4375,-0.5
12:58:06.207,2.6875,-0.25
12:58:06.212,3,-0.4375
12:58:06.244,3.5,-0.5625
12:58:06.246,2.3125,-1.625
12:58:06.248,2.4375,-1.25
12:58:06.259,2.4375,-0.9375
12:58:06.263,2.4375,-2.125
12:58:06.272,1.6875,-2.9375
12:58:06.281,1.4375,-2.1875
12:58:06.292,1.5,-2.6875
12:58:06.306,2.4375,-3.75
12:58:06.312,1.4375,-4.1875
12:58:06.322,1.0625,-5.0625
12:58:06.333,0.6875,-4.1875
12:58:06.342,2.125,-4.3125
12:58:06.351,1,-5.125
12:58:06.361,0.6875,-5.375
12:58:06.371,1.0625,-4.4375
12:58:06.381,0.625,-5.75
12:58:06.391,0.875,-4.875
12:58:06.402,0.875,-5.625
12:58:06.411,0.5625,-6.5
12:58:06.421,-0.125,-5.75
12:58:06.432,0.5625,-6.5625
12:58:06.441,0,-8.1875
12:58:06.451,0,-7.3125
12:58:06.461,-0.0625,-7.9375
12:58:06.471,-0.25,-8.125
12:58:06.481,0,-8.1875
12:58:06.491,-0.6875,-8.1875
12:58:06.501,-0.1875,-7.9375
12:58:06.511,-0.5625,-8.875
12:58:06.521,-1.375,-7.9375
12:58:06.534,-0.5625,-8.625
12:58:06.541,-1.0625,-9.6875
12:58:06.552,-0.75,-9.9375
12:58:06.562,-0.9375,-10.125
12:58:06.571,-0.5625,-9.25
12:58:06.581,-0.5625,-9.3125
12:58:06.591,-0.25,-9.0625
12:58:06.602,0.1875,-7.75
12:58:06.611,1.6875,-5
12:58:06.621,2.0625,-3.875
12:58:06.631,3.3125,-0.9375
12:58:06.641,4.25,0.375
12:58:06.651,4.625,2.125
12:58:06.661,5.625,2.75
12:58:06.671,5.375,4
12:58:06.682,5.9375,4.5625
12:58:06.691,6.25,4.375
12:58:06.701,5.875,4.8125
12:58:06.712,6.5,4.5
12:58:06.721,5.875,5.5
12:58:06.731,6.8125,5.5625
12:58:06.741,5.8125,5.8125
12:58:06.751,6.5,4.3125
12:58:06.761,6.25,4.75
12:58:06.774,6.5,5.875
12:58:06.783,6.125,4.9375
12:58:06.792,6.0625,5.375
12:58:06.801,5.8125,5.4375
12:58:06.811,6.6875,4.9375
12:58:06.822,5.0625,5.8125
12:58:06.859,6.125,4.9375
12:58:06.861,5.6875,4.125
12:58:06.864,5.25,3.875
12:58:06.891,5.5625,4.75
12:58:06.891,5.5,3.6875
12:58:06.897,5,2.625
12:58:06.900,4.625,3.125
12:58:06.914,4.875,2.625
12:58:06.916,4.5625,1.8125
12:58:06.946,4.4375,2.25
12:58:06.949,4.125,2.75
12:58:06.951,5.0625,2.4375
12:58:06.954,4.3125,1.75
12:58:06.983,4.0625,1.8125
12:58:06.986,3.5,2.1875
12:58:06.988,3.6875,1.3125
12:58:07.016,3.5,0.625
12:58:07.017,3.0625,0.25
12:58:07.021,2.6875,0.75
12:58:07.028,2.875,0.5625
12:58:07.033,2.9375,-0.0625
12:58:07.042,2.875,-0.5625
12:58:07.051,1.75,-1.375
12:58:07.061,1.6875,-1.0625
12:58:07.073,1.875,-1.125
12:58:07.081,1.875,-2
12:58:07.091,1.375,-2.375
12:58:07.107,1.75,-2.5
12:58:07.121,1.6875,-2
12:58:07.124,1.8125,-2.875
12:58:07.139,0.5,-3.25
12:58:07.141,0.9375,-3.25
12:58:07.152,0.9375,-4.375
12:58:07.161,0.5625,-4.9375
12:58:07.176,0.1875,-4.1875
12:58:07.191,0.375,-4.0625
12:58:07.195,0.5,-5.4375
12:58:07.205,-0.75,-4.5
12:58:07.211,0.25,-5.9375
12:58:07.221,-0.5,-6.1875
12:58:07.232,-0.6875,-6.375
12:58:07.241,-0.9375,-5
12:58:07.251,-0.3125,-7
12:58:07.262,-0.625,-7.625
12:58:07.271,-1.375,-6.8125
12:58:07.281,-1.4375,-6.1875
12:58:07.291,-0.8125,-7
12:58:07.301,-1.375,-8.0625
12:58:07.311,-1.375,-8
12:58:07.321,-0.75,-7.8125
12:58:07.331,-1.9375,-9.125
12:58:07.342,-1.75,-7.5
12:58:07.352,-1.6875,-8.75
12:58:07.362,-1.8125,-9.75
12:58:07.371,-2.0625,-9.25
12:58:07.384,-1.25,-8.5
12:58:07.412,-1.75,-8.5625
12:58:07.415,-1.0625,-8.625
12:58:07.419,-1.125,-7.5625
12:58:07.421,0.125,-5.9375
12:58:07.432,1.125,-3.5
12:58:07.441,2.25,-2
12:58:07.451,2.625,-0.75
12:58:07.461,3.5625,2.25
12:58:07.472,4.3125,1.9375
12:58:07.481,3.9375,4.375
12:58:07.491,4.8125,3.75
12:58:07.501,4.6875,5.1875
12:58:07.513,5.375,4.5625
12:58:07.521,5.4375,3.9375
12:58:07.531,5.625,5.75
12:58:07.541,5.8125,4.625
12:58:07.551,5.25,4.6875
12:58:07.561,5.875,4.6875
12:58:07.573,5.1875,4.875
12:58:07.606,6.125,5.75
12:58:07.609,5,5.0625
12:58:07.610,5.375,4.5
12:58:07.612,5.8125,5
12:58:07.641,4.9375,4.3125
12:58:07.642,5.4375,5.1875
12:58:07.645,5.25,4.5625
12:58:07.652,5.375,3.6875
12:58:07.682,4.5625,3.75
12:58:07.684,4.5625,4.0625
12:58:07.686,4.4375,3.125
12:58:07.693,3.625,3.1875
12:58:07.719,3.625,2.6875
12:58:07.722,4.125,1.8125
12:58:07.724,3.5,2.125
12:58:07.753,4.125,3.0625
12:58:07.755,3.8125,1.875
12:58:07.758,3.375,1.4375
12:58:07.764,3.5625,1.4375
12:58:07.773,3.1875,1.75
12:58:07.782,4,1.625
12:58:07.793,3.25,1.1875
12:58:07.801,2.6875,1.6875
12:58:07.811,3.375,0.4375
12:58:07.821,3.25,0
12:58:07.831,2.6875,0
12:58:07.840,2.625,0.3125
12:58:07.851,2.3125,-0.5
12:58:07.861,2.9375,-1.5
12:58:07.870,2.3125,-1.0625
12:58:07.881,2.1875,-0.75
12:58:07.891,2,-1.4375
12:58:07.906,1.3125,-2.3125
12:58:07.912,2,-2.0625
12:58:07.921,1.0625,-3.8125
12:58:07.931,0.75,-2.8125
12:58:07.941,1.6875,-3.375
12:58:07.952,1.125,-4.5
12:58:07.961,1,-3.9375
12:58:07.972,0.75,-3.75
12:58:07.982,0.4375,-4.3125
12:58:07.991,0.625,-4
12:58:08.002,0.4375,-4.75
12:58:08.011,0.125,-5.375
12:58:08.020,-0.375,-5.6875
12:58:08.032,-0.4375,-5.4375
12:58:08.041,-0.8125,-5.75
12:58:08.051,-1.125,-5.625
12:58:08.061,-0.8125,-6.1875
12:58:08.072,-0.8125,-6.25
12:58:08.081,-1.1875,-7.0625
12:58:08.091,-1.25,-5.9375
12:58:08.101,-1.4375,-7.6875
12:58:08.111,-0.6875,-6.0625
12:58:08.123,-0.5625,-6.4375
12:58:08.131,-0.125,-3.8125
12:58:08.142,0.5,-4.1875
12:58:08.151,1.3125,-1.9375
12:58:08.161,1.75,-1.3125
12:58:08.171,1.9375,0.875
12:58:08.181,3.25,2.0625
12:58:08.191,3.75,2.75
12:58:08.200,4,3.125
12:58:08.211,4.5625,4.75
12:58:08.220,4.25,4.4375
12:58:08.231,4.75,5.4375
12:58:08.242,5,5
12:58:08.252,4.875,5.375
12:58:08.260,5.25,5.5625
12:58:08.272,4.875,5.875
12:58:08.281,4.75,5.9375
12:58:08.290,5.75,5.0625
12:58:08.310,5.0625,6.9375
12:58:08.314,5.0625,5.4375
12:58:08.321,5.125,4.6875
12:58:08.346,5,5.8125
12:58:08.350,4.875,4.1875
12:58:08.352,4.6875,5.125
12:58:08.383,5.25,4.5
12:58:08.385,4.4375,3.8125
12:58:08.387,4.875,4.375
12:58:08.391,4.5625,3.5
12:58:08.424,4.625,3.0625
12:58:08.426,4.6875,2.6875
12:58:08.429,4.75,2.3125
12:58:08.459,3.75,2.1875
12:58:08.460,3.9375,2.75
12:58:08.462,4.0625,1.375
12:58:08.481,3.6875,1.125
12:58:08.497,3.875,2.4375
12:58:08.497,3.3125,1.9375
12:58:08.500,3.75,1.5625
12:58:08.505,3,2.9375
12:58:08.511,3.5,2.1875
12:58:08.520,2.75,1
12:58:08.530,2.5625,1.375
12:58:08.540,3.8125,1.0625
12:58:08.550,2.5,0.3125
12:58:08.561,2.5,1.25
12:58:08.570,2.25,0.4375
12:58:08.582,2.625,-1
12:58:08.590,1.9375,-0.1875
12:58:08.601,2.625,-0.5
12:58:08.611,1.9375,-1.875
12:58:08.620,1.4375,-1.125
12:58:08.631,1.4375,-1.4375
12:58:08.640,1.0625,-1.375
12:58:08.657,1.75,-2
12:58:08.661,1.5625,-2.375
12:58:08.691,0.75,-3.0625
12:58:08.694,0.6875,-3.5
12:58:08.699,0.8125,-3.0625
12:58:08.704,1.25,-3.5625
12:58:08.710,0.4375,-4.125
12:58:08.721,-0.125,-3.1875
12:58:08.730,0.4375,-4.625
12:58:08.740,0.1875,-3.875
12:58:08.751,0.3125,-4.75
12:58:08.762,0,-5.1875
12:58:08.770,0.375,-4.1875
12:58:08.781,-0.25,-5.5
12:58:08.790,0.125,-4.9375
12:58:08.830,-0.3125,-5.6875
12:58:08.832,-0.3125,-6
12:58:08.834,-0.5625,-6.75
12:58:08.841,-1,-6.625
12:58:08.846,-0.3125,-6.375
12:58:08.856,-0.6875,-7.0625
12:58:08.865,-1.4375,-6.125
12:58:08.876,-0.875,-7.875
12:58:08.885,-1.1875,-6.4375
12:58:08.900,-0.4375,-7.75
12:58:08.912,-1.125,-6.625
12:58:08.920,-0.1875,-6.625
12:58:08.930,0,-4.1875
12:58:08.940,2,-3.875
12:58:08.950,2.1875,-0.75
12:58:08.960,3.625,0
12:58:08.970,4.0625,2.8125
12:58:08.980,4.1875,4.625
12:58:08.991,5.25,4
12:58:09.000,5.6875,4.6875
12:58:09.026,5.3125,5.125
12:58:09.029,5.875,6
12:58:09.032,5.6875,6.25
12:58:09.066,6,7.0625
12:58:09.069,6.3125,7.25
12:58:09.071,6.5,6.625
12:58:09.074,6.6875,7.8125
12:58:09.105,6.875,7.125
12:58:09.107,6.4375,7.9375
12:58:09.110,6.9375,6.75
12:58:09.111,6.3125,6.875
12:58:09.144,6.625,7.6875
12:58:09.146,6.5625,7
12:58:09.149,5.8125,6.375
12:58:09.174,5.375,6.875
12:58:09.176,5.9375,6.0625
12:58:09.179,4.875,5.1875
12:58:09.182,5.375,5.375
12:58:09.195,5.375,4.4375
12:58:09.201,4.5625,4.6875
12:58:09.210,4.375,5.4375
12:58:09.220,4.875,4.1875
12:58:09.232,4.9375,3.5
12:58:09.240,4,2.875
12:58:09.250,3.4375,4.375
12:58:09.260,4.125,2.875
12:58:09.270,3.875,2.6875
12:58:09.280,3.8125,3.4375
12:58:09.290,3.6875,4
12:58:09.300,3.4375,2.75
12:58:09.310,4,2.5625
12:58:09.320,3.25,1.9375
12:58:09.331,3.3125,1.125
12:58:09.340,2.6875,1.3125
12:58:09.350,3.5,2.0625
12:58:09.359,2.875,0.5625
12:58:09.370,2.125,-0.1875
12:58:09.380,2.3125,0.625
12:58:09.390,2.375,0.625
12:58:09.400,3.0625,-0.5625
12:58:09.410,2.25,-0.75
12:58:09.420,1.5,-0.875
12:58:09.430,1.625,-2.125
12:58:09.440,1.1875,-1.375
12:58:09.450,0.625,-1.6875
12:58:09.460,1.625,-2.6875
12:58:09.470,0.6875,-1.875
12:58:09.480,0.8125,-2.3125
12:58:09.490,1.5,-3
12:58:09.500,0.625,-3.5
12:58:09.510,0.1875,-2.875
12:58:09.520,0.5625,-3.0625
12:58:09.530,0.0625,-4.625
12:58:09.541,0.375,-3.5625
12:58:09.550,0.375,-3.9375
12:58:09.560,0.0625,-4.6875
12:58:09.573,-0.25,-5.4375
12:58:09.580,-0.4375,-4.5625
12:58:09.590,-0.1875,-5.9375
12:58:09.600,-0.625,-4.9375
12:58:09.610,-1.4375,-5.75
12:58:09.620,-1,-6.3125
12:58:09.630,-0.3125,-6.1875
12:58:09.640,-1,-5.6875
12:58:09.650,-1,-6.25
12:58:09.660,-1.375,-7.0625
12:58:09.670,-1.25,-6.5
12:58:09.680,-1.25,-7.5625
12:58:09.690,-1.875,-6.4375
12:58:09.706,-1.6875,-7.5625
12:58:09.720,-2.375,-7.3125
12:58:09.722,-1.9375,-7.875
12:58:09.730,-2.1875,-8.3125
12:58:09.740,-2.5625,-8.6875
12:58:09.750,-2.375,-9.625
12:58:09.760,-2.8125,-9.4375
12:58:09.775,-2.5,-9.8125
12:58:09.815,-2.25,-10.3125
12:58:09.816,-2.6875,-8.1875
12:58:09.842,-2,-8.625
12:58:09.842,-1.3125,-7.1875
12:58:09.844,-0.1875,-5.25
12:58:09.845,0.375,-3.6875
12:58:09.846,1.6875,-1.875
12:58:09.874,2,1.1875
12:58:09.876,3.1875,1.4375
12:58:09.877,3.3125,2.1875
12:58:09.884,4.125,3.6875
12:58:09.911,4.75,4.125
12:58:09.913,4.0625,4.75
12:58:09.915,4.875,5.1875
12:58:09.944,4.5,4.875
12:58:09.945,4.8125,5.5625
12:58:09.947,4.6875,5
12:58:09.977,4.3125,7.125
12:58:09.979,4.3125,6.5625
12:58:09.979,4.375,6.125
12:58:09.980,5.0625,5.6875
12:58:09.995,5,5.8125
12:58:10.000,5.625,6.5
12:58:10.010,5.375,6.4375
12:58:10.021,5.125,5.0625
12:58:10.030,5,4.75
12:58:10.040,5,5.8125
12:58:10.050,4.625,4.3125
12:58:10.060,4.5,4.0625
12:58:10.070,4.125,4.75
12:58:10.080,4.8125,4.375
12:58:10.090,4.4375,4.125
12:58:10.100,4.0625,3.0625
12:58:10.110,3.625,4.375
12:58:10.120,3.5,4
12:58:10.130,3.6875,3.0625
12:58:10.140,4.125,3.25
12:58:10.150,3.5625,2.1875
12:58:10.161,3,2.4375
12:58:10.171,2.75,3.0625
12:58:10.180,3.75,2.4375
12:58:10.190,2.875,2.3125
12:58:10.200,3,2.8125
12:58:10.210,3.5,1.75
12:58:10.221,2.5625,0.4375
12:58:10.230,2.375,2
12:58:10.240,3.0625,0.8125
12:58:10.250,2.5625,0.0625
12:58:10.261,2.4375,1.8125
12:58:10.270,2.0625,-0.0625
12:58:10.280,2.25,-1
12:58:10.290,1.9375,0.9375
12:58:10.300,2.125,-1.1875
12:58:10.311,1.5625,-2.375
12:58:10.320,1.8125,-0.6875
12:58:10.330,1.6875,-1.75
12:58:10.341,1.0625,-2.75
12:58:10.350,0.0625,-1
12:58:10.362,1.125,-2.9375
12:58:10.370,0.625,-3.5625
12:58:10.381,1,-2.4375
12:58:10.390,1.3125,-3.375
12:58:10.400,0.75,-3.75
12:58:10.410,0.25,-3.3125
12:58:10.420,-0.0625,-4.0625
12:58:10.430,0.3125,-4.625
12:58:10.440,0.25,-4.8125
12:58:10.450,0.3125,-4.625
12:58:10.460,-0.4375,-5.3125
12:58:10.470,-0.5,-4.375
12:58:10.480,-0.3125,-5.5625
12:58:10.490,-0.25,-6.0625
12:58:10.500,-1,-6.125
12:58:10.510,0.125,-6.125
12:58:10.527,-0.75,-6.5
12:58:10.531,-1.0625,-7.6875
12:58:10.558,-1.0625,-6.6875
12:58:10.561,-1.25,-7.5625
12:58:10.564,-1.625,-7.9375
12:58:10.570,-0.4375,-7.3125
12:58:10.600,-0.75,-6.75
12:58:10.603,0.3125,-6.0625
12:58:10.605,0,-4.8125
12:58:10.637,1.25,-3.75
12:58:10.639,1.8125,-2.6875
12:58:10.641,2.375,0.1875
12:58:10.648,3.5625,-0.375
12:58:10.651,3,2.6875
12:58:10.681,4.6875,2.75
12:58:10.684,4.375,3.3125
12:58:10.686,4.9375,4.5625
12:58:10.692,5.0625,4.1875
12:58:10.700,4.9375,5.375
12:58:10.710,4.9375,3.8125
12:58:10.720,5,4.875
12:58:10.730,5.3125,3.9375
12:58:10.747,4.6875,5.125
12:58:10.750,5.3125,4.125
12:58:10.760,4.9375,4.9375
12:58:10.769,4.875,3.9375
12:58:10.780,5.25,5.375
12:58:10.791,5,4.6875
12:58:10.800,4.9375,4.75
12:58:10.810,5.125,4.25
12:58:10.820,4.1875,4.25
12:58:10.830,4.875,4.4375
12:58:10.840,4.6875,3.8125
12:58:10.850,3.875,2.6875
12:58:10.860,3.8125,3.4375
12:58:10.870,3.375,3.0625
12:58:10.880,2.625,1.5
12:58:10.890,0.5,1.8125
12:58:10.900,-1.5625,0.5625
12:58:10.910,-4.375,-0.375
12:58:10.920,-8.125,-0.75
12:58:10.930,-12.9375,-1.375
12:58:10.940,-23.4376,-2.9375
12:58:10.950,-35.8126,-7.75
12:58:10.960,-50.0627,-12.1875
12:58:10.970,-62.1877,-14.5001
12:58:10.980,-71.0628,-16.7501
12:58:10.998,-81.4378,-20.5626
12:58:11.004,-95.9379,-26.6876
12:58:11.018,-113.1879,-32.9376
12:58:11.021,-129.7505,-40.3752
12:58:11.029,-138.438,-45.3752
12:58:11.040,-144.438,-47.3127
12:58:11.050,-145.563,-45.6877
12:58:11.070,-145.813,-46.9377
12:58:11.073,-144.938,-45.6877
12:58:11.088,-144.438,-46.5627
12:58:11.093,-145.3755,-45.9377
12:58:11.100,-143.1255,-46.4377
12:58:11.109,-141.5005,-44.0002
12:58:11.121,-136.938,-43.8127
12:58:11.130,-135.313,-41.8127
12:58:11.140,-133.188,-42.3752
12:58:11.150,-133.1255,-43.3752
12:58:11.161,-132.0005,-42.0627
12:58:11.170,-129.8755,-42.5002
12:58:11.181,-128.438,-41.5627
12:58:11.190,-127.438,-42.9377
12:58:11.200,-127.3755,-41.6252
12:58:11.226,-127.813,-42.3127
12:58:11.259,-126.3755,-40.8752
12:58:11.260,-125.0005,-41.7502
12:58:11.262,-126.1255,-41.3752
12:58:11.288,-126.563,-42.6252
12:58:11.288,-126.813,-42.8127
12:58:11.288,-125.688,-42.0627
12:58:11.289,-125.0005,-41.2502
12:58:11.291,-123.188,-41.0002
12:58:11.323,-122.5005,-41.4377
12:58:11.325,-120.438,-40.5627
12:58:11.328,-119.6255,-39.2502
12:58:11.358,-118.6255,-39.3752
12:58:11.358,-119.063,-39.1877
12:58:11.358,-119.813,-38.3751
12:58:11.365,-119.0005,-37.8126
12:58:11.373,-115.6254,-34.7501
12:58:11.386,-113.1879,-32.8751
12:58:11.390,-109.8754,-30.1876
12:58:11.400,-107.5004,-28.9376
12:58:11.410,-104.5004,-26.7501
12:58:11.420,-100.8754,-25.6251
12:58:11.430,-98.8754,-24.1251
12:58:11.440,-97.0629,-22.8751
12:58:11.450,-95.4379,-22.0001
12:58:11.460,-92.2504,-21.2501
12:58:11.470,-90.6254,-19.5626
12:58:11.480,-87.3753,-18.9376
12:58:11.496,-86.0003,-16.9376
12:58:11.500,-83.6878,-18.0626
12:58:11.510,-82.1253,-17.0001
12:58:11.520,-80.2503,-15.4376
12:58:11.530,-78.8128,-16.0626
12:58:11.540,-78.1878,-15.5001
12:58:11.550,-77.3128,-16.4376
12:58:11.560,-76.4378,-14.3751
12:58:11.570,-75.2503,-14.4376
12:58:11.580,-73.6253,-14.8126
12:58:11.590,-73.8128,-14.3751
12:58:11.600,-72.1253,-15.3126
12:58:11.610,-72.8128,-14.5001
12:58:11.620,-71.4378,-15.5001
12:58:11.630,-71.3128,-14.6876
12:58:11.640,-69.9378,-15.6251
12:58:11.650,-69.6253,-14.0626
12:58:11.660,-68.1878,-14.2501
12:58:11.670,-68.0628,-14.0001
12:58:11.680,-67.4378,-15.0001
12:58:11.691,-67.6253,-13.8751
12:58:11.701,-66.8753,-14.4376
12:58:11.710,-65.3752,-14.6876
12:58:11.720,-64.3127,-13.5001
12:58:11.730,-62.6252,-14.0001
12:58:11.740,-61.9377,-13.5626
12:58:11.750,-60.6877,-13.9376
12:58:11.760,-59.6877,-13.4376
12:58:11.770,-58.8127,-13.3751
12:58:11.780,-58.0002,-13.7501
12:58:11.790,-56.8752,-13.6876
12:58:11.801,-56.2502,-13.0625
12:58:11.810,-55.2502,-14.0626
12:58:11.820,-54.0002,-13.1251
12:58:11.830,-52.7502,-14.1251
12:58:11.841,-51.3752,-12.875
12:58:11.850,-49.7502,-13.5001
12:58:11.860,-49.2502,-13.3126
12:58:11.871,-47.5627,-13.4376
12:58:11.880,-47.1877,-13.8126
12:58:11.890,-46.0002,-13.6251
12:58:11.912,-45.6252,-13.3751
12:58:11.914,-44.0002,-13
12:58:11.941,-42.7502,-12.5625
12:58:11.943,-40.8752,-11.75
12:58:11.945,-39.9377,-11.5625
12:58:11.951,-39.0001,-11.8125
12:58:11.983,-38.8126,-12.1875
12:58:11.985,-38.7501,-11.75
12:58:11.987,-38.5001,-12.125
12:58:11.990,-38.0626,-12.375
12:58:12.029,-38.2501,-12.8125
12:58:12.030,-38.8751,-12.9375
12:58:12.034,-38.8751,-13.3751
12:58:12.056,-38.2501,-13.6876
12:58:12.058,-37.6876,-13.5626
12:58:12.059,-36.9376,-13.0625
12:58:12.061,-36.8751,-13.3126
12:58:12.070,-35.8126,-13.2501
12:58:12.084,-35.5001,-13.6876
12:58:12.090,-35.0626,-13.5001
12:58:12.098,-35.6876,-13.0625
12:58:12.110,-35.4376,-14.0626
12:58:12.118,-36.0626,-15.0626
12:58:12.130,-34.8126,-14.8751
12:58:12.140,-34.7501,-14.1876
12:58:12.149,-34.1251,-13.5626
12:58:12.160,-34.0626,-13.8126
12:58:12.170,-32.8751,-12.25
12:58:12.180,-33.0001,-10.375
12:58:12.189,-32.8126,-9.0625
12:58:12.200,-32.3126,-7.8125
12:58:12.208,-31.1251,-5.6875
12:58:12.220,-29.2501,-5.125
12:58:12.230,-28.3751,-2.625
12:58:12.248,-26.6876,-2.1875
12:58:12.250,-25.5626,-0.875
12:58:12.260,-24.1251,-0.6875
12:58:12.270,-23.8751,0.75
12:58:12.280,-22.0001,0.6875
12:58:12.299,-21.6876,1.6875
12:58:12.306,-20.5626,2.375
12:58:12.320,-20.1251,2.625
12:58:12.322,-19.4376,2.8125
12:58:12.330,-17.8751,3.75
12:58:12.338,-17.7501,3.9375
12:58:12.350,-17.1251,4.375
12:58:12.366,-17.8126,4.75
12:58:12.368,-17.3751,5
12:58:12.384,-17.5626,5.125
12:58:12.390,-16.7501,5.0625
12:58:12.398,-17.5626,5
12:58:12.410,-16.6251,5.75
12:58:12.420,-16.2501,5.375
12:58:12.430,-17.0001,5.5
12:58:12.440,-16.8751,5.1875
12:58:12.450,-18.0001,4.625
12:58:12.461,-18.6876,4.375
12:58:12.468,-19.5001,4.8125
12:58:12.478,-19.7501,3.6875
12:58:12.488,-20.3751,2.8125
12:58:12.500,-20.1251,3.25
12:58:12.533,-20.6251,2.5625
12:58:12.534,-21.0001,3.0625
12:58:12.536,-21.5626,2.1875
12:58:12.544,-22.4376,1.875
12:58:12.551,-23.6876,1.8125
12:58:12.560,-22.8751,1.125
12:58:12.569,-23.0626,0.4375
12:58:12.579,-23.3126,0.8125
12:58:12.590,-23.0001,0.375
12:58:12.600,-22.5001,0.375
12:58:12.609,-22.2501,-0.375
12:58:12.622,-21.7501,-0.3125
12:58:12.630,-20.3126,-0.1875
12:58:12.640,-21.1251,-0.8125
12:58:12.650,-20.6876,-0.5625
12:58:12.659,-21.4376,-1.6875
12:58:12.671,-21.1876,-1.375
12:58:12.679,-19.7501,-1.8125
12:58:12.701,-19.3126,-2.375
12:58:12.704,-18.4376,-1.125
12:58:12.732,-17.8751,-3.1875
12:58:12.734,-16.5626,-0.8125
12:58:12.736,-14.2501,-1.125
12:58:12.739,-13.6251,-1.8125
12:58:12.774,-13.3751,-0.25
12:58:12.775,-12.6875,-1.75
12:58:12.777,-13.6251,-3.25
12:58:12.781,-13.9376,-2.375
12:58:12.809,-14.0001,-2.875
12:58:12.811,-14.3126,-3.25
12:58:12.840,-14.3751,-3.375
12:58:12.841,-13.8126,-3.625
12:58:12.843,-13.8751,-3.625
12:58:12.847,-13.6876,-4.1875
12:58:12.870,-13.8126,-3.9375
12:58:12.874,-13,-4.75
12:58:12.876,-13,-3.625
12:58:12.885,-12.1875,-4.5
12:58:12.893,-11.9375,-4.5
12:58:12.904,-12,-5.625
12:58:12.913,-12.0625,-5.25
12:58:12.925,-12.8125,-5.0625
12:58:12.933,-11.625,-4.8125
12:58:12.946,-10.9375,-5.0625
12:58:12.955,-10.375,-3.875
12:58:12.965,-8.9375,-3.3125
12:58:12.973,-7.6875,1.375
12:58:12.985,-6.8125,1
12:58:12.997,-7.125,1.3125
12:58:13.004,-6.5,2.8125
12:58:13.014,-6.375,3.3125
12:58:13.024,-5.625,5.6875
12:58:13.035,-4.8125,4.5625
12:58:13.044,-4.8125,7.0625
12:58:13.055,-5.3125,5.75
12:58:13.064,-5.1875,7.1875
12:58:13.075,-5.5625,6.9375
12:58:13.084,-5,7.5625
12:58:13.093,-5.3125,6.625
12:58:13.104,-5.75,8.125
12:58:13.113,-7.375,7.25
12:58:13.123,-8.0625,7.5625
12:58:13.133,-9.3125,7.625
12:58:13.144,-9.8125,7.9375
12:58:13.153,-9.25,6.875
12:58:13.163,-9.6875,8.1875
12:58:13.173,-7.9375,7.75
12:58:13.185,-8.4375,7.8125
12:58:13.193,-7.625,8.0625
12:58:13.203,-7.1875,7.625
12:58:13.213,-6.375,8.5625
12:58:13.223,-5.5625,7.9375
12:58:13.235,-5.1875,9.4375
12:58:13.243,-4.4375,8.25
12:58:13.253,-5.0625,8.5625
12:58:13.263,-3.8125,7.8125
12:58:13.273,-4.375,9.3125
12:58:13.283,-2.6875,8.4375
12:58:13.294,-2.3125,7.25
12:58:13.303,-2.6875,7.8125
12:58:13.313,-2.625,8.4375
12:58:13.325,-3.375,7.375
12:58:13.333,-3.125,7
12:58:13.343,-3.9375,7.4375
12:58:13.354,-3.75,6.1875
12:58:13.364,-5,5.625
12:58:13.377,-4.8125,5.5
12:58:13.383,-5.9375,4.8125
12:58:13.394,-6.6875,4
12:58:13.403,-7.6875,3.8125
12:58:13.415,-7.25,3.1875
12:58:13.423,-6.9375,3.25
12:58:13.433,-6.5,3
12:58:13.443,-7.5625,2.125
12:58:13.454,-6.8125,2.25
12:58:13.468,-7.25,1.375
12:58:13.473,-6.875,1.375
12:58:13.505,-7.1875,2.0625
12:58:13.508,-7,1.375
12:58:13.512,-7.875,0.375
12:58:13.516,-7.1875,0.375
12:58:13.541,-7.4375,0.25
12:58:13.542,-6.5,0.5
12:58:13.545,-6.6875,0.1875
12:58:13.575,-7.5,-0.5
12:58:13.578,-7.5625,-1.8125
12:58:13.580,-7.375,-0.25
12:58:13.585,-6.5,-1.375
12:58:13.624,-5.9375,-1.8125
12:58:13.625,-5.375,-1.8125
12:58:13.629,-4.375,-2.875
12:58:13.643,-4.8125,-1.8125
12:58:13.644,-4.3125,-2.9375
12:58:13.645,-4.375,-2.8125
12:58:13.662,-4.75,-3.4375
12:58:13.665,-5.0625,-3.3125
12:58:13.679,-4.25,-3.0625
12:58:13.685,-4.875,-2.8125
12:58:13.696,-4,-0.8125
12:58:13.703,-2.5,-0.5
12:58:13.713,-1.75,-0.1875
12:58:13.724,-0.3125,2
12:58:13.733,0.5625,3.125
12:58:13.743,1.6875,5
12:58:13.753,2.1875,5.375
12:58:13.767,3.8125,6.625
12:58:13.775,4.125,8.5625
12:58:13.783,4.6875,8.875
12:58:13.812,4.3125,10.4375
12:58:13.814,4.1875,9.5625
12:58:13.817,5.3125,11.625
12:58:13.825,5.375,11.125
12:58:13.835,6.5625,10.4375
12:58:13.844,6.875,11.8125
12:58:13.853,7.5,12.4375
12:58:13.865,7.4375,11.625
12:58:13.874,7.375,13.5001
12:58:13.883,6.875,11.9375
12:58:13.894,6.1875,12.0625
12:58:13.906,6.3125,12.875
12:58:13.916,6,12.125
12:58:13.923,5.6875,12.5
12:58:13.933,6.4375,12.5
12:58:13.944,7.5,11.9375
12:58:13.955,6.6875,11.6875
12:58:13.963,6.875,12.5625
12:58:13.974,7.75,12.125
12:58:13.983,6.0625,10.9375
12:58:13.994,5,11.5625
12:58:14.004,3.875,9.6875
12:58:14.013,2.1875,9.5
12:58:14.024,1.8125,10.4375
12:58:14.034,1.6875,9.125
12:58:14.045,0.75,9.375
12:58:14.054,0.4375,8.6875
12:58:14.064,0.125,7.5625
12:58:14.073,-1.3125,8
12:58:14.084,-2.0625,7.625
12:58:14.093,-3.4375,6.4375
12:58:14.104,-5.75,6
12:58:14.114,-6.0625,5.875
12:58:14.128,-6.9375,5
12:58:14.136,-7.4375,4.125
12:58:14.143,-7.375,4.5
12:58:14.153,-7.25,3.9375
12:58:14.164,-6.3125,4.0625
12:58:14.174,-6.75,3.125
12:58:14.183,-5.625,4.25
12:58:14.212,-4.625,4.3125
12:58:14.212,-4.3125,3.3125
12:58:14.237,-4.5625,2.3125
12:58:14.239,-4.5625,3.5625
12:58:14.241,-4.5625,2.5
12:58:14.246,-5.625,2.0625
12:58:14.274,-6.5625,0.625
12:58:14.277,-6,1.5
12:58:14.279,-6,1.5625
12:58:14.287,-6.4375,0.1875
12:58:14.328,-7.25,1.625
12:58:14.331,-6.0625,0
12:58:14.333,-5.5,0
12:58:14.336,-5.625,0.375
12:58:14.365,-4.9375,-0.5
12:58:14.366,-5.875,-1.4375
12:58:14.368,-7,-0.4375
12:58:14.375,-7.3125,-1.5
12:58:14.377,-7.5,-2.3125
12:58:14.383,-7.125,-2.1875
12:58:14.393,-6.3125,-1.5625
12:58:14.405,-6.75,-3
12:58:14.413,-7.9375,-2.5
12:58:14.424,-7.6875,-4.0625
12:58:14.433,-7.875,-3.25
12:58:14.443,-7.4375,-3.0625
12:58:14.453,-7.8125,-4.25
12:58:14.464,-7.75,-4.8125
12:58:14.473,-7.6875,-4.75
12:58:14.483,-8.5,-5
12:58:14.495,-8.625,-5.0625
12:58:14.510,-8.75,-5.75
12:58:14.513,-8.875,-6.125
12:58:14.523,-9,-6.5
12:58:14.533,-8.625,-4.375
12:58:14.544,-8.5625,-3.75
12:58:14.553,-7.1875,-2.875
12:58:14.564,-7.0625,-1.125
12:58:14.573,-5.875,0.6875
12:58:14.585,-4.25,1.625
12:58:14.595,-4.1875,3.3125
12:58:14.604,-2.9375,4.5
12:58:14.613,-2.6875,5.125
12:58:14.624,-1.75,6.875
12:58:14.633,-0.875,6.0625
12:58:14.643,0.625,7.5625
12:58:14.654,1.1875,8.625
12:58:14.663,1.3125,9.4375
12:58:14.675,2.4375,10.0625
12:58:14.683,1.4375,9.9375
12:58:14.694,2.1875,10.75
12:58:14.703,2.9375,10.5
12:58:14.713,3.4375,12.4375
12:58:14.724,4.375,11.5625
12:58:14.734,4,12.625
12:58:14.744,4.5,13.3751
12:58:14.754,4.75,12.1875
12:58:14.765,2.9375,11.875
12:58:14.774,2.25,12.4375
12:58:14.784,1.3125,10.6875
12:58:14.794,1.0625,10.5625
12:58:14.803,0.6875,11.9375
12:58:14.813,0.6875,11.9375
12:58:14.823,1.9375,10.8125
12:58:14.834,1.5625,10.625
12:58:14.844,1.5625,11.25
12:58:14.857,2.75,10.8125
12:58:14.890,2.5625,10
12:58:14.893,2.5625,10.0625
12:58:14.962,2.3125,10.4375
12:58:14.963,1.5625,10.375
12:58:14.976,-0.125,9
12:58:15.014,-1.8125,7.8125
12:58:15.017,-2.625,8
12:58:15.017,-3.3125,8.625
12:58:15.017,-2.625,7.8125
12:58:15.045,-2.625,6.75
12:58:15.062,-2.8125,6.375
12:58:15.062,-3,7.625
12:58:15.062,-3.875,6.6875
12:58:15.094,-3.4375,5.875
12:58:15.097,-4.5,4.375
12:58:15.099,-4.625,4
12:58:15.099,-5.5625,4.1875
12:58:15.099,-6.3125,3.75
12:58:15.104,-6.8125,3.4375
12:58:15.113,-6.25,3.25
12:58:15.125,-6.125,2.25
12:58:15.133,-6,2.25
12:58:15.143,-6,1.625
12:58:15.154,-5.9375,1.0625
12:58:15.164,-7.875,-0.9375
12:58:15.173,-7.9375,-0.875
12:58:15.184,-7.6875,0.6875
12:58:15.194,-7.5625,0.125
12:58:15.204,-7.6875,-1.25
12:58:15.215,-7.75,-1.25
12:58:15.224,-8.25,-2.1875
12:58:15.233,-8.0625,-2.1875
12:58:15.244,-8.25,-1.6875
12:58:15.255,-7.75,-2.9375
12:58:15.264,-7.9375,-4
12:58:15.274,-7.0625,-3.25
12:58:15.283,-7.5,-4.375
12:58:15.294,-7.375,-3
12:58:15.305,-7.125,-4.625
12:58:15.314,-6.5,-5.125
12:58:15.324,-6.1875,-5.0625
12:58:15.333,-6.125,-5.3125
12:58:15.343,-6.5625,-5.75
12:58:15.354,-7,-5.125
12:58:15.363,-7.125,-6.5
12:58:15.373,-6.375,-6.75
12:58:15.384,-6,-5.375
12:58:15.396,-4.875,-5.875
12:58:15.404,-6.25,-6.875
12:58:15.417,-6.75,-7.5625
12:58:15.424,-7.75,-8
12:58:15.434,-7.875,-8.375
12:58:15.444,-8.25,-8.5625
12:58:15.454,-8.8125,-7.8125
12:58:15.463,-8.1875,-8.8125
12:58:15.474,-8.5625,-8.6875
12:58:15.485,-7.75,-7.6875
12:58:15.494,-6.75,-6.625
12:58:15.504,-6.75,-5.5625
12:58:15.514,-5.125,-3.625
12:58:15.523,-5.0625,-1.5
12:58:15.533,-4.1875,0.25
12:58:15.543,-3.0625,1.25
12:58:15.553,-1.9375,0.875
12:58:15.564,-1.4375,3
12:58:15.575,-0.625,2.75
12:58:15.584,0.5,4.875
12:58:15.614,0.0625,4.25
12:58:15.616,0.0625,5
12:58:15.619,-0.0625,4.125
12:58:15.625,0.625,5.4375
12:58:15.656,0.5,4.8125
12:58:15.657,0.375,5.5625
12:58:15.660,0.5625,6.0625
12:58:15.666,-0.1875,6.625
12:58:15.699,-0.3125,6.5
12:58:15.700,-0.1875,6.375
12:58:15.702,-0.6875,7.625
12:58:15.729,0.375,6.25
12:58:15.730,0.4375,5.625
12:58:15.731,0.8125,7.6875
12:58:15.737,1.8125,6.875
12:58:15.749,2.375,6
12:58:15.755,1,4.9375
12:58:15.770,-0.875,5.8125
12:58:15.773,-1.875,5.5625
12:58:15.783,-3.125,4.4375
12:58:15.792,-4,4.5625
12:58:15.803,-3.4375,3.6875
12:58:15.814,-3.1875,3.625
12:58:15.823,-2.625,4.5625
12:58:15.833,-3.1875,4.5
12:58:15.845,-2.5625,4.375
12:58:15.852,-2.8125,3.3125
12:58:15.863,-3.625,2.625
12:58:15.872,-4.5625,4.0625
12:58:15.883,-3.9375,3
12:58:15.893,-4.125,2.3125
12:58:15.903,-4.125,2.3125
12:58:15.913,-4.5,2.125
12:58:15.923,-5.4375,1.8125
12:58:15.932,-6.0625,1.5625
12:58:15.943,-5.0625,0.75
12:58:15.953,-5.6875,0.75
12:58:15.965,-5.9375,0.4375
12:58:15.973,-5.9375,-0.0625
12:58:15.983,-6.1875,0
12:58:15.994,-6.75,-0.9375
12:58:16.003,-6.9375,-1.0625
12:58:16.013,-6.0625,-1.5625
12:58:16.025,-7.3125,-1.5625
12:58:16.034,-7.5625,-2.3125
12:58:16.044,-8,-2.9375
12:58:16.053,-8.9375,-1.5625
12:58:16.063,-9.1875,-3.375
12:58:16.074,-9.125,-4.3125
12:58:16.084,-9.375,-3.9375
12:58:16.093,-9.375,-4.6875
12:58:16.102,-10.8125,-5.0625
12:58:16.115,-11.25,-5.5
12:58:16.124,-11.25,-5.1875
12:58:16.133,-11.125,-6.5
12:58:16.144,-10.8125,-4.75
12:58:16.154,-10.375,-6.3125
12:58:16.170,-9.25,-5.6875
12:58:16.172,-9.375,-6.1875
12:58:16.183,-8.25,-5.0625
12:58:16.194,-7.9375,-5.5625
12:58:16.205,-8.1875,-6.375
12:58:16.213,-8.5,-6.375
12:58:16.224,-8.375,-5.375
12:58:16.234,-8.625,-7.5
12:58:16.243,-9.3125,-6.625
12:58:16.254,-10.125,-8.1875
12:58:16.264,-10.5,-7.6875
12:58:16.281,-10.9375,-8.8125
12:58:16.287,-10.5625,-7.6875
12:58:16.353,-9.9375,-7.875
12:58:16.355,-9.75,-7.0625
12:58:16.355,-9.5,-7.9375
12:58:16.380,-8.5,-5.375
12:58:16.458,-8.6875,-5.5
12:58:16.477,-7.875,-3.0625
12:58:16.477,-7.6875,-2.6875
12:58:16.479,-7,-0.8125
12:58:16.495,-6,-0.4375
12:58:16.499,-4.6875,2.6875
12:58:16.499,-5.3125,1.5
12:58:16.499,-4.4375,2.875
12:58:16.502,-4.625,3.125
12:58:16.514,-5.0625,4.25
12:58:16.524,-4.75,2.9375
12:58:16.532,-4.75,3.75
12:58:16.547,-3.8125,3.6875
12:58:16.552,-4.5,3.875
12:58:16.565,-3.375,4.4375
12:58:16.572,-2.9375,4.75
12:58:16.583,-2.9375,5.8125
12:58:16.593,-2.1875,5.125
12:58:16.603,-3.1875,4.4375
12:58:16.612,-5.1875,3.5
12:58:16.623,-5.625,3.6875
12:58:16.633,-5.625,4.375
12:58:16.642,-5.5625,3.6875
12:58:16.655,-5.4375,3.875
12:58:16.662,-9.25,1
12:58:16.672,-10.125,1.8125
12:58:16.683,-10.625,1.4375
12:58:16.692,-10.875,1.1875
12:58:16.703,-11.5625,1.1875
12:58:16.713,-12.75,0.125
12:58:16.723,-13.8751,0.3125
12:58:16.733,-13.9376,-0.8125
12:58:16.742,-15.3126,-1.25
12:58:16.752,-16.0001,-1.1875
12:58:16.762,-16.3751,-1.4375
12:58:16.774,-18.1251,-2.4375
12:58:16.783,-19.0001,-1.75
12:58:16.793,-19.9376,-2.625
12:58:16.802,-20.3126,-4.5625
12:58:16.812,-20.5626,-3.4375
12:58:16.823,-21.1876,-4.9375
12:58:16.835,-21.0001,-3.5625
12:58:16.843,-21.6876,-5.25
12:58:16.853,-22.1876,-5.125
12:58:16.863,-23.3751,-5.75
12:58:16.873,-24.1251,-5.875
12:58:16.882,-23.6876,-6.3125
12:58:16.893,-24.6876,-6.6875
12:58:16.902,-24.5626,-7.625
12:58:16.912,-24.0626,-6.5625
12:58:16.928,-23.1251,-6.25
12:58:16.933,-23.0626,-6.4375
12:58:16.943,-22.1251,-5.75
12:58:16.952,-22.6251,-6.5625
12:58:16.968,-22.4376,-6.5625
12:58:16.977,-22.9376,-7
12:58:16.987,-22.6251,-7.1875
12:58:16.997,-22.5001,-6.5625
12:58:17.007,-14.8751,-4.4375
12:58:17.042,-8.6875,-1.375
12:58:17.042,-2.125,-0.5
12:58:17.045,4.3125,1.9375
12:58:17.047,10.3125,3.5625
12:58:17.081,15.3126,4.5
12:58:17.083,18.7501,4.9375
12:58:17.085,21.3751,5.375
12:58:17.089,22.8751,5.25
12:58:17.117,24.1251,5.8125
12:58:17.120,25.0001,4.25
12:58:17.122,25.1251,5.25
12:58:17.128,30.0001,6.9375
12:58:17.155,33.1251,7.5625
12:58:17.157,36.6876,8.5625
12:58:17.160,41.6877,10.3125
12:58:17.192,46.0627,11.9375
12:58:17.196,50.0627,13.8126
12:58:17.199,54.1252,15.6251
12:58:17.204,56.0002,16.6251
12:58:17.211,58.3127,18.7501
12:58:17.218,60.7502,20.0626
12:58:17.228,63.8127,22.0626
12:58:17.238,67.1253,23.8126
12:58:17.247,69.5003,27.3126
12:58:17.257,71.7503,27.3126
12:58:17.268,72.9378,29.5626
12:58:17.277,75.0628,30.1251
12:58:17.288,77.0003,30.1251
12:58:17.304,77.6253,30.6251
12:58:17.309,77.8753,31.1876
12:58:17.317,79.1253,31.4376
12:58:17.328,79.8753,31.3126
12:58:17.337,81.3753,31.2501
12:58:17.349,82.5003,32.9376
12:58:17.357,83.5628,31.4376
12:58:17.368,82.8128,31.3751
12:58:17.377,82.6253,31.4376
12:58:17.387,83.1878,30.4376
12:58:17.397,82.8128,31.0001
12:58:17.408,83.8128,30.3751
12:58:17.417,82.7503,30.0001
12:58:17.429,82.7503,30.5001
12:58:17.437,83.1253,29.1251
12:58:17.447,82.5003,29.0001
12:58:17.457,82.9378,28.8751
12:58:17.467,82.5628,27.8126
12:58:17.477,82.4378,28.2501
12:58:17.487,82.7503,27.4376
12:58:17.498,82.5628,26.6876
12:58:17.507,82.0628,26.1251
12:58:17.518,82.8128,27.5001
12:58:17.527,82.4378,26.8126
12:58:17.537,82.5003,26.8126
12:58:17.548,83.5003,26.3126
12:58:17.557,82.9378,25.5626
12:58:17.567,81.1253,24.8126
12:58:17.578,80.4378,26.1251
12:58:17.588,80.0628,24.4376
12:58:17.597,78.6878,23.4376
12:58:17.607,77.5628,23.2501
12:58:17.617,77.1253,22.4376
12:58:17.627,74.9378,22.1251
12:58:17.661,74.7503,21.1251
12:58:17.682,73.3128,19.6876
12:58:17.683,72.1878,19.5001
12:58:17.700,71.1878,19.5001
12:58:17.700,71.0628,19.0626
12:58:17.700,69.7503,17.0626
12:58:17.713,69.3128,17.4376
12:58:17.716,68.8128,16.3126
12:58:17.720,67.0628,15.2501
12:58:17.728,66.4378,15.0626
12:58:17.738,65.3753,14.8751
12:58:17.763,64.1877,13.2501
12:58:17.765,62.9377,11.75
12:58:17.794,61.7502,10.8125
12:58:17.796,61.0627,11.9375
12:58:17.830,60.2502,10.6875
12:58:17.830,58.6252,10.0625
12:58:17.831,58.3127,9.1875
12:58:17.864,56.8127,9
12:58:17.892,55.8752,8
12:58:17.894,54.6252,7.25
12:58:17.894,53.6252,5.875
12:58:17.895,52.6252,5.625
12:58:17.897,51.5627,6.1875
12:58:17.902,51.1877,5.8125
12:58:17.904,50.6877,3.6875
12:58:17.915,49.8752,3.8125
12:58:17.922,49.2502,2.5625
12:58:17.932,47.6877,2.8125
12:58:17.942,47.1877,2.25
12:58:17.953,46.0002,2.1875
12:58:17.963,44.6877,1.1875
12:58:17.972,44.9377,1.25
12:58:17.982,43.9377,0.0625
12:58:17.992,43.0627,0
12:58:18.003,42.3127,0.125
12:58:18.012,41.5002,-1.5
12:58:18.023,40.9377,-2.1875
12:58:18.032,40.4377,-3.1875
12:58:18.042,39.7502,-3.6875
12:58:18.052,38.4376,-2.5625
12:58:18.062,37.6251,-3.9375
12:58:18.072,38.0626,-3.9375
12:58:18.082,36.6876,-5.1875
12:58:18.092,36.5626,-3.6875
12:58:18.102,35.8751,-5
12:58:18.113,35.4376,-4.125
12:58:18.122,35.6876,-1.4375
12:58:18.132,36.2501,-1.375
12:58:18.142,36.1876,-0.6875
12:58:18.153,36.1876,0.8125
12:58:18.162,36.0626,3.375
12:58:18.172,36.8751,3.75
12:58:18.182,36.4376,4.8125
12:58:18.192,36.2501,6.3125
12:58:18.203,37.1876,6.0625
12:58:18.212,36.6251,6.9375
12:58:18.222,35.8126,7.75
12:58:18.232,35.9376,7.8125
12:58:18.242,35.2501,7.3125
12:58:18.253,34.3126,7.375
12:58:18.262,34.8751,7.5625
12:58:18.272,34.1876,6.4375
12:58:18.282,33.2501,8.0625
12:58:18.292,33.8126,7.3125
12:58:18.302,32.4376,6.1875
12:58:18.312,32.4376,8.3125
12:58:18.322,32.5001,7.5
12:58:18.333,31.5626,7.3125
12:58:18.342,30.6876,8.6875
12:58:18.352,30.4376,6.5625
12:58:18.363,29.5626,5.4375
12:58:18.372,28.7501,6.1875
12:58:18.382,29.6251,5.6875
12:58:18.392,28.3751,4.6875
12:58:18.402,27.6251,3.6875
12:58:18.412,26.7501,5.0625
12:58:18.429,27.0626,4.6875
12:58:18.434,26.9376,3.875
12:58:18.443,26.4376,3.0625
12:58:18.453,25.4376,2.9375
12:58:18.462,25.5626,3.125
12:58:18.472,25.2501,3.25
12:58:18.482,24.6876,2.125
12:58:18.492,23.8751,2.3125
12:58:18.502,23.4376,2.125
12:58:18.513,22.8751,1.3125
12:58:18.522,22.3126,-0.0625
12:58:18.545,21.6876,1.0625
12:58:18.547,22.3126,0.875
12:58:18.577,21.2501,-0.25
12:58:18.577,20.7501,-0.3125
12:58:18.580,20.6251,-0.1875
12:58:18.582,20.0001,0.375
12:58:18.615,20.7501,-0.1875
12:58:18.617,19.8126,-2.25
12:58:18.619,19.1251,-2.0625
12:58:18.622,18.9376,-0.6875
12:58:18.633,19.0626,-1.6875
12:58:18.664,18.5626,-2.625
12:58:18.667,17.8751,-2.625
12:58:18.669,17.4376,-2.625
12:58:18.673,17.8751,-2.875
12:58:18.704,17.1876,-3.625
12:58:18.706,16.8126,-3.25
12:58:18.709,15.9376,-2.8125
12:58:18.715,16.0001,-4.5625
12:58:18.722,15.3126,-3.25
12:58:18.732,15.4376,-3.8125
12:58:18.742,14.8126,-4.625
12:58:18.753,14.5626,-5.4375
12:58:18.763,13.6876,-4.6875
12:58:18.776,14.6251,-6.0625
12:58:18.782,13.4376,-5.3125
12:58:18.793,13.9376,-5.5625
12:58:18.804,13.6876,-7.125
12:58:18.812,12.375,-6.625
12:58:18.823,12.25,-6.3125
12:58:18.832,12.5,-6.5
12:58:18.842,12.4375,-7.8125
12:58:18.853,11.8125,-7.4375
12:58:18.862,10.6875,-7.9375
12:58:18.873,10.9375,-8.625
12:58:18.882,10.5625,-9.1875
12:58:18.892,10.75,-8.8125
12:58:18.903,10.5625,-9.75
12:58:18.932,9.1875,-9
12:58:18.936,10.4375,-8.875
12:58:18.936,9.8125,-8.0625
12:58:18.945,10,-6.125
12:58:18.953,11.9375,-6.5
12:58:18.962,12,-4.4375
12:58:18.981,13.2501,-2.1875
12:58:18.987,14.2501,-1.125
12:58:18.996,13.8126,0
12:58:19.003,14.3126,0.6875
12:58:19.018,13.6876,0.9375
12:58:19.025,14.3126,2.125
12:58:19.033,14.2501,1.875
12:58:19.042,13.6876,1.8125
12:58:19.052,13.9376,1.9375
12:58:19.063,14.0001,1.3125
12:58:19.072,14.4376,2.75
12:58:19.083,13.9376,1.75
12:58:19.092,13.8751,2.125
12:58:19.102,14.5626,2.3125
12:58:19.112,13.3126,1.375
12:58:19.123,13,3.0625
12:58:19.133,13.5001,2.1875
12:58:19.147,13.6251,1.4375
12:58:19.157,13.0625,1.75
12:58:19.162,12,2.5
12:58:19.178,12.1875,1.4375
12:58:19.186,12.125,1.4375
12:58:19.195,12,0.1875
12:58:19.202,12.125,0.125
12:58:19.213,10.875,0.75
12:58:19.238,11.9375,0
12:58:19.241,11.1875,-0.375
12:58:19.242,10.75,0.625
12:58:19.281,11.0625,-0.75
12:58:19.282,10.6875,-0.5
12:58:19.284,10.625,-0.25
12:58:19.287,9.75,0.1875
12:58:19.294,10.1875,-0.5625
12:58:19.325,10.8125,-0.875
12:58:19.328,10.4375,-1.4375
12:58:19.330,9.875,-1.4375
12:58:19.332,9.9375,-0.9375
12:58:19.372,10.6875,-1.4375
12:58:19.373,9.5,-2.4375
12:58:19.376,9.125,-2.9375
12:58:19.378,8.625,-1.875
12:58:19.384,9.1875,-3.125
12:58:19.392,8.5625,-4.1875
12:58:19.407,8.625,-2.75
12:58:19.412,8.25,-3.875
12:58:19.422,7.5625,-4.8125
12:58:19.432,7.5,-4.0625
12:58:19.442,7.0625,-4.1875
12:58:19.452,7.4375,-5.1875
12:58:19.462,6.5625,-4
12:58:19.473,7.4375,-5.5
12:58:19.483,6.875,-5.375
12:58:19.492,6.8125,-5.625
12:58:19.502,6.375,-7
12:58:19.512,6.25,-6.4375
12:58:19.523,6.125,-7.5625
12:58:19.532,6.3125,-5.9375
12:58:19.542,6.0625,-7.75
12:58:19.553,6,-7
12:58:19.562,5.1875,-7.6875
12:58:19.572,5.25,-7.875
12:58:19.582,5.375,-7.25
12:58:19.593,5,-7.5625
12:58:19.602,5.75,-7.875
12:58:19.612,4.75,-8.5
12:58:19.622,4.625,-7.5625
12:58:19.632,5.125,-8.5
12:58:19.642,3.9375,-8.5
12:58:19.652,4.5625,-9
12:58:19.662,4.3125,-9.125
12:58:19.672,4.0625,-9.25
12:58:19.682,4.0625,-9.0625
12:58:19.692,4.1875,-9.125
12:58:19.703,4.6875,-9.5625
12:58:19.712,3.5625,-9.9375
12:58:19.723,3.1875,-10.125
12:58:19.733,3.25,-9.875
12:58:19.742,3,-9.5625
12:58:19.753,3.6875,-9.5625
12:58:19.762,3.6875,-9.5625
12:58:19.772,4.6875,-7.9375
12:58:19.782,5.0625,-7.25
12:58:19.792,6.1875,-4.6875
12:58:19.803,6.9375,-3.625
12:58:19.813,7.9375,-1.6875
12:58:19.823,7.8125,-0.8125
12:58:19.832,8.3125,0.8125
12:58:19.842,8.5,1.6875
12:58:19.852,9.3125,2
12:58:19.863,8.6875,3.75
12:58:19.872,9.25,2.6875
12:58:19.882,9,1.6875
12:58:19.892,9.125,2.75
12:58:19.903,9.125,2.0625
12:58:19.912,8.75,3.375
12:58:19.928,9.5,2.25
12:58:19.932,9,3.8125
12:58:19.961,8.9375,3.4375
12:58:19.964,9.25,2.75
12:58:19.965,9.125,2.9375
12:58:19.972,8.5625,3.25
12:58:20.002,8.8125,3.1875
12:58:20.003,8.4375,2
12:58:20.006,8.125,3.3125
12:58:20.012,7.9375,2.6875
12:58:20.022,7.75,1.8125
12:58:20.052,7.0625,2.1875
12:58:20.054,7.5625,1.5625
12:58:20.056,7.25,0.3125
12:58:20.064,6.375,1.4375
12:58:20.101,6.6875,1.25
12:58:20.103,6.3125,1.0625
12:58:20.104,6.4375,0.375
12:58:20.110,5.9375,1.25
12:58:20.112,5.625,0.25
12:58:20.124,6.1875,-0.1875
12:58:20.132,5.4375,0.6875
12:58:20.142,6.4375,0.3125
12:58:20.152,6.125,0.3125
12:58:20.162,5.125,0
12:58:20.172,5.625,0.5
12:58:20.182,5.4375,-0.8125
12:58:20.211,4.6875,-0.875
12:58:20.214,4.5625,-1.8125
12:58:20.216,4.25,-2.375
12:58:20.222,3.5,-2.5
12:58:20.234,3.375,-1.875
12:58:20.242,3.5,-2.4375
12:58:20.253,3.125,-2.8125
12:58:20.262,2.3125,-3.1875
12:58:20.273,3.5,-3.375
12:58:20.282,2.8125,-2.8125
12:58:20.292,2.625,-4.5
12:58:20.308,2.5625,-4
12:58:20.315,2.0625,-4.6875
12:58:20.332,1.375,-5.25
12:58:20.339,1.625,-4.1875
12:58:20.349,1.125,-5.8125
12:58:20.352,0.9375,-5.3125
12:58:20.362,0.4375,-6.5625
12:58:20.373,0.625,-6.125
12:58:20.382,1.25,-5.375
12:58:20.392,0.8125,-6
12:58:20.402,0.125,-4.5625
12:58:20.412,0.75,-5.9375
12:58:20.422,-0.0625,-6.9375
12:58:20.432,0.0625,-6.25
12:58:20.442,0.3125,-6.75
12:58:20.453,0.25,-6.0625
12:58:20.470,-0.375,-7.375
12:58:20.472,-0.3125,-6.8125
12:58:20.488,-0.6875,-7
12:58:20.503,-0.125,-7.375
12:58:20.505,-0.75,-8.125
12:58:20.516,-0.75,-7.8125
12:58:20.522,-0.6875,-9.3125
12:58:20.531,-1,-7.8125
12:58:20.542,-0.9375,-9.125
12:58:20.552,-0.5625,-8.75
12:58:20.563,-1,-9.375
12:58:20.572,-1.6875,-9.25
12:58:20.582,-0.75,-9.8125
12:58:20.592,-1.3125,-10.125
12:58:20.602,-1.0625,-10.375
12:58:20.612,-1.75,-10.3125
12:58:20.622,-1.0625,-10.0625
12:58:20.632,-1.375,-9.25
12:58:20.644,-0.75,-8.0625
12:58:20.652,0.5,-7.875
12:58:20.662,0.25,-4.6875
12:58:20.672,1.3125,-4.75
12:58:20.682,1.875,-1.8125
12:58:20.692,3.3125,-1.25
12:58:20.702,3.5625,-0.5625
12:58:20.711,3.75,1.75
12:58:20.748,4.3125,1.0625
12:58:20.752,4.4375,2.1875
12:58:20.753,4.4375,1.625
12:58:20.782,4.75,2.875
12:58:20.783,4.625,2.375
12:58:20.785,4.625,3.125
12:58:20.791,5,2.875
12:58:20.796,4.75,3.5
12:58:20.802,4.4375,2.125
12:58:20.835,4.4375,3.0625
12:58:20.836,4.5,2.3125
12:58:20.838,4.1875,2.75
12:58:20.843,5.1875,3.25
12:58:20.879,4.25,3.125
12:58:20.879,4.5,3.3125
12:58:20.882,4.375,1.8125
12:58:20.887,3.5,2.5
12:58:20.894,4.125,2.6875
12:58:20.907,4.0625,2.1875
12:58:20.913,4.0625,1.4375
12:58:20.921,3.0625,0.875
12:58:20.931,3,1.625
12:58:20.941,2.4375,1.9375
12:58:20.952,3,0.8125
12:58:20.961,2.875,0.375
12:58:20.971,2.75,0.875
12:58:20.987,2.4375,1.8125
12:58:20.997,2.75,0.5
12:58:21.009,2.75,-0.25
12:58:21.016,2.75,0.875
12:58:21.028,2.5625,0.375
12:58:21.037,2.25,-0.4375
12:58:21.046,2,0.375
12:58:21.057,2.375,-0.0625
12:58:21.066,1.6875,-1.25
12:58:21.077,1.4375,-1.25
12:58:21.087,1.75,-0.9375
12:58:21.096,2.125,-1.9375
12:58:21.107,1.6875,-2.75
12:58:21.117,1,-2.75
12:58:21.128,1.4375,-3.0625
12:58:21.137,1.3125,-2.9375
12:58:21.146,1.25,-3.4375
12:58:21.156,0.6875,-3
12:58:21.167,-0.125,-3.75
12:58:21.176,0.75,-4.4375
12:58:21.187,0.6875,-5.5625
12:58:21.196,-0.0625,-4.0625
12:58:21.208,0.1875,-5.875
12:58:21.217,-0.0625,-4.8125
12:58:21.227,0.5,-4.5625
12:58:21.236,0.125,-5.0625
12:58:21.249,-0.5,-4.875
12:58:21.256,0.9375,-5.875
12:58:21.267,-0.125,-5.0625
12:58:21.278,-0.625,-6
12:58:21.287,-0.25,-6.6875
12:58:21.296,0.125,-5.5
12:58:21.307,-0.5625,-6.875
12:58:21.316,-0.9375,-6.4375
12:58:21.327,-0.8125,-6.375
12:58:21.336,-1,-6.9375
12:58:21.347,-1.5625,-7.0625
12:58:21.356,-0.3125,-7.75
12:58:21.367,-1.375,-7.5625
12:58:21.376,-1.0625,-8.1875
12:58:21.387,-1.375,-7.5
12:58:21.396,-0.75,-8.625
12:58:21.407,-1.3125,-7.875
12:58:21.416,-0.75,-8.1875
12:58:21.433,-0.875,-6.625
12:58:21.436,0.0625,-6.75
12:58:21.447,1.5,-5.1875
12:58:21.457,1.6875,-4.125
12:58:21.467,1.625,-1.9375
12:58:21.493,2.9375,-1.5625
12:58:21.496,3.125,0.875
12:58:21.499,4,0.3125
12:58:21.538,4.5,2
12:58:21.542,4,2.125
12:58:21.542,3.75,3.0625
12:58:21.545,5.0625,2.375
12:58:21.550,4.1875,3.5625
12:58:21.556,5.25,2.5
12:58:21.585,3.9375,3.375
12:58:21.586,4.8125,2.375
12:58:21.588,4.875,3.3125
12:58:21.617,5.3125,2.375
12:58:21.660,4.625,3.875
12:58:21.675,4.8125,2.4375
12:58:21.678,5.375,2.0625
12:58:21.693,5.375,3.125
12:58:21.696,5.5625,2.75
12:58:21.696,5.4375,1.75
12:58:21.696,4.5,2.5625
12:58:21.702,5.1875,2.625
12:58:21.711,5.0625,1.875
12:58:21.721,4.625,0.75
12:58:21.731,4.8125,2.25
12:58:21.741,4.5625,0.125
12:58:21.751,4.0625,1.25
12:58:21.761,4.875,0.8125
12:58:21.771,4.75,0.625
12:58:21.789,3.8125,-0.625
12:58:21.810,3.6875,0.5
12:58:21.811,4,0.4375
12:58:21.814,3.8125,0.375
12:58:21.828,3.9375,-0.125
12:58:21.843,4.25,-0.375
12:58:21.846,4.375,-0.3125
12:58:21.852,4.0625,-0.8125
12:58:21.861,3.9375,-2.9375
12:58:21.871,3.5625,-2.4375
12:58:21.882,3.125,-1.4375
12:58:21.891,3.0625,-2.75
12:58:21.901,2.9375,-2.0625
12:58:21.911,3.1875,-3.1875
12:58:21.921,3.125,-3.75
12:58:21.931,2.5625,-4.0625
12:58:21.941,2.4375,-3.6875
12:58:21.952,2.375,-4.5625
12:58:21.961,2.875,-4.3125
12:58:21.971,2.6875,-4.875
12:58:21.981,2.25,-4.0625
12:58:21.991,3.125,-4.375
12:58:22.001,2.9375,-5.0625
12:58:22.011,2.125,-4.9375
12:58:22.021,2.75,-5.875
12:58:22.031,2.125,-5.9375
12:58:22.041,2.8125,-5
12:58:22.051,2.6875,-5.8125
12:58:22.061,1.6875,-6
12:58:22.073,2.5,-5.8125
12:58:22.082,1.8125,-6.25
12:58:22.091,1.5625,-5.25
12:58:22.104,2.5625,-7.5
12:58:22.111,1.1875,-5.8125
12:58:22.121,1.875,-6.8125
12:58:22.131,1.625,-7.5
12:58:22.141,1.9375,-6.875
12:58:22.151,1.5,-7.5625
12:58:22.162,0.8125,-7.9375
12:58:22.173,1.4375,-7.8125
12:58:22.184,1.5625,-8.4375
12:58:22.219,1,-8.1875
12:58:22.223,1.875,-7.625
12:58:22.225,1.875,-7.8125
12:58:22.247,1.75,-6.0625
12:58:22.248,2.875,-4.9375
12:58:22.250,4,-4.1875
12:58:22.255,4.4375,-2.4375
12:58:22.284,4.9375,-1.0625
12:58:22.285,5.625,-0.5625
12:58:22.289,5.75,2.3125
12:58:22.323,6.75,2.3125
12:58:22.327,7.3125,2.375
12:58:22.329,6.875,4
12:58:22.364,7.8125,3.4375
12:58:22.364,7,3.25
12:58:22.366,7.4375,4.25
12:58:22.368,7.625,3.75
12:58:22.372,7.0625,3
12:58:22.374,7.125,4.6875
12:58:22.382,7.3125,5.25
12:58:22.393,7.875,4.375
12:58:22.401,7.8125,3.875
12:58:22.411,7.3125,4.625
12:58:22.421,7.5,4
12:58:22.431,7.125,4
12:58:22.441,7.6875,3.9375
12:58:22.451,7.1875,3.4375
12:58:22.461,6.875,3.5625
12:58:22.471,6.6875,3.25
12:58:22.481,6.625,3
12:58:22.491,6.75,2.375
12:58:22.501,6.4375,2.1875
12:58:22.511,6.8125,3
12:58:22.521,6.1875,1.75
12:58:22.531,5.8125,1.625
12:58:22.541,6.625,2.625
12:58:22.551,5.875,1.8125
12:58:22.562,5.5,2.1875
12:58:22.571,5.875,2.25
12:58:22.581,6.0625,2.25
12:58:22.591,5.25,1.3125
12:58:22.602,6.1875,2.0625
12:58:22.611,5.0625,1.3125
12:58:22.621,4.6875,1.9375
12:58:22.631,5.25,1.8125
12:58:22.641,4.3125,1.25
12:58:22.651,3.75,1.4375
12:58:22.661,3.8125,0.375
12:58:22.672,4,-0.6875
12:58:22.681,3.8125,0.25
12:58:22.691,4.6875,0.125
12:58:22.701,3.6875,-1.4375
12:58:22.711,2.8125,0.6875
12:58:22.721,3.3125,-0.6875
12:58:22.731,2.9375,-2
12:58:22.741,2.25,-1.25
12:58:22.771,2.9375,-1.6875
12:58:22.776,2.5625,-2.0625
12:58:22.778,2.25,-1.6875
12:58:22.782,1.8125,-1.8125
12:58:22.793,2.75,-1.75
12:58:22.801,2,-3.5
12:58:22.812,1.6875,-2.75
12:58:22.821,0.875,-2.625
12:58:22.831,1.5625,-2.8125
12:58:22.841,1.375,-3.625
12:58:22.851,0.75,-4.375
12:58:22.861,0.8125,-3.3125
12:58:22.871,1.1875,-3.6875
12:58:22.881,0.5,-4
12:58:22.891,1.125,-4.1875
12:58:22.901,0.125,-4.125
12:58:22.911,0.4375,-4.125
12:58:22.941,-0.5,-4.6875
12:58:22.943,-0.5625,-4.25
12:58:22.946,0,-5.625
12:58:22.974,-0.6875,-4.5625
12:58:23.065,-0.625,-5.9375
12:58:23.066,-1,-5.375
12:58:23.069,-0.375,-5.4375
12:58:23.070,-0.75,-6.75
12:58:23.076,-1,-6.9375
12:58:23.076,-0.3125,-6.25
12:58:23.076,-1.3125,-7.375
12:58:23.082,-1.4375,-5.75
12:58:23.108,-0.125,-6.0625
12:58:23.111,-0.25,-6.5
12:58:23.126,0,-4.1875
12:58:23.141,1.125,-3.1875
12:58:23.144,2.5625,-1.6875
12:58:23.158,2.8125,-0.6875
12:58:23.174,3.125,1.3125
12:58:23.176,3.25,3.3125
12:58:23.177,3.8125,2.9375
12:58:23.182,4.75,3.5
12:58:23.191,4.8125,4.5625
12:58:23.201,5,4.4375
12:58:23.212,4.9375,5.5
12:58:23.221,5,6.6875
12:58:23.231,5.0625,5.5
12:58:23.241,6.25,6.25
12:58:23.252,6.4375,5.875
12:58:23.262,6.5625,6.25
12:58:23.271,6.125,6.6875
12:58:23.281,5.625,6.6875
12:58:23.291,6.5625,5.5
12:58:23.301,5.75,4.1875
12:58:23.312,4.9375,5.25
12:58:23.321,5.1875,5.375
12:58:23.331,5.6875,4.9375
12:58:23.341,4.625,4.0625
12:58:23.351,5,4.1875
12:58:23.361,5.5,4.625
12:58:23.371,4.75,3.0625
12:58:23.381,4.6875,5.5625
12:58:23.391,4.9375,3.875
12:58:23.401,4.6875,2.8125
12:58:23.411,4.625,4.5
12:58:23.421,4.8125,3.625
12:58:23.431,4.125,3.3125
12:58:23.442,3.9375,3.8125
12:58:23.451,4.75,3.8125
12:58:23.462,4.125,2.375
12:58:23.471,4.1875,2.5625
12:58:23.481,3.5625,4.0625
12:58:23.492,4.25,2.125
12:58:23.503,3.625,1.0625
12:58:23.511,3.5,1.875
12:58:23.521,3.1875,1.125
12:58:23.531,2.8125,1.0625
12:58:23.541,2.4375,1.9375
12:58:23.551,3.125,0.3125
12:58:23.561,2.375,-0.3125
12:58:23.571,2.625,0.5
12:58:23.581,2.875,0.3125
12:58:23.591,2.5,-1.25
12:58:23.601,2,0
12:58:23.612,2.375,-0.625
12:58:23.645,1.8125,-1.375
12:58:23.648,1.875,-0.625
12:58:23.650,2.5,-1.5625
12:58:23.652,1.5,-2.3125
12:58:23.687,0.5625,-2.125
12:58:23.689,1,-2.25
12:58:23.691,0.75,-2.6875
12:58:23.694,0.5625,-2.9375
12:58:23.721,0.625,-2.875
12:58:23.724,0.6875,-3.6875
12:58:23.727,0.75,-3.875
12:58:23.731,0.0625,-3.8125
12:58:23.760,0.1875,-3.8125
12:58:23.762,0.875,-4.6875
12:58:23.766,0.3125,-5.3125
12:58:23.772,0.8125,-4.1875
12:58:23.799,0.5625,-4.5625
12:58:23.804,0.75,-4.4375
12:58:23.804,1.25,-4.75
12:58:23.812,0.8125,-3.8125
12:58:23.821,1.8125,-2.75
12:58:23.831,2.5,-0.3125
12:58:23.842,4.25,1.0625
12:58:23.852,3.4375,1.4375
12:58:23.861,5.125,2.625
12:58:23.871,4.4375,3.75
12:58:23.881,5.3125,4.625
12:58:23.891,5.375,4.75
12:58:23.901,5.4375,4.4375
12:58:23.911,5.3125,4.5625
12:58:23.921,4.625,4.9375
12:58:23.931,5.5,5.1875
12:58:23.942,4.8125,5.75
12:58:23.951,5.4375,5.125
12:58:23.961,5.3125,5
12:58:23.971,4.9375,5.8125
12:58:23.981,5.625,5.0625
12:58:23.991,5,5.5
12:58:24.001,5.1875,5.5
12:58:24.011,5.625,5.25
12:58:24.023,5.1875,4.0625
12:58:24.052,5.5,5.375
12:58:24.055,5.5625,4.3125
12:58:24.057,5.1875,4.1875
12:58:24.062,4.4375,4.125
12:58:24.071,5.125,3.9375
12:58:24.081,4.4375,2.8125
12:58:24.091,4.6875,3.875
12:58:24.101,5.0625,2.375
12:58:24.111,3.8125,3.25
12:58:24.121,4,3.1875
12:58:24.131,4.375,3.0625
12:58:24.141,4.5,2.4375
12:58:24.152,4.75,3.625
12:58:24.161,3.9375,2
12:58:24.171,3.8125,2.625
12:58:24.181,4.75,2.6875
12:58:24.191,4.0625,1.625
12:58:24.201,3.8125,0.875
12:58:24.211,3.25,1.8125
12:58:24.221,4.25,1.375
12:58:24.231,3.9375,0.8125
12:58:24.245,2.9375,0.5
12:58:24.252,3,0.8125
12:58:24.263,2.9375,0.25
12:58:24.272,3.5625,-0.0625
12:58:24.281,3,-0.75
12:58:24.291,2.625,0.125
12:58:24.307,3.1875,-1.8125
12:58:24.314,2.4375,-0.9375
12:58:24.324,2.125,-0.75
12:58:24.331,2.9375,-1.8125
12:58:24.346,2.5625,-2.75
12:58:24.354,1.9375,-1.625
12:58:24.386,2.125,-3
12:58:24.388,1.5,-3.3125
12:58:24.390,1.0625,-2.1875
12:58:24.392,1.8125,-3.0625
12:58:24.430,1.5625,-3.75
12:58:24.498,1.25,-3.1875
12:58:24.528,2,-3.1875
12:58:24.528,1.3125,-3.8125
12:58:24.528,1.25,-3.5625
12:58:24.528,1.375,-4.4375
12:58:24.543,0.875,-4.375
12:58:24.545,1.1875,-4.0625
12:58:24.547,0.6875,-5
12:58:24.547,0.875,-4.875
12:58:24.547,0.5,-5.125
12:58:24.551,1.1875,-5.375
12:58:24.561,0.625,-5.0625
12:58:24.571,1.4375,-5.75
12:58:24.581,1.3125,-5.75
12:58:24.592,1.6875,-4.0625
12:58:24.601,2.3125,-3.3125
12:58:24.611,2.9375,-1.875
12:58:24.621,3.5625,-0.125
12:58:24.630,4.375,1.125
12:58:24.642,4.875,2.125
12:58:24.651,5.125,1.875
12:58:24.661,6.1875,3.625
12:58:24.672,6.3125,4.75
12:58:24.682,6.25,5.5625
12:58:24.690,6.9375,5.625
12:58:24.701,6.75,5
12:58:24.711,7.5,5.8125
12:58:24.721,7.5,5.375
12:58:24.731,7.25,6.5625
12:58:24.740,7.3125,5.625
12:58:24.751,7.125,6.8125
12:58:24.761,7.625,6.125
12:58:24.771,6.875,5.5
12:58:24.781,6.4375,6.3125
12:58:24.791,6.9375,5.8125
12:58:24.801,6.6875,4.8125
12:58:24.810,6.5,5.3125
12:58:24.821,6.625,4.25
12:58:24.831,5.875,4.0625
12:58:24.840,5.6875,4.5
12:58:24.851,6.25,4.125
12:58:24.861,5.4375,2.75
12:58:24.870,5.625,4.3125
12:58:24.881,5.4375,3.625
12:58:24.891,5.3125,3.8125
12:58:24.899,5.5,2.9375
12:58:24.911,5.1875,2.625
12:58:24.921,5.5625,3.1875
12:58:24.931,5.5,3.4375
12:58:24.941,5.9375,2.4375
12:58:24.949,5.1875,1.5
12:58:24.961,5,2.875
12:58:24.971,5.3125,1.6875
12:58:24.980,4.6875,0.4375
12:58:24.996,4.75,1.875
12:58:25.001,5.25,0.5625
12:58:25.011,4.375,-0.0625
12:58:25.020,4,1.5
12:58:25.031,3.6875,-0.25
12:58:25.041,3.8125,-1.5625
12:58:25.049,3.375,-0.0625
12:58:25.061,3.3125,-0.3125
12:58:25.072,3.5,-1.3125
12:58:25.081,3.1875,-1.6875
12:58:25.112,2.5625,-0.9375
12:58:25.116,4,-1.5
12:58:25.118,2.9375,-2.4375
12:58:25.126,2.6875,-1.9375
12:58:25.153,2.625,-2.0625
12:58:25.155,3.4375,-2.3125
12:58:25.157,2.25,-3.5625
12:58:25.189,1.6875,-2.5625
12:58:25.191,1.75,-3.125
12:58:25.194,2.25,-3.0625
12:58:25.196,1.75,-3.8125
12:58:25.227,1.125,-3.4375
12:58:25.230,1.6875,-4.25
12:58:25.232,0.4375,-4.1875
12:58:25.238,1,-5
12:58:25.265,0.75,-4.9375
12:58:25.268,0.75,-4.8125
12:58:25.270,0.4375,-5.1875
12:58:25.276,0.5625,-5.0625
12:58:25.286,0.75,-5.75
12:58:25.294,0.375,-6
12:58:25.307,0.3125,-5.125
12:58:25.333,0.375,-6.5
12:58:25.334,0.3125,-7.125
12:58:25.338,0.1875,-6.6875
12:58:25.346,-0.0625,-7.75
12:58:25.355,-0.5625,-6.9375
12:58:25.365,0.375,-8
12:58:25.379,-0.75,-8.0625
12:58:25.385,-0.375,-6.5625
12:58:25.396,0,-8.125
12:58:25.406,0,-8.4375
12:58:25.415,0.25,-6.875
12:58:25.425,0.9375,-6
12:58:25.436,1.25,-5.0625
12:58:25.445,1.8125,-2.6875
12:58:25.457,3.4375,-1.0625
12:58:25.465,3.125,1.875
12:58:25.475,4,2.375
12:58:25.486,4.9375,3.25
12:58:25.496,5,4.0625
12:58:25.504,5.6875,5.0625
12:58:25.514,5.4375,6
12:58:25.525,6.4375,6.8125
12:58:25.535,5.9375,6.75
12:58:25.545,6.875,6.25
12:58:25.555,6.5,6.625
12:58:25.565,5.6875,6.5625
12:58:25.576,6.8125,6.375
12:58:25.586,6.5,6.125
12:58:25.595,6.875,6.875
12:58:25.605,6.625,6.75
12:58:25.615,7.25,7.1875
12:58:25.633,7.3125,7.5
12:58:25.647,6.875,7.5625
12:58:25.649,6.6875,8.8125
12:58:25.655,6.8125,7.5
12:58:25.666,6.6875,6.6875
12:58:25.675,6.375,8.125
12:58:25.685,6.75,7.0625
12:58:25.695,5.375,6.5625
12:58:25.705,6.75,6.625
12:58:25.715,5.5,5.5625
12:58:25.725,5.25,6.3125
12:58:25.735,5.6875,5.6875
12:58:25.746,5,4.75
12:58:25.754,5.5625,4.9375
12:58:25.766,5.6875,5.75
12:58:25.775,5,5.75
12:58:25.786,4.875,6.0625
12:58:25.795,4.0625,5.6875
12:58:25.832,4.0625,6.4375
12:58:25.834,2,8.0625
12:58:25.863,-0.75,9
12:58:25.863,-7.125,6.5625
12:58:25.864,-18.1251,3.4375
12:58:25.866,-30.7501,-1.9375
12:58:25.900,-47.2502,-9
12:58:25.903,-61.6877,-13.6876
12:58:25.906,-75.1878,-20.5626
12:58:25.910,-93.2504,-28.9376
12:58:25.911,-111.2504,-34.6876
12:58:25.937,-128.688,-41.9377
12:58:25.939,-141.438,-45.1877
12:58:25.941,-147.2506,-45.8752
12:58:25.946,-149.6256,-49.1877
12:58:25.971,-149.0631,-48.6877
12:58:25.974,-145.938,-47.9377
12:58:25.977,-142.7505,-45.9377
12:58:25.989,-138.3755,-44.7502
12:58:25.996,-132.8755,-44.1877
12:58:26.005,-128.563,-43.1877
12:58:26.014,-125.813,-42.0627
12:58:26.025,-122.7505,-41.1252
12:58:26.035,-121.2505,-40.9377
12:58:26.045,-120.438,-41.0002
12:58:26.055,-118.688,-41.5627
12:58:26.064,-115.4379,-39.2502
12:58:26.075,-111.1879,-39.5627
12:58:26.085,-107.7504,-37.0626
12:58:26.094,-103.5629,-37.2501
12:58:26.105,-99.3129,-36.0626
12:58:26.115,-94.6879,-35.8126
12:58:26.129,-91.1879,-33.0001
12:58:26.135,-87.0003,-33.6251
12:58:26.145,-85.1253,-32.1251
12:58:26.155,-82.6878,-32.8751
12:58:26.165,-82.1878,-31.5626
12:58:26.175,-81.2503,-32.6251
12:58:26.185,-81.1253,-32.9376
12:58:26.195,-80.3753,-33.1251
12:58:26.205,-78.6253,-32.9376
12:58:26.214,-78.1253,-32.9376
12:58:26.225,-76.8128,-32.9376
12:58:26.236,-76.1253,-32.0626
12:58:26.245,-74.8128,-33.8126
12:58:26.255,-72.1878,-31.5001
12:58:26.265,-70.4378,-32.1876
12:58:26.275,-68.0003,-31.0626
12:58:26.284,-65.9378,-31.6876
12:58:26.295,-64.5002,-32.0001
12:58:26.304,-64.3127,-32.1251
12:58:26.315,-64.0002,-31.8126
12:58:26.327,-64.6877,-31.6251
12:58:26.334,-67.1878,-31.3751
12:58:26.345,-69.8753,-32.6251
12:58:26.355,-70.6253,-30.6876
12:58:26.368,-70.9378,-30.5626
12:58:26.376,-71.4378,-28.8126
12:58:26.385,-70.2503,-27.3126
12:58:26.395,-70.6878,-26.0001
12:58:26.405,-71.7503,-24.9376
12:58:26.415,-74.8753,-23.4376
12:58:26.426,-77.4378,-24.1876
12:58:26.434,-79.8128,-24.3126
12:58:26.445,-81.8753,-24.9376
12:58:26.455,-82.3753,-24.0626
12:58:26.465,-81.8128,-25.0626
12:58:26.475,-80.1878,-23.4376
12:58:26.485,-77.0628,-23.7501
12:58:26.495,-74.1253,-21.6251
12:58:26.505,-74.2503,-21.4376
12:58:26.515,-74.2503,-19.7501
12:58:26.549,-73.3128,-19.1251
12:58:26.550,-72.0628,-18.3751
12:58:26.554,-71.1253,-17.4376
12:58:26.557,-70.1253,-16.9376
12:58:26.585,-70.1878,-16.7501
12:58:26.590,-70.6253,-15.8751
12:58:26.591,-70.0003,-16.5626
12:58:26.615,-69.3128,-15.3751
12:58:26.621,-67.4378,-16.1251
12:58:26.621,-66.1253,-15.3751
12:58:26.625,-64.5002,-15.3751
12:58:26.656,-63.5627,-14.2501
12:58:26.658,-62.9377,-14.4376
12:58:26.660,-61.2502,-14.2501
12:58:26.667,-62.4377,-13.2501
12:58:26.691,-63.0627,-14.1876
12:58:26.694,-64.5002,-13.1251
12:58:26.696,-65.5627,-15.3751
12:58:26.706,-68.0003,-14.6251
12:58:26.716,-68.4378,-16.0626
12:58:26.725,-69.9378,-15.6251
12:58:26.735,-69.4378,-16.3126
12:58:26.746,-69.3128,-15.1251
12:58:26.755,-67.4378,-16.3751
12:58:26.765,-65.5627,-16.0626
12:58:26.775,-63.0002,-14.3126
12:58:26.785,-59.0002,-12.9375
12:58:26.795,-56.6877,-12.8125
12:58:26.805,-52.3752,-11.5625
12:58:26.816,-49.8127,-11.1875
12:58:26.825,-46.1877,-10.625
12:58:26.835,-45.1877,-10
12:58:26.845,-43.3752,-10.25
12:58:26.855,-42.2502,-10.75
12:58:26.866,-41.3752,-8.8125
12:58:26.881,-38.2501,-10.5
12:58:26.886,-36.6876,-8.625
12:58:26.895,-33.9376,-9.5
12:58:26.906,-33.1876,-7.625
12:58:26.928,-31.0001,-9.125
12:58:26.933,-29.8126,-8.3125
12:58:26.936,-28.9376,-8.75
12:58:26.953,-29.1251,-8.5
12:58:26.956,-30.1876,-9
12:58:26.967,-32.3126,-10.375
12:58:26.975,-35.7501,-11.1875
12:58:26.985,-40.8127,-13.0625
12:58:26.995,-50.3127,-16.7501
12:58:27.005,-61.0002,-20.0626
12:58:27.016,-66.7503,-26.2501
12:58:27.025,-68.5003,-27.3126
12:58:27.035,-67.8753,-29.4376
12:58:27.045,-66.3753,-28.2501
12:58:27.055,-64.1252,-28.0001
12:58:27.066,-64.0002,-26.7501
12:58:27.075,-63.6252,-27.0001
12:58:27.085,-60.2502,-26.2501
12:58:27.106,-51.0627,-22.9376
12:58:27.108,-41.8752,-20.0001
12:58:27.124,-33.6876,-17.3751
12:58:27.126,-24.6876,-13.6876
12:58:27.135,-21.8126,-11.1875
12:58:27.145,-19.1251,-10
12:58:27.155,-15.7501,-8.875
12:58:27.165,-11.3125,-5.875
12:58:27.175,-9.5,-3.75
12:58:27.185,-8.1875,-2.875
12:58:27.195,-10.125,-2.75
12:58:27.205,-12.1875,-3.125
12:58:27.215,-14.4376,-2.5625
12:58:27.226,-14.1876,-3.3125
12:58:27.262,-15.8751,-2.9375
12:58:27.265,-15.9376,-3.3125
12:58:27.267,-15.6876,-3.0625
12:58:27.298,-15.3751,-1.5625
12:58:27.298,-13.9376,-3
12:58:27.301,-13.1251,-2.625
12:58:27.306,-12.125,-1.1875
12:58:27.307,-12.0625,-2.0625
12:58:27.339,-11.5,-1.3125
12:58:27.341,-12.1875,-1.5
12:58:27.344,-12.6875,-0.875
12:58:27.346,-12.4375,-1.3125
12:58:27.380,-11.8125,-0.875
12:58:27.382,-10.625,-0.25
12:58:27.384,-9.25,-0.75
12:58:27.386,-9.125,0.375
12:58:27.420,-8.25,-0.5
12:58:27.422,-8.8125,-0.5625
12:58:27.425,-10.125,-0.3125
12:58:27.428,-12.6875,-2.25
12:58:27.441,-15.1251,-3.3125
12:58:27.445,-16.8126,-4.25
12:58:27.455,-17.5001,-3.125
12:58:27.466,-16.4376,-2.375
12:58:27.475,-15.5001,-3.625
12:58:27.486,-14.5001,-2.875
12:58:27.495,-13.5626,-2.3125
12:58:27.504,-14.0001,-2.1875
12:58:27.515,-14.0001,-2.625
12:58:27.525,-14.6251,-1.75
12:58:27.535,-14.6251,-1.9375
12:58:27.546,-15.2501,-1.5625
12:58:27.556,-15.0626,-2.6875
12:58:27.565,-15.3126,-3.6875
12:58:27.575,-15.4376,-3.0625
12:58:27.585,-16.2501,-2.9375
12:58:27.594,-17.8126,-4
12:58:27.605,-17.6876,-3.5
12:58:27.617,-17.4376,-3.3125
12:58:27.625,-16.6876,-3.3125
12:58:27.635,-17.5001,-3.4375
12:58:27.646,-17.6876,-3.4375
12:58:27.654,-19.1251,-3.6875
12:58:27.665,-18.6876,-4.5625
12:58:27.675,-19.7501,-5.125
12:58:27.685,-21.7501,-6.0625
12:58:27.695,-25.6876,-7.0625
12:58:27.706,-27.1251,-7.625
12:58:27.715,-30.6876,-8.25
12:58:27.725,-30.4376,-8.9375
12:58:27.735,-30.7501,-8.8125
12:58:27.745,-29.8751,-8.5
12:58:27.756,-27.7501,-8.875
12:58:27.765,-26.4376,-7.3125
12:58:27.775,-24.0001,-8.3125
12:58:27.785,-22.3126,-7.5625
12:58:27.795,-20.6876,-7.75
12:58:27.805,-19.5001,-6
12:58:27.817,-18.2501,-7.3125
12:58:27.826,-17.4376,-5.625
12:58:27.835,-16.0626,-6.8125
12:58:27.845,-14.6251,-6.9375
12:58:27.855,-11.3125,-5.125
12:58:27.864,-8.9375,-5.0625
12:58:27.891,-5.4375,-3.625
12:58:27.894,-2.5,-3.625
12:58:27.896,0.125,-1.875
12:58:27.905,2.25,-1.9375
12:58:27.915,5.125,-0.5
12:58:27.925,6.25,-0.25
12:58:27.934,7.75,1.4375
12:58:27.945,7.6875,1.5
12:58:27.954,8.5,3.8125
12:58:27.973,9.4375,4.1875
12:58:27.976,9.4375,5.1875
12:58:28.005,10.375,6.75
12:58:28.008,8.25,6.9375
12:58:28.010,8.1875,7.1875
12:58:28.015,7,7.6875
12:58:28.050,5.375,7.4375
12:58:28.053,3.125,7.0625
12:58:28.055,1.75,7.125
12:58:28.058,1.75,6.5
12:58:28.090,2.125,6.125
12:58:28.091,2.0625,6.5
12:58:28.095,2.8125,6.75
12:58:28.123,2.125,5.875
12:58:28.123,1.125,5.625
12:58:28.127,0.4375,7.0625
12:58:28.131,1.1875,5.25
12:58:28.147,-0.625,4.6875
12:58:28.149,-0.8125,6.0625
12:58:28.155,-0.25,5.25
12:58:28.165,-0.3125,4.1875
12:58:28.175,-0.375,3.3125
12:58:28.184,-0.25,4.375
12:58:28.198,0.375,3.4375
12:58:28.205,1.4375,2.6875
12:58:28.214,1,2.5
12:58:28.231,-0.1875,3.625
12:58:28.246,0.0625,2.1875
12:58:28.250,-0.375,1.375
12:58:28.253,0.75,1.5625
12:58:28.264,1.6875,3.5
12:58:28.275,3.4375,2.625
12:58:28.285,4.875,2.5
12:58:28.295,5.8125,2.1875
12:58:28.305,6.5625,2.125
12:58:28.315,5.625,2.25
12:58:28.325,3.5625,0.75
12:58:28.336,1.1875,0.0625
12:58:28.345,-0.375,-1
12:58:28.355,-1.75,-1.1875
12:58:28.365,-2.5625,-1.625
12:58:28.375,-4.1875,-3.125
12:58:28.385,-6,-4
12:58:28.402,-7.8125,-3.6875
12:58:28.406,-9.5,-4.0625
12:58:28.419,-12.5,-5.4375
12:58:28.424,-15.1251,-6.9375
12:58:28.436,-17.1251,-7.9375
12:58:28.445,-17.7501,-7.1875
12:58:28.455,-17.2501,-7.375
12:58:28.465,-16.9376,-8.0625
12:58:28.475,-13.7501,-8
12:58:28.485,-13.3751,-5.9375
12:58:28.494,-14.0001,-6.375
12:58:28.504,-15.3751,-7.125
12:58:28.515,-16.4376,-8
12:58:28.525,-17.0001,-7.625
12:58:28.537,-18.1251,-7.25
12:58:28.545,-19.0001,-8.1875
12:58:28.555,-20.1876,-7.9375
12:58:28.565,-19.6876,-7.9375
12:58:28.575,-19.0001,-7.5
12:58:28.585,-18.1876,-6.8125
12:58:28.594,-16.1251,-7.125
12:58:28.605,-13.9376,-6.125
12:58:28.615,-12.5,-5.6875
12:58:28.624,-10.5625,-6
12:58:28.634,8.875,2.5625
12:58:28.645,14.8751,4.875
12:58:28.655,17.2501,5.75
12:58:28.666,17.0626,6.125
12:58:28.675,9.375,2.875
12:58:28.685,1.375,-1.75
12:58:28.695,-5.6875,-4.8125
12:58:28.705,-10.9375,-6.9375
12:58:28.715,-15.0001,-6.5
12:58:28.725,-17.1251,-8.4375
12:58:28.735,-18.9376,-7.4375
12:58:28.744,-20.5626,-7.8125
12:58:28.754,-19.6251,-5.4375
12:58:28.765,-18.0626,-3.4375
12:58:28.792,-15.6876,-2.3125
12:58:28.795,-12.375,0
12:58:28.799,-10.8125,1.375
12:58:28.805,-8.8125,2
12:58:28.832,-6.9375,5.1875
12:58:28.839,-6.125,4.625
12:58:28.840,-5.8125,5.375
12:58:28.847,-5.125,5.6875
12:58:28.877,-4.4375,6.5
12:58:28.879,-3.4375,7.3125
12:58:28.881,-2.5,6.75
12:58:28.885,-0.75,6.8125
12:58:28.918,0.8125,8.5625
12:58:28.920,2.5,9.25
12:58:28.922,3.875,9.625
12:58:28.925,4.625,10.625
12:58:28.956,6.1875,10
12:58:28.958,6.5,11.125
12:58:28.960,6.5625,10.125
12:58:28.965,6.875,9.9375
12:58:28.976,7.1875,11.0625
12:58:28.985,6.25,8.9375
12:58:28.994,4.8125,8.6875
12:58:29.004,5.4375,8.8125
12:58:29.015,4.5,8.4375
12:58:29.026,4.6875,8.6875
12:58:29.035,4.375,7.25
12:58:29.045,4.375,6.4375
12:58:29.055,3.4375,6.8125
12:58:29.065,3.125,5.5
12:58:29.075,2.25,6.0625
12:58:29.087,2,5.4375
12:58:29.095,0.8125,4.6875
12:58:29.110,-0.5625,3.5625
12:58:29.120,-0.4375,4.6875
12:58:29.128,-0.875,3.4375
12:58:29.139,-0.3125,3
12:58:29.173,-0.5625,2.25
12:58:29.176,-1.125,2.3125
12:58:29.177,0.1875,2.3125
12:58:29.182,-0.3125,1.1875
12:58:29.190,-0.5,0.0625
12:58:29.200,-0.3125,1.4375
12:58:29.210,-0.5625,0.25
12:58:29.220,-1.4375,-0.5
12:58:29.228,-1.8125,0.0625
12:58:29.238,-1.625,-1.625
12:58:29.250,-3.0625,-3.125
12:58:29.259,-4.1875,-2.8125
12:58:29.269,-4.75,-3.75
12:58:29.280,-3.875,-4.5625
12:58:29.290,-3.6875,-4.3125
12:58:29.299,-3.875,-4.6875
12:58:29.308,-3.4375,-4.9375
12:58:29.320,-4.0625,-4.3125
12:58:29.328,-4.875,-6.0625
12:58:29.340,-5.875,-6.625
12:58:29.354,-8.625,-6.6875
12:58:29.361,-9.8125,-7.9375
12:58:29.368,-11.5,-7.125
12:58:29.380,-13.1876,-9.8125
12:58:29.388,-14.2501,-10.25
12:58:29.400,-15.1876,-10.8125
12:58:29.408,-16.0001,-11.1875
12:58:29.420,-17.4376,-11.0625
12:58:29.428,-17.8751,-11.8125
12:58:29.460,-19.3126,-12.125
12:58:29.463,-19.3751,-12
12:58:29.465,-20.6251,-12.375
12:58:29.470,-20.1251,-12.4375
12:58:29.500,-19.6251,-12.3125
12:58:29.504,-16.9376,-10.875
12:58:29.507,-15.0001,-8.75
12:58:29.516,-14.3126,-7.0625
12:58:29.572,-15.8126,-6
12:58:29.575,-14.7501,-5.0625
12:58:29.578,-13.6251,-2.375
12:58:29.582,-12.125,-0.9375
12:58:29.582,-11.0625,1.375
12:58:29.582,-10.125,2.125
12:58:29.593,-10.9375,3
12:58:29.617,-10.5625,3.3125
12:58:29.620,-11.125,4.6875
12:58:29.622,-10.5625,4.5
12:58:29.632,-10,4.9375
12:58:29.638,-9.1875,5.75
12:58:29.648,-8.625,7.1875
12:58:29.660,-8.5625,6.25
12:58:29.668,-8.125,7.3125
12:58:29.681,-8.1875,7.375
12:58:29.698,-7.8125,8.75
12:58:29.701,-7.25,8.375
12:58:29.716,-7.375,8.6875
12:58:29.720,-9.0625,8.9375
12:58:29.731,-9.5,8.6875
12:58:29.741,-11.0625,7.9375
12:58:29.748,-12.0625,7.5625
12:58:29.758,-11.9375,8.75
12:58:29.770,-10.6875,9.25
12:58:29.781,-10.0625,8.3125
12:58:29.790,-8.5625,9.375
12:58:29.799,-7.625,8.6875
12:58:29.809,-8,8.875
12:58:29.819,-6.5,10.3125
12:58:29.829,-5.375,8.75
12:58:29.838,-5.125,8.25
12:58:29.848,-4.1875,9.0625
12:58:29.859,-2.9375,8.8125
12:58:29.868,-2.25,8.8125
12:58:29.878,-2.4375,8.5
12:58:29.890,-1.4375,7.75
12:58:29.898,-1.3125,9.3125
12:58:29.910,0.6875,8.0625
12:58:29.918,1.8125,9.6875
12:58:29.928,3.5625,7.9375
12:58:29.938,4.5,7.4375
12:58:29.948,4.9375,8.125
12:58:29.958,5.8125,7.375
12:58:29.968,5.8125,7.1875
12:58:29.978,6.5,7.125
12:58:29.988,7.0625,6.3125
12:58:29.998,7.4375,5.5
12:58:30.010,7.375,5.875
12:58:30.018,9,6
12:58:30.030,8.8125,4.75
12:58:30.040,9.5,6.3125
12:58:30.048,9.0625,4.625
12:58:30.059,7.6875,5.375
12:58:30.068,6.6875,3.4375
12:58:30.078,6.25,1.9375
12:58:30.088,5.875,2.5625
12:58:30.105,6.25,1.4375
12:58:30.112,4.9375,0.5
12:58:30.119,3.25,0.8125
12:58:30.129,3,-0.5
12:58:30.138,1.4375,-1.4375
12:58:30.148,0.375,-2.6875
12:58:30.158,-0.5625,-2.9375
12:58:30.180,-0.4375,-4.1875
12:58:30.182,-1.25,-5.3125
12:58:30.198,-1.0625,-6.375
12:58:30.201,-2.5,-5.375
12:58:30.228,-2.5625,-7.0625
12:58:30.231,-3.6875,-7.5625
12:58:30.235,-3.75,-5.625
12:58:30.240,-2.875,-6.25
12:58:30.278,-2.9375,-6.25
12:58:30.283,-2.5,-3.5625
12:58:30.286,-0.375,-3.125
12:58:30.286,1.3125,-1.8125
12:58:30.290,2.75,0.1875
12:58:30.315,5.3125,1.75
12:58:30.317,6.4375,3.4375
12:58:30.320,8.3125,5
12:58:30.351,7.25,4.5625
12:58:30.354,7.4375,4.9375
12:58:30.356,6.9375,5.125
12:58:30.362,5.1875,5.8125
12:58:30.368,3.0625,5.1875
12:58:30.378,0.9375,4.875
12:58:30.388,0.6875,4.25
12:58:30.399,-1.8125,4.8125
12:58:30.409,-2.375,4.25
12:58:30.418,-5.1875,4.75
12:58:30.452,-8.5,3.3125
12:58:30.454,-11.8125,1.5625
12:58:30.456,-15.7501,1.375
12:58:30.461,-17.0626,0.875
12:58:30.471,-18.1876,-0.1875
12:58:30.482,-19.1876,-1.1875
12:58:30.489,-21.6251,-0.5
12:58:30.498,-23.1876,-0.9375
12:58:30.508,-22.7501,-1.0625
12:58:30.518,-24.0626,-1.375
12:58:30.528,-25.4376,-0.8125
12:58:30.538,-24.3751,-1.375
12:58:30.548,-24.1876,-1.4375
12:58:30.560,-24.2501,1.125
12:58:30.568,-23.1876,0.0625
12:58:30.578,-23.8126,-0.8125
12:58:30.588,-23.2501,-0.1875
12:58:30.598,-23.0626,0.25
12:58:30.608,-23.9376,0.125
12:58:30.618,-23.5626,1.0625
12:58:30.628,-22.6876,0.5
12:58:30.639,-22.0626,-0.0625
12:58:30.649,-22.4376,0.75
12:58:30.659,-23.2501,-0.5
12:58:30.668,-23.5626,-0.125
12:58:30.679,-25.1251,-2.0625
12:58:30.689,-25.3751,-1.1875
12:58:30.700,-18.7501,-2.25
12:58:30.710,0.3125,10.4375
12:58:30.718,16.6876,15.8126
12:58:30.728,29.0626,20.8751
12:58:30.739,34.5001,20.5001
12:58:30.748,37.3751,21.4376
12:58:30.758,35.6251,18.6251
12:58:30.768,33.1876,16.3751
12:58:30.778,31.6251,15.0626
12:58:30.788,32.3751,14.7501
12:58:30.798,36.5001,17.2501
12:58:30.809,40.8127,19.7501
12:58:30.829,47.6252,22.0626
12:58:30.835,52.4377,23.7501
12:58:30.855,56.4377,26.3751
12:58:30.857,60.5627,27.5626
12:58:30.860,64.7502,28.8751
12:58:30.869,69.6878,28.4376
12:58:30.879,73.3753,30.7501
12:58:30.888,76.9378,31.0626
12:58:30.898,79.5628,31.1251
12:58:30.908,80.6878,30.8126
12:58:30.919,80.7503,30.2501
12:58:30.929,81.5003,29.3126
12:58:30.938,82.3753,27.2501
12:58:30.974,82.9378,27.3126
12:58:30.977,83.3753,27.6876
12:58:30.978,83.9378,26.3751
12:58:31.013,83.3753,25.1251
12:58:31.014,84.0628,25.7501
12:58:31.016,83.9378,25.4376
12:58:31.022,84.4378,25.0001
12:58:31.024,84.0628,24.0001
12:58:31.028,83.4378,23.0001
12:58:31.057,84.0003,23.7501
12:58:31.059,83.1253,22.8126
12:58:31.061,81.8753,25.3751
12:58:31.093,82.6878,24.8751
12:58:31.094,83.3753,25.8751
12:58:31.096,83.5628,27.7501
12:58:31.099,83.8128,28.4376
12:58:31.129,83.4378,29.6251
12:58:31.131,83.2503,31.8126
12:58:31.133,83.4378,31.6251
12:58:31.145,84.0628,32.4376
12:58:31.156,83.3753,32.6876
12:58:31.166,83.8753,33.1876
12:58:31.173,84.2503,33.8126
12:58:31.183,83.9378,34.3126
12:58:31.193,84.3753,33.3126
12:58:31.204,84.5628,34.6251
12:58:31.213,84.4378,35.2501
12:58:31.230,85.3128,34.6876
12:58:31.235,83.5628,34.7501
12:58:31.244,83.0003,35.8126
12:58:31.254,82.5003,34.8751
12:58:31.265,81.5628,34.0001
12:58:31.274,80.8128,34.1251
12:58:31.285,79.6878,33.2501
12:58:31.294,80.1878,31.6876
12:58:31.303,78.3128,32.3751
12:58:31.313,78.0003,30.4376
12:58:31.324,76.3128,30.0626
12:58:31.335,75.6878,30.0001
12:58:31.343,75.3753,29.1251
12:58:31.354,74.4378,28.0626
12:58:31.363,73.5003,28.1876
12:58:31.373,73.1253,28.5626
12:58:31.383,72.7503,27.3126
12:58:31.393,71.8753,26.5626
12:58:31.405,71.5628,28.3126
12:58:31.415,71.2503,26.6876
12:58:31.423,71.0003,26.1876
12:58:31.434,70.1878,25.8751
12:58:31.443,70.3753,26.1251
12:58:31.453,69.6253,25.0626
12:58:31.463,69.5003,24.4376
12:58:31.473,68.6878,24.7501
12:58:31.484,68.2503,24.0626
12:58:31.493,67.3753,22.3751
12:58:31.505,66.3128,23.6251
12:58:31.513,66.1253,21.5001
12:58:31.523,65.3128,20.8126
12:58:31.533,65.0003,21.4376
12:58:31.543,64.7502,20.5626
12:58:31.553,63.2502,18.8126
12:58:31.564,62.0002,19.8126
12:58:31.575,61.8752,18.0626
12:58:31.583,60.8752,16.4376
12:58:31.596,59.8127,17.1251
12:58:31.604,60.0002,16.6876
12:58:31.613,59.0627,15.5001
12:58:31.624,57.8752,15.1251
12:58:31.633,57.9377,15.5626
12:58:31.654,56.8127,14.5001
12:58:31.656,56.5002,13.5001
12:58:31.671,55.6877,12.5
12:58:31.674,54.8127,13
12:58:31.710,54.9377,12.1875
12:58:31.713,53.9377,11.8125
12:58:31.715,52.5002,11.1875
12:58:31.740,51.9377,11.3125
12:58:31.742,51.1877,10.0625
12:58:31.745,49.6252,8.9375
12:58:31.750,48.8127,9.8125
12:58:31.753,48.2502,8.5625
12:58:31.786,47.8752,7.0625
12:58:31.789,46.4377,6.9375
12:58:31.791,45.8127,7.875
12:58:31.795,45.4377,5.4375
12:58:31.822,44.5627,5.1875
12:58:31.823,43.6877,4.0625
12:58:31.825,42.6877,3.875
12:58:31.834,42.1877,4.6875
12:58:31.844,41.3752,5.0625
12:58:31.854,41.9377,3.6875
12:58:31.864,41.3752,3.5
12:58:31.874,40.5627,3.3125
12:58:31.884,39.8127,3
12:58:31.895,39.6877,5.6875
12:58:31.903,40.8752,7.4375
12:58:31.913,41.7502,8.0625
12:58:31.923,42.1252,9.875
12:58:31.933,41.6252,11.9375
12:58:31.943,41.7502,13.5626
12:58:31.954,42.3752,14.1876
12:58:31.964,41.6877,13.7501
12:58:31.979,41.0002,14.4376
12:58:31.985,40.4377,15.3126
12:58:31.993,40.3752,15.6876
12:58:32.004,39.5627,15.1251
12:58:32.013,39.1876,14.8126
12:58:32.023,38.3751,15.8126
12:58:32.033,38.6251,15.7501
12:58:32.044,38.0626,14.4376
12:58:32.053,38.0626,15.5001
12:58:32.063,37.6876,15.5626
12:58:32.075,38.0001,14.6876
12:58:32.083,36.4376,14.0626
12:58:32.093,35.9376,14.8126
12:58:32.103,35.5001,15.5626
12:58:32.114,36.1876,14.1876
12:58:32.130,34.8751,13.2501
12:58:32.146,33.5626,13.5626
12:58:32.152,33.0626,13.9376
12:58:32.155,32.6876,12.5
12:58:32.169,32.9376,11.3125
12:58:32.177,32.0001,10.5625
12:58:32.183,30.7501,11.5
12:58:32.193,31.3126,10.4375
12:58:32.204,30.5001,9.9375
12:58:32.213,30.7501,10.0625
12:58:32.224,30.3751,9.5
12:58:32.233,28.5626,8.75
12:58:32.244,28.1876,9.375
12:58:32.255,28.3751,9.625
12:58:32.263,27.8126,8.625
12:58:32.273,27.0626,8.5
12:58:32.291,25.6251,8.3125
12:58:32.294,26.2501,6.75
12:58:32.309,26.0001,6.0625
12:58:32.316,25.1876,5
12:58:32.323,24.0626,5.125
12:58:32.335,23.3126,4.375
12:58:32.345,23.4376,4.3125
12:58:32.355,22.5626,3.5
12:58:32.363,21.4376,2.625
12:58:32.373,20.9376,3
12:58:32.391,21.2501,2
12:58:32.393,20.5001,1.625
12:58:32.429,19.7501,0.625
12:58:32.432,19.7501,1.5625
12:58:32.434,19.2501,1.25
12:58:32.436,18.6876,-0.0625
12:58:32.466,17.9376,-1.0625
12:58:32.469,17.3751,-0.25
12:58:32.471,17.3751,-1.3125
12:58:32.474,17.4376,-1.875
12:58:32.506,15.9376,-2.875
12:58:32.509,15.7501,-3.75
12:58:32.511,14.7501,-2.125
12:58:32.537,15.5626,-3.3125
12:58:32.538,14.6251,-3.4375
12:58:32.541,14.0001,-4.5
12:58:32.545,14.0626,-4.5625
12:58:32.565,13.3751,-4
12:58:32.569,13.8126,-4.375
12:58:32.573,13.2501,-5.3125
12:58:32.585,12.125,-5.875
12:58:32.593,11.5625,-5.6875
12:58:32.603,12.5,-6.125
12:58:32.615,11.6875,-6.5
12:58:32.623,10.9375,-5.875
12:58:32.634,10.5,-6.8125
12:58:32.643,10.9375,-6.75
12:58:32.653,11.9375,-4.5625
12:58:32.664,13.6876,-4.125
12:58:32.677,13.4376,-3
12:58:32.683,12.875,-0.125
12:58:32.693,14.7501,1.1875
12:58:32.703,14.7501,1.5
12:58:32.713,14.5626,3.5
12:58:32.730,15.6876,4.1875
12:58:32.735,14.1876,5.0625
12:58:32.746,14.4376,5.375
12:58:32.754,15.5001,5.4375
12:58:32.765,15.2501,4.5625
12:58:32.773,15.3751,6.0625
12:58:32.784,14.4376,4.375
12:58:32.794,14.1876,5.8125
12:58:32.803,15.1251,5.6875
12:58:32.814,14.1876,5.3125
12:58:32.824,13.6876,5.875
12:58:32.833,13.8126,5.25
12:58:32.844,13.7501,4.4375
12:58:32.855,13.6876,5.9375
12:58:32.863,14.0626,4.75
12:58:32.875,13.1876,4.5625
12:58:32.886,12.125,5.5625
12:58:32.893,12.5,5.1875
12:58:32.903,12.25,3.8125
12:58:32.913,12,3.9375
12:58:32.924,11.5625,4.375
12:58:32.934,11.3125,3.875
12:58:32.945,11.375,2.5
12:58:32.956,10.8125,2.9375
12:58:32.963,11.125,2.4375
12:58:32.973,10.6875,2.0625
12:58:32.983,9.75,3.3125
12:58:33.011,10.375,3.125
12:58:33.015,11.0625,2.9375
12:58:33.016,10.25,1.6875
12:58:33.024,9.6875,3.375
12:58:33.035,9.75,2.125
12:58:33.043,9.5,1.0625
12:58:33.054,9,0.625
12:58:33.063,8.5,1.0625
12:58:33.073,8.8125,-0.0625
12:58:33.084,7.75,-1.3125
12:58:33.093,7.5625,-0.9375
12:58:33.107,7.4375,-1.1875
12:58:33.114,8.125,-2
12:58:33.129,7.25,-2.4375
12:58:33.139,6.625,-2.3125
12:58:33.148,5.9375,-1.5625
12:58:33.159,7.0625,-2.5625
12:58:33.192,6.1875,-3.75
12:58:33.194,6.125,-3.3125
12:58:33.196,6.625,-3.625
12:58:33.198,5.4375,-5.25
12:58:33.233,4.3125,-5.3125
12:58:33.233,5,-5.625
12:58:33.237,4.375,-6.5625
12:58:33.241,3.1875,-6.875
12:58:33.270,3.75,-6.625
12:58:33.273,3.75,-8.0625
12:58:33.275,3.0625,-6.5
12:58:33.305,3.4375,-7.625
12:58:33.306,3.125,-8.3125
12:58:33.308,3.5,-7.3125
12:58:33.313,3.1875,-8.375
12:58:33.318,3.25,-7.5625
12:58:33.350,2.9375,-8.4375
12:58:33.352,2.5,-8.375
12:58:33.355,2.0625,-8.1875
12:58:33.360,2.875,-9.1875
12:58:33.369,1.875,-9.1875
12:58:33.380,1.9375,-10.875
12:58:33.388,1.5,-11.1875
12:58:33.398,1.4375,-10.25
12:58:33.408,1.5,-11.875
12:58:33.419,1.4375,-10.5625
12:58:33.437,1.1875,-11.5625
12:58:33.443,2.25,-9.875
12:58:33.458,2.5625,-9.125
12:58:33.461,3.0625,-6.6875
12:58:33.471,3.4375,-5.0625
12:58:33.482,4.875,-4.375
12:58:33.489,4.4375,-0.75
12:58:33.498,6,-1
12:58:33.508,6.6875,0.4375
12:58:33.518,6.3125,1.375
12:58:33.529,7.25,1.625
12:58:33.539,7.1875,2.3125
12:58:33.550,6.6875,3.5625
12:58:33.558,8.0625,2.875
12:58:33.568,8.0625,3.5625
12:58:33.578,8.0625,3.6875
12:58:33.594,7.25,3.125
12:58:33.611,7.5625,4.375
12:58:33.613,8.625,5.125
12:58:33.621,7.625,3.75
12:58:33.630,7.125,5.0625
12:58:33.641,7.8125,4.1875
12:58:33.648,7.875,3.5625
12:58:33.659,8.0625,4.8125
12:58:33.668,8.625,3.4375
12:58:33.679,7.25,2.5625
12:58:33.689,6.6875,3.125
12:58:33.698,7.1875,2.125
12:58:33.708,6.25,3.5625
12:58:33.719,6.6875,2.25
12:58:33.728,6.375,0.9375
12:58:33.738,5.5,2
12:58:33.750,6,2.4375
12:58:33.758,6.5625,1.8125
12:58:33.768,6.875,1.375
12:58:33.778,5.6875,0.5
12:58:33.788,5.3125,1.4375
12:58:33.799,6.3125,1
12:58:33.809,5.625,0.3125
12:58:33.818,5.8125,1.0625
12:58:33.828,5.6875,1
12:58:33.837,5.4375,-0.9375
12:58:33.848,4.8125,1.25
12:58:33.858,4.9375,0.8125
12:58:33.868,5.125,-0.4375
12:58:33.879,4.1875,-1.125
12:58:33.888,4.75,-0.875
12:58:33.919,3.75,-2.375
12:58:33.921,3.875,-1.75
12:58:33.924,3.875,-1.9375
12:58:33.929,3.75,-2.625
12:58:33.955,3.125,-3.5625
12:58:33.957,2.9375,-2.9375
12:58:33.960,3.25,-2.75
12:58:33.993,3.0625,-4.5
12:58:33.993,2.5625,-3.75
12:58:33.998,2.75,-3.9375
12:58:34.001,2.625,-4.125
12:58:34.009,2.5,-5.375
12:58:34.037,2.5625,-4.375
12:58:34.040,1.8125,-5.8125
12:58:34.042,1.875,-5.125
12:58:34.048,3.0625,-4.5625
12:58:34.066,2.25,-5.9375
12:58:34.069,1.875,-5.375
12:58:34.078,1.625,-5.5625
12:58:34.089,1.8125,-6.875
12:58:34.099,1.125,-4.9375
12:58:34.110,1.3125,-6.875
12:58:34.117,0.875,-6.5625
12:58:34.128,0.3125,-6.5
12:58:34.138,1.4375,-7.3125
12:58:34.148,1.0625,-8
12:58:34.159,0.0625,-7.9375
12:58:34.168,0.875,-8.3125
12:58:34.178,0.3125,-8.625
12:58:34.189,0,-8.1875
12:58:34.199,0.4375,-8.25
12:58:34.210,0.0625,-8.8125
12:58:34.218,0.3125,-8.8125
12:58:34.232,-0.3125,-10.1875
12:58:34.238,-0.8125,-9.5625
12:58:34.250,0.125,-10.3125
12:58:34.258,-0.25,-9.75
12:58:34.267,-0.875,-10.125
12:58:34.293,-0.9375,-10.375
12:58:34.296,-0.375,-11.375
12:58:34.298,0.375,-8.25
12:58:34.307,1.125,-7.9375
12:58:34.318,1.6875,-6.3125
12:58:34.328,3.375,-3.875
12:58:34.338,3.75,-2.75
12:58:34.348,4.4375,1.0625
12:58:34.358,5.5,1.5625
12:58:34.367,5.875,1.4375
12:58:34.378,5.5625,2.75
12:58:34.390,6.6875,3.25
12:58:34.399,6.5,3.9375
12:58:34.408,7,3.75
12:58:34.419,7.375,3.375
12:58:34.428,7.0625,4.25
12:58:34.437,7.5,4.3125
12:58:34.448,7.5625,5.0625
12:58:34.458,6.8125,5.375
12:58:34.469,7.5,5.375
12:58:34.479,6.625,4.75
12:58:34.487,6.0625,5.0625
12:58:34.497,6.6875,4.4375
12:58:34.508,6.5625,4.875
12:58:34.518,6.5,4.4375
12:58:34.528,6.8125,4.0625
12:58:34.537,6.1875,4.4375
12:58:34.549,5.875,4.8125
12:58:34.558,6.4375,4
12:58:34.567,6.125,2.6875
12:58:34.610,5.5,3.25
12:58:34.615,5.8125,3.375
12:58:34.618,6.0625,3.0625
12:58:34.648,5.6875,2.5
12:58:34.648,6.4375,3.25
12:58:34.649,5.25,2.25
12:58:34.652,5.75,2.6875
12:58:34.660,6.1875,3.25
12:58:34.662,6,2.75
12:58:34.668,6,1.3125
12:58:34.701,5.125,2.3125
12:58:34.704,6.0625,2.125
12:58:34.707,5.6875,1.375
12:58:34.708,5.3125,0.9375
12:58:34.740,5.25,0.625
12:58:34.742,4.75,0.25
12:58:34.771,4.25,-0.25
12:58:34.786,4.5,0.625
12:58:34.788,4.4375,-0.875
12:58:34.788,4.125,-1.6875
12:58:34.789,3.1875,-1.6875
12:58:34.804,3.375,-1.0625
12:58:34.819,3.75,-1.875
12:58:34.821,3.5625,-2.125
12:58:34.824,3.3125,-3.25
12:58:34.832,2.5,-3.4375
12:58:34.843,2.4375,-2.25
12:58:34.852,3.0625,-2.875
12:58:34.863,2.625,-3.5625
12:58:34.876,2.375,-4.9375
12:58:34.886,1.4375,-4.3125
12:58:34.902,2.3125,-5.1875
12:58:34.905,1.9375,-5
12:58:34.920,1.5625,-5.25
12:58:34.936,1.8125,-5.875
12:58:34.937,1.375,-5.6875
12:58:34.946,1.6875,-5.9375
12:58:34.952,0.25,-6.875
12:58:34.962,0.4375,-6.0625
12:58:34.973,1.25,-7.0625
12:58:34.982,0.5625,-6.3125
12:58:34.996,0.625,-6.8125
12:58:35.003,-0.0625,-6.9375
12:58:35.015,0.6875,-7.9375
12:58:35.025,0.4375,-8.4375
12:58:35.032,-0.4375,-7.9375
12:58:35.044,0.1875,-8.9375
12:58:35.052,-0.75,-9
12:58:35.064,0.125,-8.75
12:58:35.074,0.0625,-9.5625
12:58:35.084,-0.0625,-8.625
12:58:35.093,-0.125,-6.4375
12:58:35.102,1.25,-6.6875
12:58:35.113,1.5,-4.9375
12:58:35.124,2.3125,-3.4375
12:58:35.133,3.5,-1.625
12:58:35.142,4.375,-0.5625
12:58:35.152,4,2
12:58:35.165,4.9375,0.9375
12:58:35.173,4.4375,3.125
12:58:35.183,5.3125,3
12:58:35.194,5.0625,2.875
12:58:35.204,5.3125,3.9375
12:58:35.212,5.625,2.9375
12:58:35.222,5.4375,3.0625
12:58:35.233,5.0625,4.5
12:58:35.244,5.25,3.125
12:58:35.254,4.9375,3.75
12:58:35.276,5.3125,2.8125
12:58:35.278,5.625,2.1875
12:58:35.308,5.0625,3.4375
12:58:35.312,4.75,3.9375
12:58:35.313,5.6875,2.6875
12:58:35.314,4.9375,2.3125
12:58:35.353,4.875,2.4375
12:58:35.355,5.5,2.0625
12:58:35.358,4.1875,0.875
12:58:35.360,3.9375,2.625
12:58:35.365,4.4375,1.25
12:58:35.375,4.4375,0.75
12:58:35.409,3.6875,0
12:58:35.411,3.9375,0.9375
12:58:35.413,4.1875,0.0625
12:58:35.417,3.6875,-0.3125
12:58:35.442,3.875,0.4375
12:58:35.445,4.6875,0.25
12:58:35.447,3,-0.3125
12:58:35.454,3.125,0.125
12:58:35.462,3.4375,0.375
12:58:35.472,3.9375,-0.8125
12:58:35.482,2.75,-0.9375
12:58:35.493,2.3125,-0.1875
12:58:35.502,2.375,-1
12:58:35.516,2.5625,-1.875
12:58:35.523,2.3125,-1.875
12:58:35.532,1.75,-2.25
12:58:35.545,2,-2.75
12:58:35.572,2.0625,-2.5
12:58:35.575,2.1875,-2.6875
12:58:35.577,2.125,-3.5625
12:58:35.582,1.1875,-3.625
12:58:35.593,0.8125,-3.625
12:58:35.603,1.5,-3.5625
12:58:35.612,0.9375,-5.5
12:58:35.622,0.9375,-4.1875
12:58:35.632,1.5625,-5.0625
12:58:35.642,0.3125,-5.25
12:58:35.654,0.8125,-4.75
12:58:35.663,0.8125,-5.9375
12:58:35.672,0.0625,-5.8125
12:58:35.682,0.5,-6.6875
12:58:35.693,0.75,-6.75
12:58:35.703,-0.1875,-7.25
12:58:35.712,-0.125,-6.625
12:58:35.722,0.125,-8.375
12:58:35.733,-0.75,-7.1875
12:58:35.742,0.4375,-7.5625
12:58:35.752,-0.4375,-6.9375
12:58:35.762,0.0625,-8.4375
12:58:35.774,-0.375,-8.25
12:58:35.782,-0.3125,-8.125
12:58:35.792,-0.1875,-9.1875
12:58:35.802,-0.5,-8.625
12:58:35.812,-0.9375,-10.0625
12:58:35.822,-0.3125,-9.1875
12:58:35.832,-1,-9.5
12:58:35.842,-1.375,-9.75
12:58:35.854,-1,-9.875
12:58:35.862,-1.5625,-9.6875
12:58:35.872,-0.5,-9.25
12:58:35.882,-0.375,-8.875
12:58:35.894,0.0625,-6.9375
12:58:35.902,0.875,-5.5625
12:58:35.912,2.125,-4
12:58:35.922,2.875,-3.0625
12:58:35.932,3.125,-0.75
12:58:35.942,3.4375,0.9375
12:58:35.952,4.1875,1.75
12:58:35.962,4.3125,1.875
12:58:35.972,4.9375,2.875
12:58:35.982,4.9375,3.625
12:58:35.992,4.9375,3.625
12:58:36.003,5.875,3.6875
12:58:36.012,5.6875,3.5
12:58:36.038,5.6875,3.875
12:58:36.041,5.8125,3.6875
12:58:36.042,5.875,4.125
12:58:36.068,5.75,4.125
12:58:36.072,5.6875,3.0625
12:58:36.074,5.8125,3.9375
12:58:36.107,5.375,3.8125
12:58:36.108,5.375,3.25
12:58:36.111,5.0625,3.625
12:58:36.139,4.9375,3.5625
12:58:36.168,5.375,2.875
12:58:36.169,4.125,2.4375
12:58:36.169,4.3125,2.3125
12:58:36.198,4.25,1.25
12:58:36.201,3.875,1.9375
12:58:36.204,4.1875,0.75
12:58:36.205,3.5,0.5625
12:58:36.205,3.125,1.875
12:58:36.209,4.1875,1.4375
12:58:36.229,3.0625,-0.3125
12:58:36.231,3.375,1.125
12:58:36.240,2.875,0.875
12:58:36.247,3.5,0.1875
12:58:36.263,3.5625,0
12:58:36.272,3.25,-0.25
12:58:36.277,3.25,1
12:58:36.287,3.4375,0.125
12:58:36.297,3.4375,0.4375
12:58:36.307,3.375,-0.375
12:58:36.318,3.0625,-1.25
12:58:36.327,3.3125,-1
12:58:36.337,2.8125,-2.125
12:58:36.347,2.25,-2.1875
12:58:36.358,1.75,-3.0625
12:58:36.368,2.4375,-3.0625
12:58:36.377,2.0625,-2.25
12:58:36.387,2.25,-3.0625
12:58:36.397,1.9375,-3.6875
12:58:36.408,1.5,-3.8125
12:58:36.418,1,-3.8125
12:58:36.427,1.25,-4.25
12:58:36.437,0.75,-2.8125
12:58:36.449,1,-4.6875
12:58:36.457,0.75,-4.875
12:58:36.467,0.625,-5
12:58:36.478,0.8125,-5.125
12:58:36.487,1.0625,-4.3125
12:58:36.499,0.4375,-5.5625
12:58:36.507,0.1875,-6.0625
12:58:36.517,0.625,-5.3125
12:58:36.527,-0.625,-6.0625
12:58:36.537,-0.25,-6.25
12:58:36.549,0.0625,-7.0625
12:58:36.557,-1.0625,-6.375
12:58:36.567,-0.9375,-7.5625
12:58:36.577,-1.3125,-7.625
12:58:36.587,-0.6875,-6.8125
12:58:36.597,-1.0625,-8.0625
12:58:36.607,-0.875,-7.5
12:58:36.617,-0.1875,-7.875
12:58:36.627,-1.375,-8.375
12:58:36.637,-0.25,-7.8125
12:58:36.649,-1.5,-8.5625
12:58:36.657,-1.5,-7.6875
12:58:36.668,-1,-8.6875
12:58:36.677,-1.125,-8.125
12:58:36.687,-0.5,-8.0625
12:58:36.698,-0.1875,-6.375
12:58:36.708,0.5,-5.875
12:58:36.750,0.9375,-3.5625
12:58:36.752,2.5,-2.6875
12:58:36.759,2.125,-0.3125
12:58:36.759,3.75,0.5
12:58:36.762,3.5,2.0625
12:58:36.786,4.9375,2.5625
12:58:36.788,5,3.8125
12:58:36.791,5.4375,3.625
12:58:36.797,4.875,5
12:58:36.812,5.1875,4.0625
12:58:36.819,4.9375,5.1875
12:58:36.853,5.5625,4.375
12:58:36.855,5.0625,5.5
12:58:36.857,5.3125,4.4375
12:58:36.860,5.125,5.5625
12:58:36.890,5.5625,4.9375
12:58:36.892,5.0625,4.9375
12:58:36.895,5.125,5.75
12:58:36.905,5.75,4.875
12:58:36.909,5.3125,5.875
12:58:36.917,5.6875,5
12:58:36.927,5.25,4.3125
12:58:36.937,5.0625,3.6875
12:58:36.947,4.4375,4.5
12:58:36.957,4.9375,4.0625
12:58:36.967,5,3
12:58:36.978,4.0625,4.75
12:58:36.987,4.75,3.4375
12:58:36.997,4.4375,2.625
12:58:37.007,4.4375,3.3125
12:58:37.023,5.3125,3.4375
12:58:37.029,4.4375,2.875
12:58:37.037,4.125,3.5
12:58:37.047,4.125,3.625
12:58:37.057,5,2.875
12:58:37.067,4.4375,2.1875
12:58:37.077,3.75,3.75
12:58:37.088,3.875,2.625
12:58:37.097,3.8125,1.375
12:58:37.107,3.9375,2.875
12:58:37.120,3.75,1.625
12:58:37.127,3,0.75
12:58:37.142,2.9375,1.3125
12:58:37.152,3.3125,1.375
12:58:37.162,3.3125,0.75
12:58:37.174,2.875,0.125
12:58:37.182,2.1875,0.3125
12:58:37.192,2.6875,-0.375
12:58:37.203,2.3125,-1.375
12:58:37.213,2.1875,-1.625
12:58:37.222,2.375,-1.1875
12:58:37.232,2.125,-1.6875
12:58:37.242,1.75,-1.9375
12:58:37.252,2,-1.5625
12:58:37.262,2.1875,-1.6875
12:58:37.274,1.875,-2.5625
12:58:37.282,1.1875,-3.1875
12:58:37.292,1.625,-3.5625
12:58:37.302,1.6875,-1.625
12:58:37.312,1.5,-3.3125
12:58:37.322,1.25,-4.3125
12:58:37.332,0.875,-4.3125
12:58:37.344,0,-2.6875
12:58:37.352,0.3125,-4.3125
12:58:37.362,0.25,-5.5
12:58:37.372,-0.125,-5.0625
12:58:37.382,1.1875,-5.0625
12:58:37.401,-0.0625,-5.8125
12:58:37.406,-0.3125,-6.9375
12:58:37.412,-0.1875,-5.6875
12:58:37.423,0.25,-6.9375
12:58:37.433,-0.5625,-5.75
12:58:37.452,-0.375,-6.875
12:58:37.459,-0.5,-6.1875
12:58:37.467,-0.9375,-5.9375
12:58:37.472,0.3125,-6.9375
12:58:37.490,-0.6875,-5.875
12:58:37.496,-0.125,-6.25
12:58:37.503,0.125,-6.125
12:58:37.512,0.5625,-4.5625
12:58:37.522,2.4375,-2.6875
12:58:37.532,2.4375,-1.1875
12:58:37.551,3.5625,0.5
12:58:37.616,4.1875,1.4375
12:58:37.617,4.5,3.375
12:58:37.621,5.375,4.25
12:58:37.621,5.125,4.4375
12:58:37.622,5.0625,4.5
12:58:37.625,5.9375,5.5
12:58:37.654,5.5625,4.1875
12:58:37.657,5.5625,5.75
12:58:37.657,5.75,5
12:58:37.658,5.5625,4.375
12:58:37.659,5.25,5
12:58:37.666,5.5625,4.1875
12:58:37.676,5.375,3.75
12:58:37.682,5.0625,4.875
12:58:37.711,5.3125,4.5625
12:58:37.715,5.3125,4
12:58:37.718,5.25,3.8125
12:58:37.723,5.375,3.5625
12:58:37.732,4.875,4.125
12:58:37.743,5.3125,3.8125
12:58:37.752,5,4.125
12:58:37.762,4.5625,4.0625
12:58:37.776,4.25,3.6875
12:58:37.782,4.5625,3.25
12:58:37.792,4.375,2.9375
12:58:37.804,4.875,2.5625
12:58:37.812,4.3125,2.25
12:58:37.822,4.1875,1.6875
12:58:37.833,4.5,3.25
12:58:37.842,4.8125,2.75
12:58:37.852,4.25,1.9375
12:58:37.862,3.8125,2
12:58:37.873,4.375,2.3125
12:58:37.882,3.875,1.875
12:58:37.892,3.8125,1.5625
12:58:37.902,4,1.625
12:58:37.913,3.875,1.3125
12:58:37.922,3.1875,-0.0625
12:58:37.932,3.125,0.5
12:58:37.942,3.3125,1
12:58:37.952,3.8125,-0.8125
12:58:37.962,2.9375,-1.375
12:58:37.972,2.3125,-0.5625
12:58:37.982,2.375,-0.8125
12:58:37.993,3.25,-1.5625
12:58:38.002,2.875,-2.4375
12:58:38.012,1.5625,-2.4375
12:58:38.023,2.5625,-2.1875
12:58:38.032,2.3125,-2.9375
12:58:38.042,2.1875,-3.6875
12:58:38.054,1.625,-2.4375
12:58:38.062,2,-3.375
12:58:38.072,1.375,-4.3125
12:58:38.082,0.75,-2.4375
12:58:38.092,2.375,-3.8125
12:58:38.102,1.75,-4.1875
12:58:38.131,0.8125,-3.6875
12:58:38.133,0.625,-5.125
12:58:38.136,1,-3.75
12:58:38.142,0.8125,-4.875
12:58:38.156,0.375,-4.875
12:58:38.163,0.8125,-5.5625
12:58:38.172,0.8125,-5.9375
12:58:38.182,0.1875,-4.25
12:58:38.192,0.125,-5.9375
12:58:38.206,0.3125,-6.6875
12:58:38.237,0.3125,-5.125
12:58:38.240,0.875,-3.6875
12:58:38.240,1.6875,-3.5625
12:58:38.242,1.9375,-1.0625
12:58:38.270,2.875,-1.3125
12:58:38.272,3.4375,0.125
12:58:38.275,4.125,1.875
12:58:38.303,5.375,3.5625
12:58:38.306,5.625,3.625
12:58:38.308,5.125,4.6875
12:58:38.313,5.25,4.375
12:58:38.343,5.25,5.3125
12:58:38.347,5.8125,5.6875
12:58:38.350,6.125,4.875
12:58:38.355,5.3125,4.9375
12:58:38.365,5.875,5.3125
12:58:38.381,5.3125,4.625
12:58:38.384,5.25,5.4375
12:58:38.393,6,5.9375
12:58:38.402,5.6875,4.8125
12:58:38.412,5.75,5.25
12:58:38.422,6.25,5.125
12:58:38.432,6,4.625
12:58:38.442,5.25,4.5625
12:58:38.452,5,4.9375
12:58:38.462,5.625,3.875
12:58:38.472,4.5625,3.375
12:58:38.482,4.3125,4
12:58:38.492,4.8125,4
12:58:38.502,4.9375,3.375
12:58:38.513,4.4375,2.1875
12:58:38.530,4.1875,2.8125
12:58:38.532,4.25,4
12:58:38.542,4.75,3.125
12:58:38.552,4.375,4
12:58:38.562,4.625,3.5
12:58:38.572,4.375,2.75
12:58:38.582,3.625,3.875
12:58:38.593,4.25,2.5625
12:58:38.602,3.6875,1.4375
12:58:38.612,3.0625,2.4375
12:58:38.623,3.9375,1.8125
12:58:38.632,2.9375,0.625
12:58:38.642,2.25,1.125
12:58:38.653,3.125,1.125
12:58:38.662,2.9375,0
12:58:38.672,2.5625,0
12:58:38.682,2.0625,0.75
12:58:38.694,2.8125,-0.6875
12:58:38.702,2.25,-1.5
12:58:38.712,1.375,-2.625
12:58:38.724,0.75,-1.875
12:58:38.732,2.125,-1.75
12:58:38.742,2.125,-2.4375
12:58:38.752,1.75,-2.5625
12:58:38.762,0.625,-1.9375
12:58:38.781,1,-2.9375
12:58:38.787,1.0625,-3.4375
12:58:38.802,1.6875,-3.75
12:58:38.804,1.25,-3.375
12:58:38.815,1,-3.5
12:58:38.822,0.9375,-4
12:58:38.832,0.6875,-4.8125
12:58:38.845,0.875,-2.875
12:58:38.852,1.4375,-4.4375
12:58:38.868,0.3125,-4.5625
12:58:38.871,0,-4.625
12:58:38.886,0.25,-6
12:58:38.893,0.9375,-5.5
12:58:38.904,0.5,-5.375
12:58:38.912,0.375,-5.0625
12:58:38.922,0.5,-5.6875
12:58:38.933,0.5625,-4.75
12:58:38.943,1.0625,-3.6875
12:58:38.954,2,-4
12:58:38.963,2,-3.375
12:58:38.972,2.875,-0.625
12:58:38.983,3.5625,-0.5
12:58:38.992,4.1875,1.9375
12:58:39.024,5.625,2.8125
12:58:39.026,4.625,3.25
12:58:39.030,5.5,3.875
12:58:39.034,5.8125,4.0625
12:58:39.065,5.9375,4.5625
12:58:39.067,6,5.875
12:58:39.070,6.5,5.25
12:58:39.074,5.75,5.125
12:58:39.101,6.5,5.9375
12:58:39.104,6.4375,6.0625
12:58:39.106,6.5,6.1875
12:58:39.136,6.3125,6.4375
12:58:39.138,6.75,6.25
12:58:39.141,6.4375,6.5
12:58:39.144,7.25,6.0625
12:58:39.177,6.5625,5.375
12:58:39.180,6,7.25
12:58:39.182,6.125,5.4375
12:58:39.185,6,4.4375
12:58:39.192,6.25,5.8125
12:58:39.201,7.1875,5.5625
12:58:39.212,5.875,4.4375
12:58:39.222,5.5625,4.375
12:58:39.232,6.3125,4.875
12:58:39.242,6,4.5625
12:58:39.254,5.9375,3.625
12:58:39.262,5,3.75
12:58:39.278,4.75,4.4375
12:58:39.281,5.3125,3.1875
12:58:39.292,5,4.1875
12:58:39.302,5.5625,4.125
12:58:39.311,4.375,3
12:58:39.322,4.4375,3.875
12:58:39.333,4.9375,3.1875
12:58:39.341,4.5625,2.25
12:58:39.353,4.4375,2.8125
12:58:39.362,5.1875,2.5625
12:58:39.371,4.5,1.25
12:58:39.382,3.875,2.3125
12:58:39.411,4.1875,1.5
12:58:39.414,4.25,0.75
12:58:39.416,3.5,1.1875
12:58:39.422,3.4375,1.25
12:58:39.432,3.75,0.0625
12:58:39.442,3.375,-0.625
12:58:39.453,3.0625,-0.875
12:58:39.462,2.5,-0.75
12:58:39.472,3.125,-0.8125
12:58:39.481,2.5,-2.25
12:58:39.492,2.875,-1.125
12:58:39.502,2.8125,-2
12:58:39.514,2.25,-2.1875
12:58:39.522,1.875,-1.8125
12:58:39.532,2.8125,-2.875
12:58:39.544,2.3125,-3.5
12:58:39.552,2.6875,-1.8125
12:58:39.562,2.125,-3.1875
12:58:39.574,1.875,-3.5625
12:58:39.581,1.5,-2.1875
12:58:39.591,2.1875,-3.4375
12:58:39.602,1,-3.875
12:58:39.612,1.3125,-3.4375
12:58:39.621,1.1875,-4.3125
12:58:39.632,0.9375,-3.5625
12:58:39.641,1.5,-4.3125
12:58:39.654,0.8125,-5.25
12:58:39.669,0.125,-4.1875
12:58:39.671,1,-5.5625
12:58:39.706,0.125,-6.3125
12:58:39.709,0.625,-5
12:58:39.711,0.0625,-6.375
12:58:39.713,0.375,-6
12:58:39.743,-0.1875,-7.3125
12:58:39.746,-0.25,-6.1875
12:58:39.748,1.375,-6.125
12:58:39.775,1.0625,-5.6875
12:58:39.776,0.9375,-3.125
12:58:39.778,2.375,-2.625
12:58:39.785,2.8125,-1.5625
12:58:39.813,4.25,1.3125
12:58:39.817,4.875,1.8125
12:58:39.817,4.9375,3.3125
12:58:39.844,5.6875,4.6875
12:58:39.845,6.1875,5.3125
12:58:39.847,6.0625,6.625
12:58:39.852,6.6875,6.4375
12:58:39.862,7,6.5625
12:58:39.873,6.9375,7.375
12:58:39.884,6.8125,7.0625
12:58:39.891,7.8125,8.4375
12:58:39.902,7.6875,7.3125
12:58:39.911,7.9375,7.625
12:58:39.923,7.375,8.5
12:58:39.931,7,8.5
12:58:39.941,7.625,8.4375
12:58:39.952,7.5625,8.5
12:58:39.963,7,9.0625
12:58:39.971,8,8.9375
12:58:39.982,7.875,9.125
12:58:39.991,7.875,8.6875
12:58:40.001,8.0625,8.25
12:58:40.012,7.125,7.8125
12:58:40.021,7.125,7.8125
12:58:40.032,7.0625,7.8125
12:58:40.041,7.375,7.6875
12:58:40.051,7.125,6.25
12:58:40.061,6.25,7.6875
12:58:40.073,6.9375,6.6875
12:58:40.088,6,7.6875
12:58:40.095,6.75,6.625
12:58:40.110,6.25,5.375
12:58:40.112,6.0625,7.125
12:58:40.127,6.0625,6.1875
12:58:40.132,6,6.6875
12:58:40.141,5.625,6.0625
12:58:40.151,6.0625,5.0625
12:58:40.171,5.1875,4.8125
12:58:40.174,5.8125,5.6875
12:58:40.188,5.3125,4.625
12:58:40.199,5.0625,4.9375
12:58:40.202,5.6875,4.875
12:58:40.211,4.5625,4.125
12:58:40.222,5.25,3.75
12:58:40.232,4.5625,3.3125
12:58:40.241,4.1875,4
12:58:40.253,4.5,3.0625
12:58:40.263,4,2.1875
12:58:40.271,3.875,2
12:58:40.281,3.1875,2.3125
12:58:40.291,3.625,1.9375
12:58:40.301,3.5,1
12:58:40.312,3.375,1.0625
12:58:40.321,3.875,0.9375
12:58:40.331,3.25,0.0625
12:58:40.341,2.9375,-0.1875
12:58:40.351,2.25,0.125
12:58:40.361,2.875,0.25
12:58:40.373,2.8125,-0.0625
12:58:40.382,2.1875,-0.3125
12:58:40.391,2.375,0.0625
12:58:40.405,2,-1.9375
12:58:40.411,1.5625,-1.75
12:58:40.421,2,-1.6875
12:58:40.431,1.4375,-1.8125
12:58:40.463,1.1875,-1.875
12:58:40.465,1.625,-2.4375
12:58:40.467,0.875,-3.375
12:58:40.474,1.0625,-2
12:58:40.497,0.25,-3.0625
12:58:40.500,0.625,-3.5625
12:58:40.503,0.875,-3.4375
12:58:40.534,0.125,-4.4375
12:58:40.537,-0.3125,-4.875
12:58:40.539,0.125,-4.3125
12:58:40.542,-0.1875,-5.25
12:58:40.578,-1.0625,-6.6875
12:58:40.580,-0.4375,-6.25
12:58:40.582,-1,-5.875
12:58:40.617,-1.0625,-6.125
12:58:40.618,-1.25,-6.5625
12:58:40.620,-1.3125,-5.5625
12:58:40.626,-0.375,-6.375
12:58:40.627,-0.75,-6
12:58:40.632,-0.1875,-4.0625
12:58:40.642,0.1875,-3
12:58:40.651,1.25,-1.9375
12:58:40.661,2.25,-1.375
12:58:40.693,2.5,1.3125
12:58:40.695,4.375,2.9375
12:58:40.697,4.8125,3.5
12:58:40.704,4.8125,5.0625
12:58:40.711,5.4375,5.8125
12:58:40.721,5.5,7.375
12:58:40.732,6.625,7.5625
12:58:40.741,5.8125,8.625
12:58:40.751,6.25,8.0625
12:58:40.761,5.4375,9
12:58:40.771,5.5625,8.875
12:58:40.782,4.875,8.875
12:58:40.791,4.75,8.4375
12:58:40.801,4.375,8.75
12:58:40.812,2.4375,6.625
12:58:40.821,0.5,4.875
12:58:40.831,-1.4375,5.5
12:58:40.841,-3.75,4.5
12:58:40.851,-6,4.1875
12:58:40.863,-8.125,5.0625
12:58:40.871,-8.375,4.625
12:58:40.881,-9.3125,4.0625
12:58:40.891,-11.625,3.1875
12:58:40.902,-11.75,2.125
12:58:40.912,-13.6251,0.4375
12:58:40.921,-15.4376,1
12:58:40.931,-16.0001,-0.8125
12:58:40.943,-16.6876,-2.375
12:58:40.951,-17.5626,-2.4375
12:58:40.962,-18.5626,-2
12:58:40.972,-21.0001,-4.375
12:58:40.981,-26.9376,-6.125
12:58:40.992,-35.9376,-9.375
12:58:41.001,-49.2502,-14.2501
12:58:41.011,-64.8127,-18.3126
12:58:41.022,-83.1878,-24.1876
12:58:41.031,-105.3129,-32.3751
12:58:41.041,-126.188,-38.0001
12:58:41.051,-142.1255,-45.0002
12:58:41.061,-155.0006,-48.8752
12:58:41.072,-161.9381,-49.7502
12:58:41.081,-166.1881,-50.3752
12:58:41.091,-167.6256,-50.1252
12:58:41.101,-167.7506,-51.5002
12:58:41.111,-165.0006,-49.8127
12:58:41.121,-160.9381,-48.8127
12:58:41.131,-156.6881,-46.1877
12:58:41.146,-152.5006,-45.5627
12:58:41.160,-148.0006,-44.1877
12:58:41.166,-144.0005,-43.8752
12:58:41.202,-137.8755,-42.3127
12:58:41.204,-131.813,-42.4377
12:58:41.206,-125.3755,-40.8752
12:58:41.232,-113.9379,-39.2502
12:58:41.233,-99.5629,-35.5626
12:58:41.236,-83.3753,-32.0001
12:58:41.242,-67.6878,-28.5001
12:58:41.270,-55.0002,-25.8126
12:58:41.273,-44.9377,-23.6251
12:58:41.275,-37.1251,-23.6251
12:58:41.282,-30.8751,-21.9376
12:58:41.289,-26.1251,-22.3751
12:58:41.315,-26.0001,-24.3751
12:58:41.317,-28.2501,-28.0001
12:58:41.322,-28.5001,-29.5626
12:58:41.326,-27.9376,-29.7501
12:58:41.339,-27.1876,-29.2501
12:58:41.348,-25.1251,-29.0626
12:58:41.356,-21.1876,-28.0001
12:58:41.366,-18.8751,-27.3751
12:58:41.376,-16.0001,-26.3751
12:58:41.396,-14.5001,-26.5626
12:58:41.402,-13.8126,-26.0626
12:58:41.419,-12.3125,-25.0001
12:58:41.421,-11.3125,-23.0626
12:58:41.436,-8.25,-20.1251
12:58:41.441,-3.6875,-17.0626
12:58:41.446,-2.75,-16.8751
12:58:41.456,-5.0625,-15.3126
12:58:41.474,-9.5625,-16.5001
12:58:41.476,-15.9376,-16.3751
12:58:41.491,-21.5626,-16.3126
12:58:41.497,-29.3751,-16.5001
12:58:41.508,-39.3127,-18.7501
12:58:41.516,-48.4377,-19.9376
12:58:41.526,-53.9377,-19.5001
12:58:41.538,-58.3127,-20.2501
12:58:41.547,-61.3127,-20.5001
12:58:41.557,-65.0002,-20.3126
12:58:41.566,-68.2503,-20.0626
12:58:41.578,-71.0628,-21.4376
12:58:41.586,-72.5628,-22.4376
12:58:41.597,-73.5003,-21.7501
12:58:41.606,-71.1878,-19.8751
12:58:41.616,-70.3753,-19.3126
12:58:41.628,-68.5003,-17.1876
12:58:41.636,-67.4378,-16.8751
12:58:41.646,-66.3753,-15.3126
12:58:41.656,-62.4377,-13.9376
12:58:41.666,-56.9377,-13.1876
12:58:41.678,-50.4377,-9.3125
12:58:41.686,-43.8752,-8.25
12:58:41.696,-37.5001,-7.4375
12:58:41.708,-30.3751,-5.375
12:58:41.717,-25.9376,-5.5
12:58:41.726,-23.9376,-6.5625
12:58:41.736,-25.2501,-10.5625
12:58:41.746,-27.6251,-13.5001
12:58:41.758,-27.0001,-14.7501
12:58:41.766,-24.8751,-14.0001
12:58:41.776,-21.5626,-11.5
12:58:41.786,-16.5001,-9.25
12:58:41.796,-12.5625,-8.125
12:58:41.807,-8.9375,-7.5
12:58:41.816,-6.9375,-6.8125
12:58:41.826,-5.0625,-6.3125
12:58:41.836,-3.5625,-5.3125
12:58:41.865,-1.75,-4.5
12:58:41.868,-0.875,-3.625
12:58:41.870,-0.3125,-3.8125
12:58:41.877,-2.125,-3.375
12:58:41.902,-3.5625,-4.5625
12:58:41.908,-7,-4.5625
12:58:41.909,-9.5625,-5.5
12:58:41.943,-13.6876,-6.3125
12:58:41.946,-14.5001,-5
12:58:41.948,-10.25,2.125
12:58:41.974,-6.875,4.8125
12:58:41.978,-9.1875,5.625
12:58:41.979,-13.8126,4.8125
12:58:41.981,-18.5001,1.6875
12:58:41.986,-25.9376,-1.6875
12:58:42.019,-33.9376,-4.9375
12:58:42.021,-43.4377,-8.625
12:58:42.024,-52.3752,-11.6875
12:58:42.027,-59.4377,-14.6251
12:58:42.036,-65.8753,-15.9376
12:58:42.046,-69.7503,-18.6251
12:58:42.056,-70.6253,-18.1251
12:58:42.066,-69.8753,-17.6876
12:58:42.077,-70.5628,-17.8751
12:58:42.086,-71.2503,-17.8751
12:58:42.096,-74.5628,-19.5001
12:58:42.106,-77.2503,-19.3751
12:58:42.116,-77.8128,-21.0626
12:58:42.126,-76.5003,-19.5626
12:58:42.136,-73.0628,-19.1251
12:58:42.146,-69.8128,-19.0001
12:58:42.158,-65.2502,-17.8126
12:58:42.166,-58.8752,-16.0626
12:58:42.177,-50.6877,-14.0001
12:58:42.186,-40.0627,-10.1875
12:58:42.197,-30.1876,-8.1875
12:58:42.206,-19.3751,-5.6875
12:58:42.216,-12.5,-5.875
12:58:42.227,-12.0625,-7.3125
12:58:42.236,-13.1251,-12.25
12:58:42.246,-13.6251,-11.6875
12:58:42.256,-7.75,-10.3125
12:58:42.268,-2.8125,-7.125
12:58:42.276,7.875,-1.5625
12:58:42.286,15.4376,1.125
12:58:42.296,18.6251,3.0625
12:58:42.306,20.2501,3.4375
12:58:42.316,20.8751,4.875
12:58:42.327,22.9376,6.0625
12:58:42.336,24.8126,7.875
12:58:42.346,25.0001,7
12:58:42.356,25.4376,8.8125
12:58:42.366,25.2501,8.875
12:58:42.377,24.6251,10.25
12:58:42.386,20.1251,9.8125
12:58:42.396,14.1251,9.0625
12:58:42.406,8.1875,6.875
12:58:42.416,1.6875,6.8125
12:58:42.426,3.875,13.0625
12:58:42.437,0,16.8751
12:58:42.446,-9.1875,15.3126
12:58:42.456,-19.6876,12.1875
12:58:42.468,-30.8751,7.75
12:58:42.477,-44.1252,2.3125
12:58:42.486,-57.1252,-3.0625
12:58:42.496,-68.8753,-6.9375
12:58:42.507,-79.1253,-10.625
12:58:42.516,-89.2503,-14.5001
12:58:42.527,-97.8129,-16.8126
12:58:42.537,-103.0629,-19.7501
12:58:42.546,-106.1879,-21.5626
12:58:42.556,-107.1879,-20.5626
12:58:42.566,-106.5629,-20.5626
12:58:42.576,-106.1254,-20.6876
12:58:42.586,-104.1879,-19.6251
12:58:42.597,-100.9379,-17.9376
12:58:42.606,-94.8754,-16.8126
12:58:42.616,-89.3128,-14.3751
12:58:42.627,-80.1253,-11.875
12:58:42.636,-65.9378,-8.0625
12:58:42.665,-49.0002,-1.875
12:58:42.668,-30.4376,4.25
12:58:42.669,-15.5626,7.5625
12:58:42.676,-7.4375,9.0625
12:58:42.711,-6.25,4.5
12:58:42.713,-7.625,1
12:58:42.743,-3,0.9375
12:58:42.826,2.9375,3.8125
12:58:42.827,9,4.5
12:58:42.848,15.1876,7
12:58:42.850,17.9376,5.625
12:58:42.856,18.8751,6
12:58:42.856,20.8751,5.5
12:58:42.856,23.0001,7.1875
12:58:42.866,24.1876,7.0625
12:58:42.876,23.6251,6.875
12:58:42.887,21.8126,5.625
12:58:42.896,18.9376,5.8125
12:58:42.907,16.1251,4.3125
12:58:42.916,12.125,3.25
12:58:42.926,6.375,1.375
12:58:42.936,2.375,1.375
12:58:42.946,5.5,7.75
12:58:42.957,5.375,12.125
12:58:42.966,-5.875,9.5625
12:58:42.976,-17.5626,5.75
12:58:42.986,-28.6251,0.6875
12:58:42.996,-39.1877,-3.6875
12:58:43.006,-49.1252,-8.25
12:58:43.016,-38.4376,-9.6875
12:58:43.027,-92.3129,-24.1251
12:58:43.036,-79.9378,-18.3751
12:58:43.046,-63.0627,-13.1251
12:58:43.059,-45.3127,-5.75
12:58:43.066,-28.3751,0.1875
12:58:43.076,-16.1251,5.375
12:58:43.086,-8.875,5.5625
12:58:43.096,-7.125,4.5625
12:58:43.106,-6.875,3.875
12:58:43.116,-6.75,2.5
12:58:43.127,-4.3125,4.25
12:58:43.136,1.125,5.75
12:58:43.146,9.4375,9.9375
12:58:43.156,15.5001,11.75
12:58:43.166,19.8126,12.375
12:58:43.179,24.2501,14.7501
12:58:43.187,26.6876,17.5626
12:58:43.196,29.3126,17.7501
12:58:43.207,31.6251,18.6876
12:58:43.221,32.8126,19.3126
12:58:43.226,35.0001,21.0001
12:58:43.251,34.1876,22.6876
12:58:43.254,31.0001,21.6876
12:58:43.256,23.1251,19.1251
12:58:43.266,16.6251,17.5001
12:58:43.276,11.125,15.0626
12:58:43.286,10.875,20.1251
12:58:43.296,13.5626,27.3751
12:58:43.308,2.5625,26.1876
12:58:43.316,-14.1251,21.6251
12:58:43.327,-27.1251,17.0001
12:58:43.336,-36.8751,12.5
12:58:43.347,-45.8127,10.5
12:58:43.356,-55.8752,5.4375
12:58:43.366,-67.3128,0.125
12:58:43.376,-78.2503,-3.9375
12:58:43.386,-85.9378,-6.9375
12:58:43.417,-90.6254,-9.375
12:58:43.419,-93.1879,-10.3125
12:58:43.421,-92.1879,-8.9375
12:58:43.426,-90.0629,-8.8125
12:58:43.459,-88.0003,-9.5
12:58:43.461,-86.6878,-7.625
12:58:43.463,-82.6253,-7.875
12:58:43.466,-76.7503,-6.875
12:58:43.497,-68.5628,-3
12:58:43.502,-60.8127,-0.375
12:58:43.503,-50.9377,1.1875
12:58:43.508,-41.1877,5.5
12:58:43.516,-28.9376,7.6875
12:58:43.543,-18.0626,11.4375
12:58:43.545,-7.0625,13.4376
12:58:43.547,2.4375,15.9376
12:58:43.570,9,16.8126
12:58:43.572,11.0625,14.7501
12:58:43.576,9.375,12.375
12:58:43.586,8.125,8.5625
12:58:43.596,9.6875,5.5625
12:58:43.605,17.8126,8.8125
12:58:43.618,25.1251,9.75
12:58:43.626,27.5001,10.9375
12:58:43.637,29.5001,9.9375
12:58:43.646,31.7501,10.9375
12:58:43.656,34.5626,11.0625
12:58:43.665,36.5626,12.9375
12:58:43.676,37.1251,12.25
12:58:43.686,36.5626,10.875
12:58:43.696,33.4376,10.9375
12:58:43.706,28.8126,8.5
12:58:43.716,22.6251,6
12:58:43.726,18.0626,6.25
12:58:43.735,15.2501,6.25
12:58:43.745,17.8751,11.625
12:58:43.757,10.9375,14.1876
12:58:43.766,-1,10.0625
12:58:43.775,-13.4376,5.125
12:58:43.788,-27.1251,-0.4375
12:58:43.796,-41.2502,-5.3125
12:58:43.807,-53.1877,-10.9375
12:58:43.816,-65.6252,-15.4376
12:58:43.826,-77.5003,-18.9376
12:58:43.836,-89.9378,-24.7501
12:58:43.846,-101.8754,-28.3751
12:58:43.856,-110.3129,-29.5001
12:58:43.866,-116.7504,-30.3126
12:58:43.878,-122.2505,-31.1876
12:58:43.886,-125.313,-30.3751
12:58:43.896,-125.3755,-30.0001
12:58:43.906,-126.6255,-29.4376
12:58:43.916,-127.313,-28.0626
12:58:43.925,-127.8755,-27.1251
12:58:43.935,-125.0005,-26.6876
12:58:43.946,-121.7505,-24.8751
12:58:43.955,-115.6879,-21.3751
12:58:43.971,-109.6879,-19.5626
12:58:43.976,-102.4379,-16.1251
12:58:43.986,-93.5004,-14.0001
12:58:43.995,-83.7503,-9.0625
12:58:44.006,-72.3753,-6.125
12:58:44.025,-60.5002,-0.375
12:58:44.031,-49.6252,2.4375
12:58:44.046,-34.5626,8.625
12:58:44.049,-16.8751,13.6876
12:58:44.057,2.8125,20.5626
12:58:44.065,17.4376,24.1876
12:58:44.074,24.8751,26.0626
12:58:44.110,25.3751,22.5001
12:58:44.112,24.6876,19.3751
12:58:44.147,22.7501,18.5001
12:58:44.149,22.5001,15.8751
12:58:44.150,23.6251,17.7501
12:58:44.153,28.5626,17.3126
12:58:44.158,33.1876,18.7501
12:58:44.159,35.8126,19.2501
12:58:44.167,38.7501,21.3751
12:58:44.195,41.6252,21.3126
12:58:44.197,42.7502,21.9376
12:58:44.200,43.7502,23.1251
12:58:44.207,44.5002,23.1251
12:58:44.241,42.6252,22.9376
12:58:44.243,41.3127,22.6876
12:58:44.246,37.3751,20.1251
12:58:44.248,34.0626,21.5001
12:58:44.271,30.2501,19.2501
12:58:44.274,32.5626,21.1876
12:58:44.276,49.9377,32.7501
12:58:44.285,53.7502,36.1251
12:58:44.295,46.2502,33.8126
12:58:44.305,35.8751,31.0001
12:58:44.317,23.5626,25.3751
12:58:44.326,9.8125,19.5626
12:58:44.335,-4.1875,14.9376
12:58:44.347,-19.2501,9.3125
12:58:44.356,-34.1876,3.375
12:58:44.365,-45.0627,-0.9375
12:58:44.375,-52.3752,-2.5
12:58:44.386,-59.5627,-5.1875
12:58:44.395,-65.1253,-8.25
12:58:44.406,-69.8753,-10.4375
12:58:44.415,-73.5003,-10.5625
12:58:44.426,-75.1878,-12.625
12:58:44.435,-77.5003,-13.8126
12:58:44.445,-78.5003,-15.3751
12:58:44.455,-77.5003,-13.9376
12:58:44.465,-73.3753,-13.8751
12:58:44.475,-69.5003,-13.1251
12:58:44.485,-65.1252,-12.1875
12:58:44.495,-60.8752,-11.375
12:58:44.506,-55.0627,-10.375
12:58:44.532,-47.0002,-6.75
12:58:44.536,-35.0626,-3.6875
12:58:44.539,-23.6876,-0.25
12:58:44.545,-13.4376,3.25
12:58:44.555,-0.375,6.3125
12:58:44.566,10.6875,10.9375
12:58:44.576,22.5626,12.1875
12:58:44.585,28.5001,13.6251
12:58:44.595,27.5001,9.375
12:58:44.606,22.8751,5.625
12:58:44.615,20.9376,2.5625
12:58:44.627,19.9376,1.3125
12:58:44.635,23.3126,3.25
12:58:44.645,26.8751,6.125
12:58:44.655,32.8751,10.3125
12:58:44.666,34.9376,11.9375
12:58:44.675,37.1876,13.6876
12:58:44.685,39.3127,15.0001
12:58:44.695,40.4377,16.7501
12:58:44.705,42.6252,18.5626
12:58:44.718,42.5627,19.0626
12:58:44.729,43.0002,21.0626
12:58:44.735,43.1877,21.3126
12:58:44.745,42.0002,21.3126
12:58:44.755,38.3126,20.8126
12:58:44.766,33.4376,21.1251
12:58:44.775,34.2501,25.0626
12:58:44.785,39.6252,31.4376
12:58:44.795,39.6877,35.2501
12:58:44.819,30.9376,32.3126
12:58:44.824,19.6876,30.0001
12:58:44.826,7.9375,25.3751
12:58:44.856,-4.75,19.6876
12:58:44.859,-19.0626,14.3126
12:58:44.861,-33.6251,9.75
12:58:44.868,-47.1877,5.75
12:58:44.898,-58.5627,0.125
12:58:44.900,-68.6253,-3.9375
12:58:44.902,-78.2503,-7
12:58:44.908,-83.8753,-9
12:58:44.938,-88.2503,-10.6875
12:58:44.940,-91.7504,-11.6875
12:58:44.942,-92.6254,-12.1875
12:58:44.973,-93.4379,-12.375
12:58:44.974,-94.3129,-13.4376
12:58:44.979,-97.3754,-14.7501
12:58:44.981,-98.7504,-16.0001
12:58:44.986,-99.1879,-15.3751
12:58:44.998,-97.6254,-16.3126
12:58:45.005,-95.6254,-14.3751
12:58:45.016,-91.9379,-14.0001
12:58:45.025,-87.6253,-13
12:58:45.035,-79.8128,-9.375
12:58:45.045,-70.8753,-6.8125
12:58:45.055,-60.1877,-3.125
12:58:45.065,-45.5627,0.9375
12:58:45.076,-30.0626,5.5
12:58:45.085,-16.9376,8.125
12:58:45.097,-7.9375,10.3125
12:58:45.106,4.8125,13.0625
12:58:45.115,18.3751,16.5626
12:58:45.125,29.5626,20.9376
12:58:45.135,34.0001,18.8126
12:58:45.145,31.0001,15.1251
12:58:45.155,28.6876,11.3125
12:58:45.165,25.8751,8.875
12:58:45.175,25.8751,6.8125
12:58:45.185,30.8126,7.8125
12:58:45.196,35.6251,8.75
12:58:45.205,37.8126,10.3125
12:58:45.217,39.5627,10.25
12:58:45.230,40.6877,9.6875
12:58:45.240,41.8752,9.875
12:58:45.252,42.5627,9.9375
12:58:45.260,44.1252,10.3125
12:58:45.270,45.6877,11.4375
12:58:45.280,46.5002,11.25
12:58:45.291,45.8127,10.375
12:58:45.300,44.4377,10.25
12:58:45.310,43.5002,10
12:58:45.327,39.3127,8
12:58:45.331,33.8751,6.8125
