timestamp,Red,IR
12:14:29.991,5.1875,6.4375
12:14:29.999,4.4375,5.4375
12:14:30.015,4.75,3.125
12:14:30.023,3.875,1.8125
12:14:30.034,3.3125,-0.875
12:14:30.047,1.6875,-2.5625
12:14:30.054,1.375,-5.1875
12:14:30.064,1.3125,-8.25
12:14:30.073,0.125,-10.0625
12:14:30.084,0.0625,-12.375
12:14:30.094,-1.5625,-15.1251
12:14:30.103,-1.8125,-16.2501
12:14:30.115,-2.5625,-19.7501
12:14:30.125,-3.25,-21.5626
12:14:30.135,-3.9375,-23.0626
12:14:30.144,-4.375,-25.6251
12:14:30.155,-5.4375,-26.8126
12:14:30.165,-5.9375,-29.4376
12:14:30.175,-6.6875,-32.0626
12:14:30.183,-6.5,-32.5626
12:14:30.195,-7.5,-34.0001
12:14:30.203,-7.125,-35.6251
12:14:30.217,-8.375,-37.5001
12:14:30.225,-8.4375,-39.2501
12:14:30.235,-8.75,-39.1876
12:14:30.244,-9.75,-40.1877
12:14:30.254,-9,-41.5002
12:14:30.263,-9.375,-42.3752
12:14:30.274,-9.75,-44.0627
12:14:30.283,-10,-43.4377
12:14:30.295,-10.5,-45.4377
12:14:30.303,-10.9375,-45.3127
12:14:30.316,-10.75,-46.7502
12:14:30.370,-10.75,-45.8752
12:14:30.371,-10.9375,-45.6877
12:14:30.400,-11.1875,-46.3752
12:14:30.400,-10.875,-43.2502
12:14:30.400,-8.375,-39.0626
12:14:30.401,-5.375,-26.0001
12:14:30.402,0.75,-8.4375
12:14:30.409,5.5,11.25
12:14:30.410,9.9375,22.6876
12:14:30.419,13.125,33.4376
12:14:30.450,16.3751,40.0627
12:14:30.452,17.8126,46.1877
12:14:30.454,19.1876,48.5627
12:14:30.461,19.6251,52.3127
12:14:30.489,20.6876,52.2502
12:14:30.491,20.8751,54.2502
12:14:30.494,21.2501,53.6252
12:14:30.505,20.5626,54.8752
12:14:30.509,21.4376,55.0627
12:14:30.520,22.0626,54.3752
12:14:30.529,21.8751,53.1252
12:14:30.538,21.0626,55.3752
12:14:30.548,21.0001,53.8752
12:14:30.558,20.7501,51.8752
12:14:30.569,20.3751,50.6877
12:14:30.580,20.0001,48.7502
12:14:30.591,18.5626,44.8127
12:14:30.599,16.7501,42.9377
12:14:30.609,15.8751,37.8751
12:14:30.619,15.3751,35.0001
12:14:30.628,14.2501,30.6876
12:14:30.640,12.6875,28.6876
12:14:30.648,12.375,25.4376
12:14:30.659,10.8125,23.4376
12:14:30.670,11.4375,22.0001
12:14:30.679,10,20.0001
12:14:30.688,10,19.4376
12:14:30.698,9.375,18.3126
12:14:30.708,9.75,17.6876
12:14:30.719,9.3125,16.8126
12:14:30.728,8.8125,15.9376
12:14:30.742,8.3125,14.3751
12:14:30.750,8.1875,13.8751
12:14:30.758,7.3125,12
12:14:30.768,7.375,10.5625
12:14:30.801,6.75,8.5625
12:14:30.803,5.8125,6.8125
12:14:30.806,5,4.4375
12:14:30.811,4.375,2.1875
12:14:30.820,3.4375,0.8125
12:14:30.828,3.5,-1.9375
12:14:30.838,2.0625,-3.5
12:14:30.850,1.5625,-6.1875
12:14:30.859,1,-8.8125
12:14:30.870,0.3125,-10.625
12:14:30.879,-0.1875,-13.3751
12:14:30.888,-1.25,-14.8126
12:14:30.898,-1.5,-17.3751
12:14:30.908,-2.75,-19.5001
12:14:30.918,-3.25,-21.4376
12:14:30.928,-4.1875,-24.5001
12:14:30.938,-4.625,-26.6251
12:14:30.948,-4.8125,-27.9376
12:14:30.959,-5.625,-29.6876
12:14:30.969,-4.9375,-30.9376
12:14:30.978,-6.375,-32.8126
12:14:30.988,-6.625,-34.8126
12:14:30.999,-6.875,-34.6251
12:14:31.008,-8.0625,-36.8751
12:14:31.018,-7.5625,-37.9376
12:14:31.028,-9.375,-38.8126
12:14:31.040,-9.0625,-40.8127
12:14:31.048,-8.6875,-41.7502
12:14:31.089,-9.4375,-41.9377
12:14:31.091,-9.6875,-43.5627
12:14:31.095,-10.0625,-45.4377
12:14:31.097,-10,-45.3127
12:14:31.099,-10.125,-46.3127
12:14:31.133,-10.9375,-47.1877
12:14:31.201,-10.4375,-48.0627
12:14:31.232,-10.75,-48.8752
12:14:31.247,-10.625,-48.6252
12:14:31.247,-11.125,-48.5627
12:14:31.247,-11.0625,-47.9377
12:14:31.250,-10,-44.8127
12:14:31.254,-7.75,-38.3751
12:14:31.260,-4.375,-24.1251
12:14:31.260,2.1875,-3.5
12:14:31.260,7.4375,14.5626
12:14:31.264,12.125,26.7501
12:14:31.273,14.6251,35.3751
12:14:31.284,17.3126,42.8127
12:14:31.293,19.0626,47.6877
12:14:31.303,20.1876,51.5002
12:14:31.313,21.3126,53.4377
12:14:31.325,22.0001,54.3752
12:14:31.333,22.1251,55.5627
12:14:31.343,22.9376,57.4377
12:14:31.353,23.0626,57.9377
12:14:31.364,22.6251,57.5002
12:14:31.374,23.3126,58.3127
12:14:31.383,22.8751,58.5002
12:14:31.394,22.9376,58.7502
12:14:31.404,23.0001,57.8127
12:14:31.414,22.2501,55.8127
12:14:31.424,19.0001,44.3752
12:14:31.433,17.1876,40.4377
12:14:31.443,16.3126,37.3126
12:14:31.453,15.1251,34.2501
12:14:31.463,14.8126,31.2501
12:14:31.473,13.1876,28.9376
12:14:31.483,12.5625,26.2501
12:14:31.494,11.6875,24.6876
12:14:31.504,11.5625,24.7501
12:14:31.518,11.375,22.5001
12:14:31.528,10.6875,21.3751
12:14:31.538,9.9375,19.8126
12:14:31.549,9.8125,20.0001
12:14:31.558,9.4375,18.5001
12:14:31.569,9.0625,16.3751
12:14:31.578,8.3125,14.7501
12:14:31.588,8.1875,13
12:14:31.598,6.9375,10.6875
12:14:31.608,6.375,8.75
12:14:31.621,5.5625,6.9375
12:14:31.629,4.625,3.6875
12:14:31.638,4.125,1.75
12:14:31.653,3.125,-1.25
12:14:31.661,2.0625,-3.25
12:14:31.670,2,-5.875
12:14:31.685,0.625,-8.6875
12:14:31.693,0.4375,-11.875
12:14:31.700,-0.8125,-14.1251
12:14:31.708,-1.25,-16.5001
12:14:31.718,-2.375,-18.8751
12:14:31.728,-3.25,-21.6876
12:14:31.739,-3.8125,-22.8751
12:14:31.748,-4.0625,-25.5001
12:14:31.758,-4.5625,-27.0626
12:14:31.768,-5.125,-28.6251
12:14:31.778,-6.125,-30.8751
12:14:31.788,-6.625,-32.4376
12:14:31.799,-7.3125,-35.5001
12:14:31.808,-7.4375,-36.0001
12:14:31.823,-8.5,-38.2501
12:14:31.829,-8.3125,-38.3751
12:14:31.863,-8.875,-40.4377
12:14:31.865,-9.625,-41.1877
12:14:31.867,-9.625,-43.0627
12:14:31.871,-9.3125,-42.7502
12:14:31.901,-10.5,-43.0627
12:14:31.904,-10.75,-45.3127
12:14:31.907,-10.8125,-45.6877
12:14:31.937,-11.25,-47.3127
12:14:31.937,-11.0625,-47.6877
12:14:31.939,-11.0625,-48.2502
12:14:31.945,-11.8125,-49.3127
12:14:31.949,-11.6875,-50.3127
12:14:31.985,-12.0625,-50.0002
12:14:31.987,-11.6875,-50.8752
12:14:31.990,-12.125,-50.3127
12:14:31.994,-11.625,-50.0627
12:14:32.020,-11.1875,-48.2502
12:14:32.022,-9.6875,-42.9377
12:14:32.024,-6.75,-30.6251
12:14:32.035,-0.9375,-12.625
12:14:32.041,5.5,7.3125
12:14:32.049,8.9375,20.3126
12:14:32.059,12.3125,30.3126
12:14:32.068,15.2501,38.0001
12:14:32.078,16.5626,42.5627
12:14:32.088,18.1251,46.3127
12:14:32.099,18.6251,47.5002
12:14:32.109,19.4376,48.9377
12:14:32.118,18.4376,49.7502
12:14:32.129,19.0001,49.1252
12:14:32.139,19.3126,49.0002
12:14:32.148,18.8126,49.5002
12:14:32.159,19.1876,48.0002
12:14:32.168,18.6251,48.6877
12:14:32.178,18.8751,46.3752
12:14:32.189,17.9376,46.8127
12:14:32.198,17.5626,44.8127
12:14:32.208,16.8126,42.8127
12:14:32.220,15.8126,39.5002
12:14:32.228,14.3751,37.0001
12:14:32.239,12.9375,32.1876
12:14:32.249,12.625,28.7501
12:14:32.258,11.8125,25.0626
12:14:32.268,10.625,21.9376
12:14:32.279,9.125,20.5626
12:14:32.289,9,17.1876
12:14:32.298,8.125,16.9376
12:14:32.308,8.8125,15.2501
12:14:32.319,7.75,15.4376
12:14:32.328,8.0625,13.6876
12:14:32.338,6.875,14.1876
12:14:32.348,7.1875,13.3126
12:14:32.358,6.875,13
12:14:32.368,6.8125,10.9375
12:14:32.381,6.3125,9.6875
12:14:32.388,5.75,9.0625
12:14:32.399,4.9375,7.875
12:14:32.409,4.6875,5.625
12:14:32.420,4.0625,3.625
12:14:32.429,3.75,1.5625
12:14:32.438,2.5625,-0.4375
12:14:32.448,2.125,-2
12:14:32.459,1.3125,-5.1875
12:14:32.468,1.1875,-6.5625
12:14:32.478,1,-9
12:14:32.488,-0.625,-11.125
12:14:32.498,-1.1875,-12.9375
12:14:32.513,-1.5625,-14.8126
12:14:32.523,-2,-16.6876
12:14:32.528,-3.0625,-18.7501
12:14:32.546,-2.875,-20.8751
12:14:32.549,-3.875,-22.6876
12:14:32.564,-4.625,-24.3126
12:14:32.569,-4.9375,-26.0626
12:14:32.579,-5.8125,-27.5001
12:14:32.588,-6.1875,-29.5626
12:14:32.622,-6.4375,-31.6876
12:14:32.624,-7.0625,-32.1251
12:14:32.627,-7.0625,-33.6251
12:14:32.629,-7.25,-33.8126
12:14:32.668,-8.3125,-36.1876
12:14:32.671,-7.5625,-36.6251
12:14:32.675,-8.9375,-36.5626
12:14:32.676,-8.6875,-39.3751
12:14:32.681,-8.25,-39.7502
12:14:32.688,-9.875,-40.9377
12:14:32.721,-9.4375,-42.4377
12:14:32.723,-10,-42.6877
12:14:32.726,-10.25,-44.5002
12:14:32.730,-10.6875,-45.1877
12:14:32.759,-10.875,-45.6877
12:14:32.762,-10.9375,-44.2502
12:14:32.764,-10.0625,-45.2502
12:14:32.769,-10.0625,-41.1877
12:14:32.779,-8.375,-36.6876
12:14:32.792,-5.0625,-24.5001
12:14:32.798,0.75,-5.5625
12:14:32.808,6.625,11.4375
12:14:32.818,11.0625,24.4376
12:14:32.828,14.1251,33.0626
12:14:32.838,16.4376,39.4377
12:14:32.848,17.8126,45.1252
12:14:32.858,19.6876,49.6252
12:14:32.869,20.4376,50.6252
12:14:32.878,20.8126,52.8127
12:14:32.889,21.0001,54.6252
12:14:32.899,21.5626,54.1877
12:14:32.908,21.3751,55.3127
12:14:32.918,21.4376,54.1877
12:14:32.928,21.3126,54.2502
12:14:32.939,21.6251,54.0627
12:14:32.948,20.9376,53.9377
12:14:32.969,21.6251,53.5627
12:14:32.976,21.5001,52.2502
12:14:32.983,20.1876,49.8127
12:14:32.988,19.3126,46.9377
12:14:33.006,19.3751,46.1877
12:14:33.012,18.1251,41.5002
12:14:33.020,17.0001,38.6251
12:14:33.028,14.6876,34.6876
12:14:33.038,13.6251,31.6251
12:14:33.049,13.3751,27.9376
12:14:33.058,12.375,25.9376
12:14:33.068,11.4375,23.8126
12:14:33.079,10.375,21.2501
12:14:33.088,10.75,21.4376
12:14:33.098,9.9375,19.8126
12:14:33.109,10.5625,18.8126
12:14:33.118,9.6875,18.3751
12:14:33.128,8.6875,17.8126
12:14:33.138,8.9375,17.6876
12:14:33.148,8.9375,15.3126
12:14:33.158,8.1875,14.8126
12:14:33.175,7.5,13
12:14:33.179,6.625,10
12:14:33.188,6.625,8.5625
12:14:33.198,5.75,6.625
12:14:33.208,5.875,4.5
12:14:33.218,4.8125,2.75
12:14:33.228,3.125,0.8125
12:14:33.238,2.5,-2.4375
12:14:33.255,1.6875,-3.75
12:14:33.258,2.125,-6.75
12:14:33.289,0.875,-9.3125
12:14:33.291,-0.8125,-11.0625
12:14:33.293,-1,-14.0001
12:14:33.310,-1.75,-15.5626
12:14:33.315,-2.125,-18.0001
12:14:33.320,-2.3125,-20.3751
12:14:33.347,-3.8125,-21.9376
12:14:33.350,-4,-23.6876
12:14:33.352,-5.3125,-25.5001
12:14:33.359,-4.75,-27.8751
12:14:33.388,-5.375,-29.6251
12:14:33.391,-7.375,-30.9376
12:14:33.395,-6.4375,-33.5001
12:14:33.400,-7.75,-33.3126
12:14:33.426,-7.125,-36.6876
12:14:33.429,-8.25,-37.6251
12:14:33.431,-8.5,-38.5001
12:14:33.439,-9.5,-40.0002
12:14:33.449,-9.3125,-41.2502
12:14:33.459,-10.1875,-41.5002
12:14:33.469,-9.9375,-43.8752
12:14:33.479,-11.125,-43.6877
12:14:33.488,-10.9375,-45.6877
12:14:33.499,-11.1875,-46.6252
12:14:33.508,-10.125,-47.5002
12:14:33.518,-11.8125,-48.1252
12:14:33.528,-11.6875,-48.2502
12:14:33.538,-11.6875,-50.4377
12:14:33.549,-12.1875,-49.3752
12:14:33.558,-12.0625,-49.5627
12:14:33.568,-11.75,-45.8752
12:14:33.578,-9.75,-40.8752
12:14:33.588,-6.0625,-29.3126
12:14:33.598,0.1875,-8.625
12:14:33.608,6.25,9.25
12:14:33.618,10.0625,23.0001
12:14:33.628,13.2501,32.2501
12:14:33.638,15.6251,40.8752
12:14:33.648,18.5001,47.2502
12:14:33.658,19.5626,51.1252
12:14:33.668,21.1876,54.0002
12:14:33.679,20.8126,55.9377
12:14:33.688,21.6251,56.8127
12:14:33.698,21.8751,58.6877
12:14:33.709,22.7501,59.0627
12:14:33.718,22.5001,59.6252
12:14:33.728,22.7501,60.1877
12:14:33.738,22.8751,60.1252
12:14:33.748,22.8751,61.6877
12:14:33.759,23.4376,60.3127
12:14:33.768,22.7501,58.9377
12:14:33.778,22.0001,58.8127
12:14:33.789,22.2501,56.8752
12:14:33.798,21.0626,53.6877
12:14:33.809,19.9376,51.8127
12:14:33.818,19.1876,46.9377
12:14:33.833,17.8751,43.5627
12:14:33.840,16.6876,40.2502
12:14:33.848,15.7501,36.5001
12:14:33.863,14.7501,33.3751
12:14:33.880,13.5001,30.5001
12:14:33.881,12.4375,28.9376
12:14:33.888,12.3125,27.0626
12:14:33.898,11,25.9376
12:14:33.909,11.1875,23.7501
12:14:33.925,9.9375,22.6251
12:14:33.930,10,21.5626
12:14:33.938,9.4375,20.2501
12:14:33.948,9.75,19.6251
12:14:33.960,9.125,18.3751
12:14:33.968,8.6875,16.9376
12:14:33.978,8.1875,15.1876
12:14:33.989,8.125,13.7501
12:14:33.998,6.875,12.3125
12:14:34.027,6.25,9.4375
12:14:34.031,5,5.9375
12:14:34.037,4,4.25
12:14:34.038,3.375,3.25
12:14:34.069,3.25,-0.125
12:14:34.071,2.1875,-1.8125
12:14:34.074,1.5625,-4.5
12:14:34.099,0.5,-8.0625
12:14:34.101,-0.25,-9
12:14:34.109,-1.3125,-12.625
12:14:34.114,-1.75,-14.2501
12:14:34.144,-2.3125,-17.5626
12:14:34.146,-3.625,-19.3751
12:14:34.175,-3.75,-21.1876
12:14:34.179,-4.8125,-23.7501
12:14:34.179,-5.375,-25.3751
12:14:34.182,-5.25,-28.1876
12:14:34.188,-7,-29.2501
12:14:34.194,-7.0625,-30.8126
12:14:34.203,-7.5625,-33.6876
12:14:34.213,-7.6875,-35.0001
12:14:34.223,-8.5,-37.1251
12:14:34.234,-9.625,-39.0627
12:14:34.243,-9.6875,-40.2502
12:14:34.253,-9.5625,-40.9377
12:14:34.263,-10.625,-41.8752
12:14:34.274,-11.125,-44.2502
12:14:34.300,-10.25,-43.9377
12:14:34.302,-11.125,-44.8127
12:14:34.317,-11.0625,-47.0002
12:14:34.320,-12.0625,-47.3752
12:14:34.335,-12.125,-48.5627
12:14:34.349,-12.4375,-50.1877
12:14:34.352,-13.125,-50.0002
12:14:34.355,-12.75,-52.5002
12:14:34.364,-12.75,-52.6877
12:14:34.373,-13.8126,-53.1877
12:14:34.383,-13.3126,-52.4377
12:14:34.393,-13.6876,-53.3752
12:14:34.403,-12.75,-49.4377
12:14:34.413,-10.875,-44.5627
12:14:34.423,-7.4375,-29.9376
12:14:34.433,-1.75,-11.625
12:14:34.444,4.4375,7.5
12:14:34.453,8.6875,21.0001
12:14:34.465,11.8125,30.6876
12:14:34.473,14.5626,38.7501
12:14:34.485,16.0001,43.4377
12:14:34.493,16.9376,47.0002
12:14:34.503,18.7501,51.0002
12:14:34.513,19.3126,51.4377
12:14:34.524,19.1251,52.9377
12:14:34.533,20.5001,53.7502
12:14:34.544,20.0001,54.8752
12:14:34.553,20.3751,54.4377
12:14:34.581,19.7501,54.6252
12:14:34.584,19.6876,54.1252
12:14:34.586,19.6876,54.1877
12:14:34.593,20.3751,53.4377
12:14:34.604,19.3751,53.1877
12:14:34.613,18.9376,52.9377
12:14:34.623,18.3751,49.8752
12:14:34.633,17.4376,46.1252
12:14:34.643,16.5626,43.6877
12:14:34.654,15.2501,39.4377
12:14:34.663,13.2501,35.0001
12:14:34.679,12.125,30.6251
12:14:34.683,10.3125,27.1876
12:14:34.695,9.8125,23.1876
12:14:34.705,9.0625,21.1251
12:14:34.713,7.9375,18.8751
12:14:34.723,7.625,16.1251
12:14:34.733,7,16.5626
12:14:34.743,6.625,14.5001
12:14:34.753,6.6875,14.9376
12:14:34.792,6.375,12.3125
12:14:34.793,6.625,12.4375
12:14:34.796,5.6875,10.8125
12:14:34.799,5,9.5
12:14:34.804,5.1875,8.375
12:14:34.842,4,6.5
12:14:34.844,3.5,4.75
12:14:34.846,2.9375,2.75
12:14:34.852,2.3125,1.6875
12:14:34.854,1.6875,-1.4375
12:14:34.887,0.25,-4.25
12:14:34.889,0,-6.6875
12:14:34.892,-1,-9.5625
12:14:34.894,-1.625,-12.125
12:14:34.926,-2.125,-14.4376
12:14:34.928,-3.5625,-17.1251
12:14:34.931,-3.3125,-19.3751
12:14:34.933,-4.5625,-21.2501
12:14:34.943,-4.8125,-24.1876
12:14:34.953,-6.375,-26.0001
12:14:34.965,-6.1875,-28.2501
12:14:34.973,-7.3125,-30.0626
12:14:34.983,-7.8125,-32.1876
12:14:34.993,-8.625,-35.5001
12:14:35.003,-9.625,-36.6251
12:14:35.013,-9.6875,-38.0626
12:14:35.023,-9.75,-40.6252
12:14:35.033,-10.25,-40.6877
12:14:35.044,-10.8125,-43.1877
12:14:35.056,-10.625,-43.3127
12:14:35.064,-11.375,-44.2502
12:14:35.074,-11.875,-46.5002
12:14:35.084,-12.3125,-46.8127
12:14:35.093,-12.125,-47.3127
12:14:35.103,-12.375,-47.1252
12:14:35.113,-12.75,-48.7502
12:14:35.123,-13.125,-49.4377
12:14:35.133,-12.875,-50.0002
12:14:35.148,-13.3751,-50.2502
12:14:35.164,-13,-50.6877
12:14:35.167,-13.4376,-51.3127
12:14:35.183,-13.5626,-51.1877
12:14:35.185,-13.9376,-51.8127
12:14:35.193,-13.5001,-52.2502
12:14:35.203,-13.8126,-52.5627
12:14:35.214,-13.6876,-52.1252
12:14:35.223,-12.6875,-50.8752
12:14:35.233,-11.75,-44.8752
12:14:35.244,-9.25,-34.5626
12:14:35.253,-2.9375,-15.6876
12:14:35.264,2.875,4.375
12:14:35.273,8,19.5626
12:14:35.283,11.3125,30.0001
12:14:35.293,13.8126,38.0626
12:14:35.303,15.7501,43.2502
12:14:35.313,17.0626,48.0002
12:14:35.323,17.5001,49.8127
12:14:35.332,18.4376,50.8127
12:14:35.343,19.1251,52.2502
12:14:35.352,18.8751,51.4377
12:14:35.363,18.7501,52.2502
12:14:35.373,19.2501,52.0627
12:14:35.383,18.6251,51.3127
12:14:35.394,18.3751,51.5627
12:14:35.403,18.7501,50.1252
12:14:35.413,18.3751,50.2502
12:14:35.423,18.1876,47.3127
12:14:35.433,16.8751,47.7502
12:14:35.443,16.3751,43.1252
12:14:35.453,14.8751,39.6252
12:14:35.463,14.4376,36.3126
12:14:35.473,13.1876,32.8751
12:14:35.483,11.875,29.7501
12:14:35.493,11.0625,26.6251
12:14:35.521,10,24.5626
12:14:35.524,9.875,21.6251
12:14:35.524,9.375,20.8751
12:14:35.561,8.5625,20.5626
12:14:35.564,9.125,19.3751
12:14:35.565,7.625,18.5626
12:14:35.567,8.5,17.4376
12:14:35.575,7.5625,16.7501
12:14:35.600,7.8125,15.9376
12:14:35.604,6.75,15.2501
12:14:35.605,6.9375,13.8751
12:14:35.636,5.625,11.625
12:14:35.636,5.9375,10.25
12:14:35.636,4.375,8.1875
12:14:35.669,5.0625,6.75
12:14:35.673,3.375,4.3125
12:14:35.689,2.9375,2.0625
12:14:35.691,1.9375,-0.8125
12:14:35.693,2.5,-2.1875
12:14:35.700,1.0625,-5.3125
12:14:35.705,0.6875,-6.8125
12:14:35.713,-0.875,-9.125
12:14:35.723,-1.625,-11.0625
12:14:35.733,-1.5625,-14.0626
12:14:35.743,-3.0625,-15.6251
12:14:35.753,-3.625,-18.5626
12:14:35.763,-4.125,-20.0626
12:14:35.773,-4.3125,-22.4376
12:14:35.784,-5.1875,-24.2501
12:14:35.793,-5.5625,-26.2501
12:14:35.806,-6.1875,-28.6876
12:14:35.813,-6.3125,-29.1876
12:14:35.823,-7,-31.7501
12:14:35.833,-8,-32.9376
12:14:35.861,-7.5,-33.9376
12:14:35.863,-8.3125,-35.0626
12:14:35.865,-8.6875,-35.7501
12:14:35.875,-9.625,-38.2501
12:14:35.883,-9.4375,-39.0626
12:14:35.893,-9.1875,-39.6252
12:14:35.903,-10.125,-39.6877
12:14:35.913,-10.6875,-42.5627
12:14:35.923,-10.375,-43.5002
12:14:35.933,-11,-43.6877
12:14:35.943,-10.875,-44.2502
12:14:35.953,-11.5,-45.3127
12:14:35.963,-11.5625,-46.1877
12:14:35.973,-11.6875,-46.1877
12:14:35.983,-11.1875,-46.0627
12:14:35.992,-10.5,-44.0627
12:14:36.003,-8.875,-36.1876
12:14:36.012,-6.0625,-24.9376
12:14:36.022,0.3125,-4.5
12:14:36.032,5.4375,11.8125
12:14:36.042,9.375,25.6251
12:14:36.055,12.4375,34.5626
12:14:36.063,14.8751,43.4377
12:14:36.072,17.0001,48.2502
12:14:36.082,18.6876,53.1877
12:14:36.093,19.6251,54.9377
12:14:36.102,20.1251,57.5002
12:14:36.112,20.2501,58.5002
12:14:36.122,21.3751,60.0627
12:14:36.133,21.1251,59.9377
12:14:36.143,21.8751,60.8127
12:14:36.153,22.1251,61.2502
12:14:36.163,21.0001,61.1877
12:14:36.173,22.5626,61.0002
12:14:36.188,22.1251,61.1877
12:14:36.194,22.1876,60.5627
12:14:36.203,21.3751,58.5002
12:14:36.213,19.7501,56.6877
12:14:36.223,19.3751,54.5627
12:14:36.238,18.5001,51.1877
12:14:36.243,17.6251,46.6877
12:14:36.279,15.6876,43.3127
12:14:36.281,14.7501,39.5002
12:14:36.283,13.5626,35.3126
12:14:36.286,13.1876,33.1251
12:14:36.292,12.3125,31.1876
12:14:36.332,11.0625,29.4376
12:14:36.336,10.5,27.4376
12:14:36.341,10.0625,26.9376
12:14:36.341,10.1875,24.3751
12:14:36.343,9.3125,24.1876
12:14:36.374,9.1875,22.6251
12:14:36.376,8.5625,22.1251
12:14:36.378,9,20.5626
12:14:36.384,7.5625,19.3751
12:14:36.418,8.125,17.3126
12:14:36.420,6.5,16.6876
12:14:36.424,6.25,13.5626
12:14:36.425,5.625,11.0625
12:14:36.433,5.5625,9.8125
12:14:36.443,4.9375,7.4375
12:14:36.453,4.1875,6.75
12:14:36.469,2.875,2.5
12:14:36.483,2.5625,0.625
12:14:36.500,2.3125,-1.5
12:14:36.503,0.9375,-3.5
12:14:36.517,1.6875,-5.625
12:14:36.520,-0.75,-8
12:14:36.524,-0.75,-10.0625
12:14:36.534,-1.4375,-12
12:14:36.542,-2.5,-15.1251
12:14:36.553,-3.375,-17.1876
12:14:36.563,-3.6875,-19.7501
12:14:36.572,-5.125,-21.0626
12:14:36.582,-4.5,-22.5001
12:14:36.593,-4.9375,-24.9376
12:14:36.603,-5.1875,-26.8126
12:14:36.613,-6.8125,-28.8126
12:14:36.622,-7.0625,-29.8751
12:14:36.633,-7.25,-32.4376
12:14:36.642,-8.3125,-34.5626
12:14:36.653,-8.4375,-35.6876
12:14:36.663,-8.9375,-37.6251
12:14:36.672,-9.125,-37.4376
12:14:36.682,-9.5625,-39.0627
12:14:36.692,-10.375,-40.7502
12:14:36.702,-9.5625,-41.3127
12:14:36.712,-10.6875,-42.8752
12:14:36.722,-10.9375,-44.0627
12:14:36.732,-11.125,-44.7502
12:14:36.743,-11.5,-46.8127
12:14:36.752,-11.5,-47.1877
12:14:36.763,-11.875,-48.4377
12:14:36.772,-12.5,-48.3127
12:14:36.782,-12.25,-50.0002
12:14:36.796,-12.5,-50.0002
12:14:36.803,-12.9375,-51.4377
12:14:36.812,-12.9375,-51.1877
12:14:36.823,-12.8125,-49.9377
12:14:36.832,-10.75,-45.5002
12:14:36.843,-9.3125,-36.7501
12:14:36.852,-4,-20.0001
12:14:36.862,1.3125,0.75
12:14:36.873,7.0625,17.5626
12:14:36.882,10.6875,29.2501
12:14:36.892,13.8126,38.4376
12:14:36.902,15.8751,45.7502
12:14:36.912,18.1876,51.3127
12:14:36.922,19.0001,55.6252
12:14:36.939,20.4376,57.4377
12:14:36.953,20.0001,58.9377
12:14:36.956,21.1876,60.0002
12:14:36.967,20.7501,61.1877
12:14:36.973,21.5001,62.3752
12:14:37.002,22.0001,63.1877
12:14:37.033,22.1251,62.3752
12:14:37.035,22.1876,63.0627
12:14:37.037,21.8751,63.0002
12:14:37.045,21.5001,63.5627
12:14:37.045,21.9376,62.3752
12:14:37.045,21.8751,60.5627
12:14:37.061,20.6251,57.3752
12:14:37.064,19.0001,55.2502
12:14:37.102,18.4376,52.0627
12:14:37.104,17.5001,48.1252
12:14:37.107,15.5626,44.0002
12:14:37.111,14.3126,39.9377
12:14:37.115,13.5001,35.8126
12:14:37.140,11.8125,32.8751
12:14:37.143,11.25,30.6251
12:14:37.145,10.625,27.9376
12:14:37.155,10.25,26.1876
12:14:37.163,9.5625,24.3751
12:14:37.172,9.1875,24.1876
12:14:37.182,9.1875,22.4376
12:14:37.192,8.3125,21.5626
12:14:37.202,8.125,18.8751
12:14:37.212,7.875,18.3751
12:14:37.222,7.0625,17.8126
12:14:37.233,6.625,16.1251
12:14:37.242,5.875,13.3126
12:14:37.252,5.5625,11
12:14:37.262,4.25,9.4375
12:14:37.272,3.4375,7.5
12:14:37.282,3.6875,4.875
12:14:37.292,2,3
12:14:37.302,1.25,0
12:14:37.313,0.4375,-3.125
12:14:37.322,-0.625,-6.1875
12:14:37.332,-0.9375,-7.8125
12:14:37.342,-2.0625,-11.6875
12:14:37.353,-2.375,-12.8125
12:14:37.362,-3.4375,-15.6876
12:14:37.372,-4.3125,-18.2501
12:14:37.383,-4.6875,-21.3751
12:14:37.392,-5.0625,-23.2501
12:14:37.402,-6.125,-26.3751
12:14:37.412,-6.9375,-27.8126
12:14:37.422,-7.25,-29.8126
12:14:37.432,-7.875,-32.6876
12:14:37.442,-8,-34.1876
12:14:37.453,-9.625,-35.4376
12:14:37.462,-9.375,-37.6251
12:14:37.472,-10.0625,-38.3751
12:14:37.482,-10,-40.2502
12:14:37.492,-10.875,-41.5627
12:14:37.502,-11.25,-44.0627
12:14:37.512,-11.1875,-45.0627
12:14:37.522,-11.4375,-45.5627
12:14:37.532,-11.625,-47.1252
12:14:37.543,-12.4375,-48.5002
12:14:37.552,-12.375,-49.0002
12:14:37.562,-12.9375,-49.6252
12:14:37.572,-12.6875,-50.0627
12:14:37.582,-13.1876,-50.7502
12:14:37.592,-13.1876,-52.1877
12:14:37.602,-14.1251,-52.5627
12:14:37.612,-13.4376,-53.2502
12:14:37.623,-14.3126,-53.1252
12:14:37.633,-13.6876,-53.8127
12:14:37.642,-14.1251,-54.4377
12:14:37.652,-14.1251,-54.8752
12:14:37.662,-14.3126,-54.7502
12:14:37.683,-14.3751,-55.1252
12:14:37.686,-14.6876,-54.4377
12:14:37.711,-15.1251,-56.5002
12:14:37.712,-14.0626,-54.6877
12:14:37.715,-14.3751,-53.5627
12:14:37.725,-12.5,-47.8752
12:14:37.755,-10,-37.0001
12:14:37.756,-5.125,-18.3126
12:14:37.758,2.0625,3.625
12:14:37.763,5.9375,19.1876
12:14:37.801,9.5,29.9376
12:14:37.804,11.6875,37.6251
12:14:37.809,14.1876,43.8127
12:14:37.812,15.4376,47.4377
12:14:37.814,16.5626,49.7502
12:14:37.852,16.6876,51.4377
12:14:37.854,17.7501,52.3752
12:14:37.859,17.5001,51.0627
12:14:37.860,17.2501,51.6252
12:14:37.863,17.3751,52.1877
12:14:37.876,17.3126,51.2502
12:14:37.884,17.3126,51.8127
12:14:37.892,16.9376,49.7502
12:14:37.902,16.5001,49.6877
12:14:37.912,16.2501,47.3127
12:14:37.922,15.3751,46.0627
12:14:37.932,15.3751,43.8752
12:14:37.943,14.1251,39.9377
12:14:37.953,12.5625,36.3126
12:14:37.962,11.0625,31.6876
12:14:37.972,10,27.5626
12:14:37.982,8.75,24.1876
12:14:37.992,8,21.3751
12:14:38.002,7.5625,19.6876
12:14:38.012,6.4375,17.5626
12:14:38.022,6.5,16.8126
12:14:38.032,6.1875,16.6251
12:14:38.042,5.5,15.1251
12:14:38.052,6.5625,14.8751
12:14:38.062,5.25,14.5001
12:14:38.077,5,13
12:14:38.087,4.8125,11.6875
12:14:38.097,4.375,10.875
12:14:38.107,4.125,8.75
12:14:38.117,3.375,7.625
12:14:38.127,2.625,5.5
12:14:38.137,2.5,4.25
12:14:38.147,1.6875,1.1875
12:14:38.158,0.8125,-1.125
12:14:38.168,0.1875,-4.375
12:14:38.177,0,-5.9375
12:14:38.187,-0.75,-9.0625
12:14:38.197,-2.125,-11.125
12:14:38.207,-2.25,-13.5001
12:14:38.217,-3.375,-15.4376
12:14:38.227,-3.75,-17.9376
12:14:38.237,-4.9375,-20.7501
12:14:38.250,-5.625,-23.2501
12:14:38.258,-5.8125,-25.0626
12:14:38.267,-6.6875,-26.4376
12:14:38.285,-6.9375,-28.8751
12:14:38.288,-7.375,-29.8751
12:14:38.302,-7.9375,-31.1876
12:14:38.307,-8.125,-34.1251
12:14:38.317,-8.1875,-34.8126
12:14:38.327,-8.75,-35.5001
12:14:38.338,-8.875,-37.1251
12:14:38.347,-9.75,-36.9376
12:14:38.357,-9.3125,-39.6252
12:14:38.367,-10.25,-40.7502
12:14:38.384,-9.9375,-41.7502
12:14:38.388,-10.5625,-42.6252
12:14:38.419,-11.125,-44.5002
12:14:38.422,-11,-44.5627
12:14:38.425,-11.625,-46.5002
12:14:38.428,-11.625,-46.3127
12:14:38.460,-11.9375,-47.3127
12:14:38.462,-12.1875,-48.1252
12:14:38.464,-11.5625,-48.9377
12:14:38.471,-12.375,-49.3127
12:14:38.484,-12.1875,-50.6877
12:14:38.489,-13.1251,-51.0002
12:14:38.520,-12.9375,-51.4377
12:14:38.523,-12.875,-51.5627
12:14:38.524,-12.625,-49.8752
12:14:38.530,-11.4375,-45.6877
12:14:38.556,-9,-35.9376
12:14:38.558,-5.625,-19.4376
12:14:38.561,1.8125,1.8125
12:14:38.568,6.0625,18.8751
12:14:38.577,9.5625,29.8751
12:14:38.588,12.4375,38.1251
12:14:38.597,14.9376,44.5627
12:14:38.608,16.5626,48.3752
12:14:38.624,16.8126,52.4377
12:14:38.628,18.6251,54.5627
12:14:38.637,18.3751,54.5002
12:14:38.647,18.6876,56.3127
12:14:38.657,18.7501,55.3752
12:14:38.668,18.6251,56.6252
12:14:38.677,19.0001,56.4377
12:14:38.688,19.4376,56.7502
12:14:38.698,19.1876,55.0002
12:14:38.707,18.5001,54.7502
12:14:38.717,18.3126,54.2502
12:14:38.727,19.0001,52.5627
12:14:38.737,17.6251,49.8127
12:14:38.747,15.8126,48.5002
12:14:38.757,15.8751,43.9377
12:14:38.767,14.3751,41.2502
12:14:38.777,13.9376,36.5001
12:14:38.789,11.5625,33.4376
12:14:38.797,10.25,29.0626
12:14:38.807,9.8125,25.4376
12:14:38.817,9.1875,23.9376
12:14:38.827,8.875,21.5001
12:14:38.837,8.25,21.3126
12:14:38.848,7.75,19.0626
12:14:38.857,7.9375,18.8126
12:14:38.867,7.375,17.3751
12:14:38.878,7.5625,16.9376
12:14:38.887,8,16.1876
12:14:38.897,5.8125,14.5001
12:14:38.907,6.375,13
12:14:38.917,5.3125,12.625
12:14:38.927,6.1875,10.5
12:14:38.937,4.4375,9.125
12:14:38.947,4.1875,6.3125
12:14:38.957,2.4375,4.5
12:14:38.968,2.625,2.375
12:14:38.977,1.75,-1.375
12:14:38.988,1.375,-3.25
12:14:39.002,-0.5625,-5.875
12:14:39.007,-0.0625,-8.375
12:14:39.017,-1.3125,-10.4375
12:14:39.027,-2,-12.75
12:14:39.037,-2.5,-15.8126
12:14:39.047,-4,-18.1251
12:14:39.058,-3.9375,-20.4376
12:14:39.067,-4.875,-22.3751
12:14:39.083,-4.625,-24.6876
12:14:39.098,-5.75,-26.2501
12:14:39.101,-6.8125,-28.5001
12:14:39.107,-7.375,-31.1251
12:14:39.117,-7.4375,-32.6876
12:14:39.127,-7.5625,-34.0626
12:14:39.137,-8.0625,-35.1251
12:14:39.148,-9.3125,-38.2501
12:14:39.157,-9.1875,-39.0626
12:14:39.167,-10.125,-40.1877
12:14:39.177,-10,-41.5627
12:14:39.203,-10.5625,-42.1252
12:14:39.206,-10.875,-43.6877
12:14:39.209,-11.5625,-44.3127
12:14:39.239,-10.75,-45.1252
12:14:39.241,-11.4375,-45.5002
12:14:39.243,-12.0625,-46.5627
12:14:39.248,-12.375,-48.5627
12:14:39.280,-12.8125,-48.8752
12:14:39.283,-12.625,-49.8127
12:14:39.284,-12.625,-48.8752
12:14:39.290,-12.3125,-50.3127
12:14:39.317,-13.0625,-50.5627
12:14:39.320,-12.375,-50.5002
12:14:39.323,-12.375,-50.8127
12:14:39.329,-12.4375,-51.4377
12:14:39.352,-12.75,-51.1877
12:14:39.355,-13.0625,-51.1252
12:14:39.361,-12.625,-49.1877
12:14:39.367,-11.1875,-45.4377
12:14:39.381,-9.25,-35.1251
12:14:39.387,-4.0625,-16.6876
12:14:39.397,2.0625,3.25
12:14:39.407,7.375,21.4376
12:14:39.418,10.9375,33.0001
12:14:39.427,13.5001,41.8752
12:14:39.437,16.0626,48.4377
12:14:39.447,17.4376,53.9377
12:14:39.457,18.6876,56.1877
12:14:39.467,19.5626,59.4377
12:14:39.477,20.1876,59.4377
12:14:39.487,21.3126,60.9377
12:14:39.497,20.6876,60.9377
12:14:39.508,20.5001,61.7502
12:14:39.517,21.3751,62.0627
12:14:39.527,20.9376,62.1252
12:14:39.538,22.0626,61.3127
12:14:39.547,21.3126,61.6252
12:14:39.557,21.8751,61.5002
12:14:39.567,20.9376,59.8752
12:14:39.587,20.0001,57.8127
12:14:39.599,19.9376,56.6252
12:14:39.602,18.8126,53.1877
12:14:39.608,17.9376,49.6877
12:14:39.617,16.1251,46.3752
12:14:39.627,15.0001,41.5002
12:14:39.637,13.6876,37.1251
12:14:39.647,12.9375,34.0626
12:14:39.657,11.25,31.4376
12:14:39.668,11.4375,28.8751
12:14:39.699,9.8125,26.3751
12:14:39.702,10.3125,24.3751
12:14:39.705,8.75,23.1251
12:14:39.707,9,22.6876
12:14:39.717,8.0625,21.7501
12:14:39.727,8.0625,20.0626
12:14:39.737,7.375,18.2501
12:14:39.752,6.625,15.5626
12:14:39.757,6.25,15.3751
12:14:39.767,5.875,12.8125
12:14:39.778,5.4375,11.75
12:14:39.787,5.1875,9.5
12:14:39.797,4.25,7.5
12:14:39.807,4.3125,5.6875
12:14:39.817,2.6875,3.625
12:14:39.828,1.75,0.8125
12:14:39.837,1.8125,-3.1875
12:14:39.847,0.25,-4.4375
12:14:39.857,0.1875,-7.75
12:14:39.868,-1.0625,-11.1875
12:14:39.877,-2.3125,-13.6876
12:14:39.887,-2.875,-15.1876
12:14:39.897,-2.875,-17.9376
12:14:39.919,-3.9375,-20.6876
12:14:39.923,-4.8125,-21.9376
12:14:39.928,-5.375,-24.6876
12:14:39.959,-6.0625,-28.3126
12:14:39.961,-7.25,-29.9376
12:14:39.963,-8,-30.5626
12:14:39.968,-7.75,-33.1251
12:14:39.996,-8.625,-36.7501
12:14:39.999,-8.9375,-37.8751
12:14:40.001,-8.6875,-38.8126
12:14:40.031,-9.75,-40.9377
12:14:40.033,-10.125,-40.6877
12:14:40.035,-10.6875,-43.9377
12:14:40.043,-10.75,-44.3752
12:14:40.049,-10.8125,-45.1877
12:14:40.086,-12.1875,-45.8127
12:14:40.087,-12.125,-48.0002
12:14:40.091,-12.3125,-49.0627
12:14:40.094,-12.6875,-49.5002
12:14:40.098,-12.8125,-51.5002
12:14:40.108,-12.9375,-50.0627
12:14:40.117,-12.25,-51.5627
12:14:40.127,-12.375,-51.5002
12:14:40.139,-12.9375,-52.7502
12:14:40.148,-12.9375,-52.3752
12:14:40.159,-13.5001,-53.3127
12:14:40.168,-13.3751,-52.6252
12:14:40.177,-13.5626,-53.6877
12:14:40.187,-12.875,-53.7502
12:14:40.197,-13.8751,-54.5002
12:14:40.207,-14.0001,-53.0002
12:14:40.217,-14.0626,-53.6877
12:14:40.228,-14.1251,-53.3127
12:14:40.238,-13.5626,-54.1877
12:14:40.247,-12.875,-49.6252
12:14:40.257,-12.1875,-45.3127
12:14:40.267,-8.3125,-31.6251
12:14:40.277,-3.0625,-10.9375
12:14:40.287,3.75,8.4375
12:14:40.297,7.6875,24.6876
12:14:40.307,10.9375,34.5626
12:14:40.318,14.8751,43.4377
12:14:40.327,15.0626,49.6252
12:14:40.337,17.2501,51.5002
12:14:40.347,17.8751,54.7502
12:14:40.357,18.2501,56.3127
12:14:40.377,18.3751,56.5627
12:14:40.380,18.7501,57.1877
12:14:40.394,19.3126,56.0627
12:14:40.397,19.0626,57.1877
12:14:40.409,18.6876,58.3127
12:14:40.417,18.7501,56.3127
12:14:40.427,19.5001,56.2502
12:14:40.437,18.2501,54.9377
12:14:40.448,19.1251,55.1877
12:14:40.457,17.5001,53.7502
12:14:40.468,17.5626,51.6252
12:14:40.477,16.9376,48.1877
12:14:40.487,15.1876,46.3127
12:14:40.498,14.4376,41.1877
12:14:40.511,12.875,37.8126
12:14:40.517,12.4375,32.9376
12:14:40.527,10.375,29.4376
12:14:40.557,9.8125,25.7501
12:14:40.560,8.875,22.7501
12:14:40.562,7.8125,21.1876
12:14:40.567,7.8125,18.8751
12:14:40.600,6.5,16.9376
12:14:40.602,6.6875,15.5001
12:14:40.604,5.9375,14.5001
12:14:40.607,5.875,13.3126
12:14:40.637,5.625,12.625
12:14:40.641,5.25,10.5
12:14:40.642,4.125,9.5625
12:14:40.668,4.125,7.6875
12:14:40.671,3,5.875
12:14:40.674,3.1875,5.5
12:14:40.682,1.9375,2.1875
12:14:40.695,1.0625,-0.6875
12:14:40.697,0.5,-2.875
12:14:40.716,-0.25,-5.375
12:14:40.719,-1.1875,-8.25
12:14:40.727,-2.3125,-11.4375
12:14:40.737,-3.125,-13.7501
12:14:40.748,-3.5,-16.7501
12:14:40.757,-3.875,-19.1876
12:14:40.768,-5.25,-21.5626
12:14:40.777,-4.75,-24.1876
12:14:40.787,-6.375,-27.1876
12:14:40.797,-7.3125,-29.6251
12:14:40.807,-7.1875,-31.4376
12:14:40.817,-8.1875,-33.5626
12:14:40.827,-9.125,-35.0001
12:14:40.837,-9.4375,-35.9376
12:14:40.847,-9.625,-39.1252
12:14:40.858,-10.5,-41.3752
12:14:40.879,-10.625,-41.4377
12:14:40.885,-11.4375,-43.8127
12:14:40.889,-11.125,-43.8127
12:14:40.902,-10.8125,-43.3127
12:14:40.908,-10.6875,-42.8127
12:14:40.917,-9.8125,-42.8127
12:14:40.927,-8.5,-40.0002
12:14:40.937,-7.3125,-38.1876
12:14:40.948,-6.25,-36.2501
12:14:40.981,-5.625,-34.4376
12:14:40.983,-3.3125,-30.8751
12:14:40.985,-2.5625,-28.1251
12:14:40.991,0.8125,-25.6251
12:14:41.000,2,-20.8126
12:14:41.007,2,-17.3751
12:14:41.017,1.75,-19.1876
12:14:41.027,1.75,-20.7501
12:14:41.038,0.5625,-21.8751
12:14:41.047,0.8125,-22.4376
12:14:41.057,-0.25,-22.6876
12:14:41.067,-0.1875,-23.1251
12:14:41.077,-0.25,-23.8751
12:14:41.087,-1.375,-24.0001
12:14:41.097,-1.0625,-25.5626
12:14:41.107,-2.1875,-23.6876
12:14:41.117,-1.875,-25.5626
12:14:41.126,-1.4375,-24.3126
12:14:41.138,-1.875,-20.8751
12:14:41.147,1.6875,-10.5
12:14:41.156,5.1875,6.0625
12:14:41.167,10.125,22.8126
12:14:41.177,13.3751,34.8751
12:14:41.188,16.7501,44.6252
12:14:41.197,19.3126,51.9377
12:14:41.207,21.3126,58.5627
12:14:41.219,22.3751,63.0002
12:14:41.226,22.9376,62.8127
12:14:41.237,23.8126,64.8127
12:14:41.252,23.8126,67.0628
12:14:41.258,24.8126,66.8128
12:14:41.267,24.4376,68.5003
12:14:41.277,24.5626,66.8753
12:14:41.288,24.7501,67.5628
12:14:41.297,24.0626,66.6253
12:14:41.308,24.1251,65.8753
12:14:41.317,23.8126,64.3127
12:14:41.327,23.1251,62.6877
12:14:41.339,22.0626,61.4377
12:14:41.348,21.4376,58.1252
12:14:41.379,19.5001,54.5002
12:14:41.382,19.1876,52.0002
12:14:41.385,17.2501,48.3752
12:14:41.387,16.5001,45.8127
12:14:41.421,16.3751,43.1252
12:14:41.422,14.8751,41.8752
12:14:41.425,14.7501,38.7501
12:14:41.427,13.2501,38.3126
12:14:41.462,13.3126,35.5001
12:14:41.463,12.625,34.8751
12:14:41.467,11.875,32.8751
12:14:41.473,11.25,30.6876
12:14:41.477,10.0625,30.9376
12:14:41.515,10.8125,29.3126
12:14:41.516,9.625,26.7501
12:14:41.519,8.4375,25.5626
12:14:41.521,7.75,23.6876
12:14:41.529,7.8125,20.6251
12:14:41.537,6.4375,18.1251
12:14:41.548,5.5625,16.3126
12:14:41.557,4.875,13
12:14:41.567,3.9375,11.375
12:14:41.578,3.375,9.1875
12:14:41.588,3.4375,6.25
12:14:41.597,1.875,3.125
12:14:41.608,0.9375,1.875
12:14:41.617,1.125,-0.125
12:14:41.627,-0.0625,-2.5
12:14:41.637,-1,-5.3125
12:14:41.647,-1.4375,-6.5
12:14:41.656,-1.875,-8.875
12:14:41.675,-2.125,-10.9375
12:14:41.677,-2.8125,-13.3751
12:14:41.692,-3.4375,-13.8126
12:14:41.698,-3.8125,-14.6251
12:14:41.706,-3.375,-16.5001
12:14:41.716,-4.3125,-18.3126
12:14:41.727,-5.0625,-18.3126
12:14:41.737,-4.1875,-20.8126
12:14:41.747,-5.25,-22.3126
12:14:41.759,-5.875,-22.5626
12:14:41.766,-5.375,-23.5001
12:14:41.778,-6.125,-24.8751
12:14:41.787,-6.1875,-25.1251
12:14:41.797,-6.625,-25.9376
12:14:41.806,-6.5625,-26.5001
12:14:41.817,-6.125,-26.6876
12:14:41.827,-6.75,-27.8751
12:14:41.836,-7.1875,-29.0626
12:14:41.848,-7.875,-29.6251
12:14:41.857,-7.5,-31.2501
12:14:41.866,-7.25,-30.5626
12:14:41.877,-7.8125,-30.6251
12:14:41.886,-8.1875,-32.3126
12:14:41.896,-7.5,-31.9376
12:14:41.907,-7.625,-30.7501
12:14:41.917,-7.875,-32.5626
12:14:41.928,-8.125,-32.5626
12:14:41.938,-8.8125,-30.2501
12:14:41.946,-5.75,-24.3751
12:14:41.957,-2.1875,-10.625
12:14:41.967,3.3125,5.6875
12:14:41.977,5.9375,19.5001
12:14:41.986,9.375,29.8751
12:14:42.002,12.8125,39.6877
12:14:42.006,15.5626,48.5627
12:14:42.017,17.1251,52.0002
12:14:42.028,19.1251,56.5627
12:14:42.037,19.7501,59.3752
12:14:42.048,20.5001,60.8752
12:14:42.057,20.8751,63.3752
12:14:42.067,21.3126,62.1877
12:14:42.083,22.0001,63.3127
12:14:42.113,20.6876,64.6877
12:14:42.116,21.4376,62.6252
12:14:42.119,22.1876,62.9377
12:14:42.122,21.3126,62.4377
12:14:42.152,21.1876,61.0627
12:14:42.155,19.8126,60.3127
12:14:42.157,21.1876,58.8127
12:14:42.164,20.0626,57.7502
12:14:42.202,18.8126,55.7502
12:14:42.203,18.2501,51.6252
12:14:42.206,15.9376,48.9377
12:14:42.213,16.3126,44.3127
12:14:42.217,15.1251,41.6252
12:14:42.223,14.5001,38.5626
12:14:42.262,12.5625,36.0626
12:14:42.264,11.6875,33.3751
12:14:42.265,11.0625,31.1876
12:14:42.267,11,28.5001
12:14:42.274,9.875,26.1876
12:14:42.281,8.1875,25.5626
12:14:42.293,8.5625,23.3126
12:14:42.301,7.625,21.9376
12:14:42.311,7.6875,20.1876
12:14:42.322,6.6875,20.6876
12:14:42.331,6.375,17.7501
12:14:42.341,5.9375,15.9376
12:14:42.352,5.3125,13.6251
12:14:42.361,5,11.3125
12:14:42.375,3.9375,8.5
12:14:42.384,2.0625,7.5625
12:14:42.392,2.4375,3.375
12:14:42.401,0.9375,1.125
12:14:42.410,0.625,-0.625
12:14:42.422,-0.4375,-3.375
12:14:42.431,-1.875,-6.75
12:14:42.442,-2.375,-9.125
12:14:42.451,-2.6875,-10.25
12:14:42.462,-2.9375,-13.3126
12:14:42.472,-4.1875,-15.1876
12:14:42.483,-5.8125,-17.0626
12:14:42.491,-5.375,-19.3126
12:14:42.501,-5.9375,-22.1251
12:14:42.511,-6.5,-22.8751
12:14:42.522,-6.3125,-24.3751
12:14:42.531,-7.5,-26.8751
12:14:42.541,-7.625,-28.4376
12:14:42.551,-7.875,-28.4376
12:14:42.561,-7.5,-30.0626
12:14:42.571,-8.3125,-31.4376
12:14:42.581,-9.5,-31.3126
12:14:42.592,-9,-33.5001
12:14:42.602,-9.375,-33.3751
12:14:42.611,-9.1875,-36.3126
12:14:42.621,-9.8125,-35.5626
12:14:42.630,-9.75,-38.0001
12:14:42.641,-10.625,-37.6876
12:14:42.651,-10.0625,-39.7502
12:14:42.661,-10.1875,-39.5627
12:14:42.671,-9.625,-39.5627
12:14:42.682,-11,-40.9377
12:14:42.691,-10.9375,-41.9377
12:14:42.701,-10.5,-40.3752
12:14:42.711,-10.375,-41.3127
12:14:42.721,-9.625,-38.0626
12:14:42.731,-8.5,-32.6876
12:14:42.741,-4.1875,-20.4376
12:14:42.753,-0.625,-3.375
12:14:42.761,3.8125,11.1875
12:14:42.770,7.6875,21.3751
12:14:42.780,9.75,30.3126
12:14:42.792,11.75,35.3126
12:14:42.802,13.6251,40.6252
12:14:42.811,15.0001,43.7502
12:14:42.828,16.3751,46.6877
12:14:42.831,16.7501,49.2502
12:14:42.864,16.8751,50.3752
12:14:42.865,17.5001,50.7502
12:14:42.868,18.0001,53.1252
12:14:42.876,18.1876,51.1252
12:14:42.901,17.8126,51.5627
12:14:42.903,17.6876,51.0002
12:14:42.907,18.2501,50.6877
12:14:42.913,17.2501,50.4377
12:14:42.928,17.3751,48.7502
12:14:42.933,17.0626,47.5627
12:14:42.964,16.0001,45.2502
12:14:43.003,15.5001,42.4377
12:14:43.003,14.1876,39.0001
12:14:43.006,13.1876,36.5001
12:14:43.015,12.4375,32.8751
12:14:43.015,11,30.8751
12:14:43.015,11.0625,27.3751
12:14:43.019,10.125,25.5001
12:14:43.027,10.25,24.0626
12:14:43.036,9.25,23.5001
12:14:43.047,9.6875,23.6876
12:14:43.055,9.25,22.8751
12:14:43.066,9.1875,23.3126
12:14:43.076,9.3125,22.8126
12:14:43.085,8,20.5626
12:14:43.097,7.875,20.8751
12:14:43.106,8.1875,19.7501
12:14:43.116,7.875,17.2501
12:14:43.127,6.6875,15.6251
12:14:43.136,5.9375,15.1876
12:14:43.145,5.25,13.8126
12:14:43.156,5.1875,11.4375
12:14:43.165,4.6875,9.5
12:14:43.177,3.1875,6
12:14:43.187,2.9375,3.875
12:14:43.196,1.75,0.8125
12:14:43.206,0.5,-0.5625
12:14:43.216,0.0625,-3.1875
12:14:43.226,-0.375,-6.125
12:14:43.236,-1.4375,-8.1875
12:14:43.246,-2.625,-8.6875
12:14:43.256,-2.5625,-11.5625
12:14:43.266,-3.6875,-15.5626
12:14:43.277,-4.8125,-16.5001
12:14:43.285,-4.75,-19.1251
12:14:43.296,-5.8125,-21.8751
12:14:43.307,-6.375,-24.6251
12:14:43.317,-6.875,-25.6251
12:14:43.325,-8.3125,-28.6876
12:14:43.336,-8.8125,-29.2501
12:14:43.346,-8.8125,-31.6876
12:14:43.356,-9.8125,-33.9376
12:14:43.366,-10.5625,-34.0001
12:14:43.378,-10.5,-37.3126
12:14:43.386,-11.125,-37.0001
12:14:43.396,-11.0625,-39.2501
12:14:43.406,-11.625,-38.8751
12:14:43.416,-11,-41.6252
12:14:43.427,-12.375,-41.4377
12:14:43.437,-11.6875,-42.9377
12:14:43.447,-12.6875,-41.9377
12:14:43.456,-11.8125,-43.9377
12:14:43.480,-12.125,-43.7502
12:14:43.482,-11.1875,-38.5626
12:14:43.503,-7.75,-29.1251
12:14:43.507,-3.1875,-11.625
12:14:43.542,1.4375,3.5
12:14:43.544,5.125,13.125
12:14:43.548,8.4375,24.2501
12:14:43.548,11.1875,33.5001
12:14:43.552,13.3126,39.3127
12:14:43.561,15.9376,44.8752
12:14:43.590,17.5626,48.5002
12:14:43.591,17.6251,50.7502
12:14:43.593,18.8751,52.9377
12:14:43.632,19.9376,56.1252
12:14:43.634,20.3126,57.0627
12:14:43.636,21.2501,57.6877
12:14:43.641,20.8126,58.8127
12:14:43.642,21.3751,59.1252
12:14:43.651,21.4376,61.1877
12:14:43.680,22.3126,60.0627
12:14:43.682,22.4376,60.6252
12:14:43.684,21.9376,60.1252
12:14:43.692,21.5626,59.3127
12:14:43.721,20.8126,57.6877
12:14:43.722,20.8126,54.5627
12:14:43.724,19.3751,51.1252
12:14:43.732,18.2501,48.5002
12:14:43.742,16.9376,45.5627
12:14:43.751,16.2501,42.5002
12:14:43.761,15.3751,39.6877
12:14:43.771,15.0001,37.7501
12:14:43.781,14.2501,35.1876
12:14:43.791,14.6251,35.2501
12:14:43.800,14.8751,34.4376
12:14:43.811,13.5001,33.4376
12:14:43.821,14.5001,32.4376
12:14:43.831,13.5626,31.6876
12:14:43.841,12.75,31.1251
12:14:43.851,12.875,29.8126
12:14:43.861,11.75,29.0001
12:14:43.877,12,27.2501
12:14:43.882,11.625,25.8126
12:14:43.891,10.4375,25.8751
12:14:43.901,11.0625,22.4376
12:14:43.911,9.4375,19.3751
12:14:43.921,9.1875,18.8751
12:14:43.931,8.9375,16.0001
12:14:43.941,7.375,13.6251
12:14:43.951,6.0625,12.25
12:14:43.960,6,8.5625
12:14:43.971,5.25,5.5
12:14:43.981,4.25,4.3125
12:14:43.991,3.0625,2.625
12:14:44.001,3.5625,0.125
12:14:44.011,2.6875,-2.6875
12:14:44.021,1.8125,-3.1875
12:14:44.032,1.5,-4.5625
12:14:44.041,0.8125,-6.6875
12:14:44.051,0.3125,-8.875
12:14:44.060,-0.375,-10.25
12:14:44.071,-0.8125,-11.8125
12:14:44.081,-1.4375,-14.5001
12:14:44.090,-2.0625,-15.6251
12:14:44.101,-2.6875,-16.6251
12:14:44.111,-2.5625,-18.1876
12:14:44.121,-3.0625,-20.4376
12:14:44.131,-4,-22.4376
12:14:44.141,-4.375,-22.6876
12:14:44.152,-4.25,-25.2501
12:14:44.160,-5.25,-27.6251
12:14:44.170,-5.8125,-27.5001
12:14:44.181,-5.9375,-31.2501
12:14:44.191,-7.5,-33.1876
12:14:44.201,-7.625,-33.5626
12:14:44.229,-7.6875,-35.8751
12:14:44.231,-8,-36.7501
12:14:44.233,-9.125,-37.1251
12:14:44.264,-9.25,-37.4376
12:14:44.304,-8,-33.5626
12:14:44.306,-5.25,-25.6251
12:14:44.333,-1.75,-11.625
12:14:44.363,2.625,2.375
12:14:44.363,5.875,12.8125
12:14:44.363,9.5625,23.0626
12:14:44.363,12.625,32.0001
12:14:44.396,14.5001,38.1251
12:14:44.399,17.1251,44.1252
12:14:44.405,17.5001,48.1252
12:14:44.405,19.1251,50.8127
12:14:44.406,20.3126,53.3752
12:14:44.416,20.4376,56.1877
12:14:44.426,21.1876,56.8127
12:14:44.436,21.9376,59.7502
12:14:44.446,22.0001,59.6252
12:14:44.456,22.6251,59.7502
12:14:44.465,22.3126,61.9377
12:14:44.475,23.0001,61.6252
12:14:44.486,22.9376,61.9377
12:14:44.496,23.6876,62.2502
12:14:44.506,22.6251,60.9377
12:14:44.516,13.8126,33.5626
12:14:44.525,20.3751,51.3127
12:14:44.536,19.8126,48.6877
12:14:44.546,18.2501,44.8127
12:14:44.556,17.9376,42.6877
12:14:44.566,16.3126,40.0002
12:14:44.576,16.6251,37.0626
12:14:44.586,15.5626,37.1876
12:14:44.596,15.3751,36.1251
12:14:44.606,15.1251,34.2501
12:14:44.616,14.6876,33.4376
12:14:44.626,14.8751,32.0626
12:14:44.635,13.3126,31.0626
12:14:44.646,13.2501,29.5001
12:14:44.656,12.875,28.1251
12:14:44.665,11.6875,27.1876
12:14:44.676,11.1875,25.0626
12:14:44.686,10.75,23.1876
12:14:44.696,10.4375,21.0626
12:14:44.705,9.1875,18.4376
12:14:44.716,8.5,18.1876
12:14:44.726,8.4375,14.3126
12:14:44.737,7.625,12.4375
12:14:44.746,6.5625,9.8125
12:14:44.755,6,9.8125
12:14:44.772,6.125,6.5
12:14:44.778,4.875,4.5
12:14:44.795,4.4375,2.5
12:14:44.824,3.5,1.9375
12:14:44.826,3.6875,-0.25
12:14:44.842,2.625,-2.875
12:14:44.849,1.75,-4.25
12:14:44.849,1.25,-4.9375
12:14:44.849,1.5,-7.4375
12:14:44.856,1.125,-9.25
12:14:44.865,0.3125,-11.5
12:14:44.876,-0.0625,-12.5
12:14:44.886,-0.5,-11.9375
12:14:44.896,-0.375,-13.9376
12:14:44.905,-1.4375,-16.3126
12:14:44.915,-1.8125,-18.3751
12:14:44.926,-3.3125,-18.7501
12:14:44.936,-3.375,-19.0001
12:14:44.946,-3,-21.3751
12:14:44.956,-2.8125,-23.1251
12:14:44.965,-4.0625,-24.6876
12:14:44.976,-4.875,-26.8126
12:14:44.986,-5.4375,-28.4376
12:14:44.996,-6.25,-30.3126
12:14:45.005,-6.625,-31.3126
12:14:45.033,-6.125,-31.7501
12:14:45.037,-6.875,-33.5001
12:14:45.039,-7.6875,-31.3751
12:14:45.069,-6.0625,-30.2501
12:14:45.071,-4.1875,-22.6876
12:14:45.073,-0.25,-10
12:14:45.079,3.1875,1.9375
12:14:45.106,6.75,14.8751
12:14:45.108,10.125,24.7501
12:14:45.110,13.125,33.7501
12:14:45.141,15.8126,40.5627
12:14:45.144,18.0001,46.7502
12:14:45.146,18.9376,51.2502
12:14:45.152,19.5001,54.5002
12:14:45.165,21.0626,56.5627
12:14:45.168,20.6876,56.8127
12:14:45.198,22.0001,58.7502
12:14:45.200,20.9376,60.3752
12:14:45.202,22.3751,59.9377
12:14:45.209,22.0001,60.1252
12:14:45.217,21.9376,60.7502
12:14:45.225,22.2501,60.3752
12:14:45.236,21.0626,59.3752
12:14:45.245,21.5001,58.5627
12:14:45.256,20.6876,57.8127
12:14:45.266,20.6251,56.1877
12:14:45.275,19.1876,51.8752
12:14:45.286,18.1251,50.7502
12:14:45.296,17.3751,46.1877
12:14:45.306,16.0626,42.9377
12:14:45.316,15.2501,40.1252
12:14:45.326,14.6876,38.1251
12:14:45.336,13.5626,36.0626
12:14:45.346,13.125,34.5001
12:14:45.356,13,32.8126
12:14:45.367,12.6875,31.1876
12:14:45.376,12.3125,31.3126
12:14:45.386,12.375,30.1251
12:14:45.396,12.375,29.1251
12:14:45.406,12,28.2501
12:14:45.416,11.0625,27.1251
12:14:45.425,10.9375,26.3126
12:14:45.436,10.6875,24.6251
12:14:45.445,9.8125,23.3126
12:14:45.456,9.5,23.0626
12:14:45.467,9.25,20.3126
12:14:45.476,8.625,19.5626
12:14:45.486,8.1875,17.6876
12:14:45.496,7.5,16.0626
12:14:45.506,7.1875,15.0001
12:14:45.516,6.5625,12.375
12:14:45.526,5.75,9.6875
12:14:45.536,5.0625,7.875
12:14:45.546,4.3125,7.5625
12:14:45.555,4.5625,5.25
12:14:45.566,3.75,2.875
12:14:45.580,2.375,0.375
12:14:45.587,2.1875,-0.75
12:14:45.595,2.75,-2.6875
12:14:45.606,1.25,-5.0625
12:14:45.616,0.5,-6.25
12:14:45.626,-0.6875,-6.8125
12:14:45.647,-0.4375,-9.75
12:14:45.648,-0.1875,-11.875
12:14:45.663,-1.5,-13.7501
12:14:45.665,-2.625,-13.8751
12:14:45.676,-1.6875,-15.3751
12:14:45.711,-2.4375,-16.8751
12:14:45.713,-3.0625,-18.1876
12:14:45.714,-3.875,-18.6251
12:14:45.723,-3.5625,-20.3126
12:14:45.737,-4,-21.3751
12:14:45.739,-4.8125,-22.6876
12:14:45.775,-4.9375,-23.1251
12:14:45.777,-4.8125,-25.1876
12:14:45.778,-6.9375,-26.6876
12:14:45.781,-7.1875,-27.6876
12:14:45.788,-6.625,-29.3751
12:14:45.824,-6.75,-32.3126
12:14:45.825,-7.9375,-33.0001
12:14:45.827,-9.25,-34.0001
12:14:45.830,-9.5,-35.9376
12:14:45.836,-9.8125,-38.4376
12:14:45.845,-9.625,-38.1251
12:14:45.856,-9.625,-37.6876
12:14:45.865,-9.4375,-35.1251
12:14:45.876,-7.1875,-27.2501
12:14:45.885,-3.25,-15.4376
12:14:45.895,1.3125,-1.9375
12:14:45.906,5.25,11.8125
12:14:45.916,8.3125,21.8126
12:14:45.926,11.4375,31.7501
12:14:45.936,14.5001,39.6877
12:14:45.946,16.3126,45.6877
12:14:45.955,18.3126,50.3127
12:14:45.965,18.3751,53.3752
12:14:45.975,19.2501,56.8752
12:14:45.986,20.5626,58.5627
12:14:45.996,21.2501,59.5002
12:14:46.006,21.3126,61.0002
12:14:46.016,21.1251,61.4377
12:14:46.026,22.0626,62.9377
12:14:46.035,22.4376,62.5627
12:14:46.047,23.1876,63.9377
12:14:46.056,22.7501,63.5002
12:14:46.066,21.7501,64.0627
12:14:46.076,22.4376,63.0002
12:14:46.103,21.9376,60.8752
12:14:46.105,20.9376,58.3752
12:14:46.107,19.8751,57.3752
12:14:46.124,18.6876,53.5627
12:14:46.131,17.5001,50.4377
12:14:46.146,16.5001,47.1877
12:14:46.154,15.6251,42.6877
12:14:46.161,14.1251,40.0002
12:14:46.170,13.6251,37.5626
12:14:46.180,12.4375,34.9376
12:14:46.191,11.8125,33.6876
12:14:46.201,11.8125,30.5001
12:14:46.211,10.6875,29.8126
12:14:46.220,10,29.5626
12:14:46.231,9.6875,26.5626
12:14:46.241,9.3125,26.3126
12:14:46.251,9.0625,25.1876
12:14:46.260,8.875,22.6251
12:14:46.270,7.3125,22.1876
12:14:46.281,7.1875,20.5001
12:14:46.291,6.8125,18.5001
12:14:46.300,5.8125,16.6251
12:14:46.311,5,15.1251
12:14:46.321,4.25,14.3126
12:14:46.332,4.25,11.0625
12:14:46.342,3.125,8
12:14:46.351,2.5625,7.625
12:14:46.360,1.75,5.125
12:14:46.371,1.125,1.75
12:14:46.381,-0.5,-0.3125
12:14:46.391,-1.4375,-2.5625
12:14:46.400,-2.25,-5.625
12:14:46.410,-6.5625,-15.2501
12:14:46.421,-7,-18.5001
12:14:46.430,-9,-22.6251
12:14:46.441,-9.5,-26.5001
12:14:46.458,-10.6875,-30.3751
12:14:46.461,-11.375,-30.7501
12:14:46.496,-10.75,-30.8126
12:14:46.499,-10.25,-31.1251
12:14:46.501,-11,-32.0626
12:14:46.504,-11.5625,-32.4376
12:14:46.543,-12.5,-34.1876
12:14:46.545,-11.875,-37.0001
12:14:46.550,-14.3751,-40.1252
12:14:46.553,-15.2501,-41.5627
12:14:46.554,-15.5626,-44.6252
12:14:46.564,-16.2501,-46.1877
12:14:46.593,-17.3126,-47.7502
12:14:46.596,-17.2501,-49.5627
12:14:46.598,-18.0001,-51.3127
12:14:46.601,-17.5626,-52.3127
12:14:46.629,-19.2501,-53.9377
12:14:46.632,-19.4376,-55.8752
12:14:46.635,-20.3126,-57.1877
12:14:46.641,-19.8126,-59.2502
12:14:46.650,-20.5001,-58.9377
12:14:46.660,-20.8126,-61.1877
12:14:46.671,-19.6251,-60.8752
12:14:46.681,-21.2501,-61.6252
12:14:46.691,-19.9376,-61.4377
12:14:46.700,-19.9376,-58.0627
12:14:46.715,-16.5001,-47.7502
12:14:46.721,-11.625,-32.1876
12:14:46.731,-8.125,-14.7501
12:14:46.741,-3.9375,-3.6875
12:14:46.750,-0.4375,7.9375
12:14:46.761,2.5625,15.3126
12:14:46.770,5.5625,22.3126
12:14:46.780,5.8125,28.0001
12:14:46.791,7.9375,30.6251
12:14:46.801,8.1875,33.7501
12:14:46.811,8.75,35.5001
12:14:46.821,10.0625,36.8751
12:14:46.831,9.5,38.9376
12:14:46.840,10.375,38.1251
12:14:46.850,10.5,39.4377
12:14:46.861,10.625,39.2501
12:14:46.871,10.8125,39.8752
12:14:46.880,10.6875,40.1252
12:14:46.891,10.9375,39.1252
12:14:46.901,10.8125,38.1251
12:14:46.911,9.5,37.3751
12:14:46.920,9.25,35.6251
12:14:46.932,8.4375,31.8751
12:14:46.949,6.875,28.1876
12:14:46.951,7,23.5626
12:14:46.965,5.5625,20.4376
12:14:46.974,4.5,16.8751
12:14:46.980,2.75,14.3751
12:14:46.991,2.4375,11.125
12:14:47.000,1.5,8.875
12:14:47.011,1,7.0625
12:14:47.020,0.375,5.875
12:14:47.031,0.3125,5.1875
12:14:47.040,0.4375,2.5625
12:14:47.051,-0.5,2.4375
12:14:47.061,-0.8125,0.6875
12:14:47.070,-1.125,-0.75
12:14:47.081,-1.4375,-1.3125
12:14:47.091,-0.9375,-2.8125
12:14:47.100,-1.1875,-3.75
12:14:47.110,-2,-5.75
12:14:47.121,-2.6875,-6.8125
12:14:47.131,-2.75,-8.25
12:14:47.140,-2.5,-11
12:14:47.150,-3.6875,-14.2501
12:14:47.161,-4.9375,-14.1876
12:14:47.171,-5.0625,-17.3126
12:14:47.181,-5.8125,-19.8126
12:14:47.191,-6.625,-22.5626
12:14:47.218,-6.3125,-25.0626
12:14:47.221,-7.75,-28.4376
12:14:47.223,-8.75,-30.1251
12:14:47.258,-9.4375,-32.1251
12:14:47.260,-9.9375,-35.0626
12:14:47.263,-10.75,-37.6251
12:14:47.265,-11.5625,-40.8752
12:14:47.271,-11.9375,-42.0627
12:14:47.308,-12.125,-42.8752
12:14:47.311,-12.125,-45.5627
12:14:47.313,-12.3125,-47.4377
12:14:47.316,-13.9376,-49.2502
12:14:47.322,-13.9376,-50.6877
12:14:47.357,-14.7501,-52.3127
12:14:47.360,-14.5001,-53.8127
12:14:47.362,-15.1251,-55.5627
12:14:47.391,-15.3751,-56.3752
12:14:47.393,-15.3751,-57.3127
12:14:47.393,-16.2501,-58.6252
12:14:47.402,-16.4376,-58.3127
12:14:47.415,-16.4376,-59.4377
12:14:47.423,-17.1876,-60.2502
12:14:47.439,-16.8751,-60.5627
12:14:47.442,-16.4376,-61.1877
12:14:47.457,-17.1251,-60.8752
12:14:47.475,-17.0001,-62.4377
12:14:47.490,-17.5001,-63.1252
12:14:47.492,-17.0001,-63.4377
12:14:47.494,-16.9376,-63.0002
12:14:47.501,-16.7501,-63.0627
12:14:47.512,-17.2501,-63.3127
12:14:47.521,-17.3126,-63.5002
12:14:47.530,-16.3126,-62.8127
12:14:47.540,-16.8751,-63.8752
12:14:47.551,-17.0001,-62.8752
12:14:47.560,-16.7501,-62.8127
12:14:47.571,-14.8751,-57.0627
12:14:47.581,-12.75,-45.7502
12:14:47.591,-7.5,-29.5001
12:14:47.601,-1.375,-8.4375
12:14:47.611,3,8.0625
12:14:47.621,6.5,20.0001
12:14:47.631,9.3125,27.8751
12:14:47.640,12.9375,35.8751
12:14:47.651,13.7501,40.5627
12:14:47.661,14.8126,43.6252
12:14:47.671,15.8751,46.3752
12:14:47.680,15.5001,48.6877
12:14:47.691,16.0001,47.5627
12:14:47.701,17.1251,48.5627
12:14:47.711,16.2501,48.8752
12:14:47.721,17.5001,48.9377
12:14:47.732,16.3751,48.6252
12:14:47.741,16.1876,47.3752
12:14:47.751,16.6876,47.7502
12:14:47.761,15.6251,46.0627
12:14:47.769,15.4376,45.6877
12:14:47.781,14.3126,42.3127
12:14:47.791,13.3126,39.2502
12:14:47.800,12.0625,35.2501
12:14:47.811,11.25,32.1251
12:14:47.821,9.5625,28.1251
12:14:47.847,8.875,24.8126
12:14:47.851,7.5625,21.3126
12:14:47.851,7.4375,20.0001
12:14:47.890,6.1875,17.7501
12:14:47.895,5.75,15.5626
12:14:47.896,4.875,14.3126
12:14:47.899,5.4375,13
12:14:47.905,4.625,12.0625
12:14:47.911,4.6875,11.125
12:14:47.942,4.4375,11
12:14:47.945,4.5,9.25
12:14:47.947,3.25,7.8125
12:14:47.951,2.6875,8.0625
12:14:47.979,2.9375,4.875
12:14:47.982,1.875,3.375
12:14:47.985,1,1.4375
12:14:47.993,0.5625,-0.9375
12:14:48.006,0.75,-3.25
12:14:48.010,-0.625,-6.3125
12:14:48.024,-1.0625,-7.3125
12:14:48.030,-1.375,-11.0625
12:14:48.041,-2.6875,-14.1876
12:14:48.051,-3.625,-16.9376
12:14:48.060,-4.6875,-18.1876
12:14:48.071,-5.375,-21.3751
12:14:48.080,-6.375,-24.1251
12:14:48.091,-6.5,-25.7501
12:14:48.100,-6.6875,-28.8126
12:14:48.111,-8.1875,-32.0001
12:14:48.120,-8.6875,-32.8126
12:14:48.129,-8.5,-35.4376
12:14:48.140,-9.8125,-37.8126
12:14:48.151,-10.4375,-38.1876
12:14:48.161,-10.625,-40.6877
12:14:48.169,-11.125,-43.5627
12:14:48.181,-11.9375,-44.4377
12:14:48.191,-12.1875,-45.6252
12:14:48.201,-12.375,-46.6877
12:14:48.211,-12.625,-47.3127
12:14:48.221,-12.5625,-49.5002
12:14:48.229,-13.0625,-49.6252
12:14:48.252,-13.3751,-50.9377
12:14:48.255,-12.8125,-52.0627
12:14:48.263,-13.8126,-53.3127
12:14:48.271,-14.4376,-53.5627
12:14:48.285,-14.0626,-53.1252
12:14:48.295,-14.5626,-54.7502
12:14:48.300,-13.8751,-55.5627
12:14:48.309,-15.3126,-55.8752
12:14:48.321,-15.0626,-56.1252
12:14:48.330,-14.9376,-56.4377
12:14:48.340,-15.3751,-54.4377
12:14:48.349,-13.3126,-52.8127
12:14:48.361,-12.375,-43.5002
12:14:48.370,-8.4375,-31.4376
12:14:48.380,-2.6875,-12.875
12:14:48.391,3.0625,6.4375
12:14:48.399,6.0625,20.1876
12:14:48.409,9.75,29.3126
12:14:48.421,11.75,38.4376
12:14:48.430,13.9376,42.6252
12:14:48.440,16.6876,47.1877
12:14:48.449,16.3126,50.0627
12:14:48.459,16.6876,51.5002
12:14:48.471,17.3751,52.6877
12:14:48.481,16.6251,53.5627
12:14:48.490,17.4376,52.8127
12:14:48.501,18.3751,53.7502
12:14:48.509,17.6876,54.4377
12:14:48.521,17.6876,52.9377
12:14:48.531,17.8751,53.6252
12:14:48.541,17.3126,54.1252
12:14:48.551,17.3126,50.6877
12:14:48.561,16.1876,49.6877
12:14:48.569,15.5626,48.3752
12:14:48.579,14.6251,43.9377
12:14:48.603,14.1251,40.5627
12:14:48.606,12.5625,36.3751
12:14:48.632,11.5,33.0001
12:14:48.635,10.375,29.5001
12:14:48.637,9.1875,26.8751
12:14:48.664,8.875,23.3126
12:14:48.665,7,21.2501
12:14:48.700,5.9375,19.5001
12:14:48.701,6.3125,17.2501
12:14:48.702,5.1875,16.4376
12:14:48.705,5.75,14.1251
12:14:48.734,4.5,13.9376
12:14:48.734,4.75,11.875
12:14:48.735,4,11.5625
12:14:48.738,3.875,9.3125
12:14:48.742,2.875,7.875
12:14:48.773,2.375,7
12:14:48.792,2.25,4.125
12:14:48.805,1.1875,2.25
12:14:48.820,0.9375,-0.0625
12:14:48.820,0.5625,-2.625
12:14:48.821,-1.375,-5.5
12:14:48.823,-2.3125,-6.625
12:14:48.828,-2.375,-9.6875
12:14:48.830,-2.6875,-12.875
12:14:48.841,-4.0625,-16.1251
12:14:48.849,-5.0625,-18.6876
12:14:48.862,-5.6875,-21.8126
12:14:48.870,-6.0625,-22.5001
12:14:48.880,-6.3125,-25.5001
12:14:48.890,-7.5,-28.6876
12:14:48.901,-8.375,-30.7501
12:14:48.911,-9,-33.0001
12:14:48.919,-9.5,-35.5001
12:14:48.930,-10.25,-38.8751
12:14:48.941,-10.75,-40.3127
12:14:48.950,-11.9375,-41.4377
12:14:48.960,-12,-42.8127
12:14:48.970,-12.375,-45.5002
12:14:48.980,-12.4375,-46.0627
12:14:48.990,-13.1251,-47.9377
12:14:48.999,-13.6876,-48.0627
12:14:49.010,-13.6876,-50.5627
12:14:49.020,-13.9376,-50.5627
12:14:49.030,-14.2501,-52.6252
12:14:49.039,-14.4376,-52.7502
12:14:49.049,-14.8751,-53.8127
12:14:49.060,-15.3751,-53.8127
12:14:49.069,-15.5001,-54.9377
12:14:49.080,-15.0001,-55.8752
12:14:49.089,-15.9376,-55.3127
12:14:49.099,-16.5626,-55.4377
12:14:49.111,-15.9376,-57.1877
12:14:49.119,-15.9376,-56.6252
12:14:49.129,-16.1251,-56.3127
12:14:49.140,-15.5001,-56.9377
12:14:49.149,-17.1251,-58.1252
12:14:49.160,-16.4376,-58.0002
12:14:49.169,-15.7501,-55.6877
12:14:49.179,-15.5001,-52.9377
12:14:49.191,-13.0625,-47.8752
12:14:49.199,-9.75,-33.5626
12:14:49.210,-4.875,-12.9375
12:14:49.220,0.75,4.6875
12:14:49.229,5.6875,20.0626
12:14:49.239,7.9375,32.0001
12:14:49.250,11,38.0626
12:14:49.260,13.8751,45.3127
12:14:49.270,14.6876,49.5627
12:14:49.279,15.8126,50.6877
12:14:49.290,16.6876,53.9377
12:14:49.299,16.2501,55.1877
12:14:49.309,16.5626,54.8752
12:14:49.319,16.0001,55.5002
12:14:49.329,16.7501,54.6252
12:14:49.339,17.1251,54.7502
12:14:49.375,15.6251,54.0627
12:14:49.376,16.1251,53.3127
12:14:49.379,16.5001,53.6877
12:14:49.381,16.0001,52.0002
12:14:49.408,14.9376,51.4377
12:14:49.411,13.6876,47.2502
12:14:49.413,13.2501,46.0627
12:14:49.447,12.6875,41.8752
12:14:49.448,12.1875,38.2501
12:14:49.451,10.8125,34.1876
12:14:49.453,9.1875,31.0001
12:14:49.460,7.8125,26.6876
12:14:49.500,7.625,24.2501
12:14:49.503,6.375,21.2501
12:14:49.504,5.75,20.0001
12:14:49.506,5.0625,17.7501
12:14:49.514,4.375,17.5626
12:14:49.523,4.0625,15.3751
12:14:49.529,3.5625,15.5001
12:14:49.539,4.25,13.3126
12:14:49.550,3.1875,11.375
12:14:49.571,2.9375,10.0625
12:14:49.573,1.875,9.8125
12:14:49.589,2.125,8.375
12:14:49.604,1.5,5.625
12:14:49.607,-0.125,2.3125
12:14:49.612,-0.1875,0.25
12:14:49.620,-1.3125,-0.9375
12:14:49.630,-1.25,-4.3125
12:14:49.639,-2.0625,-7.5
12:14:49.649,-3.625,-10.4375
12:14:49.661,-4.375,-12.8125
12:14:49.669,-4.625,-15.1251
12:14:49.680,-5.125,-18.0001
12:14:49.690,-6,-20.4376
12:14:49.700,-7.4375,-22.3751
12:14:49.709,-7.4375,-25.2501
12:14:49.719,-8.0625,-28.0001
12:14:49.730,-9.3125,-30.1251
12:14:49.739,-9.25,-32.8751
12:14:49.750,-10.25,-33.6876
12:14:49.760,-11,-36.7501
12:14:49.770,-10.8125,-38.7501
12:14:49.781,-12,-40.5627
12:14:49.790,-11.9375,-42.2502
12:14:49.800,-12.5625,-44.0002
12:14:49.809,-13.6876,-45.6252
12:14:49.819,-13.1876,-45.7502
12:14:49.829,-13.6251,-47.8752
12:14:49.840,-14.0001,-48.3127
12:14:49.850,-14.8751,-49.5627
12:14:49.860,-15.1876,-50.6877
12:14:49.869,-15.0001,-51.6252
12:14:49.879,-14.9376,-51.6877
12:14:49.890,-14.8751,-51.5627
12:14:49.900,-16.1251,-53.1252
12:14:49.912,-15.6251,-53.5002
12:14:49.940,-15.5001,-52.8752
12:14:49.943,-16.1876,-54.0002
12:14:49.945,-15.3126,-54.3752
12:14:49.951,-16.1251,-54.1877
12:14:49.963,-15.8751,-54.4377
12:14:49.969,-15.5626,-53.9377
12:14:49.979,-16.1251,-54.5627
12:14:49.991,-15.6876,-55.8127
12:14:50.000,-16.1876,-54.6877
12:14:50.010,-16.2501,-54.1252
12:14:50.019,-15.4376,-54.1252
12:14:50.052,-15.9376,-53.3752
12:14:50.055,-14.3126,-49.3127
12:14:50.057,-12.375,-39.0001
12:14:50.059,-7.9375,-23.7501
12:14:50.093,-1.5,-2.0625
12:14:50.170,2.375,16.0626
12:14:50.170,6.5,26.2501
12:14:50.172,9.0625,36.3751
12:14:50.201,11.0625,43.2502
12:14:50.201,13.6251,47.4377
12:14:50.201,13.6876,50.2502
12:14:50.202,15.0001,51.2502
12:14:50.205,14.4376,52.8127
12:14:50.214,14.7501,52.5627
12:14:50.219,15.4376,53.1252
12:14:50.230,14.6251,53.7502
12:14:50.240,14.5626,51.4377
12:14:50.249,14.7501,51.7502
12:14:50.259,14.3751,50.6877
12:14:50.269,14.3751,50.9377
12:14:50.279,13.7501,48.8127
12:14:50.291,13.8126,47.1877
12:14:50.299,13.0625,45.2502
12:14:50.309,12.25,42.7502
12:14:50.319,11.1875,39.5627
12:14:50.330,9.5625,35.5626
12:14:50.340,8.9375,31.0001
12:14:50.349,5.0625,18.7501
12:14:50.359,4.5625,17.2501
12:14:50.369,5,16.5001
12:14:50.379,3.5,14.3126
12:14:50.390,3.125,13.8126
12:14:50.400,2.625,12.75
12:14:50.409,2.875,10.75
12:14:50.420,2.1875,9.0625
12:14:50.429,1.625,8.125
12:14:50.439,1,4.8125
12:14:50.450,-0.0625,2.3125
12:14:50.459,-0.875,1.5625
12:14:50.469,-0.875,-1.5
12:14:50.480,-2.0625,-4.5625
12:14:50.489,-3,-7.375
12:14:50.500,-4,-8.4375
12:14:50.509,-4.25,-12.1875
12:14:50.519,-4.875,-15.5626
12:14:50.530,-5.375,-16.8126
12:14:50.540,-5.6875,-20.0001
12:14:50.550,-7.3125,-22.3126
12:14:50.559,-7.5625,-25.0001
12:14:50.569,-8.3125,-27.8126
12:14:50.580,-9.375,-28.1876
12:14:50.589,-9.1875,-31.8126
12:14:50.600,-9.875,-34.4376
12:14:50.610,-10.875,-35.3126
12:14:50.619,-10.3125,-37.1251
12:14:50.629,-11.6875,-38.1876
12:14:50.640,-11.75,-40.8752
12:14:50.649,-13,-42.2502
12:14:50.662,-12.1875,-42.7502
12:14:50.669,-13.4376,-44.4377
12:14:50.679,-12.75,-44.7502
12:14:50.689,-13.3126,-45.6877
12:14:50.699,-13.125,-47.3127
12:14:50.709,-13.5001,-48.0002
12:14:50.720,-13.6251,-48.7502
12:14:50.730,-14.2501,-49.5627
12:14:50.740,-13.8126,-49.3752
12:14:50.749,-14.5001,-49.6877
12:14:50.759,-14.6251,-49.4377
12:14:50.769,-14.1251,-50.6252
12:14:50.779,-14.8751,-50.6252
12:14:50.790,-14.6251,-52.3127
12:14:50.802,-14.1876,-50.8752
12:14:50.810,-15.3126,-51.3752
12:14:50.826,-14.3751,-52.3752
12:14:50.830,-14.7501,-51.1252
12:14:50.860,-14.7501,-51.5002
12:14:50.866,-14.3751,-50.6252
12:14:50.868,-14.5001,-47.8127
12:14:50.902,-12.375,-43.6877
12:14:50.940,-9.0625,-30.4376
12:14:50.971,-4.8125,-10.9375
12:14:50.971,1.5,7.75
12:14:50.973,4.625,24.2501
12:14:51.002,7.8125,32.8126
12:14:51.008,11.625,40.3127
12:14:51.008,12.5,45.9377
12:14:51.008,13.7501,47.8752
12:14:51.017,14.1251,51.3752
12:14:51.024,14.4376,52.7502
12:14:51.037,14.7501,51.8127
12:14:51.045,14.9376,52.8752
12:14:51.054,14.9376,51.5627
12:14:51.064,14.1876,52.1877
12:14:51.074,14.4376,49.6252
12:14:51.084,14.0626,49.8127
12:14:51.095,14.1876,48.4377
12:14:51.104,13.8126,47.5627
12:14:51.115,13.4376,44.9377
12:14:51.126,12.0625,43.3127
12:14:51.135,11.875,40.3127
12:14:51.144,10.125,36.0626
12:14:51.155,9.3125,33.3126
12:14:51.164,7.5625,28.0626
12:14:51.174,4.5,16.4376
12:14:51.184,4.3125,15.1251
12:14:51.194,3.0625,13.9376
12:14:51.221,4,13.5626
12:14:51.224,2.5,11.8125
12:14:51.226,2.5,10.5625
12:14:51.235,1.875,7.625
12:14:51.244,0.75,7.375
12:14:51.255,1.25,5.25
12:14:51.264,-0.25,2.4375
12:14:51.274,-1.0625,1.625
12:14:51.284,-1.3125,-2.4375
12:14:51.295,-2.25,-6
12:14:51.304,-3.1875,-8.3125
12:14:51.314,-3.125,-11
12:14:51.324,-4.5625,-14.0626
12:14:51.334,-5.8125,-15.7501
12:14:51.345,-5.75,-19.8126
12:14:51.354,-6.8125,-22.5001
12:14:51.366,-7.625,-23.9376
12:14:51.374,-8.3125,-24.8126
12:14:51.384,-8.1875,-28.2501
12:14:51.403,-8.625,-30.8126
12:14:51.409,-9.375,-31.5001
12:14:51.424,-9,-33.2501
12:14:51.427,-10.3125,-35.8126
12:14:51.437,-10.9375,-36.0001
12:14:51.445,-10.8125,-38.3126
12:14:51.454,-11.25,-38.0626
12:14:51.464,-11.6875,-41.1877
12:14:51.474,-12.3125,-41.7502
12:14:51.485,-12.1875,-43.8752
12:14:51.495,-12.5,-43.3752
12:14:51.505,-12.8125,-45.1252
12:14:51.514,-13.1876,-46.0627
12:14:51.525,-13.5001,-46.9377
12:14:51.535,-13.6251,-46.6877
12:14:51.545,-13.4376,-49.0002
12:14:51.580,-13.9376,-48.3127
12:14:51.582,-14.0626,-49.8752
12:14:51.586,-13.4376,-49.1252
12:14:51.587,-14.2501,-50.8127
12:14:51.619,-14.0001,-49.1252
12:14:51.620,-13,-45.8752
12:14:51.623,-10.6875,-40.3752
12:14:51.625,-8.1875,-25.3126
12:14:51.654,-2.625,-8.75
12:14:51.656,1.75,10.1875
12:14:51.660,5.125,22.8751
12:14:51.666,9.5,32.5626
12:14:51.693,10.3125,38.6251
12:14:51.695,12.125,43.3127
12:14:51.697,13.6251,47.6252
12:14:51.736,13.5001,49.9377
12:14:51.738,14.1876,48.6877
12:14:51.740,14.3126,50.1877
12:14:51.744,13.8751,48.3752
12:14:51.744,14.3751,48.0002
12:14:51.755,13.9376,48.2502
12:14:51.764,13.6251,46.8752
12:14:51.774,13.3751,45.7502
12:14:51.791,12.75,45.3127
12:14:51.796,12.0625,43.0002
12:14:51.804,12.625,41.6877
12:14:51.815,11.125,39.0626
12:14:51.824,10.6875,36.4376
12:14:51.834,9,32.7501
12:14:51.846,7.875,28.4376
12:14:51.855,6.9375,25.0626
12:14:51.865,6,20.3126
12:14:51.874,5.0625,18.4376
12:14:51.885,3.875,14.3751
12:14:51.895,4.125,13.3126
12:14:51.904,3.5,11.75
12:14:51.914,3,9.25
12:14:51.925,3,8.875
12:14:51.935,1.625,7.6875
12:14:51.944,2.3125,7.25
12:14:51.954,0.625,5.75
12:14:51.964,1.375,4.625
12:14:51.975,0.4375,3.375
12:14:51.984,0.6875,2.3125
12:14:51.995,-0.8125,0.3125
12:14:52.004,-1.5,-1.3125
12:14:52.014,-1.1875,-4.5
12:14:52.024,-2.375,-6.375
12:14:52.034,-3,-9.625
12:14:52.045,-3.9375,-12.625
12:14:52.054,-5.125,-13.6876
12:14:52.064,-4.9375,-17.9376
12:14:52.075,-6.375,-21.5626
12:14:52.086,-6.9375,-22.6251
12:14:52.095,-7.4375,-26.1251
12:14:52.105,-8.4375,-28.0626
12:14:52.114,-8.875,-29.9376
12:14:52.125,-9,-32.9376
12:14:52.135,-10.125,-35.2501
12:14:52.145,-10.375,-36.5001
12:14:52.155,-11.25,-38.1876
12:14:52.166,-11.1875,-39.8127
12:14:52.174,-11.375,-41.4377
12:14:52.184,-12.8125,-43.6252
12:14:52.194,-12,-45.1252
12:14:52.204,-12.6875,-46.3127
12:14:52.214,-12.3125,-47.1877
12:14:52.224,-12.9375,-48.3752
12:14:52.235,-14.2501,-49.3752
12:14:52.256,-13.5001,-49.6252
12:14:52.258,-14.0001,-50.6252
12:14:52.273,-13.6876,-50.9377
12:14:52.276,-14.1876,-52.0627
12:14:52.291,-14.7501,-49.8127
12:14:52.295,-13.8751,-47.4377
12:14:52.325,-11.3125,-38.6876
12:14:52.326,-7.25,-24.7501
12:14:52.328,-1.625,-5.125
12:14:52.336,2.25,11
12:14:52.367,5.9375,22.3751
12:14:52.370,8.5,31.3126
12:14:52.372,11,37.9376
12:14:52.378,11.8125,41.3752
12:14:52.421,12.75,45.1252
12:14:52.422,12.875,44.5627
12:14:52.424,13.8751,46.3752
12:14:52.428,13.5001,45.1252
12:14:52.429,13.2501,45.3127
12:14:52.464,12.8125,44.6252
12:14:52.465,12.9375,43.3752
12:14:52.468,12.75,43.0002
12:14:52.476,12.1875,43.7502
12:14:52.476,12.25,40.5627
12:14:52.500,10.9375,39.7502
12:14:52.503,11,36.3751
12:14:52.504,9.6875,34.5626
12:14:52.514,9.1875,30.1251
12:14:52.525,7.5,27.8126
12:14:52.540,6.4375,23.5626
12:14:52.544,5.25,20.8126
12:14:52.554,5.25,16.8126
12:14:52.567,4.1875,15.9376
12:14:52.575,3.9375,12.375
12:14:52.584,2.5,12.6875
12:14:52.594,2.375,10.1875
12:14:52.604,2.1875,10.5
12:14:52.615,2.5,8.625
12:14:52.625,1.875,8.75
12:14:52.635,1.875,7.875
12:14:52.644,1.125,6.875
12:14:52.655,0.875,5.9375
12:14:52.664,0.6875,3.5625
12:14:52.674,0.3125,3
12:14:52.685,-0.1875,0.375
12:14:52.694,-0.9375,-0.875
12:14:52.710,-0.875,-3.75
12:14:52.717,-1.625,-6.0625
12:14:52.732,-2.25,-8.5625
12:14:52.735,-3.75,-10.75
12:14:52.749,-4.375,-12.1875
12:14:52.754,-4.0625,-15.6251
12:14:52.764,-6.125,-17.5626
12:14:52.775,-5.9375,-21.5001
12:14:52.784,-7.0625,-22.3751
12:14:52.795,-7.0625,-25.3126
12:14:52.806,-8.125,-26.8126
12:14:52.816,-8.5,-30.3126
12:14:52.824,-9.25,-32.1876
12:14:52.834,-9.25,-34.8126
12:14:52.845,-10.375,-35.3751
12:14:52.855,-10.5625,-38.8751
12:14:52.865,-10.75,-40.3127
12:14:52.875,-11.75,-42.4377
12:14:52.884,-12.5625,-44.8127
12:14:52.894,-12.4375,-44.6252
12:14:52.904,-12.625,-47.4377
12:14:52.915,-12.875,-47.0627
12:14:52.925,-13.4376,-48.1877
12:14:52.935,-12.625,-48.0627
12:14:52.944,-13,-45.1877
12:14:52.954,-11.25,-40.0002
12:14:52.965,-8.25,-28.0001
12:14:52.974,-2.6875,-9.6875
12:14:52.985,1.875,7.625
12:14:52.994,6.0625,20.5626
12:14:53.004,8.5,30.0626
12:14:53.015,12.125,38.2501
12:14:53.024,13.3751,43.1252
12:14:53.044,13.8751,49.2502
12:14:53.047,15.3751,50.6877
12:14:53.055,15.8751,52.3127
12:14:53.085,16.6251,52.1877
12:14:53.086,16.2501,53.5627
12:14:53.088,16.3751,52.5627
12:14:53.096,16.0001,53.4377
12:14:53.121,15.7501,51.6877
12:14:53.124,15.9376,52.0627
12:14:53.126,16.1876,50.5627
12:14:53.156,15.5626,49.8127
12:14:53.160,14.6251,48.4377
12:14:53.161,14.3751,47.0002
12:14:53.165,14.0626,43.6252
12:14:53.175,12.75,39.8127
12:14:53.205,11.4375,36.9376
12:14:53.208,10.6875,33.0626
12:14:53.209,9.0625,30.5001
12:14:53.215,8.875,25.6876
12:14:53.225,7.625,24.9376
12:14:53.235,7.75,21.1876
12:14:53.244,5.8125,21.0001
12:14:53.255,5.9375,18.2501
12:14:53.265,5.9375,16.9376
12:14:53.273,5.9375,16.1876
12:14:53.292,6.1875,15.8126
12:14:53.295,5.125,15.0626
12:14:53.305,5.75,14.1876
12:14:53.315,4.1875,12.75
12:14:53.323,4.75,10.8125
12:14:53.334,2.9375,9.125
12:14:53.343,2.75,8.1875
12:14:53.355,2.25,6.4375
12:14:53.365,1.75,4.25
12:14:53.374,1.125,1.0625
12:14:53.385,0.0625,0.0625
12:14:53.396,-0.375,-3
12:14:53.404,-0.9375,-4.875
12:14:53.414,-1.6875,-7.1875
12:14:53.424,-2.5,-10.3125
12:14:53.434,-3.4375,-12.1875
12:14:53.445,-3.3125,-14.5626
12:14:53.455,-3.6875,-16.8751
12:14:53.465,-4.0625,-18.1876
12:14:53.475,-4.875,-20.1251
12:14:53.484,-4.9375,-21.8126
12:14:53.493,-6.0625,-23.5626
12:14:53.505,-6.5625,-25.2501
12:14:53.514,-7.125,-28.5626
12:14:53.526,-7.6875,-30.1251
12:14:53.534,-7.9375,-32.6251
12:14:53.544,-8.75,-33.8751
12:14:53.560,-8.6875,-35.9376
12:14:53.574,-10.4375,-36.5626
12:14:53.577,-10.5,-39.8752
12:14:53.587,-10.1875,-41.1877
12:14:53.594,-10.9375,-42.2502
12:14:53.604,-11.25,-44.3752
12:14:53.613,-11.375,-44.6877
12:14:53.625,-11.75,-46.6877
12:14:53.634,-11.4375,-45.8127
12:14:53.645,-10.9375,-41.9377
12:14:53.653,-8.25,-33.5001
12:14:53.668,-4.75,-18.5001
12:14:53.673,0.75,-0.8125
12:14:53.685,4.0625,13.9376
12:14:53.693,7.9375,26.0626
12:14:53.704,11.1875,35.8751
12:14:53.715,13.9376,45.7502
12:14:53.747,16.1876,50.5002
12:14:53.750,17.2501,54.1877
12:14:53.752,18.3751,58.2502
12:14:53.754,19.2501,59.0002
12:14:53.780,19.7501,60.5627
12:14:53.785,19.9376,61.0627
12:14:53.785,19.9376,61.6877
12:14:53.816,20.0626,61.5627
12:14:53.820,20.6251,62.2502
12:14:53.822,20.8126,62.0627
12:14:53.824,20.8126,62.0627
12:14:53.858,20.5001,61.1252
12:14:53.860,19.3126,61.1252
12:14:53.863,19.8751,59.1877
12:14:53.897,18.9376,55.8127
12:14:53.898,17.6876,53.8127
12:14:53.898,16.6251,48.8127
12:14:53.901,15.4376,46.8127
12:14:53.909,14.5626,42.1877
12:14:53.918,13.8751,38.7501
12:14:53.926,12.875,34.9376
12:14:53.934,11.625,32.8751
12:14:53.944,11.0625,31.3126
12:14:53.953,10.8125,28.9376
12:14:53.963,10.4375,27.7501
12:14:53.974,9.375,26.5626
12:14:53.983,9,25.9376
12:14:53.995,8.75,24.5001
12:14:54.006,8.0625,23.8751
12:14:54.021,7.9375,21.6876
12:14:54.035,7.1875,19.6251
12:14:54.045,7.125,18.3751
12:14:54.059,6.625,17.6251
12:14:54.062,6,15.8126
12:14:54.067,5.125,13.0625
12:14:54.074,4.75,11.375
12:14:54.085,3.5,9
12:14:54.093,3.375,7.5
12:14:54.105,2.75,4.375
12:14:54.113,2.5,1.875
12:14:54.123,2.4375,-0.5
12:14:54.133,0.9375,-2.0625
12:14:54.143,0,-5
12:14:54.154,-0.375,-7.5625
12:14:54.164,-1.625,-9.625
12:14:54.173,-1.9375,-11.75
12:14:54.185,-2.6875,-14.8126
12:14:54.195,-2.5,-16.7501
12:14:54.205,-3.5,-18.5001
12:14:54.215,-3.9375,-20.2501
12:14:54.223,-5.25,-21.2501
12:14:54.234,-5,-24.9376
12:14:54.245,-6.4375,-26.1876
12:14:54.259,-6.125,-28.0626
12:14:54.268,-7.1875,-30.2501
12:14:54.279,-6.9375,-30.8126
12:14:54.288,-7.875,-34.1251
12:14:54.298,-8.6875,-34.0626
12:14:54.308,-8.375,-36.3751
12:14:54.318,-8.375,-37.4376
12:14:54.328,-9.4375,-39.8752
12:14:54.338,-9.375,-41.5627
12:14:54.349,-10.6875,-41.3752
12:14:54.358,-10.1875,-44.5002
12:14:54.369,-10.6875,-45.0627
12:14:54.378,-11.625,-46.8752
12:14:54.389,-10.75,-47.1877
12:14:54.399,-11.625,-47.1252
12:14:54.409,-10.125,-44.1877
12:14:54.418,-6.5625,-29.5626
12:14:54.429,-1.6875,-11.375
12:14:54.438,3.125,6.3125
12:14:54.448,6.9375,19.0001
12:14:54.458,10.3125,30.3751
12:14:54.495,13.1876,40.2502
12:14:54.499,15.7501,47.8127
12:14:54.500,17.4376,53.0002
12:14:54.502,18.6876,55.6877
12:14:54.508,19.5001,59.2502
12:14:54.547,19.7501,59.9377
12:14:54.549,20.2501,62.3127
12:14:54.551,20.9376,62.7502
12:14:54.557,20.9376,63.3127
12:14:54.559,22.3126,64.3752
12:14:54.587,21.6876,64.5002
12:14:54.590,21.5626,64.8752
12:14:54.592,21.3751,64.8127
12:14:54.600,22.0626,63.8127
12:14:54.626,21.6876,63.0627
12:14:54.629,20.2501,59.6252
12:14:54.631,19.1251,59.1877
12:14:54.644,18.9376,54.6252
12:14:54.653,17.5626,49.4377
12:14:54.658,16.0626,46.0627
12:14:54.669,14.7501,42.6252
12:14:54.679,14.0626,38.8751
12:14:54.688,12.8125,37.3126
12:14:54.698,13.3751,33.9376
12:14:54.708,11.8125,32.6876
12:14:54.718,10.875,30.5626
12:14:54.729,10.5,28.6251
12:14:54.738,10.25,28.1251
12:14:54.748,9.8125,26.3126
12:14:54.759,9.375,25.6251
12:14:54.769,8.9375,23.8126
12:14:54.779,8.6875,22.4376
12:14:54.794,8.9375,21.8751
12:14:54.798,7.6875,21.1876
12:14:54.808,6.75,19.3751
12:14:54.820,6.5625,16.3751
12:14:54.828,5.6875,15.3126
12:14:54.838,5.4375,12.1875
12:14:54.848,5,10.75
12:14:54.863,4.4375,8
12:14:54.878,2.8125,5.75
12:14:54.881,2.25,2.5625
12:14:54.888,1.5625,1.5
12:14:54.898,1.5625,-2.1875
12:14:54.908,0.125,-4.5625
12:14:54.918,-0.8125,-7.5
12:14:54.928,-1.25,-9.1875
12:14:54.939,-2,-11.1875
12:14:54.948,-2,-13.8751
12:14:54.959,-2.5,-16.3751
12:14:54.970,-4.125,-18.3751
12:14:54.978,-4.5625,-21.1251
12:14:54.988,-5.1875,-23.0001
12:14:54.998,-4.8125,-25.0001
12:14:55.008,-6.375,-27.8126
12:14:55.018,-7,-28.8751
12:14:55.029,-7.3125,-31.0626
12:14:55.059,-8,-32.6251
12:14:55.062,-7.4375,-33.9376
12:14:55.064,-8.4375,-35.6876
12:14:55.069,-9.25,-38.1251
12:14:55.078,-9.375,-38.3751
12:14:55.088,-10.375,-40.9377
12:14:55.098,-9.625,-42.4377
12:14:55.108,-11.125,-42.2502
12:14:55.118,-11.3125,-46.0627
12:14:55.128,-11.5625,-47.2502
12:14:55.138,-11.5,-47.2502
12:14:55.148,-12,-50.7502
12:14:55.158,-12.1875,-50.5002
12:14:55.169,-13.6876,-52.0627
12:14:55.178,-13,-52.9377
12:14:55.188,-14.1876,-53.0627
12:14:55.198,-13.1876,-55.3127
12:14:55.210,-12.6875,-54.0627
12:14:55.236,-13.1251,-52.1252
12:14:55.239,-11.25,-46.5627
12:14:55.241,-8.4375,-32.0001
12:14:55.282,-2.4375,-13.9376
12:14:55.283,1.875,5.5625
12:14:55.287,5.8125,19.2501
12:14:55.288,9.3125,30.3126
12:14:55.296,12.4375,40.3752
12:14:55.300,15.1251,47.6877
12:14:55.332,16.6251,53.4377
12:14:55.377,17.3126,55.7502
12:14:55.378,18.3751,59.3752
12:14:55.379,19.1251,59.8127
12:14:55.381,19.5626,61.6252
12:14:55.399,19.8126,61.8127
12:14:55.400,19.8751,63.5627
12:14:55.400,20.6876,63.9377
12:14:55.400,22.3751,67.4378
12:14:55.404,22.6876,68.0628
12:14:55.414,24.1251,69.9378
12:14:55.423,24.5001,70.8128
12:14:55.435,25.0626,73.0003
12:14:55.444,25.6251,73.5628
12:14:55.453,26.1251,72.8128
12:14:55.464,27.0626,72.5628
12:14:55.473,26.6251,73.1878
12:14:55.484,25.5001,73.1878
12:14:55.493,24.2501,71.0003
12:14:55.503,22.6876,65.3127
12:14:55.513,21.6251,60.1877
12:14:55.525,20.2501,57.8127
12:14:55.533,19.4376,56.5627
12:14:55.544,18.1876,53.3127
12:14:55.553,17.5626,53.1877
12:14:55.563,16.7501,50.5627
12:14:55.573,16.2501,48.8127
12:14:55.584,14.4376,46.2502
12:14:55.593,13.9376,43.2502
12:14:55.603,13.5626,41.0002
12:14:55.613,11.625,39.0627
12:14:55.623,11.9375,36.7501
12:14:55.633,11.125,34.9376
12:14:55.643,11.125,33.9376
12:14:55.653,9.6875,32.4376
12:14:55.663,9.0625,30.8126
12:14:55.673,8.625,28.1251
12:14:55.683,7.4375,26.2501
12:14:55.693,7.0625,21.9376
12:14:55.703,5.5,19.5626
12:14:55.713,4.3125,14.8126
12:14:55.724,3.5625,11.6875
12:14:55.733,2.75,8.4375
12:14:55.743,1,5.125
12:14:55.753,0.0625,1
12:14:55.763,-1.1875,-2.75
12:14:55.773,-1.5,-5.625
12:14:55.784,-2.875,-8.75
12:14:55.793,-3.8125,-11.1875
12:14:55.803,-3.9375,-14.8751
12:14:55.813,-5.4375,-17.2501
12:14:55.825,-5.625,-20.5001
12:14:55.833,-6.75,-21.5001
12:14:55.843,-6.4375,-25.2501
12:14:55.853,-7.75,-25.7501
12:14:55.863,-7.5625,-27.8751
12:14:55.873,-8.25,-29.0626
12:14:55.907,-8.25,-30.1251
12:14:55.910,-8.75,-31.5001
12:14:55.912,-8.4375,-33.5001
12:14:55.914,-9.5625,-33.8126
12:14:55.945,-9.125,-34.6876
12:14:55.947,-10.625,-33.8751
12:14:55.951,-10.1875,-37.0001
12:14:55.955,-11,-38.1876
12:14:55.989,-11.625,-40.1877
12:14:55.992,-11.25,-40.7502
12:14:55.994,-11.8125,-40.8127
12:14:56.002,-11.75,-42.1877
12:14:56.034,-11.5,-41.8127
12:14:56.034,-12.4375,-42.1877
12:14:56.037,-12,-42.8752
12:14:56.064,-12.1875,-42.5627
12:14:56.066,-12.625,-44.0002
12:14:56.067,-12.5,-44.0627
12:14:56.069,-13.125,-45.1252
12:14:56.075,-12.25,-44.4377
12:14:56.089,-13.1876,-44.7502
12:14:56.094,-13.1251,-44.4377
12:14:56.103,-13.0625,-45.6877
12:14:56.113,-12.9375,-44.5627
12:14:56.123,-13.6251,-44.5002
12:14:56.135,-13.3751,-41.8752
12:14:56.143,-11,-34.1876
12:14:56.160,-7.8125,-19.0001
12:14:56.176,-2.9375,-0.25
12:14:56.177,0.25,14.6876
12:14:56.183,3.5625,24.6876
12:14:56.193,5.8125,31.3126
12:14:56.204,6.9375,36.7501
12:14:56.213,8.5625,42.4377
12:14:56.224,10.4375,45.1877
12:14:56.233,10.5625,49.0002
12:14:56.243,10.875,50.3127
12:14:56.253,11.5625,49.9377
12:14:56.263,11.125,50.5627
12:14:56.274,11.6875,49.3127
12:14:56.283,11,49.5002
12:14:56.293,11.0625,47.6252
12:14:56.303,10.4375,47.6252
12:14:56.313,9.625,45.7502
12:14:56.341,9.625,43.7502
12:14:56.342,9.25,43.8752
12:14:56.344,8.5,39.8752
12:14:56.353,6.5625,33.5626
12:14:56.363,4.3125,30.1251
12:14:56.373,4.3125,26.5001
12:14:56.383,3.75,24.1251
12:14:56.393,3.8125,23.7501
12:14:56.403,3.1875,23.4376
12:14:56.414,3.3125,24.3126
12:14:56.425,3.1875,23.5001
12:14:56.433,3.4375,24.1876
12:14:56.443,3.375,22.8751
12:14:56.453,2.3125,22.4376
12:14:56.465,2.125,20.0001
12:14:56.474,1.625,19.3751
12:14:56.483,1.3125,17.1251
12:14:56.493,1.0625,16.4376
12:14:56.503,1.0625,15.3751
12:14:56.513,0.4375,12.8125
12:14:56.523,-0.5,11.4375
12:14:56.533,-0.875,8.9375
12:14:56.543,-1.0625,7.4375
12:14:56.553,-1.4375,5.75
12:14:56.564,-2.3125,2.9375
12:14:56.573,-3.4375,1
12:14:56.583,-3.375,-2.9375
12:14:56.594,-4.375,-5.25
12:14:56.604,-5.1875,-9.25
12:14:56.623,-6.25,-11.75
12:14:56.629,-6.6875,-14.4376
12:14:56.646,-7.5,-17.1876
12:14:56.648,-7.625,-20.1876
12:14:56.653,-8.375,-22.2501
12:14:56.663,-8.5625,-24.2501
12:14:56.695,-9.125,-26.1876
12:14:56.696,-9.5625,-27.8126
12:14:56.699,-9.875,-30.1876
12:14:56.706,-9.8125,-29.9376
12:14:56.732,-10.3125,-31.8751
12:14:56.734,-10.25,-33.5626
12:14:56.737,-11,-33.4376
12:14:56.743,-10.5,-35.4376
12:14:56.754,-11.4375,-35.4376
12:14:56.784,-11.5625,-37.8126
12:14:56.786,-11.6875,-38.1876
12:14:56.790,-12.125,-40.0002
12:14:56.795,-11.3125,-40.4377
12:14:56.829,-12.4375,-41.3127
12:14:56.831,-12.875,-42.4377
12:14:56.834,-13.2501,-42.5627
12:14:56.841,-12.625,-44.1252
12:14:56.853,-13.0625,-44.8127
12:14:56.855,-13.6876,-44.8752
12:14:56.867,-12.875,-44.8127
12:14:56.873,-12.8125,-43.1252
12:14:56.883,-11.625,-39.0001
12:14:56.893,-9.3125,-30.3751
12:14:56.903,-6,-13.7501
12:14:56.915,-1.5,0.75
12:14:56.923,2.125,14.0626
12:14:56.933,4.5625,21.1876
12:14:56.943,6,29.7501
12:14:56.953,8.3125,32.3126
12:14:56.964,8.3125,36.5001
12:14:56.973,9.3125,37.8126
12:14:56.983,9.375,37.8126
12:14:56.993,10.25,40.3127
12:14:57.003,9.625,40.0002
12:14:57.013,9.875,40.0002
12:14:57.025,9.8125,39.2502
12:14:57.033,9.6875,40.0627
12:14:57.043,9.4375,38.5001
12:14:57.053,9.6875,37.5001
12:14:57.064,9.0625,35.5626
12:14:57.074,7.8125,35.0001
12:14:57.083,7.125,31.8126
12:14:57.093,6.25,27.8126
12:14:57.104,4,22.6876
12:14:57.113,3.25,20.8126
12:14:57.123,3,17.7501
12:14:57.133,1,14.3126
12:14:57.143,0.375,13.5001
12:14:57.153,0,10.5625
12:14:57.165,-0.75,9.25
12:14:57.173,-0.5625,9.125
12:14:57.184,-1.375,8.5
12:14:57.193,-0.3125,8.5
12:14:57.204,-1.5625,7.25
12:14:57.213,-1.3125,7
12:14:57.223,-1.5,6.375
12:14:57.233,-1.4375,5.25
12:14:57.243,-2.4375,4.5
12:14:57.253,-3.125,3.0625
12:14:57.263,-2.8125,1.1875
12:14:57.274,-3.25,1
12:14:57.283,-4.125,-1.5
12:14:57.293,-4.4375,-2.25
12:14:57.303,-4.4375,-5.8125
12:14:57.315,-6.1875,-6.875
12:14:57.323,-5.9375,-9.75
12:14:57.333,-7.4375,-10.875
12:14:57.343,-7.125,-13.4376
12:14:57.376,-7.125,-15.0626
12:14:57.379,-8.6875,-17.4376
12:14:57.381,-8.6875,-19.0626
12:14:57.383,-9.25,-21.7501
12:14:57.412,-9.4375,-23.7501
12:14:57.416,-10.6875,-26.0001
12:14:57.420,-10.625,-28.0001
12:14:57.425,-12.125,-29.8751
12:14:57.457,-12,-32.2501
12:14:57.485,-13,-33.9376
12:14:57.490,-12.625,-36.5626
12:14:57.490,-13.6251,-37.6876
12:14:57.496,-13.6876,-38.8751
12:14:57.496,-13.6876,-39.8127
12:14:57.496,-14.2501,-39.6252
12:14:57.503,-13.9376,-42.0627
12:14:57.532,-14.4376,-40.9377
12:14:57.534,-13.7501,-42.1877
12:14:57.536,-14.1251,-40.7502
12:14:57.548,-13.5626,-42.3752
12:14:57.553,-13,-41.7502
12:14:57.563,-12.8125,-41.2502
12:14:57.573,-11.4375,-38.2501
12:14:57.584,-10.8125,-31.0001
12:14:57.593,-6.1875,-17.6251
12:14:57.623,-2.4375,-2.25
12:14:57.628,0.9375,11.125
12:14:57.629,4.25,20.7501
12:14:57.637,6.0625,28.8126
12:14:57.649,8.8125,34.5626
12:14:57.655,10.1875,37.6876
12:14:57.663,10.75,40.9377
12:14:57.674,11.8125,44.1877
12:14:57.683,12,44.8752
12:14:57.693,12.5625,47.0002
12:14:57.703,13.3126,47.5627
12:14:57.713,13.1876,46.7502
12:14:57.723,12.875,48.9377
12:14:57.733,13.4376,47.0627
12:14:57.743,12.8125,47.1252
12:14:57.754,12.3125,46.4377
12:14:57.764,12.3125,44.3752
12:14:57.773,12.3125,44.8752
12:14:57.783,12.75,41.8752
12:14:57.795,10.6875,38.5001
12:14:57.803,9.25,38.0626
12:14:57.813,9.0625,33.8126
12:14:57.823,8.0625,30.1876
12:14:57.833,7.0625,27.8126
12:14:57.843,6.25,23.3126
12:14:57.854,4.8125,22.1876
12:14:57.863,4.8125,18.9376
12:14:57.873,3.625,18.3126
12:14:57.884,4.125,16.3751
12:14:57.895,3.0625,16.3751
12:14:57.903,2.75,15.0001
12:14:57.924,2.25,13.4376
12:14:57.927,1.625,13.2501
12:14:57.942,1.5,9.875
12:14:57.946,0.625,8.3125
12:14:57.953,0.625,7.375
12:14:57.963,-0.25,6.375
12:14:57.974,0.4375,5.375
12:14:57.983,-1.25,3.25
12:14:57.993,-2,1.1875
12:14:58.005,-2.9375,-2.8125
12:14:58.013,-3.75,-4.6875
12:14:58.025,-4.375,-6.3125
12:14:58.034,-4.5625,-9.125
12:14:58.043,-4.9375,-11.25
12:14:58.053,-5.9375,-13.1251
12:14:58.066,-5.5625,-14.6876
12:14:58.073,-5.75,-16.3751
12:14:58.084,-6.3125,-17.0626
12:14:58.093,-6.875,-17.8126
12:14:58.104,-8.125,-20.7501
12:14:58.113,-7.9375,-21.8751
12:14:58.124,-7.9375,-23.6876
12:14:58.133,-8.75,-25.2501
12:14:58.154,-9.25,-26.0626
12:14:58.157,-10,-27.7501
12:14:58.191,-10.1875,-29.3751
12:14:58.192,-9.5625,-29.4376
12:14:58.196,-10.5625,-31.5626
12:14:58.197,-10.625,-32.1876
12:14:58.203,-11.25,-32.6251
12:14:58.245,-11.1875,-35.4376
12:14:58.247,-11.0625,-35.8751
12:14:58.251,-11.4375,-35.6876
12:14:58.276,-12,-38.1251
12:14:58.276,-12.375,-38.4376
12:14:58.277,-12.75,-39.1877
12:14:58.278,-13.0625,-41.3127
12:14:58.307,-13,-41.6877
12:14:58.310,-12.4375,-41.9377
12:14:58.312,-13.8751,-42.2502
12:14:58.319,-13.1876,-41.6877
12:14:58.330,-11.25,-35.5001
12:14:58.338,-8.3125,-25.2501
12:14:58.348,-4.125,-9.0625
12:14:58.358,-0.6875,4.875
12:14:58.368,3.875,18.0001
12:14:58.378,6.5625,26.9376
12:14:58.388,9.8125,34.4376
12:14:58.400,11.375,42.0002
12:14:58.409,13.0625,44.7502
12:14:58.418,13.4376,48.3127
12:14:58.429,15.4376,52.8752
12:14:58.438,16.3751,54.3127
12:14:58.448,16.3126,53.5627
12:14:58.458,15.9376,55.0627
12:14:58.468,17.3126,55.5627
12:14:58.478,17.5626,55.8127
12:14:58.488,17.2501,55.7502
12:14:58.499,16.3751,55.3127
12:14:58.508,16.0001,54.1877
12:14:58.518,15.6876,51.5627
12:14:58.528,15.0001,50.1252
12:14:58.538,14.1876,46.5627
12:14:58.549,12.5,41.1252
12:14:58.559,10.75,37.0626
12:14:58.568,10.125,33.1876
12:14:58.578,8.6875,28.8751
12:14:58.588,8.125,23.6876
12:14:58.598,6.0625,20.6251
12:14:58.608,5.375,18.2501
12:14:58.618,5.0625,15.5626
12:14:58.628,5.25,14.1251
12:14:58.638,4.375,12.6875
12:14:58.648,3.5625,11.4375
12:14:58.658,3.375,11
12:14:58.668,3,10.375
12:14:58.679,2.6875,9.8125
12:14:58.688,3.0625,8.4375
12:14:58.700,2.3125,8.6875
12:14:58.708,2.0625,7.1875
12:14:58.719,1.5,6.8125
12:14:58.729,1.8125,6.0625
12:14:58.749,0.9375,3.6875
12:14:58.774,1.0625,2.9375
12:14:58.777,0.875,1.75
12:14:58.779,-0.125,1.375
12:14:58.782,0.6875,1.875
12:14:58.788,-0.1875,-0.625
12:14:58.798,-1.3125,-2.375
12:14:58.812,-1.625,-5.0625
12:14:58.818,-3.0625,-6.75
12:14:58.849,-2.625,-7.6875
12:14:58.851,-2.9375,-9.625
12:14:58.855,-4.25,-12.3125
12:14:58.858,-4.9375,-14.7501
12:14:58.901,-6.1875,-16.3126
12:14:58.904,-5.75,-17.5626
12:14:58.905,-6.25,-19.4376
12:14:58.907,-7.5,-21.4376
12:14:58.909,-7.375,-23.3751
12:14:58.937,-7.125,-23.4376
12:14:58.940,-7.5,-24.5626
12:14:58.942,-7.375,-25.4376
12:14:58.948,-8.75,-26.8126
12:14:58.981,-8.75,-28.9376
12:14:58.983,-8.5625,-28.9376
12:14:58.986,-9.0625,-29.0001
12:14:58.988,-8.5,-30.7501
12:14:58.998,-10.125,-30.9376
12:14:59.008,-9.1875,-32.2501
12:14:59.019,-10.0625,-32.4376
12:14:59.028,-10.25,-33.7501
12:14:59.038,-8.875,-32.6251
12:14:59.048,-8.75,-28.0626
12:14:59.058,-5,-18.2501
12:14:59.070,-2.5625,-5.25
12:14:59.079,0.8125,6.1875
12:14:59.088,4.75,17.5626
12:14:59.098,6.75,28.2501
12:14:59.108,9.9375,35.6251
12:14:59.118,12.0625,42.9377
12:14:59.129,13.6876,47.6877
12:14:59.139,15.6876,51.3127
12:14:59.149,16.1251,55.1252
12:14:59.159,17.0626,58.1877
12:14:59.168,18.0001,59.0002
12:14:59.179,19.1876,61.2502
12:14:59.188,19.1876,62.7502
12:14:59.198,19.2501,63.1877
12:14:59.208,20.2501,65.8128
12:14:59.225,19.8751,65.3752
12:14:59.238,21.3751,66.8128
12:14:59.241,21.0001,67.6878
12:14:59.248,21.2501,66.8128
12:14:59.259,21.0626,65.5627
12:14:59.268,20.5001,64.0002
12:14:59.278,19.6251,61.9377
12:14:59.288,18.4376,56.3127
12:14:59.298,16.6876,52.1877
12:14:59.308,15.2501,46.5002
12:14:59.318,14.3126,43.9377
12:14:59.328,13.5001,38.9376
12:14:59.338,11.4375,33.6876
12:14:59.348,9.5625,31.6876
12:14:59.358,10.1875,29.1876
12:14:59.369,8.6875,26.8126
12:14:59.378,8.25,24.7501
12:14:59.388,7.9375,22.1251
12:14:59.398,6.9375,21.2501
12:14:59.411,7.0625,19.6251
12:14:59.419,6.3125,18.2501
12:14:59.428,6.1875,14.9376
12:14:59.438,6.0625,13.3751
12:14:59.448,4.125,11.0625
12:14:59.458,4.375,9.5625
12:14:59.468,3.0625,7.5625
12:14:59.477,3.875,6.3125
12:14:59.488,1.75,2.625
12:14:59.498,0.4375,0
12:14:59.508,-0.6875,-3.375
12:14:59.522,-1,-5.5625
12:14:59.553,-2.8125,-9.125
12:14:59.557,-2.5,-12.125
12:14:59.558,-4.3125,-13.8126
12:14:59.561,-3.875,-15.8751
12:14:59.594,-5.25,-16.5626
12:14:59.597,-4.4375,-17.5001
12:14:59.599,-5.3125,-19.0001
12:14:59.602,-4.8125,-20.4376
12:14:59.609,-5.9375,-21.2501
12:14:59.641,-5.9375,-21.7501
12:14:59.647,-6.875,-23.3751
12:14:59.648,-7.625,-26.4376
12:14:59.648,-8.5625,-29.1251
12:14:59.680,-9.6875,-30.0626
12:14:59.682,-8.875,-31.6251
12:14:59.686,-8.9375,-31.9376
12:14:59.688,-10.25,-33.9376
12:14:59.716,-10.3125,-34.8126
12:14:59.718,-10.4375,-34.3751
12:14:59.721,-10.8125,-36.3751
12:14:59.728,-10.125,-36.0001
12:14:59.738,-10.9375,-37.8126
12:14:59.748,-10.9375,-37.8751
12:14:59.758,-11.1875,-38.5626
12:14:59.768,-10.8125,-39.0626
12:14:59.779,-11.375,-38.0626
12:14:59.788,-11.125,-40.0627
12:14:59.798,-11,-39.4377
12:14:59.808,-11.5,-40.5627
12:14:59.818,-10.875,-40.0627
12:14:59.828,-12,-41.4377
12:14:59.839,-12.125,-42.4377
12:14:59.848,-12,-40.3752
12:14:59.861,-10.3125,-35.7501
12:14:59.869,-6.875,-25.0001
12:14:59.878,-3.0625,-8.5625
12:14:59.888,1.25,4.6875
12:14:59.899,5.6875,19.1876
12:14:59.908,8.375,31.0001
12:14:59.918,11.9375,40.0002
12:14:59.928,15.0626,48.6252
12:14:59.938,16.0001,55.2502
12:14:59.948,17.9376,59.8127
12:14:59.958,19.8751,63.8752
12:14:59.968,19.6251,67.6253
12:14:59.978,21.1251,68.4378
12:14:59.989,21.9376,70.7503
12:14:59.998,22.1251,71.6253
12:15:00.008,22.7501,73.9378
12:15:00.018,22.4376,75.5003
12:15:00.028,23.5626,74.9378
12:15:00.045,23.5626,75.0003
12:15:00.048,23.1251,76.1878
12:15:00.063,23.3751,74.6253
12:15:00.068,23.0626,72.7503
12:15:00.080,23.0001,71.8753
12:15:00.087,21.9376,67.2503
12:15:00.098,20.6251,64.6877
12:15:00.108,19.3126,60.2502
12:15:00.118,18.8126,54.8752
12:15:00.128,16.7501,50.1877
12:15:00.138,16.0001,45.0002
12:15:00.147,14.2501,42.0627
12:15:00.179,12.875,39.0626
12:15:00.182,12.875,35.5626
12:15:00.184,11.8125,34.3126
12:15:00.188,11.0625,31.1251
12:15:00.198,9.875,29.6251
12:15:00.209,9.9375,27.9376
12:15:00.219,9.4375,25.6876
12:15:00.229,8.5625,23.3126
12:15:00.237,8.3125,20.2501
12:15:00.250,7.3125,18.9376
12:15:00.257,6.4375,16.5626
12:15:00.268,6.1875,13.4376
12:15:00.282,5.3125,10.4375
12:15:00.288,4.9375,8.1875
12:15:00.298,3.5625,5.3125
12:15:00.308,3,3
12:15:00.318,2.3125,-0.5
12:15:00.328,1.375,-2.875
12:15:00.368,0.6875,-5.25
12:15:00.369,0.1875,-7.875
12:15:00.373,0.5625,-9.625
12:15:00.374,-1.4375,-11.4375
12:15:00.379,-1.125,-14.3751
12:15:00.409,-3.0625,-16.3751
12:15:00.409,-3.0625,-18.2501
12:15:00.412,-4.125,-18.9376
12:15:00.419,-4.1875,-20.6251
12:15:00.453,-3.6875,-22.3751
12:15:00.455,-5.0625,-22.5001
12:15:00.457,-4.625,-23.5626
12:15:00.459,-5.0625,-24.3751
12:15:00.487,-5.5625,-24.5001
12:15:00.489,-5.4375,-26.6251
12:15:00.492,-6.0625,-26.1251
12:15:00.498,-6.1875,-28.3126
12:15:00.520,-6.9375,-28.0626
12:15:00.523,-7.6875,-31.0001
12:15:00.531,-7.625,-30.6876
12:15:00.538,-7.75,-31.7501
12:15:00.553,-8,-31.5626
12:15:00.562,-7.5,-31.3751
12:15:00.568,-8.3125,-32.1876
12:15:00.579,-8,-33.3126
12:15:00.589,-8.625,-34.6251
12:15:00.600,-9.375,-35.3751
12:15:00.609,-8.6875,-36.6876
12:15:00.618,-10.125,-36.1251
12:15:00.628,-9.6875,-38.3126
12:15:00.637,-9.125,-38.6251
12:15:00.647,-10.6875,-39.5627
12:15:00.658,-10.5625,-40.4377
12:15:00.667,-10.125,-39.1251
12:15:00.678,-10.0625,-38.8126
12:15:00.688,-7.8125,-33.5626
12:15:00.700,-6.125,-22.6876
12:15:00.708,-1.5625,-8.4375
12:15:00.718,1.5,7.375
12:15:00.729,5.5,19.1251
12:15:00.740,9.375,30.4376
12:15:00.749,12.8125,41.1252
12:15:00.757,15.2501,50.8752
12:15:00.767,18.0626,56.3127
12:15:00.777,18.5001,62.7502
12:15:00.787,19.5001,63.5627
12:15:00.798,20.1251,66.0003
12:15:00.807,21.1251,69.5003
12:15:00.818,21.8751,69.7503
12:15:00.827,22.6251,71.8128
12:15:00.838,22.7501,72.6253
12:15:00.847,22.2501,73.6878
12:15:00.857,22.4376,74.0628
12:15:00.867,22.3751,73.7503
12:15:00.877,23.0001,73.6878
12:15:00.887,22.8751,71.8753
12:15:00.897,21.8751,71.0628
12:15:00.908,21.1251,68.9378
12:15:00.917,21.0001,65.4377
12:15:00.928,19.8126,62.1252
12:15:00.937,18.4376,57.6252
12:15:00.948,17.1876,55.0627
12:15:00.957,16.3126,50.3752
12:15:00.968,15.3126,48.1877
12:15:00.978,14.1876,44.4377
12:15:00.987,13.7501,42.6252
12:15:01.002,12.9375,40.0627
12:15:01.031,12.625,39.4377
12:15:01.032,12.5,38.1251
12:15:01.035,11,36.6876
12:15:01.037,10.4375,33.8751
12:15:01.068,10,32.6251
12:15:01.071,10.3125,31.3126
12:15:01.075,8.9375,29.8751
12:15:01.078,9.375,28.1876
12:15:01.108,7.6875,26.7501
12:15:01.111,7.5625,23.3751
12:15:01.113,6.1875,21.5626
12:15:01.118,5.5625,19.5001
12:15:01.147,4.875,16.4376
12:15:01.150,3.1875,13.6876
12:15:01.152,3,10
12:15:01.158,1.75,8.25
12:15:01.178,0.4375,5
12:15:01.180,0.1875,1.625
12:15:01.188,-0.5625,-0.1875
12:15:01.199,-1.125,-2.3125
12:15:01.207,-2.5625,-4.875
12:15:01.217,-2.375,-7.6875
12:15:01.228,-3.125,-9.3125
12:15:01.237,-4.75,-11.1875
12:15:01.247,-4.75,-15.0626
12:15:01.259,-6.25,-16.5001
12:15:01.269,-6.1875,-18.6876
12:15:01.277,-7.1875,-19.2501
12:15:01.288,-6.625,-22.7501
12:15:01.297,-8,-23.9376
12:15:01.307,-7.6875,-26.1251
12:15:01.318,-8.875,-26.6876
12:15:01.327,-8.875,-29.3751
12:15:01.343,-10.25,-32.0626
12:15:01.352,-9.8125,-33.3126
12:15:01.357,-11.375,-33.5001
12:15:01.375,-11.125,-36.4376
12:15:01.378,-10.875,-38.1251
12:15:01.392,-12.25,-39.6877
12:15:01.397,-12.25,-42.6252
12:15:01.407,-12.75,-43.4377
12:15:01.417,-13.1876,-44.9377
12:15:01.427,-14.0001,-46.5627
12:15:01.460,-14.0001,-49.8127
12:15:01.462,-14.6876,-50.5627
12:15:01.464,-15.0001,-52.6877
12:15:01.469,-14.6251,-53.4377
12:15:01.478,-15.6251,-53.7502
12:15:01.488,-15.3126,-56.1252
12:15:01.497,-14.8126,-56.1877
12:15:01.508,-15.5626,-55.5627
12:15:01.517,-13.9376,-52.6252
12:15:01.528,-12.5,-44.8127
12:15:01.537,-8.5625,-31.4376
12:15:01.553,-3.75,-14.3751
12:15:01.558,0.0625,-0.125
12:15:01.570,4.3125,13.5001
12:15:01.577,7.375,22.7501
12:15:01.587,11,33.0626
12:15:01.597,13.1876,40.3752
12:15:01.607,14.3751,45.9377
12:15:01.618,15.9376,50.3752
12:15:01.627,17.0001,53.0002
12:15:01.637,17.7501,55.5002
12:15:01.648,18.6251,57.0002
12:15:01.657,18.8751,59.1877
12:15:01.668,19.9376,60.1252
12:15:01.680,20.3126,60.8752
12:15:01.687,20.0626,62.1252
12:15:01.697,20.6251,62.0002
12:15:01.707,20.5001,63.4377
12:15:01.717,20.7501,62.3127
12:15:01.727,20.4376,61.0627
12:15:01.738,19.9376,60.5002
12:15:01.747,19.3126,58.0627
12:15:01.757,18.8126,53.8752
12:15:01.767,17.1876,51.0002
12:15:01.787,15.7501,46.8752
12:15:01.791,14.7501,42.7502
12:15:01.798,13.5001,38.6251
12:15:01.825,12.9375,35.3126
12:15:01.901,12,32.2501
12:15:01.930,11.25,29.5626
12:15:01.933,10.5625,28.8126
12:15:01.960,9.75,27.1876
12:15:01.960,9.8125,26.1876
12:15:01.960,9.0625,25.2501
12:15:01.961,8.625,23.3751
12:15:01.963,8.625,21.8126
12:15:01.969,7.5,20.4376
12:15:01.972,7.1875,19.2501
12:15:01.983,7.4375,17.6251
12:15:01.992,6.4375,16.2501
12:15:02.002,5.75,14.6251
12:15:02.013,5.5625,11.75
12:15:02.024,4.1875,10.875
12:15:02.032,4.25,7.8125
12:15:02.042,3.125,6.5
12:15:02.052,2.5,3.375
12:15:02.062,2.0625,1
12:15:02.072,1.875,-1
12:15:02.082,1.125,-3.3125
12:15:02.093,0.375,-5.625
12:15:02.102,-4.5625,-24.2501
12:15:02.112,-5.3125,-25.4376
12:15:02.122,-5.875,-28.1251
12:15:02.132,-6.75,-30.8751
12:15:02.142,-7.375,-32.3126
12:15:02.153,-8.1875,-33.9376
12:15:02.163,-8.6875,-35.7501
12:15:02.172,-8.8125,-36.8126
12:15:02.182,-9.1875,-39.8127
12:15:02.192,-9.875,-40.3752
12:15:02.202,-10.4375,-43.0627
12:15:02.212,-10.375,-43.1877
12:15:02.223,-10.625,-44.9377
12:15:02.232,-11.1875,-46.8127
12:15:02.245,-11.75,-48.8127
12:15:02.252,-11.8125,-49.6252
12:15:02.262,-12.9375,-49.6252
12:15:02.272,-12.75,-52.6877
12:15:02.282,-12.6875,-53.0002
12:15:02.292,-13.3751,-54.0002
12:15:02.302,-13.5626,-56.4377
12:15:02.314,-13.8751,-57.6877
12:15:02.322,-13.1876,-58.0627
12:15:02.338,-14.6251,-59.6252
12:15:02.347,-14.8751,-61.4377
12:15:02.358,-14.9376,-61.6252
12:15:02.370,-15.0001,-62.2502
12:15:02.377,-14.3126,-59.6877
12:15:02.387,-13.6251,-54.3127
12:15:02.397,-10.625,-44.9377
12:15:02.407,-6.8125,-27.3751
12:15:02.417,-1.25,-9.3125
12:15:02.427,2.8125,5
12:15:02.437,6.5625,17.6251
12:15:02.447,9.4375,29.8126
12:15:02.458,12.8125,37.5626
12:15:02.467,15.3126,44.5002
12:15:02.477,16.0001,48.3127
12:15:02.488,16.3751,50.1877
12:15:02.513,17.3126,54.7502
12:15:02.516,18.8126,55.2502
12:15:02.518,19.4376,57.5627
12:15:02.544,19.6876,57.2502
12:15:02.546,18.9376,59.0627
12:15:02.550,20.0626,57.4377
12:15:02.563,19.1876,59.5002
12:15:02.568,20.0626,57.6877
12:15:02.609,19.2501,56.3127
12:15:02.613,19.1251,57.0002
12:15:02.615,18.6876,54.2502
12:15:02.620,17.5626,52.0002
12:15:02.621,16.8751,49.2502
12:15:02.628,15.0626,44.8127
12:15:02.662,13.7501,40.3127
12:15:02.664,12.25,36.4376
12:15:02.680,11.8125,32.8751
12:15:02.682,11.125,29.3751
12:15:02.697,10.125,26.9376
12:15:02.714,9.125,24.4376
12:15:02.714,8.375,23.3751
12:15:02.716,8.625,21.7501
12:15:02.742,8.25,20.3751
12:15:02.744,6.9375,20.4376
12:15:02.749,7.4375,17.9376
12:15:02.751,6.25,17.1251
12:15:02.757,5.875,16.0001
12:15:02.767,6.1875,13.2501
12:15:02.780,5.0625,12.875
12:15:02.787,4.4375,10.5
12:15:02.798,3.75,9.125
12:15:02.809,3.3125,7.75
12:15:02.818,3.125,4.875
12:15:02.829,1.4375,1.875
12:15:02.839,1.3125,-0.25
12:15:02.847,0.6875,-1.5625
12:15:02.857,-0.5,-4.4375
12:15:02.867,-0.625,-7.25
12:15:02.877,-1.125,-9.25
12:15:02.888,-2,-10.5625
12:15:02.897,-2.5,-13.5001
12:15:02.908,-3.9375,-15.1876
12:15:02.917,-4.0625,-18.5001
12:15:02.927,-5,-20.1876
12:15:02.937,-5.5,-24.0001
12:15:02.947,-6.8125,-25.4376
12:15:02.957,-7.0625,-28.5626
12:15:02.967,-7.5,-30.3751
12:15:02.978,-8.3125,-32.8751
12:15:02.987,-9.25,-35.0001
12:15:02.998,-9.25,-36.0626
12:15:03.008,-10.125,-38.8126
12:15:03.017,-10,-40.8752
12:15:03.027,-11.125,-41.5002
12:15:03.037,-11.3125,-44.3127
12:15:03.047,-10.625,-46.0627
12:15:03.057,-12.125,-46.7502
12:15:03.068,-12.1875,-48.8752
12:15:03.077,-12.5,-49.7502
12:15:03.088,-13.6876,-50.0627
12:15:03.097,-13.8126,-52.6877
12:15:03.107,-13.1876,-53.3127
12:15:03.119,-14.0001,-54.3752
12:15:03.130,-14.3751,-56.3752
12:15:03.137,-14.6876,-57.9377
12:15:03.147,-15.3126,-57.8752
12:15:03.157,-15.2501,-60.1877
12:15:03.167,-14.8126,-60.3752
12:15:03.182,-15.0001,-60.8127
12:15:03.191,-16.0626,-62.9377
12:15:03.197,-15.6876,-62.1877
12:15:03.213,-16.5001,-62.0627
12:15:03.220,-16.2501,-64.5627
12:15:03.251,-16.6876,-63.5627
12:15:03.253,-17.1876,-64.1877
12:15:03.257,-15.8126,-62.5627
12:15:03.262,-15.0626,-58.1252
12:15:03.288,-12,-49.0627
12:15:03.289,-8.5625,-32.1251
12:15:03.292,-3.5,-13.7501
12:15:03.330,1.125,3.1875
12:15:03.332,4.75,15.8751
12:15:03.335,8.1875,27.0001
12:15:03.337,10.6875,34.5001
12:15:03.343,11.875,41.9377
12:15:03.369,13.7501,44.1252
12:15:03.372,14.2501,46.7502
12:15:03.399,15.0001,47.4377
12:15:03.400,14.8751,47.1252
12:15:03.402,14.2501,47.5002
12:15:03.404,15.5626,48.4377
12:15:03.412,15.0001,47.1252
12:15:03.422,14.5626,48.1252
12:15:03.432,15.0001,46.1877
12:15:03.443,13.9376,46.1252
12:15:03.452,13.6251,44.2502
12:15:03.462,13.0625,43.3127
12:15:03.472,12.6875,40.6252
12:15:03.482,11.75,35.9376
12:15:03.492,9.8125,33.3751
12:15:03.502,8.8125,28.8126
12:15:03.512,8.75,25.5626
12:15:03.522,7.75,22.2501
12:15:03.532,6.25,19.3751
12:15:03.542,5.4375,17.7501
12:15:03.553,5.25,15.7501
12:15:03.564,5.125,15.5001
12:15:03.572,5.5625,14.2501
12:15:03.582,4.5,14.1876
12:15:03.592,3.75,13.5626
12:15:03.602,3.875,12.125
12:15:03.615,4.625,11.25
12:15:03.622,3.125,10.75
12:15:03.632,2.5,9.75
12:15:03.642,2.5,7.25
12:15:03.652,1.6875,6.0625
12:15:03.662,1.875,3.875
12:15:03.672,0.875,1.625
12:15:03.682,0.3125,-0.6875
12:15:03.692,-1,-2.125
12:15:03.703,-0.6875,-5.1875
12:15:03.712,-1.6875,-7.625
12:15:03.722,-2.5625,-9.5625
12:15:03.732,-3.5625,-14.0001
12:15:03.742,-3.8125,-15.5001
12:15:03.754,-4.5625,-17.5626
12:15:03.762,-5.3125,-20.2501
12:15:03.772,-5,-21.7501
12:15:03.782,-6.875,-24.4376
12:15:03.792,-7.5625,-26.2501
12:15:03.803,-7.375,-29.6251
12:15:03.812,-8.3125,-30.0626
12:15:03.822,-8,-32.6876
12:15:03.838,-9.625,-35.1876
12:15:03.843,-9.75,-36.9376
12:15:03.852,-10.875,-38.0001
12:15:03.862,-10.625,-41.3752
12:15:03.872,-10.125,-42.0627
12:15:03.883,-11.875,-43.5002
12:15:03.892,-12.375,-46.3127
12:15:03.902,-12,-46.5002
12:15:03.925,-13,-47.1877
12:15:03.928,-12.9375,-49.3752
12:15:03.932,-13.5001,-50.1252
12:15:03.962,-14.0626,-52.3752
12:15:03.964,-13.3751,-52.7502
12:15:03.967,-14.0001,-53.8127
12:15:03.973,-14.3751,-55.6252
12:15:04.009,-14.5626,-55.3127
12:15:04.096,-15.1251,-58.0002
12:15:04.109,-14.7501,-57.5002
12:15:04.112,-15.1876,-59.5002
12:15:04.115,-15.3126,-59.2502
12:15:04.115,-16.0001,-59.0627
12:15:04.118,-15.3751,-61.3127
12:15:04.128,-16.0626,-59.3752
12:15:04.137,-15.0626,-59.3127
12:15:04.148,-14.3126,-55.5627
12:15:04.157,-13.0625,-48.1252
12:15:04.168,-8,-33.0001
12:15:04.179,-3.625,-13
12:15:04.187,0.9375,3.9375
12:15:04.197,4.625,16.8126
12:15:04.210,8.125,27.1876
12:15:04.217,10.125,37.7501
12:15:04.227,12.3125,42.7502
12:15:04.237,14.0001,45.9377
12:15:04.247,14.6876,50.1877
12:15:04.258,14.7501,51.5002
12:15:04.267,15.5626,51.0627
12:15:04.278,0.8125,-2.5625
12:15:04.287,16.5626,54.7502
12:15:04.297,16.5001,50.8752
12:15:04.307,14.8126,47.5002
12:15:04.317,13.6876,43.5002
12:15:04.329,12.5,39.7502
12:15:04.337,11.625,35.6876
12:15:04.349,10.375,31.3126
12:15:04.357,9.4375,29.9376
12:15:04.367,8.6875,27.4376
12:15:04.377,8.25,24.5001
12:15:04.387,7.9375,23.5626
12:15:04.397,6.4375,22.0001
12:15:04.408,7.1875,21.1876
12:15:04.419,6.375,19.9376
12:15:04.427,6.25,19.0001
12:15:04.438,5.5,17.6876
12:15:04.447,5.3125,16.1876
12:15:04.458,4.8125,13.6251
12:15:04.467,3.75,12
12:15:04.477,3.5,10.625
12:15:04.487,2.1875,7.8125
12:15:04.503,1.9375,6.1875
12:15:04.511,1.3125,2.25
12:15:04.519,0.6875,1.25
12:15:04.528,-0.0625,-2.0625
12:15:04.543,-1,-4.375
12:15:04.559,-1.5625,-7.1875
12:15:04.561,-2.125,-9.6875
12:15:04.567,-2.8125,-12.0625
12:15:04.578,-3.75,-13.9376
12:15:04.591,-4,-17.0001
12:15:04.597,-5.1875,-19.1251
12:15:04.607,-5.75,-21.3126
12:15:04.618,-6.0625,-25.0001
12:15:04.629,-7.1875,-26.0001
12:15:04.665,-7.625,-30.2501
12:15:04.666,-9.125,-31.6251
12:15:04.668,-8.9375,-35.0626
12:15:04.671,-9.5625,-36.9376
12:15:04.709,-9.5625,-38.7501
12:15:04.711,-11.125,-41.7502
12:15:04.713,-11.25,-42.6877
12:15:04.716,-11.875,-44.9377
12:15:04.722,-11.8125,-45.6877
12:15:04.727,-12.6875,-47.8127
12:15:04.757,-12.625,-49.4377
12:15:04.760,-13.6251,-49.0627
12:15:04.764,-13.6251,-52.3127
12:15:04.767,-13.3126,-53.6252
12:15:04.799,-14.1876,-53.9377
12:15:04.801,-14.1876,-55.8752
12:15:04.803,-13.5626,-55.8127
12:15:04.809,-14.7501,-56.0002
12:15:04.820,-14.8751,-58.0627
12:15:04.827,-15.2501,-57.5002
12:15:04.837,-15.3751,-59.5002
12:15:04.847,-15.3751,-59.8752
12:15:04.858,-15.5001,-60.0002
12:15:04.867,-15.2501,-60.5002
12:15:04.877,-15.5626,-60.4377
12:15:04.888,-15.5001,-59.5627
12:15:04.898,-14.1251,-54.7502
12:15:04.907,-12.0625,-45.0627
12:15:04.917,-8.5,-30.6251
12:15:04.927,-2.6875,-9.0625
12:15:04.937,1.8125,6.5
12:15:04.950,5.5,22.1251
12:15:04.963,9.375,31.6251
12:15:04.969,11.5625,41.4377
12:15:04.978,13.8751,45.3127
12:15:04.990,14.8751,49.9377
12:15:04.997,15.6251,52.0002
12:15:05.007,16.6876,54.3127
12:15:05.017,16.6876,53.8127
12:15:05.029,16.3751,54.5627
12:15:05.037,16.7501,54.4377
12:15:05.047,16.8126,55.2502
12:15:05.057,17.1251,54.0627
12:15:05.068,17.0001,54.6252
12:15:05.080,16.9376,54.7502
12:15:05.087,16.6876,52.6877
12:15:05.097,15.9376,51.6877
12:15:05.107,16.3751,51.0002
12:15:05.117,15.2501,47.6877
12:15:05.127,13.8751,45.0002
12:15:05.137,13.3751,40.7502
12:15:05.147,11.25,38.1251
12:15:05.158,11.1875,33.3126
12:15:05.167,9.625,30.7501
12:15:05.177,9.1875,25.9376
12:15:05.187,8.125,23.2501
12:15:05.199,7.5625,22.0001
12:15:05.207,7.375,19.8126
12:15:05.217,6.1875,18.2501
12:15:05.227,6.625,16.7501
12:15:05.237,5.75,15.1876
12:15:05.250,5.1875,15.5001
12:15:05.257,4.6875,14.0626
12:15:05.267,4.75,12.6875
12:15:05.299,4.5,10.1875
12:15:05.302,3.6875,9.75
12:15:05.305,2.875,8.125
12:15:05.307,3.25,6.4375
12:15:05.317,2.25,4.25
12:15:05.328,2.3125,2.3125
12:15:05.343,1.125,-0.1875
12:15:05.347,0,-1.6875
12:15:05.357,-0.125,-4.1875
12:15:05.390,-1.3125,-6.8125
12:15:05.392,-1.3125,-8.0625
12:15:05.426,-2.3125,-11.75
12:15:05.432,-2.75,-13.5626
12:15:05.433,-3.75,-16.8126
12:15:05.500,-4.5,-19.3126
12:15:05.500,-4.4375,-21.5626
12:15:05.500,-6.1875,-23.7501
12:15:05.500,-6.125,-25.5001
12:15:05.503,-6.8125,-28.9376
12:15:05.509,-8.1875,-31.0001
12:15:05.509,-8,-33.2501
12:15:05.509,-8.875,-35.8751
12:15:05.545,-9.5,-36.4376
12:15:05.548,-9.5,-39.7502
12:15:05.551,-9.9375,-40.9377
12:15:05.553,-10.5625,-41.5627
12:15:05.558,-11.125,-44.5627
12:15:05.569,-11.1875,-44.8127
12:15:05.577,-11.75,-47.2502
12:15:05.587,-11.625,-48.5627
12:15:05.597,-12.625,-49.7502
12:15:05.609,-13.0625,-50.9377
12:15:05.617,-13,-52.7502
12:15:05.627,-12.4375,-53.7502
12:15:05.637,-14.0626,-55.0002
12:15:05.647,-13.8126,-55.5627
12:15:05.657,-13.9376,-56.6252
12:15:05.667,-14.6876,-57.1877
12:15:05.677,-13.8126,-57.1252
12:15:05.690,-13.5626,-49.1877
12:15:05.698,-9.75,-38.1251
12:15:05.707,-5.1875,-18.3751
12:15:05.717,-0.125,-1.9375
12:15:05.731,4.5625,12.3125
12:15:05.737,6.75,24.6876
12:15:05.747,10,33.1876
12:15:05.757,12.5,40.4377
12:15:05.767,13.5001,44.3127
12:15:05.777,15.1876,46.5627
12:15:05.788,14.6876,49.0627
12:15:05.797,15.0626,47.8127
12:15:05.807,15.4376,49.1252
12:15:05.826,15.2501,48.6252
12:15:05.832,15.3751,47.4377
12:15:05.843,15.8126,48.5627
12:15:05.847,15.3126,47.5627
12:15:05.863,15.7501,47.2502
12:15:05.869,14.8751,45.8752
12:15:05.882,14.7501,44.6252
12:15:05.887,14.3751,41.8752
12:15:05.897,13,40.9377
12:15:05.908,12.5,38.0626
12:15:05.917,11.75,33.3126
12:15:05.927,9.375,30.0001
12:15:05.937,8.8125,24.6876
12:15:05.947,7.5,22.3751
12:15:05.957,7.375,18.8751
12:15:05.968,6.125,15.9376
12:15:05.977,5.5625,13.8126
12:15:05.987,5,12.25
12:15:05.997,4.3125,11.625
12:15:06.007,5,11.25
12:15:06.017,4.375,9.4375
12:15:06.027,3.375,8.4375
12:15:06.037,2.625,8.25
12:15:06.047,2.875,6.875
12:15:06.058,2.9375,5.625
12:15:06.067,2.3125,4.3125
12:15:06.079,2.25,2.8125
12:15:06.095,1.5625,1
12:15:06.097,1.375,-0.125
12:15:06.107,1.3125,-2.375
12:15:06.117,0.0625,-4.375
12:15:06.127,-0.75,-6.9375
12:15:06.137,-1.5625,-9.4375
12:15:06.148,-2.3125,-10.9375
12:15:06.157,-2.9375,-14.5626
12:15:06.171,-3.1875,-16.2501
12:15:06.201,-4,-19.2501
12:15:06.203,-5.0625,-20.9376
12:15:06.206,-5.375,-23.3126
12:15:06.208,-6.125,-25.8751
12:15:06.239,-6.75,-27.5001
12:15:06.242,-7.3125,-30.3126
12:15:06.246,-7.8125,-31.5001
12:15:06.248,-7.6875,-32.5626
12:15:06.290,-8.4375,-34.3126
12:15:06.290,-8.25,-35.3751
12:15:06.292,-8.8125,-37.1876
12:15:06.330,-9.3125,-38.8126
12:15:06.330,-9.8125,-38.8751
12:15:06.331,-10.0625,-41.8752
12:15:06.333,-10.0625,-42.7502
12:15:06.339,-10.625,-42.3752
12:15:06.340,-11.125,-45.4377
12:15:06.347,-10.75,-45.8127
12:15:06.357,-11.4375,-47.5627
12:15:06.367,-11.8125,-49.5002
12:15:06.378,-12.125,-50.1252
12:15:06.387,-12.75,-49.8752
12:15:06.397,-12.875,-51.4377
12:15:06.407,-11.875,-50.0002
12:15:06.420,-11.125,-45.4377
12:15:06.427,-8.625,-36.8126
12:15:06.442,-4.5,-21.0626
12:15:06.452,-0.1875,-5.375
12:15:06.467,3.875,9.5625
12:15:06.472,7.25,22.3751
12:15:06.482,10.3125,31.3126
12:15:06.492,12.4375,39.7502
12:15:06.502,14.5001,44.3752
12:15:06.512,15.8126,48.5627
12:15:06.522,16.1876,49.2502
12:15:06.532,16.4376,49.8752
12:15:06.542,16.6876,50.8127
12:15:06.552,16.4376,49.5002
12:15:06.580,17.2501,50.1252
12:15:06.582,16.3751,50.8752
12:15:06.585,16.8126,49.0002
12:15:06.592,16.4376,47.8752
12:15:06.602,15.7501,47.5627
12:15:06.612,16.3126,46.5627
12:15:06.622,15.1251,44.3752
12:15:06.632,14.5001,40.6252
12:15:06.642,13.2501,36.5626
12:15:06.652,12.125,33.5626
12:15:06.665,11.1875,29.2501
12:15:06.672,9.875,25.6251
12:15:06.682,8.5625,23.3126
12:15:06.693,8.0625,21.6876
12:15:06.702,7.9375,19.2501
12:15:06.712,7.125,18.6251
12:15:06.722,7.4375,16.5001
12:15:06.744,6.4375,16.7501
12:15:06.747,6.5625,16.3751
12:15:06.754,6.4375,14.7501
12:15:06.762,6.4375,14.5001
12:15:06.778,6.0625,12.6875
12:15:06.793,5.8125,13.1876
12:15:06.795,5.4375,10.4375
12:15:06.802,5.5625,10.1875
12:15:06.839,4.5625,7.875
12:15:06.841,4.375,6.125
12:15:06.843,3.625,4.3125
12:15:06.847,2.8125,2.4375
12:15:06.852,2.875,1.125
12:15:06.889,1.5,-0.5625
12:15:06.891,1.6875,-3.1875
12:15:06.894,0.625,-5.25
12:15:06.897,-0.3125,-6.75
12:15:06.902,-0.6875,-10.0625
12:15:06.934,-1.4375,-11.3125
12:15:06.937,-2.1875,-13.8751
12:15:06.940,-2.625,-16.2501
12:15:06.944,-2.875,-17.2501
12:15:06.953,-3,-18.8751
12:15:06.986,-4.1875,-20.0001
12:15:06.989,-3.5625,-21.5001
12:15:06.991,-5.375,-23.2501
12:15:06.993,-4.9375,-24.1251
12:15:07.007,-5.375,-26.6876
12:15:07.013,-6.1875,-27.3751
12:15:07.022,-6.25,-31.0626
12:15:07.032,-7.1875,-31.1251
12:15:07.042,-7.75,-33.2501
12:15:07.052,-7,-34.8126
12:15:07.064,-8.625,-36.0626
12:15:07.072,-8.9375,-38.9376
12:15:07.085,-8.9375,-39.6877
12:15:07.092,-9.6875,-39.5627
12:15:07.101,-9.125,-42.2502
12:15:07.114,-9,-40.6877
12:15:07.122,-8.5625,-38.5626
12:15:07.132,-6.875,-32.2501
12:15:07.148,-3.25,-19.3126
12:15:07.155,0.25,-3.8125
12:15:07.163,4.25,8.375
12:15:07.172,8.4375,20.6251
12:15:07.189,11.875,32.0001
12:15:07.194,14.4376,40.2502
12:15:07.202,17.0626,47.5002
12:15:07.212,17.3126,53.5002
12:15:07.223,19.0001,54.3752
12:15:07.232,20.3751,57.3127
12:15:07.242,20.2501,58.3127
12:15:07.251,21.1251,59.6877
12:15:07.262,21.6251,61.4377
12:15:07.272,21.5001,60.8752
12:15:07.281,22.0626,61.3127
12:15:07.294,21.5001,63.2502
12:15:07.302,21.8751,62.2502
12:15:07.313,22.2501,63.3127
12:15:07.322,22.0001,62.1252
12:15:07.334,21.2501,61.5627
12:15:07.341,21.3751,59.4377
12:15:07.351,20.8751,56.6877
12:15:07.362,19.8126,54.7502
12:15:07.372,18.3751,49.7502
12:15:07.382,17.4376,45.1877
12:15:07.391,16.3751,42.3752
12:15:07.404,15.1876,38.5001
12:15:07.412,14.4376,35.0626
12:15:07.422,13.4376,33.0001
12:15:07.432,12.3125,31.6876
12:15:07.440,12.6875,29.3126
12:15:07.450,11.5,27.2501
12:15:07.462,11,27.8126
12:15:07.472,10.9375,25.6876
12:15:07.480,11.0625,24.1876
12:15:07.491,10.0625,24.1876
12:15:07.505,10.875,22.8751
12:15:07.512,10,21.4376
12:15:07.521,9.25,20.0626
12:15:07.532,9.125,19.4376
12:15:07.541,8.6875,16.5626
12:15:07.560,7.3125,14.0001
12:15:07.562,6.9375,12.9375
12:15:07.597,6.8125,9.6875
12:15:07.599,5.625,7.9375
12:15:07.601,5.4375,7.375
12:15:07.603,5.125,3.9375
12:15:07.636,4.125,1.75
12:15:07.640,3.375,-0.9375
12:15:07.640,2.75,-1.4375
12:15:07.648,2.4375,-4.1875
12:15:07.653,1.375,-7
12:15:07.680,0.8125,-7.8125
12:15:07.683,0.6875,-10
12:15:07.684,0.9375,-11.1875
12:15:07.692,-0.75,-13.2501
12:15:07.723,-0.3125,-14.9376
12:15:07.726,-2,-16.8751
12:15:07.729,-2,-18.8751
12:15:07.733,-2.1875,-19.1251
12:15:07.741,-2.0625,-21.5626
12:15:07.757,-3.6875,-23.5626
12:15:07.762,-3.9375,-24.5001
12:15:07.775,-3.375,-26.0626
12:15:07.782,-4.8125,-29.1876
12:15:07.792,-4.75,-29.5001
12:15:07.801,-4.9375,-31.6876
12:15:07.810,-5.875,-32.6876
12:15:07.822,-6.375,-35.1251
12:15:07.830,-7,-35.2501
12:15:07.860,-6.5625,-36.8751
12:15:07.863,-6.875,-38.1876
12:15:07.865,-6.875,-36.1251
12:15:07.872,-5.125,-30.3751
12:15:07.882,-2.875,-21.0001
12:15:07.891,0.625,-8
12:15:07.900,4.1875,5.375
12:15:07.913,8.125,18.2501
12:15:07.922,12.8125,29.1251
12:15:07.930,14.6251,40.2502
12:15:07.942,17.3751,46.3127
12:15:07.951,18.6251,52.7502
12:15:07.961,20.1251,55.3127
12:15:07.972,21.6251,58.5627
12:15:07.981,21.5626,60.2502
12:15:07.991,22.7501,62.5627
12:15:08.000,23.3751,64.1877
12:15:08.013,23.6876,66.0003
12:15:08.021,24.5626,66.8128
12:15:08.031,24.1251,69.2503
12:15:08.041,24.8126,69.1878
12:15:08.061,25.1876,69.1253
12:15:08.063,25.5001,70.2503
12:15:08.078,26.0626,69.6253
12:15:08.093,25.0626,68.5628
12:15:08.098,25.0626,66.5628
12:15:08.104,23.1251,63.3127
12:15:08.114,22.9376,59.7502
12:15:08.120,21.4376,54.8127
12:15:08.133,19.5626,49.8127
12:15:08.141,18.3126,45.8752
12:15:08.151,17.0626,40.8127
12:15:08.160,16.5001,37.9376
12:15:08.171,15.4376,35.1251
12:15:08.181,14.3751,33.6876
12:15:08.191,14.0626,31.6251
12:15:08.202,13.7501,30.6876
12:15:08.211,13.2501,29.6876
12:15:08.220,13,28.5001
12:15:08.232,12.625,28.5626
12:15:08.242,12.25,29.3126
12:15:08.250,12.1875,27.2501
12:15:08.262,12.875,25.5001
12:15:08.296,12.125,23.5001
12:15:08.298,10.875,23.2501
12:15:08.301,10.8125,20.9376
12:15:08.308,10.3125,18.8751
12:15:08.334,9.9375,17.0626
12:15:08.336,8.5,16.0626
12:15:08.338,7.875,13.2501
12:15:08.373,7.375,10.25
12:15:08.375,6.6875,8.8125
12:15:08.377,6.1875,6.25
12:15:08.380,4.9375,3.375
12:15:08.413,4.875,1.6875
12:15:08.415,3.5625,-0.875
12:15:08.418,2.75,-2.1875
12:15:08.422,2.8125,-5.125
12:15:08.425,2.0625,-8
12:15:08.449,1.625,-8.3125
12:15:08.452,0.875,-10.0625
12:15:08.457,0.875,-13.3126
12:15:08.472,-0.6875,-14.4376
12:15:08.481,-1.0625,-15.3751
12:15:08.488,-0.625,-17.4376
12:15:08.507,-1.9375,-18.3751
12:15:08.522,-2.3125,-19.1876
12:15:08.527,-2.875,-21.7501
12:15:08.527,-2.4375,-23.8126
12:15:08.535,-3.5,-25.8751
12:15:08.547,-4.6875,-28.1876
12:15:08.556,-5.3125,-28.9376
12:15:08.568,-5.875,-30.6876
12:15:08.576,-5.6875,-32.8126
12:15:08.587,-6.9375,-35.7501
12:15:08.598,-6.75,-36.1876
12:15:08.606,-7.6875,-38.2501
12:15:08.616,-8.625,-40.8752
12:15:08.626,-9.3125,-42.1877
12:15:08.636,-8.4375,-41.5002
12:15:08.646,-8.375,-38.6876
12:15:08.658,-6.125,-32.0001
12:15:08.667,-2.375,-18.5626
12:15:08.676,1.3125,-6.125
12:15:08.686,5.625,8
12:15:08.696,8.75,22.9376
12:15:08.706,13,32.9376
12:15:08.717,15.2501,42.4377
12:15:08.726,17.2501,48.8127
12:15:08.736,19.6251,53.5002
12:15:08.746,20.3126,57.4377
12:15:08.756,21.4376,59.1252
12:15:08.766,22.5001,61.9377
12:15:08.778,22.3751,64.1877
12:15:08.786,22.7501,64.2502
12:15:08.796,23.8126,66.1878
12:15:08.808,23.6876,66.7503
12:15:08.816,23.9376,66.7503
12:15:08.826,24.4376,67.8128
12:15:08.837,23.6876,67.3753
12:15:08.845,23.6876,66.5628
12:15:08.856,23.1251,65.1252
12:15:08.867,22.5626,63.5627
12:15:08.876,21.6876,58.9377
12:15:08.892,20.5001,55.8752
12:15:08.898,18.8126,51.1252
12:15:08.906,17.7501,46.6877
12:15:08.916,16.2501,42.3752
12:15:08.926,15.5626,39.6877
12:15:08.935,14.6251,37.3751
12:15:08.946,14.9376,35.0626
12:15:08.957,13.6251,34.4376
12:15:08.966,13.5626,32.6251
12:15:08.976,13.3126,32.5001
12:15:08.987,13.3751,31.4376
12:15:08.996,12.3125,32.1251
12:15:09.006,12.8125,30.4376
12:15:09.017,11.8125,30.1251
12:15:09.026,11.75,28.8126
12:15:09.035,11.375,26.6876
12:15:09.046,11,26.8126
12:15:09.064,10.625,24.5001
12:15:09.066,9.5,21.8126
12:15:09.093,8.6875,20.6251
12:15:09.096,9.4375,18.6876
12:15:09.099,8.9375,16.3751
12:15:09.140,7.5,13.4376
12:15:09.142,6.5625,12.25
12:15:09.144,6.0625,9.375
12:15:09.147,4.9375,6.625
12:15:09.152,4.375,5.875
12:15:09.157,4.125,3.4375
12:15:09.185,3.1875,1.0625
12:15:09.187,2.1875,-1.75
12:15:09.190,1.3125,-1.25
12:15:09.196,1.6875,-4.5
12:15:09.231,0.625,-7.625
12:15:09.233,0,-7.6875
12:15:09.236,0.375,-9.6875
12:15:09.241,-1.125,-12.125
12:15:09.247,-1.375,-13.8126
12:15:09.256,-2,-14.0001
12:15:09.266,-2,-15.3126
12:15:09.275,-2.25,-17.4376
12:15:09.288,-3.5,-19.2501
12:15:09.295,-3.6875,-19.1251
12:15:09.306,-4.3125,-20.6251
12:15:09.315,-4.1875,-22.5626
12:15:09.325,-5.5625,-25.1876
12:15:09.335,-5.75,-26.1876
12:15:09.346,-5.375,-28.1251
12:15:09.356,-6.375,-29.5001
12:15:09.365,-6.875,-31.1251
12:15:09.380,-7.3125,-33.8126
12:15:09.389,-8.5,-35.2501
12:15:09.396,-8.5625,-36.3126
12:15:09.412,-8.75,-38.5626
12:15:09.419,-8.875,-38.1876
12:15:09.427,-9.1875,-35.5001
12:15:09.435,-6.75,-29.5626
12:15:09.446,-3.3125,-18.0001
12:15:09.457,-0.1875,-5.75
12:15:09.466,4,7.4375
12:15:09.475,7.375,21.8751
12:15:09.488,12.125,33.7501
12:15:09.496,15.0001,44.0627
12:15:09.505,17.2501,51.1252
12:15:09.516,19.5001,56.6252
12:15:09.527,20.1876,61.3752
12:15:09.537,21.5001,64.0002
12:15:09.546,23.1876,67.5003
12:15:09.556,23.3126,68.8753
12:15:09.567,24.0001,71.2503
12:15:09.575,24.0001,72.8128
12:15:09.585,25.6876,74.1253
12:15:09.597,26.0626,76.6253
12:15:09.606,25.5626,76.8753
12:15:09.616,26.8126,76.9378
12:15:09.627,26.0626,77.0628
12:15:09.642,25.8126,76.5003
12:15:09.646,25.8751,75.7503
12:15:09.657,25.3751,73.9378
12:15:09.665,23.6876,69.9378
12:15:09.676,23.0626,66.1253
12:15:09.686,21.1876,61.7502
12:15:09.697,20.4376,58.6877
12:15:09.706,18.8126,53.5002
12:15:09.716,17.5626,50.0002
12:15:09.726,17.0001,46.2502
12:15:09.737,16.0626,44.3752
12:15:09.746,15.8126,42.6252
12:15:09.756,15.6251,40.8127
12:15:09.767,14.3751,39.5002
12:15:09.776,14.1251,38.1876
12:15:09.790,13.5001,37.5626
12:15:09.799,14.2501,37.1251
12:15:09.806,13.5001,36.0626
12:15:09.821,13.4376,34.1876
12:15:09.862,12.1875,31.8751
12:15:09.864,11.75,31.7501
12:15:09.866,11.375,29.6876
12:15:09.868,10.625,27.0626
12:15:09.872,9.625,25.3126
12:15:09.876,9.125,22.5626
12:15:09.906,8.5,20.0626
12:15:09.908,7.1875,17.5626
12:15:09.911,6.375,16.7501
12:15:09.916,6.0625,13.0625
12:15:09.952,4.125,9.8125
12:15:09.955,3.75,8.5
12:15:09.957,3.0625,6.875
12:15:09.958,2.8125,4.3125
12:15:09.999,2.125,0.6875
12:15:10.001,1.125,0
12:15:10.003,1.25,-2.8125
12:15:10.006,0.75,-5.125
12:15:10.011,-0.5625,-7
12:15:10.019,-1.8125,-8.5
12:15:10.028,-1.875,-10.125
12:15:10.036,-1.875,-13
12:15:10.046,-2.8125,-13.1876
12:15:10.056,-3.3125,-16.0626
12:15:10.065,-3.625,-18.0626
12:15:10.076,-4.6875,-20.0626
12:15:10.088,-5.4375,-20.8751
12:15:10.096,-5.4375,-22.4376
12:15:10.106,-5.6875,-24.6251
12:15:10.116,-6.125,-26.5626
12:15:10.126,-7.625,-28.3751
12:15:10.137,-7.6875,-29.6251
12:15:10.146,-7.5625,-32.0001
12:15:10.155,-8.5625,-33.8126
12:15:10.166,-9.375,-34.3126
12:15:10.176,-9.75,-36.8126
12:15:10.188,-9.5,-38.9376
12:15:10.195,-10.5,-38.6251
12:15:10.206,-10.8125,-42.1877
12:15:10.219,-11.125,-43.6877
12:15:10.228,-11.6875,-43.6877
12:15:10.236,-11.8125,-46.3127
12:15:10.246,-11.6875,-47.1252
12:15:10.257,-12.8125,-47.3752
12:15:10.266,-13.0625,-50.2502
12:15:10.276,-12.5625,-49.7502
12:15:10.286,-13.1251,-50.3752
12:15:10.297,-12.9375,-51.6877
12:15:10.306,-13.3751,-51.8752
12:15:10.316,-13.8751,-54.6877
12:15:10.329,-13.4376,-53.6877
12:15:10.335,-14.1251,-53.5002
12:15:10.346,-12.25,-54.1252
12:15:10.356,-12.125,-53.3127
12:15:10.365,-13,-53.0627
12:15:10.375,-12.375,-52.1252
12:15:10.385,-11.6875,-49.9377
12:15:10.396,-11.125,-45.0002
12:15:10.421,-7.6875,-35.5626
12:15:10.425,-2.9375,-18.5001
12:15:10.428,1.6875,-0.5625
12:15:10.436,6.25,14.5626
12:15:10.451,12.5,33.1876
12:15:10.461,17.0001,50.5627
12:15:10.474,21.1876,62.6252
12:15:10.480,25.5626,73.6878
12:15:10.491,27.7501,83.1253
12:15:10.501,29.5626,88.0628
12:15:10.511,30.7501,93.2504
12:15:10.521,30.1251,93.1254
12:15:10.531,30.5001,95.5004
12:15:10.540,30.7501,96.6254
12:15:10.551,31.7501,98.8129
12:15:10.592,31.0626,100.3754
12:15:10.595,31.1251,99.8129
12:15:10.597,30.7501,99.3129
12:15:10.598,29.6251,99.2504
12:15:10.601,28.6876,96.5629
12:15:10.636,26.3751,93.6254
12:15:10.638,24.5001,90.6254
12:15:10.640,20.6876,84.0628
12:15:10.645,15.8751,75.6878
12:15:10.651,10.875,67.0628
12:15:10.683,7.0625,56.5627
12:15:10.746,2,48.4377
12:15:10.761,-1.375,38.5001
12:15:10.770,-4.375,32.5626
12:15:10.786,-6.8125,25.1876
12:15:10.786,-9,20.1251
12:15:10.786,-11.4375,15.3126
12:15:10.788,-13.3751,13.125
12:15:10.790,-14.6251,10.8125
12:15:10.796,-15.4376,6.75
12:15:10.803,-16.8126,4.75
12:15:10.811,-18.3126,3.25
12:15:10.821,-19.2501,-0.6875
12:15:10.831,-19.2501,-0.375
12:15:10.842,-19.3751,-2.75
12:15:10.852,-20.4376,-4.5
12:15:10.861,-21.4376,-6.625
12:15:10.870,-22.2501,-8
12:15:10.882,-21.8751,-9.625
12:15:10.891,-22.1876,-11.75
12:15:10.900,-23.0001,-13.125
12:15:10.911,-23.4376,-15.8751
12:15:10.922,-24.3126,-18.1876
12:15:10.931,-25.0626,-25.4376
12:15:10.941,-24.9376,-24.1876
12:15:10.950,-23.5626,-23.6876
12:15:10.963,-21.8751,-19.5001
12:15:10.971,-18.6251,-14.3126
12:15:10.980,-15.0001,-8.875
12:15:10.991,-11.8125,-4.6875
12:15:11.001,-8.8125,-2.5
12:15:11.012,-8.5,-1.5
12:15:11.021,-6.3125,-0.25
12:15:11.031,-6.3125,0.875
12:15:11.041,-4.375,1.8125
12:15:11.051,-5.125,1.9375
12:15:11.060,-5.3125,0.1875
12:15:11.070,-5.4375,0.875
12:15:11.081,-5.375,0
12:15:11.094,-4.0625,1.375
12:15:11.109,-4,-0.0625
12:15:11.124,-3.3125,0
12:15:11.130,-4.125,0.125
12:15:11.133,-3.6875,-3.375
12:15:11.149,-3.125,-4.6875
12:15:11.152,-4.5,-7.5625
12:15:11.161,-5.0625,-10.75
12:15:11.173,-6.3125,-13.5001
12:15:11.181,-7.8125,-18.0626
12:15:11.191,-9.5625,-22.8126
12:15:11.201,-12.0625,-26.7501
12:15:11.211,-13.6251,-33.3126
12:15:11.222,-16.7501,-37.1876
12:15:11.230,-18.2501,-43.2502
12:15:11.241,-20.6876,-47.0627
12:15:11.251,-21.9376,-51.9377
12:15:11.261,-24.5626,-54.7502
12:15:11.272,-25.5626,-59.1252
12:15:11.281,-28.1251,-60.3752
12:15:11.313,-28.6251,-64.3127
12:15:11.316,-31.5626,-66.0628
12:15:11.318,-32.3126,-70.2503
12:15:11.321,-34.3751,-70.7503
12:15:11.352,-35.3751,-72.4378
12:15:11.354,-34.5626,-72.8753
12:15:11.357,-35.8126,-73.0003
12:15:11.362,-35.1876,-72.6253
12:15:11.392,-34.2501,-67.8128
12:15:11.396,-30.0626,-55.1877
12:15:11.397,-25.4376,-37.1876
12:15:11.403,-19.5626,-21.0626
12:15:11.418,-12.625,-2.5625
12:15:11.420,-4.5,15.5626
12:15:11.456,2.8125,33.1251
12:15:11.459,10,47.3127
12:15:11.461,14.7501,58.6252
12:15:11.466,17.7501,65.5002
12:15:11.474,20.1251,70.8753
12:15:11.481,21.6876,76.3128
12:15:11.491,24.0626,79.8128
12:15:11.500,24.4376,81.1878
12:15:11.513,25.8751,84.8128
12:15:11.522,26.5001,84.7503
12:15:11.531,26.3751,86.6878
12:15:11.541,27.8751,86.0628
12:15:11.551,27.1251,86.1878
12:15:11.561,26.8751,84.5003
12:15:11.571,24.8751,81.3128
12:15:11.581,22.7501,75.1878
12:15:11.592,19.5001,68.0003
12:15:11.601,15.6251,58.6252
12:15:11.610,10.875,48.5627
12:15:11.621,4.625,38.4376
12:15:11.631,0.3125,26.5626
12:15:11.641,-5.5625,15.8751
12:15:11.651,-10.375,5.5
12:15:11.661,-14.0626,-5.0625
12:15:11.672,-17.8751,-11.6875
12:15:11.700,-21.0001,-17.9376
12:15:11.702,-23.5001,-23.3751
12:15:11.707,-25.4376,-28.4376
12:15:11.711,-26.9376,-32.5626
12:15:11.722,-27.8751,-36.0001
12:15:11.731,-29.3126,-38.0626
12:15:11.741,-30.2501,-41.1252
12:15:11.750,-31.1876,-44.2502
12:15:11.760,-31.5001,-45.5002
12:15:11.773,-30.8126,-46.4377
12:15:11.781,-28.7501,-41.3752
12:15:11.791,-25.3751,-38.2501
12:15:11.800,-21.4376,-31.7501
12:15:11.810,-17.1876,-26.0626
12:15:11.824,-13.6251,-17.6876
12:15:11.831,-8.25,-10.5
12:15:11.841,-4.6875,-4.125
12:15:11.851,-2.75,0.3125
12:15:11.860,-0.6875,2.75
12:15:11.870,-1.0625,5.0625
12:15:11.881,-0.625,3.8125
12:15:11.897,-0.125,4.4375
12:15:11.899,-0.3125,1.9375
12:15:11.911,0.125,1.5625
12:15:11.946,-0.6875,2.375
12:15:11.948,-0.5,0.875
12:15:11.951,-1.75,-1.375
12:15:11.953,-4.75,-8.75
12:15:11.982,-7.9375,-15.4376
12:15:11.985,-12.25,-23.1251
12:15:11.988,-15.0626,-29.5001
12:15:11.991,-17.6876,-37.1251
12:15:12.020,-21.6876,-41.9377
12:15:12.022,-23.1876,-48.6252
12:15:12.026,-26.0001,-52.1877
12:15:12.031,-27.2501,-54.9377
12:15:12.053,-29.1876,-56.4377
12:15:12.054,-29.6251,-59.8127
12:15:12.085,-29.5626,-60.6877
12:15:12.089,-30.7501,-61.0627
12:15:12.091,-29.5001,-61.5002
12:15:12.095,-30.9376,-62.3752
12:15:12.101,-30.7501,-63.3752
12:15:12.111,-31.4376,-64.3127
12:15:12.121,-29.6251,-62.5002
12:15:12.131,-25.9376,-56.3752
12:15:12.141,-20.1251,-50.6252
12:15:12.150,-14.7501,-42.6252
12:15:12.164,-10.8125,-37.1251
12:15:12.171,-9.6875,-33.6876
12:15:12.181,-7.875,-31.5001
12:15:12.191,-7.4375,-31.1251
12:15:12.200,-7.4375,-30.8751
12:15:12.211,-7.0625,-31.2501
12:15:12.221,-7.375,-30.7501
12:15:12.233,-5.9375,-30.1251
12:15:12.241,-5.0625,-26.5626
12:15:12.251,-2.6875,-21.0001
12:15:12.261,0.4375,-9.5625
12:15:12.273,3.6875,6.1875
12:15:12.284,7.25,18.5626
12:15:12.290,9,27.6251
12:15:12.301,9.4375,33.7501
12:15:12.311,9.1875,36.5626
12:15:12.321,8.5625,38.7501
12:15:12.332,6,36.0001
12:15:12.341,2.8125,32.0626
12:15:12.351,-0.125,25.4376
12:15:12.361,-3.75,19.6251
12:15:12.371,-6.75,14.3126
12:15:12.381,-8,12.0625
12:15:12.391,-9.25,8.25
12:15:12.402,-9.5625,7.0625
12:15:12.418,-10.1875,5.5
12:15:12.435,-9.875,6.75
12:15:12.436,-9.75,6.25
12:15:12.440,-10.125,6.25
12:15:12.452,-11.75,4.6875
12:15:12.461,-13.2501,-1
12:15:12.471,-13.5626,-1.5625
12:15:12.481,-11.9375,-1.125
12:15:12.490,-7,4.625
12:15:12.501,-0.4375,13.8751
12:15:12.511,5.4375,24.0626
12:15:12.520,10.875,32.6251
12:15:12.530,15.1876,41.1252
12:15:12.540,17.4376,43.6252
12:15:12.551,18.3126,45.0627
12:15:12.559,17.5626,46.5002
12:15:12.571,17.0001,44.1877
12:15:12.581,16.2501,42.7502
12:15:12.591,16.6876,43.6877
12:15:12.602,16.8751,41.7502
12:15:12.610,17.2501,42.7502
12:15:12.621,16.9376,40.4377
12:15:12.629,16.8126,40.4377
12:15:12.648,15.0626,38.3751
12:15:12.652,13,31.5001
12:15:12.659,10.5,26.3751
12:15:12.671,5.375,17.8751
12:15:12.681,1.9375,8.625
12:15:12.691,-2.6875,-0.9375
12:15:12.700,-6.25,-10.625
12:15:12.711,-10.5,-18.9376
12:15:12.720,-12.625,-26.4376
12:15:12.731,-15.4376,-31.3751
12:15:12.752,-16.6251,-36.0001
12:15:12.755,-18.5001,-39.6877
12:15:12.760,-19.0001,-42.1877
