timestamp,Red,IR
11:58:20.181,10.25,20.1251
11:58:20.191,9.25,18.6876
11:58:20.201,8.625,17.2501
11:58:20.211,7.8125,16.6876
11:58:20.222,7.6875,16.7501
11:58:20.234,6.625,14.8751
11:58:20.241,6.5625,12.9375
11:58:20.251,5.25,11
11:58:20.264,4.25,9.25
11:58:20.271,4.125,8.5625
11:58:20.281,3.25,8.0625
11:58:20.291,3.0625,7
11:58:20.301,2.3125,4.4375
11:58:20.313,1.375,2.5
11:58:20.321,0.75,2.9375
11:58:20.331,0.5,1.1875
11:58:20.341,-0.125,0
11:58:20.351,-1,0.3125
11:58:20.362,-1.1875,-2.1875
11:58:20.372,-2.5,-4.125
11:58:20.381,-3.125,-4.4375
11:58:20.391,-3.4375,-5.5
11:58:20.401,-3.25,-7.625
11:58:20.411,-4.75,-8.875
11:58:20.421,-5.4375,-8.8125
11:58:20.431,-5.1875,-10.6875
11:58:20.441,-6.1875,-12
11:58:20.451,-7.5,-13.4376
11:58:20.461,-8.0625,-13.6251
11:58:20.484,-8.9375,-15.5001
11:58:20.494,-8.8125,-17.3751
11:58:20.537,-9.8125,-18.7501
11:58:20.538,-10.6875,-19.2501
11:58:20.540,-11.0625,-20.3751
11:58:20.546,-12.0625,-21.8126
11:58:20.548,-11.875,-22.5626
11:58:20.548,-11.3125,-21.3751
11:58:20.551,-8.8125,-17.7501
11:58:20.562,-5,-13.7501
11:58:20.571,-2.125,-6.4375
11:58:20.581,2.375,-0.625
11:58:20.592,5.5,5.0625
11:58:20.602,8.5,11.0625
11:58:20.612,10.625,14.8751
11:58:20.621,12.375,18.4376
11:58:20.631,12.9375,19.1876
11:58:20.642,13.1876,21.2501
11:58:20.652,13.4376,21.9376
11:58:20.661,13.5626,22.8126
11:58:20.671,14.1251,23.9376
11:58:20.681,14.6251,23.6876
11:58:20.694,14.8126,24.3751
11:58:20.722,15.0001,24.9376
11:58:20.724,15.3751,27.1876
11:58:20.726,16.5001,27.3126
11:58:20.731,16.3126,29.6251
11:58:20.763,16.7501,29.1876
11:58:20.764,17.5001,29.2501
11:58:20.766,17.8751,31.3126
11:58:20.771,18.0626,31.3126
11:58:20.803,18.5626,31.5001
11:58:20.804,18.2501,31.3126
11:58:20.806,17.7501,29.9376
11:58:20.839,16.8126,29.8126
11:58:20.839,16.8126,29.1251
11:58:20.843,15.7501,27.0626
11:58:20.848,14.8751,25.6251
11:58:20.851,14.0626,24.6876
11:58:20.876,14.2501,24.1251
11:58:20.879,14.8126,23.5626
11:58:20.882,14.1876,22.9376
11:58:20.891,13.6251,22.8751
11:58:20.902,13.6251,22.8751
11:58:20.913,13.6876,21.5626
11:58:20.922,12.75,20.5001
11:58:20.931,12.0625,20.6251
11:58:20.941,12.0625,20.2501
11:58:20.952,11.5625,18.5626
11:58:20.962,11.0625,18.9376
11:58:20.971,10.5625,19.0626
11:58:20.982,10.5625,17.0626
11:58:20.991,9.6875,15.0001
11:58:21.001,9.375,14.6876
11:58:21.011,7.9375,12.8125
11:58:21.021,7.1875,12.9375
11:58:21.031,6.5,11.4375
11:58:21.041,6.0625,9.5
11:58:21.051,4.875,7.8125
11:58:21.061,4,7.3125
11:58:21.072,3.5,6.375
11:58:21.081,3.6875,4.25
11:58:21.091,3,2.625
11:58:21.101,1.75,1.25
11:58:21.111,0.8125,1.75
11:58:21.121,0.4375,-0.875
11:58:21.131,-0.25,-2.8125
11:58:21.141,-1,-2.4375
11:58:21.152,-2.125,-3.6875
11:58:21.161,-2.125,-6.1875
11:58:21.171,-2.875,-6.0625
11:58:21.181,-3.1875,-6.9375
11:58:21.193,-4.25,-8.6875
11:58:21.201,-4.6875,-9.375
11:58:21.212,-6.0625,-9.9375
11:58:21.221,-6.0625,-11.5625
11:58:21.232,-6.4375,-13.6876
11:58:21.242,-7.375,-14.1876
11:58:21.251,-8.375,-14.5001
11:58:21.261,-8.625,-16.5626
11:58:21.271,-9.25,-17.4376
11:58:21.292,-10.75,-18.3126
11:58:21.299,-10.625,-19.6876
11:58:21.304,-12.5625,-21.1876
11:58:21.311,-12.6875,-22.7501
11:58:21.326,-14.1251,-23.8751
11:58:21.335,-14.6251,-24.2501
11:58:21.341,-14.0626,-24.6876
11:58:21.351,-12.8125,-22.5626
11:58:21.361,-10.4375,-18.9376
11:58:21.371,-6.9375,-12.5
11:58:21.381,-2.75,-6.375
11:58:21.391,-0.1875,0.25
11:58:21.401,3.5,4.6875
11:58:21.411,5.4375,10.625
11:58:21.420,6.9375,13.1251
11:58:21.447,8.25,15.6876
11:58:21.449,8.5625,17.0001
11:58:21.452,9.125,17.4376
11:58:21.481,8.9375,18.8751
11:58:21.484,9.4375,19.8126
11:58:21.486,8.875,19.6876
11:58:21.493,9.1875,20.4376
11:58:21.522,9.3125,21.1251
11:58:21.525,9.625,22.0001
11:58:21.527,9.5,22.3126
11:58:21.535,9.5,24.1251
11:58:21.541,10.375,23.8126
11:58:21.571,10.125,23.1251
11:58:21.573,10.4375,24.8751
11:58:21.576,10.25,24.8751
11:58:21.584,10.25,26.0001
11:58:21.606,10.625,25.5626
11:58:21.609,10.5625,24.6876
11:58:21.611,8.875,23.3751
11:58:21.629,7.9375,23.1876
11:58:21.631,7,21.5001
11:58:21.643,6.9375,20.2501
11:58:21.651,5.5625,18.5001
11:58:21.661,5.25,18.3126
11:58:21.672,4.6875,17.0626
11:58:21.681,4.6875,16.6876
11:58:21.691,4.0625,17.3126
11:58:21.701,4,15.5626
11:58:21.712,3.125,14.8126
11:58:21.721,3.375,15.9376
11:58:21.731,3,14.6251
11:58:21.741,2.6875,13.6251
11:58:21.752,1.4375,13.8126
11:58:21.783,1.3125,11.9375
11:58:21.785,0.6875,10.5
11:58:21.787,0,10.625
11:58:21.792,0,10.375
11:58:21.812,-1.125,8.3125
11:58:21.817,-1.75,6.8125
11:58:21.826,-2,6.1875
11:58:21.831,-2.9375,5.8125
11:58:21.849,-3.3125,4.375
11:58:21.852,-3.4375,2.875
11:58:21.867,-4.25,1.4375
11:58:21.871,-5.1875,1.375
11:58:21.881,-5.5625,-0.875
11:58:21.892,-6.25,-1.9375
11:58:21.901,-6.875,-2.625
11:58:21.911,-6.625,-3.375
11:58:21.921,-6.75,-5
11:58:21.931,-7.5,-5.625
11:58:21.941,-8.4375,-6.5625
11:58:21.952,-8.875,-7.375
11:58:21.961,-10.0625,-10.125
11:58:21.971,-11.125,-9.4375
11:58:21.981,-11.9375,-11.25
11:58:21.991,-12.25,-12.6875
11:58:22.002,-12.875,-13.1876
11:58:22.012,-12.75,-13.8126
11:58:22.021,-12.25,-14.9376
11:58:22.031,-12.9375,-15.8751
11:58:22.041,-12.75,-16.0001
11:58:22.051,-13.1251,-17.2501
11:58:22.061,-13.6876,-17.5001
11:58:22.071,-12.6875,-18.0626
11:58:22.081,-13.6251,-19.3751
11:58:22.091,-14.5001,-20.3751
11:58:22.101,-14.7501,-20.8751
11:58:22.142,-14.8751,-22.2501
11:58:22.143,-15.5626,-21.5626
11:58:22.145,-15.7501,-23.3751
11:58:22.148,-16.1876,-24.2501
11:58:22.152,-16.8751,-25.6876
11:58:22.187,-16.7501,-26.1876
11:58:22.190,-16.8126,-26.5001
11:58:22.193,-15.4376,-24.9376
11:58:22.199,-13.1251,-22.9376
11:58:22.202,-10,-16.2501
11:58:22.237,-5.5625,-11.3125
11:58:22.237,-1.3125,-3.5
11:58:22.240,2.625,2.25
11:58:22.242,6.375,9.4375
11:58:22.273,8.1875,13.3751
11:58:22.277,10.5,17.8126
11:58:22.279,11.8125,20.0001
11:58:22.283,12.5625,22.8126
11:58:22.296,13.2501,24.0001
11:58:22.301,13.5001,25.3126
11:58:22.316,13.9376,26.7501
11:58:22.322,14.8751,27.3126
11:58:22.331,14.6876,28.1876
11:58:22.341,15.8126,30.6251
11:58:22.351,16.5626,30.8751
11:58:22.361,17.2501,32.5626
11:58:22.375,18.0001,33.7501
11:58:22.384,18.8126,34.9376
11:58:22.392,19.3126,37.2501
11:58:22.403,19.9376,38.2501
11:58:22.411,20.6876,38.1876
11:58:22.421,20.4376,39.0001
11:58:22.431,20.7501,39.8752
11:58:22.443,20.6876,39.6252
11:58:22.452,20.6876,39.0001
11:58:22.485,19.5001,38.1876
11:58:22.487,18.8126,37.8126
11:58:22.490,18.9376,35.6876
11:58:22.498,18.1251,34.4376
11:58:22.507,17.3751,32.4376
11:58:22.516,16.1876,32.6876
11:58:22.527,16.5626,31.3126
11:58:22.537,16.2501,30.2501
11:58:22.547,16.2501,30.7501
11:58:22.556,16.0626,29.6876
11:58:22.567,15.2501,28.2501
11:58:22.576,14.6876,28.6876
11:58:22.586,14.3751,27.5626
11:58:22.597,14.0001,26.3751
11:58:22.607,13.0625,24.8751
11:58:22.621,12.375,25.4376
11:58:22.628,12.0625,22.7501
11:58:22.636,10.75,20.7501
11:58:22.651,9.6875,20.6876
11:58:22.667,9.3125,18.7501
11:58:22.670,8.5625,17.0001
11:58:22.676,7.375,17.2501
11:58:22.686,7.25,15.3751
11:58:22.696,6.125,13.2501
11:58:22.706,4.9375,11.8125
11:58:22.716,3.625,10.75
11:58:22.727,3.1875,8.625
11:58:22.736,2.6875,6.375
11:58:22.746,1.25,6
11:58:22.759,1,4.1875
11:58:22.767,-0.25,2.25
11:58:22.776,-1.0625,1.5
11:58:22.786,-2.3125,-0.0625
11:58:22.796,-2.125,-1.375
11:58:22.806,-3.5625,-3.5
11:58:22.816,-4,-5.125
11:58:22.826,-5.25,-6.25
11:58:22.836,-5.9375,-6
11:58:22.846,-6.0625,-7.9375
11:58:22.856,-7.125,-9.625
11:58:22.890,-8.0625,-10.8125
11:58:22.892,-8.5625,-12
11:58:22.893,-8.9375,-13.3751
11:58:22.897,-9.8125,-14.1251
11:58:22.930,-10.375,-14.7501
11:58:22.931,-11.25,-17.5001
11:58:22.933,-11.625,-17.8126
11:58:22.938,-11.6875,-18.9376
11:58:22.969,-12.625,-19.5626
11:58:22.971,-12.875,-20.8751
11:58:22.973,-13.5626,-22.0001
11:58:22.981,-13.3126,-23.7501
11:58:22.986,-14.9376,-24.6251
11:58:23.027,-15.1876,-25.8751
11:58:23.028,-15.8126,-27.0001
11:58:23.030,-15.1876,-27.5001
11:58:23.033,-14.6876,-26.1251
11:58:23.038,-12.625,-22.0626
11:58:23.063,-8.8125,-18.6251
11:58:23.065,-6.3125,-11.4375
11:58:23.070,-1.875,-6.4375
11:58:23.076,0.5625,0.0625
11:58:23.087,3.75,4.375
11:58:23.098,5.6875,8.1875
11:58:23.107,6.4375,12
11:58:23.121,7.375,12.125
11:58:23.143,8,14.1251
11:58:23.145,7.9375,14.5626
11:58:23.154,7.8125,15.0626
11:58:23.161,7.6875,14.7501
11:58:23.177,7.5,15.5626
11:58:23.183,7.5,15.6876
11:58:23.191,7.5625,16.9376
11:58:23.201,8.5,17.5626
11:58:23.212,7.625,18.0626
11:58:23.221,8.375,18.6876
11:58:23.232,8.375,17.9376
11:58:23.241,8.625,19.0626
11:58:23.252,8.5625,19.0001
11:58:23.261,8.1875,18.6251
11:58:23.271,7.4375,17.9376
11:58:23.282,7.3125,19.2501
11:58:23.291,7.25,17.0626
11:58:23.301,6,15.8126
11:58:23.311,4.625,14.8126
11:58:23.322,5.0625,13.4376
11:58:23.331,4.25,11.9375
11:58:23.341,3,10.25
11:58:23.352,1.875,9.5
11:58:23.361,1.0625,9.1875
11:58:23.372,1.5625,8.3125
11:58:23.381,0.25,6.6875
11:58:23.391,-0.25,6.375
11:58:23.401,0.375,6.1875
11:58:23.411,-0.6875,4.375
11:58:23.421,-1.625,5.25
11:58:23.431,-0.6875,4
11:58:23.441,-1.5625,2.125
11:58:23.451,-2.75,0.875
11:58:23.462,-3.1875,1.125
11:58:23.472,-3.3125,-0.4375
11:58:23.481,-4.9375,-2.6875
11:58:23.492,-5.6875,-3.5
11:58:23.501,-5.5625,-4.9375
11:58:23.516,-6.875,-6.75
11:58:23.521,-8.375,-6.75
11:58:23.531,-8.6875,-9
11:58:23.541,-9.125,-11.25
11:58:23.551,-9.6875,-11.3125
11:58:23.562,-11,-14.1876
11:58:23.571,-11.1875,-14.0626
11:58:23.581,-11.6875,-16.0001
11:58:23.591,-12.1875,-16.5626
11:58:23.601,-13.3751,-18.3126
11:58:23.611,-14.4376,-19.3751
11:58:23.621,-14.1876,-20.8126
11:58:23.631,-15.5626,-21.9376
11:58:23.666,-15.5626,-23.2501
11:58:23.667,-16.8751,-24.0001
11:58:23.670,-16.6251,-25.1251
11:58:23.672,-17.3126,-26.9376
11:58:23.702,-18.0626,-27.8126
11:58:23.705,-18.8126,-28.1251
11:58:23.707,-19.7501,-30.3751
11:58:23.733,-19.5626,-29.9376
11:58:23.734,-20.4376,-32.2501
11:58:23.736,-20.3751,-31.8751
11:58:23.743,-21.4376,-33.6876
11:58:23.760,-22.5626,-34.3126
11:58:23.763,-22.3126,-35.6251
11:58:23.788,-23.5626,-37.0626
11:58:23.790,-24.4376,-38.0001
11:58:23.792,-25.1876,-39.0627
11:58:23.817,-25.5001,-39.6252
11:58:23.820,-25.5626,-40.3127
11:58:23.823,-24.8126,-37.8126
11:58:23.831,-21.7501,-34.7501
11:58:23.841,-17.8751,-29.1876
11:58:23.852,-15.0626,-23.8751
11:58:23.861,-12.3125,-16.7501
11:58:23.871,-8.875,-12.75
11:58:23.882,-7.375,-8.125
11:58:23.890,-5.75,-6.875
11:58:23.902,-5.5625,-4.5
11:58:23.912,-4.9375,-4.1875
11:58:23.921,-5.5625,-3.125
11:58:23.937,-5.375,-2.5
11:58:23.940,-5.875,-3.3125
11:58:23.956,-5.375,-2.1875
11:58:23.962,-5.3125,-3.1875
11:58:23.971,-5.0625,-1.6875
11:58:23.981,-5.625,-2.6875
11:58:23.991,-5.1875,-0.875
11:58:24.001,-5.25,-1.5
11:58:24.011,-4.625,0.125
11:58:24.020,-4,-0.4375
11:58:24.031,-4.8125,0.6875
11:58:24.039,-4.1875,0.25
11:58:24.051,-4.0625,0.9375
11:58:24.059,-4.6875,-0.0625
11:58:24.072,-4.875,0.1875
11:58:24.080,-5.4375,0.0625
11:58:24.091,-5.5625,-2.75
11:58:24.100,-7,-4.25
11:58:24.111,-7.6875,-4.5
11:58:24.121,-8.25,-6.4375
11:58:24.131,-8.5625,-6.6875
11:58:24.143,-9.125,-8.375
11:58:24.152,-9.4375,-8.4375
11:58:24.160,-9.8125,-9.5
11:58:24.171,-10.625,-9.3125
11:58:24.181,-9.9375,-10.5625
11:58:24.191,-10.3125,-10.375
11:58:24.200,-10.25,-10.9375
11:58:24.211,-11.25,-11.375
11:58:24.220,-10.625,-11.875
11:58:24.232,-11.9375,-12.5625
11:58:24.240,-11.6875,-12.6875
11:58:24.251,-12.25,-13.6251
11:58:24.265,-12.125,-14.5626
11:58:24.274,-13.3126,-14.8751
11:58:24.280,-13,-16.4376
11:58:24.291,-13.6876,-17.5626
11:58:24.332,-14.9376,-19.4376
11:58:24.334,-15.0626,-19.1876
11:58:24.336,-15.2501,-20.8126
11:58:24.351,-16.1251,-21.3751
11:58:24.353,-17.0626,-23.0001
11:58:24.379,-18.1876,-24.2501
11:58:24.381,-17.7501,-25.3126
11:58:24.383,-18.9376,-26.4376
11:58:24.410,-18.7501,-27.4376
11:58:24.413,-19.7501,-27.7501
11:58:24.415,-19.7501,-28.6876
11:58:24.423,-21.4376,-29.9376
11:58:24.428,-21.3126,-30.4376
11:58:24.462,-22.1251,-31.7501
11:58:24.465,-22.0626,-32.8126
11:58:24.484,-22.5626,-33.1251
11:58:24.496,-23.2501,-34.3751
11:58:24.498,-23.9376,-34.8126
11:58:24.501,-24.8751,-36.2501
11:58:24.501,-26.0626,-36.8126
11:58:24.506,-26.0626,-38.2501
11:58:24.515,-26.3126,-39.4377
11:58:24.526,-27.5001,-39.0001
11:58:24.535,-27.7501,-40.5627
11:58:24.546,-27.6876,-41.5627
11:58:24.555,-28.2501,-41.6252
11:58:24.567,-28.5626,-41.5627
11:58:24.576,-29.1251,-43.6877
11:58:24.586,-29.4376,-44.2502
11:58:24.595,-30.1876,-44.7502
11:58:24.606,-30.8126,-45.6877
11:58:24.615,-30.7501,-47.0627
11:58:24.626,-31.5001,-48.4377
11:58:24.641,-32.1876,-47.3127
11:58:24.646,-32.5001,-48.9377
11:58:24.656,-33.3751,-50.0002
11:58:24.665,-32.4376,-49.3127
11:58:24.676,-31.1876,-47.2502
11:58:24.686,-28.9376,-42.1252
11:58:24.696,-24.0626,-37.3751
11:58:24.705,-21.1251,-30.2501
11:58:24.716,-16.8751,-25.5626
11:58:24.725,-14.6251,-19.5001
11:58:24.736,-12.3125,-15.8126
11:58:24.745,-10.6875,-12.5
11:58:24.756,-9.8125,-11.4375
11:58:24.765,-9.9375,-9.125
11:58:24.777,-9.375,-10.1875
11:58:24.785,-9.75,-8.8125
11:58:24.796,-9.625,-10
11:58:24.805,-10,-9.875
11:58:24.816,-9.75,-9.1875
11:58:24.827,-9.625,-9.3125
11:58:24.836,-8.25,-8.1875
11:58:24.844,-7.875,-7.6875
11:58:24.856,-7.8125,-6.125
11:58:24.865,-7.5,-6.25
11:58:24.876,-6.5625,-4.375
11:58:24.886,-6.8125,-5.125
11:58:24.896,-6,-3.8125
11:58:24.906,-5.3125,-3.625
11:58:24.916,-5.6875,-3.375
11:58:24.926,-5.25,-3.5
11:58:24.935,-5.25,-3.4375
11:58:24.946,-5.4375,-4.5
11:58:24.954,-6.25,-5.3125
11:58:24.966,-6.75,-6.75
11:58:24.975,-7.3125,-6.375
11:58:24.986,-7.625,-8.5625
11:58:24.994,-7.25,-7.875
11:58:25.006,-7.0625,-9.125
11:58:25.020,-6.25,-8.0625
11:58:25.027,-6.5625,-9.5
11:58:25.036,-6.5625,-8.6875
11:58:25.046,-6.125,-9.5625
11:58:25.056,-6.625,-8.625
11:58:25.066,-5.9375,-9.3125
11:58:25.075,-6.25,-8.875
11:58:25.086,-6,-8.75
11:58:25.109,-5,-9.25
11:58:25.111,-5.5,-9
11:58:25.117,-5.125,-10.5
11:58:25.156,-5.625,-9.75
11:58:25.158,-5.3125,-11.3125
11:58:25.160,-6.1875,-10.9375
11:58:25.167,-6,-13
11:58:25.170,-6.3125,-12.9375
11:58:25.176,-5.875,-14.4376
11:58:25.204,-6.75,-14.1876
11:58:25.206,-6.875,-14.8126
11:58:25.209,-7.5,-15.4376
11:58:25.217,-6.9375,-16.6251
11:58:25.248,-7.9375,-16.1876
11:58:25.251,-7.9375,-18.5626
11:58:25.288,-8.8125,-18.0626
11:58:25.292,-8.75,-19.8126
11:58:25.292,-9.0625,-20.3126
11:58:25.292,-9.375,-21.4376
11:58:25.295,-9.5,-21.6251
11:58:25.300,-9.4375,-23.1876
11:58:25.305,-10.375,-22.0001
11:58:25.316,-10,-23.5626
11:58:25.325,-10.75,-24.0001
11:58:25.335,-10.9375,-25.5626
11:58:25.346,-11.75,-25.2501
11:58:25.355,-12.25,-26.5001
11:58:25.367,-13.0625,-26.3751
11:58:25.375,-12.5625,-28.1251
11:58:25.386,-13.4376,-27.6876
11:58:25.395,-13.1876,-29.3751
11:58:25.406,-13.5001,-29.9376
11:58:25.415,-14.5001,-29.5001
11:58:25.426,-15.3126,-30.7501
11:58:25.436,-15.7501,-32.2501
11:58:25.445,-15.3126,-33.0001
11:58:25.456,-15.8751,-33.8751
11:58:25.465,-16.4376,-34.8126
11:58:25.476,-16.8126,-34.5001
11:58:25.485,-17.5001,-36.3751
11:58:25.495,-17.3126,-36.9376
11:58:25.506,-18.3751,-36.0001
11:58:25.515,-18.2501,-37.0001
11:58:25.527,-17.0626,-36.7501
11:58:25.537,-15.0626,-33.5001
11:58:25.546,-13.1251,-28.1251
11:58:25.555,-9.125,-24.2501
11:58:25.566,-5.5,-16.3751
11:58:25.575,-2.5,-12.125
11:58:25.586,0,-6
11:58:25.595,2.5625,-3.8125
11:58:25.624,3.375,-2.25
11:58:25.627,3.9375,0.625
11:58:25.629,4.1875,0
11:58:25.635,3.125,0.5625
11:58:25.645,3.4375,0.5625
11:58:25.655,3.3125,0.1875
11:58:25.664,3.125,1
11:58:25.675,3.25,0.5
11:58:25.687,3.1875,1
11:58:25.695,3.375,0.6875
11:58:25.706,3.0625,2.6875
11:58:25.717,4.1875,2.0625
11:58:25.724,3.875,3.6875
11:58:25.735,4.25,2.9375
11:58:25.745,4.5625,4.25
11:58:25.763,5.375,3.8125
11:58:25.770,4.8125,5.75
11:58:25.814,5.6875,4.0625
11:58:25.816,4.625,3.5
11:58:25.818,4.1875,3.5625
11:58:25.821,3.75,2.125
11:58:25.827,3.3125,2.3125
11:58:25.827,4.1875,1.0625
11:58:25.863,2.5,0.125
11:58:25.866,2.125,0.125
11:58:25.867,2.3125,-1.5625
11:58:25.870,1.6875,-0.5
11:58:25.876,2.1875,-0.875
11:58:25.908,1.8125,-2.0625
11:58:25.908,1.75,-1.5
11:58:25.911,2.6875,-1.8125
11:58:25.919,2.0625,-1.9375
11:58:25.927,1.5625,-2.75
11:58:25.956,2.0625,-1.4375
11:58:25.959,2.125,-2.8125
11:58:25.961,1.4375,-3.6875
11:58:25.966,1.1875,-4.3125
11:58:25.974,0.5625,-5.8125
11:58:25.984,-0.3125,-4.9375
11:58:25.994,-0.3125,-6.875
11:58:26.005,-1.375,-7.375
11:58:26.016,-1.4375,-7.9375
11:58:26.025,-2.125,-9.25
11:58:26.036,-3.125,-10
11:58:26.046,-3,-11.5625
11:58:26.056,-3.8125,-12.5
11:58:26.064,-4.6875,-11.9375
11:58:26.075,-4.3125,-13.6876
11:58:26.085,-5.4375,-13.4376
11:58:26.095,-5.0625,-15.5001
11:58:26.105,-6.875,-16.4376
11:58:26.115,-7.0625,-16.5626
11:58:26.125,-7.875,-18.8126
11:58:26.137,-8.375,-19.5626
11:58:26.145,-9.375,-20.7501
11:58:26.162,-10,-21.0001
11:58:26.168,-11.125,-22.1251
11:58:26.175,-11.8125,-23.0626
11:58:26.186,-12.5625,-25.1876
11:58:26.195,-13.5626,-24.6251
11:58:26.204,-14.0626,-24.7501
11:58:26.215,-13.5001,-26.0001
11:58:26.225,-14.7501,-25.5626
11:58:26.235,-14.1251,-27.0626
11:58:26.244,-14.6876,-27.5626
11:58:26.257,-15.5626,-27.8751
11:58:26.264,-15.6876,-29.4376
11:58:26.275,-17.4376,-30.0626
11:58:26.285,-17.8126,-31.2501
11:58:26.295,-18.1251,-32.6251
11:58:26.305,-18.1251,-32.9376
11:58:26.314,-19.3751,-32.5626
11:58:26.327,-18.0001,-32.0001
11:58:26.335,-16.1876,-28.4376
11:58:26.345,-12.4375,-24.1876
11:58:26.355,-10.125,-18.3751
11:58:26.366,-5.375,-12.0625
11:58:26.375,-3.1875,-6.375
11:58:26.385,-0.8125,-2.5625
11:58:26.395,0.4375,1.125
11:58:26.405,1.125,2.8125
11:58:26.416,1.0625,4.4375
11:58:26.424,1.625,4.1875
11:58:26.435,1.0625,4.625
11:58:26.445,0.6875,3.9375
11:58:26.455,-0.3125,3.9375
11:58:26.465,0.3125,4.1875
11:58:26.475,-0.1875,4.5625
11:58:26.485,0.25,4.625
11:58:26.497,0.1875,5.375
11:58:26.506,1,5.9375
11:58:26.515,1.0625,7.3125
11:58:26.525,2.625,7.75
11:58:26.538,2.75,8.75
11:58:26.571,3.0625,9
11:58:26.573,2.75,10
11:58:26.653,3.625,10.25
11:58:26.653,2.6875,10.25
11:58:26.653,2.375,9.6875
11:58:26.681,2.3125,8.5625
11:58:26.683,1.1875,6.75
11:58:26.683,0.1875,7.125
11:58:26.686,-0.25,5.5
11:58:26.687,-0.3125,5.125
11:58:26.691,1.125,5.3125
11:58:26.716,1.0625,5.1875
11:58:26.719,0.75,4.9375
11:58:26.722,1.0625,6.125
11:58:26.729,0.8125,6
11:58:26.736,2.125,5.6875
11:58:26.744,1.75,5.1875
11:58:26.755,0.375,5.625
11:58:26.766,0.625,5.5625
11:58:26.775,1.3125,4.8125
11:58:26.785,1.375,3.75
11:58:26.795,0.8125,3.125
11:58:26.805,0.375,2.75
11:58:26.818,-0.625,1.875
11:58:26.825,-2.625,-2.75
11:58:26.835,-3.75,-2.8125
11:58:26.845,-2.875,-3.875
11:58:26.855,-3.75,-4.6875
11:58:26.865,-4.1875,-6
11:58:26.875,-4.8125,-5.125
11:58:26.905,-4.6875,-6.3125
11:58:26.908,-4.9375,-7.75
11:58:26.909,-5.875,-8
11:58:26.915,-5.75,-8.5
11:58:26.928,-6.3125,-9.9375
11:58:26.936,-7.25,-11.8125
11:58:26.945,-7.1875,-10.875
11:58:26.954,-7.125,-10.8125
11:58:26.964,-7.125,-12.75
11:58:26.977,-7.9375,-13.1876
11:58:26.985,-8.1875,-14.3126
11:58:26.994,-8.625,-14.3126
11:58:27.004,-9.5625,-15.7501
11:58:27.015,-9.3125,-15.2501
11:58:27.025,-10.25,-17.3751
11:58:27.036,-10.4375,-17.0626
11:58:27.045,-10.75,-18.0001
11:58:27.054,-11.1875,-18.4376
11:58:27.065,-11.8125,-19.7501
11:58:27.084,-12.125,-21.0001
11:58:27.093,-12.25,-21.1251
11:58:27.108,-12.4375,-22.0001
11:58:27.122,-13.3751,-21.5001
11:58:27.124,-12.75,-22.4376
11:58:27.129,-12.25,-20.1876
11:58:27.136,-9.25,-17.7501
11:58:27.144,-5.8125,-12.6875
11:58:27.154,-2.4375,-6.5
11:58:27.170,0.5625,0.25
11:58:27.180,4.375,5.5625
11:58:27.191,6.5,10.625
11:58:27.200,9.25,13.5626
11:58:27.232,9.375,17.3751
11:58:27.235,10.3125,17.8126
11:58:27.236,10.875,18.5626
11:58:27.241,10.625,19.1251
11:58:27.270,10.6875,18.5626
11:58:27.273,11.125,20.0001
11:58:27.275,11.125,20.1251
11:58:27.281,10.625,21.2501
11:58:27.313,10.75,22.1251
11:58:27.315,12.125,22.1251
11:58:27.317,11.4375,24.4376
11:58:27.346,13,24.3126
11:58:27.346,13.8751,27.3126
11:58:27.350,13.9376,26.8126
11:58:27.354,14.1876,26.8751
11:58:27.369,13.5626,28.0001
11:58:27.371,14.1251,28.1876
11:58:27.391,14.2501,28.0626
11:58:27.393,12.9375,26.0001
11:58:27.400,12.4375,25.8126
11:58:27.410,12.5625,25.1251
11:58:27.421,11.625,23.8126
11:58:27.430,10.375,22.3751
11:58:27.439,11.0625,22.6251
11:58:27.452,10.3125,21.5626
11:58:27.459,9.8125,21.3126
11:58:27.473,9.8125,21.5001
11:58:27.479,10.75,21.5001
11:58:27.490,10.4375,20.6876
11:58:27.501,9.625,20.1251
11:58:27.511,8.8125,19.7501
11:58:27.519,8.8125,20.1876
11:58:27.530,8.5,18.6251
11:58:27.540,8.125,18.5001
11:58:27.550,7.625,18.6251
11:58:27.559,7.9375,17.5626
11:58:27.570,8.1875,16.7501
11:58:27.580,7.375,15.6251
11:58:27.589,6.8125,15.1251
11:58:27.601,6.5,14.6251
11:58:27.611,5.9375,13.3751
11:58:27.619,5.375,12.5625
11:58:27.630,5.125,12.625
11:58:27.640,5.1875,10.4375
11:58:27.650,4.1875,9
11:58:27.660,3.9375,9.5
11:58:27.670,3.5625,8.3125
11:58:27.680,2.9375,7.1875
11:58:27.691,1.625,5.9375
11:58:27.699,1.6875,4.6875
11:58:27.709,1.3125,3.25
11:58:27.720,0.1875,2.5625
11:58:27.730,-0.25,2.3125
11:58:27.740,-0.125,0.5625
11:58:27.750,-1.5,-0.9375
11:58:27.760,-2.1875,-0.9375
11:58:27.770,-1.875,-2.125
11:58:27.781,-2.8125,-3.1875
11:58:27.790,-3.25,-4.625
11:58:27.799,-3.875,-4.6875
11:58:27.809,-3.5625,-5
11:58:27.819,-5.25,-6.6875
11:58:27.829,-6.1875,-7.5
11:58:27.840,-5.75,-9
11:58:27.850,-6.5625,-10.0625
11:58:27.859,-7.0625,-10.125
11:58:27.871,-7.25,-10.9375
11:58:27.889,-7.9375,-12.25
11:58:27.891,-8.875,-11.75
11:58:27.906,-8,-13.6251
11:58:27.921,-9.5,-13.8751
11:58:27.923,-9.5625,-15.5001
11:58:27.947,-10.5,-15.9376
11:58:27.950,-10.75,-17.5001
11:58:27.954,-11.3125,-18.1876
11:58:27.989,-11.125,-17.9376
11:58:27.991,-10.3125,-18.0626
11:58:27.993,-8.5625,-14.5001
11:58:28.000,-5.5625,-11.6875
11:58:28.003,-2.375,-5.125
11:58:28.011,1.625,0
11:58:28.045,5,7.1875
11:58:28.050,7.9375,12.375
11:58:28.052,9.8125,16.9376
11:58:28.053,11.5625,19.4376
11:58:28.090,12.5,21.8126
11:58:28.091,13.6876,22.8751
11:58:28.096,13.3751,24.3751
11:58:28.097,14.1876,24.8126
11:58:28.103,14.2501,24.7501
11:58:28.112,14.1251,26.1251
11:58:28.120,14.8751,26.8126
11:58:28.130,14.8126,28.3751
11:58:28.141,15.1251,28.3126
11:58:28.150,15.8751,28.6876
11:58:28.184,16.0626,30.0001
11:58:28.185,16.1251,30.0626
11:58:28.189,16.3751,31.9376
11:58:28.191,17.5001,32.6251
11:58:28.202,17.5626,33.0001
11:58:28.210,17.1876,33.3751
11:58:28.225,17.3751,34.1251
11:58:28.232,18.3751,33.9376
11:58:28.241,17.5001,33.0626
11:58:28.249,17.1251,32.5626
11:58:28.259,16.1876,32.1876
11:58:28.269,16.0626,31.3126
11:58:28.280,15.5001,29.4376
11:58:28.290,14.7501,28.0626
11:58:28.300,14.0001,28.8751
11:58:28.309,14.9376,27.8751
11:58:28.321,14.0626,26.6876
11:58:28.330,12.5625,25.8751
11:58:28.339,12.9375,25.8126
11:58:28.350,13.4376,25.7501
11:58:28.360,12.875,25.4376
11:58:28.370,12.75,25.4376
11:58:28.392,13.1876,25.6876
11:58:28.394,13.5626,24.6251
11:58:28.409,12.4375,24.3126
11:58:28.425,12.1875,24.5626
11:58:28.427,12.75,23.0001
11:58:28.430,12.0625,22.1251
11:58:28.440,11.25,21.3751
11:58:28.449,10.9375,19.3751
11:58:28.460,9.6875,18.6251
11:58:28.470,9.375,18.1876
11:58:28.480,8.6875,15.9376
11:58:28.489,8.375,15.0626
11:58:28.501,7.1875,14.9376
11:58:28.511,7.3125,13.3751
11:58:28.520,7.125,11.25
11:58:28.530,6,10.9375
11:58:28.540,6.3125,10.8125
11:58:28.550,6.4375,8.875
11:58:28.560,5.0625,7.125
11:58:28.570,4.875,6.125
11:58:28.579,3.625,6.4375
11:58:28.591,3.75,5.125
11:58:28.605,3.625,3.375
11:58:28.610,2.625,2.9375
11:58:28.620,2.0625,2.75
11:58:28.629,2.5625,0.875
11:58:28.639,1.5,-0.625
11:58:28.650,0.5,-0.8125
11:58:28.660,-0.0625,-0.9375
11:58:28.669,-0.1875,-3.125
11:58:28.681,-0.5,-4
11:58:28.690,-1.25,-5.4375
11:58:28.699,-1.6875,-4.8125
11:58:28.711,-2.3125,-6.9375
11:58:28.743,-3.0625,-7.5625
11:58:28.744,-2.875,-7.5
11:58:28.746,-3.5,-9.4375
11:58:28.752,-3.6875,-10.5625
11:58:28.779,-5.0625,-11.6875
11:58:28.781,-5.75,-12.0625
11:58:28.783,-5.5625,-13.6876
11:58:28.792,-6.5,-15.1251
11:58:28.818,-6.625,-14.6251
11:58:28.820,-5.75,-14.4376
11:58:28.822,-4.5625,-11.3125
11:58:28.858,-1.125,-7.25
11:58:28.858,0.875,-1.0625
11:58:28.864,4.9375,4.9375
11:58:28.866,7.75,10.125
11:58:28.871,10.375,17.1876
11:58:28.888,12.8125,19.9376
11:58:28.890,13.6251,21.8751
11:58:28.900,14.5001,24.3126
11:58:28.910,14.3751,25.4376
11:58:28.921,14.5001,26.1251
11:58:28.930,14.1876,26.0001
11:58:28.940,13.2501,26.5626
11:58:28.951,13.5626,26.7501
11:58:28.960,13.1876,26.8126
11:58:28.970,12.6875,28.8751
11:58:28.980,12.8125,28.5001
11:58:28.990,12.6875,28.6876
11:58:28.999,13.125,30.0001
11:58:29.010,13.6251,29.6251
11:58:29.021,13.1876,30.3751
11:58:29.031,13.5626,32.3126
11:58:29.041,14.3126,31.6251
11:58:29.050,14.3751,32.3751
11:58:29.061,13.7501,32.5626
11:58:29.071,13.5626,32.0001
11:58:29.080,13.3126,31.1251
11:58:29.090,12.1875,28.5626
11:58:29.100,11.8125,29.0626
11:58:29.110,11.4375,27.9376
11:58:29.120,10.3125,26.5001
11:58:29.131,10.4375,26.5001
11:58:29.140,10.5,25.5001
11:58:29.150,9.875,24.6251
11:58:29.160,9.875,24.6876
11:58:29.170,9.0625,25.4376
11:58:29.191,10.3125,25.1251
11:58:29.193,9.5,23.9376
11:58:29.208,9.125,24.3126
11:58:29.211,9.875,23.6876
11:58:29.221,9,23.0001
11:58:29.231,8.4375,21.1876
11:58:29.240,7.5625,21.6876
11:58:29.249,8.375,20.9376
11:58:29.260,8,19.7501
11:58:29.272,6.9375,17.8751
11:58:29.280,6.375,17.7501
11:58:29.290,5.8125,16.5626
11:58:29.300,5.5,15.0626
11:58:29.311,4.5625,13.5626
11:58:29.321,4.3125,13.6876
11:58:29.330,3.375,12.75
11:58:29.340,4,11.375
11:58:29.355,3.75,9.8125
11:58:29.360,2.9375,8.8125
11:58:29.370,2.3125,7.3125
11:58:29.381,2.5625,8.0625
11:58:29.392,2.5,6.3125
11:58:29.401,1.25,4.75
11:58:29.423,1,4.8125
11:58:29.425,0.4375,3.25
11:58:29.431,0.375,2.125
11:58:29.463,-1.3125,0.0625
11:58:29.465,-2.4375,0.1875
11:58:29.467,-1.875,-1.3125
11:58:29.470,-2.75,-3
11:58:29.501,-3.3125,-3.5625
11:58:29.503,-4.375,-4.1875
11:58:29.506,-4.75,-5.5
11:58:29.514,-5.5,-7.25
11:58:29.528,-6,-7.375
11:58:29.534,-6.875,-8.25
11:58:29.560,-7.0625,-9.6875
11:58:29.562,-7.75,-11.3125
11:58:29.565,-8.5,-13.1876
11:58:29.571,-9.875,-12.8125
11:58:29.587,-10.1875,-13.9376
11:58:29.591,-10.75,-16.3751
11:58:29.600,-11.9375,-17.7501
11:58:29.610,-12,-17.8751
11:58:29.620,-10.0625,-15.3751
11:58:29.630,-8.3125,-12.3125
11:58:29.640,-4.4375,-6.75
11:58:29.650,-0.625,-0.25
11:58:29.660,3.0625,6.625
11:58:29.671,6.0625,12.8125
11:58:29.680,8.375,17.1251
11:58:29.695,10.25,22.3126
11:58:29.710,11.9375,23.8126
11:58:29.711,12.5625,25.9376
11:58:29.720,13.5001,28.4376
11:58:29.730,13.3126,28.4376
11:58:29.739,13.5001,29.3126
11:58:29.750,13.5001,30.0001
11:58:29.762,13.6876,31.1251
11:58:29.770,13.7501,31.6876
11:58:29.780,14.0626,32.2501
11:58:29.789,14.3751,33.1876
11:58:29.800,13.8126,34.2501
11:58:29.810,15.2501,36.0001
11:58:29.821,16.0001,37.2501
11:58:29.830,15.8751,38.1251
11:58:29.840,14.3751,38.3751
11:58:29.851,10.125,35.4376
11:58:29.860,6.875,33.0001
11:58:29.870,1.9375,30.1876
11:58:29.880,-2.625,26.6876
11:58:29.891,-6.9375,24.9376
11:58:29.900,-9.375,22.1251
11:58:29.910,-12.5625,19.0001
11:58:29.920,-15.5001,18.0626
11:58:29.930,-17.8751,15.6251
11:58:29.941,-19.2501,13.5626
11:58:29.950,-19.6876,13.6251
11:58:29.960,-15.7501,17.8751
11:58:29.970,-9.25,23.2501
11:58:29.979,-8.0625,25.3751
11:58:29.989,-7.1875,25.0626
11:58:30.000,-7.25,24.1876
11:58:30.010,-8.9375,21.2501
11:58:30.020,-13.4376,17.2501
11:58:30.031,-18.9376,12.25
11:58:30.040,-22.6876,9.25
11:58:30.050,-23.6876,6.8125
11:58:30.059,-21.8126,8.5625
11:58:30.070,-17.3751,13.1876
11:58:30.080,-17.3751,14.8126
11:58:30.090,-16.6876,14.1251
11:58:30.103,-18.4376,13.5626
11:58:30.112,-19.4376,13.4376
11:58:30.121,-18.9376,11.5625
11:58:30.130,-19.5001,11.1875
11:58:30.142,-18.8751,12.0625
11:58:30.150,-17.9376,11.125
11:58:30.171,-17.6251,11.0625
11:58:30.173,-16.9376,11.1875
11:58:30.182,-18.3126,8.6875
11:58:30.206,-20.4376,7.75
11:58:30.208,-21.4376,5.1875
11:58:30.214,-22.5626,2.25
11:58:30.228,-23.0626,2.0625
11:58:30.232,-23.1876,0.3125
11:58:30.257,-24.8126,-1.375
11:58:30.260,-25.6876,-3.0625
11:58:30.263,-25.6251,-5.3125
11:58:30.295,-27.0626,-6.125
11:58:30.298,-27.5001,-8.4375
11:58:30.300,-28.8126,-10.8125
11:58:30.307,-29.1251,-11.5625
11:58:30.317,-28.9376,-12.3125
11:58:30.321,-29.4376,-13.8126
11:58:30.337,-30.1876,-14.3126
11:58:30.340,-30.3126,-14.8751
11:58:30.350,-30.4376,-15.8751
11:58:30.360,-29.9376,-15.4376
11:58:30.369,-29.6251,-15.3126
11:58:30.379,-29.5001,-16.6876
11:58:30.392,-29.2501,-17.8126
11:58:30.401,-28.1876,-17.6876
11:58:30.409,-27.1876,-17.3751
11:58:30.419,-24.8126,-16.2501
11:58:30.430,-22.1251,-14.7501
11:58:30.440,-20.0626,-13.0625
11:58:30.450,-18.2501,-12.3125
11:58:30.460,-17.2501,-11.4375
11:58:30.469,-15.8126,-8.75
11:58:30.488,-14.0626,-6.375
11:58:30.491,-11.5,-0.375
11:58:30.509,-7.8125,5.125
11:58:30.511,-4.75,9.3125
11:58:30.520,-1,15.6251
11:58:30.530,2.8125,21.0001
11:58:30.540,6.6875,25.5626
11:58:30.550,10.875,30.3751
11:58:30.559,14.4376,35.6251
11:58:30.571,19.0001,38.2501
11:58:30.580,22.3126,42.7502
11:58:30.589,26.1251,46.0627
11:58:30.600,28.0001,48.9377
11:58:30.610,30.8126,51.2502
11:58:30.620,33.1876,52.3127
11:58:30.630,34.1876,55.1877
11:58:30.640,35.1251,56.5002
11:58:30.650,36.0001,56.8752
11:58:30.661,36.0001,58.4377
11:58:30.670,36.6251,59.2502
11:58:30.680,35.5001,57.8752
11:58:30.690,34.8126,59.1252
11:58:30.702,33.9376,57.2502
11:58:30.710,32.1876,55.9377
11:58:30.743,31.3126,55.6252
11:58:30.745,29.3126,54.4377
11:58:30.747,27.9376,51.5002
11:58:30.751,24.6876,48.9377
11:58:30.760,21.8126,45.6252
11:58:30.770,18.6251,44.0627
11:58:30.780,16.8126,40.5627
11:58:30.790,14.5001,37.7501
11:58:30.800,11.625,35.5626
11:58:30.812,9.75,33.8126
11:58:30.820,7.5,31.1251
11:58:30.829,4.125,28.1251
11:58:30.841,1.375,25.4376
11:58:30.852,-1.3125,22.3751
11:58:30.862,-3.875,19.9376
11:58:30.870,-6.0625,18.6251
11:58:30.880,-6.5625,18.3751
11:58:30.890,-6.8125,17.2501
11:58:30.900,-7.5,15.6876
11:58:30.914,-8.3125,15.7501
11:58:30.944,-8.25,14.5001
11:58:30.944,-7.875,13.0625
11:58:30.948,-8.6875,11
11:58:30.962,-10.25,9.375
11:58:30.964,-10.25,8.8125
11:58:30.991,-10.1875,6.5625
11:58:30.993,-12.6875,4.25
11:58:31.035,-13.6876,4
11:58:31.038,-14.0626,1.75
11:58:31.064,-14.2501,0.25
11:58:31.064,-14.2501,0.5
11:58:31.068,-12.3125,0
11:58:31.068,-13.1876,-1.875
11:58:31.086,-14.0001,-1.875
11:58:31.089,-13.7501,-4.5
11:58:31.091,-15.1251,-5.0625
11:58:31.098,-15.3126,-7
11:58:31.105,-15.4376,-9.125
11:58:31.116,-16.8751,-10.5625
11:58:31.125,-17.9376,-11.0625
11:58:31.136,-17.6876,-13.1876
11:58:31.145,-17.6251,-14.0626
11:58:31.155,-17.0626,-14.1876
11:58:31.165,-16.9376,-16.0001
11:58:31.175,-17.9376,-17.6251
11:58:31.191,-18.1251,-17.8126
11:58:31.203,-18.4376,-19.3751
11:58:31.210,-18.0001,-21.3751
11:58:31.220,-17.1876,-20.1876
11:58:31.231,-15.5001,-20.5626
11:58:31.240,-14.6876,-19.9376
11:58:31.249,-12.75,-20.1876
11:58:31.259,-12.5,-20.0001
11:58:31.270,-11.5625,-20.3126
11:58:31.280,-11.75,-20.1251
11:58:31.291,-10.8125,-19.4376
11:58:31.305,-9.9375,-19.1876
11:58:31.315,-8.9375,-16.7501
11:58:31.325,-5.8125,-10.6875
11:58:31.334,-3.0625,-6.125
11:58:31.345,-0.3125,-1.375
11:58:31.355,3.25,8.6875
11:58:31.365,5.125,12.375
11:58:31.375,6.25,16.5626
11:58:31.385,7.1875,18.8751
11:58:31.396,8.1875,22.1251
11:58:31.405,8.1875,22.3126
11:58:31.415,7.25,24.7501
11:58:31.425,7.8125,24.0001
11:58:31.435,6.3125,25.7501
11:58:31.445,6.375,24.3751
11:58:31.455,5.8125,25.5001
11:58:31.464,5.875,25.2501
11:58:31.475,5,26.6876
11:58:31.485,4.625,25.6876
11:58:31.495,3.6875,25.6876
11:58:31.505,3.125,24.6876
11:58:31.515,2.5,24.3751
11:58:31.524,0.625,24.8751
11:58:31.537,1.1875,23.8751
11:58:31.545,-1.6875,22.2501
11:58:31.555,-3.9375,21.4376
11:58:31.565,-4.625,18.4376
11:58:31.575,-6.4375,15.8126
11:58:31.596,-7.8125,14.0626
11:58:31.599,-9.6875,12.375
11:58:31.604,-9.8125,10.8125
11:58:31.633,-11.375,9.3125
11:58:31.636,-12.375,9.125
11:58:31.637,-12.1875,8
11:58:31.673,-12.6875,6.6875
11:58:31.674,-13.3126,5.875
11:58:31.676,-13.3126,6.5
11:58:31.678,-12.5,6.375
11:58:31.686,-13,5.0625
11:58:31.724,-13.3126,4.25
11:58:31.725,-13.1876,4.375
11:58:31.729,-12.3125,4.4375
11:58:31.730,-13.1876,3.5625
11:58:31.737,-13.125,4
11:58:31.762,-12.625,1.6875
11:58:31.765,-13.2501,2.125
11:58:31.768,-12.125,1.125
11:58:31.783,-11.5625,0.5625
11:58:31.786,-11.875,-0.375
11:58:31.801,-11.875,-0.375
11:58:31.807,-10.875,-2.125
11:58:31.816,-11.0625,-2.25
11:58:31.825,-10.8125,-2.1875
11:58:31.835,-10.8125,-4.1875
11:58:31.845,-12.5625,-5.9375
11:58:31.856,-11.6875,-6.4375
11:58:31.865,-13.0625,-8.3125
11:58:31.875,-13.4376,-8
11:58:31.884,-12.4375,-9.875
11:58:31.897,-11.125,-9.9375
11:58:31.906,-9.1875,-8.9375
11:58:31.919,-7.125,-8.5625
11:58:31.924,-4.8125,-6.9375
11:58:31.936,-1.4375,-6.25
11:58:31.945,-0.1875,-4.75
11:58:31.955,1.8125,-4.25
11:58:31.965,3.875,-3.3125
11:58:31.975,4.0625,-1.75
11:58:31.984,5.375,-2.1875
11:58:31.994,7.375,-1.375
11:58:32.026,8.25,-1.875
11:58:32.027,8.375,0
11:58:32.029,8.5625,-2.25
11:58:32.036,7.8125,-1.25
11:58:32.046,7.4375,-4.0625
11:58:32.056,5.5,-4.6875
11:58:32.064,4.1875,-6.9375
11:58:32.075,2.75,-7.6875
11:58:32.085,1.8125,-7
11:58:32.096,3.6875,-4.625
11:58:32.105,5,0
11:58:32.115,7.3125,3.875
11:58:32.125,9.9375,10.4375
11:58:32.135,11.375,14.6251
11:58:32.145,13.0625,19.1876
11:58:32.160,15.0001,23.3751
11:58:32.165,14.3751,25.1876
11:58:32.175,14.3126,28.1251
11:58:32.185,15.0001,28.6876
11:58:32.195,15.1876,29.0001
11:58:32.205,15.1251,30.8751
11:58:32.214,15.0001,30.8126
11:58:32.224,13.6251,31.6251
11:58:32.235,13.6876,31.6251
11:58:32.245,13.1876,31.0626
11:58:32.256,11.9375,30.1251
11:58:32.265,10.25,31.5626
11:58:32.287,10.8125,30.1251
11:58:32.289,9.0625,29.6251
11:58:32.303,8.0625,30.1251
11:58:32.306,7.8125,29.3126
11:58:32.315,7.5,28.7501
11:58:32.325,6.5,29.1876
11:58:32.335,5.375,28.7501
11:58:32.364,5.5,26.2501
11:58:32.367,3.8125,24.7501
11:58:32.369,3.25,23.8126
11:58:32.376,3.25,22.0626
11:58:32.406,1.4375,19.9376
11:58:32.410,-0.125,20.1876
11:58:32.410,-0.625,17.3126
11:58:32.435,-1.3125,16.5001
11:58:32.436,-1.4375,16.6876
11:58:32.439,-0.125,16.3126
11:58:32.445,-0.1875,15.8751
11:58:32.478,-0.5,15.1876
11:58:32.481,-0.75,15.6876
11:58:32.483,-0.875,16.1876
11:58:32.485,-0.3125,13.6876
11:58:32.521,-1.0625,12.8125
11:58:32.523,-2,12.375
11:58:32.524,-2,12.0625
11:58:32.528,-1.5,10.8125
11:58:32.543,-1.3125,9.1875
11:58:32.545,-2,9.125
11:58:32.558,-1.75,8.1875
11:58:32.567,-2.1875,5.875
11:58:32.574,-3.5,5.4375
11:58:32.585,-3.25,3.625
11:58:32.595,-4.25,1.6875
11:58:32.605,-4.125,0.6875
11:58:32.615,-5.5,-1.1875
11:58:32.624,-5.5625,-1.375
11:58:32.635,-5.0625,-2.6875
11:58:32.645,-4.375,-3.1875
11:58:32.655,-4.8125,-4.5625
11:58:32.665,-4.6875,-4.625
11:58:32.674,-4.0625,-4.9375
11:58:32.685,-2.375,-5.25
11:58:32.695,-1.375,-3.3125
11:58:32.705,0.8125,-3
11:58:32.715,2.1875,-3.5
11:58:32.724,4.5,-1.75
11:58:32.737,6.9375,-1.5625
11:58:32.744,8.6875,-0.125
11:58:32.755,10.625,2.3125
11:58:32.765,13.6251,2.5625
11:58:32.775,15.5626,4.75
11:58:32.785,17.2501,5.375
11:58:32.795,17.6251,7.1875
11:58:32.805,18.3751,6.25
11:58:32.815,17.8751,5.8125
11:58:32.825,17.2501,4.6875
11:58:32.835,15.1251,1.75
11:58:32.845,12.3125,-0.5625
11:58:32.854,10.875,-3.8125
11:58:32.865,7.5,-5.8125
11:58:32.875,5.9375,-8.75
11:58:32.885,2.75,-11.0625
11:58:32.895,0.1875,-12.9375
11:58:32.905,-0.875,-14.8126
11:58:32.916,-1.9375,-16.5626
11:58:32.925,-1.9375,-15.2501
11:58:32.935,-1,-13.0625
11:58:32.945,1.4375,-9.25
11:58:32.955,4.125,-4.25
11:58:32.967,7.125,2.5625
11:58:32.976,10,7.625
11:58:32.985,12.0625,12.25
11:58:32.995,12.5,16.0626
11:58:33.004,13.3751,17.5001
11:58:33.015,12.5,18.3751
11:58:33.025,10.9375,19.7501
11:58:33.035,10.6875,18.6251
11:58:33.048,9.0625,19.0001
11:58:33.081,7.75,20.5001
11:58:33.083,7,18.2501
11:58:33.120,5.625,17.8751
11:58:33.121,4.625,18.6876
11:58:33.123,4.1875,17.3751
11:58:33.127,3.25,17.5001
11:58:33.132,2.9375,17.4376
11:58:33.132,0.5625,16.2501
11:58:33.138,0.1875,18.3751
11:58:33.161,0.4375,17.9376
11:58:33.164,0.375,17.6251
11:58:33.166,0.4375,19.0626
11:58:33.207,0.125,19.5001
11:58:33.208,0.875,19.5626
11:58:33.213,0.5,18.9376
11:58:33.214,-0.3125,17.6251
11:58:33.216,-0.625,17.8126
11:58:33.226,-0.9375,16.1251
11:58:33.235,-0.6875,15.3751
11:58:33.244,-1.5625,13.7501
11:58:33.255,-2.1875,12.6875
11:58:33.265,-3.25,11.4375
11:58:33.275,-3.4375,11.125
11:58:33.303,-2.8125,10.75
11:58:33.305,-1.125,10.625
11:58:33.307,-1.3125,10.5
11:58:33.315,-0.9375,11.5
11:58:33.332,-0.125,11
11:58:33.336,1.3125,10.0625
11:58:33.345,0.625,9.125
11:58:33.355,0.0625,8.1875
11:58:33.365,-0.375,8
11:58:33.375,-1.0625,6.25
11:58:33.385,-1.5625,4.25
11:58:33.394,-2.6875,3.875
11:58:33.405,-2.625,1.5
11:58:33.415,-3.25,0
11:58:33.425,-2.5625,0.5625
11:58:33.435,-1.1875,0.1875
11:58:33.446,-0.25,0
11:58:33.456,0.625,-0.125
11:58:33.464,1.6875,-0.5
11:58:33.475,2.125,-0.125
11:58:33.485,3.3125,-0.6875
11:58:33.495,3.75,-2
11:58:33.505,4.125,-1.0625
11:58:33.515,5.5625,-1.6875
11:58:33.526,6.1875,-1.5625
11:58:33.535,6.1875,-2.125
11:58:33.545,7.0625,-1.625
11:58:33.555,6.5,-3
11:58:33.565,5.375,-3.5
11:58:33.583,4.4375,-5.5
11:58:33.588,2.3125,-8.125
11:58:33.604,0.1875,-9.3125
11:58:33.606,-1.5625,-11.75
11:58:33.614,-3.6875,-13.9376
11:58:33.625,-5.3125,-15.5626
11:58:33.634,-6.8125,-17.8751
11:58:33.645,-8.8125,-18.9376
11:58:33.655,-9.75,-20.6251
11:58:33.665,-11,-22.5626
11:58:33.675,-12.875,-23.7501
11:58:33.684,-14.1251,-25.1876
11:58:33.696,-15.4376,-27.4376
11:58:33.705,-17.0626,-29.2501
11:58:33.715,-18.8126,-29.3751
11:58:33.726,-19.6876,-32.8126
11:58:33.735,-21.8126,-35.3751
11:58:33.744,-23.7501,-35.7501
11:58:33.755,-24.3126,-38.0001
11:58:33.765,-26.5626,-40.0002
11:58:33.775,-27.7501,-41.0627
11:58:33.784,-27.8126,-41.4377
11:58:33.794,-26.3751,-37.8126
11:58:33.804,-23.6251,-34.5001
11:58:33.815,-22.0001,-29.1251
11:58:33.824,-19.0001,-24.7501
11:58:33.835,-17.6251,-19.4376
11:58:33.844,-15.1876,-15.2501
11:58:33.874,-13.3751,-12.5625
11:58:33.877,-12,-9.1875
11:58:33.879,-10.9375,-7.25
11:58:33.885,-10.3125,-4.75
11:58:33.901,-8.75,-4.375
11:58:33.906,-8.75,-2.6875
11:58:33.935,-8.625,-2.875
11:58:33.938,-8.125,-2.5625
11:58:33.938,-8.125,-1.25
11:58:33.945,-8.3125,-0.75
11:58:33.969,-7.125,0.0625
11:58:33.971,-6.625,0.625
11:58:34.003,-5.6875,2.25
11:58:34.005,-4.75,3
11:58:34.007,-3.9375,4.125
11:58:34.010,-2.75,4.875
11:58:34.014,-2.8125,6.0625
11:58:34.036,-1.5625,5.5
11:58:34.037,-2.3125,6.375
11:58:34.045,-2.3125,5.4375
11:58:34.054,-3,4.875
11:58:34.065,-3.25,3.9375
11:58:34.082,-2.9375,2.875
11:58:34.085,-2.75,2.75
11:58:34.095,-1.8125,2.4375
11:58:34.105,-2.25,1.25
11:58:34.115,-1.5,1.4375
11:58:34.125,-1.625,0.3125
11:58:34.136,-2.4375,0.375
11:58:34.145,-3,0.6875
11:58:34.155,-2.1875,0
11:58:34.164,-3.25,-0.625
11:58:34.176,-3.1875,0.0625
11:58:34.185,-1.625,-0.6875
11:58:34.195,-1.4375,0.8125
11:58:34.205,0.0625,1
11:58:34.216,0.875,0.0625
11:58:34.225,1.5625,1
11:58:34.235,3.75,1.4375
11:58:34.244,5.1875,2.375
11:58:34.255,7.6875,4.1875
11:58:34.265,9.4375,4.4375
11:58:34.276,10.6875,5.0625
11:58:34.285,12.3125,6.3125
11:58:34.295,14.0001,6.125
11:58:34.305,15.3751,7.1875
11:58:34.315,15.6876,7.0625
11:58:34.325,15.7501,6.6875
11:58:34.336,15.0001,7.375
11:58:34.345,13.8126,4.9375
11:58:34.356,11.75,2.8125
11:58:34.376,10.25,0.75
11:58:34.378,7.875,-1.6875
11:58:34.393,5.3125,-4.125
11:58:34.396,3.875,-5.25
11:58:34.405,2.375,-8.25
11:58:34.417,0.8125,-9.875
11:58:34.426,-0.8125,-10.0625
11:58:34.435,-2,-12.0625
11:58:34.445,-3.9375,-14.3126
11:58:34.459,-6.375,-16.3126
11:58:34.464,-8.3125,-17.6251
11:58:34.476,-8.6875,-20.0001
11:58:34.485,-11.5625,-22.6251
11:58:34.495,-12.6875,-23.5001
11:58:34.505,-14.2501,-24.5626
11:58:34.515,-15.0001,-27.5001
11:58:34.557,-16.9376,-29.5001
11:58:34.558,-19.1251,-31.9376
11:58:34.559,-20.5001,-32.6876
11:58:34.586,-21.6876,-35.0001
11:58:34.586,-24.5626,-36.6876
11:58:34.587,-26.3126,-38.4376
11:58:34.588,-26.1876,-39.1876
11:58:34.619,-25.8751,-36.1876
11:58:34.623,-24.1251,-34.1876
11:58:34.625,-21.8751,-28.0001
11:58:34.633,-17.6251,-23.1876
11:58:34.669,-15.3751,-16.6251
11:58:34.671,-12.25,-13.1876
11:58:34.673,-9.5625,-7.9375
11:58:34.700,-7.75,-5.4375
11:58:34.701,-7.375,-2.6875
11:58:34.702,-7,-2.3125
11:58:34.705,-7.1875,-0.5625
11:58:34.711,-6.5625,-0.375
11:58:34.720,-6.1875,0.4375
11:58:34.730,-5.3125,1.5
11:58:34.740,-5.125,2
11:58:34.750,-4.5,3.5625
11:58:34.760,-3.625,4.9375
11:58:34.770,-3.5625,5.5
11:58:34.781,-2.125,6.75
11:58:34.789,-2.625,7.5625
11:58:34.801,-1,8.8125
11:58:34.809,-1.375,9
11:58:34.819,-2.3125,9.25
11:58:34.831,-1.625,9.1875
11:58:34.840,-2.125,9
11:58:34.849,-2.1875,8.375
11:58:34.860,-1.9375,8.3125
11:58:34.870,-2.6875,7.25
11:58:34.885,-3.25,6.625
11:58:34.893,-3.5,5.25
11:58:34.901,-3.8125,3.9375
11:58:34.916,-3.0625,4.625
11:58:34.922,-3.5625,3.25
11:58:34.932,-4.3125,2.9375
11:58:34.940,-4.4375,4
11:58:34.953,-3.5625,3.25
11:58:34.959,-2.9375,2.8125
11:58:34.970,-1.1875,4.625
11:58:34.981,0.875,5.8125
11:58:34.991,3.75,7.4375
11:58:35.001,5.375,10.125
11:58:35.010,8.625,10.875
11:58:35.020,10.8125,11.1875
11:58:35.030,14.0001,13.3751
11:58:35.040,16.0626,15.0626
11:58:35.050,18.1251,15.7501
11:58:35.060,19.1251,17.8126
11:58:35.071,21.7501,18.3751
11:58:35.080,23.0001,18.1876
11:58:35.090,24.0001,19.2501
11:58:35.100,26.4376,20.0626
11:58:35.110,26.9376,20.6251
11:58:35.120,26.8126,20.9376
11:58:35.129,26.1876,18.5001
11:58:35.140,24.0626,15.8751
11:58:35.150,21.8126,13.5001
11:58:35.161,19.1876,11
11:58:35.171,17.0001,7.9375
11:58:35.180,14.5001,5.0625
11:58:35.190,12.125,1.75
11:58:35.206,9.6875,0.875
11:58:35.215,7.9375,-1.5
11:58:35.224,6.8125,-4.5625
11:58:35.235,4.625,-5.5625
11:58:35.245,3.5625,-7.3125
11:58:35.265,1.5,-8.875
11:58:35.268,-0.8125,-10.25
11:58:35.300,-2.5625,-13.8751
11:58:35.301,-5.6875,-16.7501
11:58:35.303,-8.625,-19.3751
11:58:35.307,-11.625,-21.8751
11:58:35.335,-13.7501,-23.5626
11:58:35.338,-16.3751,-26.8126
11:58:35.341,-20.0001,-30.8751
11:58:35.347,-23.3126,-32.4376
11:58:35.378,-26.3751,-35.4376
11:58:35.380,-29.0626,-38.8126
11:58:35.384,-29.8751,-40.6877
11:58:35.392,-31.9376,-40.0627
11:58:35.399,-31.5626,-41.5627
11:58:35.431,-31.8126,-42.5627
11:58:35.434,-32.3126,-42.6877
11:58:35.436,-31.3751,-41.8127
11:58:35.439,-29.6876,-40.2502
11:58:35.446,-27.3126,-34.1876
11:58:35.455,-23.6876,-29.0626
11:58:35.464,-19.6876,-23.3751
11:58:35.474,-15.4376,-16.5626
11:58:35.485,-12.5625,-10.4375
11:58:35.495,-9.5,-5.8125
11:58:35.505,-7.1875,-2.375
11:58:35.515,-4.125,1.875
11:58:35.525,-3.125,3.5
11:58:35.535,-1.75,6.125
11:58:35.546,-0.1875,7.875
11:58:35.555,0.0625,8.875
11:58:35.564,0.625,9.625
11:58:35.580,2.25,10.8125
11:58:35.585,2.625,13.0625
11:58:35.597,3.625,12.75
11:58:35.605,4,14.0626
11:58:35.616,4.9375,14.9376
11:58:35.624,5.25,14.8751
11:58:35.635,5.5,15.1876
11:58:35.644,6.5,15.5626
11:58:35.655,6.5,15.9376
11:58:35.673,6.8125,16.6251
11:58:35.675,6.625,17.0001
11:58:35.690,5.875,18.0001
11:58:35.705,5.5,16.3126
11:58:35.707,5.5,14.8126
11:58:35.722,4.1875,14.3751
11:58:35.725,4.375,14.6876
11:58:35.734,4.25,13.1876
11:58:35.745,3.625,12.0625
11:58:35.756,2.0625,11.625
11:58:35.765,1.75,10.75
11:58:35.775,0.8125,9.875
11:58:35.785,-0.3125,10.375
11:58:35.795,0.125,10.1875
11:58:35.805,0.25,9.4375
11:58:35.815,-0.0625,8.9375
11:58:35.825,0.1875,10.375
11:58:35.836,0.9375,10.875
11:58:35.863,0.5625,9.9375
11:58:35.865,0.1875,9.5
11:58:35.867,-0.1875,9.875
11:58:35.876,-0.125,10.0625
11:58:35.884,0,8.375
11:58:35.895,-2.25,6.625
11:58:35.905,-3.0625,6.4375
11:58:35.915,-3.25,5.375
11:58:35.924,-3.625,3.4375
11:58:35.934,-5.125,1.5625
11:58:35.946,-5.5625,2
11:58:35.968,-5.6875,1.3125
11:58:35.971,-4.9375,0.0625
11:58:35.975,-4.8125,-1.1875
11:58:36.018,1.3125,4.125
11:58:36.021,-1,3.125
11:58:36.023,-3.125,1.25
11:58:36.024,-2.9375,0.6875
11:58:36.030,-3.375,-1.5625
11:58:36.035,-4.4375,-3.0625
11:58:36.069,-3.625,-3.5
11:58:36.073,-4,-4.0625
11:58:36.074,-4.25,-3.25
11:58:36.076,-2.4375,-4.75
11:58:36.108,-2.0625,-4.5
11:58:36.111,-1,-2.875
11:58:36.112,-0.125,-3.5625
11:58:36.117,-0.625,-3.25
11:58:36.136,-0.625,-2.9375
11:58:36.138,-0.25,-4.875
11:58:36.144,-1.375,-4.375
11:58:36.155,-1.3125,-5.9375
11:58:36.164,-1.4375,-7.5
11:58:36.176,-1.5,-8.1875
11:58:36.185,-1.3125,-8.5
11:58:36.206,-3.4375,-10.125
11:58:36.209,-2.0625,-10.6875
11:58:36.218,-2.0625,-10.5625
11:58:36.224,-3.125,-10.6875
11:58:36.242,-3.0625,-13.125
11:58:36.256,-3.3125,-12.5625
11:58:36.258,-3.875,-14.0626
11:58:36.264,-3.875,-15.9376
11:58:36.275,-3.5,-14.6251
11:58:36.285,-2.125,-11.25
11:58:36.295,0.5625,-8.25
11:58:36.305,3.5625,-2.375
11:58:36.315,7.8125,2.6875
11:58:36.325,10.625,9.6875
11:58:36.337,17.4376,16.1251
11:58:36.345,20.6251,22.4376
11:58:36.355,25.8126,27.6876
11:58:36.365,29.3126,31.1876
11:58:36.375,32.3751,35.9376
11:58:36.384,35.0001,38.1251
11:58:36.396,37.0626,40.8127
11:58:36.406,39.3127,42.5002
11:58:36.415,40.6252,44.1252
11:58:36.425,41.3127,44.6252
11:58:36.435,42.2502,46.1252
11:58:36.445,42.6252,47.0627
11:58:36.455,43.4377,49.0002
11:58:36.464,44.9377,50.3752
11:58:36.475,46.5002,51.7502
11:58:36.484,47.6877,53.0627
11:58:36.495,48.0627,54.3752
11:58:36.505,48.5627,55.1252
11:58:36.514,47.8752,53.8752
11:58:36.525,46.3127,52.4377
11:58:36.535,44.6252,52.2502
11:58:36.545,41.8752,49.3127
11:58:36.555,38.3126,45.1252
11:58:36.565,35.2501,42.8127
11:58:36.575,33.4376,41.1252
11:58:36.584,32.3751,39.4377
11:58:36.595,32.3751,38.2501
11:58:36.605,32.0001,37.8126
11:58:36.615,31.5001,37.5001
11:58:36.625,31.4376,36.2501
11:58:36.635,29.5001,35.0626
11:58:36.644,29.2501,34.4376
11:58:36.655,31.7501,37.5626
11:58:36.664,34.1876,37.6251
11:58:36.675,35.0626,38.6876
11:58:36.685,35.8751,40.3127
11:58:36.696,36.4376,39.4377
11:58:36.705,36.5001,38.2501
11:58:36.714,35.5001,37.9376
11:58:36.724,35.0001,36.4376
11:58:36.760,34.3751,35.0001
11:58:36.761,32.4376,32.6876
11:58:36.763,30.6251,30.0626
11:58:36.766,28.5001,29.1251
11:58:36.800,27.6876,26.3126
11:58:36.801,25.7501,24.6876
11:58:36.803,24.5626,22.1876
11:58:36.806,23.2501,21.6876
11:58:36.839,22.6251,19.9376
11:58:36.841,23.0001,18.5626
11:58:36.843,22.1876,18.5001
11:58:36.873,21.5001,17.5626
11:58:36.875,21.0626,15.1876
11:58:36.879,20.1876,13.3126
11:58:36.884,20.0626,12.5
11:58:36.887,18.8126,12.125
11:58:36.920,18.6876,10.125
11:58:36.923,17.8126,8.1875
11:58:36.926,16.8751,8.25
11:58:36.928,15.1251,6.4375
11:58:36.936,14.4376,3.9375
11:58:36.944,12.5625,2.1875
11:58:36.954,11.6875,0.9375
11:58:36.965,10.875,-0.25
11:58:36.975,9.6875,-2.375
11:58:36.990,9.5625,-1.5
11:58:36.999,11.625,-2
11:58:37.005,12.125,-2
11:58:37.022,12.25,-3.0625
11:58:37.025,11.875,-3.6875
11:58:37.040,10.5625,-4.6875
11:58:37.046,11.0625,-5.9375
11:58:37.056,9.25,-7.625
11:58:37.066,9.625,-8.5625
11:58:37.074,10.6875,-5.5
11:58:37.085,13.5001,-3
11:58:37.095,15.5001,0.6875
11:58:37.104,18.3126,8.125
11:58:37.115,21.5626,11.875
11:58:37.144,24.5001,17.0001
11:58:37.146,27.2501,22.1251
11:58:37.148,29.6876,27.6251
11:58:37.155,32.6251,30.3126
11:58:37.165,33.7501,32.2501
11:58:37.175,35.0001,35.6876
11:58:37.185,35.7501,36.5001
11:58:37.195,35.5001,37.3751
11:58:37.205,35.1876,39.3126
11:58:37.215,36.4376,39.5627
11:58:37.225,36.6876,39.8752
11:58:37.235,37.0001,41.1877
11:58:37.244,37.0626,40.9377
11:58:37.255,37.3126,42.2502
11:58:37.265,37.5626,44.2502
11:58:37.275,38.8126,43.7502
11:58:37.285,39.4377,44.8127
11:58:37.298,40.3127,46.8127
11:58:37.305,40.0002,48.3127
11:58:37.315,40.3752,47.2502
11:58:37.325,40.1877,47.1877
11:58:37.335,39.0001,47.1877
11:58:37.345,38.3126,45.4377
11:58:37.355,36.6876,43.3127
11:58:37.364,35.0626,41.5627
11:58:37.375,34.1876,41.5627
11:58:37.385,34.3126,39.8752
11:58:37.394,33.9376,38.5626
11:58:37.405,33.3126,38.3126
11:58:37.415,33.3751,38.1876
11:58:37.428,34.1251,37.4376
11:58:37.465,32.8751,36.4376
11:58:37.466,32.1251,36.0001
11:58:37.467,31.8126,35.5626
11:58:37.470,31.6251,35.2501
11:58:37.476,30.5001,33.8126
11:58:37.515,29.0626,33.7501
11:58:37.517,29.3751,31.2501
11:58:37.616,28.0626,30.5626
11:58:37.616,26.8126,30.0001
11:58:37.617,26.3751,28.4376
11:58:37.617,25.7501,26.4376
11:58:37.617,24.3751,24.6251
11:58:37.618,23.5001,23.8751
11:58:37.620,23.3126,22.8126
11:58:37.627,21.7501,21.0001
11:58:37.628,20.2501,18.3751
11:58:37.628,19.7501,18.3751
11:58:37.637,19.1251,16.5001
11:58:37.644,17.6251,14.5626
11:58:37.655,16.3126,13.9376
11:58:37.665,15.3751,12.125
11:58:37.675,14.5001,9.3125
11:58:37.686,12.875,8.8125
11:58:37.694,11.9375,7.4375
11:58:37.705,11.3125,5.6875
11:58:37.715,10.125,4.25
11:58:37.724,9.75,2.9375
11:58:37.734,8.0625,0.5625
11:58:37.745,6.375,-0.625
11:58:37.755,5.3125,-2.0625
11:58:37.765,4.5625,-2.375
11:58:37.776,3.875,-4.25
11:58:37.785,3.75,-6.0625
11:58:37.795,0.6875,-9.4375
11:58:37.805,1.1875,-11.375
11:58:37.815,0,-12.875
11:58:37.825,-1,-13.3751
11:58:37.835,-1.875,-14.6251
11:58:37.844,-1.9375,-15.8126
11:58:37.854,-3.5625,-16.2501
11:58:37.865,-3.6875,-17.6876
11:58:37.876,-5.125,-20.1251
11:58:37.885,-6.125,-21.9376
11:58:37.895,-6.5625,-21.1251
11:58:37.905,-5.875,-21.9376
11:58:37.915,-4.9375,-21.1251
11:58:37.925,-3.4375,-18.5626
11:58:37.935,-0.6875,-15.0626
11:58:37.944,2.5625,-7.875
11:58:37.955,6.375,-2.5
11:58:37.965,8.8125,2.1875
11:58:37.974,10.6875,7.9375
11:58:37.985,12.5,11.25
11:58:37.995,13.8751,14.4376
11:58:38.005,14.3126,17.4376
11:58:38.017,15.1251,18.0626
11:58:38.027,15.6251,20.3751
11:58:38.035,15.3751,20.3126
11:58:38.047,15.5001,21.8126
11:58:38.055,16.7501,22.5001
11:58:38.065,16.6876,24.1251
11:58:38.075,17.8126,25.3751
11:58:38.085,17.9376,26.6251
11:58:38.095,19.5001,28.3126
11:58:38.106,20.1251,28.8751
11:58:38.115,20.0626,30.5001
11:58:38.125,21.0001,31.3751
11:58:38.135,21.1876,31.0001
11:58:38.145,21.5626,33.1251
11:58:38.156,22.9376,34.0626
11:58:38.165,23.6876,34.1251
11:58:38.175,23.0626,34.9376
11:58:38.184,22.5001,34.0001
11:58:38.195,22.6251,32.5001
11:58:38.210,21.8126,32.1251
11:58:38.216,22.1876,31.1876
11:58:38.246,21.0626,29.6876
11:58:38.250,20.4376,27.6251
11:58:38.252,19.3751,27.9376
11:58:38.256,20.3126,27.3126
11:58:38.297,19.3751,25.4376
11:58:38.387,18.4376,26.1876
11:58:38.387,18.5001,25.3126
11:58:38.426,18.3126,24.0001
11:58:38.428,17.4376,23.9376
11:58:38.428,18.3126,22.9376
11:58:38.430,16.6876,21.8751
11:58:38.431,16.1876,20.5001
11:58:38.437,15.9376,20.8751
11:58:38.446,15.5626,19.1876
11:58:38.446,14.3126,17.3751
11:58:38.448,13,17.3751
11:58:38.454,12.5,15.3126
11:58:38.464,11.375,12.6875
11:58:38.475,10.625,11.375
11:58:38.485,9.75,11.875
11:58:38.496,10.125,9.6875
11:58:38.505,9.1875,8.125
11:58:38.515,8.0625,6.1875
11:58:38.524,7.9375,6.25
11:58:38.534,7.5625,3.8125
11:58:38.545,6.9375,2.9375
11:58:38.555,5.8125,-2.125
11:58:38.565,4.3125,-3.8125
11:58:38.575,3.6875,-4.5
11:58:38.585,3.125,-6.1875
11:58:38.595,2.25,-8.125
11:58:38.605,-1.1875,-12.6875
11:58:38.615,-1.125,-13.1251
11:58:38.624,-1.5,-13.9376
11:58:38.635,-1.75,-16.1876
11:58:38.644,-2.1875,-17.3751
11:58:38.655,-3.125,-17.1876
11:58:38.665,-2.4375,-19.0001
11:58:38.675,-3.6875,-20.0626
11:58:38.685,-5,-20.0001
11:58:38.696,-4.5,-22.3126
11:58:38.704,-5.6875,-24.0001
11:58:38.714,-6.1875,-23.5001
11:58:38.725,-5.0625,-24.3751
11:58:38.736,-4.9375,-23.7501
11:58:38.745,-3.875,-20.4376
11:58:38.755,-0.8125,-16.0626
11:58:38.765,2.375,-10.6875
11:58:38.775,6.125,-4.4375
11:58:38.784,9.875,1.625
11:58:38.795,13.3126,6.625
11:58:38.805,14.6876,11.75
11:58:38.819,16.6876,13.6251
11:58:38.825,16.6876,16.4376
11:58:38.835,17.5626,17.0001
11:58:38.844,17.5626,18.5001
11:58:38.854,17.8751,18.2501
11:58:38.865,17.4376,19.3751
11:58:38.911,17.9376,19.8126
11:58:38.912,18.2501,20.4376
11:58:38.976,19.2501,21.3751
11:58:38.976,19.9376,22.5001
11:58:38.976,21.0626,24.0001
11:58:38.977,21.1251,24.7501
11:58:38.981,21.2501,24.9376
11:58:38.988,21.0001,26.0626
11:58:38.988,21.3126,26.7501
11:58:38.988,21.3126,26.3126
11:58:38.989,21.1876,25.6876
11:58:39.022,20.8126,26.2501
11:58:39.023,20.7501,26.1876
11:58:39.025,21.1251,24.7501
11:58:39.032,19.2501,22.8751
11:58:39.063,18.3126,22.0001
11:58:39.065,17.4376,20.6876
11:58:39.067,17.1251,19.8126
11:58:39.075,15.6251,18.3126
11:58:39.081,15.3751,17.5001
11:58:39.090,14.3126,16.3126
11:58:39.099,13.3751,14.5001
11:58:39.110,12.9375,13.9376
11:58:39.121,11.875,13
11:58:39.130,11.5,12.0625
11:58:39.140,9.9375,10.25
11:58:39.151,9.8125,9.9375
11:58:39.161,9.125,9.375
11:58:39.170,8.375,8.125
11:58:39.180,7.6875,6.125
11:58:39.195,6.375,5
11:58:39.202,5.3125,3.8125
11:58:39.211,5.0625,3.0625
11:58:39.220,5.125,1.75
11:58:39.230,4.125,-0.25
11:58:39.240,2.375,-2.0625
11:58:39.250,1.8125,-2.5
11:58:39.260,1.5625,-4.0625
11:58:39.270,0.375,-5.6875
11:58:39.280,-0.6875,-7.375
11:58:39.290,-1.4375,-8.1875
11:58:39.301,-2.8125,-9.1875
11:58:39.310,-3,-10.8125
11:58:39.325,-3.0625,-12.125
11:58:39.336,-4.3125,-13.3126
11:58:39.345,-4.9375,-13.6876
11:58:39.355,-5.4375,-15.3126
11:58:39.365,-6.8125,-16.4376
11:58:39.374,-7.125,-17.1251
11:58:39.385,-7.75,-19.0626
11:58:39.394,-8.3125,-20.5626
11:58:39.404,-9.875,-21.1876
11:58:39.414,-10.875,-22.0626
11:58:39.425,-11.625,-24.6876
11:58:39.435,-12.4375,-24.7501
11:58:39.445,-13.6251,-26.8126
11:58:39.457,-14.5626,-27.2501
11:58:39.465,-15.0626,-29.5001
11:58:39.475,-16.4376,-30.8751
11:58:39.485,-15.6251,-30.0626
11:58:39.496,-14.8126,-27.8126
11:58:39.505,-11.25,-23.3751
11:58:39.514,-8.5625,-17.8751
11:58:39.524,-4.4375,-11.75
11:58:39.535,-2.3125,-5.875
11:58:39.546,0.6875,-0.9375
11:58:39.555,3,2.3125
11:58:39.567,3.6875,6.4375
11:58:39.578,5.1875,8.1875
11:58:39.585,6,10.75
11:58:39.595,6.875,11.6875
11:58:39.635,7.5,13.5626
11:58:39.636,7.75,15.0001
11:58:39.640,8.25,15.0001
11:58:39.663,8.4375,17.0626
11:58:39.663,8.5,16.8126
11:58:39.729,9.0625,18.1876
11:58:39.789,9,18.1876
11:58:39.790,9.0625,19.3751
11:58:39.791,9.9375,19.6251
11:58:39.791,10.375,20.6876
11:58:39.792,11.125,21.6251
11:58:39.795,10.625,21.7501
11:58:39.800,10.125,23.2501
11:58:39.801,10.9375,22.9376
11:58:39.801,10.875,22.1876
11:58:39.810,10.1875,21.3751
11:58:39.820,9,20.0626
11:58:39.830,8.625,19.3751
11:58:39.842,7.375,19.1876
11:58:39.850,6.8125,17.3751
11:58:39.860,6.75,16.1876
11:58:39.870,7,14.6251
11:58:39.880,6.375,14.1251
11:58:39.890,6.375,13.5626
11:58:39.900,6.3125,14.0626
11:58:39.910,6.5,13.2501
11:58:39.920,6.9375,13.125
11:58:39.931,6.9375,13.8126
11:58:39.945,6.75,13.1251
11:58:39.950,6.5,12.375
11:58:39.960,5.875,12.375
11:58:39.969,2.3125,6.0625
11:58:39.980,3.125,4.625
11:58:39.990,2.4375,3.5625
11:58:40.000,1.75,3.875
11:58:40.011,2.0625,1.625
11:58:40.021,1.1875,0.1875
11:58:40.030,0.8125,0.375
11:58:40.040,1.4375,-1.25
11:58:40.050,0.375,-2.6875
11:58:40.059,-0.25,-3.875
11:58:40.070,-0.0625,-3.875
11:58:40.079,-1,-6.6875
11:58:40.090,-2.25,-7.875
11:58:40.100,-2.875,-9.625
11:58:40.111,-3.0625,-9.625
11:58:40.119,-3.5,-11.1875
11:58:40.130,-4.125,-12.3125
11:58:40.140,-4.4375,-13.7501
11:58:40.149,-5.125,-13.7501
11:58:40.159,-5.3125,-14.1876
11:58:40.170,-4.6875,-15.0626
11:58:40.179,-5.25,-16.6876
11:58:40.190,-5.9375,-17.3751
11:58:40.201,-5.5,-18.1876
11:58:40.221,-6.875,-18.5626
11:58:40.224,-6.25,-20.1251
11:58:40.233,-7.75,-21.1251
11:58:40.241,-7.5625,-21.8126
11:58:40.255,-8.5,-23.1251
11:58:40.263,-8.5,-24.1251
11:58:40.271,-10.0625,-24.8751
11:58:40.279,-9.5625,-26.3751
11:58:40.291,-10.4375,-27.7501
11:58:40.300,-11.5625,-28.9376
11:58:40.309,-12.3125,-29.7501
11:58:40.320,-12.125,-30.4376
11:58:40.330,-12.1875,-29.7501
11:58:40.340,-10,-27.6251
11:58:40.350,-7.9375,-23.5626
11:58:40.360,-3.1875,-17.5626
11:58:40.369,-0.4375,-11.125
11:58:40.412,2.8125,-4.5
11:58:40.414,6.75,0.5
11:58:40.416,8.75,6.1875
11:58:40.421,11.375,9.875
11:58:40.424,12.1875,12.9375
11:58:40.459,13.125,15.0626
11:58:40.461,13.6251,15.7501
11:58:40.463,14.2501,18.0001
11:58:40.468,14.8751,18.2501
11:58:40.498,15.6251,20.7501
11:58:40.502,15.8751,20.3751
11:58:40.503,16.5626,22.1876
11:58:40.511,17.4376,22.9376
11:58:40.516,17.4376,25.0626
11:58:40.554,18.2501,25.3751
11:58:40.554,18.6251,27.0626
11:58:40.556,19.6876,28.3126
11:58:40.559,20.5626,29.2501
11:58:40.566,20.3751,29.9376
11:58:40.584,21.0001,31.0626
11:58:40.586,21.0001,31.1876
11:58:40.596,20.0001,30.3126
11:58:40.604,19.1876,29.1251
11:58:40.615,19.0626,29.1251
11:58:40.624,18.4376,27.0626
11:58:40.634,16.5626,24.9376
11:58:40.645,15.6876,25.5626
11:58:40.656,16.2501,24.1251
11:58:40.664,16.0001,23.0626
11:58:40.676,15.1876,22.7501
11:58:40.684,15.1876,22.0626
11:58:40.695,14.8126,20.8751
11:58:40.707,14.8751,20.6251
11:58:40.715,14.3751,20.8126
11:58:40.725,15.1251,20.1876
11:58:40.735,13.9376,19.1876
11:58:40.745,13.5001,19.3751
11:58:40.755,13.1251,18.6876
11:58:40.765,13,17.5001
11:58:40.775,12.5,16.8126
11:58:40.785,11.875,16.0001
11:58:40.796,11,15.1251
11:58:40.804,10.625,13.2501
11:58:40.815,9.75,12.3125
11:58:40.825,8.8125,11.375
11:58:40.835,8.375,9.375
11:58:40.844,7.5,7.5
11:58:40.855,6.5625,6.6875
11:58:40.864,7.5,6.3125
11:58:40.875,5.75,4.3125
11:58:40.884,5.6875,2.875
11:58:40.896,4.6875,2.4375
11:58:40.905,4.625,0.375
11:58:40.915,3.4375,-0.9375
11:58:40.924,2.5625,-2.25
11:58:40.934,1.9375,-3.4375
11:58:40.945,1.125,-3.6875
11:58:40.955,1.375,-5.4375
11:58:40.983,0.75,-6.6875
11:58:40.985,0.0625,-8.3125
11:58:40.987,-0.8125,-9.3125
11:58:40.995,-1.8125,-9.5625
11:58:41.005,-2.25,-10.5625
11:58:41.015,-2.6875,-12.5
11:58:41.037,-4,-14.8126
11:58:41.038,-4.75,-15.1876
11:58:41.047,-5.5,-15.5001
11:58:41.055,-5.4375,-17.3126
11:58:41.087,-6.5625,-18.4376
11:58:41.090,-6.625,-19.0626
11:58:41.091,-6.625,-20.3126
11:58:41.095,-7.75,-21.1251
11:58:41.105,-8.5625,-20.9376
11:58:41.115,-8.5,-22.5001
11:58:41.150,-9.0625,-24.8126
11:58:41.150,-10.5,-25.8751
11:58:41.153,-10.625,-26.6251
11:58:41.160,-11.9375,-28.1251
11:58:41.165,-12.3125,-28.8126
11:58:41.197,-11.3125,-27.4376
11:58:41.200,-8.9375,-24.5626
11:58:41.201,-6.625,-19.2501
11:58:41.207,-3,-12.625
11:58:41.238,1.75,-6.875
11:58:41.241,4.25,0.3125
11:58:41.242,7.25,4.5
11:58:41.248,9.8125,9.25
11:58:41.276,11.125,12.375
11:58:41.279,11.75,14.6876
11:58:41.282,11.6875,16.1876
11:58:41.286,12.8125,17.1251
11:58:41.307,11.75,17.5001
11:58:41.309,11.5,19.3751
11:58:41.315,12.0625,19.8126
11:58:41.325,12.125,19.4376
11:58:41.335,12.5,21.0001
11:58:41.345,12.5,20.9376
11:58:41.355,13.1251,22.6251
11:58:41.365,13.125,22.5001
11:58:41.377,13.3751,23.5626
11:58:41.384,13.4376,24.7501
11:58:41.395,13.9376,24.7501
11:58:41.405,14.6876,24.9376
11:58:41.415,14.8126,25.0626
11:58:41.424,14.2501,26.5626
11:58:41.435,13.3751,25.7501
11:58:41.447,13.6251,24.3126
11:58:41.455,12.1875,22.3126
11:58:41.465,11.375,21.4376
11:58:41.474,10.5,19.7501
11:58:41.485,9.0625,19.7501
11:58:41.494,8.8125,17.6876
11:58:41.505,8.6875,16.5626
11:58:41.514,8.375,16.5001
11:58:41.525,7.4375,16.9376
11:58:41.540,8.5625,16.9376
11:58:41.548,7.875,15.0001
11:58:41.557,7.1875,14.8126
11:58:41.572,7,15.6251
11:58:41.575,8.125,15.0626
11:58:41.592,8.0625,14.1251
11:58:41.594,7.5625,13.4376
11:58:41.605,7.25,13.9376
11:58:41.616,7.0625,13
11:58:41.624,6.75,11
11:58:41.635,6.25,10.3125
11:58:41.644,5.8125,10.25
11:58:41.655,5.1875,8.0625
11:58:41.664,4.5,6.0625
11:58:41.674,3.8125,5.5
11:58:41.685,4.375,4.3125
11:58:41.695,3.375,2.875
11:58:41.706,2.4375,0.9375
11:58:41.715,1.6875,1.125
11:58:41.725,1.875,-0.0625
11:58:41.734,1.3125,-1.5
11:58:41.745,0.3125,-3.125
11:58:41.756,0.125,-4.4375
11:58:41.765,-0.9375,-4.0625
11:58:41.775,-0.5,-6.0625
11:58:41.785,-1.75,-8.125
11:58:41.795,-2.875,-8.5
11:58:41.805,-2.875,-10.25
11:58:41.814,-3.75,-11.1875
11:58:41.825,-3.625,-12.1875
11:58:41.835,-5.125,-13.125
11:58:41.845,-4.25,-14.0626
11:58:41.879,-6.125,-16.2501
11:58:41.881,-6.9375,-16.6251
11:58:41.882,-7.375,-17.4376
11:58:41.885,-7.1875,-18.7501
11:58:41.924,-8.9375,-20.8126
11:58:41.925,-9.75,-21.5626
11:58:41.927,-10.125,-22.6251
11:58:41.931,-11.1875,-23.5001
11:58:41.936,-11.875,-25.5626
11:58:41.976,-13,-26.1876
11:58:41.978,-14.1876,-27.6876
11:58:41.981,-14.5001,-29.7501
11:58:42.016,-14.3751,-29.5626
11:58:42.016,-14.5001,-30.0626
11:58:42.016,-13.5626,-27.7501
11:58:42.017,-10.3125,-24.1876
11:58:42.025,-7.5625,-17.8751
11:58:42.025,-3.0625,-11.875
11:58:42.039,-0.1875,-5.6875
11:58:42.044,3.1875,0.6875
11:58:42.056,5.375,5.9375
11:58:42.064,8.1875,9.5
11:58:42.075,8.5,13.0625
11:58:42.086,9.625,15.8126
11:58:42.096,10.625,16.5626
11:58:42.105,10.625,17.3126
11:58:42.118,10.9375,18.7501
11:58:42.126,10.6875,18.4376
11:58:42.135,10.8125,19.1251
11:58:42.144,11.25,20.5001
11:58:42.155,11.4375,21.1251
11:58:42.164,11.6875,22.7501
11:58:42.174,12.4375,23.5626
11:58:42.185,12.5,23.9376
11:58:42.197,12.75,25.0001
11:58:42.205,14.0626,25.9376
11:58:42.215,13.6251,26.1876
11:58:42.225,13.3126,26.9376
11:58:42.235,14.1251,28.5001
11:58:42.263,13.9376,27.6876
11:58:42.265,13.4376,26.5626
11:58:42.267,12.75,27.5001
11:58:42.275,12.375,25.1876
11:58:42.284,12.125,23.5626
11:58:42.295,10.625,21.9376
11:58:42.304,10.375,20.9376
11:58:42.314,10.125,21.0001
11:58:42.324,10.4375,19.6251
11:58:42.335,9.3125,18.9376
11:58:42.353,9.5625,19.1251
11:58:42.355,9.625,17.8751
11:58:42.372,8.5,17.8126
11:58:42.386,8.6875,18.1876
11:58:42.388,8.8125,16.3126
11:58:42.397,8.5,16.3751
11:58:42.404,7.6875,16.3126
11:58:42.415,8.1875,15.3126
11:58:42.425,8.0625,14.0001
11:58:42.435,7.4375,12.9375
11:58:42.445,5.6875,12.8125
11:58:42.454,5.4375,10.9375
11:58:42.464,5,9.125
11:58:42.475,4.1875,7.875
11:58:42.485,3.5625,7.75
11:58:42.495,3.1875,6.125
11:58:42.504,2.4375,4.375
11:58:42.535,1.75,3.75
11:58:42.537,0.9375,2.9375
11:58:42.540,0.4375,0.875
11:58:42.544,0.5625,-0.125
11:58:42.572,-0.5625,-1.8125
11:58:42.573,-1.375,-2.9375
11:58:42.577,-1.4375,-3.75
11:58:42.611,-1.875,-5.625
11:58:42.612,-3.1875,-6.8125
11:58:42.615,-3.9375,-7.4375
11:58:42.618,-4.75,-8.625
11:58:42.653,-4.9375,-10.875
11:58:42.655,-5.9375,-11.625
11:58:42.656,-6.4375,-11.8125
11:58:42.664,-6.375,-14.1251
11:58:42.665,-7.125,-14.7501
11:58:42.697,-7.8125,-16.1876
11:58:42.700,-8.8125,-16.2501
11:58:42.702,-9,-18.3126
11:58:42.704,-9.25,-19.8126
11:58:42.719,-11.5,-20.9376
11:58:42.724,-11.1875,-22.0626
11:58:42.735,-12.5,-24.2501
11:58:42.745,-12.8125,-24.9376
11:58:42.755,-14.0001,-26.1251
11:58:42.765,-14.5001,-26.3126
11:58:42.776,-14.6876,-28.2501
11:58:42.785,-15.3751,-28.8126
11:58:42.795,-16.0001,-29.4376
11:58:42.804,-16.7501,-30.5001
11:58:42.816,-16.8126,-32.5001
11:58:42.825,-17.8126,-33.2501
11:58:42.835,-18.7501,-34.1251
11:58:42.856,-18.9376,-35.5001
11:58:42.858,-19.4376,-36.2501
11:58:42.868,-19.1251,-36.9376
11:58:42.874,-18.8126,-36.1876
11:58:42.889,-16.5626,-33.2501
11:58:42.898,-14.6876,-29.0001
11:58:42.905,-10.25,-23.1251
11:58:42.915,-6.5625,-16.8751
11:58:42.926,-2.75,-8.6875
11:58:42.935,1.0625,-4
11:58:42.944,3.3125,3.875
11:58:42.954,5.6875,7.375
11:58:42.965,8.125,9.875
11:58:42.976,8.25,13.125
11:58:42.985,9.3125,15.0626
11:58:42.995,9.6875,15.6251
11:58:43.005,9.5,17.0001
11:58:43.014,10.1875,17.4376
11:58:43.025,10.125,18.5001
11:58:43.035,10.375,19.5001
11:58:43.045,11.375,20.0001
11:58:43.056,12,22.0626
11:58:43.064,13.1876,23.0626
11:58:43.075,13.8126,25.0626
11:58:43.084,14.1876,25.0626
11:58:43.094,14.0001,26.5626
11:58:43.105,15.5001,27.0626
11:58:43.115,14.1876,27.6876
11:58:43.126,14.7501,29.5001
11:58:43.135,14.3126,28.6876
11:58:43.144,14.0626,27.0001
11:58:43.155,13.1876,26.6251
11:58:43.165,12.125,25.7501
11:58:43.175,11.75,24.5626
11:58:43.185,11.9375,23.1251
11:58:43.195,10.75,22.5001
11:58:43.205,10.6875,21.1251
11:58:43.215,10.375,20.3126
11:58:43.225,9.5,19.4376
11:58:43.235,9.75,20.1876
11:58:43.245,9.6875,19.6251
11:58:43.255,9.0625,18.6251
11:58:43.265,9.125,18.5626
11:58:43.275,9.4375,18.0001
11:58:43.285,8.6875,18.5626
11:58:43.296,8.8125,17.5626
11:58:43.305,8.1875,16.0626
11:58:43.344,7.625,15.3126
11:58:43.345,6.4375,15.6251
11:58:43.348,6.75,13.7501
11:58:43.352,6.3125,12.6875
11:58:43.356,5.625,11.3125
11:58:43.388,5.0625,12.125
11:58:43.390,5.625,9.9375
11:58:43.392,4.25,8.3125
11:58:43.425,3.25,7.625
11:58:43.427,2.625,7
11:58:43.428,2.625,5.1875
11:58:43.433,2.4375,3.6875
11:58:43.467,1.75,1.9375
11:58:43.469,0.625,2.1875
11:58:43.471,0.5,0.5625
11:58:43.473,0.75,-0.6875
11:58:43.480,-0.6875,-2.6875
11:58:43.497,-1,-3.375
11:58:43.500,-1.875,-4.3125
11:58:43.509,-2.375,-4.5
11:58:43.544,-2.4375,-7.125
11:58:43.546,-2.9375,-9.25
11:58:43.549,-3.5,-9.125
11:58:43.553,-4.625,-10.25
11:58:43.560,-5.1875,-12.4375
11:58:43.570,-5.3125,-12.25
11:58:43.580,-5.0625,-13.3126
11:58:43.590,-5.625,-14.6876
11:58:43.600,-7,-16.1251
11:58:43.610,-7.8125,-16.1251
11:58:43.622,-8.25,-18.1876
11:58:43.629,-8.1875,-19.7501
11:58:43.640,-8.6875,-20.1251
11:58:43.649,-9.875,-21.3126
11:58:43.671,-10,-22.3751
11:58:43.673,-10,-23.0626
11:58:43.682,-10.5,-23.8126
11:58:43.689,-10.8125,-24.2501
11:58:43.705,-11.75,-25.5001
11:58:43.714,-11.375,-27.1876
11:58:43.720,-11.9375,-28.0001
11:58:43.730,-12.875,-28.1251
11:58:43.739,-13.5001,-29.9376
11:58:43.749,-14.5001,-32.3126
11:58:43.759,-14.5001,-31.5626
11:58:43.769,-14.3126,-32.0626
11:58:43.780,-11.5,-28.8126
11:58:43.789,-9.25,-23.0626
11:58:43.801,-5.0625,-17.6251
11:58:43.810,-0.9375,-10.875
11:58:43.819,2.6875,-3.9375
11:58:43.829,6.3125,2
11:58:43.840,9.1875,8
11:58:43.851,10.3125,11.4375
11:58:43.859,11.8125,14.7501
11:58:43.872,12.625,17.0626
11:58:43.881,12.8125,19.0001
11:58:43.892,13.3126,19.5626
11:58:43.900,12.75,20.6876
11:58:43.909,14.0626,21.3751
11:58:43.920,12.75,21.5626
11:58:43.929,13.5001,22.6876
11:58:43.940,13.1876,23.4376
11:58:43.950,13.6251,23.8126
11:58:43.959,14.3126,24.3751
11:58:43.970,15.1251,25.2501
11:58:43.981,14.9376,26.3751
11:58:44.001,14.9376,28.1251
11:58:44.003,15.3126,28.5626
11:58:44.009,16.1876,28.5626
11:58:44.040,15.6251,27.9376
11:58:44.043,16.0001,28.5626
11:58:44.045,15.2501,28.1251
11:58:44.051,14.6251,27.1876
11:58:44.079,13.7501,25.8751
11:58:44.082,12.25,25.6251
11:58:44.084,12.5625,24.6251
11:58:44.091,12.375,22.8751
11:58:44.102,10.875,21.2501
11:58:44.133,10.625,21.8751
11:58:44.136,10.8125,21.4376
11:58:44.139,11.125,20.1876
11:58:44.141,10.875,20.1876
11:58:44.171,9.375,18.8126
11:58:44.174,9.75,19.1251
11:58:44.187,9.8125,18.5626
11:58:44.190,8.75,18.0626
11:58:44.199,8.4375,18.3126
11:58:44.200,9,17.6251
11:58:44.219,8.3125,16.1876
11:58:44.225,7.625,15.7501
11:58:44.234,7.875,14.9376
11:58:44.240,6.9375,13.6251
11:58:44.250,5.75,11.4375
11:58:44.259,5.375,11.75
11:58:44.270,5.5625,9.625
11:58:44.280,4.625,8.3125
11:58:44.290,2.6875,6.3125
11:58:44.299,2.3125,5.3125
11:58:44.310,2.875,4.625
11:58:44.319,1.4375,3
11:58:44.330,0.6875,0.9375
11:58:44.341,-0.375,-0.625
11:58:44.349,-1.0625,-1.6875
11:58:44.359,-1.1875,-1.8125
11:58:44.369,-2.3125,-3.5
11:58:44.379,-2.5625,-5.125
11:58:44.390,-3.5625,-6.6875
11:58:44.399,-4.8125,-7.6875
11:58:44.410,-4.4375,-8.1875
11:58:44.419,-5.1875,-9.8125
11:58:44.431,-5.75,-10.6875
11:58:44.440,-6.4375,-11.0625
11:58:44.450,-6.5625,-12.6875
11:58:44.460,-7.75,-14.1251
11:58:44.470,-8.5,-16.0626
11:58:44.480,-9,-15.8751
11:58:44.490,-9.1875,-17.5001
11:58:44.499,-10.4375,-19.3751
11:58:44.509,-10.875,-20.0626
11:58:44.521,-11.75,-21.1251
11:58:44.529,-11.25,-21.5626
11:58:44.539,-12.125,-23.0001
11:58:44.549,-13.3126,-25.0001
11:58:44.560,-13.9376,-26.0001
11:58:44.570,-15.0001,-27.5626
11:58:44.579,-15.1876,-28.1876
11:58:44.589,-15.8751,-29.5001
11:58:44.599,-15.4376,-28.3751
11:58:44.611,-14.0001,-27.7501
11:58:44.620,-11.0625,-21.9376
11:58:44.633,-7.6875,-17.8751
11:58:44.639,-4.3125,-9.875
11:58:44.649,-0.0625,-4
11:58:44.659,4.0625,3.5
11:58:44.670,6.875,8.5625
11:58:44.680,8.6875,13.8126
11:58:44.690,10.9375,16.5626
11:58:44.701,11.8125,20.5001
11:58:44.710,12.4375,21.2501
11:58:44.720,12.25,22.3751
11:58:44.730,13.5626,23.6876
11:58:44.739,13,24.3751
11:58:44.763,13.3751,24.8751
11:58:44.766,13.5001,25.9376
11:58:44.771,14.6251,27.5626
11:58:44.812,15.1876,27.6876
11:58:44.814,15.2501,28.5001
11:58:44.816,15.7501,29.3126
11:58:44.831,16.3751,30.6251
11:58:44.834,16.1251,31.0001
11:58:44.836,16.5626,33.5001
11:58:44.839,17.7501,33.8751
11:58:44.872,17.3751,32.5626
11:58:44.875,16.6251,32.9376
11:58:44.879,16.0626,32.6251
11:58:44.881,16.2501,30.9376
11:58:44.912,15.1876,29.4376
11:58:44.914,15.0626,29.4376
11:58:44.918,15.1876,28.6251
11:58:44.921,14.1876,27.3751
11:58:44.931,13.9376,26.3751
11:58:44.939,13.5001,27.0626
11:58:44.950,13.9376,25.8751
11:58:44.960,13.3751,24.7501
11:58:44.972,12.375,25.5626
11:58:44.988,12.5,25.3751
11:58:44.991,12.625,24.6876
11:58:45.023,12.125,23.2501
11:58:45.025,11.1875,22.6876
11:58:45.042,11.5625,22.8751
11:58:45.044,11.25,20.8751
11:58:45.044,9.75,19.8126
11:58:45.051,8.9375,19.4376
11:58:45.061,8.3125,18.4376
11:58:45.069,7.5625,15.9376
11:58:45.079,6.5625,13.8751
11:58:45.089,5,13
11:58:45.099,4.4375,12
11:58:45.109,3.0625,9.25
11:58:45.120,1.0625,8.0625
11:58:45.130,0.3125,6.875
11:58:45.140,0.25,5.5
11:58:45.151,0.3125,3.3125
11:58:45.159,-0.9375,1.9375
11:58:45.169,-2,0.25
11:58:45.179,-2.375,-0.125
11:58:45.189,-3.125,-0.625
11:58:45.199,-2.5,-1.625
11:58:45.210,-3.5,-3.75
11:58:45.220,-4.75,-5.1875
11:58:45.230,-4.9375,-5.6875
11:58:45.241,-5.75,-7.5625
11:58:45.250,-7.125,-10.1875
11:58:45.260,-8,-11.125
11:58:45.270,-9.8125,-11.9375
11:58:45.280,-10.125,-14.5001
11:58:45.291,-11,-16.8126
11:58:45.299,-12.375,-17.0001
11:58:45.309,-12.9375,-17.8751
11:58:45.319,-12.375,-20.1876
11:58:45.331,-13.6251,-20.4376
11:58:45.339,-13.4376,-20.3751
11:58:45.349,-13.8126,-22.1251
11:58:45.360,-14.1251,-22.5001
11:58:45.369,-15.2501,-24.3126
11:58:45.381,-15.3751,-24.8751
11:58:45.391,-15.8126,-26.0001
11:58:45.400,-17.0001,-28.1876
11:58:45.409,-18.3126,-29.7501
11:58:45.421,-19.6876,-30.9376
11:58:45.430,-20.5626,-33.4376
11:58:45.440,-20.6876,-32.8751
11:58:45.449,-20.0001,-33.0626
11:58:45.460,-16.8126,-28.1876
11:58:45.470,-13,-22.6876
11:58:45.479,-7.375,-14.1251
11:58:45.648,-1,-5.5
11:58:45.651,6,4.5
11:58:45.651,11.875,13.1876
11:58:45.653,17.6876,21.6251
11:58:45.660,22.9376,28.7501
11:58:45.661,26.3126,34.7501
11:58:45.661,25.1876,33.9376
11:58:45.672,28.0626,39.5627
11:58:45.679,29.8126,41.1877
11:58:45.691,30.8751,43.5627
11:58:45.699,32.9376,45.7502
11:58:45.710,33.6876,47.3127
11:58:45.721,29.2501,45.8127
11:58:45.729,17.6876,37.3126
11:58:45.739,11.5625,32.9376
11:58:45.750,4,28.3751
11:58:45.765,-3.875,25.4376
11:58:45.770,-13.8126,18.5626
11:58:45.781,-24.5626,10.875
11:58:45.790,-28.2501,8.5
11:58:45.800,-29.5001,9.6875
11:58:45.810,-29.3751,10.8125
11:58:45.819,-30.3751,11.1875
11:58:45.829,-22.6876,34.1251
11:58:45.840,-23.3126,32.8751
11:58:45.850,-23.1876,32.0626
11:58:45.859,-23.1876,31.6251
11:58:45.871,-22.8126,30.8126
11:58:45.880,-22.2501,28.5001
11:58:45.890,-22.8126,26.0001
11:58:45.899,-21.8751,24.8751
11:58:45.909,-21.4376,22.3126
11:58:45.919,-21.3751,19.8751
11:58:45.930,-21.4376,16.3126
11:58:45.939,-22.2501,14.8126
11:58:45.949,-22.5001,10.5
11:58:45.961,-21.1251,10.0625
11:58:45.969,-14.0626,12.0625
11:58:45.980,-0.875,20.8751
11:58:45.990,18.2501,35.0626
11:58:46.000,41.7502,53.6877
11:58:46.009,60.1252,69.1253
11:58:46.019,64.8752,73.8128
11:58:46.030,62.1877,69.6878
11:58:46.040,54.8752,61.8752
11:58:46.051,48.5002,53.3127
11:58:46.059,43.1877,46.2502
11:58:46.071,39.2501,40.5002
11:58:46.102,35.6876,35.5001
11:58:46.105,33.2501,30.2501
11:58:46.108,29.5626,24.6251
11:58:46.112,25.8126,20.9376
11:58:46.121,23.5001,16.8751
11:58:46.130,21.5626,14.6251
11:58:46.141,20.3126,12.75
11:58:46.150,16.6251,9.25
11:58:46.160,13.6876,6.1875
11:58:46.170,9.75,4.25
11:58:46.180,6.625,1.625
11:58:46.189,3.3125,-1.8125
11:58:46.201,-0.1875,-6
11:58:46.209,-4.1875,-9.4375
11:58:46.221,-7.25,-12.1875
11:58:46.232,-11,-16.3126
11:58:46.266,-14.9376,-20.1876
11:58:46.267,-18.6251,-23.3126
11:58:46.270,-22.6251,-25.9376
11:58:46.275,-25.8126,-29.7501
11:58:46.313,-28.3751,-31.9376
11:58:46.316,-31.3751,-33.0001
11:58:46.352,-32.2501,-32.4376
11:58:46.353,-37.4376,-37.5001
11:58:46.356,-39.9377,-38.6876
11:58:46.357,-39.5002,-37.5626
11:58:46.357,-37.9376,-30.9376
11:58:46.397,-33.8126,-25.5626
11:58:46.399,-30.1251,-18.5626
11:58:46.401,-24.3126,-8.875
11:58:46.403,-19.7501,-1.75
11:58:46.406,-15.5001,6
11:58:46.419,-11.9375,12.9375
11:58:46.424,-10.25,18.8126
11:58:46.435,-8.8125,21.2501
11:58:46.445,-9.1875,24.5626
11:58:46.455,-8.4375,25.0001
11:58:46.464,-7.75,26.5626
11:58:46.475,-7.5625,28.1251
11:58:46.485,-5.8125,29.3126
11:58:46.495,-5.3125,29.8126
11:58:46.504,-5.4375,31.0626
11:58:46.522,-4.9375,30.3751
11:58:46.524,-5.3125,31.6876
11:58:46.535,-4.8125,30.3126
11:58:46.545,-5.8125,31.1251
11:58:46.555,-5.8125,29.3751
11:58:46.565,-6.625,29.3126
11:58:46.575,-7.4375,28.2501
11:58:46.584,-7.6875,26.7501
11:58:46.595,-9.375,24.6876
11:58:46.604,-9.125,23.1876
11:58:46.616,-11.25,21.9376
11:58:46.625,-11.625,19.2501
11:58:46.635,-14.2501,16.5001
11:58:46.645,-15.2501,13.7501
11:58:46.655,-13.6876,13.7501
11:58:46.664,-13.1876,13.5001
11:58:46.674,-13.5626,12.625
11:58:46.685,-10.9375,13.5626
11:58:46.695,-11.5,12.9375
11:58:46.704,-10.375,12.4375
11:58:46.715,-11.125,11.25
11:58:46.724,-9.6875,11.125
11:58:46.735,-10.625,11.0625
11:58:46.744,-9.5625,10
11:58:46.754,-9.25,9.3125
11:58:46.765,-9.5625,8.0625
11:58:46.774,-11.4375,6.5
11:58:46.785,-12.25,4
11:58:46.795,-13.7501,1.4375
11:58:46.805,-13.3126,0.25
11:58:46.814,-14.0626,-1.375
11:58:46.825,-13.1876,-1.9375
11:58:46.834,-13.6876,-2.6875
11:58:46.845,-13.6876,-4.5625
11:58:46.855,-17.2501,-6.9375
11:58:46.877,-19.3751,-9.75
11:58:46.880,-22.3126,-12.5625
11:58:46.900,-22.7501,-14.0001
11:58:46.903,-25.3751,-15.8751
11:58:46.905,-25.1876,-17.6876
11:58:46.917,-26.5626,-18.5626
11:58:46.945,-25.1876,-18.1876
11:58:46.947,-23.8126,-17.1876
11:58:46.951,-25.5001,-17.8751
11:58:46.956,-26.8751,-19.7501
11:58:46.984,-27.1251,-20.8751
11:58:46.985,-30.0001,-22.6251
11:58:46.988,-29.8126,-24.2501
11:58:47.020,-31.5626,-25.1876
11:58:47.024,-31.5001,-26.3126
11:58:47.025,-33.0626,-27.4376
11:58:47.030,-32.4376,-27.7501
11:58:47.036,-32.6876,-28.5001
11:58:47.066,-31.7501,-28.6876
11:58:47.069,-31.2501,-29.3751
11:58:47.071,-32.8751,-30.3126
11:58:47.075,-32.9376,-32.3126
11:58:47.102,-34.5001,-33.7501
11:58:47.106,-34.6876,-35.3751
11:58:47.107,-35.8126,-36.9376
11:58:47.115,-37.1876,-38.3126
11:58:47.125,-37.6876,-41.4377
11:58:47.136,-39.5002,-42.2502
11:58:47.145,-40.0002,-44.8127
11:58:47.154,-39.1876,-46.0002
11:58:47.164,-38.6876,-45.5002
11:58:47.175,-37.1876,-43.6252
11:58:47.184,-34.7501,-38.8751
11:58:47.194,-30.6251,-33.1251
11:58:47.204,-26.5001,-26.6876
11:58:47.216,-22.1876,-20.0626
11:58:47.224,-19.3751,-14.1251
11:58:47.235,-15.1251,-8
11:58:47.244,-13,-2.375
11:58:47.254,-9.5625,2
11:58:47.268,-7.375,4.625
11:58:47.275,-5.25,8.5625
11:58:47.286,-4.125,11
11:58:47.294,-2.375,12.5625
11:58:47.307,-1.3125,14.0001
11:58:47.315,-0.875,15.4376
11:58:47.325,0,16.3751
11:58:47.335,1.5625,17.3751
11:58:47.345,1.9375,18.8751
11:58:47.355,2.6875,19.5626
11:58:47.385,3.5625,20.3751
11:58:47.386,3.375,21.5001
11:58:47.387,3.5,20.5001
11:58:47.394,3,20.7501
11:58:47.407,2.375,20.5626
11:58:47.415,1.9375,19.1251
11:58:47.425,1.375,18.6876
11:58:47.434,0.125,16.9376
11:58:47.445,-1.8125,15.1876
11:58:47.455,-2.4375,13.125
11:58:47.464,-5.25,10.8125
11:58:47.475,-6.375,10.375
11:58:47.484,-7.1875,7.875
11:58:47.495,-9.0625,5.9375
11:58:47.504,-10.5625,4.6875
11:58:47.520,-12.4375,4.25
11:58:47.530,-12.75,2.9375
11:58:47.540,-13.1876,1.875
11:58:47.550,-13.8126,2.125
11:58:47.560,-13.6251,2.375
11:58:47.569,-14.2501,3.6875
11:58:47.581,-15.0001,3.125
11:58:47.589,-14.8751,2
11:58:47.608,-16.3751,0
11:58:47.611,-18.0001,-0.4375
11:58:47.626,-17.8751,-0.8125
11:58:47.630,-19.3126,-0.8125
11:58:47.639,-18.3751,0.5625
11:58:47.669,-16.8751,0.125
11:58:47.673,-16.0001,0.3125
11:58:47.675,-15.7501,-0.125
11:58:47.680,-15.8126,0.25
11:58:47.713,-16.1251,-0.375
11:58:47.716,-16.0001,-0.875
11:58:47.717,-14.8126,-2.125
11:58:47.723,-14.5001,-2.5625
11:58:47.731,-13.1876,-2.3125
11:58:47.759,-12.5625,-4.1875
11:58:47.762,-12.6875,-4.9375
11:58:47.764,-11.9375,-6.0625
11:58:47.771,-13.6251,-8.6875
11:58:47.797,-14.5626,-9.125
11:58:47.800,-14.8126,-11.9375
11:58:47.803,-15.5001,-12.5625
11:58:47.835,-16.0001,-15.5626
11:58:47.838,-16.8126,-17.3126
11:58:47.839,-17.1876,-18.3126
11:58:47.846,-18.0001,-21.1251
11:58:47.851,-18.8751,-22.3751
11:58:47.860,-19.5001,-24.1251
11:58:47.869,-20.5001,-25.3126
11:58:47.879,-20.6876,-27.0001
11:58:47.890,-21.8126,-29.5626
11:58:47.902,-22.3751,-31.0001
11:58:47.910,-24.0626,-32.8751
11:58:47.920,-24.1876,-34.3751
11:58:47.930,-25.2501,-35.9376
11:58:47.941,-25.6251,-37.6876
11:58:47.949,-25.9376,-37.6251
11:58:47.960,-25.3126,-36.4376
11:58:47.969,-22.7501,-34.8751
11:58:47.979,-20.1251,-29.5001
11:58:47.989,-16.0626,-24.3126
11:58:48.001,-11.75,-18.1876
11:58:48.009,-8.8125,-11.0625
11:58:48.024,-5.3125,-6.0625
11:58:48.032,-1.5,0
11:58:48.040,0.4375,3.8125
11:58:48.049,2.25,8.0625
11:58:48.060,3,10.0625
11:58:48.071,2.9375,12
11:58:48.079,3.375,13.7501
11:58:48.089,2.9375,15.0626
11:58:48.099,4,16.3126
11:58:48.110,3.5,17.7501
11:58:48.122,3.6875,18.9376
11:58:48.130,3.875,20.1876
11:58:48.139,3.8125,20.5626
11:58:48.150,2.9375,20.9376
11:58:48.160,5.4375,23.5626
11:58:48.179,4.9375,25.2501
11:58:48.190,4.75,25.4376
11:58:48.193,4.6875,26.6876
11:58:48.200,6.375,28.4376
11:58:48.213,5.4375,29.6876
11:58:48.220,5.5,31.0626
11:58:48.230,6.5,30.6876
11:58:48.239,6.8125,30.4376
11:58:48.250,7.1875,31.1251
11:58:48.259,7.8125,30.9376
11:58:48.269,7.25,30.1876
11:58:48.279,6.875,29.7501
11:58:48.290,7.125,29.6876
11:58:48.301,7.125,28.1251
11:58:48.309,7.0625,28.5001
11:58:48.321,6.6875,27.7501
11:58:48.329,8,27.6251
11:58:48.340,8.75,26.8751
11:58:48.350,8.4375,24.8751
11:58:48.360,7.6875,24.7501
11:58:48.371,9.125,24.6251
11:58:48.379,7.9375,22.5626
11:58:48.391,8.1875,22.6251
11:58:48.399,7.75,19.5001
11:58:48.410,6.875,17.5626
11:58:48.419,5.6875,15.2501
11:58:48.442,4.3125,14.1876
11:58:48.444,3.125,11.9375
11:58:48.471,2.9375,9.25
11:58:48.473,1.9375,6.5625
11:58:48.476,0.75,4.8125
11:58:48.482,0.375,3
11:58:48.519,-0.875,0.1875
11:58:48.519,-1.9375,-0.9375
11:58:48.522,-1.9375,-2.125
11:58:48.524,-2.5,-5
11:58:48.530,-3.375,-6.9375
11:58:48.561,-4.5625,-7.625
11:58:48.563,-5.25,-10.375
11:58:48.566,-6.875,-12.875
11:58:48.572,-8.1875,-15.8126
11:58:48.605,-10.4375,-16.8751
11:58:48.610,-11.5,-19.3751
11:58:48.610,-13.2501,-22.8126
11:58:48.612,-15.5001,-25.0626
11:58:48.620,-17.0001,-27.0001
11:58:48.630,-18.3126,-29.0001
11:58:48.665,-18.2501,-31.0626
11:58:48.668,-20.9376,-34.0001
11:58:48.668,-22.1876,-35.9376
11:58:48.671,-23.7501,-37.6876
11:58:48.680,-25.4376,-38.7501
11:58:48.689,-26.2501,-41.0627
11:58:48.701,-27.2501,-43.1252
11:58:48.710,-29.0001,-44.3752
11:58:48.720,-29.7501,-45.5627
11:58:48.730,-30.3751,-46.6252
11:58:48.740,-31.5626,-48.2502
11:58:48.751,-32.1251,-50.1877
11:58:48.759,-33.7501,-51.0627
11:58:48.772,-33.3126,-51.3752
11:58:48.782,-34.3126,-53.2502
11:58:48.790,-33.3751,-51.8127
11:58:48.799,-32.3751,-52.6877
11:58:48.809,-31.3751,-50.8127
11:58:48.819,-28.1251,-47.6877
11:58:48.829,-25.3751,-42.5002
11:58:48.840,-20.8751,-35.2501
11:58:48.849,-16.1251,-28.1251
11:58:48.860,-12.1875,-20.3126
11:58:48.871,-7.5,-11.5
11:58:48.881,-3.9375,-5.75
11:58:48.891,-0.1875,1.9375
11:58:48.906,2.3125,5.4375
11:58:48.921,4.3125,10.375
11:58:48.923,7,13.5001
11:58:48.931,7.0625,15.8751
11:58:48.940,8.25,17.5626
11:58:48.949,8.3125,19.0001
11:58:48.959,9.125,19.8126
11:58:48.971,10.0625,21.1876
11:58:48.980,10.1875,22.9376
11:58:48.990,12.625,24.3126
11:58:49.000,12,24.9376
11:58:49.009,14.0001,26.9376
11:58:49.021,13.8126,27.5001
11:58:49.031,14.3126,27.8126
11:58:49.040,15.0001,28.4376
11:58:49.049,15.6251,29.0626
11:58:49.059,15.5001,29.4376
11:58:49.070,14.6876,29.8751
11:58:49.080,15.4376,28.5626
11:58:49.090,14.5626,26.9376
11:58:49.099,15.4376,26.4376
11:58:49.112,15.6876,25.4376
11:58:49.120,14.5626,24.8126
11:58:49.130,15.0626,23.5001
11:58:49.140,13.8751,22.2501
11:58:49.149,14.1251,19.5626
11:58:49.159,11.8125,18.1876
11:58:49.171,12,17.0001
11:58:49.179,11.0625,16.3126
11:58:49.194,11.75,14.7501
11:58:49.201,9.875,13.1876
11:58:49.232,9.0625,12.6875
11:58:49.235,7.8125,9.8125
11:58:49.237,6.5,8.1875
11:58:49.241,5.9375,6.1875
11:58:49.269,4.25,4.5625
11:58:49.271,2.5,3.25
11:58:49.274,0.4375,-0.5625
11:58:49.280,-1.125,-3.125
11:58:49.291,-3,-5.125
11:58:49.321,-5.3125,-7.25
11:58:49.324,-6.9375,-8.625
11:58:49.364,-8.125,-11.25
11:58:49.368,-10.125,-13.5626
11:58:49.371,-12.1875,-13.6876
11:58:49.371,-12,-15.9376
11:58:49.371,-13.4376,-17.5001
11:58:49.375,-14.8126,-18.9376
11:58:49.387,-15.8126,-19.7501
11:58:49.398,-16.0001,-21.9376
11:58:49.407,-15.7501,-23.1876
11:58:49.416,-16.1876,-23.0001
11:58:49.425,-17.0001,-24.1251
11:58:49.434,-16.5626,-25.1251
11:58:49.445,-17.9376,-26.7501
11:58:49.454,-18.6876,-27.5001
11:58:49.464,-20.3126,-29.7501
11:58:49.480,-20.5626,-30.6876
11:58:49.495,-21.5001,-31.5001
11:58:49.497,-22.0626,-31.7501
11:58:49.504,-21.1876,-32.5626
11:58:49.515,-21.0001,-33.3751
11:58:49.528,-22.0001,-34.2501
11:58:49.536,-22.3126,-35.2501
11:58:49.544,-23.2501,-37.0001
11:58:49.554,-24.1251,-37.2501
11:58:49.564,-24.8751,-39.9377
11:58:49.574,-24.6251,-39.7502
11:58:49.584,-25.1876,-42.3127
11:58:49.594,-25.2501,-42.3752
11:58:49.604,-25.2501,-44.3752
11:58:49.614,-26.0626,-44.4377
11:58:49.624,-26.6876,-47.0002
11:58:49.634,-27.5626,-48.4377
11:58:49.644,-27.3751,-49.5002
11:58:49.655,-28.4376,-50.6252
11:58:49.664,-28.2501,-50.7502
11:58:49.674,-26.8126,-49.6877
11:58:49.685,-25.0001,-46.2502
11:58:49.695,-21.0626,-41.2502
11:58:49.705,-17.1876,-34.1876
11:58:49.714,-12.125,-28.1876
11:58:49.724,-8.8125,-20.0001
11:58:49.734,-4.3125,-15.5626
11:58:49.745,-1.75,-8.6875
11:58:49.755,1.125,-6
11:58:49.764,1.6875,-1.25
11:58:49.776,4.1875,0.0625
11:58:49.784,4.125,2.625
11:58:49.795,5.3125,2.8125
11:58:49.804,5.25,4.1875
11:58:49.814,6.125,5.8125
11:58:49.824,6.625,5.6875
11:58:49.835,7.3125,7.625
11:58:49.844,7.25,7.3125
11:58:49.855,7.625,9.375
11:58:49.864,7.4375,8.1875
11:58:49.875,7.3125,10.1875
11:58:49.887,7.0625,9.3125
11:58:49.905,6.9375,10.5625
11:58:49.907,6.4375,9.4375
11:58:49.943,5.875,10.625
11:58:49.945,5,9
11:58:49.948,4.125,8.9375
11:58:49.949,2.25,6.625
11:58:49.955,0.8125,6.25
11:58:49.981,0.875,4.75
11:58:49.985,-0.1875,2.75
11:58:49.986,-1.25,1.625
11:58:50.021,-3.0625,1.0625
11:58:50.025,-2.125,-0.375
11:58:50.025,-3.125,-1.625
11:58:50.033,-3.875,-0.875
11:58:50.039,-3.8125,-0.5
11:58:50.066,-2.875,-1.0625
11:58:50.068,-3.625,-1
11:58:50.072,-3.1875,-0.75
11:58:50.081,-3.375,-1.625
11:58:50.090,-3.9375,-1.8125
11:58:50.101,-4.8125,-1.3125
11:58:50.109,-5.25,-1.1875
11:58:50.120,-5.125,-2.4375
11:58:50.129,-5.0625,-3
11:58:50.139,-5.5,-3.125
11:58:50.149,-5.5,-4.25
11:58:50.163,-6.25,-5.1875
11:58:50.170,-7.0625,-6.5
11:58:50.181,-7.25,-7.4375
11:58:50.201,-7.5625,-8.125
11:58:50.203,-7.9375,-9.4375
11:58:50.219,-9.8125,-11.5
11:58:50.221,-10.0625,-12.625
11:58:50.229,-11,-14.0001
11:58:50.239,-11.3125,-14.5626
11:58:50.249,-11.4375,-16.3126
11:58:50.260,-12.0625,-16.6876
11:58:50.272,-12.5,-19.0626
11:58:50.285,-12.8125,-19.1876
11:58:50.289,-13.6251,-20.5001
11:58:50.299,-13.6876,-22.3751
11:58:50.310,-14.3751,-24.1251
11:58:50.319,-14.3126,-24.1876
11:58:50.330,-14.5626,-26.3126
11:58:50.340,-14.6876,-26.3126
11:58:50.350,-15.4376,-28.2501
11:58:50.360,-15.6251,-28.8751
11:58:50.371,-15.8751,-31.0001
11:58:50.380,-16.9376,-32.0626
11:58:50.390,-17.3126,-33.7501
11:58:50.400,-18.0001,-34.0001
11:58:50.412,-19.8751,-36.7501
11:58:50.420,-20.2501,-38.0626
11:58:50.429,-20.8751,-40.3752
11:58:50.440,-21.5001,-40.8752
11:58:50.450,-23.0001,-42.9377
11:58:50.462,-23.3751,-44.0627
11:58:50.471,-24.1251,-45.5627
11:58:50.480,-23.7501,-45.5002
11:58:50.491,-23.7501,-43.3127
11:58:50.502,-21.1251,-40.8752
11:58:50.511,-18.0626,-35.3126
11:58:50.521,-14.6876,-29.9376
11:58:50.529,-10.6875,-22.1876
11:58:50.540,-7.1875,-15.5001
11:58:50.551,-3.875,-10
11:58:50.560,-1.375,-4.3125
11:58:50.570,0.5,-0.5
11:58:50.579,2.125,3.3125
11:58:50.589,3.25,5.3125
11:58:50.600,3.875,9.1875
11:58:50.609,5.5625,10.9375
11:58:50.637,6.5625,13.3126
11:58:50.643,7.5,14.8751
11:58:50.647,8.3125,17.0001
11:58:50.651,9,17.6251
11:58:50.683,9.875,20.2501
11:58:50.684,11.125,21.4376
11:58:50.688,12.375,24.6876
11:58:50.691,13.8751,25.8126
11:58:50.724,15.0626,29.2501
11:58:50.725,14.8126,29.1251
11:58:50.729,14.0626,29.6876
11:58:50.757,14.6251,30.9376
11:58:50.757,15.0626,31.4376
11:58:50.760,14.8751,29.6251
11:58:50.795,14.0001,29.6251
11:58:50.798,14.5626,29.2501
11:58:50.798,13.3126,28.8126
11:58:50.812,13.125,29.1876
11:58:50.815,15.8751,30.4376
11:58:50.824,14.1251,29.2501
11:58:50.835,11,25.7501
11:58:50.844,14.5001,29.9376
11:58:50.854,16.8751,30.1876
11:58:50.865,17.0001,29.1251
11:58:50.875,18.1876,30.4376
11:58:50.886,19.3751,32.5626
11:58:50.894,47.1252,55.6252
11:58:50.904,40.0627,47.0627
11:58:50.914,42.7502,48.5627
11:58:50.925,47.6252,51.3752
11:58:50.934,50.0002,52.3127
11:58:50.945,53.3127,54.0002
11:58:50.954,54.1877,54.0002
11:58:50.964,55.6877,52.4377
11:58:50.976,53.5002,49.9377
11:58:50.985,51.6877,48.4377
11:58:50.995,50.3127,45.2502
11:58:51.005,49.1252,43.3752
11:58:51.014,48.6252,41.6877
11:58:51.025,47.5002,39.6252
11:58:51.035,46.5627,38.4376
11:58:51.045,45.1877,35.4376
11:58:51.055,43.3752,32.6251
11:58:51.065,41.4377,31.6251
11:58:51.074,39.8752,29.6251
11:58:51.084,38.7501,26.4376
11:58:51.093,37.3126,24.8751
11:58:51.104,36.9376,22.9376
11:58:51.115,35.3751,21.1876
11:58:51.124,33.6876,19.9376
11:58:51.134,32.5001,17.6251
11:58:51.144,30.1876,13.6876
11:58:51.155,28.3126,12.5
11:58:51.165,25.6876,8.75
11:58:51.173,23.8126,7
11:58:51.187,23.0626,6.75
11:58:51.195,22.6251,3.9375
11:58:51.223,21.8751,2.3125
11:58:51.225,21.2501,2
11:58:51.227,20.6251,-0.125
11:58:51.235,19.5001,-0.875
11:58:51.244,18.6876,-2.125
11:58:51.255,18.6251,-4.25
11:58:51.265,17.1251,-6.1875
11:58:51.275,16.1876,-6.9375
11:58:51.285,14.5626,-10.1875
11:58:51.308,12.6875,-11.6875
11:58:51.309,9.9375,-14.8126
11:58:51.333,7.5625,-17.0626
11:58:51.336,7.0625,-17.5001
11:58:51.338,9.1875,-16.6876
11:58:51.344,11.875,-12.875
11:58:51.372,16.6251,-5.6875
11:58:51.375,21.0626,1.0625
11:58:51.378,25.0001,9.0625
11:58:51.408,28.7501,16.6876
11:58:51.410,32.2501,21.8126
11:58:51.414,34.3751,28.1251
11:58:51.415,35.4376,30.8126
11:58:51.453,36.4376,32.6876
11:58:51.453,37.3751,36.2501
11:58:51.458,38.5001,37.7501
11:58:51.463,39.6877,41.1252
11:58:51.466,40.7502,42.3752
11:58:51.476,41.3127,44.4377
11:58:51.498,42.5002,45.9377
11:58:51.500,41.9377,46.9377
11:58:51.515,41.5002,47.6252
11:58:51.517,41.4377,48.0002
11:58:51.525,41.7502,50.3752
11:58:51.534,42.8127,51.1877
11:58:51.550,43.5002,52.0002
11:58:51.564,43.8127,53.5002
11:58:51.569,43.1252,55.5002
11:58:51.579,42.9377,54.5627
11:58:51.589,42.6877,54.0002
11:58:51.600,43.1877,54.6877
11:58:51.608,43.0002,53.6877
11:58:51.619,41.3127,52.9377
11:58:51.631,39.3127,50.8127
11:58:51.640,38.1251,49.5627
11:58:51.650,37.4376,46.8752
11:58:51.660,36.3126,45.4377
11:58:51.668,35.2501,43.7502
11:58:51.678,34.8126,43.5002
11:58:51.690,34.1876,42.0627
11:58:51.701,32.7501,40.1252
11:58:51.710,31.4376,40.0627
11:58:51.721,29.8751,37.3126
11:58:51.728,27.6876,37.2501
11:58:51.739,27.3751,34.5001
11:58:51.750,26.8126,33.5001
11:58:51.759,25.8126,33.4376
11:58:51.770,26.0001,32.3751
11:58:51.779,25.9376,30.8751
11:58:51.790,24.6876,29.5626
11:58:51.799,23.3126,27.6876
11:58:51.811,20.9376,25.3126
11:58:51.820,19.1251,23.2501
11:58:51.830,18.6876,22.1251
11:58:51.840,18.7501,20.0626
11:58:51.848,18.3126,18.8751
11:58:51.858,17.2501,18.0626
11:58:51.869,15.8126,15.3126
11:58:51.879,14.5001,13.2501
11:58:51.890,12.8125,11.8125
11:58:51.901,11.75,8.6875
11:58:51.911,10.3125,6.4375
11:58:51.919,9.0625,5.25
11:58:51.930,8.4375,2.75
11:58:51.939,6.875,1.1875
11:58:51.948,5.4375,-0.3125
11:58:51.960,4.9375,-2.6875
11:58:51.968,3.625,-4.5625
11:58:51.979,2.75,-5.5
11:58:51.991,2.0625,-8
11:58:51.999,0.5,-9.5625
11:58:52.011,0.5625,-11.25
11:58:52.019,-1.6875,-13.125
11:58:52.030,-2.25,-13.0625
11:58:52.040,-2.3125,-14.5626
11:58:52.049,-3.3125,-16.8126
11:58:52.069,-3.9375,-18.0626
11:58:52.076,-5.3125,-18.5001
11:58:52.108,-5.5625,-21.2501
11:58:52.111,-6.6875,-23.0626
11:58:52.140,-7.875,-23.4376
11:58:52.140,-7.4375,-25.8751
11:58:52.140,-9.5625,-27.0001
11:58:52.143,-9.5,-28.6876
11:58:52.183,-10.75,-30.9376
11:58:52.185,-13.1251,-31.1876
11:58:52.185,-13.9376,-33.6876
11:58:52.187,-15.0626,-36.0626
11:58:52.193,-15.5001,-36.7501
11:58:52.195,-16.0001,-37.4376
11:58:52.199,-16.0626,-36.7501
11:58:52.232,-14.1251,-33.6251
11:58:52.234,-10.9375,-28.0626
11:58:52.236,-6.1875,-22.0626
11:58:52.239,-1.125,-13
11:58:52.266,2.75,-6.3125
11:58:52.268,6.625,0
11:58:52.271,9,6.75
11:58:52.280,11.4375,10.875
11:58:52.290,13.3751,14.6876
11:58:52.298,14.3751,18.3126
11:58:52.313,14.6251,19.8751
11:58:52.319,15.8126,22.4376
11:58:52.330,17.3126,24.1876
11:58:52.340,18.0626,25.8751
11:58:52.351,19.0001,28.6251
11:58:52.361,20.1876,29.5001
11:58:52.370,22.0626,31.5626
11:58:52.380,22.9376,34.5001
11:58:52.388,24.4376,35.9376
11:58:52.399,26.0001,37.3751
11:58:52.409,27.1251,40.5002
11:58:52.420,27.9376,41.2502
11:58:52.430,28.9376,42.6877
11:58:52.441,30.1876,43.5627
11:58:52.450,30.6251,44.7502
11:58:52.461,30.7501,44.3127
11:58:52.472,29.9376,44.0627
11:58:52.479,30.6876,44.0627
11:58:52.503,29.3126,42.8752
11:58:52.507,29.3126,41.8127
11:58:52.508,28.1251,40.2502
11:58:52.519,28.0626,38.5626
11:58:52.531,27.0626,37.0626
11:58:52.538,26.8126,37.7501
11:58:52.549,27.3126,36.8126
11:58:52.560,26.4376,35.8126
11:58:52.570,25.8126,35.2501
11:58:52.579,26.1251,35.2501
11:58:52.589,25.4376,33.9376
11:58:52.600,25.3751,34.3126
11:58:52.611,25.0626,33.0626
11:58:52.621,24.2501,32.5001
11:58:52.630,23.1876,31.7501
11:58:52.638,23.0626,29.7501
11:58:52.649,22.2501,28.0001
11:58:52.660,21.0001,27.0001
11:58:52.669,21.1251,25.3751
11:58:52.680,19.9376,24.2501
11:58:52.691,18.3126,23.2501
11:58:52.698,18.6251,21.0001
11:58:52.711,17.0001,18.6876
11:58:52.719,16.1876,18.1251
11:58:52.728,15.6876,15.6876
11:58:52.740,14.5001,13.8126
11:58:52.750,13.2501,13.3751
11:58:52.761,13.0625,11.3125
11:58:52.769,12.5,9.125
11:58:52.780,11.5,8.9375
11:58:52.796,11.375,8.125
11:58:52.865,10.625,5.9375
11:58:52.866,10,3.75
11:58:52.868,9.0625,3.375
11:58:52.870,8.8125,1.3125
11:58:52.871,6.5,-1.75
11:58:52.873,5.375,-1.25
11:58:52.902,5.25,-4.125
11:58:52.904,3.875,-5.375
11:58:52.904,3.875,-6.0625
11:58:52.905,4.3125,-7.3125
11:58:52.907,3.4375,-8.375
11:58:52.912,2.5,-9.25
11:58:52.951,2.375,-10.5625
11:58:52.953,1.75,-12.1875
11:58:52.956,0.75,-14.4376
11:58:52.959,0.0625,-15.0001
11:58:52.962,-0.9375,-16.3751
11:58:52.992,-1.8125,-17.8751
11:58:52.995,-2,-18.8126
11:58:52.997,-2.5625,-20.3126
11:58:53.003,-3.4375,-21.3126
11:58:53.009,-2.5625,-20.5001
11:58:53.020,-0.5,-16.5626
11:58:53.030,2.6875,-10.875
11:58:53.039,7.5625,-4.8125
11:58:53.049,11.1875,3.125
11:58:53.061,15.5001,10.4375
11:58:53.072,19.7501,16.8751
11:58:53.079,23.1876,23.5001
11:58:53.089,25.6251,27.4376
11:58:53.100,26.8126,30.8751
11:58:53.108,28.0626,33.5626
11:58:53.120,28.0001,34.5626
11:58:53.131,28.6251,36.6251
11:58:53.138,29.5626,38.1251
11:58:53.150,30.0626,39.2501
11:58:53.161,29.5001,40.3752
11:58:53.168,30.2501,40.6877
11:58:53.179,30.8751,42.5627
11:58:53.190,31.3126,43.0002
11:58:53.201,32.3126,44.8752
11:58:53.208,32.1251,45.6877
11:58:53.219,32.3751,45.9377
11:58:53.228,32.1251,46.5627
11:58:53.238,32.9376,47.7502
11:58:53.251,33.3126,49.1877
11:58:53.260,33.0001,48.4377
11:58:53.271,33.3126,47.3752
11:58:53.280,32.0001,46.9377
11:58:53.288,31.3751,45.8127
11:58:53.298,30.5001,43.6877
11:58:53.310,29.8751,41.5002
11:58:53.320,28.9376,41.3752
11:58:53.330,29.1876,40.3752
11:58:53.341,28.5626,38.6251
11:58:53.350,27.5001,38.3126
11:58:53.359,27.1251,37.1876
11:58:53.370,27.1876,36.0626
11:58:53.385,26.3126,35.6251
11:58:53.393,26.6876,35.0001
11:58:53.399,25.5001,33.5001
11:58:53.416,23.8751,33.0001
11:58:53.418,23.6251,31.5001
11:58:53.435,22.7501,29.8751
11:58:53.445,21.5626,29.0001
11:58:53.449,21.1251,27.0001
11:58:53.461,19.8126,25.1876
11:58:53.483,18.3751,23.5001
11:58:53.485,17.1251,22.2501
11:58:53.490,16.1876,19.6251
11:58:53.521,14.3751,17.4376
11:58:53.523,12.4375,16.4376
11:58:53.526,12.0625,13.7501
11:58:53.531,10.25,11.5625
11:58:53.560,8.5625,9.375
11:58:53.562,7.75,8.25
11:58:53.565,6.625,5.3125
11:58:53.570,5.5,3.25
11:58:53.600,4.25,1
11:58:53.602,2.6875,-0.375
11:58:53.604,2.1875,-2.1875
11:58:53.608,0.75,-5.0625
11:58:53.641,-0.3125,-6.125
11:58:53.645,-1.0625,-7.5
11:58:53.646,-1.875,-9.6875
11:58:53.650,-4.0625,-12.375
11:58:53.659,-5.1875,-12.9375
11:58:53.671,-5.9375,-15.6251
11:58:53.678,-7.4375,-17.7501
11:58:53.689,-9.5625,-20.3751
11:58:53.701,-9.6875,-20.8126
11:58:53.712,-10.5625,-22.8751
11:58:53.718,-12.375,-24.4376
11:58:53.730,-12.9375,-24.7501
11:58:53.738,-13.1876,-27.6251
11:58:53.749,-15.0626,-27.6876
11:58:53.784,-15.5001,-30.1876
11:58:53.785,-16.8751,-32.1251
11:58:53.787,-17.0001,-32.8751
11:58:53.792,-18.5001,-33.5626
11:58:53.800,-18.8751,-35.7501
11:58:53.809,-20.3751,-37.1876
11:58:53.820,-20.7501,-39.0001
11:58:53.828,-20.3126,-37.8126
11:58:53.839,-18.7501,-37.0001
11:58:53.850,-15.6251,-32.6251
11:58:53.858,-13,-27.0626
11:58:53.869,-7.5625,-18.9376
11:58:53.881,-3.6875,-11.125
11:58:53.890,0.125,-3.4375
11:58:53.900,3.5,2.9375
11:58:53.909,6.4375,8.25
11:58:53.919,8.25,13.3751
11:58:53.928,10.0625,17.6251
11:58:53.940,11.9375,20.2501
11:58:53.949,13.6251,22.9376
11:58:53.961,13.5001,25.4376
11:58:53.968,14.8126,26.8126
11:58:53.978,16.3751,29.3126
11:58:53.990,16.6251,31.7501
11:58:53.999,17.1876,31.8126
11:58:54.008,18.0626,33.6251
11:58:54.019,18.8751,35.5626
11:58:54.028,18.6251,37.1251
11:58:54.038,19.3126,37.5626
11:58:54.049,20.1251,39.7502
11:58:54.061,20.6251,40.7502
11:58:54.068,21.0001,41.5627
11:58:54.079,21.0001,41.9377
11:58:54.090,20.8751,42.1252
11:58:54.099,21.2501,41.7502
11:58:54.116,20.6876,42.5002
11:58:54.131,19.6251,41.3752
11:58:54.135,19.5001,39.8127
11:58:54.142,18.9376,37.9376
11:58:54.154,17.3751,35.8126
11:58:54.160,17.2501,35.6876
11:58:54.168,16.3751,33.8751
11:58:54.179,16.0001,33.1876
11:58:54.195,16.8751,33.0626
11:58:54.200,15.4376,30.8126
11:58:54.232,14.2501,30.8126
11:58:54.233,14.3751,30.1251
11:58:54.236,14.0626,29.0001
11:58:54.267,13.2501,27.8751
11:58:54.269,12.375,27.5001
11:58:54.272,13,25.9376
11:58:54.276,11.75,25.2501
11:58:54.280,11.375,24.5001
11:58:54.315,11.375,23.7501
11:58:54.317,11.4375,21.8751
11:58:54.318,10.125,20.0626
11:58:54.321,9.875,19.5001
11:58:54.353,8.9375,17.3126
11:58:54.356,8.3125,15.6876
11:58:54.360,7.125,14.7501
11:58:54.363,6.6875,13.6876
11:58:54.369,6.375,11.375
11:58:54.393,5.5,9.25
11:58:54.395,5,8.875
11:58:54.399,4.5,7.0625
11:58:54.408,3.75,4.5
11:58:54.418,3.0625,2.8125
11:58:54.429,2.1875,1.8125
11:58:54.440,1.6875,0.125
11:58:54.448,0.4375,-2.5625
11:58:54.459,-0.6875,-4.5625
11:58:54.469,-1.375,-4.875
11:58:54.480,-1.5,-7.25
11:58:54.490,-2.25,-7.3125
11:58:54.498,-3.25,-9.625
11:58:54.511,-3.5625,-12
11:58:54.520,-4.6875,-14.0001
11:58:54.529,-5.9375,-13.6251
11:58:54.541,-5.875,-16.4376
11:58:54.549,-7.1875,-18.7501
11:58:54.558,-8.3125,-19.5001
11:58:54.570,-7.6875,-20.9376
11:58:54.579,-8.8125,-22.1251
11:58:54.592,-9.75,-22.8126
11:58:54.601,-9.125,-24.8126
11:58:54.609,-10.4375,-26.5626
11:58:54.618,-11.3125,-27.1251
11:58:54.631,-12.0625,-29.2501
11:58:54.640,-12.9375,-30.0626
11:58:54.649,-14.0626,-32.4376
11:58:54.658,-14.4376,-34.2501
11:58:54.670,-15.7501,-35.8751
11:58:54.681,-15.8126,-36.1251
11:58:54.693,-14.6251,-34.0001
11:58:54.709,-12,-31.0001
11:58:54.714,-8.0625,-24.3751
11:58:54.723,-4.125,-17.3751
11:58:54.730,1.1875,-9.3125
11:58:54.746,5.8125,-0.625
11:58:54.748,10.3125,5.875
11:58:54.764,13.1876,11.9375
11:58:54.770,15.5001,17.0626
11:58:54.781,16.6251,20.2501
11:58:54.789,18.6251,22.7501
11:58:54.799,18.8751,25.3751
11:58:54.809,20.0001,26.3126
11:58:54.819,20.1251,28.1251
11:58:54.831,21.5001,29.5626
11:58:54.839,22.0001,29.8126
11:58:54.848,21.7501,32.1876
11:58:54.859,23.6251,33.0626
11:58:54.870,23.8751,34.1876
11:58:54.880,24.3751,36.5626
11:58:54.889,25.8751,36.9376
11:58:54.900,26.3751,39.3752
11:58:54.908,27.8126,39.8127
11:58:54.918,27.4376,40.0627
11:58:54.932,27.3751,40.3127
11:58:54.944,27.1876,41.3752
11:58:54.948,27.6876,40.3127
11:58:54.961,25.8751,39.1876
11:58:54.969,24.9376,39.3127
11:58:54.982,25.8751,36.7501
11:58:54.988,23.8751,34.1251
11:58:54.998,23.3751,34.2501
11:58:55.029,24.1876,32.5626
11:58:55.030,22.6876,31.2501
11:58:55.032,22.1876,32.3126
11:58:55.065,22.4376,30.3126
11:58:55.067,21.8751,29.0626
11:58:55.069,20.9376,28.8751
11:58:55.072,21.5001,28.0001
11:58:55.102,20.4376,26.7501
11:58:55.105,19.9376,25.4376
11:58:55.107,19.2501,25.6251
11:58:55.109,19.4376,24.4376
11:58:55.142,17.9376,22.4376
11:58:55.143,16.5001,21.2501
11:58:55.147,16.1876,20.3751
11:58:55.175,15.2501,18.3751
11:58:55.177,13.5626,15.9376
11:58:55.178,12,14.0626
11:58:55.186,11.625,13.6251
11:58:55.191,11.4375,11.375
11:58:55.199,10.625,10.1875
11:58:55.210,10.375,8.6875
11:58:55.220,9.4375,6.625
11:58:55.228,7.9375,4.9375
11:58:55.239,6.75,3.25
11:58:55.249,4.8125,2
11:58:55.261,3.5,-1.25
11:58:55.269,3.0625,-3.875
11:58:55.278,1.4375,-5
11:58:55.289,1,-7.0625
11:58:55.300,-0.5625,-9
11:58:55.308,-1.1875,-10.25
11:58:55.325,-2.125,-11.5625
11:58:55.330,-2.875,-13.8751
11:58:55.339,-4.5625,-16.0626
11:58:55.348,-5.4375,-16.9376
11:58:55.359,-6.375,-18.9376
11:58:55.370,-7.6875,-20.8751
11:58:55.380,-8.75,-21.5626
11:58:55.388,-8.4375,-23.4376
11:58:55.402,-9.5,-25.1251
11:58:55.417,-10.25,-26.1251
11:58:55.422,-10.6875,-26.6251
11:58:55.435,-12.3125,-28.5626
11:58:55.442,-13.1876,-30.5001
11:58:55.449,-13.6251,-31.4376
11:58:55.458,-15.8751,-33.4376
11:58:55.469,-16.2501,-35.7501
11:58:55.480,-17.4376,-36.6251
11:58:55.488,-16.4376,-36.1876
11:58:55.501,-15.3126,-34.6876
11:58:55.509,-12.25,-30.6876
11:58:55.520,-9.1875,-24.4376
11:58:55.528,-4.9375,-17.1876
11:58:55.540,-1,-10.5625
11:58:55.555,3.125,-3.375
11:58:55.565,5.875,2.8125
11:58:55.575,8.5,7.75
11:58:55.585,9.75,12.125
11:58:55.593,11.3125,15.1876
11:58:55.605,12.5625,16.8126
11:58:55.613,12.5,18.8126
11:58:55.623,11.8125,19.8126
11:58:55.635,12.5625,20.0001
11:58:55.644,13,20.9376
11:58:55.653,13.8751,22.1876
11:58:55.664,14.1251,23.5626
11:58:55.675,15.0001,24.5001
11:58:55.684,15.5626,25.2501
11:58:55.699,16.0626,25.9376
11:58:55.703,15.7501,26.8126
11:58:55.715,16.8751,28.0626
11:58:55.725,16.5001,27.6251
11:58:55.735,16.1251,28.7501
11:58:55.773,17.0626,28.8751
11:58:55.773,15.8751,27.6876
11:58:55.776,15.3126,26.8751
11:58:55.778,15.3751,24.9376
11:58:55.807,13.5626,23.1251
11:58:55.809,12.875,21.6876
11:58:55.811,12.125,20.5001
11:58:55.814,11.25,19.4376
11:58:55.843,11,18.0001
11:58:55.845,10.125,16.6251
11:58:55.847,10.0625,17.6251
11:58:55.853,10.3125,16.6876
11:58:55.888,10.25,15.6251
11:58:55.891,9.375,14.6876
11:58:55.894,8.875,15.3126
11:58:55.896,9.875,14.3126
11:58:55.923,8.4375,12.5625
11:58:55.925,7.4375,13.1876
11:58:55.928,7.25,11.6875
11:58:55.935,7,10.375
11:58:55.945,5.875,7.8125
11:58:55.953,5,6.9375
11:58:55.963,3.75,4.875
11:58:55.977,3.0625,4.1875
11:58:55.985,2.125,1.5625
11:58:55.993,1.0625,-0.5625
11:58:56.003,0.375,-1.375
11:58:56.013,0.25,-2.8125
11:58:56.033,-1.375,-4.375
11:58:56.041,-2.5625,-5.0625
11:58:56.055,-2.5,-7.1875
11:58:56.058,-3,-9.125
11:58:56.089,-4.75,-10.5625
11:58:56.092,-5.375,-11.5
11:58:56.093,-5.9375,-13.8751
11:58:56.100,-6.6875,-16.0626
11:58:56.104,-8.1875,-15.9376
11:58:56.114,-7.25,-18.1251
11:58:56.125,-9.125,-19.8751
11:58:56.135,-9.4375,-20.3126
11:58:56.143,-9.5625,-22.0626
11:58:56.153,-11,-24.1876
11:58:56.163,-12.0625,-24.5626
11:58:56.175,-11.75,-26.3751
11:58:56.183,-13.0625,-27.5626
11:58:56.195,-12.9375,-28.3126
11:58:56.204,-13.2501,-30.1251
11:58:56.217,-14.0626,-29.8751
11:58:56.224,-14.1876,-32.1251
11:58:56.235,-14.5001,-33.2501
11:58:56.244,-14.9376,-33.8126
11:58:56.257,-14.7501,-34.9376
11:58:56.265,-16.6251,-36.1251
11:58:56.273,-16.6251,-38.0001
11:58:56.284,-16.8751,-39.1252
11:58:56.293,-18.3126,-41.1252
11:58:56.305,-18.3751,-40.6877
11:58:56.313,-17.0626,-40.1877
11:58:56.343,-15.5626,-37.2501
11:58:56.345,-11.625,-31.5626
11:58:56.347,-8.375,-24.9376
11:58:56.353,-3.8125,-17.5626
11:58:56.363,0.5625,-9.6875
11:58:56.374,3.75,-1.875
11:58:56.384,7.5,3.4375
11:58:56.395,9.8125,9.4375
11:58:56.404,12.25,12.4375
11:58:56.414,12.4375,16.1251
11:58:56.425,13.3751,17.7501
11:58:56.435,14.5001,19.1251
11:58:56.466,16.1876,22.5001
11:58:56.468,16.1251,22.9376
11:58:56.471,17.7501,24.8126
11:58:56.473,18.3751,25.9376
11:58:56.503,19.0626,28.3126
11:58:56.504,20.1876,29.1251
11:58:56.507,20.3126,31.0626
11:58:56.514,21.1251,32.8126
11:58:56.545,21.6251,34.0001
11:58:56.547,23.9376,35.7501
11:58:56.550,23.9376,36.3751
11:58:56.577,23.1876,37.5626
11:58:56.577,23.7501,38.0001
11:58:56.582,24.1251,37.3126
11:58:56.587,23.2501,36.1251
11:58:56.615,22.1876,35.5626
11:58:56.617,21.3751,34.3751
11:58:56.619,21.1876,32.0626
11:58:56.634,19.7501,30.5626
11:58:56.636,18.5626,29.1251
11:58:56.644,18.7501,27.3751
11:58:56.654,19.2501,26.9376
11:58:56.663,17.9376,25.7501
11:58:56.673,17.5001,24.5626
11:58:56.683,16.7501,25.1876
11:58:56.693,16.5001,24.2501
11:58:56.703,17.0001,23.6876
11:58:56.722,15.8751,22.1251
11:58:56.724,15.2501,21.8751
11:58:56.739,15.0626,21.5626
11:58:56.753,14.9376,20.0001
11:58:56.755,13.2501,18.4376
11:58:56.771,12.375,17.6251
11:58:56.774,11.4375,15.8126
11:58:56.783,11.25,14.6251
11:58:56.793,10.5,12.1875
11:58:56.805,8.8125,11.75
11:58:56.813,8.5,10.125
11:58:56.823,7.75,8.1875
11:58:56.834,5.9375,6.125
11:58:56.847,6,5.375
11:58:56.855,6,3.375
11:58:56.865,3.875,1.75
11:58:56.875,2.6875,0.5625
11:58:56.884,2,-0.9375
11:58:56.895,1.6875,-3.1875
11:58:56.904,0.5625,-5.0625
11:58:56.913,-0.625,-7.375
11:58:56.925,-1.5,-7.5625
11:58:56.934,-2.75,-8.25
11:58:56.943,-1.875,-10.6875
11:58:56.953,-3.5,-13.0625
11:58:56.964,-4.625,-13.7501
11:58:56.973,-4.0625,-15.2501
11:58:56.984,-5.3125,-16.7501
11:58:56.993,-6.4375,-18.6876
11:58:57.008,-6.625,-19.0001
11:58:57.013,-7.3125,-21.3751
11:58:57.027,-8.5625,-22.8126
11:58:57.035,-9.6875,-23.4376
11:58:57.043,-9.3125,-25.1876
11:58:57.056,-10.625,-25.3751
11:58:57.064,-10.75,-27.1251
11:58:57.074,-11.5,-29.1251
11:58:57.084,-12,-29.6251
11:58:57.093,-12.125,-32.0626
11:58:57.105,-12.3125,-32.5001
11:58:57.113,-13.3751,-33.8126
11:58:57.125,-14.0626,-35.3751
11:58:57.133,-14.4376,-36.6251
11:58:57.143,-15.2501,-37.7501
11:58:57.183,-15.8126,-39.1252
11:58:57.185,-16.4376,-38.8126
11:58:57.186,-15.5001,-39.4377
11:58:57.189,-13.3751,-35.8126
11:58:57.195,-10.125,-31.7501
11:58:57.237,-6.125,-25.0626
11:58:57.237,-1.6875,-17.6251
11:58:57.240,2.4375,-9.875
11:58:57.246,6.4375,-2.9375
11:58:57.248,10.75,3.75
11:58:57.259,12.6875,8.375
11:58:57.264,14.5626,13.8751
11:58:57.296,15.5626,15.6876
11:58:57.299,16.6251,18.5001
11:58:57.303,16.9376,19.1251
11:58:57.307,17.6251,21.3751
11:58:57.336,17.6876,21.8126
11:58:57.337,18.1251,23.5001
11:58:57.339,19.2501,24.5626
11:58:57.344,19.1876,26.5001
11:58:57.364,20.3751,27.3751
11:58:57.371,20.0626,28.8751
11:58:57.373,20.6876,30.7501
11:58:57.385,21.7501,30.3751
11:58:57.393,22.2501,31.6251
11:58:57.410,22.6876,33.4376
11:58:57.417,23.3751,34.3751
11:58:57.424,23.0626,34.1251
11:58:57.433,22.4376,35.0626
11:58:57.444,22.5001,33.7501
11:58:57.455,21.0626,32.2501
11:58:57.463,19.6251,30.5001
11:58:57.474,18.7501,29.1876
11:58:57.484,18.0626,27.9376
11:58:57.493,17.7501,26.0626
11:58:57.504,16.3126,25.3126
11:58:57.513,15.0626,24.1876
11:58:57.525,14.9376,23.0001
11:58:57.535,14.6876,22.1251
11:58:57.543,15.0001,21.2501
11:58:57.554,13.5626,19.6251
11:58:57.563,13.1251,19.8126
11:58:57.574,12.3125,19.4376
11:58:57.584,12.0625,17.2501
11:58:57.595,11.3125,17.7501
11:58:57.623,11.6875,17.6876
11:58:57.624,11.5,16.0001
11:58:57.627,10.1875,14.2501
11:58:57.633,9.1875,14.3126
11:58:57.643,9.1875,12.1875
11:58:57.655,8,10.5625
11:58:57.665,7.375,9.75
11:58:57.675,7.6875,8
11:58:57.683,6.0625,5.8125
11:58:57.696,5.375,4.6875
11:58:57.705,4.625,3.875
11:58:57.713,4.625,1.875
11:58:57.723,3.5625,0.0625
11:58:57.735,2.0625,-0.8125
11:58:57.745,1.8125,-2.1875
11:58:57.760,1.75,-4.3125
11:58:57.765,0.3125,-6.25
11:58:57.775,-0.625,-7
11:58:57.783,-1,-8
11:58:57.795,-1.1875,-10.0625
11:58:57.803,-2.25,-11.9375
11:58:57.816,-3.4375,-12
11:58:57.823,-3.5,-14.0001
11:58:57.834,-3.9375,-16.0001
11:58:57.844,-4.625,-17.2501
11:58:57.853,-5.5625,-17.3751
11:58:57.864,-5.5,-19.0626
11:58:57.874,-6.3125,-21.2501
11:58:57.883,-7.5,-21.7501
11:58:57.893,-7.25,-22.6876
11:58:57.903,-8,-24.0626
11:58:57.916,-9.25,-24.5001
11:58:57.923,-9.5,-26.5001
11:58:57.961,-10.125,-27.8126
11:58:57.963,-9.875,-28.9376
11:58:57.965,-10.8125,-29.1876
11:58:57.967,-11.25,-31.7501
11:58:58.000,-12.125,-31.6876
11:58:58.001,-11.625,-34.6251
11:58:58.007,-13.6876,-34.7501
11:58:58.007,-13,-36.3126
11:58:58.039,-12.9375,-34.3751
11:58:58.042,-10.5,-32.6876
11:58:58.108,-7.6875,-27.6876
11:58:58.109,-3.625,-20.5001
11:58:58.109,0.9375,-13.2501
11:58:58.111,4.1875,-6.1875
11:58:58.117,8.375,0.375
11:58:58.119,10.125,5.875
11:58:58.119,12.9375,10.375
11:58:58.123,14.3751,13.7501
11:58:58.135,14.1876,16.6251
11:58:58.146,14.6251,17.0001
11:58:58.153,15.0001,19.6251
11:58:58.163,14.8751,19.2501
11:58:58.176,14.8126,21.1251
11:58:58.183,15.6251,21.6251
11:58:58.193,16.0626,23.1251
11:58:58.204,16.2501,23.0001
11:58:58.215,16.2501,24.5001
11:58:58.224,17.9376,26.4376
11:58:58.233,17.9376,27.0001
11:58:58.243,17.6876,27.6251
11:58:58.253,17.6876,29.0001
11:58:58.264,18.0001,28.3751
11:58:58.274,18.3751,29.1876
11:58:58.283,17.2501,29.4376
11:58:58.295,15.8126,28.1251
11:58:58.304,15.4376,26.7501
11:58:58.313,14.6251,24.6251
11:58:58.323,13.2501,22.9376
11:58:58.333,11.9375,22.9376
11:58:58.344,12.5,21.6251
11:58:58.355,11.8125,20.7501
11:58:58.365,10.9375,20.7501
11:58:58.373,10.75,20.7501
11:58:58.383,11.25,19.8126
11:58:58.395,11.25,19.0001
11:58:58.403,11,19.5626
11:58:58.414,11.625,19.6876
11:58:58.424,10.6875,18.0626
11:58:58.433,10.25,16.9376
11:58:58.443,9.4375,16.8751
11:58:58.456,8.875,16.3126
11:58:58.463,8.5625,14.1251
11:58:58.473,7.75,12.25
11:58:58.484,6.0625,11.25
11:58:58.493,6.125,9.375
11:58:58.503,4.375,7.375
11:58:58.517,3.3125,7.3125
11:58:58.526,3,4.75
11:58:58.533,2.1875,2.8125
11:58:58.544,1.375,2.3125
11:58:58.556,1.625,0.1875
11:58:58.565,-0.25,-2.125
11:58:58.573,-1.25,-2.4375
11:58:58.586,-1.9375,-3.4375
11:58:58.593,-1.6875,-5.5
11:58:58.605,-3.25,-7.625
11:58:58.623,-5.3125,-8.9375
11:58:58.625,-4.5625,-10.6875
11:58:58.633,-6.1875,-12.5625
11:58:58.668,-6.8125,-13.0625
11:58:58.670,-6.0625,-14.7501
11:58:58.672,-7.75,-16.5001
11:58:58.677,-9.75,-17.8751
11:58:58.706,-9.0625,-18.3126
11:58:58.709,-9.4375,-20.5001
11:58:58.776,-11.0625,-21.8751
11:58:58.777,-12.0625,-22.7501
11:58:58.778,-12.75,-24.7501
11:58:58.778,-13.1876,-25.5001
11:58:58.784,-14.3751,-27.4376
11:58:58.797,-15.3126,-29.8751
11:58:58.803,-16.1876,-30.3751
11:58:58.815,-17.1251,-32.1251
11:58:58.823,-17.3126,-32.3126
11:58:58.834,-17.4376,-33.6251
11:58:58.844,-16.0001,-31.6251
11:58:58.854,-13.7501,-28.8751
11:58:58.864,-9.75,-22.1251
11:58:58.875,-5.875,-15.9376
11:58:58.902,-0.875,-7.5
11:58:58.905,3.9375,-0.9375
11:58:58.907,6.625,5.875
11:58:58.914,8.8125,12.5625
11:58:58.925,11.125,16.8751
11:58:58.935,12.875,19.8126
11:58:58.943,18.5626,32.6876
11:58:58.953,20.1251,34.3751
11:58:58.964,20.4376,35.5001
11:58:58.975,21.1876,37.6251
11:58:58.985,22.2501,38.0001
11:58:58.994,21.4376,41.0002
11:58:59.003,23.1251,41.2502
11:58:59.013,22.7501,43.3127
11:58:59.024,24.3126,43.3752
11:58:59.034,24.0001,45.5002
11:58:59.044,24.3751,45.2502
11:58:59.053,23.3751,45.4377
11:58:59.063,23.8751,45.1877
11:58:59.075,23.3126,43.8127
11:58:59.084,21.6876,42.0002
11:58:59.093,20.0001,40.4377
11:58:59.103,19.6876,39.1877
11:58:59.113,19.1251,38.0001
11:58:59.123,17.9376,36.0626
11:58:59.133,16.6876,36.0001
11:58:59.144,17.0626,33.6876
11:58:59.153,16.0626,33.0001
11:58:59.163,15.4376,32.4376
11:58:59.173,15.7501,32.0001
11:58:59.183,14.8126,30.5001
11:58:59.193,14.4376,29.4376
11:58:59.203,14.3751,29.8751
11:58:59.213,13.7501,28.5626
11:58:59.224,12.8125,28.0001
11:58:59.233,12.125,26.6876
11:58:59.245,11.1875,24.8751
11:58:59.253,10.1875,22.3126
11:58:59.263,9.1875,22.2501
11:58:59.273,9.6875,20.0626
11:58:59.283,7.375,17.8126
11:58:59.298,6.1875,15.8126
11:58:59.305,4.9375,14.8126
11:58:59.313,4.9375,13.3126
11:58:59.324,3.875,11
11:58:59.335,2.6875,9.1875
11:58:59.371,1.6875,8.625
11:58:59.411,1.6875,6.4375
11:58:59.442,0.25,4.125
11:58:59.445,-1.25,3.5625
11:58:59.468,-1.4375,1
11:58:59.468,-2.8125,-1.0625
11:58:59.469,-3.9375,-2.75
11:58:59.472,-4.875,-4.0625
11:58:59.502,-5.375,-6.5625
11:58:59.505,-6.5,-6.875
11:58:59.508,-6.8125,-9.4375
11:58:59.514,-8.25,-11.6875
11:58:59.518,-9.3125,-12.6875
11:58:59.523,-10.1875,-13.6876
11:58:59.536,-10.375,-15.4376
11:58:59.543,-11.5,-17.6251
11:58:59.556,-12.5,-19.1876
11:58:59.563,-13.4376,-20.0626
11:58:59.573,-13.8751,-21.1251
11:58:59.586,-14.7501,-23.4376
11:58:59.593,-15.8751,-24.8751
11:58:59.603,-16.8126,-27.5001
11:58:59.618,-22.7501,-37.3751
11:58:59.623,-23.4376,-38.6876
11:58:59.634,-24.3751,-40.8752
11:58:59.643,-25.7501,-41.6877
11:58:59.653,-25.4376,-43.5627
11:58:59.690,-25.3126,-41.8752
11:58:59.692,-23.3126,-39.6252
11:58:59.694,-20.4376,-34.8751
11:58:59.700,-16.7501,-29.5001
11:58:59.710,-12.1875,-21.7501
11:58:59.718,-7.75,-13.3126
11:58:59.728,-4.1875,-6.6875
11:58:59.739,0.125,1.5
11:58:59.749,3,6.625
11:58:59.759,6.1875,11.3125
11:58:59.769,7.4375,15.2501
11:58:59.779,9.1875,19.6251
11:58:59.789,10.25,21.1251
11:58:59.798,11,23.2501
11:58:59.810,11.6875,25.6876
11:58:59.818,12.125,27.3751
11:58:59.828,14.1251,31.0001
11:58:59.840,15.3126,32.6251
11:58:59.848,16.0626,34.3126
11:58:59.858,16.7501,36.8126
11:58:59.870,17.5626,38.0001
11:58:59.879,18.4376,39.1251
11:58:59.889,19.1251,41.1252
11:58:59.899,19.8126,41.5002
11:58:59.908,19.7501,42.3127
11:58:59.919,20.2501,44.4377
11:58:59.928,20.9376,44.0627
11:58:59.938,19.8126,42.7502
11:58:59.950,18.6251,41.2502
11:58:59.959,17.8126,40.8752
11:58:59.968,17.8126,39.0001
11:58:59.979,16.6876,37.6251
11:58:59.989,15.6876,36.4376
11:58:59.998,15.4376,35.8751
11:59:00.020,15.1876,34.4376
11:59:00.022,14.6876,33.8751
11:59:00.038,13.5626,33.6876
11:59:00.041,13.8126,32.0001
11:59:00.057,13.6251,31.5626
11:59:00.059,13.0625,30.2501
11:59:00.088,12.6875,30.0001
11:59:00.089,12.125,28.4376
11:59:00.092,12.0625,27.5001
11:59:00.121,11.375,25.6251
11:59:00.125,10.4375,24.4376
11:59:00.125,10.3125,23.5001
11:59:00.132,9.25,22.8751
11:59:00.147,8.8125,21.5626
11:59:00.149,8.5625,19.6876
11:59:00.181,7,18.0001
11:59:00.185,6.3125,15.6876
11:59:00.186,5.375,13.3751
11:59:00.193,4.9375,11.375
11:59:00.227,4.1875,10.4375
11:59:00.229,2.4375,8.375
11:59:00.232,1.125,7
11:59:00.235,0.5,3.625
11:59:00.239,-0.8125,2.125
11:59:00.252,-1.1875,0.5625
11:59:00.260,-1.8125,-2.0625
11:59:00.268,-2.625,-3.6875
11:59:00.278,-2.875,-4.8125
11:59:00.288,-4.5,-6.5
11:59:00.298,-5.3125,-8.1875
11:59:00.308,-6.5625,-10.625
11:59:00.319,-7.125,-11.75
11:59:00.330,-7.5625,-14.3751
11:59:00.339,-9.5625,-15.8126
11:59:00.348,-10.375,-17.0001
11:59:00.360,-11.8125,-19.7501
11:59:00.368,-12.5625,-22.2501
11:59:00.379,-14.3126,-24.0001
11:59:00.388,-16.3751,-25.6876
11:59:00.399,-18.0001,-28.5001
11:59:00.408,-21.3126,-31.4376
11:59:00.419,-23.7501,-35.6251
11:59:00.428,-27.5626,-38.6251
11:59:00.440,-30.1876,-42.0627
11:59:00.448,-33.9376,-44.8752
11:59:00.458,-38.1251,-49.6252
11:59:00.468,-43.3127,-55.4377
11:59:00.480,-45.7502,-55.5002
11:59:00.489,-51.4377,-61.4377
11:59:00.498,-55.8127,-65.8753
11:59:00.508,-59.9377,-69.0003
11:59:00.521,-65.6877,-74.1253
11:59:00.528,-68.8128,-75.4378
11:59:00.539,-73.1878,-76.9378
11:59:00.549,-73.9378,-77.3128
11:59:00.558,-72.1253,-71.6878
11:59:00.569,-69.0628,-65.5627
11:59:00.578,-65.1877,-59.1877
11:59:00.589,-62.3127,-53.0002
11:59:00.598,-58.8752,-46.3752
11:59:00.608,-56.5002,-40.5627
11:59:00.625,-53.0627,-33.5626
11:59:00.631,-45.3127,-26.8126
11:59:00.638,-42.6252,-21.4376
11:59:00.649,-41.7502,-20.7501
11:59:00.659,-40.8127,-17.9376
11:59:00.668,-41.2502,-19.0001
11:59:00.679,-39.9377,-16.5626
11:59:00.695,-39.2501,-16.1251
11:59:00.711,-38.0001,-14.1251
11:59:00.715,-36.9376,-13.5001
11:59:00.722,-37.3126,-11.6875
11:59:00.730,-35.3126,-11.375
11:59:00.739,-35.0001,-11.25
11:59:00.749,-33.3751,-10.3125
11:59:00.758,-34.1251,-9.6875
11:59:00.776,-33.1251,-9.8125
11:59:00.780,-32.4376,-9.1875
11:59:00.811,-30.1251,-7.5625
11:59:00.814,-27.4376,-5.1875
11:59:00.816,-25.3126,-4.75
11:59:00.818,-26.7501,-5.1875
11:59:00.846,-27.3751,-6.9375
11:59:00.849,-30.0001,-9.375
11:59:00.852,-32.8751,-13.6876
11:59:00.884,-36.8126,-15.8751
11:59:00.888,-45.0002,-23.1251
11:59:00.890,-55.9377,-33.8751
11:59:00.894,-58.3752,-37.1876
11:59:00.898,-58.5627,-38.0001
11:59:00.939,-57.4377,-37.5626
11:59:00.942,-55.8127,-35.6876
11:59:00.944,-52.5627,-33.4376
11:59:00.947,-48.9377,-31.5001
11:59:00.952,-45.6877,-27.6251
11:59:00.958,-44.4377,-27.9376
11:59:00.968,-47.6877,-29.5626
11:59:00.978,-49.5002,-33.3126
11:59:00.991,-51.0002,-33.8126
11:59:00.999,-49.6877,-34.6251
11:59:01.009,-50.1252,-34.5626
11:59:01.018,-50.0002,-35.5626
11:59:01.029,-48.6252,-36.0001
11:59:01.038,-49.6252,-37.5626
11:59:01.049,-50.5627,-40.0002
11:59:01.058,-47.7502,-38.8751
11:59:01.068,-45.6252,-39.2502
11:59:01.078,-46.1877,-41.0002
11:59:01.088,-46.2502,-42.0627
11:59:01.098,-47.3752,-43.6252
11:59:01.108,-46.5002,-45.1252
11:59:01.119,-47.5627,-46.1252
11:59:01.131,-47.9377,-48.3127
11:59:01.139,-50.0002,-50.1877
11:59:01.149,-50.2502,-52.3752
11:59:01.158,-52.0627,-53.9377
11:59:01.171,-52.7502,-56.6252
11:59:01.180,-53.5627,-58.6877
11:59:01.188,-54.8127,-59.8127
11:59:01.198,-55.8752,-61.7502
11:59:01.208,-54.5002,-61.6252
11:59:01.218,-54.8752,-61.6877
11:59:01.228,-54.5002,-62.3127
11:59:01.238,-54.1877,-62.6877
11:59:01.250,-54.4377,-62.9377
11:59:01.258,-54.1252,-63.4377
11:59:01.269,-53.5627,-63.6877
11:59:01.279,-54.4377,-64.2502
11:59:01.289,-55.5627,-66.0628
11:59:01.299,-58.6877,-69.3753
11:59:01.309,-60.7502,-71.8753
11:59:01.323,-62.8127,-74.2503
11:59:01.339,-60.8127,-73.1253
11:59:01.340,-59.1877,-71.3753
11:59:01.355,-56.3127,-68.4378
11:59:01.360,-52.7502,-63.0002
11:59:01.374,-47.5627,-56.1252
11:59:01.379,-40.3752,-47.4377
11:59:01.390,-31.8126,-37.0001
11:59:01.400,-26.6251,-29.7501
11:59:01.408,-24.1876,-25.0001
11:59:01.419,-23.8751,-22.6876
11:59:01.428,-21.2501,-20.4376
11:59:01.439,-20.8751,-18.2501
11:59:01.464,-19.2501,-16.4376
11:59:01.467,-18.3751,-14.5001
11:59:01.470,-18.0626,-12.6875
11:59:01.479,-18.5001,-14.1251
11:59:01.489,-19.9376,-15.3751
11:59:01.499,-20.8751,-16.1876
11:59:01.508,-20.5626,-15.0001
11:59:01.519,-20.3126,-14.5626
11:59:01.529,-21.9376,-13.7501
11:59:01.539,-22.4376,-14.9376
11:59:01.550,-22.9376,-14.8751
11:59:01.558,-22.0626,-13.3751
11:59:01.570,-20.7501,-11.0625
11:59:01.597,-19.1876,-10
11:59:01.602,-18.6251,-8.6875
11:59:01.603,-18.7501,-8.9375
11:59:01.610,-18.0626,-8.75
11:59:01.633,-18.7501,-9.0625
11:59:01.637,-19.6876,-10.875
11:59:01.640,-21.4376,-12.9375
11:59:01.667,-23.8126,-14.1251
11:59:01.672,-24.7501,-16.6876
11:59:01.674,-24.8751,-15.7501
11:59:01.680,-21.6876,-16.0001
11:59:01.707,-20.6251,-13.8751
11:59:01.711,-19.1251,-14.7501
11:59:01.713,-18.1876,-13.8751
11:59:01.719,-18.8751,-13.8751
11:59:01.749,-18.8751,-14.6876
11:59:01.751,-20.7501,-16.3751
11:59:01.753,-23.0626,-18.5001
11:59:01.763,-22.9376,-20.6251
11:59:01.773,-24.6876,-21.0626
11:59:01.778,-25.0001,-23.3751
11:59:01.790,-26.5626,-24.0626
11:59:01.799,-27.7501,-25.6251
11:59:01.808,-28.5626,-26.0626
11:59:01.819,-28.8126,-27.5626
11:59:01.828,-30.0626,-27.9376
11:59:01.838,-31.2501,-30.6876
11:59:01.848,-32.4376,-31.5001
11:59:01.858,-32.1876,-32.3126
11:59:01.868,-30.5626,-31.8751
11:59:01.879,-30.4376,-31.3751
11:59:01.889,-30.1251,-31.3126
11:59:01.898,-30.4376,-32.3751
11:59:01.908,-31.1251,-34.8751
11:59:01.918,-32.5001,-36.0001
11:59:01.928,-33.3126,-38.6251
11:59:01.940,-33.4376,-39.4377
11:59:01.948,-33.2501,-39.7502
11:59:01.958,-32.6251,-40.0002
11:59:01.969,-33.4376,-42.1877
11:59:01.979,-33.3126,-42.5002
11:59:01.998,-34.5626,-44.8127
11:59:02.000,-35.6251,-46.1877
11:59:02.016,-36.4376,-48.4377
11:59:02.031,-34.7501,-47.0002
11:59:02.032,-31.9376,-46.0627
11:59:02.039,-31.3751,-44.8127
11:59:02.048,-33.3751,-48.1877
11:59:02.059,-34.3126,-50.0002
11:59:02.069,-36.6251,-52.8127
11:59:02.078,-38.4376,-54.5627
11:59:02.091,-40.0002,-56.9377
11:59:02.098,-41.8752,-57.9377
11:59:02.108,-43.7502,-61.9377
11:59:02.118,-45.3127,-61.8752
11:59:02.128,-44.1252,-63.0627
11:59:02.139,-41.8127,-60.9377
11:59:02.150,-42.0627,-60.8127
11:59:02.158,-43.1877,-62.0627
11:59:02.168,-43.7502,-63.0627
11:59:02.178,-43.3752,-63.9377
11:59:02.191,-42.5002,-61.0627
11:59:02.200,-40.3127,-57.0627
11:59:02.208,-36.9376,-52.6252
11:59:02.218,-32.3751,-46.8127
11:59:02.228,-29.5001,-40.5627
11:59:02.240,-25.0626,-35.0001
11:59:02.249,-22.4376,-29.0001
11:59:02.259,-18.8126,-25.3751
11:59:02.268,-16.8126,-20.7501
11:59:02.283,-14.2501,-19.4376
11:59:02.290,-12.1875,-15.8126
11:59:02.324,-9,-12.9375
11:59:02.327,-4.25,-9.3125
11:59:02.329,-0.5,-4
11:59:02.331,-2.0625,-5.6875
11:59:02.361,-4.125,-7.9375
11:59:02.363,-9.125,-9.5625
11:59:02.366,-10.375,-12.6875
11:59:02.393,-11.875,-12.1875
11:59:02.393,-13.6251,-13.9376
11:59:02.396,-15.6876,-13.2501
11:59:02.402,-15.4376,-13.8126
11:59:02.428,-13,-9.0625
11:59:02.431,-9.4375,-7.1875
11:59:02.434,-9.6875,-5.5
11:59:02.463,-10.5625,-7.3125
11:59:02.467,-11.6875,-6.6875
11:59:02.467,-10.1875,-6.5625
11:59:02.473,-9.8125,-5.1875
11:59:02.478,-9.3125,-6.375
11:59:02.488,-8.8125,-6.1875
11:59:02.499,-7.875,-6.25
11:59:02.514,-6.5625,-4.875
11:59:02.520,-6.0625,-5.5625
11:59:02.528,-5.875,-7.125
11:59:02.538,-5.6875,-7.375
11:59:02.549,-5.0625,-7.1875
11:59:02.558,-3.8125,-6.0625
11:59:02.568,-3,-5.875
11:59:02.578,-6.125,-8.4375
11:59:02.588,-8.75,-11.625
11:59:02.598,-12.5625,-15.0626
11:59:02.608,-13.9376,-17.5626
11:59:02.624,-15.4376,-18.3126
11:59:02.641,-17.5001,-18.9376
11:59:02.642,-18.5626,-21.6251
11:59:02.649,-20.7501,-22.3751
11:59:02.658,-21.1876,-24.6876
11:59:02.668,-20.8751,-23.6251
11:59:02.679,-20.7501,-25.2501
11:59:02.688,-22.7501,-26.3126
11:59:02.698,-24.4376,-30.2501
11:59:02.710,-27.3126,-31.8126
11:59:02.719,-27.3751,-33.3751
11:59:02.743,-26.9376,-32.3126
11:59:02.746,-23.3126,-31.6251
11:59:02.749,-21.7501,-28.6251
11:59:02.758,-21.8751,-30.8126
11:59:02.768,-23.4376,-30.9376
11:59:02.779,-20.8126,-31.5001
11:59:02.788,-19.5001,-31.1876
11:59:02.798,-18.8751,-30.8751
11:59:02.808,-17.0001,-29.7501
11:59:02.819,-13.5001,-26.6251
11:59:02.829,-6.4375,-20.0001
11:59:02.839,-3.6875,-18.8126
11:59:02.849,-8.25,-23.1251
11:59:02.858,-14.8126,-29.0626
11:59:02.870,-21.1876,-36.5626
11:59:02.878,-24.1251,-40.0002
11:59:02.890,-26.2501,-42.7502
11:59:02.898,-29.3751,-45.0002
11:59:02.908,-33.3751,-48.3752
11:59:02.918,-34.1251,-50.3127
11:59:02.929,-34.3751,-49.0627
11:59:02.939,-34.7501,-51.9377
11:59:02.948,-36.0626,-52.3752
11:59:02.959,-32.8751,-50.1877
11:59:02.989,-29.8751,-47.6877
11:59:02.994,-27.6876,-45.4377
11:59:03.023,-25.5001,-46.4377
11:59:03.024,-25.7501,-46.0627
11:59:03.029,-27.2501,-47.5002
11:59:03.030,-28.0626,-46.3752
11:59:03.035,-26.0001,-44.8127
11:59:03.038,-21.0626,-37.5001
11:59:03.072,-15.0001,-30.3126
11:59:03.075,-9.5,-22.4376
11:59:03.077,-5.5625,-17.1251
11:59:03.080,-1.125,-10.125
11:59:03.110,2.3125,-5.4375
11:59:03.112,6.5,1
11:59:03.115,10.5,5.3125
11:59:03.120,12.25,8.9375
11:59:03.145,9.9375,6.3125
11:59:03.150,2.9375,0.875
11:59:03.151,-2.6875,-4.875
11:59:03.158,-5.9375,-7.9375
11:59:03.168,-5.875,-7.6875
11:59:03.179,-8.625,-9.6875
11:59:03.188,-11.5625,-10.9375
11:59:03.199,-11.25,-10.9375
