timestamp,Red,IR
12:53:32.069,24.6563,66.5315
12:53:32.072,30.4376,77.969
12:53:32.109,28.8751,73.6878
12:53:32.116,27.0314,71.9065
12:53:32.118,24.1563,64.844
12:53:32.120,23.2188,62.719
12:53:32.124,21.7188,61.2815
12:53:32.124,20.3751,58.6565
12:53:32.124,19.4688,56.594
12:53:32.130,17.9688,53.1565
12:53:32.156,16.4688,51.6564
12:53:32.159,15.0001,48.5939
12:53:32.161,13.5001,45.0627
12:53:32.188,12.3125,42.7502
12:53:32.191,10.7813,38.7189
12:53:32.193,9.0313,36.2814
12:53:32.207,7.6875,33.4376
12:53:32.211,5.5625,29.9376
12:53:32.221,4.3438,27.8751
12:53:32.231,3.0938,23.5313
12:53:32.239,1.2813,20.9376
12:53:32.250,0.4688,17.0938
12:53:32.260,-1.4063,15.0626
12:53:32.273,-3,11.2188
12:53:32.281,-4.0938,8.125
12:53:32.291,-6.125,2.9375
12:53:32.299,-7.25,0.8125
12:53:32.310,-8.5625,-2.4063
12:53:32.320,-9.9063,-4.9688
12:53:32.328,-11.4375,-7.8125
12:53:32.341,-11.7188,-9.3438
12:53:32.351,-13.0625,-12.4375
12:53:32.360,-14.1251,-13.8438
12:53:32.370,-14.5313,-17.7501
12:53:32.380,-16.1563,-18.3438
12:53:32.390,-16.6251,-21.2501
12:53:32.402,-18.3438,-23.0001
12:53:32.410,-18.1876,-25.9376
12:53:32.420,-19.8126,-27.2501
12:53:32.430,-20.7188,-29.9064
12:53:32.453,-21.6251,-31.3126
12:53:32.459,-22.8126,-33.7501
12:53:32.461,-22.6876,-36.1564
12:53:32.476,-24.2501,-38.7501
12:53:32.491,-25.1563,-40.7502
12:53:32.496,-26.0313,-41.4064
12:53:32.500,-27.4064,-44.5939
12:53:32.510,-27.5626,-46.6252
12:53:32.520,-29.4064,-48.3439
12:53:32.530,-29.9689,-51.0939
12:53:32.540,-31.6876,-51.8439
12:53:32.550,-32.7189,-54.7815
12:53:32.560,-33.3439,-56.219
12:53:32.570,-33.7501,-58.4065
12:53:32.580,-34.7189,-60.0627
12:53:32.589,-35.1876,-61.7815
12:53:32.600,-35.8751,-62.1252
12:53:32.611,-36.4064,-64.0002
12:53:32.620,-37.5626,-64.8752
12:53:32.630,-38.3439,-66.469
12:53:32.640,-38.8126,-68.0315
12:53:32.649,-40.6564,-69.2815
12:53:32.661,-40.8127,-72.0628
12:53:32.670,-42.2814,-72.7503
12:53:32.681,-43.1252,-75.3128
12:53:32.690,-43.8752,-76.0315
12:53:32.709,-44.3752,-77.1878
12:53:32.721,-43.6877,-77.3128
12:53:32.724,-40.8752,-72.844
12:53:32.739,-35.1251,-64.6565
12:53:32.741,-26.0938,-46.9689
12:53:32.772,-15.1251,-23.5938
12:53:32.773,-4.9063,-1.875
12:53:32.775,2.6875,14.5938
12:53:32.781,8.6563,28.5314
12:53:32.811,13.0938,38.1564
12:53:32.814,17.2501,46.9377
12:53:32.817,20.5626,53.469
12:53:32.825,23.3751,58.8752
12:53:32.830,25.5001,64.594
12:53:32.855,27.5626,70.094
12:53:32.857,30.5626,75.219
12:53:32.860,32.2189,79.0941
12:53:32.896,33.5001,84.5628
12:53:32.897,35.5314,87.8753
12:53:32.900,37.0314,92.0004
12:53:32.903,39.1251,96.0316
12:53:32.925,40.1564,98.0316
12:53:32.928,41.6877,101.2504
12:53:32.929,42.3439,103.3441
12:53:32.941,42.6252,104.9691
12:53:32.958,43.1564,106.2817
12:53:32.960,42.1564,105.6567
12:53:32.971,41.3752,102.7816
12:53:32.980,39.1252,100.5004
12:53:32.991,37.1876,96.1566
12:53:33.000,34.3751,91.1566
12:53:33.010,32.7501,86.5628
12:53:33.020,31.3439,82.5628
12:53:33.030,29.3126,79.5316
12:53:33.041,28.8439,77.4065
12:53:33.050,26.8439,75.9378
12:53:33.060,27.2501,74.1565
12:53:33.070,25.8438,72.3753
12:53:33.080,25.6876,71.344
12:53:33.090,23.6563,68.9378
12:53:33.100,23.3438,66.6565
12:53:33.109,22.0001,64.0315
12:53:33.135,20.9688,61.2502
12:53:33.141,19.5001,59.0002
12:53:33.142,18.4376,56.7815
12:53:33.153,17.0938,53.2502
12:53:33.160,15.0626,50.4689
12:53:33.170,14.0313,46.5627
12:53:33.179,12.4688,44.1252
12:53:33.196,11.25,41.0939
12:53:33.205,9.5313,37.5939
12:53:33.215,8.0625,34.6564
12:53:33.224,6.7188,30.2814
12:53:33.235,5.0313,26.6876
12:53:33.245,3.6875,23.5626
12:53:33.256,1.1563,20.0626
12:53:33.266,0.4375,17.1251
12:53:33.276,-1.25,13.0625
12:53:33.287,-3.375,10.4688
12:53:33.295,-4.2813,6.9375
12:53:33.305,-6.3438,3.7188
12:53:33.315,-6.9063,1.7188
12:53:33.332,-7.75,-2.1563
12:53:33.336,-9.1563,-4.4688
12:53:33.345,-10.125,-7.25
12:53:33.355,-12.0313,-11.2188
12:53:33.365,-13.0938,-13.3126
12:53:33.375,-14.6876,-15.7501
12:53:33.385,-15.7813,-18.3751
12:53:33.395,-17.3751,-21.4063
12:53:33.405,-18.6251,-23.6251
12:53:33.415,-19.2501,-26.1251
12:53:33.427,-20.0313,-28.8751
12:53:33.459,-21.7813,-30.4376
12:53:33.464,-23.3126,-33.5001
12:53:33.466,-24.4376,-36.3126
12:53:33.468,-25.0313,-37.7501
12:53:33.497,-26.3439,-40.9064
12:53:33.499,-27.2189,-42.4689
12:53:33.501,-28.1876,-45.5627
12:53:33.505,-29.4689,-47.4064
12:53:33.535,-30.4689,-49.9689
12:53:33.538,-31.1876,-52.5939
12:53:33.540,-33.0314,-55.1565
12:53:33.546,-33.8439,-56.5627
12:53:33.554,-34.9376,-59.2815
12:53:33.588,-35.5939,-60.5002
12:53:33.591,-36.8126,-63.5627
12:53:33.594,-37.6251,-64.594
12:53:33.600,-38.4376,-67.1565
12:53:33.615,-39.3439,-68.8753
12:53:33.615,-40.1564,-70.4065
12:53:33.625,-41.1252,-71.6565
12:53:33.635,-41.9064,-73.9378
12:53:33.645,-42.0939,-74.7503
12:53:33.656,-43.5314,-75.969
12:53:33.665,-44.2502,-77.9065
12:53:33.675,-43.7189,-78.6253
12:53:33.686,-45.5314,-78.8753
12:53:33.696,-45.5314,-81.2503
12:53:33.706,-46.2502,-82.9691
12:53:33.715,-48.0002,-83.8441
12:53:33.725,-48.6252,-86.0628
12:53:33.736,-49.4064,-86.0628
12:53:33.745,-50.1252,-88.1253
12:53:33.761,-50.1877,-88.6878
12:53:33.777,-50.2189,-87.7816
12:53:33.791,-48.4377,-87.1878
12:53:33.796,-43.8127,-81.3128
12:53:33.799,-37.5939,-69.5628
12:53:33.808,-27.3439,-51.5002
12:53:33.815,-14.8126,-26.2188
12:53:33.825,-5.5625,-3.2188
12:53:33.836,1.4063,12.125
12:53:33.845,7.7188,25.5938
12:53:33.855,11.9063,34.6876
12:53:33.866,16.0313,42.1252
12:53:33.875,18.3751,49.0939
12:53:33.886,20.4688,53.6565
12:53:33.896,23.2501,58.6252
12:53:33.907,26.0313,63.8752
12:53:33.915,27.5939,67.8128
12:53:33.925,30.4064,72.1878
12:53:33.935,31.6251,76.594
12:53:33.949,33.6876,80.2816
12:53:33.956,35.1251,82.3128
12:53:33.965,37.2189,86.2503
12:53:33.975,38.0001,89.4066
12:53:33.985,38.9689,90.9066
12:53:34.006,39.3439,92.3754
12:53:34.011,40.2814,92.7504
12:53:34.023,39.4377,92.8441
12:53:34.026,39.0314,90.8129
12:53:34.041,37.0001,88.2191
12:53:34.046,33.9064,84.4066
12:53:34.055,32.2189,78.8441
12:53:34.065,30.1564,74.8128
12:53:34.082,28.6251,71.2503
12:53:34.086,26.6876,66.9065
12:53:34.097,25.8751,64.5315
12:53:34.105,25.1876,62.2815
12:53:34.115,23.8438,61.344
12:53:34.125,23.5626,59.594
12:53:34.135,22.3751,57.7502
12:53:34.145,20.9376,56.7502
12:53:34.154,20.1876,53.4065
12:53:34.165,19.0626,50.9689
12:53:34.175,17.3438,48.8439
12:53:34.185,16.0626,44.7189
12:53:34.196,14.0001,42.5002
12:53:34.230,12.375,39.7189
12:53:34.232,10.9688,35.1564
12:53:34.234,9,32.9376
12:53:34.238,7.5,29.3751
12:53:34.267,5.5313,25.6876
12:53:34.269,4.4063,22.5313
12:53:34.271,2.25,19.1876
12:53:34.279,0.4688,15.3751
12:53:34.309,-0.8125,12.2188
12:53:34.312,-3.3438,8.625
12:53:34.313,-4.8125,5.625
12:53:34.342,-6.25,1.0625
12:53:34.343,-8.5313,-1.3438
12:53:34.345,-9.8438,-5.625
12:53:34.351,-12.1875,-7.9375
12:53:34.358,-12.9375,-11.5
12:53:34.365,-14.4063,-14.3126
12:53:34.378,-15.7813,-17.5626
12:53:34.389,-17.1251,-20.4063
12:53:34.413,-17.9063,-22.4063
12:53:34.416,-19.0313,-25.3751
12:53:34.419,-19.5626,-27.4376
12:53:34.426,-21.1251,-30.5001
12:53:34.436,-22.1563,-32.5314
12:53:34.445,-23.4688,-35.5314
12:53:34.462,-24.5626,-36.6564
12:53:34.465,-25.4376,-39.4689
12:53:34.475,-25.8751,-41.4377
12:53:34.487,-27.4064,-43.8439
12:53:34.495,-27.5939,-46.2189
12:53:34.505,-28.4064,-46.7189
12:53:34.516,-29.2189,-49.3752
12:53:34.525,-29.9064,-52.0002
12:53:34.535,-30.3751,-53.6877
12:53:34.545,-31.5001,-54.719
12:53:34.556,-32.5001,-57.9065
12:53:34.565,-32.0001,-59.594
12:53:34.576,-33.6876,-61.1565
12:53:34.586,-34.7814,-63.719
12:53:34.595,-35.5626,-65.5315
12:53:34.605,-36.7189,-68.0628
12:53:34.615,-37.3751,-69.6878
12:53:34.626,-38.3126,-71.1878
12:53:34.635,-39.1251,-73.4378
12:53:34.646,-39.4377,-74.594
12:53:34.655,-41.0002,-76.0315
12:53:34.665,-41.3752,-77.844
12:53:34.675,-42.4064,-78.3753
12:53:34.686,-43.5627,-80.9378
12:53:34.697,-43.6252,-81.2191
12:53:34.705,-44.8127,-82.6878
12:53:34.715,-44.5314,-84.2816
12:53:34.724,-45.8127,-84.3128
12:53:34.735,-46.6877,-87.2816
12:53:34.745,-47.5939,-87.0628
12:53:34.754,-47.9064,-89.0628
12:53:34.765,-48.2189,-89.9378
12:53:34.775,-49.1252,-89.8441
12:53:34.786,-49.5002,-91.4379
12:53:34.795,-48.3752,-90.3441
12:53:34.805,-47.0627,-88.8753
12:53:34.815,-42.8439,-83.6878
12:53:34.825,-37.8126,-73.094
12:53:34.837,-28.2814,-57.8752
12:53:34.845,-15.2501,-33.1876
12:53:34.855,-4.9063,-8.1875
12:53:34.866,3.5313,9.2188
12:53:34.876,9.9375,24.2501
12:53:34.885,14.0001,34.1564
12:53:34.895,17.8751,41.8127
12:53:34.907,20.5001,48.6564
12:53:34.915,23.2188,53.0315
12:53:34.925,25.5938,57.2815
12:53:34.934,27.0001,62.219
12:53:34.947,28.8751,64.969
12:53:34.958,31.0626,69.2815
12:53:34.986,32.0626,73.4378
12:53:34.991,34.0939,75.4378
12:53:34.994,35.4689,78.0628
12:53:34.996,35.7189,80.3441
12:53:35.027,36.6251,81.8128
12:53:35.031,37.6876,82.9691
12:53:35.034,37.4064,84.3753
12:53:35.036,37.5001,84.8441
12:53:35.047,36.5314,84.0003
12:53:35.064,35.6876,81.8128
12:53:35.069,33.5314,77.6253
12:53:35.143,31.9376,74.5628
12:53:35.146,29.1564,70.0315
12:53:35.146,27.2189,65.2815
12:53:35.159,25.7813,61.844
12:53:35.159,23.9688,59.0627
12:53:35.159,23.4376,57.0627
12:53:35.164,22.3438,55.1877
12:53:35.171,21.1876,54.3127
12:53:35.180,20.9688,52.9065
12:53:35.190,19.9376,51.0314
12:53:35.200,19.1251,48.8752
12:53:35.214,17.5001,46.5002
12:53:35.224,17.0626,44.8127
12:53:35.230,15.5626,42.0627
12:53:35.240,14.5938,39.8127
12:53:35.249,13.3751,36.5314
12:53:35.260,11.7813,33.7501
12:53:35.270,10.8125,30.9064
12:53:35.281,9.1875,27.7189
12:53:35.290,7.8125,25.2501
12:53:35.311,6.2813,22.5313
12:53:35.329,4.5313,19.6563
12:53:35.361,-1.125,8.0625
12:53:35.364,-2.4063,6.3438
12:53:35.367,-3.2188,1.6875
12:53:35.368,-4.875,0.125
12:53:35.374,-6.1875,-3.625
12:53:35.376,-7.6875,-6.5
12:53:35.381,-9.0625,-9.4063
12:53:35.390,-10.9063,-12.8438
12:53:35.399,-11.3125,-15.8126
12:53:35.409,-12.9063,-18.3751
12:53:35.420,-14.0938,-20.9376
12:53:35.431,-15.7813,-23.8751
12:53:35.440,-17.1563,-26.1251
12:53:35.450,-17.6563,-28.7501
12:53:35.459,-19.1563,-30.6876
12:53:35.470,-20.2813,-32.5626
12:53:35.480,-21.3438,-35.3126
12:53:35.491,-22.8751,-36.5314
12:53:35.500,-23.1876,-39.5939
12:53:35.510,-24.5001,-42.2814
12:53:35.520,-25.0938,-43.9689
12:53:35.531,-26.3439,-46.3752
12:53:35.540,-27.5939,-48.7502
12:53:35.549,-29.1564,-49.5939
12:53:35.565,-29.8126,-53.1252
12:53:35.570,-30.5001,-55.1252
12:53:35.586,-32.6564,-57.2815
12:53:35.590,-33.7189,-60.4065
12:53:35.600,-34.1251,-61.469
12:53:35.614,-35.5001,-62.6252
12:53:35.624,-36.2189,-66.1878
12:53:35.630,-37.0314,-67.9378
12:53:35.639,-38.4689,-68.969
12:53:35.650,-39.1564,-71.2815
12:53:35.664,-39.3127,-72.1565
12:53:35.670,-40.3752,-74.2815
12:53:35.695,-40.9377,-75.5315
12:53:35.697,-42.0314,-75.6878
12:53:35.725,-42.3127,-78.2815
12:53:35.728,-42.0002,-79.0941
12:53:35.731,-43.5314,-80.2191
12:53:35.740,-43.7189,-81.7503
12:53:35.741,-44.9064,-81.9691
12:53:35.772,-45.9064,-84.0941
12:53:35.774,-45.8439,-84.9378
12:53:35.776,-46.6877,-85.2503
12:53:35.782,-47.1252,-87.3753
12:53:35.816,-48.4689,-88.1253
12:53:35.817,-48.9064,-88.4378
12:53:35.820,-48.6877,-89.9691
12:53:35.824,-49.6564,-89.3441
12:53:35.852,-48.1877,-89.5003
12:53:35.853,-46.8127,-86.4066
12:53:35.857,-41.9689,-80.6253
12:53:35.862,-34.4376,-69.2815
12:53:35.875,-23.7813,-48.3752
12:53:35.881,-11.4375,-22.3438
12:53:35.890,-1.0313,1.25
12:53:35.900,6.3125,18.2813
12:53:35.910,12.6875,30.5626
12:53:35.925,17.1251,40.2189
12:53:35.930,20.1876,46.3439
12:53:35.940,23.0001,52.5627
12:53:35.950,25.6876,58.4065
12:53:35.960,28.1564,62.3752
12:53:35.972,30.6564,66.8128
12:53:35.980,32.2501,70.469
12:53:35.990,35.0001,74.844
12:53:36.000,36.1251,78.6253
12:53:36.013,38.2501,81.6566
12:53:36.020,40.0002,85.2816
12:53:36.029,40.2189,88.6566
12:53:36.039,41.4689,89.7191
12:53:36.050,42.8127,91.8129
12:53:36.061,43.1877,93.4066
12:53:36.071,43.3127,93.9691
12:53:36.081,43.1564,92.8441
12:53:36.090,41.0627,91.3129
12:53:36.100,40.2502,88.4066
12:53:36.111,38.2189,83.8128
12:53:36.123,35.8751,80.0316
12:53:36.130,33.5314,74.6565
12:53:36.140,32.4064,71.2815
12:53:36.151,30.5626,68.2815
12:53:36.161,29.5314,65.8752
12:53:36.172,29.2814,64.3127
12:53:36.181,27.7814,62.6877
12:53:36.190,27.0314,61.9377
12:53:36.199,26.0626,59.6565
12:53:36.215,25.1876,58.1565
12:53:36.220,24.3438,56.1565
12:53:36.231,22.7813,54.2502
12:53:36.240,21.8751,50.5314
12:53:36.250,20.1876,48.4689
12:53:36.261,18.8126,45.4064
12:53:36.275,17.4376,41.7502
12:53:36.281,16.0626,38.6876
12:53:36.289,14.5001,35.8126
12:53:36.300,13.3126,32.4376
12:53:36.310,12,29.4064
12:53:36.324,10.3125,26.5001
12:53:36.337,8.1563,23.3438
12:53:36.340,6.4688,19.5001
12:53:36.352,4.8438,16.4376
12:53:36.360,3.7188,13.6563
12:53:36.383,1.9063,9.6875
12:53:36.384,0.625,7.25
12:53:36.399,-1.375,3.75
12:53:36.401,-2.6563,0.5938
12:53:36.416,-4.1875,-2.7188
12:53:36.419,-6,-5.1563
12:53:36.444,-7.3125,-8.7188
12:53:36.447,-8.4375,-11.0938
12:53:36.453,-10,-14.3438
12:53:36.481,-10.9375,-16.8751
12:53:36.483,-12.25,-19.3751
12:53:36.486,-13.5626,-22.1876
12:53:36.491,-14.1876,-24.5626
12:53:36.517,-15.9688,-26.1251
12:53:36.520,-17.2188,-28.7814
12:53:36.523,-18.0313,-30.2501
12:53:36.532,-18.9063,-33.5939
12:53:36.539,-20.0001,-35.1251
12:53:36.573,-21.1251,-36.8126
12:53:36.576,-22.1563,-39.5939
12:53:36.580,-23.4376,-41.3439
12:53:36.582,-23.8438,-44.4689
12:53:36.590,-24.9376,-46.1252
12:53:36.600,-26.4376,-48.5314
12:53:36.610,-27.1564,-49.7502
12:53:36.629,-28.6876,-52.6877
12:53:36.631,-29.0939,-55.3752
12:53:36.646,-30.9064,-56.594
12:53:36.656,-32.0001,-59.9377
12:53:36.660,-33.3126,-60.719
12:53:36.670,-33.8126,-63.4377
12:53:36.680,-35.2189,-64.344
12:53:36.691,-36.0626,-67.9378
12:53:36.700,-37.0001,-69.1565
12:53:36.711,-37.8439,-71.2815
12:53:36.720,-39.2502,-72.1878
12:53:36.729,-39.6564,-74.3753
12:53:36.740,-40.6252,-75.1565
12:53:36.751,-40.9064,-77.2815
12:53:36.762,-41.0627,-78.5628
12:53:36.770,-42.6877,-79.3753
12:53:36.780,-42.7502,-81.2503
12:53:36.790,-43.6877,-82.3128
12:53:36.800,-44.2189,-82.3441
12:53:36.809,-44.9689,-84.1253
12:53:36.821,-45.5939,-83.7503
12:53:36.831,-45.5002,-85.5003
12:53:36.840,-46.0627,-84.7503
12:53:36.850,-46.0627,-86.4066
12:53:36.860,-47.0627,-86.4066
12:53:36.869,-47.1564,-88.3128
12:53:36.880,-48.0002,-88.7816
12:53:36.890,-48.4377,-89.7503
12:53:36.900,-49.0939,-90.2191
12:53:36.910,-48.6252,-91.0316
12:53:36.920,-49.0939,-90.5941
12:53:36.929,-48.3752,-89.3441
12:53:36.940,-46.5939,-87.4691
12:53:36.950,-41.6252,-80.9066
12:53:36.977,-35.1564,-69.594
12:53:36.979,-23.7501,-50.8752
12:53:36.983,-10.7188,-23.9063
12:53:36.990,0.5625,0.4375
12:53:37.000,9.6875,18.1563
12:53:37.010,14.8751,33.3439
12:53:37.021,19.8126,41.8439
12:53:37.030,24.1251,49.3127
12:53:37.040,26.0938,55.6252
12:53:37.050,29.0001,59.719
12:53:37.061,31.4064,64.8752
12:53:37.070,33.0314,68.4378
12:53:37.101,35.6876,72.5003
12:53:37.104,37.2189,77.8753
12:53:37.106,39.0001,80.0628
12:53:37.110,41.0314,83.9378
12:53:37.145,41.6564,86.6878
12:53:37.145,43.5939,89.0628
12:53:37.148,43.9064,91.8441
12:53:37.150,44.8127,92.6879
12:53:37.187,45.3127,94.6879
12:53:37.187,45.2814,94.5004
12:53:37.190,45.4377,94.3754
12:53:37.197,44.4377,91.8441
12:53:37.206,42.8752,89.1878
12:53:37.236,41.0627,85.6566
12:53:37.237,38.8439,80.9691
12:53:37.241,36.8126,76.4378
12:53:37.246,34.5001,72.7503
12:53:37.269,33.4689,69.969
12:53:37.273,32.2814,67.7815
12:53:37.276,31.1876,66.594
12:53:37.287,30.7189,63.7502
12:53:37.296,29.6876,62.6877
12:53:37.305,28.9376,61.344
12:53:37.315,28.0626,58.6565
12:53:37.325,26.7189,57.0002
12:53:37.335,25.3751,53.6252
12:53:37.345,24.2188,52.0002
12:53:37.356,22.6251,48.2502
12:53:37.365,21.4688,46.0314
12:53:37.375,19.5313,42.1564
12:53:37.385,17.0001,37.6564
12:53:37.395,16.6876,34.8439
12:53:37.405,14.2188,31.8126
12:53:37.415,13.2813,28.3126
12:53:37.425,11.3438,24.9688
12:53:37.436,9.5313,22.5001
12:53:37.445,8.1875,18.6563
12:53:37.463,6.3125,16.2501
12:53:37.465,5.125,12.125
12:53:37.475,3.75,8.6563
12:53:37.485,2.3438,5.5313
12:53:37.495,1.0313,2.3125
12:53:37.506,-0.6875,-0.1563
12:53:37.516,-1.9063,-3.3125
12:53:37.524,-3.625,-6.4688
12:53:37.535,-4.75,-9.0313
12:53:37.545,-6.0938,-12.2188
12:53:37.556,-7.6875,-13.9376
12:53:37.566,-8.4375,-17.6876
12:53:37.575,-10.0313,-21.0001
12:53:37.586,-11.5,-22.9063
12:53:37.596,-12.4375,-26.0001
12:53:37.607,-13.2501,-27.7501
12:53:37.617,-14.6563,-30.6564
12:53:37.625,-15.8438,-32.5001
12:53:37.635,-16.7813,-34.9376
12:53:37.645,-17.7813,-37.5001
12:53:37.655,-19.5313,-39.0939
12:53:37.665,-20.1251,-42.4377
12:53:37.685,-21.6563,-43.0627
12:53:37.693,-22.7188,-46.4689
12:53:37.699,-23.5313,-49.0939
12:53:37.715,-25.1251,-51.0002
12:53:37.729,-26.2501,-53.969
12:53:37.731,-26.7189,-55.0315
12:53:37.735,-28.3439,-57.844
12:53:37.747,-28.9376,-60.094
12:53:37.756,-30.3439,-60.0627
12:53:37.765,-30.9064,-63.844
12:53:37.775,-31.1564,-65.1252
12:53:37.785,-33.2814,-66.1878
12:53:37.797,-33.8126,-69.1253
12:53:37.808,-34.5939,-70.6565
12:53:37.816,-35.9689,-71.2815
12:53:37.826,-36.2814,-73.2503
12:53:37.841,-36.3126,-74.6565
12:53:37.845,-38.2501,-75.594
12:53:37.857,-38.4689,-77.0628
12:53:37.864,-39.2189,-77.5003
12:53:37.875,-39.5627,-79.1878
12:53:37.896,-39.8127,-79.1253
12:53:37.900,-40.5002,-81.3441
12:53:37.932,-40.1564,-81.0003
12:53:37.934,-40.7502,-80.6878
12:53:37.975,-40.7502,-82.3441
12:53:37.976,-41.8439,-82.3128
12:53:38.013,-41.9064,-83.9378
12:53:38.015,-41.8752,-83.6878
12:53:38.015,-42.9377,-84.1878
12:53:38.015,-42.3752,-85.0941
12:53:38.016,-43.6252,-85.4691
12:53:38.043,-43.7814,-87.0628
12:53:38.044,-43.8127,-86.0003
12:53:38.045,-44.1877,-86.7503
12:53:38.046,-43.8752,-87.0941
12:53:38.048,-42.7502,-87.0316
12:53:38.056,-43.0002,-85.2816
12:53:38.066,-39.0001,-81.9378
12:53:38.075,-35.7189,-75.3128
12:53:38.084,-28.5001,-65.7503
12:53:38.095,-18.3438,-47.3752
12:53:38.105,-5.875,-23.5938
12:53:38.115,6.625,3.4063
12:53:38.125,14.9063,22.8751
12:53:38.135,21.3438,36.2501
12:53:38.147,31.5626,55.4065
12:53:38.155,33.5001,61.5315
12:53:38.164,36.1876,66.4065
12:53:38.175,38.0939,69.6878
12:53:38.185,40.5314,74.219
12:53:38.195,41.7189,78.4378
12:53:38.205,43.7189,80.9066
12:53:38.220,45.7814,84.1566
12:53:38.225,46.0314,88.0628
12:53:38.258,47.9064,88.7816
12:53:38.263,49.3439,91.4379
12:53:38.263,49.8439,93.2816
12:53:38.268,50.4689,93.9691
12:53:38.276,50.6877,95.1254
12:53:38.285,50.9377,94.8129
12:53:38.295,49.7502,94.0316
12:53:38.306,48.5939,92.0629
12:53:38.315,47.2189,87.0003
12:53:38.325,43.9377,83.8128
12:53:38.335,42.3752,78.2816
12:53:38.346,39.8127,74.9378
12:53:38.355,38.2501,70.9378
12:53:38.365,36.6564,68.0003
12:53:38.374,35.8439,66.6253
12:53:38.385,35.4064,63.7502
12:53:38.396,34.9064,63.0002
12:53:38.404,34.0314,61.9065
12:53:38.415,33.6876,60.1252
12:53:38.426,32.6876,58.0627
12:53:38.435,31.2501,56.1877
12:53:38.447,29.5314,53.5315
12:53:38.457,28.4376,50.8127
12:53:38.464,26.3751,47.3127
12:53:38.477,25.2188,44.6564
12:53:38.485,23.6563,40.8127
12:53:38.495,22.0313,37.7814
12:53:38.504,20.3751,34.7189
12:53:38.515,19.3438,31.6876
12:53:38.524,17.5938,28.4064
12:53:38.535,15.6251,25.4688
12:53:38.545,14.2501,22.4063
12:53:38.555,12.5938,19.5626
12:53:38.565,10.2188,16.8126
12:53:38.575,9.3125,13.2501
12:53:38.585,7.4375,10.25
12:53:38.597,5.9688,6.2813
12:53:38.605,3.625,3.875
12:53:38.632,2.5313,-0.3125
12:53:38.634,0.6875,-2.625
12:53:38.636,-0.4688,-5.9063
12:53:38.670,-2.5938,-9.7188
12:53:38.673,-3.3438,-12.0313
12:53:38.675,-4.9688,-15.2501
12:53:38.677,-5.625,-17.5001
12:53:38.706,-7.7188,-20.7813
12:53:38.709,-9.1875,-22.9376
12:53:38.711,-10.5625,-25.8751
12:53:38.717,-12.1563,-28.2501
12:53:38.732,-12.8438,-30.9376
12:53:38.736,-14.4063,-33.0001
12:53:38.767,-15.5626,-35.6564
12:53:38.770,-17.0001,-37.6876
12:53:38.774,-18.0313,-39.1564
12:53:38.780,-19.0938,-42.3439
12:53:38.784,-20.5938,-43.5939
12:53:38.795,-21.2188,-46.2814
12:53:38.805,-21.5313,-48.5002
12:53:38.815,-24.2501,-50.2189
12:53:38.825,-24.4688,-52.7189
12:53:38.835,-26.5001,-55.1565
12:53:38.844,-27.4376,-57.6565
12:53:38.855,-28.2189,-58.6252
12:53:38.864,-29.6564,-61.1877
12:53:38.875,-30.3439,-62.0002
12:53:38.885,-32.0626,-63.7815
12:53:38.896,-32.6876,-66.594
12:53:38.904,-32.6564,-67.4378
12:53:38.914,-35.0939,-68.969
12:53:38.925,-35.4376,-70.9378
12:53:38.935,-35.4376,-71.7815
12:53:38.946,-36.7501,-72.5628
12:53:38.954,-37.0939,-74.5315
12:53:38.969,-37.4689,-74.469
12:53:38.975,-38.0314,-75.5628
12:53:38.985,-37.5001,-76.6878
12:53:39.005,-39.4064,-77.0003
12:53:39.007,-38.8751,-77.219
12:53:39.019,-39.6877,-78.4065
12:53:39.037,-39.5939,-79.0316
12:53:39.042,-40.6877,-79.2503
12:53:39.047,-40.8439,-80.7503
12:53:39.054,-41.3439,-80.3441
12:53:39.064,-41.7814,-81.3128
12:53:39.075,-41.8752,-80.8441
12:53:39.085,-41.7502,-82.3441
12:53:39.095,-42.8752,-81.9378
12:53:39.105,-42.7189,-83.0941
12:53:39.115,-43.5002,-83.2191
12:53:39.125,-43.0627,-83.4378
12:53:39.135,-43.0627,-83.7816
12:53:39.145,-42.9377,-82.7503
12:53:39.154,-40.8752,-80.6566
12:53:39.165,-37.0001,-74.7503
12:53:39.175,-30.7189,-66.9065
12:53:39.186,-21.8438,-52.0627
12:53:39.195,-10.375,-29.6251
12:53:39.205,2.4375,-2.5625
12:53:39.215,13.5001,19.5626
12:53:39.225,20.1876,34.9064
12:53:39.235,25.2501,45.8752
12:53:39.244,30.0314,54.219
12:53:39.266,32.5939,61.094
12:53:39.268,34.9689,65.8127
12:53:39.277,37.7501,70.2815
12:53:39.284,39.3752,74.7815
12:53:39.300,41.5002,76.9065
12:53:39.308,42.5314,81.8441
12:53:39.322,44.2502,84.5003
12:53:39.324,46.7189,87.1878
12:53:39.357,47.2189,89.7503
12:53:39.360,48.3439,91.4379
12:53:39.362,48.9064,93.5941
12:53:39.368,49.7502,93.9066
12:53:39.396,50.6564,95.4691
12:53:39.400,50.8752,95.5004
12:53:39.401,50.0939,94.7504
12:53:39.405,49.0314,93.0941
12:53:39.436,47.4689,90.3441
12:53:39.438,46.0627,86.8441
12:53:39.440,43.5314,81.6253
12:53:39.467,40.8127,78.4065
12:53:39.468,39.6564,74.7503
12:53:39.471,37.9376,70.7815
12:53:39.476,37.8126,69.1878
12:53:39.500,37.0314,67.094
12:53:39.502,36.0314,66.1253
12:53:39.506,35.6564,65.219
12:53:39.533,34.6876,63.594
12:53:39.536,33.9064,61.469
12:53:39.538,32.7189,59.2815
12:53:39.545,31.1564,57.0315
12:53:39.555,30.0001,54.219
12:53:39.565,28.3751,52.0939
12:53:39.576,27.5001,48.7814
12:53:39.585,25.7501,44.8439
12:53:39.595,24.0938,41.8439
12:53:39.607,22.1876,38.4064
12:53:39.616,19.9376,35.6564
12:53:39.625,19.0001,32.4064
12:53:39.635,17.0313,28.5001
12:53:39.645,15.5313,25.6563
12:53:39.655,13.8751,22.2501
12:53:39.665,11.4375,19.7813
12:53:39.675,10.625,15.6563
12:53:39.684,8.8125,13.1563
12:53:39.696,7.3125,9.4375
12:53:39.705,5.5313,7.1563
12:53:39.715,4.4063,3.7813
12:53:39.725,2.6875,1.0313
12:53:39.735,1.25,-2.1563
12:53:39.745,-0.125,-5.8438
12:53:39.755,-1.625,-8.4375
12:53:39.765,-3.5938,-11.2188
12:53:39.775,-4.5625,-14.4376
12:53:39.786,-5.9688,-17.0001
12:53:39.795,-7.25,-19.2501
12:53:39.804,-8.5625,-22.0938
12:53:39.815,-10.2813,-24.4688
12:53:39.825,-11.4063,-26.3751
12:53:39.835,-11.9375,-29.0314
12:53:39.845,-13.7188,-31.3439
12:53:39.855,-15.0001,-33.9689
12:53:39.865,-16.3751,-35.2501
12:53:39.875,-17.1563,-37.1876
12:53:39.885,-18.0001,-40.4689
12:53:39.895,-19.8438,-43.5314
12:53:39.906,-20.1876,-45.2502
12:53:39.915,-22.0938,-47.8439
12:53:39.925,-23.0626,-49.3439
12:53:39.935,-24.3751,-52.5314
12:53:39.945,-25.3438,-54.0627
12:53:39.955,-26.4689,-56.1252
12:53:39.967,-27.4064,-57.5002
12:53:39.975,-27.8751,-59.5002
12:53:39.984,-29.1251,-61.5627
12:53:39.995,-30.4064,-63.0627
12:53:40.027,-31.1251,-63.5002
12:53:40.030,-32.2501,-65.9065
12:53:40.031,-32.6251,-67.1565
12:53:40.036,-33.5314,-69.2815
12:53:40.064,-33.6564,-69.1253
12:53:40.067,-35.0314,-70.8753
12:53:40.069,-35.3751,-70.969
12:53:40.079,-36.0001,-72.2503
12:53:40.110,-36.4064,-73.8128
12:53:40.113,-36.2189,-73.5315
12:53:40.114,-37.3751,-75.344
12:53:40.141,-37.3439,-74.6253
12:53:40.142,-37.6251,-76.844
12:53:40.145,-37.4689,-76.8128
12:53:40.150,-38.7814,-75.5315
12:53:40.158,-38.7189,-78.2815
12:53:40.186,-39.5627,-76.8753
12:53:40.187,-39.3751,-78.469
12:53:40.189,-39.5939,-78.5315
12:53:40.196,-40.4377,-79.2503
12:53:40.205,-40.7814,-80.2816
12:53:40.215,-40.6564,-79.6878
12:53:40.225,-41.3127,-80.0003
12:53:40.235,-41.2189,-81.0941
12:53:40.250,-40.8127,-80.8128
12:53:40.255,-41.6877,-80.8753
12:53:40.265,-40.5627,-80.1253
12:53:40.275,-39.5314,-78.5315
12:53:40.284,-35.4689,-74.219
12:53:40.295,-30.8439,-65.7503
12:53:40.305,-22.8751,-53.969
12:53:40.323,-11.3438,-31.9064
12:53:40.331,1.4688,-7.3438
12:53:40.346,13.6876,17.4376
12:53:40.349,20.3126,35.2501
12:53:40.357,26.2188,45.9064
12:53:40.365,31.2501,55.5315
12:53:40.375,33.6876,62.219
12:53:40.385,36.4689,66.8753
12:53:40.395,38.6876,72.1878
12:53:40.405,40.5314,75.5003
12:53:40.415,42.8127,79.3753
12:53:40.425,44.2189,83.5941
12:53:40.435,46.2502,85.6878
12:53:40.445,48.4689,89.0941
12:53:40.455,49.0627,92.5316
12:53:40.465,50.4689,93.9691
12:53:40.476,51.5002,96.7191
12:53:40.485,52.4689,97.6254
12:53:40.495,52.8752,98.8129
12:53:40.505,53.4377,99.5004
12:53:40.515,52.6252,99.5004
12:53:40.525,52.1252,98.2191
12:53:40.535,50.8752,95.5941
12:53:40.545,48.9064,92.4066
12:53:40.555,46.5627,87.9691
12:53:40.565,44.3439,83.6878
12:53:40.585,42.4689,79.8441
12:53:40.588,40.9064,75.6878
12:53:40.603,39.6564,73.0003
12:53:40.606,39.0001,71.5003
12:53:40.626,38.1876,70.094
12:53:40.629,37.4064,69.0315
12:53:40.636,36.7501,67.0315
12:53:40.645,35.0939,66.719
12:53:40.655,34.4064,63.4377
12:53:40.665,32.9064,60.719
12:53:40.675,32.1564,58.469
12:53:40.684,30.1564,55.094
12:53:40.695,28.5939,52.1877
12:53:40.706,26.8439,48.9377
12:53:40.715,25.5001,46.0314
12:53:40.724,24.3751,42.9689
12:53:40.734,22.2188,40.0314
12:53:40.745,20.0001,36.7189
12:53:40.755,18.5938,33.4376
12:53:40.765,17.4063,29.8751
12:53:40.775,15.5938,26.7501
12:53:40.784,14.2188,24.1876
12:53:40.814,12.4375,20.4688
12:53:40.816,10.125,17.4376
12:53:40.820,9,14.0001
12:53:40.828,7.25,11.3125
12:53:40.856,5.6563,7.9063
12:53:40.858,3.5625,4.8125
12:53:40.860,2.5,1.125
12:53:40.866,-0.0625,-1.5938
12:53:40.899,-0.75,-4.375
12:53:40.900,-2.1563,-8.0625
12:53:40.903,-3.1875,-10.5938
12:53:40.909,-4.9375,-13.4688
12:53:40.916,-6.3438,-15.2188
12:53:40.947,-7.2813,-18.7188
12:53:40.950,-8.375,-20.6876
12:53:40.951,-10.0313,-22.8126
12:53:40.955,-11.8438,-25.7813
12:53:40.974,-12.7188,-28.5626
12:53:40.976,-13.3126,-30.4376
12:53:40.986,-14.6876,-33.3126
12:53:41.000,-16.0626,-34.7189
12:53:41.006,-17.2501,-37.6251
12:53:41.015,-18.4376,-39.7189
12:53:41.024,-18.8438,-41.5314
12:53:41.035,-21.1251,-44.6877
12:53:41.045,-21.7501,-46.6564
12:53:41.055,-23.4688,-47.8439
12:53:41.064,-23.7501,-51.0314
12:53:41.076,-24.8751,-52.9377
12:53:41.085,-26.4376,-54.1252
12:53:41.095,-27.4689,-56.594
12:53:41.105,-28.2501,-58.1252
12:53:41.115,-29.6876,-59.2815
12:53:41.125,-30.6251,-61.4377
12:53:41.136,-30.8751,-63.0627
12:53:41.146,-31.7814,-64.844
12:53:41.155,-33.5001,-66.0315
12:53:41.165,-33.7814,-67.9065
12:53:41.175,-34.5001,-68.8128
12:53:41.185,-35.4376,-69.4065
12:53:41.195,-35.8439,-71.719
12:53:41.204,-37.3439,-71.4065
12:53:41.215,-36.8439,-73.4065
12:53:41.225,-37.3126,-73.6565
12:53:41.263,-38.0939,-74.4065
12:53:41.266,-38.3439,-75.4065
12:53:41.267,-38.6876,-75.6253
12:53:41.274,-39.0314,-76.094
12:53:41.280,-38.7501,-77.0003
12:53:41.289,-39.7502,-76.6878
12:53:41.300,-39.6564,-78.2815
12:53:41.310,-40.7189,-77.8128
12:53:41.320,-40.1877,-78.9378
12:53:41.330,-40.9689,-78.4378
12:53:41.340,-41.2502,-79.8128
12:53:41.349,-41.0314,-79.8753
12:53:41.360,-42.0002,-80.9378
12:53:41.375,-41.7502,-80.5316
12:53:41.381,-42.5627,-80.8128
12:53:41.389,-42.2189,-81.2503
12:53:41.399,-42.0939,-80.7816
12:53:41.410,-39.5314,-78.5941
12:53:41.420,-35.8439,-73.3128
12:53:41.430,-29.4376,-64.094
12:53:41.440,-20.6876,-49.6877
12:53:41.450,-8.9063,-26.9064
12:53:41.460,3.8438,-1.3125
12:53:41.470,14.3126,21.4376
12:53:41.481,21.2813,35.9064
12:53:41.490,26.1563,47.1252
12:53:41.501,29.6251,54.6565
12:53:41.532,33.3439,62.0315
12:53:41.533,35.1564,65.844
12:53:41.535,37.7814,70.4065
12:53:41.544,39.1564,74.4378
12:53:41.551,41.2502,77.2503
12:53:41.586,43.7814,81.5628
12:53:41.587,44.5939,84.6253
12:53:41.590,46.5002,86.7191
12:53:41.592,47.2189,90.6879
12:53:41.631,48.9377,91.0316
12:53:41.633,49.3439,94.0629
12:53:41.667,50.3127,94.8129
12:53:41.670,50.4377,96.1254
12:53:41.693,50.8752,95.9379
12:53:41.693,50.0627,95.5941
12:53:41.694,49.5627,93.5316
12:53:41.696,47.5314,91.0629
12:53:41.702,46.1877,87.5941
12:53:41.710,43.6252,82.6566
12:53:41.720,41.5314,78.6878
12:53:41.730,39.7189,74.5315
12:53:41.742,37.6876,71.6878
12:53:41.756,36.2501,69.3128
12:53:41.762,36.2189,66.844
12:53:41.769,34.7814,65.8127
12:53:41.780,34.3751,63.969
12:53:41.789,33.6876,62.8752
12:53:41.800,32.8751,61.1877
12:53:41.810,31.6564,58.7502
12:53:41.820,30.5001,57.094
12:53:41.830,29.0314,53.4065
12:53:41.840,25.3751,46.9064
12:53:41.850,24.1251,42.7814
12:53:41.860,22.3126,39.5939
12:53:41.870,20.8751,36.6564
12:53:41.888,18.7188,32.8751
12:53:41.890,17.4688,30.1251
12:53:41.905,15.5626,26.7501
12:53:41.910,14.3126,23.0626
12:53:41.920,12.2188,20.7501
12:53:41.930,10.75,18.0626
12:53:41.940,9.3125,13.6876
12:53:41.950,7.5313,11
12:53:41.960,6,7.125
12:53:41.971,4.6875,4.4063
12:53:41.980,3.3438,1.25
12:53:41.990,2.25,-1.6875
12:53:42.000,0.75,-4.6563
12:53:42.011,-0.8125,-7.3125
12:53:42.021,-2.5938,-10.0313
12:53:42.029,-4,-13.0625
12:53:42.040,-5.25,-16.1251
12:53:42.050,-7.0313,-19.0626
12:53:42.060,-8.2813,-21.5313
12:53:42.070,-9.7188,-24.5938
12:53:42.096,-10.4063,-27.0314
12:53:42.098,-12.0313,-29.5001
12:53:42.101,-13.7501,-31.5626
12:53:42.111,-14.9376,-33.7814
12:53:42.120,-15.7501,-36.4064
12:53:42.131,-17.5001,-38.1564
12:53:42.141,-18.6563,-40.4064
12:53:42.150,-19.6251,-44.0627
12:53:42.160,-20.8438,-45.1252
12:53:42.170,-21.5938,-47.3439
12:53:42.181,-22.9376,-49.4064
12:53:42.190,-24.0626,-50.0314
12:53:42.225,-24.8751,-54.1252
12:53:42.226,-26.1876,-55.0627
12:53:42.230,-27.2501,-56.6252
12:53:42.231,-28.1876,-59.4065
12:53:42.261,-28.9689,-60.2502
12:53:42.263,-30.0939,-62.3752
12:53:42.265,-31.0626,-63.844
12:53:42.299,-31.6251,-65.0315
12:53:42.301,-32.3751,-66.3753
12:53:42.305,-32.7501,-67.344
12:53:42.308,-33.5001,-68.844
12:53:42.337,-34.0314,-69.1878
12:53:42.340,-34.7189,-70.3128
12:53:42.340,-35.2501,-70.969
12:53:42.348,-35.6876,-72.2815
12:53:42.355,-35.9064,-72.8128
12:53:42.385,-36.5314,-73.469
12:53:42.386,-36.6876,-73.844
12:53:42.389,-36.8751,-75.1878
12:53:42.395,-37.1564,-74.594
12:53:42.410,-37.6564,-75.0315
12:53:42.416,-38.0001,-76.0628
12:53:42.425,-38.4064,-75.9378
12:53:42.434,-38.2814,-77.4378
12:53:42.445,-39.0001,-76.6878
12:53:42.455,-39.0626,-77.5628
12:53:42.465,-39.8127,-78.344
12:53:42.475,-39.9689,-77.9378
12:53:42.484,-40.0939,-79.0003
12:53:42.495,-40.4377,-79.2191
12:53:42.511,-39.8752,-79.0941
12:53:42.515,-40.3439,-78.9378
12:53:42.525,-39.7814,-78.2503
12:53:42.535,-36.5626,-74.6253
12:53:42.545,-32.6564,-69.1878
12:53:42.555,-26.1251,-60.1565
12:53:42.565,-17.2501,-45.9064
12:53:42.575,-5.9375,-22.9688
12:53:42.585,7.375,2.5625
12:53:42.594,16.7188,24.2813
12:53:42.605,24.0313,39.1564
12:53:42.615,28.4689,49.8752
12:53:42.625,32.5626,57.8752
12:53:42.635,34.7501,64.969
12:53:42.645,37.2501,69.3128
12:53:42.655,39.4064,72.7503
12:53:42.665,40.9689,76.8128
12:53:42.675,43.0627,79.6878
12:53:42.685,44.4377,84.1566
12:53:42.695,46.0939,86.3128
12:53:42.705,46.7189,89.1253
12:53:42.715,47.3752,90.0628
12:53:42.725,46.4064,92.2191
12:53:42.735,45.0627,91.5316
12:53:42.745,42.1564,92.2504
12:53:42.755,39.2502,90.1878
12:53:42.766,33.5626,87.8128
12:53:42.775,26.5626,83.2503
12:53:42.786,18.0313,77.969
12:53:42.795,6.6875,70.094
12:53:42.805,-1.875,62.5315
12:53:42.815,-7.25,58.5627
12:53:42.824,-9.4375,54.844
12:53:42.835,-10.6563,53.1565
12:53:42.844,-11.125,51.0002
12:53:42.855,-11.9688,49.6564
12:53:42.865,-12.9688,48.7189
12:53:42.875,-13.4688,48.1252
12:53:42.886,-13.8438,48.0627
12:53:42.895,-14.2501,47.3439
12:53:42.905,-15.4063,45.5002
12:53:42.915,-16.1251,43.5939
12:53:42.945,-15.4688,42.2189
12:53:42.948,-15.0001,41.9064
12:53:42.951,-13.1876,41.1877
12:53:42.954,-13.7501,40.1877
12:53:42.985,-15.1563,36.9064
12:53:42.987,-16.1563,34.0626
12:53:42.990,-16.1251,32.7501
12:53:42.997,-18.0313,29.2814
12:53:43.030,-18.6251,25.9688
12:53:43.032,-20.4688,23.5313
12:53:43.034,-21.1563,19.9688
12:53:43.036,-22.4688,17.4688
12:53:43.068,-23.9376,13.8438
12:53:43.072,-24.7501,11.0313
12:53:43.072,-25.6876,8.4375
12:53:43.107,-26.8439,5.3438
12:53:43.107,-27.5001,2.875
12:53:43.111,-28.8126,0.6563
12:53:43.116,-29.1876,-1.6563
12:53:43.120,-30.2814,-4.2188
12:53:43.125,-31.2501,-5.8438
12:53:43.135,-31.5001,-9.4063
12:53:43.145,-33.1251,-12.1563
12:53:43.155,-33.7814,-14.3126
12:53:43.165,-34.5001,-17.0938
12:53:43.185,-35.9689,-19.3438
12:53:43.187,-37.0939,-21.6876
12:53:43.201,-38.3439,-24.0938
12:53:43.207,-39.6252,-27.2814
12:53:43.215,-41.6252,-28.6564
12:53:43.226,-42.0939,-31.0626
12:53:43.235,-43.2814,-33.7189
12:53:43.245,-44.3439,-35.1564
12:53:43.261,-45.4064,-37.4376
12:53:43.265,-46.0939,-39.8127
12:53:43.275,-48.0627,-41.2502
12:53:43.285,-49.0314,-45.0002
12:53:43.295,-51.0939,-48.1877
12:53:43.305,-52.844,-51.8127
12:53:43.315,-55.8127,-55.1877
12:53:43.326,-57.3127,-58.9065
12:53:43.335,-59.0002,-61.6565
12:53:43.345,-59.8127,-64.0627
12:53:43.376,-60.0627,-67.8128
12:53:43.378,-60.6565,-68.2815
12:53:43.380,-59.4065,-69.6878
12:53:43.388,-58.7502,-69.6253
12:53:43.397,-57.5002,-70.844
12:53:43.405,-56.7502,-70.6253
12:53:43.415,-57.0627,-69.2503
12:53:43.425,-55.0627,-70.1565
12:53:43.435,-53.8127,-67.4378
12:53:43.444,-51.7502,-67.0003
12:53:43.455,-50.1252,-66.5628
12:53:43.465,-51.4377,-66.7503
12:53:43.475,-52.8439,-68.6565
12:53:43.485,-54.1565,-69.6253
12:53:43.495,-56.8127,-72.9378
12:53:43.505,-56.9065,-73.594
12:53:43.515,-58.2815,-73.6565
12:53:43.524,-58.9377,-75.5003
12:53:43.535,-59.2502,-75.0003
12:53:43.545,-59.4377,-76.9065
12:53:43.555,-58.7815,-77.7503
12:53:43.565,-59.5627,-77.1878
12:53:43.575,-59.219,-77.9065
12:53:43.585,-59.2502,-77.9065
12:53:43.595,-59.0627,-78.5315
12:53:43.605,-56.8127,-76.2815
12:53:43.615,-53.3127,-72.0315
12:53:43.625,-46.5627,-62.3752
12:53:43.640,-37.3751,-45.4689
12:53:43.645,-25.1251,-25.1563
12:53:43.655,-13.9063,-1.875
12:53:43.665,-4.1563,16.1563
12:53:43.694,3,29.7501
12:53:43.696,9.6875,41.3127
12:53:43.697,13.5626,48.9377
12:53:43.705,17.9688,55.2502
12:53:43.730,20.5626,62.0002
12:53:43.733,23.7813,65.094
12:53:43.735,27.2814,69.7503
12:53:43.764,29.0001,73.2815
12:53:43.767,32.1876,76.0003
12:53:43.768,32.8751,79.6566
12:53:43.776,35.0626,82.0941
12:53:43.785,37.5001,85.3753
12:53:43.817,39.1877,87.7503
12:53:43.820,41.9064,90.7504
12:53:43.822,42.9064,93.4691
12:53:43.825,45.0939,94.3129
12:53:43.859,45.5314,96.8129
12:53:43.860,46.9064,97.1566
12:53:43.863,47.3439,96.5629
12:53:43.867,46.0002,94.2504
12:53:43.879,44.8752,91.8441
12:53:43.885,43.4064,88.1566
12:53:43.895,41.3127,83.3128
12:53:43.905,38.4689,79.1878
12:53:43.915,36.8439,75.4378
12:53:43.926,36.0939,71.3753
12:53:43.936,33.6564,69.469
12:53:43.946,33.7189,65.6878
12:53:43.955,31.4689,64.5315
12:53:43.965,30.1564,62.2502
12:53:43.976,29.3439,58.8752
12:53:43.985,28.3439,56.969
12:53:43.995,26.5001,54.344
12:53:44.006,24.5626,51.9064
12:53:44.015,22.8126,49.0314
12:53:44.025,21.1876,44.9377
12:53:44.035,18.4688,42.9377
12:53:44.045,17.0626,37.9689
12:53:44.055,14.1876,34.5314
12:53:44.065,11.9375,30.8126
12:53:44.075,10.375,26.1876
12:53:44.085,8.4063,23.0001
12:53:44.095,6.1875,18.8126
12:53:44.104,4.3438,15.5626
12:53:44.115,1.5938,11.6563
12:53:44.125,-0.2813,8.8438
12:53:44.136,-1.7188,5.3438
12:53:44.145,-3.4063,1.25
12:53:44.154,-5.8438,-0.8438
12:53:44.164,-7.375,-5.0938
12:53:44.175,-9.1875,-8.1875
12:53:44.185,-10.8438,-10.9063
12:53:44.195,-12.5313,-13.5001
12:53:44.205,-13.7813,-16.6876
12:53:44.223,-15.9063,-19.6563
12:53:44.230,-16.9063,-22.3438
12:53:44.245,-18.2813,-23.6251
12:53:44.248,-19.2501,-26.9376
12:53:44.255,-20.2813,-28.5001
12:53:44.264,-21.6251,-30.7501
12:53:44.275,-22.5001,-32.6876
12:53:44.285,-23.4376,-33.9689
12:53:44.295,-24.6876,-36.3439
12:53:44.305,-25.8126,-37.4376
12:53:44.315,-26.9689,-40.1877
12:53:44.325,-27.7501,-40.7814
12:53:44.335,-28.9376,-41.6877
12:53:44.345,-29.0314,-43.7814
12:53:44.354,-30.5001,-43.5314
12:53:44.365,-31.4689,-45.9064
12:53:44.375,-31.0314,-47.3127
12:53:44.412,-32.5626,-47.5939
12:53:44.414,-32.2501,-48.4064
12:53:44.417,-33.7189,-49.1252
12:53:44.419,-33.3751,-49.8752
12:53:44.426,-34.8439,-50.7814
12:53:44.456,-34.6251,-51.8752
12:53:44.459,-35.7501,-52.7815
12:53:44.461,-36.8126,-54.6565
12:53:44.468,-37.3126,-55.0315
12:53:44.498,-38.5939,-56.4065
12:53:44.501,-38.6564,-58.344
12:53:44.503,-39.7189,-59.3752
12:53:44.508,-40.2502,-62.0315
12:53:44.514,-41.7502,-62.4377
12:53:44.545,-42.1564,-65.844
12:53:44.547,-44.0939,-66.3128
12:53:44.550,-44.5627,-69.844
12:53:44.557,-46.0002,-69.7503
12:53:44.572,-47.2814,-73.5628
12:53:44.575,-49.1564,-75.1253
12:53:44.585,-50.0002,-77.5315
12:53:44.595,-51.0939,-80.3441
12:53:44.605,-52.2814,-81.6878
12:53:44.616,-53.6877,-84.7191
12:53:44.624,-54.5627,-86.1566
12:53:44.655,-56.5315,-88.3441
12:53:44.658,-57.0002,-90.6254
12:53:44.661,-58.4377,-93.0316
12:53:44.667,-59.719,-94.3754
12:53:44.675,-59.7815,-95.8754
12:53:44.685,-60.4377,-95.2816
12:53:44.695,-59.5002,-96.9066
12:53:44.705,-57.344,-93.8129
12:53:44.715,-52.3439,-88.7191
12:53:44.725,-45.0939,-77.8753
12:53:44.736,-34.2814,-62.9377
12:53:44.746,-21.2501,-40.6564
12:53:44.755,-8.4375,-16.7188
12:53:44.765,1.2188,1.625
12:53:44.775,8.7188,16.0001
12:53:44.786,14.4063,28.0626
12:53:44.794,18.9376,35.2189
12:53:44.804,23.6876,43.7814
12:53:44.815,26.8751,48.4689
12:53:44.824,29.6251,54.1565
12:53:44.836,32.3751,57.9065
12:53:44.846,34.5001,62.844
12:53:44.855,36.6251,65.6252
12:53:44.864,39.2189,70.2815
12:53:44.875,40.2189,72.219
12:53:44.885,42.0939,75.8753
12:53:44.895,42.3127,76.8128
12:53:44.905,44.8127,79.9378
12:53:44.915,44.6252,81.9691
12:53:44.925,44.9377,82.6566
12:53:44.935,45.0314,83.5628
12:53:44.950,44.3439,81.7503
12:53:44.956,42.4064,80.9691
12:53:44.965,41.0002,76.5315
12:53:44.975,37.6251,73.1253
12:53:44.984,35.5314,68.7815
12:53:44.995,33.1564,64.844
12:53:45.004,31.6251,61.344
12:53:45.015,29.9689,57.8127
12:53:45.026,28.6876,56.0627
12:53:45.036,27.8751,54.5002
12:53:45.045,27.3751,53.469
12:53:45.056,26.7189,51.5314
12:53:45.064,25.9063,50.2502
12:53:45.077,24.5001,48.4064
12:53:45.085,23.4688,46.6877
12:53:45.094,22.9063,44.7502
12:53:45.105,21.0001,42.6877
12:53:45.115,19.6251,40.0627
12:53:45.125,17.7501,37.1876
12:53:45.136,16.3126,35.5314
12:53:45.145,14.6563,31.4376
12:53:45.178,13.4063,29.9376
12:53:45.180,11.6563,26.7501
12:53:45.183,10.1875,25.2501
12:53:45.185,9.75,21.6563
12:53:45.219,8.0313,20.0313
12:53:45.220,6.875,17.4376
12:53:45.222,5.9375,13.8126
12:53:45.225,4.2813,12
12:53:45.254,2.6563,9.1563
12:53:45.256,1.3125,7.3125
12:53:45.258,0.1563,4.9375
12:53:45.288,-0.9375,2.7813
12:53:45.290,-2.4063,-0.375
12:53:45.295,-2.5938,-1.7188
12:53:45.332,-4.25,-4.3125
12:53:45.333,-5.4688,-6.125
12:53:45.336,-6.5,-8.125
12:53:45.348,-7.75,-10.1875
12:53:45.348,-8.625,-11.0313
12:53:45.351,-9.6875,-13.5626
12:53:45.361,-10.8125,-14.4063
12:53:45.371,-11.5938,-17.4688
12:53:45.381,-13.0313,-19.3438
12:53:45.390,-13.5313,-19.9063
12:53:45.401,-15.1563,-22.5313
12:53:45.409,-15.4063,-24.2501
12:53:45.419,-16.5001,-26.6876
12:53:45.432,-19.1563,-30.0939
12:53:45.441,-20.3751,-32.2814
12:53:45.450,-21.9688,-34.4689
12:53:45.461,-23.8438,-38.6876
12:53:45.471,-25.3751,-40.6877
12:53:45.480,-27.8751,-44.2189
12:53:45.490,-28.7814,-46.0939
12:53:45.500,-31.0939,-50.0939
12:53:45.510,-32.1876,-51.9689
12:53:45.525,-33.9064,-55.4065
12:53:45.541,-35.2501,-58.0002
12:53:45.544,-37.2814,-60.0315
12:53:45.550,-38.5314,-63.8752
12:53:45.559,-40.3127,-65.9378
12:53:45.570,-41.0314,-68.5628
12:53:45.579,-43.2502,-70.719
12:53:45.590,-43.2814,-72.7815
12:53:45.600,-44.5939,-74.5628
12:53:45.610,-45.3127,-76.1565
12:53:45.620,-45.1252,-78.2503
12:53:45.629,-46.5939,-78.5003
12:53:45.640,-46.5627,-80.2191
12:53:45.649,-47.3752,-81.4378
12:53:45.659,-48.4064,-84.0316
12:53:45.669,-49.3439,-85.3128
12:53:45.680,-50.2502,-87.5941
12:53:45.690,-51.4377,-87.4378
12:53:45.700,-51.9689,-89.4691
12:53:45.710,-53.1877,-91.3441
12:53:45.720,-51.9064,-90.5316
12:53:45.729,-50.0002,-87.5628
12:53:45.740,-44.5314,-80.4691
12:53:45.749,-36.0626,-67.6878
12:53:45.760,-24.8438,-47.2502
12:53:45.776,-11.625,-23.5938
12:53:45.795,-2.3125,-1.2813
12:53:45.797,5.1563,14.4063
12:53:45.800,12.0313,26.2501
12:53:45.810,15.6563,36.0001
12:53:45.820,20.0938,42.8752
12:53:45.830,22.5626,49.3439
12:53:45.840,25.2188,53.844
12:53:45.850,27.8126,58.4065
12:53:45.861,29.9064,63.5002
12:53:45.870,32.4376,66.5628
12:53:45.880,35.3126,70.594
12:53:45.890,36.1876,74.8753
12:53:45.900,38.5314,78.0315
12:53:45.910,40.7189,82.4066
12:53:45.937,43.2189,84.8753
12:53:45.938,44.5939,88.6566
12:53:45.945,45.6252,90.9066
12:53:45.955,47.5314,93.5004
12:53:45.987,48.1564,94.3754
12:53:45.989,48.5627,94.9066
12:53:45.989,47.2814,93.4379
12:53:45.993,44.7189,91.2816
12:53:46.023,44.1564,88.6253
12:53:46.025,41.7814,85.3128
12:53:46.028,39.9377,83.2191
12:53:46.035,38.7501,79.6566
12:53:46.048,37.1876,79.1878
12:53:46.052,37.5939,77.0628
12:53:46.078,36.6876,77.6565
12:53:46.081,37.5001,76.219
12:53:46.084,36.3439,76.5003
12:53:46.091,36.2501,75.3753
12:53:46.101,35.7501,74.094
12:53:46.115,34.9064,72.5315
12:53:46.125,33.5314,70.8128
12:53:46.136,32.5001,69.5003
12:53:46.145,31.8439,67.7503
12:53:46.154,30.7189,66.0628
12:53:46.165,30.2501,64.0315
12:53:46.175,28.5626,61.4377
12:53:46.185,26.5939,59.1877
12:53:46.196,25.1251,56.0627
12:53:46.205,23.2501,52.6877
12:53:46.215,22.0626,50.7814
12:53:46.225,20.6251,47.0314
12:53:46.235,18.3751,43.7502
12:53:46.245,16.8751,40.2814
12:53:46.256,15.0938,37.0314
12:53:46.265,13.5626,34.1251
12:53:46.275,11.625,29.2501
12:53:46.284,8.8125,24.8126
12:53:46.295,6.8438,21.5626
12:53:46.305,4.7188,17.6876
12:53:46.315,3.3438,13.2501
12:53:46.325,0.125,9.125
12:53:46.335,-2.0625,7.0938
12:53:46.345,-2.8125,2.125
12:53:46.355,-4.1563,-1.4688
12:53:46.364,-6.8125,-5
12:53:46.375,-8.3125,-7.0938
12:53:46.385,-9.2813,-10.7188
12:53:46.395,-11,-14.6563
12:53:46.405,-12.0313,-16.7813
12:53:46.415,-13.7813,-20.5313
12:53:46.426,-15.5313,-24.1251
12:53:46.435,-17.3751,-25.9376
12:53:46.445,-17.4376,-30.2189
12:53:46.456,-19.2813,-33.0314
12:53:46.465,-20.2813,-34.7501
12:53:46.479,-20.8438,-38.2501
12:53:46.485,-22.8751,-40.9377
12:53:46.495,-24.4063,-44.7814
12:53:46.505,-25.7188,-46.4377
12:53:46.515,-27.8751,-50.4064
12:53:46.525,-29.4064,-53.969
12:53:46.535,-32.3751,-55.9065
12:53:46.547,-34.5001,-60.094
12:53:46.555,-36.2189,-63.8127
12:53:46.565,-37.5939,-66.7503
12:53:46.575,-41.4689,-70.594
12:53:46.585,-43.4689,-73.5315
12:53:46.622,-44.7189,-76.1878
12:53:46.624,-45.7502,-78.1566
12:53:46.626,-48.8439,-80.2191
12:53:46.628,-49.8439,-83.3441
12:53:46.637,-51.8127,-84.6566
12:53:46.675,-53.2502,-87.8753
12:53:46.676,-53.9377,-89.0003
12:53:46.680,-56.1252,-89.9066
12:53:46.704,-57.2502,-92.5316
12:53:46.704,-57.9377,-94.0629
12:53:46.705,-59.8127,-95.4379
12:53:46.708,-60.1565,-96.5004
12:53:46.739,-60.6252,-96.4066
12:53:46.741,-61.469,-98.6566
12:53:46.742,-61.719,-98.8441
12:53:46.749,-63.0627,-98.9066
12:53:46.759,-63.8752,-100.7504
12:53:46.772,-63.719,-100.7504
12:53:46.776,-64.844,-101.6566
12:53:46.785,-64.1252,-101.9379
12:53:46.796,-64.6877,-101.6254
12:53:46.805,-63.8752,-101.4691
12:53:46.822,-61.3127,-98.4066
12:53:46.827,-57.5002,-92.7191
12:53:46.843,-48.9689,-79.2816
12:53:46.844,-35.9064,-58.3752
12:53:46.855,-20.4376,-30.4689
12:53:46.866,-7.5938,-2.5313
12:53:46.875,2.7813,16.0313
12:53:46.885,11.4063,31.5001
12:53:46.895,17.0938,43.3127
12:53:46.905,23.0001,52.6564
12:53:46.914,26.3439,60.6877
12:53:46.925,29.4689,65.469
12:53:46.935,32.8126,72.3128
12:53:46.945,35.9689,76.7815
12:53:46.955,39.5002,82.7503
12:53:46.966,42.2502,89.1878
12:53:46.975,44.2502,93.0004
12:53:46.989,47.0627,99.0629
12:53:46.995,49.7189,102.9691
12:53:47.005,52.8752,107.1567
12:53:47.015,54.2815,111.3754
12:53:47.025,55.4065,113.7817
12:53:47.035,57.0002,116.4067
12:53:47.045,57.6565,119.2192
12:53:47.055,58.6877,119.6255
12:53:47.074,58.6877,119.6567
12:53:47.075,57.5315,118.938
12:53:47.091,55.9377,116.5317
12:53:47.095,54.2502,112.4692
12:53:47.105,51.2189,108.4379
12:53:47.115,49.3127,105.8442
12:53:47.125,47.9377,101.0941
12:53:47.135,46.3752,99.0316
12:53:47.146,44.5627,95.6566
12:53:47.155,43.3752,94.7191
12:53:47.165,42.1564,92.1254
12:53:47.175,41.6252,90.5628
12:53:47.185,40.2189,87.8753
12:53:47.214,38.7189,85.4378
12:53:47.216,37.2189,82.4691
12:53:47.219,35.4064,78.7816
12:53:47.225,34.1251,75.7503
12:53:47.237,31.6564,71.5315
12:53:47.245,28.1876,67.719
12:53:47.255,26.6876,63.6877
12:53:47.265,25.0001,58.6252
12:53:47.275,23.0626,55.219
12:53:47.285,21.3126,51.3127
12:53:47.295,19.7188,47.4377
12:53:47.305,17.6251,43.3752
12:53:47.315,17.0001,40.2189
12:53:47.325,14.2188,35.9689
12:53:47.360,13.4063,32.3751
12:53:47.362,11.2188,28.9689
12:53:47.363,9.6875,26.1876
12:53:47.367,9,21.9063
12:53:47.405,7.1563,17.7813
12:53:47.409,6,14.5313
12:53:47.409,3.8438,10.875
12:53:47.412,1.3125,7.7188
12:53:47.415,0.25,2.625
12:53:47.425,-2.3125,0
12:53:47.452,-3.4688,-4.2188
12:53:47.454,-6.375,-8.1875
12:53:47.456,-8.7188,-11.9375
12:53:47.485,-10.0313,-14.8438
12:53:47.489,-11.625,-18.0626
12:53:47.490,-14.4376,-21.6563
12:53:47.498,-16.1876,-24.2501
12:53:47.512,-18.0001,-28.5626
12:53:47.515,-20.2813,-30.8439
12:53:47.525,-21.5626,-33.5939
12:53:47.535,-23.1876,-36.3126
12:53:47.544,-25.8438,-39.8127
12:53:47.555,-27.4689,-42.4377
12:53:47.565,-28.3439,-46.0314
12:53:47.575,-30.5001,-48.0939
12:53:47.585,-32.4689,-52.1877
12:53:47.595,-34.1876,-54.3752
12:53:47.610,-35.9376,-58.219
12:53:47.615,-38.0314,-60.1252
12:53:47.625,-40.1564,-62.719
12:53:47.635,-41.5002,-66.5628
12:53:47.645,-43.7502,-68.0628
12:53:47.655,-45.0002,-70.6565
12:53:47.665,-46.3752,-73.6565
12:53:47.675,-48.1564,-74.7815
12:53:47.685,-49.5314,-76.844
12:53:47.695,-50.6252,-79.4378
12:53:47.705,-50.5939,-80.7816
12:53:47.715,-51.8127,-81.3128
12:53:47.725,-53.0627,-83.2816
12:53:47.735,-52.969,-84.3441
12:53:47.745,-54.9065,-84.1878
12:53:47.755,-55.5315,-86.2191
12:53:47.765,-54.844,-86.9378
12:53:47.775,-56.9065,-87.5316
12:53:47.785,-56.969,-89.3753
12:53:47.794,-57.219,-89.8128
12:53:47.805,-58.5627,-90.3753
12:53:47.815,-58.0627,-91.7191
12:53:47.825,-58.5315,-92.2191
12:53:47.835,-59.3127,-92.6879
12:53:47.845,-59.7815,-94.0004
12:53:47.855,-60.719,-94.6566
12:53:47.865,-60.6877,-96.4379
12:53:47.875,-61.9377,-96.5629
12:53:47.885,-61.0002,-96.8129
12:53:47.895,-58.719,-94.4066
12:53:47.905,-55.0002,-87.6566
12:53:47.916,-46.1877,-76.594
12:53:47.925,-33.9064,-55.6252
12:53:47.936,-20.0001,-28.9064
12:53:47.945,-6.875,-4.1875
12:53:47.955,2.1875,15.7188
12:53:47.966,10.5625,30.5001
12:53:47.975,16.6251,42.8752
12:53:47.985,21.4688,51.5627
12:53:47.995,25.6251,58.5315
12:53:48.007,29.2501,65.5003
12:53:48.015,31.6564,70.7815
12:53:48.025,35.0939,75.469
12:53:48.035,37.7501,80.7191
12:53:48.045,40.6877,85.5003
12:53:48.055,43.6877,89.7503
12:53:48.065,45.4689,94.1254
12:53:48.075,48.1877,96.8441
12:53:48.085,48.9377,101.0316
12:53:48.095,50.2502,103.4066
12:53:48.105,51.6252,105.5317
12:53:48.137,53.094,107.2817
12:53:48.240,53.3752,108.6254
12:53:48.242,53.094,108.6879
12:53:48.244,52.5627,108.7192
12:53:48.246,50.6252,107.0004
12:53:48.273,48.9377,104.3754
12:53:48.275,46.3127,98.5941
12:53:48.275,43.9689,94.5316
12:53:48.275,41.0627,89.3441
12:53:48.277,38.9689,85.6253
12:53:48.285,37.3439,80.6566
12:53:48.291,35.8439,79.5941
12:53:48.306,34.9689,76.2503
12:53:48.313,34.0001,75.594
12:53:48.321,33.2814,73.5628
12:53:48.330,32.1251,72.094
12:53:48.340,31.1876,69.2815
12:53:48.350,29.5314,65.7503
12:53:48.369,28.0939,62.844
12:53:48.372,26.9689,60.1252
12:53:48.388,24.7501,56.6565
12:53:48.401,22.6563,53.4377
12:53:48.404,22.3126,49.5314
12:53:48.413,20.2501,46.4689
12:53:48.420,11.7188,26.6876
12:53:48.430,10.5,23.0313
12:53:48.440,8.1563,19.7188
12:53:48.450,6,15.9688
12:53:48.460,3.9688,11.8438
12:53:48.470,1.9375,8.125
12:53:48.495,0.2188,4.6563
12:53:48.497,-1.5938,0.8125
12:53:48.504,-3.125,-1.9688
12:53:48.512,-4.7188,-5.375
12:53:48.520,-6.7813,-8.9375
12:53:48.530,-9.2813,-12.5313
12:53:48.540,-10.6875,-15.7813
12:53:48.550,-12.0625,-19.4376
12:53:48.559,-13.9688,-21.6563
12:53:48.570,-15.7188,-24.5313
12:53:48.580,-16.7813,-28.1876
12:53:48.590,-18.9376,-30.4689
12:53:48.600,-19.9688,-32.8126
12:53:48.611,-21.7501,-35.6251
12:53:48.620,-22.6876,-37.6876
12:53:48.631,-23.5313,-39.9064
12:53:48.640,-24.8438,-41.0939
12:53:48.650,-26.3126,-43.2502
12:53:48.660,-26.8439,-45.0314
12:53:48.670,-28.6876,-46.2502
12:53:48.680,-29.5001,-47.9377
12:53:48.690,-29.7501,-49.2502
12:53:48.700,-31.6564,-50.3752
12:53:48.710,-33.0001,-50.8127
12:53:48.720,-34.5939,-53.4377
12:53:48.730,-35.8751,-55.969
12:53:48.744,-37.3126,-56.6877
12:53:48.750,-38.9689,-58.4065
12:53:48.760,-40.1252,-60.0315
12:53:48.772,-40.8439,-61.594
12:53:48.811,-42.0939,-62.3127
12:53:48.813,-41.5002,-63.1565
12:53:48.817,-42.3127,-64.5627
12:53:48.818,-42.9689,-64.7502
12:53:48.850,-43.1252,-66.3128
12:53:48.851,-43.4689,-66.5315
12:53:48.853,-44.3127,-68.2815
12:53:48.857,-45.6564,-68.2503
12:53:48.887,-46.4689,-70.1878
12:53:48.888,-46.5939,-70.7503
12:53:48.890,-47.0627,-71.844
12:53:48.899,-48.2814,-73.0628
12:53:48.906,-49.1252,-75.0315
12:53:48.938,-49.6877,-75.344
12:53:48.939,-50.2814,-77.969
12:53:48.941,-50.6252,-78.7815
12:53:48.946,-51.8127,-81.1253
12:53:48.978,-51.1877,-79.6878
12:53:48.980,-47.3127,-75.469
12:53:48.982,-39.4377,-64.6565
12:53:48.986,-4.125,-43.0627
12:53:48.997,18.7188,2.375
12:53:49.004,30.5939,24.9376
12:53:49.014,49.4064,47.5627
12:53:49.025,63.719,67.719
12:53:49.035,66.5628,75.7815
12:53:49.045,68.6253,83.4691
12:53:49.055,73.094,88.6253
12:53:49.065,77.6253,95.4379
12:53:49.075,83.8128,100.0629
12:53:49.115,87.7816,105.4067
12:53:49.119,92.6566,110.5629
12:53:49.120,96.4691,114.6254
12:53:49.126,101.1879,119.7817
12:53:49.131,105.5316,123.7505
12:53:49.143,109.0629,129.5317
12:53:49.151,111.3442,131.0943
12:53:49.159,113.7817,134.313
12:53:49.169,114.3442,136.4693
12:53:49.180,115.2192,137.7818
12:53:49.190,114.8129,137.5943
12:53:49.201,113.5942,137.7193
12:53:49.210,112.9067,136.3443
12:53:49.220,111.5317,134.4068
12:53:49.230,110.3129,132.0943
12:53:49.240,107.2192,127.063
12:53:49.250,104.1254,121.4067
12:53:49.259,102.0941,115.8442
12:53:49.270,99.2816,112.3129
12:53:49.279,97.2816,109.4379
12:53:49.289,95.3754,105.4379
12:53:49.300,94.6566,102.6566
12:53:49.310,92.9066,100.1879
12:53:49.320,92.4691,98.2191
12:53:49.331,90.7816,96.1566
12:53:49.339,89.2191,93.7191
12:53:49.357,87.4378,89.2191
12:53:49.365,85.4691,86.3753
12:53:49.375,83.2816,82.7816
12:53:49.385,81.3753,78.8753
12:53:49.395,79.0941,74.7503
12:53:49.405,76.8128,70.1253
12:53:49.416,74.4378,66.6878
12:53:49.425,71.8128,61.719
12:53:49.435,68.8128,57.2815
12:53:49.445,66.2815,52.719
12:53:49.455,63.0315,49.0939
12:53:49.465,60.9065,45.3439
12:53:49.480,58.5627,41.0939
12:53:49.492,54.8127,38.0939
12:53:49.496,53.0315,33.7189
12:53:49.527,50.3752,29.8439
12:53:49.562,47.5627,25.2813
12:53:49.564,45.1877,21.1563
12:53:49.565,42.0314,17.3126
12:53:49.571,39.3752,13.1875
12:53:49.574,37.2814,9.1875
12:53:49.574,34.0939,5.8438
12:53:49.580,32.3751,1.4375
12:53:49.623,29.1564,-1.2188
12:53:49.623,27.4689,-5.9688
12:53:49.628,24.6563,-8.6875
12:53:49.628,22.2813,-11.5313
12:53:49.633,20.3751,-15.4376
12:53:49.664,18.7813,-17.5313
12:53:49.666,17.0001,-21.1563
12:53:49.669,15.0313,-23.1563
12:53:49.684,14.0626,-25.6251
12:53:49.684,12.3125,-28.5626
12:53:49.700,9.8438,-31.2501
12:53:49.702,8.1875,-34.1251
12:53:49.710,6.3438,-36.3439
12:53:49.733,4.1563,-39.1251
12:53:49.734,3.0938,-41.8127
12:53:49.745,0.3125,-45.0002
12:53:49.749,-1.5625,-47.4689
12:53:49.775,-2.6875,-49.6252
12:53:49.777,-3.9688,-52.2502
12:53:49.781,-5.6875,-53.1252
12:53:49.790,-7.1563,-56.1565
12:53:49.800,-7.5938,-57.719
12:53:49.809,-9.3438,-57.7815
12:53:49.820,-10.6563,-60.6565
12:53:49.831,-12.125,-62.969
12:53:49.840,-13.2813,-64.2815
12:53:49.850,-15.1563,-65.6565
12:53:49.860,-16.0313,-66.844
12:53:49.871,-17.1563,-68.0628
12:53:49.880,-17.7501,-70.0315
12:53:49.890,-18.9063,-70.3753
12:53:49.899,-19.2188,-71.9065
12:53:49.910,-20.4376,-72.3128
12:53:49.920,-21.0626,-73.1253
12:53:49.930,-22.1563,-74.0315
12:53:49.940,-23.0001,-75.3128
12:53:49.950,-23.6876,-75.844
12:53:49.960,-24.9063,-76.5628
12:53:49.970,-24.6251,-77.0315
12:53:49.980,-25.3126,-77.719
12:53:49.990,-26.4689,-79.1253
12:53:50.000,-26.1563,-78.5628
12:53:50.010,-27.1876,-78.3753
12:53:50.020,-26.5626,-78.8441
12:53:50.030,-27.1251,-77.6253
12:53:50.040,-25.5938,-76.8128
12:53:50.050,-21.7501,-70.9378
12:53:50.060,-16.8438,-62.5315
12:53:50.069,-8.4688,-48.2502
12:53:50.080,3.7813,-25.4688
12:53:50.090,15.4063,2.4688
12:53:50.100,25.0938,23.8126
12:53:50.110,32.0314,38.2189
12:53:50.120,36.0001,50.0002
12:53:50.130,39.8752,57.8752
12:53:50.141,43.1564,64.4065
12:53:50.150,44.1252,70.3753
12:53:50.160,46.4064,73.6565
12:53:50.169,48.4064,77.9065
12:53:50.179,49.3752,81.3128
12:53:50.190,50.8439,84.1566
12:53:50.200,51.7502,86.8753
12:53:50.210,53.5002,89.1253
12:53:50.220,53.7502,91.8441
12:53:50.230,54.8127,93.7504
12:53:50.241,55.344,95.5004
12:53:50.272,55.6252,96.2504
12:53:50.273,55.594,97.0629
12:53:50.275,55.5002,97.5004
12:53:50.281,54.7502,97.1566
12:53:50.311,54.3127,95.3441
12:53:50.314,52.1252,92.7504
12:53:50.317,49.2814,88.6878
12:53:50.321,47.3752,83.4066
12:53:50.331,44.6564,78.8128
12:53:50.359,42.2814,74.0003
12:53:50.362,40.0002,70.2815
12:53:50.364,39.0001,67.7503
12:53:50.373,37.3439,65.4065
12:53:50.408,37.2501,63.4065
12:53:50.410,35.5626,62.1877
12:53:50.412,35.4689,59.6252
12:53:50.415,33.8751,59.1877
12:53:50.422,32.4064,56.0627
12:53:50.431,31.3439,52.5314
12:53:50.440,30.0626,50.0939
12:53:50.450,28.5314,47.0002
12:53:50.460,26.5626,43.6252
12:53:50.470,25.1251,40.6252
12:53:50.480,23.5626,36.7501
12:53:50.490,21.2188,33.8439
12:53:50.500,19.9376,29.2189
12:53:50.509,17.7501,26.0001
12:53:50.521,16.4063,22.7501
12:53:50.529,14.7501,18.7813
12:53:50.539,12.7188,15.5626
12:53:50.549,11.7188,12.2188
12:53:50.560,9.4688,8.8125
12:53:50.571,7.875,6.25
12:53:50.580,6.5,2.8125
12:53:50.590,4.9688,-0.125
12:53:50.600,4.2813,-4.1875
12:53:50.610,2.0313,-6.5313
12:53:50.621,1,-10.7813
12:53:50.630,-1.0938,-13.1563
12:53:50.642,-2.3438,-17.2813
12:53:50.650,-4.6875,-19.5938
12:53:50.660,-5.3125,-23.2188
12:53:50.670,-7.5,-25.0626
12:53:50.680,-7.8438,-29.1251
12:53:50.690,-10.3438,-31.3126
12:53:50.700,-10.4688,-34.3751
12:53:50.709,-12.2188,-36.9689
12:53:50.721,-13.4688,-39.0314
12:53:50.730,-14.9063,-42.2189
12:53:50.740,-15.7813,-43.9064
12:53:50.750,-17.0626,-46.5627
12:53:50.760,-17.8126,-48.9689
12:53:50.770,-19.4688,-50.0314
12:53:50.780,-20.4063,-52.844
12:53:50.790,-21.3751,-54.6877
12:53:50.808,-22.8438,-56.9377
12:53:50.813,-23.8751,-59.719
12:53:50.822,-24.5938,-59.9065
12:53:50.830,-25.8438,-61.6252
12:53:50.851,-27.1876,-64.1252
12:53:50.853,-27.4376,-65.9065
12:53:50.863,-28.2189,-67.0628
12:53:50.870,-29.9064,-69.219
12:53:50.880,-29.5939,-70.2503
12:53:50.890,-30.8126,-70.594
12:53:50.900,-31.4064,-72.219
12:53:50.910,-32.1564,-73.1565
12:53:50.920,-32.3751,-73.8753
12:53:50.931,-33.3439,-75.469
12:53:50.940,-33.1251,-76.1565
12:53:50.950,-34.4376,-75.4065
12:53:50.960,-35.0001,-77.2815
12:53:50.970,-34.9689,-77.6565
12:53:50.980,-35.7501,-78.219
12:53:50.992,-35.8126,-79.4066
12:53:51.000,-36.0626,-78.5316
12:53:51.016,-36.4689,-80.1566
12:53:51.056,-36.4376,-79.6566
12:53:51.056,-37.0001,-80.3128
12:53:51.089,-37.3751,-80.2816
12:53:51.125,-37.2814,-80.1566
12:53:51.125,-38.1564,-81.2816
12:53:51.125,-37.9689,-81.5003
12:53:51.127,-38.4376,-81.0941
12:53:51.131,-39.1251,-82.5628
12:53:51.134,-38.4064,-81.3441
12:53:51.135,-39.0939,-81.2816
12:53:51.149,-38.9689,-82.2503
12:53:51.155,-38.0314,-81.3128
12:53:51.179,-37.9064,-79.7503
12:53:51.181,-34.7189,-76.5315
12:53:51.184,-30.4376,-68.9378
12:53:51.191,-22.4688,-58.1252
12:53:51.201,-12.1875,-37.7814
12:53:51.231,0.6563,-11.8125
12:53:51.233,12.7813,15.5938
12:53:51.236,21.9376,34.6251
12:53:51.240,27.0314,48.1564
12:53:51.251,31.1251,57.7815
12:53:51.262,41.1252,76.9378
12:53:51.269,41.8752,81.7503
12:53:51.280,44.5314,84.7503
12:53:51.291,44.8439,88.6878
12:53:51.300,46.6564,90.5004
12:53:51.310,48.7189,93.6254
12:53:51.320,48.5627,96.9379
12:53:51.330,49.4689,97.6879
12:53:51.340,51.1252,100.9691
12:53:51.349,51.3127,103.1566
12:53:51.359,52.1252,103.3754
12:53:51.371,52.4377,104.3441
12:53:51.380,52.4064,104.2191
12:53:51.390,50.7814,103.0629
12:53:51.400,49.9064,99.6566
12:53:51.410,48.2502,96.6254
12:53:51.422,45.6252,92.0004
12:53:51.430,43.0627,87.4066
12:53:51.440,40.9377,82.2816
12:53:51.449,38.9376,77.4065
12:53:51.460,38.0939,74.9378
12:53:51.471,36.6251,73.219
12:53:51.481,36.4689,70.7815
12:53:51.490,35.1876,69.6253
12:53:51.499,34.4689,68.2503
12:53:51.510,33.3751,65.6253
12:53:51.520,32.5626,63.5315
12:53:51.530,31.4376,61.469
12:53:51.540,29.0314,58.844
12:53:51.550,28.5626,55.7502
12:53:51.560,26.8126,52.0627
12:53:51.570,24.5626,49.9377
12:53:51.579,23.0938,45.5314
12:53:51.590,22.3126,41.9064
12:53:51.600,19.6876,39.0939
12:53:51.610,18.5626,35.2814
12:53:51.619,16.4688,32.0626
12:53:51.630,15.2501,28.7814
12:53:51.641,13.8126,25.1876
12:53:51.650,11.6563,21.9063
12:53:51.660,10.4688,18.0313
12:53:51.670,8.2813,15.6251
12:53:51.693,7.4063,11.375
12:53:51.694,5.3438,9.0313
12:53:51.721,4.3125,5.0313
12:53:51.724,2.25,2.5
12:53:51.725,1.1563,-0.7813
12:53:51.732,-0.3438,-4.125
12:53:51.768,-2.125,-7.0938
12:53:51.770,-3.125,-9.9688
12:53:51.772,-4.75,-13.2813
12:53:51.776,-6.5313,-15.7813
12:53:51.781,-7.4688,-18.9063
12:53:51.809,-9.0625,-22.0938
12:53:51.811,-9.8438,-24.0938
12:53:51.834,-11.1563,-27.3126
12:53:51.836,-12.1875,-30.0626
12:53:51.839,-13.0938,-32.0314
12:53:51.844,-14.7501,-34.5939
12:53:51.856,-15.2501,-36.5626
12:53:51.862,-16.7501,-38.6564
12:53:51.876,-18.2501,-41.5002
12:53:51.882,-19.2188,-43.4689
12:53:51.889,-20.9063,-46.3439
12:53:51.900,-21.5938,-48.5939
12:53:51.911,-23.5001,-49.0002
12:53:51.920,-24.0313,-53.0002
12:53:51.930,-25.6563,-54.1877
12:53:51.940,-26.6564,-55.6252
12:53:51.949,-27.3126,-59.1877
12:53:51.960,-28.0314,-59.5315
12:53:51.970,-29.2501,-61.6877
12:53:51.980,-30.3126,-63.8127
12:53:51.990,-31.4689,-64.5315
12:53:52.001,-32.1564,-66.7815
12:53:52.010,-33.4064,-67.1253
12:53:52.021,-33.7501,-69.4065
12:53:52.030,-34.4689,-69.719
12:53:52.040,-34.9689,-72.1253
12:53:52.050,-35.0314,-72.1878
12:53:52.060,-35.1564,-73.2503
12:53:52.069,-36.5314,-73.9378
12:53:52.080,-36.8751,-74.1878
12:53:52.091,-37.4689,-75.594
12:53:52.099,-37.5001,-75.7503
12:53:52.110,-37.8439,-77.1253
12:53:52.120,-38.7189,-76.219
12:53:52.136,-38.6251,-77.9378
12:53:52.152,-39.7189,-77.844
12:53:52.155,-39.5627,-78.7816
12:53:52.170,-40.0002,-78.8128
12:53:52.172,-40.2814,-79.3128
12:53:52.187,-40.7189,-79.9378
12:53:52.189,-40.8127,-80.0316
12:53:52.200,-41.2189,-80.9066
12:53:52.210,-41.2502,-80.3441
12:53:52.220,-41.3752,-80.9066
12:53:52.230,-41.7189,-81.3128
12:53:52.240,-41.5939,-81.3441
12:53:52.257,-41.4064,-80.7816
12:53:52.261,-40.2814,-79.6878
12:53:52.270,-37.7814,-75.3128
12:53:52.280,-32.3751,-68.2815
12:53:52.290,-24.9376,-55.4065
12:53:52.300,-13.1251,-33.7189
12:53:52.310,0.9063,-5.0625
12:53:52.336,12.1875,21.8438
12:53:52.338,20.7188,40.4689
12:53:52.342,26.1876,51.9689
12:53:52.350,30.9064,61.6877
12:53:52.371,33.3126,68.1878
12:53:52.374,35.8439,73.9065
12:53:52.383,37.7501,78.5003
12:53:52.390,39.5314,80.8441
12:53:52.404,41.1564,84.3441
12:53:52.413,43.1877,88.2191
12:53:52.428,44.0314,91.5316
12:53:52.431,46.3439,94.4379
12:53:52.457,46.3127,97.2816
12:53:52.459,48.0002,98.6879
12:53:52.461,49.3439,101.6566
12:53:52.488,49.3752,104.0004
12:53:52.490,50.9377,104.6254
12:53:52.492,51.0939,105.5317
12:53:52.521,51.3752,105.5004
12:53:52.522,50.5002,104.8441
12:53:52.526,49.9689,103.9691
12:53:52.531,48.3439,101.0316
12:53:52.556,45.9377,96.4379
12:53:52.558,43.2502,92.5629
12:53:52.561,41.3439,86.9066
12:53:52.586,39.1251,83.0628
12:53:52.589,38.3126,79.9691
12:53:52.591,36.5314,77.219
12:53:52.601,36.7189,74.969
12:53:52.610,35.8126,73.7815
12:53:52.620,34.7189,72.7503
12:53:52.631,34.5626,70.719
12:53:52.640,32.8439,68.969
12:53:52.650,31.7814,66.6878
12:53:52.660,30.7814,63.6877
12:53:52.670,28.7189,61.1565
12:53:52.680,27.8439,57.6252
12:53:52.690,25.8126,54.7502
12:53:52.700,24.9376,50.1564
12:53:52.710,22.2813,46.7814
12:53:52.721,21.3751,43.5314
12:53:52.730,19.6876,40.0627
12:53:52.740,17.3126,36.8751
12:53:52.749,15.5626,33.2189
12:53:52.760,13.8438,30.0001
12:53:52.770,13.0625,26.4689
12:53:52.780,10.8125,23.4063
12:53:52.790,9.9375,19.9688
12:53:52.799,8.2813,16.2188
12:53:52.810,6.1875,13.7501
12:53:52.820,5.3438,10.2813
12:53:52.829,3.9063,8.125
12:53:52.840,2.625,4.0313
12:53:52.850,0.625,1.3125
12:53:52.860,-0.9688,-1.9688
12:53:52.871,-2.75,-4.625
12:53:52.880,-3.25,-8.5
12:53:52.891,-5.6563,-10.7813
12:53:52.900,-6.3125,-14.0626
12:53:52.910,-8.1875,-16.2188
12:53:52.920,-8.9375,-19.7188
12:53:52.930,-10.9063,-21.9688
12:53:52.940,-11.5625,-25.0938
12:53:52.950,-13.3126,-27.0939
12:53:52.961,-14.4688,-29.3126
12:53:52.970,-15.4063,-32.3751
12:53:52.980,-16.3751,-34.7501
12:53:52.990,-17.0001,-36.5314
12:53:53.006,-18.8751,-38.8751
12:53:53.011,-19.4063,-40.8752
12:53:53.020,-21.3438,-43.3439
12:53:53.030,-21.9688,-45.9689
12:53:53.040,-22.7813,-47.8752
12:53:53.049,-24.5313,-49.7502
12:53:53.060,-25.3751,-52.844
12:53:53.069,-26.5314,-54.6252
12:53:53.080,-28.2189,-56.6877
12:53:53.090,-29.0939,-59.344
12:53:53.101,-29.4689,-60.844
12:53:53.110,-31.0001,-61.6877
12:53:53.120,-32.0314,-64.5627
12:53:53.130,-32.0001,-66.1565
12:53:53.140,-34.0001,-67.6878
12:53:53.152,-33.4689,-69.5003
12:53:53.179,-35.0001,-69.5315
12:53:53.181,-35.7189,-71.4065
12:53:53.186,-35.9689,-72.2503
12:53:53.191,-36.9376,-72.6565
12:53:53.224,-37.5939,-74.594
12:53:53.228,-37.1876,-75.8753
12:53:53.229,-38.3439,-76.0003
12:53:53.231,-38.5626,-77.4065
12:53:53.241,-38.8751,-77.7503
12:53:53.269,-39.8752,-77.6565
12:53:53.272,-39.5314,-79.0316
12:53:53.300,-39.3439,-79.0003
12:53:53.302,-40.1252,-79.4378
12:53:53.303,-39.9377,-80.1253
12:53:53.333,-41.0002,-80.2191
12:53:53.334,-41.0314,-81.0003
12:53:53.336,-41.2189,-80.4378
12:53:53.338,-41.3127,-81.3128
12:53:53.344,-40.6252,-80.7191
12:53:53.351,-41.6877,-81.3128
12:53:53.360,-41.1877,-81.9066
12:53:53.370,-42.6564,-81.3128
12:53:53.386,-42.0939,-82.3753
12:53:53.395,-42.4689,-81.1566
12:53:53.405,-42.0002,-81.7816
12:53:53.415,-40.5002,-80.4691
12:53:53.425,-37.4376,-75.969
12:53:53.437,-32.3751,-68.844
12:53:53.455,-23.4376,-54.594
12:53:53.460,-11.125,-31.2189
12:53:53.469,2.7188,-0.8438
12:53:53.476,14.0313,25.2501
12:53:53.492,21.6251,41.6564
12:53:53.508,28.0626,54.0627
12:53:53.510,30.9064,63.0627
12:53:53.516,33.5626,68.219
12:53:53.526,36.0314,73.844
12:53:53.535,37.1876,77.1878
12:53:53.545,39.5002,82.2191
12:53:53.555,41.6877,84.9691
12:53:53.565,42.8752,88.0941
12:53:53.575,43.6564,91.9691
12:53:53.585,45.7814,93.7191
12:53:53.616,47.5939,95.9066
12:53:53.618,47.8127,98.4379
12:53:53.620,48.4689,99.8129
12:53:53.626,48.5627,101.4379
12:53:53.635,49.7189,101.6254
12:53:53.645,49.8127,102.1879
12:53:53.656,49.3439,102.3129
12:53:53.664,49.2189,100.3441
12:53:53.675,46.7814,99.3754
12:53:53.690,45.2502,94.6254
12:53:53.698,43.8439,89.7816
12:53:53.705,40.7814,85.4691
12:53:53.721,38.7189,81.4691
12:53:53.730,37.6876,76.469
12:53:53.735,35.9376,74.7815
12:53:53.745,35.7814,71.719
12:53:53.759,34.2501,70.5628
12:53:53.764,33.9064,68.7503
12:53:53.775,33.0939,66.844
12:53:53.785,32.5626,65.8128
12:53:53.795,31.3439,63.0002
12:53:53.804,30.3126,61.2502
12:53:53.816,28.9376,58.8752
12:53:53.825,27.9376,54.9065
12:53:53.836,25.8126,52.3439
12:53:53.845,24.1876,48.3752
12:53:53.855,22.3438,44.2189
12:53:53.865,20.8126,41.7502
12:53:53.875,19.2813,37.8751
12:53:53.885,18.1251,34.7189
12:53:53.895,16.3751,30.2814
12:53:53.933,14.6563,27.2814
12:53:53.933,12.5625,23.2188
12:53:53.936,11.3125,19.6876
12:53:53.940,10.4063,16.4376
12:53:53.945,8.0938,13.5313
12:53:53.980,6.8125,9.6875
12:53:53.981,4.5313,6.75
12:53:53.985,3.2188,3.0313
12:53:53.986,1.4688,-0.4688
12:53:54.019,0.8125,-3.9688
12:53:54.021,-1.75,-6.3125
12:53:54.024,-3,-9.2188
12:53:54.051,-4.4375,-12.5625
12:53:54.052,-6.0625,-14.9063
12:53:54.055,-6.8125,-19.2501
12:53:54.063,-8.875,-21.3126
12:53:54.065,-9.5313,-24.9688
12:53:54.090,-11.5,-27.2189
12:53:54.091,-12.7813,-29.9064
12:53:54.096,-13.6251,-32.8751
12:53:54.104,-15.1251,-35.2501
12:53:54.114,-15.6563,-37.7501
12:53:54.125,-17.8126,-40.3127
12:53:54.135,-18.2813,-42.5002
12:53:54.145,-19.4063,-45.2814
12:53:54.155,-21.2188,-46.6877
12:53:54.165,-22.0626,-49.5627
12:53:54.174,-23.0001,-51.8127
12:53:54.185,-24.7501,-54.094
12:53:54.195,-25.5626,-56.0627
12:53:54.205,-26.8126,-57.8127
12:53:54.216,-27.7814,-60.5315
12:53:54.225,-28.7189,-61.0627
12:53:54.235,-29.8439,-63.719
12:53:54.245,-30.5314,-65.3753
12:53:54.256,-31.9064,-65.6253
12:53:54.266,-32.4064,-68.094
12:53:54.276,-32.5626,-69.1253
12:53:54.285,-33.5314,-69.8753
12:53:54.295,-34.3751,-72.094
12:53:54.304,-35.1876,-73.219
12:53:54.315,-35.4064,-73.7503
12:53:54.325,-36.4064,-74.344
12:53:54.335,-36.5626,-75.469
12:53:54.345,-36.6876,-76.344
12:53:54.354,-37.8751,-76.844
12:53:54.365,-38.1251,-77.719
12:53:54.375,-38.7501,-78.2503
12:53:54.385,-38.9376,-78.6565
12:53:54.394,-38.8439,-78.5003
12:53:54.405,-39.4689,-78.7816
12:53:54.416,-39.5002,-80.0003
12:53:54.425,-39.8127,-79.0628
12:53:54.435,-39.3439,-80.1878
12:53:54.445,-39.9689,-79.0316
12:53:54.455,-39.7814,-80.5941
12:53:54.465,-40.0002,-79.8128
12:53:54.475,-40.1564,-80.6566
12:53:54.485,-40.6564,-79.8128
12:53:54.495,-40.3439,-81.0628
12:53:54.508,-40.8752,-80.7816
12:53:54.517,-40.4377,-81.6878
12:53:54.525,-41.2189,-80.5628
12:53:54.535,-40.1252,-81.1566
12:53:54.545,-39.7189,-78.9691
12:53:54.556,-36.8126,-76.3753
12:53:54.565,-31.9376,-69.344
12:53:54.575,-24.9688,-59.844
12:53:54.585,-14.3751,-40.5002
12:53:54.595,-0.9375,-12.375
12:53:54.605,12,14.7813
12:53:54.614,21.0313,35.5626
12:53:54.624,26.4689,49.3127
12:53:54.635,30.9689,58.469
12:53:54.645,34.5001,65.4378
12:53:54.655,35.9376,70.469
12:53:54.664,37.7501,73.5628
12:53:54.675,39.4064,78.1566
12:53:54.696,40.6877,79.5628
12:53:54.699,42.9064,82.3441
12:53:54.709,43.3127,85.4066
12:53:54.744,44.5002,86.7503
12:53:54.746,46.4064,89.3753
12:53:54.748,46.6252,92.1566
12:53:54.754,47.9377,93.2191
12:53:54.755,48.4377,93.6879
12:53:54.792,48.5627,94.8754
12:53:54.864,49.4689,95.4066
12:53:54.865,48.3439,94.8754
12:53:54.869,48.2502,93.5004
12:53:54.871,46.1252,91.1566
12:53:54.905,45.3439,87.2191
12:53:54.907,42.0002,82.5003
12:53:54.907,40.6877,77.5628
12:53:54.907,38.0626,73.344
12:53:54.915,35.7189,69.0003
12:53:54.925,34.7501,65.7503
12:53:54.935,33.4689,63.5315
12:53:54.945,33.2814,62.8752
12:53:54.955,32.8751,60.6252
12:53:54.964,32.2189,59.844
12:53:54.975,31.1876,58.8127
12:53:54.985,30.5626,56.5002
12:53:55.006,28.9376,54.6565
12:53:55.009,28.4064,52.0314
12:53:55.018,26.9064,48.4689
12:53:55.026,25.2501,46.1564
12:53:55.039,23.6563,42.2189
12:53:55.049,22.5313,38.8439
12:53:55.058,20.6563,35.7814
12:53:55.065,10.5313,14.8126
12:53:55.075,9.3125,11.9688
12:53:55.085,7.6563,8.6875
12:53:55.095,6.4063,5.4063
12:53:55.105,4.2813,2.7813
12:53:55.115,2.8438,-0.5625
12:53:55.125,1.2188,-4.0625
12:53:55.135,-0.0313,-6.0625
12:53:55.147,-1.3438,-10.3438
12:53:55.155,-3.7813,-11.9375
12:53:55.165,-5.1563,-16.0001
12:53:55.175,-6.2813,-19.7188
12:53:55.185,-7.0625,-21.9063
12:53:55.195,-8.4375,-24.5001
12:53:55.206,-10.2813,-27.5626
12:53:55.215,-11.5938,-29.2814
12:53:55.225,-12.5938,-32.8126
12:53:55.235,-14.1251,-34.8751
12:53:55.245,-15.1876,-36.1876
12:53:55.256,-16.0938,-39.6877
12:53:55.265,-17.7501,-42.0939
12:53:55.281,-18.6876,-43.1877
12:53:55.285,-19.0001,-45.5002
12:53:55.295,-21.0626,-47.0939
12:53:55.305,-21.6563,-50.0627
12:53:55.315,-23.2813,-51.5939
12:53:55.325,-24.2501,-53.3127
12:53:55.340,-24.5313,-55.8127
12:53:55.350,-26.0313,-57.0627
12:53:55.360,-26.5314,-59.3127
12:53:55.372,-28.1564,-60.5315
12:53:55.380,-28.6251,-62.1877
12:53:55.389,-29.2189,-63.8127
12:53:55.400,-29.9376,-63.9377
12:53:55.429,-31.2501,-65.7815
12:53:55.431,-31.5626,-66.8128
12:53:55.433,-32.2814,-67.6878
12:53:55.441,-32.8126,-68.5315
12:53:55.469,-33.1564,-69.2815
12:53:55.473,-34.0314,-70.9065
12:53:55.474,-34.5939,-70.1253
12:53:55.481,-35.2501,-72.719
12:53:55.512,-34.8751,-72.719
12:53:55.515,-35.9689,-73.7815
12:53:55.518,-37.5001,-75.0628
12:53:55.525,-37.4064,-76.0315
12:53:55.532,-38.0314,-76.0003
12:53:55.561,-37.9689,-76.8128
12:53:55.564,-38.0314,-76.1878
12:53:55.565,-38.4376,-77.344
12:53:55.570,-36.8751,-75.969
12:53:55.593,-35.1564,-71.6878
12:53:55.596,-29.4064,-66.094
12:53:55.601,-22.2501,-54.0315
12:53:55.610,-11.5313,-32.6251
12:53:55.620,3.625,-4.5938
12:53:55.630,14.1876,22.7501
12:53:55.639,22.5626,39.9689
12:53:55.656,28.2501,54.0627
12:53:55.661,31.7189,61.8752
12:53:55.670,35.1251,68.6253
12:53:55.680,36.6876,72.1565
12:53:55.690,39.0939,76.094
12:53:55.699,39.6564,78.4691
12:53:55.710,41.3439,82.5003
12:53:55.720,42.4689,85.0316
12:53:55.729,44.3439,87.0316
12:53:55.741,46.0939,89.9066
12:53:55.750,46.0002,92.0629
12:53:55.760,46.8127,93.5316
12:53:55.772,48.5002,95.7504
12:53:55.780,48.5939,96.7191
12:53:55.790,49.6877,98.0941
12:53:55.800,49.1564,97.9379
12:53:55.810,49.3439,98.5004
12:53:55.820,48.8439,96.5629
12:53:55.830,47.5627,94.8754
12:53:55.840,46.1252,90.7191
12:53:55.850,43.3127,87.1878
12:53:55.860,40.9377,82.5003
12:53:55.870,38.7814,76.5003
12:53:55.879,36.4376,73.344
12:53:55.889,36.3751,69.7503
12:53:55.900,34.3751,68.1878
12:53:55.910,34.0314,65.4378
12:53:55.920,33.0626,64.6565
12:53:55.930,32.6251,63.5627
12:53:55.940,32.2501,61.094
12:53:55.950,31.5001,59.844
12:53:55.960,30.2501,57.9065
12:53:55.970,28.7501,55.1565
12:53:55.980,27.7814,52.2502
12:53:55.990,26.5626,49.2502
12:53:56.000,25.3126,46.3439
12:53:56.010,22.8751,42.8752
12:53:56.020,21.8438,38.8751
12:53:56.031,20.1876,35.6564
12:53:56.039,18.7188,33.0001
12:53:56.049,16.7813,28.2189
12:53:56.062,14.3438,24.9688
12:53:56.070,12.8125,20.8126
12:53:56.080,11.0625,18.6876
12:53:56.090,10.2188,14.1251
12:53:56.100,8.0625,11.5625
12:53:56.110,6.875,7.6875
12:53:56.146,4.6563,5.875
12:53:56.241,3.7188,1.9063
12:53:56.244,2.25,-0.625
12:53:56.244,1.1875,-3.9063
12:53:56.278,-0.8125,-6.5
12:53:56.278,-1.7813,-10.2188
12:53:56.278,-3.9063,-12.8438
12:53:56.280,-4.6563,-15.5938
12:53:56.282,-6.4063,-19.5313
12:53:56.287,-8.0313,-21.6563
12:53:56.287,-9.3125,-24.6251
12:53:56.295,-10.1563,-26.7501
12:53:56.304,-11.625,-30.3751
12:53:56.323,-12.875,-32.4064
12:53:56.326,-13.5001,-34.7814
12:53:56.341,-15.6251,-36.6251
12:53:56.356,-15.5001,-39.0002
12:53:56.359,-17.1251,-41.2502
12:53:56.367,-18.6876,-42.9064
12:53:56.377,-19.9688,-46.1252
12:53:56.385,-21.1563,-48.2502
12:53:56.395,-21.8126,-50.2189
12:53:56.406,-22.5313,-52.1877
12:53:56.415,-34.3751,-73.094
12:53:56.426,-35.0939,-75.219
12:53:56.436,-35.1251,-75.4378
12:53:56.445,-36.7189,-77.1878
12:53:56.455,-36.5001,-78.1565
12:53:56.464,-38.3439,-78.3753
12:53:56.475,-38.2501,-79.9066
12:53:56.485,-38.6251,-79.6566
12:53:56.495,-39.4064,-81.0628
12:53:56.505,-38.6564,-81.6878
12:53:56.515,-40.0314,-82.0628
12:53:56.525,-39.7502,-83.0003
12:53:56.535,-40.4377,-82.9691
12:53:56.545,-40.9064,-84.0628
12:53:56.554,-40.3752,-83.1253
12:53:56.565,-41.4064,-83.4691
12:53:56.575,-40.5627,-84.4378
12:53:56.586,-40.2502,-84.2191
12:53:56.595,-41.5939,-84.0316
12:53:56.605,-41.4689,-84.9691
12:53:56.615,-41.7189,-84.4691
12:53:56.627,-42.2189,-85.5316
12:53:56.635,-42.1564,-85.6253
12:53:56.645,-42.2502,-84.9066
12:53:56.655,-42.8752,-84.8753
12:53:56.665,-42.1252,-85.4066
12:53:56.676,-42.3439,-84.3441
12:53:56.685,-40.5314,-82.9378
12:53:56.695,-36.7189,-76.6878
12:53:56.705,-30.4064,-68.219
12:53:56.716,-19.8126,-50.5627
12:53:56.725,-6.375,-20.9063
12:53:56.735,8.0938,8.1875
12:53:56.745,18.6563,30.9376
12:53:56.755,24.3751,46.3439
12:53:56.765,29.8126,56.6877
12:53:56.778,32.2189,63.8752
12:53:56.788,35.0001,69.3128
12:53:56.795,37.8751,74.0628
12:53:56.805,38.4689,77.7815
12:53:56.817,40.0314,80.0316
12:53:56.826,42.6564,84.0941
12:53:56.835,43.7814,87.3441
12:53:56.845,44.8439,89.8128
12:53:56.855,47.0627,92.6254
12:53:56.865,47.6564,96.0941
12:53:56.875,49.3439,97.8441
12:53:56.885,49.7814,100.3129
12:53:56.897,50.3752,101.5316
12:53:56.904,51.5627,103.1879
12:53:56.936,51.4689,103.2816
12:53:56.937,52.2189,103.8441
12:53:56.940,51.0002,102.8441
12:53:56.947,49.6877,100.9066
12:53:56.973,48.0939,96.1879
12:53:56.976,45.3127,92.6254
12:53:56.979,43.6877,87.1566
12:53:56.985,41.1252,83.5941
12:53:57.014,40.0939,79.4691
12:53:57.017,38.0939,76.719
12:53:57.019,37.8126,74.2503
12:53:57.027,36.6251,73.8128
12:53:57.039,36.6564,71.2815
12:53:57.045,35.8126,70.219
12:53:57.072,34.4064,67.9378
12:53:57.074,34.0001,65.3752
12:53:57.076,31.6876,63.469
12:53:57.085,31.1876,60.6565
12:53:57.096,29.4376,57.0315
12:53:57.105,27.4064,54.8752
12:53:57.120,26.0313,50.7502
12:53:57.130,24.2188,47.5939
12:53:57.141,22.5626,44.3752
12:53:57.156,21.0626,40.2189
12:53:57.161,19.4063,37.0626
12:53:57.172,17.6251,32.9689
12:53:57.181,16.3751,29.6251
12:53:57.190,14.8126,25.8751
12:53:57.200,12.5,23.1251
12:53:57.210,10.9688,20.2501
12:53:57.220,9.5,16.1563
12:53:57.231,7.375,13.1563
12:53:57.241,6.125,10.4688
12:53:57.249,4.6563,6.5313
12:53:57.260,3.3125,3.0625
12:53:57.269,2.1563,-0.0938
12:53:57.280,-0.3125,-3.7188
12:53:57.290,-1.5,-8.1875
12:53:57.300,-3.5938,-10.1563
12:53:57.310,-4.1875,-13.7188
12:53:57.320,-6.5,-16.2501
12:53:57.330,-7.5625,-19.2501
12:53:57.340,-9.7188,-22.2501
12:53:57.350,-10.0938,-24.8126
12:53:57.360,-12.125,-27.1564
12:53:57.371,-13.2188,-29.9376
12:53:57.382,-14.6563,-32.9064
12:53:57.390,-15.6876,-34.5626
12:53:57.399,-17.1563,-37.8126
12:53:57.411,-18.7188,-40.1252
12:53:57.421,-19.3126,-42.8439
12:53:57.454,-20.6563,-45.0314
12:53:57.457,-22.4376,-47.2814
12:53:57.460,-23.6563,-49.9064
12:53:57.465,-24.4063,-51.8752
12:53:57.469,-25.9688,-53.2815
12:53:57.485,-26.9689,-57.1252
12:53:57.501,-27.2501,-58.6877
12:53:57.517,-28.5314,-59.5315
12:53:57.518,-30.1251,-63.1252
12:53:57.533,-30.7501,-63.8127
12:53:57.536,-32.2189,-64.594
12:53:57.547,-32.8751,-67.844
12:53:57.557,-33.1251,-69.2503
12:53:57.565,-34.5939,-70.9065
12:53:57.604,-35.7189,-72.2815
12:53:57.609,-35.8439,-72.969
12:53:57.611,-36.2814,-74.094
12:53:57.616,-36.3439,-74.8128
12:53:57.617,-37.4689,-75.344
12:53:57.651,-37.8126,-76.9065
12:53:57.653,-37.6876,-77.1565
12:53:57.682,-38.5626,-78.1565
12:53:57.760,-38.9376,-78.5628
12:53:57.761,-39.6564,-78.8128
12:53:57.767,-39.7502,-79.8753
12:53:57.767,-40.1564,-79.9691
12:53:57.767,-40.0939,-81.1253
12:53:57.774,-41.1564,-82.3128
12:53:57.780,-41.3439,-82.1878
12:53:57.791,-41.5002,-82.7816
12:53:57.800,-42.0314,-82.6878
12:53:57.810,-41.7502,-82.9691
12:53:57.820,-42.5002,-83.2503
12:53:57.832,-42.0627,-82.7503
12:53:57.840,-41.4064,-82.7816
12:53:57.850,-39.5939,-79.8753
12:53:57.864,-36.2501,-74.469
12:53:57.873,-29.1564,-65.3127
12:53:57.883,-19.1251,-47.6252
12:53:57.890,-5.3438,-19.2501
12:53:57.906,9.0625,11.5
12:53:57.911,18.9376,32.9064
12:53:57.922,25.2501,47.3752
12:53:57.931,48.9377,96.4066
12:53:57.940,50.3752,99.5941
12:53:57.950,51.3127,102.2504
12:53:57.960,52.8127,103.7191
12:53:57.971,54.344,106.6567
12:53:57.980,55.0002,107.9379
12:53:57.990,56.0627,109.5629
12:53:58.000,56.4065,110.9067
12:53:58.010,57.3752,111.1879
12:53:58.020,56.9065,111.4379
12:53:58.030,56.344,109.8442
12:53:58.040,56.0002,107.9067
12:53:58.049,53.094,104.5316
12:53:58.059,51.7189,99.4691
12:53:58.070,47.6564,94.2816
12:53:58.080,44.9377,88.6566
12:53:58.090,39.7502,83.8441
12:53:58.100,36.5314,79.0316
12:53:58.110,32.5626,76.0315
12:53:58.121,27.1876,73.0003
12:53:58.131,23.4063,70.4065
12:53:58.140,17.4063,67.8753
12:53:58.150,12.6563,63.8752
12:53:58.160,5.5313,60.4065
12:53:58.172,-0.2188,55.219
12:53:58.179,-7.9063,51.9689
12:53:58.190,-14.8126,45.4377
12:53:58.199,-21.7813,40.2189
12:53:58.210,-25.2188,36.5939
12:53:58.219,-27.5001,33.9689
12:53:58.231,-28.4064,31.6876
12:53:58.240,-29.8126,28.7189
12:53:58.250,-30.9376,26.5626
12:53:58.263,-32.5939,24.0626
12:53:58.271,-32.7189,21.8126
12:53:58.283,-33.7814,20.0001
12:53:58.290,-35.3439,16.7813
12:53:58.303,-36.6876,14.0626
12:53:58.339,-37.2501,12
12:53:58.341,-38.2814,9.7813
12:53:58.343,-39.1876,6.2188
12:53:58.346,-40.4064,4.5938
12:53:58.351,-41.1877,1
12:53:58.375,-41.8439,-1.9375
12:53:58.376,-43.4377,-4.3438
12:53:58.408,-44.0939,-7.6875
12:53:58.409,-45.3439,-10.8438
12:53:58.416,-46.3439,-13.4376
12:53:58.417,-48.8127,-16.5001
12:53:58.451,-48.9064,-19.7813
12:53:58.456,-50.4064,-22.1251
12:53:58.460,-50.0627,-25.4688
12:53:58.464,-51.8752,-27.8126
12:53:58.468,-52.4064,-30.7814
12:53:58.471,-53.3127,-33.8126
12:53:58.481,-53.3127,-36.4064
12:53:58.490,-55.0627,-39.0627
12:53:58.503,-55.6252,-42.3439
12:53:58.512,-58.0627,-46.0939
12:53:58.522,-59.6252,-50.1877
12:53:58.529,-61.8752,-53.4377
12:53:58.539,-63.8127,-58.9377
12:53:58.549,-65.7815,-62.5627
12:53:58.560,-67.9378,-65.6565
12:53:58.570,-68.969,-70.344
12:53:58.581,-70.469,-72.3753
12:53:58.590,-72.0003,-77.0628
12:53:58.600,-72.2503,-80.4691
12:53:58.612,-74.344,-84.1566
12:53:58.621,-76.5315,-87.5941
12:53:58.630,-77.2815,-89.6878
12:53:58.640,-78.8753,-93.6254
12:53:58.649,-80.1566,-96.2504
12:53:58.666,-81.6878,-99.4691
12:53:58.672,-82.1566,-100.8441
12:53:58.680,-82.2191,-102.4691
12:53:58.689,-82.4378,-105.1879
12:53:58.699,-82.7191,-105.7191
12:53:58.712,-83.1878,-108.0942
12:53:58.735,-84.6878,-109.2817
12:53:58.740,-85.1566,-111.6254
12:53:58.742,-87.1566,-113.2504
12:53:58.750,-87.6878,-114.7817
12:53:58.760,-89.3753,-115.8754
12:53:58.771,-88.6566,-116.7192
12:53:58.783,-88.1878,-116.9692
12:53:58.801,-87.6878,-116.4067
12:53:58.807,-84.7191,-115.0942
12:53:58.809,-81.2816,-111.1879
12:53:58.825,-74.8128,-105.2817
12:53:58.840,-65.0315,-92.2191
12:53:58.846,-52.9065,-73.594
12:53:58.862,-37.1564,-45.9064
12:53:58.866,-23.7188,-18.5001
12:53:58.871,-14.0001,1.125
12:53:58.880,-5.7188,15.7813
12:53:58.890,-1.7188,26.1563
12:53:58.900,2.625,33.7189
12:53:58.912,5.875,40.2189
12:53:58.921,7.9688,45.5939
12:53:58.931,10.7188,49.6877
12:53:58.940,13.6251,54.1252
12:53:58.949,14.6876,58.3752
12:53:58.963,17.2188,61.6565
12:53:58.972,18.3438,65.5628
12:53:58.981,21.1563,69.094
12:53:58.990,22.7813,72.0003
12:53:59.000,24.6251,75.2815
12:53:59.017,25.3126,77.8128
12:53:59.055,26.6564,79.2816
12:53:59.057,28.0001,81.7503
12:53:59.059,27.7501,81.8128
12:53:59.064,27.9689,81.9691
12:53:59.065,27.0314,79.4378
12:53:59.093,25.6563,76.5628
12:53:59.094,24.4376,73.5315
12:53:59.096,21.8126,70.6253
12:53:59.121,21.2501,67.6253
12:53:59.122,22.0626,66.9378
12:53:59.125,23.4063,66.1253
12:53:59.152,23.1251,65.5315
12:53:59.156,22.7188,65.6878
12:53:59.160,23.1251,64.969
12:53:59.163,21.8438,64.4377
12:53:59.192,20.5001,61.594
12:53:59.194,18.5938,59.9377
12:53:59.196,17.0001,57.344
12:53:59.204,15.7813,55.0315
12:53:59.213,13.0313,52.2502
12:53:59.223,11.5313,48.5002
12:53:59.232,11,46.9377
12:53:59.242,9.2813,43.0314
12:53:59.250,8.25,40.9689
12:53:59.259,7.9063,38.3439
12:53:59.270,6.2813,35.4376
12:53:59.281,4.75,32.7189
12:53:59.290,3.9063,28.9689
12:53:59.300,1.8125,25.7188
12:53:59.310,0.5938,22.3438
12:53:59.321,-1.0625,18.7813
12:53:59.331,-3.25,15.7813
12:53:59.340,-4.625,12.3125
12:53:59.352,-6.5,8.9688
12:53:59.360,-7.9375,6.5
12:53:59.370,-8.8438,2.8438
12:53:59.379,-10.9375,-0.5625
12:53:59.390,-12.2188,-1.5938
12:53:59.399,-13.1563,-5.5
12:53:59.411,-14.5313,-9.3125
12:53:59.421,-15.7501,-10.8438
12:53:59.431,-16.4063,-14.0626
12:53:59.440,-17.9376,-15.7813
12:53:59.450,-18.6251,-17.8438
12:53:59.460,-19.2501,-20.7501
12:53:59.470,-20.0626,-23.9688
12:53:59.480,-21.3751,-26.0313
12:53:59.490,-23.3126,-28.7501
12:53:59.499,-23.2813,-31.2189
12:53:59.511,-25.3126,-34.0314
12:53:59.520,-27.4064,-36.2814
12:53:59.530,-28.0626,-40.0314
12:53:59.540,-30.1564,-43.7189
12:53:59.549,-32.3751,-45.3752
12:53:59.561,-34.0001,-50.7189
12:53:59.571,-36.6564,-53.6565
12:53:59.580,-38.0626,-58.094
12:53:59.590,-40.7502,-62.219
12:53:59.600,-42.3127,-64.9065
12:53:59.612,-44.5627,-70.094
12:53:59.621,-47.7814,-73.5628
12:53:59.630,-49.3127,-77.4378
12:53:59.639,-50.7814,-81.2503
12:53:59.650,-53.5002,-83.3128
12:53:59.660,-54.6252,-87.2191
12:53:59.670,-56.6252,-89.3128
12:53:59.679,-58.0627,-91.8129
12:53:59.690,-59.4377,-95.4691
12:53:59.699,-60.3752,-97.2816
12:53:59.710,-62.5315,-98.9066
12:53:59.723,-63.5002,-101.6254
12:53:59.730,-64.2502,-102.5004
12:53:59.739,-65.5003,-103.3754
12:53:59.752,-65.9378,-105.9692
12:53:59.760,-67.0003,-106.7504
12:53:59.770,-67.344,-107.2817
12:53:59.779,-67.344,-108.9067
12:53:59.790,-68.3128,-109.0317
12:53:59.810,-68.344,-110.6254
12:53:59.812,-68.1878,-110.3754
12:53:59.839,-69.5315,-110.7817
12:53:59.842,-69.0003,-112.4067
12:53:59.843,-70.0003,-111.4067
12:53:59.852,-69.5003,-112.0942
12:53:59.878,-69.0003,-112.6567
12:53:59.881,-70.0628,-111.6879
12:53:59.883,-68.9378,-112.0317
12:53:59.911,-66.969,-109.6254
12:53:59.912,-62.2815,-103.4379
12:53:59.915,-53.1565,-92.7504
12:53:59.921,-41.8439,-73.469
12:53:59.948,-25.6251,-47.9064
12:53:59.950,-10.5625,-16.6563
12:53:59.952,0.6563,6.25
12:53:59.982,9.5938,21.8438
12:53:59.984,14.7188,34.4064
12:53:59.987,20.0001,43.3127
12:54:00.013,23.1251,51.1877
12:54:00.017,27.4376,57.2815
12:54:00.022,30.1876,63.5002
12:54:00.024,33.0939,67.719
12:54:00.036,36.1251,73.844
12:54:00.039,38.9064,78.0315
12:54:00.050,42.0627,82.8441
12:54:00.060,44.0314,86.4066
12:54:00.070,46.6252,90.3129
12:54:00.079,48.5314,95.5629
12:54:00.090,50.8439,97.0941
12:54:00.101,53.5627,102.2816
12:54:00.110,56.2815,104.0004
12:54:00.131,56.6565,106.5942
12:54:00.139,57.844,107.7817
12:54:00.153,57.9065,105.9067
12:54:00.155,55.219,103.4691
12:54:00.160,51.3439,99.2191
12:54:00.170,47.7189,95.0004
12:54:00.179,45.3439,90.9379
12:54:00.190,42.9377,86.7816
12:54:00.200,40.9689,84.4066
12:54:00.211,39.3752,83.4378
12:54:00.220,38.8126,80.6253
12:54:00.229,38.3439,78.9691
12:54:00.241,38.8751,77.9065
12:54:00.249,37.7189,77.219
12:54:00.260,37.2189,74.7503
12:54:00.270,35.7501,71.8753
12:54:00.279,34.2189,69.719
12:54:00.289,32.5626,66.1878
12:54:00.300,30.9376,63.1565
12:54:00.311,29.1876,59.469
12:54:00.329,27.2189,55.844
12:54:00.332,24.8126,52.5315
12:54:00.347,22.4063,49.2814
12:54:00.351,20.4688,44.9064
12:54:00.361,18.5626,41.0939
12:54:00.370,16.8126,38.2501
12:54:00.380,15.1563,34.4064
12:54:00.390,13.3126,31.4064
12:54:00.400,11.875,27.4689
12:54:00.410,9.7813,24.7501
12:54:00.420,8.625,21.6251
12:54:00.431,6.6563,18.5626
12:54:00.440,5.2188,15.6251
12:54:00.450,4.125,11.9063
12:54:00.459,2.0625,9.0313
12:54:00.470,1.0313,6.3125
12:54:00.479,-0.375,2.0938
12:54:00.490,-2.5313,-1.2813
12:54:00.500,-3.7188,-4.75
12:54:00.512,-5.4688,-8.1875
12:54:00.520,-8.2188,-12
12:54:00.530,-9,-15.4376
12:54:00.562,-11.1563,-19.9688
12:54:00.563,-12.6563,-22.6876
12:54:00.565,-15.2188,-27.5314
12:54:00.572,-17.5001,-31.7189
12:54:00.600,-18.9063,-35.3439
12:54:00.605,-22.2813,-38.9689
12:54:00.606,-23.8438,-43.3752
12:54:00.611,-26.9064,-47.5002
12:54:00.644,-28.8751,-51.7814
12:54:00.646,-31.0001,-55.344
12:54:00.648,-33.7501,-58.8127
12:54:00.678,-35.6876,-63.6877
12:54:00.680,-38.0001,-67.8753
12:54:00.685,-41.3439,-71.6878
12:54:00.688,-43.0627,-75.5003
12:54:00.691,-45.2502,-78.2816
12:54:00.721,-48.0939,-81.1878
12:54:00.723,-49.4064,-85.1878
12:54:00.726,-51.7502,-86.5628
12:54:00.731,-53.0002,-90.5941
12:54:00.740,-54.094,-92.4691
12:54:00.749,-55.1877,-93.5316
12:54:00.759,-56.094,-95.8441
12:54:00.770,-56.8127,-96.8754
12:54:00.783,-58.0315,-98.5316
12:54:00.793,-59.0627,-100.0629
12:54:00.799,-59.9065,-100.4691
12:54:00.811,-60.2815,-101.9691
12:54:00.820,-61.5002,-102.7504
12:54:00.830,-61.469,-104.2504
12:54:00.842,-63.0002,-104.9379
12:54:00.849,-62.594,-105.3129
12:54:00.860,-63.0627,-105.0316
12:54:00.869,-62.5002,-105.3129
12:54:00.879,-60.5315,-103.5316
12:54:00.890,-55.2502,-96.6879
12:54:00.899,-47.1877,-85.4691
12:54:00.913,-33.4689,-65.6878
12:54:00.920,-17.7501,-34.4689
12:54:00.930,-2.3125,-5.6875
12:54:00.940,8.6875,17.5313
12:54:00.950,17.1251,32.5314
12:54:00.961,24.0626,44.5627
12:54:00.970,27.2189,53.0627
12:54:00.980,31.0001,59.4065
12:54:00.990,34.7501,65.7815
12:54:01.000,37.4064,71.594
12:54:01.010,40.6252,75.7503
12:54:01.023,43.5002,80.8753
12:54:01.030,45.8752,85.3128
12:54:01.039,49.5314,90.6254
12:54:01.049,53.1252,95.6254
12:54:01.060,54.4065,98.9066
12:54:01.070,56.9065,101.5316
12:54:01.080,57.9065,105.5316
12:54:01.090,57.7815,105.4379
12:54:01.099,58.2502,106.8442
12:54:01.110,57.0315,107.6879
12:54:01.120,56.3127,106.4379
12:54:01.130,54.719,105.0316
12:54:01.140,51.8752,102.6254
12:54:01.150,49.8127,97.8754
12:54:01.164,46.8127,93.1566
12:54:01.171,44.0939,88.7191
12:54:01.208,42.3439,84.5941
12:54:01.209,41.0002,83.0316
12:54:01.210,40.2814,80.1253
12:54:01.217,39.5627,79.5316
12:54:01.228,38.7189,77.1565
12:54:01.231,38.2814,76.219
12:54:01.268,37.6564,75.4378
12:54:01.271,37.0626,72.8753
12:54:01.275,35.0939,69.5628
12:54:01.300,33.8751,67.5003
12:54:01.302,32.2501,64.1565
12:54:01.303,30.3439,61.719
12:54:01.306,28.8126,58.0315
12:54:01.311,26.8439,54.5627
12:54:01.341,24.9376,51.5002
12:54:01.343,22.8438,48.1877
12:54:01.345,21.3751,45.1252
12:54:01.351,19.5938,41.7189
12:54:01.367,17.3438,38.4376
12:54:01.369,15.5313,35.5314
12:54:01.379,14.3438,31.0314
12:54:01.391,12.7813,28.0314
12:54:01.401,11.5625,25.2813
12:54:01.410,9.75,21.4688
12:54:01.433,8.625,18.7188
12:54:01.437,7.0313,14.5938
12:54:01.454,5.5938,11.8438
12:54:01.456,4.0938,7.9688
12:54:01.461,2.5938,3.4063
12:54:01.470,-0.0313,-0.5313
12:54:01.480,-1.9063,-4.6875
12:54:01.490,-4.1563,-8.2188
12:54:01.500,-6.1875,-12.4688
12:54:01.511,-8.8438,-17.0626
12:54:01.520,-10.9063,-20.9376
12:54:01.530,-12.9063,-25.4063
12:54:01.545,-16.2501,-29.7189
12:54:01.551,-18.3751,-34.0001
12:54:01.561,-20.8126,-38.2501
12:54:01.571,-23.0626,-41.9689
12:54:01.580,-25.0938,-46.8752
12:54:01.616,-27.5001,-50.5939
12:54:01.618,-29.3751,-54.5315
12:54:01.635,-32.0939,-59.0315
12:54:01.649,-34.6251,-63.344
12:54:01.650,-36.2189,-67.3753
12:54:01.654,-39.1251,-69.9378
12:54:01.656,-41.2502,-74.1565
12:54:01.665,-43.2189,-78.4691
12:54:01.675,-45.5314,-81.8441
12:54:01.685,-48.2502,-84.0941
12:54:01.696,-49.4064,-87.3441
12:54:01.705,-50.2189,-89.2503
12:54:01.717,-52.2814,-92.2816
12:54:01.728,-53.594,-94.8754
12:54:01.737,-54.719,-95.8441
12:54:01.747,-55.344,-97.5941
12:54:01.755,-58.0627,-100.5316
12:54:01.765,-58.5002,-101.8441
12:54:01.775,-58.8752,-102.8754
12:54:01.784,-59.7502,-104.4066
12:54:01.795,-60.5002,-104.9379
12:54:01.804,-61.7815,-105.6879
12:54:01.815,-62.1252,-107.0629
12:54:01.826,-63.8752,-107.5942
12:54:01.835,-63.6565,-108.2504
12:54:01.845,-64.344,-108.4379
12:54:01.854,-64.9377,-109.4692
12:54:01.865,-63.4377,-109.5629
12:54:01.875,-62.7502,-106.8754
12:54:01.885,-58.2815,-102.6566
12:54:01.895,-49.7502,-91.8129
12:54:01.905,-37.8751,-72.4065
12:54:01.915,-20.1251,-43.1877
12:54:01.925,-3.3125,-10.4375
12:54:01.935,8.0625,14.4688
12:54:01.945,17.5626,32.6564
12:54:01.954,23.9688,45.2814
12:54:01.965,28.3751,53.8752
12:54:01.975,32.9064,61.4377
12:54:02.004,35.9064,67.8128
12:54:02.006,39.7814,72.3128
12:54:02.008,42.4689,78.5316
12:54:02.016,46.1252,82.4691
12:54:02.055,48.7502,89.0941
12:54:02.057,52.4377,93.4379
12:54:02.057,55.094,98.7191
12:54:02.060,57.8127,100.5004
12:54:02.067,59.1252,105.1254
12:54:02.097,60.6565,107.1879
12:54:02.101,60.7815,111.2504
12:54:02.103,61.3752,111.7817
12:54:02.107,60.7815,112.8754
12:54:02.137,60.7815,112.9692
12:54:02.140,58.969,112.3442
12:54:02.141,57.0002,110.9379
12:54:02.147,54.9377,107.4692
12:54:02.164,52.2814,103.3441
12:54:02.168,49.7189,98.4066
12:54:02.177,48.0002,95.1254
12:54:02.185,45.9377,91.5004
12:54:02.195,44.8752,88.7816
12:54:02.204,43.3752,86.6253
12:54:02.215,43.0314,85.0628
12:54:02.225,42.2189,83.0941
12:54:02.237,41.6877,82.2191
12:54:02.245,41.0314,80.0316
12:54:02.255,39.4064,77.9378
12:54:02.265,37.6876,76.0315
12:54:02.275,36.1251,72.6253
12:54:02.290,34.5314,68.7815
12:54:02.295,32.9689,65.5002
12:54:02.305,30.8439,62.1877
12:54:02.315,28.5001,59.4065
12:54:02.325,27.0001,56.719
12:54:02.336,24.8438,52.4064
12:54:02.346,22.7813,48.8127
12:54:02.357,21.2813,45.8439
12:54:02.367,19.8126,42.4064
12:54:02.377,18.0313,39.5939
12:54:02.387,16.3126,36.3751
12:54:02.395,14.6876,33.0939
12:54:02.405,12.9688,29.0939
12:54:02.415,11.875,25.1876
12:54:02.424,10.0938,21.7188
12:54:02.434,8.25,18.6251
12:54:02.445,6.5625,15.0001
12:54:02.455,4.6875,10.8438
12:54:02.464,2.8438,5.9375
12:54:02.474,0.4688,3.0625
12:54:02.485,-0.3438,-0.5313
12:54:02.495,-2.625,-3.9375
12:54:02.505,-4.375,-7.1563
12:54:02.515,-6.1875,-11.4688
12:54:02.524,-9.0938,-14.8126
12:54:02.535,-10.9375,-19.5313
12:54:02.545,-12.9688,-23.4688
12:54:02.574,-14.3751,-26.9064
12:54:02.576,-16.0626,-30.0001
12:54:02.579,-17.5626,-33.6251
12:54:02.585,-20.1563,-37.5314
12:54:02.596,-22.5313,-40.6252
12:54:02.606,-24.0001,-44.4064
12:54:02.615,-25.8751,-49.2814
12:54:02.625,-27.7501,-52.6565
12:54:02.636,-30.6251,-56.219
12:54:02.645,-31.7189,-59.1565
12:54:02.655,-34.1876,-63.7502
12:54:02.671,-35.8439,-67.3128
12:54:02.676,-38.2501,-71.2815
12:54:02.685,-40.3439,-73.969
12:54:02.697,-42.5002,-78.8753
12:54:02.707,-45.2502,-81.5628
12:54:02.715,-46.0627,-85.1253
12:54:02.725,-48.3127,-86.9691
12:54:02.766,-49.7189,-88.7816
12:54:02.769,-51.0939,-91.6566
12:54:02.773,-53.4065,-93.4691
12:54:02.775,-54.0002,-96.5941
12:54:02.780,-55.6565,-97.5004
12:54:02.786,-57.469,-99.2191
12:54:02.826,-58.2502,-102.2504
12:54:02.827,-59.9065,-101.7191
12:54:02.831,-60.2815,-104.6566
12:54:02.832,-60.4065,-105.2504
12:54:02.840,-62.1877,-105.2191
12:54:02.847,-62.219,-106.7192
12:54:02.879,-62.719,-107.5629
12:54:02.882,-63.594,-107.1254
12:54:02.884,-63.594,-109.1254
12:54:02.886,-65.0315,-108.5942
12:54:02.908,-64.5627,-110.0629
12:54:02.911,-66.1878,-110.0942
12:54:02.929,-65.969,-111.5004
12:54:02.931,-66.6253,-111.5317
12:54:02.946,-64.844,-110.4692
12:54:02.948,-63.2815,-107.3754
12:54:02.955,-58.1252,-103.3129
12:54:02.964,-49.8127,-90.9379
12:54:02.974,-34.2501,-69.5315
12:54:02.985,-15.5001,-34.8126
12:54:02.995,2.3438,-1.9375
12:54:03.005,14.4376,23.8751
12:54:03.015,24.2813,41.3439
12:54:03.025,29.4689,54.1565
12:54:03.035,32.7814,61.0627
12:54:03.046,35.9376,68.5003
12:54:03.056,37.7501,74.4378
12:54:03.067,41.2502,79.3441
12:54:03.078,42.7814,85.4066
12:54:03.088,45.6564,89.2816
12:54:03.095,47.0627,93.7191
12:54:03.104,50.0314,97.4066
12:54:03.115,51.1564,101.5941
12:54:03.124,53.8752,104.5629
12:54:03.135,54.1565,108.4692
12:54:03.145,56.469,110.6567
12:54:03.155,57.344,113.5317
12:54:03.165,59.3127,115.3129
12:54:03.175,59.5002,117.1254
12:54:03.188,60.469,118.188
12:54:03.195,58.9377,117.3129
12:54:03.205,57.6252,115.2817
12:54:03.214,56.5002,111.0004
12:54:03.225,54.2815,108.3754
12:54:03.236,52.3752,103.9691
12:54:03.245,49.6564,99.2816
12:54:03.255,47.6252,95.2191
12:54:03.265,45.8752,91.9379
12:54:03.276,44.7189,89.7503
12:54:03.286,43.7189,88.1253
12:54:03.296,43.5939,86.5941
12:54:03.305,42.4064,84.6566
12:54:03.316,42.0002,82.6878
12:54:03.324,41.2189,80.8128
12:54:03.335,39.7502,78.5316
12:54:03.344,38.2814,75.8753
12:54:03.356,36.5939,72.2503
12:54:03.365,35.5314,68.594
12:54:03.374,33.8751,64.8127
12:54:03.385,31.3751,61.094
12:54:03.415,29.5314,57.5315
12:54:03.420,27.5001,53.2502
12:54:03.420,25.4376,48.6252
12:54:03.426,22.8438,43.8752
12:54:03.452,20.4376,39.9377
12:54:03.454,17.7188,34.6564
12:54:03.456,15.5626,31.0939
12:54:03.486,13.1563,25.3126
12:54:03.488,11.4375,21.2501
12:54:03.490,8.875,16.5001
12:54:03.525,6.9063,12.3125
12:54:03.527,4.3125,6.6563
12:54:03.527,2.0938,3
12:54:03.531,0.25,-2.0625
12:54:03.536,-2.5,-6.3125
12:54:03.565,-4.625,-11.5313
12:54:03.568,-6.6875,-15.5938
12:54:03.570,-8.25,-19.9063
12:54:03.576,-10.625,-23.3751
12:54:03.587,-11.9688,-26.8751
12:54:03.600,-13.8126,-30.1564
12:54:03.604,-15.2188,-33.4689
12:54:03.616,-16.8438,-37.2814
12:54:03.624,-18.7188,-40.3439
12:54:03.636,-20.2501,-42.8752
12:54:03.645,-21.6876,-46.4377
12:54:03.655,-23.2501,-49.0314
12:54:03.666,-24.9063,-52.0002
12:54:03.675,-27.4376,-54.3127
12:54:03.685,-29.9376,-56.219
12:54:03.695,-31.5939,-59.9377
12:54:03.705,-32.5626,-62.1877
12:54:03.715,-34.3439,-64.5627
12:54:03.725,-36.3126,-66.9378
12:54:03.735,-37.8751,-69.0628
12:54:03.746,-39.7189,-71.094
12:54:03.754,-41.0314,-74.1878
12:54:03.764,-42.8752,-74.9065
12:54:03.775,-44.0314,-77.969
12:54:03.784,-44.2502,-79.3753
12:54:03.795,-46.0314,-80.7816
12:54:03.805,-46.0627,-82.4066
12:54:03.815,-45.5314,-82.3128
12:54:03.827,-46.0627,-81.8441
12:54:03.855,-45.5002,-82.1253
12:54:03.857,-44.6252,-82.8128
12:54:03.859,-44.2502,-81.7503
12:54:03.866,-44.5939,-82.5941
12:54:03.875,-44.8127,-83.5316
12:54:03.886,-47.0627,-83.5628
12:54:03.896,-48.4064,-86.2503
12:54:03.908,-49.8752,-87.6253
12:54:03.915,-51.5627,-88.5003
12:54:03.924,-51.9064,-90.1253
12:54:03.935,-53.1252,-89.6566
12:54:03.944,-52.8752,-90.4691
12:54:03.954,-50.4377,-88.1566
12:54:03.965,-47.1564,-81.1253
12:54:03.977,-38.1251,-69.094
12:54:03.987,-23.3438,-44.5002
12:54:03.995,-8.125,-14.1876
12:54:04.005,5.9688,12.5625
12:54:04.015,15.4063,33.7189
12:54:04.033,23.0626,48.2502
12:54:04.040,27.6876,58.7502
12:54:04.055,31.3439,65.8753
12:54:04.056,35.4376,71.7503
12:54:04.065,37.3439,78.3441
12:54:04.075,39.8752,81.9691
12:54:04.084,42.6564,88.2503
12:54:04.095,46.3439,92.4691
12:54:04.106,50.7814,97.9066
12:54:04.117,52.2814,103.0941
12:54:04.125,55.1877,107.1879
12:54:04.135,57.5315,111.7504
12:54:04.145,58.8752,114.3129
12:54:04.166,61.0315,117.5942
12:54:04.168,62.6565,119.9692
12:54:04.200,64.344,122.3755
12:54:04.202,66.8753,125.5942
12:54:04.204,67.7503,127.0005
12:54:04.207,68.844,125.7192
12:54:04.243,67.219,124.3442
12:54:04.245,64.094,121.188
12:54:04.248,62.4377,115.7192
12:54:04.280,58.8127,111.4692
12:54:04.282,57.344,107.1567
12:54:04.283,54.8752,103.8129
12:54:04.285,56.9377,102.2504
12:54:04.291,94.8754,123.7192
12:54:04.299,71.4065,109.5317
12:54:04.304,58.8752,99.1566
12:54:04.334,55.719,97.4379
12:54:04.337,54.1252,93.8754
12:54:04.338,52.3127,91.2816
12:54:04.345,56.7815,93.4691
12:54:04.355,57.6877,91.4066
12:54:04.369,61.594,92.1566
12:54:04.375,62.9065,92.0316
12:54:04.385,65.094,90.2816
12:54:04.395,66.0003,89.4378
12:54:04.404,68.0315,87.2191
12:54:04.415,70.1878,86.1878
12:54:04.425,72.719,83.9378
12:54:04.435,75.7815,83.0628
12:54:04.445,78.9066,82.2816
12:54:04.455,81.9378,79.7503
12:54:04.464,85.0316,77.094
12:54:04.474,86.5628,73.9378
12:54:04.485,87.5628,69.844
12:54:04.495,87.2191,65.8128
12:54:04.506,85.5628,60.8127
12:54:04.515,83.8441,54.7502
12:54:04.525,81.4066,49.0002
12:54:04.535,80.1878,43.5002
12:54:04.545,77.594,38.5001
12:54:04.555,74.8128,32.9376
12:54:04.566,72.1565,28.4689
12:54:04.577,69.0003,22.8438
12:54:04.585,66.8128,18.6563
12:54:04.595,63.9065,14.6251
12:54:04.605,62.094,9.9688
12:54:04.615,58.0002,6.0938
12:54:04.626,54.8752,1.9688
12:54:04.635,51.9377,-3.25
12:54:04.647,48.9689,-6.125
12:54:04.655,47.1252,-11.1563
12:54:04.665,44.8127,-14.9063
12:54:04.675,42.1877,-17.6251
12:54:04.686,40.6252,-22.3126
12:54:04.696,38.3751,-24.2501
12:54:04.704,35.7189,-29.4689
12:54:04.715,32.9689,-32.4689
12:54:04.724,30.1564,-36.5314
12:54:04.735,27.6876,-39.5002
12:54:04.745,25.7813,-43.4377
12:54:04.756,24.1251,-46.2502
12:54:04.768,22.4688,-48.5314
12:54:04.774,20.4063,-50.7189
12:54:04.785,18.6563,-52.7814
12:54:04.795,17.7501,-55.6252
12:54:04.805,15.9063,-56.5315
12:54:04.815,14.4688,-59.6565
12:54:04.825,12.5938,-60.1565
12:54:04.835,11.25,-62.3752
12:54:04.845,9.4375,-63.5002
12:54:04.855,8.4688,-65.2502
12:54:04.864,7.5938,-67.1878
12:54:04.877,5.2813,-68.1565
12:54:04.884,4.1875,-70.5003
12:54:04.896,2.625,-71.1878
12:54:04.905,2.4063,-72.594
12:54:04.944,0.3438,-73.1253
12:54:04.945,0.0625,-74.094
12:54:04.950,-2.5625,-76.0315
12:54:04.950,-2.7188,-76.4378
12:54:04.955,-3.9688,-77.1565
12:54:04.965,-4.0625,-77.8753
12:54:04.996,-6.0313,-77.594
12:54:04.999,-5.4063,-77.719
12:54:05.002,-2.9063,-73.9065
12:54:05.007,0.9688,-65.5315
12:54:05.037,9.4375,-53.0315
12:54:05.039,21.3751,-26.5314
12:54:05.041,35.4689,3.4688
12:54:05.046,45.7189,28.9064
12:54:05.071,51.8752,45.2502
12:54:05.073,56.2815,56.0315
12:54:05.076,58.6252,63.8127
12:54:05.101,60.1565,68.0003
12:54:05.101,61.594,73.2503
12:54:05.106,62.0315,74.969
12:54:05.133,62.6565,77.844
12:54:05.136,62.844,81.0316
12:54:05.140,64.094,82.8441
12:54:05.146,64.1877,84.6566
12:54:05.157,65.344,87.6878
12:54:05.165,65.0003,88.5941
12:54:05.175,65.5315,90.8441
12:54:05.186,65.1565,91.0941
12:54:05.196,65.844,92.4066
12:54:05.208,65.5628,93.0629
12:54:05.214,65.0627,93.5316
12:54:05.225,64.344,92.5004
12:54:05.235,62.6565,90.3753
12:54:05.245,60.4377,88.4691
12:54:05.256,58.0002,83.5003
12:54:05.267,55.0002,78.6878
12:54:05.276,52.6877,73.0628
12:54:05.285,49.7502,67.3128
12:54:05.295,46.9689,63.2502
12:54:05.305,45.7814,59.6565
12:54:05.314,43.9064,57.094
12:54:05.335,42.1252,54.6252
12:54:05.341,40.6252,52.7189
12:54:05.356,39.4064,51.3439
12:54:05.358,38.2501,49.4064
12:54:05.369,37.1251,47.0002
12:54:05.376,35.5626,44.8752
12:54:05.386,33.8751,41.6564
12:54:05.396,32.7501,39.0001
12:54:05.405,30.8439,35.9064
12:54:05.415,30.0939,32.0001
12:54:05.425,28.2814,28.5314
12:54:05.435,25.9376,24.7813
12:54:05.448,25.0313,21.4063
12:54:05.456,22.2188,18.2501
12:54:05.465,21.0938,14.5938
12:54:05.475,19.0313,10.8125
12:54:05.486,16.5001,6.7813
12:54:05.496,15.4688,3.75
12:54:05.505,13.4688,-0.9063
12:54:05.523,11.5313,-4.0313
12:54:05.532,10.3438,-7.5
12:54:05.548,8.4063,-11.3438
12:54:05.562,5.9063,-14.2188
12:54:05.565,4.25,-18.9063
12:54:05.567,2.1563,-21.8126
12:54:05.577,0.5313,-25.8438
12:54:05.589,-1.7188,-29.9064
12:54:05.622,-2.9063,-33.0001
12:54:05.626,-4.625,-36.6251
12:54:05.655,-6.9063,-39.6564
12:54:05.656,-8.3125,-42.8752
12:54:05.657,-10.7188,-45.8439
12:54:05.662,-11.5625,-48.9064
12:54:05.662,-13.3438,-52.4064
12:54:05.670,-15.5313,-53.9377
12:54:05.707,-16.1563,-57.719
12:54:05.710,-18.0938,-60.6877
12:54:05.712,-18.7501,-62.219
12:54:05.715,-19.9688,-64.8752
12:54:05.746,-21.3126,-66.3128
12:54:05.750,-23.0938,-68.6565
12:54:05.753,-24.3751,-70.8753
12:54:05.755,-25.4376,-73.594
12:54:05.761,-27.1564,-77.0628
12:54:05.790,-28.7814,-78.9378
12:54:05.792,-28.7814,-79.6878
12:54:05.794,-30.1564,-81.7191
12:54:05.800,-30.9064,-82.6566
12:54:05.812,-31.5939,-84.3128
12:54:05.820,-32.3751,-85.3128
12:54:05.831,-32.6251,-86.7191
12:54:05.840,-33.7501,-86.2191
12:54:05.849,-34.2814,-88.3128
12:54:05.861,-34.8126,-89.5628
12:54:05.869,-35.3126,-89.1878
12:54:05.879,-35.3439,-90.5003
12:54:05.891,-36.2814,-90.8129
12:54:05.906,-36.0626,-91.6254
12:54:05.911,-36.1564,-91.9066
12:54:05.923,-37.0314,-91.3129
12:54:05.932,-37.1251,-92.2504
12:54:05.939,-37.8126,-92.0941
12:54:05.949,-37.9689,-92.1254
12:54:05.961,-38.0626,-92.7504
12:54:05.969,-38.0939,-93.3129
12:54:05.980,-39.1876,-92.8129
12:54:05.990,-39.5002,-93.6566
12:54:06.000,-39.4377,-93.0629
12:54:06.012,-40.0939,-93.1566
12:54:06.020,-39.8127,-93.6879
12:54:06.029,-40.0939,-92.7191
12:54:06.039,-38.8126,-92.5316
12:54:06.050,-36.2189,-86.6878
12:54:06.062,-31.3126,-80.1253
12:54:06.069,-22.9376,-66.3128
12:54:06.080,-9.5,-41.0002
12:54:06.090,4.9688,-6.625
12:54:06.101,16.8751,19.5313
12:54:06.110,25.0938,37.4064
12:54:06.120,29.7501,49.2189
12:54:06.129,33.8751,57.6877
12:54:06.140,35.2501,63.4377
12:54:06.152,37.2189,67.0003
12:54:06.160,38.9064,71.344
12:54:06.171,39.8752,73.3128
12:54:06.180,41.5939,76.5315
12:54:06.190,42.0939,78.9691
12:54:06.201,43.9689,82.6253
12:54:06.209,44.6877,84.1566
12:54:06.219,45.5002,86.5941
12:54:06.230,46.1877,87.6566
12:54:06.240,47.0627,89.3753
12:54:06.250,46.8127,89.9378
12:54:06.263,47.3439,91.3129
12:54:06.269,47.0627,89.9691
12:54:06.281,47.2189,90.3128
12:54:06.290,46.0939,88.5628
12:54:06.300,44.5939,85.9691
12:54:06.309,43.4064,82.2503
12:54:06.343,40.8752,77.2503
12:54:06.347,38.4376,72.5628
12:54:06.348,36.2501,67.0628
12:54:06.352,33.5939,62.3752
12:54:06.380,32.5939,58.7815
12:54:06.383,30.8439,54.969
12:54:06.386,30.3126,53.0627
12:54:06.415,29.7189,51.2189
12:54:06.416,28.6564,49.7189
12:54:06.418,28.2189,48.5002
12:54:06.421,26.7814,46.9064
12:54:06.433,25.7188,44.4064
12:54:06.469,23.9688,41.2502
12:54:06.471,22.9063,37.2501
12:54:06.473,21.2188,35.0314
12:54:06.479,19.7188,30.5626
12:54:06.481,18.1251,27.0314
12:54:06.504,16.7813,23.9063
12:54:06.506,15.0001,20.1876
12:54:06.511,12.9375,16.8438
12:54:06.520,11,12.6875
12:54:06.530,9.1563,8.4688
12:54:06.541,7.5625,4.8438
12:54:06.551,6.0625,1.4063
12:54:06.560,3.9375,-2.4063
12:54:06.570,1.9375,-5.9375
12:54:06.581,0.625,-10
12:54:06.590,-1.6563,-12.9063
12:54:06.601,-3.125,-15.9063
12:54:06.611,-4.4688,-19.6563
12:54:06.620,-5.8438,-23.6876
12:54:06.642,-7.9063,-27.5001
12:54:06.648,-10.2813,-30.9376
12:54:06.651,-12.0625,-33.1564
12:54:06.665,-13.2813,-36.3439
12:54:06.673,-14.5938,-40.0939
12:54:06.683,-16.1876,-43.9064
12:54:06.690,-17.6876,-46.7502
12:54:06.701,-19.5938,-48.4377
12:54:06.709,-20.0938,-51.3127
12:54:06.721,-21.5938,-54.6877
12:54:06.732,-23.3751,-56.594
12:54:06.740,-24.5313,-58.344
12:54:06.749,-25.4063,-61.4065
12:54:06.760,-26.6251,-62.4065
12:54:06.770,-27.5939,-65.1877
12:54:06.780,-28.0626,-67.594
12:54:06.790,-29.1564,-68.469
12:54:06.800,-29.4064,-69.7503
12:54:06.811,-30.6564,-71.469
12:54:06.830,-31.0939,-72.7503
12:54:06.832,-32.4064,-73.344
12:54:06.849,-33.0626,-76.0315
12:54:06.863,-33.2189,-76.1565
12:54:06.864,-33.8439,-77.3128
12:54:06.870,-34.0314,-78.4378
12:54:06.881,-35.1876,-78.8128
12:54:06.890,-35.5314,-79.8128
12:54:06.899,-35.8439,-79.5003
12:54:06.910,-36.6251,-81.4691
12:54:06.923,-36.4689,-81.4378
12:54:06.930,-37.4689,-81.3753
12:54:06.939,-37.9376,-83.5003
12:54:06.949,-38.1564,-82.6878
12:54:06.963,-38.2501,-83.8441
12:54:06.970,-37.7189,-83.7191
12:54:06.981,-38.2189,-83.7816
12:54:06.990,-36.9376,-82.9378
12:54:07.002,-35.3751,-79.2191
12:54:07.010,-30.0626,-72.3753
12:54:07.020,-22.6563,-58.8752
12:54:07.034,-9.5625,-34.0001
12:54:07.047,5.0313,-1.875
12:54:07.050,16.4063,25.0626
12:54:07.059,23.3126,42.6877
12:54:07.070,29.3126,55.0315
12:54:07.081,32.0939,62.4377
12:54:07.090,35.0314,68.0315
12:54:07.100,36.1876,72.4065
12:54:07.128,38.5001,75.2503
12:54:07.131,38.7501,78.3128
12:54:07.136,40.8127,80.7816
12:54:07.140,41.0939,83.5941
12:54:07.172,42.4064,85.5316
12:54:07.176,42.6877,87.8753
12:54:07.179,43.6877,89.4691
12:54:07.182,44.2814,90.4691
12:54:07.212,44.5939,92.3441
12:54:07.215,45.1564,93.5629
12:54:07.218,44.9377,93.2191
12:54:07.250,44.6564,93.5629
12:54:07.251,44.6877,92.1879
12:54:07.252,43.4689,90.4066
12:54:07.260,41.0314,88.3128
12:54:07.265,39.3127,83.4066
12:54:07.278,36.2501,77.4378
12:54:07.280,34.3126,72.4065
12:54:07.290,31.6564,66.7503
12:54:07.303,29.8751,63.094
12:54:07.310,28.5001,58.969
12:54:07.322,26.9689,56.594
12:54:07.331,27.4689,55.0315
12:54:07.340,25.4688,53.6252
12:54:07.350,25.1563,52.1252
12:54:07.360,24.6251,50.0314
12:54:07.370,23.3438,48.0314
12:54:07.381,22.3751,45.6564
12:54:07.390,20.5001,42.3127
12:54:07.401,19.2813,39.3439
12:54:07.410,17.7501,36.2189
12:54:07.421,15.6876,32.5314
12:54:07.430,14.7188,28.6564
12:54:07.441,12.3438,25.4688
12:54:07.453,11.4063,21.5313
12:54:07.459,9.3438,18.3438
12:54:07.470,7.4688,14.5313
12:54:07.481,5.7188,10.7188
12:54:07.490,3.2188,7.2813
12:54:07.502,1.6875,3.3125
12:54:07.510,0.6563,-0.1875
12:54:07.520,-1.3125,-3.7813
12:54:07.530,-2.5938,-7.3125
12:54:07.542,-3.9375,-10.5
12:54:07.549,-5.7188,-13.8751
12:54:07.559,-7.5938,-17.4376
12:54:07.571,-8.8125,-20.5938
12:54:07.579,-10.3438,-23.7501
12:54:07.591,-12.4063,-26.5626
12:54:07.601,-13.2188,-30.4376
12:54:07.610,-15.1876,-33.1876
12:54:07.620,-16.4376,-36.2501
12:54:07.629,-17.5938,-39.8752
12:54:07.640,-19.4376,-42.2814
12:54:07.649,-19.9376,-45.2814
12:54:07.662,-21.8126,-47.1252
12:54:07.696,-22.6251,-49.5314
12:54:07.698,-23.7813,-52.2814
12:54:07.700,-24.4376,-54.7815
12:54:07.702,-26.1251,-56.0002
12:54:07.710,-27.8126,-59.719
12:54:07.720,-28.1564,-61.4377
12:54:07.730,-30.0314,-62.2815
12:54:07.742,-31.0626,-66.1878
12:54:07.751,-31.8126,-66.1878
12:54:07.759,-32.4064,-68.7503
12:54:07.771,-33.2189,-71.1565
12:54:07.786,-33.5314,-71.2815
12:54:07.805,-35.2189,-73.7503
12:54:07.810,-35.0939,-74.4378
12:54:07.811,-36.4376,-76.0003
12:54:07.843,-36.8126,-77.6253
12:54:07.846,-37.2501,-77.2503
12:54:07.848,-38.6876,-79.2816
12:54:07.851,-38.4689,-80.2816
12:54:07.880,-39.8439,-81.7191
12:54:07.882,-39.0314,-82.6253
12:54:07.884,-40.4064,-82.5003
12:54:07.912,-41.7502,-84.8441
12:54:07.915,-41.2502,-85.4066
12:54:07.917,-42.5314,-85.1253
12:54:07.923,-42.6877,-86.7191
12:54:07.929,-43.3439,-86.0316
12:54:07.977,-43.0002,-86.8441
12:54:07.980,-42.4377,-83.9378
12:54:07.995,-38.6876,-79.9691
12:54:07.997,-31.6564,-70.469
12:54:08.002,-21.5938,-50.2814
12:54:08.006,-5.7813,-19.2501
12:54:08.006,7.2188,12.7813
12:54:08.011,17.5001,34.8751
12:54:08.020,24.3126,50.8439
12:54:08.029,28.6251,59.9065
12:54:08.040,31.4376,67.3753
12:54:08.050,33.4064,73.3128
12:54:08.060,35.7501,76.719
12:54:08.071,37.6564,80.8128
12:54:08.080,38.7814,84.1566
12:54:08.091,40.4377,87.5003
12:54:08.102,41.8439,91.7191
12:54:08.110,43.7814,94.2191
12:54:08.132,45.0314,98.4066
12:54:08.135,45.8127,100.0629
12:54:08.150,46.2189,102.6879
12:54:08.153,47.3127,104.5629
12:54:08.163,47.9064,106.1879
12:54:08.171,49.0314,106.8442
12:54:08.183,48.1252,107.8129
12:54:08.191,47.3439,108.0629
12:54:08.200,47.9064,106.4379
12:54:08.212,46.0002,103.6566
12:54:08.224,44.0002,99.6254
12:54:08.231,41.0002,94.2816
12:54:08.239,39.1564,88.8128
12:54:08.252,36.9689,83.8128
12:54:08.262,34.6251,80.4066
12:54:08.270,34.4376,76.6565
12:54:08.280,32.3439,74.969
12:54:08.290,31.1876,72.8128
12:54:08.300,30.7189,70.969
12:54:08.311,30.1876,69.5628
12:54:08.321,29.1564,67.6565
12:54:08.330,28.3751,65.7503
12:54:08.343,27.1564,62.719
12:54:08.351,25.2501,60.3127
12:54:08.360,24.2188,57.0315
12:54:08.371,22.6876,53.6565
12:54:08.382,21.0938,49.2502
12:54:08.389,18.9688,46.7189
12:54:08.399,17.9688,42.0939
12:54:08.410,15.9688,40.0002
12:54:08.420,15.0313,35.4689
12:54:08.431,13.0938,32.5626
12:54:08.442,11.4063,28.4376
12:54:08.450,9.6563,25.0938
12:54:08.461,8.625,21.7501
12:54:08.469,7.3125,17.6563
12:54:08.490,4.9375,15.0938
12:54:08.494,4,11.5938
12:54:08.502,2.5313,8.0313
12:54:08.528,0.7813,5.1875
12:54:08.530,-0.3438,1.2188
12:54:08.532,-2.2813,-1.4063
12:54:08.540,-4.0938,-5.375
12:54:08.568,-5.5625,-8.5625
12:54:08.571,-6.4688,-11.3125
12:54:08.573,-8.0313,-13.9376
12:54:08.609,-9.0625,-17.1563
12:54:08.613,-10.625,-20.4063
12:54:08.615,-11.3438,-23.0938
12:54:08.620,-12.125,-25.8751
12:54:08.621,-13.6563,-28.3126
12:54:08.656,-14.2501,-30.7189
12:54:08.657,-16.2501,-33.0626
12:54:08.663,-18.0001,-35.3439
12:54:08.663,-18.6251,-38.0001
12:54:08.675,-19.6876,-41.0939
12:54:08.681,-20.6563,-43.1252
12:54:08.690,-22.1563,-46.1252
12:54:08.700,-22.9688,-48.4377
12:54:08.712,-24.1251,-50.6564
12:54:08.720,-24.9376,-53.469
12:54:08.731,-26.7501,-54.5627
12:54:08.741,-27.8439,-58.1565
12:54:08.749,-28.7501,-60.7815
12:54:08.761,-30.1564,-62.1252
12:54:08.770,-30.5626,-65.0315
12:54:08.781,-32.2501,-65.4378
12:54:08.790,-33.2501,-68.6253
12:54:08.800,-33.6251,-71.4378
12:54:08.811,-35.1564,-71.1878
12:54:08.820,-35.0626,-74.0003
12:54:08.830,-35.7814,-75.3753
12:54:08.840,-36.8439,-75.844
12:54:08.850,-37.4376,-78.3753
12:54:08.860,-38.0626,-78.6253
12:54:08.869,-38.7501,-79.9066
12:54:08.882,-39.0001,-81.2816
12:54:08.890,-40.4377,-81.0628
12:54:08.900,-40.6564,-83.3753
12:54:08.911,-40.1564,-83.6878
12:54:08.923,-42.0002,-84.3753
12:54:08.931,-42.0939,-85.9378
12:54:08.941,-42.7502,-86.3753
12:54:08.952,-44.0939,-88.7503
12:54:08.975,-43.7189,-88.0003
12:54:08.977,-43.8439,-88.1878
12:54:08.982,-43.0939,-87.9066
12:54:08.991,-40.9064,-84.5316
12:54:09.001,-35.8751,-76.6565
12:54:09.010,-26.2813,-58.1877
12:54:09.020,-10.7188,-27.9064
12:54:09.031,3.2813,5.5313
12:54:09.041,14.0938,30.0626
12:54:09.050,21.1563,46.4689
12:54:09.060,26.1563,57.2815
12:54:09.069,28.5314,65.2815
12:54:09.080,31.0001,68.8753
12:54:09.092,32.5626,74.1878
12:54:09.101,34.2501,77.344
12:54:09.110,36.2814,81.1566
12:54:09.121,37.6876,83.7503
12:54:09.130,39.0939,88.1566
12:54:09.141,40.3127,90.0003
12:54:09.149,41.8752,93.0941
12:54:09.162,41.9064,96.2504
12:54:09.171,43.5314,98.0316
12:54:09.180,44.5002,101.1254
12:54:09.191,44.8439,102.1254
12:54:09.200,45.2189,104.2191
12:54:09.211,45.5314,104.7191
12:54:09.220,45.5627,105.5004
12:54:09.233,44.7814,103.9066
12:54:09.239,43.6877,101.8441
12:54:09.249,41.3439,98.1879
12:54:09.270,39.6252,94.4066
12:54:09.276,37.2501,88.6566
12:54:09.299,34.5001,83.5628
12:54:09.303,33.1251,78.8441
12:54:09.354,30.5939,75.469
12:54:09.356,30.5626,73.2815
12:54:09.359,29.1876,70.9378
12:54:09.360,27.9689,70.094
12:54:09.363,27.8751,67.9065
12:54:09.391,26.2813,67.0628
12:54:09.395,25.5938,64.469
12:54:09.396,24.2188,61.9065
12:54:09.396,23.0626,59.5002
12:54:09.396,21.6563,55.719
12:54:09.402,20.0313,52.8127
12:54:09.441,19.0626,50.1564
12:54:09.485,17.0313,47.3752
12:54:09.488,16.0626,44.1564
12:54:09.488,14.4688,40.1252
12:54:09.489,12.9688,36.2814
12:54:09.496,11.3438,33.4064
12:54:09.498,9.75,30.0001
12:54:09.498,8.4375,27.0001
12:54:09.506,6.6875,23.4376
12:54:09.515,5.0938,20.0626
12:54:09.525,4.1563,16.7813
12:54:09.536,2.5,13.7813
12:54:09.545,1.75,10.7813
12:54:09.555,0.0313,6.8438
12:54:09.566,-2.0938,3.8438
12:54:09.576,-2.875,0.5313
12:54:09.584,-4.5,-2.625
12:54:09.596,-6.25,-5.6563
12:54:09.605,-6.8125,-8.8125
12:54:09.622,-8.5625,-11.7813
12:54:09.630,-10.25,-14.5001
12:54:09.640,-11.0313,-17.1876
12:54:09.651,-11.75,-19.2813
12:54:09.660,-13.1563,-22.5938
12:54:09.671,-16.2188,-29.0939
12:54:09.681,-16.5626,-31.1876
12:54:09.690,-17.3751,-33.2189
12:54:09.700,-18.6251,-35.5626
12:54:09.710,-19.4688,-37.3439
12:54:09.724,-20.9688,-40.2189
12:54:09.731,-22.0626,-42.0627
12:54:09.740,-22.6563,-45.0314
12:54:09.753,-22.9063,-47.1564
12:54:09.761,-25.1563,-49.5002
12:54:09.770,-25.7813,-52.3127
12:54:09.781,-27.6251,-55.8752
12:54:09.790,-27.9376,-58.1565
12:54:09.801,-28.8439,-59.969
12:54:09.811,-30.1564,-62.5002
12:54:09.824,-30.9689,-64.594
12:54:09.829,-31.8126,-65.2815
12:54:09.840,-31.7501,-68.219
12:54:09.856,-33.7814,-70.4378
12:54:09.860,-34.0314,-72.6565
12:54:09.871,-35.4376,-74.6878
12:54:09.882,-36.2814,-77.0003
12:54:09.889,-37.4689,-78.7816
12:54:09.899,-38.2189,-80.7816
12:54:09.912,-39.3752,-82.1566
12:54:09.919,-39.9689,-83.6253
12:54:09.931,-39.5627,-84.4066
12:54:09.941,-38.7501,-82.1253
12:54:09.949,-35.3126,-78.469
12:54:09.961,-27.9064,-64.1252
12:54:09.971,-15.3751,-40.0002
12:54:09.981,-2.0313,-9.5313
12:54:09.991,8.75,13.6876
12:54:10.000,15.5626,31.0314
12:54:10.010,20.7501,43.1252
12:54:10.020,23.7813,49.9689
12:54:10.049,26.1563,55.1565
12:54:10.053,28.0001,58.9065
12:54:10.055,29.1251,62.1252
12:54:10.061,30.5939,65.2502
12:54:10.094,31.4376,68.594
12:54:10.096,32.5939,71.3753
12:54:10.098,34.3439,74.469
12:54:10.101,34.7189,76.1253
12:54:10.132,36.6251,78.9378
12:54:10.135,36.7814,80.4691
12:54:10.138,37.9376,83.0628
12:54:10.161,38.3126,83.8128
12:54:10.162,38.0626,85.3441
12:54:10.166,38.9376,85.2816
12:54:10.171,38.3439,85.4378
12:54:10.205,38.0626,84.4691
12:54:10.206,37.2189,82.3753
12:54:10.208,34.9689,79.8753
12:54:10.212,32.9064,75.6565
12:54:10.220,30.4064,69.469
12:54:10.254,28.1564,64.8752
12:54:10.257,26.4376,59.469
12:54:10.259,24.4063,55.3752
12:54:10.261,23.6563,53.1877
12:54:10.272,22.0626,50.4377
12:54:10.281,22.0626,50.0002
12:54:10.290,21.5626,48.4689
12:54:10.299,20.3438,47.1252
12:54:10.312,19.1876,45.9064
12:54:10.320,18.7501,43.0314
12:54:10.330,17.3438,40.9064
12:54:10.341,16.2813,38.2501
12:54:10.350,14.0626,34.8126
12:54:10.361,13.2501,31.8751
12:54:10.370,11.4375,28.3126
12:54:10.380,9.9375,25.0938
12:54:10.390,8.9688,21.7501
12:54:10.401,7.1563,18.3126
12:54:10.410,5.1563,15.4063
12:54:10.421,3.875,11.9375
12:54:10.430,2.4063,8.8125
12:54:10.440,1.3125,5.0625
12:54:10.451,-0.75,1.875
12:54:10.460,-1.5938,-0.875
12:54:10.471,-3.4688,-4.7188
12:54:10.481,-4.4375,-7.4063
12:54:10.491,-5.7813,-10.9375
12:54:10.500,-7.2813,-14.0313
12:54:10.510,-8.75,-16.7501
12:54:10.521,-10.3438,-19.9063
12:54:10.530,-11.0625,-22.0313
12:54:10.541,-12.125,-26.0001
12:54:10.550,-14.0938,-28.9064
12:54:10.561,-14.9063,-30.8439
12:54:10.571,-15.6876,-33.5939
12:54:10.581,-17.3438,-35.7189
12:54:10.605,-17.9063,-38.3751
12:54:10.609,-19.1563,-40.3439
12:54:10.624,-20.5938,-42.0939
12:54:10.625,-21.2501,-45.2814
12:54:10.640,-22.2188,-46.5627
12:54:10.654,-22.9688,-49.0939
12:54:10.657,-24.0626,-52.1877
12:54:10.661,-24.6251,-53.9377
12:54:10.669,-25.9688,-55.094
12:54:10.682,-26.3439,-57.344
12:54:10.691,-27.2814,-60.1565
12:54:10.701,-28.6564,-60.4377
12:54:10.714,-29.1251,-63.844
12:54:10.719,-30.6564,-64.5002
12:54:10.731,-31.1876,-67.469
12:54:10.751,-32.0939,-68.9065
12:54:10.753,-33.4064,-71.7503
12:54:10.781,-34.0939,-73.9378
12:54:10.783,-34.9376,-75.2815
12:54:10.813,-35.7189,-77.7503
12:54:10.838,-36.4689,-80.1253
12:54:10.843,-37.2189,-81.4378
12:54:10.844,-38.0939,-83.1253
12:54:10.845,-39.1876,-83.5003
12:54:10.845,-38.8126,-83.9066
12:54:10.851,-37.6251,-82.1878
12:54:10.881,-33.2189,-76.594
12:54:10.883,-24.5313,-60.0315
12:54:10.886,-11.4063,-32.3439
12:54:10.892,1.375,-4.7188
12:54:10.922,10.75,17.5001
12:54:10.923,16.9063,33.5314
12:54:10.926,21.4063,43.6877
12:54:10.932,23.2501,50.6252
12:54:10.941,26.1251,54.8127
12:54:10.950,27.2189,58.7502
12:54:10.962,29.3439,61.8752
12:54:10.970,29.8439,64.719
12:54:10.983,30.9064,68.0628
12:54:10.993,32.1564,70.2815
12:54:11.001,32.9376,71.7815
12:54:11.011,35.2501,78.1878
12:54:11.020,36.6251,80.5628
12:54:11.030,36.9064,82.5628
12:54:11.040,38.1564,83.1566
12:54:11.051,37.6564,84.6878
12:54:11.060,38.2189,84.9066
12:54:11.071,37.1876,84.0628
12:54:11.083,35.9376,81.8441
12:54:11.090,34.7814,79.6878
12:54:11.101,32.7501,75.5003
12:54:11.110,30.7189,70.219
12:54:11.120,27.9064,65.4378
12:54:11.130,26.0626,59.8127
12:54:11.140,24.5001,55.6252
12:54:11.150,22.6563,53.6252
12:54:11.160,22.0001,52.2502
12:54:11.171,21.5001,49.9064
12:54:11.180,20.8126,49.0627
12:54:11.193,20.5001,48.0002
12:54:11.201,19.6563,45.7189
12:54:11.210,18.4063,43.8439
12:54:11.221,17.8438,42.0314
12:54:11.230,16.4688,39.7502
12:54:11.241,14.8438,36.4064
12:54:11.252,13.7501,32.8126
12:54:11.260,11.9063,30.5001
12:54:11.271,11,26.7501
12:54:11.280,9.2813,23.2501
12:54:11.290,8.125,20.2188
12:54:11.301,6.4375,16.6563
12:54:11.312,5.1875,13.4376
12:54:11.320,3.0313,10.0938
12:54:11.331,1.8125,6.5938
12:54:11.343,1.1875,4.0313
12:54:11.349,-0.7188,1.1875
12:54:11.361,-1.8438,-1.7813
12:54:11.370,-2.9063,-5.4375
12:54:11.380,-4.625,-8.1875
12:54:11.390,-4.9375,-11.8438
12:54:11.404,-6.75,-13.7501
12:54:11.410,-7.6563,-17.9063
12:54:11.421,-9.7813,-20.5001
12:54:11.431,-10.625,-22.3126
12:54:11.440,-11.1563,-25.9063
12:54:11.452,-13.0625,-28.6564
12:54:11.460,-14.0626,-30.9064
12:54:11.471,-14.4688,-33.7501
12:54:11.482,-16.2501,-36.6251
12:54:11.523,-17.2813,-37.7814
12:54:11.525,-18.1251,-40.7189
12:54:11.527,-19.4376,-43.6252
12:54:11.546,-20.2188,-44.9689
12:54:11.546,-20.9688,-47.6252
12:54:11.579,-21.8438,-49.7814
12:54:11.579,-22.3751,-51.5002
12:54:11.579,-23.5938,-53.3752
12:54:11.582,-24.0001,-55.0315
12:54:11.608,-25.8438,-56.4065
12:54:11.611,-26.1251,-58.6252
12:54:11.613,-27.1564,-61.0315
12:54:11.619,-28.6876,-61.969
12:54:11.620,-29.0626,-65.1877
12:54:11.660,-30.1251,-65.5315
12:54:11.663,-30.8751,-69.0003
12:54:11.665,-32.5939,-70.5003
12:54:11.667,-32.7501,-73.3128
12:54:11.672,-34.1564,-75.0628
12:54:11.682,-35.7501,-76.469
12:54:11.691,-36.5314,-79.9691
12:54:11.703,-37.1876,-80.5941
12:54:11.711,-37.4376,-82.0316
12:54:11.720,-36.9064,-80.1566
12:54:11.735,-33.1876,-75.6253
12:54:11.740,-25.5626,-61.969
12:54:11.752,-13.7813,-37.6564
12:54:11.760,-0.875,-7.8125
12:54:11.769,8.8438,15.4688
12:54:11.783,16.3438,32.5001
12:54:11.791,20.9376,43.8439
12:54:11.800,23.8751,50.4064
12:54:11.811,25.9688,56.0315
12:54:11.821,27.1876,59.6877
12:54:11.830,29.8751,64.094
12:54:11.841,30.8751,68.844
12:54:11.849,32.1564,70.1878
12:54:11.861,34.0001,73.9065
12:54:11.869,34.8126,77.2503
12:54:11.880,36.9376,79.3753
12:54:11.890,36.5939,82.0941
12:54:11.899,38.4376,83.6878
12:54:11.911,38.0626,86.3128
12:54:11.931,38.9064,87.1566
12:54:11.937,40.2502,89.8128
12:54:11.945,40.6252,90.4691
12:54:11.952,39.6564,90.7504
12:54:11.969,39.5314,90.0941
12:54:11.971,38.4689,87.4691
12:54:11.986,36.4689,84.4378
12:54:11.991,34.5314,79.1253
12:54:11.999,31.5001,73.719
12:54:12.010,29.1876,68.0003
12:54:12.020,27.0939,63.2815
12:54:12.030,26.2813,59.5315
12:54:12.040,24.7188,57.0315
12:54:12.051,24.1251,54.5315
12:54:12.061,23.2813,53.3127
12:54:12.070,22.9688,52.9065
12:54:12.079,22.7188,52.1252
12:54:12.102,21.7501,49.6564
12:54:12.106,20.6876,46.6252
12:54:12.112,18.6876,44.5314
12:54:12.126,18.5001,41.8752
12:54:12.141,17.5313,38.5314
12:54:12.143,15.4688,35.8126
12:54:12.153,14.0313,32.7814
12:54:12.161,12.25,28.3439
12:54:12.192,11.0625,25.6563
12:54:12.193,9.6875,21.5626
12:54:12.197,8.0625,18.3438
12:54:12.202,6.0938,14.5313
12:54:12.234,4.5,12.4688
12:54:12.236,3.7813,8.0313
12:54:12.238,2.6875,4.6563
12:54:12.241,0.25,1.1563
12:54:12.270,-1.4375,-1.6875
12:54:12.274,-2.4688,-4.625
12:54:12.275,-3.125,-7.9375
12:54:12.300,-3.875,-11.75
12:54:12.302,-6.2188,-14.6251
12:54:12.305,-7.6563,-18.0626
12:54:12.310,-9.5,-20.2188
12:54:12.345,-9.9063,-23.0938
12:54:12.346,-10.125,-26.7501
12:54:12.348,-12.0313,-29.3439
12:54:12.351,-13.9376,-31.6251
12:54:12.361,-14.6251,-33.6251
12:54:12.372,-15.7188,-36.6564
12:54:12.380,-16.6876,-38.7189
12:54:12.389,-18.0001,-40.4377
12:54:12.400,-18.0938,-42.4064
12:54:12.410,-19.3751,-45.1877
12:54:12.420,-20.0001,-46.3752
12:54:12.433,-20.4688,-49.0314
12:54:12.441,-21.6876,-50.5314
12:54:12.450,-23.0626,-53.1565
12:54:12.460,-23.7188,-54.6565
12:54:12.471,-24.9376,-57.2502
12:54:12.481,-25.7188,-58.8127
12:54:12.489,-26.7501,-62.094
12:54:12.504,-28.8126,-63.7502
12:54:12.512,-29.3439,-67.7815
12:54:12.519,-30.9376,-68.8128
12:54:12.530,-31.9064,-71.719
12:54:12.541,-32.2814,-74.0628
12:54:12.551,-33.0001,-74.7815
12:54:12.562,-33.0939,-75.0628
12:54:12.571,-29.5001,-69.6565
12:54:12.579,-22.7813,-56.469
12:54:12.593,-10.6563,-33.5939
12:54:12.600,-0.125,-6.0625
12:54:12.610,9,14.6563
12:54:12.620,16.8438,30.9689
12:54:12.631,20.4688,42.3127
12:54:12.642,23.5938,49.2502
12:54:12.651,25.8126,55.8127
12:54:12.660,27.1564,59.344
12:54:12.674,29.5314,63.469
12:54:12.681,30.6564,67.3128
12:54:12.690,32.5626,70.7815
12:54:12.701,33.1251,75.2503
12:54:12.711,34.7501,77.969
12:54:12.724,36.6876,80.6566
12:54:12.730,37.1564,83.9378
12:54:12.741,38.9376,86.7503
12:54:12.750,39.1564,89.0316
12:54:12.760,40.0002,90.3128
12:54:12.772,40.5314,92.1254
12:54:12.780,41.3127,93.4379
12:54:12.815,40.7814,94.1879
12:54:12.818,40.9377,92.7816
12:54:12.822,38.6251,91.0004
12:54:12.823,37.4376,87.1253
12:54:12.830,34.6251,81.9691
12:54:12.840,31.9064,77.1565
12:54:12.849,29.5314,70.0315
12:54:12.860,26.5314,65.469
12:54:12.871,25.2501,60.344
12:54:12.879,23.5938,57.094
12:54:12.892,22.7813,55.6877
12:54:12.919,21.8751,52.969
12:54:12.924,21.8751,52.0314
12:54:12.924,21.2501,50.5002
12:54:12.931,19.6876,48.9689
