timestamp,Red,IR
13:43:08.957,4.9375,-2.9375
13:43:08.962,4.5313,-4.4375
13:43:08.971,4.5938,-4.5625
13:43:08.981,4.4063,-4.0625
13:43:08.992,4.25,-4.8125
13:43:09.005,4.5313,-5.5
13:43:09.012,4.2188,-5.5625
13:43:09.021,3.0625,-6.9375
13:43:09.032,2.7188,-8.6875
13:43:09.044,0.7813,-10.25
13:43:09.052,0.625,-11.4375
13:43:09.061,-1.5625,-13
13:43:09.072,-2.8438,-15.0626
13:43:09.082,-3.5938,-18.0001
13:43:09.091,-4.9063,-19.5001
13:43:09.102,-4.9688,-21.2501
13:43:09.111,-7.2813,-22.1876
13:43:09.123,-8.5,-25.7501
13:43:09.132,-9.3125,-27.6251
13:43:09.141,-10.4375,-28.8126
13:43:09.152,-10.8125,-30.2501
13:43:09.162,-11.625,-32.6251
13:43:09.172,-12.1875,-33.8751
13:43:09.182,-13.5001,-35.6251
13:43:09.193,-13.7188,-37.5626
13:43:09.202,-15.8438,-39.1252
13:43:09.213,-15.2188,-40.3752
13:43:09.222,-16.7188,-41.9377
13:43:09.232,-17.4376,-43.8127
13:43:09.244,-17.7188,-44.5627
13:43:09.252,-19.1251,-44.8752
13:43:09.262,-19.1251,-47.3752
13:43:09.272,-20.8126,-46.7502
13:43:09.289,-21.2188,-48.5002
13:43:09.311,-21.5626,-51.0002
13:43:09.313,-22.3126,-51.0002
13:43:09.315,-22.8751,-52.7502
13:43:09.322,-23.7188,-53.6877
13:43:09.331,-24.7501,-54.5002
13:43:09.342,-24.5938,-55.3752
13:43:09.351,-25.5313,-56.1252
13:43:09.362,-25.4376,-57.2502
13:43:09.371,-26.6564,-58.0627
13:43:09.381,-26.1251,-58.7502
13:43:09.393,-27.6251,-60.1252
13:43:09.404,-28.3439,-62.1252
13:43:09.431,-29.0939,-63.2502
13:43:09.434,-29.6251,-64.0627
13:43:09.436,-30.4064,-65.1877
13:43:09.443,-29.8439,-65.5003
13:43:09.474,-29.9376,-64.1877
13:43:09.475,-26.2813,-60.7502
13:43:09.479,-20.4688,-53.8752
13:43:09.486,-14.1563,-41.6877
13:43:09.516,-6.0625,-29.8126
13:43:09.518,1.2188,-15.8126
13:43:09.520,8.4063,-5.0625
13:43:09.526,13.125,4.25
13:43:09.563,16.9376,11.125
13:43:09.565,19.0626,16.6251
13:43:09.595,21.2813,18.6251
13:43:09.597,21.4376,20.0001
13:43:09.602,20.6251,20.1251
13:43:09.602,20.1876,19.0626
13:43:09.607,19.9376,19.1876
13:43:09.617,18.8751,17.5001
13:43:09.626,17.7188,16.0626
13:43:09.636,16.0626,14.1876
13:43:09.647,14.5938,12.75
13:43:09.656,14.4063,10.8125
13:43:09.672,12.8438,9.3125
13:43:09.677,11.0625,5.875
13:43:09.689,8.25,3.6875
13:43:09.697,6.3125,1.8125
13:43:09.706,5.7188,-0.75
13:43:09.716,4.4375,-2.6875
13:43:09.727,3.375,-3.625
13:43:09.736,3,-4.5625
13:43:09.746,2.625,-4.5625
13:43:09.756,2.4375,-5.5
13:43:09.766,2.6875,-4.375
13:43:09.776,2.375,-3.75
13:43:09.786,1.7188,-3.6875
13:43:09.797,1.0625,-4.625
13:43:09.807,0.0313,-5.0625
13:43:09.816,-0.5625,-6.8125
13:43:09.826,-1.7813,-6.9375
13:43:09.836,-2.4688,-8.75
13:43:09.846,-4.3125,-10.5625
13:43:09.857,-6.2188,-11.9375
13:43:09.867,-7.875,-14.5626
13:43:09.877,-9.5938,-15.0626
13:43:09.888,-11.1563,-17.6251
13:43:09.896,-12.2188,-18.3126
13:43:09.907,-11.4063,-19.3126
13:43:09.916,-13.4376,-20.7501
13:43:09.926,-14.3438,-23.0001
13:43:09.936,-17.8438,-24.8126
13:43:09.948,-19.8438,-26.7501
13:43:09.958,-21.6563,-28.1876
13:43:09.967,-23.6563,-30.3751
13:43:09.976,-23.2188,-31.1251
13:43:09.987,-23.1251,-30.5626
13:43:09.996,-23.4376,-31.2501
13:43:10.007,-23.1563,-32.6251
13:43:10.017,-23.5938,-33.0001
13:43:10.026,-23.9376,-34.3751
13:43:10.036,-24.3751,-35.4376
13:43:10.046,-26.3439,-36.6251
13:43:10.075,-26.8439,-38.5626
13:43:10.082,-27.8439,-38.5626
13:43:10.088,-28.3126,-39.8752
13:43:10.088,-27.3751,-40.6252
13:43:10.096,-27.0626,-41.5627
13:43:10.107,-26.6564,-40.7502
13:43:10.116,-26.0001,-43.0627
13:43:10.127,-26.1876,-43.5627
13:43:10.136,-25.9376,-44.2502
13:43:10.146,-27.0001,-45.2502
13:43:10.156,-26.4376,-46.4377
13:43:10.187,-26.1251,-47.2502
13:43:10.190,-26.2501,-48.1252
13:43:10.192,-25.9688,-48.9377
13:43:10.198,-25.7188,-49.2502
13:43:10.225,-25.6563,-48.9377
13:43:10.228,-24.5313,-48.1877
13:43:10.230,-20.6563,-44.4377
13:43:10.236,-15.1563,-37.8751
13:43:10.264,-7.25,-25.9376
13:43:10.266,0.625,-14.7501
13:43:10.268,8.5313,-1.125
13:43:10.295,14.9376,8.375
13:43:10.297,20.4063,17.8126
13:43:10.299,24.6251,24.0001
13:43:10.307,27.3126,29.0001
13:43:10.338,29.3751,31.6251
13:43:10.340,29.5314,33.7501
13:43:10.343,30.6251,34.2501
13:43:10.350,30.0626,33.8126
13:43:10.357,29.5314,34.0001
13:43:10.367,29.4064,32.6251
13:43:10.376,29.0314,31.3126
13:43:10.387,28.9376,30.5626
13:43:10.396,29.0626,29.3751
13:43:10.408,27.7814,28.0626
13:43:10.422,26.9689,25.6876
13:43:10.426,24.2188,23.5626
13:43:10.436,22.6876,21.3751
13:43:10.446,21.1563,18.4376
13:43:10.456,20.6251,15.4376
13:43:10.466,19.1251,14.3126
13:43:10.477,19.0313,13.6876
13:43:10.487,19.6251,12.75
13:43:10.496,18.9063,12.6875
13:43:10.506,18.7501,12.875
13:43:10.517,19.5626,11.5
13:43:10.527,18.8438,12.375
13:43:10.536,19.3126,11.9375
13:43:10.547,18.7813,11.875
13:43:10.556,18.8438,11.625
13:43:10.566,18.7188,10.1875
13:43:10.576,18.2501,10.4375
13:43:10.596,17.6876,8.625
13:43:10.603,16.8751,7.4375
13:43:10.619,15.6876,6.5625
13:43:10.620,14.7188,4.5625
13:43:10.627,13.9063,3.75
13:43:10.636,12.5938,1.5625
13:43:10.647,11.5625,-0.8125
13:43:10.657,10.5938,-2.6875
13:43:10.667,9.5625,-4.5625
13:43:10.677,8.3438,-5.5
13:43:10.686,7.3125,-8.375
13:43:10.696,6.2813,-9.8125
13:43:10.706,5.0938,-11.5
13:43:10.716,3.9375,-13.3126
13:43:10.727,3.3438,-14.6876
13:43:10.736,2.0938,-16.4376
13:43:10.746,1.75,-17.3126
13:43:10.756,0.8125,-19.1251
13:43:10.766,-0.5938,-19.5001
13:43:10.777,-1.25,-21.4376
13:43:10.787,-1.2813,-23.3126
13:43:10.798,-1.875,-24.0001
13:43:10.808,-3.0625,-26.2501
13:43:10.816,-3.5313,-25.8126
13:43:10.827,-4.4063,-28.5626
13:43:10.837,-4.5313,-28.4376
13:43:10.849,-5.625,-30.5001
13:43:10.865,-5.625,-30.2501
13:43:10.867,-6.5938,-32.6251
13:43:10.885,-7.5938,-32.6251
13:43:10.888,-8,-34.3751
13:43:10.922,-8.9063,-35.6876
13:43:10.924,-9.4375,-37.1251
13:43:10.927,-10,-37.0626
13:43:10.929,-10.5938,-38.7501
13:43:10.959,-11.4063,-39.4377
13:43:10.962,-12.25,-41.7502
13:43:10.964,-12.8125,-42.5002
13:43:10.966,-12.875,-44.2502
13:43:11.002,-13.5938,-44.5002
13:43:11.004,-13.7813,-46.0002
13:43:11.006,-13.6876,-44.9377
13:43:11.040,-10.3438,-42.1877
13:43:11.040,-6.1875,-34.3751
13:43:11.043,0.1875,-24.5001
13:43:11.047,8,-12.875
13:43:11.050,15.6251,0.625
13:43:11.079,22.6876,11.5
13:43:11.080,27.4064,21.4376
13:43:11.084,30.8751,28.3126
13:43:11.088,33.2189,32.0626
13:43:11.097,34.5314,36.4376
13:43:11.107,34.9376,36.5626
13:43:11.116,34.2814,38.3126
13:43:11.126,33.5939,36.6876
13:43:11.137,33.0626,36.6251
13:43:11.147,32.2814,34.9376
13:43:11.156,30.9689,34.8751
13:43:11.169,30.8439,33.8126
13:43:11.179,29.2814,31.2501
13:43:11.188,27.5314,29.6251
13:43:11.197,26.1563,27.8751
13:43:11.206,25.0313,25.4376
13:43:11.216,22.7188,22.6251
13:43:11.227,21.0938,21.2501
13:43:11.237,20.8126,19.5001
13:43:11.246,19.5001,16.8126
13:43:11.256,17.7813,16.9376
13:43:11.267,17.5938,15.3751
13:43:11.276,17.1563,14.8751
13:43:11.288,17.4376,14.6876
13:43:11.297,17.5001,14.9376
13:43:11.306,18.0313,15.5626
13:43:11.316,17.7813,14.7501
13:43:11.328,17.4688,14.5626
13:43:11.356,17.0938,14.8126
13:43:11.359,16.5001,13.2501
13:43:11.362,16.3126,12.5
13:43:11.366,15.8438,12.3125
13:43:11.377,14.7501,11.0625
13:43:11.387,13.1876,10.125
13:43:11.402,12.7813,6.5625
13:43:11.412,10.9688,5.75
13:43:11.422,9.8125,3.8125
13:43:11.431,8.1875,1.75
13:43:11.441,7.625,-0.375
13:43:11.451,6.125,-2.1875
13:43:11.463,4.3438,-3.5625
13:43:11.471,3.7188,-6.5
13:43:11.484,2.7813,-8.0625
13:43:11.491,2.5,-9.375
13:43:11.502,1.25,-10.4375
13:43:11.511,0.0938,-12.4375
13:43:11.521,-0.625,-13.8126
13:43:11.532,-1.5313,-16.0626
13:43:11.548,-1.8438,-17.4376
13:43:11.554,-3.1563,-18.9376
13:43:11.561,-4.25,-20.6876
13:43:11.571,-4.4688,-22.1876
13:43:11.581,-5.7188,-22.8751
13:43:11.592,-6.4688,-23.3126
13:43:11.602,-7.1563,-25.7501
13:43:11.611,-8.2188,-26.0626
13:43:11.634,-8.25,-28.0626
13:43:11.636,-9.5,-28.8126
13:43:11.644,-9.5938,-30.5626
13:43:11.673,-10.9063,-31.0001
13:43:11.679,-11.25,-32.5626
13:43:11.680,-11.9063,-33.0001
13:43:11.683,-12.625,-34.7501
13:43:11.718,-12.75,-36.0001
13:43:11.719,-13.8438,-36.5626
13:43:11.721,-13.7501,-37.7501
13:43:11.727,-14.4063,-39.5002
13:43:11.735,-15.3126,-40.2502
13:43:11.764,-15.8126,-40.3127
13:43:11.767,-16.5938,-42.1877
13:43:11.769,-17.4688,-44.5627
13:43:11.773,-18.1876,-44.9377
13:43:11.797,-18.6251,-47.1877
13:43:11.799,-18.5626,-47.0002
13:43:11.802,-19.2188,-48.0002
13:43:11.811,-18.3751,-47.0002
13:43:11.823,-15.1563,-43.8127
13:43:11.832,-9.8438,-36.6876
13:43:11.842,-2.8438,-24.6251
13:43:11.851,5.4063,-12.625
13:43:11.861,12.5625,2.0625
13:43:11.872,19.1251,12.625
13:43:11.881,24.0001,21.1251
13:43:11.892,28.3751,29.5626
13:43:11.906,30.8751,34.1876
13:43:11.923,32.5314,37.9376
13:43:11.925,33.3751,39.6877
13:43:11.931,33.7501,39.6877
13:43:11.942,32.7501,40.2502
13:43:11.951,32.2814,38.5001
13:43:11.961,31.2814,37.6251
13:43:11.971,29.9376,36.4376
13:43:11.981,29.0314,34.4376
13:43:11.992,28.6564,34.4376
13:43:12.004,27.4689,32.5626
13:43:12.011,25.8438,30.8751
13:43:12.022,24.7188,28.5626
13:43:12.031,23.7501,25.9376
13:43:12.042,21.1876,22.7501
13:43:12.051,20.5626,22.1251
13:43:12.062,19.8126,19.3126
13:43:12.073,18.0313,18.0001
13:43:12.082,18.0938,17.0626
13:43:12.092,17.4063,17.0626
13:43:12.102,18.2813,17.2501
13:43:12.111,17.8751,16.8751
13:43:12.122,18.3126,18.0001
13:43:12.133,18.1251,17.0001
13:43:12.142,18.3126,17.5626
13:43:12.161,17.5001,16.8126
13:43:12.164,17.8126,16.8751
13:43:12.179,16.6876,15.0626
13:43:12.184,16.2501,14.9376
13:43:12.193,14.6563,12.5625
13:43:12.201,13.8751,10.875
13:43:12.211,13.0625,9.9375
13:43:12.221,11.3125,8
13:43:12.231,10.4375,6
13:43:12.241,8.875,4.25
13:43:12.251,7.5625,2.5625
13:43:12.261,7.125,0.0625
13:43:12.273,5.4063,-1.5
13:43:12.281,4.2813,-3.5625
13:43:12.300,2.4063,-5
13:43:12.303,2.5938,-7.875
13:43:12.311,0.7188,-9.3125
13:43:12.321,0.3125,-11.375
13:43:12.331,-0.5625,-12.625
13:43:12.343,-1.4063,-14.0626
13:43:12.363,-2.9375,-15.0626
13:43:12.365,-3.7813,-17.2501
13:43:12.397,-5.0625,-18.9376
13:43:12.398,-5.2188,-19.9376
13:43:12.400,-6.125,-21.0001
13:43:12.403,-7.1563,-22.3751
13:43:12.438,-7.75,-24.2501
13:43:12.441,-8.1563,-25.6251
13:43:12.443,-8.875,-26.9376
13:43:12.444,-9.375,-27.8126
13:43:12.474,-10.4688,-27.9376
13:43:12.477,-10.4063,-30.1251
13:43:12.486,-11.6563,-30.4376
13:43:12.488,-10.8125,-31.6876
13:43:12.499,-11.9063,-32.5001
13:43:12.502,-12.125,-33.5626
13:43:12.534,-12.875,-34.3751
13:43:12.537,-12.9375,-35.9376
13:43:12.539,-14.2501,-36.8126
13:43:12.546,-15.9063,-37.6251
13:43:12.552,-16.5001,-39.7502
13:43:12.562,-17.4376,-41.1877
13:43:12.571,-17.7188,-42.8752
13:43:12.582,-18.9063,-44.9377
13:43:12.591,-18.3751,-44.8752
13:43:12.602,-18.3438,-47.1877
13:43:12.636,-18.6876,-46.5627
13:43:12.638,-18.5938,-48.6252
13:43:12.642,-18.4376,-47.3752
13:43:12.643,-16.5938,-45.8752
13:43:12.653,-12.6563,-40.1252
13:43:12.661,-6.375,-29.2501
13:43:12.673,2.2813,-17.4376
13:43:12.681,9.2813,-4.625
13:43:12.694,16.9376,9.625
13:43:12.702,23.4063,19.3751
13:43:12.711,28.3126,28.6876
13:43:12.723,31.9376,35.8126
13:43:12.733,34.4064,41.1877
13:43:12.742,35.0626,43.0627
13:43:12.752,35.8751,45.1252
13:43:12.762,35.9064,46.3752
13:43:12.772,35.8751,46.0002
13:43:12.782,34.7189,44.3752
13:43:12.792,33.5314,44.3127
13:43:12.802,32.1876,42.3752
13:43:12.812,30.3126,41.2502
13:43:12.823,28.6251,39.3752
13:43:12.831,26.9064,37.1251
13:43:12.841,25.0313,33.5001
13:43:12.851,22.7501,32.0626
13:43:12.861,21.2813,29.1876
13:43:12.872,20.8126,26.9376
13:43:12.882,19.1876,24.6876
13:43:12.891,18.8751,24.3126
13:43:12.902,18.9688,23.4376
13:43:12.911,19.2188,22.9376
13:43:12.922,20.5626,23.3751
13:43:12.931,20.8438,23.8126
13:43:12.942,21.1251,23.9376
13:43:12.951,21.6876,24.4376
13:43:12.961,21.7501,23.8751
13:43:12.972,22.4063,23.3126
13:43:12.982,21.6876,23.3126
13:43:12.992,21.3126,22.6876
13:43:13.002,21.0001,20.7501
13:43:13.011,20.4376,20.2501
13:43:13.022,20.2813,19.1876
13:43:13.032,19.9376,17.4376
13:43:13.062,19.4376,16.5001
13:43:13.064,17.8751,14.2501
13:43:13.067,17.2813,13.1251
13:43:13.074,16.6563,11.5
13:43:13.107,15.3438,11.0625
13:43:13.108,14.2501,9.625
13:43:13.110,13.5001,7.6875
13:43:13.113,11.6563,6.5
13:43:13.143,10.5313,4.625
13:43:13.144,8.8125,2.3125
13:43:13.147,7.4375,0.8125
13:43:13.174,6.2813,-0.625
13:43:13.176,4.2813,-1.9375
13:43:13.178,4.6563,-4.0625
13:43:13.184,3.3125,-5.5
13:43:13.230,1.75,-6.3125
13:43:13.231,1.0625,-7.5625
13:43:13.248,0.0625,-9.125
13:43:13.248,-0.75,-11.4375
13:43:13.248,-1.9063,-12.125
13:43:13.248,-1.7188,-13.125
13:43:13.253,-2.1875,-14.3751
13:43:13.263,-3.3125,-15.4376
13:43:13.273,-3.6563,-15.3126
13:43:13.282,-3.6563,-17.3126
13:43:13.292,-4.375,-18.5626
13:43:13.301,-4.9063,-19.1251
13:43:13.313,-5.3438,-20.3751
13:43:13.321,-6.0938,-21.6251
13:43:13.333,-5.7188,-21.4376
13:43:13.342,-6.25,-23.3126
13:43:13.353,-6,-23.6876
13:43:13.362,-6.0625,-23.9376
13:43:13.371,-5.625,-24.9376
13:43:13.382,-5.875,-25.4376
13:43:13.391,-6.6563,-25.8751
13:43:13.401,-6.3125,-25.6876
13:43:13.413,-5.25,-22.8126
13:43:13.423,-0.875,-17.7501
13:43:13.433,5.375,-8.375
13:43:13.443,11.7188,3.375
13:43:13.459,19.3126,16.0626
13:43:13.475,25.2501,26.5626
13:43:13.476,30.4064,37.6876
13:43:13.485,34.4064,45.5627
13:43:13.491,37.1876,52.4377
13:43:13.501,38.9064,56.2502
13:43:13.513,39.9689,60.3127
13:43:13.522,40.6252,61.8127
13:43:13.533,40.3752,63.3752
13:43:13.543,40.9064,64.2502
13:43:13.553,40.7814,64.1252
13:43:13.562,40.0939,65.0002
13:43:13.572,40.4064,63.9377
13:43:13.581,40.5939,63.2502
13:43:13.592,40.6877,62.1877
13:43:13.603,39.1876,60.0627
13:43:13.612,34.3126,56.5002
13:43:13.623,30.6564,53.0627
13:43:13.633,29.1876,50.5627
13:43:13.641,28.6876,47.6877
13:43:13.652,26.9064,46.0002
13:43:13.662,26.3126,44.6252
13:43:13.672,26.4689,45.3127
13:43:13.681,26.2813,44.6877
13:43:13.691,26.5939,44.9377
13:43:13.703,26.7501,45.8127
13:43:13.713,26.5939,47.3752
13:43:13.723,27.1251,47.5002
13:43:13.731,26.9376,46.5002
13:43:13.741,26.3751,47.7502
13:43:13.751,26.4376,47.0627
13:43:13.763,26.5314,47.1252
13:43:13.772,26.9064,46.3752
13:43:13.783,26.2501,45.5002
13:43:13.798,24.4688,44.7502
13:43:13.803,23.6563,41.7502
13:43:13.812,21.6563,40.4377
13:43:13.843,20.2501,37.4376
13:43:13.846,18.7813,35.3751
13:43:13.847,16.7813,33.3126
13:43:13.852,15.7501,31.1251
13:43:13.886,13.7188,28.6876
13:43:13.887,12.2188,26.8751
13:43:13.889,11.25,23.8751
13:43:13.916,9.8438,21.1251
13:43:13.922,9.0625,19.8126
13:43:13.922,8.2188,17.4376
13:43:13.923,7,15.1251
13:43:13.966,6.4063,13.125
13:43:13.967,5.9063,11
13:43:13.970,5.25,9.375
13:43:13.971,4.5938,6.0625
13:43:13.977,3.625,4.6875
13:43:14.000,3.6875,2.25
13:43:14.001,1.125,-0.6875
13:43:14.004,-0.8438,-3.625
13:43:14.011,-1.4375,-5.625
13:43:14.023,-2.5313,-8
13:43:14.032,-4.4375,-11.0625
13:43:14.044,-5.8438,-13.2501
13:43:14.052,-6.8438,-14.6876
13:43:14.063,-8.3438,-16.3126
13:43:14.074,-10.2188,-18.5626
13:43:14.082,-10.75,-19.9376
13:43:14.091,-12.4375,-22.0001
13:43:14.103,-14.0001,-22.7501
13:43:14.112,-14.5313,-25.6876
13:43:14.121,-15.7501,-27.9376
13:43:14.131,-17.1251,-28.7501
13:43:14.142,-18.1876,-31.0626
13:43:14.151,-19.5001,-33.3126
13:43:14.163,-20.8438,-34.9376
13:43:14.179,-21.2188,-36.5626
13:43:14.183,-21.4376,-37.6876
13:43:14.191,-21.6563,-39.1877
13:43:14.201,-22.0313,-39.5627
13:43:14.213,-20.9376,-39.9377
13:43:14.222,-18.4688,-36.0626
13:43:14.232,-13.8126,-31.6876
13:43:14.244,-7.8125,-21.3751
13:43:14.253,-1.0313,-11
13:43:14.262,5.8125,1.9375
13:43:14.272,11.9688,11.375
13:43:14.283,17.4063,19.9376
13:43:14.293,20.5001,26.6876
13:43:14.302,23.9063,32.0001
13:43:14.314,24.9688,35.5001
13:43:14.322,26.2813,37.4376
13:43:14.332,26.2813,37.8126
13:43:14.343,25.9063,39.0627
13:43:14.353,25.3751,37.1251
13:43:14.362,25.0313,37.1251
13:43:14.371,23.8126,36.7501
13:43:14.381,23.0626,34.5001
13:43:14.392,21.2188,34.0001
13:43:14.403,20.0626,31.1876
13:43:14.412,18.8751,29.0626
13:43:14.423,17.5313,27.0626
13:43:14.433,15.9376,25.0001
13:43:14.443,14.8751,21.4376
13:43:14.452,13.5626,19.3751
13:43:14.461,12.75,18.6876
13:43:14.473,12.4063,17.0001
13:43:14.481,11.7188,15.9376
13:43:14.575,10.9375,15.6251
13:43:14.577,10.6563,16.0001
13:43:14.578,10.75,15.0001
13:43:14.608,11.0938,15.9376
13:43:14.608,11.7188,15.6876
13:43:14.608,11.875,15.7501
13:43:14.609,12.4063,15.3126
13:43:14.610,12.125,16.0626
13:43:14.618,12.25,15.4376
13:43:14.623,11.8438,14.5626
13:43:14.656,10.7188,13
13:43:14.658,10.3125,11
13:43:14.660,8.875,9.4375
13:43:14.664,8.1875,8.375
13:43:14.676,8.2188,6.3125
13:43:14.684,7.4688,4.875
13:43:14.692,6.4375,3.25
13:43:14.702,5,1.875
13:43:14.711,4.25,-0.125
13:43:14.722,3.0313,-2.0625
13:43:14.731,2.1563,-3.375
13:43:14.743,0.875,-6
13:43:14.760,-3.375,-13.3126
13:43:14.763,-4.0625,-14.2501
13:43:14.777,-4.3125,-16.5626
13:43:14.788,-5.2813,-17.0626
13:43:14.795,-5.9375,-19.4376
13:43:14.803,-6.5938,-20.4376
13:43:14.812,-7.25,-21.3126
13:43:14.823,-8.0625,-22.0001
13:43:14.834,-8,-23.2501
13:43:14.844,-8.8125,-23.8751
13:43:14.852,-8.1563,-24.6876
13:43:14.862,-8.8125,-25.9376
13:43:14.872,-8.6563,-27.0001
13:43:14.882,-10.3438,-27.2501
13:43:14.891,-11.0625,-28.8126
13:43:14.903,-11.6563,-30.0626
13:43:14.912,-11.7188,-30.7501
13:43:14.923,-12.5938,-32.5626
13:43:14.933,-13.0938,-33.3126
13:43:14.942,-13.7813,-34.3126
13:43:14.952,-14.8438,-35.1251
13:43:14.962,-15.4376,-37.4376
13:43:14.974,-15.7188,-37.3751
13:43:14.983,-15.4376,-38.5626
13:43:14.991,-13.8126,-35.8126
13:43:15.003,-10.2188,-30.3126
13:43:15.012,-4.8438,-23.4376
13:43:15.023,1.25,-11.6875
13:43:15.032,8.0625,-2
13:43:15.042,13.4376,9.125
13:43:15.051,19.1563,18.2501
13:43:15.063,22.7188,25.2501
13:43:15.073,26.6876,32.5001
13:43:15.084,28.7814,37.1876
13:43:15.093,29.7501,40.3752
13:43:15.103,30.7501,41.9377
13:43:15.111,30.7814,42.7502
13:43:15.121,30.1876,43.9377
13:43:15.133,30.5001,43.1252
13:43:15.142,30.1564,44.0002
13:43:15.156,29.0001,42.6877
13:43:15.163,28.5939,43.3752
13:43:15.171,28.0314,40.8127
13:43:15.196,26.2501,40.9377
13:43:15.200,25.3751,37.8126
13:43:15.203,23.5313,35.5001
13:43:15.211,22.5001,33.9376
13:43:15.223,21.1251,33.0626
13:43:15.254,20.3751,30.1251
13:43:15.257,18.8438,28.1876
13:43:15.259,18.8751,28.6251
13:43:15.262,19.0001,27.6876
13:43:15.303,18.5313,26.6876
13:43:15.304,18.6251,27.9376
13:43:15.307,18.5626,27.0626
13:43:15.316,18.7501,27.5001
13:43:15.316,19.1563,28.0626
13:43:15.321,18.5001,27.9376
13:43:15.354,18.8751,27.5001
13:43:15.357,17.9376,27.0001
13:43:15.359,17.2188,26.2501
13:43:15.363,16.8438,24.3751
13:43:15.390,16.5938,23.8126
13:43:15.392,14.7501,22.5626
13:43:15.396,13.5001,20.7501
13:43:15.409,12,18.0001
13:43:15.413,10.5938,16.3126
13:43:15.429,9.7813,14.6251
13:43:15.432,8.8438,13.0625
13:43:15.448,8,11.125
13:43:15.458,7.2188,8.8125
13:43:15.467,6.2813,7.5625
13:43:15.478,6.125,6.1875
13:43:15.488,4.9063,4.4375
13:43:15.497,4.125,2.75
13:43:15.507,1.9375,0.6875
13:43:15.518,2.25,-0.375
13:43:15.527,1.3125,-1.625
13:43:15.538,1.4688,-2.3125
13:43:15.548,0.5313,-3.8125
13:43:15.557,-0.8438,-4.5625
13:43:15.568,-0.5,-6.8125
13:43:15.576,-1.8438,-7.125
13:43:15.588,-2.3125,-9.3125
13:43:15.598,-3.2188,-10
13:43:15.607,-4.7813,-10.6875
13:43:15.619,-4.5,-12.9375
13:43:15.627,-4.5938,-14.3126
13:43:15.638,-4.875,-14.5001
13:43:15.648,-5.8438,-15.9376
13:43:15.658,-6,-16.8126
13:43:15.668,-6.8438,-18.2501
13:43:15.678,-7.8125,-18.7501
13:43:15.690,-8.4688,-20.3751
13:43:15.698,-9.5,-20.6251
13:43:15.707,-9.2813,-23.0626
13:43:15.718,-10.9063,-23.5001
13:43:15.727,-11.3438,-25.5001
13:43:15.738,-10.9375,-26.9376
13:43:15.749,-12.1875,-27.7501
13:43:15.758,-12.375,-28.0001
13:43:15.768,-12.125,-29.3126
13:43:15.777,-11.8125,-28.1251
13:43:15.788,-9.625,-26.6251
13:43:15.802,-5.4375,-20.4376
13:43:15.808,0,-12.4375
13:43:15.819,5.7188,-2.3125
13:43:15.827,11.7813,7.375
13:43:15.845,17.3438,17.5626
13:43:15.859,22.0938,25.5001
13:43:15.862,25.8751,33.0001
13:43:15.869,28.9689,39.0001
13:43:15.879,30.8126,43.0627
13:43:15.887,31.3126,43.8127
13:43:15.898,31.2189,46.3127
13:43:15.907,31.0626,45.6252
13:43:15.918,31.1251,46.3752
13:43:15.929,30.4064,45.3752
13:43:15.937,29.9064,45.5002
13:43:15.949,28.8439,44.3752
13:43:15.959,28.1564,44.2502
13:43:15.967,27.0939,42.6877
13:43:15.978,25.7501,41.1252
13:43:15.988,24.4376,39.3127
13:43:15.998,22.6876,37.0626
13:43:16.007,21.1563,33.9376
13:43:16.018,19.9376,33.8126
13:43:16.026,19.4688,31.1251
13:43:16.038,18.5001,29.3751
13:43:16.080,17.6251,28.2501
13:43:16.081,17.6251,27.9376
13:43:16.145,17.7188,27.2501
13:43:16.216,16.8126,26.7501
13:43:16.218,16.8126,27.2501
13:43:16.220,17.4063,26.8751
13:43:16.221,17.3126,26.2501
13:43:16.221,16.7501,26.2501
13:43:16.236,16.4376,25.5001
13:43:16.238,15.5313,23.5001
13:43:16.248,14.5001,22.5626
13:43:16.258,13.7501,22.0001
13:43:16.267,13.6251,19.5626
13:43:16.279,11.5,17.8126
13:43:16.288,10.9688,16.1876
13:43:16.296,9.8125,13.5626
13:43:16.308,8.1563,11.5625
13:43:16.318,6.9375,9.9375
13:43:16.328,6.25,7.875
13:43:16.338,5.1563,5.4375
13:43:16.347,3.8438,3.375
13:43:16.358,2.0938,1.3125
13:43:16.368,1.5938,0.0625
13:43:16.378,0.25,-2.5
13:43:16.387,-9.8438,-21.8751
13:43:16.398,-9.875,-22.0626
13:43:16.407,-10.5,-24.0626
13:43:16.418,-11.7813,-24.8126
13:43:16.428,-12,-26.2501
13:43:16.439,-12.375,-27.6876
13:43:16.448,-13.2501,-28.3751
13:43:16.476,-13.2813,-30.0001
13:43:16.479,-13.7188,-31.0626
13:43:16.480,-14.9688,-31.7501
13:43:16.488,-15.4376,-32.7501
13:43:16.497,-15.5313,-33.9376
13:43:16.507,-16.5313,-35.8126
13:43:16.518,-17.7188,-36.6251
13:43:16.528,-18.0001,-37.7501
13:43:16.538,-18.0001,-39.4377
13:43:16.547,-19.5313,-40.2502
13:43:16.557,-20.2501,-42.1252
13:43:16.568,-21.3126,-43.3752
13:43:16.578,-22.0313,-44.5627
13:43:16.587,-22.1251,-46.6877
13:43:16.598,-22.0313,-46.5002
13:43:16.610,-22.9688,-48.2502
13:43:16.618,-21.9063,-47.0627
13:43:16.628,-19.3438,-43.9377
13:43:16.637,-14.4688,-37.0626
13:43:16.647,-7.6563,-27.1251
13:43:16.657,-0.5938,-15.0001
13:43:16.668,6.6563,-3
13:43:16.678,12.7813,8
13:43:16.688,18.0626,16.8751
13:43:16.697,22.2188,25.5001
13:43:16.707,25.7813,31.2501
13:43:16.718,27.0314,35.0001
13:43:16.728,28.2189,37.7501
13:43:16.737,28.2501,39.5002
13:43:16.764,28.8439,40.0002
13:43:16.766,28.0314,39.6877
13:43:16.770,27.8126,39.3752
13:43:16.801,26.5314,38.8126
13:43:16.805,26.3126,38.2501
13:43:16.807,25.5626,37.0001
13:43:16.813,24.7501,36.9376
13:43:16.839,23.6251,34.8751
13:43:16.843,22.0626,32.7501
13:43:16.845,20.8438,29.8126
13:43:16.849,18.7813,27.1876
13:43:16.885,17.9688,26.3751
13:43:16.888,17.0313,23.8751
13:43:16.895,15.9688,23.3751
13:43:16.919,15.9063,23.2501
13:43:16.920,15.9063,22.2501
13:43:16.921,16.5938,23.0001
13:43:16.926,16.3438,22.8751
13:43:16.928,16.9688,23.8751
13:43:16.937,17.2188,23.3126
13:43:16.947,17.8751,24.0001
13:43:16.958,17.3126,23.3126
13:43:16.968,16.8751,23.6876
13:43:16.984,16.1563,21.8126
13:43:16.987,16.2188,21.1876
13:43:16.997,15.0938,19.8751
13:43:17.008,14.2188,18.9376
13:43:17.018,13,16.2501
13:43:17.027,11.5625,14.5626
13:43:17.038,11.2813,12.875
13:43:17.047,9.8125,11.6875
13:43:17.058,8.9688,9.25
13:43:17.068,7.1563,7.875
13:43:17.078,6.625,6.0625
13:43:17.088,6.0313,4.125
13:43:17.097,5.2188,3
13:43:17.108,4.5,0.6875
13:43:17.118,3.4375,-1
13:43:17.127,2.625,-2.8125
13:43:17.144,1.875,-4.875
13:43:17.150,1,-5.75
13:43:17.166,-0.2188,-8.0625
13:43:17.168,-0.7813,-9.5625
13:43:17.183,-1.0938,-10.5
13:43:17.188,-1.75,-11.125
13:43:17.197,-2,-12.5
13:43:17.209,-3.0938,-13.7501
13:43:17.218,-3.25,-14.6876
13:43:17.228,-4.0313,-16.6251
13:43:17.237,-4.8438,-17.0626
13:43:17.247,-5,-18.2501
13:43:17.258,-5.875,-19.5001
13:43:17.267,-6.3438,-20.2501
13:43:17.278,-7.1875,-20.8751
13:43:17.287,-7.2813,-23.2501
13:43:17.297,-7.75,-23.8126
13:43:17.307,-8.375,-25.3126
13:43:17.318,-9.6563,-26.0001
13:43:17.327,-10.1875,-28.2501
13:43:17.339,-11.0938,-28.6251
13:43:17.348,-11.1875,-30.2501
13:43:17.365,-11.25,-31.3751
13:43:17.370,-13.1563,-32.7501
13:43:17.379,-13.5313,-34.2501
13:43:17.387,-13.5626,-34.3751
13:43:17.398,-13.7813,-36.0001
13:43:17.408,-12.4375,-34.8126
13:43:17.418,-10.0313,-29.8126
13:43:17.427,-4.8125,-24.0001
13:43:17.438,1.4375,-13.3751
13:43:17.456,7.9375,-2.8125
13:43:17.459,14.1251,8.0625
13:43:17.474,20.1563,18.7501
13:43:17.516,25.6876,27.6251
13:43:17.518,29.2501,34.6876
13:43:17.548,32.3751,40.9377
13:43:17.550,33.9689,43.6877
13:43:17.550,35.0001,46.8752
13:43:17.551,35.3126,48.1877
13:43:17.553,35.0626,48.9377
13:43:17.560,34.8126,49.3752
13:43:17.564,34.4376,49.6877
13:43:17.577,33.6876,49.5627
13:43:17.580,33.1564,48.6877
13:43:17.610,32.0314,48.3752
13:43:17.612,31.5314,46.7502
13:43:17.615,29.5001,44.8127
13:43:17.623,28.7814,43.3752
13:43:17.628,27.0314,41.0627
13:43:17.654,25.7501,38.2501
13:43:17.656,24.2188,36.3751
13:43:17.659,23.5626,34.7501
13:43:17.667,22.6563,33.5626
13:43:17.677,22.5938,32.1876
13:43:17.687,22.1876,32.1251
13:43:17.698,22.6876,32.3751
13:43:17.708,22.7188,32.2501
13:43:17.717,22.8126,33.4376
13:43:17.727,23.0938,33.3751
13:43:17.756,22.7501,32.9376
13:43:17.758,22.2501,32.8126
13:43:17.760,21.0001,31.0001
13:43:17.774,20.5938,30.7501
13:43:17.779,20.2188,28.2501
13:43:17.788,19.3438,27.5626
13:43:17.798,17.7188,25.6251
13:43:17.809,16.2188,23.6251
13:43:17.818,16.0001,21.8751
13:43:17.827,13.9688,19.7501
13:43:17.838,13.4376,17.8751
13:43:17.848,11.0625,16.1876
13:43:17.857,10.625,13.6251
13:43:17.867,9.125,11.8125
13:43:17.877,7.5938,10.0625
13:43:17.887,6.9063,6.6875
13:43:17.898,5.0625,5.5625
13:43:17.908,4.2813,3.875
13:43:17.918,3.625,1.1875
13:43:17.927,2.4375,-0.4375
13:43:17.938,1.75,-2.3125
13:43:17.948,0.3438,-3.125
13:43:17.958,-0.4688,-5
13:43:17.968,-1.0938,-6.625
13:43:17.979,-2.125,-6.9375
13:43:17.988,-1.9063,-10.3125
13:43:17.997,-3.5313,-10
13:43:18.008,-3.4063,-12.9375
13:43:18.017,-4.7813,-13.7501
13:43:18.027,-5.5,-14.9376
13:43:18.038,-6.5938,-17.9376
13:43:18.047,-7.2813,-18.3126
13:43:18.057,-7.75,-19.5626
13:43:18.067,-8.8438,-21.3126
13:43:18.078,-8.9375,-22.0626
13:43:18.088,-9.8438,-23.1251
13:43:18.098,-9.75,-24.6251
13:43:18.107,-11.1563,-26.1876
13:43:18.118,-11.9375,-27.8126
13:43:18.127,-12.3438,-28.6876
13:43:18.164,-12.875,-30.4376
13:43:18.166,-14.4063,-31.1251
13:43:18.169,-14.9063,-33.7501
13:43:18.175,-15.0938,-34.9376
13:43:18.178,-17.1563,-35.6876
13:43:18.210,-17.6251,-38.0626
13:43:18.214,-16.0001,-38.0001
13:43:18.215,-17.2188,-39.0001
13:43:18.221,-16.7188,-38.8751
13:43:18.230,-13.8126,-34.1251
13:43:18.253,-8.875,-27.4376
13:43:18.255,-2.5625,-17.2501
13:43:18.258,4.4688,-5.1875
13:43:18.268,11.875,6.6875
13:43:18.299,18.2188,18.5001
13:43:18.301,23.7813,29.0626
13:43:18.303,28.5626,36.1876
13:43:18.310,31.7814,44.4377
13:43:18.318,34.2189,48.5627
13:43:18.328,34.9376,52.6252
13:43:18.338,36.2189,54.1252
13:43:18.348,36.6564,56.5627
13:43:18.359,36.4689,55.8127
13:43:18.367,35.4064,56.5627
13:43:18.378,35.1251,55.6252
13:43:18.388,34.1564,55.3752
13:43:18.398,33.5626,54.3127
13:43:18.407,32.1251,54.0627
13:43:18.418,30.8751,52.0002
13:43:18.428,30.1564,49.6252
13:43:18.438,28.5626,48.2502
13:43:18.459,27.1564,46.4377
13:43:18.462,26.8126,43.8752
13:43:18.470,24.1876,41.4377
13:43:18.479,23.4063,40.5002
13:43:18.492,23.8126,40.6877
13:43:18.502,22.9063,39.5627
13:43:18.507,21.3751,37.9376
13:43:18.518,21.7501,38.5001
13:43:18.528,22.0313,37.1876
13:43:18.537,21.2501,38.3751
13:43:18.548,21.6563,37.0626
13:43:18.558,21.2501,37.7501
13:43:18.568,21.3438,36.6876
13:43:18.578,20.5001,35.8126
13:43:18.588,19.6251,35.0626
13:43:18.598,19.1251,33.0626
13:43:18.608,17.8751,31.5626
13:43:18.617,15.8438,28.7501
13:43:18.628,14.8751,27.1876
13:43:18.637,12.75,25.0626
13:43:18.647,10.9063,22.0001
13:43:18.658,9.2188,18.8751
13:43:18.667,8.0625,16.8126
13:43:18.678,6.8438,14.1251
13:43:18.694,5.9063,12.3125
13:43:18.698,4.875,9.4375
13:43:18.708,3.125,7.0625
13:43:18.718,2.375,5.4375
13:43:18.728,1.0938,3.0625
13:43:18.738,0.1563,0.625
13:43:18.748,-1.1875,-1.0625
13:43:18.758,-2.5938,-3.375
13:43:18.767,-3.6563,-5.6875
13:43:18.777,-5.0938,-7.875
13:43:18.788,-6.25,-9.5625
13:43:18.808,-6.1875,-11.125
13:43:18.810,-8.2188,-12.6875
13:43:18.820,-8.3438,-14.8751
13:43:18.840,-9.5938,-16.1251
13:43:18.842,-10.5938,-17.3751
13:43:18.851,-10.7188,-19.8126
13:43:18.858,-12.4688,-20.8126
13:43:18.867,-12.625,-22.6876
13:43:18.897,-13.7501,-24.2501
13:43:18.901,-14.1876,-25.3126
13:43:18.902,-14.8438,-27.5001
13:43:18.908,-14.9063,-27.6876
13:43:18.938,-16.1251,-30.4376
13:43:18.939,-16.6251,-31.3126
13:43:18.941,-18.3126,-31.3126
13:43:18.971,-18.5938,-34.5001
13:43:18.972,-19.6251,-35.1876
13:43:18.975,-20.5938,-37.7501
13:43:18.983,-20.8126,-39.0001
13:43:18.991,-22.5001,-40.4377
13:43:18.999,-22.0938,-41.9377
13:43:19.039,-23.5313,-42.7502
13:43:19.040,-23.1876,-43.9377
13:43:19.043,-24.0001,-45.3127
13:43:19.049,-22.5626,-42.8752
13:43:19.051,-18.6876,-38.6251
13:43:19.059,-13.0938,-28.5626
13:43:19.070,-6.4375,-17.9376
13:43:19.077,0.9063,-4.8125
13:43:19.088,8.7813,7.625
13:43:19.098,15.3126,19.5626
13:43:19.107,20.6251,29.0626
13:43:19.117,24.6251,37.0001
13:43:19.128,27.4376,41.9377
13:43:19.137,30.0939,47.1252
13:43:19.147,30.6564,48.3127
13:43:19.157,30.4064,50.1877
13:43:19.168,30.0001,50.3752
13:43:19.177,29.1564,50.0627
13:43:19.188,28.5939,48.6252
13:43:19.198,27.3126,48.5627
13:43:19.209,26.5939,47.6877
13:43:19.218,25.5001,46.0002
13:43:19.228,24.0626,44.2502
13:43:19.238,22.7501,41.8752
13:43:19.248,20.9063,39.1876
13:43:19.257,19.3126,36.3751
13:43:19.267,17.7813,35.3126
13:43:19.279,17.0938,33.0626
13:43:19.288,15.7813,30.1251
13:43:19.298,15.1251,29.1876
13:43:19.307,14.5001,28.6251
13:43:19.318,14.1251,28.0001
13:43:19.329,13.9063,28.5626
13:43:19.338,13.7501,29.3751
13:43:19.348,13.9688,28.5626
13:43:19.357,13.6563,29.0001
13:43:19.367,15.0313,29.1876
13:43:19.378,14.3751,28.8751
13:43:19.388,13.6251,28.5001
13:43:19.398,12.875,27.0001
13:43:19.408,12,26.5001
13:43:19.418,11.0313,23.5626
13:43:19.428,9.8125,22.1251
13:43:19.444,9.25,20.2501
13:43:19.449,7.7813,18.6876
13:43:19.459,7.0313,16.8751
13:43:19.468,5.5313,14.0626
13:43:19.478,4.125,12.6875
13:43:19.487,3.3438,9.6875
13:43:19.497,1.4375,7.5
13:43:19.508,0.25,5.5
13:43:19.517,-1.0938,2.375
13:43:19.528,-1.8438,1.4375
13:43:19.538,-2.5313,-0.9375
13:43:19.553,-2.75,-2.5
13:43:19.563,-3.6563,-4.375
13:43:19.572,-4.9375,-6.25
13:43:19.583,-5.3438,-7.5625
13:43:19.603,-6.5,-9.4375
13:43:19.605,-6.6875,-10.6875
13:43:19.639,-8.4375,-11.9375
13:43:19.640,-9.0313,-13.6251
13:43:19.643,-9.4688,-15.7501
13:43:19.645,-10.5938,-16.8751
13:43:19.654,-11.0625,-18.5001
13:43:19.687,-11.375,-19.6251
13:43:19.688,-12.25,-20.1251
13:43:19.691,-12.8438,-20.8751
13:43:19.693,-12.7813,-23.3751
13:43:19.730,-14.0001,-24.3126
13:43:19.734,-14.7813,-26.3126
13:43:19.735,-14.8438,-27.8126
13:43:19.746,-15.0938,-28.6251
13:43:19.749,-16.7813,-30.5626
13:43:19.779,-17.1563,-32.1876
13:43:19.782,-18.6563,-32.4376
13:43:19.798,-19.0313,-35.6251
13:43:19.812,-19.0938,-36.3126
13:43:19.812,-20.2501,-37.2501
13:43:19.814,-19.3126,-37.5001
13:43:19.825,-17.2501,-35.6876
13:43:19.827,-14.2813,-28.7501
13:43:19.838,-8.125,-21.8751
13:43:19.848,-1.9688,-9.125
13:43:19.858,5.5313,2.3125
13:43:19.867,11.9375,14.3126
13:43:19.877,18.7188,25.7501
13:43:19.888,23.6876,35.3126
13:43:19.898,27.7814,42.9377
13:43:19.907,31.4064,49.0627
13:43:19.919,33.0939,53.7502
13:43:19.928,34.1564,56.4377
13:43:19.938,34.0626,57.6252
13:43:19.949,34.3126,59.9377
13:43:19.957,34.0314,59.9377
13:43:19.968,34.4064,60.7502
13:43:19.977,33.0939,59.6252
13:43:19.987,32.3126,59.7502
13:43:19.998,31.3439,58.1877
13:43:20.008,30.1251,56.5002
13:43:20.019,29.0626,54.9377
13:43:20.027,26.6876,51.8127
13:43:20.039,24.9376,51.0627
13:43:20.048,23.9063,47.6252
13:43:20.059,22.7188,45.4377
13:43:20.067,21.5938,43.5627
13:43:20.077,21.0313,41.7502
13:43:20.088,19.8751,41.8127
13:43:20.099,20.0313,40.8752
13:43:20.107,19.1876,40.4377
13:43:20.126,18.8751,40.7502
13:43:20.129,18.7813,40.0627
13:43:20.143,18.8126,40.8127
13:43:20.151,18.5626,39.3752
13:43:20.157,18.9063,39.6252
13:43:20.167,18.4376,38.7501
13:43:20.177,17.2501,37.9376
13:43:20.188,16.0313,36.1876
13:43:20.202,15.6251,33.8126
13:43:20.208,13.0625,32.5626
13:43:20.218,11.5625,29.6876
13:43:20.228,10,26.1876
13:43:20.238,8.7813,24.6876
13:43:20.248,7.1563,21.8751
13:43:20.258,5.6875,20.0626
13:43:20.267,4.6563,17.0001
13:43:20.278,3.125,15.0626
13:43:20.287,2.6875,12.4375
13:43:20.317,1.1563,10.5625
13:43:20.318,-0.0313,8.6875
13:43:20.320,-1,6.5
13:43:20.328,-2.125,4.5
13:43:20.338,-3.1563,2.125
13:43:20.348,-4,-0.25
13:43:20.358,-4.9063,-2.125
13:43:20.367,-5.6563,-3.375
13:43:20.378,-7,-5.125
13:43:20.404,-7.8125,-7.5
13:43:20.406,-8.6563,-8.5
13:43:20.408,-9.3438,-10.5625
13:43:20.420,-10.625,-11.875
13:43:20.451,-11.5938,-14.7501
13:43:20.453,-12.25,-15.3126
13:43:20.456,-12.875,-17.5626
13:43:20.483,-13.5313,-17.9376
13:43:20.484,-13.5938,-20.0001
13:43:20.488,-13.8438,-20.0001
13:43:20.494,-15.1251,-21.8126
13:43:20.501,-15.3751,-23.5001
13:43:20.535,-17.4376,-24.3126
13:43:20.537,-17.8126,-27.1876
13:43:20.539,-17.3438,-28.1876
13:43:20.544,-19.2188,-30.0626
13:43:20.549,-20.0313,-32.5001
13:43:20.567,-21.0001,-32.6876
13:43:20.569,-22.2188,-36.0001
13:43:20.583,-22.6251,-37.3126
13:43:20.594,-24.1876,-37.1251
13:43:20.603,-22.9063,-39.6877
13:43:20.613,-21.7813,-36.3751
13:43:20.623,-18.2501,-32.6251
13:43:20.633,-12.9688,-24.0626
13:43:20.644,-6.0313,-13.3751
13:43:20.652,1.9375,0.4375
13:43:20.663,9.625,12.25
13:43:20.673,15.7501,24.5626
13:43:20.682,21.5313,34.8751
13:43:20.692,26.7501,44.5002
13:43:20.703,30.1876,50.8752
13:43:20.713,31.5314,56.2502
13:43:20.723,33.3439,59.3127
13:43:20.733,33.2814,61.0627
13:43:20.743,33.6564,63.1252
13:43:20.752,33.4689,64.9377
13:43:20.763,33.0001,63.5627
13:43:20.773,32.8751,64.6252
13:43:20.782,31.4064,62.6877
13:43:20.794,30.9376,62.6877
13:43:20.802,29.2814,60.7502
13:43:20.813,27.7814,60.2502
13:43:20.823,26.4689,57.1252
13:43:20.832,24.0938,54.0627
13:43:20.843,22.5313,51.6252
13:43:20.853,21.6251,49.6877
13:43:20.863,20.0001,47.0627
13:43:20.873,19.5938,45.8127
13:43:20.883,18.1563,45.0002
13:43:20.893,17.6563,43.4377
13:43:20.903,17.5313,42.8752
13:43:20.913,17.0001,43.2502
13:43:20.923,17.2188,42.7502
13:43:20.933,16.5313,41.6252
13:43:20.943,16.6876,42.5627
13:43:20.960,16.3126,41.0627
13:43:20.964,16.4376,41.2502
13:43:20.973,15.9688,39.2501
13:43:20.983,14.8438,37.8751
13:43:20.993,13.2501,35.5001
13:43:21.003,10.8125,32.8751
13:43:21.013,10.7188,31.0001
13:43:21.023,8.5313,29.2501
13:43:21.032,7.375,26.8126
13:43:21.043,6.3438,23.8751
13:43:21.053,4.3438,21.6876
13:43:21.063,3.25,18.1251
13:43:21.084,1.4063,15.1251
13:43:21.149,-0.25,13
13:43:21.149,-2.8125,8.625
13:43:21.175,-4.9375,6.25
13:43:21.175,-7,2.625
13:43:21.175,-9.6875,-0.625
13:43:21.177,-12.5,-4.25
13:43:21.183,-18.4063,-9
13:43:21.185,-24.7813,-14.3751
13:43:21.187,-34.2501,-21.1876
13:43:21.214,-56.7502,-36.7501
13:43:21.217,-79.5003,-49.4377
13:43:21.219,-101.4691,-66.0628
13:43:21.249,-119.688,-77.6878
13:43:21.253,-142.5005,-93.4379
13:43:21.253,-167.1881,-109.9379
13:43:21.260,-193.3445,-128.2505
13:43:21.271,-207.3445,-137.1255
13:43:21.279,-203.782,-134.563
13:43:21.288,-198.1883,-130.6255
13:43:21.297,-193.032,-127.938
13:43:21.307,-195.0945,-128.938
13:43:21.318,-190.8132,-126.7505
13:43:21.331,-189.4382,-124.938
13:43:21.338,-189.407,-125.313
13:43:21.349,-188.3757,-124.5005
13:43:21.358,-185.2507,-122.438
13:43:21.368,-184.7507,-122.5005
13:43:21.378,-183.282,-121.5005
13:43:21.389,-178.9382,-119.3755
13:43:21.398,-175.2507,-116.3129
13:43:21.408,-170.5006,-113.8129
13:43:21.429,-165.9069,-108.4379
13:43:21.432,-159.5944,-103.0629
13:43:21.446,-152.0631,-94.1879
13:43:21.449,-145.0005,-83.3753
13:43:21.464,-137.8755,-73.2503
13:43:21.469,-129.4692,-60.0002
13:43:21.478,-122.9692,-47.5627
13:43:21.488,-115.5317,-36.1876
13:43:21.497,-110.0004,-24.2501
13:43:21.507,-103.8129,-16.9376
13:43:21.517,-101.3441,-9.75
13:43:21.527,-100.1879,-6.0625
13:43:21.538,-99.6254,-3.875
13:43:21.548,-99.4691,-1
13:43:21.558,-99.1879,-0.9375
13:43:21.569,-97.8441,0.625
13:43:21.597,-96.6566,2.5
13:43:21.598,-95.5941,2.6875
13:43:21.600,-94.6566,3.25
13:43:21.608,-94.3441,2.5
13:43:21.619,-94.1879,2.0625
13:43:21.628,-93.9066,0.375
13:43:21.638,-95.4379,-1
13:43:21.648,-96.9066,-4.75
13:43:21.658,-97.4066,-7.125
13:43:21.668,-98.3441,-8.6875
13:43:21.678,-96.6566,-10.25
13:43:21.687,-95.4379,-10.75
13:43:21.698,-94.9691,-10.3125
13:43:21.712,-92.6254,-11.5
13:43:21.718,-91.9691,-10.5625
13:43:21.728,-90.3754,-10.9375
13:43:21.737,-86.9066,-9.8125
13:43:21.748,-83.8128,-8.25
13:43:21.757,-81.5628,-6.5
13:43:21.768,-79.3753,-6.8125
13:43:21.778,-77.5628,-6.25
13:43:21.788,-78.3753,-6.4375
13:43:21.798,-78.6566,-7.9375
13:43:21.807,-79.3128,-10.1875
13:43:21.818,-79.3441,-12.5625
13:43:21.828,-82.3128,-16.0001
13:43:21.837,-84.2503,-19.0001
13:43:21.848,-86.3128,-21.4376
13:43:21.858,-88.2191,-25.1251
13:43:21.867,-88.2816,-26.8126
13:43:21.883,-89.5003,-27.5626
13:43:21.889,-89.6253,-29.8751
13:43:21.923,-89.1253,-32.1251
13:43:21.924,-89.4691,-33.6251
13:43:21.927,-88.6878,-35.7501
13:43:21.929,-86.7191,-36.3126
13:43:21.958,-87.4066,-36.7501
13:43:21.961,-88.4691,-40.8752
13:43:21.963,-88.0316,-41.3127
13:43:21.998,-87.5628,-42.1877
13:43:21.998,-86.3441,-43.2502
13:43:21.999,-87.4691,-44.4377
13:43:22.006,-88.5003,-47.4377
13:43:22.012,-87.5941,-47.3752
13:43:22.049,-86.2816,-48.1252
13:43:22.052,-84.7191,-48.5627
13:43:22.054,-84.6878,-47.6877
13:43:22.056,-83.9691,-50.4377
13:43:22.059,-83.2191,-50.9377
13:43:22.068,-83.2191,-51.8127
13:43:22.078,-81.0941,-51.6877
13:43:22.089,-79.5941,-51.4377
13:43:22.098,-79.2816,-53.5002
13:43:22.108,-79.7816,-54.1252
13:43:22.118,-79.9066,-56.5627
13:43:22.128,-78.6878,-57.1252
13:43:22.137,-78.6253,-56.2502
13:43:22.147,-77.844,-59.1252
13:43:22.159,-78.469,-60.3127
13:43:22.167,-78.0003,-61.7502
13:43:22.178,-77.1878,-62.5002
13:43:22.188,-75.7815,-62.1252
13:43:22.197,-73.6878,-61.4377
13:43:22.208,-70.5315,-57.1252
13:43:22.217,-65.719,-51.3127
13:43:22.228,-59.3752,-41.9377
13:43:22.238,-51.9689,-32.2501
13:43:22.248,-46.0939,-20.3751
13:43:22.258,-40.0002,-11.1875
13:43:22.268,-34.6251,-1.125
13:43:22.278,-30.2189,7.25
13:43:22.289,-26.0938,14.6876
13:43:22.297,-22.4063,20.6251
13:43:22.307,-20.3751,24.5001
13:43:22.318,-17.9063,27.8751
13:43:22.328,-17.2501,29.8126
13:43:22.338,-16.7188,30.5626
13:43:22.347,-16.2501,31.0001
13:43:22.358,-16.2501,31.0001
13:43:22.368,-15.0313,31.6876
13:43:22.378,-15.0313,31.5001
13:43:22.395,-13.9376,31.2501
13:43:22.402,-14.0313,30.7501
13:43:22.416,-12.875,29.3751
13:43:22.419,-12.5,28.4376
13:43:22.434,-10.9375,26.5626
13:43:22.439,-10.375,25.6251
13:43:22.447,-9.375,24.0626
13:43:22.464,-11.5625,21.9376
13:43:22.469,-9.5625,20.3126
13:43:22.477,-9.4063,20.5626
13:43:22.488,-7.7188,19.7501
13:43:22.498,-7.6563,20.9376
13:43:22.508,-7.1563,19.0626
13:43:22.518,-7.2188,20.3751
13:43:22.527,-7,18.8126
13:43:22.537,-5.625,20.6876
13:43:22.548,-7,18.8751
13:43:22.557,-8.3438,16.5626
13:43:22.580,-9.625,16.0001
13:43:22.583,-10.9688,12.9375
13:43:22.591,-12.75,10.875
13:43:22.616,-15.0626,7.8125
13:43:22.619,-18.1876,4.5625
13:43:22.623,-20.3438,1.375
13:43:22.628,-22.7188,-1.25
13:43:22.663,-22.6563,-3.8125
13:43:22.663,-24.4688,-5.4375
13:43:22.665,-25.4063,-8.125
13:43:22.674,-28.0314,-11.1875
13:43:22.698,-29.1251,-13.3751
13:43:22.700,-30.5001,-15.1251
13:43:22.703,-30.5939,-17.7501
13:43:22.733,-32.5626,-20.1876
13:43:22.737,-33.3439,-21.8126
13:43:22.750,-33.0939,-23.5001
13:43:22.758,-34.0001,-24.0626
13:43:22.758,-34.1564,-27.0626
13:43:22.760,-34.6251,-28.6251
13:43:22.768,-34.6564,-29.7501
13:43:22.778,-32.9064,-29.9376
13:43:22.787,-33.3439,-30.6876
13:43:22.798,-33.1251,-32.5001
13:43:22.808,-32.7189,-32.8126
13:43:22.819,-32.5001,-33.9376
13:43:22.827,-32.2189,-34.4376
13:43:22.839,-32.0626,-35.8751
13:43:22.848,-32.5626,-36.8751
13:43:22.876,-32.7501,-38.6876
13:43:22.878,-32.8439,-39.3127
13:43:22.881,-32.3751,-41.8752
13:43:22.890,-32.6876,-41.7502
13:43:22.898,-34.1876,-44.3127
13:43:22.909,-35.4689,-45.6252
13:43:22.918,-37.3126,-48.6252
13:43:22.928,-40.0002,-51.0627
13:43:22.937,-41.5939,-54.0627
13:43:22.947,-43.3127,-55.5002
13:43:22.958,-45.3127,-57.8127
13:43:22.968,-47.1564,-60.1252
13:43:22.978,-47.6877,-60.3752
13:43:22.987,-46.0002,-58.0627
13:43:22.998,-42.0627,-53.2502
13:43:23.009,-36.5001,-44.3127
13:43:23.018,-27.9064,-32.6251
13:43:23.028,-19.7188,-20.4376
13:43:23.038,-12.8438,-8.9375
13:43:23.048,-6.9688,1.5
13:43:23.058,-2.125,11.6875
13:43:23.067,2,19.6876
13:43:23.077,4.9375,26.0001
13:43:23.088,7.0313,31.3126
13:43:23.097,7.9688,35.3751
13:43:23.108,9.25,37.6876
13:43:23.119,9.0625,39.5627
13:43:23.128,9.6875,40.8752
13:43:23.138,10.0938,40.8127
13:43:23.148,8.9063,42.1252
13:43:23.158,9.2188,41.4377
13:43:23.168,9.25,42.0627
13:43:23.178,8.875,41.1877
13:43:23.187,7.4375,39.8752
13:43:23.198,6.5313,37.7501
13:43:23.214,3.8125,35.1876
13:43:23.219,2.7813,31.8751
13:43:23.227,1.8438,29.8126
13:43:23.238,-0.0938,28.1876
13:43:23.247,-0.7813,26.0001
13:43:23.258,-2.5313,25.1251
13:43:23.268,-2.8125,23.3751
13:43:23.279,-3.1875,24.2501
13:43:23.288,-2.4063,23.1251
13:43:23.298,-3.75,23.8751
13:43:23.308,-4,22.4376
13:43:23.318,-5.5,22.3126
13:43:23.327,-6.375,21.0626
13:43:23.363,-7.4375,19.0626
13:43:23.365,-7.5938,18.6251
13:43:23.368,-8.125,16.6876
13:43:23.370,-8.2188,15.7501
13:43:23.405,-9.2813,13.0625
13:43:23.408,-10.1563,11.5
13:43:23.409,-10.5313,10
13:43:23.414,-9.7188,7.0625
13:43:23.421,-11.4063,5.8125
13:43:23.458,-11.875,1.9375
13:43:23.460,-13.3438,0.4375
13:43:23.462,-12.7813,-2.75
13:43:23.464,-12.625,-3.375
13:43:23.469,-12.125,-5.6875
13:43:23.507,-12.7188,-6.6875
13:43:23.508,-12.2188,-9.5625
13:43:23.511,-12.0625,-10.875
13:43:23.513,-12.7813,-12.9375
13:43:23.520,-13.5938,-14.2501
13:43:23.528,-13.6876,-17.5626
13:43:23.537,-14.9376,-18.1251
13:43:23.549,-15.6251,-21.0001
13:43:23.559,-15.5001,-22.1876
13:43:23.568,-17.0626,-24.6251
13:43:23.578,-18.0313,-26.7501
13:43:23.593,-19.3751,-28.5001
13:43:23.603,-19.1251,-29.7501
13:43:23.613,-20.3126,-31.4376
13:43:23.623,-21.4376,-33.6251
13:43:23.633,-23.6563,-35.1876
13:43:23.643,-25.0938,-38.5001
13:43:23.654,-26.2813,-39.5627
13:43:23.662,-27.1251,-42.5627
13:43:23.673,-26.8126,-42.3752
13:43:23.683,-28.7189,-44.2502
13:43:23.702,-30.2189,-47.2502
13:43:23.709,-31.8439,-49.8752
13:43:23.723,-33.1564,-51.4377
13:43:23.726,-34.4376,-53.2502
13:43:23.736,-35.0626,-55.6877
13:43:23.744,-36.1564,-57.3752
13:43:23.753,-38.8751,-60.5627
13:43:23.764,-39.0314,-61.9377
13:43:23.775,-37.5626,-59.0002
13:43:23.784,-32.3126,-53.8127
13:43:23.792,-26.4689,-43.9377
13:43:23.804,-19.0938,-32.9376
13:43:23.813,-12.2188,-22.2501
13:43:23.824,-5.75,-10.6875
13:43:23.832,-0.8438,-1
13:43:23.843,4.7188,8.25
13:43:23.853,9.4375,17.2501
13:43:23.863,12.1875,23.2501
13:43:23.873,13.9688,28.3126
13:43:23.883,14.7188,30.3126
13:43:23.893,16.0001,33.1876
13:43:23.902,17.5001,35.6876
13:43:23.912,18.3751,37.0001
13:43:23.923,18.7813,37.5626
13:43:23.933,19.9376,39.3127
13:43:23.944,20.5626,39.5002
13:43:23.952,20.3126,39.5627
13:43:23.968,19.6876,39.0627
13:43:23.972,18.4063,36.7501
13:43:23.982,16.2813,34.3751
13:43:23.993,14.1876,30.7501
13:43:24.004,11.625,29.3126
13:43:24.014,10,24.8751
13:43:24.034,8.5938,22.3126
13:43:24.037,8.2813,21.3126
13:43:24.080,8.9688,20.7501
13:43:24.082,9.4688,21.0001
13:43:24.108,9.6563,20.8126
13:43:24.108,8.8125,21.2501
13:43:24.108,7.7813,20.2501
13:43:24.111,6.8125,18.8751
13:43:24.113,5.0313,17.5626
13:43:24.145,2.7813,15.6876
13:43:24.147,0.4063,12.8125
13:43:24.150,-0.8125,10.9375
13:43:24.164,-0.6563,9.9375
13:43:24.165,-1.9375,8.5625
13:43:24.167,-3.4375,7
13:43:24.206,-4.6563,3.6875
13:43:24.207,-7.1875,1.625
13:43:24.210,-8.1875,-1.625
13:43:24.212,-9.25,-3.8125
13:43:24.218,-9.7813,-6.125
13:43:24.224,-11.1563,-7.625
13:43:24.233,-12.6563,-10.25
13:43:24.244,-13.6563,-12.4375
13:43:24.254,-14.6876,-14.3751
13:43:24.264,-16.5313,-16.7501
13:43:24.274,-17.2813,-18.4376
13:43:24.283,-18.4376,-20.5626
13:43:24.293,-18.5001,-21.0626
13:43:24.303,-19.1251,-22.6876
13:43:24.313,-19.7813,-24.5626
13:43:24.323,-20.6876,-25.7501
13:43:24.333,-21.6251,-27.5001
13:43:24.348,-22.7813,-29.0626
13:43:24.352,-22.9688,-31.1251
13:43:24.363,-22.7501,-32.1251
13:43:24.373,-23.7501,-32.8126
13:43:24.384,-23.4063,-34.3751
13:43:24.393,-24.5313,-34.9376
13:43:24.404,-25.8751,-37.2501
13:43:24.414,-26.5939,-38.6876
13:43:24.423,-27.6251,-39.3126
13:43:24.434,-28.3126,-41.0002
13:43:24.443,-28.6251,-42.8752
13:43:24.454,-29.3439,-43.5627
13:43:24.464,-30.8439,-47.1252
13:43:24.474,-31.8126,-47.5627
13:43:24.484,-32.9064,-49.6877
13:43:24.494,-33.2189,-50.7502
13:43:24.504,-34.4689,-53.6877
13:43:24.513,-35.3751,-54.1877
13:43:24.524,-36.7189,-56.0627
13:43:24.534,-36.8126,-57.3752
13:43:24.544,-36.2814,-55.0627
13:43:24.554,-32.9376,-53.3752
13:43:24.564,-28.2189,-46.3752
13:43:24.574,-21.3751,-35.5626
13:43:24.583,-12.4688,-25.3751
13:43:24.594,-4.375,-12.6875
13:43:24.604,3.2188,-2.375
13:43:24.613,9.5625,8.9375
13:43:24.623,14.4063,15.6876
13:43:24.635,17.9376,23.8126
13:43:24.644,21.6563,28.7501
13:43:24.654,24.5313,33.4376
13:43:24.663,26.6251,36.6876
13:43:24.674,28.3751,39.0626
13:43:24.683,29.7501,40.5002
13:43:24.694,30.3439,42.9377
13:43:24.702,30.5626,42.4377
13:43:24.715,29.5001,43.0002
13:43:24.722,29.0626,42.8127
13:43:24.734,28.2814,42.7502
13:43:24.766,27.4064,40.5002
13:43:24.768,25.1876,38.5001
13:43:24.770,24.3751,37.0626
13:43:24.775,22.7188,34.1251
13:43:24.806,21.5313,31.9376
13:43:24.808,20.0626,29.7501
13:43:24.810,18.4688,28.1251
13:43:24.816,16.1563,24.8751
13:43:24.831,15.4376,23.7501
13:43:24.834,13.5938,22.3751
13:43:24.862,12.125,20.7501
13:43:24.864,10.875,19.6876
13:43:24.867,10,18.3126
13:43:24.874,8.875,17.8126
13:43:24.888,8.875,16.6876
13:43:24.894,6.75,15.3751
13:43:24.925,5.2813,13.6251
13:43:24.927,4.2813,12.125
13:43:24.929,3.0938,10.0625
13:43:24.936,1.9063,8.3125
13:43:24.944,1.3125,6.6875
13:43:24.953,-0.875,4.5
13:43:24.963,-2.6563,2.4375
13:43:24.974,-3.3125,-0.8125
13:43:24.984,-4.5,-2.0625
13:43:24.994,-5.5,-4.375
13:43:25.010,-6.75,-6.8125
13:43:25.016,-7.375,-8.25
13:43:25.032,-8.1563,-11
13:43:25.034,-8,-12
13:43:25.044,-8.0938,-13.3751
13:43:25.054,-10.25,-15.1251
13:43:25.063,-10.375,-17.8126
13:43:25.074,-12.0313,-19.5001
13:43:25.085,-12.875,-21.1251
13:43:25.095,-12.6875,-23.2501
13:43:25.106,-14.4376,-25.3751
13:43:25.114,-15.0313,-27.5001
13:43:25.123,-15.5626,-29.5626
13:43:25.132,-15.3126,-30.3126
13:43:25.143,-16.0313,-30.1251
13:43:25.154,-16.3438,-33.1876
13:43:25.163,-16.5001,-33.3126
13:43:25.174,-16.3751,-35.9376
13:43:25.183,-18.4688,-36.3751
13:43:25.194,-19.6563,-39.0626
13:43:25.204,-21.9376,-40.3127
13:43:25.213,-23.4688,-43.5002
13:43:25.224,-25.2501,-46.3752
13:43:25.232,-27.7501,-48.8127
13:43:25.244,-30.4064,-50.3752
13:43:25.252,-31.9376,-54.1252
13:43:25.263,-33.8439,-55.6252
13:43:25.274,-35.6251,-58.4377
13:43:25.284,-36.5001,-60.2502
13:43:25.295,-38.1251,-61.8127
13:43:25.303,-39.9689,-65.1877
13:43:25.314,-41.1564,-66.6253
13:43:25.330,-41.0939,-68.1878
13:43:25.334,-42.4377,-69.1878
13:43:25.349,-40.8752,-70.0003
13:43:25.354,-39.8127,-69.8128
13:43:25.364,-37.9689,-68.1878
13:43:25.374,-34.0939,-63.7502
13:43:25.384,-29.4376,-55.0627
13:43:25.395,-21.6563,-44.0627
13:43:25.404,-14.9688,-31.5626
13:43:25.437,-6.9688,-19.5001
13:43:25.438,-0.5625,-7.0625
13:43:25.443,6.625,4.1875
13:43:25.444,11.75,12.3125
13:43:25.480,15.5313,20.1876
13:43:25.486,18.3438,24.9376
13:43:25.486,19.9063,30.0001
13:43:25.513,21.5626,32.7501
13:43:25.515,22.3126,34.7501
13:43:25.517,22.5001,36.3751
13:43:25.523,23.0001,37.7501
13:43:25.524,23.1563,38.5001
13:43:25.539,23.6563,38.5626
13:43:25.544,23.5626,39.5627
13:43:25.580,22.4376,38.3751
13:43:25.582,21.0313,37.6876
13:43:25.586,19.4688,35.5001
13:43:25.591,17.9376,33.2501
13:43:25.595,16.7501,30.9376
13:43:25.626,15.1251,28.3751
13:43:25.628,12.7813,26.8126
13:43:25.630,11.2813,23.4376
13:43:25.634,10.5,21.0001
13:43:25.646,9.5625,19.8751
13:43:25.654,8.6563,18.9376
13:43:25.664,8.6563,18.5001
13:43:25.674,8.4688,18.0001
13:43:25.684,8.6875,18.8751
13:43:25.692,9.25,19.2501
13:43:25.704,8.625,17.5001
13:43:25.714,8.1563,17.7501
13:43:25.722,7.0938,16.0001
13:43:25.734,5.5313,14.3126
13:43:25.745,3.875,12.875
13:43:25.754,1.5,10.125
13:43:25.764,1.1875,8.5625
13:43:25.774,1.375,7.6875
13:43:25.784,1.4375,6.1875
13:43:25.794,1.4063,3.8125
13:43:25.804,0.375,2.5625
13:43:25.813,0.25,-0.9375
13:43:25.824,0.1875,-1.9375
13:43:25.834,0.25,-3.75
13:43:25.844,0.4063,-6.5
13:43:25.853,-0.5,-7.9375
13:43:25.864,-2.4688,-10.5625
13:43:25.874,-4.3125,-13.0625
13:43:25.884,-5.5,-15.5626
13:43:25.895,-8.1875,-16.9376
13:43:25.903,-8.0625,-19.3126
13:43:25.914,-8,-18.8751
13:43:25.924,-8.2813,-20.8126
13:43:25.933,-10.75,-22.7501
13:43:25.944,-11.7188,-24.2501
13:43:25.955,-13.7501,-26.6251
13:43:25.964,-14.8126,-29.2501
13:43:25.973,-16.8438,-31.0001
13:43:25.984,-18.5626,-33.5626
13:43:25.994,-20.2188,-34.5626
13:43:26.004,-21.3438,-36.9376
13:43:26.014,-22.6876,-38.3751
13:43:26.024,-24.2188,-41.3127
13:43:26.035,-23.5626,-41.4377
13:43:26.044,-24.5938,-41.1252
13:43:26.054,-24.3438,-42.8752
13:43:26.064,-23.7813,-44.0002
13:43:26.073,-25.0626,-45.5002
13:43:26.084,-25.2813,-47.9377
13:43:26.094,-25.7501,-48.7502
13:43:26.104,-26.8751,-50.9377
13:43:26.114,-27.9376,-52.6252
13:43:26.124,-28.4689,-55.0627
13:43:26.134,-27.6876,-55.3752
13:43:26.145,-27.3439,-57.5002
13:43:26.154,-26.7501,-58.0002
13:43:26.164,-27.2501,-59.7502
13:43:26.174,-27.1251,-61.1252
13:43:26.184,-25.8126,-61.1252
13:43:26.193,-23.4376,-58.5627
13:43:26.205,-18.3751,-51.5002
13:43:26.214,-12.375,-43.6252
13:43:26.224,-4.5313,-32.1876
13:43:26.257,4.4063,-19.5626
13:43:26.259,11.875,-6.75
13:43:26.262,18.7501,3.5625
13:43:26.264,24.3126,12.9375
13:43:26.296,29.0939,21.3751
13:43:26.299,32.0626,27.0626
13:43:26.332,34.2814,31.7501
13:43:26.334,32.7814,33.0626
13:43:26.337,30.3126,32.1876
13:43:26.337,27.6876,31.8751
13:43:26.337,25.9376,30.6251
13:43:26.368,23.7188,29.8751
13:43:26.370,22.5001,28.6876
13:43:26.374,19.9063,27.8126
13:43:26.375,19.4376,26.5626
13:43:26.406,18.5313,26.2501
13:43:26.408,18.0938,24.0001
13:43:26.410,16.2501,20.7501
13:43:26.414,14.0626,18.1876
13:43:26.427,12.25,15.3126
13:43:26.436,11.375,12.8125
13:43:26.442,10.0625,10.1875
13:43:26.454,9.4688,10.125
13:43:26.464,9.25,8.3125
13:43:26.474,9.0938,8.6875
13:43:26.484,8.875,8.75
13:43:26.494,8.2188,8.25
13:43:26.504,8.3438,8.25
13:43:26.514,8.0625,9.25
13:43:26.524,7.5,8.5
13:43:26.534,7.4063,8.25
13:43:26.544,8.3125,8.8125
13:43:26.555,9.625,9.125
13:43:26.564,10.4688,8.6875
13:43:26.574,8.6875,7.9375
13:43:26.584,7.6563,4.8125
13:43:26.594,5.6875,3.25
13:43:26.604,4.1563,1.125
13:43:26.614,2.1563,-2.3125
13:43:26.629,0.9375,-3
13:43:26.644,0.9688,-5.75
13:43:26.646,-2.0625,-7.5
13:43:26.654,-4.4375,-11.5625
13:43:26.664,-7.5,-13.7501
13:43:26.674,-8.125,-15.8751
13:43:26.684,-8.6563,-18.1876
13:43:26.716,-9.1875,-19.3751
13:43:26.719,-10.5625,-21.1876
13:43:26.720,-13.3438,-23.6251
13:43:26.727,-14.8438,-26.3751
13:43:26.736,-16.4376,-28.1876
13:43:26.744,-18.9376,-30.5626
13:43:26.754,-20.3751,-32.7501
13:43:26.764,-21.9376,-35.4376
13:43:26.774,-22.5938,-36.0001
13:43:26.784,-23.6251,-38.1876
13:43:26.793,-24.1563,-37.8126
13:43:26.805,-24.1251,-39.5002
13:43:26.814,-24.3438,-40.0002
13:43:26.824,-24.2501,-40.1877
13:43:26.834,-25.2501,-40.8752
13:43:26.844,-24.9688,-41.5002
13:43:26.854,-24.6563,-41.2502
13:43:26.865,-25.6563,-43.5627
13:43:26.874,-25.5626,-42.8752
13:43:26.884,-25.4376,-42.5627
13:43:26.894,-23.4376,-42.7502
13:43:26.914,-21.5626,-41.6877
13:43:26.916,-22.1251,-42.0002
13:43:26.943,-22.2813,-43.3127
13:43:26.945,-22.2501,-43.5627
13:43:26.948,-22.9063,-44.8127
13:43:26.954,-22.1563,-44.8752
13:43:26.985,-21.7501,-44.2502
13:43:26.988,-21.1876,-45.8752
13:43:26.991,-19.9063,-43.8127
13:43:26.996,-19.1251,-44.2502
13:43:27.026,-16.5626,-40.4377
13:43:27.030,-12.7188,-35.5626
13:43:27.033,-6.4063,-25.3126
13:43:27.040,-0.125,-15.1251
13:43:27.045,7.1875,-1.5
13:43:27.073,15.3751,10
13:43:27.075,22.4376,22.5626
13:43:27.078,27.6564,31.8751
13:43:27.086,32.1876,40.7502
13:43:27.094,35.0001,47.3752
13:43:27.104,36.2501,52.6252
13:43:27.115,36.7189,55.3127
13:43:27.122,35.6251,56.7502
13:43:27.134,34.7501,57.9377
13:43:27.144,33.5314,57.1252
13:43:27.154,32.4689,57.3127
13:43:27.164,32.0626,56.3752
13:43:27.176,31.4689,57.0002
13:43:27.184,31.8751,57.1877
13:43:27.194,31.6876,56.7502
13:43:27.204,31.3126,55.5627
13:43:27.214,29.2501,53.5002
13:43:27.225,27.2814,51.6877
13:43:27.234,24.5001,49.1252
13:43:27.244,22.1876,46.9377
13:43:27.254,20.3438,44.0627
13:43:27.269,20.0001,43.8752
13:43:27.279,20.9688,43.5627
13:43:27.289,22.0313,44.3127
13:43:27.299,23.2501,44.8127
13:43:27.309,23.4063,45.2502
13:43:27.319,23.8751,45.1252
13:43:27.329,23.6251,44.6877
13:43:27.339,23.8126,44.9377
13:43:27.349,23.1563,43.2502
13:43:27.359,21.5626,42.1252
13:43:27.369,20.7813,40.3752
13:43:27.379,19.4688,38.9376
13:43:27.389,19.7501,37.4376
13:43:27.399,18.2501,35.3126
13:43:27.409,17.5313,33.4376
13:43:27.419,15.2188,30.6876
13:43:27.429,13.3751,28.3126
13:43:27.439,12,25.5626
13:43:27.449,10.3125,23.8126
13:43:27.459,9.2813,20.5001
13:43:27.469,7.625,18.4376
13:43:27.480,6.8125,15.8126
13:43:27.489,4.5625,12.875
13:43:27.500,3.6563,11.9375
13:43:27.510,2.5625,8.375
13:43:27.519,0.4375,5
13:43:27.529,-1.6875,2.375
13:43:27.540,-4,-0.875
13:43:27.551,-4.5625,-3.3125
13:43:27.559,-4.625,-5.0625
13:43:27.569,3.2188,-6.4375
13:43:27.579,12.6563,3.4375
13:43:27.589,20.5001,5.8125
13:43:27.608,27.6876,9.75
13:43:27.614,34.4689,11.5
13:43:27.630,39.5002,14.6876
13:43:27.634,45.7814,17.0626
13:43:27.644,49.9689,17.7501
13:43:27.654,52.594,17.8126
13:43:27.664,52.4689,17.1876
13:43:27.674,49.7189,14.0626
13:43:27.709,50.3439,11.5
13:43:27.710,52.6564,11.625
13:43:27.713,55.5627,11.4375
13:43:27.716,59.844,11.6875
13:43:27.744,66.8753,14.3126
13:43:27.747,77.969,18.0626
13:43:27.749,89.6566,24.2501
13:43:27.754,99.1566,27.5001
13:43:27.785,106.0629,31.4376
13:43:27.786,104.3754,29.5626
13:43:27.789,108.9692,29.1876
13:43:27.794,112.5317,30.9376
13:43:27.834,114.0942,33.0001
13:43:27.837,120.3755,38.1251
13:43:27.840,125.188,45.6252
13:43:27.840,131.063,55.3127
13:43:27.845,137.1255,67.5628
13:43:27.866,144.563,80.8128
13:43:27.869,154.0006,92.8129
13:43:27.875,159.8756,103.1254
13:43:27.884,163.7194,110.8129
13:43:27.894,165.3444,116.5629
13:43:27.904,167.4694,120.7505
13:43:27.926,168.1569,122.563
13:43:27.945,169.2194,124.2505
13:43:27.945,169.8756,126.5005
13:43:27.947,171.5007,126.938
13:43:27.955,172.4069,127.313
13:43:27.964,172.5944,128.938
13:43:27.995,174.3132,127.438
13:43:27.998,174.1882,127.6255
13:43:28.001,174.2819,127.8755
13:43:28.005,173.9382,126.063
13:43:28.015,169.9694,122.3755
13:43:28.024,166.4069,118.813
13:43:28.034,164.2506,115.5004
13:43:28.044,160.1256,111.8129
13:43:28.055,157.8131,108.3754
13:43:28.064,154.8756,105.3754
13:43:28.074,153.3443,102.1254
13:43:28.084,151.9693,100.1254
13:43:28.094,150.2506,98.8754
13:43:28.104,149.6256,97.3129
13:43:28.114,149.1881,96.1254
13:43:28.124,147.6568,95.0629
13:43:28.134,146.5943,93.6254
13:43:28.144,144.6255,92.2504
13:43:28.154,141.5005,89.8753
13:43:28.164,139.0318,86.4378
13:43:28.174,136.1255,85.4378
13:43:28.184,133.8755,82.0003
13:43:28.194,131.4068,79.0003
13:43:28.204,129.5317,76.0628
13:43:28.214,126.9067,73.1878
13:43:28.224,124.2817,70.1878
13:43:28.234,121.6255,66.7503
13:43:28.244,117.313,62.5627
13:43:28.255,113.0629,58.3752
13:43:28.264,110.3129,54.2502
13:43:28.274,106.9067,51.3752
13:43:28.284,104.7504,47.1252
13:43:28.294,101.8129,43.3752
13:43:28.308,98.9066,40.1252
13:43:28.314,96.8129,36.1251
13:43:28.324,94.6254,33.2501
13:43:28.334,92.5316,30.3126
13:43:28.344,89.0628,27.6251
13:43:28.354,86.1878,24.4376
13:43:28.364,83.4691,20.4376
13:43:28.374,79.7191,18.1876
13:43:28.407,77.2503,14.5001
13:43:28.408,74.2503,12.0625
13:43:28.410,71.4378,9.125
13:43:28.414,68.594,5.1875
13:43:28.455,66.5003,2.75
13:43:28.457,64.5627,0.25
13:43:28.459,62.469,-1.6875
13:43:28.462,59.9065,-3.8125
13:43:28.467,58.344,-5.875
13:43:28.474,55.344,-7.0625
13:43:28.505,53.7502,-10.5625
13:43:28.508,51.1252,-11.5
13:43:28.510,49.7502,-15.0626
13:43:28.515,46.4689,-16.6251
13:43:28.543,44.8127,-18.3751
13:43:28.546,43.2189,-21.2501
13:43:28.548,41.5939,-23.5001
13:43:28.559,40.1877,-25.9376
13:43:28.567,38.6876,-27.6251
13:43:28.575,37.2189,-28.7501
13:43:28.584,35.0626,-30.5001
13:43:28.594,33.0939,-32.1876
13:43:28.604,33.1564,-33.8126
13:43:28.614,33.4064,-31.5001
13:43:28.624,38.0939,-25.6251
13:43:28.634,44.7814,-13.4376
13:43:28.644,53.6877,0.4375
13:43:28.654,61.6252,15.8126
13:43:28.664,69.4065,28.3751
13:43:28.674,75.1878,41.5002
13:43:28.684,80.8128,50.3127
13:43:28.695,84.7816,59.1877
13:43:28.704,88.4066,63.9377
13:43:28.714,90.0316,69.5628
13:43:28.724,90.1566,70.0628
13:43:28.734,89.0003,71.3128
13:43:28.744,88.4066,69.7503
13:43:28.754,86.5316,69.7503
13:43:28.764,84.9691,67.8753
13:43:28.774,82.5628,66.3128
13:43:28.784,80.6566,64.5627
13:43:28.795,78.2815,61.7502
13:43:28.804,76.5315,59.6877
13:43:28.814,73.719,57.3752
13:43:28.824,70.7815,54.6877
13:43:28.834,68.469,52.1252
13:43:28.845,65.9065,48.6252
13:43:28.854,62.8752,44.4377
13:43:28.864,61.0315,43.0627
13:43:28.874,58.9377,39.4377
13:43:28.884,57.469,37.6876
13:43:28.894,56.844,37.1876
13:43:28.909,55.1565,36.1876
13:43:28.926,54.9065,35.1251
13:43:28.928,53.5002,35.0001
13:43:28.934,53.2815,35.6876
13:43:28.945,52.3127,33.8126
13:43:28.954,51.4064,34.1251
13:43:28.964,50.1252,32.0626
13:43:28.974,49.6252,32.0001
13:43:28.984,47.6252,29.7501
13:43:28.994,46.0939,27.6876
13:43:29.004,44.1252,25.6251
13:43:29.014,42.3752,23.9376
13:43:29.024,40.5627,20.1876
13:43:29.034,38.9689,19.1251
13:43:29.044,37.1876,15.8751
13:43:29.058,35.7501,13.9376
13:43:29.064,33.6564,10.875
13:43:29.074,31.8126,7.4375
13:43:29.084,30.0626,4.75
13:43:29.094,27.8126,2.375
13:43:29.104,25.5938,0.0625
13:43:29.114,23.0313,-2.625
13:43:29.124,21.7501,-6.3125
13:43:29.134,19.5626,-8.375
13:43:29.163,18.2813,-11.0625
13:43:29.166,16.8126,-13.1876
13:43:29.168,16.2188,-14.4376
13:43:29.174,14.7813,-17.4376
13:43:29.205,12.9688,-19.0626
13:43:29.207,12.4375,-20.7501
13:43:29.249,10.0313,-23.3751
13:43:29.249,9.3438,-25.1251
13:43:29.276,6.9688,-27.4376
13:43:29.277,5.9688,-29.1251
13:43:29.277,4.3438,-30.9376
13:43:29.278,3.125,-32.0626
13:43:29.280,2.6875,-34.7501
13:43:29.288,1.6563,-35.8751
13:43:29.290,0.5,-37.5626
13:43:29.326,-0.5938,-38.7501
13:43:29.327,-1.2188,-40.5002
13:43:29.330,-3.1563,-42.0002
13:43:29.333,-4.4688,-44.3752
13:43:29.339,-4.6563,-45.6252
13:43:29.349,-6.4063,-47.2502
13:43:29.360,-7.25,-48.8752
13:43:29.369,-8.25,-50.3752
13:43:29.379,-8.5625,-51.2502
13:43:29.389,-9.6563,-53.1877
13:43:29.399,-10.6563,-54.9377
13:43:29.409,-12.0625,-56.6252
13:43:29.419,-13.4063,-59.0002
13:43:29.432,-14.8751,-60.0002
13:43:29.439,-15.0938,-61.5002
13:43:29.449,-13.9063,-61.5002
13:43:29.459,-10.5938,-55.0627
13:43:29.469,-3.4375,-46.3752
13:43:29.479,5.5,-30.9376
13:43:29.489,16.2188,-13.9376
13:43:29.499,25.2501,2.1875
13:43:29.510,34.0939,16.8126
13:43:29.520,40.8439,27.9376
13:43:29.530,46.3127,38.6876
13:43:29.539,50.8752,45.6877
13:43:29.549,53.2502,51.8127
13:43:29.561,55.219,53.9377
13:43:29.571,56.219,57.3752
13:43:29.579,56.719,57.3127
13:43:29.589,56.0002,58.2502
13:43:29.599,55.1565,57.5627
13:43:29.609,54.0002,56.1252
13:43:29.619,52.8127,54.6252
13:43:29.629,51.9689,52.1877
13:43:29.639,50.6252,52.0002
13:43:29.649,49.6564,49.8127
13:43:29.659,47.9377,47.7502
13:43:29.669,45.8439,45.3127
13:43:29.679,44.4377,41.4377
13:43:29.689,42.3127,38.2501
13:43:29.699,40.7502,35.9376
13:43:29.709,38.5939,33.6876
13:43:29.719,37.5939,31.8751
13:43:29.729,35.2189,30.5001
13:43:29.739,35.1564,30.0001
13:43:29.749,34.8439,29.6251
13:43:29.759,35.2189,29.8126
13:43:29.769,35.1564,30.1251
13:43:29.779,35.4376,30.3126
13:43:29.790,34.3439,30.6876
13:43:29.799,34.0001,29.5001
13:43:29.815,32.6564,28.3126
13:43:29.820,31.7501,27.7501
13:43:29.829,30.9376,25.3751
13:43:29.839,28.9064,23.8751
13:43:29.849,28.2189,21.8126
13:43:29.859,25.4688,19.5626
13:43:29.869,24.0001,17.2501
13:43:29.901,21.9063,13.5626
13:43:29.904,20.3438,11.875
13:43:29.906,18.6251,8.1875
13:43:29.910,17.1876,5.5625
13:43:29.943,16.2188,3.3125
13:43:29.945,13.4063,0.625
13:43:29.948,12.4375,-1.4375
13:43:29.951,11.0938,-4.3125
13:43:29.961,9.0938,-6.0625
13:43:29.991,8.125,-8.125
13:43:29.993,7.0313,-11
13:43:29.995,5.0625,-12.75
13:43:30.001,4.7188,-14.9376
13:43:30.031,3.125,-16.0001
13:43:30.032,1.9375,-18.7501
13:43:30.034,0.2188,-20.6876
13:43:30.040,-1.375,-22.3751
13:43:30.060,-2.625,-24.7501
13:43:30.063,-4.25,-26.6876
13:43:30.069,-4.875,-27.1876
13:43:30.079,-5.8438,-29.6876
13:43:30.089,-6.5938,-31.1876
13:43:30.099,-6.8125,-32.0626
13:43:30.109,-7.6875,-34.2501
13:43:30.119,-9.7188,-35.0626
13:43:30.129,-10.4063,-37.5001
13:43:30.139,-11.8438,-38.3751
13:43:30.149,-12.5313,-40.0002
13:43:30.159,-13.7188,-41.3127
13:43:30.169,-14.4063,-42.9377
13:43:30.179,-14.9063,-45.8127
13:43:30.190,-15.0313,-45.8127
13:43:30.205,-16.2501,-47.4377
13:43:30.221,-17.2501,-47.6252
13:43:30.224,-18.2813,-50.5627
13:43:30.239,-19.5626,-52.0627
13:43:30.242,-20.8126,-54.4377
13:43:30.258,-22.1251,-54.9377
13:43:30.259,-22.9688,-57.0002
13:43:30.270,-23.5001,-59.0002
13:43:30.279,-23.2501,-59.6252
13:43:30.289,-23.6563,-61.0627
13:43:30.299,-23.5938,-60.5627
13:43:30.309,-20.0938,-56.5002
13:43:30.319,-14.0626,-48.3127
13:43:30.329,-5.125,-34.5001
13:43:30.339,4.875,-17.8751
13:43:30.349,14.3438,-0.875
13:43:30.359,23.7188,12.9375
13:43:30.369,31.0001,26.0001
13:43:30.379,38.4376,38.1251
13:43:30.389,42.8439,45.3127
13:43:30.399,47.4689,52.4377
13:43:30.409,49.2814,56.5002
13:43:30.420,50.0627,58.8127
13:43:30.429,50.5939,60.2502
13:43:30.440,49.8752,60.1877
13:43:30.449,49.8127,59.6877
13:43:30.459,47.9064,59.1877
13:43:30.469,47.6252,57.8752
13:43:30.479,46.1564,56.0002
13:43:30.490,45.2189,56.0002
13:43:30.499,44.8439,53.8752
13:43:30.515,42.5314,51.4377
13:43:30.519,41.0627,49.3752
13:43:30.548,38.5314,45.1877
13:43:30.560,36.4376,43.1877
13:43:30.576,34.9376,40.5002
13:43:30.590,33.7501,38.8126
13:43:30.591,32.6251,36.5001
13:43:30.591,31.6564,35.1251
13:43:30.592,31.3439,34.1251
13:43:30.599,29.9064,33.4376
13:43:30.609,30.1251,33.3126
13:43:30.625,29.7501,33.6876
13:43:30.630,29.8751,33.4376
13:43:30.666,29.4689,32.4376
13:43:30.669,29.6251,33.3126
13:43:30.670,29.7814,32.2501
13:43:30.676,28.8439,31.2501
13:43:30.703,27.5001,30.8751
13:43:30.703,26.6876,28.8126
13:43:30.706,24.5001,26.7501
13:43:30.738,23.1876,24.8126
13:43:30.739,22.2501,21.8126
13:43:30.740,19.7501,19.8126
13:43:30.748,17.5626,16.5626
13:43:30.749,15.9688,13.5626
13:43:30.782,14.0938,10.125
13:43:30.784,13.2188,7.625
13:43:30.787,11.5625,5.4375
13:43:30.789,10.375,2.875
13:43:30.799,8.7813,0.5625
13:43:30.809,7.7813,-1.5625
13:43:30.820,6.375,-3.8125
13:43:30.829,4.4688,-7
13:43:30.839,2.75,-9.1875
13:43:30.849,1.7813,-11.375
13:43:30.859,0.375,-13.6876
13:43:30.869,-0.8125,-15.9376
13:43:30.879,-2.1875,-17.6251
13:43:30.889,-3.9063,-19.7501
13:43:30.899,-4.7188,-20.7501
13:43:30.909,-5.1563,-22.4376
13:43:30.919,-6.9375,-24.0001
13:43:30.930,-7.4063,-25.4376
13:43:30.939,-8.1875,-27.7501
13:43:30.949,-8.3438,-28.9376
13:43:30.959,-9.6563,-30.4376
13:43:30.970,-10.3438,-31.6251
13:43:30.979,-12.3438,-34.6251
13:43:30.989,-11.2188,-34.8126
13:43:30.999,-12.0938,-36.1876
13:43:31.009,-17.0313,-40.8127
13:43:31.019,-16.9376,-42.0002
13:43:31.029,-14.0938,-39.9377
13:43:31.039,-17.0313,-43.3127
13:43:31.049,-18.5001,-45.8752
13:43:31.059,-18.2188,-45.3127
13:43:31.069,-17.7188,-46.6252
13:43:31.079,-20.7188,-48.4377
13:43:31.089,-21.2813,-50.7502
13:43:31.099,-22.0938,-50.8752
13:43:31.109,-22.7813,-52.3752
13:43:31.119,-24.4376,-55.7502
13:43:31.130,-25.4063,-55.6877
13:43:31.139,-25.0938,-58.3127
13:43:31.149,-26.1251,-58.6877
13:43:31.159,-26.7814,-60.0002
13:43:31.169,-26.6251,-61.3127
13:43:31.179,-26.5626,-60.5627
13:43:31.189,-24.0626,-58.0627
13:43:31.199,-18.0938,-49.1877
13:43:31.209,-9.0625,-35.7501
13:43:31.219,2.4063,-17.0001
13:43:31.229,12.2188,-0.25
13:43:31.239,21.3438,16.1251
13:43:31.249,29.6564,29.4376
13:43:31.259,36.7501,41.8127
13:43:31.269,42.6252,50.2502
13:43:31.279,47.3439,58.7502
13:43:31.289,50.1564,62.8752
13:43:31.299,51.9689,66.6253
13:43:31.309,53.344,69.1253
13:43:31.351,53.0002,69.8753
13:43:31.353,53.094,70.0003
13:43:31.355,52.6252,69.8753
13:43:31.358,51.4064,68.9378
13:43:31.360,51.3127,67.4378
13:43:31.371,49.6564,67.4378
13:43:31.407,48.6564,64.8752
13:43:31.408,47.0002,62.6252
13:43:31.411,45.9377,61.3127
13:43:31.415,44.0002,58.1877
13:43:31.419,41.7502,54.5002
13:43:31.459,39.9377,52.6877
13:43:31.460,38.7814,50.0002
13:43:31.463,36.8439,48.0627
13:43:31.466,35.6564,45.8127
13:43:31.472,34.2814,44.7502
13:43:31.480,34.8439,44.6252
13:43:31.503,34.3126,44.6252
13:43:31.507,34.0314,44.6877
13:43:31.509,34.5626,44.7502
13:43:31.524,34.2814,44.6877
13:43:31.533,33.5001,43.9377
13:43:31.539,33.1564,43.8752
13:43:31.555,32.1251,42.8127
13:43:31.562,30.7814,40.8752
13:43:31.572,28.8751,38.4376
13:43:31.579,27.3439,36.1876
13:43:31.589,25.8438,33.8126
13:43:31.599,25.3126,31.6876
13:43:31.614,22.8751,29.9376
13:43:31.624,20.4688,27.3751
13:43:31.634,19.2188,23.5626
13:43:31.645,17.4063,22.0626
13:43:31.654,16.0938,18.7501
13:43:31.664,14.2188,15.2501
13:43:31.675,12.9375,13.2501
13:43:31.684,11.7188,10.125
13:43:31.694,9.4063,8.0625
13:43:31.704,8.875,6
13:43:31.714,6.4375,3.0625
13:43:31.725,5.0938,0.1875
13:43:31.735,3.6875,-2
13:43:31.744,2.6563,-4.6875
13:43:31.754,1.75,-6
13:43:31.764,0.3438,-8.875
13:43:31.774,-1.625,-11.75
13:43:31.785,-2.1875,-13.7501
13:43:31.794,-4.0625,-15.5001
13:43:31.804,-5.1875,-16.8126
13:43:31.836,-6.0625,-18.8126
13:43:31.838,-7.1563,-20.2501
13:43:31.840,-7.9063,-21.1876
13:43:31.845,-8,-23.8751
13:43:31.860,-9.5,-25.1876
13:43:31.868,-10.3438,-25.9376
13:43:31.877,-11.1875,-27.8126
13:43:31.895,-11.8125,-29.9376
13:43:31.909,-12.625,-31.4376
13:43:31.911,-14.2501,-33.0626
13:43:31.916,-15.0626,-34.2501
13:43:31.924,-15.5626,-36.5001
13:43:31.934,-17.3126,-37.4376
13:43:31.944,-17.9063,-39.3752
13:43:31.954,-18.7501,-41.4377
13:43:31.964,-19.0938,-42.0627
13:43:31.974,-20.3751,-44.3752
13:43:31.984,-21.2188,-45.3752
13:43:31.994,-22.0001,-47.8127
13:43:32.004,-23.2813,-49.6252
13:43:32.014,-23.8751,-50.9377
13:43:32.024,-25.5626,-52.6252
13:43:32.034,-26.3751,-54.0002
13:43:32.044,-27.1876,-55.7502
13:43:32.054,-28.5939,-55.6877
13:43:32.064,-28.3751,-57.3752
13:43:32.074,-27.5626,-56.4377
13:43:32.099,-24.0313,-52.6252
13:43:32.102,-17.7813,-42.1252
13:43:32.104,-8.9063,-28.8126
13:43:32.149,1.2188,-11.125
13:43:32.150,10.625,5.5
13:43:32.151,19.7188,20.8751
13:43:32.154,28.2189,34.6876
13:43:32.161,34.4376,45.1877
13:43:32.164,40.5002,55.1877
13:43:32.193,44.2502,62.0002
13:43:32.195,46.3127,67.1253
13:43:32.198,46.7189,69.8753
13:43:32.204,47.8127,71.0628
13:43:32.236,46.5314,71.3128
13:43:32.238,46.4377,71.0003
13:43:32.240,45.8127,70.8753
13:43:32.246,44.8127,69.1878
13:43:32.265,43.9064,69.0003
13:43:32.267,42.3127,66.7503
13:43:32.276,41.7502,65.1878
13:43:32.284,39.4689,63.7502
13:43:32.294,37.2189,61.3127
13:43:32.304,35.4064,56.8752
13:43:32.314,32.4064,54.0002
13:43:32.324,30.7189,50.6877
13:43:32.334,27.9376,48.1877
13:43:32.344,26.5001,45.5002
13:43:32.354,25.9063,43.9377
13:43:32.364,25.0001,42.3752
13:43:32.375,24.4063,41.8127
13:43:32.384,23.7813,40.5627
13:43:32.394,22.7188,40.0627
13:43:32.404,22.0626,38.6251
13:43:32.415,22.2501,39.5002
13:43:32.424,22.1251,38.6251
13:43:32.434,21.7813,38.1876
13:43:32.444,21.6563,37.2501
13:43:32.454,20.1563,36.1251
13:43:32.464,19.3126,34.3126
13:43:32.475,17.3438,32.1251
13:43:32.484,15.6563,30.1876
13:43:32.494,13.5313,27.0626
13:43:32.504,11.2813,24.3126
13:43:32.514,9.5938,20.7501
13:43:32.524,7.2188,17.9376
13:43:32.535,5.1563,14.3126
13:43:32.544,3.3125,11.125
13:43:32.554,1.9375,8.6875
13:43:32.564,-0.25,5.3125
13:43:32.575,-1.8125,2.625
13:43:32.584,-3.7813,-0.625
13:43:32.597,-4.5625,-3.25
13:43:32.604,-7.5938,-6.25
13:43:32.614,-8.75,-7.9375
13:43:32.625,-9.9375,-10.625
13:43:32.640,-11.25,-13.7501
13:43:32.646,-12.4688,-15.0001
13:43:32.655,-14.2501,-17.0626
13:43:32.664,-14.5626,-20.3126
13:43:32.674,-15.2501,-21.9376
13:43:32.684,-16.3751,-23.7501
13:43:32.694,-17.5001,-24.5626
13:43:32.704,-18.0001,-26.8751
13:43:32.714,-18.9688,-28.6251
13:43:32.724,-20.0938,-30.1876
13:43:32.734,-20.3751,-31.1251
13:43:32.744,-20.9063,-32.1876
13:43:32.754,-22.6563,-34.7501
13:43:32.765,-24.1876,-36.3126
13:43:32.793,-25.2188,-39.1252
13:43:32.796,-27.0314,-40.4377
13:43:32.797,-27.5314,-42.2502
13:43:32.805,-29.6251,-44.3752
13:43:32.829,-29.9064,-46.5627
13:43:32.832,-30.5939,-47.5627
13:43:32.862,-30.9064,-49.1877
13:43:32.906,-31.6251,-50.2502
13:43:32.940,-32.5001,-52.2502
13:43:32.942,-34.1251,-53.8752
13:43:32.943,-35.1251,-55.6877
13:43:32.945,-36.2501,-57.3127
13:43:32.952,-37.5001,-59.1877
13:43:32.953,-38.3126,-60.2502
13:43:32.953,-38.5314,-61.7502
13:43:32.960,-39.0939,-62.6252
13:43:32.970,-38.8126,-63.8752
13:43:32.981,-39.1252,-64.4377
13:43:32.990,-38.4064,-64.8127
13:43:33.000,-36.1251,-61.8752
13:43:33.013,-31.0001,-53.7502
13:43:33.023,-21.7813,-40.6252
13:43:33.031,-11.7813,-22.6876
13:43:33.040,-0.5,-3
13:43:33.050,9.6563,13.8126
13:43:33.059,17.3126,29.9376
13:43:33.069,25.1876,41.1252
13:43:33.079,31.1876,52.6252
13:43:33.089,36.1876,59.5627
13:43:33.115,39.5314,65.7503
13:43:33.118,41.7502,69.9378
13:43:33.120,43.8439,78.8128
13:43:33.129,42.5627,77.7503
13:43:33.140,42.1252,75.8753
13:43:33.149,40.8127,75.1253
13:43:33.159,39.0627,73.7503
13:43:33.175,37.7189,70.1878
13:43:33.192,35.9689,68.8753
13:43:33.192,34.0314,64.3752
13:43:33.207,32.9689,61.6877
13:43:33.210,29.4689,58.5002
13:43:33.225,28.1251,56.3127
13:43:33.231,26.8126,54.9377
13:43:33.239,26.9064,53.4377
13:43:33.249,26.4376,52.8752
13:43:33.259,26.2188,53.0627
13:43:33.269,26.9689,52.3127
13:43:33.280,27.3126,53.5002
13:43:33.290,26.5626,53.6252
13:43:33.299,26.1876,53.6252
13:43:33.309,26.5314,52.6252
13:43:33.321,25.7813,51.9377
13:43:33.331,25.4063,50.5627
13:43:33.340,23.4688,48.8127
13:43:33.349,21.8126,46.8752
13:43:33.359,20.1876,44.3752
13:43:33.370,18.9688,41.4377
13:43:33.380,17.7813,39.3752
13:43:33.390,16.3751,36.8751
13:43:33.399,13.9688,34.2501
13:43:33.411,12.0313,31.0001
13:43:33.420,10.1875,26.9376
13:43:33.430,7.625,23.1251
13:43:33.439,5.75,20.6251
13:43:33.450,3.75,18.3751
13:43:33.466,2.125,14.4376
13:43:33.469,-0.0625,11.25
13:43:33.504,-1.75,8.375
13:43:33.506,-3.4688,6.9375
13:43:33.509,-4.5625,3.875
13:43:33.514,-5.375,1.75
13:43:33.519,-6.6563,-0.4375
13:43:33.551,-7.3438,-0.375
13:43:33.557,-7.2813,-3.375
13:43:33.557,-8.4063,-5.125
13:43:33.561,-10.0938,-6.8125
13:43:33.592,-11.6563,-8.1875
13:43:33.594,-12.5,-11.1875
13:43:33.596,-13.8751,-13.2501
13:43:33.600,-14.9376,-14.6876
13:43:33.630,-16.0001,-15.8751
13:43:33.631,-15.9688,-17.0626
13:43:33.634,-16.0313,-18.8751
13:43:33.640,-16.9376,-19.6876
13:43:33.650,-17.5001,-20.6876
13:43:33.660,-18.8438,-23.1251
13:43:33.669,-20.2501,-23.1251
13:43:33.681,-20.1876,-26.4376
13:43:33.689,-21.7188,-26.9376
13:43:33.699,-22.1251,-29.2501
13:43:33.709,-23.8126,-30.4376
13:43:33.720,-24.5001,-32.8126
13:43:33.729,-25.8751,-33.3126
13:43:33.740,-25.8751,-35.1251
13:43:33.749,-26.5939,-36.6251
13:43:33.767,-26.2188,-37.0001
13:43:33.769,-24.5001,-34.7501
13:43:33.780,-20.4063,-30.0626
13:43:33.792,-13.7188,-20.6251
13:43:33.800,-5.125,-6.5
13:43:33.810,3.3125,8.1875
13:43:33.820,11.9688,23.8126
13:43:33.830,19.6563,36.0001
13:43:33.839,27.1251,49.6252
13:43:33.850,33.0314,59.1877
13:43:33.860,38.0001,68.0628
13:43:33.870,41.4689,75.6878
13:43:33.880,43.5002,78.8753
13:43:33.889,45.2502,83.0628
13:43:33.901,45.9689,85.3128
13:43:33.909,46.0939,85.0003
13:43:33.921,45.2502,86.1878
13:43:33.930,45.2502,84.5628
13:43:33.939,43.9377,84.6878
13:43:33.950,43.1564,83.2503
13:43:33.960,43.6877,82.5628
13:43:33.969,41.5314,81.0003
13:43:33.980,40.0314,78.2503
13:43:33.989,38.0939,75.3128
13:43:33.999,36.3439,71.6878
13:43:34.011,34.1251,68.7503
13:43:34.020,31.7814,65.2502
13:43:34.030,30.0626,62.5627
13:43:34.040,28.3751,60.5627
13:43:34.051,27.9689,59.9377
13:43:34.062,27.1564,58.5627
13:43:34.069,27.0001,59.2502
13:43:34.080,27.0626,58.6877
13:43:34.089,26.6251,58.9377
13:43:34.099,26.1876,59.3127
13:43:34.110,25.9688,58.3127
13:43:34.120,24.5313,57.6877
13:43:34.129,23.6251,56.9377
13:43:34.145,22.3438,54.5627
13:43:34.150,21.3438,52.9377
13:43:34.161,19.1876,50.2502
13:43:34.170,17.5938,48.4377
13:43:34.187,16.0001,45.8127
13:43:34.195,14.2813,42.1252
13:43:34.203,11.7188,39.4377
13:43:34.238,10.125,35.9376
13:43:34.240,7.7813,33.0626
13:43:34.283,6.2188,29.1876
13:43:34.284,3.7813,26.2501
13:43:34.287,3,23.4376
13:43:34.287,0.625,20.1251
13:43:34.287,-1.2813,18.0001
13:43:34.295,-2.2188,16.1876
13:43:34.328,-2.5313,13.5001
13:43:34.330,-4.5313,10.3125
13:43:34.333,-5.9063,8.875
13:43:34.339,-6.5,6.875
13:43:34.367,-7.9375,3.9375
13:43:34.369,-9.5313,1.8125
13:43:34.371,-10.9375,0.3125
13:43:34.396,-11.6563,-1.5625
13:43:34.400,-12.5,-4.0625
13:43:34.402,-13.9376,-5.9375
13:43:34.408,-14.8126,-6.6875
13:43:34.416,-15.6876,-8.8125
13:43:34.424,-16.6251,-10
13:43:34.435,-17.7501,-11.125
13:43:34.445,-18.4688,-13.6876
13:43:34.455,-21.0313,-18.0626
13:43:34.464,-22.0001,-20.6876
13:43:34.476,-22.0001,-21.2501
13:43:34.493,-23.2188,-23.6251
13:43:34.496,-24.3126,-24.6251
13:43:34.510,-25.1251,-27.0626
13:43:34.519,-26.6876,-29.5626
13:43:34.534,-27.8751,-30.5001
13:43:34.549,-28.7189,-33.3126
13:43:34.554,-29.8439,-33.0626
13:43:34.555,-29.9689,-35.5001
13:43:34.564,-30.6251,-35.8751
13:43:34.575,-29.7189,-36.1876
13:43:34.585,-25.8438,-32.8126
13:43:34.595,-20.7188,-25.0626
13:43:34.605,-13.5626,-13.2501
13:43:34.614,-4.4375,2.375
13:43:34.626,4.2813,17.0001
13:43:34.635,13.0938,31.9376
13:43:34.645,20.6563,46.1877
13:43:34.655,28.5314,58.6877
13:43:34.664,33.6251,69.1253
13:43:34.676,38.3126,76.8128
13:43:34.685,39.8752,82.4378
13:43:34.695,42.8439,86.8128
13:43:34.705,43.4689,89.6253
13:43:34.715,44.3439,91.5004
13:43:34.724,44.3439,93.1879
13:43:34.734,43.9689,92.5004
13:43:34.745,44.1252,92.5629
13:43:34.754,42.8127,93.2504
13:43:34.766,42.3127,92.5629
13:43:34.775,42.1877,91.7504
13:43:34.785,39.8127,90.0003
13:43:34.794,37.4689,87.6253
13:43:34.806,35.4689,83.3128
13:43:34.820,33.0314,80.1878
13:43:34.830,30.8439,77.4378
13:43:34.841,29.0626,73.5003
13:43:34.851,27.6251,71.8128
13:43:34.860,25.8751,68.7503
13:43:34.870,24.2501,67.1253
13:43:34.879,22.2813,65.6878
13:43:34.894,22.2188,65.1877
13:43:34.900,21.5626,64.6252
13:43:34.909,20.6251,64.6252
13:43:34.919,21.1251,64.1877
13:43:34.931,19.9376,64.0002
13:43:34.941,20.1876,62.8127
13:43:34.950,18.4688,61.7502
13:43:34.960,17.3751,59.5627
13:43:34.994,16.3438,57.4377
13:43:34.996,12.875,53.7502
13:43:34.999,11.6875,50.6252
13:43:35.001,9.4375,47.5002
13:43:35.038,8,44.6252
13:43:35.040,5.9688,41.2502
13:43:35.043,4.625,38.5626
13:43:35.045,2.5625,34.8751
13:43:35.051,0.7188,31.8751
13:43:35.082,-1.8125,29.0626
13:43:35.085,-2.8438,25.4376
13:43:35.088,-5.0313,21.3751
13:43:35.090,-7.1875,18.2501
13:43:35.124,-8.1563,16.9376
13:43:35.127,-9.75,13.2501
13:43:35.129,-10.875,11
13:43:35.134,-11.9688,10.25
13:43:35.152,-12.375,7.375
13:43:35.154,-13.2501,4.1875
13:43:35.160,-14.6251,3
13:43:35.170,-15.0626,0.8125
13:43:35.181,-16.6876,-2
13:43:35.190,-18.5626,-4.3125
13:43:35.200,-19.3751,-5.25
13:43:35.210,-19.7501,-7.375
13:43:35.220,-20.8751,-10.1875
13:43:35.230,-22.2501,-11.375
13:43:35.240,-22.6563,-13.4376
13:43:35.251,-24.0001,-15.2501
13:43:35.259,-24.3438,-16.7501
13:43:35.269,-25.0938,-19.1251
13:43:35.280,-26.0001,-19.7501
13:43:35.291,-26.5314,-21.9376
13:43:35.300,-27.7189,-23.5626
13:43:35.310,-27.5001,-25.3126
13:43:35.320,-28.8126,-27.3126
13:43:35.330,-30.1564,-28.1251
13:43:35.341,-30.7189,-31.1876
13:43:35.350,-32.2501,-32.5001
13:43:35.360,-33.4064,-35.8751
13:43:35.370,-35.0001,-36.8126
13:43:35.380,-35.6251,-40.1252
13:43:35.390,-37.0939,-41.5002
13:43:35.401,-37.8439,-44.1877
13:43:35.409,-39.3127,-46.0002
13:43:35.421,-39.6252,-46.9377
13:43:35.430,-41.2502,-48.1877
13:43:35.441,-40.7189,-48.3127
13:43:35.451,-38.1564,-44.3752
13:43:35.460,-33.6564,-37.9376
13:43:35.470,-25.8438,-25.8126
13:43:35.479,-18.4376,-10.375
13:43:35.490,-8.9375,3.4375
13:43:35.499,0,18.5001
13:43:35.510,7.0938,32.3126
13:43:35.525,13.8438,43.5002
13:43:35.532,18.9063,53.6252
13:43:35.540,22.4688,60.3127
13:43:35.555,25.2501,66.6878
13:43:35.571,26.1251,68.8128
13:43:35.575,26.8439,72.0628
13:43:35.580,26.7814,71.5628
13:43:35.592,25.8438,72.3128
13:43:35.600,24.2813,70.5628
13:43:35.611,24.0001,70.1253
13:43:35.620,22.5001,70.9378
13:43:35.631,22.2188,68.7503
13:43:35.645,21.6876,68.0003
13:43:35.650,19.3751,66.2503
13:43:35.679,17.9063,63.5627
13:43:35.679,15.5626,59.5627
13:43:35.718,12.7813,55.9377
13:43:35.720,10.7813,52.4377
13:43:35.723,8.4063,48.4377
13:43:35.725,6.7188,45.6877
13:43:35.730,5.4375,41.8752
13:43:35.745,3.9375,40.3752
13:43:35.747,4.375,39.5002
13:43:35.774,3.3125,38.0626
13:43:35.777,2.2188,38.0001
13:43:35.779,2.3125,36.3751
13:43:35.785,1.75,35.1251
13:43:35.818,0.7813,34.6876
13:43:35.850,-0.1875,32.3126
13:43:35.865,-0.6875,31.2501
13:43:35.867,-1.5313,29.3126
13:43:35.885,-3.7188,27.5001
13:43:35.897,-4.6563,25.0626
13:43:35.899,-6.0938,21.6251
13:43:35.899,-7.875,18.4376
13:43:35.900,-10.0313,15.6876
13:43:35.906,-11.9375,12.875
13:43:35.915,-12.8438,9.1875
13:43:35.925,-15.0313,5.6875
13:43:35.935,-16.8751,3.0625
13:43:35.946,-18.1251,-0.3125
13:43:35.955,-19.8751,-3.8125
13:43:35.965,-22.2501,-6.4375
13:43:35.975,-23.5313,-8.875
13:43:35.985,-24.4688,-11.6875
13:43:35.997,-26.0626,-15.4376
13:43:36.005,-28.0939,-17.3751
13:43:36.021,-29.6251,-20.0001
13:43:36.025,-29.7189,-22.6876
13:43:36.035,-30.0626,-24.0001
13:43:36.046,-31.1251,-26.6876
13:43:36.055,-35.0001,-32.1876
13:43:36.065,-35.6564,-34.7501
13:43:36.075,-37.3439,-38.0001
13:43:36.085,-38.6564,-39.5002
13:43:36.095,-40.0002,-42.1252
13:43:36.107,-40.9064,-44.1252
13:43:36.115,-42.1252,-46.3127
13:43:36.125,-43.6252,-47.4377
13:43:36.135,-44.5314,-50.0627
13:43:36.146,-46.2189,-51.2502
13:43:36.155,-47.1877,-54.3127
13:43:36.165,-48.1564,-55.7502
13:43:36.175,-49.4377,-58.1877
13:43:36.185,-51.1564,-61.0002
13:43:36.195,-53.5315,-64.2502
13:43:36.206,-57.8752,-66.8128
13:43:36.215,-62.5002,-71.8128
13:43:36.225,-67.5315,-76.0628
13:43:36.235,-73.3753,-80.5003
13:43:36.245,-78.6253,-85.1253
13:43:36.256,-85.6566,-90.6878
13:43:36.265,-89.9378,-96.3129
13:43:36.275,-94.7816,-99.7504
13:43:36.285,-108.7504,-110.4379
13:43:36.296,-119.5005,-116.6254
13:43:36.305,-133.938,-125.0005
13:43:36.316,-150.7506,-133.0005
13:43:36.325,-166.8756,-139.0005
13:43:36.335,-179.6882,-139.5005
13:43:36.346,-190.0632,-139.313
13:43:36.355,-196.9382,-133.688
13:43:36.365,-191.157,-123.063
13:43:36.375,-185.2195,-108.7504
13:43:36.386,-179.0007,-96.8754
13:43:36.396,-171.3131,-83.6253
13:43:36.405,-164.0631,-73.0003
13:43:36.415,-157.6569,-62.9377
13:43:36.425,-150.2818,-52.3752
13:43:36.435,-143.5005,-46.6877
13:43:36.465,-139.0005,-40.8127
13:43:36.468,-136.9693,-37.4376
13:43:36.472,-133.188,-33.9376
13:43:36.476,-130.3755,-31.5001
13:43:36.508,-128.0942,-29.3126
13:43:36.511,-125.9067,-28.3126
13:43:36.512,-125.063,-25.8751
13:43:36.518,-123.8755,-27.3751
13:43:36.531,-125.0005,-27.6251
13:43:36.535,-126.3755,-30.6251
13:43:36.568,-127.1255,-32.3751
13:43:36.571,-128.438,-34.7501
13:43:36.574,-126.6567,-35.6251
13:43:36.580,-124.7192,-35.0626
13:43:36.585,-122.313,-34.9376
13:43:36.612,-120.4067,-35.4376
13:43:36.615,-119.0942,-34.6876
13:43:36.618,-118.1255,-35.5626
13:43:36.625,-116.8754,-35.2501
13:43:36.635,-116.5317,-35.5001
13:43:36.645,-116.3754,-35.5626
13:43:36.655,-115.9067,-37.3126
13:43:36.665,-117.688,-38.7501
13:43:36.675,-118.563,-41.0002
13:43:36.687,-118.3442,-41.5627
13:43:36.695,-117.813,-43.9377
13:43:36.705,-117.7192,-44.8127
13:43:36.715,-118.7505,-47.6877
13:43:36.725,-120.6255,-50.5627
13:43:36.735,-120.9692,-53.6877
13:43:36.745,-122.313,-55.5002
13:43:36.755,-122.7192,-58.3752
13:43:36.771,-123.7505,-59.9377
13:43:36.776,-122.5942,-61.2502
13:43:36.785,-122.0317,-62.4377
13:43:36.795,-120.5005,-63.4377
13:43:36.805,-118.3755,-65.6877
13:43:36.815,-116.3754,-65.0002
13:43:36.825,-114.9067,-66.9378
13:43:36.840,-114.5004,-68.6878
13:43:36.849,-113.0004,-70.9378
13:43:36.855,-111.3129,-70.5628
13:43:36.873,-108.3754,-71.8753
13:43:36.879,-105.6254,-72.0003
13:43:36.886,-102.9066,-72.5628
13:43:36.895,-101.0629,-72.9378
13:43:36.905,-99.1566,-74.1253
13:43:36.915,-99.3754,-75.1878
13:43:36.925,-99.5316,-77.8753
13:43:36.955,-102.3129,-81.9378
13:43:36.958,-100.4379,-82.1253
13:43:36.960,-98.7816,-82.8128
13:43:36.965,-97.1254,-82.1878
13:43:36.975,-97.0941,-84.7503
13:43:36.985,-96.8441,-86.3128
13:43:36.995,-96.2191,-87.3128
13:43:37.005,-96.3754,-87.8128
13:43:37.015,-95.8754,-89.6253
13:43:37.025,-97.2816,-90.8754
13:43:37.035,-97.8129,-92.6879
13:43:37.045,-98.3129,-94.7504
13:43:37.058,-99.1879,-96.6254
13:43:37.065,-99.0629,-97.9379
13:43:37.077,-99.9379,-99.3129
13:43:37.085,-100.0004,-100.8754
13:43:37.095,-99.3129,-100.1879
13:43:37.105,-96.5941,-96.3754
13:43:37.115,-90.3129,-89.1253
13:43:37.125,-82.4066,-77.4378
13:43:37.135,-73.1878,-64.9377
13:43:37.147,-67.2815,-51.3752
13:43:37.179,-58.5315,-38.5626
13:43:37.182,-52.5314,-27.6251
13:43:37.217,-46.4377,-16.9376
13:43:37.250,-40.5627,-8.5
13:43:37.281,-37.1564,-0.9375
13:43:37.284,-32.6564,3.375
13:43:37.316,-28.8126,8.75
13:43:37.316,-26.4376,13.4376
13:43:37.318,-24.4063,15.6251
13:43:37.320,-21.5938,17.6876
13:43:37.339,-20.6563,19.6251
13:43:37.341,-20.0313,19.8126
13:43:37.342,-19.5938,20.7501
13:43:37.345,-19.2501,19.9376
13:43:37.355,-18.6876,20.5626
13:43:37.365,-19.3438,20.3126
13:43:37.375,-19.5626,17.5001
13:43:37.385,-20.5001,16.3126
13:43:37.395,-23.7188,12.125
13:43:37.405,-25.1251,10.75
13:43:37.440,-27.0314,9.4375
13:43:37.442,-28.2501,7.375
13:43:37.444,-30.1564,6.5625
13:43:37.450,-29.5939,5.625
13:43:37.462,-29.7189,11
13:43:37.470,-28.7189,11.8125
13:43:37.481,-27.6251,11.8125
13:43:37.491,-28.0001,9.5625
13:43:37.500,-28.0626,8.9375
13:43:37.511,-28.5939,6.75
13:43:37.522,-28.5001,5.25
13:43:37.530,-28.8126,3.375
13:43:37.540,-28.7501,1.8125
13:43:37.550,-28.3126,1.1875
13:43:37.560,-27.2189,-0.25
13:43:37.570,-26.0313,-1.3125
13:43:37.580,-24.7813,-2.8125
13:43:37.590,-24.3126,-4.0625
13:43:37.600,-23.2188,-4.75
13:43:37.612,-23.5626,-7.0625
13:43:37.620,-23.2813,-6.8125
13:43:37.630,-22.4688,-8.1875
13:43:37.640,-23.9688,-11.8125
13:43:37.650,-25.9063,-12.625
13:43:37.660,-27.5626,-16.2501
13:43:37.670,-28.3751,-17.6251
13:43:37.680,-28.9376,-19.5001
13:43:37.690,-30.3126,-21.5626
13:43:37.702,-30.7814,-22.1876
13:43:37.711,-31.2501,-25.2501
13:43:37.720,-32.0626,-25.4376
13:43:37.730,-31.2189,-27.6876
13:43:37.740,-30.4689,-29.1876
13:43:37.750,-29.2501,-30.2501
13:43:37.762,-28.4376,-31.0626
13:43:37.771,-26.5626,-32.2501
13:43:37.780,-25.7501,-33.9376
13:43:37.790,-25.9063,-35.7501
13:43:37.803,-27.3126,-39.0626
13:43:37.810,-28.1876,-41.0627
13:43:37.820,-27.9689,-44.1252
13:43:37.830,-27.7501,-45.3752
13:43:37.840,-28.3439,-47.9377
13:43:37.850,-28.3751,-49.4377
13:43:37.860,-28.5626,-51.9377
13:43:37.870,-28.6564,-54.0627
13:43:37.880,-29.9376,-56.7502
13:43:37.896,-30.0939,-57.3752
13:43:37.900,-28.0626,-55.4377
13:43:37.910,-23.7188,-48.6877
13:43:37.920,-17.0626,-38.0001
13:43:37.933,-10.8438,-25.3751
13:43:37.944,-3.4688,-13.1876
13:43:37.974,1.875,-1.4375
13:43:37.976,7.3125,8.8125
13:43:37.979,11.6875,17.5626
13:43:37.982,14.6876,24.7501
13:43:38.012,17.1251,29.8126
13:43:38.016,18.9376,35.1251
13:43:38.018,20.5938,38.3751
13:43:38.020,21.1876,40.9377
13:43:38.056,20.9063,42.4377
13:43:38.058,20.7188,43.3752
13:43:38.060,19.8751,43.2502
13:43:38.066,19.7813,43.1877
13:43:38.076,18.0001,43.0627
13:43:38.083,18.4063,43.0002
13:43:38.109,17.6876,42.1877
13:43:38.112,16.7813,42.1252
13:43:38.114,15.0938,39.1251
13:43:38.120,12.0313,35.6876
13:43:38.130,9.375,32.8751
13:43:38.140,6.8438,30.8751
13:43:38.150,6.0625,28.0626
13:43:38.166,4.3125,25.8126
13:43:38.172,3.5625,24.8126
13:43:38.181,4.1563,24.0626
13:43:38.195,4.9063,25.5001
13:43:38.204,6.2188,25.4376
13:43:38.211,6.4375,25.9376
13:43:38.235,6.75,25.3126
13:43:38.238,6.875,25.3751
13:43:38.240,6.8438,25.6251
13:43:38.250,8.375,25.6251
13:43:38.260,7.4688,25.1876
13:43:38.271,6.6875,24.1876
13:43:38.280,7.9375,22.8751
13:43:38.290,5.0938,21.8751
13:43:38.300,2.6563,18.8126
13:43:38.310,0.0313,17.9376
13:43:38.320,-3.6875,14.0001
13:43:38.330,-5.4063,11.75
13:43:38.340,-6.0625,9.8125
13:43:38.350,-8.3125,7.0625
13:43:38.360,-10.6875,4.3125
13:43:38.370,-12.9375,2.6875
13:43:38.380,-14.6563,0.5
13:43:38.392,-14.6251,-1.625
13:43:38.402,-16.5001,-3.8125
13:43:38.410,-18.2188,-5.125
13:43:38.420,-19.0001,-7.8125
13:43:38.430,-19.5626,-9.375
13:43:38.440,-19.5938,-10.1875
13:43:38.450,-19.3751,-12.375
13:43:38.460,-20.3751,-14.1251
13:43:38.470,-20.6251,-14.0001
13:43:38.480,-20.0001,-16.0626
13:43:38.492,-20.6563,-17.4376
13:43:38.500,-21.1563,-18.5626
13:43:38.510,-20.8751,-20.4376
13:43:38.520,-21.2501,-21.5626
13:43:38.536,-21.1876,-22.7501
13:43:38.542,-21.2188,-25.0001
13:43:38.550,-21.4688,-25.3126
13:43:38.566,-21.3126,-27.3126
13:43:38.574,-21.9376,-28.5626
13:43:38.580,-21.9376,-30.6251
13:43:38.590,-22.3126,-32.5001
13:43:38.600,-22.6251,-33.8126
13:43:38.610,-23.1251,-37.0001
13:43:38.620,-23.5938,-38.1251
13:43:38.630,-24.7188,-40.8752
13:43:38.665,-26.8439,-42.4377
13:43:38.668,-28.0626,-45.5627
13:43:38.672,-30.7501,-47.6877
13:43:38.672,-32.5626,-50.9377
13:43:38.701,-34.5626,-52.6252
13:43:38.704,-35.6564,-55.9377
13:43:38.706,-37.0314,-56.0002
13:43:38.710,-35.9376,-57.3127
13:43:38.736,-32.8751,-55.0627
13:43:38.739,-26.7189,-47.5002
13:43:38.742,-18.7188,-38.2501
13:43:38.781,-9.2188,-25.0001
13:43:38.782,-0.4375,-13.1251
13:43:38.784,8.0625,-0.6875
13:43:38.789,15.3751,9.8125
13:43:38.790,21.7188,19.0001
13:43:38.822,27.1564,27.0001
13:43:38.826,30.7814,34.0626
13:43:38.828,33.5626,37.9376
13:43:38.830,35.6251,40.8752
13:43:38.840,37.4376,42.7502
13:43:38.850,37.6876,43.9377
13:43:38.860,38.0001,44.8127
13:43:38.870,38.3751,44.1252
13:43:38.880,38.1251,44.8127
13:43:38.890,37.5001,43.9377
13:43:38.900,35.8751,43.0002
13:43:38.910,33.8126,40.6877
13:43:38.920,30.8439,37.7501
13:43:38.930,27.0939,34.2501
13:43:38.940,24.2813,30.8751
13:43:38.950,21.0626,26.6876
13:43:38.960,18.7188,23.5001
13:43:38.970,16.1876,19.9376
13:43:38.980,13.3751,17.2501
13:43:38.990,11.5938,15.5626
13:43:39.000,10.75,13.3126
13:43:39.010,9.5,12.5625
13:43:39.020,8.4063,12.5625
13:43:39.030,7.3125,11.5
13:43:39.040,6.5938,10.0625
13:43:39.050,5.4688,9.0625
13:43:39.060,4.7813,8.375
13:43:39.070,3.6563,7.1875
13:43:39.080,2,6.5
13:43:39.090,1.1875,5.75
13:43:39.100,0.4063,3.5
13:43:39.110,-1.2188,2.75
13:43:39.120,-1.9688,-0.125
13:43:39.131,-2.7813,-0.875
13:43:39.140,-2.7188,-3.4375
13:43:39.150,-3.1563,-4.6875
13:43:39.160,-3.25,-5.1875
13:43:39.170,-3.375,-6.8125
13:43:39.180,-3.625,-8.5
13:43:39.196,-4.4688,-9.25
13:43:39.203,-4,-10.3125
13:43:39.210,-4.9688,-12.6875
13:43:39.220,-6.0313,-14.3126
13:43:39.230,-6.125,-14.4376
13:43:39.240,-4.625,-14.9376
13:43:39.250,-6.875,-17.5626
13:43:39.260,-10.1875,-19.6876
13:43:39.270,-12.3125,-20.6876
13:43:39.280,-15.0626,-23.8126
13:43:39.290,-17.2501,-25.2501
13:43:39.300,-17.9376,-26.2501
13:43:39.310,-18.9688,-27.5001
13:43:39.320,-19.9376,-27.8126
13:43:39.330,-20.6251,-29.0626
13:43:39.340,-20.6251,-28.5626
13:43:39.350,-21.4688,-29.5001
13:43:39.360,-21.4688,-30.3751
13:43:39.370,-22.7188,-30.6876
13:43:39.380,-22.7501,-32.5001
13:43:39.409,-23.3751,-33.1251
13:43:39.411,-23.0626,-33.8126
13:43:39.414,-23.0626,-34.7501
13:43:39.420,-23.2813,-34.5626
13:43:39.447,-23.1876,-35.9376
13:43:39.449,-23.2813,-35.9376
13:43:39.452,-23.5938,-37.4376
13:43:39.477,-21.9688,-36.3126
13:43:39.479,-19.5938,-34.1876
13:43:39.522,-14.6563,-27.8751
13:43:39.525,-8.75,-21.3751
13:43:39.579,-3.375,-10.8125
13:43:39.579,4.0938,-1.625
13:43:39.579,10.25,9.1875
13:43:39.581,17.6563,18.5001
13:43:39.583,23.5938,28.8751
13:43:39.588,28.8751,35.0626
13:43:39.589,32.1564,41.7502
13:43:39.589,35.2501,46.7502
13:43:39.596,36.5939,48.8127
13:43:39.605,37.0939,51.6252
13:43:39.615,36.9689,52.0002
13:43:39.625,37.8126,54.3127
13:43:39.635,37.4376,54.2502
13:43:39.645,36.6564,54.0002
13:43:39.655,35.6876,53.6877
13:43:39.665,33.3751,53.1252
13:43:39.675,32.2814,52.2502
13:43:39.685,30.6251,50.2502
13:43:39.695,28.6876,46.6877
13:43:39.705,25.8438,42.3127
13:43:39.716,25.0938,38.6876
13:43:39.726,23.9376,35.8751
13:43:39.738,24.1563,34.4376
13:43:39.745,24.2501,32.4376
13:43:39.755,24.0938,31.0626
13:43:39.765,24.2813,28.8126
13:43:39.781,23.4063,27.1876
13:43:39.790,23.5001,26.6251
13:43:39.800,22.8438,26.1876
13:43:39.810,23.5626,25.4376
13:43:39.820,23.5313,24.6251
13:43:39.830,23.3438,24.0626
13:43:39.850,22.5938,20.7501
13:43:39.852,21.0626,19.4376
13:43:39.862,20.5313,16.3751
13:43:39.870,19.0938,14.3126
13:43:39.885,16.7813,11
13:43:39.894,14.7501,7.25
13:43:39.900,12.0625,3.8125
13:43:39.910,9.3125,1.0625
13:43:39.921,7.9063,-2
13:43:39.931,4.625,-5.375
13:43:39.941,2.0313,-9.9375
13:43:39.951,-0.7188,-13.2501
13:43:39.961,-2.8438,-15.3751
13:43:39.970,-5.0938,-18.7501
13:43:39.980,-6.8438,-21.5001
13:43:39.990,-8.375,-23.7501
13:43:40.000,-10.7813,-25.6876
13:43:40.010,-12,-28.6876
13:43:40.020,-14.5001,-31.2501
13:43:40.031,-16.1876,-34.2501
13:43:40.040,-16.7813,-34.2501
13:43:40.062,-17.0938,-35.3126
13:43:40.064,-17.3751,-36.6876
13:43:40.098,-18.0001,-38.6876
13:43:40.101,-18.8438,-40.3752
13:43:40.102,-18.7813,-41.0627
13:43:40.105,-19.1251,-42.7502
13:43:40.110,-19.4688,-42.9377
13:43:40.121,-19.2813,-44.1252
13:43:40.154,-18.7501,-44.6252
13:43:40.157,-18.1876,-44.4377
13:43:40.159,-18.3438,-45.7502
13:43:40.161,-17.2813,-45.5002
13:43:40.198,-18.0938,-45.7502
13:43:40.200,-19.6563,-47.5627
13:43:40.203,-21.8126,-48.1877
13:43:40.231,-23.1876,-49.3127
13:43:40.232,-24.2813,-47.8752
13:43:40.234,-21.6876,-44.2502
13:43:40.241,-17.5626,-37.1876
13:43:40.241,-10.6875,-27.1876
13:43:40.251,-4.375,-15.7501
13:43:40.260,3.75,-3.5
13:43:40.270,9.7813,8.5625
13:43:40.280,16.0001,18.8126
13:43:40.290,21.5313,28.3126
13:43:40.300,25.8438,36.5001
13:43:40.310,29.3126,42.5627
13:43:40.326,31.7814,47.7502
13:43:40.331,32.4689,51.1252
13:43:40.340,33.5626,52.8127
13:43:40.350,33.6564,54.3752
13:43:40.360,33.0626,55.1252
13:43:40.371,33.2189,56.6252
13:43:40.382,32.8126,56.8127
13:43:40.392,33.5626,57.9377
13:43:40.402,34.6251,59.8752
13:43:40.410,35.4376,59.6877
13:43:40.420,34.1876,59.4377
13:43:40.430,33.1564,56.3752
13:43:40.440,31.0626,53.0002
13:43:40.450,30.3751,51.7502
13:43:40.460,29.1251,48.2502
13:43:40.470,27.8439,46.4377
13:43:40.480,27.7814,43.9377
13:43:40.490,26.9689,42.5002
13:43:40.500,28.2189,42.1252
13:43:40.511,28.3126,40.5002
13:43:40.523,29.0001,41.0002
13:43:40.530,29.2501,39.8752
13:43:40.540,30.1251,39.9377
13:43:40.550,28.9064,38.5626
13:43:40.560,28.1251,38.0001
13:43:40.570,26.7189,35.3751
13:43:40.580,25.5001,34.6876
13:43:40.590,23.6563,31.2501
13:43:40.602,22.8438,29.6251
13:43:40.612,21.2501,27.6876
13:43:40.620,18.6251,25.6251
13:43:40.630,17.3438,22.1251
13:43:40.640,15.5313,20.1876
13:43:40.650,14.3751,17.5626
13:43:40.660,12.6563,13.6876
13:43:40.670,10.875,10.375
13:43:40.680,9.8438,7.4375
13:43:40.690,9.5313,4.9375
13:43:40.701,9.2813,2.8125
13:43:40.711,8.9375,0.25
13:43:40.720,8.6563,-2.4375
13:43:40.730,7.7813,-4.5625
13:43:40.740,6.4688,-8.4375
13:43:40.750,4.9688,-10.3125
13:43:40.761,3.0938,-12.8125
13:43:40.796,1.8438,-16.1876
13:43:40.798,0.125,-19.5626
13:43:40.801,-1.3438,-22.0001
13:43:40.802,-2,-23.0626
13:43:40.880,-1.1875,-25.9376
13:43:40.880,-1.5,-27.6876
13:43:40.951,-1.7813,-28.5626
13:43:40.953,-2.4375,-30.4376
13:43:40.957,-3.7813,-32.9376
13:43:40.957,-6.4688,-35.2501
13:43:40.957,-8.2188,-37.1251
13:43:40.958,-9.4063,-39.5002
13:43:40.961,-10.5,-41.3752
13:43:40.966,-11.5938,-43.8127
13:43:40.966,-14.9688,-46.3127
13:43:40.966,-17.0313,-49.8752
13:43:40.976,-19.9376,-53.7502
13:43:40.985,-21.9688,-54.7502
13:43:40.996,-23.9063,-58.8752
13:43:41.006,-27.0939,-61.6252
13:43:41.015,-28.9064,-65.1252
13:43:41.025,-31.4689,-68.0628
13:43:41.036,-33.0314,-69.5003
13:43:41.047,-33.9689,-71.6878
13:43:41.055,-33.6251,-70.0003
13:43:41.067,-29.6251,-65.1878
13:43:41.078,-22.4376,-56.9377
13:43:41.085,20.0626,4.9375
13:43:41.096,25.5313,14.6251
13:43:41.106,29.6564,22.4376
13:43:41.116,31.8126,27.0626
13:43:41.127,32.8439,29.8751
13:43:41.135,35.3751,34.5626
13:43:41.145,34.0626,36.1876
13:43:41.155,33.6876,37.1876
13:43:41.170,33.9689,38.6876
13:43:41.179,31.0314,39.7502
13:43:41.185,29.7189,38.3751
13:43:41.201,28.7501,38.5001
13:43:41.209,26.6251,37.8126
13:43:41.218,26.3439,36.5001
13:43:41.225,22.6876,34.0626
13:43:41.235,20.1563,31.0626
13:43:41.245,16.7501,28.0626
13:43:41.255,13.8751,23.9376
13:43:41.265,11.0625,20.2501
13:43:41.279,10.1875,18.1251
13:43:41.285,11.5625,18.8126
13:43:41.295,13.0625,18.2501
13:43:41.306,14.9688,19.3751
13:43:41.315,16.1876,18.8751
13:43:41.325,17.2813,19.8751
13:43:41.336,18.1563,20.2501
13:43:41.347,19.8126,20.1876
13:43:41.355,20.2501,20.6876
13:43:41.365,20.7501,19.9376
13:43:41.375,20.4376,18.4376
13:43:41.385,20.0938,17.6876
13:43:41.395,19.9063,16.6251
13:43:41.405,18.4063,14.1251
13:43:41.416,16.4376,11.75
13:43:41.427,14.3438,10.0625
13:43:41.435,11.875,6.25
13:43:41.446,9.4688,3.5
13:43:41.459,8.0313,0.0625
13:43:41.465,4.7188,-2.5625
13:43:41.476,3.375,-5.8125
13:43:41.486,0.5938,-8.25
13:43:41.498,-0.25,-10.125
13:43:41.506,-0.3438,-13.7501
13:43:41.515,-1.3125,-16.0626
13:43:41.525,-1.875,-18.8126
13:43:41.535,-2.4063,-21.4376
13:43:41.545,-1.9063,-23.4376
13:43:41.558,-2.0313,-26.6876
13:43:41.574,-1.0625,-27.3126
13:43:41.576,-2.3438,-30.8751
13:43:41.609,-4.375,-33.2501
13:43:41.613,-6.875,-36.6876
13:43:41.616,-8.5625,-39.3127
13:43:41.618,-8.25,-40.9377
13:43:41.655,-8.5938,-42.5627
13:43:41.660,-9.0313,-43.8752
13:43:41.661,-9.2813,-46.5002
13:43:41.687,-9.5,-47.8127
13:43:41.687,-10.75,-50.6877
13:43:41.689,-12.3438,-52.8127
13:43:41.695,-14.1563,-55.4377
13:43:41.696,-16.6876,-57.0627
13:43:41.730,-19.7501,-61.1252
13:43:41.731,-22.3751,-63.1877
13:43:41.734,-23.4688,-65.9378
13:43:41.736,-25.0313,-67.9378
13:43:41.745,-27.2814,-70.5003
13:43:41.757,-27.9376,-70.9378
13:43:41.765,-29.1251,-73.1253
13:43:41.775,-30.0939,-74.3128
13:43:41.787,-31.4064,-75.8128
13:43:41.799,-33.0939,-77.0003
13:43:41.806,-34.0626,-78.1878
13:43:41.815,-33.8751,-77.3753
13:43:41.826,-29.5626,-71.0003
13:43:41.840,-22.5001,-60.8127
13:43:41.845,-13.125,-45.8752
13:43:41.858,-4.7188,-31.5626
13:43:41.865,2.9063,-18.8751
13:43:41.875,9.875,-6.8125
13:43:41.885,15.2501,1.875
13:43:41.895,19.3751,9.8125
13:43:41.906,22.7501,15.9376
13:43:41.919,26.6876,21.3126
13:43:41.925,29.4689,25.8126
13:43:41.935,31.4689,27.4376
13:43:41.945,33.0939,29.9376
13:43:41.955,32.9376,32.1251
13:43:41.966,30.7189,29.8126
13:43:41.977,30.9376,31.0001
13:43:41.986,29.9064,32.5001
13:43:41.996,28.9376,32.0626
13:43:42.005,27.5939,32.7501
13:43:42.016,27.7189,31.6876
13:43:42.026,27.0001,32.0626
13:43:42.037,25.5938,29.6876
13:43:42.045,23.9376,28.7501
13:43:42.078,22.8126,26.5001
13:43:42.080,21.7501,25.4376
13:43:42.083,20.3126,24.0001
13:43:42.088,20.0001,23.0626
13:43:42.095,18.4376,22.3126
13:43:42.107,18.0313,21.6251
13:43:42.115,19.0001,21.9376
13:43:42.126,19.3126,23.3126
13:43:42.136,20.4688,25.2501
13:43:42.147,21.7813,24.6251
13:43:42.156,22.1876,26.1251
13:43:42.166,21.6251,24.5001
13:43:42.176,20.6876,24.5626
13:43:42.192,22.2501,24.5626
13:43:42.208,21.6251,24.1876
13:43:42.216,21.7501,23.2501
13:43:42.219,20.4688,22.1251
13:43:42.227,19.9063,20.8126
13:43:42.237,18.3438,18.4376
13:43:42.265,16.5938,16.2501
13:43:42.267,17.4688,15.3751
13:43:42.270,15.5938,14.1876
13:43:42.276,13.6563,11.3125
13:43:42.289,11.7813,8.875
13:43:42.316,11.5313,8.75
13:43:42.319,12.0938,7
13:43:42.321,10.9375,6.625
13:43:42.328,9.3125,4.375
13:43:42.361,7.25,2.5
13:43:42.363,4.9688,0.4375
13:43:42.366,3.5313,-1.75
13:43:42.368,1.9375,-2.875
13:43:42.404,1.9375,-3.0625
13:43:42.407,1.7813,-4.875
13:43:42.410,2.5,-3.5625
13:43:42.429,1.4375,-6.25
13:43:42.430,-0.125,-7.9375
13:43:42.432,-0.7188,-7.5
13:43:42.436,0.4688,-8
13:43:42.446,0.0625,-8.875
13:43:42.459,-1.4688,-9.125
13:43:42.465,-3.4375,-10.75
13:43:42.487,-3.0625,-12.0625
13:43:42.489,-4.4063,-13.6876
13:43:42.504,-7.5625,-16.0001
13:43:42.507,-10.375,-18.9376
13:43:42.516,-11.6563,-20.6251
13:43:42.527,-13.3438,-23.0626
13:43:42.539,-14.7501,-25.3126
13:43:42.546,-15.9063,-27.4376
13:43:42.556,-17.8126,-29.3751
13:43:42.565,-17.3751,-29.3126
13:43:42.576,-15.6251,-28.0626
13:43:42.590,-13.1251,-26.6876
13:43:42.595,-7.8438,-21.9376
13:43:42.605,-3.6875,-16.0626
13:43:42.616,1.7188,-8.1875
13:43:42.627,7.8125,1.6875
13:43:42.636,13.0938,11.9375
13:43:42.645,18.5626,22.0626
13:43:42.655,23.4376,30.1251
13:43:42.667,28.4689,38.3126
13:43:42.679,32.2189,46.5627
13:43:42.685,34.7189,51.0002
13:43:42.696,36.3126,55.1877
13:43:42.705,36.9689,56.8127
13:43:42.716,37.0001,59.3127
13:43:42.728,35.7814,58.7502
13:43:42.737,35.2501,59.3127
13:43:42.745,35.0626,59.8127
13:43:42.756,34.3126,60.1252
13:43:42.766,34.4064,59.6877
13:43:42.778,32.9376,59.7502
13:43:42.786,31.9064,58.7502
13:43:42.796,30.5626,56.1877
13:43:42.809,28.7189,53.3752
13:43:42.817,26.1251,50.3752
13:43:42.827,23.2813,46.9377
13:43:42.840,21.3126,44.4377
13:43:42.846,20.4376,40.5627
13:43:42.855,18.6251,38.2501
13:43:42.866,18.7813,36.4376
13:43:42.876,25.9376,39.8127
13:43:42.886,28.2189,41.2502
13:43:42.895,29.8439,41.3127
13:43:42.906,29.5001,40.6877
13:43:42.916,29.7189,40.3752
13:43:42.929,29.7814,39.8752
13:43:42.936,31.0939,40.0002
13:43:42.946,32.3439,40.5627
13:43:42.956,35.8126,41.5627
13:43:42.966,39.0626,41.8127
13:43:42.979,42.2814,43.6252
13:43:42.985,44.3127,43.0627
13:43:42.996,46.9064,42.7502
13:43:43.005,47.8127,41.4377
13:43:43.016,47.0939,39.0626
13:43:43.026,44.7814,37.0001
13:43:43.036,44.9689,33.6876
13:43:43.064,43.5939,31.7501
13:43:43.067,44.0314,29.6251
13:43:43.069,44.1564,28.3126
13:43:43.099,44.5002,27.0626
13:43:43.102,45.1877,25.1251
13:43:43.104,47.1877,24.0626
13:43:43.106,48.6252,23.5001
13:43:43.142,47.3439,20.2501
13:43:43.144,45.2814,17.8751
13:43:43.146,42.1252,14.0001
13:43:43.173,39.8439,10.875
13:43:43.174,40.1252,9
13:43:43.176,41.9377,8.25
13:43:43.180,45.0314,8.75
13:43:43.186,46.2189,9.1875
13:43:43.217,46.7814,8
13:43:43.221,47.1252,6.4375
13:43:43.222,45.6252,4.5
13:43:43.226,43.7189,1.9375
13:43:43.239,41.8127,0.125
13:43:43.247,41.3127,-2.4375
13:43:43.256,40.8439,-3.5625
13:43:43.266,39.8752,-5.75
13:43:43.277,41.2502,-5.3125
13:43:43.287,42.0002,-6.625
13:43:43.296,40.8752,-8.25
13:43:43.306,39.4377,-10.0625
13:43:43.316,36.9376,-12.25
13:43:43.329,35.0314,-16.0626
13:43:43.355,32.1564,-19.0626
13:43:43.357,30.8751,-19.3751
13:43:43.360,30.5939,-21.9376
13:43:43.369,30.1251,-22.8751
13:43:43.379,30.9376,-22.1876
13:43:43.387,34.7501,-19.9376
13:43:43.396,38.4689,-14.2501
13:43:43.406,44.2189,-3.3125
13:43:43.416,50.8439,7.75
13:43:43.426,57.0627,18.8751
13:43:43.436,63.0002,32.2501
13:43:43.448,68.6565,42.2502
13:43:43.456,74.219,53.0002
13:43:43.466,79.5941,62.8752
13:43:43.488,84.1566,69.5003
13:43:43.493,86.6253,73.6878
13:43:43.496,87.0316,77.5003
13:43:43.511,87.8441,79.5628
13:43:43.516,87.2191,80.0628
13:43:43.525,86.6566,80.2503
13:43:43.537,85.8753,80.2503
13:43:43.549,86.3753,82.5628
13:43:43.556,88.0316,82.3753
13:43:43.566,86.9378,83.4378
13:43:43.576,84.8128,81.0628
13:43:43.587,81.5316,78.1253
13:43:43.596,77.3753,75.6878
13:43:43.606,76.469,72.9378
13:43:43.616,73.0003,68.8753
13:43:43.627,70.2503,66.3753
13:43:43.640,67.1878,63.8127
13:43:43.646,64.9065,60.5002
13:43:43.656,61.844,57.3127
13:43:43.666,60.0627,55.6877
13:43:43.677,59.2815,54.3127
13:43:43.687,59.3127,54.8752
13:43:43.696,60.7815,56.1877
13:43:43.718,61.5315,56.7502
13:43:43.720,62.094,57.8127
13:43:43.749,62.594,58.0627
13:43:43.751,63.0627,57.9377
13:43:43.754,62.2502,56.9377
13:43:43.756,60.719,55.5627
13:43:43.790,59.469,54.6252
13:43:43.792,56.8127,51.4377
13:43:43.828,56.1877,49.9377
13:43:43.828,52.9065,46.0627
13:43:43.833,50.2814,41.9377
13:43:43.836,47.4377,38.8751
13:43:43.836,43.7814,35.8751
13:43:43.870,41.1252,31.1251
13:43:43.873,36.8126,27.3126
13:43:43.875,35.8126,24.0001
13:43:43.878,33.2501,21.8751
13:43:43.881,32.6876,19.4376
13:43:43.898,30.8751,17.5626
13:43:43.905,30.0626,14.8751
13:43:43.911,30.0314,13.7501
13:43:43.921,30.2814,11.625
13:43:43.932,29.6564,10
13:43:43.944,27.9064,7.5
13:43:43.953,26.0313,4.8125
13:43:43.961,23.3438,1.8125
13:43:43.971,21.7188,-1.4375
13:43:43.982,19.4688,-4.25
13:43:43.992,17.4688,-7.6875
13:43:44.002,16.8438,-8.25
13:43:44.011,17.6876,-9.8125
13:43:44.021,17.1876,-11.0625
13:43:44.033,17.2188,-11.875
13:43:44.043,15.8438,-12.625
13:43:44.051,14.9376,-15.0626
13:43:44.061,13.0938,-17.2501
13:43:44.072,9.2813,-21.3751
13:43:44.081,7.875,-23.1876
13:43:44.091,7.25,-23.8751
13:43:44.102,6.9063,-25.1876
13:43:44.113,6.8125,-27.7501
13:43:44.121,5.0313,-29.9376
13:43:44.133,3.4063,-33.1876
13:43:44.142,2.5625,-33.5001
13:43:44.152,2.9375,-35.1251
13:43:44.161,2.9375,-36.2501
13:43:44.172,3.0313,-36.3126
13:43:44.181,4.4375,-36.3751
13:43:44.194,6.5938,-35.4376
13:43:44.201,11.0313,-29.5626
13:43:44.211,18.2813,-19.4376
13:43:44.223,27.0626,-5.5
13:43:44.233,37.0939,11.1875
13:43:44.241,45.8127,25.5626
13:43:44.251,52.2502,37.5001
13:43:44.262,56.9065,48.4377
13:43:44.271,61.0315,55.3127
13:43:44.282,62.8127,60.6877
13:43:44.291,63.6565,66.0628
13:43:44.302,64.2815,67.6878
13:43:44.315,62.4377,67.3128
13:43:44.322,58.4377,66.7503
13:43:44.331,56.7815,64.0002
13:43:44.341,54.094,62.0627
13:43:44.352,52.0314,62.3127
13:43:44.361,51.7814,60.0002
13:43:44.371,50.4377,58.8127
13:43:44.382,49.4689,59.1877
13:43:44.392,48.8127,56.9377
13:43:44.403,45.9377,53.6877
13:43:44.439,43.2814,50.3752
13:43:44.440,39.2814,47.5627
13:43:44.444,36.0001,42.3752
13:43:44.445,29.7501,37.9376
13:43:44.451,26.6876,33.1251
13:43:44.488,23.6876,30.6251
13:43:44.490,22.6876,27.5626
13:43:44.494,21.4688,28.0626
13:43:44.498,21.1251,26.1876
13:43:44.503,19.6876,25.8126
13:43:44.535,18.0938,23.8126
13:43:44.537,15.5626,23.6251
13:43:44.540,15.5001,21.5626
13:43:44.542,15.0626,21.5626
13:43:44.572,14.9376,20.9376
13:43:44.579,14.9063,20.5626
13:43:44.580,14.1876,18.9376
13:43:44.584,12.6563,17.5626
13:43:44.598,10.875,14.7501
13:43:44.601,8.2188,12
13:43:44.612,6.6563,8.4375
13:43:44.636,4.7813,6.875
13:43:44.640,3.8125,3
13:43:44.649,1.8438,-0.1875
13:43:44.653,-0.25,-3.3125
13:43:44.661,-1.8125,-6.25
13:43:44.672,-4.4375,-9.4375
13:43:44.683,-6.375,-12.6875
13:43:44.691,-8.6563,-14.5626
13:43:44.701,-9.7188,-16.9376
13:43:44.711,-9.3438,-18.8126
13:43:44.724,-8.8438,-18.6251
13:43:44.731,-12.7813,-23.8751
13:43:44.742,-13.9063,-28.0626
13:43:44.751,-11.6563,-25.4376
13:43:44.765,-16.4688,-30.5001
13:43:44.772,-18.7188,-34.7501
13:43:44.791,-17.5313,-34.6251
13:43:44.796,-20.0001,-35.6251
13:43:44.811,-21.5938,-37.3751
13:43:44.814,-20.6876,-39.5002
13:43:44.822,-20.5626,-40.6252
13:43:44.836,-22.7813,-43.0627
13:43:44.841,-23.2501,-45.2502
13:43:44.852,-24.4688,-46.5627
13:43:44.862,-25.4063,-48.1252
13:43:44.871,-28.9064,-51.1877
13:43:44.881,-32.0939,-54.2502
13:43:44.892,-33.7814,-57.6877
13:43:44.903,-34.9064,-58.8752
13:43:44.911,-35.9376,-61.2502
13:43:44.922,-37.0314,-62.8127
13:43:44.931,-36.3126,-62.9377
13:43:44.942,-36.8126,-64.5627
13:43:44.952,-36.8439,-65.2502
13:43:44.962,-36.8439,-66.9378
13:43:44.972,-38.4064,-67.8128
13:43:44.982,-39.0001,-69.4378
13:43:44.991,-37.3439,-67.6253
13:43:45.003,-32.0314,-61.5627
13:43:45.012,-25.4688,-51.2502
13:43:45.026,-16.1563,-35.3126
13:43:45.032,-6.9063,-20.9376
13:43:45.041,2.5313,-6.625
13:43:45.052,10.6875,6.875
13:43:45.061,17.9376,17.3751
13:43:45.074,22.2813,26.2501
13:43:45.091,26.3751,31.8751
13:43:45.094,27.9064,36.1876
13:43:45.109,29.5626,39.6877
13:43:45.115,30.0626,41.0002
13:43:45.123,29.0001,41.3752
13:43:45.132,28.0939,42.2502
13:43:45.142,27.6251,40.5627
13:43:45.153,27.4064,40.8127
13:43:45.161,28.1251,40.6252
13:43:45.200,26.9689,39.4377
13:43:45.202,25.7813,37.3126
13:43:45.205,23.0313,34.1251
13:43:45.208,19.3438,30.5626
13:43:45.212,15.9063,26.1251
13:43:45.243,13.4063,23.3751
13:43:45.245,11.7813,20.3126
13:43:45.247,9.9063,17.3126
13:43:45.273,9.7188,15.5626
13:43:45.276,10,14.6251
13:43:45.277,9.75,14.6251
13:43:45.281,10.1875,14.6251
13:43:45.310,9.6875,13.6251
13:43:45.313,7.4063,14.5626
13:43:45.315,6.6563,11.25
13:43:45.347,4.0313,10.625
13:43:45.349,4.5625,8.8125
13:43:45.350,5.9375,10.9375
13:43:45.355,2.2813,7.75
13:43:45.363,0.0313,4.125
13:43:45.372,4.4688,7.125
13:43:45.382,2.0313,4.9375
13:43:45.392,-1.2188,0.9375
13:43:45.401,-2.4375,-1.25
13:43:45.412,-3.5625,-2.625
13:43:45.422,-5.125,-5.0625
13:43:45.431,-8.1875,-9.875
13:43:45.442,-10.0313,-13.125
13:43:45.451,-10.3438,-14.3751
13:43:45.463,-10.25,-16.9376
13:43:45.471,-10.9063,-17.9376
13:43:45.482,-10.3125,-19.9376
13:43:45.492,-11.0625,-20.8751
13:43:45.501,-12.75,-22.6251
13:43:45.513,-13.2188,-25.5626
13:43:45.522,-14.4063,-27.8751
13:43:45.534,-14.9376,-29.2501
13:43:45.542,-15.9063,-31.1876
13:43:45.551,-16.5001,-33.2501
13:43:45.561,-16.5313,-34.0626
13:43:45.573,-18.1876,-36.1251
13:43:45.581,-19.1563,-38.2501
13:43:45.592,-21.4063,-40.1877
13:43:45.602,-22.3438,-42.8752
13:43:45.611,-22.7813,-43.3127
13:43:45.621,-22.9063,-45.1252
13:43:45.631,-23.0626,-45.1252
13:43:45.641,-22.3751,-45.4377
13:43:45.651,-21.4063,-45.3127
13:43:45.662,-21.1876,-44.8127
13:43:45.673,-19.4688,-45.4377
13:43:45.681,-19.3126,-45.6252
13:43:45.691,-19.3751,-46.4377
13:43:45.701,-19.6251,-48.8127
13:43:45.711,-21.3438,-49.5627
13:43:45.721,-23.0001,-52.8127
13:43:45.731,-26.0001,-55.7502
13:43:45.743,-27.0939,-57.3127
13:43:45.753,-27.1876,-58.3752
13:43:45.761,-25.7188,-55.8127
13:43:45.777,-20.3438,-48.8752
13:43:45.781,-12.625,-36.9376
13:43:45.792,-2.5,-22.4376
13:43:45.802,6.5,-8
13:43:45.811,14.9688,5.875
13:43:45.821,23.4688,16.7501
13:43:45.831,29.4376,27.9376
13:43:45.843,35.7501,35.1251
13:43:45.851,39.3126,42.5627
13:43:45.861,42.8752,46.3752
13:43:45.871,43.2814,49.5627
13:43:45.882,43.1252,50.3127
13:43:45.892,42.5939,50.6252
13:43:45.916,41.8752,49.9377
13:43:45.919,40.9377,48.5627
13:43:45.924,40.1252,48.5627
13:43:45.932,38.8439,46.6877
13:43:45.941,38.7501,46.0002
13:43:45.962,38.5626,44.5627
13:43:45.966,36.8751,43.3752
13:43:45.971,35.0001,39.5627
13:43:45.999,32.2501,35.7501
13:43:46.001,30.4376,32.6251
13:43:46.004,28.7814,30.8751
13:43:46.040,28.0626,28.6876
13:43:46.042,26.4376,27.5626
13:43:46.046,26.1563,25.6251
13:43:46.051,26.4064,25.9376
13:43:46.052,27.5626,26.4376
13:43:46.094,27.8751,26.8126
13:43:46.095,28.5001,27.8126
13:43:46.128,28.5626,26.8751
13:43:46.132,28.3439,26.7501
13:43:46.133,27.9376,25.8126
13:43:46.136,26.6564,25.0001
13:43:46.140,26.5314,24.6876
13:43:46.140,25.6876,23.4376
13:43:46.147,24.0001,21.0001
13:43:46.157,22.3438,18.2501
13:43:46.169,20.9376,15.5626
13:43:46.176,18.5626,13.5001
13:43:46.187,15.8438,9.625
13:43:46.197,14.3126,7.5625
13:43:46.206,14.3126,6.375
13:43:46.216,12.9063,3.75
13:43:46.228,10.6563,1.5
13:43:46.236,10.9063,-0.375
13:43:46.246,10.6875,-2.3125
13:43:46.257,8.7188,-4.4375
13:43:46.266,7.6563,-6.75
13:43:46.276,6.5938,-8.875
13:43:46.286,6.0313,-11
13:43:46.296,5,-12
13:43:46.306,3.875,-15.2501
13:43:46.316,2.5313,-16.5626
13:43:46.329,1.3438,-17.6251
13:43:46.336,0,-19.8126
13:43:46.346,-1.4375,-21.1251
13:43:46.358,-3.1875,-23.1876
13:43:46.366,-5.2813,-25.5626
13:43:46.388,-6.3125,-26.8751
13:43:46.390,-7.4688,-29.4376
13:43:46.405,-8.8125,-30.0001
13:43:46.410,-10.125,-33.2501
13:43:46.416,-11.5313,-34.2501
13:43:46.427,-12.125,-35.5626
13:43:46.439,-13.5938,-37.3126
13:43:46.447,-14.5938,-39.0001
13:43:46.457,-15.6876,-40.2502
13:43:46.469,-16.3126,-40.9377
13:43:46.476,-14.5626,-39.1251
13:43:46.486,-12.6563,-33.6251
13:43:46.496,-7.3125,-27.1251
13:43:46.507,-0.3438,-16.6251
13:43:46.516,6.2188,-5.625
13:43:46.532,13.125,6.3125
13:43:46.537,19.6251,16.5001
13:43:46.546,25.2813,25.8751
13:43:46.556,28.7501,31.9376
13:43:46.567,31.5001,37.8126
13:43:46.576,32.8126,40.8127
13:43:46.586,33.4064,43.6877
13:43:46.597,34.0314,45.1877
13:43:46.606,34.6251,45.2502
13:43:46.617,33.5314,46.1877
13:43:46.626,33.2189,43.8752
13:43:46.636,31.5626,44.2502
13:43:46.646,31.2501,42.6877
13:43:46.656,30.2814,42.3127
13:43:46.666,28.1564,39.4377
13:43:46.676,25.1251,38.3126
13:43:46.692,23.5313,34.1876
13:43:46.697,21.5001,30.3751
13:43:46.724,19.4688,28.0626
13:43:46.727,17.8438,25.5001
13:43:46.728,16.0938,23.1251
13:43:46.767,14.8751,20.6876
13:43:46.768,14.2501,20.1876
13:43:46.770,15.5313,19.7501
13:43:46.773,16.1251,20.6251
13:43:46.777,16.8126,21.0001
13:43:46.792,17.4063,20.6251
13:43:46.796,18.0313,21.1876
13:43:46.822,17.8751,21.0626
13:43:46.824,17.6251,20.8751
13:43:46.828,17.7188,19.8751
13:43:46.837,17.1563,19.7501
13:43:46.865,16.5938,17.1251
13:43:46.868,15.8438,15.9376
13:43:46.870,14.8126,14.3126
13:43:46.878,12.9063,12.3125
13:43:46.886,11.25,9.6875
13:43:46.898,8.8125,7.1875
13:43:46.908,7.6563,5.1875
13:43:46.916,6.875,2
13:43:46.926,5.8438,0.0625
13:43:46.936,5.0625,-1.75
13:43:46.946,3.125,-5.5
13:43:46.956,2.25,-7.8125
13:43:46.966,0.7813,-10.4375
13:43:46.976,-1.3125,-13.3751
13:43:46.986,-3.9375,-15.2501
13:43:46.997,-4.5,-18.0626
13:43:47.006,-6.0625,-20.5001
13:43:47.019,-7.2813,-23.0626
13:43:47.026,-8.4375,-24.8751
13:43:47.036,-9.25,-26.1876
13:43:47.048,-10.375,-27.0626
13:43:47.056,-11,-30.2501
13:43:47.066,-12.25,-31.2501
13:43:47.077,-13.4688,-33.6251
13:43:47.086,-14.3751,-35.0001
13:43:47.096,-15.6251,-36.8126
13:43:47.109,-16.8751,-38.8126
13:43:47.116,-17.7188,-40.5002
13:43:47.126,-19.7501,-43.2502
13:43:47.138,-20.7188,-44.6252
13:43:47.146,-23.5938,-45.8752
13:43:47.156,-24.1563,-47.8127
13:43:47.168,-24.5626,-48.6877
13:43:47.197,-25.7188,-48.8127
13:43:47.201,-23.6876,-48.0627
13:43:47.202,-19.5001,-43.0627
13:43:47.207,-14.3438,-35.0626
13:43:47.217,-7.0938,-25.5001
13:43:47.226,1.8438,-11.6875
13:43:47.236,9.2813,-0.8125
13:43:47.248,16.7813,10.5625
13:43:47.256,21.5938,18.5626
13:43:47.266,25.4688,26.6876
13:43:47.280,27.5001,30.9376
13:43:47.290,29.3751,34.7501
13:43:47.298,30.0939,37.1876
13:43:47.308,30.3439,38.6876
13:43:47.316,30.7814,39.3126
13:43:47.327,32.3439,40.5002
13:43:47.336,31.6876,40.5002
13:43:47.346,31.5001,39.7502
13:43:47.356,31.1876,39.8127
13:43:47.366,30.6564,38.7501
13:43:47.388,30.6251,38.2501
13:43:47.395,29.9064,35.8751
13:43:47.396,28.4064,34.1251
13:43:47.411,27.1251,31.9376
13:43:47.430,24.7188,28.5001
13:43:47.432,22.3438,25.6876
13:43:47.463,20.0313,24.0626
13:43:47.465,19.3126,22.0626
13:43:47.467,18.0001,19.6251
13:43:47.470,17.5938,20.0001
13:43:47.477,18.0938,19.1876
13:43:47.506,17.3126,18.8751
13:43:47.508,17.2813,18.6251
13:43:47.510,17.6563,17.9376
13:43:47.541,17.5938,18.0001
13:43:47.543,17.8126,16.9376
13:43:47.545,17.7501,17.6251
13:43:47.550,17.7501,16.1876
13:43:47.581,16.3751,15.2501
13:43:47.584,15.3126,13.5626
13:43:47.586,14.5938,11.5625
13:43:47.589,13.8126,9.0625
13:43:47.602,13.3126,7.125
13:43:47.606,12.8438,5.875
13:43:47.616,11.2813,4.1875
13:43:47.627,9.5625,2.25
13:43:47.636,8.4688,-1.3125
13:43:47.646,6.2813,-3.625
13:43:47.660,5.25,-5.375
13:43:47.666,4.4688,-8.125
13:43:47.684,2.8125,-10.1875
13:43:47.686,1.2188,-12.9375
13:43:47.701,0.3438,-14.5001
13:43:47.712,-0.6563,-15.5001
13:43:47.718,-0.7813,-16.9376
13:43:47.727,-1.3438,-18.0626
13:43:47.736,-1.7813,-19.6251
13:43:47.746,-2.8125,-20.8126
13:43:47.759,-4.375,-22.5001
13:43:47.766,-5.2813,-24.4376
13:43:47.776,-6.5625,-26.2501
13:43:47.786,-7.3438,-27.4376
13:43:47.796,-7.7188,-27.6251
13:43:47.806,-8.3438,-30.0001
13:43:47.816,-8.3438,-30.2501
13:43:47.826,-9.5,-30.2501
13:43:47.843,-9.7813,-32.2501
13:43:47.851,-9.2813,-32.5626
13:43:47.861,-7.625,-29.6251
13:43:47.872,-4.3438,-25.3751
13:43:47.882,0.5938,-17.9376
13:43:47.892,5.4688,-10.375
13:43:47.901,11.4063,-0.375
13:43:47.912,16.7813,9.0625
13:43:47.921,22.0938,16.2501
13:43:47.932,26.3126,24.8751
13:43:47.943,29.8439,29.8751
13:43:47.952,32.6564,34.0001
13:43:47.961,33.0001,36.1876
13:43:47.974,33.6251,37.2501
13:43:47.981,34.2501,38.4376
13:43:47.991,32.8751,38.3751
13:43:48.003,32.5939,38.5626
13:43:48.011,32.1251,38.5001
13:43:48.022,32.0001,37.6876
13:43:48.035,31.5314,36.3751
13:43:48.041,30.3126,36.2501
13:43:48.051,29.1876,33.9376
13:43:48.062,26.7189,30.5626
13:43:48.071,26.3751,28.7501
13:43:48.082,26.9689,28.1876
13:43:48.096,26.0001,25.1876
13:43:48.120,23.7501,22.1251
13:43:48.123,22.1251,20.6251
13:43:48.127,20.9376,19.0001
13:43:48.132,18.9376,17.3126
13:43:48.159,17.8126,16.9376
13:43:48.160,16.3438,15.6876
13:43:48.162,14.8751,14.3126
13:43:48.200,13.6563,12.3125
13:43:48.203,12.625,11.8125
13:43:48.204,12.375,11.3125
13:43:48.207,11.625,10.4375
13:43:48.212,10.3125,8.9375
13:43:48.243,9.7188,7.9375
13:43:48.245,9.2188,6.5625
13:43:48.247,7.5625,4.5625
13:43:48.252,5.75,2.0625
13:43:48.267,3.75,1
13:43:48.272,3.375,-1.125
13:43:48.282,2.4688,-3.3125
13:43:48.291,1.375,-5.375
13:43:48.301,0.2813,-6.25
13:43:48.313,-1.0313,-8.9375
13:43:48.321,-3,-11.375
13:43:48.331,-4.375,-12.3125
13:43:48.344,-5.3438,-14.9376
13:43:48.352,-6.9688,-17.1251
13:43:48.362,-7.9375,-18.6251
13:43:48.371,-8.7813,-19.0001
13:43:48.381,-9.6875,-22.1251
13:43:48.392,-10.5,-23.7501
13:43:48.402,-11.8125,-25.0626
13:43:48.416,-13.3126,-26.7501
13:43:48.421,-19.0626,-30.0626
13:43:48.432,-21.9688,-32.2501
13:43:48.441,-22.7188,-32.1251
13:43:48.475,-22.0001,-31.8751
13:43:48.478,-20.6251,-30.0001
13:43:48.480,-17.0626,-25.5001
13:43:48.482,-11.8125,-18.5001
13:43:48.491,-7.6563,-11.4375
13:43:48.501,-1.3125,-3.1875
13:43:48.512,4.0938,5.25
13:43:48.521,9.4375,12.9375
13:43:48.531,13.6563,20.3126
13:43:48.543,15.9376,24.7501
13:43:48.551,18.0313,28.7501
13:43:48.562,18.3751,31.2501
13:43:48.571,19.1876,33.0626
13:43:48.581,18.2188,32.0001
13:43:48.593,17.1563,32.1251
13:43:48.602,17.4688,31.4376
13:43:48.611,16.5313,31.6876
13:43:48.624,16.3438,31.5626
13:43:48.633,15.6251,30.6876
13:43:48.641,14.8126,30.1876
13:43:48.651,14.5313,28.5626
13:43:48.662,13.3438,26.8126
13:43:48.672,12.5625,24.3751
13:43:48.681,11.0938,22.0001
13:43:48.697,9.875,19.8126
13:43:48.712,7.6563,18.1251
13:43:48.715,7.5,15.8751
13:43:48.730,6.4375,14.3126
13:43:48.735,4.75,12.5625
13:43:48.741,4.0938,11.5
13:43:48.751,3.4375,11.8125
13:43:48.761,3.875,11.5
13:43:48.771,3.9375,10.9375
13:43:48.782,3.4375,11.1875
13:43:48.791,3.3125,11.375
13:43:48.801,3.4688,9.9375
13:43:48.814,3.4688,9
13:43:48.821,2.9375,8.5625
13:43:48.831,2.5,7.6875
13:43:48.841,1.0313,5.25
13:43:48.851,-0.75,2.125
13:43:48.862,-2.375,1
13:43:48.871,-3.9375,-0.8125
13:43:48.890,-4.5,-2.875
13:43:48.893,-5.625,-5.125
13:43:48.923,-6.625,-6.875
13:43:48.924,-7.5313,-7.8125
13:43:48.927,-7.2813,-9.9375
13:43:48.933,-7.25,-11.875
13:43:48.959,-8.125,-13.3751
13:43:48.963,-9.0313,-13.6876
13:43:48.964,-10.3438,-16.5626
13:43:49.004,-12.375,-18.1251
13:43:49.037,-12.9063,-19.3126
13:43:49.060,-14.2501,-22.6251
13:43:49.075,-15.9688,-25.1251
13:43:49.078,-17.0001,-26.0626
13:43:49.078,-17.0626,-28.3126
13:43:49.078,-17.7813,-29.3126
13:43:49.092,-17.5626,-29.9376
13:43:49.095,-16.2501,-30.7501
13:43:49.097,-16.9063,-30.1251
13:43:49.103,-17.6251,-33.0001
13:43:49.111,-19.3126,-35.1251
13:43:49.121,-20.3438,-36.0001
13:43:49.131,-20.5938,-37.4376
13:43:49.141,-18.7813,-33.9376
13:43:49.152,-14.5626,-29.1251
13:43:49.167,-9.3125,-21.5001
13:43:49.172,-2.5625,-12.625
13:43:49.181,3.4063,-2.125
13:43:49.191,10.0625,7.375
13:43:49.201,15.4376,14.9376
13:43:49.212,19.4688,21.8126
13:43:49.222,22.1563,27.1251
13:43:49.232,26.6251,37.6876
13:43:49.241,27.5314,39.6877
13:43:49.252,28.9376,40.0627
13:43:49.263,29.2814,40.2502
13:43:49.272,28.2814,40.6877
13:43:49.282,26.8439,40.1252
13:43:49.293,24.9063,37.4376
13:43:49.301,22.8438,36.5626
13:43:49.311,20.7501,32.6876
13:43:49.321,18.4376,30.9376
13:43:49.331,16.2188,27.0626
13:43:49.343,15.2501,25.7501
13:43:49.352,15.0313,23.3751
13:43:49.361,14.6251,22.9376
13:43:49.371,14.2813,21.8126
13:43:49.381,14.7501,20.8126
13:43:49.391,14.8438,19.8751
13:43:49.402,13.6563,19.0001
13:43:49.411,11.9688,18.8126
13:43:49.422,10.9063,17.5626
13:43:49.431,10.9375,15.8126
13:43:49.443,9.9688,14.6876
13:43:49.451,9.4375,14.5001
13:43:49.461,8.2188,13.5001
13:43:49.472,8.1563,12.125
13:43:49.481,6.75,10.625
13:43:49.491,5.625,9.3125
13:43:49.504,4.7188,6.875
13:43:49.511,4.8125,4.875
13:43:49.521,4.7813,4.875
13:43:49.534,4.75,2.375
13:43:49.542,1.9375,-1.1875
13:43:49.576,-0.6563,-3.125
13:43:49.579,-2.3125,-6
13:43:49.581,-3.375,-8.75
13:43:49.584,-5.4375,-11.4375
13:43:49.614,-7.5,-13.5626
13:43:49.617,-7.9688,-14.7501
13:43:49.619,-7.9063,-17.6251
13:43:49.623,-9.1875,-19.3751
13:43:49.652,-9.125,-18.7501
13:43:49.655,-8.5313,-20.5001
13:43:49.659,-10.0938,-22.6251
13:43:49.663,-11.0938,-23.6251
13:43:49.703,-12.4375,-27.0626
13:43:49.704,-14.9063,-29.6251
13:43:49.706,-15.7188,-30.2501
13:43:49.709,-15.5626,-31.1876
13:43:49.713,-15.3751,-32.9376
13:43:49.744,-14.7501,-32.6251
13:43:49.747,-14.6876,-33.8751
13:43:49.749,-16.5626,-34.8751
13:43:49.763,-17.5938,-37.5626
13:43:49.766,-19.5001,-39.0001
13:43:49.771,-19.8126,-40.4377
13:43:49.781,-20.0001,-42.1252
13:43:49.792,-22.0313,-42.3127
13:43:49.802,-22.9688,-45.1252
13:43:49.816,-23.7813,-45.3127
13:43:49.830,-23.5938,-47.4377
13:43:49.836,-23.2188,-47.0002
13:43:49.847,-23.6563,-49.8127
13:43:49.856,-24.7501,-50.0002
13:43:49.866,-23.5626,-50.5002
13:43:49.877,-24.0313,-52.8752
13:43:49.888,-24.7813,-53.5002
13:43:49.898,-24.6876,-54.6877
13:43:49.906,-23.3438,-53.3127
13:43:49.920,-21.3438,-52.1252
13:43:49.926,-16.7188,-44.5002
13:43:49.937,-10.1563,-35.6251
13:43:49.950,-1.25,-21.8751
13:43:49.958,7.875,-9.8125
13:43:49.967,15.8438,2.625
13:43:49.976,26.2813,17.6876
13:43:49.998,32.1564,26.7501
13:43:50.004,35.7501,32.5001
13:43:50.006,36.6564,36.7501
13:43:50.021,37.8126,39.1252
13:43:50.030,37.4689,40.8752
13:43:50.036,38.0939,41.2502
13:43:50.046,37.1876,42.0002
13:43:50.057,38.0626,42.6252
13:43:50.068,38.0939,43.0627
13:43:50.078,38.0001,42.9377
13:43:50.086,36.7501,42.9377
13:43:50.098,35.9064,41.3752
13:43:50.107,33.7501,39.5002
13:43:50.118,32.0314,38.2501
13:43:50.128,30.2501,35.0626
13:43:50.136,28.2189,32.2501
13:43:50.146,25.8438,29.6876
13:43:50.158,24.0626,27.6876
13:43:50.169,22.0313,24.6876
13:43:50.176,21.4063,23.0001
13:43:50.187,20.1251,21.8751
13:43:50.196,18.2813,20.3126
13:43:50.207,19.0001,20.9376
13:43:50.218,19.1876,20.6876
13:43:50.228,19.8751,21.6876
13:43:50.236,19.3126,21.1876
13:43:50.247,19.1876,21.2501
13:43:50.256,19.0626,20.3751
13:43:50.267,18.7501,19.4376
13:43:50.278,17.8751,18.0626
13:43:50.308,16.1876,15.2501
13:43:50.308,15.6563,14.3751
13:43:50.311,15.2188,12.9375
13:43:50.318,13.5313,12.0625
13:43:50.355,12.125,9.4375
13:43:50.358,10.2813,6.4375
13:43:50.374,8.0938,5.3125
13:43:50.404,6.8438,1.5
13:43:50.466,4.4688,-0.625
13:43:50.466,2.3438,-4.0625
13:43:50.468,0.5938,-5.875
13:43:50.470,-0.1875,-8.1875
13:43:50.473,-0.625,-9.25
13:43:50.477,-1.875,-11.125
13:43:50.477,-2.9063,-13.6876
13:43:50.482,-3.2813,-15.0001
13:43:50.493,-3.5,-15.9376
13:43:50.503,-5,-17.4376
13:43:50.511,-6.9375,-19.2501
13:43:50.522,-8.0313,-21.9376
13:43:50.532,-8.8438,-23.8126
13:43:50.543,-9.2813,-24.8126
13:43:50.552,-10.6875,-26.9376
13:43:50.563,-12.0938,-28.2501
13:43:50.573,-12.5938,-29.9376
13:43:50.581,-13.4063,-31.4376
13:43:50.591,-14.9688,-33.3751
13:43:50.602,-16.1876,-35.6251
13:43:50.614,-16.7813,-36.0626
13:43:50.622,-16.7501,-36.8126
13:43:50.632,-15.9688,-37.8751
