timestamp,Red,IR
13:47:50.666,-6.5,-12.9375
13:47:50.667,-6.25,-13.6251
13:47:50.672,-6.1875,-14.1876
13:47:50.675,-6.375,-14.3126
13:47:50.685,-6.125,-13.2501
13:47:50.696,-5.4375,-14.3751
13:47:50.706,-4.625,-15.1251
13:47:50.714,-4.4375,-15.4376
13:47:50.725,-4.8125,-15.6251
13:47:50.735,-5.6875,-16.5001
13:47:50.747,-6.1875,-16.3126
13:47:50.755,-5.5625,-14.8126
13:47:50.765,-3.6875,-11.6875
13:47:50.776,-0.125,-7.875
13:47:50.783,3.375,-2.6875
13:47:50.795,7.375,4
13:47:50.805,11.8125,10.25
13:47:50.816,13.8751,16.7501
13:47:50.825,16.0626,20.0626
13:47:50.834,17.4376,23.0626
13:47:50.846,17.5626,25.3126
13:47:50.857,17.8126,27.1876
13:47:50.864,18.3126,26.7501
13:47:50.873,18.5001,28.3751
13:47:50.886,18.4376,27.7501
13:47:50.895,18.6251,28.8126
13:47:50.905,19.3126,29.0001
13:47:50.915,20.1876,30.3751
13:47:50.924,18.9376,29.0001
13:47:50.933,17.5626,29.0001
13:47:50.945,17.8751,28.7501
13:47:50.957,17.5001,29.0001
13:47:50.964,17.5626,29.6251
13:47:50.979,17.4376,30.7501
13:47:50.987,19.0001,31.1876
13:47:50.995,18.7501,30.5001
13:47:51.011,16.5001,29.0626
13:47:51.026,14.7501,28.6251
13:47:51.029,15.0001,27.8751
13:47:51.035,13.5626,26.4376
13:47:51.045,12,25.5001
13:47:51.053,10.375,24.3126
13:47:51.065,11,24.5626
13:47:51.074,10.3125,24.6876
13:47:51.086,10.6875,23.6251
13:47:51.095,10.0625,22.8751
13:47:51.104,10.125,24.0626
13:47:51.114,11.0625,24.8126
13:47:51.124,10.8125,23.5001
13:47:51.134,10.9375,23.8126
13:47:51.146,11.0625,23.1251
13:47:51.154,12.6875,25.5626
13:47:51.164,14.0001,24.8751
13:47:51.174,13.7501,23.5626
13:47:51.217,13.9376,23.3751
13:47:51.220,13.2501,23.6251
13:47:51.222,13.6876,22.6251
13:47:51.226,13.3126,21.8751
13:47:51.227,13.0625,22.3126
13:47:51.269,13.5001,21.9376
13:47:51.269,13.6251,20.6876
13:47:51.273,13.6876,20.0626
13:47:51.278,13.7501,20.4376
13:47:51.281,14.3126,20.0626
13:47:51.294,13.6876,18.8751
13:47:51.296,13.6876,18.0001
13:47:51.324,13.2501,17.3751
13:47:51.335,13.2501,17.6251
13:47:51.340,12.8125,17.4376
13:47:51.340,13.1876,16.4376
13:47:51.346,12,15.3751
13:47:51.362,11.3125,14.1876
13:47:51.365,10.125,13.6876
13:47:51.379,10.1875,11.625
13:47:51.388,7.875,10.25
13:47:51.395,7.125,9.4375
13:47:51.412,5.875,7.8125
13:47:51.429,3.75,6.875
13:47:51.430,2.875,5.75
13:47:51.437,1.9375,4.625
13:47:51.445,0.9375,5.0625
13:47:51.454,1.5625,3.625
13:47:51.465,1.25,3.9375
13:47:51.475,1.3125,3.125
13:47:51.485,1.1875,1.875
13:47:51.494,0.375,1.75
13:47:51.504,-0.3125,0.75
13:47:51.515,-0.5,0.3125
13:47:51.526,-0.8125,-1.0625
13:47:51.535,-1.5625,-1.625
13:47:51.545,-1.75,-2.5625
13:47:51.555,-1.5,-1.625
13:47:51.565,-1.375,-2.9375
13:47:51.575,-1.4375,-3.625
13:47:51.585,-0.375,-2.6875
13:47:51.594,-0.1875,-2.9375
13:47:51.606,-0.25,-3.1875
13:47:51.616,0.4375,-4.1875
13:47:51.625,0.5,-4.5625
13:47:51.635,-0.5,-4.4375
13:47:51.645,-1.1875,-4.8125
13:47:51.675,-0.5625,-6.6875
13:47:51.679,-1.0625,-7.8125
13:47:51.681,-1.0625,-7.9375
13:47:51.686,-0.625,-7.75
13:47:51.695,-0.0625,-8.125
13:47:51.708,-0.375,-8.4375
13:47:51.714,-0.0625,-8.125
13:47:51.725,-0.25,-9.375
13:47:51.735,-0.8125,-9.1875
13:47:51.745,-1.0625,-9.875
13:47:51.755,-1.625,-10.4375
13:47:51.764,-1.625,-9.75
13:47:51.775,-1.0625,-11.625
13:47:51.785,-2.4375,-12.625
13:47:51.795,-2.75,-11.9375
13:47:51.806,-2.625,-12.75
13:47:51.814,-2.1875,-12.5
13:47:51.825,-1.5,-13.4376
13:47:51.835,-0.5625,-12.1875
13:47:51.843,-0.1875,-12.875
13:47:51.855,0.1875,-12.3125
13:47:51.863,-0.3125,-13.1876
13:47:51.875,-0.75,-13.6876
13:47:51.883,-1.0625,-13.5626
13:47:51.894,-1.3125,-14.0626
13:47:51.915,-1.5,-15.3126
13:47:51.918,-0.5625,-13.3751
13:47:51.947,1,-11.375
13:47:51.951,3,-6.3125
13:47:51.953,5.5,-2.5
13:47:51.955,8.75,4.6875
13:47:51.995,12.25,9.9375
13:47:51.995,15.9376,16.3126
13:47:51.998,18.3126,19.8751
13:47:52.000,19.8751,24.5001
13:47:52.006,20.6251,26.2501
13:47:52.040,20.1251,27.9376
13:47:52.042,20.6251,28.6251
13:47:52.044,19.3126,28.8751
13:47:52.046,19.0001,28.1876
13:47:52.084,17.0626,27.4376
13:47:52.086,16.3751,26.8751
13:47:52.089,16.4376,25.8751
13:47:52.091,15.3126,27.0626
13:47:52.097,15.8126,27.3751
13:47:52.107,15.2501,26.8126
13:47:52.115,15.0001,27.6251
13:47:52.125,16.3751,28.0626
13:47:52.134,14.5626,27.5626
13:47:52.145,14.5001,27.6876
13:47:52.155,13.5626,27.6251
13:47:52.164,13.5001,26.5001
13:47:52.175,13.0625,25.0626
13:47:52.184,12,24.9376
13:47:52.196,11.6875,24.3126
13:47:52.205,11.5,24.8126
13:47:52.214,11.4375,23.7501
13:47:52.225,11.125,23.8751
13:47:52.235,11,23.8126
13:47:52.243,11.625,25.1251
13:47:52.255,11.6875,24.0626
13:47:52.263,12.4375,23.6876
13:47:52.274,12.3125,24.7501
13:47:52.296,12.5,25.5626
13:47:52.301,13.6876,25.3751
13:47:52.308,14.0626,24.6251
13:47:52.315,14.0626,26.3751
13:47:52.332,15.0626,25.3751
13:47:52.335,13.4376,23.9376
13:47:52.350,12.8125,24.0001
13:47:52.354,12.5,23.1876
13:47:52.364,11.9375,22.0001
13:47:52.373,10.875,19.8126
13:47:52.384,9.4375,19.4376
13:47:52.394,9.25,19.1876
13:47:52.406,8.875,17.8751
13:47:52.415,8.5625,17.1876
13:47:52.424,8.75,16.8126
13:47:52.435,8.25,16.3751
13:47:52.444,7.5,14.8751
13:47:52.457,6.5,14.0626
13:47:52.465,6.0625,13.1876
13:47:52.475,5.4375,12.4375
13:47:52.485,4.25,10.5625
13:47:52.495,3.5625,10.3125
13:47:52.503,2.9375,9.875
13:47:52.514,3.0625,9.4375
13:47:52.523,3.8125,8.8125
13:47:52.535,4.5625,8.75
13:47:52.545,4,8.1875
13:47:52.555,4.125,8.125
13:47:52.570,4,8.625
13:47:52.582,4.5625,6.875
13:47:52.589,2.875,5.5625
13:47:52.600,2.0625,6.125
13:47:52.611,2.625,4.25
13:47:52.619,1.5,3.125
13:47:52.653,0.875,4.3125
13:47:52.657,1.875,2.6875
13:47:52.658,1.75,1.5625
13:47:52.660,1.875,2.4375
13:47:52.697,1.75,1.8125
13:47:52.732,2.1875,0.6875
13:47:52.801,0.75,-0.375
13:47:52.802,-0.375,-1.6875
13:47:52.819,-1.5625,-1.5625
13:47:52.819,-3,-3.75
13:47:52.819,-3.625,-5.1875
13:47:52.822,-4.0625,-4.6875
13:47:52.822,-3.6875,-5.1875
13:47:52.828,-3.375,-6.0625
13:47:52.828,-3.625,-5.8125
13:47:52.828,-3.5,-6.125
13:47:52.835,-3.875,-7.0625
13:47:52.844,-4.3125,-8.4375
13:47:52.855,-5.375,-9
13:47:52.865,-6.125,-9.3125
13:47:52.875,-6.75,-10
13:47:52.885,-8,-11.4375
13:47:52.894,-8.375,-11.3125
13:47:52.905,-7.8125,-11.5
13:47:52.915,-7.4375,-12.3125
13:47:52.924,-7.75,-13.1876
13:47:52.955,-8.375,-14.6251
13:47:52.959,-9,-17.1251
13:47:52.961,-9.5625,-15.7501
13:47:52.966,-9.125,-16.7501
13:47:52.975,-9.25,-18.0001
13:47:52.984,-8.75,-17.4376
13:47:52.996,-4.8125,-11.8125
13:47:53.005,-1.875,-8.5
13:47:53.015,1.9375,-3.125
13:47:53.024,5.375,3.9375
13:47:53.035,9,9.75
13:47:53.046,12.5,15.4376
13:47:53.055,15.7501,20.1251
13:47:53.066,17.9376,24.8751
13:47:53.075,19.8126,26.8126
13:47:53.083,20.5626,29.8751
13:47:53.095,20.2501,30.1251
13:47:53.105,19.8126,29.6251
13:47:53.113,18.6251,30.3126
13:47:53.124,17.1251,28.8126
13:47:53.134,15.8126,28.5001
13:47:53.146,15.5001,27.5001
13:47:53.153,14.6876,27.7501
13:47:53.163,15.1251,28.5001
13:47:53.175,15.6876,28.4376
13:47:53.185,15.7501,30.4376
13:47:53.195,15.3751,31.1251
13:47:53.203,15.3126,30.2501
13:47:53.215,14.1876,29.3126
13:47:53.224,13.2501,30.0626
13:47:53.234,12.125,28.2501
13:47:53.246,10.8125,26.5626
13:47:53.255,9.25,25.8751
13:47:53.266,9.25,25.5626
13:47:53.275,9.125,24.8751
13:47:53.287,8.875,24.1876
13:47:53.295,8.5,25.2501
13:47:53.305,8.4375,25.3751
13:47:53.314,8.0625,23.9376
13:47:53.324,7.3125,22.9376
13:47:53.334,6.3125,22.1876
13:47:53.345,5.5625,22.4376
13:47:53.355,4.375,21.1876
13:47:53.369,3.875,20.1876
13:47:53.401,3.75,21.4376
13:47:53.405,4.125,21.0626
13:47:53.408,3.75,20.0001
13:47:53.408,3.75,20.0626
13:47:53.416,3.4375,18.9376
13:47:53.451,2.75,18.2501
13:47:53.452,2.375,18.3126
13:47:53.455,2.5,16.9376
13:47:53.464,1.0625,15.4376
13:47:53.465,0.25,14.5001
13:47:53.494,-0.0625,15.0001
13:47:53.497,0.9375,14.2501
13:47:53.500,0.5,13.3751
13:47:53.505,0.25,12.4375
13:47:53.534,0.0625,13.0625
13:47:53.536,0.4375,12.125
13:47:53.539,-0.0625,9.8125
13:47:53.545,-0.625,10.4375
13:47:53.554,-1.25,9.5625
13:47:53.563,-0.6875,7.9375
13:47:53.575,-1.75,7
13:47:53.583,-1.25,8.125
13:47:53.593,-0.625,6.875
13:47:53.605,-1,6.5
13:47:53.620,-1.3125,5.8125
13:47:53.635,-1.8125,5.5625
13:47:53.637,-1.5625,6.4375
13:47:53.653,-1.25,4.375
13:47:53.668,-1.5625,3.5
13:47:53.671,-1.3125,3.8125
13:47:53.675,-1.25,3.5625
13:47:53.685,-0.8125,2.5
13:47:53.695,-1.25,1.5
13:47:53.704,-1.4375,2.125
13:47:53.714,-0.8125,0.75
13:47:53.724,-2.4375,0.25
13:47:53.736,-2.625,0.25
13:47:53.745,-2.6875,-1.625
13:47:53.754,-3.8125,-1.8125
13:47:53.765,-4.375,-2.5625
13:47:53.773,-4.9375,-4.0625
13:47:53.785,-6.5625,-4.5625
13:47:53.793,-7.1875,-5.625
13:47:53.806,-6.5,-6.8125
13:47:53.815,-6.3125,-7.4375
13:47:53.823,-6.9375,-7.375
13:47:53.835,-6.5,-7.8125
13:47:53.844,-6.75,-9.25
13:47:53.855,-7.4375,-8.875
13:47:53.864,-7,-9.6875
13:47:53.876,-7.0625,-11
13:47:53.885,-7.125,-10.25
13:47:53.896,-6.25,-10.8125
13:47:53.905,-6.125,-11
13:47:53.914,-5.375,-11.625
13:47:53.925,-6.125,-11.25
13:47:53.934,-5.75,-12.5625
13:47:53.944,-7.25,-12.75
13:47:53.954,-7.3125,-13.8751
13:47:53.967,-8.5,-14.5001
13:47:53.976,-9.0625,-16.1251
13:47:53.985,-9.25,-15.8126
13:47:53.994,-9.3125,-15.6876
13:47:54.005,-9.5,-17.1876
13:47:54.015,-10.0625,-18.0001
13:47:54.025,-9.875,-17.5001
13:47:54.034,-10.5,-19.1251
13:47:54.044,-10.75,-18.3126
13:47:54.055,-11.375,-20.3751
13:47:54.064,-11.6875,-20.5626
13:47:54.095,-12.5625,-21.7501
13:47:54.098,-13.6251,-22.2501
13:47:54.128,-12.75,-22.0001
13:47:54.199,-12.1875,-20.8126
13:47:54.201,-10.4375,-17.8126
13:47:54.203,-7.3125,-15.5626
13:47:54.203,-4.5,-10.625
13:47:54.203,-0.625,-3.8125
13:47:54.205,3.1875,1.3125
13:47:54.207,6,7.1875
13:47:54.237,7.6875,11.4375
13:47:54.237,9.625,16.5626
13:47:54.238,11.0625,19.1876
13:47:54.239,10.625,21.7501
13:47:54.243,11.125,23.3751
13:47:54.248,11.6875,22.9376
13:47:54.254,11.375,24.6876
13:47:54.266,11.625,24.6251
13:47:54.275,11.375,23.6251
13:47:54.286,10.75,24.6876
13:47:54.293,10.1875,24.1251
13:47:54.303,9.375,23.5626
13:47:54.314,8.75,23.3126
13:47:54.325,8.5625,23.3126
13:47:54.333,9.125,27.6251
13:47:54.350,8.6875,27.4376
13:47:54.355,8.5,26.2501
13:47:54.365,8.0625,26.5001
13:47:54.375,7.625,25.0626
13:47:54.383,6.9375,24.2501
13:47:54.395,6.4375,23.6876
13:47:54.403,6.3125,24.2501
13:47:54.416,7.375,23.3751
13:47:54.424,6.875,22.9376
13:47:54.433,7.5,24.8751
13:47:54.443,8.375,24.6251
13:47:54.455,8.875,24.0626
13:47:54.465,8.4375,23.3751
13:47:54.474,8.4375,24.9376
13:47:54.483,9,24.0001
13:47:54.495,8.375,23.0626
13:47:54.504,7.75,23.1876
13:47:54.513,7.25,23.3751
13:47:54.525,8.1875,22.4376
13:47:54.534,7.9375,21.7501
13:47:54.544,8.125,21.4376
13:47:54.554,7.625,21.6876
13:47:54.567,8.375,20.3126
13:47:54.574,8,19.4376
13:47:54.585,6.8125,19.5626
13:47:54.595,6.625,17.6876
13:47:54.604,5.75,16.0626
13:47:54.614,4.375,15.3126
13:47:54.624,3.5625,14.7501
13:47:54.633,3.1875,13.5626
13:47:54.644,3.1875,12.625
13:47:54.655,3.1875,13.6876
13:47:54.665,3.9375,12.8125
13:47:54.673,3.0625,10.875
13:47:54.683,2.6875,10.8125
13:47:54.695,2.4375,10.0625
13:47:54.705,0.6875,8.1875
13:47:54.714,-0.8125,8.3125
13:47:54.724,-1.3125,6.3125
13:47:54.733,-2.875,4.0625
13:47:54.743,-4.25,3.5625
13:47:54.755,-4.5625,3.375
13:47:54.765,-5.0625,2.6875
13:47:54.774,-5.25,0.75
13:47:54.784,-6.875,-0.9375
13:47:54.794,-8.1875,-2.0625
13:47:54.803,-9.375,-3.6875
13:47:54.815,-11.375,-3.75
13:47:54.823,-11.625,-5.5
13:47:54.834,-12.375,-6.9375
13:47:54.844,-13.5001,-7.8125
13:47:54.855,-14.3751,-9.375
13:47:54.865,-13.1251,-8.125
13:47:54.874,-13.0625,-9.1875
13:47:54.918,-12.625,-8.0625
13:47:54.920,-11.6875,-8.625
13:47:54.926,-10.875,-9.3125
13:47:54.949,-10.9375,-10.5
13:47:55.022,-10.75,-9.5625
13:47:55.024,-11,-11.1875
13:47:55.026,-11.75,-11.25
13:47:55.026,-12.5,-11.5625
13:47:55.030,-12.0625,-13.5626
13:47:55.031,-13.2501,-12.625
13:47:55.037,-12.375,-14.0001
13:47:55.037,-13.2501,-14.5626
13:47:55.037,-12.375,-14.7501
13:47:55.041,-12.375,-14.7501
13:47:55.063,-11.5625,-15.2501
13:47:55.066,-11.4375,-15.0001
13:47:55.070,-11.25,-15.8126
13:47:55.080,-12.5,-15.5626
13:47:55.089,-12.625,-17.8126
13:47:55.099,-13.4376,-17.8751
13:47:55.109,-12.8125,-18.2501
13:47:55.118,-13.0625,-19.0626
13:47:55.129,-13.3751,-20.1876
13:47:55.138,-13.3126,-20.6251
13:47:55.148,-12.875,-20.6876
13:47:55.159,-12.3125,-19.3751
13:47:55.168,-12.125,-19.9376
13:47:55.180,-11.3125,-19.9376
13:47:55.190,-11.875,-20.7501
13:47:55.199,-8.6875,-12.8125
13:47:55.209,-6.1875,-12.625
13:47:55.219,-3.3125,-7.5
13:47:55.230,0,-0.375
13:47:55.239,3.1875,4.125
13:47:55.248,6.375,10.4375
13:47:55.260,8.9375,14.6876
13:47:55.271,10.5625,19.1876
13:47:55.279,11.5625,20.8751
13:47:55.289,11.3125,22.5626
13:47:55.301,12.4375,22.6251
13:47:55.310,10.9375,23.0626
13:47:55.318,10.1875,23.5626
13:47:55.329,10.0625,22.0001
13:47:55.340,8.875,23.4376
13:47:55.350,8.75,22.1251
13:47:55.358,7.3125,21.6251
13:47:55.369,6.75,21.1251
13:47:55.380,6.1875,20.5626
13:47:55.391,5.1875,21.3751
13:47:55.399,5.3125,21.0001
13:47:55.408,5.0625,20.6251
13:47:55.420,4.8125,20.5626
13:47:55.430,3.8125,20.8751
13:47:55.445,4.3125,20.2501
13:47:55.453,3.875,19.3126
13:47:55.460,3.5625,19.8126
13:47:55.477,3.75,19.8126
13:47:55.480,3.6875,18.6251
13:47:55.519,2.8125,17.7501
13:47:55.521,2.3125,16.8126
13:47:55.523,2.4375,18.3126
13:47:55.529,3.125,17.6876
13:47:55.529,3.5625,17.6876
13:47:55.539,3,17.9376
13:47:55.550,3.0625,18.2501
13:47:55.559,3.6875,17.7501
13:47:55.570,3,16.8751
13:47:55.579,2.0625,16.0626
13:47:55.588,1.4375,16.5001
13:47:55.600,1.6875,15.1876
13:47:55.609,0.75,13.8126
13:47:55.624,-0.0625,14.0001
13:47:55.655,-0.5,13.2501
13:47:55.656,-0.5625,11.25
13:47:55.659,-1.4375,11.125
13:47:55.661,-1.4375,9.8125
13:47:55.693,-2,9.0625
13:47:55.696,-3.0625,7.75
13:47:55.698,-4.6875,6.8125
13:47:55.702,-5.375,6.5625
13:47:55.741,-5.8125,4.6875
13:47:55.744,-6.4375,3.5625
13:47:55.745,-7.5,2.3125
13:47:55.771,-7.6875,3.4375
13:47:55.771,-7.0625,1.1875
13:47:55.772,-7.5,0.9375
13:47:55.776,-7.6875,0.9375
13:47:55.781,-7.5625,-0.4375
13:47:55.796,-9.1875,-0.5625
13:47:55.800,-9.625,-1
13:47:55.810,-9.625,-2.375
13:47:55.820,-9.5,-3.375
13:47:55.831,-9.5,-3.0625
13:47:55.839,-9.75,-4.6875
13:47:55.853,-9.4375,-5.0625
13:47:55.861,-9.1875,-4.3125
13:47:55.870,-9.0625,-5.625
13:47:55.878,-10.5,-5.125
13:47:55.889,-10.8125,-7.0625
13:47:55.899,-11.5,-8.375
13:47:55.910,-11.3125,-9.0625
13:47:55.919,-12.4375,-9.0625
13:47:55.931,-12.125,-9.6875
13:47:55.939,-12.8125,-11.375
13:47:55.950,-13,-11.6875
13:47:55.958,-13.4376,-12.0625
13:47:55.968,-12.9375,-12.4375
13:47:55.980,-13.0625,-13.5001
13:47:55.989,-13.2501,-14.1251
13:47:55.999,-13.9376,-15.1251
13:47:56.010,-13.7501,-14.5001
13:47:56.019,-13.6876,-15.5626
13:47:56.030,-13.6876,-16.3126
13:47:56.040,-14.3126,-16.7501
13:47:56.050,-13.2501,-16.3751
13:47:56.061,-12.9375,-15.5001
13:47:56.070,-11.1875,-13.5626
13:47:56.078,-8.25,-10.25
13:47:56.090,-5.9375,-5.0625
13:47:56.099,-3.1875,-0.25
13:47:56.109,-1.5625,4.6875
13:47:56.119,1.625,9.125
13:47:56.130,3.125,13.5001
13:47:56.139,5.25,17.0626
13:47:56.148,6.25,19.6876
13:47:56.160,7.25,21.1251
13:47:56.170,7.625,22.1876
13:47:56.178,7.25,23.4376
13:47:56.189,6.9375,22.1876
13:47:56.201,6.25,21.3126
13:47:56.210,5.8125,21.7501
13:47:56.219,5.0625,20.3126
13:47:56.234,5.0625,21.3751
13:47:56.240,5.625,21.3126
13:47:56.250,5.8125,21.6251
13:47:56.259,6.8125,23.1251
13:47:56.281,6.5,23.2501
13:47:56.284,6.25,24.1251
13:47:56.419,7.0625,23.5626
13:47:56.419,6.3125,22.0001
13:47:56.419,5.5625,21.6876
13:47:56.421,4.5,21.8751
13:47:56.423,4.3125,20.0626
13:47:56.447,4.1875,19.6876
13:47:56.449,3.875,18.8126
13:47:56.449,3.25,17.3751
13:47:56.451,2.4375,18.8126
13:47:56.453,2.125,17.3751
13:47:56.460,1.9375,16.8126
13:47:56.464,1.4375,16.1876
13:47:56.474,1.75,17.8751
13:47:56.483,2.8125,16.8751
13:47:56.495,1.625,16.5626
13:47:56.505,1.625,16.3126
13:47:56.516,1.5,15.8751
13:47:56.524,0.625,15.1876
13:47:56.534,0.1875,13.6876
13:47:56.544,-0.5625,14.5626
13:47:56.554,-0.375,13.3751
13:47:56.565,-0.5,12.75
13:47:56.575,-1.1875,12.125
13:47:56.585,-1.375,11.0625
13:47:56.594,-6.5,5.125
13:47:56.608,-6.5,3.625
13:47:56.613,-6.8125,2.125
13:47:56.624,-7.8125,1.9375
13:47:56.634,-7.75,0.9375
13:47:56.645,-8.25,-0.75
13:47:56.654,-8.3125,-0.5625
13:47:56.666,-8.875,-0.875
13:47:56.675,-9.0625,-2.25
13:47:56.684,-8.8125,-3.0625
13:47:56.694,-9.875,-3.875
13:47:56.704,-11,-3.3125
13:47:56.713,-11.0625,-5.625
13:47:56.752,-11.6875,-7.25
13:47:56.754,-11.125,-6.25
13:47:56.768,-11.5625,-7.375
13:47:56.771,-11.6875,-7.625
13:47:56.798,-11.625,-8.6875
13:47:56.799,-11.8125,-8.0625
13:47:56.814,-11,-8.9375
13:47:56.816,-12.25,-10.375
13:47:56.823,-11.75,-9.9375
13:47:56.823,-12.75,-10.6875
13:47:56.830,-12.3125,-11.4375
13:47:56.840,-12.4375,-11.5625
13:47:56.850,-12.3125,-11.875
13:47:56.859,-11.6875,-12.875
13:47:56.868,-12.125,-12.5
13:47:56.880,-12.125,-14.6251
13:47:56.888,-12.875,-14.8751
13:47:56.900,-13.5626,-15.5001
13:47:56.909,-13.8126,-16.3126
13:47:56.919,-14.6876,-18.1251
13:47:56.928,-15.5001,-18.8751
13:47:56.938,-15.8751,-18.5626
13:47:56.950,-16.6876,-20.0626
13:47:56.959,-16.2501,-19.7501
13:47:56.970,-16.3126,-20.3751
13:47:56.984,-15.7501,-21.2501
13:47:56.991,-16.0001,-20.1876
13:47:57.000,-15.5626,-21.8126
13:47:57.018,-16.3751,-20.9376
13:47:57.020,-15.8126,-22.3751
13:47:57.050,-16.6876,-23.4376
13:47:57.052,-17.0001,-22.7501
13:47:57.055,-17.3126,-24.3751
13:47:57.060,-17.9376,-25.0626
13:47:57.093,-17.7501,-25.5626
13:47:57.095,-18.3751,-25.2501
13:47:57.098,-17.2501,-24.8126
13:47:57.124,-16.6251,-23.3751
13:47:57.125,-14.6251,-21.5626
13:47:57.128,-12.8125,-18.3751
13:47:57.132,-9.875,-12.75
13:47:57.149,-6,-7.25
13:47:57.151,-3.8125,-0.875
13:47:57.187,-1.75,3.75
13:47:57.190,0.3125,6.8125
13:47:57.190,1.8125,11.3125
13:47:57.197,2.5,12.9375
13:47:57.200,3.625,14.5001
13:47:57.210,4.1875,16.0001
13:47:57.219,3.8125,16.6251
13:47:57.230,3.875,16.4376
13:47:57.240,2.625,16.6876
13:47:57.249,1.8125,16.4376
13:47:57.260,1.5,15.0626
13:47:57.270,0.5625,16.1876
13:47:57.281,0.75,15.6876
13:47:57.290,0.875,16.0626
13:47:57.299,2.0625,18.1251
13:47:57.310,3,18.1251
13:47:57.320,4.3125,19.8751
13:47:57.328,4.9375,19.6251
13:47:57.338,4.1875,19.2501
13:47:57.350,3.875,19.0626
13:47:57.365,2.75,18.4376
13:47:57.370,2.8125,18.2501
13:47:57.380,1.1875,16.6251
13:47:57.390,0.375,17.0001
13:47:57.398,0.5,15.6251
13:47:57.410,0.125,14.9376
13:47:57.420,0.125,15.3126
13:47:57.429,0.125,16.1876
13:47:57.439,1.25,15.6251
13:47:57.449,1.125,15.1876
13:47:57.459,1.4375,15.5001
13:47:57.469,0.8125,16.6251
13:47:57.479,1.25,15.5626
13:47:57.489,0.9375,15.1251
13:47:57.499,0.0625,14.3751
13:47:57.509,-0.125,14.0001
13:47:57.522,0.8125,13.4376
13:47:57.530,0.125,12.625
13:47:57.538,0.5,13.3126
13:47:57.551,-0.0625,11.4375
13:47:57.559,-1.125,10.5
13:47:57.570,-1.75,10.8125
13:47:57.579,-1.75,9.625
13:47:57.590,-3.125,7.9375
13:47:57.599,-3.5,6.625
13:47:57.609,-3.9375,6.875
13:47:57.621,-4.0625,6.0625
13:47:57.630,-3.875,4.75
13:47:57.638,-5.125,3.375
13:47:57.654,-5.5,2.4375
13:47:57.664,-6.0625,2
13:47:57.668,-6.875,2.1875
13:47:57.684,-6.3125,1.4375
13:47:57.693,-6.75,0.5625
13:47:57.699,-6.5625,-0.3125
13:47:57.708,-7.4375,-0.25
13:47:57.720,-6.75,-1.5625
13:47:57.728,-7,-1.875
13:47:57.739,-7.4375,-1.5625
13:47:57.776,-7.9375,-2.4375
13:47:57.777,-8.9375,-4.5625
13:47:57.780,-9.875,-4
13:47:57.782,-10.3125,-5.3125
13:47:57.824,-10.8125,-6.875
13:47:57.830,-10.9375,-6.375
13:47:57.830,-10.4375,-7
13:47:57.835,-9.375,-7.625
13:47:57.837,-9.4375,-8
13:47:57.843,-8.9375,-6.875
13:47:57.870,-9.3125,-8.1875
13:47:57.872,-10.0625,-9.0625
13:47:57.875,-10.8125,-10.5
13:47:57.881,-12.0625,-10.9375
13:47:57.907,-11.625,-11.8125
13:47:57.911,-13.2501,-12.5625
13:47:57.912,-13.1876,-12.75
13:47:57.921,-12.6875,-13.8126
13:47:57.932,-13.3126,-13
13:47:57.938,-13,-14.5626
13:47:57.950,-13.3126,-14.8751
13:47:57.958,-13.6251,-15.3751
13:47:57.970,-14.3751,-15.3751
13:47:57.978,-14.3751,-17.0626
13:47:57.990,-14.5001,-17.6876
13:47:57.998,-15.1876,-17.7501
13:47:58.010,-15.3126,-18.4376
13:47:58.019,-15.6876,-19.5626
13:47:58.031,-16.0001,-20.2501
13:47:58.038,-15.5626,-19.8126
13:47:58.050,-15.2501,-20.6251
13:47:58.075,-15.1251,-20.7501
13:47:58.078,-14.0626,-20.6876
13:47:58.080,-14.5626,-19.9376
13:47:58.098,-14.3126,-20.8126
13:47:58.100,-14.2501,-21.2501
13:47:58.115,-14.5626,-21.3126
13:47:58.130,-15.0626,-21.6876
13:47:58.132,-14.9376,-22.7501
13:47:58.142,-15.0626,-23.6876
13:47:58.149,-14.5626,-22.1876
13:47:58.158,-13.3126,-22.8751
13:47:58.170,-11.625,-20.1251
13:47:58.178,-9.4375,-19.4376
13:47:58.190,-7.0625,-15.1876
13:47:58.199,-4.375,-11.625
13:47:58.210,-0.875,-5
13:47:58.220,1.6875,-1.125
13:47:58.228,3.6875,3.6875
13:47:58.240,5.625,8.25
13:47:58.248,6.25,10.875
13:47:58.259,6.5625,13.1876
13:47:58.270,8.5,15.5001
13:47:58.279,8.5,17.4376
13:47:58.288,9.375,17.8751
13:47:58.299,8.125,17.1251
13:47:58.310,7.75,18.1876
13:47:58.320,7.6875,17.1876
13:47:58.328,6.125,18.0626
13:47:58.338,5.875,16.5001
13:47:58.348,4.375,17.1876
13:47:58.360,3.625,15.8751
13:47:58.369,3.5,16.3751
13:47:58.378,2.9375,16.3126
13:47:58.389,2.375,15.5626
13:47:58.400,1.4375,16.0626
13:47:58.409,1.5,16.3126
13:47:58.418,0.375,14.6876
13:47:58.430,-0.75,15.0626
13:47:58.439,-1.125,13.3751
13:47:58.448,-2.25,12.4375
13:47:58.460,-2.5,12.75
13:47:58.469,-3.1875,12.125
13:47:58.490,-2.75,11.4375
13:47:58.493,-3.1875,10.625
13:47:58.521,-3.6875,10.5625
13:47:58.522,-3.375,10.4375
13:47:58.525,-3.5,11.8125
13:47:58.532,-2.875,11.4375
13:47:58.559,-2.9375,10.5
13:47:58.561,-3.5625,10.375
13:47:58.564,-3.6875,11.1875
13:47:58.569,-3.3125,10.25
13:47:58.585,-4.375,9.4375
13:47:58.590,-5.1875,8.625
13:47:58.621,-5.5625,8.875
13:47:58.623,-5.5625,7.625
13:47:58.625,-5.5625,8.0625
13:47:58.632,-5.5,7
13:47:58.646,-5,6.375
13:47:58.654,-4.5625,6.375
13:47:58.669,-5.0625,6.25
13:47:58.671,-5.9375,6.4375
13:47:58.680,-6.125,4.3125
13:47:58.689,-6.4375,3.375
13:47:58.698,-7,3.3125
13:47:58.709,-7.1875,2.0625
13:47:58.719,-7.9375,1.5
13:47:58.728,-7.125,1.4375
13:47:58.738,-7.375,1.75
13:47:58.748,-6.0625,1.75
13:47:58.760,-5.875,1.125
13:47:58.768,-6,2.3125
13:47:58.779,-5.625,0.5
13:47:58.790,-6.1875,0.0625
13:47:58.799,-6.3125,-0.875
13:47:58.808,-7.5625,-2.5
13:47:58.820,-6.6875,-1.3125
13:47:58.828,-6.8125,-2.125
13:47:58.839,-6.9375,-2.6875
13:47:58.848,-6.5625,-3.375
13:47:58.858,-7.25,-3.5625
13:47:58.869,-6.4375,-4.1875
13:47:58.879,-8,-4.25
13:47:58.889,-7.6875,-5.3125
13:47:58.899,-8.8125,-6.6875
13:47:58.911,-9.625,-6.8125
13:47:58.919,-9.375,-7.125
13:47:58.928,-10.4375,-8.5
13:47:58.939,-11.0625,-9.25
13:47:58.950,-11.625,-9.1875
13:47:58.968,-11.4375,-9.9375
13:47:58.976,-11.25,-10.875
13:47:58.983,-12.5,-11.375
13:47:58.988,-12.25,-12.125
13:47:59.006,-14.0001,-12.6875
13:47:59.014,-13.8126,-13.6251
13:47:59.023,-14.3751,-14.3751
13:47:59.030,-13.5626,-14.6876
13:47:59.044,-13.8751,-15.1876
13:47:59.050,-13.9376,-15.4376
13:47:59.058,-14.3126,-14.9376
13:47:59.070,-14.3126,-14.5626
13:47:59.079,-12.6875,-14.7501
13:47:59.090,-11.1875,-12.3125
13:47:59.098,-8.25,-8.0625
13:47:59.108,-5.1875,-4.125
13:47:59.120,-2.5625,0.6875
13:47:59.128,-0.25,4.5625
13:47:59.138,1.5625,9
13:47:59.148,3.125,11.9375
13:47:59.159,4.3125,14.8751
13:47:59.168,5.625,17.0626
13:47:59.178,5.0625,17.8126
13:47:59.189,5.1875,18.6251
13:47:59.198,4.9375,18.1876
13:47:59.209,4.375,18.7501
13:47:59.220,4.8125,17.9376
13:47:59.241,3.5,18.2501
13:47:59.244,3,17.3126
13:47:59.277,2.3125,18.1876
13:47:59.279,2.875,17.6251
13:47:59.280,2.4375,18.3126
13:47:59.286,2.4375,18.8126
13:47:59.290,2.5625,17.9376
13:47:59.323,1.375,18.1876
13:47:59.325,1.9375,17.6876
13:47:59.327,1,16.4376
13:47:59.358,0.625,15.6251
13:47:59.359,0.125,16.3751
13:47:59.362,0.9375,15.5001
13:47:59.368,0.4375,14.8126
13:47:59.370,0.25,15.2501
13:47:59.383,0.1875,15.1876
13:47:59.388,0.3125,14.3126
13:47:59.421,-0.4375,13.8751
13:47:59.424,-0.75,15.1876
13:47:59.441,0,14.4376
13:47:59.443,0.5,14.0626
13:47:59.443,-0.4375,13.8751
13:47:59.450,-0.25,15.0001
13:47:59.459,-0.25,13.9376
13:47:59.470,0.1875,13
13:47:59.478,-0.5,12.4375
13:47:59.489,-0.5625,12
13:47:59.500,-1.1875,12.5625
13:47:59.510,-0.9375,11
13:47:59.518,-1.875,9.875
13:47:59.528,-2.875,10
13:47:59.539,-2.3125,9.5
13:47:59.549,-2.0625,8.125
13:47:59.559,-1.625,8.8125
13:47:59.569,-1.5625,7.8125
13:47:59.579,-2.0625,6.9375
13:47:59.590,-2.6875,6.0625
13:47:59.598,-3.6875,5.5625
13:47:59.608,-4.0625,4.5625
13:47:59.620,-4.75,4.5625
13:47:59.631,-5.375,4.3125
13:47:59.640,-5.1875,2.9375
13:47:59.648,-5,3.1875
13:47:59.660,-4.5,2.625
13:47:59.668,-4.3125,1.125
13:47:59.678,-3.4375,1.6875
13:47:59.689,-3,1.3125
13:47:59.698,-3.625,1.5
13:47:59.709,-2.9375,0.75
13:47:59.719,-3.6875,0.25
13:47:59.730,-4.25,0.125
13:47:59.739,-4.9375,-1.875
13:47:59.750,-6.25,-1.3125
13:47:59.760,-6.25,-3.1875
13:47:59.769,-6.75,-4
13:47:59.780,-7.25,-3.75
13:47:59.796,-7.8125,-6.25
13:47:59.800,-8.1875,-5.1875
13:47:59.810,-8.6875,-7.75
13:47:59.820,-8.625,-6.4375
13:47:59.830,-9.75,-7.25
13:47:59.840,-9.875,-8.3125
13:47:59.848,-10,-8.875
13:47:59.860,-9.375,-8.875
13:47:59.869,-7.9375,-9.125
13:47:59.880,-8.25,-9.25
13:47:59.888,-8.75,-8.75
13:47:59.899,-8.375,-10.625
13:47:59.908,-9.0625,-10
13:47:59.919,-8.8125,-12
13:47:59.929,-9.6875,-12.625
13:47:59.938,-10.0625,-12.875
13:47:59.948,-10.875,-15.0001
13:47:59.977,-11.75,-15.3126
13:47:59.983,-12.1875,-16.1876
13:47:59.988,-12.875,-16.4376
13:47:59.993,-13.1876,-17.8751
13:48:00.026,-12.8125,-18.0001
13:48:00.027,-13.2501,-18.7501
13:48:00.030,-13.0625,-18.1251
13:48:00.033,-13.0625,-19.2501
13:48:00.038,-12.9375,-18.2501
13:48:00.076,-13.3751,-19.4376
13:48:00.077,-14.1876,-20.0626
13:48:00.080,-14.9376,-21.5001
13:48:00.082,-16.1251,-21.8126
13:48:00.089,-15.9376,-23.0001
13:48:00.122,-17.6876,-23.3751
13:48:00.123,-18.0626,-24.6251
13:48:00.127,-18.5626,-24.8751
13:48:00.142,-18.3751,-25.0626
13:48:00.146,-18.5001,-25.9376
13:48:00.151,-18.3751,-25.4376
13:48:00.159,-18.1251,-26.4376
13:48:00.170,-17.5001,-24.8126
13:48:00.180,-16.8751,-25.1876
13:48:00.189,-15.9376,-24.6251
13:48:00.199,-14.3126,-23.0626
13:48:00.209,-12.375,-20.1251
13:48:00.219,-10.0625,-16.0001
13:48:00.229,-7.5625,-11.1875
13:48:00.239,-4.4375,-5.5625
13:48:00.249,-2.5625,-0.9375
13:48:00.259,0.8125,5.3125
13:48:00.269,2.75,8
13:48:00.279,4.125,12
13:48:00.297,5.1875,13.8126
13:48:00.303,5.625,14.9376
13:48:00.319,5.625,16.1251
13:48:00.322,5.8125,15.0626
13:48:00.329,4.9375,15.6876
13:48:00.338,5.1875,15.6876
13:48:00.348,4.8125,14.6876
13:48:00.361,4.375,15.3751
13:48:00.369,4.4375,15.1876
13:48:00.378,4.3125,16.1251
13:48:00.390,5.0625,16.6876
13:48:00.399,5,17.3751
13:48:00.408,6.375,18.0626
13:48:00.420,5.8125,18.6876
13:48:00.428,5,19.7501
13:48:00.439,5.4375,18.5626
13:48:00.451,4.1875,17.0626
13:48:00.459,3.0625,15.7501
13:48:00.469,2.5,15.9376
13:48:00.479,2,15.4376
13:48:00.490,2.8125,15.4376
13:48:00.500,2.625,14.6251
13:48:00.508,2.25,14.1251
13:48:00.519,2.9375,15.1876
13:48:00.528,4,15.1876
13:48:00.547,3.625,14.6876
13:48:00.550,3,16.0626
13:48:00.560,3.5625,15.0001
13:48:00.568,1.875,13.3751
13:48:00.579,0.875,14.5001
13:48:00.589,1.4375,12.9375
13:48:00.599,1.375,12.375
13:48:00.609,2.375,13.3126
13:48:00.637,3.375,14.3751
13:48:00.639,5.125,14.4376
13:48:00.642,5.25,13.6876
13:48:00.665,4.875,14.3126
13:48:00.667,4.625,12.375
13:48:00.670,3.25,10.875
13:48:00.703,2.25,10.375
13:48:00.742,0.625,8.375
13:48:00.745,-1.6875,7.1875
13:48:00.782,-3.625,6
13:48:00.782,-3.75,4.5625
13:48:00.782,-4.3125,3.5
13:48:00.783,-5.125,2.0625
13:48:00.786,-5.8125,1.75
13:48:00.814,-6.875,1.5625
13:48:00.814,-7.375,0.25
13:48:00.815,-10.25,-2.5
13:48:00.819,-12.6875,-4.1875
13:48:00.823,-15.5001,-5.25
13:48:00.826,-16.7501,-7.3125
13:48:00.835,-19.5001,-9.5625
13:48:00.843,-23.9376,-11.875
13:48:00.853,-28.9376,-14.7501
13:48:00.864,-34.6251,-19.0001
13:48:00.873,-38.3751,-22.9376
13:48:00.883,-44.2502,-26.9376
13:48:00.893,-46.5002,-28.3126
13:48:00.905,-50.3752,-29.6876
13:48:00.919,-46.8127,-27.1876
13:48:00.928,-51.4377,-29.4376
13:48:00.934,-56.0627,-31.0626
13:48:00.943,-65.0002,-35.4376
13:48:00.953,-74.6253,-42.5002
13:48:00.964,-81.8753,-46.8752
13:48:00.975,-86.3753,-47.9377
13:48:00.986,-88.0003,-49.7502
13:48:00.994,-84.0003,-46.7502
13:48:01.005,-79.2503,-43.5002
13:48:01.014,-75.9378,-41.8127
13:48:01.025,-73.3128,-39.6252
13:48:01.034,-72.2503,-38.6251
13:48:01.044,-70.6253,-38.0001
13:48:01.053,-70.6878,-37.3126
13:48:01.064,-71.0003,-38.0626
13:48:01.074,-72.6878,-41.1252
13:48:01.085,-75.4378,-43.0627
13:48:01.094,-72.7503,-45.3127
13:48:01.105,-70.1253,-43.4377
13:48:01.113,-67.6253,-44.6252
13:48:01.125,-67.8753,-44.8127
13:48:01.135,-68.0003,-48.0002
13:48:01.145,-68.1878,-49.0002
13:48:01.153,-68.1253,-49.6252
13:48:01.165,-68.5003,-47.9377
13:48:01.174,-70.1253,-49.8752
13:48:01.184,-71.8753,-50.1252
13:48:01.195,-73.7503,-50.8127
13:48:01.204,-74.0628,-51.4377
13:48:01.213,-74.0003,-51.4377
13:48:01.225,-72.9378,-50.8127
13:48:01.233,-73.8128,-52.0627
13:48:01.244,-74.9378,-52.8127
13:48:01.254,-76.6253,-54.2502
13:48:01.265,-77.9378,-55.4377
13:48:01.274,-79.2503,-56.4377
13:48:01.284,-79.0003,-56.8752
13:48:01.300,-78.8753,-55.6252
13:48:01.305,-79.6253,-53.7502
13:48:01.313,-81.8753,-53.5002
13:48:01.324,-83.3753,-49.0627
13:48:01.333,-81.2503,-46.4377
13:48:01.343,-78.7503,-40.2502
13:48:01.355,-76.3128,-35.0626
13:48:01.364,-74.2503,-30.3751
13:48:01.374,-72.6878,-27.2501
13:48:01.410,-72.3753,-22.8751
13:48:01.414,-70.5628,-21.5001
13:48:01.415,-69.6253,-19.5626
13:48:01.417,-69.3128,-19.1251
13:48:01.454,-70.6253,-18.7501
13:48:01.456,-70.3753,-20.0001
13:48:01.459,-70.9378,-18.5001
13:48:01.461,-70.0003,-19.6876
13:48:01.466,-68.2503,-19.8751
13:48:01.483,-65.8128,-17.3751
13:48:01.486,-63.8127,-17.0626
13:48:01.515,-62.8752,-15.3751
13:48:01.518,-61.5627,-15.4376
13:48:01.521,-60.2502,-13.7501
13:48:01.526,-60.0627,-14.3751
13:48:01.534,-60.5627,-12.75
13:48:01.562,-60.3752,-12.5625
13:48:01.565,-62.5627,-12.5
13:48:01.567,-63.8127,-11.8125
13:48:01.575,-63.3127,-12.75
13:48:01.585,-63.1252,-11.8125
13:48:01.601,-62.7502,-12.125
13:48:01.616,-62.6877,-11.5625
13:48:01.618,-62.2502,-12.9375
13:48:01.625,-62.0002,-12.3125
13:48:01.635,-61.1877,-12.6875
13:48:01.643,-61.2502,-13.1251
13:48:01.655,-60.8127,-12.5
13:48:01.665,-60.9377,-14.1876
13:48:01.675,-60.3127,-14.2501
13:48:01.684,-59.6252,-14.8751
13:48:01.694,-59.9377,-14.0626
13:48:01.703,-59.6877,-14.4376
13:48:01.715,-59.0002,-14.5001
13:48:01.724,-58.2502,-14.6876
13:48:01.735,-57.3127,-14.6876
13:48:01.744,-56.3127,-12.9375
13:48:01.755,-55.0627,-14.3126
13:48:01.764,-54.7502,-13.4376
13:48:01.773,-53.4377,-13.8126
13:48:01.784,-52.1252,-14.5001
13:48:01.794,-51.1877,-13.6876
13:48:01.803,-50.5002,-12.0625
13:48:01.815,-48.7502,-13.125
13:48:01.824,-48.3127,-13.5626
13:48:01.834,-47.2502,-13.3751
13:48:01.844,-46.2502,-14.6876
13:48:01.854,-44.7502,-14.1876
13:48:01.864,-43.5627,-15.2501
13:48:01.875,-41.3127,-14.5626
13:48:01.883,-39.8752,-15.6876
13:48:01.916,-38.9376,-15.2501
13:48:01.919,-38.0001,-16.5626
13:48:01.920,-37.3126,-15.6876
13:48:01.926,-36.8751,-16.0001
13:48:01.934,-36.1876,-16.6251
13:48:01.944,-34.3126,-17.2501
13:48:01.953,-32.5626,-16.9376
13:48:01.963,-31.4376,-18.5001
13:48:01.974,-29.8126,-16.1876
13:48:01.984,-28.1876,-16.6251
13:48:01.996,-26.9376,-16.5626
13:48:02.014,-26.5626,-16.8126
13:48:02.016,-27.5001,-17.5001
13:48:02.031,-27.6876,-19.1251
13:48:02.035,-27.5001,-18.6251
13:48:02.047,-25.6876,-19.3126
13:48:02.053,-23.8126,-17.5626
13:48:02.065,-22.3751,-17.6876
13:48:02.073,-21.8751,-17.6251
13:48:02.084,-21.8751,-18.4376
13:48:02.094,-22.5626,-18.1876
13:48:02.104,-23.1251,-18.5001
13:48:02.115,-23.8126,-18.8751
13:48:02.123,-23.1251,-18.6251
13:48:02.134,-22.8126,-18.2501
13:48:02.143,-21.2501,-17.6251
13:48:02.154,-21.1876,-16.8751
13:48:02.163,-19.8751,-16.7501
13:48:02.178,-20.6876,-16.6251
13:48:02.185,-20.0001,-15.5001
13:48:02.217,-19.0626,-14.8126
13:48:02.219,-18.5001,-11.5625
13:48:02.221,-17.1251,-9.1875
13:48:02.223,-16.5001,-5.25
13:48:02.254,-15.4376,-1.5625
13:48:02.257,-14.7501,3.1875
13:48:02.258,-13.1876,5.625
13:48:02.284,-12.75,9.875
13:48:02.286,-11.75,10
13:48:02.289,-12.625,11.75
13:48:02.294,-12.375,11.4375
13:48:02.326,-13.1251,12.9375
13:48:02.331,-12.9375,11.125
13:48:02.333,-13.3751,12.1875
13:48:02.336,-12.4375,10.875
13:48:02.351,-12.6875,11.6875
13:48:02.354,-12.5625,11.4375
13:48:02.364,-11.3125,13.5626
13:48:02.374,-10.0625,13.4376
13:48:02.384,-9.375,15.1251
13:48:02.394,-8.625,15.9376
13:48:02.404,-8.5,16.9376
13:48:02.414,-8.0625,15.1251
13:48:02.428,-8.1875,15.7501
13:48:02.435,-8.1875,14.3126
13:48:02.445,-8.625,13.6876
13:48:02.454,-7.875,14.2501
13:48:02.465,-7.75,13.1876
13:48:02.474,-9.375,12
13:48:02.485,-10.25,12.3125
13:48:02.493,-10.8125,9.75
13:48:02.504,-11.875,8.8125
13:48:02.515,-12.6875,8.125
13:48:02.524,-13.7501,5.8125
13:48:02.534,-15.0001,5.1875
13:48:02.543,-16.6876,3.3125
13:48:02.554,-18.1251,2.5625
13:48:02.564,-18.3751,0.75
13:48:02.573,-20.1876,-0.4375
13:48:02.583,-20.0001,-1.3125
13:48:02.595,-21.0001,-2.3125
13:48:02.604,-20.7501,-1.875
13:48:02.613,-20.6251,-1.25
13:48:02.623,-19.9376,-1.8125
13:48:02.634,-19.2501,-2.5625
13:48:02.645,-19.4376,-1.1875
13:48:02.654,-19.1251,-3.0625
13:48:02.665,-18.7501,-4.125
13:48:02.674,-18.6251,-3.25
13:48:02.685,-18.8751,-5.0625
13:48:02.694,-19.0626,-5.0625
13:48:02.703,-17.0626,-5.5
13:48:02.714,-16.8751,-5
13:48:02.725,-13.6251,-4.6875
13:48:02.733,-13.8126,-4.75
13:48:02.745,-12.5,-5.3125
13:48:02.753,-13.0625,-5.5
13:48:02.765,-12.375,-7.5
13:48:02.774,-12.8125,-8.375
13:48:02.785,-11.75,-8.75
13:48:02.794,-10.875,-7.9375
13:48:02.804,-8.6875,-7.4375
13:48:02.814,-8.5625,-7.5625
13:48:02.824,-7.75,-7
13:48:02.835,-7.375,-8.125
13:48:02.845,-7.875,-7.5625
13:48:02.854,-7.5625,-8.375
13:48:02.863,-7.75,-7.75
13:48:02.873,-7.75,-9.75
13:48:02.898,-7.875,-8.875
13:48:02.903,-6.8125,-10.3125
13:48:02.905,-7.125,-8.625
13:48:02.944,-8.3125,-9.9375
13:48:02.973,-9.5,-9.5
13:48:02.973,-9.4375,-11.1875
13:48:02.973,-10.5625,-10.8125
13:48:02.977,-12.625,-11.75
13:48:02.977,-13.8751,-12.5625
13:48:03.004,-15.4376,-13.6876
13:48:03.006,-16.5001,-13.6251
13:48:03.008,-16.0626,-15.0626
13:48:03.010,-16.9376,-14.3751
13:48:03.015,-16.6876,-15.7501
13:48:03.045,-18.1251,-14.7501
13:48:03.050,-17.8751,-16.8751
13:48:03.050,-18.6876,-15.8751
13:48:03.055,-18.4376,-16.7501
13:48:03.088,-18.4376,-18.0001
13:48:03.091,-18.6876,-17.4376
13:48:03.091,-18.8751,-18.5626
13:48:03.096,-19.0626,-18.8751
13:48:03.104,-18.8126,-18.8126
13:48:03.114,-17.1251,-17.7501
13:48:03.124,-16.9376,-14.9376
13:48:03.134,-14.0626,-13.3751
13:48:03.145,-12.25,-9.625
13:48:03.154,-9,-4.8125
13:48:03.163,-5.5625,-0.875
13:48:03.195,-2.75,3.375
13:48:03.200,-0.3125,7.4375
13:48:03.202,1.6875,10.75
13:48:03.206,2.875,12.5
13:48:03.220,3.6875,14.0001
13:48:03.224,3.125,14.0001
13:48:03.236,2.8125,14.1876
13:48:03.243,1.5,12.875
13:48:03.254,0.5625,12.25
13:48:03.264,-0.3125,10.4375
13:48:03.273,-1.0625,11.5
13:48:03.283,-1.1875,9.375
13:48:03.293,-1.9375,10.5625
13:48:03.303,-2.625,10.375
13:48:03.320,-2.875,9.5
13:48:03.334,-3,10.9375
13:48:03.336,-2.5625,9.9375
13:48:03.343,-2.3125,9.6875
13:48:03.354,-2.6875,10.6875
13:48:03.364,-2.9375,9
13:48:03.373,-6.1875,6.8125
13:48:03.383,-8.375,6.0625
13:48:03.394,-10.125,2
13:48:03.403,-13,-0.5
13:48:03.414,-15.0626,-1.875
13:48:03.423,-14.3751,-2.4375
13:48:03.435,-14.6876,-2
13:48:03.445,-13.1876,-1.4375
13:48:03.456,-13.0625,-1.4375
13:48:03.464,-13.9376,-0.5625
13:48:03.474,-13.5001,-1.125
13:48:03.483,-13.8751,-2.3125
13:48:03.493,-13.7501,-1.8125
13:48:03.504,-12.875,-1.875
13:48:03.514,-12.5625,-2
13:48:03.526,-10.1875,-0.9375
13:48:03.533,-9.5,-0.3125
13:48:03.543,-7.5,-0.25
13:48:03.554,-7.875,0.1875
13:48:03.565,-8.375,0.125
13:48:03.574,-8.5625,-2.3125
13:48:03.585,-9.4375,-1.5625
13:48:03.621,-8,-2.75
13:48:03.623,-6.9375,-1.75
13:48:03.626,-5.625,-2
13:48:03.628,-4.6875,-0.6875
13:48:03.635,-3.6875,-0.6875
13:48:03.672,-3.5,-0.0625
13:48:03.672,-2.5,-1.375
13:48:03.675,-2.625,-0.3125
13:48:03.681,-3.125,-1.4375
13:48:03.683,-4.3125,-2.3125
13:48:03.723,-5.125,-4.25
13:48:03.726,-6.4375,-4.375
13:48:03.728,-6.5625,-6.4375
13:48:03.731,-7,-5.8125
13:48:03.736,-6.375,-6.875
13:48:03.768,-6.5625,-5.3125
13:48:03.769,-5.125,-6.375
13:48:03.772,-5.375,-6
13:48:03.784,-4.875,-5.4375
13:48:03.785,-5.0625,-6.4375
13:48:03.793,-6.3125,-6.5625
13:48:03.804,-7.6875,-8.0625
13:48:03.814,-9.0625,-9.125
13:48:03.824,-10.5,-10.5
13:48:03.833,-10.8125,-11.625
13:48:03.845,-11.0625,-11.9375
13:48:03.854,-9.875,-11.5625
13:48:03.863,-10.9375,-12
13:48:03.874,-12.125,-13
13:48:03.883,-12.375,-14.3126
13:48:03.894,-14.0001,-15.4376
13:48:03.904,-14.0626,-16.3126
13:48:03.913,-15.6251,-17.2501
13:48:03.923,-16.5626,-17.3126
13:48:03.935,-16.5001,-19.5001
13:48:03.943,-16.4376,-17.9376
13:48:03.954,-14.5001,-18.0626
13:48:03.964,-13.5626,-18.0626
13:48:03.979,-13.1251,-18.6876
13:48:03.983,-14.3126,-18.5001
13:48:03.993,-14.5001,-20.1876
13:48:04.004,-15.7501,-19.8126
13:48:04.014,-15.6251,-22.1251
13:48:04.025,-16.6251,-22.1876
13:48:04.033,-17.5626,-24.5626
13:48:04.045,-20.0001,-25.6251
13:48:04.054,-21.8751,-28.3126
13:48:04.065,-23.6876,-28.3751
13:48:04.074,-24.5001,-31.0626
13:48:04.083,-25.9376,-30.4376
13:48:04.095,-25.7501,-31.6251
13:48:04.104,-26.0001,-29.9376
13:48:04.115,-24.4376,-29.3751
13:48:04.125,-24.1251,-25.3751
13:48:04.133,-22.3751,-23.6876
13:48:04.144,-22.0001,-19.6251
13:48:04.155,-21.0626,-18.4376
13:48:04.165,-21.3751,-14.9376
13:48:04.173,-20.4376,-14.7501
13:48:04.198,-20.1876,-12.375
13:48:04.200,-18.3751,-11.1875
13:48:04.216,-17.1251,-8.8125
13:48:04.220,-16.2501,-9.125
13:48:04.225,-16.7501,-8.0625
13:48:04.235,-16.0626,-8.8125
13:48:04.246,-16.6876,-6.875
13:48:04.254,-16.3126,-8.5
13:48:04.264,-16.8126,-8.6875
13:48:04.273,-15.1876,-8
13:48:04.284,-14.0626,-6.5
13:48:04.294,-12.6875,-6.3125
13:48:04.305,-11.1875,-3.75
13:48:04.314,-9.3125,-3.0625
13:48:04.325,-7.9375,-1.8125
13:48:04.333,-7.5625,-2.0625
13:48:04.345,-6.875,-0.75
13:48:04.354,-6.375,-2.125
13:48:04.365,-7,-2.0625
13:48:04.373,-7.25,-2.75
13:48:04.384,-7.625,-3.625
13:48:04.393,-7.125,-3.25
13:48:04.425,-6.625,-2.75
13:48:04.428,-5.125,-3.3125
13:48:04.430,-5.5625,-2.0625
13:48:04.436,-4.125,-2.75
13:48:04.463,-3.9375,-1.375
13:48:04.466,-2.75,-1.3125
13:48:04.470,-1.875,-1.0625
13:48:04.482,-2.6875,-1.1875
13:48:04.487,-3.0625,-1.5
13:48:04.494,-4.4375,-2.375
13:48:04.533,-5,-3.375
13:48:04.535,-5.125,-4.1875
13:48:04.540,-4.6875,-2.75
13:48:04.542,-5.1875,-3.8125
13:48:04.544,-4.5,-4.625
13:48:04.580,-5.8125,-4.0625
13:48:04.581,-6.5,-5.625
13:48:04.584,-7.625,-6.5625
13:48:04.586,-9.5,-6.875
13:48:04.595,-8.9375,-7.75
13:48:04.614,-8.75,-7.875
13:48:04.616,-8.6875,-8.125
13:48:04.631,-8.6875,-7.75
13:48:04.635,-8.625,-8.0625
13:48:04.643,-9.3125,-9.25
13:48:04.654,-9.6875,-9.1875
13:48:04.664,-10.5,-10.875
13:48:04.674,-11.875,-11.875
13:48:04.684,-13.3751,-11.75
13:48:04.693,-13.2501,-13.9376
13:48:04.704,-14.5626,-14.6251
13:48:04.713,-13.8751,-15.5626
13:48:04.730,-15.7501,-15.1876
13:48:04.734,-15.5626,-16.7501
13:48:04.750,-15.3751,-16.4376
13:48:04.758,-15.6251,-17.3126
13:48:04.768,-16.6251,-17.5001
13:48:04.779,-16.1251,-18.4376
13:48:04.788,-15.8126,-18.6251
13:48:04.798,-16.1876,-18.8751
13:48:04.808,-17.5626,-20.5001
13:48:04.818,-18.5626,-22.3126
13:48:04.829,-19.3126,-22.0001
13:48:04.839,-18.8751,-23.7501
13:48:04.848,-18.3751,-22.2501
13:48:04.859,-17.1251,-23.1251
13:48:04.869,-18.0626,-21.4376
13:48:04.879,-17.8126,-23.3751
13:48:04.888,-19.3126,-24.1876
13:48:04.898,-20.1251,-24.6251
13:48:04.909,-23.2501,-26.5001
13:48:04.919,-24.1251,-28.9376
13:48:04.928,-24.6876,-29.9376
13:48:04.938,-24.1876,-30.3126
13:48:04.949,-23.1251,-29.3751
13:48:04.959,-23.1876,-29.5626
13:48:04.969,-22.5626,-30.2501
13:48:04.979,-23.5001,-30.1876
13:48:04.988,-22.8126,-30.7501
13:48:05.000,-24.0626,-31.1876
13:48:05.009,-24.1876,-31.0001
13:48:05.019,-22.8751,-29.6251
13:48:05.029,-19.8751,-27.3126
13:48:05.040,-16.3751,-22.6876
13:48:05.049,-12.25,-18.4376
13:48:05.059,-9.1875,-13.6876
13:48:05.068,-6.375,-9.1875
13:48:05.078,-4.0625,-6.75
13:48:05.088,-3.625,-3.875
13:48:05.105,-2.4375,-3.4375
13:48:05.109,-2.375,-0.9375
13:48:05.119,-2.1875,-1.875
13:48:05.159,-2.0625,-1.375
13:48:05.160,-1.625,-2
13:48:05.162,-1.75,-0.75
13:48:05.165,-1.25,-1.9375
13:48:05.171,0.5,-1.9375
13:48:05.205,2.625,-1
13:48:05.208,3.3125,-1.25
13:48:05.210,3.125,-0.125
13:48:05.215,1.625,-0.5
13:48:05.222,0.8125,0.1875
13:48:05.258,0.125,-0.375
13:48:05.260,0.125,0.625
13:48:05.261,0.375,0.4375
13:48:05.264,0.1875,-0.25
13:48:05.272,-1,-1.5
13:48:05.298,-1.6875,-1
13:48:05.301,-2.75,-3.1875
13:48:05.303,-4.125,-2.375
13:48:05.311,-5.5,-4.5625
13:48:05.318,-5.875,-4.375
13:48:05.328,-5.5,-4.625
13:48:05.338,-5,-2.6875
13:48:05.348,-4.0625,-2.4375
13:48:05.359,-5.0625,-3.375
13:48:05.369,-5.0625,-2.3125
13:48:05.381,-5.25,-2.875
13:48:05.388,-6.5625,-4.5
13:48:05.399,-7.1875,-3.9375
13:48:05.408,-7.6875,-4.125
13:48:05.419,-9.125,-6.25
13:48:05.429,-11.0625,-7.6875
13:48:05.438,-11.3125,-9
13:48:05.448,-11.625,-7.75
13:48:05.458,-9.6875,-8.875
13:48:05.468,-8.125,-7.5
13:48:05.480,-7.75,-7.375
13:48:05.496,-6.375,-7.875
13:48:05.511,-7.6875,-9.125
13:48:05.513,-8.9375,-10.4375
13:48:05.529,-11.8125,-13.1876
13:48:05.531,-14.8751,-16.0626
13:48:05.539,-17.8126,-19.4376
13:48:05.548,-19.1876,-21.0626
13:48:05.559,-19.1251,-21.6251
13:48:05.568,-18.8126,-22.1251
13:48:05.580,-16.4376,-20.6251
13:48:05.589,-14.9376,-20.8126
13:48:05.600,-14.0001,-19.6876
13:48:05.609,-13.9376,-19.2501
13:48:05.620,-14.5001,-19.6876
13:48:05.628,-15.4376,-20.5001
13:48:05.638,-17.5001,-22.0626
13:48:05.648,-19.0001,-23.8126
13:48:05.659,-20.0001,-25.3751
13:48:05.668,-20.0626,-24.1876
13:48:05.678,-18.1876,-24.6876
13:48:05.688,-17.9376,-23.5626
13:48:05.699,-16.6876,-23.5001
13:48:05.709,-16.5626,-22.2501
13:48:05.719,-15.0626,-23.3126
13:48:05.728,-14.4376,-20.9376
13:48:05.755,-14.1251,-22.0001
13:48:05.758,-14.7501,-22.6876
13:48:05.762,-14.4376,-22.3126
13:48:05.770,-14.4376,-22.6251
13:48:05.778,-13.5626,-22.3126
13:48:05.789,-12.9375,-22.7501
13:48:05.803,-11.125,-21.7501
13:48:05.810,-10.5625,-21.9376
13:48:05.839,-9.25,-20.7501
13:48:05.841,-9.4375,-21.8751
13:48:05.844,-10.1875,-22.0001
13:48:05.850,-10.5,-22.3751
13:48:05.878,-12.75,-23.3751
13:48:05.880,-12.4375,-23.7501
13:48:05.883,-11.3125,-23.8751
13:48:05.889,-10.4375,-23.1876
13:48:05.912,-8.3125,-21.9376
13:48:05.913,-6,-21.0626
13:48:05.977,-3.75,-18.8126
13:48:05.979,-3.75,-17.6876
13:48:05.979,-2.4375,-14.0001
13:48:05.995,0.0625,-10.625
13:48:05.996,1.1875,-5.9375
13:48:05.996,2.3125,-2.75
13:48:05.996,3.8125,-0.8125
13:48:06.005,3.3125,1.375
13:48:06.013,3.875,3.5
13:48:06.024,3.9375,3.9375
13:48:06.034,3.9375,4.25
13:48:06.043,4.5,5.5
13:48:06.054,3.9375,5.8125
13:48:06.064,3.6875,5.5
13:48:06.076,2.1875,4.5
13:48:06.084,1.375,4.1875
13:48:06.093,-0.8125,2.8125
13:48:06.103,-2.3125,2.75
13:48:06.114,-2.5625,2
13:48:06.124,-1.9375,1.6875
13:48:06.133,-1.125,2.5
13:48:06.143,-1.0625,2.375
13:48:06.154,1.5625,4.0625
13:48:06.163,1,5.3125
13:48:06.174,0.8125,3.6875
13:48:06.183,0.375,3.1875
13:48:06.194,1.1875,2.75
13:48:06.203,0.875,1.9375
13:48:06.214,1,1.4375
13:48:06.224,2.9375,4.4375
13:48:06.234,4.6875,5.125
13:48:06.243,5.625,4.8125
13:48:06.254,4,4.4375
13:48:06.263,1.875,2.625
13:48:06.274,0.6875,0.6875
13:48:06.283,-1.5625,0.0625
13:48:06.293,-2.75,-0.9375
13:48:06.305,-3.8125,-2.9375
13:48:06.314,-4.25,-2.5
13:48:06.325,-4.0625,-3.5
13:48:06.333,-5.8125,-4.5625
13:48:06.343,-7,-4.6875
13:48:06.355,-6.8125,-6.5
13:48:06.368,-8.125,-8.3125
13:48:06.375,-10.25,-10.375
13:48:06.383,-11.25,-10.9375
13:48:06.394,-11,-10.875
13:48:06.404,-9.9375,-11.375
13:48:06.415,-9.75,-11.3125
13:48:06.423,-9.3125,-10.4375
13:48:06.436,-7.125,-8.75
13:48:06.446,-4.8125,-8.3125
13:48:06.453,-4.3125,-7.0625
13:48:06.463,-1.4375,-5.9375
13:48:06.473,0.4375,-4.6875
13:48:06.483,1.625,-1.9375
13:48:06.495,1.1875,-2.75
13:48:06.504,1.4375,-1.3125
13:48:06.534,2.5,-1.3125
13:48:06.536,2.9375,-0.3125
13:48:06.539,3.25,-1.25
13:48:06.544,3.375,-0.1875
13:48:06.580,4.0625,-0.3125
13:48:06.581,25.9376,5.3125
13:48:06.582,19.6251,10.3125
13:48:06.591,15.5626,6.75
13:48:06.596,10.4375,3.9375
13:48:06.638,7.5,0.75
13:48:06.642,7.1875,1.1875
13:48:06.642,7.75,0.125
13:48:06.645,7.25,-0.0625
13:48:06.648,8.375,0
13:48:06.654,9.125,1.375
13:48:06.686,11.5625,1.5625
13:48:06.695,10.5625,1.125
13:48:06.699,9.375,1.875
13:48:06.699,7.8125,-0.4375
13:48:06.704,33.8751,19.6251
13:48:06.714,36.9376,18.6251
13:48:06.723,41.8752,21.1251
13:48:06.734,46.5002,23.9376
13:48:06.743,48.5002,26.6251
13:48:06.753,48.1877,24.5001
13:48:06.764,50.5627,26.6251
13:48:06.774,56.7502,28.7501
13:48:06.786,65.1253,33.5626
13:48:06.803,74.8128,40.6877
13:48:06.809,85.3128,48.1252
13:48:06.817,96.8754,54.6252
13:48:06.825,108.3129,61.4377
13:48:06.840,117.813,67.9378
13:48:06.843,124.563,73.0628
13:48:06.853,129.188,74.4378
13:48:06.864,128.938,74.0628
13:48:06.875,131.2505,76.2503
13:48:06.883,138.0005,79.0003
13:48:06.894,147.3755,85.8128
13:48:06.904,158.0631,92.3754
13:48:06.914,167.7506,98.9379
13:48:06.923,177.8132,107.2504
13:48:06.933,187.3132,114.8129
13:48:06.944,195.0632,121.688
13:48:06.954,203.6883,128.6255
13:48:06.963,211.6883,135.7505
13:48:06.974,219.3133,142.813
13:48:06.984,227.6259,149.0631
13:48:06.994,233.5634,152.5631
13:48:07.004,237.3759,155.1881
13:48:07.036,237.6884,156.0631
13:48:07.039,237.1884,154.5006
13:48:07.041,235.2509,153.5631
13:48:07.048,233.0634,150.4381
13:48:07.055,229.1884,147.2505
13:48:07.064,225.0009,144.7505
13:48:07.073,222.9384,142.2505
13:48:07.083,221.3134,141.6255
13:48:07.094,219.1258,139.3755
13:48:07.103,216.6883,138.3755
13:48:07.116,213.0008,135.188
13:48:07.126,206.6883,131.313
13:48:07.133,200.0008,126.313
13:48:07.144,194.0632,122.813
13:48:07.154,190.6257,120.063
13:48:07.164,186.0632,118.2505
13:48:07.174,182.0007,115.5004
13:48:07.184,178.1257,111.7504
13:48:07.194,172.3757,108.9379
13:48:07.204,166.8756,105.0629
13:48:07.225,160.2506,99.8129
13:48:07.227,152.6881,94.1879
13:48:07.243,144.2505,86.9378
13:48:07.245,135.8755,80.4378
13:48:07.260,127.8755,72.8128
13:48:07.265,120.5005,67.6878
13:48:07.274,117.4379,65.0628
13:48:07.310,114.8129,63.2502
13:48:07.311,111.8129,61.0002
13:48:07.315,109.4379,57.3127
13:48:07.316,105.4379,55.1252
13:48:07.347,100.5629,50.9377
13:48:07.349,95.4379,45.7502
13:48:07.351,91.4379,42.9377
13:48:07.356,88.5003,38.8126
13:48:07.384,86.3753,37.4376
13:48:07.385,87.0003,37.1251
13:48:07.387,89.1253,38.6251
13:48:07.420,92.4379,39.1877
13:48:07.421,93.3754,37.8126
13:48:07.423,92.6879,35.5626
13:48:07.429,91.2504,32.5001
13:48:07.434,87.8128,28.9376
13:48:07.469,84.8128,25.6876
13:48:07.470,82.7503,22.2501
13:48:07.474,81.9378,20.6876
13:48:07.481,83.1253,19.7501
13:48:07.486,84.4378,20.1876
13:48:07.495,86.8128,21.1876
13:48:07.503,87.0628,20.8751
13:48:07.513,85.8753,21.0001
13:48:07.523,85.4378,20.0626
13:48:07.535,84.1253,19.3126
13:48:07.544,82.3128,16.8751
13:48:07.553,78.5628,16.2501
13:48:07.563,76.6878,13.9376
13:48:07.573,73.3128,11.25
13:48:07.583,72.0003,9.6875
13:48:07.595,70.8128,8.9375
13:48:07.603,69.6253,8.5
13:48:07.615,69.3753,9.125
13:48:07.623,69.7503,8.25
13:48:07.634,71.9378,8.625
13:48:07.644,75.8128,11
13:48:07.654,78.7503,13.4376
13:48:07.663,82.5003,13.6876
13:48:07.675,86.7503,16.7501
13:48:07.683,91.8129,18.5626
13:48:07.694,95.8129,20.1251
13:48:07.704,96.6879,19.3126
13:48:07.714,96.8129,17.8126
13:48:07.723,95.6254,16.3126
13:48:07.733,94.4379,13.1876
13:48:07.743,92.2504,11.3125
13:48:07.753,89.1253,8.8125
13:48:07.763,85.0003,6.4375
13:48:07.773,82.0003,4.5
13:48:07.783,78.4378,1.4375
13:48:07.794,74.0628,-0.5
13:48:07.803,71.1253,-3.25
13:48:07.813,69.9378,-4.0625
13:48:07.824,69.2503,-5.25
13:48:07.833,71.0003,-4
13:48:07.844,73.1253,-3.3125
13:48:07.854,75.2503,-1
13:48:07.868,77.5003,1.625
13:48:07.876,79.8128,5.3125
13:48:07.883,82.8128,8
13:48:07.893,83.3753,11.75
13:48:07.904,81.3753,13.7501
13:48:07.915,78.8128,13.5001
13:48:07.924,76.3753,14.7501
13:48:07.934,71.8753,12.5625
13:48:07.974,68.3128,11.3125
13:48:07.976,64.3752,10
13:48:07.978,61.1877,8.9375
13:48:07.981,58.5002,6.3125
13:48:07.983,55.5627,5.0625
13:48:08.014,52.1252,1.375
13:48:08.017,48.3752,0.5
13:48:08.019,43.7502,-2.6875
13:48:08.024,39.5627,-5.125
13:48:08.054,34.5626,-7.6875
13:48:08.056,28.9376,-10.125
13:48:08.059,26.0626,-12.1875
13:48:08.063,22.0001,-13.5626
13:48:08.099,19.9376,-15.3126
13:48:08.103,16.0001,-16.7501
13:48:08.103,13.0625,-18.5001
13:48:08.106,10,-21.3751
13:48:08.126,8.1875,-22.2501
13:48:08.132,6.75,-24.4376
13:48:08.135,5.5,-24.6251
13:48:08.149,3,-26.0001
13:48:08.157,0.9375,-27.4376
13:48:08.165,-0.6875,-28.8751
13:48:08.174,-2.625,-30.4376
13:48:08.183,-2.4375,-29.7501
13:48:08.193,-2.5625,-29.2501
13:48:08.203,-2.5625,-29.0626
13:48:08.213,-2.125,-29.0626
13:48:08.224,-3.0625,-28.1876
13:48:08.234,-4.625,-29.8126
13:48:08.243,-6.5,-30.1251
13:48:08.253,-9.1875,-31.9376
13:48:08.264,-12.6875,-33.1251
13:48:08.274,-15.6876,-35.6876
13:48:08.287,-18.5001,-37.5626
13:48:08.315,-20.6251,-38.8751
13:48:08.320,-23.5626,-40.5627
13:48:08.320,-25.9376,-41.6877
13:48:08.327,-27.8126,-44.0627
13:48:08.335,-28.3751,-44.2502
13:48:08.345,-29.0626,-44.3752
13:48:08.354,-27.5626,-44.3127
13:48:08.363,-27.8126,-44.3127
13:48:08.373,-27.1251,-44.7502
13:48:08.384,-27.6251,-44.3752
13:48:08.394,-29.0626,-45.5002
13:48:08.404,-30.8126,-45.9377
13:48:08.414,-34.3126,-46.9377
13:48:08.424,-36.4376,-49.8127
13:48:08.433,-37.8126,-51.1252
13:48:08.443,-39.3752,-51.3127
13:48:08.453,-39.3126,-52.3127
13:48:08.463,-38.3751,-50.5002
13:48:08.474,-38.3751,-51.6877
13:48:08.484,-38.0001,-50.6252
13:48:08.493,-38.0001,-50.6252
13:48:08.503,-40.0002,-51.0002
13:48:08.514,-40.5627,-52.0002
13:48:08.530,-41.7502,-52.5627
13:48:08.545,-43.1877,-53.2502
13:48:08.546,-45.1252,-54.0627
13:48:08.561,-46.3127,-54.8752
13:48:08.565,-48.0002,-55.8752
13:48:08.573,-48.8752,-57.0627
13:48:08.583,-49.6877,-57.1252
13:48:08.595,-51.3752,-56.9377
13:48:08.603,-50.8752,-58.1877
13:48:08.616,-51.5002,-57.0627
13:48:08.626,-51.0627,-58.3752
13:48:08.633,-50.0627,-57.8127
13:48:08.643,-50.1252,-57.1252
13:48:08.654,-49.0002,-55.6252
13:48:08.663,-47.1252,-52.8127
13:48:08.673,-46.1877,-50.6252
13:48:08.683,-43.3127,-46.9377
13:48:08.693,-41.0002,-43.3752
13:48:08.703,-38.6876,-39.1876
13:48:08.713,-35.9376,-34.9376
13:48:08.724,-32.9376,-30.7501
13:48:08.733,-31.8751,-28.6251
13:48:08.743,-30.3751,-27.0001
13:48:08.753,-29.8126,-25.5001
13:48:08.780,-30.0001,-25.2501
13:48:08.783,-30.0626,-25.3751
13:48:08.788,-31.7501,-25.9376
13:48:08.822,-32.0626,-26.3126
13:48:08.825,-32.6876,-26.4376
13:48:08.827,-33.5626,-27.9376
13:48:08.830,-33.1876,-27.8126
13:48:08.867,-34.1876,-25.8751
13:48:08.871,-33.5626,-26.9376
13:48:08.872,-33.8126,-27.0626
13:48:08.898,-35.5001,-27.6251
13:48:08.899,-36.5626,-28.9376
13:48:08.901,-35.2501,-28.7501
13:48:08.907,-36.0001,-27.4376
13:48:08.910,-35.9376,-29.1876
13:48:08.945,-36.3126,-29.7501
13:48:08.946,-36.3751,-30.0626
13:48:08.950,-36.3751,-30.0001
13:48:08.951,-35.9376,-30.3126
13:48:08.959,-35.1251,-29.9376
13:48:08.968,-34.1251,-29.7501
13:48:08.978,-32.6251,-27.5001
13:48:08.991,-30.8751,-27.3126
13:48:09.002,-30.6876,-26.7501
13:48:09.008,-28.7501,-25.8751
13:48:09.018,-28.8751,-24.6251
13:48:09.028,-28.6876,-24.5001
13:48:09.039,-28.3126,-24.8751
13:48:09.048,-27.8751,-25.4376
13:48:09.059,-27.8126,-26.1251
13:48:09.068,-28.3751,-26.1251
13:48:09.078,-28.7501,-26.1876
13:48:09.089,-29.0001,-27.1251
13:48:09.098,-30.1251,-27.3126
13:48:09.108,-30.4376,-28.0626
13:48:09.118,-30.8126,-28.8751
13:48:09.129,-30.3126,-29.9376
13:48:09.139,-31.0626,-29.6251
13:48:09.148,-30.2501,-29.8751
13:48:09.158,-29.7501,-29.0001
13:48:09.169,-28.9376,-29.5001
13:48:09.179,-29.5001,-30.1251
13:48:09.190,-29.0626,-30.5001
13:48:09.198,-28.9376,-30.8126
13:48:09.208,-29.1251,-31.5001
13:48:09.219,-28.9376,-32.0001
13:48:09.228,-28.5001,-31.6876
13:48:09.239,-28.9376,-31.5626
13:48:09.248,-28.5001,-31.8751
13:48:09.259,-29.6876,-32.0626
13:48:09.269,-29.0001,-32.4376
13:48:09.279,-29.8751,-32.5626
13:48:09.288,-29.4376,-33.1251
13:48:09.298,-29.5001,-32.9376
13:48:09.308,-27.8126,-32.6251
13:48:09.318,-27.2501,-32.0626
13:48:09.328,-25.5626,-32.1876
13:48:09.339,-25.8126,-31.8126
13:48:09.348,-25.6251,-32.0001
13:48:09.358,-26.0001,-32.4376
13:48:09.374,-26.1251,-32.6876
13:48:09.380,-27.7501,-33.3751
13:48:09.389,-28.1876,-34.2501
13:48:09.398,-29.6876,-34.8751
13:48:09.408,-30.1251,-35.4376
13:48:09.418,-31.3126,-36.0626
13:48:09.428,-32.5001,-36.8126
13:48:09.472,-33.4376,-38.7501
13:48:09.474,-34.6876,-38.5626
13:48:09.532,-35.0626,-39.3127
13:48:09.535,-34.2501,-39.4377
13:48:09.538,-34.0001,-39.2501
13:48:09.538,-34.0001,-40.0002
13:48:09.538,-34.2501,-39.9377
13:48:09.539,-34.8751,-40.5002
13:48:09.543,-36.1876,-41.4377
13:48:09.574,-36.8751,-42.5002
13:48:09.574,-37.5626,-43.0627
13:48:09.575,-38.1876,-43.8752
13:48:09.578,-38.0626,-43.6877
13:48:09.602,-37.6876,-43.6252
13:48:09.604,-37.0626,-43.5627
13:48:09.605,-35.6251,-40.8752
13:48:09.607,-33.0001,-38.6251
13:48:09.613,-30.3751,-35.3126
13:48:09.627,-26.6876,-29.6251
13:48:09.633,-22.6251,-24.6876
13:48:09.644,-19.8751,-19.3751
13:48:09.653,-16.7501,-15.0001
13:48:09.663,-14.7501,-11.4375
13:48:09.673,-11.5625,-5.625
13:48:09.683,-9.1875,-4.5
13:48:09.694,-8.0625,-3.125
13:48:09.703,-7.875,-2.25
13:48:09.713,-7.5625,-2.3125
13:48:09.723,-8.3125,-3.0625
13:48:09.733,-8.0625,-2.5
13:48:09.750,-8.0625,-2.6875
13:48:09.755,-7.25,-3.3125
13:48:09.763,-7.5625,-3.125
13:48:09.773,-7.8125,-3
13:48:09.783,-7.375,-2.6875
13:48:09.794,-6.9375,-2
13:48:09.803,-6.4375,-0.75
13:48:09.813,-6.1875,-1.8125
13:48:09.831,-6.6875,-0.5
13:48:09.834,-6.9375,-2.4375
13:48:09.848,-7.75,-2.4375
13:48:09.864,-7.75,-4
13:48:09.866,-8.4375,-4.125
13:48:09.876,-8.75,-5.375
13:48:09.883,-8.8125,-4.9375
13:48:09.893,-9.1875,-6.125
13:48:09.903,-11.3125,-6.625
13:48:09.913,-11,-7.0625
13:48:09.923,-12.0625,-6.6875
13:48:09.933,-11.9375,-7.8125
13:48:09.943,-12.6875,-8
13:48:09.953,-12.9375,-8.75
13:48:09.963,-13.2501,-8.8125
13:48:09.974,-13.3751,-8.8125
13:48:09.983,-13.6251,-8.5625
13:48:09.993,-14.1876,-8
13:48:10.003,-13.9376,-9.8125
13:48:10.014,-14.3126,-9.6875
13:48:10.023,-15.1251,-10.5625
13:48:10.035,-15.8126,-12.4375
13:48:10.044,-16.5626,-12.1875
13:48:10.053,-17.6251,-14.3126
13:48:10.063,-17.7501,-13.7501
13:48:10.074,-18.3751,-15.8751
13:48:10.084,-18.6251,-16.3751
13:48:10.094,-19.5626,-17.4376
13:48:10.103,-20.0001,-17.3751
13:48:10.113,-21.1251,-17.6251
13:48:10.125,-21.5626,-19.1876
13:48:10.133,-21.7501,-19.9376
13:48:10.143,-22.3751,-19.6876
13:48:10.153,-21.8751,-20.8751
13:48:10.163,-22.6876,-21.0626
13:48:10.173,-23.0001,-21.1251
13:48:10.183,-23.6876,-21.6251
13:48:10.194,-23.9376,-23.0626
13:48:10.223,-24.4376,-22.0001
13:48:10.226,-25.4376,-23.8751
13:48:10.228,-26.2501,-23.5626
13:48:10.236,-26.5626,-24.7501
13:48:10.262,-27.2501,-25.1876
13:48:10.265,-27.7501,-26.3751
13:48:10.267,-27.8126,-25.3126
13:48:10.273,-27.3126,-26.1876
13:48:10.313,-26.1876,-24.9376
13:48:10.313,-25.4376,-25.5626
13:48:10.318,-24.4376,-24.4376
13:48:10.348,-24.4376,-25.3126
13:48:10.350,-23.8751,-24.2501
13:48:10.352,-22.5001,-25.1251
13:48:10.356,-21.0001,-23.3126
13:48:10.360,-20.3126,-24.1876
13:48:10.369,-19.6251,-23.4376
13:48:10.374,-18.9376,-23.5626
13:48:10.384,-17.3751,-21.5001
13:48:10.393,-14.9376,-19.5626
13:48:10.403,-11.9375,-15.8751
13:48:10.416,-8,-11.4375
13:48:10.424,-3.5,-7.125
13:48:10.434,-0.1875,-1.25
13:48:10.443,3.4375,2.5625
13:48:10.455,5.25,7.9375
13:48:10.463,7.5,9.1875
13:48:10.473,9.4375,11.5625
13:48:10.484,10.1875,13.2501
13:48:10.500,11.0625,13.6251
13:48:10.505,10.25,14.9376
13:48:10.514,9.5,14.3751
13:48:10.523,8.9375,13
13:48:10.534,7.5625,11.8125
13:48:10.543,5.5,11.125
13:48:10.553,3.5,9.375
13:48:10.563,1.625,8.8125
13:48:10.573,1.25,7.875
13:48:10.584,0.625,8.25
13:48:10.593,0.25,7.8125
13:48:10.603,-1.5625,8.125
13:48:10.614,-1.8125,7.1875
13:48:10.623,-2.9375,5.6875
13:48:10.634,-4.25,4.25
13:48:10.643,-5.4375,4.8125
13:48:10.653,-5.8125,2.6875
13:48:10.663,-7,1.6875
13:48:10.674,-8.0625,0.75
13:48:10.684,-8.125,1.5
13:48:10.694,-7.9375,-0.25
13:48:10.703,-9,-0.4375
13:48:10.714,-9.125,0.5
13:48:10.723,-8.3125,-0.125
13:48:10.734,-7.625,0.125
13:48:10.743,-8.0625,-0.6875
13:48:10.753,-8.1875,0.8125
13:48:10.763,-8.25,-0.0625
13:48:10.785,-8.375,-1.125
13:48:10.787,-8.8125,-1.4375
13:48:10.803,-8.5,-1.5
13:48:10.818,-9.375,-2.625
13:48:10.821,-10.5625,-1.625
13:48:10.823,-10.375,-3.9375
13:48:10.833,-11.4375,-3
13:48:10.843,-11.3125,-4.9375
13:48:10.875,-11.4375,-6.375
13:48:10.878,-12.3125,-7
13:48:10.880,-12.125,-7.25
13:48:10.885,-13.125,-7.25
13:48:10.911,-13,-8.1875
13:48:10.915,-13.3751,-8.75
13:48:10.917,-14.1251,-8.375
13:48:10.957,-13.5626,-10.4375
13:48:10.957,-14.1876,-9.0625
13:48:10.960,-14.0626,-10.4375
13:48:10.965,-14.1251,-11.5
13:48:10.966,-14.0001,-11.4375
13:48:10.973,-14.4376,-12.8125
13:48:11.003,-15.7501,-13.3126
13:48:11.005,-16.0626,-14.3126
13:48:11.007,-17.3126,-14.6251
13:48:11.014,-17.9376,-15.6251
13:48:11.045,-18.0001,-16.3126
13:48:11.047,-19.1251,-16.8751
13:48:11.049,-20.0626,-17.4376
13:48:11.056,-20.9376,-18.3126
13:48:11.063,-21.8751,-18.7501
13:48:11.076,-21.6251,-19.3751
13:48:11.083,-21.3126,-18.9376
13:48:11.093,-21.3751,-18.4376
13:48:11.103,-20.5001,-15.6251
13:48:11.113,-18.6251,-11.5
13:48:11.124,-15.9376,-7.875
13:48:11.133,-13.2501,-4.3125
13:48:11.150,-11.125,-0.5625
13:48:11.166,-9.0625,2.5625
13:48:11.169,-8,5.375
13:48:11.177,-6.3125,7.0625
13:48:11.184,-5.625,8.1875
13:48:11.193,-5.0625,9.125
13:48:11.203,-5.125,9.625
13:48:11.213,-4.25,9.75
13:48:11.224,-3.6875,10.9375
13:48:11.233,-3.125,11
13:48:11.243,-3,10.375
13:48:11.253,-3.6875,11
13:48:11.263,-3.3125,9.625
13:48:11.273,-3.875,10.625
13:48:11.283,-3.1875,9.6875
13:48:11.293,-3.1875,11.125
13:48:11.304,-2.6875,10.3125
13:48:11.314,-2.3125,9.75
13:48:11.323,-2.5625,9.6875
13:48:11.333,-2.25,10.4375
13:48:11.343,-1.5625,8.8125
13:48:11.354,-2.125,7.8125
13:48:11.363,-1.8125,8.6875
13:48:11.374,-2.125,7.5625
13:48:11.384,-2.6875,7.4375
13:48:11.393,-2.9375,7.8125
13:48:11.403,-2.75,6.9375
13:48:11.414,-3.625,7.625
13:48:11.423,-3.625,6.5625
13:48:11.434,-3.0625,6.1875
13:48:11.445,-2.9375,6.125
13:48:11.455,-2.4375,6.4375
13:48:11.464,-2.6875,5.875
13:48:11.474,-2.875,6.6875
13:48:11.483,-2.75,5.375
13:48:11.493,-3.6875,5
13:48:11.503,-3.625,4.875
13:48:11.514,-4.1875,3.25
13:48:11.523,-4.25,2.875
13:48:11.533,-4.625,2.0625
13:48:11.543,-4.75,1.6875
13:48:11.554,-5,1.75
13:48:11.563,-4.6875,0.875
13:48:11.573,-4.375,1
13:48:11.584,-4.1875,-0.0625
13:48:11.593,-3.5,-0.25
13:48:11.603,-2.8125,0.875
13:48:11.623,-3.0625,-0.875
13:48:11.626,-3.3125,-0.5625
13:48:11.635,-2.75,-1.3125
13:48:11.666,-3.9375,-3.5625
13:48:11.668,-4.875,-2.6875
13:48:11.671,-5,-4.375
13:48:11.673,-5.125,-4.1875
13:48:11.704,-4.4375,-4.6875
13:48:11.706,-4.75,-5.625
13:48:11.708,-4.5625,-5.8125
13:48:11.715,-5.75,-6.4375
13:48:11.744,-6.5,-7.625
13:48:11.747,-6.75,-8.6875
13:48:11.749,-8.3125,-9.25
13:48:11.754,-8.9375,-9.0625
13:48:11.771,-8.6875,-9.9375
13:48:11.775,-8.5,-9.0625
13:48:11.797,-6.375,-6.3125
13:48:11.800,-4.875,-3.8125
13:48:11.808,-2.0625,1
13:48:11.817,0.375,4.6875
13:48:11.823,2.625,9.3125
13:48:11.834,5.3125,12.75
13:48:11.843,5.375,15.0626
13:48:11.853,6.625,16.8126
13:48:11.864,6.4375,17.0001
13:48:11.874,5.8125,18.0626
13:48:11.883,5.5625,17.1251
13:48:11.894,4.375,17.6251
13:48:11.904,4.3125,16.3751
13:48:11.914,4.375,16.6876
13:48:11.924,4.4375,15.2501
13:48:11.933,3.8125,16.3126
13:48:11.943,4.3125,15.3126
13:48:11.955,4.1875,15.3751
13:48:11.963,4.0625,15.9376
13:48:11.973,4,14.7501
13:48:11.983,3.875,16.0001
13:48:11.993,5.3125,15.3126
13:48:12.003,5.625,14.8751
13:48:12.013,5.1875,14.0001
13:48:12.023,5.25,15.1251
13:48:12.034,4.9375,14.0626
13:48:12.043,4.6875,13.0625
13:48:12.055,3.4375,11.3125
13:48:12.063,2.0625,10.9375
13:48:12.073,0.9375,11.5
13:48:12.095,1.3125,10.3125
13:48:12.097,0.625,9.875
13:48:12.106,1,9.5625
13:48:12.115,0.875,9.1875
13:48:12.129,1.75,9.6875
13:48:12.155,1.9375,10.75
13:48:12.158,3.3125,10.6875
13:48:12.160,3.25,10.3125
13:48:12.164,3.3125,10.25
13:48:12.173,3.25,10.5
13:48:12.183,3.5625,9.1875
13:48:12.197,3.4375,8.1875
13:48:12.203,3.1875,7.9375
13:48:12.213,2.625,7.8125
13:48:12.224,3.0625,6.75
13:48:12.233,1.6875,5.625
13:48:12.243,1.6875,5
13:48:12.254,2.0625,5
13:48:12.263,2.3125,5.3125
13:48:12.273,2.375,3.25
13:48:12.284,2.5625,3.25
13:48:12.294,1.75,2.1875
13:48:12.304,1.375,2.25
13:48:12.313,1.4375,2.4375
13:48:12.324,0.75,-0.1875
13:48:12.333,0.875,-0.3125
13:48:12.343,-1.625,-2.1875
13:48:12.353,-1.3125,-1
13:48:12.364,-1.25,-1.8125
13:48:12.374,-1.0625,-3.375
13:48:12.387,-0.875,-3.5
13:48:12.423,-0.8125,-2.375
13:48:12.424,0.8125,-3.25
13:48:12.426,1.125,-4.3125
13:48:12.429,0.625,-3.5
13:48:12.433,1.25,-3.625
13:48:12.466,1.3125,-4.25
13:48:12.470,0.9375,-5.25
13:48:12.483,0.5,-4.75
13:48:12.484,0.875,-5
13:48:12.515,1.5625,-5.625
13:48:12.519,1.125,-4.9375
13:48:12.520,1.125,-5.75
13:48:12.526,1,-6.6875
13:48:12.527,1.625,-6.375
13:48:12.534,1.375,-6.125
13:48:12.561,1.3125,-7.25
13:48:12.563,0.9375,-7.3125
13:48:12.565,1.375,-8.0625
13:48:12.576,0.8125,-8.5625
13:48:12.585,1.5625,-6.25
13:48:12.594,4.125,-3.5
13:48:12.604,5.75,-0.4375
13:48:12.613,8.125,4.8125
13:48:12.624,11.375,9.6875
13:48:12.635,14.1251,13.6876
13:48:12.644,16.6876,17.4376
13:48:12.655,17.3751,20.0001
13:48:12.663,17.2501,21.9376
13:48:12.673,17.9376,23.8751
13:48:12.684,18.6876,23.6876
13:48:12.694,17.8751,23.1251
13:48:12.704,17.8126,24.0626
13:48:12.713,17.9376,22.9376
13:48:12.724,16.6876,22.1876
13:48:12.733,16.2501,23.3126
13:48:12.744,16.0626,22.3126
13:48:12.753,15.6876,21.3126
13:48:12.764,14.9376,21.6876
13:48:12.778,15.1251,21.4376
13:48:12.788,14.5001,20.5626
13:48:12.799,13.6251,19.9376
13:48:12.808,13,19.9376
13:48:12.819,12.75,18.6876
13:48:12.828,12.6875,17.5001
13:48:12.838,12.375,17.6251
13:48:12.849,12.5625,18.1876
13:48:12.858,12.6875,18.3751
13:48:12.869,13.5001,17.5626
13:48:12.878,13,16.8751
13:48:12.889,13.0625,18.0626
13:48:12.898,13.8126,17.8751
13:48:12.909,14.1876,17.2501
13:48:12.918,13.9376,17.0001
13:48:12.928,14.1876,16.9376
13:48:12.940,13.8126,16.6876
13:48:12.948,13.5001,17.1251
13:48:12.959,13,17.1876
13:48:12.969,13.1876,15.3126
13:48:12.978,11.8125,14.3751
13:48:12.989,11.5,13.9376
13:48:12.999,12.5,13.3751
13:48:13.008,12.1875,13
13:48:13.019,12.625,13.0625
13:48:13.029,12.9375,13.6876
13:48:13.038,14.0626,12.5625
13:48:13.049,14.3751,11.4375
13:48:13.058,13.0625,10.4375
13:48:13.068,13.0625,11.0625
13:48:13.079,13.5001,10.1875
13:48:13.088,12.3125,8.375
13:48:13.099,11.6875,7.9375
13:48:13.108,10.4375,7.625
13:48:13.119,10.5625,6.5
13:48:13.128,9.25,5.0625
13:48:13.138,8.875,4.5
13:48:13.149,7.9375,4.6875
13:48:13.162,8.0625,3.5625
13:48:13.168,7.25,2.1875
13:48:13.201,5.8125,1
13:48:13.202,4.8125,1.5
13:48:13.205,5.125,0.1875
13:48:13.208,3.4375,-0.875
13:48:13.245,2.4375,-1.9375
13:48:13.246,1.375,-1.75
13:48:13.250,1.0625,-3.375
13:48:13.255,1,-3.9375
13:48:13.271,0.25,-4.8125
13:48:13.272,-0.5625,-4.9375
13:48:13.300,-0.5625,-5.4375
13:48:13.304,-0.375,-6.75
13:48:13.305,-1.3125,-7.5
13:48:13.311,-1.75,-6.75
13:48:13.320,-2.3125,-7.5625
13:48:13.342,-2.25,-8.625
13:48:13.344,-2.125,-9.6875
13:48:13.351,-1.9375,-9
13:48:13.359,-1.3125,-7.625
13:48:13.368,0.25,-7.125
13:48:13.378,1.75,-3.6875
13:48:13.388,4.875,-0.8125
13:48:13.398,7,3.3125
13:48:13.443,9.875,9.125
13:48:13.445,12.375,12.9375
13:48:13.460,13.1251,15.8126
13:48:13.461,14.5626,18.9376
13:48:13.461,15.1251,20.6251
13:48:13.462,14.9376,22.5626
13:48:13.468,14.8126,21.6251
13:48:13.478,14.3126,22.5626
13:48:13.488,14.2501,21.6251
13:48:13.499,13.2501,20.5626
13:48:13.508,13.1876,20.8751
13:48:13.518,12.125,19.7501
13:48:13.528,11.6875,20.9376
13:48:13.539,12.3125,20.6251
13:48:13.551,11.875,19.9376
13:48:13.559,11.75,21.8126
13:48:13.569,12.3125,20.7501
13:48:13.578,12.3125,20.6876
13:48:13.590,12.25,19.8126
13:48:13.599,12.375,19.4376
13:48:13.609,11.6875,19.3126
13:48:13.620,10.9375,17.9376
13:48:13.629,10.25,17.2501
13:48:13.639,9.75,17.0626
13:48:13.652,10.375,17.2501
13:48:13.658,10.5625,16.6876
13:48:13.668,10.4375,16.3126
13:48:13.678,10.4375,17.4376
13:48:13.691,11.1875,17.5001
13:48:13.698,11.75,16.7501
13:48:13.708,11.0625,16.4376
13:48:13.720,10.625,17.0001
13:48:13.729,10.4375,16.5001
13:48:13.739,10,15.2501
13:48:13.748,9.5,14.5626
13:48:13.768,9.25,13.6251
13:48:13.770,8.75,14.5626
13:48:13.790,8.75,12.8125
13:48:13.792,7.6875,11.125
13:48:13.801,7.25,11.5
13:48:13.809,7.25,11.8125
13:48:13.818,7.625,10.1875
13:48:13.829,6.6875,9.125
13:48:13.851,5.25,7.9375
13:48:13.855,4.375,7.4375
13:48:13.859,4.0625,6.625
13:48:13.893,2.6875,5.125
13:48:13.895,1.6875,3.6875
13:48:13.898,1.3125,3.875
13:48:13.904,2.125,3.625
13:48:13.936,2.9375,2.8125
13:48:13.939,2.125,2.625
13:48:13.942,1.9375,1.1875
13:48:13.967,1.25,0.5
13:48:13.968,0.375,-0.75
13:48:13.970,-0.9375,-0.75
13:48:13.977,-1.375,-1
13:48:14.003,-1.75,-2.6875
13:48:14.007,-2.4375,-3.875
13:48:14.009,-2.4375,-3.9375
13:48:14.016,-2.0625,-2.8125
13:48:14.023,-1.3125,-3.3125
13:48:14.034,-1.5625,-4.625
13:48:14.044,-2.3125,-4.875
13:48:14.053,-2.5625,-4.8125
13:48:14.064,-1.625,-6.0625
13:48:14.074,-2.4375,-7.1875
13:48:14.083,-3.1875,-7.6875
13:48:14.096,-3.0625,-8.1875
13:48:14.103,-2.6875,-8.6875
13:48:14.113,-2.8125,-7.875
13:48:14.124,-2.375,-8.125
13:48:14.134,-3.5625,-8.5
13:48:14.143,-3,-9.75
13:48:14.154,-3.625,-9.625
13:48:14.164,-3.3125,-10.5
13:48:14.173,-3.9375,-10.8125
13:48:14.184,-4,-11.5625
13:48:14.193,-5.25,-12.5
13:48:14.204,-5.625,-12.875
13:48:14.214,-5.3125,-14.8751
13:48:14.224,-5.5625,-12.9375
13:48:14.233,-5,-14.1251
13:48:14.243,-5.625,-14.4376
13:48:14.253,-5.0625,-14.2501
13:48:14.263,-4.75,-16.0001
13:48:14.273,-5.4375,-15.8751
13:48:14.283,-5.3125,-15.8126
13:48:14.293,-5.25,-16.8751
13:48:14.303,-6.625,-16.0001
13:48:14.314,-6.25,-17.8126
13:48:14.324,-6.75,-18.0626
13:48:14.334,-6.4375,-18.0626
13:48:14.343,-6.5625,-19.1876
13:48:14.354,-6.5625,-19.1251
13:48:14.364,-7,-20.0626
13:48:14.373,-7,-19.3751
13:48:14.384,-6,-19.4376
13:48:14.394,-4.125,-16.6251
13:48:14.403,-1.3125,-13.4376
13:48:14.414,1.125,-8.125
13:48:14.423,5,-3.125
13:48:14.434,7.5,2.5625
13:48:14.443,11.0625,7.375
13:48:14.453,12,11.8125
13:48:14.466,13.5001,14.1876
13:48:14.473,13.6251,16.3126
13:48:14.484,13.5626,17.1876
13:48:14.493,13.2501,17.3126
13:48:14.504,12.9375,18.5626
13:48:14.530,13.6251,17.9376
13:48:14.532,13.3751,18.3751
13:48:14.535,13.9376,17.7501
13:48:14.565,13.5001,18.7501
13:48:14.569,13.4376,17.4376
13:48:14.570,12.9375,18.1876
13:48:14.574,13.0625,17.2501
13:48:14.611,11.5625,17.6251
13:48:14.614,11.25,17.3126
13:48:14.616,10.25,16.1876
13:48:14.622,10,15.4376
13:48:14.626,10.0625,16.1876
13:48:14.658,10.3125,15.7501
13:48:14.659,9.8125,14.3126
13:48:14.661,9.3125,13.8126
13:48:14.663,9,14.4376
13:48:14.704,9.9375,14.0626
13:48:14.706,9.6875,13.8751
13:48:14.709,9.375,12.75
13:48:14.730,8.5625,13.8751
13:48:14.732,9.0625,13.1876
13:48:14.746,9.5,12.875
13:48:14.749,9.25,12.625
13:48:14.764,9,13.4376
13:48:14.767,9.5,13.2501
13:48:14.769,9.8125,12.25
13:48:14.774,8.8125,11.1875
13:48:14.784,7.6875,10.1875
13:48:14.793,6.75,10.9375
13:48:14.803,7.125,11
13:48:14.813,7.3125,9.3125
13:48:14.823,7.1875,8.6875
13:48:14.833,6.3125,8
13:48:14.845,5.5625,8.1875
13:48:14.854,5.6875,7.125
13:48:14.863,5.0625,5.3125
13:48:14.873,3.625,3.9375
13:48:14.883,3.1875,3.9375
13:48:14.893,2.9375,3
13:48:14.903,2.0625,1.9375
13:48:14.913,1.6875,0.5625
13:48:14.923,1.3125,-0.25
13:48:14.934,0.8125,0.0625
13:48:14.943,0.375,-0.0625
13:48:14.954,1.25,-1.5
13:48:14.963,0.125,-2.875
13:48:14.973,-0.8125,-3.1875
13:48:14.983,-0.5625,-3.6875
13:48:14.993,-1.3125,-4.4375
13:48:15.003,-2.5625,-6.125
13:48:15.013,-3.5625,-6
13:48:15.024,-3.4375,-7.0625
13:48:15.033,-4.25,-8.0625
13:48:15.044,-5.625,-9
13:48:15.054,-6.5,-9.0625
13:48:15.063,-7.625,-9.25
13:48:15.079,-7.5,-11
13:48:15.093,-8.3125,-12.5
13:48:15.096,-8.5,-11.6875
13:48:15.112,-8.375,-12.9375
13:48:15.114,-8.8125,-13.1876
13:48:15.123,-7.8125,-12.9375
13:48:15.134,-7.25,-13.3751
13:48:15.144,-7.6875,-12.5
13:48:15.153,-7.75,-14.5001
13:48:15.163,-7.8125,-13.3751
13:48:15.174,-7.0625,-14.6251
13:48:15.183,-7.375,-13.6251
13:48:15.195,-7,-15.6876
13:48:15.204,-7.4375,-14.8751
13:48:15.220,-7.5,-16.0001
13:48:15.225,-7.625,-15.5001
13:48:15.234,-6.875,-17.1876
13:48:15.244,-7.625,-16.2501
13:48:15.268,-6.625,-17.0001
13:48:15.272,-6.25,-18.0626
13:48:15.275,-6.1875,-17.6876
13:48:15.307,-5.6875,-18.3126
13:48:15.310,-6.375,-18.6876
13:48:15.311,-6.5,-19.5626
13:48:15.315,-7.5625,-20.3751
13:48:15.326,-8.1875,-20.7501
13:48:15.338,-9.1875,-21.3751
13:48:15.344,-8.75,-21.8751
13:48:15.375,-8.8125,-22.1876
13:48:15.381,-8.4375,-21.0626
13:48:15.381,-7.5,-21.5626
13:48:15.386,-7,-21.9376
13:48:15.422,-6.0625,-21.5626
13:48:15.422,-6.1875,-22.3751
13:48:15.424,-6.625,-22.0001
13:48:15.431,-6.375,-22.9376
13:48:15.436,-7.4375,-23.1251
13:48:15.445,-7.125,-23.0001
13:48:15.454,-6.625,-22.3126
13:48:15.463,-5,-19.5001
13:48:15.474,-2.6875,-15.1876
13:48:15.483,0.4375,-10.3125
13:48:15.494,4.375,-3.9375
13:48:15.503,8.25,0.375
13:48:15.513,10.25,5.125
13:48:15.523,12.6875,9.625
13:48:15.534,12.5625,11.8125
13:48:15.543,12.875,13.5001
13:48:15.554,13.0625,13.5626
13:48:15.563,12.625,15.0001
13:48:15.573,12.3125,13.8126
13:48:15.584,11.5625,12.75
13:48:15.595,11,12.5625
13:48:15.603,10,11.1875
13:48:15.613,8.625,11.0625
13:48:15.623,9.4375,10.875
13:48:15.633,8.0625,10.4375
13:48:15.643,7.0625,10.9375
13:48:15.654,7.625,9.6875
13:48:15.663,6.875,9.875
13:48:15.673,7.125,10.0625
13:48:15.684,7.5625,9.375
13:48:15.693,5.8125,8
13:48:15.704,5.25,8.375
13:48:15.713,4.375,7.1875
13:48:15.723,4.4375,5.6875
13:48:15.734,4,5.5
13:48:15.743,3.75,6.5
13:48:15.753,4.375,6
13:48:15.764,4.1875,5.375
13:48:15.773,3.9375,5.125
13:48:15.784,4.5625,6.5625
13:48:15.793,5.5625,5.9375
13:48:15.803,5.375,5.625
13:48:15.813,4.625,5.375
13:48:15.823,4.625,6.4375
13:48:15.834,4.75,4.8125
13:48:15.843,4.25,3.8125
13:48:15.853,3.5625,3.4375
13:48:15.863,2.75,3.9375
13:48:15.875,2.8125,2.5625
13:48:15.883,2.5625,1.9375
13:48:15.893,1.5,0.625
13:48:15.904,0.8125,1.4375
13:48:15.914,0.75,-0.9375
13:48:15.924,-0.375,-1.75
13:48:15.934,-0.4375,-1.5
13:48:15.944,-0.875,-2.8125
13:48:15.954,-1.3125,-3.5
13:48:15.969,-1.875,-3.25
13:48:15.994,-1.8125,-4.5
13:48:15.996,-2.0625,-5.8125
13:48:15.999,-2.9375,-7
13:48:16.004,-2.9375,-6.75
13:48:16.013,-3.5625,-6.5
13:48:16.031,-3.5,-8.3125
13:48:16.038,-4.3125,-9.0625
13:48:16.067,-5.25,-10.25
13:48:16.070,-6.125,-10.0625
13:48:16.098,-5.4375,-11.25
13:48:16.105,-6.9375,-11.5625
13:48:16.105,-6.75,-11.125
13:48:16.110,-7.125,-12.125
13:48:16.118,-7.6875,-11.375
13:48:16.119,-7.3125,-13.6251
13:48:16.132,-7.6875,-12.5
13:48:16.136,-6.9375,-13.4376
13:48:16.144,-6.125,-13.7501
13:48:16.183,-6,-13.3751
13:48:16.186,-6.25,-14.4376
13:48:16.187,-6.125,-14.6251
13:48:16.190,-6.375,-14.4376
13:48:16.196,-7.0625,-14.5626
13:48:16.204,-7.1875,-14.6251
13:48:16.219,-6.75,-16.0001
13:48:16.224,-7.1875,-15.6876
13:48:16.233,-7.1875,-16.0001
13:48:16.243,-7,-17.4376
13:48:16.253,-7.3125,-16.7501
13:48:16.264,-7.4375,-16.4376
13:48:16.274,-7.25,-17.2501
13:48:16.283,-7.3125,-18.1251
13:48:16.293,-7.8125,-18.7501
13:48:16.303,-7.375,-19.1251
13:48:16.315,-7.5625,-19.9376
13:48:16.323,-7.1875,-19.6876
13:48:16.334,-7.625,-19.8751
13:48:16.345,-7,-19.5001
13:48:16.356,-7.25,-19.0001
13:48:16.365,-5.0625,-18.2501
13:48:16.379,-3.9375,-16.3751
13:48:16.395,-1.1875,-12.75
13:48:16.399,0.375,-8.875
13:48:16.404,3.4375,-4.875
13:48:16.414,5.5,-0.125
13:48:16.426,7.6875,5.3125
13:48:16.434,9.9375,7.75
13:48:16.444,10.75,11.875
13:48:16.453,11.9375,12.5
13:48:16.465,12.4375,14.0626
13:48:16.474,12.1875,14.9376
13:48:16.483,11.75,13.6876
13:48:16.494,11.0625,13.9376
13:48:16.505,10.125,12.6875
13:48:16.514,9.0625,12.25
13:48:16.523,9.25,11.75
13:48:16.534,8.4375,10.75
13:48:16.543,7.375,11.6875
13:48:16.553,7.6875,11.0625
13:48:16.564,7.625,10
13:48:16.573,7.8125,10.375
13:48:16.583,7.75,9.875
13:48:16.593,6.8125,8.6875
13:48:16.603,6,9.625
13:48:16.613,6.1875,8.625
13:48:16.624,6.25,7.4375
13:48:16.633,5.6875,6.75
13:48:16.643,5.4375,7.5625
13:48:16.655,5.5,6.5625
13:48:16.664,5.5625,6.1875
13:48:16.674,4.875,6.4375
13:48:16.683,4.5,6.6875
13:48:16.693,4.75,5.875
13:48:16.703,4.5625,5.1875
13:48:16.717,4.125,5.5
13:48:16.727,4.125,6.5
13:48:16.754,5.0625,5.875
13:48:16.757,4.75,4.9375
13:48:16.759,4.25,4.1875
13:48:16.764,3.6875,4.5
13:48:16.809,3.25,3.8125
13:48:16.810,2.625,2.3125
13:48:16.814,1.1875,1.25
13:48:16.817,-0.125,0.5625
13:48:16.819,-0.5,-0.375
13:48:16.856,-1.0625,-0.875
13:48:16.858,-0.8125,-1.6875
13:48:16.860,-1.1875,-1
13:48:16.862,-0.4375,-1.6875
13:48:16.869,-1.1875,-3.6875
13:48:16.899,-1.8125,-4.5
13:48:16.902,-2.5,-3.8125
13:48:16.905,-3.3125,-5
13:48:16.909,-3.6875,-5.75
13:48:16.920,-3.375,-6.75
13:48:16.928,-4.75,-8.125
13:48:16.938,-6,-9.8125
13:48:16.948,-7.3125,-10.5
13:48:16.959,-8.125,-11.3125
13:48:16.968,-8.4375,-11.1875
13:48:16.980,-8.3125,-11.6875
13:48:16.988,-8,-12.9375
13:48:16.999,-7.875,-11.8125
13:48:17.008,-8.6875,-13.3751
13:48:17.018,-9.125,-13.6251
13:48:17.031,-9.6875,-15.1876
13:48:17.038,-9.625,-14.6876
13:48:17.048,-10.125,-15.6251
13:48:17.061,-10.1875,-15.8126
13:48:17.068,-9.9375,-16.0001
13:48:17.080,-9.9375,-16.3126
13:48:17.092,-8.875,-16.3126
13:48:17.098,-9.25,-15.6251
13:48:17.113,-8.0625,-16.5001
13:48:17.119,-9.3125,-16.0001
13:48:17.129,-8.3125,-17.3126
13:48:17.138,-9.5,-16.5001
13:48:17.148,-10.1875,-17.2501
13:48:17.158,-10.875,-18.4376
13:48:17.168,-10.9375,-19.6876
13:48:17.178,-12,-20.1251
13:48:17.189,-12.5625,-20.0626
13:48:17.199,-13.5001,-21.3751
13:48:17.208,-14.2501,-22.1876
13:48:17.218,-15.8126,-23.5626
13:48:17.231,-17.0001,-23.6876
13:48:17.239,-18.0626,-25.8126
13:48:17.249,-19.8751,-25.8751
13:48:17.275,-21.6251,-28.2501
13:48:17.278,-23.9376,-28.7501
13:48:17.280,-25.1251,-30.3751
13:48:17.288,-26.9376,-31.8751
13:48:17.298,-28.6876,-33.0626
13:48:17.309,-30.6251,-34.2501
13:48:17.320,-32.6251,-34.1251
13:48:17.329,-34.1251,-34.7501
13:48:17.339,-34.6876,-33.5001
13:48:17.354,-36.3126,-32.4376
13:48:17.368,-37.0626,-29.0001
13:48:17.373,-38.2501,-26.1876
13:48:17.380,-40.1877,-22.9376
13:48:17.389,-41.2502,-20.1876
13:48:17.398,-48.6252,-19.8126
13:48:17.408,-55.1877,-20.9376
13:48:17.418,-65.5003,-23.6251
13:48:17.449,-76.3753,-26.6876
13:48:17.451,-88.7503,-32.0001
13:48:17.452,-102.5629,-35.7501
13:48:17.458,-117.5004,-42.6252
13:48:17.497,-120.813,-45.0627
13:48:17.498,-111.6879,-35.8751
13:48:17.501,-106.6254,-32.3751
13:48:17.504,-105.4379,-29.6876
13:48:17.510,-107.2504,-31.1251
13:48:17.544,-108.7504,-31.5626
13:48:17.546,-109.6879,-32.2501
13:48:17.548,-110.5004,-32.5001
13:48:17.553,-108.5004,-32.6876
13:48:17.558,-109.5004,-33.1876
13:48:17.599,-109.8754,-35.3126
13:48:17.600,-111.1879,-37.1876
13:48:17.603,-110.3754,-39.6252
13:48:17.608,-112.1879,-43.2502
13:48:17.610,-115.0629,-47.6877
13:48:17.623,-116.0004,-49.8127
13:48:17.630,-117.1255,-51.0002
13:48:17.638,-116.2504,-52.1877
13:48:17.648,-116.3754,-50.7502
13:48:17.658,-115.7504,-50.7502
13:48:17.675,-114.5629,-50.6252
13:48:17.691,-113.3754,-50.0002
13:48:17.695,-111.0004,-48.8127
13:48:17.698,-108.8754,-47.1877
13:48:17.708,-106.1254,-45.8752
13:48:17.720,-104.9379,-45.8127
13:48:17.729,-104.3129,-45.0627
13:48:17.738,-104.2504,-45.8127
13:48:17.748,-103.6879,-45.3752
13:48:17.759,-103.0629,-46.6252
13:48:17.768,-102.6879,-45.4377
13:48:17.781,-100.8754,-46.5627
13:48:17.789,-99.8754,-45.3127
13:48:17.798,-96.3754,-43.7502
13:48:17.808,-94.4379,-42.3127
13:48:17.819,-91.3754,-39.8127
13:48:17.828,-88.6878,-39.5627
13:48:17.838,-86.3753,-37.6251
13:48:17.848,-83.5003,-35.7501
13:48:17.858,-81.6253,-34.4376
13:48:17.869,-79.5628,-32.3126
13:48:17.878,-77.0628,-31.1876
13:48:17.888,-74.0628,-30.0626
13:48:17.899,-72.0628,-29.0626
13:48:17.909,-70.3753,-26.8126
13:48:17.918,-66.8128,-26.7501
13:48:17.928,-62.1252,-23.3126
13:48:17.938,-57.3127,-22.0626
13:48:17.948,-54.0002,-19.1876
13:48:17.958,-52.3752,-19.6876
13:48:17.968,-52.8127,-21.2501
13:48:17.980,-55.1252,-24.2501
13:48:17.988,-56.7502,-26.8126
13:48:17.999,-56.5627,-28.0001
13:48:18.010,-55.6252,-26.8126
13:48:18.019,-54.6877,-27.5626
13:48:18.029,-53.7502,-25.7501
13:48:18.038,-52.0627,-26.7501
13:48:18.048,-52.1252,-25.6251
13:48:18.058,-50.6877,-25.7501
13:48:18.068,-50.0627,-24.6251
13:48:18.078,-50.0627,-25.2501
13:48:18.090,-49.1877,-26.4376
13:48:18.099,-49.2502,-26.5001
13:48:18.109,-49.1252,-27.2501
13:48:18.121,-49.4377,-28.5001
13:48:18.128,-49.8127,-28.0001
13:48:18.138,-49.0002,-29.9376
13:48:18.148,-50.6877,-29.8126
13:48:18.158,-51.0002,-31.3126
13:48:18.180,-52.1252,-32.0001
13:48:18.184,-52.3127,-32.6251
13:48:18.212,-52.4377,-32.9376
13:48:18.215,-52.6877,-34.1251
13:48:18.217,-53.6252,-33.5626
13:48:18.220,-53.2502,-36.0001
13:48:18.255,-53.1252,-34.7501
13:48:18.256,-52.9377,-35.4376
13:48:18.258,-52.9377,-35.7501
13:48:18.261,-52.8752,-35.3751
13:48:18.292,-52.0002,-36.8751
13:48:18.294,-51.2502,-35.4376
13:48:18.296,-50.0627,-36.0001
13:48:18.303,-48.7502,-34.5626
13:48:18.317,-47.4377,-33.4376
13:48:18.320,-46.3752,-31.1876
13:48:18.346,-42.7502,-28.4376
13:48:18.348,-39.6877,-24.3126
13:48:18.351,-35.7501,-19.0626
13:48:18.358,-31.6876,-14.3126
13:48:18.374,-27.8751,-8.9375
13:48:18.378,-23.3751,-5.3125
13:48:18.388,-20.6876,-0.4375
13:48:18.398,-18.9376,1.4375
13:48:18.408,-18.5626,4.125
13:48:18.419,-17.6876,4.375
13:48:18.428,-17.1876,4.3125
13:48:18.440,-16.2501,6.4375
13:48:18.449,-15.5001,5.8125
13:48:18.458,-15.1251,6.6875
13:48:18.469,-13.8751,7.5
13:48:18.479,-14.0626,7.8125
13:48:18.488,-13.5001,8.25
13:48:18.498,-14.6876,8.0625
13:48:18.508,-14.1876,8.1875
13:48:18.518,-14.6251,8.8125
13:48:18.530,-13.8751,8.4375
13:48:18.555,-14.6876,8.125
13:48:18.557,-14.5001,7.75
13:48:18.559,-14.0001,8.4375
13:48:18.569,-11.75,8.875
13:48:18.578,-10.75,9.6875
13:48:18.588,-9.125,10.9375
13:48:18.599,-8.375,9.75
13:48:18.608,-7.0625,12.25
13:48:18.618,-4.5625,11.9375
13:48:18.630,-3.25,12.1875
13:48:18.648,-2.4375,13.8126
13:48:18.652,-1.9375,13.0625
13:48:18.667,-2.5,12.875
13:48:18.670,-2.6875,14.6251
13:48:18.678,-2.375,13.2501
13:48:18.688,-2.8125,13.3751
13:48:18.698,-3.625,12.4375
13:48:18.708,-4,11.125
13:48:18.719,-4.5,10.8125
13:48:18.729,-5.5625,8.8125
13:48:18.738,-7.4375,7.875
13:48:18.749,-7.9375,6.375
13:48:18.759,-9.5,4.6875
13:48:18.769,-10.9375,5
13:48:18.778,-11.3125,3.125
13:48:18.788,-12.5625,1.25
13:48:18.798,-12.1875,2.0625
13:48:18.810,-12.75,-0.125
13:48:18.819,-14.4376,-1.4375
13:48:18.828,-15.5001,-1.625
13:48:18.838,-16.4376,-3.5
13:48:18.850,-16.6251,-5.5
13:48:18.858,-17.1876,-4.875
13:48:18.869,-18.0626,-7.1875
13:48:18.878,-17.9376,-6.375
13:48:18.888,-17.6876,-8.0625
13:48:18.898,-18.6876,-7.625
13:48:18.910,-17.4376,-7.6875
13:48:18.918,-18.1876,-8.25
13:48:18.928,-17.1251,-7.6875
13:48:18.940,-15.8126,-8.375
13:48:18.948,-16.5001,-8.75
13:48:18.959,-15.8751,-8.125
13:48:18.973,-16.0001,-8.8125
13:48:18.989,-14.7501,-10
13:48:18.994,-13.6251,-9
13:48:18.999,-12.5625,-10.125
13:48:19.031,-12.125,-9.75
13:48:19.034,-11.3125,-10.9375
13:48:19.036,-11.25,-10.25
13:48:19.039,-9.5625,-10.5
13:48:19.077,-9.5,-9.375
13:48:19.079,-8.375,-9.125
13:48:19.084,-7,-8.3125
13:48:19.087,-5.875,-7.0625
13:48:19.089,-5.5,-5.6875
13:48:19.127,-5,-4.5625
13:48:19.128,-4.75,-4.0625
13:48:19.131,-5.125,-2.625
13:48:19.133,-5.125,0.625
13:48:19.139,-3.9375,2.5625
13:48:19.174,-1.625,6.1875
13:48:19.175,0.6875,10.625
13:48:19.181,2.25,14.0001
13:48:19.183,2.8125,16.6251
13:48:19.193,3.6875,17.5626
13:48:19.201,2.6875,19.0001
13:48:19.210,4,19.6251
13:48:19.219,5.5,21.0001
13:48:19.230,7.375,21.9376
13:48:19.239,8.3125,21.6251
13:48:19.249,6.1875,20.0626
13:48:19.258,4.1875,18.6251
13:48:19.268,3.75,18.6251
13:48:19.279,2.8125,18.2501
13:48:19.288,1.875,17.0001
13:48:19.298,1.875,16.6876
13:48:19.308,2.75,17.0001
13:48:19.319,2.3125,17.0001
13:48:19.328,2.8125,18.3126
13:48:19.339,3.375,16.9376
13:48:19.348,2.9375,16.0626
13:48:19.358,2.5,16.0001
13:48:19.368,2.125,14.3126
13:48:19.378,1.25,12.875
13:48:19.388,-0.0625,12.75
13:48:19.399,-0.875,12.4375
13:48:19.408,-1.125,10.8125
13:48:19.418,-1.625,10.6875
13:48:19.428,-2.1875,11.0625
13:48:19.438,-2.3125,10.0625
13:48:19.448,-2.375,9.5
13:48:19.458,-2.6875,8.5625
13:48:19.470,-3,9.375
13:48:19.479,-2.9375,8.8125
13:48:19.488,-3,7.5625
13:48:19.498,-3.0625,7.3125
13:48:19.509,-4.125,8.125
13:48:19.518,-3.75,7.125
13:48:19.528,-3,6.4375
13:48:19.538,-2.8125,7.1875
13:48:19.548,-1.4375,7.5
13:48:19.558,-1.25,7
13:48:19.568,-1.5625,7.75
13:48:19.578,-1.5625,6.0625
13:48:19.588,-1.375,5.125
13:48:19.598,-0.875,4.4375
13:48:19.608,-0.3125,2.8125
13:48:19.618,0.125,2.9375
13:48:19.628,0.4375,0.875
13:48:19.638,0.8125,-0.4375
13:48:19.648,0.1875,-0.5625
13:48:19.661,0.1875,-0.5625
13:48:19.692,1.4375,-1.625
13:48:19.694,1.875,-0.5625
13:48:19.696,3.125,0.0625
13:48:19.698,2.1875,1
13:48:19.731,1.875,0.125
13:48:19.734,1.125,-0.6875
13:48:19.737,0,-0.375
13:48:19.739,-1,-1.5
13:48:19.771,-2.25,-3.0625
13:48:19.774,-3.875,-3.4375
13:48:19.776,-5.6875,-6.375
13:48:19.782,-6.3125,-6.25
13:48:19.791,-6.6875,-6.75
13:48:19.823,-8.375,-7.6875
13:48:19.826,-8.0625,-6.1875
13:48:19.829,-7.25,-8.0625
13:48:19.842,-5.875,-6.25
13:48:19.849,-4.5625,-6.625
13:48:19.849,-3.75,-7.5
13:48:19.859,-3.1875,-7
13:48:19.869,-4.5,-8.5
13:48:19.879,-4.125,-8.5625
13:48:19.888,-2.8125,-5.875
13:48:19.899,-0.75,-3
13:48:19.909,0.75,-1.0625
13:48:19.918,2.75,4.125
13:48:19.928,4.125,7.6875
13:48:19.952,6.9375,12.375
13:48:19.955,10.4375,17.1251
13:48:19.971,12.8125,20.7501
13:48:19.975,15.8126,24.4376
13:48:19.979,17.6251,26.8126
13:48:19.989,18.8126,28.5626
13:48:20.002,19.4376,29.6251
13:48:20.010,19.1876,30.8126
13:48:20.020,18.6251,29.3126
13:48:20.031,16.9376,29.6876
13:48:20.040,16.9376,28.2501
13:48:20.049,14.9376,28.6251
13:48:20.060,14.3126,27.2501
13:48:20.069,12.375,27.7501
13:48:20.078,12,26.2501
13:48:20.088,11.625,25.6876
13:48:20.099,10.625,24.0626
13:48:20.110,8.4375,22.5626
13:48:20.119,6.4375,21.6251
13:48:20.130,5.1875,21.1876
13:48:20.139,4.4375,19.5001
13:48:20.150,3.0625,18.6876
13:48:20.160,2.8125,18.6876
13:48:20.168,3.0625,19.5001
13:48:20.179,4.25,19.0626
13:48:20.188,4.4375,18.8126
13:48:20.199,4.5,19.2501
13:48:20.208,3.6875,18.8126
13:48:20.219,4.3125,17.1251
13:48:20.229,4.9375,15.9376
13:48:20.239,6.5625,16.5001
13:48:20.251,6.6875,15.1876
13:48:20.268,5.3125,11.75
13:48:20.271,4.625,10.125
13:48:20.285,4.9375,11.0625
13:48:20.288,6,10.0625
13:48:20.298,6.1875,10.0625
13:48:20.309,6.875,11.8125
13:48:20.318,9.6875,12.125
13:48:20.327,11.8125,13.7501
13:48:20.338,13.125,14.8751
13:48:20.348,12.4375,17.3126
13:48:20.358,11.8125,16.0626
13:48:20.368,8.9375,14.5001
13:48:20.378,6,14.1876
13:48:20.403,4.375,11.875
13:48:20.406,1,8.625
13:48:20.408,-2.0625,6.75
13:48:20.443,-2.5625,6.5625
13:48:20.446,-2.3125,5.9375
13:48:20.448,-3.875,4.8125
13:48:20.451,-3.9375,4.0625
13:48:20.493,-4.375,4.125
13:48:20.495,-1.25,5.6875
13:48:20.497,1.8125,6.1875
13:48:20.535,3.125,6.375
13:48:20.535,3.875,5.75
13:48:20.536,1.9375,4.6875
13:48:20.539,0.5625,3.625
13:48:20.544,-1,1.875
13:48:20.545,-3.5625,-0.25
13:48:20.548,-4.375,0.3125
13:48:20.566,-3.8125,-0.25
13:48:20.568,-3.625,-1.8125
13:48:20.578,-2.75,-0.5625
13:48:20.588,-2,-0.375
13:48:20.598,-2.75,-1.5
13:48:20.608,-3.4375,-1.5
13:48:20.618,-4.375,-3.8125
13:48:20.628,-5.8125,-3.6875
13:48:20.638,-6.125,-5.5
13:48:20.648,-7.6875,-6.875
13:48:20.658,-8.9375,-8.25
13:48:20.668,-9.4375,-9.5
13:48:20.678,-9.3125,-9.9375
13:48:20.688,-10.25,-10.25
13:48:20.703,-10.75,-11.875
13:48:20.710,-12.125,-14.1876
13:48:20.719,-13,-15.3126
13:48:20.729,-13.8126,-17.3126
13:48:20.739,-14.3126,-16.6876
13:48:20.749,-13.5001,-17.3751
13:48:20.759,-13.1876,-15.6251
13:48:20.769,-12.0625,-15.7501
13:48:20.778,-9.5625,-11.5625
13:48:20.793,-8.4375,-7.9375
13:48:20.803,-5.1875,-2.75
13:48:20.813,-2.3125,1.625
13:48:20.823,-0.5,5.6875
13:48:20.833,2.125,9.0625
13:48:20.844,3.125,11.25
13:48:20.853,4.9375,13.125
13:48:20.863,7.1875,14.5626
13:48:20.873,9,14.9376
13:48:20.883,10.125,14.0626
13:48:20.894,11.625,14.0001
13:48:20.903,12.75,14.2501
13:48:20.915,13.3751,15.3751
13:48:20.925,13.7501,16.1251
13:48:20.935,14.2501,16.9376
13:48:20.943,14.0626,18.0626
13:48:20.954,14.1876,20.4376
13:48:20.963,15.0001,23.8751
13:48:20.973,15.3751,24.1251
13:48:20.983,15.5001,26.0626
13:48:20.993,14.7501,24.9376
13:48:21.004,13.1876,24.6876
13:48:21.013,11.0625,25.0001
13:48:21.023,9,23.5001
13:48:21.033,7.5625,21.1251
13:48:21.043,5.8125,20.2501
13:48:21.053,4.375,19.0626
13:48:21.063,3,17.6876
13:48:21.077,2.6875,17.3751
13:48:21.084,3.25,18.7501
13:48:21.115,4,19.3751
13:48:21.117,6.375,19.7501
13:48:21.120,8.5,20.6251
13:48:21.123,7.5625,19.6251
13:48:21.155,8,20.6876
13:48:21.157,7.1875,20.0001
13:48:21.160,6.75,18.5001
13:48:21.163,6.6875,19.3751
13:48:21.191,5.875,18.6251
13:48:21.194,4.4375,16.2501
13:48:21.196,3.3125,14.6876
13:48:21.228,3.375,14.3126
13:48:21.233,2.8125,14.1876
13:48:21.233,3.5625,13.0625
13:48:21.282,3.0625,12.25
13:48:21.282,2.5625,12.3125
13:48:21.282,2.4375,11.75
13:48:21.298,1.9375,10.5
13:48:21.302,0.875,8.8125
13:48:21.309,-0.6875,7.75
13:48:21.318,-1.875,6.8125
13:48:21.328,-2.0625,5.25
13:48:21.339,-2.8125,3.4375
13:48:21.349,-2.375,4.4375
13:48:21.358,-1.75,3.8125
13:48:21.368,-1.375,2.9375
13:48:21.380,-1.5,2.5625
13:48:21.388,-1,3.0625
13:48:21.398,-2.5625,1.1875
13:48:21.409,-4.375,0.5625
13:48:21.418,-5,0
13:48:21.428,-4.5625,0.3125
13:48:21.438,-3.75,-0.5625
13:48:21.452,-3.125,-2.125
13:48:21.458,-4.125,-2.5
13:48:21.470,-4.1875,-4.5
13:48:21.480,-3.6875,-6.0625
13:48:21.488,-2.625,-5.6875
13:48:21.498,-2.5625,-7.8125
13:48:21.508,-3.75,-8.75
13:48:21.518,-3.5625,-10.0625
13:48:21.528,-4.8125,-11
13:48:21.538,-5.0625,-9.875
13:48:21.548,-4.6875,-10.9375
13:48:21.563,-5,-11
13:48:21.579,-4.375,-9.875
13:48:21.582,-4.1875,-10.1875
13:48:21.590,-5.125,-10.5625
13:48:21.598,-6.5,-10.375
13:48:21.609,-7.375,-12.4375
13:48:21.618,-8.6875,-13.3126
13:48:21.629,-8.875,-13.7501
13:48:21.639,-9.8125,-12.8125
13:48:21.651,-8.875,-13.1251
13:48:21.658,-7.875,-10.3125
13:48:21.668,-5.8125,-9.0625
13:48:21.678,-3.4375,-5.3125
13:48:21.688,-0.5625,-1.125
13:48:21.698,4,3.875
13:48:21.708,8,10.3125
13:48:21.718,13.2501,15.0001
13:48:21.728,16.5626,19.1251
13:48:21.738,18.5001,21.6876
13:48:21.749,17.5001,22.8126
13:48:21.758,15.8751,22.1251
13:48:21.769,15.6251,23.5001
13:48:21.778,15.7501,23.6251
13:48:21.788,16.4376,25.4376
13:48:21.798,16.7501,25.3126
13:48:21.810,16.9376,27.1876
13:48:21.820,17.5001,27.1876
13:48:21.832,17.5001,26.8751
13:48:21.841,16.7501,26.6876
13:48:21.848,16.0626,27.1251
13:48:21.858,14.8751,25.7501
13:48:21.887,13.2501,25.2501
13:48:21.890,11.375,24.6876
13:48:21.892,11.0625,23.3126
13:48:21.898,9.6875,21.5001
13:48:21.922,7.5625,20.3751
13:48:21.926,7,19.1251
13:48:21.933,7.125,17.6251
13:48:21.962,5.1875,15.8751
13:48:21.965,3.4375,14.4376
13:48:21.967,2.8125,14.6251
13:48:21.970,4.0625,14.8751
13:48:22.000,4.8125,15.3126
13:48:22.002,5.5625,15.5626
13:48:22.005,5.1875,17.3751
13:48:22.042,4.8125,15.4376
13:48:22.043,4.25,14.9376
13:48:22.045,3.875,14.8751
13:48:22.050,3.4375,15.0626
13:48:22.052,3.9375,13.6876
13:48:22.060,3.1875,12.5625
13:48:22.068,2.625,12.125
13:48:22.078,2.0625,10.9375
13:48:22.089,2.125,9.8125
13:48:22.098,3.3125,8.8125
13:48:22.108,3.8125,8.25
13:48:22.118,3.5,7.0625
13:48:22.127,3.6875,7.9375
13:48:22.138,4.3125,7.875
13:48:22.148,3.9375,7.1875
13:48:22.158,3.375,6.5625
13:48:22.170,3.1875,7.25
13:48:22.179,2,7.5
13:48:22.190,1.75,6
13:48:22.198,1.125,5.1875
13:48:22.215,-0.125,3.6875
13:48:22.218,-1.375,3.9375
13:48:22.228,-1.4375,3.375
13:48:22.239,-1.5,2.1875
13:48:22.251,-3.6875,0.125
13:48:22.260,-4.6875,0.6875
13:48:22.268,-4.75,-0.5
13:48:22.278,-5.5,-1.8125
13:48:22.288,-5.4375,-2.1875
13:48:22.298,-5.875,-3.4375
13:48:22.308,-6.75,-3.8125
13:48:22.320,-5.8125,-4.125
13:48:22.330,-8.25,-6.375
13:48:22.338,-9.875,-8
13:48:22.348,-9.4375,-6.5625
13:48:22.358,-8.5625,-7.125
13:48:22.368,-7,-7.625
13:48:22.394,-7.0625,-7.6875
13:48:22.397,-5.5,-5.5625
13:48:22.399,-4.8125,-5.1875
13:48:22.408,-5.375,-5.125
13:48:22.418,-4.9375,-5.8125
13:48:22.428,-2.625,-6.125
13:48:22.439,0.375,-3.75
13:48:22.449,4.4375,-0.9375
13:48:22.458,7.25,0.5625
13:48:22.468,6.0625,0.25
13:48:22.478,5.75,-1.3125
13:48:22.488,5,-1.5
13:48:22.498,6.9375,-1.5
13:48:22.508,6.5,-0.4375
13:48:22.518,6.5625,-1.4375
13:48:22.530,5.6875,-1.375
13:48:22.544,4.0625,-1.375
13:48:22.561,4.375,-1.125
13:48:22.565,5.5625,1.1875
13:48:22.577,8.8125,5.5
13:48:22.579,9.875,9.25
13:48:22.594,12.875,14.0626
13:48:22.599,15.0001,17.5001
13:48:22.610,16.8126,21.6251
13:48:22.619,18.9376,24.9376
13:48:22.628,19.9376,26.2501
13:48:22.638,19.6251,28.0001
13:48:22.657,21.1251,30.3751
13:48:22.660,22.8751,30.8751
13:48:22.691,25.0626,33.6251
13:48:22.694,26.0626,35.0001
13:48:22.696,26.8126,36.8751
13:48:22.699,27.9376,38.0001
13:48:22.726,27.3751,37.9376
13:48:22.728,26.8126,39.2501
13:48:22.731,26.4376,40.1252
13:48:22.766,25.6251,40.1252
13:48:22.769,25.1876,39.8127
13:48:22.770,23.5001,39.0001
13:48:22.777,21.6876,38.8751
13:48:22.780,21.0001,38.1251
13:48:22.811,20.0001,36.0626
13:48:22.814,18.3126,34.5001
13:48:22.816,17.9376,35.1876
13:48:22.818,18.0001,34.0626
13:48:22.829,16.6251,33.0626
13:48:22.837,15.4376,33.0626
13:48:22.848,13.8751,31.7501
13:48:22.863,12.5625,30.0626
13:48:22.880,12,29.0001
13:48:22.893,11.375,28.8751
13:48:22.896,10.0625,29.1251
13:48:22.911,38.8126,40.6877
13:48:22.915,27.1251,39.4377
13:48:22.918,30.0001,41.6252
13:48:22.928,32.7501,44.3752
13:48:22.939,33.7501,43.3127
13:48:22.949,35.5001,44.2502
13:48:22.965,38.0001,46.5627
13:48:22.968,43.2502,48.3127
13:48:22.978,50.0627,51.8752
13:48:22.988,56.3752,56.0627
13:48:22.998,65.1878,61.0002
13:48:23.009,69.3128,63.0627
13:48:23.020,69.3128,62.8127
13:48:23.032,72.1253,64.1252
13:48:23.038,76.1253,66.5003
13:48:23.048,79.8753,69.9378
13:48:23.058,84.0628,71.5003
13:48:23.068,88.5628,72.3128
13:48:23.078,92.4379,73.6878
13:48:23.090,96.3129,76.3128
13:48:23.100,99.8754,76.6253
13:48:23.108,101.6254,77.0628
13:48:23.118,101.9379,77.2503
13:48:23.127,103.5629,76.0628
13:48:23.138,103.6254,74.3753
13:48:23.148,103.5629,73.3128
13:48:23.157,103.3129,72.8128
13:48:23.168,103.3129,71.3128
13:48:23.180,103.0004,69.3753
13:48:23.187,99.8129,67.1878
13:48:23.198,98.6879,65.4378
13:48:23.208,98.1254,63.0002
13:48:23.219,98.8754,61.5002
13:48:23.229,99.2504,61.1877
13:48:23.237,100.1879,61.4377
13:48:23.247,100.7504,60.3127
13:48:23.258,101.3754,59.7502
13:48:23.268,101.7504,59.4377
13:48:23.302,99.0629,57.9377
13:48:23.303,97.4379,56.5627
13:48:23.306,95.2504,53.0002
13:48:23.312,93.7504,51.5002
13:48:23.345,93.1254,50.5002
13:48:23.347,93.1879,49.5627
13:48:23.350,91.2504,48.2502
13:48:23.352,90.3129,46.6252
13:48:23.358,88.8128,45.6877
13:48:23.396,87.8128,44.1877
13:48:23.400,86.8128,42.4377
13:48:23.401,85.8128,41.8127
13:48:23.404,84.5628,40.3752
13:48:23.409,83.6253,38.1876
13:48:23.442,81.8128,35.6251
13:48:23.445,81.0628,36.0001
13:48:23.447,80.0628,33.5626
13:48:23.449,78.8128,31.5626
13:48:23.467,77.3128,29.7501
13:48:23.470,77.3128,29.6876
13:48:23.478,77.5003,27.6876
13:48:23.488,75.1253,26.0626
13:48:23.501,73.1253,24.1251
13:48:23.508,70.8753,23.3751
13:48:23.521,68.5628,20.7501
13:48:23.528,66.7503,19.6876
13:48:23.539,66.5628,18.5001
13:48:23.548,63.3127,15.6876
13:48:23.558,61.1877,13.5001
13:48:23.568,59.3127,12.1875
13:48:23.578,58.4377,11.125
13:48:23.589,56.9377,9.5625
13:48:23.598,55.9377,8.0625
13:48:23.608,55.0627,7.8125
13:48:23.617,54.0627,6.25
13:48:23.628,52.3752,5.375
13:48:23.639,50.5627,3.125
13:48:23.650,49.3127,3.0625
13:48:23.676,48.2502,1.5625
13:48:23.678,47.1877,0.1875
13:48:23.681,45.8752,-0.6875
13:48:23.688,46.5002,1.625
13:48:23.698,48.6252,3.6875
13:48:23.708,49.8127,7.25
13:48:23.717,51.2502,11.375
13:48:23.729,52.7502,16.0001
13:48:23.738,53.5002,18.8126
13:48:23.748,53.0627,20.9376
13:48:23.758,51.9377,22.5626
13:48:23.767,50.4377,24.4376
13:48:23.778,50.9377,24.1251
13:48:23.790,49.1877,23.8751
13:48:23.802,48.5002,26.1251
13:48:23.815,49.8127,25.1251
13:48:23.823,50.3127,25.6876
13:48:23.833,51.2502,28.1251
13:48:23.843,51.4377,29.1251
13:48:23.861,51.6877,28.0001
13:48:23.867,49.5002,28.0001
13:48:23.876,48.0002,27.3126
13:48:23.883,47.5002,26.3751
13:48:23.899,45.0627,25.1251
13:48:23.915,42.3752,24.5001
13:48:23.918,40.6252,23.9376
13:48:23.924,39.0626,22.6251
13:48:23.933,38.3751,21.2501
13:48:23.942,36.3126,19.8751
13:48:23.952,34.8126,19.3126
13:48:23.963,34.2501,17.5001
13:48:23.973,33.0626,16.2501
13:48:23.982,32.8751,16.0626
13:48:23.994,33.0626,16.3751
13:48:24.003,33.5626,16.0626
13:48:24.013,33.9376,15.6876
13:48:24.024,33.3126,15.6876
13:48:24.057,32.4376,14.4376
13:48:24.059,31.0001,13.9376
13:48:24.061,30.1876,14.1876
13:48:24.063,29.1876,12.75
13:48:24.106,27.6876,11.1875
13:48:24.110,25.6251,10.0625
13:48:24.110,24.3751,10
13:48:24.114,23.7501,8.25
13:48:24.119,22.2501,6.375
13:48:24.122,21.7501,5.875
13:48:24.151,20.1876,5.9375
13:48:24.154,20.1251,4.75
13:48:24.156,19.1251,3.375
13:48:24.186,17.9376,2.125
13:48:24.189,17.5626,1.125
13:48:24.216,17.2501,1.875
13:48:24.218,18.0001,1.125
13:48:24.234,18.0626,-0.25
13:48:24.235,17.3751,-0.875
13:48:24.249,16.5001,-0.625
13:48:24.252,16.3126,-2.1875
13:48:24.268,15.5626,-2.875
13:48:24.268,14.6251,-4.5
13:48:24.269,13.5001,-5
13:48:24.274,12.875,-4.5
13:48:24.285,13.6251,-6
13:48:24.294,13.0625,-6.5
13:48:24.302,12.4375,-7.875
13:48:24.313,11.9375,-6.375
13:48:24.323,12.125,-7.125
13:48:24.332,12.75,-8.375
13:48:24.343,12.1875,-8.8125
13:48:24.352,10.6875,-10
13:48:24.363,9.4375,-11
13:48:24.374,7.875,-13.0625
13:48:24.382,6.75,-14.4376
13:48:24.393,6,-15.0626
13:48:24.403,4.9375,-16.4376
13:48:24.413,3.5625,-16.5001
13:48:24.424,2.625,-16.7501
13:48:24.432,2.8125,-18.6876
13:48:24.443,1.3125,-20.2501
13:48:24.452,0.1875,-20.4376
13:48:24.463,-1.25,-21.9376
13:48:24.474,-2.875,-22.9376
13:48:24.483,-2.6875,-23.6876
13:48:24.493,-3.25,-24.6251
13:48:24.503,-4.375,-23.7501
13:48:24.513,-4.9375,-25.6251
13:48:24.523,-6,-26.8751
13:48:24.533,-7.1875,-26.6876
13:48:24.544,-7.375,-28.1876
13:48:24.553,-9.1875,-29.4376
13:48:24.563,-10.75,-31.0001
13:48:24.573,-12.375,-31.5626
13:48:24.583,-13.8126,-33.8751
13:48:24.597,-15.0626,-34.7501
13:48:24.602,-15.8751,-33.4376
13:48:24.613,-16.1876,-35.5001
13:48:24.623,-17.6251,-35.6876
13:48:24.634,-17.6251,-36.0001
13:48:24.642,-17.1251,-35.8126
13:48:24.653,-17.3751,-34.7501
13:48:24.662,-16.4376,-34.4376
13:48:24.672,-15.3126,-31.0626
13:48:24.684,-14.6876,-28.6876
13:48:24.694,-13.5001,-24.4376
13:48:24.703,-13.125,-22.0001
13:48:24.713,-12.5,-18.5626
13:48:24.724,-11.625,-16.8126
13:48:24.732,-10.875,-13.6876
13:48:24.743,-10.6875,-13.0625
13:48:24.753,-10.3125,-10.8125
13:48:24.763,-10.0625,-10.8125
13:48:24.775,-10.3125,-9.9375
13:48:24.804,-10.5,-9.6875
13:48:24.807,-10.0625,-9.125
13:48:24.810,-10.375,-8.625
13:48:24.814,-10.875,-8.375
13:48:24.842,-9.875,-8.25
13:48:24.845,-9.9375,-7.875
13:48:24.848,-9.4375,-6.625
13:48:24.883,-9.375,-6.0625
13:48:24.886,-8.375,-5
13:48:24.887,-7.5,-4.5
13:48:24.893,-6.75,-4.125
13:48:24.898,-6,-4.5625
13:48:24.928,-4.8125,-2.6875
13:48:24.930,-5.125,-3.625
13:48:24.933,-5.25,-4
13:48:24.958,-6,-5.1875
13:48:24.964,-6.8125,-4.5625
13:48:24.965,-6.5,-5.8125
13:48:24.970,-6.5,-5.3125
13:48:24.979,-6.125,-5.8125
13:48:24.988,-5.5,-4.375
13:48:24.998,-4.625,-3.625
13:48:25.008,-3.5,-3.6875
13:48:25.017,-4.3125,-3.625
13:48:25.028,-3.625,-4
13:48:25.038,-4.5,-4.3125
13:48:25.047,-5.25,-5.125
13:48:25.061,-6.125,-5.3125
13:48:25.068,-5.75,-5.9375
13:48:25.078,-7.25,-7.625
13:48:25.088,-8.125,-7
13:48:25.099,-8.3125,-7.3125
13:48:25.111,-8.5625,-8.5
13:48:25.118,-8.1875,-8.625
13:48:25.128,-8.375,-8.6875
13:48:25.139,-8.3125,-9.625
13:48:25.150,-8.375,-9.9375
13:48:25.158,-8.875,-10.1875
13:48:25.168,-8.375,-10.1875
13:48:25.183,-8.8125,-10.625
13:48:25.202,-8.1875,-10.9375
13:48:25.208,-9.3125,-11.125
13:48:25.211,-8.9375,-12
13:48:25.225,-9.9375,-12.625
13:48:25.228,-9.75,-13.6876
13:48:25.239,-10.5625,-13.5626
13:48:25.248,-11.125,-15.0001
13:48:25.262,-11.9375,-14.9376
13:48:25.268,-12.125,-16.0001
13:48:25.278,-12.6875,-16.1876
13:48:25.288,-13.5001,-17.3126
13:48:25.300,-13.5626,-17.2501
13:48:25.308,-13.5001,-16.5001
13:48:25.318,-12.875,-17.5626
13:48:25.327,-13,-18.2501
13:48:25.339,-12.4375,-17.1251
13:48:25.354,-13.2501,-19.2501
13:48:25.358,-13.1876,-18.6876
13:48:25.368,-13.8126,-19.8751
13:48:25.379,-14.4376,-20.3126
13:48:25.389,-14.5626,-21.4376
13:48:25.425,-15.1876,-21.1251
13:48:25.428,-15.8126,-22.3751
13:48:25.432,-15.2501,-22.0626
13:48:25.432,-15.8751,-22.8126
13:48:25.443,-15.9376,-22.0001
13:48:25.452,-16.5001,-23.8126
13:48:25.464,-17.5001,-23.8126
13:48:25.472,-17.8126,-25.0001
13:48:25.483,-17.6251,-24.4376
13:48:25.493,-17.7501,-26.0001
13:48:25.503,-16.6876,-25.0001
13:48:25.512,-16.2501,-26.0001
13:48:25.532,-15.1876,-24.9376
13:48:25.534,-15.2501,-25.6251
13:48:25.550,-14.8751,-23.9376
13:48:25.596,-14.1251,-22.5626
13:48:25.627,-12.5,-20.9376
13:48:25.628,-11.0625,-17.6251
13:48:25.631,-9.0625,-13.8751
13:48:25.634,-7,-10.625
13:48:25.662,-4.8125,-5.375
13:48:25.662,-3.125,-3.0625
13:48:25.662,-2.1875,0.3125
13:48:25.665,-1.5625,1
13:48:25.667,-0.4375,3.375
13:48:25.695,-0.6875,3.5625
13:48:25.699,-0.3125,5.375
13:48:25.699,0.0625,4.875
13:48:25.699,-0.75,4.625
13:48:25.704,0,5.3125
13:48:25.737,-0.1875,5.5625
13:48:25.740,-0.5625,6
13:48:25.743,-1,5.375
13:48:25.746,-1.3125,7.25
13:48:25.760,-0.75,5.75
13:48:25.764,-0.8125,7.5625
13:48:25.772,-0.625,8
13:48:25.783,0,8
13:48:25.793,0.25,6.8125
13:48:25.804,-0.875,7.0625
13:48:25.812,-1.0625,5.3125
13:48:25.823,-1.6875,4.4375
13:48:25.832,-1.25,4.0625
13:48:25.844,-1.375,4.5
13:48:25.853,-1.125,4.25
13:48:25.862,-1.3125,6.1875
13:48:25.874,-1.25,4.5
13:48:25.882,-1.25,3.9375
13:48:25.892,-0.8125,4.8125
13:48:25.903,-1.4375,4.4375
13:48:25.914,-2.25,3.4375
13:48:25.923,-2.375,3.0625
13:48:25.932,-3.0625,2.0625
13:48:25.943,-3.75,2.0625
13:48:25.956,-4.25,2.25
13:48:25.962,-4.6875,0.5
13:48:25.972,-5.4375,0.8125
13:48:25.983,-5.8125,0.5625
13:48:25.992,-5.375,-1.25
13:48:26.003,-6.125,-1.6875
13:48:26.012,-5.75,-1.3125
13:48:26.023,-6.5,-2.875
13:48:26.032,-6.8125,-2.625
13:48:26.043,-6.1875,-3.5
13:48:26.052,-7.25,-4.875
13:48:26.065,-7.75,-3.3125
13:48:26.074,-7.1875,-5
13:48:26.083,-7.5,-5.1875
13:48:26.092,-6.5625,-5.875
13:48:26.106,-6.5625,-6.8125
13:48:26.113,-6.4375,-5.375
13:48:26.123,-6.125,-6.25
13:48:26.135,-6.5625,-6.3125
13:48:26.146,-7.3125,-6.875
13:48:26.152,-7.5,-8
13:48:26.163,-8.4375,-8.25
13:48:26.172,-9.25,-9.5625
13:48:26.186,-9.5625,-9.8125
13:48:26.192,-10.5,-11.625
13:48:26.203,-11.6875,-11.75
13:48:26.235,-12.0625,-13.2501
13:48:26.238,-12.9375,-13.1876
13:48:26.240,-12.375,-13.8751
13:48:26.242,-12.875,-14.3126
13:48:26.279,-12.625,-15.3751
13:48:26.282,-12.625,-13.9376
13:48:26.282,-12.5625,-15.1251
13:48:26.290,-12.125,-14.3751
13:48:26.294,-11.625,-16.0001
13:48:26.327,-12,-14.5626
13:48:26.329,-11.9375,-17.0001
13:48:26.332,-12.3125,-15.4376
13:48:26.334,-11.5,-17.3126
13:48:26.365,-12.9375,-16.7501
13:48:26.368,-12.5,-18.0001
13:48:26.370,-13.6876,-17.9376
13:48:26.375,-13.9376,-19.7501
13:48:26.408,-14.1876,-19.0001
13:48:26.410,-14.7501,-19.7501
13:48:26.413,-14.5626,-20.1251
13:48:26.423,-14.8126,-20.7501
13:48:26.424,-15.0626,-21.3751
13:48:26.433,-15.5001,-21.3126
13:48:26.446,-15.3751,-22.6251
13:48:26.454,-15.9376,-22.4376
13:48:26.462,-16.5001,-23.4376
13:48:26.474,-17.3126,-24.2501
13:48:26.492,-17.8751,-24.3126
13:48:26.498,-18.3126,-25.6251
13:48:26.510,-18.0001,-25.2501
13:48:26.512,-18.1251,-26.6876
13:48:26.529,-18.1876,-25.1876
13:48:26.532,-17.0626,-24.5001
13:48:26.547,-15.3751,-23.1876
13:48:26.553,-13.6876,-18.8751
13:48:26.566,-9.8125,-15.6251
13:48:26.572,-7.875,-11.625
13:48:26.583,-4.9375,-5.75
13:48:26.595,-3.0625,-3.125
13:48:26.603,-2,1.5
13:48:26.612,-0.5,3
13:48:26.622,0.0625,5.0625
13:48:26.634,0.5625,7.5
13:48:26.644,0.75,6.9375
13:48:26.652,1.125,7.3125
13:48:26.663,1.1875,7.5625
13:48:26.672,0.6875,7
13:48:26.682,1,7.8125
13:48:26.692,1,8.5
13:48:26.705,1.375,8.5625
13:48:26.713,1.625,8.4375
13:48:26.722,1.5,9.875
13:48:26.735,1.75,9.4375
13:48:26.742,1.375,11.25
13:48:26.752,1.375,9.0625
13:48:26.763,0.1875,10.1875
13:48:26.775,-0.8125,7.5625
13:48:26.782,-2.4375,6.1875
13:48:26.792,-4.0625,6.125
13:48:26.804,-4.5,4.3125
13:48:26.812,-5.3125,2.75
13:48:26.822,-6.25,1.9375
13:48:26.832,-6.5,2.5625
13:48:26.845,-5.6875,1.4375
13:48:26.852,-6.25,1.1875
13:48:26.874,-5.8125,2.75
13:48:26.877,-5.1875,2.5625
13:48:26.883,-4,2.0625
13:48:26.898,-3.5,3.6875
13:48:26.914,-2.3125,3.75
13:48:26.916,-2,3.125
13:48:26.926,-2.3125,3.125
13:48:26.932,-3.25,3.125
13:48:26.942,-3.3125,2
13:48:26.953,-3.875,1.375
13:48:26.963,-3,1
13:48:26.972,-4,0.3125
13:48:26.982,-4.5,1.25
13:48:27.011,-3.8125,-0.4375
13:48:27.013,-4.1875,0.3125
13:48:27.016,-3.9375,-0.9375
13:48:27.057,-5.1875,-0.75
13:48:27.058,-5.5,-2.1875
13:48:27.060,-6.3125,-4.5
13:48:27.062,-6.5625,-3.8125
13:48:27.067,-7.25,-5.1875
13:48:27.077,-8.4375,-6.25
13:48:27.084,-9.5,-5.875
13:48:27.111,-8.8125,-7.3125
13:48:27.113,-9.3125,-7.625
13:48:27.116,-8.625,-7.5
13:48:27.152,-8.5625,-8.8125
13:48:27.155,-7.875,-8.5625
13:48:27.157,-7.8125,-8.625
13:48:27.163,-9.125,-9.0625
13:48:27.165,-9.125,-9.25
13:48:27.176,-8.8125,-10.875
13:48:27.182,-9.0625,-9.75
13:48:27.194,-9.375,-11.0625
13:48:27.202,-9.8125,-11
13:48:27.213,-9.625,-12.375
13:48:27.222,-10.0625,-12.75
13:48:27.235,-9.1875,-12.875
13:48:27.242,-9.6875,-12.5625
13:48:27.253,-8.75,-13.0625
13:48:27.267,-8.625,-11.9375
13:48:27.272,-7.5,-13.1876
13:48:27.283,-7.1875,-11.625
13:48:27.294,-6.625,-13.0625
13:48:27.302,-8,-12.625
13:48:27.312,-8.3125,-14.5001
13:48:27.323,-8.6875,-14.6876
13:48:27.332,-9.375,-15.2501
13:48:27.342,-9.25,-15.3126
13:48:27.352,-8.8125,-16.0001
13:48:27.362,-9,-16.5626
13:48:27.372,-8.8125,-16.5001
13:48:27.382,-8.6875,-17.0001
13:48:27.394,-8.6875,-17.1876
13:48:27.402,-8.9375,-17.8751
13:48:27.412,-9.375,-17.6251
13:48:27.422,-9.9375,-19.0001
13:48:27.432,-9.875,-19.5001
13:48:27.442,-10.1875,-19.8751
13:48:27.454,-9.9375,-20.1876
13:48:27.463,-9.875,-19.6251
13:48:27.474,-9.3125,-19.0001
13:48:27.483,-8.25,-17.1251
13:48:27.514,-6.6875,-14.6251
13:48:27.517,-4.375,-10.375
13:48:27.519,-2.4375,-6.75
13:48:27.523,0.6875,-2.5625
13:48:27.534,2,1.8125
13:48:27.542,4.4375,5.25
13:48:27.552,4.875,7.5
13:48:27.562,5.875,9.3125
13:48:27.573,5.375,10.5
13:48:27.582,5.9375,10.3125
13:48:27.592,4.3125,10
13:48:27.602,4.0625,9.5625
13:48:27.612,3,9.5625
13:48:27.622,2.9375,9.3125
13:48:27.632,2.9375,8.1875
13:48:27.643,1.8125,9.0625
13:48:27.652,2,9.25
13:48:27.662,1.5625,8.875
13:48:27.672,1.375,9.375
13:48:27.682,0.8125,8.3125
13:48:27.715,0.0625,8.1875
13:48:27.716,0,7.75
13:48:27.718,-0.875,6.4375
13:48:27.722,-1.9375,7.3125
13:48:27.751,-0.8125,5.9375
13:48:27.753,-1,5.3125
13:48:27.756,-1,5.5625
13:48:27.763,0.5625,6.1875
13:48:27.793,-0.1875,5.9375
13:48:27.796,-0.375,6.5
13:48:27.798,0.5625,5.6875
13:48:27.877,-0.0625,6.125
13:48:27.877,0.375,6.3125
13:48:27.890,0.75,5.75
13:48:27.892,0.625,6.4375
13:48:27.896,0.0625,6.375
13:48:27.896,-0.25,5.625
13:48:27.904,-0.1875,5.375
13:48:27.912,-1.4375,4.3125
13:48:27.922,-1.5,3.5625
13:48:27.933,-2.9375,2.25
13:48:27.942,-4.25,3.1875
13:48:27.952,-3.4375,1.125
13:48:27.963,-4.625,0.5
13:48:27.972,-4.6875,0.25
13:48:27.982,-5.25,-0.875
13:48:27.992,-5.75,-0.75
13:48:28.002,-5.8125,-1.875
13:48:28.019,-6.75,-3.25
13:48:28.022,-7.0625,-3.75
13:48:28.034,-7.25,-1.9375
13:48:28.042,-7.0625,-3.5
13:48:28.054,-7.625,-5.125
13:48:28.064,-9.75,-7.25
13:48:28.072,-10.125,-8.3125
13:48:28.083,-10.5625,-8.9375
13:48:28.097,-10.25,-8.5
13:48:28.102,-10.625,-9.6875
13:48:28.113,-11.5,-9.875
13:48:28.122,-10.6875,-10.1875
13:48:28.132,-11.9375,-11.75
13:48:28.142,-12.9375,-11.125
13:48:28.156,-13.4376,-13.125
13:48:28.162,-14.5001,-13
13:48:28.174,-15.3751,-14.4376
13:48:28.182,-14.8126,-15.4376
13:48:28.198,-14.9376,-14.9376
13:48:28.215,-14.6876,-15.7501
13:48:28.217,-14.0626,-14.6876
13:48:28.232,-14.6251,-15.8751
13:48:28.234,-14.8751,-16.1251
13:48:28.249,-15.2501,-17.0001
13:48:28.253,-15.4376,-16.6251
13:48:28.262,-16.0001,-16.4376
13:48:28.272,-14.8126,-17.1251
13:48:28.282,-14.9376,-15.5626
13:48:28.294,-12.9375,-13.4376
13:48:28.302,-10.9375,-10.4375
13:48:28.312,-7.5,-5.125
13:48:28.323,-5.3125,-1.625
13:48:28.332,-2.875,2.5
13:48:28.342,-1.8125,5.125
13:48:28.353,-1.25,8.375
13:48:28.362,-0.3125,9.8125
13:48:28.372,-0.375,9.75
13:48:28.383,-0.5,10
13:48:28.397,-0.0625,11.375
13:48:28.403,-0.25,10.75
13:48:28.413,-0.3125,11.125
13:48:28.443,0.125,11.1875
13:48:28.446,1,12.0625
13:48:28.448,1.3125,12.1875
13:48:28.453,1.9375,13.1876
13:48:28.481,2.6875,13.7501
13:48:28.483,2.875,14.1876
13:48:28.486,3.1875,13.5626
13:48:28.492,2.5,13.4376
13:48:28.530,1.75,14.6876
13:48:28.534,2.875,13
13:48:28.535,2.625,14.2501
13:48:28.561,2.9375,13.3751
13:48:28.562,2.8125,11.6875
13:48:28.565,2.375,11.5625
13:48:28.569,3.5,11.875
13:48:28.573,3.0625,10.9375
13:48:28.602,2.75,10.8125
13:48:28.605,2.8125,11.75
13:48:28.608,3.0625,11.625
13:48:28.614,2.625,10.875
13:48:28.622,1.9375,10
13:48:28.632,1.375,10.375
13:48:28.643,0.6875,10.75
13:48:28.652,1.5,9.4375
13:48:28.662,0.9375,9.125
13:48:28.672,1.5625,9.625
13:48:28.682,1.0625,8.5625
13:48:28.692,0.5,8.125
13:48:28.703,0,7.4375
13:48:28.712,-1.3125,6
13:48:28.722,-1.375,5.375
13:48:28.733,-2.75,5.375
13:48:28.742,-2.9375,3.625
13:48:28.752,-3.5,3.4375
13:48:28.762,-4.125,2.375
13:48:28.795,-4.125,1.6875
13:48:28.797,-4.5,1.0625
13:48:28.800,-5.375,-0.25
13:48:28.803,-6.0625,0.25
13:48:28.813,-5.625,-1.25
13:48:28.822,-6.9375,-2.1875
13:48:28.833,-7.125,-1.875
13:48:28.842,-6.9375,-3.5
13:48:28.852,-8.125,-4.25
13:48:28.863,-8.4375,-3.0625
13:48:28.872,-7.25,-5.0625
13:48:28.888,-7.625,-4.6875
13:48:28.897,-7.5,-4.4375
13:48:28.909,-7.75,-5.6875
13:48:28.917,-8.375,-5.5625
13:48:28.927,-8.9375,-5.625
13:48:28.939,-8.4375,-7.4375
13:48:28.947,-9.25,-8.5625
13:48:28.957,-9.75,-9
13:48:28.969,-10.75,-9.6875
13:48:28.977,-11.8125,-9.375
13:48:28.987,-11.3125,-10.5625
13:48:29.000,-11.8125,-10.625
13:48:29.007,-11,-10.5625
13:48:29.017,-10.1875,-10.5
13:48:29.027,-9.625,-10
13:48:29.037,-9,-10.8125
13:48:29.048,-9.1875,-11.125
13:48:29.058,-8.625,-11.1875
13:48:29.067,-8.8125,-11.375
13:48:29.079,-8.3125,-11.3125
13:48:29.087,-8.625,-12.625
13:48:29.097,-8.5625,-11.75
13:48:29.108,-8.8125,-13.5001
13:48:29.117,-8.75,-13.2501
13:48:29.127,-9.3125,-14.6876
13:48:29.137,-10,-13.8751
13:48:29.147,-9.5625,-15.0626
13:48:29.163,-9.6875,-14.1251
13:48:29.179,-9.25,-14.3126
13:48:29.182,-7.75,-12.3125
13:48:29.261,-5.5,-9.625
13:48:29.261,-4.125,-6.4375
13:48:29.261,-1.5625,-1.8125
13:48:29.261,0.5625,2
13:48:29.261,2.1875,7.3125
13:48:29.265,4.8125,9.8125
13:48:29.294,5.1875,12.875
13:48:29.297,6.6875,14.1876
13:48:29.298,6.4375,16.8751
13:48:29.302,6.5625,16.1876
13:48:29.333,5.9375,16.4376
13:48:29.337,5.8125,15.6876
13:48:29.337,5.375,15.5001
13:48:29.343,5.1875,16.8126
13:48:29.361,4.8125,15.3126
13:48:29.363,3.3125,15.0626
13:48:29.372,2.75,16.3751
13:48:29.383,2.0625,15.1876
13:48:29.392,1.25,14.5001
13:48:29.403,0.8125,13.7501
13:48:29.413,0,13.6251
13:48:29.422,0.125,14.5001
13:48:29.433,0.875,13.8126
13:48:29.442,1.1875,14.5626
13:48:29.452,1.5,15.0001
13:48:29.462,2.125,14.0001
13:48:29.472,2.0625,13.5626
13:48:29.482,2.0625,13.5001
13:48:29.493,2.4375,13.8126
13:48:29.502,2.5,14.2501
13:48:29.524,3.6875,14.7501
13:48:29.539,4.125,14.5001
13:48:29.543,3.5625,14.8126
13:48:29.558,4.5,15.3751
13:48:29.559,4.375,14.6876
13:48:29.574,4.0625,13.5626
13:48:29.576,3.8125,13.5001
13:48:29.582,4.25,13.5001
13:48:29.592,4.0625,12.9375
13:48:29.603,3.625,12.5625
13:48:29.612,3.625,12.9375
13:48:29.622,3.5625,11.375
13:48:29.633,2.9375,10.125
13:48:29.642,2.5,10
13:48:29.652,2.375,9.4375
13:48:29.663,1.8125,8.1875
13:48:29.672,0.5625,6.875
13:48:29.682,0,7.0625
13:48:29.694,-0.3125,7.0625
13:48:29.702,-0.4375,6.3125
13:48:29.712,-1.5625,5.25
13:48:29.724,-1.4375,3.8125
13:48:29.732,-0.8125,3.0625
13:48:29.743,-1.875,2.625
13:48:29.753,-1.6875,4
13:48:29.762,-0.25,2.5625
13:48:29.772,-0.25,2.0625
13:48:29.782,0.4375,3
13:48:29.793,0.4375,1.6875
13:48:29.802,0.0625,1.9375
13:48:29.812,-0.625,2.1875
13:48:29.822,-0.0625,0.5625
13:48:29.832,-0.8125,-1.125
13:48:29.842,-1.4375,-0.125
13:48:29.852,-0.3125,-0.625
13:48:29.862,-0.8125,-0.75
13:48:29.872,-1.1875,-0.25
13:48:29.883,-0.375,-2.6875
13:48:29.894,-1.875,-2.4375
13:48:29.904,-1.5625,-3.4375
13:48:29.912,-2.6875,-4.6875
13:48:29.922,-2.6875,-5.6875
13:48:29.934,-3.1875,-6.1875
13:48:29.956,-3.9375,-7.125
13:48:29.958,-4.875,-7.5
13:48:29.983,-5,-6.75
13:48:29.986,-4.9375,-8.4375
13:48:29.988,-4.8125,-8.5625
13:48:29.994,-4.5625,-8.375
13:48:30.023,-5.125,-9.375
13:48:30.025,-5.5,-9.5625
13:48:30.029,-4.875,-10.4375
13:48:30.033,-5.375,-10.1875
13:48:30.062,-5.375,-10.375
13:48:30.065,-6,-11.9375
13:48:30.067,-5.5625,-12.125
13:48:30.085,-5.9375,-13
13:48:30.090,-6.5,-13.4376
13:48:30.116,-6.25,-14.0001
13:48:30.118,-7,-14.0626
13:48:30.121,-6.125,-14.5001
13:48:30.123,-6.75,-14.5001
13:48:30.132,-6.75,-15.4376
13:48:30.143,-7,-14.8751
13:48:30.152,-5.5,-13.7501
13:48:30.162,-4.625,-12.625
13:48:30.175,-2.75,-9.1875
13:48:30.183,-0.5625,-5.25
13:48:30.192,2.0625,-2.4375
13:48:30.202,4.6875,3.25
13:48:30.212,6.75,6.6875
13:48:30.225,8.4375,10.5
13:48:30.232,10.5,13.4376
13:48:30.242,11.25,15.7501
13:48:30.252,11.9375,16.3751
13:48:30.262,12.0625,16.3126
13:48:30.273,11.75,17.5626
13:48:30.282,12.125,17.6876
13:48:30.292,11.875,16.8126
13:48:30.302,11.625,16.9376
13:48:30.312,11.4375,16.3751
13:48:30.322,11.4375,17.5626
13:48:30.332,11.625,16.4376
13:48:30.342,12.5,18.4376
13:48:30.352,13,18.2501
13:48:30.362,12.25,17.7501
13:48:30.372,12.3125,17.9376
13:48:30.382,12.375,18.3126
13:48:30.392,12.375,17.1251
13:48:30.402,11.3125,16.1251
13:48:30.416,10.75,15.5626
13:48:30.422,10.8125,15.5001
13:48:30.432,10.4375,14.8126
13:48:30.442,10.3125,14.5626
13:48:30.452,10.25,16.0626
13:48:30.463,10.25,14.0626
13:48:30.472,9.6875,13.8751
13:48:30.494,9,13.9376
13:48:30.496,9.3125,13.8126
13:48:30.504,8.875,13.3751
13:48:30.512,7.875,11.75
13:48:30.527,7.625,12.125
13:48:30.536,7.25,12.375
13:48:30.542,7.5625,11.375
13:48:30.552,7.25,10.5625
13:48:30.562,7.875,11.5
13:48:30.572,8.1875,10.875
13:48:30.583,7.375,9.9375
13:48:30.592,6.125,9.1875
13:48:30.602,5.625,9.4375
13:48:30.621,4.375,7.75
13:48:30.623,3.6875,6.4375
13:48:30.655,3,7.375
13:48:30.657,3,5.6875
13:48:30.659,3,4.5
13:48:30.664,1.5625,3.9375
13:48:30.692,0.4375,3
13:48:30.698,-0.0625,3.1875
13:48:30.699,-0.1875,1.75
13:48:30.704,-0.75,0.625
13:48:30.739,-1.375,-0.625
13:48:30.741,-0.625,0.1875
13:48:30.743,-0.5,-0.4375
13:48:30.772,-0.4375,-0.6875
13:48:30.774,-0.75,-1.4375
13:48:30.775,-0.3125,-0.75
13:48:30.782,-0.375,-1.75
13:48:30.783,-0.625,-2.3125
13:48:30.792,-1.25,-2.5625
13:48:30.805,-1.4375,-2.25
13:48:30.812,-2.1875,-3
13:48:30.822,-2.0625,-3.6875
13:48:30.840,-1.625,-4.1875
13:48:30.842,-1.625,-5.0625
13:48:30.857,-2.3125,-6.1875
13:48:30.872,-2.1875,-5.4375
13:48:30.873,-2.3125,-6.1875
13:48:30.883,-3.3125,-6.5
13:48:30.892,-2.6875,-6.25
13:48:30.902,-2.0625,-7.1875
13:48:30.915,-3.1875,-6.375
13:48:30.922,-2.3125,-7.75
13:48:30.932,-3,-8.875
13:48:30.942,-2.6875,-8.5
13:48:30.952,-3.0625,-9.4375
13:48:30.964,-4,-9.4375
13:48:30.972,-3.0625,-9.625
13:48:30.982,-3.3125,-10.5
13:48:30.992,-3.875,-10.4375
13:48:31.002,-3.9375,-11.8125
13:48:31.012,-4.3125,-12.0625
13:48:31.022,-4,-11.75
13:48:31.032,-3.875,-13.0625
13:48:31.043,-4.375,-12.9375
13:48:31.052,-3.9375,-13.3751
13:48:31.063,-4.4375,-13.6251
13:48:31.074,-3.75,-13.2501
13:48:31.082,-3.375,-12.75
13:48:31.092,-2.4375,-9.375
13:48:31.105,0.625,-8.3125
13:48:31.112,2.9375,-2.5625
13:48:31.123,5.3125,0.75
13:48:31.132,7.5625,4
13:48:31.142,9.375,8.5
13:48:31.155,10.5,10.9375
13:48:31.162,11.5,12.875
13:48:31.172,11.375,15.0001
13:48:31.186,11.8125,14.7501
13:48:31.195,11.4375,14.5001
13:48:31.203,11.9375,15.9376
13:48:31.212,11.8125,14.4376
13:48:31.222,10.75,14.4376
13:48:31.234,10.9375,15.0001
13:48:31.242,10.5,14.1876
13:48:31.252,9.5,14.3126
13:48:31.262,9.5625,14.7501
13:48:31.272,9.4375,14.1876
13:48:31.282,8.6875,13.8751
13:48:31.292,8.0625,15.0001
13:48:31.302,8.875,14.0001
13:48:31.314,8.5,13.5626
13:48:31.322,7.625,13.0625
13:48:31.355,7.5625,13
13:48:31.358,7.3125,12.3125
13:48:31.360,6.6875,10.5625
13:48:31.365,5.625,10.5
13:48:31.392,4.75,9.625
13:48:31.397,4.875,9.1875
13:48:31.398,4.625,8.875
13:48:31.424,4.25,8.6875
13:48:31.430,3.875,8.0625
13:48:31.431,4.25,7.6875
13:48:31.435,4.125,8.9375
13:48:31.442,4.9375,9.4375
13:48:31.468,5.375,8.9375
13:48:31.471,5.125,8.3125
13:48:31.473,4.875,7.9375
13:48:31.499,5,8.625
13:48:31.504,5.5625,7.3125
13:48:31.506,5.8125,7.25
13:48:31.512,5.5,7
13:48:31.540,5.875,7.1875
13:48:31.542,6.25,6.4375
13:48:31.544,6.0625,5.875
13:48:31.556,6.0625,5.6875
13:48:31.565,6.0625,5.4375
13:48:31.572,6.375,4.75
13:48:31.582,6.625,4.375
13:48:31.592,6.25,3.9375
13:48:31.602,5.875,4.3125
13:48:31.613,5.6875,3.125
13:48:31.622,5.25,1.5
13:48:31.632,4,0.5625
13:48:31.642,3.0625,1.9375
13:48:31.652,3.1875,0.625
13:48:31.664,2.625,-0.875
13:48:31.672,1.6875,-2.0625
13:48:31.682,2.0625,-1.6875
13:48:31.692,2.25,-2.4375
13:48:31.702,1.1875,-3.5
13:48:31.713,0.8125,-2.3125
13:48:31.722,1.9375,-2.9375
13:48:31.733,1.5,-4
13:48:31.742,0.875,-4.8125
13:48:31.752,0.625,-5.8125
13:48:31.765,0.125,-5.5625
13:48:31.772,0.4375,-6.125
13:48:31.783,-1.0625,-7.375
13:48:31.792,-1.9375,-6.9375
13:48:31.811,-1.5625,-7.6875
13:48:31.817,-1.9375,-8.4375
13:48:31.826,-1.5625,-8.0625
13:48:31.834,-0.5625,-8.125
13:48:31.849,-1.375,-8.6875
13:48:31.852,-1.625,-8.75
13:48:31.867,-1.4375,-10.25
13:48:31.873,-1.75,-9.5
13:48:31.882,-1.9375,-11.25
13:48:31.893,-2,-11.875
13:48:31.902,-1.5,-11.125
13:48:31.914,-1.875,-12.3125
13:48:31.922,-3.375,-12.4375
13:48:31.936,-2.5,-12.9375
13:48:31.942,-2.5625,-12.9375
13:48:31.952,-2.8125,-13.8126
13:48:31.962,-4.6875,-14.6251
13:48:31.972,-4.875,-15.4376
13:48:31.985,-4.9375,-16.5626
13:48:31.992,-6.1875,-15.5626
13:48:32.003,-6.875,-18.1251
13:48:32.012,-7.375,-18.5626
13:48:32.022,-6.6875,-18.1876
13:48:32.032,-6.0625,-18.1251
13:48:32.042,-6.6875,-18.5001
13:48:32.072,-6.25,-19.0626
13:48:32.074,-7.125,-19.6876
13:48:32.078,-7.625,-20.2501
13:48:32.082,-8.6875,-21.4376
13:48:32.116,-8.9375,-21.4376
13:48:32.118,-9.0625,-21.9376
13:48:32.119,-8.125,-20.6251
13:48:32.125,-7.4375,-19.6251
13:48:32.155,-4.4375,-16.1251
13:48:32.158,-2.5625,-12.375
13:48:32.191,0.3125,-8.4375
13:48:32.247,2.25,-3.4375
13:48:32.248,5.5625,0.5625
13:48:32.248,6.875,4.5625
13:48:32.248,8.3125,7.25
13:48:32.250,8.3125,8.875
13:48:32.257,8.8125,9.625
13:48:32.257,8.25,9.75
13:48:32.257,8.25,10.4375
13:48:32.262,8.125,9.375
13:48:32.275,7.6875,10.0625
13:48:32.282,7.625,8.8125
13:48:32.292,7,10
13:48:32.302,7.25,9.5
13:48:32.312,7.5,8.75
13:48:32.322,7.375,9.8125
13:48:32.332,7.5625,9.9375
13:48:32.342,6.3125,8.3125
13:48:32.352,6.9375,8.9375
13:48:32.362,6.125,8.4375
13:48:32.374,5.625,8.625
13:48:32.383,5.9375,8.1875
13:48:32.392,5.1875,7.4375
13:48:32.402,5.0625,7.9375
13:48:32.412,4.75,6.625
13:48:32.425,3.6875,5.125
13:48:32.432,3.5625,5.25
13:48:32.443,3.1875,5.5625
13:48:32.452,3.875,5.0625
13:48:32.462,3.1875,4.4375
13:48:32.472,3,4.25
13:48:32.482,3.0625,4.8125
13:48:32.492,3.8125,4.875
13:48:32.502,3.5625,4.3125
13:48:32.512,2,3.3125
13:48:32.522,1.5,3.6875
13:48:32.533,1.625,3.125
13:48:32.543,0.8125,1.75
13:48:32.552,0.25,1.0625
13:48:32.562,0.125,1.9375
13:48:32.575,1.125,0.125
13:48:32.582,0.375,-0.3125
13:48:32.592,0.125,0.4375
13:48:32.602,0.0625,-0.8125
13:48:32.635,0.5625,-1.25
13:48:32.639,-0.1875,-1.875
13:48:32.640,-0.625,-1.625
13:48:32.642,-0.25,-2.3125
13:48:32.652,-0.0625,-3.875
13:48:32.663,-0.5625,-3.875
13:48:32.672,0.25,-4.375
13:48:32.683,-0.875,-5.9375
13:48:32.693,-1.5,-5
13:48:32.702,-1.625,-5.3125
13:48:32.715,-1.75,-6.25
13:48:32.723,-2.1875,-7.25
13:48:32.734,-3.125,-8.8125
13:48:32.742,-3.1875,-8
13:48:32.752,-2.625,-9.1875
13:48:32.762,-3.3125,-8.5
13:48:32.772,-3.3125,-9
13:48:32.784,-3.875,-10.4375
13:48:32.792,-4.5625,-10.5
13:48:32.803,-4.625,-10.75
13:48:32.834,-5.0625,-10.625
13:48:32.839,-4.5625,-11.6875
13:48:32.840,-4.75,-12.5625
13:48:32.843,-4.4375,-11.9375
13:48:32.875,-5.375,-13.1876
13:48:32.876,-5.8125,-13.0625
13:48:32.878,-5.5625,-14.7501
13:48:32.884,-6.0625,-14.5001
13:48:32.920,-6.6875,-15.6251
13:48:32.922,-7.0625,-16.1251
13:48:32.924,-7.3125,-16.1876
13:48:32.959,-7.25,-16.5001
13:48:32.960,-6,-16.8126
13:48:32.962,-6.3125,-16.2501
13:48:32.967,-6.0625,-16.8751
13:48:32.968,-6.625,-17.6876
13:48:32.992,-6.8125,-18.0626
13:48:32.994,-7.6875,-18.2501
13:48:32.997,-8.375,-19.0001
13:48:33.007,-9.25,-20.6876
13:48:33.018,-10.6875,-20.0001
13:48:33.027,-11.5,-22.3751
13:48:33.037,-11.875,-21.6251
13:48:33.047,-12,-22.8751
13:48:33.058,-12.375,-23.3751
13:48:33.070,-12.6875,-22.8751
13:48:33.078,-13.3126,-25.2501
13:48:33.088,-13.9376,-24.7501
13:48:33.097,-15.5626,-27.0626
13:48:33.107,-16.3126,-27.0001
13:48:33.117,-17.8751,-29.3126
13:48:33.134,-19.5626,-29.9376
13:48:33.141,-22.6251,-32.3126
13:48:33.148,-23.9376,-32.8126
13:48:33.159,-26.2501,-34.5001
13:48:33.172,-28.4376,-36.0626
13:48:33.181,-31.6251,-37.6876
13:48:33.188,-34.9376,-37.6251
13:48:33.197,-39.7502,-39.4377
13:48:33.210,-45.0627,-39.7502
13:48:33.218,-49.9377,-40.3127
13:48:33.229,-54.8127,-39.0001
13:48:33.237,-61.7502,-38.6251
13:48:33.247,-69.1253,-38.5001
13:48:33.257,-77.3128,-40.6877
13:48:33.267,-87.3128,-43.9377
13:48:33.277,-96.8129,-47.8752
13:48:33.287,-107.9379,-52.8752
13:48:33.297,-119.5005,-58.7502
13:48:33.307,-127.1255,-64.0627
13:48:33.317,-126.8755,-62.5002
13:48:33.328,-124.3755,-61.5002
13:48:33.338,-125.188,-63.1252
13:48:33.347,-126.8755,-63.7502
13:48:33.357,-127.813,-66.0628
13:48:33.367,-129.1255,-65.9378
13:48:33.380,-129.6255,-67.8128
13:48:33.387,-124.938,-64.3127
13:48:33.397,-118.063,-60.4377
13:48:33.407,-111.8129,-55.3752
13:48:33.417,-107.3754,-53.5627
13:48:33.427,-105.6254,-51.6252
13:48:33.442,-103.8754,-52.1877
13:48:33.449,-99.8754,-49.4377
13:48:33.457,-95.0629,-47.5627
13:48:33.467,-90.7504,-44.5627
13:48:33.477,-86.1253,-43.0002
13:48:33.487,-81.5628,-39.7502
13:48:33.499,-78.1253,-38.1876
13:48:33.513,-75.6878,-36.9376
13:48:33.519,-74.6878,-37.0001
13:48:33.532,-74.1253,-35.6251
13:48:33.539,-74.6253,-36.9376
13:48:33.548,-73.5003,-35.6251
13:48:33.578,-69.8753,-34.8126
13:48:33.581,-60.6252,-27.8126
13:48:33.583,-56.3752,-24.6876
13:48:33.587,-58.2502,-25.2501
13:48:33.613,-68.3753,-32.7501
13:48:33.616,-85.5003,-45.1877
13:48:33.618,-103.1254,-59.0002
13:48:33.656,-114.8754,-67.8128
13:48:33.658,-127.0005,-79.4378
13:48:33.662,-141.5005,-89.9378
13:48:33.664,-153.3131,-101.3754
13:48:33.667,-158.8756,-107.5629
13:48:33.677,-159.1256,-111.1254
13:48:33.712,-157.6881,-110.7504
13:48:33.714,-155.3131,-109.1879
13:48:33.716,-154.0006,-109.3754
13:48:33.718,-156.0006,-109.1254
13:48:33.739,-165.3131,-116.4379
13:48:33.739,-181.0632,-128.0005
13:48:33.747,-192.3132,-135.8755
13:48:33.758,-195.4382,-139.3755
13:48:33.767,-191.0007,-136.313
13:48:33.777,-183.8132,-132.188
13:48:33.789,-182.4382,-131.063
13:48:33.797,-187.4382,-136.313
13:48:33.807,-194.3132,-141.1255
13:48:33.817,-194.3132,-143.063
13:48:33.827,-184.8757,-136.6255
13:48:33.838,-170.6882,-126.3755
13:48:33.847,-153.6256,-115.6254
13:48:33.858,-135.688,-102.3129
