timestamp,Red,IR
13:27:55.769,11.8438,16.0001
13:27:55.780,11.3438,15.1251
13:27:55.790,10.6563,15.1251
13:27:55.799,10.1563,15.0001
13:27:55.810,9.625,13.4376
13:27:55.819,9.2813,12.0625
13:27:55.831,8.6563,11.125
13:27:55.839,8.0938,10.3125
13:27:55.849,7.7813,10.5625
13:27:55.862,7.4063,10.125
13:27:55.870,7.875,9.75
13:27:55.879,7.3125,9.625
13:27:55.889,7.4063,9.8125
13:27:55.900,7.5938,8.4375
13:27:55.910,6.0625,7.4375
13:27:55.919,5.6875,7.6875
13:27:55.929,6.4375,7.375
13:27:55.939,6.2188,6.625
13:27:55.949,6.4063,7.625
13:27:55.959,6.625,6.6875
13:27:55.969,6.875,6.1875
13:27:55.979,7.125,6.1875
13:27:55.990,6.4063,5.75
13:27:55.999,7.2813,5.5625
13:27:56.010,6.4063,4.5625
13:27:56.022,5.7813,3.8125
13:27:56.030,6.25,3.6875
13:27:56.039,5.7188,2.6875
13:27:56.049,4.7813,1.875
13:27:56.059,4.5,1.25
13:27:56.070,4.5938,2.375
13:27:56.079,4.875,1.125
13:27:56.089,4.125,-0.1875
13:27:56.101,3.9063,-0.5
13:27:56.109,3.8438,-0.25
13:27:56.147,4.3438,-1
13:27:56.150,2.9688,-2.125
13:27:56.151,3.375,-2.75
13:27:56.165,3.1563,-2.3125
13:27:56.170,3.4063,-2.875
13:27:56.172,3.0313,-3.875
13:27:56.210,2.1563,-3.4375
13:27:56.213,2.1875,-3.5
13:27:56.259,3.3125,-3.5625
13:27:56.295,2.2188,-4.9375
13:27:56.297,2.0938,-5
13:27:56.301,2.2188,-4.75
13:27:56.303,2.4375,-5.5625
13:27:56.303,1.75,-5.9375
13:27:56.310,1.625,-5.6875
13:27:56.319,2.0938,-6.75
13:27:56.329,1.375,-5.75
13:27:56.340,1.5,-6.875
13:27:56.349,1.2188,-7.6875
13:27:56.360,0.9375,-8.25
13:27:56.369,0.5313,-7.0625
13:27:56.379,0.8125,-7.3125
13:27:56.389,1.5625,-6.8125
13:27:56.399,2.1875,-4.5625
13:27:56.410,3.3125,-2.9375
13:27:56.420,4.625,0.125
13:27:56.429,6.4063,3.3125
13:27:56.439,7.7188,7
13:27:56.449,9.5,10.25
13:27:56.460,10.3438,12.6875
13:27:56.469,12.9063,21.7501
13:27:56.479,13.125,21.1251
13:27:56.489,12.9063,20.9376
13:27:56.500,13.6251,22.1876
13:27:56.511,13.3438,21.2501
13:27:56.519,13.6563,21.4376
13:27:56.529,13.2188,20.9376
13:27:56.539,13.2813,21.0626
13:27:56.561,13.3438,20.1876
13:27:56.561,12.4063,19.2501
13:27:56.572,11.4375,19.9376
13:27:56.579,11.5313,18.5001
13:27:56.594,11.7188,17.8126
13:27:56.603,11.4375,16.2501
13:27:56.610,10.5938,16.3126
13:27:56.619,9.5938,14.1251
13:27:56.629,10,13.1876
13:27:56.642,9.1563,13.2501
13:27:56.650,10.1875,12.75
13:27:56.659,8.625,12.25
13:27:56.670,8.625,12.75
13:27:56.679,9.5,11.3125
13:27:56.689,8.5313,11
13:27:56.699,8.5313,11.375
13:27:56.711,9.4063,10.4375
13:27:56.719,8.5,9.5625
13:27:56.729,8.2813,9.6875
13:27:56.740,8.2813,10
13:27:56.749,8,8.8125
13:27:56.759,7.5313,8.8125
13:27:56.789,10.1875,9.8125
13:27:56.791,8.875,8.1875
13:27:56.793,6.0313,7.8125
13:27:56.801,6.0625,6.375
13:27:56.826,7.25,5.8125
13:27:56.830,7.5625,6.8125
13:27:56.832,7.5938,6.125
13:27:56.860,7.1563,5.3125
13:27:56.862,7.125,3.875
13:27:56.865,6,4.1875
13:27:56.870,5.4063,3.1875
13:27:56.905,4.9375,1.875
13:27:56.907,4.9688,1.125
13:27:56.909,5.2188,1.875
13:27:56.914,5.8125,0.875
13:27:56.930,5.7188,0.1875
13:27:56.933,4.8125,0
13:27:56.954,5.0625,-0.375
13:27:56.955,5.2188,-1.4375
13:27:56.961,4.5313,-2.0625
13:27:56.971,4.4375,-2
13:27:56.979,4.0313,-2.125
13:27:56.989,3.7188,-1.625
13:27:56.999,4.2188,-3
13:27:57.009,3.875,-3.375
13:27:57.019,3.75,-3.4375
13:27:57.029,3.6875,-3.4375
13:27:57.040,3.4375,-4.8125
13:27:57.049,3.1875,-4.3125
13:27:57.059,3.125,-4.4375
13:27:57.070,3.2813,-4.25
13:27:57.080,3.625,-4.9375
13:27:57.089,3.875,-5.1875
13:27:57.099,3.0938,-5.5
13:27:57.109,3.1875,-5.9375
13:27:57.119,3.0938,-6.5625
13:27:57.129,2.4375,-7.5625
13:27:57.139,2.2188,-6.8125
13:27:57.149,0.8438,-8.3125
13:27:57.159,0.75,-7.75
13:27:57.169,0.7813,-8.625
13:27:57.179,0.25,-8.25
13:27:57.189,1.1875,-7.5
13:27:57.200,2.6563,-6.9375
13:27:57.209,3.4063,-4.375
13:27:57.219,5.375,-0.5
13:27:57.229,6.9063,2.1875
13:27:57.240,7.5938,6.3125
13:27:57.249,9.0938,9.8125
13:27:57.259,10.7188,12
13:27:57.269,11.2188,14.1251
13:27:57.279,12.875,17.0626
13:27:57.289,13.6563,17.7501
13:27:57.299,13.2188,18.7501
13:27:57.309,13.7501,19.1251
13:27:57.319,13.1876,19.2501
13:27:57.329,13.1563,20.5626
13:27:57.339,13.3438,19.2501
13:27:57.349,12.875,19.4376
13:27:57.359,12.5313,19.2501
13:27:57.369,12,18.5626
13:27:57.379,12.4375,19.0001
13:27:57.389,11.5625,18.0001
13:27:57.399,11.0938,18.6876
13:27:57.409,11.3438,18.0001
13:27:57.438,10.5625,16.7501
13:27:57.441,9.9375,17.0626
13:27:57.443,10.0313,16.3126
13:27:57.449,9.375,15.0001
13:27:57.459,9.0625,13.6251
13:27:57.469,8.375,14.3751
13:27:57.489,8.6875,12.125
13:27:57.491,7.6563,12.375
13:27:57.526,8.1875,12.0625
13:27:57.527,7.0625,11
13:27:57.599,6.625,11.25
13:27:57.600,7.7813,10.5625
13:27:57.634,6.7813,10
13:27:57.663,6.2813,11.625
13:27:57.663,6.625,9.9375
13:27:57.663,6.3438,8.6875
13:27:57.663,6.3438,9.75
13:27:57.666,6.3438,9.25
13:27:57.672,5.2813,8.0625
13:27:57.677,5.1875,8.6875
13:27:57.684,5.2813,7.4375
13:27:57.695,4.4375,6.75
13:27:57.706,4.25,7.1875
13:27:57.715,4.125,6.25
13:27:57.724,4,4.4375
13:27:57.737,3.1563,4.625
13:27:57.744,2.9063,4.1875
13:27:57.754,3.375,3.625
13:27:57.764,2.8438,2.875
13:27:57.774,2.9375,2.1875
13:27:57.785,3.0625,1.5625
13:27:57.794,2.4063,0.875
13:27:57.805,0.4688,-2.25
13:27:57.814,0.75,-1.8125
13:27:57.825,0.625,-3
13:27:57.834,0.3438,-4.125
13:27:57.844,0.1563,-3.4375
13:27:57.854,0.5313,-3.8125
13:27:57.864,0.4375,-4.4375
13:27:57.879,0.4063,-4.9375
13:27:57.888,0.1875,-5.6875
13:27:57.894,0.1563,-5.8125
13:27:57.910,-0.0313,-4.9375
13:27:57.927,0.9063,-5.5625
13:27:57.933,0.6875,-6
13:27:57.936,-0.25,-5.3125
13:27:57.944,-0.2188,-6.4375
13:27:57.954,-0.5938,-7.25
13:27:57.965,-0.375,-6.25
13:27:57.974,-0.1875,-7.4375
13:27:57.984,-0.375,-7.125
13:27:57.995,-0.5313,-7.75
13:27:58.004,-1.0313,-8.3125
13:27:58.014,-1,-7.6875
13:27:58.024,-0.3125,-8.75
13:27:58.034,-0.7813,-8.9375
13:27:58.044,-0.3438,-7.875
13:27:58.055,-0.3125,-7.4375
13:27:58.064,0.4375,-6.5
13:27:58.078,1.9375,-4.625
13:27:58.084,3.7188,-1.8125
13:27:58.094,4.5313,1.375
13:27:58.104,6.8438,5.875
13:27:58.114,8.4375,8.875
13:27:58.124,9.75,12.9375
13:27:58.134,10.625,15.1251
13:27:58.145,11.6875,16.4376
13:27:58.154,11.9375,17.8751
13:27:58.164,12.6875,18.6876
13:27:58.174,12.875,20.0001
13:27:58.184,12.3125,19.4376
13:27:58.194,12.4375,20.3126
13:27:58.204,11.7813,19.8126
13:27:58.214,12.7188,20.1251
13:27:58.224,12.4063,20.1876
13:27:58.236,12.6563,19.1251
13:27:58.245,12.5938,19.5001
13:27:58.273,12.375,18.9376
13:27:58.276,12.2188,19.7501
13:27:58.278,12.3125,18.8751
13:27:58.287,11.375,17.8751
13:27:58.318,10.4375,18.0001
13:27:58.321,10.5,16.6876
13:27:58.323,10.2188,15.4376
13:27:58.325,10.0313,15.5001
13:27:58.361,9.8125,14.6876
13:27:58.363,9.5,14.1251
13:27:58.364,9.9063,13.4376
13:27:58.397,9.375,12.5625
13:27:58.400,8.8125,12.25
13:27:58.401,8.2813,12.3125
13:27:58.435,8.1875,11.75
13:27:58.436,8.8125,10.6875
13:27:58.437,8.375,10.375
13:27:58.439,8.5313,10.8125
13:27:58.446,8.0625,10.9375
13:27:58.456,8.6875,10
13:27:58.460,8.1563,9.3125
13:27:58.469,7.9375,9.875
13:27:58.479,8.5,8.75
13:27:58.489,7.7813,8.0625
13:27:58.499,7.4375,8.5625
13:27:58.509,7.6875,7.5
13:27:58.519,7.8438,6.9375
13:27:58.529,7.125,6
13:27:58.539,7.4375,7
13:27:58.549,7.0625,5.4375
13:27:58.559,7.625,5.625
13:27:58.569,7.9063,3.875
13:27:58.579,7.7813,2.9375
13:27:58.589,7.3125,2.4375
13:27:58.599,7.5625,2.3125
13:27:58.609,7.1563,2.1875
13:27:58.619,6.75,1.75
13:27:58.629,7.7188,0.75
13:27:58.639,7.0625,0.25
13:27:58.649,7.2813,1.125
13:27:58.659,7.8125,-0.25
13:27:58.669,6.9063,-0.8125
13:27:58.679,6.375,-1.25
13:27:58.689,6.0938,-1.0625
13:27:58.718,6.9688,-1.875
13:27:58.721,6.375,-2.8125
13:27:58.723,5.7188,-3.625
13:27:58.730,5.6563,-2.8125
13:27:58.740,5.8438,-3.5625
13:27:58.750,5.4375,-3.6875
13:27:58.759,5.9063,-3.1875
13:27:58.769,5.9375,-3.8125
13:27:58.779,6.0313,-4.6875
13:27:58.789,6.6563,-3.9375
13:27:58.799,6.5938,-4.25
13:27:58.811,6.3125,-4.4375
13:27:58.819,6.75,-4.25
13:27:58.830,6.5625,-5.0625
13:27:58.839,6.2813,-4.625
13:27:58.849,6.5313,-5.4375
13:27:58.859,6.125,-5.75
13:27:58.869,6.1875,-5.4375
13:27:58.886,6.375,-5.875
13:27:58.891,6.125,-6.1875
13:27:58.899,6.5625,-6.375
13:27:58.915,6.5938,-6.125
13:27:58.923,6.3438,-4.125
13:27:58.929,7.75,-4.5
13:27:58.939,8.2813,-1.125
13:27:58.949,9.75,1.5625
13:27:58.959,11.7188,4.375
13:27:58.969,13.0313,7.875
13:27:58.980,14.9688,11.375
13:27:58.989,15.8438,13.0625
13:27:58.999,16.0626,15.3751
13:27:59.009,16.9376,17.7501
13:27:59.019,17.6563,18.0626
13:27:59.029,16.9376,18.1251
13:27:59.056,17.1876,18.6876
13:27:59.059,17.2188,19.8126
13:27:59.061,17.2188,18.8126
13:27:59.069,17.1563,18.5626
13:27:59.105,16.6251,19.5626
13:27:59.107,17.2188,18.5001
13:27:59.110,16.5626,18.6876
13:27:59.116,16.7188,19.0626
13:27:59.125,16.6563,17.8751
13:27:59.129,15.8438,17.5001
13:27:59.164,15.8751,17.5001
13:27:59.167,15.9376,17.2501
13:27:59.171,15.3438,15.4376
13:27:59.175,15.3126,15.6251
13:27:59.179,15.2188,14.5626
13:27:59.205,14.8438,13.1876
13:27:59.228,13.9063,14.0626
13:27:59.242,14.0626,13.1876
13:27:59.257,14.1251,12
13:27:59.260,13.1251,11.0625
13:27:59.263,12.875,12.125
13:27:59.263,13.4063,10.9375
13:27:59.263,13.2188,10.25
13:27:59.270,12.625,9.5625
13:27:59.279,11.8125,10.3125
13:27:59.289,11.8438,9.5
13:27:59.299,11.6563,8.5
13:27:59.309,11.0938,7.9375
13:27:59.319,10.6875,7.875
13:27:59.329,10.7813,7.875
13:27:59.339,10.9063,6.6875
13:27:59.349,10.4063,6.25
13:27:59.359,9.875,6
13:27:59.369,10.0313,6.125
13:27:59.379,9.9375,5.125
13:27:59.390,9.5625,4.25
13:27:59.399,9.25,3.625
13:27:59.409,8.8125,3.3125
13:27:59.419,8.625,2.6875
13:27:59.429,8.1875,2.3125
13:27:59.439,7.9063,1.625
13:27:59.449,8.0313,1.9375
13:27:59.459,7.2188,2.125
13:27:59.469,6.75,0.4375
13:27:59.479,6.9688,-0.0625
13:27:59.489,6.8125,-0.25
13:27:59.499,6.3125,-0.0625
13:27:59.510,6.7188,-1.3125
13:27:59.519,5.625,-2.25
13:27:59.529,5.7188,-2.0625
13:27:59.539,5.625,-2.4375
13:27:59.549,5.9375,-2.875
13:27:59.559,5.25,-3.9375
13:27:59.569,4.7813,-3.6875
13:27:59.579,5.0313,-3.75
13:27:59.590,5.9063,-4.0625
13:27:59.603,5.125,-4.625
13:27:59.609,4.75,-4.375
13:27:59.619,5.1875,-4.6875
13:27:59.629,4.8125,-5.125
13:27:59.639,4.0938,-5.5625
13:27:59.652,4.125,-4.9375
13:27:59.659,3.6563,-6.375
13:27:59.687,3.2188,-5.6875
13:27:59.690,3.2813,-7
13:27:59.691,2.625,-7.1875
13:27:59.699,2.5625,-6.375
13:27:59.734,3.0938,-6.625
13:27:59.737,2.9688,-6.6875
13:27:59.739,3.9688,-4.875
13:27:59.744,4.3125,-3.5625
13:27:59.749,5.625,0.0625
13:27:59.782,7.0938,3.25
13:27:59.783,7.9063,6.5
13:27:59.785,9.0938,9.1875
13:27:59.791,9.8125,11.0625
13:27:59.818,10.25,13.8751
13:27:59.821,11.2813,14.5626
13:27:59.823,10.9688,15.5001
13:27:59.832,11.4375,16.5626
13:27:59.850,11.4688,15.6876
13:27:59.852,10.875,15.7501
13:27:59.859,10.5938,15.3126
13:27:59.869,10.125,16.5001
13:27:59.879,9.9375,16.3126
13:27:59.889,9.9375,15.0001
13:27:59.899,9.0938,14.4376
13:27:59.909,8.0625,14.5001
13:27:59.919,8.4375,13.6251
13:27:59.929,7.3125,12.5625
13:27:59.939,6.5938,12.75
13:27:59.949,6.5938,11.25
13:27:59.959,6.0313,10
13:27:59.969,5.5313,10.125
13:27:59.998,5.4375,9
13:28:00.005,5.4688,8.25
13:28:00.009,4.6563,7.375
13:28:00.009,4.8438,8.0625
13:28:00.019,4.375,6.75
13:28:00.030,4.3125,6.375
13:28:00.040,3.4375,7.25
13:28:00.049,3.5938,6.3125
13:28:00.059,3.4063,5.625
13:28:00.069,2.9688,5.375
13:28:00.080,2.6875,6.5
13:28:00.089,2.8125,5.0625
13:28:00.099,2.4063,4.5
13:28:00.109,2.2813,4.125
13:28:00.119,2,3.5
13:28:00.129,1.9375,3.9375
13:28:00.139,1.4063,3.8125
13:28:00.149,1.5625,2.75
13:28:00.159,1.6563,2.5
13:28:00.169,1.0313,2.0625
13:28:00.179,1.5625,1.375
13:28:00.200,1.25,0.75
13:28:00.205,0.9375,0.8125
13:28:00.213,0.4688,0.3125
13:28:00.219,1.1875,-0.1875
13:28:00.238,0.5,-1.125
13:28:00.239,0.2188,-1.0625
13:28:00.254,-0.0313,-1.5
13:28:00.259,0.1563,-2.5
13:28:00.269,-0.7188,-2.9375
13:28:00.279,-1.2188,-2.6875
13:28:00.289,-1.125,-3.875
13:28:00.299,-1.1563,-4.5
13:28:00.309,-1.2813,-4.875
13:28:00.319,-1.0313,-4.5625
13:28:00.330,-0.9375,-4.6875
13:28:00.339,-1,-5.75
13:28:00.355,-0.9375,-5.9375
13:28:00.362,-1.625,-6.4375
13:28:00.369,-2,-6.9375
13:28:00.379,-1.6563,-6.75
13:28:00.389,-1.7813,-6.8125
13:28:00.399,-0.9063,-7
13:28:00.409,-1.7188,-7.8125
13:28:00.419,-2.4688,-7.3125
13:28:00.430,-2.1563,-7.5625
13:28:00.439,-2.0625,-8.75
13:28:00.465,-1.625,-7.4375
13:28:00.468,-1.375,-8.1875
13:28:00.470,-1.5625,-7.1875
13:28:00.509,-0.75,-5.75
13:28:00.512,0.3438,-3.4375
13:28:00.542,2,-0.6875
13:28:00.576,3.6875,2.8125
13:28:00.616,4.9063,6.0625
13:28:00.618,7,8.875
13:28:00.618,7.5,11.9375
13:28:00.618,8.625,14.3751
13:28:00.636,8.875,14.5626
13:28:00.636,9.2813,16.7501
13:28:00.641,9.125,16.0626
13:28:00.641,9.0938,16.9376
13:28:00.646,9.4063,17.1251
13:28:00.654,9.5,17.1251
13:28:00.665,9.375,16.4376
13:28:00.674,8.4375,16.8751
13:28:00.684,8.9063,16.3126
13:28:00.695,8.5313,15.8751
13:28:00.704,7.9375,16.5626
13:28:00.714,8.125,15.5626
13:28:00.730,7.8125,14.5001
13:28:00.734,7.125,13.8751
13:28:00.744,6.4688,12.6875
13:28:00.755,5.3125,11.0625
13:28:00.764,4.75,10.3125
13:28:00.774,4.5625,9.625
13:28:00.784,3.9063,9.4375
13:28:00.794,3.6875,7.75
13:28:00.804,3.875,7.0625
13:28:00.814,2.9375,6.4375
13:28:00.824,2.3125,7.0625
13:28:00.834,2.2813,6.125
13:28:00.845,2,5
13:28:00.854,1.625,5.4375
13:28:00.864,1.75,5.625
13:28:00.874,2.2813,4.375
13:28:00.884,1.6563,3.375
13:28:00.894,1.5313,3.875
13:28:00.905,1.1875,4.1875
13:28:00.914,1.6563,3.3125
13:28:00.924,1.7813,2.375
13:28:00.935,0.9063,1.25
13:28:00.944,0.6563,2.5
13:28:00.954,0.625,0.9375
13:28:00.965,0.5625,-0.0625
13:28:00.974,-0.1875,-0.75
13:28:00.984,-0.5313,-0.1875
13:28:00.994,-0.2188,-1.0625
13:28:01.005,-0.125,-1.9375
13:28:01.015,-1.0625,-2.625
13:28:01.025,-1.4375,-3.5
13:28:01.034,-1.2813,-3
13:28:01.044,-0.8125,-3.8125
13:28:01.054,-1.2813,-4.9375
13:28:01.064,-1.75,-5.5625
13:28:01.074,-1.9375,-4.6875
13:28:01.085,-2.2188,-4.8125
13:28:01.094,-1.9688,-6.1875
13:28:01.106,-2.125,-6.9375
13:28:01.115,-2.3125,-6.8125
13:28:01.124,-3,-7.1875
13:28:01.134,-2.5313,-7.0625
13:28:01.144,-3.4375,-7.4375
13:28:01.154,-2.9375,-8.0625
13:28:01.164,-3.0938,-8.5625
13:28:01.185,-2.875,-8.5625
13:28:01.188,-3.4063,-8.3125
13:28:01.221,-3.4688,-9.3125
13:28:01.224,-3.75,-8.75
13:28:01.225,-3.3438,-9.5625
13:28:01.228,-3.6563,-10.1875
13:28:01.234,-3.4375,-9.6875
13:28:01.279,-3.1875,-10.3125
13:28:01.283,-3.125,-9.1875
13:28:01.288,-1.9688,-7.5
13:28:01.288,-1,-5.4375
13:28:01.292,0.4063,-1.875
13:28:01.317,2.4375,1.6875
13:28:01.318,3.4688,6.0625
13:28:01.320,5.7188,9.6875
13:28:01.346,6.4375,12.9375
13:28:01.351,7.6563,15.0001
13:28:01.353,8.1563,16.3751
13:28:01.358,9.25,17.7501
13:28:01.364,9.5313,18.6876
13:28:01.374,9.4063,19.7501
13:28:01.385,9.875,20.0001
13:28:01.395,9.4688,20.3751
13:28:01.404,8.6563,20.6876
13:28:01.414,9.4375,19.6876
13:28:01.424,8.3125,20.4376
13:28:01.434,9.0938,19.7501
13:28:01.444,8.2188,19.0001
13:28:01.454,8.2188,19.4376
13:28:01.464,8.5313,19.3751
13:28:01.482,8.0313,18.5626
13:28:01.484,7.4375,18.0001
13:28:01.494,7.2188,17.6251
13:28:01.504,6.5625,16.1876
13:28:01.522,5.9063,15.5626
13:28:01.528,5.2188,16.0001
13:28:01.535,4.9375,14.5626
13:28:01.544,4.5625,13.2501
13:28:01.559,3.875,12.0625
13:28:01.575,3.5313,12.8125
13:28:01.578,4.0938,12.0625
13:28:01.584,4.125,11.0625
13:28:01.594,3.25,9.9375
13:28:01.604,2.5625,10.3125
13:28:01.614,2.4688,9.75
13:28:01.624,2.5625,9.0625
13:28:01.634,1.625,8.25
13:28:01.645,1.4063,7.8125
13:28:01.655,1.5313,8.5
13:28:01.665,1.4063,7.5
13:28:01.674,0.6875,7.0625
13:28:01.684,0.5,7.1875
13:28:01.694,0.5313,5.8125
13:28:01.705,-0.0625,4.9375
13:28:01.714,-0.2188,4.4375
13:28:01.724,-0.7188,5.5
13:28:01.734,0,4.1875
13:28:01.746,-0.5938,2.8125
13:28:01.754,-0.9688,2.3125
13:28:01.764,-1.375,2.5625
13:28:01.774,-0.5938,1.125
13:28:01.784,-1.625,-0.125
13:28:01.794,-2.1563,0
13:28:01.804,-1.4688,-0.875
13:28:01.814,-2.3438,-2.1875
13:28:01.825,-2.4688,-2.125
13:28:01.836,-2.4063,-1.75
13:28:01.845,-2.1563,-3.3125
13:28:01.858,-2.7813,-3.4375
13:28:01.864,-3.0938,-2.8125
13:28:01.874,-2.875,-4.625
13:28:01.884,-3.3125,-3.8125
13:28:01.909,-3.375,-4.75
13:28:01.945,-3.7813,-6
13:28:02.016,-4,-5.9375
13:28:02.016,-3.6563,-6.6875
13:28:02.020,-4.5,-7.125
13:28:02.020,-4.0625,-6.125
13:28:02.020,-4.5313,-7.375
13:28:02.022,-4.1563,-6.875
13:28:02.025,-4.7813,-8.25
13:28:02.059,-4.8438,-7.8125
13:28:02.059,-4.375,-9.0625
13:28:02.059,-4.5938,-8.25
13:28:02.059,-5.0313,-9
13:28:02.061,-5.0625,-9.125
13:28:02.068,-5.0938,-10
13:28:02.072,-5.4688,-10
13:28:02.079,-5.125,-9.5625
13:28:02.089,-4.5,-9.9375
13:28:02.099,-5.2813,-8.8125
13:28:02.109,-3.5313,-6.875
13:28:02.119,-1.5313,-4.5
13:28:02.129,-0.5625,-1.0625
13:28:02.139,1.1875,2.9375
13:28:02.150,6.8125,15.8751
13:28:02.158,7.0625,17.2501
13:28:02.170,7.875,19.0626
13:28:02.179,8.625,19.9376
13:28:02.188,8.375,20.6876
13:28:02.199,9.2188,21.3126
13:28:02.209,8.8125,22.5626
13:28:02.219,8.8438,22.3751
13:28:02.234,8.5313,21.6251
13:28:02.239,8.6563,22.3126
13:28:02.249,8.8125,21.8126
13:28:02.259,8.2188,21.8126
13:28:02.269,8.5,21.8126
13:28:02.279,8.4063,21.3751
13:28:02.290,8.3438,21.1876
13:28:02.299,7.6875,20.3126
13:28:02.310,7.0938,20.8751
13:28:02.319,7.2813,20.1251
13:28:02.329,7.0313,18.5001
13:28:02.340,6.5,18.6876
13:28:02.349,6.25,17.6251
13:28:02.358,5.4063,16.1876
13:28:02.369,5,15.0626
13:28:02.379,5.0625,14.6251
13:28:02.387,4.9375,13.7501
13:28:02.399,4.4688,12.75
13:28:02.409,4,12.625
13:28:02.419,3.9688,12.875
13:28:02.428,3.6875,11.5
13:28:02.439,3.5625,11.625
13:28:02.449,4.125,11.375
13:28:02.459,3.5,10.3125
13:28:02.474,2.8438,10.6875
13:28:02.483,3.2188,9.8125
13:28:02.494,2.6875,9.4375
13:28:02.504,2.3125,8.875
13:28:02.514,2.0313,9.125
13:28:02.525,2.0313,7.875
13:28:02.534,2.2188,6.6875
13:28:02.561,2.125,7.1875
13:28:02.564,2.8125,6.6875
13:28:02.566,1.9375,5.625
13:28:02.575,1.6563,4.4375
13:28:02.583,1.4688,4.6875
13:28:02.594,1.75,4.125
13:28:02.620,1.2813,3.125
13:28:02.628,0.875,2.625
13:28:02.628,0.25,2.3125
13:28:02.634,0.4063,1.3125
13:28:02.667,0.0625,0.5625
13:28:02.669,-0.3125,0.0625
13:28:02.672,0.5313,0.25
13:28:02.702,0.625,-1.0625
13:28:02.703,-0.3438,-1.75
13:28:02.706,-1.0625,-0.8125
13:28:02.710,-1,-2.8125
13:28:02.714,-0.9688,-3.25
13:28:02.748,-2.1875,-4.125
13:28:02.749,-2.5,-2.8125
13:28:02.753,-2.5313,-4.625
13:28:02.754,-2.4688,-5.625
13:28:02.794,-3.0625,-4.75
13:28:02.796,-3.125,-5.125
13:28:02.798,-2.6875,-5.6875
13:28:02.805,-3.0313,-7.125
13:28:02.806,-3.3438,-6.5
13:28:02.814,-3.0938,-7.125
13:28:02.825,-3,-7.6875
13:28:02.845,-3.2813,-8.125
13:28:02.852,-3.3438,-8.5625
13:28:02.854,-3.5313,-8.375
13:28:02.869,-3.6875,-8.875
13:28:02.875,-3.4375,-9.125
13:28:02.884,-3.7813,-9
13:28:02.893,-3.4063,-9
13:28:02.904,-3.3438,-8
13:28:02.912,-2.3438,-7.4375
13:28:02.925,-0.6875,-3.25
13:28:02.934,0.8438,-1.0625
13:28:02.944,2.5313,3.25
13:28:02.953,5.4688,7.8125
13:28:02.964,6.125,11.6875
13:28:02.975,7.6563,15.0001
13:28:02.984,8.125,17.5001
13:28:02.994,8.9063,19.3126
13:28:03.005,9.6563,20.3751
13:28:03.014,9.8438,21.9376
13:28:03.024,10,22.5001
13:28:03.034,10.2188,22.1251
13:28:03.044,9.9063,22.9376
13:28:03.055,10.125,22.4376
13:28:03.064,9.5313,22.9376
13:28:03.074,9.7188,22.5001
13:28:03.083,9.625,22.6876
13:28:03.095,9.25,22.5001
13:28:03.105,9.125,23.6251
13:28:03.113,9.4688,22.3126
13:28:03.124,8.7188,21.5001
13:28:03.133,8.3125,22.6251
13:28:03.142,8.0938,20.8751
13:28:03.154,7.4375,19.6876
13:28:03.164,6.8438,19.8126
13:28:03.172,6.9688,18.8126
13:28:03.185,6.875,17.3126
13:28:03.194,5.75,16.0001
13:28:03.204,5.9063,16.3126
13:28:03.214,4.875,14.6876
13:28:03.224,4.4688,14.2501
13:28:03.233,3.875,14.5626
13:28:03.244,3.75,13.0625
13:28:03.262,3.2188,13.0625
13:28:03.265,3.5938,12.4375
13:28:03.279,2.75,11.6875
13:28:03.285,2.6563,11.4375
13:28:03.294,2.7813,11.3125
13:28:03.303,3.0625,10.3125
13:28:03.314,2.2188,11
13:28:03.323,2.3125,10.6875
13:28:03.334,2.4375,9.25
13:28:03.342,1.75,9.125
13:28:03.356,1.375,9.5625
13:28:03.368,1.25,8
13:28:03.374,0.875,6.9375
13:28:03.382,0.6563,6.9375
13:28:03.422,1.1563,5.375
13:28:03.424,-0.0938,4.5625
13:28:03.428,-0.8125,4.625
13:28:03.429,-0.1875,3.9375
13:28:03.434,-0.125,2.625
13:28:03.459,-1.0313,1.625
13:28:03.461,-1.2813,2.3125
13:28:03.489,-1,0.5625
13:28:03.492,-1.4688,0.25
13:28:03.494,-2.5,-0.375
13:28:03.496,-2.5313,-0.3125
13:28:03.525,-2.5313,-1.75
13:28:03.527,-2.7813,-2.125
13:28:03.530,-3.0938,-2.0625
13:28:03.560,-2.625,-3
13:28:03.560,-3.1563,-3.6875
13:28:03.562,-3.75,-3.125
13:28:03.570,-3.625,-4.1875
13:28:03.578,-4.1563,-5.3125
13:28:03.583,-3.4688,-4.75
13:28:03.594,-4.25,-5.5625
13:28:03.603,-3.625,-5.4375
13:28:03.614,-3.5313,-6.1875
13:28:03.622,-3.9375,-6.5
13:28:03.635,-4.125,-5.875
13:28:03.644,-4.2188,-6.6875
13:28:03.654,-4.5313,-7.1875
13:28:03.662,-3.875,-7.1875
13:28:03.674,-4,-7.125
13:28:03.684,-4.0938,-8.125
13:28:03.694,-4.7813,-8
13:28:03.703,-4.6563,-9.3125
13:28:03.715,-4.9688,-8.625
13:28:03.725,-4.6875,-9.6875
13:28:03.734,-4.4375,-9.0625
13:28:03.743,-4.75,-10.4375
13:28:03.754,-4.9688,-9.4375
13:28:03.763,-3.5625,-9.75
13:28:03.774,-3.5313,-7.9375
13:28:03.782,-2.0625,-5.875
13:28:03.794,-0.4375,-3.0625
13:28:03.803,1.6875,0.1875
13:28:03.838,2.5938,5.3125
13:28:03.841,4.625,8.25
13:28:03.843,6.2188,12.875
13:28:03.845,6.7188,14.6876
13:28:03.854,8.125,16.8126
13:28:03.862,8.9063,17.8126
13:28:03.874,8.7188,20.1251
13:28:03.884,8.9063,20.0001
13:28:03.893,8.6875,20.9376
13:28:03.905,9.4688,20.5626
13:28:03.912,9.25,21.4376
13:28:03.922,9.5,20.9376
13:28:03.934,8.6563,20.5626
13:28:03.943,8.8438,20.8126
13:28:03.953,8.4375,21.0001
13:28:03.964,8.875,20.7501
13:28:03.974,8.8125,20.2501
13:28:03.982,8.5313,20.8126
13:28:03.995,9.6563,20.5626
13:28:04.004,9.25,19.5626
13:28:04.013,8.625,20.3751
13:28:04.023,8.6563,19.0001
13:28:04.034,8.0625,17.3126
13:28:04.043,8.25,17.3126
13:28:04.053,7.6875,15.5001
13:28:04.062,7.1875,15.6876
13:28:04.074,7.75,15.1251
13:28:04.082,6.8125,13.8751
13:28:04.093,6.5625,14.6876
13:28:04.109,6.7813,12.8125
13:28:04.114,6.3125,12.625
13:28:04.122,6,12.5
13:28:04.154,6.125,11.3125
13:28:04.157,5.6563,11.4375
13:28:04.190,5.5625,11.5625
13:28:04.193,5.4688,11
13:28:04.223,5.875,10
13:28:04.223,5.4063,9.4375
13:28:04.224,4.5625,10.25
13:28:04.228,4.75,8.625
13:28:04.263,4.3438,7.625
13:28:04.265,3.8438,8.0625
13:28:04.266,3.5938,7
13:28:04.269,3.9375,6
13:28:04.277,3.2813,5
13:28:04.279,2.875,4.5
13:28:04.279,2.4688,5.25
13:28:04.308,2.5625,3.0625
13:28:04.310,1.6875,2.5625
13:28:04.312,1.6563,2.6875
13:28:04.318,1.5313,2.625
13:28:04.328,1.7813,1.3125
13:28:04.340,1.5625,0.875
13:28:04.347,0.9063,-0.3125
13:28:04.359,1.0313,-1.5625
13:28:04.368,0.1875,-1.875
13:28:04.379,-0.0625,-2.0625
13:28:04.388,-0.5938,-2.4375
13:28:04.399,-0.0625,-3
13:28:04.408,-0.5625,-3.5
13:28:04.418,-0.875,-3.8125
13:28:04.427,-1.0313,-3.5625
13:28:04.439,-0.8125,-4.3125
13:28:04.448,-0.875,-5.375
13:28:04.458,-1.4688,-5.5
13:28:04.473,-1.0625,-5.1875
13:28:04.484,-1.375,-6.375
13:28:04.493,-1.9375,-6.25
13:28:04.504,-2.0938,-5.8125
13:28:04.513,-1.8125,-7.1875
13:28:04.522,-1.9688,-6.875
13:28:04.533,-1.4688,-8
13:28:04.542,-1.6875,-8
13:28:04.559,-1.5625,-8.375
13:28:04.574,-2.5,-8.3125
13:28:04.576,-2.4375,-9.375
13:28:04.584,-3.2813,-9.3125
13:28:04.593,-2.6875,-9.9375
13:28:04.602,-3.625,-9
13:28:04.612,-2.6875,-10.375
13:28:04.623,-2.6563,-9.5
13:28:04.633,-2,-9.625
13:28:04.643,-1.125,-7.625
13:28:04.652,0.4063,-5.0625
13:28:04.662,2.375,-1.125
13:28:04.673,4.4375,2.6875
13:28:04.683,5.7188,7.5
13:28:04.693,8.0625,10.25
13:28:04.703,9.5625,13
13:28:04.713,10.0313,16.0626
13:28:04.724,11.0313,17.9376
13:28:04.733,11.4375,18.3751
13:28:04.743,12,19.8751
13:28:04.752,12,19.7501
13:28:04.763,12.125,20.2501
13:28:04.773,12.125,21.0626
13:28:04.783,12.0625,20.0001
13:28:04.793,11.7813,20.6251
13:28:04.803,11.5938,20.0626
13:28:04.812,11.7188,20.5001
13:28:04.823,11.4063,19.7501
13:28:04.833,10.7813,19.8126
13:28:04.843,10.75,19.6251
13:28:04.856,10,18.1251
13:28:04.889,8.8438,18.3751
13:28:04.890,9,18.1251
13:28:04.893,9.4063,17.0626
13:28:04.897,8.2813,15.5001
13:28:04.903,7.4375,14.9376
13:28:04.938,7.1875,14.8751
13:28:04.941,7.4063,13.2501
13:28:04.943,6.625,12.375
13:28:04.949,6.1875,11.625
13:28:04.954,5.375,11.875
13:28:04.986,5.5938,10.875
13:28:04.988,4.9688,9.875
13:28:04.991,4.5625,10.6875
13:28:04.993,5,9.4375
13:28:05.025,4.5,8.3125
13:28:05.028,3.75,9.3125
13:28:05.030,3.6875,8.8125
13:28:05.035,3.9063,7.5625
13:28:05.043,3.4375,7.0625
13:28:05.053,2.6875,6.625
13:28:05.063,3.5625,6.375
13:28:05.073,2.1875,6.1875
13:28:05.083,2,5.625
13:28:05.092,2.6563,4.6875
13:28:05.118,2.4063,4.125
13:28:05.121,2.5313,3.25
13:28:05.126,2.3125,3.0625
13:28:05.134,1.7188,2
13:28:05.144,1.0938,1.25
13:28:05.153,1.25,1.125
13:28:05.163,1.1875,0.75
13:28:05.173,1.25,0.125
13:28:05.182,1,-0.25
13:28:05.192,0.4688,-0.875
13:28:05.203,1.3125,-1.25
13:28:05.212,0,-1.8125
13:28:05.223,-0.875,-1.875
13:28:05.239,-0.4688,-3
13:28:05.244,-1.3438,-4.3125
13:28:05.253,-1.75,-4.0625
13:28:05.262,-2.4063,-4.0625
13:28:05.273,-1.6875,-4.75
13:28:05.282,-2.0938,-6.0625
13:28:05.293,-2.8438,-6.375
13:28:05.302,-3.2188,-6.1875
13:28:05.313,-3.375,-6.25
13:28:05.323,-2.8125,-7.375
13:28:05.333,-3.9063,-8.125
13:28:05.342,-4.5625,-7.875
13:28:05.352,-4.4688,-8.625
13:28:05.363,-4.5938,-9.25
13:28:05.373,-5.125,-9.5
13:28:05.382,-4.75,-9.75
13:28:05.393,-5.1875,-9.9375
13:28:05.402,-5.25,-9.375
13:28:05.412,-4.3125,-10.9375
13:28:05.423,-4.9063,-10.125
13:28:05.432,-4.5313,-10.8125
13:28:05.452,-4.5938,-11.3125
13:28:05.459,-5.0625,-11.6875
13:28:05.474,-4.4063,-12.1875
13:28:05.477,-5.1875,-11.8125
13:28:05.483,-4.0938,-11.75
13:28:05.492,-4.3125,-11.8125
13:28:05.503,-4.4063,-11.4375
13:28:05.513,-3.4688,-11
13:28:05.522,-2.9688,-8.5625
13:28:05.532,-1.1563,-7.5
13:28:05.543,0.2813,-2.5625
13:28:05.552,2.4688,0.6875
13:28:05.562,4.5,4.25
13:28:05.573,6.9375,9.125
13:28:05.583,7.9063,11
13:28:05.592,9.625,14.1876
13:28:05.602,9.7188,15.3751
13:28:05.615,9.9375,16.8751
13:28:05.647,10.375,17.5626
13:28:05.649,9.875,17.5001
13:28:05.651,9.7188,18.7501
13:28:05.653,10.1875,18.1251
13:28:05.682,9.5938,17.7501
13:28:05.683,9.9063,17.8751
13:28:05.687,9.75,17.3126
13:28:05.692,10.2813,17.3126
13:28:05.723,9.6563,17.5626
13:28:05.726,9.4375,16.6876
13:28:05.728,8.8125,17.6251
13:28:05.735,8.5313,16.8126
13:28:05.742,9,15.8126
13:28:05.783,8.0625,15.3126
13:28:05.786,7.4375,15.8751
13:28:05.789,7.8125,14.0626
13:28:05.790,7.1875,13.4376
13:28:05.802,6.6563,12.125
13:28:05.805,5.8438,12.9375
13:28:05.814,5.75,11.5
13:28:05.822,5.2188,10.125
13:28:05.832,5.0625,9.875
13:28:05.856,4.5625,9.25
13:28:05.859,5.125,10.375
13:28:05.873,5.4688,9.5
13:28:05.875,4.8125,8.875
13:28:05.882,4.75,8.375
13:28:05.892,4.375,8.9375
13:28:05.903,4.1875,7.9375
13:28:05.913,3.7188,7.5
13:28:05.922,3.7813,7.0625
13:28:05.933,3.375,7.3125
13:28:05.943,2.7813,6.9375
13:28:05.953,3.4375,5.5
13:28:05.963,2.5313,4.3125
13:28:05.973,2.4688,4.5
13:28:05.989,2.7188,3.5625
13:28:05.995,2.2188,3.625
13:28:06.003,2.2188,3.1875
13:28:06.013,2.7813,1.625
13:28:06.022,2.5,1.5625
13:28:06.033,1.5,0.5
13:28:06.042,1.5938,0.3125
13:28:06.052,1,0.75
13:28:06.062,1.3438,-0.9375
13:28:06.073,1.25,-1.4375
13:28:06.082,0.2813,-1.375
13:28:06.092,0.875,-2.5
13:28:06.103,0.5625,-3.5
13:28:06.113,0.125,-4.3125
13:28:06.122,-0.6563,-4.125
13:28:06.133,-0.2188,-4.5
13:28:06.143,-0.8438,-5.4375
13:28:06.153,-1,-6.3125
13:28:06.163,-1.5938,-5.375
13:28:06.172,-1.2188,-6.25
13:28:06.182,-1.8438,-7.0625
13:28:06.192,-2.0625,-7.0625
13:28:06.202,-1.8438,-7.375
13:28:06.214,-1.875,-8.5625
13:28:06.223,-1.9688,-8.75
13:28:06.233,-1.75,-8
13:28:06.242,-2.5313,-9.6875
13:28:06.253,-2.7813,-9.5625
13:28:06.263,-3.25,-9.0625
13:28:06.272,-2.8438,-10.75
13:28:06.283,-2.625,-10
13:28:06.292,-2.8125,-10.25
13:28:06.302,-2.625,-10.9375
13:28:06.313,-3.1875,-11.25
13:28:06.348,-3.8125,-10.3125
13:28:06.349,-3.7188,-12.25
13:28:06.352,-4.375,-11.8125
13:28:06.354,-3.375,-12.3125
13:28:06.388,-3.8125,-10.9375
13:28:06.390,-2.5313,-10.75
13:28:06.394,-1.875,-8.1875
13:28:06.405,-0.3125,-6.75
13:28:06.410,0.7188,-2.375
13:28:06.413,3,0.625
13:28:06.444,3.8125,5.375
13:28:06.444,5.5313,8
13:28:06.447,6.6563,10.375
13:28:06.454,7.1563,12.5
13:28:06.494,7.0313,14.1251
13:28:06.495,7.5,14.7501
13:28:06.498,6.3125,16.1251
13:28:06.501,6.375,15.4376
13:28:06.516,5.7813,15.4376
13:28:06.517,5.3125,15.5626
13:28:06.529,5.4375,15.0001
13:28:06.538,4.4375,15.3751
13:28:06.548,3.5,13.8751
13:28:06.557,2.4063,13.4376
13:28:06.568,1.5938,13.0625
13:28:06.578,-0.7188,11.875
13:28:06.588,-6.625,8.1875
13:28:06.598,-13.8438,5.5625
13:28:06.607,-20.1876,2.125
13:28:06.618,-23.2813,-0.625
13:28:06.628,-27.2501,-1.9375
13:28:06.637,-30.6876,-4.5
13:28:06.648,-32.2814,-6
13:28:06.657,-33.3751,-6.625
13:28:06.668,-33.2814,-7.625
13:28:06.678,-33.8126,-7.8125
13:28:06.687,-34.1251,-5.875
13:28:06.697,-33.0001,-6.1875
13:28:06.707,-32.4064,-5.9375
13:28:06.718,-30.6564,-4.1875
13:28:06.728,-29.0939,-4.0625
13:28:06.737,-28.3439,-4.25
13:28:06.754,-27.8439,-2.8125
13:28:06.770,-26.0626,-4.25
13:28:06.773,-24.7501,-3.9375
13:28:06.777,-22.9376,-3.3125
13:28:06.789,-21.5313,-2.9375
13:28:06.798,-21.9063,-2.9375
13:28:06.807,-20.3751,-3.125
13:28:06.818,-20.4688,-3.5
13:28:06.828,-20.6563,-3.875
13:28:06.838,-19.3438,-4.8125
13:28:06.848,-19.5626,-4
13:28:06.858,-19.3126,-6.1875
13:28:06.868,-20.3751,-6.75
13:28:06.878,-21.1251,-7.3125
13:28:06.891,-22.0626,-8.9375
13:28:06.897,-22.0313,-8.9375
13:28:06.908,-22.9376,-10.1875
13:28:06.918,-23.7813,-10.9375
13:28:06.928,-23.7188,-11.8125
13:28:06.937,-24.7501,-12.125
13:28:06.947,-24.5938,-13.5001
13:28:06.958,-25.9688,-15.1251
13:28:06.968,-26.9689,-15.2501
13:28:06.977,-27.6251,-17.3126
13:28:06.987,-28.5939,-18.1876
13:28:06.998,-28.6564,-18.8751
13:28:07.008,-28.5626,-20.1251
13:28:07.018,-28.3751,-19.2501
13:28:07.028,-28.0626,-20.1876
13:28:07.038,-27.7501,-20.0626
13:28:07.048,-27.9064,-21.3126
13:28:07.058,-28.9064,-21.5001
13:28:07.068,-29.2501,-21.9376
13:28:07.099,-28.9064,-23.0626
13:28:07.102,-29.1876,-21.9376
13:28:07.104,-28.4376,-23.3751
13:28:07.109,-27.9376,-23.0626
13:28:07.182,-27.4376,-23.3751
13:28:07.183,-26.7814,-24.1876
13:28:07.185,-26.2814,-23.6876
13:28:07.193,-26.3751,-24.6876
13:28:07.193,-26.4064,-24.1251
13:28:07.193,-26.7501,-24.5001
13:28:07.205,-27.2189,-24.8126
13:28:07.230,-27.7189,-24.8126
13:28:07.233,-28.7501,-24.4376
13:28:07.237,-29.5001,-25.1251
13:28:07.239,-30.1564,-25.7501
13:28:07.254,-30.4376,-24.1251
13:28:07.258,-29.5314,-23.6876
13:28:07.271,-29.1564,-21.7501
13:28:07.278,-26.6564,-17.6251
13:28:07.288,-25.5938,-15.5626
13:28:07.298,-23.0001,-11.25
13:28:07.308,-20.1876,-8.3125
13:28:07.318,-17.9376,-4.9375
13:28:07.328,-15.6251,-2
13:28:07.338,-12.9688,0.0625
13:28:07.348,-10.125,2
13:28:07.358,-4.4688,6.75
13:28:07.368,-2.4688,7.6875
13:28:07.378,-1.4063,8.8125
13:28:07.388,-0.25,9.25
13:28:07.398,0,9.25
13:28:07.407,-1.375,9.8125
13:28:07.418,-3.875,8.25
13:28:07.428,-7.3438,7.625
13:28:07.437,-10.0313,6.5
13:28:07.449,-11.75,4.1875
13:28:07.458,-13.0625,4.125
13:28:07.468,-14.3126,2.125
13:28:07.478,-14.7501,0.5625
13:28:07.488,-15.6563,-0.4375
13:28:07.498,-16.0626,-0.875
13:28:07.508,-15.5938,-2.625
13:28:07.519,-15.9376,-2.5625
13:28:07.528,-15.8751,-2.3125
13:28:07.538,-15.8126,-3.9375
13:28:07.548,-16.5313,-3.75
13:28:07.558,-16.2813,-3.8125
13:28:07.568,-16.1876,-4.9375
13:28:07.578,-16.3751,-4.6875
13:28:07.588,-16.0001,-4
13:28:07.598,-15.5626,-4.4375
13:28:07.608,-14.9688,-4.8125
13:28:07.618,-15.4063,-5
13:28:07.627,-14.6563,-5.0625
13:28:07.638,-15.3751,-6.0625
13:28:07.651,-15.9688,-5.875
13:28:07.679,-15.7813,-6.9375
13:28:07.682,-16.8751,-6.25
13:28:07.682,-17.2501,-7.875
13:28:07.690,-17.8438,-8.0625
13:28:07.699,-18.0313,-8.9375
13:28:07.708,-19.1251,-9.9375
13:28:07.718,-19.9376,-9.5
13:28:07.728,-20.6876,-11.1875
13:28:07.737,-20.6563,-10.8125
13:28:07.748,-21.0313,-11.8125
13:28:07.758,-20.9063,-11.875
13:28:07.767,-21.5001,-12.4375
13:28:07.777,-22.5626,-12.4375
13:28:07.788,-22.6563,-13.5001
13:28:07.822,-23.2501,-14.9376
13:28:07.824,-23.9063,-15.3126
13:28:07.826,-23.6876,-15.9376
13:28:07.829,-22.1251,-16.1251
13:28:07.864,-21.4376,-15.5626
13:28:07.867,-18.6876,-15.6876
13:28:07.868,-16.2501,-15.7501
13:28:07.870,-14.0313,-14.6876
13:28:07.901,-11.875,-15.1876
13:28:07.904,-10.4375,-13.5626
13:28:07.907,-8.1875,-13.7501
13:28:07.911,-7.5,-12.75
13:28:07.923,-6.5938,-13.2501
13:28:07.928,-6.1875,-13.3126
13:28:07.957,-6.375,-12.3125
13:28:07.959,-6.8125,-13.6251
13:28:07.961,-7.6563,-13.5001
13:28:07.968,-8.8438,-13.9376
13:28:07.978,-10.6563,-14.5001
13:28:07.988,-11.3438,-15.1876
13:28:07.997,-12.4688,-15.8751
13:28:08.008,-13.5313,-15.5001
13:28:08.018,-14.0313,-17.0001
13:28:08.027,-14.5938,-16.2501
13:28:08.051,-15.1563,-16.8126
13:28:08.054,-15.3751,-16.5001
13:28:08.068,-15.4688,-16.3126
13:28:08.073,-15.2813,-16.7501
13:28:08.079,-14.2188,-15.2501
13:28:08.088,-13.3751,-13.5001
13:28:08.098,-13.3438,-12.3125
13:28:08.108,-13.8126,-10.125
13:28:08.119,-12.2813,-6.875
13:28:08.128,-10.9063,-5.4375
13:28:08.138,-9.5313,-2.125
13:28:08.148,-8.125,-0.875
13:28:08.159,-6.625,2.5625
13:28:08.168,-5.2188,3.0625
13:28:08.177,-3.375,5.5
13:28:08.188,-1.3125,7.625
13:28:08.198,1.2188,7.625
13:28:08.208,2.5938,10.25
13:28:08.218,4.0625,9.875
13:28:08.228,5.7188,10.1875
13:28:08.238,6.3438,11.75
13:28:08.248,6.8125,11.0625
13:28:08.257,7.9688,12
13:28:08.268,8.125,11.6875
13:28:08.278,8,12.1875
13:28:08.288,5.5,11.125
13:28:08.298,2.4375,9.875
13:28:08.308,1.1875,8.5625
13:28:08.318,0.75,7.625
13:28:08.329,0,6.6875
13:28:08.338,-0.0625,7.1875
13:28:08.348,1.625,6.625
13:28:08.358,2.2188,6.1875
13:28:08.368,2.4375,6.6875
13:28:08.377,2.5313,6.5
13:28:08.388,2.4375,7.375
13:28:08.399,2.75,6.6875
13:28:08.410,2.4375,5.8125
13:28:08.417,2.4688,6.5
13:28:08.428,2.375,6.25
13:28:08.438,2.7188,6.3125
13:28:08.454,2.9375,6.125
13:28:08.469,2.7813,5.5625
13:28:08.471,2.1563,6.6875
13:28:08.480,3.0938,6.375
13:28:08.488,3.0938,5.75
13:28:08.498,2.8125,4.8125
13:28:08.508,1.8438,5.5
13:28:08.520,1.875,4.875
13:28:08.554,1.1875,3.9375
13:28:08.557,0.4063,3.1875
13:28:08.559,-0.5938,2.625
13:28:08.561,-1.9688,2.25
13:28:08.568,-2.3125,0.6875
13:28:08.598,-4.125,-1.0625
13:28:08.602,-5.4375,-0.875
13:28:08.603,-5.9063,-2.875
13:28:08.634,-5.4688,-3.25
13:28:08.636,-5.5,-4.75
13:28:08.639,-5.2188,-4.25
13:28:08.644,-4.0938,-4.25
13:28:08.659,-1.9063,-5
13:28:08.661,0.4688,-5.1875
13:28:08.695,2.5313,-4.5625
13:28:08.697,4.9063,-3.0625
13:28:08.700,7.5,-2.75
13:28:08.706,8.7188,-3.25
13:28:08.708,8.875,-3.1875
13:28:08.718,9.0625,-2.4375
13:28:08.728,9.0313,-3
13:28:08.738,8.0625,-3.125
13:28:08.748,6.5,-3.5625
13:28:08.758,4.1563,-4
13:28:08.767,2.7188,-4.4375
13:28:08.776,1.3125,-5.25
13:28:08.788,-0.0313,-6.6875
13:28:08.798,-1.125,-7.5625
13:28:08.808,-1.8438,-6.875
13:28:08.818,-2.3125,-8.8125
13:28:08.828,-3.3438,-7.4375
13:28:08.838,-4.6875,-8.4375
13:28:08.847,-6.125,-9.75
13:28:08.857,-7.7813,-10.1875
13:28:08.867,-7.5625,-9.75
13:28:08.878,-8.8125,-10.6875
13:28:08.888,-9.2813,-9.875
13:28:08.897,-9.0938,-9.875
13:28:08.907,-9,-9.6875
13:28:08.917,-7.625,-7.125
13:28:08.928,-4.7188,-5.4375
13:28:08.959,-2.7188,-2.0625
13:28:08.962,0.6875,2.25
13:28:08.964,4.5938,5.3125
13:28:08.971,6.7188,9.375
13:28:08.978,9.3438,12.9375
13:28:08.988,10.3125,13.9376
13:28:08.998,12.2188,16.4376
13:28:09.008,12.7188,17.2501
13:28:09.018,14.4376,18.4376
13:28:09.028,15.1251,18.5001
13:28:09.038,15.1251,20.1251
13:28:09.048,11.75,18.5001
13:28:09.057,8.5625,17.8751
13:28:09.068,7.5938,17.1876
13:28:09.078,5.8438,17.2501
13:28:09.088,5.9063,17.0001
13:28:09.098,6.0625,16.3126
13:28:09.108,6.2188,16.8751
13:28:09.118,7.7813,16.3126
13:28:09.128,8.25,15.5626
13:28:09.138,8.6875,15.7501
13:28:09.151,8.7813,16.2501
13:28:09.158,8.1563,15.1876
13:28:09.168,7.8125,13.8751
13:28:09.178,6.8438,12.9375
13:28:09.188,5.8438,12
13:28:09.198,4.8125,11.9375
13:28:09.207,5,11.4375
13:28:09.218,4.0625,9.9375
13:28:09.228,3.7188,9.3125
13:28:09.238,3.4375,10.6875
13:28:09.249,3.25,10.6875
13:28:09.259,3.75,9.5
13:28:09.276,3.4688,8.5625
13:28:09.277,3.125,9.0625
13:28:09.315,2.375,8.875
13:28:09.315,2.3125,8.0625
13:28:09.318,1.25,6.875
13:28:09.320,-0.2188,6.1875
13:28:09.359,-0.2813,5.3125
13:28:09.360,-1.6563,3.75
13:28:09.391,-2.8125,2.1875
13:28:09.444,-2.9375,3
13:28:09.446,-1.7188,2.5625
13:28:09.446,-1.0313,1.8125
13:28:09.448,-0.5,0.875
13:28:09.450,0.9375,1.1875
13:28:09.455,2.5313,0.875
13:28:09.455,4.4063,1
13:28:09.455,6.0625,0.5
13:28:09.462,8.6875,0.5
13:28:09.473,10.7188,2.3125
13:28:09.482,12.625,2.5
13:28:09.493,13.5001,2.1875
13:28:09.503,13.3751,2.75
13:28:09.513,11.4688,1.5625
13:28:09.529,8.9375,0.4375
13:28:09.533,6.125,0.0625
13:28:09.542,3.9063,-0.6875
13:28:09.553,1.6563,-2.3125
13:28:09.563,0.4063,-3.8125
13:28:09.572,-3.2188,-5.4375
13:28:09.583,-4.1563,-6.5625
13:28:09.592,-5.25,-7.375
13:28:09.602,-6.1563,-7.8125
13:28:09.613,-7,-8.4375
13:28:09.623,-9.6563,-9.3125
13:28:09.633,-10.7188,-9.6875
13:28:09.643,-11.8125,-10.5
13:28:09.653,-12.4063,-11.125
13:28:09.662,-12.7813,-11
13:28:09.673,-12.1875,-11.125
13:28:09.683,-11.6875,-10.875
13:28:09.692,-10.7188,-10.0625
13:28:09.703,-9.1875,-8.875
13:28:09.712,-7.6563,-9.25
13:28:09.722,-6.3438,-7.9375
13:28:09.733,-3.75,-6.5625
13:28:09.745,-3.125,-5.6875
13:28:09.762,-0.5938,-3.9375
13:28:09.764,1.2188,-0.375
13:28:09.779,3.3125,2.6875
13:28:09.794,5.625,5
13:28:09.796,7.3438,8.75
13:28:09.805,9.5938,10.4375
13:28:09.813,6.9063,12.375
13:28:09.822,5.2188,12.3125
13:28:09.833,3.9063,12.5
13:28:09.843,4.0938,13.4376
13:28:09.853,5.125,13.2501
13:28:09.862,6.0625,14.6251
13:28:09.872,6.9375,14.9376
13:28:09.882,7.3438,15.9376
13:28:09.893,8.125,16.1251
13:28:09.904,9.25,16.0626
13:28:09.913,8.75,15.7501
13:28:09.922,8.7813,17.1876
13:28:09.933,8.5313,16.4376
13:28:09.969,8.5313,16.6876
13:28:09.972,7.8125,16.0001
13:28:09.973,7.1563,16.3751
13:28:09.975,7.25,15.8126
13:28:10.012,6.2188,14.7501
13:28:10.014,6.0938,14.5001
13:28:10.015,6.0938,14.5626
13:28:10.018,5.5938,13.6251
13:28:10.022,5.375,12.75
13:28:10.032,5.2188,13.5001
13:28:10.067,4.4688,12.5625
13:28:10.069,3.8125,10.875
13:28:10.072,3.0313,10.75
13:28:10.079,3.3438,10.375
13:28:10.106,2.3438,9.4375
13:28:10.108,1.8438,9.6875
13:28:10.111,1.3125,9.0625
13:28:10.116,0.6563,8.1875
13:28:10.127,-0.1563,6.625
13:28:10.132,-0.3438,6.9375
13:28:10.143,0.4063,5.625
13:28:10.154,1.2188,4.875
13:28:10.163,1.875,4.3125
13:28:10.172,3.875,5
13:28:10.182,6.125,4.375
13:28:10.193,7.5,4.0625
13:28:10.202,9.5,4.9375
13:28:10.213,9.75,3.75
13:28:10.238,9.4688,3.125
13:28:10.243,7.25,2.6875
13:28:10.243,5.2813,1.625
13:28:10.253,3.4375,0.375
13:28:10.263,1.0313,-1
13:28:10.279,-0.5313,-1.6875
13:28:10.282,-1.5625,-2.1875
13:28:10.293,-2.375,-3
13:28:10.303,-3.6875,-4
13:28:10.312,-4.8125,-4.0625
13:28:10.323,-4.6875,-4.75
13:28:10.332,-6.0938,-5.8125
13:28:10.342,-6.3125,-5.6875
13:28:10.354,-7.0313,-6.875
13:28:10.363,-8.1875,-7.4375
13:28:10.372,-9,-7.375
13:28:10.383,-8.4375,-6.875
13:28:10.393,-7.4688,-7.625
13:28:10.402,-7.5,-7.6875
13:28:10.413,-6.5313,-6.125
13:28:10.422,-4.5938,-5.8125
13:28:10.432,-3.2188,-5.8125
13:28:10.443,-1.5938,-4.625
13:28:10.453,0.5313,-4.4375
13:28:10.463,2.9375,-3.5625
13:28:10.473,4.4063,-2.625
13:28:10.483,4.5,-2.75
13:28:10.493,5.8125,-2.875
13:28:10.503,6.0938,-2.6875
13:28:10.513,7.1563,-2.6875
13:28:10.522,7.125,-2.625
13:28:10.558,7.75,-2.375
13:28:10.561,7.5313,-2.125
13:28:10.563,7.6875,-1.6875
13:28:10.568,7.4063,-1.5625
13:28:10.578,8.0938,-1.4375
13:28:10.588,7.5313,-1.0625
13:28:10.598,7.5,-0.8125
13:28:10.608,7.125,0.375
13:28:10.617,7.4375,1.9375
13:28:10.629,7.0313,3.75
13:28:10.664,7.25,6.375
13:28:10.665,7.7188,7.625
13:28:10.668,7.6875,9.375
13:28:10.670,7.6875,11.75
13:28:10.741,8.0625,12.5625
13:28:10.745,7.8438,13.0625
13:28:10.811,8.3438,14.8126
13:28:10.814,7.9688,14.5001
13:28:10.819,6.8125,16.2501
13:28:10.823,6.7813,15.8751
13:28:10.823,6.4688,15.2501
13:28:10.827,5.8438,15.8751
13:28:10.839,6.0313,15.0626
13:28:10.848,4.9063,15.1876
13:28:10.858,4.9688,15.3751
13:28:10.866,4.5938,15.8751
13:28:10.877,4.5625,16.1251
13:28:10.887,4.8438,15.0626
13:28:10.896,4.8438,14.1876
13:28:10.906,4.875,13.6876
13:28:10.918,4.3125,14.8126
13:28:10.927,4.5,13.3751
13:28:10.936,4.1875,12.4375
13:28:10.948,2.9688,10.75
13:28:10.957,2.2188,10.3125
13:28:10.967,1.7188,9.6875
13:28:10.978,0.3125,8.5
13:28:10.988,1.9688,7.375
13:28:10.997,2,7.375
13:28:11.007,0.6875,6.1875
13:28:11.017,-1.0625,6.5625
13:28:11.028,-1.4688,4.875
13:28:11.037,-3.25,3.625
13:28:11.048,-4.4375,3.5
13:28:11.057,-4.7813,3
13:28:11.070,-5.5625,1.8125
13:28:11.087,-6.8438,0.4375
13:28:11.090,-7.8125,0.625
13:28:11.105,-7.625,-0.4375
13:28:11.120,-8.4063,-1.3125
13:28:11.123,-9.125,-0.625
13:28:11.138,-8.5313,-1.1875
13:28:11.140,-8.7188,-1.9375
13:28:11.148,-8.9063,-2.5625
13:28:11.158,-8.5,-2.375
13:28:11.168,-7.7813,-1.6875
13:28:11.178,-6.1563,-1.625
13:28:11.188,-5.5625,-1.875
13:28:11.197,-4.5,-0.625
13:28:11.208,-3.1875,-1.8125
13:28:11.217,-1.5625,-1.875
13:28:11.226,-0.0313,0.5
13:28:11.237,1.2813,0.5
13:28:11.248,2.9063,1.125
13:28:11.256,3.1563,1.125
13:28:11.267,4.3438,1.3125
13:28:11.278,4.5,0.875
13:28:11.288,4.5,1.125
13:28:11.299,4.8438,0.75
13:28:11.308,3.625,0.125
13:28:11.317,3.9688,-0.0625
13:28:11.329,3.3438,-0.5625
13:28:11.337,2.2813,-0.6875
13:28:11.348,0.8438,-1.8125
13:28:11.357,-0.125,-1.5625
13:28:11.367,0,-2.0625
13:28:11.377,-0.1563,-0.125
13:28:11.387,1.25,0.6875
13:28:11.398,2.5625,3.4375
13:28:11.408,4.1563,6.5
13:28:11.416,6.1563,8.9375
13:28:11.448,7.0938,11
13:28:11.450,8.0313,13.6251
13:28:11.453,9.125,15.4376
13:28:11.458,9.125,16.1876
13:28:11.487,8.5625,16.8751
13:28:11.489,8.75,18.4376
13:28:11.492,9.0313,19.1251
13:28:11.518,8.8438,18.8126
13:28:11.519,8.5313,19.5001
13:28:11.521,8.75,20.0001
13:28:11.528,8.5625,20.1251
13:28:11.563,9.4063,20.3126
13:28:11.567,8.5313,19.6251
13:28:11.568,8.375,19.8126
13:28:11.570,8.5938,20.8751
13:28:11.602,8.9688,19.5001
13:28:11.605,7.8125,19.0626
13:28:11.606,7.6563,18.9376
13:28:11.618,7.625,18.4376
13:28:11.621,6.875,16.8751
13:28:11.628,6.2813,16.5626
13:28:11.638,5.2813,16.0626
13:28:11.648,4.6563,15.0626
13:28:11.657,3.4063,13.3126
13:28:11.666,2.6875,11.875
13:28:11.677,1.9688,12.5625
13:28:11.688,2.25,11.75
13:28:11.696,3.3125,11
13:28:11.707,3.3438,10.25
13:28:11.718,4,9.8125
13:28:11.728,5.375,10.9375
13:28:11.737,7.0313,10.875
13:28:11.748,6.8125,10.5
13:28:11.756,6.1563,11.0625
13:28:11.766,4.1563,10.0625
13:28:11.777,3.0625,8.5625
13:28:11.788,1.8438,7.9375
13:28:11.798,0.0313,7
13:28:11.806,-1.5,6.4375
13:28:11.817,-1.8438,5.9375
13:28:11.828,-2.9688,4.1875
13:28:11.838,-5.3125,2.8125
13:28:11.846,-6.375,2.9375
13:28:11.858,-7.4063,1.625
13:28:11.868,-8.2188,0.875
13:28:11.876,-8.4063,0
13:28:11.888,-8.7813,-0.9375
13:28:11.898,-8.8438,-1
13:28:11.906,-8.2813,-0.4375
13:28:11.917,-6.8438,-1.5625
13:28:11.928,-7,-1.5625
13:28:11.938,-5.8438,-1.1875
13:28:11.947,-4.4688,-0.875
13:28:11.958,-2.5938,0
13:28:11.967,-0.7813,-0.125
13:28:11.978,0.0313,-0.25
13:28:11.992,1.25,0.6875
13:28:11.998,2.7813,0.5
13:28:12.006,3.4688,0.5
13:28:12.018,4.5,1
13:28:12.028,5.3125,1.75
13:28:12.038,6.5625,0.625
13:28:12.056,5.5625,0.9375
13:28:12.062,5.5313,0.75
13:28:12.078,5.25,0.1875
13:28:12.080,4.625,0.875
13:28:12.090,4.5,-0.125
13:28:12.097,4.125,0.1875
13:28:12.110,3.5313,-1.4375
13:28:12.142,2.6875,-0.625
13:28:12.144,2.6875,-1.3125
13:28:12.146,1.4375,-2.625
13:28:12.149,0.2188,-2
13:28:12.183,-0.3125,-3.25
13:28:12.186,-1,-3.9375
13:28:12.188,-2.3125,-4.375
13:28:12.215,-3.2188,-4.1875
13:28:12.216,-3.8438,-2.9375
13:28:12.217,-3.8125,-2.625
13:28:12.224,-3.6563,-0.25
13:28:12.235,-3.25,2.5625
13:28:12.237,-3.0313,6.0625
13:28:12.275,-2.4063,9.3125
13:28:12.278,-2.1563,10.6875
13:28:12.279,-2.7188,11.8125
13:28:12.288,-3.3438,14.3751
13:28:12.291,-2.9375,14.8751
13:28:12.298,-2.4375,14.9376
13:28:12.308,-2.9375,15.1251
13:28:12.317,-2.75,15.8751
13:28:12.327,-3.25,15.2501
13:28:12.336,-3.0313,14.6876
13:28:12.347,-3.5625,14.8126
13:28:12.356,-3.375,14.0626
13:28:12.369,-4.1563,13.4376
13:28:12.376,-3.8438,14.6251
13:28:12.386,-3.6875,13.6876
13:28:12.406,-3.0625,12.875
13:28:12.409,-5.5625,12.8125
13:28:12.424,-6.8125,11.6875
13:28:12.439,-8.5938,10.8125
13:28:12.441,-11.6563,9.4375
13:28:12.450,-13.8126,6.875
13:28:12.457,-15.9376,5.375
13:28:12.468,-17.1876,3.625
13:28:12.477,-18.7501,1.625
13:28:12.487,-19.6251,1.4375
13:28:12.496,-20.4376,0.5625
13:28:12.508,-20.4688,-0.25
13:28:12.516,-20.3751,-0.5
13:28:12.526,-20.8438,-0.8125
13:28:12.537,-19.8438,-1.0625
13:28:12.546,-20.2188,-2.25
13:28:12.557,-20.8751,-3.5625
13:28:12.566,-21.5938,-4.1875
13:28:12.578,3.75,6.25
13:28:12.587,32.5314,15.6876
13:28:12.596,22.9376,11.4375
13:28:12.607,29.9376,12.875
13:28:12.617,31.9689,13.2501
13:28:12.626,37.4064,16.0001
13:28:12.638,43.7502,18.5001
13:28:12.647,56.594,23.8751
13:28:12.657,58.1252,26.8126
13:28:12.668,59.3752,28.9376
13:28:12.676,62.3752,32.0001
13:28:12.687,64.4377,33.9376
13:28:12.698,67.1565,35.8751
13:28:12.708,68.6253,36.5001
13:28:12.716,68.1565,37.6251
13:28:12.726,68.344,36.5001
13:28:12.741,67.0315,36.6876
13:28:12.746,67.6253,36.4376
13:28:12.757,67.969,35.9376
13:28:12.766,67.594,37.0001
13:28:12.798,67.9065,37.6876
13:28:12.800,68.344,37.1876
13:28:12.803,69.2815,38.1251
13:28:12.808,70.1253,39.0626
13:28:12.818,70.5315,38.5001
13:28:12.827,71.2503,40.0002
13:28:12.858,71.844,39.5002
13:28:12.865,70.9065,38.5626
13:28:12.865,70.9065,39.4377
13:28:12.868,71.1565,38.0626
13:28:12.903,70.6253,37.1251
13:28:12.905,70.3128,36.9376
13:28:12.908,70.9065,36.4376
13:28:12.913,70.719,35.6876
13:28:12.945,70.0003,35.6876
13:28:12.950,69.594,35.2501
13:28:12.952,69.0315,34.8126
13:28:12.961,69.4378,34.1876
13:28:12.961,69.1878,33.0626
13:28:12.970,68.0003,32.4376
13:28:12.976,67.9065,32.5001
13:28:13.017,68.5628,31.3126
13:28:13.018,68.3753,30.6251
13:28:13.021,68.219,31.1251
13:28:13.026,68.0003,31.2501
13:28:13.028,68.7503,30.3126
13:28:13.037,68.7503,31.7501
13:28:13.046,69.1565,33.6251
13:28:13.056,70.7503,34.5626
13:28:13.066,71.4378,36.6876
13:28:13.076,71.844,39.8127
13:28:13.088,73.3128,41.5002
13:28:13.097,73.4065,42.3752
13:28:13.106,73.1565,42.9377
13:28:13.117,72.1565,42.8752
13:28:13.126,71.5003,44.4377
13:28:13.136,71.469,43.8127
13:28:13.146,69.6253,42.7502
13:28:13.156,68.594,43.0627
13:28:13.167,67.719,43.2502
13:28:13.176,67.219,42.8752
13:28:13.186,65.844,41.5002
13:28:13.198,64.844,40.8127
13:28:13.206,64.094,40.7502
13:28:13.216,63.219,39.6877
13:28:13.226,61.6252,38.6876
13:28:13.238,60.344,38.3126
13:28:13.247,59.3127,37.5001
13:28:13.256,58.0627,35.3751
13:28:13.267,56.5002,34.2501
13:28:13.277,55.1565,33.6876
13:28:13.286,54.3127,32.2501
13:28:13.298,53.1252,30.6876
13:28:13.306,52.1252,30.8126
13:28:13.316,52.0314,29.5001
13:28:13.327,50.5939,29.0001
13:28:13.336,49.5939,28.0001
13:28:13.346,48.1564,26.1876
13:28:13.365,46.6252,26.5001
13:28:13.371,46.1252,25.0001
13:28:13.380,44.8127,23.3751
13:28:13.386,43.4689,23.5626
13:28:13.402,42.2189,23.1251
13:28:13.409,42.1564,21.5001
13:28:13.417,40.3127,21.8126
13:28:13.427,39.5314,20.3751
13:28:13.436,39.0939,19.0001
13:28:13.446,37.5001,18.3126
13:28:13.456,36.6251,18.4376
13:28:13.467,36.5314,16.5626
13:28:13.476,35.0626,15.8751
13:28:13.493,34.5314,15.7501
13:28:13.498,34.6564,14.6876
13:28:13.507,33.4376,14.0001
13:28:13.516,32.0314,13.8751
13:28:13.526,32.0001,13.1876
13:28:13.536,29.9376,11.375
13:28:13.546,28.9064,10.625
13:28:13.556,28.1251,10.1875
13:28:13.567,27.2814,9.125
13:28:13.576,27.4689,8.6875
13:28:13.606,26.3751,7.375
13:28:13.610,25.1876,7.0625
13:28:13.614,24.4688,6.8125
13:28:13.617,23.6251,5.75
13:28:13.645,23.3751,6.25
13:28:13.648,23.2813,5
13:28:13.651,22.2813,4.75
13:28:13.685,21.5001,4.625
13:28:13.688,21.7501,3.125
13:28:13.690,21.3126,2.5
13:28:13.699,20.7188,2.5625
13:28:13.699,20.2188,2.125
13:28:13.728,19.6251,1.375
13:28:13.763,19.0626,1.875
13:28:13.778,18.7813,1.1875
13:28:13.782,17.9688,-0.125
13:28:13.782,17.7501,-0.25
13:28:13.784,17.0001,0.8125
13:28:13.784,17.4688,-0.125
13:28:13.788,16.9063,-1.25
13:28:13.796,16.4688,-0.875
13:28:13.806,15.7813,-0.625
13:28:13.817,16.3126,-2.375
13:28:13.827,15.5313,-3.0625
13:28:13.837,14.4688,-3.4375
13:28:13.846,14.3751,-3.4375
13:28:13.856,14.4063,-2.625
13:28:13.867,14.0001,-2.8125
13:28:13.876,14.8438,-3
13:28:13.886,14.7813,-2
13:28:13.896,15.5001,-0.375
13:28:13.908,16.5001,2.875
13:28:13.916,17.5313,6.0625
13:28:13.927,19.0938,8.9375
13:28:13.936,19.7813,11.0625
13:28:13.946,20.8751,16.1251
13:28:13.958,22.4063,16.1876
13:28:13.966,22.6563,18.7501
13:28:13.977,22.7813,19.0001
13:28:13.986,22.7501,18.6876
13:28:13.996,22.2813,19.6251
13:28:14.007,22.0626,18.8751
13:28:14.017,21.9063,19.6876
13:28:14.028,21.1251,18.6251
13:28:14.036,20.2188,19.0001
13:28:14.046,20.8126,18.8126
13:28:14.079,19.9063,18.0626
13:28:14.081,19.4063,18.7501
13:28:14.083,19.1876,18.3126
13:28:14.090,18.9376,17.5001
13:28:14.098,17.5626,15.8751
13:28:14.106,17.0001,16.3751
13:28:14.116,16.3438,14.6876
13:28:14.126,15.7188,13.5001
13:28:14.136,14.9063,13
13:28:14.146,14.6251,12.8125
13:28:14.156,14.3751,11.6875
13:28:14.166,13.2501,11.1875
13:28:14.176,12.8438,11.375
13:28:14.186,12.4688,9.5625
13:28:14.196,11.9063,9.3125
13:28:14.206,11.1875,9.5
13:28:14.216,10.9063,8.0625
13:28:14.227,10.2188,7.125
13:28:14.242,9.5938,7.375
13:28:14.249,8.625,7.625
13:28:14.257,8.2188,5.75
13:28:14.266,7.5,5
13:28:14.276,7.0938,4.375
13:28:14.286,6.5313,4
13:28:14.297,5.9375,2.625
13:28:14.308,5.625,2.1875
13:28:14.318,5.1875,2.3125
13:28:14.326,4.9375,0.875
13:28:14.336,4.5,1
13:28:14.346,4.5938,-0.0625
13:28:14.375,3.3125,-1.125
13:28:14.378,2.7188,-0.4375
13:28:14.380,2.9063,-2.0625
13:28:14.386,2,-2.875
13:28:14.415,1.9375,-3.0625
13:28:14.418,1.375,-4.1875
13:28:14.419,1.3438,-5
13:28:14.451,0.8438,-4.5
13:28:14.454,0.8125,-5.1875
13:28:14.456,0.0938,-6.625
13:28:14.461,-0.4375,-6.9375
13:28:14.500,-0.75,-6.5625
13:28:14.501,-1.1563,-7.625
13:28:14.503,-1.9375,-8.6875
13:28:14.505,-2.2188,-8.0625
13:28:14.508,-2.0625,-9.5625
13:28:14.533,-3.0625,-10.1875
13:28:14.536,-3.4375,-9.375
13:28:14.538,-3.0938,-10.875
13:28:14.547,-3.75,-11.8125
13:28:14.557,-3.5625,-11.5
13:28:14.566,-3.75,-11.9375
13:28:14.576,-4.3125,-12.125
13:28:14.586,-4.1563,-12.0625
13:28:14.596,-4.0938,-12.6875
13:28:14.606,-4.7813,-13
13:28:14.623,-4.375,-13.4376
13:28:14.631,-4.9375,-13.6876
13:28:14.641,-4.9063,-13.1876
13:28:14.651,-5.0625,-14.6251
13:28:14.662,-5.25,-14.5626
13:28:14.671,-5.0313,-14.0626
13:28:14.681,-5.6563,-14.6876
13:28:14.701,-5.2188,-14.8126
13:28:14.709,-5.625,-15.5626
13:28:14.723,-6.0625,-14.5626
13:28:14.726,-6.375,-15.6251
13:28:14.739,-6.3438,-15.0626
13:28:14.742,-6.1875,-16.1251
13:28:14.756,-6.2813,-15.9376
13:28:14.761,-6.6875,-15.7501
13:28:14.773,-5.7188,-15.0626
13:28:14.781,-5.1563,-14.5626
13:28:14.792,-4,-11.3125
13:28:14.806,-2.9063,-8.375
13:28:14.817,-0.8125,-4.9375
13:28:14.826,-0.1563,-1.5625
13:28:14.836,1.7188,0.6875
13:28:14.846,2.3125,2.75
13:28:14.856,2.5313,5.4375
13:28:14.867,2.9375,5.6875
13:28:14.876,3.4688,6.5
13:28:14.886,3.1875,7.125
13:28:14.897,3.9063,7.9375
13:28:14.906,3.9688,7.5625
13:28:14.916,3.0625,8.25
13:28:14.926,3.0625,8.25
13:28:14.936,2.6563,8.375
13:28:14.946,2.5938,7.875
13:28:14.956,1.625,8.9375
13:28:14.966,1.9375,7.8125
13:28:14.976,1.8438,7.5625
13:28:14.986,1.5938,7.5
13:28:15.000,0.8125,7.3125
13:28:15.006,0.875,6.375
13:28:15.017,0.4688,5
13:28:15.047,-0.25,5.125
13:28:15.050,0.1563,4
13:28:15.085,-0.3438,3.6875
13:28:15.122,-1.0313,2.5
13:28:15.124,-1.5625,2.625
13:28:15.127,-2.4375,2.375
13:28:15.127,-2.375,1.1875
13:28:15.127,-2.9688,0.875
13:28:15.131,-2.9063,0.9375
13:28:15.164,-2.3125,0.125
13:28:15.166,-3.1875,-0.1875
13:28:15.167,-3.4063,-0.6875
13:28:15.172,-3.4375,-0.625
13:28:15.205,-3.7813,-1.0625
13:28:15.211,-4.125,-0.875
13:28:15.213,-4.25,-1.4375
13:28:15.216,-4.0313,-2.5
13:28:15.223,-5.5,-3.4375
13:28:15.232,-5.5938,-3.5
13:28:15.241,-6.1875,-3.75
13:28:15.251,-6.4375,-4.625
13:28:15.262,-6.5313,-5.9375
13:28:15.271,-6.5625,-6.1875
13:28:15.282,-7,-7.125
13:28:15.291,-8.6875,-8.375
13:28:15.301,-9.4063,-9.75
13:28:15.311,-11.1875,-11.4375
13:28:15.321,-10.9063,-11.8125
13:28:15.332,-12.6875,-12.0625
13:28:15.358,-12.875,-13.4376
13:28:15.360,-13.7813,-14.1251
13:28:15.364,-14.0938,-14.0001
13:28:15.375,-14.3751,-15.2501
13:28:15.381,-15.0626,-15.2501
13:28:15.391,-14.7813,-15.8751
13:28:15.401,-14.6876,-15.5001
13:28:15.411,-15.1563,-15.8751
13:28:15.421,-15.2188,-16.9376
13:28:15.431,-15.1251,-16.7501
13:28:15.441,-15.4063,-17.2501
13:28:15.452,-15.2813,-16.8751
13:28:15.461,-14.8438,-16.6251
13:28:15.471,-14.5313,-17.6876
13:28:15.482,-14.6563,-16.8126
13:28:15.491,-14.0938,-17.5626
13:28:15.501,-14.6251,-16.9376
13:28:15.511,-14.4688,-17.5626
13:28:15.522,-14.0001,-17.3751
13:28:15.531,-13.6251,-17.9376
13:28:15.541,-13.8126,-17.6876
13:28:15.551,-12.9688,-17.8126
13:28:15.562,-13.8751,-17.4376
13:28:15.572,-13.3751,-18.6876
13:28:15.581,-14.5001,-17.7501
13:28:15.594,-13.4688,-18.7501
13:28:15.603,-14.4063,-18.1876
13:28:15.614,-13.0313,-18.5626
13:28:15.621,-13.4688,-17.7501
13:28:15.631,-12.6875,-18.5626
13:28:15.641,-13.0313,-17.1876
13:28:15.651,-12.1563,-18.8126
13:28:15.661,-12.125,-17.5626
13:28:15.672,-11.9063,-18.1251
13:28:15.681,-12.125,-17.0626
13:28:15.691,-11.1875,-16.2501
13:28:15.701,-11.3125,-15.1876
13:28:15.711,-10.0938,-12
13:28:15.721,-9.0938,-10.25
13:28:15.759,-7.8125,-6.25
13:28:15.760,-7,-4.4375
13:28:15.764,-6.75,-2.1875
13:28:15.798,-6.1875,-0.875
13:28:15.798,-6.9688,0.4375
13:28:15.799,-6.8438,0.8125
13:28:15.806,-6.7188,0.75
13:28:15.806,-7.0938,2.625
13:28:15.815,-6.3438,1.9375
13:28:15.821,-7,2.5
13:28:15.855,-6.4063,2.125
13:28:15.859,-6.6563,2.8125
13:28:15.862,-6.6875,2.75
13:28:15.867,-7.25,2.1875
13:28:15.875,-7.125,3.1875
13:28:15.910,-7.4063,1.6875
13:28:15.912,-7.25,2.1875
13:28:15.914,-7.0938,1.75
13:28:15.917,-7.875,1.9375
13:28:15.923,-8.1563,1.8125
13:28:15.937,-7.9063,0.25
13:28:15.941,-7.9688,0.6875
13:28:15.952,-7.4688,0.0625
13:28:15.963,-7.4063,-0.875
13:28:15.973,-8.0938,-0.875
13:28:15.982,-7.4063,-1.5
13:28:15.991,-7.7188,-2.125
13:28:16.001,-8.25,-2
13:28:16.011,-7.8125,-2.0625
13:28:16.033,-7.8125,-3.3125
13:28:16.035,-8,-3.1875
13:28:16.044,-8.0938,-2.5625
13:28:16.052,-7.5313,-3.6875
13:28:16.066,-7.9688,-3.9375
13:28:16.075,-8.625,-4.375
13:28:16.081,-7.5938,-4.75
13:28:16.092,-8.0938,-5.0625
13:28:16.102,-8.6563,-4.6875
13:28:16.111,-7.8438,-6.1875
13:28:16.122,-8.5938,-6.0625
13:28:16.132,-8.25,-6.5
13:28:16.141,-8.5938,-6.875
13:28:16.151,-8.2188,-6.4375
13:28:16.161,-7.8438,-7.625
13:28:16.171,-7.2813,-6.75
13:28:16.181,-7.3438,-8
13:28:16.192,-7.375,-7.5625
13:28:16.202,-6.9063,-8.25
13:28:16.211,-7.5313,-8.5625
13:28:16.221,-6.4688,-9
13:28:16.231,-7.4375,-9.125
13:28:16.241,-6.6563,-9.0625
13:28:16.251,-6.875,-9.25
13:28:16.262,-6.7188,-8.8125
13:28:16.271,-6.5313,-10.125
13:28:16.281,-6.4063,-9.9375
13:28:16.293,-6.625,-10.125
13:28:16.301,-6.5625,-9.5625
13:28:16.311,-6,-10.875
13:28:16.322,-6.4688,-10
13:28:16.331,-5.8438,-11
13:28:16.342,-6.3125,-10.0625
13:28:16.351,-5.4688,-10.8125
13:28:16.368,-5.625,-10.25
13:28:16.384,-5.3125,-11.25
13:28:16.390,-5.5625,-10.25
13:28:16.396,-5.4688,-11.5625
13:28:16.403,-5.7813,-12.375
13:28:16.411,-5.9375,-11.8125
13:28:16.421,-5.875,-12.9375
13:28:16.431,-5.9688,-12.0625
13:28:16.442,-5.8438,-13.0625
13:28:16.451,-5.3125,-12.3125
13:28:16.462,-5.4688,-12.6875
13:28:16.471,-5.0625,-12.5
13:28:16.481,-4.75,-12.75
13:28:16.492,-4.7188,-13
13:28:16.501,-4.5938,-12.9375
13:28:16.511,-4.5313,-12.5
13:28:16.521,-4.5625,-13.1251
13:28:16.532,-4.6563,-12.5625
13:28:16.542,-3.75,-12.875
13:28:16.563,-4.7188,-12.375
13:28:16.565,-3.5313,-12.875
13:28:16.573,-3.375,-12.3125
13:28:16.602,-4.2813,-12.9375
13:28:16.605,-4.625,-12.9375
13:28:16.606,-2.875,-12.1875
13:28:16.612,-2.5313,-10.625
13:28:16.639,-1.5,-9.25
13:28:16.642,-0.625,-6.6875
13:28:16.644,0.7813,-3.25
13:28:16.676,2.7188,-1.125
13:28:16.678,3.3438,1.5625
13:28:16.680,4.4063,3.8125
13:28:16.687,5.625,5.3125
13:28:16.696,6.5,7
13:28:16.702,6.75,6.6875
13:28:16.732,6.9375,8.5625
13:28:16.734,6.9063,7.875
13:28:16.735,6.5,8.25
13:28:16.742,7.0938,8.4375
13:28:16.752,6.6563,8.9375
13:28:16.761,6.4688,9.5625
13:28:16.772,6.5625,8.3125
13:28:16.781,5.5313,9.5625
13:28:16.791,5.8125,8.125
13:28:16.801,5.9375,7.875
13:28:16.811,5.4063,7.875
13:28:16.821,5.1563,7.375
13:28:16.831,4.9063,7
13:28:16.842,4.625,6.875
13:28:16.852,4.5625,6.5625
13:28:16.861,4.3438,6
13:28:16.872,3.8125,4.0625
13:28:16.882,3.4063,3.1875
13:28:16.891,2.5938,3.4375
13:28:16.902,2.125,2.4375
13:28:16.911,2.0938,1.875
13:28:16.921,1.7188,1.3125
13:28:16.932,1.3438,1.8125
13:28:16.942,0.9063,1.375
13:28:16.951,0.9688,-0.0625
13:28:16.961,0.5938,-0.75
13:28:16.971,0.6563,0.125
13:28:16.981,1.5,-0.1875
13:28:16.991,0.8438,-0.5
13:28:17.001,0.6563,-0.125
13:28:17.011,0.9063,-0.75
13:28:17.021,0.5938,-2.0625
13:28:17.032,0.4063,-2.625
13:28:17.041,-0.3438,-3.125
13:28:17.051,-1.3125,-3
13:28:17.061,-0.8125,-3.25
13:28:17.072,-0.9688,-4.375
13:28:17.081,-2.25,-5.25
13:28:17.091,-1.625,-4.6875
13:28:17.107,-1.625,-5.5625
13:28:17.112,-2,-6.1875
13:28:17.121,-2.5,-5.75
13:28:17.133,-1.8438,-6.8125
13:28:17.141,-2.0313,-7.375
13:28:17.151,-2.5625,-7.6875
13:28:17.161,-2.6875,-8.375
13:28:17.171,-3.5,-7.5
13:28:17.182,-2.6875,-8.1875
13:28:17.191,-3.0625,-8.9375
13:28:17.201,-3.5938,-9.3125
13:28:17.211,-3.625,-8.8125
13:28:17.221,-3.9063,-9.5625
13:28:17.252,-3.4063,-9.4375
13:28:17.254,-3.5938,-10.1875
13:28:17.256,-3.2188,-10.1875
13:28:17.262,-3.2813,-10.5625
13:28:17.294,-3.3125,-10.125
13:28:17.296,-3.5313,-10.5
13:28:17.299,-3.6563,-10.0625
13:28:17.301,-3.875,-11.25
13:28:17.338,-3.8438,-10.9375
13:28:17.339,-3.625,-11
13:28:17.346,-3.8438,-10.8125
13:28:17.405,-3.7813,-11.125
13:28:17.419,-4,-11.8125
13:28:17.421,-4.5,-11.375
13:28:17.435,-3.875,-11.125
13:28:17.438,-4.5938,-11.875
13:28:17.438,-4.4688,-11.8125
13:28:17.438,-4.5938,-12.0625
13:28:17.442,-4.5,-12.375
13:28:17.451,-4.9688,-12.875
13:28:17.461,-4.9375,-12.0625
13:28:17.471,-5.0313,-11.875
13:28:17.483,-4.9375,-10.9375
13:28:17.492,-4.2188,-9.6875
13:28:17.501,-2.6875,-8.75
13:28:17.511,-2.0313,-5.8125
13:28:17.522,-0.8438,-2.625
13:28:17.531,0.8438,-0.75
13:28:17.541,1.7188,2.3125
13:28:17.551,2.5938,3.8125
13:28:17.561,2.7813,6
13:28:17.571,3.2813,7.125
13:28:17.581,3.5313,7.125
13:28:17.591,3.9375,7.75
13:28:17.602,4.0625,8.75
13:28:17.612,3.2813,8.5
13:28:17.622,3.6875,9.5
13:28:17.631,3.75,8.5
13:28:17.641,2.9688,8.375
13:28:17.651,3.2813,8.0625
13:28:17.670,2.7813,7.3125
13:28:17.673,2.3125,7.75
13:28:17.692,2.3438,6.5625
13:28:17.694,2.125,7.3125
13:28:17.702,2.25,5.75
13:28:17.711,1.9688,4.3125
13:28:17.722,2.0625,4.0625
13:28:17.731,1.75,4.375
13:28:17.741,1.3125,3
13:28:17.751,0.8125,3.125
13:28:17.762,1.2813,2.8125
13:28:17.772,0.4375,1.6875
13:28:17.781,0.5938,1.5625
13:28:17.791,0.1875,1.8125
13:28:17.801,0.1875,1.1875
13:28:17.811,-0.0938,0.4375
13:28:17.821,-0.0625,0
13:28:17.832,-0.5625,0.9375
13:28:17.842,-0.6875,-0.3125
13:28:17.851,0.0625,-0.5625
13:28:17.866,-0.75,-1.8125
13:28:17.871,-1,-1.8125
13:28:17.882,-1.125,-1.75
13:28:17.892,-1.0313,-2.25
13:28:17.918,-1.0625,-2.625
13:28:17.921,-1.5313,-3.5
13:28:17.923,-2.0938,-3.5625
13:28:17.960,-2.375,-3.5
13:28:17.963,-2.4375,-4.0625
13:28:17.965,-2.5,-4.9375
13:28:17.968,-2.8438,-5.25
13:28:17.974,-3.0625,-5.125
13:28:17.982,-2.5625,-6.3125
13:28:18.019,-3.0625,-6.5
13:28:18.021,-2.9063,-6.1875
13:28:18.023,-3.375,-7.5625
13:28:18.027,-3.25,-7.1875
13:28:18.031,-3.125,-7.625
13:28:18.068,-3.6875,-7.75
13:28:18.071,-3.5,-8.375
13:28:18.073,-4.0938,-8.5
13:28:18.076,-3.7813,-8.875
13:28:18.083,-4.2813,-8.9375
13:28:18.112,-3.1563,-9.1875
13:28:18.116,-3.8125,-9.0625
13:28:18.117,-4.2188,-8.3125
13:28:18.124,-3.5625,-9.6875
13:28:18.133,-3.9063,-9.375
13:28:18.141,-4.2813,-9.8125
13:28:18.151,-4.2188,-10.5
13:28:18.161,-3.9063,-9.75
13:28:18.171,-4.7813,-11.375
13:28:18.182,-4.3125,-10.375
13:28:18.191,-4.625,-10.875
13:28:18.202,-4.375,-10.4375
13:28:18.212,-4.875,-11.5625
13:28:18.221,-5.1563,-11.4375
13:28:18.231,-4.5313,-11.1875
13:28:18.241,-4.875,-11
13:28:18.251,-4.9063,-11.125
13:28:18.262,-5.5,-11.5625
13:28:18.271,-5.625,-12.25
13:28:18.281,-6.1563,-12.1875
13:28:18.291,-5.625,-12.6875
13:28:18.301,-5.6875,-12
13:28:18.311,-5.8438,-12.375
13:28:18.322,-5,-11.125
13:28:18.331,-4.5625,-10.0625
13:28:18.341,-3.0938,-6.9375
13:28:18.351,-1.625,-4.875
13:28:18.361,0,-0.9375
13:28:18.372,1.5625,1.8125
13:28:18.381,2.0938,4.6875
13:28:18.391,3.125,5.75
13:28:18.401,3.75,8.625
13:28:18.412,3.5625,8.6875
13:28:18.423,3.9063,9.625
13:28:18.431,3.5938,9.1875
13:28:18.441,3.7813,10.4375
13:28:18.452,3.9688,10.0625
13:28:18.461,3.8438,10.375
13:28:18.472,3.75,10.3125
13:28:18.481,3.7188,10.3125
13:28:18.492,3.7188,10.375
13:28:18.501,3.9063,11.125
13:28:18.511,3.9688,10.5
13:28:18.521,3.3125,9.9375
13:28:18.531,3.8125,9.75
13:28:18.541,2.875,9.0625
13:28:18.551,2.125,9.6875
13:28:18.563,2.2188,8.5625
13:28:18.571,1.6875,7.125
13:28:18.581,1.4375,7.0625
13:28:18.591,1.625,6.625
13:28:18.601,0.625,5.25
13:28:18.616,0.3438,5.125
13:28:18.622,0,4.75
13:28:18.632,0.2813,3.8125
13:28:18.642,-0.3125,3.0625
13:28:18.652,-0.5625,3.1875
13:28:18.662,-0.7813,3.0625
13:28:18.671,-0.0938,2.0625
13:28:18.684,-0.9375,1.5625
13:28:18.731,-1.75,1.375
13:28:18.733,-1.3438,1.625
13:28:18.774,-1.6875,0.1875
13:28:18.776,-2.4688,0.0625
13:28:18.807,-2.3125,0
13:28:18.807,-2.6875,-0.75
13:28:18.809,-3.1875,-2.25
13:28:18.810,-3.75,-1.5
13:28:18.839,-3.1563,-2.375
13:28:18.839,-4.1875,-3.75
13:28:18.840,-4.4375,-2.5625
13:28:18.843,-4.2188,-3.875
13:28:18.849,-5,-5
13:28:18.882,-4.75,-5.375
13:28:18.883,-5.3125,-6.75
13:28:18.886,-5.4688,-6.5
13:28:18.892,-5.6563,-6.25
13:28:18.898,-5.2188,-6.25
13:28:18.906,-5.2188,-7.625
13:28:18.916,-5.5938,-8.375
13:28:18.928,-5.9688,-8.5625
13:28:18.937,-5.9375,-8.6875
13:28:18.946,-7.3125,-9.5625
13:28:18.956,-7.3125,-10.875
13:28:18.967,-7.3125,-10.5625
13:28:18.981,-7.4375,-11.1875
13:28:18.997,-7.5938,-11.6875
13:28:19.013,-7.3438,-11.625
13:28:19.016,-7.3125,-12.1875
13:28:19.018,-7.25,-11.5
13:28:19.027,-7.2813,-12.8125
13:28:19.036,-7,-12.125
13:28:19.046,-7,-12.4375
13:28:19.056,-7.3438,-12.5
13:28:19.067,-7.6563,-13.5626
13:28:19.077,-7.1875,-13.0625
13:28:19.086,-8.0313,-13.6876
13:28:19.096,-7.0313,-12.5
13:28:19.107,-7.4063,-13.5001
13:28:19.116,-7.1563,-13.4376
13:28:19.126,-6.8438,-13
13:28:19.136,-7.25,-12.875
13:28:19.147,-7.5625,-12.8125
13:28:19.157,-6.9375,-13.5001
13:28:19.167,-7.375,-12.9375
13:28:19.198,-7.125,-13.3751
13:28:19.201,-7.8125,-13.6251
13:28:19.203,-7.0313,-14.0626
13:28:19.207,-7.25,-12.4375
13:28:19.217,-6.0625,-11.75
13:28:19.227,-5.7813,-9.125
13:28:19.237,-3.6563,-7.1875
13:28:19.246,-2.3438,-3.25
13:28:19.257,-0.7813,-1.125
13:28:19.266,0.5938,2.9375
13:28:19.277,2.4063,4.9375
13:28:19.287,2.3125,6.8125
13:28:19.297,3,7.5
13:28:19.307,3,8.6875
13:28:19.317,3.375,8.5625
13:28:19.327,3.375,9.6875
13:28:19.336,3.6563,8.8125
13:28:19.347,2.8125,9.75
13:28:19.357,3.1563,9.75
13:28:19.369,3.0625,9.1875
13:28:19.379,3.6563,10.1875
13:28:19.386,3,9.5
13:28:19.396,2.875,9.6875
13:28:19.406,3.125,8.875
13:28:19.417,3.0625,9.8125
13:28:19.427,2.9375,8.1875
13:28:19.437,2.2813,9
13:28:19.446,2.9688,7.75
13:28:19.456,1.8125,7.125
13:28:19.467,1.1563,6.5625
13:28:19.477,1.4063,6.25
13:28:19.496,0.5313,4.625
13:28:19.499,-0.1563,4.8125
13:28:19.534,-0.3125,4.25
13:28:19.535,-0.1563,3
13:28:19.539,-0.8125,2
13:28:19.540,-0.0938,2
13:28:19.547,-0.2188,2.1875
13:28:19.579,-0.9688,1.6875
13:28:19.580,-1.5313,2.125
13:28:19.583,-1.25,1.3125
13:28:19.587,-1.4688,0.25
13:28:19.618,-1.8125,0.5625
13:28:19.621,-1.4688,0.8125
13:28:19.623,-2.0313,-0.125
13:28:19.626,-1.9375,-1.3125
13:28:19.656,-2.5313,-0.9375
13:28:19.658,-2.1563,-1.8125
13:28:19.660,-2.9688,-1.875
13:28:19.666,-2.8125,-3.125
13:28:19.677,-3.2813,-2.6875
13:28:19.686,-3.2813,-3.125
13:28:19.696,-2.7813,-3.8125
13:28:19.707,-3.4375,-4.0625
13:28:19.716,-3.875,-4.4375
13:28:19.726,-3.9375,-4.5
13:28:19.736,-3.875,-5.9375
13:28:19.752,-4.5313,-6.9375
13:28:19.756,-4.25,-5.875
13:28:19.767,-4.7813,-7.5625
13:28:19.776,-5.0938,-7.3125
13:28:19.786,-4.7813,-8.125
13:28:19.798,-5.0938,-8
13:28:19.806,-5.5938,-8.75
13:28:19.816,-5.8125,-8.5
13:28:19.826,-6.375,-9.4375
13:28:19.836,-6.5313,-9.375
13:28:19.846,-7.0313,-10.6875
13:28:19.856,-7.2188,-10.8125
13:28:19.867,-7.4688,-10.0625
13:28:19.876,-6.75,-11.125
13:28:19.887,-7.2188,-10.75
13:28:19.896,-6.75,-11.125
13:28:19.906,-6.8125,-11
13:28:19.917,-7.25,-11.5625
13:28:19.926,-7.0938,-12.0625
13:28:19.937,-7.7188,-12.0625
13:28:19.946,-7.4688,-12.25
13:28:19.956,-7.9375,-12.3125
13:28:19.967,-7.75,-12.8125
13:28:19.976,-7.9375,-12
13:28:19.986,-7.7813,-13.5001
13:28:19.996,-7.875,-12.4375
13:28:20.015,-7.9063,-13.9376
13:28:20.021,-7.75,-12.875
13:28:20.038,-8,-14.1251
13:28:20.040,-7.2813,-13.1876
13:28:20.047,-7.9375,-14.2501
13:28:20.057,-7.6563,-13.0625
13:28:20.066,-7.4063,-13.8126
13:28:20.077,-7.625,-13.3751
13:28:20.085,-7.1875,-13.5001
13:28:20.097,-6.8125,-11.625
13:28:20.107,-5.8438,-9.9375
13:28:20.117,-4.4688,-7.5
13:28:20.127,-2.625,-4.6875
13:28:20.137,-1.1875,-1.375
13:28:20.146,0.5313,1.4375
13:28:20.158,1.1563,3.9375
13:28:20.166,2.6563,6
13:28:20.193,2.5313,7.625
13:28:20.196,3.0313,8.9375
13:28:20.201,3.5625,8.6875
13:28:20.235,3.5,10.25
13:28:20.238,3.5313,10.3125
13:28:20.242,4.1563,10.5
13:28:20.242,3.5625,11.0625
13:28:20.249,4.0313,10.3125
13:28:20.257,3.2813,11.0625
13:28:20.300,3.3125,10.8125
13:28:20.301,3.2188,10.5625
13:28:20.303,2.9688,9.9375
13:28:20.306,2.875,9.6875
13:28:20.338,2.375,9.375
13:28:20.339,2.0313,8.875
13:28:20.342,1.5,9.1875
13:28:20.351,1.3125,7.875
13:28:20.351,1.2188,7.0625
13:28:20.359,0.25,6.5
13:28:20.366,0.6875,5.875
13:28:20.377,0.3438,4.9375
13:28:20.386,-0.5,3.8125
13:28:20.398,-1.25,3.8125
13:28:20.405,-0.9063,3.625
13:28:20.416,-1.3438,3
13:28:20.425,-1.4063,3.375
13:28:20.435,-1.3125,2.5
13:28:20.448,-1.7813,1.375
13:28:20.481,-1.9063,1.9375
13:28:20.483,-2.0313,2.125
13:28:20.486,-1.5938,0.9375
13:28:20.488,-2.5625,-0.0625
13:28:20.503,-2.6563,1.0625
13:28:20.507,-2.4375,-0.25
13:28:20.515,-2.7813,-0.9375
13:28:20.526,-3.3125,-2.125
13:28:20.536,-3.3438,-1.5625
13:28:20.547,-3.8125,-2.4375
13:28:20.555,-4.0938,-1.8125
13:28:20.565,-3.5313,-3.5
13:28:20.576,-3.9375,-2.6875
13:28:20.586,-3.4688,-3.75
13:28:20.596,-3.9375,-4.25
13:28:20.606,-3.875,-3.9375
13:28:20.620,-3.7813,-5.25
13:28:20.627,-4.75,-4
13:28:20.639,-4.4375,-5.9375
13:28:20.645,-5.0625,-6.1875
13:28:20.656,-4.8125,-6.625
13:28:20.666,-5.1875,-6.375
13:28:20.675,-5.2188,-7.4375
13:28:20.686,-5.6875,-7.5
13:28:20.697,-5.8125,-7.8125
13:28:20.705,-5.4375,-8.625
13:28:20.716,-6.2813,-8.8125
13:28:20.728,-5.7188,-8.9375
13:28:20.735,-6.4688,-9.25
13:28:20.745,-5.6563,-9.75
13:28:20.756,-6.125,-9.6875
13:28:20.765,-6.2188,-10
13:28:20.777,-6.2188,-10.5625
13:28:20.785,-5.8125,-10.375
13:28:20.795,-5.7813,-10.8125
13:28:20.806,-5.875,-10.5625
13:28:20.817,-6.4375,-10.6875
13:28:20.827,-6.2813,-11.125
13:28:20.835,-6.9375,-10.3125
13:28:20.847,-6.4063,-11.25
13:28:20.855,-6.625,-11.375
13:28:20.866,-6.0313,-11.6875
13:28:20.881,-6.5938,-11
13:28:20.886,-6.375,-11.75
13:28:20.896,-6.5313,-11.75
13:28:20.930,-5.4688,-12
13:28:20.932,-6.25,-11.5625
13:28:20.934,-5.8125,-11.8125
13:28:20.936,-6.4375,-11.9375
13:28:20.968,-6.3438,-12.4375
13:28:20.970,-6.75,-12.0625
13:28:20.973,-6.9063,-12.6875
13:28:20.978,-6.5313,-12.125
13:28:21.005,-5.5313,-10
13:28:21.008,-3.9375,-8.625
13:28:21.010,-2.8125,-4.1875
13:28:21.042,-0.7813,-1.375
13:28:21.043,0.6875,1.375
13:28:21.046,1.5938,4.1875
13:28:21.050,2.7188,6.3125
13:28:21.058,3.4063,7.625
13:28:21.085,3.9063,9
13:28:21.086,4.5,9.8125
13:28:21.089,4.7813,11.1875
13:28:21.097,5.25,11.125
13:28:21.105,5.0625,12.1875
13:28:21.116,5.0938,11.5
13:28:21.127,5.1563,12
13:28:21.136,4.5938,11.75
13:28:21.146,5.1875,11.5
13:28:21.155,4.625,11.6875
13:28:21.166,5,11.5
13:28:21.175,4.25,11.0625
13:28:21.186,4.375,11.0625
13:28:21.196,3.9688,10.5625
13:28:21.205,4.1875,10.0625
13:28:21.215,3.1875,9.4375
13:28:21.225,2.3438,9.8125
13:28:21.237,2.2188,8.1875
13:28:21.246,1.875,6.3125
13:28:21.257,1.7813,6.875
13:28:21.266,1.9063,6.25
13:28:21.276,1.1875,5.5625
13:28:21.286,0.7188,6.375
13:28:21.296,1.125,4.625
13:28:21.317,0.8125,4.125
13:28:21.323,0.875,4.9375
13:28:21.339,0.5938,4.4375
13:28:21.341,0.9063,3.375
13:28:21.346,0.375,2.6875
13:28:21.356,0.1563,3.5625
13:28:21.365,0.5625,2.625
13:28:21.375,0.25,2.0625
13:28:21.387,-0.4063,1.375
13:28:21.395,-0.3438,1.625
13:28:21.406,-1,0.4375
13:28:21.416,-1.4375,0.1875
13:28:21.425,-1.75,0.875
13:28:21.437,-1.5625,-0.5625
13:28:21.446,-1.6875,-1
13:28:21.456,-2.1563,-1.3125
13:28:21.465,-2.5313,-0.875
13:28:21.477,-2,-1.8125
13:28:21.486,-2.25,-2.8125
13:28:21.496,-2.75,-3.875
13:28:21.506,-2.6875,-2.9375
13:28:21.515,-2.7813,-3.5
13:28:21.525,-2.9063,-4.875
13:28:21.536,-3.3438,-4.875
13:28:21.547,-3.4688,-4.875
13:28:21.556,-3.5313,-5.8125
13:28:21.577,-4,-6.3125
13:28:21.580,-4.4063,-6.1875
13:28:21.595,-4.375,-7.875
13:28:21.599,-4.5313,-7.125
13:28:21.636,-4.5313,-8.0625
13:28:21.638,-4.2188,-7.25
13:28:21.640,-4.625,-7.6875
13:28:21.643,-4.9688,-7.75
13:28:21.648,-4.9375,-8.125
13:28:21.672,-4.9375,-8.875
13:28:21.674,-5.0625,-8.0625
13:28:21.677,-4.9063,-9.0625
13:28:21.703,-5.4688,-9.6875
13:28:21.709,-5.5313,-9.875
13:28:21.712,-5.4375,-9.3125
13:28:21.748,-5.6875,-10.25
13:28:21.751,-5.5313,-10.375
13:28:21.751,-5.8125,-11.375
13:28:21.783,-6.125,-10.1875
13:28:21.783,-6.1875,-10.875
13:28:21.785,-6.3125,-11.0625
13:28:21.786,-6.6875,-11.625
13:28:21.792,-6.1563,-11.25
13:28:21.798,-6.0625,-11.625
13:28:21.809,-6.125,-11.375
13:28:21.816,-6.0625,-12.3125
13:28:21.826,-6.7188,-12.0625
13:28:21.835,-6.75,-12.375
13:28:21.847,-6.3438,-12.3125
13:28:21.856,-6.25,-12.6875
13:28:21.865,-6.375,-11.625
13:28:21.875,-5.9688,-11.25
13:28:21.886,-5.25,-10.0625
13:28:21.895,-4.0938,-9.75
13:28:21.908,-3.4375,-7.125
13:28:21.916,-1.75,-3.75
13:28:21.926,-0.4375,-1.0625
13:28:21.935,0.9063,2.6875
13:28:21.946,2.5938,5
13:28:21.955,3.1875,6.125
13:28:21.966,2.5625,8.0625
13:28:21.976,3.0313,8.8125
13:28:21.985,3.0938,9.8125
13:28:21.995,3.3125,9.625
13:28:22.005,2.7813,9.375
13:28:22.015,3.2813,10.6875
13:28:22.025,2.875,10.3125
13:28:22.036,2.375,11.375
13:28:22.045,2.5625,10.3125
13:28:22.055,1.75,10.875
13:28:22.066,1.7813,10.9375
13:28:22.077,1,10.1875
13:28:22.085,0.125,9.25
13:28:22.095,-0.7813,8.25
13:28:22.105,-1.8438,7.125
13:28:22.116,-4.625,6.5625
13:28:22.128,-7.75,4.3125
13:28:22.137,-9.9688,1.4375
13:28:22.145,-14.4063,-0.9375
13:28:22.156,-18.7501,-2.5
13:28:22.165,-23.3751,-5.9375
13:28:22.176,-29.1251,-8.9375
13:28:22.185,-34.9689,-12
13:28:22.197,-40.5939,-13.9376
13:28:22.205,-45.5314,-17.3751
13:28:22.217,-50.3127,-20.4376
13:28:22.225,-54.2815,-21.0626
13:28:22.236,-59.0627,-24.0001
13:28:22.245,-62.7502,-26.3126
13:28:22.255,-66.3753,-28.6251
13:28:22.267,-71.1253,-29.3126
13:28:22.276,-74.2815,-32.6876
13:28:22.285,-78.0941,-34.1876
13:28:22.295,-79.6878,-35.3126
13:28:22.305,-81.2191,-36.8751
13:28:22.315,-81.5941,-36.1251
13:28:22.327,-81.7503,-37.1251
13:28:22.336,-81.3753,-35.9376
13:28:22.345,-80.7816,-36.6876
13:28:22.355,-79.9691,-35.3126
13:28:22.368,-79.4378,-35.8126
13:28:22.397,-77.9065,-34.4376
13:28:22.400,-77.2503,-34.8751
13:28:22.403,-75.9065,-33.8751
13:28:22.406,-74.7503,-34.1251
13:28:22.439,-73.4378,-33.5001
13:28:22.442,-71.844,-33.3126
13:28:22.443,-71.094,-32.3751
13:28:22.447,-70.3128,-32.8751
13:28:22.475,-69.7503,-32.3751
13:28:22.478,-69.5628,-33.0626
13:28:22.480,-68.4378,-32.5001
13:28:22.510,-68.1253,-32.9376
13:28:22.511,-67.3128,-32.3126
13:28:22.514,-66.8128,-32.7501
13:28:22.519,-66.1565,-32.1251
13:28:22.540,-65.344,-32.1876
13:28:22.547,-63.6877,-32.0001
13:28:22.550,-62.094,-31.9376
13:28:22.557,-60.6877,-30.8126
13:28:22.566,-59.2502,-30.7501
13:28:22.575,-58.4377,-30.7501
13:28:22.585,-58.0315,-31.0626
13:28:22.595,-56.969,-30.4376
13:28:22.605,-56.2815,-31.5001
13:28:22.620,-55.469,-30.4376
13:28:22.635,-55.2502,-30.7501
13:28:22.637,-55.0002,-30.5001
13:28:22.646,-54.0627,-30.4376
13:28:22.655,-54.5315,-29.8126
13:28:22.665,-54.719,-29.8126
13:28:22.677,-54.5002,-29.9376
13:28:22.685,-55.2815,-29.8751
13:28:22.695,-55.7502,-30.6251
13:28:22.707,-55.719,-31.0626
13:28:22.715,-55.6565,-30.7501
13:28:22.731,-55.1565,-31.5626
13:28:22.743,-53.9377,-30.8751
13:28:22.750,-51.6877,-29.9376
13:28:22.760,-49.4377,-28.3751
13:28:22.770,-46.0627,-27.6251
13:28:22.780,-43.3752,-25.0626
13:28:22.790,-38.6564,-22.4376
13:28:22.802,-35.4376,-19.6251
13:28:22.811,-33.3439,-14.6251
13:28:22.820,-30.0314,-11.75
13:28:22.830,-27.7189,-6.875
13:28:22.841,-24.7501,-4.3125
13:28:22.850,-22.9688,-0.25
13:28:22.860,-20.2813,2.0625
13:28:22.875,-18.4688,5.9375
13:28:22.890,-16.3126,8.5625
13:28:22.893,-13.0938,15.1876
13:28:22.900,-10.25,19.9376
13:28:22.911,-7.2188,23.5001
13:28:22.920,-4.7188,26.9376
13:28:22.936,-1.8125,33.0626
13:28:22.940,1.5313,37.1876
13:28:22.950,5.2188,43.3127
13:28:22.960,9.0313,46.2502
13:28:22.970,13.7813,49.8127
13:28:22.980,17.9063,52.0002
13:28:22.990,20.7813,53.4377
13:28:23.001,23.5313,54.3752
13:28:23.010,24.2188,53.8752
13:28:23.039,24.0001,51.1877
13:28:23.041,22.5313,49.0627
13:28:23.043,19.0001,44.9377
13:28:23.050,15.2188,39.3127
13:28:23.060,10.8125,35.1876
13:28:23.070,6.7813,29.9376
13:28:23.080,0.9063,24.6251
13:28:23.114,-3.6875,19.4376
13:28:23.117,-7.8125,15.3126
13:28:23.119,-11.9063,12.0625
13:28:23.123,-14.3438,10.125
13:28:23.153,-15.6876,8.8125
13:28:23.154,-16.4688,6.4375
13:28:23.157,-17.8751,4.5625
13:28:23.189,-18.5313,3.125
13:28:23.191,-19.9376,2.6875
13:28:23.194,-20.5001,1.3125
13:28:23.200,-20.8751,0.3125
13:28:23.200,-22.4063,-0.375
13:28:23.217,-22.8751,-2.125
13:28:23.220,-24.7501,-2.8125
13:28:23.255,-24.5313,-4.3125
13:28:23.258,-26.0626,-4.8125
13:28:23.259,-26.0313,-6.1875
13:28:23.267,-26.4689,-7.875
13:28:23.272,-26.4063,-7.6875
13:28:23.280,-26.8126,-8
13:28:23.290,-25.6251,-9.1875
13:28:23.300,-25.7501,-9.375
13:28:23.310,-25.4376,-10.1875
13:28:23.320,-23.9688,-10.875
13:28:23.330,-23.5626,-10.875
13:28:23.341,-22.6251,-11
13:28:23.351,-21.6251,-12.3125
13:28:23.360,-21.5626,-11.875
13:28:23.370,-23.8126,-14.5001
13:28:23.380,-24.5938,-16.5001
13:28:23.392,-25.4376,-17.5001
13:28:23.400,-24.1251,-18.0001
13:28:23.413,-24.5313,-18.6251
13:28:23.421,-23.5626,-19.3126
13:28:23.430,-24.1251,-18.7501
13:28:23.440,-23.3438,-19.3126
13:28:23.450,-22.3126,-20.1876
13:28:23.460,-20.5938,-19.8751
13:28:23.470,-19.5313,-19.0001
13:28:23.480,-17.7813,-19.1251
13:28:23.491,-18.3438,-18.6251
13:28:23.500,-21.4688,-19.2501
13:28:23.510,-20.9688,-20.4376
13:28:23.522,-22.1563,-20.6876
13:28:23.530,-23.6563,-20.5626
13:28:23.541,-23.2501,-21.0001
13:28:23.550,-24.8438,-21.1876
13:28:23.560,-24.9376,-21.9376
13:28:23.570,-24.2813,-21.4376
13:28:23.580,-24.3751,-20.6876
13:28:23.593,-22.9688,-21.8126
13:28:23.601,-20.8126,-21.1251
13:28:23.610,-19.8751,-20.3126
13:28:23.620,-17.1563,-19.6251
13:28:23.630,-14.6563,-17.1876
13:28:23.642,-12.8438,-15.0001
13:28:23.651,-9.7188,-13.6251
13:28:23.660,-8.375,-10.4375
13:28:23.670,-6.625,-7.375
13:28:23.685,-4.9375,-4.875
13:28:23.690,-3.9063,-1.6875
13:28:23.700,-2.8125,1.3125
13:28:23.710,-1.75,1.875
13:28:23.720,-1.3125,4.875
13:28:23.732,-0.0625,6.6875
13:28:23.740,0.3438,8.125
13:28:23.750,0.9063,9.75
13:28:23.760,1.1875,11.125
13:28:23.770,1.6875,11.75
13:28:23.782,2.25,12.75
13:28:23.790,2.5938,13.6251
13:28:23.800,3.0625,13.0625
13:28:23.813,2.9063,14.1251
13:28:23.821,2.9688,13.6251
13:28:23.830,1.9375,14.2501
13:28:23.841,1.1875,12.75
13:28:23.874,-0.6875,11.875
13:28:23.877,-1.2813,10.75
13:28:23.879,-2.8438,9.9375
13:28:23.881,-4.2813,8.75
13:28:23.914,-4.4375,7.8125
13:28:23.917,-6.375,6.6875
13:28:23.937,-7.375,7.375
13:28:23.937,-7.4688,6.1875
13:28:23.937,-7.9688,5.9375
13:28:23.960,-8.9063,4.75
13:28:23.962,-9.9688,4.4375
13:28:23.964,-9.8125,4.25
13:28:23.994,-8.9375,2.6875
13:28:23.996,-8.6563,3.0625
13:28:23.999,-8.0313,2.5625
13:28:24.004,-7.2188,3.9375
13:28:24.013,-5.4688,3
13:28:24.028,-4.875,2.75
13:28:24.032,-4.3125,3.75
13:28:24.041,-3.5938,3.4375
13:28:24.050,-4.125,2.25
13:28:24.060,-4.0625,2.6875
13:28:24.072,-4.0938,1.4375
13:28:24.080,-4.875,0.9375
13:28:24.090,-5.6875,0.0625
13:28:24.100,-6.4375,-0.0625
13:28:24.110,-7.125,-1.3125
13:28:24.120,-8.2813,-2.625
13:28:24.132,-8.8438,-2.8125
13:28:24.141,-9.0313,-3.8125
13:28:24.150,-9.4063,-4.75
13:28:24.170,-10.0625,-5.5625
13:28:24.172,-10.2813,-5
13:28:24.188,-10.0938,-6.3125
13:28:24.191,-10.8438,-5.625
13:28:24.203,-10.8125,-7.4375
13:28:24.210,-11.5625,-7.125
13:28:24.220,-10.8125,-8.625
13:28:24.230,-12.6875,-9.1875
13:28:24.240,-16.9376,-11.5
13:28:24.250,-20.2188,-13.8126
13:28:24.260,-21.3126,-13.6876
13:28:24.270,-21.6251,-14.5001
13:28:24.281,-22.4688,-14.8126
13:28:24.290,-22.5001,-15.9376
13:28:24.319,-23.1563,-16.0001
13:28:24.321,-22.9376,-16.1251
13:28:24.323,-21.5938,-16.9376
13:28:24.330,-20.3751,-16.8751
13:28:24.340,-18.1563,-16.3126
13:28:24.350,-17.2813,-16.7501
13:28:24.360,-15.6563,-16.4376
13:28:24.370,-14.4063,-16.0001
13:28:24.381,-13.3751,-15.6251
13:28:24.390,-13.5313,-16.0626
13:28:24.400,-15.0313,-16.0626
13:28:24.410,-16.5626,-17.0626
13:28:24.422,-16.6251,-17.4376
13:28:24.435,-17.8438,-17.4376
13:28:24.441,-18.5938,-17.8751
13:28:24.450,-18.9688,-17.3751
13:28:24.460,-19.0313,-17.7501
13:28:24.470,-18.5938,-17.1876
13:28:24.481,-16.8751,-17.5001
13:28:24.501,-15.3751,-15.6876
13:28:24.504,-13.5001,-15.3751
13:28:24.539,-12.4375,-13.0625
13:28:24.541,-10.5938,-12.25
13:28:24.542,-9.25,-9.9375
13:28:24.542,-7.1875,-7.4375
13:28:24.551,-5.7813,-5.5
13:28:24.583,-4.4688,-2.125
13:28:24.586,-3.6875,-1.1875
13:28:24.588,-2.3125,1.5625
13:28:24.594,-1.9688,2.0625
13:28:24.626,-1.5313,4.25
13:28:24.629,-0.5938,5.25
13:28:24.630,-0.2813,6.625
13:28:24.662,0.4688,6.75
13:28:24.662,0.5625,7.9375
13:28:24.663,1.5625,8
13:28:24.669,1.5313,9.3125
13:28:24.671,2.0938,9.1875
13:28:24.680,2.3125,10
13:28:24.690,2.7188,10.125
13:28:24.700,2.4688,9.5625
13:28:24.710,2.125,9.8125
13:28:24.720,1.8125,9.1875
13:28:24.730,1.0625,9.4375
13:28:24.740,1.4688,8.5625
13:28:24.750,0.5,7.375
13:28:24.760,0.5,8
13:28:24.773,0.3125,7.1875
13:28:24.782,-0.6875,8
13:28:24.790,-1.4375,8.1875
13:28:24.800,-1.1563,6.4375
13:28:24.810,-2.375,5.6875
13:28:24.824,-2.8438,5.25
13:28:24.832,-3.4688,5.25
13:28:24.840,-3.6875,5.125
13:28:24.850,-4.0625,3.875
13:28:24.860,-4.75,4
13:28:24.870,-3.4063,3.625
13:28:24.880,-4.4688,4
13:28:24.890,-4.4375,4.625
13:28:24.900,-3.8125,3.8125
13:28:24.910,-4.125,3.3125
13:28:24.921,-3.9375,4.1875
13:28:24.931,-2.4063,3.875
13:28:24.940,-2.9688,3.0625
13:28:24.950,-3.1563,4.3125
13:28:24.962,-2.1563,2.8125
13:28:24.971,-2.6875,2.6875
13:28:24.980,-1.5625,3.3125
13:28:24.990,-1.3438,2.5
13:28:25.003,-1.5313,2.0625
13:28:25.012,-1.875,2.875
13:28:25.020,-0.5313,1.25
13:28:25.031,-1.5313,0.0625
13:28:25.040,-0.5938,0.5625
13:28:25.050,-0.1563,0
13:28:25.060,-0.9063,-0.75
13:28:25.070,-0.7813,0.0625
13:28:25.080,-2.625,-0.8125
13:28:25.090,-6,-3.1875
13:28:25.100,-8.7813,-3.375
13:28:25.110,-9.9375,-3.4375
13:28:25.120,-9.875,-5.25
13:28:25.130,-11.125,-5.3125
13:28:25.140,-11.5313,-6.75
13:28:25.150,-11.9688,-7.875
13:28:25.160,-12.2813,-8.25
13:28:25.170,-10.6875,-7.9375
13:28:25.185,-9.8438,-8.1875
13:28:25.190,-9.0938,-6.75
13:28:25.211,-7.5625,-7.75
13:28:25.216,-6.3125,-8
13:28:25.225,-5.2813,-7.1875
13:28:25.294,-6.3438,-8.25
13:28:25.294,-9.7188,-8.6875
13:28:25.298,-11.875,-9.8125
13:28:25.300,-13.3126,-10.75
13:28:25.301,-13.6251,-10.75
13:28:25.307,-15.0313,-10.4375
13:28:25.308,-15.6876,-11.4375
13:28:25.308,-16.4063,-11.875
13:28:25.337,-15.7501,-12.5625
13:28:25.339,-15.7188,-11.9375
13:28:25.342,-14.0626,-11.125
13:28:25.346,-12.3438,-11.0625
13:28:25.376,-11.0625,-9.5625
13:28:25.378,-8.6875,-9.375
13:28:25.380,-6.9688,-6.6875
13:28:25.387,-3.375,-4.25
13:28:25.405,-1.0938,-2.5
13:28:25.409,1.0938,-0.125
13:28:25.415,2.2813,3.6875
13:28:25.425,3.375,4.375
13:28:25.436,4.0938,5.625
13:28:25.445,4.5313,7.625
13:28:25.466,5.375,8.375
13:28:25.469,5.4688,8.625
13:28:25.477,5.5938,9.9375
13:28:25.485,5.625,11.0625
13:28:25.500,6.9375,11.1875
13:28:25.509,6.9688,12.75
13:28:25.515,7.4063,12.875
13:28:25.525,8.0625,13.8751
13:28:25.536,8.8125,14.4376
13:28:25.546,8.9688,14.8126
13:28:25.560,9.9063,15.6251
13:28:25.565,9.5,15.5626
13:28:25.599,9.1563,16.6251
13:28:25.601,8.9063,15.5626
13:28:25.603,8.1875,14.6251
13:28:25.609,7.2188,13.5001
13:28:25.619,5.5313,13.5001
13:28:25.625,4.9063,13.1876
13:28:25.639,4.25,12.125
13:28:25.648,3.5313,11.9375
13:28:25.657,2.5313,11.625
13:28:25.666,1.3125,11.5
13:28:25.677,0.875,13.0625
13:28:25.686,1.4375,11.5
13:28:25.695,0.6563,10.9375
13:28:25.705,0.3438,11.0625
13:28:25.715,0.8125,10.625
13:28:25.725,1.2188,10.0625
13:28:25.735,1.5938,10.5625
13:28:25.745,3.3438,11.1875
13:28:25.755,4.2188,10.0625
13:28:25.765,4.1563,10.0625
13:28:25.775,4.7813,10.6875
13:28:25.785,5.6563,10
13:28:25.795,5.3125,9.8125
13:28:25.805,4.8438,10.1875
13:28:25.815,5.5313,9.625
13:28:25.825,5.125,8.5625
13:28:25.835,4.2813,8.9375
13:28:25.845,4.0938,7.6875
13:28:25.855,3.5625,6.8125
13:28:25.865,3.4688,6.125
13:28:25.875,3.5,6.25
13:28:25.885,3.4063,4.75
13:28:25.895,2.2813,3.6875
13:28:25.905,2,3.3125
13:28:25.915,1.9063,3.9375
13:28:25.925,2.5313,2.4375
13:28:25.935,-1.9063,0.3125
13:28:25.946,-5.625,-1
13:28:25.955,-7.375,-1
13:28:25.965,-7.8438,-2.125
13:28:25.975,-7.8125,-3.25
13:28:25.987,-7.6875,-4.0625
13:28:25.997,-7.7188,-3.125
13:28:26.008,-7.4688,-4.375
13:28:26.015,-7.25,-5.4375
13:28:26.025,-6.5625,-5.3125
13:28:26.036,-6.1563,-4.0625
13:28:26.067,-4.5625,-4.6875
13:28:26.069,-3.4063,-4.9375
13:28:26.072,-3.1875,-5.25
13:28:26.076,-4.875,-6.0625
13:28:26.104,-7.0938,-5.5625
13:28:26.107,-6.9688,-6
13:28:26.109,-9.625,-6.125
13:28:26.115,-9.8125,-6.875
13:28:26.148,-10.4688,-6.75
13:28:26.151,-11,-7.0625
13:28:26.153,-10.9063,-7.25
13:28:26.185,-11.5313,-7.125
13:28:26.186,-10.0313,-5.625
13:28:26.190,-7.875,-4.75
13:28:26.195,-6.4063,-2.6875
13:28:26.197,-3.125,-0.1875
13:28:26.215,-0.7188,2.625
13:28:26.217,1.5,5.1875
13:28:26.225,4.3438,7.3125
13:28:26.235,4.625,9
13:28:26.245,5.5,10.9375
13:28:26.255,6.25,11.25
13:28:26.265,6,12.25
13:28:26.275,6.375,12.5
13:28:26.287,6.1563,13.3751
13:28:26.295,6.1875,13.6251
13:28:26.310,6.5313,14.8126
13:28:26.317,6.9063,15.0001
13:28:26.326,6.875,15.4376
13:28:26.335,7.875,15.5626
13:28:26.346,7.0313,16.3126
13:28:26.356,8.375,16.1251
13:28:26.365,7.8438,16.3126
13:28:26.375,7.6563,16.5001
13:28:26.385,7.8125,15.7501
13:28:26.397,6.9375,14.9376
13:28:26.406,5.5313,15.0626
13:28:26.418,4.5938,14.6876
13:28:26.425,4.0313,13.6876
13:28:26.435,2.1875,13.0625
13:28:26.445,0.6563,13.0625
13:28:26.455,-0.6875,12.3125
13:28:26.465,-1.8438,11.3125
13:28:26.475,-2.5,10.875
13:28:26.485,-3.0938,10.625
13:28:26.495,-2.375,10.5
13:28:26.505,-1.5938,10.375
13:28:26.516,-0.8125,10.375
13:28:26.533,0.4688,11.1875
13:28:26.538,1.9063,11.4375
13:28:26.547,4.2188,10.875
13:28:26.560,4.7813,10.625
13:28:26.570,5.875,11.75
13:28:26.579,7.1563,11.375
13:28:26.585,7.3125,11.125
13:28:26.595,7.0625,11.375
13:28:26.605,7.4375,11.5625
13:28:26.616,7.375,10.5625
13:28:26.625,6,9.4375
13:28:26.635,4.5938,8.625
13:28:26.645,4.3438,8.75
13:28:26.655,3.4688,7.5625
13:28:26.666,2.875,7.1875
13:28:26.676,2.0938,6.5
13:28:26.690,1.3438,4.625
13:28:26.696,0.6875,4.4375
13:28:26.706,0.4688,4.75
13:28:26.718,0.6563,3.6875
13:28:26.727,-0.3125,2.125
13:28:26.740,-0.5938,1.75
13:28:26.751,-1.125,0.3125
13:28:26.762,-1.25,0.75
13:28:26.783,-1.0938,0.6875
13:28:26.853,-0.6875,-0.0625
13:28:26.854,-4.375,-1.8125
13:28:26.921,-8.5,-3.6875
13:28:26.921,-10.3438,-3.8125
13:28:26.921,-10.7813,-4.875
13:28:26.922,-11,-6.25
13:28:26.923,-11.7813,-6.5625
13:28:26.929,-11.9688,-7.125
13:28:26.929,-12.5,-7.75
13:28:26.929,-12.875,-8.5
13:28:26.938,-12.75,-7.5625
13:28:26.945,-11.75,-8.25
13:28:26.955,-9.9063,-8.3125
13:28:26.966,-7.4688,-7
13:28:26.977,-6.125,-6.5625
13:28:26.985,-4.875,-4.4375
13:28:26.996,-3.3438,-1.4375
13:28:27.008,-1.25,0.125
13:28:27.015,-2.6563,2.25
13:28:27.025,-1.375,5.4375
13:28:27.035,-1.1875,8.25
13:28:27.045,-0.7188,9.5625
13:28:27.055,-0.5313,10.9375
13:28:27.065,0.0625,12.5
13:28:27.075,1,12.9375
13:28:27.085,1.8125,13.5001
13:28:27.096,8.4063,18.7501
13:28:27.106,9.25,20.7501
13:28:27.116,9.125,20.0001
13:28:27.128,8.875,20.5626
13:28:27.135,9.5313,20.6876
13:28:27.146,9.0625,20.8126
13:28:27.155,9.9688,20.2501
13:28:27.165,9.25,19.9376
13:28:27.175,9.4375,20.6251
13:28:27.185,10.2813,19.2501
13:28:27.195,10.0938,19.0001
13:28:27.206,10.5625,20.1876
13:28:27.217,9.9375,19.1251
13:28:27.226,9.5313,19.5626
13:28:27.236,9.0313,19.2501
13:28:27.247,8.875,18.2501
13:28:27.256,7.4688,17.8751
13:28:27.265,6.8438,17.7501
13:28:27.275,6.1875,17.0626
13:28:27.286,4.9688,16.4376
13:28:27.296,3.7813,15.6876
13:28:27.306,3.5,16.3126
13:28:27.315,3.5,15.6251
13:28:27.325,3.1563,15.9376
13:28:27.335,2.6875,14.6251
13:28:27.345,3,15.7501
13:28:27.355,2.8438,15.9376
13:28:27.365,3.8438,14.2501
13:28:27.375,3.875,13.5626
13:28:27.385,4.4375,14.1251
13:28:27.395,5.3438,14.1876
13:28:27.407,6.9063,13.7501
13:28:27.417,8.1563,13.1876
13:28:27.425,8.5625,14.0001
13:28:27.440,9.3438,13.9376
13:28:27.445,9.6875,13.8751
13:28:27.455,8.8438,13.3126
13:28:27.465,8.375,13.7501
13:28:27.475,7.5,13.125
13:28:27.485,7.4688,11.9375
13:28:27.496,6.5313,10.375
13:28:27.527,5.9375,9.875
13:28:27.531,5.8438,10.0625
13:28:27.532,5.625,10.125
13:28:27.535,6.0938,9
13:28:27.569,6.125,8.125
13:28:27.572,5.3438,7.3125
13:28:27.575,5.3125,7.625
13:28:27.577,6.0313,6.4375
13:28:27.614,5.0938,5.1875
13:28:27.616,0.4063,3.5
13:28:27.617,-3.125,1.5625
13:28:27.644,-4.3125,0.5
13:28:27.646,-6.875,-1
13:28:27.648,-7.5,-1.125
13:28:27.652,-7.2188,-1.5
13:28:27.655,-7.0938,-2.375
13:28:27.685,-7.0938,-2.3125
13:28:27.687,-6,-0.9375
13:28:27.690,-2.9063,0.125
13:28:27.695,-0.7813,2.9375
13:28:27.706,-2.9063,5.9375
13:28:27.715,-3.625,8.1875
13:28:27.725,-4.1563,10.3125
13:28:27.735,-3.6563,12.25
13:28:27.745,-3.5,15.2501
13:28:27.755,-3,16.8751
13:28:27.765,-1.8125,17.5626
13:28:27.775,-1.5313,18.1251
13:28:27.786,-0.9688,19.2501
13:28:27.798,0.4688,20.4376
13:28:27.805,2.375,23.0626
13:28:27.822,4.6875,24.6876
13:28:27.828,7.2813,27.6876
13:28:27.836,9.6875,28.6876
13:28:27.855,12.4688,31.3751
13:28:27.861,14.5626,32.2501
13:28:27.870,16.4376,34.8751
13:28:27.876,17.7501,34.5001
13:28:27.893,18.0626,35.6876
13:28:27.899,18.7813,35.5626
13:28:27.907,17.8751,35.0001
13:28:27.915,17.5001,34.9376
13:28:27.925,16.5313,33.1251
13:28:27.935,14.7501,32.8126
13:28:27.945,13.9376,31.9376
13:28:27.955,13.1563,30.2501
13:28:27.965,11.6563,29.0626
13:28:27.975,10.4688,27.6876
13:28:27.985,9.875,28.2501
13:28:27.995,8.1563,27.6251
13:28:28.006,7.125,26.3751
13:28:28.017,5.25,25.3126
13:28:28.028,2.8438,23.7501
13:28:28.035,1.2188,23.3751
13:28:28.045,0.3438,22.4376
13:28:28.055,-0.7188,20.8126
13:28:28.065,-2.1875,19.8126
13:28:28.076,-3.5313,18.4376
13:28:28.086,-4.125,18.6876
13:28:28.099,-4.75,18.5626
13:28:28.105,-4.5,17.2501
13:28:28.115,-5.5625,16.0001
13:28:28.125,-6.2188,15.6876
13:28:28.158,-6.5625,15.1251
13:28:28.172,-6.7813,12.8125
13:28:28.188,21.0938,23.4376
13:28:28.191,15.7188,20.6876
13:28:28.191,23.1563,22.7501
13:28:28.205,29.4064,25.1876
13:28:28.220,27.8439,25.6251
13:28:28.222,26.3126,23.8126
13:28:28.226,26.1563,21.9376
13:28:28.227,28.0001,22.5626
13:28:28.236,32.7814,23.4376
13:28:28.263,36.8126,24.6876
13:28:28.266,40.4064,26.5001
13:28:28.294,42.7502,27.5626
13:28:28.296,43.3752,27.3751
13:28:28.299,43.0002,27.6251
13:28:28.304,44.2502,27.7501
13:28:28.305,44.7189,27.3126
13:28:28.341,44.8127,28.3126
13:28:28.343,45.9689,29.1876
13:28:28.345,47.0939,29.0001
13:28:28.348,48.7502,28.9376
13:28:28.379,50.2814,29.2501
13:28:28.382,51.8752,29.3126
13:28:28.385,52.8752,29.1876
13:28:28.387,54.1252,29.8751
13:28:28.421,55.594,31.8751
13:28:28.423,57.969,32.0001
13:28:28.425,60.0627,32.3751
13:28:28.431,60.6877,32.5001
13:28:28.435,61.6565,33.1876
13:28:28.446,61.5002,34.9376
13:28:28.457,62.6252,37.2501
13:28:28.465,63.594,38.8751
13:28:28.475,64.7815,40.8127
13:28:28.484,66.1565,44.7502
13:28:28.495,67.6878,48.5627
13:28:28.505,69.6565,50.9377
13:28:28.515,69.719,53.9377
13:28:28.526,71.0003,56.5627
13:28:28.537,72.6878,57.3127
13:28:28.545,72.6878,59.2502
13:28:28.555,72.7503,61.5627
13:28:28.565,74.3128,63.0627
13:28:28.576,75.2815,63.4377
13:28:28.585,75.219,64.5627
13:28:28.596,75.0628,66.1253
13:28:28.605,75.6565,66.0003
13:28:28.617,75.2503,66.4378
13:28:28.625,75.1878,67.7503
13:28:28.635,74.4378,67.5628
13:28:28.645,74.2503,67.3128
13:28:28.655,73.6878,66.6878
13:28:28.665,71.4378,66.3753
13:28:28.675,70.0628,64.9377
13:28:28.686,67.6253,62.8752
13:28:28.697,65.719,60.5002
13:28:28.705,63.4065,59.5002
13:28:28.716,61.4377,57.2502
13:28:28.725,59.344,56.2502
13:28:28.734,57.219,53.5627
13:28:28.745,56.094,53.3127
13:28:28.756,54.4377,51.0002
13:28:28.766,52.1564,49.4377
13:28:28.775,50.4689,48.8127
13:28:28.785,49.3127,48.0002
13:28:28.794,48.0002,46.4377
13:28:28.805,45.0939,45.3752
13:28:28.815,43.6252,44.3752
13:28:28.827,42.8439,43.9377
13:28:28.835,41.5627,42.5627
13:28:28.845,39.6564,40.9377
13:28:28.855,37.4376,40.3752
13:28:28.865,36.1876,37.8126
13:28:28.875,34.6876,36.5001
13:28:28.886,33.8439,35.9376
13:28:28.899,33.6876,34.5001
13:28:28.908,31.8751,33.3751
13:28:28.934,30.8126,33.3751
13:28:28.936,30.1564,31.3126
13:28:28.939,29.1876,29.7501
13:28:28.976,27.5626,28.7501
13:28:28.979,27.5314,27.5626
13:28:28.980,25.9688,25.7501
13:28:28.985,24.8751,25.7501
13:28:28.985,24.6251,25.0626
13:28:29.016,24.5626,23.0626
13:28:29.018,24.0313,22.3751
13:28:29.020,23.5001,22.2501
13:28:29.025,24.1563,21.5626
13:28:29.057,24.1563,20.7501
13:28:29.059,24.1563,19.6251
13:28:29.062,24.7813,19.4376
13:28:29.065,26.2813,20.5001
13:28:29.077,26.8126,19.5626
13:28:29.087,27.5939,19.6251
13:28:29.094,28.8439,20.0626
13:28:29.105,28.8751,19.1876
13:28:29.115,28.8439,18.2501
13:28:29.125,27.5001,17.6251
13:28:29.135,25.0938,16.5001
13:28:29.145,21.5313,15.9376
13:28:29.155,17.5313,15.2501
13:28:29.165,13.2188,12.8125
13:28:29.183,8.0625,10.75
13:28:29.189,3.5,9.375
13:28:29.198,0.4063,7.5
13:28:29.205,-2.7188,6.1875
13:28:29.221,-4.4375,6.5625
13:28:29.237,-4.1875,7.6875
13:28:29.241,-4.1875,8.625
13:28:29.245,-4.6875,11.9375
13:28:29.257,-2.0938,15.5626
13:28:29.265,0.5625,21.0001
13:28:29.275,3.75,26.7501
13:28:29.285,7.4063,34.1876
13:28:29.295,12.0938,39.5002
13:28:29.306,16.2501,46.0627
13:28:29.314,18.5626,51.1877
13:28:29.324,21.3126,53.7502
13:28:29.335,22.7501,56.5002
13:28:29.345,23.7188,58.3127
13:28:29.355,24.4688,60.9377
13:28:29.365,25.3126,61.5627
13:28:29.376,25.6563,61.3127
13:28:29.385,26.0313,62.9377
13:28:29.395,28.0314,63.6877
13:28:29.404,30.7814,64.0627
13:28:29.440,33.4376,65.8753
13:28:29.443,34.7501,66.8753
13:28:29.445,36.5626,65.6878
13:28:29.454,37.7189,64.7502
13:28:29.455,38.4689,63.3752
13:28:29.467,40.4689,63.8752
13:28:29.474,42.2189,62.3127
13:28:29.489,43.0627,60.1877
13:28:29.496,42.5314,58.4377
13:28:29.506,42.0939,56.4377
13:28:29.520,41.0939,54.9377
13:28:29.530,40.4377,51.6877
13:28:29.535,39.0314,48.1252
13:28:29.545,37.9064,47.5002
13:28:29.555,36.6876,45.5627
13:28:29.566,35.8751,42.5627
13:28:29.577,34.1251,39.5002
13:28:29.585,32.5626,38.0001
13:28:29.595,31.0939,35.8126
13:28:29.604,30.2814,34.0626
13:28:29.615,29.1251,32.0001
13:28:29.627,26.9064,31.1876
13:28:29.634,26.5626,29.1251
13:28:29.645,25.2501,27.5626
13:28:29.655,23.6251,25.3126
13:28:29.665,21.8126,24.5001
13:28:29.697,20.6876,23.2501
13:28:29.701,19.7813,21.3751
13:28:29.703,18.4376,18.9376
13:28:29.706,16.6876,18.8126
13:28:29.735,16.5313,16.6876
13:28:29.738,15.0001,15.0626
13:28:29.740,13.1876,13.3751
13:28:29.747,12,13.0625
13:28:29.775,10.7813,12.0625
13:28:29.778,9.8438,9.8125
13:28:29.780,8.0938,7.875
13:28:29.785,6.5313,7.3125
13:28:29.815,6.0313,5.75
13:28:29.817,3.5313,3.1875
13:28:29.820,2.3438,2.25
13:28:29.825,1.5625,1.875
13:28:29.856,1.7813,0.3125
13:28:29.858,0.5938,-1.125
13:28:29.860,-0.1875,-1.0625
13:28:29.867,-0.9375,-1.625
13:28:29.877,-0.7188,-3.0625
13:28:29.885,-2.3438,-4.3125
13:28:29.895,-3.0625,-6.125
13:28:29.905,-3.5313,-5.6875
13:28:29.919,-3.9375,-6.5625
13:28:29.925,-3.8438,-7.625
13:28:29.935,-4.625,-8.625
13:28:29.945,-5.375,-8.375
13:28:29.957,-5.3438,-9.375
13:28:29.965,-5.6563,-10.0625
13:28:29.974,-6.0938,-10.6875
13:28:29.985,-6.6563,-10.625
13:28:29.995,-5.8125,-9.75
13:28:30.007,-5.0313,-8.75
13:28:30.015,-4.3125,-7.25
13:28:30.024,-2.8125,-3.375
13:28:30.035,-1.5625,-1.1875
13:28:30.044,-0.3438,3.625
13:28:30.058,1.5625,6.6875
13:28:30.066,3.1875,9.75
13:28:30.080,4.2188,13.3126
13:28:30.089,5.4375,14.9376
13:28:30.104,5.5,16.5001
13:28:30.110,6.3438,18.6251
13:28:30.122,5.6875,18.6251
13:28:30.132,5.25,20.8751
13:28:30.140,5.125,19.9376
13:28:30.149,4.6875,21.3126
13:28:30.161,5.4063,21.3751
13:28:30.171,4.3125,21.8751
13:28:30.179,4.8438,22.3751
13:28:30.189,4.5313,22.3126
13:28:30.199,3.8438,22.9376
13:28:30.210,3.9375,22.0626
13:28:30.222,2.6563,21.5626
13:28:30.230,1.9375,21.5626
13:28:30.239,1.875,20.5626
13:28:30.250,0.125,19.9376
13:28:30.260,-0.875,19.8751
13:28:30.269,-0.8125,18.0626
13:28:30.279,-1.5,16.6876
13:28:30.289,-1.9688,16.6251
13:28:30.300,-2.8125,15.3751
13:28:30.310,-3,14.0626
13:28:30.321,-3.5,13.2501
13:28:30.330,-4.0938,13
13:28:30.339,-4.25,12.0625
13:28:30.349,-5.5625,11.625
13:28:30.377,-4.8125,10.875
13:28:30.379,-5.25,10.125
13:28:30.381,-5.8438,11.125
13:28:30.413,-5.8125,9.875
13:28:30.415,-6.2813,8.375
13:28:30.418,-6.875,9.0625
13:28:30.420,-6.8438,7.8125
13:28:30.450,-7.4375,7.0625
13:28:30.453,-7.5625,6.4375
13:28:30.456,-8.375,5.75
13:28:30.462,-9.125,5.25
13:28:30.491,-9.4375,3.9375
13:28:30.542,-10.25,2.4375
13:28:30.550,-10.3125,2.5625
13:28:30.551,-10.6563,1.5
13:28:30.566,-10.875,0.0625
13:28:30.580,-11.375,-0.125
13:28:30.582,-11.5625,-0.6875
13:28:30.582,-11.4063,-2.125
13:28:30.583,-11.5625,-1.375
13:28:30.586,-12,-3.3125
13:28:30.595,-12.2813,-3.5625
13:28:30.605,-12.375,-3.5
13:28:30.614,-12.5625,-5.125
13:28:30.624,-13.0625,-4.5625
13:28:30.635,-13.2188,-5.75
13:28:30.645,-13.3126,-6.9375
13:28:30.656,-13.9688,-7.6875
13:28:30.665,-14.1251,-7.5625
13:28:30.674,-13.8751,-8.6875
13:28:30.685,-14.1876,-9.75
13:28:30.694,-14.2501,-10.25
13:28:30.719,-14.8126,-9.5625
13:28:30.722,-15.3751,-10.5625
13:28:30.726,-15.5938,-11.875
13:28:30.734,-16.3438,-13.3126
13:28:30.746,-15.8751,-12.6875
13:28:30.754,-15.5313,-10.3125
13:28:30.765,-13.5626,-7
13:28:30.775,-11.6563,-4.5625
13:28:30.785,-10.0313,-0.125
13:28:30.806,-8.4688,2.5625
13:28:30.808,-6.75,7.3125
13:28:30.816,-5.5313,9.1875
13:28:30.839,-5.4375,12.8125
13:28:30.842,-3.9375,13.6251
13:28:30.855,-3.375,16.0001
13:28:30.861,-3.4375,17.6251
13:28:30.871,-2.5625,19.1876
13:28:30.879,-2.9688,19.5626
13:28:30.890,-2.5,20.0626
13:28:30.901,-2.9063,19.3751
13:28:30.910,-2.75,20.2501
13:28:30.919,-3.4063,20.8751
13:28:30.930,-3.4063,20.3751
13:28:30.939,-3.875,19.9376
13:28:30.951,-4.5938,20.9376
13:28:30.959,-4.4375,20.1251
13:28:30.971,-5.0938,19.6876
13:28:30.979,-5.3125,19.2501
13:28:30.990,-5.6875,19.2501
13:28:31.005,-6.4375,18.1251
13:28:31.010,-6.5938,17.0001
13:28:31.020,-7.5,15.1876
13:28:31.029,-8.6875,15.6251
13:28:31.040,-8.4688,13.3751
13:28:31.049,-9.7188,13.4376
13:28:31.059,-9.4375,12
13:28:31.069,-10.3125,12.125
13:28:31.079,-10.25,10.375
13:28:31.089,-11.0625,10.25
13:28:31.099,-10.1875,9.1875
13:28:31.109,-11.4063,9.375
13:28:31.143,-11.2188,8.0625
13:28:31.147,-12.125,8.25
13:28:31.149,-12.1563,6.5625
13:28:31.150,-13.2501,6.4375
13:28:31.187,-13.3126,5
13:28:31.189,-13.3751,5.5
13:28:31.191,-13.5001,4.3125
13:28:31.194,-14.0626,3.1875
13:28:31.199,-14.1563,3.5625
13:28:31.211,-14.6876,1.5
13:28:31.241,-15.4063,1
13:28:31.244,-14.5001,0.3125
13:28:31.246,-15.7813,-0.3125
13:28:31.252,-15.9376,-1.875
13:28:31.280,-17.6251,-2.625
13:28:31.283,-17.6876,-3.8125
13:28:31.286,-18.5938,-4.875
13:28:31.290,-18.3751,-5.5625
13:28:31.299,-19.5001,-6.5625
13:28:31.309,-19.9688,-6.375
13:28:31.319,-19.3126,-7.9375
13:28:31.329,-19.3438,-8.4375
13:28:31.339,-18.9376,-8.1875
13:28:31.349,-19.1251,-9.75
13:28:31.359,-20.2501,-10.625
13:28:31.369,-20.7813,-12
13:28:31.381,-21.6876,-12.6875
13:28:31.389,-22.0626,-13.5626
13:28:31.399,-22.4063,-15.1251
13:28:31.409,-22.1563,-15.0001
13:28:31.420,-22.0626,-16.1876
13:28:31.429,-22.4063,-15.8751
13:28:31.439,-21.9376,-16.5001
13:28:31.449,-21.9688,-16.5001
13:28:31.460,-21.0001,-16.9376
13:28:31.469,-20.9063,-17.1251
13:28:31.479,-20.3126,-17.5626
13:28:31.489,-20.4063,-17.0001
13:28:31.500,-19.4376,-18.2501
13:28:31.509,-20.2188,-16.4376
13:28:31.519,-18.8126,-16.6876
13:28:31.529,-18.0313,-14.5626
13:28:31.541,-16.0626,-13.6251
13:28:31.549,-14.6876,-9.5625
13:28:31.559,-12.2188,-7
13:28:31.569,-10.4063,-1.625
13:28:31.581,-8.1563,1
13:28:31.589,-7.4688,5.625
13:28:31.601,-5.5938,7.3125
13:28:31.609,-5.5938,10.5
13:28:31.621,-4.75,11.375
13:28:31.629,-5.2813,13.4376
13:28:31.639,-4.5625,14.1876
13:28:31.649,-4.75,15.5001
13:28:31.663,-3.9688,16.7501
13:28:31.669,-4,16.3751
13:28:31.679,-4.0938,17.7501
13:28:31.689,-4.3438,17.5626
13:28:31.700,-4,18.1251
13:28:31.709,-4.0625,19.0001
13:28:31.719,-3.875,18.3751
13:28:31.730,-4.4375,19.3751
13:28:31.739,-4.0938,18.3751
13:28:31.755,-5.3438,17.8751
13:28:31.760,-6.2188,17.8126
13:28:31.769,-7.7188,16.6876
13:28:31.779,-8.5938,15.2501
13:28:31.789,-9.5,15.3751
13:28:31.799,-9.4063,13.1876
13:28:31.809,-10.375,12.875
13:28:31.819,-10.8438,11.5625
13:28:31.829,-10.9688,10.75
13:28:31.848,-11.0313,10.75
13:28:31.856,-11.3438,10.875
13:28:31.862,-11.1875,9.1875
13:28:31.870,-12.1563,8
13:28:31.879,-12.875,7.9375
13:28:31.910,-13.6563,6.375
13:28:31.937,-13.7501,6.875
13:28:31.940,-14.0313,6.3125
13:28:31.941,-14.1251,5.6875
13:28:31.944,-14.4063,6.8125
13:28:31.949,-14.2813,4.875
13:28:31.949,-14.2501,3.9375
13:28:31.985,-14.2188,4.5625
13:28:31.987,-14.3126,2.9375
13:28:31.990,-14.9063,2.3125
13:28:32.008,-14.9063,1.5
13:28:32.011,-16.1563,0.625
13:28:32.042,-16.6563,-0.75
13:28:32.043,-16.9376,-0.3125
13:28:32.045,-17.0626,-1.5
13:28:32.055,-16.2501,-1.25
13:28:32.057,-15.7813,-2.0625
13:28:32.060,-16.1563,-3.125
13:28:32.069,-16.7501,-3.8125
13:28:32.079,-16.8126,-3.4375
13:28:32.089,-15.7813,-4.125
13:28:32.099,-15.6251,-4.8125
13:28:32.109,-15.8438,-5.1875
13:28:32.131,-15.5938,-6.3125
13:28:32.133,-15.7813,-6.75
13:28:32.150,-16.4063,-7.5
13:28:32.163,-16.2501,-7.9375
13:28:32.166,-17.0313,-9.1875
13:28:32.182,-17.3126,-9.625
13:28:32.183,-17.1251,-10.1875
13:28:32.190,-17.3438,-10.75
13:28:32.199,-17.4063,-11.125
13:28:32.209,-17.5313,-12.3125
13:28:32.219,-17.3126,-12
13:28:32.229,-17.0313,-12.4375
13:28:32.239,-17.2188,-12.4375
13:28:32.249,-16.4376,-12.875
13:28:32.259,-16.9688,-13.0625
13:28:32.269,-16.8751,-14.3126
13:28:32.279,-17.4063,-14.0626
13:28:32.289,-17.1876,-14.8126
13:28:32.299,-16.9688,-14.8751
13:28:32.309,-16.8126,-13.8751
13:28:32.319,-15.5001,-12.4375
13:28:32.329,-14.8751,-11
13:28:32.339,-12.9688,-7.0625
13:28:32.349,-10.4063,-3.1875
13:28:32.359,-9.2188,0
13:28:32.372,-7.5313,4.75
13:28:32.380,-5.9375,7.375
13:28:32.389,-5.3438,11.1875
13:28:32.399,-4.4375,13.0625
13:28:32.409,-4.375,15.0001
13:28:32.419,-3.6563,16.2501
13:28:32.429,-3.5313,17.3126
13:28:32.440,-3.2188,18.0001
13:28:32.449,-3.2188,19.0001
13:28:32.459,-2.7188,19.5626
13:28:32.470,-2.4375,19.3126
13:28:32.479,-2.75,20.7501
13:28:32.489,-2.8125,20.3126
13:28:32.505,-3.4063,21.2501
13:28:32.511,-3.25,20.3751
13:28:32.519,-3.6875,21.0001
13:28:32.529,-3.7188,20.5626
13:28:32.539,-4.5313,20.9376
13:28:32.549,-4.9688,20.3126
13:28:32.559,-5.1563,18.8126
13:28:32.569,-6.125,18.6251
13:28:32.595,-6.3438,17.0626
13:28:32.598,-7.3125,15.4376
13:28:32.600,-7.7813,15.5001
13:28:32.633,-8.3438,14.2501
13:28:32.635,-8.0938,13.1251
13:28:32.638,-7.9688,12.75
13:28:32.640,-8.625,11.6875
13:28:32.673,-9.875,12
13:28:32.675,-9.6875,10.5625
13:28:32.677,-10.4375,10.375
13:28:32.681,-10.3125,10.5
13:28:32.717,-10.7188,8.9375
13:28:32.718,-10.875,9.1875
13:28:32.720,-10.2813,8.3125
13:28:32.754,-11.1875,7.875
13:28:32.756,-10.6875,7.5625
13:28:32.758,-11.375,6.25
13:28:32.763,-12.0625,5.4375
13:28:32.764,-12.4375,5.3125
13:28:32.770,-11.9063,4.5
13:28:32.779,-13.2188,3.3125
13:28:32.791,-13.3751,2.1875
13:28:32.799,-13.6563,1.875
13:28:32.809,-14.2501,0.75
13:28:32.819,-14.8126,-0.3125
13:28:32.831,-14.8751,-1.5
13:28:32.839,-15.4688,-1.625
13:28:32.849,-15.1563,-2.0625
13:28:32.860,-15.7188,-3.5625
13:28:32.869,-16.3126,-2.875
13:28:32.880,-16.3438,-3.875
13:28:32.890,-16.5313,-5.6875
13:28:32.899,-17.1251,-5.875
13:28:32.909,-16.9376,-5.875
13:28:32.919,-16.9688,-7.0625
13:28:32.929,-17.5938,-8.625
13:28:32.939,-17.1876,-8.25
13:28:32.949,-17.9063,-9.375
13:28:32.961,-17.8438,-10.125
13:28:32.969,-18.1563,-9.375
13:28:32.979,-18.0313,-10.75
13:28:32.990,-18.5626,-10.625
13:28:32.999,-18.1251,-11.9375
13:28:33.009,-19.1563,-11.375
13:28:33.019,-18.7188,-13.2501
13:28:33.029,-19.4688,-12.625
13:28:33.039,-19.0938,-13.8751
13:28:33.049,-19.6251,-13.5001
13:28:33.059,-19.4688,-14.7501
13:28:33.069,-19.2813,-15.0001
13:28:33.079,-19.6563,-16.1876
13:28:33.090,-19.4688,-16.0001
13:28:33.099,-19.3438,-15.8126
13:28:33.109,-19.1251,-14.8126
13:28:33.119,-18.6251,-14.4376
13:28:33.131,-17.5626,-11
13:28:33.139,-15.5313,-9.75
13:28:33.149,-14.3751,-5.0625
13:28:33.159,-12.0625,-1.625
13:28:33.169,-10.375,2.875
13:28:33.189,-8.5,5.25
13:28:33.195,-7.6563,9.375
13:28:33.202,-6.375,10.75
13:28:33.209,-5.875,13.8126
13:28:33.226,-5.5625,15.0626
13:28:33.235,-4.4375,15.7501
13:28:33.240,-4.9688,17.3751
13:28:33.278,-4.9063,17.6876
13:28:33.281,-5.125,18.3751
13:28:33.282,-5.0313,18.4376
13:28:33.288,-4.9375,19.3126
13:28:33.292,-4.9688,19.0001
13:28:33.329,-5.2188,19.9376
13:28:33.334,-4.5,19.5001
13:28:33.334,-5.3438,20.1251
13:28:33.337,-5.0938,20.2501
13:28:33.342,-5.1563,19.5001
13:28:33.374,-5.9688,19.0001
13:28:33.376,-6.4375,18.8126
13:28:33.379,-6.1563,17.8751
13:28:33.384,-7.1875,16.6876
13:28:33.391,-7.875,15.7501
13:28:33.423,-7.875,14.8751
13:28:33.427,-8.625,13.5626
13:28:33.429,-9.5,12.625
13:28:33.432,-9.5625,12.375
13:28:33.467,-9.6875,11.125
13:28:33.470,-10.2813,10.75
13:28:33.484,-9.8125,10.3125
13:28:33.499,-9.0938,10.3125
13:28:33.500,-9.8125,9.3125
13:28:33.500,-10.125,8.625
13:28:33.503,-9.8438,9.5625
13:28:33.519,-10.4688,7.875
13:28:33.520,-10.6875,7.6875
13:28:33.529,-11.75,8.5
13:28:33.538,-11.3125,6.5
13:28:33.549,-11.875,4.75
13:28:33.559,-11.8125,4.875
13:28:33.569,-12.25,3.625
13:28:33.579,-13.0938,3.4375
13:28:33.591,-13.1876,3
13:28:33.599,-13.2188,1.5625
13:28:33.609,-13.6876,0.0625
13:28:33.620,-14.1251,-0.0625
13:28:33.630,-14.9688,-0.4375
13:28:33.639,-15.3438,-1.25
13:28:33.650,-15.2501,-2.6875
13:28:33.659,-15.6251,-3.875
13:28:33.669,-15.6251,-4.875
13:28:33.679,-16.2188,-5.5625
13:28:33.692,-16.5313,-6.5625
13:28:33.699,-16.9376,-6.3125
13:28:33.709,-17.4376,-7.3125
13:28:33.719,-17.2188,-8.875
13:28:33.729,-17.8751,-8.4375
13:28:33.739,-17.7188,-9.6875
13:28:33.751,-18.2813,-10.875
13:28:33.759,-17.8126,-10.4375
13:28:33.769,-17.9376,-11.4375
13:28:33.780,-18.4063,-11
13:28:33.789,-18.4688,-12
13:28:33.799,-18.1563,-12.9375
13:28:33.809,-19.1251,-12.5
13:28:33.819,-18.4376,-14.1876
13:28:33.830,-19.0313,-14.5626
13:28:33.839,-19.4063,-15.1876
13:28:33.852,-19.5313,-16.4376
13:28:33.860,-19.5313,-16.5626
13:28:33.869,-19.9376,-17.1251
13:28:33.881,-19.5626,-16.9376
13:28:33.889,-18.5001,-16.6876
13:28:33.899,-18.5626,-15.3126
13:28:33.911,-16.9688,-14.2501
13:28:33.919,-15.6251,-11.75
13:28:33.929,-14.0938,-8.0625
13:28:33.940,-11.8438,-5.3125
13:28:33.949,-10.125,-1.625
13:28:33.959,-8.1875,2.625
13:28:33.970,-6.8438,5.5625
13:28:33.979,-5.5938,8.5625
13:28:33.989,-5.1875,10.1875
13:28:34.005,-3.9375,12.8125
13:28:34.009,-4,13.8751
13:28:34.045,-2.9688,15.3751
13:28:34.046,-2.2188,16.6251
13:28:34.049,-2.125,18.0626
13:28:34.051,-1.9063,18.3126
13:28:34.059,-1.7188,18.6876
13:28:34.096,-1.5625,19.3126
13:28:34.098,-1,19.0626
13:28:34.101,-1.8125,19.0001
13:28:34.126,-1.625,19.4376
13:28:34.127,-2.25,18.6876
13:28:34.130,-2.1563,19.0001
13:28:34.137,-2.7188,18.2501
13:28:34.139,-3.4063,18.1876
13:28:34.177,-4,17.8751
13:28:34.181,-4.6875,16.1251
13:28:34.182,-5.0625,14.3126
13:28:34.184,-6.0313,13.6251
13:28:34.189,-5.4375,13
13:28:34.203,-6.875,11.25
13:28:34.209,-8.1563,10.3125
13:28:34.219,-8.1875,9.9375
13:28:34.229,-8.875,8.8125
13:28:34.239,-9.3438,8.9375
13:28:34.249,-9.7188,8.75
13:28:34.260,-9.625,8.125
13:28:34.269,-9.5938,7.3125
13:28:34.279,-9.9063,6.9375
13:28:34.289,-10.0938,6.8125
13:28:34.299,-10.1563,6.125
13:28:34.311,-10.5313,6.0625
13:28:34.319,-10.3438,5.3125
13:28:34.329,-11.4375,4.9375
13:28:34.342,-11.0625,4.125
13:28:34.349,-11.9688,2.125
13:28:34.359,-12.2813,3
13:28:34.369,-12.3438,1.875
13:28:34.378,-12.25,0.625
13:28:34.389,-12.75,1.1875
13:28:34.399,-13.0625,-0.5625
13:28:34.409,-13.0313,-2.25
13:28:34.419,-13.3438,-1.6875
13:28:34.429,-13.125,-3.1875
13:28:34.439,-14.1251,-3.4375
13:28:34.449,-14.0001,-4.625
13:28:34.459,-15.1876,-5.9375
13:28:34.470,-15.2813,-4.9375
13:28:34.480,-15.3751,-6.75
13:28:34.489,-15.5001,-7.9375
13:28:34.499,-16.0001,-8.625
13:28:34.509,-16.3751,-9.625
13:28:34.525,-16.1251,-9.1875
13:28:34.533,-16.0626,-10.5
13:28:34.570,-17.0313,-10.625
13:28:34.571,-16.7813,-11.5
13:28:34.587,-17.3438,-11.3125
13:28:34.587,-16.9688,-12.4375
13:28:34.588,-17.8126,-12.6875
13:28:34.590,-17.5938,-12.75
13:28:34.599,-17.7188,-13.6251
13:28:34.611,-17.8126,-14.0001
13:28:34.619,-18.4688,-14.1251
13:28:34.629,-18.4688,-15.2501
13:28:34.639,-18.3126,-16.0001
13:28:34.649,-19.0938,-15.7501
13:28:34.659,-18.5626,-15.7501
13:28:34.669,-18.1251,-15.8751
13:28:34.679,-16.7501,-13.125
13:28:34.692,-15.8126,-11.75
13:28:34.699,-14.5938,-8.9375
13:28:34.709,-12.5625,-5.0625
13:28:34.721,-10.6563,-1.5625
13:28:34.751,-10.125,1.9375
13:28:34.752,-8.375,5
13:28:34.755,-7.875,7.3125
13:28:34.759,-6.7813,10.0625
13:28:34.792,-5.6563,11.375
13:28:34.794,-6.25,12.875
13:28:34.810,-5.4063,13.5626
13:28:34.845,-5.9375,14.5626
13:28:34.848,-5.75,14.1876
13:28:34.910,-5.9375,14.5001
13:28:34.913,-5.6875,15.6876
13:28:34.918,-6,15.7501
13:28:34.919,-6.1563,15.2501
13:28:34.919,-5.7813,15.4376
13:28:34.925,-6.2813,15.1251
13:28:34.935,-6.5625,15.6251
13:28:34.944,-6.2813,14.8126
13:28:34.955,-6.9375,14.6251
13:28:34.964,-7.875,14.3751
13:28:34.974,-7.9375,12.875
13:28:34.984,-8.875,11.9375
13:28:34.996,-9.3438,11.1875
13:28:35.004,-9.375,9.8125
13:28:35.014,-10.625,8.8125
13:28:35.024,-10.9688,7.5625
13:28:35.034,-11.1875,7.0625
13:28:35.045,-11.25,7.125
13:28:35.056,-12.0313,5.5
13:28:35.064,-12.125,4.875
13:28:35.074,-12.9063,4.375
13:28:35.084,-16.5001,0.8125
13:28:35.094,-17.7501,0.5
13:28:35.104,-18.0001,0.0625
13:28:35.114,-17.5626,-1.125
13:28:35.124,-18.2813,-2.625
13:28:35.135,-17.9063,-2.125
13:28:35.144,-18.0001,-3.25
13:28:35.153,-18.6251,-3.5625
13:28:35.166,-17.6876,-4.0625
13:28:35.174,-18.1563,-4.6875
13:28:35.184,-18.0001,-4.625
13:28:35.194,-17.9376,-5.9375
13:28:35.204,-17.8751,-6.9375
13:28:35.214,-17.1251,-6.1875
13:28:35.225,-17.7501,-7.5625
13:28:35.234,-18.0313,-8.25
13:28:35.247,-17.4688,-8.6875
13:28:35.254,-18.0001,-8.9375
13:28:35.264,-18.3751,-9.5625
13:28:35.276,-18.1876,-10.625
13:28:35.284,-18.5938,-10.5
13:28:35.294,-18.3126,-11.625
13:28:35.306,-17.8751,-11.875
13:28:35.315,-18.1876,-12.25
13:28:35.324,-17.3438,-13.125
13:28:35.334,-18.4063,-13.5626
13:28:35.345,-18.1251,-13.4376
13:28:35.354,-17.7501,-14.4376
13:28:35.364,-18.4063,-14.3126
13:28:35.375,-18.1876,-14.8126
13:28:35.385,-18.1876,-15.0001
13:28:35.394,-18.7188,-16.3751
13:28:35.405,-18.6563,-16.3126
13:28:35.414,-18.9688,-16.3751
13:28:35.424,-17.9376,-15.5626
13:28:35.434,-17.3438,-14.4376
13:28:35.444,-15.5313,-11.6875
13:28:35.454,-13.9063,-9.0625
13:28:35.464,-12.5,-4.75
13:28:35.474,-10.8438,-1.5625
13:28:35.484,-9,1.6875
13:28:35.495,-8.2188,5.5625
13:28:35.504,-6.5938,7.5
13:28:35.525,-6.3125,9.0625
13:28:35.527,-5.9688,12.4375
13:28:35.564,-5.1875,12.4375
13:28:35.565,-5.2188,13.3751
13:28:35.568,-5.25,14.1876
13:28:35.571,-5.9063,14.6251
13:28:35.577,-5.0625,14.9376
13:28:35.611,-5.375,15.5001
13:28:35.612,-5.625,15.6876
13:28:35.615,-6.1875,15.5626
13:28:35.650,-5.9375,15.8751
13:28:35.650,-6.1875,16.1876
13:28:35.652,-5.875,16.1876
13:28:35.658,-5.9688,15.5001
13:28:35.659,-6.125,16.0001
13:28:35.669,-7,14.7501
13:28:35.675,-8.2188,14.0626
13:28:35.704,-8.3438,13.1251
13:28:35.708,-9.2188,12.5625
13:28:35.709,-10.0313,12.1875
13:28:35.715,-10.5313,9.875
13:28:35.724,-11.0313,8.9375
13:28:35.736,-11.375,8.875
13:28:35.744,-11.5938,7.25
13:28:35.754,-12,7.3125
13:28:35.765,-11.8438,7.125
13:28:35.774,-11.9063,6.3125
13:28:35.785,-12.6875,5.625
13:28:35.794,-12.5313,6.0625
13:28:35.804,-12.5313,5.1875
13:28:35.816,-12.5313,4.5
13:28:35.839,-13.2501,4.375
13:28:35.855,-13.0313,3.375
13:28:35.870,-13.6876,3.5
13:28:35.871,-13.9376,2.5
13:28:35.886,-14.3126,1.5625
13:28:35.889,-14.5313,1.25
13:28:35.904,-14.5938,0.0625
13:28:35.909,-14.5626,-0.1875
13:28:35.911,-13.8438,-0.3125
13:28:35.915,-14.4688,-0.625
13:28:35.924,-14.7501,-0.3125
13:28:35.934,-14.1563,-2.1875
13:28:35.946,-14.0313,-2.8125
13:28:35.954,-13.7501,-2.8125
13:28:35.964,-12.9688,-3.4375
13:28:35.975,-14.0313,-4.5625
13:28:35.984,-14.4376,-4.125
13:28:35.994,-14.5938,-5.8125
13:28:36.007,-14.9376,-6.8125
13:28:36.014,-15.0001,-6.75
13:28:36.024,-14.6251,-7.75
13:28:36.036,-15.1563,-8.6875
13:28:36.044,-15.0938,-8.4375
13:28:36.056,-14.9063,-8.9375
13:28:36.064,-15.2813,-10.125
13:28:36.079,-15.3751,-9.5625
13:28:36.084,-15.6876,-10.625
13:28:36.094,-15.6251,-10.6875
13:28:36.105,-15.5938,-11.8125
13:28:36.121,-15.7813,-11.8125
13:28:36.129,-16.3126,-12.9375
13:28:36.139,-16.1251,-13.2501
13:28:36.149,-17.1876,-13.8751
13:28:36.164,-17.0001,-14.3126
13:28:36.171,-16.7188,-13.3751
13:28:36.182,-15.7813,-13.0625
13:28:36.195,-15.0001,-10.875
13:28:36.201,-12.5313,-8.0625
13:28:36.217,-11.4688,-4
13:28:36.219,-9.0625,-1
13:28:36.230,-8.0625,3.3125
13:28:36.261,-6.3438,5.9375
13:28:36.264,-5.7813,8.1875
13:28:36.265,-4.4375,10.5625
13:28:36.271,-3.9063,12.3125
13:28:36.302,-2.7813,14.1251
13:28:36.306,-2.6875,16.6251
13:28:36.307,-2.3438,15.8751
13:28:36.313,-2.5,17.1876
13:28:36.325,-1.7813,17.1876
13:28:36.330,-2.2188,17.4376
13:28:36.358,-1.5313,17.9376
13:28:36.360,-1.9688,17.2501
13:28:36.363,-2.2813,17.6251
13:28:36.369,-2.125,17.5626
13:28:36.396,-2.6563,17.8126
13:28:36.398,-2.3125,17.8126
13:28:36.400,-3.1875,17.3126
13:28:36.409,-3.75,16.7501
13:28:36.419,-4.3438,15.2501
13:28:36.429,-5.5938,14.8751
13:28:36.439,-6.2813,13.7501
13:28:36.454,-7.1563,12.5
13:28:36.459,-8.0313,11.4375
13:28:36.469,-8.1563,9.9375
13:28:36.479,-8.4688,9.75
13:28:36.489,-7.9375,8.625
13:28:36.499,-9.1563,8.5
13:28:36.509,-9.6563,8.625
13:28:36.519,-9.1563,7.375
13:28:36.531,-10,8.4375
13:28:36.539,-9.5938,7.1875
13:28:36.549,-10.0313,6.3125
13:28:36.560,-9.9375,6.8125
13:28:36.568,-10.5938,5.5625
13:28:36.582,-10.8438,5.5
13:28:36.589,-11.4063,3.8125
13:28:36.599,-12.0313,4.4375
13:28:36.609,-11.25,3.75
13:28:36.619,-11.7813,2.0625
13:28:36.629,-12.6875,2.9375
13:28:36.639,-12.4375,1.0625
13:28:36.649,-12.8125,0.6875
13:28:36.660,-12.5,0.625
13:28:36.669,-12.9063,-0.6875
13:28:36.679,-13.6563,-1.375
13:28:36.689,-12.9688,-2
13:28:36.699,-13.9376,-2.3125
13:28:36.710,-13.6563,-3.25
13:28:36.720,-13.6563,-4.25
13:28:36.729,-13.7188,-4.3125
13:28:36.742,-13.6876,-4.375
13:28:36.749,-13.8126,-5.625
13:28:36.759,-13.8438,-5.875
13:28:36.769,-13.9063,-6.875
13:28:36.778,-14.7813,-7.9375
13:28:36.789,-15.0626,-7.75
13:28:36.800,-15.4376,-9
13:28:36.808,-16.2501,-8.3125
13:28:36.819,-15.6876,-9.6875
13:28:36.829,-16.1876,-10.375
13:28:36.839,-16.1251,-11.5625
13:28:36.849,-15.8126,-10.9375
13:28:36.859,-15.2813,-12.125
13:28:36.870,-15.3438,-11.6875
13:28:36.879,-14.7813,-11.1875
13:28:36.889,-14.2188,-9.8125
13:28:36.902,-13.3751,-10.3125
13:28:36.909,-12.0313,-7.4375
13:28:36.920,-10.125,-5.25
13:28:36.929,-8.0313,-1.125
13:28:36.939,-6.5625,1.1875
13:28:36.951,-4.9688,6.1875
13:28:36.959,-3.3125,8
13:28:36.972,-2.5625,11.5625
13:28:36.981,-1.2188,12.875
13:28:36.989,-1.0625,15.7501
13:28:37.017,-0.5,15.5626
13:28:37.020,-0.4063,17.8126
13:28:37.022,0.0938,17.1251
13:28:37.030,-0.375,18.8751
13:28:37.062,-0.0938,17.9376
13:28:37.065,-0.5938,19.3751
13:28:37.069,-0.0313,18.6251
13:28:37.072,-0.8125,19.9376
13:28:37.106,-0.3125,19.1251
13:28:37.109,-0.4063,19.6251
13:28:37.111,-0.7813,20.0626
13:28:37.129,-1.3125,20.1251
13:28:37.129,-0.8438,19.5001
13:28:37.131,-1.125,19.8126
13:28:37.162,-1.4688,18.7501
13:28:37.165,-1.5,17.5001
13:28:37.180,-2.375,16.9376
13:28:37.194,-2.375,16.1251
13:28:37.194,-3.375,15.1876
13:28:37.195,-3.8438,14.6876
13:28:37.200,-4,13.3126
13:28:37.211,-5.0625,12.1875
13:28:37.221,-4.9063,12.75
13:28:37.229,-4.875,11.875
13:28:37.239,-5.0313,12.1875
13:28:37.249,-4.6875,11.9375
13:28:37.259,-5.5,12.0625
13:28:37.269,-5.4063,11.5
13:28:37.279,-5.2188,10.6875
13:28:37.289,-5.75,11.5
13:28:37.302,-5.3125,9.9375
13:28:37.309,-6.1875,9.9375
13:28:37.319,-5.4688,9.125
13:28:37.329,-5.6563,8.375
13:28:37.339,-6.4375,7.3125
13:28:37.348,-6.2188,7.3125
13:28:37.359,-7.0313,5.9375
13:28:37.369,-7.8438,6.0625
13:28:37.379,-7.6875,4.3125
13:28:37.389,-9.0938,4.0625
13:28:37.399,-9.0313,3.3125
13:28:37.408,-9.4375,1.3125
13:28:37.419,-9.2813,1.9375
13:28:37.429,-9.8438,-0.3125
13:28:37.439,-10.125,0.0625
13:28:37.451,-10.2813,-1.5625
13:28:37.459,-10.3438,-1.125
13:28:37.483,-10.25,-2.125
13:28:37.486,-10.2188,-2.0625
13:28:37.499,-10.625,-3.375
13:28:37.501,-11.2188,-3.1875
13:28:37.509,-10.4063,-4.1875
13:28:37.520,-11.375,-5.1875
13:28:37.529,-12.5313,-5
13:28:37.539,-12.5625,-6.3125
13:28:37.551,-12.875,-7
13:28:37.559,-13.4063,-7.875
13:28:37.568,-13.0938,-8.125
13:28:37.584,-13.6876,-8.4375
13:28:37.589,-13.3438,-8.875
13:28:37.599,-14.3751,-9.5
13:28:37.609,-14.0938,-10.4375
13:28:37.617,-13.8438,-10.9375
13:28:37.633,-14.1563,-11.125
13:28:37.639,-14.0938,-10.4375
13:28:37.650,-13.3751,-9.9375
13:28:37.659,-12.7188,-8.875
13:28:37.669,-11.375,-6.375
13:28:37.681,-10.0313,-3.1875
13:28:37.689,-8,-0.1875
13:28:37.699,-6.4375,3.625
13:28:37.708,-4.6875,6.4375
13:28:37.744,-4.375,9.5
13:28:37.747,-3.125,11.375
13:28:37.749,-2.2813,12.9375
13:28:37.754,-2.5625,14.5001
13:28:37.759,-2.3125,14.8126
13:28:37.789,-2.75,15.7501
13:28:37.791,-2.5313,15.7501
13:28:37.794,-2.9063,17.0001
13:28:37.800,-2.7188,16.5626
13:28:37.834,-3.4063,16.5001
13:28:37.837,-2.7813,16.7501
13:28:37.839,-3.1875,16.5626
13:28:37.841,-2.9375,16.8126
13:28:37.876,-3.0313,16.8126
13:28:37.879,-3.2813,17.1876
13:28:37.880,-3.2813,16.8126
13:28:37.902,-4.0625,17.0001
13:28:37.904,-4.2813,15.8751
13:28:37.906,-4.6875,15.1251
13:28:37.910,-5.25,14.0001
13:28:37.919,-5.7188,13.1876
13:28:37.929,-6.1563,12.8125
13:28:37.938,-6.75,11.5625
13:28:37.949,-6.7813,10.5625
13:28:37.963,-6.7813,10.375
13:28:37.969,-7.3125,9.375
13:28:37.979,-7.9375,9.9375
13:28:37.988,-7.6563,9
13:28:37.999,-7.6875,8.0625
13:28:38.010,-8.2188,8.8125
13:28:38.019,-8.0938,7.125
13:28:38.029,-8.125,7.125
13:28:38.038,-8.125,7.4375
13:28:38.049,-8.9063,5.8125
13:28:38.059,-9,5.25
13:28:38.068,-8.375,4.5625
13:28:38.079,-9.375,3.9375
13:28:38.088,-9.9063,3.625
13:28:38.098,-9.9688,1.75
13:28:38.111,-10.875,2.375
13:28:38.119,-10.9688,0.5625
13:28:38.129,-11.2188,-0.125
13:28:38.139,-11.3438,-0.6875
13:28:38.149,-11.75,-2.375
13:28:38.161,-12.5313,-2.625
13:28:38.169,-12.1875,-4.0625
13:28:38.179,-12.8125,-5
13:28:38.189,-13.125,-4.9375
13:28:38.199,-13.1563,-6.625
13:28:38.208,-14.1876,-8.0625
13:28:38.219,-13.9063,-7.875
13:28:38.230,-14.6876,-8.875
13:28:38.239,-15.0626,-9.625
13:28:38.248,-14.4376,-10.25
13:28:38.261,-15.3126,-11
13:28:38.268,-15.5001,-10.75
13:28:38.279,-15.2813,-11.875
13:28:38.289,-15.9688,-12.875
13:28:38.299,-15.9063,-13.2501
13:28:38.308,-16.5626,-14.3751
13:28:38.319,-16.3126,-14.1876
13:28:38.329,-16.5001,-15.6876
13:28:38.338,-16.7813,-15.1876
13:28:38.348,-17.3751,-16.5626
13:28:38.359,-17.3438,-16.6876
13:28:38.367,-17.5626,-17.7501
13:28:38.398,-18.0938,-18.8751
13:28:38.400,-18.2188,-19.1876
13:28:38.403,-18.6563,-19.8751
13:28:38.433,-19.0626,-20.1876
13:28:38.434,-19.0938,-19.9376
13:28:38.437,-19.0001,-19.8751
13:28:38.440,-18.5938,-19.6876
13:28:38.478,-18.4688,-18.1251
13:28:38.480,-16.6563,-14.7501
13:28:38.512,-15.2813,-11.9375
13:28:38.514,-13.0313,-8.1875
13:28:38.516,-11.4688,-4.9375
13:28:38.518,-9.8125,-1.6875
13:28:38.518,-8.2813,1
13:28:38.524,-7.5625,3.3125
13:28:38.549,-7.4063,4.5
13:28:38.554,-6.9375,6
13:28:38.555,-6.2813,7.3125
13:28:38.563,-6.4688,7.75
13:28:38.574,-6.2188,7.9375
13:28:38.584,-6.2188,8.625
13:28:38.592,-5.6875,8.5625
13:28:38.606,-6.4375,8.6875
13:28:38.614,-6.0938,8.5
13:28:38.624,-5.6563,9.25
13:28:38.633,-5.875,8.8125
13:28:38.646,-5.5625,9.1875
13:28:38.656,-5.5938,9.375
13:28:38.662,-6.1875,8.8125
13:28:38.674,-6.5625,7.9375
13:28:38.684,-7.5313,7.3125
13:28:38.693,-7.9063,5.75
13:28:38.704,-8.5313,5.3125
13:28:38.712,-8.5,4.5
13:28:38.724,-9.2813,3.75
13:28:38.735,-9.125,3
13:28:38.743,-9.5313,2.0625
13:28:38.754,-9.5,2.25
13:28:38.762,-9.2188,1.0625
13:28:38.779,-9.375,0.875
13:28:38.794,-9.4063,1.9375
13:28:38.798,-9.625,0.375
13:28:38.810,-10.1875,0.1875
13:28:38.820,-9.4688,0.1875
13:28:38.829,-10.125,-0.375
13:28:38.839,-10.6875,-0.1875
13:28:38.849,-10.3438,-0.875
13:28:38.862,-11.0313,-1.5625
13:28:38.869,-10.9063,-2.1875
13:28:38.880,-11.8125,-2.875
13:28:38.889,-12.375,-3.25
13:28:38.902,-11.9375,-3.9375
13:28:38.913,-12.5938,-4.9375
13:28:38.923,-12.9063,-5.1875
13:28:38.934,-13.0938,-6.0625
13:28:38.943,-13.5938,-7.0625
13:28:38.954,-14.2501,-7.9375
13:28:38.965,-14.4376,-8
13:28:38.974,-15.0001,-9.25
13:28:38.983,-15.3438,-8.625
13:28:38.994,-14.7813,-9.75
13:28:39.003,-15.5001,-9.8125
13:28:39.014,-15.9376,-10.4375
13:28:39.024,-16.7188,-11.25
13:28:39.034,-18.0313,-12.6875
13:28:39.043,-19.0626,-12.8125
13:28:39.054,-20.8438,-14.7501
13:28:39.062,-24.5001,-17.8126
13:28:39.072,-25.9376,-19.2501
13:28:39.087,-26.8126,-20.5626
13:28:39.095,-28.6876,-21.3126
13:28:39.103,-28.5001,-22.1251
13:28:39.114,-30.0939,-22.4376
13:28:39.123,-32.6876,-24.4376
13:28:39.133,-38.3126,-26.7501
13:28:39.143,-42.0627,-29.5001
13:28:39.153,-45.4689,-28.2501
13:28:39.165,-48.0939,-29.8126
13:28:39.194,-49.4377,-27.6876
13:28:39.195,-51.0314,-26.2501
13:28:39.197,-52.7502,-24.8126
13:28:39.204,-52.5002,-21.8126
13:28:39.238,-52.6252,-19.4376
13:28:39.240,-52.5314,-17.0626
13:28:39.242,-52.5315,-14.4376
13:28:39.250,-51.5314,-12.3125
13:28:39.273,-52.3752,-11.75
13:28:39.277,-53.6252,-11.125
13:28:39.282,-56.8127,-11.375
13:28:39.306,-57.1252,-12.125
13:28:39.309,-56.3752,-10.4375
13:28:39.311,-55.469,-9.1875
13:28:39.344,-55.719,-9.1875
13:28:39.347,-56.094,-9.0625
13:28:39.352,-57.0002,-9.25
13:28:39.352,-57.4377,-9.125
13:28:39.359,-57.094,-9.5625
13:28:39.368,-57.094,-9
13:28:39.377,-56.5002,-9.25
13:28:39.391,-56.1877,-8.875
13:28:39.399,-55.4065,-9.3125
13:28:39.409,-55.1877,-8.9375
13:28:39.418,-55.1877,-10.0625
13:28:39.427,-56.2815,-10.375
13:28:39.438,-55.7502,-10.625
13:28:39.449,-55.844,-11.25
13:28:39.464,-55.219,-11.1875
13:28:39.469,-54.8752,-12
13:28:39.478,-54.4065,-11.0625
13:28:39.489,-54.0627,-12.125
13:28:39.498,-52.6252,-11.0625
13:28:39.508,-51.6877,-10.9375
13:28:39.519,-50.9064,-10.5
13:28:39.529,-50.3127,-10.0625
13:28:39.538,-50.3439,-9.9375
13:28:39.550,-50.0002,-10
13:28:39.558,-49.5314,-10.5625
13:28:39.567,-49.6252,-10.125
13:28:39.580,-49.0939,-10.6875
13:28:39.589,-48.1877,-11.4375
13:28:39.600,-48.1877,-10.9375
13:28:39.608,-47.1564,-10.9375
13:28:39.618,-46.5627,-10.9375
