timestamp,Red,IR
13:24:46.069,2.0938,-4.9375
13:24:46.079,2.0938,-5.0625
13:24:46.091,1.5625,-5.375
13:24:46.099,0.4688,-5.875
13:24:46.110,-0.4688,-6.625
13:24:46.120,-1.5,-7.6875
13:24:46.130,-2.8125,-8.875
13:24:46.140,-3.1875,-9.3125
13:24:46.150,-2.9375,-8.8125
13:24:46.159,-3.0938,-8
13:24:46.169,-3.9063,-8.75
13:24:46.179,-3.9375,-9.9375
13:24:46.190,-3.5938,-11.375
13:24:46.199,-4.5625,-11.9375
13:24:46.209,-5.9688,-12.75
13:24:46.219,-6.4688,-13.5001
13:24:46.229,-7.125,-14.5626
13:24:46.240,-7.5625,-14.2501
13:24:46.249,-6.9063,-14.8751
13:24:46.260,-7.7188,-15.3126
13:24:46.269,-7.2813,-14.8126
13:24:46.279,-7.4375,-15.8126
13:24:46.290,-7.5625,-15.3751
13:24:46.300,-7.125,-16.3126
13:24:46.309,-7.8438,-15.4376
13:24:46.319,-8.1563,-16.5626
13:24:46.339,-9.0938,-16.2501
13:24:46.345,-8.125,-17.3751
13:24:46.361,-7.0313,-15.4376
13:24:46.364,-7.1875,-16.7501
13:24:46.372,-7.7188,-16.0001
13:24:46.380,-8.5625,-17.3751
13:24:46.391,-8.9063,-16.6251
13:24:46.399,-9.4375,-18.5001
13:24:46.409,-9.4688,-17.0626
13:24:46.419,-9.4688,-18.2501
13:24:46.430,-9.375,-17.4376
13:24:46.439,-9.9688,-18.6251
13:24:46.457,-10.875,-17.9376
13:24:46.460,-10.75,-19.1251
13:24:46.490,-12.1563,-18.5626
13:24:46.492,-12.8438,-20.5001
13:24:46.494,-14.1876,-20.3126
13:24:46.501,-14.2501,-21.7501
13:24:46.529,-14.5313,-22.4376
13:24:46.531,-14.2501,-21.2501
13:24:46.535,-14.4688,-22.0626
13:24:46.539,-14.5001,-21.7501
13:24:46.557,-14.3126,-22.6876
13:24:46.561,-14.0938,-22.4376
13:24:46.593,-14.2813,-22.9376
13:24:46.596,-13.0938,-20.6251
13:24:46.598,-11.3438,-19.2501
13:24:46.605,-7.6563,-15.5626
13:24:46.611,-3.375,-11.3125
13:24:46.636,0.9375,-5.0625
13:24:46.637,5.4063,-0.8125
13:24:46.639,7.8438,3.875
13:24:46.651,9.9688,5.875
13:24:46.660,10.7813,7.25
13:24:46.670,11.1563,7.8125
13:24:46.679,10,7.25
13:24:46.689,9.9063,6.875
13:24:46.719,9.1875,6.1875
13:24:46.722,9.1563,5.4375
13:24:46.724,7.8438,4.0625
13:24:46.732,6,2.0625
13:24:46.739,4.5313,1.625
13:24:46.750,9.75,4.75
13:24:46.759,5.0938,1.125
13:24:46.769,0.9063,-1.8125
13:24:46.780,2.4063,-2.375
13:24:46.790,5.3125,1.4375
13:24:46.801,4.125,0.4375
13:24:46.809,1.9688,-2.5625
13:24:46.819,2.2188,-2.6875
13:24:46.830,2.5,-1.0625
13:24:46.840,1.8125,-2.0625
13:24:46.849,0.8438,-4.6875
13:24:46.860,1.4688,-3.6875
13:24:46.898,2.75,-2
13:24:46.900,2.8125,-2.375
13:24:46.901,4.125,-2.375
13:24:46.909,3.9688,-1.625
13:24:46.914,4.6875,-0.4375
13:24:46.925,5.6875,0.375
13:24:46.934,6.4063,-0.1875
13:24:46.945,6.7188,0.875
13:24:46.953,7.0625,0.875
13:24:46.965,7.375,0.3125
13:24:46.974,6.7188,-0.375
13:24:46.986,7.4063,1.0625
13:24:46.994,7.125,0.625
13:24:47.010,7,-0.0625
13:24:47.014,7.5,-0.375
13:24:47.025,6.8125,-0.375
13:24:47.035,6.5,-1.9375
13:24:47.044,5.1875,-3.25
13:24:47.054,4.5938,-2.875
13:24:47.064,4.2188,-3.8125
13:24:47.075,3.3125,-5.5625
13:24:47.085,3.7188,-4.6875
13:24:47.095,4,-5.5
13:24:47.104,3.6875,-5.625
13:24:47.114,3.9375,-5.3125
13:24:47.124,2,-7.8125
13:24:47.134,3.0625,-6.9375
13:24:47.143,1.9375,-6.6875
13:24:47.154,1.7813,-7.5625
13:24:47.165,2.0625,-8.375
13:24:47.181,2.2188,-8.6875
13:24:47.184,3.2188,-7.375
13:24:47.215,3.1875,-8.4375
13:24:47.246,2.3438,-7.5625
13:24:47.251,2.6875,-8.375
13:24:47.252,2.8438,-8.9375
13:24:47.257,1.5625,-8.125
13:24:47.260,1.4063,-9.5
13:24:47.260,1.5,-10.0625
13:24:47.273,1.1875,-9.375
13:24:47.274,1.875,-10.5
13:24:47.308,0.1563,-11.625
13:24:47.309,-0.75,-10.0625
13:24:47.312,-0.625,-12.0625
13:24:47.317,-1.1875,-11.4375
13:24:47.325,-0.625,-12.1875
13:24:47.351,-0.875,-13
13:24:47.355,-1,-11.8125
13:24:47.355,0.375,-11.25
13:24:47.366,1.4375,-10.25
13:24:47.375,3.7813,-6.5
13:24:47.384,6.7813,-1.6875
13:24:47.393,10.0625,2.25
13:24:47.405,12.25,6.0625
13:24:47.415,14.3126,9.1875
13:24:47.424,15.5313,11.8125
13:24:47.436,16.5938,13.9376
13:24:47.444,16.5313,16.3126
13:24:47.454,16.6563,15.9376
13:24:47.463,15.7813,15.5626
13:24:47.474,15.6876,14.8126
13:24:47.485,14.1876,14.3751
13:24:47.495,12.9063,13.2501
13:24:47.503,12.3438,11
13:24:47.515,11.5313,9.9375
13:24:47.526,10.625,9.9375
13:24:47.534,9.75,8.4375
13:24:47.545,8.0938,8.0625
13:24:47.554,9.625,8.8125
13:24:47.565,8.25,7.8125
13:24:47.574,8.5313,8.1875
13:24:47.585,7,7.375
13:24:47.594,6.625,6.875
13:24:47.605,6.3125,6.8125
13:24:47.615,5.5625,5.125
13:24:47.624,4.8438,4.1875
13:24:47.647,4.375,3.375
13:24:47.650,3.875,4.125
13:24:47.665,3.7813,4
13:24:47.670,3.9688,3.125
13:24:47.674,4.6563,2.8125
13:24:47.685,4.9688,4.375
13:24:47.695,5.0313,4.8125
13:24:47.706,5.9375,4.75
13:24:47.714,6.2813,5.1875
13:24:47.723,6.375,5.9375
13:24:47.735,6.875,6.75
13:24:47.745,7.4375,5.75
13:24:47.760,7.1875,5.0625
13:24:47.764,7.125,4.875
13:24:47.774,6.6875,4.75
13:24:47.785,7.4063,5.375
13:24:47.797,6.5313,3.75
13:24:47.805,6.9063,3.3125
13:24:47.813,6.3125,3.625
13:24:47.823,6.4375,3.5625
13:24:47.835,6.25,1.8125
13:24:47.844,6.2813,1.4375
13:24:47.854,5.2188,1.625
13:24:47.866,5.4375,1.375
13:24:47.874,5.0625,-0.3125
13:24:47.885,3.7813,-1.75
13:24:47.893,3.875,-2.6875
13:24:47.905,3.1563,-1.1875
13:24:47.913,4.1875,-2.6875
13:24:47.925,3.25,-3.1875
13:24:47.956,3.625,-2.9375
13:24:47.958,3.4375,-2.75
13:24:47.960,2.8438,-3.75
13:24:47.964,1.8125,-4.125
13:24:47.999,1.9063,-4.8125
13:24:48.001,1.3438,-5.6875
13:24:48.003,0.1563,-6.5
13:24:48.007,0.1875,-5.4375
13:24:48.043,0.7813,-6.5
13:24:48.045,0.4375,-7
13:24:48.047,1.3125,-5.625
13:24:48.079,1.5938,-5.8125
13:24:48.080,1.4688,-6.8125
13:24:48.082,1.375,-7.375
13:24:48.084,1.0313,-7.5625
13:24:48.090,-0.3125,-7.75
13:24:48.099,-0.5938,-8.625
13:24:48.104,-0.8125,-9.875
13:24:48.115,-1.9375,-10.8125
13:24:48.124,-2.0313,-10.75
13:24:48.134,-2.5938,-11.5
13:24:48.144,-3.75,-11.5625
13:24:48.156,-3.2188,-12.6875
13:24:48.163,-3.625,-13.0625
13:24:48.174,-4.3438,-12.375
13:24:48.184,-3.8125,-13.2501
13:24:48.195,-4.0938,-13.9376
13:24:48.206,-4.9375,-14.5626
13:24:48.214,-5.7188,-15.0626
13:24:48.225,-5.6875,-15.4376
13:24:48.234,-5.4063,-16.5626
13:24:48.245,-5.75,-15.9376
13:24:48.254,-3.9375,-15.1251
13:24:48.264,-1.625,-12.875
13:24:48.276,1.5625,-8.75
13:24:48.284,5.3438,-3.125
13:24:48.295,9.3125,2.875
13:24:48.304,12.375,8.3125
13:24:48.314,15.1563,13
13:24:48.324,17.7813,16.2501
13:24:48.336,18.9688,20.0001
13:24:48.344,19.8438,20.9376
13:24:48.354,19.5001,21.6251
13:24:48.364,19.0626,22.1251
13:24:48.375,18.0938,19.7501
13:24:48.385,17.5001,19.8751
13:24:48.394,16.0938,17.6251
13:24:48.404,15.6251,17.8126
13:24:48.414,15.0938,16.1876
13:24:48.426,14.1876,15.5626
13:24:48.434,14.1251,15.3126
13:24:48.444,13.1251,15.1876
13:24:48.454,12.9375,16.0001
13:24:48.464,13.7501,14.8126
13:24:48.474,13.1875,14.8751
13:24:48.483,14.5001,16.4376
13:24:48.495,15.0313,16.1251
13:24:48.512,15.2501,16.5626
13:24:48.527,14.4376,16.5626
13:24:48.530,14.8126,15.2501
13:24:48.536,14.3126,14.5001
13:24:48.544,13.2188,14.3126
13:24:48.553,13.9376,13.8126
13:24:48.563,12.625,13.3126
13:24:48.574,13.2813,14.0626
13:24:48.585,14.0938,14.6876
13:24:48.594,14.2813,14.6251
13:24:48.603,14.2501,14.8751
13:24:48.614,14.1876,15.8751
13:24:48.624,14.2188,15.0001
13:24:48.633,14.2813,14.0626
13:24:48.644,12.9375,13.5001
13:24:48.655,12.0625,13.8751
13:24:48.674,12.4063,12.875
13:24:48.677,12.3125,12.625
13:24:48.709,11.3125,11.4375
13:24:48.711,10.375,12.3125
13:24:48.713,9.875,10.5
13:24:48.716,9.3438,9.1875
13:24:48.751,8.2813,8.0625
13:24:48.753,7.6563,7.375
13:24:48.758,7.2813,7.75
13:24:48.762,7.7813,6.5625
13:24:48.765,6.5938,5.5625
13:24:48.794,6.0313,5.9375
13:24:48.795,6.4063,4.3125
13:24:48.798,5.375,3.625
13:24:48.805,4.9688,3.5
13:24:48.841,4.3438,3.125
13:24:48.843,4.5,2.5625
13:24:48.845,4.4375,1
13:24:48.848,3.1563,1.3125
13:24:48.854,2.2813,1.125
13:24:48.865,2.5625,-0.25
13:24:48.874,1.9375,-1.5625
13:24:48.884,1.8438,-0.5625
13:24:48.895,2.0938,-1.8125
13:24:48.903,1.3438,-2.25
13:24:48.916,1.0313,-2.875
13:24:48.924,0.375,-2.5
13:24:48.944,1.0313,-3.3125
13:24:48.949,0.1875,-4
13:24:48.963,-0.0625,-4.1875
13:24:48.968,-0.1563,-3.6875
13:24:48.975,-0.75,-5.1875
13:24:48.984,-0.8125,-6
13:24:48.994,-0.9375,-5.5
13:24:49.003,-1.375,-5.6875
13:24:49.014,-0.8125,-6.875
13:24:49.024,-1.3125,-6.875
13:24:49.034,-0.6875,-7.125
13:24:49.043,-1.9688,-8.375
13:24:49.056,-2.0313,-7.625
13:24:49.064,-1.125,-8.5625
13:24:49.079,-0.3438,-7.5
13:24:49.089,1.7188,-4.4375
13:24:49.099,4.6563,-1.6875
13:24:49.109,7.8438,3.125
13:24:49.118,10.9375,9.125
13:24:49.128,14.1876,12.75
13:24:49.139,16.2813,18.0001
13:24:49.150,18.2501,20.2501
13:24:49.158,18.8751,23.8751
13:24:49.170,19.6876,24.0626
13:24:49.178,19.0626,23.1876
13:24:49.189,18.1563,24.1876
13:24:49.199,17.7188,22.9376
13:24:49.210,16.2188,21.6251
13:24:49.218,14.7188,21.5001
13:24:49.228,13.8751,18.6876
13:24:49.239,12.5,17.6876
13:24:49.249,12.6875,16.3751
13:24:49.278,11.8438,17.2501
13:24:49.281,11.5938,16.6876
13:24:49.283,11.8438,16.3126
13:24:49.294,11.75,15.9376
13:24:49.301,10.625,16.6876
13:24:49.308,11,14.9376
13:24:49.318,9.75,14.0626
13:24:49.328,9,13.3751
13:24:49.339,8.875,12.625
13:24:49.350,8.5938,11.625
13:24:49.371,8.5,11.4375
13:24:49.374,8.5625,13
13:24:49.378,9.9063,12.5625
13:24:49.417,9.625,12.5625
13:24:49.419,9.4688,12.0625
13:24:49.420,9.5,13.1876
13:24:49.425,10.0625,13.6876
13:24:49.429,9.875,13.5001
13:24:49.464,9.5313,12.4375
13:24:49.465,9.3438,12.9375
13:24:49.467,9.375,12.5
13:24:49.469,9.1875,12.4375
13:24:49.501,9.5625,12.125
13:24:49.502,8.4063,11
13:24:49.507,7.4375,9.4375
13:24:49.509,6.2813,9.5625
13:24:49.538,5.4063,8.6875
13:24:49.542,4.9688,7.0625
13:24:49.543,4.4063,5.375
13:24:49.549,4.2188,5.625
13:24:49.560,4,4.875
13:24:49.568,3.375,3.6875
13:24:49.578,2.4688,2.5625
13:24:49.588,1.4375,1.875
13:24:49.600,1.375,0.875
13:24:49.610,0.5938,0.3125
13:24:49.618,0.0313,-0.6875
13:24:49.628,-0.1563,-1.5
13:24:49.638,-0.6875,-2.0625
13:24:49.649,-1.125,-1.875
13:24:49.659,-1.0625,-2.375
13:24:49.669,-0.9688,-2.875
13:24:49.678,-0.9688,-3.4375
13:24:49.688,-0.8438,-2.625
13:24:49.698,-0.4063,-3.75
13:24:49.710,-1.8438,-4.5625
13:24:49.718,-2.7188,-4.4375
13:24:49.729,-1.875,-5.25
13:24:49.739,-2.8125,-6
13:24:49.749,-2.5,-6.375
13:24:49.758,-3.2813,-5.125
13:24:49.768,-2.9063,-6.75
13:24:49.779,-3.75,-7.875
13:24:49.788,-4.125,-8
13:24:49.806,-4.8438,-9.75
13:24:49.821,-5.0938,-9.8125
13:24:49.824,-5.4063,-9.875
13:24:49.829,-6.1875,-10.6875
13:24:49.839,-6.0313,-11.25
13:24:49.849,-6.5,-11.875
13:24:49.858,-5.8125,-12
13:24:49.869,-5.6875,-12.25
13:24:49.879,-6.4688,-13.3126
13:24:49.889,-5.6563,-12.375
13:24:49.900,-4.9063,-11.5
13:24:49.909,-2.1875,-8.5
13:24:49.918,1.125,-4.6875
13:24:49.929,5.3125,0.8125
13:24:49.938,8.2188,6.5
13:24:49.948,11.7813,11.625
13:24:49.958,14.8438,16.2501
13:24:49.968,16.0001,19.5626
13:24:49.978,17.1876,22.9376
13:24:49.988,17.6563,23.4376
13:24:50.000,17.1251,24.1876
13:24:50.009,16.5001,23.3751
13:24:50.018,16.0626,22.9376
13:24:50.028,15.3438,22.3751
13:24:50.042,13.7188,20.9376
13:24:50.049,12.8125,19.8751
13:24:50.060,12.75,19.0001
13:24:50.068,12.6875,18.9376
13:24:50.079,12.9375,18.1251
13:24:50.090,13.3751,19.0001
13:24:50.098,12.7813,18.1876
13:24:50.110,13.1563,19.2501
13:24:50.118,13.9376,19.5001
13:24:50.128,12.5625,19.6876
13:24:50.140,12.7813,18.5001
13:24:50.148,11.8438,17.4376
13:24:50.158,11,16.5626
13:24:50.192,10.9375,16.3126
13:24:50.197,10.8438,15.5001
13:24:50.199,10.0313,14.2501
13:24:50.200,10.25,14.7501
13:24:50.210,10.2188,15.0001
13:24:50.269,11.125,14.7501
13:24:50.269,10.5313,14.5626
13:24:50.271,9.7813,16.0001
13:24:50.278,10.4063,14.7501
13:24:50.279,9.875,13.8751
13:24:50.279,9.6875,15.0626
13:24:50.287,9.4063,14.0001
13:24:50.293,9.0625,13.3751
13:24:50.328,8.0625,14.4376
13:24:50.330,8.6563,12.375
13:24:50.333,8.0938,12.125
13:24:50.339,8.0313,11.5625
13:24:50.353,8.5938,11.625
13:24:50.354,7.9375,10.3125
13:24:50.368,7.0625,11.25
13:24:50.378,7.0938,9.0625
13:24:50.389,6.4375,7.875
13:24:50.398,5.6563,7.3125
13:24:50.409,4.7188,6.625
13:24:50.419,4.1875,5.6875
13:24:50.428,3.9688,5.3125
13:24:50.438,3.875,3.6875
13:24:50.448,3.875,4.1875
13:24:50.459,3.8438,3.1875
13:24:50.470,3.375,2.1875
13:24:50.478,3.5,3.4375
13:24:50.488,4.3438,2.1875
13:24:50.499,3.9375,1.875
13:24:50.508,2.7813,0.375
13:24:50.518,2.5,1.1875
13:24:50.529,2.4375,-0.875
13:24:50.558,1.875,-1.0625
13:24:50.561,1.4063,-0.75
13:24:50.563,1.5,-2.4375
13:24:50.569,1.1563,-3.0625
13:24:50.579,0.2188,-2.75
13:24:50.590,0.375,-3.4375
13:24:50.598,-0.7188,-4.875
13:24:50.608,-0.9688,-4.5625
13:24:50.619,-1.125,-4.625
13:24:50.628,-1.8125,-5.75
13:24:50.640,-1.6875,-7
13:24:50.648,-2.1875,-7.4375
13:24:50.658,-2.125,-7.375
13:24:50.668,-1.875,-8.375
13:24:50.679,-3.5,-9.6875
13:24:50.690,-3.9688,-9.6875
13:24:50.699,-3.6563,-10.5
13:24:50.708,-3.9375,-11.0625
13:24:50.720,-4.6563,-11.625
13:24:50.730,-4.2188,-11.5
13:24:50.740,-4.625,-12.3125
13:24:50.748,-5.125,-11.5625
13:24:50.760,-4.7813,-13.4376
13:24:50.768,-5.4688,-13
13:24:50.779,-5.5938,-14.8751
13:24:50.794,-5.9063,-14.0001
13:24:50.799,-5.9375,-15.1876
13:24:50.808,-6.3438,-16.1876
13:24:50.818,-6.3125,-16.5626
13:24:50.836,-6.6563,-16.0626
13:24:50.838,-6.75,-17.3126
13:24:50.879,-7.125,-16.8751
13:24:50.881,-7.0938,-18.3126
13:24:50.883,-7.875,-17.5001
13:24:50.886,-8.375,-19.2501
13:24:50.894,-8.625,-19.1251
13:24:50.899,-8.875,-19.9376
13:24:50.930,-9,-19.7501
13:24:50.932,-8.7188,-20.1251
13:24:50.935,-9.0625,-21.3751
13:24:50.941,-8.375,-20.1251
13:24:50.968,-5.875,-18.1251
13:24:50.970,-1.6875,-13
13:24:50.973,3.1563,-7.25
13:24:50.979,6.9063,-0.25
13:24:50.994,11.0938,5.375
13:24:50.999,13.6563,10.75
13:24:51.008,16.6251,15.0626
13:24:51.018,17.9063,18.5001
13:24:51.028,19.2813,20.1876
13:24:51.038,18.3438,21.1876
13:24:51.049,17.9063,21.1876
13:24:51.058,17.0626,20.6251
13:24:51.068,17.1876,19.5626
13:24:51.079,15.7188,18.8126
13:24:51.088,15.4376,18.1876
13:24:51.108,14.5626,16.8126
13:24:51.110,13.8438,16.3126
13:24:51.127,13.7813,15.2501
13:24:51.131,13.1563,14.8126
13:24:51.138,12.7188,14.6876
13:24:51.149,12.25,15.8126
13:24:51.158,12.625,14.6876
13:24:51.170,12.4375,14.5626
13:24:51.179,12.4375,16.0001
13:24:51.188,12.6875,14.8751
13:24:51.198,11.0313,14.1251
13:24:51.209,10.4688,13.8126
13:24:51.218,10.5938,11.9375
13:24:51.228,9.6875,12.75
13:24:51.239,9.5938,11.75
13:24:51.248,9.2813,11
13:24:51.258,9.375,11.625
13:24:51.269,9.0938,11.6875
13:24:51.278,9.9688,12
13:24:51.288,10.125,11.3125
13:24:51.299,9.8125,11.75
13:24:51.308,9.9688,11.9375
13:24:51.318,9.9688,11.1875
13:24:51.328,8.875,10.3125
13:24:51.338,9.3125,11.4375
13:24:51.348,8.9375,10.125
13:24:51.358,8.1875,10
13:24:51.368,8.1875,9.25
13:24:51.378,8.4063,8.8125
13:24:51.388,7.8125,8.1875
13:24:51.399,8.1563,8.75
13:24:51.408,7.375,6.6875
13:24:51.418,6.4688,6.8125
13:24:51.428,5.3438,6.25
13:24:51.438,5.4063,4.125
13:24:51.448,4.625,3.1875
13:24:51.458,3.9063,3.375
13:24:51.468,4.0313,2.3125
13:24:51.478,3.4063,1.3125
13:24:51.488,2.3438,0.75
13:24:51.499,1.875,0.25
13:24:51.508,1.9688,-1.125
13:24:51.518,2.125,-0.4375
13:24:51.545,2.3438,-1.25
13:24:51.547,2.3125,-2.5
13:24:51.563,1.5313,-2.625
13:24:51.582,1.5,-2.1875
13:24:51.583,1.4063,-1.625
13:24:51.583,1.6563,-3.625
13:24:51.615,0.5,-4.125
13:24:51.618,0.4375,-3.875
13:24:51.618,1.125,-4.625
13:24:51.621,-0.2188,-5.5
13:24:51.657,-0.7813,-4.5
13:24:51.659,-0.5938,-6.4375
13:24:51.662,-1.4063,-7.5
13:24:51.666,-1.5625,-7.1875
13:24:51.674,-1.2188,-7.625
13:24:51.707,-1.75,-7.6875
13:24:51.708,-2.5313,-7.875
13:24:51.712,-2.3125,-9.1875
13:24:51.713,-2.9375,-10.375
13:24:51.745,-3.2813,-10.6875
13:24:51.746,-3.2188,-10.8125
13:24:51.748,-4.1875,-12
13:24:51.757,-4.875,-11.375
13:24:51.766,-4.125,-12.875
13:24:51.774,-4.8125,-13.7501
13:24:51.783,-4.7813,-13.4376
13:24:51.793,-4.9063,-14.1251
13:24:51.803,-4.8125,-14.0001
13:24:51.813,-5.0313,-15.0626
13:24:51.840,-5.6875,-15.5626
13:24:51.842,-6.2188,-16.0001
13:24:51.845,-6.4063,-15.8126
13:24:51.853,-7.2188,-17.5001
13:24:51.864,-6.7188,-16.9376
13:24:51.873,-7.7813,-18.8751
13:24:51.885,-8,-18.5626
13:24:51.893,-7.75,-19.3126
13:24:51.903,-7.3125,-18.7501
13:24:51.913,-8.3125,-19.8126
13:24:51.928,-8.4688,-19.2501
13:24:51.933,-8.7813,-21.1251
13:24:51.945,-8.9375,-20.4376
13:24:51.953,-9.5,-21.6876
13:24:51.963,-9.8438,-21.4376
13:24:51.974,-10.0938,-22.6876
13:24:51.984,-9.6875,-21.7501
13:24:51.993,-9.0938,-22.6876
13:24:52.003,-9.6875,-23.0001
13:24:52.013,-9.4375,-22.8126
13:24:52.023,-9.9063,-22.7501
13:24:52.033,-9.2188,-23.6251
13:24:52.043,-8,-21.5001
13:24:52.054,-5.0938,-19.1876
13:24:52.063,-1.7188,-14.0001
13:24:52.073,2.3125,-8.3125
13:24:52.083,6.7188,-1.875
13:24:52.094,10.9063,4.5625
13:24:52.103,14.1251,9.5
13:24:52.113,16.7188,14.4376
13:24:52.123,18.9376,17.0626
13:24:52.133,19.8126,19.0001
13:24:52.144,19.7501,19.6876
13:24:52.154,19.8126,19.8126
13:24:52.163,18.1251,19.2501
13:24:52.173,17.5001,17.8126
13:24:52.183,15.3126,16.6251
13:24:52.193,15.1876,15.5626
13:24:52.203,14.0938,14.5626
13:24:52.215,13.5626,14.0626
13:24:52.224,12.8438,13.1876
13:24:52.233,13.4063,13.1876
13:24:52.243,12.8125,12.375
13:24:52.253,12.2813,12.8125
13:24:52.263,12.3438,12.0625
13:24:52.273,12.125,12.25
13:24:52.282,12.25,12.75
13:24:52.308,12.3438,12.5625
13:24:52.310,11.6875,11.4375
13:24:52.313,11.1563,11.6875
13:24:52.344,11.2188,10.875
13:24:52.347,10.625,9.625
13:24:52.348,10.8125,11.0625
13:24:52.355,10.7188,9.625
13:24:52.364,10.6563,9.8125
13:24:52.411,10.3125,10.375
13:24:52.414,11.0313,9.75
13:24:52.447,10.375,9.6875
13:24:52.450,10.5938,10.625
13:24:52.452,10.7188,10.0625
13:24:52.453,9.7813,9.4375
13:24:52.453,9.2188,9.6875
13:24:52.453,9.625,9.75
13:24:52.459,10.0313,9
13:24:52.475,8.8125,7.8125
13:24:52.479,7.9688,7.5
13:24:52.489,7.7188,7.5
13:24:52.498,7.0625,6.25
13:24:52.508,6.75,5.25
13:24:52.518,6.1875,5.125
13:24:52.529,5.75,4.1875
13:24:52.538,4.9063,2.875
13:24:52.548,4.0625,2.8125
13:24:52.558,3.4063,2.75
13:24:52.568,2.875,0.8125
13:24:52.579,2.3438,0.0625
13:24:52.588,1.3125,-0.9375
13:24:52.598,0.9688,-1.625
13:24:52.609,0.4375,-2.6875
13:24:52.618,0.0938,-4.125
13:24:52.628,-0.8125,-3.8125
13:24:52.638,-1.625,-3.875
13:24:52.648,-1.1875,-4.75
13:24:52.658,-1.1875,-5.375
13:24:52.668,-1.8438,-5.4375
13:24:52.678,-1.5938,-6.3125
13:24:52.688,-2.1563,-6.875
13:24:52.699,-3.2188,-7.5
13:24:52.708,-2.75,-6.5625
13:24:52.718,-3.0938,-7.9375
13:24:52.729,-3.1875,-8.375
13:24:52.738,-3.7813,-7.5625
13:24:52.748,-3.25,-9.3125
13:24:52.758,-4.0313,-10.0625
13:24:52.768,-3.7813,-9.875
13:24:52.778,-4.8125,-10.75
13:24:52.789,-4.8125,-10.5625
13:24:52.798,-5.875,-12.0625
13:24:52.808,-6.25,-12.125
13:24:52.818,-6.6875,-13.3126
13:24:52.840,-7.1875,-13
13:24:52.848,-7.4375,-14.1251
13:24:52.865,-7.5,-14.6251
13:24:52.878,-8.3438,-14.7501
13:24:52.880,-8.4688,-15.8751
13:24:52.884,-8.4688,-16.1251
13:24:52.889,-8.5938,-16.3751
13:24:52.898,-9.7188,-16.7501
13:24:52.910,-9.9375,-17.8751
13:24:52.920,-10.7188,-18.1876
13:24:52.928,-10.6875,-18.5001
13:24:52.938,-10.7813,-20.1876
13:24:52.948,-11.6563,-19.6251
13:24:52.958,-11.375,-20.4376
13:24:52.969,-11.5,-20.8126
13:24:52.978,-12.0313,-20.1251
13:24:52.988,-12.2188,-21.1251
13:24:52.998,-12.125,-22.5001
13:24:53.008,-12.5,-22.8126
13:24:53.019,-12.8125,-22.6251
13:24:53.028,-13.3438,-23.6251
13:24:53.038,-14.1876,-23.8126
13:24:53.048,-13.8438,-23.1876
13:24:53.058,-11.9063,-21.2501
13:24:53.069,-9.1563,-18.5626
13:24:53.105,-5.5625,-12.375
13:24:53.108,-1.7813,-7.6875
13:24:53.111,2.125,-2
13:24:53.128,5.875,4
13:24:53.130,8,7.25
13:24:53.134,10.5313,12.0625
13:24:53.168,11.375,13.7501
13:24:53.171,11.9375,15.7501
13:24:53.173,10.8438,15.5626
13:24:53.175,10.375,15.7501
13:24:53.207,9.5938,14.1876
13:24:53.209,8.375,14.0001
13:24:53.210,7.375,11.75
13:24:53.215,6.5625,11.5625
13:24:53.244,5.6875,9.5
13:24:53.246,5.0938,9.125
13:24:53.248,5.5,8.9375
13:24:53.254,4.8438,8.25
13:24:53.264,4.2813,9.1875
13:24:53.273,5.25,8.375
13:24:53.283,4.375,7.625
13:24:53.294,4.75,8.0625
13:24:53.303,4.5938,8.1875
13:24:53.313,4.125,7.625
13:24:53.323,3.3438,7.8125
13:24:53.333,3.1875,7.3125
13:24:53.343,3.0313,5.75
13:24:53.353,3,6.8125
13:24:53.363,3.125,7.125
13:24:53.372,3.25,6.6875
13:24:53.383,2.75,6.1875
13:24:53.393,2.625,6.8125
13:24:53.403,2.4688,7.625
13:24:53.413,3,6.6875
13:24:53.423,2.5,6.1875
13:24:53.437,2.5,6.9375
13:24:53.443,2.7813,6.9375
13:24:53.453,2.9375,5.9375
13:24:53.462,2.0625,5.75
13:24:53.473,1.25,5.9375
13:24:53.484,2.375,5.1875
13:24:53.493,1.375,4.1875
13:24:53.503,0.5625,3
13:24:53.513,-0.2813,3.75
13:24:53.523,-0.4375,2.3125
13:24:53.533,-0.375,1.0625
13:24:53.543,-1.2813,0.75
13:24:53.554,-1.7813,-0.0625
13:24:53.563,-2.25,-0.0625
13:24:53.573,-1.625,-0.375
13:24:53.583,-1.9063,-0.9375
13:24:53.593,-2,-2.0625
13:24:53.604,-2.7188,-2.9375
13:24:53.613,-2.4375,-2.5625
13:24:53.623,-2.375,-3.4375
13:24:53.639,-3.1563,-3.8125
13:24:53.645,-3.3125,-3.5625
13:24:53.653,-2.5625,-3.8125
13:24:53.663,-3.0313,-4.6875
13:24:53.673,-2.4063,-5
13:24:53.683,-3.5938,-5.5
13:24:53.706,-3.9375,-5.3125
13:24:53.708,-2.9688,-5.6875
13:24:53.723,-3.9063,-5.75
13:24:53.725,-3.6563,-6.125
13:24:53.741,-3.7813,-6.4375
13:24:53.744,-4.2813,-6.125
13:24:53.753,-4.4688,-7.5625
13:24:53.763,-4.8438,-7.0625
13:24:53.773,-4.875,-7.75
13:24:53.784,-5.0313,-8.8125
13:24:53.794,-5.2813,-8.625
13:24:53.803,-5.3438,-9.5
13:24:53.813,-5.125,-9.8125
13:24:53.847,-4.1875,-9.0625
13:24:53.849,-3.9688,-9.625
13:24:53.851,-4.75,-10.25
13:24:53.853,-4.125,-9.25
13:24:53.888,-3.5,-9.3125
13:24:53.890,-2.2813,-8.625
13:24:53.892,0.0313,-5.875
13:24:53.900,2.0625,-2.375
13:24:53.926,5.875,2.9375
13:24:53.929,9.4688,8.5625
13:24:53.933,12.5,13.3126
13:24:53.964,15.8438,17.1876
13:24:53.964,17.1563,21.4376
13:24:53.966,18.6876,23.4376
13:24:53.972,19.3126,26.6251
13:24:53.973,20.0626,26.2501
13:24:53.990,20.0626,27.6251
13:24:53.994,19.3438,26.0001
13:24:54.003,18.6563,26.5001
13:24:54.012,18.4063,24.3751
13:24:54.023,17.0313,22.9376
13:24:54.033,16.5938,22.8126
13:24:54.043,16.9063,22.0001
13:24:54.054,16.0626,21.4376
13:24:54.063,15.4376,23.0001
13:24:54.073,16.1876,21.4376
13:24:54.083,16.1563,21.3751
13:24:54.093,16.1563,21.3751
13:24:54.103,15.4376,22.3126
13:24:54.113,15.1251,21.0626
13:24:54.123,14.2501,18.8751
13:24:54.133,13.0938,17.9376
13:24:54.151,12.3438,18.5626
13:24:54.166,12.875,18.2501
13:24:54.168,13.5626,17.6876
13:24:54.182,13.5626,18.0001
13:24:54.186,14.1563,19.0001
13:24:54.193,15.3126,19.4376
13:24:54.203,15.3438,19.8126
13:24:54.213,14.7501,19.8126
13:24:54.223,14.6563,20.3751
13:24:54.233,14.7501,20.8751
13:24:54.244,14.2813,20.0626
13:24:54.254,13.0938,19.5626
13:24:54.263,12.5938,19.5001
13:24:54.274,12.125,18.5626
13:24:54.283,11.4375,17.0626
13:24:54.293,11.0313,16.8751
13:24:54.304,10.625,17.0626
13:24:54.313,10.5625,16.0001
13:24:54.323,10.4063,14.8751
13:24:54.334,9.3125,13.8126
13:24:54.344,8.5938,12.375
13:24:54.353,8.0625,13.2501
13:24:54.362,6.8125,10.8125
13:24:54.373,6.4375,10.0625
13:24:54.399,5.7813,10.75
13:24:54.401,5.4063,8.75
13:24:54.414,4.25,7.375
13:24:54.414,3.6563,7.25
13:24:54.423,4.3125,6.875
13:24:54.433,3.1875,6.125
13:24:54.443,2.4063,4.4375
13:24:54.453,1.5625,5
13:24:54.463,2.0313,4.6875
13:24:54.473,1.3125,3.875
13:24:54.483,1,2.9375
13:24:54.493,0.625,3.75
13:24:54.503,1.0625,2.8125
13:24:54.514,0.3438,2.125
13:24:54.526,-0.3125,1
13:24:54.557,-0.0313,1.875
13:24:54.559,-0.1875,0.5625
13:24:54.562,-0.9063,-0.75
13:24:54.564,-0.9688,-1
13:24:54.595,-1.4063,-0.6875
13:24:54.598,-1.1563,-1.25
13:24:54.601,-1.4688,-1.4375
13:24:54.603,-1.125,-1.75
13:24:54.636,0.9063,0.4375
13:24:54.637,4.0938,4.5
13:24:54.639,7.6563,9
13:24:54.645,10.75,15.6876
13:24:54.685,14.7188,20.5001
13:24:54.686,17.5938,25.0001
13:24:54.689,20.0626,28.9376
13:24:54.702,21.5313,33.8126
13:24:54.702,22.8438,35.1251
13:24:54.704,23.4688,35.8126
13:24:54.713,23.4376,37.3126
13:24:54.723,23.5001,37.1876
13:24:54.733,22.5313,36.6876
13:24:54.744,22.1876,36.6251
13:24:54.753,21.2813,36.6251
13:24:54.763,21.4688,36.0626
13:24:54.773,20.4063,34.9376
13:24:54.784,19.7501,33.9376
13:24:54.794,19.5626,34.8751
13:24:54.803,19.4063,34.5001
13:24:54.813,19.0626,34.3751
13:24:54.824,18.9688,34.1876
13:24:54.833,20.1563,35.5001
13:24:54.843,20.4376,36.0001
13:24:54.853,20.5313,35.8751
13:24:54.864,20.5313,35.9376
13:24:54.873,20.3438,35.2501
13:24:54.883,19.8751,34.6876
13:24:54.893,19.0313,33.9376
13:24:54.902,18.9688,33.4376
13:24:54.914,19.0938,35.2501
13:24:54.923,19.5938,33.5626
13:24:54.933,18.9063,34.1876
13:24:54.943,18.0313,33.1876
13:24:54.954,17.9688,33.8126
13:24:54.963,18.1251,33.5626
13:24:54.973,17.0313,33.0001
13:24:54.983,16.0938,31.9376
13:24:54.993,14.8438,31.8126
13:24:55.013,13.8751,31.4376
13:24:55.015,13.7813,30.5001
13:24:55.031,12.9375,29.3126
13:24:55.045,12,28.8751
13:24:55.049,11.1563,28.1251
13:24:55.055,10.25,25.8126
13:24:55.063,9.4688,24.7501
13:24:55.073,8.3125,24.2501
13:24:55.084,8.875,23.1251
13:24:55.093,7.6563,21.7501
13:24:55.104,6.875,20.3751
13:24:55.113,6.0313,20.2501
13:24:55.123,6.3438,20.2501
13:24:55.133,5.1563,18.6876
13:24:55.143,4.9375,17.1251
13:24:55.153,4.0313,17.3126
13:24:55.169,4.9375,16.8126
13:24:55.176,3.625,15.6251
13:24:55.186,2.4063,14.6876
13:24:55.194,2.375,14.8751
13:24:55.203,2.3438,14.1876
13:24:55.218,2.5,13.3751
13:24:55.253,1.5,12.75
13:24:55.254,1.2813,12.1875
13:24:55.257,1.2188,11
13:24:55.259,0.7813,10.25
13:24:55.294,-0.3438,9.3125
13:24:55.296,-0.625,9.3125
13:24:55.298,-0.5938,8.8125
13:24:55.300,-1.125,7.9375
13:24:55.337,-2.2188,7.3125
13:24:55.338,-2.375,7
13:24:55.343,-2.5,5.875
13:24:55.348,-2.6875,4.9375
13:24:55.350,-3.5938,3.5
13:24:55.358,-3.75,4.1875
13:24:55.388,-3.75,3.5
13:24:55.392,-3.125,3.3125
13:24:55.393,-1.1563,5.25
13:24:55.400,1.2813,9.875
13:24:55.411,5.6875,14.8751
13:24:55.418,8.5938,20.3126
13:24:55.429,11.5313,27.1876
13:24:55.451,14.6251,31.3751
13:24:55.457,17.6876,36.1876
13:24:55.471,19.5001,39.6877
13:24:55.474,20.3126,43.6252
13:24:55.481,21.7813,44.3752
13:24:55.488,21.7501,45.1877
13:24:55.498,21.5626,46.7502
13:24:55.508,21.8438,46.6252
13:24:55.519,21.0001,46.5002
13:24:55.528,20.4376,46.7502
13:24:55.539,20.8126,47.0002
13:24:55.549,20.3751,46.1877
13:24:55.558,19.2188,45.8752
13:24:55.568,19.0626,46.6877
13:24:55.578,19.2188,47.5002
13:24:55.589,19.4376,47.3127
13:24:55.598,18.8751,47.7502
13:24:55.608,19.1876,47.6877
13:24:55.618,18.5001,48.0627
13:24:55.629,17.6876,47.5002
13:24:55.639,16.8438,47.1877
13:24:55.648,16.8126,46.3127
13:24:55.679,16.0626,45.5002
13:24:55.681,15.0938,44.8127
13:24:55.683,14.2188,43.5002
13:24:55.690,13.4063,44.6252
13:24:55.699,13.5626,44.2502
13:24:55.708,13.7501,43.8127
13:24:55.719,13.3438,43.6877
13:24:55.728,12.9688,45.2502
13:24:55.738,13.3751,44.0627
13:24:55.748,13.9376,44.4377
13:24:55.758,12.5,43.3752
13:24:55.768,11.8125,43.8752
13:24:55.778,11.8438,42.0627
13:24:55.789,11,41.1877
13:24:55.798,10.5625,40.6877
13:24:55.808,10.1563,41.8127
13:24:55.818,9.625,39.7502
13:24:55.828,9.9063,39.0001
13:24:55.838,8.2813,37.7501
13:24:55.848,6.9063,37.3751
13:24:55.858,6.75,36.0001
13:24:55.868,6.4688,34.5626
13:24:55.878,6.0313,33.5626
13:24:55.888,4.7813,32.1876
13:24:55.898,3.9375,30.6876
13:24:55.908,3.4375,31.0001
13:24:55.923,3.1875,29.6876
13:24:55.929,2.7188,28.4376
13:24:55.939,2.0313,26.4376
13:24:55.948,1.1563,25.7501
13:24:55.958,1.1875,26.0001
13:24:55.968,1.3125,24.7501
13:24:55.978,0.0938,23.6251
13:24:56.004,-0.5313,22.5001
13:24:56.006,-1.2813,22.1251
13:24:56.009,-2.3125,21.5626
13:24:56.045,-2.4375,19.6251
13:24:56.050,-3.0938,18.6251
13:24:56.050,-3.8125,17.8751
13:24:56.053,-4.5,17.1876
13:24:56.062,-4.3125,16.8751
13:24:56.089,-4.9688,15.5626
13:24:56.092,-6.2188,13.7501
13:24:56.096,-6.8125,13.5626
13:24:56.099,-6.625,13.4376
13:24:56.131,-6.375,11.625
13:24:56.133,-7.5,10.5625
13:24:56.136,-8.5625,10.4375
13:24:56.138,-8.4063,9.0625
13:24:56.171,-9.6875,7.5625
13:24:56.173,-10.6563,6.625
13:24:56.174,-10.8438,5.625
13:24:56.183,-11.625,4.375
13:24:56.189,-12.375,5
13:24:56.198,-12.5313,3.3125
13:24:56.209,-12.7813,1.6875
13:24:56.218,-14.5626,0.875
13:24:56.229,-13.3126,0
13:24:56.238,-14.3126,-1.3125
13:24:56.248,-14.5001,-0.5625
13:24:56.258,-14.0313,-1.625
13:24:56.268,-14.6251,-3.4375
13:24:56.278,-15.3438,-3.75
13:24:56.289,-15.8438,-3.375
13:24:56.298,-15.7813,-5.5
13:24:56.308,-16.8751,-4.875
13:24:56.318,-17.0001,-6.75
13:24:56.339,-17.4688,-8.3125
13:24:56.342,-17.4063,-8.6875
13:24:56.352,-16.9688,-8.3125
13:24:56.358,-17.4063,-9.5
13:24:56.372,-18.5313,-10.6875
13:24:56.382,-18.2813,-10.5625
13:24:56.388,-18.2188,-11
13:24:56.398,-18.6251,-11.875
13:24:56.408,-18.6563,-11.4375
13:24:56.418,-18.5313,-13.5001
13:24:56.428,-19.5626,-13.1876
13:24:56.438,-18.9688,-14.1876
13:24:56.448,-19.7188,-13.8126
13:24:56.458,-19.9688,-15.5001
13:24:56.468,-20.2188,-16.3126
13:24:56.478,-20.0313,-15.5001
13:24:56.489,-20.4688,-17.0001
13:24:56.498,-20.7813,-17.0001
13:24:56.508,-20.5001,-16.6251
13:24:56.519,-18.3438,-14.6251
13:24:56.528,-15.7188,-10.25
13:24:56.538,-12.3125,-3.5625
13:24:56.548,-10.4063,1.8125
13:24:56.558,-9.4375,7.8125
13:24:56.568,-8.6875,12.375
13:24:56.578,-9.2813,14.8126
13:24:56.588,-10.2813,18.0001
13:24:56.599,-11.2188,19.3126
13:24:56.608,-12.7188,19.4376
13:24:56.618,-15.7813,19.1251
13:24:56.629,-20.6563,15.8126
13:24:56.638,-29.3439,11.9375
13:24:56.649,-38.9376,6.1875
13:24:56.658,-51.5002,-0.6875
13:24:56.674,-63.5315,-7.75
13:24:56.678,-81.1566,-18.7501
13:24:56.688,-93.9379,-24.6876
13:24:56.698,-105.0004,-32.5001
13:24:56.708,-115.7504,-39.1876
13:24:56.727,-124.0317,-44.0002
13:24:56.730,-129.4067,-48.4377
13:24:56.761,-134.3443,-49.7502
13:24:56.824,-144.6568,-56.6252
13:24:56.826,-154.6881,-65.6253
13:24:56.830,-160.2819,-70.4378
13:24:56.862,-160.9069,-69.9378
13:24:56.862,-157.0631,-67.3753
13:24:56.862,-153.7818,-63.7502
13:24:56.865,-149.8443,-61.1877
13:24:56.867,-147.9068,-58.3127
13:24:56.875,-148.2506,-58.5627
13:24:56.875,-149.0318,-59.1877
13:24:56.899,-148.9381,-58.3752
13:24:56.902,-148.1881,-56.9377
13:24:56.904,-146.5943,-56.1877
13:24:56.913,-142.2818,-52.7502
13:24:56.923,-138.9068,-50.0627
13:24:56.933,-141.2818,-51.7502
13:24:56.958,-149.0006,-57.2502
13:24:56.960,-148.8443,-57.8127
13:24:56.966,-143.6255,-55.1252
13:24:56.973,-140.3443,-52.2502
13:24:56.983,-141.8755,-53.7502
13:24:56.993,-152.6881,-62.3752
13:24:57.003,-158.6256,-69.1878
13:24:57.013,-154.0943,-67.5628
13:24:57.024,-154.1256,-67.8128
13:24:57.034,-155.8131,-71.0003
13:24:57.048,-157.3443,-72.1253
13:24:57.053,-156.1568,-73.5003
13:24:57.062,-153.7506,-72.1878
13:24:57.073,-153.0318,-72.1878
13:24:57.083,-152.8131,-73.6878
13:24:57.093,-152.3443,-73.6878
13:24:57.104,-153.9693,-75.1878
13:24:57.113,-150.6256,-73.9378
13:24:57.123,-153.2193,-76.4378
13:24:57.133,-152.4693,-80.4378
13:24:57.148,-148.0006,-76.1253
13:24:57.160,-145.188,-74.3128
13:24:57.168,-141.188,-72.2503
13:24:57.178,-140.1568,-70.6878
13:24:57.188,-140.188,-73.0003
13:24:57.198,-138.4693,-72.5628
13:24:57.208,-137.3755,-73.1878
13:24:57.219,-133.938,-72.3128
13:24:57.228,-132.3755,-71.1253
13:24:57.238,-129.563,-69.6253
13:24:57.248,-129.2505,-69.4378
13:24:57.259,-127.4067,-69.0003
13:24:57.268,-127.0317,-68.3128
13:24:57.278,-127.8442,-69.9378
13:24:57.290,-129.2505,-71.0628
13:24:57.299,-132.1568,-75.4378
13:24:57.308,-137.8755,-80.5628
13:24:57.318,-136.6568,-84.3753
13:24:57.328,-133.4693,-84.9378
13:24:57.338,-129.3442,-85.8753
13:24:57.348,-126.4067,-86.6253
13:24:57.358,-125.6255,-88.1253
13:24:57.368,-137.188,-97.7504
13:24:57.378,-150.6881,-105.3754
13:24:57.388,-161.2819,-111.3129
13:24:57.398,-168.0006,-115.2504
13:24:57.408,-166.5631,-112.3129
13:24:57.437,-162.3756,-107.2504
13:24:57.440,-155.8443,-101.0004
13:24:57.441,-149.3756,-93.7504
13:24:57.449,-145.0318,-88.1878
13:24:57.464,-140.7193,-83.5628
13:24:57.468,-137.7818,-78.1878
13:24:57.498,-135.438,-75.8128
13:24:57.501,-135.1255,-74.3128
13:24:57.502,-134.7193,-76.0003
13:24:57.508,-135.9693,-76.5003
13:24:57.519,-138.3443,-78.1878
13:24:57.547,-140.188,-81.1878
13:24:57.549,-141.0943,-82.0003
13:24:57.553,-142.1568,-83.6253
13:24:57.558,-141.9068,-84.0628
13:24:57.590,-141.813,-84.6878
13:24:57.592,-140.0943,-84.5003
13:24:57.594,-139.938,-84.3128
13:24:57.601,-138.5005,-84.1253
13:24:57.609,-138.5318,-83.9378
13:24:57.619,-138.188,-85.1878
13:24:57.629,-140.3443,-85.6253
13:24:57.638,-141.3443,-88.8128
13:24:57.659,-143.0005,-90.0628
13:24:57.662,-144.0005,-92.1254
13:24:57.671,-144.2505,-92.8754
13:24:57.678,-144.063,-93.9379
13:24:57.694,-144.1255,-94.2504
13:24:57.701,-144.063,-96.8129
13:24:57.709,-143.688,-96.0629
13:24:57.718,-143.6568,-97.5004
13:24:57.728,-143.7193,-97.9379
13:24:57.738,-143.9693,-98.8129
13:24:57.748,-143.9693,-99.8129
13:24:57.758,-145.0943,-100.8754
13:24:57.768,-144.3755,-102.4379
13:24:57.778,-144.5318,-101.4379
13:24:57.788,-143.1255,-103.7504
13:24:57.798,-142.9693,-103.0004
13:24:57.808,-142.438,-105.0004
13:24:57.818,-141.9068,-104.8754
13:24:57.828,-140.9693,-106.7504
13:24:57.838,-140.5318,-106.0004
13:24:57.848,-139.9068,-107.4379
13:24:57.858,-140.4693,-106.8754
13:24:57.868,-141.063,-109.5629
13:24:57.879,-139.7193,-110.0004
13:24:57.888,-139.188,-110.0629
13:24:57.898,-137.688,-109.8129
13:24:57.908,-137.7193,-110.1879
13:24:57.918,-137.9693,-112.0004
13:24:57.928,-137.0943,-111.6254
13:24:57.938,-135.5943,-110.0629
13:24:57.948,-133.6255,-110.7504
13:24:57.959,-133.188,-109.6879
13:24:57.968,-132.6255,-110.5629
13:24:57.978,-132.7818,-110.3129
13:24:57.988,-133.0318,-111.1254
13:24:57.998,-131.1568,-111.4379
13:24:58.009,-133.2505,-111.5004
13:24:58.024,-133.313,-113.0629
13:24:58.033,-134.063,-113.6254
13:24:58.043,-132.1255,-113.4379
13:24:58.054,-132.1568,-112.8129
13:24:58.073,-130.5005,-112.6879
13:24:58.079,-129.5317,-111.5004
13:24:58.086,-127.438,-111.1254
13:24:58.092,-126.8442,-110.2504
13:24:58.110,-125.8755,-109.9379
13:24:58.139,-125.438,-109.6879
13:24:58.142,-124.313,-109.1254
13:24:58.146,-122.438,-108.5629
13:24:58.173,-120.2817,-108.3129
13:24:58.178,-118.6255,-106.5004
13:24:58.178,-116.6254,-106.0004
13:24:58.180,-114.4692,-104.1879
13:24:58.187,-113.4692,-102.7504
13:24:58.200,-110.5004,-102.0629
13:24:58.204,-107.9067,-99.7504
13:24:58.239,-104.2816,-97.6879
13:24:58.241,-100.4379,-94.2504
13:24:58.243,-98.7191,-90.0628
13:24:58.249,-94.1879,-85.1878
13:24:58.254,-90.4379,-78.9378
13:24:58.283,-84.1878,-73.1253
13:24:58.286,-79.1566,-65.2502
13:24:58.288,-73.8753,-59.5627
13:24:58.295,-69.344,-52.8752
13:24:58.304,-65.8128,-49.3127
13:24:58.313,-65.6253,-45.7502
13:24:58.324,-64.5315,-45.7502
13:24:58.333,-64.4065,-44.1877
13:24:58.343,-64.344,-44.6877
13:24:58.353,-64.0002,-44.0627
13:24:58.363,-65.469,-43.1877
13:24:58.373,-65.0627,-44.4377
13:24:58.383,-65.1877,-42.8752
13:24:58.393,-63.5002,-42.7502
13:24:58.403,-66.5003,-41.6877
13:24:58.413,-65.6253,-41.6877
13:24:58.423,-64.9377,-38.7501
13:24:58.433,-64.7815,-39.2502
13:24:58.443,-65.469,-37.6876
13:24:58.453,-65.4378,-38.9376
13:24:58.463,-66.094,-39.2501
13:24:58.473,-68.0003,-40.7502
13:24:58.483,-68.6878,-42.5002
13:24:58.493,-69.1878,-42.6877
13:24:58.503,-70.1253,-43.6877
13:24:58.513,-69.2815,-43.6877
13:24:58.523,-68.8128,-41.8127
13:24:58.533,-68.2815,-42.4377
13:24:58.543,-67.719,-42.3752
13:24:58.553,-68.4065,-42.1252
13:24:58.563,-67.8128,-42.6252
13:24:58.573,-67.9065,-41.8752
13:24:58.583,-67.094,-42.6252
13:24:58.593,-67.094,-42.5002
13:24:58.603,-66.5315,-43.5002
13:24:58.613,-66.219,-42.8127
13:24:58.623,-65.969,-43.4377
13:24:58.633,-65.1252,-43.5002
13:24:58.643,-66.5628,-43.6252
13:24:58.653,-66.3753,-45.5002
13:24:58.663,-67.0628,-45.4377
13:24:58.673,-66.2503,-47.0002
13:24:58.683,-65.8128,-47.0002
13:24:58.693,-66.0003,-47.4377
13:24:58.703,-65.969,-49.0627
13:24:58.713,-68.1253,-50.7502
13:24:58.723,-69.344,-53.8752
13:24:58.738,-70.4378,-54.8752
13:24:58.744,-70.8128,-57.5002
13:24:58.753,-70.219,-57.5002
13:24:58.763,-70.5003,-58.0627
13:24:58.774,-69.0003,-59.4377
13:24:58.783,-69.1565,-59.8752
13:24:58.793,-70.7815,-62.5002
13:24:58.803,-70.844,-64.0627
13:24:58.813,-71.9065,-64.4377
13:24:58.823,-72.5628,-66.9378
13:24:58.834,-73.344,-68.6253
13:24:58.843,-76.594,-72.6253
13:24:58.853,-78.2503,-73.6878
13:24:58.863,-80.0628,-77.2503
13:24:58.873,-81.4378,-78.6253
13:24:58.883,-82.1253,-80.2503
13:24:58.893,-83.0316,-81.1253
13:24:58.906,-83.3128,-82.7503
13:24:58.913,-82.5316,-82.0003
13:24:58.944,-80.9066,-80.7503
13:24:58.948,-81.5628,-82.0628
13:24:58.949,-81.4066,-81.3753
13:24:58.954,-81.6878,-81.9378
13:24:58.990,-82.1253,-81.6253
13:24:58.993,-81.7816,-82.0003
13:24:59.065,-82.4066,-82.5003
13:24:59.066,-82.2191,-83.1253
13:24:59.066,-81.1566,-81.5003
13:24:59.066,-79.0941,-82.0003
13:24:59.068,-77.4065,-80.7503
13:24:59.069,-74.6253,-79.2503
13:24:59.082,-72.4065,-77.1878
13:24:59.082,-69.0315,-74.6878
13:24:59.082,-66.3128,-70.5628
13:24:59.085,-61.5315,-68.6878
13:24:59.093,-60.0627,-65.5627
13:24:59.103,-56.4065,-63.9377
13:24:59.118,-54.1252,-60.1877
13:24:59.123,-53.0002,-59.3127
13:24:59.133,-52.7815,-57.2502
13:24:59.143,-51.7814,-54.2502
13:24:59.153,-51.2189,-53.5627
13:24:59.163,-50.9377,-51.8127
13:24:59.174,-52.2502,-51.8127
13:24:59.184,-55.4065,-52.6877
13:24:59.195,-72.094,-56.5627
13:24:59.204,-75.469,-58.0627
13:24:59.213,-77.5003,-57.1877
13:24:59.224,-78.7191,-55.6252
13:24:59.233,-78.5941,-52.3752
13:24:59.243,-79.3753,-47.1252
13:24:59.253,-78.3753,-42.9377
13:24:59.263,-79.6566,-39.4377
13:24:59.273,-79.4378,-35.7501
13:24:59.283,-79.2816,-31.5001
13:24:59.293,-78.9691,-30.0001
13:24:59.303,-77.7815,-27.9376
13:24:59.313,-77.1565,-25.3751
13:24:59.323,-75.594,-26.3126
13:24:59.333,-74.2503,-26.5001
13:24:59.345,-75.4065,-29.3126
13:24:59.354,-74.2815,-32.0626
13:24:59.363,-73.7815,-34.1251
13:24:59.373,-71.7503,-36.6876
13:24:59.383,-70.7503,-38.6251
13:24:59.393,-68.3128,-39.2501
13:24:59.415,-66.5628,-38.6251
13:24:59.417,-65.6565,-38.1251
13:24:59.425,-64.0002,-38.2501
13:24:59.433,-64.1565,-36.5626
13:24:59.448,-63.219,-37.5626
13:24:59.458,-58.9377,-37.0626
13:24:59.464,-57.969,-37.5001
13:24:59.473,-56.1565,-38.3751
13:24:59.483,-54.8127,-38.2501
13:24:59.493,-55.719,-38.6876
13:24:59.519,-55.6877,-41.3752
13:24:59.522,-54.9065,-42.1877
13:24:59.527,-55.0002,-43.3127
13:24:59.533,-54.6565,-44.0002
13:24:59.543,-53.6877,-43.8127
13:24:59.553,-52.969,-45.0002
13:24:59.563,-52.2502,-43.4377
13:24:59.573,-51.7502,-44.8752
13:24:59.583,-51.0939,-44.4377
13:24:59.595,-51.6564,-46.1252
13:24:59.603,-52.6252,-47.0002
13:24:59.613,-54.5627,-50.5627
13:24:59.623,-55.1252,-52.1877
13:24:59.652,-57.1252,-52.8127
13:24:59.654,-57.2815,-55.6252
13:24:59.657,-56.8752,-56.8752
13:24:59.665,-56.3752,-56.8127
13:24:59.689,-54.9065,-56.5627
13:24:59.692,-53.6565,-55.3752
13:24:59.694,-54.719,-55.3127
13:24:59.728,-55.6877,-57.5627
13:24:59.730,-56.7815,-58.3127
13:24:59.733,-58.719,-60.0627
13:24:59.734,-59.219,-60.5627
13:24:59.767,-59.7502,-61.2502
13:24:59.770,-60.8127,-62.4377
13:24:59.771,-60.5315,-62.6252
13:24:59.796,-61.1252,-63.5002
13:24:59.796,-59.9377,-63.1877
13:24:59.798,-61.1252,-63.8127
13:24:59.809,-61.2815,-64.0627
13:24:59.813,-61.3752,-64.5627
13:24:59.823,-62.094,-64.9377
13:24:59.833,-62.1252,-66.5003
13:24:59.843,-62.6565,-66.8753
13:24:59.853,-61.6565,-65.7503
13:24:59.868,-61.0315,-65.5003
13:24:59.873,-59.3127,-63.1252
13:24:59.883,-57.9065,-63.0002
13:24:59.893,-55.8127,-60.9377
13:24:59.904,-52.719,-58.7502
13:24:59.913,-49.6252,-56.4377
13:24:59.923,-46.8127,-53.8752
13:24:59.934,-43.8752,-51.5627
13:24:59.944,-41.0627,-49.8127
13:24:59.953,-38.5939,-47.3752
13:24:59.963,-36.4689,-45.1877
13:24:59.973,-34.3439,-43.3752
13:24:59.983,-32.9689,-41.0002
13:24:59.994,-33.0314,-40.2502
13:25:00.004,-32.8126,-39.5002
13:25:00.013,-32.1251,-37.2501
13:25:00.024,-32.0314,-37.5001
13:25:00.033,-31.1876,-36.4376
13:25:00.044,-31.6876,-35.6251
13:25:00.053,-35.1876,-35.3126
13:25:00.063,-41.4064,-38.2501
13:25:00.073,-46.1564,-39.6252
13:25:00.083,-48.6252,-40.7502
13:25:00.094,-51.4064,-40.9377
13:25:00.103,-54.594,-42.1252
13:25:00.115,-56.0002,-43.1252
13:25:00.123,-57.7502,-44.3752
13:25:00.133,-58.5627,-44.3127
13:25:00.143,-59.5315,-45.0002
13:25:00.153,-59.5002,-44.5627
13:25:00.163,-58.3127,-44.8127
13:25:00.173,-55.7502,-43.0002
13:25:00.183,-53.219,-41.2502
13:25:00.193,-49.7502,-36.8751
13:25:00.203,-45.0627,-32.9376
13:25:00.213,-41.5314,-28.0001
13:25:00.223,-37.7189,-25.1251
13:25:00.234,-34.3126,-21.9376
13:25:00.243,-31.4689,-20.1251
13:25:00.253,-30.2501,-18.8751
13:25:00.265,-31.0001,-19.0626
13:25:00.273,-30.8126,-18.4376
13:25:00.283,-31.1564,-19.1876
13:25:00.293,-31.4064,-19.1876
13:25:00.313,-31.7814,-21.6251
13:25:00.315,-31.9376,-21.8751
13:25:00.327,-33.0001,-23.6876
13:25:00.333,-33.8751,-24.6251
13:25:00.349,-33.9064,-25.5626
13:25:00.356,-33.4064,-25.3126
13:25:00.363,-31.5001,-25.9376
13:25:00.373,-29.0939,-24.4376
13:25:00.383,-28.2501,-23.9376
13:25:00.418,-27.7814,-23.5626
13:25:00.419,-26.5314,-23.7501
13:25:00.423,-27.5939,-25.1876
13:25:00.424,-28.5001,-26.4376
13:25:00.455,-30.0939,-28.6876
13:25:00.457,-30.5001,-30.2501
13:25:00.460,-31.4376,-31.5626
13:25:00.465,-32.5314,-34.0001
13:25:00.499,-33.7814,-35.5626
13:25:00.501,-33.1564,-37.1251
13:25:00.503,-34.1251,-39.2502
13:25:00.527,-35.4064,-40.0627
13:25:00.530,-36.5626,-43.5627
13:25:00.531,-37.7814,-45.1252
13:25:00.540,-38.1564,-46.5002
13:25:00.553,-38.8439,-45.9377
13:25:00.554,-38.1251,-47.7502
13:25:00.577,-37.7189,-46.3127
13:25:00.578,-37.0314,-47.1877
13:25:00.584,-36.2814,-46.6877
13:25:00.593,-35.9376,-45.1877
13:25:00.603,-35.2814,-45.8127
13:25:00.618,-34.9064,-44.7502
13:25:00.624,-35.5939,-45.8127
13:25:00.633,-36.2189,-46.1877
13:25:00.643,-38.5314,-46.1877
13:25:00.654,-40.2814,-49.2502
13:25:00.663,-42.6877,-50.8127
13:25:00.673,-43.9064,-53.1877
13:25:00.683,-44.1877,-54.1877
13:25:00.693,-43.9064,-54.8752
13:25:00.703,-44.6564,-56.1877
13:25:00.713,-43.9064,-55.7502
13:25:00.734,-44.9377,-56.9377
13:25:00.743,-45.0939,-56.6877
13:25:00.755,-45.1252,-56.3127
13:25:00.757,-44.3439,-56.4377
13:25:00.773,-43.5939,-54.5002
13:25:00.799,-42.2502,-54.6877
13:25:00.801,-40.0939,-53.6877
13:25:00.804,-39.0626,-51.9377
13:25:00.811,-38.2814,-51.2502
13:25:00.815,-36.2501,-48.9377
13:25:00.823,-34.8439,-48.8127
13:25:00.833,-32.8751,-46.7502
13:25:00.843,-31.1251,-44.3127
13:25:00.853,-29.0001,-43.6877
13:25:00.863,-27.8126,-42.0627
13:25:00.875,-26.3126,-41.2502
13:25:00.883,-24.5313,-39.8752
13:25:00.893,-22.5001,-37.5001
13:25:00.903,-21.4376,-37.3751
13:25:00.913,-21.1563,-35.8126
13:25:00.923,-19.9688,-35.0001
13:25:00.933,-19.6251,-34.6876
13:25:00.943,-21.2813,-34.6876
13:25:00.953,-22.0938,-34.6251
13:25:00.963,-21.8438,-34.5001
13:25:00.973,-21.2501,-33.0626
13:25:00.983,-21.7813,-31.9376
13:25:00.997,-21.0938,-32.4376
13:25:01.004,-22.2813,-32.5626
13:25:01.013,-22.9688,-32.4376
13:25:01.025,-24.2501,-33.2501
13:25:01.058,-24.5938,-32.6876
13:25:01.061,-25.7188,-34.1876
13:25:01.063,-26.6876,-33.5626
13:25:01.065,-27.8439,-35.0001
13:25:01.108,-28.8439,-35.5001
13:25:01.109,-29.3439,-37.5001
13:25:01.113,-29.0001,-36.4376
13:25:01.117,-29.5314,-38.5626
13:25:01.120,-29.3751,-38.3751
13:25:01.125,-28.8751,-38.9376
13:25:01.159,-29.2189,-38.5626
13:25:01.162,-29.4689,-38.5626
13:25:01.164,-29.3439,-37.9376
13:25:01.169,-28.5626,-35.6876
13:25:01.200,-26.0626,-33.6876
13:25:01.203,-23.9063,-29.4376
13:25:01.206,-20.8126,-25.3751
13:25:01.212,-18.7813,-21.8126
13:25:01.219,-16.9688,-18.3126
13:25:01.228,-15.2501,-15.1876
13:25:01.238,-13.6251,-13.7501
13:25:01.249,-13.4376,-11.0625
13:25:01.258,-12.5625,-10.9375
13:25:01.268,-13.1876,-10.5
13:25:01.278,-13.125,-12.5625
13:25:01.288,-13,-11.9375
13:25:01.298,-12.6875,-13.1876
13:25:01.308,-14.1563,-13.4376
13:25:01.318,-14.5313,-15.4376
13:25:01.328,-15.7813,-16.8126
13:25:01.338,-15.4063,-16.4376
13:25:01.348,-16.3126,-18.4376
13:25:01.358,-17.4376,-18.2501
13:25:01.374,-17.9063,-20.0626
13:25:01.378,-18.3438,-20.5626
13:25:01.389,-18.8751,-20.8126
13:25:01.398,-18.5001,-22.0001
13:25:01.408,-19.0001,-22.0626
13:25:01.418,-19.2188,-23.3751
13:25:01.429,-19.9688,-25.3751
13:25:01.438,-20.4688,-26.4376
13:25:01.448,-20.0313,-28.0001
13:25:01.458,-21.0938,-29.1876
13:25:01.468,-20.3126,-28.1876
13:25:01.478,-20.4688,-28.3126
13:25:01.489,-19.9376,-28.0626
13:25:01.498,-20.2501,-27.7501
13:25:01.509,-19.4688,-27.5626
13:25:01.518,-20.0938,-28.3751
13:25:01.529,-20.1563,-28.0626
13:25:01.538,-20.8438,-29.2501
13:25:01.548,-21.6251,-28.5001
13:25:01.558,-21.6876,-30.5001
13:25:01.568,-22.0313,-29.5626
13:25:01.578,-22.9063,-29.9376
13:25:01.588,-22.8126,-30.5626
13:25:01.599,-22.7501,-31.1876
13:25:01.608,-23.5626,-30.7501
13:25:01.618,-24.3438,-33.3751
13:25:01.639,-26.6564,-33.8751
13:25:01.642,-27.4376,-36.8126
13:25:01.652,-28.9064,-37.8126
13:25:01.658,-30.1251,-40.8752
13:25:01.673,-31.5626,-40.7502
13:25:01.683,-31.5626,-42.4377
13:25:01.688,-32.0314,-42.0627
13:25:01.698,-31.6876,-42.0627
13:25:01.708,-30.9376,-41.6252
13:25:01.718,-29.7189,-42.0002
13:25:01.728,-29.0939,-39.6252
13:25:01.738,-28.4689,-40.3127
13:25:01.749,-28.7189,-40.0627
13:25:01.758,-27.8751,-39.3127
13:25:01.768,-26.9064,-39.1876
13:25:01.778,-26.3126,-38.6251
13:25:01.788,-25.5001,-38.5001
13:25:01.798,-25.3438,-38.7501
13:25:01.809,-25.0001,-36.9376
13:25:01.818,-22.8438,-37.0626
13:25:01.828,-22.6563,-35.7501
13:25:01.838,-21.8126,-35.5001
13:25:01.848,-20.8126,-35.7501
13:25:01.877,-19.6563,-33.7501
13:25:01.879,-18.9063,-33.5626
13:25:01.882,-18.2813,-32.3751
13:25:01.888,-17.2501,-32.6876
13:25:01.926,-16.2501,-31.4376
13:25:01.927,-15.3751,-31.3751
13:25:01.931,-15.3751,-29.6876
13:25:01.936,-14.0626,-30.0626
13:25:01.938,-13.0938,-28.6251
13:25:01.969,-12.3438,-28.1876
13:25:01.970,-12.1875,-27.9376
13:25:01.973,-11.7188,-27.0626
13:25:01.978,-11.875,-26.8126
13:25:02.017,-12.4375,-26.1251
13:25:02.018,-13.5001,-27.3126
13:25:02.022,-15.1251,-26.5001
13:25:02.023,-16.3751,-27.7501
13:25:02.028,-17.1876,-27.7501
13:25:02.049,-17.9688,-28.6251
13:25:02.051,-18.3126,-29.8751
13:25:02.082,-18.8126,-29.9376
13:25:02.097,-19.5001,-31.2501
13:25:02.111,-19.7813,-32.5001
13:25:02.113,-19.4376,-31.8126
13:25:02.117,-18.0001,-32.4376
13:25:02.117,-17.9376,-31.9376
13:25:02.122,-18.4063,-31.9376
13:25:02.133,-18.5313,-32.0626
13:25:02.144,-19.7813,-32.5001
13:25:02.153,-20.0626,-33.1251
13:25:02.164,-20.9063,-33.7501
13:25:02.173,-21.2501,-34.8126
13:25:02.183,-22.7188,-35.2501
13:25:02.193,-23.5626,-35.4376
13:25:02.203,-24.5001,-37.8126
13:25:02.213,-24.3438,-38.1251
13:25:02.223,-23.8126,-36.5626
13:25:02.233,-22.3751,-35.8126
13:25:02.243,-20.5626,-33.6876
13:25:02.253,-16.5001,-29.0626
13:25:02.263,-13,-24.3126
13:25:02.273,-9.75,-20.1876
13:25:02.283,-5.5313,-13.8751
13:25:02.293,-3.5625,-11.0625
13:25:02.303,-2.75,-7.6875
13:25:02.313,-3.0313,-8.4375
13:25:02.323,-4.1875,-8.5
13:25:02.333,-5.5938,-10.4375
13:25:02.343,-6.9688,-12.0625
13:25:02.354,-8.3438,-15.7501
13:25:02.363,-9.9063,-16.5626
13:25:02.373,-12,-19.2501
13:25:02.383,-14.1251,-21.3126
13:25:02.393,-14.3126,-22.5626
13:25:02.403,-15.1251,-22.3126
13:25:02.411,-14.6563,-22.8751
13:25:02.423,-14.8751,-23.0626
13:25:02.433,-13.2188,-21.2501
13:25:02.443,-11.8125,-19.6876
13:25:02.453,-9.4375,-18.3751
13:25:02.462,-9.3438,-17.8751
13:25:02.473,-9.75,-18.0626
13:25:02.483,-10.9063,-19.1251
13:25:02.499,-11.9375,-20.1876
13:25:02.503,-11.0938,-19.5626
13:25:02.513,-10.375,-19.1876
13:25:02.545,-9.0938,-18.4376
13:25:02.550,-8,-17.5626
13:25:02.550,-7.5938,-16.3751
13:25:02.553,-5.0938,-14.6876
13:25:02.588,-3.4375,-13.3751
13:25:02.589,-0.875,-11.8125
13:25:02.592,-0.0313,-10.4375
13:25:02.598,7.9375,-7.375
13:25:02.608,1.8125,-7.4375
13:25:02.615,6.25,-5
13:25:02.646,5.4375,-5.5
13:25:02.649,7,-4
13:25:02.650,7.0313,-3
13:25:02.659,8.375,-0.5625
13:25:02.666,8.5625,-0.3125
13:25:02.690,6.0938,-2.3125
13:25:02.693,2.2188,-5.875
13:25:02.695,-0.25,-8.9375
13:25:02.703,-3.7813,-12.375
13:25:02.714,-7.3438,-15.5626
13:25:02.723,-11.125,-19.8126
13:25:02.731,-13.4063,-21.6251
13:25:02.743,-15.3751,-24.8126
13:25:02.754,-18.0938,-27.0626
13:25:02.764,-19.1251,-28.8126
13:25:02.772,-21.0938,-30.1251
13:25:02.783,-21.6563,-32.1876
13:25:02.792,-22.6563,-34.3751
13:25:02.803,-24.9688,-35.1876
13:25:02.814,-22.8751,-34.2501
13:25:02.823,-20.6251,-33.2501
13:25:02.832,-19.9063,-31.9376
13:25:02.843,-18.7813,-33.0001
13:25:02.852,-19.4376,-34.3126
13:25:02.861,-19.3126,-33.7501
13:25:02.878,-19.4688,-34.7501
13:25:02.884,-16.9063,-33.2501
13:25:02.894,-13.8438,-31.7501
13:25:02.903,-13.9376,-30.8126
13:25:02.914,-12.875,-31.0001
13:25:02.923,-13.7188,-30.7501
13:25:02.933,-11.8438,-31.0001
13:25:02.942,-11.625,-30.0626
13:25:02.958,-11.125,-30.2501
13:25:02.974,23.1251,-5.625
13:25:02.976,29.6876,-1.5625
13:25:02.985,59.0315,20.1876
13:25:02.993,83.5316,37.4376
13:25:03.003,103.1879,53.8127
13:25:03.013,121.938,67.9378
13:25:03.023,136.563,79.6878
13:25:03.033,147.1568,90.0628
13:25:03.043,154.6568,94.7504
13:25:03.053,158.7194,100.8129
13:25:03.063,162.8131,102.6879
13:25:03.072,167.9381,106.3129
13:25:03.083,173.7819,112.4379
13:25:03.092,179.8444,116.1879
13:25:03.101,188.657,123.063
13:25:03.113,190.5007,124.6255
13:25:03.121,189.032,124.813
13:25:03.133,189.9695,125.313
13:25:03.142,194.532,128.813
13:25:03.153,196.0945,131.7505
13:25:03.162,193.782,133.0005
13:25:03.173,186.1257,130.0005
13:25:03.181,178.1257,127.0005
13:25:03.193,174.8757,125.938
13:25:03.201,173.4694,127.313
13:25:03.213,173.8757,129.688
13:25:03.221,172.7819,130.3755
13:25:03.233,174.2507,132.688
13:25:03.261,171.0944,132.438
13:25:03.263,166.6881,131.5005
13:25:03.265,163.3756,129.2505
13:25:03.301,161.1881,127.8755
13:25:03.305,159.0006,126.7505
13:25:03.306,153.0943,123.3755
13:25:03.309,150.6568,120.6255
13:25:03.314,143.6255,116.0629
13:25:03.360,136.063,108.5004
13:25:03.361,130.313,104.7504
13:25:03.364,128.9067,102.9379
13:25:03.368,128.7817,104.0004
13:25:03.412,131.0318,105.1254
13:25:03.430,130.5005,105.8754
13:25:03.430,130.4693,105.5629
13:25:03.430,131.2505,106.1254
13:25:03.434,134.2193,107.5004
13:25:03.437,136.9693,109.9379
13:25:03.443,141.8755,112.6879
13:25:03.453,144.8755,113.6254
13:25:03.463,146.4068,115.0629
13:25:03.473,149.0318,115.0004
13:25:03.483,152.6568,115.6879
13:25:03.492,155.6881,116.9379
13:25:03.503,159.6256,116.6879
13:25:03.511,165.6569,120.2505
13:25:03.522,170.5319,121.563
13:25:03.533,176.7819,125.188
13:25:03.543,180.4694,126.188
13:25:03.551,181.907,125.7505
13:25:03.561,182.0007,124.7505
13:25:03.573,184.5007,124.688
13:25:03.582,198.2195,133.3755
13:25:03.593,201.407,134.5005
13:25:03.603,203.5945,135.6255
13:25:03.613,205.407,134.8755
13:25:03.623,202.3133,134.563
13:25:03.632,200.4695,131.5005
13:25:03.642,198.6883,130.563
13:25:03.653,197.0945,129.2505
13:25:03.661,194.8445,126.313
13:25:03.673,193.4695,124.563
13:25:03.683,191.3445,123.0005
13:25:03.691,190.3757,121.938
13:25:03.701,189.407,121.313
13:25:03.713,189.3132,120.188
13:25:03.723,189.6257,119.6255
13:25:03.733,190.0632,119.188
13:25:03.743,190.7507,119.7505
13:25:03.753,188.9382,118.8755
13:25:03.763,187.4695,118.563
13:25:03.771,188.282,118.7505
13:25:03.783,186.2507,117.688
13:25:03.791,182.282,114.7504
13:25:03.802,180.1569,112.3754
13:25:03.813,178.9382,110.9379
13:25:03.822,177.1569,111.0629
13:25:03.833,174.3132,108.7504
13:25:03.843,171.7507,106.8129
13:25:03.853,170.0006,106.3129
13:25:03.863,166.9069,102.8754
13:25:03.872,163.9694,100.1879
13:25:03.883,162.5006,99.2504
13:25:03.892,160.1881,98.2504
13:25:03.903,156.2818,95.3129
13:25:03.912,154.1881,91.8754
13:25:03.923,149.6568,89.8753
13:25:03.932,145.8755,87.0628
13:25:03.943,143.7818,84.6253
13:25:03.952,141.688,83.4378
13:25:03.961,138.6568,81.1253
13:25:03.973,134.7818,78.6878
13:25:03.981,133.2818,76.5003
13:25:03.993,130.688,75.2503
13:25:04.003,129.0005,74.3128
13:25:04.012,128.6567,73.8753
13:25:04.023,126.8442,72.3753
13:25:04.033,124.2192,70.7503
13:25:04.043,122.5942,68.1878
13:25:04.060,119.9067,67.0628
13:25:04.063,117.5005,64.5002
13:25:04.099,115.0004,62.8752
13:25:04.100,111.9067,60.0627
13:25:04.102,109.3129,59.5627
13:25:04.104,106.5942,56.7502
13:25:04.138,104.0316,54.1252
13:25:04.141,101.1566,52.3752
13:25:04.143,98.9379,51.4377
13:25:04.179,98.9379,50.6252
13:25:04.179,97.7191,50.3752
13:25:04.181,96.2816,49.8752
13:25:04.187,95.4066,50.5627
13:25:04.188,95.4379,50.8752
13:25:04.194,96.5316,54.1252
13:25:04.234,97.8129,57.5627
13:25:04.235,100.2191,62.4377
13:25:04.237,101.5941,65.0627
13:25:04.240,102.0316,67.8128
13:25:04.246,103.1566,69.6253
13:25:04.261,103.9379,71.6878
13:25:04.263,103.3441,72.6253
13:25:04.279,102.0941,71.7503
13:25:04.283,100.1879,71.1253
13:25:04.293,98.6254,69.5003
13:25:04.303,97.4379,68.9378
13:25:04.313,95.0941,67.2503
13:25:04.323,92.6254,65.4378
13:25:04.331,91.0941,62.8752
13:25:04.343,89.1253,61.1877
13:25:04.352,87.3753,59.8752
13:25:04.362,85.4066,57.4377
13:25:04.371,83.4691,56.6252
13:25:04.381,82.5003,55.4377
13:25:04.393,80.5628,55.2502
13:25:04.403,79.7191,54.9377
13:25:04.412,78.3753,53.6252
13:25:04.423,76.7503,53.0627
13:25:04.434,75.5315,51.6252
13:25:04.443,75.6253,50.7502
13:25:04.452,74.1253,51.0627
13:25:04.463,72.5315,48.9377
13:25:04.473,71.2815,49.2502
13:25:04.483,70.1878,47.9377
13:25:04.493,70.1253,48.1877
13:25:04.503,69.4378,47.5627
13:25:04.512,69.719,47.8752
13:25:04.523,69.3128,47.8752
13:25:04.532,68.8753,47.4377
13:25:04.545,68.3753,47.4377
13:25:04.551,67.2503,47.3752
13:25:04.562,66.094,46.6252
13:25:04.574,64.7502,45.1877
13:25:04.582,62.9065,43.3752
13:25:04.593,61.8127,41.9377
13:25:04.601,59.9377,40.7502
13:25:04.613,57.7815,40.0002
13:25:04.641,56.1877,37.2501
13:25:04.643,55.469,36.5001
13:25:04.645,53.8127,34.8126
13:25:04.659,53.7502,34.6251
13:25:04.663,52.2502,33.6876
13:25:04.673,51.8127,33.5001
13:25:04.694,51.9064,32.8126
13:25:04.697,52.2502,32.8126
13:25:04.714,51.6877,32.8751
13:25:04.715,51.1252,31.5626
13:25:04.723,50.0314,31.0001
13:25:04.745,48.1877,29.2501
13:25:04.747,47.3439,28.5626
13:25:04.772,45.5002,27.2501
13:25:04.774,44.6877,26.6251
13:25:04.776,44.9064,25.7501
13:25:04.782,44.3752,26.6251
13:25:04.810,44.7189,25.4376
13:25:04.811,43.8439,25.4376
13:25:04.813,44.7189,25.2501
13:25:04.842,43.2814,25.4376
13:25:04.844,42.5939,23.9376
13:25:04.846,41.4064,22.5626
13:25:04.851,40.4377,21.9376
13:25:04.890,40.2502,22.1876
13:25:04.891,40.4689,21.5001
13:25:04.893,40.0627,22.5001
13:25:04.897,40.3439,21.8751
13:25:04.901,39.5314,22.1876
13:25:04.912,39.0314,20.6251
13:25:04.923,38.2814,19.5626
13:25:04.932,37.5001,18.8751
13:25:04.943,36.9689,18.5001
13:25:04.952,35.2814,17.0001
13:25:04.963,34.7189,15.7501
13:25:04.971,33.5314,15.4376
13:25:04.983,32.8751,14.7501
13:25:04.991,32.6251,13.6876
13:25:05.002,32.2189,13.7501
13:25:05.013,32.6876,13.6251
13:25:05.021,32.4376,14.0001
13:25:05.032,32.4689,13.4376
13:25:05.043,32.7189,13.3126
13:25:05.052,32.2501,13.1876
13:25:05.062,32.1876,12.6875
13:25:05.071,32.3439,12.625
13:25:05.081,31.1876,11.625
13:25:05.093,31.5939,12.0625
13:25:05.103,31.7814,11.25
13:25:05.111,30.7189,11.4375
13:25:05.121,30.5001,9.875
13:25:05.131,29.6564,10.1875
13:25:05.142,29.3439,8.75
13:25:05.153,29.0939,9
13:25:05.163,29.1564,8.6875
13:25:05.172,29.1564,9.5625
13:25:05.183,30.8751,10.5625
13:25:05.198,32.9376,13.7501
13:25:05.206,36.2814,18.8751
13:25:05.218,40.0939,24.0626
13:25:05.228,43.7189,28.8126
13:25:05.238,46.9064,33.8126
13:25:05.248,49.2189,38.1876
13:25:05.256,50.6252,41.5627
13:25:05.267,50.8127,42.9377
13:25:05.277,50.5627,42.9377
13:25:05.286,49.4377,41.6252
13:25:05.296,50.0002,41.3752
13:25:05.308,48.3439,40.1877
13:25:05.316,47.1252,39.1252
13:25:05.326,45.9064,37.7501
13:25:05.337,44.5939,36.4376
13:25:05.348,44.0939,35.1876
13:25:05.357,42.9064,34.5001
13:25:05.366,43.9064,33.9376
13:25:05.378,42.3439,33.1876
13:25:05.388,41.2189,32.8126
13:25:05.397,40.3127,32.5001
13:25:05.411,40.3752,31.1876
13:25:05.416,39.1251,29.8126
13:25:05.428,38.1876,29.3126
13:25:05.436,37.8439,28.8751
13:25:05.447,37.8126,28.2501
13:25:05.456,37.4689,28.0626
13:25:05.468,37.5001,28.9376
13:25:05.477,38.1876,28.6876
13:25:05.488,37.5939,27.8126
13:25:05.497,36.5001,27.4376
13:25:05.507,36.1876,28.2501
13:25:05.522,36.9064,27.9376
13:25:05.595,35.8751,27.1251
13:25:05.598,35.4064,26.7501
13:25:05.598,35.4376,28.3751
13:25:05.599,35.7189,26.7501
13:25:05.603,32.5001,24.9376
13:25:05.609,30.5314,23.5626
13:25:05.609,30.1251,24.3751
13:25:05.609,31.0626,23.0001
13:25:05.616,29.5939,22.0626
13:25:05.646,28.6876,21.0626
13:25:05.647,28.1251,21.5001
13:25:05.649,27.9064,20.6876
13:25:05.653,28.2814,19.9376
13:25:05.683,27.4689,19.3126
13:25:05.685,27.0001,18.3751
13:25:05.687,27.3751,19.2501
13:25:05.692,27.6564,19.5001
13:25:05.702,28.3439,18.1876
13:25:05.713,27.5626,17.7501
13:25:05.721,27.2501,17.0001
13:25:05.733,27.6564,17.4376
13:25:05.743,27.1876,17.4376
13:25:05.753,27.0314,16.0626
13:25:05.763,26.6564,16.9376
13:25:05.772,27.7501,16.9376
13:25:05.787,26.9689,16.1876
13:25:05.793,26.9689,16.9376
13:25:05.802,27.8439,18.1876
13:25:05.818,28.7501,17.7501
13:25:05.822,28.1564,16.7501
13:25:05.831,26.1251,15.2501
13:25:05.841,26.5314,14.8751
13:25:05.854,25.8751,14.5626
13:25:05.861,24.6563,13.9376
13:25:05.872,24.0626,13.5626
13:25:05.883,23.7188,12.5
13:25:05.893,22.8126,10.5625
13:25:05.918,21.9063,10.3125
13:25:05.921,21.5938,10.3125
13:25:05.923,21.9376,10
13:25:05.933,21.1563,9.0625
13:25:05.942,20.9376,8.6875
13:25:05.952,21.7501,10.1875
13:25:05.963,24.0001,12
13:25:05.972,27.0626,15.3126
13:25:05.992,29.4689,19.2501
13:25:05.997,31.8439,22.5626
13:25:06.012,34.0939,26.5001
13:25:06.014,36.6564,31.5626
13:25:06.021,38.5001,33.3751
13:25:06.032,38.6876,35.3751
13:25:06.043,38.9689,37.0626
13:25:06.051,39.1564,36.9376
13:25:06.062,38.0314,35.3126
13:25:06.073,36.8751,33.3751
13:25:06.081,35.3126,32.2501
13:25:06.092,34.5314,31.3126
13:25:06.104,34.1876,29.8751
13:25:06.113,32.6564,28.5001
13:25:06.122,31.7501,29.0001
13:25:06.132,31.9376,27.7501
13:25:06.154,30.8126,26.3751
13:25:06.157,30.5314,26.3751
13:25:06.183,30.0314,27.2501
13:25:06.187,29.9064,25.9376
13:25:06.189,28.9376,24.0001
13:25:06.193,27.5626,23.4376
13:25:06.221,25.8438,22.1876
13:25:06.223,25.5313,20.2501
13:25:06.225,24.5001,18.9376
13:25:06.260,23.9063,20.3751
13:25:06.260,24.3751,19.3751
13:25:06.262,24.8438,19.8751
13:25:06.264,24.8751,19.8751
13:25:06.297,25.4063,21.2501
13:25:06.298,25.8126,21.5001
13:25:06.300,25.4688,20.4376
13:25:06.330,25.0626,20.6876
13:25:06.330,24.5313,21.0001
13:25:06.332,24.1876,19.8126
13:25:06.338,22.7188,18.0626
13:25:06.348,21.5626,17.6876
13:25:06.356,21.7501,17.6251
13:25:06.362,21.0626,15.8126
13:25:06.371,20.6563,15.4376
13:25:06.381,19.7501,14.8126
13:25:06.393,19.3126,14.8126
13:25:06.402,20.2501,14.3751
13:25:06.411,19.1563,13.4376
13:25:06.422,18.2501,13.3751
13:25:06.433,18.0001,11.5625
13:25:06.441,17.2501,10.0625
13:25:06.452,16.7813,9.75
13:25:06.463,16.3751,9.9375
13:25:06.473,16.4063,9.5625
13:25:06.482,16.4688,9.0625
13:25:06.491,15.8751,8.1875
13:25:06.502,15.7813,7.4375
13:25:06.513,15.9376,8.75
13:25:06.523,16.1876,7.8125
13:25:06.532,15.2188,7.125
13:25:06.542,15.4688,7
13:25:06.552,15.0938,7.25
13:25:06.563,14.9376,6.1875
13:25:06.573,14.2188,4.9375
13:25:06.582,13.0313,4.25
13:25:06.592,13.3126,5.4375
13:25:06.603,13.3751,4.625
13:25:06.612,13.5313,4.3125
13:25:06.622,13.0313,3.6875
13:25:06.632,13.0938,4.6875
13:25:06.644,13.125,2.75
13:25:06.652,12.25,2.6875
13:25:06.661,11.5625,2.125
13:25:06.672,11.5625,2.4375
13:25:06.683,11.6875,1.0625
13:25:06.693,11.5313,1.125
13:25:06.702,11.2813,0.8125
13:25:06.712,10.8438,1.625
13:25:06.723,10.625,0.9375
13:25:06.733,10.6875,-0.1875
13:25:06.743,10.7188,-0.875
13:25:06.751,9.3125,-0.9375
13:25:06.763,9.875,0.625
13:25:06.773,12.2188,2.1875
13:25:06.781,14.0313,4.875
13:25:06.792,17.1876,10.3125
13:25:06.803,20.0938,14.8126
13:25:06.813,23.6563,19.1251
13:25:06.822,25.7188,22.0001
13:25:06.831,26.9064,24.1876
13:25:06.853,27.4064,25.5001
13:25:06.856,28.1251,27.3751
13:25:06.870,28.7501,27.0001
13:25:06.876,27.2189,25.3126
13:25:06.882,26.0313,24.9376
13:25:06.892,25.8438,24.5001
13:25:06.902,24.8438,22.5001
13:25:06.912,24.1876,21.9376
13:25:06.922,23.2501,21.8751
13:25:06.932,23.8126,20.7501
13:25:06.942,23.2813,20.3751
13:25:06.953,23.3126,20.0001
13:25:06.963,23.4688,22.0001
13:25:06.973,24.1563,21.6876
13:25:07.006,24.8438,21.6251
13:25:07.007,23.6563,20.5626
13:25:07.010,23.5938,20.6876
13:25:07.014,23.0938,20.5001
13:25:07.050,22.0626,20.0626
13:25:07.052,21.8751,19.2501
13:25:07.053,22.0626,17.4376
13:25:07.056,21.0938,16.6876
13:25:07.088,20.9376,16.5001
13:25:07.090,21.4376,18.0626
13:25:07.092,22.3438,17.3751
13:25:07.094,22.3438,17.7501
13:25:07.135,22.9063,18.6251
13:25:07.137,22.9688,19.6251
13:25:07.139,23.2501,19.1251
13:25:07.161,23.5626,19.0626
13:25:07.161,22.0938,17.5001
13:25:07.162,21.6563,17.9376
13:25:07.164,21.1876,17.6876
13:25:07.175,21.1251,15.8751
13:25:07.198,19.9063,14.6876
13:25:07.201,19.7501,14.8751
13:25:07.203,19.0938,13.4376
13:25:07.212,19.3126,13.6251
13:25:07.223,18.6563,12.8125
13:25:07.231,18.4063,11.75
13:25:07.242,17.8438,11.75
13:25:07.252,17.5313,11.875
13:25:07.261,16.8438,10.25
13:25:07.272,16.7813,9.5
13:25:07.291,16.1251,9.125
13:25:07.298,16.6251,8.9375
13:25:07.313,16.0001,8.375
13:25:07.316,15.7188,8.4375
13:25:07.323,16.0001,8.3125
13:25:07.334,16.2813,7.8125
13:25:07.341,15.7501,7.0625
13:25:07.352,15.0626,8.125
13:25:07.362,16.3438,7.1875
13:25:07.372,15.5001,6.4375
13:25:07.381,14.9376,7.1875
13:25:07.392,15.5313,6.25
13:25:07.402,15.2501,5.3125
13:25:07.412,15.6876,6.875
13:25:07.422,15.8751,5.875
13:25:07.433,15.4688,5.4375
13:25:07.442,14.6876,6.1875
13:25:07.451,15.0313,4.9375
13:25:07.463,14.5938,3.9375
13:25:07.473,13.6876,2.9375
13:25:07.482,12.875,2.875
13:25:07.492,13.0625,1.875
13:25:07.501,12.0313,0.5
13:25:07.512,11.25,0.4375
13:25:07.521,11.6563,0.0625
13:25:07.534,10.1875,-0.6875
13:25:07.543,9.1875,-1
13:25:07.552,10.0938,-1.3125
13:25:07.562,10.0938,-1.75
13:25:07.572,10.2188,-1.9375
13:25:07.582,10.4375,-0.875
13:25:07.592,11.5,0.375
13:25:07.601,14.3126,2.6875
13:25:07.612,16.3438,5.75
13:25:07.622,19.1563,11.5625
13:25:07.632,22.3126,14.7501
13:25:07.642,23.8126,17.6876
13:25:07.652,25.6563,21.2501
13:25:07.670,27.0001,24.3126
13:25:07.672,27.6876,25.4376
13:25:07.704,28.6876,25.2501
13:25:07.706,27.6876,25.6251
13:25:07.708,27.7814,25.8126
13:25:07.712,27.6876,24.4376
13:25:07.743,26.6564,23.2501
13:25:07.747,25.1876,23.0001
13:25:07.747,24.9376,22.0626
13:25:07.777,24.5313,21.0001
13:25:07.778,24.2813,21.5626
13:25:07.781,24.1876,20.6876
13:25:07.785,24.2188,20.4376
13:25:07.792,24.6876,22.2501
13:25:07.827,25.9063,22.9376
13:25:07.829,25.7188,22.0626
13:25:07.830,24.9688,21.9376
13:25:07.833,23.9063,22.1251
13:25:07.842,24.1563,20.6876
13:25:07.853,22.1563,18.3751
13:25:07.862,21.0001,17.0626
13:25:07.873,20.3126,16.6251
13:25:07.881,19.8751,16.0001
13:25:07.892,18.8751,15.0001
13:25:07.902,18.7188,15.5626
13:25:07.917,18.5001,15.2501
13:25:07.922,18.6876,14.3751
13:25:07.933,18.8438,14.6251
13:25:07.943,18.4688,15.5001
13:25:07.951,19.5626,15.4376
13:25:07.962,20.0313,15.1876
13:25:07.973,19.7501,16.6251
13:25:07.987,19.4063,16.4376
13:25:07.997,19.8126,15.1876
13:25:08.008,18.8126,15.2501
13:25:08.017,19.0938,15.0001
13:25:08.026,19.3438,14.1876
13:25:08.036,18.8751,13.5001
13:25:08.047,18.0001,13.8751
13:25:08.056,18.0938,13.3126
13:25:08.067,18.5313,12.5
13:25:08.077,17.3126,11.875
13:25:08.087,17.5938,10.8125
13:25:08.097,15.9376,9.6875
13:25:08.106,15.4688,10.125
13:25:08.116,15.5626,8.6875
13:25:08.128,14.8126,7.9375
13:25:08.137,14.9376,9.125
13:25:08.151,15.0626,7.875
13:25:08.166,14.4688,7.8125
13:25:08.169,14.5626,8.5
13:25:08.177,15.2188,7.5625
13:25:08.186,15.5313,7.5
13:25:08.197,15.1251,7.1875
13:25:08.206,14.3438,7.9375
13:25:08.218,14.4063,6.4375
13:25:08.227,13.4376,4.875
13:25:08.236,13.1563,4.625
13:25:08.248,13.125,5.5625
13:25:08.256,13.7188,4.875
13:25:08.267,13.2501,3.8125
13:25:08.277,12.625,4
13:25:08.291,12.375,3.4375
13:25:08.298,12.5938,2.75
13:25:08.307,11.8438,1.4375
13:25:08.317,10.625,-0.25
13:25:08.326,9.5,-0.75
13:25:08.338,9.0938,-0.25
13:25:08.346,9.6875,-0.8125
13:25:08.357,8.2813,-1.9375
13:25:08.368,8.1875,-1.5625
13:25:08.377,8.5313,-2.3125
13:25:08.386,8.625,-3
13:25:08.417,7.25,-3.5
13:25:08.419,7,-2.9375
13:25:08.421,6.875,-4.8125
13:25:08.427,5.8125,-6.125
13:25:08.469,5.6563,-5.6875
13:25:08.472,5.5938,-5.1875
13:25:08.472,6.3438,-5.5
13:25:08.486,6.4375,-5.625
13:25:08.491,6.5625,-5.8125
13:25:08.492,6.4375,-4.75
13:25:08.498,6.9688,-5.6875
13:25:08.543,6.9375,-6.3125
13:25:08.543,7.7813,-4.5
13:25:08.545,9.8125,-1.75
13:25:08.550,13.2813,1.75
13:25:08.555,16.3126,6
13:25:08.557,19.2188,11.0625
13:25:08.578,22.0938,15.1251
13:25:08.581,24.7501,17.6251
13:25:08.596,25.9688,21.1876
13:25:08.612,27.0626,21.6251
13:25:08.613,26.7501,22.6251
13:25:08.617,25.9063,22.0001
13:25:08.626,24.9376,19.9376
13:25:08.637,22.7813,17.6876
13:25:08.647,21.2813,16.4376
13:25:08.657,19.9376,15.8751
13:25:08.666,19.5001,14.1876
13:25:08.677,19.3126,14.1251
13:25:08.687,19.0001,15.0626
13:25:08.697,19.3438,14.5626
13:25:08.707,20.1876,14.1251
13:25:08.717,20.1251,15.1876
13:25:08.727,20.0313,15.8126
13:25:08.737,20.4376,14.5001
13:25:08.747,19.5938,14.3126
13:25:08.756,19.1251,13.7501
13:25:08.767,18.1251,13.8126
13:25:08.777,17.9376,12.4375
13:25:08.787,17.4063,11.125
13:25:08.798,16.6251,10.6875
13:25:08.807,16.5313,10.0625
13:25:08.817,15.5313,10.0625
13:25:08.828,15.2813,10.1875
13:25:08.837,16.4376,9.6875
13:25:08.847,16.0001,9.6875
13:25:08.856,16.8751,10.5
13:25:08.867,16.9063,9.8125
13:25:08.876,16.1251,10.1875
13:25:08.888,15.9063,10.5
13:25:08.896,16.5313,9.4375
13:25:08.907,15.8126,9.125
13:25:08.917,16.3751,9.75
13:25:08.927,16.4376,8.9375
13:25:08.937,16.0626,8.5
13:25:08.948,14.7188,8.125
13:25:08.957,14.4376,7.1875
13:25:08.966,13.4376,5.75
13:25:08.977,12.4688,5.3125
13:25:08.987,12.2188,4.25
13:25:08.997,11.75,3.0625
13:25:09.006,11.25,2.4375
13:25:09.017,10.5,3.25
13:25:09.027,11.0313,1.6875
13:25:09.042,10.2813,0.75
13:25:09.046,10.0938,2
13:25:09.057,9.75,1.3125
13:25:09.066,9.8125,0
13:25:09.077,8.9688,-0.25
13:25:09.087,9.5938,0.0625
13:25:09.096,8.8125,-0.75
13:25:09.106,8.2188,-0.375
13:25:09.117,8.3125,-1.5625
13:25:09.128,7.875,-2.5625
13:25:09.154,8.0313,-1.9375
13:25:09.157,7.4375,-1.625
13:25:09.159,8.0938,-3.0625
13:25:09.202,7.0625,-2.4375
13:25:09.203,7.1563,-3.8125
13:25:09.205,5.9375,-4.6875
13:25:09.208,5.5938,-4.625
13:25:09.213,5.4688,-5.625
13:25:09.239,4.375,-7.3125
13:25:09.243,3.6563,-7.4375
13:25:09.245,4.125,-7.0625
13:25:09.270,3.9063,-8.125
13:25:09.273,3.5313,-8.125
13:25:09.276,4.3125,-8.125
13:25:09.282,3.4688,-8.5625
13:25:09.296,3.8125,-8.875
13:25:09.302,4.4688,-8.8125
13:25:09.316,5.4688,-7.4375
13:25:09.323,8.0938,-2.875
13:25:09.332,10.75,-0.375
13:25:09.342,14.0001,4.5
13:25:09.351,16.5938,7.625
13:25:09.361,17.7501,9.9375
13:25:09.371,19.5938,13.3751
13:25:09.381,20.1251,15.2501
13:25:09.391,20.9063,15.0626
13:25:09.402,19.6876,14.5001
13:25:09.416,20.0626,14.9376
13:25:09.422,19.0313,13.2501
13:25:09.432,17.6876,12.0625
13:25:09.446,17.1876,11.8125
13:25:09.462,16.4376,10.4375
13:25:09.464,15.9688,9.875
13:25:09.474,16.8438,10.25
13:25:09.482,15.8751,10.125
13:25:09.492,15.4376,11.4375
13:25:09.501,16.1563,11
13:25:09.512,16.4688,10.8125
13:25:09.522,16.0626,11.4375
13:25:09.533,16.1876,10.4375
13:25:09.543,15.4063,9.1875
13:25:09.553,14.5313,7.75
13:25:09.561,14.1563,8.3125
13:25:09.571,14.4063,7.8125
13:25:09.582,14.1563,6.8125
13:25:09.593,13.0625,8.1875
13:25:09.602,13.1876,7.1875
13:25:09.612,13.8438,7.25
13:25:09.622,13.9063,7.1875
13:25:09.632,13.2188,6.5
13:25:09.642,13.3438,7.5
13:25:09.652,14.2813,7.3125
13:25:09.661,13.3438,6.625
13:25:09.672,12.2188,7
13:25:09.682,12.2813,5.5625
13:25:09.692,11.4063,4.5625
13:25:09.701,10.5625,5.0625
13:25:09.712,11.2188,4.25
13:25:09.722,10.9375,3.0625
13:25:09.731,10.0625,2.6875
13:25:09.761,9.9688,3.5625
13:25:09.761,10.4063,1.875
13:25:09.766,9.1563,1.375
13:25:09.777,9.2188,2
13:25:09.792,9.0625,0.3125
13:25:09.797,8.2188,-0.4375
13:25:09.807,7.625,-0.1875
13:25:09.817,8.5,-1
13:25:09.827,7.3438,-2.0625
13:25:09.837,6.8125,-1.1875
13:25:09.868,7.1875,-1.6875
13:25:09.869,7,-2.875
13:25:09.872,6.875,-2.5625
13:25:09.877,6.8125,-2.375
13:25:09.905,6.8438,-2.6875
13:25:10.004,6.4688,-3.375
13:25:10.008,5.875,-3.1875
13:25:10.008,5.7188,-3.875
13:25:10.031,5.2813,-4.125
13:25:10.031,4.875,-5.5
13:25:10.031,5.1875,-4.9375
13:25:10.037,5.125,-5.875
13:25:10.037,4.7188,-5.75
13:25:10.041,5.25,-6.4375
13:25:10.048,4.75,-7.0625
13:25:10.057,4.3438,-5.8125
13:25:10.067,4.75,-7.4375
13:25:10.077,4.25,-6.75
13:25:10.087,3.8438,-7.375
13:25:10.098,3.8438,-8.5
13:25:10.108,3.0313,-9.1875
13:25:10.116,2.6563,-8.6875
13:25:10.126,2.8125,-8.875
13:25:10.137,3.3438,-9.75
13:25:10.147,2.6875,-9.75
13:25:10.158,3.0625,-10.3125
13:25:10.166,3,-10.5625
13:25:10.177,1.25,-14.3126
13:25:10.187,0.9063,-13.8126
13:25:10.198,2.1875,-13.3751
13:25:10.207,2.5625,-11.9375
13:25:10.217,6.0625,-8.6875
13:25:10.227,9.25,-4.8125
13:25:10.237,12.5,1.125
13:25:10.246,15.9063,5.125
13:25:10.257,18.5001,8.3125
13:25:10.267,20.6251,12.4375
13:25:10.277,21.8438,14.1251
13:25:10.287,21.4063,14.9376
13:25:10.297,22.1563,15.3751
13:25:10.307,20.8438,14.6251
13:25:10.317,19.7188,14.8751
13:25:10.326,19.4376,12.875
13:25:10.337,18.8751,11.6875
13:25:10.349,18.2501,11.25
13:25:10.357,17.3126,10.75
13:25:10.367,17.9688,11.8125
13:25:10.377,17.6563,10.9375
13:25:10.387,17.4063,10.9375
13:25:10.397,17.3751,12
13:25:10.406,17.3751,11.125
13:25:10.417,17.5001,11.4375
13:25:10.427,16.7188,12.3125
13:25:10.437,17.0938,11.5625
13:25:10.448,16.1563,10.75
13:25:10.456,15.4376,9.5625
13:25:10.467,15.0001,9.25
13:25:10.476,14.6876,8.8125
13:25:10.487,14.1563,7.0625
13:25:10.497,13.2188,7.5
13:25:10.507,13.3438,6.9375
13:25:10.517,12.5313,6
13:25:10.527,12.125,6.3125
13:25:10.541,12.75,6.875
13:25:10.547,13.0938,6.3125
13:25:10.558,12.5313,7.125
13:25:10.567,13,6.75
13:25:10.577,12.6875,6.375
13:25:10.602,12.7813,7
13:25:10.605,12.5,7.375
13:25:10.634,12.6563,6.4375
13:25:10.635,12.0313,5.3125
13:25:10.638,12.2188,5.9375
13:25:10.641,12.0625,5.125
13:25:10.667,10.9375,4.375
13:25:10.670,10.0625,3.4375
13:25:10.673,9.875,3.5
13:25:10.678,10.1563,2.6875
13:25:10.710,9.3438,2
13:25:10.714,8.9063,2.3125
13:25:10.715,8.5625,1.8125
13:25:10.740,8.5313,0.4375
13:25:10.741,7.9688,0.8125
13:25:10.786,7.5625,0.625
13:25:10.787,8.2813,0.1875
13:25:10.802,7.9063,-0.0625
13:25:10.802,7.25,0
13:25:10.802,8.2188,-0.1875
13:25:10.816,8.125,-0.5
13:25:10.820,7.3125,-0.6875
13:25:10.824,6.8125,-1.0625
13:25:10.824,6.6875,-1
13:25:10.832,6.4063,-2.4375
13:25:10.841,6.2813,-2.875
13:25:10.852,5.7188,-3.375
13:25:10.862,5.2813,-4.0625
13:25:10.872,5.0625,-3.5625
13:25:10.882,4.875,-3.5
13:25:10.891,5.0938,-4.5625
13:25:10.902,4.5313,-5.3125
13:25:10.917,5.1875,-5.375
13:25:10.922,4.9688,-5.4375
13:25:10.932,4.5625,-5.5625
13:25:10.942,4.4375,-5.875
13:25:10.952,4,-5.6875
13:25:10.962,3.2813,-6.4375
13:25:10.972,3.0313,-7.125
13:25:10.981,2.6875,-7.625
13:25:10.992,2.75,-8.5
13:25:11.002,2.0313,-8.6875
13:25:11.013,2.0313,-8.1875
13:25:11.039,1.9063,-9.4375
13:25:11.046,2.2188,-9.4375
13:25:11.046,2.875,-9.625
13:25:11.051,2.0625,-10.3125
13:25:11.062,1.5938,-8.875
13:25:11.072,2.1875,-10.3125
13:25:11.082,2.0313,-10.5625
13:25:11.092,1,-11.125
13:25:11.102,1.9375,-11.5
13:25:11.112,1.5938,-11.6875
13:25:11.122,0.9688,-10.8125
13:25:11.132,1.4688,-11.0625
13:25:11.142,1.6563,-11.875
13:25:11.152,1,-12.8125
13:25:11.162,0.8125,-11.875
13:25:11.172,1.25,-12.125
13:25:11.182,0.3438,-13.7501
13:25:11.192,0.0938,-13.1876
13:25:11.202,0.2813,-13.5626
13:25:11.212,-0.5938,-14.4376
13:25:11.222,-1.1563,-13.9376
13:25:11.232,-0.7188,-14.6251
13:25:11.247,-1.0625,-15.1876
13:25:11.255,-1.3125,-14.6876
13:25:11.263,-1.1563,-15.3126
13:25:11.278,-1.1563,-15.6251
13:25:11.285,-1.75,-14.6251
13:25:11.298,-1.8125,-15.8126
13:25:11.303,-2.7188,-17.3126
13:25:11.313,-3.1875,-16.6251
13:25:11.324,-3.0313,-17.1251
13:25:11.332,-3.6875,-18.1876
13:25:11.343,-4.2188,-19.1251
13:25:11.377,-4.7813,-19.3126
13:25:11.378,-4.125,-19.1876
13:25:11.381,-3.9688,-19.1876
13:25:11.383,-4.4688,-18.9376
13:25:11.417,-4.0625,-18.9376
13:25:11.418,-3.0313,-18.2501
13:25:11.420,-1.9375,-16.5626
13:25:11.424,0.5625,-14.7501
13:25:11.462,3.25,-11.4375
13:25:11.464,6.375,-5.9375
13:25:11.467,9.6563,-0.75
13:25:11.490,12.3125,3.75
13:25:11.490,14.9376,7.625
13:25:11.492,16.6876,9.5625
13:25:11.494,17.8126,13.0625
13:25:11.521,17.8126,12.1875
13:25:11.523,17.5001,13.5001
13:25:11.526,16.9688,11.75
13:25:11.532,16.5626,11.4375
13:25:11.541,16.0001,10.4375
13:25:11.552,14.4376,8.9375
13:25:11.561,14.2188,8.0625
13:25:11.572,12.9375,7.75
13:25:11.581,12.625,7.625
13:25:11.593,12.875,6.8125
13:25:11.603,12.9063,6.9375
13:25:11.612,13.6251,9.0625
13:25:11.621,14.1251,9.9375
13:25:11.631,14.0001,10.0625
13:25:11.641,15.2188,9.875
13:25:11.653,15.3438,10.5
13:25:11.661,14.5626,10.5
13:25:11.673,14.6563,10.4375
13:25:11.681,14.2813,8.625
13:25:11.692,13.0938,7.25
13:25:11.702,12.4375,8.5
13:25:11.712,12.2188,7.3125
13:25:11.722,11.875,7
13:25:11.731,11.7813,7.5625
13:25:11.741,11.2188,7.1875
13:25:11.752,11.8125,6.8125
13:25:11.761,10.875,6
13:25:11.771,10.9688,6.5625
13:25:11.781,11.5313,6.4375
13:25:11.794,10.8438,5.8125
13:25:11.801,9.7188,4.125
13:25:11.812,9.4375,4.4375
13:25:11.822,9,3.8125
13:25:11.832,7.7813,2.625
13:25:11.841,7.6875,1.75
13:25:11.851,7.5625,1.5
13:25:11.862,7.5,2.8125
13:25:11.871,8.2188,1.6875
13:25:11.881,7.4063,1.375
13:25:11.892,7.2188,0.375
13:25:11.902,6.5938,1.5
13:25:11.911,6.25,0.875
13:25:11.922,6.75,0.3125
13:25:11.932,5.9688,-0.6875
13:25:11.942,5.3125,-1.5
13:25:11.952,4.75,-0.5625
13:25:11.962,5.3438,-0.8125
13:25:11.972,5.0938,-1.375
13:25:11.981,4.9063,-1.8125
13:25:11.992,4.7813,-1.125
13:25:12.002,5.3125,-2.25
13:25:12.012,12.5313,2.6875
13:25:12.021,11.5,1.4375
13:25:12.031,14.2501,4.3125
13:25:12.048,16.5313,4.9375
13:25:12.053,14.3751,3.0625
13:25:12.084,14.1876,3.3125
13:25:12.125,13.125,3.5
13:25:12.232,12.5313,3.3125
13:25:12.233,13.9063,5.5625
13:25:12.237,17.1563,11.875
13:25:12.238,15.3438,10.1875
13:25:12.238,6.0625,5.75
13:25:12.243,-7.375,-4.125
13:25:12.252,-20.0313,-12.25
13:25:12.261,-40.5314,-29.0001
13:25:12.272,-49.8127,-36.1251
13:25:12.282,-65.6565,-45.3127
13:25:12.292,-84.8128,-58.0627
13:25:12.317,-98.8441,-68.2503
13:25:12.320,-108.4692,-74.8128
13:25:12.323,-114.6254,-79.1878
13:25:12.335,-119.188,-83.4378
13:25:12.343,-127.1255,-88.8128
13:25:12.351,-147.0943,-103.4379
13:25:12.364,-164.6569,-132.2505
13:25:12.372,-198.5633,-153.8756
13:25:12.381,-220.2508,-166.9381
13:25:12.392,-246.7197,-185.0007
13:25:12.402,-374.2514,-271.6885
13:25:12.415,-371.6577,-270.751
13:25:12.421,-368.0327,-266.1885
13:25:12.432,-364.4077,-263.876
13:25:12.442,-359.5014,-258.6885
13:25:12.452,-354.7826,-254.251
13:25:12.462,-350.2826,-248.4384
13:25:12.472,-344.3451,-243.1259
13:25:12.481,-340.6888,-237.8759
13:25:12.492,-336.3138,-234.5009
13:25:12.502,-332.6263,-232.1884
13:25:12.512,-329.22,-229.0634
13:25:12.521,-325.0325,-227.9384
13:25:12.531,-320.47,-224.5634
13:25:12.544,-315.8137,-220.8133
13:25:12.562,-310.6574,-219.0633
13:25:12.569,-305.9074,-215.8133
13:25:12.578,-300.9387,-212.3758
13:25:12.581,-294.8761,-208.7508
13:25:12.599,-289.7511,-204.6883
13:25:12.605,-282.4698,-200.4383
13:25:12.616,-277.3136,-195.6882
13:25:12.622,-272.7198,-193.8757
13:25:12.632,-267.501,-189.7507
13:25:12.642,-262.6573,-186.2507
13:25:12.652,-256.8135,-183.0632
13:25:12.663,-251.9385,-178.4382
13:25:12.672,-247.0947,-176.8132
13:25:12.682,-243.8759,-174.8132
13:25:12.692,-241.7509,-173.2507
13:25:12.701,-237.7822,-171.7507
13:25:12.711,-233.8759,-168.8756
13:25:12.722,-232.9696,-169.0631
13:25:12.732,-235.6572,-170.3757
13:25:12.741,-238.6259,-174.0007
13:25:12.755,-241.2822,-177.0632
13:25:12.785,-242.1259,-177.8757
13:25:12.786,-238.0009,-176.3757
13:25:12.789,-232.7821,-172.9382
13:25:12.792,-226.0634,-168.5631
13:25:12.827,-220.6883,-164.6881
13:25:12.830,-215.3758,-163.2506
13:25:12.832,-212.3446,-157.8131
13:25:12.834,-206.0008,-153.1881
13:25:12.866,-204.4695,-151.2506
13:25:12.867,-205.7508,-150.3756
13:25:12.869,-207.5633,-153.8131
13:25:12.895,-210.9695,-156.5631
13:25:12.897,-213.5633,-160.3131
13:25:12.899,-214.6883,-162.7506
13:25:12.903,-213.7821,-161.0631
13:25:12.933,-212.8133,-163.0006
13:25:12.935,-211.4696,-164.2506
13:25:12.938,-207.907,-162.2506
13:25:12.943,-203.2508,-161.1256
13:25:12.952,-199.282,-158.3131
13:25:12.961,-198.0633,-156.6881
13:25:12.972,-197.2507,-157.0631
13:25:12.981,-197.8445,-156.5006
13:25:12.993,-196.9695,-156.5006
13:25:13.001,-196.2195,-154.9381
13:25:13.011,-193.9695,-154.7506
13:25:13.021,-190.6882,-152.5631
13:25:13.031,-188.2195,-150.2506
13:25:13.043,-185.3757,-148.3756
13:25:13.052,-183.532,-147.5006
13:25:13.062,-180.6882,-146.1256
13:25:13.072,-179.7194,-144.438
13:25:13.082,-178.1882,-144.063
13:25:13.093,-178.0632,-143.1255
13:25:13.102,-177.7194,-143.1255
13:25:13.112,-176.9069,-142.563
13:25:13.122,-177.0007,-140.7505
13:25:13.132,-175.4382,-141.7505
13:25:13.141,-175.1882,-139.6255
13:25:13.151,-173.5319,-140.313
13:25:13.162,-172.1257,-138.7505
13:25:13.172,-168.9069,-138.313
13:25:13.182,-165.5006,-135.1255
13:25:13.193,-163.1569,-134.7505
13:25:13.202,-161.2506,-134.438
13:25:13.212,-158.3756,-132.0005
13:25:13.222,-155.2193,-130.8755
13:25:13.231,-151.1256,-127.8755
13:25:13.242,-147.7818,-123.8755
13:25:13.253,-143.5318,-122.1255
13:25:13.262,-140.5005,-118.438
13:25:13.272,-137.7818,-115.4379
13:25:13.281,-133.2193,-112.5629
13:25:13.294,-130.7817,-110.0004
13:25:13.306,-128.1255,-107.6879
13:25:13.315,-124.563,-104.4379
13:25:13.323,-121.2192,-100.1254
13:25:13.332,-117.0317,-96.1879
13:25:13.342,-113.1567,-90.3753
13:25:13.352,-107.9067,-85.2503
13:25:13.362,-104.0004,-78.7503
13:25:13.372,-99.9691,-75.8753
13:25:13.382,-97.9691,-71.1878
13:25:13.399,-95.2191,-70.0628
13:25:13.406,-93.2816,-67.8753
13:25:13.417,-93.5629,-67.1253
13:25:13.427,-93.0316,-67.5628
13:25:13.437,-94.1566,-67.2503
13:25:13.447,-94.6566,-69.0628
13:25:13.456,-94.8441,-68.8128
13:25:13.474,-95.3754,-69.6878
13:25:13.477,-93.9379,-68.9378
13:25:13.505,-93.4379,-67.1253
13:25:13.533,-91.3754,-66.6878
13:25:13.533,-90.0941,-64.2502
13:25:13.540,-88.3128,-63.3127
13:25:13.541,-85.7816,-61.9377
13:25:13.606,-84.7191,-60.2502
13:25:13.609,-83.3128,-60.5002
13:25:13.610,-81.9378,-59.4377
13:25:13.616,-82.7503,-59.6252
13:25:13.618,-83.8128,-62.0002
13:25:13.618,-85.9691,-63.7502
13:25:13.624,-86.3128,-64.3127
13:25:13.643,-86.3753,-64.9377
13:25:13.647,-89.5941,-66.9378
13:25:13.653,-90.3128,-68.4378
13:25:13.661,-91.2816,-70.1253
13:25:13.672,-90.3753,-68.0628
13:25:13.686,-87.4691,-66.3753
13:25:13.691,-86.1878,-65.2502
13:25:13.701,-86.1253,-63.6252
13:25:13.711,-84.7503,-64.8127
13:25:13.721,-84.7816,-65.9378
13:25:13.734,-84.1253,-65.3752
13:25:13.744,-84.3128,-66.0628
13:25:13.752,-83.5941,-66.2503
13:25:13.761,-83.5003,-66.0628
13:25:13.771,-83.3753,-67.2503
13:25:13.782,-85.5003,-69.7503
13:25:13.793,-85.4691,-68.7503
13:25:13.801,-84.5316,-68.5003
13:25:13.812,-83.6878,-69.4378
13:25:13.824,-82.8753,-68.1878
13:25:13.832,-81.2816,-68.5628
13:25:13.842,-80.0003,-65.8753
13:25:13.851,-77.8753,-65.6878
13:25:13.862,-76.5628,-65.0002
13:25:13.871,-76.0315,-64.0627
13:25:13.889,-77.344,-65.8128
13:25:13.896,-78.8441,-66.2503
13:25:13.905,-79.5003,-67.3128
13:25:13.912,-79.8753,-67.7503
13:25:13.926,-79.8753,-67.4378
13:25:13.935,-80.7191,-67.6878
13:25:13.942,-81.2503,-68.1253
13:25:13.952,-84.6878,-69.0628
13:25:13.962,-85.7503,-71.0003
13:25:13.971,-87.3753,-72.1253
13:25:13.981,-88.1566,-72.1878
13:25:13.992,-86.6566,-73.3753
13:25:14.002,-85.2816,-70.7503
13:25:14.012,-82.4691,-70.8128
13:25:14.022,-79.7816,-68.1878
13:25:14.033,-77.4065,-67.5628
13:25:14.041,-75.0003,-65.9378
13:25:14.051,-72.9065,-64.5627
13:25:14.062,-71.0315,-64.7502
13:25:14.072,-68.6253,-61.4377
13:25:14.082,-65.3752,-60.1252
13:25:14.093,-62.1565,-57.5627
13:25:14.102,-58.9065,-54.3127
13:25:14.111,-56.844,-51.5627
13:25:14.124,-53.2815,-49.3752
13:25:14.132,-50.9064,-46.4377
13:25:14.142,-48.9064,-45.5627
13:25:14.152,-51.6252,-45.1252
13:25:14.161,-52.2502,-44.6252
13:25:14.173,-51.5314,-46.0627
13:25:14.183,-52.5002,-45.3127
13:25:14.192,-52.4064,-46.9377
13:25:14.219,-52.7502,-46.0002
13:25:14.221,-53.1252,-47.5627
13:25:14.224,-53.5627,-48.2502
13:25:14.257,-52.9377,-47.6877
13:25:14.258,-53.2502,-49.1252
13:25:14.260,-52.4064,-48.3127
13:25:14.264,-50.9064,-47.3752
13:25:14.297,-50.2814,-46.6252
13:25:14.298,-49.6252,-46.6252
13:25:14.300,-49.8127,-46.3752
13:25:14.330,-49.0627,-46.7502
13:25:14.330,-49.1252,-46.5627
13:25:14.332,-48.7189,-47.6252
13:25:14.338,-50.4689,-48.3752
13:25:14.347,-51.0939,-49.3127
13:25:14.351,-50.6564,-48.7502
13:25:14.379,-50.2189,-46.6252
13:25:14.381,-46.1252,-43.8127
13:25:14.386,-43.5002,-38.7501
13:25:14.392,-40.4064,-34.0626
13:25:14.402,-37.8126,-29.6876
13:25:14.411,-36.1564,-24.8751
13:25:14.422,-34.2814,-22.1876
13:25:14.438,-31.8751,-17.7501
13:25:14.441,-30.0626,-16.3126
13:25:14.453,-27.9064,-13.3751
13:25:14.462,-28.4064,-14.1251
13:25:14.472,-30.9689,-15.5626
13:25:14.482,-31.2189,-16.3126
13:25:14.491,-32.9689,-18.1251
13:25:14.502,-34.2501,-20.2501
13:25:14.511,-33.9689,-20.6251
13:25:14.522,-32.9376,-20.8126
13:25:14.532,-32.7501,-21.2501
13:25:14.542,-32.5626,-21.5626
13:25:14.551,-32.8439,-21.5001
13:25:14.561,-32.1251,-21.3126
13:25:14.572,-31.4376,-20.6251
13:25:14.581,-35.5001,-23.8751
13:25:14.592,-38.5001,-25.6251
13:25:14.601,-39.2189,-27.6876
13:25:14.613,-38.8751,-28.3751
13:25:14.621,-36.4064,-26.1251
13:25:14.632,-35.0314,-24.8751
13:25:14.641,-34.5001,-24.3751
13:25:14.652,-33.9376,-22.9376
13:25:14.663,-32.4376,-21.8751
13:25:14.672,-30.1564,-20.3126
13:25:14.681,-28.9376,-18.6876
13:25:14.691,-26.9689,-17.5001
13:25:14.701,-26.9376,-16.9376
13:25:14.711,-26.9376,-17.7501
13:25:14.722,-26.5314,-17.0626
13:25:14.732,-27.0939,-17.5001
13:25:14.741,-27.5001,-18.6251
13:25:14.752,-30.7814,-20.1876
13:25:14.762,-32.7501,-22.0001
13:25:14.772,-35.2814,-24.0001
13:25:14.784,-36.1876,-24.6251
13:25:14.792,-36.2814,-25.8126
13:25:14.803,-37.0626,-25.5001
13:25:14.813,-36.4689,-25.9376
13:25:14.822,-36.5939,-25.7501
13:25:14.832,-36.4376,-25.9376
13:25:14.842,-35.9064,-26.0626
13:25:14.879,-35.0939,-25.5626
13:25:14.894,-36.4064,-27.1251
13:25:14.898,-37.6251,-27.4376
13:25:14.910,-38.8751,-28.7501
13:25:14.910,-38.9064,-29.3126
13:25:14.926,-39.1876,-29.5001
13:25:14.929,-38.9064,-29.5001
13:25:14.932,-39.7814,-29.2501
13:25:14.933,-39.5627,-29.5001
13:25:14.942,-39.6252,-28.6251
13:25:14.953,-39.6252,-28.5001
13:25:14.962,-39.8127,-28.4376
13:25:14.972,-39.0001,-27.6251
13:25:14.981,-37.5939,-26.4376
13:25:14.992,-35.4064,-25.3126
13:25:15.002,-32.4376,-24.1876
13:25:15.024,-29.0001,-21.6251
13:25:15.027,-24.9063,-19.4376
13:25:15.053,-20.0626,-16.5001
13:25:15.055,-16.9376,-13.3751
13:25:15.058,-12.9688,-9.375
13:25:15.062,-8.5,-7
13:25:15.097,-5.2813,-3.375
13:25:15.101,-2.4375,-0.625
13:25:15.102,-0.5938,1.0625
13:25:15.105,1.1563,4
13:25:15.134,2.6875,3.75
13:25:15.137,3.125,4.9375
13:25:15.140,4.8438,4.8125
13:25:15.163,5.125,7.1875
13:25:15.165,4.5938,4.9375
13:25:15.167,2.9688,4.9375
13:25:15.171,0.5938,1.9375
13:25:15.194,-2.4375,-0.9375
13:25:15.196,-5.6563,-2.5
13:25:15.212,-9.9063,-6.625
13:25:15.214,-13.6563,-9.625
13:25:15.225,-16.2813,-12.375
13:25:15.232,-18.7501,-14.6251
13:25:15.248,-21.2501,-17.5626
13:25:15.263,-23.4376,-18.5626
13:25:15.265,-25.2501,-20.3126
13:25:15.273,-26.1251,-23.5001
13:25:15.281,-27.7501,-24.6251
13:25:15.292,-28.6876,-25.5626
13:25:15.302,-29.0626,-27.5001
13:25:15.311,-29.5939,-29.1251
13:25:15.322,-30.3126,-30.3751
13:25:15.332,-29.8751,-30.2501
13:25:15.341,-28.1251,-29.9376
13:25:15.352,-31.7814,-32.8126
13:25:15.362,-35.4689,-35.6876
13:25:15.373,-38.6876,-37.2501
13:25:15.382,-39.7189,-37.8126
13:25:15.391,-38.3439,-37.3751
13:25:15.402,-37.4689,-34.3126
13:25:15.412,-33.2189,-31.8126
13:25:15.422,-28.8751,-26.6876
13:25:15.431,-24.1251,-21.0001
13:25:15.442,-18.5938,-15.0001
13:25:15.452,-13.6251,-7.6875
13:25:15.462,-9.3438,-3.9375
13:25:15.471,-5.125,0.875
13:25:15.482,-1.6563,3.9375
13:25:15.491,-0.8125,9.5625
13:25:15.502,1.9688,12.5
13:25:15.512,1.4375,15.8751
13:25:15.522,0.9375,15.1876
13:25:15.531,0.5938,16.1876
13:25:15.541,-1,15.3126
13:25:15.551,-1.9688,15.0626
13:25:15.561,-3.5,12
13:25:15.571,-5.6563,11.375
13:25:15.581,-9.2813,5.5
13:25:15.592,-9.9375,4.9375
13:25:15.602,-8.6563,4.4375
13:25:15.612,-7.5,5
13:25:15.621,-5.8125,5.9375
13:25:15.632,-4.9375,5.875
13:25:15.642,-6.0313,4.625
13:25:15.652,-6.8438,5
13:25:15.663,-8.0625,5.1875
13:25:15.673,-8.7813,4.75
13:25:15.682,-9.5,3.4375
13:25:15.694,-11.5,3.0625
13:25:15.705,-13.6563,3.125
13:25:15.714,-16.1876,1.1875
13:25:15.723,-17.5313,0
13:25:15.731,-18.5938,-0.25
13:25:15.761,-18.9688,-0.4375
13:25:15.766,-20.9063,-0.8125
13:25:15.768,-21.8751,-2.1875
13:25:15.772,-24.4063,-3.5625
13:25:15.803,-27.6564,-3.5625
13:25:15.806,-29.2501,-6.125
13:25:15.808,-31.5001,-8.875
13:25:15.813,-32.1564,-8.25
13:25:15.825,-32.7189,-9.1875
13:25:15.854,-33.5939,-9.5
13:25:15.857,-33.7501,-10.25
13:25:15.859,-33.4376,-10.875
13:25:15.862,-31.4376,-9.875
13:25:15.898,-30.3751,-9.125
13:25:15.900,-27.5626,-8.1875
13:25:15.900,-24.3438,-6.3125
13:25:15.908,-20.9063,-3.875
13:25:15.919,-18.1563,-2.3125
13:25:15.921,-16.2188,-0.375
13:25:15.932,-13.5313,1.4375
13:25:15.948,-11.375,2.75
13:25:15.952,-9.375,5.5
13:25:15.963,-7.5938,6.5
13:25:15.973,-6.3438,7.8125
13:25:15.982,-5.5,7.5625
13:25:15.992,-6.8438,7.8125
13:25:16.003,-6.7813,7
13:25:16.016,-7.7188,6.25
13:25:16.026,-7.2813,6.1875
13:25:16.036,-7.9688,5.3125
13:25:16.047,-8.75,4.5625
13:25:16.056,-9.5625,4.0625
13:25:16.067,-11.8125,1.5625
13:25:16.078,-14.0313,-0.5
13:25:16.087,-17.6563,-2.6875
13:25:16.098,-19.9063,-4.125
13:25:16.109,-21.7501,-6.9375
13:25:16.118,-24.0626,-8.75
13:25:16.129,-24.8438,-10.5
13:25:16.158,-26.0001,-11.875
13:25:16.160,-26.5001,-10.875
13:25:16.163,-25.9063,-12.875
13:25:16.167,-27.4376,-14.2501
13:25:16.178,-28.1564,-15.3751
13:25:16.193,-29.1876,-16.9376
13:25:16.209,-27.4376,-17.2501
13:25:16.212,-26.7501,-17.4376
13:25:16.226,-25.2501,-15.9376
13:25:16.229,-26.0313,-17.6251
13:25:16.246,-26.5001,-19.4376
13:25:16.249,-27.5626,-20.3751
13:25:16.256,-28.0939,-21.5001
13:25:16.266,-31.9689,-24.8751
13:25:16.277,-35.2814,-27.6251
13:25:16.286,-38.4689,-30.1876
13:25:16.296,-38.8751,-30.3751
13:25:16.306,-40.8752,-32.2501
13:25:16.323,-41.2502,-32.8126
13:25:16.327,-40.8439,-33.0001
13:25:16.336,-40.9689,-32.5626
13:25:16.347,-38.9376,-33.1251
13:25:16.357,-37.4689,-31.3751
13:25:16.368,-37.0939,-32.1251
13:25:16.377,-36.1876,-31.0626
13:25:16.386,-30.5314,-30.6876
13:25:16.402,-32.7189,-29.5626
13:25:16.440,-30.8751,-27.3126
13:25:16.441,-29.5314,-25.9376
13:25:16.441,-28.2501,-23.6876
13:25:16.444,-25.1876,-19.1876
13:25:16.448,-22.4376,-14.4376
13:25:16.476,-20.5313,-11
13:25:16.478,-18.8438,-9.0625
13:25:16.481,-18.6876,-7.125
13:25:16.506,-17.3438,-6.6875
13:25:16.509,-16.2501,-5.9375
13:25:16.511,-15.2813,-5.5
13:25:16.516,-14.1563,-4.3125
13:25:16.561,-12.4063,-4.125
13:25:16.576,-13.4688,-3.75
13:25:16.580,-14.2501,-4.5
13:25:16.580,-15.7188,-4.625
13:25:16.592,-16.2188,-4.9375
13:25:16.595,-16.4376,-5.25
13:25:16.597,-17.9063,-6.0625
13:25:16.601,-19.2813,-5.875
13:25:16.608,-20.4063,-6.4375
13:25:16.616,-22.4688,-7.1875
13:25:16.626,-22.7813,-6.875
13:25:16.636,-23.9688,-7.125
13:25:16.646,-25.4688,-7.875
13:25:16.656,-26.0938,-8.5625
13:25:16.666,-28.8126,-9.125
13:25:16.676,-30.0626,-11.1875
13:25:16.686,-31.8126,-12.4375
13:25:16.700,-34.0314,-13
13:25:16.706,-35.2814,-13
13:25:16.717,-35.8751,-13.4376
13:25:16.727,-34.4064,-13.8126
13:25:16.736,-32.9689,-12.4375
13:25:16.747,-30.3126,-10.3125
13:25:16.757,-27.5626,-8.625
13:25:16.767,-25.0001,-7.5625
13:25:16.777,-23.6251,-6.25
13:25:16.789,-22.1251,-6.4375
13:25:16.796,-21.7188,-5.875
13:25:16.806,-18.9063,-4.6875
13:25:16.817,-16.4376,-2.8125
13:25:16.826,-14.8751,-0.9375
13:25:16.837,-13.8126,-0.3125
13:25:16.846,-13.1875,1.875
13:25:16.856,-12.3125,1.25
13:25:16.866,-12.4688,1.9375
13:25:16.876,-12.4375,0.5
13:25:16.887,-13.4688,1.25
13:25:16.900,-14.0313,-0.875
13:25:16.907,-15.2501,-0.6875
13:25:16.917,-16.7501,-2.875
13:25:16.927,-18.3438,-3.875
13:25:16.937,-19.4063,-6.3125
13:25:16.947,-21.0313,-6.4375
13:25:16.958,-21.5626,-8.375
13:25:16.966,-22.8126,-8.5
13:25:16.977,-23.2813,-10.4375
13:25:16.986,-25.4063,-11.125
13:25:16.997,-26.7189,-14.0001
13:25:17.007,-28.3126,-14.6251
13:25:17.017,-29.8126,-15.9376
13:25:17.027,-30.7501,-18.2501
13:25:17.037,-30.0626,-17.4376
13:25:17.047,-28.0314,-17.4376
13:25:17.059,-26.9376,-15.3751
13:25:17.068,-26.9064,-16.9376
13:25:17.075,-28.0939,-16.8126
13:25:17.086,-30.3126,-19.0626
13:25:17.097,-31.1251,-20.0626
13:25:17.107,-30.8439,-21.6251
13:25:17.117,-29.7501,-20.8126
13:25:17.136,-28.8751,-21.5001
13:25:17.138,-28.0314,-20.5626
13:25:17.164,-28.1564,-21.8751
13:25:17.167,-27.3126,-20.8126
13:25:17.169,-26.2188,-21.9376
13:25:17.176,-28.4376,-22.6251
13:25:17.207,-31.1564,-25.8126
13:25:17.210,-31.9064,-25.6876
13:25:17.212,-31.5626,-25.6251
13:25:17.218,-32.0626,-26.1251
13:25:17.247,-32.5939,-25.5626
13:25:17.248,-33.7814,-27.1876
13:25:17.251,-36.0001,-27.5001
13:25:17.256,-35.7814,-30.2501
13:25:17.291,-36.5939,-29.3126
13:25:17.293,-34.9689,-30.5001
13:25:17.294,-34.5001,-29.4376
13:25:17.296,-31.7814,-28.3126
13:25:17.307,-30.3126,-26.6876
13:25:17.316,-28.3126,-25.5626
13:25:17.326,-29.4689,-25.0626
13:25:17.336,-26.9376,-23.4376
13:25:17.347,-27.0626,-24.8126
13:25:17.357,-26.1563,-25.8126
13:25:17.368,-24.8751,-23.0001
13:25:17.377,-22.6563,-22.1251
13:25:17.386,-20.1251,-20.0626
13:25:17.397,-17.8126,-18.0626
13:25:17.406,-16.6563,-17.5001
13:25:17.439,-15.6876,-16.0001
13:25:17.441,-12.2188,-12.875
13:25:17.443,-9.3125,-8.25
13:25:17.450,-3.375,-1.9375
13:25:17.461,1.0938,4.125
13:25:17.471,7.8438,11.9375
13:25:17.482,12.4063,18.5001
13:25:17.493,17.1563,24.2501
13:25:17.510,19.7188,29.0626
13:25:17.515,21.1251,30.5626
13:25:17.528,21.0938,29.8751
13:25:17.543,20.6563,31.5001
13:25:17.545,17.6876,29.3126
13:25:17.554,14.6563,26.4376
13:25:17.561,12.0938,24.3126
13:25:17.572,78.2815,74.4378
13:25:17.582,90.9066,71.6878
13:25:17.595,165.9381,118.2505
13:25:17.601,179.8444,143.063
13:25:17.612,179.3757,148.0631
13:25:17.621,187.407,158.2506
13:25:17.632,191.8445,163.0006
13:25:17.642,187.6882,160.0006
13:25:17.652,179.9382,153.6881
13:25:17.663,175.4694,149.8756
13:25:17.673,172.1569,147.0006
13:25:17.682,170.0006,143.8755
13:25:17.692,167.9381,142.438
13:25:17.702,167.7819,142.6255
13:25:17.712,173.4694,146.813
13:25:17.722,180.0319,151.7506
13:25:17.732,185.5007,154.7506
13:25:17.742,194.2195,163.2506
13:25:17.753,202.0945,169.6256
13:25:17.763,210.4383,174.5632
13:25:17.770,219.0321,180.6882
13:25:17.782,228.5634,188.3757
13:25:17.791,240.5634,195.6257
13:25:17.801,251.6885,204.4383
13:25:17.810,259.501,210.2508
13:25:17.828,260.6885,210.5633
13:25:17.833,259.8447,209.8758
13:25:17.842,257.5322,208.3133
13:25:17.859,255.4385,207.4383
13:25:17.874,256.5322,206.6883
13:25:17.919,258.9072,209.1883
13:25:17.955,261.4698,209.5633
13:25:17.957,265.5323,212.2508
13:25:17.960,268.376,214.5008
13:25:17.960,271.3135,216.7508
13:25:17.960,271.7198,216.2508
13:25:17.968,272.3135,216.6883
13:25:18.007,273.3448,216.3758
13:25:18.010,271.001,214.5008
13:25:18.012,268.2198,212.5633
13:25:18.014,265.6573,210.5008
13:25:18.020,267.1573,211.8758
13:25:18.027,269.2823,214.3133
13:25:18.049,264.751,212.0008
13:25:18.051,254.2822,203.4383
13:25:18.057,250.6572,199.6258
13:25:18.067,250.6572,200.4383
13:25:18.076,253.001,203.6883
13:25:18.086,252.501,203.4383
13:25:18.096,251.2197,202.2508
13:25:18.106,250.5947,202.4383
13:25:18.116,249.9697,201.2508
13:25:18.128,243.3447,197.5008
13:25:18.139,238.2197,193.1257
13:25:18.146,235.1572,190.7507
13:25:18.157,232.1571,187.8757
13:25:18.166,229.5009,185.4382
13:25:18.176,226.6884,183.3132
13:25:18.186,223.3134,179.8132
13:25:18.196,220.9383,179.3757
13:25:18.210,219.0633,175.4382
13:25:18.221,214.3758,171.7507
13:25:18.226,210.157,168.6881
13:25:18.237,206.3133,163.8131
13:25:18.245,202.6258,160.5006
13:25:18.258,200.8445,157.8756
13:25:18.267,198.0008,155.6881
13:25:18.275,195.907,153.5006
13:25:18.286,190.282,149.6256
13:25:18.295,185.4695,146.313
13:25:18.306,182.8132,142.5005
13:25:18.316,178.8132,140.438
13:25:18.327,176.1257,135.813
13:25:18.339,172.2819,134.188
13:25:18.346,170.3756,130.938
13:25:18.356,167.8756,129.688
13:25:18.365,166.4381,128.563
13:25:18.377,165.0319,126.813
13:25:18.385,164.1569,128.6255
13:25:18.396,164.6256,130.2505
13:25:18.407,164.2194,132.1255
13:25:18.419,164.1256,134.688
13:25:18.425,163.0631,135.6255
13:25:18.435,162.4694,135.8755
13:25:18.446,161.1569,136.8755
13:25:18.457,159.0319,134.7505
13:25:18.467,156.6256,133.5005
13:25:18.477,154.5943,131.688
13:25:18.487,151.8131,129.813
13:25:18.497,148.2193,127.813
13:25:18.506,145.4068,124.5005
13:25:18.517,142.813,121.438
13:25:18.525,139.7193,120.0005
13:25:18.537,136.9068,116.7504
13:25:18.546,134.6255,115.0004
13:25:18.555,132.2818,113.2504
13:25:18.568,131.563,111.8754
13:25:18.575,130.188,110.7504
13:25:18.589,129.2192,110.1879
13:25:18.595,128.563,109.3754
13:25:18.607,127.438,109.0629
13:25:18.615,125.4692,108.1879
13:25:18.627,123.1567,105.7504
13:25:18.636,120.2192,104.1879
13:25:18.658,118.188,101.5629
13:25:18.660,115.0317,99.2504
13:25:18.689,112.7817,97.5004
13:25:18.690,110.3442,94.1254
13:25:18.693,108.5317,93.1254
13:25:18.718,107.3754,92.0629
13:25:18.721,107.1567,92.2504
13:25:18.748,106.5629,91.5004
13:25:18.749,104.5316,91.0004
13:25:18.751,102.2816,89.0003
13:25:18.753,99.4379,87.3753
13:25:18.781,97.7816,85.0628
13:25:18.783,95.0316,83.3128
13:25:18.784,93.3441,80.7503
13:25:18.789,91.3129,79.5003
13:25:18.818,90.4066,77.8128
13:25:18.821,88.4691,76.0003
13:25:18.836,87.8128,75.2503
13:25:18.839,86.0628,73.3128
13:25:18.853,83.6878,72.6253
13:25:18.868,82.6878,69.9378
13:25:18.870,79.9378,69.0003
13:25:18.870,78.7816,66.1878
13:25:18.886,76.5628,65.0002
13:25:18.888,75.0315,64.0627
13:25:18.895,72.8753,60.1877
13:25:18.906,71.719,59.6252
13:25:18.915,70.7815,58.5627
13:25:18.926,68.8128,57.0002
13:25:18.937,68.219,56.1877
13:25:18.948,67.5315,54.8752
13:25:18.955,65.9378,54.8752
13:25:18.972,65.3128,53.0627
13:25:18.975,63.6877,53.1877
13:25:18.985,62.594,50.6877
13:25:18.997,61.6877,49.5627
13:25:19.006,60.5315,48.1252
13:25:19.015,59.3127,47.5002
13:25:19.027,58.6252,46.1877
13:25:19.038,57.4065,45.5627
13:25:19.047,57.4377,44.1252
13:25:19.055,56.2815,44.3127
13:25:19.067,54.469,42.5002
13:25:19.075,54.2502,41.6877
13:25:19.086,52.3752,40.6877
13:25:19.097,51.3127,39.3752
13:25:19.105,50.7189,39.3126
13:25:19.115,50.8752,39.2501
13:25:19.127,50.2189,38.7501
13:25:19.135,49.3439,37.7501
13:25:19.146,47.7189,36.3126
13:25:19.157,47.1877,35.0626
13:25:19.168,46.3752,34.6876
13:25:19.177,46.0002,34.0001
13:25:19.185,44.6252,33.0001
13:25:19.202,45.4689,33.0626
13:25:19.208,45.0002,32.6876
13:25:19.219,45.4689,32.5001
13:25:19.225,44.0627,31.6876
13:25:19.241,44.3752,31.3126
13:25:19.249,42.9377,30.1251
13:25:19.257,43.3439,29.8126
13:25:19.267,42.8439,29.8751
13:25:19.276,42.8127,29.5001
13:25:19.285,41.5939,29.5001
13:25:19.295,41.5627,29.2501
13:25:19.307,41.7189,28.5001
13:25:19.318,40.5939,27.9376
13:25:19.325,40.4689,27.8126
13:25:19.335,40.2814,27.1876
13:25:19.345,39.6252,26.7501
13:25:19.383,38.6876,25.5626
13:25:19.387,37.9689,24.5001
13:25:19.388,37.5001,24.5001
13:25:19.390,37.7501,24.1251
13:25:19.397,38.1564,24.2501
13:25:19.431,38.7501,25.3751
13:25:19.434,41.3752,27.7501
13:25:19.436,43.1564,31.6251
13:25:19.471,46.5627,36.0626
13:25:19.472,49.6877,40.3127
13:25:19.476,52.5002,44.7502
13:25:19.481,54.5627,48.2502
13:25:19.482,56.094,51.3127
13:25:19.486,57.1877,53.2502
13:25:19.518,57.844,53.8127
13:25:19.521,56.7815,54.5002
13:25:19.523,56.6252,54.5627
13:25:19.528,54.9377,51.6252
13:25:19.543,52.8127,50.3127
13:25:19.545,51.3752,49.5627
13:25:19.555,49.9064,47.5002
13:25:19.567,49.5002,46.4377
13:25:19.575,48.3439,45.3127
13:25:19.587,48.2189,44.8752
13:25:19.598,47.5939,44.3752
13:25:19.608,46.5627,43.1877
13:25:19.615,46.4689,44.0002
13:25:19.625,45.8752,44.6252
13:25:19.636,44.3439,43.5002
13:25:19.647,43.8752,42.4377
13:25:19.655,43.0939,41.6252
13:25:19.667,42.2814,41.3752
13:25:19.677,41.4377,39.8127
13:25:19.687,40.1877,39.2502
13:25:19.698,39.8439,38.3126
13:25:19.705,39.2814,37.5001
13:25:19.723,38.8751,37.3126
13:25:19.726,37.3751,36.8751
13:25:19.736,37.6876,36.6251
13:25:19.748,36.6876,36.0001
13:25:19.755,36.8439,35.6251
13:25:19.767,35.9376,34.6251
13:25:19.776,35.9689,34.6876
13:25:19.786,35.0314,33.5001
13:25:19.797,34.3439,33.9376
13:25:19.806,33.8751,33.0001
13:25:19.816,33.7189,32.5001
13:25:19.827,33.0626,31.5001
13:25:19.835,32.2814,30.8126
13:25:19.847,32.0001,30.6251
13:25:19.858,32.0939,29.6251
13:25:19.867,31.8439,29.8126
13:25:19.877,31.2189,29.1251
13:25:19.885,30.7189,28.2501
13:25:19.896,29.9064,27.1876
13:25:19.907,29.0314,26.5001
13:25:19.916,29.5939,26.5626
13:25:19.925,29.8439,26.0001
13:25:19.936,28.7814,25.7501
13:25:19.945,28.7814,24.8126
13:25:19.957,29.2814,24.8751
13:25:19.969,29.1251,24.6876
13:25:19.998,29.2501,24.0626
13:25:20.000,28.8439,24.3751
13:25:20.003,29.2501,23.9376
13:25:20.007,28.6564,23.8126
13:25:20.017,28.6876,23.7501
13:25:20.028,28.0314,23.0626
13:25:20.035,27.2501,21.8751
13:25:20.045,27.2189,21.1251
13:25:20.067,27.6251,21.5626
13:25:20.069,28.1876,21.3126
13:25:20.097,27.2501,20.8126
13:25:20.100,27.3439,20.3126
13:25:20.101,27.2814,21.1876
13:25:20.107,28.2501,20.6251
13:25:20.148,27.1876,19.7501
13:25:20.150,26.6564,20.4376
13:25:20.178,26.5314,19.5626
13:25:20.181,26.6251,18.8751
13:25:20.209,25.7813,18.0001
13:25:20.209,26.0626,18.3751
13:25:20.209,25.8438,18.6251
13:25:20.252,26.0938,17.8126
13:25:20.257,25.7501,17.1876
13:25:20.258,26.3751,17.2501
13:25:20.258,26.1563,17.3126
13:25:20.258,25.3438,17.9376
13:25:20.258,25.0938,16.3751
13:25:20.261,24.9376,15.7501
13:25:20.271,24.0313,15.0626
13:25:20.281,23.3126,15.5626
13:25:20.290,23.5313,14.7501
13:25:20.302,24.4688,15.3751
13:25:20.313,26.6876,17.8751
13:25:20.321,29.2814,22.0626
13:25:20.331,32.5939,26.0626
13:25:20.341,35.2189,30.0001
13:25:20.352,40.6252,39.0627
13:25:20.363,41.4064,39.6877
13:25:20.371,40.5939,39.7502
13:25:20.381,40.1564,40.1252
13:25:20.391,39.6877,40.5002
13:25:20.400,39.5627,38.9376
13:25:20.410,38.8751,38.2501
13:25:20.422,37.7189,36.7501
13:25:20.430,36.9376,37.1251
13:25:20.440,37.4376,36.6876
13:25:20.450,36.2814,36.0626
13:25:20.460,35.6876,36.4376
13:25:20.470,35.7814,35.1251
13:25:20.481,35.4064,34.5626
13:25:20.493,34.7501,34.9376
13:25:20.500,34.4064,35.2501
13:25:20.510,34.5626,34.3751
13:25:20.525,33.9376,33.6251
13:25:20.534,32.7814,32.6876
13:25:20.541,32.3751,32.8126
13:25:20.557,32.4689,31.9376
13:25:20.573,31.2501,30.6876
13:25:20.575,30.4689,29.1876
13:25:20.581,29.9689,30.6251
13:25:20.590,30.3751,29.8751
13:25:20.601,30.2501,28.7501
13:25:20.610,29.5626,30.1251
13:25:20.626,30.0939,28.9376
13:25:20.631,29.9689,29.1251
13:25:20.643,29.4689,30.0626
13:25:20.650,29.6251,29.5001
13:25:20.660,29.7189,28.4376
13:25:20.670,28.9689,27.5626
13:25:20.682,28.7501,26.6876
13:25:20.690,28.0314,27.3126
13:25:20.700,28.3439,26.4376
13:25:20.710,27.1251,25.3751
13:25:20.721,25.9063,23.8126
13:25:20.733,24.6563,23.6251
13:25:20.740,23.3438,23.1876
13:25:20.750,23.5938,21.6876
13:25:20.761,23.0626,20.4376
13:25:20.771,22.7188,19.5626
13:25:20.783,22.0938,19.8751
13:25:20.810,21.5626,20.1251
13:25:20.813,21.9376,18.7501
13:25:20.816,21.0938,17.8126
13:25:20.822,20.7188,17.0001
13:25:20.861,20.0938,16.5626
13:25:20.863,19.9688,17.2501
13:25:20.864,20.0938,16.4376
13:25:20.867,20.0626,15.4376
13:25:20.873,19.7188,16.2501
13:25:20.902,20.4688,15.3751
13:25:20.904,19.9063,14.8751
13:25:20.907,20.0626,14.1876
13:25:20.912,19.7188,15.4376
13:25:20.940,18.7188,13.4376
13:25:20.943,17.6876,12.75
13:25:20.946,16.6876,11.75
13:25:20.952,15.5626,12.25
13:25:20.961,15.2813,11.0625
13:25:20.971,14.9063,10.125
13:25:20.982,14.5938,8.9375
13:25:20.991,14.5001,9.5
13:25:21.002,14.2501,8.4375
13:25:21.011,13.8438,7.5
13:25:21.020,13.5626,6.75
13:25:21.031,13.8751,7
13:25:21.041,13.6251,7.1875
13:25:21.050,13.2501,6.6875
13:25:21.060,12.5313,5.5625
13:25:21.070,12.7188,6.6875
13:25:21.081,12.25,5.375
13:25:21.090,12.1875,4.75
13:25:21.100,11.4688,4.75
13:25:21.110,11.4375,4.8125
13:25:21.121,11.4375,4.0625
13:25:21.132,10.4375,2.75
13:25:21.140,9.875,2.75
13:25:21.151,9.5938,2.875
13:25:21.162,10.0938,2
13:25:21.171,9.625,1.25
13:25:21.180,8.8438,0.9375
13:25:21.190,9.375,1
13:25:21.201,9.1875,0.5625
13:25:21.210,8.8125,-0.4375
13:25:21.222,8.2813,-0.25
13:25:21.230,8.625,0.3125
13:25:21.240,9.625,0.4375
13:25:21.250,11.2188,1.4375
13:25:21.279,13.125,4.1875
13:25:21.282,15.4688,8.3125
13:25:21.284,18.3751,13.7501
13:25:21.290,23.0938,18.6251
13:25:21.300,26.2501,22.8126
13:25:21.312,27.7814,26.1876
13:25:21.321,28.9064,29.7501
13:25:21.331,30.6876,31.3751
13:25:21.341,31.0314,31.6876
13:25:21.350,30.7189,31.3751
13:25:21.362,29.5314,31.5626
13:25:21.376,29.0626,30.5001
13:25:21.382,28.2189,29.0626
13:25:21.390,27.1564,27.8751
13:25:21.400,25.9688,28.3126
13:25:21.411,25.8438,26.6876
13:25:21.420,25.2188,25.4376
13:25:21.430,25.0001,26.1251
13:25:21.440,25.5938,26.1876
13:25:21.450,25.1876,26.0001
13:25:21.462,25.0001,26.6876
13:25:21.470,25.1876,27.2501
13:25:21.488,25.0938,26.8126
13:25:21.496,24.4688,25.8126
13:25:21.505,23.5313,26.8126
13:25:21.522,23.2813,24.7501
13:25:21.536,22.6563,24.2501
13:25:21.539,22.0313,22.9376
13:25:21.548,22.0313,24.0626
13:25:21.555,22.1251,22.5001
13:25:21.590,21.5001,22.0626
13:25:21.593,22.0313,23.3126
13:25:21.595,22.3438,22.6876
13:25:21.597,21.7813,22.0626
13:25:21.631,21.0001,23.5001
13:25:21.633,21.8751,22.5001
13:25:21.638,21.1563,22.4376
13:25:21.643,20.8126,22.3751
13:25:21.649,20.7188,22.3126
13:25:21.655,20.8126,21.7501
13:25:21.693,20.8751,21.2501
13:25:21.696,20.9376,20.6876
13:25:21.698,20.7188,20.5626
13:25:21.703,20.7188,21.3751
13:25:21.707,20.8751,19.7501
13:25:21.737,19.6563,18.8751
13:25:21.739,18.7813,19.5001
13:25:21.741,18.6563,18.6876
13:25:21.746,18.3126,16.6876
13:25:21.758,17.1876,16.5001
13:25:21.766,17.5313,17.6876
13:25:21.779,17.7188,16.3751
13:25:21.785,17.6251,15.5001
13:25:21.795,17.0938,15.2501
13:25:21.805,16.5313,14.8126
13:25:21.818,17.1251,15.5001
13:25:21.826,16.6251,14.2501
13:25:21.844,15.7501,13.7501
13:25:21.847,15.3126,13.5001
13:25:21.860,14.9688,13.8751
13:25:21.869,15.0001,12.1875
13:25:21.875,14.0001,11.25
13:25:21.886,13.4063,10.1875
13:25:21.896,12.9375,10.125
13:25:21.905,12.1875,10.0625
13:25:21.915,12.6563,9.5
13:25:21.925,12.2188,8.6875
13:25:21.935,11.8125,9.125
13:25:21.948,11.9375,9.5625
13:25:21.955,11.7813,8.375
13:25:21.965,12.3125,7.75
13:25:21.976,11.125,6.375
13:25:21.988,10,6.375
13:25:21.995,9.875,5.8125
13:25:22.006,10.0313,5.0625
13:25:22.015,9.3438,4.3125
13:25:22.028,8.5938,3.375
13:25:22.036,7.9688,3.875
13:25:22.046,7.5,2.875
13:25:22.056,7.4063,2.625
13:25:22.068,7.1875,2.75
13:25:22.076,7.7813,2.5
13:25:22.086,7.8125,2.0625
13:25:22.095,7.875,2.5625
13:25:22.108,8.4375,2.3125
13:25:22.115,7.5,0.6875
13:25:22.126,7.0625,0.5
13:25:22.140,7.375,0.625
13:25:22.145,6.9375,-0.25
13:25:22.156,6.875,-0.9375
13:25:22.165,6.8125,-1
13:25:22.176,6.3125,-0.375
13:25:22.185,6.3438,-2
13:25:22.195,4.9063,-2.8125
13:25:22.206,4.5938,-3.75
13:25:22.216,3.1875,-3.5625
13:25:22.254,2.0625,-4.625
13:25:22.256,1.3125,-6.3125
13:25:22.258,0.5,-7.1875
13:25:22.260,-0.4375,-7.5625
13:25:22.267,0.5938,-7.75
13:25:22.307,-0.3125,-8.75
13:25:22.308,-0.25,-8.9375
13:25:22.310,-0.0625,-7.1875
13:25:22.338,1.125,-7.1875
13:25:22.338,1.9063,-6.875
13:25:22.338,3.3125,-4.625
13:25:22.341,6.4063,-0.6875
13:25:22.346,9.2188,3.3125
13:25:22.355,12.375,8.5
13:25:22.383,15.6563,13.4376
13:25:22.388,18.5313,17.1876
13:25:22.388,19.8751,20.0001
13:25:22.395,20.6876,23.1876
13:25:22.406,21.9376,23.6876
13:25:22.415,21.2188,23.7501
13:25:22.425,21.2188,24.8126
13:25:22.438,20.4063,23.1876
13:25:22.445,18.9376,23.1876
13:25:22.455,18.0313,21.4376
13:25:22.466,17.0313,19.5001
13:25:22.475,15.7813,18.4376
13:25:22.485,14.4063,19.0626
13:25:22.496,13.8126,17.2501
13:25:22.505,13.3126,15.9376
13:25:22.515,12.7188,16.3126
13:25:22.525,12.5625,17.1251
13:25:22.558,12.9688,17.1876
13:25:22.561,12.5625,16.6251
13:25:22.563,12.0625,16.3751
13:25:22.567,12.0625,17.0001
13:25:22.576,11.9688,16.2501
13:25:22.585,12.875,15.5001
13:25:22.596,11.5,14.7501
13:25:22.605,10.625,14.8751
13:25:22.616,10.5313,14.0626
13:25:22.626,9.9375,13.2501
13:25:22.635,9.3125,13
13:25:22.645,8.4688,13.2501
13:25:22.655,8.8438,12.8125
13:25:22.666,9.125,12.5
13:25:22.675,8.6875,12.375
13:25:22.686,9.0313,12.4375
13:25:22.696,8.8125,14.1251
13:25:22.705,8.9063,13.3126
13:25:22.715,8.9375,12.4375
13:25:22.725,8.5625,11.9375
13:25:22.737,7.7813,11.375
13:25:22.746,7.3125,11.5625
13:25:22.755,7.125,10.75
13:25:22.766,7.2188,10.1875
13:25:22.776,7,11.0625
13:25:22.786,7.8438,10.25
13:25:22.795,7,9.6875
13:25:22.818,6.125,9.5625
13:25:22.821,6.4688,8.8125
13:25:22.834,5.0938,6.8125
13:25:22.836,4.4063,6.4375
13:25:22.845,3.9688,5.875
13:25:22.856,3.5625,5.4375
13:25:22.865,3.5625,4.4375
13:25:22.875,3.0625,5.125
13:25:22.891,4,4.375
13:25:22.897,2.9375,3.8125
13:25:22.905,3.0625,5.0625
13:25:22.915,3.5625,4.0625
13:25:22.926,2.4063,3
13:25:22.937,1.5938,2.0625
13:25:22.945,1.125,2.125
13:25:22.955,0.9375,1.1875
13:25:22.983,0.5625,0.375
13:25:22.986,-0.3125,-0.4375
13:25:22.988,-1.8125,-1.6875
13:25:23.026,-1.875,-1.5625
13:25:23.028,-2,-1.5625
13:25:23.029,-1.7188,-1.625
13:25:23.032,-1.3438,-2.4375
13:25:23.038,-2.125,-2.25
13:25:23.073,-2.25,-2.875
13:25:23.076,-2.0625,-4
13:25:23.078,-3.0313,-3.8125
13:25:23.107,-4.1875,-4.75
13:25:23.108,-3.625,-5.9375
13:25:23.110,-5.125,-7.1875
13:25:23.117,-5.2813,-6.75
13:25:23.118,-4.8438,-7.0625
13:25:23.130,-4.9688,-7.5
13:25:23.144,-4.9688,-8.25
13:25:23.150,-5.5,-9
13:25:23.165,-5.1875,-8.875
13:25:23.168,-5.6875,-10.125
13:25:23.175,-6.7188,-10.25
13:25:23.186,-7.25,-10.875
13:25:23.196,-8.9063,-12.3125
13:25:23.205,-11.0938,-12.8125
13:25:23.215,-11.9688,-14.9376
13:25:23.225,-13.3751,-16.0001
13:25:23.235,-14.5313,-16.0001
13:25:23.245,-15.5313,-18.2501
13:25:23.258,-15.5001,-17.4376
13:25:23.266,-14.4376,-16.6876
13:25:23.275,-12.1563,-15.3751
13:25:23.288,-8.8438,-9.5625
13:25:23.296,-5.2813,-5.5625
13:25:23.306,-1.2188,-1.5
13:25:23.316,1.8125,3.4375
13:25:23.325,4.5,8.1875
13:25:23.335,4.5938,10.8125
13:25:23.346,5.75,12.375
13:25:23.355,5.7188,13.125
13:25:23.365,5.5938,13.1876
13:25:23.375,4.3125,12.125
13:25:23.386,4.25,11.625
13:25:23.395,3.625,11.5625
13:25:23.405,4.2188,10.875
13:25:23.417,3.5938,10.25
13:25:23.425,3.9063,9.875
13:25:23.435,3.4375,10.4375
13:25:23.445,3.1563,9.125
13:25:23.457,2.0938,8.1875
13:25:23.466,2.1875,7.5
13:25:23.475,0.8125,7.5625
13:25:23.485,0.1563,7.5
13:25:23.495,-0.2813,6.3125
13:25:23.505,-0.75,4.9375
13:25:23.515,-0.8438,5.6875
13:25:23.527,-0.0938,4.875
13:25:23.535,-1.25,4.375
13:25:23.545,-1.375,5.3125
13:25:23.556,-0.2188,4.8125
13:25:23.565,0.0313,4.5
13:25:23.575,1.3438,6.4375
13:25:23.585,2.0313,6.125
13:25:23.598,1.625,7.0625
13:25:23.605,1.5625,6.8125
13:25:23.615,2.25,6.5
13:25:23.626,2.0938,6.5625
13:25:23.641,1.5,6.125
13:25:23.645,1.25,6.625
13:25:23.655,2.1875,6.8125
13:25:23.667,2.2813,5.4375
13:25:23.676,2.875,7.125
13:25:23.685,3.75,6.0625
13:25:23.697,4.375,7.3125
13:25:23.706,4.0313,6.3125
13:25:23.715,3.1563,6
13:25:23.725,3.125,4.6875
13:25:23.735,1.6563,4.1875
13:25:23.745,1.3125,4.625
13:25:23.755,1.7813,3.0625
13:25:23.782,1.5938,2.625
13:25:23.784,1.7188,3.3125
13:25:23.786,2.0938,3.4375
13:25:23.816,2.8438,3.3125
13:25:23.818,4.4063,3.3125
13:25:23.821,4.125,3.125
13:25:23.846,3.875,3.125
13:25:23.849,4.2188,3.25
13:25:23.875,4.5313,2.625
13:25:23.876,3.1563,1.5625
13:25:23.879,2.6875,2.25
13:25:23.909,2.5625,1.0625
13:25:23.910,2.4688,0.4375
13:25:23.912,1.75,0.125
13:25:23.916,2.625,0.1875
13:25:23.921,2.4375,-0.125
13:25:23.934,2.4375,1.0625
13:25:23.936,2.4688,-0.125
13:25:23.948,2.2188,-1.5
13:25:23.957,1.9063,-0.9375
13:25:23.965,1.5313,-0.8125
13:25:23.977,2.1875,-1.6875
13:25:23.985,1.9063,-2.6875
13:25:23.995,2.1563,-1.625
13:25:24.007,2.2188,-2.125
13:25:24.022,2.5938,-2.1875
13:25:24.027,2.5938,-2.875
13:25:24.037,3,-3.1875
13:25:24.046,3.3125,-1.0625
13:25:24.055,5.2188,-0.25
13:25:24.067,7.9375,1.9375
13:25:24.076,10.2813,5.8125
13:25:24.085,13.3751,9.9375
13:25:24.095,15.6876,15.6876
13:25:24.114,18.6251,18.9376
13:25:24.119,19.6876,22.2501
13:25:24.134,20.8751,24.8751
13:25:24.136,22.5313,25.8126
13:25:24.145,21.9063,26.1251
13:25:24.157,21.7501,26.5626
13:25:24.165,21.5001,26.2501
13:25:24.176,21.4376,26.6251
13:25:24.186,21.0626,25.2501
13:25:24.195,20.3438,25.7501
13:25:24.205,20.0313,24.3751
13:25:24.215,19.3438,24.1251
13:25:24.227,19.0938,24.5001
13:25:24.235,20.0626,24.3126
13:25:24.247,19.6563,24.0001
13:25:24.255,19.8751,24.5626
13:25:24.265,20.9688,25.5626
13:25:24.275,20.8126,25.6876
13:25:24.285,20.0626,24.8751
13:25:24.295,19.1563,24.8751
13:25:24.305,17.5938,23.5626
13:25:24.315,16.8751,21.7501
13:25:24.325,15.1876,20.2501
13:25:24.335,14.7813,20.6251
13:25:24.348,14.9063,19.6251
13:25:24.355,14.9063,20.6876
13:25:24.365,16.1251,21.4376
13:25:24.375,16.6563,22.1876
13:25:24.385,16.3751,22.0001
13:25:24.396,16.9063,22.6251
13:25:24.409,17.2188,22.6876
13:25:24.415,16.0626,22.6251
13:25:24.445,15.7813,22.9376
13:25:24.448,15.3126,21.8751
13:25:24.489,14.8438,20.8126
13:25:24.492,13.9376,20.8126
13:25:24.516,13.5626,20.3751
13:25:24.516,13.7188,18.9376
13:25:24.516,13.1251,18.3751
13:25:24.519,13.0313,19.0626
13:25:24.519,13.6876,18.1251
13:25:24.546,13.2501,17.3126
13:25:24.548,12.5313,16.7501
13:25:24.550,11.9688,17.2501
13:25:24.555,12.0625,15.3751
13:25:24.587,11.5313,14.6876
13:25:24.589,10.6563,14.6876
13:25:24.592,10.9688,14.1251
13:25:24.594,10.1875,12.75
13:25:24.601,9.8438,13.7501
13:25:24.612,9.5313,13.6251
13:25:24.620,9.2813,12.375
13:25:24.632,9.4375,12
13:25:24.641,8.8125,12.5
13:25:24.650,9,11.125
13:25:24.663,10.25,11.875
13:25:24.670,10.5,11.0625
13:25:24.681,9.375,9.8125
13:25:24.692,8.7813,10.25
13:25:24.701,9.0625,10.8125
13:25:24.710,8.9688,9.125
13:25:24.722,8.3438,9.125
13:25:24.730,7.875,9.125
13:25:24.740,8.1875,7.75
13:25:24.752,7.9063,7.25
13:25:24.760,7.5938,6.8125
13:25:24.775,8.0625,6.75
13:25:24.782,8.0625,6
13:25:24.790,7.5625,6.9375
13:25:24.801,7.2813,5.75
13:25:24.812,6.25,4.0625
13:25:24.820,6.0625,4.625
13:25:24.830,7.0313,3.9375
13:25:24.842,5.625,2.875
13:25:24.851,5.0938,3.375
13:25:24.860,5.8125,2.25
13:25:24.871,5.7188,1.625
13:25:24.880,5.5,2.4375
13:25:24.890,7.1563,2.4375
13:25:24.903,8.2813,3.3125
13:25:24.910,10.0625,7.375
13:25:24.921,13.5626,11.9375
13:25:24.934,17.6251,16.5626
13:25:24.941,19.8751,21.4376
13:25:24.951,21.9063,27.0626
13:25:24.962,24.4376,29.5626
13:25:24.970,25.6876,32.1251
13:25:24.980,26.1251,35.0001
13:25:24.991,27.3751,35.9376
13:25:25.001,27.0626,36.3751
13:25:25.010,25.7501,37.2501
13:25:25.021,25.1876,35.4376
13:25:25.031,24.9063,34.9376
13:25:25.041,24.1251,35.1876
13:25:25.050,24.1563,34.5001
13:25:25.060,23.7501,34.1251
13:25:25.072,22.8751,33.6251
13:25:25.081,23.7813,35.0001
13:25:25.091,24.4376,35.2501
13:25:25.118,24.3751,35.6251
13:25:25.121,24.5313,37.6251
13:25:25.123,24.3126,37.4376
13:25:25.131,24.0938,37.6876
13:25:25.140,23.9063,37.9376
13:25:25.163,23.3438,37.2501
13:25:25.168,22.6876,35.8751
13:25:25.176,20.9376,35.8751
13:25:25.182,20.3438,34.0001
13:25:25.213,20.1563,33.0626
13:25:25.215,19.8126,32.4376
13:25:25.218,18.9376,33.8751
13:25:25.251,18.7188,32.8126
13:25:25.254,19.0001,32.4376
13:25:25.254,18.1876,32.2501
13:25:25.260,18.3126,33.5001
13:25:25.262,18.7501,32.5001
13:25:25.292,18.4376,31.8751
13:25:25.295,17.7813,31.3751
13:25:25.298,17.3751,32.4376
13:25:25.300,17.1563,30.7501
13:25:25.328,16.5626,29.7501
13:25:25.330,16.0001,29.5626
13:25:25.333,15.9376,28.6251
13:25:25.343,15.0001,28.3126
13:25:25.352,14.3126,26.8751
13:25:25.360,13.3751,26.5001
13:25:25.370,12.7188,26.3126
13:25:25.380,12.7813,25.0626
13:25:25.391,11.5938,23.6251
13:25:25.401,11.2813,23.7501
13:25:25.422,10.625,23.1251
13:25:25.424,10.2813,21.6251
13:25:25.439,9.25,20.6251
13:25:25.441,8.875,20.8751
13:25:25.450,9.125,19.3751
13:25:25.461,8.8125,19.3126
13:25:25.471,8.0313,18.8126
13:25:25.480,7.7813,18.5001
13:25:25.495,7.8125,17.5001
13:25:25.508,6.625,16.3751
13:25:25.515,6.0625,16.6876
13:25:25.526,6.0313,14.7501
13:25:25.535,5.3438,14.3751
13:25:25.546,5.2813,13.6251
13:25:25.555,5.1563,14.6251
13:25:25.568,4.4063,13.125
13:25:25.576,4.2188,12.0625
13:25:25.585,3.3438,11
13:25:25.600,2.8438,11.5
13:25:25.605,2.8438,10.8125
13:25:25.616,2.4375,9.1875
13:25:25.626,1.0938,8.125
13:25:25.635,0.5938,8.4375
13:25:25.646,0.75,7.25
13:25:25.656,1.625,6.8125
13:25:25.665,1.0938,6.125
13:25:25.677,0.4375,5.875
13:25:25.686,-0.1875,5.0625
13:25:25.696,-0.5625,4.5
13:25:25.708,-1.4688,2.75
13:25:25.715,-2.1875,1.625
13:25:25.725,-1.8438,2.1875
13:25:25.742,-1.75,1
13:25:25.758,-2.1563,0.625
13:25:25.760,-2.6875,-0.75
13:25:25.768,-3.125,0
13:25:25.775,-3.1563,-0.5
13:25:25.785,-3.1563,-1.25
13:25:25.795,-3.2188,-1.6875
13:25:25.805,-4.0625,-2.875
13:25:25.816,-4.9063,-2.1875
13:25:25.826,-4.125,-3.5
13:25:25.835,-4.75,-4.9375
13:25:25.847,-5.7188,-5.5
13:25:25.855,-5.6563,-6.6875
13:25:25.866,-6.4688,-7.4375
13:25:25.878,-6.9688,-6.5625
13:25:25.888,-6.4063,-7.625
13:25:25.901,-6.0625,-8.75
13:25:25.905,-6.0625,-7.875
13:25:25.915,-5.375,-7.5625
13:25:25.938,-3.8438,-7
13:25:25.944,-1.8438,-4.6875
13:25:25.965,1.1875,0.3125
13:25:25.967,4.3438,4.1875
13:25:25.969,7.6563,9.9375
13:25:26.004,11.1875,15.1251
13:25:26.004,14.1563,19.6251
13:25:26.007,15.9063,24.0626
13:25:26.011,17.6876,25.6251
13:25:26.016,18.0001,27.3751
13:25:26.046,18.4063,27.8126
13:25:26.048,17.7813,28.1876
13:25:26.051,16.7188,26.5626
13:25:26.081,15.5313,25.8126
13:25:26.085,14.7813,24.2501
13:25:26.086,13.3751,24.1251
13:25:26.090,13.4063,22.6876
13:25:26.104,13.0938,23.6251
13:25:26.106,13.1876,22.8751
13:25:26.117,14.0313,23.4376
13:25:26.126,14.0001,23.8126
13:25:26.135,13.9063,24.0001
13:25:26.146,13.7813,25.3126
13:25:26.156,14.0938,25.9376
13:25:26.166,14.2501,25.5001
13:25:26.175,13.4376,23.6876
13:25:26.185,12.5625,23.3751
13:25:26.195,12.3125,22.0626
13:25:26.205,11.2813,21.4376
13:25:26.215,9.8125,19.5001
13:25:26.226,9.0625,19.8751
13:25:26.235,8.9375,19.6251
13:25:26.245,9,18.3751
13:25:26.259,8.4688,18.1876
13:25:26.266,8.1563,17.5001
13:25:26.280,8.25,18.7501
13:25:26.286,9.3438,18.1251
13:25:26.295,9.0313,18.2501
13:25:26.306,9,18.3126
13:25:26.315,8.7813,19.5001
13:25:26.325,8.9063,17.6876
13:25:26.337,8,16.5626
13:25:26.345,7.375,16.1251
13:25:26.355,6.5,17.0001
13:25:26.365,7.1563,15.1876
13:25:26.398,6.375,16.1251
13:25:26.401,6.2813,14.1876
13:25:26.403,5.8438,13.9376
13:25:26.405,5.8125,12.875
13:25:26.415,5.0625,13.6251
13:25:26.425,4.7813,12.5
13:25:26.436,4.5,10.9375
13:25:26.445,4.3438,10.9375
13:25:26.456,4.25,10.625
13:25:26.465,4.375,9.5625
13:25:26.476,3.8125,8.875
13:25:26.485,3.4063,8.375
13:25:26.496,2.8125,9.375
13:25:26.505,3.1563,7.5
13:25:26.518,2.4375,6.8125
13:25:26.525,1.9063,7
13:25:26.536,2.4375,7.1875
13:25:26.545,2.8125,6.875
13:25:26.555,2.5625,5.5625
13:25:26.566,1.9063,4.3125
13:25:26.575,1.875,5
13:25:26.585,1.6563,5.3125
13:25:26.597,2.0313,3.625
13:25:26.605,0.3438,2.3125
13:25:26.627,0.1563,1.5625
13:25:26.630,0,2.375
13:25:26.644,-1.2813,1.1875
13:25:26.647,-1.1563,-0.375
13:25:26.672,-2.0938,-1.375
13:25:26.677,-3.0625,-2.0625
13:25:26.680,-3.375,-2.125
13:25:26.685,-3,-3.0625
13:25:26.696,-3.8438,-4.75
13:25:26.726,-4.125,-3.625
13:25:26.754,-3.9063,-4.875
13:25:26.757,-4,-6.3125
13:25:26.759,-4.75,-6.25
13:25:26.763,-5.2813,-6.625
13:25:26.765,-5.875,-7.4375
13:25:26.765,-5.8125,-9.3125
13:25:26.789,-7.0313,-10.375
13:25:26.791,-7.8125,-10.25
13:25:26.803,-7.9688,-11.125
13:25:26.805,-8.375,-12.4375
13:25:26.815,-8.9375,-12.625
13:25:26.826,-9,-14.0001
13:25:26.836,-10.4063,-13.3751
13:25:26.846,-10.0625,-15.6876
13:25:26.855,-11.5313,-14.8751
13:25:26.865,-11,-17.3751
13:25:26.876,-12.8125,-18.6251
13:25:26.886,-13.9376,-19.3751
13:25:26.896,-14.7188,-19.8126
13:25:26.905,-17.9688,-22.4376
13:25:26.915,-20.9063,-24.5001
13:25:26.928,-23.3751,-25.6251
13:25:26.935,-27.5314,-28.1876
13:25:26.945,-32.9376,-31.3751
13:25:26.955,-34.4064,-31.3751
13:25:26.965,-41.8752,-36.6876
13:25:26.977,-45.3439,-37.3126
13:25:26.986,-47.9377,-35.5001
13:25:26.995,-54.0002,-39.3127
13:25:27.009,-59.6877,-40.1252
13:25:27.015,-66.969,-44.6252
13:25:27.038,-80.3441,-52.6252
13:25:27.042,-100.7816,-67.5003
13:25:27.057,-120.3755,-83.5003
13:25:27.058,-139.8755,-99.8129
13:25:27.075,-163.2194,-120.3755
13:25:27.075,-191.9382,-142.188
13:25:27.086,-212.6258,-160.9381
13:25:27.095,-226.3134,-171.4381
13:25:27.105,-232.1571,-177.0632
13:25:27.115,-244.4697,-185.0632
13:25:27.126,-258.4697,-193.5007
13:25:27.136,-264.7198,-198.0008
13:25:27.145,-271.6573,-202.7508
13:25:27.158,-275.501,-206.6258
13:25:27.165,-276.626,-208.9383
13:25:27.178,-277.2823,-211.4383
13:25:27.186,-276.6886,-212.3133
13:25:27.195,-282.1261,-215.7508
13:25:27.206,-286.3136,-220.7508
13:25:27.215,-283.6886,-220.5008
13:25:27.225,-279.1261,-218.7508
13:25:27.238,-276.8448,-217.1258
13:25:27.246,-277.4386,-216.7508
13:25:27.255,-278.9073,-218.7508
13:25:27.266,-281.1886,-220.8758
13:25:27.275,-283.4386,-221.8134
13:25:27.288,-284.4386,-224.1259
13:25:27.295,-284.5636,-224.2509
13:25:27.305,-285.3448,-223.8759
13:25:27.316,-284.6573,-225.7509
13:25:27.326,-284.8761,-225.2509
13:25:27.338,-284.5011,-225.5009
13:25:27.345,-282.2511,-224.5634
13:25:27.355,-281.3448,-222.8759
13:25:27.365,-279.2198,-222.7509
13:25:27.375,-278.0948,-221.9384
13:25:27.387,-279.0948,-221.0633
13:25:27.395,-277.6886,-221.3759
13:25:27.405,-277.7198,-220.8133
13:25:27.425,-277.5636,-221.1883
13:25:27.428,-275.1885,-218.3133
13:25:27.467,-274.4698,-218.3758
13:25:27.469,-272.251,-218.3758
13:25:27.473,-269.3135,-216.3133
13:25:27.474,-263.0948,-212.8133
13:25:27.476,-256.1885,-208.5008
13:25:27.486,-250.0322,-202.3133
13:25:27.513,-242.5634,-198.6258
13:25:27.515,-237.8759,-192.9382
13:25:27.518,-232.8446,-191.5632
13:25:27.525,-225.4696,-185.9382
13:25:27.569,-215.0321,-181.1257
13:25:27.572,-208.3758,-178.1257
13:25:27.573,-207.7195,-178.8132
13:25:27.576,-211.0633,-182.1882
13:25:27.582,-219.6571,-187.6882
13:25:27.596,-228.1884,-193.5007
13:25:27.600,-238.4697,-200.5633
13:25:27.608,-245.2197,-204.8133
13:25:27.616,-253.2197,-210.6258
13:25:27.626,-263.501,-219.3758
13:25:27.635,-274.5948,-230.8759
13:25:27.646,-290.6261,-246.3759
13:25:27.682,-307.5949,-263.126
13:25:27.685,-320.1887,-277.1885
13:25:27.686,-331.2513,-287.1261
13:25:27.688,-339.2825,-296.2511
13:25:27.696,-347.7201,-304.7512
13:25:27.705,-354.5326,-311.5012
13:25:27.716,-358.4076,-316.8137
13:25:27.754,-362.7201,-320.6262
13:25:27.755,-362.3764,-320.9387
13:25:27.758,-357.7514,-319.8137
13:25:27.763,-349.7826,-312.7512
13:25:27.771,-337.1575,-302.6887
13:25:27.780,-325.2825,-290.5636
13:25:27.791,-313.7512,-277.6885
13:25:27.800,-302.1262,-265.376
13:25:27.813,-284.7823,-249.0009
13:25:27.820,-255.751,-223.8134
13:25:27.830,-219.6258,-192.6257
13:25:27.841,-185.3445,-165.6881
13:25:27.850,-160.2819,-142.188
13:25:27.862,-137.938,-122.563
13:25:27.870,-114.6254,-102.8129
13:25:27.881,-95.2191,-84.4378
13:25:27.891,-80.6566,-67.1253
13:25:27.901,-76.6565,-62.0627
13:25:27.912,-77.469,-58.6252
13:25:27.921,-81.1878,-62.3752
13:25:27.930,-89.6878,-66.6253
13:25:27.941,-99.3441,-76.0003
13:25:27.950,-104.7504,-81.4378
13:25:27.963,-106.4379,-84.9378
13:25:27.971,-103.0004,-82.8128
13:25:27.980,-100.7191,-83.5628
13:25:27.991,-97.0004,-80.6878
13:25:28.000,-95.1879,-80.6878
