timestamp,Red,IR
12:57:37.465,1.8125,7.4375
12:57:37.472,2.0625,6
12:57:37.482,1.25,5.8125
12:57:37.493,0.9375,4.5625
12:57:37.503,0.1875,2.875
12:57:37.514,0.4375,3.125
12:57:37.523,0.375,1.6875
12:57:37.533,-0.875,0.375
12:57:37.543,-1.375,0.125
12:57:37.553,-1.9375,-0.375
12:57:37.563,-2,-2.3125
12:57:37.573,-2.3125,-3.6875
12:57:37.583,-3.5625,-5
12:57:37.593,-4.3125,-5.375
12:57:37.603,-4.25,-6.75
12:57:37.613,-4.75,-7.875
12:57:37.623,-5.6875,-9.125
12:57:37.633,-5.75,-8.9375
12:57:37.656,-5.875,-10.3125
12:57:37.658,-6.875,-11.875
12:57:37.663,-7.875,-11.75
12:57:37.674,-8,-13.125
12:57:37.705,-8.4375,-14.7501
12:57:37.708,-9,-15.1251
12:57:37.710,-8.5625,-15.9376
12:57:37.747,-9.4375,-17.3751
12:57:37.749,-9,-18.0626
12:57:37.750,-10,-19.0001
12:57:37.754,-10,-20.1876
12:57:37.758,-10.1875,-20.1251
12:57:37.764,-11.25,-21.4376
12:57:37.800,-11.3125,-22.1251
12:57:37.802,-11.8125,-23.0001
12:57:37.803,-12.5,-23.8126
12:57:37.803,-13.125,-24.6251
12:57:37.820,-12.6875,-25.0001
12:57:37.824,-13.8126,-26.2501
12:57:37.833,-13.7501,-25.6876
12:57:37.843,-14.0626,-27.2501
12:57:37.853,-14.2501,-26.6876
12:57:37.863,-14.6876,-28.3126
12:57:37.873,-15.0626,-28.8126
12:57:37.883,-15.0001,-29.5626
12:57:37.922,-15.7501,-30.1876
12:57:37.925,-15.5001,-30.6876
12:57:37.939,-16.1251,-32.3126
12:57:37.941,-16.3751,-32.5626
12:57:37.957,-16.8126,-32.6251
12:57:37.958,-16.5626,-32.0626
12:57:37.972,-15.3126,-32.3126
12:57:37.975,-15.1876,-30.4376
12:57:37.978,-13.6251,-28.3751
12:57:37.983,-11.875,-24.6251
12:57:37.994,-10,-21.4376
12:57:38.003,-7.625,-16.2501
12:57:38.013,-5.0625,-12.6875
12:57:38.023,-3.5625,-7.25
12:57:38.033,-1.3125,-4.0625
12:57:38.048,-0.0625,-0.625
12:57:38.054,1.75,3.375
12:57:38.063,2.375,5.1875
12:57:38.073,3.6875,7.875
12:57:38.083,5.3125,10.25
12:57:38.093,5.8125,10.875
12:57:38.103,5.75,12.25
12:57:38.113,6.5,14.3751
12:57:38.123,7.625,15.4376
12:57:38.134,7.125,15.6876
12:57:38.144,7.125,17.9376
12:57:38.153,7.8125,17.7501
12:57:38.163,8.4375,18.0001
12:57:38.173,8.5,19.1876
12:57:38.182,8.9375,19.6876
12:57:38.193,9,20.1876
12:57:38.203,8.75,19.6876
12:57:38.215,8.5625,19.6251
12:57:38.223,8.9375,19.0001
12:57:38.234,8.3125,18.1876
12:57:38.243,7.9375,17.8751
12:57:38.253,8.1875,16.8751
12:57:38.268,6.75,15.6251
12:57:38.278,6.3125,15.7501
12:57:38.288,6.3125,14.1251
12:57:38.298,5.4375,13.0625
12:57:38.308,4.875,13.0625
12:57:38.318,5.4375,11.75
12:57:38.329,5.0625,10.6875
12:57:38.338,4.5,11.75
12:57:38.348,5.8125,10.875
12:57:38.357,5.4375,10.3125
12:57:38.382,4.3125,10.25
12:57:38.386,4.1875,9.3125
12:57:38.390,4.1875,7.9375
12:57:38.425,2.9375,7.375
12:57:38.427,3.875,6.375
12:57:38.429,2.875,5.1875
12:57:38.432,2.125,4.375
12:57:38.476,1.0625,3.3125
12:57:38.477,0.9375,2.1875
12:57:38.480,1,1.125
12:57:38.489,-0.1875,-0.25
12:57:38.489,-0.625,-0.625
12:57:38.496,-1.625,-1.25
12:57:38.500,-1.1875,-2.9375
12:57:38.529,-2.25,-4.0625
12:57:38.534,-2.25,-4.875
12:57:38.536,-3,-6.0625
12:57:38.539,-3.8125,-7.125
12:57:38.548,-4.8125,-9
12:57:38.559,-4.3125,-8.25
12:57:38.568,-4.3125,-10.125
12:57:38.578,-5.4375,-11.4375
12:57:38.588,-5.9375,-12.5625
12:57:38.598,-6.375,-12.25
12:57:38.608,-6.5,-13.9376
12:57:38.618,-7.0625,-15.0001
12:57:38.628,-7.8125,-15.1876
12:57:38.638,-8.0625,-16.2501
12:57:38.648,-8.0625,-17.1876
12:57:38.658,-8.25,-17.5001
12:57:38.668,-8.3125,-18.6251
12:57:38.679,-9.875,-19.0626
12:57:38.688,-10,-19.6876
12:57:38.698,-10.3125,-21.3751
12:57:38.708,-10.375,-21.6251
12:57:38.718,-10.3125,-22.6251
12:57:38.728,-11.125,-23.3126
12:57:38.738,-11.125,-23.3126
12:57:38.748,-11.3125,-24.6876
12:57:38.758,-11.6875,-25.4376
12:57:38.768,-12.4375,-25.8126
12:57:38.778,-12.5,-26.8126
12:57:38.788,-12.6875,-27.3126
12:57:38.798,-13.1876,-28.1876
12:57:38.808,-13.5626,-28.8126
12:57:38.818,-14.1251,-29.5626
12:57:38.828,-14.1251,-29.9376
12:57:38.838,-14.0001,-30.4376
12:57:38.848,-15.0001,-31.5001
12:57:38.859,-15.2501,-31.5626
12:57:38.868,-15.0001,-32.2501
12:57:38.878,-15.2501,-31.5626
12:57:38.889,-14.6251,-32.5001
12:57:38.898,-15.0626,-31.1251
12:57:38.908,-13.3126,-30.3126
12:57:38.918,-12.5625,-27.7501
12:57:38.928,-10.0625,-25.3126
12:57:38.938,-8.625,-20.5626
12:57:38.948,-6.25,-16.3751
12:57:38.958,-4.6875,-12
12:57:38.968,-1.5,-8
12:57:38.978,0.4375,-3.4375
12:57:38.989,1.4375,-0.6875
12:57:38.998,2.3125,2.5
12:57:39.010,3.875,5.125
12:57:39.018,4.5,7.375
12:57:39.028,5.75,8.9375
12:57:39.038,6.4375,10.3125
12:57:39.048,6.0625,11.5
12:57:39.058,6.375,12.125
12:57:39.068,6.625,13.6251
12:57:39.107,7,14.6876
12:57:39.108,7.375,15.1251
12:57:39.111,7.875,16.0001
12:57:39.113,8.0625,16.6876
12:57:39.119,8.0625,17.1251
12:57:39.147,7.625,17.1876
12:57:39.150,7.875,18.2501
12:57:39.152,8.4375,17.2501
12:57:39.159,7.625,16.7501
12:57:39.192,7,16.3751
12:57:39.194,6.5,17.3751
12:57:39.198,7.1875,15.3126
12:57:39.200,6.3125,14.1876
12:57:39.226,5.625,14.1876
12:57:39.259,5.5,14.2501
12:57:39.276,6.3125,12.8125
12:57:39.277,5.1875,12.375
12:57:39.278,4.1875,10.9375
12:57:39.278,4.75,11.1875
12:57:39.278,3.875,10.875
12:57:39.287,3.9375,10.6875
12:57:39.293,3.875,10.0625
12:57:39.303,3.0625,8.875
12:57:39.313,2.5,9.75
12:57:39.328,2.625,8.25
12:57:39.338,2.6875,7.375
12:57:39.348,2.0625,6.75
12:57:39.358,1.5,5.5625
12:57:39.368,0.5,5.8125
12:57:39.378,0.5625,4.1875
12:57:39.388,-0.0625,3.625
12:57:39.399,-0.3125,2.625
12:57:39.408,-0.1875,1.75
12:57:39.418,-1.1875,1.1875
12:57:39.429,-1.8125,0.3125
12:57:39.438,-1.8125,-1.1875
12:57:39.448,-2.75,-1.9375
12:57:39.459,-3.375,-3.875
12:57:39.468,-4,-4.625
12:57:39.478,-4.5625,-4.4375
12:57:39.488,-4.75,-6.875
12:57:39.498,-5.3125,-8.8125
12:57:39.508,-5.5,-8.0625
12:57:39.518,-6.4375,-9.8125
12:57:39.528,-6.3125,-10.875
12:57:39.538,-7.6875,-10.1875
12:57:39.549,-7.0625,-12.0625
12:57:39.558,-7.8125,-13.5001
12:57:39.568,-8.125,-13.1876
12:57:39.578,-8.1875,-14.6876
12:57:39.589,-8.625,-14.8126
12:57:39.598,-9.0625,-16.3751
12:57:39.608,-9.125,-16.8126
12:57:39.618,-9.1875,-17.3126
12:57:39.629,-9.875,-18.5001
12:57:39.638,-9.75,-18.8126
12:57:39.653,-10,-19.5626
12:57:39.659,-10.25,-20.6251
12:57:39.668,-11.25,-20.7501
12:57:39.678,-11.125,-21.6251
12:57:39.689,-11.75,-21.6876
12:57:39.698,-11.875,-22.8126
12:57:39.708,-12.75,-23.8126
12:57:39.718,-12.75,-24.2501
12:57:39.728,-13.125,-25.0001
12:57:39.738,-13.3126,-25.8126
12:57:39.748,-13.6876,-26.1251
12:57:39.759,-13.6251,-26.6876
12:57:39.769,-13.8126,-26.3751
12:57:39.778,-12.8125,-26.1876
12:57:39.788,-12.125,-24.3751
12:57:39.798,-11.1875,-22.5001
12:57:39.808,-9.4375,-19.1876
12:57:39.819,-6.8125,-15.6876
12:57:39.828,-5.375,-11.875
12:57:39.838,-3.8125,-8.3125
12:57:39.848,-2.125,-4.875
12:57:39.858,0.25,-1.5625
12:57:39.900,0.8125,1.8125
12:57:39.901,2.5,4.25
12:57:39.905,2.875,6.375
12:57:39.906,3.5625,7.5625
12:57:39.911,4.1875,8.375
12:57:39.949,3.875,9.625
12:57:39.951,4.5,9.4375
12:57:39.952,3.875,10.5625
12:57:39.959,4.625,9.8125
12:57:39.961,4.25,11.625
12:57:39.972,4.625,10.6875
12:57:39.978,4.375,10.375
12:57:40.015,4.75,11.75
12:57:40.017,4.3125,10.375
12:57:40.019,4.0625,10.625
12:57:40.025,3.6875,9.375
12:57:40.049,3.3125,9.6875
12:57:40.052,3.125,8.625
12:57:40.055,2.375,7.75
12:57:40.061,2.0625,7.125
12:57:40.068,1.5625,6.75
12:57:40.078,1.0625,6.125
12:57:40.088,1,5.375
12:57:40.098,0.5625,4.0625
12:57:40.108,0.5,4.0625
12:57:40.119,0.5625,5.25
12:57:40.128,0.5,3.625
12:57:40.138,0.8125,3.5
12:57:40.148,0.5625,4.125
12:57:40.158,0.375,2.9375
12:57:40.168,0,2.25
12:57:40.178,-0.4375,2.375
12:57:40.188,-0.5,1.3125
12:57:40.198,-0.5,0.6875
12:57:40.208,-1.375,-0.5
12:57:40.218,-2.375,-0.375
12:57:40.228,-2.5,-1.625
12:57:40.238,-2.6875,-3.3125
12:57:40.248,-3.6875,-3.1875
12:57:40.258,-2.8125,-4.125
12:57:40.268,-3.75,-5.6875
12:57:40.278,-4.0625,-6.375
12:57:40.288,-5.0625,-6.625
12:57:40.298,-4.25,-7.75
12:57:40.308,-4.6875,-8.375
12:57:40.318,-6,-8.4375
12:57:40.328,-5.8125,-9.5625
12:57:40.338,-5.9375,-11.125
12:57:40.348,-7.125,-10.9375
12:57:40.358,-7.0625,-12.25
12:57:40.368,-7.75,-13.8751
12:57:40.378,-7.75,-14.5001
12:57:40.389,-8.25,-15.6876
12:57:40.398,-8.9375,-15.2501
12:57:40.408,-8.6875,-17.0626
12:57:40.418,-9.5,-16.5001
12:57:40.428,-9.4375,-18.1876
12:57:40.438,-10.25,-18.4376
12:57:40.448,-10.4375,-19.1251
12:57:40.477,-10.5,-20.2501
12:57:40.477,-11.125,-21.1876
12:57:40.482,-11,-20.9376
12:57:40.488,-11.3125,-21.6251
12:57:40.498,-11.375,-22.3126
12:57:40.518,-11.8125,-23.7501
12:57:40.525,-12.5,-23.5001
12:57:40.531,-12.1875,-25.2501
12:57:40.538,-13.1251,-25.0001
12:57:40.564,-13.3126,-27.0626
12:57:40.567,-13.9376,-26.7501
12:57:40.599,-14.1251,-28.1876
12:57:40.629,-13.8126,-28.1876
12:57:40.629,-13.6251,-28.5626
12:57:40.629,-14.0001,-27.6876
12:57:40.630,-12.1875,-27.0001
12:57:40.633,-11.8125,-24.0001
12:57:40.669,-9.8125,-21.4376
12:57:40.671,-8,-18.8751
12:57:40.672,-5.375,-14.1876
12:57:40.674,-3.5,-9.5
12:57:40.681,-1.125,-6.25
12:57:40.681,0.0625,-3
12:57:40.695,1.125,0.6875
12:57:40.700,3.1875,3.4375
12:57:40.724,3.625,6.5625
12:57:40.726,4.6875,7.9375
12:57:40.728,5.8125,9.625
12:57:40.739,5.875,10.875
12:57:40.749,6.4375,12.125
12:57:40.758,6.625,13.3751
12:57:40.769,7.125,13.8751
12:57:40.778,6.8125,14.3751
12:57:40.788,7.6875,15.4376
12:57:40.802,7.375,15.4376
12:57:40.810,7.625,16.7501
12:57:40.818,8,16.3126
12:57:40.828,7.8125,16.6876
12:57:40.838,7.625,17.1876
12:57:40.848,7.625,15.8126
12:57:40.858,7.5625,15.1876
12:57:40.868,7.3125,16.4376
12:57:40.879,7.625,15.3126
12:57:40.889,6.4375,13.5626
12:57:40.898,5.5,13.4376
12:57:40.908,5.3125,12.4375
12:57:40.919,4.9375,10.5625
12:57:40.928,4.625,10.6875
12:57:40.938,5.125,10.5625
12:57:40.948,4.5,10.25
12:57:40.958,4.125,9.875
12:57:40.968,4.375,8.5625
12:57:40.978,3.6875,7.25
12:57:40.988,3.3125,7.0625
12:57:40.998,3.6875,6.6875
12:57:41.009,2.75,5.9375
12:57:41.018,2.125,6.8125
12:57:41.028,2.1875,5
12:57:41.038,1.8125,4.125
12:57:41.048,1,3.6875
12:57:41.058,1.1875,2.75
12:57:41.068,0.4375,1.6875
12:57:41.078,-0.125,0.6875
12:57:41.088,-0.4375,0.75
12:57:41.098,-0.25,-1.25
12:57:41.110,-1.125,-2
12:57:41.118,-1.5,-3.375
12:57:41.128,-2,-2.9375
12:57:41.138,-1.875,-4.875
12:57:41.148,-2.6875,-5.9375
12:57:41.158,-3.25,-7.125
12:57:41.168,-3.875,-7
12:57:41.178,-4.1875,-9.125
12:57:41.189,-4.875,-10.25
12:57:41.198,-6.125,-11.75
12:57:41.208,-6.0625,-11.625
12:57:41.218,-6.125,-13.1876
12:57:41.230,-6.6875,-14.0626
12:57:41.238,-7.625,-14.0001
12:57:41.248,-7.625,-15.1876
12:57:41.258,-7.9375,-16.1876
12:57:41.290,-7.3125,-16.0001
12:57:41.292,-8.3125,-17.6876
12:57:41.294,-8.8125,-18.1876
12:57:41.300,-9.0625,-19.2501
12:57:41.325,-8.75,-19.7501
12:57:41.327,-9,-20.4376
12:57:41.330,-9.75,-20.4376
12:57:41.361,-10.4375,-21.4376
12:57:41.363,-11.0625,-22.3751
12:57:41.365,-11.1875,-23.1876
12:57:41.369,-11.875,-24.7501
12:57:41.379,-11.3125,-24.9376
12:57:41.420,-11.625,-25.8751
12:57:41.421,-11.9375,-24.7501
12:57:41.426,-11.25,-26.2501
12:57:41.426,-12.3125,-25.9376
12:57:41.430,-12.0625,-27.6251
12:57:41.438,-13.3751,-27.5626
12:57:41.448,-13.7501,-29.6876
12:57:41.459,-14.0001,-30.2501
12:57:41.468,-14.1876,-30.4376
12:57:41.478,-13.9376,-31.3126
12:57:41.488,-14.3126,-31.2501
12:57:41.498,-14.4376,-32.5001
12:57:41.509,-14.0626,-31.7501
12:57:41.520,-13.9376,-31.5626
12:57:41.528,-12.75,-29.8126
12:57:41.538,-11.75,-28.3126
12:57:41.552,-10.5,-24.6876
12:57:41.558,-7.75,-21.0001
12:57:41.568,-5.5625,-17.3126
12:57:41.578,-3.375,-11.375
12:57:41.588,-1.125,-8.3125
12:57:41.598,0.625,-2.5625
12:57:41.608,2.8125,-0.25
12:57:41.618,3.625,3.9375
12:57:41.628,5.3125,5.75
12:57:41.638,5.9375,9.1875
12:57:41.649,7.4375,10.375
12:57:41.658,7.125,12.125
12:57:41.669,8.25,13.8751
12:57:41.678,8.625,14.1251
12:57:41.688,8.875,16.3126
12:57:41.698,9.8125,16.6251
12:57:41.709,10.5,18.0626
12:57:41.718,10.9375,18.7501
12:57:41.728,10.9375,21.1251
12:57:41.753,10.9375,20.2501
12:57:41.758,11.625,21.7501
12:57:41.759,11.6875,21.3126
12:57:41.769,11.375,22.1876
12:57:41.778,11.5,23.0626
12:57:41.788,11.875,21.8126
12:57:41.798,11.125,20.5001
12:57:41.810,10.9375,21.3126
12:57:41.820,9.5625,19.9376
12:57:41.828,9.375,18.8126
12:57:41.852,8,18.1251
12:57:41.853,8.5,16.6876
12:57:41.870,7.75,16.5626
12:57:41.884,8.5,16.3751
12:57:41.886,8.625,15.1251
12:57:41.902,7.625,14.5626
12:57:41.903,7,15.5001
12:57:41.909,7.3125,14.0626
12:57:41.918,6.75,13.4376
12:57:41.928,6.4375,12.75
12:57:41.940,5.625,13.3751
12:57:41.948,6.1875,11.75
12:57:41.958,5.5625,10.1875
12:57:41.968,5.4375,10.3125
12:57:41.978,5.75,9.625
12:57:41.988,4.8125,8.0625
12:57:41.998,4.125,7.8125
12:57:42.008,3.9375,7.875
12:57:42.018,3.375,6.75
12:57:42.047,2.75,5.4375
12:57:42.048,2.4375,3.9375
12:57:42.051,1.9375,2.875
12:57:42.087,0.6875,2.625
12:57:42.089,0.625,1.625
12:57:42.091,0.125,0.0625
12:57:42.093,-0.375,-0.1875
12:57:42.099,0.1875,-1.3125
12:57:42.124,-0.5,-2.25
12:57:42.125,-1.25,-4.125
12:57:42.133,-1.8125,-3.5625
12:57:42.140,-1.0625,-4.625
12:57:42.171,-2.5625,-6.5
12:57:42.174,-3.6875,-6.1875
12:57:42.176,-3.625,-7.5625
12:57:42.178,-4.125,-9.375
12:57:42.207,-4.5625,-9.375
12:57:42.209,-4.875,-9.8125
12:57:42.210,-4.8125,-10.125
12:57:42.219,-5.25,-11.9375
12:57:42.230,-5.5625,-12.8125
12:57:42.239,-6.0625,-12.9375
12:57:42.248,-6.6875,-14.1251
12:57:42.258,-7.125,-15.8751
12:57:42.268,-7.4375,-15.9376
12:57:42.283,-7.6875,-17.5001
12:57:42.294,-7.875,-17.1251
12:57:42.307,-8.0625,-18.4376
12:57:42.314,-8.6875,-19.3751
12:57:42.323,-8.8125,-19.5626
12:57:42.334,-8.8125,-20.1876
12:57:42.345,-9.1875,-20.3126
12:57:42.353,-9.4375,-21.1251
12:57:42.363,-9.875,-20.9376
12:57:42.373,-9.625,-22.0001
12:57:42.382,-10.4375,-23.7501
12:57:42.392,-10.9375,-23.6876
12:57:42.403,-11.4375,-25.1876
12:57:42.413,-11.375,-25.1876
12:57:42.423,-11.8125,-26.5626
12:57:42.433,-12.25,-26.6251
12:57:42.443,-11.6875,-26.9376
12:57:42.453,-12.375,-27.6876
12:57:42.464,-11.4375,-27.5626
12:57:42.473,-11.75,-26.3751
12:57:42.484,-10.375,-24.7501
12:57:42.494,-9.3125,-22.5001
12:57:42.503,-7.6875,-18.5626
12:57:42.513,-5.1875,-15.7501
12:57:42.523,-3.625,-10.625
12:57:42.533,-1.5,-6.8125
12:57:42.543,0.375,-3.125
12:57:42.553,2.6875,1.3125
12:57:42.564,4.375,3.8125
12:57:42.573,5.625,8.1875
12:57:42.583,6.75,9.875
12:57:42.593,7.6875,12.25
12:57:42.603,7.9375,12.875
12:57:42.614,9.125,15.5626
12:57:42.623,9.1875,16.9376
12:57:42.633,9.875,17.1876
12:57:42.643,10.3125,19.1251
12:57:42.653,10.75,19.0626
12:57:42.664,10.5,19.5001
12:57:42.678,10.875,21.2501
12:57:42.683,11.1875,21.1251
12:57:42.694,11.4375,22.1876
12:57:42.705,11.9375,22.3126
12:57:42.713,12.1875,23.4376
12:57:42.723,12.1875,22.8126
12:57:42.733,11.1875,22.3126
12:57:42.743,10.9375,22.3751
12:57:42.753,11.25,21.2501
12:57:42.764,10.25,20.2501
12:57:42.773,10.1875,20.5626
12:57:42.783,9.875,18.9376
12:57:42.793,9.25,18.3751
12:57:42.804,8.5625,19.0626
12:57:42.820,9,18.2501
12:57:42.825,9,16.7501
12:57:42.862,7.9375,16.3126
12:57:42.863,7.625,17.2501
12:57:42.865,8.125,16.3751
12:57:42.868,7.5625,15.0001
12:57:42.874,7.25,14.0626
12:57:42.903,6.25,14.8126
12:57:42.906,7,13.5001
12:57:42.908,6.3125,12.5625
12:57:42.944,6.0625,12.8125
12:57:42.945,5.9375,11.3125
12:57:42.948,4.6875,9.4375
12:57:42.956,4.375,9
12:57:42.957,3.75,9.0625
12:57:42.963,3.5,7.625
12:57:42.993,2.875,6.75
12:57:42.995,1.875,6.25
12:57:42.998,2.0625,4.875
12:57:43.005,1.75,3.625
12:57:43.034,1.125,3
12:57:43.037,0.5625,2.875
12:57:43.042,0.375,1.875
12:57:43.045,0.375,0
12:57:43.053,-0.5,0.125
12:57:43.063,-1.4375,-0.4375
12:57:43.073,-1.375,-1.75
12:57:43.084,-1.8125,-3.75
12:57:43.093,-2.5625,-4.625
12:57:43.102,-3.125,-5.5625
12:57:43.113,-3.375,-5.3125
12:57:43.123,-3.875,-7.375
12:57:43.145,-4.3125,-8
12:57:43.148,-4.8125,-8.1875
12:57:43.163,-4.6875,-8.5625
12:57:43.167,-5.375,-10.375
12:57:43.173,-6.1875,-11.0625
12:57:43.196,-6.3125,-11
12:57:43.199,-6.25,-12.5625
12:57:43.214,-6.375,-13.6876
12:57:43.227,-6.9375,-14.4376
12:57:43.230,-6.5,-14.6876
12:57:43.237,-7.75,-14.9376
12:57:43.243,-7.4375,-15.1251
12:57:43.253,-7.625,-16.0626
12:57:43.263,-7.375,-16.9376
12:57:43.273,-8.3125,-17.4376
12:57:43.284,-8.6875,-17.5001
12:57:43.293,-9.25,-18.6251
12:57:43.303,-9.625,-18.6876
12:57:43.313,-9.1875,-20.1876
12:57:43.323,-9.625,-21.1876
12:57:43.333,-9.5,-21.8751
12:57:43.343,-10.3125,-22.5626
12:57:43.353,-10.25,-22.8751
12:57:43.364,-9.875,-22.8751
12:57:43.372,-10.125,-22.9376
12:57:43.383,-9.9375,-21.4376
12:57:43.393,-8.5625,-20.0626
12:57:43.403,-8,-17.4376
12:57:43.413,-6.125,-14.3751
12:57:43.423,-3.5625,-11
12:57:43.433,-1.75,-7.1875
12:57:43.443,0,-1.5625
12:57:43.479,3,1.25
12:57:43.480,4,6.0625
12:57:43.482,6.375,8.0625
12:57:43.484,6.9375,11.625
12:57:43.517,8.4375,14.8751
12:57:43.518,9,14.8751
12:57:43.522,9.5,17.6876
12:57:43.524,9.75,18.3751
12:57:43.554,10.25,19.7501
12:57:43.557,10.4375,19.1251
12:57:43.559,11.125,21.6251
12:57:43.566,11.125,21.0001
12:57:43.576,11.375,22.6876
12:57:43.609,11.5625,22.5001
12:57:43.610,12.375,24.5626
12:57:43.611,11.9375,24.1251
12:57:43.614,12.25,25.3126
12:57:43.637,12.125,25.8126
12:57:43.641,12.25,24.3751
12:57:43.644,11.625,23.5626
12:57:43.653,10.75,23.1251
12:57:43.663,10.5625,22.6876
12:57:43.673,10.3125,21.0001
12:57:43.683,9.75,20.3751
12:57:43.693,9.9375,21.0001
12:57:43.703,9.9375,20.5626
12:57:43.713,9.625,19.2501
12:57:43.723,8.9375,18.5001
12:57:43.733,8.5625,18.0626
12:57:43.743,9,17.8126
12:57:43.753,8.625,17.2501
12:57:43.763,8.3125,16.1876
12:57:43.773,7.625,16.5626
12:57:43.784,7.9375,15.5001
12:57:43.793,7.3125,14.8751
12:57:43.806,7,14.4376
12:57:43.813,6.375,14.8126
12:57:43.823,6.625,13.4376
12:57:43.838,5.8125,12.625
12:57:43.848,5.625,11.1875
12:57:43.860,4.9375,10.375
12:57:43.868,4.375,10.4375
12:57:43.878,4.5,9.5625
12:57:43.888,4,8
12:57:43.898,3,6.9375
12:57:43.908,2.5625,7.25
12:57:43.918,2.3125,5.875
12:57:43.928,2.3125,4.125
12:57:43.938,1.625,3.125
12:57:43.948,0.9375,3.5
12:57:43.958,0.9375,2.0625
12:57:43.968,0.4375,0.375
12:57:43.978,-0.1875,-0.9375
12:57:43.990,-0.5625,-0.4375
12:57:43.998,-0.8125,-2
12:57:44.008,-1.8125,-4.0625
12:57:44.018,-1.875,-4.1875
12:57:44.028,-3.25,-4.4375
12:57:44.038,-2.625,-5.3125
12:57:44.048,-2.8125,-6.5625
12:57:44.058,-3.625,-8.6875
12:57:44.068,-4.625,-7.5625
12:57:44.078,-4.875,-9.3125
12:57:44.088,-5,-10.625
12:57:44.098,-5.25,-10.8125
12:57:44.108,-6.5,-10.8125
12:57:44.118,-5.3125,-11.625
12:57:44.128,-6.125,-13.3126
12:57:44.138,-6.25,-13.7501
12:57:44.148,-7.1875,-13.2501
12:57:44.158,-6.625,-15.2501
12:57:44.168,-7.9375,-14.8751
12:57:44.182,-7.5,-16.5001
12:57:44.188,-8.25,-16.8126
12:57:44.198,-8.375,-17.1251
12:57:44.208,-8.6875,-18.8751
12:57:44.218,-8.6875,-19.5001
12:57:44.228,-9.1875,-19.7501
12:57:44.273,-9.125,-20.4376
12:57:44.276,-9.5,-21.3126
12:57:44.278,-9.75,-21.1876
12:57:44.280,-10.3125,-22.4376
12:57:44.283,-10.125,-21.6876
12:57:44.312,-9.4375,-22.2501
12:57:44.313,-8.875,-20.8751
12:57:44.316,-8.1875,-19.5626
12:57:44.318,-6.75,-17.1251
12:57:44.360,-5.0625,-13.8126
12:57:44.363,-2.9375,-10
12:57:44.367,-0.5,-5
12:57:44.405,0.8125,-0.4375
12:57:44.405,3.5,3.6875
12:57:44.406,4.5,6.8125
12:57:44.408,6.8125,9.9375
12:57:44.417,7.3125,13.0625
12:57:44.421,8,15.5626
12:57:44.421,9.3125,16.5001
12:57:44.429,9.4375,18.5001
12:57:44.448,9.875,20.3126
12:57:44.456,9.9375,20.8126
12:57:44.470,10.125,21.7501
12:57:44.474,10.5625,22.5001
12:57:44.490,11.25,23.8751
12:57:44.491,11.3125,23.6876
12:57:44.498,11.6875,25.5626
12:57:44.519,11.9375,25.7501
12:57:44.522,12.9375,26.8126
12:57:44.530,13.1251,26.5001
12:57:44.538,11.8125,25.7501
12:57:44.559,11.125,26.6876
12:57:44.562,10.6875,25.5001
12:57:44.577,11.3125,24.6876
12:57:44.580,10.5,23.8751
12:57:44.588,9.4375,23.3126
12:57:44.598,9.625,22.8751
12:57:44.608,9.5625,21.6251
12:57:44.618,9.5,21.1251
12:57:44.629,8.9375,20.0001
12:57:44.638,8.375,20.1876
12:57:44.648,8,20.3126
12:57:44.658,8.1875,18.9376
12:57:44.668,7.875,17.8126
12:57:44.678,7.25,17.8126
12:57:44.689,6.75,18.4376
12:57:44.698,7.25,16.6876
12:57:44.708,7.125,16.1876
12:57:44.718,6.4375,15.1876
12:57:44.729,5.8125,14.7501
12:57:44.738,5.5,14.3751
12:57:44.748,5.875,13.3751
12:57:44.758,4.9375,12.125
12:57:44.768,4.0625,11.625
12:57:44.778,4,11.4375
12:57:44.788,3.9375,10.125
12:57:44.798,2.6875,8.25
12:57:44.808,1.75,7.5625
12:57:44.818,1.625,7.25
12:57:44.828,1.375,5.5625
12:57:44.838,0.5,4.0625
12:57:44.847,0.1875,3.3125
12:57:44.858,-0.3125,3.25
12:57:44.868,-0.0625,2.25
12:57:44.878,-0.8125,0.9375
12:57:44.888,-0.9375,-0.6875
12:57:44.899,-1.875,-0.25
12:57:44.908,-1.75,-1.375
12:57:44.918,-2.125,-2.3125
12:57:44.940,-2.6875,-3.625
12:57:44.943,-3.125,-4.875
12:57:44.975,-3.8125,-4.75
12:57:44.980,-3.5,-6
12:57:44.982,-4.25,-7.1875
12:57:44.983,-4.75,-7.4375
12:57:45.009,-5.125,-8.4375
12:57:45.012,-5.25,-8.625
12:57:45.014,-5.6875,-9.4375
12:57:45.021,-5.625,-10.8125
12:57:45.030,-6.1875,-11.3125
12:57:45.065,-6.75,-11.5
12:57:45.069,-6.4375,-12.4375
12:57:45.070,-7.125,-13.1876
12:57:45.073,-6.875,-13.6876
12:57:45.078,-7.5,-14.0001
12:57:45.108,-7.0625,-14.8751
12:57:45.110,-8.0625,-15.1251
12:57:45.112,-8.8125,-16.6876
12:57:45.117,-9.0625,-16.6876
12:57:45.129,-9.125,-18.1876
12:57:45.138,-10.125,-19.0001
12:57:45.148,-9.625,-19.7501
12:57:45.158,-9.9375,-20.0001
12:57:45.170,-10.375,-20.3126
12:57:45.178,-11.0625,-21.3126
12:57:45.188,-11.25,-21.8751
12:57:45.198,-11.1875,-22.2501
12:57:45.208,-11.6875,-22.3126
12:57:45.218,-10.8125,-22.8126
12:57:45.229,-10.6875,-21.9376
12:57:45.238,-10.0625,-21.0626
12:57:45.248,-8.8125,-17.7501
12:57:45.258,-7.0625,-14.9376
12:57:45.268,-4.75,-11.0625
12:57:45.278,-2.8125,-6.6875
12:57:45.288,-0.1875,-2.8125
12:57:45.298,0.9375,1.0625
12:57:45.308,3.6875,4.875
12:57:45.319,4.5,8.5
12:57:45.328,6.5625,11.4375
12:57:45.338,6.9375,14.6251
12:57:45.348,8.3125,16.3126
12:57:45.358,8.5,17.9376
12:57:45.368,9.4375,18.6876
12:57:45.378,9.125,19.9376
12:57:45.388,9.9375,20.8751
12:57:45.399,9.75,21.3751
12:57:45.408,10.3125,22.1251
12:57:45.418,10.125,23.1251
12:57:45.428,10.5625,23.5001
12:57:45.438,10.875,23.8126
12:57:45.448,11.4375,24.5001
12:57:45.457,10.6875,25.0626
12:57:45.468,10.875,26.1876
12:57:45.485,10.6875,25.3126
12:57:45.486,11.3125,24.3126
12:57:45.497,10.5,23.2501
12:57:45.508,9.4375,23.8126
12:57:45.518,9.625,22.6876
12:57:45.529,8.75,20.6876
12:57:45.538,8.375,21.1251
12:57:45.548,9.3125,20.5001
12:57:45.556,8.3125,19.3751
12:57:45.568,7.6875,19.3751
12:57:45.593,7.8125,19.1876
12:57:45.596,7.875,18.0626
12:57:45.598,6.5625,18.1251
12:57:45.610,7,18.0626
12:57:45.618,7.125,17.2501
12:57:45.628,6.375,17.0001
12:57:45.638,6.4375,17.1251
12:57:45.648,6.75,15.6251
12:57:45.658,6.3125,14.6251
12:57:45.666,5.3125,13.5001
12:57:45.681,4.9375,13.6251
12:57:45.688,5.25,12.625
12:57:45.720,4.1875,11.375
12:57:45.722,3.4375,11.3125
12:57:45.724,3.8125,9.875
12:57:45.729,3,8.375
12:57:45.768,2.125,8.1875
12:57:45.769,1.875,7.3125
12:57:45.815,1.9375,6.375
12:57:45.816,1.1875,5.5
12:57:45.846,0.875,4.875
12:57:45.846,0.25,3.125
12:57:45.868,-0.6875,2.625
12:57:45.871,-1.125,2.375
12:57:45.883,-1,0.75
12:57:45.885,-0.625,-1.0625
12:57:45.885,-1.9375,-2
12:57:45.896,-2.6875,-2.375
12:57:45.899,-2.625,-2.25
12:57:45.914,-2.1875,-3.75
12:57:45.916,-3.6875,-5.0625
12:57:45.919,-4.4375,-6.25
12:57:45.928,-4.1875,-5.9375
12:57:45.938,-4.4375,-7.5625
12:57:45.948,-4.9375,-8.4375
12:57:45.958,-5.8125,-9.0625
12:57:45.968,-5.3125,-9.4375
12:57:45.978,-5.9375,-10.3125
12:57:45.988,-7.625,-12.1875
12:57:45.998,-8.3125,-13.5001
12:57:46.008,-8.25,-14.3751
12:57:46.018,-8.0625,-15.0001
12:57:46.028,-8.8125,-15.7501
12:57:46.038,-9.375,-17.5626
12:57:46.048,-9.3125,-17.5001
12:57:46.059,-9.375,-17.8126
12:57:46.068,-10.5,-18.6251
12:57:46.077,-10.5625,-19.4376
12:57:46.088,-10.5,-20.5626
12:57:46.096,-10.6875,-20.5626
12:57:46.109,-10.5,-20.3126
12:57:46.118,-10.3125,-20.0001
12:57:46.127,-9.3125,-18.0001
12:57:46.138,-8.4375,-16.1876
12:57:46.149,-6.4375,-13.125
12:57:46.158,-4.875,-10.0625
12:57:46.168,-2.75,-5.0625
12:57:46.178,-0.875,-2.6875
12:57:46.188,1.625,2.875
12:57:46.198,2.5,5.4375
12:57:46.209,3.875,9.125
12:57:46.218,4.8125,10.5625
12:57:46.229,5.75,12.6875
12:57:46.244,6.375,14.5001
12:57:46.248,7.0625,15.9376
12:57:46.256,7.3125,16.8751
12:57:46.266,7.0625,17.3126
12:57:46.278,7.5,18.7501
12:57:46.290,7.9375,18.1876
12:57:46.298,8.25,18.8126
12:57:46.307,8.3125,20.0001
12:57:46.321,8.8125,20.1251
12:57:46.333,7.5,20.3126
12:57:46.342,8.125,19.6251
12:57:46.353,7.5625,18.6251
12:57:46.363,7,18.5626
12:57:46.384,7.0625,18.3751
12:57:46.385,6.25,16.8126
12:57:46.393,5.6875,16.0001
12:57:46.422,5.75,16.3751
12:57:46.426,5.3125,16.0001
12:57:46.428,5.4375,14.3126
12:57:46.433,5.3125,13.5001
12:57:46.468,4.5625,12.25
12:57:46.469,4.0625,13.0625
12:57:46.472,4.4375,13.2501
12:57:46.479,4.375,12.25
12:57:46.494,5,11.875
12:57:46.495,3.875,11.3125
12:57:46.523,3.4375,11.625
12:57:46.528,3.3125,10.5
12:57:46.529,3.25,9.125
12:57:46.538,3.1875,9.3125
12:57:46.543,3.4375,8.5
12:57:46.554,2.5,7.375
12:57:46.563,1.9375,5.875
12:57:46.574,1.4375,6.1875
12:57:46.582,1,4.6875
12:57:46.592,0.375,3.625
12:57:46.603,-0.875,3.0625
12:57:46.612,-0.3125,2.4375
12:57:46.623,-0.625,0.875
12:57:46.633,-1.0625,-0.1875
12:57:46.643,-2.375,-0.625
12:57:46.653,-2.125,-1.5
12:57:46.663,-2.6875,-3
12:57:46.673,-3,-3.375
12:57:46.682,-3.5625,-3.9375
12:57:46.693,-3.25,-4.25
12:57:46.703,-4.0625,-5.8125
12:57:46.713,-4.9375,-7
12:57:46.724,-5,-7.3125
12:57:46.733,-5.25,-8.3125
12:57:46.743,-4.3125,-9.0625
12:57:46.753,-5.75,-9.875
12:57:46.763,-6.6875,-10.625
12:57:46.773,-6.1875,-12.125
12:57:46.782,-7.125,-13
12:57:46.793,-6.75,-12.375
12:57:46.801,-7.1875,-13.5001
12:57:46.813,-7.6875,-14.0626
12:57:46.822,-7.4375,-15.0001
12:57:46.833,-8.25,-16.0001
12:57:46.843,-8.0625,-16.2501
12:57:46.873,-8.9375,-16.8126
12:57:46.874,-8.6875,-18.1251
12:57:46.879,-9.1875,-18.0001
12:57:46.884,-9.75,-19.4376
12:57:46.892,-9.625,-20.1251
12:57:46.904,-10.4375,-20.8751
12:57:46.911,-9.875,-20.8751
12:57:46.923,-11,-21.9376
12:57:46.932,-10.8125,-21.7501
12:57:46.943,-9.8125,-21.8751
12:57:46.956,-10.0625,-19.9376
12:57:46.968,-8,-18.5001
12:57:46.978,-7.3125,-15.8751
12:57:46.995,-4.6875,-12.5
12:57:46.999,-2.9375,-7.9375
12:57:47.009,-0.5625,-3.3125
12:57:47.018,1.9375,1.3125
12:57:47.027,3.8125,5.5625
12:57:47.038,5.6875,9.1875
12:57:47.048,6.625,14.0626
12:57:47.058,8.5,15.6876
12:57:47.068,8.9375,19.0001
12:57:47.078,10.625,20.4376
12:57:47.127,10.4375,22.3751
12:57:47.129,11.375,23.2501
12:57:47.158,12.3125,25.9376
12:57:47.162,13.1876,26.6876
12:57:47.162,13.1876,28.9376
12:57:47.162,13.8126,29.2501
12:57:47.169,13.8751,29.4376
12:57:47.194,14.5001,30.5626
12:57:47.231,14.6876,31.1876
12:57:47.231,14.8126,32.6876
12:57:47.248,15.8751,32.3751
12:57:47.281,15.0626,31.8126
12:57:47.282,14.1251,31.8751
12:57:47.282,14.3126,32.3126
12:57:47.295,14.1876,30.7501
12:57:47.298,13.2501,30.5626
12:57:47.300,13.8751,29.5626
12:57:47.302,13.1876,28.0001
12:57:47.302,12.375,26.8751
12:57:47.308,12.125,26.4376
12:57:47.316,12.0625,25.8751
12:57:47.327,11.875,24.8126
12:57:47.338,11.125,24.1876
12:57:47.348,10.625,24.1876
12:57:47.357,11.375,23.6251
12:57:47.374,10.3125,22.6251
12:57:47.377,9.8125,21.1251
12:57:47.389,9.375,20.4376
12:57:47.398,8.875,21.0001
12:57:47.408,8.5,18.9376
12:57:47.418,9.25,20.8126
12:57:47.429,7.625,18.1251
12:57:47.437,7.3125,16.6251
12:57:47.447,6.9375,15.0626
12:57:47.458,6.25,14.0626
12:57:47.468,5.4375,13.1251
12:57:47.476,5.6875,11.9375
12:57:47.487,4.9375,10.1875
12:57:47.498,3.625,8.6875
12:57:47.506,3.375,9.125
12:57:47.519,3.875,7.5625
12:57:47.529,2.5625,6.0625
12:57:47.537,1.75,5.4375
12:57:47.546,1.625,5.0625
12:57:47.558,1.375,3.5
12:57:47.568,0.5,1.375
12:57:47.577,0.125,1.1875
12:57:47.588,-0.3125,1
12:57:47.598,-0.0625,-1.0625
12:57:47.607,-1.4375,-2.5
12:57:47.617,-2.25,-3.1875
12:57:47.626,-2.5,-3.625
12:57:47.637,-3,-5
12:57:47.649,-3.4375,-6.5
12:57:47.658,-4.0625,-5.5
12:57:47.666,-3.875,-7.875
12:57:47.676,-4.1875,-9
12:57:47.689,-4.8125,-8.875
12:57:47.698,-4.625,-9.5625
12:57:47.708,-5.4375,-11.25
12:57:47.717,-6.3125,-11.125
12:57:47.728,-5.9375,-11.6875
12:57:47.738,-6.25,-13.1876
12:57:47.749,-7.125,-13.5626
12:57:47.757,-6.6875,-14.2501
12:57:47.769,-7.75,-15.4376
12:57:47.779,-7.25,-15.9376
12:57:47.788,-8,-16.3751
12:57:47.798,-7.1875,-16.6251
12:57:47.808,-7.625,-15.8751
12:57:47.818,-6.9375,-15.1251
12:57:47.828,-6,-13.5001
12:57:47.837,-4,-10.8125
12:57:47.848,-2.625,-7.25
12:57:47.856,0.0625,-3.25
12:57:47.868,2.8125,2.0625
12:57:47.878,4.25,5.125
12:57:47.910,6.625,10.3125
12:57:47.912,8.0625,13.4376
12:57:47.915,9.8125,17.7501
12:57:47.918,10.875,20.0001
12:57:47.947,12.125,23.1251
12:57:47.949,12.625,24.0001
12:57:47.952,13.2501,26.6251
12:57:47.960,14.1251,27.9376
12:57:47.989,14.3126,28.6876
12:57:47.991,14.1251,29.3126
12:57:47.993,15.0626,31.0626
12:57:48.020,14.9376,30.6876
12:57:48.021,15.4376,32.1876
12:57:48.026,15.7501,32.5626
12:57:48.056,15.8126,34.3751
12:57:48.058,16.0626,35.0626
12:57:48.060,16.5001,34.9376
12:57:48.066,16.4376,34.2501
12:57:48.070,15.4376,34.2501
12:57:48.077,14.8751,34.1251
12:57:48.087,14.8126,31.9376
12:57:48.098,12.6875,30.1876
12:57:48.108,9.875,28.5001
12:57:48.116,5.625,25.2501
12:57:48.128,0.75,20.1251
12:57:48.153,-9.3125,13.3126
12:57:48.156,-21.1876,5.3125
12:57:48.161,-32.6251,-2.9375
12:57:48.166,-43.5002,-11.5
12:57:48.178,-55.0627,-19.6876
12:57:48.188,-63.1252,-23.8751
12:57:48.198,-65.4377,-25.6251
12:57:48.207,-68.6253,-26.2501
12:57:48.218,-69.9378,-26.1876
12:57:48.227,-70.6878,-25.0626
12:57:48.238,-69.8753,-24.1876
12:57:48.249,-70.5003,-23.7501
12:57:48.258,-69.0628,-21.0001
12:57:48.269,-68.7503,-19.3126
12:57:48.277,-67.8128,-19.0001
12:57:48.288,-66.7503,-17.3126
12:57:48.297,-64.9377,-15.6251
12:57:48.309,-64.1252,-14.4376
12:57:48.318,-64.3127,-13.6251
12:57:48.328,-63.6252,-13.8126
12:57:48.337,-64.4377,-12.1875
12:57:48.348,-62.9377,-13.0625
12:57:48.356,-60.3127,-10.25
12:57:48.368,-57.9377,-9.0625
12:57:48.379,-56.5627,-7.6875
12:57:48.389,-55.1252,-6.9375
12:57:48.397,-54.5002,-5.1875
12:57:48.418,-52.4377,-5
12:57:48.421,-51.3752,-4.6875
12:57:48.430,-49.3752,-3.4375
12:57:48.438,-47.0627,-2.75
12:57:48.453,-45.6252,-0.75
12:57:48.462,-44.2502,-0.75
12:57:48.468,-42.5002,0.25
12:57:48.478,-41.2502,0.9375
12:57:48.488,-40.3752,1.1875
12:57:48.498,-39.5627,1.125
12:57:48.508,-38.8126,2
12:57:48.517,-37.0001,2.3125
12:57:48.526,-36.3126,2.875
12:57:48.537,-35.7501,2.3125
12:57:48.547,-35.5626,3.125
12:57:48.566,-36.0001,1.125
12:57:48.568,-36.5626,0.9375
12:57:48.583,-36.3126,0
12:57:48.598,-37.5001,-0.75
12:57:48.601,-37.7501,-1.5625
12:57:48.610,-38.1876,-3.25
12:57:48.618,-38.0626,-3.125
12:57:48.626,-37.9376,-6.125
12:57:48.638,-39.0627,-6.625
12:57:48.649,-39.8752,-8.625
12:57:48.680,-40.0627,-10.6875
12:57:48.681,-40.8127,-11.0625
12:57:48.683,-40.6877,-12.1875
12:57:48.689,-41.1252,-12.1875
12:57:48.716,-40.4377,-11.375
12:57:48.720,-39.4377,-10.5625
12:57:48.720,-39.3127,-7.5
12:57:48.728,-38.0001,-4.625
12:57:48.753,-35.6876,-3
12:57:48.754,-35.1251,-0.125
12:57:48.757,-34.4376,1.4375
12:57:48.789,-34.0001,1.875
12:57:48.793,-36.6876,2.5
12:57:48.794,-38.8751,-0.5625
12:57:48.802,-42.1252,-1.1875
12:57:48.813,-42.7502,-2.4375
12:57:48.818,-44.3127,-2.5625
12:57:48.836,-46.5002,-3.9375
12:57:48.838,-47.8752,-5.625
12:57:48.847,-49.1252,-5.375
12:57:48.858,-50.3127,-6.6875
12:57:48.868,-51.5002,-6.1875
12:57:48.882,-51.9377,-6.5625
12:57:48.888,-52.3752,-6.25
12:57:48.898,-51.6252,-5.875
12:57:48.909,-50.6877,-4
12:57:48.918,-48.5627,-3.25
12:57:48.927,-48.0002,-3.625
12:57:48.939,-48.0002,-2.6875
12:57:48.947,-47.2502,-3.1875
12:57:48.958,-46.5002,-4.5
12:57:48.967,-46.0002,-3.875
12:57:48.978,-45.3127,-3.25
12:57:48.988,-43.4377,-3.125
12:57:48.996,-42.4377,-2
12:57:49.008,-40.6877,-2.4375
12:57:49.017,-39.1252,-0.375
12:57:49.027,-37.5626,-0.75
12:57:49.037,-36.9376,0.125
12:57:49.047,-36.3751,-1.1875
12:57:49.056,-34.7501,-0.0625
12:57:49.068,-32.8126,0.1875
12:57:49.076,-31.6876,0.6875
12:57:49.088,-29.7501,-0.0625
12:57:49.097,-28.2501,1.375
12:57:49.108,-25.6876,0.375
12:57:49.116,-25.0626,0.625
12:57:49.127,-23.6251,-0.875
12:57:49.137,-21.1876,1.9375
12:57:49.147,-18.1251,2.0625
12:57:49.158,-16.0626,3.375
12:57:49.166,-13.8751,4.5625
12:57:49.178,-12.8125,3.4375
12:57:49.187,-11.25,4
12:57:49.198,-10.5,4.4375
12:57:49.208,-10.0625,3.9375
12:57:49.216,-9,3.5625
12:57:49.226,-8.9375,3.75
12:57:49.240,-8.4375,2.6875
12:57:49.248,-7.6875,2.625
12:57:49.257,-7.3125,1.6875
12:57:49.268,-7.5,1.3125
12:57:49.278,-6.9375,0.0625
12:57:49.288,-7.1875,0
12:57:49.299,-7.625,-1
12:57:49.308,-7.625,-0.625
12:57:49.324,-7.9375,-0.25
12:57:49.327,-7.3125,-2
12:57:49.352,-7.6875,-1.625
12:57:49.355,-7.625,-3.6875
12:57:49.358,-8.5625,-3.75
12:57:49.385,-9.5625,-6.375
12:57:49.387,-10.75,-8.375
12:57:49.390,-12.25,-9.3125
12:57:49.433,-12.6875,-10.9375
12:57:49.434,-14.5626,-12.9375
12:57:49.437,-15.7501,-14.1251
12:57:49.439,-16.4376,-16.5001
12:57:49.446,-17.8751,-17.0626
12:57:49.453,-19.0626,-20.3126
12:57:49.456,-20.6876,-21.6876
12:57:49.486,-21.5626,-24.6876
12:57:49.489,-23.2501,-25.6876
12:57:49.490,-22.9376,-28.1251
12:57:49.497,-23.5626,-28.3751
12:57:49.508,-23.8126,-30.9376
12:57:49.517,-24.3751,-31.3751
12:57:49.528,-25.8751,-33.6251
12:57:49.537,-27.0626,-33.6251
12:57:49.547,-26.8751,-35.4376
12:57:49.556,-26.6876,-34.8126
12:57:49.568,-26.1876,-35.3126
12:57:49.577,-27.7501,-33.4376
12:57:49.587,-28.3751,-33.6251
12:57:49.597,-30.3126,-33.4376
12:57:49.607,-30.8751,-31.6251
12:57:49.617,-30.7501,-30.1251
12:57:49.633,-30.0001,-26.8126
12:57:49.638,-29.3126,-25.0626
12:57:49.647,-28.5626,-22.3126
12:57:49.657,-27.9376,-20.0626
12:57:49.667,-28.3126,-18.5626
12:57:49.677,-28.1251,-17.8126
12:57:49.688,-25.9376,-14.2501
12:57:49.697,-25.3751,-13.3126
12:57:49.707,-24.5626,-11.75
12:57:49.719,-22.6251,-9.9375
12:57:49.737,-21.7501,-6.8125
12:57:49.744,-19.8751,-4.875
12:57:49.757,-18.3126,-2.75
12:57:49.760,-17.1251,-1
12:57:49.769,-14.8751,1.875
12:57:49.779,-13.1876,3.4375
12:57:49.787,-10.75,5.4375
12:57:49.798,-8.875,7.125
12:57:49.806,-7.3125,8.375
12:57:49.817,-7,8.25
12:57:49.829,-6.875,7.625
12:57:49.837,-6.3125,7.4375
12:57:49.846,-6.4375,7.5
12:57:49.857,-5.75,6.6875
12:57:49.867,-5.625,7.125
12:57:49.884,-5.1875,6.1875
12:57:49.887,-4.4375,7.125
12:57:49.902,-2.875,7.125
12:57:49.909,-0.875,9.8125
12:57:49.917,1.4375,11.125
12:57:49.927,2.625,10.6875
12:57:49.938,3.625,12.9375
12:57:49.947,5.75,13.3126
12:57:49.957,6.125,14.6876
12:57:49.967,8.5625,15.0001
12:57:49.977,9.0625,14.9376
12:57:49.986,10.75,16.0626
12:57:49.998,11,15.1251
12:57:50.009,12,15.8126
12:57:50.017,12,14.8751
12:57:50.027,10.8125,14.2501
12:57:50.038,10.25,13.0625
12:57:50.047,9.125,11.5625
12:57:50.057,7.625,9.0625
12:57:50.067,7.25,9.375
12:57:50.077,6.4375,7.5
12:57:50.113,5.375,6.4375
12:57:50.115,4.9375,4.875
12:57:50.117,3.8125,2.875
12:57:50.119,2.6875,1.375
12:57:50.127,1.1875,0.75
12:57:50.160,0.125,-1.75
12:57:50.162,-0.875,-3.625
12:57:50.165,-2.1875,-4.8125
12:57:50.198,-2.1875,-5.375
12:57:50.198,-2.8125,-7.8125
12:57:50.202,-4.6875,-9.75
12:57:50.207,-6.625,-11.1875
12:57:50.208,-7.5,-13.8751
12:57:50.217,-8.1875,-15.5001
12:57:50.254,-9.125,-16.3751
12:57:50.255,-10.0625,-19.0626
12:57:50.257,-12.0625,-20.7501
12:57:50.259,-13.8126,-21.8751
12:57:50.270,-14.5626,-24.4376
12:57:50.279,-16.0626,-26.3126
12:57:50.288,-17.6251,-27.8751
12:57:50.297,-19.5626,-29.7501
12:57:50.307,-19.8126,-32.1876
12:57:50.317,-21.5001,-32.8126
12:57:50.327,-22.6251,-35.1876
12:57:50.338,-24.1876,-37.7501
12:57:50.347,-25.4376,-38.1876
12:57:50.385,-27.3751,-41.3752
12:57:50.386,-29.4376,-44.1252
12:57:50.388,-31.9376,-46.6877
12:57:50.398,-36.9376,-50.8127
12:57:50.403,-38.5626,-53.6252
12:57:50.413,-41.2502,-55.7502
12:57:50.421,-43.1252,-57.7502
12:57:50.432,-46.6252,-59.7502
12:57:50.441,-48.4377,-62.2502
12:57:50.453,-50.3127,-63.4377
12:57:50.461,-51.0002,-63.8752
12:57:50.473,-51.0627,-63.4377
12:57:50.482,-50.1252,-61.3127
12:57:50.492,-47.6877,-57.7502
12:57:50.502,-44.4377,-53.6877
12:57:50.512,-41.7502,-48.8752
12:57:50.521,-37.3751,-40.3752
12:57:50.533,-35.1251,-37.2501
12:57:50.542,-33.3126,-31.3751
12:57:50.552,-30.2501,-28.0626
12:57:50.561,-28.6251,-25.7501
12:57:50.572,-26.5626,-20.8126
12:57:50.582,-24.8751,-19.6876
12:57:50.591,-22.6251,-14.5001
12:57:50.602,-19.5626,-12.3125
12:57:50.612,-16.6251,-7.625
12:57:50.621,-13.4376,-5.0625
12:57:50.632,-11.1875,-2.4375
12:57:50.642,-9.625,-1.5
12:57:50.652,-8.6875,0.5
12:57:50.662,-7,1.375
12:57:50.672,-5.8125,3.875
12:57:50.682,-4.125,4.6875
12:57:50.712,-1.8125,6.5
12:57:50.715,-0.1875,6.5625
12:57:50.717,2.625,9.3125
12:57:50.725,5.0625,10.5
12:57:50.734,7.3125,13.0625
12:57:50.741,9.1875,14.6876
12:57:50.759,10.5625,14.9376
12:57:50.762,10.75,16.6876
12:57:50.772,11.8125,15.4376
12:57:50.804,12.0625,16.3751
12:57:50.807,11.9375,15.2501
12:57:50.811,11.375,15.6251
12:57:50.812,11.1875,13.5626
12:57:50.844,9.5625,13
12:57:50.845,8.875,11.125
12:57:50.847,7.25,10.4375
12:57:50.854,6.375,9.3125
12:57:50.863,5.625,7.5625
12:57:50.900,4.625,7.125
12:57:50.900,5.0625,6.3125
12:57:50.903,3.8125,5.5
12:57:50.905,3.1875,4.5625
12:57:50.936,2.875,3.1875
12:57:50.939,2.5,1.6875
12:57:50.943,0.625,-0.375
12:57:50.944,-1.0625,-1.625
12:57:50.958,-2.75,-3.25
12:57:50.964,-3.625,-4.375
12:57:50.972,-4.75,-6.75
12:57:50.982,-5.9375,-7.8125
12:57:50.992,-7.1875,-10.8125
12:57:51.001,-8.625,-12.6875
12:57:51.012,-9.4375,-14.8126
12:57:51.022,-11.125,-16.4376
12:57:51.031,-12.6875,-18.6876
12:57:51.052,-14.6251,-20.0001
12:57:51.057,-15.5001,-21.8751
12:57:51.066,-17.5626,-24.3751
12:57:51.074,-19.0626,-25.4376
12:57:51.089,-20.3126,-27.4376
12:57:51.095,-21.6251,-29.3126
12:57:51.103,-21.8126,-30.3126
12:57:51.112,-23.5626,-31.0626
12:57:51.122,-24.0001,-33.6251
12:57:51.133,-24.3751,-33.2501
12:57:51.143,-25.1251,-34.1251
12:57:51.151,-25.0626,-35.4376
12:57:51.161,-25.4376,-35.5001
12:57:51.171,-26.0001,-36.6251
12:57:51.181,-25.8751,-37.1876
12:57:51.197,-25.9376,-37.1876
12:57:51.205,-26.5001,-36.8126
12:57:51.212,-25.0626,-37.4376
12:57:51.229,-26.5001,-37.7501
12:57:51.237,-26.1251,-38.7501
12:57:51.241,-27.0001,-38.8126
12:57:51.252,-27.6251,-38.1251
12:57:51.262,-27.5626,-39.5627
12:57:51.271,-28.3751,-37.8751
12:57:51.282,-27.4376,-38.6251
12:57:51.292,-25.8751,-37.8751
12:57:51.302,-26.7501,-37.0626
12:57:51.313,-25.8751,-37.1251
12:57:51.322,-24.9376,-35.8126
12:57:51.332,-25.1251,-34.7501
12:57:51.342,-24.0626,-34.0001
12:57:51.352,-21.3126,-32.1251
12:57:51.363,-19.6251,-30.5001
12:57:51.372,-19.5001,-29.6876
12:57:51.382,-19.3751,-30.1251
12:57:51.392,-19.0001,-27.5001
12:57:51.402,-16.1251,-24.5626
12:57:51.412,-14.2501,-20.3126
12:57:51.422,-10.0625,-15.0626
12:57:51.432,-7.5,-11.125
12:57:51.441,-2.625,-6.3125
12:57:51.452,-0.5625,-2
12:57:51.462,3.4375,3
12:57:51.471,5.6875,6.9375
12:57:51.481,8.625,11.1875
12:57:51.492,10,14.9376
12:57:51.528,12.625,17.0001
12:57:51.530,13.9376,19.0626
12:57:51.533,16.1251,21.5626
12:57:51.535,17.6251,23.2501
12:57:51.567,19.5626,24.5001
12:57:51.568,21.5626,26.1876
12:57:51.570,23.7501,28.0001
12:57:51.574,25.3126,29.8751
12:57:51.604,25.8126,31.7501
12:57:51.605,27.3126,31.8126
12:57:51.608,28.2501,34.0626
12:57:51.614,28.6251,33.4376
12:57:51.641,27.4376,32.2501
12:57:51.643,26.0626,31.4376
12:57:51.646,24.0001,28.9376
12:57:51.679,21.1876,26.8751
12:57:51.682,18.8751,24.3751
12:57:51.684,17.6876,22.5626
12:57:51.689,16.2501,20.5626
12:57:51.694,14.8126,19.5626
12:57:51.702,14.6876,18.2501
12:57:51.712,12.875,16.8126
12:57:51.722,12,15.1876
12:57:51.732,10.375,14.0001
12:57:51.742,8.5,13
12:57:51.752,7.125,10.625
12:57:51.762,6.4375,9
12:57:51.772,5.6875,8.9375
12:57:51.782,4.5625,7.5625
12:57:51.792,4.0625,6.4375
12:57:51.801,3.25,4.4375
12:57:51.813,1.3125,3.0625
12:57:51.822,-0.125,1.3125
12:57:51.831,-1.5625,-1.4375
12:57:51.841,-2.3125,-3.5
12:57:51.852,-4.4375,-5.6875
12:57:51.862,-6.5,-6.875
12:57:51.872,-6.9375,-8.75
12:57:51.886,-7.3125,-10.3125
12:57:51.891,-9,-12.4375
12:57:51.902,-9.0625,-12.25
12:57:51.912,-9.4375,-13.4376
12:57:51.922,-9.75,-15.2501
12:57:51.932,-10.3125,-16.3126
12:57:51.942,-9.5,-16.0001
12:57:51.952,-9.875,-17.3126
12:57:51.962,-12.1875,-19.0001
12:57:51.992,-13.4376,-20.3126
12:57:51.996,-13.9376,-21.8126
12:57:51.997,-14.7501,-21.8751
12:57:52.003,-14.5001,-22.0626
12:57:52.011,-15.5626,-22.8751
12:57:52.022,-15.6251,-23.7501
12:57:52.032,-16.3126,-23.4376
12:57:52.042,-16.3126,-24.1251
12:57:52.052,-15.6251,-24.2501
12:57:52.061,-15.8751,-22.9376
12:57:52.072,-14.7501,-23.6876
12:57:52.082,-15.5626,-21.8126
12:57:52.091,-14.5001,-22.8126
12:57:52.102,-13.6251,-20.6876
12:57:52.112,-12.8125,-21.0626
12:57:52.121,-12.25,-19.5626
12:57:52.132,-11.3125,-19.6251
12:57:52.142,-9.75,-17.9376
12:57:52.152,-10,-18.3126
12:57:52.162,-9.0625,-17.0626
12:57:52.172,-8.5,-16.5001
12:57:52.181,-7.375,-15.8126
12:57:52.191,-6.4375,-15.5001
12:57:52.202,-5.875,-14.2501
12:57:52.239,-4.8125,-14.1251
12:57:52.242,-3.5,-11
12:57:52.244,-0.5,-8.9375
12:57:52.247,1.8125,-4.875
12:57:52.253,5.125,-1.375
12:57:52.286,8.0625,2
12:57:52.288,9.375,5.9375
12:57:52.291,11.875,8.75
12:57:52.316,13.3126,12.1875
12:57:52.317,14.4376,14.2501
12:57:52.320,15.2501,15.5626
12:57:52.325,15.8126,18.1251
12:57:52.334,15.8126,18.1876
12:57:52.412,15.8751,19.8126
12:57:52.413,17.5001,21.0626
12:57:52.426,18.0626,22.5626
12:57:52.431,19.1251,22.7501
12:57:52.432,21.1876,24.2501
12:57:52.433,22.1876,26.9376
12:57:52.433,21.7501,25.8751
12:57:52.438,20.7501,25.6876
12:57:52.447,20.7501,25.7501
12:57:52.457,19.0626,24.5001
12:57:52.467,18.5626,23.5001
12:57:52.476,17.3126,22.1251
12:57:52.487,15.1876,21.9376
12:57:52.496,14.8126,19.2501
12:57:52.513,12.5,17.2501
12:57:52.529,10.6875,15.1251
12:57:52.534,9.5,14.6251
12:57:52.539,9.8125,13
12:57:52.547,9.25,11.5625
12:57:52.557,7,9.75
12:57:52.567,5.4375,6.875
12:57:52.577,4.5625,5.6875
12:57:52.586,2.375,3.3125
12:57:52.596,-2.25,-3.5
12:57:52.607,-3.4375,-4.3125
12:57:52.616,-4.6875,-4.6875
12:57:52.627,-5.875,-6.6875
12:57:52.637,-6.1875,-8.0625
12:57:52.646,-7.6875,-10.1875
12:57:52.657,-9.0625,-10.5
12:57:52.667,-9.875,-10.75
12:57:52.677,-10,-12.75
12:57:52.687,-10.75,-13.9376
12:57:52.697,-11.875,-15.5001
12:57:52.707,-12.5,-16.1251
12:57:52.717,-13,-15.3751
12:57:52.727,-13.4376,-17.3126
12:57:52.738,-14.5626,-19.2501
12:57:52.747,-15.0001,-19.1251
12:57:52.757,-15.6876,-19.8126
12:57:52.767,-16.2501,-20.4376
12:57:52.782,-16.6251,-21.8126
12:57:52.786,-16.5001,-21.3751
12:57:52.798,-17.2501,-22.6251
12:57:52.806,-17.6251,-21.1876
12:57:52.817,-16.2501,-22.8126
12:57:52.828,-16.6876,-22.0626
12:57:52.837,-15.6251,-22.1876
12:57:52.847,-16.0001,-20.5001
12:57:52.856,-15.3751,-20.7501
12:57:52.867,-14.5626,-19.6251
12:57:52.877,-12.1875,-19.8126
12:57:52.887,-11.4375,-17.7501
12:57:52.896,-9.8125,-17.5626
12:57:52.907,-9.4375,-16.3126
12:57:52.917,-9,-17.5626
12:57:52.927,-8.75,-17.9376
12:57:52.937,-8.75,-17.1251
12:57:52.947,-7.75,-18.3126
12:57:52.956,-7.25,-16.9376
12:57:52.982,-7.3125,-17.6876
12:57:52.984,-6.875,-17.5626
12:57:52.988,-6.875,-18.3751
12:57:53.012,-6,-18.1876
12:57:53.013,-6.125,-17.8126
12:57:53.025,-4.625,-17.1251
12:57:53.028,-4.3125,-16.3751
12:57:53.061,-3,-15.0626
12:57:53.063,-2.25,-15.1876
12:57:53.066,-1.5625,-13.0625
12:57:53.096,-0.375,-13.2501
12:57:53.096,0.8125,-11.125
12:57:53.098,1.4375,-9.125
12:57:53.106,2.9375,-6.1875
12:57:53.107,4.3125,-3.6875
12:57:53.145,5.75,-0.625
12:57:53.147,7,1.75
12:57:53.148,8.0625,4.5
12:57:53.151,9.125,6.4375
12:57:53.165,9.1875,7.5625
12:57:53.169,9.375,8.75
12:57:53.178,8.8125,8.4375
12:57:53.186,9.1875,8.9375
12:57:53.196,8.25,9.375
12:57:53.207,8.5625,9.3125
12:57:53.217,8.1875,9.8125
12:57:53.227,7.5625,9.375
12:57:53.237,7.5625,8.1875
12:57:53.247,7.25,8.875
12:57:53.273,6.8125,8.8125
12:57:53.276,6.5625,8.5
12:57:53.278,6.3125,8.625
12:57:53.288,5.375,7.4375
12:57:53.297,4.4375,6.5625
12:57:53.306,2.875,4.875
12:57:53.316,1.8125,4
12:57:53.327,-0.3125,1.375
12:57:53.336,-1.5625,-0.375
12:57:53.346,-2.375,-1.0625
12:57:53.356,-2,-1.6875
12:57:53.367,-2.5,-3.4375
12:57:53.377,-3.375,-4.125
12:57:53.387,-3.125,-4
12:57:53.397,-3.6875,-5.75
12:57:53.407,-4.5,-7.25
12:57:53.416,-5.5625,-7
12:57:53.427,-5.5625,-8.1875
12:57:53.437,-6.25,-10
12:57:53.447,-8.1875,-10.8125
12:57:53.457,-8.4375,-11.625
12:57:53.467,-8.75,-12.3125
12:57:53.476,-8.9375,-13.1251
12:57:53.487,-9.875,-13.8126
12:57:53.497,-10.75,-14.3126
12:57:53.509,-10.875,-15.1251
12:57:53.516,-12.1875,-14.8751
12:57:53.527,-11.6875,-15.8751
12:57:53.538,-12.5,-16.3751
12:57:53.547,-14.8751,-18.6876
12:57:53.557,-15.4376,-19.0626
12:57:53.567,-16.1251,-20.3751
12:57:53.577,-17.3751,-20.7501
12:57:53.587,-17.3126,-21.0626
12:57:53.597,-17.4376,-20.5001
12:57:53.607,-16.1876,-19.8126
12:57:53.617,-15.6251,-18.0626
12:57:53.628,-13.0625,-16.3126
12:57:53.636,-11.375,-14.1876
12:57:53.647,-10.625,-13.1876
12:57:53.657,-8.625,-14.5001
12:57:53.667,-9.3125,-13.7501
12:57:53.677,-10.125,-16.4376
12:57:53.775,-12.0625,-16.9376
12:57:53.777,-13.3751,-19.7501
12:57:53.780,-16.1876,-20.5626
12:57:53.838,-16.0626,-22.6876
12:57:53.838,-16.4376,-21.7501
12:57:53.838,-15.4376,-22.8751
12:57:53.872,-16.0626,-21.2501
12:57:53.888,-14.0626,-21.5001
12:57:53.889,-13.6251,-22.0001
12:57:53.889,-13.6251,-20.6251
12:57:53.889,-13.6251,-21.8751
12:57:53.890,-15.0001,-22.0626
12:57:53.893,-15.2501,-23.5626
12:57:53.901,-16.7501,-25.0626
12:57:53.917,-17.4376,-25.5001
12:57:53.922,-17.8126,-26.5001
12:57:53.932,-19.0001,-25.8751
12:57:53.941,-19.0001,-27.0001
12:57:53.952,-18.5001,-27.7501
12:57:53.962,-18.3751,-26.8751
12:57:53.971,-18.3751,-26.3126
12:57:53.982,-18.3126,-26.9376
12:57:53.992,-14.1876,-24.6876
12:57:54.001,-11.375,-21.5001
12:57:54.011,-9.1875,-17.8126
12:57:54.022,-6,-15.1876
12:57:54.031,-2.3125,-11.625
12:57:54.041,16.5626,10.1875
12:57:54.051,20.1876,13.9376
12:57:54.062,23.3126,16.5001
12:57:54.072,26.5001,18.5001
12:57:54.081,28.3126,20.8126
12:57:54.092,31.2501,22.1876
12:57:54.102,32.8126,23.9376
12:57:54.112,35.8751,24.5626
12:57:54.122,37.1876,25.3126
12:57:54.132,39.5002,27.8126
12:57:54.141,40.8127,27.6251
12:57:54.151,42.1252,29.0626
12:57:54.161,42.1877,27.8126
12:57:54.172,41.9377,28.1876
12:57:54.181,42.0627,26.0001
12:57:54.192,40.8752,26.1251
12:57:54.202,40.3127,24.1876
12:57:54.212,39.8752,22.5001
12:57:54.221,39.4377,21.8751
12:57:54.232,39.5627,20.6251
12:57:54.241,38.0626,18.1876
12:57:54.251,37.5001,17.0001
12:57:54.262,36.6876,16.8126
12:57:54.272,36.6876,15.2501
12:57:54.282,35.2501,13.4376
12:57:54.292,33.9376,11.875
12:57:54.302,32.6876,11.9375
12:57:54.312,32.5626,10.4375
12:57:54.321,31.0001,8.6875
12:57:54.332,29.5626,7.875
12:57:54.341,28.3751,6.75
12:57:54.352,28.3126,5.3125
12:57:54.363,26.8751,4.3125
12:57:54.372,25.6251,3.3125
12:57:54.382,25.0626,2.375
12:57:54.392,23.8126,2.5625
12:57:54.402,23.8126,0.875
12:57:54.412,22.9376,-0.25
12:57:54.422,22.6876,-0.625
12:57:54.431,23.3126,-1
12:57:54.441,22.4376,-2.0625
12:57:54.452,21.8126,-1.9375
12:57:54.462,21.6876,-2.5625
12:57:54.476,21.2501,-3.6875
12:57:54.487,20.6876,-5
12:57:54.520,19.6876,-4.0625
12:57:54.523,19.4376,-6.4375
12:57:54.525,19.0001,-7.625
12:57:54.528,17.6251,-8.8125
12:57:54.553,17.1876,-8.3125
12:57:54.556,17.3126,-9.1875
12:57:54.558,16.3126,-11.125
12:57:54.594,15.1876,-11.3125
12:57:54.596,14.6876,-12.9375
12:57:54.598,13.8126,-13.5626
12:57:54.608,13.4376,-13.5001
12:57:54.621,12.4375,-16.1251
12:57:54.622,11.75,-15.5626
12:57:54.629,12.25,-16.9376
12:57:54.653,11.1875,-16.3751
12:57:54.656,10.9375,-18.4376
12:57:54.669,9.6875,-19.8126
12:57:54.672,9,-19.8126
12:57:54.678,7.75,-21.3751
12:57:54.686,7.0625,-22.6876
12:57:54.696,5.4375,-23.6876
12:57:54.707,5.75,-23.6876
12:57:54.717,5.25,-24.5001
12:57:54.727,4.1875,-24.4376
12:57:54.737,3.5625,-24.0001
12:57:54.746,3.5625,-25.9376
12:57:54.757,2.875,-26.6876
12:57:54.767,1.875,-27.8126
12:57:54.777,1.0625,-28.1876
12:57:54.787,1.125,-29.5001
12:57:54.796,-0.125,-28.9376
12:57:54.807,0.1875,-29.0001
12:57:54.817,0.8125,-29.8751
12:57:54.827,-0.5,-30.4376
12:57:54.837,-0.875,-30.0001
12:57:54.846,-0.5,-30.6251
12:57:54.857,-0.4375,-30.6876
12:57:54.867,0.0625,-29.3126
12:57:54.877,1.25,-27.2501
12:57:54.887,3,-25.9376
12:57:54.896,4.3125,-23.1876
12:57:54.907,6.4375,-18.5626
12:57:54.916,8.625,-15.6876
12:57:54.927,9.4375,-12.75
12:57:54.937,10.375,-9.75
12:57:54.946,11.25,-7.5
12:57:54.956,11.875,-3.9375
12:57:54.966,13.4376,-2.4375
12:57:54.977,14.0001,-1.0625
12:57:54.987,14.6876,1.3125
12:57:54.997,14.5626,1.75
12:57:55.007,15.6251,3.75
12:57:55.021,16.3126,4.25
12:57:55.037,16.5001,5.375
12:57:55.041,16.7501,7.125
12:57:55.047,17.6251,7.4375
12:57:55.057,17.5626,7.625
12:57:55.067,18.6876,10.125
12:57:55.077,19.0626,10.4375
12:57:55.086,19.3751,11.875
12:57:55.096,20.4376,12.5
12:57:55.106,20.0626,11.75
12:57:55.117,18.8751,12.625
12:57:55.127,19.1251,10.5625
12:57:55.137,18.3751,9.75
12:57:55.155,18.3126,10.4375
12:57:55.158,17.5001,8.9375
12:57:55.173,16.7501,7.125
12:57:55.177,16.2501,7.5
12:57:55.187,16.0001,7.1875
12:57:55.197,15.8751,7.1875
12:57:55.207,15.5001,7.25
12:57:55.222,15.6251,6.0625
12:57:55.228,15.1251,6.6875
12:57:55.256,14.5001,7.125
12:57:55.258,15.2501,5.625
12:57:55.260,14.6876,5.5
12:57:55.267,13.5626,5.25
12:57:55.282,13.8126,4.9375
12:57:55.287,14.3751,4.8125
12:57:55.313,14.0626,3.75
12:57:55.316,13.5626,3.6875
12:57:55.318,13.8126,4.1875
12:57:55.358,13.6876,3.75
12:57:55.363,14.5626,3.5625
12:57:55.363,14.4376,2.5625
12:57:55.364,13.9376,1.875
12:57:55.373,14.5626,3.0625
12:57:55.377,15.4376,1.9375
12:57:55.394,15.2501,1.3125
12:57:55.396,14.6876,2.1875
12:57:55.407,15.0626,1.625
12:57:55.419,15.1251,0.0625
12:57:55.429,14.1251,-1.3125
12:57:55.436,13.3751,-1
12:57:55.446,13.3126,-1.625
12:57:55.456,12.625,-2.625
12:57:55.466,12.375,-4.1875
12:57:55.476,11.375,-3.8125
12:57:55.487,11.0625,-4.125
12:57:55.496,10.875,-5.875
12:57:55.507,10.1875,-6.5625
12:57:55.517,9,-7.625
12:57:55.526,8.5625,-8
12:57:55.537,8.6875,-8.0625
12:57:55.546,8.25,-9.5
12:57:55.556,7.625,-9.9375
12:57:55.566,7.125,-9.3125
12:57:55.576,7.3125,-10.25
12:57:55.587,6.8125,-11.0625
12:57:55.596,5.875,-12.25
12:57:55.607,4.875,-12.375
12:57:55.617,5.5625,-13.0625
12:57:55.626,4.5625,-13.3751
12:57:55.637,5.625,-13.5626
12:57:55.647,4.1875,-14.8126
12:57:55.657,3.8125,-13.8126
12:57:55.668,4.5625,-15.1876
12:57:55.676,4.5625,-12.875
12:57:55.687,5.5,-13.1251
12:57:55.697,6.75,-11.25
12:57:55.707,7.9375,-8.1875
12:57:55.717,10.6875,-5.375
12:57:55.726,12.125,-2.5
12:57:55.737,12.9375,1.125
12:57:55.747,14.9376,4.0625
12:57:55.757,16.4376,6.125
12:57:55.766,18.1876,8.8125
12:57:55.777,18.6876,10.25
12:57:55.787,18.9376,12.25
12:57:55.801,20.6876,13.3126
12:57:55.808,20.0001,14.3126
12:57:55.835,19.6876,15.4376
12:57:55.836,21.0001,15.7501
12:57:55.839,20.5626,17.3126
12:57:55.847,21.0626,17.3751
12:57:55.856,21.2501,17.3126
12:57:55.866,20.6251,18.6251
12:57:55.876,21.8751,18.9376
12:57:55.911,20.7501,19.0001
12:57:55.913,20.4376,18.3751
12:57:55.915,20.3751,19.3751
12:57:55.918,20.0626,18.2501
12:57:55.953,19.1251,16.9376
12:57:55.956,18.9376,17.3126
12:57:55.957,18.2501,16.8126
12:57:55.960,18.4376,15.7501
12:57:55.987,17.8126,15.0001
12:57:55.989,17.6251,14.1876
12:57:55.992,17.4376,13.5001
12:57:55.998,16.6876,13.2501
12:57:56.027,16.8751,13.6251
12:57:56.029,16.8126,12.625
12:57:56.032,15.7501,11.875
12:57:56.061,15.6876,11.75
12:57:56.062,15.5001,12.5
12:57:56.066,15.9376,11.9375
12:57:56.071,15.5001,11.25
12:57:56.078,15.2501,10.375
12:57:56.086,14.7501,10.5
12:57:56.097,14.8126,10.0625
12:57:56.107,14.3751,10.1875
12:57:56.117,14.8126,8.3125
12:57:56.127,13.6876,8
12:57:56.137,13.1876,7.8125
12:57:56.146,13.125,6.5625
12:57:56.156,12.5,5.4375
12:57:56.166,12.0625,5.0625
12:57:56.176,11.375,4.25
12:57:56.187,10.9375,3.25
12:57:56.197,11.0625,2.0625
12:57:56.206,11.125,1.125
12:57:56.216,10.0625,0.5625
12:57:56.227,9.75,0.3125
12:57:56.238,10.0625,-0.375
12:57:56.246,9.4375,-1.8125
12:57:56.257,9.25,-2.4375
12:57:56.266,8.125,-2.75
12:57:56.276,8.4375,-3.5625
12:57:56.287,8,-4.25
12:57:56.296,7.5,-6
12:57:56.316,6.8125,-5.375
12:57:56.323,6.8125,-6.0625
12:57:56.338,6.8125,-7.375
12:57:56.341,6.375,-8.25
12:57:56.347,5.875,-7.875
12:57:56.357,6,-8.3125
12:57:56.366,5.6875,-9.25
12:57:56.376,5.6875,-10.375
12:57:56.387,5.1875,-10.8125
12:57:56.397,5.375,-11.4375
12:57:56.407,5.6875,-10.6875
12:57:56.416,5.5,-11.5625
12:57:56.427,4.6875,-12.1875
12:57:56.436,5.4375,-11.9375
12:57:56.452,5.625,-12.6875
12:57:56.468,5.1875,-11.9375
12:57:56.471,5.5625,-13.6876
12:57:56.477,5.25,-14.3126
12:57:56.487,5.875,-13.8126
12:57:56.497,7,-13.0625
12:57:56.506,7.4375,-11.625
12:57:56.517,8.5625,-9.25
12:57:56.527,11,-7.5625
12:57:56.537,11.875,-4.6875
12:57:56.549,14.4376,0.0625
12:57:56.559,16.6251,2.5
12:57:56.567,18.3126,6.4375
12:57:56.577,20.0626,8.75
12:57:56.587,20.6251,11.875
12:57:56.597,22.0001,14.5001
12:57:56.606,22.3126,15.5001
12:57:56.617,23.3126,18.3126
12:57:56.627,24.0626,20.1876
12:57:56.638,24.2501,19.9376
12:57:56.673,24.7501,21.6251
12:57:56.673,25.0626,22.6251
12:57:56.676,25.7501,23.2501
12:57:56.678,25.5001,25.6876
12:57:56.713,26.1251,25.1251
12:57:56.714,26.4376,25.6251
12:57:56.717,26.2501,27.0626
12:57:56.719,27.0626,28.3126
12:57:56.751,27.0001,28.1876
12:57:56.753,26.8751,27.3126
12:57:56.756,26.1876,27.9376
12:57:56.760,25.8126,28.5001
12:57:56.798,25.8751,26.8751
12:57:56.799,24.5626,25.5001
12:57:56.803,24.3751,25.9376
12:57:56.804,24.7501,24.8126
12:57:56.806,24.0626,23.6876
12:57:56.825,23.0001,22.9376
12:57:56.828,22.8126,23.5626
12:57:56.837,22.5001,22.2501
12:57:56.847,22.3126,22.0626
12:57:56.857,22.1251,21.2501
12:57:56.867,21.5001,21.2501
12:57:56.876,22.0626,20.8751
12:57:56.887,21.1876,19.8126
12:57:56.897,21.4376,19.5626
12:57:56.908,21.3126,19.7501
12:57:56.917,20.5626,19.5001
12:57:56.927,20.5626,18.6251
12:57:56.937,20.3751,17.4376
12:57:56.946,19.7501,16.6251
12:57:56.957,18.6876,16.6251
12:57:56.967,18.6251,15.3751
12:57:56.977,18.0001,14.1251
12:57:56.987,17.7501,13.9376
12:57:56.997,17.3126,12.125
12:57:57.007,15.9376,11.5
12:57:57.017,15.5626,10.9375
12:57:57.027,15.3751,9.375
12:57:57.037,14.3751,8.25
12:57:57.046,13.7501,8.0625
12:57:57.057,13.2501,6.6875
12:57:57.066,12.5,5.125
12:57:57.076,11.5625,4.8125
12:57:57.087,11.375,3.6875
12:57:57.112,11.125,2.5
12:57:57.115,9.8125,2.0625
12:57:57.117,9.6875,1.6875
12:57:57.129,9.0625,-0.1875
12:57:57.137,8.5625,-0.875
12:57:57.147,7.1875,-2.1875
12:57:57.156,7.3125,-1.5
12:57:57.167,7.0625,-2.375
12:57:57.177,6.9375,-3.8125
12:57:57.187,6.3125,-5.25
12:57:57.198,5.125,-6.25
12:57:57.207,4.6875,-6.0625
12:57:57.217,3.8125,-6.25
12:57:57.227,4.1875,-7.8125
12:57:57.236,3.625,-8.9375
12:57:57.248,2.875,-9.1875
12:57:57.256,2.5,-8.8125
12:57:57.266,2.625,-10.5625
12:57:57.277,2,-11.9375
12:57:57.286,2.4375,-10.75
12:57:57.299,1.8125,-12.1875
12:57:57.310,1.6875,-12.8125
12:57:57.317,1.6875,-13.5001
12:57:57.329,0.4375,-13.9376
12:57:57.337,0.5625,-14.8126
12:57:57.347,0.875,-15.3751
12:57:57.387,-0.125,-14.3126
12:57:57.387,0.875,-14.3751
12:57:57.387,1.25,-13.7501
12:57:57.395,2.1875,-10.5
12:57:57.406,3.75,-8.5
12:57:57.412,5.3125,-5.3125
12:57:57.416,6.75,-1.5625
12:57:57.453,9.4375,1.5
12:57:57.454,10.5625,4.5625
12:57:57.456,12.0625,8.375
12:57:57.487,13.5626,10.4375
12:57:57.488,14.1876,12.9375
12:57:57.490,15.1876,15.5001
12:57:57.497,16.8126,16.3126
12:57:57.498,16.8751,17.1876
12:57:57.506,17.4376,20.3751
12:57:57.540,18.0626,20.5001
12:57:57.542,18.6251,22.3126
12:57:57.545,18.9376,24.0001
12:57:57.547,19.8751,23.7501
12:57:57.557,20.2501,23.9376
12:57:57.567,20.5626,26.0626
12:57:57.577,20.0001,25.1251
12:57:57.587,20.4376,27.4376
12:57:57.597,21.3126,27.5001
12:57:57.618,20.4376,27.4376
12:57:57.621,19.7501,27.6876
12:57:57.635,20.2501,27.3751
12:57:57.638,19.2501,25.1251
12:57:57.647,18.7501,24.7501
12:57:57.656,18.3126,24.6251
12:57:57.667,17.9376,24.3126
12:57:57.677,16.8751,22.1251
12:57:57.686,16.6251,22.8751
12:57:57.696,16.6251,22.6251
12:57:57.707,16.0001,21.0001
12:57:57.716,16.0001,20.5626
12:57:57.726,16.0626,21.0626
12:57:57.748,15.7501,19.6251
12:57:57.751,15.0626,19.1876
12:57:57.765,14.5626,19.5626
12:57:57.769,15.3126,19.2501
12:57:57.778,15.5001,18.0001
12:57:57.787,14.3126,17.3126
12:57:57.797,13.7501,16.8126
12:57:57.807,13.5626,16.5001
12:57:57.816,13.5626,14.9376
12:57:57.827,12.5,14.9376
12:57:57.837,13.5626,14.2501
12:57:57.848,12.25,12.625
12:57:57.856,11.3125,11.8125
12:57:57.867,10.625,11.6875
12:57:57.877,10.875,10.5625
12:57:57.887,9.5625,8.5625
12:57:57.897,9.125,8.4375
12:57:57.907,8.0625,7.6875
12:57:57.917,7.9375,7.375
12:57:57.927,7.875,5.9375
12:57:57.936,7.1875,4.125
12:57:57.947,7.0625,5.125
12:57:57.956,7.1875,3.125
12:57:57.967,5.6875,1.6875
12:57:57.976,5.8125,1.8125
12:57:57.987,5.375,1.5625
12:57:57.997,4.75,-0.3125
12:57:58.007,4.6875,-1.0625
12:57:58.018,3.9375,-1.625
12:57:58.027,3.25,-3
12:57:58.037,3.0625,-3.5625
12:57:58.052,2.625,-3.9375
12:57:58.056,2.5,-5.6875
12:57:58.067,2,-5.25
12:57:58.077,1.875,-6.125
12:57:58.087,1.1875,-7.375
12:57:58.097,0.75,-7.375
12:57:58.132,0.1875,-7.8125
12:57:58.135,0.25,-9.1875
12:57:58.138,-0.8125,-10.375
12:57:58.140,-0.75,-10.9375
12:57:58.147,-0.9375,-10.8125
12:57:58.175,-1.3125,-12
12:57:58.179,-1.875,-12
12:57:58.181,-2.625,-13.6876
12:57:58.209,-2.6875,-14.7501
12:57:58.210,-2.1875,-15.0626
12:57:58.213,-3.1875,-15.4376
12:57:58.219,-2.9375,-16.2501
12:57:58.252,-4.0625,-16.8126
12:57:58.253,-3.4375,-17.0626
12:57:58.255,-4.375,-17.8751
12:57:58.282,-4.6875,-17.2501
12:57:58.283,-3.8125,-17.5626
12:57:58.287,-3.125,-16.8126
12:57:58.292,-2.25,-14.8751
12:57:58.297,-0.25,-12.75
12:57:58.306,1.25,-9.625
12:57:58.317,3.3125,-6
12:57:58.327,4.625,-2.5
12:57:58.337,6.8125,1.25
12:57:58.347,8.125,4.5
12:57:58.357,10.375,7.25
12:57:58.366,11.125,10.1875
12:57:58.393,12.375,12.5625
12:57:58.394,12.9375,14.1876
12:57:58.397,13.6876,15.4376
12:57:58.407,14.5626,16.8126
12:57:58.417,14.0626,18.8126
12:57:58.427,14.8126,18.9376
12:57:58.436,15.4376,20.2501
12:57:58.447,15.3751,20.5001
12:57:58.457,15.7501,21.6876
12:57:58.467,15.7501,22.5001
12:57:58.482,16.4376,22.2501
12:57:58.492,17.5001,24.5626
12:57:58.502,17.1876,24.5001
12:57:58.512,17.1251,24.8751
12:57:58.522,17.1876,24.4376
12:57:58.532,16.5626,23.6876
12:57:58.542,16.0626,23.3751
12:57:58.552,15.4376,23.9376
12:57:58.562,15.3751,22.1876
12:57:58.572,15.2501,21.3751
12:57:58.582,13.8751,20.2501
12:57:58.591,13.5626,19.3126
12:57:58.602,12.875,19.8751
12:57:58.611,13.3126,19.0001
12:57:58.621,12.875,17.2501
12:57:58.631,11.875,17.3126
12:57:58.641,12.9375,18.8126
12:57:58.652,13.2501,17.0626
12:57:58.662,12.5625,16.7501
12:57:58.672,12.25,16.8751
12:57:58.681,11.6875,15.4376
12:57:58.692,11,15.1876
12:57:58.701,11.5625,14.6251
12:57:58.711,10.5,13.2501
12:57:58.723,10.125,13.3751
12:57:58.732,10.25,12.375
12:57:58.742,9.1875,10.9375
12:57:58.751,8.9375,10.3125
12:57:58.762,8.0625,10.4375
12:57:58.772,7.75,8.625
12:57:58.782,6.8125,6.9375
12:57:58.792,6.875,7
12:57:58.802,6.4375,5.3125
12:57:58.814,5.75,5.25
12:57:58.823,6.1875,4.625
12:57:58.832,5.0625,2.875
12:57:58.842,3.9375,1.5
12:57:58.866,4.25,1.75
12:57:58.869,3.6875,0.625
12:57:58.872,2.8125,-0.375
12:57:58.886,2,-0.0625
12:57:58.891,2.4375,-1.8125
12:57:58.962,1.125,-4
12:57:58.965,0.5,-3.4375
12:57:58.965,1.3125,-4.8125
12:57:58.965,0,-5.6875
12:57:58.968,-1.0625,-5.3125
12:57:59.005,-0.1875,-6.5
12:57:59.007,-1.625,-7.9375
12:57:59.007,-2.3125,-8.25
12:57:59.009,-2.1875,-9.375
12:57:59.012,-2,-10.3125
12:57:59.017,-2.5,-9.875
12:57:59.017,-3.0625,-10.625
12:57:59.021,-3.125,-11.4375
12:57:59.033,-3.375,-12.9375
12:57:59.046,-4.1875,-13.2501
12:57:59.061,-4.75,-14.1876
12:57:59.064,-5.1875,-15.5626
12:57:59.072,-5.25,-15.0001
12:57:59.081,-5.3125,-16.3126
12:57:59.091,-5.8125,-17.2501
12:57:59.101,-6.6875,-17.0001
12:57:59.112,-6.75,-18.1876
12:57:59.121,-7.1875,-19.4376
12:57:59.132,-7.625,-19.5001
12:57:59.141,-8.25,-18.8751
12:57:59.152,-7.9375,-20.3126
12:57:59.162,-7.625,-21.0001
12:57:59.178,-7.375,-19.7501
12:57:59.181,-5.875,-18.3751
12:57:59.193,-5.125,-16.1876
12:57:59.202,-3.75,-13
12:57:59.211,-1.75,-10.6875
12:57:59.222,0.25,-7.1875
12:57:59.232,1.625,-3.1875
12:57:59.241,3.4375,0.375
12:57:59.252,5.125,2.125
12:57:59.261,6.75,5.8125
12:57:59.272,7.625,6.9375
12:57:59.281,7.9375,9.25
12:57:59.292,8.625,10.75
12:57:59.301,9.1875,12
12:57:59.312,9.8125,13.2501
12:57:59.321,10.3125,13.8751
12:57:59.332,10.5625,15.4376
12:57:59.342,10.5625,14.9376
12:57:59.351,11.125,16.9376
12:57:59.361,11.5625,16.0001
12:57:59.372,11.8125,18.1251
12:57:59.382,11.75,17.1251
12:57:59.392,12.0625,17.3751
12:57:59.402,12.75,17.6876
12:57:59.413,11.75,17.4376
12:57:59.421,10.875,17.5001
12:57:59.432,10.875,16.8751
12:57:59.442,10.8125,15.5626
12:57:59.452,9.6875,15.0626
12:57:59.463,8.875,15.3126
12:57:59.473,9.4375,14.5001
12:57:59.482,9.375,13.5001
12:57:59.491,8.9375,13.0625
12:57:59.503,8.25,14.8126
12:57:59.512,8.125,13.125
12:57:59.522,8.5,11.9375
12:57:59.531,7.375,11.5625
12:57:59.541,7.3125,12.4375
12:57:59.553,7.4375,11.8125
12:57:59.561,8.1875,10.6875
12:57:59.571,6.8125,9.5625
12:57:59.589,6.25,10.375
12:57:59.591,6.1875,10.0625
12:57:59.621,6.5625,9.1875
12:57:59.622,5.4375,7.3125
12:57:59.624,4.875,7.9375
12:57:59.634,4.5625,7.3125
12:57:59.665,4.625,5.3125
12:57:59.668,3.5625,4.5625
12:57:59.672,2.375,5.0625
12:57:59.686,3.375,3
12:57:59.687,2.625,2.375
12:57:59.692,1.9375,2.375
12:57:59.730,1.5625,0.6875
12:57:59.732,1.1875,0.125
12:57:59.737,0.75,-0.1875
12:57:59.738,0.8125,-2.0625
12:57:59.742,0.125,-3.125
12:57:59.764,-0.75,-2.375
12:57:59.766,0.0625,-3.75
12:57:59.774,-1.125,-4.875
12:57:59.782,-1.25,-3.9375
12:57:59.792,-1.6875,-5.375
12:57:59.802,-1.9375,-6.5
12:57:59.813,-2.25,-6.5625
12:57:59.822,-2.25,-7.4375
12:57:59.832,-2.875,-8.75
12:57:59.842,-3.375,-8.875
12:57:59.852,-2.9375,-8.5625
12:57:59.863,-2.6875,-9.8125
12:57:59.872,-3.5625,-10.875
12:57:59.881,-4.5,-10.9375
12:57:59.892,-4.4375,-11.0625
12:57:59.902,-4.5625,-12.4375
12:57:59.912,-5.125,-12.4375
12:57:59.925,-5.4375,-13.8751
12:57:59.932,-5.25,-14.3126
12:57:59.940,-6.0625,-14.7501
12:57:59.951,-6.3125,-14.8751
12:57:59.962,-6.1875,-16.2501
12:57:59.972,-6.6875,-15.3751
12:57:59.981,-6.1875,-15.0626
12:57:59.991,-5.5,-14.3751
12:58:00.003,-3.875,-12.3125
12:58:00.012,-2.9375,-10.125
12:58:00.021,-1.5625,-7.0625
12:58:00.032,0.5625,-4.0625
12:58:00.041,2.0625,-1.125
12:58:00.051,3.6875,2.1875
12:58:00.062,5.5,4.75
12:58:00.070,6.3125,6.9375
12:58:00.082,7.375,9.625
12:58:00.091,8.3125,11.0625
12:58:00.102,9.1875,12.125
12:58:00.112,9.625,12.9375
12:58:00.121,9.875,14.6251
12:58:00.130,10.125,14.0001
12:58:00.142,10.25,15.5626
12:58:00.152,10,16.0626
12:58:00.162,10.6875,16.0626
12:58:00.172,10.75,16.5626
12:58:00.182,10.8125,16.5626
12:58:00.191,10.3125,16.7501
12:58:00.211,9.875,16.9376
12:58:00.217,10.3125,15.4376
12:58:00.232,8.9375,17.0001
12:58:00.234,8.375,14.5001
12:58:00.242,7.875,12.75
12:58:00.252,7.0625,13.4376
12:58:00.262,7.25,11.6875
12:58:00.271,6.125,10.6875
12:58:00.281,5.5625,11.625
12:58:00.292,6.125,10.5625
12:58:00.303,5.9375,10
12:58:00.312,4.9375,9.875
12:58:00.322,5,10
12:58:00.345,5.125,9.0625
12:58:00.379,5.125,8.0625
12:58:00.382,4.5625,8.1875
12:58:00.389,4.3125,8.3125
12:58:00.390,4.3125,7.9375
12:58:00.420,4.9375,7.1875
12:58:00.420,3.9375,6
12:58:00.421,4,5.1875
12:58:00.423,3.5625,5.4375
12:58:00.430,3.125,3.5625
12:58:00.433,2.3125,3.625
12:58:00.443,2.25,3.5
12:58:00.470,2.5,1.625
12:58:00.472,1.375,0.0625
12:58:00.474,1.5,0.75
12:58:00.506,1.0625,0.4375
12:58:00.507,1,-1.5
12:58:00.509,0.1875,-2.1875
12:58:00.512,-0.4375,-3.125
12:58:00.524,-1.3125,-4.75
12:58:00.531,-1.375,-4.0625
12:58:00.542,-2.25,-5.125
12:58:00.551,-2.75,-7.3125
12:58:00.562,-3.5,-7.75
12:58:00.572,-4.6875,-8.8125
12:58:00.582,-5.25,-9.1875
12:58:00.592,-5.1875,-10.8125
12:58:00.601,-5.8125,-11.8125
12:58:00.611,-6.3125,-12
12:58:00.622,-6.125,-11.9375
12:58:00.631,-5.5,-12.4375
12:58:00.640,-6.25,-14.2501
12:58:00.652,-6.5625,-14.9376
12:58:00.661,-6.6875,-14.6876
12:58:00.678,-7.3125,-15.5626
12:58:00.681,-7.875,-16.1876
12:58:00.692,-7.5625,-16.5626
12:58:00.702,-8,-17.5001
12:58:00.712,-7.4375,-16.9376
12:58:00.720,-7.875,-18.6251
12:58:00.732,-8.3125,-18.1251
12:58:00.742,-8.375,-19.1251
12:58:00.751,-7.375,-19.0001
12:58:00.761,-7.75,-19.1876
12:58:00.771,-7.5,-17.6876
12:58:00.782,-5.6875,-16.5001
12:58:00.791,-5.125,-14.6251
12:58:00.802,-2.75,-11
12:58:00.811,-1.625,-7.4375
12:58:00.822,1,-4.1875
12:58:00.832,2.6875,-0.3125
12:58:00.840,4.9375,3.5
12:58:00.852,6.3125,6
12:58:00.862,7.625,8.875
12:58:00.871,9,10.9375
12:58:00.881,10.0625,12.5
12:58:00.892,10.5,14.3751
12:58:00.902,12.125,15.8126
12:58:00.912,11.5,16.5001
12:58:00.922,11.5625,18.5626
12:58:00.953,11.875,18.7501
12:58:00.954,12.5,18.6876
12:58:00.957,12.8125,21.0626
12:58:00.962,13.3751,21.1876
12:58:00.971,13.5626,21.8751
12:58:00.982,13.9376,22.1251
12:58:00.992,13.8126,23.0626
12:58:01.004,14.5626,22.9376
12:58:01.040,13.6876,22.7501
12:58:01.042,12.9375,22.2501
12:58:01.044,12.75,22.6251
12:58:01.047,12.5,20.7501
12:58:01.054,10.875,19.4376
12:58:01.077,10.5625,18.3751
12:58:01.080,10,19.1251
12:58:01.082,10.4375,17.0626
12:58:01.113,9.875,16.6251
12:58:01.116,9.1875,15.6876
12:58:01.119,8.9375,16.5626
12:58:01.124,9.5,15.6251
12:58:01.164,8.625,14.8751
12:58:01.166,8.125,15.2501
12:58:01.168,8.8125,15.2501
12:58:01.190,8.1875,13.5001
12:58:01.190,7.1875,12.625
12:58:01.190,6.625,13.1876
12:58:01.191,6.75,12.5
12:58:01.202,6.8125,11.1875
12:58:01.212,5.6875,9.875
12:58:01.220,5.5625,10.5
12:58:01.231,5.3125,9.125
12:58:01.242,4.5625,7.5625
12:58:01.252,4.3125,7.5625
12:58:01.260,4.1875,6.5625
12:58:01.272,3.4375,4.9375
12:58:01.283,2.25,5.4375
12:58:01.292,2.5,4.8125
12:58:01.302,2.5625,2.5625
12:58:01.310,1.9375,1.4375
12:58:01.322,1.5625,0.75
12:58:01.332,0.5,-0.1875
12:58:01.342,-0.3125,0.375
12:58:01.352,-0.3125,-1.375
12:58:01.360,-0.75,-3.4375
12:58:01.371,-0.5625,-2.8125
12:58:01.381,-0.125,-3.6875
12:58:01.391,-1.1875,-4.4375
12:58:01.402,-1.625,-6.125
12:58:01.410,-2.125,-5.5625
12:58:01.421,-1.9375,-7.125
12:58:01.431,-2.625,-7.8125
12:58:01.441,-3.3125,-8
12:58:01.453,-3.3125,-8.625
12:58:01.462,-3,-9.25
12:58:01.470,-3.875,-10.1875
12:58:01.481,-4.625,-11.375
12:58:01.491,-5.125,-11.4375
12:58:01.511,-5.8125,-13
12:58:01.517,-6.6875,-14.4376
12:58:01.525,-6.25,-14.2501
12:58:01.532,-7.875,-15.3126
12:58:01.550,-7.75,-16.4376
12:58:01.552,-8.4375,-17.0626
12:58:01.567,-9.125,-17.5001
12:58:01.572,-8.9375,-17.2501
12:58:01.580,-8,-15.6251
12:58:01.590,-7.125,-15.3126
12:58:01.602,-6.4375,-11.5
12:58:01.610,-5.0625,-9.25
12:58:01.621,-2.625,-5.625
12:58:01.636,-0.5,-2.5625
12:58:01.645,1.1875,2.3125
12:58:01.652,3.625,5
12:58:01.670,4.5,8.5625
12:58:01.672,6.5625,11.3125
12:58:01.686,7.375,13.0625
12:58:01.691,8.25,16.4376
12:58:01.700,9.4375,16.7501
12:58:01.719,10.4375,17.5001
12:58:01.747,11.1875,19.6251
12:58:01.750,11.0625,21.1251
12:58:01.751,12.25,21.6876
12:58:01.757,11.875,22.5626
12:58:01.785,12.5,24.9376
12:58:01.790,13.9376,24.5626
12:58:01.791,13.8751,26.6876
12:58:01.797,14.6251,26.9376
12:58:01.839,15.0626,26.5626
12:58:01.841,14.6251,27.9376
12:58:01.842,15.5001,27.6876
12:58:01.846,15.0001,27.1251
12:58:01.850,14.5626,26.0001
12:58:01.860,13.3126,25.2501
12:58:01.894,13,25.0001
12:58:01.895,12.875,23.1876
12:58:01.898,12,22.5626
12:58:01.900,11.6875,22.3126
12:58:01.909,11.5,22.2501
12:58:01.922,11.6875,20.8751
12:58:01.928,11.6875,20.7501
12:58:01.938,11.0625,20.1251
12:58:01.947,11.125,20.9376
12:58:01.955,11.0625,19.7501
12:58:01.966,11.125,18.1876
12:58:01.977,10.25,18.5001
12:58:01.986,10.5625,18.1251
12:58:01.997,10.9375,17.3751
12:58:02.006,9.9375,16.1876
12:58:02.017,8.9375,15.5626
12:58:02.027,8.875,15.3751
12:58:02.035,8.375,14.3751
12:58:02.047,8.125,12.8125
12:58:02.057,7.625,11.875
12:58:02.065,6.4375,12.25
12:58:02.077,6.625,10.375
12:58:02.087,6.125,8.875
12:58:02.098,5.25,9.0625
12:58:02.107,4.625,8.5625
12:58:02.115,4.9375,6.5
12:58:02.126,4.1875,5.125
12:58:02.136,3.375,4.25
12:58:02.147,3.125,3.9375
12:58:02.155,2.6875,2.5
12:58:02.167,1.9375,1.5
12:58:02.177,1.375,0.875
12:58:02.186,0.5,0.375
12:58:02.197,0.9375,-1.3125
12:58:02.206,0.3125,-1.5625
12:58:02.232,0.0625,-2.125
12:58:02.234,-0.3125,-3.8125
12:58:02.237,-1.0625,-4.125
12:58:02.248,-1.8125,-4.25
12:58:02.255,-1.0625,-5.5
12:58:02.267,-2.1875,-6.875
12:58:02.277,-2.375,-7.75
12:58:02.288,-2.6875,-7.4375
12:58:02.297,-2.375,-7.625
12:58:02.309,-2.8125,-8.875
12:58:02.320,-3.25,-10.5625
12:58:02.326,-4,-9.6875
12:58:02.338,-4.25,-10.1875
12:58:02.346,-4.25,-11.625
12:58:02.356,-5.3125,-11.75
12:58:02.365,-5.4375,-12.8125
12:58:02.377,-5.25,-13.3751
12:58:02.385,-5.5,-13.2501
12:58:02.397,-5.0625,-12.75
12:58:02.405,-4,-10.375
12:58:02.417,-2.375,-9.625
12:58:02.425,-1.25,-6.625
12:58:02.437,1,-2.8125
12:58:02.446,2.5625,0.0625
12:58:02.456,5,4.1875
12:58:02.466,6.5625,7.0625
12:58:02.477,8.375,10.875
12:58:02.491,9.9375,13.2501
12:58:02.500,10.1875,15.7501
12:58:02.530,11.0625,17.2501
12:58:02.534,12,19.1251
12:58:02.536,12.1875,19.3751
12:58:02.542,12.875,21.5626
12:58:02.573,13.0625,21.6876
12:58:02.573,13.5626,22.8126
12:58:02.577,13.6251,23.3126
12:58:02.582,14.0001,25.1251
12:58:02.624,14.9376,25.6251
12:58:02.625,14.6876,26.2501
12:58:02.628,14.8126,27.6876
12:58:02.661,15.6251,26.8751
12:58:02.661,15.2501,26.6876
12:58:02.661,15.0001,26.8751
12:58:02.663,14.4376,27.3751
12:58:02.671,14.5626,25.6251
12:58:02.672,13.7501,23.3126
12:58:02.700,13.5001,24.4376
12:58:02.701,13,23.4376
12:58:02.703,12.9375,21.8751
12:58:02.712,11.75,20.8126
12:58:02.722,12.1875,21.5001
12:58:02.731,12.5,20.3751
12:58:02.743,11.125,19.3751
12:58:02.751,10.625,20.1876
12:58:02.762,10.75,18.8751
12:58:02.772,10.5,18.1251
12:58:02.781,9.6875,17.3126
12:58:02.790,9.5625,15.8126
12:58:02.802,9.875,16.6876
12:58:02.811,9.125,15.1251
12:58:02.822,8.625,13.6876
12:58:02.836,7.9375,13.3751
12:58:02.843,7.5,13.1251
12:58:02.854,7.3125,11.75
12:58:02.867,6,10.75
12:58:02.883,5.625,9.9375
12:58:02.886,5.125,8.0625
12:58:02.892,4.375,6.625
12:58:02.902,3.875,6.5625
12:58:02.910,3.4375,5.375
12:58:02.921,2.8125,3.375
12:58:02.930,1.8125,3.625
12:58:02.940,1.875,2.125
12:58:02.956,1.25,0.5625
12:58:02.963,0.25,0.8125
12:58:02.970,0.125,-1.0625
12:58:02.987,-0.1875,-2.375
12:58:02.995,-1.0625,-3.4375
12:58:03.002,-1.5625,-3.0625
12:58:03.011,-2.3125,-4.1875
12:58:03.020,-1.9375,-5.25
12:58:03.032,-2.125,-6.375
12:58:03.040,-3.3125,-7.3125
12:58:03.052,-3.75,-7.875
12:58:03.061,-4.375,-7.875
12:58:03.073,-3.625,-9.4375
12:58:03.080,-4.4375,-10.625
12:58:03.092,-5.0625,-11.9375
12:58:03.103,-5.5625,-12.5625
12:58:03.112,-6.125,-11.5625
12:58:03.120,-6.25,-13.0625
12:58:03.131,-6.5,-14.5001
12:58:03.140,-7.4375,-15.0626
12:58:03.152,-8.0625,-16.1876
12:58:03.161,-8.125,-16.8751
12:58:03.172,-8.4375,-17.8751
12:58:03.181,-8.875,-19.1251
12:58:03.192,-9.5,-18.8126
12:58:03.201,-8.875,-19.1876
12:58:03.211,-9.5,-18.6876
12:58:03.222,-9.125,-19.3751
12:58:03.249,-8.75,-17.6876
12:58:03.252,-7.125,-16.3126
12:58:03.254,-6.1875,-12.875
12:58:03.260,-3.5625,-10.875
12:58:03.295,-3,-6.5625
12:58:03.297,-0.3125,-4.25
12:58:03.303,0.75,-0.5625
12:58:03.303,3.125,1.3125
12:58:03.332,3.625,4.375
12:58:03.334,4.5625,6
12:58:03.339,5.5,7.4375
12:58:03.360,5.9375,8.3125
12:58:03.361,5.5625,10.375
12:58:03.364,7.1875,10.5
12:58:03.370,6.625,10.625
12:58:03.415,7.1875,12.5625
12:58:03.416,7.5,12.9375
12:58:03.418,7.75,12.8125
12:58:03.421,8,15.0626
12:58:03.423,8.6875,13.8126
12:58:03.431,7.75,15.6876
12:58:03.440,8.75,15.2501
12:58:03.452,8.5625,14.6251
12:58:03.462,7.875,13.9376
12:58:03.471,7.6875,14.8751
12:58:03.480,7.6875,12.75
12:58:03.512,6.5625,11.3125
12:58:03.515,6.3125,10.9375
12:58:03.517,6.625,10.4375
12:58:03.524,6.0625,9.3125
12:58:03.534,4.75,7.8125
12:58:03.541,4.1875,8.3125
12:58:03.550,5.0625,7.625
12:58:03.560,4.0625,6.6875
12:58:03.571,3.375,6
12:58:03.581,3,5.5625
12:58:03.591,3.75,5.375
12:58:03.602,1.9375,3.4375
12:58:03.610,0.5,2.3125
12:58:03.620,-0.8125,2.375
12:58:03.631,-2.25,-0.5625
12:58:03.640,-5.8125,-3.5
12:58:03.650,-12.375,-8.25
12:58:03.660,-24.3126,-15.4376
12:58:03.671,-40.3127,-27.2501
12:58:03.680,-57.6252,-40.4377
12:58:03.692,-68.9378,-47.6252
12:58:03.701,-73.6878,-50.1877
12:58:03.710,-73.0003,-49.6877
12:58:03.722,-71.5003,-46.5627
12:58:03.730,-70.5628,-45.0002
12:58:03.740,-73.0628,-46.8127
12:58:03.750,-74.8753,-47.1877
12:58:03.761,-77.4378,-49.5627
12:58:03.770,-77.4378,-50.5002
12:58:03.784,-77.1878,-49.3127
12:58:03.791,-76.3753,-49.1252
12:58:03.800,-76.8753,-48.7502
12:58:03.810,-76.1878,-48.6877
12:58:03.823,-76.0003,-47.6252
12:58:03.831,-74.6253,-47.1877
12:58:03.840,-73.8753,-46.8127
12:58:03.853,-73.1253,-45.3127
12:58:03.861,-72.6878,-45.7502
12:58:03.872,-71.5003,-45.6877
12:58:03.883,-71.8128,-45.6877
12:58:03.891,-70.6253,-46.0627
12:58:03.900,-70.8753,-46.2502
12:58:03.912,-69.6253,-46.7502
12:58:03.921,-68.3753,-46.4377
12:58:03.930,-67.3128,-46.5627
12:58:03.942,-65.7503,-45.5002
12:58:03.950,-64.1877,-46.0627
12:58:03.961,-63.2502,-45.9377
12:58:03.970,-61.3752,-45.8752
12:58:03.985,-62.3127,-47.3127
12:58:03.992,-62.1877,-48.0002
12:58:04.023,-61.2502,-50.8127
12:58:04.025,-62.0002,-50.8752
12:58:04.028,-61.3752,-53.8127
12:58:04.030,-61.6252,-53.9377
12:58:04.066,-61.0002,-56.1252
12:58:04.066,-60.8127,-56.3127
12:58:04.069,-60.2502,-57.1877
12:58:04.075,-59.2502,-56.3127
12:58:04.111,-57.8752,-56.0002
12:58:04.114,-55.8752,-54.1877
12:58:04.115,-53.5002,-51.3752
12:58:04.118,-52.0627,-50.0627
12:58:04.121,-49.9377,-47.3752
12:58:04.172,-47.7502,-46.5627
12:58:04.184,-46.5002,-44.3127
12:58:04.185,-44.6877,-43.0002
12:58:04.200,-43.3127,-42.8752
12:58:04.215,-42.0002,-40.5002
12:58:04.215,-40.3127,-40.7502
12:58:04.215,-38.6251,-40.2502
12:58:04.218,-35.3126,-39.5002
12:58:04.224,-32.6876,-36.8126
12:58:04.225,-29.4376,-35.0001
12:58:04.232,-28.6251,-35.9376
12:58:04.241,-29.7501,-36.1251
12:58:04.252,-32.5001,-39.7502
12:58:04.271,-36.1876,-42.8127
12:58:04.274,-37.9376,-44.5627
12:58:04.285,-38.5626,-45.2502
12:58:04.290,-37.3126,-44.1252
12:58:04.306,-35.6876,-42.6252
12:58:04.314,-34.6251,-41.0627
12:58:04.324,-34.2501,-41.6877
12:58:04.332,-34.3751,-42.6877
12:58:04.340,-35.7501,-43.5627
12:58:04.350,-37.1876,-42.8127
12:58:04.360,-37.1251,-43.0627
12:58:04.371,-35.9376,-42.4377
12:58:04.380,-35.4376,-41.3127
12:58:04.392,-34.3751,-40.6252
12:58:04.401,-35.5001,-40.5627
12:58:04.411,-37.1251,-40.6252
12:58:04.420,-38.2501,-42.6877
12:58:04.433,-39.1877,-41.3127
12:58:04.441,-39.8127,-41.0627
12:58:04.450,-41.6252,-41.7502
12:58:04.460,-42.1252,-40.9377
12:58:04.470,-42.2502,-39.7502
12:58:04.480,-42.0627,-39.4377
12:58:04.492,-41.2502,-38.8751
12:58:04.501,-41.8127,-37.5626
12:58:04.512,-41.3127,-37.2501
12:58:04.520,-42.6252,-37.5001
12:58:04.530,-43.8127,-38.0626
12:58:04.542,-46.5627,-39.3127
12:58:04.550,-48.4377,-39.5002
12:58:04.560,-50.1252,-40.6252
12:58:04.574,-49.3752,-40.5627
12:58:04.580,-49.3752,-40.3127
12:58:04.592,-47.5627,-37.8751
12:58:04.600,-46.8752,-37.5001
12:58:04.612,-46.3752,-37.6251
12:58:04.620,-46.6877,-38.1251
12:58:04.632,-45.8127,-38.1251
12:58:04.640,-46.3752,-38.1876
12:58:04.652,-46.1877,-38.0626
12:58:04.660,-44.5627,-38.2501
12:58:04.670,-43.8127,-37.4376
12:58:04.682,-41.8127,-38.1251
12:58:04.690,-41.2502,-37.1876
12:58:04.700,-40.7502,-37.6876
12:58:04.718,-39.6877,-38.7501
12:58:04.720,-39.0627,-38.1876
12:58:04.757,-38.0001,-39.0626
12:58:04.759,-37.5001,-39.3127
12:58:04.762,-36.4376,-40.1877
12:58:04.764,-36.2501,-41.5002
12:58:04.792,-37.0001,-42.8127
12:58:04.795,-37.7501,-45.5002
12:58:04.798,-37.7501,-46.5002
12:58:04.824,-38.7501,-48.6252
12:58:04.825,-39.1877,-49.5002
12:58:04.828,-39.1876,-51.4377
12:58:04.854,-39.4377,-50.7502
12:58:04.855,-38.0626,-50.6877
12:58:04.858,-36.3751,-50.1252
12:58:04.886,-34.5626,-48.0002
12:58:04.889,-33.8126,-47.5002
12:58:04.892,-32.8751,-45.5627
12:58:04.894,-31.6251,-43.7502
12:58:04.901,-30.0626,-42.0627
12:58:04.910,-28.5001,-39.9377
12:58:04.920,-27.7501,-38.6876
12:58:04.930,-26.6251,-37.3126
12:58:04.940,-26.1251,-37.5001
12:58:04.950,-27.1251,-36.8751
12:58:04.960,-27.0626,-37.5626
12:58:04.970,-26.8751,-37.1876
12:58:04.980,-25.6876,-36.6251
12:58:04.993,-25.1251,-37.3751
12:58:05.001,-24.5626,-36.6876
12:58:05.012,-23.0001,-36.6251
12:58:05.023,-22.4376,-35.5001
12:58:05.031,-20.6876,-35.9376
12:58:05.041,-18.8751,-34.5001
12:58:05.051,-16.5626,-33.6251
12:58:05.060,-16.6876,-33.7501
12:58:05.070,-17.4376,-36.0626
12:58:05.080,-19.3126,-37.4376
12:58:05.090,-22.3126,-40.8752
12:58:05.100,-25.8751,-43.7502
12:58:05.110,-28.6876,-46.4377
12:58:05.122,-31.6251,-48.6877
12:58:05.130,-31.3126,-49.0002
12:58:05.140,-31.3751,-48.9377
12:58:05.150,-29.4376,-48.1252
12:58:05.162,-28.3751,-46.8752
12:58:05.171,-27.9376,-46.3752
12:58:05.182,-30.7501,-47.5627
12:58:05.190,-34.8126,-50.5627
12:58:05.200,-37.9376,-52.1877
12:58:05.210,-37.1251,-52.6877
12:58:05.220,-36.6251,-50.9377
12:58:05.232,-34.1876,-49.9377
12:58:05.242,-32.8126,-48.1877
12:58:05.250,-32.3126,-47.8127
12:58:05.260,-32.3126,-47.4377
12:58:05.272,-34.1876,-48.6877
12:58:05.281,-36.6876,-49.0627
12:58:05.290,-39.1876,-51.6877
12:58:05.300,-40.0627,-50.7502
12:58:05.312,-39.1252,-51.0627
12:58:05.325,-37.0001,-47.5002
12:58:05.332,-35.0626,-45.9377
12:58:05.340,-34.5626,-43.7502
12:58:05.350,-37.0001,-46.1877
12:58:05.361,-38.5626,-46.3127
12:58:05.370,-37.3751,-45.3127
12:58:05.385,-37.8126,-44.5002
12:58:05.391,-38.9376,-45.9377
12:58:05.417,-38.7501,-44.4377
12:58:05.420,-39.2501,-45.1877
12:58:05.421,-40.1877,-44.8752
12:58:05.460,-41.0627,-45.5002
12:58:05.460,-41.7502,-45.3127
12:58:05.463,-43.1252,-46.4377
12:58:05.466,-42.3127,-45.5002
12:58:05.495,-40.8127,-45.1252
12:58:05.537,-38.3126,-42.1252
12:58:05.541,-36.6251,-41.5627
12:58:05.567,-34.2501,-39.5002
12:58:05.568,-32.9376,-39.5627
12:58:05.568,-32.0001,-38.1251
12:58:05.570,-32.2501,-39.5002
12:58:05.572,-31.5626,-38.9376
12:58:05.578,-30.1876,-39.2501
12:58:05.591,-30.3126,-38.5001
12:58:05.606,-28.7501,-38.6251
12:58:05.609,-28.1251,-38.7501
12:58:05.623,-26.7501,-37.9376
12:58:05.624,-26.2501,-39.2502
12:58:05.633,-27.2501,-40.0002
12:58:05.641,-27.7501,-41.4377
12:58:05.650,-28.5626,-42.8127
12:58:05.660,-28.1251,-42.8752
12:58:05.670,-28.4376,-44.6877
12:58:05.680,-28.2501,-42.7502
12:58:05.690,-27.8126,-41.5002
12:58:05.700,-26.3751,-41.1877
12:58:05.710,-20.0626,-34.5001
12:58:05.720,-17.6251,-32.4376
12:58:05.730,-16.3751,-28.8126
12:58:05.740,-15.0001,-27.8126
12:58:05.750,-14.6876,-26.7501
12:58:05.760,-13.6251,-26.8126
12:58:05.770,-13.6251,-26.3751
12:58:05.780,-11.8125,-25.1876
12:58:05.790,-9.6875,-23.6876
12:58:05.800,-9.8125,-23.1876
12:58:05.813,-8.625,-22.5001
12:58:05.822,-8.75,-22.5626
12:58:05.830,-7.6875,-22.1876
12:58:05.840,-6.5625,-21.1876
12:58:05.850,-5.0625,-21.0001
12:58:05.860,-4.4375,-19.3751
12:58:05.870,-3.1875,-19.3751
12:58:05.880,-5.375,-21.4376
12:58:05.890,-7.25,-23.1251
12:58:05.901,-9.875,-25.4376
12:58:05.911,-10.75,-27.6876
12:58:05.920,-10.9375,-27.6251
12:58:05.933,-11.0625,-28.1251
12:58:05.941,-11,-28.8751
12:58:05.950,-12.0625,-30.6251
12:58:05.960,-12.125,-30.7501
12:58:05.970,-14.0001,-33.1876
12:58:05.980,-15.1251,-34.2501
12:58:05.990,-18.2501,-36.5001
12:58:06.000,-21.0001,-38.1876
12:58:06.010,-23.6876,-41.1252
12:58:06.021,-25.6876,-41.9377
12:58:06.030,-26.0626,-42.7502
12:58:06.040,-24.9376,-41.3752
12:58:06.073,-24.1251,-41.1252
12:58:06.076,-23.0626,-39.2502
12:58:06.078,-23.5001,-40.8127
12:58:06.080,-23.9376,-40.1877
12:58:06.096,-24.5626,-41.0627
12:58:06.100,-24.3751,-40.8752
12:58:06.110,-23.8751,-40.1877
12:58:06.124,-23.7501,-40.1252
12:58:06.131,-22.9376,-40.0627
12:58:06.158,-23.1876,-40.0627
12:58:06.160,-25.0001,-41.0002
12:58:06.164,-26.5001,-42.4377
12:58:06.205,-28.6251,-43.8752
12:58:06.207,-29.6876,-43.6877
12:58:06.210,-28.9376,-44.0002
12:58:06.212,-27.7501,-41.6877
12:58:06.247,-26.3126,-40.8127
12:58:06.249,-23.6251,-38.4376
12:58:06.250,-21.8126,-37.0626
12:58:06.253,-20.5001,-35.1876
12:58:06.259,-20.0626,-35.1251
12:58:06.260,-22.0626,-35.3751
12:58:06.292,-24.2501,-37.1876
12:58:06.295,-26.0001,-38.2501
12:58:06.299,-27.5001,-38.8751
12:58:06.302,-27.5626,-39.0001
12:58:06.321,-27.8751,-38.7501
12:58:06.325,-28.5626,-38.7501
12:58:06.331,-29.2501,-39.3751
12:58:06.340,-31.1876,-41.3752
12:58:06.350,-32.2501,-41.7502
12:58:06.360,-32.8126,-42.0627
12:58:06.370,-31.4376,-41.4377
12:58:06.380,-30.8126,-40.6252
12:58:06.390,-29.9376,-40.5627
12:58:06.400,-28.9376,-40.6252
12:58:06.410,-28.0001,-40.5002
12:58:06.420,-26.6876,-39.3127
12:58:06.430,-26.0626,-39.2502
12:58:06.440,-24.8126,-38.0626
12:58:06.450,-23.4376,-39.0001
12:58:06.460,-23.0626,-38.1876
12:58:06.470,-21.6251,-38.2501
12:58:06.480,-20.8751,-37.5626
12:58:06.490,-20.0001,-37.0626
12:58:06.500,-19.4376,-35.9376
12:58:06.516,-17.1876,-34.2501
12:58:06.525,-15.5001,-32.0001
12:58:06.535,-13,-29.1251
12:58:06.545,-12.125,-27.0001
12:58:06.555,-9.8125,-25.1876
12:58:06.565,-9,-22.5626
12:58:06.575,-7.25,-21.0001
12:58:06.585,-6.875,-20.3126
12:58:06.595,-6.5,-19.1251
12:58:06.605,-6,-18.3126
12:58:06.616,-4.9375,-17.5626
12:58:06.625,-3.4375,-15.6251
12:58:06.636,-2.1875,-15.5626
12:58:06.647,-2.4375,-15.1251
12:58:06.655,-2.1875,-15.0001
12:58:06.665,-1,-14.7501
12:58:06.676,0.1875,-12.75
12:58:06.687,1.4375,-13.3126
12:58:06.696,1.875,-10.875
12:58:06.705,3.3125,-11.375
12:58:06.716,2.125,-11.3125
12:58:06.726,0.6875,-14.6251
12:58:06.735,-1.5,-16.2501
12:58:06.746,-3.25,-18.8126
12:58:06.755,-4.9375,-19.5001
12:58:06.766,-4.6875,-21.1251
12:58:06.776,-5.1875,-20.9376
12:58:06.785,-5.375,-22.7501
12:58:06.796,-5.625,-23.3751
12:58:06.805,-5.5,-24.2501
12:58:06.821,-6.25,-23.5001
12:58:06.840,-6.4375,-25.1251
12:58:06.841,-8.0625,-25.8751
12:58:06.914,-9.25,-27.0001
12:58:06.947,-11.3125,-29.1876
12:58:06.982,-13.6251,-29.9376
12:58:06.983,-15.6876,-31.8751
12:58:06.983,-17.0626,-32.8751
12:58:07.027,-16.7501,-33.2501
12:58:07.030,-15.8751,-32.8126
12:58:07.032,-15.7501,-32.2501
12:58:07.033,-14.5626,-30.1251
12:58:07.033,-13.9376,-29.9376
12:58:07.036,-14.6251,-29.1876
12:58:07.038,-13.8126,-29.8751
12:58:07.041,-14.0626,-29.0626
12:58:07.050,-13.9376,-29.5001
12:58:07.061,-13.1876,-28.8126
12:58:07.070,-12.9375,-28.3751
12:58:07.080,-15.3126,-29.2501
12:58:07.090,-18.3126,-30.3751
12:58:07.100,-20.7501,-32.6876
12:58:07.110,-22.2501,-33.6876
12:58:07.120,-22.0001,-32.9376
12:58:07.130,-34.6251,-39.3127
12:58:07.140,-35.5001,-41.0627
12:58:07.150,-36.1251,-42.0002
12:58:07.160,-36.6876,-42.1252
12:58:07.170,-36.1251,-41.6252
12:58:07.180,-20.1251,-28.9376
12:58:07.191,-31.1876,-39.2501
12:58:07.202,-28.1251,-36.6876
12:58:07.212,-24.7501,-34.6876
12:58:07.221,-21.3751,-31.6876
12:58:07.232,-19.7501,-30.1251
12:58:07.242,-18.6876,-29.5626
12:58:07.253,-18.0626,-28.8126
12:58:07.260,-17.0626,-29.7501
12:58:07.270,-16.5001,-29.5001
12:58:07.280,-15.3751,-29.8126
12:58:07.291,-15.4376,-29.3126
12:58:07.300,-15.2501,-31.2501
12:58:07.310,-15.7501,-32.1251
12:58:07.320,-14.8126,-31.3751
12:58:07.353,-12.9375,-31.6876
12:58:07.354,-10.0625,-28.6251
12:58:07.357,-6.75,-24.6251
12:58:07.362,-3.25,-20.8751
12:58:07.374,0.0625,-18.7501
12:58:07.381,4.1875,-13.8751
12:58:07.390,8.0625,-9.5625
12:58:07.400,13.1876,-3.9375
12:58:07.410,18.8751,1.9375
12:58:07.420,24.8751,8.9375
12:58:07.430,33.1251,15.0626
12:58:07.441,41.8127,24.9376
12:58:07.450,53.3127,34.8126
12:58:07.460,62.2502,43.6877
12:58:07.470,69.7503,51.7502
12:58:07.480,74.4378,56.7502
12:58:07.490,77.0628,59.1877
12:58:07.501,76.0628,58.0627
12:58:07.510,72.5003,57.3127
12:58:07.520,69.4378,52.4377
12:58:07.531,63.6877,49.0002
12:58:07.542,61.2502,44.7502
12:58:07.551,56.4377,40.6252
12:58:07.560,51.7502,36.6251
12:58:07.570,47.5002,31.7501
12:58:07.584,43.1252,28.0001
12:58:07.590,38.6251,24.5626
12:58:07.619,34.0001,20.3751
12:58:07.621,29.1251,15.7501
12:58:07.625,24.9376,11.875
12:58:07.631,20.3751,10.125
12:58:07.665,17.1251,6.5625
12:58:07.669,11.6875,2.125
12:58:07.670,6.875,-1.125
12:58:07.677,3.6875,-3.6875
12:58:07.682,2.25,-5.6875
12:58:07.718,0.875,-6.4375
12:58:07.720,0.5625,-5.9375
12:58:07.721,1.25,-5.6875
12:58:07.724,2.5,-5.6875
12:58:07.755,1.5,-6.3125
12:58:07.757,1,-5.25
12:58:07.759,0.75,-5.5625
12:58:07.761,-1.125,-7.25
12:58:07.776,-5.125,-10.0625
12:58:07.782,-12.375,-15.0001
12:58:07.792,-17.7501,-20.0001
12:58:07.800,-16.5001,-21.2501
12:58:07.810,-16.1251,-20.5626
12:58:07.820,-15.8126,-19.2501
12:58:07.831,-17.5001,-20.5001
12:58:07.840,-20.5626,-22.8126
12:58:07.850,-23.5626,-23.8751
12:58:07.863,-25.5001,-26.1251
12:58:07.870,-29.0626,-28.1876
12:58:07.880,-32.3126,-29.1251
12:58:07.890,-33.5626,-31.1251
12:58:07.900,-34.4376,-31.6876
12:58:07.911,-32.9376,-29.0001
12:58:07.922,-31.0001,-28.9376
12:58:07.932,-30.3126,-28.1876
12:58:07.943,-29.4376,-26.9376
12:58:07.950,-27.0001,-25.9376
12:58:07.961,-24.3126,-24.5001
12:58:07.971,-21.0626,-22.3126
12:58:07.980,-19.0626,-20.4376
12:58:07.990,-17.3751,-20.7501
12:58:08.000,-17.6251,-21.1876
12:58:08.010,-17.6251,-21.5626
12:58:08.021,-16.5001,-22.3751
12:58:08.031,-15.5001,-23.0626
12:58:08.042,-14.6876,-21.8751
12:58:08.052,-11.875,-22.5001
12:58:08.060,-9.9375,-22.0001
12:58:08.071,-9.9375,-21.6876
12:58:08.080,-9,-22.9376
12:58:08.090,-8.1875,-22.6876
12:58:08.100,-9.375,-22.9376
12:58:08.110,-8,-24.0001
12:58:08.120,-8.125,-23.2501
12:58:08.130,-6.9375,-23.6251
12:58:08.152,-5.875,-23.3751
12:58:08.154,-7.1875,-23.7501
12:58:08.163,-6,-23.8126
12:58:08.170,-4.375,-22.8126
12:58:08.186,-4.125,-19.5001
12:58:08.194,-1.5625,-18.0626
12:58:08.200,0.5625,-15.6876
12:58:08.210,2.1875,-12.9375
12:58:08.220,5.125,-11.4375
12:58:08.231,7.9375,-8.0625
12:58:08.240,8.625,-5.3125
12:58:08.250,9.375,-5.3125
12:58:08.260,8.375,-6
12:58:08.285,5.1875,-7.625
12:58:08.322,2.1875,-10.5
12:58:08.384,-2,-12.75
12:58:08.417,-5.1875,-16.0626
12:58:08.420,-7.5,-17.2501
12:58:08.420,-8.375,-17.6251
12:58:08.420,-9.625,-17.3126
12:58:08.421,-9.75,-17.8126
12:58:08.423,-11,-16.8751
12:58:08.447,-10.8125,-17.1876
12:58:08.447,-10.125,-15.2501
12:58:08.447,-11.75,-15.1251
12:58:08.449,-10.5625,-15.3751
12:58:08.450,-8.9375,-11.875
12:58:08.460,-5.125,-10.8125
12:58:08.470,-1.3125,-7.3125
12:58:08.480,2.125,-4.1875
12:58:08.490,4.3125,-2.0625
12:58:08.500,3.125,-2.1875
12:58:08.511,1.125,-3.9375
12:58:08.526,-1.3125,-5.75
12:58:08.530,-3.3125,-5.9375
12:58:08.540,-3.5,-7.25
12:58:08.550,-8.125,-8.1875
12:58:08.562,-9.875,-9.1875
12:58:08.570,-11.625,-10.1875
12:58:08.580,-13.7501,-11.8125
12:58:08.590,-17.8126,-14.0001
12:58:08.600,-22.7501,-17.0001
12:58:08.634,-21.9376,-16.8126
12:58:08.638,-20.0626,-15.3751
12:58:08.638,-19.9376,-14.2501
12:58:08.644,-18.9376,-14.8126
12:58:08.651,-17.7501,-13.0625
12:58:08.661,-16.8751,-13.0625
12:58:08.672,-15.3126,-12.125
12:58:08.681,-13.7501,-12.125
12:58:08.690,-11.1875,-10.75
12:58:08.700,-9.5,-8.6875
12:58:08.711,-8,-8.8125
12:58:08.720,-6.125,-7.9375
12:58:08.732,-6.6875,-7.375
12:58:08.742,-6.375,-9.6875
12:58:08.751,-6.25,-10.75
12:58:08.760,-7.75,-11.75
12:58:08.770,-7.6875,-13.2501
12:58:08.780,-7.125,-13.4376
12:58:08.790,-6.625,-14.6251
12:58:08.801,-6.125,-13.3751
12:58:08.811,-5.4375,-15.1251
12:58:08.821,-3.8125,-14.3751
12:58:08.830,-2.25,-12.5
12:58:08.840,-0.4375,-13.1876
12:58:08.850,0.3125,-12.0625
12:58:08.861,1.8125,-12.125
12:58:08.871,3.3125,-11.625
12:58:08.882,4.0625,-11.4375
12:58:08.895,5.4375,-11.3125
12:58:08.905,7.6875,-8.9375
12:58:08.910,9.5625,-8.9375
12:58:08.920,12.5625,-6.8125
12:58:08.930,14.0626,-5.3125
12:58:08.940,14.8126,-6.6875
12:58:08.950,14.4376,-5.6875
12:58:08.960,13.0625,-8.375
12:58:08.971,11.6875,-10.875
12:58:08.981,8.875,-13.3126
12:58:08.990,7.75,-16.1251
12:58:09.013,7.5,-16.1251
12:58:09.015,4.75,-16.1251
12:58:09.044,3,-18.2501
12:58:09.046,0,-17.5001
12:58:09.048,0.3125,-17.8126
12:58:09.050,-0.25,-15.8126
12:58:09.091,1.375,-15.4376
12:58:09.095,0.0625,-13.8751
12:58:09.096,0.25,-14.4376
12:58:09.098,-2.5625,-14.6251
12:58:09.104,-5.9375,-17.1251
12:58:09.112,-7.25,-18.8126
12:58:09.142,-9.375,-19.0001
12:58:09.145,-8.625,-18.7501
12:58:09.148,-9.875,-18.1251
12:58:09.152,-9,-18.0001
12:58:09.181,-11.5,-18.1251
12:58:09.184,-12.5,-18.6251
12:58:09.186,-14.0001,-19.0001
12:58:09.191,-14.3126,-17.4376
12:58:09.202,-12.8125,-17.1876
12:58:09.212,-12.8125,-15.6251
12:58:09.220,-12.375,-15.8751
12:58:09.230,-13.3751,-14.8126
12:58:09.240,-14.8751,-17.5001
12:58:09.250,-18.5001,-18.7501
12:58:09.260,-20.1876,-21.3751
12:58:09.270,-19.8751,-20.3751
12:58:09.280,-20.8751,-19.7501
12:58:09.291,-21.1251,-20.6251
12:58:09.304,-21.8126,-19.3126
12:58:09.310,-21.5001,-20.4376
12:58:09.320,-22.3751,-19.6876
12:58:09.331,-25.0626,-19.7501
12:58:09.340,-25.8126,-22.0001
12:58:09.350,-24.8126,-20.5626
12:58:09.360,-24.0626,-19.1876
12:58:09.371,-22.6251,-19.0626
12:58:09.381,-20.1251,-17.1251
12:58:09.391,-17.2501,-13.1876
12:58:09.400,-12.375,-11.625
12:58:09.410,-6.8125,-7
12:58:09.420,-4.6875,-4.25
12:58:09.431,-3.5,-3.8125
12:58:09.441,-3.5,-4.375
12:58:09.452,-3.9375,-4.5
12:58:09.469,-3.875,-5.6875
12:58:09.476,-3.5,-5.6875
12:58:09.492,-2.8125,-6.1875
12:58:09.494,-2,-6.5
12:58:09.512,-2.1875,-7.4375
12:58:09.524,-2.3125,-7.5
12:58:09.526,-1.1875,-8.6875
12:58:09.532,-0.625,-8.625
12:58:09.542,-0.6875,-9.125
12:58:09.552,0.1875,-10.25
12:58:09.563,0.125,-10.3125
12:58:09.570,1.9375,-9.6875
12:58:09.580,3.1875,-9.1875
12:58:09.590,4.375,-9.125
12:58:09.600,5.125,-9.25
12:58:09.610,5.4375,-10.125
12:58:09.621,5.6875,-11
12:58:09.630,5.75,-10.625
12:58:09.640,7.875,-10
12:58:09.656,9.5,-8.75
12:58:09.674,10.8125,-7.3125
12:58:09.677,11.8125,-8.125
12:58:09.684,11.4375,-7.8125
12:58:09.692,10.625,-9.3125
12:58:09.705,9.25,-12.25
12:58:09.716,7.9375,-12.6875
12:58:09.720,6.5625,-15.1251
12:58:09.731,4.4375,-17.4376
12:58:09.740,1.6875,-18.3126
12:58:09.751,0.125,-22.3126
12:58:09.762,-2.4375,-24.6876
12:58:09.770,-3.5625,-24.7501
12:58:09.800,-3.875,-25.6251
12:58:09.801,-5.25,-25.9376
12:58:09.804,-7.0625,-25.5001
12:58:09.811,-8.8125,-27.6251
12:58:09.836,-10.4375,-27.4376
12:58:09.838,-11.5625,-25.8751
12:58:09.840,-11.25,-24.7501
12:58:09.878,-12.3125,-23.8126
12:58:09.880,-12.75,-21.0626
12:58:09.884,-12,-20.6876
12:58:09.889,-11.4375,-20.1251
12:58:09.913,-10.6875,-17.8751
12:58:09.914,-10.25,-16.1876
12:58:09.917,-9.3125,-15.7501
12:58:09.921,-10.625,-15.3751
12:58:09.951,-11.25,-15.5001
12:58:09.954,-11.75,-16.6876
12:58:09.957,-11.9375,-15.4376
12:58:09.961,-11.4375,-14.9376
12:58:09.971,-11.6875,-14.0001
12:58:09.980,-10.8125,-12.3125
12:58:09.990,-10.75,-12.625
12:58:10.001,-11.625,-11.625
12:58:10.010,-10.75,-12.1875
12:58:10.020,-10.4375,-10.125
12:58:10.030,-8.4375,-9.625
12:58:10.040,-7.0625,-9.3125
12:58:10.050,-5.25,-8.1875
12:58:10.061,-4.1875,-7
12:58:10.072,-3,-5.625
12:58:10.080,-2.5,-4.25
12:58:10.090,-2.8125,-5.0625
12:58:10.100,-4.25,-4.375
12:58:10.111,-3.5625,-5.0625
12:58:10.122,-4.8125,-4.5
12:58:10.130,-3.6875,-4.25
12:58:10.140,-3.875,-4.1875
12:58:10.151,-3.25,-3.3125
12:58:10.163,-4,-3.3125
12:58:10.170,-4.625,-3.875
12:58:10.181,-5,-3.3125
12:58:10.190,-4.3125,-4.5
12:58:10.201,-5.5,-3.25
12:58:10.212,-5.125,-4.25
12:58:10.224,-6.0625,-4.5625
12:58:10.230,-6.5625,-5.375
12:58:10.240,-6.8125,-4.875
12:58:10.250,-6.125,-6.4375
12:58:10.260,-6.1875,-5.3125
12:58:10.272,-6.625,-6.9375
12:58:10.280,-6.5,-7.125
12:58:10.290,-6.875,-7
12:58:10.300,-6.5,-6.3125
12:58:10.310,-6.125,-6.5
12:58:10.320,-6.875,-7.1875
12:58:10.332,-6.4375,-6.375
12:58:10.340,-5.8125,-5.75
12:58:10.350,-6.4375,-6.6875
12:58:10.360,-4.4375,-4.5625
12:58:10.370,-2.0625,-3.5625
12:58:10.380,-2.5625,-3.125
12:58:10.391,-3.5,-4.625
12:58:10.407,-4.4375,-4.6875
12:58:10.411,-4.375,-6.25
12:58:10.426,-5.1875,-5.5625
12:58:10.430,-5.3125,-7.25
12:58:10.441,-6.125,-7.8125
12:58:10.450,-7,-8.5
12:58:10.461,-6.9375,-8.6875
12:58:10.470,-7.1875,-10.375
12:58:10.480,-8.3125,-10.0625
12:58:10.490,-8.75,-11.625
12:58:10.500,-9.9375,-12.5
12:58:10.511,-10.625,-13.2501
12:58:10.523,-11.125,-13.6876
12:58:10.553,-11.1875,-14.8126
12:58:10.557,-11.125,-13.2501
12:58:10.560,-10.375,-13.8751
12:58:10.562,-9.6875,-11.875
12:58:10.596,-8.4375,-10.8125
12:58:10.599,-6.625,-8.125
12:58:10.601,-5.3125,-6.0625
12:58:10.603,-3.25,-3.0625
12:58:10.636,-2.5,-1.0625
12:58:10.637,-1.375,1.0625
12:58:10.641,-0.375,2.6875
12:58:10.647,0.375,5.125
12:58:10.676,1.875,5.9375
12:58:10.679,2.125,8.125
12:58:10.681,2.625,8.1875
12:58:10.685,2.9375,10.0625
12:58:10.698,3.625,9.5
12:58:10.705,3.8125,10.75
12:58:10.715,4.25,10.9375
12:58:10.725,4.5625,11.9375
12:58:10.735,5.625,12.5
12:58:10.746,5.8125,13.8126
12:58:10.757,6.5625,14.7501
12:58:10.765,6.6875,14.2501
12:58:10.781,6.5625,15.8751
12:58:10.785,7.3125,14.7501
12:58:10.800,7.125,15.5626
12:58:10.811,7.1875,15.4376
12:58:10.816,7.4375,16.8751
12:58:10.830,7.8125,15.9376
12:58:10.848,6.9375,15.7501
12:58:10.849,6.5625,16.6251
12:58:10.855,7.1875,15.4376
12:58:10.865,7.4375,15.0626
12:58:10.876,7.1875,16.1251
12:58:10.885,7.1875,16.0626
12:58:10.895,7.5625,15.9376
12:58:10.905,7.8125,15.0626
12:58:10.915,7.375,16.2501
12:58:10.926,7.9375,16.2501
12:58:10.938,7.875,15.5001
12:58:10.945,7.4375,15.7501
12:58:10.955,7.9375,16.3126
12:58:10.965,7.1875,16.2501
12:58:10.976,8.1875,15.3126
12:58:10.990,7.9375,14.6251
12:58:11.007,7.375,14.5001
12:58:11.009,7.25,14.6251
12:58:11.024,7.75,13.8751
12:58:11.026,7.75,13.5001
12:58:11.041,7.25,12.9375
12:58:11.045,6.75,13.5626
12:58:11.056,7.5625,13.5626
12:58:11.065,7.25,12.4375
12:58:11.077,6.8125,11.75
12:58:11.086,6.5625,12.5
12:58:11.096,7.375,11.6875
12:58:11.105,7.0625,10.6875
12:58:11.115,6.5625,10.5625
12:58:11.125,6.5,10.8125
12:58:11.137,7.125,10.3125
12:58:11.145,7.0625,9.1875
12:58:11.156,6.375,8.25
12:58:11.165,5.6875,7.75
12:58:11.195,5.5625,8.1875
12:58:11.197,5.125,8.375
12:58:11.199,5.5625,7.1875
12:58:11.207,5.5,6.625
12:58:11.216,4.625,6.375
12:58:11.225,4.3125,6.0625
12:58:11.253,4.75,5.125
12:58:11.255,4.3125,4.1875
12:58:11.258,3.5625,4.3125
12:58:11.287,4.125,3.5625
12:58:11.290,3.625,3.125
12:58:11.292,3,2.125
12:58:11.295,2.9375,2.3125
12:58:11.327,3.4375,1.75
12:58:11.330,2.625,1.375
12:58:11.332,2.375,2.0625
12:58:11.336,3.1875,2
12:58:11.366,3.25,1.5625
12:58:11.368,3.875,1.8125
12:58:11.372,4,4.3125
12:58:11.403,6,5.5625
12:58:11.405,7.5625,6.9375
12:58:11.405,8.6875,9
12:58:11.412,10,11.1875
12:58:11.420,11.375,14.5626
12:58:11.425,14.0626,16.8126
12:58:11.436,14.3751,18.3126
12:58:11.445,15.3126,19.5001
12:58:11.455,15.8751,21.4376
12:58:11.466,16.6251,22.2501
12:58:11.475,17.0001,23.0001
12:58:11.485,17.1876,23.2501
12:58:11.495,17.3751,25.0001
12:58:11.506,18.5001,25.3751
12:58:11.515,18.6876,25.2501
12:58:11.529,18.6876,25.7501
12:58:11.535,18.8751,26.1876
12:58:11.548,19.3751,27.5626
12:58:11.555,19.6251,27.8751
12:58:11.566,20.0001,28.2501
12:58:11.577,19.6876,28.0001
12:58:11.586,19.4376,28.1876
12:58:11.595,19.9376,27.8751
12:58:11.605,20.0001,27.0001
12:58:11.615,19.8126,26.6251
12:58:11.626,19.0001,26.5001
12:58:11.636,19.3751,27.1876
12:58:11.645,20.2501,26.1251
12:58:11.656,19.8126,26.0001
12:58:11.668,19.2501,27.0626
12:58:11.675,20.1876,25.8126
12:58:11.685,20.7501,25.6251
12:58:11.695,21.1251,25.7501
12:58:11.707,22.1876,27.5626
12:58:11.715,24.1251,27.4376
12:58:11.725,25.6251,27.5001
12:58:11.735,25.9376,27.5001
12:58:11.748,26.3751,27.6251
12:58:11.755,27.3126,28.7501
12:58:11.765,27.8751,27.7501
12:58:11.775,28.7501,28.6876
12:58:11.785,29.5626,28.7501
12:58:11.795,30.5626,27.8751
12:58:11.806,31.2501,28.4376
12:58:11.815,32.3126,28.8751
12:58:11.825,33.5626,28.7501
12:58:11.837,34.1876,28.6251
12:58:11.845,35.2501,29.5001
12:58:11.856,36.0626,28.5001
12:58:11.865,36.4376,28.0001
12:58:11.876,37.1251,28.3751
12:58:11.885,37.7501,28.5626
12:58:11.896,38.5626,28.1876
12:58:11.908,39.4377,27.8751
12:58:11.921,39.6252,26.6251
12:58:11.927,39.2501,27.3126
12:58:11.956,40.1877,26.5001
12:58:11.959,39.4377,25.3126
12:58:11.962,39.3752,25.0626
12:58:11.965,39.1252,24.2501
12:58:12.001,39.1877,23.0001
12:58:12.004,38.9376,22.8126
12:58:12.005,39.0002,22.1876
12:58:12.011,39.1876,20.6251
12:58:12.016,37.9376,20.9376
12:58:12.044,38.1251,19.8751
12:58:12.046,37.1876,18.7501
12:58:12.050,36.7501,17.3751
12:58:12.056,35.6876,16.7501
12:58:12.085,36.0001,16.4376
12:58:12.089,35.9376,15.5626
12:58:12.090,35.8126,15.1876
12:58:12.097,35.9376,16.0626
12:58:12.116,36.3126,15.9376
12:58:12.122,36.6251,17.3751
12:58:12.130,37.2501,20.6251
12:58:12.136,39.0002,21.2501
12:58:12.154,39.3752,23.4376
12:58:12.156,40.4377,24.9376
12:58:12.170,41.3127,27.3126
12:58:12.176,42.1252,28.8126
12:58:12.186,42.3127,29.5001
12:58:12.198,42.3752,30.6876
12:58:12.205,41.7502,32.3126
12:58:12.216,41.6877,31.0626
12:58:12.225,41.1877,31.1876
12:58:12.235,40.8752,31.6251
12:58:12.247,40.6252,33.3126
12:58:12.256,40.5627,32.8126
12:58:12.266,41.0002,32.8126
12:58:12.281,40.5002,32.6876
12:58:12.285,40.1877,32.7501
12:58:12.295,40.3752,33.7501
12:58:12.310,40.4377,34.6876
12:58:12.320,40.6252,33.6876
12:58:12.325,40.1877,33.0626
12:58:12.344,40.0627,33.0001
12:58:12.349,40.0627,32.8126
12:58:12.355,39.2502,31.5001
12:58:12.366,38.3751,31.0001
12:58:12.376,38.0626,31.5001
12:58:12.385,38.6876,30.3751
12:58:12.395,37.7501,29.3751
12:58:12.405,37.1251,30.3751
12:58:12.415,37.8751,29.8751
12:58:12.425,37.3126,29.0626
12:58:12.436,36.9376,29.0001
12:58:12.446,36.4376,29.3126
12:58:12.471,37.3751,28.4376
12:58:12.474,36.8751,27.7501
12:58:12.476,35.8126,28.1251
12:58:12.486,36.6876,28.1251
12:58:12.495,36.2501,27.1876
12:58:12.505,36.1251,25.9376
12:58:12.515,35.0626,27.0001
12:58:12.527,35.7501,26.3751
12:58:12.535,34.3126,24.6876
12:58:12.546,33.5001,24.8751
12:58:12.555,33.3751,23.2501
12:58:12.566,32.5001,22.3751
12:58:12.576,32.3126,22.1876
12:58:12.586,31.5626,21.0001
12:58:12.595,30.7501,19.7501
12:58:12.606,30.2501,21.1876
12:58:12.615,29.6876,19.1251
12:58:12.625,29.6876,18.1251
12:58:12.635,29.1876,17.6876
12:58:12.645,29.0001,17.0626
12:58:12.661,27.5626,15.6251
12:58:12.667,27.1876,14.9376
12:58:12.676,25.8751,14.8126
12:58:12.711,25.8126,13.6251
12:58:12.711,25.0626,12.4375
12:58:12.715,24.1876,11.75
12:58:12.716,23.7501,11.375
12:58:12.750,23.1251,9.8125
12:58:12.753,22.0001,9.125
12:58:12.756,21.5001,9.1875
12:58:12.758,21.3126,7.6875
12:58:12.790,20.5001,7.125
12:58:12.793,19.9376,6.6875
12:58:12.797,19.5626,5.6875
12:58:12.801,19.3751,4.75
12:58:12.805,18.1876,3.75
12:58:12.847,17.6876,3.875
12:58:12.849,18.6251,3.4375
12:58:12.850,17.8751,3.25
12:58:12.854,17.7501,4.625
12:58:12.858,19.3751,4.875
12:58:12.865,19.6876,6.3125
12:58:12.875,20.3751,9.4375
12:58:12.885,21.7501,12.1875
12:58:12.896,23.3751,13.3751
12:58:12.905,23.5001,15.2501
12:58:12.915,24.0626,18.2501
12:58:12.926,25.4376,19.3751
12:58:12.938,25.1876,20.3751
12:58:12.945,25.6876,21.8751
12:58:12.955,26.1251,23.0626
12:58:12.966,26.7501,23.8126
12:58:12.978,26.5626,23.9376
12:58:12.985,26.6876,25.2501
12:58:12.995,26.6876,26.5001
12:58:13.005,27.0001,26.8751
12:58:13.019,27.3751,26.8751
12:58:13.025,27.3751,28.9376
12:58:13.035,28.3126,28.6876
12:58:13.046,28.8751,29.1251
12:58:13.058,28.2501,29.6251
12:58:13.065,28.3751,30.5626
12:58:13.075,28.9376,30.6876
12:58:13.085,28.3751,29.0626
12:58:13.096,28.0626,30.2501
12:58:13.105,28.2501,29.0626
12:58:13.115,27.3126,28.1251
12:58:13.125,26.7501,28.0001
12:58:13.136,26.3751,28.6876
12:58:13.146,27.0626,26.8126
12:58:13.156,26.2501,26.1876
12:58:13.165,25.5001,26.5626
12:58:13.176,25.8751,26.8126
12:58:13.187,25.1876,25.3126
12:58:13.195,24.6876,25.4376
12:58:13.205,24.8751,25.6251
12:58:13.216,24.8126,25.0626
12:58:13.225,24.8126,23.4376
12:58:13.235,24.6876,25.3126
12:58:13.245,24.3126,23.8751
12:58:13.255,23.9376,22.9376
12:58:13.267,23.0626,23.1876
12:58:13.275,23.0001,22.8751
12:58:13.285,23.0001,22.3126
12:58:13.295,23.1876,21.1876
12:58:13.307,22.5001,19.8751
12:58:13.315,21.8126,20.0626
12:58:13.324,22.1251,19.5001
12:58:13.335,21.3751,18.2501
12:58:13.345,20.6251,17.4376
12:58:13.356,20.1251,17.1251
12:58:13.366,19.6251,15.5626
12:58:13.376,18.8751,15.1251
12:58:13.385,19.1251,14.8126
12:58:13.395,18.0001,13.2501
12:58:13.428,16.9376,12.625
12:58:13.461,17.3126,12.9375
12:58:13.463,17.0626,10.875
12:58:13.465,15.9376,10.25
12:58:13.468,15.3751,10.625
12:58:13.497,15.3126,9.3125
12:58:13.498,14.4376,7.8125
12:58:13.498,14.4376,7.625
12:58:13.500,14.5626,7.25
12:58:13.502,13.8751,5.6875
12:58:13.507,12.9375,5.25
12:58:13.537,12.6875,5.5
12:58:13.539,12.8125,4.0625
12:58:13.541,12,3.5
12:58:13.545,11.0625,3.625
12:58:13.574,11.25,2.4375
12:58:13.577,10.5,1
12:58:13.580,10.5,1.0625
12:58:13.585,9.9375,0.5625
12:58:13.595,9.8125,0.0625
12:58:13.605,10,-1.1875
12:58:13.626,9.5625,-1.1875
12:58:13.629,9.9375,-1.8125
12:58:13.645,9.375,-1.3125
12:58:13.646,10.1875,-0.125
12:58:13.658,11.125,0.875
12:58:13.665,12.1875,2.5
12:58:13.675,13.6251,5.75
12:58:13.685,15.5001,8.1875
12:58:13.695,16.6251,10.625
12:58:13.706,17.9376,14.5001
12:58:13.715,19.9376,15.8751
12:58:13.727,19.7501,17.1876
12:58:13.752,20.6251,19.5001
12:58:13.754,22.0626,21.2501
12:58:13.759,22.1251,21.9376
12:58:13.766,22.1251,23.5626
12:58:13.775,23.1251,24.5001
12:58:13.785,23.4376,24.8126
12:58:13.797,23.1876,26.1876
12:58:13.805,23.1876,27.6876
12:58:13.814,23.9376,27.2501
12:58:13.825,24.0626,28.0001
12:58:13.836,24.8751,29.6251
12:58:13.845,25.3126,29.0001
12:58:13.855,24.9376,30.5001
12:58:13.867,24.8126,31.1876
12:58:13.874,25.2501,30.5001
12:58:13.886,24.3751,30.3751
12:58:13.895,24.4376,30.5001
12:58:13.907,24.0626,29.5626
12:58:13.915,22.6251,28.9376
12:58:13.924,21.8751,28.3751
12:58:13.934,22.0626,27.1876
12:58:13.945,21.1876,26.5001
12:58:13.955,21.2501,26.6876
12:58:13.968,20.5001,26.1876
12:58:13.976,20.3751,25.5626
12:58:13.986,20.3751,24.9376
12:58:13.995,20.1251,25.2501
12:58:14.004,20.1251,24.1251
12:58:14.017,19.5626,24.0626
12:58:14.025,19.3751,24.3126
12:58:14.035,19.7501,23.2501
12:58:14.045,18.4376,22.0626
12:58:14.054,19.0001,22.9376
12:58:14.066,18.5001,21.8126
12:58:14.076,18.0626,21.6876
12:58:14.085,17.0001,21.2501
12:58:14.095,17.2501,19.3751
12:58:14.106,16.7501,18.8126
12:58:14.115,15.6876,18.8751
12:58:14.128,15.8751,17.6876
12:58:14.155,14.7501,16.3751
12:58:14.158,14.1251,15.5001
12:58:14.161,13.7501,15.0001
12:58:14.165,13.8751,14.5001
12:58:14.204,13.2501,13.1251
12:58:14.207,12.5,12.3125
12:58:14.209,12.125,12.5625
12:58:14.211,11.875,11.5
12:58:14.216,11.3125,10.1875
12:58:14.253,10.625,8.625
12:58:14.256,10.375,9.5625
12:58:14.259,10.375,8.1875
12:58:14.260,10,7.1875
12:58:14.266,9.5,6.9375
12:58:14.295,9.25,6.875
12:58:14.297,8.6875,5.0625
12:58:14.299,7.8125,4.8125
12:58:14.305,7.9375,4.75
12:58:14.315,7.5625,3.0625
12:58:14.325,7,2.5
12:58:14.335,6.625,2.75
12:58:14.349,6.1875,1
12:58:14.355,5.8125,1.0625
12:58:14.365,5.0625,1.25
12:58:14.375,5.0625,-1
12:58:14.385,4.75,-2
12:58:14.395,4.375,-1.625
12:58:14.405,3.25,-2.6875
12:58:14.415,3.5,-3.8125
12:58:14.426,2.9375,-4.3125
12:58:14.435,2.5625,-4.625
12:58:14.445,2.875,-5.1875
12:58:14.455,3,-5.0625
12:58:14.467,2.75,-4.125
12:58:14.476,4.125,-4.125
12:58:14.485,4.8125,-2.9375
12:58:14.495,5.875,0.75
12:58:14.504,8,2.5625
12:58:14.515,8.6875,5
12:58:14.525,10.125,8.625
12:58:14.535,12.25,10.6875
12:58:14.544,13.1251,12.3125
12:58:14.555,13.5626,15.3751
12:58:14.564,14.5626,16.5001
12:58:14.576,15.1251,18.4376
12:58:14.585,16.4376,20.0001
12:58:14.594,16.3751,19.5626
12:58:14.605,16.6251,22.2501
12:58:14.615,17.4376,22.0626
12:58:14.625,17.3751,22.3751
12:58:14.635,18.5001,24.8751
12:58:14.650,18.8126,24.8751
12:58:14.659,19.5001,26.8751
12:58:14.671,19.4376,26.6876
12:58:14.680,19.3751,27.1251
12:58:14.690,19.4376,27.1876
12:58:14.701,19.3751,29.0626
12:58:14.712,19.5001,28.3126
12:58:14.724,18.4376,28.1876
12:58:14.740,18.7501,26.9376
12:58:14.745,18.1251,26.4376
12:58:14.760,17.1251,27.3751
12:58:14.762,17.8751,25.5626
12:58:14.770,16.8126,26.2501
12:58:14.779,17.0001,24.6876
12:58:14.790,16.2501,24.0001
12:58:14.801,16.0001,23.0626
12:58:14.811,16.0626,23.9376
12:58:14.820,15.7501,22.6876
12:58:14.830,15.0001,23.1251
12:58:14.840,16.1876,22.6876
12:58:14.849,14.8126,21.0626
12:58:14.859,15.3751,22.2501
12:58:14.873,14.5626,20.0001
12:58:14.880,14.1251,20.6251
12:58:14.889,14.6876,19.6251
12:58:14.900,13.5001,18.7501
12:58:14.914,12.9375,18.1251
12:58:14.945,11.875,17.3126
12:58:14.948,12.4375,17.0001
12:58:14.950,11.9375,15.1876
12:58:14.952,10.875,16.0001
12:58:14.983,11.25,14.5626
12:58:14.985,10.0625,13.3126
12:58:14.988,10.375,13.2501
12:58:14.991,9.8125,12
12:58:15.032,9.125,11.25
12:58:15.034,8.4375,10.6875
12:58:15.036,8.625,9.8125
12:58:15.039,8.1875,8.25
12:58:15.044,7.375,8.25
12:58:15.050,7.75,6.9375
12:58:15.087,6.75,6.25
12:58:15.088,6.5,6.0625
12:58:15.091,6.75,5.875
12:58:15.093,6.375,4.4375
12:58:15.099,5.4375,3.8125
12:58:15.115,5,2.5625
12:58:15.120,4.375,2.0625
12:58:15.129,4.3125,1.25
12:58:15.142,3.8125,0.4375
12:58:15.150,3,-0.375
12:58:15.159,2.5,-0.5
12:58:15.171,2.625,-1.6875
12:58:15.179,2.25,-1.8125
12:58:15.189,2,-2.625
12:58:15.200,1.8125,-3.375
12:58:15.209,0.8125,-4.5625
12:58:15.221,0.5625,-4.25
12:58:15.230,0.375,-5.3125
12:58:15.241,-0.25,-5.9375
12:58:15.249,-0.5625,-5.9375
12:58:15.260,-0.4375,-8.0625
12:58:15.269,-1.375,-8.125
12:58:15.279,-1.1875,-8.3125
12:58:15.290,-1.5,-9.4375
12:58:15.299,-1.625,-9.5
12:58:15.311,-1.5,-7.6875
12:58:15.320,0,-8
12:58:15.330,0.5625,-5.5
12:58:15.341,1.6875,-3.75
12:58:15.350,3.3125,-1.875
12:58:15.360,5.0625,1.25
12:58:15.370,6.875,4.5625
12:58:15.379,8,7.75
12:58:15.389,10.0625,10.125
12:58:15.400,10.4375,11.875
12:58:15.409,11.8125,13.6876
12:58:15.419,12.3125,15.0626
12:58:15.429,13.2501,16.4376
12:58:15.441,13,18.0001
12:58:15.449,14.1876,18.0626
12:58:15.459,14.1876,18.2501
12:58:15.471,14.1251,20.3126
12:58:15.480,14.8751,20.3126
12:58:15.489,14.8126,20.3751
12:58:15.500,15.1876,22.1876
12:58:15.510,15.6251,21.5626
12:58:15.519,15.1251,22.6876
12:58:15.530,16.4376,22.8126
12:58:15.543,15.8751,22.6251
12:58:15.549,14.5626,21.1251
12:58:15.561,14.3751,21.9376
12:58:15.573,15.3126,21.4376
12:58:15.579,14.3126,20.0001
12:58:15.590,13.3751,19.7501
12:58:15.601,12.875,19.3126
12:58:15.609,13.2501,19.0001
12:58:15.620,12.875,18.3126
12:58:15.649,12.5,17.5001
12:58:15.651,12.3125,18.2501
12:58:15.654,12.1875,17.2501
12:58:15.660,11.75,16.8126
12:58:15.686,11.375,17.7501
12:58:15.688,11.75,16.3126
12:58:15.690,11.375,15.4376
12:58:15.720,11.25,16.0001
12:58:15.724,10.875,15.0001
12:58:15.725,10.375,14.3126
12:58:15.730,10.4375,15.2501
12:58:15.763,10.0625,13.5626
12:58:15.765,9.625,12.9375
12:58:15.768,9.125,13.1251
12:58:15.773,9.6875,12
12:58:15.796,9.25,10.25
12:58:15.797,8,9.875
12:58:15.803,8.0625,10.375
12:58:15.810,8.3125,9
12:58:15.819,7.0625,9
12:58:15.832,7,7.8125
12:58:15.840,6.875,6.9375
12:58:15.850,5.8125,5.5
12:58:15.862,5.5,6.0625
12:58:15.873,5.875,4.9375
12:58:15.880,5.1875,3.9375
12:58:15.890,4.5625,3.25
12:58:15.901,4.4375,2.8125
12:58:15.911,4.5625,1.9375
12:58:15.920,4.4375,1.125
12:58:15.930,3.1875,-0.0625
12:58:15.940,3.25,0.4375
12:58:15.949,3.25,-0.9375
12:58:15.960,2.75,-1.5
12:58:15.970,1.5625,-1.125
12:58:15.980,2.0625,-2.5625
12:58:15.990,0.9375,-4.0625
12:58:16.000,0.375,-4.5625
12:58:16.009,0.5,-4.4375
12:58:16.020,0.8125,-6.0625
12:58:16.040,0,-5.75
12:58:16.046,0.375,-5.875
12:58:16.051,-0.25,-7.375
12:58:16.065,-0.5,-6.75
12:58:16.069,-0.1875,-8.3125
12:58:16.080,-0.375,-8.4375
12:58:16.089,-0.375,-7.3125
12:58:16.100,1,-6.5
12:58:16.111,1.25,-5.4375
12:58:16.119,2.4375,-2.6875
12:58:16.131,4.125,-0.5
12:58:16.140,5.625,2.8125
12:58:16.149,7,4.375
12:58:16.159,9.125,8.25
12:58:16.171,9.75,9.0625
12:58:16.180,11.125,12.5
12:58:16.190,12.0625,13.6251
12:58:16.201,12.4375,14.0001
12:58:16.209,12.5625,15.7501
12:58:16.226,13.3751,16.5001
12:58:16.242,13.0625,16.3751
12:58:16.245,13.2501,17.8126
12:58:16.250,13.5626,17.1251
12:58:16.260,14.1251,18.8751
12:58:16.269,14.0626,18.5626
12:58:16.279,13.7501,18.2501
12:58:16.311,13.6251,19.9376
12:58:16.314,14.0626,18.7501
12:58:16.317,14.1251,19.1251
12:58:16.322,13.8751,18.5001
12:58:16.329,13.125,18.5001
12:58:16.339,13.1251,18.0626
12:58:16.352,12.0625,15.8751
12:58:16.359,12.5625,16.3751
12:58:16.369,11.6875,15.5626
12:58:16.406,11.3125,14.5626
12:58:16.409,11,14.0626
12:58:16.410,10.5625,13.8751
12:58:16.412,10.625,14.1251
12:58:16.446,11.1875,13.1876
12:58:16.448,9.875,11.9375
12:58:16.450,10.25,12.5
12:58:16.453,10.625,12.0625
12:58:16.459,10.1875,11.125
12:58:16.493,9.25,12.25
12:58:16.495,9.3125,10.625
12:58:16.499,8.1875,9.5
12:58:16.501,8.375,9.5
12:58:16.534,8.25,8.8125
12:58:16.537,7.625,7.4375
12:58:16.539,6.5625,7.6875
12:58:16.542,7,7.5
12:58:16.557,6.4375,5.6875
12:58:16.562,6.1875,4.875
12:58:16.570,5.0625,3.75
12:58:16.580,4.625,3.625
12:58:16.592,4.75,2.5625
12:58:16.599,4.625,2.0625
12:58:16.609,3.75,1.0625
12:58:16.623,3.375,0.5
12:58:16.629,2.6875,0.125
12:58:16.640,2.8125,-1.8125
12:58:16.649,2.0625,-2.375
12:58:16.659,1,-2.9375
12:58:16.671,2.375,-3.6875
12:58:16.679,1.125,-4.3125
12:58:16.689,0.5,-5.4375
12:58:16.700,-0.0625,-5.375
12:58:16.710,-0.125,-6.625
12:58:16.720,-0.5625,-7.875
12:58:16.732,-1.375,-7.375
12:58:16.741,-1.375,-8.4375
12:58:16.749,-1.375,-9.0625
12:58:16.759,-2.0625,-9.8125
12:58:16.771,-1.75,-10.25
12:58:16.779,-2.1875,-10.9375
12:58:16.789,-3.125,-12.1875
12:58:16.799,-3.1875,-12.5
12:58:16.810,-2.6875,-12.75
12:58:16.821,-3.9375,-13.1876
12:58:16.829,-3.75,-13.4376
12:58:16.840,-4.25,-15.2501
12:58:16.849,-4.4375,-15.3751
12:58:16.860,-4.6875,-15.4376
12:58:16.869,-5.1875,-16.6251
12:58:16.879,-4.625,-15.1876
12:58:16.890,-4.1875,-15.0001
12:58:16.904,-3.25,-12.875
12:58:16.909,-2.0625,-11.75
12:58:16.920,-0.875,-8.25
12:58:16.931,0.625,-5.875
12:58:16.939,2.6875,-2.75
12:58:16.952,4.375,0.6875
12:58:16.959,6.0625,3.6875
12:58:16.969,7.6875,5.3125
12:58:16.981,8.75,8.625
12:58:16.989,9.3125,10.3125
12:58:16.999,10.25,11.9375
12:58:17.009,10.875,12.125
12:58:17.020,11.25,14.3126
12:58:17.029,11.5625,15.1251
12:58:17.040,12.875,16.6251
12:58:17.050,13.5626,16.3751
12:58:17.059,13.4376,17.6876
12:58:17.070,14.2501,18.6876
12:58:17.080,13.8126,19.1876
12:58:17.107,14.0626,20.5626
12:58:17.110,14.9376,20.0626
12:58:17.111,14.8751,20.8751
12:58:17.148,15.0626,20.6876
12:58:17.151,14.3751,21.2501
12:58:17.153,14.5626,20.3751
12:58:17.155,14.0626,19.6876
12:58:17.161,13.1876,18.0001
12:58:17.192,12.3125,18.6251
12:58:17.194,12.8125,17.1876
12:58:17.196,12.125,16.8126
12:58:17.201,12.0625,16.5001
12:58:17.239,10.8125,16.0001
12:58:17.241,11.5625,14.5001
12:58:17.243,10.9375,15.3751
12:58:17.245,10.9375,14.6251
12:58:17.250,11.3125,13.6251
12:58:17.266,10.375,13
12:58:17.269,9.75,12
12:58:17.282,9.625,12.875
12:58:17.290,9.4375,11.4375
12:58:17.299,9.125,10.75
12:58:17.309,8.5625,10.625
12:58:17.321,8.25,10.1875
12:58:17.342,7.75,8.4375
12:58:17.348,7.75,8.5
12:58:17.350,8,7.5
12:58:17.365,6.5625,6.3125
12:58:17.377,5.9375,6.375
12:58:17.380,5.875,4.9375
12:58:17.393,6.5,4.375
12:58:17.399,5.0625,2.625
12:58:17.409,3.9375,3.25
12:58:17.424,4,1.625
12:58:17.429,3.4375,0.3125
12:58:17.440,2.375,-0.5625
12:58:17.451,2.25,-0.25
12:58:17.459,2.5,-1.4375
12:58:17.471,2.25,-2.75
12:58:17.479,1.3125,-4
12:58:17.489,0.5625,-3.625
12:58:17.499,1.125,-4.5
12:58:17.520,0.9375,-5.0625
12:58:17.522,0.375,-6.1875
12:58:17.538,0.75,-6.9375
12:58:17.540,-0.4375,-7.4375
12:58:17.549,-0.9375,-7.75
12:58:17.560,-0.125,-9.0625
12:58:17.592,-1.5625,-8.6875
12:58:17.594,-1.875,-10.125
12:58:17.597,-1.9375,-10.75
12:58:17.601,-2,-10.8125
12:58:17.610,-2.4375,-11.5625
12:58:17.619,-2.3125,-12.75
12:58:17.632,-3.4375,-13.1876
12:58:17.639,-3.25,-14.2501
12:58:17.650,-3.6875,-14.9376
12:58:17.659,-4.1875,-15.0626
12:58:17.670,-4.125,-15.0626
12:58:17.681,-4.125,-16.0626
12:58:17.689,-4.4375,-17.1876
12:58:17.699,-4.9375,-17.3126
12:58:17.710,-5.1875,-18.3751
12:58:17.719,-5.0625,-18.5001
12:58:17.731,-4.9375,-18.9376
12:58:17.740,-5.3125,-17.7501
12:58:17.755,-4.25,-16.5001
12:58:17.760,-2.625,-15.1251
12:58:17.769,-1.6875,-12.125
12:58:17.781,0.8125,-9.75
12:58:17.789,1.9375,-5.1875
12:58:17.799,4.375,-2.875
12:58:17.809,5.375,0
12:58:17.833,7.75,3.0625
12:58:17.836,8.5625,6.5
12:58:17.864,9.625,7.75
12:58:17.865,10.5625,9.375
12:58:17.868,11.0625,11.1875
12:58:17.871,11.5,11.625
12:58:17.909,12.375,13.5626
12:58:17.912,12.4375,13.8751
12:58:17.914,13.2501,15.6251
12:58:17.916,12.875,14.8126
12:58:17.922,13.6876,16.5626
12:58:17.929,14.5626,17.0001
12:58:17.960,14.7501,17.5001
12:58:17.963,14.5626,18.0001
12:58:17.965,14.7501,18.0626
12:58:17.971,14.5001,19.3751
12:58:18.000,14.5001,18.6251
12:58:18.003,13.7501,18.5626
12:58:18.005,14.3126,18.1251
12:58:18.011,13.8751,16.9376
12:58:18.021,12.8125,16.6876
12:58:18.030,12.4375,16.4376
12:58:18.039,12.5,15.0626
12:58:18.049,12.4375,13.9376
12:58:18.059,11.875,13.8751
12:58:18.069,11.3125,13.0625
12:58:18.079,11.375,13.5626
12:58:18.089,10.9375,12
12:58:18.099,10.5625,12.125
12:58:18.109,10.6875,11.6875
12:58:18.120,10.0625,12.0625
12:58:18.130,10.375,10.9375
12:58:18.140,10.3125,10.625
12:58:18.149,9.375,9
12:58:18.159,8.9375,9.375
12:58:18.169,9,8.5
12:58:18.179,8.5,7.25
12:58:18.189,7.4375,7.4375
12:58:18.200,7.1875,6.3125
12:58:18.209,7.0625,5.0625
12:58:18.220,6.4375,5.125
12:58:18.229,6,4.1875
12:58:18.239,6.125,2.875
12:58:18.249,5.125,2.9375
12:58:18.260,5.3125,1.75
12:58:18.269,5.5625,0.5625
12:58:18.279,4.5625,-0.25
12:58:18.313,3.4375,-1.5625
12:58:18.317,3,-1
12:58:18.318,3.4375,-2.3125
12:58:18.325,2.9375,-3.9375
12:58:18.334,2.1875,-4.75
12:58:18.344,2.1875,-4.25
12:58:18.354,2.25,-5.5
12:58:18.364,1.25,-6.5
12:58:18.374,0.4375,-6.125
12:58:18.388,1,-7.125
12:58:18.396,0.375,-8.3125
12:58:18.404,-0.6875,-9.875
12:58:18.414,-0.9375,-9.375
12:58:18.424,-0.8125,-9.9375
12:58:18.434,-1.125,-11.25
12:58:18.444,-1.5,-11.1875
12:58:18.454,-2.3125,-12.5625
12:58:18.464,-2.3125,-13.3751
12:58:18.475,-3.0625,-13.3126
12:58:18.484,-3,-15.1876
12:58:18.494,-4.125,-15.3751
12:58:18.507,-4.25,-16.3126
12:58:18.514,-4.5625,-17.5626
12:58:18.524,-4.625,-16.4376
12:58:18.546,-5.375,-18.4376
12:58:18.549,-5.4375,-18.5626
12:58:18.578,-5.4375,-19.0626
12:58:18.580,-5.75,-19.9376
12:58:18.582,-6.875,-20.1251
12:58:18.585,-6.75,-20.6251
12:58:18.620,-7.1875,-21.9376
12:58:18.622,-7,-21.6876
12:58:18.624,-6.9375,-22.0626
12:58:18.629,-7.5,-22.3126
12:58:18.661,-6.5625,-22.5001
12:58:18.695,-6.75,-21.2501
12:58:18.697,-4.75,-20.1876
12:58:18.710,-4.125,-16.9376
12:58:18.710,-2.3125,-13.8126
12:58:18.710,0.1875,-10.5625
12:58:18.716,1.625,-6.1875
12:58:18.725,3.875,-4.125
12:58:18.734,5.0625,-0.25
12:58:18.746,6.875,2.4375
12:58:18.756,7.625,3.1875
12:58:18.764,9.25,6.6875
12:58:18.774,10.1875,7.75
12:58:18.784,9.8125,9.375
12:58:18.794,10.5625,10.9375
12:58:18.816,11.5,10.75
12:58:18.821,11.4375,13.0625
12:58:18.835,11.875,12.8125
12:58:18.875,12.875,14.0626
12:58:18.877,13.5001,14.7501
12:58:18.878,13.7501,15.5626
12:58:18.881,14.5001,17.1876
12:58:18.888,14.6251,17.7501
12:58:18.888,14.1876,17.0001
12:58:18.900,13.4376,16.6251
12:58:18.906,13.4376,15.7501
12:58:18.914,12.3125,14.5001
12:58:18.925,11.6875,15.0626
12:58:18.934,12.0625,13.6251
12:58:18.944,11.625,12.875
12:58:18.956,11.125,12.8125
12:58:18.964,11.1875,12.8125
12:58:18.974,11.125,11.8125
12:58:18.984,10.9375,10.8125
12:58:18.994,10.8125,10.625
12:58:19.004,10,10.75
12:58:19.015,9,11.375
12:58:19.024,9.5,10.1875
12:58:19.035,8.8125,9.0625
12:58:19.044,8.5,8.4375
12:58:19.057,8.1875,8.125
12:58:19.064,8.1875,8.125
12:58:19.074,7.6875,7
12:58:19.084,6.8125,6.625
12:58:19.094,6.375,6.4375
12:58:19.107,6.9375,4.8125
12:58:19.114,5,3.25
12:58:19.125,2.875,2.1875
12:58:19.134,-1,-0.75
12:58:19.144,-6.0625,-5.1875
12:58:19.154,-15.3751,-11.5
12:58:19.164,-25.6251,-17.5001
12:58:19.174,-33.7501,-22.8126
12:58:19.186,-40.1877,-25.3126
12:58:19.196,-44.1252,-26.9376
12:58:19.205,-42.7502,-23.1876
12:58:19.214,-40.6877,-20.2501
12:58:19.227,-41.1877,-20.0001
12:58:19.234,-41.5627,-19.5001
12:58:19.244,-42.9377,-18.5626
12:58:19.255,-43.0002,-19.5626
12:58:19.264,-45.6877,-20.6251
12:58:19.278,-54.5627,-32.4376
12:58:19.286,-52.8127,-30.3751
12:58:19.294,-50.5627,-28.9376
12:58:19.311,-48.6877,-28.1876
12:58:19.314,-47.0627,-27.3751
12:58:19.337,-45.0002,-27.2501
12:58:19.340,-44.8752,-26.2501
12:58:19.352,-44.0002,-26.7501
12:58:19.356,-42.3752,-27.5626
12:58:19.386,-41.6877,-26.5001
12:58:19.388,-41.1252,-28.1876
12:58:19.392,-39.2501,-28.0001
12:58:19.395,-36.5001,-27.1876
12:58:19.433,-34.5626,-27.0626
12:58:19.435,-31.5001,-25.8126
12:58:19.438,-27.6251,-22.9376
12:58:19.440,-21.8751,-18.2501
12:58:19.445,-17.1251,-12.6875
12:58:19.470,-11.1875,-5.125
12:58:19.473,-7.25,-1.25
12:58:19.477,-6.5625,1.5
12:58:19.484,-6.4375,1.625
12:58:19.494,-7.75,0.375
12:58:19.504,-9.3125,-0.4375
12:58:19.514,-10.5,-1.125
12:58:19.524,-11.8125,-0.875
12:58:19.534,-11.9375,-0.6875
12:58:19.544,-12.1875,0.1875
12:58:19.556,-9.6875,2.3125
12:58:19.566,-8.3125,3.6875
12:58:19.574,-8.5,5.4375
12:58:19.584,-8.5,5.5625
12:58:19.594,-9.8125,3.8125
12:58:19.604,-13.3126,2.0625
12:58:19.617,-18.6876,-2.6875
12:58:19.625,-16.6251,-1.625
12:58:19.634,-12.3125,1.3125
12:58:19.652,-9,2.75
12:58:19.654,-6.125,2.625
12:58:19.668,-4.5,3.8125
12:58:19.674,-1.5,6.0625
12:58:19.685,1.625,10.3125
12:58:19.694,5.75,17.3751
12:58:19.704,8.375,20.0626
12:58:19.714,9.5,23.1251
12:58:19.724,11.3125,27.3126
12:58:19.737,14.8751,30.8751
12:58:19.744,16.9376,33.5626
12:58:19.754,15.5001,32.8751
12:58:19.764,9.875,29.8751
12:58:19.774,2.3125,23.6251
12:58:19.787,-2.625,21.2501
12:58:19.795,-3.6875,22.0626
12:58:19.804,-1.6875,23.9376
12:58:19.814,-0.125,27.2501
12:58:19.825,3.3125,27.0001
12:58:19.837,2.625,24.2501
12:58:19.845,-3.5625,17.0626
12:58:19.854,-11.3125,7.9375
12:58:19.864,-17.6251,-0.6875
12:58:19.874,-22.1876,-6.125
12:58:19.884,-20.8751,-5.6875
12:58:19.894,-14.6251,-4.0625
12:58:19.905,-12.3125,-5.3125
12:58:19.916,-9.125,-4.5625
12:58:19.926,-2.4375,-0.3125
12:58:19.945,3.5625,2.5
12:58:19.952,11.5625,9.0625
12:58:19.954,21.0626,18.1251
12:58:19.969,29.4376,28.4376
12:58:19.978,33.6876,33.1876
12:58:19.985,34.0001,36.6251
12:58:19.995,34.8751,39.1876
12:58:20.006,38.0626,41.1252
12:58:20.014,41.0002,43.4377
12:58:20.041,43.4377,45.9377
12:58:20.043,42.4377,44.1877
12:58:20.046,38.7501,41.4377
12:58:20.076,31.8126,36.3126
12:58:20.080,22.8126,30.3751
12:58:20.081,17.6251,26.9376
12:58:20.084,16.0626,28.1251
12:58:20.114,17.5001,30.8126
12:58:20.116,17.4376,32.0001
12:58:20.153,16.2501,30.5001
12:58:20.181,12.1875,24.7501
12:58:20.210,5.4375,17.3126
12:58:20.210,-2.5625,9.25
12:58:20.210,-10.375,0.5
12:58:20.225,-16.6876,-8.9375
12:58:20.228,-23.3126,-18.0626
12:58:20.234,-28.2501,-23.8751
12:58:20.234,-30.5001,-30.1876
12:58:20.235,-29.0626,-31.1876
12:58:20.244,-26.8126,-32.5626
12:58:20.254,-20.5626,-29.5001
12:58:20.264,-13.8126,-25.6251
12:58:20.275,-11.6875,-25.3126
12:58:20.285,-8.75,-21.6876
12:58:20.294,-4.9375,-18.0001
12:58:20.305,-5.9375,-17.4376
12:58:20.314,-11.5,-20.4376
12:58:20.324,-12.25,-19.5626
12:58:20.335,-8.25,-9.75
12:58:20.344,-45.6252,4.8125
12:58:20.354,-72.8128,-1.9375
12:58:20.365,-109.8754,-25.6876
12:58:20.375,-145.7505,-51.8752
12:58:20.384,-181.0632,-80.8128
12:58:20.394,-252.376,-148.1881
12:58:20.406,-242.8759,-141.813
12:58:20.414,-223.5634,-124.688
12:58:20.424,-205.4383,-104.1879
12:58:20.434,-190.7507,-90.6254
12:58:20.445,-181.4382,-82.1253
12:58:20.456,-176.1257,-79.3753
12:58:20.468,-173.6257,-77.9378
12:58:20.475,-171.8132,-75.5628
12:58:20.485,-169.4381,-75.0628
12:58:20.494,-166.0006,-72.5628
12:58:20.504,-161.3756,-69.4378
12:58:20.514,-151.4381,-60.7502
12:58:20.524,-138.2505,-51.1877
12:58:20.536,-121.8755,-35.6876
12:58:20.546,-109.1879,-23.9376
12:58:20.555,-104.9379,-19.6251
12:58:20.565,-105.5629,-18.5001
12:58:20.574,-105.9379,-18.7501
12:58:20.584,-110.0629,-20.5001
12:58:20.594,-116.4379,-25.0626
12:58:20.605,-121.563,-28.4376
12:58:20.614,-124.2505,-31.8751
12:58:20.626,-122.0005,-29.0001
12:58:20.635,-119.188,-25.6876
12:58:20.645,-115.4379,-22.9376
12:58:20.655,-111.5629,-17.1876
