timestamp,Red,IR
11:43:38.323,43.1877,69.6878
11:43:38.332,37.8126,61.6877
11:43:38.342,32.3751,53.6252
11:43:38.363,26.3126,43.7502
11:43:38.366,21.6876,34.6251
11:43:38.371,17.0001,25.7501
11:43:38.402,13.125,18.6876
11:43:38.404,9.5625,12.125
11:43:38.409,7.75,6.125
11:43:38.412,6.25,2.125
11:43:38.440,4.625,0.3125
11:43:38.441,3.8125,-1.625
11:43:38.465,2.9375,-1.9375
11:43:38.468,2.375,-2.125
11:43:38.470,2,-3.5625
11:43:38.476,1.75,-3.1875
11:43:38.503,0.6875,-4.5625
11:43:38.506,-0.75,-5.9375
11:43:38.508,-1.75,-7.5625
11:43:38.528,-3.1875,-11.3125
11:43:38.530,-5.5,-14.2501
11:43:38.537,-6.875,-18.9376
11:43:38.547,-9.75,-24.0001
11:43:38.556,-12.8125,-28.9376
11:43:38.567,-16.6876,-35.1251
11:43:38.577,-20.6876,-42.6252
11:43:38.586,-24.3751,-48.8127
11:43:38.596,-30.5626,-59.8752
11:43:38.607,-33.3751,-67.3753
11:43:38.617,-38.5001,-75.0003
11:43:38.626,-41.1877,-81.8753
11:43:38.637,-45.3752,-88.4378
11:43:38.646,-49.2502,-95.5004
11:43:38.666,-54.0002,-102.2504
11:43:38.668,-56.6877,-108.8129
11:43:38.676,-60.2502,-114.2504
11:43:38.687,-63.1877,-120.3755
11:43:38.698,-65.0002,-125.188
11:43:38.706,-67.2503,-131.188
11:43:38.723,-69.8128,-135.688
11:43:38.731,-71.6878,-140.563
11:43:38.737,-75.4378,-145.063
11:43:38.779,-76.3128,-147.8756
11:43:38.784,-73.9378,-145.313
11:43:38.785,-63.5627,-129.688
11:43:38.786,-42.0627,-96.8754
11:43:38.794,-12.0625,-43.8752
11:43:38.798,18.0001,9.625
11:43:38.806,42.0627,55.8127
11:43:38.817,61.4377,91.1254
11:43:38.826,74.1878,116.4379
11:43:38.836,82.5628,132.1255
11:43:38.846,87.3128,140.6255
11:43:38.857,87.8128,145.0005
11:43:38.866,86.3753,144.563
11:43:38.892,83.8753,143.313
11:43:38.894,80.2503,138.938
11:43:38.897,76.4378,134.688
11:43:38.907,72.1253,128.0005
11:43:38.916,68.6253,123.3755
11:43:38.927,64.3127,115.8754
11:43:38.937,60.3127,110.7504
11:43:38.947,56.8127,103.5629
11:43:38.957,52.5627,98.0629
11:43:38.967,48.5627,91.5004
11:43:38.976,45.1252,85.0628
11:43:38.986,41.6877,79.0628
11:43:38.997,37.1876,71.5003
11:43:39.007,32.0001,63.1252
11:43:39.018,26.8751,53.8127
11:43:39.027,21.5626,44.0002
11:43:39.046,16.8126,35.5626
11:43:39.050,13.125,27.8126
11:43:39.089,8.9375,21.3126
11:43:39.092,7.9375,16.7501
11:43:39.094,6.6875,14.0626
11:43:39.099,6.875,11.75
11:43:39.103,5.9375,11
11:43:39.115,5.875,10.8125
11:43:39.118,5.625,9.3125
11:43:39.151,5.375,10.375
11:43:39.153,6.125,9.625
11:43:39.155,6.1875,9.75
11:43:39.164,6.625,7.6875
11:43:39.177,5.1875,5.8125
11:43:39.180,3.8125,1.875
11:43:39.220,2.0625,-1.875
11:43:39.220,-0.9375,-6.25
11:43:39.224,-3.6875,-11.0625
11:43:39.231,-5.9375,-15.8751
11:43:39.231,-8.6875,-22.6876
11:43:39.239,-10.1875,-27.3126
11:43:39.248,-12.625,-33.8126
11:43:39.257,-16.3751,-40.0002
11:43:39.267,-19.3751,-47.1252
11:43:39.276,-24.1251,-53.9377
11:43:39.287,-27.5626,-60.3752
11:43:39.298,-31.0626,-67.0628
11:43:39.306,-35.0626,-72.4378
11:43:39.316,-37.9376,-79.1878
11:43:39.327,-40.3127,-84.5003
11:43:39.337,-42.6877,-88.8753
11:43:39.347,-44.9377,-94.0629
11:43:39.357,-47.6877,-99.1254
11:43:39.366,-49.9377,-104.7504
11:43:39.378,-53.0627,-108.9379
11:43:39.387,-55.1252,-112.8129
11:43:39.396,-57.1877,-117.5629
11:43:39.415,-58.7502,-121.563
11:43:39.416,-57.7502,-121.5005
11:43:39.427,-52.3127,-113.0629
11:43:39.437,-36.5626,-90.8129
11:43:39.447,-13.5001,-50.5002
11:43:39.457,14.4376,-0.5625
11:43:39.466,39.6877,44.6252
11:43:39.479,60.3752,84.6878
11:43:39.488,76.4378,112.4379
11:43:39.497,85.4378,132.3755
11:43:39.507,90.5004,143.5005
11:43:39.516,92.1254,150.1881
11:43:39.526,91.3754,150.8756
11:43:39.538,89.2503,150.9381
11:43:39.547,85.8753,148.0006
11:43:39.556,83.8128,145.438
11:43:39.567,80.0003,141.3755
11:43:39.578,77.1253,137.563
11:43:39.586,73.0628,131.438
11:43:39.597,69.6878,127.063
11:43:39.606,65.6877,121.1255
11:43:39.618,62.0002,117.0629
11:43:39.627,59.1252,111.4379
11:43:39.637,55.1252,106.7504
11:43:39.647,51.9377,101.0629
11:43:39.658,47.7502,95.5004
11:43:39.667,43.7502,88.0003
11:43:39.676,39.6252,80.6878
11:43:39.686,34.9376,72.6878
11:43:39.697,30.9376,65.5002
11:43:39.707,27.3126,58.2502
11:43:39.716,23.0626,52.8127
11:43:39.727,20.4376,48.8127
11:43:39.737,18.3126,45.5002
11:43:39.747,15.7501,43.8127
11:43:39.757,15.9376,42.0002
11:43:39.767,14.3126,40.8127
11:43:39.776,13.6876,41.1252
11:43:39.814,13.0625,39.3126
11:43:39.815,11.9375,38.8751
11:43:39.817,11.6875,37.4376
11:43:39.819,9.75,36.3126
11:43:39.858,7.375,34.3751
11:43:39.859,5.5625,29.8751
11:43:39.861,2.75,25.9376
11:43:39.865,0.25,21.8126
11:43:39.871,-2.75,17.4376
11:43:39.884,-6.0625,12.3125
11:43:39.889,-9.4375,7.125
11:43:39.921,-12.125,0.4375
11:43:39.923,-16.6876,-4.8125
11:43:39.927,-19.1876,-10.5625
11:43:39.933,-22.6251,-16.6251
11:43:39.945,-25.5001,-22.5001
11:43:39.948,-27.8126,-27.5626
11:43:39.972,-31.0626,-32.0001
11:43:39.974,-33.6251,-37.3751
11:43:39.977,-36.5001,-43.0002
11:43:39.986,-39.3127,-47.8127
11:43:39.996,-42.5627,-53.6252
11:43:40.006,-45.3127,-60.1252
11:43:40.016,-48.4377,-64.8127
11:43:40.026,-49.8752,-69.8128
11:43:40.058,-52.9377,-74.1253
11:43:40.063,-55.5002,-80.0628
11:43:40.065,-56.2502,-81.6878
11:43:40.068,-53.6252,-79.2503
11:43:40.100,-44.2502,-65.1252
11:43:40.104,-27.9376,-38.7501
11:43:40.107,-7.25,-4.25
11:43:40.123,13.125,33.8126
11:43:40.124,32.1251,67.1878
11:43:40.126,47.0002,94.5004
11:43:40.137,56.3752,114.1254
11:43:40.146,63.0627,127.2505
11:43:40.172,65.5627,135.7505
11:43:40.175,67.3128,140.688
11:43:40.176,65.5003,142.8755
11:43:40.186,64.5002,142.7505
11:43:40.197,61.5002,141.3755
11:43:40.206,59.2502,139.313
11:43:40.216,56.7502,136.8755
11:43:40.227,55.6252,133.938
11:43:40.236,53.5627,131.563
11:43:40.246,51.3127,127.2505
11:43:40.256,48.4377,124.6255
11:43:40.267,46.5627,120.3755
11:43:40.277,43.1877,115.8754
11:43:40.288,39.5627,111.4379
11:43:40.296,36.3751,105.7504
11:43:40.307,32.2501,98.8754
11:43:40.317,28.8751,92.0629
11:43:40.327,25.3751,84.8753
11:43:40.336,21.1876,78.0003
11:43:40.346,18.6876,70.4378
11:43:40.357,14.6876,64.1252
11:43:40.367,11.6875,58.6252
11:43:40.377,10.0625,53.3752
11:43:40.387,8.25,49.5627
11:43:40.396,7.5625,48.1252
11:43:40.407,7.0625,45.6877
11:43:40.417,6.5,44.6877
11:43:40.427,6.0625,42.8127
11:43:40.438,5.5625,42.0002
11:43:40.446,5.75,40.5002
11:43:40.457,4.5,38.7501
11:43:40.467,4.25,36.3126
11:43:40.477,2.75,33.5626
11:43:40.487,0.375,29.6876
11:43:40.497,-2.25,24.9376
11:43:40.507,-3.9375,20.5001
11:43:40.517,-7.8125,15.6251
11:43:40.526,-10.5,10
11:43:40.538,-13.5001,4.375
11:43:40.547,-16.5626,-1.0625
11:43:40.561,-19.1876,-7.6875
11:43:40.568,-21.8751,-14.0001
11:43:40.600,-25.1876,-19.2501
11:43:40.601,-28.0001,-25.4376
11:43:40.604,-31.0626,-30.8126
11:43:40.606,-33.4376,-36.3751
11:43:40.641,-36.9376,-42.0627
11:43:40.643,-39.2502,-47.6252
11:43:40.645,-42.6252,-52.3752
11:43:40.655,-45.1877,-58.0627
11:43:40.657,-47.6252,-63.8127
11:43:40.687,-50.0002,-67.3753
11:43:40.689,-52.6877,-72.3128
11:43:40.694,-54.7502,-76.8753
11:43:40.697,-57.0002,-81.5003
11:43:40.728,-57.6252,-85.5628
11:43:40.732,-60.4377,-89.1253
11:43:40.733,-61.3752,-93.6879
11:43:40.739,-60.9377,-93.4379
11:43:40.749,-56.2502,-88.1253
11:43:40.757,-44.0002,-69.8128
11:43:40.767,-26.4376,-39.8127
11:43:40.777,-5.0625,-4.5625
11:43:40.786,17.0001,34.2501
11:43:40.796,34.1251,67.8128
11:43:40.806,48.2502,93.5629
11:43:40.817,57.0627,112.3129
11:43:40.827,62.7502,125.688
11:43:40.837,65.9378,135.438
11:43:40.846,67.6253,140.688
11:43:40.856,68.0628,144.188
11:43:40.867,66.3753,144.7505
11:43:40.876,64.8127,143.6255
11:43:40.888,62.0627,142.563
11:43:40.896,59.7502,138.8755
11:43:40.906,56.5627,136.938
11:43:40.917,54.9377,133.063
11:43:40.927,54.0002,130.3755
11:43:40.937,51.1252,126.7505
11:43:40.947,49.8127,123.063
11:43:40.956,45.6877,119.063
11:43:40.967,42.8127,114.0629
11:43:40.977,38.2501,108.0629
11:43:40.987,33.1876,101.6879
11:43:40.998,28.8751,93.0629
11:43:41.008,23.7501,85.5003
11:43:41.017,19.7501,77.5628
11:43:41.026,16.1876,69.6253
11:43:41.036,13.1876,63.4377
11:43:41.047,10.3125,57.3127
11:43:41.058,7.75,52.3752
11:43:41.066,6.0625,48.6252
11:43:41.076,4.3125,44.7502
11:43:41.086,2.75,42.6252
11:43:41.096,2.1875,40.6877
11:43:41.108,1.75,39.1251
11:43:41.116,1.125,38.1876
11:43:41.127,1.3125,36.4376
11:43:41.137,0.4375,35.0001
11:43:41.147,-1.6875,31.8126
11:43:41.156,-3.25,27.8751
11:43:41.167,-4.9375,23.9376
11:43:41.177,-7.375,19.8126
11:43:41.186,-9.75,15.1251
11:43:41.196,-13.7501,9.5625
11:43:41.207,-16.8751,3.6875
11:43:41.217,-20.5001,-2.4375
11:43:41.226,-24.3751,-8.125
11:43:41.236,-26.6251,-14.7501
11:43:41.247,-30.0626,-20.0626
11:43:41.257,-32.6876,-26.5001
11:43:41.267,-35.9376,-33.5001
11:43:41.282,-39.1876,-39.1876
11:43:41.286,-41.8752,-45.5627
11:43:41.315,-45.8752,-51.5002
11:43:41.316,-48.3752,-56.8752
11:43:41.319,-51.3127,-62.4377
11:43:41.350,-53.5627,-67.1253
11:43:41.384,-56.0627,-71.5003
11:43:41.386,-57.1877,-75.8753
11:43:41.420,-59.4377,-78.8128
11:43:41.453,-60.8752,-84.0003
11:43:41.454,-63.4377,-87.3128
11:43:41.454,-65.1252,-92.2504
11:43:41.458,-67.2503,-95.3754
11:43:41.471,-69.7503,-99.4379
11:43:41.488,-71.6878,-102.7504
11:43:41.488,-74.0628,-105.5004
11:43:41.488,-74.7503,-109.5004
11:43:41.490,-73.3753,-109.1879
11:43:41.505,-68.1878,-101.9379
11:43:41.513,-56.3127,-85.3128
11:43:41.514,-37.0626,-55.3752
11:43:41.521,-14.6876,-17.5626
11:43:41.532,6.1875,20.5001
11:43:41.542,25.9376,54.4377
11:43:41.551,38.8126,81.7503
11:43:41.561,49.5002,102.0004
11:43:41.571,54.6252,116.5629
11:43:41.582,58.3752,125.063
11:43:41.592,61.0002,143.563
11:43:41.603,58.3752,142.688
11:43:41.612,56.5627,139.563
11:43:41.621,54.1877,137.188
11:43:41.631,51.8752,133.7505
11:43:41.642,49.1252,129.1255
11:43:41.651,47.4377,125.563
11:43:41.661,44.3752,121.1255
11:43:41.671,40.8752,117.6255
11:43:41.681,37.5626,110.5004
11:43:41.691,33.4376,105.8754
11:43:41.702,28.7501,97.2504
11:43:41.711,24.4376,89.8753
11:43:41.721,19.8751,81.8128
11:43:41.732,15.5626,74.1253
11:43:41.742,12.375,67.3128
11:43:41.751,7.9375,60.1252
11:43:41.762,6.0625,55.0627
11:43:41.772,4.0625,50.1252
11:43:41.781,1.9375,46.5002
11:43:41.792,1.8125,43.9377
11:43:41.803,0.75,42.0002
11:43:41.811,0.4375,40.8752
11:43:41.821,0.6875,38.5001
11:43:41.831,-1.5625,36.9376
11:43:41.841,-1.5625,34.6876
11:43:41.852,-3.625,32.6251
11:43:41.861,-3.875,29.1876
11:43:41.878,-6.75,25.6251
11:43:41.883,-8,21.3126
11:43:41.892,-11.5625,17.0001
11:43:41.901,-14.5001,12.0625
11:43:41.911,-16.8126,5.6875
11:43:41.922,-20.5626,0.875
11:43:41.933,-22.8126,-5.8125
11:43:41.942,-26.5001,-10.5
11:43:41.951,-28.9376,-17.0626
11:43:41.962,-32.7501,-22.6251
11:43:41.972,-35.5626,-29.6876
11:43:41.983,-39.5627,-35.6876
11:43:41.991,-42.5002,-42.4377
11:43:42.020,-45.9377,-48.0002
11:43:42.021,-48.5002,-54.6252
11:43:42.024,-51.6252,-59.1252
11:43:42.064,-53.7502,-65.4377
11:43:42.064,-57.2502,-69.2503
11:43:42.067,-59.3127,-75.6253
11:43:42.069,-61.6877,-78.5628
11:43:42.075,-63.3127,-84.3128
11:43:42.081,-64.5002,-86.5003
11:43:42.106,-66.1878,-90.6879
11:43:42.112,-67.1253,-94.0004
11:43:42.113,-68.8128,-96.8129
11:43:42.144,-70.1878,-100.5004
11:43:42.146,-71.1253,-103.8754
11:43:42.149,-71.9378,-106.1879
11:43:42.153,-73.3753,-109.2504
11:43:42.186,-74.5628,-112.1879
11:43:42.188,-74.9378,-113.3754
11:43:42.190,-74.1253,-113.0629
11:43:42.197,-66.8753,-103.5004
11:43:42.203,-53.6252,-81.7503
11:43:42.211,-33.1876,-51.1877
11:43:42.222,-10.5625,-12.375
11:43:42.231,10,25.2501
11:43:42.241,27.9376,58.1877
11:43:42.254,42.0627,84.1253
11:43:42.262,51.0002,102.8754
11:43:42.271,56.9377,115.8754
11:43:42.282,59.3127,125.7505
11:43:42.291,61.0002,129.813
11:43:42.302,60.1252,133.1255
11:43:42.311,59.5002,132.3755
11:43:42.323,57.8127,131.188
11:43:42.331,55.3127,129.8755
11:43:42.342,52.9377,126.0005
11:43:42.351,51.4377,123.6255
11:43:42.362,49.0627,121.2505
11:43:42.372,47.6877,116.5629
11:43:42.383,45.6252,112.5004
11:43:42.392,43.5002,108.6254
11:43:42.402,41.2502,104.1254
11:43:42.412,37.8126,99.2504
11:43:42.422,34.7501,93.2504
11:43:42.431,30.0001,86.5628
11:43:42.442,26.7501,79.4378
11:43:42.451,21.9376,71.3128
11:43:42.461,18.1251,64.1877
11:43:42.476,15.4376,55.8752
11:43:42.489,11.0625,50.2502
11:43:42.498,9.4375,44.0627
11:43:42.509,7.6875,40.8752
11:43:42.516,6.875,37.1876
11:43:42.526,6.375,35.1251
11:43:42.537,6.4375,33.5626
11:43:42.547,5.5625,30.9376
11:43:42.558,5.5625,30.8751
11:43:42.567,4.9375,28.1251
11:43:42.576,4.875,26.9376
11:43:42.587,3.9375,25.1876
11:43:42.597,1.875,22.4376
11:43:42.607,0,17.3126
11:43:42.618,-1.75,13.8751
11:43:42.626,-4.3125,8.5625
11:43:42.637,-7.5,1.5
11:43:42.647,-9.8125,-3
11:43:42.656,-13.1251,-7.875
11:43:42.667,-15.7501,-15.1251
11:43:42.676,-19.1876,-22.1876
11:43:42.686,-22.5001,-27.1876
11:43:42.697,-26.1251,-34.4376
11:43:42.706,-29.1876,-40.8127
11:43:42.733,-33.5626,-47.8752
11:43:42.734,-36.7501,-53.3127
11:43:42.743,-40.0627,-59.6877
11:43:42.756,-43.4377,-65.6878
11:43:42.760,-46.1877,-70.0628
11:43:42.864,-48.0627,-76.0628
11:43:42.865,-51.1252,-80.2503
11:43:42.928,-52.8752,-84.3128
11:43:42.930,-55.0002,-89.4378
11:43:42.930,-56.1252,-91.4379
11:43:42.930,-57.5002,-95.3129
11:43:42.932,-58.6252,-97.8129
11:43:42.934,-59.8127,-101.2504
11:43:42.941,-60.6252,-102.6254
11:43:42.941,-61.3127,-104.8129
11:43:42.941,-62.2502,-108.0004
11:43:42.948,-63.5002,-109.3129
11:43:42.956,-64.2502,-113.1254
11:43:42.967,-64.8752,-114.4379
11:43:42.976,-66.4378,-118.2505
11:43:42.987,-65.8753,-119.6255
11:43:43.000,-64.7502,-117.3754
11:43:43.006,-57.8752,-110.3129
11:43:43.017,-42.7502,-88.8753
11:43:43.027,-22.6251,-56.0002
11:43:43.037,-0.8125,-17.5626
11:43:43.046,20.8751,20.2501
11:43:43.057,79.4378,141.438
11:43:43.066,77.6253,141.3755
11:43:43.077,75.1878,139.188
11:43:43.087,72.5628,135.8755
11:43:43.096,69.6253,131.563
11:43:43.106,65.8753,126.938
11:43:43.116,63.5627,123.1255
11:43:43.126,59.5627,119.188
11:43:43.136,57.3127,114.5629
11:43:43.147,55.0002,110.6254
11:43:43.158,51.9377,104.8129
11:43:43.166,49.4377,99.3754
11:43:43.177,44.5627,93.4379
11:43:43.187,40.2502,83.9378
11:43:43.196,36.1876,75.3128
11:43:43.207,31.1876,66.9378
11:43:43.216,26.9376,58.7502
11:43:43.227,22.7501,52.1877
11:43:43.236,20.8751,46.3127
11:43:43.246,18.3126,42.4377
11:43:43.256,17.3126,39.6877
11:43:43.266,16.5001,36.1876
11:43:43.277,16.0626,36.1876
11:43:43.286,15.9376,34.3751
11:43:43.297,15.9376,34.1251
11:43:43.307,15.8751,33.1251
11:43:43.316,15.1251,32.0001
11:43:43.327,14.5001,29.5626
11:43:43.336,13.0625,27.1251
11:43:43.346,10.75,23.0001
11:43:43.357,8.5625,18.3126
11:43:43.366,5.75,13.7501
11:43:43.378,2.8125,7.5625
11:43:43.387,-0.375,2.3125
11:43:43.396,-2.875,-3.6875
11:43:43.407,-7.125,-9.625
11:43:43.417,-9.8125,-16.2501
11:43:43.426,-14.1251,-22.4376
11:43:43.437,-17.3751,-28.8751
11:43:43.447,-21.3126,-35.4376
11:43:43.477,-24.0001,-41.3752
11:43:43.480,-28.7501,-47.8127
11:43:43.483,-31.1251,-53.3752
11:43:43.488,-35.2501,-58.8127
11:43:43.516,-37.8126,-64.1877
11:43:43.519,-40.8752,-68.5628
11:43:43.521,-42.7502,-73.2503
11:43:43.528,-45.1252,-77.8753
11:43:43.555,-47.2502,-80.6253
11:43:43.561,-49.1877,-84.9378
11:43:43.563,-50.5627,-88.5628
11:43:43.568,-52.4377,-90.6254
11:43:43.581,-53.3127,-94.8129
11:43:43.587,-55.1877,-96.8754
11:43:43.619,-56.2502,-100.5004
11:43:43.622,-58.3752,-102.6879
11:43:43.624,-59.1252,-107.0629
11:43:43.629,-61.7502,-109.8754
11:43:43.637,-62.9377,-112.5629
11:43:43.646,-62.3752,-113.1879
11:43:43.657,-57.3127,-106.6879
11:43:43.666,-45.5002,-87.6878
11:43:43.677,-27.0626,-59.3752
11:43:43.686,-4.625,-20.6876
11:43:43.696,15.7501,18.4376
11:43:43.706,34.9376,52.6877
11:43:43.717,48.6877,81.0628
11:43:43.726,57.6877,101.6879
11:43:43.736,63.8127,114.7504
11:43:43.753,67.5003,124.8755
11:43:43.756,68.2503,130.3755
11:43:43.767,69.0003,133.3755
11:43:43.777,67.3128,135.8755
11:43:43.786,66.0003,133.6255
11:43:43.797,63.1877,132.1255
11:43:43.806,60.8127,130.438
11:43:43.817,58.4377,126.3755
11:43:43.827,56.6877,123.8755
11:43:43.837,53.6877,121.938
11:43:43.846,51.8127,117.2504
11:43:43.857,49.9377,115.0629
11:43:43.867,47.1877,110.3129
11:43:43.877,43.6252,106.7504
11:43:43.887,40.0627,100.8129
11:43:43.897,36.0001,94.6879
11:43:43.906,31.8126,88.0628
11:43:43.917,26.7501,78.6253
11:43:43.926,22.5001,71.1253
11:43:43.936,17.2501,61.1877
11:43:43.947,12,52.7502
11:43:43.956,7.9375,45.0002
11:43:43.966,4.0625,38.1251
11:43:43.976,0.875,31.8751
11:43:43.986,-1.9375,27.6876
11:43:44.012,-2.375,24.6876
11:43:44.015,-4.125,23.0001
11:43:44.019,-3.75,20.7501
11:43:44.026,-4.625,18.6876
11:43:44.037,-5.875,17.8751
11:43:44.046,-6.125,14.7501
11:43:44.058,-7.875,13.1876
11:43:44.067,-9,8.75
11:43:44.076,-11.6875,5.5
11:43:44.086,-13.1251,0.375
11:43:44.096,-16.2501,-3.25
11:43:44.106,-18.1876,-9.5
11:43:44.117,-21.3751,-14.3126
11:43:44.130,-24.0001,-20.6876
11:43:44.145,-27.6876,-26.5626
11:43:44.147,-31.0001,-33.6876
11:43:44.181,-34.9376,-39.0001
11:43:44.184,-38.0626,-47.6252
11:43:44.248,-42.5002,-53.0627
11:43:44.248,-45.8127,-60.8752
11:43:44.250,-49.6877,-66.3753
11:43:44.279,-53.1252,-73.3753
11:43:44.338,-54.9377,-79.6253
11:43:44.338,-59.0002,-85.5003
11:43:44.338,-60.8752,-91.5004
11:43:44.354,-63.4377,-96.7504
11:43:44.355,-65.9378,-102.1879
11:43:44.360,-68.3128,-106.1879
11:43:44.360,-70.8753,-109.6879
11:43:44.360,-72.9378,-115.7504
11:43:44.367,-74.2503,-119.063
11:43:44.376,-76.8128,-123.8755
11:43:44.386,-77.5628,-127.813
11:43:44.396,-80.5003,-130.563
11:43:44.407,-81.8753,-134.688
11:43:44.417,-82.8128,-138.938
11:43:44.426,-84.9378,-142.688
11:43:44.437,-86.4378,-145.438
11:43:44.447,-86.1253,-145.1255
11:43:44.457,-80.5003,-136.5005
11:43:44.466,-67.1878,-116.8754
11:43:44.477,43.0627,77.6878
11:43:44.486,50.8752,97.8129
11:43:44.498,56.0002,109.0004
11:43:44.505,58.3127,117.1879
11:43:44.516,58.8127,120.813
11:43:44.526,57.6877,128.2505
11:43:44.537,55.0002,125.7505
11:43:44.546,53.0627,122.5005
11:43:44.557,51.3127,120.188
11:43:44.566,48.4377,115.6254
11:43:44.576,46.1252,111.6879
11:43:44.586,43.2502,107.6254
11:43:44.597,40.0002,103.8129
11:43:44.606,37.8126,98.3129
11:43:44.619,33.6876,93.3129
11:43:44.626,29.7501,85.5628
11:43:44.636,25.5626,78.8128
11:43:44.647,21.4376,69.6878
11:43:44.657,16.1251,60.7502
11:43:44.667,12.0625,52.0627
11:43:44.676,6.9375,44.1252
11:43:44.686,3.375,35.8751
11:43:44.697,0.125,29.1876
11:43:44.706,-2.375,24.1876
11:43:44.716,-4.375,19.7501
11:43:44.726,-5.125,16.5001
11:43:44.736,-7.25,14.0626
11:43:44.747,-7.5,12.0625
11:43:44.757,-8.8125,10.25
11:43:44.766,-9.125,8.3125
11:43:44.777,-10.625,6.5625
11:43:44.786,-12.1875,4.1875
11:43:44.797,-13.6876,0.25
11:43:44.807,-16.0626,-2.8125
11:43:44.816,-18.6251,-8.0625
11:43:44.826,-21.8751,-12.5
11:43:44.836,-24.6251,-18.3126
11:43:44.847,-28.0626,-25.1251
11:43:44.856,-30.8751,-30.1876
11:43:44.866,-33.7501,-37.6251
11:43:44.881,-36.3126,-43.5002
11:43:44.887,-40.0002,-48.3752
11:43:44.897,-42.3127,-57.3127
11:43:44.907,-46.6252,-62.3127
11:43:44.917,-50.3752,-70.7503
11:43:44.927,-53.7502,-77.1878
11:43:44.967,-57.4377,-83.7503
11:43:44.970,-59.6877,-90.0628
11:43:44.970,-64.1252,-96.4379
11:43:44.973,-66.9378,-103.0004
11:43:44.976,-69.7503,-108.3129
11:43:45.021,-73.5003,-113.3129
11:43:45.021,-76.1253,-120.0005
11:43:45.025,-77.9378,-124.3755
11:43:45.029,-80.9378,-128.8755
11:43:45.033,-82.3128,-132.563
11:43:45.041,-84.5003,-136.3755
11:43:45.046,-86.3128,-140.6255
11:43:45.076,-86.7503,-142.5005
11:43:45.080,-89.1253,-145.188
11:43:45.082,-90.6253,-149.4381
11:43:45.089,-91.0004,-151.5631
11:43:45.098,-93.6254,-154.5631
11:43:45.115,-94.1879,-157.6256
11:43:45.116,-94.8754,-159.5006
11:43:45.127,-96.8754,-161.1256
11:43:45.136,-97.4379,-165.5631
11:43:45.147,-98.1254,-167.8756
11:43:45.157,-96.6879,-165.4381
11:43:45.166,-90.5004,-157.3756
11:43:45.177,-75.4378,-133.188
11:43:45.187,-51.4377,-94.3754
11:43:45.196,-25.5001,-47.6252
11:43:45.207,-1.8125,-3.5
11:43:45.216,20.8126,35.6251
11:43:45.226,38.6876,69.1253
11:43:45.235,49.6252,93.5629
11:43:45.246,58.1252,110.1879
11:43:45.257,63.1252,121.938
11:43:45.266,64.6877,130.438
11:43:45.291,66.0628,132.813
11:43:45.294,66.6878,134.8755
11:43:45.301,64.3127,135.063
11:43:45.307,62.6877,133.0005
11:43:45.317,60.6252,131.438
11:43:45.327,57.5002,127.188
11:43:45.338,55.1877,122.5005
11:43:45.347,52.5002,119.188
11:43:45.357,49.0627,115.3129
11:43:45.366,46.8127,111.3754
11:43:45.377,45.1252,107.0629
11:43:45.386,43.3752,102.8754
11:43:45.396,39.3127,97.4379
11:43:45.409,37.1876,91.6879
11:43:45.415,31.8126,84.8753
11:43:45.427,28.7501,77.0628
11:43:45.436,23.5001,69.0628
11:43:45.447,20.1251,60.7502
11:43:45.457,16.0626,52.3752
11:43:45.467,12.25,45.6252
11:43:45.476,9.375,38.2501
11:43:45.487,5.4375,33.4376
11:43:45.496,2.75,27.1876
11:43:45.506,0.125,23.1876
11:43:45.517,-1.6875,19.0001
11:43:45.527,-3,17.5001
11:43:45.547,-3.4375,15.0001
11:43:45.553,-3.75,12.6875
11:43:45.560,-3.5,12
11:43:45.567,-4,9.4375
11:43:45.584,-4.75,6.5
11:43:45.592,-6,4.0625
11:43:45.597,-8.375,-0.3125
11:43:45.606,-10.75,-5
11:43:45.622,-14.4376,-10.6875
11:43:45.628,-17.0626,-16.5001
11:43:45.638,-20.7501,-22.9376
11:43:45.647,-24.3751,-29.3751
11:43:45.662,-28.9376,-36.7501
11:43:45.671,-31.8751,-43.1877
11:43:45.677,-36.5001,-50.0002
11:43:45.711,-39.6252,-56.6877
11:43:45.711,-43.4377,-63.7502
11:43:45.714,-45.7502,-70.4378
11:43:45.721,-51.3752,-76.8753
11:43:45.729,-54.6252,-84.8753
11:43:45.759,-57.8127,-90.8129
11:43:45.762,-61.0627,-97.7504
11:43:45.764,-64.2502,-102.6254
11:43:45.768,-66.8128,-109.3129
11:43:45.800,-69.1878,-114.0629
11:43:45.803,-71.8753,-120.1255
11:43:45.804,-74.1878,-124.813
11:43:45.813,-76.4378,-129.1255
11:43:45.820,-78.1253,-133.8755
11:43:45.845,-80.7503,-137.688
11:43:45.847,-81.9378,-142.5005
11:43:45.850,-83.0628,-144.8755
11:43:45.858,-85.4378,-148.1881
11:43:45.866,-86.6253,-151.5631
11:43:45.877,-88.3753,-154.3756
11:43:45.886,-89.1253,-157.6256
11:43:45.895,-89.4378,-159.6881
11:43:45.907,-90.6253,-161.0631
11:43:45.916,-92.0004,-164.2506
11:43:45.926,-93.3754,-166.4381
11:43:45.937,-94.6254,-168.9381
11:43:45.945,-95.5629,-172.5632
11:43:45.956,-96.5004,-173.9382
11:43:45.966,-95.0629,-172.9382
11:43:45.976,-87.3753,-162.0006
11:43:45.987,-70.8128,-135.563
11:43:45.996,-45.0002,-93.8754
11:43:46.006,-15.3751,-41.5627
11:43:46.016,9.25,3.3125
11:43:46.027,32.3126,44.1252
11:43:46.035,50.6252,78.4378
11:43:46.047,62.3752,103.6254
11:43:46.057,70.0628,120.813
11:43:46.066,74.0628,130.563
11:43:46.075,75.7503,137.1255
11:43:46.086,75.5628,141.188
11:43:46.096,74.8128,140.6255
11:43:46.106,72.8753,140.063
11:43:46.115,70.7503,138.1255
11:43:46.126,69.2503,134.188
11:43:46.136,65.0002,131.063
11:43:46.145,62.1252,125.188
11:43:46.158,60.0002,121.3755
11:43:46.165,56.0002,116.3754
11:43:46.176,52.8752,111.3129
11:43:46.186,50.4377,106.0004
11:43:46.196,46.2502,100.5004
11:43:46.205,43.0627,93.9379
11:43:46.216,38.5001,87.2503
11:43:46.225,35.0001,79.5628
11:43:46.236,29.5001,71.0628
11:43:46.245,25.2501,63.1252
11:43:46.256,20.4376,54.3127
11:43:46.265,16.5626,46.5002
11:43:46.279,13.3751,38.7501
11:43:46.287,10.625,33.0626
11:43:46.296,7.6875,28.0626
11:43:46.306,6.875,24.0626
11:43:46.316,5.75,21.1876
11:43:46.325,4.6875,19.1251
11:43:46.336,3.6875,16.3126
11:43:46.346,2.625,13.9376
11:43:46.357,0.625,11.6875
11:43:46.367,0.3125,9.625
11:43:46.385,-1.5625,7.6875
11:43:46.387,-2.8125,3.75
11:43:46.415,-5.875,0.6875
11:43:46.417,-8,-4.1875
11:43:46.421,-9.9375,-9.3125
11:43:46.426,-12.875,-14.1876
11:43:46.454,-15.3751,-19.6876
11:43:46.457,-17.8751,-26.3126
11:43:46.459,-21.5001,-32.3751
11:43:46.467,-24.8126,-39.8752
11:43:46.508,-28.0626,-47.2502
11:43:46.510,-32.3751,-54.1252
11:43:46.513,-35.6876,-61.9377
11:43:46.543,-39.5002,-69.2503
11:43:46.543,-43.4377,-76.5628
11:43:46.544,-46.8752,-84.5628
11:43:46.548,-50.3127,-91.6254
11:43:46.573,-54.5627,-98.7504
11:43:46.581,-57.4377,-106.3129
11:43:46.583,-61.6877,-112.3754
11:43:46.588,-64.6252,-120.438
11:43:46.591,-67.9378,-126.6255
11:43:46.596,-70.6253,-132.8755
11:43:46.606,-74.1253,-139.7505
11:43:46.621,-75.8128,-144.188
11:43:46.631,-78.8128,-149.6881
11:43:46.640,-81.2503,-155.3756
11:43:46.651,-82.6253,-159.5006
11:43:46.661,-84.8753,-162.6881
11:43:46.671,-85.8128,-165.9381
11:43:46.681,-86.8753,-169.1256
11:43:46.691,-87.0003,-171.1882
11:43:46.702,-88.8128,-172.8132
11:43:46.710,-89.2503,-174.8132
11:43:46.726,-90.5003,-177.3757
11:43:46.736,-91.1879,-178.8132
11:43:46.746,-91.8129,-180.3132
11:43:46.758,-92.5004,-181.6882
11:43:46.767,-93.1254,-182.7507
11:43:46.777,-92.1254,-183.9382
11:43:46.786,-87.4378,-178.1882
11:43:46.795,-74.0003,-159.6881
11:43:46.806,-51.6877,-122.7505
11:43:46.816,-22.0626,-72.1878
11:43:46.825,8.375,-15.6251
11:43:46.836,32.6876,28.6876
11:43:46.845,54.6877,67.0003
11:43:46.855,70.6878,99.6879
11:43:46.874,81.7503,120.063
11:43:46.880,89.5628,134.313
11:43:46.888,91.9379,144.7505
11:43:46.896,92.3129,147.5631
11:43:46.911,90.8128,147.0631
11:43:46.927,87.7503,145.563
11:43:46.930,85.1878,140.438
11:43:46.945,81.4378,136.8755
11:43:46.948,77.9378,130.3755
11:43:46.962,75.8753,125.938
11:43:46.978,71.4378,120.188
11:43:46.982,68.5628,114.0004
11:43:46.989,64.8127,109.5629
11:43:46.996,61.7502,102.6879
11:43:47.005,58.8127,97.0004
11:43:47.015,55.1252,90.7504
11:43:47.026,50.2502,83.5628
11:43:47.035,45.3752,76.5003
11:43:47.046,40.5627,66.6253
11:43:47.056,36.0001,57.3752
11:43:47.066,31.5626,49.2502
11:43:47.093,27.8751,41.6252
11:43:47.096,24.1876,35.2501
11:43:47.101,20.7501,29.9376
11:43:47.105,20.0001,26.3126
11:43:47.139,19.0001,23.1251
11:43:47.141,18.1876,21.6876
11:43:47.144,18.3751,19.9376
11:43:47.147,18.3751,20.1251
11:43:47.179,19.2501,20.0001
11:43:47.181,19.5001,19.4376
11:43:47.184,19.6876,18.6251
11:43:47.186,18.4376,17.5001
11:43:47.224,17.0626,14.1876
11:43:47.225,15.1876,10.1875
11:43:47.228,12.1875,7.6875
11:43:47.234,10.0625,1
11:43:47.237,6.125,-3.625
11:43:47.257,2.25,-10.1875
11:43:47.260,0.1875,-16.6876
11:43:47.266,-3.5625,-22.3751
11:43:47.276,-7,-28.8751
11:43:47.286,-10.625,-35.0001
11:43:47.297,-13.6251,-42.0627
11:43:47.306,-16.7501,-48.6877
11:43:47.316,-21.2501,-54.7502
11:43:47.334,-24.3126,-61.7502
11:43:47.336,-27.2501,-68.1878
11:43:47.346,-30.4376,-74.0003
11:43:47.358,-33.1251,-78.9378
11:43:47.367,-35.8126,-85.8753
11:43:47.375,-38.8126,-91.8129
11:43:47.386,-40.3127,-95.8754
11:43:47.397,-42.9377,-101.0629
11:43:47.405,-44.5627,-104.9379
11:43:47.417,-47.3752,-108.1254
11:43:47.427,-48.6252,-112.8754
11:43:47.435,-50.9377,-115.5629
11:43:47.446,-52.1877,-119.438
11:43:47.459,-52.3752,-122.438
11:43:47.465,-55.0627,-125.0005
11:43:47.476,-56.3752,-129.7505
11:43:47.486,-57.3127,-131.6255
11:43:47.497,-59.3752,-135.1255
11:43:47.507,-58.1877,-135.3755
11:43:47.517,-54.2502,-127.438
11:43:47.526,-41.6877,-111.0004
11:43:47.536,-19.4376,-75.4378
11:43:47.547,7.125,-27.8751
11:43:47.557,33.8751,18.6251
11:43:47.566,57.1252,60.0627
11:43:47.576,76.5628,97.6879
11:43:47.585,92.3129,123.938
11:43:47.596,103.0004,144.1255
11:43:47.607,108.1879,156.7506
11:43:47.616,111.1254,164.1256
11:43:47.626,112.0629,168.2506
11:43:47.636,111.1879,169.1256
11:43:47.645,110.1254,168.1256
11:43:47.657,107.9379,167.5006
11:43:47.666,106.1879,163.5006
11:43:47.675,103.8129,159.4381
11:43:47.686,100.7504,156.0006
11:43:47.696,96.5004,149.8756
11:43:47.708,93.2504,145.0005
11:43:47.716,89.5628,140.5005
11:43:47.726,85.5003,135.3755
11:43:47.736,81.6253,129.438
11:43:47.747,78.2503,123.438
11:43:47.756,74.0628,116.5004
11:43:47.766,70.0628,109.5004
11:43:47.776,65.1252,100.6879
11:43:47.786,60.1877,92.1254
11:43:47.795,55.1877,81.7503
11:43:47.806,50.3127,73.4378
11:43:47.851,46.3127,65.5003
11:43:47.853,42.1877,58.5627
11:43:47.855,39.6252,53.6252
11:43:47.861,37.5626,49.9377
11:43:47.861,35.6876,48.6877
11:43:47.866,35.3751,46.1252
11:43:47.899,34.6251,46.6877
11:43:47.902,35.3126,45.3752
11:43:47.904,34.8751,45.1252
11:43:47.906,35.1876,44.7502
11:43:47.936,34.1876,42.3752
11:43:47.939,32.2501,39.5627
11:43:47.941,30.7501,36.6876
11:43:47.948,26.5001,31.9376
11:43:47.977,24.0001,27.0001
11:43:47.980,19.3126,20.4376
11:43:47.982,15.9376,14.4376
11:43:47.989,11.375,8.375
11:43:47.996,7.75,1.75
11:43:48.005,3.75,-5.9375
11:43:48.016,-0.6875,-12.0625
11:43:48.026,-3.5625,-18.6251
11:43:48.036,-7.875,-23.9376
11:43:48.046,-11.1875,-30.9376
11:43:48.055,-14.4376,-37.1876
11:43:48.066,-17.8126,-43.6252
11:43:48.074,-21.2501,-49.3752
11:43:48.086,-24.4376,-54.0002
11:43:48.097,-26.1251,-58.5627
11:43:48.107,-28.9376,-62.9377
11:43:48.117,-31.6251,-66.3753
11:43:48.126,-33.5626,-71.0003
11:43:48.135,-36.5626,-75.0003
11:43:48.146,-38.5001,-78.5628
11:43:48.156,-40.3752,-83.1253
11:43:48.165,-42.6252,-85.6253
11:43:48.176,-44.6252,-90.1253
11:43:48.197,-46.2502,-92.9379
11:43:48.204,-47.5627,-94.1254
11:43:48.208,-46.0627,-94.2504
11:43:48.221,-39.4377,-84.6253
11:43:48.226,-26.1876,-63.5627
11:43:48.239,-5.75,-30.1876
11:43:48.246,16.3751,8.9375
11:43:48.264,37.7501,48.0627
11:43:48.266,56.8752,82.8128
11:43:48.281,71.0628,111.4379
11:43:48.286,81.0628,131.563
11:43:48.296,87.8128,146.0005
11:43:48.306,89.9378,155.3756
11:43:48.316,90.5003,159.8756
11:43:48.326,90.1878,163.0006
11:43:48.336,87.6878,163.5006
11:43:48.346,85.5628,161.0631
11:43:48.356,82.8753,159.9381
11:43:48.365,81.0628,156.7506
11:43:48.377,78.0003,154.5631
11:43:48.386,76.5628,150.6881
11:43:48.396,73.1253,149.0006
11:43:48.405,71.6253,144.438
11:43:48.415,68.6878,140.7505
11:43:48.426,66.2503,137.063
11:43:48.435,63.6877,133.188
11:43:48.446,59.8752,127.063
11:43:48.456,56.6877,122.2505
11:43:48.465,52.0002,114.4379
11:43:48.477,46.3127,106.4379
11:43:48.486,41.6877,96.9379
11:43:48.496,35.7501,87.8753
11:43:48.509,31.0001,80.0628
11:43:48.536,26.3751,70.5628
11:43:48.539,22.5626,64.0002
11:43:48.542,19.1876,57.6877
11:43:48.546,17.0626,54.6252
11:43:48.572,15.4376,50.1252
11:43:48.575,14.6251,48.0627
11:43:48.578,14.3126,46.8752
11:43:48.611,13.3126,45.7502
11:43:48.614,12.4375,43.8752
11:43:48.616,10.625,40.9377
11:43:48.619,8.3125,38.2501
11:43:48.658,6.0625,34.3126
11:43:48.661,3.3125,29.3751
11:43:48.663,1.375,25.6251
11:43:48.685,-1.75,20.3751
11:43:48.685,-4.625,15.3126
11:43:48.686,-7.4375,8.5
11:43:48.690,-11.1875,3
11:43:48.697,-14.6876,-4.0625
11:43:48.706,-18.9376,-10.1875
11:43:48.715,-21.3751,-16.0001
11:43:48.725,-25.3751,-22.6251
11:43:48.736,-28.9376,-28.4376
11:43:48.746,-31.1876,-35.8751
11:43:48.756,-35.0001,-40.6877
11:43:48.766,-37.8126,-46.9377
11:43:48.777,-40.3752,-53.5627
11:43:48.785,-42.6877,-57.9377
11:43:48.796,-45.7502,-64.5627
11:43:48.805,-47.7502,-69.1253
11:43:48.816,-50.4377,-73.2503
11:43:48.832,-52.7502,-79.1253
11:43:48.837,-54.6877,-82.5628
11:43:48.847,-56.8127,-86.5628
11:43:48.855,-59.0002,-90.3129
11:43:48.866,-61.0002,-94.8754
11:43:48.875,-62.0627,-98.0004
11:43:48.886,-63.8752,-101.0629
11:43:48.895,-65.6253,-104.6254
11:43:48.906,-66.7503,-108.6254
11:43:48.916,-67.9378,-110.6254
11:43:48.925,-69.8128,-114.0004
11:43:48.937,-70.6253,-116.4379
11:43:48.946,-67.8753,-113.1879
11:43:48.955,-59.2502,-101.4379
11:43:48.967,-43.9377,-75.5003
11:43:48.977,-24.5626,-40.3752
11:43:48.985,-3.6875,-2.4375
11:43:48.997,16.8126,37.0626
11:43:49.005,34.6876,69.1253
11:43:49.016,48.0002,96.0629
11:43:49.025,58.8752,115.3129
11:43:49.036,66.8128,131.313
11:43:49.045,71.3753,141.063
11:43:49.056,74.8128,148.0631
11:43:49.065,74.8753,151.4381
11:43:49.076,74.0003,152.0006
11:43:49.085,73.0003,152.3756
11:43:49.096,70.2503,151.7506
11:43:49.105,68.1878,147.1256
11:43:49.133,65.3753,144.8755
11:43:49.135,60.8127,140.563
11:43:49.138,57.8752,135.938
11:43:49.147,55.0627,133.188
11:43:49.155,52.3752,128.813
11:43:49.167,49.5627,125.438
11:43:49.176,45.2502,119.1255
11:43:49.186,41.0627,114.0004
11:43:49.195,36.0626,106.1254
11:43:49.209,30.3126,98.6254
11:43:49.216,25.4376,89.2503
11:43:49.226,20.8751,81.5628
11:43:49.235,16.1876,72.3128
11:43:49.246,11.3125,65.5627
11:43:49.270,6.3125,57.3752
11:43:49.273,1.5,51.4377
11:43:49.276,-2.9375,46.3752
11:43:49.309,-6.5,43.3127
11:43:49.311,-9.4375,39.8127
11:43:49.314,-12.875,37.5626
11:43:49.316,-15.7501,34.7501
11:43:49.355,-22.0001,31.1876
11:43:49.359,-25.0001,28.9376
11:43:49.360,-28.1251,27.4376
11:43:49.366,-28.8126,25.2501
11:43:49.370,-29.5001,23.5001
11:43:49.382,-31.2501,21.4376
11:43:49.386,-31.7501,19.9376
11:43:49.423,-32.6251,16.6876
11:43:49.424,-33.5001,15.3751
11:43:49.427,-36.1876,12.75
11:43:49.434,-38.8126,7.3125
11:43:49.439,-39.4377,3.8125
11:43:49.447,-41.9377,-1
11:43:49.455,-45.3127,-5.875
11:43:49.466,-47.1252,-12.25
11:43:49.475,-50.5002,-18.8126
11:43:49.485,-51.2502,-22.5001
11:43:49.501,-53.3127,-25.6251
11:43:49.516,-53.7502,-31.6876
11:43:49.519,-55.1877,-35.3751
11:43:49.528,-55.1877,-39.8127
11:43:49.536,-57.3127,-43.0002
11:43:49.546,-59.6877,-48.8127
11:43:49.564,-62.0002,-53.3127
11:43:49.586,-62.7502,-58.5002
11:43:49.589,-65.4377,-61.8127
11:43:49.593,-65.5628,-66.6253
11:43:49.599,-65.8128,-69.5628
11:43:49.607,-66.3128,-71.9378
11:43:49.616,-67.2503,-76.2503
11:43:49.627,-70.1253,-80.7503
11:43:49.636,-72.1878,-84.8128
11:43:49.646,-73.9378,-87.6253
11:43:49.657,-75.5628,-92.3129
11:43:49.665,-77.5628,-94.8754
11:43:49.677,-78.5003,-98.7504
11:43:49.686,-78.3753,-98.1879
11:43:49.696,-74.2503,-94.2504
11:43:49.705,-64.4377,-82.1878
11:43:49.717,-50.1877,-57.4377
11:43:49.726,-31.9376,-27.6251
11:43:49.735,-13.3751,5.9375
11:43:49.746,3.1875,37.1876
11:43:49.755,17.1251,64.8752
11:43:49.766,28.0001,85.1878
11:43:49.777,36.8751,102.8754
11:43:49.785,41.8752,115.6879
11:43:49.796,46.0627,125.063
11:43:49.807,47.5002,131.0005
11:43:49.816,48.3752,98.5629
11:43:49.825,48.5002,102.3754
11:43:49.836,48.2502,102.8129
11:43:49.845,48.0002,104.6879
11:43:49.855,46.3752,103.6254
11:43:49.867,45.7502,101.6879
11:43:49.876,44.4377,101.5004
11:43:49.885,43.1877,98.3129
11:43:49.896,42.9377,97.5004
11:43:49.905,41.2502,94.1254
11:43:49.915,38.6251,92.0004
11:43:49.926,35.9376,87.3128
11:43:49.935,31.8751,82.1253
11:43:49.947,28.4376,76.5003
11:43:49.962,24.6876,68.8128
11:43:49.965,19.8751,62.3127
11:43:49.975,15.6251,53.9377
11:43:49.985,11.875,48.1252
11:43:49.995,8.5625,41.4377
11:43:50.007,6.6875,36.5001
11:43:50.015,4.625,33.0001
11:43:50.026,3.8125,29.6251
11:43:50.037,2.5,27.5626
11:43:50.070,2.625,25.6876
11:43:50.071,3,24.5626
11:43:50.075,4.5,24.2501
11:43:50.077,5.1875,24.1251
11:43:50.120,4.6875,23.6876
11:43:50.121,4.125,21.7501
11:43:50.125,3.0625,18.3751
11:43:50.127,2.125,16.0626
11:43:50.157,0.875,13.0625
11:43:50.158,-1.8125,8.125
11:43:50.159,-4.6875,2.625
11:43:50.161,-8,-2.875
11:43:50.169,-11.75,-8.4375
11:43:50.208,-14.2501,-13
11:43:50.208,-16.8126,-19.5001
11:43:50.210,-20.2501,-24.7501
11:43:50.226,-22.3751,-30.6251
11:43:50.226,-25.1251,-36.0626
11:43:50.227,-26.5626,-40.1252
11:43:50.236,-27.9376,-44.3127
11:43:50.245,-30.5001,-49.1877
11:43:50.257,-31.8751,-51.9377
11:43:50.266,-33.4376,-56.7502
11:43:50.276,-35.4376,-59.0627
11:43:50.286,-36.3126,-62.6877
11:43:50.295,-38.1876,-65.9378
11:43:50.305,-39.8752,-70.6878
11:43:50.316,-42.0002,-74.3128
11:43:50.326,-43.3752,-78.3753
11:43:50.337,-45.0002,-81.0628
11:43:50.348,-46.8752,-84.6878
11:43:50.355,-47.9377,-87.8128
11:43:50.365,-50.8127,-91.0629
11:43:50.376,-52.8127,-94.0004
11:43:50.386,-56.0627,-98.0629
11:43:50.413,-58.2502,-102.1879
11:43:50.415,-59.5002,-104.6254
11:43:50.418,-60.1877,-106.3129
11:43:50.427,-56.0627,-102.0629
11:43:50.437,-48.1252,-88.3753
11:43:50.446,-33.6876,-67.3128
11:43:50.457,-16.2501,-37.1876
11:43:50.466,1.5,-4.0625
11:43:50.476,17.8751,25.3126
11:43:50.486,30.8751,51.0627
11:43:50.496,40.2502,73.8128
11:43:50.507,47.7502,88.3753
11:43:50.515,52.8127,101.2504
11:43:50.526,56.5002,110.9379
11:43:50.536,58.0002,116.8129
11:43:50.546,58.8752,121.313
11:43:50.555,58.5002,122.8755
11:43:50.567,58.7502,124.5005
11:43:50.575,56.8752,124.8755
11:43:50.585,55.6252,122.438
11:43:50.595,54.6877,121.313
11:43:50.605,51.9377,118.563
11:43:50.616,50.1252,115.0004
11:43:50.631,48.0002,112.6254
11:43:50.641,46.6877,108.5629
11:43:50.650,45.2502,105.3129
11:43:50.660,42.8752,101.2504
11:43:50.670,39.3752,96.0004
11:43:50.680,36.1876,89.8753
11:43:50.691,31.6876,82.0003
11:43:50.700,26.8751,74.0003
11:43:50.712,22.8126,66.2503
11:43:50.720,19.0626,57.6252
11:43:50.733,16.0001,51.2502
11:43:50.765,13.3751,44.7502
11:43:50.769,11.0625,39.5627
11:43:50.770,9.5,35.1876
11:43:50.802,7.9375,32.1876
11:43:50.803,7.5625,29.8126
11:43:50.840,7.5625,27.0626
11:43:50.843,7.375,26.1876
11:43:50.884,5.875,23.9376
11:43:50.884,5.8125,21.6251
11:43:50.886,4.125,19.0626
11:43:50.886,3.8125,16.6251
11:43:50.894,1.9375,13.8751
11:43:50.895,0.5,10.5625
11:43:50.895,-1.375,5.625
11:43:50.903,-4.1875,1.75
11:43:50.925,-6.75,-3.6875
11:43:50.930,-10.75,-9.125
11:43:50.931,-13.5001,-16.0626
11:43:50.943,-18.1876,-22.3126
11:43:50.951,-21.8126,-28.2501
11:43:50.961,-25.3126,-35.6876
11:43:50.970,-28.0001,-40.8127
11:43:50.981,-31.8751,-46.0627
11:43:50.991,-34.8126,-51.3752
11:43:51.000,-36.6251,-57.2502
11:43:51.012,-46.5627,-74.4378
11:43:51.020,-49.1877,-79.2503
11:43:51.031,-51.1877,-82.9378
11:43:51.040,-54.1252,-87.2503
11:43:51.051,-56.1877,-92.4379
11:43:51.060,-58.1877,-95.8754
11:43:51.071,-61.3752,-99.1254
11:43:51.088,-63.0002,-103.1254
11:43:51.090,-65.9378,-107.4379
11:43:51.101,-67.5003,-111.6879
11:43:51.111,-69.3128,-114.8129
11:43:51.122,-70.9378,-116.9379
11:43:51.130,-72.0003,-121.0005
11:43:51.142,-74.4378,-123.5005
11:43:51.152,-74.8128,-125.8755
11:43:51.161,-74.0628,-125.813
11:43:51.171,-70.6878,-121.7505
11:43:51.182,-59.6252,-107.0629
11:43:51.191,-45.4377,-82.5003
11:43:51.201,-26.0001,-51.6252
11:43:51.210,-7.375,-17.8126
11:43:51.222,9.5,12.125
11:43:51.231,21.3126,36.6251
11:43:51.241,30.8751,55.3127
11:43:51.251,37.3751,71.5628
11:43:51.261,41.5627,81.1253
11:43:51.270,44.2502,89.2503
11:43:51.282,44.8752,93.4379
11:43:51.291,44.6252,95.2504
11:43:51.301,44.0627,98.0004
11:43:51.311,43.3752,96.5004
11:43:51.321,43.8127,96.7504
11:43:51.330,41.3752,95.5004
11:43:51.340,40.2502,93.5004
11:43:51.350,38.7501,91.8754
11:43:51.360,37.2501,88.4378
11:43:51.372,36.7501,87.1878
11:43:51.381,35.9376,85.4378
11:43:51.391,34.8126,82.6253
11:43:51.400,33.5001,79.6253
11:43:51.411,31.0626,75.3753
11:43:51.432,26.6251,68.2503
11:43:51.434,22.6876,62.0002
11:43:51.442,18.0001,54.2502
11:43:51.470,14.0001,47.1877
11:43:51.472,10.25,40.0002
11:43:51.475,7.625,34.0626
11:43:51.481,5.375,28.3126
11:43:51.516,3.4375,24.5001
11:43:51.517,2.6875,21.3126
11:43:51.519,2.4375,18.7501
11:43:51.521,1.8125,16.5626
11:43:51.560,0.5,14.8751
11:43:51.562,0.125,13.0625
11:43:51.566,-1.125,11.375
11:43:51.591,-2.3125,8.375
11:43:51.593,-3.375,6.1875
11:43:51.594,-5.75,1.875
11:43:51.596,-6.6875,-0.5
11:43:51.601,-9.0625,-4.3125
11:43:51.617,-11,-8.5
11:43:51.622,-13.4376,-13.2501
11:43:51.630,-15.7501,-16.7501
11:43:51.641,-17.9376,-20.6876
11:43:51.650,-20.0001,-26.2501
11:43:51.661,-22.8751,-31.5626
11:43:51.691,-25.9376,-37.1251
11:43:51.693,-28.3751,-41.5627
11:43:51.695,-31.0626,-48.4377
11:43:51.703,-34.5001,-54.3752
11:43:51.712,-37.6251,-58.5627
11:43:51.721,-39.3752,-64.5627
11:43:51.731,-41.9377,-70.8753
11:43:51.741,-44.1877,-75.1878
11:43:51.751,-46.8752,-81.6878
11:43:51.761,-49.1252,-86.2503
11:43:51.771,-51.0627,-90.9379
11:43:51.781,-52.1252,-94.3754
11:43:51.790,-54.6877,-98.2504
11:43:51.801,-56.2502,-101.1879
11:43:51.810,-56.7502,-105.3129
11:43:51.821,-56.6877,-106.6879
11:43:51.831,-57.0002,-108.7504
11:43:51.841,-59.7502,-113.1879
11:43:51.852,-60.7502,-115.2504
11:43:51.860,-62.6252,-118.688
11:43:51.871,-64.0002,-120.313
11:43:51.881,-66.4378,-121.3755
11:43:51.890,-68.3753,-125.938
11:43:51.901,-70.7503,-127.2505
11:43:51.912,-72.5628,-131.2505
11:43:51.921,-72.5628,-131.8755
11:43:51.931,-71.6253,-127.688
11:43:51.941,-62.3127,-114.8754
11:43:51.950,-48.9377,-91.1254
11:43:51.961,-32.6251,-62.6877
11:43:51.971,-15.2501,-30.6876
11:43:51.981,-0.5625,0
11:43:51.992,9.75,21.6251
11:43:52.001,17.8751,40.1877
11:43:52.010,20.9376,52.2502
11:43:52.021,22.2501,60.3127
11:43:52.031,21.1876,65.6252
11:43:52.041,17.2501,65.3128
11:43:52.050,12.5,63.2502
11:43:52.061,6.25,60.5002
11:43:52.071,-0.125,54.6877
11:43:52.080,-2.5,51.9377
11:43:52.092,-5.125,50.3127
11:43:52.105,-8,46.6252
11:43:52.120,-9.6875,45.0627
11:43:52.123,-11.75,43.3752
11:43:52.136,-12,40.1877
11:43:52.153,-13.7501,38.9376
11:43:52.155,-14.8751,35.8126
11:43:52.170,-17.1251,32.1251
11:43:52.176,-19.7501,26.5001
11:43:52.186,-23.0626,20.6251
11:43:52.196,-26.8751,14.8126
11:43:52.206,-29.1876,8.5
11:43:52.216,-31.4376,4.25
11:43:52.226,-32.8126,-1.25
11:43:52.245,-34.0626,-4.625
11:43:52.248,-35.6251,-8.875
11:43:52.274,-37.6251,-11.375
11:43:52.276,-38.0626,-13.8126
11:43:52.282,-38.8126,-15.5626
11:43:52.287,-37.7501,-16.4376
11:43:52.317,-37.6876,-17.6876
11:43:52.319,-36.1251,-18.6876
11:43:52.321,-36.1876,-19.8751
11:43:52.328,-36.0001,-20.6251
11:43:52.357,-34.7501,-23.1251
11:43:52.360,-35.5626,-23.7501
11:43:52.361,-34.3751,-27.5001
11:43:52.370,-33.5626,-29.0001
11:43:52.393,-34.5626,-33.3751
11:43:52.397,-37.5001,-37.5001
11:43:52.421,-39.5627,-43.0627
11:43:52.422,-42.6877,-46.7502
11:43:52.425,-43.9377,-52.5002
11:43:52.431,-45.0002,-57.3127
11:43:52.441,-46.8752,-60.8127
11:43:52.451,-48.6877,-66.5628
11:43:52.461,-50.6877,-71.0003
11:43:52.472,-53.3752,-76.5003
11:43:52.481,-56.2502,-81.8753
11:43:52.491,-59.2502,-86.2503
11:43:52.502,-62.1252,-91.5629
11:43:52.510,-64.0002,-96.6254
11:43:52.521,-65.0627,-101.1879
11:43:52.530,-66.5003,-104.5629
11:43:52.541,-67.5628,-107.5004
11:43:52.551,-69.1878,-111.1254
11:43:52.563,-71.2503,-116.9379
11:43:52.571,-71.8128,-118.5005
11:43:52.581,-72.8128,-121.938
11:43:52.591,-73.3753,-123.313
11:43:52.601,-74.1253,-125.563
11:43:52.611,-74.3753,-128.313
11:43:52.623,-74.3753,-130.688
11:43:52.631,-75.5003,-133.563
11:43:52.641,-76.8753,-137.063
11:43:52.650,-77.3753,-139.063
11:43:52.661,-77.4378,-139.938
11:43:52.671,-74.3753,-137.2505
11:43:52.682,-67.7503,-127.563
11:43:52.691,-52.9377,-107.4379
11:43:52.701,-35.5001,-77.9378
11:43:52.710,-17.0626,-45.5002
11:43:52.720,0.75,-11.8125
11:43:52.731,15.1251,15.0626
11:43:52.741,25.8751,37.3126
11:43:52.750,33.2501,54.3752
11:43:52.761,38.2501,66.2503
11:43:52.770,42.3752,75.3753
11:43:52.782,42.9377,80.8753
11:43:52.795,43.4377,83.6253
11:43:52.801,42.8127,86.2503
11:43:52.811,41.4377,84.5628
11:43:52.821,40.3752,84.1253
11:43:52.830,38.8126,83.6878
11:43:52.841,37.6876,79.6253
11:43:52.850,37.1251,77.8128
11:43:52.862,34.2501,75.2503
11:43:52.870,33.1251,71.1878
11:43:52.892,31.6251,68.6253
11:43:52.894,29.9376,64.2502
11:43:52.921,27.2501,60.8752
11:43:52.923,26.1251,56.0002
11:43:52.925,22.3126,49.8127
11:43:52.932,18.3126,43.6252
11:43:52.961,14.7501,36.1251
11:43:52.963,12.375,30.9376
11:43:52.965,9,25.3751
11:43:52.978,5.6875,18.3126
11:43:52.981,2.25,13.2501
11:43:53.013,1.125,9.4375
11:43:53.015,-0.4375,7
11:43:53.018,-0.6875,4.875
11:43:53.020,-3.125,2
11:43:53.057,-5.75,-2.875
11:43:53.059,-9.25,-5.4375
11:43:53.061,-11.5625,-7.625
11:43:53.063,-12.5,-10.0625
11:43:53.072,-13.8751,-11.4375
11:43:53.081,-15.1251,-14.2501
11:43:53.091,-16.9376,-17.8751
11:43:53.102,-19.1251,-20.6876
11:43:53.111,-20.4376,-24.4376
11:43:53.121,-23.8126,-28.0001
11:43:53.132,-26.1251,-33.1251
11:43:53.142,-30.5626,-37.9376
11:43:53.150,-33.8126,-44.0002
11:43:53.162,-37.0626,-49.8127
11:43:53.172,-40.1877,-56.1252
11:43:53.180,-42.5627,-60.7502
11:43:53.191,-44.8127,-65.6252
11:43:53.201,-47.3127,-70.8128
11:43:53.212,-50.0627,-76.3128
11:43:53.222,-53.3752,-80.2503
11:43:53.231,-55.2502,-86.4378
11:43:53.240,-56.4377,-89.3128
11:43:53.251,-58.0627,-92.5004
11:43:53.261,-58.8752,-96.0004
11:43:53.271,-59.6877,-99.4379
11:43:53.281,-61.1252,-101.3129
11:43:53.291,-62.3127,-104.5004
11:43:53.301,-63.7502,-107.0629
11:43:53.310,-63.9377,-110.6254
11:43:53.320,-65.3128,-112.8754
11:43:53.332,-66.3753,-114.7504
11:43:53.340,-69.0003,-119.813
11:43:53.351,-70.1253,-122.3755
11:43:53.362,-72.5628,-125.8755
11:43:53.371,-74.0628,-128.8755
11:43:53.381,-75.5628,-132.438
11:43:53.402,-76.0628,-133.063
11:43:53.407,-73.0628,-130.6255
11:43:53.422,-66.5003,-120.1255
11:43:53.423,-51.7502,-101.0629
11:43:53.430,-34.1251,-70.6878
11:43:53.449,-15.2501,-39.6252
11:43:53.451,4.5625,-6.0625
11:43:53.466,19.0626,21.6251
11:43:53.471,30.3126,43.3127
11:43:53.481,38.7501,60.7502
11:43:53.492,44.1252,71.7503
11:43:53.501,47.8752,81.5628
11:43:53.512,48.9377,85.3753
11:43:53.520,49.7502,88.5628
11:43:53.531,48.6877,90.1253
11:43:53.546,47.6252,88.6253
11:43:53.550,47.0627,88.2503
11:43:53.561,45.1877,85.5003
11:43:53.572,43.6877,83.7503
11:43:53.582,40.7502,80.8753
11:43:53.591,38.3751,77.0628
11:43:53.600,36.1251,74.5003
11:43:53.610,35.9376,71.2503
11:43:53.622,33.5001,67.9378
11:43:53.630,30.8126,63.9377
11:43:53.642,28.1251,58.0627
11:43:53.652,23.2501,52.8127
11:43:53.660,20.0001,45.1877
11:43:53.670,15.8751,38.5626
11:43:53.705,12.5625,33.1876
11:43:53.707,9.5,25.8751
11:43:53.711,7.25,21.1251
11:43:53.711,4.6875,15.6251
11:43:53.745,2.375,12.875
11:43:53.745,1.6875,10.5
11:43:53.748,2.75,8.1875
11:43:53.750,3.375,8
11:43:53.780,5.5625,8.25
11:43:53.783,6.75,7.4375
11:43:53.785,6.9375,7.375
11:43:53.794,8.3125,7.1875
11:43:53.802,9.375,6.4375
11:43:53.832,9.5,6.375
11:43:53.834,9.25,3.4375
11:43:53.836,8.625,0.375
11:43:53.841,6.8125,-2.8125
11:43:53.857,5.5,-6.375
11:43:53.860,3.4375,-10.5625
11:43:53.871,2.8125,-13.8751
11:43:53.881,2.6875,-17.0001
11:43:53.891,2.8125,-21.3126
11:43:53.902,2.5,-24.3126
11:43:53.910,0.25,-28.5001
11:43:53.920,-1.6875,-34.0001
11:43:53.930,-5.0625,-38.8126
11:43:53.941,-9.3125,-44.8127
11:43:53.951,-13.3751,-51.8752
11:43:53.962,-17.9376,-57.7502
11:43:53.971,-22.6876,-66.3128
11:43:53.980,-28.3751,-72.5003
11:43:53.991,-31.7501,-78.8753
11:43:54.000,-35.1876,-86.2503
11:43:54.012,-38.6876,-90.5004
11:43:54.022,-41.4377,-96.5629
11:43:54.030,-45.5002,-101.1254
11:43:54.045,-48.4377,-107.1254
11:43:54.056,-50.8752,-110.5629
11:43:54.067,-53.1252,-115.2504
11:43:54.075,-54.4377,-118.5005
11:43:54.087,-54.6877,-121.063
11:43:54.095,-55.6877,-123.813
11:43:54.107,-55.8752,-124.563
11:43:54.116,-58.9377,-128.1255
11:43:54.125,-61.9377,-132.0005
11:43:54.137,-62.9377,-130.188
11:43:54.148,-58.8752,-124.5005
11:43:54.157,-47.3752,-105.8129
11:43:54.166,-30.2501,-78.5003
11:43:54.175,-9.5625,-42.8127
11:43:54.186,10.5625,-7.1875
11:43:54.195,29.5626,26.1251
11:43:54.206,46.0002,58.6877
11:43:54.216,56.3752,81.8753
11:43:54.225,62.8127,93.8754
11:43:54.252,67.5003,104.1879
11:43:54.255,69.9378,110.1254
11:43:54.259,71.3753,113.6879
11:43:54.267,71.2503,115.8754
11:43:54.275,71.1253,116.1254
11:43:54.286,69.5003,114.7504
11:43:54.295,66.6253,114.0629
11:43:54.306,65.4378,110.0629
11:43:54.316,61.5627,107.8754
11:43:54.325,57.5002,101.5004
11:43:54.336,54.4377,97.1879
11:43:54.345,50.2502,91.6254
11:43:54.356,45.2502,86.5003
11:43:54.365,42.7502,80.1878
11:43:54.375,41.6252,78.0003
11:43:54.385,39.5627,73.7503
11:43:54.396,36.3751,67.0628
11:43:54.421,32.3126,61.1252
11:43:54.425,28.6876,55.3127
11:43:54.427,25.1251,49.0627
11:43:54.455,22.3126,43.3127
11:43:54.457,18.4376,38.0001
11:43:54.459,15.9376,33.1251
11:43:54.465,14.1876,27.9376
11:43:54.493,11.0625,25.3126
11:43:54.495,9.5,22.8126
11:43:54.497,8.6875,19.3126
11:43:54.530,7.875,18.1251
11:43:54.532,6.8125,14.8126
11:43:54.534,5.375,12.75
11:43:54.572,3.1875,9.75
11:43:54.573,1.5,6
11:43:54.577,-0.25,2.4375
11:43:54.581,-2,-0.4375
11:43:54.583,-2.0625,-3.4375
11:43:54.585,-3.125,-6.9375
11:43:54.597,-5.375,-10.5
11:43:54.607,-8.375,-15.7501
11:43:54.616,-10.6875,-22.6876
11:43:54.625,-14.5001,-28.0001
11:43:54.636,-18.3751,-36.5001
11:43:54.647,-22.3751,-42.8127
11:43:54.655,-24.8751,-49.8127
11:43:54.671,-29.5001,-57.6252
11:43:54.681,-32.1251,-64.1252
11:43:54.702,-35.2501,-71.1253
11:43:54.709,-37.0626,-76.6878
11:43:54.724,-37.2501,-79.9378
11:43:54.726,-37.1251,-83.6878
11:43:54.741,-39.3752,-87.6878
11:43:54.757,-41.7502,-93.1879
11:43:54.758,-43.8752,-96.7504
11:43:54.774,-47.8752,-101.1254
11:43:54.789,-51.1877,-107.2504
11:43:54.791,-54.5002,-113.0004
11:43:54.807,-57.4377,-116.6254
11:43:54.810,-60.1252,-120.813
11:43:54.810,-61.3127,-123.7505
11:43:54.821,-63.1877,-128.438
11:43:54.832,-66.1253,-134.0005
11:43:54.841,-68.2503,-138.313
11:43:54.851,-69.5003,-140.3755
11:43:54.860,-68.3753,-138.6255
11:43:54.870,-61.9377,-130.3755
11:43:54.881,-49.0627,-109.8129
11:43:54.890,-31.0626,-79.0003
11:43:54.901,-11.4375,-44.8752
11:43:54.910,7.125,-10.625
11:43:54.922,23.4376,22.7501
11:43:54.930,35.5626,45.8752
11:43:54.940,42.4377,64.1252
11:43:54.950,47.7502,76.4378
11:43:54.960,50.8127,85.4378
11:43:54.971,52.5627,92.0629
11:43:54.980,51.5627,96.5004
11:43:54.992,51.0002,97.0629
11:43:55.001,50.8127,96.3754
11:43:55.010,48.5002,95.6879
11:43:55.021,48.5627,94.0629
11:43:55.031,48.1252,93.0004
11:43:55.047,46.4377,90.3753
11:43:55.051,44.5627,88.2503
11:43:55.061,42.2502,85.6878
11:43:55.070,40.8752,81.9378
11:43:55.082,38.1251,78.0628
11:43:55.090,34.8126,73.1878
11:43:55.100,31.7501,67.0628
11:43:55.112,28.3126,61.5627
11:43:55.120,24.6876,54.8752
11:43:55.142,21.1876,48.3127
11:43:55.144,18.9376,42.6877
11:43:55.176,16.2501,38.1251
11:43:55.176,13.5626,33.8751
11:43:55.178,12.875,30.0001
11:43:55.182,12.8125,27.6251
11:43:55.212,13.8126,27.4376
11:43:55.214,15.7501,27.1251
11:43:55.216,17.2501,28.0001
11:43:55.244,19.4376,28.9376
11:43:55.245,21.3751,29.6876
11:43:55.250,21.8751,30.5001
11:43:55.255,21.6876,29.6251
11:43:55.262,20.1876,28.3126
11:43:55.301,16.7501,24.8126
11:43:55.304,14.5626,21.1876
11:43:55.306,10.8125,17.6876
11:43:55.308,7.625,13.1876
11:43:55.317,4.4375,7.5625
11:43:55.322,0.625,1.5625
11:43:55.330,-3.6875,-4.9375
11:43:55.341,-6.4375,-10.8125
11:43:55.351,-10.9375,-16.5001
11:43:55.361,-14.1251,-22.5626
11:43:55.370,-17.2501,-28.3751
11:43:55.381,-19.8751,-34.0001
11:43:55.391,-21.4376,-39.2502
11:43:55.402,-23.1876,-45.1877
11:43:55.412,-25.7501,-50.3127
11:43:55.422,-26.9376,-55.1877
11:43:55.430,-28.9376,-59.8752
11:43:55.441,-30.3126,-63.8127
11:43:55.450,-33.0001,-67.5628
11:43:55.461,-36.3126,-72.8128
11:43:55.471,-38.0626,-78.1878
11:43:55.481,-40.0002,-82.8753
11:43:55.491,-40.6877,-87.3128
11:43:55.501,-42.2502,-90.0003
11:43:55.534,-45.1252,-95.3754
11:43:55.535,-49.6252,-100.9379
11:43:55.537,-53.2502,-106.2504
11:43:55.543,-57.6252,-109.7504
11:43:55.551,-59.0627,-112.7504
11:43:55.560,-56.8752,-107.5629
11:43:55.571,-45.4377,-92.3129
11:43:55.580,-27.6876,-65.8753
11:43:55.591,-8.1875,-33.5001
11:43:55.601,11.5625,-0.5625
11:43:55.610,28.3126,30.6876
11:43:55.620,41.8127,54.9377
11:43:55.631,51.5002,74.3128
11:43:55.641,57.0002,86.8128
11:43:55.652,59.7502,96.2504
11:43:55.661,59.5002,101.5629
11:43:55.672,59.0002,103.5004
11:43:55.680,55.5002,105.5004
11:43:55.691,52.8127,102.9379
11:43:55.700,50.6252,102.5004
11:43:55.711,48.0002,99.7504
11:43:55.720,46.5002,96.8754
11:43:55.731,41.8752,93.6879
11:43:55.741,39.9377,90.1253
11:43:55.751,37.9376,87.8753
11:43:55.762,36.0001,83.6878
11:43:55.770,33.5001,80.6253
11:43:55.782,32.1251,76.6878
11:43:55.797,30.5626,73.1253
11:43:55.801,28.7501,68.7503
11:43:55.810,24.8751,62.5002
11:43:55.820,22.0626,56.7502
11:43:55.831,18.1876,50.5002
11:43:55.842,16.1876,44.2502
11:43:55.851,12.625,39.9377
11:43:55.860,11.6875,35.2501
11:43:55.870,10.125,31.5626
11:43:55.894,8.1875,28.7501
11:43:55.895,5.375,25.7501
11:43:55.928,3.125,22.5626
11:43:55.928,2,19.4376
11:43:55.930,1.5625,17.5626
11:43:55.932,1.3125,16.8751
11:43:55.964,0.9375,14.3751
11:43:55.968,1.0625,13.6876
11:43:55.970,1.0625,11.75
11:43:55.973,1,9.625
11:43:56.005,-0.375,6.875
11:43:56.007,-2.5625,3.8125
11:43:56.034,-4.6875,-0.25
11:43:56.036,-7.625,-5.0625
11:43:56.061,-8.875,-9.5625
11:43:56.061,-11.3125,-14.2501
11:43:56.062,-13.4376,-19.5626
11:43:56.064,-16.1251,-24.0626
11:43:56.093,-19.3751,-30.0626
11:43:56.094,-25.4376,-36.2501
11:43:56.095,-30.6876,-43.1252
11:43:56.110,-35.3126,-49.5627
11:43:56.113,-37.3751,-54.6877
11:43:56.121,-39.5002,-58.7502
11:43:56.127,-40.7502,-64.7502
11:43:56.145,-43.0002,-68.7503
11:43:56.151,-44.4377,-74.3128
11:43:56.160,-45.1877,-77.0628
11:43:56.172,-45.6877,-79.9378
11:43:56.176,-45.0627,-82.2503
11:43:56.186,-40.6877,-83.2503
11:43:56.196,-37.0626,-84.2503
11:43:56.205,-33.4376,-84.3128
11:43:56.215,-34.1876,-85.6878
11:43:56.227,-34.8751,-87.4378
11:43:56.235,-35.1251,-87.1878
11:43:56.247,-32.2501,-84.1878
11:43:56.255,-26.8126,-73.5628
11:43:56.267,-13.6251,-52.6252
11:43:56.276,2.75,-23.3751
11:43:56.286,21.3751,9.5
11:43:56.295,37.3126,40.1877
11:43:56.305,51.1877,66.1253
11:43:56.315,60.8752,87.8753
11:43:56.326,67.6253,102.8754
11:43:56.335,73.8128,116.1879
11:43:56.345,77.7503,126.688
11:43:56.357,79.4378,132.6255
11:43:56.365,80.2503,135.3755
11:43:56.376,80.2503,138.0005
11:43:56.386,78.6878,136.188
11:43:56.396,76.4378,135.563
11:43:56.407,73.5628,131.813
11:43:56.416,70.7503,129.188
11:43:56.426,67.6878,125.8755
11:43:56.436,64.8127,122.938
11:43:56.446,61.9377,120.5005
11:43:56.456,60.1877,116.8129
11:43:56.465,58.7502,112.9379
11:43:56.477,55.3752,109.0004
11:43:56.486,52.0002,104.1254
11:43:56.496,48.9377,99.0629
11:43:56.506,46.7502,94.3129
11:43:56.516,44.5627,90.0003
11:43:56.527,43.0002,84.8128
11:43:56.535,40.6252,79.5628
11:43:56.550,37.7501,74.4378
11:43:56.555,35.6251,70.1878
11:43:56.569,33.6876,64.9377
11:43:56.601,32.3751,62.1252
11:43:56.602,30.5626,58.6252
11:43:56.606,28.3751,55.6877
11:43:56.607,27.8126,53.9377
11:43:56.646,26.9376,52.0002
11:43:56.648,25.4376,50.0002
11:43:56.650,24.5626,46.7502
11:43:56.653,23.5001,45.6877
11:43:56.658,22.3751,42.6877
11:43:56.689,20.6876,38.2501
11:43:56.693,19.4376,36.4376
11:43:56.694,16.1876,31.1251
11:43:56.697,13.2501,26.5626
11:43:56.724,9.3125,20.8751
11:43:56.729,6.3125,16.3751
11:43:56.731,3.0625,10.375
11:43:56.737,-0.625,4.75
11:43:56.747,-3.5625,-0.6875
11:43:56.756,-7.5,-6.125
11:43:56.765,-9.9375,-11.875
11:43:56.776,-13,-17.3126
11:43:56.786,-15.9376,-22.6251
11:43:56.811,-18.5626,-28.3751
11:43:56.814,-21.6251,-33.7501
11:43:56.816,-24.1876,-38.9376
11:43:56.826,-25.9376,-42.1252
11:43:56.836,-27.2501,-46.2502
11:43:56.847,-27.6251,-50.6252
11:43:56.857,-28.9376,-53.8752
11:43:56.867,-31.0001,-58.3752
11:43:56.875,-32.4376,-61.6252
11:43:56.886,-33.6251,-64.4377
11:43:56.895,-35.5626,-67.0003
11:43:56.906,-37.5626,-71.3128
11:43:56.915,-38.5626,-74.7503
11:43:56.925,-39.7502,-76.7503
11:43:56.937,-41.0627,-78.8128
11:43:56.946,-41.0002,-81.4378
11:43:56.957,-40.0627,-79.9378
11:43:56.967,-35.0626,-73.3128
11:43:56.976,-23.7501,-57.0002
11:43:56.986,-9.8125,-31.1251
11:43:56.996,6,-3.375
11:43:57.005,21.9376,24.7501
11:43:57.016,33.5001,50.6252
11:43:57.026,43.6877,71.3128
11:43:57.037,51.5627,89.5003
11:43:57.046,56.8127,101.4379
11:43:57.056,60.5002,112.1254
11:43:57.067,62.4377,117.938
11:43:57.077,63.4377,123.0005
11:43:57.087,63.3127,124.938
11:43:57.095,63.3127,126.3755
11:43:57.105,61.1877,127.1255
11:43:57.117,60.3127,124.8755
11:43:57.125,57.8752,124.3755
11:43:57.136,57.2502,121.438
11:43:57.147,54.6877,120.1255
11:43:57.157,53.5002,117.0629
11:43:57.167,53.0002,114.9379
11:43:57.177,50.8752,110.6879
11:43:57.187,47.7502,107.9379
11:43:57.199,45.5627,102.5004
11:43:57.206,41.7502,96.7504
11:43:57.215,38.1251,91.0629
11:43:57.225,34.4376,83.3753
11:43:57.237,30.2501,76.4378
11:43:57.247,25.8751,69.5003
11:43:57.257,22.8126,63.0002
11:43:57.265,19.9376,57.4377
11:43:57.276,17.1251,52.6252
11:43:57.285,16.1876,48.6252
11:43:57.297,14.9376,45.3752
11:43:57.307,14.8751,43.0627
11:43:57.315,14.2501,40.6877
11:43:57.326,12.8125,39.0626
11:43:57.336,12.375,36.8751
11:43:57.346,11.0625,34.9376
11:43:57.363,10.5,32.7501
11:43:57.366,9,29.1251
11:43:57.438,7.875,26.0001
11:43:57.504,5.9375,22.4376
11:43:57.504,3.5625,18.2501
11:43:57.504,1.9375,14.4376
11:43:57.504,-0.0625,10.125
11:43:57.518,-1.1875,4.8125
11:43:57.534,-3.75,0.375
11:43:57.535,-6.0625,-5.8125
11:43:57.535,-9.8125,-11.5625
11:43:57.550,-13.5626,-17.6251
11:43:57.552,-16.8126,-23.2501
11:43:57.557,-20.5626,-29.6876
11:43:57.561,-23.0626,-34.6876
11:43:57.570,-25.9376,-41.5002
11:43:57.580,-28.5626,-46.6252
11:43:57.591,-30.6876,-51.7502
11:43:57.602,-33.3126,-56.1877
11:43:57.611,-35.5626,-60.6877
11:43:57.622,-37.0626,-65.9378
11:43:57.630,-38.8751,-69.8128
11:43:57.641,-48.0002,-87.8753
11:43:57.651,-49.0002,-91.7504
11:43:57.660,-50.7502,-94.2504
11:43:57.675,-51.6877,-96.3754
11:43:57.681,-53.1252,-100.1254
11:43:57.692,-57.3752,-114.0629
11:43:57.701,-54.2502,-111.8754
11:43:57.710,-46.6877,-100.7504
11:43:57.721,-33.1876,-81.1878
11:43:57.730,-16.2501,-53.8127
11:43:57.741,0.75,-22.8751
11:43:57.751,16.0001,4.1875
11:43:57.760,29.6876,29.6876
11:43:57.771,37.8751,50.6877
11:43:57.780,46.0627,65.2503
11:43:57.791,51.7502,77.1253
11:43:57.801,54.2502,86.3753
11:43:57.810,56.3127,91.0004
11:43:57.822,57.6877,94.8129
11:43:57.830,57.2502,96.6879
11:43:57.840,57.4377,96.8129
11:43:57.850,55.9377,97.5629
11:43:57.861,54.6877,94.5004
11:43:57.871,54.0002,93.3754
11:43:57.881,51.4377,91.7504
11:43:57.890,49.9377,89.1878
11:43:57.900,48.5002,87.8753
11:43:57.910,46.8127,84.7503
11:43:57.922,45.7502,82.6878
11:43:57.930,43.6252,77.9378
11:43:57.942,42.0002,74.6253
11:43:57.951,38.4376,67.5628
11:43:57.961,34.9376,61.0627
11:43:57.971,30.7501,53.9377
11:43:57.981,26.8751,47.5002
11:43:58.010,24.6876,41.7502
11:43:58.011,23.0626,37.6251
11:43:58.014,22.2501,33.6876
11:43:58.021,20.8126,30.7501
11:43:58.055,20.6251,28.5001
11:43:58.058,19.7501,26.9376
11:43:58.059,19.6876,26.5626
11:43:58.063,18.3126,24.8751
11:43:58.092,17.3126,23.7501
11:43:58.093,16.5626,22.8751
11:43:58.095,17.0626,21.0001
11:43:58.131,15.3751,20.1251
11:43:58.131,14.8751,16.9376
11:43:58.133,12.5625,14.1876
11:43:58.140,11.0625,11.0625
11:43:58.141,9.3125,6.3125
11:43:58.175,7.125,2.9375
11:43:58.179,5.1875,-2.3125
11:43:58.180,1.5,-8
11:43:58.183,-2.5,-12.4375
11:43:58.197,-5.3125,-19.0001
11:43:58.201,-8.9375,-24.5626
11:43:58.211,-11.625,-28.5001
11:43:58.221,-13,-33.8751
11:43:58.232,-16.2501,-38.4376
11:43:58.242,-18.0626,-43.1252
11:43:58.251,-20.4376,-47.6252
11:43:58.260,-22.1876,-51.3752
11:43:58.272,-23.0626,-54.4377
11:43:58.280,-24.4376,-58.5627
11:43:58.291,-26.8126,-62.6877
11:43:58.301,-30.1876,-67.1878
11:43:58.310,-31.8751,-69.3128
11:43:58.322,-32.5626,-72.7503
11:43:58.333,-35.0626,-75.8753
11:43:58.340,-35.8751,-78.5003
11:43:58.350,-37.7501,-80.9378
11:43:58.360,-39.4377,-84.1253
11:43:58.372,-40.9377,-87.0628
11:43:58.382,-42.2502,-88.4378
11:43:58.391,-42.4377,-91.3129
11:43:58.402,-40.7502,-89.4378
11:43:58.410,-36.6251,-81.8753
11:43:58.421,-25.8751,-68.0003
11:43:58.431,-12.1875,-42.1252
11:43:58.440,4.6875,-16.1251
11:43:58.451,20.0626,13.6876
11:43:58.460,34.5001,38.4376
11:43:58.471,46.4377,60.5002
11:43:58.480,53.3752,77.8753
11:43:58.491,58.8127,90.1879
11:43:58.500,62.0002,99.6254
11:43:58.511,62.9377,105.2504
11:43:58.520,63.5002,108.6254
11:43:58.530,62.4377,111.8129
11:43:58.540,62.6877,111.4379
11:43:58.550,60.6252,112.2504
11:43:58.560,59.0627,109.3754
11:43:58.576,57.3127,108.6879
11:43:58.580,54.5627,106.5629
11:43:58.592,52.3752,103.3129
11:43:58.600,50.9377,101.5004
11:43:58.610,48.5627,99.5629
11:43:58.620,46.3127,96.7504
11:43:58.631,44.2502,93.0004
11:43:58.640,41.1877,88.7503
11:43:58.650,38.0001,83.2503
11:43:58.660,34.3126,77.1878
11:43:58.671,30.1876,68.8753
11:43:58.681,26.5001,61.7502
11:43:58.691,21.6251,53.5627
11:43:58.700,18.1876,46.7502
11:43:58.711,15.2501,40.6252
11:43:58.726,12.6875,36.1251
11:43:58.742,10.9375,31.9376
11:43:58.756,10.5625,29.6251
11:43:58.760,10.3125,28.1251
11:43:58.775,10.3125,26.6876
11:43:58.777,9.25,25.0001
11:43:58.785,8,23.3751
11:43:58.796,6.6875,21.2501
11:43:58.831,5.1875,19.5001
11:43:58.900,3.625,16.0001
11:43:58.903,1.3125,12.75
11:43:58.907,-1.3125,8.4375
11:43:58.907,-3.25,5.125
11:43:58.907,-5.9375,-0.3125
11:43:58.908,-8.3125,-4.0625
11:43:58.911,-10.75,-9.9375
11:43:58.940,-12.8125,-14.3751
11:43:58.940,-15.1876,-20.7501
11:43:58.940,-19.8126,-28.6251
11:43:58.941,-22.3751,-33.3751
11:43:58.944,-25.3751,-37.6251
11:43:58.950,-28.1251,-42.5627
11:43:58.958,-30.0001,-48.0002
11:43:58.989,-34.4376,-53.9377
11:43:58.993,-37.3751,-58.0627
11:43:58.995,-38.8751,-62.1877
11:43:58.996,-40.6252,-66.8128
11:43:59.011,-43.2502,-71.1253
11:43:59.017,-44.9377,-74.7503
11:43:59.027,-47.0002,-78.8128
11:43:59.035,-51.3752,-87.5003
11:43:59.047,-53.2502,-90.3753
11:43:59.057,-54.8127,-93.9379
11:43:59.065,-56.1252,-96.8754
11:43:59.076,-57.4377,-100.8754
11:43:59.085,-59.1252,-102.8129
11:43:59.095,-59.8752,-105.3754
11:43:59.106,-60.0002,-104.2504
11:43:59.116,-54.8127,-98.3129
11:43:59.125,-44.3127,-82.5003
11:43:59.137,-28.9376,-58.0002
11:43:59.145,-12.8125,-28.6876
11:43:59.156,3.6875,-0.625
11:43:59.166,18.1251,26.9376
11:43:59.175,29.3126,50.7502
11:43:59.186,37.1876,68.8753
11:43:59.196,44.1252,83.6253
11:43:59.205,46.5002,95.7504
11:43:59.215,49.4377,102.7504
11:43:59.226,51.5627,108.1879
11:43:59.236,51.0627,111.6254
11:43:59.246,51.1877,113.3754
11:43:59.255,50.7502,115.1254
11:43:59.267,49.8127,115.0629
11:43:59.275,49.3127,114.2504
11:43:59.286,48.9377,114.4379
11:43:59.296,47.3752,112.9379
11:43:59.305,46.4377,110.8129
11:43:59.315,45.6877,110.3754
11:43:59.325,43.6252,106.5629
11:43:59.335,41.5627,104.7504
11:43:59.346,39.3751,100.3129
11:43:59.371,35.9376,95.9379
11:43:59.372,32.8126,89.0003
11:43:59.375,28.3126,83.0003
11:43:59.393,24.5626,74.5003
11:43:59.395,20.6251,67.9378
11:43:59.407,16.8751,59.6877
11:43:59.416,14.0001,54.7502
11:43:59.426,10.75,47.7502
11:43:59.436,8.375,43.4377
11:43:59.447,6.1875,38.4376
11:43:59.456,4.5625,35.3751
11:43:59.466,3.25,32.4376
11:43:59.476,2.75,30.8126
11:43:59.486,1.8125,28.0626
11:43:59.496,0.9375,26.4376
11:43:59.506,0.25,23.7501
11:43:59.538,-1.75,21.7501
11:43:59.542,-3,18.1876
11:43:59.543,-5.4375,13.6251
11:43:59.546,-7.75,10.625
11:43:59.579,-10.3125,5.5
11:43:59.581,-12.9375,1.125
11:43:59.584,-15.5001,-4.875
11:43:59.615,-18.4376,-9.25
11:43:59.618,-21.3126,-15.6876
11:43:59.620,-24.7501,-20.4376
11:43:59.626,-27.3126,-26.8751
11:43:59.626,-30.4376,-32.4376
11:43:59.660,-33.3751,-38.2501
11:43:59.662,-36.1251,-43.1252
11:43:59.664,-38.6251,-49.7502
11:43:59.668,-41.5002,-54.1252
11:43:59.682,-43.7502,-59.5627
11:43:59.687,-46.6252,-62.7502
11:43:59.696,-49.0002,-69.2503
11:43:59.706,-51.0627,-72.9378
11:43:59.715,-53.6252,-77.8128
11:43:59.726,-55.0002,-82.1253
11:43:59.737,-57.5002,-84.5003
11:43:59.745,-58.5002,-89.0003
11:43:59.757,-60.1877,-91.8129
11:43:59.767,-61.8752,-94.7504
11:43:59.775,-62.6877,-96.6879
11:43:59.786,-63.6252,-99.0004
11:43:59.796,-65.3753,-101.8129
11:43:59.806,-65.7502,-104.8129
11:43:59.816,-67.8753,-106.5629
11:43:59.826,-68.4378,-109.5629
11:43:59.836,-69.5628,-111.2504
11:43:59.846,-70.6878,-113.8129
11:43:59.855,-71.4378,-116.8129
11:43:59.869,-72.6878,-119.313
11:43:59.877,-73.0003,-120.8755
11:43:59.885,-72.8753,-120.688
11:43:59.897,-69.1253,-115.1879
11:43:59.906,-58.3127,-101.7504
11:43:59.915,-43.8752,-77.9378
11:43:59.926,-26.1251,-48.6252
11:43:59.936,-7.875,-16.7501
11:43:59.945,7.5625,12.0625
11:43:59.957,21.4376,38.5001
11:43:59.966,30.3126,60.8127
11:43:59.975,38.6251,76.8753
11:43:59.986,43.7502,89.9378
11:43:59.997,47.0627,99.2504
11:44:00.006,48.3127,105.8754
11:44:00.017,50.1252,110.0004
11:44:00.026,49.4377,114.1879
11:44:00.043,49.8127,114.8754
11:44:00.049,50.0627,115.9379
11:44:00.064,48.9377,115.9379
11:44:00.066,48.2502,114.9379
11:44:00.081,48.1252,114.3129
11:44:00.086,45.6877,114.5629
11:44:00.096,44.6252,111.1254
11:44:00.105,44.0002,109.6254
11:44:00.116,42.0002,107.3754
11:44:00.125,39.4377,104.4379
11:44:00.150,37.3126,99.2504
11:44:00.164,32.8126,94.1879
11:44:00.167,29.3751,86.3128
11:44:00.184,25.2501,80.4378
11:44:00.184,21.9376,73.0003
11:44:00.186,17.6251,66.5003
11:44:00.196,14.8751,59.1877
11:44:00.207,12,52.9377
11:44:00.242,10.0625,49.4377
11:44:00.244,8.75,44.1877
11:44:00.245,7.5625,41.5002
11:44:00.248,6.625,39.0627
11:44:00.276,5.4375,36.6251
11:44:00.279,5.4375,34.8126
11:44:00.281,4.0625,33.5001
11:44:00.288,2.875,30.2501
11:44:00.300,0.75,27.4376
11:44:00.306,-1.5625,24.0626
11:44:00.333,-3.0625,20.2501
11:44:00.335,-5.4375,16.2501
11:44:00.337,-7.375,12.5
11:44:00.368,-10.875,7.5625
11:44:00.371,-12.625,1.875
11:44:00.374,-15.5626,-3.875
11:44:00.396,-17.6876,-9.125
11:44:00.399,-20.5001,-14.6251
11:44:00.401,-22.6251,-19.3751
11:44:00.411,-25.3751,-26.5001
11:44:00.421,-29.1876,-32.2501
11:44:00.432,-31.5626,-38.2501
11:44:00.441,-35.3126,-44.2502
11:44:00.451,-38.1251,-50.3127
11:44:00.460,-41.1252,-55.5627
11:44:00.471,-43.5002,-60.4377
11:44:00.480,-46.3752,-65.5628
11:44:00.491,-48.1877,-70.5003
11:44:00.500,-50.4377,-75.0003
11:44:00.516,-52.0627,-79.8128
11:44:00.522,-54.1252,-83.9378
11:44:00.531,-56.8127,-89.1253
11:44:00.541,-57.6877,-93.0629
11:44:00.551,-60.0002,-95.1879
11:44:00.562,-60.8752,-99.8754
11:44:00.570,-62.6252,-102.5629
11:44:00.581,-63.6877,-105.8754
11:44:00.591,-64.6252,-107.5629
11:44:00.600,-65.4378,-110.7504
11:44:00.611,-66.2503,-112.9379
11:44:00.620,-67.6253,-116.4379
11:44:00.651,-68.3753,-117.938
11:44:00.654,-70.0628,-122.063
11:44:00.656,-71.0628,-124.1255
11:44:00.661,-72.5628,-127.813
11:44:00.670,-72.7503,-129.688
11:44:00.680,-74.2503,-131.5005
11:44:00.692,-73.1253,-132.938
11:44:00.701,-69.2503,-127.7505
11:44:00.710,-58.6252,-113.8129
11:44:00.721,-43.0002,-89.2503
11:44:00.730,-22.1251,-57.4377
11:44:00.740,-3.6875,-24.2501
11:44:00.751,13.7501,6.0625
11:44:00.760,28.3126,33.5001
11:44:00.770,38.9376,54.6252
11:44:00.781,46.6252,70.0628
11:44:00.792,51.4377,83.2503
11:44:00.800,54.0002,90.5004
11:44:00.811,55.8127,95.6254
11:44:00.820,55.0627,98.6879
11:44:00.831,54.7502,99.5004
11:44:00.840,54.2502,100.3129
11:44:00.851,52.3752,99.5004
11:44:00.860,51.0002,97.0629
11:44:00.870,50.9377,95.6254
11:44:00.881,48.1877,93.8754
11:44:00.891,46.7502,90.7504
11:44:00.901,45.1252,89.6253
11:44:00.910,43.1252,87.0003
11:44:00.922,42.0627,84.4378
11:44:00.948,39.9377,81.0003
11:44:00.949,37.7501,76.5003
11:44:00.951,34.1251,71.1878
11:44:00.984,30.0001,64.0002
11:44:00.986,25.6251,56.5002
11:44:00.988,21.7501,49.2502
11:44:00.993,17.1876,42.1877
11:44:01.020,14.0626,35.2501
11:44:01.023,11.5625,30.6876
11:44:01.025,9.625,27.1876
11:44:01.052,8.5,23.0001
11:44:01.054,8,20.9376
11:44:01.056,8.3125,20.1876
11:44:01.061,7.4375,19.1876
11:44:01.089,7.8125,17.8751
11:44:01.091,6.1875,17.1251
11:44:01.093,5.5625,15.6876
11:44:01.100,4.375,12.375
11:44:01.110,2.5,10.8125
11:44:01.121,0.8125,7.1875
11:44:01.131,-1.5625,3.25
11:44:01.142,-4.3125,-1.8125
11:44:01.150,-7.0625,-7
11:44:01.160,-9.75,-12
11:44:01.170,-12.75,-17.5626
11:44:01.180,-17.0626,-22.1251
11:44:01.190,-19.5001,-28.2501
11:44:01.200,-23.5626,-33.4376
11:44:01.210,-26.3126,-38.6876
11:44:01.220,-28.4376,-44.6877
11:44:01.230,-31.9376,-49.4377
11:44:01.240,-34.5626,-54.1877
11:44:01.251,-37.3126,-60.2502
11:44:01.266,-39.2502,-64.6252
11:44:01.271,-41.5627,-69.2503
11:44:01.280,-44.1252,-72.5003
11:44:01.290,-44.9377,-76.5628
11:44:01.301,-47.6252,-80.1878
11:44:01.310,-49.0002,-83.9378
11:44:01.320,-49.6252,-86.2503
11:44:01.330,-51.4377,-87.8128
11:44:01.350,-51.8127,-91.3754
11:44:01.356,-52.3752,-93.1254
11:44:01.371,-53.4377,-95.5004
11:44:01.374,-54.3127,-97.6254
11:44:01.382,-55.1877,-100.0004
11:44:01.390,-55.8752,-101.1254
11:44:01.400,-56.9377,-104.2504
11:44:01.410,-57.1252,-105.3129
11:44:01.422,-58.3752,-108.2504
11:44:01.432,-59.4377,-110.6254
11:44:01.449,-60.0627,-112.8754
11:44:01.451,-59.1877,-112.3754
11:44:01.466,-55.8127,-109.0004
11:44:01.474,-46.5627,-96.0004
11:44:01.483,-31.3751,-74.4378
11:44:01.490,-12.8125,-45.3127
11:44:01.500,4.875,-14.4376
11:44:01.510,21.8126,13.8751
11:44:01.520,36.0626,40.6877
11:44:01.530,46.6877,60.7502
11:44:01.540,54.5002,76.6878
11:44:01.550,59.6252,87.8753
11:44:01.561,62.7502,97.0004
11:44:01.570,64.2502,102.3754
11:44:01.580,65.3753,104.3129
11:44:01.590,64.1252,106.5629
11:44:01.600,62.6252,105.4379
11:44:01.610,61.1252,104.1879
11:44:01.621,59.0627,101.8129
11:44:01.630,57.6252,99.3754
11:44:01.647,54.9377,96.8754
11:44:01.650,52.8752,93.6254
11:44:01.669,51.6877,90.8754
11:44:01.671,49.6252,88.3128
11:44:01.708,47.5627,86.0003
11:44:01.709,45.1252,80.5003
11:44:01.710,42.0002,76.3128
11:44:01.715,37.9376,68.7503
11:44:01.748,33.6251,62.5627
11:44:01.751,29.1251,54.2502
11:44:01.753,24.6876,47.2502
11:44:01.759,20.9376,39.8752
11:44:01.761,17.5001,33.3126
11:44:01.771,14.6876,28.1251
11:44:01.808,12.5625,23.9376
11:44:01.808,11.875,21.5001
11:44:01.811,10.25,19.1251
11:44:01.815,10,17.0001
11:44:01.820,8.9375,16.7501
11:44:01.844,8.625,15.7501
11:44:01.846,8.875,13.5626
11:44:01.852,7.625,12.0625
11:44:01.861,6.6875,10.3125
11:44:01.870,4.8125,6.5
11:44:01.881,2.5,3.1875
11:44:01.890,0.0625,-0.5
11:44:01.900,-3.8125,-5.125
11:44:01.931,-6.9375,-10.8125
11:44:01.934,-9.5,-15.8126
11:44:01.938,-13.3751,-21.4376
11:44:01.946,-16.3126,-26.7501
11:44:01.950,-19.6251,-33.0626
11:44:01.960,-22.6251,-38.5001
11:44:01.970,-25.3126,-43.6877
11:44:01.980,-29.4376,-49.4377
11:44:01.990,-32.0626,-54.3127
11:44:02.000,-35.0001,-60.5627
11:44:02.011,-38.1876,-64.5627
11:44:02.020,-40.0002,-70.6878
11:44:02.036,-43.1877,-74.9378
11:44:02.042,-45.3127,-79.8128
11:44:02.050,-47.1877,-84.5003
11:44:02.060,-49.0627,-88.3753
11:44:02.070,-51.0002,-91.5004
11:44:02.081,-53.1877,-95.5004
11:44:02.090,-54.3127,-99.1879
11:44:02.100,-57.1877,-101.6879
11:44:02.110,-58.7502,-106.4379
11:44:02.120,-59.5627,-108.8754
11:44:02.130,-61.8752,-111.3754
11:44:02.141,-63.1877,-115.3129
11:44:02.150,-63.9377,-116.8754
11:44:02.160,-66.0003,-120.563
11:44:02.170,-66.4378,-122.813
11:44:02.180,-66.7503,-123.563
11:44:02.191,-64.7502,-120.688
11:44:02.202,-55.6252,-109.4379
11:44:02.211,-42.6877,-89.2503
11:44:02.220,-23.8126,-60.0002
11:44:02.231,-4.25,-26.2501
11:44:02.241,12.8125,3.5625
11:44:02.250,28.3126,31.1876
11:44:02.260,40.8127,54.3752
11:44:02.270,48.2502,70.6878
11:44:02.280,54.1252,83.3128
11:44:02.290,57.3127,92.3754
11:44:02.300,58.8752,98.3754
11:44:02.311,59.6877,100.6879
11:44:02.320,59.4377,103.3129
11:44:02.330,58.6877,102.6254
11:44:02.340,58.1252,101.7504
11:44:02.350,55.5002,101.1879
11:44:02.361,53.6252,97.8754
11:44:02.370,52.5627,94.8129
11:44:02.380,51.2502,92.9379
11:44:02.390,48.8752,91.6254
11:44:02.405,47.9377,88.1878
11:44:02.413,45.8127,84.6253
11:44:02.442,43.9377,81.0628
11:44:02.445,41.3752,76.8753
11:44:02.447,38.1251,70.9378
11:44:02.450,34.7501,65.0628
11:44:02.489,30.3126,57.3127
11:44:02.493,25.8751,48.9377
11:44:02.494,22.4376,41.8127
11:44:02.501,18.1876,34.8126
11:44:02.501,15.1251,29.3126
11:44:02.516,11.8125,23.4376
11:44:02.521,9.8125,19.3751
11:44:02.548,7.75,16.2501
11:44:02.550,6.625,14.0001
11:44:02.553,6.875,12.375
11:44:02.584,7,11.375
11:44:02.586,7.5625,11.0625
11:44:02.588,5.875,9.25
11:44:02.591,4.8125,7.25
11:44:02.600,2.9375,3.5
11:44:02.611,0.5,-0.1875
11:44:02.620,-1.9375,-3.75
11:44:02.630,-4.9375,-8.4375
11:44:02.640,-8.3125,-13
11:44:02.657,-10.125,-17.9376
11:44:02.664,-13.5626,-23.5626
11:44:02.679,-16.4376,-29.2501
11:44:02.681,-19.4376,-34.3126
11:44:02.697,-23.1251,-41.3127
11:44:02.701,-25.8126,-46.6252
11:44:02.711,-29.3126,-52.7502
11:44:02.720,-32.5626,-59.0002
11:44:02.730,-35.3126,-63.8127
11:44:02.752,-38.6876,-69.1878
11:44:02.754,-42.2502,-74.9378
11:44:02.770,-44.7502,-81.1878
11:44:02.776,-48.0627,-84.5628
11:44:02.786,-50.0002,-90.7504
11:44:02.795,-52.2502,-95.0004
11:44:02.806,-54.5002,-98.1254
11:44:02.815,-56.9377,-103.4379
11:44:02.826,-57.8127,-105.8754
11:44:02.835,-60.4377,-110.8129
11:44:02.845,-62.1252,-113.0004
11:44:02.855,-63.5002,-115.8129
11:44:02.865,-65.0002,-119.1255
11:44:02.876,-65.9378,-121.063
11:44:02.887,-67.7503,-123.7505
11:44:02.895,-69.8753,-126.438
11:44:02.905,-70.8753,-129.188
11:44:02.915,-72.5628,-131.688
11:44:02.925,-74.7503,-135.8755
11:44:02.935,-74.4378,-138.1255
11:44:02.945,-75.7503,-139.7505
11:44:02.957,-76.0628,-142.3755
11:44:02.965,-74.3753,-140.188
11:44:02.977,-69.3128,-134.313
11:44:02.985,-57.6877,-117.563
11:44:02.995,-39.6877,-88.0628
11:44:03.005,-17.9376,-54.5627
11:44:03.016,4.3125,-17.7501
11:44:03.025,22.6251,15.6251
11:44:03.035,38.2501,43.5002
11:44:03.045,49.8752,66.6878
11:44:03.056,57.5002,83.2503
11:44:03.067,63.4377,95.8129
11:44:03.075,67.5003,104.7504
11:44:03.086,68.2503,110.8754
11:44:03.095,69.4378,113.0629
11:44:03.118,69.2503,114.5004
11:44:03.121,67.6253,114.8754
11:44:03.125,66.5003,113.1254
11:44:03.156,65.8128,111.3754
11:44:03.158,63.3127,109.3754
11:44:03.160,62.0002,106.9379
11:44:03.166,59.9377,104.8129
11:44:03.200,57.4377,101.3754
11:44:03.201,56.0002,98.5629
11:44:03.204,53.8127,94.8754
11:44:03.220,51.5627,91.4379
11:44:03.222,49.7502,87.2503
11:44:03.238,46.1252,81.8753
11:44:03.240,43.0002,75.3128
11:44:03.280,37.6876,68.2503
11:44:03.282,34.0626,61.0002
11:44:03.285,29.4376,52.8752
11:44:03.290,25.8126,46.2502
11:44:03.290,22.3751,40.4377
11:44:03.296,19.6876,34.3751
11:44:03.305,17.6876,30.5626
11:44:03.315,16.3126,27.4376
11:44:03.326,14.5001,25.6251
11:44:03.335,13.6876,23.1251
11:44:03.345,13.6251,21.5001
11:44:03.355,11.6875,20.3751
11:44:03.365,11.5625,17.4376
11:44:03.375,9.9375,16.3751
11:44:03.385,8.25,12
11:44:03.395,6.3125,9.5625
11:44:03.405,3.8125,5.4375
11:44:03.415,1.875,1.875
11:44:03.425,-0.9375,-3
11:44:03.435,-3.8125,-9
11:44:03.445,-7.125,-14.4376
11:44:03.455,-10.9375,-19.2501
11:44:03.465,-14.1251,-25.9376
11:44:03.476,-17.6251,-31.2501
11:44:03.485,-20.6876,-38.3751
11:44:03.495,-24.3751,-43.9377
11:44:03.505,-27.9376,-51.0002
11:44:03.516,-31.6251,-56.6252
11:44:03.525,-34.7501,-61.8752
11:44:03.536,-38.0001,-68.4378
11:44:03.546,-40.6877,-72.6878
11:44:03.555,-43.4377,-79.0628
11:44:03.566,-45.9377,-83.5003
11:44:03.576,-48.9377,-89.5003
11:44:03.585,-51.3127,-93.1879
11:44:03.595,-54.2502,-97.0004
11:44:03.605,-55.9377,-101.3754
11:44:03.618,-59.2502,-104.4379
11:44:03.626,-60.2502,-109.4379
11:44:03.635,-61.5627,-112.1879
11:44:03.645,-63.4377,-114.5004
11:44:03.655,-64.6252,-117.3754
11:44:03.665,-65.5628,-120.313
11:44:03.676,-67.3753,-121.938
11:44:03.686,-68.3128,-125.688
11:44:03.695,-69.1253,-127.188
11:44:03.711,-70.7503,-130.188
11:44:03.717,-71.9378,-133.0005
11:44:03.727,-73.1253,-135.3755
11:44:03.735,-73.4378,-135.5005
11:44:03.746,-70.0003,-132.688
11:44:03.755,-61.9377,-119.6255
11:44:03.765,-46.1252,-98.2504
11:44:03.775,-25.2501,-65.8753
11:44:03.785,-3.75,-29.0001
11:44:03.795,16.7501,5.5625
11:44:03.805,34.0626,36.3751
11:44:03.817,47.1877,61.0002
11:44:03.826,57.6877,80.6878
11:44:03.835,63.5627,94.5004
11:44:03.845,67.3753,103.3129
11:44:03.855,70.0628,110.0004
11:44:03.866,69.9378,113.0004
11:44:03.875,69.3128,113.0629
11:44:03.885,68.2503,112.3129
11:44:03.895,66.4378,111.5629
11:44:03.924,64.1252,107.8754
11:44:03.926,61.8127,104.1879
11:44:03.929,59.1877,101.3129
11:44:03.937,56.6877,97.5004
11:44:03.967,54.6252,92.8129
11:44:03.967,51.1877,89.7503
11:44:04.012,49.5627,84.8753
11:44:04.014,46.5627,82.0003
11:44:04.016,44.3752,75.1878
11:44:04.018,39.3752,70.1878
11:44:04.018,35.9376,62.3752
11:44:04.023,31.4376,55.4377
11:44:04.055,27.2501,46.0002
11:44:04.058,23.0001,38.6251
11:44:04.106,18.9376,31.1876
11:44:04.106,14.9376,25.2501
11:44:04.109,12.9375,18.8751
11:44:04.113,10.125,15.6251
11:44:04.113,8.875,10.5625
11:44:04.117,7.5625,9.625
11:44:04.125,6.9375,7.875
11:44:04.135,7.0625,5.4375
11:44:04.145,6.5,5.25
11:44:04.156,6.4375,3.5625
11:44:04.165,4.75,1.5625
11:44:04.175,3.75,-0.875
11:44:04.185,1.625,-3.625
11:44:04.195,-1.25,-8.8125
11:44:04.205,-3.625,-12.5625
11:44:04.215,-5.8125,-17.6251
11:44:04.225,-8.625,-22.7501
11:44:04.235,-12.125,-28.9376
11:44:04.245,-15.6876,-34.3126
11:44:04.255,-19.3126,-40.5002
11:44:04.265,-22.5001,-47.0627
11:44:04.275,-32.0626,-62.6252
11:44:04.286,-35.1876,-69.3753
11:44:04.295,-37.5626,-74.8128
11:44:04.305,-41.6877,-80.3753
11:44:04.315,-43.6877,-86.0628
11:44:04.326,-47.6252,-91.1879
11:44:04.335,-50.2502,-97.3129
11:44:04.345,-53.8752,-101.3754
11:44:04.357,-56.6877,-106.0004
11:44:04.365,-58.3752,-110.0629
11:44:04.375,-61.5627,-112.5629
11:44:04.385,-63.0627,-117.0629
11:44:04.395,-64.0002,-120.0005
11:44:04.405,-65.5002,-121.7505
11:44:04.417,-67.3128,-125.188
11:44:04.426,-68.3753,-126.313
11:44:04.435,-70.0003,-128.688
11:44:04.445,-70.5628,-130.8755
11:44:04.457,-73.0003,-131.938
11:44:04.465,-73.8128,-135.3755
11:44:04.492,-75.6878,-135.813
11:44:04.494,-77.5628,-139.5005
11:44:04.499,-79.5628,-139.6255
11:44:04.507,-81.3128,-143.0005
11:44:04.516,-83.5003,-142.563
11:44:04.526,-81.6253,-136.6255
11:44:04.535,-75.3753,-120.688
11:44:04.546,-60.6252,-95.1879
11:44:04.555,-42.5627,-59.8752
11:44:04.566,-20.1251,-22.6251
11:44:04.581,0.6875,12.3125
11:44:04.611,17.2501,42.6252
11:44:04.612,29.5626,66.0003
11:44:04.614,38.5626,83.8753
11:44:04.616,42.4377,95.5629
11:44:04.648,45.5627,102.8754
11:44:04.650,48.1877,108.3129
11:44:04.652,47.5627,110.1879
11:44:04.677,48.4377,110.0004
11:44:04.679,47.1877,108.6879
11:44:04.682,44.0002,105.5004
11:44:04.687,42.1252,101.4379
11:44:04.695,38.4376,98.1879
11:44:04.735,35.8751,92.8754
11:44:04.737,33.7501,88.2503
11:44:04.739,29.8751,83.2503
11:44:04.742,27.1251,77.6253
11:44:04.749,23.0001,71.6878
11:44:04.760,19.3751,65.6252
11:44:04.767,16.5001,57.6252
11:44:04.777,12.0625,49.4377
11:44:04.785,8.25,42.1252
11:44:04.795,4.75,33.8751
11:44:04.805,1.3125,26.8126
11:44:04.815,-0.3125,19.0001
11:44:04.825,-1.375,13.9376
11:44:04.839,-1.5,9.9375
11:44:04.845,-1.25,6.625
11:44:04.856,1,4.3125
11:44:04.865,2.125,2.625
11:44:04.875,5.625,2.375
11:44:04.885,10.5,2.375
11:44:04.895,14.8751,5.5
11:44:04.907,21.4376,9.25
11:44:04.915,29.8751,15.0001
11:44:04.926,38.3751,20.5626
11:44:04.935,44.9377,24.1876
11:44:04.946,48.3752,25.7501
11:44:04.955,48.4377,24.2501
11:44:04.965,43.6252,19.6251
11:44:04.975,38.1876,11.8125
11:44:04.985,28.5001,2.625
11:44:04.995,19.1876,-7.9375
11:44:05.006,8.8125,-17.7501
11:44:05.015,-0.3125,-28.3751
11:44:05.025,-9.9375,-39.3127
11:44:05.035,-20.1876,-50.3127
11:44:05.046,-28.7501,-59.8127
11:44:05.056,-37.3751,-70.6878
11:44:05.065,-44.7502,-79.1253
11:44:05.075,-51.0627,-88.6878
11:44:05.086,-56.5627,-96.4379
11:44:05.096,-62.1252,-104.9379
11:44:05.107,-67.0628,-111.4379
11:44:05.115,-71.1878,-118.313
11:44:05.125,-75.4378,-123.563
11:44:05.135,-77.5003,-128.6255
11:44:05.145,-79.5628,-131.188
11:44:05.158,-79.5628,-132.688
11:44:05.166,-79.7503,-133.7505
11:44:05.175,-81.0003,-136.7505
11:44:05.185,-82.9378,-138.563
11:44:05.197,-85.0628,-141.688
11:44:05.205,-86.0003,-144.7505
11:44:05.215,-87.7503,-146.5631
11:44:05.225,-88.5628,-149.6881
11:44:05.235,-88.8753,-149.4381
11:44:05.247,-87.3753,-147.6881
11:44:05.255,-81.2503,-139.7505
11:44:05.266,-70.3128,-121.8755
11:44:05.282,-52.5627,-93.6254
11:44:05.297,-32.9376,-58.9377
11:44:05.299,-10.0625,-22.6876
11:44:05.305,8.875,13.8751
11:44:05.315,25.5626,43.1877
11:44:05.325,38.4376,68.7503
11:44:05.335,46.6252,86.0628
11:44:05.345,52.3127,99.3754
11:44:05.355,54.5627,109.1879
11:44:05.370,56.7502,113.8129
11:44:05.385,57.1252,118.8755
11:44:05.407,57.7502,119.438
11:44:05.411,57.5002,121.938
11:44:05.413,57.8752,120.3755
11:44:05.416,57.6252,119.6255
11:44:05.452,54.5627,118.0005
11:44:05.455,53.1877,114.9379
11:44:05.457,49.7502,111.9379
11:44:05.460,47.9377,107.6879
11:44:05.465,44.6877,103.1254
11:44:05.496,41.6877,98.6879
11:44:05.502,38.6251,93.0629
11:44:05.502,35.0001,86.2503
11:44:05.508,30.3751,78.7503
11:44:05.544,25.5001,70.6878
11:44:05.546,21.7501,63.4377
11:44:05.549,17.7501,55.1252
11:44:05.551,13.8751,48.0002
11:44:05.557,10.125,41.8127
11:44:05.570,6.5625,36.3126
11:44:05.575,4.875,31.2501
11:44:05.589,3.4375,27.0001
11:44:05.595,2.5625,24.6876
11:44:05.605,3.25,22.4376
11:44:05.615,3.875,19.9376
11:44:05.626,5,19.2501
11:44:05.635,5.5,17.6876
11:44:05.645,6.25,16.8126
11:44:05.656,6.75,14.6251
11:44:05.665,6.375,12.625
11:44:05.675,7.4375,9.8125
11:44:05.685,6.375,5.25
11:44:05.695,4.375,0.75
11:44:05.706,2.8125,-4.5625
11:44:05.715,0.5,-10.9375
11:44:05.727,-2.8125,-17.3751
11:44:05.735,-7.125,-25.3126
11:44:05.746,-11.3125,-33.1251
11:44:05.771,-16.5626,-41.3752
11:44:05.774,-22.2501,-49.9377
11:44:05.779,-28.4376,-58.4377
11:44:05.785,-35.2501,-67.5628
11:44:05.797,-42.0002,-76.6253
11:44:05.805,-48.5627,-86.9378
11:44:05.815,-55.8127,-95.6254
11:44:05.825,-62.4377,-103.3754
11:44:05.835,-68.1878,-112.5629
11:44:05.846,-73.9378,-119.563
11:44:05.855,-78.7503,-126.3755
11:44:05.865,-82.8128,-131.813
11:44:05.878,-86.8128,-137.7505
11:44:05.886,-89.8128,-142.688
11:44:05.895,-92.5004,-146.3755
11:44:05.905,-93.6879,-150.2506
11:44:05.915,-94.6879,-151.1256
11:44:05.931,-93.9379,-153.2506
11:44:05.935,-93.6879,-153.1256
11:44:05.945,-93.0004,-154.5006
11:44:05.955,-91.4379,-154.3131
11:44:05.966,-91.1254,-152.6256
11:44:05.975,-88.6253,-151.0006
11:44:05.985,-81.9378,-141.3755
11:44:05.995,-70.5628,-124.5005
11:44:06.007,-53.5627,-97.5004
11:44:06.015,-31.2501,-61.1252
11:44:06.027,-9.6875,-24.7501
11:44:06.036,11.1875,11.5625
11:44:06.045,28.9376,44.6877
11:44:06.055,44.2502,70.5628
11:44:06.065,52.6252,89.4378
11:44:06.075,58.6877,102.5629
11:44:06.086,61.0627,112.4379
11:44:06.114,60.6252,116.2504
11:44:06.115,59.2502,119.2505
11:44:06.118,57.5627,119.7505
11:44:06.125,55.0002,120.3755
11:44:06.155,52.2502,118.1255
11:44:06.158,50.1877,116.8754
11:44:06.160,48.3752,116.3754
11:44:06.167,47.8127,113.0004
11:44:06.197,46.3752,110.7504
11:44:06.199,45.1877,109.0629
11:44:06.202,42.0002,105.9379
11:44:06.229,39.5002,101.6254
11:44:06.230,37.4376,97.3754
11:44:06.233,35.4376,93.8129
11:44:06.238,33.0001,88.2503
11:44:06.260,30.2501,82.2503
11:44:06.262,26.1876,74.3753
11:44:06.266,21.6876,66.1253
11:44:06.275,17.6251,58.2502
11:44:06.285,12.125,50.7502
11:44:06.295,8.4375,43.5002
11:44:06.307,5.8125,36.2501
11:44:06.316,3.5625,31.2501
11:44:06.326,2.8125,27.6251
11:44:06.338,3.625,24.9376
11:44:06.348,7,22.6876
11:44:06.355,10.125,21.3751
11:44:06.365,12.4375,20.9376
11:44:06.375,16.6251,21.1876
11:44:06.385,18.8126,21.2501
11:44:06.395,20.6251,21.6251
11:44:06.405,23.6251,21.0626
11:44:06.415,24.8751,21.9376
11:44:06.425,27.1876,21.2501
11:44:06.435,28.8751,19.6251
11:44:06.445,29.6876,17.3126
11:44:06.455,27.2501,11.6875
11:44:06.468,22.6876,5.25
11:44:06.476,17.6876,-3.1875
11:44:06.485,10.125,-13.8751
11:44:06.495,1.4375,-25.1251
11:44:06.505,-8.0625,-39.1251
11:44:06.515,-19.3751,-52.1252
11:44:06.525,-29.8126,-66.0003
11:44:06.535,-42.0627,-78.6253
11:44:06.545,-53.1877,-90.5628
11:44:06.555,-62.1252,-102.1254
11:44:06.577,-68.7503,-110.9379
11:44:06.579,-73.8753,-118.8755
11:44:06.594,-78.5628,-125.5005
11:44:06.598,-81.3128,-131.1255
11:44:06.606,-85.0003,-135.688
11:44:06.617,-87.3128,-139.8755
11:44:06.625,-89.2503,-142.8755
11:44:06.635,-90.5003,-145.1255
11:44:06.645,-90.9379,-148.1881
11:44:06.666,-91.7504,-149.0631
11:44:06.667,-90.8129,-149.5631
11:44:06.682,-89.2503,-148.3131
11:44:06.686,-89.3128,-149.6256
11:44:06.695,-91.1879,-151.3756
11:44:06.705,-91.5629,-150.3131
11:44:06.715,-89.1878,-147.3756
11:44:06.725,-80.7503,-137.438
11:44:06.738,-66.2503,-114.1254
11:44:06.745,-45.5627,-83.3128
11:44:06.756,-24.5001,-47.5002
11:44:06.765,-2.6875,-11.75
11:44:06.775,15.5001,23.4376
11:44:06.791,30.1876,49.3127
11:44:06.800,39.3126,71.0003
11:44:06.810,44.9377,84.8753
11:44:06.820,49.0627,95.3129
11:44:06.830,50.6877,102.3754
11:44:06.841,51.8752,107.1254
11:44:06.871,51.2502,109.3754
11:44:06.873,50.8127,110.1879
11:44:06.875,48.7502,110.5004
11:44:06.882,48.2502,109.3129
11:44:06.916,46.6877,109.2504
11:44:06.921,45.6877,106.1879
11:44:06.926,44.3127,105.1879
11:44:06.926,43.3127,102.0004
11:44:06.954,42.4377,99.6254
11:44:06.956,41.5002,97.3129
11:44:06.959,40.3127,94.1879
11:44:06.964,37.5001,88.9378
11:44:06.977,34.8751,82.8128
11:44:06.981,30.0001,75.2503
11:44:07.013,25.8751,69.2503
11:44:07.018,22.1876,60.2502
11:44:07.018,20.5626,54.0627
11:44:07.024,19.5626,49.0002
11:44:07.050,17.8126,43.6877
11:44:07.052,19.6876,42.0002
11:44:07.055,23.5001,39.9377
11:44:07.061,24.8126,39.8127
11:44:07.071,26.9376,38.3751
11:44:07.080,27.9376,36.9376
11:44:07.091,28.3751,36.8751
11:44:07.100,29.0626,35.6876
11:44:07.110,28.3751,34.0001
11:44:07.120,26.1876,30.5001
11:44:07.130,24.3126,25.8126
11:44:07.140,19.4376,19.8751
11:44:07.150,13.1876,12.625
11:44:07.160,6.625,3.375
11:44:07.170,-0.4375,-5.25
11:44:07.181,-7.5625,-14.2501
11:44:07.190,-15.4376,-24.4376
11:44:07.200,-23.4376,-33.0626
11:44:07.210,-30.9376,-43.0002
11:44:07.220,-36.8751,-51.5002
11:44:07.230,-41.5002,-60.1252
11:44:07.240,-45.9377,-67.3128
11:44:07.250,-49.2502,-73.4378
11:44:07.260,-52.9377,-80.6878
11:44:07.270,-56.4377,-85.5003
11:44:07.280,-59.1252,-90.7504
11:44:07.290,-60.7502,-94.1879
11:44:07.300,-61.4377,-96.1879
11:44:07.310,-61.4377,-97.8129
11:44:07.321,-61.4377,-98.5629
11:44:07.330,-60.6877,-99.8754
11:44:07.340,-60.6252,-99.3129
11:44:07.350,-60.1252,-101.3129
11:44:07.360,-60.3127,-101.9379
11:44:07.370,-61.3752,-102.6254
11:44:07.380,-60.7502,-103.5004
11:44:07.390,-62.7502,-104.5004
11:44:07.400,-63.1877,-106.2504
11:44:07.410,-65.6878,-107.7504
11:44:07.420,-65.4378,-108.9379
11:44:07.430,-64.5627,-106.8754
11:44:07.440,-58.8752,-100.1254
11:44:07.450,-46.4377,-82.4378
11:44:07.465,-31.7501,-55.0627
11:44:07.470,-13,-25.0626
11:44:07.510,5.3125,9.6875
11:44:07.512,21.1876,39.6877
11:44:07.516,34.1876,65.6253
11:44:07.545,42.6877,85.6878
11:44:07.545,48.5627,100.6254
11:44:07.546,53.5002,113.1879
11:44:07.551,56.6877,120.563
11:44:07.556,59.6252,127.7505
11:44:07.562,61.2502,132.8755
11:44:07.603,63.1877,134.188
11:44:07.606,63.3127,136.7505
11:44:07.608,63.0627,137.0005
11:44:07.610,63.6877,135.8755
11:44:07.616,62.5002,134.563
11:44:07.620,61.8127,131.813
11:44:07.650,60.8752,130.1255
11:44:07.652,57.8127,125.5005
11:44:07.654,55.0627,122.3755
11:44:07.661,51.5002,116.1254
11:44:07.671,48.3752,111.1254
11:44:07.681,45.5002,104.0004
11:44:07.691,41.8752,96.8129
11:44:07.700,39.6877,89.0003
11:44:07.711,38.5001,80.6253
11:44:07.721,37.5626,73.3753
11:44:07.731,36.5626,67.1253
11:44:07.740,36.1876,60.8127
11:44:07.750,36.0626,56.2502
11:44:07.760,36.0001,52.7502
11:44:07.770,36.0001,48.0002
11:44:07.780,35.0001,45.4377
11:44:07.790,34.4376,42.8127
11:44:07.800,32.3126,40.7502
11:44:07.811,29.7501,37.0001
11:44:07.820,26.4376,32.4376
11:44:07.830,21.9376,28.0626
11:44:07.844,18.0626,21.6876
11:44:07.850,11.875,15.4376
11:44:07.860,6.1875,7.9375
11:44:07.875,-1.1875,-0.625
11:44:07.890,-7.9375,-8
11:44:07.893,-14.0001,-15.8751
11:44:07.900,-19.3126,-22.7501
11:44:07.910,-23.8126,-30.3126
11:44:07.920,-28.5626,-36.4376
11:44:07.930,-31.5626,-43.4377
11:44:07.940,-35.8126,-49.0002
11:44:07.961,-38.8126,-54.5002
11:44:07.963,-42.2502,-60.3752
11:44:07.979,-46.1252,-66.0628
11:44:07.981,-48.1252,-70.5003
11:44:07.990,-50.3752,-74.8128
11:44:08.001,-51.7502,-77.2503
11:44:08.010,-52.5627,-81.1253
11:44:08.020,-53.2502,-83.6253
11:44:08.030,-54.8127,-86.0003
11:44:08.040,-57.0627,-90.0003
11:44:08.050,-57.9377,-92.8129
11:44:08.060,-60.1877,-96.6254
11:44:08.070,-61.0002,-99.4379
11:44:08.080,-63.0627,-101.8129
11:44:08.090,-63.6877,-106.6879
11:44:08.100,-64.3127,-109.8754
11:44:08.110,-67.6878,-113.9379
11:44:08.120,-70.9378,-118.938
11:44:08.130,-75.8128,-124.3755
11:44:08.140,-79.0628,-128.813
11:44:08.150,-82.6878,-132.438
11:44:08.163,-80.9378,-131.813
11:44:08.172,-77.8128,-124.938
11:44:08.180,-66.8128,-109.3754
11:44:08.190,-51.2502,-82.5003
11:44:08.200,-31.1876,-48.6252
11:44:08.210,-9.9375,-12.375
11:44:08.220,8.125,21.9376
11:44:08.230,23.5001,49.8127
11:44:08.240,34.4376,73.1253
11:44:08.250,44.0627,91.0629
11:44:08.260,49.8752,105.3129
11:44:08.271,54.3127,113.6254
11:44:08.289,57.8752,120.1255
11:44:08.292,57.8127,123.1255
11:44:08.331,58.8127,124.313
11:44:08.333,57.5627,125.1255
11:44:08.335,56.0627,122.6255
11:44:08.338,54.2502,121.313
11:44:08.342,51.3127,117.3754
11:44:08.379,50.1252,113.8754
11:44:08.381,49.4377,111.0004
11:44:08.384,47.5002,107.7504
11:44:08.414,47.7502,104.5004
11:44:08.415,46.8127,100.9379
11:44:08.415,47.5627,98.1879
11:44:08.418,47.7502,93.5004
11:44:08.424,47.1252,88.6253
11:44:08.438,45.5002,81.2503
11:44:08.444,42.7502,74.8128
11:44:08.462,41.7502,68.8128
11:44:08.465,39.2502,61.8127
11:44:08.471,36.8751,55.3752
11:44:08.480,34.5001,50.0002
11:44:08.490,31.1876,43.0627
11:44:08.500,27.2501,37.7501
11:44:08.512,23.4376,32.3751
11:44:08.522,19.3126,26.6876
11:44:08.530,15.1251,21.6876
11:44:08.540,10,16.3751
11:44:08.550,5.9375,12.3125
11:44:08.560,1.9375,7
11:44:08.570,-2.75,3.375
11:44:08.580,-5.1875,-0.6875
11:44:08.595,-8.0625,-6.4375
11:44:08.600,-11.5,-11
11:44:08.610,-14.5001,-16.0626
11:44:08.621,-17.0001,-21.1876
11:44:08.630,-20.3126,-26.1876
11:44:08.640,-22.8751,-31.6876
11:44:08.650,-25.8751,-35.4376
11:44:08.660,-28.5001,-39.9377
11:44:08.670,-30.3751,-44.3127
11:44:08.680,-32.3751,-47.8752
11:44:08.690,-34.2501,-51.6252
11:44:08.700,-36.5626,-56.1877
11:44:08.710,-39.5002,-60.1252
11:44:08.721,-41.8127,-66.0628
11:44:08.731,-45.2502,-70.7503
11:44:08.740,-47.3752,-75.0628
11:44:08.750,-50.0627,-79.3128
11:44:08.760,-53.3127,-86.0003
11:44:08.770,-55.6252,-90.2504
11:44:08.780,-59.1252,-94.3129
11:44:08.791,-62.1252,-101.0004
11:44:08.802,-64.1877,-105.8754
11:44:08.812,-69.1878,-111.6254
11:44:08.820,-73.5003,-118.6255
11:44:08.830,-77.1878,-123.2505
11:44:08.840,-81.1878,-127.6255
11:44:08.850,-83.8128,-132.688
11:44:08.860,-85.3753,-136.5005
11:44:08.870,-87.9378,-139.5005
11:44:08.880,-87.9378,-141.563
11:44:08.890,-87.9378,-141.5005
11:44:08.900,-84.8753,-138.7505
11:44:08.910,-76.8128,-127.1255
11:44:08.920,-62.5627,-107.6254
11:44:08.930,-42.8127,-76.8128
11:44:08.941,-22.1876,-42.6252
11:44:08.953,-0.0625,-5.125
11:44:08.971,16.8751,28.5626
11:44:08.976,30.8751,52.9377
11:44:08.986,42.5627,74.6878
11:44:08.995,48.0002,90.3754
11:44:09.005,52.9377,100.7504
11:44:09.015,55.4377,109.5629
11:44:09.025,57.0627,112.7504
11:44:09.035,58.6877,115.8754
11:44:09.051,58.6252,118.0005
11:44:09.055,60.3752,117.063
11:44:09.095,62.0627,118.5005
11:44:09.097,64.3127,117.2504
11:44:09.099,66.0628,116.1879
11:44:09.103,66.2503,114.8129
11:44:09.110,65.6878,111.0004
11:44:09.115,66.1253,109.2504
11:44:09.153,63.3127,104.3129
11:44:09.155,61.5627,99.3129
11:44:09.187,57.4377,91.5629
11:44:09.189,51.6252,83.4378
11:44:09.191,44.8127,72.2503
11:44:09.197,37.3751,61.6877
11:44:09.197,28.4376,48.3752
11:44:09.197,19.4376,35.7501
11:44:09.206,10.375,23.8751
11:44:09.220,2.0625,13.2501
11:44:09.225,-3.5,4.1875
11:44:09.235,-8.6875,-2.4375
11:44:09.246,-12.4375,-8.1875
11:44:09.260,-16.1251,-13.9376
11:44:09.275,-19.6876,-16.1251
11:44:09.277,-21.0626,-20.1251
11:44:09.285,-22.3751,-20.5626
11:44:09.295,-22.3751,-21.5001
11:44:09.306,-22.0001,-23.0001
11:44:09.315,-22.0001,-23.2501
11:44:09.325,-21.8126,-24.0001
11:44:09.335,-23.2501,-24.3751
11:44:09.345,-23.6876,-25.7501
11:44:09.355,-23.5626,-26.7501
11:44:09.365,-24.5626,-29.1876
11:44:09.375,-27.2501,-33.3751
11:44:09.385,-30.1251,-38.0001
11:44:09.395,-32.6876,-43.3127
11:44:09.406,-36.0626,-49.8752
11:44:09.416,-39.3752,-54.7502
11:44:09.426,-42.2502,-62.5002
11:44:09.435,-46.0002,-68.0003
11:44:09.445,-48.9377,-75.1878
11:44:09.455,-53.0627,-80.7503
11:44:09.465,-55.6252,-88.2503
11:44:09.475,-59.8127,-94.8754
11:44:09.485,-64.0002,-101.3754
11:44:09.495,-68.4378,-109.2504
11:44:09.507,-72.1878,-115.0629
11:44:09.516,-75.5628,-121.6255
11:44:09.525,-78.5628,-126.813
11:44:09.535,-81.8753,-131.6255
11:44:09.545,-84.6878,-135.313
11:44:09.555,-86.3128,-136.938
11:44:09.565,-88.1253,-140.563
11:44:09.575,-88.0003,-141.0005
11:44:09.585,-88.5003,-141.438
11:44:09.610,-87.4378,-143.313
11:44:09.612,-85.5003,-142.0005
11:44:09.616,-84.0003,-141.313
11:44:09.627,-79.5628,-137.2505
11:44:09.636,-72.3128,-126.063
11:44:09.645,-57.4377,-104.8129
11:44:09.655,-38.7501,-73.2503
11:44:09.665,-19.3126,-39.3752
11:44:09.675,1.5,-4.25
11:44:09.685,18.1251,28.8751
11:44:09.695,31.8126,54.5627
11:44:09.705,42.9377,74.9378
11:44:09.721,51.0627,91.6254
11:44:09.727,56.5002,101.5629
11:44:09.759,61.5627,110.5629
11:44:09.760,64.6877,116.8129
11:44:09.763,68.8753,119.7505
11:44:09.767,72.1253,123.7505
11:44:09.801,72.6878,122.8755
11:44:09.803,73.8128,121.438
11:44:09.807,72.5628,119.813
11:44:09.811,72.3128,117.6879
11:44:09.815,70.5003,114.1879
11:44:09.846,66.9378,110.0004
11:44:09.847,63.1252,104.0629
11:44:09.850,57.0627,97.9379
11:44:09.855,51.5002,90.1253
11:44:09.886,44.2502,81.8753
11:44:09.889,37.8751,72.5628
11:44:09.891,32.0626,63.6877
11:44:09.896,26.5626,54.3127
11:44:09.913,21.3751,45.5002
11:44:09.915,17.1251,38.1876
11:44:09.927,14.4376,31.9376
11:44:09.935,11.375,27.1251
11:44:09.945,10.625,23.0001
11:44:09.955,8.9375,20.0001
11:44:09.965,7.0625,18.6251
11:44:09.975,6.25,17.0626
11:44:09.985,5.875,16.1876
11:44:09.996,5.5,16.4376
11:44:10.005,6.25,17.3751
11:44:10.015,5.8125,17.9376
11:44:10.025,7.875,19.0626
11:44:10.035,7.125,18.6876
11:44:10.045,5.6875,17.2501
11:44:10.055,4.1875,14.6251
11:44:10.066,1.8125,10.8125
11:44:10.076,0.125,7.125
11:44:10.085,-2.25,1.5625
11:44:10.095,-5.125,-4.125
11:44:10.105,-8.5625,-11.3125
11:44:10.115,-13.1876,-19.1876
11:44:10.125,-17.7501,-28.1251
11:44:10.136,-25.2501,-38.0626
11:44:10.145,-31.3126,-46.6877
11:44:10.155,-36.6251,-56.0002
11:44:10.165,-42.2502,-63.7502
11:44:10.176,-47.3752,-72.7503
11:44:10.185,-53.3127,-79.3753
11:44:10.195,-57.3752,-85.7503
11:44:10.205,-60.0002,-90.0628
11:44:10.215,-61.3127,-94.1254
11:44:10.225,-62.8127,-98.4379
11:44:10.236,-63.5627,-100.2504
11:44:10.247,-64.8127,-102.5629
11:44:10.255,-65.5002,-103.6879
11:44:10.265,-66.5003,-105.7504
11:44:10.275,-65.8753,-106.8754
11:44:10.285,-65.8128,-109.0004
11:44:10.295,-64.8127,-109.5004
11:44:10.307,-64.0002,-110.0629
11:44:10.316,-61.5002,-107.5004
11:44:10.325,-54.8127,-97.5004
11:44:10.335,-41.1252,-78.1878
11:44:10.345,-24.8126,-49.2502
11:44:10.356,-5.375,-16.7501
11:44:10.365,14.6251,17.1251
11:44:10.375,29.8751,46.6877
11:44:10.385,44.6877,71.5628
11:44:10.395,57.4377,93.2504
11:44:10.430,68.0003,109.4379
11:44:10.434,76.6253,123.063
11:44:10.436,79.6253,131.313
11:44:10.436,83.3753,135.438
11:44:10.467,85.0628,138.938
11:44:10.469,84.9378,139.938
11:44:10.502,85.0003,139.063
11:44:10.504,81.5628,137.2505
11:44:10.506,79.1878,133.2505
11:44:10.512,74.1878,128.438
11:44:10.512,68.6878,122.188
11:44:10.521,63.0627,117.1254
11:44:10.526,57.3752,109.5004
11:44:10.555,53.9377,104.8129
11:44:10.557,49.0627,98.2504
11:44:10.588,43.9377,90.8753
11:44:10.589,39.1877,82.6878
11:44:10.596,32.0001,72.9378
11:44:10.596,27.1251,63.1877
11:44:10.597,20.8126,53.8752
11:44:10.605,15.7501,45.3127
11:44:10.615,11.125,36.3751
11:44:10.625,7.125,29.6251
11:44:10.635,5.5,26.2501
11:44:10.645,3.375,21.6251
11:44:10.655,2.8125,20.1876
11:44:10.665,2.1875,19.5001
11:44:10.675,3.375,18.8126
11:44:10.685,2.625,19.5001
11:44:10.695,2.625,19.3126
11:44:10.705,3.1875,17.3751
11:44:10.715,3.9375,18.0001
11:44:10.725,4.375,16.9376
11:44:10.736,3.5,14.8126
11:44:10.745,3.3125,12.125
11:44:10.755,2.125,9.5625
11:44:10.765,0.6875,4.4375
11:44:10.775,-1.75,-0.4375
11:44:10.786,-7.625,-8.6875
11:44:10.800,-13.3751,-15.4376
11:44:10.810,-19.3751,-24.5626
11:44:10.821,-24.4376,-30.3751
11:44:10.831,-29.5001,-38.1251
11:44:10.840,-34.2501,-43.2502
11:44:10.850,-36.3751,-49.1252
11:44:10.860,-38.0001,-53.1877
11:44:10.890,-38.6876,-56.0002
11:44:10.894,-39.2502,-58.3752
11:44:10.895,-38.0001,-59.8752
11:44:10.900,-35.8126,-60.1252
11:44:10.912,-33.2501,-60.3127
11:44:10.920,-33.6876,-61.2502
11:44:10.930,-33.0001,-62.9377
11:44:10.940,-33.4376,-63.0002
11:44:10.951,-33.3751,-64.8752
11:44:10.964,-34.6251,-66.6878
11:44:10.970,-34.8126,-68.0003
11:44:10.980,-36.8751,-71.0628
11:44:10.990,-37.0626,-73.6878
11:44:11.000,-37.2501,-75.1253
11:44:11.010,-35.5626,-73.9378
11:44:11.021,-30.8751,-68.6878
11:44:11.030,-20.8751,-54.2502
11:44:11.040,-7.4375,-32.1251
11:44:11.050,7.625,-2.75
11:44:11.060,23.7501,26.8126
11:44:11.070,37.5001,54.0002
11:44:11.080,49.1252,79.6253
11:44:11.090,60.0627,99.5004
11:44:11.100,66.5628,117.938
11:44:11.110,73.2503,129.2505
11:44:11.120,74.8128,139.7505
11:44:11.130,76.1878,144.5005
11:44:11.140,77.0003,148.4381
11:44:11.151,76.8753,150.8756
11:44:11.160,76.0628,150.3131
11:44:11.171,75.1878,150.1256
11:44:11.181,74.9378,148.8756
11:44:11.190,72.7503,147.1881
11:44:11.200,71.5003,145.1255
11:44:11.210,69.6253,140.938
11:44:11.220,65.8127,138.188
11:44:11.230,62.8752,132.563
11:44:11.241,59.1877,127.6255
11:44:11.279,55.3127,122.0005
11:44:11.281,50.8127,114.1879
11:44:11.283,45.8127,107.8754
11:44:11.285,41.5627,99.1254
11:44:11.290,37.0626,92.3754
11:44:11.304,32.3751,84.3128
11:44:11.313,27.2501,77.0003
11:44:11.341,23.6876,70.9378
11:44:11.344,20.8126,65.6878
11:44:11.345,20.1251,63.3752
11:44:11.351,21.6876,61.6252
11:44:11.377,31.3126,64.1877
11:44:11.380,23.1876,57.8127
11:44:11.382,23.5626,56.4377
11:44:11.411,36.8126,61.4377
11:44:11.414,46.0002,63.6252
11:44:11.417,54.5627,65.0628
11:44:11.422,60.1877,62.8752
11:44:11.437,61.0002,57.9377
11:44:11.444,48.8127,47.5002
11:44:11.450,39.6877,37.8126
11:44:11.460,37.0001,31.8751
11:44:11.470,34.2501,25.8751
11:44:11.481,32.6876,20.5001
11:44:11.490,29.7501,13.7501
11:44:11.500,25.6876,5.4375
11:44:11.510,20.5626,-0.875
11:44:11.520,16.7501,-8.875
11:44:11.531,13.7501,-16.0001
11:44:11.540,12.4375,-22.1251
11:44:11.550,11.1875,-27.8126
11:44:11.560,10.8125,-33.3126
11:44:11.570,10.8125,-39.5627
11:44:11.581,8.875,-45.5002
11:44:11.590,6.8125,-51.5627
11:44:11.600,3.625,-58.8127
11:44:11.610,-1.6875,-65.6253
11:44:11.620,-5.1875,-73.1878
11:44:11.631,-9.625,-79.0003
11:44:11.642,-10.25,-83.6253
11:44:11.650,-10.6875,-86.7503
11:44:11.660,-11.625,-90.4379
11:44:11.670,-13.4376,-95.1254
11:44:11.680,-16.6876,-100.0004
11:44:11.692,-21.7501,-106.8129
11:44:11.700,-25.9376,-111.3754
11:44:11.710,-28.8126,-116.0004
11:44:11.720,-30.6251,-118.438
11:44:11.731,-31.7501,-121.313
11:44:11.741,-30.6251,-120.3755
11:44:11.761,-26.4376,-116.7504
11:44:11.765,-17.0626,-103.0004
11:44:11.773,-1.5625,-78.5628
11:44:11.782,17.1251,-44.9377
11:44:11.795,36.1876,-10.625
11:44:11.804,55.3752,26.0001
11:44:11.813,71.0003,57.3752
11:44:11.820,83.1878,82.8128
11:44:11.831,90.6253,100.6254
11:44:11.850,94.8754,113.7504
11:44:11.852,97.0629,124.188
11:44:11.862,98.9379,129.2505
11:44:11.887,100.0004,132.7505
11:44:11.923,98.5004,134.188
11:44:11.966,97.3129,133.2505
11:44:11.968,95.3754,132.1255
11:44:11.968,92.1879,128.3755
11:44:11.968,89.6253,126.063
11:44:11.969,85.8753,121.1255
11:44:11.971,81.8128,117.4379
11:44:11.977,78.1878,111.5629
11:44:11.980,73.9378,107.2504
11:44:11.980,69.0628,100.5629
11:44:12.011,64.9377,94.0629
11:44:12.014,59.6252,87.0003
11:44:12.017,55.1877,80.5003
11:44:12.019,50.6877,72.8128
11:44:12.025,46.5627,64.0002
11:44:12.047,41.6252,56.9377
11:44:12.050,37.7501,48.9377
11:44:12.056,33.6876,41.6877
11:44:12.065,30.6876,36.5001
11:44:12.076,27.6876,32.3751
11:44:12.085,26.1251,28.1251
11:44:12.095,24.7501,24.6251
11:44:12.105,22.2501,23.0001
11:44:12.115,21.3751,21.0626
11:44:12.127,18.8751,18.9376
11:44:12.135,16.5626,15.4376
11:44:12.146,14.6876,13.2501
11:44:12.171,12.625,10.1875
11:44:12.175,10.6875,6.9375
11:44:12.176,9.75,3.875
11:44:12.190,7.375,0.1875
11:44:12.195,5.5,-4.1875
11:44:12.205,3.9375,-8.8125
11:44:12.215,1.25,-12.9375
11:44:12.225,-1.375,-20.1876
11:44:12.235,-4.625,-25.5001
11:44:12.245,-7.9375,-31.1251
11:44:12.255,-11.4375,-38.3751
11:44:12.266,-14.5001,-44.4377
11:44:12.277,-17.1876,-50.5627
11:44:12.286,-20.6251,-56.2502
11:44:12.295,-23.7501,-62.0627
11:44:12.310,-26.5001,-68.4378
11:44:12.320,-30.1251,-74.0628
11:44:12.330,-32.3751,-80.8128
11:44:12.341,-35.4376,-86.0003
11:44:12.350,-38.3751,-90.8129
11:44:12.360,-42.2502,-97.3754
11:44:12.370,-45.5002,-101.4379
11:44:12.381,-49.0627,-107.5004
11:44:12.392,-51.6877,-110.3754
11:44:12.400,-54.6877,-115.7504
11:44:12.410,-56.6877,-118.063
11:44:12.420,-57.9377,-121.2505
11:44:12.430,-58.5627,-124.188
11:44:12.440,-59.9377,-126.0005
11:44:12.450,-60.8752,-130.5005
11:44:12.460,-61.1252,-133.5005
11:44:12.470,-63.0002,-135.2505
11:44:12.480,-60.5627,-132.813
11:44:12.490,-51.5627,-120.5005
11:44:12.500,-37.1876,-95.3129
11:44:12.510,-18.1876,-63.9377
11:44:12.521,2.5625,-26.7501
11:44:12.530,22.3126,8.9375
11:44:12.540,39.8127,40.8127
11:44:12.550,52.5002,66.8753
11:44:12.566,62.7502,86.3128
11:44:12.571,69.7503,101.3129
11:44:12.582,75.2503,110.2504
11:44:12.590,77.1253,116.3129
11:44:12.600,77.1878,120.688
11:44:12.610,77.1253,119.8755
11:44:12.622,75.3753,119.688
11:44:12.630,73.1253,116.5004
11:44:12.640,70.3128,112.3129
11:44:12.651,67.1253,108.8129
11:44:12.661,63.9377,103.3754
11:44:12.686,60.9377,99.0629
11:44:12.689,57.4377,94.1879
11:44:12.691,54.5627,89.1878
11:44:12.723,50.9377,83.3753
11:44:12.725,47.4377,76.8128
11:44:12.728,43.6877,70.0003
11:44:12.731,38.6876,62.3752
11:44:12.764,34.1876,53.9377
11:44:12.766,28.5001,44.1877
11:44:12.769,23.7501,36.2501
11:44:12.795,19.8751,28.3751
11:44:12.797,16.3751,22.7501
11:44:12.800,13.6876,15.7501
11:44:12.804,10.5,11.5
11:44:12.810,8.5625,7.1875
11:44:12.845,7.4375,4.875
11:44:12.847,7.375,4.4375
11:44:12.850,7.8125,2.5625
11:44:12.852,8.4375,2
11:44:12.860,9.3125,1.0625
11:44:12.870,8.25,-0.25
11:44:12.881,7.0625,-2.1875
11:44:12.890,5.375,-5.75
11:44:12.900,3.625,-8.875
11:44:12.910,1.5,-13.3126
11:44:12.920,-0.4375,-17.4376
11:44:12.930,-2.75,-23.5001
11:44:12.941,-6.1875,-28.8751
11:44:12.950,-8.5,-34.3751
11:44:12.960,-11,-41.1252
11:44:12.971,-14.0001,-46.7502
11:44:12.980,-18.0626,-54.1877
11:44:12.990,-21.9376,-61.3127
11:44:13.000,-25.3126,-67.9378
11:44:13.010,-29.3751,-74.1253
11:44:13.020,-31.5001,-80.3753
11:44:13.030,-35.6251,-86.8753
11:44:13.040,-38.8126,-93.3754
11:44:13.050,-43.6252,-99.3754
11:44:13.061,-46.5002,-106.0629
11:44:13.079,-50.6252,-111.2504
11:44:13.085,-52.7502,-116.4379
11:44:13.094,-56.8127,-121.3755
11:44:13.100,-57.8752,-125.1255
11:44:13.116,-61.0002,-129.188
11:44:13.120,-62.0627,-132.5005
11:44:13.135,-64.5627,-134.8755
11:44:13.140,-66.5003,-138.7505
11:44:13.154,-67.8753,-140.2505
11:44:13.160,-69.0628,-142.7505
11:44:13.170,-69.6878,-145.813
11:44:13.180,-71.3128,-146.7506
11:44:13.193,-71.6253,-150.7506
11:44:13.206,-73.5003,-150.6256
11:44:13.214,-73.3753,-152.7506
11:44:13.220,-70.8128,-147.6256
11:44:13.238,-60.6252,-134.938
11:44:13.240,-43.7502,-106.7504
11:44:13.255,-21.2501,-71.5003
11:44:13.260,1.6875,-31.2501
11:44:13.271,22.8751,6.125
11:44:13.280,43.2502,42.6252
11:44:13.290,57.9377,71.3128
11:44:13.301,68.5628,91.8129
11:44:13.316,75.0003,106.9379
11:44:13.321,78.3753,115.7504
11:44:13.330,80.1878,120.8755
11:44:13.340,78.8753,125.0005
11:44:13.350,78.0003,123.5005
11:44:13.385,75.0003,122.8755
11:44:13.387,72.6878,118.5005
11:44:13.390,69.4378,116.1879
11:44:13.394,67.1878,111.0629
11:44:13.422,63.4377,108.5004
11:44:13.424,61.8752,103.3129
11:44:13.428,58.6252,100.0004
11:44:13.452,56.7502,94.4379
11:44:13.454,54.7502,90.8129
11:44:13.457,52.0627,84.3128
11:44:13.461,47.5627,78.8753
11:44:13.498,43.3127,69.6253
11:44:13.502,37.8126,62.0627
11:44:13.505,33.8751,53.1252
11:44:13.508,29.6251,46.5627
11:44:13.511,26.1876,38.8751
11:44:13.542,23.4376,32.1251
11:44:13.542,21.4376,29.1251
11:44:13.544,19.6876,24.5626
11:44:13.550,18.3126,22.9376
11:44:13.562,18.3751,22.0001
11:44:13.570,17.2501,21.6876
11:44:13.580,17.6876,21.2501
11:44:13.590,17.6876,20.1251
11:44:13.600,17.6251,20.1876
11:44:13.611,17.2501,19.6876
11:44:13.620,16.5626,16.8126
11:44:13.630,16.2501,15.5626
11:44:13.640,15.1251,11
11:44:13.651,13.5001,7.75
11:44:13.661,5.25,0.0625
11:44:13.670,1.125,-4.8125
11:44:13.680,-2.8125,-11.0625
11:44:13.692,-7.125,-17.3126
11:44:13.700,-10.4375,-23.4376
11:44:13.710,-13.5001,-28.3751
11:44:13.720,-15.8751,-34.5626
11:44:13.731,-17.6876,-39.1877
11:44:13.740,-19.1251,-45.0627
11:44:13.750,-19.4376,-49.0627
11:44:13.760,-21.2501,-54.3127
11:44:13.772,-23.6876,-59.3127
11:44:13.780,-24.8751,-64.0627
11:44:13.790,-28.5626,-69.2503
11:44:13.802,-31.0001,-74.5003
11:44:13.810,-33.1251,-80.3128
11:44:13.820,-36.1876,-85.1878
11:44:13.830,-38.8126,-90.1253
11:44:13.843,-42.7502,-96.5004
11:44:13.850,-45.6877,-100.9379
11:44:13.860,-49.1877,-105.2504
11:44:13.870,-51.8127,-109.9379
11:44:13.882,-53.6877,-113.4379
11:44:13.890,-56.5002,-117.1254
11:44:13.900,-57.9377,-120.5005
11:44:13.911,-58.0002,-119.563
11:44:13.920,-55.3127,-116.2504
11:44:13.930,-45.0627,-101.1254
11:44:13.940,-29.3751,-74.4378
11:44:13.950,-8.5,-40.5627
11:44:13.960,13.125,-3.0625
11:44:13.971,33.8751,34.4376
11:44:13.980,51.5627,67.2503
11:44:13.990,65.0627,93.4379
11:44:14.000,73.4378,113.1254
11:44:14.010,79.4378,125.188
11:44:14.020,81.6878,134.938
11:44:14.030,82.9378,139.063
11:44:14.040,83.3753,141.938
11:44:14.050,81.1253,142.1255
11:44:14.066,79.4378,141.1255
11:44:14.070,77.4378,139.8755
11:44:14.081,75.8128,136.2505
11:44:14.090,74.6253,134.188
11:44:14.100,72.4378,132.2505
11:44:14.116,71.0628,127.188
11:44:14.120,67.6253,123.8755
11:44:14.150,64.1877,118.438
11:44:14.153,60.2502,113.2504
11:44:14.155,56.3752,107.5629
11:44:14.161,52.4377,100.3129
11:44:14.196,47.4377,93.6254
11:44:14.198,42.6877,84.5003
11:44:14.200,38.2501,76.2503
11:44:14.205,34.1251,67.8753
11:44:14.233,30.1876,60.6877
11:44:14.235,27.2501,53.8752
11:44:14.237,24.4376,48.5002
11:44:14.240,22.8751,43.6252
11:44:14.275,21.7501,41.0627
11:44:14.277,21.6876,39.2501
11:44:14.280,22.0626,36.4376
11:44:14.282,21.3126,35.4376
11:44:14.290,19.8751,33.2501
11:44:14.301,18.1251,30.6251
11:44:14.313,16.8126,28.8126
11:44:14.320,14.5001,25.0001
11:44:14.330,12,21.8751
11:44:14.341,9.375,17.2501
11:44:14.350,6.375,13.0625
11:44:14.360,4.0625,8.6875
11:44:14.370,1.375,3.625
11:44:14.381,-0.375,-2.1875
11:44:14.401,-4.25,-7.625
11:44:14.404,-6.3125,-13.5626
11:44:14.412,-9.8125,-20.2501
11:44:14.422,-13.5001,-27.5001
11:44:14.441,-17.5001,-33.3751
11:44:14.443,-19.9376,-40.3752
11:44:14.458,-24.3126,-46.5002
11:44:14.461,-27.6251,-52.8752
11:44:14.470,-31.0626,-58.8752
11:44:14.481,-34.2501,-63.8127
11:44:14.491,-35.5626,-70.0628
11:44:14.500,-38.0626,-74.8753
11:44:14.510,-40.1877,-79.5003
11:44:14.525,-42.3127,-84.8753
11:44:14.535,-44.1877,-87.6878
11:44:14.541,-45.9377,-93.3129
11:44:14.556,-47.4377,-96.3129
11:44:14.564,-49.5627,-100.6254
11:44:14.570,-50.5627,-103.3754
11:44:14.581,-52.4377,-106.1254
11:44:14.590,-53.3127,-110.1254
11:44:14.600,-56.3752,-112.5004
11:44:14.610,-58.3752,-118.188
11:44:14.620,-61.0627,-120.563
11:44:14.631,-62.1252,-124.3755
11:44:14.640,-60.8127,-123.2505
11:44:14.651,-55.9377,-116.3754
11:44:14.660,-43.6252,-99.1879
11:44:14.670,-23.8751,-68.1253
11:44:14.680,-3.125,-31.3126
11:44:14.691,19.6251,6.4375
11:44:14.700,39.5002,45.1877
11:44:14.731,55.9377,74.7503
11:44:14.733,66.5003,99.8129
11:44:14.735,74.6253,115.5629
11:44:14.740,79.5003,129.6255
11:44:14.750,82.5628,138.3755
11:44:14.760,84.2503,143.5005
11:44:14.771,83.9378,146.3756
11:44:14.781,83.5628,146.9381
11:44:14.790,80.9378,146.2505
11:44:14.800,79.2503,144.1255
11:44:14.816,78.0628,143.313
11:44:14.826,74.7503,138.3755
11:44:14.835,73.0628,135.688
11:44:14.853,69.4378,133.0005
11:44:14.857,67.8128,127.7505
11:44:14.884,64.6252,124.438
11:44:14.887,61.6252,120.188
11:44:14.889,57.8752,113.9379
11:44:14.895,53.8752,108.1254
11:44:14.906,49.4377,99.6254
11:44:14.935,44.6877,91.8754
11:44:14.938,39.3127,84.0003
11:44:14.940,35.0001,75.6878
11:44:14.946,30.1251,67.3128
11:44:14.978,27.0626,60.4377
11:44:14.979,23.6876,54.3127
11:44:14.982,20.4376,48.8127
11:44:14.987,19.4376,46.3752
11:44:15.021,18.8126,43.7502
11:44:15.023,18.8126,41.5002
11:44:15.025,18.9376,41.1252
11:44:15.030,18.1876,39.0001
11:44:15.036,18.0001,37.9376
11:44:15.047,16.1251,34.9376
11:44:15.056,14.3751,32.2501
11:44:15.065,12.0625,28.6876
11:44:15.076,9.5625,24.4376
11:44:15.085,7.5,20.0626
11:44:15.095,4.375,14.8751
11:44:15.105,2.25,9.625
11:44:15.120,-1.4375,3.6875
11:44:15.127,-5.0625,-1.9375
11:44:15.135,-8.625,-8.8125
11:44:15.145,-12.375,-15.0626
11:44:15.156,-15.1876,-21.1876
11:44:15.165,-19.1251,-28.0626
11:44:15.175,-21.7501,-33.5626
11:44:15.185,-23.8751,-38.8751
11:44:15.195,-27.2501,-44.8752
11:44:15.208,-30.0001,-51.3127
11:44:15.215,-33.8126,-56.5002
11:44:15.225,-36.3126,-62.6877
11:44:15.235,-40.1252,-67.5628
11:44:15.246,-42.1252,-72.7503
11:44:15.255,-44.7502,-77.3128
11:44:15.265,-47.5002,-81.0003
11:44:15.276,-48.3752,-85.2503
11:44:15.285,-50.2502,-87.8128
11:44:15.295,-52.1252,-91.6254
11:44:15.305,-52.6252,-95.0629
11:44:15.315,-53.3127,-97.5004
11:44:15.325,-54.5627,-98.3129
11:44:15.339,-54.8127,-101.7504
11:44:15.345,-54.8752,-103.8754
11:44:15.355,-56.4377,-105.6254
11:44:15.368,-57.5627,-109.6879
11:44:15.375,-58.6877,-111.8129
11:44:15.385,-60.0002,-113.3754
11:44:15.396,-60.8752,-116.8754
11:44:15.404,-60.6252,-116.2504
11:44:15.415,-57.0002,-112.8129
11:44:15.425,-47.9377,-101.0004
11:44:15.435,-32.0001,-77.9378
11:44:15.445,-12.1875,-42.4377
11:44:15.455,9.1875,-6.8125
11:44:15.465,30.1876,31.5001
11:44:15.473,46.8752,64.3752
11:44:15.485,59.6877,89.7503
11:44:15.495,68.2503,110.8754
11:44:15.504,74.6253,124.688
11:44:15.515,79.3128,136.1255
11:44:15.528,80.6878,144.2505
11:44:15.535,83.0003,148.0006
11:44:15.545,82.3753,151.3756
11:44:15.556,81.9378,150.8131
11:44:15.568,80.8753,150.4381
11:44:15.578,79.3128,149.0631
11:44:15.600,78.1878,146.8131
11:44:15.602,76.0003,144.438
11:44:15.605,74.5628,141.063
11:44:15.635,72.5003,139.1255
11:44:15.635,70.1878,135.063
11:44:15.636,68.0628,132.0005
11:44:15.667,65.1878,127.3755
11:44:15.671,61.8752,122.438
11:44:15.673,58.1252,116.3754
11:44:15.673,53.4377,108.7504
11:44:15.705,49.0627,100.3129
11:44:15.707,44.1252,91.6254
11:44:15.710,40.5627,83.9378
11:44:15.773,36.9376,76.3753
11:44:15.784,33.3126,69.9378
11:44:15.786,31.0626,65.1877
11:44:15.801,28.3126,61.2502
11:44:15.803,27.0626,57.1252
11:44:15.803,26.0001,55.3127
11:44:15.804,25.8126,53.8752
11:44:15.806,25.0001,51.1877
11:44:15.815,24.6251,50.3752
11:44:15.825,23.6876,46.8127
11:44:15.841,22.7501,44.8127
11:44:15.857,21.9376,41.2502
11:44:15.861,19.8126,37.6876
11:44:15.875,18.1876,32.6876
11:44:15.892,15.0001,27.6251
11:44:15.893,11.875,21.8751
11:44:15.895,7.6875,15.6876
11:44:15.905,4.25,8.9375
11:44:15.915,-0.25,2.375
11:44:15.928,-4.0625,-4.25
11:44:15.935,-7.5,-11.25
11:44:15.945,-11.125,-17.9376
11:44:15.956,-21.6251,-37.8126
11:44:15.965,-24.3751,-44.4377
11:44:15.975,-27.8751,-49.6252
11:44:15.985,-30.3126,-55.9377
11:44:16.010,-32.6251,-61.3752
11:44:16.012,-34.9376,-65.7503
11:44:16.015,-37.6876,-71.1253
11:44:16.025,-41.5002,-76.3128
11:44:16.035,-44.3752,-81.6878
11:44:16.045,-47.0002,-87.1878
11:44:16.055,-49.8127,-90.6254
11:44:16.065,-51.1877,-94.1254
11:44:16.075,-53.8127,-97.1879
11:44:16.085,-54.5627,-100.3754
11:44:16.095,-57.0627,-103.7504
11:44:16.105,-58.5002,-106.0004
11:44:16.115,-59.9377,-108.1879
11:44:16.125,-60.8752,-111.0004
11:44:16.135,-60.6877,-112.0629
11:44:16.145,-62.0627,-115.5004
11:44:16.155,-63.3127,-117.8755
11:44:16.167,-65.2502,-119.563
11:44:16.175,-66.6253,-123.6255
11:44:16.185,-67.0628,-125.8755
11:44:16.194,-68.3128,-126.188
11:44:16.205,-65.6878,-124.3755
11:44:16.215,-56.8127,-111.8754
11:44:16.225,-42.1877,-87.4378
11:44:16.235,-22.8126,-54.8752
11:44:16.271,-0.9375,-18.3751
11:44:16.272,19.9376,20.7501
11:44:16.274,36.8126,52.5627
11:44:16.279,50.6252,79.6878
11:44:16.310,58.8127,99.9379
11:44:16.312,66.3128,113.6254
11:44:16.313,69.7503,124.938
11:44:16.316,71.4378,131.188
11:44:16.350,72.6878,134.813
11:44:16.351,71.0003,136.7505
11:44:16.354,69.6253,136.3755
11:44:16.361,66.3753,135.5005
11:44:16.366,64.4377,133.3755
11:44:16.399,63.5627,131.688
11:44:16.401,61.0627,128.438
11:44:16.404,60.4377,126.563
11:44:16.406,58.5002,124.8755
11:44:16.436,57.2502,120.813
11:44:16.438,55.1877,117.563
11:44:16.442,52.8752,114.3129
11:44:16.447,48.9377,107.6879
11:44:16.457,45.2502,101.0004
11:44:16.465,40.4377,93.0004
11:44:16.475,34.8126,85.2503
11:44:16.486,31.0001,76.4378
11:44:16.495,25.5626,69.3128
11:44:16.505,22.1251,62.7502
11:44:16.516,19.8126,55.9377
11:44:16.525,16.4376,51.4377
11:44:16.533,15.5626,47.3752
11:44:16.545,14.0626,44.2502
11:44:16.554,13.8126,42.3752
11:44:16.564,13.6876,39.8127
11:44:16.577,13.2501,39.1251
11:44:16.585,12.3125,36.3126
11:44:16.594,11.375,34.3751
11:44:16.607,9.75,31.6876
11:44:16.615,7.6875,28.5626
11:44:16.624,5.8125,24.3751
11:44:16.636,2.6875,19.5626
11:44:16.645,0.625,14.5001
11:44:16.655,-3.3125,8.75
11:44:16.664,-5.5625,3.25
11:44:16.675,-9.625,-3.1875
11:44:16.685,-12.5625,-9.5
11:44:16.696,-15.4376,-15.8751
11:44:16.705,-18.0626,-22.1876
11:44:16.715,-21.8751,-28.8751
11:44:16.726,-24.0001,-35.5001
11:44:16.735,-27.7501,-41.4377
11:44:16.745,-30.4376,-47.8752
11:44:16.755,-33.0001,-54.5002
11:44:16.766,-36.1251,-60.2502
11:44:16.775,-39.8752,-65.6878
11:44:16.785,-42.6252,-71.9378
11:44:16.795,-45.5627,-76.8753
11:44:16.810,-48.5627,-82.3753
11:44:16.815,-51.0002,-88.3128
11:44:16.825,-52.9377,-92.4379
11:44:16.834,-55.5002,-97.3754
11:44:16.845,-56.7502,-100.2504
11:44:16.855,-57.6877,-104.3754
11:44:16.865,-58.1877,-108.0629
11:44:16.875,-60.1252,-110.3754
11:44:16.885,-61.5002,-115.0004
11:44:16.896,-62.6877,-117.5005
11:44:16.906,-64.0002,-119.563
11:44:16.915,-66.0628,-123.188
11:44:16.924,-66.8753,-127.0005
11:44:16.934,-67.0628,-128.938
11:44:16.945,-68.9378,-132.188
11:44:16.954,-69.5003,-135.1255
11:44:16.965,-70.9378,-137.688
11:44:16.976,-72.1253,-140.6255
11:44:16.995,-71.6253,-141.813
11:44:16.997,-69.0628,-138.188
11:44:17.026,-61.1252,-128.063
11:44:17.027,-45.8127,-106.1879
11:44:17.030,-24.6876,-71.8753
11:44:17.035,-3.375,-34.1251
11:44:17.064,19.3126,3.9375
11:44:17.066,38.3126,40.5627
11:44:17.093,51.8127,68.0003
11:44:17.096,61.5002,87.4378
11:44:17.141,68.3753,102.8754
11:44:17.141,71.1878,113.2504
11:44:17.141,72.5628,117.3754
11:44:17.162,72.8753,121.813
11:44:17.178,71.5003,123.0005
11:44:17.179,70.3753,121.188
11:44:17.179,69.0628,120.0005
11:44:17.180,67.1878,117.0629
11:44:17.195,65.8753,114.5629
11:44:17.210,63.1877,111.6254
11:44:17.212,61.3752,108.2504
11:44:17.227,58.8752,105.1879
11:44:17.230,56.3752,100.5629
11:44:17.236,53.8752,97.2504
11:44:17.245,50.6877,92.1254
11:44:17.255,47.4377,86.5003
11:44:17.267,42.9377,79.8753
11:44:17.290,38.3751,72.6253
11:44:17.292,34.0626,63.3127
11:44:17.298,29.7501,55.1877
11:44:17.305,26.1251,47.7502
11:44:17.315,21.8126,41.3127
11:44:17.325,20.1876,35.1251
11:44:17.334,17.3751,27.5626
11:44:17.345,17.4376,25.9376
11:44:17.354,17.6251,26.3751
11:44:17.365,17.0626,25.8126
11:44:17.374,17.7501,24.8126
11:44:17.389,17.2501,23.7501
11:44:17.394,16.1876,21.4376
11:44:17.405,14.9376,18.3126
11:44:17.414,13.3126,15.1251
11:44:17.425,10.5,10.25
11:44:17.436,7.9375,5.6875
11:44:17.444,5.1875,-0.8125
11:44:17.455,2.25,-6
11:44:17.466,-1.875,-13.4376
11:44:17.473,-5.0625,-19.5626
11:44:17.485,-8.3125,-25.9376
11:44:17.493,-11.375,-32.5001
11:44:17.505,-14.3751,-39.1252
11:44:17.515,-17.8751,-45.0002
11:44:17.523,-21.3751,-51.8752
11:44:17.534,-23.7501,-57.1877
11:44:17.546,-27.6876,-63.5002
11:44:17.555,-30.0001,-68.6253
11:44:17.566,-33.5626,-74.4378
11:44:17.576,-36.0626,-79.0003
11:44:17.585,-38.3126,-84.3128
11:44:17.595,-40.8127,-88.3753
11:44:17.606,-41.8752,-91.7504
11:44:17.615,-44.3127,-95.2504
11:44:17.627,-45.0627,-98.1879
11:44:17.635,-46.1877,-99.8754
11:44:17.645,-46.8752,-102.9379
11:44:17.655,-47.1877,-104.6254
11:44:17.665,-47.3127,-106.7504
11:44:17.674,-48.1877,-108.6254
11:44:17.685,-48.8127,-110.6879
11:44:17.695,-49.0002,-112.1879
11:44:17.704,-50.8127,-113.8754
11:44:17.738,-51.3752,-118.2505
11:44:17.741,-53.0627,-120.938
11:44:17.741,-55.5002,-123.8755
11:44:17.773,-56.4377,-126.438
11:44:17.774,-54.5627,-124.563
11:44:17.776,-48.5002,-115.7504
11:44:17.783,-34.5626,-95.8754
11:44:17.785,-15.1876,-63.1877
11:44:17.811,7.375,-26.9376
11:44:17.816,29.8751,13.125
11:44:17.816,48.8127,49.6252
11:44:17.849,62.9377,78.0628
11:44:17.851,72.6253,99.6879
11:44:17.854,77.8128,115.5004
11:44:17.857,81.5003,124.813
11:44:17.888,83.1253,131.938
11:44:17.891,81.5628,135.688
11:44:17.892,81.0003,136.6255
11:44:17.895,80.0003,137.5005
11:44:17.905,77.5628,135.688
11:44:17.915,75.9378,133.1255
11:44:17.924,73.3128,131.7505
11:44:17.935,71.5628,127.5005
11:44:17.949,69.1878,124.313
11:44:17.955,66.6878,121.6255
11:44:17.965,64.2502,117.4379
11:44:17.975,62.3752,114.3129
11:44:17.985,59.3127,109.7504
11:44:17.995,56.3127,106.0004
11:44:18.005,52.6877,99.0004
11:44:18.013,46.8127,91.6254
11:44:18.025,41.6252,82.6878
11:44:18.035,36.2501,73.5003
11:44:18.045,31.7501,65.8753
11:44:18.054,26.5626,57.3127
11:44:18.067,23.0001,52.1877
11:44:18.074,20.8751,46.9377
11:44:18.084,19.3751,42.5002
11:44:18.095,18.3126,40.3127
11:44:18.105,17.5626,37.8751
11:44:18.115,17.5626,35.8126
11:44:18.125,16.1251,35.0626
11:44:18.133,15.2501,32.8126
11:44:18.144,13.2501,31.3126
11:44:18.155,11.75,27.8751
11:44:18.164,9.3125,25.3126
11:44:18.176,8.4375,21.1876
11:44:18.184,5.625,17.1251
11:44:18.195,3.5625,12.6875
11:44:18.204,0.5625,6.375
11:44:18.215,-2.3125,1.5
11:44:18.224,-5.0625,-4.375
11:44:18.235,-7.875,-11.4375
11:44:18.245,-11.25,-18.0626
11:44:18.255,-15.0626,-23.3751
11:44:18.265,-18.2501,-31.0001
11:44:18.276,-22.3126,-38.9376
11:44:18.284,-25.8126,-44.0627
11:44:18.295,-28.5001,-51.3752
11:44:18.304,-32.4376,-58.0627
11:44:18.314,-35.3126,-63.4377
11:44:18.324,-38.3751,-69.5628
11:44:18.335,-41.7502,-75.0628
11:44:18.344,-43.1877,-79.8753
11:44:18.358,-45.5002,-85.0003
11:44:18.365,-47.6252,-88.6253
11:44:18.374,-49.5627,-91.9379
11:44:18.385,-51.5002,-97.5629
11:44:18.395,-53.8127,-100.3129
11:44:18.404,-55.5002,-106.1254
11:44:18.423,-58.2502,-109.0629
11:44:18.429,-60.4377,-113.4379
11:44:18.438,-62.1252,-117.5005
11:44:18.444,-63.3127,-120.438
11:44:18.460,-65.1878,-123.5005
11:44:18.476,-63.8127,-124.188
11:44:18.480,-59.2502,-116.7504
11:44:18.495,-48.2502,-100.8754
11:44:18.496,-30.3126,-75.0003
11:44:18.548,-9.375,-39.3751
11:44:18.580,11,-1.3125
11:44:18.582,30.6876,34.5626
11:44:18.585,45.1252,65.1877
11:44:18.586,56.0627,87.3128
11:44:18.586,63.5627,104.7504
11:44:18.590,70.2503,117.1879
11:44:18.626,72.2503,125.313
11:44:18.628,73.5628,129.938
11:44:18.630,72.8753,132.688
11:44:18.632,70.5628,130.813
11:44:18.662,68.5628,129.5005
11:44:18.664,64.8127,128.063
11:44:18.667,62.5002,122.938
11:44:18.671,59.2502,120.2505
11:44:18.687,56.5627,115.2504
11:44:18.688,55.1252,111.6879
11:44:18.704,52.0627,108.3754
11:44:18.708,49.6877,104.2504
11:44:18.720,45.0002,99.0004
11:44:18.729,39.1877,92.1254
11:44:18.739,29.8751,83.9378
11:44:18.749,-15.9376,51.3752
11:44:18.759,-20.5626,45.6252
11:44:18.769,-23.5001,41.5002
11:44:18.780,-24.7501,38.0626
11:44:18.789,-24.6251,38.2501
11:44:18.800,-23.5001,36.1251
11:44:18.809,-23.1876,36.4376
11:44:18.819,-22.7501,36.0626
11:44:18.830,-21.8751,34.7501
11:44:18.839,-21.0626,34.3126
11:44:18.849,-20.5001,33.1251
11:44:18.859,-20.3126,31.9376
11:44:18.870,-19.6876,30.7501
11:44:18.885,-20.6251,28.6251
11:44:18.895,-20.3751,25.3751
11:44:18.905,-23.2501,21.1876
11:44:18.915,-26.0626,15.3126
11:44:18.925,-30.8751,7.625
11:44:18.935,-34.5001,-0.125
11:44:18.943,-40.1252,-8.625
11:44:18.954,-44.3752,-17.1876
11:44:18.963,-49.6252,-25.8126
11:44:18.975,-53.8127,-34.3751
11:44:18.984,-58.8752,-42.7502
11:44:18.995,-63.8127,-51.7502
11:44:19.005,-66.7503,-58.1252
11:44:19.014,-71.1253,-66.6253
11:44:19.023,-75.8753,-74.2503
11:44:19.034,-84.9378,-83.5628
11:44:19.044,-97.5629,-97.3754
11:44:19.055,-102.3129,-105.5629
11:44:19.064,-107.4379,-112.1879
11:44:19.080,-119.6255,-124.813
11:44:19.085,-135.563,-140.938
11:44:19.094,-148.8756,-151.7506
11:44:19.104,-162.4381,-162.2506
11:44:19.116,-170.5631,-168.2506
11:44:19.123,-173.7507,-174.2507
11:44:19.137,-175.0632,-180.5007
11:44:19.145,-174.1257,-187.4382
11:44:19.154,-173.3757,-195.4382
11:44:19.164,-172.0632,-204.6883
11:44:19.177,-170.1881,-211.2508
11:44:19.186,-166.1881,-215.7508
11:44:19.218,-163.8131,-217.7508
