timestamp,Red,IR
14:08:38.176,12.375,12.3125
14:08:38.186,10.375,7.875
14:08:38.196,8.3125,4.625
14:08:38.205,6.625,0.5625
14:08:38.216,4.6875,-2.75
14:08:38.226,2.8125,-6.1875
14:08:38.236,0.75,-10.375
14:08:38.246,-0.8125,-13.8126
14:08:38.256,-3.5625,-17.0626
14:08:38.265,-5.5625,-20.1251
14:08:38.276,-7.5,-24.9376
14:08:38.285,-9.25,-28.7501
14:08:38.295,-10.6875,-32.1251
14:08:38.306,-11.75,-34.6251
14:08:38.316,-13.8751,-37.2501
14:08:38.325,-15.7501,-40.8127
14:08:38.335,-16.5001,-43.5627
14:08:38.346,-17.8126,-45.4377
14:08:38.355,-19.1251,-49.1252
14:08:38.366,-20.5626,-52.7502
14:08:38.376,-22.0626,-54.2502
14:08:38.386,-23.5626,-58.3752
14:08:38.396,-24.8126,-59.5627
14:08:38.426,-26.6251,-63.5627
14:08:38.429,-27.0001,-65.2503
14:08:38.431,-29.0001,-66.4378
14:08:38.436,-30.0001,-70.6878
14:08:38.469,-30.4376,-72.1878
14:08:38.471,-31.8751,-74.0628
14:08:38.474,-31.9376,-76.3753
14:08:38.476,-33.4376,-78.1253
14:08:38.506,-34.5001,-81.1878
14:08:38.510,-35.3126,-81.9378
14:08:38.511,-36.0626,-85.0003
14:08:38.537,-36.8126,-85.7503
14:08:38.538,-36.8751,-85.4378
14:08:38.542,-35.0001,-82.7503
14:08:38.547,-30.7501,-76.1253
14:08:38.562,-26.1876,-67.1253
14:08:38.567,-19.0626,-56.1252
14:08:38.585,-13.2501,-42.6877
14:08:38.587,-5.375,-29.3751
14:08:38.618,0.5,-15.9376
14:08:38.627,7.6875,-3.5
14:08:38.627,13.8751,9.25
14:08:38.628,19.4376,20.1251
14:08:38.656,24.8751,31.3126
14:08:38.662,28.5001,41.7502
14:08:38.666,32.7501,48.0002
14:08:38.681,35.6876,55.8752
14:08:38.683,38.3126,60.2502
14:08:38.686,40.9377,65.1877
14:08:38.696,42.1252,70.1878
14:08:38.705,43.0002,72.1253
14:08:38.716,44.1877,74.6878
14:08:38.726,44.8752,76.3128
14:08:38.736,43.8127,77.1253
14:08:38.746,43.4377,75.8753
14:08:38.755,43.1877,75.8753
14:08:38.765,41.3752,72.4378
14:08:38.776,39.8752,70.0628
14:08:38.786,37.7501,67.5628
14:08:38.796,35.4376,64.0002
14:08:38.806,33.8126,61.2502
14:08:38.815,31.6876,56.8127
14:08:38.826,29.7501,53.2502
14:08:38.836,28.5001,49.8752
14:08:38.846,26.6876,47.1877
14:08:38.856,24.2501,44.1252
14:08:38.872,23.7501,41.3752
14:08:38.876,21.8751,38.5001
14:08:38.887,20.1876,36.5626
14:08:38.896,19.1876,34.3126
14:08:38.905,17.5626,30.3751
14:08:38.915,15.7501,27.5001
14:08:38.926,14.2501,25.8126
14:08:38.936,13.4376,21.9376
14:08:38.947,11.3125,19.8126
14:08:38.956,10.125,17.7501
14:08:38.965,9,13.8751
14:08:38.976,7.6875,10.75
14:08:38.988,5.125,7.6875
14:08:38.996,3.3125,5.25
14:08:39.006,2.3125,1.4375
14:08:39.016,0.3125,-2.0625
14:08:39.046,-1.8125,-5.0625
14:08:39.048,-3.75,-8.4375
14:08:39.050,-4.25,-11.25
14:08:39.057,-5.6875,-15.1251
14:08:39.065,-8.1875,-18.8751
14:08:39.075,-9.875,-21.6876
14:08:39.086,-11.125,-23.5626
14:08:39.096,-13.0625,-26.6251
14:08:39.106,-13.8126,-31.1251
14:08:39.116,-15.7501,-34.4376
14:08:39.125,-17.8126,-36.5626
14:08:39.136,-19.1251,-38.6876
14:08:39.146,-20.3126,-42.3752
14:08:39.164,-21.9376,-45.6252
14:08:39.167,-23.1876,-47.1877
14:08:39.203,-24.4376,-50.2502
14:08:39.205,-25.7501,-52.8127
14:08:39.207,-26.9376,-54.3127
14:08:39.209,-27.9376,-56.8752
14:08:39.216,-29.0626,-60.3127
14:08:39.225,-30.2501,-61.0002
14:08:39.261,-31.6876,-64.5002
14:08:39.263,-32.6876,-66.7503
14:08:39.265,-34.0626,-68.5003
14:08:39.268,-35.1251,-71.6253
14:08:39.301,-35.8751,-72.6253
14:08:39.306,-37.3126,-76.0628
14:08:39.307,-38.0001,-76.8753
14:08:39.337,-39.1251,-77.8128
14:08:39.337,-38.6251,-80.0003
14:08:39.338,-38.1876,-77.8128
14:08:39.347,-36.0001,-75.9378
14:08:39.347,-31.6876,-70.0628
14:08:39.362,-27.9376,-61.1252
14:08:39.366,-21.2501,-49.5002
14:08:39.376,-14.7501,-35.6876
14:08:39.386,-7.875,-23.7501
14:08:39.395,-0.375,-9
14:08:39.405,6.1875,5.3125
14:08:39.417,13.9376,18.0001
14:08:39.426,19.1251,31.0626
14:08:39.436,24.5001,40.0627
14:08:39.445,29.6251,50.5002
14:08:39.457,32.6876,59.6252
14:08:39.466,37.5001,67.3128
14:08:39.476,39.7502,74.4378
14:08:39.486,42.7502,79.6878
14:08:39.496,44.9377,84.5628
14:08:39.506,47.3127,88.5628
14:08:39.517,48.7502,91.8129
14:08:39.526,49.0627,95.3754
14:08:39.536,50.4377,95.3129
14:08:39.546,50.1877,97.7504
14:08:39.556,49.6252,96.5004
14:08:39.566,49.1252,95.6254
14:08:39.577,47.4377,93.3129
14:08:39.586,45.4377,90.8129
14:08:39.595,43.5627,87.3753
14:08:39.605,41.1877,83.8753
14:08:39.615,40.0627,79.8128
14:08:39.626,37.1251,76.5628
14:08:39.636,35.8751,72.6878
14:08:39.646,33.5626,69.1253
14:08:39.657,31.6251,65.3752
14:08:39.665,30.4376,63.5627
14:08:39.677,28.2501,60.6252
14:08:39.686,27.3751,57.1877
14:08:39.695,25.0626,54.5002
14:08:39.706,24.6876,51.7502
14:08:39.715,22.5626,48.5627
14:08:39.726,20.6251,46.4377
14:08:39.736,19.1876,42.0002
14:08:39.749,17.9376,39.1877
14:08:39.757,16.5001,36.5626
14:08:39.766,14.6876,33.0626
14:08:39.776,12.8125,29.6876
14:08:39.786,11.125,25.5001
14:08:39.795,10.0625,22.5001
14:08:39.806,7.6875,18.9376
14:08:39.816,6.375,15.1876
14:08:39.826,4.6875,12.3125
14:08:39.836,2.75,8.4375
14:08:39.846,0.1875,5.9375
14:08:39.856,-1.0625,1.5
14:08:39.888,-3.125,-1.6875
14:08:39.891,-4.3125,-4.875
14:08:39.893,-6.875,-8.625
14:08:39.896,-8.3125,-11.875
14:08:39.924,-10,-15.6251
14:08:39.926,-10.9375,-18.6251
14:08:39.928,-12.3125,-21.3126
14:08:39.968,-14.1251,-24.2501
14:08:39.976,-15.5001,-27.7501
14:08:39.978,-17.0626,-30.5001
14:08:39.984,-18.5001,-33.3126
14:08:40.017,-20.1251,-37.2501
14:08:40.017,-21.4376,-39.4377
14:08:40.017,-22.6251,-41.7502
14:08:40.020,-23.9376,-45.4377
14:08:40.026,-25.2501,-47.3127
14:08:40.026,-26.5626,-50.8127
14:08:40.049,-27.6876,-52.0627
14:08:40.052,-29.0626,-55.3127
14:08:40.058,-30.1876,-57.5002
14:08:40.068,-30.8126,-59.1877
14:08:40.076,-32.5001,-61.1877
14:08:40.085,-33.1251,-63.7502
14:08:40.095,-34.6876,-66.1253
14:08:40.112,-34.8126,-68.1878
14:08:40.116,-35.9376,-70.3753
14:08:40.127,-36.0001,-71.9378
14:08:40.136,-37.1876,-73.1878
14:08:40.149,-35.8126,-74.0003
14:08:40.156,-36.1251,-71.9378
14:08:40.165,-31.4376,-67.2503
14:08:40.176,-27.5626,-59.1877
14:08:40.186,-21.5626,-48.3127
14:08:40.195,-15.6876,-36.1876
14:08:40.206,-8.3125,-22.5001
14:08:40.216,-1.1875,-7.6875
14:08:40.225,6.3125,5.75
14:08:40.236,13.6876,20.1251
14:08:40.246,20.0001,31.6876
14:08:40.255,26.2501,44.7502
14:08:40.266,31.5626,55.8752
14:08:40.276,37.1251,65.1878
14:08:40.301,41.1252,75.3128
14:08:40.304,45.2502,81.8753
14:08:40.309,48.4377,89.5003
14:08:40.316,50.4377,94.6879
14:08:40.325,53.6252,99.4379
14:08:40.335,54.4377,103.8129
14:08:40.346,56.6252,106.1254
14:08:40.356,56.1877,108.5004
14:08:40.368,56.8127,108.8129
14:08:40.376,56.5627,109.8129
14:08:40.385,56.1877,108.6254
14:08:40.395,54.3127,106.7504
14:08:40.405,52.8752,104.7504
14:08:40.416,51.0627,102.0004
14:08:40.426,48.2502,97.1254
14:08:40.436,46.8752,94.2504
14:08:40.446,44.1252,89.7503
14:08:40.457,41.6252,85.8128
14:08:40.467,40.0002,82.5628
14:08:40.476,37.8126,78.1253
14:08:40.487,35.5626,75.1878
14:08:40.496,33.9376,71.0628
14:08:40.505,31.7501,69.1253
14:08:40.516,30.1876,64.7502
14:08:40.526,28.2501,61.5627
14:08:40.536,27.1251,58.3127
14:08:40.545,25.1876,54.6252
14:08:40.556,23.6876,51.8752
14:08:40.565,22.6251,48.6877
14:08:40.576,20.8751,46.0002
14:08:40.586,18.8751,43.0627
14:08:40.596,17.3751,38.8751
14:08:40.606,15.1251,35.5626
14:08:40.620,14.0626,31.3126
14:08:40.626,12,27.6876
14:08:40.656,10.1875,24.0001
14:08:40.658,8.25,20.5001
14:08:40.661,6.25,17.2501
14:08:40.666,4.25,13.9376
14:08:40.682,2.5,9.3125
14:08:40.687,0.25,6.1875
14:08:40.726,-1.3125,2.5625
14:08:40.726,-2.625,-1.8125
14:08:40.729,-4.3125,-5.5
14:08:40.735,-5.625,-8.5625
14:08:40.737,-7.875,-11.75
14:08:40.776,-8.9375,-14.6876
14:08:40.776,-10.75,-17.8751
14:08:40.778,-12.3125,-21.0626
14:08:40.782,-13.8126,-24.8751
14:08:40.788,-15.6251,-27.1876
14:08:40.800,-17.1251,-30.3126
14:08:40.806,-19.1251,-34.6251
14:08:40.816,-20.1251,-37.6251
14:08:40.825,-21.3751,-39.8752
14:08:40.835,-22.9376,-43.0002
14:08:40.848,-22.9376,-45.3127
14:08:40.859,-25.6251,-47.6252
14:08:40.866,-25.7501,-50.5002
14:08:40.877,-28.0626,-53.3127
14:08:40.885,-28.2501,-55.5002
14:08:40.896,-30.1876,-58.6252
14:08:40.906,-30.9376,-60.8752
14:08:40.915,-32.6876,-63.1252
14:08:40.926,-32.3126,-65.3752
14:08:40.935,-34.5001,-67.7503
14:08:40.946,-35.0626,-70.7503
14:08:40.956,-36.0001,-71.8753
14:08:40.967,-36.8751,-73.5003
14:08:40.976,-37.0001,-75.4378
14:08:40.985,-36.3751,-75.3753
14:08:40.996,-35.8126,-72.8128
14:08:41.005,-32.3126,-67.0003
14:08:41.015,-26.2501,-58.1877
14:08:41.025,-21.3751,-47.1877
14:08:41.036,-14.1876,-35.1876
14:08:41.045,-6.4375,-20.5001
14:08:41.057,0.5,-6.6875
14:08:41.066,8,6.3125
14:08:41.076,14.4376,20.5626
14:08:41.085,21.3126,32.3126
14:08:41.096,26.3751,44.0627
14:08:41.106,32.8751,54.6252
14:08:41.115,36.6251,63.9377
14:08:41.125,41.4377,72.5628
14:08:41.135,44.5002,79.5628
14:08:41.146,47.0627,85.3753
14:08:41.156,49.3752,91.4379
14:08:41.165,50.6877,94.0629
14:08:41.176,52.3752,97.7504
14:08:41.186,53.1252,100.8129
14:08:41.196,54.0627,101.1879
14:08:41.206,54.4377,103.0629
14:08:41.216,53.2502,103.0629
14:08:41.226,52.8752,101.7504
14:08:41.238,50.8127,99.0629
14:08:41.248,49.8752,96.3754
14:08:41.257,47.1877,92.8754
14:08:41.307,45.5627,89.3753
14:08:41.336,42.6252,84.6253
14:08:41.339,40.3127,81.4378
14:08:41.342,38.5626,77.8753
14:08:41.346,36.5626,73.4378
14:08:41.372,34.1876,69.5628
14:08:41.372,33.3126,66.9378
14:08:41.373,30.8126,63.9377
14:08:41.375,29.1251,61.3127
14:08:41.402,27.9376,57.2502
14:08:41.406,25.5626,54.4377
14:08:41.409,24.3126,51.0627
14:08:41.416,22.9376,48.1252
14:08:41.418,20.9376,44.8127
14:08:41.454,19.2501,41.0002
14:08:41.456,18.2501,38.5001
14:08:41.458,17.1876,34.9376
14:08:41.460,14.6251,31.8126
14:08:41.467,11.9375,28.0001
14:08:41.476,10.75,24.0626
14:08:41.486,9.0625,20.6876
14:08:41.496,7.0625,17.1251
14:08:41.506,5.3125,12.75
14:08:41.516,0.6875,2.4375
14:08:41.526,-1.8125,-0.75
14:08:41.536,-3.375,-4.8125
14:08:41.546,-5.4375,-8
14:08:41.555,-7.4375,-11.375
14:08:41.581,-8.125,-14.1251
14:08:41.584,-9.8125,-18.2501
14:08:41.586,-12.4375,-21.0626
14:08:41.596,-13.6876,-24.6251
14:08:41.612,-15.3126,-28.1251
14:08:41.616,-16.5626,-31.0626
14:08:41.626,-17.8751,-33.6876
14:08:41.636,-19.5626,-36.6876
14:08:41.645,-20.5626,-39.3127
14:08:41.657,-22.1876,-42.6252
14:08:41.665,-23.5001,-45.0627
14:08:41.675,-24.6876,-47.3127
14:08:41.686,-26.1876,-50.3127
14:08:41.696,-27.3126,-53.3752
14:08:41.705,-28.6876,-54.3752
14:08:41.716,-29.8751,-58.6877
14:08:41.725,-29.9376,-60.3127
14:08:41.736,-31.8751,-62.4377
14:08:41.747,-31.9376,-64.7502
14:08:41.755,-33.8126,-66.2503
14:08:41.766,-34.6876,-69.6253
14:08:41.775,-35.2501,-70.6878
14:08:41.786,-36.4376,-74.4378
14:08:41.796,-36.8126,-75.1878
14:08:41.805,-38.5001,-76.8128
14:08:41.816,-38.0001,-79.1253
14:08:41.827,-38.1251,-76.7503
14:08:41.836,-36.3126,-75.0628
14:08:41.846,-31.8126,-69.0628
14:08:41.856,-27.4376,-59.7502
14:08:41.867,-21.8751,-49.5627
14:08:41.875,-14.4376,-36.2501
14:08:41.886,-8.1875,-22.2501
14:08:41.895,-0.125,-9.6875
14:08:41.906,7.1875,4.375
14:08:41.921,13.1251,17.0626
14:08:41.930,20.0626,28.8126
14:08:41.940,24.5626,38.8126
14:08:41.951,29.8751,48.6252
14:08:41.961,33.3751,57.0627
14:08:41.970,37.1876,63.4377
14:08:41.988,40.4377,70.5628
14:08:41.991,42.0627,74.5628
14:08:42.001,44.3752,79.9378
14:08:42.011,45.5627,82.1253
14:08:42.021,46.8127,85.6878
14:08:42.031,47.1252,87.3128
14:08:42.040,47.6252,88.0003
14:08:42.051,48.1877,88.6253
14:08:42.061,46.3752,88.3128
14:08:42.070,45.6252,85.3753
14:08:42.086,42.9377,82.3753
14:08:42.091,41.5002,79.2503
14:08:42.121,39.3127,76.1878
14:08:42.124,36.9376,71.4378
14:08:42.126,34.5626,68.0003
14:08:42.133,32.8126,64.8127
14:08:42.165,31.3751,60.6252
14:08:42.167,29.0001,56.7502
14:08:42.168,27.0626,54.5002
14:08:42.171,25.6876,51.8127
14:08:42.202,24.0001,48.5002
14:08:42.203,21.8751,46.1252
14:08:42.208,19.8126,42.5002
14:08:42.232,18.4376,39.6252
14:08:42.235,17.4376,37.5001
14:08:42.236,15.8126,33.8126
14:08:42.242,15.3751,31.3126
14:08:42.257,13.6251,27.6876
14:08:42.261,11.875,25.0001
14:08:42.270,10.875,22.0626
14:08:42.280,8.8125,18.5626
14:08:42.290,6.375,15.8126
14:08:42.301,4.6875,12.1875
14:08:42.311,3.125,8.0625
14:08:42.320,1.625,4.625
14:08:42.331,0.375,2.125
14:08:42.341,-2.1875,-1.5
14:08:42.350,-3.875,-4.3125
14:08:42.362,-5.75,-8.4375
14:08:42.370,-7.3125,-12.3125
14:08:42.381,-8.8125,-14.3126
14:08:42.390,-10.375,-17.7501
14:08:42.402,-12.625,-20.3751
14:08:42.411,-13.5626,-23.8126
14:08:42.421,-15.3126,-27.6251
14:08:42.431,-17.1876,-29.6251
14:08:42.440,-18.1251,-33.0626
14:08:42.451,-19.5626,-35.5626
14:08:42.461,-21.2501,-37.9376
14:08:42.471,-21.7501,-41.4377
14:08:42.480,-23.1876,-44.1252
14:08:42.490,-24.0626,-46.5002
14:08:42.501,-25.9376,-48.6877
14:08:42.511,-26.8751,-51.3752
14:08:42.520,-28.7501,-53.8752
14:08:42.530,-28.9376,-56.0627
14:08:42.541,-30.3751,-57.8752
14:08:42.551,-31.8126,-61.2502
14:08:42.561,-32.6876,-63.1877
14:08:42.596,-34.0001,-64.3127
14:08:42.603,-34.6251,-67.6878
14:08:42.604,-35.1251,-69.4378
14:08:42.620,-36.5001,-71.5628
14:08:42.636,-38.0001,-74.2503
14:08:42.636,-38.7501,-75.6878
14:08:42.637,-39.6877,-76.1878
14:08:42.641,-39.0626,-77.4378
14:08:42.651,-37.6251,-75.1253
14:08:42.661,-35.2501,-71.3753
14:08:42.670,-29.6876,-63.2502
14:08:42.680,-25.4376,-53.0002
14:08:42.691,-18.7501,-42.0627
14:08:42.701,-11.5,-28.5626
14:08:42.710,-4.625,-15.1876
14:08:42.720,2.6875,-1.5625
14:08:42.737,8.875,11.9375
14:08:42.741,15.4376,23.0001
14:08:42.752,21.0001,33.4376
14:08:42.781,26.9376,45.0002
14:08:42.784,31.1251,53.1252
14:08:42.786,34.6876,61.7502
14:08:42.792,37.9376,67.5003
14:08:42.831,41.0002,74.3753
14:08:42.835,43.0002,79.0003
14:08:42.836,45.8127,82.6253
14:08:42.862,46.1877,87.3753
14:08:42.865,48.0002,88.8753
14:08:42.865,48.8127,92.0629
14:08:42.865,48.8752,91.3129
14:08:42.873,49.0002,91.6879
14:08:42.881,47.6252,91.2504
14:08:42.909,46.8127,89.4378
14:08:42.913,44.9377,86.7503
14:08:42.916,43.0627,83.3753
14:08:42.922,41.0627,80.1253
14:08:42.943,38.5001,76.7503
14:08:42.943,36.1251,72.9378
14:08:42.951,34.9376,68.3128
14:08:42.961,32.5001,64.4377
14:08:42.971,31.5001,61.5002
14:08:42.981,29.0626,58.3127
14:08:42.990,26.7501,55.3752
14:08:43.002,25.6251,52.1877
14:08:43.010,23.4376,48.7502
14:08:43.020,21.8751,45.5627
14:08:43.030,20.8751,42.8127
14:08:43.041,18.0626,39.6252
14:08:43.051,17.3751,36.5626
14:08:43.060,15.5001,34.1251
14:08:43.071,13.5626,31.0626
14:08:43.081,12.0625,27.6876
14:08:43.090,10.0625,24.6876
14:08:43.101,8.6875,20.0626
14:08:43.112,6.0625,17.9376
14:08:43.122,4.8125,13.1251
14:08:43.130,2.625,10.8125
14:08:43.141,1.375,6.6875
14:08:43.151,-0.375,3.25
14:08:43.160,-1.6875,0.25
14:08:43.170,-3.9375,-4.375
14:08:43.181,-5.625,-7.1875
14:08:43.191,-7.125,-10.1875
14:08:43.200,-9.4375,-13.7501
14:08:43.211,-10.5,-17.2501
14:08:43.221,-12.1875,-20.8126
14:08:43.231,-14.3126,-22.5626
14:08:43.241,-15.4376,-27.5001
14:08:43.251,-17.7501,-28.9376
14:08:43.262,-18.8126,-33.2501
14:08:43.270,-20.5001,-36.3751
14:08:43.281,-21.6876,-38.4376
14:08:43.291,-23.6251,-42.3127
14:08:43.300,-24.3751,-44.1252
14:08:43.310,-25.7501,-47.4377
14:08:43.321,-27.5001,-50.1252
14:08:43.331,-28.1876,-52.3127
14:08:43.341,-29.6876,-54.8752
14:08:43.351,-30.6876,-57.6877
14:08:43.360,-31.6876,-59.3127
14:08:43.370,-33.1251,-61.4377
14:08:43.381,-34.2501,-64.1252
14:08:43.390,-34.0001,-65.8753
14:08:43.401,-36.3751,-68.6878
14:08:43.411,-36.7501,-70.6253
14:08:43.420,-38.0626,-72.3753
14:08:43.431,-39.8752,-75.5003
14:08:43.441,-40.0002,-77.3128
14:08:43.450,-41.3752,-79.1253
14:08:43.461,-41.8127,-81.0003
14:08:43.470,-41.7502,-80.4378
14:08:43.489,-40.6252,-80.1253
14:08:43.492,-37.6251,-75.6878
14:08:43.501,-33.3751,-68.3753
14:08:43.510,-28.1251,-59.0627
14:08:43.521,-21.4376,-46.9377
14:08:43.531,-14.6876,-33.4376
14:08:43.566,-6.9375,-20.1251
14:08:43.568,0.125,-6.1875
14:08:43.571,7.375,6.6875
14:08:43.573,13.4376,20.9376
14:08:43.606,19.6251,31.0626
14:08:43.607,25.4376,42.0002
14:08:43.610,30.0626,50.6877
14:08:43.612,34.5626,59.7502
14:08:43.644,37.7501,67.0003
14:08:43.646,40.5002,72.1253
14:08:43.648,43.6877,79.0003
14:08:43.657,45.0627,84.1878
14:08:43.667,46.3752,86.2503
14:08:43.687,48.6252,89.1253
14:08:43.690,48.5002,92.1879
14:08:43.694,49.3752,92.2504
14:08:43.717,49.5627,93.2504
14:08:43.719,48.5627,92.3754
14:08:43.721,48.3752,91.5004
14:08:43.731,45.9377,88.9378
14:08:43.741,43.8752,85.4378
14:08:43.750,42.2502,82.3753
14:08:43.760,39.8752,79.2503
14:08:43.771,37.3126,75.8753
14:08:43.781,35.5626,70.8128
14:08:43.790,32.7501,67.6253
14:08:43.801,30.8126,64.1252
14:08:43.810,29.3126,60.0627
14:08:43.821,27.8751,57.1252
14:08:43.830,25.4376,53.4377
14:08:43.841,24.3126,50.0627
14:08:43.850,22.6251,47.2502
14:08:43.872,20.3751,44.4377
14:08:43.880,19.0001,41.8127
14:08:43.893,17.4376,38.3126
14:08:43.896,15.5626,35.1251
14:08:43.914,13.9376,31.8751
14:08:43.916,12.4375,28.6876
14:08:43.931,10.625,25.3751
14:08:43.934,8.625,21.5626
14:08:43.941,7.5,19.0001
14:08:43.950,5.9375,14.7501
14:08:43.962,3.75,12.125
14:08:43.971,2,7.375
14:08:43.980,0.5625,5
14:08:43.990,-1.8125,0.8125
14:08:44.000,-3.125,-2.5625
14:08:44.010,-4.6875,-6.0625
14:08:44.021,-7.375,-9.375
14:08:44.031,-9,-12.125
14:08:44.041,-10.75,-16.0626
14:08:44.051,-11.9375,-20.0001
14:08:44.061,-14.0001,-23.3126
14:08:44.071,-16.0001,-26.5001
14:08:44.082,-17.6251,-29.4376
14:08:44.091,-19.2501,-32.6251
14:08:44.101,-20.2501,-36.3751
14:08:44.111,-22.5626,-38.3126
14:08:44.142,-23.9376,-42.3127
14:08:44.145,-25.4376,-45.1252
14:08:44.148,-26.6876,-47.5627
14:08:44.151,-28.0001,-50.9377
14:08:44.164,-29.0001,-52.5627
14:08:44.171,-30.2501,-56.5627
14:08:44.181,-31.6876,-57.8127
14:08:44.190,-32.6876,-60.8752
14:08:44.201,-33.4376,-62.5002
14:08:44.211,-34.7501,-65.4378
14:08:44.221,-34.8751,-67.7503
14:08:44.231,-37.0626,-68.7503
14:08:44.246,-37.3126,-72.2503
14:08:44.251,-37.5001,-73.6878
14:08:44.262,-39.5627,-75.7503
14:08:44.291,-40.0002,-78.1878
14:08:44.294,-41.0627,-78.8753
14:08:44.296,-41.8127,-82.0628
14:08:44.302,-42.6252,-83.1253
14:08:44.332,-43.3752,-85.6878
14:08:44.335,-43.8752,-86.1253
14:08:44.337,-43.5002,-86.1878
14:08:44.342,-41.0627,-82.4378
14:08:44.369,-37.8126,-76.9378
14:08:44.371,-32.4376,-66.8128
14:08:44.373,-26.1876,-56.1877
14:08:44.397,-18.5626,-43.1877
14:08:44.400,-11.8125,-27.9376
14:08:44.402,-3.875,-15.5626
14:08:44.435,3.4375,-1.75
14:08:44.438,9.625,11.625
14:08:44.440,16.7501,23.3751
14:08:44.446,21.4376,34.1251
14:08:44.451,27.4376,44.2502
14:08:44.460,30.8751,52.9377
14:08:44.471,34.6876,59.6252
14:08:44.480,38.0001,67.2503
14:08:44.491,41.0627,71.9378
14:08:44.501,43.0002,77.4378
14:08:44.510,44.6252,80.4378
14:08:44.521,46.0002,84.3753
14:08:44.530,46.9377,85.6253
14:08:44.541,47.2502,88.3128
14:08:44.550,47.0002,88.0628
14:08:44.561,47.3127,88.3753
14:08:44.571,46.8752,86.9378
14:08:44.581,44.5627,85.1253
14:08:44.590,42.8752,82.6878
14:08:44.601,40.7502,78.2503
14:08:44.611,38.1876,75.3128
14:08:44.621,36.0626,71.2503
14:08:44.630,33.7501,67.2503
14:08:44.642,32.3126,64.0002
14:08:44.651,29.7501,59.7502
14:08:44.661,27.7501,57.3127
14:08:44.670,26.3126,54.2502
14:08:44.681,24.5626,50.3752
14:08:44.690,22.5626,48.3127
14:08:44.701,21.3126,44.5002
14:08:44.711,19.3126,42.1877
14:08:44.720,17.8751,38.6876
14:08:44.731,16.3751,34.9376
14:08:44.741,15.0626,32.9376
14:08:44.751,13.6876,29.1876
14:08:44.761,12.3125,26.7501
14:08:44.771,10.625,23.4376
14:08:44.781,8.625,20.2501
14:08:44.790,7.1875,17.0001
14:08:44.801,5.5,13.9376
14:08:44.811,4.625,10.875
14:08:44.821,2.0625,7.5
14:08:44.830,0.4375,4.375
14:08:44.840,-0.9375,0.4375
14:08:44.851,-3.875,-2
14:08:44.862,-4.6875,-6.1875
14:08:44.870,-7,-9.5
14:08:44.881,-8.1875,-13.3751
14:08:44.891,-10.6875,-15.9376
14:08:44.901,-12.625,-19.6251
14:08:44.911,-13.3126,-23.6876
14:08:44.920,-14.6251,-26.2501
14:08:44.931,-16.7501,-29.1251
14:08:44.940,-18.6876,-32.0001
14:08:44.950,-19.4376,-34.1251
14:08:44.962,-21.0001,-37.8126
14:08:44.983,-22.4376,-39.9377
14:08:44.985,-24.1876,-43.0002
14:08:45.017,-25.7501,-46.6877
14:08:45.020,-26.6876,-48.0627
14:08:45.022,-28.0001,-51.7502
14:08:45.024,-28.6876,-53.3127
14:08:45.030,-30.3126,-55.1252
14:08:45.063,-31.0001,-58.6252
14:08:45.066,-32.7501,-59.5627
14:08:45.068,-33.1876,-63.2502
14:08:45.071,-34.3751,-64.9377
14:08:45.105,-35.6876,-67.3128
14:08:45.107,-36.3751,-70.1878
14:08:45.109,-36.9376,-71.2503
14:08:45.136,-38.2501,-74.1878
14:08:45.137,-38.5626,-75.2503
14:08:45.140,-40.4377,-76.6253
14:08:45.146,-40.3752,-80.0003
14:08:45.154,-41.6252,-80.0003
14:08:45.172,-41.3752,-80.5628
14:08:45.178,-38.9376,-79.1253
14:08:45.185,-37.1876,-74.3128
14:08:45.195,-31.7501,-66.4378
14:08:45.211,-26.7501,-56.3752
14:08:45.213,-19.4376,-43.9377
14:08:45.228,-12.875,-30.4376
14:08:45.231,-5.0625,-15.8126
14:08:45.242,2,-2.625
14:08:45.251,9.5,10.75
14:08:45.260,15.2501,22.8751
14:08:45.270,21.2501,33.8751
14:08:45.282,25.8126,43.6877
14:08:45.291,30.5001,52.0002
14:08:45.301,34.1876,60.3752
14:08:45.310,37.8751,66.8753
14:08:45.320,40.6252,73.2503
14:08:45.330,42.1877,76.9378
14:08:45.341,43.7502,81.8753
14:08:45.351,45.3127,83.3753
14:08:45.360,46.0627,86.3753
14:08:45.371,46.5002,87.1878
14:08:45.380,47.0627,88.3753
14:08:45.392,45.8752,86.8753
14:08:45.421,45.4377,86.4378
14:08:45.425,43.7502,84.5628
14:08:45.426,42.0002,82.0003
14:08:45.432,39.8127,77.5628
14:08:45.441,38.4376,74.0628
14:08:45.451,36.6876,70.9378
14:08:45.460,33.6876,67.8128
14:08:45.471,32.3751,64.1877
14:08:45.480,30.1876,60.0627
14:08:45.491,27.7501,57.3127
14:08:45.500,26.6251,53.5627
14:08:45.510,24.5626,50.8752
14:08:45.520,22.6876,48.0002
14:08:45.530,21.4376,44.2502
14:08:45.541,19.7501,42.3127
14:08:45.551,18.1251,37.8126
14:08:45.560,16.1876,35.2501
14:08:45.571,15.1251,32.3126
14:08:45.580,12.6875,29.5001
14:08:45.591,11.875,26.1876
14:08:45.601,9.4375,22.7501
14:08:45.611,8.6875,19.5001
14:08:45.621,6.125,16.0001
14:08:45.630,5,12.6875
14:08:45.641,2.0625,9.3125
14:08:45.651,0.375,6.25
14:08:45.660,-0.875,2.375
14:08:45.670,-3.4375,-0.875
14:08:45.681,-5.125,-5.125
14:08:45.692,-7,-7.875
14:08:45.700,-8.4375,-11.8125
14:08:45.726,-9.8125,-14.6251
14:08:45.728,-11,-18.5001
14:08:45.731,-13.1251,-21.5001
14:08:45.765,-14.6876,-24.6251
14:08:45.767,-16.0001,-27.5001
14:08:45.770,-18.0626,-30.3126
14:08:45.772,-19.4376,-34.0001
14:08:45.802,-21.2501,-36.8126
14:08:45.804,-22.9376,-39.2502
14:08:45.807,-24.1876,-43.0002
14:08:45.833,-25.5626,-45.6252
14:08:45.834,-27.1876,-47.9377
14:08:45.838,-28.3751,-51.5002
14:08:45.843,-29.0626,-53.5627
14:08:45.879,-30.2501,-55.8127
14:08:45.881,-31.2501,-58.0002
14:08:45.882,-31.3126,-60.5002
14:08:45.889,-33.6251,-62.6877
14:08:45.893,-34.2501,-65.0002
14:08:45.907,-34.6876,-66.8128
14:08:45.911,-36.1876,-69.9378
14:08:45.948,-36.9376,-71.3128
14:08:45.948,-38.1876,-74.6878
14:08:45.951,-39.0626,-75.5628
14:08:45.957,-40.4377,-78.3753
14:08:45.966,-40.8752,-80.5003
14:08:45.975,-41.1877,-80.6253
14:08:45.985,-41.6877,-82.3753
14:08:45.995,-40.6252,-81.8128
14:08:46.006,-38.8751,-78.0628
14:08:46.016,-33.7501,-72.0628
14:08:46.026,-29.1251,-62.0002
14:08:46.035,-22.0001,-50.3752
14:08:46.045,-15.2501,-36.8126
14:08:46.056,-7.0625,-23.5001
14:08:46.067,-0.5625,-8.9375
14:08:46.077,6.8125,4.4375
14:08:46.086,17.1251,25.4376
14:08:46.096,23.7501,37.4376
14:08:46.106,30.3751,47.8752
14:08:46.115,34.5626,58.0627
14:08:46.125,39.2502,67.2503
14:08:46.136,43.0627,73.4378
14:08:46.146,45.6877,81.1253
14:08:46.156,48.0627,85.8753
14:08:46.166,50.8127,90.8754
14:08:46.175,51.5627,95.2504
14:08:46.186,53.0002,97.0629
14:08:46.195,54.6877,99.5629
14:08:46.205,54.0627,100.7504
14:08:46.216,53.6877,100.3754
14:08:46.225,52.8127,100.5004
14:08:46.236,51.6252,97.8129
14:08:46.246,49.6877,94.7504
14:08:46.256,47.4377,91.6879
14:08:46.266,45.5627,88.2503
14:08:46.281,42.9377,84.5628
14:08:46.286,40.7502,80.3128
14:08:46.296,38.8751,76.1878
14:08:46.306,35.5626,72.2503
14:08:46.316,33.3751,69.3128
14:08:46.325,32.0626,64.8752
14:08:46.335,30.3126,62.0627
14:08:46.346,27.9376,58.0002
14:08:46.356,26.1251,54.7502
14:08:46.365,24.4376,50.9377
14:08:46.375,23.0001,48.3127
14:08:46.389,21.0626,44.3752
14:08:46.396,19.0626,41.0002
14:08:46.419,17.0001,37.6876
14:08:46.422,15.1876,33.5001
14:08:46.427,13.5001,31.2501
14:08:46.459,11.25,27.6251
14:08:46.537,9.625,23.7501
14:08:46.540,7.75,20.0626
14:08:46.540,6.375,16.5001
14:08:46.548,4.5,13.0625
14:08:46.549,2.8125,9.25
14:08:46.549,0.5625,5.1875
14:08:46.567,-1.0625,1.6875
14:08:46.570,-3.0625,-2
14:08:46.576,-4.625,-5.4375
14:08:46.585,-6.75,-8.9375
14:08:46.596,-9.25,-12.625
14:08:46.607,-10.125,-16.0626
14:08:46.615,-12.5625,-19.7501
14:08:46.626,-14.8751,-22.5001
14:08:46.635,-15.8751,-26.5001
14:08:46.646,-17.7501,-29.3126
14:08:46.655,-19.1876,-33.3126
14:08:46.666,-20.8751,-37.4376
14:08:46.676,-22.0626,-39.7502
14:08:46.702,-24.1251,-42.6252
14:08:46.704,-25.6251,-45.5627
14:08:46.706,-26.6251,-49.5002
14:08:46.717,-37.3751,-70.3128
14:08:46.725,-38.3126,-72.4378
14:08:46.736,-39.7502,-74.1253
14:08:46.745,-40.3752,-77.5003
14:08:46.755,-41.5627,-78.1253
14:08:46.766,-43.0627,-81.5003
14:08:46.776,-43.6877,-83.5628
14:08:46.785,-44.1877,-85.5003
14:08:46.796,-46.2502,-87.5628
14:08:46.806,-46.8752,-90.1878
14:08:46.815,-47.5627,-91.5629
14:08:46.826,-48.5627,-92.6254
14:08:46.835,-49.5002,-94.8129
14:08:46.845,-48.7502,-95.1254
14:08:46.856,-47.6877,-93.3129
14:08:46.866,-44.4377,-89.6878
14:08:46.875,-39.5627,-80.9378
14:08:46.887,-34.0001,-69.1253
14:08:46.896,-26.8751,-57.2502
14:08:46.906,-17.8751,-42.7502
14:08:46.915,-10.5,-27.4376
14:08:46.925,-2.25,-11.875
14:08:46.935,5.625,4
14:08:46.946,13.6251,17.5001
14:08:46.955,20.6876,32.1251
14:08:46.966,26.7501,45.2502
14:08:46.975,32.6251,54.7502
14:08:46.986,38.0626,65.6253
14:08:46.996,41.9377,74.3753
14:08:47.005,46.5627,82.3128
14:08:47.015,49.8127,89.3753
14:08:47.028,51.4377,95.3754
14:08:47.038,53.9377,99.0004
14:08:47.045,56.0627,103.2504
14:08:47.055,56.8752,105.7504
14:08:47.066,57.9377,107.3754
14:08:47.075,57.3752,109.2504
14:08:47.086,56.8127,108.1254
14:08:47.096,56.0627,107.8129
14:08:47.107,54.3127,105.6879
14:08:47.116,52.2502,102.2504
14:08:47.125,50.8752,98.6879
14:08:47.158,47.6877,95.2504
14:08:47.160,45.6252,91.1879
14:08:47.162,42.1252,86.1253
14:08:47.167,40.2502,82.1878
14:08:47.197,37.8126,77.8753
14:08:47.201,35.5626,73.7503
14:08:47.202,33.1251,69.0628
14:08:47.207,30.9376,65.5628
14:08:47.246,29.3751,62.6252
14:08:47.247,26.7501,58.0002
14:08:47.252,25.1251,54.8752
14:08:47.276,23.6876,51.7502
14:08:47.276,21.6251,47.3127
14:08:47.277,20.5626,44.8127
14:08:47.279,17.8751,41.2502
14:08:47.286,16.0001,37.8126
14:08:47.315,13.8751,34.1251
14:08:47.318,11.625,30.3126
14:08:47.321,10,26.0001
14:08:47.327,8.3125,21.4376
14:08:47.336,6.5,17.8751
14:08:47.346,4.25,14.1876
14:08:47.355,2.125,9.5625
14:08:47.366,-0.3125,6.5
14:08:47.377,-2,2.375
14:08:47.385,-3.6875,-2.125
14:08:47.396,-5.75,-5.75
14:08:47.405,-7.6875,-9.4375
14:08:47.415,-9.9375,-14.1876
14:08:47.425,-11.6875,-17.3126
14:08:47.436,-13.2501,-21.3126
14:08:47.445,-15.0626,-24.5626
14:08:47.455,-16.6251,-28.0626
14:08:47.465,-17.8126,-31.1251
14:08:47.475,-19.8751,-34.2501
14:08:47.485,-21.3126,-37.5626
14:08:47.495,-22.8126,-41.1252
14:08:47.505,-24.3751,-43.6877
14:08:47.515,-26.0626,-47.7502
14:08:47.526,-27.8126,-49.7502
14:08:47.536,-28.5626,-53.5002
14:08:47.545,-30.0626,-55.3127
14:08:47.556,-31.5626,-58.5002
14:08:47.565,-32.1876,-61.5627
14:08:47.576,-34.1251,-64.4377
14:08:47.586,-34.8126,-67.0628
14:08:47.595,-36.9376,-69.5628
14:08:47.606,-37.5626,-71.8753
14:08:47.616,-38.8126,-73.3753
14:08:47.625,-39.7502,-77.3128
14:08:47.636,-40.4377,-78.8128
14:08:47.646,-42.1252,-80.1253
14:08:47.656,-43.3752,-83.6878
14:08:47.665,-44.8127,-85.1253
14:08:47.676,-45.3127,-88.1253
14:08:47.686,-46.9377,-90.8129
14:08:47.695,-48.0002,-91.9379
14:08:47.705,-48.7502,-94.5629
14:08:47.715,-48.7502,-94.1879
14:08:47.725,-47.3752,-93.5629
14:08:47.736,-44.1252,-88.1253
14:08:47.746,-38.7501,-79.6253
14:08:47.755,-32.7501,-68.8128
14:08:47.772,-25.4376,-55.0627
14:08:47.787,-16.8126,-40.5002
14:08:47.790,-9.0625,-23.6251
14:08:47.805,-0.375,-8.9375
14:08:47.819,7.8125,6.6875
14:08:47.821,15.2501,21.5626
14:08:47.828,22.5001,34.6251
14:08:47.836,29.0626,47.5627
14:08:47.878,34.0626,57.3752
14:08:47.880,39.5627,67.9378
14:08:47.912,43.9377,76.6253
14:08:47.914,47.5002,83.8753
14:08:47.922,50.8752,90.8129
14:08:47.924,52.4377,94.6879
14:08:47.924,55.2502,99.2504
14:08:47.932,55.0002,102.2504
14:08:47.971,56.6252,104.0629
14:08:47.973,56.3752,105.6879
14:08:47.974,56.2502,105.5004
14:08:47.989,55.1877,105.3129
14:08:47.993,52.9377,102.3129
14:08:48.020,50.8752,99.0629
14:08:48.021,47.1877,96.6879
14:08:48.023,43.1877,91.3129
14:08:48.029,38.7501,87.0003
14:08:48.032,35.1251,81.8753
14:08:48.041,31.7501,76.7503
14:08:48.050,28.2501,73.4378
14:08:48.060,25.3751,69.5628
14:08:48.071,20.6251,65.4377
14:08:48.080,15.5626,62.0627
14:08:48.091,8.25,59.0002
14:08:48.101,7.375,57.1877
14:08:48.112,8.3125,55.7502
14:08:48.120,9.625,53.8127
14:08:48.130,15.0001,56.5627
14:08:48.141,17.6251,56.3752
14:08:48.150,17.7501,54.3127
14:08:48.161,17.5001,50.3127
14:08:48.171,16.3126,46.1877
14:08:48.180,14.1251,41.5002
14:08:48.191,11.75,35.2501
14:08:48.207,8.125,30.3126
14:08:48.217,5.3125,24.1876
14:08:48.225,1.875,18.2501
14:08:48.235,-2.0625,12.6875
14:08:48.246,-4.4375,6.5
14:08:48.255,-8.3125,0.875
14:08:48.266,-11.375,-3.75
14:08:48.277,-14.2501,-9.625
14:08:48.286,-17.3751,-13.7501
14:08:48.295,-20.0001,-18.5626
14:08:48.305,-22.7501,-24.0001
14:08:48.316,-26.1251,-27.7501
14:08:48.327,-28.7501,-32.5001
14:08:48.337,-30.5001,-35.9376
14:08:48.345,-32.7501,-39.0001
14:08:48.356,-35.6876,-42.6877
14:08:48.366,-37.9376,-47.6877
14:08:48.376,-40.3752,-52.5002
14:08:48.387,-42.3752,-55.4377
14:08:48.396,-44.9377,-58.9377
14:08:48.406,-46.1252,-62.5627
14:08:48.416,-47.5627,-66.2503
14:08:48.426,-49.2502,-68.2503
14:08:48.435,-50.5002,-72.1253
14:08:48.446,-51.5002,-75.0628
14:08:48.456,-54.3127,-77.8753
14:08:48.465,-55.6252,-80.6253
14:08:48.476,-57.1877,-82.8753
14:08:48.486,-58.6252,-86.7503
14:08:48.496,-59.5627,-87.3753
14:08:48.506,-60.9377,-91.1254
14:08:48.516,-61.2502,-92.3754
14:08:48.526,-63.4377,-93.7504
14:08:48.537,-64.1252,-96.5004
14:08:48.545,-65.4377,-98.6254
14:08:48.556,-66.4378,-101.4379
14:08:48.567,-66.8753,-103.1254
14:08:48.576,-67.1878,-102.9379
14:08:48.586,-65.3752,-101.8129
14:08:48.595,-62.6877,-96.8754
14:08:48.605,-58.2502,-90.1253
14:08:48.616,-53.3127,-80.8753
14:08:48.625,-46.8127,-70.3128
14:08:48.636,-39.6877,-57.6877
14:08:48.645,-32.5001,-44.5002
14:08:48.676,-24.9376,-30.0626
14:08:48.680,-18.0626,-17.7501
14:08:48.681,-10.5625,-4.1875
14:08:48.686,-4.5,7.3125
14:08:48.712,1.4375,18.8126
14:08:48.714,6.1875,29.0626
14:08:48.717,11,38.0626
14:08:48.743,15.0626,46.0627
14:08:48.746,19.0001,52.5002
14:08:48.748,21.0626,59.6252
14:08:48.756,23.8126,64.4377
14:08:48.790,26.6251,68.1878
14:08:48.792,27.8126,72.0628
14:08:48.794,28.4376,73.4378
14:08:48.820,29.3751,75.5003
14:08:48.822,28.6876,77.0003
14:08:48.822,28.6251,75.1878
14:08:48.830,26.5626,74.2503
14:08:48.837,25.6876,70.8128
14:08:48.846,24.4376,67.7503
14:08:48.857,22.1251,63.9377
14:08:48.865,19.2501,59.7502
14:08:48.876,17.1251,55.0002
14:08:48.886,14.2501,50.1252
14:08:48.895,11.625,46.3752
14:08:48.908,10.25,41.8752
14:08:48.916,7.5,38.8126
14:08:48.925,5.125,34.1251
14:08:48.935,3,29.9376
14:08:48.946,1.3125,25.5626
14:08:48.955,-1.375,21.9376
14:08:48.966,-2.5625,18.6251
14:08:48.976,-5.5625,13.9376
14:08:48.985,-6.5,10.625
14:08:48.996,-9.25,7.125
14:08:49.005,-10.6875,3.5
14:08:49.016,-13.5001,0.0625
14:08:49.026,-14.8126,-2.5
14:08:49.035,-16.0626,-6.625
14:08:49.045,-18.6876,-9.125
14:08:49.056,-20.1876,-12.75
14:08:49.066,-21.6876,-15.5001
14:08:49.083,-23.1251,-18.4376
14:08:49.088,-24.5001,-22.1251
14:08:49.096,-26.2501,-25.6251
14:08:49.111,-27.8751,-29.5001
14:08:49.119,-29.6876,-32.0626
14:08:49.125,-30.2501,-34.9376
14:08:49.135,-32.1251,-38.3751
14:08:49.145,-33.2501,-41.1877
14:08:49.155,-34.3126,-44.3127
14:08:49.170,-35.5001,-46.7502
14:08:49.179,-36.2501,-49.3752
14:08:49.185,-37.0001,-51.8127
14:08:49.201,-37.8751,-53.3752
14:08:49.211,-39.0627,-56.8752
14:08:49.215,-39.6877,-58.3127
14:08:49.225,-40.6877,-61.7502
14:08:49.236,-41.5002,-63.2502
14:08:49.261,-42.1877,-65.7503
14:08:49.263,-43.1877,-67.6253
14:08:49.269,-44.3752,-69.6253
14:08:49.276,-44.8127,-71.2503
14:08:49.287,-45.3752,-73.3128
14:08:49.296,-46.0002,-73.9378
14:08:49.321,-47.1877,-76.6253
14:08:49.323,-46.8752,-78.0628
14:08:49.325,-48.5002,-78.7503
14:08:49.366,-48.6252,-81.6253
14:08:49.367,-49.8752,-82.3753
14:08:49.370,-50.5627,-85.0628
14:08:49.372,-51.6252,-86.6878
14:08:49.380,-52.5002,-88.0628
14:08:49.410,-53.0627,-88.9378
14:08:49.410,-53.3127,-91.4379
14:08:49.413,-53.3752,-91.3129
14:08:49.438,-53.0627,-90.8754
14:08:49.439,-51.9377,-88.7503
14:08:49.442,-48.2502,-84.2503
14:08:49.447,-44.1877,-76.7503
14:08:49.478,-38.9376,-65.9378
14:08:49.481,-31.6876,-55.2502
14:08:49.482,-24.8126,-42.3752
14:08:49.487,-17.0001,-27.1251
14:08:49.496,-9.375,-12.8125
14:08:49.505,-1.8125,2.0625
14:08:49.515,4.9375,16.1251
14:08:49.526,12.625,28.3751
14:08:49.536,19.3751,41.6877
14:08:49.546,24.5001,52.9377
14:08:49.556,30.5001,63.2502
14:08:49.566,34.7501,71.3128
14:08:49.575,39.5002,79.6878
14:08:49.586,41.8127,87.3128
14:08:49.596,44.8127,91.5004
14:08:49.606,47.1252,96.6879
14:08:49.615,48.1877,100.5004
14:08:49.625,49.4377,102.3129
14:08:49.635,48.5627,103.9379
14:08:49.645,49.0627,104.0629
14:08:49.659,48.0002,103.6254
14:08:49.667,46.8752,101.2504
14:08:49.675,45.3127,99.4379
14:08:49.685,44.0002,95.5629
14:08:49.696,40.3752,91.0629
14:08:49.706,38.5626,86.6878
14:08:49.716,34.8751,81.8753
14:08:49.726,31.9376,76.3753
14:08:49.736,29.0001,71.1878
14:08:49.745,27.6251,66.6253
14:08:49.756,24.5001,61.8752
14:08:49.766,22.3751,58.3127
14:08:49.775,21.5626,53.4377
14:08:49.785,19.2501,50.4377
14:08:49.796,18.6876,45.6252
14:08:49.806,16.3126,42.0627
14:08:49.816,14.5626,38.1251
14:08:49.826,13.1251,32.8751
14:08:49.836,10.6875,29.5001
14:08:49.846,7.5,24.0001
14:08:49.855,4.625,19.8126
14:08:49.865,2.625,15.8126
14:08:49.876,-1.3125,10.875
14:08:49.886,-3.125,6.1875
14:08:49.896,-6.1875,2.9375
14:08:49.905,-8.625,-1.6875
14:08:49.915,-10.6875,-6.3125
14:08:49.926,-12.75,-10.125
14:08:49.936,-15.4376,-14.0001
14:08:49.946,-17.4376,-18.6251
14:08:49.955,-19.5001,-21.6251
14:08:49.966,-21.5626,-26.8126
14:08:49.977,-23.0626,-30.1251
14:08:49.985,-25.4376,-34.0001
14:08:50.002,-27.8751,-37.2501
14:08:50.038,-28.8751,-40.7502
14:08:50.041,-30.6251,-44.1252
14:08:50.043,-31.8126,-46.6877
14:08:50.047,-34.0626,-49.3752
14:08:50.053,-35.3751,-52.9377
14:08:50.085,-36.7501,-54.8752
14:08:50.087,-38.0626,-57.2502
14:08:50.090,-39.4377,-59.1877
14:08:50.118,-41.1252,-62.6877
14:08:50.118,-42.3752,-64.0002
14:08:50.118,-43.0002,-66.3128
14:08:50.125,-44.2502,-67.6878
14:08:50.141,-45.4377,-70.3128
14:08:50.142,-47.0002,-71.9378
14:08:50.150,-46.9377,-73.7503
14:08:50.184,-48.2502,-75.2503
14:08:50.187,-48.3127,-77.8753
14:08:50.189,-48.8752,-79.0628
14:08:50.192,-48.3127,-79.6253
14:08:50.206,-47.8752,-81.0628
14:08:50.210,-47.8752,-82.1253
14:08:50.222,-48.2502,-83.5628
14:08:50.230,-48.8127,-84.1878
14:08:50.240,-49.3127,-85.6878
14:08:50.252,-50.5002,-86.5003
14:08:50.261,-49.3127,-85.3753
14:08:50.272,-47.3127,-82.8753
14:08:50.281,-43.1877,-77.0628
14:08:50.290,-37.8126,-68.8128
14:08:50.301,-31.0626,-58.6877
14:08:50.312,-23.0001,-45.3752
14:08:50.321,-14.8751,-31.5001
14:08:50.331,-7,-16.6876
14:08:50.340,1.8125,-1.8125
14:08:50.350,8.3125,12.25
14:08:50.361,15.2501,26.8751
14:08:50.370,21.4376,38.6876
14:08:50.381,27.6876,50.8752
14:08:50.400,32.6876,63.3127
14:08:50.407,38.1251,71.3128
14:08:50.416,42.0002,81.6878
14:08:50.421,45.9377,89.0003
14:08:50.438,49.1252,95.4379
14:08:50.445,52.3127,101.5004
14:08:50.453,52.8127,106.7504
14:08:50.462,54.1877,108.3129
14:08:50.470,55.0002,112.0629
14:08:50.481,54.9377,112.6254
14:08:50.495,54.7502,113.5004
14:08:50.504,54.0002,112.3129
14:08:50.510,52.6252,110.1254
14:08:50.542,50.3127,107.6879
14:08:50.557,48.2502,104.1254
14:08:50.561,45.6252,100.3754
14:08:50.562,43.0627,96.3754
14:08:50.562,41.3127,92.1254
14:08:50.571,38.4376,86.6878
14:08:50.580,36.9376,83.1253
14:08:50.591,33.9376,77.8753
14:08:50.600,31.6251,74.6878
14:08:50.610,30.6251,70.5003
14:08:50.620,28.6251,66.8128
14:08:50.631,26.7501,62.8127
14:08:50.641,24.9376,59.0002
14:08:50.652,23.5001,55.6877
14:08:50.660,21.9376,51.7502
14:08:50.670,20.3126,47.6877
14:08:50.680,18.0001,43.9377
14:08:50.690,16.1876,39.0001
14:08:50.700,13.7501,34.9376
14:08:50.710,11.5,30.3126
14:08:50.720,9.5,26.9376
14:08:50.731,6.4375,21.7501
14:08:50.740,3.6875,17.1251
14:08:50.750,1.5,11.9375
14:08:50.760,-0.125,7.6875
14:08:50.770,-1.5,3.8125
14:08:50.781,-3.75,0.5625
14:08:50.804,-5.5,-3.875
14:08:50.807,-7.4375,-8.625
14:08:50.812,-10.0625,-12.0625
14:08:50.849,-11.5625,-17.8126
14:08:50.851,-14.1876,-20.8751
14:08:50.856,-16.5001,-26.3126
14:08:50.857,-18.4376,-30.7501
14:08:50.863,-20.6251,-34.0001
14:08:50.893,-22.6251,-39.1876
14:08:50.896,-25.1876,-42.1877
14:08:50.898,-27.3126,-46.9377
14:08:50.932,-29.4376,-49.6877
14:08:50.932,-31.5001,-54.5627
14:08:50.936,-32.5626,-57.5002
14:08:50.942,-34.8126,-61.1877
14:08:50.942,-35.9376,-64.6877
14:08:50.974,-37.9376,-68.0628
14:08:50.977,-39.6877,-70.5628
14:08:50.981,-41.2502,-74.4378
14:08:50.982,-42.1252,-77.0628
14:08:50.994,-44.1877,-79.1878
14:08:51.000,-45.0627,-82.7503
14:08:51.012,-46.1252,-84.7503
14:08:51.022,-47.8127,-87.8128
14:08:51.031,-49.5002,-90.0628
14:08:51.040,-50.3127,-92.0629
14:08:51.050,-52.1252,-94.0629
14:08:51.061,-52.8127,-95.3129
14:08:51.072,-52.7502,-96.0004
14:08:51.081,-51.1252,-93.0629
14:08:51.090,-48.8127,-88.3128
14:08:51.100,-45.1877,-79.6253
14:08:51.111,-39.0001,-69.5628
14:08:51.120,-32.5001,-55.0002
14:08:51.131,-24.5001,-41.1877
14:08:51.140,-15.3126,-25.2501
14:08:51.150,-6.9375,-9.8125
14:08:51.160,1.6875,6
14:08:51.170,9.9375,21.0001
14:08:51.181,17.4376,35.1251
14:08:51.190,24.7501,47.4377
14:08:51.200,31.2501,59.6252
14:08:51.210,36.4376,69.1878
14:08:51.221,41.4377,78.6253
14:08:51.230,44.5627,88.0003
14:08:51.240,48.6252,93.5629
14:08:51.250,50.6252,100.3754
14:08:51.260,53.2502,105.1879
14:08:51.270,55.6252,108.4379
14:08:51.280,56.4377,112.3754
14:08:51.291,57.8127,114.0004
14:08:51.300,59.8752,115.6254
14:08:51.312,60.0627,116.6879
14:08:51.320,60.5627,115.5629
14:08:51.330,59.3752,114.0004
14:08:51.341,58.0627,111.2504
14:08:51.352,55.1252,107.1879
14:08:51.361,52.5627,103.5004
14:08:51.371,49.1252,97.6879
14:08:51.381,46.6252,94.3129
14:08:51.390,43.9377,89.1253
14:08:51.400,41.3752,85.6878
14:08:51.411,38.8751,80.9378
14:08:51.421,36.7501,77.6253
14:08:51.430,34.1876,73.8128
14:08:51.440,32.3126,70.1878
14:08:51.450,30.0626,66.5003
14:08:51.462,27.9376,63.5627
14:08:51.471,25.5626,59.8127
14:08:51.489,23.8751,55.0627
14:08:51.491,21.9376,51.1252
14:08:51.526,19.2501,48.0627
14:08:51.529,17.4376,43.3127
14:08:51.529,15.6251,40.2502
14:08:51.532,13.2501,34.9376
14:08:51.564,11.5625,31.8126
14:08:51.565,9,26.7501
14:08:51.569,7.5625,22.6251
14:08:51.573,5.375,19.0626
14:08:51.606,2.5625,15.0626
14:08:51.610,2.3125,10.75
14:08:51.611,-0.6875,7.5625
14:08:51.640,-1.4375,3.375
14:08:51.640,-4.4375,-0.75
14:08:51.643,-5.25,-4.9375
14:08:51.648,-7.1875,-8.75
14:08:51.654,-9.4375,-12.1875
14:08:51.661,-11.3125,-17.3126
14:08:51.671,-13.6251,-21.5001
14:08:51.681,-15.0626,-26.3126
14:08:51.690,-17.3751,-29.5001
14:08:51.700,-19.9376,-33.5626
14:08:51.710,-20.8751,-37.7501
14:08:51.731,-23.5001,-41.0627
14:08:51.738,-24.7501,-45.0627
14:08:51.747,-26.8126,-48.0627
14:08:51.752,-29.5001,-52.0002
14:08:51.769,-30.2501,-56.3752
14:08:51.775,-33.0001,-58.7502
14:08:51.783,-34.5626,-62.7502
14:08:51.792,-35.8751,-65.8128
14:08:51.826,-37.1876,-68.8128
14:08:51.827,-37.8751,-72.0003
14:08:51.842,-39.6877,-75.1878
14:08:51.858,-40.8752,-77.6253
14:08:51.858,-42.8127,-82.3128
14:08:51.860,-44.8752,-83.8753
14:08:51.866,-46.3752,-87.8128
14:08:51.870,-48.0002,-89.6878
14:08:51.882,-47.0627,-89.3753
14:08:51.890,-45.5627,-86.3128
14:08:51.900,-41.8127,-78.6253
14:08:51.912,-35.6876,-70.3128
14:08:51.922,-29.8751,-57.1877
14:08:51.932,-21.6876,-44.0627
14:08:51.942,-12.875,-29.7501
14:08:51.952,-4.5625,-13.6876
14:08:51.960,4.1875,0.875
14:08:51.970,12.5,16.0626
14:08:51.980,20.6251,30.5001
14:08:51.990,26.5001,43.7502
14:08:52.001,32.4376,55.3752
14:08:52.011,38.3126,65.1878
14:08:52.021,43.1252,75.4378
14:08:52.031,47.1252,83.1878
14:08:52.041,51.0002,91.0004
14:08:52.050,53.5002,97.5004
14:08:52.061,56.4377,102.7504
14:08:52.070,57.2502,108.3754
14:08:52.081,58.8127,110.4379
14:08:52.090,59.9377,113.5004
14:08:52.104,59.4377,114.6879
14:08:52.112,58.8127,114.4379
14:08:52.120,56.8752,114.3129
14:08:52.130,53.8127,111.5004
14:08:52.140,50.8127,108.6879
14:08:52.152,49.0002,105.0004
14:08:52.161,48.4377,103.8129
14:08:52.172,46.8752,99.5629
14:08:52.181,45.4377,97.1254
14:08:52.192,43.2502,93.5004
14:08:52.200,41.1877,90.3129
14:08:52.211,39.9377,86.7503
14:08:52.224,37.6876,83.3753
14:08:52.251,37.1251,80.5003
14:08:52.253,34.3751,77.1878
14:08:52.256,33.1251,73.2503
14:08:52.262,30.6251,70.1878
14:08:52.294,28.6251,67.3128
14:08:52.297,27.2501,63.3127
14:08:52.298,25.2501,60.5002
14:08:52.325,23.3751,55.5002
14:08:52.326,21.2501,51.9377
14:08:52.329,19.3751,46.5627
14:08:52.337,17.6251,43.9377
14:08:52.346,16.3751,38.1876
14:08:52.352,13.3126,34.8126
14:08:52.379,11.875,29.8751
14:08:52.383,8,26.0001
14:08:52.385,6.1875,20.5626
14:08:52.395,3.125,16.6876
14:08:52.402,1.125,12.125
14:08:52.412,-0.9375,7.75
14:08:52.420,-3.875,3.75
14:08:52.432,-4.875,-0.5625
14:08:52.440,-8.125,-4.4375
14:08:52.451,-10.375,-8.3125
14:08:52.460,-12.0625,-12.8125
14:08:52.470,-14.2501,-17.0001
14:08:52.481,-15.6876,-21.0001
14:08:52.490,-17.3126,-24.5001
14:08:52.502,-20.5001,-27.6251
14:08:52.510,-21.3751,-31.8751
14:08:52.522,-24.0626,-35.1251
14:08:52.531,-25.0001,-38.2501
14:08:52.542,-27.0626,-41.9377
14:08:52.550,-29.0001,-44.7502
14:08:52.562,-29.9376,-48.8127
14:08:52.570,-31.9376,-51.3752
14:08:52.582,-32.9376,-54.9377
14:08:52.590,-34.8126,-57.6252
14:08:52.602,-36.0001,-62.0627
14:08:52.610,-36.6876,-65.5627
14:08:52.621,-38.9376,-68.5628
14:08:52.632,-39.8752,-71.8128
14:08:52.642,-40.8127,-74.5628
14:08:52.651,-42.9377,-77.9378
14:08:52.662,-44.0002,-80.6253
14:08:52.670,-45.5627,-83.5628
14:08:52.680,-45.8127,-85.2503
14:08:52.690,-45.8752,-85.2503
14:08:52.702,-44.0002,-82.6878
14:08:52.711,-40.2502,-77.5628
14:08:52.721,-35.6251,-67.5003
14:08:52.732,-28.8751,-56.7502
14:08:52.742,-20.9376,-42.5627
14:08:52.752,-13.1251,-29.1876
14:08:52.763,-4.875,-13.0625
14:08:52.770,3.375,1
14:08:52.781,11.1875,16.4376
14:08:52.790,17.5626,29.8751
14:08:52.800,23.7501,41.5627
14:08:52.811,30.3126,52.8127
14:08:52.822,34.8751,63.2502
14:08:52.830,39.8127,71.0003
14:08:52.842,44.1877,79.4378
14:08:52.854,46.1877,85.0628
14:08:52.862,48.9377,90.7504
14:08:52.870,50.0627,94.1879
14:08:52.881,51.8752,97.7504
14:08:52.892,51.9377,65.0002
14:08:52.900,52.5627,66.6878
14:08:52.910,52.8752,67.2503
14:08:52.921,51.6252,67.3753
14:08:52.932,51.3127,65.8128
14:08:52.941,49.9377,64.2502
14:08:52.952,48.3127,61.2502
14:08:52.976,45.1252,57.7502
14:08:52.982,43.6877,54.3127
14:08:52.982,40.0002,50.4377
14:08:52.995,38.6251,46.8127
14:08:53.000,35.8751,43.7502
14:08:53.033,34.4376,40.5002
14:08:53.035,31.8126,37.9376
14:08:53.037,30.0626,35.1876
14:08:53.042,28.5001,31.7501
14:08:53.140,26.0001,29.1251
14:08:53.153,24.6876,26.1251
14:08:53.167,21.4376,24.0626
14:08:53.173,20.6876,21.0626
14:08:53.184,18.3751,18.7501
14:08:53.184,16.5626,15.3751
14:08:53.184,13.6876,13.5001
14:08:53.186,11.1875,9.4375
14:08:53.200,7,6.1875
14:08:53.203,3.875,2.125
14:08:53.207,2.75,-0.5625
14:08:53.216,2.5,-3
14:08:53.229,0.5625,-5.5
14:08:53.236,-1.3125,-8.5
14:08:53.246,-3.1875,-12.4375
14:08:53.255,-4.5625,-15.3126
14:08:53.266,-6.375,-18.3751
14:08:53.277,-8.4375,-21.1876
14:08:53.285,-9.625,-23.8126
14:08:53.296,-11.3125,-27.0626
14:08:53.307,-13.3126,-30.1876
14:08:53.315,-14.7501,-33.2501
14:08:53.327,-17.1876,-36.4376
14:08:53.335,-27.3751,-59.0002
14:08:53.346,-28.6876,-61.3752
14:08:53.356,-29.0626,-63.1252
14:08:53.366,-29.6251,-65.5628
14:08:53.376,-31.5626,-67.1878
14:08:53.387,-32.6876,-70.1878
14:08:53.395,-33.1876,-71.0003
14:08:53.407,-35.4376,-71.9378
14:08:53.416,-36.4376,-75.6878
14:08:53.425,-37.0626,-77.3753
14:08:53.435,-38.6876,-79.6878
14:08:53.446,-39.3752,-82.6253
14:08:53.456,-41.6877,-84.3753
14:08:53.467,-42.7502,-85.3753
14:08:53.477,-43.8752,-87.6253
14:08:53.486,-43.9377,-87.8128
14:08:53.497,-42.1877,-86.5003
14:08:53.506,-39.6252,-81.3753
14:08:53.517,-35.4376,-74.8128
14:08:53.525,-29.9376,-64.0002
14:08:53.535,-23.5626,-52.7502
14:08:53.547,-15.5001,-38.7501
14:08:53.556,-6.8125,-24.5001
14:08:53.566,0.8125,-9.0625
14:08:53.576,8.625,5.25
14:08:53.587,16.5626,19.1876
14:08:53.595,23.0626,32.1876
14:08:53.610,29.0626,44.5627
14:08:53.615,35.4376,55.2502
14:08:53.625,39.0002,65.3128
14:08:53.635,43.6252,73.0003
14:08:53.645,48.1252,80.3128
14:08:53.656,50.5627,86.9378
14:08:53.666,54.3127,91.6879
14:08:53.676,55.1252,95.6254
14:08:53.686,57.3127,98.5004
14:08:53.697,58.6252,101.2504
14:08:53.706,57.7502,102.6879
14:08:53.717,57.3127,100.6254
14:08:53.726,56.1252,100.3129
14:08:53.735,53.6877,98.0004
14:08:53.747,51.1252,94.3754
14:08:53.755,48.1252,89.1878
14:08:53.776,44.8752,84.7503
14:08:53.779,41.9377,79.8128
14:08:53.785,39.3127,73.7503
14:08:53.824,36.5001,68.9378
14:08:53.825,33.1876,63.3752
14:08:53.829,30.6876,59.3752
14:08:53.831,28.4376,55.0002
14:08:53.860,25.6876,50.6252
14:08:53.862,24.0001,47.6252
14:08:53.866,21.8126,44.6252
14:08:53.871,20.6876,40.3127
14:08:53.878,18.5001,37.8751
14:08:53.906,16.5626,34.3126
14:08:53.908,14.6251,31.1251
14:08:53.910,12.25,28.1876
14:08:53.918,11.375,24.3751
14:08:53.943,8.75,22.2501
14:08:53.946,7.6875,18.2501
14:08:53.947,7.0625,15.6251
14:08:53.956,5.4375,13.0625
14:08:53.967,4.125,9.5
14:08:53.976,1.625,6.25
14:08:53.986,0.6875,3.5625
14:08:53.996,-2.1875,-0.375
14:08:54.007,-3.875,-3.5625
14:08:54.017,-6.3125,-8
14:08:54.025,-8.875,-10.625
14:08:54.035,-10.5625,-14.7501
14:08:54.047,-12.1875,-18.1876
14:08:54.062,-13.8126,-21.8751
14:08:54.071,-15.1876,-25.1251
14:08:54.082,-18.0001,-28.1251
14:08:54.090,-20.4376,-31.6876
14:08:54.102,-21.8126,-36.0001
14:08:54.110,-24.4376,-38.3126
14:08:54.122,-25.8751,-42.8127
14:08:54.130,-28.1876,-45.2502
14:08:54.142,-29.7501,-48.8127
14:08:54.152,-32.1251,-52.0627
14:08:54.162,-33.3751,-54.7502
14:08:54.170,-36.3751,-56.5002
14:08:54.182,-38.5001,-59.8752
14:08:54.190,-40.0627,-63.0002
14:08:54.202,-41.6252,-65.1877
14:08:54.212,-44.1252,-67.6253
14:08:54.222,-46.2502,-70.3753
14:08:54.232,-43.6877,-70.2503
14:08:54.242,-44.2502,-70.4378
14:08:54.251,-45.1252,-74.1878
14:08:54.261,-46.5627,-76.1253
14:08:54.272,-47.3752,-79.1878
14:08:54.280,-47.1877,-77.8128
14:08:54.292,-43.6877,-76.8128
14:08:54.301,-32.6251,-69.1878
14:08:54.312,-24.1876,-61.6877
14:08:54.320,-16.8126,-50.7502
14:08:54.332,-7.3125,-38.6876
14:08:54.340,3.3125,-22.6251
14:08:54.350,10.375,-11.125
14:08:54.387,15.6251,2.625
14:08:54.388,23.9376,16.5626
14:08:54.407,32.8751,30.2501
14:08:54.419,40.3752,43.5627
14:08:54.419,47.1877,55.6877
14:08:54.422,54.5002,67.3128
14:08:54.423,60.8127,76.5003
14:08:54.430,65.6253,85.9378
14:08:54.441,68.2503,91.0629
14:08:54.469,69.1253,96.8754
14:08:54.472,69.6878,100.1254
14:08:54.537,70.1253,105.0004
14:08:54.537,70.1878,106.8129
14:08:54.545,70.6878,109.2504
14:08:54.546,70.0628,109.3754
14:08:54.546,69.1878,110.0004
14:08:54.556,68.3128,108.4379
14:08:54.578,65.8128,105.7504
14:08:54.580,63.4377,102.4379
14:08:54.584,61.0627,99.6254
14:08:54.617,58.0627,93.2504
14:08:54.619,55.3127,88.1878
14:08:54.621,51.8752,83.7503
14:08:54.623,48.6877,77.9378
14:08:54.631,43.9377,72.5628
14:08:54.642,41.7502,67.5628
14:08:54.650,39.6877,62.8127
14:08:54.662,37.6876,59.1877
14:08:54.672,35.6876,54.8127
14:08:54.681,33.6251,49.9377
14:08:54.690,31.0001,47.2502
14:08:54.702,28.0001,42.7502
14:08:54.710,20.8751,29.5001
14:08:54.722,18.2501,24.9376
14:08:54.734,15.5626,21.0001
14:08:54.743,13.5626,17.2501
14:08:54.750,11.5625,12.375
14:08:54.762,9.875,10.0625
14:08:54.771,7.375,4.25
14:08:54.781,3.375,0.6875
14:08:54.791,0.8125,-5.6875
14:08:54.802,-2.0625,-9
14:08:54.810,-3.25,-13.8126
14:08:54.822,-6.1875,-17.4376
14:08:54.832,-7.75,-22.1251
14:08:54.840,-8.875,-25.6251
14:08:54.852,-9,-29.1251
14:08:54.861,-10.375,-31.4376
14:08:54.872,-12,-36.6251
14:08:54.880,-16.0626,-40.8127
14:08:54.891,-18.5001,-45.1877
14:08:54.900,-22.0626,-49.0627
14:08:54.910,-24.3751,-53.4377
14:08:54.920,-27.0626,-56.1252
14:08:54.930,-27.3751,-59.8752
14:08:54.941,-28.8126,-61.6252
14:08:54.952,-29.3751,-65.6253
14:08:54.960,-31.4376,-67.0003
14:08:54.972,-33.5626,-71.9378
14:08:54.980,-35.5626,-74.0003
14:08:54.992,-37.6251,-78.1878
14:08:55.001,-40.6252,-80.5003
14:08:55.013,-43.8752,-83.4378
14:08:55.022,-46.0002,-86.2503
14:08:55.032,-46.6252,-87.5628
14:08:55.040,-46.1877,-89.8128
14:08:55.052,-47.3752,-90.5003
14:08:55.061,-49.3752,-94.1879
14:08:55.070,-52.5627,-96.9379
14:08:55.082,-55.4377,-98.8754
14:08:55.092,-55.8127,-99.8754
14:08:55.101,-54.5627,-97.1879
14:08:55.110,-50.5627,-92.8129
14:08:55.121,-45.8127,-84.6253
14:08:55.130,-39.1877,-75.1878
14:08:55.142,-33.6876,-62.9377
14:08:55.152,-25.3126,-49.0002
14:08:55.182,-17.1251,-34.0626
14:08:55.184,-7.9375,-16.8126
14:08:55.187,1.625,-0.25
14:08:55.193,11,13.9376
14:08:55.224,19.3751,28.0001
14:08:55.227,26.0001,41.3127
14:08:55.229,33.3126,53.0002
14:08:55.232,38.0001,63.8752
14:08:55.262,41.3752,73.5003
14:08:55.264,45.2502,79.9378
14:08:55.267,49.6877,87.2503
14:08:55.293,51.6252,93.2504
14:08:55.295,53.4377,97.1879
14:08:55.299,56.6252,102.0004
14:08:55.302,56.8127,104.8129
14:08:55.312,58.3127,105.9379
14:08:55.340,58.8127,107.0004
14:08:55.342,57.3752,106.1879
14:08:55.344,56.5002,103.7504
14:08:55.352,53.1877,100.6254
14:08:55.362,50.2502,95.8754
14:08:55.372,47.3752,91.1254
14:08:55.380,44.4377,87.0628
14:08:55.392,41.5627,80.4378
14:08:55.402,38.5001,75.5003
14:08:55.412,36.3751,70.8753
14:08:55.421,33.5626,64.6877
14:08:55.432,30.5001,61.1877
14:08:55.442,28.1251,55.5002
14:08:55.450,25.4376,51.3127
14:08:55.462,24.0001,47.1877
14:08:55.470,21.1251,43.5627
14:08:55.484,20.0626,39.5002
14:08:55.494,17.5001,35.9376
14:08:55.502,15.0626,31.7501
14:08:55.511,13.0625,26.5626
14:08:55.522,9.9375,23.6251
14:08:55.530,8.5625,18.9376
14:08:55.540,6.5,15.3751
14:08:55.550,3.8125,11.3125
14:08:55.560,1.75,7.5
14:08:55.571,0.1875,3.4375
14:08:55.582,-2.125,-0.625
14:08:55.590,-2.9375,-5.5
14:08:55.602,-6.125,-9.4375
14:08:55.612,-7.625,-14.0626
14:08:55.621,-10.3125,-18.3126
14:08:55.632,-11.6875,-22.7501
14:08:55.662,-14.4376,-26.2501
14:08:55.665,-16.6876,-30.5001
14:08:55.667,-18.3126,-34.7501
14:08:55.674,-19.6876,-38.2501
14:08:55.687,-21.7501,-43.0002
14:08:55.703,-23.2501,-46.0627
14:08:55.706,-25.0001,-49.7502
14:08:55.714,-26.5001,-53.0002
14:08:55.722,-28.8126,-57.0627
14:08:55.730,-30.5626,-60.7502
14:08:55.742,-32.4376,-64.2502
14:08:55.750,-34.6251,-67.2503
14:08:55.762,-36.5001,-69.3753
14:08:55.770,-37.4376,-73.7503
14:08:55.790,-37.6876,-75.3753
14:08:55.793,-39.6252,-78.1878
14:08:55.808,-40.4377,-81.5003
14:08:55.823,-42.7502,-83.8128
14:08:55.826,-44.2502,-87.0628
14:08:55.834,-45.0002,-89.8128
14:08:55.841,-47.4377,-91.1254
14:08:55.853,-48.1252,-94.7504
14:08:55.863,-49.1252,-96.6254
14:08:55.871,-50.2502,-100.0629
14:08:55.882,-50.5002,-101.5004
14:08:55.892,-51.2502,-103.8754
14:08:55.915,-51.5627,-104.8129
14:08:55.917,-51.8127,-105.6254
14:08:55.946,-49.6252,-103.1879
14:08:55.948,-46.6252,-97.3754
14:08:55.952,-41.1877,-87.6878
14:08:55.953,-33.3751,-76.1253
14:08:55.991,-25.3751,-60.5627
14:08:55.997,-16.2501,-44.5002
14:08:55.997,-6.9375,-28.3751
14:08:56.003,2.8125,-12.9375
14:08:56.008,10.5625,3.4375
14:08:56.022,18.7501,17.8751
14:08:56.026,25.8126,31.0001
14:08:56.059,33.0626,44.7502
14:08:56.061,37.9376,55.7502
14:08:56.064,42.9377,63.7502
14:08:56.069,48.6252,73.1253
14:08:56.080,51.1252,79.7503
14:08:56.086,53.8752,85.8128
14:08:56.097,56.1877,91.1879
14:08:56.107,57.2502,94.5629
14:08:56.117,58.5002,96.7504
14:08:56.125,60.0627,99.5629
14:08:56.137,59.3752,100.6254
14:08:56.145,59.1252,99.6879
14:08:56.157,57.6252,98.0004
14:08:56.166,56.8127,95.7504
14:08:56.177,54.2502,92.6879
14:08:56.185,52.1252,88.6253
14:08:56.197,49.3752,83.5003
14:08:56.205,47.0627,79.0628
14:08:56.217,43.1252,73.5003
14:08:56.226,40.6252,67.7503
14:08:56.239,37.2501,62.5627
14:08:56.245,35.7501,58.8127
14:08:56.257,32.6251,54.8127
14:08:56.265,31.9376,51.0002
14:08:56.277,28.8751,47.1252
14:08:56.287,27.5626,43.6252
14:08:56.297,24.6876,40.0627
14:08:56.307,23.1251,35.9376
14:08:56.316,21.1251,32.3126
14:08:56.327,19.8126,29.1876
14:08:56.336,16.8751,25.5001
14:08:56.347,15.3751,21.5001
14:08:56.356,12.0625,17.4376
14:08:56.367,9.8125,13.2501
14:08:56.377,7,9.625
14:08:56.387,5.0625,5.0625
14:08:56.396,2.625,1.5625
14:08:56.407,1.0625,-2.8125
14:08:56.416,-1.9375,-6
14:08:56.427,-3.5625,-9.9375
14:08:56.436,-5,-14.3126
14:08:56.447,-7.5625,-17.9376
14:08:56.457,-9.5625,-22.7501
14:08:56.466,-11.75,-26.3751
14:08:56.476,-13.125,-30.2501
14:08:56.487,-15.3751,-34.3126
14:08:56.496,-16.6876,-37.8126
14:08:56.507,-19.0626,-41.3127
14:08:56.516,-21.3126,-45.4377
14:08:56.527,-22.7501,-48.5627
14:08:56.536,-24.3751,-52.3752
14:08:56.547,-26.6876,-55.6252
14:08:56.556,-28.3126,-59.1877
14:08:56.567,-29.6876,-62.6877
14:08:56.577,-30.6876,-64.7502
14:08:56.587,-32.6251,-67.6878
14:08:56.597,-33.5001,-70.8753
14:08:56.606,-35.1251,-72.9378
14:08:56.617,-36.1251,-75.3753
14:08:56.627,-36.9376,-78.5003
14:08:56.636,-39.5002,-80.8753
14:08:56.647,-40.3752,-84.4378
14:08:56.656,-41.4377,-86.8128
14:08:56.665,-42.6252,-88.5003
14:08:56.686,-44.2502,-92.0004
14:08:56.688,-44.6252,-93.6254
14:08:56.716,-45.4377,-96.6879
14:08:56.719,-46.1252,-98.0629
14:08:56.721,-46.6252,-98.6879
14:08:56.727,-45.5627,-95.8754
14:08:56.756,-42.6252,-91.7504
14:08:56.759,-37.1876,-82.6253
14:08:56.762,-31.5626,-71.1878
14:08:56.787,-23.7501,-55.9377
14:08:56.789,-14.8751,-40.8752
14:08:56.792,-4.5,-22.8126
14:08:56.797,4.875,-6.0625
14:08:56.824,13.7501,9.5625
14:08:56.827,21.9376,25.7501
14:08:56.829,30.2501,39.3127
14:08:56.836,36.5001,52.4377
14:08:56.858,42.6877,63.3752
14:08:56.860,47.1877,73.1878
14:08:56.867,51.2502,80.8753
14:08:56.877,54.9377,89.6253
14:08:56.887,57.2502,96.0629
14:08:56.897,60.9377,100.3754
14:08:56.907,62.0002,105.3754
14:08:56.917,63.3127,107.6879
14:08:56.946,63.0627,110.5629
14:08:56.947,63.3752,110.8129
14:08:56.951,63.3752,110.9379
14:08:56.956,61.8752,109.6879
14:08:56.965,60.3752,106.9379
14:08:56.976,58.0002,103.5629
14:08:56.990,56.1877,99.6254
14:08:57.005,54.1877,95.0629
14:08:57.008,52.3752,90.5004
14:08:57.023,49.6877,85.3753
14:08:57.027,47.1877,80.3128
14:08:57.036,45.0627,75.0628
14:08:57.048,42.7502,71.1253
14:08:57.056,40.6252,66.0003
14:08:57.067,38.8751,62.1877
14:08:57.077,36.6251,57.6877
14:08:57.088,34.1876,54.0627
14:08:57.095,32.0001,50.4377
14:08:57.112,29.8751,45.6877
14:08:57.126,27.9376,42.5002
14:08:57.142,25.4376,37.8751
14:08:57.144,23.4376,33.4376
14:08:57.147,21.9376,29.5626
14:08:57.157,18.2501,25.3751
14:08:57.167,15.3751,21.1251
14:08:57.177,12.6875,16.5001
14:08:57.186,9.6875,12.25
14:08:57.197,7.4375,7.1875
14:08:57.206,4.25,3.1875
14:08:57.217,2.75,-1.3125
14:08:57.227,0.3125,-5.25
14:08:57.237,-2.25,-10.1875
14:08:57.246,-4.5,-14.3126
14:08:57.257,-7.25,-18.8126
14:08:57.266,-9.4375,-22.9376
14:08:57.276,-11.8125,-27.0626
14:08:57.287,-13.8751,-31.8126
14:08:57.297,-15.2501,-35.8126
14:08:57.307,-17.1251,-38.6876
14:08:57.317,-20.1876,-43.2502
14:08:57.327,-21.3751,-47.0002
14:08:57.335,-24.3751,-50.3752
14:08:57.347,-25.0626,-53.5627
14:08:57.367,-27.6876,-56.3752
14:08:57.369,-28.8751,-59.6877
14:08:57.404,-29.9376,-63.9377
14:08:57.406,-32.1876,-65.4377
14:08:57.410,-33.5626,-69.8128
14:08:57.411,-34.0626,-71.9378
14:08:57.417,-36.4376,-75.3753
14:08:57.449,-37.9376,-78.9378
14:08:57.451,-39.0001,-80.5003
14:08:57.454,-41.1252,-83.0628
14:08:57.460,-42.0627,-86.3753
14:08:57.469,-43.2502,-89.0003
14:08:57.497,-44.8752,-91.7504
14:08:57.500,-45.5002,-93.8129
14:08:57.502,-46.8752,-97.0004
14:08:57.507,-48.3127,-99.3129
14:08:57.536,-49.8752,-102.1879
14:08:57.540,-50.5002,-102.5629
14:08:57.542,-50.3127,-102.4379
14:08:57.549,-47.7502,-99.2504
14:08:57.557,-43.1252,-92.2504
14:08:57.568,-37.1251,-80.4378
14:08:57.577,-27.9376,-66.5628
14:08:57.585,-19.2501,-50.3752
14:08:57.597,-9.0625,-32.7501
14:08:57.605,0.5625,-15.1251
14:08:57.617,10.5625,2.5625
14:08:57.625,19.1251,19.8126
14:08:57.636,27.1251,34.2501
14:08:57.646,34.6876,48.0627
14:08:57.656,41.0627,62.2502
14:08:57.665,46.6252,71.8128
14:08:57.677,52.1252,81.8128
14:08:57.686,56.0627,91.9379
14:08:57.697,59.6252,98.7504
14:08:57.705,62.8127,104.0629
14:08:57.717,65.0002,110.1879
14:08:57.725,66.1253,114.8129
14:08:57.736,67.9378,116.3129
14:08:57.746,70.1253,119.188
14:08:57.756,69.5628,120.7505
14:08:57.765,69.5628,119.813
14:08:57.776,67.8753,117.7504
14:08:57.785,66.4378,114.9379
14:08:57.798,64.1877,111.4379
14:08:57.806,61.1877,106.6879
14:08:57.817,58.9377,101.2504
14:08:57.825,55.6877,96.0004
14:08:57.837,51.7502,90.1878
14:08:57.847,49.8752,85.3128
14:08:57.857,46.0002,79.4378
14:08:57.866,43.4377,74.0003
14:08:57.876,39.9377,69.2503
14:08:57.885,37.5001,64.8752
14:08:57.897,35.1876,60.6252
14:08:57.905,33.6876,56.3127
14:08:57.916,30.5626,52.0627
14:08:57.932,29.1876,47.5627
14:08:57.936,25.6876,43.5627
14:08:57.947,24.0626,39.8127
14:08:57.956,20.3126,34.6876
14:08:57.966,18.8751,29.8751
14:08:57.977,15.3751,26.1876
14:08:57.985,13.0625,22.1876
14:08:57.997,11,17.0626
14:08:58.005,8.6875,13.5001
14:08:58.017,5.8125,8.9375
14:08:58.025,4.0625,4.5625
14:08:58.037,0.4375,-1.125
14:08:58.047,-1.875,-4.875
14:08:58.081,-4.25,-9.875
14:08:58.083,-7.5625,-14.1876
14:08:58.085,-10.25,-19.0626
14:08:58.089,-12.0625,-23.5001
14:08:58.123,-15.2501,-27.8751
14:08:58.124,-17.6876,-32.0001
14:08:58.128,-19.6251,-35.6251
14:08:58.159,-21.8126,-39.8127
14:08:58.162,-23.5626,-44.3127
14:08:58.163,-26.3126,-47.5627
14:08:58.168,-28.0626,-51.5627
14:08:58.181,-29.8126,-54.5002
14:08:58.182,-32.2501,-58.5627
14:08:58.221,-33.6876,-61.6877
14:08:58.226,-35.1251,-65.8753
14:08:58.227,-35.6876,-69.1878
14:08:58.228,-38.3126,-71.1253
14:08:58.236,-39.8127,-75.3128
14:08:58.243,-41.1252,-77.6253
14:08:58.252,-43.7502,-80.5003
14:08:58.261,-47.1252,-85.0003
14:08:58.273,-47.3752,-88.5003
14:08:58.292,-49.3752,-90.0628
14:08:58.299,-50.5627,-93.3129
14:08:58.316,-51.8127,-95.3754
14:08:58.319,-52.3752,-98.6254
14:08:58.322,-53.6877,-99.8754
14:08:58.332,-55.0627,-102.8754
14:08:58.340,-56.1252,-105.1254
14:08:58.352,-57.3752,-107.1254
14:08:58.362,-57.1877,-108.8129
14:08:58.372,-56.0627,-106.5629
14:08:58.382,-53.5002,-103.8129
14:08:58.392,-48.5002,-95.3129
14:08:58.413,-40.6877,-83.1878
14:08:58.414,-32.5001,-68.3128
14:08:58.429,-22.1876,-52.1252
14:08:58.432,-12.8125,-33.5001
14:08:58.441,-3.0625,-16.1251
14:08:58.450,6.625,2.125
14:08:58.462,16.4376,18.3126
14:08:58.470,25.2501,34.1876
14:08:58.482,32.5626,48.3752
14:08:58.492,39.4377,61.3127
14:08:58.502,45.1252,73.6878
14:08:58.512,50.5002,82.1878
14:08:58.522,55.3127,92.1254
14:08:58.532,58.3127,99.5629
14:08:58.542,61.5627,104.6879
14:08:58.552,64.0002,110.4379
14:08:58.561,64.8127,113.0004
14:08:58.572,67.0628,116.3754
14:08:58.582,66.1878,117.5004
14:08:58.592,66.6253,118.5005
14:08:58.600,65.4378,116.5004
14:08:58.612,64.6877,114.8754
14:08:58.621,62.9377,112.3129
14:08:58.632,60.3752,107.9379
14:08:58.640,58.3127,102.0004
14:08:58.652,54.0627,97.9379
14:08:58.661,51.6252,91.5004
14:08:58.672,48.1252,86.1253
14:08:58.680,44.8752,79.8753
14:08:58.690,41.6252,74.5628
14:08:58.703,39.0627,69.4378
14:08:58.712,36.1251,64.6877
14:08:58.722,33.7501,61.2502
14:08:58.730,32.1251,55.8127
14:08:58.742,29.3126,52.8752
14:08:58.753,26.7501,46.7502
14:08:58.762,24.0626,44.1252
14:08:58.772,22.2501,38.6876
14:08:58.782,20.3126,35.7501
14:08:58.792,17.5626,30.1876
14:08:58.802,15.4376,26.1876
14:08:58.812,13,21.9376
14:08:58.846,11,17.8751
14:08:58.846,7.875,12.9375
14:08:58.848,5.6875,7.75
14:08:58.853,3.0625,3.6875
14:08:58.883,-0.125,-0.5
14:08:58.885,-3,-4.8125
14:08:58.887,-5,-10.75
14:08:58.894,-7.0625,-14.5626
14:08:58.920,-9.4375,-19.0001
14:08:58.922,-13,-23.6251
14:08:58.925,-14.8751,-28.9376
14:08:58.962,-17.6251,-32.4376
14:08:58.963,-19.3751,-37.6876
14:08:58.966,-22.6251,-40.6252
14:08:58.972,-24.2501,-47.0002
14:08:58.972,-26.6251,-49.3752
14:08:59.004,-27.8751,-54.6877
14:08:59.007,-30.1251,-57.3127
14:08:59.008,-31.6251,-60.8752
14:08:59.014,-33.9376,-65.9378
14:08:59.024,-34.8751,-68.3128
14:08:59.033,-37.5626,-70.7503
14:08:59.042,-39.5002,-75.7503
14:08:59.053,-41.1252,-78.5003
14:08:59.064,-42.4377,-81.5628
14:08:59.073,-44.9377,-84.3753
14:08:59.081,-45.5002,-87.6878
14:08:59.092,-47.3752,-89.8753
14:08:59.102,-48.5627,-92.6879
14:08:59.112,-50.3127,-95.3129
14:08:59.120,-51.9377,-97.8129
14:08:59.132,-52.6877,-100.6254
14:08:59.142,-53.7502,-102.8754
14:08:59.152,-54.6877,-105.5629
14:08:59.162,-56.1252,-107.3754
14:08:59.172,-57.2502,-110.1254
14:08:59.180,-58.5002,-112.0629
14:08:59.193,-59.8127,-115.1254
14:08:59.202,-60.5627,-116.8754
14:08:59.212,-61.0627,-118.3755
14:08:59.222,-60.5627,-119.2505
14:08:59.232,-59.1877,-117.8755
14:08:59.242,-55.2502,-112.3129
14:08:59.252,-50.0627,-101.5629
14:08:59.262,-41.7502,-90.0003
14:08:59.272,-32.3751,-73.4378
14:08:59.282,-22.4376,-55.8127
14:08:59.293,-11.6875,-37.9376
14:08:59.302,0.4375,-19.3751
14:08:59.312,9.375,-0.25
14:08:59.322,18.9376,15.1876
14:08:59.332,27.7501,30.6876
14:08:59.342,34.5001,44.8127
14:08:59.352,40.7502,55.5002
14:08:59.360,46.8752,67.1253
14:08:59.370,51.4377,77.5628
14:08:59.382,55.3752,84.7503
14:08:59.392,58.8752,90.4378
14:08:59.402,61.0002,96.3754
14:08:59.412,62.5627,99.0004
14:08:59.422,64.0002,102.0004
14:08:59.432,63.6252,104.7504
14:08:59.442,64.3127,103.1879
14:08:59.453,64.0002,103.5629
14:08:59.461,62.1252,101.5629
14:08:59.472,60.4377,97.8129
14:08:59.501,57.7502,94.5004
14:08:59.504,55.0627,89.0628
14:08:59.505,51.9377,84.8128
14:08:59.513,48.4377,78.5628
14:08:59.540,45.6252,73.3753
14:08:59.543,42.8127,69.0003
14:08:59.545,39.6877,63.9377
14:08:59.579,36.8126,58.9377
14:08:59.579,34.6251,53.8752
14:08:59.581,31.6876,50.8127
14:08:59.618,29.9376,46.0002
14:08:59.618,27.4376,42.4377
14:08:59.618,25.8751,39.1251
14:08:59.653,23.5626,34.0626
14:08:59.654,21.6876,30.1251
14:08:59.657,19.5626,26.7501
14:08:59.660,16.7501,22.9376
14:08:59.688,15.6251,19.6251
14:08:59.691,13.5001,14.8751
14:08:59.693,10.3125,11.6875
14:08:59.708,8.0625,6
14:08:59.724,5.1875,2.1875
14:08:59.726,3.375,-2.3125
14:08:59.729,0.875,-6.375
14:08:59.737,-1.25,-10.5625
14:08:59.747,-3.625,-16.4376
14:08:59.757,-6.1875,-20.3126
14:08:59.767,-8.625,-24.1876
14:08:59.777,-11.4375,-29.4376
14:08:59.787,-17.0001,-40.7502
14:08:59.797,-20.0001,-44.3127
14:08:59.807,-22.2501,-48.9377
14:08:59.815,-23.8126,-52.4377
14:08:59.826,-25.6876,-56.6877
14:08:59.837,-27.8751,-60.0627
14:08:59.847,-28.8751,-63.0627
14:08:59.858,-30.7501,-67.3753
14:08:59.867,-33.3751,-70.6878
14:08:59.877,-34.6251,-74.6878
14:08:59.886,-37.0001,-76.7503
14:08:59.897,-38.3751,-81.3753
14:08:59.907,-39.6252,-83.9378
14:08:59.917,-41.2502,-86.9378
14:08:59.927,-43.3752,-90.5004
14:08:59.937,-44.9377,-92.8129
14:08:59.948,-46.8127,-95.8754
14:08:59.957,-47.4377,-98.8754
14:08:59.968,-49.3752,-101.6879
14:08:59.977,-50.4377,-104.3754
14:08:59.986,-52.8752,-106.5004
14:08:59.997,-53.4377,-109.0629
14:09:00.006,-55.4377,-111.5004
14:09:00.017,-55.8127,-113.6254
14:09:00.027,-57.2502,-116.6879
14:09:00.037,-57.8127,-118.3755
14:09:00.047,-59.3127,-120.6255
14:09:00.057,-59.3752,-121.8755
14:09:00.067,-59.4377,-122.188
14:09:00.077,-56.0002,-119.8755
14:09:00.087,-52.0627,-113.6254
14:09:00.097,-46.9377,-103.1254
14:09:00.107,-38.7501,-89.0628
14:09:00.117,-29.6876,-71.7503
14:09:00.126,-19.6876,-54.5002
14:09:00.137,-8.8125,-35.1876
14:09:00.148,1.5,-15.9376
14:09:00.157,11.5625,1.4375
14:09:00.167,21.0626,17.8126
14:09:00.177,28.3751,33.1251
14:09:00.189,35.2501,45.1877
14:09:00.197,41.8752,57.4377
14:09:00.207,46.3752,68.1878
14:09:00.217,50.7502,75.3753
14:09:00.227,54.1252,83.0628
14:09:00.237,56.6252,88.0003
14:09:00.247,58.8752,92.6254
14:09:00.281,59.8752,95.5004
14:09:00.282,60.7502,97.0004
14:09:00.286,61.6252,98.6879
14:09:00.288,60.2502,98.6254
14:09:00.317,60.0002,96.1254
14:09:00.319,57.3752,94.6254
14:09:00.323,55.3752,89.8128
14:09:00.327,51.6252,86.0003
14:09:00.356,49.2502,80.1878
14:09:00.358,45.5002,75.9378
14:09:00.361,43.0002,69.5628
14:09:00.368,39.1251,64.5627
14:09:00.382,36.5626,59.3752
14:09:00.387,33.0001,55.6252
14:09:00.429,31.3751,50.2502
14:09:00.435,28.3126,47.2502
14:09:00.435,26.9376,42.1877
14:09:00.439,23.7501,38.8751
14:09:00.441,22.5001,35.8126
14:09:00.447,20.7501,31.6876
14:09:00.457,18.5001,28.0001
14:09:00.465,16.3751,23.8126
14:09:00.477,14.5001,20.3751
14:09:00.485,12.6875,16.9376
14:09:00.497,10.375,13.2501
14:09:00.507,8.6875,9.125
14:09:00.517,6.125,5.375
14:09:00.527,4.5625,1.6875
14:09:00.537,1.4375,-2.875
14:09:00.546,-1.25,-7.125
14:09:00.557,-2.9375,-11.9375
14:09:00.571,-6.3125,-15.3126
14:09:00.577,-8.625,-20.5001
14:09:00.588,-11.3125,-25.5626
14:09:00.597,-14.0001,-29.1251
14:09:00.607,-16.8751,-33.7501
14:09:00.617,-18.7501,-37.5626
14:09:00.627,-20.5626,-41.3127
14:09:00.636,-22.7501,-46.5002
14:09:00.646,-24.8751,-49.4377
14:09:00.657,-27.0626,-53.6877
14:09:00.667,-29.0001,-57.8127
14:09:00.677,-31.1251,-61.1877
14:09:00.687,-33.1876,-65.4378
14:09:00.696,-34.4376,-68.0003
14:09:00.707,-36.5626,-72.4378
14:09:00.717,-38.1251,-75.5003
14:09:00.727,-39.8752,-78.1253
14:09:00.737,-41.4377,-81.5628
14:09:00.746,-43.9377,-84.0003
14:09:00.757,-45.1877,-87.6878
14:09:00.782,-46.8752,-90.0628
14:09:00.784,-48.6877,-93.1254
14:09:00.787,-50.4377,-96.1879
14:09:00.797,-51.2502,-98.1254
14:09:00.807,-53.5627,-100.3754
14:09:00.817,-54.8752,-102.7504
14:09:00.827,-56.5002,-105.5629
14:09:00.837,-57.2502,-107.6879
14:09:00.847,-59.0002,-109.8754
14:09:00.857,-60.1877,-112.8754
14:09:00.866,-61.6877,-115.0004
14:09:00.876,-63.5627,-117.1254
14:09:00.891,-64.0627,-119.188
14:09:00.906,-63.7502,-118.6255
14:09:00.910,-62.3127,-116.3129
14:09:00.917,-58.4377,-112.6879
14:09:00.927,-51.8127,-103.1879
14:09:00.937,-44.9377,-89.8128
14:09:00.947,-35.2501,-73.8753
14:09:00.957,-25.6251,-55.4377
14:09:00.966,-15.3751,-37.8126
14:09:00.977,-3.9375,-17.7501
14:09:00.987,5.8125,1.5
14:09:01.004,16.2501,18.3126
14:09:01.047,25.1876,34.9376
14:09:01.050,33.2501,48.7502
14:09:01.052,41.4377,62.5002
14:09:01.085,46.0002,73.5003
14:09:01.086,52.0627,83.0003
14:09:01.086,55.9377,91.5004
14:09:01.087,60.0002,98.5004
14:09:01.090,62.8752,104.8129
14:09:01.095,65.8128,107.4379
14:09:01.100,67.3753,111.2504
14:09:01.127,67.9378,114.3754
14:09:01.130,68.5003,113.9379
14:09:01.132,67.3128,114.1879
14:09:01.138,65.8128,111.9379
14:09:01.171,64.5627,109.1254
14:09:01.173,61.6877,105.8754
14:09:01.176,58.8752,100.9379
14:09:01.178,55.9377,95.1254
14:09:01.189,52.6252,89.2503
14:09:01.197,49.7502,83.8753
14:09:01.207,46.8752,79.0003
14:09:01.217,42.6877,72.2503
14:09:01.227,40.1252,66.7503
14:09:01.237,37.1251,63.7502
14:09:01.247,35.2501,58.1252
14:09:01.257,31.8751,54.3752
14:09:01.267,29.1876,49.3127
14:09:01.277,26.8751,45.8127
14:09:01.287,23.7501,41.1252
14:09:01.297,21.8751,37.9376
14:09:01.307,19.2501,32.6876
14:09:01.320,16.6251,29.8751
14:09:01.327,14.7501,25.3126
14:09:01.337,12.5,21.3751
14:09:01.347,10.875,17.3126
14:09:01.356,8.375,13.1876
14:09:01.367,6.375,9.1875
14:09:01.377,2.875,4.25
14:09:01.387,1.3125,-0.25
14:09:01.397,-2.75,-4.4375
14:09:01.408,-4.3125,-9.8125
14:09:01.417,-8.3125,-14.3751
14:09:01.427,-10,-18.3751
14:09:01.437,-13.4376,-22.5626
14:09:01.447,-15.0001,-27.3126
14:09:01.457,-18.4376,-30.8126
14:09:01.467,-19.5626,-35.2501
14:09:01.478,-22.1251,-38.8751
14:09:01.487,-23.6251,-42.9377
14:09:01.497,-25.8751,-45.7502
14:09:01.507,-27.3126,-50.5002
14:09:01.517,-29.4376,-55.2502
14:09:01.527,-31.4376,-56.8752
14:09:01.537,-32.8126,-61.3127
14:09:01.547,-34.8751,-65.1252
14:09:01.556,-36.8126,-67.7503
14:09:01.567,-39.0001,-71.5003
14:09:01.577,-40.1252,-74.9378
14:09:01.587,-42.3752,-78.1253
14:09:01.597,-44.1877,-81.5003
14:09:01.607,-45.0627,-84.2503
14:09:01.617,-47.6877,-87.0003
14:09:01.627,-48.5002,-89.8753
14:09:01.637,-49.9377,-92.1879
14:09:01.647,-51.1252,-95.7504
14:09:01.656,-52.3752,-96.8754
14:09:01.667,-53.5002,-100.4379
14:09:01.677,-55.0002,-102.1879
14:09:01.686,-55.7502,-105.9379
14:09:01.697,-57.0002,-107.2504
14:09:01.733,-58.3127,-111.1254
14:09:01.734,-59.0627,-112.4379
14:09:01.738,-60.4377,-113.1879
14:09:01.739,-60.1252,-114.3129
14:09:01.772,-57.1877,-110.6254
14:09:01.776,-53.5002,-103.4379
14:09:01.776,-45.0002,-91.8754
14:09:01.778,-36.7501,-76.1878
14:09:01.786,-25.6251,-58.7502
14:09:01.830,-15.4376,-39.8127
14:09:01.831,-5.1875,-21.6251
14:09:01.834,5.4375,-1.8125
14:09:01.836,15.3751,14.8126
14:09:01.839,24.7501,31.7501
14:09:01.872,31.7501,47.5627
14:09:01.877,39.1877,59.9377
14:09:01.878,47.1877,71.3128
14:09:01.885,52.7502,82.2503
14:09:01.889,57.6252,90.8753
14:09:01.897,61.0002,98.1254
14:09:01.906,63.8127,103.2504
14:09:01.917,66.3753,108.5004
14:09:01.927,67.2503,112.6254
14:09:01.937,68.2503,113.2504
14:09:01.947,69.3128,115.0629
14:09:01.957,69.2503,115.0629
14:09:01.966,69.1253,113.6879
14:09:01.977,67.8753,112.1254
14:09:01.989,65.6878,107.5629
14:09:01.997,62.6877,104.0004
14:09:02.007,60.1877,97.1254
14:09:02.018,56.6877,93.1254
14:09:02.027,53.1252,85.8128
14:09:02.036,49.5627,81.2503
14:09:02.065,47.1252,75.9378
14:09:02.069,43.7502,70.2503
14:09:02.069,40.9377,65.2502
14:09:02.083,37.6251,60.7502
14:09:02.087,35.7501,55.8127
14:09:02.097,32.5001,52.1252
14:09:02.107,30.3751,47.6252
14:09:02.141,27.3751,43.1877
14:09:02.145,25.5001,39.1251
14:09:02.147,22.0626,35.8126
14:09:02.152,20.5001,30.8751
14:09:02.165,18.2501,27.6251
14:09:02.174,16.4376,23.5001
14:09:02.190,14.1876,19.1876
14:09:02.196,11.75,15.0626
14:09:02.212,9.75,9.875
14:09:02.214,6.875,6.375
14:09:02.223,4.8125,1.5
14:09:02.232,1.6875,-2.8125
14:09:02.242,-1.0625,-7.875
14:09:02.252,-3.4375,-13.0625
14:09:02.262,-5.875,-17.1876
14:09:02.271,-8.9375,-22.5001
14:09:02.282,-13.1876,-29.1251
14:09:02.300,-15.0001,-33.4376
14:09:02.303,-17.1876,-37.3751
14:09:02.318,-18.6251,-41.2502
14:09:02.322,-20.2501,-45.4377
14:09:02.332,-23.2501,-50.0002
14:09:02.343,-25.7501,-52.5627
14:09:02.352,-27.6876,-57.5002
14:09:02.361,-29.5626,-61.8127
14:09:02.372,-32.4376,-66.3128
14:09:02.382,-34.5001,-68.2503
14:09:02.392,-35.3751,-72.3128
14:09:02.402,-38.0001,-76.5003
14:09:02.412,-39.1251,-79.3753
14:09:02.422,-41.1252,-82.7503
14:09:02.433,-42.3752,-85.4378
14:09:02.465,-44.2502,-88.7503
14:09:02.467,-45.4377,-90.5629
14:09:02.471,-45.7502,-93.6879
14:09:02.472,-48.3752,-96.3754
14:09:02.506,-50.1877,-99.6879
14:09:02.508,-50.6252,-101.8129
14:09:02.510,-53.0002,-104.3754
14:09:02.519,-53.6252,-107.0004
14:09:02.522,-55.3752,-108.6879
14:09:02.555,-56.3127,-112.2504
14:09:02.557,-56.8127,-113.9379
14:09:02.560,-58.5627,-114.9379
14:09:02.562,-59.0627,-118.5005
14:09:02.596,-58.3127,-117.8755
14:09:02.597,-57.9377,-116.3754
14:09:02.599,-53.8127,-111.9379
14:09:02.606,-49.5627,-102.4379
14:09:02.619,-40.1252,-88.0628
14:09:02.623,-30.8751,-70.2503
14:09:02.637,-19.2501,-51.5627
14:09:02.642,-8.75,-31.1251
14:09:02.652,1.3125,-13.5001
14:09:02.662,11.625,5.4375
14:09:02.672,20.1876,22.3751
14:09:02.682,29.3751,38.2501
14:09:02.692,37.0626,52.6252
14:09:02.702,43.0627,65.1252
14:09:02.712,48.9377,74.7503
14:09:02.723,54.2502,84.1878
14:09:02.732,56.5627,92.0004
14:09:02.742,59.6877,96.5629
14:09:02.752,61.4377,101.5004
14:09:02.762,62.0002,103.8754
14:09:02.772,61.8752,105.5629
14:09:02.782,59.7502,107.0629
14:09:02.792,56.6252,105.3754
14:09:02.801,52.6877,102.6879
14:09:02.812,49.1877,100.5629
14:09:02.824,44.5627,97.6254
14:09:02.833,38.4376,93.6254
14:09:02.842,34.0001,88.4378
14:09:02.852,29.9376,85.6253
14:09:02.861,28.4376,82.8753
14:09:02.872,25.2501,79.6253
14:09:02.882,21.3126,76.1878
14:09:02.892,17.3751,73.0628
14:09:02.902,14.8751,71.5628
14:09:02.912,15.8751,71.1878
14:09:02.921,14.9376,70.8128
14:09:02.932,16.0626,69.6253
14:09:02.942,14.3126,68.6253
14:09:02.951,15.0001,67.0628
14:09:02.961,14.1876,64.9377
14:09:02.972,13.2501,62.3752
14:09:02.982,11.3125,59.1252
14:09:02.992,9.5,55.3752
14:09:03.001,7.625,51.3127
14:09:03.012,5.6875,47.0627
14:09:03.022,3.75,42.6252
14:09:03.032,1,38.3126
14:09:03.042,-0.9375,33.0626
14:09:03.051,-3.8125,28.7501
14:09:03.061,-6.8125,24.3126
14:09:03.073,-8.75,19.2501
14:09:03.082,-10.625,15.5626
14:09:03.092,-13,10.9375
14:09:03.102,-14.9376,5.5
14:09:03.112,-17.2501,1.1875
14:09:03.122,-18.9376,-2.4375
14:09:03.131,-20.7501,-7.8125
14:09:03.142,-24.4376,-13.8751
14:09:03.152,-26.8126,-17.5001
14:09:03.162,-28.3751,-22.6251
14:09:03.179,-31.8751,-27.6251
14:09:03.181,-35.0001,-32.1876
14:09:03.216,-37.5001,-38.4376
14:09:03.217,-40.6877,-42.7502
14:09:03.221,-42.4377,-48.0002
14:09:03.221,-44.8752,-53.9377
14:09:03.261,-46.7502,-57.6252
14:09:03.266,-48.1877,-62.4377
14:09:03.268,-50.1877,-67.0003
14:09:03.298,-51.2502,-70.5003
14:09:03.299,-52.1877,-74.2503
14:09:03.300,-52.7502,-78.2503
14:09:03.302,-53.5627,-81.0003
14:09:03.307,-54.5002,-85.3128
14:09:03.341,-55.8127,-88.5628
14:09:03.344,-56.5627,-92.0004
14:09:03.346,-58.0627,-96.6254
14:09:03.348,-59.6877,-99.8129
14:09:03.352,-62.0002,-103.5004
14:09:03.362,-63.1252,-108.4379
14:09:03.372,-66.5628,-111.8754
14:09:03.386,-69.3128,-117.0629
14:09:03.392,-71.1253,-120.313
14:09:03.403,-72.8753,-122.313
14:09:03.413,-71.9378,-120.813
14:09:03.422,-69.0628,-115.0629
14:09:03.432,-63.8127,-106.4379
14:09:03.442,-55.8127,-92.3129
14:09:03.452,-47.4377,-75.8128
14:09:03.463,-36.8126,-59.0002
14:09:03.472,-28.3126,-40.4377
14:09:03.492,-18.5001,-24.3126
14:09:03.498,-9.9375,-6.8125
14:09:03.513,-1.1875,8.1875
14:09:03.515,7.625,23.3751
14:09:03.522,14.3751,36.8751
14:09:03.532,21.3126,48.8752
14:09:03.542,28.2501,61.0002
14:09:03.552,34.0626,70.3128
14:09:03.562,38.9376,79.4378
14:09:03.572,42.7502,86.3128
14:09:03.581,45.2502,92.3129
14:09:03.598,48.4377,96.5004
14:09:03.613,48.3752,99.0004
14:09:03.615,49.3752,99.5629
14:09:03.622,47.0002,99.5004
14:09:03.632,44.9377,96.0629
14:09:03.642,43.5627,93.6879
14:09:03.652,40.7502,91.1254
14:09:03.662,38.8751,86.6878
14:09:03.672,36.2501,82.8128
14:09:03.681,34.1876,78.8753
14:09:03.692,32.0001,75.5628
14:09:03.702,28.4376,70.3753
14:09:03.713,27.8126,67.3753
14:09:03.722,25.3126,64.8127
14:09:03.732,22.9376,62.4377
14:09:03.742,22.9376,59.5002
14:09:03.752,22.2501,58.0002
14:09:03.762,22.3126,56.8127
14:09:03.772,22.2501,53.8752
14:09:03.782,21.0001,51.5627
14:09:03.792,21.7501,49.1877
14:09:03.802,19.8126,46.9377
14:09:03.812,19.2501,43.3752
14:09:03.822,16.8751,39.1876
14:09:03.832,14.4376,35.1876
14:09:03.841,12.625,31.3126
14:09:03.852,10.3125,27.0001
14:09:03.863,8.1875,22.3126
14:09:03.872,5.5,18.8126
14:09:03.882,3.6875,15.1876
14:09:03.892,2.0625,10.5
14:09:03.902,0.125,6.5625
14:09:03.912,-1.5625,3.8125
14:09:03.922,-2.6875,-1.5625
14:09:03.932,-6.1875,-6.4375
14:09:03.942,-9.125,-11.3125
14:09:03.953,-12.4375,-16.4376
14:09:03.962,-16.3751,-22.7501
14:09:03.972,-20.8126,-27.0001
14:09:04.003,-23.7501,-32.6876
14:09:04.005,-26.4376,-38.4376
14:09:04.007,-29.3751,-44.2502
14:09:04.013,-33.1876,-48.8127
14:09:04.045,-36.1876,-53.6252
14:09:04.048,-38.3751,-59.3127
14:09:04.051,-40.7502,-64.9377
14:09:04.053,-42.1252,-69.2503
14:09:04.084,-42.1252,-71.8753
14:09:04.086,-42.1252,-74.5628
14:09:04.088,-42.6877,-78.7503
14:09:04.115,-42.6877,-81.0628
14:09:04.116,-44.0002,-85.1253
14:09:04.119,-43.0002,-87.3753
14:09:04.125,-42.6252,-89.8128
14:09:04.134,-41.5002,-91.9379
14:09:04.162,-40.8752,-94.7504
14:09:04.165,-43.3752,-97.5629
14:09:04.167,-46.1877,-104.1254
14:09:04.173,-50.8127,-108.0004
14:09:04.182,-55.0627,-113.6879
14:09:04.192,-58.9377,-120.438
14:09:04.203,-65.5002,-126.1255
14:09:04.212,-69.0628,-131.063
14:09:04.222,-72.8128,-133.5005
14:09:04.232,-72.6253,-133.438
14:09:04.242,-71.1878,-127.563
14:09:04.254,-65.8128,-117.8129
14:09:04.261,-58.5002,-103.8754
14:09:04.272,-50.0627,-88.4378
14:09:04.282,-39.9377,-68.5003
14:09:04.292,-29.4376,-49.0002
14:09:04.303,-18.1251,-30.1251
14:09:04.311,-8.5,-10.875
14:09:04.322,1.125,5.125
14:09:04.332,10.0625,22.1876
14:09:04.342,17.1251,37.2501
14:09:04.356,24.8126,51.3127
14:09:04.362,31.8126,64.8127
14:09:04.372,37.1876,74.4378
14:09:04.382,42.9377,85.4378
14:09:04.392,46.5002,94.0629
14:09:04.402,50.1877,100.9379
14:09:04.412,51.9377,107.1879
14:09:04.422,54.6877,110.9379
14:09:04.432,55.9377,115.2504
14:09:04.442,56.5002,116.8129
14:09:04.452,56.6877,117.188
14:09:04.463,54.5627,116.0004
14:09:04.471,53.1252,113.4379
14:09:04.483,51.8752,111.3754
14:09:04.494,50.8752,108.3754
14:09:04.502,46.8127,104.9379
14:09:04.512,43.3127,98.5629
14:09:04.522,40.3127,94.5004
14:09:04.532,37.6251,90.1253
14:09:04.543,35.3751,86.1878
14:09:04.552,32.7501,82.4378
14:09:04.562,30.3751,79.8128
14:09:04.572,28.8751,76.6878
14:09:04.582,28.1876,72.8753
14:09:04.592,26.0626,69.8753
14:09:04.623,24.8126,67.1253
14:09:04.626,24.3751,63.1877
14:09:04.627,23.0001,60.9377
14:09:04.661,22.3751,57.5002
14:09:04.665,21.2501,54.1252
14:09:04.667,19.2501,49.7502
14:09:04.672,17.5001,45.9377
14:09:04.673,15.8126,42.3127
14:09:04.704,13.1876,39.0001
14:09:04.707,10.875,34.6876
14:09:04.708,7.875,29.8126
14:09:04.713,5.0625,26.0001
14:09:04.745,3.0625,20.6876
14:09:04.747,-0.125,16.1876
14:09:04.750,-2.3125,11.5
14:09:04.752,-5.0625,6
14:09:04.790,-7.0625,1.4375
14:09:04.791,-10.875,-4.125
14:09:04.814,-14.3126,-9.3125
14:09:04.830,-17.1251,-14.5626
14:09:04.830,-20.1876,-19.5001
14:09:04.830,-23.5001,-24.9376
14:09:04.845,-26.0001,-30.4376
14:09:04.861,-27.5626,-35.6876
14:09:04.863,-30.0626,-40.6877
14:09:04.864,-31.5626,-44.8127
14:09:04.867,-33.5001,-49.3752
14:09:04.878,-34.3751,-53.1252
14:09:04.894,-33.7501,-56.5002
14:09:04.915,-33.7501,-59.8127
14:09:04.917,-33.4376,-62.0002
14:09:04.919,-34.1876,-66.0628
14:09:04.936,-33.6251,-68.0628
14:09:04.953,-31.4376,-70.5003
14:09:04.953,-29.2501,-71.6253
14:09:04.959,-27.6251,-73.5003
14:09:04.969,-28.8126,-76.3753
14:09:04.978,-30.8751,-80.6253
14:09:04.987,-35.6251,-88.9378
14:09:04.997,-39.8127,-93.0629
14:09:05.007,-44.0627,-99.5629
14:09:05.017,-49.3752,-104.9379
14:09:05.027,-54.0627,-112.0004
14:09:05.038,-58.2502,-115.5629
14:09:05.047,-61.1252,-117.0629
14:09:05.057,-61.1252,-113.8754
14:09:05.067,-57.5627,-106.0629
14:09:05.077,-52.2502,-92.7504
14:09:05.088,-44.2502,-78.2503
14:09:05.097,-36.1251,-60.6252
14:09:05.107,-26.8751,-42.8752
14:09:05.118,-17.8126,-24.2501
14:09:05.127,-8.9375,-7.9375
14:09:05.137,-0.125,8
14:09:05.147,7.8125,24.0001
14:09:05.157,15.0001,36.9376
14:09:05.167,21.0626,49.1877
14:09:05.178,26.8751,59.8127
14:09:05.187,31.8126,69.9378
14:09:05.197,35.5626,77.0628
14:09:05.208,38.4376,84.0003
14:09:05.217,40.3127,88.8753
14:09:05.227,42.3752,93.3754
14:09:05.237,42.9377,97.0004
14:09:05.247,43.7502,98.4379
14:09:05.257,42.8752,100.3129
14:09:05.267,42.6252,98.5004
14:09:05.278,41.8752,98.4379
14:09:05.290,40.8752,95.7504
14:09:05.299,38.7501,93.9379
14:09:05.307,37.3126,89.3128
14:09:05.317,33.1876,85.3128
14:09:05.327,31.1876,81.8128
14:09:05.337,28.8751,77.6878
14:09:05.347,26.7501,74.4378
14:09:05.357,25.1251,70.8128
14:09:05.367,23.0001,68.1878
14:09:05.400,20.3126,65.4377
14:09:05.401,18.2501,61.1252
14:09:05.404,16.7501,57.8752
14:09:05.408,14.7501,55.3127
14:09:05.434,14.0001,52.6252
14:09:05.436,12.4375,50.0002
14:09:05.438,11.25,47.1252
14:09:05.475,9.6875,43.4377
14:09:05.477,7.5625,40.3752
14:09:05.480,6.1875,37.5626
14:09:05.482,4.5625,33.3751
14:09:05.513,3.5625,30.0001
14:09:05.517,2,26.9376
14:09:05.518,-0.6875,22.1876
14:09:05.525,-3.6875,18.2501
14:09:05.555,-5.0625,14.8126
14:09:05.557,-6.6875,10.1875
14:09:05.558,-8.4375,7.6875
14:09:05.566,-10.125,2.875
14:09:05.573,-12.5,-0.625
14:09:05.581,-13.0625,-4.125
14:09:05.592,-14.5626,-7.0625
14:09:05.602,-15.6876,-10.75
14:09:05.612,-18.3126,-15.7501
14:09:05.622,-20.1876,-20.5626
14:09:05.632,-23.3126,-25.1251
14:09:05.644,-25.5626,-29.0001
14:09:05.654,-29.6251,-36.5001
14:09:05.670,-31.6251,-40.8127
14:09:05.672,-34.0001,-45.4377
14:09:05.682,-37.1876,-49.0627
14:09:05.692,-38.9376,-54.5627
14:09:05.702,-41.5627,-57.6877
14:09:05.712,-42.8752,-62.8752
14:09:05.722,-44.0002,-67.4378
14:09:05.732,-44.1877,-70.0628
14:09:05.742,-43.7502,-72.0628
14:09:05.752,-43.2502,-75.7503
14:09:05.761,-42.9377,-76.5003
14:09:05.772,-41.6252,-80.2503
14:09:05.783,-40.3752,-80.3128
14:09:05.792,-37.2501,-82.8128
14:09:05.802,-35.1876,-82.0003
14:09:05.812,-33.0001,-84.6878
14:09:05.822,-32.5001,-83.6253
14:09:05.832,-31.3126,-84.8753
14:09:05.845,-29.9376,-81.3128
14:09:05.853,-27.4376,-74.4378
14:09:05.862,-22.1876,-65.5003
14:09:05.872,-17.5001,-53.0627
14:09:05.900,-12.4375,-41.0627
14:09:05.904,-7.0625,-27.3751
14:09:05.906,-2.1875,-15.5001
14:09:05.914,2.9375,-1.1875
14:09:05.924,7.3125,12.25
14:09:05.934,12.3125,23.0001
14:09:05.942,16.1876,35.0626
14:09:05.952,20.5626,44.1252
14:09:05.962,24.1876,54.1877
14:09:05.972,28.3126,61.8127
14:09:05.982,32.5626,69.4378
14:09:05.992,34.0001,75.4378
14:09:06.002,36.5001,79.8128
14:09:06.011,38.3751,84.5628
14:09:06.024,39.0001,88.6253
14:09:06.032,40.0002,89.4378
14:09:06.045,39.1252,91.2504
14:09:06.052,39.0626,89.5628
14:09:06.064,37.0626,89.5628
14:09:06.072,36.0626,86.1878
14:09:06.082,33.5626,83.6253
14:09:06.092,32.3126,79.1253
14:09:06.102,29.0626,75.2503
14:09:06.112,27.3126,71.9378
14:09:06.157,24.9376,66.9378
14:09:06.157,23.3126,63.1252
14:09:06.203,21.5626,59.4377
14:09:06.205,19.5001,55.6877
14:09:06.233,18.3126,52.3127
14:09:06.267,15.5626,49.3127
14:09:06.267,14.0626,46.2502
14:09:06.267,12.9375,42.3127
14:09:06.268,10.875,40.5002
14:09:06.305,10.5,37.8126
14:09:06.318,8.9375,34.3126
14:09:06.320,8.0625,32.6876
14:09:06.320,6.9375,28.5001
14:09:06.324,5.625,25.4376
14:09:06.324,4.75,22.2501
14:09:06.333,2.875,19.0001
14:09:06.342,2.0625,15.1251
14:09:06.352,-0.5,10.25
14:09:06.361,-3.1875,6
14:09:06.372,-4,1.5625
14:09:06.382,-7.0625,-2.125
14:09:06.392,-9,-6.4375
14:09:06.401,-10.875,-9.5625
14:09:06.411,-13.0625,-13.2501
14:09:06.423,-23.5626,-31.5626
14:09:06.432,-25.2501,-34.9376
14:09:06.442,-26.7501,-38.2501
14:09:06.452,-28.7501,-41.2502
14:09:06.461,-30.5001,-44.5627
14:09:06.473,-35.7501,-56.2502
14:09:06.483,-37.8126,-58.8127
14:09:06.492,-39.3752,-62.4377
14:09:06.502,-42.0002,-66.8753
14:09:06.514,-44.7502,-70.0628
14:09:06.523,-47.0002,-74.0628
14:09:06.532,-48.6877,-78.3128
14:09:06.542,-51.6252,-81.7503
14:09:06.552,-53.1252,-84.7503
14:09:06.561,-54.6252,-89.6253
14:09:06.572,-56.8127,-91.6879
14:09:06.584,-57.8127,-96.1254
14:09:06.592,-58.2502,-99.6254
14:09:06.602,-59.0002,-102.5004
14:09:06.615,-57.9377,-101.7504
14:09:06.623,-54.5627,-99.0004
14:09:06.634,-49.5002,-91.8129
14:09:06.642,-43.5627,-81.0003
14:09:06.652,-34.3126,-68.6253
14:09:06.662,-24.3751,-51.8752
14:09:06.672,-13.8751,-34.7501
14:09:06.682,-2.875,-16.4376
14:09:06.692,6,-0.6875
14:09:06.704,14.3751,14.4376
14:09:06.714,21.5001,29.0001
14:09:06.722,26.0001,39.7502
14:09:06.732,29.5626,50.0002
14:09:06.741,32.5001,57.6252
14:09:06.752,34.5001,65.5003
14:09:06.762,35.8751,70.3753
14:09:06.772,37.1876,76.5628
14:09:06.782,38.0001,80.0003
14:09:06.792,39.1877,85.1253
14:09:06.802,39.6252,86.9378
14:09:06.811,39.6252,89.6878
14:09:06.822,39.4377,89.3753
14:09:06.857,39.6252,90.6253
14:09:06.860,38.0626,91.0629
14:09:06.862,36.6876,87.8753
14:09:06.864,34.7501,86.5003
14:09:06.900,32.8751,82.3128
14:09:06.902,30.6876,78.7503
14:09:06.904,28.9376,74.3753
14:09:06.908,26.3126,70.7503
14:09:06.914,23.5001,67.0628
14:09:06.948,21.1876,62.8752
14:09:06.950,19.6251,58.6877
14:09:06.952,17.3126,56.1252
14:09:06.956,16.3751,52.6877
14:09:06.994,15.6876,49.5627
14:09:06.996,15.0001,46.8127
14:09:06.998,15.3751,44.8127
14:09:07.001,16.8751,43.6877
14:09:07.005,18.3751,42.8127
14:09:07.014,17.9376,40.1252
14:09:07.024,17.8751,37.6251
14:09:07.034,17.1876,33.3126
14:09:07.044,14.8751,29.2501
14:09:07.052,13.3126,25.3126
14:09:07.064,11.1875,20.5626
14:09:07.072,8.1875,15.2501
14:09:07.082,5.6875,10.125
14:09:07.091,1.8125,5.0625
14:09:07.102,-1.875,-0.5625
14:09:07.114,-4.875,-5.375
14:09:07.122,-8.25,-10.5625
14:09:07.132,-10.75,-14.7501
14:09:07.142,-13.3126,-18.6876
14:09:07.152,-15.5626,-22.0626
14:09:07.181,-17.3126,-26.2501
14:09:07.185,-19.6876,-28.3751
14:09:07.187,-21.0626,-31.4376
14:09:07.197,-21.8126,-35.3751
14:09:07.204,-24.6876,-38.8126
14:09:07.213,-26.5626,-41.1877
14:09:07.225,-27.8751,-44.1877
14:09:07.233,-29.8126,-48.0002
14:09:07.243,-31.5626,-51.2502
14:09:07.252,-33.4376,-53.2502
14:09:07.264,-34.0626,-57.0002
14:09:07.272,-35.0626,-58.7502
14:09:07.282,-36.0626,-61.5627
14:09:07.294,-37.1876,-63.6252
14:09:07.303,-38.5626,-66.6253
14:09:07.313,-40.2502,-70.6253
14:09:07.323,-41.8752,-73.6253
14:09:07.332,-44.3127,-77.1878
14:09:07.342,-46.3127,-80.5628
14:09:07.352,-49.1252,-84.5628
14:09:07.362,-51.6877,-87.1878
14:09:07.374,-53.8752,-91.6879
14:09:07.383,-54.9377,-94.2504
14:09:07.394,-57.6877,-97.2504
14:09:07.403,-58.3752,-100.5629
14:09:07.413,-57.2502,-99.1879
14:09:07.422,-54.5627,-95.3129
14:09:07.432,-49.2502,-88.6253
14:09:07.442,-41.3752,-77.8753
14:09:07.452,-33.8751,-63.8127
14:09:07.468,-24.4376,-48.8127
14:09:07.484,-15.3751,-31.5001
14:09:07.486,-6.375,-16.4376
14:09:07.502,3.4375,0.4375
14:09:07.504,11.4375,16.3751
14:09:07.519,20.3751,29.6251
14:09:07.521,26.4376,43.8752
14:09:07.534,31.3751,52.8752
14:09:07.543,36.3126,61.8752
14:09:07.552,38.1251,69.7503
14:09:07.562,40.5002,76.0628
14:09:07.572,42.1877,80.7503
14:09:07.585,41.8752,84.1253
14:09:07.614,42.1252,86.8128
14:09:07.617,41.5002,89.5003
14:09:07.680,41.1877,89.5628
14:09:07.681,39.8127,90.2503
14:09:07.684,39.1251,90.1253
14:09:07.688,36.6876,88.5003
14:09:07.690,34.0626,85.6253
14:09:07.690,32.6251,81.6878
14:09:07.697,29.6251,78.0628
14:09:07.736,26.5626,74.5003
14:09:07.738,24.5626,68.8128
14:09:07.740,22.1251,65.8753
14:09:07.743,20.8751,60.3127
14:09:07.749,17.8751,57.3752
14:09:07.757,16.4376,53.0627
14:09:07.767,14.4376,48.6877
14:09:07.777,12.5,45.8127
14:09:07.787,11.1875,43.3127
14:09:07.797,9.5,41.0002
14:09:07.807,9,38.0001
14:09:07.817,7.875,35.8126
14:09:07.826,6.6875,34.5001
14:09:07.836,5.75,31.5626
14:09:07.846,4.9375,28.7501
14:09:07.857,-0.875,22.2501
14:09:07.867,-2.375,18.8751
14:09:07.878,-3.125,16.6876
14:09:07.889,-4.375,14.8751
14:09:07.897,-6.125,12.3125
14:09:07.907,-7.8125,8.5625
14:09:07.916,-10.375,5.5
14:09:07.927,-11.5625,2.625
14:09:07.937,-13.9376,-0.4375
14:09:07.951,-16.3751,-3.125
14:09:07.957,-17.4376,-7.25
14:09:07.967,-19.5001,-9.75
14:09:07.976,-20.9376,-12.5
14:09:07.986,-22.6251,-15.5626
14:09:07.996,-24.4376,-17.6876
14:09:08.006,-25.3751,-20.8126
14:09:08.016,-26.2501,-24.3751
14:09:08.027,-26.3126,-24.8751
14:09:08.038,-26.9376,-28.0001
14:09:08.048,-28.6251,-30.0626
14:09:08.057,-29.9376,-32.1251
14:09:08.068,-29.8751,-34.6876
14:09:08.079,-31.0626,-36.9376
14:09:08.089,-32.8126,-39.5002
14:09:08.097,-33.3126,-42.2502
14:09:08.107,-33.8126,-43.9377
14:09:08.117,-34.9376,-46.9377
14:09:08.126,-35.4376,-48.5002
14:09:08.136,-36.1251,-51.4377
14:09:08.147,-36.6251,-53.6252
14:09:08.157,-37.8751,-56.2502
14:09:08.166,-39.6877,-59.9377
14:09:08.177,-40.5627,-62.8127
14:09:08.186,-43.0627,-65.5628
14:09:08.196,-43.0002,-67.5628
14:09:08.207,-43.9377,-67.8128
14:09:08.217,-41.8127,-65.8753
14:09:08.227,-38.4376,-59.8127
14:09:08.238,-32.3126,-51.0627
14:09:08.247,-25.6876,-39.5002
14:09:08.257,-17.9376,-26.1876
14:09:08.267,-8.75,-12.875
14:09:08.276,0.0625,2.625
14:09:08.300,8.25,18.2501
14:09:08.302,16.5626,29.2501
14:09:08.329,22.9376,42.6877
14:09:08.329,29.6876,52.6877
14:09:08.332,36.5626,62.5002
14:09:08.344,41.6877,71.7503
14:09:08.349,47.0002,79.1878
14:09:08.372,50.8127,86.0628
14:09:08.374,53.5627,90.1254
14:09:08.377,54.6877,94.0629
14:09:08.409,55.2502,95.1879
14:09:08.411,53.6252,96.2504
14:09:08.413,52.3752,94.8754
14:09:08.418,49.3752,92.7504
14:09:08.452,45.9377,89.5003
14:09:08.455,41.9377,85.8753
14:09:08.457,38.3126,80.6253
14:09:08.476,33.5001,74.8753
14:09:08.479,30.4376,69.6878
14:09:08.484,26.1876,65.1877
14:09:08.489,22.2501,58.6877
14:09:08.497,19.6251,54.3127
14:09:08.506,16.5626,48.3752
14:09:08.516,14.1876,43.8752
14:09:08.527,11.9375,40.1877
14:09:08.536,9.5,36.6251
14:09:08.546,8.4375,34.2501
14:09:08.556,7.3125,30.5001
14:09:08.566,4.8125,28.1251
14:09:08.577,3.1875,25.3751
14:09:08.587,2,22.1876
14:09:08.597,1,20.1876
14:09:08.607,0.125,17.6876
14:09:08.616,-2.25,15.1876
14:09:08.626,-3.25,12.875
14:09:08.636,-5,10.875
14:09:08.647,-6.75,7.0625
14:09:08.657,-7.875,4.8125
14:09:08.667,-9.625,2.5
14:09:08.677,-11.5,-0.625
14:09:08.687,-13.6251,-3.125
14:09:08.697,-14.2501,-7.3125
14:09:08.707,-16.6251,-9.5625
14:09:08.718,-18.5626,-13
14:09:08.728,-19.7501,-16.0626
14:09:08.739,-20.8751,-18.1876
14:09:08.747,-21.4376,-21.5001
14:09:08.757,-22.4376,-24.0001
14:09:08.767,-24.3126,-26.6251
14:09:08.785,-25.2501,-28.4376
14:09:08.792,-26.5626,-30.4376
14:09:08.801,-28.0001,-32.3126
14:09:08.807,-29.3126,-34.0626
14:09:08.823,-31.2501,-36.1876
14:09:08.839,-31.9376,-37.8751
14:09:08.840,-32.1876,-38.8751
14:09:08.847,-33.0001,-41.2502
14:09:08.862,-32.7501,-42.3752
14:09:08.867,-35.2501,-43.6252
14:09:08.877,-35.2501,-45.2502
14:09:08.888,-36.1251,-46.3127
14:09:08.896,-35.6876,-46.5002
14:09:08.907,-35.6876,-48.5002
14:09:08.927,-35.8126,-48.0002
14:09:08.929,-36.0626,-50.1877
14:09:08.939,-36.6251,-52.3752
14:09:08.947,-36.0001,-52.4377
14:09:08.962,-35.6876,-53.8752
14:09:08.969,-34.6876,-55.6252
14:09:08.976,-33.5001,-56.6252
14:09:08.986,-34.4376,-57.9377
14:09:09.002,-33.5001,-56.0627
14:09:09.029,-30.1876,-53.3127
14:09:09.031,-25.3751,-45.9377
14:09:09.033,-19.0001,-37.7501
14:09:09.039,-11.6875,-24.4376
14:09:09.072,-2.625,-12.375
14:09:09.075,4.5,3.4375
14:09:09.077,13.1251,15.9376
14:09:09.079,19.6251,31.0626
14:09:09.110,27.1251,42.8752
14:09:09.112,33.6876,54.4377
14:09:09.115,38.7501,66.2503
14:09:09.119,43.6252,75.5628
14:09:09.153,48.3752,85.1878
14:09:09.156,53.6252,93.8129
14:09:09.158,57.4377,101.7504
14:09:09.176,61.1252,108.5629
14:09:09.177,64.1877,113.3754
14:09:09.179,65.8753,116.6254
14:09:09.187,66.5003,120.2505
14:09:09.197,67.6878,121.7505
14:09:09.207,67.9378,124.313
14:09:09.217,68.0003,123.5005
14:09:09.227,66.8128,124.313
14:09:09.237,65.1877,123.1255
14:09:09.249,64.1877,119.938
14:09:09.259,62.2502,117.1254
14:09:09.267,60.8127,113.2504
14:09:09.276,57.2502,108.9379
14:09:09.286,55.0002,103.8754
14:09:09.297,51.8127,99.6254
14:09:09.307,48.5627,94.6254
14:09:09.316,46.6877,89.3753
14:09:09.327,44.3752,84.9378
14:09:09.337,42.2502,82.0628
14:09:09.347,40.5002,77.1253
14:09:09.359,38.8126,74.1253
14:09:09.367,36.6876,70.8128
14:09:09.377,33.7501,67.3753
14:09:09.387,32.1251,63.1252
14:09:09.397,28.8751,59.7502
14:09:09.406,28.8126,56.5627
14:09:09.417,25.7501,53.1877
14:09:09.426,23.8126,49.0627
14:09:09.436,21.3751,44.0002
14:09:09.447,18.5626,40.5627
14:09:09.457,16.4376,36.1876
14:09:09.467,13.8751,33.0001
14:09:09.477,12.1875,28.5001
14:09:09.486,9.3125,24.3751
14:09:09.497,7.25,20.0626
14:09:09.507,4.625,15.6251
14:09:09.518,3.3125,12
14:09:09.528,0.5,7.4375
14:09:09.537,-2.25,2.875
14:09:09.547,-3.9375,-1.125
14:09:09.557,-7.0625,-5.75
14:09:09.566,-8.1875,-9.25
14:09:09.576,-10.6875,-12.6875
14:09:09.587,-11.6875,-16.3126
14:09:09.597,-13.1251,-20.1251
14:09:09.610,-15.2501,-23.0626
14:09:09.621,-17.6251,-27.1251
14:09:09.627,-18.3751,-30.3126
14:09:09.637,-20.9376,-34.9376
14:09:09.647,-22.6251,-37.8126
14:09:09.657,-25.0001,-41.2502
14:09:09.667,-25.9376,-42.8752
14:09:09.678,-27.0001,-46.8127
14:09:09.687,-29.0626,-50.0627
14:09:09.697,-30.6251,-51.9377
14:09:09.707,-32.0001,-55.6252
14:09:09.716,-33.0626,-58.5002
14:09:09.742,-33.7501,-60.3127
14:09:09.744,-35.8126,-63.6877
14:09:09.747,-37.0001,-66.9378
14:09:09.760,-38.8126,-69.6253
14:09:09.767,-40.1877,-72.0003
14:09:09.777,-41.5627,-75.3753
14:09:09.786,-42.4377,-77.2503
14:09:09.797,-42.6252,-78.6878
14:09:09.832,-40.9377,-79.0003
14:09:09.835,-39.5627,-75.6878
14:09:09.837,-35.1876,-71.1253
14:09:09.840,-28.8751,-61.5002
14:09:09.871,-22.1876,-47.7502
14:09:09.873,-13.8751,-34.8126
14:09:09.875,-5,-19.2501
14:09:09.878,3.375,-2.9375
14:09:09.917,10.4375,9.9375
14:09:09.918,17.7501,25.4376
14:09:09.921,24.0626,37.1251
14:09:09.951,31.3126,50.0002
14:09:09.953,36.1876,61.6252
14:09:09.953,41.1252,69.6253
14:09:09.956,45.3752,78.2503
14:09:09.960,47.8127,85.2503
14:09:09.985,50.8752,91.5629
14:09:09.987,51.8752,96.2504
14:09:09.989,54.6877,100.9379
14:09:09.997,54.1252,104.0004
14:09:10.011,55.2502,105.6879
14:09:10.017,55.8752,108.8129
14:09:10.027,55.6252,107.9379
14:09:10.038,55.5627,109.2504
14:09:10.047,54.6252,106.7504
14:09:10.057,52.3127,104.7504
14:09:10.067,49.7502,101.1254
14:09:10.076,47.1252,96.0004
14:09:10.087,44.0627,90.5004
14:09:10.108,41.1877,85.9378
14:09:10.114,38.9376,81.5628
14:09:10.117,35.8126,76.1878
14:09:10.132,33.0626,73.0003
14:09:10.147,30.7501,67.0628
14:09:10.152,28.0626,62.8127
14:09:10.164,26.1876,59.0627
14:09:10.166,24.3126,54.6877
14:09:10.178,22.1251,51.3752
14:09:10.187,20.2501,47.6877
14:09:10.198,18.3751,44.6252
14:09:10.208,16.6876,40.3127
14:09:10.223,14.3751,36.5626
14:09:10.232,13.4376,33.0001
14:09:10.247,10.3125,29.1876
14:09:10.255,8.375,26.0001
14:09:10.262,6,21.3751
14:09:10.278,2.875,17.4376
14:09:10.285,0.9375,12.875
14:09:10.294,-1.125,8
14:09:10.302,-3.875,4.4375
14:09:10.312,-5.9375,1.25
14:09:10.322,-7.75,-3.4375
14:09:10.332,-10.25,-7.8125
14:09:10.342,-12.1875,-12.3125
14:09:10.352,-14.1251,-16.6876
14:09:10.363,-16.1251,-20.0626
14:09:10.373,-17.8751,-24.4376
14:09:10.387,-21.1251,-29.6876
14:09:10.392,-23.3126,-33.4376
14:09:10.402,-25.8751,-37.8751
14:09:10.412,-27.4376,-41.5627
14:09:10.422,-29.5001,-45.3127
14:09:10.432,-31.2501,-47.3127
14:09:10.442,-32.1876,-51.2502
14:09:10.452,-34.1876,-54.4377
14:09:10.462,-34.5626,-57.0002
14:09:10.472,-35.3751,-60.8752
14:09:10.482,-37.5626,-63.6877
14:09:10.514,-38.5626,-65.5628
14:09:10.517,-40.3127,-69.9378
14:09:10.520,-42.6252,-71.9378
14:09:10.522,-43.7502,-75.8128
14:09:10.551,-44.9377,-76.8753
14:09:10.553,-45.8752,-80.5628
14:09:10.555,-47.0627,-82.8753
14:09:10.562,-48.3127,-85.7503
14:09:10.589,-49.1252,-88.0628
14:09:10.589,-49.5002,-90.4379
14:09:10.592,-50.1252,-92.1879
14:09:10.617,-51.8127,-93.7504
14:09:10.619,-51.1877,-95.6879
14:09:10.645,-50.3752,-93.4379
14:09:10.647,-47.6877,-90.9379
14:09:10.649,-42.7502,-83.1878
14:09:10.653,-37.0626,-71.1253
14:09:10.677,-29.3126,-59.7502
14:09:10.680,-21.3751,-43.8127
14:09:10.682,-13,-29.2501
14:09:10.692,-3.8125,-12.5625
14:09:10.703,3.6875,2.6875
14:09:10.714,11.75,16.8751
14:09:10.722,18.3126,31.1876
14:09:10.732,24.6251,41.4377
14:09:10.742,30.8126,53.1252
14:09:10.752,35.3751,62.5627
14:09:10.762,39.1876,70.3128
14:09:10.773,41.8127,78.6878
14:09:10.784,44.3127,83.4378
14:09:10.796,46.6252,88.1253
14:09:10.802,47.0627,92.3754
14:09:10.812,48.3127,95.6879
14:09:10.822,47.3752,96.9379
14:09:10.832,48.2502,97.8129
14:09:10.843,46.5002,97.8129
14:09:10.856,45.7502,95.8129
14:09:10.862,43.8752,94.9379
14:09:10.871,41.3127,91.4379
14:09:10.882,39.0626,88.3753
14:09:10.892,36.0626,82.7503
14:09:10.904,33.0626,78.1253
14:09:10.912,30.7501,73.6253
14:09:10.922,27.0626,69.0003
14:09:10.932,24.4376,64.2502
14:09:10.942,21.8751,59.4377
14:09:10.953,18.8751,56.1252
14:09:10.961,17.8126,50.8127
14:09:10.971,15.1876,48.0627
14:09:10.982,14.2501,43.5002
14:09:10.992,11.4375,40.8127
14:09:11.020,9.9375,36.5001
14:09:11.023,7.5625,34.1251
14:09:11.026,5.9375,29.9376
14:09:11.032,4.5,26.3126
14:09:11.042,3.1875,22.9376
14:09:11.053,0.9375,18.8751
14:09:11.062,-1,16.0001
14:09:11.072,-2.6875,11.3125
14:09:11.082,-5.125,8.4375
14:09:11.093,-6.5625,4.1875
14:09:11.104,-8.75,0.25
14:09:11.112,-10.4375,-3.5625
14:09:11.123,-13,-7.1875
14:09:11.135,-14.6251,-10.6875
14:09:11.144,-16.4376,-14.3126
14:09:11.153,-18.6876,-17.8751
14:09:11.162,-20.6876,-22.3126
14:09:11.173,-22.6876,-27.0626
14:09:11.182,-24.0626,-29.8126
14:09:11.194,-26.0001,-33.6251
14:09:11.202,-27.7501,-36.3751
14:09:11.213,-28.6876,-40.4377
14:09:11.222,-30.5001,-44.1877
14:09:11.234,-31.6876,-46.9377
14:09:11.244,-32.6876,-50.0627
14:09:11.252,-34.8126,-52.9377
14:09:11.262,-35.8751,-55.7502
14:09:11.273,-36.9376,-59.6877
14:09:11.298,-38.1876,-61.7502
14:09:11.301,-39.4377,-65.1877
14:09:11.304,-41.4377,-67.8128
14:09:11.336,-41.7502,-71.8753
14:09:11.338,-43.6877,-73.1253
14:09:11.340,-45.2502,-76.6878
14:09:11.343,-46.5002,-79.8128
14:09:11.385,-47.8752,-81.6878
14:09:11.387,-49.4377,-85.5003
14:09:11.389,-50.0627,-87.3753
14:09:11.394,-51.2502,-90.4379
14:09:11.396,-53.0627,-92.5629
14:09:11.403,-54.6877,-95.1879
14:09:11.443,-55.8752,-97.9379
14:09:11.446,-56.4377,-99.9379
14:09:11.461,-57.7502,-100.8129
14:09:11.463,-58.0002,-103.5629
14:09:11.478,-56.5002,-101.0004
14:09:11.486,-53.6877,-97.5629
14:09:11.486,-48.5002,-89.8128
14:09:11.486,-42.1252,-78.3128
14:09:11.493,-34.1251,-65.3753
14:09:11.501,-25.6876,-49.0002
14:09:11.513,-17.2501,-33.9376
14:09:11.524,-8.5625,-16.6251
14:09:11.532,-0.375,-1.75
14:09:11.542,7.125,13.2501
14:09:11.562,13.8751,26.2501
14:09:11.565,21.1251,38.4376
14:09:11.579,26.0001,50.8127
14:09:11.595,32.0001,58.8127
14:09:11.599,35.2501,68.6253
14:09:11.605,39.3127,74.8753
14:09:11.613,41.3127,80.6253
14:09:11.622,43.4377,85.6253
14:09:11.633,45.3127,89.6253
14:09:11.642,46.1252,92.8754
14:09:11.653,47.5627,94.8754
14:09:11.663,48.2502,96.8129
14:09:11.672,47.6877,96.4379
14:09:11.682,47.5627,96.5004
14:09:11.692,45.3752,94.8129
14:09:11.703,44.0002,91.0629
14:09:11.711,41.2502,87.7503
14:09:11.722,39.2502,83.6253
14:09:11.733,37.0001,78.5628
14:09:11.743,34.5001,73.6878
14:09:11.751,31.9376,69.3128
14:09:11.762,29.3126,64.3127
14:09:11.774,26.6876,60.5627
14:09:11.782,24.9376,56.2502
14:09:11.793,21.9376,52.0002
14:09:11.804,20.6251,47.3752
14:09:11.812,17.8751,44.4377
14:09:11.822,15.9376,39.8752
14:09:11.833,14.5626,36.6876
14:09:11.843,12.75,32.8751
14:09:11.852,10.5,29.2501
14:09:11.864,7.9375,25.6876
14:09:11.873,7.5,22.0626
14:09:11.883,4.625,18.7501
14:09:11.893,2.5625,15.0001
14:09:11.905,0.75,10.5
14:09:11.912,-1.125,6.625
14:09:11.924,-2.5,2.3125
14:09:11.932,-4.6875,-0.375
14:09:11.951,-6,-4.875
14:09:11.957,-8.625,-8.5
14:09:11.984,-10.75,-12.875
14:09:11.987,-13.0625,-17.0001
14:09:11.990,-15.2501,-21.0001
14:09:11.994,-17.5626,-25.0001
14:09:12.022,-18.1876,-29.3751
14:09:12.024,-21.3751,-33.7501
14:09:12.027,-23.1876,-36.3751
14:09:12.062,-24.3126,-40.6877
14:09:12.065,-26.3751,-44.7502
14:09:12.067,-29.0626,-48.3752
14:09:12.072,-30.8751,-50.5002
14:09:12.073,-32.5001,-55.5002
14:09:12.102,-34.6876,-57.6877
14:09:12.104,-36.0001,-62.0627
14:09:12.109,-38.0626,-64.8752
14:09:12.114,-38.8126,-67.9378
14:09:12.124,-40.4377,-70.6253
14:09:12.136,-41.8127,-74.1878
14:09:12.142,-43.6877,-75.3753
14:09:12.153,-45.6252,-80.0628
14:09:12.162,-47.6252,-82.1878
14:09:12.173,-50.0627,-86.2503
14:09:12.183,-52.3752,-88.8128
14:09:12.194,-54.5002,-92.0004
14:09:12.202,-55.2502,-93.8754
14:09:12.213,-56.5627,-96.9379
14:09:12.221,-57.6252,-99.1879
14:09:12.233,-57.3752,-101.0629
14:09:12.242,-58.1877,-103.0004
14:09:12.253,-57.8127,-104.9379
14:09:12.265,-60.0002,-105.7504
14:09:12.273,-59.9377,-108.6254
14:09:12.302,-59.5002,-107.7504
14:09:12.303,-58.2502,-106.6879
14:09:12.306,-53.9377,-100.8129
14:09:12.314,-49.3752,-90.8129
14:09:12.321,-41.3752,-79.0628
14:09:12.333,-32.2501,-65.0002
14:09:12.342,-24.3751,-50.0002
14:09:12.352,-14.8126,-33.9376
14:09:12.364,-6,-17.2501
14:09:12.373,1.375,-3.6875
14:09:12.383,8.875,10.125
14:09:12.392,14.9376,23.2501
14:09:12.403,20.3751,32.6876
14:09:12.413,24.5626,42.5627
14:09:12.422,28.3751,49.9377
14:09:12.432,32.7501,57.0627
14:09:12.442,34.6876,63.1252
14:09:12.452,36.9376,67.3753
14:09:12.462,38.2501,71.4378
14:09:12.473,39.7502,74.3128
14:09:12.482,40.9377,76.8128
14:09:12.493,40.6877,79.4378
14:09:12.503,41.1877,78.3128
14:09:12.512,40.6877,77.5628
14:09:12.523,38.3751,76.0628
14:09:12.532,38.1251,73.6253
14:09:12.542,34.5626,69.7503
14:09:12.553,33.5626,66.0628
14:09:12.563,30.3751,61.8127
14:09:12.575,28.3126,57.3752
14:09:12.581,26.2501,52.8752
14:09:12.593,23.8126,48.7502
14:09:12.603,22.1876,45.5627
14:09:12.614,20.1876,41.0002
14:09:12.621,19.0001,38.3126
14:09:12.635,17.5626,34.7501
14:09:12.643,16.1876,32.1876
14:09:12.652,14.4376,27.7501
14:09:12.674,12.0625,24.9376
14:09:12.677,10.25,21.0626
14:09:12.705,6.5625,17.8126
14:09:12.707,4.4375,14.1876
14:09:12.709,2.125,9.875
14:09:12.712,-1.1875,7.375
14:09:12.746,-3.0625,2.5625
14:09:12.748,-6.3125,-0.75
14:09:12.852,-7.75,-4.6875
14:09:12.853,-9.5625,-7.5
14:09:12.858,-11,-11.25
14:09:12.858,-12.5625,-15.1251
14:09:12.858,-14.2501,-18.0626
14:09:12.859,-15.8751,-21.6876
14:09:12.880,-17.4376,-24.3751
14:09:12.883,-19.1876,-28.9376
14:09:12.890,-22.1876,-32.5001
14:09:12.898,-24.0626,-35.3126
14:09:12.914,-25.3126,-38.6251
14:09:12.921,-26.5001,-42.5002
14:09:12.927,-28.8126,-45.9377
14:09:12.939,-30.1251,-48.9377
14:09:12.950,-31.3126,-51.3752
14:09:12.957,-32.3751,-54.8127
14:09:12.967,-33.6251,-56.8752
14:09:12.979,-35.5001,-60.3752
14:09:12.987,-36.8751,-63.1877
14:09:12.998,-38.0626,-65.6252
14:09:13.013,-39.0627,-68.5003
14:09:13.020,-55.3127,-97.0004
14:09:13.028,-55.6252,-98.3754
14:09:13.037,-56.2502,-100.3129
14:09:13.048,-56.8127,-103.0004
14:09:13.059,-57.8127,-104.0004
14:09:13.066,-58.1877,-106.7504
14:09:13.078,-58.6252,-108.0629
14:09:13.087,-59.3752,-108.5629
14:09:13.098,-57.6252,-106.8754
14:09:13.107,-55.1877,-102.4379
14:09:13.117,-50.8752,-95.7504
14:09:13.129,-44.1877,-84.5628
14:09:13.137,-37.6876,-72.2503
14:09:13.148,-29.3751,-58.5627
14:09:13.160,-22.1876,-42.6252
14:09:13.167,-14.3126,-29.0626
14:09:13.178,-5.5625,-15.3126
14:09:13.188,0.25,-2.25
14:09:13.199,6.625,9.5625
14:09:13.208,12,20.0626
14:09:13.218,16.6251,28.9376
14:09:13.227,21.1251,37.8126
14:09:13.239,24.3751,44.1252
14:09:13.246,27.5626,50.3752
14:09:13.258,29.0626,56.2502
14:09:13.268,31.3126,59.3127
14:09:13.278,33.0626,62.5002
14:09:13.287,33.3751,63.7502
14:09:13.297,34.6251,65.4378
14:09:13.308,35.2501,66.5003
14:09:13.317,34.8751,65.6878
14:09:13.328,34.2501,64.1252
14:09:13.338,32.2501,63.2502
14:09:13.351,31.6876,58.4377
14:09:13.357,30.0001,55.5002
14:09:13.368,28.1251,52.0627
14:09:13.378,26.2501,48.0002
14:09:13.388,24.5626,43.0002
14:09:13.398,22.2501,39.5627
14:09:13.407,20.8126,35.3751
14:09:13.418,18.5626,31.2501
14:09:13.457,16.8126,28.5001
14:09:13.460,14.5626,24.1876
14:09:13.462,13.5001,21.6876
14:09:13.464,12.125,18.9376
14:09:13.468,9.9375,16.5626
14:09:13.499,8.75,13.3751
14:09:13.502,6.6875,9.875
14:09:13.505,4.9375,7.5
14:09:13.510,3.6875,3.1875
14:09:13.541,2.25,0.625
14:09:13.543,0.875,-3.125
14:09:13.546,-1.6875,-5.8125
14:09:13.584,-2.75,-9.9375
14:09:13.585,-5.9375,-13.3751
14:09:13.587,-7.0625,-16.9376
14:09:13.592,-10.125,-20.6876
14:09:13.593,-11.0625,-24.4376
14:09:13.596,-12.5625,-27.0001
14:09:13.611,-13.8751,-30.0001
14:09:13.619,-14.6251,-34.1251
14:09:13.628,-16.6251,-36.9376
14:09:13.637,-18.1876,-40.6252
14:09:13.648,-20.7501,-43.5627
14:09:13.659,-22.4376,-46.5002
14:09:13.668,-24.6876,-50.9377
14:09:13.676,-26.9376,-54.1252
14:09:13.688,-27.7501,-57.0627
14:09:13.697,-29.5626,-59.0627
14:09:13.708,-30.6876,-64.0627
14:09:13.717,-32.0626,-65.6253
14:09:13.728,-32.4376,-68.5003
14:09:13.740,-34.7501,-71.8753
14:09:13.748,-35.6251,-72.8128
14:09:13.763,-36.0626,-77.2503
14:09:13.768,-37.2501,-78.5628
14:09:13.777,-37.6876,-81.3128
14:09:13.788,-38.5001,-82.9378
14:09:13.798,-39.1877,-85.5628
14:09:13.808,-40.3752,-86.8128
14:09:13.818,-41.2502,-90.1879
14:09:13.828,-42.8752,-91.1879
14:09:13.837,-43.1877,-94.0004
14:09:13.848,-44.6877,-95.1254
14:09:13.859,-45.5627,-98.1254
14:09:13.868,-47.2502,-100.0004
14:09:13.876,-47.0627,-102.5629
14:09:13.888,-48.7502,-102.8129
14:09:13.898,-48.3127,-104.5004
14:09:13.906,-47.6252,-103.1879
14:09:13.918,-45.1252,-100.5004
14:09:13.929,-40.6877,-92.0004
14:09:13.938,-34.5626,-83.5003
14:09:13.948,-27.1876,-69.5003
14:09:13.959,-19.8126,-56.8752
14:09:13.971,-11.5625,-41.8127
14:09:13.977,-4.875,-26.3126
14:09:13.988,1.875,-13.5001
14:09:13.998,9.125,0
14:09:14.008,14.0001,11.875
14:09:14.018,19.9376,23.1251
14:09:14.028,23.7501,32.7501
14:09:14.040,28.6251,41.3752
14:09:14.047,31.1876,48.7502
14:09:14.058,34.7501,54.5627
14:09:14.068,37.5626,61.5002
14:09:14.080,39.7502,65.0627
14:09:14.088,41.6877,70.2503
14:09:14.098,42.5002,72.7503
14:09:14.116,43.1877,73.8128
14:09:14.121,42.5627,76.6878
14:09:14.129,42.9377,74.6878
14:09:14.139,42.4377,74.5003
14:09:14.154,40.7502,72.6878
14:09:14.177,39.0626,70.2503
14:09:14.181,38.0626,66.4378
14:09:14.182,35.9376,63.1877
14:09:14.218,34.6251,58.8752
14:09:14.219,32.6876,55.0002
14:09:14.286,31.6876,51.0002
14:09:14.289,29.0626,47.0627
14:09:14.322,27.1876,44.0002
14:09:14.322,24.7501,38.3751
14:09:14.322,23.1251,36.3751
14:09:14.322,21.0001,32.0626
14:09:14.324,19.3126,29.6876
14:09:14.330,18.1876,26.3126
14:09:14.334,16.2501,23.1251
14:09:14.353,13.9376,20.1876
14:09:14.356,12.875,16.3751
14:09:14.363,10.625,13.1251
14:09:14.372,8.375,9
14:09:14.384,6.625,5.125
14:09:14.393,4.4375,2.5
14:09:14.403,2.4375,-2.0625
14:09:14.412,0.375,-4.75
14:09:14.424,-1,-8
14:09:14.432,-3.1875,-11.1875
14:09:14.443,-5,-15.3751
14:09:14.454,-6.75,-19.5626
14:09:14.463,-16.6876,-38.5001
14:09:14.471,-18.8126,-41.4377
14:09:14.485,-20.6876,-44.9377
14:09:14.492,-24.0001,-50.0002
14:09:14.503,-25.8751,-53.5627
14:09:14.518,-27.5001,-55.5627
14:09:14.523,-28.4376,-59.0627
14:09:14.533,-29.9376,-62.4377
14:09:14.543,-32.0001,-66.2503
14:09:14.554,-33.5626,-67.9378
14:09:14.562,-34.6876,-70.5003
14:09:14.572,-36.2501,-74.0628
14:09:14.583,-37.7501,-75.6878
14:09:14.592,-38.8751,-78.9378
14:09:14.603,-39.9377,-80.7503
14:09:14.613,-41.5627,-83.6253
14:09:14.623,-41.9377,-84.8128
14:09:14.633,-43.3127,-87.3753
14:09:14.642,-43.6877,-89.0003
14:09:14.652,-45.3752,-91.6879
14:09:14.663,-45.8752,-93.1254
14:09:14.673,-46.8127,-95.9379
14:09:14.683,-48.0002,-96.8754
14:09:14.693,-49.5627,-99.5004
14:09:14.703,-50.1877,-101.5629
14:09:14.713,-50.8752,-102.6254
14:09:14.723,-52.0002,-105.2504
14:09:14.733,-51.7502,-105.3754
14:09:14.742,-52.0002,-107.5629
14:09:14.753,-50.2502,-105.8754
14:09:14.761,-48.0002,-100.6254
14:09:14.774,-42.5002,-93.8754
14:09:14.782,-36.9376,-82.0628
14:09:14.793,-29.2501,-69.8128
14:09:14.803,-21.3126,-55.4377
14:09:14.811,-12.8125,-39.6252
14:09:14.823,-4.6875,-25.6251
14:09:14.832,2.375,-10.1875
14:09:14.861,9.25,2.375
14:09:14.863,16.6876,15.4376
14:09:14.865,22.0001,27.7501
14:09:14.895,27.3751,37.0001
14:09:14.895,33.2501,47.1252
14:09:14.897,36.5626,54.6877
14:09:14.903,40.7502,61.8127
14:09:14.936,42.6877,68.2503
14:09:14.938,45.6252,73.0003
14:09:14.940,46.7502,76.9378
14:09:14.943,48.9377,79.3753
14:09:14.973,48.6252,80.9378
14:09:14.975,48.8752,81.6253
14:09:14.978,48.5627,82.7503
14:09:14.983,47.3752,79.7503
14:09:15.012,46.0627,79.0003
14:09:15.015,44.0002,76.1253
14:09:15.017,42.2502,72.6878
14:09:15.023,40.1252,67.8753
14:09:15.038,37.6251,64.0627
14:09:15.046,35.5626,59.3127
14:09:15.057,33.8751,56.0627
14:09:15.062,31.8751,52.2502
14:09:15.074,29.7501,47.6877
14:09:15.082,27.4376,44.7502
14:09:15.093,25.6251,41.1252
14:09:15.102,23.5001,37.2501
14:09:15.113,21.6251,34.8751
14:09:15.123,19.6876,29.9376
14:09:15.133,17.7501,28.6251
14:09:15.143,16.1876,24.3751
14:09:15.152,15.1251,22.4376
14:09:15.162,13.2501,17.9376
14:09:15.175,12.1875,15.1251
14:09:15.183,10.125,12
14:09:15.192,8,8.5
14:09:15.202,5.8125,4.75
14:09:15.213,3.875,1.375
14:09:15.222,1.1875,-2.75
14:09:15.233,-1.25,-6.5625
14:09:15.243,-2.625,-9.875
14:09:15.252,-4.625,-13.5001
14:09:15.264,-6.9375,-16.8126
14:09:15.273,-8.8125,-21.2501
14:09:15.285,-11.4375,-23.4376
14:09:15.292,-12.875,-27.8751
14:09:15.303,-14.5001,-30.4376
14:09:15.312,-15.9376,-34.8126
14:09:15.324,-18.4376,-38.2501
14:09:15.333,-19.8751,-40.6877
14:09:15.342,-21.1251,-43.6877
14:09:15.353,-22.3751,-47.1877
14:09:15.362,-24.0626,-50.6877
14:09:15.375,-25.7501,-52.0002
14:09:15.383,-26.6876,-55.6252
14:09:15.393,-28.4376,-59.1252
14:09:15.403,-29.3751,-61.3752
14:09:15.413,-30.6251,-64.0002
14:09:15.422,-32.0001,-66.7503
14:09:15.432,-33.0001,-69.6253
14:09:15.446,-34.6251,-71.3128
14:09:15.455,-35.1876,-73.5003
14:09:15.464,-36.5001,-75.7503
14:09:15.480,-37.8126,-78.3753
14:09:15.494,-39.2502,-79.9378
14:09:15.497,-40.5002,-82.3128
14:09:15.503,-42.2502,-84.1253
14:09:15.513,-42.6877,-85.4378
14:09:15.522,-43.0627,-88.2503
14:09:15.533,-43.7502,-88.6253
14:09:15.543,-44.8127,-91.4379
14:09:15.552,-45.7502,-93.0629
14:09:15.570,-46.0002,-94.8129
14:09:15.573,-46.5627,-97.0629
14:09:15.588,-46.8752,-97.8754
14:09:15.603,-48.1252,-99.4379
14:09:15.607,-47.5002,-98.8129
14:09:15.616,-45.6877,-96.3129
14:09:15.623,-41.4377,-88.6878
14:09:15.633,-35.6251,-80.0003
14:09:15.645,-29.1876,-66.1878
14:09:15.653,-20.9376,-54.2502
14:09:15.689,-13.4376,-38.0001
14:09:15.692,-5.1875,-22.8126
14:09:15.694,3.3125,-7.6875
14:09:15.697,9.6875,6.25
14:09:15.703,17.0001,19.6251
14:09:15.731,22.6251,32.1251
14:09:15.736,28.0626,42.3127
14:09:15.738,32.5626,52.3127
14:09:15.744,37.1876,59.4377
14:09:15.771,39.6877,67.3753
14:09:15.772,42.5627,72.2503
14:09:15.775,45.5627,78.5628
14:09:15.810,46.8127,81.1253
14:09:15.811,49.0627,84.8128
14:09:15.813,49.1252,88.0003
14:09:15.818,49.6877,87.7503
14:09:15.846,50.2502,87.9378
14:09:15.848,48.6252,87.5003
14:09:15.851,47.6252,84.6253
14:09:15.853,45.1252,81.3128
14:09:15.863,42.8752,77.6878
14:09:15.873,40.2502,73.4378
14:09:15.883,38.0626,69.5003
14:09:15.892,35.6876,64.7502
14:09:15.903,32.7501,61.6252
14:09:15.915,31.8751,57.1252
14:09:15.923,29.5626,52.9377
14:09:15.935,28.1251,49.4377
14:09:15.943,25.5626,46.0627
14:09:15.953,23.8126,42.9377
14:09:15.965,22.2501,40.4377
14:09:15.973,20.6876,36.3126
14:09:15.982,18.1876,34.3126
14:09:15.994,16.8126,30.1251
14:09:16.004,14.8751,27.1876
14:09:16.013,12.8125,24.6251
14:09:16.023,11.3125,20.1876
14:09:16.033,10.0625,17.9376
14:09:16.043,7.9375,13.5001
14:09:16.054,6.0625,10.1875
14:09:16.063,3.8125,6.5
14:09:16.073,1.625,3.25
14:09:16.084,0.25,-0.3125
14:09:16.095,-2.4375,-4
14:09:16.103,-5.0625,-8.5
14:09:16.113,-6.875,-10.25
14:09:16.142,-8.5,-14.7501
14:09:16.143,-9.5625,-18.3751
14:09:16.145,-12.5625,-22.6251
14:09:16.152,-14.3751,-25.3751
14:09:16.164,-16.3751,-28.0626
14:09:16.173,-16.8126,-32.0001
14:09:16.184,-19.5626,-36.1251
14:09:16.193,-22.1251,-38.8126
14:09:16.203,-23.1251,-41.6252
14:09:16.213,-24.6876,-45.1252
14:09:16.226,-26.8126,-48.5002
14:09:16.233,-28.5001,-51.0627
14:09:16.242,-29.3126,-53.5002
14:09:16.254,-31.3751,-57.4377
14:09:16.263,-31.9376,-59.5002
14:09:16.274,-33.3751,-62.5627
14:09:16.284,-34.0626,-64.8127
14:09:16.293,-35.6876,-67.2503
14:09:16.302,-36.8751,-69.3128
14:09:16.313,-37.6251,-71.9378
14:09:16.323,-39.0001,-74.5003
14:09:16.334,-40.2502,-76.8753
14:09:16.343,-41.3752,-78.5003
14:09:16.353,-42.9377,-80.3753
14:09:16.366,-43.6252,-83.1878
14:09:16.393,-44.2502,-85.0628
14:09:16.396,-45.5002,-85.7503
14:09:16.398,-46.3127,-89.3753
14:09:16.404,-46.6877,-91.3129
14:09:16.432,-48.3752,-92.1254
14:09:16.434,-48.1877,-93.7504
14:09:16.437,-46.8752,-91.8754
14:09:16.443,-45.4377,-86.3753
14:09:16.477,-39.5002,-79.7503
14:09:16.479,-32.6251,-68.6253
14:09:16.482,-26.3751,-55.6877
14:09:16.511,-17.5001,-41.5002
14:09:16.511,-9.0625,-25.3751
14:09:16.513,-0.8125,-10.75
14:09:16.518,7.6875,4.4375
14:09:16.539,14.0626,19.8126
14:09:16.541,21.1876,31.9376
14:09:16.545,27.2501,44.5002
14:09:16.556,32.4376,54.8127
14:09:16.562,38.2501,64.5627
14:09:16.573,41.5002,72.5628
14:09:16.583,44.8127,78.3753
14:09:16.593,47.8752,84.8128
14:09:16.602,49.3752,90.7504
14:09:16.613,50.8752,92.6879
14:09:16.623,51.3752,95.5629
14:09:16.632,52.5002,95.8129
14:09:16.643,52.7502,97.1254
14:09:16.653,51.6252,96.0629
14:09:16.664,50.9377,94.3754
14:09:16.673,49.4377,91.3129
14:09:16.684,47.2502,87.8753
14:09:16.693,45.1252,84.3753
14:09:16.703,42.3752,79.3753
14:09:16.713,39.0002,75.1253
14:09:16.726,36.6876,70.2503
14:09:16.732,34.1876,65.8128
14:09:16.743,31.5626,61.5627
14:09:16.763,29.4376,56.8127
14:09:16.769,26.8126,53.4377
14:09:16.772,25.1876,49.9377
14:09:16.786,23.1876,45.3752
14:09:16.793,21.6876,42.4377
14:09:16.804,20.0626,39.3752
14:09:16.814,17.6251,36.2501
14:09:16.824,16.3751,33.1251
14:09:16.833,14.6876,30.0001
14:09:16.843,12.9375,26.2501
14:09:16.854,11.25,22.9376
14:09:16.863,8.75,19.7501
14:09:16.873,7.0625,15.5001
14:09:16.889,5.25,11.5625
14:09:16.891,3.625,7.8125
14:09:16.907,1.25,4.25
14:09:16.914,-0.6875,1.1875
14:09:16.923,-3.0625,-2.4375
14:09:16.934,-3.6875,-6.1875
14:09:16.943,-6.6875,-11
14:09:16.953,-8.875,-15.3126
14:09:16.963,-10.3125,-17.8751
14:09:16.977,-12.125,-22.5626
14:09:16.983,-14.6251,-25.9376
14:09:16.994,-16.6251,-28.2501
14:09:17.005,-17.5626,-32.8126
14:09:17.013,-19.8126,-36.3751
14:09:17.024,-21.8126,-39.8127
14:09:17.033,-23.7501,-42.3752
14:09:17.043,-25.1251,-46.1252
14:09:17.053,-26.5626,-49.4377
14:09:17.062,-28.0626,-52.8752
14:09:17.073,-29.5001,-55.8127
14:09:17.103,-31.7501,-58.4377
14:09:17.106,-32.8126,-61.1877
14:09:17.108,-34.6876,-63.7502
14:09:17.114,-36.5001,-65.7503
14:09:17.145,-37.5001,-69.3753
14:09:17.148,-38.1876,-72.3128
14:09:17.150,-38.6876,-73.5003
14:09:17.154,-40.0627,-75.8753
14:09:17.188,-40.0002,-78.3753
14:09:17.191,-42.2502,-80.0628
14:09:17.193,-42.5002,-83.1878
14:09:17.225,-43.1877,-83.9378
14:09:17.226,-44.6252,-87.6878
14:09:17.228,-45.7502,-89.1878
14:09:17.234,-45.9377,-90.6254
14:09:17.236,-47.8127,-92.5004
14:09:17.249,-48.3752,-95.1879
14:09:17.253,-49.1877,-95.5629
14:09:17.265,-49.5002,-97.8754
14:09:17.273,-48.0627,-96.5004
14:09:17.284,-46.5002,-93.0004
14:09:17.293,-41.5627,-86.7503
14:09:17.303,-35.5626,-75.1253
14:09:17.313,-27.7501,-63.6877
14:09:17.323,-19.5626,-48.5002
14:09:17.334,-11.6875,-32.0626
14:09:17.343,-2.3125,-16.6251
14:09:17.352,7,0.625
14:09:17.365,14.1251,16.8126
14:09:17.373,22.6251,30.1876
14:09:17.384,29.2501,44.0002
14:09:17.393,35.5001,55.3752
14:09:17.421,40.8752,66.3753
14:09:17.423,44.9377,75.0628
14:09:17.426,49.2502,82.9378
14:09:17.433,52.0627,89.3128
14:09:17.444,55.3752,94.8754
14:09:17.453,56.8752,99.6254
14:09:17.463,58.5627,101.8754
14:09:17.473,59.0002,104.6879
14:09:17.483,59.3127,105.5004
14:09:17.493,59.3752,106.4379
14:09:17.503,58.7502,106.2504
14:09:17.513,57.7502,103.8129
14:09:17.523,55.1252,100.8129
14:09:17.535,52.6877,96.4379
14:09:17.543,50.2502,92.2504
14:09:17.552,48.1877,87.5628
14:09:17.563,45.0002,82.9378
14:09:17.573,42.0627,78.1253
14:09:17.583,39.8127,73.4378
14:09:17.593,37.2501,69.3753
14:09:17.603,35.9376,65.0627
14:09:17.613,32.8126,61.3752
14:09:17.625,32.0001,57.5002
14:09:17.633,29.7501,54.7502
14:09:17.643,28.0001,51.2502
14:09:17.654,26.5626,48.0627
14:09:17.665,26.0001,44.5002
14:09:17.673,24.1251,41.5627
14:09:17.683,23.1251,37.0626
14:09:17.693,21.1251,33.6876
14:09:17.703,19.1876,29.9376
14:09:17.714,17.0001,25.8126
14:09:17.729,15.6876,21.8751
14:09:17.733,13.0625,17.6876
14:09:17.744,11.6875,14.1251
14:09:17.753,9.3125,9.8125
14:09:17.763,6.6875,6.1875
14:09:17.773,4.1875,1.625
14:09:17.783,2.3125,-3.1875
14:09:17.793,0.375,-6.375
14:09:17.806,-1.875,-11.4375
14:09:17.813,-3.875,-15.6251
14:09:17.841,-6.1875,-19.8751
14:09:17.845,-9.375,-23.3751
14:09:17.846,-11.75,-27.8126
14:09:17.853,-14.6876,-31.7501
14:09:17.890,-16.2501,-35.4376
14:09:17.895,-20.1251,-40.0627
14:09:17.899,-21.4376,-44.4377
14:09:17.900,-24.5626,-47.6252
14:09:17.906,-25.6876,-51.3127
14:09:17.933,-27.8751,-54.1877
14:09:17.936,-30.6251,-58.5627
14:09:17.938,-32.4376,-61.1252
14:09:17.944,-34.6876,-65.5628
14:09:17.982,-36.4376,-67.2503
14:09:17.987,-38.6251,-71.3128
14:09:17.988,-40.0627,-74.0003
14:09:17.990,-41.2502,-75.8753
14:09:17.995,-43.1252,-78.6253
14:09:18.003,-43.7502,-81.6878
14:09:18.013,-44.3752,-83.0628
14:09:18.026,-45.8752,-84.4378
14:09:18.033,-45.6252,-87.8753
14:09:18.044,-47.3127,-88.3128
14:09:18.064,-48.4377,-92.0629
14:09:18.070,-49.4377,-92.8754
14:09:18.086,-50.5627,-95.7504
14:09:18.089,-51.5002,-98.7504
14:09:18.093,-51.3752,-99.8754
14:09:18.108,-52.5002,-100.8754
14:09:18.113,-52.3752,-103.0004
14:09:18.123,-50.5627,-101.8129
14:09:18.133,-49.4377,-100.4379
14:09:18.143,-45.1252,-94.9379
14:09:18.153,-40.7502,-85.5628
14:09:18.164,-33.8126,-74.0628
14:09:18.185,-25.5626,-59.5002
14:09:18.192,-17.4376,-41.6877
14:09:18.203,-9,-26.7501
14:09:18.207,0.375,-10.1875
14:09:18.213,7.5,5.5625
14:09:18.225,16.1876,20.5626
14:09:18.233,22.3126,34.3751
14:09:18.244,28.1251,47.2502
14:09:18.254,33.6876,57.5627
14:09:18.263,39.3126,68.0003
14:09:18.274,42.6252,75.8753
14:09:18.283,46.0627,82.5628
14:09:18.293,48.6252,89.0628
14:09:18.303,50.5002,92.3754
14:09:18.313,51.6877,97.3129
14:09:18.323,52.7502,98.3754
14:09:18.338,52.7502,100.8754
14:09:18.348,52.1252,100.6879
14:09:18.361,52.6252,101.2504
14:09:18.368,51.8127,98.8754
14:09:18.378,50.2502,96.5629
14:09:18.389,48.0002,92.8129
14:09:18.398,46.0627,88.5628
14:09:18.409,42.9377,84.3128
14:09:18.418,39.6877,80.0003
14:09:18.428,38.0626,74.9378
14:09:18.438,34.6876,70.7503
14:09:18.448,33.1876,66.0628
14:09:18.460,31.0001,61.8127
14:09:18.468,28.6876,58.8752
14:09:18.484,27.3126,53.6877
14:09:18.488,24.8751,49.6252
14:09:18.498,22.0626,45.1252
14:09:18.508,20.4376,41.8127
14:09:18.518,18.3126,38.4376
14:09:18.547,15.6876,35.4376
14:09:18.549,14.3126,30.5001
14:09:18.553,12.0625,27.0626
14:09:18.558,10.375,23.0626
14:09:18.585,7.6875,19.8126
14:09:18.588,5.8125,15.8126
14:09:18.590,3.625,11.75
14:09:18.626,1.5625,8
14:09:18.629,-0.75,2.8125
14:09:18.632,-2.5,-0.6875
14:09:18.633,-4.8125,-5
14:09:18.638,-6.625,-9
14:09:18.652,-8.4375,-12.5625
14:09:18.658,-10.9375,-16.2501
14:09:18.704,-12.3125,-19.6251
14:09:18.705,-14.5001,-24.2501
14:09:18.708,-16.5001,-27.8126
14:09:18.713,-18.3751,-30.7501
14:09:18.714,-20.3751,-35.4376
14:09:18.718,-21.6251,-37.9376
14:09:18.730,-22.9376,-42.1252
14:09:18.738,-24.3751,-45.3127
14:09:18.749,-26.6251,-48.0002
14:09:18.759,-28.0001,-52.1877
14:09:18.768,-29.5626,-54.1252
14:09:18.778,-30.8751,-58.5002
14:09:18.788,-32.8751,-60.1877
14:09:18.800,-33.8751,-63.8127
14:09:18.808,-33.6876,-66.5003
14:09:18.818,-36.0001,-68.8753
14:09:18.828,-37.3751,-72.8128
14:09:18.838,-38.5626,-73.6878
14:09:18.848,-39.3752,-77.4378
14:09:18.860,-40.7502,-79.1253
14:09:18.869,-42.9377,-82.2503
14:09:18.878,-43.7502,-83.5003
14:09:18.888,-45.1252,-87.1253
14:09:18.898,-46.4377,-89.6253
14:09:18.908,-47.8752,-90.5628
14:09:18.919,-47.8752,-93.6879
14:09:18.928,-48.0627,-94.6254
14:09:18.938,-49.2502,-96.5629
14:09:18.948,-49.9377,-98.5004
14:09:18.958,-51.0627,-100.1879
14:09:18.969,-50.5002,-101.6879
14:09:18.978,-51.1877,-101.1879
14:09:18.988,-49.5627,-99.8129
14:09:18.998,-45.8127,-92.3129
14:09:19.008,-40.3752,-83.8128
14:09:19.019,-32.1251,-70.1878
14:09:19.028,-24.4376,-54.2502
14:09:19.038,-15.0626,-39.1877
14:09:19.048,-6.8125,-22.8751
14:09:19.058,1.375,-5.9375
14:09:19.068,9.9375,8.5
14:09:19.078,16.9376,23.3126
14:09:19.088,23.8751,35.3751
14:09:19.098,29.6876,47.6877
14:09:19.108,34.0001,56.3752
14:09:19.118,38.3126,65.7503
14:09:19.128,41.5002,73.1253
14:09:19.140,44.8127,78.0003
14:09:19.148,46.1252,83.6253
14:09:19.158,47.5002,85.7503
14:09:19.168,49.4377,88.4378
14:09:19.178,49.8127,88.8753
14:09:19.188,50.1252,89.7503
14:09:19.198,48.6877,89.1878
14:09:19.213,47.5627,86.4378
14:09:19.223,45.9377,83.8128
