timestamp,Red,IR
13:06:36.353,21.8751,15.8751
13:06:36.358,21.2501,16.3751
13:06:36.366,20.5001,17.5001
13:06:36.380,19.9376,16.8751
13:06:36.400,19.0001,18.8126
13:06:36.402,19.8126,17.7501
13:06:36.435,19.0626,17.2501
13:06:36.439,19.2501,18.3751
13:06:36.440,19.5001,18.9376
13:06:36.444,20.0001,19.2501
13:06:36.449,19.0626,18.9376
13:06:36.483,17.8751,18.8126
13:06:36.485,16.8751,17.6251
13:06:36.488,15.2501,15.9376
13:06:36.492,12.6875,13.1251
13:06:36.519,9.625,10.5625
13:06:36.521,8.875,7.375
13:06:36.526,6.3125,5.1875
13:06:36.527,5.0625,3.0625
13:06:36.559,3.9375,0.3125
13:06:36.562,2.1875,-1.25
13:06:36.564,0.8125,-3.875
13:06:36.566,0,-5.5625
13:06:36.577,-0.5,-6.3125
13:06:36.587,-1.6875,-6.6875
13:06:36.599,-2.0625,-7.5
13:06:36.607,-2.4375,-9.25
13:06:36.616,-4.4375,-9.9375
13:06:36.627,-5.8125,-11.625
13:06:36.636,-6.3125,-14.4376
13:06:36.649,-8.3125,-15.7501
13:06:36.658,-10,-18.5001
13:06:36.666,-12.625,-21.1876
13:06:36.677,-14.8126,-23.4376
13:06:36.688,-16.6251,-27.2501
13:06:36.696,-19.7501,-29.1251
13:06:36.708,-21.9376,-31.8126
13:06:36.716,-23.3751,-35.0626
13:06:36.728,-24.2501,-35.6876
13:06:36.737,-26.1251,-36.8126
13:06:36.746,-27.1251,-40.2502
13:06:36.757,-27.5626,-41.6877
13:06:36.768,-29.7501,-43.5627
13:06:36.776,-30.6876,-45.5002
13:06:36.786,-31.9376,-47.0627
13:06:36.806,-32.9376,-49.1877
13:06:36.809,-32.6251,-49.1252
13:06:36.853,-33.7501,-51.5002
13:06:36.855,-33.4376,-51.4377
13:06:36.870,-34.8126,-51.7502
13:06:36.874,-34.8751,-53.7502
13:06:36.875,-34.9376,-55.5002
13:06:36.875,-37.4376,-57.0002
13:06:36.882,-38.0001,-59.1252
13:06:36.894,-40.0002,-60.8127
13:06:36.901,-41.2502,-63.6252
13:06:36.913,-41.6877,-65.0002
13:06:36.922,-43.7502,-64.9377
13:06:36.933,-43.7502,-67.6878
13:06:36.941,-43.4377,-68.0628
13:06:36.953,-43.3127,-68.2503
13:06:36.961,-42.4377,-67.5628
13:06:36.973,-39.3127,-66.5003
13:06:36.982,-36.1251,-60.0627
13:06:36.992,-29.8751,-54.7502
13:06:37.001,-23.3751,-44.6877
13:06:37.014,-17.9376,-36.2501
13:06:37.023,-12.5,-27.7501
13:06:37.033,-7.75,-18.8751
13:06:37.042,-2.8125,-9
13:06:37.052,-2,-5.1875
13:06:37.063,-0.6875,-2.4375
13:06:37.074,-1.5625,-0.5
13:06:37.083,-1.625,-0.25
13:06:37.092,-3.0625,0.8125
13:06:37.102,-3.125,-0.25
13:06:37.126,-4.1875,0.5
13:06:37.166,-3.5,-0.125
13:06:37.169,-4.875,0.375
13:06:37.203,-4.5,-0.8125
13:06:37.236,-5.625,0.8125
13:06:37.236,-5.125,-0.5625
13:06:37.236,-6.3125,0.25
13:06:37.238,-6.0625,-1
13:06:37.241,-6.3125,-2.3125
13:06:37.244,-7.5,-2.5625
13:06:37.249,-9.6875,-6.3125
13:06:37.255,-11.625,-7.6875
13:06:37.285,-13.3126,-12.125
13:06:37.288,-14.1876,-12.9375
13:06:37.292,-15.2501,-16.1876
13:06:37.293,-16.7501,-16.9376
13:06:37.302,-17.3751,-19.3751
13:06:37.313,-18.3126,-20.0626
13:06:37.323,-16.7501,-19.9376
13:06:37.332,-17.1251,-20.6876
13:06:37.350,-17.1251,-21.5626
13:06:37.354,-17.4376,-21.0626
13:06:37.362,-17.7501,-22.1251
13:06:37.372,-22.7501,-29.6876
13:06:37.382,-23.6876,-31.4376
13:06:37.392,-24.8751,-34.0001
13:06:37.402,-26.8126,-37.0001
13:06:37.412,-28.0001,-38.8126
13:06:37.423,-29.3126,-40.9377
13:06:37.434,-29.6251,-42.0627
13:06:37.445,-30.7501,-43.6877
13:06:37.453,-31.1876,-43.9377
13:06:37.464,-32.2501,-45.9377
13:06:37.473,-32.3126,-46.1252
13:06:37.483,-32.3126,-48.3752
13:06:37.492,-32.3751,-48.3752
13:06:37.502,-33.0626,-50.3127
13:06:37.513,-32.8126,-49.7502
13:06:37.524,-32.2501,-51.2502
13:06:37.533,-31.5626,-51.1877
13:06:37.542,-31.8751,-52.4377
13:06:37.554,-32.3126,-52.6877
13:06:37.563,-31.2501,-53.1877
13:06:37.573,-31.5001,-52.8752
13:06:37.582,-31.3751,-54.0627
13:06:37.593,-32.2501,-54.8127
13:06:37.603,-32.6251,-55.8752
13:06:37.614,-32.2501,-56.6252
13:06:37.623,-32.9376,-56.9377
13:06:37.632,-32.6876,-57.7502
13:06:37.643,-33.1251,-58.3752
13:06:37.653,-33.2501,-59.9377
13:06:37.663,-33.8751,-59.4377
13:06:37.672,-33.4376,-60.0002
13:06:37.682,-32.8126,-59.5627
13:06:37.692,-32.1876,-60.4377
13:06:37.705,-31.1251,-60.0002
13:06:37.713,-30.0001,-60.3127
13:06:37.722,-26.6876,-55.6252
13:06:37.732,-20.6876,-50.2502
13:06:37.743,-13.6876,-39.2501
13:06:37.754,-5.8125,-30.1876
13:06:37.767,1.5,-18.8751
13:06:37.778,8.3125,-9.75
13:06:37.787,12,-0.25
13:06:37.797,15.3126,6.25
13:06:37.807,16.4376,10.125
13:06:37.817,16.7501,14.3751
13:06:37.828,16.6251,17.0626
13:06:37.838,16.5001,17.8751
13:06:37.847,15.5001,19.1251
13:06:37.857,14.7501,18.7501
13:06:37.884,13.6876,20.1251
13:06:37.886,13.1876,19.7501
13:06:37.889,12.3125,21.3751
13:06:37.919,12.8125,20.9376
13:06:37.921,11.625,22.5001
13:06:37.924,12.125,22.3751
13:06:37.929,11.5625,24.7501
13:06:37.968,11.75,24.0001
13:06:37.970,10.3125,24.8126
13:06:37.973,9.125,22.8126
13:06:37.981,6.8125,20.5001
13:06:37.981,4.375,18.9376
13:06:37.996,3.5,16.5626
13:06:38.000,1.8125,13.2501
13:06:38.029,-0.1875,10.375
13:06:38.031,-1.9375,8.6875
13:06:38.034,-3.25,6.9375
13:06:38.039,-3.5625,5.3125
13:06:38.071,-4.125,3.75
13:06:38.074,-4.3125,3.5
13:06:38.078,-4.0625,3.0625
13:06:38.081,-4.1875,2.25
13:06:38.087,-3.5625,1.75
13:06:38.100,-3.8125,1.5625
13:06:38.107,-3.0625,1.375
13:06:38.119,-3,0.4375
13:06:38.136,-2.5625,-1
13:06:38.144,-3,-2.3125
13:06:38.152,-3.375,-2.1875
13:06:38.158,-3.3125,-3.875
13:06:38.174,-3.4375,-5.5
13:06:38.180,-3,-5.6875
13:06:38.189,-3.4375,-7.5625
13:06:38.197,-3.5625,-9.1875
13:06:38.207,-4.4375,-10.8125
13:06:38.218,-4.9375,-11.875
13:06:38.228,-6.1875,-13.125
13:06:38.237,-6.5,-15.1251
13:06:38.247,-7.0625,-17.4376
13:06:38.257,-7.3125,-17.6251
13:06:38.268,-7.8125,-20.3751
13:06:38.278,-8.375,-21.6251
13:06:38.287,-9.8125,-23.2501
13:06:38.297,-11.625,-24.2501
13:06:38.308,-12.25,-26.1251
13:06:38.318,-12.625,-27.9376
13:06:38.328,-13.3126,-27.6876
13:06:38.337,-13.4376,-28.9376
13:06:38.347,-13.6251,-31.1251
13:06:38.357,-14.0626,-30.9376
13:06:38.369,-14.7501,-32.7501
13:06:38.378,-15.6251,-33.1251
13:06:38.387,-16.0626,-35.8126
13:06:38.397,-16.6876,-35.6876
13:06:38.407,-17.6251,-36.5626
13:06:38.418,-17.9376,-38.0001
13:06:38.427,-17.9376,-37.7501
13:06:38.438,-18.4376,-39.4377
13:06:38.449,-18.7501,-39.4377
13:06:38.458,-19.0001,-41.0002
13:06:38.468,-20.1251,-41.5627
13:06:38.486,-20.1251,-42.6252
13:06:38.489,-19.6876,-43.2502
13:06:38.505,-18.6251,-42.1877
13:06:38.519,-18.3126,-43.6252
13:06:38.522,-17.0626,-42.8752
13:06:38.537,-16.2501,-42.2502
13:06:38.539,-12.75,-38.4376
13:06:38.548,-6.9375,-32.1251
13:06:38.558,0.1875,-22.3751
13:06:38.570,7.6875,-12.5625
13:06:38.578,14.8751,-1.75
13:06:38.588,21.3126,7.875
13:06:38.598,26.1876,16.9376
13:06:38.610,28.4376,22.6876
13:06:38.618,29.8751,27.3751
13:06:38.649,29.1876,29.3751
13:06:38.651,28.5001,31.5001
13:06:38.654,27.6251,32.9376
13:06:38.659,26.3126,32.5001
13:06:38.689,25.0001,33.4376
13:06:38.692,24.8126,32.7501
13:06:38.695,24.0626,33.2501
13:06:38.698,23.3751,33.3126
13:06:38.735,22.2501,33.5626
13:06:38.739,22.3126,33.7501
13:06:38.740,21.9376,33.6876
13:06:38.745,21.3126,34.5626
13:06:38.753,20.9376,34.3751
13:06:38.777,20.6876,34.5001
13:06:38.779,19.7501,32.8126
13:06:38.782,18.3751,32.0001
13:06:38.789,16.6876,30.2501
13:06:38.806,14.9376,26.6876
13:06:38.809,13.3126,24.0626
13:06:38.818,11.8125,20.7501
13:06:38.827,9.3125,20.0001
13:06:38.837,9,16.8751
13:06:38.852,8.8125,15.7501
13:06:38.858,7.4375,13.7501
13:06:38.867,6.9375,14.1251
13:06:38.878,6.625,12.75
13:06:38.888,8.0625,11.25
13:06:38.898,8.1875,10.875
13:06:38.909,7.5625,9
13:06:38.917,7.75,9.875
13:06:38.927,7.75,8.1875
13:06:38.938,7.625,6.875
13:06:38.947,6.625,5.375
13:06:38.958,6.75,4.4375
13:06:38.968,7.0625,2.75
13:06:38.978,6.125,0.75
13:06:38.987,5.3125,0.9375
13:06:38.999,5.5625,-2.25
13:06:39.008,5.75,-4.375
13:06:39.018,6.0625,-3.5625
13:06:39.027,7.5625,-3.75
13:06:39.038,8.625,-4.9375
13:06:39.049,8.125,-7.125
13:06:39.058,8.25,-7.9375
13:06:39.068,7.8125,-10
13:06:39.077,6.5625,-11.8125
13:06:39.088,5.875,-12.25
13:06:39.098,6.25,-13.6876
13:06:39.108,5.8125,-15.6876
13:06:39.118,5.375,-16.0626
13:06:39.127,5.5,-17.5001
13:06:39.138,5.4375,-18.8751
13:06:39.149,5.1875,-19.8751
13:06:39.158,5.6875,-19.8126
13:06:39.168,5,-21.1876
13:06:39.178,5.3125,-21.5626
13:06:39.188,6.1875,-22.0001
13:06:39.198,6.4375,-22.5626
13:06:39.208,7.3125,-22.4376
13:06:39.217,7.4375,-22.9376
13:06:39.227,7.0625,-23.5001
13:06:39.237,7.5,-24.6251
13:06:39.248,6.9375,-25.2501
13:06:39.258,6.8125,-25.6876
13:06:39.268,6.4375,-27.1876
13:06:39.278,5.0625,-28.0001
13:06:39.287,5,-28.0626
13:06:39.298,5.625,-29.1876
13:06:39.308,6.5625,-29.2501
13:06:39.317,7.0625,-27.6876
13:06:39.354,7.5625,-29.1251
13:06:39.357,9.125,-27.8126
13:06:39.359,9.8125,-28.0001
13:06:39.384,10.75,-27.2501
13:06:39.386,12.5625,-27.2501
13:06:39.388,12.1875,-27.6876
13:06:39.393,13.2501,-27.8751
13:06:39.421,13.0625,-28.4376
13:06:39.424,15.1251,-26.3751
13:06:39.427,20.6251,-19.0626
13:06:39.488,27.3126,-11.625
13:06:39.489,35.7501,-0.625
13:06:39.492,43.0627,9.8125
13:06:39.496,49.3752,20.1876
13:06:39.500,55.2502,28.1251
13:06:39.500,57.5002,33.7501
13:06:39.505,58.0002,37.5001
13:06:39.523,58.7502,41.3752
13:06:39.524,59.2502,43.3752
13:06:39.532,58.8127,44.6877
13:06:39.543,59.2502,46.4377
13:06:39.553,59.0627,46.9377
13:06:39.565,59.1877,47.5627
13:06:39.573,58.8752,48.0627
13:06:39.583,58.1252,48.0627
13:06:39.594,57.0627,48.7502
13:06:39.603,56.7502,49.6877
13:06:39.613,55.2502,49.3127
13:06:39.623,53.7502,49.8752
13:06:39.632,53.3752,50.4377
13:06:39.642,52.6877,49.5627
13:06:39.652,52.3127,49.3127
13:06:39.664,49.3127,48.4377
13:06:39.673,48.0002,44.5002
13:06:39.684,45.7502,42.9377
13:06:39.692,44.7502,41.8127
13:06:39.702,44.0002,39.6877
13:06:39.713,42.7502,38.1251
13:06:39.722,41.3752,37.3751
13:06:39.732,40.3127,36.1876
13:06:39.743,39.5627,34.2501
13:06:39.752,39.1877,35.5001
13:06:39.763,39.0626,34.1876
13:06:39.774,37.6251,33.0001
13:06:39.782,36.0001,32.6876
13:06:39.804,34.7501,30.8751
13:06:39.806,31.8751,26.8126
13:06:39.822,29.2501,25.0001
13:06:39.824,27.6876,21.1251
13:06:39.833,24.5626,17.9376
13:06:39.842,21.5626,15.7501
13:06:39.852,19.0001,13.0625
13:06:39.864,16.1251,9.25
13:06:39.872,13.1876,7
13:06:39.883,11.6875,4.125
13:06:39.892,8.5625,1.4375
13:06:39.904,5.75,-0.875
13:06:39.913,4.125,-3.8125
13:06:39.922,2.1875,-6.1875
13:06:39.932,-1.0625,-8.5625
13:06:39.942,-2.3125,-11.0625
13:06:39.955,-3.875,-12.625
13:06:39.963,-5,-14.0001
13:06:39.975,-6.0625,-14.4376
13:06:39.985,-6.875,-15.3126
13:06:39.993,-6.8125,-17.3126
13:06:40.004,-8.625,-19.6876
13:06:40.013,-10.6875,-20.8751
13:06:40.022,-12,-22.0626
13:06:40.032,-12.875,-24.8751
13:06:40.044,-14.8751,-26.1251
13:06:40.053,-15.1251,-26.6251
13:06:40.063,-16.3126,-28.5626
13:06:40.100,-16.5626,-29.5626
13:06:40.105,-16.5626,-30.5626
13:06:40.105,-17.6251,-31.4376
13:06:40.108,-17.0001,-32.1251
13:06:40.139,-17.1876,-32.4376
13:06:40.142,-16.0626,-32.5001
13:06:40.144,-16.0626,-32.5001
13:06:40.149,-12.8125,-30.6251
13:06:40.154,-8.3125,-25.0001
13:06:40.183,-1.6875,-18.2501
13:06:40.185,4.625,-9.375
13:06:40.189,13.3126,0
13:06:40.193,19.7501,9.875
13:06:40.222,25.8751,17.5001
13:06:40.225,29.0001,24.4376
13:06:40.227,31.9376,29.5001
13:06:40.233,33.1251,32.3126
13:06:40.257,34.6876,37.6876
13:06:40.259,35.9376,38.4376
13:06:40.264,35.8126,40.9377
13:06:40.273,35.1876,40.6252
13:06:40.283,35.3126,42.1877
13:06:40.292,37.2501,43.8127
13:06:40.303,40.0627,47.5627
13:06:40.317,41.6877,48.8127
13:06:40.323,43.0002,50.7502
13:06:40.333,41.4377,51.8752
13:06:40.343,41.5002,52.1252
13:06:40.358,38.7501,49.0627
13:06:40.363,34.1876,46.6252
13:06:40.374,31.8751,44.6252
13:06:40.383,31.1876,43.3127
13:06:40.393,30.6251,42.2502
13:06:40.404,31.0001,40.3752
13:06:40.414,29.9376,38.0001
13:06:40.422,28.5626,35.3126
13:06:40.433,26.8751,33.5001
13:06:40.444,24.1251,30.0001
13:06:40.454,20.8126,27.3126
13:06:40.462,17.1876,25.3126
13:06:40.472,14.7501,21.9376
13:06:40.483,12.75,19.4376
13:06:40.494,10.9375,18.7501
13:06:40.504,10.125,16.6876
13:06:40.514,8.4375,14.5626
13:06:40.523,7.1875,14.5001
13:06:40.533,5.875,11.5625
13:06:40.545,4.625,9.375
13:06:40.554,4,6.8125
13:06:40.562,3.375,6
13:06:40.573,3.375,4.0625
13:06:40.584,2.4375,0.6875
13:06:40.592,1.3125,-0.125
13:06:40.604,0.0625,-2.25
13:06:40.630,-1.875,-6
13:06:40.632,-4.375,-8.3125
13:06:40.637,-6.25,-10.5625
13:06:40.643,-8.3125,-14.1876
13:06:40.654,-10.5625,-16.4376
13:06:40.663,-12.5,-19.1251
13:06:40.674,-13.5001,-22.1251
13:06:40.682,-14.5001,-24.4376
13:06:40.695,-15.3126,-26.1251
13:06:40.703,-16.0626,-27.3751
13:06:40.714,-16.9376,-29.1876
13:06:40.723,-16.1251,-30.5001
13:06:40.732,-17.5001,-32.5626
13:06:40.744,-18.8126,-33.1251
13:06:40.753,-19.6251,-36.0001
13:06:40.770,-22.1876,-39.0626
13:06:40.784,-24.0626,-40.0002
13:06:40.787,-25.5001,-42.5627
13:06:40.802,-26.7501,-43.4377
13:06:40.804,-27.7501,-45.0627
13:06:40.844,-29.1251,-45.8127
13:06:40.847,-30.3126,-47.0627
13:06:40.851,-31.6876,-47.6877
13:06:40.853,-34.3751,-49.8752
13:06:40.858,-35.4376,-50.2502
13:06:40.864,-35.6876,-50.6252
13:06:40.891,-34.1876,-48.5002
13:06:40.894,-32.2501,-48.7502
13:06:40.897,-29.0626,-46.9377
13:06:40.933,-25.6876,-44.1877
13:06:40.936,-20.3751,-40.6252
13:06:40.938,-15.5001,-37.1876
13:06:40.942,-10.1875,-31.8126
13:06:40.945,-2.625,-23.8126
13:06:40.973,4.9375,-15.3126
13:06:40.977,14.0626,-3.9375
13:06:40.979,20.3126,8.125
13:06:40.985,27.0001,16.5626
13:06:40.994,31.6876,25.5626
13:06:41.004,33.1251,31.2501
13:06:41.013,33.8126,35.9376
13:06:41.024,32.6876,39.0626
13:06:41.035,32.3751,41.0002
13:06:41.043,32.4376,44.2502
13:06:41.054,32.2501,44.6877
13:06:41.064,32.6251,46.4377
13:06:41.074,32.1251,48.5002
13:06:41.084,32.1876,47.8127
13:06:41.101,30.6251,48.1252
13:06:41.119,28.0626,46.5627
13:06:41.122,25.9376,46.8127
13:06:41.125,23.3751,46.3752
13:06:41.134,21.8126,46.8752
13:06:41.144,20.3751,45.3752
13:06:41.154,18.4376,46.5002
13:06:41.164,17.4376,44.5002
13:06:41.174,15.4376,43.1252
13:06:41.184,12.625,40.0002
13:06:41.194,7.6875,36.8751
13:06:41.204,3.0625,31.6876
13:06:41.214,-2.125,26.5626
13:06:41.224,-5.875,24.1251
13:06:41.234,-8.4375,20.6251
13:06:41.244,-10.375,17.0001
13:06:41.254,-12.625,13.9376
13:06:41.264,-14.0001,13.3126
13:06:41.274,-16.2501,11.9375
13:06:41.284,-17.9376,9.3125
13:06:41.294,-18.8751,6.8125
13:06:41.304,-20.8126,4.8125
13:06:41.314,-22.6876,3.75
13:06:41.324,-22.8751,4.125
13:06:41.334,-22.7501,2.25
13:06:41.344,-22.7501,1.3125
13:06:41.354,-23.0001,1.4375
13:06:41.364,-23.1876,-1.125
13:06:41.374,-25.8126,-3.125
13:06:41.384,-27.8126,-5.9375
13:06:41.394,-29.1876,-7.875
13:06:41.404,-31.4376,-9.25
13:06:41.414,-32.1251,-10.5625
13:06:41.424,-33.9376,-13.5626
13:06:41.434,-34.9376,-14.7501
13:06:41.444,-36.7501,-17.1876
13:06:41.454,-38.5626,-18.8126
13:06:41.465,-39.5627,-20.7501
13:06:41.474,-41.3752,-22.8751
13:06:41.484,-43.6877,-24.7501
13:06:41.494,-45.7502,-26.1876
13:06:41.504,-47.5002,-28.9376
13:06:41.514,-48.9377,-29.6876
13:06:41.524,-49.3127,-32.2501
13:06:41.534,-48.6877,-32.0001
13:06:41.565,-47.3752,-32.1876
13:06:41.568,-44.9377,-31.6251
13:06:41.570,-42.8752,-32.4376
13:06:41.575,-41.1252,-31.3751
13:06:41.604,-39.5002,-32.3126
13:06:41.606,-37.8126,-31.6251
13:06:41.609,-37.1251,-32.3751
13:06:41.635,-35.6251,-32.0626
13:06:41.638,-34.4376,-32.1876
13:06:41.640,-34.1251,-33.2501
13:06:41.645,-35.1251,-34.6251
13:06:41.687,-34.2501,-36.2501
13:06:41.690,-34.3126,-36.5626
13:06:41.692,-33.1251,-37.6251
13:06:41.694,-32.0626,-38.0626
13:06:41.696,-29.7501,-36.6251
13:06:41.725,-27.1251,-35.9376
13:06:41.727,-25.7501,-36.5626
13:06:41.729,-23.5001,-34.9376
13:06:41.737,-22.4376,-36.1876
13:06:41.746,-21.1251,-36.6251
13:06:41.754,-21.3751,-36.6876
13:06:41.764,-18.8751,-36.5626
13:06:41.774,-16.0001,-32.3126
13:06:41.789,-9.9375,-27.1876
13:06:41.799,-2.125,-17.7501
13:06:41.809,4.875,-7.6875
13:06:41.819,12.375,0.4375
13:06:41.829,19.1876,10.25
13:06:41.839,24.1251,17.5626
13:06:41.849,28.0626,23.6251
13:06:41.857,29.6876,28.8126
13:06:41.869,31.0001,30.3751
13:06:41.880,31.8751,31.5626
13:06:41.910,32.0626,33.3751
13:06:41.914,33.5626,33.3126
13:06:41.915,33.3126,34.0626
13:06:41.922,33.5626,33.0626
13:06:41.929,33.9376,33.3126
13:06:41.939,33.3751,32.1876
13:06:41.949,34.9376,34.4376
13:06:41.959,34.5001,33.8126
13:06:41.969,33.8126,32.5001
13:06:41.979,33.8751,34.3751
13:06:41.989,34.6876,33.3751
13:06:41.999,34.5626,34.0626
13:06:42.009,35.2501,33.7501
13:06:42.019,34.3126,31.2501
13:06:42.029,32.3751,27.8751
13:06:42.039,30.5626,25.6876
13:06:42.049,28.7501,22.5001
13:06:42.065,27.0001,19.2501
13:06:42.080,26.2501,17.1251
13:06:42.083,25.8751,15.2501
13:06:42.089,25.1251,14.5626
13:06:42.099,26.3751,12.25
13:06:42.109,25.1876,11.3125
13:06:42.119,24.4376,10.375
13:06:42.129,24.8126,9.3125
13:06:42.139,24.6876,7.75
13:06:42.149,24.1251,5.625
13:06:42.159,23.7501,5.5625
13:06:42.169,23.4376,2.625
13:06:42.179,22.0626,0.75
13:06:42.189,20.9376,-0.5625
13:06:42.222,19.5626,-2.4375
13:06:42.225,19.2501,-5.125
13:06:42.227,17.3751,-7.6875
13:06:42.231,15.1251,-10.5625
13:06:42.261,14.1251,-12.125
13:06:42.263,13.5626,-11.75
13:06:42.265,13.5001,-13.3751
13:06:42.269,13.5626,-15.6251
13:06:42.300,13.125,-16.3751
13:06:42.302,12.8125,-16.0626
13:06:42.304,12.625,-18.0001
13:06:42.311,11.1875,-20.4376
13:06:42.324,8.25,-22.3126
13:06:42.331,5.125,-23.8751
13:06:42.360,4.1875,-27.2501
13:06:42.364,2.4375,-28.6251
13:06:42.364,0.9375,-29.6251
13:06:42.371,-0.375,-30.7501
13:06:42.386,-2.4375,-32.0626
13:06:42.390,-3.5625,-33.2501
13:06:42.404,-3.8125,-35.3751
13:06:42.420,-4.5625,-33.8126
13:06:42.423,-4.0625,-35.0001
13:06:42.429,-3.4375,-35.4376
13:06:42.439,-3.1875,-34.5001
13:06:42.449,-3.0625,-35.3751
13:06:42.459,-2.875,-35.1876
13:06:42.469,-2.1875,-35.1251
13:06:42.479,-1.375,-35.6251
13:06:42.489,0.1875,-34.9376
13:06:42.499,1.5625,-34.7501
13:06:42.509,1.9375,-34.2501
13:06:42.519,2.0625,-36.1251
13:06:42.529,1.4375,-36.1251
13:06:42.539,2.6875,-35.4376
13:06:42.549,5.8125,-31.9376
13:06:42.559,12.4375,-25.4376
13:06:42.569,19.1251,-17.2501
13:06:42.579,25.5626,-6.6875
13:06:42.589,32.6876,1.875
13:06:42.599,37.5626,11.375
13:06:42.614,42.6252,19.8751
13:06:42.624,46.2502,26.6251
13:06:42.634,49.3127,32.5626
13:06:42.644,51.7502,35.6251
13:06:42.655,53.0002,39.0627
13:06:42.664,54.3127,41.8127
13:06:42.674,54.7502,42.1252
13:06:42.684,55.6252,44.7502
13:06:42.694,55.6252,44.5002
13:06:42.704,53.3752,44.2502
13:06:42.714,52.4377,46.1877
13:06:42.724,53.5002,45.6252
13:06:42.734,53.1252,46.5627
13:06:42.744,54.1877,47.5002
13:06:42.759,55.8127,47.9377
13:06:42.765,56.2502,49.6877
13:06:42.774,57.3752,50.6252
13:06:42.784,57.9377,50.1877
13:06:42.794,56.6252,50.3127
13:06:42.805,53.8127,46.5002
13:06:42.814,49.6252,40.2502
13:06:42.824,46.1877,37.7501
13:06:42.834,44.1252,34.7501
13:06:42.844,43.0627,32.1251
13:06:42.854,42.0627,31.3751
13:06:42.864,43.0627,31.1876
13:06:42.874,41.8752,29.6876
13:06:42.884,40.7502,28.7501
13:06:42.894,40.1877,26.1876
13:06:42.904,39.9377,25.7501
13:06:42.914,39.0626,26.1251
13:06:42.924,39.7502,25.2501
13:06:42.955,40.3752,24.5001
13:06:42.957,40.3127,24.5626
13:06:42.959,37.1876,21.8126
13:06:42.964,34.8126,18.3751
13:06:43.004,34.8751,18.7501
13:06:43.009,37.4376,20.1876
13:06:43.009,38.1251,19.0001
13:06:43.012,35.3751,16.8126
13:06:43.042,33.0626,15.7501
13:06:43.044,32.3126,13.5001
13:06:43.049,31.8126,11.0625
13:06:43.051,31.2501,9.625
13:06:43.060,32.5001,9.5625
13:06:43.066,34.3126,8.625
13:06:43.092,35.0626,9.6875
13:06:43.094,35.2501,8.5
13:06:43.097,34.7501,7.8125
13:06:43.105,33.5626,7.25
13:06:43.114,31.8126,6.3125
13:06:43.124,31.0001,4.25
13:06:43.134,28.6876,1.75
13:06:43.144,27.4376,1.6875
13:06:43.154,25.8751,2.8125
13:06:43.164,24.8751,-2.4375
13:06:43.191,21.3751,-5.3125
13:06:43.193,18.1876,-7.9375
13:06:43.196,15.6876,-10.3125
13:06:43.204,14.6251,-12.5
13:06:43.215,12.3125,-14.8751
13:06:43.224,11.1875,-15.2501
13:06:43.234,10.75,-16.6876
13:06:43.244,11.4375,-18.1251
13:06:43.254,11.1875,-19.0626
13:06:43.264,11.375,-18.5001
13:06:43.274,9.8125,-21.3126
13:06:43.285,5.3125,-25.3751
13:06:43.294,2.375,-26.5626
13:06:43.304,2.75,-25.9376
13:06:43.315,5.625,-23.1251
13:06:43.325,9.875,-16.5626
13:06:43.334,16.2501,-8.5625
13:06:43.344,22.6876,0.875
13:06:43.364,29.9376,13.0625
13:06:43.370,36.5001,21.4376
13:06:43.386,41.2502,30.6876
13:06:43.389,45.5002,35.6876
13:06:43.394,46.6877,40.3752
13:06:43.404,47.8752,43.1877
13:06:43.414,47.1252,43.8127
13:06:43.424,45.8752,44.8127
13:06:43.434,44.0627,43.7502
13:06:43.446,42.9377,44.0002
13:06:43.455,43.1877,44.0627
13:06:43.464,43.3752,46.4377
13:06:43.474,44.6877,47.1252
13:06:43.484,43.3752,47.0627
13:06:43.494,42.5627,47.6877
13:06:43.510,42.0627,46.5002
13:06:43.514,39.8752,44.6252
13:06:43.524,38.5001,45.2502
13:06:43.534,36.8751,43.9377
13:06:43.544,35.8751,42.3127
13:06:43.554,33.7501,39.3752
13:06:43.564,30.6251,37.3126
13:06:43.574,28.6251,33.0626
13:06:43.584,25.0626,28.4376
13:06:43.594,22.6251,25.5626
13:06:43.604,20.8751,21.4376
13:06:43.614,18.6876,18.6876
13:06:43.624,17.2501,16.0626
13:06:43.634,15.5626,13.5001
13:06:43.666,15.3751,11.5625
13:06:43.669,14.8126,10.1875
13:06:43.671,15.3751,10.6875
13:06:43.675,15.5001,8.75
13:06:43.704,14.2501,7
13:06:43.707,14.1251,7.0625
13:06:43.737,13.3751,4.75
13:06:43.740,12.125,1.6875
13:06:43.742,10,-1.4375
13:06:43.742,8.25,-3.1875
13:06:43.746,6.9375,-5.25
13:06:43.777,6.125,-7.875
13:06:43.779,3.5625,-10.75
13:06:43.782,1.75,-11.8125
13:06:43.784,0.5,-15.3751
13:06:43.821,-1.375,-18.5626
13:06:43.825,-3.0625,-20.6876
13:06:43.828,-4.75,-23.1876
13:06:43.832,-6.3125,-26.0001
13:06:43.837,-7.375,-25.7501
13:06:43.846,-8.375,-28.1251
13:06:43.854,-8.9375,-30.4376
13:06:43.864,-9.8125,-32.0626
13:06:43.875,-11.3125,-34.0001
13:06:43.884,-12.3125,-36.2501
13:06:43.894,-13.3126,-38.1876
13:06:43.905,-12.8125,-37.3751
13:06:43.914,-13,-39.2501
13:06:43.924,-13.3126,-39.6252
13:06:43.934,-14.0001,-40.7502
13:06:43.946,-15.6251,-42.0627
13:06:43.954,-15.2501,-43.8127
13:06:43.964,-16.7501,-44.4377
13:06:43.974,-17.5001,-44.8127
13:06:43.984,-18.2501,-47.5627
13:06:43.995,-19.2501,-48.1252
13:06:44.004,-19.5626,-50.0002
13:06:44.014,-21.1876,-50.0627
13:06:44.025,-21.2501,-52.4377
13:06:44.034,-22.1876,-53.8752
13:06:44.044,-23.3751,-54.2502
13:06:44.054,-23.3751,-55.8752
13:06:44.064,-25.2501,-55.9377
13:06:44.074,-25.3751,-58.3127
13:06:44.084,-26.2501,-58.2502
13:06:44.094,-26.6876,-60.6252
13:06:44.104,-26.5626,-60.0627
13:06:44.114,-26.6251,-61.0002
13:06:44.125,-25.6251,-61.8127
13:06:44.135,-26.0001,-61.8127
13:06:44.144,-23.6876,-61.2502
13:06:44.155,-22.4376,-58.0627
13:06:44.165,-16.7501,-52.1877
13:06:44.174,-9.5625,-41.4377
13:06:44.184,-3,-33.8126
13:06:44.194,4.3125,-22.9376
13:06:44.205,9.5625,-12.3125
13:06:44.214,14.4376,-5.6875
13:06:44.224,17.2501,0.8125
13:06:44.236,17.9376,5.9375
13:06:44.244,17.5626,7.0625
13:06:44.259,17.5626,9.9375
13:06:44.265,16.1876,10.3125
13:06:44.274,15.5626,10.4375
13:06:44.285,14.3751,12.6875
13:06:44.294,13.3126,13.0625
13:06:44.306,13.8751,14.0626
13:06:44.315,13.4376,15.4376
13:06:44.324,13.8751,16.8126
13:06:44.334,15.0001,19.0626
13:06:44.345,14.6251,21.8751
13:06:44.354,15.7501,22.6251
13:06:44.364,16.2501,24.4376
13:06:44.374,17.4376,25.0626
13:06:44.385,15.9376,25.3751
13:06:44.394,15.1876,24.9376
13:06:44.404,14.9376,24.5626
13:06:44.416,12.75,22.3126
13:06:44.426,10,19.8126
13:06:44.434,6.875,17.6876
13:06:44.445,4.6875,13.5001
13:06:44.470,2.0625,9.5
13:06:44.472,-0.1875,6
13:06:44.475,-1.8125,5.25
13:06:44.507,-1.4375,2.5
13:06:44.509,-2.75,0.8125
13:06:44.512,-3,0.875
13:06:44.518,-2.9375,-0.6875
13:06:44.548,-3.6875,-1.3125
13:06:44.550,-4.3125,-2.625
13:06:44.553,-5.125,-3.25
13:06:44.560,-5.4375,-5.0625
13:06:44.569,-7.1875,-8.125
13:06:44.574,-8.875,-8.6875
13:06:44.606,-10.125,-11.1875
13:06:44.607,-11.75,-13.8751
13:06:44.609,-13.1876,-16.0626
13:06:44.616,-14.8126,-17.3126
13:06:44.624,-15.4376,-20.4376
13:06:44.648,-17.8751,-23.2501
13:06:44.651,-19.3126,-23.8751
13:06:44.666,-20.4376,-26.8751
13:06:44.669,-21.5626,-27.8126
13:06:44.684,-21.9376,-30.0001
13:06:44.686,-22.8751,-31.8126
13:06:44.695,-23.6251,-33.4376
13:06:44.704,-24.6251,-34.8126
13:06:44.715,-25.1876,-35.9376
13:06:44.724,-25.6876,-37.0626
13:06:44.735,-25.8126,-39.0627
13:06:44.745,-27.2501,-40.5627
13:06:44.755,-28.6876,-41.7502
13:06:44.765,-29.3751,-43.6252
13:06:44.775,-29.8126,-43.6252
13:06:44.784,-30.3751,-46.5002
13:06:44.795,-31.3126,-46.0002
13:06:44.805,-31.7501,-47.9377
13:06:44.814,-32.2501,-49.0627
13:06:44.825,-32.3751,-49.7502
13:06:44.835,-32.5001,-50.0627
13:06:44.845,-32.6251,-50.8752
13:06:44.856,-32.5626,-51.6252
13:06:44.865,-32.1876,-53.1877
13:06:44.875,-31.8126,-52.1877
13:06:44.886,-31.7501,-55.0627
13:06:44.896,-32.2501,-56.0002
13:06:44.906,-31.4376,-55.6877
13:06:44.915,-30.8126,-56.5002
13:06:44.925,-29.8751,-56.1252
13:06:44.937,-29.0001,-55.9377
13:06:44.945,-27.6251,-56.3127
13:06:44.956,-28.5001,-56.9377
13:06:44.965,-29.0001,-57.5002
13:06:44.974,-29.3126,-59.2502
13:06:44.986,-29.4376,-59.6877
13:06:45.004,-30.3751,-59.5002
13:06:45.023,-29.8751,-60.9377
13:06:45.026,-30.3751,-60.2502
13:06:45.032,-30.5626,-61.3127
13:06:45.035,-31.4376,-62.9377
13:06:45.046,-31.5626,-62.8127
13:06:45.055,-31.9376,-63.3127
13:06:45.065,-32.8751,-64.9377
13:06:45.075,-33.6251,-64.1877
13:06:45.084,-34.2501,-66.0628
13:06:45.095,-34.7501,-66.4378
13:06:45.105,-34.7501,-65.7503
13:06:45.115,-34.0001,-65.9378
13:06:45.125,-32.3126,-65.5628
13:06:45.136,-32.6251,-65.1877
13:06:45.146,-33.0001,-67.0003
13:06:45.155,-31.1251,-64.0002
13:06:45.165,-23.7501,-58.0627
13:06:45.197,-19.1251,-50.2502
13:06:45.201,-11.5,-40.6252
13:06:45.205,-4.75,-29.5626
13:06:45.207,1.3125,-20.6876
13:06:45.245,6.875,-11.9375
13:06:45.248,10,-4.9375
13:06:45.251,12.3125,-0.1875
13:06:45.256,12.625,2.5
13:06:45.257,11.9375,5
13:06:45.265,12.625,5.625
13:06:45.291,11.9375,6.25
13:06:45.298,11.4375,8.125
13:06:45.298,10.9375,8.375
13:06:45.328,11.8125,9.25
13:06:45.330,12.375,10.5
13:06:45.332,14.1251,13.6876
13:06:45.335,14.6251,14.1876
13:06:45.350,15.7501,16.6251
13:06:45.354,16.5001,18.3126
13:06:45.365,16.6251,18.8126
13:06:45.376,16.9376,20.5001
13:06:45.388,17.6251,20.3126
13:06:45.397,17.7501,20.6251
13:06:45.431,17.3126,21.9376
13:06:45.436,17.5626,20.6251
13:06:45.436,16.8126,18.8751
13:06:45.441,16.1251,17.6876
13:06:45.451,16.2501,16.3126
13:06:45.460,15.3126,13.6876
13:06:45.470,13.0625,11.125
13:06:45.480,11.8125,9.9375
13:06:45.490,11,7.1875
13:06:45.503,10.25,5.125
13:06:45.510,10.3125,4.875
13:06:45.520,9.0625,4.3125
13:06:45.530,8.6875,3.5625
13:06:45.541,8.125,1.4375
13:06:45.551,6.4375,0.9375
13:06:45.561,5.3125,-1.4375
13:06:45.570,2.8125,-3.875
13:06:45.580,1.375,-5.625
13:06:45.590,-0.25,-7.75
13:06:45.602,-1.625,-9
13:06:45.612,-3.5,-12.625
13:06:45.620,-5.625,-14.7501
13:06:45.630,-8.125,-17.6876
13:06:45.641,-10.3125,-19.3751
13:06:45.651,-12.875,-21.3126
13:06:45.661,-13.8751,-24.4376
13:06:45.670,-16.1876,-25.7501
13:06:45.680,-17.5001,-27.6251
13:06:45.690,-19.0626,-29.0626
13:06:45.702,-20.1876,-31.2501
13:06:45.710,-22.4376,-33.3751
13:06:45.720,-23.7501,-35.1251
13:06:45.750,-24.4376,-36.7501
13:06:45.753,-25.9376,-38.3751
13:06:45.756,-26.2501,-39.5627
13:06:45.761,-27.8751,-41.0002
13:06:45.776,-28.8126,-42.6252
13:06:45.780,-29.4376,-43.6252
13:06:45.790,-30.4376,-45.4377
13:06:45.805,-30.6876,-46.2502
13:06:45.816,-31.8751,-45.5002
13:06:45.825,-31.9376,-47.7502
13:06:45.835,-33.1251,-47.1877
13:06:45.845,-33.5626,-49.3752
13:06:45.855,-33.1251,-49.7502
13:06:45.865,-34.4376,-50.5627
13:06:45.877,-34.1876,-50.6252
13:06:45.908,-34.6251,-50.1877
13:06:45.910,-35.6876,-52.3127
13:06:45.913,-35.5626,-51.8127
13:06:45.915,-35.7501,-52.4377
13:06:45.948,-35.8126,-52.4377
13:06:46.021,-36.1251,-51.7502
13:06:46.026,-35.9376,-53.3127
13:06:46.027,-36.0001,-53.3127
13:06:46.054,-36.8126,-54.5002
13:06:46.054,-36.3126,-54.1877
13:06:46.054,-35.1876,-54.0627
13:06:46.056,-35.5001,-54.5002
13:06:46.059,-34.1876,-54.8752
13:06:46.064,-33.3751,-53.8752
13:06:46.070,-31.9376,-54.3127
13:06:46.080,-32.0001,-53.1877
13:06:46.091,-30.0626,-53.0627
13:06:46.101,-29.5626,-52.3752
13:06:46.110,-28.3751,-52.8752
13:06:46.120,-28.7501,-52.1252
13:06:46.130,-28.5626,-52.5002
13:06:46.141,-27.2501,-53.3752
13:06:46.152,-26.4376,-51.7502
13:06:46.162,-24.9376,-51.6252
13:06:46.170,-24.0626,-51.4377
13:06:46.180,-23.3751,-52.0627
13:06:46.191,-22.6251,-51.1252
13:06:46.200,5.1875,-19.2501
13:06:46.210,10.5625,-10.875
13:06:46.220,15.6251,-3.5625
13:06:46.230,18.0626,2.625
13:06:46.241,19.3126,6.625
13:06:46.251,19.8126,9
13:06:46.260,18.9376,11.25
13:06:46.270,17.1876,11.1875
13:06:46.281,15.7501,10.5
13:06:46.298,14.1251,11.375
13:06:46.312,13.0625,10.8125
13:06:46.316,12.1875,9.6875
13:06:46.330,12.25,10.875
13:06:46.334,11.5625,10.5625
13:06:46.342,12.125,12.625
13:06:46.351,12.5,13.5001
13:06:46.360,11.625,14.6876
13:06:46.370,11.75,15.6251
13:06:46.380,11.5,16.3126
13:06:46.392,11.4375,17.2501
13:06:46.400,11.375,17.8751
13:06:46.410,11.1875,18.3126
13:06:46.420,11.25,17.6876
13:06:46.430,9.6875,15.8126
13:06:46.441,7.0625,13.5626
13:06:46.450,5.375,12.125
13:06:46.460,4.125,9.3125
13:06:46.470,4.375,8.625
13:06:46.480,4,7.0625
13:06:46.490,4.25,7
13:06:46.501,4.0625,7
13:06:46.510,4.0625,7.3125
13:06:46.528,4.75,6.9375
13:06:46.530,5.0625,5.875
13:06:46.540,5.125,5.8125
13:06:46.550,5,6.1875
13:06:46.561,6.0625,5.4375
13:06:46.570,6.1875,4.25
13:06:46.608,4.875,3.0625
13:06:46.610,3.1875,1.5
13:06:46.614,1.875,0.1875
13:06:46.614,1.5625,-2.125
13:06:46.645,-0.1875,-3.9375
13:06:46.646,-1.0625,-4.8125
13:06:46.649,-2.0625,-5.8125
13:06:46.651,-1.9375,-7.25
13:06:46.686,-3.75,-9.9375
13:06:46.690,-4.5625,-10.3125
13:06:46.692,-5.875,-11.25
13:06:46.694,-6,-13.6251
13:06:46.701,-7.0625,-14.6876
13:06:46.732,-7.375,-15.8126
13:06:46.734,-7.4375,-16.1251
13:06:46.737,-7.9375,-16.1876
13:06:46.741,-7.625,-16.3751
13:06:46.760,-7.5,-17.6876
13:06:46.768,-7.9375,-18.6251
13:06:46.771,-7.8125,-19.3126
13:06:46.780,-7.625,-19.1251
13:06:46.791,-7.4375,-20.1876
13:06:46.802,-7.25,-20.6251
13:06:46.810,-7.8125,-21.6251
13:06:46.821,-8.125,-22.1251
13:06:46.830,-8.625,-23.6251
13:06:46.840,-8.6875,-23.8751
13:06:46.850,-9.875,-24.8751
13:06:46.860,-11.4375,-27.0001
13:06:46.870,-14.4376,-29.4376
13:06:46.881,-17.0001,-31.2501
13:06:46.890,-18.8751,-32.6876
13:06:46.901,-21.5001,-34.0001
13:06:46.910,-23.1876,-35.5626
13:06:46.922,-26.3751,-37.3126
13:06:46.932,-29.5001,-39.0626
13:06:46.941,-35.6876,-41.6252
13:06:46.950,-46.6877,-49.1252
13:06:46.960,-59.8127,-57.2502
13:06:46.970,-64.3752,-59.3127
13:06:46.981,-73.0003,-45.1252
13:06:46.990,-77.1253,-28.1876
13:06:47.001,-79.8753,-29.6876
13:06:47.030,-87.0003,-30.6251
13:06:47.033,-92.0004,-33.7501
13:06:47.037,-98.0004,-35.2501
13:06:47.042,-101.9379,-34.7501
13:06:47.050,-107.5629,-36.5001
13:06:47.060,-117.6255,-39.6877
13:06:47.071,-129.8755,-46.3127
13:06:47.081,-139.688,-49.8752
13:06:47.091,-150.9381,-54.8752
13:06:47.100,-161.0631,-59.0002
13:06:47.113,-168.8756,-63.6252
13:06:47.121,-176.0632,-66.6253
13:06:47.131,-184.5632,-70.3753
13:06:47.140,-192.0632,-73.1878
13:06:47.150,-198.8133,-73.8128
13:06:47.160,-199.4383,-67.3753
13:06:47.173,-192.0632,-56.3127
13:06:47.181,-182.8757,-42.5627
13:06:47.191,-172.9382,-28.6251
13:06:47.200,-160.8756,-14.6876
13:06:47.211,-148.8131,-0.75
13:06:47.222,-137.6255,12.25
13:06:47.231,-129.7505,20.5626
13:06:47.240,-126.2505,24.7501
13:06:47.250,-122.2505,29.1876
13:06:47.260,-117.2504,33.0626
13:06:47.274,-112.9379,34.8126
13:06:47.290,-106.4379,40.5627
13:06:47.293,-104.7504,40.3752
13:06:47.308,-108.7504,34.8751
13:06:47.322,-110.8754,30.4376
13:06:47.326,-110.8754,27.1876
13:06:47.331,-111.2504,24.0626
13:06:47.340,-110.3129,23.8751
13:06:47.350,-110.1254,20.6876
13:06:47.360,-107.8754,22.1876
13:06:47.370,-105.2504,21.1251
13:06:47.395,-104.3754,18.8751
13:06:47.399,-105.7504,16.6251
13:06:47.409,-106.6879,9.1875
13:06:47.413,-109.1879,5
13:06:47.423,-112.6254,-1.1875
13:06:47.433,-114.8754,-6.5625
13:06:47.466,-116.6254,-10.1875
13:06:47.470,-115.4379,-10.1875
13:06:47.472,-113.0629,-10.8125
13:06:47.474,-111.4379,-9.5625
13:06:47.481,-107.4379,-7.375
13:06:47.514,-103.2504,-3.1875
13:06:47.520,-97.5629,-0.75
13:06:47.524,-94.2504,2
13:06:47.526,-91.0004,2.9375
13:06:47.557,-90.1878,3
13:06:47.562,-89.7503,1.125
13:06:47.568,-93.0629,-2.6875
13:06:47.568,-95.3129,-6.9375
13:06:47.572,-99.0629,-11
13:06:47.581,-99.0629,-13.4376
13:06:47.598,-100.3754,-15.5626
13:06:47.604,-99.8754,-18.1251
13:06:47.616,-100.4379,-19.9376
13:06:47.624,-101.2504,-23.0626
13:06:47.630,-102.1879,-25.0001
13:06:47.641,-101.2504,-27.5001
13:06:47.651,-101.3754,-30.0001
13:06:47.660,-102.6879,-30.4376
13:06:47.670,-102.3129,-34.1251
13:06:47.680,-101.5004,-34.1251
13:06:47.690,-103.3129,-37.4376
13:06:47.700,-103.1254,-39.8752
13:06:47.710,-104.0004,-42.2502
13:06:47.720,-104.6879,-42.8752
13:06:47.730,-104.5004,-45.8752
13:06:47.740,-103.2504,-47.9377
13:06:47.750,-104.3129,-50.1252
13:06:47.760,-102.5629,-52.1877
13:06:47.771,-101.7504,-53.3127
13:06:47.781,-101.6254,-54.2502
13:06:47.790,-99.3754,-55.8127
13:06:47.800,-98.9379,-56.6877
13:06:47.810,-98.1879,-58.0002
13:06:47.820,-96.9379,-57.8127
13:06:47.830,-96.0004,-59.0627
13:06:47.840,-92.0629,-56.6252
13:06:47.850,-89.0628,-55.2502
13:06:47.862,-85.9378,-53.6877
13:06:47.870,-82.3753,-53.0002
13:06:47.881,-79.8753,-52.1252
13:06:47.890,-77.2503,-51.5002
13:06:47.900,-74.2503,-49.1877
13:06:47.910,-69.3753,-47.3752
13:06:47.920,-65.0627,-43.9377
13:06:47.931,-63.5002,-44.3127
13:06:47.940,-61.4377,-44.5627
13:06:47.950,-60.7502,-44.3127
13:06:47.960,-61.5002,-48.3752
13:06:47.970,-63.2502,-51.0002
13:06:47.980,-63.2502,-52.0627
13:06:47.992,-60.4377,-48.7502
13:06:48.000,-51.8752,-42.1252
13:06:48.013,-44.0627,-34.6251
13:06:48.024,-38.7501,-28.5001
13:06:48.034,-37.6876,-24.7501
13:06:48.041,-36.0626,-21.7501
13:06:48.050,-34.9376,-18.1876
13:06:48.061,-33.0626,-14.4376
13:06:48.070,-32.0626,-13.5626
13:06:48.080,-32.0001,-12
13:06:48.090,-31.5626,-12.1875
13:06:48.114,-31.1876,-12.125
13:06:48.117,-30.3126,-13.1876
13:06:48.121,-32.3751,-13.9376
13:06:48.154,-34.2501,-17.1876
13:06:48.157,-37.7501,-21.3126
13:06:48.159,-40.2502,-22.9376
13:06:48.161,-44.5002,-28.3751
13:06:48.193,-49.1877,-30.1876
13:06:48.195,-51.6877,-33.6251
13:06:48.198,-53.6877,-33.6251
13:06:48.232,-55.4377,-35.6251
13:06:48.234,-55.3752,-36.5001
13:06:48.235,-54.6877,-36.8751
13:06:48.242,-55.7502,-39.1876
13:06:48.245,-59.0002,-42.8752
13:06:48.251,-61.1252,-47.5002
13:06:48.280,-64.6877,-51.5627
13:06:48.283,-65.9378,-53.3127
13:06:48.285,-67.2503,-54.0627
13:06:48.311,-65.5002,-53.4377
13:06:48.315,-63.6877,-53.1252
13:06:48.317,-62.2502,-50.6877
13:06:48.323,-59.8752,-50.4377
13:06:48.330,-59.5627,-51.5002
13:06:48.341,-60.0002,-50.6877
13:06:48.350,-61.8752,-52.8127
13:06:48.360,-63.1877,-54.3127
13:06:48.370,-63.3127,-54.4377
13:06:48.381,-65.6253,-54.5002
13:06:48.390,-67.6878,-54.7502
13:06:48.402,-67.0003,-54.0002
13:06:48.411,-65.2503,-52.6252
13:06:48.420,-64.2502,-50.1252
13:06:48.432,-64.0627,-50.8127
13:06:48.440,-65.1877,-49.8127
13:06:48.451,-65.8128,-48.6877
13:06:48.461,-65.3753,-49.1877
13:06:48.471,-65.1253,-49.6877
13:06:48.481,-64.8127,-47.3127
13:06:48.490,-61.8127,-46.3127
13:06:48.501,-58.5627,-42.1252
13:06:48.510,-54.9377,-40.4377
13:06:48.521,-52.2502,-37.6876
13:06:48.531,-47.3752,-36.0626
13:06:48.542,-45.3752,-34.3126
13:06:48.550,-42.1877,-34.5001
13:06:48.561,-41.7502,-35.0001
13:06:48.571,-41.2502,-34.9376
13:06:48.592,-40.5002,-36.4376
13:06:48.599,-40.1252,-36.7501
13:06:48.613,-39.7502,-38.4376
13:06:48.615,-40.9377,-40.5002
13:06:48.623,-42.0002,-41.1877
13:06:48.631,-45.0627,-45.1877
13:06:48.641,-48.1252,-47.8127
13:06:48.652,-50.8752,-51.5002
13:06:48.662,-52.7502,-53.0002
13:06:48.671,-52.1877,-54.2502
13:06:48.681,-52.8752,-55.7502
13:06:48.691,-53.0627,-57.7502
13:06:48.701,-54.3752,-60.1252
13:06:48.712,-55.3127,-61.4377
13:06:48.721,-56.7502,-63.0627
13:06:48.731,-57.5002,-65.1252
13:06:48.741,-58.8752,-67.0003
13:06:48.752,-60.6877,-69.1878
13:06:48.762,-61.3127,-71.2503
13:06:48.778,-61.2502,-73.4378
13:06:48.782,-61.3752,-75.5628
13:06:48.792,-62.1252,-77.9378
13:06:48.803,-62.9377,-80.0003
13:06:48.811,-63.4377,-82.6253
13:06:48.821,-62.0627,-82.0628
13:06:48.853,-59.1877,-80.4378
13:06:48.856,-53.6877,-74.1253
13:06:48.858,-47.1877,-66.7503
13:06:48.862,-39.3752,-56.7502
13:06:48.893,-33.0626,-49.1252
13:06:48.956,-28.4376,-40.6877
13:06:48.958,-25.6251,-34.6251
13:06:48.973,-22.8126,-28.5001
13:06:49.009,-21.7501,-24.7501
13:06:49.010,-18.8751,-19.5626
13:06:49.010,-17.1251,-16.7501
13:06:49.013,-16.0626,-13.1876
13:06:49.015,-15.5626,-11.75
13:06:49.023,-13.6251,-7.9375
13:06:49.023,-10.75,-6.5625
13:06:49.024,-7.5625,-2.4375
13:06:49.031,-3.625,2
13:06:49.041,-1.125,4.6875
13:06:49.050,1.375,7.75
13:06:49.061,1.375,11.0625
13:06:49.070,2.5625,11.0625
13:06:49.081,3.5625,12.6875
13:06:49.091,1.25,12.3125
13:06:49.101,-0.25,11.25
13:06:49.110,-2.5,9.625
13:06:49.121,-4.875,7.5625
13:06:49.130,-7.75,4.625
13:06:49.142,-11.875,-1.5625
13:06:49.155,-11.25,-1.3125
13:06:49.161,-11.125,-3.0625
13:06:49.171,-10.875,-3.4375
13:06:49.182,-11.8125,-3.6875
13:06:49.192,-13.8126,-6.9375
13:06:49.201,-14.9376,-7.8125
13:06:49.211,-16.9376,-10.1875
13:06:49.221,-19.0001,-12.1875
13:06:49.232,-20.6876,-13.7501
13:06:49.241,-21.9376,-14.8751
13:06:49.252,-24.0626,-15.9376
13:06:49.262,-24.9376,-17.1876
13:06:49.271,-26.0001,-17.5626
13:06:49.280,-26.7501,-18.7501
13:06:49.292,-26.9376,-18.7501
13:06:49.301,-27.2501,-19.7501
13:06:49.312,-26.5626,-19.1876
13:06:49.322,-28.0626,-21.4376
13:06:49.331,-29.4376,-22.5626
13:06:49.341,-32.2501,-23.6251
13:06:49.351,-33.5626,-26.4376
13:06:49.362,-34.0626,-26.6876
13:06:49.371,-34.5001,-27.5626
13:06:49.382,-34.6876,-26.8751
13:06:49.392,-34.4376,-28.4376
13:06:49.401,-36.0001,-29.7501
13:06:49.411,-36.9376,-31.0626
13:06:49.421,-37.8126,-31.9376
13:06:49.431,-38.3126,-31.9376
13:06:49.441,-36.5001,-32.6876
13:06:49.451,-35.3751,-31.6251
13:06:49.461,-35.0001,-31.9376
13:06:49.473,-34.7501,-31.4376
13:06:49.481,-35.1251,-32.2501
13:06:49.491,-35.5626,-32.3751
13:06:49.502,-36.6251,-32.8751
13:06:49.512,-36.7501,-31.9376
13:06:49.521,-35.1876,-32.0626
13:06:49.530,-34.6876,-30.4376
13:06:49.541,-34.3751,-32.0001
13:06:49.551,-34.6251,-32.1251
13:06:49.563,-34.0626,-33.7501
13:06:49.592,-34.4376,-33.3126
13:06:49.594,-33.6876,-35.5001
13:06:49.597,-34.6876,-36.9376
13:06:49.626,-37.2501,-41.5002
13:06:49.628,-40.0002,-44.0002
13:06:49.630,-43.3752,-48.3127
13:06:49.633,-45.6252,-51.1877
13:06:49.665,-46.3127,-54.0627
13:06:49.668,-47.1877,-54.7502
13:06:49.670,-45.4377,-56.3127
13:06:49.674,-44.3127,-55.0627
13:06:49.710,-39.7502,-53.3127
13:06:49.712,-31.6251,-46.0627
13:06:49.714,-20.5626,-37.6876
13:06:49.740,-10.5,-26.5626
13:06:49.742,-3.3125,-19.9376
13:06:49.745,1.5625,-13.5001
13:06:49.755,8.625,-6.8125
13:06:49.756,14.1251,2.8125
13:06:49.762,22.4376,11
13:06:49.772,28.8751,18.6876
13:06:49.782,32.1251,24.2501
13:06:49.791,35.7501,27.4376
13:06:49.802,39.0626,30.3126
13:06:49.812,39.5002,31.2501
13:06:49.821,38.3751,30.3126
13:06:49.831,36.3126,28.3751
13:06:49.841,35.7501,27.5001
13:06:49.851,38.0626,30.0001
13:06:49.861,41.6252,33.2501
13:06:49.872,44.0002,35.5626
13:06:49.881,43.1877,35.5626
13:06:49.906,43.5627,36.7501
13:06:49.920,44.9377,39.2501
13:06:49.922,47.5627,40.2502
13:06:49.938,46.5627,39.6252
13:06:49.953,42.3127,37.3751
13:06:49.955,37.5001,32.5626
13:06:49.957,31.5001,26.1251
13:06:49.966,26.5626,20.8751
13:06:49.977,20.9376,16.8126
13:06:49.987,15.0626,11.625
13:06:49.997,10.6875,7.75
13:06:50.006,7.625,6
13:06:50.017,6.25,3.8125
13:06:50.027,4.25,3.375
13:06:50.037,3.875,2.9375
13:06:50.046,2.875,2.125
13:06:50.057,2.75,3.0625
13:06:50.067,2.375,2.5625
13:06:50.076,0.5625,1.1875
13:06:50.087,-2.9375,-0.3125
13:06:50.096,-5.8125,-2.3125
13:06:50.106,-8.3125,-5.375
13:06:50.117,-11.75,-8.6875
13:06:50.127,-15.3751,-11
13:06:50.137,-16.3126,-11.125
13:06:50.146,-14.8126,-11.3125
13:06:50.156,-13.2501,-9
13:06:50.167,-10.0625,-9.625
13:06:50.177,-8,-8.5625
13:06:50.186,-4.9375,-7.0625
13:06:50.197,-3.25,-6.25
13:06:50.207,-0.5625,-6.25
13:06:50.237,-0.0625,-7.1875
13:06:50.241,-1.1875,-8.5625
13:06:50.242,-3.25,-9
13:06:50.250,-3.9375,-10.6875
13:06:50.276,-4.4375,-11.9375
13:06:50.278,-5.25,-12.875
13:06:50.306,-9.0625,-16.5001
13:06:50.309,-9.375,-16.8126
13:06:50.336,-7.4375,-14.9376
13:06:50.336,-5.25,-14.7501
13:06:50.370,-4.4375,-14.4376
13:06:50.374,-6.1875,-15.2501
13:06:50.374,-8.375,-18.1251
13:06:50.376,-10.1875,-19.5626
13:06:50.376,-11.3125,-20.2501
13:06:50.405,-12.0625,-22.6251
13:06:50.408,-13.9376,-26.1876
13:06:50.410,-15.7501,-27.5001
13:06:50.413,-17.2501,-30.6251
13:06:50.423,-19.5626,-33.4376
13:06:50.433,-20.2501,-36.0001
13:06:50.441,-24.0626,-39.1251
13:06:50.451,-27.8751,-43.0627
13:06:50.462,-31.2501,-48.0627
13:06:50.472,-33.6251,-50.9377
13:06:50.481,-34.8751,-52.1252
13:06:50.491,-34.6251,-53.0002
13:06:50.501,-33.3751,-53.5002
13:06:50.511,-34.6876,-56.4377
13:06:50.521,-33.4376,-56.0002
13:06:50.532,-33.6251,-57.5002
13:06:50.542,-34.2501,-63.0627
13:06:50.552,-33.0001,-63.5627
13:06:50.561,-30.6876,-62.6252
13:06:50.571,-26.0626,-60.8752
13:06:50.582,-18.7501,-54.9377
13:06:50.592,-8.75,-47.0627
13:06:50.601,-1.6875,-38.8126
13:06:50.612,4.1875,-32.5626
13:06:50.622,8.625,-25.5001
13:06:50.632,10.5,-21.8751
13:06:50.641,11.5,-19.3751
13:06:50.652,10.9375,-18.8126
13:06:50.662,9.125,-19.8126
13:06:50.672,7.75,-20.2501
13:06:50.681,3.375,-22.1876
13:06:50.692,2.5625,-23.6876
13:06:50.702,-0.4375,-22.7501
13:06:50.713,-1.3125,-24.1876
13:06:50.722,-8.0625,-28.8126
13:06:50.732,-6.5,-26.5001
13:06:50.741,-6.5,-25.8126
13:06:50.751,-6.75,-24.3126
13:06:50.762,-6.75,-24.7501
13:06:50.771,-6.375,-23.7501
13:06:50.781,-6.6875,-24.2501
13:06:50.791,-9.3125,-25.0001
13:06:50.801,-11.0625,-27.1251
13:06:50.812,-13.8126,-28.6251
13:06:50.821,-15.1251,-30.1251
13:06:50.831,-16.5626,-31.0001
13:06:50.841,-18.5001,-31.5626
13:06:50.871,-18.7501,-32.7501
13:06:50.873,-19.5626,-31.9376
13:06:50.876,-19.6876,-32.7501
13:06:50.883,-19.5626,-33.0001
13:06:50.891,-20.8126,-32.9376
13:06:50.901,-22.3751,-32.8751
13:06:50.911,-24.3751,-35.3126
13:06:50.921,-25.6876,-34.8751
13:06:50.932,-26.6251,-35.6876
13:06:50.941,-27.8126,-36.0626
13:06:50.951,-28.6876,-36.1876
13:06:50.963,-30.0001,-36.8751
13:06:50.972,-31.1876,-38.0626
13:06:50.981,-31.8751,-39.6252
13:06:50.991,-32.1876,-39.3752
13:06:51.001,-30.8751,-40.0002
13:06:51.035,-29.7501,-38.6251
13:06:51.038,-28.5626,-38.8126
13:06:51.040,-29.3126,-39.0002
13:06:51.043,-32.0626,-44.1252
13:06:51.074,-32.3751,-45.2502
13:06:51.076,-36.3751,-47.6252
13:06:51.078,-36.4376,-48.6252
13:06:51.081,-35.8751,-46.3752
13:06:51.112,-34.6251,-46.3127
13:06:51.116,-33.5626,-43.5627
13:06:51.118,-30.5001,-40.3127
13:06:51.125,-28.5626,-36.8751
13:06:51.132,-25.2501,-34.1876
13:06:51.161,-24.1251,-32.5626
13:06:51.163,-23.4376,-31.2501
13:06:51.165,-21.0001,-31.1251
13:06:51.172,-20.8751,-30.0626
13:06:51.194,-19.8751,-31.4376
13:06:51.196,-18.7501,-29.3126
13:06:51.201,-16.1876,-28.4376
13:06:51.223,-15.7501,-30.1251
13:06:51.230,-17.1251,-31.5626
13:06:51.237,-19.8126,-35.5626
13:06:51.241,-21.6251,-38.8751
13:06:51.260,-21.8126,-39.1251
13:06:51.267,-23.3126,-42.5627
13:06:51.276,-23.3751,-43.0002
13:06:51.283,-23.3751,-45.2502
13:06:51.291,-23.8126,-48.0002
13:06:51.301,-25.3126,-49.0002
13:06:51.312,-27.6876,-53.6877
13:06:51.321,-29.7501,-55.9377
13:06:51.331,-29.4376,-57.8127
13:06:51.342,-30.0001,-59.3752
13:06:51.351,-29.4376,-59.8752
13:06:51.361,-28.3126,-59.1877
13:06:51.372,-24.3126,-57.8752
13:06:51.381,-20.0001,-54.5627
13:06:51.391,-14.6876,-47.6877
13:06:51.401,-11.125,-44.0627
13:06:51.412,-8,-39.2502
13:06:51.422,-4.125,-34.1251
13:06:51.433,-1.3125,-31.3126
13:06:51.441,-1.3125,-28.9376
13:06:51.451,-1,-28.0626
13:06:51.462,-2.4375,-26.6876
13:06:51.471,-5.375,-26.6251
13:06:51.481,-7.1875,-28.6251
13:06:51.491,-8.1875,-27.6251
13:06:51.501,-6.9375,-25.6876
13:06:51.512,-6.8125,-24.8751
13:06:51.521,-6.125,-23.1251
13:06:51.532,-7.1875,-23.2501
13:06:51.541,-9.125,-23.3751
13:06:51.552,-11.375,-23.8751
13:06:51.561,-12.625,-24.3751
13:06:51.571,-14.6876,-24.9376
13:06:51.581,-16.6251,-24.6251
13:06:51.592,-16.4376,-22.6876
13:06:51.602,-14.5001,-20.1876
13:06:51.619,-13.2501,-16.8751
13:06:51.622,-11.875,-16.1251
13:06:51.636,-13.2501,-14.6876
13:06:51.646,-14.6251,-16.4376
13:06:51.652,-16.4376,-16.6876
13:06:51.662,-16.5626,-18.4376
13:06:51.671,-16.5626,-15.9376
13:06:51.681,-15.5626,-16.6876
13:06:51.691,-13.7501,-15.5001
13:06:51.702,-11.875,-12.625
13:06:51.711,-10.1875,-12.5625
13:06:51.721,-9.5625,-11.1875
13:06:51.732,-7.8125,-10.25
13:06:51.741,-6.75,-9.3125
13:06:51.764,-6.9375,-10.125
13:06:51.768,-7.4375,-10.4375
13:06:51.772,-7.9375,-11.375
13:06:51.804,-9.1875,-12.6875
13:06:51.807,-9.5,-11.25
13:06:51.809,-8.8125,-11.1875
13:06:51.814,-7.25,-9.125
13:06:51.842,-3.9375,-6.625
13:06:51.845,-0.125,-4.3125
13:06:51.846,3.875,-0.0625
13:06:51.877,6.375,2.375
13:06:51.881,8.25,5.25
13:06:51.883,8.375,5
13:06:51.888,9.8125,6.4375
13:06:51.894,11.25,7
13:06:51.925,12.4375,7.75
13:06:51.927,13.0625,8.4375
13:06:51.929,13.9376,6.8125
13:06:51.933,13.4376,6.625
13:06:51.945,14.7501,5.8125
13:06:51.953,15.1251,5.1875
13:06:51.961,14.6876,3.8125
13:06:51.971,14.0001,1.625
13:06:51.981,13.1876,-0.25
13:06:51.991,12.8125,-1.625
13:06:52.001,13,-1.75
13:06:52.011,13.6876,-1.625
13:06:52.022,15.5626,-2.4375
13:06:52.034,18.0001,-1.375
13:06:52.041,21.3126,-0.6875
13:06:52.052,24.3751,0.0625
13:06:52.061,25.9376,0.25
13:06:52.071,24.4376,-0.75
13:06:52.081,24.0626,-2.6875
13:06:52.092,24.3751,-3.3125
13:06:52.101,23.5001,-4.875
13:06:52.111,23.2501,-5.75
13:06:52.121,22.5001,-7.875
13:06:52.150,22.5001,-11.4375
13:06:52.153,21.3751,-13.8751
13:06:52.155,18.0001,-17.7501
13:06:52.166,15.5001,-22.6251
13:06:52.174,12.5625,-26.0626
13:06:52.182,9.0625,-29.8126
13:06:52.191,6.5,-34.7501
13:06:52.202,3.3125,-38.3126
13:06:52.212,1.4375,-41.3752
13:06:52.222,0.3125,-44.4377
13:06:52.232,-1.75,-47.1877
13:06:52.241,-3.5625,-49.0627
13:06:52.251,-4.6875,-51.5627
13:06:52.261,-3.9375,-51.3127
13:06:52.271,-2.4375,-47.5002
13:06:52.282,-0.25,-44.5627
13:06:52.292,3.25,-40.3127
13:06:52.301,7.3125,-33.8751
13:06:52.311,10.5625,-28.0001
13:06:52.322,12,-24.1251
13:06:52.332,11.875,-23.1251
13:06:52.341,10.0625,-22.2501
13:06:52.351,10.5625,-19.8126
13:06:52.361,12.5,-18.5626
13:06:52.372,14.3751,-18.2501
13:06:52.381,14.3751,-15.9376
13:06:52.392,13.1251,-18.2501
13:06:52.401,7.75,-20.4376
13:06:52.415,2.3125,-23.6876
13:06:52.421,-1.6875,-25.1251
13:06:52.453,-3.9375,-23.0001
13:06:52.456,-2.1875,-19.6251
13:06:52.458,-0.6875,-15.7501
13:06:52.464,1.3125,-10.125
13:06:52.494,5.1875,-4.25
13:06:52.497,9.5625,3.375
13:06:52.500,14.0626,9.9375
13:06:52.532,17.8751,15.3126
13:06:52.533,18.2501,18.4376
13:06:52.534,17.7501,22.9376
13:06:52.578,17.9376,25.0626
13:06:52.580,19.3126,29.1251
13:06:52.581,21.1251,36.0001
13:06:52.597,24.8126,40.3752
13:06:52.598,29.9376,47.7502
13:06:52.607,36.3126,56.5002
13:06:52.607,41.7502,63.1252
13:06:52.608,46.5002,70.3128
13:06:52.617,50.8752,75.0628
13:06:52.626,52.8752,79.5003
13:06:52.636,53.4377,81.1253
13:06:52.646,55.5627,81.7503
13:06:52.657,57.0002,83.0628
13:06:52.667,58.5002,85.4378
13:06:52.678,61.3752,89.0628
13:06:52.687,65.6877,91.9379
13:06:52.702,68.8753,94.2504
13:06:52.708,71.2503,96.5629
13:06:52.718,74.5628,98.8754
13:06:52.728,78.3128,102.4379
13:06:52.738,84.6878,106.5629
13:06:52.746,89.5003,109.9379
13:06:52.757,93.8754,113.0629
13:06:52.766,98.1879,115.5629
13:06:52.776,95.6254,113.6879
13:06:52.786,89.0628,108.3129
13:06:52.796,83.9378,103.8754
13:06:52.806,81.9378,102.6879
13:06:52.822,84.0628,104.7504
13:06:52.830,88.1878,107.3754
13:06:52.837,93.2504,111.0004
13:06:52.847,95.9379,111.6254
13:06:52.857,96.1254,109.4379
13:06:52.866,93.3129,106.0004
13:06:52.877,92.6254,104.7504
13:06:52.887,95.5629,105.2504
13:06:52.896,106.1254,112.7504
13:06:52.907,120.313,122.563
13:06:52.921,144.563,140.438
13:06:52.938,166.7506,157.1881
13:06:52.942,181.6882,168.9381
13:06:52.950,192.1882,173.7507
13:06:52.956,197.6883,175.2507
13:06:52.966,198.6883,171.4382
13:06:52.977,198.1883,166.8131
13:06:52.986,194.2507,161.6881
13:06:52.997,192.3757,154.5631
13:06:53.006,196.1257,153.5631
13:06:53.016,197.1882,150.0631
13:06:53.027,198.3133,144.313
13:06:53.041,199.5633,138.5005
13:06:53.052,197.7507,130.6255
13:06:53.062,195.6257,121.813
13:06:53.078,191.0007,111.3129
13:06:53.083,186.3757,101.7504
13:06:53.094,183.1882,93.1254
13:06:53.103,179.0007,84.5628
13:06:53.111,176.0007,77.9378
13:06:53.121,173.3132,71.3753
13:06:53.131,169.1256,64.5002
13:06:53.143,164.8756,59.1252
13:06:53.152,160.6256,53.6877
13:06:53.162,156.0006,48.6877
13:06:53.172,153.0631,44.8752
13:06:53.184,151.4381,43.5002
13:06:53.215,156.0631,47.3752
13:06:53.217,160.9381,53.9377
13:06:53.220,165.6881,61.3127
13:06:53.222,167.6881,65.9378
13:06:53.255,167.6256,69.3753
13:06:53.256,166.0006,70.9378
13:06:53.258,163.6256,73.7503
13:06:53.264,161.1881,73.5003
13:06:53.291,158.2506,73.1253
13:06:53.292,155.6256,74.2503
13:06:53.295,152.8131,73.0628
13:06:53.323,148.9381,72.7503
13:06:53.325,145.938,73.6253
13:06:53.329,143.1255,74.1878
13:06:53.334,141.313,75.8753
13:06:53.362,139.8755,76.0003
13:06:53.365,137.938,78.0003
13:06:53.368,136.188,78.4378
13:06:53.374,134.6255,80.6878
13:06:53.382,134.188,81.1878
13:06:53.393,132.8755,83.3128
13:06:53.402,130.438,82.8753
13:06:53.431,129.313,83.7503
13:06:53.435,128.188,85.9378
13:06:53.436,126.8755,86.3128
13:06:53.444,124.188,85.1878
13:06:53.454,120.938,82.9378
13:06:53.461,118.6255,81.6253
13:06:53.472,115.8129,79.1878
13:06:53.481,112.6879,78.6878
13:06:53.491,112.5629,78.1253
13:06:53.501,111.2504,79.7503
13:06:53.511,110.9379,80.6253
13:06:53.522,111.2504,80.5628
13:06:53.533,110.6879,82.2503
13:06:53.544,108.7504,81.0628
13:06:53.553,108.5004,82.4378
13:06:53.563,109.0004,82.6878
13:06:53.572,107.3129,84.1253
13:06:53.583,106.0004,81.6253
13:06:53.592,103.7504,80.3128
13:06:53.603,100.1879,77.6253
13:06:53.613,96.3754,73.5003
13:06:53.623,91.5629,70.0628
13:06:53.634,88.6878,66.3128
13:06:53.641,87.0628,66.2503
13:06:53.654,87.4378,65.6253
13:06:53.662,86.8753,65.8753
13:06:53.672,86.9378,65.5628
13:06:53.683,86.5003,65.3127
13:06:53.691,84.0003,63.8127
13:06:53.702,81.1878,61.3127
13:06:53.712,78.5628,58.7502
13:06:53.721,75.2503,57.1252
13:06:53.733,73.8753,55.4377
13:06:53.741,72.0628,54.2502
13:06:53.753,71.2503,54.7502
13:06:53.761,72.2503,54.2502
13:06:53.771,72.1253,56.3127
13:06:53.782,73.5003,56.3127
13:06:53.791,73.5003,57.5002
13:06:53.803,72.6878,56.6252
13:06:53.812,70.5628,54.3127
13:06:53.829,68.3753,51.5627
13:06:53.832,64.6252,49.5002
13:06:53.843,62.5627,46.8127
13:06:53.864,60.0627,45.1252
13:06:53.867,58.3752,42.8752
13:06:53.942,57.5627,42.5002
13:06:53.944,57.3752,42.2502
13:06:53.946,56.8752,42.2502
13:06:53.948,57.5002,42.6877
13:06:53.982,56.3752,40.5002
13:06:53.982,54.4377,38.8126
13:06:53.982,52.1877,36.5626
13:06:53.985,48.3127,33.8126
13:06:53.986,47.6252,32.1876
13:06:53.992,44.9377,30.6876
13:06:53.994,44.2502,29.8751
13:06:54.025,43.0627,29.5001
13:06:54.028,42.1877,28.6876
13:06:54.030,43.2502,28.5626
13:06:54.033,42.0627,28.2501
13:06:54.043,40.9377,26.8126
13:06:54.052,39.8752,25.0001
13:06:54.063,39.1251,25.0001
13:06:54.073,40.8752,27.3126
13:06:54.082,43.1877,30.6251
13:06:54.092,48.1877,36.5626
13:06:54.103,57.5627,51.1252
13:06:54.113,63.8127,59.1877
13:06:54.123,75.3128,77.6253
13:06:54.132,76.5003,81.5628
13:06:54.142,76.3128,84.1878
13:06:54.153,75.3753,85.7503
13:06:54.163,73.9378,85.2503
13:06:54.172,72.4378,85.9378
13:06:54.182,71.9378,85.6878
13:06:54.192,71.0003,86.1253
13:06:54.203,69.3753,87.1253
13:06:54.224,69.6878,87.4378
13:06:54.226,69.0003,87.2503
13:06:54.241,68.0628,89.1878
13:06:54.244,67.9378,90.8754
13:06:54.259,68.6878,91.1254
13:06:54.264,66.8128,90.5629
13:06:54.273,66.0628,92.0629
13:06:54.283,65.2502,90.6878
13:06:54.291,63.7502,90.0003
13:06:54.303,61.3752,88.0003
13:06:54.313,58.8127,86.2503
13:06:54.323,56.2502,83.9378
13:06:54.333,53.9377,81.9378
13:06:54.343,51.5627,80.1253
13:06:54.352,49.6252,78.6878
13:06:54.363,47.6252,76.0003
13:06:54.373,46.0627,74.9378
13:06:54.382,44.9377,73.1878
13:06:54.393,43.5002,72.0003
13:06:54.402,42.4377,71.5628
13:06:54.413,42.3752,70.4378
13:06:54.423,39.6252,69.1878
13:06:54.432,37.0626,67.3753
13:06:54.444,35.1251,64.7502
13:06:54.453,31.8751,63.5627
13:06:54.462,31.0626,61.0002
13:06:54.473,28.6251,58.8752
13:06:54.482,27.1876,56.6877
13:06:54.493,25.8126,54.9377
13:06:54.503,23.8126,53.7502
13:06:54.512,22.2501,52.3752
13:06:54.523,21.5626,50.3752
13:06:54.534,20.1251,50.5627
13:06:54.543,20.2501,48.5627
13:06:54.552,19.1876,47.5002
13:06:54.563,19.0001,46.5002
13:06:54.578,18.9376,45.6877
13:06:54.583,17.5001,44.1877
13:06:54.593,16.8751,43.0002
13:06:54.603,15.8751,41.5002
13:06:54.613,14.8126,40.5627
13:06:54.624,15.3126,38.6876
13:06:54.632,14.4376,38.5001
13:06:54.643,14.4376,37.2501
13:06:54.652,13.6251,37.1251
13:06:54.663,13.9376,35.5626
13:06:54.673,14.1251,36.2501
13:06:54.686,15.8126,35.8126
13:06:54.712,16.0001,36.0626
13:06:54.716,16.5626,36.3751
13:06:54.718,16.0001,33.7501
13:06:54.726,15.1876,32.4376
13:06:54.753,14.8126,31.6251
13:06:54.756,14.5626,30.8126
13:06:54.759,15.3126,30.5626
13:06:54.763,15.0626,29.8751
13:06:54.795,15.1251,29.5001
13:06:54.796,14.5626,27.3126
13:06:54.799,13.3126,26.7501
13:06:54.805,13.6876,25.1876
13:06:54.837,13.1876,25.0626
13:06:54.840,13.3126,24.6251
13:06:54.842,13.5001,23.0626
13:06:54.865,14.6876,22.7501
13:06:54.865,16.3751,22.8126
13:06:54.869,17.6876,25.8751
13:06:54.875,21.6251,29.6251
13:06:54.883,27.0001,35.3126
13:06:54.894,33.1251,43.4377
13:06:54.903,38.6876,51.3752
13:06:54.913,43.7502,59.5002
13:06:54.922,47.5002,64.5002
13:06:54.933,48.7502,69.1878
13:06:54.943,49.2502,72.8128
13:06:54.958,50.2502,75.5628
13:06:54.963,50.0627,76.1878
13:06:54.973,50.0002,77.0628
13:06:54.984,49.0627,78.2503
13:06:54.993,48.7502,78.1878
13:06:55.004,48.3127,77.8753
13:06:55.013,46.9377,78.8753
13:06:55.022,47.6877,81.1253
13:06:55.033,48.3127,81.6253
13:06:55.043,49.7502,82.4378
13:06:55.053,48.8127,83.0628
13:06:55.063,48.4377,83.3753
13:06:55.074,47.5627,84.1878
13:06:55.083,46.8752,83.7503
13:06:55.093,47.1877,83.1253
13:06:55.103,46.4377,83.0628
13:06:55.113,46.4377,83.3753
13:06:55.123,46.1252,82.4378
13:06:55.133,45.3752,80.4378
13:06:55.143,44.6877,79.8128
13:06:55.153,44.3127,78.6253
13:06:55.164,43.8127,76.5003
13:06:55.179,42.2502,73.8128
13:06:55.183,40.3127,70.7503
13:06:55.198,40.1877,70.2503
13:06:55.205,38.8126,67.7503
13:06:55.213,38.7501,66.4378
13:06:55.223,37.2501,65.6877
13:06:55.233,36.6251,63.2502
13:06:55.243,35.3126,62.2502
13:06:55.254,35.1251,61.1252
13:06:55.262,34.6251,58.9377
13:06:55.274,33.0626,57.6252
13:06:55.286,31.0626,55.6877
13:06:55.293,28.9376,51.5002
13:06:55.303,26.5626,49.6252
13:06:55.313,25.0001,46.1877
13:06:55.323,23.2501,43.7502
13:06:55.333,21.8751,42.2502
13:06:55.365,21.0626,40.8127
13:06:55.367,20.1876,38.9376
13:06:55.369,19.3126,38.2501
13:06:55.373,18.8751,35.5626
13:06:55.406,17.3751,33.8126
13:06:55.408,15.6251,31.8126
13:06:55.410,14.8751,29.6876
13:06:55.413,13.4376,27.6251
13:06:55.445,12.5,26.3751
13:06:55.448,11.8125,25.3751
13:06:55.449,12.0625,23.2501
13:06:55.476,11.25,22.9376
13:06:55.477,10.25,20.8126
13:06:55.479,8.5625,18.1251
13:06:55.484,8.6875,16.6251
13:06:55.510,8.625,15.7501
13:06:55.514,7.9375,14.2501
13:06:55.530,7.75,13.7501
13:06:55.531,7.6875,12.4375
13:06:55.545,6.5625,11.875
13:06:55.560,6.625,9.4375
13:06:55.563,5.4375,9.125
13:06:55.565,5.3125,7.9375
13:06:55.573,4.9375,5.875
13:06:55.583,4.0625,5.125
13:06:55.593,3.8125,4.9375
13:06:55.603,4.875,3.4375
13:06:55.614,4.625,3.0625
13:06:55.623,4,2.125
13:06:55.633,3.4375,-0.3125
13:06:55.643,2.1875,-0.9375
13:06:55.653,0.8125,-2.8125
13:06:55.663,0.125,-4.0625
13:06:55.673,-0.0625,-5.4375
13:06:55.683,-0.1875,-5.8125
13:06:55.693,0.375,-6.1875
13:06:55.708,-0.0625,-7.125
13:06:55.714,-0.1875,-7.375
13:06:55.722,-0.0625,-8.5
13:06:55.733,0.375,-8.5625
13:06:55.743,0.75,-7.25
13:06:55.753,3.9375,-4.6875
13:06:55.763,8.3125,0.9375
13:06:55.772,12.9375,7.625
13:06:55.783,18.6251,15.1876
13:06:55.794,23.8126,23.5001
13:06:55.802,27.9376,30.9376
13:06:55.813,31.1876,36.8751
13:06:55.823,32.6251,41.3752
13:06:55.833,33.7501,44.6877
13:06:55.842,34.2501,47.8752
13:06:55.852,34.6251,49.3127
13:06:55.863,34.2501,51.6252
13:06:55.873,33.1251,50.6252
13:06:55.884,32.9376,52.3127
13:06:55.894,32.6876,52.5627
13:06:55.902,32.6251,53.8752
13:06:55.913,32.3751,55.1252
13:06:55.923,32.2501,56.0002
13:06:55.933,32.5626,55.8127
13:06:55.943,32.1876,56.2502
13:06:55.953,31.9376,58.1252
13:06:55.962,32.2501,58.0627
13:06:55.993,31.9376,57.5002
13:06:55.995,31.1876,57.2502
13:06:55.997,30.6876,59.1252
13:06:56.003,30.8126,57.5627
13:06:56.013,28.5001,55.0627
13:06:56.023,26.6876,54.3127
13:06:56.033,25.2501,51.7502
13:06:56.043,24.1251,49.3752
13:06:56.053,22.0626,47.1252
13:06:56.064,20.2501,46.1877
13:06:56.073,19.5001,43.5627
13:06:56.083,18.8751,41.2502
13:06:56.093,17.9376,41.4377
13:06:56.103,17.2501,40.1877
13:06:56.113,16.9376,37.6876
13:06:56.127,16.6251,37.0001
13:06:56.156,16.2501,37.0626
13:06:56.160,15.6876,36.6876
13:06:56.162,14.2501,34.9376
13:06:56.163,15.4376,32.9376
13:06:56.205,14.3751,31.0626
13:06:56.206,13.4376,31.0001
13:06:56.209,14.0001,30.7501
13:06:56.213,12.8125,27.4376
13:06:56.217,10.9375,26.0001
13:06:56.232,9.125,24.7501
13:06:56.234,8.5,22.0001
13:06:56.267,7.125,19.1251
13:06:56.272,6.4375,18.4376
13:06:56.273,5.625,17.5626
13:06:56.280,5.4375,15.5626
13:06:56.299,4.625,13.7501
13:06:56.301,3.6875,13.4376
13:06:56.304,3.875,11.9375
13:06:56.314,2.8125,10.875
13:06:56.324,2.4375,9
13:06:56.334,1.3125,7.75
13:06:56.343,0.8125,7.25
13:06:56.353,0.9375,6
13:06:56.363,0.25,3.75
13:06:56.373,-1.375,2.375
13:06:56.382,-2.3125,1.5625
13:06:56.393,-2.125,0.375
13:06:56.403,-1.75,-0.75
13:06:56.413,-1.9375,-0.9375
13:06:56.424,-2.0625,-0.8125
13:06:56.433,-2.25,-1.6875
13:06:56.443,-2.0625,-3
13:06:56.458,-2.3125,-3.6875
13:06:56.463,-2.5,-3.8125
13:06:56.482,-1.6875,-4.5625
13:06:56.488,-1.875,-6
13:06:56.503,-2.6875,-6.875
13:06:56.505,-3,-7.6875
13:06:56.515,-3.75,-8.25
13:06:56.523,-4.375,-10.3125
13:06:56.533,-4.8125,-11.125
13:06:56.543,-4.75,-10.6875
13:06:56.553,-3.75,-11.4375
13:06:56.563,-3.25,-10.9375
13:06:56.573,-2.4375,-10.1875
13:06:56.583,-1.8125,-10.8125
13:06:56.593,-2.25,-11.75
13:06:56.605,-2,-12.3125
13:06:56.613,-2.5,-13.5001
13:06:56.623,-2.3125,-13.5001
13:06:56.632,-1.9375,-14.7501
13:06:56.643,-1.4375,-14.1251
13:06:56.653,0.125,-13.9376
13:06:56.663,1.8125,-13.3126
13:06:56.673,5.875,-9.25
13:06:56.682,12,-3.375
13:06:56.694,17.5001,3.9375
13:06:56.703,23.8126,12.375
13:06:56.713,29.3126,20.4376
13:06:56.724,34.3126,28.2501
13:06:56.733,38.9376,34.1251
13:06:56.743,41.1877,41.1252
13:06:56.753,43.1252,43.8127
13:06:56.763,43.6252,46.1252
13:06:56.773,43.0002,48.3752
13:06:56.784,42.6252,47.1877
13:06:56.794,41.5627,47.2502
13:06:56.832,40.6252,47.8752
13:06:56.833,39.0001,47.1252
13:06:56.863,38.8751,48.6877
13:06:56.866,39.3127,48.5627
13:06:56.866,38.6251,48.9377
13:06:56.872,38.6876,51.5627
13:06:56.876,40.4377,52.8752
13:06:56.876,41.5002,54.3127
13:06:56.884,42.0002,55.5627
13:06:56.916,42.8127,57.9377
13:06:56.920,43.8752,57.5627
13:06:56.923,42.9377,56.8752
13:06:56.923,42.6252,56.0627
13:06:56.957,41.5002,56.2502
13:06:56.959,42.0627,54.6252
13:06:56.961,41.2502,53.6252
13:06:56.968,40.4377,52.1252
13:06:56.988,40.3752,51.8752
13:06:56.990,39.6877,50.3127
13:06:56.994,38.5001,48.9377
13:06:57.002,37.4376,48.0002
13:06:57.013,37.3751,46.4377
13:06:57.023,37.8751,45.5627
13:06:57.032,37.1876,44.3127
13:06:57.043,35.5626,42.6877
13:06:57.054,34.7501,43.2502
13:06:57.064,34.5626,42.1877
13:06:57.073,34.0001,40.1252
13:06:57.083,32.0626,38.3751
13:06:57.093,30.1876,37.1876
13:06:57.103,29.1876,36.6876
13:06:57.113,28.8751,35.1876
13:06:57.124,28.3751,32.6876
13:06:57.135,25.6876,30.5626
13:06:57.144,24.8751,29.1876
13:06:57.153,23.5626,27.1876
13:06:57.163,23.6876,24.3751
13:06:57.173,21.0001,24.0001
13:06:57.183,21.0001,24.2501
13:06:57.193,20.9376,22.6876
13:06:57.202,19.4376,20.7501
13:06:57.213,17.8751,19.6876
13:06:57.223,16.8751,19.1251
13:06:57.234,15.6876,17.5001
13:06:57.243,15.9376,15.8751
13:06:57.271,15.5001,15.0626
13:06:57.274,14.5001,14.1251
13:06:57.275,14.1251,13.125
13:06:57.283,14.1876,14.1876
13:06:57.293,14.5626,13.1251
13:06:57.303,13.6876,11.8125
13:06:57.313,12.8125,11.3125
13:06:57.324,13.0625,10.875
13:06:57.333,12.0625,9.5625
13:06:57.342,11.125,8.3125
13:06:57.353,10.5625,7.5625
13:06:57.364,10.6875,6.875
13:06:57.373,10.625,6.6875
13:06:57.383,10.625,5.1875
13:06:57.419,9.875,5.4375
13:06:57.422,9.0625,4.5625
13:06:57.424,9.0625,3.5
13:06:57.429,8.4375,2.375
13:06:57.438,7.625,1.8125
13:06:57.447,7.5,1.6875
13:06:57.458,7.3125,1.5625
13:06:57.468,7.125,0.625
13:06:57.478,7.375,-0.125
13:06:57.488,6.4375,-1.25
13:06:57.497,6.9375,-0.3125
13:06:57.508,7.9375,-0.6875
13:06:57.518,7.4375,-1.75
13:06:57.529,7.5625,-2.625
13:06:57.538,6.625,-2.625
13:06:57.548,6.4375,-3.1875
13:06:57.558,8.3125,-2
13:06:57.569,11.75,1.6875
13:06:57.578,16.7501,8.8125
13:06:57.588,21.5626,17.5001
13:06:57.598,27.3126,24.3126
13:06:57.623,32.3751,31.0001
13:06:57.625,35.8751,38.5626
13:06:57.630,38.1251,42.7502
13:06:57.667,38.1251,44.8127
13:06:57.668,37.0626,46.8752
13:06:57.670,37.1876,47.9377
13:06:57.673,36.3751,47.8127
13:06:57.678,35.5001,48.8752
13:06:57.689,34.7501,47.6252
13:06:57.722,33.5626,48.3127
13:06:57.725,33.9376,49.5002
13:06:57.726,34.0001,48.3127
13:06:57.730,32.9376,48.9377
13:06:57.762,32.6876,50.0627
13:06:57.763,33.6251,50.2502
13:06:57.767,34.1251,51.1252
13:06:57.770,33.8751,51.0627
13:06:57.791,33.8126,51.5002
13:06:57.798,33.9376,52.0627
13:06:57.811,33.2501,52.3752
13:06:57.815,33.0001,50.5627
13:06:57.818,31.0626,48.0627
13:06:57.828,29.0001,45.1252
13:06:57.839,27.8126,43.5627
13:06:57.849,26.1876,41.5627
13:06:57.858,25.0626,39.4377
13:06:57.868,24.1876,39.3752
13:06:57.878,24.3126,37.6876
13:06:57.888,23.3751,35.9376
13:06:57.898,23.1876,34.1251
13:06:57.908,22.7501,34.2501
13:06:57.918,22.3751,34.6251
13:06:57.928,22.0001,33.4376
13:06:57.938,22.1251,31.9376
13:06:57.954,21.7501,30.9376
13:06:57.963,21.1251,30.1251
13:06:57.973,20.1251,29.1876
13:06:57.982,19.3126,27.1876
13:06:57.993,18.6876,25.0626
13:06:58.003,16.2501,22.6876
13:06:58.013,14.3126,20.3126
13:06:58.023,13.1251,17.3126
13:06:58.033,10.625,15.5001
13:06:58.044,10,14.0001
13:06:58.054,9.625,12.3125
13:06:58.063,8.4375,10.3125
13:06:58.073,6.8125,7.875
13:06:58.083,5.3125,6.3125
13:06:58.093,4.3125,5.875
13:06:58.104,4,3.5
13:06:58.113,3.0625,1.5625
13:06:58.130,2.3125,-0.0625
13:06:58.143,0.75,0.25
13:06:58.146,0.125,-2.5625
13:06:58.154,-0.8125,-5
13:06:58.165,-2.125,-5.9375
13:06:58.173,-3.0625,-5.9375
13:06:58.182,-3.3125,-8.3125
13:06:58.193,-4.5,-9.75
13:06:58.203,-5.125,-11.0625
13:06:58.214,-5.6875,-12.0625
13:06:58.224,-7.125,-13.3751
13:06:58.234,-8,-13.8751
13:06:58.243,-8.375,-15.8751
13:06:58.254,-9.5625,-18.1876
13:06:58.263,-11.0625,-18.5626
13:06:58.275,-11.4375,-19.3751
13:06:58.294,-11.5625,-20.6251
13:06:58.296,-12.1875,-21.5626
13:06:58.330,-13.1876,-22.4376
13:06:58.332,-13.4376,-22.0001
13:06:58.334,-14.5001,-23.5626
13:06:58.338,-15.3751,-23.8126
13:06:58.369,-16.6876,-25.5626
13:06:58.373,-17.7501,-25.6251
13:06:58.373,-17.8751,-27.5001
13:06:58.376,-18.8751,-27.2501
13:06:58.405,-17.8126,-28.6251
13:06:58.408,-17.9376,-27.5001
13:06:58.409,-17.5626,-27.5626
13:06:58.418,-17.0001,-26.8751
13:06:58.422,-15.7501,-27.1876
13:06:58.455,-13.2501,-21.8751
13:06:58.455,-8.25,-16.9376
13:06:58.456,-3.8125,-9.25
13:06:58.464,1.75,-1.3125
13:06:58.474,7.0625,6.6875
13:06:58.484,12.25,15.0626
13:06:58.494,15.5001,22.4376
13:06:58.504,17.1251,27.2501
13:06:58.512,18.6876,30.6251
13:06:58.523,17.8126,33.1876
13:06:58.550,16.8751,35.8751
13:06:58.557,17.3126,35.8126
13:06:58.557,16.1251,37.8126
13:06:58.570,16.1876,37.5626
13:06:58.574,16.0001,38.5626
13:06:58.585,16.3751,40.2502
13:06:58.593,16.6876,41.0002
13:06:58.604,16.9376,43.5002
13:06:58.614,17.5626,43.1877
13:06:58.624,17.9376,46.0627
13:06:58.634,18.5001,47.1877
13:06:58.642,17.9376,47.8127
13:06:58.654,17.5001,48.8127
13:06:58.662,17.6251,49.8752
13:06:58.674,17.0626,48.6252
13:06:58.683,15.6876,47.7502
13:06:58.694,14.7501,47.3127
13:06:58.704,13.8126,46.5627
13:06:58.712,13.5626,44.1877
13:06:58.723,12.375,42.3752
13:06:58.734,11.5625,42.3752
13:06:58.745,12.125,40.3127
13:06:58.752,11.0625,38.5626
13:06:58.764,10.9375,37.9376
13:06:58.772,10.5625,37.5626
13:06:58.783,11,36.5001
13:06:58.793,11.125,35.8751
13:06:58.804,10.75,34.9376
13:06:58.812,9.6875,34.5626
13:06:58.824,9.625,33.2501
13:06:58.833,9.0625,31.7501
13:06:58.843,8.0625,30.1251
13:06:58.854,7.25,28.6876
13:06:58.863,7.125,28.1876
13:06:58.875,5.6875,25.3126
13:06:58.883,4.6875,23.3751
13:06:58.893,3.25,22.5001
13:06:58.904,2.9375,21.1251
13:06:58.913,1.4375,17.7501
13:06:58.923,-0.8125,15.8126
13:06:58.934,-1.375,13.9376
13:06:58.950,-2.1875,12.0625
13:06:58.952,-3.9375,9.875
13:06:58.964,-4.75,9.5
13:06:58.973,-5.75,7.3125
13:06:58.987,-6.375,6.8125
13:06:58.994,-5.5,5.25
13:06:59.004,-6.5,4.125
13:06:59.014,-7.0625,2.5625
13:06:59.023,-8.25,1.9375
13:06:59.034,-7.75,1.0625
13:06:59.044,-9.0625,-0.5625
13:06:59.057,-10.1875,-2.25
13:06:59.091,-10.5625,-1.9375
13:06:59.093,-10.9375,-3.25
13:06:59.125,-10.875,-4.4375
13:06:59.126,-12.0625,-5.75
13:06:59.129,-12.625,-6.5625
13:06:59.134,-13.6876,-8.875
13:06:59.134,-14.5626,-8.8125
13:06:59.134,-15.2501,-10.3125
13:06:59.168,-16.3126,-11.8125
13:06:59.171,-17.6876,-12.125
13:06:59.173,-17.8126,-13.0625
13:06:59.175,-17.8751,-13.8126
13:06:59.208,-17.6251,-14.8126
13:06:59.209,-17.6251,-14.5001
13:06:59.213,-17.6876,-14.6876
13:06:59.216,-16.9376,-15.1251
13:06:59.233,-18.0001,-16.5001
13:06:59.236,-18.1876,-16.5626
13:06:59.245,-18.8751,-17.5001
13:06:59.254,-18.8751,-17.3751
13:06:59.265,-18.3126,-18.2501
13:06:59.274,-18.5001,-19.0626
13:06:59.285,-18.0626,-18.5001
13:06:59.294,-17.5626,-18.8126
13:06:59.304,-17.3126,-18.7501
13:06:59.313,-17.5626,-19.1251
13:06:59.328,-17.8126,-20.1251
13:06:59.333,-17.8126,-20.9376
13:06:59.345,-16.7501,-20.3751
13:06:59.354,-15.5001,-19.5001
13:06:59.365,-14.1876,-18.3751
13:06:59.373,-13.5001,-19.1251
13:06:59.396,-13.1251,-18.6876
13:06:59.396,-12.25,-19.2501
13:06:59.406,-10.9375,-16.7501
13:06:59.422,-7.625,-14.8126
13:06:59.424,-2.25,-7.125
13:06:59.441,4.125,0.1875
13:06:59.444,11.625,11.25
13:06:59.454,16.9376,19.0626
13:06:59.464,22.4376,28.2501
13:06:59.474,26.0626,35.6876
13:06:59.484,28.9376,42.1877
13:06:59.494,31.0001,47.4377
13:06:59.503,31.4376,50.7502
13:06:59.514,32.1251,53.3127
13:06:59.524,31.1876,55.3752
13:06:59.534,30.8751,55.8127
13:06:59.543,29.6251,56.8752
13:06:59.554,29.5001,56.8752
13:06:59.565,29.0001,58.1252
13:06:59.574,29.1251,59.0002
13:06:59.582,28.6876,60.5627
13:06:59.594,28.8751,62.5002
13:06:59.604,29.2501,62.7502
13:06:59.613,29.5001,63.0002
13:06:59.624,29.3126,64.3752
13:06:59.634,28.8751,63.6877
13:06:59.645,27.5001,63.5627
13:06:59.655,26.6251,64.5002
13:06:59.664,26.5001,62.9377
13:06:59.674,24.6251,60.9377
13:06:59.684,22.8126,59.1877
13:06:59.694,22.7501,57.5002
13:06:59.703,21.5626,55.0002
13:06:59.714,20.6251,53.3752
13:06:59.724,20.5001,52.5002
13:06:59.733,20.0626,51.3127
13:06:59.744,19.5001,49.0627
13:06:59.765,17.0001,46.5002
13:06:59.768,16.2501,45.3752
13:06:59.808,16.3751,44.2502
13:06:59.811,16.1876,43.4377
13:06:59.812,16.6876,43.9377
13:06:59.838,17.1251,43.6252
13:06:59.839,17.5626,41.8752
13:06:59.846,16.9376,40.2502
13:06:59.846,16.5626,40.0002
13:06:59.846,16.8751,38.9376
13:06:59.887,16.0626,35.6876
13:06:59.890,14.9376,33.9376
13:06:59.892,14.1251,30.8751
13:06:59.895,11.3125,27.1876
13:06:59.896,9,24.7501
13:06:59.925,7.1875,20.5001
13:06:59.926,4.6875,17.8126
13:06:59.929,2.8125,15.6876
13:06:59.934,1.75,12.4375
13:06:59.944,-0.875,9.6875
13:06:59.953,-3.3125,6.875
13:06:59.964,-4.3125,5.875
13:06:59.974,-5.375,3.9375
13:06:59.984,-6.5,1.8125
13:06:59.995,-8.125,0.4375
13:07:00.005,-9.1875,-1.5625
13:07:00.016,-10.4375,-2.1875
13:07:00.024,-10.4375,-3.8125
13:07:00.034,-10.5625,-4.5625
13:07:00.044,-11,-5.4375
13:07:00.054,-11.375,-6.4375
13:07:00.064,-11.9375,-7.4375
13:07:00.078,-12.8125,-9.1875
13:07:00.084,-12.25,-8.8125
13:07:00.094,-13.6251,-10.6875
13:07:00.104,-14.0626,-12.0625
13:07:00.114,-13.4376,-12.0625
13:07:00.124,-13.3751,-12.8125
13:07:00.134,-13.1251,-11.75
13:07:00.144,-11.375,-12.25
13:07:00.154,-12.25,-12.5
13:07:00.164,-12.375,-13.2501
13:07:00.174,-12.4375,-13.3126
13:07:00.184,-12.5,-13.9376
13:07:00.194,-11.5625,-13.3751
13:07:00.204,-10.625,-14.5626
13:07:00.214,-10.75,-14.3751
13:07:00.224,-10,-15.6876
13:07:00.234,-10.5625,-15.3751
13:07:00.244,-10.375,-17.5001
13:07:00.254,-10.5,-16.8751
13:07:00.264,-10.1875,-18.5626
13:07:00.274,-10.4375,-19.6876
13:07:00.284,-11.1875,-20.3751
13:07:00.294,-13.6251,-23.6251
13:07:00.305,-14.6251,-23.8751
13:07:00.314,-15.5626,-26.0001
13:07:00.324,-15.8126,-25.6876
13:07:00.334,-15.9376,-27.5626
13:07:00.344,-15.3126,-26.5001
13:07:00.354,-15.3751,-27.3751
13:07:00.364,-15.1251,-26.5626
13:07:00.386,-14.1876,-26.5626
13:07:00.393,-11,-21.5626
13:07:00.395,-6,-16.1251
13:07:00.410,0.8125,-7.25
13:07:00.414,8.125,3.6875
13:07:00.424,15.2501,15.4376
13:07:00.434,22.3751,24.8751
13:07:00.444,28.3751,35.3751
13:07:00.460,32.5626,44.0627
13:07:00.464,36.8751,51.3127
13:07:00.474,38.4376,56.9377
13:07:00.484,39.8127,60.0627
13:07:00.494,40.8752,64.0002
13:07:00.504,41.2502,64.8127
13:07:00.514,41.3127,66.6253
13:07:00.534,40.5627,67.5003
13:07:00.537,39.2501,66.6253
13:07:00.565,38.3126,67.1253
13:07:00.567,37.8751,68.0628
13:07:00.569,36.6251,66.8128
13:07:00.574,36.1251,68.1253
13:07:00.606,36.1251,68.6253
13:07:00.609,35.2501,68.4378
13:07:00.612,34.6251,68.8128
13:07:00.614,34.5001,70.8753
13:07:00.646,34.5001,69.7503
13:07:00.648,33.4376,68.3753
13:07:00.651,31.9376,67.5003
13:07:00.658,31.7501,65.6878
13:07:00.664,29.7501,63.2502
13:07:00.702,28.2501,61.6877
13:07:00.703,26.8126,57.8752
13:07:00.707,26.4376,57.0627
13:07:00.720,25.1251,54.0002
13:07:00.735,25.0001,53.5002
13:07:00.736,24.6876,51.2502
13:07:00.738,24.1876,50.4377
13:07:00.745,25.1251,49.0002
13:07:00.755,24.4376,48.8127
13:07:00.764,24.6876,48.3127
13:07:00.774,24.5626,47.1877
13:07:00.784,23.7501,46.1877
13:07:00.794,24.1876,45.0002
13:07:00.804,23.1876,43.1877
13:07:00.814,22.5626,42.1252
13:07:00.824,21.0626,39.1876
13:07:00.836,19.7501,38.3751
13:07:00.844,18.6876,35.6876
13:07:00.855,17.4376,33.5626
13:07:00.864,16.8126,32.5001
13:07:00.874,15.0001,31.0626
13:07:00.884,14.0626,27.8126
13:07:00.894,14.0001,26.2501
13:07:00.904,14.0001,24.9376
13:07:00.914,13.6876,23.9376
13:07:00.925,13.6876,23.1251
13:07:00.934,12.75,21.1876
13:07:00.944,13.3126,20.2501
13:07:00.954,12.625,19.4376
13:07:00.964,13.6876,17.9376
13:07:00.974,14.8126,17.3126
13:07:00.984,17.1876,18.1251
13:07:00.994,15.7501,13.5001
13:07:01.004,14.3126,11.125
13:07:01.014,13,9.3125
13:07:01.024,11.75,6.125
13:07:01.034,9.625,4.1875
13:07:01.044,8.75,1.3125
13:07:01.054,6.125,-0.5625
13:07:01.064,5.4375,-2.5625
13:07:01.074,3.875,-3.3125
13:07:01.084,2.625,-4.3125
13:07:01.112,1.75,-6.3125
13:07:01.114,0.3125,-6.875
13:07:01.117,-0.375,-7.9375
13:07:01.124,-0.9375,-9.4375
13:07:01.137,-1.4375,-10.4375
13:07:01.144,-1.3125,-10.625
13:07:01.154,-2.0625,-10.6875
13:07:01.164,-1.8125,-10.8125
13:07:01.174,-2.3125,-10.5625
13:07:01.184,-1.6875,-11.75
13:07:01.202,-2.25,-12.1875
13:07:01.205,-3.5625,-13.2501
13:07:01.233,-2,-12.4375
13:07:01.235,0.5625,-10.25
13:07:01.236,4.6875,-3.75
13:07:01.246,10.875,3.6875
13:07:01.276,16.2501,13.1251
13:07:01.278,23.2501,23.3751
13:07:01.280,27.0626,32.6876
13:07:01.284,32.1876,41.3752
13:07:01.312,35.3751,49.9377
13:07:01.314,36.7501,56.1252
13:07:01.317,38.2501,60.5002
13:07:01.357,37.5626,64.8752
13:07:01.357,36.5626,65.3128
13:07:01.359,36.0626,66.3753
13:07:01.368,33.1876,65.8128
13:07:01.368,31.9376,65.1878
13:07:01.374,29.9376,65.2502
13:07:01.389,28.5626,63.8127
13:07:01.394,27.5626,64.0627
13:07:01.404,27.0001,63.7502
13:07:01.414,25.3126,63.5627
13:07:01.425,25.1251,64.5627
13:07:01.434,24.6876,64.3752
13:07:01.444,23.7501,64.0002
13:07:01.454,22.4376,64.5002
13:07:01.464,21.0001,61.6877
13:07:01.474,18.7501,59.1252
13:07:01.484,16.7501,57.1252
13:07:01.494,14.6876,53.3127
13:07:01.504,13.1251,49.8752
13:07:01.514,11.375,47.5002
13:07:01.524,10,44.5002
13:07:01.535,9,41.9377
13:07:01.544,7.5,39.7502
13:07:01.554,6.8125,38.8126
13:07:01.564,6.4375,35.8126
13:07:01.574,5.3125,34.6251
13:07:01.584,4.375,33.4376
13:07:01.594,4.3125,31.6876
13:07:01.604,2.875,29.1876
13:07:01.614,1.375,27.7501
13:07:01.624,0.125,27.1251
13:07:01.634,-0.8125,23.6251
13:07:01.644,-3.875,19.8751
13:07:01.654,-7.1875,17.9376
13:07:01.664,-9.25,13.6876
13:07:01.674,-11.3125,10.5
13:07:01.689,-13.5001,7.9375
13:07:01.704,-16.3751,5.375
13:07:01.708,-17.8126,3.125
13:07:01.714,-20.0626,-1.125
13:07:01.725,-22.5001,-4.25
13:07:01.734,-25.1251,-5.875
13:07:01.744,-26.2501,-8.75
13:07:01.754,-28.3751,-12.3125
13:07:01.764,-30.6876,-15.3126
13:07:01.774,-31.8751,-16.7501
13:07:01.784,-32.5001,-17.3751
13:07:01.794,-33.4376,-19.7501
13:07:01.804,-34.4376,-20.7501
13:07:01.814,-35.3126,-22.0626
13:07:01.824,-35.0001,-24.2501
13:07:01.834,-35.2501,-25.0626
13:07:01.844,-34.5626,-25.1876
13:07:01.854,-33.9376,-26.6251
13:07:01.865,-34.5001,-28.0001
13:07:01.875,-34.7501,-27.9376
13:07:01.884,-35.1251,-30.1251
13:07:01.894,-35.3751,-30.6251
13:07:01.904,-35.0626,-32.4376
13:07:01.935,-36.2501,-32.7501
13:07:01.937,-37.5626,-34.6251
13:07:01.940,-37.9376,-36.4376
13:07:01.946,-38.0626,-37.5001
13:07:01.974,-38.3126,-37.3751
13:07:01.977,-37.7501,-38.5001
13:07:01.980,-36.7501,-39.0626
13:07:02.015,-37.1251,-38.4376
13:07:02.018,-36.9376,-39.8127
13:07:02.063,-34.2501,-39.0626
13:07:02.065,-31.5626,-34.6251
13:07:02.067,-24.3751,-27.0001
13:07:02.068,-17.8126,-16.6876
13:07:02.068,-8.75,-5.375
13:07:02.083,-3,6.375
13:07:02.087,4.6875,17.5001
13:07:02.095,9.0625,28.1876
13:07:02.104,13.2501,35.8126
13:07:02.114,15.8126,44.0627
13:07:02.124,17.9376,48.6877
13:07:02.135,20.3751,55.0002
13:07:02.145,21.0626,57.9377
13:07:02.156,20.5001,58.8752
13:07:02.164,20.1876,59.6252
13:07:02.174,19.9376,60.1877
13:07:02.184,20.3751,61.7502
13:07:02.194,21.1251,63.9377
13:07:02.204,23.1876,64.5002
13:07:02.214,24.3126,65.8128
13:07:02.225,25.1251,66.5003
13:07:02.234,27.0626,71.9378
13:07:02.246,27.3126,71.5628
13:07:02.254,23.3751,67.3128
13:07:02.265,22.6251,66.5628
13:07:02.274,22.5001,64.9377
13:07:02.284,20.8126,61.5002
13:07:02.294,18.5626,58.4377
13:07:02.304,16.8126,54.0627
13:07:02.314,14.8126,51.0002
13:07:02.325,13.5626,48.3752
13:07:02.334,11.625,45.2502
13:07:02.344,9.8125,42.7502
13:07:02.354,8.125,40.2502
13:07:02.364,7.8125,39.2501
13:07:02.390,6.5625,36.8751
13:07:02.393,6.3125,36.6876
13:07:02.395,6.625,33.9376
13:07:02.405,5.6875,34.3751
13:07:02.414,6.5625,32.3751
13:07:02.424,6.375,31.7501
13:07:02.434,6.5,29.3126
13:07:02.444,5.8125,28.3751
13:07:02.454,5.375,25.5001
13:07:02.465,4.8125,24.3126
13:07:02.474,5.75,21.6876
13:07:02.484,5.6875,21.4376
13:07:02.494,8.125,20.5001
13:07:02.505,9.75,20.1251
13:07:02.515,12.0625,20.9376
13:07:02.524,13.1876,19.0626
13:07:02.534,14.3126,18.8751
13:07:02.544,14.7501,17.0001
13:07:02.555,14.6251,15.3126
13:07:02.564,15.0626,13.3126
13:07:02.574,14.9376,11.625
13:07:02.584,14.0626,8.375
13:07:02.594,10.625,3.3125
13:07:02.604,9.8125,2.0625
13:07:02.614,7,-1.1875
13:07:02.624,5.3125,-4.9375
13:07:02.634,3.6875,-7
13:07:02.644,1.0625,-10.25
13:07:02.655,-2.25,-12.9375
13:07:02.681,-4.3125,-15.1251
13:07:02.683,-6.9375,-16.8751
13:07:02.686,-7.6875,-18.5626
13:07:02.719,-10.4375,-19.8126
13:07:02.722,-11.9375,-21.0001
13:07:02.726,-14.5626,-22.7501
13:07:02.727,-16.5001,-23.0626
13:07:02.760,-17.5626,-25.3126
13:07:02.762,-19.1876,-25.3126
13:07:02.765,-18.6251,-25.6876
13:07:02.770,-19.1876,-25.6876
13:07:02.798,-19.2501,-26.5626
13:07:02.800,-20.8751,-26.4376
13:07:02.803,-21.4376,-28.3751
13:07:02.827,-22.8126,-28.7501
13:07:02.830,-23.1251,-30.1251
13:07:02.831,-23.0626,-30.3126
13:07:02.839,-24.0626,-31.5626
13:07:02.844,-22.3126,-30.8751
13:07:02.857,-21.5626,-30.7501
13:07:02.864,-19.8126,-29.7501
13:07:02.874,-19.5001,-29.1251
13:07:02.888,-17.3751,-29.2501
13:07:02.894,-15.7501,-26.8751
13:07:02.905,-10.8125,-22.5001
13:07:02.917,-4.3125,-14.8126
13:07:02.925,6.0625,-3.1875
13:07:02.935,15.1876,10.1875
13:07:02.944,26.1876,25.0001
13:07:02.954,34.6251,38.7501
13:07:02.964,41.0002,50.9377
13:07:02.984,44.8752,59.6252
13:07:02.990,46.6252,66.8753
13:07:02.996,46.8127,71.3128
13:07:03.015,45.4377,75.0628
13:07:03.020,42.5627,75.3753
13:07:03.030,39.2502,76.1253
13:07:03.034,37.9376,76.6253
13:07:03.044,36.3126,78.5003
13:07:03.054,35.4376,80.0003
13:07:03.065,33.6251,79.9378
13:07:03.074,29.8751,78.6878
13:07:03.084,24.4376,76.6253
13:07:03.094,18.1876,74.3753
13:07:03.104,13,70.6253
13:07:03.114,7,67.8753
13:07:03.124,1.3125,65.3752
13:07:03.135,-3.25,63.9377
13:07:03.144,-7.125,61.7502
13:07:03.155,-11.5625,59.5002
13:07:03.164,-17.2501,56.3127
13:07:03.175,-25.1251,51.3752
13:07:03.184,-35.8126,44.2502
13:07:03.194,-45.3752,37.3126
13:07:03.205,-56.4377,30.5626
13:07:03.214,-65.3127,25.2501
13:07:03.224,-74.0628,21.6251
13:07:03.234,-85.0628,14.8751
13:07:03.246,-95.5629,9.9375
13:07:03.254,-106.6879,5.4375
13:07:03.265,-121.3755,-0.375
13:07:03.274,-139.1255,-6.4375
13:07:03.286,-159.5631,-13.3126
13:07:03.295,-176.3132,-14.2501
13:07:03.310,-191.7507,-13.6251
13:07:03.328,-209.2508,-17.0626
13:07:03.328,-218.6258,-20.6251
13:07:03.343,-221.2508,-19.0626
13:07:03.347,-220.1883,-17.8126
13:07:03.360,-218.3758,-14.3126
13:07:03.365,-223.8759,-18.2501
13:07:03.375,-229.9384,-25.3751
13:07:03.384,-236.8134,-31.7501
13:07:03.395,-242.2509,-39.8127
13:07:03.404,-246.3134,-47.4377
13:07:03.434,-249.0009,-55.8752
13:07:03.436,-249.7509,-61.8752
13:07:03.439,-252.1885,-69.8753
13:07:03.446,-254.001,-77.5003
13:07:03.473,-258.126,-83.8753
13:07:03.476,-258.5635,-90.6254
13:07:03.480,-256.4385,-94.6254
13:07:03.486,-253.8135,-100.6254
13:07:03.510,-249.8759,-105.6879
13:07:03.514,-245.0634,-112.9379
13:07:03.517,-239.5009,-118.438
13:07:03.545,-237.1259,-125.8755
13:07:03.548,-238.3134,-136.1255
13:07:03.550,-238.5009,-146.688
13:07:03.555,-238.3759,-155.1256
13:07:03.583,-237.1259,-165.0006
13:07:03.586,-234.1259,-172.9382
13:07:03.588,-229.0009,-178.6257
13:07:03.596,-221.5009,-183.7507
13:07:03.604,-215.4383,-188.3132
13:07:03.616,-211.5633,-193.5007
13:07:03.624,-204.7508,-197.6257
13:07:03.639,-199.9383,-198.8758
13:07:03.645,-192.6257,-199.2508
13:07:03.670,-185.1257,-198.0633
13:07:03.674,-181.0632,-199.7508
13:07:03.675,-179.0632,-200.6258
13:07:03.686,-176.1882,-202.4383
13:07:03.696,-173.6882,-201.9383
13:07:03.705,-173.1882,-205.0008
13:07:03.714,-170.2506,-205.9383
13:07:03.725,-163.0006,-204.5633
13:07:03.735,-153.3756,-201.8133
13:07:03.745,-144.8755,-198.4383
13:07:03.755,-139.438,-199.8758
13:07:03.764,-139.3755,-203.5008
13:07:03.776,-143.438,-207.6258
13:07:03.785,-144.3755,-210.2508
13:07:03.794,-141.313,-206.9383
13:07:03.807,-135.938,-199.0633
13:07:03.816,-127.438,-188.3132
13:07:03.825,-121.2505,-174.4382
13:07:03.835,-117.3754,-164.1256
13:07:03.844,-115.6879,-150.8756
13:07:03.855,-113.1879,-136.8755
13:07:03.865,-108.5629,-122.938
13:07:03.875,-101.7504,-107.3129
13:07:03.886,-96.1879,-93.5629
13:07:03.894,-90.3128,-84.6253
13:07:03.904,-86.2503,-74.7503
13:07:03.915,-84.6253,-68.5628
13:07:03.924,-83.8753,-63.3127
13:07:03.934,-84.4378,-56.8127
13:07:03.948,-79.0003,-47.1877
13:07:03.954,-73.0003,-38.9376
13:07:03.965,-59.5627,-23.9376
13:07:03.978,-43.5002,-9.0625
13:07:03.986,-31.6251,0.5625
13:07:03.995,-23.9376,7.875
13:07:04.004,-19.0001,11.8125
13:07:04.015,-18.3751,12.625
13:07:04.024,-19.1251,11.5
13:07:04.037,-22.5001,9
13:07:04.045,-30.3126,5.75
13:07:04.054,-40.8752,-3.6875
13:07:04.064,-50.9377,-11.5625
13:07:04.074,-60.7502,-18.0626
13:07:04.085,-66.0628,-23.6251
13:07:04.095,-69.3128,-26.6251
13:07:04.104,-71.6253,-31.4376
13:07:04.116,-73.0628,-34.1876
13:07:04.125,-73.8753,-35.3126
13:07:04.134,-73.4378,-37.8751
13:07:04.146,-72.5003,-38.9376
13:07:04.155,-72.4378,-40.5627
13:07:04.164,-71.1253,-42.8127
13:07:04.198,-72.6878,-45.5002
13:07:04.199,-71.7503,-48.5002
13:07:04.202,-72.5628,-51.0627
13:07:04.207,-70.3128,-53.5627
13:07:04.241,-69.5628,-54.8127
13:07:04.245,-67.8753,-58.7502
13:07:04.246,-65.5003,-60.3752
13:07:04.248,-63.1877,-63.8127
13:07:04.255,-62.8127,-68.6253
13:07:04.291,-63.7502,-73.9378
13:07:04.365,-66.5003,-79.6253
13:07:04.365,-68.3128,-86.1878
13:07:04.381,-69.5003,-90.0003
13:07:04.392,-72.1878,-94.0004
13:07:04.394,-74.4378,-99.5004
13:07:04.394,-76.3128,-103.5004
13:07:04.394,-76.2503,-105.8754
13:07:04.394,-76.1878,-109.8754
13:07:04.401,-74.4378,-110.4379
13:07:04.410,-72.0003,-110.5629
13:07:04.422,-68.5628,-112.6879
13:07:04.430,-66.4378,-114.0629
13:07:04.440,-67.0003,-116.6254
13:07:04.453,-67.6253,-120.5005
13:07:04.460,-67.5628,-122.313
13:07:04.470,-68.2503,-123.313
13:07:04.480,-69.8753,-126.438
13:07:04.490,-72.4378,-128.938
13:07:04.500,-77.8753,-132.6255
13:07:04.510,-81.6878,-133.688
13:07:04.520,-84.9378,-134.2505
13:07:04.530,-86.5628,-133.063
13:07:04.540,-86.1253,-130.8755
13:07:04.550,-95.9379,-130.063
13:07:04.561,-96.3754,-128.063
13:07:04.570,-94.9379,-125.188
13:07:04.580,-92.1254,-120.438
13:07:04.590,-89.4378,-115.0004
13:07:04.600,-85.6878,-111.7504
13:07:04.610,-82.3753,-108.9379
13:07:04.628,-80.6878,-106.2504
13:07:04.630,-79.2503,-105.6254
13:07:04.645,-76.0003,-101.9379
13:07:04.660,-75.0003,-98.0629
13:07:04.663,-64.0002,-90.2503
13:07:04.672,-51.0002,-76.0628
13:07:04.680,-40.0002,-64.3127
13:07:04.692,-26.1251,-50.0627
13:07:04.700,-13.7501,-34.8751
13:07:04.709,-5,-20.3751
13:07:04.720,5.125,-8.0625
13:07:04.730,12,5.625
13:07:04.740,17.1251,15.3126
13:07:04.753,19.7501,23.1876
13:07:04.764,20.3751,29.6251
13:07:04.770,16.1876,33.3126
13:07:04.782,11,33.6251
13:07:04.791,5.0625,34.5626
13:07:04.800,-0.0625,33.2501
13:07:04.816,-3.3125,33.1876
13:07:04.821,-7.0625,32.3126
13:07:04.853,-9.375,31.8751
13:07:04.856,-8.875,34.8751
13:07:04.858,-4.875,36.8751
13:07:04.860,1.125,41.1877
13:07:04.894,5.8125,44.9377
13:07:04.897,6.625,45.1252
13:07:04.897,6.625,43.6252
13:07:04.921,4.4375,41.8127
13:07:04.922,2.25,38.7501
13:07:04.925,0.125,35.4376
13:07:04.950,-2.4375,32.6876
13:07:04.952,-2.75,28.8751
13:07:04.955,-3.5625,25.6251
13:07:04.960,-3.3125,21.1876
13:07:04.993,-4.625,17.5001
13:07:04.996,-4.3125,12.875
13:07:04.997,-4.25,9.4375
13:07:05.000,-4.875,4.875
13:07:05.011,-5.1875,0.375
13:07:05.020,-8.1875,-4.9375
13:07:05.030,-10.25,-10.875
13:07:05.040,-13.6251,-16.1876
13:07:05.050,-16.1876,-21.6251
13:07:05.060,-19.9376,-25.8751
13:07:05.070,-21.0626,-29.7501
13:07:05.080,-21.4376,-32.6251
13:07:05.090,-21.2501,-34.0626
13:07:05.100,-20.1251,-37.0001
13:07:05.110,-18.6251,-39.1251
13:07:05.120,-16.5001,-40.2502
13:07:05.130,-14.6251,-40.7502
13:07:05.141,-11.9375,-42.3127
13:07:05.150,-13.6251,-43.0627
13:07:05.160,-16.6876,-47.9377
13:07:05.170,-20.2501,-50.0627
13:07:05.180,-23.8126,-50.5627
13:07:05.190,-24.5001,-50.9377
13:07:05.200,-26.9376,-50.3127
13:07:05.210,-26.5001,-49.9377
13:07:05.220,-25.8751,-48.5002
13:07:05.230,-27.4376,-47.4377
13:07:05.240,-28.8126,-48.0002
13:07:05.250,-30.1251,-46.1877
13:07:05.260,-30.3751,-45.5627
13:07:05.270,-28.4376,-43.1252
13:07:05.280,-28.4376,-40.9377
13:07:05.291,-28.9376,-40.6252
13:07:05.300,-30.1876,-40.1252
13:07:05.310,-29.8751,-39.5627
13:07:05.323,-30.5626,-37.8126
13:07:05.332,-27.5001,-35.7501
13:07:05.340,-25.6251,-32.0001
13:07:05.350,-22.0001,-30.3751
13:07:05.360,-11,-20.6251
13:07:05.370,-3.1875,-13.6251
13:07:05.380,2.75,-11.75
13:07:05.390,5.75,-11.8125
13:07:05.400,6.4375,-13.3126
13:07:05.410,6.1875,-14.6876
13:07:05.420,6,-17.5626
13:07:05.430,2.5,-20.5001
13:07:05.440,-0.75,-24.3126
13:07:05.450,-6.625,-27.3751
13:07:05.461,-13.0625,-31.3126
13:07:05.470,-21.1251,-35.7501
13:07:05.480,-27.1876,-39.7502
13:07:05.490,-33.8126,-42.5627
13:07:05.500,-38.6251,-45.0627
13:07:05.517,-42.9377,-47.8127
13:07:05.520,-46.5627,-48.8752
13:07:05.530,-48.0002,-48.5627
13:07:05.540,-46.1252,-44.5627
13:07:05.550,-39.7502,-37.6876
13:07:05.560,-32.3751,-25.4376
13:07:05.592,-22.4376,-13.3751
13:07:05.596,-13.3751,-2
13:07:05.597,-4.1875,10.75
13:07:05.601,4.0625,19.5626
13:07:05.633,7.9375,25.8126
13:07:05.634,11.1875,29.1251
13:07:05.662,12.8125,31.1876
13:07:05.752,13.3126,31.5626
13:07:05.754,13.9376,32.5001
13:07:05.758,14.1251,29.9376
13:07:05.758,14.1251,29.2501
13:07:05.760,12.9375,25.9376
13:07:05.774,12.125,24.7501
13:07:05.782,11.375,20.6251
13:07:05.792,10.3125,18.5626
13:07:05.802,10.3125,15.4376
13:07:05.811,10.6875,13.3126
13:07:05.821,11.3125,11.25
13:07:05.833,10.6875,8.875
13:07:05.841,10.1875,5.4375
13:07:05.850,7.875,0.9375
13:07:05.860,6.3125,-4.25
13:07:05.872,2.1875,-11.4375
13:07:05.881,-3.6875,-18.2501
13:07:05.890,-8.125,-25.1251
13:07:05.900,-11.9375,-31.6876
13:07:05.910,-15.1876,-38.6876
13:07:05.920,-34.5001,-78.8753
13:07:05.930,-35.5001,-79.2503
13:07:05.946,-37.5001,-79.5003
13:07:05.956,-37.1251,-78.9378
13:07:05.960,-36.8126,-77.3753
13:07:05.977,-36.6251,-75.9378
13:07:05.983,-35.6876,-74.0003
13:07:05.995,-34.1876,-72.7503
13:07:06.002,-31.6251,-69.9378
13:07:06.012,-30.3126,-68.5628
13:07:06.021,-30.6876,-67.6253
13:07:06.033,-31.5001,-67.8753
13:07:06.042,-32.8751,-67.2503
13:07:06.051,-33.1251,-68.0628
13:07:06.060,-32.5626,-65.9378
13:07:06.070,-31.5626,-65.5628
13:07:06.080,-31.8126,-65.0627
13:07:06.090,-33.7501,-67.2503
13:07:06.105,-36.7501,-67.1253
13:07:06.115,-38.1251,-68.3128
13:07:06.125,-31.2501,-59.9377
13:07:06.135,-26.5626,-55.0002
13:07:06.145,-21.3126,-49.3127
13:07:06.155,-18.8126,-48.0002
13:07:06.165,-16.4376,-45.7502
13:07:06.175,-17.3126,-44.6252
13:07:06.185,-17.1876,-46.2502
13:07:06.195,-21.1876,-46.9377
13:07:06.205,-25.9376,-51.8752
13:07:06.231,-31.0626,-54.8127
13:07:06.234,-38.0626,-58.6877
13:07:06.236,-43.3752,-62.2502
13:07:06.245,-50.3127,-65.6253
13:07:06.255,-55.7502,-69.4378
13:07:06.266,-64.5627,-74.7503
13:07:06.275,-66.1878,-76.5628
13:07:06.285,-67.1878,-76.0003
13:07:06.296,-65.8128,-77.0628
13:07:06.307,-65.0002,-76.3753
13:07:06.316,-63.4377,-76.1878
13:07:06.326,-61.5002,-76.6878
13:07:06.336,-60.6252,-77.0628
13:07:06.345,-61.1252,-79.8128
13:07:06.355,-64.2502,-82.5003
13:07:06.389,-65.1878,-85.4378
13:07:06.390,-65.8753,-88.3128
13:07:06.393,-63.8127,-88.5628
13:07:06.419,-62.0002,-90.8129
13:07:06.420,-61.5627,-92.4379
13:07:06.424,-59.4377,-95.1879
13:07:06.450,-56.9377,-94.6254
13:07:06.452,-51.9377,-94.3754
13:07:06.455,-45.9377,-89.2503
13:07:06.459,-39.4377,-84.7503
13:07:06.489,-33.3126,-79.1878
13:07:06.491,-28.0626,-73.1253
13:07:06.494,-23.3126,-69.0003
13:07:06.498,-19.4376,-64.3127
13:07:06.530,-17.0001,-62.3752
13:07:06.532,-16.0001,-59.5002
13:07:06.534,-15.8126,-59.1877
13:07:06.539,-16.6876,-59.1252
13:07:06.550,-16.0001,-60.1252
13:07:06.555,-16.3751,-59.0002
13:07:06.565,-15.2501,-60.9377
13:07:06.575,-15.6251,-59.5627
13:07:06.585,-16.1876,-61.8752
13:07:06.595,-17.1251,-62.4377
13:07:06.607,-19.1251,-63.7502
13:07:06.615,-19.8126,-63.0002
13:07:06.625,-20.2501,-61.8752
13:07:06.638,-19.7501,-61.1877
13:07:06.648,-21.0001,-59.5627
13:07:06.655,-22.6876,-60.2502
13:07:06.666,-23.8751,-59.3752
13:07:06.675,-25.2501,-59.5002
13:07:06.685,-23.8126,-56.6252
13:07:06.695,-21.1876,-53.9377
13:07:06.706,-18.2501,-50.3127
13:07:06.716,-15.5001,-47.3752
13:07:06.726,-15.2501,-46.2502
13:07:06.736,-16.1251,-46.5002
13:07:06.748,-17.5626,-45.9377
13:07:06.757,-19.5626,-47.6252
13:07:06.765,-19.2501,-44.5002
13:07:06.775,-18.6876,-43.1252
13:07:06.785,-17.0001,-39.4377
13:07:06.795,-16.3126,-37.1251
13:07:06.805,-17.1251,-36.6876
13:07:06.815,-17.0001,-33.4376
13:07:06.826,-17.1251,-33.3126
13:07:06.835,-16.2501,-29.9376
13:07:06.845,-15.0626,-28.3126
13:07:06.855,-12.4375,-25.6876
13:07:06.865,-10,-22.3751
13:07:06.875,0.75,-14.5626
13:07:06.885,8.25,-7.3125
13:07:06.895,15.3751,-3.375
13:07:06.905,20.2501,-0.1875
13:07:06.915,20.5626,-1
13:07:06.925,19.3751,-3.625
13:07:06.935,15.7501,-6
13:07:06.945,12.8125,-11
13:07:06.955,8.0625,-14.5001
13:07:06.965,3.5625,-18.3126
13:07:06.975,-0.875,-21.8751
13:07:06.986,-7.9375,-25.5001
13:07:07.002,-12.75,-28.5626
13:07:07.008,-17.5626,-29.8126
13:07:07.035,-23.1876,-34.5626
13:07:07.038,-28.6251,-38.0626
13:07:07.082,-35.5626,-41.2502
13:07:07.084,-42.1252,-47.4377
13:07:07.087,-50.8127,-52.1252
13:07:07.088,-56.2502,-57.6252
13:07:07.088,-60.3127,-58.7502
13:07:07.091,-58.8752,-58.8752
13:07:07.119,-57.7502,-55.6252
13:07:07.122,-54.6252,-55.1252
13:07:07.124,-52.8127,-53.8127
13:07:07.130,-51.1252,-53.0002
13:07:07.158,-49.3127,-52.7502
13:07:07.161,-46.8127,-51.3752
13:07:07.163,-44.1252,-51.2502
13:07:07.190,-42.3752,-52.6252
13:07:07.193,-40.3127,-51.6877
13:07:07.195,-38.4376,-53.5627
13:07:07.200,-35.8751,-53.5002
13:07:07.211,-33.7501,-54.9377
13:07:07.222,-32.9376,-56.6252
13:07:07.232,-32.3126,-58.6252
13:07:07.243,-33.2501,-62.4377
13:07:07.250,-36.8126,-69.8128
13:07:07.266,-39.6877,-74.4378
13:07:07.274,-41.0627,-78.1878
13:07:07.282,-41.2502,-81.8128
13:07:07.295,-42.6252,-84.3753
13:07:07.305,-43.5627,-88.5003
13:07:07.311,-45.6252,-91.7504
13:07:07.320,-47.5002,-96.8754
13:07:07.330,-49.6877,-100.2504
13:07:07.340,-50.6877,-104.0629
13:07:07.350,-50.2502,-107.6254
13:07:07.360,-48.3127,-106.3129
13:07:07.370,-44.5627,-105.5004
13:07:07.381,-38.9376,-100.4379
13:07:07.390,-33.5001,-94.9379
13:07:07.400,-27.8751,-87.2503
13:07:07.410,-21.5626,-79.7503
13:07:07.420,-17.9376,-74.0003
13:07:07.430,-17.8126,-68.8128
13:07:07.440,-17.5626,-67.5628
13:07:07.451,-20.0626,-64.3752
13:07:07.461,-22.5001,-64.3752
13:07:07.472,-25.1876,-63.4377
13:07:07.483,-29.6876,-62.0002
13:07:07.511,-33.6251,-62.5627
13:07:07.514,-33.6876,-60.7502
13:07:07.516,-30.8751,-55.7502
13:07:07.521,-24.8751,-50.3127
13:07:07.533,-21.0626,-45.6877
13:07:07.544,-17.1251,-42.5627
13:07:07.550,-17.1251,-40.5627
13:07:07.560,-16.7501,-39.6877
13:07:07.571,-17.5001,-38.0626
13:07:07.580,-18.0001,-38.3126
13:07:07.590,-18.7501,-36.3751
13:07:07.601,-19.5001,-34.0626
13:07:07.611,-19.6876,-34.9376
13:07:07.621,-18.6251,-32.7501
13:07:07.631,-19.5001,-31.7501
13:07:07.640,-17.6876,-30.3751
13:07:07.650,-16.5626,-28.4376
13:07:07.660,-14.3126,-26.8126
13:07:07.670,-8.25,-20.3751
13:07:07.680,6.875,-6.8125
13:07:07.690,17.7501,3.5
13:07:07.700,25.5001,10.375
13:07:07.711,30.3126,15.9376
13:07:07.720,36.6876,20.9376
13:07:07.730,47.8127,32.2501
13:07:07.740,57.0627,40.5627
13:07:07.750,64.2502,47.3127
13:07:07.760,68.9378,53.1877
13:07:07.771,73.8753,57.9377
13:07:07.780,82.3128,63.9377
13:07:07.790,92.2504,71.9378
13:07:07.800,104.7504,78.8753
13:07:07.811,115.8754,86.2503
13:07:07.841,124.188,92.5004
13:07:07.843,127.188,91.6879
13:07:07.845,123.8755,86.3128
13:07:07.851,121.7505,82.6878
13:07:07.884,125.5005,82.5003
13:07:07.885,129.188,83.9378
13:07:07.888,132.188,84.8753
13:07:07.890,135.0005,85.5003
13:07:07.920,139.813,88.9378
13:07:07.923,144.438,92.8754
13:07:07.924,145.438,90.8754
13:07:07.930,140.7505,85.9378
13:07:07.963,135.063,83.2503
13:07:07.965,128.313,78.2503
13:07:07.968,120.188,71.8128
13:07:07.992,111.5629,66.5628
13:07:07.994,106.0004,65.0002
13:07:07.996,104.0004,65.1252
13:07:08.001,104.5004,67.1253
13:07:08.012,108.1254,69.7503
13:07:08.020,111.8129,75.1878
13:07:08.030,111.3129,74.3753
13:07:08.041,110.1879,74.3128
13:07:08.052,104.1879,72.0003
13:07:08.060,97.5629,67.7503
13:07:08.070,91.8754,66.5628
13:07:08.080,97.6254,73.3128
13:07:08.092,108.1879,81.1878
13:07:08.100,114.0004,86.1878
13:07:08.111,116.1254,84.3128
13:07:08.121,121.938,88.5628
13:07:08.133,127.688,91.0629
13:07:08.140,136.438,93.0629
13:07:08.152,146.3755,98.8129
13:07:08.160,149.4381,98.0629
13:07:08.171,154.0631,100.1879
13:07:08.180,168.1881,110.8754
13:07:08.191,176.4382,118.6255
13:07:08.201,185.0007,126.0005
13:07:08.213,189.7507,132.6255
13:07:08.220,193.0007,136.8755
13:07:08.230,200.9383,146.438
13:07:08.240,207.9383,153.3756
13:07:08.250,211.6258,158.3131
13:07:08.262,216.7508,162.7506
13:07:08.270,215.9383,164.0006
13:07:08.283,218.8758,165.7506
13:07:08.290,222.1884,169.5631
13:07:08.300,232.0634,177.1882
13:07:08.310,243.5009,184.4382
13:07:08.321,251.5635,188.5007
13:07:08.330,258.001,192.1882
13:07:08.342,267.501,194.4382
13:07:08.357,286.2511,205.6883
13:07:08.371,319.5012,227.1259
13:07:08.375,347.9388,249.5634
13:07:08.389,367.3764,261.1885
13:07:08.404,393.3765,280.2511
13:07:08.406,414.8141,292.9386
13:07:08.412,432.3766,302.8762
13:07:08.420,446.0017,312.5012
13:07:08.430,468.6268,323.8762
13:07:08.440,509.377,353.2513
13:07:08.451,538.3146,372.4389
13:07:08.460,546.3771,377.0014
13:07:08.471,540.0646,367.8764
13:07:08.492,524.8145,353.1263
13:07:08.495,511.002,336.5638
13:07:08.522,499.1269,324.0637
13:07:08.523,487.6894,311.0012
13:07:08.525,468.5018,293.4386
13:07:08.531,452.6267,277.8135
13:07:08.560,441.5017,267.6885
13:07:08.563,428.1266,254.8135
13:07:08.565,415.1266,244.5009
13:07:08.607,407.1266,238.3134
13:07:08.608,400.314,232.7509
13:07:08.642,391.2515,224.4384
13:07:08.644,379.439,215.6258
13:07:08.674,365.3139,204.8758
13:07:08.677,345.6263,189.9382
13:07:08.678,327.8137,176.0007
13:07:08.678,311.8137,163.7506
13:07:08.678,296.6262,152.4381
13:07:08.682,284.0636,143.2505
13:07:08.691,276.001,137.188
13:07:08.702,271.9385,134.313
13:07:08.712,267.0635,133.0005
13:07:08.721,267.1885,132.8755
13:07:08.732,265.3135,132.6255
13:07:08.742,260.4385,130.6255
13:07:08.750,250.3759,122.5005
13:07:08.762,238.4384,114.0004
13:07:08.791,226.3134,104.1879
13:07:08.795,216.9383,96.3129
13:07:08.796,209.1258,91.3129
13:07:08.801,201.2508,86.3753
13:07:08.811,195.6882,82.2503
13:07:08.823,189.8757,78.1878
13:07:08.831,186.0007,73.8128
13:07:08.841,182.6882,73.2503
13:07:08.850,180.2507,71.1878
13:07:08.860,176.0632,68.5003
13:07:08.871,172.2507,65.4377
13:07:08.882,169.2506,63.5002
13:07:08.891,167.1881,61.1252
13:07:08.901,164.3131,60.5627
13:07:08.911,162.4381,57.6877
13:07:08.921,158.2506,55.9377
13:07:08.932,153.7506,51.4377
13:07:08.942,147.8756,47.6252
13:07:08.950,142.7505,43.7502
13:07:08.962,138.188,38.9376
13:07:08.972,134.188,36.7501
13:07:08.980,131.2505,33.6251
13:07:08.991,128.063,31.7501
13:07:09.000,124.688,28.8751
13:07:09.011,121.5005,27.2501
13:07:09.022,119.7505,26.8126
13:07:09.034,120.8755,31.3751
13:07:09.041,124.938,38.3126
13:07:09.051,129.6255,46.3127
13:07:09.061,133.563,55.2502
13:07:09.071,137.6255,62.5002
13:07:09.081,139.438,69.8128
13:07:09.091,141.0005,74.5628
13:07:09.101,141.688,78.7503
13:07:09.115,140.813,82.6253
13:07:09.124,139.1255,83.0003
13:07:09.130,136.063,83.1253
13:07:09.141,133.813,82.4378
13:07:09.154,131.063,83.1878
13:07:09.160,129.563,83.3753
13:07:09.172,127.938,83.2503
13:07:09.181,126.5005,85.5628
13:07:09.191,125.3755,86.1878
13:07:09.201,123.5005,87.0628
13:07:09.213,121.938,87.3753
13:07:09.221,119.0005,87.4378
13:07:09.231,117.2504,87.5628
13:07:09.240,115.8129,87.6878
13:07:09.264,114.5629,88.9378
13:07:09.266,113.6879,88.6878
13:07:09.272,111.6254,87.8753
13:07:09.299,108.0004,85.3128
13:07:09.301,103.4379,82.3753
13:07:09.304,99.0629,77.8753
13:07:09.310,94.8129,74.4378
13:07:09.342,91.0004,70.8753
13:07:09.348,86.6878,67.6253
13:07:09.348,83.1253,65.2503
13:07:09.352,80.5628,62.7502
13:07:09.381,79.1878,61.1252
13:07:09.384,77.5628,60.3752
13:07:09.386,75.7503,58.8752
13:07:09.424,73.8128,58.5002
13:07:09.425,72.0003,57.6252
13:07:09.428,68.8128,54.8127
13:07:09.435,65.5627,51.5627
13:07:09.435,61.7502,48.8127
13:07:09.442,57.7502,45.8127
13:07:09.452,56.0002,44.2502
13:07:09.461,54.9377,42.0627
13:07:09.471,52.9377,40.3752
13:07:09.481,50.6877,38.4376
13:07:09.490,47.4377,35.5001
13:07:09.502,44.3127,33.5001
13:07:09.511,42.3752,30.0626
13:07:09.521,40.0627,28.8126
13:07:09.531,38.3126,26.4376
13:07:09.541,35.8126,25.7501
13:07:09.552,34.0626,22.8126
13:07:09.562,31.4376,21.3126
13:07:09.571,30.0001,19.8751
13:07:09.581,29.4376,17.8126
13:07:09.592,27.6876,17.4376
13:07:09.601,26.8751,16.3751
13:07:09.612,27.1876,15.0626
13:07:09.624,25.7501,15.2501
13:07:09.632,26.2501,13.6876
13:07:09.641,25.7501,13.8126
13:07:09.652,25.1251,12.25
13:07:09.671,23.5626,10.625
13:07:09.678,21.6876,8.9375
13:07:09.685,21.5001,7.25
13:07:09.695,21.6251,8
13:07:09.709,21.9376,6.8125
13:07:09.715,21.3126,6.375
13:07:09.722,21.0001,5.1875
13:07:09.732,19.3751,3.9375
13:07:09.742,18.8751,3.0625
13:07:09.751,17.8751,1.3125
13:07:09.761,15.8126,0.375
13:07:09.772,15.0001,-1.375
13:07:09.782,14.6876,-2
13:07:09.794,14.9376,-1.5625
13:07:09.801,14.8751,-2.75
13:07:09.811,15.6876,-3.1875
13:07:09.821,14.8126,-3.9375
13:07:09.833,13.6251,-4
13:07:09.842,12.625,-5.6875
13:07:09.851,12.5625,-6.9375
13:07:09.863,12.75,-6.5625
13:07:09.873,13.0625,-7.0625
13:07:09.882,14.6251,-6.5
13:07:09.892,14.6876,-6.0625
13:07:09.901,16.8751,-4.5625
13:07:09.912,19.5626,-2.3125
13:07:09.926,24.2501,4.6875
13:07:09.944,30.5626,12.25
13:07:09.961,37.5001,21.2501
13:07:09.963,42.3127,29.3126
13:07:09.990,47.3752,37.5626
13:07:09.993,51.1252,42.8752
13:07:10.022,53.5002,48.9377
13:07:10.022,54.7502,50.7502
13:07:10.049,53.3127,53.1252
13:07:10.051,52.7502,52.2502
13:07:10.054,50.6252,52.3127
13:07:10.078,49.8127,52.1252
13:07:10.078,48.4377,52.3752
13:07:10.080,48.6877,52.5627
13:07:10.082,49.0002,54.9377
13:07:10.112,49.9377,56.3752
13:07:10.114,50.8752,57.7502
13:07:10.116,51.8127,59.5627
13:07:10.121,52.0002,60.9377
13:07:10.123,52.2502,61.1877
13:07:10.133,51.9377,62.4377
13:07:10.146,52.6252,63.1877
13:07:10.156,52.3127,63.6252
13:07:10.166,51.7502,63.3127
13:07:10.177,50.6252,62.1877
13:07:10.187,48.6877,59.1877
13:07:10.196,46.8752,58.0002
13:07:10.208,45.3127,56.1252
13:07:10.217,44.2502,53.2502
13:07:10.226,43.3127,51.5627
13:07:10.241,42.1252,50.2502
13:07:10.246,41.8127,49.1877
13:07:10.257,40.7502,48.3127
13:07:10.267,39.5002,47.6877
13:07:10.276,38.8126,45.7502
13:07:10.286,38.0001,45.8752
13:07:10.296,37.8751,44.0002
13:07:10.306,36.4376,42.5627
13:07:10.317,35.1876,40.9377
13:07:10.326,33.5626,38.1876
13:07:10.336,32.0001,38.1251
13:07:10.346,31.9376,35.2501
13:07:10.357,30.3126,34.3751
13:07:10.366,30.3751,33.0626
13:07:10.376,28.2501,30.6251
13:07:10.386,26.1876,28.8751
13:07:10.398,24.6251,27.1876
13:07:10.408,23.0626,24.1876
13:07:10.417,21.8126,22.8126
13:07:10.427,20.6251,22.4376
13:07:10.437,20.1251,21.3751
13:07:10.449,18.8126,18.7501
13:07:10.456,17.6251,17.8126
13:07:10.466,18.0001,16.5626
13:07:10.476,15.6251,15.1251
13:07:10.487,13.9376,14.0626
13:07:10.499,12.5,11.375
13:07:10.506,11,9.3125
13:07:10.516,10.25,7.875
13:07:10.526,8.9375,8.1875
13:07:10.537,9.25,7
13:07:10.546,8.5,5.4375
13:07:10.557,7.3125,5.5
13:07:10.566,7.625,4.25
13:07:10.576,5.9375,2.625
13:07:10.586,4.4375,2.8125
13:07:10.596,3.5,0
13:07:10.606,0.75,-2.625
13:07:10.621,-0.5625,-2.75
13:07:10.628,0.4375,-3.5625
13:07:10.636,0.125,-3.9375
13:07:10.646,0.25,-4.5625
13:07:10.657,0.375,-4.0625
13:07:10.669,0.9375,-3.75
13:07:10.676,0,-5.625
13:07:10.687,-1.0625,-7.1875
13:07:10.696,-1,-5.75
13:07:10.706,2.125,-2.125
13:07:10.734,6.5625,3.3125
13:07:10.737,12,10.3125
13:07:10.739,18.1876,20.1251
13:07:10.780,24.3126,28.1251
13:07:10.784,28.4376,34.6251
13:07:10.785,31.0626,40.0002
13:07:10.788,33.0626,43.8127
13:07:10.794,33.5626,46.7502
13:07:10.796,31.9376,47.7502
13:07:10.824,31.5626,48.6252
13:07:10.826,31.1876,48.8127
13:07:10.829,30.2501,49.2502
13:07:10.837,30.6251,52.1252
13:07:10.867,31.6876,52.6877
13:07:10.869,30.9376,53.8752
13:07:10.872,31.8751,55.1877
13:07:10.878,31.0001,56.0627
13:07:10.896,30.3751,56.5627
13:07:10.899,30.0001,58.8752
13:07:10.906,30.5001,59.1877
13:07:10.917,30.0626,60.3752
13:07:10.927,29.8126,61.5627
13:07:10.936,29.4376,61.0627
13:07:10.946,29.5626,60.9377
13:07:10.957,27.4376,59.4377
13:07:10.968,25.6876,58.2502
13:07:10.976,25.0626,56.7502
13:07:10.986,25.3126,55.1877
13:07:11.001,25.3751,54.5627
13:07:11.008,24.7501,53.6252
13:07:11.022,24.1251,53.4377
13:07:11.038,24.1251,53.2502
13:07:11.040,24.8751,51.8127
13:07:11.049,24.3751,51.4377
13:07:11.057,25.0001,52.6252
13:07:11.066,26.4376,51.8752
13:07:11.076,25.8126,50.6877
13:07:11.088,25.1876,49.8127
13:07:11.096,24.1251,48.7502
13:07:11.106,23.3751,48.4377
13:07:11.116,24.3126,46.5627
13:07:11.126,24.0626,45.7502
13:07:11.138,22.8126,44.3127
13:07:11.146,22.1251,43.0627
13:07:11.156,21.1876,41.1252
13:07:11.167,20.1251,38.5001
13:07:11.177,19.3126,36.9376
13:07:11.189,17.8751,34.6251
13:07:11.196,17.3126,33.2501
13:07:11.206,16.2501,32.2501
13:07:11.216,15.7501,30.9376
13:07:11.226,15.3751,28.5001
13:07:11.236,15.1876,29.3751
13:07:11.246,15.5001,29.1876
13:07:11.256,16.5626,28.0626
13:07:11.266,15.6876,25.7501
13:07:11.276,15.2501,25.5001
13:07:11.286,14.4376,24.3126
13:07:11.303,14.5626,22.6876
13:07:11.319,14.5001,21.3751
13:07:11.320,13.125,20.0001
13:07:11.351,12.875,20.5001
13:07:11.372,13.8751,19.2501
13:07:11.374,13.9376,18.0001
13:07:11.376,12.875,16.6876
13:07:11.376,12.25,16.4376
13:07:11.379,11.625,13.8751
13:07:11.389,10.4375,12.0625
13:07:11.397,10,11.125
13:07:11.406,9.5625,10.8125
13:07:11.416,9.25,10.125
13:07:11.427,8.8125,8.25
13:07:11.436,8.125,7.5625
13:07:11.446,7.8125,6.875
13:07:11.457,6.5,6.875
13:07:11.466,6.4375,5.1875
13:07:11.477,6.75,4.25
13:07:11.513,6.5625,4.25
13:07:11.514,7.0625,4
13:07:11.517,7.25,3.25
13:07:11.520,6.25,2.9375
13:07:11.548,6.125,2.4375
13:07:11.552,6.625,2.75
13:07:11.553,7.5,1.875
13:07:11.558,6.5,0.6875
13:07:11.585,5.75,1
13:07:11.588,6.5625,-0.0625
13:07:11.590,7.125,-1.25
13:07:11.596,7,-1.375
13:07:11.633,8.5,0.3125
13:07:11.636,12.0625,4.8125
13:07:11.638,17.9376,10.3125
13:07:11.640,24.2501,19.0001
13:07:11.647,30.6251,29.3126
13:07:11.661,37.1876,38.7501
13:07:11.667,42.4377,46.6877
13:07:11.677,46.1877,52.5627
13:07:11.687,48.6877,57.0002
13:07:11.696,49.0002,59.8752
13:07:11.707,48.3752,61.8127
13:07:11.716,48.3752,64.6877
13:07:11.730,48.6252,66.3753
13:07:11.736,48.8127,68.1878
13:07:11.747,49.7502,69.6878
13:07:11.756,50.2502,72.1878
13:07:11.767,51.6877,74.1253
13:07:11.776,51.8127,75.3128
13:07:11.786,51.8127,77.1878
13:07:11.797,52.5002,80.5628
13:07:11.806,53.1252,82.3753
13:07:11.818,53.2502,83.3128
13:07:11.827,52.9377,84.3753
13:07:11.838,51.6877,85.2503
13:07:11.846,52.6252,86.4378
13:07:11.856,50.9377,85.9378
13:07:11.866,49.9377,85.4378
13:07:11.878,48.8127,85.3128
13:07:11.886,47.9377,83.0628
13:07:11.896,46.1252,81.0003
13:07:11.906,44.5627,79.7503
13:07:11.916,43.7502,79.1878
13:07:11.926,43.5002,76.8128
13:07:11.937,41.7502,75.5628
13:07:11.946,40.3752,73.5628
13:07:11.959,39.8752,73.6253
13:07:11.966,39.5002,73.2503
13:07:11.976,39.0626,71.1253
13:07:11.986,38.5001,70.0003
13:07:11.997,38.5626,69.9378
13:07:12.006,38.1251,69.4378
13:07:12.017,37.6251,68.3128
13:07:12.026,37.3126,67.3128
13:07:12.036,35.5626,65.7503
13:07:12.046,34.3126,64.0627
13:07:12.057,33.1251,62.6877
13:07:12.066,33.0001,60.6877
13:07:12.076,31.5001,59.1877
13:07:12.086,30.5626,57.3752
13:07:12.098,30.7501,55.3127
13:07:12.106,30.6251,54.2502
13:07:12.123,30.1876,53.5627
13:07:12.126,29.0001,52.3127
13:07:12.136,29.4376,50.6252
13:07:12.146,28.0001,49.8752
13:07:12.156,27.6876,47.8752
13:07:12.167,26.9376,46.1877
13:07:12.177,25.2501,45.0002
13:07:12.186,24.6251,42.3127
13:07:12.207,22.4376,39.6252
13:07:12.209,21.5626,38.5626
13:07:12.243,21.3751,36.9376
13:07:12.245,21.1876,35.9376
13:07:12.248,20.3126,35.1251
13:07:12.250,20.7501,34.8751
13:07:12.256,20.5001,33.1251
13:07:12.293,20.2501,31.3126
13:07:12.293,19.5001,30.1876
13:07:12.296,19.1251,28.8126
13:07:12.321,18.4376,27.7501
13:07:12.321,17.3126,26.0626
13:07:12.382,16.9376,24.8751
13:07:12.396,16.7501,23.8751
13:07:12.397,16.6251,22.9376
13:07:12.397,15.9376,22.4376
13:07:12.412,16.3126,21.6251
13:07:12.413,16.3751,20.5626
13:07:12.416,16.6876,20.9376
13:07:12.423,17.3126,19.0001
13:07:12.431,15.7501,18.1876
13:07:12.443,14.9376,16.5626
13:07:12.452,14.1251,14.6876
13:07:12.461,13.6876,13.5001
13:07:12.471,13.2501,11.9375
13:07:12.482,13.3751,11.75
13:07:12.497,12.5625,10.3125
13:07:12.503,12.0625,10.0625
13:07:12.511,12.75,10.3125
13:07:12.525,12.9375,8.875
13:07:12.532,13,7.8125
13:07:12.541,11.875,7.1875
13:07:12.553,14.8126,5.625
13:07:12.561,13.8751,5.0625
13:07:12.571,12.9375,3.8125
13:07:12.581,14.7501,5.9375
13:07:12.594,19.3126,10.375
13:07:12.601,25.8751,18.5001
13:07:12.634,32.3751,27.6251
13:07:12.648,37.9376,37.5001
13:07:12.662,44.5627,46.1877
13:07:12.665,48.1877,54.8752
13:07:12.680,51.6877,61.3752
13:07:12.695,54.1252,67.0628
13:07:12.697,54.8752,71.4378
13:07:12.697,56.5002,74.5628
13:07:12.697,56.0002,77.3753
13:07:12.702,56.6877,78.9378
13:07:12.712,56.8127,81.8753
13:07:12.722,58.0627,84.0628
13:07:12.731,58.3127,85.1253
13:07:12.744,59.5002,87.3128
13:07:12.752,59.7502,89.1878
13:07:12.762,60.6252,91.6879
13:07:12.771,61.3752,93.3129
13:07:12.782,62.0627,95.5629
13:07:12.792,62.1877,97.3129
13:07:12.802,62.6252,99.5004
13:07:12.811,63.1252,100.9379
13:07:12.821,63.7502,101.5629
13:07:12.831,62.8127,101.6254
13:07:12.842,61.6877,99.8754
13:07:12.851,59.0627,98.1879
13:07:12.861,56.5627,94.8754
13:07:12.871,54.0002,91.8129
13:07:12.902,51.6877,89.6878
13:07:12.904,51.2502,87.0003
13:07:12.907,49.7502,85.5628
13:07:12.913,48.9377,83.9378
13:07:12.937,47.7502,82.2503
13:07:12.940,47.3752,80.8753
13:07:12.943,46.4377,79.2503
13:07:12.975,45.6877,78.1253
13:07:12.978,44.8752,76.7503
13:07:12.980,44.2502,75.2503
13:07:12.984,42.8127,73.6253
13:07:13.015,42.0627,72.0003
13:07:13.018,41.0002,70.1878
13:07:13.020,39.3752,67.8753
13:07:13.044,36.6876,65.6252
13:07:13.047,35.5001,62.8752
13:07:13.048,32.9376,60.4377
13:07:13.053,31.0626,57.8752
13:07:13.064,28.8751,55.5627
13:07:13.071,27.8751,53.5627
13:07:13.081,27.3751,51.8127
13:07:13.092,26.3126,51.8127
13:07:13.103,26.5626,50.5627
13:07:13.112,26.0626,50.0627
13:07:13.121,26.0626,48.0002
13:07:13.134,23.3751,46.0627
13:07:13.141,23.3126,44.5627
13:07:13.152,22.6876,43.0002
13:07:13.162,22.8126,43.0002
13:07:13.172,21.5001,40.1877
13:07:13.182,21.0626,39.6877
13:07:13.191,20.6251,38.0626
13:07:13.205,18.8751,37.1876
13:07:13.212,17.6251,35.3126
13:07:13.222,16.6251,33.8751
13:07:13.233,15.4376,32.2501
13:07:13.242,14.6876,31.0626
13:07:13.257,13.5626,30.1876
13:07:13.263,13,28.9376
13:07:13.272,11.75,26.5626
13:07:13.283,10.875,25.8751
13:07:13.292,9.1875,22.8126
13:07:13.303,8.3125,21.3751
13:07:13.311,6.4375,19.8751
13:07:13.321,5.6875,18.3126
13:07:13.333,4.9375,17.1251
13:07:13.341,4.8125,17.2501
13:07:13.351,5.6875,15.7501
13:07:13.364,6.8125,16.3751
13:07:13.371,7.0625,14.7501
13:07:13.382,7.25,15.0626
13:07:13.391,8.3125,14.6251
13:07:13.403,10.5,16.6251
13:07:13.413,15.1876,22.8126
13:07:13.423,20.2501,30.6251
13:07:13.431,26.5626,39.3752
13:07:13.441,31.3751,49.4377
13:07:13.452,36.9376,57.5627
13:07:13.461,40.0627,65.3753
13:07:13.471,42.8127,71.9378
13:07:13.482,44.1252,77.0628
13:07:13.493,44.7502,80.8128
13:07:13.501,44.5627,81.6253
13:07:13.512,42.5627,83.1878
13:07:13.523,41.2502,83.8128
13:07:13.531,40.6877,84.6253
13:07:13.542,39.6252,86.0003
13:07:13.551,41.1252,88.1253
13:07:13.562,42.5627,90.8754
13:07:13.571,44.1252,93.9379
13:07:13.609,45.5627,95.0629
13:07:13.610,45.9377,96.0004
13:07:13.613,46.2502,96.8754
13:07:13.616,46.8127,99.6879
13:07:13.643,47.3127,99.5004
13:07:13.646,47.4377,100.5629
13:07:13.648,47.5627,100.1254
13:07:13.654,46.1252,98.1879
13:07:13.690,43.4377,97.4379
13:07:13.693,42.4377,93.0629
13:07:13.738,41.0002,90.8754
13:07:13.739,38.3751,87.0003
13:07:13.766,35.7501,83.6253
13:07:13.766,33.0001,80.3128
13:07:13.766,31.1876,77.5003
13:07:13.769,30.6876,75.5628
13:07:13.775,29.6876,74.5003
13:07:13.778,28.6876,72.7503
13:07:13.788,25.4376,69.1878
13:07:13.798,22.6251,65.5627
13:07:13.806,17.9376,62.5002
13:07:13.818,14.6251,58.5627
13:07:13.829,11.0625,55.1877
13:07:13.836,8.375,53.6252
13:07:13.847,7.5625,50.0627
13:07:13.858,5,46.3127
13:07:13.867,3.1875,42.7502
13:07:13.876,0.3125,40.4377
13:07:13.912,-2.25,37.0001
13:07:13.913,-3.8125,33.3126
13:07:13.915,-4.9375,27.3751
13:07:13.920,-4.5,28.0626
13:07:13.927,-4.6875,26.0001
13:07:13.938,-5.6875,22.8126
13:07:13.947,-6.5625,22.0626
13:07:13.964,-7.6875,19.5626
13:07:13.971,-8.375,18.6251
13:07:13.978,-9.25,15.9376
13:07:13.998,-10.125,14.5626
13:07:14.001,-11.4375,11.875
13:07:14.012,-12.6875,9.8125
13:07:14.020,-13.8126,7.75
13:07:14.028,-14.0626,5.1875
13:07:14.036,-13.3751,4.9375
13:07:14.047,-13.6876,3.5625
13:07:14.058,-12.3125,2.0625
13:07:14.066,-12.1875,1.4375
13:07:14.078,-12.8125,-0.9375
13:07:14.088,-13.8126,-2
13:07:14.098,-15.0001,-4.25
13:07:14.107,-15.2501,-4.5625
13:07:14.118,-15.7501,-6.75
13:07:14.129,-15.6876,-7.9375
13:07:14.136,-16.1876,-9.625
13:07:14.147,-16.9376,-10.75
13:07:14.157,-18.4376,-13.5001
13:07:14.166,-17.6876,-14.1876
13:07:14.177,-17.1251,-15.0626
13:07:14.188,-17.7501,-15.6251
13:07:14.196,-17.5626,-16.8126
13:07:14.213,-16.7501,-16.1251
13:07:14.223,-16.0626,-17.7501
13:07:14.233,-15.6251,-17.7501
13:07:14.245,-15.3126,-20.2501
13:07:14.252,-14.3751,-20.0001
13:07:14.264,-14.5001,-20.1251
13:07:14.272,-11.125,-17.6876
13:07:14.283,-6.6875,-11.5625
13:07:14.294,-1,-5.0625
13:07:14.303,5.5625,3.8125
13:07:14.312,10.6875,13.2501
13:07:14.322,17.0626,22.8126
13:07:14.357,23.4376,33.6876
13:07:14.360,27.0626,40.8752
13:07:14.362,28.7501,46.2502
13:07:14.365,29.1251,50.6877
13:07:14.394,28.7501,56.1877
13:07:14.398,30.0626,60.1252
13:07:14.399,31.6876,61.8127
13:07:14.403,32.0001,65.0627
13:07:14.436,33.2501,65.0627
13:07:14.438,33.0626,67.2503
13:07:14.440,34.2501,69.1878
13:07:14.445,35.3126,71.1253
13:07:14.473,35.4376,72.3128
13:07:14.474,34.5001,73.6878
13:07:14.476,34.0626,73.6253
13:07:14.503,32.3126,73.8753
13:07:14.505,30.8126,75.5628
13:07:14.508,30.7501,74.7503
13:07:14.524,29.2501,73.5628
13:07:14.528,27.3126,71.6253
13:07:14.532,24.6876,69.3753
13:07:14.541,20.2501,65.6252
13:07:14.552,17.4376,61.3752
13:07:14.561,13.5626,58.6252
13:07:14.576,12,54.1252
13:07:14.583,9.3125,52.3752
13:07:14.593,8.25,49.1877
13:07:14.605,7.375,46.3752
13:07:14.613,5.75,45.1252
13:07:14.622,5.3125,41.9377
13:07:14.634,5,40.9377
13:07:14.644,5.625,40.3127
13:07:14.652,5,39.6252
13:07:14.665,5.75,38.5626
13:07:14.673,4.6875,36.6876
13:07:14.683,5.375,35.1251
13:07:14.691,5.125,33.6876
13:07:14.703,4.8125,30.5626
13:07:14.713,2.1875,26.6251
13:07:14.723,1,23.2501
13:07:14.733,0.125,21.7501
13:07:14.743,-0.5,19.6251
13:07:14.754,0,16.6876
13:07:14.763,-0.3125,15.0001
13:07:14.772,0.875,13.6251
13:07:14.786,3.4375,12.5625
13:07:14.793,3.25,10.0625
13:07:14.802,3.75,8.9375
13:07:14.812,4.8125,8.3125
13:07:14.823,5.5625,7.1875
13:07:14.832,8,7.5625
13:07:14.842,9.5625,6.3125
13:07:14.852,11,6.75
13:07:14.863,11.1875,5.5625
13:07:14.874,10.3125,3.3125
13:07:14.881,9.25,1.625
13:07:14.898,5.625,-0.375
13:07:14.903,4.25,-3.25
13:07:14.912,2.5,-4.6875
13:07:14.924,0.5,-5.9375
13:07:14.933,-0.875,-9.0625
13:07:14.942,-3,-11.1875
13:07:14.954,-4.4375,-13.1876
13:07:14.965,-5,-15.8126
13:07:14.973,-5.75,-17.7501
13:07:14.986,-6.9375,-19.8126
13:07:14.993,-8.75,-21.5001
13:07:15.003,-8.75,-22.8751
13:07:15.021,-9.875,-24.4376
13:07:15.028,-9.8125,-26.2501
13:07:15.043,-10.875,-26.9376
13:07:15.045,-11.625,-27.8751
13:07:15.054,-12.5625,-30.7501
13:07:15.066,-14.1876,-31.5626
13:07:15.073,-14.7501,-32.7501
13:07:15.083,-15.8126,-33.1251
13:07:15.093,-15.8126,-34.3126
13:07:15.133,-16.6251,-34.7501
13:07:15.136,-17.3126,-35.6876
13:07:15.138,-19.4376,-37.4376
13:07:15.140,-19.1876,-38.1251
13:07:15.144,-20.4376,-37.6876
13:07:15.179,-19.3126,-38.7501
13:07:15.181,-18.1251,-38.0626
13:07:15.185,-15.8751,-36.5626
13:07:15.210,-13,-35.0626
13:07:15.211,-12,-33.3126
13:07:15.214,-11.0625,-33.8126
13:07:15.217,-8.875,-33.1251
13:07:15.223,-5.5,-27.0001
13:07:15.252,0.875,-20.0626
13:07:15.255,8.1875,-9.6875
13:07:15.258,15.1876,-0.5625
13:07:15.264,22.0626,10.1875
13:07:15.298,27.4376,17.8751
13:07:15.301,30.8751,24.8751
13:07:15.302,33.2501,30.2501
13:07:15.308,34.6251,34.1251
13:07:15.312,35.5001,37.0626
13:07:15.324,35.7501,39.1251
13:07:15.333,36.4376,41.1252
13:07:15.343,36.7501,41.9377
13:07:15.352,37.4376,44.2502
13:07:15.362,37.6251,45.1252
13:07:15.373,37.5001,46.6252
13:07:15.382,38.1876,47.3127
13:07:15.392,39.0001,48.1877
13:07:15.403,39.7502,48.6252
13:07:15.414,40.0002,50.7502
13:07:15.423,40.3127,51.8127
13:07:15.433,40.0627,52.2502
13:07:15.443,39.1251,51.6877
13:07:15.454,38.6251,51.1877
13:07:15.462,37.8126,49.7502
13:07:15.473,36.1251,49.4377
13:07:15.484,35.0001,47.3127
13:07:15.493,33.6876,44.1877
13:07:15.504,31.7501,42.4377
13:07:15.513,29.7501,39.4377
13:07:15.523,27.5626,34.9376
13:07:15.533,26.4376,32.5001
13:07:15.543,26.0626,31.5001
13:07:15.552,24.1251,29.1876
13:07:15.564,24.9376,28.2501
13:07:15.573,24.0001,27.8126
13:07:15.583,25.2501,26.6876
13:07:15.595,25.0001,25.8126
13:07:15.603,24.8751,23.5626
13:07:15.612,23.5626,21.5626
13:07:15.625,24.0001,20.6876
13:07:15.633,24.1251,20.2501
13:07:15.642,23.8126,19.0001
13:07:15.654,23.5001,16.5001
13:07:15.662,22.4376,15.5626
13:07:15.673,21.0626,13.5001
13:07:15.686,20.6876,11.0625
13:07:15.692,19.3751,9.5625
13:07:15.703,17.0001,7.625
13:07:15.713,15.1876,5.25
13:07:15.722,13.8126,3
13:07:15.734,12.125,1.25
13:07:15.742,9.3125,-1
13:07:15.753,7,-2.8125
13:07:15.764,4.5625,-5.9375
13:07:15.774,2.5625,-7.9375
13:07:15.782,0.4375,-9.625
13:07:15.793,-2,-11
13:07:15.803,-3.125,-11.8125
13:07:15.814,-4.0625,-13.3126
13:07:15.823,-4,-14.3751
13:07:15.833,-5,-15.1251
13:07:15.846,-5.5625,-16.7501
13:07:15.852,-7.5625,-17.6251
13:07:15.891,-8.4375,-18.9376
13:07:15.894,-9.8125,-20.4376
13:07:15.898,-11,-20.8751
13:07:15.898,-11.1875,-20.8751
13:07:15.904,-11.6875,-21.8126
13:07:15.933,-11.9375,-22.1251
13:07:15.937,-12.375,-22.3126
13:07:15.937,-12.25,-22.5626
13:07:15.970,-12.625,-23.1251
13:07:15.970,-13.9376,-24.2501
13:07:15.973,-14.2501,-25.5626
13:07:15.978,-16.1876,-26.7501
13:07:15.983,-16.4376,-26.9376
13:07:16.011,-17.7501,-26.7501
13:07:16.014,-17.8126,-27.6876
13:07:16.016,-17.5626,-25.8751
13:07:16.023,-16.0001,-26.0001
13:07:16.039,-14.5626,-23.2501
13:07:16.047,-14.5001,-24.5626
13:07:16.052,-13.5001,-22.9376
13:07:16.063,-13.8126,-23.7501
13:07:16.073,-14.6251,-24.9376
13:07:16.082,-15.6876,-25.4376
13:07:16.093,-16.0626,-25.1251
13:07:16.102,-16.1251,-25.9376
13:07:16.112,-16.3126,-26.1251
13:07:16.123,-16.5626,-27.0626
13:07:16.134,-15.8126,-26.0626
13:07:16.143,-12.75,-21.9376
13:07:16.153,-8.5,-17.0001
13:07:16.163,-1.875,-8.1875
13:07:16.173,5.4375,1.0625
13:07:16.184,13,10.3125
13:07:16.193,20.2501,20.0001
13:07:16.203,24.8126,27.7501
13:07:16.213,29.6251,33.7501
13:07:16.225,32.2501,37.2501
13:07:16.234,33.6251,40.6252
13:07:16.242,33.8126,42.3127
13:07:16.253,34.4376,43.5627
13:07:16.263,35.5001,44.9377
13:07:16.273,38.3126,48.1252
13:07:16.282,40.8752,49.6252
13:07:16.293,42.1252,52.5002
13:07:16.303,43.8752,52.6877
13:07:16.323,44.3127,54.8752
13:07:16.329,44.0002,54.5002
13:07:16.344,44.5002,54.5627
13:07:16.346,44.0002,55.5002
13:07:16.353,42.7502,54.4377
13:07:16.362,43.0002,53.8127
13:07:16.374,41.5627,53.5627
13:07:16.383,41.5627,53.8752
13:07:16.393,41.7502,55.4377
13:07:16.404,43.1877,54.1252
13:07:16.417,43.3127,52.3752
13:07:16.423,43.0002,51.6252
13:07:16.433,42.0002,49.3752
13:07:16.442,41.3752,46.5627
13:07:16.470,40.4377,43.8127
13:07:16.473,39.8752,42.5627
13:07:16.476,39.6877,41.6877
13:07:16.482,39.9377,41.0627
13:07:16.495,39.8127,40.1877
13:07:16.503,39.9377,40.5002
13:07:16.514,38.7501,37.7501
13:07:16.523,38.2501,37.9376
13:07:16.533,37.8126,35.7501
13:07:16.544,36.6876,35.2501
13:07:16.553,37.0001,34.0001
13:07:16.585,36.1876,33.7501
13:07:16.587,34.6876,31.1876
13:07:16.618,32.5626,28.6251
13:07:16.620,29.6876,25.6876
13:07:16.623,28.3126,23.7501
13:07:16.628,26.5001,22.1251
13:07:16.628,25.2501,20.0626
13:07:16.632,25.8751,18.4376
13:07:16.663,24.6876,18.1876
13:07:16.665,25.5626,17.4376
13:07:16.669,26.5626,17.5001
13:07:16.674,27.5626,17.1251
13:07:16.703,27.3751,16.1876
13:07:16.706,27.0626,14.6251
13:07:16.708,26.1251,13.2501
13:07:16.714,25.7501,12.5625
13:07:16.738,26.5001,11.75
13:07:16.740,26.7501,11.75
13:07:16.744,26.7501,9.9375
13:07:16.753,26.6251,8.375
13:07:16.764,25.8126,6.25
13:07:16.773,24.3751,4.6875
13:07:16.783,23.1876,1.4375
13:07:16.796,22.3751,0.875
13:07:16.803,22.6251,-1.4375
13:07:16.813,21.5626,-3.25
13:07:16.825,19.8751,-5.0625
13:07:16.833,17.0001,-5.75
13:07:16.842,14.1876,-9.4375
13:07:16.857,11.8125,-13.125
13:07:16.863,9.8125,-14.4376
13:07:16.873,8.25,-15.1251
13:07:16.882,7.4375,-14.4376
13:07:16.893,6.5,-15.3751
13:07:16.902,5.375,-16.3751
13:07:16.912,3.75,-18.3751
13:07:16.922,2.0625,-18.5001
13:07:16.932,1.125,-19.5001
13:07:16.944,-0.375,-20.2501
13:07:16.955,0.4375,-20.4376
13:07:16.963,1.875,-18.6876
13:07:16.972,3.75,-15.6876
13:07:16.983,8.5,-12.5625
13:07:16.992,12.5625,-7.375
13:07:17.006,16.6251,-1
13:07:17.012,19.9376,3.75
13:07:17.022,21.9376,9.25
13:07:17.034,25.6251,15.8126
13:07:17.043,29.1876,21.1251
13:07:17.055,31.2501,26.5001
13:07:17.063,32.5626,31.5626
13:07:17.072,34.3751,33.9376
13:07:17.085,33.0001,34.8751
13:07:17.093,32.2501,38.5001
13:07:17.102,32.5626,39.4377
13:07:17.113,33.3126,41.2502
13:07:17.124,33.3751,43.8752
13:07:17.135,34.0001,44.7502
13:07:17.143,33.5626,46.1252
13:07:17.152,33.5626,48.3127
13:07:17.168,34.3751,48.0627
13:07:17.173,32.9376,47.8127
13:07:17.183,32.0626,48.6877
13:07:17.193,31.1251,48.0627
13:07:17.202,28.2501,46.9377
13:07:17.214,24.9376,45.9377
13:07:17.244,21.0001,43.8752
13:07:17.247,16.6876,40.4377
13:07:17.251,12.5,37.3751
13:07:17.254,9.375,35.3751
13:07:17.284,6.375,33.5001
13:07:17.287,2.75,30.3751
13:07:17.289,-0.9375,27.8126
13:07:17.294,-6.5,23.5001
13:07:17.322,-13,21.1251
13:07:17.324,-22.3751,14.6251
13:07:17.326,-32.2501,9.5
13:07:17.356,-41.1252,6.8125
13:07:17.357,-53.5627,2.625
13:07:17.359,-68.0003,-1.5
13:07:17.365,-80.7503,-5.8125
13:07:17.372,-95.9379,-10.4375
13:07:17.400,-112.7504,-14.5001
13:07:17.402,-135.8755,-25.1876
13:07:17.405,-159.5006,-40.2502
13:07:17.412,-178.8757,-51.1877
13:07:17.425,-200.3133,-62.4377
13:07:17.432,-214.9383,-69.2503
13:07:17.443,-224.6259,-74.1253
13:07:17.453,-232.7509,-78.5003
13:07:17.463,-248.4384,-84.9378
13:07:17.475,-266.1885,-95.5004
13:07:17.484,-279.9386,-101.1879
13:07:17.492,-295.8761,-110.2504
13:07:17.502,-303.7512,-114.6254
13:07:17.513,-309.9387,-114.8129
13:07:17.525,-316.9387,-119.8755
13:07:17.534,-313.6262,-113.3754
13:07:17.542,-318.7512,-117.0004
13:07:17.552,-328.5013,-122.1255
13:07:17.562,-336.9388,-128.8755
13:07:17.576,-344.3763,-135.688
13:07:17.584,-350.2513,-140.438
13:07:17.593,-339.8763,-141.8755
13:07:17.602,-327.8763,-137.938
13:07:17.624,-321.1262,-138.8755
13:07:17.630,-317.0637,-141.1255
13:07:17.645,-315.7512,-144.063
13:07:17.648,-316.0637,-150.8756
13:07:17.654,-316.5012,-155.7506
13:07:17.664,-316.7512,-160.8131
13:07:17.673,-316.1262,-166.7506
13:07:17.685,-316.1262,-170.9381
13:07:17.693,-315.9387,-173.7507
13:07:17.703,-312.6887,-175.3132
13:07:17.713,-309.5637,-176.0632
13:07:17.723,-303.6887,-176.3757
13:07:17.751,-294.2511,-173.4382
13:07:17.754,-284.7511,-168.6881
13:07:17.755,-276.1885,-166.3756
13:07:17.762,-269.626,-163.9381
13:07:17.773,-261.876,-160.3756
13:07:17.782,-252.8135,-156.8756
13:07:17.793,-244.5009,-154.3131
13:07:17.803,-236.1884,-153.3131
13:07:17.813,-224.4384,-148.0631
13:07:17.823,-207.3758,-140.1255
13:07:17.833,-191.1882,-132.6255
13:07:17.844,-175.3757,-123.438
13:07:17.852,-171.8757,-125.563
13:07:17.863,-171.1257,-126.188
13:07:17.873,-170.9382,-122.563
13:07:17.888,-169.0006,-117.0629
13:07:17.903,-163.5006,-106.0004
13:07:17.905,-154.6881,-94.9379
13:07:17.918,-147.313,-84.5003
