timestamp,Red,IR
13:24:01.782,23.9376,40.7502
13:24:01.791,23.3751,40.0627
13:24:01.800,23.1251,39.5627
13:24:01.811,22.3126,38.9376
13:24:01.821,22.4376,39.1251
13:24:01.830,22.3126,38.1251
13:24:01.840,21.5001,37.5626
13:24:01.851,19.7501,35.9376
13:24:01.860,19.0626,33.5001
13:24:01.870,17.6251,32.0626
13:24:01.881,17.0626,30.3126
13:24:01.893,15.6876,28.4376
13:24:01.900,14.6251,25.9376
13:24:01.910,13.0625,23.6251
13:24:01.920,11.8125,21.8751
13:24:01.930,10.4375,18.3751
13:24:01.941,9.1875,16.5001
13:24:01.950,7.5,13.8751
13:24:01.961,6.4375,12.125
13:24:01.972,5.0625,9.0625
13:24:01.980,3.625,7.5625
13:24:01.990,2.625,3.9375
13:24:02.000,1.8125,2.75
13:24:02.011,0.375,0.25
13:24:02.021,-0.625,-1.8125
13:24:02.030,-1.75,-3.5
13:24:02.041,-2.4375,-5.75
13:24:02.050,-3.8125,-7.5625
13:24:02.062,-5.25,-9.125
13:24:02.071,-5.375,-11.1875
13:24:02.080,-6.6875,-12.25
13:24:02.091,-7.1875,-13.6876
13:24:02.101,-8.0625,-16.5001
13:24:02.111,-10.0625,-17.3126
13:24:02.121,-9.5,-19.3751
13:24:02.131,-11.1875,-20.2501
13:24:02.140,-11.4375,-22.1876
13:24:02.153,-13,-23.1251
13:24:02.170,-13.7501,-25.6251
13:24:02.176,-14.0001,-27.1876
13:24:02.190,-14.5626,-27.8126
13:24:02.208,-15.4376,-29.0001
13:24:02.215,-15.9376,-31.1876
13:24:02.218,-16.5001,-32.1251
13:24:02.327,-17.8751,-33.3126
13:24:02.346,-18.8126,-35.8751
13:24:02.349,-19.3126,-37.3751
13:24:02.379,-20.3126,-37.7501
13:24:02.379,-21.0001,-40.3127
13:24:02.379,-21.2501,-41.1877
13:24:02.380,-23.1876,-43.5002
13:24:02.382,-23.5001,-45.5627
13:24:02.389,-24.0626,-46.5002
13:24:02.389,-25.1251,-46.2502
13:24:02.395,-24.0626,-47.4377
13:24:02.406,-22.0626,-44.5002
13:24:02.416,-13.8751,-33.2501
13:24:02.425,-7.375,-22.6251
13:24:02.436,-0.5625,-10.875
13:24:02.445,6.0625,-0.25
13:24:02.455,10.625,10.75
13:24:02.465,14.8126,18.0626
13:24:02.475,17.8751,24.0001
13:24:02.485,19.5626,29.2501
13:24:02.496,20.4376,32.3751
13:24:02.505,21.6251,33.4376
13:24:02.515,29.6876,49.8127
13:24:02.525,29.8126,51.1877
13:24:02.535,29.8751,52.5002
13:24:02.547,30.1876,51.8752
13:24:02.555,28.6251,51.7502
13:24:02.566,28.0626,49.5002
13:24:02.575,26.5001,48.0627
13:24:02.585,24.8751,44.1877
13:24:02.611,23.1876,42.1252
13:24:02.613,21.5626,40.1877
13:24:02.615,21.4376,38.8126
13:24:02.626,21.1251,38.0001
13:24:02.635,20.4376,36.7501
13:24:02.645,20.5626,37.3751
13:24:02.656,20.1251,36.4376
13:24:02.667,19.4376,35.5001
13:24:02.677,19.6251,35.0001
13:24:02.685,17.9376,33.8126
13:24:02.696,17.7501,31.8126
13:24:02.706,15.8126,30.8126
13:24:02.715,15.1876,27.6876
13:24:02.725,13.3751,26.8126
13:24:02.735,12.6875,23.5626
13:24:02.746,10.6875,22.1251
13:24:02.758,9.875,19.0626
13:24:02.765,8.75,16.4376
13:24:02.782,7.375,14.8751
13:24:02.786,5.625,11.8125
13:24:02.796,4.5625,10.375
13:24:02.805,3.1875,6.9375
13:24:02.816,2.1875,4.875
13:24:02.826,1.0625,2.1875
13:24:02.835,-0.5,0.1875
13:24:02.845,-2.0625,-2.6875
13:24:02.856,-3.125,-4.3125
13:24:02.866,-4.875,-6.5625
13:24:02.876,-4.875,-8.1875
13:24:02.885,-7.0625,-11.1875
13:24:02.896,-7.625,-12.375
13:24:02.930,-9.1875,-15.6251
13:24:02.932,-9.9375,-16.7501
13:24:02.934,-10.625,-18.5001
13:24:02.936,-11.8125,-20.1876
13:24:02.969,-12.5,-21.1251
13:24:02.972,-13.1876,-22.9376
13:24:02.974,-14.5001,-24.3126
13:24:02.977,-14.8126,-26.7501
13:24:03.005,-16.0001,-27.8126
13:24:03.009,-17.3126,-29.8751
13:24:03.012,-17.5626,-31.3126
13:24:03.018,-18.3126,-32.5626
13:24:03.028,-19.0626,-34.5626
13:24:03.060,-19.3126,-36.3126
13:24:03.063,-19.5001,-37.0001
13:24:03.066,-21.1876,-38.6251
13:24:03.068,-21.8126,-40.5627
13:24:03.080,-22.3751,-41.4377
13:24:03.087,-23.5001,-41.8127
13:24:03.096,-23.8751,-44.1877
13:24:03.105,-24.2501,-45.6252
13:24:03.115,-25.6251,-47.0627
13:24:03.125,-25.5626,-48.8752
13:24:03.136,-27.0626,-50.0627
13:24:03.147,-28.0001,-51.4377
13:24:03.158,-28.4376,-52.5002
13:24:03.165,-29.3126,-55.0627
13:24:03.176,-29.4376,-55.6252
13:24:03.185,-30.3126,-56.8752
13:24:03.196,-31.0001,-57.1877
13:24:03.206,-29.2501,-56.2502
13:24:03.215,-25.7501,-51.0627
13:24:03.225,-20.9376,-43.5002
13:24:03.235,-14.4376,-33.3751
13:24:03.245,-7,-22.0626
13:24:03.256,-0.8125,-9.4375
13:24:03.266,4.75,-0.5
13:24:03.275,9.125,8.4375
13:24:03.285,12.8125,15.0626
13:24:03.296,14.9376,21.5626
13:24:03.305,16.5626,23.9376
13:24:03.315,17.1251,28.3126
13:24:03.325,18.6251,29.0001
13:24:03.336,18.9376,31.8751
13:24:03.346,20.5626,33.3126
13:24:03.356,20.8751,35.5626
13:24:03.365,22.2501,36.8126
13:24:03.376,22.6876,39.8752
13:24:03.385,24.6876,40.8127
13:24:03.398,25.6251,44.1252
13:24:03.405,26.9376,45.6252
13:24:03.420,27.2501,48.5627
13:24:03.425,27.9376,48.7502
13:24:03.435,27.5001,48.7502
13:24:03.445,26.6876,48.4377
13:24:03.455,26.0626,46.8752
13:24:03.466,24.2501,44.8127
13:24:03.476,21.9376,43.1877
13:24:03.498,21.3751,39.6252
13:24:03.503,19.8126,38.6876
13:24:03.507,19.1876,35.9376
13:24:03.521,18.2501,34.8751
13:24:03.536,18.2501,34.6251
13:24:03.539,17.6876,33.8751
13:24:03.553,17.8126,33.3751
13:24:03.555,17.2501,32.5626
13:24:03.566,16.8126,31.6876
13:24:03.576,16.6876,31.8751
13:24:03.586,15.5001,29.4376
13:24:03.604,14.1876,29.0001
13:24:03.607,13.4376,26.3126
13:24:03.634,12.0625,25.3751
13:24:03.670,11.1875,22.1876
13:24:03.705,9.75,20.7501
13:24:03.764,8.1875,17.4376
13:24:03.768,7.4375,15.8751
13:24:03.768,5.75,13.3126
13:24:03.768,4.1875,11.5
13:24:03.769,2.625,9.125
13:24:03.772,1.875,6.5
13:24:03.778,0.3125,3.3125
13:24:03.779,-1.3125,1.3125
13:24:03.779,-2,-1.25
13:24:03.788,-3.8125,-3.3125
13:24:03.797,-4,-5.375
13:24:03.829,-5.9375,-7.0625
13:24:03.831,-7.125,-8.6875
13:24:03.833,-7.3125,-12
13:24:03.836,-9.0625,-13.3751
13:24:03.846,-10.25,-15.5001
13:24:03.856,-10.625,-16.6876
13:24:03.865,-12.1875,-19.0001
13:24:03.875,-12.4375,-20.6251
13:24:03.885,-14.1251,-22.3126
13:24:03.896,-18.6876,-31.3751
13:24:03.905,-19.0626,-32.1251
13:24:03.916,-19.7501,-33.9376
13:24:03.926,-20.1251,-35.8126
13:24:03.936,-21.4376,-37.3126
13:24:03.945,-24.0626,-42.0627
13:24:03.955,-25.1876,-43.9377
13:24:03.965,-25.1251,-45.1252
13:24:03.975,-26.2501,-45.1252
13:24:03.986,-26.6251,-47.8127
13:24:03.996,-26.6251,-47.9377
13:24:04.005,-27.6876,-49.0002
13:24:04.016,-28.6876,-52.1877
13:24:04.025,-28.7501,-52.1877
13:24:04.036,-29.9376,-52.7502
13:24:04.045,-30.0001,-55.2502
13:24:04.055,-30.1251,-56.0627
13:24:04.066,-31.1251,-57.1252
13:24:04.076,-31.6251,-58.0002
13:24:04.086,-32.8751,-60.6877
13:24:04.096,-33.1876,-60.7502
13:24:04.105,-33.6876,-62.2502
13:24:04.116,-33.0626,-61.7502
13:24:04.125,-30.8751,-60.0002
13:24:04.135,-27.0626,-54.6877
13:24:04.146,-21.6251,-46.6252
13:24:04.155,-15.2501,-35.7501
13:24:04.165,-8.3125,-24.2501
13:24:04.175,-1.8125,-13.125
13:24:04.185,3.1875,-3.3125
13:24:04.195,7,5.875
13:24:04.206,10,12
13:24:04.215,12.4375,17.4376
13:24:04.227,13.5626,20.2501
13:24:04.237,14.8751,23.5001
13:24:04.246,15.4376,25.0001
13:24:04.255,16.0626,26.8751
13:24:04.265,16.6876,27.3751
13:24:04.276,17.9376,29.5001
13:24:04.287,18.9376,31.5001
13:24:04.295,19.0626,33.3126
13:24:04.305,20.2501,35.1251
13:24:04.315,21.5001,36.8126
13:24:04.326,22.3126,40.4377
13:24:04.336,23.0626,40.6877
13:24:04.345,23.5001,42.8752
13:24:04.355,23.6251,42.5002
13:24:04.365,23.2501,41.0627
13:24:04.391,21.0001,40.2502
13:24:04.394,19.1876,38.1876
13:24:04.396,18.3751,34.9376
13:24:04.441,16.9376,33.0626
13:24:04.443,17.1251,31.8126
13:24:04.444,16.1251,31.3751
13:24:04.447,16.6876,30.6876
13:24:04.453,15.6876,30.6251
13:24:04.457,15.6876,29.8126
13:24:04.491,14.7501,29.3751
13:24:04.493,14.3751,29.5626
13:24:04.497,13.9376,28.5626
13:24:04.498,13.1876,26.6251
13:24:04.531,12.6875,26.2501
13:24:04.533,11.5625,23.7501
13:24:04.533,11.0625,22.8751
13:24:04.540,9.9375,21.0626
13:24:04.552,8.5,18.5001
13:24:04.556,7.5,16.8751
13:24:04.565,5.875,14.0001
13:24:04.575,4.625,12.4375
13:24:04.586,4.1875,10.1875
13:24:04.596,2,8.1875
13:24:04.605,1.5625,5.1875
13:24:04.615,-0.8125,3
13:24:04.627,-1.25,1.6875
13:24:04.635,-2.625,-1.125
13:24:04.645,-3.8125,-2.625
13:24:04.658,-4.625,-4.9375
13:24:04.667,-5.875,-6.9375
13:24:04.675,-6.9375,-8.9375
13:24:04.686,-8,-10.6875
13:24:04.695,-8.8125,-13.125
13:24:04.707,-9.25,-14.1876
13:24:04.715,-10.125,-16.1876
13:24:04.725,-10.75,-17.3126
13:24:04.735,-12.125,-19.6251
13:24:04.747,-12.375,-20.6251
13:24:04.755,-13.4376,-22.7501
13:24:04.767,-13.7501,-23.8751
13:24:04.776,-14.6876,-25.5626
13:24:04.785,-15.8126,-26.8126
13:24:04.797,-16.6876,-29.3126
13:24:04.805,-17.1876,-29.7501
13:24:04.822,-18.5626,-32.9376
13:24:04.829,-18.6876,-32.6251
13:24:04.838,-20.1251,-35.1876
13:24:04.854,-20.6251,-37.0626
13:24:04.869,-21.5626,-37.5001
13:24:04.870,-21.7501,-39.6252
13:24:04.877,-23.1251,-39.8127
13:24:04.885,-23.4376,-42.2502
13:24:04.895,-23.6251,-43.0627
13:24:04.905,-25.1251,-44.8752
13:24:04.917,-25.5626,-47.0002
13:24:04.926,-26.5626,-46.5627
13:24:04.935,-27.3126,-48.9377
13:24:04.945,-27.7501,-49.3127
13:24:04.955,-28.1251,-51.1252
13:24:04.966,-28.9376,-53.4377
13:24:04.977,-28.9376,-53.3127
13:24:04.985,-30.3126,-55.3752
13:24:04.997,-31.1876,-56.2502
13:24:05.014,-32.1251,-59.8127
13:24:05.018,-31.8751,-59.2502
13:24:05.033,-31.1251,-59.3127
13:24:05.048,-29.6876,-56.9377
13:24:05.052,-25.0001,-51.3752
13:24:05.066,-20.0626,-43.1252
13:24:05.069,-14.2501,-33.3751
13:24:05.077,-7.1875,-21.0001
13:24:05.108,-1.3125,-11.4375
13:24:05.110,4.125,-0.625
13:24:05.113,6.8125,5.25
13:24:05.118,10.3125,12.125
13:24:05.125,11.4375,14.8751
13:24:05.135,12.1875,18.1876
13:24:05.148,13.125,20.1876
13:24:05.182,13.6251,21.1251
13:24:05.184,13.4376,22.3126
13:24:05.187,14.1251,23.5001
13:24:05.189,14.6876,23.6251
13:24:05.196,15.6251,25.3751
13:24:05.227,16.6251,26.8751
13:24:05.228,16.5626,28.2501
13:24:05.231,18.0626,29.9376
13:24:05.237,18.9376,31.1876
13:24:05.245,19.4376,32.7501
13:24:05.277,18.4376,33.1876
13:24:05.280,17.7501,32.8126
13:24:05.283,17.2501,30.8126
13:24:05.286,16.1876,28.0001
13:24:05.314,14.2501,26.9376
13:24:05.317,12.875,25.0626
13:24:05.319,12.6875,22.7501
13:24:05.326,11.5,21.4376
13:24:05.335,11.5,20.7501
13:24:05.346,10.5,20.4376
13:24:05.355,10.625,19.9376
13:24:05.366,10.1875,19.2501
13:24:05.375,9.5,19.1876
13:24:05.387,8.875,17.8751
13:24:05.397,8.6875,16.6251
13:24:05.412,8.5,15.8126
13:24:05.420,6.875,14.8751
13:24:05.432,6.4375,13.9376
13:24:05.440,5.375,10.875
13:24:05.451,4.6875,9.5
13:24:05.461,3.3125,7
13:24:05.472,2.375,4.875
13:24:05.482,1.1875,3.1875
13:24:05.491,-0.375,0.6875
13:24:05.502,-1.5,-1.75
13:24:05.512,-2.6875,-3.9375
13:24:05.520,-3.4375,-5.625
13:24:05.532,-5.25,-7.5
13:24:05.542,-5.8125,-9.9375
13:24:05.551,-7.1875,-11.1875
13:24:05.561,-8.625,-13.0625
13:24:05.572,-10.6875,-17.7501
13:24:05.582,-10.375,-19.2501
13:24:05.590,-12.375,-20.7501
13:24:05.600,-12.6875,-22.5626
13:24:05.612,-14.0001,-24.1251
13:24:05.622,-14.7501,-26.8751
13:24:05.631,-16.1876,-28.1876
13:24:05.641,-16.9376,-29.5626
13:24:05.651,-16.9376,-31.9376
13:24:05.661,-18.8126,-32.3751
13:24:05.671,-19.6251,-34.5626
13:24:05.682,-19.8126,-36.1251
13:24:05.690,-20.8751,-37.6876
13:24:05.701,-22.0001,-39.6252
13:24:05.711,-22.5626,-41.3752
13:24:05.721,-23.0001,-41.8752
13:24:05.731,-23.6876,-43.1252
13:24:05.741,-24.5626,-45.3127
13:24:05.752,-25.0626,-46.0627
13:24:05.760,-26.0001,-48.0627
13:24:05.771,-26.5001,-48.2502
13:24:05.783,-27.1251,-49.9377
13:24:05.791,-27.3126,-52.0002
13:24:05.801,-27.6251,-52.5627
13:24:05.810,-28.3751,-53.8127
13:24:05.820,-29.0001,-55.0627
13:24:05.830,-30.0626,-56.3752
13:24:05.857,-30.2501,-57.2502
13:24:05.860,-30.5001,-58.7502
13:24:05.862,-31.5001,-59.3127
13:24:05.874,-31.5001,-60.4377
13:24:05.902,-32.6876,-61.6252
13:24:05.904,-32.7501,-62.7502
13:24:05.906,-33.9376,-64.6252
13:24:05.914,-34.1251,-65.8753
13:24:05.945,-34.6251,-66.1878
13:24:05.946,-34.2501,-66.6253
13:24:05.949,-33.6876,-65.3127
13:24:05.980,-29.7501,-61.0627
13:24:05.981,-24.9376,-53.0002
13:24:05.984,-18.8751,-44.0627
13:24:05.990,-13.6251,-33.7501
13:24:05.993,-6.9375,-23.4376
13:24:06.022,-3,-14.2501
13:24:06.024,1.625,-6.25
13:24:06.026,4,-1.3125
13:24:06.032,6,3.3125
13:24:06.041,6.875,5.875
13:24:06.050,7.875,7.9375
13:24:06.061,7.875,9.125
13:24:06.072,8.1875,9.75
13:24:06.082,8.3125,9.875
13:24:06.090,8.4375,12
13:24:06.100,9.5,11.875
13:24:06.112,9.75,13.8126
13:24:06.120,11,14.8126
13:24:06.138,11.3125,16.9376
13:24:06.141,12.5625,19.3126
13:24:06.161,12.875,19.9376
13:24:06.165,13.6251,20.5626
13:24:06.171,12.9375,21.8751
13:24:06.182,12.5625,20.0626
13:24:06.190,12.125,18.5626
13:24:06.201,10.6875,17.3751
13:24:06.210,9.625,14.5001
13:24:06.221,8.0625,12.75
13:24:06.232,6.5,12.5
13:24:06.240,7.3125,10.4375
13:24:06.250,6.1875,9.25
13:24:06.261,5.9375,9.25
13:24:06.271,6.3125,9.25
13:24:06.281,5.9375,8.0625
13:24:06.292,5.75,7.8125
13:24:06.301,6,8.25
13:24:06.318,5.1875,7.4375
13:24:06.333,3.875,6.75
13:24:06.336,3.25,4.9375
13:24:06.351,2.4375,3.5
13:24:06.357,1.6875,2.3125
13:24:06.390,0.875,-0.0625
13:24:06.394,0,-1
13:24:06.395,-0.6875,-3.0625
13:24:06.397,-2.1875,-5
13:24:06.406,-3.1875,-7.1875
13:24:06.418,-3.9375,-8.8125
13:24:06.426,-5.1875,-10
13:24:06.435,-5.5,-12.75
13:24:06.447,-6.875,-14.1251
13:24:06.456,-8.1875,-15.8751
13:24:06.467,-8.5,-18.4376
13:24:06.476,-11.25,-20.6876
13:24:06.485,-11.5625,-21.8126
13:24:06.497,-12.3125,-24.6251
13:24:06.507,-13.5001,-25.7501
13:24:06.516,-14.3126,-27.1251
13:24:06.541,-15.3126,-30.0001
13:24:06.544,-15.5626,-30.2501
13:24:06.547,-16.6876,-32.2501
13:24:06.587,-16.5001,-33.1251
13:24:06.589,-17.1251,-33.7501
13:24:06.590,-18.2501,-35.6251
13:24:06.593,-18.7501,-37.3126
13:24:06.601,-19.5626,-38.0001
13:24:06.607,-19.9376,-40.5002
13:24:06.646,-21.1876,-40.6877
13:24:06.650,-21.5626,-42.3752
13:24:06.650,-22.1251,-43.0627
13:24:06.653,-22.5626,-45.4377
13:24:06.658,-23.3751,-46.8127
13:24:06.689,-24.0626,-47.3127
13:24:06.691,-25.1876,-49.8127
13:24:06.693,-25.5001,-49.9377
13:24:06.716,-26.8126,-52.3752
13:24:06.717,-27.4376,-52.6877
13:24:06.721,-28.2501,-54.8127
13:24:06.726,-28.4376,-54.8752
13:24:06.736,-29.1876,-56.9377
13:24:06.746,-29.5626,-57.5627
13:24:06.756,-30.8126,-59.3752
13:24:06.766,-30.3126,-59.5002
13:24:06.775,-31.5001,-61.5002
13:24:06.787,-32.0626,-62.0002
13:24:06.797,-32.1876,-62.5627
13:24:06.807,-32.8751,-63.3127
13:24:06.815,-32.9376,-64.5627
13:24:06.827,-33.7501,-64.6252
13:24:06.836,-33.5626,-65.6253
13:24:06.846,-33.6876,-67.0628
13:24:06.856,-33.5001,-65.1877
13:24:06.866,-30.3126,-62.4377
13:24:06.877,-26.2501,-55.8127
13:24:06.887,-20.1876,-46.6877
13:24:06.896,-14.3751,-37.5626
13:24:06.906,-8.3125,-26.5001
13:24:06.916,-3.3125,-18.0001
13:24:06.927,0.625,-9.5
13:24:06.936,3.25,-4.75
13:24:06.946,5.1875,0.125
13:24:06.956,6.3125,2.3125
13:24:06.966,7.125,4.75
13:24:06.975,7.25,5.1875
13:24:06.986,7.75,6.0625
13:24:06.998,7.625,6.9375
13:24:07.007,8.125,7.75
13:24:07.015,7.8125,7.9375
13:24:07.025,8.75,10
13:24:07.036,9.0625,10.4375
13:24:07.047,10.625,12.5625
13:24:07.056,11.5625,13.6876
13:24:07.065,11.75,14.9376
13:24:07.075,12.25,16.3126
13:24:07.089,11.4375,16.7501
13:24:07.100,12.125,15.9376
13:24:07.107,10.6875,14.6876
13:24:07.117,9.75,13.3751
13:24:07.126,9,12.625
13:24:07.136,9.0625,10.75
13:24:07.146,7.6875,9
13:24:07.158,7.1875,9.0625
13:24:07.166,6.875,8.8125
13:24:07.178,7.8125,8.5
13:24:07.187,7.3125,7.8125
13:24:07.196,7.25,7.875
13:24:07.207,7.0625,9.125
13:24:07.215,6.9375,8.3125
13:24:07.227,6.8125,7.25
13:24:07.237,6.125,6.5
13:24:07.245,5.5625,4.75
13:24:07.282,4.8125,4.6875
13:24:07.284,4.25,2.75
13:24:07.287,3.0625,1.6875
13:24:07.289,2.6875,0.75
13:24:07.320,1.9375,-1.0625
13:24:07.323,0.5,-2
13:24:07.325,-0.0625,-4.5
13:24:07.328,-0.5625,-5.375
13:24:07.362,-1.625,-7.4375
13:24:07.362,-2.4375,-8.375
13:24:07.365,-3.25,-9.9375
13:24:07.398,-4.625,-12.3125
13:24:07.399,-5,-13.9376
13:24:07.402,-5.875,-15.4376
13:24:07.408,-7.0625,-16.6876
13:24:07.410,-7.125,-17.9376
13:24:07.417,-8.1875,-19.0626
13:24:07.438,-9.375,-20.1876
13:24:07.455,-9.75,-22.3751
13:24:07.457,-10.3125,-23.1251
13:24:07.462,-9.875,-24.7501
13:24:07.467,-11.8125,-24.7501
13:24:07.481,-11.3125,-26.7501
13:24:07.487,-13.0625,-27.1876
13:24:07.496,-12.875,-28.6251
13:24:07.507,-13.9376,-30.4376
13:24:07.516,-13.8126,-31.7501
13:24:07.527,-14.7501,-32.1251
13:24:07.536,-15.1251,-33.8126
13:24:07.546,-16.1876,-34.5626
13:24:07.556,-16.6876,-35.1251
13:24:07.567,-16.7501,-37.3126
13:24:07.579,-18.0001,-37.5001
13:24:07.586,-18.5001,-39.5002
13:24:07.596,-19.1251,-39.5627
13:24:07.606,-19.3751,-41.6877
13:24:07.630,-19.6251,-42.8752
13:24:07.633,-20.0001,-42.6877
13:24:07.669,-20.8126,-45.6252
13:24:07.672,-20.9376,-44.5627
13:24:07.676,-21.6251,-46.7502
13:24:07.676,-21.9376,-47.8752
13:24:07.682,-22.8751,-49.3752
13:24:07.692,-22.7501,-49.5627
13:24:07.701,-23.6251,-50.9377
13:24:07.712,-24.5626,-52.5002
13:24:07.720,-25.3126,-53.9377
13:24:07.732,-25.3751,-54.1877
13:24:07.742,-26.1876,-55.7502
13:24:07.750,-25.1251,-54.6252
13:24:07.761,-23.4376,-53.2502
13:24:07.772,-19.4376,-47.4377
13:24:07.781,-15.0626,-40.2502
13:24:07.792,-9.4375,-30.1876
13:24:07.803,-3.6875,-20.3126
13:24:07.811,1.3125,-12.25
13:24:07.821,5.3125,-4.6875
13:24:07.832,8.5,2.1875
13:24:07.840,10.6875,8.25
13:24:07.852,12.1875,11.125
13:24:07.861,12.625,12.25
13:24:07.870,12.125,13
13:24:07.882,12.8125,13.5626
13:24:07.893,12.1875,13.125
13:24:07.901,11.875,14.8126
13:24:07.911,12.25,14.1876
13:24:07.921,12.125,15.6876
13:24:07.932,13,15.2501
13:24:07.941,13.6251,17.5626
13:24:07.951,14.3751,17.3126
13:24:07.961,14.5626,19.2501
13:24:07.971,14.8126,18.5626
13:24:07.982,14.1876,19.2501
13:24:07.992,13.9376,18.3126
13:24:08.003,13.1876,16.0001
13:24:08.011,11.625,14.6251
13:24:08.021,11.3125,14.6251
13:24:08.038,10.5,12.5625
13:24:08.041,10.25,11.5
13:24:08.073,10,11.75
13:24:08.075,10.3125,11.5625
13:24:08.078,10.25,11.75
13:24:08.080,10,12.25
13:24:08.116,10.625,11.6875
13:24:08.117,10.8125,10.875
13:24:08.119,9.625,10.3125
13:24:08.136,9.375,11.1875
13:24:08.151,8.75,8.9375
13:24:08.154,7.875,7.75
13:24:08.157,7.1875,6.9375
13:24:08.194,6.1875,5.875
13:24:08.198,6.1875,3.75
13:24:08.203,4.1875,1.625
13:24:08.204,4,1.1875
13:24:08.204,3.5,-1.0625
13:24:08.212,2.625,-2.75
13:24:08.221,0.875,-4.8125
13:24:08.232,-0.375,-5.9375
13:24:08.242,-0.625,-7.6875
13:24:08.252,-1.8125,-9.4375
13:24:08.261,-2.625,-9.3125
13:24:08.271,-2.875,-11.5625
13:24:08.282,-3,-13.7501
13:24:08.292,-4.9375,-15.5626
13:24:08.301,-5.8125,-16.3126
13:24:08.312,-5.6875,-18.0626
13:24:08.321,-6.625,-19.6876
13:24:08.332,-7.6875,-20.3751
13:24:08.342,-8.3125,-21.4376
13:24:08.352,-9.1875,-23.1876
13:24:08.361,-9.25,-24.7501
13:24:08.372,-9.9375,-25.6876
13:24:08.382,-10.25,-26.9376
13:24:08.391,-10.9375,-28.0001
13:24:08.402,-11.625,-29.4376
13:24:08.410,-11.875,-29.6251
13:24:08.421,-12.5625,-31.6251
13:24:08.432,-13,-32.8126
13:24:08.441,-13.9376,-33.9376
13:24:08.451,-14.6251,-34.9376
13:24:08.461,-15.1876,-35.6251
13:24:08.472,-14.8126,-36.0001
13:24:08.481,-14.8751,-37.1876
13:24:08.491,-15.5626,-38.2501
13:24:08.501,-16.2501,-38.6876
13:24:08.511,-16.8751,-39.8752
13:24:08.521,-16.9376,-41.0002
13:24:08.532,-17.5001,-42.3127
13:24:08.542,-19.1876,-42.4377
13:24:08.551,-18.6251,-44.8752
13:24:08.561,-19.9376,-44.6252
13:24:08.572,-19.6876,-47.1252
13:24:08.582,-20.3751,-46.3752
13:24:08.598,-21.2501,-48.1877
13:24:08.601,-21.9376,-50.9377
13:24:08.611,-22.2501,-50.2502
13:24:08.622,-22.5001,-52.1252
13:24:08.631,-21.3126,-50.3127
13:24:08.642,-18.5001,-47.3752
13:24:08.651,-14.5001,-40.3127
13:24:08.662,-9,-32.8751
13:24:08.671,-3.8125,-22.2501
13:24:08.682,2.3125,-13.6876
13:24:08.691,6.6875,-3.375
13:24:08.702,10.875,2.9375
13:24:08.714,13.4376,9.5
13:24:08.753,15.3126,12.6875
13:24:08.755,16.0626,15.1251
13:24:08.758,16.5001,17.1876
13:24:08.783,16.5001,17.8751
13:24:08.785,17.2501,19.3126
13:24:08.786,17.0001,19.0626
13:24:08.788,17.0626,20.3126
13:24:08.817,17.8126,20.3126
13:24:08.818,17.3126,22.5626
13:24:08.820,18.6251,22.1251
13:24:08.824,19.1251,24.5626
13:24:08.831,19.8126,25.0001
13:24:08.864,19.7501,27.5626
13:24:08.867,20.4376,27.3126
13:24:08.870,20.7501,27.4376
13:24:08.872,20.6251,27.0626
13:24:08.902,19.2501,27.6251
13:24:08.904,18.8751,26.1251
13:24:08.907,18.0626,24.0001
13:24:08.914,16.6251,22.9376
13:24:08.949,16.5001,21.1876
13:24:08.952,16.0626,19.5001
13:24:08.954,15.4376,19.2501
13:24:08.959,15.1251,18.7501
13:24:08.961,15.1876,19.5626
13:24:08.977,15.5001,19.6876
13:24:08.982,16.0001,18.5626
13:24:08.991,14.9376,18.7501
13:24:09.001,13.9376,18.5001
13:24:09.012,14.6251,17.2501
13:24:09.022,14.6251,16.3126
13:24:09.032,13.5001,15.5001
13:24:09.042,12.625,13.2501
13:24:09.051,11.125,12.625
13:24:09.062,11.4375,10.9375
13:24:09.072,9.625,9.125
13:24:09.081,8.5,7.3125
13:24:09.091,7.375,6.125
13:24:09.102,6.3125,4.9375
13:24:09.111,5.3125,3.6875
13:24:09.121,5.4375,0.625
13:24:09.131,3.8125,-1.75
13:24:09.141,2.8125,-1.375
13:24:09.152,2.4375,-3.8125
13:24:09.162,0.75,-6.3125
13:24:09.172,-0.1875,-7.5
13:24:09.181,-0.9375,-8.25
13:24:09.191,-1.0625,-10.4375
13:24:09.201,-2.5625,-13.0625
13:24:09.213,-3.3125,-13.2501
13:24:09.223,-3.0625,-14.5001
13:24:09.231,-3.9375,-16.0626
13:24:09.242,-4.9375,-17.1876
13:24:09.252,-5.1875,-18.3751
13:24:09.262,-6.25,-20.2501
13:24:09.272,-7,-20.8751
13:24:09.281,-7.0625,-21.6876
13:24:09.292,-7.8125,-23.8751
13:24:09.302,-9.0625,-23.6876
13:24:09.313,-8.875,-25.1251
13:24:09.322,-9.75,-27.1251
13:24:09.331,-9.75,-28.1876
13:24:09.342,-10.875,-29.3126
13:24:09.352,-11.5625,-30.3126
13:24:09.362,-12,-31.3751
13:24:09.371,-12.6875,-32.5001
13:24:09.381,-12.9375,-33.6876
13:24:09.392,-13.6876,-34.4376
13:24:09.402,-13.8126,-35.2501
13:24:09.412,-15.0626,-35.9376
13:24:09.421,-15.5626,-37.5001
13:24:09.432,-16.4376,-38.3751
13:24:09.441,-16.5626,-40.1252
13:24:09.452,-17.8751,-41.8752
13:24:09.462,-17.8751,-42.3752
13:24:09.471,-19.4376,-43.9377
13:24:09.490,-19.8126,-45.0002
13:24:09.493,-20.4376,-46.0627
13:24:09.501,-19.8126,-46.1252
13:24:09.532,-18.6876,-44.5627
13:24:09.534,-15.6876,-41.0002
13:24:09.537,-10.75,-33.9376
13:24:09.543,-5.8125,-23.8751
13:24:09.571,-0.625,-15.0001
13:24:09.573,4.8125,-5.125
13:24:09.575,9.4375,1.9375
13:24:09.582,12.8125,9.25
13:24:09.594,14.8126,13.4376
13:24:09.622,16.3751,16.1876
13:24:09.625,17.1876,19.0626
13:24:09.627,17.1251,19.4376
13:24:09.632,17.9376,21.3126
13:24:09.658,18.2501,21.2501
13:24:09.661,17.8126,21.8126
13:24:09.663,18.3751,22.5626
13:24:09.672,18.1876,23.0626
13:24:09.681,19.5001,24.4376
13:24:09.692,19.4376,25.6876
13:24:09.702,20.3751,26.6876
13:24:09.712,21.7501,28.2501
13:24:09.727,21.1876,28.7501
13:24:09.731,21.0001,29.7501
13:24:09.741,20.8126,30.4376
13:24:09.752,20.8751,28.9376
13:24:09.762,20.5001,27.6876
13:24:09.771,18.9376,26.5626
13:24:09.781,17.9376,25.1251
13:24:09.791,17.2501,23.5626
13:24:09.801,17.2501,22.1251
13:24:09.812,16.8126,21.0626
13:24:09.822,16.5001,20.8751
13:24:09.831,16.3751,21.1876
13:24:09.842,17.1876,21.1876
13:24:09.852,16.4376,20.5626
13:24:09.861,16.1251,22.0001
13:24:09.872,16.1876,20.3751
13:24:09.881,15.7501,19.5001
13:24:09.891,15.0001,19.1876
13:24:09.902,14.4376,18.6251
13:24:09.911,14.4376,17.0626
13:24:09.922,13.3751,15.4376
13:24:09.932,11.9375,13.5626
13:24:09.941,11.125,13
13:24:09.952,11,12.3125
13:24:09.961,10.125,10.0625
13:24:09.971,9.125,8.625
13:24:09.982,7.75,7.5
13:24:09.993,7.625,5.25
13:24:10.001,6.6875,3.4375
13:24:10.011,5.3125,2.5
13:24:10.030,4.625,1.25
13:24:10.037,3.5,-0.6875
13:24:10.052,2.875,-2.875
13:24:10.054,2,-4
13:24:10.061,1.25,-4.75
13:24:10.071,1.0625,-6.9375
13:24:10.081,0.125,-8.625
13:24:10.092,-0.375,-9.0625
13:24:10.106,-0.875,-9.5
13:24:10.112,-1.0625,-10.6875
13:24:10.121,-2.0625,-12.5625
13:24:10.131,-2.1875,-13.8126
13:24:10.142,-3.25,-13.8751
13:24:10.152,-3.25,-15.4376
13:24:10.161,-3.875,-16.8126
13:24:10.180,-4.9375,-18.1876
13:24:10.183,-5.5625,-18.1876
13:24:10.193,-5.8125,-20.2501
13:24:10.237,-6.5625,-21.6251
13:24:10.238,-6.75,-22.3751
13:24:10.271,-7.3125,-23.0626
13:24:10.273,-7.625,-24.8126
13:24:10.274,-8.5,-25.8126
13:24:10.276,-8.9375,-26.5001
13:24:10.276,-9.5,-28.1251
13:24:10.282,-9.9375,-27.4376
13:24:10.313,-10.75,-30.0626
13:24:10.316,-11.25,-29.5626
13:24:10.318,-11.9375,-32.1876
13:24:10.324,-11.6875,-32.4376
13:24:10.350,-12.375,-33.4376
13:24:10.354,-13.2501,-33.9376
13:24:10.357,-13.9376,-35.1251
13:24:10.366,-13.4376,-37.1876
13:24:10.378,-14.8126,-36.8126
13:24:10.386,-15.6876,-38.8751
13:24:10.396,-15.4376,-39.1251
13:24:10.407,-14.0626,-38.3751
13:24:10.416,-12.5625,-36.7501
13:24:10.426,-8.5625,-30.6251
13:24:10.436,-4.0625,-23.2501
13:24:10.447,7.1875,-4.4375
13:24:10.456,11.25,5.25
13:24:10.467,15.1251,11.6875
13:24:10.476,17.8126,16.1251
13:24:10.486,19.6251,20.1251
13:24:10.497,21.1251,24.0626
13:24:10.507,20.9376,25.1876
13:24:10.517,21.6251,25.6876
13:24:10.526,20.5626,26.0626
13:24:10.536,20.9376,25.9376
13:24:10.547,20.3126,25.5626
13:24:10.556,20.6876,26.0626
13:24:10.568,20.6251,26.6876
13:24:10.577,21.0001,27.6876
13:24:10.586,22.0001,28.6876
13:24:10.596,22.3126,29.7501
13:24:10.606,22.6251,30.2501
13:24:10.617,22.6876,30.1251
13:24:10.627,21.8126,29.8126
13:24:10.636,20.8126,29.2501
13:24:10.647,20.8126,27.0626
13:24:10.657,19.2501,25.3751
13:24:10.667,19.0001,25.1251
13:24:10.677,18.7501,23.7501
13:24:10.687,18.1876,23.0001
13:24:10.698,17.8126,23.3126
13:24:10.707,18.0001,24.0001
13:24:10.717,19.2501,23.8751
13:24:10.727,18.8126,23.7501
13:24:10.736,18.5001,23.9376
13:24:10.746,18.1876,24.2501
13:24:10.756,19.3751,23.8126
13:24:10.767,17.1876,21.9376
13:24:10.776,16.6876,21.1876
13:24:10.787,15.6876,20.6251
13:24:10.797,15.9376,19.0626
13:24:10.807,14.5001,17.2501
13:24:10.817,13.1876,15.6876
13:24:10.826,12.625,14.6251
13:24:10.838,12,13.6251
13:24:10.849,10.9375,11.6875
13:24:10.859,10.5,9.6875
13:24:10.867,9.125,8.0625
13:24:10.876,8.625,6.75
13:24:10.887,6.6875,5.6875
13:24:10.896,7.0625,4
13:24:10.907,5.6875,1.4375
13:24:10.918,4.625,1.8125
13:24:10.926,4.25,-0.5
13:24:10.936,3.1875,-2.875
13:24:10.947,2.5,-3.5625
13:24:10.956,2.375,-5.0625
13:24:10.966,1.25,-6.75
13:24:10.977,0.3125,-8.375
13:24:11.004,-0.4375,-8.125
13:24:11.007,-0.375,-9.75
13:24:11.009,-0.875,-11.5
13:24:11.017,-1.875,-12.375
13:24:11.049,-2.4375,-12.5625
13:24:11.051,-2.4375,-14.6251
13:24:11.052,-3.4375,-15.7501
13:24:11.058,-4.3125,-17.1876
13:24:11.087,-5.4375,-18.3751
13:24:11.090,-5.25,-18.6876
13:24:11.092,-5.9375,-19.3751
13:24:11.121,-6.5625,-20.5001
13:24:11.122,-7.1875,-21.9376
13:24:11.124,-7.6875,-22.4376
13:24:11.132,-8.125,-24.4376
13:24:11.136,-9.0625,-24.4376
13:24:11.170,-9.25,-26.1251
13:24:11.171,-9.6875,-27.2501
13:24:11.174,-10,-27.7501
13:24:11.177,-10.875,-29.6251
13:24:11.187,-11.75,-29.5626
13:24:11.196,-12.4375,-32.3126
13:24:11.207,-12.875,-31.8126
13:24:11.216,-13.5626,-34.2501
13:24:11.231,-13.8751,-35.0001
13:24:11.237,-15.1251,-35.2501
13:24:11.247,-14.7501,-37.1251
13:24:11.257,-15.3751,-37.1876
13:24:11.267,-13.8126,-35.5626
13:24:11.277,-10.3125,-32.0001
13:24:11.286,-5.75,-24.2501
13:24:11.297,-0.1875,-14.8751
13:24:11.307,5.375,-5.375
13:24:11.316,10.375,5.5
13:24:11.333,15.0001,13.125
13:24:11.348,18.5626,19.1876
13:24:11.351,21.3751,25.5001
13:24:11.356,22.7501,27.8126
13:24:11.366,23.4376,30.7501
13:24:11.376,24.6876,32.5626
13:24:11.386,24.6251,34.0626
13:24:11.397,24.9376,35.5001
13:24:11.408,25.9376,34.7501
13:24:11.417,25.3751,36.6251
13:24:11.427,26.2501,37.7501
13:24:11.436,26.6876,38.1251
13:24:11.448,27.8751,40.0627
13:24:11.457,28.7501,41.7502
13:24:11.466,29.1876,43.0002
13:24:11.476,29.8751,45.1252
13:24:11.508,29.7501,46.6877
13:24:11.512,30.2501,47.5627
13:24:11.515,30.1876,47.0002
13:24:11.531,29.5626,45.1877
13:24:11.535,28.0626,43.1877
13:24:11.549,26.4376,42.8127
13:24:11.550,26.0001,40.4377
13:24:11.559,25.5626,39.3127
13:24:11.566,24.6251,37.7501
13:24:11.576,24.1876,39.1251
13:24:11.586,24.8126,38.0626
13:24:11.603,25.5626,38.0001
13:24:11.608,24.6876,37.3126
13:24:11.617,24.0626,36.8751
13:24:11.627,24.1251,37.4376
13:24:11.637,24.5001,36.3751
13:24:11.647,23.4376,36.1251
13:24:11.672,22.9376,34.7501
13:24:11.674,21.9376,33.1876
13:24:11.677,21.0626,32.3126
13:24:11.715,20.6876,31.3126
13:24:11.717,19.1251,29.0626
13:24:11.719,18.4376,27.6876
13:24:11.723,17.1251,25.4376
13:24:11.732,16.1251,24.2501
13:24:11.746,15.8126,22.1251
13:24:11.748,14.0626,21.3126
13:24:11.776,13.5626,18.6251
13:24:11.778,12.25,17.2501
13:24:11.784,11.9375,16.1251
13:24:11.788,10.6875,13.3126
13:24:11.820,9.9375,12.0625
13:24:11.822,8.8125,10.6875
13:24:11.824,7.875,9.3125
13:24:11.828,6.6875,7.5625
13:24:11.837,6.4375,5.8125
13:24:11.848,5.375,4.0625
13:24:11.857,4.75,2.75
13:24:11.866,3.75,1.25
13:24:11.878,2.6875,0.25
13:24:11.887,2.5625,-1
13:24:11.897,1.1875,-2.625
13:24:11.907,1.3125,-3.625
13:24:11.916,0.3125,-5.375
13:24:11.926,-0.75,-6.625
13:24:11.937,-1.125,-8.1875
13:24:11.947,-2.375,-9.375
13:24:11.956,-2.6875,-10.8125
13:24:11.966,-2.8125,-11.8125
13:24:11.978,-4.25,-13.1251
13:24:11.988,-5.1875,-13.7501
13:24:11.997,-5.75,-15.5626
13:24:12.006,-6.1875,-17.7501
13:24:12.016,-6.9375,-18.5001
13:24:12.027,-7.625,-20.1251
13:24:12.036,-8.375,-21.0626
13:24:12.047,-8.25,-21.8126
13:24:12.056,-9.4375,-23.4376
13:24:12.067,-9.25,-24.5001
13:24:12.077,-10.875,-25.6251
13:24:12.087,-10.5,-26.7501
13:24:12.097,-12.3125,-28.0001
13:24:12.108,-13.0625,-30.0626
13:24:12.117,-13.6876,-30.1876
13:24:12.126,-14.3126,-32.7501
13:24:12.137,-14.6876,-32.7501
13:24:12.147,-15.1251,-34.8126
13:24:12.157,-14.1876,-32.4376
13:24:12.166,-11.6875,-30.0626
13:24:12.176,-6.75,-22.6876
13:24:12.187,-1.125,-12.5625
13:24:12.197,5,-3.25
13:24:12.206,11,7.5
13:24:12.217,15.3126,16.5626
13:24:12.227,19.2501,24.0626
13:24:12.237,22.0001,29.0001
13:24:12.247,24.3751,33.7501
13:24:12.256,25.5626,36.6251
13:24:12.266,25.8126,39.3752
13:24:12.276,26.5626,40.0627
13:24:12.287,26.5001,40.2502
13:24:12.298,26.7501,43.0002
13:24:12.306,27.8751,42.8127
13:24:12.316,27.8751,43.8752
13:24:12.326,28.4376,46.5627
13:24:12.336,29.1251,47.3752
13:24:12.353,29.9376,49.9377
13:24:12.358,31.5626,51.6877
13:24:12.367,31.7501,52.3127
13:24:12.377,32.3751,53.5002
13:24:12.387,32.3751,55.0627
13:24:12.397,32.1251,54.0627
13:24:12.407,31.0626,52.8127
13:24:12.436,30.1876,50.7502
13:24:12.439,28.5626,49.1877
13:24:12.441,27.5001,48.5627
13:24:12.448,27.2501,46.5002
13:24:12.478,26.7501,45.6877
13:24:12.481,25.8751,44.6877
13:24:12.484,26.0001,45.9377
13:24:12.490,26.3751,45.1877
13:24:12.517,26.1251,45.0002
13:24:12.520,25.5001,45.8127
13:24:12.522,26.0626,44.3752
13:24:12.555,25.2501,45.0627
13:24:12.556,24.4376,42.8752
13:24:12.558,23.5001,41.9377
13:24:12.565,22.7501,41.3752
13:24:12.576,21.6876,38.8751
13:24:12.580,21.1876,38.3126
13:24:12.596,20.3751,36.0001
13:24:12.600,18.7501,34.5626
13:24:12.607,17.9376,33.1876
13:24:12.628,16.7501,31.2501
13:24:12.634,15.3126,29.7501
13:24:12.637,14.7501,27.1251
13:24:12.652,13.1876,25.1251
13:24:12.660,12.9375,23.3751
13:24:12.666,12.5625,21.9376
13:24:12.677,10.8125,20.0626
13:24:12.687,10,17.9376
13:24:12.697,9,16.3126
13:24:12.706,7.3125,14.9376
13:24:12.717,6.5625,13.5626
13:24:12.728,6.125,10.8125
13:24:12.737,5.25,9.9375
13:24:12.747,4.5625,7.5625
13:24:12.757,4,6.625
13:24:12.788,3.25,5.375
13:24:12.791,2.25,4.6875
13:24:12.793,1.625,3.75
13:24:12.798,0.875,2.1875
13:24:12.810,0.6875,0.25
13:24:12.818,-0.5,-1.4375
13:24:12.834,-0.375,-2.1875
13:24:12.837,-2.125,-3.8125
13:24:12.852,-3.375,-5.4375
13:24:12.860,-3.25,-7.5
13:24:12.867,-4.5625,-8.25
13:24:12.877,-5.125,-10.5625
13:24:12.887,-6.25,-11.375
13:24:12.897,-6.0625,-12.75
13:24:12.906,-6.75,-13.9376
13:24:12.917,-8.375,-15.8751
13:24:12.927,-8.0625,-17.5001
13:24:12.937,-8.6875,-18.3126
13:24:12.947,-10,-19.1876
13:24:12.957,-10.5625,-21.6251
13:24:12.966,-11.3125,-22.5001
13:24:12.977,-11.5,-23.0626
13:24:12.987,-11.8125,-25.1876
13:24:12.997,-12.3125,-25.3126
13:24:13.006,-13.1876,-27.6251
13:24:13.017,-13.3126,-27.5001
13:24:13.026,-14.1251,-29.6876
13:24:13.036,-14.5001,-30.1876
13:24:13.046,-14.5001,-30.3126
13:24:13.056,-13.1251,-29.3126
13:24:13.067,-10.3125,-26.9376
13:24:13.077,-6.8125,-19.5626
13:24:13.086,-1.125,-12.4375
13:24:13.103,4,-2
13:24:13.108,9.3125,6.8125
13:24:13.118,13.9376,16.2501
13:24:13.129,17.5001,23.3126
13:24:13.137,20.6251,29.0626
13:24:13.147,23.0626,34.0001
13:24:13.156,23.9376,37.3751
13:24:13.167,24.9376,39.1876
13:24:13.177,25.7501,41.3127
13:24:13.211,25.7501,42.5627
13:24:13.213,26.7501,43.7502
13:24:13.219,26.9376,43.9377
13:24:13.219,26.6876,46.5627
13:24:13.257,28.1251,46.9377
13:24:13.261,28.1876,48.2502
13:24:13.264,29.3751,50.2502
13:24:13.265,29.4376,52.3752
13:24:13.270,30.5626,53.0002
13:24:13.277,30.8751,53.7502
13:24:13.310,30.6876,53.8127
13:24:13.313,30.2501,53.4377
13:24:13.315,29.4376,52.2502
13:24:13.318,28.5626,49.9377
13:24:13.350,27.7501,49.2502
13:24:13.352,27.0001,47.6252
13:24:13.354,26.8126,48.1877
13:24:13.360,27.1876,46.5002
13:24:13.368,27.1876,46.8127
13:24:13.377,26.7501,46.8127
13:24:13.387,26.8751,47.6252
13:24:13.398,27.0626,48.2502
13:24:13.408,27.1251,47.6252
13:24:13.417,27.0626,47.1252
13:24:13.428,25.3126,46.3127
13:24:13.437,24.8751,44.3752
13:24:13.446,24.3126,43.6252
13:24:13.457,23.2501,42.1877
13:24:13.467,22.3751,40.1252
13:24:13.479,21.8751,38.3751
13:24:13.488,20.8751,36.5001
13:24:13.496,18.8751,34.8751
13:24:13.507,17.6876,32.6251
13:24:13.517,16.8751,31.0626
13:24:13.527,15.8126,28.6876
13:24:13.537,15.6251,26.5001
13:24:13.547,14.3126,24.7501
13:24:13.557,13.3126,22.8126
13:24:13.567,12.125,20.5626
13:24:13.577,10.9375,18.6876
13:24:13.587,9.75,16.0001
13:24:13.596,7.9375,13.6876
13:24:13.606,6.9375,11.625
13:24:13.617,4.9375,9.3125
13:24:13.627,3.75,7.625
13:24:13.637,2.5625,4.875
13:24:13.647,1.375,3.8125
13:24:13.657,0.3125,2
13:24:13.667,-0.8125,0.1875
13:24:13.677,-1.6875,-1.5
13:24:13.687,-2,-2.875
13:24:13.697,-2.5625,-4.25
13:24:13.707,-3.1875,-5.6875
13:24:13.717,-4.4375,-6.5625
13:24:13.727,-4.5625,-7.0625
13:24:13.736,-4.8125,-8.6875
13:24:13.746,-5.375,-10.5
13:24:13.758,-6.4375,-11
13:24:13.766,-6.75,-12
13:24:13.777,-7.5,-13.8751
13:24:13.787,-7.8125,-15.6876
13:24:13.797,-9,-17.3751
13:24:13.807,-9.8125,-18.1251
13:24:13.843,-9.9375,-19.7501
13:24:13.844,-10.375,-21.1251
13:24:13.847,-11.75,-22.4376
13:24:13.875,-12.125,-23.7501
13:24:13.876,-13.1876,-24.8751
13:24:13.880,-13.5001,-26.0626
13:24:13.886,-14.3126,-28.6251
13:24:13.891,-14.9376,-29.9376
13:24:13.921,-15.3751,-31.2501
13:24:13.999,-15.2501,-31.8126
13:24:13.999,-14.6876,-32.3126
13:24:14.001,-12.375,-28.3751
13:24:14.002,-8.8125,-22.8126
13:24:14.009,-2.875,-15.0001
13:24:14.009,2.1875,-5.6875
13:24:14.009,7.375,3.75
13:24:14.024,12.25,12.75
13:24:14.028,16.5001,20.5001
13:24:14.037,19.8751,26.5626
13:24:14.069,21.8126,30.8126
13:24:14.071,22.4376,35.3126
13:24:14.073,23.6251,36.0626
13:24:14.080,24.1876,37.0626
13:24:14.089,24.7501,38.9376
13:24:14.097,24.7501,39.3127
13:24:14.107,25.0626,41.1252
13:24:14.117,26.4376,41.3752
13:24:14.136,26.1251,42.3127
13:24:14.138,26.3751,44.8127
13:24:14.153,26.8751,45.9377
13:24:14.161,27.3751,47.0002
13:24:14.167,27.1876,47.5627
13:24:14.176,24.8751,48.6252
13:24:14.186,23.6876,46.1877
13:24:14.197,22.9376,43.8752
13:24:14.207,21.3126,42.7502
13:24:14.217,20.8126,42.3127
13:24:14.226,20.8751,41.6252
13:24:14.237,20.3126,40.6252
13:24:14.246,20.1876,39.9377
13:24:14.257,19.4376,40.8752
13:24:14.267,19.5001,39.7502
13:24:14.277,19.2501,38.9376
13:24:14.287,18.5001,37.5001
13:24:14.296,17.6876,36.5626
13:24:14.308,17.0626,36.1251
13:24:14.317,15.9376,34.3126
13:24:14.326,15.1251,31.6876
13:24:14.337,13.6876,31.3126
13:24:14.347,13.1876,29.2501
13:24:14.357,11.125,26.9376
13:24:14.368,10.75,24.9376
13:24:14.381,9.375,22.6251
13:24:14.398,8,20.8126
13:24:14.405,8.0625,18.1251
13:24:14.413,6,16.8751
13:24:14.421,5.6875,13.5626
13:24:14.432,4.25,12
13:24:14.442,3.3125,9.9375
13:24:14.452,1.875,6.8125
13:24:14.462,1.3125,5.625
13:24:14.472,0.4375,3.25
13:24:14.482,-0.1875,2.125
13:24:14.492,-1.125,-0.625
13:24:14.502,-1.3125,-1.8125
13:24:14.512,-2.3125,-3.4375
13:24:14.522,-2.6875,-5
13:24:14.532,-4.625,-7.0625
13:24:14.542,-6.4375,-10.375
13:24:14.552,-6.5625,-11.5625
13:24:14.562,-7.3125,-11.6875
13:24:14.593,-7.125,-13.7501
13:24:14.595,-7.75,-15.8126
13:24:14.597,-8.375,-16.4376
13:24:14.604,-8.375,-18.3126
13:24:14.635,-10.375,-20.3751
13:24:14.640,-12,-21.2501
13:24:14.641,-12.625,-23.5626
13:24:14.645,-14.4376,-26.2501
13:24:14.682,-16.1251,-27.7501
13:24:14.685,-17.5626,-30.4376
13:24:14.685,-18.2501,-31.6251
13:24:14.712,-19.2501,-33.6876
13:24:14.713,-20.8751,-35.2501
13:24:14.714,-21.4376,-36.8751
13:24:14.718,-22.1251,-38.2501
13:24:14.722,-23.6251,-40.1252
13:24:14.743,-24.5001,-41.2502
13:24:14.745,-24.6251,-42.8127
13:24:14.752,-24.9376,-42.8127
13:24:14.762,-23.9376,-42.5627
13:24:14.773,-22.1251,-39.5627
13:24:14.783,-18.3126,-33.6251
13:24:14.792,-13.7501,-25.5626
13:24:14.802,-8.0625,-16.0001
13:24:14.813,-2.5625,-6.5
13:24:14.822,2.5,2.8125
13:24:14.832,6.5625,10.6875
13:24:14.841,10.9375,17.8126
13:24:14.852,12.9375,22.8126
13:24:14.861,14.5001,27.3126
13:24:14.873,15.7501,28.6876
13:24:14.881,16.3126,30.3751
13:24:14.891,18.0626,31.0626
13:24:14.901,17.9376,33.4376
13:24:14.912,18.9376,33.5626
13:24:14.922,19.3751,34.3126
13:24:14.932,20.5626,36.4376
13:24:14.942,20.9376,37.3751
13:24:14.952,22.3751,40.6252
13:24:14.962,23.5001,41.6252
13:24:14.973,24.3751,43.1252
13:24:14.982,25.6251,44.5627
13:24:14.992,24.9376,44.5627
13:24:15.001,24.1876,45.6877
13:24:15.012,23.8126,43.2502
13:24:15.022,22.3751,40.1877
13:24:15.032,20.8751,39.5002
13:24:15.042,20.6876,37.7501
13:24:15.052,19.9376,36.1251
13:24:15.062,19.2501,34.4376
13:24:15.072,18.8126,34.1251
13:24:15.082,19.1251,33.1876
13:24:15.091,18.6876,32.3751
13:24:15.102,17.7501,30.9376
13:24:15.112,18.0626,31.8751
13:24:15.122,16.5626,30.8126
13:24:15.131,15.4376,30.3126
13:24:15.148,15.2501,27.6876
13:24:15.153,13.6251,27.2501
13:24:15.161,12.75,24.7501
13:24:15.172,10.875,22.7501
13:24:15.181,9.875,20.8751
13:24:15.192,8,18.0001
13:24:15.202,6.25,16.3751
13:24:15.212,4.875,13.5001
13:24:15.221,3.3125,12.25
13:24:15.233,2.0625,9.25
13:24:15.241,0.5,7.8125
13:24:15.264,-0.375,5.375
13:24:15.270,-1.25,4
13:24:15.271,-2.4375,1.5625
13:24:15.286,-3.375,0.5
13:24:15.295,-4,-1.6875
13:24:15.302,-5.5625,-3.25
13:24:15.312,-5.9375,-4.5
13:24:15.321,-6.5625,-5.875
13:24:15.349,-8,-7.5
13:24:15.351,-8.25,-10.1875
13:24:15.353,-9,-10.75
13:24:15.379,-9.75,-12.125
13:24:15.383,-10.6875,-13.3751
13:24:15.385,-10.25,-15.1251
13:24:15.392,-11.3125,-16.5626
13:24:15.406,-12.375,-17.9376
13:24:15.412,-12.1875,-17.6876
13:24:15.443,-12.5625,-19.6876
13:24:15.517,-12.8125,-21.3126
13:24:15.519,-13.6251,-23.0001
13:24:15.538,-14.0626,-24.0001
13:24:15.538,-14.8126,-25.3126
13:24:15.538,-15.3126,-26.1251
13:24:15.550,-16.1876,-27.7501
13:24:15.552,-17.3126,-28.6876
13:24:15.555,-17.1251,-30.7501
13:24:15.555,-18.6876,-31.6876
13:24:15.555,-18.3751,-33.8126
13:24:15.564,-19.8126,-34.4376
13:24:15.572,-20.0626,-36.6251
13:24:15.582,-20.7501,-38.3126
13:24:15.592,-20.8126,-39.1252
13:24:15.601,-20.6251,-40.4377
13:24:15.613,-18.9376,-38.6251
13:24:15.622,-16.6251,-34.8751
13:24:15.633,-11.6875,-27.6251
13:24:15.642,-6.1875,-19.8126
13:24:15.653,-1.1875,-10.9375
13:24:15.662,3.75,-2.3125
13:24:15.672,13.8126,15.9376
13:24:15.681,15.4376,19.7501
13:24:15.692,17.1876,23.0001
13:24:15.701,18.1876,27.0001
13:24:15.713,18.0626,27.3126
13:24:15.722,19.4376,29.9376
13:24:15.731,18.6251,31.3126
13:24:15.742,19.1876,30.8126
13:24:15.752,18.8126,33.2501
13:24:15.762,19.4376,33.5626
13:24:15.773,19.7501,34.8751
13:24:15.782,20.2501,35.5001
13:24:15.792,20.0001,37.5626
13:24:15.802,19.7501,37.0001
13:24:15.813,19.0626,35.9376
13:24:15.822,18.0001,34.1251
13:24:15.832,17.0001,33.1876
13:24:15.842,15.8751,31.8126
13:24:15.852,14.6876,29.8751
13:24:15.862,14.0001,27.9376
13:24:15.871,13.3751,27.5001
13:24:15.881,13.7501,26.8751
13:24:15.892,13.3126,26.1876
13:24:15.908,13.2501,27.2501
13:24:15.915,13.6251,26.6251
13:24:15.921,12.375,25.6251
13:24:15.933,11.9375,25.9376
13:24:15.942,11.5,24.5001
13:24:15.952,10.3125,22.6251
13:24:15.962,10.25,22.3126
13:24:15.972,10.5625,21.5626
13:24:15.981,8.75,18.8126
13:24:15.992,7.5625,18.2501
13:24:16.002,7.0625,15.6876
13:24:16.012,5.875,13.8126
13:24:16.021,4.75,12.6875
13:24:16.049,4.6875,10.25
13:24:16.049,2.25,7.1875
13:24:16.053,1.3125,7
13:24:16.083,1,3.9375
13:24:16.085,-0.4375,2.1875
13:24:16.086,-1.5625,-0.0625
13:24:16.094,-2.25,-1.25
13:24:16.121,-2.1875,-3.3125
13:24:16.124,-3.9375,-5.8125
13:24:16.126,-4.9375,-7.6875
13:24:16.158,-5.25,-7.6875
13:24:16.160,-5.5,-10.1875
13:24:16.162,-6.5625,-12.5625
13:24:16.164,-7.25,-12.875
13:24:16.196,-7.375,-15.2501
13:24:16.198,-8.4375,-17.1876
13:24:16.199,-9.4375,-17.8126
13:24:16.213,-9.25,-19.4376
13:24:16.214,-9.625,-21.1876
13:24:16.225,-11,-22.7501
13:24:16.233,-11.4375,-22.7501
13:24:16.241,-11.9375,-25.1876
13:24:16.253,-12.1875,-25.5626
13:24:16.262,-13.5001,-27.0626
13:24:16.273,-14.1876,-28.6876
13:24:16.284,-14.8126,-30.6876
13:24:16.293,-16.1876,-31.9376
13:24:16.301,-17.6251,-34.5626
13:24:16.312,-19.2501,-35.7501
13:24:16.322,-20.0001,-38.3126
13:24:16.332,-21.5001,-40.1252
13:24:16.341,-23.3751,-42.4377
13:24:16.352,-23.6876,-44.3127
13:24:16.362,-24.6876,-45.8752
13:24:16.373,-26.1251,-47.0002
13:24:16.382,-26.2501,-46.8127
13:24:16.392,-23.8751,-45.5002
13:24:16.402,-21.1876,-40.5002
13:24:16.412,-15.7501,-32.3751
13:24:16.421,-10.4375,-22.8126
13:24:16.433,-4.5625,-13.0625
13:24:16.441,-0.125,-3.75
13:24:16.451,4.3125,4
13:24:16.461,7.375,10.875
13:24:16.473,10.25,15.3126
13:24:16.482,11.0625,19.3751
13:24:16.492,12.6875,21.3751
13:24:16.502,13.125,24.3751
13:24:16.512,14.6251,25.5626
13:24:16.522,14.8126,27.3751
13:24:16.532,16.4376,29.6876
13:24:16.543,17.3751,31.7501
13:24:16.552,19.0001,33.6251
13:24:16.572,19.6876,35.8126
13:24:16.579,21.3751,38.2501
13:24:16.587,22.2501,40.1877
13:24:16.594,23.2501,42.3752
13:24:16.641,23.9376,43.9377
13:24:16.641,24.3751,44.3127
13:24:16.642,23.9376,43.4377
13:24:16.644,23.1876,43.4377
13:24:16.644,22.5001,41.0627
13:24:16.661,20.9376,38.8751
13:24:16.663,19.4376,35.8751
13:24:16.672,18.3751,34.6251
13:24:16.683,18.2501,33.5626
13:24:16.691,17.0001,31.1876
13:24:16.703,16.8751,32.0001
13:24:16.713,17.8751,30.5626
13:24:16.723,16.8126,29.8126
13:24:16.731,17.1876,29.6876
13:24:16.743,16.9376,29.3126
13:24:16.752,16.5626,28.4376
13:24:16.763,16.0001,27.9376
13:24:16.773,15.8126,26.3751
13:24:16.781,14.6876,25.3126
13:24:16.794,13.8126,24.1876
13:24:16.830,12.5,22.1876
13:24:16.863,11.625,19.8126
13:24:16.898,10.125,17.8751
13:24:16.902,9,15.4376
13:24:16.902,7.0625,13.5001
13:24:16.902,5.6875,10.375
13:24:16.904,3.625,8.0625
13:24:16.904,1.75,5
13:24:16.934,-0.0625,2.75
13:24:16.935,-2,0.25
13:24:16.936,-3.125,-2.75
13:24:16.937,-4.1875,-4.375
13:24:16.939,-4.9375,-7.4375
13:24:16.944,-6.5,-8.375
13:24:16.976,-7.1875,-10.875
13:24:16.979,-8.0625,-11.75
13:24:16.980,-9.4375,-14.4376
13:24:16.983,-10.5,-16.0001
13:24:16.992,-10.1875,-16.6251
13:24:17.003,-11.6875,-18.3126
13:24:17.013,-12.625,-20.0626
13:24:17.023,-13.2501,-21.5626
13:24:17.035,-14.7501,-25.0626
13:24:17.043,-15.4376,-27.0626
13:24:17.052,-16.0626,-28.3751
13:24:17.063,-17.5001,-28.1876
13:24:17.072,-17.9376,-31.0626
13:24:17.084,-18.7501,-32.9376
13:24:17.092,-18.8126,-33.5626
13:24:17.103,-19.8751,-35.1876
13:24:17.112,-20.5626,-35.9376
13:24:17.123,-20.8126,-36.7501
13:24:17.132,-21.2501,-38.6251
13:24:17.143,-22.6876,-39.7502
13:24:17.151,-22.3751,-41.6877
13:24:17.163,-23.3751,-42.7502
13:24:17.172,-24.0001,-45.0002
13:24:17.182,-24.8751,-45.6877
13:24:17.193,-25.8751,-48.2502
13:24:17.203,-26.8126,-47.6877
13:24:17.213,-26.0626,-49.4377
13:24:17.221,-24.6251,-46.1877
13:24:17.233,-20.3126,-42.6252
13:24:17.242,-15.6251,-33.8126
13:24:17.251,-9.4375,-26.3751
13:24:17.263,-4.25,-15.3751
13:24:17.272,0.8125,-7.0625
13:24:17.283,4.3125,1.4375
13:24:17.292,8,7
13:24:17.301,10.0625,12.5
13:24:17.312,12.75,15.4376
13:24:17.323,13.8126,19.5001
13:24:17.333,15.5626,20.6251
13:24:17.342,16.1251,23.3126
13:24:17.353,16.7501,23.9376
13:24:17.363,17.7501,25.3751
13:24:17.372,18.3751,27.2501
13:24:17.383,19.0001,28.1251
13:24:17.393,19.3126,30.6251
13:24:17.402,20.3751,32.3126
13:24:17.416,20.4376,33.7501
13:24:17.423,21.2501,35.3126
13:24:17.433,21.6876,36.3751
13:24:17.443,21.2501,38.2501
13:24:17.451,21.2501,36.8751
13:24:17.462,19.6876,35.4376
13:24:17.474,18.4376,34.5001
13:24:17.496,16.7501,32.8126
13:24:17.497,15.3126,29.6251
13:24:17.530,13.8751,27.1876
13:24:17.534,13.3751,27.0001
13:24:17.535,12.8125,26.1251
13:24:17.537,13.2501,25.3126
13:24:17.543,13.0625,24.8751
13:24:17.571,13.3751,25.8126
13:24:17.571,13.9376,25.0626
13:24:17.573,12.3125,24.9376
13:24:17.611,12.75,24.0001
13:24:17.613,11.3125,23.5001
13:24:17.615,10.875,22.1251
13:24:17.644,10.0625,20.1876
13:24:17.646,8.8125,19.5626
13:24:17.646,8.4375,16.5001
13:24:17.648,7.375,15.8751
13:24:17.664,6.75,13.8126
13:24:17.664,5.625,12.625
13:24:17.673,4.625,9.875
13:24:17.683,4.125,8.5
13:24:17.693,3.6875,7
13:24:17.701,2.0625,5.5
13:24:17.712,1.4375,3
13:24:17.723,0.4375,1.5625
13:24:17.732,-0.875,0.375
13:24:17.744,-1.1875,-2.9375
13:24:17.753,-2.1875,-3.4375
13:24:17.763,-2.25,-4.75
13:24:17.772,-2.4375,-7.1875
13:24:17.783,-3,-8.125
13:24:17.791,-4.0625,-10
13:24:17.803,-5.125,-10.6875
13:24:17.813,-5.0625,-12.75
13:24:17.823,-6.0625,-14.8751
13:24:17.832,-6.875,-15.1876
13:24:17.843,-7.25,-16.3126
13:24:17.854,-7.1875,-18.0626
13:24:17.863,-6.8125,-19.3751
13:24:17.873,-8,-21.0626
13:24:17.883,-9,-20.2501
13:24:17.911,-8.6875,-22.9376
13:24:17.925,-9.875,-23.2501
13:24:17.939,-11.1875,-26.3751
13:24:17.945,-13.2501,-27.5626
13:24:17.946,-14.0626,-30.0001
13:24:17.946,-16.3126,-31.1876
13:24:17.953,-17.1251,-33.7501
13:24:17.964,-18.5001,-34.4376
13:24:17.971,-19.1251,-37.1251
13:24:17.983,-20.4376,-38.1251
13:24:17.992,-21.1876,-41.0002
13:24:18.003,-23.5001,-41.5002
13:24:18.013,-24.1251,-43.8127
13:24:18.023,-24.5001,-45.0002
13:24:18.033,-25.8126,-45.1252
13:24:18.043,-24.9376,-44.6252
13:24:18.053,-22.0626,-40.1877
13:24:18.063,-17.6876,-33.2501
13:24:18.073,-12.25,-25.1876
13:24:18.083,-7.125,-15.1251
13:24:18.093,-2.5625,-5.4375
13:24:18.102,1.875,1.5
13:24:18.113,4.5,8
13:24:18.121,6.75,12.0625
13:24:18.133,7.8125,15.5001
13:24:18.153,8.25,17.5626
13:24:18.155,9.5,18.3126
13:24:18.168,9.125,20.6876
13:24:18.171,10.5625,21.6876
13:24:18.186,11.5625,22.3751
13:24:18.194,12.1875,24.4376
13:24:18.203,13.0625,25.8751
13:24:18.213,14.2501,28.1876
13:24:18.224,15.5626,29.3751
13:24:18.233,16.7501,32.5626
13:24:18.243,17.3751,33.3126
13:24:18.262,17.9376,34.6876
13:24:18.266,17.6876,35.1876
13:24:18.300,17.3126,35.5001
13:24:18.302,17.8751,34.7501
13:24:18.304,16.6876,32.5626
13:24:18.306,15.6251,31.5001
13:24:18.341,15.0626,29.6251
13:24:18.341,15.8126,27.6251
13:24:18.343,14.5001,26.3751
13:24:18.376,14.1251,25.3751
13:24:18.377,13.7501,25.1876
13:24:18.379,13.6876,24.2501
13:24:18.385,13.7501,23.7501
13:24:18.385,13.3751,24.8751
13:24:18.393,13.5001,23.9376
13:24:18.421,13.0625,22.6251
13:24:18.425,12.4375,22.1251
13:24:18.431,11.25,21.2501
13:24:18.439,10.75,20.0626
13:24:18.448,9.25,17.7501
13:24:18.458,7.875,15.4376
13:24:18.467,6,13.5626
13:24:18.476,5.125,10.875
13:24:18.488,2.9375,8.625
13:24:18.498,1.8125,6.375
13:24:18.507,0.25,4.625
13:24:18.518,-1.375,3.5
13:24:18.528,-3,1.375
13:24:18.540,-3.375,-1.6875
13:24:18.547,-5.0625,-2.8125
13:24:18.558,-5.9375,-5.1875
13:24:18.566,-7.625,-7.5
13:24:18.578,-9.125,-9.75
13:24:18.588,-11,-11.1875
13:24:18.598,-11.125,-12.5
13:24:18.608,-12.375,-15.9376
13:24:18.618,-13.7501,-16.8751
13:24:18.628,-13.6876,-18.2501
13:24:18.637,-15.3751,-20.9376
13:24:18.648,-16.3751,-22.8126
13:24:18.657,-16.9376,-23.0626
13:24:18.668,-16.8126,-25.2501
13:24:18.678,-17.9376,-26.3751
13:24:18.688,-17.5001,-27.0001
13:24:18.697,-18.0626,-28.3126
13:24:18.708,-18.2501,-29.5626
13:24:18.718,-19.5626,-30.6876
13:24:18.728,-19.1876,-31.8126
13:24:18.738,-20.3126,-32.8751
13:24:18.748,-21.0001,-35.0001
13:24:18.758,-22.3126,-36.1251
13:24:18.768,-22.4376,-37.6876
13:24:18.778,-23.5626,-39.3127
13:24:18.788,-24.6251,-40.5627
13:24:18.798,-25.2501,-42.6877
13:24:18.808,-26.6876,-43.2502
13:24:18.818,-26.9376,-46.2502
13:24:18.828,-27.7501,-46.3752
13:24:18.837,-28.1251,-48.5627
13:24:18.848,-28.3751,-48.0002
13:24:18.858,-27.0626,-47.3127
13:24:18.868,-24.8126,-42.6252
13:24:18.877,-20.3126,-36.2501
13:24:18.888,-15.3126,-27.3126
13:24:18.898,-9.6875,-17.1876
13:24:18.908,-5.5625,-8.6875
13:24:18.923,-2.5,-0.375
13:24:18.937,0.1875,6.5625
13:24:18.942,2.125,10.625
13:24:18.955,3.75,15.6251
13:24:18.958,5.0625,17.2501
13:24:18.993,5.4375,20.4376
13:24:18.996,6,21.3126
13:24:18.998,6.1875,23.8126
13:24:19.025,7.125,24.4376
13:24:19.026,7.5,27.4376
13:24:19.028,9.125,28.5626
13:24:19.035,10.25,32.3751
13:24:19.038,11.375,33.1251
13:24:19.070,12,36.1251
13:24:19.072,13.3126,38.3751
13:24:19.074,14.3751,40.0627
13:24:19.078,14.9376,42.8127
13:24:19.107,14.2501,42.5002
13:24:19.112,13.8751,43.0627
13:24:19.114,13.8751,42.0627
13:24:19.120,14.1251,40.7502
13:24:19.128,12.9375,38.8126
13:24:19.138,12.125,38.0001
13:24:19.148,12.625,36.7501
13:24:19.158,11.9375,35.4376
13:24:19.188,11.1875,33.8751
13:24:19.191,10.75,33.9376
13:24:19.193,10.3125,34.3126
13:24:19.210,11.125,32.9376
13:24:19.225,9.8125,33.6876
13:24:19.226,10.0625,32.3751
13:24:19.241,9.375,31.4376
13:24:19.244,8.8125,30.5626
13:24:19.248,8.875,29.0626
13:24:19.258,8,27.9376
13:24:19.268,6.3125,26.6251
13:24:19.277,5.9375,24.5626
13:24:19.288,4.5625,22.3751
13:24:19.298,4.5625,21.1876
13:24:19.308,2.5625,19.1251
13:24:19.318,2.5,17.2501
13:24:19.328,0.9375,14.9376
13:24:19.337,0.0625,13.3751
13:24:19.348,-0.75,11.125
13:24:19.358,-2.6875,9.25
13:24:19.368,-3.5625,6.8125
13:24:19.378,-5.125,4.0625
13:24:19.387,-5.9375,2.6875
13:24:19.398,-6.5,0.8125
13:24:19.408,-8.125,-1.3125
13:24:19.417,-9.8125,-3.4375
13:24:19.429,-10.5625,-4.875
13:24:19.438,-10.6875,-7.1875
13:24:19.448,-11.875,-9.875
13:24:19.458,-13,-10.0625
13:24:19.480,-13.1876,-12.6875
13:24:19.482,-14.1876,-14.1876
13:24:19.490,-15.3751,-14.8751
13:24:19.499,-15.4376,-17.5001
13:24:19.513,-16.8126,-19.8126
13:24:19.523,-17.8126,-20.0001
13:24:19.529,-17.9376,-22.1251
13:24:19.538,-18.8126,-23.3126
13:24:19.547,-18.6251,-24.6251
13:24:19.559,-20.2501,-26.8126
13:24:19.568,-21.1876,-26.9376
13:24:19.578,-21.3126,-29.8126
13:24:19.588,-22.5001,-30.4376
13:24:19.598,-22.8751,-32.3751
13:24:19.608,-24.0626,-33.7501
13:24:19.618,-24.3126,-35.3126
13:24:19.628,-24.8126,-37.2501
13:24:19.638,-25.3751,-38.2501
13:24:19.648,-25.9376,-39.8752
13:24:19.658,-27.5001,-40.6877
13:24:19.674,-27.4376,-42.6252
13:24:19.678,-28.1876,-43.2502
13:24:19.688,-28.1876,-44.2502
13:24:19.698,-27.0001,-43.0002
13:24:19.708,-23.0626,-38.8126
13:24:19.719,-19.1251,-31.8126
13:24:19.728,-12.875,-22.5001
13:24:19.738,-8.4375,-13.2501
13:24:19.760,-2.0625,-4.1875
13:24:19.762,1.5,4.1875
13:24:19.768,5.3125,11.0625
13:24:19.799,7.5625,16.9376
13:24:19.802,9.8125,20.5626
13:24:19.810,10.875,23.9376
13:24:19.810,12.0625,25.6876
13:24:19.839,12.75,27.4376
13:24:19.841,13.5626,28.7501
13:24:19.844,13.9376,30.3751
13:24:19.880,15.1876,32.0001
13:24:19.880,15.3751,34.0001
13:24:19.884,16.8751,35.7501
13:24:19.888,17.7501,37.6251
13:24:19.889,19.6876,40.1252
13:24:19.904,20.2501,41.9377
13:24:19.908,20.8126,43.0002
13:24:19.925,20.8751,44.3127
13:24:19.928,20.5626,45.1252
13:24:19.938,20.2501,43.7502
13:24:19.948,18.8751,41.5627
13:24:19.958,16.8126,39.6252
13:24:19.968,15.6251,37.9376
13:24:19.978,14.6251,34.4376
13:24:19.988,13.5001,32.2501
13:24:19.998,12.3125,32.3126
13:24:20.009,13.0625,31.1876
13:24:20.018,13.0625,30.1251
13:24:20.028,12.1875,30.0626
13:24:20.038,12.1875,30.5001
13:24:20.053,12.4375,29.7501
13:24:20.058,11.375,29.9376
13:24:20.067,11.6875,28.2501
13:24:20.078,10.375,27.7501
13:24:20.088,9.875,25.8126
13:24:20.098,8.5625,24.6876
13:24:20.108,7.4375,22.7501
13:24:20.118,6.375,20.5001
13:24:20.128,5.6875,19.8751
13:24:20.138,4.6875,16.9376
13:24:20.148,4.125,16.4376
13:24:20.158,2.3125,12.9375
13:24:20.169,1.125,10.5
13:24:20.178,1.125,9.75
13:24:20.188,-0.75,7.3125
13:24:20.198,-1.75,5.3125
13:24:20.208,-3.125,2.5625
13:24:20.218,-4.4375,0.5625
13:24:20.228,-5.125,-1.25
13:24:20.238,-6.5625,-3.5
13:24:20.248,-7.8125,-5.9375
13:24:20.258,-9.0625,-7.3125
13:24:20.268,-10.3125,-9.4375
13:24:20.278,-11,-10.8125
13:24:20.288,-11.9375,-11.5
13:24:20.299,-12,-13.8126
13:24:20.308,-13.2501,-15.8126
13:24:20.318,-14.3751,-16.9376
13:24:20.328,-15.3751,-18.1876
13:24:20.338,-15.5001,-20.3751
13:24:20.348,-16.4376,-22.2501
13:24:20.358,-16.8126,-22.1251
13:24:20.368,-17.6876,-24.6251
13:24:20.378,-18.6251,-25.3126
13:24:20.388,-18.6876,-27.0626
13:24:20.400,-19.6876,-29.1251
13:24:20.409,-21.1251,-30.6876
13:24:20.418,-21.2501,-31.1876
13:24:20.428,-22.8126,-33.6251
13:24:20.438,-23.4376,-34.3126
13:24:20.468,-23.9376,-36.5001
13:24:20.471,-24.8751,-38.0001
13:24:20.473,-26.0001,-39.8127
13:24:20.480,-26.5001,-41.2502
13:24:20.514,-27.0626,-42.6252
13:24:20.515,-27.5001,-42.6877
13:24:20.578,-27.9376,-44.3752
13:24:20.581,-25.8126,-40.9377
13:24:20.582,-22.5626,-37.0001
13:24:20.582,-18.1251,-28.9376
13:24:20.590,-12.4375,-20.5626
13:24:20.624,-6.8125,-10.125
13:24:20.627,-2.0625,-2.3125
13:24:20.629,1.875,6.375
13:24:20.631,4.25,10.9375
13:24:20.641,6.6875,16.1876
13:24:20.650,7.5625,18.0001
13:24:20.658,7.8125,20.3126
13:24:20.668,8.8125,21.2501
13:24:20.679,8.9375,22.5001
13:24:20.688,9.625,23.1876
13:24:20.698,9.75,24.5626
13:24:20.708,10.625,25.0626
13:24:20.718,11.1875,26.5626
13:24:20.728,11.625,27.1251
13:24:20.738,12.125,28.6876
13:24:20.748,13.8751,34.5001
13:24:20.758,12.875,33.5626
13:24:20.767,11.5625,30.5626
13:24:20.778,10.8125,29.3126
13:24:20.804,10.0625,27.0626
13:24:20.809,8.6875,24.8126
13:24:20.823,8.875,24.7501
13:24:20.824,8.375,23.5626
13:24:20.839,8.125,22.5001
13:24:20.841,7.125,22.5001
13:24:20.848,6.875,23.0001
13:24:20.858,7,21.3751
13:24:20.868,6.5,20.1251
13:24:20.878,5.75,20.6251
13:24:20.888,6.25,19.5001
13:24:20.898,4.75,17.8126
13:24:20.908,3.3125,17.0626
13:24:20.918,3.1875,15.5001
13:24:20.928,2.125,12.5625
13:24:20.938,0.625,11.25
13:24:20.948,-0.5,10.125
13:24:20.958,-1.5625,8.5625
13:24:20.968,-2.25,6.125
13:24:20.978,-3.5625,3.875
13:24:20.988,-4.8125,1.6875
13:24:20.998,-6.125,0.0625
13:24:21.009,-6.1875,-2.6875
13:24:21.018,-8.25,-5.0625
13:24:21.028,-9.4375,-7.6875
13:24:21.038,-10.0625,-8.875
13:24:21.048,-11.4375,-10
13:24:21.058,-12,-11.9375
13:24:21.069,-12.6875,-14.1876
13:24:21.078,-13.6876,-16.6876
13:24:21.088,-15.1251,-17.4376
13:24:21.098,-15.5001,-18.9376
13:24:21.108,-16.8126,-21.5001
13:24:21.118,-17.0626,-21.8751
13:24:21.128,-17.1876,-23.8751
13:24:21.139,-18.5001,-24.9376
13:24:21.148,-19.0001,-25.3751
13:24:21.158,-19.2501,-28.3126
13:24:21.193,-20.3126,-28.5001
13:24:21.195,-20.5626,-30.7501
13:24:21.199,-21.0626,-30.7501
13:24:21.200,-21.8126,-33.3751
13:24:21.232,-22.9376,-33.8751
13:24:21.234,-23.3751,-35.3751
13:24:21.237,-24.2501,-36.5626
13:24:21.239,-24.8751,-39.3752
13:24:21.268,-25.8126,-39.8127
13:24:21.272,-25.6876,-42.2502
13:24:21.272,-27.0626,-42.1877
13:24:21.298,-27.7501,-45.1252
13:24:21.299,-28.3126,-45.6877
13:24:21.300,-28.7501,-47.7502
13:24:21.308,-29.8751,-48.5002
13:24:21.343,-29.3751,-49.2502
13:24:21.345,-28.5001,-46.8752
13:24:21.349,-24.1876,-43.0627
13:24:21.350,-20.0001,-35.3126
13:24:21.363,-14.4376,-26.6876
13:24:21.368,-9.0625,-17.1251
13:24:21.378,-4,-8.1875
13:24:21.388,-0.3125,0.0625
13:24:21.398,3,5.125
13:24:21.408,4.625,9.9375
13:24:21.418,6,12.6875
13:24:21.428,6.9375,14.8751
13:24:21.439,7.5,16.2501
13:24:21.448,7.6875,17.3126
13:24:21.458,8.375,18.7501
13:24:21.468,8.625,19.1251
13:24:21.478,9.75,20.5001
13:24:21.489,10.125,21.5626
13:24:21.498,11.1875,23.8751
13:24:21.508,12.125,25.2501
13:24:21.518,12.875,28.0001
13:24:21.529,14.1251,28.0626
13:24:21.538,14.2501,29.5001
13:24:21.548,14.2501,29.7501
13:24:21.558,13.7501,30.5001
13:24:21.568,13.5001,28.8751
13:24:21.578,11.875,26.6251
13:24:21.588,10.125,24.5001
13:24:21.598,10.0625,23.9376
13:24:21.608,8.625,21.1876
13:24:21.618,7.5,19.5001
13:24:21.628,6.8125,18.8126
13:24:21.638,6.8125,18.3751
13:24:21.648,6.6875,17.3751
13:24:21.658,6.75,17.6876
13:24:21.668,6.1875,17.2501
13:24:21.679,6.5,16.8751
13:24:21.688,5.375,15.5001
13:24:21.698,4.9375,15.0001
13:24:21.708,4.5625,14.0626
13:24:21.718,3.9375,13.1876
13:24:21.748,2.5,10.625
13:24:21.752,1.6875,9.9375
13:24:21.755,0.625,8.25
13:24:21.759,-0.0625,6.0625
13:24:21.772,-1.3125,3.375
13:24:21.779,-2.5625,2.25
13:24:21.791,-3.5,1.0625
13:24:21.799,-3.875,-1.625
13:24:21.808,-5.5625,-3.5625
13:24:21.826,-6.75,-5.375
13:24:21.832,-7.5625,-6.3125
13:24:21.847,-8.1875,-9.1875
13:24:21.849,-9.5,-11.25
13:24:21.864,-10.5625,-12.3125
13:24:21.868,-11.5625,-13.7501
13:24:21.878,-12.0625,-16.5626
13:24:21.889,-13.3751,-18.6876
13:24:21.898,-14.5001,-19.0001
13:24:21.908,-15.2501,-20.7501
13:24:21.919,-15.0626,-22.3751
13:24:21.950,-15.8126,-24.6876
13:24:21.953,-17.1251,-26.1876
13:24:21.956,-17.5001,-27.2501
13:24:21.958,-17.8751,-28.3751
13:24:21.995,-18.5626,-29.8126
13:24:21.996,-18.8751,-31.3126
13:24:21.998,-19.4376,-32.5001
13:24:22.002,-20.8126,-33.3751
13:24:22.029,-21.9376,-34.0001
13:24:22.031,-21.6251,-36.0001
13:24:22.033,-22.5626,-37.3126
13:24:22.065,-23.0626,-39.0001
13:24:22.065,-23.5001,-38.8126
13:24:22.067,-23.7501,-41.1252
13:24:22.074,-24.6251,-41.8127
13:24:22.088,-25.8126,-43.6252
13:24:22.090,-26.3126,-45.3127
13:24:22.107,-26.6876,-46.1877
13:24:22.109,-27.5626,-48.6877
13:24:22.124,-27.7501,-48.7502
13:24:22.132,-28.6251,-50.6252
13:24:22.138,-29.0626,-52.0002
13:24:22.150,-29.3751,-52.9377
13:24:22.158,-29.6251,-53.0627
13:24:22.168,-27.9376,-50.8127
13:24:22.178,-24.4376,-46.8127
13:24:22.189,-20.1876,-38.8751
13:24:22.198,-14.2501,-29.5626
13:24:22.208,-8.6875,-21.0001
13:24:22.218,-4.375,-11.8125
13:24:22.230,0.25,-4.4375
13:24:22.240,2.5,2.125
13:24:22.249,5.5625,5.75
13:24:22.258,5.875,8.9375
13:24:22.268,7.4375,11.0625
13:24:22.279,7.0625,12.0625
13:24:22.288,7.3125,13.5001
13:24:22.298,8.1875,13.7501
13:24:22.308,8.1875,14.3751
13:24:22.318,8.75,16.0626
13:24:22.328,9.375,16.1876
13:24:22.338,9.625,18.4376
13:24:22.348,10.875,19.1876
13:24:22.358,11.1875,21.6251
13:24:22.368,12.375,22.2501
13:24:22.378,12.625,24.2501
13:24:22.388,13.125,23.5626
13:24:22.398,12.625,24.5001
13:24:22.408,12.5,23.6876
13:24:22.418,11.625,21.1876
13:24:22.428,9.8125,19.2501
13:24:22.438,8.5625,18.0001
13:24:22.448,8.0625,17.7501
13:24:22.458,7.4375,15.1251
13:24:22.473,7,13.6251
13:24:22.483,6.25,13.5001
13:24:22.493,6.25,13.7501
13:24:22.504,6.75,13
13:24:22.513,6.4375,12.1875
13:24:22.524,5.9375,12.3125
13:24:22.533,5.8125,12.875
13:24:22.543,5.75,11.25
13:24:22.553,5,9.5625
13:24:22.564,3.9375,8.9375
13:24:22.573,3.875,7.8125
13:24:22.583,3.375,6
13:24:22.593,1.4375,4
13:24:22.603,0.5625,3.8125
13:24:22.613,-0.625,0.875
13:24:22.623,-1.75,-1.5625
13:24:22.633,-3.4375,-2.6875
13:24:22.643,-4.5,-5.8125
13:24:22.654,-5.5,-7.875
13:24:22.672,-6.5625,-9.1875
13:24:22.674,-7.6875,-10.5625
13:24:22.683,-8.125,-12.5625
13:24:22.722,-9.5,-14.6251
13:24:22.725,-10.25,-15.9376
13:24:22.725,-11.4375,-17.5001
13:24:22.728,-12.5,-19.2501
13:24:22.733,-13.0625,-21.6876
13:24:22.764,-13.7501,-22.6251
13:24:22.767,-14.7501,-23.3751
13:24:22.794,-15.0626,-25.0001
13:24:22.795,-15.0001,-26.8751
13:24:22.796,-16.4376,-27.8751
13:24:22.798,-17.0626,-29.6251
13:24:22.807,-17.6251,-30.0626
13:24:22.814,-18.3751,-32.3751
13:24:22.844,-18.9376,-33.1876
13:24:22.847,-19.3126,-33.8751
13:24:22.849,-19.8126,-35.2501
13:24:22.853,-20.1251,-36.3751
13:24:22.864,-20.7501,-37.5001
13:24:22.874,-21.8751,-38.5001
13:24:22.883,-21.6876,-40.3127
13:24:22.895,-23.1251,-40.5627
13:24:22.908,-23.1251,-42.5002
13:24:22.913,-24.1876,-43.1252
13:24:22.923,-24.2501,-44.5002
13:24:22.933,-24.7501,-46.1252
13:24:22.943,-25.3126,-46.1877
13:24:22.953,-25.8126,-48.3752
13:24:22.963,-26.0001,-48.9377
13:24:22.973,-27.5626,-51.4377
13:24:22.983,-27.6251,-52.0627
13:24:22.993,-27.9376,-52.5627
13:24:23.003,-28.4376,-53.4377
13:24:23.028,-26.6876,-53.1252
13:24:23.032,-24.6876,-49.1877
13:24:23.035,-20.6251,-43.8127
13:24:23.043,-15.9376,-35.8751
13:24:23.053,-10.25,-26.5626
13:24:23.063,-5.5625,-17.9376
13:24:23.073,-0.625,-9.5
13:24:23.083,1.6875,-3.625
13:24:23.093,4.1875,0.875
13:24:23.103,5.25,4.0625
13:24:23.114,5.9375,6.0625
13:24:23.134,6.6875,5.875
13:24:23.140,5.8125,8.25
13:24:23.155,6.1875,7.625
13:24:23.157,6.375,7.875
13:24:23.163,6.25,7.6875
13:24:23.173,6.6875,7.9375
13:24:23.183,7.375,9.1875
13:24:23.193,7.8125,9.4375
13:24:23.203,7.375,10.625
13:24:23.213,8.875,11.875
13:24:23.223,9.6875,13.2501
13:24:23.233,9.0625,12.8125
13:24:23.243,8.875,12.9375
13:24:23.253,9,11.9375
13:24:23.263,7.4375,10.25
13:24:23.274,6.1875,9
13:24:23.283,5.0625,8.1875
13:24:23.293,4.5,6.875
13:24:23.303,4.625,5.6875
13:24:23.314,5,5.4375
13:24:23.323,4.0625,5.375
13:24:23.333,3.875,6.375
13:24:23.344,4,5.5625
13:24:23.353,4.375,5.125
13:24:23.363,4.375,4.8125
13:24:23.373,3.5,3.875
13:24:23.411,2.625,4.0625
13:24:23.412,2.1875,3.5625
13:24:23.443,2.0625,1.8125
13:24:23.445,1.0625,-0.1875
13:24:23.449,0.375,-0.625
13:24:23.453,-0.625,-2
13:24:23.454,-0.6875,-3.5
13:24:23.454,-1.9375,-5.5
13:24:23.465,-2.6875,-6
13:24:23.494,-3.9375,-7.3125
13:24:23.497,-4.0625,-9.375
13:24:23.499,-4.875,-11.0625
13:24:23.506,-5.6875,-11.1875
13:24:23.536,-5.875,-13.3751
13:24:23.538,-7.625,-15.3126
13:24:23.539,-8.25,-15.9376
13:24:23.560,-9.125,-18.1251
13:24:23.560,-10.125,-19.7501
13:24:23.563,-10.6875,-20.0626
13:24:23.573,-11.4375,-21.0626
13:24:23.585,-12,-23.5626
13:24:23.593,-12.625,-24.9376
13:24:23.603,-13.1876,-25.8126
13:24:23.613,-13.5626,-26.9376
13:24:23.623,-14.5001,-28.5626
13:24:23.633,-14.4376,-29.6876
13:24:23.643,-16.0001,-30.4376
13:24:23.658,-16.1876,-31.9376
13:24:23.663,-17.2501,-32.8751
13:24:23.674,-17.0626,-34.3126
13:24:23.683,-17.9376,-34.7501
13:24:23.693,-18.4376,-36.2501
13:24:23.703,-19.1251,-37.8126
13:24:23.713,-19.5001,-37.7501
13:24:23.724,-19.8126,-39.3752
13:24:23.733,-20.4376,-39.6252
13:24:23.743,-20.6251,-41.6252
13:24:23.753,-21.7501,-41.6877
13:24:23.763,-22.3751,-43.5002
13:24:23.773,-22.9376,-43.6252
13:24:23.784,-22.7501,-45.8127
13:24:23.793,-24.0626,-45.7502
13:24:23.803,-24.2501,-47.8127
13:24:23.813,-25.1251,-49.8127
13:24:23.824,-25.3751,-49.6252
13:24:23.833,-26.0001,-52.0002
13:24:23.843,-25.2501,-51.2502
13:24:23.853,-23.1876,-48.6877
13:24:23.863,-20.4376,-43.0627
13:24:23.875,-15.8126,-35.6251
13:24:23.883,-10.125,-27.8126
13:24:23.893,-5,-17.8751
13:24:23.903,-0.3125,-10.4375
13:24:23.913,2.9375,-2.5
13:24:23.923,5.875,1.5625
13:24:23.933,7,6.4375
13:24:23.943,7.875,7.4375
13:24:23.953,8.75,9.5
13:24:23.963,8.8125,10.0625
13:24:23.973,8.6875,9.5
13:24:23.983,8.8125,10.5625
13:24:23.993,9.0625,10.125
13:24:24.003,8.6875,11
13:24:24.013,9.25,11.3125
13:24:24.023,9.75,12.6875
13:24:24.039,11,13.8751
13:24:24.044,11.25,14.7501
13:24:24.053,11.8125,15.3126
13:24:24.090,12.0625,16.7501
13:24:24.092,11.9375,16.8751
13:24:24.093,11.75,15.2501
13:24:24.123,10.4375,13.8126
13:24:24.125,9.9375,13.7501
13:24:24.127,8.5625,11.25
13:24:24.135,7.875,9.375
13:24:24.135,7.375,9.5
13:24:24.146,7.5,9.1875
13:24:24.174,7.4375,7.875
13:24:24.177,6.875,7.875
13:24:24.180,6.8125,7.4375
13:24:24.183,7,7.8125
13:24:24.219,6.375,8.0625
13:24:24.220,6.625,7.6875
13:24:24.222,6.6875,6.625
13:24:24.229,5.875,5.3125
13:24:24.237,5.3125,5.3125
13:24:24.243,4.375,4.5
13:24:24.253,3.0625,3.5625
13:24:24.263,3.4375,1.625
13:24:24.273,2.9375,0.0625
13:24:24.283,2.0625,-1.3125
13:24:24.309,0.5625,-2.8125
13:24:24.312,-0.25,-5.0625
13:24:24.314,-0.9375,-4.9375
13:24:24.323,-1.9375,-7.125
13:24:24.334,-2.5,-8.75
13:24:24.344,-3.5,-9.9375
13:24:24.354,-4.5625,-12.375
13:24:24.364,-5.625,-13.0625
13:24:24.374,-6.375,-14.0626
13:24:24.385,-6.375,-15.6251
13:24:24.393,-7.6875,-17.8751
13:24:24.402,-8.3125,-18.8126
13:24:24.415,-9.125,-20.0626
13:24:24.434,-9.6875,-21.6251
13:24:24.435,-10.1875,-23.1876
13:24:24.455,-10.8125,-24.3751
13:24:24.458,-11.875,-24.3751
13:24:24.465,-12.25,-26.4376
13:24:24.473,-12.9375,-27.2501
13:24:24.483,-13.3751,-28.7501
13:24:24.492,-14.1251,-29.7501
13:24:24.504,-13.8126,-30.7501
13:24:24.514,-14.9376,-31.8751
13:24:24.523,-15.5626,-32.2501
13:24:24.533,-15.5626,-33.5001
13:24:24.543,-17.1876,-34.7501
13:24:24.553,-16.7501,-35.4376
13:24:24.563,-16.9376,-37.1251
13:24:24.573,-18.4376,-36.8126
13:24:24.583,-18.5001,-39.2502
13:24:24.593,-18.9376,-39.8752
13:24:24.603,-19.2501,-41.2502
13:24:24.613,-19.2501,-41.9377
13:24:24.623,-20.3126,-42.0002
13:24:24.633,-20.5001,-43.8127
13:24:24.643,-21.5001,-44.9377
13:24:24.654,-21.6876,-45.1252
13:24:24.664,-22.3126,-46.8752
13:24:24.673,-23.5001,-47.5002
13:24:24.683,-22.9376,-48.6252
13:24:24.693,-22.7501,-47.6877
13:24:24.708,-20.5626,-45.9377
13:24:24.723,-16.6251,-39.4377
13:24:24.725,-11.6875,-32.6251
13:24:24.733,-6.3125,-22.5626
13:24:24.743,-0.4375,-14.1876
13:24:24.753,3.5,-4.5625
13:24:24.763,8.0625,1.9375
13:24:24.773,10.25,7.9375
13:24:24.811,11.875,10.75
13:24:24.813,13.2501,14.4376
13:24:24.814,13.6876,15.4376
13:24:24.817,14.3126,16.5626
13:24:24.823,13.8126,16.6876
13:24:24.856,14.1251,17.1251
13:24:24.858,14.3126,16.2501
13:24:24.861,14.0626,17.8126
13:24:24.866,14.3751,18.2501
13:24:24.894,14.5626,18.3126
13:24:24.898,15.2501,19.7501
13:24:24.898,16.0001,21.0001
13:24:24.923,15.7501,22.3126
13:24:24.924,16.6251,22.5001
13:24:24.927,16.7501,22.6251
13:24:24.934,15.6876,21.9376
13:24:24.967,14.7501,21.5001
13:24:24.968,14.1251,21.1251
13:24:24.972,13.3126,18.7501
13:24:24.973,12.375,17.0626
13:24:24.989,12,15.8751
13:24:24.996,11.625,15.0626
13:24:25.005,11.125,14.0626
13:24:25.018,10.4375,13.6251
13:24:25.028,10.625,14.6251
13:24:25.038,10.8125,13.9376
13:24:25.048,10.625,13.4376
13:24:25.058,10.5,13.5001
13:24:25.068,9.875,12.8125
13:24:25.078,9.125,12.8125
13:24:25.088,8.125,11.875
13:24:25.098,8.0625,10.875
13:24:25.108,7.1875,9
13:24:25.118,6.5,7.25
13:24:25.128,4.9375,6
13:24:25.138,4.4375,4.9375
13:24:25.148,3.9375,2.875
13:24:25.158,2.5,0.5625
13:24:25.168,1.4375,0.25
13:24:25.178,1.125,-1.3125
13:24:25.188,-0.0625,-4
13:24:25.198,-1.0625,-5.375
13:24:25.208,-1.6875,-6
13:24:25.220,-2.375,-8.25
13:24:25.229,-3.875,-10
13:24:25.238,-4.25,-11.0625
13:24:25.248,-4.8125,-12.25
13:24:25.258,-6,-14.3126
13:24:25.270,-6.875,-16.0626
13:24:25.278,-7.8125,-17.1251
13:24:25.288,-8,-17.7501
13:24:25.299,-8.4375,-19.0001
13:24:25.308,-9.6875,-21.0626
13:24:25.318,-10.1875,-22.4376
13:24:25.329,-10.9375,-22.8126
13:24:25.338,-11.125,-23.8751
13:24:25.348,-10.8125,-25.3751
13:24:25.363,-12.3125,-24.9376
13:24:25.369,-12.0625,-27.3751
13:24:25.378,-12.875,-27.1251
13:24:25.388,-12.5,-29.3126
13:24:25.398,-13.7501,-28.6251
13:24:25.408,-13.1876,-30.6251
13:24:25.418,-14.4376,-30.5001
13:24:25.428,-14.6876,-32.7501
13:24:25.438,-15.5001,-32.7501
13:24:25.448,-15.2501,-34.6876
13:24:25.457,-16.0626,-34.9376
13:24:25.468,-16.2501,-36.2501
13:24:25.478,-17.2501,-36.3126
13:24:25.488,-17.2501,-38.2501
13:24:25.508,-18.4376,-39.0001
13:24:25.512,-18.5001,-41.2502
13:24:25.518,-19.8751,-40.8127
13:24:25.552,-20.1876,-43.4377
13:24:25.554,-20.7501,-43.1252
13:24:25.557,-19.8751,-44.3127
13:24:25.559,-18.8751,-41.3127
13:24:25.588,-14.9376,-36.7501
13:24:25.593,-10.25,-28.3126
13:24:25.594,-4.5625,-20.0626
13:24:25.630,0.375,-9.625
13:24:25.631,5.0625,-2.3125
13:24:25.634,8.4375,6.375
13:24:25.636,11.375,10.625
13:24:25.643,12.875,15.6251
13:24:25.652,14.2501,17.4376
13:24:25.658,13.8751,20.0626
13:24:25.678,14.2501,20.1251
13:24:25.680,14.0001,20.0626
13:24:25.688,13.6251,19.7501
13:24:25.698,13.5626,19.1876
13:24:25.708,13.5626,19.8126
13:24:25.718,13.5626,19.6251
13:24:25.735,14.1876,20.8751
13:24:25.740,14.0626,21.0626
13:24:25.755,13.7501,21.8126
13:24:25.758,15.5626,23.0626
13:24:25.769,15.3751,23.1251
13:24:25.778,14.3751,22.4376
13:24:25.788,13.6251,21.6876
13:24:25.798,12.8125,21.8126
13:24:25.809,12.0625,19.9376
13:24:25.818,11.75,18.3751
13:24:25.828,11.1875,17.4376
13:24:25.838,10.5,16.8751
13:24:25.848,9.9375,17.2501
13:24:25.859,10.4375,16.5626
13:24:25.868,10.75,17.0626
13:24:25.878,10.9375,17.4376
13:24:25.888,11.25,17.5626
13:24:25.898,10.5,17.1251
13:24:25.908,9.875,16.4376
13:24:25.918,9.5625,17.0001
13:24:25.928,9.4375,15.3126
13:24:25.940,8.1875,14.0001
13:24:25.948,7.75,13.5001
13:24:25.959,6.6875,12.125
13:24:25.968,6.375,10.0625
13:24:25.978,5.3125,8.375
13:24:25.988,4,7.625
13:24:26.005,3.3125,6.4375
13:24:26.018,2.125,3.875
13:24:26.021,1.5,2.0625
13:24:26.028,0.8125,0.5625
13:24:26.038,-0.4375,0.1875
13:24:26.048,-0.625,-1.625
13:24:26.058,-1.75,-3.8125
13:24:26.068,-3.0625,-5.125
13:24:26.078,-3.8125,-5.8125
13:24:26.088,-4.0625,-8.1875
13:24:26.098,-5.125,-9.9375
13:24:26.113,-5.75,-10.9375
13:24:26.118,-7.3125,-12.375
13:24:26.128,-6.875,-13.8751
13:24:26.138,-8.0625,-15.6876
13:24:26.148,-8.3125,-15.9376
13:24:26.158,-9.3125,-17.5001
13:24:26.168,-9.9375,-19.0001
13:24:26.178,-10.8125,-20.1876
13:24:26.188,-11.3125,-20.6876
13:24:26.198,-11.625,-22.5001
13:24:26.209,-11.9375,-23.3751
13:24:26.218,-12.375,-23.6876
13:24:26.228,-12.5625,-25.4376
13:24:26.244,-13.6251,-26.8751
13:24:26.249,-14.1876,-27.8126
13:24:26.286,-14.2501,-28.6251
13:24:26.287,-15.1251,-28.6876
13:24:26.289,-15.3751,-30.8126
13:24:26.292,-16.3126,-31.6876
13:24:26.322,-16.5001,-33.1251
13:24:26.325,-17.4376,-34.0001
13:24:26.325,-17.8126,-35.8126
13:24:26.334,-18.4376,-35.9376
13:24:26.348,-19.3751,-37.7501
13:24:26.349,-19.8126,-38.1876
13:24:26.385,-20.2501,-40.0627
13:24:26.386,-20.3126,-40.3752
13:24:26.391,-19.6876,-39.2502
13:24:26.396,-16.7501,-36.1251
13:24:26.399,-13.125,-28.3751
13:24:26.416,-7.375,-20.9376
13:24:26.419,-2,-11.5
13:24:26.428,3.875,-1.8125
13:24:26.438,8.0625,6.625
13:24:26.448,10.9375,14.4376
13:24:26.458,14.1876,19.4376
13:24:26.468,16.0001,23.0626
13:24:26.488,16.8751,26.5626
13:24:26.493,17.4376,27.8751
13:24:26.503,17.3126,28.5001
13:24:26.513,17.6876,30.0626
13:24:26.523,17.5001,28.9376
13:24:26.533,17.5626,29.8126
13:24:26.544,17.3126,29.5001
13:24:26.553,17.8126,30.5626
13:24:26.564,18.1876,31.3751
13:24:26.572,18.3126,33.2501
13:24:26.583,19.4376,33.4376
13:24:26.594,19.4376,34.3126
13:24:26.603,19.3126,33.6251
13:24:26.614,19.3126,34.9376
13:24:26.624,19.0001,33.3751
13:24:26.633,17.3751,31.0626
13:24:26.643,16.9376,30.5001
13:24:26.653,15.2501,28.8126
13:24:26.663,15.7501,27.7501
13:24:26.673,14.8126,26.1251
13:24:26.683,14.0001,25.3751
13:24:26.693,14.3126,26.7501
13:24:26.703,14.5001,25.8751
13:24:26.713,13.8751,25.6876
13:24:26.723,12.75,25.9376
13:24:26.733,13.8126,24.5626
13:24:26.743,12.5,23.6251
13:24:26.753,12.25,24.0001
13:24:26.763,11.6875,22.0626
13:24:26.773,10.6875,20.8751
13:24:26.784,9.5625,20.8751
13:24:26.793,9.0625,18.1251
13:24:26.803,8.1875,16.5001
13:24:26.813,7.625,15.1876
13:24:26.823,6.25,14.0626
13:24:26.833,5.4375,11.6875
13:24:26.843,4.25,9
13:24:26.869,2.875,7.4375
13:24:26.872,1.5625,6.4375
13:24:26.874,0.625,3.4375
13:24:26.887,-0.125,1.4375
13:24:26.894,-1.75,-0.0625
13:24:26.903,-1.8125,-1.625
13:24:26.913,-2.6875,-3.5625
13:24:26.923,-4.3125,-5.875
13:24:26.933,-5.375,-7.125
13:24:26.943,-5.5625,-8.8125
13:24:26.953,-6.6875,-10.5625
13:24:26.963,-8,-11.25
13:24:26.974,-8.25,-13.0625
13:24:26.983,-8.25,-14.9376
13:24:26.993,-9.875,-16.5001
13:24:27.003,-10.8125,-17.3126
13:24:27.013,-11.125,-18.6876
13:24:27.024,-11.5625,-20.7501
13:24:27.038,-12.1875,-22.5001
13:24:27.072,-13.1876,-22.7501
13:24:27.074,-13.8751,-24.1876
13:24:27.077,-13.9376,-26.0001
13:24:27.079,-14.7501,-27.1251
13:24:27.083,-15.3126,-28.3751
13:24:27.116,-15.6251,-28.8751
13:24:27.117,-16.6251,-31.3751
13:24:27.119,-16.8126,-31.2501
13:24:27.126,-17.6876,-33.5001
13:24:27.162,-17.8751,-34.1876
13:24:27.164,-19.0626,-35.6251
13:24:27.167,-19.3126,-36.0001
13:24:27.173,-20.1876,-37.9376
13:24:27.174,-20.4376,-39.1877
13:24:27.205,-21.8751,-41.0627
13:24:27.208,-22.2501,-41.8127
13:24:27.210,-22.3751,-42.0627
13:24:27.216,-21.7501,-42.1877
13:24:27.224,-20.0001,-40.3752
13:24:27.233,-15.3751,-33.6251
13:24:27.246,-10.8125,-26.1251
13:24:27.253,-4.375,-14.8126
13:24:27.263,1.25,-5.375
13:24:27.275,5.8125,4.5625
13:24:27.284,11.125,13
13:24:27.299,14.3751,20.1876
13:24:27.314,17.0001,25.8126
13:24:27.316,17.8751,29.9376
13:24:27.323,19.3751,32.9376
13:24:27.333,20.2501,34.3751
13:24:27.343,20.0626,36.5001
13:24:27.354,20.5626,36.0001
13:24:27.364,20.1876,37.3751
13:24:27.373,20.5001,36.8126
13:24:27.383,21.1876,38.4376
13:24:27.393,21.6251,38.6876
13:24:27.403,21.7501,40.5627
13:24:27.414,22.5626,41.1252
13:24:27.424,22.6251,43.1252
13:24:27.434,23.6251,43.1252
13:24:27.444,23.4376,43.5002
13:24:27.453,22.5626,42.1252
13:24:27.465,21.6876,42.3127
13:24:27.473,20.5001,40.8127
13:24:27.483,20.5626,38.4376
13:24:27.493,18.8751,36.1251
13:24:27.503,17.5626,36.3751
13:24:27.513,17.0001,34.0001
13:24:27.525,16.7501,32.5001
13:24:27.533,16.3126,32.0626
13:24:27.543,15.4376,32.9376
13:24:27.553,15.8751,31.3126
13:24:27.563,15.5626,30.6251
13:24:27.574,14.8751,30.8751
13:24:27.583,15.3751,30.6876
13:24:27.593,14.1251,28.8751
13:24:27.603,12.8125,27.6251
13:24:27.613,11.875,25.6251
13:24:27.623,10.6875,25.6251
13:24:27.634,10.375,22.7501
13:24:27.644,8.375,20.6876
13:24:27.655,7.9375,19.9376
13:24:27.663,7.5,17.0626
13:24:27.674,6,14.9376
13:24:27.682,4,13.3751
13:24:27.693,3,12
13:24:27.704,2.8125,8.875
13:24:27.727,0.9375,6.8125
13:24:27.730,-0.5625,5.5
13:24:27.758,-1.4375,3.125
13:24:27.761,-2.5,-0.125
13:24:27.763,-3.875,-1.4375
13:24:27.764,-4.4375,-3.5625
13:24:27.794,-5.8125,-6.0625
13:24:27.796,-7.1875,-6.6875
13:24:27.798,-7.6875,-8.9375
13:24:27.805,-8.75,-11.375
13:24:27.836,-9.1875,-13
13:24:27.838,-10.375,-13.3751
13:24:27.841,-10.3125,-15.7501
13:24:27.870,-11.5625,-17.3751
13:24:27.870,-12.4375,-19.3751
13:24:27.873,-13.4376,-20.9376
13:24:27.881,-14.3126,-21.0626
13:24:27.884,-14.3126,-23.3126
13:24:27.894,-15.1251,-25.0001
13:24:27.903,-16.0626,-25.8751
13:24:27.913,-16.6251,-27.8126
13:24:27.923,-17.7501,-28.1251
13:24:27.933,-17.3126,-30.0001
13:24:27.945,-19.0626,-32.0001
13:24:27.954,-18.9376,-31.8126
13:24:27.963,-19.7501,-34.1251
13:24:27.973,-20.6876,-34.4376
13:24:27.983,-21.3126,-36.8126
13:24:27.994,-21.6876,-37.6876
13:24:28.003,-22.1876,-38.8751
13:24:28.017,-23.1876,-40.5627
13:24:28.023,-23.7501,-41.5002
13:24:28.033,-24.6876,-43.0002
13:24:28.044,-25.1876,-44.4377
13:24:28.054,-25.0626,-44.6877
13:24:28.065,-25.6876,-46.9377
13:24:28.074,-26.0001,-46.4377
13:24:28.083,-24.8126,-45.7502
13:24:28.094,-20.9376,-40.9377
13:24:28.103,-15.5626,-33.2501
13:24:28.114,-10.9375,-23.5626
13:24:28.123,-3.875,-12.5625
13:24:28.148,1.375,-2
13:24:28.152,7.125,7.0625
13:24:28.156,10.875,16.7501
13:24:28.164,14.3751,22.3126
13:24:28.173,16.8126,27.3751
13:24:28.183,17.7501,30.2501
13:24:28.194,19.3126,32.9376
13:24:28.205,18.6251,34.6251
13:24:28.213,18.4376,33.8751
13:24:28.223,18.8126,35.3126
13:24:28.234,18.1876,34.0626
13:24:28.243,19.1251,35.3751
13:24:28.253,18.7501,36.2501
13:24:28.266,19.1876,35.7501
13:24:28.274,20.1251,37.1251
13:24:28.284,20.5001,38.3126
13:24:28.293,20.7501,39.4377
13:24:28.304,20.9376,39.6877
13:24:28.314,20.9376,38.8126
13:24:28.323,19.3126,38.8126
13:24:28.338,18.6251,36.0626
13:24:28.354,17.9376,34.8751
13:24:28.357,16.6876,34.1876
13:24:28.363,16.8126,34.1876
13:24:28.373,16.8751,32.6251
13:24:28.384,16.6876,33.1876
13:24:28.394,16.5001,31.8751
13:24:28.405,16.5626,31.6876
13:24:28.415,16.1876,30.3751
13:24:28.423,14.9376,29.9376
13:24:28.434,14.8751,28.9376
13:24:28.443,13.9376,28.5626
13:24:28.455,14.1251,26.7501
13:24:28.465,13.3751,25.0626
13:24:28.474,11.375,24.1251
13:24:28.483,11.375,21.4376
13:24:28.494,9.8125,19.8751
13:24:28.506,8.4375,17.6251
13:24:28.513,8.375,14.8751
13:24:28.524,7.125,12.8125
13:24:28.556,5.75,10.375
13:24:28.559,4.8125,8.1875
13:24:28.561,3.8125,6.75
13:24:28.563,2.5625,4.25
13:24:28.597,1.8125,2.3125
13:24:28.634,0.625,-1
13:24:28.636,-1.25,-2.8125
13:24:28.639,-2.1875,-6.1875
13:24:28.641,-4.0625,-8.1875
13:24:28.641,-5.25,-11.3125
13:24:28.644,-7.1875,-13.4376
13:24:28.683,-8.1875,-16.2501
13:24:28.684,-9,-18.5626
13:24:28.688,-9.625,-20.3126
13:24:28.689,-10.5625,-22.3126
13:24:28.696,-11.8125,-23.8126
13:24:28.704,-11.8125,-25.1876
13:24:28.713,-13,-26.7501
13:24:28.724,-14.1876,-27.6251
13:24:28.733,-15.2501,-29.9376
13:24:28.744,-16.6251,-30.2501
13:24:28.753,-16.8751,-32.9376
13:24:28.769,-18.4376,-33.9376
13:24:28.774,-19.4376,-35.8126
13:24:28.783,-19.6876,-37.6251
13:24:28.796,-21.1251,-38.5001
13:24:28.803,-24.0001,-42.5002
13:24:28.813,-24.1876,-43.8127
13:24:28.824,-25.5626,-44.2502
13:24:28.834,-26.1251,-46.6252
13:24:28.846,-26.3751,-47.3127
13:24:28.854,-27.7501,-48.8127
13:24:28.863,-28.0626,-50.1877
13:24:28.874,-29.1251,-50.8752
13:24:28.883,-30.1251,-54.0627
13:24:28.893,-30.8126,-54.7502
13:24:28.904,-32.8751,-55.7502
13:24:28.914,-33.0001,-58.5002
13:24:28.923,-33.6251,-57.0002
13:24:28.934,-31.2501,-56.8752
13:24:28.943,-26.9376,-50.7502
13:24:28.954,-21.1876,-42.6877
13:24:28.963,-14.7501,-32.6876
13:24:28.975,-8.6875,-21.1876
13:24:28.983,-3.5,-12.0625
13:24:28.994,2,-2.5625
13:24:29.003,6,6.1875
13:24:29.014,8.6875,11.375
13:24:29.024,11.875,15.7501
13:24:29.034,12.0625,19.3751
13:24:29.043,13.1876,20.1876
13:24:29.053,13.1876,21.9376
13:24:29.064,13.1876,21.6251
13:24:29.074,12.5625,20.5001
13:24:29.086,12.6875,20.4376
13:24:29.094,12.125,21.3126
13:24:29.104,11.9375,19.8751
13:24:29.113,11.8125,20.0626
13:24:29.124,12.25,19.9376
13:24:29.132,12.6875,20.8751
13:24:29.144,13,20.4376
13:24:29.153,13.1876,20.5001
13:24:29.166,13.5001,19.3751
13:24:29.173,12.6875,17.5001
13:24:29.184,11.4375,16.1876
13:24:29.193,10.75,15.1251
13:24:29.204,10.3125,12.4375
13:24:29.234,9.3125,10.625
13:24:29.236,9.6875,10.75
13:24:29.238,9.125,10.875
13:24:29.245,8.625,10.0625
13:24:29.281,9.0625,8.8125
13:24:29.282,7.875,9.125
13:24:29.284,7.9375,7.625
13:24:29.288,5.8125,6.1875
13:24:29.321,5.375,5.5
13:24:29.323,3.3125,3.5
13:24:29.325,1.4375,2.1875
13:24:29.332,-0.375,-0.875
13:24:29.334,-2.125,-2.375
13:24:29.367,-3.3125,-4.5
13:24:29.369,-5.125,-5.625
13:24:29.371,-5.9375,-8.75
13:24:29.374,-6.8125,-9.6875
13:24:29.390,-7.375,-11.0625
13:24:29.394,-8.125,-12
13:24:29.404,-8.8125,-13.7501
13:24:29.430,-10.625,-15.2501
13:24:29.433,-12,-16.5001
13:24:29.435,-12.5625,-18.4376
13:24:29.444,-13.7501,-21.2501
13:24:29.454,-14.7501,-22.5001
13:24:29.464,-16.0001,-24.3126
13:24:29.474,-16.5001,-25.9376
13:24:29.484,-17.3751,-27.6251
13:24:29.494,-18.2501,-29.5626
13:24:29.503,-19.7501,-31.0001
13:24:29.521,-20.5626,-33.5626
13:24:29.524,-21.5626,-35.0001
13:24:29.533,-22.1876,-37.0001
13:24:29.546,-22.0001,-38.4376
13:24:29.554,-22.8126,-39.1877
13:24:29.565,-22.9376,-40.6877
13:24:29.574,-23.1876,-42.0002
13:24:29.584,-23.1251,-42.2502
13:24:29.594,-23.5626,-42.4377
13:24:29.604,-23.3751,-43.9377
13:24:29.614,-22.8126,-44.6877
13:24:29.633,-23.7501,-45.0002
13:24:29.639,-23.1251,-46.7502
13:24:29.649,-23.0001,-47.5627
13:24:29.654,-24.9376,-49.1252
13:24:29.671,-24.3751,-49.8127
13:24:29.678,-25.1251,-50.3752
13:24:29.686,-25.2501,-52.0002
13:24:29.695,-25.6876,-53.0002
13:24:29.704,-26.7501,-55.4377
13:24:29.714,-26.3751,-55.8127
13:24:29.724,-26.7501,-56.7502
13:24:29.733,-26.6251,-58.0627
13:24:29.744,-25.7501,-56.0002
13:24:29.753,-22.4376,-53.7502
13:24:29.764,-17.5626,-46.7502
13:24:29.775,-11.375,-37.1876
13:24:29.784,-5.125,-27.8751
13:24:29.794,2.1875,-15.6876
13:24:29.804,7.0625,-5.375
13:24:29.817,12.3125,2.3125
13:24:29.826,16.0001,10.25
13:24:29.833,17.3751,15.8126
13:24:29.844,18.8751,18.6876
13:24:29.854,19.5001,21.7501
13:24:29.864,19.0001,22.6251
13:24:29.874,18.3126,22.2501
13:24:29.895,16.9376,22.3126
13:24:29.898,15.5626,21.1876
13:24:29.906,13.6251,20.3126
13:24:29.913,13.3751,20.4376
13:24:29.931,12,20.6251
13:24:29.938,12.1875,21.1876
13:24:29.944,12.6875,21.7501
13:24:29.954,12.3125,23.4376
13:24:29.987,13.3126,23.7501
13:24:29.989,13.6876,24.3751
13:24:29.992,13.1876,24.8751
13:24:29.994,12.3125,23.6876
13:24:30.038,11,22.5626
13:24:30.038,9.5625,20.3126
13:24:30.041,9.125,19.9376
13:24:30.043,9.5,18.8126
13:24:30.050,7.875,18.7501
13:24:30.054,7.8125,17.6251
13:24:30.094,7.625,16.5626
13:24:30.096,7.75,17.1251
13:24:30.098,7.875,16.6251
13:24:30.101,6.8125,17.1251
13:24:30.106,6.625,16.1876
13:24:30.130,7.0625,15.5626
13:24:30.133,5.75,14.5626
13:24:30.135,5.875,14.5626
13:24:30.150,5.5625,11.8125
13:24:30.154,5.1875,10.9375
13:24:30.164,4.625,9.375
13:24:30.173,4.6875,8.5
13:24:30.184,3.9375,7.0625
13:24:30.193,3,6.0625
13:24:30.204,1.9375,4.0625
13:24:30.214,1.6875,1.8125
13:24:30.223,0.3125,0.375
13:24:30.234,-0.8125,-1.1875
13:24:30.245,-1.5,-4.1875
13:24:30.254,-2.625,-5.8125
13:24:30.269,-3.1875,-7.75
13:24:30.274,-4.5,-9.375
13:24:30.285,-4.8125,-10.3125
13:24:30.296,-5.4375,-13.0625
13:24:30.304,-6.25,-13.8126
13:24:30.314,-6.3125,-15.3126
13:24:30.324,-6.9375,-17.2501
13:24:30.334,-6.625,-17.8126
13:24:30.344,-7.1875,-19.6876
13:24:30.354,-7.1875,-21.2501
13:24:30.364,-7.75,-22.4376
13:24:30.374,-8.5625,-22.8126
13:24:30.385,-9.25,-24.1251
13:24:30.394,-9.6875,-27.1251
13:24:30.403,-10.125,-27.6876
13:24:30.414,-11.6875,-29.5626
13:24:30.424,-12.8125,-31.8126
13:24:30.434,-13.9376,-33.0626
13:24:30.444,-15.6876,-35.8126
13:24:30.454,-16.7501,-36.7501
13:24:30.464,-18.5001,-38.8751
13:24:30.474,-21.4376,-41.6877
13:24:30.484,-22.7501,-43.7502
13:24:30.499,-24.5001,-45.1877
13:24:30.509,-25.5626,-47.5627
13:24:30.519,-27.0001,-48.5002
13:24:30.529,-27.0001,-49.3127
13:24:30.540,-25.4376,-48.3752
13:24:30.549,-22.9376,-42.8752
13:24:30.560,-17.6876,-36.1251
13:24:30.570,-11.125,-24.9376
13:24:30.585,-4.375,-13.3751
13:24:30.594,1.6875,-1.625
13:24:30.604,8,10.875
13:24:30.614,12.8125,20.3751
13:24:30.624,16.9376,30.0626
13:24:30.636,20.5626,35.7501
13:24:30.666,22.9376,41.5002
13:24:30.668,23.8126,43.7502
13:24:30.670,24.6876,47.5002
13:24:30.674,25.1251,48.0002
13:24:30.684,24.1876,47.3752
13:24:30.709,24.8126,48.6252
13:24:30.713,24.5001,47.4377
13:24:30.714,25.4376,48.6252
13:24:30.746,25.5626,48.1877
13:24:30.748,26.0001,49.6877
13:24:30.750,27.1876,50.9377
13:24:30.755,27.3126,51.9377
13:24:30.788,27.1876,50.5627
13:24:30.790,26.1876,50.0002
13:24:30.793,25.8751,48.6252
13:24:30.795,26.2501,46.9377
13:24:30.819,25.8126,45.3127
13:24:30.822,26.0001,45.4377
13:24:30.824,25.8751,44.6877
13:24:30.834,25.0626,45.1877
13:24:30.844,25.8126,44.1252
13:24:30.854,24.8126,44.3752
13:24:30.864,25.3751,43.7502
13:24:30.874,25.2501,42.7502
13:24:30.884,25.0626,43.1252
13:24:30.894,25.3126,42.1877
13:24:30.904,24.5626,40.8127
13:24:30.915,24.7501,39.8752
13:24:30.925,23.6251,37.5626
13:24:30.934,22.6251,35.6251
13:24:30.944,21.3126,33.4376
13:24:30.960,20.7501,31.4376
13:24:30.966,19.3126,29.7501
13:24:30.976,18.0001,26.1251
13:24:30.984,16.8751,23.9376
13:24:31.000,15.5001,21.8126
13:24:31.008,13.8126,18.6876
13:24:31.014,12,16.1876
13:24:31.025,10.0625,13.3751
13:24:31.034,7.625,9.625
13:24:31.045,5.625,6.6875
13:24:31.054,3.5,4
13:24:31.064,1,0.875
13:24:31.075,-1,-1.6875
13:24:31.084,-3.0625,-4.875
13:24:31.094,-5,-7.5625
13:24:31.104,-6.8125,-9.3125
13:24:31.114,-8.5,-12.0625
13:24:31.125,-9.6875,-14.6251
13:24:31.135,-9.8125,-15.5626
13:24:31.145,-10.625,-16.1251
13:24:31.154,-10.625,-16.8126
13:24:31.164,-10.8125,-17.7501
13:24:31.174,-11.9375,-18.9376
13:24:31.184,-13,-19.5001
13:24:31.194,-13.125,-20.8751
13:24:31.214,-14.1876,-21.9376
13:24:31.216,-15.1876,-23.4376
13:24:31.230,-16.5001,-24.5001
13:24:31.246,-16.5001,-26.6251
13:24:31.248,-18.2501,-27.8126
13:24:31.256,-18.6876,-30.1876
13:24:31.264,-20.0626,-31.6251
13:24:31.274,-20.8126,-33.3751
13:24:31.284,-20.4376,-34.4376
13:24:31.294,-18.3126,-32.3126
13:24:31.306,-13.7501,-26.6251
13:24:31.314,-9,-17.5001
13:24:31.326,-1.0625,-7.1875
13:24:31.335,7.1875,6.1875
13:24:31.344,13.6876,19.0001
13:24:31.359,20.6876,30.3126
13:24:31.365,25.7501,42.0002
13:24:31.403,30.6251,49.5627
13:24:31.404,33.8126,56.6252
13:24:31.406,36.0626,60.7502
13:24:31.409,38.1251,64.6252
13:24:31.415,38.1876,66.6253
13:24:31.451,39.1877,67.6878
13:24:31.453,39.6877,68.6253
13:24:31.456,39.7502,69.9378
13:24:31.459,40.6877,70.2503
13:24:31.464,41.1252,71.6878
13:24:31.502,41.8127,72.1253
13:24:31.505,42.8752,73.5628
13:24:31.507,43.8752,74.3753
13:24:31.514,44.0002,75.9378
13:24:31.514,45.1252,76.1878
13:24:31.530,44.5002,75.2503
13:24:31.534,44.0002,74.0628
13:24:31.544,44.1252,72.1878
13:24:31.554,42.0002,69.3128
13:24:31.570,41.2502,67.4378
13:24:31.574,39.7502,64.3127
13:24:31.584,38.5626,63.1877
13:24:31.594,37.6251,60.3127
13:24:31.604,36.1876,59.4377
13:24:31.614,35.1876,58.1252
13:24:31.624,33.8751,56.5627
13:24:31.634,32.3126,55.3752
13:24:31.644,30.7501,52.7502
13:24:31.654,28.5001,50.1877
13:24:31.665,26.2501,47.8127
13:24:31.674,23.5001,45.0002
13:24:31.684,21.3126,42.0627
13:24:31.694,19.5001,38.7501
13:24:31.705,16.7501,36.4376
13:24:31.717,16.0001,33.4376
13:24:31.727,13.8751,30.6251
13:24:31.734,13.6251,28.5626
13:24:31.744,11.3125,25.8126
13:24:31.754,10.9375,24.3126
13:24:31.764,8.8125,21.7501
13:24:31.774,6.6875,19.7501
13:24:31.784,5.4375,16.2501
13:24:31.794,3.1875,14.6251
13:24:31.805,1.875,11.625
13:24:31.817,0.6875,8.5625
13:24:31.824,-0.8125,6.3125
13:24:31.834,-1.9375,4.0625
13:24:31.844,-3.4375,2.3125
13:24:31.854,-4.75,-0.1875
13:24:31.864,-5.875,-2.9375
13:24:31.874,-6.25,-5.5
13:24:31.884,-8,-6.875
13:24:31.894,-8.6875,-9.3125
13:24:31.904,-9.375,-11.1875
13:24:31.916,-10.4375,-12.9375
13:24:31.927,-11.25,-15.0001
13:24:31.934,-11.9375,-17.3126
13:24:31.950,-11.8125,-18.9376
13:24:31.954,-11.9375,-20.3751
13:24:31.964,-13.1251,-21.9376
13:24:31.989,-13.3751,-23.2501
13:24:31.992,-13.3126,-25.3751
13:24:31.996,-14.7501,-26.5626
13:24:32.004,-14.6876,-27.6876
13:24:32.014,-15.5626,-29.3126
13:24:32.024,-15.4376,-31.4376
13:24:32.034,-16.8751,-31.8126
13:24:32.044,-16.6876,-34.5626
13:24:32.055,-17.6251,-33.9376
13:24:32.065,-14.7501,-33.6876
13:24:32.087,-11.5,-28.0001
13:24:32.089,-6.4375,-19.6876
13:24:32.122,0.75,-10.0625
13:24:32.123,7.75,2.125
13:24:32.125,14.9376,14.2501
13:24:32.128,20.9376,26.9376
13:24:32.134,26.5626,35.5001
13:24:32.166,30.8126,44.3127
13:24:32.168,34.5626,49.7502
13:24:32.172,36.7501,54.5627
13:24:32.177,38.1876,57.8127
13:24:32.205,39.3752,59.0627
13:24:32.207,39.3751,60.8752
13:24:32.209,39.5627,61.3752
13:24:32.215,40.0627,62.0002
13:24:32.246,39.1877,62.7502
13:24:32.249,39.1251,62.8127
13:24:32.252,38.6876,63.5002
13:24:32.256,38.6876,64.6252
13:24:32.264,38.4376,64.9377
13:24:32.283,37.3126,65.3753
13:24:32.289,36.8751,64.1877
13:24:32.298,36.0626,62.7502
13:24:32.304,34.0626,60.8752
13:24:32.325,32.0626,58.9377
13:24:32.339,30.3751,56.8752
13:24:32.343,29.8751,54.3127
13:24:32.344,29.3126,52.8127
13:24:32.354,27.8751,51.6252
13:24:32.364,26.3126,50.1877
13:24:32.374,25.0626,50.0627
13:24:32.384,25.3126,49.6252
13:24:32.394,24.1251,48.5002
13:24:32.404,23.2501,49.0627
13:24:32.414,22.1876,46.8127
13:24:32.424,20.8126,45.3127
13:24:32.434,19.4376,42.9377
13:24:32.444,18.3751,41.6877
13:24:32.454,16.8126,39.1251
13:24:32.464,15.8126,36.6251
13:24:32.475,15.1876,34.0001
13:24:32.486,13,30.8126
13:24:32.496,11.625,28.0626
13:24:32.504,10.25,25.2501
13:24:32.514,8.875,23.6251
13:24:32.530,7.8125,20.5001
13:24:32.547,7.375,17.0001
13:24:32.551,5.6875,14.2501
13:24:32.566,4.1875,13.3126
13:24:32.569,4.9375,10.3125
13:24:32.582,2.5625,7.3125
13:24:32.584,1.5,4.875
13:24:32.594,0.625,3.375
13:24:32.604,0.4375,0.875
13:24:32.614,-0.8125,-1.5
13:24:32.624,-2.125,-4.3125
13:24:32.634,-3.375,-5.6875
13:24:32.645,-4.0625,-6.4375
13:24:32.655,-4.375,-8.875
13:24:32.665,-5.375,-11.75
13:24:32.675,-5.8125,-12.6875
13:24:32.684,-6.1875,-13.8126
13:24:32.699,-6.3125,-15.6251
13:24:32.704,-6.125,-17.5001
13:24:32.715,-6.6875,-19.7501
13:24:32.724,-7,-20.8751
13:24:32.734,-7.3125,-22.0626
13:24:32.745,-7.875,-23.1251
13:24:32.754,-7.5625,-25.0001
13:24:32.764,-8.875,-27.4376
13:24:32.775,-9.9375,-29.2501
13:24:32.786,-12,-30.9376
13:24:32.794,-12.4375,-33.4376
13:24:32.804,-14.5001,-34.8751
13:24:32.822,-15.2501,-36.8126
13:24:32.824,-14.9376,-36.5626
13:24:32.858,-13.1876,-34.0626
13:24:32.863,-9.0625,-28.5626
13:24:32.863,-4.25,-18.6876
13:24:32.864,1,-9.25
13:24:32.896,7.1875,1.625
13:24:32.898,11.375,11.8125
13:24:32.900,16.9376,20.8126
13:24:32.931,20.1251,28.6251
13:24:32.931,24.1251,35.0626
13:24:32.931,25.1876,39.8127
13:24:32.939,26.4376,43.0002
13:24:32.945,26.5001,45.5002
13:24:32.983,27.1251,46.8127
13:24:32.984,27.8126,48.9377
13:24:32.988,26.9376,49.9377
13:24:32.989,27.3126,50.7502
13:24:32.997,27.3751,52.6252
13:24:33.007,27.0001,52.5002
13:24:33.014,28.0001,53.5627
13:24:33.024,27.2501,54.0002
13:24:33.035,28.0626,53.8752
13:24:33.044,27.1876,54.6252
13:24:33.054,26.0001,53.1252
13:24:33.065,25.5001,51.3127
13:24:33.079,25.2501,49.0002
13:24:33.084,24.1251,45.8127
13:24:33.094,22.5001,43.2502
13:24:33.104,22.3126,40.8127
13:24:33.114,21.5626,40.5627
13:24:33.124,22.2501,40.0627
13:24:33.134,22.1876,39.5627
13:24:33.145,22.6876,37.8751
13:24:33.154,21.7501,38.0626
13:24:33.164,21.5626,37.8126
13:24:33.174,21.6876,36.4376
13:24:33.185,20.8751,34.7501
13:24:33.196,20.0626,34.3751
13:24:33.205,19.3126,32.6251
13:24:33.214,18.1876,30.5626
13:24:33.224,16.4376,27.0626
13:24:33.234,15.0001,24.7501
13:24:33.245,13.3751,23.3751
13:24:33.269,12.75,19.9376
13:24:33.271,11.75,17.0001
13:24:33.277,10.3125,13.9376
13:24:33.287,8.75,11.4375
13:24:33.294,7.3125,9.1875
13:24:33.304,5.75,7
13:24:33.314,4.9375,4.25
13:24:33.324,4.625,1.5
13:24:33.334,1.875,-1.875
13:24:33.345,0.6875,-4.375
13:24:33.354,-1.6875,-6.75
13:24:33.366,-3.625,-9.3125
13:24:33.375,-4.8125,-12.5625
13:24:33.386,-7.625,-16.5626
13:24:33.394,-9.8125,-18.6251
13:24:33.405,-11.5625,-22.1251
13:24:33.414,-13.3126,-24.3126
13:24:33.425,-14.7501,-26.7501
13:24:33.435,-16.1876,-28.8751
13:24:33.444,-17.3751,-29.2501
13:24:33.454,-18.1876,-30.4376
13:24:33.464,-17.7501,-32.0626
13:24:33.474,-18.1876,-32.6251
13:24:33.485,-19.5001,-33.1251
13:24:33.494,-19.9376,-33.5001
13:24:33.504,-20.2501,-35.1876
13:24:33.514,-21.7501,-36.1251
13:24:33.525,-21.7501,-36.8126
13:24:33.534,-23.5001,-39.5002
13:24:33.562,-24.3126,-40.3127
13:24:33.564,-25.2501,-43.2502
13:24:33.568,-28.0626,-45.1252
13:24:33.683,-28.6876,-48.2502
13:24:33.683,-30.2501,-51.3127
13:24:33.694,-30.1251,-51.4377
13:24:33.701,-29.6251,-51.1877
13:24:33.702,-25.5001,-47.7502
13:24:33.702,-21.3126,-40.1252
13:24:33.702,-14.3126,-30.4376
13:24:33.708,-7.5625,-18.6251
13:24:33.727,0,-7.625
13:24:33.730,6.0625,4.4375
13:24:33.734,11.5625,13.3126
13:24:33.747,16.5001,20.5626
13:24:33.754,18.5001,27.3751
13:24:33.765,21.9376,30.2501
13:24:33.774,23.1251,34.0001
13:24:33.785,24.7501,35.6876
13:24:33.797,25.0626,38.8126
13:24:33.804,26.4376,39.3751
13:24:33.814,26.8751,40.6877
13:24:33.829,28.2501,43.1252
13:24:33.834,29.9376,44.1877
13:24:33.849,30.5626,46.5627
13:24:33.858,31.4376,48.2502
13:24:33.865,35.1251,52.6877
13:24:33.881,32.8126,49.5002
13:24:33.886,31.5001,46.8127
13:24:33.899,30.5001,43.6877
13:24:33.906,28.1876,41.9377
13:24:33.914,27.3751,40.6252
13:24:33.925,26.1251,37.5626
13:24:33.935,25.2501,37.1876
13:24:33.947,24.4376,35.6251
13:24:33.954,22.6876,33.8126
13:24:33.964,21.0001,33.3751
13:24:33.974,19.6251,31.5001
13:24:33.985,18.6876,29.4376
13:24:33.995,17.1876,26.9376
13:24:34.004,15.2501,24.2501
13:24:34.014,13.7501,23.5001
13:24:34.025,13.1251,21.5001
13:24:34.034,11.8125,18.3751
13:24:34.044,10.0625,16.8751
13:24:34.054,9,14.3751
13:24:34.064,7.0625,13.4376
13:24:34.075,5.875,10.75
13:24:34.084,5.3125,7.875
13:24:34.094,3.625,5.5625
13:24:34.105,2.4375,3.625
13:24:34.114,1.4375,1.8125
13:24:34.125,0.3125,-0.6875
13:24:34.137,-1.0625,-3.0625
13:24:34.144,-1.5,-5.5
13:24:34.154,-2.5,-7.125
13:24:34.164,-3.5,-8.8125
13:24:34.175,-4.4375,-11.375
13:24:34.186,-5,-13.5626
13:24:34.194,-6.125,-15.3126
13:24:34.204,-7.5,-16.9376
13:24:34.215,-8.4375,-18.6876
13:24:34.226,-8.9375,-20.6876
13:24:34.234,-10.0625,-22.7501
13:24:34.244,-10.9375,-24.1251
13:24:34.254,-11.1875,-24.2501
13:24:34.265,-12.0625,-25.5626
13:24:34.275,-12.25,-26.6876
13:24:34.284,-13.4376,-29.0626
13:24:34.294,-14.5001,-30.0001
13:24:34.323,-14.7501,-31.2501
13:24:34.326,-16.0001,-32.3751
13:24:34.329,-16.3751,-33.5626
13:24:34.334,-17.3126,-34.9376
13:24:34.360,-17.5626,-35.1251
13:24:34.362,-18.1876,-36.3126
13:24:34.364,-18.6876,-36.5626
13:24:34.374,-18.9376,-38.1251
13:24:34.406,-20.3126,-39.2501
13:24:34.410,-21.8751,-41.0627
13:24:34.410,-21.5626,-41.5002
13:24:34.448,-20.7501,-42.7502
13:24:34.450,-20.1251,-41.1877
13:24:34.452,-16.5001,-37.8126
13:24:34.456,-11.625,-32.1251
13:24:34.457,-6.0625,-22.1251
13:24:34.485,0,-11.4375
13:24:34.487,5.5625,-0.3125
13:24:34.490,10.8125,8.4375
13:24:34.495,15.0001,18.1876
13:24:34.506,19.0001,24.2501
13:24:34.514,21.6876,31.0001
13:24:34.524,24.2501,33.6876
13:24:34.549,26.1876,37.4376
13:24:34.553,26.0626,39.1251
13:24:34.555,28.5001,41.5002
13:24:34.570,28.1876,42.9377
13:24:34.579,29.6876,44.6252
13:24:34.590,29.3751,46.1877
13:24:34.600,30.5001,47.1252
13:24:34.609,31.3751,48.9377
13:24:34.619,32.8751,51.4377
13:24:34.629,32.8751,52.8127
13:24:34.641,34.0626,53.5627
13:24:34.651,33.7501,55.4377
13:24:34.659,32.6251,54.9377
13:24:34.670,32.6251,51.9377
13:24:34.680,30.3126,50.5002
13:24:34.690,29.2501,48.0627
13:24:34.699,27.7501,46.0627
13:24:34.709,27.0626,44.1252
13:24:34.720,26.2501,43.0627
13:24:34.729,25.7501,42.9377
13:24:34.739,25.5001,42.2502
13:24:34.749,26.0001,41.2502
13:24:34.759,24.6876,40.5627
13:24:34.770,24.1251,39.6877
13:24:34.781,23.4376,39.6252
13:24:34.789,23.0626,39.5627
13:24:34.799,22.6251,37.2501
13:24:34.809,22.1251,36.1251
13:24:34.819,20.5001,33.6251
13:24:34.831,18.6251,31.1251
13:24:34.840,17.1251,30.0626
13:24:34.849,16.2501,27.4376
13:24:34.859,15.0001,25.3751
13:24:34.870,13.1876,22.3751
13:24:34.881,12,20.6251
13:24:34.890,10.4375,18.8751
13:24:34.899,9.6875,15.8751
13:24:34.910,8.3125,13.5001
13:24:34.921,7.1875,11.9375
13:24:34.929,6.4375,9.625
13:24:34.939,5.3125,6.8125
13:24:34.961,3.625,6.0625
13:24:34.966,2.6875,3.125
13:24:34.974,1.6875,-0.0625
13:24:34.980,1,-1.5
13:24:34.998,-0.5,-2.5
13:24:35.004,-1,-5.3125
13:24:35.014,-1.875,-7.25
13:24:35.020,-3.125,-9.1875
13:24:35.030,-3.6875,-9.875
13:24:35.057,-4.1875,-11.9375
13:24:35.058,-4.375,-13.2501
13:24:35.060,-5.625,-15.3126
13:24:35.091,-6,-16.6876
13:24:35.093,-6.375,-17.2501
13:24:35.099,-7.1875,-18.9376
13:24:35.101,-7.5,-20.7501
13:24:35.136,-8.75,-22.4376
13:24:35.137,-10.0625,-23.1251
13:24:35.138,-11.0625,-23.7501
13:24:35.141,-11.0625,-25.5001
13:24:35.182,-12.3125,-28.2501
13:24:35.185,-12.6875,-29.1876
13:24:35.216,-13.6251,-31.1251
13:24:35.228,-14.5001,-32.4376
13:24:35.243,-14.8126,-33.9376
13:24:35.245,-16.3751,-35.3751
13:24:35.245,-17.1251,-36.1876
13:24:35.245,-17.1251,-38.4376
13:24:35.259,-17.1876,-38.1251
13:24:35.261,-15.5001,-35.7501
13:24:35.265,-11.5625,-30.8126
13:24:35.271,-6.4375,-22.1876
13:24:35.281,-1.375,-13.6876
13:24:35.289,4.8125,-2.9375
13:24:35.299,10.5,6.5625
13:24:35.310,14.6876,15.3751
13:24:35.322,19.5626,23.2501
13:24:35.329,21.9376,29.5001
13:24:35.339,23.3751,32.8751
13:24:35.349,24.8751,36.8126
13:24:35.363,25.8126,38.7501
13:24:35.369,26.1876,40.6877
13:24:35.379,27.3751,42.3752
13:24:35.389,27.4376,42.6252
13:24:35.402,29.3126,46.6877
13:24:35.409,30.3751,48.8127
13:24:35.419,31.0001,49.8127
13:24:35.430,32.4376,51.8127
13:24:35.440,31.8126,53.4377
13:24:35.449,32.6876,53.7502
13:24:35.459,31.9376,53.3752
13:24:35.469,31.1251,52.5627
13:24:35.479,29.6251,51.3127
13:24:35.489,28.0001,49.1877
13:24:35.499,26.8126,45.7502
13:24:35.509,24.6251,44.5002
13:24:35.522,23.3751,41.3127
13:24:35.529,22.5626,39.3127
13:24:35.539,21.6251,38.5626
13:24:35.549,21.0001,37.6251
13:24:35.560,20.8751,37.2501
13:24:35.569,20.5001,36.1876
13:24:35.579,19.8751,36.1251
13:24:35.589,19.9376,35.3751
13:24:35.600,19.1876,34.3751
13:24:35.610,18.5626,32.7501
13:24:35.619,17.0626,32.8751
13:24:35.630,16.1251,30.0626
13:24:35.639,15.1251,28.0001
13:24:35.649,13.7501,25.8126
13:24:35.661,12.4375,24.6251
13:24:35.669,11,21.8126
13:24:35.679,9.75,18.4376
13:24:35.689,9.0625,16.6251
13:24:35.704,8.5,14.2501
13:24:35.709,7.25,12.0625
13:24:35.722,5.9375,10.75
13:24:35.760,4.9375,8.5625
13:24:35.761,3.875,5.4375
13:24:35.763,2.5625,3.9375
13:24:35.765,2.125,1.0625
13:24:35.772,0.3125,-1.375
13:24:35.800,-1.3125,-2.8125
13:24:35.803,-2.1875,-4.875
13:24:35.805,-3.625,-7.625
13:24:35.833,-4.5,-10.5
13:24:35.836,-6.125,-10.875
13:24:35.838,-7.1875,-13.8751
13:24:35.845,-7.625,-16.2501
13:24:35.862,-9.1875,-17.2501
13:24:35.863,-10,-19.4376
13:24:35.889,-10.625,-21.1876
13:24:35.892,-11.9375,-23.8751
13:24:35.894,-12.875,-24.1251
13:24:35.906,-13.7501,-25.9376
13:24:35.915,-14.3126,-27.4376
13:24:35.924,-14.8751,-29.2501
13:24:35.935,-16.6876,-31.4376
13:24:35.946,-17.6251,-32.6251
13:24:35.954,-18.6876,-35.2501
13:24:35.966,-19.5001,-36.2501
13:24:35.974,-20.1251,-38.2501
13:24:35.985,-21.1251,-40.0002
13:24:35.995,-21.2501,-40.6877
13:24:36.004,-22.8751,-43.3127
13:24:36.015,-23.2501,-44.5627
13:24:36.025,-24.0626,-45.5627
13:24:36.034,-25.6251,-47.3752
13:24:36.044,-26.9376,-49.5627
13:24:36.055,-28.1251,-52.3752
13:24:36.064,-28.5001,-53.6877
13:24:36.079,-29.1876,-54.0002
13:24:36.085,-28.2501,-53.0627
13:24:36.094,-25.0626,-49.0627
13:24:36.104,-20.1876,-43.0002
13:24:36.114,-14.0001,-33.1876
13:24:36.125,-8.625,-22.8751
13:24:36.136,-2.75,-13
13:24:36.144,2.9375,-3.375
13:24:36.154,6.5625,5.5
13:24:36.164,10.5,11.375
13:24:36.174,13.1251,17.0626
13:24:36.187,14.3126,20.7501
13:24:36.196,15.8751,22.8751
13:24:36.205,16.3751,25.1876
13:24:36.215,17.2501,26.1251
13:24:36.228,18.0626,27.5626
13:24:36.234,18.0626,29.8751
13:24:36.244,19.5001,30.3751
13:24:36.254,19.8126,33.0626
13:24:36.264,20.7501,34.8126
13:24:36.274,22.5001,36.2501
13:24:36.289,22.3751,37.7501
13:24:36.298,23.4376,39.0001
13:24:36.304,23.6251,40.3752
13:24:36.322,23.3126,39.3126
13:24:36.327,22.8126,39.0001
13:24:36.336,20.6251,36.6251
13:24:36.346,19.5001,35.8126
13:24:36.354,17.8751,31.8751
13:24:36.365,16.8751,29.7501
13:24:36.377,15.8126,29.1876
13:24:36.384,15.6251,27.5626
13:24:36.394,14.5626,26.0626
13:24:36.404,13.4376,24.9376
13:24:36.416,13.1876,25.6251
13:24:36.424,14.1251,24.6251
13:24:36.434,13.1251,23.6251
13:24:36.444,11.5625,22.5626
13:24:36.455,11.5625,22.6251
13:24:36.464,11.125,21.0001
13:24:36.474,9.25,18.7501
13:24:36.484,7.625,17.0626
13:24:36.494,6.3125,15.6251
13:24:36.505,5.4375,14.4376
13:24:36.514,4.6875,11.6875
13:24:36.554,3.125,9.0625
13:24:36.585,1.125,7.3125
13:24:36.618,0.9375,5.125
13:24:36.618,-1.3125,2.25
13:24:36.619,-2.625,-1.0625
13:24:36.657,-3.75,-2.5
13:24:36.658,-5.0625,-5.3125
13:24:36.688,-6.625,-8.125
13:24:36.688,-8.125,-10.375
13:24:36.691,-9.25,-11.4375
13:24:36.692,-9.1875,-13.5001
13:24:36.710,-11.125,-16.1251
13:24:36.712,-12.8125,-17.2501
13:24:36.713,-13.1876,-20.0626
13:24:36.716,-14.3126,-22.5001
13:24:36.725,-15.3751,-23.3126
13:24:36.734,-16.1876,-24.8126
13:24:36.745,-16.5626,-26.6876
13:24:36.754,-17.6876,-28.4376
13:24:36.764,-18.1251,-30.1251
13:24:36.775,-19.1251,-32.5001
13:24:36.786,-19.5626,-32.5001
13:24:36.794,-20.6251,-35.3126
13:24:36.805,-21.3126,-37.4376
13:24:36.816,-22.2501,-38.3751
13:24:36.829,-29.2501,-50.1877
13:24:36.835,-29.6251,-52.6877
13:24:36.848,-30.6251,-52.9377
13:24:36.855,-30.4376,-54.7502
13:24:36.864,-31.3126,-55.7502
13:24:36.876,-32.1251,-58.0627
13:24:36.884,-32.3126,-58.1877
13:24:36.894,-33.2501,-59.9377
13:24:36.906,-34.4376,-61.6252
13:24:36.914,-34.6251,-62.8752
13:24:36.925,-36.0626,-63.6252
13:24:36.934,-36.3126,-65.4378
13:24:36.946,-36.8126,-66.1878
13:24:36.955,-35.2501,-66.3128
13:24:36.965,-34.0626,-63.3752
13:24:36.974,-29.0626,-57.3752
13:24:36.986,-24.5626,-49.1252
13:24:36.995,-18.1251,-39.5002
13:24:37.005,-11.3125,-29.6251
13:24:37.016,-6.8125,-20.0626
13:24:37.024,-1.5,-11.4375
13:24:37.034,0.9375,-4.5
13:24:37.046,4.4375,1.0625
13:24:37.054,6.1875,5.9375
13:24:37.065,7,7.4375
13:24:37.074,8.25,10.375
13:24:37.084,7.875,11.875
13:24:37.109,8.375,11.3125
13:24:37.112,9.5,12.5
13:24:37.117,8.625,13.3126
13:24:37.124,9.625,13.1251
13:24:37.134,10.4375,14.9376
13:24:37.144,9.8125,16.8751
13:24:37.157,11.3125,17.0626
13:24:37.168,12.125,18.6251
13:24:37.194,11.375,19.6251
13:24:37.197,11.25,18.0001
13:24:37.199,10.8125,18.1876
13:24:37.205,9.4375,16.4376
13:24:37.245,8.5,14.8126
13:24:37.246,7.5625,13.3126
13:24:37.248,6.875,12.1875
13:24:37.293,6.0625,10.9375
13:24:37.293,5.125,10.4375
13:24:37.293,5.5625,9.9375
13:24:37.293,5,9.1875
13:24:37.294,4.75,9.875
13:24:37.302,5.75,9.125
13:24:37.305,4.125,8.375
13:24:37.342,3.125,9.3125
13:24:37.344,3.5625,7.625
13:24:37.351,3.3125,6.25
13:24:37.351,2.125,4.4375
13:24:37.365,1.125,2.9375
13:24:37.366,-0.3125,2.1875
13:24:37.374,-0.5625,-0.125
13:24:37.386,-2.5625,-2.25
13:24:37.395,-4.0625,-2.8125
13:24:37.406,-4.125,-5.3125
13:24:37.414,-5.6875,-7.5
13:24:37.425,-7.0625,-9.9375
13:24:37.434,-7.75,-11.625
13:24:37.446,-8.5625,-13.5001
13:24:37.454,-9.25,-14.8751
13:24:37.465,-10.875,-16.3126
13:24:37.474,-11.0625,-17.7501
13:24:37.486,-11.4375,-19.9376
13:24:37.494,-12.5,-22.1251
13:24:37.506,-13.6251,-24.1251
13:24:37.517,-14.8126,-25.8126
13:24:37.526,-15.7501,-27.3126
13:24:37.534,-17.1251,-29.8126
13:24:37.547,-17.8126,-31.1876
13:24:37.554,-18.6251,-33.3126
13:24:37.565,-19.4376,-33.9376
13:24:37.574,-20.3126,-36.5001
13:24:37.586,-21.0626,-37.3751
13:24:37.595,-21.5001,-39.9377
13:24:37.612,-22.4376,-40.1252
13:24:37.627,-23.0001,-42.0627
13:24:37.628,-23.5626,-42.7502
13:24:37.643,-24.3751,-44.4377
13:24:37.645,-25.4376,-45.4377
13:24:37.661,-25.9376,-48.0002
13:24:37.666,-26.4376,-47.3127
13:24:37.674,-26.9376,-49.8127
13:24:37.684,-27.8126,-50.8127
13:24:37.694,-28.3751,-52.8752
13:24:37.705,-29.1876,-53.6252
13:24:37.714,-30.3126,-55.5627
13:24:37.724,-30.3751,-56.0627
13:24:37.739,-31.4376,-57.8127
13:24:37.745,-32.3126,-59.4377
13:24:37.754,-33.0001,-60.8127
13:24:37.766,-34.3126,-61.8752
13:24:37.776,-34.3751,-63.5627
13:24:37.784,-35.1251,-65.0002
13:24:37.795,-35.6876,-65.2502
13:24:37.806,-34.0001,-63.5627
13:24:37.814,-31.2501,-60.3752
13:24:37.825,-26.7501,-53.1877
13:24:37.835,-21.0001,-45.0002
13:24:37.845,-16.0001,-35.9376
13:24:37.858,-10.4375,-27.0001
13:24:37.864,-6.0625,-18.4376
13:24:37.875,-2.75,-11.625
13:24:37.886,0.4375,-5.5
13:24:37.901,2.3125,-0.6875
13:24:37.917,4,2.9375
13:24:37.919,4.6875,4.625
13:24:37.934,5.6875,6.875
13:24:37.939,5.6875,7.6875
13:24:37.953,6.375,8.6875
13:24:37.955,6.8125,10
13:24:37.986,6.3125,11.125
13:24:37.989,7.75,11.4375
13:24:37.992,7.875,13.3751
13:24:38.021,9.1875,14.1876
13:24:38.021,9.75,15.3751
13:24:38.024,10.1875,16.7501
13:24:38.029,10.5625,17.0626
13:24:38.041,10.0625,17.5001
13:24:38.045,9.6875,16.1876
13:24:38.087,8.4375,14.9376
13:24:38.090,8.125,14.0001
13:24:38.090,7.4375,11.9375
13:24:38.097,6.375,10.5625
13:24:38.098,4.9375,8.6875
13:24:38.107,3.8125,9.0625
13:24:38.145,3.6875,8.4375
13:24:38.149,4.125,7.25
13:24:38.149,3.5625,6.125
13:24:38.152,3.1875,6.875
13:24:38.158,3.4375,7
13:24:38.165,3.125,5.6875
13:24:38.175,2.1875,4.4375
13:24:38.185,1.125,3.625
13:24:38.195,1.375,2.6875
13:24:38.206,-0.4375,1.5
13:24:38.214,-0.875,-0.25
13:24:38.226,-1.8125,-2.25
13:24:38.235,-3.6875,-3.9375
13:24:38.246,-5.0625,-5.125
13:24:38.256,-5.375,-7.6875
13:24:38.264,-7.25,-10.125
13:24:38.276,-8.6875,-11.0625
13:24:38.284,-9.8125,-13.5626
13:24:38.295,-10.3125,-15.6251
13:24:38.304,-11.75,-17.7501
13:24:38.315,-13,-19.9376
13:24:38.324,-13.8126,-21.7501
13:24:38.338,-14.8751,-24.5001
13:24:38.345,-15.9376,-25.6876
13:24:38.354,-17.6251,-27.1251
13:24:38.365,-18.1876,-29.6876
13:24:38.391,-19.0001,-32.0626
13:24:38.394,-19.5626,-32.3751
13:24:38.397,-20.8751,-35.1251
13:24:38.405,-21.7501,-36.3751
13:24:38.416,-22.5626,-36.8126
13:24:38.426,-22.6251,-38.8126
13:24:38.434,-24.1876,-40.1252
13:24:38.446,-24.3751,-42.1877
13:24:38.454,-25.6251,-42.5002
13:24:38.466,-26.0001,-45.7502
13:24:38.476,-27.1251,-45.5002
13:24:38.485,-27.0626,-47.6877
13:24:38.496,-27.7501,-48.0627
13:24:38.506,-29.0001,-49.7502
13:24:38.514,-28.8751,-51.3752
13:24:38.525,-29.9376,-51.8127
13:24:38.540,-30.9376,-53.3127
13:24:38.545,-30.8126,-55.0627
13:24:38.554,-31.7501,-55.3127
13:24:38.566,-32.6251,-57.5002
13:24:38.574,-32.7501,-58.4377
13:24:38.585,-33.8751,-60.0627
13:24:38.595,-33.6251,-61.0002
13:24:38.604,-34.8751,-62.1877
13:24:38.614,-35.5001,-63.5627
13:24:38.626,-35.8751,-65.0003
13:24:38.643,-36.6876,-66.1878
13:24:38.650,-36.8751,-66.6253
13:24:38.681,-38.2501,-68.7503
13:24:38.683,-37.6251,-68.5003
13:24:38.686,-36.1876,-67.0628
13:24:38.693,-33.5626,-62.3127
13:24:38.720,-28.2501,-55.7502
13:24:38.722,-23.0626,-46.6252
13:24:38.724,-17.1251,-37.3126
13:24:38.731,-12.3125,-27.8751
13:24:38.756,-7.125,-19.0626
13:24:38.758,-3.4375,-11.6875
13:24:38.760,0.0625,-5.3125
13:24:38.788,1.9375,0
13:24:38.790,3.875,3.5
13:24:38.793,4.375,5.1875
13:24:38.800,5.875,8.9375
13:24:38.821,5.6875,9.4375
13:24:38.825,6.6875,10.625
13:24:38.831,6.6875,11.0625
13:24:38.839,7.5625,12.4375
13:24:38.851,7.75,13.5626
13:24:38.859,9,14.4376
13:24:38.872,9.4375,16.0626
13:24:38.880,10.625,17.4376
13:24:38.889,11.125,18.6251
13:24:38.900,11.3125,19.0626
13:24:38.916,11.25,18.5001
13:24:38.930,9.1875,17.6876
13:24:38.945,8.3125,16.8126
13:24:38.950,8.9375,15.5626
13:24:38.978,7.5,13.5626
13:24:38.979,6.375,13.1876
13:24:38.982,6.5,12.3125
13:24:38.986,5.75,10.75
13:24:38.992,4.9375,11.9375
13:24:39.000,6.125,11.3125
13:24:39.011,5.5,10.6875
13:24:39.021,5.25,11.125
13:24:39.031,5.0625,9.875
13:24:39.040,4.75,10.125
13:24:39.052,4.375,8.625
13:24:39.060,4.0625,9
13:24:39.071,3.5,7.25
13:24:39.080,2,6.5
13:24:39.093,0.5,4.875
13:24:39.099,0.0625,2.3125
13:24:39.111,-0.8125,0.875
13:24:39.120,-1.625,-0.25
13:24:39.130,-2.9375,-2.3125
13:24:39.141,-3.875,-3.5625
13:24:39.149,-5.125,-5.0625
13:24:39.159,-6,-7.8125
13:24:39.171,-7.5625,-9.375
13:24:39.179,-8.3125,-12.125
13:24:39.191,-9.25,-12.6875
13:24:39.200,-9.4375,-15.7501
13:24:39.218,-11.5,-16.2501
13:24:39.221,-12.0625,-19.3126
13:24:39.235,-12.8125,-20.6876
13:24:39.250,-13.3126,-21.5626
13:24:39.252,-14.8751,-24.8126
13:24:39.264,-15.0001,-25.4376
13:24:39.270,-16.1876,-28.0001
13:24:39.281,-17.0626,-28.8126
13:24:39.296,-18.2501,-28.7501
13:24:39.300,-18.5001,-31.8126
13:24:39.310,-19.0626,-33.1251
13:24:39.322,-20.3751,-33.6876
13:24:39.329,-20.5001,-36.1876
13:24:39.340,-21.3751,-36.5626
13:24:39.353,-21.9376,-38.8126
13:24:39.359,-22.0001,-39.3127
13:24:39.370,-22.6876,-40.5627
13:24:39.382,-23.8126,-41.5627
13:24:39.390,-23.8751,-42.0627
13:24:39.400,-25.0626,-44.0627
13:24:39.412,-24.3751,-44.3127
13:24:39.424,-26.2501,-46.1252
13:24:39.430,-25.7501,-46.6877
13:24:39.440,-27.0626,-48.0002
13:24:39.451,-27.1251,-49.5002
13:24:39.461,-26.8751,-50.3127
13:24:39.496,-29.3126,-50.6877
13:24:39.497,-29.4376,-53.4377
13:24:39.500,-29.1251,-53.8752
13:24:39.504,-30.8751,-55.3752
13:24:39.540,-31.4376,-56.4377
13:24:39.542,-31.8751,-56.7502
13:24:39.545,-32.5001,-58.8127
13:24:39.546,-30.8751,-57.6252
13:24:39.553,-29.6876,-53.8752
13:24:39.560,-24.6876,-49.5627
13:24:39.592,-19.3751,-41.1252
13:24:39.596,-14.5001,-31.5001
13:24:39.597,-8.9375,-22.0001
13:24:39.600,-3.4375,-11.5625
13:24:39.629,1.5,-2.5625
13:24:39.632,5,4.25
13:24:39.633,7.5,10.3125
13:24:39.668,9.8125,14.3751
13:24:39.671,10.625,17.3751
13:24:39.673,11.6875,19.5001
13:24:39.678,11.25,20.1876
13:24:39.682,11.375,20.4376
13:24:39.693,12,20.1251
13:24:39.700,11.9375,21.1251
13:24:39.710,11.9375,21.5001
13:24:39.721,12.875,21.7501
13:24:39.730,12.75,22.8126
13:24:39.740,14.0626,24.0001
13:24:39.750,13.0625,24.7501
13:24:39.760,13.5626,24.6876
13:24:39.772,12.625,24.3751
13:24:39.782,12.1875,24.0626
13:24:39.790,11.8125,22.4376
13:24:39.801,11.25,20.6251
13:24:39.810,9.9375,20.0626
13:24:39.819,9.8125,19.5626
13:24:39.830,10.3125,18.5626
13:24:39.840,9.75,18.3126
13:24:39.849,9.75,19.3126
13:24:39.862,10.25,18.7501
13:24:39.870,9.8125,19.0001
13:24:39.883,9.5625,19.5626
13:24:39.890,9.5,18.7501
13:24:39.900,8.875,18.0001
13:24:39.911,8.6875,17.3126
13:24:39.921,8.75,16.3751
13:24:39.930,7.4375,15.1876
13:24:39.940,6.6875,13.6876
13:24:39.952,5.875,12.0625
13:24:39.960,4.6875,11.25
13:24:39.971,3.5625,8.5
13:24:39.980,2.5,7.0625
13:24:39.990,1.75,5.0625
13:24:40.000,-0.0625,3.375
13:24:40.010,-0.6875,2.5625
13:24:40.020,-1.3125,0
13:24:40.031,-3.125,-1.4375
13:24:40.042,-3.6875,-4
13:24:40.050,-5.0625,-6.125
13:24:40.065,-6.25,-8.0625
13:24:40.070,-7.0625,-10.5625
13:24:40.080,-8.25,-11.25
13:24:40.091,-8.625,-14.0001
13:24:40.100,-9.5625,-14.4376
13:24:40.111,-10.5625,-17.3751
13:24:40.121,-11.8125,-19.0001
13:24:40.134,-12.3125,-20.6876
13:24:40.140,-12.9375,-22.5001
13:24:40.167,-13.6251,-24.1251
13:24:40.169,-14.3751,-24.6876
13:24:40.171,-15.0001,-26.6876
13:24:40.202,-16.1876,-28.1251
13:24:40.206,-16.3751,-29.0626
13:24:40.207,-16.7501,-29.6251
13:24:40.238,-17.8751,-31.0001
13:24:40.269,-17.1251,-32.4376
13:24:40.273,-18.9376,-32.8126
13:24:40.274,-19.1876,-35.1251
13:24:40.280,-19.1251,-36.2501
13:24:40.280,-20.6876,-37.0626
13:24:40.280,-20.6251,-38.5001
13:24:40.285,-21.4376,-39.2501
13:24:40.313,-22.9376,-41.2502
13:24:40.316,-22.5001,-42.3127
13:24:40.318,-23.8751,-43.0627
13:24:40.331,-24.2501,-45.0627
13:24:40.337,-25.1251,-45.4377
13:24:40.346,-25.1251,-47.4377
13:24:40.356,-24.0626,-45.5627
13:24:40.366,-21.1876,-41.9377
13:24:40.375,-16.1876,-34.9376
13:24:40.387,-11.5,-26.2501
13:24:40.396,-5.625,-16.8126
13:24:40.405,0.0625,-7
13:24:40.416,5,1.75
13:24:40.426,8.875,9.625
13:24:40.441,11.8125,15.6251
13:24:40.445,13.6876,19.8751
13:24:40.456,15.4376,24.1251
13:24:40.466,15.8126,26.1876
13:24:40.475,16.4376,28.0626
13:24:40.486,16.2501,28.2501
13:24:40.496,17.1876,28.8751
13:24:40.506,17.0001,29.0626
13:24:40.516,17.1251,29.8126
13:24:40.537,18.4376,30.6876
13:24:40.539,17.6876,32.0001
13:24:40.554,19.1251,33.1876
13:24:40.556,18.6876,34.1876
13:24:40.566,19.6251,34.6876
13:24:40.575,19.6876,34.3126
13:24:40.586,18.5626,33.9376
13:24:40.596,18.0626,33.7501
13:24:40.605,17.5001,31.6251
13:24:40.617,15.9376,29.5001
13:24:40.626,14.6251,28.3126
13:24:40.636,14.1251,27.3751
13:24:40.648,13.5626,25.0001
13:24:40.656,13.5001,25.5626
13:24:40.667,13.2501,24.3126
13:24:40.679,13,24.3751
13:24:40.685,12.75,24.8751
13:24:40.696,13.1251,24.1876
13:24:40.705,12.3125,23.1876
13:24:40.716,11.625,22.5001
13:24:40.726,11.9375,21.6876
13:24:40.737,10.625,21.0626
13:24:40.746,9.8125,19.1251
13:24:40.756,8.8125,17.0626
13:24:40.765,7.8125,16.0001
13:24:40.775,7.0625,13.9376
13:24:40.786,6.0625,11.5625
13:24:40.796,5.5,10.5625
13:24:40.805,3.5625,8.0625
13:24:40.816,2.6875,6.3125
13:24:40.826,1.1875,4.5
13:24:40.836,0.8125,2.4375
13:24:40.847,-1.1875,-0.1875
13:24:40.856,-1.6875,-1.625
13:24:40.866,-3.0625,-4.25
13:24:40.876,-3.6875,-6.1875
13:24:40.885,-5.6875,-7.5625
13:24:40.895,-6.0625,-9.875
13:24:40.906,-7.3125,-11.125
13:24:40.922,-7.8125,-13.1251
13:24:40.948,-9.1875,-14.7501
13:24:40.953,-10.25,-16.5626
13:24:40.954,-10.75,-19.0626
13:24:40.955,-12.0625,-19.5626
13:24:40.985,-12.4375,-22.0626
13:24:40.988,-12.75,-24.1876
13:24:40.990,-14.1251,-25.0001
13:24:41.017,-13.5626,-26.3126
13:24:41.018,-14.6876,-27.2501
13:24:41.021,-15.1251,-28.5001
13:24:41.026,-16.0001,-29.7501
13:24:41.057,-16.6876,-31.1251
13:24:41.059,-17.0001,-32.3126
13:24:41.061,-18.0001,-34.8751
13:24:41.066,-18.3126,-34.8126
13:24:41.091,-19.1251,-36.8751
13:24:41.093,-19.1251,-38.1251
13:24:41.097,-20.6876,-37.5626
13:24:41.105,-20.7501,-40.3127
13:24:41.117,-22.0001,-40.3127
13:24:41.125,-22.4376,-42.5627
13:24:41.135,-22.1876,-43.9377
13:24:41.146,-23.9376,-45.0002
13:24:41.155,-23.7501,-46.8127
13:24:41.165,-25.1251,-47.4377
13:24:41.178,-23.6876,-47.6877
13:24:41.192,-21.8751,-44.8127
13:24:41.195,-18.1876,-39.9377
13:24:41.208,-12.9375,-31.2501
13:24:41.216,-7.5625,-22.2501
13:24:41.227,-1.5625,-12.1875
13:24:41.235,3.3125,-2.4375
13:24:41.245,8.0625,5.5
13:24:41.257,11.375,13.1876
13:24:41.266,14.5626,19.0626
13:24:41.276,16.4376,22.9376
13:24:41.286,17.5626,25.7501
13:24:41.296,17.7501,27.5626
13:24:41.305,19.2501,28.5626
13:24:41.316,18.5001,29.4376
13:24:41.325,19.0001,30.2501
13:24:41.335,18.9376,31.0626
13:24:41.347,20.1251,32.1876
13:24:41.355,20.5001,33.0001
13:24:41.365,20.6251,35.0626
13:24:41.377,21.7501,35.6251
13:24:41.385,21.6876,37.5626
13:24:41.395,23.1251,38.1251
13:24:41.409,22.4376,37.3751
13:24:41.415,21.6251,36.7501
13:24:41.426,20.6251,36.8126
13:24:41.435,19.8751,34.5626
13:24:41.446,19.2501,32.2501
13:24:41.455,18.1251,31.5626
13:24:41.465,17.0626,30.6251
13:24:41.475,17.3126,29.1876
13:24:41.487,16.3751,28.0001
13:24:41.495,16.3126,27.8126
13:24:41.505,15.7501,27.8751
13:24:41.516,15.8751,27.1251
13:24:41.525,15.8751,26.4376
13:24:41.548,15.0626,26.3126
13:24:41.550,15.0001,25.3751
13:24:41.590,13.5626,24.8751
13:24:41.592,13,23.7501
13:24:41.617,12.625,21.7501
13:24:41.617,11.75,21.2501
13:24:41.618,11.25,19.1251
13:24:41.622,9.6875,17.0001
13:24:41.649,8.5,15.7501
13:24:41.653,7.875,13.8126
13:24:41.654,6.625,11.875
13:24:41.661,5.6875,9.625
13:24:41.663,4.6875,7.9375
13:24:41.670,2.875,5.9375
13:24:41.701,1.75,4.625
13:24:41.704,0.875,1.9375
13:24:41.706,0.0625,0.0625
13:24:41.712,-1.0625,-1.875
13:24:41.740,-1.75,-3.5625
13:24:41.745,-2.875,-4.5625
13:24:41.745,-4.5,-7.25
13:24:41.752,-4.9375,-9.75
13:24:41.761,-6.25,-11.6875
13:24:41.770,-6.75,-13.5001
13:24:41.780,-7.8125,-14.3751
13:24:41.793,-8.9375,-16.3126
13:24:41.800,-9.125,-17.0001
13:24:41.811,-10.5,-19.1251
13:24:41.833,-10.4375,-20.4376
13:24:41.835,-11.25,-21.5626
13:24:41.851,-11.625,-22.6251
13:24:41.853,-12.5625,-23.3751
13:24:41.861,-12.875,-24.1251
13:24:41.874,-13.2501,-26.3751
13:24:41.881,-13.5626,-27.1251
13:24:41.891,-15.0626,-28.9376
13:24:41.901,-15.0001,-29.8126
13:24:41.911,-15.5001,-30.5001
13:24:41.923,-16.5626,-32.6876
13:24:41.932,-16.9376,-33.1876
13:24:41.940,-17.8126,-33.8126
13:24:41.950,-18.5001,-35.5626
13:24:41.961,-18.5626,-37.0626
13:24:41.972,-19.8751,-38.5626
13:24:41.981,-20.3751,-40.1877
13:24:41.990,-21.1251,-41.0627
13:24:42.004,-21.5001,-42.4377
13:24:42.010,-21.3126,-41.6877
13:24:42.022,-18.9376,-40.3127
13:24:42.031,-15.6876,-34.7501
13:24:42.040,-11.0625,-26.8126
13:24:42.050,-5.375,-17.3126
13:24:42.061,-0.0625,-8.375
13:24:42.070,5.3125,3.25
13:24:42.081,9.9375,10.875
13:24:42.091,13.4376,17.8126
13:24:42.100,16.7501,23.1876
13:24:42.118,17.7501,28.1251
13:24:42.120,19.3126,29.3751
13:24:42.131,19.4376,32.0626
13:24:42.140,19.8751,32.5001
13:24:42.150,20.3126,33.3126
13:24:42.162,20.1876,34.3751
13:24:42.170,21.0001,34.3126
13:24:42.181,21.2501,35.5626
13:24:42.192,21.7501,35.5626
13:24:42.202,21.7501,36.9376
13:24:42.228,23.0001,38.5626
13:24:42.230,23.1251,39.4377
13:24:42.233,23.1876,40.0627
13:24:42.241,23.0001,39.5627
13:24:42.251,22.3751,38.3751
13:24:42.261,21.1251,37.0001
13:24:42.270,20.1251,36.6251
13:24:42.282,19.8751,34.6251
13:24:42.292,19.3751,32.8751
13:24:42.301,18.8126,32.2501
13:24:42.311,17.8751,32.3126
13:24:42.321,18.5626,31.6876
13:24:42.331,18.5001,31.5626
13:24:42.341,18.6251,31.4376
13:24:42.372,17.9376,31.7501
13:24:42.377,18.0626,31.3126
13:24:42.377,17.4376,29.9376
13:24:42.382,16.3751,28.8751
13:24:42.421,15.8751,28.6251
13:24:42.425,14.8126,26.6251
13:24:42.426,14.2501,26.3751
13:24:42.453,13.0625,23.5626
13:24:42.453,11.9375,22.4376
13:24:42.454,11.5625,21.1876
13:24:42.456,10.3125,19.3126
13:24:42.462,8.9375,17.7501
13:24:42.496,7.75,15.4376
13:24:42.498,6.25,13.7501
13:24:42.502,5.75,11.75
13:24:42.528,4.6875,9.5
13:24:42.530,4,7.75
13:24:42.532,2.875,5.1875
13:24:42.536,0.8125,3.75
13:24:42.548,0.4375,2.4375
13:24:42.550,0.125,0.625
13:24:42.562,-1.625,-1.5
13:24:42.570,-2.3125,-3.25
13:24:42.582,-2.75,-5.25
13:24:42.590,-3.9375,-7
13:24:42.600,-4.125,-8.5
13:24:42.610,-5.4375,-9.9375
13:24:42.620,-6.4375,-11.4375
13:24:42.631,-6.6875,-12.8125
13:24:42.640,-7.6875,-14.1876
13:24:42.656,-8.6875,-15.4376
13:24:42.665,-8.875,-17.6251
13:24:42.676,-9.5,-18.5001
13:24:42.686,-10.0625,-19.5001
13:24:42.697,-10.75,-20.3751
13:24:42.706,-11.875,-21.7501
13:24:42.715,-12.4375,-23.8751
13:24:42.728,-12.875,-23.7501
13:24:42.735,-12.9375,-26.2501
13:24:42.746,-13.7501,-27.3126
13:24:42.755,-15.0626,-28.8751
13:24:42.766,-15.3751,-30.3751
13:24:42.778,-16.5001,-31.6876
13:24:42.785,-17.1251,-33.6251
13:24:42.795,-18.0001,-34.4376
13:24:42.805,-18.8751,-37.0001
13:24:42.815,-20.1876,-38.5001
13:24:42.827,-19.3126,-37.8751
13:24:42.844,-17.5001,-35.1251
13:24:42.849,-13.5626,-29.8126
13:24:42.864,-9.1875,-21.6876
13:24:42.866,-3.375,-13.5001
13:24:42.877,2.5625,-2.5
13:24:42.886,8.25,7.5625
13:24:42.896,12.6875,15.1251
13:24:42.909,15.9376,23.0001
13:24:42.915,18.6251,27.6876
13:24:42.926,20.3126,32.6251
13:24:42.935,21.0001,33.9376
13:24:42.946,22.2501,36.6251
13:24:42.955,22.5001,36.8751
13:24:42.966,23.3126,38.8126
13:24:42.975,24.3751,39.5627
13:24:42.987,23.6876,40.3127
13:24:42.996,24.7501,41.8752
13:24:43.006,25.2501,43.1877
13:24:43.016,26.1251,44.0002
13:24:43.026,26.6876,46.2502
13:24:43.037,27.5001,47.0002
13:24:43.045,27.0001,47.9377
13:24:43.055,27.2501,47.6877
13:24:43.066,27.0626,46.8127
13:24:43.076,26.0626,45.1252
13:24:43.086,24.4376,43.7502
13:24:43.096,24.1876,42.1252
13:24:43.105,22.3126,40.0627
13:24:43.121,21.6876,38.3751
13:24:43.151,21.3751,38.6876
13:24:43.154,21.3751,37.5001
13:24:43.187,20.6876,36.6876
13:24:43.187,20.1876,38.0626
13:24:43.188,21.0626,36.2501
13:24:43.189,20.4376,36.1251
13:24:43.214,20.0001,35.4376
13:24:43.216,19.3751,34.6876
13:24:43.216,18.9376,33.6876
13:24:43.218,17.3751,32.5001
13:24:43.250,17.1251,31.4376
13:24:43.257,16.0626,28.6876
13:24:43.259,14.0001,28.2501
13:24:43.261,13.3751,25.8751
13:24:43.273,11.5625,23.5001
13:24:43.277,10.4375,21.1251
13:24:43.285,9.6875,18.7501
13:24:43.295,8.75,17.1876
13:24:43.305,7,15.2501
13:24:43.316,5.75,12.1875
13:24:43.325,5.25,10.3125
13:24:43.335,3.75,9
13:24:43.345,2.5625,6.6875
13:24:43.356,1.5625,5.375
13:24:43.365,0.4375,2.375
13:24:43.376,-0.1875,0.625
13:24:43.385,-1.1875,-1
13:24:43.396,-2.0625,-2.5625
13:24:43.406,-3.125,-4.0625
13:24:43.416,-4.0625,-6.625
13:24:43.425,-4.9375,-8.4375
13:24:43.440,-5.6875,-10.25
13:24:43.445,-5.9375,-11.75
13:24:43.456,-7.4375,-13.2501
13:24:43.466,-7.5625,-14.6251
13:24:43.475,-9.3125,-15.5626
13:24:43.508,-8.9375,-16.8126
13:24:43.510,-9.6875,-18.0626
13:24:43.513,-10.875,-19.3126
13:24:43.515,-11.375,-21.0001
13:24:43.526,-12.1875,-22.2501
13:24:43.535,-12.5,-24.0626
13:24:43.546,-14.0626,-24.7501
13:24:43.555,-13.7501,-26.8751
13:24:43.566,-15.3751,-26.8751
13:24:43.575,-15.0001,-29.5626
13:24:43.586,-16.1251,-30.0626
13:24:43.595,-16.0001,-32.4376
13:24:43.606,-18.2501,-32.1251
13:24:43.616,-18.9376,-35.1876
13:24:43.626,-19.0001,-36.6251
13:24:43.636,-20.4376,-37.8126
13:24:43.645,-20.2501,-39.1251
13:24:43.657,-19.5626,-37.3751
13:24:43.665,-17.3126,-35.6876
13:24:43.678,-13.0625,-28.3751
13:24:43.691,-8.625,-20.6876
13:24:43.695,-2.4375,-11.0625
13:24:43.709,3.25,-1.3125
13:24:43.715,8.625,9.5625
13:24:43.726,13.6876,17.3751
13:24:43.736,16.5001,25.3126
13:24:43.745,19.5001,29.5626
13:24:43.756,20.6251,34.5001
13:24:43.766,22.5626,36.2501
13:24:43.777,23.5001,38.5001
13:24:43.787,23.9376,40.8752
13:24:43.795,24.3751,41.4377
13:24:43.806,25.5001,43.5627
13:24:43.816,25.7501,44.1252
13:24:43.838,26.6876,46.1252
13:24:43.842,27.7501,47.3127
13:24:43.845,28.2501,49.3127
13:24:43.876,29.1251,51.6252
13:24:43.880,29.8751,52.7502
13:24:43.880,29.8751,55.2502
13:24:43.886,30.0001,54.6877
13:24:43.917,29.7501,53.1877
13:24:43.919,28.8126,52.1877
13:24:43.921,27.1876,49.6252
13:24:43.927,26.4376,48.3752
13:24:43.955,25.7501,46.5002
13:24:43.959,24.0001,43.9377
13:24:43.960,22.6876,42.9377
13:24:43.992,22.6876,41.6877
13:24:43.995,22.5001,41.5627
13:24:43.996,22.1876,40.9377
13:24:44.003,21.8126,40.8752
13:24:44.006,22.3126,41.0002
13:24:44.016,21.0626,40.5002
13:24:44.025,20.3126,40.0627
13:24:44.035,20.0001,37.8126
