timestamp,Red,IR
14:17:48.395,30.1564,44.3752
14:17:48.405,28.5939,43.0002
14:17:48.414,27.0001,41.5002
14:17:48.431,26.0001,38.8126
14:17:48.436,23.4688,35.3126
14:17:48.445,20.9063,31.6876
14:17:48.454,18.0313,28.0626
14:17:48.465,14.7813,24.2501
14:17:48.475,13,19.7501
14:17:48.485,10.4375,16.5001
14:17:48.495,9.4375,13.4376
14:17:48.505,8.125,11.9375
14:17:48.529,7.7813,11.1875
14:17:48.533,7.8438,12
14:17:48.535,8.6563,12.375
14:17:48.578,10,13.0625
14:17:48.586,10.7188,15.5626
14:17:48.586,11.625,15.8751
14:17:48.588,12,17.3126
14:17:48.594,12.6875,17.1251
14:17:48.596,11.9063,17.0001
14:17:48.627,12.0625,16.3126
14:17:48.629,9.9063,15.2501
14:17:48.632,9.0313,13.5001
14:17:48.636,7.4688,11.625
14:17:48.671,6.0313,9.1875
14:17:48.674,4.3438,6.125
14:17:48.675,2.2813,4.0625
14:17:48.676,0.7188,0.6875
14:17:48.695,-1,-3
14:17:48.697,-2.5,-5.375
14:17:48.704,-4.1563,-7.0625
14:17:48.715,-5.25,-9.75
14:17:48.725,-6.5938,-11.8125
14:17:48.735,-7.9375,-14.0626
14:17:48.745,-10.25,-15.1251
14:17:48.757,-11,-18.6876
14:17:48.767,-11.875,-20.4376
14:17:48.775,-13.1876,-22.1876
14:17:48.785,-15.1251,-23.6251
14:17:48.795,-15.3751,-26.3126
14:17:48.809,-17.5313,-27.8751
14:17:48.851,-17.5001,-30.6251
14:17:48.853,-19.5938,-31.5001
14:17:48.855,-20.2188,-32.3126
14:17:48.871,-21.2813,-34.1251
14:17:48.875,-22.3751,-36.8751
14:17:48.875,-22.3126,-37.4376
14:17:48.879,-23.5938,-38.4376
14:17:48.886,-24.0313,-39.8752
14:17:48.895,-24.3751,-40.0627
14:17:48.904,-24.5001,-41.2502
14:17:48.916,-23.1876,-40.4377
14:17:48.925,-22.0001,-37.8126
14:17:48.935,-18.8751,-34.5626
14:17:48.945,-12.4688,-26.8126
14:17:48.957,-4.4375,-15.3751
14:17:48.965,3.9063,-1.8125
14:17:48.975,13.3126,11.125
14:17:48.985,22.2188,26.0626
14:17:48.995,30.7814,38.2501
14:17:49.007,36.4376,49.3752
14:17:49.015,41.4377,57.8752
14:17:49.024,44.4064,62.5002
14:17:49.035,45.7502,66.8128
14:17:49.046,45.0002,66.5003
14:17:49.054,44.4064,64.8752
14:17:49.065,41.5002,63.7502
14:17:49.075,39.5627,59.0627
14:17:49.085,37.4689,56.8127
14:17:49.095,34.2814,52.8752
14:17:49.104,33.1876,50.0627
14:17:49.116,31.0939,48.1252
14:17:49.125,29.4689,45.5002
14:17:49.136,27.4064,43.1252
14:17:49.144,25.3126,38.9376
14:17:49.156,21.8438,34.5626
14:17:49.165,18.9376,31.0626
14:17:49.182,15.5626,25.7501
14:17:49.185,13.0625,21.2501
14:17:49.196,10.1875,18.7501
14:17:49.205,8.5625,15.3126
14:17:49.216,7.75,13.8751
14:17:49.226,7.2188,12.875
14:17:49.251,7.4063,13.7501
14:17:49.254,8.0938,13.5001
14:17:49.257,9.4688,15.3126
14:17:49.295,10.7813,16.9376
14:17:49.298,10.9688,18.6876
14:17:49.300,11.625,18.7501
14:17:49.302,10.875,18.8751
14:17:49.308,11.0938,18.1876
14:17:49.321,9.0625,16.8126
14:17:49.327,8.4375,14.6251
14:17:49.356,6.1563,13.0625
14:17:49.358,5.1875,10.125
14:17:49.361,2.6875,8
14:17:49.366,1.2813,5.0625
14:17:49.394,-1.1563,2.75
14:17:49.397,-2.9688,-0.375
14:17:49.399,-5.0625,-3
14:17:49.424,-6.6875,-6.6875
14:17:49.426,-8.6875,-8.8125
14:17:49.429,-10.0625,-11.625
14:17:49.434,-11.8438,-13.6876
14:17:49.446,-13.4063,-15.3751
14:17:49.455,-14.4376,-18.1876
14:17:49.466,-15.9688,-20.6251
14:17:49.475,-16.9688,-21.8126
14:17:49.485,-17.8126,-24.6876
14:17:49.495,-19.2501,-25.4376
14:17:49.505,-20.0001,-27.6251
14:17:49.515,-20.7188,-28.8126
14:17:49.526,-21.5001,-30.3126
14:17:49.535,-23.3438,-32.2501
14:17:49.546,-23.5626,-33.6876
14:17:49.556,-25.2813,-35.3126
14:17:49.566,-25.3126,-37.5001
14:17:49.576,-26.4064,-37.3126
14:17:49.585,-26.8126,-38.6251
14:17:49.595,-26.3751,-39.1251
14:17:49.605,-26.9064,-39.5002
14:17:49.615,-26.4064,-40.6252
14:17:49.626,-27.1876,-40.0002
14:17:49.635,-26.3751,-41.1252
14:17:49.646,-24.9376,-40.1252
14:17:49.656,-23.2813,-36.6876
14:17:49.665,-18.1563,-31.8126
14:17:49.675,-10.375,-21.2501
14:17:49.686,-1.4375,-8
14:17:49.695,8.9375,6.3125
14:17:49.706,18.0313,22.6876
14:17:49.715,27.6876,35.8751
14:17:49.725,34.6564,49.6252
14:17:49.736,40.2502,58.8127
14:17:49.745,44.5314,66.2503
14:17:49.757,46.0314,71.1253
14:17:49.765,46.2814,72.3128
14:17:49.776,45.2502,72.4378
14:17:49.786,43.0939,69.5628
14:17:49.796,41.3752,67.3753
14:17:49.805,39.6564,64.9377
14:17:49.817,36.6251,61.8752
14:17:49.827,35.1876,58.8752
14:17:49.837,33.4376,56.7502
14:17:49.846,31.8439,53.8752
14:17:49.857,30.3439,52.6877
14:17:49.867,28.3751,49.4377
14:17:49.877,25.4688,46.0002
14:17:49.886,23.8126,42.6252
14:17:49.897,19.7501,37.8126
14:17:49.906,17.1876,33.5001
14:17:49.916,14.1563,29.1876
14:17:49.932,12.5313,26.1251
14:17:49.938,10.3125,22.8126
14:17:49.946,10.1563,22.6876
14:17:49.955,9.5938,22.0001
14:17:49.968,10.9375,21.6251
14:17:49.977,11.5313,22.3126
14:17:50.004,12.0313,24.0626
14:17:50.006,13,25.3751
14:17:50.009,13.5001,25.6876
14:17:50.016,13.3751,25.7501
14:17:50.056,12.8125,26.6876
14:17:50.058,12.0625,25.5626
14:17:50.061,11.1875,23.7501
14:17:50.065,9.625,21.2501
14:17:50.067,7.8438,20.0001
14:17:50.083,5.5,17.0626
14:17:50.088,3.7188,13.8126
14:17:50.119,2.0938,10.5
14:17:50.168,-0.25,8.375
14:17:50.182,-2.1563,4.5
14:17:50.186,-4.5938,1.0625
14:17:50.188,-6.4375,-0.1875
14:17:50.188,-7.4375,-3.625
14:17:50.192,-9.1875,-6.5625
14:17:50.201,-11.1875,-8.25
14:17:50.211,-11.8438,-10.9375
14:17:50.222,-13.6251,-13.7501
14:17:50.231,-15.4688,-15.9376
14:17:50.240,-16.1251,-17.2501
14:17:50.251,-17.5001,-19.4376
14:17:50.262,-18.5626,-22.0626
14:17:50.271,-20.1563,-23.7501
14:17:50.282,-20.7188,-24.8126
14:17:50.292,-21.5313,-26.9376
14:17:50.304,-22.9063,-27.8126
14:17:50.315,-23.4376,-30.3751
14:17:50.321,-23.9376,-31.6251
14:17:50.331,-24.2501,-33.5626
14:17:50.341,-25.5938,-34.3751
14:17:50.353,-30.4376,-42.3752
14:17:50.361,-30.1251,-41.8752
14:17:50.371,-30.1251,-42.9377
14:17:50.381,-28.5939,-41.2502
14:17:50.392,-26.8439,-38.8126
14:17:50.401,-21.4688,-32.6876
14:17:50.411,-15.0626,-23.5626
14:17:50.422,-5.5938,-11.25
14:17:50.432,4.0625,4.1875
14:17:50.442,14.5001,19.1876
14:17:50.451,23.5938,35.1876
14:17:50.461,31.4064,47.1252
14:17:50.471,37.3126,58.7502
14:17:50.482,41.6252,65.7503
14:17:50.493,43.7814,69.8128
14:17:50.502,44.4064,72.6253
14:17:50.512,43.3752,71.8128
14:17:50.521,41.9689,70.0628
14:17:50.533,40.3439,67.3753
14:17:50.541,38.4064,63.9377
14:17:50.551,35.9376,60.6877
14:17:50.561,34.4376,57.0627
14:17:50.571,32.3439,55.2502
14:17:50.581,31.5001,52.1252
14:17:50.591,29.6876,50.1252
14:17:50.602,28.2814,47.7502
14:17:50.612,26.2501,44.6252
14:17:50.624,22.8438,40.5002
14:17:50.632,19.8438,34.6251
14:17:50.641,16.3751,31.1251
14:17:50.651,13.4376,25.7501
14:17:50.661,11.2813,21.6251
14:17:50.672,9.7813,19.1251
14:17:50.702,8.2813,16.4376
14:17:50.704,8.4375,15.8126
14:17:50.706,8.4688,15.5001
14:17:50.713,9.1563,16.3751
14:17:50.741,10.7188,18.1251
14:17:50.743,10.9375,19.8751
14:17:50.744,11.625,20.3126
14:17:50.753,12.2188,21.3126
14:17:50.786,12.5938,21.8751
14:17:50.787,12.2813,20.7501
14:17:50.790,11.5938,20.6251
14:17:50.793,10.0938,19.8751
14:17:50.823,9.9688,17.8126
14:17:50.825,9,15.5626
14:17:50.827,7.125,13
14:17:50.831,5.0625,9.9375
14:17:50.865,2.75,7.9375
14:17:50.866,1,5.8125
14:17:50.868,-0.5,2.0625
14:17:50.875,-1.6563,-0.1875
14:17:50.883,-3.9375,-2.75
14:17:50.893,-5.5625,-4
14:17:50.901,-6.3125,-5.9375
14:17:50.911,-6.5938,-8.625
14:17:50.921,-8.8125,-10.9375
14:17:50.931,-10.1563,-11.375
14:17:50.941,-11.0313,-13.4376
14:17:50.951,-11.875,-15.1876
14:17:50.964,-13.4688,-17.6876
14:17:50.972,-14.6876,-18.4376
14:17:50.982,-15.3438,-19.8751
14:17:50.991,-16.6563,-22.3751
14:17:51.001,-18.2188,-24.8126
14:17:51.011,-19.6876,-26.5001
14:17:51.021,-20.8751,-26.8126
14:17:51.031,-21.3751,-28.7501
14:17:51.041,-23.1251,-30.1251
14:17:51.056,-23.1251,-31.5001
14:17:51.062,-24.6251,-32.2501
14:17:51.073,-24.6876,-33.4376
14:17:51.081,-25.7813,-33.6876
14:17:51.091,-25.5626,-33.8751
14:17:51.102,-25.6876,-34.8126
14:17:51.112,-25.4063,-33.1876
14:17:51.123,-23.0938,-30.8751
14:17:51.132,-18.0001,-24.6876
14:17:51.142,-11.4375,-15.7501
14:17:51.151,-2.8125,-3.875
14:17:51.163,5.75,9
14:17:51.171,15.0626,24.6251
14:17:51.182,23.0626,37.0001
14:17:51.191,30.3439,49.3752
14:17:51.202,35.1876,57.7502
14:17:51.211,38.6876,64.3127
14:17:51.221,39.7502,69.5003
14:17:51.231,40.1564,69.1253
14:17:51.242,38.4064,69.0628
14:17:51.253,37.0626,65.5628
14:17:51.262,35.4064,63.3752
14:17:51.271,32.3126,59.9377
14:17:51.282,30.2501,56.0002
14:17:51.292,28.1876,53.2502
14:17:51.303,27.0626,50.5002
14:17:51.311,25.0001,48.5002
14:17:51.321,22.8438,44.9377
14:17:51.332,20.9376,42.0627
14:17:51.343,17.6563,37.6251
14:17:51.351,13.7813,33.0001
14:17:51.362,11.4063,28.0001
14:17:51.371,7.8125,23.8126
14:17:51.381,6,19.6876
14:17:51.397,3.5313,17.1251
14:17:51.406,2.25,15.1876
14:17:51.429,2.3438,13
14:17:51.464,1.625,13.8126
14:17:51.464,2.25,14.0001
14:17:51.501,3.3438,14.9376
14:17:51.532,4,15.7501
14:17:51.532,4.3438,16.9376
14:17:51.532,3.875,17.5001
14:17:51.532,3.9688,17.1251
14:17:51.534,2.75,16.0626
14:17:51.558,2.1563,14.0626
14:17:51.559,0.5,12.8125
14:17:51.561,-1.4688,10.375
14:17:51.564,-2.75,7.625
14:17:51.572,-4.875,5.5
14:17:51.606,-8.3438,1.8125
14:17:51.609,-9.9688,-1.5
14:17:51.610,-12.5,-4.625
14:17:51.615,-13.4376,-8.3125
14:17:51.623,-15.3438,-10.125
14:17:51.631,-17.5001,-13.3126
14:17:51.642,-18.8751,-16.1876
14:17:51.652,-21.1876,-18.9376
14:17:51.662,-22.2188,-21.2501
14:17:51.671,-28.4689,-31.1876
14:17:51.682,-29.2189,-32.6251
14:17:51.691,-30.0626,-33.6251
14:17:51.703,-31.4376,-36.0001
14:17:51.711,-32.7501,-37.5001
14:17:51.721,-33.7814,-38.9376
14:17:51.732,-34.7814,-41.3752
14:17:51.742,-34.8751,-41.5002
14:17:51.751,-35.6251,-43.3127
14:17:51.761,-36.1251,-44.3127
14:17:51.771,-36.7501,-45.8127
14:17:51.781,-37.9064,-47.0002
14:17:51.792,-38.0626,-47.0002
14:17:51.807,-38.5939,-47.6252
14:17:51.811,-38.2501,-47.6877
14:17:51.822,-37.0939,-47.2502
14:17:51.833,-33.8439,-42.8752
14:17:51.841,-28.9064,-37.3126
14:17:51.851,-21.0626,-26.1251
14:17:51.861,-12.3438,-14.0001
14:17:51.871,-2.4063,1.625
14:17:51.883,7.9688,16.8126
14:17:51.892,16.2501,31.0626
14:17:51.902,24.7813,43.6252
14:17:51.911,30.0001,53.4377
14:17:51.921,33.2814,61.5002
14:17:51.932,35.7501,64.0002
14:17:51.941,35.0626,66.2503
14:17:51.951,35.4064,65.4377
14:17:51.980,33.4064,63.5002
14:17:51.983,31.6564,61.0627
14:17:51.986,29.1251,57.1252
14:17:51.992,27.5314,55.2502
14:17:52.001,25.8438,51.9377
14:17:52.011,23.8438,49.8127
14:17:52.021,23.0313,46.9377
14:17:52.031,21.0001,45.6252
14:17:52.041,20.0938,42.6252
14:17:52.051,16.8751,38.0626
14:17:52.062,13.5938,33.2501
14:17:52.071,10.3125,28.8751
14:17:52.081,7.1875,23.8751
14:17:52.092,4.625,19.6251
14:17:52.101,3.1875,16.5626
14:17:52.111,1.5,13.8126
14:17:52.121,0.9375,12.75
14:17:52.132,0.7188,11.25
14:17:52.143,1.6563,12.3125
14:17:52.154,2.6875,13.5626
14:17:52.161,3.5938,15.0626
14:17:52.172,4,15.3751
14:17:52.185,4.7188,16.5001
14:17:52.208,4.75,16.8126
14:17:52.210,4.7813,16.0001
14:17:52.213,4,16.1876
14:17:52.221,2.5,14.1251
14:17:52.249,1.25,11.75
14:17:52.253,-0.3438,9.6875
14:17:52.254,-1.8438,7
14:17:52.264,-3.9375,4.125
14:17:52.294,-6.0313,1
14:17:52.297,-7.5625,-2.375
14:17:52.299,-8.9688,-4.875
14:17:52.329,-10.9688,-8
14:17:52.329,-11.9375,-10.4375
14:17:52.331,-14.0001,-12.6875
14:17:52.338,-15.0938,-15.0001
14:17:52.345,-16.6563,-17.3126
14:17:52.371,-18.5001,-19.3751
14:17:52.373,-19.4063,-22.1251
14:17:52.375,-20.7188,-24.8126
14:17:52.384,-21.6251,-26.2501
14:17:52.393,-23.0313,-28.1876
14:17:52.402,-24.0938,-30.1251
14:17:52.411,-24.3438,-32.1251
14:17:52.423,-26.0626,-33.8751
14:17:52.431,-26.9689,-35.6876
14:17:52.441,-28.1876,-36.1876
14:17:52.451,-28.9064,-39.1251
14:17:52.462,-29.1564,-39.6252
14:17:52.471,-30.9689,-41.3752
14:17:52.481,-31.2814,-42.3752
14:17:52.491,-32.3126,-44.4377
14:17:52.501,-33.0314,-45.0627
14:17:52.513,-33.2189,-46.3127
14:17:52.522,-34.4376,-46.0002
14:17:52.531,-34.2189,-47.1877
14:17:52.541,-34.3751,-48.1877
14:17:52.558,-34.0939,-48.1877
14:17:52.564,-32.9376,-47.1252
14:17:52.573,-29.9064,-43.8752
14:17:52.581,-25.0626,-35.9376
14:17:52.591,-16.9688,-26.6251
14:17:52.602,-7.8125,-12.1875
14:17:52.611,3.0625,3
14:17:52.621,13.1876,19.1251
14:17:52.631,22.5938,34.1876
14:17:52.641,29.7501,47.1252
14:17:52.651,35.5314,56.3127
14:17:52.661,38.1251,62.8127
14:17:52.671,39.6877,65.7503
14:17:52.681,39.4689,67.6253
14:17:52.692,38.5314,66.0003
14:17:52.701,36.6251,64.3752
14:17:52.712,34.4376,60.2502
14:17:52.727,31.7814,58.2502
14:17:52.742,30.3126,53.5627
14:17:52.744,28.4689,51.5627
14:17:52.759,27.2189,48.5002
14:17:52.774,25.6251,47.6877
14:17:52.776,24.9063,44.3752
14:17:52.782,22.4688,41.2502
14:17:52.792,20.3126,38.7501
14:17:52.801,17.6251,33.8126
14:17:52.812,13.6563,28.6251
14:17:52.823,10.7813,22.9376
14:17:52.832,7.3125,19.0626
14:17:52.842,5.3125,15.3751
14:17:52.851,3.4375,12.5
14:17:52.862,3.2813,11.4375
14:17:52.885,2.9688,10.4375
14:17:52.886,3.625,10.875
14:17:52.902,4.1563,11.625
14:17:52.905,4.3125,12.6875
14:17:52.933,5.625,14.1876
14:17:52.935,6,14.1876
14:17:52.938,5.5313,15.2501
14:17:52.945,5.4375,15.1876
14:17:52.975,4.625,13.4376
14:17:52.977,3.875,12.5625
14:17:52.979,2.125,10.625
14:17:53.018,0.4375,7.9375
14:17:53.018,-0.9688,5.4375
14:17:53.020,-3.125,3.3125
14:17:53.029,-4.5625,-0.5625
14:17:53.029,-6.4688,-3.0625
14:17:53.042,-8.3125,-6.3125
14:17:53.049,-9.9688,-8.9375
14:17:53.058,-11.7813,-12.1875
14:17:53.062,-13.3751,-15.3751
14:17:53.071,-14.6876,-17.4376
14:17:53.082,-16.3438,-19.4376
14:17:53.091,-17.4063,-21.3751
14:17:53.101,-18.4376,-23.3126
14:17:53.111,-19.2188,-26.1876
14:17:53.122,-20.4376,-28.3126
14:17:53.131,-21.2188,-29.7501
14:17:53.143,-22.0001,-31.6876
14:17:53.151,-22.9063,-33.1251
14:17:53.161,-23.5626,-34.3751
14:17:53.171,-24.6876,-36.9376
14:17:53.183,-24.7813,-37.8126
14:17:53.191,-26.0313,-39.2501
14:17:53.204,-25.9376,-40.6877
14:17:53.212,-26.7814,-41.5002
14:17:53.222,-27.9376,-43.6877
14:17:53.233,-27.2814,-44.3752
14:17:53.259,-28.7501,-45.6252
14:17:53.263,-28.5626,-46.5627
14:17:53.264,-28.0626,-46.8752
14:17:53.273,-28.4064,-47.3752
14:17:53.282,-28.6876,-47.6252
14:17:53.291,-28.4689,-48.9377
14:17:53.302,-28.5001,-48.4377
14:17:53.311,-26.6876,-48.0627
14:17:53.322,-24.8126,-43.9377
14:17:53.331,-19.3126,-38.9376
14:17:53.342,-12.2188,-28.5001
14:17:53.351,-2.7813,-16.5626
14:17:53.362,7.1875,-2.1875
14:17:53.371,16.3438,13.125
14:17:53.381,26.2501,27.8751
14:17:53.391,33.0001,40.3127
14:17:53.401,39.7814,50.1252
14:17:53.412,43.2189,57.8752
14:17:53.421,44.9377,61.7502
14:17:53.437,45.8439,62.5627
14:17:53.441,44.7189,62.4377
14:17:53.452,43.3439,59.9377
14:17:53.461,40.4377,57.0627
14:17:53.471,38.5626,53.6252
14:17:53.481,36.2501,51.5627
14:17:53.491,34.4064,47.4377
14:17:53.503,32.8439,45.3127
14:17:53.511,31.7189,42.0002
14:17:53.523,29.5001,41.3127
14:17:53.531,28.5001,37.4376
14:17:53.541,25.4376,33.3751
14:17:53.551,22.8751,29.3751
14:17:53.561,19.8751,24.1251
14:17:53.573,16.4063,19.8751
14:17:53.582,14.2813,15.0626
14:17:53.605,12.25,12
14:17:53.609,12,10.125
14:17:53.619,11.5938,8.6875
14:17:53.623,12.0313,8.875
14:17:53.658,13.5626,10.375
14:17:53.660,14.7188,12.3125
14:17:53.662,15.0313,13.0625
14:17:53.670,16.3751,14.8126
14:17:53.685,17.4376,16.6251
14:17:53.686,16.9688,17.3126
14:17:53.720,16.8751,16.6876
14:17:53.721,15.4688,15.7501
14:17:53.725,14.6251,14.7501
14:17:53.730,13.2501,12.875
14:17:53.734,11.2813,10.4375
14:17:53.773,9.5625,7.25
14:17:53.775,7.125,5
14:17:53.778,5.3438,2.4375
14:17:53.780,3.2188,-1.5
14:17:53.786,2,-3.1875
14:17:53.792,0.0313,-5.9375
14:17:53.801,-0.8125,-7.75
14:17:53.814,-2.9375,-10.9375
14:17:53.822,-4.8438,-12.9375
14:17:53.832,-5.1563,-15.4376
14:17:53.842,-7.2813,-18.2501
14:17:53.853,-8.5625,-20.1876
14:17:53.862,-10.375,-21.6876
14:17:53.872,-11.4688,-23.7501
14:17:53.882,-12.6563,-26.0001
14:17:53.894,-13.6563,-28.1876
14:17:53.902,-14.0626,-29.8751
14:17:53.913,-15.6251,-31.8751
14:17:53.921,-16.0626,-33.1251
14:17:53.933,-16.9688,-35.3126
14:17:53.941,-16.5938,-36.3751
14:17:53.953,-17.2188,-38.2501
14:17:53.961,-17.1876,-37.5001
14:17:53.973,-17.4688,-37.4376
14:17:53.981,-16.5938,-38.8126
14:17:53.991,-16.2501,-37.4376
14:17:54.002,-15.3126,-37.6251
14:17:54.020,-14.5313,-36.9376
14:17:54.027,-14.0001,-36.0626
14:17:54.035,-11.5625,-34.1876
14:17:54.042,-8.0938,-30.7501
14:17:54.057,-2.3438,-22.0001
14:17:54.076,4.4688,-13.3126
14:17:54.078,13.7813,-0.25
14:17:54.085,22.8751,13.3751
14:17:54.093,32.0626,27.6251
14:17:54.108,40.7502,41.0627
14:17:54.124,47.4689,53.1877
14:17:54.127,53.094,62.6252
14:17:54.134,56.469,69.8753
14:17:54.142,59.0627,74.2503
14:17:54.151,59.3127,76.3753
14:17:54.162,59.3752,77.2503
14:17:54.171,58.219,75.5003
14:17:54.187,56.6877,74.8128
14:17:54.192,55.6565,71.5003
14:17:54.203,54.344,69.1878
14:17:54.212,53.344,67.5628
14:17:54.223,51.8752,64.4377
14:17:54.232,49.3439,61.1877
14:17:54.242,46.6252,58.0002
14:17:54.252,44.1252,54.3127
14:17:54.262,40.0627,48.1252
14:17:54.271,35.8126,42.2502
14:17:54.283,31.7189,37.0626
14:17:54.292,28.8126,31.1876
14:17:54.303,25.6563,27.3126
14:17:54.312,24.6563,24.2501
14:17:54.341,23.7813,23.3751
14:17:54.348,24.6876,24.1251
14:17:54.348,26.3439,25.6251
14:17:54.354,27.4064,27.8751
14:17:54.391,28.8439,30.3126
14:17:54.392,30.5939,32.3751
14:17:54.393,32.0314,35.6876
14:17:54.420,33.2814,37.0626
14:17:54.422,33.4689,38.5001
14:17:54.422,32.6251,38.0626
14:17:54.430,30.8439,36.9376
14:17:54.439,29.4376,34.9376
14:17:54.443,26.5001,32.7501
14:17:54.484,24.0626,30.1876
14:17:54.484,21.8126,26.1876
14:17:54.486,18.7188,24.0626
14:17:54.495,17.2188,20.5626
14:17:54.495,14.8126,18.2501
14:17:54.503,13.5938,15.8751
14:17:54.512,12.125,13.8126
14:17:54.540,9.8125,11.9375
14:17:54.541,8.6875,10.5625
14:17:54.544,7.0625,7.3125
14:17:54.552,5.8125,5.5625
14:17:54.562,3.875,3.25
14:17:54.571,1.5,-0.0625
14:17:54.582,-0.5313,-2.8125
14:17:54.592,-1.9375,-5.3125
14:17:54.603,-4.6563,-8.5625
14:17:54.613,-6.2813,-11.3125
14:17:54.624,-8.3125,-14.2501
14:17:54.632,-10.6563,-17.3126
14:17:54.642,-11.5,-19.4376
14:17:54.652,-12.2813,-21.8126
14:17:54.663,-14.0938,-23.4376
14:17:54.673,-15.0313,-24.5626
14:17:54.682,-15.1563,-25.6876
14:17:54.693,-15.3751,-26.8126
14:17:54.703,-14.8751,-26.3751
14:17:54.712,-13.7813,-26.5001
14:17:54.723,-13.7813,-25.1251
14:17:54.733,-9.6875,-21.3126
14:17:54.743,-5.8438,-15.4376
14:17:54.754,1.0938,-6.0625
14:17:54.763,8.9063,5.5625
14:17:54.772,17.4376,17.6251
14:17:54.783,25.9063,31.4376
14:17:54.792,32.9064,41.5627
14:17:54.802,39.0626,52.1877
14:17:54.813,43.2189,60.1252
14:17:54.825,46.1252,64.5002
14:17:54.833,46.4064,66.6878
14:17:54.843,45.5939,67.0628
14:17:54.853,44.0314,64.5002
14:17:54.864,41.2189,60.8127
14:17:54.872,38.6251,57.1877
14:17:54.882,35.9064,52.9377
14:17:54.892,32.6876,49.1877
14:17:54.902,30.2814,44.5627
14:17:54.913,26.6876,40.7502
14:17:54.923,23.4063,36.7501
14:17:54.938,20.5313,30.4376
14:17:54.944,15.7188,24.1251
14:17:54.954,11.5,18.8126
14:17:54.963,8,12.4375
14:17:54.973,4.4063,6.1875
14:17:54.982,1.3125,1.9375
14:17:54.993,-0.875,-1.125
14:17:55.003,-1.75,-3.375
14:17:55.012,-2.5938,-3.75
14:17:55.023,-2.375,-4.25
14:17:55.033,-2.0313,-3.25
14:17:55.043,-0.5938,-2.3125
14:17:55.053,0.4063,-0.25
14:17:55.062,1.1875,1.25
14:17:55.072,1.7188,1.6875
14:17:55.083,1.0625,1.625
14:17:55.093,0.9063,2
14:17:55.125,0.2813,0.5625
14:17:55.125,-0.9688,-0.4375
14:17:55.157,-2.0625,-2.125
14:17:55.158,-3.2188,-5.125
14:17:55.159,-4.9688,-7.5625
14:17:55.162,-6.4688,-10
14:17:55.166,-9.0625,-13.7501
14:17:55.173,-10.75,-16.1876
14:17:55.207,-13.0313,-19.5001
14:17:55.208,-14.5626,-22.6876
14:17:55.211,-16.2813,-25.1876
14:17:55.213,-18.2501,-28.1251
14:17:55.244,-20.4376,-30.6251
14:17:55.246,-22.4688,-32.9376
14:17:55.248,-23.5313,-35.8126
14:17:55.255,-25.3126,-37.5626
14:17:55.271,-26.3126,-39.6877
14:17:55.274,-27.8439,-41.9377
14:17:55.283,-28.4689,-43.2502
14:17:55.292,-29.5001,-45.1877
14:17:55.302,-31.3439,-46.9377
14:17:55.313,-32.1876,-48.8127
14:17:55.323,-33.5939,-50.3752
14:17:55.333,-34.5001,-51.8127
14:17:55.342,-35.4064,-53.5627
14:17:55.359,-37.0001,-53.3127
14:17:55.365,-37.1876,-56.3127
14:17:55.375,-38.6876,-56.4377
14:17:55.383,-39.9377,-58.5002
14:17:55.398,-40.1252,-60.1252
14:17:55.407,-41.3752,-60.4377
14:17:55.413,-41.5314,-62.7502
14:17:55.429,-41.9377,-62.9377
14:17:55.440,-42.0627,-63.1252
14:17:55.448,-40.6564,-62.3127
14:17:55.463,-39.1876,-58.4377
14:17:55.471,-33.7189,-54.0002
14:17:55.477,-27.4064,-43.1877
14:17:55.488,-16.9063,-31.5626
14:17:55.497,-6.9688,-14.5626
14:17:55.507,3.9063,0.75
14:17:55.517,13.6876,16.6251
14:17:55.527,21.9688,29.5001
14:17:55.538,28.5001,40.5627
14:17:55.547,32.1564,48.5627
14:17:55.558,35.3751,53.3127
14:17:55.568,35.3126,54.9377
14:17:55.578,34.6564,53.5002
14:17:55.588,31.7189,50.8752
14:17:55.597,29.4689,47.6877
14:17:55.608,27.1876,43.3752
14:17:55.618,24.0938,38.6251
14:17:55.628,21.0938,35.1876
14:17:55.639,19.0938,30.7501
14:17:55.647,17.0313,26.8751
14:17:55.657,14.5313,23.3126
14:17:55.667,11.0625,18.0626
14:17:55.677,7.1875,12.625
14:17:55.693,3,7.25
14:17:55.697,-0.7813,2.5625
14:17:55.707,-3.75,-2.9375
14:17:55.717,-6.6875,-6.3125
14:17:55.728,-7.6563,-10.125
14:17:55.738,-9.125,-11.1875
14:17:55.747,-8.7813,-11.9375
14:17:55.759,-8.2188,-12.5
14:17:55.768,-7.5,-11
14:17:55.779,-6.5,-10
14:17:55.791,-6.25,-8.875
14:17:55.819,-4.9375,-7.75
14:17:55.821,-5.125,-7.6875
14:17:55.823,-5.8438,-6.5
14:17:55.830,-5.7813,-8.125
14:17:55.859,-7.5625,-9.125
14:17:55.861,-8.1563,-11.5
14:17:55.864,-10.3438,-13.6876
14:17:55.871,-11.6875,-16.1876
14:17:55.886,-13.7813,-19.8126
14:17:55.890,-15.6563,-22.4376
14:17:55.928,-18.3438,-24.3126
14:17:55.929,-19.7813,-28.3126
14:17:55.935,-21.8751,-30.1876
14:17:55.940,-23.4063,-33.5626
14:17:55.942,-25.4063,-35.3126
14:17:55.954,-26.6251,-39.1252
14:17:55.959,-28.8126,-41.2502
14:17:55.987,-30.4064,-45.6877
14:17:55.994,-32.6251,-47.0002
14:17:55.994,-34.3439,-51.5002
14:17:55.999,-35.3126,-53.2502
14:17:56.016,-38.2501,-56.0002
14:17:56.019,-39.0001,-59.0627
14:17:56.027,-41.0314,-61.0002
14:17:56.037,-43.0314,-64.1877
14:17:56.047,-43.5627,-65.9378
14:17:56.057,-45.5627,-67.8128
14:17:56.068,-47.3127,-70.3753
14:17:56.078,-47.1877,-71.8128
14:17:56.087,-48.8439,-73.3128
14:17:56.098,-49.5314,-75.0003
14:17:56.108,-50.3752,-75.6253
14:17:56.118,-51.1252,-77.6878
14:17:56.127,-51.5627,-77.5628
14:17:56.137,-51.5002,-79.1253
14:17:56.147,-50.6877,-77.0003
14:17:56.160,-48.0939,-75.8753
14:17:56.168,-43.5314,-68.8128
14:17:56.178,-37.0314,-61.0002
14:17:56.188,-28.4689,-49.2502
14:17:56.198,-20.2501,-36.1251
14:17:56.207,-11.0313,-23.5001
14:17:56.218,-4.0625,-9.75
14:17:56.228,2.4375,-0.9375
14:17:56.237,6.9375,8.125
14:17:56.248,10.1875,13.3751
14:17:56.257,11.6563,15.8751
14:17:56.268,11.125,16.8126
14:17:56.278,10.4688,15.0626
14:17:56.287,9.125,13.5626
14:17:56.297,6.4688,9.875
14:17:56.308,5.125,7.1875
14:17:56.317,2.1563,3.625
14:17:56.328,1,0.5
14:17:56.337,-1.2188,-2.25
14:17:56.347,-2.625,-4.75
14:17:56.358,-4.9063,-7.5
14:17:56.368,-6.5313,-10.9375
14:17:56.378,-10.0625,-14.4376
14:17:56.387,-12.5938,-19.7501
14:17:56.398,-16.3751,-23.6251
14:17:56.408,-18.5626,-29.1251
14:17:56.418,-21.3751,-31.3751
14:17:56.427,-23.3438,-35.0626
14:17:56.443,-24.0938,-38.1876
14:17:56.447,-24.9376,-40.2502
14:17:56.458,-25.0626,-39.8752
14:17:56.467,-25.4688,-41.1877
14:17:56.477,-25.3751,-40.8127
14:17:56.488,-25.0313,-39.3127
14:17:56.498,-24.4376,-39.8127
14:17:56.507,-25.0313,-39.0001
14:17:56.518,-24.9376,-40.3752
14:17:56.551,-26.4376,-40.0627
14:17:56.552,-26.7814,-42.6252
14:17:56.555,-28.6251,-43.2502
14:17:56.557,-29.4689,-46.4377
14:17:56.589,-31.6564,-47.8752
14:17:56.591,-33.2501,-51.2502
14:17:56.593,-35.0314,-53.0002
14:17:56.600,-37.1564,-55.8752
14:17:56.638,-39.1564,-58.4377
14:17:56.640,-40.1877,-61.6252
14:17:56.642,-42.3752,-63.4377
14:17:56.649,-43.6877,-67.1253
14:17:56.650,-45.9377,-68.8128
14:17:56.658,-47.3752,-72.2503
14:17:56.696,-49.5939,-73.6878
14:17:56.698,-50.6877,-77.0003
14:17:56.716,-51.6252,-78.6878
14:17:56.730,-53.1252,-80.8128
14:17:56.743,-54.9377,-83.0003
14:17:56.746,-55.6877,-85.6253
14:17:56.746,-56.969,-87.6253
14:17:56.746,-58.7815,-90.1254
14:17:56.761,-60.6877,-91.7504
14:17:56.776,-61.8752,-93.5629
14:17:56.780,-62.9065,-96.0004
14:17:56.793,-63.2502,-96.8754
14:17:56.809,-64.9377,-99.2504
14:17:56.810,-66.0003,-99.6254
14:17:56.811,-66.7815,-101.7504
14:17:56.822,-67.469,-102.9379
14:17:56.827,-67.8128,-103.6879
14:17:56.837,-67.6565,-104.0629
14:17:56.847,-66.8128,-102.2504
14:17:56.857,-64.6252,-101.0004
14:17:56.867,-60.1565,-95.4379
14:17:56.878,-54.3752,-87.4378
14:17:56.887,-48.3752,-78.9378
14:17:56.899,-41.4064,-68.4378
14:17:56.907,-35.4376,-58.0627
14:17:56.917,-29.2189,-49.5627
14:17:56.929,-25.4376,-41.6252
14:17:56.937,-22.8438,-38.1251
14:17:56.947,-21.1251,-34.1251
14:17:56.957,-20.7188,-32.5626
14:17:56.968,-21.3751,-32.0001
14:17:56.977,-21.9063,-33.1251
14:17:56.987,-23.1563,-33.6251
14:17:56.997,-24.8126,-37.0001
14:17:57.007,-25.7501,-38.2501
14:17:57.018,-27.7189,-39.7502
14:17:57.028,-28.2501,-42.1252
14:17:57.039,-29.5626,-43.1877
14:17:57.048,-30.2501,-45.3752
14:17:57.058,-31.0939,-45.6877
14:17:57.068,-32.6564,-48.7502
14:17:57.099,-33.5939,-50.5627
14:17:57.101,-36.2501,-53.4377
14:17:57.104,-37.3439,-56.3127
14:17:57.109,-38.8439,-58.7502
14:17:57.119,-40.9689,-59.6877
14:17:57.127,-41.7502,-63.6252
14:17:57.137,-41.9064,-64.4377
14:17:57.148,-42.7189,-65.3127
14:17:57.158,-42.7189,-65.6878
14:17:57.168,-42.3439,-65.0627
14:17:57.178,-41.8439,-64.5627
14:17:57.187,-40.7189,-64.5627
14:17:57.197,-41.4064,-64.1252
14:17:57.208,-41.0939,-62.6252
14:17:57.218,-41.0002,-63.5002
14:17:57.228,-41.5314,-64.1252
14:17:57.237,-41.4377,-65.6878
14:17:57.262,-43.0939,-66.2503
14:17:57.264,-43.6252,-67.7503
14:17:57.269,-45.3127,-69.1878
14:17:57.300,-45.9689,-71.1878
14:17:57.302,-46.8752,-73.3753
14:17:57.303,-47.8439,-74.5003
14:17:57.309,-48.8752,-76.4378
14:17:57.339,-50.2189,-77.0628
14:17:57.341,-50.5002,-79.5628
14:17:57.345,-51.8752,-80.6253
14:17:57.373,-53.0002,-83.3753
14:17:57.374,-53.719,-83.9378
14:17:57.378,-54.5627,-86.2503
14:17:57.382,-55.2502,-87.6253
14:17:57.389,-56.5002,-89.8128
14:17:57.415,-57.5315,-90.7504
14:17:57.417,-58.594,-92.4379
14:17:57.420,-59.6565,-94.0629
14:17:57.430,-60.1565,-95.7504
14:17:57.439,-61.7815,-97.0004
14:17:57.447,-62.1252,-98.4379
14:17:57.459,-63.4065,-100.3754
14:17:57.468,-64.0315,-100.4379
14:17:57.477,-65.0002,-101.9379
14:17:57.489,-65.2503,-102.4379
14:17:57.499,-65.344,-103.9379
14:17:57.509,-66.8753,-105.1254
14:17:57.517,-67.3128,-106.6879
14:17:57.527,-66.719,-106.3754
14:17:57.539,-67.5628,-105.3754
14:17:57.547,-65.8128,-105.1879
14:17:57.558,-62.6877,-102.1254
14:17:57.575,-59.844,-97.5004
14:17:57.579,-53.8127,-90.8754
14:17:57.590,-48.5002,-82.3128
14:17:57.599,-43.6564,-75.7503
14:17:57.608,-38.3751,-68.6253
14:17:57.618,-35.7814,-61.8752
14:17:57.629,-32.6876,-58.3127
14:17:57.639,-30.3751,-55.0002
14:17:57.649,-30.4064,-53.0002
14:17:57.659,-29.7501,-52.2502
14:17:57.668,-30.5626,-52.4377
14:17:57.677,-31.2501,-53.5002
14:17:57.689,-31.7501,-53.8752
14:17:57.698,-33.4376,-56.0002
14:17:57.708,-33.5626,-56.3752
14:17:57.718,-34.5001,-56.0627
14:17:57.728,-34.8126,-58.1877
14:17:57.739,-34.4689,-57.6877
14:17:57.749,-35.0939,-57.9377
14:17:57.758,-35.5626,-59.3752
14:17:57.769,-35.8126,-59.9377
14:17:57.779,-37.2189,-62.4377
14:17:57.789,-37.3126,-63.5627
14:17:57.798,-39.0939,-63.6252
14:17:57.807,-39.6564,-67.1253
14:17:57.818,-40.3752,-66.9378
14:17:57.828,-40.5627,-67.9378
14:17:57.839,-39.4376,-68.1878
14:17:57.849,-39.7814,-67.8128
14:17:57.860,-39.1251,-67.2503
14:17:57.869,-38.0314,-65.8753
14:17:57.879,-37.2189,-66.1253
14:17:57.889,-36.3751,-65.3128
14:17:57.899,-36.2814,-64.3127
14:17:57.909,-35.9376,-64.6252
14:17:57.922,-36.3751,-64.5002
14:17:57.929,-36.4376,-65.0627
14:17:57.938,-37.0939,-65.7503
14:17:57.950,-37.7501,-66.7503
14:17:57.959,-38.4689,-68.0003
14:17:57.968,-39.3127,-68.5003
14:17:57.978,-40.1252,-71.0003
14:17:57.989,-40.1564,-71.5003
14:17:57.998,-41.8127,-71.7503
14:17:58.014,-42.4064,-74.3128
14:17:58.020,-43.1564,-74.4378
14:17:58.028,-43.5314,-76.1253
14:17:58.045,-44.1877,-76.1878
14:17:58.048,-44.2814,-77.8753
14:17:58.081,-44.8127,-77.4378
14:17:58.117,-44.9689,-79.1878
14:17:58.118,-44.9377,-79.0628
14:17:58.150,-45.5939,-79.8753
14:17:58.154,-45.8127,-81.0628
14:17:58.187,-46.3127,-81.1253
14:17:58.187,-47.0002,-83.0628
14:17:58.187,-47.3439,-82.6253
14:17:58.219,-47.2189,-84.3128
14:17:58.221,-47.8127,-84.0628
14:17:58.224,-47.6564,-85.5003
14:17:58.225,-48.4377,-86.9378
14:17:58.225,-48.3752,-86.3753
14:17:58.229,-48.9064,-87.5628
14:17:58.240,-48.8127,-86.9378
14:17:58.250,-48.5314,-87.6253
14:17:58.259,-49.3127,-88.5628
14:17:58.269,-49.4689,-88.8128
14:17:58.279,-49.6252,-88.3128
14:17:58.289,-48.6877,-88.6878
14:17:58.299,-48.1252,-87.4378
14:17:58.308,-46.2189,-84.5003
14:17:58.325,-41.9064,-80.8128
14:17:58.330,-37.8439,-75.7503
14:17:58.338,-25.1251,-59.3127
14:17:58.349,-23.0001,-55.9377
14:17:58.380,-21.5313,-52.9377
14:17:58.384,-21.0313,-52.3127
14:17:58.384,-21.9063,-52.0627
14:17:58.389,-24.5313,-53.5002
14:17:58.401,-25.3751,-54.5627
14:17:58.409,-25.7813,-56.0627
14:17:58.419,-26.2188,-57.0627
14:17:58.429,-27.4064,-57.0002
14:17:58.438,-27.3439,-58.3127
14:17:58.449,-27.4376,-57.6252
14:17:58.459,-28.0626,-57.0002
14:17:58.469,-28.0001,-58.6252
14:17:58.478,-29.0001,-58.0002
14:17:58.489,-29.0626,-60.1877
14:17:58.499,-30.2189,-60.0002
14:17:58.508,-30.9064,-61.4377
14:17:58.519,-30.6564,-61.9377
14:17:58.528,-31.1564,-62.3127
14:17:58.538,-30.3439,-62.3127
14:17:58.548,-30.4376,-61.3127
14:17:58.558,-29.3439,-61.3127
14:17:58.569,-27.9064,-60.0002
14:17:58.579,-28.2189,-58.3752
14:17:58.588,-27.0939,-58.3752
14:17:58.598,-26.1876,-57.6252
14:17:58.608,-26.6564,-57.4377
14:17:58.619,-26.9064,-57.8127
14:17:58.629,-27.0626,-57.1252
14:17:58.639,-27.6876,-56.9377
14:17:58.648,-28.0626,-58.3127
14:17:58.659,-29.0626,-57.7502
14:17:58.670,-29.5314,-59.6252
14:17:58.679,-29.1876,-60.2502
14:17:58.689,-31.0626,-60.6252
14:17:58.700,-31.3126,-62.0627
14:17:58.709,-31.4376,-61.5002
14:17:58.719,-32.4376,-63.3752
14:17:58.729,-32.1251,-62.9377
14:17:58.739,-32.6876,-64.6877
14:17:58.763,-32.9064,-64.6252
14:17:58.766,-33.8439,-64.0002
14:17:58.769,-34.1251,-66.6253
14:17:58.803,-33.9064,-66.3753
14:17:58.806,-35.0626,-66.9378
14:17:58.808,-35.3439,-67.6878
14:17:58.809,-34.7189,-67.5628
14:17:58.847,-35.4689,-67.5003
14:17:58.849,-35.4064,-68.5003
14:17:58.851,-35.7189,-68.8753
14:17:58.858,-35.9689,-68.2503
14:17:58.859,-35.7501,-69.1878
14:17:58.896,-35.8439,-69.2503
14:17:58.898,-35.8439,-69.6253
14:17:58.899,-35.5939,-70.1253
14:17:58.903,-35.9064,-69.4378
14:17:58.910,-35.4376,-70.4378
14:17:58.925,-36.0314,-70.3128
14:17:58.929,-35.6876,-70.3128
14:17:58.939,-35.8751,-69.6878
14:17:58.949,-34.5314,-69.9378
14:17:58.959,-33.8439,-68.1878
14:17:58.968,-31.0001,-64.6877
14:17:58.978,-27.5314,-60.6877
14:17:58.988,-23.0938,-56.5002
14:17:58.999,-19.6563,-51.3752
14:17:59.009,-17.0938,-46.0002
14:17:59.019,-14.4376,-43.5627
14:17:59.029,-12.7813,-39.5627
14:17:59.038,-12.0938,-38.6251
14:17:59.049,-11.375,-38.3751
14:17:59.058,-11.125,-38.0001
14:17:59.073,-11.9375,-38.7501
14:17:59.078,-12.8438,-39.0626
14:17:59.091,-13.2813,-39.9377
14:17:59.098,-14.0001,-40.4377
14:17:59.109,-14.1876,-40.7502
14:17:59.120,-14.7813,-41.1252
14:17:59.130,-14.8126,-41.3752
14:17:59.139,-14.5001,-41.9377
14:17:59.149,-14.6876,-41.1252
14:17:59.159,-15.1251,-40.7502
14:17:59.169,-15.1876,-42.0627
14:17:59.179,-15.9376,-43.3127
14:17:59.188,-17.6876,-43.8127
14:17:59.199,-17.9063,-45.8752
14:17:59.209,-18.7813,-45.6252
14:17:59.219,-18.5313,-46.8752
14:17:59.228,-18.7501,-46.2502
14:17:59.239,-18.5626,-47.4377
14:17:59.249,-18.5313,-45.5002
14:17:59.259,-18.2188,-46.3127
14:17:59.269,-18.3751,-44.8752
14:17:59.279,-17.4688,-45.2502
14:17:59.288,-17.9688,-44.1252
14:17:59.299,-18.6876,-45.5002
14:17:59.309,-20.1876,-45.5002
14:17:59.330,-22.5626,-48.6252
14:17:59.338,-27.4064,-51.1252
14:17:59.343,-33.8439,-56.9377
14:17:59.350,-44.1877,-64.4377
14:17:59.367,-56.9377,-74.9378
14:17:59.369,-72.7503,-85.6878
14:17:59.383,-90.0941,-99.6879
14:17:59.388,-106.4067,-110.6879
14:17:59.398,-124.0942,-122.7505
14:17:59.409,-135.6568,-129.2505
14:17:59.420,-135.8443,-123.438
14:17:59.430,-134.2193,-118.063
14:17:59.459,-125.938,-107.3754
14:17:59.463,-115.6879,-97.1254
14:17:59.497,-107.8442,-88.8753
14:17:59.498,-104.3441,-84.8128
14:17:59.608,-102.1879,-82.3753
14:17:59.610,-99.8754,-80.6878
14:17:59.610,-96.8129,-78.0003
14:17:59.610,-92.7191,-74.1878
14:17:59.611,-91.4379,-72.8128
14:17:59.613,-90.5316,-72.5628
14:17:59.631,-91.7816,-74.8128
14:17:59.631,-92.7816,-75.5628
14:17:59.631,-93.8129,-78.2503
14:17:59.633,-94.5941,-78.3128
14:17:59.659,-95.6566,-80.8128
14:17:59.662,-95.9379,-80.4378
14:17:59.664,-97.4066,-82.6253
14:17:59.669,-97.6254,-83.4378
14:17:59.678,-97.8441,-83.8753
14:17:59.689,-98.6254,-84.5003
14:17:59.698,-96.6254,-85.0628
14:17:59.709,-96.2191,-84.3128
14:17:59.719,-95.3441,-84.1878
14:17:59.728,-93.4066,-83.2503
14:17:59.744,-87.9066,-77.8753
14:17:59.755,-84.9066,-73.2503
14:17:59.764,-80.8753,-67.8128
14:17:59.774,-77.8753,-64.8752
14:17:59.783,-76.0003,-62.4377
14:17:59.794,-79.0941,-62.0627
14:17:59.804,-78.5315,-62.0627
14:17:59.813,-79.6253,-62.7502
14:17:59.824,-79.0628,-62.5002
14:17:59.834,-77.7503,-61.3752
14:17:59.845,-76.3753,-61.6252
14:17:59.854,-75.1878,-59.1877
14:17:59.864,-73.7503,-58.5002
14:17:59.873,-71.094,-55.8127
14:17:59.883,-68.719,-53.1252
14:17:59.894,-66.5003,-52.6252
14:17:59.904,-63.7815,-51.1252
14:17:59.914,-61.719,-49.6877
14:17:59.924,-60.1252,-49.7502
14:17:59.933,-59.219,-49.0002
14:17:59.943,-58.6877,-49.5627
14:17:59.954,-57.2502,-48.7502
14:17:59.964,-56.4065,-47.8127
14:17:59.974,-54.6877,-48.4377
14:17:59.984,-54.5002,-46.7502
14:17:59.994,-53.5315,-47.5002
14:18:00.007,-51.9377,-46.7502
14:18:00.016,-51.0314,-45.4377
14:18:00.023,-49.1252,-44.9377
14:18:00.034,-47.3127,-43.3127
14:18:00.043,-47.2189,-43.1877
14:18:00.054,-47.7502,-45.3127
14:18:00.066,-50.6877,-47.5627
14:18:00.073,-51.8439,-49.5002
14:18:00.084,-51.6252,-51.0002
14:18:00.093,-53.0002,-51.7502
14:18:00.106,-53.9065,-54.1252
14:18:00.113,-54.4377,-54.3127
14:18:00.123,-54.7502,-55.3127
14:18:00.134,-53.8127,-55.8127
14:18:00.146,-54.0002,-55.0002
14:18:00.154,-53.8127,-56.9377
14:18:00.164,-54.7502,-56.8127
14:18:00.174,-53.9377,-58.2502
14:18:00.204,-53.2815,-56.4377
14:18:00.208,-50.6877,-56.4377
14:18:00.209,-48.6877,-53.8127
14:18:00.216,-47.3127,-52.2502
14:18:00.244,-45.3127,-50.7502
14:18:00.246,-43.5939,-48.6877
14:18:00.249,-42.2502,-48.2502
14:18:00.256,-42.2502,-46.5627
14:18:00.269,-41.6877,-48.1252
14:18:00.274,-41.1252,-48.0002
14:18:00.301,-42.0939,-47.4377
14:18:00.303,-42.4064,-50.0002
14:18:00.306,-42.5939,-50.4377
14:18:00.336,-44.2189,-51.3127
14:18:00.340,-42.8752,-50.9377
14:18:00.343,-41.7814,-49.4377
14:18:00.350,-39.8752,-49.3127
14:18:00.364,-38.6251,-47.4377
14:18:00.366,-39.4064,-48.8127
14:18:00.379,-39.4064,-49.3127
14:18:00.385,-39.6252,-47.8127
14:18:00.394,-37.9689,-49.4377
14:18:00.404,-36.2189,-45.8752
14:18:00.414,-32.7189,-44.9377
14:18:00.423,-27.5939,-40.0627
14:18:00.434,-22.1876,-34.0626
14:18:00.444,-16.4063,-28.3126
14:18:00.453,-8.75,-20.3751
14:18:00.463,-0.75,-12.25
14:18:00.474,7.875,-2.9375
14:18:00.484,14.9376,4.875
14:18:00.495,22.3438,12.8125
14:18:00.504,29.3439,20.1876
14:18:00.514,35.9376,25.7501
14:18:00.524,40.5939,31.0626
14:18:00.534,44.7189,35.1251
14:18:00.544,48.4377,38.8126
14:18:00.554,52.0314,42.3752
14:18:00.563,55.4377,46.3752
14:18:00.574,59.594,48.8127
14:18:00.584,63.9377,53.9377
14:18:00.594,67.7503,56.7502
14:18:00.604,70.8753,60.0002
14:18:00.614,71.344,60.4377
14:18:00.624,71.1253,60.1877
14:18:00.634,70.3753,59.5002
14:18:00.651,69.6253,59.1877
14:18:00.658,68.7815,58.0002
14:18:00.666,67.469,54.9377
14:18:00.674,66.2815,53.1252
14:18:00.689,65.594,53.1877
14:18:00.697,65.3753,51.6252
14:18:00.704,62.9065,50.6252
14:18:00.715,61.9065,49.6252
14:18:00.724,60.969,47.5627
14:18:00.735,60.4377,47.1877
14:18:00.743,60.1565,46.6252
14:18:00.754,58.844,46.0627
14:18:00.765,57.094,45.0002
14:18:00.773,56.094,43.3752
14:18:00.783,54.1252,40.8752
14:18:00.794,51.9377,39.8752
14:18:00.804,49.9064,36.7501
14:18:00.813,48.5939,35.5001
14:18:00.824,48.3439,34.2501
14:18:00.835,47.0314,34.0001
14:18:00.850,47.1564,33.3126
14:18:00.857,47.6877,33.4376
14:18:00.865,47.3439,32.3751
14:18:00.883,46.5314,31.9376
14:18:00.885,46.3752,30.6876
14:18:00.901,44.5002,30.4376
14:18:00.905,44.1252,28.5001
14:18:00.913,42.3752,28.0626
14:18:00.943,41.3752,27.6251
14:18:00.944,41.3127,25.6251
14:18:00.948,40.2189,25.3751
14:18:00.954,40.2189,25.0626
14:18:00.988,40.2189,24.5001
14:18:00.990,39.7814,24.3751
14:18:00.992,39.5627,23.7501
14:18:00.995,39.2501,24.8126
14:18:01.023,40.0939,25.0626
14:18:01.025,39.8439,23.8751
14:18:01.027,37.8126,23.8126
14:18:01.062,36.8126,21.5626
14:18:01.064,35.7814,20.0001
14:18:01.067,33.7189,18.3126
14:18:01.073,31.7501,17.3126
14:18:01.079,30.3126,14.3126
14:18:01.105,27.7501,12.5625
14:18:01.107,26.1876,10.5625
14:18:01.109,24.2501,7.5
14:18:01.115,22.8751,6.9375
14:18:01.147,21.0626,4.5625
14:18:01.149,19.9376,3.5625
14:18:01.153,19.0938,2.125
14:18:01.158,16.9376,0.875
14:18:01.166,16.5313,-0.8125
14:18:01.174,14.5313,-1.4375
14:18:01.185,13.5313,-1.6875
14:18:01.195,12.9375,-3.3125
14:18:01.206,13.3438,-2.1875
14:18:01.214,15.5626,-0.6875
14:18:01.225,16.5001,2.3125
14:18:01.235,17.6563,3.25
14:18:01.246,17.0938,4.625
14:18:01.254,17.3438,4.8125
14:18:01.265,15.5313,4.3125
14:18:01.273,12.9688,2.875
14:18:01.283,10.875,0.625
14:18:01.294,9.5625,-0.3125
14:18:01.304,7.5,-1.5
14:18:01.313,6.9688,-3.8125
14:18:01.325,5.7188,-4.75
14:18:01.333,5.9063,-5.625
14:18:01.346,6.0313,-5.25
14:18:01.355,6.6563,-6
14:18:01.365,7.4375,-5.125
14:18:01.373,9.75,-4
14:18:01.385,9.4688,-3.125
14:18:01.394,11.4375,-2
14:18:01.405,13.3751,-2.125
14:18:01.415,14.3438,0.1875
14:18:01.425,15.5626,0
14:18:01.435,17.0001,1.0625
14:18:01.445,18.8126,2.8125
14:18:01.454,20.6876,4.0625
14:18:01.465,22.5626,5.5
14:18:01.474,24.0938,7.875
14:18:01.484,25.2501,8
14:18:01.495,26.2813,9.3125
14:18:01.504,26.3751,9.8125
14:18:01.516,27.1251,10.9375
14:18:01.524,26.7814,11.4375
14:18:01.535,27.0939,10.875
14:18:01.545,27.3126,11.1875
14:18:01.554,27.3751,12
14:18:01.565,28.6564,12.25
14:18:01.575,29.0001,13.1876
14:18:01.586,29.2814,13.1876
14:18:01.593,30.4064,14.0626
14:18:01.604,32.2501,15.5626
14:18:01.615,33.5001,17.3126
14:18:01.625,34.9689,17.7501
14:18:01.635,37.3751,19.8751
14:18:01.644,39.1564,21.6251
14:18:01.654,40.3439,23.1876
14:18:01.675,41.3752,23.8126
14:18:01.677,41.3752,22.5001
14:18:01.704,40.2814,22.3751
14:18:01.707,40.3439,21.8126
14:18:01.709,39.6877,21.3751
14:18:01.716,39.3752,20.8751
14:18:01.749,39.1251,19.6251
14:18:01.751,39.4377,20.1251
14:18:01.754,39.3752,20.0626
14:18:01.756,39.7814,19.8751
14:18:01.793,40.1877,20.3751
14:18:01.794,39.9689,20.5626
14:18:01.797,39.5939,20.3126
14:18:01.823,39.0939,20.4376
14:18:01.825,38.4376,19.0626
14:18:01.827,36.5001,16.6251
14:18:01.833,33.8126,15.8126
14:18:01.837,31.6251,14.5626
14:18:01.849,30.9064,11.875
14:18:01.856,28.9376,9.875
14:18:01.864,26.8439,8.875
14:18:01.875,24.7813,7.375
14:18:01.885,23.0938,4.875
14:18:01.899,22.2813,3.5625
14:18:01.905,21.7501,3.25
14:18:01.915,20.9376,3.125
14:18:01.925,20.9063,2.5
14:18:01.935,21.4376,2.25
14:18:01.944,19.7813,0.6875
14:18:01.955,18.8126,0.1875
14:18:01.974,18.5626,0.8125
14:18:01.981,18.3126,1.875
14:18:01.989,17.9688,1.5
14:18:01.995,16.5626,1.75
14:18:02.011,15.9688,2.875
14:18:02.016,14.9688,3.1875
14:18:02.030,15.6251,2.9375
14:18:02.035,14.9063,2.3125
14:18:02.045,14.6563,3.875
14:18:02.055,15.2813,2.9375
14:18:02.065,13.0625,1.625
14:18:02.075,11.7813,0.1875
14:18:02.085,10.4063,-0.625
14:18:02.095,10.5938,-1.1875
14:18:02.105,11.4688,-1.9375
14:18:02.115,11.4688,-1.875
14:18:02.125,11.0938,-2.4375
14:18:02.135,10.2188,-2.875
14:18:02.145,9.8438,-3.0625
14:18:02.166,11.3438,-3.5
14:18:02.169,10.7188,-4.25
14:18:02.177,11.0313,-4.5
14:18:02.185,10.6875,-4.3125
14:18:02.221,10.5625,-5.125
14:18:02.237,12,-3.5
14:18:02.242,15.4063,-1.5
14:18:02.242,18.0938,0.0625
14:18:02.242,20.8438,3.1875
14:18:02.247,24.9376,7.5
14:18:02.255,29.0626,11
14:18:02.265,33.8126,16.3751
14:18:02.274,40.4377,21.8751
14:18:02.286,46.7814,27.2501
14:18:02.295,52.2814,33.4376
14:18:02.305,58.2502,38.6876
14:18:02.315,63.344,43.3127
14:18:02.325,67.094,47.0002
14:18:02.358,69.8753,51.0002
14:18:02.360,73.344,52.7502
14:18:02.362,74.5315,54.0002
14:18:02.365,75.6565,56.5002
14:18:02.398,76.8753,56.3752
14:18:02.399,76.4378,56.6877
14:18:02.400,76.0003,56.5002
14:18:02.408,74.5628,54.2502
14:18:02.438,72.7815,52.6877
14:18:02.439,70.844,50.5002
14:18:02.441,68.719,50.3752
14:18:02.446,67.5628,47.8127
14:18:02.471,64.8752,44.6252
14:18:02.473,62.2502,43.0627
14:18:02.476,59.3752,41.1877
14:18:02.505,56.7502,38.1876
14:18:02.508,53.8752,34.5626
14:18:02.509,51.3439,33.1251
14:18:02.516,51.0002,32.1876
14:18:02.526,50.2814,31.4376
14:18:02.535,49.3127,30.3751
14:18:02.545,49.2189,31.2501
14:18:02.555,48.3127,30.0001
14:18:02.565,47.5314,29.0626
14:18:02.575,46.5627,27.9376
14:18:02.585,44.9377,26.9376
14:18:02.595,43.4064,24.6876
14:18:02.605,40.2814,22.3126
14:18:02.616,37.4376,20.1251
14:18:02.626,35.1876,18.0626
14:18:02.635,33.0314,15.8126
14:18:02.651,30.5001,13.1876
14:18:02.655,27.4689,10.8125
14:18:02.667,23.7813,8.125
14:18:02.675,21.6251,4.75
14:18:02.685,19.0001,3.25
14:18:02.696,16.9063,1.3125
14:18:02.705,13.0625,-2.375
14:18:02.715,8.0938,-7.5
14:18:02.725,2.4063,-12.75
14:18:02.734,-1.625,-15.0001
14:18:02.745,-1.5,-16.4376
14:18:02.755,-0.4375,-15.4376
14:18:02.766,-0.0313,-13.1251
14:18:02.775,0.125,-12.0625
14:18:02.784,0.0938,-11.8125
14:18:02.795,-1.0313,-12.375
14:18:02.805,-2.0938,-11.875
14:18:02.815,-1.9375,-12.0625
14:18:02.825,-2.4063,-13.0625
14:18:02.835,-3.2188,-13.5001
14:18:02.845,-3.1875,-13.2501
14:18:02.855,-2.8438,-13.1876
14:18:02.866,-2.25,-13.2501
14:18:02.875,-2.4688,-14.1251
14:18:02.885,-2.75,-14.1876
14:18:02.895,-3.6563,-15.2501
14:18:02.905,-4.6563,-16.1876
14:18:02.915,-5.125,-17.2501
14:18:02.925,-5.6563,-17.8126
14:18:02.935,-5.7813,-18.3126
14:18:02.945,-7.3438,-19.1251
14:18:02.955,-7.3125,-19.8126
14:18:02.965,-8.0938,-20.3751
14:18:02.975,-7.6875,-20.0001
14:18:02.985,-8.3125,-21.3751
14:18:02.995,-8.5625,-21.4376
14:18:03.005,-8.7188,-21.6876
14:18:03.015,-9.5938,-22.6251
14:18:03.026,-9.5,-21.3126
14:18:03.035,-9.0938,-22.1251
14:18:03.045,-9.1563,-21.2501
14:18:03.055,-8.75,-21.5626
14:18:03.065,-9.0625,-20.8126
14:18:03.074,-9.0625,-21.5001
14:18:03.085,-9.1875,-20.5001
14:18:03.119,-9.9688,-21.4376
14:18:03.121,-11.4688,-22.5001
14:18:03.123,-12.4688,-23.2501
14:18:03.126,-15.5313,-26.0626
14:18:03.158,-17.3438,-26.8751
14:18:03.160,-18.2188,-29.5626
14:18:03.162,-19.1563,-29.1251
14:18:03.165,-18.9063,-29.5626
14:18:03.194,-19.2501,-30.1251
14:18:03.197,-20.0313,-31.0626
14:18:03.199,-21.5001,-33.1876
14:18:03.207,-21.9376,-33.8751
14:18:03.238,-23.2501,-35.5001
14:18:03.241,-23.5313,-36.3751
14:18:03.242,-24.0626,-36.6876
14:18:03.273,-25.0313,-36.9376
14:18:03.274,-24.5313,-37.1251
14:18:03.277,-25.0938,-37.9376
14:18:03.283,-24.8126,-38.2501
14:18:03.298,-24.9063,-37.2501
14:18:03.300,-22.7188,-36.8126
14:18:03.315,-22.5626,-35.3751
14:18:03.330,-21.2501,-34.8126
14:18:03.333,-20.4688,-33.9376
14:18:03.347,-19.4063,-33.1251
14:18:03.349,-19.6563,-32.6876
14:18:03.357,-20.4688,-34.3751
14:18:03.365,-22.7188,-35.9376
14:18:03.375,-24.0001,-37.4376
14:18:03.385,-26.4689,-39.2502
14:18:03.403,-28.4064,-41.3752
14:18:03.405,-30.2189,-43.8752
14:18:03.415,-32.0939,-44.8127
14:18:03.425,-33.1876,-46.5002
14:18:03.435,-35.0626,-48.8127
14:18:03.446,-36.6876,-49.8127
14:18:03.455,-39.0314,-52.0627
14:18:03.465,-41.0314,-53.3752
14:18:03.475,-41.4377,-54.3127
14:18:03.502,-41.9377,-54.3127
14:18:03.518,-40.6564,-52.5627
14:18:03.532,-39.3439,-50.8127
14:18:03.535,-37.7189,-48.7502
14:18:03.550,-35.7189,-45.1252
14:18:03.551,-33.6564,-43.2502
14:18:03.566,-32.4689,-41.1252
14:18:03.568,-30.6251,-38.8126
14:18:03.571,-30.0939,-37.6876
14:18:03.580,-29.7814,-37.0001
14:18:03.590,-29.5626,-35.9376
14:18:03.600,-28.5939,-35.5001
14:18:03.610,-28.5626,-35.5626
14:18:03.620,-26.8439,-34.1251
14:18:03.630,-25.2188,-32.8751
14:18:03.639,-23.4376,-29.6876
14:18:03.650,-21.1251,-28.0001
14:18:03.660,-19.7501,-27.5626
14:18:03.670,-19.5938,-26.8126
14:18:03.680,-19.1876,-25.8751
14:18:03.690,-18.8438,-26.8126
14:18:03.700,-19.8438,-27.8751
14:18:03.710,-20.1876,-28.6876
14:18:03.720,-21.0626,-29.0626
14:18:03.731,-20.6251,-29.8126
14:18:03.740,-21.6876,-29.7501
14:18:03.750,-21.1251,-29.8751
14:18:03.760,-21.0938,-30.1876
14:18:03.776,-20.4063,-30.1251
14:18:03.781,-20.0313,-30.2501
14:18:03.790,-20.4688,-30.5001
14:18:03.834,-20.8751,-31.1876
14:18:03.835,-21.5313,-30.7501
14:18:03.837,-21.5001,-30.6251
14:18:03.840,-21.7813,-31.2501
14:18:03.842,-22.1251,-31.6876
14:18:03.852,-22.5626,-32.1251
14:18:03.891,-22.6251,-32.1876
14:18:03.893,-23.4376,-32.2501
14:18:03.895,-22.8751,-31.8126
14:18:03.897,-22.6251,-32.3126
14:18:03.900,-22.5001,-30.6876
14:18:03.930,-21.5313,-31.2501
14:18:03.932,-21.5626,-30.3126
14:18:03.933,-20.9376,-31.2501
14:18:03.945,-21.5001,-31.5001
14:18:03.952,-21.7813,-31.6251
14:18:03.982,-22.3751,-32.3751
14:18:03.984,-22.4688,-32.4376
14:18:03.985,-22.0626,-32.8751
14:18:03.991,-20.6251,-31.7501
14:18:04.000,-19.0626,-31.3126
14:18:04.010,-17.5313,-29.1251
14:18:04.020,-16.5938,-29.0001
14:18:04.030,-15.3438,-27.1876
14:18:04.040,-14.0001,-26.1876
14:18:04.050,-13.2501,-24.6876
14:18:04.060,-12.5938,-24.4376
14:18:04.070,-13.7188,-24.7501
14:18:04.080,-14.5938,-25.8126
14:18:04.090,-15.3126,-27.0626
14:18:04.101,-16.8438,-27.4376
14:18:04.110,-17.2501,-28.9376
14:18:04.120,-17.8438,-28.5626
14:18:04.131,-17.3126,-29.6251
14:18:04.140,-18.5001,-29.8751
14:18:04.151,-19.1251,-31.0001
14:18:04.160,-21.1251,-33.0626
14:18:04.171,-22.7813,-35.1251
14:18:04.180,-24.8438,-36.6876
14:18:04.190,-25.7501,-37.7501
14:18:04.200,-25.4376,-38.4376
14:18:04.210,-25.0313,-37.2501
14:18:04.220,-23.9063,-36.9376
14:18:04.230,-23.2188,-35.1876
14:18:04.240,-21.1563,-32.6251
14:18:04.250,-19.5001,-29.8751
14:18:04.260,-17.2188,-26.3126
14:18:04.270,-17.1563,-23.8126
14:18:04.281,-16.7188,-23.0001
14:18:04.290,-16.1563,-21.3126
14:18:04.300,-15.1563,-20.0001
14:18:04.310,-15.4376,-19.6251
14:18:04.321,-15.6876,-19.4376
14:18:04.330,-18.6251,-20.7501
14:18:04.340,-20.5313,-22.7501
14:18:04.350,-22.2188,-24.3751
14:18:04.360,-22.2188,-25.0626
14:18:04.370,-21.2813,-24.8126
14:18:04.380,-19.8438,-22.7501
14:18:04.390,-17.5626,-22.0001
14:18:04.400,-17.1876,-19.7501
14:18:04.410,-15.8438,-18.7501
14:18:04.420,-14.3751,-15.8751
14:18:04.430,-12.0313,-14.2501
14:18:04.440,-10.6875,-12.3125
14:18:04.450,-10.0625,-13.5001
14:18:04.460,-11,-12.5625
14:18:04.470,-10.8125,-13.7501
14:18:04.480,-11.8438,-13.125
14:18:04.490,-11.4063,-14.5001
14:18:04.500,-11.7188,-13.7501
14:18:04.510,-10.7813,-13.3751
14:18:04.526,-10.4375,-13.1876
14:18:04.533,-10.4375,-13.1251
14:18:04.540,-9.7188,-12.125
14:18:04.550,-9.4063,-11
14:18:04.560,-9.125,-10.5
14:18:04.569,-8.4063,-10.875
14:18:04.580,-9.4688,-10.75
14:18:04.590,-9.6875,-12.0625
14:18:04.600,-10.4688,-11.8125
14:18:04.615,-10.4688,-13.2501
14:18:04.663,-10.8438,-13.3126
14:18:04.663,-11.0313,-13.8751
14:18:04.697,-11.8125,-14.3126
14:18:04.698,-11.625,-15.5001
14:18:04.698,-12.25,-14.6251
14:18:04.700,-11.0938,-16.1251
14:18:04.702,-11.125,-15.0626
14:18:04.707,-10.3125,-16.0001
14:18:04.707,-9.9688,-16.0626
14:18:04.713,-10.0938,-15.3126
14:18:04.720,-9.4688,-15.8126
14:18:04.751,-9.3125,-15.9376
14:18:04.755,-8.9375,-16.5001
14:18:04.756,-9,-16.5001
14:18:04.785,-8.5,-16.1876
14:18:04.786,-8.1563,-15.5626
14:18:04.786,-7.3125,-15.1876
14:18:04.801,-6.8125,-14.6876
14:18:04.805,-5.75,-13
14:18:04.816,-5.0313,-12.9375
14:18:04.832,-4.0625,-13.3751
14:18:04.835,-3.3438,-11.1875
14:18:04.850,-1.5,-10.75
14:18:04.865,0.5313,-10
14:18:04.866,1.2188,-8.9375
14:18:04.877,1.8125,-7.625
14:18:04.886,2.625,-7.0625
14:18:04.902,2.3438,-7.3125
14:18:04.906,2.0625,-7.8125
14:18:04.916,1.2188,-8.0625
14:18:04.925,0.3125,-9.5
14:18:04.935,-0.9688,-10.9375
14:18:04.945,-1.9375,-12.4375
14:18:04.955,-3.4688,-13.4376
14:18:04.967,-3.0938,-13.5626
14:18:04.975,-2.25,-10.75
14:18:04.985,-0.375,-8.1875
14:18:04.995,1.8125,-5.5
14:18:05.006,3.3125,-2
14:18:05.015,5.2813,1.25
14:18:05.026,6.6875,3.25
14:18:05.035,6.1563,3.6875
14:18:05.045,5.25,5.0625
14:18:05.056,4.0625,3.375
14:18:05.066,2.75,1.9375
14:18:05.075,1,0.625
14:18:05.087,-1.6875,-1.8125
14:18:05.095,-4.2188,-3.3125
14:18:05.104,-5.375,-5.0625
14:18:05.116,-7.2813,-5.3125
14:18:05.126,-8.1563,-6.1875
14:18:05.137,-9.3125,-7.75
14:18:05.145,-10.3438,-7.3125
14:18:05.156,-10.5938,-8.25
14:18:05.166,-10.5313,-7.4375
14:18:05.175,-9.1563,-7.125
14:18:05.185,-7.6563,-6.0625
14:18:05.194,-6.75,-4.5
14:18:05.205,-4.75,-2.1875
14:18:05.216,-1.6563,0.8125
14:18:05.226,1.5313,3.0625
14:18:05.236,3.5938,5.4375
14:18:05.246,5.4063,7.1875
14:18:05.256,7.1563,8.125
14:18:05.265,6.3438,8.25
14:18:05.279,5.6875,7.5
14:18:05.285,4.6875,5.1875
14:18:05.320,4.625,5.6875
14:18:05.323,5.1563,4.75
14:18:05.327,4.5938,4.8125
14:18:05.332,2.1875,2.25
14:18:05.341,0.7813,-0.5
14:18:05.346,-1.2188,-1.8125
14:18:05.376,-2.6875,-3.375
14:18:05.378,-3.3125,-5.125
14:18:05.380,-5.4688,-6.6875
14:18:05.387,-7.5938,-8.1875
14:18:05.418,-9.8125,-12
14:18:05.419,-14.6876,-17.0626
14:18:05.421,-19.3751,-21.3751
14:18:05.426,-22.9376,-26.1876
14:18:05.460,-26.9064,-30.6876
14:18:05.461,-31.6876,-35.8126
14:18:05.465,-36.6251,-39.8127
14:18:05.466,-42.4064,-45.4377
14:18:05.477,-48.2502,-53.1252
14:18:05.485,-52.3439,-57.9377
14:18:05.496,-53.7502,-61.0002
14:18:05.507,-55.219,-64.0627
14:18:05.516,-55.219,-65.3127
14:18:05.525,-53.6252,-64.6877
14:18:05.535,-50.6877,-62.6252
14:18:05.546,-43.9377,-59.6877
14:18:05.556,-38.6564,-54.5627
14:18:05.566,-33.0314,-49.8752
14:18:05.576,-29.3126,-45.5627
14:18:05.584,-23.2188,-40.2502
14:18:05.596,-15.1876,-32.6251
14:18:05.607,-7.2813,-23.9376
14:18:05.616,1.25,-13.8126
14:18:05.625,9.6875,-4.625
14:18:05.636,17.4688,4.3125
14:18:05.647,26.3126,12.6875
14:18:05.657,35.9376,23.6876
14:18:05.666,47.8752,34.7501
14:18:05.676,59.9377,48.5002
14:18:05.686,72.344,60.9377
14:18:05.697,83.8753,72.3753
14:18:05.706,96.9379,86.3128
14:18:05.717,109.6254,97.8754
14:18:05.726,184.0632,156.6881
14:18:05.736,198.157,179.6257
14:18:05.746,202.532,184.5007
14:18:05.756,200.2508,185.8757
14:18:05.766,200.4383,187.6882
14:18:05.776,192.1257,184.3757
14:18:05.786,187.407,180.7507
14:18:05.796,184.5945,179.0632
14:18:05.805,187.4695,181.4382
14:18:05.816,195.8757,186.5632
14:18:05.825,202.6258,191.5632
14:18:05.835,202.3445,192.0632
14:18:05.846,199.907,190.3757
14:18:05.855,192.9695,185.3757
14:18:05.867,185.782,177.0007
14:18:05.876,180.5944,173.0632
14:18:05.887,179.0007,169.4381
14:18:05.896,178.1569,168.3756
14:18:05.906,177.4694,165.3756
14:18:05.916,175.0632,162.3756
14:18:05.926,172.8757,158.9381
14:18:05.945,171.6569,155.5631
14:18:05.952,173.6569,155.6881
14:18:05.966,177.0007,155.4381
14:18:05.968,180.5007,156.3756
14:18:05.976,183.7195,155.9381
14:18:05.986,183.8445,154.9381
14:18:05.996,184.657,152.0006
14:18:06.006,183.3445,149.3131
14:18:06.016,184.5632,146.438
14:18:06.060,183.5007,144.0005
14:18:06.061,183.8757,139.813
14:18:06.064,181.1569,136.313
14:18:06.068,178.9694,131.7505
14:18:06.069,176.9382,126.063
14:18:06.103,173.8757,122.1255
14:18:06.105,171.2507,117.6879
14:18:06.107,168.2506,111.6254
14:18:06.114,164.2194,106.6879
14:18:06.117,160.3131,100.8129
14:18:06.157,156.2506,95.5629
14:18:06.161,151.3756,90.2504
14:18:06.193,147.063,83.5003
14:18:06.195,141.188,78.4378
14:18:06.197,135.4068,71.0628
14:18:06.202,130.0942,65.4378
14:18:06.202,125.438,59.8752
14:18:06.202,120.7505,54.3127
14:18:06.215,115.9379,49.4377
14:18:06.221,112.5629,45.6877
14:18:06.231,108.4067,42.7502
14:18:06.241,105.8129,38.7501
14:18:06.252,102.1879,36.1876
14:18:06.261,99.6566,33.8126
14:18:06.272,97.7191,31.0001
14:18:06.282,95.7504,28.0626
14:18:06.292,94.1254,26.8751
14:18:06.302,92.4691,24.3751
14:18:06.312,89.7816,23.1876
14:18:06.321,86.6253,20.3751
14:18:06.331,84.0941,18.0001
14:18:06.341,81.0003,14.5626
14:18:06.351,79.1878,13.6876
14:18:06.361,76.969,11.3125
14:18:06.372,75.8128,9.125
14:18:06.381,73.1565,7.375
14:18:06.394,71.9378,6.4375
14:18:06.407,70.5003,4.625
14:18:06.411,69.7503,4.3125
14:18:06.421,69.5003,3.6875
14:18:06.431,69.0628,4.4375
14:18:06.441,70.219,6.0625
14:18:06.451,71.344,8.8125
14:18:06.463,73.969,12.5625
14:18:06.472,75.5003,16.7501
14:18:06.481,76.6565,21.0001
14:18:06.491,78.0315,22.9376
14:18:06.501,78.1565,25.3751
14:18:06.511,78.3753,26.9376
14:18:06.521,78.0003,27.3126
14:18:06.531,76.7815,27.1251
14:18:06.541,75.6253,26.8126
14:18:06.552,74.1565,25.8751
14:18:06.561,72.969,25.5001
14:18:06.571,71.2815,25.2501
14:18:06.581,69.469,24.6876
14:18:06.591,68.5003,22.6876
14:18:06.601,67.3753,23.0626
14:18:06.611,67.219,21.7501
14:18:06.621,65.7503,22.0001
14:18:06.631,64.8752,21.4376
14:18:06.642,64.344,20.6876
14:18:06.652,61.9377,19.4376
14:18:06.661,59.969,17.0626
14:18:06.671,58.344,16.2501
14:18:06.681,56.3752,13.9376
14:18:06.691,55.3752,13.3751
14:18:06.702,54.6252,12.375
14:18:06.711,53.1565,11.875
14:18:06.722,52.5002,12
14:18:06.733,51.5627,11.5625
14:18:06.741,51.3127,11.625
14:18:06.751,50.0939,10.6875
14:18:06.761,48.5627,11
14:18:06.771,48.5002,10.125
14:18:06.786,47.0314,10.6875
14:18:06.791,46.3127,9.0625
14:18:06.801,45.1252,9.5625
14:18:06.837,44.4064,8.75
14:18:06.838,43.4064,7.5625
14:18:06.840,42.5002,7.0625
14:18:06.842,41.7189,6.3125
14:18:06.880,40.8439,6.375
14:18:06.881,40.0314,5.625
14:18:06.886,39.2189,4.5
14:18:06.887,38.0314,4.125
14:18:06.892,37.6876,2.8125
14:18:06.923,36.3439,2.3125
14:18:06.924,35.5939,1.375
14:18:06.926,34.2189,1.1875
14:18:06.955,33.4376,0.4375
14:18:06.962,33.6251,-0.5625
14:18:06.962,33.4064,-0.1875
14:18:06.964,33.4689,-0.5
14:18:06.980,33.1251,-0.25
14:18:06.982,33.3751,-0.6875
14:18:06.991,32.6876,-0.3125
14:18:07.002,32.5001,-0.375
14:18:07.012,32.3751,-1.5625
14:18:07.021,32.5626,-1.5
14:18:07.032,32.2501,-1.6875
14:18:07.042,33.3751,-0.9375
14:18:07.052,32.3751,-1.4375
14:18:07.062,31.8751,-1.3125
14:18:07.071,31.7501,-1.75
14:18:07.081,31.5626,-2.625
14:18:07.092,31.6251,-1.5625
14:18:07.101,30.8439,-2.75
14:18:07.111,30.9376,-2.5
14:18:07.122,30.2814,-4.0625
14:18:07.131,29.9689,-3.375
14:18:07.141,29.8439,-4.125
14:18:07.151,31.0626,-2.5
14:18:07.162,32.4376,1.125
14:18:07.171,35.5939,4.625
14:18:07.182,38.7189,9.75
14:18:07.191,41.9689,14.3126
14:18:07.201,44.9064,19.0626
14:18:07.211,47.9689,24.9376
14:18:07.221,50.6564,28.0001
14:18:07.231,51.7189,31.1251
14:18:07.247,52.6877,32.7501
14:18:07.262,53.0315,34.3751
14:18:07.265,52.6877,35.1251
14:18:07.272,51.8439,35.2501
14:18:07.281,50.9689,33.5001
14:18:07.291,50.7814,34.3751
14:18:07.301,49.7189,32.5626
14:18:07.312,49.5627,33.3751
14:18:07.339,48.9689,31.8751
14:18:07.342,48.3439,32.4376
14:18:07.344,49.1252,32.4376
14:18:07.351,48.0627,33.0001
14:18:07.362,48.3752,32.9376
14:18:07.371,47.4377,30.9376
14:18:07.381,45.7189,30.4376
14:18:07.391,44.5627,28.9376
14:18:07.401,43.8439,28.0001
14:18:07.411,43.2502,26.8126
14:18:07.421,42.1877,26.8751
14:18:07.431,41.9689,25.3126
14:18:07.453,41.2502,26.1876
14:18:07.456,41.0002,25.5001
14:18:07.491,40.7189,25.5001
14:18:07.495,40.2814,25.5626
14:18:07.532,40.0002,25.6251
14:18:07.532,40.7502,25.6251
14:18:07.534,40.2814,25.3126
14:18:07.535,39.9689,26.0001
14:18:07.566,39.9064,26.0626
14:18:07.567,39.6252,25.5001
14:18:07.567,39.0626,24.8751
14:18:07.568,38.0626,24.5001
14:18:07.571,37.6251,24.3751
14:18:07.576,36.9376,23.1251
14:18:07.591,36.0626,22.9376
14:18:07.597,34.9064,21.9376
14:18:07.633,34.3439,20.1876
14:18:07.638,33.8126,19.2501
14:18:07.643,32.9376,18.9376
14:18:07.643,31.8439,17.8751
14:18:07.660,31.1876,16.6876
14:18:07.660,29.9689,15.5626
14:18:07.667,29.2814,14.7501
14:18:07.676,28.7501,13.4376
14:18:07.686,28.0939,13.1876
14:18:07.697,26.9689,12
14:18:07.706,26.5314,10.5625
14:18:07.716,26.5001,10.6875
14:18:07.726,26.4376,9.6875
14:18:07.736,25.4063,10.125
14:18:07.746,25.7188,8.5625
14:18:07.756,26.0001,8.3125
14:18:07.766,25.6563,8.375
14:18:07.776,24.5626,8.875
14:18:07.786,24.5313,7.25
14:18:07.796,23.4063,5.375
14:18:07.806,22.2813,4.4375
14:18:07.816,22.2501,4.4375
14:18:07.826,21.9376,4.8125
14:18:07.837,22.0313,3.25
14:18:07.846,21.2188,2.25
14:18:07.856,20.9063,4
14:18:07.866,22.0313,3.25
14:18:07.876,23.1563,4.0625
14:18:07.886,24.0938,6.5
14:18:07.896,26.8126,11.0625
14:18:07.906,30.8126,13.9376
14:18:07.916,34.1251,19.1876
14:18:07.926,37.4689,25.7501
14:18:07.936,41.4064,30.3751
14:18:07.946,43.4377,34.5001
14:18:07.956,44.8439,39.1251
14:18:07.966,46.1877,39.6877
14:18:07.976,45.5939,40.3127
14:18:07.987,46.1252,42.6252
14:18:07.996,45.5002,41.5002
14:18:08.006,44.2502,40.8127
14:18:08.016,42.9064,41.1877
14:18:08.032,42.0627,38.6251
14:18:08.037,40.2814,37.1876
14:18:08.046,39.5627,36.5626
14:18:08.056,38.3126,36.8751
14:18:08.066,38.5939,35.0001
14:18:08.077,37.8439,35.2501
14:18:08.086,38.1564,36.0001
14:18:08.097,37.7189,34.8751
14:18:08.106,37.0939,33.7501
14:18:08.116,35.7501,32.5626
14:18:08.126,34.6876,31.6251
14:18:08.138,34.1251,30.1251
14:18:08.146,32.2189,28.6251
14:18:08.156,30.8126,28.3126
14:18:08.167,30.1251,26.8751
14:18:08.176,29.7189,25.8751
14:18:08.186,29.5939,26.0001
14:18:08.196,29.7814,26.0001
14:18:08.210,29.7814,27.5626
14:18:08.237,29.9689,26.8751
14:18:08.241,29.5314,26.9376
14:18:08.242,29.1564,27.7501
14:18:08.248,29.5626,27.3751
14:18:08.280,29.5939,26.7501
14:18:08.284,28.3126,26.6251
14:18:08.285,28.9064,26.4376
14:18:08.288,27.9064,25.1251
14:18:08.319,27.0314,24.1251
14:18:08.322,26.0626,24.0001
14:18:08.335,26.3438,23.0626
14:18:08.349,25.6876,22.1876
14:18:08.352,25.3438,22.2501
14:18:08.355,25.3126,21.5626
14:18:08.359,26.0938,21.1251
14:18:08.381,25.7501,20.4376
14:18:08.383,25.3438,21.1876
14:18:08.389,25.4063,19.7501
14:18:08.397,25.1251,18.9376
14:18:08.408,23.8126,17.5626
14:18:08.416,23.2501,17.1251
14:18:08.426,22.5938,17.0626
14:18:08.436,22.3126,16.3751
14:18:08.447,22.2813,14.6251
14:18:08.456,21.9376,13.8751
14:18:08.466,21.4063,13.9376
14:18:08.476,20.5938,13
14:18:08.487,20.7501,12.5
14:18:08.497,20.3438,10.9375
14:18:08.506,19.7813,10.5
14:18:08.516,18.7188,10.8125
14:18:08.527,18.2188,8.9375
14:18:08.537,18.2501,8.0625
14:18:08.551,17.1563,6.8125
14:18:08.567,16.7188,6.5625
14:18:08.568,16.3751,6.25
14:18:08.576,15.8438,4.8125
14:18:08.587,15.3126,4.125
14:18:08.619,14.8438,5.375
14:18:08.623,16.0938,5.625
14:18:08.624,18.2501,7.25
14:18:08.627,20.6251,10.4375
14:18:08.638,23.2501,15.4376
14:18:08.648,27.1564,21.1251
14:18:08.656,31.6876,26.0001
14:18:08.666,34.0001,30.6876
14:18:08.676,36.5939,35.3126
14:18:08.686,38.5314,38.9376
14:18:08.696,39.3751,41.1877
14:18:08.709,39.2189,42.3752
14:18:08.716,38.5939,43.6877
14:18:08.726,39.0001,43.1877
14:18:08.736,38.0001,41.9377
14:18:08.756,36.9376,42.1252
14:18:08.761,36.0314,41.4377
14:18:08.773,35.8751,40.6252
14:18:08.783,35.6251,39.5627
14:18:08.789,35.1251,39.3752
14:18:08.797,34.7189,39.8127
14:18:08.806,34.8751,40.2502
14:18:08.816,35.4376,39.1251
14:18:08.826,34.8126,38.0626
14:18:08.837,33.8751,37.1251
14:18:08.846,33.2189,36.6876
14:18:08.856,32.1564,35.2501
14:18:08.866,31.4376,33.5626
14:18:08.876,30.0939,31.8126
14:18:08.887,30.1564,32.6251
14:18:08.896,29.7189,31.9376
14:18:08.925,30.1876,32.4376
14:18:08.928,30.5314,33.0001
14:18:08.930,31.0626,33.5626
14:18:08.963,32.0314,33.7501
14:18:08.967,32.3439,34.0626
14:18:08.969,32.2189,34.6251
14:18:08.972,32.5001,35.4376
14:18:08.977,33.0314,34.4376
14:18:09.010,31.5939,33.2501
14:18:09.013,31.1876,33.5626
14:18:09.015,31.3439,32.8126
14:18:09.018,31.1251,31.9376
14:18:09.054,29.3439,30.6251
14:18:09.055,28.6564,30.3126
14:18:09.057,28.4376,28.4376
14:18:09.061,27.4376,26.7501
14:18:09.086,26.6251,26.8126
14:18:09.090,27.0001,25.4376
14:18:09.092,26.2188,23.6876
14:18:09.098,25.0313,22.9376
14:18:09.106,24.6876,22.8126
14:18:09.116,23.7813,21.4376
14:18:09.127,23.2188,20.6251
14:18:09.136,22.9376,18.4376
14:18:09.146,22.0001,17.7501
14:18:09.158,21.5313,16.8126
14:18:09.167,20.9688,15.5001
14:18:09.178,20.2188,13.8751
14:18:09.188,20.3751,13.9376
14:18:09.197,20.3438,13.3126
14:18:09.207,19.7813,11.875
14:18:09.217,18.9688,10.5625
14:18:09.226,18.5626,10.8125
14:18:09.236,18.1876,9.0625
14:18:09.246,17.3126,7.9375
14:18:09.257,16.4063,9
14:18:09.266,17.0001,6.9375
14:18:09.278,15.9063,5.6875
14:18:09.286,15.7188,7
14:18:09.296,16.4376,5.9375
14:18:09.306,16.2188,5.625
14:18:09.316,16.3126,5.375
14:18:09.326,17.2501,6.875
14:18:09.336,19.1876,9.875
14:18:09.347,22.5313,12.9375
14:18:09.357,25.7813,17.8126
14:18:09.368,29.3751,23.9376
14:18:09.377,33.1876,28.5001
14:18:09.386,34.9689,32.9376
14:18:09.398,37.4689,37.5626
14:18:09.407,38.5314,41.6877
14:18:09.416,39.4689,42.5627
14:18:09.426,38.8439,42.9377
14:18:09.437,37.3751,44.5627
14:18:09.447,37.6876,43.3127
14:18:09.456,36.0314,41.7502
14:18:09.468,35.3751,42.3752
14:18:09.478,36.0939,41.3752
14:18:09.488,34.4689,40.5002
14:18:09.497,33.9064,39.8127
14:18:09.506,33.0314,40.0627
14:18:09.518,32.8126,40.3752
14:18:09.532,32.5314,39.0626
14:18:09.537,31.6251,38.7501
14:18:09.546,30.9064,36.9376
14:18:09.557,29.4689,36.0001
14:18:09.568,29.0626,35.1251
14:18:09.576,27.9689,32.8751
14:18:09.587,27.2814,32.1251
14:18:09.596,26.8439,32.0626
14:18:09.609,27.3126,31.6251
14:18:09.618,27.2814,31.1251
14:18:09.628,27.6876,31.3751
14:18:09.637,27.5939,32.8126
14:18:09.667,28.4064,32.8751
14:18:09.669,28.3126,32.2501
14:18:09.671,28.2501,32.5626
14:18:09.679,28.0314,32.5626
14:18:09.710,28.5001,33.5001
14:18:09.713,28.3751,32.7501
14:18:09.713,27.9376,32.0626
14:18:09.718,26.7814,31.8126
14:18:09.751,26.7501,31.0626
14:18:09.753,25.5313,29.8126
14:18:09.755,24.7501,28.8126
14:18:09.779,24.4063,27.5001
14:18:09.780,23.1563,25.7501
14:18:09.782,22.5313,25.6876
14:18:09.788,21.8438,24.3751
14:18:09.819,21.7188,22.9376
14:18:09.821,20.1563,21.0001
14:18:09.824,19.0001,21.1251
14:18:09.827,18.6563,19.9376
14:18:09.847,18.0313,17.8751
14:18:09.854,16.8438,16.8126
14:18:09.856,16.4688,15.7501
14:18:09.873,15.0938,13.8126
14:18:09.902,14.3126,12.25
14:18:09.904,13.7188,12.125
14:18:09.906,12.9063,10
14:18:09.911,12,9.8125
14:18:09.923,12.0938,8.5625
14:18:09.928,10.9063,6.9375
14:18:09.937,10.6875,7.9375
14:18:09.948,10.7188,5.5
14:18:09.957,9.625,6.0625
14:18:09.967,9.2188,3.75
14:18:09.978,8.875,2.6875
14:18:09.986,8.3438,2.875
14:18:09.998,8.5313,1.8125
14:18:10.007,8.0625,1
14:18:10.016,7.3125,0.1875
14:18:10.027,7.5,0.8125
14:18:10.038,8.3125,2.3125
14:18:10.054,10.4375,4
14:18:10.068,13.0938,7
14:18:10.071,15.9063,11.75
14:18:10.077,19.6876,18.6251
14:18:10.087,24.2813,23.5001
14:18:10.097,27.5626,28.8751
14:18:10.107,31.2501,34.9376
14:18:10.118,32.6251,38.5626
14:18:10.127,33.6876,42.0627
14:18:10.137,34.4376,43.4377
14:18:10.147,35.0939,43.8752
14:18:10.157,34.4689,44.2502
14:18:10.167,33.8126,44.5002
14:18:10.177,34.1876,43.5627
14:18:10.187,33.0626,42.5627
14:18:10.197,32.4689,43.2502
14:18:10.208,32.1876,42.9377
14:18:10.218,31.8126,42.5002
14:18:10.227,32.1564,42.1877
14:18:10.237,32.3439,41.8127
14:18:10.249,31.6564,42.0627
14:18:10.257,30.9689,41.5002
14:18:10.267,30.7814,39.5002
14:18:10.277,29.3751,38.9376
14:18:10.288,29.1876,37.5001
14:18:10.298,28.0314,35.5001
14:18:10.308,27.5314,35.0626
14:18:10.317,28.0939,34.2501
14:18:10.327,27.0939,33.8751
14:18:10.338,26.9064,34.6251
14:18:10.348,27.3126,34.4376
14:18:10.358,27.7814,34.2501
14:18:10.367,28.6876,36.5001
14:18:10.377,29.3751,36.6251
14:18:10.387,29.4376,36.4376
14:18:10.397,28.1876,36.9376
14:18:10.408,28.5314,36.2501
14:18:10.418,27.9064,35.5626
14:18:10.458,27.5001,35.9376
14:18:10.460,27.9376,34.7501
14:18:10.462,26.4689,34.3751
14:18:10.465,24.8126,33.2501
14:18:10.467,23.0001,31.0626
14:18:10.505,21.7813,28.5626
14:18:10.510,19.7501,26.6876
14:18:10.512,18.1251,25.6876
14:18:10.517,17.5938,23.6251
14:18:10.517,15.9688,21.9376
14:18:10.555,14.4376,20.2501
14:18:10.559,13.3438,18.2501
14:18:10.561,10.7813,15.4376
14:18:10.563,9,14.6251
14:18:10.567,7.9375,11.6875
14:18:10.600,6.5938,9.8125
14:18:10.604,5.0625,8
14:18:10.606,4.125,6.875
14:18:10.613,3.4688,5.3125
14:18:10.618,2.5,3.5
14:18:10.627,1.4375,2.0625
14:18:10.638,0.3125,0.5625
14:18:10.647,-0.9375,-2.0625
14:18:10.658,-2.0313,-2.4375
14:18:10.670,-2.7188,-3.625
14:18:10.680,-2.7188,-5.0625
14:18:10.688,-3.9063,-6.25
14:18:10.699,-4.6875,-6.625
14:18:10.709,-4.6875,-7.5625
14:18:10.717,-4.875,-9.0625
14:18:10.727,-5.4375,-9.875
14:18:10.737,-5.4375,-9.4375
14:18:10.747,-4.5938,-9.0625
14:18:10.757,-3.2813,-8.3125
14:18:10.768,-1.3438,-6.1875
14:18:10.777,1.75,-0.4375
14:18:10.788,5.375,3.4375
14:18:10.797,8.5625,8.0625
14:18:10.807,12.1875,14.3751
14:18:10.817,15.0626,19.6876
14:18:10.828,17.6876,24.4376
14:18:10.837,19.5626,28.8126
14:18:10.848,21.2813,30.6251
14:18:10.857,20.2501,32.4376
14:18:10.868,20.6876,33.7501
14:18:10.877,21.2813,33.6251
14:18:10.887,20.5313,32.6251
14:18:10.897,20.2501,32.5001
14:18:10.907,19.2813,31.6251
14:18:10.917,18.7501,31.4376
14:18:10.927,18.0001,30.6251
14:18:10.937,17.7188,30.4376
14:18:10.948,17.2813,29.2501
14:18:10.958,16.7813,30.8126
14:18:10.967,16.4063,29.5001
14:18:10.977,15.0938,27.0626
14:18:10.987,13.4376,25.5626
14:18:10.998,12.3125,24.8126
14:18:11.007,11.5313,23.0626
14:18:11.017,11.2188,21.3126
14:18:11.027,10.125,19.9376
14:18:11.037,9,18.3126
14:18:11.047,9.0313,18.5001
14:18:11.057,9.4063,18.6876
14:18:11.067,9,18.3126
14:18:11.077,8.875,17.9376
14:18:11.087,8.625,19.1876
14:18:11.097,8.6563,19.1251
14:18:11.107,9.2188,18.8751
14:18:11.117,8.6563,17.6876
14:18:11.127,7.9688,18.3126
14:18:11.155,7.8438,18.3751
14:18:11.170,7.5625,16.9376
14:18:11.187,6.9375,15.8126
14:18:11.189,5.3125,14.4376
14:18:11.191,5.0938,13.3126
14:18:11.193,4.25,12.1875
14:18:11.198,2.9375,10.75
14:18:11.233,2.6563,10.375
14:18:11.237,2.5,9.75
14:18:11.238,1.875,8.8125
14:18:11.241,1.5313,7.0625
14:18:11.271,0.5938,5.375
14:18:11.271,-0.6875,3.9375
14:18:11.274,-1.375,3.75
14:18:11.301,-2.0313,1.6875
14:18:11.306,-2.5,0.75
14:18:11.307,-3.1563,-0.25
14:18:11.307,-3.75,-1.5
14:18:11.327,-4.3438,-2.3125
14:18:11.330,-5.0313,-3.25
14:18:11.349,-6.0938,-4.25
14:18:11.352,-6.4375,-5.25
14:18:11.366,-6.5625,-5.6875
14:18:11.368,-6.8438,-7.5625
14:18:11.383,-7.25,-8
14:18:11.389,-8.0313,-9.25
14:18:11.398,-8.5,-9.8125
14:18:11.407,-8.1875,-9.1875
14:18:11.422,-8.25,-10.5
14:18:11.427,-8.9063,-11.375
14:18:11.438,-9.5,-10.875
14:18:11.447,-8.6563,-10.75
14:18:11.457,-7.9688,-10.3125
14:18:11.468,-5.6563,-6.9375
14:18:11.477,-2.3125,-3.4375
14:18:11.488,1.125,1.8125
14:18:11.497,4.7813,7.4375
14:18:11.507,8.1875,14.3126
14:18:11.518,12.0625,19.7501
14:18:11.528,14.7813,23.9376
14:18:11.537,16.2188,29.2501
14:18:11.547,17.5626,31.1251
14:18:11.586,18.1876,32.3126
14:18:11.587,18.1251,33.5626
14:18:11.590,18.4376,33.4376
14:18:11.597,17.7188,33.6251
14:18:11.603,17.8751,33.0626
14:18:11.613,16.5313,32.3751
14:18:11.623,16.7188,33.0001
14:18:11.632,16.7813,32.0626
14:18:11.643,16.7813,32.7501
14:18:11.652,16.8438,32.2501
14:18:11.663,17.0626,31.7501
14:18:11.672,16.4063,32.1876
14:18:11.683,15.6876,31.5001
14:18:11.692,15.2813,29.8126
14:18:11.702,14.4688,27.6876
14:18:11.712,13.8126,26.3751
14:18:11.722,13.6563,26.5626
14:18:11.732,13.0938,24.5001
14:18:11.743,13.0313,24.0001
14:18:11.753,12.9063,24.5001
14:18:11.762,13.5313,24.4376
14:18:11.772,13.1563,24.3751
14:18:11.782,13.2813,24.6251
14:18:11.797,13.3751,24.9376
14:18:11.803,13.6563,25.8126
14:18:11.812,13.9688,25.5626
14:18:11.823,14.3126,24.8751
14:18:11.832,13.5313,24.1876
14:18:11.843,12.6875,23.2501
14:18:11.853,12.375,22.1251
14:18:11.862,11.6875,22.6251
14:18:11.872,11.75,20.8126
14:18:11.882,11.6563,19.5626
14:18:11.893,10,17.6251
14:18:11.904,9.5,17.3126
14:18:11.912,9,16.6251
14:18:11.951,8.875,14.6876
14:18:11.955,7.6563,13.4376
14:18:11.956,6.9375,12.5625
14:18:11.963,6.8125,11.5625
14:18:11.964,6.5625,9.5625
14:18:11.972,5.2813,8.375
14:18:12.004,4.8438,8.625
14:18:12.005,4.6875,6.4375
14:18:12.008,4.625,4.9375
14:18:12.013,4.3125,3.875
14:18:12.051,3.9063,3.3125
14:18:12.054,4.25,2.375
14:18:12.056,3.8438,3.375
14:18:12.060,4.25,1.625
14:18:12.064,4.4063,0.625
14:18:12.095,4.1875,0.0625
14:18:12.097,4,-0.6875
14:18:12.100,4.0938,-0.5625
14:18:12.102,4.0313,-0.375
14:18:12.113,4.0625,-0.4375
14:18:12.122,4.6563,-2.125
14:18:12.133,4.1563,-3.25
14:18:12.142,3.5,-4.1875
14:18:12.153,3.1563,-3.5625
14:18:12.162,2.5625,-3.5625
14:18:12.172,3.9375,-4.5625
14:18:12.184,4.7188,-3.1875
14:18:12.194,6.1875,-0.4375
14:18:12.202,9.25,4.3125
14:18:12.213,12.75,9.25
14:18:12.222,16.6563,14.8126
14:18:12.233,19.3126,20.0626
14:18:12.243,22.7188,26.8751
14:18:12.252,25.3126,30.8751
14:18:12.262,26.6251,33.9376
14:18:12.273,27.9064,37.4376
14:18:12.283,28.5001,38.8126
14:18:12.293,27.5939,39.2501
14:18:12.302,26.7189,40.1877
14:18:12.312,26.4689,38.6876
14:18:12.322,26.1251,37.7501
14:18:12.333,25.2501,38.6251
14:18:12.342,25.8126,38.0001
14:18:12.353,25.2501,37.4376
14:18:12.362,24.6251,38.2501
14:18:12.372,24.6876,37.3126
14:18:12.383,24.7501,36.6876
14:18:12.393,23.7188,35.4376
14:18:12.402,22.6876,34.5001
14:18:12.412,21.2188,33.6876
14:18:12.423,20.4688,31.8751
14:18:12.432,19.7188,30.0626
14:18:12.459,18.4688,27.8126
14:18:12.462,17.1563,26.0626
14:18:12.478,16.6876,26.3751
14:18:12.480,17.4063,25.3126
14:18:12.495,17.8438,25.1251
14:18:12.497,17.8438,25.1876
14:18:12.502,18.7188,26.0001
14:18:12.512,19.5313,26.5001
14:18:12.522,20.0938,26.8751
14:18:12.533,19.6876,26.7501
14:18:12.545,19.9688,27.8751
14:18:12.555,20.1563,27.0001
14:18:12.563,19.3438,26.1876
14:18:12.573,18.9063,25.7501
14:18:12.582,18.6563,25.0626
14:18:12.592,17.5313,23.1876
14:18:12.603,16.0938,21.6251
14:18:12.613,15.0626,21.5626
14:18:12.622,13.8751,20.3751
14:18:12.633,13.125,18.3751
14:18:12.667,12.375,16.2501
14:18:12.708,10.7813,15.0001
14:18:12.738,8.9063,12.75
14:18:12.743,7.875,12.25
14:18:12.743,7.7813,10.1875
14:18:12.751,6.8438,8.8125
14:18:12.751,5.5938,6.9375
14:18:12.751,5.1563,6.5
14:18:12.762,4.6875,5
14:18:12.764,3.1563,3.5625
14:18:12.798,2.2813,3.125
14:18:12.799,1.75,1.9375
14:18:12.802,1.6875,0.3125
14:18:12.808,0.375,-1.125
14:18:12.830,-1.1875,-1.3125
14:18:12.832,-1.4688,-3.125
14:18:12.835,-2.5,-4.875
14:18:12.844,-3.5938,-5.75
14:18:12.852,-5.0313,-7.25
14:18:12.862,-6.0625,-7.5
14:18:12.873,-6.5313,-8.1875
14:18:12.882,-6.6875,-8.5625
14:18:12.892,-7.3438,-10.125
14:18:12.903,-7.5938,-11.25
14:18:12.912,-2.4688,-4.5625
14:18:12.922,0.7813,0.25
14:18:12.933,4,5.75
14:18:12.942,8.125,12.75
14:18:12.952,12.9063,18.3126
14:18:12.962,15.4376,23.5626
14:18:12.972,17.9063,28.5001
14:18:12.982,19.8438,31.5626
14:18:12.992,21.0938,34.0001
14:18:13.003,22.0626,36.3751
14:18:13.012,21.7501,36.2501
14:18:13.022,21.7813,36.9376
14:18:13.032,21.9376,36.7501
14:18:13.042,20.7501,36.2501
14:18:13.052,20.4063,36.3126
14:18:13.064,20.5001,35.0626
14:18:13.073,19.6876,35.4376
14:18:13.082,19.0001,34.0001
14:18:13.093,18.8126,33.2501
14:18:13.102,17.7501,32.2501
14:18:13.113,17.0626,32.1251
14:18:13.124,16.5938,30.0001
14:18:13.132,15.0313,27.6876
14:18:13.142,13.5001,26.3126
14:18:13.153,12.875,24.1876
14:18:13.162,11.5938,22.4376
14:18:13.174,10.4375,21.0001
14:18:13.182,10.4375,21.0626
14:18:13.193,10.3125,20.5626
14:18:13.204,10.0625,20.1876
14:18:13.212,9.5938,21.7501
14:18:13.223,10.2813,20.6876
14:18:13.232,10,20.1876
14:18:13.243,9.5,19.8751
14:18:13.252,8.7188,20.5626
14:18:13.263,8.4688,18.5626
14:18:13.273,7.1875,17.0626
14:18:13.282,6.4063,17.5001
14:18:13.295,6.4375,15.5626
14:18:13.302,5.0938,14.3126
14:18:13.343,3.9063,13.8126
14:18:13.347,3.5,12.0625
14:18:13.349,2.6563,10.5
14:18:13.350,1.5938,8.875
14:18:13.357,1.125,9.25
14:18:13.367,0.875,7.25
14:18:13.410,-0.75,5.125
14:18:13.414,-1.9375,3.75
14:18:13.415,-3.7813,2.125
14:18:13.415,-4.4688,-0.125
14:18:13.441,-6.2188,-2.5625
14:18:13.443,-7.2813,-3.0625
14:18:13.447,-8.4688,-4.625
14:18:13.451,-9.125,-7.125
14:18:13.452,-10.25,-8.4375
14:18:13.483,-11.875,-9.3125
14:18:13.486,-12.125,-11.4375
14:18:13.488,-13.4688,-12.875
14:18:13.493,-15.0001,-14.8751
14:18:13.505,-16.0001,-16.0626
14:18:13.513,-16.9063,-16.5626
14:18:13.523,-16.7501,-17.3126
14:18:13.534,-16.6251,-18.9376
14:18:13.542,-17.5313,-19.2501
14:18:13.552,-17.9376,-18.3751
14:18:13.563,-17.8751,-20.1251
14:18:13.574,-17.6563,-19.9376
14:18:13.583,-16.1563,-19.0001
14:18:13.594,-13.9376,-15.3126
14:18:13.603,-10.9375,-12.3125
14:18:13.613,-7.2188,-6.875
14:18:13.622,-2.2188,-0.9375
14:18:13.634,1.7188,5.25
14:18:13.644,5.5625,12.4375
14:18:13.652,9.4063,17.2501
14:18:13.663,11.875,22.8751
14:18:13.676,14.3126,26.8126
14:18:13.684,14.6876,29.5626
14:18:13.692,15.3126,30.6251
14:18:13.704,14.1251,31.2501
14:18:13.714,14.3126,30.5626
14:18:13.738,11.5313,29.0001
14:18:13.741,9.9063,29.2501
14:18:13.746,7.6563,25.9376
14:18:13.762,5.0625,24.6251
14:18:13.765,3.25,22.3126
14:18:13.782,-0.4375,20.6251
14:18:13.788,-4.1875,16.3751
14:18:13.797,-10,12.5
14:18:13.810,-17.3751,6.3125
14:18:13.813,-27.7189,-3.3125
14:18:13.823,-42.2189,-14.4376
14:18:13.834,-58.5627,-26.7501
14:18:13.843,-76.594,-41.3752
14:18:13.854,-96.8754,-57.5627
14:18:13.863,-119.9692,-73.5628
14:18:13.873,-143.4068,-89.5003
14:18:13.883,-166.2819,-104.6879
14:18:13.893,-182.3445,-114.2504
14:18:13.904,-189.407,-112.8754
14:18:13.914,-195.1257,-109.6879
14:18:13.924,-195.907,-105.7504
14:18:13.934,-193.407,-99.0004
14:18:13.946,-189.032,-91.9379
14:18:13.955,-184.9695,-85.4378
14:18:13.963,-180.6569,-81.8753
14:18:13.972,-178.0632,-78.4378
14:18:13.991,-175.7507,-77.5003
14:18:13.994,-174.5319,-76.7503
14:18:14.009,-175.5944,-77.6878
14:18:14.017,-177.2507,-81.1878
14:18:14.022,-177.6569,-82.5003
14:18:14.033,-179.0944,-84.6253
14:18:14.044,-179.8444,-87.2503
14:18:14.055,-180.5319,-87.6253
14:18:14.062,-181.8445,-90.6879
14:18:14.074,-182.782,-92.3129
14:18:14.084,-184.9382,-94.3129
14:18:14.121,-187.2507,-98.0004
14:18:14.124,-187.532,-100.9379
14:18:14.125,-188.5007,-103.1254
14:18:14.154,-188.282,-104.5629
14:18:14.155,-187.0632,-104.1879
14:18:14.157,-186.782,-105.7504
14:18:14.163,-185.6882,-106.0629
14:18:14.165,-184.1882,-106.9379
14:18:14.178,-182.4695,-107.0004
14:18:14.184,-180.8757,-106.5004
14:18:14.214,-178.5319,-106.6254
14:18:14.215,-177.6882,-105.6254
14:18:14.218,-176.1257,-107.1879
14:18:14.224,-175.0007,-106.8754
14:18:14.233,-175.8132,-108.0629
14:18:14.269,-174.8444,-109.1879
14:18:14.270,-173.3757,-108.0629
14:18:14.273,-172.1257,-108.1879
14:18:14.275,-170.2507,-106.6879
14:18:14.284,-168.6256,-106.5004
14:18:14.294,-166.5319,-104.3754
14:18:14.303,-164.3756,-102.4379
14:18:14.313,-160.5006,-98.3129
14:18:14.324,-155.7193,-92.6254
14:18:14.334,-149.7506,-85.8128
14:18:14.345,-143.6568,-76.6253
14:18:14.353,-137.2818,-70.3128
14:18:14.364,-131.3755,-61.1877
14:18:14.374,-126.3442,-54.8752
14:18:14.383,-121.6567,-48.4377
14:18:14.394,-117.3129,-42.2502
14:18:14.403,-114.5629,-37.8751
14:18:14.413,-111.8129,-34.8126
14:18:14.427,-110.5004,-31.3751
14:18:14.435,-108.6254,-31.1251
14:18:14.444,-106.9379,-29.1876
14:18:14.453,-105.6254,-27.4376
14:18:14.463,-104.7504,-27.1876
14:18:14.474,-103.1879,-26.1876
14:18:14.485,-102.8129,-24.0626
14:18:14.494,-101.4379,-24.4376
14:18:14.503,-99.9379,-23.6876
14:18:14.513,-100.1566,-24.0626
14:18:14.524,-99.6879,-25.4376
14:18:14.533,-99.0629,-25.4376
14:18:14.544,-98.2191,-25.5626
14:18:14.553,-95.9691,-26.6251
14:18:14.564,-95.1566,-25.6251
14:18:14.574,-92.2816,-25.3126
14:18:14.585,-89.3128,-23.5001
14:18:14.593,-87.2191,-22.1251
14:18:14.604,-85.0941,-22.3126
14:18:14.614,-81.7503,-20.5001
14:18:14.624,-79.2191,-17.4376
14:18:14.633,-76.8753,-17.2501
14:18:14.644,-74.1878,-15.6251
14:18:14.654,-74.1878,-16.1251
14:18:14.663,-73.3753,-17.5626
14:18:14.674,-73.5315,-18.0001
14:18:14.685,-73.1253,-20.0001
14:18:14.693,-71.8128,-19.3126
14:18:14.704,-70.844,-20.2501
14:18:14.714,-69.6565,-21.2501
14:18:14.723,-70.094,-22.0626
14:18:14.734,-70.1878,-25.4376
14:18:14.743,-70.844,-27.0626
14:18:14.754,-72.594,-29.7501
14:18:14.764,-73.5315,-32.9376
14:18:14.774,-74.3128,-33.9376
14:18:14.784,-75.0003,-37.5626
14:18:14.793,-75.5315,-39.0626
14:18:14.803,-76.0628,-40.2502
14:18:14.813,-76.4378,-43.6877
14:18:14.844,-77.5628,-45.4377
14:18:14.848,-79.2503,-47.5627
14:18:14.850,-79.8441,-50.0627
14:18:14.854,-80.3128,-51.9377
14:18:14.898,-82.0316,-52.4377
14:18:14.900,-82.6878,-55.7502
14:18:14.902,-83.9378,-57.3127
14:18:14.905,-85.8753,-59.1877
14:18:14.911,-86.7816,-61.1877
14:18:14.935,-87.2191,-61.1252
14:18:14.937,-87.1253,-62.3127
14:18:14.940,-85.8441,-61.3127
14:18:14.945,-85.5003,-60.1877
14:18:14.975,-83.4378,-60.6252
14:18:14.975,-82.7503,-60.0627
14:18:14.978,-82.5316,-59.5627
14:18:15.009,-82.1878,-59.7502
14:18:15.010,-81.0003,-59.8752
14:18:15.013,-79.0628,-57.6252
14:18:15.029,-75.719,-54.8127
14:18:15.030,-71.1878,-49.9377
14:18:15.034,-67.0003,-44.1877
14:18:15.044,-63.8752,-39.4377
14:18:15.065,-61.8752,-35.2501
14:18:15.071,-58.719,-29.6876
14:18:15.076,-56.9065,-25.0626
14:18:15.089,-53.6877,-19.6251
14:18:15.104,-51.2502,-15.1251
14:18:15.106,-49.3439,-11.25
14:18:15.113,-48.5314,-9.4375
14:18:15.126,-47.5627,-6.9375
14:18:15.134,-47.2814,-6.3125
14:18:15.143,-46.0627,-5.25
14:18:15.154,-44.6877,-4.4375
14:18:15.164,-42.5939,-3.1875
14:18:15.180,-39.5314,-0.75
14:18:15.183,-37.6251,1
14:18:15.194,-34.4689,2.5
14:18:15.204,-31.8126,4.4375
14:18:15.214,-28.9064,6.3125
14:18:15.225,-26.5001,8.3125
14:18:15.233,-23.8751,10.1875
14:18:15.244,-19.7188,11.5625
14:18:15.254,-17.6563,13.6876
14:18:15.264,-16.6563,13.5626
14:18:15.274,-14.3126,13.8751
14:18:15.294,-10.875,15.0001
14:18:15.296,-9.0625,16.7501
14:18:15.311,-7.5313,18.2501
14:18:15.313,-5.7188,18.3751
14:18:15.328,-4.2188,20.4376
14:18:15.335,-2.5938,20.9376
14:18:15.343,-2.0938,22.9376
14:18:15.354,-0.1563,24.1251
14:18:15.364,0.9375,25.1876
14:18:15.374,2.25,27.0001
14:18:15.385,3.5625,26.5626
14:18:15.394,4.0938,28.0626
14:18:15.404,4.7188,27.0626
14:18:15.413,4.4375,26.8751
14:18:15.423,3.625,26.2501
14:18:15.434,3.3125,24.4376
14:18:15.444,2.6875,23.5001
14:18:15.453,1.2188,22.3126
14:18:15.464,0.0313,20.6876
14:18:15.474,-1.5625,18.2501
14:18:15.485,-5.2813,15.8751
14:18:15.494,-7.6563,11.9375
14:18:15.505,-11.4375,8.5
14:18:15.542,-14.7188,5.0625
14:18:15.545,-18.8126,1.3125
14:18:15.547,-20.8126,-2.125
14:18:15.550,-23.0001,-5.0625
14:18:15.553,-24.4063,-7.875
14:18:15.589,-26.7814,-10.9375
14:18:15.591,-28.9376,-13
14:18:15.594,-30.1564,-15.8751
14:18:15.624,-30.8126,-17.6251
14:18:15.626,-31.4064,-19.1876
14:18:15.628,-31.9376,-19.7501
14:18:15.634,-33.2814,-20.6876
14:18:15.640,-33.0626,-22.3751
14:18:15.676,-35.1564,-22.6876
14:18:15.678,-35.8751,-25.7501
14:18:15.680,-37.9064,-26.5626
14:18:15.682,-38.5314,-28.6876
14:18:15.689,-39.9064,-29.7501
14:18:15.704,-40.3752,-30.6876
14:18:15.709,-40.6877,-31.1251
14:18:15.719,-39.0001,-28.0001
14:18:15.728,-37.5001,-25.3751
14:18:15.739,-33.9064,-20.3126
14:18:15.748,-30.6876,-14.6876
14:18:15.761,-26.3438,-5.6875
14:18:15.769,-21.0626,-0.1875
14:18:15.779,-17.8438,5.9375
14:18:15.789,-14.7813,9.5
14:18:15.799,-11.6563,12.5
14:18:15.810,-9.9375,15.1876
14:18:15.819,-8.0313,18.4376
14:18:15.829,-5.75,18.1876
14:18:15.840,-3.375,20.5626
14:18:15.849,-0.6875,23.5626
14:18:15.859,2.2813,25.7501
14:18:15.869,5.6563,28.3751
14:18:15.878,8.8125,30.5626
14:18:15.888,12.1563,34.0626
14:18:15.898,14.8438,36.0001
14:18:15.909,17.0938,38.2501
14:18:15.919,18.9376,39.0001
14:18:15.930,19.0001,40.2502
14:18:15.938,20.6876,40.6252
14:18:15.949,21.3751,41.5002
14:18:15.958,21.7188,42.5002
14:18:15.969,22.5938,41.8752
14:18:15.978,22.8126,41.3127
14:18:15.988,23.4063,42.5002
14:18:15.999,23.1251,41.8752
14:18:16.009,22.2813,41.8752
14:18:16.020,21.6563,42.0627
14:18:16.029,21.4376,41.6877
14:18:16.038,20.6876,40.6252
14:18:16.050,18.9376,39.9377
14:18:16.058,18.0001,39.0001
14:18:16.069,16.3438,37.4376
14:18:16.078,13.4688,33.6251
14:18:16.088,9.4688,30.0626
14:18:16.099,5.3438,25.8126
14:18:16.108,1.3125,22.5626
14:18:16.119,-2.4375,17.5001
14:18:16.128,-6.4688,12.75
14:18:16.139,-9.25,8.875
14:18:16.149,-12.2813,6.4375
14:18:16.159,-13,4.0625
14:18:16.169,-14.3126,1
14:18:16.178,-15.5626,-0.75
14:18:16.188,-15.8126,-0.875
14:18:16.199,-14.9063,-1.75
14:18:16.209,-15.1876,-2.625
14:18:16.219,-15.4376,-3.4375
14:18:16.228,-15.2501,-2.9375
14:18:16.240,-16.2188,-5.1875
14:18:16.249,-19.1563,-7.875
14:18:16.259,-20.8751,-9.4375
14:18:16.268,-21.1251,-11.5625
14:18:16.301,-22.8126,-12.1875
14:18:16.304,-22.5001,-11.6875
14:18:16.305,-21.8751,-11.625
14:18:16.310,-19.4376,-8.9375
14:18:16.344,-16.1251,-5.9375
14:18:16.347,-14.0001,-4.1875
14:18:16.348,-7.5,2.6875
14:18:16.354,-2.0938,7.0625
14:18:16.362,1.5938,13.125
14:18:16.368,6.625,16.3751
14:18:16.402,9.2188,20.6251
14:18:16.403,13.5938,25.6876
14:18:16.465,18.2188,29.5626
14:18:16.467,22.9688,35.8126
14:18:16.469,27.9376,42.0627
14:18:16.469,32.3126,49.3127
14:18:16.470,37.0626,57.3752
14:18:16.471,41.8127,63.4377
14:18:16.477,45.1564,70.6878
14:18:16.479,47.5314,74.0003
14:18:16.486,48.4689,76.3753
14:18:16.496,48.7502,78.5003
14:18:16.504,47.6877,77.5628
14:18:16.514,46.1564,76.4378
14:18:16.524,45.6564,74.7503
14:18:16.534,43.7189,71.8128
14:18:16.545,41.2189,69.0628
14:18:16.553,38.4064,65.3752
14:18:16.564,35.6564,62.9377
14:18:16.574,33.3126,60.2502
14:18:16.583,31.3126,56.1877
14:18:16.603,28.3126,52.0002
14:18:16.606,23.3438,45.8752
14:18:16.621,17.8126,40.5002
14:18:16.636,10.7813,32.2501
14:18:16.640,3.2188,22.4376
14:18:16.646,-4.25,13
14:18:16.653,-12.7188,2.1875
14:18:16.663,-18.8438,-6
14:18:16.673,-23.8438,-11.125
14:18:16.683,-26.8126,-16.7501
14:18:16.693,-30.2814,-21.5626
14:18:16.703,-32.5314,-24.5626
14:18:16.713,-32.7814,-24.5001
14:18:16.724,-34.0001,-26.6876
14:18:16.733,-35.4064,-28.1876
14:18:16.744,-36.8439,-27.6876
14:18:16.754,-36.8439,-28.6251
14:18:16.764,-37.9689,-29.6251
14:18:16.775,-40.4689,-31.5626
14:18:16.785,-42.4377,-33.5001
14:18:16.794,-43.9689,-35.1876
14:18:16.805,-44.0314,-34.9376
14:18:16.814,-43.7502,-33.5001
14:18:16.825,-41.0002,-31.8751
14:18:16.836,-38.7814,-29.4376
14:18:16.845,-36.8751,-27.6251
14:18:16.854,-35.9376,-25.8126
14:18:16.864,-34.8439,-25.7501
14:18:16.874,-34.9376,-23.6876
14:18:16.883,-35.1251,-25.1251
14:18:16.893,-35.1876,-25.9376
14:18:16.904,-36.3439,-26.5001
14:18:16.915,-37.0001,-27.5626
14:18:16.924,-37.9376,-27.8751
14:18:16.938,-38.2501,-28.8126
14:18:16.975,-37.8126,-27.6876
14:18:16.975,-38.7189,-28.2501
14:18:16.977,-37.9376,-29.9376
14:18:16.980,-37.6876,-28.5001
14:18:16.986,-37.0001,-29.1251
14:18:16.994,-35.6876,-28.8126
14:18:17.009,-34.5626,-27.8126
14:18:17.014,-33.1876,-27.1876
14:18:17.046,-32.5939,-26.8126
14:18:17.047,-30.7501,-26.3126
14:18:17.051,-29.2814,-24.7501
14:18:17.057,-28.2814,-23.9376
14:18:17.084,-26.7189,-24.0001
14:18:17.085,-25.6563,-22.8126
14:18:17.087,-24.1876,-21.9376
14:18:17.114,-21.4376,-19.5001
14:18:17.116,-18.4063,-15.6876
14:18:17.119,-14.2813,-11.75
14:18:17.125,-11.5,-6.375
14:18:17.135,-8.5,-1.625
14:18:17.144,-6.1875,2.375
14:18:17.155,-4.125,6.125
14:18:17.163,-2.7813,9.25
14:18:17.175,-2.4688,10.9375
14:18:17.185,-2.4688,11.8125
14:18:17.195,-2.5625,11.9375
14:18:17.203,-2.875,12.625
14:18:17.215,-3.5,10.8125
14:18:17.224,-4.0313,10.125
14:18:17.235,-5.7188,7.8125
14:18:17.244,-7.2813,6.75
14:18:17.255,-9.1875,4.4375
14:18:17.263,-11,2.375
14:18:17.275,-12.3125,1.375
14:18:17.283,-13.6563,-0.1875
14:18:17.293,-14.4688,-2.0625
14:18:17.304,-15.8126,-3.4375
14:18:17.315,-17.7501,-5.8125
14:18:17.323,-20.1251,-7.375
14:18:17.333,-21.4376,-10.25
14:18:17.344,-21.4063,-10.875
14:18:17.358,-23.0626,-11.0625
14:18:17.363,-24.1563,-13.3126
14:18:17.376,-26.1563,-14.4376
14:18:17.385,-25.9688,-15.8126
14:18:17.394,-26.5939,-13.3126
14:18:17.403,-25.2188,-12.625
14:18:17.414,-23.7501,-10.0625
14:18:17.423,-22.0313,-7.4375
14:18:17.433,-20.0938,-4.25
14:18:17.443,-17.8751,-3.125
14:18:17.454,-15.8751,-1.1875
14:18:17.465,-16.2188,-0.3125
14:18:17.473,-16.2813,-0.1875
14:18:17.485,-16.0626,0.125
14:18:17.493,-16.9376,-0.375
14:18:17.504,-17.1251,0.25
14:18:17.515,-17.2501,-0.4375
14:18:17.524,-17.4688,-0.75
14:18:17.534,-17.0938,-0.4375
14:18:17.543,-17.8126,-1.5625
14:18:17.554,-17.2188,-1.1875
14:18:17.581,-17.1563,-1.1875
14:18:17.583,-16.4688,-1.125
14:18:17.588,-14.5313,-0.6875
14:18:17.594,-14.0938,0.0625
14:18:17.604,-12.0313,0.25
14:18:17.615,-10.375,1.5
14:18:17.623,-8.5313,1.75
14:18:17.635,-8.8438,1.0625
14:18:17.644,-9.5625,0.125
14:18:17.654,-11.2188,-4.375
14:18:17.687,-12.9063,-6.875
14:18:17.689,-14.1251,-8.75
14:18:17.691,-14.7813,-12.3125
14:18:17.695,-17.9376,-15.0626
14:18:17.729,-19.7813,-19.0626
14:18:17.794,-22.6563,-22.1251
14:18:17.795,-23.4376,-24.5626
14:18:17.796,-24.6563,-26.6251
14:18:17.805,-26.8126,-28.3751
14:18:17.805,-26.8751,-30.8126
14:18:17.805,-28.2501,-31.5001
14:18:17.810,-27.9064,-32.6251
14:18:17.835,-27.6564,-33.3751
14:18:17.839,-27.0314,-31.6876
14:18:17.841,-24.4688,-29.3751
14:18:17.850,-21.8126,-24.8751
14:18:17.859,-17.5626,-20.1251
14:18:17.869,-15.0001,-15.3751
14:18:17.879,-12.25,-10.5
14:18:17.890,-10.125,-6
14:18:17.899,-8.8438,-3.625
14:18:17.910,-9.1563,-1.625
14:18:17.931,-10.125,-0.4375
14:18:17.932,-10.875,-0.9375
14:18:17.942,-11.3125,-0.6875
14:18:17.950,-11.7813,-0.8125
14:18:17.964,-12.4688,-1.4375
14:18:17.983,-16.6563,-4.4375
14:18:17.985,-16.6251,-4.3125
14:18:17.991,-17.0001,-4.6875
14:18:18.001,-16.2501,-4.6875
14:18:18.010,-17.0938,-5.25
14:18:18.022,-16.8438,-5.875
14:18:18.030,-17.7501,-6.625
14:18:18.040,-18.4063,-7.8125
14:18:18.050,-21.3438,-9
14:18:18.060,-23.0626,-11.5
14:18:18.070,-25.8751,-12.25
14:18:18.080,-26.0626,-12.9375
14:18:18.088,-26.0626,-11.875
14:18:18.100,-25.3126,-10.5625
14:18:18.110,-24.7813,-9.5
14:18:18.120,-25.5001,-8.4375
14:18:18.128,-24.0938,-8.625
14:18:18.140,-23.5626,-6.4375
14:18:18.148,-21.9376,-5.4375
14:18:18.159,-21.1251,-5.0625
14:18:18.170,-21.5313,-5.0625
14:18:18.180,-21.1251,-6
14:18:18.189,-20.4688,-4.75
14:18:18.200,-20.0626,-4.75
14:18:18.210,-19.2188,-5.0625
14:18:18.221,-18.7813,-5.5625
14:18:18.230,-18.3438,-5.5
14:18:18.240,-18.2188,-5.375
14:18:18.248,-16.8438,-6.6875
14:18:18.260,-16.4063,-6.5
14:18:18.270,-14.9376,-6.625
14:18:18.280,-14.5626,-5.125
14:18:18.290,-13.6876,-7.1875
14:18:18.300,-15.1251,-7.5625
14:18:18.310,-16.0001,-10.5625
14:18:18.319,-16.7813,-11.625
14:18:18.330,-17.1876,-14.5626
14:18:18.339,-18.0938,-15.1251
14:18:18.355,-18.6563,-18.6876
14:18:18.360,-20.0626,-18.8126
14:18:18.370,-21.3751,-22.5626
14:18:18.380,-22.6251,-23.2501
14:18:18.391,-23.0313,-25.5001
14:18:18.407,-25.0001,-26.1876
14:18:18.412,-25.0001,-28.8751
14:18:18.449,-25.9376,-29.5001
14:18:18.450,-26.3439,-30.8126
14:18:18.453,-26.2501,-31.7501
14:18:18.455,-27.5626,-33.0001
14:18:18.461,-27.8751,-34.8751
14:18:18.471,-28.4689,-35.9376
14:18:18.506,-28.8126,-36.2501
14:18:18.507,-27.8751,-35.1251
14:18:18.511,-25.8438,-32.8751
14:18:18.512,-24.0001,-28.2501
14:18:18.551,-21.1563,-23.3126
14:18:18.553,-18.0938,-18.2501
14:18:18.555,-16.5313,-13.2501
14:18:18.562,-14.6251,-8.25
14:18:18.563,-13.6251,-3.6875
14:18:18.581,-12.875,-0.8125
14:18:18.584,-11.9688,1.4375
14:18:18.590,-11.2813,4
14:18:18.601,-10.25,5.75
14:18:18.610,-9.8438,6.5625
14:18:18.620,-10.5313,6.625
14:18:18.630,-11.4688,6.125
14:18:18.639,-10.6875,6.6875
14:18:18.649,-9.4375,8.5625
14:18:18.660,-8,10.875
14:18:18.670,-7.7188,12.1875
14:18:18.682,-7.6563,12.5
14:18:18.691,-7.4063,13.6251
14:18:18.700,-7.7188,13.8751
14:18:18.710,-8,13.8751
14:18:18.720,-7.125,14.1251
14:18:18.729,-8.5313,13.5001
14:18:18.740,-8.2813,12.8125
14:18:18.750,-8.875,12.125
14:18:18.760,-9.5938,13.2501
14:18:18.770,-8.6875,12.5625
14:18:18.781,-7.875,13.3126
14:18:18.790,-6.3125,15.4376
14:18:18.800,-5.2188,15.8751
14:18:18.811,-4.2188,17.2501
14:18:18.819,-2.4688,18.1876
14:18:18.830,-1.7188,19.3126
14:18:18.859,-0.9063,21.3751
14:18:18.862,0.4375,20.0001
14:18:18.863,-0.2188,20.6876
14:18:18.870,0.25,18.4376
14:18:18.880,0.1875,17.5626
14:18:18.890,0.3438,17.2501
14:18:18.900,0.5938,15.6251
14:18:18.910,-0.6875,13.8751
14:18:18.919,-1.1563,11.1875
14:18:18.929,-2.875,7.75
14:18:18.940,-4.8125,5.5625
14:18:18.950,-6.8438,1.375
14:18:18.960,-8.9375,-3
14:18:18.970,-10.7188,-5.875
14:18:18.980,-12.1875,-7.9375
14:18:18.990,-13.1563,-12
14:18:19.000,-15.1876,-14.5001
14:18:19.009,-16.6563,-17.8126
14:18:19.020,-19.3126,-22.1876
14:18:19.039,-21.3751,-25.5001
14:18:19.045,-22.5626,-28.3126
14:18:19.060,-25.0313,-31.9376
14:18:19.065,-26.7814,-35.3126
14:18:19.078,-27.2501,-36.4376
14:18:19.081,-28.2501,-38.5001
14:18:19.090,-29.5001,-39.8127
14:18:19.105,-29.6251,-40.7502
14:18:19.112,-29.6251,-42.1252
14:18:19.120,-30.5939,-43.1877
14:18:19.130,-31.5314,-44.1877
14:18:19.140,-32.7189,-45.3127
14:18:19.150,-33.9064,-46.5002
14:18:19.159,-34.7814,-47.5627
14:18:19.193,-34.3439,-46.6877
14:18:19.194,-32.9689,-45.2502
14:18:19.197,-31.4689,-41.6877
14:18:19.201,-28.2189,-38.3126
14:18:19.235,-25.0313,-32.1251
14:18:19.237,-20.3438,-23.2501
14:18:19.244,-14.6563,-16.6876
14:18:19.313,-9.6563,-7.375
14:18:19.314,-3.1875,2.5
14:18:19.355,1.5,11.4375
14:18:19.355,6.7813,19.5001
14:18:19.355,9.5,24.8751
14:18:19.371,11.875,30.6251
14:18:19.373,12.9688,33.6876
14:18:19.373,14.8126,37.6251
14:18:19.373,17.4688,41.4377
14:18:19.382,20.1563,44.8752
14:18:19.390,23.1563,48.3752
14:18:19.399,24.8751,51.2502
14:18:19.410,26.5939,53.3752
14:18:19.420,26.4376,54.5627
14:18:19.430,27.4376,54.6877
14:18:19.440,25.9688,54.8127
14:18:19.452,23.5001,51.5627
14:18:19.462,22.7501,48.8127
14:18:19.470,20.4376,45.8752
14:18:19.480,19.7501,44.3752
14:18:19.490,19.4688,40.8127
14:18:19.500,19.5313,39.7502
14:18:19.509,19.6563,38.8751
14:18:19.520,19.3126,36.1251
14:18:19.531,18.9063,35.3126
14:18:19.541,15.6563,27.1876
14:18:19.550,12.3438,23.2501
14:18:19.560,9.1563,18.2501
14:18:19.570,6.5938,13.3126
14:18:19.580,2.6875,9.4375
14:18:19.590,0.5938,5.875
14:18:19.600,-1.5625,1.125
14:18:19.610,-2.7813,-1.3125
14:18:19.621,-3.9063,-4
14:18:19.631,-5.2813,-5.875
14:18:19.640,-6.4688,-7.0625
14:18:19.651,-6.4063,-9.1875
14:18:19.660,-5.5,-8.625
14:18:19.669,-3.4688,-9.0625
14:18:19.680,-2.9688,-8.3125
14:18:19.695,-2.2813,-9.3125
14:18:19.704,-3.3125,-9.625
14:18:19.715,-3.5938,-10.6875
14:18:19.725,-3.5,-11.375
14:18:19.737,-3.1563,-11.9375
14:18:19.745,-3,-11.6875
14:18:19.755,-3.5625,-11.625
14:18:19.765,-4.7188,-13.1876
14:18:19.775,-6.7813,-14.9376
14:18:19.785,-7.7188,-16.6251
14:18:19.795,-9.9063,-18.1251
14:18:19.806,-10.5625,-19.3126
14:18:19.815,-12.5313,-20.8126
14:18:19.825,-12.6875,-21.5626
14:18:19.835,-12.25,-20.8751
14:18:19.845,-12.1875,-21.1251
14:18:19.855,-14.6876,-21.0626
14:18:19.865,-14.5001,-21.9376
14:18:19.874,-15.1251,-21.4376
14:18:19.886,-13.2813,-19.3126
14:18:19.896,-10.125,-15.1876
14:18:19.907,-5.6875,-10.4375
14:18:19.914,-1.75,-3.75
14:18:19.925,3.0938,4.8125
14:18:19.957,9.4375,12.6875
14:18:19.959,15.7501,23.4376
14:18:19.963,21.9688,31.9376
14:18:19.965,26.6251,41.4377
14:18:20.007,28.5939,46.1877
14:18:20.011,31.3126,50.4377
14:18:20.012,32.3751,53.6252
14:18:20.015,34.5939,58.5002
14:18:20.020,36.6876,60.1877
14:18:20.025,36.7501,61.3127
14:18:20.054,36.2189,63.2502
14:18:20.057,36.7814,62.9377
14:18:20.059,37.0939,62.9377
14:18:20.066,37.4689,64.7502
14:18:20.095,37.0939,63.5627
14:18:20.099,36.5001,64.0002
14:18:20.100,34.8439,62.9377
14:18:20.106,33.7189,60.4377
14:18:20.115,31.0314,57.5627
14:18:20.140,28.5939,55.6252
14:18:20.142,26.8439,51.9377
14:18:20.146,23.5313,47.9377
14:18:20.155,21.1251,45.2502
14:18:20.167,18.9063,41.8127
14:18:20.176,17.0313,39.6252
14:18:20.185,15.9376,36.9376
14:18:20.195,15.0001,35.8126
14:18:20.205,14.8126,34.9376
14:18:20.215,15.0938,35.4376
14:18:20.230,15.4376,35.9376
14:18:20.236,15.3438,35.5001
14:18:20.245,15.8126,35.8126
14:18:20.256,15.5626,35.7501
14:18:20.267,14.8438,35.5001
14:18:20.275,14.4063,34.8751
14:18:20.285,13.7188,32.9376
14:18:20.295,12.9375,32.3126
14:18:20.305,13.7813,31.6876
14:18:20.315,14.6876,31.6251
14:18:20.325,15.8751,32.4376
14:18:20.347,16.5938,32.4376
14:18:20.349,19.7188,34.1251
14:18:20.363,29.2501,41.1877
14:18:20.367,42.0939,52.4377
14:18:20.381,45.4064,55.9377
14:18:20.386,47.4689,58.3752
14:18:20.395,48.5314,60.0002
14:18:20.405,51.4689,62.5002
14:18:20.415,54.7502,65.8128
14:18:20.425,59.0002,69.3128
14:18:20.436,64.7502,74.8128
14:18:20.447,71.5315,81.7503
14:18:20.455,77.3128,85.1253
14:18:20.465,81.2191,89.5628
14:18:20.475,85.4066,92.4379
14:18:20.485,89.0003,94.1879
14:18:20.495,91.7191,97.6254
14:18:20.505,95.1566,99.0629
14:18:20.517,97.5004,101.8129
14:18:20.525,100.7191,104.2504
14:18:20.536,104.9066,105.6879
14:18:20.545,108.4379,109.6879
14:18:20.555,112.4379,111.0004
14:18:20.565,116.7504,114.0004
14:18:20.575,122.6567,117.0629
14:18:20.585,129.438,120.8755
14:18:20.595,140.1568,127.938
14:18:20.611,156.5943,141.313
14:18:20.616,176.2819,155.5006
14:18:20.628,197.2508,173.1882
14:18:20.644,213.8758,187.0632
14:18:20.647,218.8133,193.0007
14:18:20.657,226.0634,199.0008
14:18:20.669,232.6571,203.1258
14:18:20.712,237.0634,206.1258
14:18:20.712,237.4697,205.0633
14:18:20.742,235.7197,200.8133
14:18:20.742,229.6259,192.0007
14:18:20.743,224.1884,182.6882
14:18:20.745,216.6571,171.3757
14:18:20.751,207.4695,158.6256
14:18:20.752,200.1258,146.0005
14:18:20.785,191.7195,134.3755
14:18:20.786,185.3445,122.5005
14:18:20.789,178.0319,112.1254
14:18:20.791,172.4694,102.6879
14:18:20.825,167.2506,94.3754
14:18:20.827,162.3756,87.3128
14:18:20.829,157.6569,78.8753
14:18:20.831,153.1568,71.0628
14:18:20.843,148.8443,64.2502
14:18:20.853,144.6568,57.8127
14:18:20.860,139.7193,50.9377
14:18:20.870,134.813,44.1252
14:18:20.880,130.9693,37.5626
14:18:20.889,127.7505,32.8751
14:18:20.901,125.8755,31.0626
14:18:20.913,124.5005,29.3751
14:18:20.923,121.5942,27.3126
14:18:20.930,119.688,26.8126
14:18:20.940,119.5005,25.3751
14:18:20.950,118.1255,25.6251
14:18:20.960,118.3442,24.5626
14:18:20.971,118.313,25.2501
14:18:20.986,117.8442,24.6876
14:18:20.991,117.2192,23.1251
14:18:21.000,116.3129,23.1251
14:18:21.011,114.8754,20.3126
14:18:21.020,114.1879,19.9376
14:18:21.033,113.1567,18.6251
14:18:21.040,112.1567,17.3126
14:18:21.050,110.5317,15.8126
14:18:21.060,107.4067,13.2501
14:18:21.069,106.2504,10.5625
14:18:21.080,103.8754,9.8125
14:18:21.094,103.5629,8.4375
14:18:21.101,102.4066,7.375
14:18:21.111,101.1566,6.3125
14:18:21.120,99.8441,5
14:18:21.132,97.6254,3.4375
14:18:21.140,95.2191,0.875
14:18:21.151,92.4379,-1.1875
14:18:21.160,90.7816,-3.4375
14:18:21.170,88.2816,-4.5
14:18:21.179,86.7503,-6.875
14:18:21.191,84.9066,-8.25
14:18:21.202,83.4066,-9.625
14:18:21.210,80.7816,-11.6875
14:18:21.222,78.9378,-12.875
14:18:21.230,76.094,-15.2501
14:18:21.240,73.3128,-16.7501
14:18:21.253,71.2815,-18.3751
14:18:21.260,69.4065,-20.5001
14:18:21.270,66.594,-21.6251
14:18:21.280,64.9377,-23.3126
14:18:21.291,62.5002,-24.5001
14:18:21.302,61.6252,-24.1876
14:18:21.310,61.594,-24.2501
14:18:21.321,62.469,-20.1876
14:18:21.330,64.1877,-16.4376
14:18:21.340,66.469,-10.0625
14:18:21.350,69.0628,-4.1875
14:18:21.361,71.6565,4.125
14:18:21.370,73.9378,10.6875
14:18:21.381,75.6565,17.7501
14:18:21.390,76.719,21.7501
14:18:21.422,76.7815,25.8126
14:18:21.425,75.5628,27.4376
14:18:21.426,74.6565,28.5001
14:18:21.451,72.9378,28.0626
14:18:21.454,71.2503,28.3751
14:18:21.455,69.2815,27.0001
14:18:21.462,67.6253,26.3126
14:18:21.476,66.0628,24.8751
14:18:21.481,64.1252,23.9376
14:18:21.515,62.7815,23.0626
14:18:21.518,61.719,22.4376
14:18:21.520,60.2815,21.7501
14:18:21.527,59.094,20.3751
14:18:21.542,57.844,19.5001
14:18:21.543,55.344,17.7501
14:18:21.573,53.469,15.1876
14:18:21.575,51.1564,12.875
14:18:21.581,50.5627,11.6875
14:18:21.582,47.9377,9.625
14:18:21.592,46.9064,8.375
14:18:21.601,45.5939,7.375
14:18:21.610,44.8127,7.5625
14:18:21.621,44.5002,6.875
14:18:21.629,43.7502,8.4375
14:18:21.650,43.8127,7.625
14:18:21.655,43.1252,8.6875
14:18:21.670,43.5314,8.6875
14:18:21.674,42.1252,8.9375
14:18:21.690,41.0002,8.8125
14:18:21.691,40.0002,9.0625
14:18:21.701,39.8439,7.625
14:18:21.710,38.8126,7.5
14:18:21.723,37.8751,6.4375
14:18:21.737,36.5939,4.75
14:18:21.741,35.5314,3.6875
14:18:21.751,34.6876,2.625
14:18:21.761,32.7814,1.3125
14:18:21.771,32.1876,0.3125
14:18:21.781,30.7189,-1.125
14:18:21.791,29.4689,-2.625
14:18:21.801,28.0939,-4.875
14:18:21.812,25.8438,-7
14:18:21.820,23.5001,-8.6875
14:18:21.832,22.0001,-11.3125
14:18:21.841,20.2188,-13.4376
14:18:21.852,19.0938,-15.3126
14:18:21.860,17.0626,-16.7501
14:18:21.871,15.8751,-18.8751
14:18:21.880,13.8126,-19.8751
14:18:21.894,13.0625,-21.4376
14:18:21.901,11.4375,-24.3126
14:18:21.912,10.0938,-24.6876
14:18:21.920,8.9063,-26.0001
14:18:21.931,8.0938,-27.5001
14:18:21.939,8.0938,-27.6251
14:18:21.951,6.5938,-28.5001
14:18:21.960,6.125,-29.6876
14:18:21.971,5.4375,-30.3126
14:18:21.980,4.6875,-31.3126
14:18:21.996,4.6875,-30.5626
14:18:22.011,5.0625,-30.6251
14:18:22.014,5.375,-29.6876
14:18:22.023,7.125,-27.0626
14:18:22.031,10.5313,-22.6876
14:18:22.043,14.8751,-15.1251
14:18:22.051,19.6563,-7.75
14:18:22.061,24.4688,1
14:18:22.073,29.4064,10.4375
14:18:22.110,33.9376,18.3751
14:18:22.111,37.5314,25.5001
14:18:22.114,40.1564,30.8751
14:18:22.116,42.3752,34.7501
14:18:22.122,43.8752,38.0001
14:18:22.147,44.6564,39.6877
14:18:22.150,44.0314,40.8752
14:18:22.152,44.0314,39.8127
14:18:22.186,42.8127,39.3752
14:18:22.188,42.3752,38.5001
14:18:22.190,40.5939,37.9376
14:18:22.197,40.2189,36.5001
14:18:22.209,39.8752,35.6251
14:18:22.213,38.8751,34.8126
14:18:22.240,37.7814,33.8126
14:18:22.242,37.5001,32.5001
14:18:22.245,36.3126,29.3751
14:18:22.251,34.0001,27.6876
14:18:22.265,33.3751,26.0626
14:18:22.273,32.1251,23.8751
14:18:22.281,30.9064,22.7501
14:18:22.291,30.3126,20.8126
14:18:22.302,29.8751,19.5001
14:18:22.310,28.8439,18.3126
14:18:22.322,27.7501,18.0001
14:18:22.331,27.8439,18.5626
14:18:22.340,28.9064,18.4376
14:18:22.351,28.4689,18.7501
14:18:22.363,27.4064,20.1876
14:18:22.371,27.8126,19.5626
14:18:22.381,28.2189,19.0626
14:18:22.392,27.2814,17.7501
14:18:22.401,26.0001,16.6876
14:18:22.412,25.0001,16.8126
14:18:22.422,24.3751,16.0626
14:18:22.431,23.9376,14.8751
14:18:22.441,22.7813,12.6875
14:18:22.451,21.7188,10.625
14:18:22.462,20.3438,10.375
14:18:22.471,20.1563,8.125
14:18:22.483,18.4376,5.6875
14:18:22.494,17.3126,5.5
14:18:22.502,17.0938,3.6875
14:18:22.511,16.1251,1.125
14:18:22.521,14.5001,0.375
14:18:22.531,14.2501,-0.6875
14:18:22.542,13.4063,-2.5625
14:18:22.551,12.8125,-3.8125
14:18:22.561,12.25,-3.5
14:18:22.572,12.0313,-5.9375
14:18:22.584,11.3438,-7.375
14:18:22.592,10.4063,-8.625
14:18:22.602,8.8438,-8.5
14:18:22.611,8.625,-10.6875
14:18:22.621,7.0313,-12.75
14:18:22.636,4.625,-14.3751
14:18:22.641,1.8438,-16.7501
14:18:22.652,0.0313,-19.6251
14:18:22.663,-3.6875,-23.0626
14:18:22.671,-6.5625,-24.6876
14:18:22.698,-9.5,-28.3751
14:18:22.701,-11.4688,-31.7501
14:18:22.703,-13.4688,-32.8126
14:18:22.712,-12.7188,-31.9376
14:18:22.721,-11.1875,-30.5626
14:18:22.733,-8.4375,-25.6876
14:18:22.741,-2.2813,-18.6876
14:18:22.754,2.4063,-10.5625
14:18:22.762,8.625,0.5625
14:18:22.771,15.0001,9.6875
14:18:22.781,20.3438,17.4376
14:18:22.791,24.7813,26.3126
14:18:22.803,29.0001,32.3126
14:18:22.811,31.0001,37.5001
14:18:22.821,33.3439,40.5002
14:18:22.831,33.4689,41.5002
14:18:22.842,33.5939,42.4377
14:18:22.851,33.0314,41.3127
14:18:22.861,31.5001,41.5002
14:18:22.887,31.5314,38.9376
14:18:22.890,30.4064,39.0627
14:18:22.892,29.6564,36.3126
14:18:22.921,28.7814,35.9376
14:18:22.924,28.7814,34.3126
14:18:22.926,27.4064,33.1876
14:18:22.933,25.8751,32.9376
14:18:23.000,25.2501,29.6876
14:18:23.000,23.7501,27.0626
14:18:23.001,22.1876,24.5001
14:18:23.009,21.0001,23.0626
14:18:23.010,20.1563,20.7501
14:18:23.010,18.9688,18.3751
14:18:23.017,18.1251,17.3751
14:18:23.043,17.3438,17.3751
14:18:23.046,18.1876,17.1876
14:18:23.049,17.8751,16.8751
14:18:23.063,17.9376,18.1251
14:18:23.069,18.5938,18.4376
14:18:23.076,18.6251,17.9376
14:18:23.086,18.0313,18.3751
14:18:23.096,18.3751,19.4376
14:18:23.107,18.3126,18.6876
14:18:23.116,17.5626,17.0626
14:18:23.126,16.6251,16.5626
14:18:23.136,16.2813,15.3126
14:18:23.147,15.0001,14.5626
14:18:23.156,13.8126,12.125
14:18:23.166,12.625,9.625
14:18:23.177,10.375,5.125
14:18:23.186,8.8125,4.0625
14:18:23.196,8.5625,2.125
14:18:23.206,7.375,0
14:18:23.216,5.7188,-2.625
14:18:23.228,4.3125,-3.6875
14:18:23.238,3.9375,-5.9375
14:18:23.246,2.375,-7.875
14:18:23.257,0.5,-8.25
14:18:23.267,0.1563,-11.3125
14:18:23.277,-0.5938,-13.3126
14:18:23.299,-1.5625,-14.5001
14:18:23.302,-2.1875,-15.9376
14:18:23.316,-3.0313,-16.2501
14:18:23.319,-3.0938,-18.5001
14:18:23.326,-3.375,-19.4376
14:18:23.336,-3.9375,-20.9376
14:18:23.346,-4.5938,-22.1251
14:18:23.357,-5.5,-22.9376
14:18:23.366,-6.1563,-23.4376
14:18:23.378,-6.0938,-25.1876
14:18:23.386,-7.125,-25.4376
14:18:23.396,-8.125,-25.5626
14:18:23.407,-7.2813,-26.1876
14:18:23.416,-5.75,-25.0626
14:18:23.426,-3.2813,-20.6251
14:18:23.440,0.9375,-15.8751
14:18:23.449,5.2813,-7.8125
14:18:23.456,11.0625,1.5
14:18:23.466,16.7501,9.9375
14:18:23.476,22.0938,20.0001
14:18:23.487,26.4376,27.8126
14:18:23.496,30.1564,35.0001
14:18:23.530,33.3751,41.3127
14:18:23.531,35.2189,44.0002
14:18:23.534,35.8439,46.3752
14:18:23.536,36.4376,47.4377
14:18:23.574,35.1876,47.5627
14:18:23.576,35.0001,46.6252
14:18:23.579,33.1251,44.8127
14:18:23.585,32.7814,43.5627
14:18:23.587,31.4689,41.4377
14:18:23.601,30.4064,41.3127
14:18:23.606,30.4064,39.5627
14:18:23.637,29.5314,37.7501
14:18:23.641,28.0626,37.0626
14:18:23.643,27.5001,35.5626
14:18:23.646,25.8126,32.6876
14:18:23.664,24.0626,29.5626
14:18:23.666,21.6876,27.1876
14:18:23.690,19.9688,25.0626
14:18:23.693,19.8126,22.8126
14:18:23.697,19.3751,20.6876
14:18:23.706,18.1563,20.1876
14:18:23.722,17.9063,20.1876
14:18:23.731,18.7188,20.2501
14:18:23.743,19.1251,20.3126
14:18:23.751,19.6563,20.9376
14:18:23.761,19.6563,21.6876
14:18:23.771,20.0313,22.5001
14:18:23.783,21.0626,22.9376
14:18:23.791,21.0313,23.0001
14:18:23.802,20.2501,22.2501
14:18:23.816,19.7501,22.1876
14:18:23.823,18.9063,21.3126
14:18:23.833,18.7813,19.5001
14:18:23.841,17.3751,18.3751
14:18:23.851,16.4376,16.6876
14:18:23.861,15.4376,16.2501
14:18:23.871,14.0938,13.6251
14:18:23.882,12,9.875
14:18:23.891,10.2813,7.75
14:18:23.901,8.6563,6.625
14:18:23.911,7.8438,3.5
14:18:23.923,5.5313,1.375
14:18:23.931,4.4063,-1
14:18:23.941,2.6563,-2.75
14:18:23.951,1.5313,-4.625
14:18:23.979,0.125,-7.3125
14:18:23.981,-1.5313,-9.5625
14:18:23.983,-3.0313,-10.25
14:18:23.991,-3.4375,-11.8125
14:18:24.003,-4.4688,-14.0001
14:18:24.013,-5.8125,-16.1876
14:18:24.021,-7,-16.7501
14:18:24.031,-7.75,-18.0626
14:18:24.044,-8.25,-20.1251
14:18:24.051,-9.4063,-21.6251
14:18:24.061,-10.25,-23.0626
14:18:24.071,-10.8125,-23.1251
14:18:24.081,-11,-23.4376
14:18:24.091,-10.6875,-24.0001
14:18:24.104,-10.6875,-24.6876
14:18:24.111,-9.6875,-22.3751
14:18:24.121,-6.5313,-19.9376
14:18:24.131,-3.0625,-14.1251
14:18:24.142,2.3438,-6.5625
14:18:24.151,9.0313,2.375
14:18:24.161,15.1563,13.125
14:18:24.173,21.9376,22.3751
14:18:24.181,27.4376,33.0626
14:18:24.192,31.7814,40.5002
14:18:24.201,35.5001,47.6252
14:18:24.211,38.0001,51.5627
14:18:24.222,39.7502,54.6877
14:18:24.232,39.9689,56.3127
14:18:24.252,39.6564,55.8127
14:18:24.254,38.7189,55.7502
14:18:24.270,37.8751,54.0002
14:18:24.274,36.8751,52.8752
14:18:24.283,35.8439,50.5002
14:18:24.291,35.3126,49.3752
14:18:24.302,34.6251,47.8752
14:18:24.312,32.8751,45.4377
14:18:24.321,31.1251,44.0002
14:18:24.331,30.0001,42.3752
14:18:24.358,28.6564,39.2501
14:18:24.361,25.8751,35.8751
14:18:24.364,23.4688,33.3126
14:18:24.402,21.5001,29.8126
14:18:24.402,19.4688,26.5626
14:18:24.407,17.5001,24.9376
14:18:24.407,17.5626,23.1876
14:18:24.414,16.6876,22.5626
14:18:24.451,17.5001,22.7501
14:18:24.456,17.8126,23.3126
14:18:24.456,17.0626,23.5001
14:18:24.487,17.5626,23.7501
14:18:24.488,16.8438,23.9376
14:18:24.490,16.9376,24.1251
14:18:24.492,16.8438,24.0001
14:18:24.497,16.4688,23.6251
14:18:24.519,15.5938,22.6251
14:18:24.522,13.8438,21.8126
14:18:24.523,13.4376,20.1876
14:18:24.531,12.4375,18.2501
14:18:24.541,11.4688,16.1876
14:18:24.554,9.625,14.0001
14:18:24.567,8.375,11.8125
14:18:24.572,7,9.75
14:18:24.581,5.7813,7.4375
14:18:24.597,4.4688,5.875
14:18:24.611,3.125,3.5
14:18:24.613,0.625,1.5
14:18:24.622,-0.5,-0.8125
14:18:24.635,-2.0938,-3.6875
14:18:24.643,-3.75,-5.6875
14:18:24.651,-4.6563,-7.1875
14:18:24.663,-5.875,-8.9375
14:18:24.671,-5.7813,-10.5
14:18:24.682,-7.1563,-11.875
14:18:24.691,-7.6563,-13.6876
14:18:24.701,-8.7813,-15.4376
14:18:24.711,-9.8438,-16.1251
14:18:24.721,-10.1563,-18.2501
14:18:24.732,-11.6563,-19.6876
14:18:24.742,-13.1876,-20.8126
14:18:24.751,-13.7813,-21.8126
14:18:24.762,-13.9376,-21.5626
14:18:24.772,-13.7501,-22.8126
14:18:24.781,-13.9376,-23.8751
14:18:24.791,-14.1876,-24.7501
14:18:24.802,-14.3751,-24.6876
14:18:24.811,-14.1563,-24.0001
14:18:24.822,-11.7188,-22.3751
14:18:24.831,-8.4375,-17.6251
14:18:24.841,-3.0938,-10.625
14:18:24.851,2.2188,-1.75
14:18:24.863,9.4375,8.6875
14:18:24.871,15.9688,20.1251
14:18:24.885,22.7501,30.6251
14:18:24.891,28.4064,40.3752
14:18:24.901,33.0001,48.2502
14:18:24.912,35.5314,54.2502
14:18:24.923,37.2189,57.0002
14:18:24.931,37.1876,59.3127
14:18:24.946,37.4689,59.0627
14:18:24.952,36.0939,58.5627
14:18:24.962,34.8751,56.2502
14:18:24.971,33.5001,55.0002
14:18:24.984,32.1876,52.3752
14:18:24.991,31.0939,50.8127
14:18:25.002,30.2814,49.5627
14:18:25.021,28.8126,47.8127
14:18:25.026,27.9064,45.8752
14:18:25.032,26.0313,43.9377
14:18:25.063,23.6251,41.3752
14:18:25.065,22.2501,39.3752
14:18:25.067,20.2501,35.5626
14:18:25.074,17.6251,32.6251
14:18:25.101,16.0313,29.0001
14:18:25.103,14.2501,27.3751
14:18:25.106,13.6876,24.8126
14:18:25.111,12.4375,24.5626
14:18:25.128,12.625,22.6251
14:18:25.133,12.2813,23.3751
14:18:25.165,13.2813,23.4376
14:18:25.167,13.2813,25.3126
14:18:25.171,14.7501,24.7501
14:18:25.175,14.5001,26.1876
14:18:25.182,14.0001,25.0001
14:18:25.191,13.0313,25.5626
14:18:25.204,12.8438,24.0001
14:18:25.212,12.1875,23.6876
14:18:25.221,11.625,21.7501
14:18:25.233,10.4375,20.2501
14:18:25.258,9.3438,18.4376
14:18:25.262,7.5625,15.3751
14:18:25.263,5.9688,13.4376
14:18:25.273,4.1563,10.25
14:18:25.282,2.25,8.3125
14:18:25.293,1.125,5.75
14:18:25.303,0.1875,3.3125
14:18:25.311,-1.4375,1.5
14:18:25.322,-2.375,-1.0625
14:18:25.331,-4.5,-3.3125
14:18:25.341,-5.375,-5.75
14:18:25.353,-7.25,-8.1875
14:18:25.362,-8.5625,-9.9375
14:18:25.371,-9.3438,-11.75
14:18:25.383,-10.5313,-13.6251
14:18:25.391,-10.9688,-15.4376
14:18:25.401,-12.3438,-16.3751
14:18:25.412,-13.4063,-18.6251
14:18:25.421,-13.9688,-19.5626
14:18:25.431,-14.2188,-21.0626
14:18:25.443,-14.7501,-22.7501
14:18:25.453,-14.7813,-23.4376
14:18:25.462,-15.2188,-24.3126
14:18:25.471,-15.4063,-25.3751
14:18:25.481,-16.7813,-26.1876
14:18:25.494,-17.6251,-28.0626
14:18:25.503,-19.0313,-28.7501
14:18:25.513,-19.5001,-30.3751
14:18:25.522,-19.1563,-30.2501
14:18:25.533,-18.3126,-29.9376
14:18:25.548,-16.6876,-27.2501
14:18:25.553,-12.9375,-22.6876
14:18:25.569,-8.0313,-14.9376
14:18:25.572,-2.125,-6
14:18:25.582,4.5313,4.5625
14:18:25.595,11.6563,15.3751
14:18:25.602,17.0001,25.6876
14:18:25.611,22.2813,34.3126
14:18:25.625,25.8751,41.9377
14:18:25.632,28.3751,46.2502
14:18:25.642,29.5314,49.5627
14:18:25.653,29.7814,50.1877
14:18:25.663,28.8126,49.8752
14:18:25.672,27.7189,48.3752
14:18:25.682,26.3439,46.6877
14:18:25.694,25.2188,45.3752
14:18:25.704,24.1251,43.0002
14:18:25.713,22.5626,41.2502
14:18:25.723,20.8126,41.0627
14:18:25.732,19.8126,37.9376
14:18:25.742,19.1563,35.5001
14:18:25.751,17.8126,34.9376
14:18:25.762,16.2188,31.6876
14:18:25.771,13.5938,28.2501
14:18:25.781,11.375,25.6876
14:18:25.813,9.7188,22.3751
14:18:25.815,7.625,18.4376
14:18:25.818,5.6875,16.5626
14:18:25.824,4.25,15.1251
14:18:25.848,3.625,12
14:18:25.854,3.1563,12.25
14:18:25.856,3.0938,11.3125
14:18:25.890,3.25,11.8125
14:18:25.895,3.7813,13.2501
14:18:25.926,3.7188,13.0625
14:18:25.929,4.8438,14.2501
14:18:25.957,4.6563,14.6876
14:18:25.957,5.0625,14.1876
14:18:25.957,3.875,13.9376
14:18:25.958,3.1875,13.0625
14:18:25.960,1.75,11.1875
14:18:25.968,0.25,9.625
14:18:25.971,-0.4063,8
14:18:25.976,-1.3125,5.625
14:18:25.987,-1.375,5.0625
14:18:25.996,-2.4688,2.5
14:18:26.011,-3.7188,0.4375
14:18:26.017,-4.4063,-1.5625
14:18:26.027,-6.4688,-3.4375
14:18:26.040,-7.7813,-5.875
14:18:26.048,-9,-8.5
14:18:26.059,-10.4375,-10
14:18:26.073,-10.9688,-12.5625
14:18:26.078,-12.1563,-13.5626
14:18:26.086,-13.0938,-16.0001
14:18:26.097,-14.3751,-17.9376
14:18:26.107,-15.8751,-19.0001
14:18:26.117,-16.6563,-21.3126
14:18:26.127,-18.0938,-23.3751
14:18:26.138,-17.4688,-24.3751
14:18:26.147,-18.7501,-24.8751
14:18:26.157,-18.6876,-26.5626
14:18:26.169,-20.4063,-28.5001
14:18:26.178,-20.5626,-29.8751
14:18:26.189,-22.0938,-31.6251
14:18:26.197,-23.0313,-32.8751
14:18:26.207,-23.1876,-33.2501
14:18:26.218,-24.0938,-33.8751
14:18:26.227,-23.8751,-34.9376
14:18:26.237,-23.5313,-35.3751
14:18:26.249,-23.4063,-35.0626
14:18:26.257,-24.1251,-35.6876
14:18:26.267,-22.7813,-35.5001
14:18:26.277,-21.8751,-32.0001
14:18:26.290,-17.7813,-28.5001
14:18:26.298,-12.5938,-21.0626
14:18:26.308,-5.9375,-11
14:18:26.317,1.2813,0.5
14:18:26.327,8.9688,11.625
14:18:26.339,16.3438,24.3126
14:18:26.347,21.6876,32.8751
14:18:26.358,26.2813,41.6252
14:18:26.368,28.8751,46.3752
14:18:26.377,30.2814,50.0627
14:18:26.387,31.7189,52.5002
14:18:26.399,30.8439,53.0002
14:18:26.407,29.9689,52.0627
14:18:26.417,28.4376,50.1877
14:18:26.429,27.4376,48.1877
14:18:26.437,26.5001,46.4377
14:18:26.447,25.7188,44.9377
14:18:26.458,24.7813,43.7502
14:18:26.468,24.3438,42.6252
14:18:26.477,24.1251,40.2502
14:18:26.487,22.5313,38.5001
14:18:26.497,21.3438,36.5626
14:18:26.508,19.9688,33.3126
14:18:26.541,17.9376,30.5626
14:18:26.543,16.0626,28.7501
14:18:26.546,14.8751,25.6251
14:18:26.549,13.2501,23.0626
14:18:26.580,13.1563,22.0001
14:18:26.583,12.25,21.2501
14:18:26.585,11.8125,20.6876
14:18:26.587,11.8438,20.4376
14:18:26.615,11.625,20.2501
14:18:26.617,12.0625,21.3751
14:18:26.621,11.6563,22.5626
14:18:26.628,12.2188,21.2501
14:18:26.660,11.375,22.0001
14:18:26.662,10.625,21.6251
14:18:26.666,9.6563,19.3126
14:18:26.667,8.9063,18.6876
14:18:26.701,7.7188,16.6876
14:18:26.703,6.1563,15.4376
14:18:26.706,4.5,13.6876
14:18:26.708,3.4688,11.0625
14:18:26.717,1.7188,8.9375
14:18:26.728,0,6.4375
14:18:26.737,-1.0938,3.625
14:18:26.747,-2.4688,2
14:18:26.757,-3.375,-0.3125
14:18:26.767,-5.2188,-1.9375
14:18:26.778,-5.9688,-3.875
14:18:26.787,-7.0313,-6.5625
14:18:26.797,-8.75,-8.5
14:18:26.809,-9.9063,-10.3125
14:18:26.823,-11.0938,-12.8125
14:18:26.827,-12.5,-14.3751
14:18:26.849,-12.8438,-15.8126
14:18:26.851,-13.8438,-16.7501
14:18:26.866,-15.0313,-18.1876
14:18:26.871,-15.7188,-20.5001
14:18:26.877,-16.4688,-22.4376
14:18:26.887,-16.5626,-23.2501
14:18:26.901,-17.3438,-23.9376
14:18:26.907,-17.6876,-25.1251
14:18:26.917,-18.4376,-26.4376
14:18:26.927,-18.5938,-26.4376
14:18:26.937,-18.8751,-28.0001
14:18:26.948,-18.8438,-27.8751
14:18:26.957,-19.6251,-28.1251
14:18:26.967,-19.3126,-29.4376
14:18:26.977,-19.7501,-28.3751
14:18:26.988,-18.8126,-29.7501
14:18:26.998,-19.4688,-28.3751
14:18:27.008,-17.9063,-29.6876
14:18:27.018,-16.9063,-26.1251
14:18:27.027,-12.9063,-23.3126
14:18:27.037,-9.0625,-15.4376
14:18:27.047,-3.25,-7.75
14:18:27.057,4.2188,3.6875
14:18:27.067,11.1563,15.1251
14:18:27.078,17.7501,26.7501
14:18:27.092,23.1876,36.5626
14:18:27.103,27.5001,44.4377
14:18:27.113,30.0939,51.5627
14:18:27.122,32.0939,54.5002
14:18:27.132,32.1876,55.8752
14:18:27.143,32.0001,56.5002
14:18:27.152,30.2814,54.6877
14:18:27.162,28.9376,52.9377
14:18:27.173,27.7814,50.7502
14:18:27.189,25.8438,49.0002
14:18:27.205,24.1876,46.3752
14:18:27.207,21.9376,43.6877
14:18:27.214,21.3438,42.2502
14:18:27.240,20.4688,40.1252
14:18:27.242,18.5938,38.5001
14:18:27.246,16.8751,35.9376
14:18:27.253,14.4688,31.0626
14:18:27.279,11.625,27.3126
14:18:27.282,9.9375,25.6251
14:18:27.283,9.25,23.0001
14:18:27.322,8,20.8126
14:18:27.324,8.125,20.5001
14:18:27.327,8.0313,20.0626
14:18:27.331,7.1875,20.1876
14:18:27.332,7.5625,19.8751
14:18:27.342,7.7188,21.0626
14:18:27.386,8.3438,21.8751
14:18:27.386,8.4688,21.6251
14:18:27.390,8.25,23.0626
14:18:27.394,8.2188,23.0626
14:18:27.398,7.5938,22.0626
14:18:27.402,6.7188,20.7501
14:18:27.412,6.0938,19.1251
14:18:27.422,3.7813,17.1251
14:18:27.432,1.9375,14.8751
14:18:27.442,0.5,13.7501
14:18:27.453,-0.7188,10.625
14:18:27.463,-3.0625,8.0625
14:18:27.473,-4.5313,6.4375
14:18:27.483,-6,3.3125
14:18:27.492,-8.3125,1.1875
14:18:27.502,-9.875,-1.125
14:18:27.513,-11.6563,-3.8125
14:18:27.523,-13.3751,-5.875
14:18:27.533,-15.3438,-8.625
14:18:27.543,-16.2501,-11.25
14:18:27.554,-17.4688,-13.6251
14:18:27.563,-18.5938,-16.1251
14:18:27.574,-20.3438,-17.7501
14:18:27.582,-21.3438,-19.4376
14:18:27.592,-22.9376,-21.8751
14:18:27.602,-24.4376,-23.5626
14:18:27.616,-25.2188,-25.6251
14:18:27.622,-26.2188,-28.0626
14:18:27.632,-27.5939,-28.9376
14:18:27.643,-28.3439,-29.7501
14:18:27.652,-28.9376,-31.1876
14:18:27.663,-29.2814,-32.5001
14:18:27.672,-29.0001,-32.8126
14:18:27.682,-29.3126,-32.5001
14:18:27.695,-29.1251,-34.2501
14:18:27.702,-28.5939,-33.8126
14:18:27.712,-28.7814,-33.8126
14:18:27.723,-27.0626,-32.5001
14:18:27.739,-24.5001,-28.7501
14:18:27.747,-19.5313,-23.1876
14:18:27.757,-13.0938,-13.6876
14:18:27.767,-7.4375,-2.8125
14:18:27.779,-0.1563,7.5
14:18:27.787,5.2188,19.1251
14:18:27.819,10.9063,28.1876
14:18:27.821,15.3751,35.6251
14:18:27.823,18.2813,42.1252
14:18:27.830,19.9688,45.6877
14:18:27.838,20.5938,47.9377
14:18:27.847,19.9376,48.2502
14:18:27.857,19.2501,46.8127
14:18:27.867,16.9063,46.0002
14:18:27.878,15.0313,42.1877
14:18:27.887,13.3126,39.4377
14:18:27.897,10.2188,36.2501
14:18:27.909,8.4688,33.5001
14:18:27.917,7.4375,31.1251
14:18:27.946,5.5313,29.5626
14:18:27.948,4.2188,26.7501
14:18:27.951,2.4688,22.8751
14:18:27.957,-0.375,18.8126
14:18:27.987,-2.7188,16.0001
14:18:27.989,-4.8438,12.625
14:18:27.993,-6.25,9.9375
14:18:27.999,-6.9688,7.8125
14:18:28.028,-7.5625,7.6875
14:18:28.033,-7.3438,6.5
14:18:28.033,-7.75,7.9375
14:18:28.038,-7.375,7.0625
14:18:28.064,-6.9688,8.9375
14:18:28.066,-5.9688,9.5625
14:18:28.070,-6.0938,10.8125
14:18:28.099,-5.5,10.25
14:18:28.103,-5.7813,11.4375
14:18:28.104,-5.9688,10.1875
14:18:28.109,-6.5938,9
14:18:28.120,-7.1563,8.4375
14:18:28.127,-8.75,7.25
14:18:28.145,-10,4.6875
14:18:28.152,-10.9375,2.5625
14:18:28.167,-12.1563,0.625
14:18:28.169,-13.9376,-0.1875
14:18:28.177,-15.2188,-3.625
14:18:28.187,-16.8751,-4.4375
14:18:28.197,-17.8126,-8.125
14:18:28.210,-19.7501,-9.5625
14:18:28.218,-20.5626,-12.625
14:18:28.227,-22.4688,-13.8751
14:18:28.241,-22.2813,-16.0626
14:18:28.247,-24.1876,-17.4376
14:18:28.257,-24.9063,-20.1876
14:18:28.267,-26.2501,-21.0626
14:18:28.277,-27.0939,-24.0001
14:18:28.288,-28.3751,-24.6251
14:18:28.297,-29.1564,-28.1251
14:18:28.307,-30.3439,-29.1251
14:18:28.318,-30.8439,-30.8126
14:18:28.327,-31.7501,-32.7501
14:18:28.337,-31.8126,-33.6876
14:18:28.348,-33.4376,-33.8126
14:18:28.357,-33.6251,-36.0001
14:18:28.367,-33.5939,-36.6251
14:18:28.377,-34.9064,-38.1876
14:18:28.388,-34.7814,-38.7501
14:18:28.398,-34.2501,-38.8751
14:18:28.408,-35.0626,-38.2501
14:18:28.419,-33.6876,-38.4376
14:18:28.427,-31.5939,-34.3126
14:18:28.438,-27.3439,-30.1876
14:18:28.447,-21.3438,-21.7501
14:18:28.457,-15.4063,-12
14:18:28.468,-8.5313,-0.75
14:18:28.482,-0.7188,11.8125
14:18:28.499,5.7188,24.3126
14:18:28.501,10.7813,33.2501
14:18:28.507,14.9376,40.8127
14:18:28.519,16.9063,46.4377
14:18:28.527,18.4063,49.1252
14:18:28.538,19.0938,51.5627
14:18:28.548,18.0313,51.2502
14:18:28.557,17.9376,50.3752
14:18:28.570,16.0001,50.2502
14:18:28.578,14.8751,46.9377
14:18:28.587,14.5001,45.0627
14:18:28.597,12.5313,42.6252
14:18:28.607,11.875,40.5002
14:18:28.618,10.1875,39.5627
14:18:28.631,8.8125,37.0626
14:18:28.665,7.75,35.4376
14:18:28.667,5.8438,32.1876
14:18:28.670,4.375,29.6876
14:18:28.672,1.9063,25.6876
14:18:28.679,-0.4688,22.5626
14:18:28.714,-1.6563,19.1876
14:18:28.716,-3.75,16.6251
14:18:28.718,-4.4063,15.0001
14:18:28.745,-4.8125,14.4376
14:18:28.746,-4.625,14.0626
14:18:28.749,-4.4688,15.1876
14:18:28.754,-4.0938,16.6876
14:18:28.758,-3.8438,16.4376
14:18:28.795,-4.5625,17.0626
14:18:28.797,-4.5938,17.8126
14:18:28.804,-4.5938,17.5001
14:18:28.804,-4.4063,16.9376
14:18:28.809,-5.9688,16.0001
14:18:28.819,-6.9688,14.3126
14:18:28.829,-8.3438,12.875
14:18:28.837,-9.3125,10.6875
14:18:28.848,-11.1563,9.1875
14:18:28.859,-12.375,6.6875
14:18:28.875,-14.0313,4.0625
14:18:28.877,-14.9376,1.5625
14:18:28.888,-16.3751,0.4375
14:18:28.898,-17.3126,-2.5
14:18:28.908,-19.0001,-4.625
14:18:28.920,-20.1876,-7.3125
14:18:28.928,-21.8438,-8.375
14:18:28.939,-22.8126,-10
14:18:28.947,-24.0001,-12.6875
14:18:28.958,-24.7501,-15.5001
14:18:28.972,-25.1876,-16.5001
14:18:28.980,-26.2501,-18.8751
14:18:28.987,-27.4689,-20.1876
14:18:29.000,-27.6564,-21.6251
14:18:29.009,-29.2814,-23.5001
14:18:29.020,-29.8126,-24.8751
14:18:29.027,-30.4376,-26.4376
14:18:29.041,-30.6564,-26.6251
14:18:29.047,-31.4064,-28.8751
14:18:29.060,-32.5626,-29.6876
14:18:29.069,-32.2501,-31.6251
14:18:29.099,-32.8751,-30.8751
14:18:29.102,-32.7501,-33.1876
14:18:29.103,-33.2189,-32.2501
14:18:29.110,-32.2189,-33.3751
14:18:29.119,-32.4689,-32.1251
14:18:29.127,-30.5314,-30.8751
14:18:29.139,-27.6564,-26.6876
14:18:29.148,-23.2813,-20.5001
14:18:29.158,-16.1251,-10.875
14:18:29.168,-9.5,0.625
14:18:29.177,-1.5625,12.875
14:18:29.187,5.9063,25.3126
14:18:29.197,12.375,36.1251
14:18:29.207,17.6876,44.9377
14:18:29.219,20.6563,53.1877
14:18:29.227,22.5313,58.6877
14:18:29.238,23.5626,60.0002
14:18:29.248,22.3438,60.7502
14:18:29.257,20.7501,58.8127
14:18:29.268,19.1563,56.6252
14:18:29.279,15.8126,53.5002
14:18:29.288,13.8438,50.3127
14:18:29.298,11.25,48.0627
14:18:29.309,9.1563,44.4377
14:18:29.317,6.5625,41.5627
14:18:29.327,4.8125,39.0626
14:18:29.339,2.4063,37.0626
14:18:29.347,-0.125,32.1876
14:18:29.365,-2.8125,28.6251
14:18:29.368,-4.5313,25.4376
14:18:29.377,-7.9375,21.5001
14:18:29.387,-10.125,18.1251
14:18:29.399,-11.8438,14.0626
14:18:29.409,-12.9688,12.875
14:18:29.432,-13.9688,11.9375
14:18:29.434,-13.5001,10.75
14:18:29.461,-14.0938,11.3125
14:18:29.491,-13.3126,12.125
14:18:29.558,-12.8125,12.1875
14:18:29.558,-12.625,13.5001
14:18:29.559,-11.7188,14.2501
14:18:29.589,-11.7813,14.1251
14:18:29.593,-11.8125,14.3751
14:18:29.593,-12.5313,14.1251
14:18:29.594,-13.5626,13.3751
14:18:29.597,-13.9063,12.5
14:18:29.602,-15.0001,10.25
14:18:29.605,-16.6563,8.625
14:18:29.613,-17.6563,6.875
14:18:29.624,-18.7501,4.0625
14:18:29.635,-19.9688,1.5
14:18:29.644,-21.5938,-0.375
14:18:29.654,-22.3126,-2.5625
14:18:29.663,-23.7501,-4.875
14:18:29.674,-25.2188,-6.875
14:18:29.683,-25.6251,-8.1875
14:18:29.696,-25.8126,-9.8125
14:18:29.704,-26.5314,-12.25
14:18:29.714,-27.2814,-14.0001
14:18:29.724,-27.3751,-14.9376
14:18:29.733,-35.0314,-26.9376
14:18:29.744,-34.9064,-28.0626
14:18:29.752,-35.5001,-29.5626
14:18:29.765,-35.5001,-30.6876
14:18:29.778,-35.4376,-31.3751
14:18:29.795,-36.0314,-32.3126
14:18:29.798,-36.2501,-31.6876
14:18:29.812,-35.8126,-32.8751
14:18:29.814,-35.3439,-33.0626
14:18:29.830,-34.7501,-32.5626
14:18:29.834,-34.3751,-32.8751
14:18:29.843,-32.9376,-32.5001
14:18:29.855,-31.0626,-29.8126
14:18:29.863,-26.7501,-24.1876
14:18:29.873,-21.4063,-16.8126
14:18:29.884,-14.1563,-5.875
14:18:29.893,-6.1563,6.625
14:18:29.905,1.375,19.8126
14:18:29.913,9.0625,31.3126
14:18:29.923,14.3438,42.3752
14:18:29.934,19.2501,51.0002
14:18:29.945,22.8126,57.0627
14:18:29.954,24.2501,61.4377
14:18:29.963,25.0313,63.5002
14:18:29.974,24.4063,63.3127
14:18:29.983,23.2188,62.0002
