timestamp,Red,IR
11:07:43.884,-41.6252,-64.9377
11:07:43.891,-44.5002,-67.9378
11:07:43.901,-47.8127,-71.6878
11:07:43.912,-50.4377,-76.0628
11:07:43.922,-54.4377,-79.1878
11:07:43.942,-57.1877,-82.9378
11:07:43.945,-60.5002,-87.1878
11:07:43.962,-63.7502,-90.0003
11:07:43.962,-64.2502,-91.8754
11:07:43.993,-64.9377,-91.5004
11:07:43.995,-61.7502,-88.0003
11:07:43.998,-53.6877,-78.8128
11:07:44.003,-43.1877,-64.8127
11:07:44.035,-33.8751,-49.3127
11:07:44.037,-24.2501,-32.5001
11:07:44.041,-14.2501,-17.9376
11:07:44.047,-5.625,-3.4375
11:07:44.062,0.9375,9.3125
11:07:44.063,7.5625,19.2501
11:07:44.094,11.0625,27.0626
11:07:44.096,14.4376,32.8751
11:07:44.099,14.6876,35.6876
11:07:44.106,15.6251,37.5001
11:07:44.112,14.3751,38.1876
11:07:44.123,13.1251,37.6876
11:07:44.131,12.75,35.8126
11:07:44.142,11.4375,36.1251
11:07:44.152,11.25,34.3751
11:07:44.162,8.875,32.8751
11:07:44.174,8.0625,30.8126
11:07:44.185,5.375,29.2501
11:07:44.192,3.875,24.4376
11:07:44.201,0.5625,21.3751
11:07:44.212,-1.9375,16.1876
11:07:44.223,-4.8125,12.875
11:07:44.231,-6.375,9.25
11:07:44.241,-7,5.75
11:07:44.251,-8,3.9375
11:07:44.263,-9.4375,2.6875
11:07:44.273,-10.0625,2.4375
11:07:44.281,-10.5,1.75
11:07:44.291,-10.1875,1.4375
11:07:44.301,-10.8125,0
11:07:44.312,-11.375,-0.25
11:07:44.327,-12.4375,-0.875
11:07:44.342,-12.125,-1.4375
11:07:44.345,-13.2501,-3.3125
11:07:44.351,-13.8751,-5.8125
11:07:44.363,-16.3126,-8.9375
11:07:44.372,-18.6876,-13
11:07:44.381,-20.3126,-14.7501
11:07:44.391,-22.3126,-18.1251
11:07:44.401,-24.1876,-20.7501
11:07:44.412,-24.7501,-24.0001
11:07:44.422,-27.7501,-27.6876
11:07:44.431,-29.6876,-29.9376
11:07:44.442,-30.2501,-33.6876
11:07:44.453,-32.3751,-36.0001
11:07:44.462,-34.3126,-39.0001
11:07:44.472,-36.6251,-41.6252
11:07:44.482,-38.5626,-45.5627
11:07:44.491,-40.7502,-49.5627
11:07:44.501,-42.8752,-51.3127
11:07:44.512,-43.4377,-54.5002
11:07:44.522,-45.6877,-57.8127
11:07:44.531,-47.2502,-58.0627
11:07:44.542,-47.8752,-61.6252
11:07:44.551,-49.3752,-62.9377
11:07:44.563,-50.3752,-64.8752
11:07:44.574,-51.8127,-68.0628
11:07:44.582,-52.6877,-69.4378
11:07:44.592,-55.4377,-72.6878
11:07:44.601,-57.2502,-74.6253
11:07:44.611,-59.0002,-76.1878
11:07:44.622,-59.4377,-79.1253
11:07:44.631,-60.6252,-79.1878
11:07:44.641,-59.5627,-81.6878
11:07:44.651,-59.1252,-80.4378
11:07:44.661,-55.0002,-77.1253
11:07:44.672,-47.7502,-67.6253
11:07:44.681,-37.6876,-55.1877
11:07:44.709,-26.1251,-39.0626
11:07:44.711,-14.6251,-22.3126
11:07:44.713,-3.5625,-4.3125
11:07:44.724,7.0625,11.375
11:07:44.732,16.9376,27.5001
11:07:44.742,23.3751,39.1876
11:07:44.752,29.5626,49.0627
11:07:44.761,33.8126,55.6877
11:07:44.771,36.5001,61.5627
11:07:44.781,37.3126,64.1252
11:07:44.792,38.3751,65.9378
11:07:44.802,38.3126,67.0003
11:07:44.811,38.8751,68.1878
11:07:44.821,39.3752,67.8128
11:07:44.832,40.0627,69.3128
11:07:44.842,39.1251,68.1253
11:07:44.853,39.3752,67.5003
11:07:44.863,37.9376,66.9378
11:07:44.877,36.1251,64.0627
11:07:44.887,33.5626,59.9377
11:07:44.897,30.8751,56.1252
11:07:44.906,28.0001,51.1252
11:07:44.917,24.5001,46.5002
11:07:44.927,21.5001,43.3752
11:07:44.937,19.4376,39.0626
11:07:44.947,17.1876,36.2501
11:07:44.957,15.7501,33.5626
11:07:44.969,15.3126,32.1251
11:07:44.977,13.4376,30.7501
11:07:44.987,11.75,28.1876
11:07:44.997,9.9375,26.8751
11:07:45.006,9.125,24.5001
11:07:45.016,7.3125,22.6251
11:07:45.027,5.25,20.1876
11:07:45.037,2.5625,17.5001
11:07:45.046,1,14.3126
11:07:45.056,-1.5,11.5625
11:07:45.066,-3.9375,7.4375
11:07:45.077,-6.5625,3.8125
11:07:45.087,-8.6875,-0.625
11:07:45.097,-11.5,-4.625
11:07:45.107,-14.8126,-9.8125
11:07:45.116,-18.1876,-13.5001
11:07:45.127,-20.3126,-16.1251
11:07:45.137,-22.1876,-20.1251
11:07:45.146,-23.8751,-23.3751
11:07:45.157,-24.9376,-27.3751
11:07:45.166,-27.6251,-30.6876
11:07:45.177,-30.5001,-34.2501
11:07:45.186,-32.8751,-37.3126
11:07:45.196,-34.8126,-39.7502
11:07:45.206,-36.3126,-42.5627
11:07:45.216,-37.8126,-45.8752
11:07:45.239,-39.5002,-48.8127
11:07:45.240,-41.4377,-52.0627
11:07:45.260,-42.0002,-53.6252
11:07:45.260,-43.8752,-56.0627
11:07:45.267,-46.0002,-58.6252
11:07:45.277,-47.0627,-60.9377
11:07:45.287,-49.4377,-64.1877
11:07:45.298,-51.0627,-66.9378
11:07:45.309,-52.3127,-67.7503
11:07:45.317,-52.1252,-70.2503
11:07:45.327,-53.8752,-70.2503
11:07:45.336,-53.7502,-72.6878
11:07:45.346,-51.7502,-72.3128
11:07:45.355,-49.6252,-69.1878
11:07:45.366,-43.5002,-62.4377
11:07:45.376,-36.2501,-51.5002
11:07:45.387,-25.3126,-36.4376
11:07:45.396,-14.5626,-19.3126
11:07:45.406,-1.8125,-2.0625
11:07:45.430,6.5625,14.1876
11:07:45.433,14.2501,26.7501
11:07:45.440,19.8126,38.2501
11:07:45.447,24.3751,45.8752
11:07:45.482,26.8126,52.7502
11:07:45.483,28.5001,56.3127
11:07:45.486,29.3126,59.8127
11:07:45.490,28.7501,59.1252
11:07:45.504,28.4376,60.3127
11:07:45.509,27.6251,59.1877
11:07:45.536,27.3126,58.6877
11:07:45.538,26.5001,57.8127
11:07:45.540,25.1251,56.8752
11:07:45.547,24.3751,55.0002
11:07:45.557,22.1251,53.7502
11:07:45.566,20.1876,50.0627
11:07:45.578,17.5001,47.1877
11:07:45.587,14.2501,42.9377
11:07:45.596,11,36.8126
11:07:45.606,7.75,33.1251
11:07:45.623,5.9375,28.3751
11:07:45.629,3.3125,25.4376
11:07:45.637,1,21.8126
11:07:45.647,-0.3125,18.3126
11:07:45.662,-0.8125,17.0626
11:07:45.669,-1.125,16.5626
11:07:45.676,-2.125,15.9376
11:07:45.693,-3.25,14.1876
11:07:45.697,-4.8125,12.875
11:07:45.706,-5.9375,9.625
11:07:45.717,-6.875,7.9375
11:07:45.726,-7.5,6.5
11:07:45.737,-7.875,5.4375
11:07:45.747,-9.625,2.125
11:07:45.756,-11.6875,-0.75
11:07:45.768,-13.6251,-3.8125
11:07:45.776,-16.1251,-7.1875
11:07:45.786,-19.1876,-12.4375
11:07:45.796,-20.9376,-15.8126
11:07:45.806,-22.6251,-18.6251
11:07:45.817,-24.5001,-21.8126
11:07:45.827,-27.2501,-25.2501
11:07:45.836,-29.3751,-28.8126
11:07:45.847,-31.2501,-32.5001
11:07:45.857,-33.1251,-35.5001
11:07:45.867,-35.0001,-39.1877
11:07:45.876,-36.7501,-41.6252
11:07:45.888,-38.5001,-45.1877
11:07:45.897,-40.5627,-48.5627
11:07:45.906,-40.8752,-50.6877
11:07:45.938,-43.0627,-52.7502
11:07:45.939,-43.8127,-54.6877
11:07:45.942,-45.0627,-56.4377
11:07:45.949,-45.2502,-58.4377
11:07:45.957,-46.3752,-60.3752
11:07:45.966,-48.0627,-62.3752
11:07:45.977,-49.3752,-64.5002
11:07:45.986,-50.5002,-67.7503
11:07:45.996,-52.7502,-69.1878
11:07:46.007,-53.8127,-72.7503
11:07:46.017,-55.6877,-75.8128
11:07:46.027,-56.8127,-77.0628
11:07:46.036,-58.1877,-80.2503
11:07:46.047,-58.6877,-81.0628
11:07:46.056,-56.3127,-79.0003
11:07:46.067,-50.8127,-73.5003
11:07:46.076,-42.5002,-61.4377
11:07:46.088,-31.1876,-47.4377
11:07:46.097,-18.8751,-31.0001
11:07:46.107,-7.8125,-13.7501
11:07:46.117,2.6875,3.0625
11:07:46.127,12.8125,17.0001
11:07:46.137,18.6876,29.8751
11:07:46.146,24.3751,39.0002
11:07:46.156,26.9376,45.3752
11:07:46.168,29.6251,49.7502
11:07:46.177,29.4376,52.3127
11:07:46.186,31.4376,53.6877
11:07:46.196,31.2501,54.1877
11:07:46.207,32.4376,54.3127
11:07:46.217,31.1876,54.6877
11:07:46.226,31.7501,54.0627
11:07:46.237,30.6251,53.0002
11:07:46.247,29.5001,51.0627
11:07:46.256,27.3126,49.5627
11:07:46.268,25.5626,45.8752
11:07:46.276,21.3126,41.5002
11:07:46.287,17.3751,37.3126
11:07:46.297,14.4376,32.1876
11:07:46.308,11.5625,27.6251
11:07:46.317,8.1875,24.1876
11:07:46.326,5.25,20.0626
11:07:46.336,3.5625,17.5626
11:07:46.346,3.5,15.4376
11:07:46.358,2.8125,14.7501
11:07:46.368,3.1875,14.9376
11:07:46.376,2.9375,14.1251
11:07:46.387,3.8125,13.6251
11:07:46.398,3.6875,13.6876
11:07:46.408,2.8125,11.5625
11:07:46.417,2.5,9.9375
11:07:46.453,0.875,7.9375
11:07:46.455,-0.5,6.625
11:07:46.458,-2.875,3.5
11:07:46.467,-4.4375,-0.625
11:07:46.477,-6.1875,-3.625
11:07:46.487,-8.9375,-6.375
11:07:46.497,-10.75,-9.5
11:07:46.507,-13.3751,-13.3126
11:07:46.517,-15.3751,-17.3126
11:07:46.535,-17.5626,-20.8751
11:07:46.537,-20.0626,-23.6876
11:07:46.551,-22.0626,-27.0001
11:07:46.566,-23.8126,-30.3126
11:07:46.569,-25.6251,-33.6876
11:07:46.579,-27.1876,-36.2501
11:07:46.586,-28.9376,-39.0626
11:07:46.596,-31.8751,-43.6252
11:07:46.607,-34.3126,-46.8127
11:07:46.617,-36.8751,-52.2502
11:07:46.626,-40.2502,-57.0002
11:07:46.636,-41.1877,-59.7502
11:07:46.647,-41.7502,-61.3752
11:07:46.658,-42.4377,-63.6877
11:07:46.667,-42.4377,-64.0627
11:07:46.677,-43.1877,-66.1253
11:07:46.686,-41.0627,-63.0627
11:07:46.697,-36.1876,-58.2502
11:07:46.707,-28.3751,-48.7502
11:07:46.716,-19.2501,-34.6251
11:07:46.728,-8.9375,-20.7501
11:07:46.737,-0.75,-6.5625
11:07:46.746,7.0625,7.3125
11:07:46.784,15.0626,18.0001
11:07:46.788,19.1251,26.3751
11:07:46.791,22.6251,33.6251
11:07:46.791,24.1251,36.6251
11:07:46.800,24.8751,39.0627
11:07:46.808,25.0626,39.3126
11:07:46.841,23.8126,38.8751
11:07:46.845,22.1876,38.8126
11:07:46.847,21.3126,36.2501
11:07:46.848,19.8126,33.6876
11:07:46.877,17.8751,32.8126
11:07:46.880,17.5626,29.6876
11:07:46.882,14.3751,26.6876
11:07:46.886,10.75,23.4376
11:07:46.898,8,17.6876
11:07:46.907,4,12.8125
11:07:46.916,0.5,8.0625
11:07:46.927,-1.5,4.125
11:07:46.945,-2.875,-0.4375
11:07:46.950,-3.875,-2.5625
11:07:46.958,-5.6875,-5
11:07:46.967,-6.375,-6.4375
11:07:46.983,-6.625,-6.5
11:07:46.991,-6.6875,-6.8125
11:07:46.997,-7.75,-7.1875
11:07:47.008,-8.375,-7.8125
11:07:47.017,-9.1875,-9.3125
11:07:47.027,-9.875,-10.375
11:07:47.039,-10.5625,-12.1875
11:07:47.048,-11.5,-13.6876
11:07:47.057,-13.0625,-16.3751
11:07:47.067,-15.1251,-19.3751
11:07:47.077,-16.9376,-22.8126
11:07:47.087,-20.3751,-26.3126
11:07:47.096,-22.4376,-30.4376
11:07:47.107,-25.6251,-33.6876
11:07:47.116,-27.2501,-38.0001
11:07:47.127,-30.1876,-40.9377
11:07:47.137,-32.1251,-44.0627
11:07:47.147,-35.0626,-47.7502
11:07:47.157,-36.9376,-50.6877
11:07:47.167,-38.3126,-53.0627
11:07:47.176,-39.1877,-55.2502
11:07:47.187,-39.8127,-57.0002
11:07:47.216,-40.9377,-59.4377
11:07:47.220,-42.6252,-61.8127
11:07:47.221,-43.3127,-64.2502
11:07:47.227,-45.3127,-66.6253
11:07:47.237,-46.4377,-68.8753
11:07:47.247,-48.3752,-71.2503
11:07:47.256,-50.1877,-74.6253
11:07:47.267,-51.3752,-76.4378
11:07:47.282,-52.5002,-79.1253
11:07:47.287,-53.4377,-80.6878
11:07:47.297,-53.2502,-81.5003
11:07:47.307,-50.8752,-78.7503
11:07:47.317,-45.2502,-72.8753
11:07:47.326,-36.7501,-60.5627
11:07:47.337,-27.3126,-47.5002
11:07:47.346,-15.4376,-30.4376
11:07:47.358,-5.6875,-15.3751
11:07:47.367,4.3125,0.625
11:07:47.376,10.625,12.25
11:07:47.387,16.5626,22.2501
11:07:47.397,19.0626,30.8751
11:07:47.407,21.2501,33.2501
11:07:47.416,21.6876,36.8751
11:07:47.427,22.1876,37.6251
11:07:47.437,21.6251,39.2502
11:07:47.446,20.5626,37.2501
11:07:47.455,19.6876,36.3751
11:07:47.467,18.1876,34.8126
11:07:47.476,16.5626,32.9376
11:07:47.485,15.7501,32.2501
11:07:47.497,14.0626,31.1251
11:07:47.509,13,28.0626
11:07:47.517,10.1875,25.8126
11:07:47.526,7.5,21.0626
11:07:47.537,4.1875,16.3126
11:07:47.547,1.5625,11.8125
11:07:47.557,-0.5625,8.125
11:07:47.566,-2.5625,5.375
11:07:47.576,-4.3125,2.375
11:07:47.585,-4.4375,0.25
11:07:47.597,-4.125,-0.5625
11:07:47.607,-4.5,-0.5
11:07:47.615,-5.25,-0.6875
11:07:47.627,-5,-1.4375
11:07:47.638,-5.125,-2.5625
11:07:47.649,-5.875,-3.0625
11:07:47.661,-7.5,-3.875
11:07:47.668,-9.125,-6.8125
11:07:47.675,-11.1875,-9.75
11:07:47.687,-12.75,-11.9375
11:07:47.697,-14.3126,-14.1251
11:07:47.707,-15.7501,-17.0626
11:07:47.717,-17.6876,-19.5626
11:07:47.726,-19.1251,-21.8126
11:07:47.736,-21.0001,-26.1251
11:07:47.746,-22.4376,-29.1876
11:07:47.756,-24.8126,-32.0001
11:07:47.765,-27.8126,-35.1251
11:07:47.776,-30.0001,-39.0001
11:07:47.788,-31.6251,-42.4377
11:07:47.797,-33.5626,-45.6252
11:07:47.806,-35.6251,-48.1252
11:07:47.817,-36.4376,-51.1877
11:07:47.828,-38.8126,-53.6252
11:07:47.837,-39.5627,-55.8127
11:07:47.852,-41.5627,-59.0002
11:07:47.862,-43.6877,-60.1877
11:07:47.866,-44.5002,-63.6252
11:07:47.885,-45.7502,-64.5627
11:07:47.887,-46.7502,-67.5003
11:07:47.902,-47.3752,-68.9378
11:07:47.907,-49.0002,-71.0003
11:07:47.917,-49.6252,-73.8753
11:07:47.926,-51.5002,-75.9378
11:07:47.937,-53.2502,-78.6253
11:07:47.947,-53.9377,-80.3753
11:07:47.957,-55.3752,-82.4378
11:07:47.988,-57.5627,-84.3753
11:07:47.992,-58.5002,-86.6253
11:07:47.993,-59.8752,-88.3753
11:07:47.998,-59.2502,-88.5003
11:07:48.025,-56.7502,-86.4378
11:07:48.028,-51.4377,-78.5628
11:07:48.031,-42.3127,-68.2503
11:07:48.056,-32.0001,-52.6877
11:07:48.060,-20.5001,-37.5001
11:07:48.062,-11,-20.1876
11:07:48.065,-1.1875,-6.1875
11:07:48.100,5.5,7.1875
11:07:48.102,12.125,17.5626
11:07:48.103,15.0626,24.8126
11:07:48.108,16.7501,30.5001
11:07:48.121,18.0626,32.9376
11:07:48.128,19.3751,35.4376
11:07:48.138,18.1876,36.4376
11:07:48.146,18.4376,35.9376
11:07:48.157,16.5001,35.5626
11:07:48.166,15.8126,34.6251
11:07:48.177,14.3751,33.6876
11:07:48.187,14.0626,32.7501
11:07:48.196,13.3126,32.4376
11:07:48.207,13.1876,30.7501
11:07:48.215,11.3125,29.3126
11:07:48.227,9.4375,25.9376
11:07:48.237,7.75,23.6251
11:07:48.247,6.25,20.1251
11:07:48.267,4.6875,17.2501
11:07:48.273,2.5625,14.3751
11:07:48.280,0.6875,11.4375
11:07:48.289,-0.875,8.75
11:07:48.304,-2.4375,7.875
11:07:48.312,-1.8125,6.375
11:07:48.318,-1.5,6.5
11:07:48.327,-0.875,6.0625
11:07:48.335,-1.6875,5.375
11:07:48.346,-1.625,5.375
11:07:48.357,-2,5.5
11:07:48.366,-1.6875,4.25
11:07:48.377,-2.3125,2.5
11:07:48.387,-3.4375,-0.25
11:07:48.397,-5.6875,-2.8125
11:07:48.406,-7.5,-5.25
11:07:48.416,-9.1875,-7.8125
11:07:48.427,-11.4375,-10.75
11:07:48.437,-12.875,-12.875
11:07:48.446,-14.4376,-15.3751
11:07:48.456,-15.3126,-19.4376
11:07:48.466,-17.3751,-22.3751
11:07:48.497,-19.1876,-25.9376
11:07:48.500,-21.0626,-27.8126
11:07:48.502,-22.3751,-31.1876
11:07:48.514,-24.0001,-34.8751
11:07:48.521,-26.5001,-38.0626
11:07:48.532,-29.0626,-41.6252
11:07:48.542,-31.5001,-44.0627
11:07:48.551,-33.1876,-48.4377
11:07:48.562,-36.1251,-51.3752
11:07:48.570,-38.5626,-53.5002
11:07:48.582,-40.3752,-57.2502
11:07:48.591,-42.3127,-60.4377
11:07:48.602,-44.1252,-63.3127
11:07:48.610,-45.3752,-65.6878
11:07:48.622,-47.0627,-68.3753
11:07:48.631,-48.4377,-70.9378
11:07:48.644,-50.3127,-73.5628
11:07:48.652,-51.6252,-74.5628
11:07:48.662,-50.6877,-75.1878
11:07:48.673,-47.0627,-70.0628
11:07:48.681,-40.0627,-62.9377
11:07:48.692,-32.2501,-51.8127
11:07:48.703,-22.8751,-38.1876
11:07:48.712,-13.6876,-24.6876
11:07:48.721,-5,-11
11:07:48.731,0.625,-0.125
11:07:48.742,5.625,7.8125
11:07:48.753,8.6875,15.0626
11:07:48.760,10.375,18.1251
11:07:48.771,10.75,21.0626
11:07:48.781,10.75,21.5626
11:07:48.790,10.625,22.3751
11:07:48.802,10.25,22.3751
11:07:48.812,9.0625,22.1251
11:07:48.822,8.8125,21.0626
11:07:48.832,7.4375,19.8751
11:07:48.842,7.625,19.1251
11:07:48.852,6.625,18.2501
11:07:48.861,6.375,16.5001
11:07:48.873,3.5625,14.2501
11:07:48.884,1.5625,10.25
11:07:48.897,0.0625,8.125
11:07:48.909,-1.75,4.5625
11:07:48.915,-4.0625,1.5625
11:07:48.927,-5.75,-1.5
11:07:48.936,-8,-3.9375
11:07:48.947,-8.375,-5.6875
11:07:48.956,-9.25,-7.1875
11:07:48.967,-9.625,-7.625
11:07:48.977,-9.1875,-7.625
11:07:48.986,-9.3125,-7.25
11:07:48.997,-9.0625,-7.875
11:07:49.009,-9.6875,-8.9375
11:07:49.016,-10.125,-10.1875
11:07:49.025,-10.6875,-10.5625
11:07:49.036,-12.1875,-12.8125
11:07:49.046,-12.8125,-15.2501
11:07:49.056,-13.6876,-17.6251
11:07:49.068,-13.1876,-19.0001
11:07:49.076,-14.8126,-21.1251
11:07:49.086,-15.3751,-23.5626
11:07:49.096,-17.5626,-26.0001
11:07:49.106,-19.0001,-28.8126
11:07:49.116,-19.8751,-30.0001
11:07:49.127,-21.5626,-33.8751
11:07:49.136,-23.0626,-35.5001
11:07:49.146,-24.6251,-38.3751
11:07:49.156,-25.8751,-41.2502
11:07:49.171,-26.8126,-42.5002
11:07:49.179,-27.8751,-45.9377
11:07:49.187,-28.5626,-47.1877
11:07:49.202,-30.0001,-49.8127
11:07:49.217,-31.5626,-52.6877
11:07:49.220,-33.5001,-55.1252
11:07:49.227,-36.0626,-57.4377
11:07:49.237,-37.1251,-59.6252
11:07:49.246,-38.8126,-62.0627
11:07:49.263,-40.4377,-63.8127
11:07:49.267,-41.1252,-66.3128
11:07:49.277,-42.9377,-68.1878
11:07:49.287,-43.1877,-69.1878
11:07:49.295,-44.6877,-72.1253
11:07:49.307,-45.8127,-72.7503
11:07:49.316,-46.8127,-74.7503
11:07:49.327,-47.3127,-76.8753
11:07:49.336,-49.0627,-78.3753
11:07:49.347,-50.4377,-80.1253
11:07:49.357,-51.5002,-82.7503
11:07:49.366,-52.7502,-84.2503
11:07:49.376,-53.7502,-85.2503
11:07:49.386,-53.5002,-87.1878
11:07:49.397,-53.5002,-86.6878
11:07:49.407,-50.6252,-84.6253
11:07:49.417,-43.8752,-77.7503
11:07:49.428,-34.5626,-64.8752
11:07:49.436,-23.5626,-51.1252
11:07:49.446,-13.7501,-35.9376
11:07:49.456,-3.3125,-21.5626
11:07:49.467,4.875,-9.25
11:07:49.476,11.125,1.75
11:07:49.486,15.1251,10.8125
11:07:49.497,18.5001,15.7501
11:07:49.507,20.1876,19.3751
11:07:49.516,21.0626,21.8751
11:07:49.527,21.5626,22.7501
11:07:49.536,21.8126,23.6251
11:07:49.562,20.3126,24.1876
11:07:49.566,20.2501,22.7501
11:07:49.567,19.3751,22.8751
11:07:49.639,19.6876,21.5001
11:07:49.640,18.6876,21.6251
11:07:49.688,18.9376,19.5626
11:07:49.689,17.8751,20.0626
11:07:49.692,17.1876,17.6251
11:07:49.692,15.6876,14.9376
11:07:49.692,13.6251,12.8125
11:07:49.693,11.625,9.6875
11:07:49.697,9.75,7.125
11:07:49.702,9.5625,4.875
11:07:49.707,8.5625,3.75
11:07:49.716,8.0625,3.75
11:07:49.726,8.625,3.4375
11:07:49.736,9.4375,3.1875
11:07:49.747,10.4375,3.75
11:07:49.779,10.8125,5.125
11:07:49.780,10.5625,5.25
11:07:49.783,10.9375,4.6875
11:07:49.788,10.6875,4.0625
11:07:49.798,10.1875,4.1875
11:07:49.807,9.0625,2.375
11:07:49.815,9.125,1.4375
11:07:49.827,7.625,-0.9375
11:07:49.836,5.3125,-1.0625
11:07:49.846,0.4375,-12
11:07:49.857,-0.5625,-15.1876
11:07:49.866,-2.3125,-17.3751
11:07:49.876,-3.625,-19.0001
11:07:49.886,-4.875,-21.1251
11:07:49.897,-5.625,-24.5626
11:07:49.907,-7.5,-26.1876
11:07:49.918,-8.3125,-27.6251
11:07:49.926,-9.875,-29.6876
11:07:49.936,-9.8125,-32.5626
11:07:49.947,-10.75,-33.3751
11:07:49.956,-11.4375,-35.3751
11:07:49.967,-11.9375,-36.0001
11:07:49.978,-12.375,-36.9376
11:07:49.986,-13.1876,-38.6251
11:07:49.997,-14.5626,-40.5002
11:07:50.007,-15.9376,-42.1252
11:07:50.016,-17.3751,-45.0627
11:07:50.027,-18.4376,-45.5627
11:07:50.036,-19.7501,-48.2502
11:07:50.046,-21.4376,-50.8127
11:07:50.060,-22.6251,-51.5002
11:07:50.067,-23.1251,-53.6877
11:07:50.076,-25.0001,-55.9377
11:07:50.086,-26.3126,-56.3127
11:07:50.095,-26.3126,-58.8752
11:07:50.108,-27.7501,-59.1252
11:07:50.116,-27.3751,-61.3127
11:07:50.127,-26.6251,-61.0627
11:07:50.137,-24.0001,-57.4377
11:07:50.145,-17.9376,-50.8752
11:07:50.156,-10.75,-40.5002
11:07:50.166,-1.3125,-26.6876
11:07:50.176,8.1875,-14.5626
11:07:50.189,15.3126,-1.125
11:07:50.197,20.9376,8.1875
11:07:50.206,24.7501,15.3751
11:07:50.216,27.2501,21.5001
11:07:50.227,29.1251,25.1876
11:07:50.236,28.7501,27.3751
11:07:50.245,28.1251,27.6251
11:07:50.256,27.1251,26.9376
11:07:50.267,24.8751,25.2501
11:07:50.276,23.5001,24.8126
11:07:50.286,21.6876,22.5001
11:07:50.297,20.2501,21.8751
11:07:50.307,20.2501,20.1251
11:07:50.316,18.4376,19.1876
11:07:50.328,16.4376,17.1876
11:07:50.339,14.7501,13.5626
11:07:50.345,12.125,10.6875
11:07:50.356,9.0625,7.4375
11:07:50.366,6.25,3.6875
11:07:50.376,3.8125,0.75
11:07:50.388,2.25,-2.3125
11:07:50.397,0.875,-4.0625
11:07:50.406,0.3125,-5.625
11:07:50.416,0.5625,-5
11:07:50.425,0.75,-4.3125
11:07:50.441,2.1875,-4.125
11:07:50.446,3.875,-2.375
11:07:50.457,4.6875,-1.25
11:07:50.466,4.5,-0.6875
11:07:50.486,4.25,-0.6875
11:07:50.489,2.625,-1.9375
11:07:50.499,2.125,-4.0625
11:07:50.507,0.9375,-5.5
11:07:50.522,-0.125,-6.5625
11:07:50.537,-2.125,-8.25
11:07:50.541,-3.1875,-10.6875
11:07:50.545,-3.8125,-12.4375
11:07:50.556,-6.25,-15.5001
11:07:50.566,-7.4375,-17.0626
11:07:50.577,-9.875,-21.0001
11:07:50.587,-11.875,-23.1876
11:07:50.596,-13.6876,-26.5001
11:07:50.607,-15.4376,-28.1876
11:07:50.617,-16.7501,-30.9376
11:07:50.626,-18.3126,-33.1876
11:07:50.637,-18.9376,-35.3126
11:07:50.647,-20.1876,-37.1876
11:07:50.656,-21.5626,-38.5626
11:07:50.666,-21.9376,-40.0002
11:07:50.678,-22.7501,-41.6252
11:07:50.686,-23.1876,-42.3752
11:07:50.697,-23.1876,-44.4377
11:07:50.708,-24.5626,-45.1877
11:07:50.717,-25.5001,-48.6877
11:07:50.726,-27.1251,-49.1877
11:07:50.735,-28.3126,-52.0002
11:07:50.747,-29.8751,-53.3127
11:07:50.759,-30.7501,-55.5627
11:07:50.771,-31.6876,-57.5627
11:07:50.776,-32.2501,-57.5002
11:07:50.786,-32.0626,-59.0002
11:07:50.796,-32.5001,-58.9377
11:07:50.807,-29.6876,-56.8752
11:07:50.815,-25.1251,-51.0627
11:07:50.827,-17.5626,-41.8127
11:07:50.836,-10,-29.9376
11:07:50.845,-0.625,-16.5001
11:07:50.856,7.6875,-5.3125
11:07:50.867,13.8751,7.125
11:07:50.876,20.1251,15.3751
11:07:50.888,23.1251,22.8126
11:07:50.897,26.0001,27.5001
11:07:50.905,26.1876,29.6876
11:07:50.917,25.8751,31.5001
11:07:50.927,25.1251,30.9376
11:07:50.937,22.6876,30.5626
11:07:50.952,22.3751,28.9376
11:07:51.029,20.0001,26.8751
11:07:51.029,18.2501,26.5001
11:07:51.031,18.1251,24.6876
11:07:51.033,16.9376,23.4376
11:07:51.058,16.1251,23.1876
11:07:51.063,15.0001,20.3126
11:07:51.063,12.8125,18.0626
11:07:51.063,9.6875,15.0626
11:07:51.072,7.125,11.5
11:07:51.110,5.875,8.3125
11:07:51.111,2.75,6
11:07:51.113,2.125,3.5
11:07:51.119,1.3125,2.875
11:07:51.122,1.125,2.8125
11:07:51.132,0.625,2.0625
11:07:51.141,1.25,1.875
11:07:51.150,2.0625,3.75
11:07:51.162,2.375,4.6875
11:07:51.172,3.25,4.1875
11:07:51.180,3.25,5
11:07:51.191,2.1875,4.5625
11:07:51.202,1.9375,2.625
11:07:51.211,1.125,1.6875
11:07:51.222,-0.4375,-0.125
11:07:51.231,-7.5,-9.5
11:07:51.240,-9.625,-12.125
11:07:51.252,-11,-14.6251
11:07:51.262,-12.4375,-16.3126
11:07:51.272,-14.7501,-18.8751
11:07:51.281,-15.3751,-21.5626
11:07:51.291,-16.6876,-23.3126
11:07:51.300,-17.5626,-25.6876
11:07:51.312,-18.4376,-27.4376
11:07:51.321,-20.0001,-29.0626
11:07:51.332,-21.0001,-31.5001
11:07:51.341,-21.9376,-33.8751
11:07:51.352,-23.2501,-34.9376
11:07:51.360,-24.1251,-36.5001
11:07:51.371,-26.0626,-38.0626
11:07:51.381,-26.9376,-40.3127
11:07:51.391,-28.6876,-43.4377
11:07:51.401,-29.5001,-44.4377
11:07:51.414,-31.2501,-46.6877
11:07:51.420,-31.6876,-47.7502
11:07:51.430,-31.8126,-48.7502
11:07:51.441,-30.8126,-47.1252
11:07:51.452,-26.1251,-41.6877
11:07:51.462,-19.3751,-32.9376
11:07:51.472,-10.8125,-20.9376
11:07:51.481,-1.3125,-8.125
11:07:51.491,6.75,4.4375
11:07:51.502,13.6251,15.6251
11:07:51.513,19.0626,25.1251
11:07:51.522,22.9376,32.9376
11:07:51.530,24.5001,38.4376
11:07:51.540,26.8126,41.2502
11:07:51.551,26.5626,42.3752
11:07:51.568,25.5001,44.5627
11:07:51.571,25.0626,43.6877
11:07:51.581,24.3126,42.1252
11:07:51.592,22.6251,40.8127
11:07:51.601,20.5626,40.8127
11:07:51.612,19.5001,38.8126
11:07:51.621,17.9376,36.6251
11:07:51.632,16.0626,35.0001
11:07:51.641,15.6876,33.0001
11:07:51.653,13.7501,30.5001
11:07:51.661,12.1875,28.6251
11:07:51.671,10.8125,26.6876
11:07:51.682,9.8125,24.6876
11:07:51.691,9.125,22.1251
11:07:51.701,7.6875,19.9376
11:07:51.713,7.0625,18.3751
11:07:51.722,6.25,17.6251
11:07:51.731,5.6875,17.3751
11:07:51.742,6,16.6876
11:07:51.751,6.375,16.8751
11:07:51.762,6.9375,17.8751
11:07:51.772,6.9375,17.6251
11:07:51.781,7.75,17.5001
11:07:51.790,7.8125,16.9376
11:07:51.806,7.1875,17.3126
11:07:51.814,6.6875,15.5001
11:07:51.821,6.25,14.5626
11:07:51.837,6.5,12.9375
11:07:51.854,4.4375,11.4375
11:07:51.857,3.0625,9.5625
11:07:51.861,2.6875,6.8125
11:07:51.872,1.5625,5.625
11:07:51.881,1.1875,4.125
11:07:51.892,0.4375,2.5625
11:07:51.900,-0.125,0.1875
11:07:51.911,-1.875,-1.875
11:07:51.920,-2.8125,-3.875
11:07:51.932,-5,-5.75
11:07:51.941,-5.875,-8.9375
11:07:51.952,-7.375,-11.3125
11:07:51.960,-10.5,-14.0001
11:07:51.972,-12.875,-16.6876
11:07:51.981,-15.3126,-20.2501
11:07:51.992,-17.2501,-24.0626
11:07:52.001,-20.1251,-26.5626
11:07:52.012,-22.8751,-29.7501
11:07:52.020,-24.3126,-32.3126
11:07:52.030,-26.1251,-34.5626
11:07:52.042,-27.9376,-36.6876
11:07:52.051,-28.0001,-37.7501
11:07:52.061,-25.8126,-36.1876
11:07:52.070,-21.5001,-30.5001
11:07:52.081,-13.8751,-20.4376
11:07:52.090,-5.5625,-9.8125
11:07:52.101,3.0625,3.4375
11:07:52.111,10.5,15.2501
11:07:52.121,17.9376,27.0001
11:07:52.131,22.7501,34.9376
11:07:52.142,26.1251,43.3752
11:07:52.151,27.4376,45.8127
11:07:52.161,27.9376,49.0002
11:07:52.171,27.5001,49.1252
11:07:52.182,28.1876,50.2502
11:07:52.192,27.8751,50.1877
11:07:52.200,26.6876,49.5627
11:07:52.210,27.9376,49.2502
11:07:52.245,27.1251,49.3127
11:07:52.247,27.7501,48.8127
11:07:52.249,27.3751,48.1877
11:07:52.251,26.5001,47.1877
11:07:52.286,24.8751,44.7502
11:07:52.315,21.6876,41.5627
11:07:52.384,19.0626,38.0626
11:07:52.384,17.0626,34.2501
11:07:52.385,14.7501,31.7501
11:07:52.385,13.5626,29.1251
11:07:52.385,13.3751,28.4376
11:07:52.387,14.1251,27.5626
11:07:52.391,14.1876,27.5001
11:07:52.397,14.9376,29.2501
11:07:52.399,15.5626,28.8126
11:07:52.399,16.0626,29.1876
11:07:52.405,15.8751,28.4376
11:07:52.416,15.1251,27.8751
11:07:52.425,14.1251,27.7501
11:07:52.436,12.625,26.5001
11:07:52.446,11.625,24.0001
11:07:52.457,10.8125,22.0626
11:07:52.465,9.875,20.1876
11:07:52.477,8.5,17.6251
11:07:52.485,6.0625,15.6251
11:07:52.495,3.5,13.3751
11:07:52.505,2,10.0625
11:07:52.516,-3.875,-0.125
11:07:52.527,-5.375,-2.6875
11:07:52.537,-7.1875,-4.5625
11:07:52.546,-9.1875,-6.5
11:07:52.557,-10.1875,-10.0625
11:07:52.566,-11.125,-12.625
11:07:52.576,-12,-14.8126
11:07:52.586,-13.3751,-17.3126
11:07:52.596,-15.2501,-20.3126
11:07:52.607,-17.5626,-22.4376
11:07:52.617,-19.5626,-24.3126
11:07:52.626,-21.6876,-27.5001
11:07:52.635,-23.1251,-30.0001
11:07:52.645,-22.8751,-31.1251
11:07:52.657,-20.0001,-28.1876
11:07:52.667,-14.7501,-21.6251
11:07:52.677,-8.3125,-11.75
11:07:52.685,-1.5,0.5
11:07:52.696,6.5625,10.4375
11:07:52.705,12.125,20.4376
11:07:52.715,17.9376,30.8126
11:07:52.726,21.4376,37.0001
11:07:52.741,23.5626,42.6877
11:07:52.746,24.4376,45.1877
11:07:52.755,23.4376,45.3127
11:07:52.767,22.0626,45.0627
11:07:52.776,20.8751,44.7502
11:07:52.786,18.8751,42.5002
11:07:52.797,17.1876,41.2502
11:07:52.807,17.2501,39.8752
11:07:52.815,15.4376,38.8126
11:07:52.826,15.7501,36.8751
11:07:52.835,14.2501,35.9376
11:07:52.847,13.0625,32.4376
11:07:52.856,9.9375,29.8751
11:07:52.865,7.9375,25.4376
11:07:52.876,5.9375,22.6251
11:07:52.886,3.9375,19.3751
11:07:52.895,3.25,16.8126
11:07:52.908,3,14.7501
11:07:52.917,2.6875,13.8126
11:07:52.925,2.125,13.1876
11:07:52.935,1.6875,12.75
11:07:52.948,2.75,11.875
11:07:52.957,2.0625,11.9375
11:07:52.965,2.125,11.8125
11:07:52.976,2.5625,10.875
11:07:52.991,1.5625,10.4375
11:07:53.002,0.8125,9.25
11:07:53.012,-1,6.9375
11:07:53.022,-2.5625,4.75
11:07:53.031,-3.375,2
11:07:53.042,-4,0.375
11:07:53.050,-6.4375,-1.5
11:07:53.061,-7.6875,-3.8125
11:07:53.070,-10.125,-7.375
11:07:53.082,-11.875,-10.375
11:07:53.091,-13.1876,-13.1876
11:07:53.100,-15.1876,-15.6251
11:07:53.122,-17.4376,-18.5626
11:07:53.125,-19.3126,-21.6251
11:07:53.136,-20.8751,-24.8751
11:07:53.140,-22.6876,-27.5626
11:07:53.157,-25.3126,-31.4376
11:07:53.163,-27.2501,-33.7501
11:07:53.170,-28.3751,-36.7501
11:07:53.182,-30.3126,-38.9376
11:07:53.191,-31.6876,-41.5627
11:07:53.201,-33.1876,-44.3127
11:07:53.210,-34.1876,-45.7502
11:07:53.222,-35.6251,-48.9377
11:07:53.232,-36.9376,-49.7502
11:07:53.241,-37.5626,-52.2502
11:07:53.252,-36.0001,-50.3752
11:07:53.261,-32.6876,-47.3127
11:07:53.271,-26.5001,-40.1252
11:07:53.281,-18.9376,-28.3751
11:07:53.291,-9.8125,-17.0001
11:07:53.300,-3.125,-5.25
11:07:53.311,2.75,6
11:07:53.321,7.625,13.6251
11:07:53.331,10.5625,19.5001
11:07:53.342,11.8125,23.5626
11:07:53.352,13.1876,25.2501
11:07:53.360,11.9375,26.3751
11:07:53.371,11.125,25.0626
11:07:53.380,9,24.3751
11:07:53.392,7.375,23.0626
11:07:53.401,6.4375,20.3126
11:07:53.411,4.25,20.2501
11:07:53.423,3.1875,17.5626
11:07:53.433,2.375,15.1251
11:07:53.442,1,13.8751
11:07:53.451,0.25,11.875
11:07:53.461,-2.5,8.6875
11:07:53.472,-5.625,4.875
11:07:53.481,-6.875,1.5625
11:07:53.497,-8.1875,-0.9375
11:07:53.501,-9.8125,-4.0625
11:07:53.510,-11.375,-6.1875
11:07:53.521,-12.125,-7.875
11:07:53.532,-13.125,-8.6875
11:07:53.541,-13.1251,-9.8125
11:07:53.551,-13,-8.8125
11:07:53.562,-12.125,-7.875
11:07:53.571,-12.375,-8
11:07:53.582,-11.6875,-8.625
11:07:53.591,-12.4375,-10.0625
11:07:53.617,-13.6876,-11.5
11:07:53.619,-15.0626,-12.6875
11:07:53.622,-16.8126,-14.5001
11:07:53.632,-17.6251,-16.6251
11:07:53.653,-18.5001,-19.3126
11:07:53.661,-20.8126,-22.1876
11:07:53.741,-21.7501,-23.3126
11:07:53.743,-22.9376,-26.2501
11:07:53.745,-24.6251,-28.5626
11:07:53.783,-26.5626,-31.3751
11:07:53.783,-27.6876,-34.5626
11:07:53.783,-29.8751,-36.0626
11:07:53.783,-30.3126,-39.1876
11:07:53.787,-31.8126,-41.7502
11:07:53.791,-31.7501,-43.0627
11:07:53.792,-33.1876,-45.1877
11:07:53.803,-35.4376,-47.8752
11:07:53.813,-36.8126,-49.5627
11:07:53.823,-37.3751,-52.8127
11:07:53.832,-38.4376,-53.7502
11:07:53.842,-39.3126,-55.0627
11:07:53.851,-39.4377,-57.8752
11:07:53.862,-41.1252,-59.6252
11:07:53.876,-42.4377,-60.6877
11:07:53.883,-43.3127,-63.2502
11:07:53.890,-44.2502,-65.3753
11:07:53.901,-44.9377,-67.3128
11:07:53.911,-46.8752,-69.6878
11:07:53.920,-50.6252,-78.4378
11:07:53.932,-44.3752,-72.9378
11:07:53.940,-37.9376,-63.9377
11:07:53.951,-28.2501,-51.3127
11:07:53.962,-19.1251,-39.0626
11:07:53.970,-10.9375,-24.6876
11:07:53.981,-3,-13.8751
11:07:53.990,1.6875,-5.8125
11:07:54.000,5,2.125
11:07:54.012,7.0625,5.1875
11:07:54.020,7.5625,8.125
11:07:54.032,7.4375,9.5
11:07:54.042,7.5625,8.75
11:07:54.051,6.0625,8.25
11:07:54.060,5.3125,8.1875
11:07:54.072,4.4375,6.0625
11:07:54.081,3.6875,6
11:07:54.091,4.4375,5.375
11:07:54.101,3.625,3.625
11:07:54.111,2.6875,4.6875
11:07:54.120,2.0625,1.3125
11:07:54.133,-0.125,-0.75
11:07:54.140,-2.0625,-3.5625
11:07:54.151,-4.875,-7.6875
11:07:54.160,-6.625,-10.0625
11:07:54.172,-8.375,-11.6875
11:07:54.181,-8.8125,-14.0626
11:07:54.194,-9.6875,-14.7501
11:07:54.200,-10.375,-14.8751
11:07:54.211,-10.4375,-16.0626
11:07:54.220,-10.6875,-15.5001
11:07:54.232,-11.1875,-14.7501
11:07:54.240,-11.125,-14.6251
11:07:54.251,-11.875,-15.3126
11:07:54.261,-12.6875,-15.6876
11:07:54.270,-12.75,-16.8126
11:07:54.280,-14.0001,-17.9376
11:07:54.290,-15.6251,-18.0626
11:07:54.300,-15.2501,-20.0001
11:07:54.312,-16.7501,-21.1876
11:07:54.322,-16.8126,-22.2501
11:07:54.333,-17.9376,-23.0001
11:07:54.341,-17.0001,-24.6876
11:07:54.350,-18.1251,-25.3751
11:07:54.362,-17.0626,-26.6251
11:07:54.371,-18.8751,-28.1251
11:07:54.382,-18.6251,-30.1876
11:07:54.390,-20.8751,-32.2501
11:07:54.402,-20.9376,-33.6876
11:07:54.413,-22.5626,-35.7501
11:07:54.422,-23.2501,-37.9376
11:07:54.439,-23.1251,-38.6251
11:07:54.441,-23.2501,-40.8752
11:07:54.457,-23.5001,-42.0627
11:07:54.471,-25.1876,-44.8752
11:07:54.474,-25.5001,-45.8127
11:07:54.485,-28.2501,-48.9377
11:07:54.490,-29.7501,-52.0002
11:07:54.502,-31.1876,-53.2502
11:07:54.510,-31.2501,-55.7502
11:07:54.522,-32.1876,-56.1252
11:07:54.533,-32.0626,-58.3127
11:07:54.541,-32.4376,-57.8752
11:07:54.551,-30.1251,-57.1877
11:07:54.562,-27.1251,-51.6252
11:07:54.571,-19.9376,-44.4377
11:07:54.582,-12.6875,-32.8126
11:07:54.591,-4.4375,-22.4376
11:07:54.601,1.75,-11.3125
11:07:54.611,8.0625,-1.875
11:07:54.629,12.375,5.25
11:07:54.630,15.6251,12.125
11:07:54.640,17.0001,15.5001
11:07:54.652,17.7501,18.3126
11:07:54.662,17.3126,19.3751
11:07:54.670,17.9376,18.6251
11:07:54.681,16.5626,19.3126
11:07:54.690,16.5001,17.5001
11:07:54.700,18.0001,18.3751
11:07:54.711,18.7501,17.7501
11:07:54.720,19.0001,18.8751
11:07:54.731,19.6876,17.1251
11:07:54.741,18.2501,16.0001
11:07:54.751,16.3751,12.25
11:07:54.761,13.2501,8.875
11:07:54.770,10.6875,4.8125
11:07:54.781,8.5,2.1875
11:07:54.790,7.625,-0.375
11:07:54.801,7,-2
11:07:54.810,5.8125,-2.5625
11:07:54.820,5.5,-2.8125
11:07:54.831,5.5,-2.5
11:07:54.840,4.5,-2.875
11:07:54.851,3.4375,-3.125
11:07:54.860,0.9375,-3.125
11:07:54.870,-7.125,-7.8125
11:07:54.897,-17.1251,-16.0001
11:07:54.900,-26.1251,-21.7501
11:07:54.901,-32.7501,-26.0626
11:07:54.911,-37.6876,-30.0626
11:07:54.921,-41.8127,-33.3126
11:07:54.933,-45.5002,-37.1876
11:07:54.940,-55.1877,-43.0627
11:07:54.950,-73.6878,-54.6877
11:07:54.960,-98.1879,-71.4378
11:07:54.976,-123.563,-88.0628
11:07:54.981,-148.0631,-105.2504
11:07:55.020,-170.8132,-120.5005
11:07:55.022,-183.3757,-127.2505
11:07:55.053,-188.8757,-131.188
11:07:55.095,-190.0007,-131.5005
11:07:55.099,-188.3757,-129.7505
11:07:55.099,-186.1257,-127.0005
11:07:55.099,-183.0007,-125.813
11:07:55.101,-180.7507,-123.063
11:07:55.103,-178.3757,-121.688
11:07:55.117,-183.8132,-123.8755
11:07:55.117,-190.5007,-128.2505
11:07:55.117,-196.5632,-132.2505
11:07:55.118,-198.2508,-132.563
11:07:55.125,-196.2507,-129.8755
11:07:55.135,-194.4382,-128.313
11:07:55.146,-189.1257,-123.313
11:07:55.156,-183.5007,-118.1255
11:07:55.165,-174.6257,-111.2504
11:07:55.175,-166.1256,-102.8754
11:07:55.185,-156.7506,-91.6879
11:07:55.195,-144.2505,-78.3753
11:07:55.205,-133.2505,-63.4377
11:07:55.217,-124.1255,-50.8752
11:07:55.225,-114.1254,-36.9376
11:07:55.237,-105.8129,-24.3751
11:07:55.246,-99.6254,-14.3751
11:07:55.255,-95.0004,-5.75
11:07:55.266,-91.5629,1.25
11:07:55.275,-87.6878,10.375
11:07:55.286,-85.6253,12.4375
11:07:55.296,-83.4378,16.4376
11:07:55.305,-82.0628,18.0001
11:07:55.315,-82.2503,19.4376
11:07:55.325,-79.9378,21.3751
11:07:55.335,-76.3753,24.6251
11:07:55.346,-74.0628,25.5626
11:07:55.355,-72.8128,26.5626
11:07:55.365,-71.9378,25.0001
11:07:55.375,-71.6253,23.3751
11:07:55.385,-70.4378,21.5001
11:07:55.396,-70.6253,20.9376
11:07:55.405,-70.5628,17.5626
11:07:55.416,-69.4378,18.3751
11:07:55.425,-69.8128,16.0626
11:07:55.435,-69.0003,14.8751
11:07:55.445,-68.5628,14.2501
11:07:55.455,-66.8753,14.6876
11:07:55.466,-63.3127,16.5626
11:07:55.475,-60.7502,17.9376
11:07:55.490,-57.5627,19.2501
11:07:55.496,-55.8127,19.8126
11:07:55.507,-53.9377,20.5626
11:07:55.516,-51.1252,20.3751
11:07:55.525,-50.1252,20.0001
11:07:55.535,-48.7502,19.2501
11:07:55.545,-48.7502,16.3751
11:07:55.556,-49.4377,13.5001
11:07:55.566,-49.5627,11
11:07:55.575,-49.6252,7.125
11:07:55.585,-48.8127,6.0625
11:07:55.596,-45.3127,4.1875
11:07:55.606,-42.8127,3.3125
11:07:55.615,-41.8752,1.75
11:07:55.626,-41.2502,-1.125
11:07:55.635,-40.5627,-3.4375
11:07:55.645,-39.6252,-7.5
11:07:55.655,-39.7502,-11.8125
11:07:55.665,-38.5626,-15.4376
11:07:55.675,-41.8752,-19.9376
11:07:55.686,-45.6252,-24.1876
11:07:55.696,-47.1252,-28.1251
11:07:55.705,-48.5002,-31.3751
11:07:55.716,-49.2502,-32.1876
11:07:55.727,-49.1877,-34.7501
11:07:55.736,-49.6252,-37.2501
11:07:55.757,-51.9377,-39.6252
11:07:55.759,-54.8127,-42.8752
11:07:55.770,-57.1877,-46.1252
11:07:55.775,-64.7502,-49.1877
11:07:55.790,-74.0628,-51.1252
11:07:55.799,-69.9378,-48.1877
11:07:55.807,-61.7502,-38.9376
11:07:55.816,-49.5627,-26.8126
11:07:55.826,-37.4376,-11.5
11:07:55.835,-24.1251,3.9375
11:07:55.845,-14.2501,19.1876
11:07:55.855,-6.875,31.2501
11:07:55.865,-3,40.6252
11:07:55.876,-1.375,47.5002
11:07:55.885,-0.3125,49.5627
11:07:55.895,-0.125,49.8752
11:07:55.905,1.0625,53.4377
11:07:55.915,2.5,54.3752
11:07:55.925,2.625,56.1877
11:07:55.936,1.75,55.3752
11:07:55.945,0.5,54.8127
11:07:55.956,1.5625,57.3127
11:07:55.965,4.125,57.5627
11:07:55.976,5.625,57.6252
11:07:55.985,6.1875,57.5627
11:07:55.996,5.5,55.4377
11:07:56.005,3.625,53.5002
11:07:56.015,0.75,50.0627
11:07:56.025,-1.9375,44.8752
11:07:56.035,-4.25,41.6877
11:07:56.045,-5.3125,39.3751
11:07:56.056,-8.75,35.8751
11:07:56.065,-10.25,33.1251
11:07:56.076,-10.4375,32.6876
11:07:56.085,-9.875,32.8751
11:07:56.095,-8.75,33.2501
11:07:56.105,-7.4375,35.0626
11:07:56.116,-5.8125,37.3126
11:07:56.125,-4.625,38.1876
11:07:56.135,-3.75,38.9376
11:07:56.145,-3.4375,38.2501
11:07:56.178,-5,37.5626
11:07:56.181,-6.6875,35.7501
11:07:56.183,-10.4375,31.3126
11:07:56.185,-13,26.9376
11:07:56.196,-14.8126,24.3751
11:07:56.207,-17.3126,20.8126
11:07:56.216,-21.6876,16.3751
11:07:56.226,-26.3126,10.1875
11:07:56.240,-30.3126,5.4375
11:07:56.245,-34.9376,-0.25
11:07:56.256,-38.2501,-4.4375
11:07:56.266,-41.3752,-9.6875
11:07:56.276,-42.8127,-12.375
11:07:56.285,-44.3752,-15.4376
11:07:56.295,-45.7502,-16.6876
11:07:56.305,-46.7502,-20.6876
11:07:56.316,-47.6252,-22.3126
11:07:56.326,-48.6877,-25.7501
11:07:56.335,-49.3752,-27.4376
11:07:56.345,-50.2502,-29.4376
11:07:56.361,-50.8752,-32.9376
11:07:56.377,-52.8127,-34.7501
11:07:56.379,-53.6877,-39.1252
11:07:56.425,-56.0627,-41.7502
11:07:56.427,-58.0002,-45.1252
11:07:56.429,-60.1252,-49.4377
11:07:56.431,-61.7502,-51.9377
11:07:56.431,-63.6252,-56.3752
11:07:56.438,-65.8753,-58.5002
11:07:56.467,-68.0628,-63.0002
11:07:56.469,-69.2503,-63.8752
11:07:56.471,-69.3128,-66.5628
11:07:56.478,-68.9378,-66.3753
11:07:56.507,-65.3752,-62.6252
11:07:56.510,-60.3127,-57.0002
11:07:56.511,-53.0002,-45.6252
11:07:56.519,-42.2502,-34.0626
11:07:56.532,-32.8126,-18.8751
11:07:56.536,-23.0626,-3.375
11:07:56.547,-13.6251,10.3125
11:07:56.557,-5.75,22.5001
11:07:56.566,-0.1875,33.6876
11:07:56.575,4.125,42.3752
11:07:56.585,7.625,48.6252
11:07:56.596,9.625,53.8127
11:07:56.605,12.75,59.6252
11:07:56.617,19.1251,66.3128
11:07:56.625,21.9376,70.0628
11:07:56.636,23.6876,71.7503
11:07:56.646,25.3126,71.1878
11:07:56.655,24.6251,70.1878
11:07:56.666,24.9376,71.5003
11:07:56.675,28.1251,73.8753
11:07:56.685,32.3751,76.8128
11:07:56.696,32.6876,77.0628
11:07:56.705,31.0001,74.1878
11:07:56.715,26.3126,68.2503
11:07:56.726,21.1251,62.1877
11:07:56.735,16.4376,56.5002
11:07:56.745,14.0626,51.1252
11:07:56.756,10.8125,47.0002
11:07:56.765,8.75,43.0002
11:07:56.775,6,39.0001
11:07:56.785,4.1875,36.1251
11:07:56.796,3.4375,34.8126
11:07:56.805,3.0625,33.6876
11:07:56.816,2.375,32.8751
11:07:56.826,2.5625,32.9376
11:07:56.835,1.625,30.3126
11:07:56.845,1.9375,29.1251
11:07:56.856,0.9375,27.3751
11:07:56.865,-1.625,24.4376
11:07:56.875,-2.4375,22.3751
11:07:56.886,-4.1875,20.3751
11:07:56.895,-6.875,17.2501
11:07:56.905,-6.9375,15.0001
11:07:56.916,-6.8125,13.3751
11:07:56.925,-7.0625,12.8125
11:07:56.935,-8.9375,10.0625
11:07:56.946,-12.875,5.5625
11:07:56.956,-18.0001,-0.75
11:07:56.965,-20.7501,-5.0625
11:07:56.975,-22.8126,-8.125
11:07:56.990,-26.0626,-11.375
11:07:56.995,-29.6251,-16.1251
11:07:57.005,-33.6251,-20.5001
11:07:57.016,-36.4376,-26.0001
11:07:57.025,-39.8127,-31.2501
11:07:57.041,-42.4377,-34.1251
11:07:57.051,-44.5002,-38.9376
11:07:57.060,-45.6252,-40.6252
11:07:57.077,-46.6252,-43.8127
11:07:57.092,-47.6252,-45.5627
11:07:57.097,-48.1877,-47.9377
11:07:57.103,-49.1877,-49.3752
11:07:57.110,-49.2502,-52.0002
11:07:57.120,-46.9377,-50.0002
11:07:57.130,-43.4377,-48.5627
11:07:57.140,-35.3751,-41.2502
11:07:57.150,-24.2501,-29.5001
11:07:57.160,-7.6875,-16.5001
11:07:57.170,13.3751,1.875
11:07:57.181,26.9376,17.7501
11:07:57.190,36.3751,30.2501
11:07:57.200,44.3127,45.4377
11:07:57.212,45.3127,50.8752
11:07:57.220,47.1877,52.5627
11:07:57.230,45.3127,53.4377
11:07:57.240,42.1877,52.1877
11:07:57.250,39.3752,51.9377
11:07:57.260,37.2501,50.3127
11:07:57.271,30.3126,46.7502
11:07:57.280,21.1251,40.9377
11:07:57.290,11.0625,33.0001
11:07:57.301,0.9375,27.5001
11:07:57.311,-7.4375,18.8126
11:07:57.320,-14.5626,11.875
11:07:57.330,-19.6251,6.75
11:07:57.340,-24.6251,1
11:07:57.350,-27.8751,-2.8125
11:07:57.365,-28.6251,-4.375
11:07:57.370,-27.5001,-5
11:07:57.383,-23.6876,-2.375
11:07:57.391,-21.0001,0.25
11:07:57.400,-15.1251,5.4375
11:07:57.410,-10.1875,9.625
11:07:57.420,-6.8125,12.4375
11:07:57.431,-2,16.6876
11:07:57.456,1.1875,20.6251
11:07:57.460,3.625,22.7501
11:07:57.466,4.1875,23.6251
11:07:57.473,1.875,21.3126
11:07:57.481,1.1875,18.4376
11:07:57.490,-1.125,16.0001
11:07:57.500,-3,12.3125
11:07:57.510,-5.4375,8.6875
11:07:57.520,-8.75,3.5625
11:07:57.530,-11.1875,-1.3125
11:07:57.540,-13.4376,-4.6875
11:07:57.550,-16.6876,-9.5625
11:07:57.560,-19.3751,-14.0626
11:07:57.571,-22.4376,-18.5001
11:07:57.580,-25.5626,-23.0626
11:07:57.590,-27.0626,-27.0001
11:07:57.600,-27.6876,-29.8126
11:07:57.610,-29.6876,-32.6251
11:07:57.620,-31.1251,-36.7501
11:07:57.630,-33.8126,-39.3127
11:07:57.640,-35.3126,-42.7502
11:07:57.651,-36.8751,-45.5002
11:07:57.660,-37.0001,-46.0002
11:07:57.670,-37.7501,-48.5627
11:07:57.693,-37.8126,-49.8127
11:07:57.699,-39.6252,-51.6877
11:07:57.703,-40.1252,-52.0627
11:07:57.716,-41.6877,-53.4377
11:07:57.723,-41.8127,-55.5002
11:07:57.730,-41.6877,-53.8127
11:07:57.746,-38.2501,-51.3127
11:07:57.750,-32.8751,-44.3127
11:07:57.760,-28.1251,-35.5001
11:07:57.771,-20.5001,-25.2501
11:07:57.780,-14.0001,-13.4376
11:07:57.790,-5.625,-1.8125
11:07:57.800,0.4375,9.9375
11:07:57.810,6.25,19.1251
11:07:57.820,9.875,27.4376
11:07:57.830,13.2501,32.5626
11:07:57.840,15.3751,36.3751
11:07:57.861,15.5001,38.6251
11:07:57.865,17.0626,40.3127
11:07:57.894,16.2501,40.3752
11:07:57.897,16.6876,40.8127
11:07:57.898,16.4376,38.8126
11:07:57.904,16.2501,36.9376
11:07:57.942,14.7501,35.0001
11:07:57.944,14.6876,31.8126
11:07:57.945,16.1251,30.0001
11:07:57.948,18.3751,27.9376
11:07:57.957,29.1251,28.0001
11:07:57.960,36.5626,27.5001
11:07:57.985,38.9376,26.0001
11:07:57.988,43.1252,25.4376
11:07:57.991,47.3752,26.5626
11:07:58.000,50.9377,27.1251
11:07:58.011,53.0627,26.4376
11:07:58.020,51.6252,24.8126
11:07:58.030,49.2502,22.3126
11:07:58.040,45.4377,18.4376
11:07:58.051,41.9377,14.9376
11:07:58.060,37.1251,11.4375
11:07:58.071,32.0626,6.6875
11:07:58.080,26.0001,1.5625
11:07:58.090,19.6251,-4.3125
11:07:58.100,11.25,-11.0625
11:07:58.113,-1.4375,-20.0001
11:07:58.123,-13,-30.1876
11:07:58.130,-23.0001,-37.8126
11:07:58.140,-29.8751,-42.9377
11:07:58.150,-38.2501,-48.6877
11:07:58.160,-50.9377,-56.3752
11:07:58.170,-58.8127,-61.6252
11:07:58.181,-61.7502,-64.0002
11:07:58.190,-60.8752,-64.5627
11:07:58.201,-61.0627,-65.1253
11:07:58.210,-60.3127,-64.9377
11:07:58.220,-57.9377,-63.8752
11:07:58.230,-55.6877,-62.5627
11:07:58.240,-53.2502,-61.0002
11:07:58.250,-51.4377,-60.5002
11:07:58.260,-50.7502,-60.0627
11:07:58.270,-51.7502,-62.3752
11:07:58.280,-52.8752,-66.3753
11:07:58.290,-52.7502,-67.5628
11:07:58.300,-52.0627,-68.7503
11:07:58.311,-52.5002,-68.0628
11:07:58.321,-51.5002,-69.0003
11:07:58.330,-50.7502,-66.5628
11:07:58.340,-47.3752,-63.5002
11:07:58.351,-42.5627,-55.8127
11:07:58.372,-34.2501,-47.3127
11:07:58.375,-26.1876,-34.8126
11:07:58.389,-17.7501,-23.5001
11:07:58.391,-10.25,-10.5
11:07:58.400,-2.9375,0.6875
11:07:58.411,1.75,10.75
11:07:58.421,5.875,16.6251
11:07:58.431,6.5625,21.6251
11:07:58.441,7.4375,24.0001
11:07:58.450,7,24.6876
11:07:58.460,7.5,25.5626
11:07:58.470,6.3125,26.6251
11:07:58.480,6.9375,26.0001
11:07:58.491,5.9375,26.3126
11:07:58.500,6.5625,25.0626
11:07:58.510,6.0625,25.2501
11:07:58.521,6.375,24.5001
11:07:58.531,5.75,24.8126
11:07:58.540,5.875,22.7501
11:07:58.550,3.875,21.6251
11:07:58.561,1.375,18.3751
11:07:58.570,-1.9375,15.0001
11:07:58.580,-4.1875,12.375
11:07:58.590,-6,9.625
11:07:58.601,-6.4375,7.5
11:07:58.610,-7.125,5.6875
11:07:58.621,-6.9375,5.375
11:07:58.631,-6.75,5.125
11:07:58.641,-6.5,5.875
11:07:58.650,-5.9375,5.75
11:07:58.660,-5.75,5.5625
11:07:58.670,-5.4375,5.375
11:07:58.681,-5.1875,5.375
11:07:58.690,-4.4375,5
11:07:58.700,-4,2.5
11:07:58.710,-4.75,0.25
11:07:58.737,-5.3125,-0.875
11:07:58.740,-6.625,-4
11:07:58.746,-5,-7.625
11:07:58.750,11.375,-4.5625
11:07:58.760,30.0626,1.75
11:07:58.770,39.2501,7.125
11:07:58.780,48.1252,10.625
11:07:58.790,53.8127,13.6251
11:07:58.801,59.9377,15.0626
11:07:58.810,63.3752,16.8751
11:07:58.820,64.2502,15.6876
11:07:58.831,61.8752,12.125
11:07:58.840,57.0627,7.5
11:07:58.850,51.1877,0.625
11:07:58.867,44.6877,-5.125
11:07:58.873,37.5626,-12.1875
11:07:58.881,31.2501,-18.6251
11:07:58.890,24.3126,-25.5626
11:07:58.900,17.5001,-31.0626
11:07:58.910,10.125,-37.2501
11:07:58.920,0.3125,-44.1252
11:07:58.931,-11.875,-53.4377
11:07:58.940,-23.9376,-62.5627
11:07:58.950,-37.3751,-68.0628
11:07:58.960,-46.1877,-71.1253
11:07:58.970,-53.0627,-69.7503
11:07:58.981,-56.9377,-65.1252
11:07:58.996,-55.6877,-57.0627
11:07:59.012,-49.0627,-44.1877
11:07:59.014,-40.6877,-29.4376
11:07:59.020,-32.5001,-17.2501
11:07:59.030,-25.6251,-7.6875
11:07:59.040,-19.0001,0.9375
11:07:59.051,-12.25,10.375
11:07:59.061,-7.375,16.3126
11:07:59.070,-2.625,21.1251
11:07:59.080,1.375,24.4376
11:07:59.090,1.8125,26.4376
11:07:59.100,2.375,27.4376
11:07:59.110,3.375,27.3126
11:07:59.120,3.3125,26.5001
11:07:59.131,4.25,27.1251
11:07:59.140,3.75,26.5001
11:07:59.151,3.8125,24.8126
11:07:59.160,1.6875,22.7501
11:07:59.171,-1.0625,19.1251
11:07:59.180,-3.1875,14.5001
11:07:59.190,-5.5,12.625
11:07:59.200,-8.125,8
11:07:59.210,-10.9375,4.375
11:07:59.220,-13.2501,1.5
11:07:59.230,-14.1876,0
11:07:59.253,-14.6876,-2.875
11:07:59.255,-15.8126,-3.875
11:07:59.289,-16.5626,-6.4375
11:07:59.290,-17.5001,-8.125
11:07:59.294,-18.3751,-9.6875
11:07:59.295,-19.9376,-12.375
11:07:59.300,-20.1876,-13.5626
11:07:59.332,-20.0626,-15.3751
11:07:59.334,-20.6876,-16.1876
11:07:59.336,-21.3751,-16.8126
11:07:59.341,-21.5001,-18.2501
11:07:59.370,-22.7501,-19.1251
11:07:59.372,-23.5001,-20.4376
11:07:59.374,-25.3751,-22.5626
11:07:59.380,-26.3126,-25.3751
11:07:59.390,-27.8126,-26.6251
11:07:59.401,-28.1251,-28.6876
11:07:59.410,-29.9376,-30.3126
11:07:59.421,-32.6251,-33.1251
11:07:59.430,-34.3126,-36.1876
11:07:59.440,-36.4376,-39.3752
11:07:59.450,-37.6251,-42.2502
11:07:59.460,-39.1251,-43.5627
11:07:59.471,-40.3127,-46.1877
11:07:59.480,-40.7502,-47.2502
11:07:59.490,-40.4377,-48.1252
11:07:59.500,-41.4377,-48.9377
11:07:59.510,-41.0002,-49.9377
11:07:59.520,-41.6877,-51.0002
11:07:59.530,-41.1877,-52.2502
11:07:59.542,-43.8752,-54.1252
11:07:59.551,-43.7502,-56.1252
11:07:59.561,-44.5002,-57.1252
11:07:59.570,-45.5002,-59.7502
11:07:59.580,-45.0002,-61.3127
11:07:59.590,-45.0002,-62.9377
11:07:59.601,-45.5002,-63.9377
11:07:59.616,-46.6877,-66.0003
11:07:59.621,-46.4377,-66.8128
11:07:59.630,-46.1252,-65.3127
11:07:59.640,-41.5002,-60.3127
11:07:59.650,-35.4376,-50.8127
11:07:59.668,-26.8751,-38.1251
11:07:59.670,-17.8126,-25.0001
11:07:59.685,-9.25,-11.5625
11:07:59.691,-0.8125,0.9375
11:07:59.700,5.8125,10.875
11:07:59.710,11.125,20.5001
11:07:59.720,14.7501,25.8751
11:07:59.731,17.0626,31.8751
11:07:59.741,18.9376,34.6251
11:07:59.750,18.6251,35.7501
11:07:59.760,17.5001,35.7501
11:07:59.770,16.6876,36.1876
11:07:59.780,16.9376,36.1876
11:07:59.790,16.0001,35.4376
11:07:59.800,17.3126,37.8126
11:07:59.810,18.1251,40.2502
11:07:59.821,20.9376,41.5002
11:07:59.831,20.0626,41.2502
11:07:59.840,18.8751,41.1877
11:07:59.850,18.1876,39.1876
11:07:59.861,17.7501,36.7501
11:07:59.871,17.1251,34.8126
11:07:59.880,15.8126,32.1251
11:07:59.891,14.4376,31.1876
11:07:59.900,13.6251,29.1876
11:07:59.911,13.0625,28.1251
11:07:59.921,13.8126,27.6876
11:07:59.930,14.1251,28.9376
11:07:59.940,14.6251,28.8751
11:07:59.950,13.6251,28.5626
11:07:59.960,14.7501,28.6251
11:07:59.971,14.6251,27.7501
11:07:59.981,14.8126,28.6876
11:08:00.017,14.3751,28.3126
11:08:00.020,12.625,26.4376
11:08:00.023,12,24.7501
11:08:00.026,11.5,22.8751
11:08:00.032,10,21.5626
11:08:00.040,9.125,19.3126
11:08:00.050,5.3125,16.8126
11:08:00.060,3.5625,13.2501
11:08:00.071,0.5625,10.3125
11:08:00.081,0.375,8.4375
11:08:00.090,1.5625,9.5625
11:08:00.100,2.375,8.375
11:08:00.110,9.25,12
11:08:00.120,17.7501,15.8126
11:08:00.131,18.9376,16.0626
11:08:00.140,22.0001,15.5626
11:08:00.150,24.6876,15.8126
11:08:00.160,25.2501,14.2501
11:08:00.170,29.4376,13.2501
11:08:00.180,35.7501,15.6876
11:08:00.191,46.0002,19.7501
11:08:00.200,56.2502,24.8751
11:08:00.210,65.3128,30.1251
11:08:00.220,71.6253,32.9376
11:08:00.230,79.3128,36.4376
11:08:00.240,88.0003,43.4377
11:08:00.250,99.6254,53.7502
11:08:00.260,112.4379,67.1253
11:08:00.270,126.063,81.1253
11:08:00.291,137.8755,94.3754
11:08:00.296,145.563,105.8129
11:08:00.311,147.7506,111.8129
11:08:00.314,148.5631,115.6254
11:08:00.320,148.8756,117.688
11:08:00.330,148.8131,120.3755
11:08:00.340,149.0006,121.313
11:08:00.351,149.8131,122.7505
11:08:00.361,153.5006,124.313
11:08:00.370,156.8131,126.063
11:08:00.380,159.3756,128.063
11:08:00.390,161.0006,129.5005
11:08:00.400,160.8131,127.938
11:08:00.411,160.1256,127.3755
11:08:00.421,160.6881,124.938
11:08:00.431,160.1256,122.938
11:08:00.440,161.0631,122.0005
11:08:00.450,159.5006,119.938
11:08:00.460,157.5631,116.1254
11:08:00.470,155.3131,113.1254
11:08:00.480,152.5631,109.7504
11:08:00.490,150.0631,106.5004
11:08:00.500,147.9381,103.7504
11:08:00.510,145.5005,100.9379
11:08:00.520,143.063,99.4379
11:08:00.532,140.063,96.8129
11:08:00.541,138.313,94.6879
11:08:00.550,139.0005,94.4379
11:08:00.560,141.563,96.2504
11:08:00.571,145.563,98.2504
11:08:00.581,144.188,97.3754
11:08:00.590,140.8755,93.2504
11:08:00.600,136.3755,88.1253
11:08:00.610,134.7505,85.5628
11:08:00.620,132.688,83.8753
11:08:00.630,131.063,82.1253
11:08:00.640,126.813,77.9378
11:08:00.650,122.813,73.0628
11:08:00.660,117.1879,68.6878
11:08:00.671,112.0004,64.1252
11:08:00.681,105.0004,57.3127
11:08:00.690,98.0629,51.7502
11:08:00.700,91.6254,46.1877
11:08:00.710,86.5003,41.6252
11:08:00.720,82.6878,37.8126
11:08:00.731,78.5628,33.9376
11:08:00.746,74.8128,30.5001
11:08:00.751,69.5628,25.1876
11:08:00.760,64.3752,20.0001
11:08:00.770,60.1877,16.6876
11:08:00.780,57.0627,12.25
11:08:00.799,55.0002,10.375
11:08:00.801,53.8127,7.8125
11:08:00.832,52.8752,6.9375
11:08:00.834,52.6252,5.5
11:08:00.835,52.8127,6.5
11:08:00.840,54.8127,9.1875
11:08:00.871,61.1252,18.3751
11:08:00.873,68.5003,29.3751
11:08:00.875,75.8753,41.0627
11:08:00.882,83.6878,52.6252
11:08:00.910,88.6878,63.7502
11:08:00.912,92.7504,71.8753
11:08:00.915,93.8754,77.8128
11:08:00.929,94.6254,82.0003
11:08:00.931,94.3129,83.5628
11:08:00.940,92.1879,84.5628
11:08:00.950,89.7503,84.0003
11:08:00.966,86.2503,82.6253
11:08:00.981,82.1253,79.6253
11:08:00.984,79.1253,77.3753
11:08:00.993,76.8753,75.5628
11:08:01.000,74.7503,73.9378
11:08:01.010,72.8128,72.1253
11:08:01.020,70.2503,70.3753
11:08:01.031,67.1253,67.5628
11:08:01.065,63.8127,63.4377
11:08:01.067,61.1877,60.1252
11:08:01.068,57.1252,56.6877
11:08:01.077,52.3127,51.5627
11:08:01.086,49.6877,48.1877
11:08:01.097,47.9377,43.8752
11:08:01.105,45.3127,41.6252
11:08:01.122,44.3127,39.9377
11:08:01.125,43.8752,38.6251
11:08:01.135,43.0002,38.3751
11:08:01.145,42.3752,37.6876
11:08:01.156,42.8127,36.6876
11:08:01.165,42.3752,37.0001
11:08:01.175,41.8752,36.1251
11:08:01.185,41.0627,35.4376
11:08:01.196,40.0002,32.4376
11:08:01.205,37.5001,29.6876
11:08:01.216,35.5001,27.0626
11:08:01.227,32.0626,23.2501
11:08:01.235,29.5626,20.2501
11:08:01.245,27.2501,16.4376
11:08:01.257,24.6876,13.9376
11:08:01.265,22.6876,10.5625
11:08:01.299,20.1876,7.25
11:08:01.302,19.0626,4.5
11:08:01.305,16.5001,2.25
11:08:01.307,14.6876,-0.3125
11:08:01.315,13.2501,-3.4375
11:08:01.325,10.75,-6.0625
11:08:01.337,8.875,-8.1875
11:08:01.345,6.1875,-11.8125
11:08:01.356,4.5,-14.6876
11:08:01.366,2.5625,-17.0001
11:08:01.376,1.6875,-19.0626
11:08:01.385,-0.375,-21.6251
11:08:01.396,-1.625,-25.1251
11:08:01.405,-3.875,-27.1251
11:08:01.415,-6.3125,-29.6876
11:08:01.425,-7.6875,-32.7501
11:08:01.436,-8.875,-34.1876
11:08:01.445,-10.0625,-35.9376
11:08:01.455,-8.6875,-35.7501
11:08:01.465,-5.0625,-32.1251
11:08:01.475,1.4375,-23.8751
11:08:01.485,9.375,-12.6875
11:08:01.497,18.1876,-0.5625
11:08:01.505,26.5001,11.6875
11:08:01.515,33.7501,22.6251
11:08:01.525,38.8126,32.1251
11:08:01.535,42.5627,39.8127
11:08:01.545,44.5627,44.3127
11:08:01.555,44.2502,47.9377
11:08:01.566,44.5627,48.8127
11:08:01.575,43.1877,50.7502
11:08:01.591,42.5627,49.1252
11:08:01.595,41.2502,50.0002
11:08:01.612,40.7502,47.7502
11:08:01.615,40.2502,49.0627
11:08:01.625,40.2502,46.8752
11:08:01.637,39.3752,47.1252
11:08:01.645,38.6251,45.5002
11:08:01.655,37.2501,43.0002
11:08:01.669,35.9376,41.2502
11:08:01.675,34.6876,39.6877
11:08:01.685,33.1251,36.5626
11:08:01.695,30.1876,33.2501
11:08:01.705,29.0626,30.6876
11:08:01.715,27.1251,27.9376
11:08:01.725,25.6876,26.0001
11:08:01.736,23.3751,23.6251
11:08:01.745,22.0001,22.1876
11:08:01.755,22.2501,20.5626
11:08:01.765,20.4376,19.6876
11:08:01.775,20.0001,19.5001
11:08:01.785,19.9376,18.1251
11:08:01.795,18.8751,16.9376
11:08:01.805,17.5001,15.6251
11:08:01.815,15.5001,14.1251
11:08:01.826,14.1876,11.6875
11:08:01.835,13.2501,9.125
11:08:01.845,11.4375,7.3125
11:08:01.855,9.8125,5.25
11:08:01.869,9.125,2.75
11:08:01.875,8.125,0
11:08:01.885,6.0625,-2.125
11:08:01.895,3.75,-5.8125
11:08:01.905,2.375,-7.9375
11:08:01.915,1.1875,-10.125
11:08:01.925,-0.1875,-12.9375
11:08:01.935,-1.9375,-15.7501
11:08:01.945,-3.6875,-18.8751
11:08:01.955,-4.6875,-21.1251
11:08:01.965,-6.0625,-23.0001
11:08:01.975,-6.875,-25.7501
11:08:01.985,-8.0625,-27.2501
11:08:01.995,-8.5625,-29.3126
11:08:02.005,-9.25,-30.1876
11:08:02.015,-9.5625,-32.8751
11:08:02.025,-10.75,-33.8126
11:08:02.036,-11.5,-35.7501
11:08:02.045,-12.0625,-36.7501
11:08:02.056,-13,-39.5002
11:08:02.065,-14.1251,-41.7502
11:08:02.076,-14.5626,-42.8127
11:08:02.085,-17.1251,-44.7502
11:08:02.097,-17.4376,-47.2502
11:08:02.105,-19.6876,-49.6877
11:08:02.115,-21.3751,-51.6252
11:08:02.144,-22.9376,-52.9377
11:08:02.145,-23.1251,-55.6877
11:08:02.148,-25.2501,-58.0627
11:08:02.157,-24.8751,-57.0627
11:08:02.186,-21.5626,-54.9377
11:08:02.188,-17.1876,-48.6252
11:08:02.190,-8.9375,-37.2501
11:08:02.196,0.375,-24.7501
11:08:02.235,10.125,-11.5625
11:08:02.237,17.3751,0.8125
11:08:02.240,24.1251,11.4375
11:08:02.267,29.3126,19.2501
11:08:02.267,32.4376,25.8126
11:08:02.270,34.8126,31.1876
11:08:02.284,36.1876,33.3751
11:08:02.291,36.2501,35.1876
11:08:02.291,35.4376,36.2501
11:08:02.295,35.1876,35.1876
11:08:02.305,33.5626,33.5001
11:08:02.315,32.0001,33.0001
11:08:02.325,30.1876,30.8126
11:08:02.335,28.4376,30.0001
11:08:02.346,27.3751,29.6251
11:08:02.355,26.8751,26.6251
11:08:02.366,25.2501,24.5626
11:08:02.375,23.3751,22.1251
11:08:02.385,21.6251,19.1251
11:08:02.395,19.3126,15.8751
11:08:02.405,16.8751,12.625
11:08:02.415,15.5626,11.75
11:08:02.425,13.8751,9
11:08:02.436,13.3751,7.4375
11:08:02.445,13.7501,6.25
11:08:02.455,12.9375,6.875
11:08:02.465,13.1251,6.5625
11:08:02.475,13.4376,5.8125
11:08:02.485,13.1876,5.9375
11:08:02.495,13.3751,5.875
11:08:02.505,12.375,5.1875
11:08:02.515,11.5625,3.75
11:08:02.526,11.1875,3.4375
11:08:02.535,9.5,1.4375
11:08:02.545,9.0625,-0.9375
11:08:02.577,8,-2.25
11:08:02.579,6.5,-3.4375
11:08:02.581,4.8125,-5.4375
11:08:02.589,4,-8.3125
11:08:02.597,2.6875,-10.625
11:08:02.605,1.3125,-12.6875
11:08:02.615,0.375,-14.0001
11:08:02.625,-1.25,-17.0626
11:08:02.641,-1.625,-18.7501
11:08:02.646,-2.5,-20.1251
11:08:02.655,-4.3125,-22.3751
11:08:02.665,-5.1875,-25.3751
11:08:02.675,-6.75,-26.3751
11:08:02.686,-8.4375,-29.3751
11:08:02.696,-9.4375,-31.6251
11:08:02.706,-11,-33.3751
11:08:02.715,-12.1875,-35.5626
11:08:02.725,-13.6876,-37.6876
11:08:02.737,-14.6251,-40.3752
11:08:02.745,-15.2501,-41.6252
11:08:02.755,-16.8126,-43.8127
11:08:02.765,-17.6876,-44.8752
11:08:02.776,-18.2501,-46.0627
11:08:02.785,-18.2501,-48.0002
11:08:02.796,-16.4376,-44.7502
11:08:02.805,-12.1875,-40.4377
11:08:02.815,-5.875,-33.4376
11:08:02.827,1.8125,-23.2501
11:08:02.835,10.125,-9.6875
11:08:02.846,18.6251,0.875
11:08:02.856,24.2501,10.9375
11:08:02.866,29.5626,20.2501
11:08:02.888,34.1251,26.0001
11:08:02.890,35.1876,30.1876
11:08:02.906,35.8751,33.7501
11:08:02.921,36.0001,34.8126
11:08:02.924,35.6251,34.4376
11:08:02.926,34.4376,33.3126
11:08:02.936,32.8751,32.6876
11:08:02.946,32.6876,31.1251
11:08:02.955,31.0626,29.4376
11:08:02.965,28.8126,27.0001
11:08:02.976,27.6251,25.1876
11:08:02.985,25.5626,22.1251
11:08:02.996,22.6876,19.0626
11:08:03.005,20.6251,15.8126
11:08:03.020,18.0001,12.125
11:08:03.025,16.1876,10.1875
11:08:03.036,14.3751,7.0625
11:08:03.045,13.8751,5.3125
11:08:03.055,12.75,3.1875
11:08:03.065,12.375,3
11:08:03.076,13,3.1875
11:08:03.086,13.5001,2.9375
11:08:03.095,13.8751,4.6875
11:08:03.105,15.3751,4.75
11:08:03.115,16.0001,5.75
11:08:03.125,15.8751,6.8125
11:08:03.136,15.5001,5.875
11:08:03.145,15.6876,4.75
11:08:03.155,15.0001,3.5625
11:08:03.165,13.125,2.375
11:08:03.175,11.375,0.6875
11:08:03.185,10.3125,-2.5
11:08:03.195,8.125,-3.9375
11:08:03.205,7.125,-6.8125
11:08:03.215,5.3125,-9.1875
11:08:03.225,3.375,-11
11:08:03.236,2.375,-13.5001
11:08:03.245,0.6875,-16.1876
11:08:03.256,-0.5625,-18.3751
11:08:03.265,-2.375,-20.6251
11:08:03.275,-3.625,-22.9376
11:08:03.286,-5.1875,-24.9376
11:08:03.295,-7.25,-27.5626
11:08:03.305,-8.875,-30.4376
11:08:03.316,-9.875,-32.1876
11:08:03.325,-11.375,-34.1251
11:08:03.336,-12.875,-36.0626
11:08:03.345,-13.9376,-38.6251
11:08:03.355,-15.9376,-41.3127
11:08:03.365,-18.6876,-44.0627
11:08:03.375,-20.0626,-46.5002
11:08:03.385,-21.3126,-48.1252
11:08:03.395,-22.3751,-50.4377
11:08:03.405,-22.0001,-50.8127
11:08:03.415,-18.9376,-47.8127
11:08:03.425,-13.125,-40.0627
11:08:03.436,-5.4375,-30.6251
11:08:03.445,3.25,-18.1251
11:08:03.455,12.125,-5.25
11:08:03.467,20.1876,7.1875
11:08:03.497,26.2501,17.5001
11:08:03.501,31.1251,25.8751
11:08:03.502,34.5001,32.5001
11:08:03.505,35.6876,36.9376
11:08:03.537,36.0626,38.7501
11:08:03.538,35.9376,40.0627
11:08:03.541,34.6876,39.6252
11:08:03.548,33.7501,39.2502
11:08:03.572,33.1876,37.5001
11:08:03.616,30.3126,35.6876
11:08:03.619,29.8751,34.3126
11:08:03.621,27.1251,32.3751
11:08:03.621,26.8751,30.4376
11:08:03.621,24.7501,28.3751
11:08:03.623,22.3751,25.3126
11:08:03.625,20.6251,21.0626
11:08:03.635,17.5626,17.5626
11:08:03.645,15.5626,14.9376
11:08:03.656,14.1876,11.9375
11:08:03.665,13,9.875
11:08:03.676,11.9375,7.9375
11:08:03.686,11.9375,8
11:08:03.695,11.875,9
11:08:03.705,12.5625,9
11:08:03.716,13.2501,8.875
11:08:03.725,13.6251,9.125
11:08:03.736,13.2501,8.6875
11:08:03.745,13.0625,8.75
11:08:03.755,12.8125,8.1875
11:08:03.770,11.75,7.6875
11:08:03.775,11.1875,6.375
11:08:03.785,11.1875,4.625
11:08:03.795,9.1875,2.4375
11:08:03.805,7.75,1.4375
11:08:03.815,6.6875,-0.0625
11:08:03.826,5.8125,-2.5625
11:08:03.857,4.9375,-5.4375
11:08:03.860,3.125,-7.6875
11:08:03.862,1.5,-10
11:08:03.865,0.125,-11.1875
11:08:03.876,-0.5,-13.1251
11:08:03.887,-1.875,-15.0001
11:08:03.895,-2.625,-16.2501
11:08:03.905,-3.5625,-18.0626
11:08:03.915,-4.4375,-19.4376
11:08:03.926,-5.75,-22.5626
11:08:03.935,-7.1875,-24.9376
11:08:03.945,-8.0625,-27.8126
11:08:03.955,-11.125,-31.5626
11:08:03.965,-12.75,-33.1251
11:08:03.975,-14.3126,-35.0001
11:08:03.985,-15.9376,-37.3126
11:08:03.995,-17.3126,-39.5002
11:08:04.005,-17.3751,-41.9377
11:08:04.016,-16.8126,-42.0002
11:08:04.025,-14.0001,-38.1876
11:08:04.035,-7.5,-30.4376
11:08:04.045,1.5,-19.8751
11:08:04.055,10.75,-5.8125
11:08:04.066,20.3751,8.6875
11:08:04.076,29.2501,21.4376
11:08:04.085,36.2501,32.3751
11:08:04.095,41.7502,43.1877
11:08:04.105,45.5627,49.6252
11:08:04.115,47.5002,55.0627
11:08:04.125,48.3127,58.7502
11:08:04.135,48.8127,59.3127
11:08:04.145,48.1252,59.1252
11:08:04.156,46.4377,58.5002
11:08:04.165,45.3752,59.2502
11:08:04.175,45.1877,56.8752
11:08:04.191,43.4377,56.0002
11:08:04.207,42.9377,54.8752
11:08:04.209,40.3752,53.1877
11:08:04.218,38.8126,50.8752
11:08:04.225,35.9376,47.1877
11:08:04.235,34.5001,44.2502
11:08:04.246,32.3751,41.1252
11:08:04.255,29.8126,38.6876
11:08:04.265,28.0626,35.3126
11:08:04.275,25.9376,31.7501
11:08:04.285,24.6876,29.5001
11:08:04.295,23.7501,28.8126
11:08:04.305,22.3126,26.5626
11:08:04.315,22.5626,26.1251
11:08:04.325,22.8126,26.0626
11:08:04.335,22.3751,25.8751
11:08:04.346,21.4376,25.5001
11:08:04.356,21.0001,23.8751
11:08:04.365,19.7501,23.1876
11:08:04.375,17.8751,20.8126
11:08:04.385,16.6251,19.1251
11:08:04.395,15.5626,17.8126
11:08:04.405,14.6251,15.5001
11:08:04.416,13.3751,14.6876
11:08:04.425,12.5625,11.375
11:08:04.436,10.125,8.3125
11:08:04.446,8.625,6.375
11:08:04.455,7.0625,4.5625
11:08:04.466,6.0625,1.8125
11:08:04.475,5.3125,-1
11:08:04.485,3.125,-4.1875
11:08:04.496,0.625,-7.375
11:08:04.505,-1.375,-9.6875
11:08:04.520,-3.4375,-11.375
11:08:04.525,-4.125,-14.1876
11:08:04.535,-4.6875,-16.7501
11:08:04.545,-6.1875,-19.2501
11:08:04.555,-7.625,-21.3126
11:08:04.565,-9.375,-22.6876
11:08:04.575,-10.4375,-24.4376
11:08:04.585,-11.5625,-27.8751
11:08:04.595,-13.1876,-30.2501
11:08:04.605,-14.1876,-31.9376
11:08:04.615,-15.1876,-33.1876
11:08:04.625,-16.8126,-35.1876
11:08:04.635,-18.6251,-37.3126
11:08:04.645,-20.5001,-40.9377
11:08:04.655,-22.8126,-43.6877
11:08:04.665,-24.6251,-45.0002
11:08:04.679,-25.5001,-47.0002
11:08:04.685,-25.8126,-49.4377
11:08:04.695,-24.1876,-47.3127
11:08:04.705,-18.8751,-42.2502
11:08:04.715,-10.9375,-31.6251
11:08:04.726,-0.6875,-18.0001
11:08:04.735,10.9375,-2.6875
11:08:04.745,22.1876,12.75
11:08:04.755,31.4376,28.1876
11:08:04.765,39.5627,40.0002
11:08:04.775,45.0627,51.6877
11:08:04.785,49.0002,58.9377
11:08:04.795,50.9377,64.3127
11:08:04.805,52.8127,68.1253
11:08:04.815,53.0002,70.6253
11:08:04.825,53.9377,72.0003
11:08:04.835,53.6252,72.6253
11:08:04.845,53.9377,72.4378
11:08:04.866,53.0002,71.7503
11:08:04.869,53.3127,71.5628
11:08:04.940,51.8752,70.6878
11:08:04.978,51.5627,69.5003
11:08:04.981,50.5002,67.3128
11:08:04.981,48.7502,65.6252
11:08:04.981,45.3127,62.8752
11:08:04.986,43.5002,59.1252
11:08:04.989,41.5627,55.3127
11:08:05.001,39.5627,52.5627
11:08:05.003,37.6876,50.1877
11:08:05.003,35.6876,47.0627
11:08:05.004,34.4376,44.1877
11:08:05.010,33.2501,43.2502
11:08:05.021,32.6251,42.5002
11:08:05.030,31.6876,41.5002
11:08:05.040,30.6876,40.1877
11:08:05.050,30.1251,38.7501
11:08:05.060,29.1876,38.0626
11:08:05.075,28.2501,37.5626
11:08:05.085,26.3126,35.6251
11:08:05.095,25.6876,33.1251
11:08:05.105,24.2501,31.0626
11:08:05.137,20.3126,23.4376
11:08:05.140,18.5001,20.3126
11:08:05.142,16.3126,18.2501
11:08:05.147,14.5001,14.3126
11:08:05.157,13.3126,12
11:08:05.165,11.6875,9.6875
11:08:05.175,10.0625,6.625
11:08:05.186,8.4375,4.0625
11:08:05.195,7.3125,0.6875
11:08:05.205,5.75,-1.75
11:08:05.215,4.1875,-4.125
11:08:05.225,1.5,-8.125
11:08:05.235,-0.4375,-11.25
11:08:05.246,-2.0625,-14.0626
11:08:05.255,-3.3125,-17.8751
11:08:05.265,-4.875,-20.9376
11:08:05.276,-6.625,-24.1876
11:08:05.285,-8.3125,-26.8126
11:08:05.295,-9.9375,-28.6251
11:08:05.308,-10.125,-29.6876
11:08:05.315,-8.5625,-29.8751
11:08:05.328,-6.3125,-27.6876
11:08:05.335,-0.6875,-21.7501
11:08:05.345,7.125,-10.4375
11:08:05.356,16.0626,2
11:08:05.365,26.3126,16.1251
11:08:05.379,35.1876,28.6251
11:08:05.385,41.9377,40.3752
11:08:05.396,48.3127,51.5002
11:08:05.405,52.9377,59.6252
11:08:05.415,55.4377,64.0002
11:08:05.425,57.3752,68.4378
11:08:05.435,57.4377,69.2503
11:08:05.447,57.3752,70.0003
11:08:05.455,56.6877,69.5628
11:08:05.465,55.8127,69.2503
11:08:05.475,55.2502,67.8128
11:08:05.493,51.8127,64.3752
11:08:05.499,50.1877,61.8127
11:08:05.515,47.5002,59.3127
11:08:05.517,44.8752,55.8752
11:08:05.532,42.4377,52.3127
11:08:05.535,40.0002,47.2502
11:08:05.545,36.5626,42.2502
11:08:05.555,33.1876,38.7501
11:08:05.565,30.5626,36.0626
11:08:05.575,28.5626,31.6876
11:08:05.585,27.0001,28.5001
11:08:05.596,26.3751,27.2501
11:08:05.605,26.1251,26.3126
11:08:05.616,25.8126,26.1876
11:08:05.625,25.5001,24.6876
11:08:05.635,25.2501,25.6251
11:08:05.645,24.0626,23.8751
11:08:05.655,24.5001,22.8751
11:08:05.666,23.8751,22.1876
11:08:05.675,22.5626,20.5626
11:08:05.685,21.2501,19.0626
11:08:05.695,19.6876,15.8126
11:08:05.705,19.0626,13.8751
11:08:05.716,16.6251,11.6875
11:08:05.725,15.0001,8.3125
11:08:05.735,12.75,5.8125
11:08:05.746,10.9375,2.125
11:08:05.755,8.5625,-0.25
11:08:05.766,5.8125,-3.4375
11:08:05.775,3.875,-6.8125
11:08:05.786,2.375,-10.3125
11:08:05.795,0.125,-13.5001
11:08:05.805,-1.75,-16.1251
11:08:05.815,-3.75,-18.8126
11:08:05.825,-5.5,-21.2501
11:08:05.835,-7.1875,-24.0626
11:08:05.846,-8.625,-27.1876
11:08:05.855,-10.1875,-29.4376
11:08:05.865,-11.375,-31.9376
11:08:05.875,-12.8125,-33.5001
11:08:05.885,-14.0626,-36.4376
11:08:05.896,-14.7501,-38.3126
11:08:05.905,-15.8751,-39.0626
11:08:05.915,-17.5001,-42.1877
11:08:05.928,-18.3751,-43.5627
11:08:05.935,-19.7501,-45.3752
11:08:05.946,-20.1876,-47.8127
11:08:05.955,-21.3751,-49.1252
11:08:05.966,-21.7501,-51.2502
11:08:05.975,-23.7501,-52.6252
11:08:05.985,-24.6251,-54.7502
11:08:05.996,-26.6251,-57.2502
11:08:06.005,-26.6876,-58.8127
11:08:06.015,-27.1251,-59.0627
11:08:06.025,-23.5626,-56.3127
11:08:06.035,-17.3751,-48.1877
11:08:06.046,-8.125,-35.7501
11:08:06.056,2.25,-20.0626
11:08:06.065,13.5626,-5.375
11:08:06.075,23.9376,10.875
11:08:06.085,32.8751,25.0626
11:08:06.096,40.6877,36.9376
11:08:06.106,46.8752,48.2502
11:08:06.117,50.3752,54.5627
11:08:06.131,53.0627,60.4377
11:08:06.136,52.9377,61.6252
11:08:06.145,53.4377,63.5002
11:08:06.155,52.1877,62.8127
11:08:06.169,50.4377,62.0002
11:08:06.176,50.3127,60.5002
11:08:06.185,47.8127,59.0627
11:08:06.195,47.5627,58.2502
11:08:06.205,46.3127,56.0002
11:08:06.222,44.0627,53.5627
11:08:06.225,42.0002,50.2502
11:08:06.240,39.5002,46.0627
11:08:06.248,36.6251,41.8127
11:08:06.255,33.6251,38.3126
11:08:06.266,31.5001,34.6251
11:08:06.275,29.3751,32.0001
11:08:06.285,26.8751,29.2501
11:08:06.296,26.0626,27.5001
11:08:06.326,25.3751,25.8751
11:08:06.330,25.6876,25.5626
11:08:06.332,26.6251,26.1876
11:08:06.336,26.1251,27.0001
11:08:06.368,26.7501,27.8751
11:08:06.370,26.5001,26.9376
11:08:06.372,25.9376,26.8751
11:08:06.376,25.8751,25.1251
11:08:06.386,24.3751,24.3751
11:08:06.419,23.0001,22.6876
11:08:06.424,21.5626,19.5626
11:08:06.424,19.4376,17.5001
11:08:06.427,18.0001,14.8126
11:08:06.436,14.8751,10.75
11:08:06.445,12.0625,7.3125
11:08:06.456,10.3125,4.9375
11:08:06.466,8.875,1.0625
11:08:06.476,6.5,-1.5
11:08:06.486,4.375,-4.5625
11:08:06.495,1.6875,-8.5
11:08:06.508,-0.8125,-11.6875
11:08:06.515,-3.125,-15.0626
11:08:06.528,-4.875,-18.6876
11:08:06.536,-7.375,-21.5001
11:08:06.545,-9.1875,-24.3751
11:08:06.556,-12.5,-28.7501
11:08:06.565,-14.5626,-32.3126
11:08:06.577,-16.6251,-35.1876
11:08:06.586,-18.7501,-39.0001
11:08:06.596,-21.1251,-42.0627
11:08:06.605,-22.0001,-43.7502
11:08:06.615,-22.7501,-44.6252
11:08:06.625,-21.7501,-44.3752
11:08:06.635,-19.1251,-41.5002
11:08:06.645,-13.2501,-32.4376
11:08:06.655,-5.0625,-22.5001
11:08:06.665,3.4375,-10.5
11:08:06.677,13.2501,3.8125
11:08:06.687,20.3751,18.0001
11:08:06.695,27.3751,27.9376
11:08:06.705,33.1251,37.6251
11:08:06.716,35.7501,44.3127
11:08:06.725,38.8126,49.3127
11:08:06.737,38.8126,51.4377
11:08:06.745,39.5002,52.2502
11:08:06.755,37.6876,51.8127
11:08:06.765,36.3751,50.8127
11:08:06.776,35.3126,49.7502
11:08:06.785,33.5001,46.8127
11:08:06.795,32.0626,45.6252
11:08:06.811,29.7501,41.2502
11:08:06.819,26.5626,38.4376
11:08:06.825,23.7501,33.3126
11:08:06.840,20.1876,28.1876
11:08:06.849,17.3751,24.3126
11:08:06.855,13.5001,18.6251
11:08:06.866,10.375,14.1251
11:08:06.881,8.25,11.1875
11:08:06.885,6.4375,8.5625
11:08:06.895,5.25,5.8125
11:08:06.906,3.875,4
11:08:06.916,4.125,5.3125
11:08:06.926,4.9375,5.6875
11:08:06.935,5.6875,5.3125
11:08:06.945,4.875,5
11:08:06.955,5.0625,5.6875
11:08:06.965,4.5625,4.5
11:08:06.975,3.8125,3.875
11:08:06.985,3.25,2.875
11:08:06.995,1.6875,0.5
11:08:07.005,-0.625,-2
11:08:07.015,-2.0625,-5.5625
11:08:07.025,-4.3125,-8.8125
11:08:07.035,-6.4375,-11.625
11:08:07.046,-8.875,-15.2501
11:08:07.056,-11.5625,-18.1251
11:08:07.066,-13.6876,-20.7501
11:08:07.075,-15.6251,-23.5626
11:08:07.085,-18.2501,-26.9376
11:08:07.095,-19.6251,-30.8751
11:08:07.105,-21.8751,-34.3126
11:08:07.115,-24.1876,-36.8126
11:08:07.126,-25.6876,-39.0626
11:08:07.135,-27.5626,-41.4377
11:08:07.145,-28.5001,-44.5627
11:08:07.155,-30.0001,-47.3752
11:08:07.165,-31.5626,-50.0627
11:08:07.175,-33.6876,-52.1252
11:08:07.186,-35.4376,-55.6877
11:08:07.196,-37.8751,-58.8752
11:08:07.205,-39.3127,-61.0002
11:08:07.215,-41.1252,-63.9377
11:08:07.227,-42.5002,-64.8752
11:08:07.235,-41.3752,-65.5003
11:08:07.245,-36.7501,-60.0627
11:08:07.256,-29.0001,-51.6877
11:08:07.267,-20.0626,-38.1251
11:08:07.276,-7.6875,-22.3751
11:08:07.285,4,-3.6875
11:08:07.298,15.6251,12.1875
11:08:07.305,24.7501,27.8126
11:08:07.316,32.9376,40.3127
11:08:07.327,38.3126,51.3752
11:08:07.337,41.8127,57.6877
11:08:07.345,43.8752,63.9377
11:08:07.355,44.8127,65.5002
11:08:07.367,44.0002,67.1878
11:08:07.376,43.8127,65.8753
11:08:07.386,42.1877,65.9378
11:08:07.395,40.8127,63.2502
11:08:07.405,39.1877,63.0002
11:08:07.415,37.9376,60.5002
11:08:07.427,36.5626,59.8752
11:08:07.436,35.1876,56.3752
11:08:07.445,32.6876,54.1252
11:08:07.455,29.6876,48.6252
11:08:07.465,25.3751,44.6877
11:08:07.475,21.8751,39.7502
11:08:07.485,18.5001,34.3126
11:08:07.495,15.9376,30.5626
11:08:07.505,13.4376,26.3751
11:08:07.526,10.8125,24.3126
11:08:07.529,9.875,22.7501
11:08:07.537,8.6875,21.0001
11:08:07.545,8.4375,20.0001
11:08:07.560,7.9375,19.2501
11:08:07.567,7.5625,19.1876
11:08:07.576,6.75,17.9376
11:08:07.585,5.8125,16.5001
11:08:07.595,5.5,15.5001
11:08:07.605,3.6875,14.1251
11:08:07.615,2.375,11.25
11:08:07.632,1.0625,8.6875
11:08:07.635,-0.875,5.625
11:08:07.646,-3.3125,2.1875
11:08:07.655,-5.5,-0.875
11:08:07.665,-7.8125,-3.5
11:08:07.697,-9.25,-6.375
11:08:07.700,-12.0625,-10.0625
11:08:07.702,-13.3751,-12.875
11:08:07.707,-16.0001,-16.8751
11:08:07.715,-17.6876,-20.1876
11:08:07.726,-19.6876,-23.6251
11:08:07.735,-21.8751,-26.8126
11:08:07.769,-25.0626,-30.1251
11:08:07.773,-27.1876,-32.1876
11:08:07.773,-27.5626,-36.1251
11:08:07.775,-29.3126,-38.4376
11:08:07.806,-30.8751,-41.4377
11:08:07.809,-33.3751,-44.1252
11:08:07.811,-35.0626,-46.4377
11:08:07.815,-36.0001,-49.5627
11:08:07.851,-38.8751,-52.0002
11:08:07.855,-40.1252,-55.2502
11:08:07.857,-42.5002,-58.3127
11:08:07.862,-43.8127,-60.6877
11:08:07.865,-45.4377,-62.5627
11:08:07.880,-44.6252,-64.0627
11:08:07.885,-43.3752,-62.4377
11:08:07.895,-37.6876,-55.8752
11:08:07.905,-29.8751,-46.2502
11:08:07.915,-20.3126,-31.0626
11:08:07.925,-8.125,-15.2501
11:08:07.935,2.375,1.375
11:08:07.945,12.5,17.6876
11:08:07.955,20.5001,32.0001
11:08:07.965,27.2501,43.1252
11:08:07.974,31.2501,52.0627
11:08:07.985,34.8751,57.6252
11:08:07.995,36.1251,62.1877
11:08:08.006,37.5001,64.7502
11:08:08.015,37.0626,65.6877
11:08:08.026,36.5001,64.5627
11:08:08.036,35.6251,64.0002
11:08:08.045,33.2501,63.0627
11:08:08.056,32.8751,60.5627
11:08:08.066,30.7501,59.6877
11:08:08.076,29.3751,56.6877
11:08:08.085,27.9376,54.1252
11:08:08.095,24.9376,51.3752
11:08:08.105,21.7501,47.2502
11:08:08.118,18.3126,41.9377
11:08:08.134,15.8126,36.3126
11:08:08.141,12.1875,32.3751
11:08:08.151,9.5625,29.2501
11:08:08.155,7.625,25.4376
11:08:08.171,5.5,23.0626
11:08:08.177,4.9375,21.1251
11:08:08.186,3.9375,20.5001
11:08:08.195,3.375,20.1876
11:08:08.207,3.3125,18.8126
11:08:08.216,3.25,18.8751
11:08:08.225,2.5,18.4376
11:08:08.235,1.4375,16.6876
11:08:08.245,0.25,15.3126
11:08:08.257,-0.75,13
11:08:08.265,-2.5,10.4375
11:08:08.275,-3.625,7.375
11:08:08.285,-5.6875,5.6875
11:08:08.295,-7.8125,2.25
11:08:08.305,-9.8125,-2.125
11:08:08.316,-12.625,-4.875
11:08:08.325,-14.1251,-8.375
11:08:08.336,-16.6251,-11.9375
11:08:08.345,-18.9376,-16.0626
11:08:08.355,-20.8126,-19.1876
11:08:08.364,-23.1251,-22.5001
11:08:08.376,-25.0626,-25.7501
11:08:08.389,-27.0001,-28.6876
11:08:08.396,-28.4376,-31.1251
11:08:08.405,-30.6251,-34.6876
11:08:08.416,-31.8126,-37.6876
11:08:08.425,-33.4376,-40.3127
11:08:08.435,-35.8126,-43.1252
11:08:08.445,-36.3751,-45.0002
11:08:08.455,-37.9376,-47.2502
11:08:08.465,-39.3752,-49.6877
11:08:08.476,-40.6877,-51.3127
11:08:08.485,-42.4377,-54.6877
11:08:08.496,-43.7502,-56.0002
11:08:08.505,-45.3127,-58.9377
11:08:08.515,-46.5627,-60.0627
11:08:08.524,-47.9377,-62.9377
11:08:08.535,-50.0002,-66.1253
11:08:08.546,-51.5627,-68.3128
11:08:08.556,-53.1877,-71.1253
11:08:08.566,-55.7502,-73.3753
11:08:08.575,-55.6877,-74.4378
11:08:08.585,-55.3127,-74.9378
11:08:08.595,-51.7502,-69.2503
11:08:08.607,-44.3752,-61.6877
11:08:08.616,-34.8751,-48.8752
11:08:08.625,-23.5626,-31.5626
11:08:08.635,-11.6875,-14.8126
11:08:08.645,-1.3125,2.9375
11:08:08.656,8.6875,19.0626
11:08:08.667,16.9376,32.2501
11:08:08.675,22.2501,44.3752
11:08:08.685,27.1876,52.0002
11:08:08.695,29.7501,56.9377
11:08:08.705,32.1251,61.6252
11:08:08.716,32.3126,62.5002
11:08:08.726,31.8126,63.1877
11:08:08.735,31.0001,62.6877
11:08:08.746,29.7501,60.9377
11:08:08.756,28.3751,59.9377
11:08:08.765,26.5001,57.3127
11:08:08.775,25.3126,56.1252
11:08:08.785,23.5626,52.9377
11:08:08.795,21.3126,51.5002
11:08:08.805,18.6876,46.3752
11:08:08.814,16.3751,42.1252
11:08:08.826,13.0625,38.2501
11:08:08.845,9.6875,33.8751
11:08:08.848,7.5,30.0001
11:08:08.863,4.5,26.3126
11:08:08.865,3.0625,23.0001
11:08:08.881,2.25,21.5001
11:08:08.886,1.6875,20.9376
11:08:08.895,1.625,20.6251
11:08:08.905,0.625,19.9376
11:08:08.917,0.25,18.6251
11:08:08.925,-0.5,18.5626
11:08:08.935,-0.25,17.0001
11:08:08.944,-1.5,16.3126
11:08:08.977,-1.9375,14.3126
11:08:08.979,-3.25,12.25
11:08:08.982,-4.4375,9.5625
11:08:08.985,-5.9375,7.375
11:08:08.997,-7.6875,4.625
11:08:09.007,-10.25,1.125
11:08:09.015,-12,-2.375
11:08:09.025,-13.5001,-5.1875
11:08:09.036,-16.3126,-8.6875
11:08:09.045,-18.2501,-12.1875
11:08:09.056,-19.9376,-15.8126
11:08:09.065,-22.2501,-19.3751
11:08:09.080,-23.7501,-21.6876
11:08:09.090,-25.9376,-24.1876
11:08:09.100,-27.0001,-27.6251
11:08:09.110,-28.6876,-29.6251
11:08:09.119,-29.3126,-33.7501
11:08:09.130,-31.8126,-35.6876
11:08:09.168,-33.1876,-39.3752
11:08:09.169,-35.2501,-41.1877
11:08:09.171,-36.1876,-45.1877
11:08:09.174,-38.4376,-46.7502
11:08:09.180,-39.6877,-51.1877
11:08:09.219,-42.0002,-52.6877
11:08:09.220,-43.1877,-56.3127
11:08:09.223,-45.5002,-58.5627
11:08:09.248,-46.6252,-62.2502
11:08:09.251,-48.2502,-64.0627
11:08:09.252,-49.1252,-66.0628
11:08:09.258,-45.8752,-63.3127
11:08:09.261,-40.3752,-57.0627
11:08:09.284,-32.3126,-45.6252
11:08:09.286,-21.8126,-31.7501
11:08:09.289,-11.875,-16.5626
11:08:09.302,-1.375,0.375
11:08:09.312,8.0625,14.7501
11:08:09.319,14.5626,28.6876
11:08:09.330,21.0001,38.4376
11:08:09.341,24.3126,44.8127
11:08:09.351,26.1876,50.1252
11:08:09.360,27.4376,53.1252
11:08:09.370,27.6251,53.6877
11:08:09.380,26.3126,53.1252
11:08:09.391,24.8751,52.6877
11:08:09.399,23.1251,51.3752
11:08:09.411,22.2501,48.0002
11:08:09.420,20.2501,45.4377
11:08:09.430,18.2501,42.4377
11:08:09.439,15.1251,40.3127
11:08:09.450,12.1875,34.4376
11:08:09.470,8.3125,30.0001
11:08:09.477,5.625,25.3751
11:08:09.484,2.625,19.8751
11:08:09.491,-0.125,15.8126
11:08:09.508,-2.125,12.125
11:08:09.520,-3.375,9.75
11:08:09.523,-4.5625,7.375
11:08:09.538,-5.625,7.1875
11:08:09.540,-6,6.625
11:08:09.550,-5.1875,6.125
11:08:09.559,-4.5,6
11:08:09.570,-4.875,6.625
11:08:09.580,-4.3125,6.5625
11:08:09.589,-5.0625,5.6875
11:08:09.600,-5.5,4.1875
11:08:09.609,-6.5,3.0625
11:08:09.620,-7.5625,1.625
11:08:09.630,-8.3125,-1.75
11:08:09.640,-10.25,-2.9375
11:08:09.650,-12.25,-6.125
11:08:09.662,-13.6251,-10.25
11:08:09.671,-16.1251,-12.875
11:08:09.680,-18.2501,-16.8751
11:08:09.690,-19.9376,-20.2501
11:08:09.700,-22.1876,-23.1251
11:08:09.710,-23.6251,-26.5626
11:08:09.721,-25.6876,-29.1876
11:08:09.730,-27.1251,-32.8126
11:08:09.740,-29.5001,-35.5001
11:08:09.750,-30.1251,-38.0626
11:08:09.760,-32.6251,-40.5002
11:08:09.771,-34.0001,-42.9377
11:08:09.780,-35.1251,-46.4377
11:08:09.790,-36.2501,-47.8127
11:08:09.800,-37.2501,-50.8127
11:08:09.811,-39.3127,-52.6252
11:08:09.820,-39.6877,-55.5002
11:08:09.832,-41.2502,-56.8752
11:08:09.840,-42.0627,-59.0627
11:08:09.851,-43.2502,-59.9377
11:08:09.860,-43.8752,-62.3127
11:08:09.870,-44.3752,-62.9377
11:08:09.882,-44.6252,-64.6252
11:08:09.892,-46.4377,-65.7503
11:08:09.901,-46.5627,-68.3753
11:08:09.910,-47.6252,-69.3128
11:08:09.919,-48.2502,-71.3753
11:08:09.929,-50.1877,-73.3128
11:08:09.940,-51.2502,-75.6878
11:08:09.949,-53.0627,-77.1253
11:08:09.960,-54.1877,-79.6878
11:08:09.970,-55.5002,-81.3128
11:08:09.979,-54.8127,-82.7503
11:08:09.989,-53.9377,-80.8753
11:08:10.000,-49.0627,-76.8128
11:08:10.012,-41.1877,-65.6878
11:08:10.020,-30.6251,-52.0627
11:08:10.029,-19.3126,-34.4376
11:08:10.040,-6.875,-16.2501
11:08:10.049,3.875,2.6875
11:08:10.060,13.8126,18.2501
11:08:10.070,21.6251,32.8126
11:08:10.078,28.6876,44.1252
11:08:10.089,31.6251,51.6252
11:08:10.100,33.6251,58.3752
11:08:10.110,35.3126,60.0627
11:08:10.119,33.8751,60.9377
11:08:10.132,34.1251,62.0002
11:08:10.147,32.9376,59.5002
11:08:10.150,31.6251,58.6877
11:08:10.165,30.1251,55.8752
11:08:10.174,27.6876,55.1252
11:08:10.180,26.4376,51.6252
11:08:10.189,24.3751,48.6877
11:08:10.200,20.3751,44.5627
11:08:10.210,16.8126,40.0627
11:08:10.219,13.4376,34.8126
11:08:10.229,9.5,30.2501
11:08:10.256,6.9375,24.5001
11:08:10.259,4,21.1251
11:08:10.261,2,18.1876
11:08:10.275,1.3125,16.6251
11:08:10.280,0.25,15.7501
11:08:10.290,0.125,14.6251
11:08:10.300,0.375,15.4376
11:08:10.310,0.3125,15.3126
11:08:10.319,0.125,15.3751
11:08:10.330,0.3125,14.8751
11:08:10.342,-0.4375,14.7501
11:08:10.350,-1,13.1251
11:08:10.362,-2.3125,11.1875
11:08:10.376,-3.4375,9.3125
11:08:10.380,-5.3125,5.9375
11:08:10.410,-7.125,2.875
11:08:10.413,-10.25,0.0625
11:08:10.415,-12.5,-3.8125
11:08:10.422,-13.9376,-7.0625
11:08:10.448,-16.6251,-10.8125
11:08:10.451,-18.3751,-14.6251
11:08:10.453,-21.2501,-18.4376
11:08:10.460,-23.2501,-21.0001
11:08:10.484,-25.8751,-25.3751
11:08:10.486,-28.0626,-28.7501
11:08:10.505,-29.5001,-32.0626
11:08:10.507,-31.4376,-34.7501
11:08:10.511,-32.6251,-38.2501
11:08:10.521,-34.1876,-40.0627
11:08:10.530,-36.6251,-42.6877
11:08:10.540,-37.1876,-46.6877
11:08:10.549,-39.7502,-48.7502
11:08:10.560,-41.0627,-52.1877
11:08:10.569,-43.1877,-55.0002
11:08:10.580,-44.5002,-59.0002
11:08:10.590,-46.3752,-59.3752
11:08:10.599,-47.3127,-62.8752
11:08:10.610,-48.6877,-65.2502
11:08:10.619,-48.5627,-66.6253
11:08:10.630,-48.6252,-64.8127
11:08:10.639,-44.1877,-62.3127
11:08:10.652,-38.3126,-52.9377
11:08:10.659,-29.1251,-42.1252
11:08:10.669,-18.6876,-25.5626
11:08:10.679,-8.1875,-9.75
11:08:10.689,1.75,7.6875
11:08:10.700,10.5,22.1876
11:08:10.710,19.0001,34.9376
11:08:10.720,24.1876,45.5627
11:08:10.730,28.0001,52.8127
11:08:10.739,28.9376,56.8752
11:08:10.749,29.5626,59.3752
11:08:10.761,28.9376,58.6877
11:08:10.771,26.5626,57.7502
11:08:10.779,24.5626,55.9377
11:08:10.790,22.5001,52.6877
11:08:10.806,20.5001,51.0627
11:08:10.822,18.8126,47.0627
11:08:10.825,16.7501,44.8752
11:08:10.841,14.3126,40.5627
11:08:10.842,10.5,36.3751
11:08:10.850,6.625,30.1251
11:08:10.859,2.5625,24.6876
11:08:10.872,-1.3125,19.4376
11:08:10.879,-4.375,14.5626
11:08:10.891,-6.8125,10.875
11:08:10.899,-8,7.4375
11:08:10.909,-9.0625,4.625
11:08:10.920,-10.125,3.5625
11:08:10.929,-10.8125,2.6875
11:08:10.939,-11.3125,2.8125
11:08:10.950,-11.3125,2.875
11:08:10.959,-10.875,2.0625
11:08:10.969,-10.875,2.25
11:08:10.979,-11.5,1.4375
11:08:10.989,-12.0625,-0.125
11:08:10.999,-12.8125,-1.3125
11:08:11.009,-14.7501,-4.25
11:08:11.019,-16.5001,-6.9375
11:08:11.030,-17.9376,-10.5
11:08:11.039,-19.9376,-13
11:08:11.050,-21.8126,-16.8751
11:08:11.059,-23.4376,-20.2501
11:08:11.069,-25.0001,-23.6251
11:08:11.080,-27.0626,-26.3126
11:08:11.089,-28.8126,-28.9376
11:08:11.100,-29.9376,-33.1251
11:08:11.109,-32.4376,-35.8751
11:08:11.120,-33.9376,-38.5001
11:08:11.129,-35.3751,-42.3127
11:08:11.140,-36.7501,-45.1252
11:08:11.149,-37.8751,-47.5002
11:08:11.163,-40.3127,-50.8127
11:08:11.170,-41.6252,-53.6252
11:08:11.180,-42.7502,-55.3127
11:08:11.190,-43.8127,-58.1252
11:08:11.200,-44.5627,-59.9377
11:08:11.209,-46.1252,-61.0002
11:08:11.219,-46.5002,-63.5627
11:08:11.230,-47.0002,-65.1877
11:08:11.239,-49.0002,-67.6253
11:08:11.250,-49.3752,-69.4378
11:08:11.261,-51.4377,-71.1253
11:08:11.270,-51.1877,-73.2503
11:08:11.279,-53.5002,-74.8128
11:08:11.289,-53.1252,-76.7503
11:08:11.300,-55.3752,-78.0003
11:08:11.309,-55.1877,-79.9378
11:08:11.320,-57.1252,-81.0003
11:08:11.329,-56.8127,-83.0003
11:08:11.340,-58.8752,-85.1253
11:08:11.349,-60.0627,-86.6253
11:08:11.360,-61.1877,-89.0003
11:08:11.369,-62.0627,-89.8128
11:08:11.380,-61.1252,-90.7504
11:08:11.389,-58.5002,-85.4378
11:08:11.399,-50.5627,-77.1878
11:08:11.409,-40.6252,-60.7502
11:08:11.421,-26.8751,-42.7502
11:08:11.429,-12.9375,-20.8126
11:08:11.450,0.5625,-0.3125
11:08:11.452,12.3125,20.8751
11:08:11.459,22.7501,38.5626
11:08:11.474,31.3751,52.6252
11:08:11.482,35.8751,63.7502
11:08:11.490,40.3127,71.6878
11:08:11.499,40.9377,77.0628
11:08:11.509,41.9377,79.7503
11:08:11.537,41.4377,81.4378
11:08:11.539,42.0002,81.6878
11:08:11.542,39.9377,81.6253
11:08:11.550,40.5002,80.6878
11:08:11.559,38.8751,79.5003
11:08:11.569,38.9376,78.5003
11:08:11.580,37.7501,78.2503
11:08:11.590,37.9376,76.4378
11:08:11.599,35.3126,74.3753
11:08:11.609,32.3751,70.1253
11:08:11.620,28.6251,66.0003
11:08:11.629,25.7501,60.7502
11:08:11.641,22.0626,56.2502
11:08:11.651,18.8126,51.5627
11:08:11.659,17.0626,46.8127
11:08:11.669,14.9376,43.6252
11:08:11.679,13.5626,41.5627
11:08:11.689,12.5,39.6252
11:08:11.700,11.8125,38.8126
11:08:11.709,11.1875,37.6251
11:08:11.719,11.3125,36.7501
11:08:11.729,11.5625,36.2501
11:08:11.739,10.8125,35.5626
11:08:11.749,10,33.8751
11:08:11.760,9.1875,32.4376
11:08:11.769,7.8125,29.5626
11:08:11.782,6.625,27.2501
11:08:11.789,4.875,23.6876
11:08:11.799,3.0625,21.1876
11:08:11.809,0.3125,17.3751
11:08:11.819,-2.0625,13
11:08:11.830,-4.6875,9.125
11:08:11.839,-6.9375,5
11:08:11.850,-8.625,0.875
11:08:11.860,-11.8125,-2.625
11:08:11.868,-13.7501,-6.625
11:08:11.879,-16.5626,-10.0625
11:08:11.889,-18.8126,-15.5626
11:08:11.898,-21.0001,-18.1876
11:08:11.910,-22.5001,-21.3751
11:08:11.922,-24.8751,-24.8126
11:08:11.928,-26.3751,-27.7501
11:08:11.939,-28.3126,-31.1876
11:08:11.968,-30.0626,-34.4376
11:08:11.970,-30.9376,-36.9376
11:08:11.973,-32.2501,-39.5627
11:08:11.980,-33.3751,-41.1877
11:08:12.012,-34.7501,-43.3127
11:08:12.015,-35.2501,-46.4377
11:08:12.016,-36.6876,-46.5627
11:08:12.019,-37.3126,-50.6252
11:08:12.054,-38.7501,-51.6877
11:08:12.055,-39.8127,-53.7502
11:08:12.057,-40.3127,-55.6252
11:08:12.063,-41.2502,-57.3127
11:08:12.080,-42.1252,-57.9377
11:08:12.082,-43.2502,-59.8127
11:08:12.088,-43.6877,-61.2502
11:08:12.107,-44.5627,-63.1877
11:08:12.114,-45.0627,-64.5627
11:08:12.128,-46.3752,-66.7503
11:08:12.133,-48.1252,-68.8128
11:08:12.153,-49.1877,-71.8753
11:08:12.156,-50.2502,-73.5003
11:08:12.160,-51.5627,-76.5003
11:08:12.169,-53.0627,-77.2503
11:08:12.179,-52.4377,-79.0003
11:08:12.192,-50.8752,-76.0003
11:08:12.200,-45.2502,-70.4378
11:08:12.209,-37.1251,-58.1877
11:08:12.219,-24.8126,-41.3752
11:08:12.229,-12,-22.1251
11:08:12.239,2.0625,-0.4375
11:08:12.250,14.3126,20.3126
11:08:12.259,26.1876,41.0002
11:08:12.269,35.1251,56.4377
11:08:12.279,42.1877,70.8128
11:08:12.289,47.5002,79.6253
11:08:12.299,49.1877,86.6253
11:08:12.309,50.5002,90.8754
11:08:12.319,51.0627,92.1254
11:08:12.329,51.4377,93.9379
11:08:12.339,49.9377,93.3754
11:08:12.349,49.6877,92.4379
11:08:12.359,47.6252,91.2504
11:08:12.371,47.1252,89.8128
11:08:12.379,45.6252,88.6253
11:08:12.389,44.6252,86.3753
11:08:12.399,41.7502,83.5628
11:08:12.409,39.3752,79.5003
11:08:12.419,35.1876,74.8753
11:08:12.429,32.4376,68.9378
11:08:12.439,28.7501,63.8127
11:08:12.448,26.6251,59.3127
11:08:12.459,24.4376,55.1877
11:08:12.469,22.5001,51.5002
11:08:12.479,21.6251,50.3752
11:08:12.489,21.6876,49.0002
11:08:12.499,21.2501,47.0627
11:08:12.509,20.6876,46.4377
11:08:12.519,20.2501,46.2502
11:08:12.529,19.2501,45.5002
11:08:12.540,18.0001,43.5627
11:08:12.549,18.1251,41.7502
11:08:12.559,17.4376,39.9377
11:08:12.568,16.8126,38.0001
11:08:12.579,15.0626,36.0001
11:08:12.589,12.9375,32.7501
11:08:12.599,11.625,30.0626
11:08:12.609,10.25,26.6251
11:08:12.619,8,23.4376
11:08:12.629,5.8125,19.1251
11:08:12.639,3.75,14.8126
11:08:12.649,2.375,10.9375
11:08:12.659,-0.1875,7.9375
11:08:12.669,-2.375,3.1875
11:08:12.679,-4,-0.3125
11:08:12.689,-5.625,-3.3125
11:08:12.699,-8.0625,-6.625
11:08:12.709,-10.25,-10.8125
11:08:12.719,-11.1875,-14.2501
11:08:12.729,-12.625,-16.4376
11:08:12.739,-14.1876,-18.5626
11:08:12.759,-15.5001,-22.0001
11:08:12.761,-16.8751,-24.2501
11:08:12.776,-17.7501,-27.5626
11:08:12.784,-19.0626,-30.0001
11:08:12.789,-20.0001,-32.1876
11:08:12.817,-22.1876,-34.0626
11:08:12.819,-23.1876,-37.3126
11:08:12.821,-23.7501,-38.1251
11:08:12.829,-25.1251,-41.0627
11:08:12.839,-25.6251,-42.1877
11:08:12.850,-27.0626,-44.4377
11:08:12.860,-26.6876,-45.3127
11:08:12.869,-27.6876,-47.0002
11:08:12.879,-28.0626,-48.2502
11:08:12.889,-29.0001,-49.8127
11:08:12.901,-29.1876,-50.7502
11:08:12.911,-30.0626,-52.6252
11:08:12.920,-30.8126,-52.9377
11:08:12.930,-31.5626,-55.5627
11:08:12.941,-33.1876,-57.6252
11:08:12.949,-33.3126,-59.1252
11:08:12.959,-35.0001,-60.8127
11:08:12.969,-35.8126,-62.3752
11:08:12.979,-37.4376,-65.3127
11:08:12.989,-37.9376,-67.6253
11:08:12.999,-41.1252,-69.8753
11:08:13.009,-41.5002,-72.3753
11:08:13.019,-44.0002,-75.1878
11:08:13.029,-42.9377,-75.7503
11:08:13.039,-42.1877,-75.1878
11:08:13.049,-38.3126,-71.0628
11:08:13.059,-31.1251,-61.6252
11:08:13.075,-19.3126,-46.3752
11:08:13.089,-8.0625,-27.3751
11:08:13.100,6.8125,-6
11:08:13.109,20.9376,17.1251
11:08:13.119,33.6876,37.3126
11:08:13.129,43.3752,55.5002
11:08:13.139,53.1252,71.3128
11:08:13.149,59.9377,84.0628
11:08:13.159,63.0627,91.6254
11:08:13.169,64.8127,97.4379
11:08:13.179,65.3753,100.8129
11:08:13.189,65.8753,101.6254
11:08:13.199,64.9377,102.3754
11:08:13.208,65.1878,101.1254
11:08:13.219,63.7502,100.6254
11:08:13.228,63.3127,98.2504
11:08:13.239,60.5627,96.5629
11:08:13.249,57.1877,92.7504
11:08:13.259,54.8752,88.6878
11:08:13.283,51.2502,84.5628
11:08:13.286,48.2502,80.7503
11:08:13.310,45.4377,75.5003
11:08:13.311,42.3752,70.0628
11:08:13.314,39.5627,65.5627
11:08:13.321,38.0001,62.6252
11:08:13.356,36.5626,60.8127
11:08:13.360,35.3751,58.4377
11:08:13.361,34.8126,57.8127
11:08:13.366,35.5001,57.0002
11:08:13.371,34.8126,57.6252
11:08:13.424,34.3751,57.1877
11:08:13.425,34.3126,56.6252
11:08:13.440,33.7501,55.7502
11:08:13.456,33.0001,53.9377
11:08:13.456,31.4376,51.8127
11:08:13.456,29.7501,49.7502
11:08:13.457,25.9376,45.1877
11:08:13.460,23.3751,40.9377
11:08:13.468,21.1876,37.2501
11:08:13.482,17.3751,33.0626
11:08:13.489,15.1876,27.6876
11:08:13.499,12.5625,23.7501
11:08:13.509,9.5625,20.1251
11:08:13.520,6.375,15.3126
11:08:13.530,4.0625,10.3125
11:08:13.540,1.5625,6.625
11:08:13.549,-0.6875,2.875
11:08:13.559,-2.8125,-0.8125
11:08:13.569,-3.625,-4.625
11:08:13.579,-5.9375,-6.6875
11:08:13.589,-6.9375,-10.5625
11:08:13.599,-9.25,-13.0625
11:08:13.609,-12.6875,-19.5001
11:08:13.619,-14.4376,-22.3751
11:08:13.629,-16.3751,-25.9376
11:08:13.639,-17.5001,-28.5001
11:08:13.651,-18.3126,-30.1876
11:08:13.661,-19.9376,-32.3126
11:08:13.671,-21.8751,-35.0626
11:08:13.679,-23.3751,-36.6876
11:08:13.689,-23.9376,-39.5627
11:08:13.702,-24.8126,-40.8752
11:08:13.709,-26.0626,-42.5627
11:08:13.719,-27.6251,-44.3127
11:08:13.728,-29.5001,-47.1877
11:08:13.739,-30.3126,-48.3127
11:08:13.749,-31.6251,-50.5002
11:08:13.761,-32.1876,-51.7502
11:08:13.769,-32.3751,-52.5627
11:08:13.779,-32.3126,-55.2502
11:08:13.797,-33.4376,-56.0627
11:08:13.799,-33.6251,-58.4377
11:08:13.808,-35.2501,-59.7502
11:08:13.819,-36.8751,-62.9377
11:08:13.829,-37.8751,-64.5002
11:08:13.838,-39.4377,-65.0627
11:08:13.849,-36.8126,-62.2502
11:08:13.859,-30.1251,-52.6252
11:08:13.868,-21.3751,-39.5627
11:08:13.879,-10.375,-22.0626
11:08:13.890,0.9375,-1.5625
11:08:13.900,13.1251,17.4376
11:08:13.911,22.5001,36.8751
11:08:13.920,30.6251,51.8752
11:08:13.929,36.2501,66.1253
11:08:13.939,40.0002,74.6878
11:08:13.949,41.9377,83.4378
11:08:13.959,41.1252,86.7503
11:08:13.969,30.6251,84.1253
11:08:13.979,11.125,73.4378
11:08:13.989,-13.6251,59.3752
11:08:13.999,-40.6252,42.0002
11:08:14.010,-64.3127,28.2501
11:08:14.020,-85.1878,17.5626
11:08:14.031,-96.3754,12.3125
11:08:14.041,-99.5629,13.6251
11:08:14.049,-99.1254,15.5626
11:08:14.065,-97.2504,18.9376
11:08:14.101,-94.3129,22.1876
11:08:14.106,-91.6879,25.1876
11:08:14.106,-90.8754,27.6251
11:08:14.106,-88.5003,28.3126
11:08:14.109,-86.5628,29.3126
11:08:14.125,-85.1878,29.4376
11:08:14.130,-85.5628,28.6251
11:08:14.139,-84.0003,28.0001
11:08:14.149,-84.1253,27.8126
11:08:14.159,-82.6878,27.0626
11:08:14.174,-82.3753,26.3126
11:08:14.179,-81.7503,26.0001
11:08:14.189,-80.5003,24.8751
11:08:14.199,-81.3128,22.9376
11:08:14.209,-79.8128,20.3126
11:08:14.219,-80.3753,16.8126
11:08:14.229,-81.5628,12.3125
11:08:14.239,-83.3128,5.9375
11:08:14.251,-85.2503,-0.25
11:08:14.260,-89.0628,-7.625
11:08:14.269,-92.1254,-13.3751
11:08:14.279,-95.3129,-21.4376
11:08:14.289,-98.3129,-27.6876
11:08:14.299,-100.0004,-33.3751
11:08:14.308,-102.4379,-40.7502
11:08:14.319,-104.8754,-46.8752
11:08:14.329,-107.1879,-53.8752
11:08:14.339,-110.8129,-60.3127
11:08:14.349,-112.5629,-66.6878
11:08:14.359,-115.0629,-72.5628
11:08:14.369,-116.6879,-78.4378
11:08:14.379,-118.188,-84.2503
11:08:14.389,-120.813,-89.6878
11:08:14.399,-121.813,-95.5629
11:08:14.409,-123.688,-100.0004
11:08:14.419,-125.1255,-106.3129
11:08:14.430,-127.563,-110.6254
11:08:14.441,-129.5005,-116.3129
11:08:14.448,-131.0005,-120.313
11:08:14.459,-132.438,-125.438
11:08:14.468,-133.188,-129.7505
11:08:14.479,-135.188,-133.688
11:08:14.489,-136.438,-137.563
11:08:14.499,-138.1255,-141.938
11:08:14.509,-138.7505,-145.563
11:08:14.519,-141.6255,-148.8756
11:08:14.529,-143.1255,-152.3756
11:08:14.539,-145.563,-154.7506
11:08:14.549,-146.8131,-157.3756
11:08:14.558,-148.1256,-158.6256
11:08:14.569,-148.3131,-160.5006
11:08:14.579,-150.5006,-161.6881
11:08:14.589,-151.0631,-163.7506
11:08:14.599,-151.7506,-163.8756
11:08:14.609,-149.1256,-163.3131
11:08:14.619,-147.4381,-161.7506
11:08:14.629,-144.8755,-161.3756
11:08:14.639,-143.8755,-159.6881
11:08:14.649,-142.6255,-158.5006
11:08:14.660,-140.7505,-155.1881
11:08:14.670,-136.938,-149.0631
11:08:14.681,-128.688,-137.7505
11:08:14.689,-119.0005,-121.688
11:08:14.699,-104.4379,-101.6254
11:08:14.709,-88.5628,-76.1878
11:08:14.725,-70.5628,-51.3752
11:08:14.761,-54.6877,-24.6876
11:08:14.765,-38.7501,-2.3125
11:08:14.767,-25.5001,19.0626
11:08:14.774,-13.9376,35.9376
11:08:14.774,-6.1875,50.3752
11:08:14.782,0.625,59.5002
11:08:14.789,4.75,67.5003
11:08:14.831,9.875,72.9378
11:08:14.833,11,76.6878
11:08:14.835,12,76.3753
11:08:14.840,12.0625,78.1253
11:08:14.842,12.625,77.1253
11:08:14.849,12.9375,78.4378
11:08:14.875,14.0626,76.1253
11:08:14.877,13.4376,76.1253
11:08:14.880,14.0626,73.0628
11:08:14.889,13,71.2503
11:08:14.899,12,68.1878
11:08:14.909,10.4375,62.7502
11:08:14.924,9.25,58.5002
11:08:14.929,7.6875,54.3127
11:08:14.940,5.375,49.9377
11:08:14.951,3.0625,45.6877
11:08:14.959,1.4375,42.3127
11:08:14.969,0.0625,38.8126
11:08:14.979,-0.375,37.3126
11:08:14.989,-1.0625,35.6876
11:08:14.999,-1.875,34.6876
11:08:15.009,-2.375,32.1251
11:08:15.019,-2.375,31.1251
11:08:15.030,-1.6875,29.2501
11:08:15.039,-1.9375,26.6251
11:08:15.050,-3.5625,22.5001
11:08:15.060,-5,17.8126
11:08:15.069,-6.9375,12.25
11:08:15.079,-10.4375,6.375
11:08:15.089,-14.8126,-0.1875
11:08:15.099,-18.4376,-7.125
11:08:15.109,-22.1876,-14.5626
11:08:15.119,-26.0001,-21.8126
11:08:15.131,-30.0626,-28.3126
11:08:15.140,-34.8126,-35.1876
11:08:15.149,-38.0626,-42.3127
11:08:15.159,-43.3127,-49.2502
11:08:15.169,-46.6877,-55.8127
11:08:15.179,-51.1252,-61.8127
11:08:15.189,-54.8127,-67.8753
11:08:15.199,-58.8127,-73.4378
11:08:15.212,-62.9377,-78.7503
11:08:15.219,-65.8128,-83.4378
11:08:15.229,-70.0628,-87.0003
11:08:15.239,-71.7503,-90.6253
11:08:15.251,-74.0003,-91.4379
11:08:15.261,-74.6253,-95.0629
11:08:15.270,-76.5628,-96.6879
11:08:15.279,-76.3128,-97.5004
11:08:15.289,-76.4378,-98.3129
11:08:15.303,-76.3128,-98.1254
11:08:15.309,-77.0003,-99.1879
11:08:15.319,-77.9378,-99.7504
11:08:15.330,-79.7503,-99.5004
11:08:15.339,-80.7503,-101.3754
11:08:15.377,-81.8128,-100.1879
11:08:15.381,-81.2503,-99.6254
11:08:15.381,-79.1253,-96.7504
11:08:15.384,-77.4378,-94.1254
11:08:15.390,-76.1878,-92.0629
11:08:15.399,-74.6253,-89.8128
11:08:15.409,-72.5003,-88.3753
11:08:15.419,-70.1878,-86.0628
11:08:15.431,-68.5628,-84.0628
11:08:15.439,-69.0628,-83.1253
11:08:15.449,-67.5628,-82.3753
11:08:15.459,-68.6253,-81.6878
11:08:15.469,-68.0628,-81.1878
11:08:15.479,-67.1253,-79.5003
11:08:15.489,-66.2503,-78.0628
11:08:15.499,-62.5002,-71.8128
11:08:15.509,-54.9377,-62.5002
11:08:15.519,-44.3127,-46.9377
11:08:15.529,-31.5001,-29.6251
11:08:15.539,-18.8751,-8.5
11:08:15.549,-3.8125,12.5625
11:08:15.559,9.8125,34.2501
11:08:15.569,23.7501,53.9377
11:08:15.580,34.1876,71.4378
11:08:15.590,43.3752,84.8128
11:08:15.606,49.8127,94.5629
11:08:15.609,54.8752,102.3754
11:08:15.619,57.5627,105.9379
11:08:15.629,58.1252,107.4379
11:08:15.644,58.0002,105.8754
11:08:15.651,57.1877,103.8754
11:08:15.659,54.5002,101.1879
11:08:15.675,53.3127,97.8754
11:08:15.681,50.2502,94.6879
11:08:15.689,48.2502,90.2504
11:08:15.699,46.1877,86.2503
11:08:15.709,43.1877,82.0628
11:08:15.719,40.6877,75.6253
11:08:15.729,36.6876,68.9378
11:08:15.740,33.1251,61.0002
11:08:15.749,29.9376,53.9377
11:08:15.759,26.3751,46.9377
11:08:15.770,23.0626,39.8127
11:08:15.779,19.8751,32.6251
11:08:15.790,16.5001,26.5626
11:08:15.799,12.625,21.4376
11:08:15.810,9.75,16.4376
11:08:15.819,7.9375,11.625
11:08:15.830,5.75,8.125
11:08:15.839,2.125,4.25
11:08:15.851,-1.25,0.0625
11:08:15.860,-3.75,-5.1875
11:08:15.870,-7.625,-10
11:08:15.880,-12.4375,-14.9376
11:08:15.892,-17.5626,-20.4376
11:08:15.899,-23.1876,-24.9376
11:08:15.911,-27.3126,-28.5001
11:08:15.921,-31.3126,-33.3751
11:08:15.929,-34.5626,-37.1876
11:08:15.940,-37.1251,-41.1252
11:08:15.949,-39.7502,-43.4377
11:08:15.969,-41.7502,-46.6877
11:08:15.974,-44.1877,-49.4377
11:08:15.981,-46.3752,-51.6877
11:08:15.989,-48.7502,-55.5627
11:08:15.999,-51.0627,-57.1252
11:08:16.020,-51.6877,-57.7502
11:08:16.023,-53.6877,-59.0627
11:08:16.039,-53.8127,-59.9377
11:08:16.040,-56.4377,-60.4377
11:08:16.054,-56.2502,-60.6252
11:08:16.059,-57.4377,-60.9377
11:08:16.069,-56.3127,-60.1252
11:08:16.079,-56.1252,-57.8752
11:08:16.104,-52.6877,-56.0002
11:08:16.106,-49.4377,-52.1877
11:08:16.112,-45.3752,-48.6877
11:08:16.149,-43.8752,-45.4377
11:08:16.150,-40.5627,-42.8127
11:08:16.159,-40.8752,-41.1877
11:08:16.172,-39.2502,-39.4377
11:08:16.174,-39.0626,-38.4376
11:08:16.178,-38.4376,-38.1876
11:08:16.181,-38.6251,-38.0001
11:08:16.219,-39.3126,-37.3126
11:08:16.223,-39.3127,-36.8126
11:08:16.226,-39.8752,-36.8751
11:08:16.231,-40.3752,-38.8126
11:08:16.232,-41.1877,-38.9376
11:08:16.239,-40.8127,-39.3751
11:08:16.249,-41.3752,-39.3752
11:08:16.259,-39.8127,-39.3127
11:08:16.269,-37.1251,-37.3751
11:08:16.279,-31.8126,-35.1251
11:08:16.289,-26.0626,-28.0001
11:08:16.300,-16.9376,-17.8751
11:08:16.309,-7.3125,-4.625
11:08:16.319,3.9375,11.75
11:08:16.329,15.1876,28.5626
11:08:16.339,26.1876,46.0002
11:08:16.349,35.3126,61.8127
11:08:16.359,44.0002,73.9378
11:08:16.370,50.6252,85.5003
11:08:16.379,55.9377,92.6879
11:08:16.389,58.6252,95.8129
11:08:16.400,60.5627,98.5629
11:08:16.410,61.0627,97.9379
11:08:16.434,61.3127,96.9379
11:08:16.434,58.8127,94.8129
11:08:16.440,56.9377,89.1878
11:08:16.457,53.6252,86.1878
11:08:16.459,51.3752,81.1253
11:08:16.478,48.9377,76.1878
11:08:16.482,45.3752,69.8753
11:08:16.494,41.4377,63.8127
11:08:16.504,36.5626,57.3127
11:08:16.519,31.1251,49.8127
11:08:16.519,26.0001,40.5002
11:08:16.532,20.2501,31.9376
11:08:16.539,15.0626,23.3126
11:08:16.550,9.3125,15.6251
11:08:16.559,4.125,10.0625
11:08:16.569,0.5,5.4375
11:08:16.579,-2.625,2.0625
11:08:16.589,-5.375,-0.375
11:08:16.599,-7.0625,-1.3125
11:08:16.609,-8.5,-1.5625
11:08:16.619,-9.0625,-1.9375
11:08:16.629,-10.0625,-2.75
11:08:16.656,-10.625,-1.5625
11:08:16.673,-9.9375,-0.8125
11:08:16.693,-10,-1.375
11:08:16.693,-10.875,-2.0625
11:08:16.693,-12.3125,-2.5625
11:08:16.693,-14.7501,-5.5625
11:08:16.699,-17.3126,-7.8125
11:08:16.709,-19.3751,-9.3125
11:08:16.720,-22.4376,-12.25
11:08:16.729,-26.1876,-14.3751
11:08:16.739,-28.2501,-15.5001
11:08:16.749,-27.8751,-16.6876
11:08:16.759,-26.2501,-14.9376
11:08:16.769,-25.7501,-14.3126
11:08:16.780,-23.2501,-14.1876
11:08:16.789,-21.8126,-14.0626
11:08:16.801,-21.0626,-12.375
11:08:16.821,-19.3126,-11.25
11:08:16.822,-19.5001,-11.3125
11:08:16.829,-20.1876,-10.1875
11:08:16.839,-20.0001,-11.625
11:08:16.850,-21.1876,-10.4375
11:08:16.860,-20.8751,-11.25
11:08:16.869,-19.9376,-11.4375
11:08:16.879,-20.9376,-12.0625
11:08:16.889,-20.0626,-12.875
11:08:16.899,-21.6251,-13.5626
11:08:16.909,-21.1251,-14.3126
11:08:16.919,-22.4376,-15.1251
11:08:16.930,-21.9376,-16.7501
11:08:16.939,-22.7501,-17.3751
11:08:16.949,-20.6251,-17.6876
11:08:16.959,-19.4376,-17.3751
11:08:16.969,-18.3751,-17.3126
11:08:16.979,-17.5001,-17.5626
11:08:16.991,-17.5626,-19.2501
11:08:16.999,-18.2501,-21.0626
11:08:17.009,-18.3126,-22.4376
11:08:17.020,-16.3751,-21.6876
11:08:17.029,-12.875,-18.4376
11:08:17.039,-5.875,-8.5625
11:08:17.049,4.3125,2.75
11:08:17.064,16.4376,19.1876
11:08:17.074,29.1251,36.7501
11:08:17.084,41.8127,52.8127
11:08:17.094,53.1877,69.6253
11:08:17.126,62.3752,81.1878
11:08:17.129,67.9378,91.3754
11:08:17.131,72.1253,96.0629
11:08:17.139,74.3753,98.1879
11:08:17.149,73.9378,98.7504
11:08:17.159,73.4378,97.0629
11:08:17.171,70.0003,93.8129
11:08:17.184,67.0003,89.1253
11:08:17.189,63.4377,84.0628
11:08:17.201,60.0002,78.9378
11:08:17.209,56.4377,73.8128
11:08:17.219,50.5627,66.4378
11:08:17.230,41.1877,55.4377
11:08:17.239,34.5001,47.2502
11:08:17.249,28.0626,39.8127
11:08:17.259,21.1251,32.0626
11:08:17.269,11.25,22.0001
11:08:17.279,5.875,16.0626
11:08:17.289,1,10.25
11:08:17.299,-2.6875,6.8125
11:08:17.316,-4.9375,4.9375
11:08:17.322,-5.5,4.5
11:08:17.338,-4.875,4.125
11:08:17.340,-3.9375,4.875
11:08:17.349,-4,6.9375
11:08:17.359,-5.125,7.0625
11:08:17.370,-5.125,7.9375
11:08:17.379,-6.8125,7.6875
11:08:17.389,-7.875,8.875
11:08:17.399,-8.375,9.625
11:08:17.409,-7.875,11.25
11:08:17.420,-6.875,12.625
11:08:17.431,-5.6875,14.3126
11:08:17.439,-3.625,16.1251
11:08:17.449,-1.5,17.8751
11:08:17.459,0.4375,19.8126
11:08:17.469,1.875,21.0626
11:08:17.480,2.8125,20.3126
11:08:17.489,1,19.3751
11:08:17.499,0.0625,18.3751
11:08:17.509,-1.4375,16.3751
11:08:17.519,-3.4375,15.3126
11:08:17.532,-4.1875,13.5001
11:08:17.539,-5.4375,13.2501
11:08:17.549,-5.5625,11.25
11:08:17.559,-6.1875,10.3125
11:08:17.569,-6.9375,8.25
11:08:17.587,-8.4375,5.5
11:08:17.590,-9.5625,2.9375
11:08:17.624,-10.4375,0.5
11:08:17.627,-11.125,-0.6875
11:08:17.629,-10.9375,-2
11:08:17.631,-10.6875,-3.75
11:08:17.662,-9.875,-5.0625
11:08:17.666,-9.5,-6.5625
11:08:17.669,-9.4375,-9.5625
11:08:17.671,-11.3125,-12.9375
11:08:17.709,-12.375,-16.5001
11:08:17.711,-14.4376,-20.2501
11:08:17.714,-17.6876,-24.8126
11:08:17.721,-20.4376,-29.8751
11:08:17.721,-22.7501,-34.8126
11:08:17.729,-24.3126,-39.3752
11:08:17.739,-25.3751,-42.6877
11:08:17.753,-24.8751,-45.9377
11:08:17.770,-23.7501,-47.1252
11:08:17.771,-22.8751,-50.1252
11:08:17.779,-21.1876,-52.3127
11:08:17.789,-18.9376,-52.0002
11:08:17.804,-14.0626,-47.4377
11:08:17.823,-6.3125,-37.4376
11:08:17.823,2.375,-26.0001
11:08:17.832,12.0625,-11
11:08:17.839,22.0001,3.9375
11:08:17.849,31.9376,19.5626
11:08:17.859,39.0001,32.0626
11:08:17.873,43.1252,41.5002
11:08:17.879,46.1252,47.3127
11:08:17.889,45.4377,49.7502
11:08:17.900,43.2502,50.4377
11:08:17.909,40.7502,48.6252
11:08:17.951,36.7501,46.7502
11:08:17.954,33.6251,43.6877
11:08:17.970,30.6251,42.8752
11:08:17.971,28.5626,40.3752
11:08:17.973,26.2501,40.2502
11:08:17.979,25.1876,38.6251
11:08:17.979,24.1251,38.4376
11:08:17.989,22.7501,36.0001
11:08:17.999,19.1251,33.6876
11:08:18.008,16.1251,28.9376
11:08:18.019,12.8125,25.3126
11:08:18.029,9.6875,21.6876
11:08:18.039,8.125,17.0626
11:08:18.048,5.25,14.3126
11:08:18.058,3.6875,12.8125
11:08:18.069,2.0625,11.75
11:08:18.079,1.0625,11.4375
11:08:18.089,0.6875,12.75
11:08:18.099,0.875,14.1251
11:08:18.109,3.125,17.5001
11:08:18.119,6.5625,22.0001
11:08:18.129,11.9375,27.8126
11:08:18.139,15.3126,32.0626
11:08:18.149,17.3751,35.3751
11:08:18.159,18.7501,35.8126
11:08:18.169,17.5001,35.1251
11:08:18.179,14.5001,33.3751
11:08:18.188,11.75,31.0001
11:08:18.199,9.625,29.6876
11:08:18.211,9.125,28.5626
11:08:18.219,9.125,25.8751
11:08:18.229,7.6875,23.5001
11:08:18.239,6.125,19.8751
11:08:18.249,4.6875,15.7501
11:08:18.259,2.3125,11.8125
11:08:18.269,0,7.875
11:08:18.279,-1,4.5625
11:08:18.289,-2.8125,1.375
11:08:18.299,-2.875,-0.8125
11:08:18.309,-1.9375,-2.875
11:08:18.319,-3,-6.1875
11:08:18.329,-4.6875,-10.375
11:08:18.339,-7.25,-14.6251
11:08:18.349,-9.8125,-19.1876
11:08:18.359,-12,-22.5001
11:08:18.369,-13.7501,-26.8751
11:08:18.379,-15.2501,-32.5001
11:08:18.389,-16.5001,-36.4376
11:08:18.399,-17.8126,-40.3127
11:08:18.409,-18.8126,-43.6877
11:08:18.419,-18.0001,-47.2502
11:08:18.429,-17.9376,-49.7502
11:08:18.439,-18.4376,-52.5002
11:08:18.449,-19.3126,-54.9377
11:08:18.459,-20.9376,-60.1877
11:08:18.470,-22.8751,-65.1252
11:08:18.479,-25.0626,-69.7503
11:08:18.489,-26.8126,-74.3753
11:08:18.499,-31.0626,-80.3753
11:08:18.509,-34.4376,-84.1253
11:08:18.519,-38.4376,-91.1879
11:08:18.529,-43.1877,-96.5004
11:08:18.540,-47.9377,-104.6879
11:08:18.549,-53.3752,-112.8754
11:08:18.559,-58.3752,-119.438
11:08:18.569,-63.5627,-123.813
11:08:18.582,-63.5627,-123.813
11:08:18.589,-60.1252,-119.063
11:08:18.599,-52.3752,-108.1879
11:08:18.618,-43.8127,-93.3754
11:08:18.624,-33.0626,-76.1878
11:08:18.639,-22.0626,-57.3127
11:08:18.641,-11.9375,-40.6252
11:08:18.650,-2.5625,-23.3751
11:08:18.659,5.6875,-9.4375
11:08:18.669,12.1875,2.125
11:08:18.679,17.6876,11.6875
11:08:18.692,19.3126,19.3126
11:08:18.699,21.9376,24.0001
11:08:18.709,21.6876,27.7501
11:08:18.719,21.9376,30.9376
11:08:18.728,21.9376,32.9376
11:08:18.739,21.1251,35.8751
11:08:18.749,22.6251,38.1251
11:08:18.762,24.3751,41.3752
11:08:18.771,26.3751,43.4377
11:08:18.795,27.7501,45.7502
11:08:18.797,29.1251,47.3752
11:08:18.800,28.3126,46.7502
11:08:18.829,26.1251,46.1252
11:08:18.832,24.6876,44.5627
11:08:18.841,23.5001,44.0627
11:08:18.841,22.5626,42.9377
11:08:18.869,23.1876,42.5627
11:08:18.871,24.6876,43.1877
11:08:18.874,26.3751,43.6877
11:08:18.883,25.8751,43.4377
11:08:18.906,25.0001,41.9377
11:08:18.909,23.8751,40.8752
11:08:18.911,22.8751,39.9377
11:08:18.919,23.4376,40.1877
11:08:18.929,25.0001,41.0002
11:08:18.939,26.5001,41.6877
11:08:18.950,27.3751,42.0627
11:08:18.959,27.9376,41.5002
11:08:18.969,27.5626,39.8752
11:08:18.979,25.0001,35.6876
11:08:18.992,22.6876,30.3126
11:08:18.999,19.0626,24.6251
11:08:19.009,15.5626,17.7501
11:08:19.019,11.125,11.1875
11:08:19.029,6.9375,4.9375
11:08:19.042,3.8125,-1.125
11:08:19.049,2.125,-5.625
11:08:19.059,1.0625,-10.75
11:08:19.069,-0.1875,-15.9376
11:08:19.084,-1.5625,-20.5001
11:08:19.089,-3.5,-25.7501
11:08:19.099,-5.1875,-30.6876
11:08:19.110,-7.5625,-36.8751
11:08:19.119,-10.25,-43.3752
11:08:19.129,-15.3126,-50.1877
11:08:19.139,-19.6876,-56.8752
11:08:19.149,-24.3751,-62.2502
11:08:19.159,-28.9376,-67.4378
11:08:19.170,-32.8751,-73.2503
11:08:19.179,-35.6876,-78.6878
11:08:19.189,-39.8752,-83.0628
11:08:19.217,-43.5002,-88.0003
11:08:19.219,-46.6877,-93.0004
11:08:19.222,-51.0002,-96.8754
11:08:19.229,-53.6877,-100.8754
11:08:19.246,-57.3127,-105.5629
11:08:19.249,-61.5627,-108.0629
11:08:19.264,-63.3752,-112.5629
11:08:19.269,-65.4378,-115.0004
11:08:19.279,-67.0628,-115.6254
11:08:19.289,-68.0628,-118.063
11:08:19.302,-69.1878,-119.688
11:08:19.309,-69.4378,-119.3755
11:08:19.319,-68.6878,-119.313
11:08:19.329,-64.8752,-114.1254
11:08:19.339,-58.9377,-106.3754
11:08:19.349,-49.8127,-93.0004
11:08:19.359,-39.0001,-75.5628
11:08:19.371,-26.8751,-55.3127
11:08:19.379,-14.5001,-34.8126
11:08:19.389,-2,-12.25
11:08:19.399,11.3125,8.3125
11:08:19.411,24.1251,29.4376
11:08:19.419,37.2501,48.9377
11:08:19.429,48.4377,65.5627
11:08:19.439,56.6877,77.8128
11:08:19.451,61.3127,86.6253
11:08:19.459,65.0002,92.6254
11:08:19.469,66.0628,96.0004
11:08:19.479,66.6878,98.5629
11:08:19.490,67.5628,99.0629
11:08:19.499,68.4378,100.5004
11:08:19.509,68.9378,99.2504
11:08:19.519,67.1878,98.6879
11:08:19.529,65.3752,94.6254
11:08:19.539,61.3752,90.4379
11:08:19.549,57.8752,84.5628
11:08:19.559,54.3752,79.2503
11:08:19.570,50.9377,73.1253
11:08:19.579,47.5002,67.1878
11:08:19.589,45.1252,61.3127
11:08:19.598,43.0002,57.4377
11:08:19.612,40.7502,53.3127
11:08:19.619,38.2501,50.1252
11:08:19.629,36.5626,47.2502
11:08:19.639,34.6876,44.0002
11:08:19.651,33.7501,43.0002
11:08:19.659,33.8126,42.8127
11:08:19.669,34.0626,41.8752
11:08:19.679,33.4376,41.0627
11:08:19.689,33.2501,40.1877
11:08:19.699,30.7501,38.3126
11:08:19.709,28.6251,35.3751
11:08:19.719,26.8126,32.3126
11:08:19.729,24.4376,30.3126
11:08:19.739,22.3126,27.5001
11:08:19.750,20.0626,24.0001
11:08:19.759,17.9376,20.6251
11:08:19.769,14.2501,16.5626
11:08:19.780,12,11.875
11:08:19.789,9.75,10.3125
11:08:19.799,8.25,7.3125
11:08:19.808,7.8125,4.4375
11:08:19.821,6.9375,2.375
11:08:19.835,7.625,1.5
11:08:19.839,9,-0.25
11:08:19.850,9.375,-1.75
11:08:19.859,9.0625,-3.125
11:08:19.869,7.125,-6.125
11:08:19.879,3.9375,-9.5625
11:08:19.890,1.8125,-12.1875
11:08:19.899,-0.5,-15.5001
11:08:19.919,-3,-17.4376
11:08:19.925,-6.1875,-19.3751
11:08:19.940,3.8125,-15.3126
11:08:19.941,11.0625,-8
11:08:19.956,16.4376,-1.125
11:08:19.959,17.9376,1.9375
11:08:19.974,15.1251,0.6875
11:08:19.981,11.875,-1.4375
11:08:19.989,8.5,-3.1875
11:08:19.999,9.625,-3.25
11:08:20.009,18.1876,1.6875
11:08:20.019,27.8751,7.75
11:08:20.029,37.6251,14.9376
11:08:20.039,48.1252,22.1251
11:08:20.051,56.8127,28.0001
11:08:20.059,60.7502,30.3126
11:08:20.069,62.8127,31.6251
11:08:20.079,64.2502,32.5001
11:08:20.089,66.1878,34.4376
11:08:20.099,71.8128,41.1877
11:08:20.109,82.2503,54.0627
11:08:20.119,94.7504,70.7503
11:08:20.129,107.9379,88.8753
11:08:20.140,119.5005,106.9379
11:08:20.149,130.6255,125.0005
11:08:20.159,141.2505,141.438
11:08:20.169,148.9381,154.5006
11:08:20.196,155.6256,165.1881
11:08:20.197,159.1881,173.6257
11:08:20.199,161.8756,179.3757
11:08:20.234,164.9381,183.9382
11:08:20.236,165.5631,185.4382
11:08:20.237,165.1256,186.2507
11:08:20.240,163.0006,185.8757
11:08:20.271,161.1256,183.4382
11:08:20.272,159.0631,182.1882
11:08:20.276,157.9381,180.1882
11:08:20.305,156.8756,178.9382
11:08:20.306,155.4381,177.8757
11:08:20.309,152.9381,174.9382
11:08:20.312,150.9381,171.2507
11:08:20.326,148.0631,166.6256
11:08:20.330,143.5005,161.5006
11:08:20.340,138.313,155.0631
11:08:20.349,130.938,146.813
11:08:20.359,122.438,138.813
11:08:20.369,112.8129,130.688
11:08:20.379,106.8754,124.813
11:08:20.389,102.2504,120.3755
11:08:20.400,98.9379,117.1879
11:08:20.408,96.6879,114.8754
11:08:20.419,93.8754,112.1254
11:08:20.431,92.3129,108.8754
11:08:20.439,91.7504,108.1254
11:08:20.449,91.5629,106.5004
11:08:20.459,90.8754,104.6879
11:08:20.471,90.8129,103.0004
11:08:20.496,91.6879,102.2504
11:08:20.499,91.0004,101.2504
11:08:20.501,90.3754,98.3754
11:08:20.509,88.0628,94.2504
11:08:20.520,86.0003,89.5628
11:08:20.529,82.5003,85.3753
11:08:20.546,79.1253,80.1253
11:08:20.560,76.5628,74.8753
11:08:20.565,73.3753,70.6878
11:08:20.580,69.6253,65.2502
11:08:20.594,66.3753,59.0002
11:08:20.595,62.0627,53.8127
11:08:20.599,57.5002,47.4377
11:08:20.609,53.4377,41.9377
11:08:20.619,49.3127,35.5001
11:08:20.629,45.3752,30.9376
11:08:20.639,41.1877,25.4376
11:08:20.652,37.7501,20.5001
11:08:20.659,35.6251,15.3751
11:08:20.669,31.6251,11.6875
11:08:20.680,28.6251,7.4375
11:08:20.689,25.0001,3
11:08:20.700,23.3751,-1.25
11:08:20.709,20.8126,-3.75
11:08:20.719,19.4376,-6.4375
11:08:20.728,19.5626,-9.875
11:08:20.740,18.1876,-10.125
11:08:20.749,17.8751,-12.6875
11:08:20.759,17.9376,-15.3751
11:08:20.771,17.0626,-16.5001
11:08:20.779,15.3126,-19.0626
11:08:20.789,13.8126,-23.0626
11:08:20.799,11.4375,-24.6876
11:08:20.809,9.4375,-27.8751
11:08:20.819,8,-31.1876
11:08:20.829,5.5625,-33.3751
11:08:20.839,3.25,-37.8126
11:08:20.849,1.0625,-41.5627
11:08:20.859,-1.375,-43.8752
11:08:20.869,-4.375,-47.1877
11:08:20.879,-6.6875,-49.8752
11:08:20.889,-6,-50.1877
11:08:20.900,-3.625,-47.0002
11:08:20.909,2.5625,-38.6876
11:08:20.921,11.8125,-25.8751
11:08:20.929,23.0001,-9.875
11:08:20.939,34.9376,9.125
11:08:20.949,45.9377,26.9376
11:08:20.959,54.7502,44.1877
11:08:20.969,64.0627,58.8127
11:08:20.979,71.3753,71.6878
11:08:20.990,76.7503,81.4378
11:08:20.999,80.4378,88.6878
11:08:21.009,81.7503,93.6254
11:08:21.019,82.5003,95.5629
11:08:21.029,81.9378,97.2504
11:08:21.039,80.5628,96.1254
11:08:21.049,79.4378,95.0004
11:08:21.061,76.7503,92.7504
11:08:21.073,75.4378,90.2503
11:08:21.079,73.3128,89.1253
11:08:21.092,71.7503,87.0003
11:08:21.099,68.8753,84.0003
11:08:21.113,67.0628,79.9378
11:08:21.123,63.1252,75.8753
11:08:21.136,59.6252,71.0628
11:08:21.144,55.3127,65.6253
11:08:21.154,51.5627,59.3127
11:08:21.164,47.9377,55.2502
11:08:21.175,44.0627,50.1252
11:08:21.184,41.3127,45.3127
11:08:21.194,39.3127,42.3752
11:08:21.204,37.0001,39.3127
11:08:21.214,35.4376,36.6876
11:08:21.224,34.6876,35.5626
11:08:21.243,33.6251,34.6876
11:08:21.248,32.1251,32.4376
11:08:21.255,30.0626,30.6251
11:08:21.265,28.9376,27.4376
11:08:21.280,26.5001,24.1876
11:08:21.295,24.3751,22.0626
11:08:21.296,22.1251,18.3126
11:08:21.304,19.0626,13.9376
11:08:21.314,16.5001,11.125
11:08:21.324,13.6876,6.5625
11:08:21.334,10.6875,2.8125
11:08:21.344,8.6875,-1.1875
11:08:21.355,5.5,-4.75
11:08:21.366,2.8125,-8.9375
11:08:21.374,0.875,-13.4376
11:08:21.384,-2.9375,-16.9376
11:08:21.396,-5.375,-21.0001
11:08:21.404,-6.8125,-25.3126
11:08:21.415,-9.5,-28.0626
11:08:21.424,-11.6875,-31.5001
11:08:21.434,-13.6876,-36.0001
11:08:21.451,-15.3751,-38.6251
11:08:21.454,-17.5626,-41.7502
11:08:21.464,-18.4376,-44.6252
11:08:21.475,-20.4376,-46.6877
11:08:21.484,-22.1251,-49.3127
11:08:21.494,-23.4376,-52.0627
11:08:21.504,-24.5001,-53.1877
11:08:21.514,-24.6876,-55.9377
11:08:21.524,-26.5001,-57.0002
11:08:21.535,-27.5001,-59.0002
11:08:21.544,-28.6876,-61.5627
11:08:21.554,-29.8126,-63.0627
11:08:21.565,-30.6876,-65.4378
11:08:21.574,-31.5001,-66.3753
11:08:21.584,-31.1251,-67.6878
11:08:21.596,-32.5626,-68.5003
11:08:21.604,-32.6251,-69.7503
11:08:21.614,-34.7501,-72.0628
11:08:21.628,-35.4376,-73.3753
11:08:21.634,-36.6876,-75.8753
11:08:21.644,-37.3751,-76.9378
11:08:21.653,-38.4376,-80.3753
11:08:21.663,-40.1877,-81.4378
11:08:21.674,-40.8752,-84.2503
11:08:21.684,-43.0002,-86.1253
11:08:21.694,-43.5002,-88.8753
11:08:21.705,-44.5627,-88.3753
11:08:21.715,-41.9377,-88.5003
11:08:21.724,-37.8751,-81.6253
11:08:21.735,-29.8126,-73.0003
11:08:21.744,-19.6251,-56.9377
11:08:21.777,-7.875,-40.8752
11:08:21.781,3.5,-21.2501
11:08:21.781,15.8126,-4.1875
11:08:21.785,26.1876,14.5626
11:08:21.812,34.8126,29.0626
11:08:21.814,42.3127,41.5627
11:08:21.816,47.7502,50.2502
11:08:21.855,50.5627,58.5002
11:08:21.888,52.9377,62.2502
11:08:21.926,53.3752,65.0002
11:08:21.941,53.2502,64.7502
11:08:21.941,51.5627,64.7502
11:08:21.941,50.4377,62.9377
11:08:21.954,48.2502,61.6252
11:08:21.957,46.7502,58.7502
11:08:21.960,44.8752,56.5002
11:08:21.961,43.6877,53.8752
11:08:21.961,40.6252,51.1877
11:08:21.964,37.8126,47.1252
11:08:21.974,34.5001,42.3752
11:08:21.985,31.1876,38.0001
11:08:21.994,27.0626,32.6251
11:08:22.004,24.0001,27.1876
11:08:22.014,21.3751,23.4376
11:08:22.025,18.8751,20.5626
11:08:22.034,16.5001,17.4376
11:08:22.044,15.6251,15.0626
11:08:22.054,14.6876,14.3751
11:08:22.063,14.5001,13.3126
11:08:22.075,13.9376,13.9376
11:08:22.084,14.5626,13.0625
11:08:22.094,13.5626,12.8125
11:08:22.105,12.6875,11.5
11:08:22.114,11.3125,9.875
11:08:22.124,7.375,3.125
11:08:22.134,4.375,-0.8125
11:08:22.144,2,-4
11:08:22.155,-0.5,-7.75
11:08:22.165,-3.4375,-11.3125
11:08:22.175,-6.1875,-14.6876
11:08:22.185,-8.4375,-18.7501
11:08:22.194,-10.375,-21.0626
11:08:22.203,-13,-25.1876
11:08:22.216,-15.5001,-29.7501
11:08:22.224,-17.4376,-32.8751
11:08:22.234,-20.1876,-35.3751
11:08:22.245,-21.8751,-39.0001
11:08:22.255,-23.8126,-41.0627
11:08:22.265,-25.3751,-45.4377
11:08:22.274,-27.3751,-47.3127
11:08:22.284,-28.9376,-50.4377
11:08:22.294,-30.9376,-52.8127
11:08:22.304,-32.3126,-55.4377
11:08:22.315,-33.0626,-57.4377
11:08:22.324,-34.0001,-59.4377
11:08:22.334,-34.4376,-60.3752
11:08:22.345,-35.6251,-62.7502
11:08:22.354,-36.4376,-63.5627
11:08:22.364,-37.5626,-65.6252
11:08:22.375,-38.7501,-66.9378
11:08:22.384,-38.9376,-68.6253
11:08:22.395,-40.8127,-70.0628
11:08:22.404,-41.6252,-72.6253
11:08:22.414,-43.3752,-74.5628
11:08:22.426,-44.2502,-77.5003
11:08:22.435,-46.6252,-78.9378
11:08:22.444,-46.9377,-80.7503
11:08:22.454,-48.7502,-83.0628
11:08:22.463,-48.3752,-83.6878
11:08:22.474,-47.5002,-82.5628
11:08:22.484,-43.3752,-77.5003
11:08:22.493,-35.9376,-69.5628
11:08:22.503,-26.3126,-55.1877
11:08:22.514,-15.0626,-39.9377
11:08:22.525,-2.875,-20.7501
11:08:22.534,8.4375,-3.75
11:08:22.544,19.2501,14.3126
11:08:22.563,28.1876,28.6876
11:08:22.570,35.2501,40.7502
11:08:22.577,41.0627,50.0627
11:08:22.584,43.4377,57.0627
11:08:22.601,45.1877,60.7502
11:08:22.607,45.8127,62.8127
11:08:22.615,44.5627,63.0627
11:08:22.623,43.8752,62.2502
11:08:22.633,42.1252,61.1877
11:08:22.645,40.6252,58.6877
11:08:22.654,38.1876,55.7502
11:08:22.664,36.6876,53.5627
11:08:22.675,33.9376,50.0627
11:08:22.687,31.5626,46.8752
11:08:22.694,29.0001,42.1877
11:08:22.706,25.3126,37.8751
11:08:22.714,21.8126,32.8751
11:08:22.724,18.0626,27.8126
11:08:22.736,15.5626,23.0001
11:08:22.744,13.5001,19.2501
11:08:22.754,10.5,16.1251
11:08:22.764,9.9375,13.125
11:08:22.774,9.3125,12.125
11:08:22.784,8.5,10.75
11:08:22.797,8.6875,10.625
11:08:22.804,9.0625,10.5
11:08:22.815,9.3125,11.125
11:08:22.824,8.75,10.125
11:08:22.834,8,9.5625
11:08:22.845,7.0625,7.875
11:08:22.854,5.5,5.8125
11:08:22.864,3.6875,4.1875
11:08:22.874,1.5625,0.9375
11:08:22.885,-0.375,-2.0625
11:08:22.894,-3.1875,-6
11:08:22.905,-5.4375,-8.9375
11:08:22.914,-7.5625,-13.8126
11:08:22.924,-10.125,-16.8126
11:08:22.935,-12.75,-20.7501
11:08:22.944,-15.6876,-23.5626
11:08:22.954,-17.5001,-26.8751
11:08:22.965,-19.9376,-30.9376
11:08:22.975,-22.3126,-34.1251
11:08:22.984,-23.7501,-38.2501
11:08:22.994,-25.9376,-40.4377
11:08:23.004,-28.1876,-44.1252
11:08:23.014,-29.8126,-47.0002
11:08:23.024,-31.2501,-50.5002
11:08:23.056,-34.0001,-54.3752
11:08:23.059,-35.0001,-56.6252
11:08:23.061,-36.4376,-57.8752
11:08:23.065,-37.7501,-59.6252
11:08:23.080,-38.0626,-62.0002
11:08:23.084,-39.2501,-64.8752
11:08:23.094,-40.2502,-65.5628
11:08:23.104,-41.0002,-66.8128
11:08:23.114,-41.5627,-69.1878
11:08:23.125,-42.9377,-71.0003
11:08:23.134,-44.1877,-71.7503
11:08:23.144,-44.3127,-74.3128
11:08:23.155,-45.8752,-76.2503
11:08:23.164,-47.5627,-77.1878
11:08:23.176,-48.6252,-79.5003
11:08:23.184,-49.9377,-82.6253
11:08:23.194,-51.0002,-82.5003
11:08:23.219,-51.2502,-84.8753
11:08:23.221,-52.1877,-85.8128
11:08:23.293,-51.0002,-84.3753
11:08:23.306,-47.0627,-80.7503
11:08:23.337,-39.6877,-71.3128
11:08:23.339,-29.8126,-57.8127
11:08:23.339,-17.6876,-40.8752
11:08:23.340,-6.125,-21.7501
11:08:23.342,6.6875,-2.8125
11:08:23.350,17.8751,15.8126
11:08:23.350,27.0001,30.2501
11:08:23.359,34.1251,43.6877
11:08:23.369,40.7502,54.7502
11:08:23.379,44.2502,62.0627
11:08:23.389,47.0627,67.0003
11:08:23.399,47.6252,70.3128
11:08:23.410,48.0002,71.5628
11:08:23.419,47.1252,71.5003
11:08:23.428,46.8127,71.1253
11:08:23.440,45.0002,68.7503
11:08:23.453,44.0002,67.3753
11:08:23.460,42.0002,66.0003
11:08:23.469,40.6252,62.9377
11:08:23.479,30.0001,49.1252
11:08:23.490,27.3751,44.9377
11:08:23.499,25.0001,41.0002
11:08:23.511,23.0626,37.8751
11:08:23.519,22.1876,35.2501
11:08:23.529,20.4376,33.0001
11:08:23.539,20.5626,31.8751
11:08:23.549,20.0001,31.8751
11:08:23.560,19.4376,30.3751
11:08:23.569,19.5001,30.4376
11:08:23.579,19.8126,29.7501
11:08:23.591,18.6251,29.3126
11:08:23.599,16.6251,27.1876
11:08:23.609,16.2501,24.7501
11:08:23.619,14.6876,23.2501
11:08:23.630,12.5625,20.4376
11:08:23.639,10.625,16.6251
11:08:23.649,8.9375,13.6251
11:08:23.659,6.6875,10.8125
11:08:23.669,4.375,7
11:08:23.679,2.0625,3.0625
11:08:23.689,0.1875,-0.75
11:08:23.699,-2,-3.75
11:08:23.709,-4.5,-7.125
11:08:23.720,-6.125,-11.5625
11:08:23.729,-8.3125,-14.2501
11:08:23.740,-10.25,-17.5626
11:08:23.749,-12.125,-20.0626
11:08:23.760,-13.4376,-23.7501
11:08:23.770,-15.6251,-25.5626
11:08:23.779,-17.0001,-27.5626
11:08:23.789,-18.1251,-30.3751
11:08:23.799,-19.1251,-33.3751
11:08:23.809,-19.8751,-35.8751
11:08:23.819,-21.5626,-37.9376
11:08:23.829,-22.6876,-38.3751
11:08:23.839,-24.1876,-40.3752
11:08:23.849,-24.2501,-43.0002
11:08:23.859,-25.3751,-45.5002
11:08:23.869,-26.7501,-46.3752
11:08:23.879,-27.8751,-47.8752
11:08:23.894,-29.3751,-50.4377
11:08:23.901,-30.5626,-50.8752
11:08:23.909,-32.0001,-54.0627
11:08:23.924,-33.7501,-56.0627
11:08:23.934,-34.3126,-58.2502
11:08:23.939,-36.6251,-60.8752
11:08:23.949,-37.5001,-61.5002
11:08:23.959,-37.8751,-64.0002
11:08:23.968,-37.5626,-64.4377
11:08:23.980,-34.0626,-60.3127
11:08:23.989,-28.5626,-53.3752
11:08:23.999,-20.0626,-40.8127
11:08:24.009,-7.75,-25.3126
11:08:24.019,3,-7.6875
11:08:24.029,15.7501,10.875
11:08:24.039,26.3751,28.0001
11:08:24.049,36.5001,44.2502
11:08:24.059,44.6252,58.5002
11:08:24.069,50.0002,69.2503
11:08:24.079,55.5627,77.0003
11:08:24.089,57.1252,82.1878
11:08:24.100,59.0627,85.5628
11:08:24.109,58.5627,87.9378
11:08:24.119,59.1252,87.1878
11:08:24.129,57.6252,87.5628
11:08:24.139,58.1252,86.5003
11:08:24.151,55.5627,84.7503
11:08:24.160,55.3752,83.3753
11:08:24.169,53.4377,81.6878
11:08:24.179,52.7502,79.5628
11:08:24.189,50.1252,77.3753
11:08:24.204,47.0627,72.9378
11:08:24.209,44.6252,68.3128
11:08:24.219,41.9377,64.8752
11:08:24.230,38.7501,60.1252
11:08:24.239,35.7501,56.1252
11:08:24.250,33.9376,52.3127
11:08:24.262,32.3126,49.2502
11:08:24.269,30.5001,47.3127
11:08:24.279,29.8751,46.5627
11:08:24.289,28.8751,44.3752
11:08:24.299,28.6251,43.3752
11:08:24.309,28.6251,42.6877
11:08:24.338,28.3751,42.4377
11:08:24.340,27.6251,40.8752
11:08:24.343,25.8751,39.5627
11:08:24.349,25.3126,37.3751
11:08:24.359,23.9376,35.7501
11:08:24.371,21.5001,32.7501
11:08:24.379,19.3126,29.3126
11:08:24.389,17.8126,25.6251
11:08:24.400,15.6876,22.8126
11:08:24.409,13.3126,19.3126
11:08:24.419,10.6875,14.6251
11:08:24.430,8.6875,11.3125
11:08:24.439,6.4375,8.125
11:08:24.449,3.4375,4.9375
11:08:24.464,1.5625,0.6875
11:08:24.470,0.125,-2.6875
11:08:24.504,-1.8125,-5.3125
11:08:24.507,-4.5625,-8.75
11:08:24.509,-5.75,-12.3125
11:08:24.511,-8.25,-15.6876
11:08:24.543,-9.25,-17.9376
11:08:24.547,-11.5625,-20.8126
11:08:24.548,-12.625,-23.1876
11:08:24.581,-14.1251,-25.3126
11:08:24.581,-15.4376,-27.4376
11:08:24.603,-16.1876,-29.5001
11:08:24.607,-16.7501,-31.6251
11:08:24.619,-18.3751,-33.4376
11:08:24.619,-19.4376,-35.2501
11:08:24.621,-21.0001,-36.7501
11:08:24.636,-22.8126,-38.2501
11:08:24.644,-23.3751,-40.6252
11:08:24.645,-24.3751,-42.6252
11:08:24.654,-25.8751,-45.2502
11:08:24.664,-26.7501,-46.1877
11:08:24.674,-28.3751,-48.8127
11:08:24.685,-29.5001,-50.5627
11:08:24.696,-30.0001,-52.2502
11:08:24.704,-30.7501,-53.4377
11:08:24.714,-30.6251,-53.6252
11:08:24.724,-28.5626,-52.1252
11:08:24.734,-24.3751,-45.8752
11:08:24.746,-17.0626,-35.3126
11:08:24.754,-6.9375,-21.8751
11:08:24.764,4.3125,-5.75
11:08:24.775,21.8751,22.2501
11:08:24.784,33.0001,38.8751
11:08:24.795,42.6877,54.1252
11:08:24.804,49.9377,67.0628
11:08:24.814,54.6252,77.3128
11:08:24.824,59.3127,84.0003
11:08:24.834,61.0627,88.7503
11:08:24.844,62.9377,92.6879
11:08:24.854,63.0002,93.3129
11:08:24.865,62.1252,93.3129
11:08:24.873,61.5002,92.2504
11:08:24.884,59.6877,92.0004
11:08:24.894,58.6252,89.0003
11:08:24.904,56.6252,88.5628
11:08:24.913,54.6877,85.1253
11:08:24.924,52.7502,82.8753
11:08:24.934,49.6877,79.0003
11:08:24.946,46.8127,74.1878
11:08:24.955,43.4377,69.4378
11:08:24.963,40.2502,65.0627
11:08:24.979,36.9376,60.5627
11:08:24.984,34.0626,56.8127
11:08:24.994,31.7501,53.2502
11:08:25.004,29.8126,50.6877
11:08:25.014,29.4376,48.7502
11:08:25.024,29.0001,48.5002
11:08:25.034,28.1251,48.2502
11:08:25.045,27.5626,47.5002
11:08:25.053,27.2501,47.3752
11:08:25.064,26.9376,46.8752
11:08:25.074,26.1251,46.0002
11:08:25.083,25.0001,44.1877
11:08:25.095,23.2501,42.8127
11:08:25.104,21.1876,39.8752
11:08:25.114,19.3126,37.3751
11:08:25.124,17.3126,33.3751
11:08:25.135,14.9376,30.5001
11:08:25.146,11.9375,26.6876
11:08:25.153,9.875,23.3751
11:08:25.164,7.375,19.1251
11:08:25.174,4.4375,16.1251
11:08:25.184,2.25,12.1875
11:08:25.209,0.125,7.9375
11:08:25.215,-2.4375,4.75
11:08:25.222,-4.4375,1.5625
11:08:25.230,-6.75,-1.8125
11:08:25.247,-8.5625,-5.9375
11:08:25.252,-10.125,-8.1875
11:08:25.260,-12.9375,-11.375
11:08:25.270,-13.7501,-13.8751
11:08:25.279,-15.5626,-16.8751
11:08:25.289,-16.5001,-18.8751
11:08:25.299,-17.8126,-20.9376
11:08:25.310,-18.5001,-23.2501
11:08:25.320,-19.7501,-24.3126
11:08:25.329,-20.5001,-27.0626
11:08:25.340,-22.2501,-28.6876
11:08:25.354,-23.0626,-31.0001
11:08:25.361,-25.6876,-34.8126
