timestamp,Red,IR
10:35:16.734,44.4377,70.6253
10:35:16.744,49.0002,76.8128
10:35:16.753,51.0939,83.6253
10:35:16.763,53.9065,86.8128
10:35:16.780,55.3127,90.4379
10:35:16.784,57.3127,92.3129
10:35:16.794,57.719,93.3754
10:35:16.803,57.844,95.1879
10:35:16.813,57.5315,94.6254
10:35:16.824,57.0002,93.0629
10:35:16.835,54.8127,90.8754
10:35:16.842,52.4689,88.2503
10:35:16.853,49.3752,82.6878
10:35:16.864,45.6564,77.3753
10:35:16.873,42.2189,70.3128
10:35:16.883,38.3439,65.3753
10:35:16.892,34.5314,58.8127
10:35:16.903,31.1251,54.3127
10:35:16.912,28.4064,48.2502
10:35:16.923,26.1251,44.6877
10:35:16.931,23.1876,39.9377
10:35:16.943,21.4688,37.2501
10:35:16.953,18.9688,33.1876
10:35:16.963,17.2813,29.8126
10:35:16.972,14.2501,25.9376
10:35:16.983,12.1563,22.0626
10:35:16.993,9.9688,18.1251
10:35:17.002,7.5625,13.1876
10:35:17.013,4.5313,10.9375
10:35:17.022,2.125,4.625
10:35:17.032,-0.5938,0.6875
10:35:17.042,-2.8125,-4.5
10:35:17.053,-6.25,-8.4375
10:35:17.061,-9.25,-14.4376
10:35:17.072,-12.4688,-19.9376
10:35:17.083,-14.6563,-23.5001
10:35:17.093,-17.7501,-29.6251
10:35:17.102,-20.9688,-34.0626
10:35:17.112,-22.8751,-39.1251
10:35:17.142,-26.3126,-43.5627
10:35:17.144,-28.0939,-48.9377
10:35:17.160,-31.2501,-53.3127
10:35:17.226,-33.9376,-58.5002
10:35:17.228,-35.8126,-63.1877
10:35:17.229,-38.9376,-67.1253
10:35:17.229,-40.9689,-71.6878
10:35:17.230,-42.1877,-76.1253
10:35:17.234,-44.0002,-79.5628
10:35:17.270,-45.8127,-83.2503
10:35:17.270,-48.0627,-85.6253
10:35:17.271,-49.3127,-88.2503
10:35:17.273,-50.2814,-91.3754
10:35:17.278,-51.9377,-94.1254
10:35:17.279,-52.719,-95.6254
10:35:17.285,-53.8127,-98.7504
10:35:17.292,-54.594,-99.8129
10:35:17.302,-53.9377,-99.2504
10:35:17.313,-52.0939,-96.4379
10:35:17.322,-47.4377,-88.9378
10:35:17.332,-39.6877,-77.7503
10:35:17.343,-30.2501,-62.3752
10:35:17.352,-19.4688,-43.0002
10:35:17.361,-7.4688,-21.9376
10:35:17.373,3.1875,-3
10:35:17.381,13.2188,15.5001
10:35:17.392,22.2813,30.5626
10:35:17.402,28.8439,43.6252
10:35:17.412,34.9064,54.0627
10:35:17.423,39.8439,63.0627
10:35:17.432,44.7502,70.2503
10:35:17.441,47.9689,76.1253
10:35:17.451,50.7502,80.7503
10:35:17.462,52.0627,85.3128
10:35:17.472,53.6252,88.0003
10:35:17.482,55.094,89.6878
10:35:17.491,55.1565,91.5004
10:35:17.503,55.1565,90.8129
10:35:17.511,54.219,90.4379
10:35:17.521,53.094,89.8753
10:35:17.532,51.0939,86.4378
10:35:17.542,48.0939,82.7503
10:35:17.552,45.1877,76.9378
10:35:17.561,40.9689,71.1878
10:35:17.573,38.0314,65.6878
10:35:17.582,34.1564,59.7502
10:35:17.591,31.4064,54.6252
10:35:17.602,27.8126,50.0627
10:35:17.614,25.7501,45.5627
10:35:17.622,23.0938,41.6252
10:35:17.633,21.3126,37.9376
10:35:17.641,18.8751,33.8751
10:35:17.651,16.4688,30.1251
10:35:17.662,14.6563,26.8126
10:35:17.672,12.4688,23.1876
10:35:17.681,10.2188,19.8126
10:35:17.691,8.5,15.6251
10:35:17.702,4.9375,11.1875
10:35:17.711,3.4063,7.125
10:35:17.722,-0.0625,2.4375
10:35:17.732,-2.5,-2.4375
10:35:17.743,-4.7188,-5.875
10:35:17.752,-7.8125,-12.0625
10:35:17.783,-10.4063,-15.8751
10:35:17.785,-13.6251,-21.8126
10:35:17.788,-16.2501,-25.6876
10:35:17.793,-19.4376,-32.0001
10:35:17.803,-22.1876,-35.9376
10:35:17.812,-25.4376,-42.5002
10:35:17.823,-28.1251,-46.3752
10:35:17.832,-30.8126,-52.1877
10:35:17.842,-33.5626,-57.3127
10:35:17.852,-36.3126,-62.0002
10:35:17.891,-39.0314,-67.1878
10:35:17.891,-40.5627,-71.6253
10:35:17.892,-43.0002,-76.3753
10:35:17.895,-45.5939,-79.4378
10:35:17.905,-46.7502,-83.1878
10:35:17.933,-48.7502,-85.9378
10:35:17.937,-50.4377,-89.2503
10:35:17.938,-51.5314,-92.0004
10:35:17.942,-53.3127,-94.6254
10:35:17.954,-54.0627,-97.2504
10:35:17.963,-55.7502,-99.5004
10:35:18.001,-57.0627,-101.3754
10:35:18.003,-57.0002,-101.8129
10:35:18.005,-56.219,-100.9379
10:35:18.007,-53.6252,-96.9379
10:35:18.014,-47.4689,-88.9378
10:35:18.025,-39.2814,-75.2503
10:35:18.032,-29.6564,-59.7502
10:35:18.042,-18.0626,-38.8751
10:35:18.053,-6.875,-18.8751
10:35:18.062,3.9063,0.4375
10:35:18.072,14.3438,18.7501
10:35:18.083,22.0313,33.8751
10:35:18.093,29.0626,45.8752
10:35:18.101,34.9689,55.6252
10:35:18.112,40.3752,63.9377
10:35:18.123,44.3439,72.3128
10:35:18.131,47.7814,78.0628
10:35:18.141,50.2189,83.0628
10:35:18.152,52.6877,87.0628
10:35:18.163,53.6252,89.3753
10:35:18.172,55.5002,90.6254
10:35:18.183,54.844,91.9379
10:35:18.192,55.8127,92.0629
10:35:18.202,54.0627,91.3754
10:35:18.212,53.9065,89.8753
10:35:18.223,50.7189,87.3128
10:35:18.233,48.2189,82.3128
10:35:18.241,44.8752,77.3128
10:35:18.252,41.1252,71.5628
10:35:18.261,37.8126,65.1252
10:35:18.273,34.1251,59.7502
10:35:18.284,30.9689,54.9377
10:35:18.292,28.2814,49.6252
10:35:18.301,25.8438,45.2502
10:35:18.314,23.4376,41.3752
10:35:18.322,20.9688,38.6251
10:35:18.331,19.0626,34.0626
10:35:18.342,16.9688,30.5001
10:35:18.353,14.8751,26.6876
10:35:18.362,12.7188,23.6251
10:35:18.372,10,19.0001
10:35:18.381,7.625,15.8126
10:35:18.392,4.8438,10.5625
10:35:18.402,2.8125,7.5
10:35:18.412,0.0313,1.9375
10:35:18.421,-2.8438,-2.125
10:35:18.432,-5.2813,-7.5
10:35:18.442,-8.7813,-11.5
10:35:18.451,-11.5938,-17.5001
10:35:18.462,-15.1251,-21.8751
10:35:18.474,-17.8438,-28.0626
10:35:18.481,-20.3751,-32.6876
10:35:18.511,-23.2188,-37.8126
10:35:18.517,-25.8751,-42.6877
10:35:18.519,-29.0001,-48.4377
10:35:18.521,-31.6876,-52.6252
10:35:18.539,-34.1876,-57.3752
10:35:18.541,-36.6876,-62.6252
10:35:18.556,-38.8751,-67.6253
10:35:18.562,-41.6877,-72.6878
10:35:18.572,-43.6564,-76.1253
10:35:18.603,-45.8127,-79.9378
10:35:18.604,-47.2189,-83.3753
10:35:18.606,-48.6877,-86.0003
10:35:18.613,-49.9377,-89.1878
10:35:18.645,-51.2189,-91.5004
10:35:18.645,-52.9377,-93.6879
10:35:18.650,-54.1877,-96.3129
10:35:18.655,-55.0315,-97.7504
10:35:18.689,-55.9377,-100.3754
10:35:18.689,-56.4065,-101.6254
10:35:18.693,-56.7502,-101.2504
10:35:18.719,-55.094,-99.1879
10:35:18.719,-51.4377,-94.1879
10:35:18.722,-44.7814,-83.9378
10:35:18.726,-35.7501,-69.5003
10:35:18.741,-25.0001,-51.8127
10:35:18.743,-13.7501,-31.1876
10:35:18.755,-2.2813,-11.375
10:35:18.762,8.0625,7.875
10:35:18.772,17.0001,25.3751
10:35:18.782,25.4688,38.6251
10:35:18.792,32.0626,50.6877
10:35:18.802,38.1251,60.8752
10:35:18.812,42.4689,69.5003
10:35:18.822,46.9689,75.9378
10:35:18.832,50.1564,82.3753
10:35:18.842,52.9065,86.8753
10:35:18.852,54.594,89.5628
10:35:18.862,55.8127,92.5004
10:35:18.872,56.7815,94.0629
10:35:18.882,56.9065,95.6254
10:35:18.892,56.969,95.0004
10:35:18.902,55.9377,94.6879
10:35:18.912,54.594,92.5004
10:35:18.921,51.3127,89.1878
10:35:18.931,49.5939,84.2503
10:35:18.942,45.1252,78.8128
10:35:18.952,42.4689,72.4378
10:35:18.962,38.4064,66.8753
10:35:18.971,35.3439,61.5627
10:35:18.981,32.0314,56.4377
10:35:18.994,29.6251,51.8752
10:35:19.002,27.2189,47.8127
10:35:19.012,25.5938,44.6877
10:35:19.021,23.1563,41.1252
10:35:19.031,20.8126,37.1251
10:35:19.062,19.1876,34.6876
10:35:19.064,16.4063,30.0001
10:35:19.067,14.8751,26.6876
10:35:19.072,12.25,22.8126
10:35:19.081,9.375,18.7501
10:35:19.093,7.25,15.2501
10:35:19.101,4.9063,9.875
10:35:19.112,2,6.8125
10:35:19.122,-0.4063,1.0625
10:35:19.135,-3.6563,-2.5
10:35:19.142,-6,-8.625
10:35:19.153,-9.125,-13
10:35:19.162,-11.5313,-18.1876
10:35:19.172,-14.9376,-23.6876
10:35:19.184,-17.2188,-28.0626
10:35:19.191,-20.2501,-33.4376
10:35:19.200,-23.1251,-38.3126
10:35:19.212,-25.8438,-44.1877
10:35:19.222,-28.5001,-48.3127
10:35:19.231,-30.9689,-53.3752
10:35:19.242,-33.4376,-58.0627
10:35:19.252,-35.5939,-61.7502
10:35:19.261,-38.0939,-66.3128
10:35:19.272,-39.6252,-71.1253
10:35:19.282,-41.9064,-75.2503
10:35:19.301,-43.9689,-77.8753
10:35:19.303,-45.3752,-81.0628
10:35:19.337,-46.6877,-84.1878
10:35:19.339,-47.8127,-87.0628
10:35:19.342,-49.3439,-89.9378
10:35:19.344,-50.6564,-91.3129
10:35:19.379,-51.4377,-93.3129
10:35:19.382,-52.6564,-95.1254
10:35:19.384,-52.9065,-96.8754
10:35:19.391,-52.6877,-95.1879
10:35:19.393,-50.2502,-91.9379
10:35:19.401,-44.3752,-84.3128
10:35:19.432,-36.7814,-72.1253
10:35:19.435,-27.8126,-56.3127
10:35:19.436,-16.4376,-37.3751
10:35:19.441,-5.125,-16.0626
10:35:19.472,5.9063,3.25
10:35:19.473,15.9688,21.0001
10:35:19.476,24.7188,35.7501
10:35:19.484,31.0939,48.4377
10:35:19.492,37.2189,58.0627
10:35:19.504,42.0939,66.9378
10:35:19.511,46.5002,74.6253
10:35:19.521,49.8752,80.3753
10:35:19.532,52.8127,85.8753
10:35:19.541,54.9065,88.5628
10:35:19.552,55.8127,91.0629
10:35:19.562,56.594,93.3129
10:35:19.571,57.6877,94.3754
10:35:19.581,57.1252,94.2504
10:35:19.591,56.719,93.8129
10:35:19.602,55.3127,92.8129
10:35:19.611,53.6877,89.5003
10:35:19.623,50.0002,84.9378
10:35:19.631,47.4064,79.6253
10:35:19.641,43.5002,74.0003
10:35:19.652,40.4064,67.8128
10:35:19.662,36.9064,63.0627
10:35:19.672,33.7189,57.6252
10:35:19.682,31.2814,53.1877
10:35:19.693,28.9064,49.0627
10:35:19.701,26.6876,46.5002
10:35:19.711,24.8126,42.0002
10:35:19.721,22.4063,39.8127
10:35:19.732,20.8751,35.3751
10:35:19.740,18.5938,31.6876
10:35:19.750,16.2501,28.2501
10:35:19.762,13.8126,24.3126
10:35:19.771,11.5,20.6251
10:35:19.781,9.0625,16.8126
10:35:19.791,6.4063,12.125
10:35:19.802,3.6875,8.0625
10:35:19.818,1.8125,3.75
10:35:19.821,-1.4375,-0.125
10:35:19.837,-3.25,-5.4375
10:35:19.851,-6.75,-10
10:35:19.853,-9.0938,-14.7501
10:35:19.868,-12.1563,-19.5001
10:35:19.871,-14.2813,-24.1876
10:35:19.881,-16.9376,-28.8751
10:35:19.891,-20.1563,-34.0001
10:35:19.902,-22.5626,-37.6251
10:35:19.912,-25.0626,-43.0002
10:35:19.921,-27.7189,-47.4377
10:35:19.932,-30.1251,-52.4377
10:35:19.940,-32.8439,-56.5002
10:35:19.950,-35.3126,-61.1252
10:35:19.989,-37.1564,-65.4378
10:35:19.990,-39.5002,-69.0628
10:35:19.993,-41.0939,-72.6253
10:35:19.994,-42.3127,-76.5003
10:35:20.029,-44.7814,-79.4378
10:35:20.029,-46.2502,-82.1253
10:35:20.032,-47.3127,-84.8753
10:35:20.034,-48.1877,-87.6878
10:35:20.043,-50.2814,-89.8753
10:35:20.076,-50.2814,-92.0004
10:35:20.077,-51.2502,-93.3754
10:35:20.079,-51.1877,-93.4379
10:35:20.081,-48.6877,-88.9378
10:35:20.117,-44.5314,-82.3753
10:35:20.118,-35.9689,-69.6878
10:35:20.122,-25.9688,-53.9377
10:35:20.123,-15.3438,-33.6876
10:35:20.142,-3.5625,-14.0626
10:35:20.144,7.2813,5.5
10:35:20.151,16.4063,21.6876
10:35:20.162,24.5938,36.6251
10:35:20.170,30.9376,48.6252
10:35:20.180,37.4064,58.5627
10:35:20.191,42.4689,67.4378
10:35:20.202,46.0939,74.4378
10:35:20.210,49.8752,79.6253
10:35:20.223,52.0939,84.1878
10:35:20.231,53.6565,87.4378
10:35:20.240,55.0315,89.8753
10:35:20.250,55.4377,90.6878
10:35:20.267,56.1877,92.5629
10:35:20.271,55.6565,91.6254
10:35:20.281,55.4065,91.3754
10:35:20.293,53.3752,89.6253
10:35:20.303,51.7189,86.5003
10:35:20.311,48.6877,81.8753
10:35:20.343,45.4377,76.8128
10:35:20.344,42.0314,70.8753
10:35:20.349,38.0626,65.4377
10:35:20.352,35.5314,60.1877
10:35:20.361,31.6251,55.1877
10:35:20.371,29.9689,50.6252
10:35:20.381,26.5314,46.5002
10:35:20.390,24.6876,43.2502
10:35:20.400,22.8438,38.8751
10:35:20.410,20.2188,36.6876
10:35:20.420,18.5626,32.1251
10:35:20.430,16.6876,28.3126
10:35:20.441,14.2813,25.3126
10:35:20.451,11.9688,20.6251
10:35:20.460,10.1875,18.2501
10:35:20.470,7.4375,13.1876
10:35:20.481,5.4375,10.1875
10:35:20.491,2.3125,4.625
10:35:20.501,-0.4688,0.9375
10:35:20.511,-2.375,-4.3125
10:35:20.520,-5.125,-7.6875
10:35:20.531,-7.5938,-12.8125
10:35:20.541,-10.4375,-16.8751
10:35:20.551,-13.0938,-21.9376
10:35:20.563,-15.6563,-27.3751
10:35:20.570,-19.0626,-30.5001
10:35:20.581,-20.5001,-36.3126
10:35:20.590,-24.3438,-39.7502
10:35:20.601,-26.9064,-45.7502
10:35:20.610,-29.5314,-50.5627
10:35:20.621,-32.4376,-55.4377
10:35:20.631,-34.9376,-60.6252
10:35:20.647,-37.8126,-65.5627
10:35:20.652,-39.7814,-70.1253
10:35:20.661,-42.0627,-74.5628
10:35:20.671,-44.1252,-79.3753
10:35:20.680,-46.4689,-81.8128
10:35:20.690,-48.3439,-85.4378
10:35:20.701,-49.1252,-89.3128
10:35:20.728,-51.0939,-90.9379
10:35:20.732,-52.719,-93.8754
10:35:20.733,-53.6252,-96.4379
10:35:20.743,-54.7502,-98.8129
10:35:20.771,-55.5627,-100.0629
10:35:20.774,-54.7815,-98.6879
10:35:20.776,-52.5939,-95.9379
10:35:20.783,-46.9377,-87.2503
10:35:20.807,-39.6564,-74.6253
10:35:20.813,-29.2814,-57.9377
10:35:20.813,-17.5626,-36.7501
10:35:20.840,-5.5938,-16.4376
10:35:20.842,5.4063,2.5
10:35:20.844,15.2501,19.7501
10:35:20.852,23.0001,33.3751
10:35:20.882,29.8439,45.6877
10:35:20.885,35.4064,55.1252
10:35:20.887,40.3127,63.8752
10:35:20.890,44.3752,71.4378
10:35:20.901,47.5314,76.9378
10:35:20.912,50.1877,80.0628
10:35:20.921,51.1564,83.5003
10:35:20.930,52.4689,84.9378
10:35:20.940,52.844,87.1253
10:35:20.950,53.5315,87.2503
10:35:20.960,53.0315,87.6253
10:35:20.971,52.6877,86.6878
10:35:20.980,51.1252,85.1878
10:35:20.991,49.4064,82.7503
10:35:21.001,46.3752,78.0003
10:35:21.011,44.2189,73.6253
10:35:21.022,39.9689,67.5003
10:35:21.030,36.5001,63.1252
10:35:21.040,33.6564,56.4377
10:35:21.051,30.4376,52.0002
10:35:21.060,28.0001,47.1252
10:35:21.070,24.9063,42.0627
10:35:21.081,22.9688,39.5002
10:35:21.090,21.4688,35.9376
10:35:21.101,18.9688,32.0001
10:35:21.111,17.8751,28.4376
10:35:21.147,14.1251,25.3751
10:35:21.153,13.4688,21.5001
10:35:21.155,10.5,18.1876
10:35:21.172,8.5938,14.0001
10:35:21.172,6.0938,9.6875
10:35:21.187,3.6875,6.5
10:35:21.202,0.9375,1.9375
10:35:21.205,-1.25,-1.4375
10:35:21.206,-3.6875,-6.5625
10:35:21.219,-6.625,-10.4375
10:35:21.221,-9.375,-15.9376
10:35:21.230,-12.2188,-20.9376
10:35:21.240,-15.3438,-25.1876
10:35:21.250,-18.0313,-29.6876
10:35:21.260,-20.2501,-34.8751
10:35:21.270,-23.4063,-38.3751
10:35:21.280,-25.8751,-43.7502
10:35:21.290,-28.4064,-49.0627
10:35:21.301,-30.9064,-53.6252
10:35:21.312,-33.8439,-59.1877
10:35:21.320,-36.5314,-63.1252
10:35:21.330,-39.3439,-67.8128
10:35:21.343,-41.0627,-73.0003
10:35:21.351,-43.8127,-76.9378
10:35:21.361,-46.2814,-81.1878
10:35:21.370,-47.9064,-85.3753
10:35:21.380,-49.6564,-89.0628
10:35:21.397,-51.3127,-92.0004
10:35:21.401,-52.6252,-94.4379
10:35:21.410,-54.344,-98.0004
10:35:21.450,-55.4377,-99.6254
10:35:21.451,-56.5627,-101.6879
10:35:21.453,-56.5315,-103.1879
10:35:21.455,-56.219,-102.8129
10:35:21.463,-55.0002,-100.0004
10:35:21.503,-50.1877,-94.0004
10:35:21.505,-43.6252,-82.8128
10:35:21.506,-33.9376,-68.0003
10:35:21.513,-22.7501,-48.6252
10:35:21.513,-11.1563,-27.5001
10:35:21.521,0.6875,-6.875
10:35:21.551,10.4063,11.4375
10:35:21.554,19.3126,25.6251
10:35:21.556,26.2188,39.3752
10:35:21.561,33.0626,49.1252
10:35:21.597,38.3751,57.7502
10:35:21.600,42.0627,65.6253
10:35:21.601,46.3752,71.5003
10:35:21.627,48.4689,76.3753
10:35:21.629,50.3752,79.1253
10:35:21.632,51.5627,82.3128
10:35:21.636,52.3752,82.9378
10:35:21.640,52.4377,84.5628
10:35:21.650,53.3127,84.2503
10:35:21.661,51.6877,83.8753
10:35:21.670,51.6252,82.4378
10:35:21.680,48.9377,80.0628
10:35:21.691,47.0939,76.1253
10:35:21.701,43.8439,71.1253
10:35:21.711,40.0939,66.2503
10:35:21.720,37.0626,60.0002
10:35:21.730,33.9376,55.1252
10:35:21.740,30.8439,49.8127
10:35:21.752,27.6564,44.3127
10:35:21.760,25.2501,40.4377
10:35:21.771,22.5001,35.7501
10:35:21.784,21.0626,32.7501
10:35:21.792,19.3126,29.0626
10:35:21.801,17.5313,26.2501
10:35:21.810,15.0626,22.5001
10:35:21.821,13,19.3126
10:35:21.831,11.0625,15.2501
10:35:21.840,8.4375,12.1875
10:35:21.851,6.5,8.1875
10:35:21.860,3.9688,4.0625
10:35:21.871,2.0625,0.25
10:35:21.880,-1.125,-3.6875
10:35:21.890,-3.25,-8.5625
10:35:21.900,-6.0938,-13.0625
10:35:21.911,-8.4688,-17.1251
10:35:21.920,-11.6563,-22.2501
10:35:21.930,-14.1563,-25.7501
10:35:21.940,-16.6563,-31.0001
10:35:21.950,-19.2813,-36.1876
10:35:21.960,-21.8751,-39.9377
10:35:21.970,-24.6251,-45.5002
10:35:21.981,-27.6876,-49.2502
10:35:21.991,-30.3751,-53.6877
10:35:22.001,-32.4689,-58.8127
10:35:22.010,-34.6876,-64.1877
10:35:22.020,-37.4376,-68.1253
10:35:22.030,-40.0939,-73.2503
10:35:22.041,-42.0627,-77.1253
10:35:22.050,-44.3439,-80.3128
10:35:22.060,-46.0314,-84.3128
10:35:22.070,-48.2502,-88.0003
10:35:22.080,-49.5002,-91.1254
10:35:22.090,-50.8127,-94.0004
10:35:22.100,-52.2502,-95.8129
10:35:22.110,-53.5315,-97.9379
10:35:22.121,-54.219,-99.6254
10:35:22.129,-54.7502,-101.6254
10:35:22.146,-55.1877,-101.5629
10:35:22.149,-53.469,-99.8129
10:35:22.161,-49.1252,-94.1879
10:35:22.171,-43.0314,-84.0003
10:35:22.180,-34.4376,-68.5003
10:35:22.191,-23.3751,-50.0627
10:35:22.200,-10.9063,-29.5001
10:35:22.236,0.0313,-9.375
10:35:22.238,9.4375,8.9375
10:35:22.240,18.5313,23.3751
10:35:22.242,25.7188,36.0626
10:35:22.279,31.7189,46.1877
10:35:22.280,36.9064,55.3752
10:35:22.284,40.7189,62.7502
10:35:22.286,44.5314,68.8753
10:35:22.292,47.3752,74.0628
10:35:22.328,49.3127,76.5628
10:35:22.329,50.4377,78.2503
10:35:22.330,51.1252,80.7503
10:35:22.358,51.2189,81.0628
10:35:22.359,51.4377,81.1253
10:35:22.363,50.5314,80.2503
10:35:22.368,49.0939,78.3753
10:35:22.370,47.5939,75.8128
10:35:22.394,44.5002,70.6878
10:35:22.397,41.5002,67.0003
10:35:22.402,37.8439,60.4377
10:35:22.413,33.9376,55.5627
10:35:22.429,31.4064,49.5627
10:35:22.435,28.1564,44.3127
10:35:22.444,25.1876,40.5002
10:35:22.449,23.4063,36.2501
10:35:22.467,22.1563,33.6876
10:35:22.473,19.6876,29.8126
10:35:22.480,18.0313,26.9376
10:35:22.496,15.8751,23.1251
10:35:22.504,14.1876,20.6876
10:35:22.510,11.5313,16.1876
10:35:22.523,9.6563,14.0626
10:35:22.530,7.9063,10.1875
10:35:22.545,5.25,6.375
10:35:22.553,3.2188,2.4375
10:35:22.560,0.5625,-1.375
10:35:22.569,-1.5625,-5.375
10:35:22.581,-4.0625,-9.6875
10:35:22.591,-6.875,-13.1876
10:35:22.600,-9.125,-18.4376
10:35:22.610,-12.5313,-22.5001
10:35:22.620,-14.8126,-27.6251
10:35:22.629,-17.5313,-31.3751
10:35:22.641,-20.2501,-36.0001
10:35:22.650,-22.8438,-41.5002
10:35:22.659,-24.9688,-45.0627
10:35:22.671,-28.0626,-50.0627
10:35:22.681,-30.3751,-54.5002
10:35:22.690,-33.4689,-59.8127
10:35:22.701,-36.0939,-64.3127
10:35:22.710,-38.4064,-68.3128
10:35:22.719,-40.6252,-72.5628
10:35:22.730,-42.0002,-77.2503
10:35:22.741,-44.4064,-81.0003
10:35:22.750,-46.2814,-84.3128
10:35:22.761,-48.1564,-87.5003
10:35:22.770,-49.1252,-90.7504
10:35:22.779,-50.5002,-93.5004
10:35:22.791,-52.4064,-96.3129
10:35:22.801,-53.6877,-98.1254
10:35:22.809,-54.4065,-99.5629
10:35:22.820,-55.0315,-100.8129
10:35:22.829,-54.469,-100.7504
10:35:22.839,-52.5314,-97.9379
10:35:22.850,-47.8439,-91.6254
10:35:22.859,-40.7814,-79.6253
10:35:22.869,-31.4689,-63.1877
10:35:22.902,-20.2188,-44.3127
10:35:22.905,-8.0313,-23.5001
10:35:22.906,2.5,-4.375
10:35:22.918,12.2188,12.6875
10:35:22.930,20.4688,28.5626
10:35:22.932,27.4376,40.3752
10:35:22.959,33.9064,50.0002
10:35:22.962,39.1564,59.5627
10:35:22.964,42.9689,66.6253
10:35:22.970,46.4689,72.1878
10:35:22.997,48.3752,76.1253
10:35:23.000,50.5314,78.6878
10:35:23.001,51.1564,80.8753
10:35:23.011,52.0627,82.6878
10:35:23.044,51.6877,83.1878
10:35:23.045,52.5002,83.4378
10:35:23.048,51.1877,82.1253
10:35:23.050,50.7189,80.6878
10:35:23.081,48.1877,77.4378
10:35:23.083,44.8752,74.6878
10:35:23.085,42.6877,68.1878
10:35:23.092,38.7189,62.9377
10:35:23.101,35.4689,57.3127
10:35:23.110,32.0626,51.2502
10:35:23.119,28.5626,46.3752
10:35:23.130,26.0938,41.3127
10:35:23.140,23.7813,37.9376
10:35:23.149,21.1876,33.4376
10:35:23.161,19.1563,30.8126
10:35:23.169,17.1876,26.6251
10:35:23.179,15.1876,23.6876
10:35:23.189,12.8438,19.9376
10:35:23.200,11.0938,16.6251
10:35:23.209,9.3438,12.9375
10:35:23.220,6.5938,9.6875
10:35:23.230,5.375,6.125
10:35:23.239,2.2188,2.3125
10:35:23.250,0.4063,-1.9375
10:35:23.259,-2.6875,-6.5625
10:35:23.269,-4.5625,-10.125
10:35:23.279,-8,-15.0626
10:35:23.290,-10.0625,-19.3751
10:35:23.299,-13.4376,-24.6876
10:35:23.309,-15.5938,-28.8751
10:35:23.319,-18.8751,-33.6251
10:35:23.329,-21.6251,-38.3751
10:35:23.341,-24.1563,-43.1877
10:35:23.349,-27.1564,-48.0002
10:35:23.359,-29.8126,-52.3127
10:35:23.369,-32.3439,-56.8752
10:35:23.379,-34.5314,-61.6252
10:35:23.394,-37.3126,-66.5003
10:35:23.399,-39.3752,-71.0628
10:35:23.409,-41.6877,-75.9378
10:35:23.419,-44.2502,-79.0628
10:35:23.431,-46.0939,-83.5003
10:35:23.440,-47.7814,-87.0003
10:35:23.450,-49.4064,-89.6253
10:35:23.461,-50.3439,-93.2504
10:35:23.469,-52.3752,-95.6879
10:35:23.479,-53.3127,-97.6879
10:35:23.489,-54.8127,-99.6879
10:35:23.499,-55.1877,-101.2504
10:35:23.509,-56.0315,-102.1879
10:35:23.521,-55.594,-102.4379
10:35:23.529,-53.594,-99.8754
10:35:23.540,-49.7502,-93.6254
10:35:23.549,-42.4064,-82.8753
10:35:23.559,-33.4689,-67.9378
10:35:23.569,-22.4688,-48.6877
10:35:23.580,-11.4688,-28.1251
10:35:23.590,-0.3125,-7.875
10:35:23.600,10.375,9.625
10:35:23.610,18.8751,25.8751
10:35:23.619,25.9688,38.1876
10:35:23.655,32.4689,48.6877
10:35:23.658,37.8439,57.5002
10:35:23.659,41.6564,64.3752
10:35:23.661,44.7189,71.3128
10:35:23.698,47.8439,75.7503
10:35:23.698,49.3127,78.8128
10:35:23.700,51.0939,81.2503
10:35:23.705,51.2814,82.8753
10:35:23.710,53.0002,83.5628
10:35:23.751,51.6564,83.2503
10:35:23.752,51.1877,83.5003
10:35:23.754,49.9377,81.2503
10:35:23.756,48.1877,77.7503
10:35:23.759,45.4064,74.4378
10:35:23.795,42.9689,69.8753
10:35:23.820,39.3751,63.8752
10:35:23.823,35.7501,59.0002
10:35:23.837,32.7814,52.7502
10:35:23.838,29.8751,48.2502
10:35:23.838,26.3126,43.5002
10:35:23.852,24.6876,39.4377
10:35:23.854,21.8751,34.4376
10:35:23.869,19.1251,32.1876
10:35:23.871,17.7188,27.3126
10:35:23.885,15.2501,25.2501
10:35:23.900,13.5626,20.8751
10:35:23.903,12.0625,18.2501
10:35:23.907,9.6875,13.5001
10:35:23.914,7.9688,10.375
10:35:23.925,5.3438,7
10:35:23.934,2.875,2.1875
10:35:23.944,0.3438,-1.5625
10:35:23.954,-2.6563,-6.6875
10:35:23.964,-5.0938,-10
10:35:23.975,-7.4375,-14.6251
10:35:23.984,-10.2188,-19.8751
10:35:23.995,-13.5938,-24.7501
10:35:24.004,-16.2501,-30.1251
10:35:24.015,-18.9063,-33.5001
10:35:24.024,-21.3751,-38.8126
10:35:24.035,-24.6876,-44.5627
10:35:24.044,-27.3126,-48.0627
10:35:24.054,-28.8126,-53.2502
10:35:24.064,-32.0939,-58.5627
10:35:24.074,-34.5314,-62.5002
10:35:24.084,-37.2189,-68.1878
10:35:24.094,-39.1252,-72.1878
10:35:24.104,-41.7189,-77.0003
10:35:24.115,-43.9064,-80.0003
10:35:24.125,-46.0939,-84.5003
10:35:24.134,-47.8439,-87.2503
10:35:24.144,-49.2189,-90.5004
10:35:24.155,-50.4064,-93.0004
10:35:24.182,-51.5939,-95.1879
10:35:24.185,-52.8752,-97.2504
10:35:24.187,-53.4065,-99.1879
10:35:24.200,-54.9065,-100.4379
10:35:24.205,-55.4065,-103.0629
10:35:24.214,-55.6252,-102.6879
10:35:24.224,-54.6877,-102.0004
10:35:24.234,-51.2189,-96.5004
10:35:24.244,-45.3127,-86.6253
10:35:24.254,-36.1876,-73.2503
10:35:24.264,-25.6876,-55.9377
10:35:24.274,-15.2813,-35.0626
10:35:24.284,-3.4063,-15.6251
10:35:24.295,7.1875,4.375
10:35:24.304,16.6251,19.7501
10:35:24.314,24.6251,33.9376
10:35:24.324,30.2501,45.3752
10:35:24.334,36.3751,53.6252
10:35:24.344,40.5627,62.5002
10:35:24.355,44.2502,69.5003
10:35:24.364,47.7189,73.5003
10:35:24.374,49.3127,77.5628
10:35:24.385,50.7814,80.1253
10:35:24.394,52.6877,82.3753
10:35:24.404,52.7815,83.1878
10:35:24.444,53.594,84.3128
10:35:24.446,52.2189,83.3128
10:35:24.447,51.5314,82.5003
10:35:24.450,49.9377,79.8753
10:35:24.455,47.2814,76.6253
10:35:24.486,44.9377,71.9378
10:35:24.488,41.1877,66.0628
10:35:24.490,37.6876,61.0002
10:35:24.499,34.5626,54.6877
10:35:24.511,31.3751,49.7502
10:35:24.514,28.5939,45.2502
10:35:24.547,25.6251,40.1252
10:35:24.549,23.6251,36.5001
10:35:24.551,21.5626,32.9376
10:35:24.558,19.4688,29.8126
10:35:24.564,16.9376,25.5626
10:35:24.598,15.3126,22.6876
10:35:24.600,12.6563,19.1876
10:35:24.602,10.7188,15.6876
10:35:24.606,8.375,11.125
10:35:24.621,6.1563,8.1875
10:35:24.625,4.0313,3.875
10:35:24.634,1.6563,-0.5
10:35:24.644,-1.4063,-4.375
10:35:24.654,-3.9688,-9.25
10:35:24.664,-6.4375,-13.4376
10:35:24.674,-9.1563,-18.2501
10:35:24.684,-11.8438,-22.8126
10:35:24.694,-14.3438,-27.1876
10:35:24.705,-16.8751,-31.6876
10:35:24.715,-20.2501,-36.0001
10:35:24.724,-22.8126,-41.2502
10:35:24.734,-25.2501,-46.4377
10:35:24.744,-27.8439,-51.1252
10:35:24.754,-30.7189,-56.1877
10:35:24.764,-32.7189,-60.6877
10:35:24.774,-35.5001,-65.5002
10:35:24.784,-37.8126,-70.0003
10:35:24.794,-39.8439,-73.8128
10:35:24.804,-41.6564,-77.3128
10:35:24.814,-42.8127,-80.5628
10:35:24.824,-45.0939,-83.6253
10:35:24.834,-45.9377,-85.7503
10:35:24.844,-47.4064,-88.9378
10:35:24.854,-48.5627,-90.2503
10:35:24.864,-50.1564,-93.2504
10:35:24.874,-50.3127,-94.8129
10:35:24.884,-51.7814,-96.6254
10:35:24.894,-52.4689,-97.3129
10:35:24.903,-51.7189,-97.7504
10:35:24.914,-50.5002,-95.0004
10:35:24.924,-46.6564,-89.6878
10:35:24.933,-39.7814,-78.7503
10:35:24.944,-31.2814,-64.5627
10:35:24.954,-21.0938,-46.8127
10:35:24.964,-9.5625,-25.8126
10:35:24.972,1.1563,-5.8125
10:35:24.984,11.4063,11.25
10:35:24.993,19.8438,26.9376
10:35:25.005,27.4064,39.0001
10:35:25.014,33.0939,50.0002
10:35:25.023,37.6251,57.8127
10:35:25.034,42.2502,65.3128
10:35:25.043,45.1877,71.7503
10:35:25.055,48.1877,75.7503
10:35:25.064,49.7189,79.4378
10:35:25.075,51.3752,81.3128
10:35:25.085,51.4689,83.4378
10:35:25.095,52.5939,84.1253
10:35:25.104,52.0939,83.6878
10:35:25.122,51.5627,83.8753
10:35:25.128,50.3752,81.5628
10:35:25.135,48.4689,79.5628
10:35:25.142,45.9377,74.7503
10:35:25.159,42.9377,70.5003
10:35:25.166,39.5939,65.5002
10:35:25.196,35.4064,58.5627
10:35:25.265,32.5001,53.4377
10:35:25.267,29.7814,48.2502
10:35:25.295,26.5314,44.3752
10:35:25.297,24.4376,39.6252
10:35:25.298,22.2188,35.6251
10:35:25.298,20.2501,32.4376
10:35:25.308,18.0313,28.5001
10:35:25.336,15.2501,25.1251
10:35:25.337,13.9688,22.2501
10:35:25.339,11.2813,17.9376
10:35:25.344,9.1563,15.0001
10:35:25.354,7.3438,10.5625
10:35:25.362,4.625,6.875
10:35:25.375,2.375,3.0625
10:35:25.384,-0.7188,-1.875
10:35:25.392,-2.3438,-5.75
10:35:25.404,-5.8438,-11
10:35:25.413,-8.4375,-15.6251
10:35:25.424,-11.3438,-20.5001
10:35:25.435,-14.2188,-25.5626
10:35:25.464,-17.0001,-30.5626
10:35:25.465,-19.8126,-35.1876
10:35:25.467,-24.0626,-42.9377
10:35:25.476,-26.3751,-47.7502
10:35:25.483,-28.7814,-52.8127
10:35:25.495,-32.1564,-57.2502
10:35:25.503,-33.7189,-61.9377
10:35:25.513,-37.0626,-66.6878
10:35:25.523,-39.0002,-71.1253
10:35:25.533,-41.0314,-74.1878
10:35:25.544,-43.3439,-78.0628
10:35:25.555,-44.7814,-82.3128
10:35:25.563,-46.5002,-84.7503
10:35:25.572,-47.9689,-87.6253
10:35:25.584,-49.4689,-89.3753
10:35:25.593,-50.9689,-92.1254
10:35:25.604,-51.6564,-94.9379
10:35:25.613,-53.7502,-96.7504
10:35:25.623,-53.969,-98.7504
10:35:25.634,-54.8752,-99.1879
10:35:25.643,-55.1252,-100.0004
10:35:25.654,-54.2502,-99.4379
10:35:25.663,-51.6564,-94.5629
10:35:25.672,-46.0002,-87.0628
10:35:25.682,-37.9689,-73.0628
10:35:25.694,-27.9376,-57.1252
10:35:25.703,-17.5001,-38.0001
10:35:25.713,-5.7188,-17.1876
10:35:25.723,4.8438,0.6875
10:35:25.733,14.4063,17.6251
10:35:25.743,22.0626,33.3751
10:35:25.754,29.1876,44.1252
10:35:25.764,33.4064,54.8127
10:35:25.774,38.9064,61.4377
10:35:25.783,42.8752,68.8128
10:35:25.793,45.6877,74.6253
10:35:25.804,48.5627,78.2503
10:35:25.813,49.7189,81.5628
10:35:25.823,50.8752,83.3128
10:35:25.833,52.0002,84.8128
10:35:25.843,51.3127,85.1878
10:35:25.853,51.9689,84.8753
10:35:25.864,50.6877,85.6253
10:35:25.878,49.5627,81.8128
10:35:25.884,47.1564,79.8128
10:35:25.907,45.0314,74.4378
10:35:25.910,41.0627,69.8128
10:35:25.918,38.1564,63.5627
10:35:25.923,33.9064,58.3752
10:35:25.950,30.8439,52.4377
10:35:25.953,28.0939,47.1877
10:35:25.956,25.4376,43.8752
10:35:25.998,23.0313,38.3751
10:35:26.001,20.5626,35.8751
10:35:26.001,18.5313,31.3751
10:35:26.006,16.7813,28.5626
10:35:26.010,14.5001,24.8126
10:35:26.017,12.6563,21.6251
10:35:26.045,10.4375,17.3751
10:35:26.050,7.9063,14.1251
10:35:26.051,5.9063,9.1875
10:35:26.053,3.4375,6.0625
10:35:26.064,1.1875,1.125
10:35:26.073,-1.1563,-2.9375
10:35:26.083,-4.0938,-7.75
10:35:26.093,-6.5625,-12.625
10:35:26.104,-9.5,-16.9376
10:35:26.114,-12.5,-21.6876
10:35:26.126,-15.5313,-25.8126
10:35:26.133,-18.2501,-31.2501
10:35:26.143,-20.5626,-36.8751
10:35:26.153,-23.0626,-41.3127
10:35:26.162,-25.9376,-46.3752
10:35:26.173,-28.6876,-50.8127
10:35:26.184,-31.5001,-55.6877
10:35:26.193,-33.6564,-61.3127
10:35:26.203,-36.0314,-65.9378
10:35:26.212,-37.7501,-69.5003
10:35:26.223,-40.4064,-73.7503
10:35:26.233,-41.7502,-75.8753
10:35:26.243,-43.7814,-80.1253
10:35:26.253,-45.1252,-83.1253
10:35:26.263,-46.6564,-84.3753
10:35:26.272,-48.1877,-87.4378
10:35:26.283,-48.6877,-89.7503
10:35:26.293,-50.1564,-91.4379
10:35:26.303,-51.2502,-94.1879
10:35:26.314,-51.8439,-96.1879
10:35:26.323,-52.4689,-97.5004
10:35:26.333,-52.0939,-96.8754
10:35:26.343,-50.9064,-96.0004
10:35:26.353,-47.7814,-89.6878
10:35:26.363,-42.2189,-80.1253
10:35:26.373,-33.2189,-67.3128
10:35:26.384,-23.7188,-49.6252
10:35:26.394,-13.3751,-31.3126
10:35:26.403,-2.2188,-11.5625
10:35:26.413,7.7813,7.3125
10:35:26.422,16.4376,22.2501
10:35:26.433,24.5938,37.6251
10:35:26.443,30.2814,48.6252
10:35:26.452,35.5626,56.5627
10:35:26.463,41.0627,64.6877
10:35:26.472,43.5002,71.2503
10:35:26.491,46.5627,75.6878
10:35:26.498,49.1877,80.3128
10:35:26.510,50.2502,84.3128
10:35:26.514,51.7189,84.8753
10:35:26.529,52.6877,86.5003
10:35:26.535,52.2502,87.0003
10:35:26.543,51.9377,86.1253
10:35:26.559,51.4377,85.1253
10:35:26.575,49.6564,83.6878
10:35:26.654,47.2502,79.9378
10:35:26.655,44.3439,75.2503
10:35:26.669,41.2814,70.2503
10:35:26.677,37.9689,64.0627
10:35:26.677,35.3126,58.8752
10:35:26.677,32.0001,54.0627
10:35:26.677,28.7501,49.6877
10:35:26.689,25.9376,45.8127
10:35:26.692,23.7188,40.7502
10:35:26.732,21.7501,37.1251
10:35:26.736,20.1563,33.8126
10:35:26.737,18.2188,30.4376
10:35:26.751,16.1251,27.8126
10:35:26.753,13.8751,24.0001
10:35:26.753,12.0625,20.0626
10:35:26.760,9.3125,16.3126
10:35:26.768,7.4063,12.125
10:35:26.778,5.0938,8.0625
10:35:26.788,2.375,4.5
10:35:26.799,0.3125,0.5
10:35:26.808,-2.6563,-5.375
10:35:26.818,-5.7188,-9.125
10:35:26.828,-7.9063,-14.9376
10:35:26.838,-20.7501,-38.3751
10:35:26.848,-24.2501,-42.9377
10:35:26.858,-26.2188,-48.5002
10:35:26.868,-29.0314,-53.0627
10:35:26.878,-31.7814,-57.3752
10:35:26.888,-34.0001,-62.4377
10:35:26.905,-35.9376,-66.9378
10:35:26.908,-37.6564,-70.3128
10:35:26.918,-39.3439,-72.9378
10:35:26.929,-40.8127,-75.6253
10:35:26.937,-42.8439,-78.6878
10:35:26.947,-43.7814,-82.0003
10:35:26.959,-45.5939,-84.2503
10:35:26.968,-46.3439,-85.8128
10:35:26.977,-48.3439,-89.3753
10:35:26.987,-48.9689,-91.3129
10:35:26.997,-50.0627,-91.5004
10:35:27.008,-51.0314,-94.7504
10:35:27.018,-51.1877,-95.0629
10:35:27.028,-50.5939,-93.1254
10:35:27.038,-47.5939,-89.6878
10:35:27.047,-42.1877,-80.5003
10:35:27.057,-34.1876,-68.6878
10:35:27.068,-24.7188,-51.5627
10:35:27.077,-14.7188,-32.4376
10:35:27.088,-3.5313,-14.3126
10:35:27.099,7.2188,4.4375
10:35:27.107,15.3438,20.5626
10:35:27.118,23.5938,34.6876
10:35:27.127,29.1876,46.4377
10:35:27.137,35.2814,55.5002
10:35:27.148,38.5001,63.3752
10:35:27.158,42.7189,69.3128
10:35:27.168,45.5314,74.6253
10:35:27.178,48.7502,78.8128
10:35:27.188,50.0627,82.4378
10:35:27.198,51.3439,84.5003
10:35:27.208,51.6252,86.1253
10:35:27.218,52.3127,87.0003
10:35:27.228,51.7502,86.4378
10:35:27.237,50.8127,84.8753
10:35:27.247,49.0627,84.3128
10:35:27.258,46.9377,80.2503
10:35:27.281,43.7814,75.8128
10:35:27.282,40.8752,70.0628
10:35:27.288,37.6876,64.3752
10:35:27.326,34.3126,58.8127
10:35:27.328,31.2501,55.1877
10:35:27.329,29.4689,50.1877
10:35:27.333,26.3439,46.0002
10:35:27.338,24.5938,43.5627
10:35:27.370,22.7813,39.5627
10:35:27.371,20.1876,36.9376
10:35:27.374,18.9376,33.0001
10:35:27.378,17.0938,30.6251
10:35:27.405,15.7501,27.5626
10:35:27.408,13.4063,23.4376
10:35:27.411,11.1875,19.7501
10:35:27.441,8.875,16.3126
10:35:27.443,6.3438,13
10:35:27.445,3.5625,9.125
10:35:27.447,1.9688,3.75
10:35:27.461,-1.2188,-0.3125
10:35:27.468,-3.3438,-5.1875
10:35:27.477,-6.1563,-9.5
10:35:27.488,-8.7813,-13.5626
10:35:27.498,-11.0938,-18.5626
10:35:27.508,-14.6563,-23.1876
10:35:27.518,-17.0626,-27.3751
10:35:27.528,-19.7813,-32.8751
10:35:27.538,-22.6251,-38.2501
10:35:27.548,-24.3438,-41.6877
10:35:27.558,-27.0939,-47.0002
10:35:27.568,-29.7814,-51.4377
10:35:27.578,-31.0626,-55.8752
10:35:27.587,-34.3751,-60.0627
10:35:27.598,-35.6564,-63.9377
10:35:27.608,-37.6564,-67.6878
10:35:27.618,-39.7814,-69.4378
10:35:27.628,-41.0314,-74.1878
10:35:27.638,-42.1877,-76.4378
10:35:27.649,-43.9064,-79.2503
10:35:27.658,-45.4064,-82.0628
10:35:27.668,-46.8752,-83.9378
10:35:27.678,-47.8127,-85.8128
10:35:27.688,-48.5314,-86.9378
10:35:27.698,-48.0939,-87.7503
10:35:27.708,-46.6877,-84.2503
10:35:27.718,-43.0002,-79.5628
10:35:27.728,-36.2501,-68.6878
10:35:27.737,-28.2814,-54.9377
10:35:27.748,-18.1563,-37.5626
10:35:27.758,-7.0313,-18.0001
10:35:27.767,2.8438,1.625
10:35:27.778,12.125,17.0001
10:35:27.788,21.1563,33.4376
10:35:27.799,27.7501,46.6252
10:35:27.808,33.7814,55.5627
10:35:27.817,39.5002,64.9377
10:35:27.828,42.9689,72.0003
10:35:27.845,46.2502,77.8128
10:35:27.859,49.5627,82.7503
10:35:27.862,51.1564,86.1878
10:35:27.870,53.0315,89.6253
10:35:27.877,53.844,91.3754
10:35:27.893,54.344,93.5004
10:35:27.903,54.1252,93.3754
10:35:27.914,54.1877,92.9379
10:35:27.923,52.7815,93.1254
10:35:27.944,51.8127,90.2504
10:35:27.946,49.0002,87.1878
10:35:27.955,46.3752,81.6253
10:35:27.964,43.4377,77.0003
10:35:27.979,40.0939,70.8753
10:35:28.013,36.6564,66.3753
10:35:28.020,34.7189,61.3127
10:35:28.025,31.3439,57.0627
10:35:28.032,29.2814,53.5002
10:35:28.034,27.2189,49.0627
10:35:28.035,25.0001,45.9377
10:35:28.071,22.8751,42.3127
10:35:28.073,20.2188,39.1251
10:35:28.075,17.8751,34.6251
10:35:28.081,16.2501,31.1876
10:35:28.084,14.1876,27.6251
10:35:28.123,12,24.3126
10:35:28.123,9.5313,19.5626
10:35:28.125,7.0938,15.8126
10:35:28.130,4.5,11.3125
10:35:28.133,1.75,6.5625
10:35:28.170,-0.4375,2.0625
10:35:28.172,-3.625,-1.75
10:35:28.174,-5.9688,-6.125
10:35:28.176,-8.5313,-11.125
10:35:28.182,-11.6875,-16.5001
10:35:28.193,-14.3126,-21.0001
10:35:28.201,-16.6876,-25.9376
10:35:28.211,-19.7501,-30.3751
10:35:28.223,-22.3751,-35.2501
10:35:28.231,-25.6251,-40.5627
10:35:28.243,-27.7814,-45.0627
10:35:28.253,-30.1876,-50.3752
10:35:28.261,-32.6564,-55.1252
10:35:28.272,-35.0001,-59.3752
10:35:28.283,-36.9064,-63.6877
10:35:28.292,-38.8751,-67.4378
10:35:28.303,-40.4689,-70.7503
10:35:28.313,-42.0002,-73.2503
10:35:28.322,-43.7502,-77.2503
10:35:28.333,-45.1564,-78.8753
10:35:28.341,-46.1564,-81.0003
10:35:28.352,-47.1877,-83.5628
10:35:28.363,-47.1564,-85.6253
10:35:28.373,-48.2814,-85.0628
10:35:28.382,-47.4689,-84.1253
10:35:28.393,-43.5939,-80.2503
10:35:28.401,-38.5001,-70.0628
10:35:28.411,-30.4064,-57.7502
10:35:28.423,-20.6563,-41.6252
10:35:28.431,-9.9688,-21.5001
10:35:28.442,0.4063,-2.1875
10:35:28.452,10.25,14.2501
10:35:28.461,19.0938,30.8751
10:35:28.472,26.0313,43.3752
10:35:28.482,32.6876,53.6252
10:35:28.491,37.6251,63.1252
10:35:28.501,41.7814,69.8753
10:35:28.512,45.8439,76.6878
10:35:28.523,48.0627,82.7503
10:35:28.532,50.0627,86.3753
10:35:28.542,51.9689,88.6878
10:35:28.551,51.8439,90.9379
10:35:28.562,51.7502,91.1879
10:35:28.571,51.6252,92.0629
10:35:28.590,49.5314,92.6254
10:35:28.593,47.3439,90.3128
10:35:28.601,44.7189,88.6253
10:35:28.611,41.5002,85.1253
10:35:28.621,38.9376,80.7503
10:35:28.632,34.7189,76.4378
10:35:28.642,31.5001,70.4378
10:35:28.651,27.2189,66.1253
10:35:28.662,23.6563,61.5002
10:35:28.672,20.6563,56.1877
10:35:28.682,17.1876,53.0002
10:35:28.691,13.8438,48.6877
10:35:28.701,10.875,45.3752
10:35:28.712,8.125,42.6877
10:35:28.721,4.8125,39.5002
10:35:28.732,2,37.2501
10:35:28.741,-0.5625,33.1251
10:35:28.758,-3.9375,30.5626
10:35:28.763,-5.7188,28.0001
10:35:28.790,-9.3438,24.8126
10:35:28.793,-10.9063,22.1876
10:35:28.796,-13.9063,19.3751
10:35:28.803,-15.6876,17.1251
10:35:28.835,-17.5001,13.0625
10:35:28.839,-19.3751,10.6875
10:35:28.840,-20.0001,8.8125
10:35:28.874,-20.9063,5.5625
10:35:28.875,-21.3126,3.5625
10:35:28.877,-22.8751,0.1875
10:35:28.885,-24.8126,-1.1875
10:35:28.885,-25.4688,-4.75
10:35:28.898,-26.7814,-7.9375
10:35:28.903,-29.1876,-11.875
10:35:28.928,-30.8126,-13.5001
10:35:28.931,-33.0626,-18.1876
10:35:28.933,-34.7814,-21.3751
10:35:28.942,-36.4376,-23.6876
10:35:28.952,-38.1251,-28.3126
10:35:28.967,-39.3439,-31.0001
10:35:28.973,-41.3127,-34.5626
10:35:28.982,-43.1564,-37.0001
10:35:28.993,-44.8439,-39.7502
10:35:29.001,-46.1564,-43.5627
10:35:29.012,-47.0002,-47.0627
10:35:29.022,-49.1252,-49.3752
10:35:29.032,-50.0002,-51.1877
10:35:29.041,-51.2502,-54.7502
10:35:29.051,-51.6877,-56.4377
10:35:29.062,-51.5314,-57.0002
10:35:29.072,-49.4377,-53.5002
10:35:29.082,-45.6252,-48.1252
10:35:29.092,-38.5939,-39.3127
10:35:29.102,-31.1564,-25.8751
10:35:29.111,-22.1876,-12.0625
10:35:29.123,-12.9063,2.3125
10:35:29.132,-3.75,16.1251
10:35:29.153,3.8438,28.1251
10:35:29.155,11.6563,38.3751
10:35:29.167,17.7188,49.0002
10:35:29.171,22.1563,55.9377
10:35:29.187,26.8439,62.7502
10:35:29.193,29.4376,69.0003
10:35:29.203,32.3126,72.5003
10:35:29.211,34.3439,76.2503
10:35:29.221,36.0001,80.6253
10:35:29.232,37.9689,83.0628
10:35:29.242,39.5314,84.9378
10:35:29.261,40.0002,86.7503
10:35:29.264,40.5314,86.4378
10:35:29.304,40.5939,87.3753
10:35:29.305,39.6252,87.1878
10:35:29.321,38.2501,84.3753
10:35:29.324,35.7501,81.5628
10:35:29.325,33.5939,78.0003
10:35:29.327,30.6876,72.8753
10:35:29.331,27.5001,69.1878
10:35:29.344,25.4688,65.2502
10:35:29.353,23.4376,60.8752
10:35:29.362,21.6251,57.7502
10:35:29.372,20.3438,55.0002
10:35:29.382,18.5938,52.0627
10:35:29.391,17.4376,49.6877
10:35:29.401,15.7501,46.5002
10:35:29.412,14.3751,44.1252
10:35:29.421,12.0938,42.5002
10:35:29.433,10.875,38.6251
10:35:29.441,8.8438,35.3751
10:35:29.451,7.0938,32.3126
10:35:29.462,6.3438,29.4376
10:35:29.472,4.0625,26.8126
10:35:29.482,1.5313,22.9376
10:35:29.513,0.1875,19.8751
10:35:29.515,-1.5,15.3126
10:35:29.518,-3.125,12.75
10:35:29.523,-5.3125,8.75
10:35:29.551,-7.3125,5.6875
10:35:29.553,-8.9688,2.3125
10:35:29.555,-11.5,-1.1875
10:35:29.562,-12.5938,-4.5
10:35:29.575,-14.9063,-8.375
10:35:29.605,-16.6563,-11.5
10:35:29.607,-18.4063,-16.3126
10:35:29.609,-20.9688,-19.8126
10:35:29.612,-22.8126,-22.8126
10:35:29.643,-24.5001,-27.5001
10:35:29.643,-26.2501,-31.2501
10:35:29.645,-27.9064,-34.3751
10:35:29.653,-29.7189,-37.6876
10:35:29.667,-31.0001,-41.0627
10:35:29.671,-32.3439,-45.4377
10:35:29.681,-34.4064,-49.0002
10:35:29.692,-36.1876,-52.5627
10:35:29.701,-37.6251,-56.5002
10:35:29.711,-39.5627,-59.8752
10:35:29.722,-40.8439,-62.8127
10:35:29.736,-41.8127,-65.0627
10:35:29.747,-40.3439,-64.4377
10:35:29.756,-38.2189,-62.6877
10:35:29.767,-33.2189,-55.5002
10:35:29.777,-26.6876,-45.0002
10:35:29.787,-18.2501,-30.9376
10:35:29.797,-8.9063,-16.9376
10:35:29.807,-0.5313,-2.0625
10:35:29.817,7.2188,11.375
10:35:29.827,13.4063,23.5001
10:35:29.836,20.2188,33.3751
10:35:29.847,25.5001,43.5002
10:35:29.857,29.2814,50.6877
10:35:29.866,33.6564,57.2502
10:35:29.876,36.3126,62.3127
10:35:29.887,39.1251,68.0628
10:35:29.898,41.9064,73.1253
10:35:29.906,43.0314,77.1253
10:35:29.916,44.1877,78.4378
10:35:29.926,44.3752,80.5003
10:35:29.937,44.5002,80.5628
10:35:29.947,43.0002,81.7503
10:35:29.956,42.3752,79.4378
10:35:29.966,40.6564,77.3753
10:35:29.976,37.7501,73.9378
10:35:29.986,35.2501,70.5003
10:35:29.998,32.2501,66.0003
10:35:30.006,29.8751,61.3127
10:35:30.017,26.7814,56.1877
10:35:30.027,24.2813,53.0627
10:35:30.036,22.1563,49.6252
10:35:30.047,20.1876,46.0002
10:35:30.058,18.5313,43.9377
10:35:30.066,16.4688,39.8127
10:35:30.076,14.5938,37.5626
10:35:30.086,13.125,35.0626
10:35:30.096,10.5,32.0626
10:35:30.108,9.9063,28.9376
10:35:30.117,7.2813,26.0626
10:35:30.127,6.1563,23.0001
10:35:30.136,3.7188,19.9376
10:35:30.147,2.4063,16.3751
10:35:30.156,-0.4375,12.9375
10:35:30.167,-2.25,9.375
10:35:30.176,-4.75,5.5
10:35:30.187,-6.6563,2.0625
10:35:30.197,-8.1563,-2.25
10:35:30.206,-9.9063,-5.375
10:35:30.217,-11.375,-9.375
10:35:30.227,-13.5938,-12.375
10:35:30.237,-15.0001,-17.1251
10:35:30.246,-17.9063,-20.8126
10:35:30.272,-19.5001,-24.3126
10:35:30.273,-21.4376,-28.4376
10:35:30.277,-23.5001,-32.0626
10:35:30.313,-25.6876,-36.5626
10:35:30.316,-27.5314,-40.0002
10:35:30.316,-29.3126,-44.3127
10:35:30.322,-31.2814,-46.7502
10:35:30.329,-33.8126,-51.5627
10:35:30.361,-35.4064,-54.3752
10:35:30.363,-37.4689,-58.7502
10:35:30.365,-39.0001,-61.6252
10:35:30.368,-40.6877,-66.1253
10:35:30.402,-41.8439,-69.0628
10:35:30.404,-43.4064,-71.0003
10:35:30.406,-44.2502,-74.6253
10:35:30.415,-43.8127,-74.5003
10:35:30.418,-41.2502,-71.7503
10:35:30.440,-37.8439,-64.8128
10:35:30.442,-30.6251,-55.4377
10:35:30.447,-22.0313,-41.0002
10:35:30.456,-13.7813,-26.2501
10:35:30.479,-4.2813,-10.3125
10:35:30.480,4,4.25
10:35:30.495,11.3125,16.0001
10:35:30.497,17.8126,27.5001
10:35:30.514,23.4688,37.8751
10:35:30.517,28.1564,46.5627
10:35:30.526,32.0939,54.3752
10:35:30.537,35.4689,60.1877
10:35:30.547,37.9689,65.5003
10:35:30.557,40.3439,69.6253
10:35:30.592,41.3439,72.8128
10:35:30.593,41.9064,75.8753
10:35:30.611,42.2502,76.8753
10:35:30.617,42.0002,78.8753
10:35:30.617,41.9064,78.5628
10:35:30.620,41.2814,78.5003
10:35:30.627,39.0939,77.3128
10:35:30.635,37.4064,74.7503
10:35:30.647,35.0001,72.0003
10:35:30.656,31.8126,67.0003
10:35:30.665,28.6564,62.3127
10:35:30.676,25.3751,57.6877
10:35:30.686,22.3126,52.8127
10:35:30.696,19.8438,48.4377
10:35:30.705,17.5313,45.2502
10:35:30.717,16.0313,41.9377
10:35:30.725,13.8126,38.7501
10:35:30.737,12.1563,36.1251
10:35:30.747,10.8438,33.0001
10:35:30.756,8.75,30.6876
10:35:30.766,6.4688,27.3751
10:35:30.775,4.375,23.8126
10:35:30.785,2.4063,20.1251
10:35:30.796,1.1563,17.6876
10:35:30.805,-0.4688,14.4376
10:35:30.816,-2.4063,10.9375
10:35:30.826,-4.2188,7.3125
10:35:30.836,-5.375,3.625
10:35:30.847,-6.9063,0.5
10:35:30.857,-8.25,-2.9375
10:35:30.865,-8.8438,-6.3125
10:35:30.875,-10.9688,-8.875
10:35:30.885,-12.4063,-12.5625
10:35:30.895,-13.3751,-17.1251
10:35:30.907,-15.6251,-19.9376
10:35:30.916,-18.0001,-24.4376
10:35:30.927,-19.7501,-28.3751
10:35:30.935,-20.7813,-31.8751
10:35:30.946,-22.2813,-36.1876
10:35:30.957,-25.2813,-40.2502
10:35:30.965,-26.5314,-44.3752
10:35:30.975,-29.5314,-47.8752
10:35:30.985,-30.5939,-52.4377
10:35:31.006,-33.2814,-56.3127
10:35:31.008,-34.2501,-60.2502
10:35:31.042,-36.4689,-64.0002
10:35:31.043,-38.2189,-68.3753
10:35:31.048,-40.0627,-71.6253
10:35:31.049,-42.1564,-76.6878
10:35:31.082,-43.0627,-79.5003
10:35:31.083,-44.1564,-81.5628
10:35:31.085,-43.7814,-83.0628
10:35:31.088,-42.0314,-79.8753
10:35:31.132,-37.9689,-74.0003
10:35:31.135,-31.7189,-62.5002
10:35:31.135,-23.2501,-48.8752
10:35:31.165,-13.9688,-33.0001
10:35:31.165,-4.9688,-16.9376
10:35:31.166,3.6563,-2.5
10:35:31.168,11.3125,11.75
10:35:31.174,17.4063,22.4376
10:35:31.175,23.8126,33.4376
10:35:31.185,28.8126,43.6252
10:35:31.195,33.0314,50.6252
10:35:31.206,37.1876,58.1877
10:35:31.220,39.9689,63.5002
10:35:31.225,42.2189,68.1878
10:35:31.235,43.8127,71.9378
10:35:31.245,45.5627,75.0628
10:35:31.256,47.1252,77.6878
10:35:31.265,46.9064,79.6878
10:35:31.275,47.1252,80.0003
10:35:31.285,46.1564,79.6878
10:35:31.295,44.1564,79.1253
10:35:31.305,42.0939,75.4378
10:35:31.315,38.5001,71.7503
10:35:31.325,34.7814,68.4378
10:35:31.336,31.2189,62.6252
10:35:31.345,28.4689,57.8127
10:35:31.357,24.9688,53.9377
10:35:31.365,22.2501,49.5002
10:35:31.375,19.5313,45.8752
10:35:31.386,16.8438,42.2502
10:35:31.395,14.6876,38.6251
10:35:31.406,13.2188,35.0001
10:35:31.415,11.1875,32.8751
10:35:31.425,8.4375,29.5001
10:35:31.435,6.8438,27.1876
10:35:31.445,4.75,22.8751
10:35:31.455,2.5938,20.7501
10:35:31.465,0.6875,16.1876
10:35:31.476,-1.9688,13.7501
10:35:31.485,-4.0625,9.125
10:35:31.500,-6.4688,6.5
10:35:31.510,-9.0625,1.5625
10:35:31.520,-11.0313,-1.5
10:35:31.530,-13.3438,-5.875
10:35:31.540,-15.2188,-9.6875
10:35:31.550,-17.8438,-13.0625
10:35:31.560,-19.2188,-16.4376
10:35:31.571,-20.9376,-20.9376
10:35:31.580,-21.9688,-24.0001
10:35:31.595,-23.2501,-27.5001
10:35:31.600,-25.0313,-31.0626
10:35:31.610,-25.0938,-33.9376
10:35:31.620,-26.3751,-36.9376
10:35:31.630,-25.9688,-40.1252
10:35:31.641,-25.6876,-42.6877
10:35:31.650,-23.2501,-44.8127
10:35:31.660,-19.0313,-45.6877
10:35:31.698,-12.875,-47.9377
10:35:31.699,-11.2188,-48.6252
10:35:31.704,-13.0625,-51.1252
10:35:31.706,-14.9376,-55.7502
10:35:31.712,-17.4063,-59.2502
10:35:31.750,-21.0001,-63.0002
10:35:31.752,-25.0626,-67.6253
10:35:31.754,-27.0314,-70.8128
10:35:31.757,-27.6251,-71.1253
10:35:31.761,-25.7188,-70.0003
10:35:31.839,-21.6876,-64.3752
10:35:31.840,-15.4376,-53.8752
10:35:31.841,-7.125,-41.3752
10:35:31.866,2.2188,-25.3126
10:35:31.866,10.875,-11.0625
10:35:31.866,19.3126,3.875
10:35:31.868,25.5938,17.9376
10:35:31.874,31.4689,28.3126
10:35:31.891,36.7189,38.9376
10:35:31.894,39.7189,47.2502
10:35:31.909,42.8127,53.8127
10:35:31.912,43.5939,59.5627
10:35:31.926,44.7814,63.8752
10:35:31.935,44.8127,67.9378
10:35:31.947,45.0939,70.0003
10:35:31.956,45.5627,72.0003
10:35:31.970,43.9689,73.3128
10:35:31.975,43.5939,74.3128
10:35:31.985,42.2502,73.6878
10:35:31.996,41.1564,72.3128
10:35:32.005,39.0001,69.8128
10:35:32.015,30.0001,58.4377
10:35:32.026,27.5001,52.6877
10:35:32.035,24.9063,48.5002
10:35:32.046,23.5313,44.4377
10:35:32.055,21.3126,41.8752
10:35:32.066,19.7501,38.0001
10:35:32.075,18.2813,35.7501
10:35:32.085,16.2501,31.5626
10:35:32.095,13.4376,28.5001
10:35:32.105,12.125,25.1251
10:35:32.115,11.1563,21.3751
10:35:32.125,9.0938,18.6251
10:35:32.136,7,16.5626
10:35:32.145,5.5313,12.9375
10:35:32.155,4.5313,9.1875
10:35:32.165,2.6875,5.4375
10:35:32.176,1.375,2
10:35:32.185,0.2188,-0.4375
10:35:32.196,-0.25,-4.6875
10:35:32.205,-2.4063,-8.1875
10:35:32.218,-3.9688,-10.8125
10:35:32.226,-5.0313,-13.6876
10:35:32.236,-6.9063,-18.5626
10:35:32.245,-9.7188,-23.1251
10:35:32.255,-12.2188,-25.9376
10:35:32.265,-14.0626,-30.1251
10:35:32.275,-16.2188,-34.4376
10:35:32.285,-18.7813,-38.6251
10:35:32.295,-21.6563,-40.8752
10:35:32.305,-23.5938,-45.8752
10:35:32.315,-26.8439,-50.0002
10:35:32.325,-29.8439,-53.3127
10:35:32.336,-32.9376,-57.5002
10:35:32.350,-34.4689,-61.5627
10:35:32.355,-37.2501,-64.6252
10:35:32.365,-38.8126,-69.2503
10:35:32.398,-41.0939,-70.7503
10:35:32.401,-42.4064,-75.5003
10:35:32.403,-44.0627,-77.3128
10:35:32.406,-44.8127,-80.1253
10:35:32.440,-44.6877,-80.6878
10:35:32.442,-44.8439,-79.0003
10:35:32.444,-41.6564,-74.5628
10:35:32.446,-35.3751,-65.8128
10:35:32.474,-29.0001,-52.5627
10:35:32.476,-20.3438,-38.5626
10:35:32.479,-11.6563,-22.8126
10:35:32.514,-3.8125,-6.625
10:35:32.516,3.6563,5.0625
10:35:32.519,10.9063,16.6251
10:35:32.526,16.3438,27.2501
10:35:32.526,21.7813,35.8126
10:35:32.550,25.1251,43.3752
10:35:32.552,28.2814,48.8752
10:35:32.555,31.3439,54.8127
10:35:32.566,33.2189,58.1252
10:35:32.575,34.4376,62.3127
10:35:32.585,35.1876,62.8752
10:35:32.595,36.0001,65.8753
10:35:32.605,35.8751,65.9378
10:35:32.615,35.6564,67.0628
10:35:32.625,34.6564,67.8128
10:35:32.635,33.6564,64.8127
10:35:32.645,32.3439,63.0627
10:35:32.655,29.0001,59.0627
10:35:32.666,27.4064,56.1877
10:35:32.676,24.5626,51.5002
10:35:32.685,22.2501,48.2502
10:35:32.695,20.4376,43.0627
10:35:32.705,18.2501,40.5627
10:35:32.716,17.3126,36.5626
10:35:32.725,15.9063,35.0626
10:35:32.736,14.8438,31.8126
10:35:32.746,13.7813,28.5001
10:35:32.756,13.2501,27.2501
10:35:32.766,12.5938,25.1251
10:35:32.776,11.6563,23.9376
10:35:32.785,11.5938,20.6251
10:35:32.796,10.8125,19.5626
10:35:32.805,9.5938,15.9376
10:35:32.815,8.0625,13.5626
10:35:32.825,6.5,10.6875
10:35:32.835,3.0625,8
10:35:32.846,1.0938,4.75
10:35:32.855,-0.5313,0.875
10:35:32.865,-2.5313,-1.1875
10:35:32.875,-3.0938,-5.25
10:35:32.885,-5.625,-8
10:35:32.895,-7.4688,-11.1875
10:35:32.905,-10.125,-15.3126
10:35:32.915,-12.2188,-19.3126
10:35:32.925,-15.7813,-23.7501
10:35:32.935,-20.1563,-29.1251
10:35:32.949,-23.7813,-32.6251
10:35:32.956,-26.9689,-38.6251
10:35:32.966,-31.7814,-44.0002
10:35:32.976,-36.2501,-48.4377
10:35:32.985,-39.1877,-53.5002
10:35:32.995,-43.1252,-58.8752
10:35:33.006,-46.2189,-63.6252
10:35:33.016,-48.9064,-66.7503
10:35:33.025,-51.6877,-72.0003
10:35:33.035,-53.719,-76.2503
10:35:33.045,-55.7502,-79.3753
10:35:33.055,-57.7502,-83.1253
10:35:33.065,-59.3752,-86.3128
10:35:33.076,-60.6565,-89.1253
10:35:33.085,-61.2815,-92.0629
10:35:33.110,-60.969,-91.3754
10:35:33.112,-58.344,-89.6878
10:35:33.143,-54.3752,-82.3128
10:35:33.148,-47.0314,-72.5628
10:35:33.148,-39.2189,-58.3127
10:35:33.148,-29.6251,-44.0002
10:35:33.157,-19.9688,-27.9376
10:35:33.181,-11.625,-12.8125
10:35:33.213,-3.0625,-0.6875
10:35:33.216,4.0625,11.9375
10:35:33.218,10.75,20.7501
10:35:33.225,17.1876,29.4376
10:35:33.225,21.6876,37.1876
10:35:33.225,26.8439,43.3752
10:35:33.253,31.6876,48.2502
10:35:33.256,33.8439,53.2502
10:35:33.258,36.7189,55.5627
10:35:33.265,37.7189,58.2502
10:35:33.296,39.4064,59.3127
10:35:33.299,39.3751,60.1252
10:35:33.303,40.1877,60.1877
10:35:33.308,39.8439,59.5002
10:35:33.338,38.4064,57.8127
10:35:33.340,37.1876,55.6252
10:35:33.342,33.2814,51.1252
10:35:33.348,30.5939,46.5002
10:35:33.356,27.4376,42.4377
10:35:33.365,23.8751,37.8751
10:35:33.374,20.8438,33.4376
10:35:33.386,18.9063,29.9376
10:35:33.395,16.3126,27.0001
10:35:33.405,14.0626,24.2501
10:35:33.414,13.0625,20.6876
10:35:33.426,11.4375,18.4376
10:35:33.435,10.0625,17.0626
10:35:33.446,8.75,14.1251
10:35:33.455,7.1563,11.3125
10:35:33.465,5.625,8.9375
10:35:33.474,3.6563,5.875
10:35:33.485,1.5313,3.6875
10:35:33.495,-0.7813,-0.625
10:35:33.507,-3.1563,-4.1875
10:35:33.514,-5.6875,-7.625
10:35:33.525,-7.8125,-11.9375
10:35:33.536,-10.5625,-15.4376
10:35:33.545,-12.625,-19.0626
10:35:33.555,-14.2501,-22.0001
10:35:33.565,-17.0626,-25.8126
10:35:33.575,-18.8751,-29.0626
10:35:33.585,-21.3751,-32.8751
10:35:33.594,-24.5938,-36.3126
10:35:33.605,-27.4064,-39.8752
10:35:33.614,-29.4689,-43.5002
10:35:33.625,-32.5626,-47.0627
10:35:33.635,-33.5939,-50.5627
10:35:33.645,-35.5939,-54.2502
10:35:33.655,-38.1564,-57.6252
10:35:33.665,-39.6252,-61.4377
10:35:33.674,-41.5627,-64.2502
10:35:33.685,-43.9377,-68.6253
10:35:33.695,-44.7189,-71.3753
10:35:33.705,-46.8439,-73.8128
10:35:33.714,-47.0002,-77.1878
10:35:33.725,-47.1877,-80.0003
10:35:33.734,-48.2814,-83.3753
10:35:33.745,-48.5627,-84.6878
10:35:33.756,-49.3127,-88.5003
10:35:33.764,-49.4064,-89.0628
10:35:33.775,-49.3752,-89.6253
10:35:33.785,-46.6564,-86.2503
10:35:33.794,-42.1877,-79.5628
10:35:33.806,-34.3439,-68.3753
10:35:33.814,-25.3751,-53.8752
10:35:33.826,-14.9688,-36.9376
10:35:33.834,-5.125,-21.5626
10:35:33.850,3.0938,-6.1875
10:35:33.855,10.625,5.8125
10:35:33.864,16.2501,16.6876
10:35:33.875,21.2188,25.9376
10:35:33.884,24.6563,33.3751
10:35:33.898,27.6876,39.9377
10:35:33.940,30.2814,44.8127
10:35:33.940,31.4064,48.3127
10:35:33.941,33.6251,51.5627
10:35:33.945,34.6876,54.7502
10:35:33.947,34.9376,55.3752
10:35:33.978,34.6251,56.3752
10:35:33.980,33.3126,55.6877
10:35:33.982,31.5001,54.8752
10:35:33.988,28.0314,53.4377
10:35:34.016,24.7188,48.6252
10:35:34.019,20.8751,44.6252
10:35:34.022,17.0938,39.9377
10:35:34.053,13.3751,34.8126
10:35:34.053,9.3438,30.6876
10:35:34.055,6.9375,25.6251
10:35:34.062,3.7813,22.0626
10:35:34.064,1.75,18.5626
10:35:34.077,0.6563,15.1251
10:35:34.084,-0.4063,13.3126
10:35:34.096,-1.5313,11.0625
10:35:34.104,-2.1875,8.0625
10:35:34.114,-2.9375,5.8125
10:35:34.125,-3.625,3.8125
10:35:34.134,-3.8125,1.75
10:35:34.144,-4.5,-1.375
10:35:34.154,-5.5313,-3.8125
10:35:34.164,-6.4688,-7
10:35:34.175,-8.0313,-9.1875
10:35:34.184,-8.9688,-12.8125
10:35:34.195,-10.9688,-15.3751
10:35:34.204,-12.1563,-18.3751
10:35:34.215,-13.9376,-22.0626
10:35:34.225,-15.8751,-23.8126
10:35:34.234,-16.6563,-28.0001
10:35:34.244,-17.5313,-31.3126
10:35:34.255,-19.1876,-34.8751
10:35:34.264,-19.4063,-37.4376
10:35:34.274,-20.6563,-40.2502
10:35:34.284,-22.3751,-44.2502
10:35:34.294,-23.1563,-46.0627
10:35:34.304,-24.9688,-50.6877
10:35:34.314,-26.2501,-53.6252
10:35:34.324,-26.7814,-55.7502
10:35:34.334,-29.6564,-59.3752
10:35:34.344,-31.2814,-63.1252
10:35:34.354,-32.6251,-66.1253
10:35:34.364,-35.9689,-68.6253
10:35:34.374,-38.0626,-73.3753
10:35:34.384,-40.4689,-76.0003
10:35:34.426,-42.7814,-79.6253
10:35:34.428,-44.3752,-83.3128
10:35:34.430,-45.9064,-86.2503
10:35:34.436,-47.5314,-88.8753
10:35:34.436,-48.1877,-90.9379
10:35:34.446,-48.0002,-91.0629
10:35:34.454,-46.5939,-88.0003
10:35:34.464,-43.5627,-81.8753
10:35:34.475,-36.8751,-71.6253
10:35:34.491,-29.8439,-57.3752
10:35:34.507,-20.7813,-42.7502
10:35:34.509,-11.4375,-27.3126
10:35:34.514,-3.625,-11.3125
10:35:34.524,3.625,0.5
10:35:34.535,9.5938,12.5625
10:35:34.544,14.7188,21.4376
10:35:34.554,19.5626,29.6876
10:35:34.564,23.0313,36.8751
10:35:34.574,25.5938,42.7502
10:35:34.584,26.3126,46.3752
10:35:34.600,27.6251,50.5627
10:35:34.605,26.5939,52.8752
10:35:34.614,25.9063,53.8127
10:35:34.624,24.1251,55.0627
10:35:34.657,22.4376,54.2502
10:35:34.658,22.6876,54.4377
10:35:34.660,19.5001,53.5627
10:35:34.666,18.0001,51.0002
10:35:34.695,13.9063,48.6252
10:35:34.697,9.0938,43.4377
10:35:34.699,4.8125,39.9377
10:35:34.706,1.0625,35.0626
10:35:34.737,-2.5,31.4376
10:35:34.739,-2.3125,29.6251
10:35:34.741,-2.25,27.1251
10:35:34.748,-4.2813,24.1876
10:35:34.762,-5.3438,20.3126
10:35:34.765,-7.375,18.0626
10:35:34.796,-8.1563,14.5626
10:35:34.798,-9.5625,13.1876
10:35:34.800,-9.7188,9.625
10:35:34.807,-11.4063,8.6875
10:35:34.814,-11.5625,5.5
10:35:34.825,-12.5625,3.1875
10:35:34.834,-13.2501,0.8125
10:35:34.844,-14.8126,-2.4375
10:35:34.854,-15.3126,-4.0625
10:35:34.864,-15.5938,-6.3125
10:35:34.874,-16.7188,-8.375
10:35:34.884,-16.8126,-11.6875
10:35:34.894,-17.7501,-13.8751
10:35:34.904,-18.4063,-16.5001
10:35:34.914,-19.3438,-18.5626
10:35:34.925,-20.9376,-22.1876
10:35:34.934,-22.0313,-24.6251
10:35:34.944,-24.1563,-26.8126
10:35:34.954,-24.9063,-29.6251
10:35:34.964,-26.6251,-32.0001
10:35:34.975,-27.3439,-35.3751
10:35:34.984,-28.5626,-37.0001
10:35:34.994,-29.7814,-40.3127
10:35:35.004,-30.4689,-43.1877
10:35:35.014,-32.4689,-46.0627
10:35:35.024,-33.6876,-49.6252
10:35:35.034,-34.6876,-51.3127
10:35:35.044,-36.0314,-54.7502
10:35:35.054,-37.0001,-56.9377
10:35:35.064,-38.2189,-58.9377
10:35:35.074,-39.6252,-62.0002
10:35:35.084,-40.3439,-64.8127
10:35:35.094,-41.7502,-67.1253
10:35:35.104,-43.2189,-70.3753
10:35:35.114,-43.3127,-70.4378
10:35:35.124,-42.5939,-71.5628
10:35:35.135,-40.1252,-67.5003
10:35:35.144,-35.2501,-60.1252
10:35:35.154,-29.0314,-49.7502
10:35:35.164,-20.5001,-37.0626
10:35:35.174,-11.5938,-22.1251
10:35:35.184,-3.1563,-8.3125
10:35:35.194,5.0313,5.1875
10:35:35.204,11.5,17.8126
10:35:35.214,17.7188,26.8751
10:35:35.224,24.4688,36.5626
10:35:35.234,27.4689,43.5627
10:35:35.244,31.5314,48.8127
10:35:35.254,34.0626,53.6252
10:35:35.264,36.3126,57.1877
10:35:35.274,37.8439,60.0002
10:35:35.284,39.6252,62.8752
10:35:35.294,42.3752,66.3753
10:35:35.304,44.4064,68.0003
10:35:35.314,44.8439,68.6878
10:35:35.324,45.7189,69.9378
10:35:35.334,45.3127,68.8753
10:35:35.358,44.9377,68.0628
10:35:35.360,44.2189,65.8128
10:35:35.366,43.7814,64.3127
10:35:35.403,42.2502,62.3127
10:35:35.403,41.8127,58.1252
10:35:35.406,39.5939,55.3127
10:35:35.408,38.0001,52.1252
10:35:35.414,37.1876,49.6252
10:35:35.452,36.9064,47.5002
10:35:35.455,36.6564,46.1877
10:35:35.456,37.1876,44.8752
10:35:35.460,36.9064,43.1252
10:35:35.465,35.9376,42.5002
10:35:35.495,35.2189,39.2501
10:35:35.495,34.0939,36.7501
10:35:35.496,33.2814,35.0626
10:35:35.525,32.5314,32.6251
10:35:35.530,31.7501,30.5626
10:35:35.534,31.1251,29.3751
10:35:35.535,31.0001,26.7501
10:35:35.547,31.0314,23.9376
10:35:35.554,30.2814,22.6251
10:35:35.564,29.7189,19.9376
10:35:35.574,30.0001,17.0626
10:35:35.584,29.4064,15.1876
10:35:35.594,28.2814,12.1875
10:35:35.604,26.3439,8.8125
10:35:35.614,25.0313,4.9375
10:35:35.624,22.8126,-0.1875
10:35:35.634,21.6563,-3.625
10:35:35.644,20.4688,-7.0625
10:35:35.653,19.9688,-9.3125
10:35:35.664,18.7813,-13.1876
10:35:35.674,17.9376,-17.7501
10:35:35.706,14.9063,-21.7501
10:35:35.709,13.125,-25.9376
10:35:35.723,10.6875,-30.9376
10:35:35.726,7.9688,-35.1251
10:35:35.731,5.375,-39.6877
10:35:35.734,2.0313,-44.1252
10:35:35.745,-0.8125,-48.7502
10:35:35.754,-3.4688,-54.1877
10:35:35.764,-6.8125,-58.3127
10:35:35.773,-8.875,-63.1252
10:35:35.789,-9.3438,-67.1878
10:35:35.803,-9.9375,-68.6878
10:35:35.806,-9.8125,-67.9378
10:35:35.816,-7.7813,-65.6878
10:35:35.824,-4,-57.8752
10:35:35.834,3.0938,-47.5627
10:35:35.844,10.5313,-32.5626
10:35:35.854,19.4063,-17.5001
10:35:35.864,27.8126,-2.4375
10:35:35.874,36.0939,12.125
10:35:35.885,43.3439,24.7501
10:35:35.901,49.2502,36.6251
10:35:35.904,55.0002,45.0627
10:35:35.914,59.6252,54.0627
10:35:35.924,63.2815,60.1877
10:35:35.941,66.094,66.5003
10:35:35.949,68.094,69.9378
10:35:35.959,67.8128,72.3753
10:35:35.971,69.5003,74.2503
10:35:35.979,68.469,75.3753
10:35:35.989,68.3753,74.6878
10:35:35.999,66.7503,73.8128
10:35:36.009,66.0003,72.2503
10:35:36.030,62.969,69.1253
10:35:36.033,61.1252,66.4378
10:35:36.039,56.969,61.4377
10:35:36.068,54.2815,56.6877
10:35:36.072,50.1564,51.5627
10:35:36.076,46.7189,46.5627
10:35:36.079,43.0627,41.6252
10:35:36.111,40.4377,36.6876
10:35:36.112,35.4689,32.0626
10:35:36.114,34.0001,28.5001
10:35:36.122,32.5939,25.5001
10:35:36.156,30.2814,22.1251
10:35:36.158,27.8439,20.5626
10:35:36.161,26.5314,17.5001
10:35:36.186,24.4376,13.9376
10:35:36.187,21.7813,11.3125
10:35:36.189,20.2188,8
10:35:36.194,17.5938,4.375
10:35:36.199,14.7501,1.4375
10:35:36.210,13.0313,-2.25
10:35:36.221,10.2813,-6.5
10:35:36.230,7.5625,-9.625
10:35:36.238,4.875,-13.0625
10:35:36.250,2.4688,-18.0626
10:35:36.259,0.4375,-21.8126
10:35:36.275,-2.5625,-25.1876
10:35:36.279,-5.1563,-28.8751
10:35:36.289,-7.5625,-32.8126
10:35:36.300,-10.1563,-37.0001
10:35:36.308,-12.7813,-41.1877
10:35:36.319,-15.0001,-44.3752
10:35:36.329,-17.0001,-48.2502
10:35:36.339,-19.5938,-52.1877
10:35:36.349,-22.4688,-56.5627
10:35:36.359,-24.5938,-59.0627
10:35:36.367,-26.1251,-64.2502
10:35:36.379,-29.0001,-66.5003
10:35:36.390,-30.5626,-70.5628
10:35:36.399,-32.4064,-73.8753
10:35:36.409,-34.5939,-78.1878
10:35:36.419,-36.4689,-80.6878
10:35:36.429,-38.0939,-84.6253
10:35:36.439,-39.0001,-86.5003
10:35:36.448,-41.0627,-88.5003
10:35:36.459,-41.5002,-90.8128
10:35:36.469,-41.2814,-90.7503
10:35:36.477,-40.6252,-89.3128
10:35:36.489,-37.5939,-84.0003
10:35:36.499,-31.8439,-74.4378
10:35:36.508,-24.4376,-61.4377
10:35:36.519,-14.8438,-44.2502
10:35:36.529,-4.7188,-27.1251
10:35:36.537,3.25,-10.75
10:35:36.548,11.9375,3.875
10:35:36.559,19.0938,17.0626
10:35:36.568,24.9063,28.8751
10:35:36.579,30.4689,36.9376
10:35:36.589,34.5939,46.6252
10:35:36.599,38.2501,51.5627
10:35:36.609,41.7189,57.4377
10:35:36.619,43.2189,61.5627
10:35:36.629,45.2189,64.6252
10:35:36.640,46.2814,66.7503
10:35:36.650,46.3127,67.9378
10:35:36.660,46.5627,68.1253
10:35:36.667,46.2502,68.3753
10:35:36.679,44.6252,67.5628
10:35:36.690,43.1252,64.0002
10:35:36.699,40.2189,61.3752
10:35:36.709,37.9376,56.8127
10:35:36.719,34.7189,52.5002
10:35:36.729,32.3751,47.9377
10:35:36.738,29.5001,43.9377
10:35:36.768,26.8439,39.6252
10:35:36.770,24.5938,35.8126
10:35:36.773,22.1251,33.6876
10:35:36.779,20.8751,30.0001
10:35:36.809,18.9376,28.0626
10:35:36.812,17.6563,25.3126
10:35:36.814,16.2813,23.4376
10:35:36.821,14.2501,19.8126
10:35:36.856,12.7188,18.1876
10:35:36.858,11.4375,14.6251
10:35:36.861,9.3125,12.875
10:35:36.868,7.9688,8.75
10:35:36.869,5.4688,6
10:35:36.911,4.5,2.125
10:35:36.912,1.5,-0.0625
10:35:36.914,0.25,-4.1875
10:35:36.916,-1.7813,-6.875
10:35:36.919,-3.9375,-11.1875
10:35:36.931,-5.7188,-14.4376
10:35:36.939,-8.1875,-16.8751
10:35:36.949,-9.4375,-21.0626
10:35:36.958,-11.9688,-25.3126
10:35:36.983,-14.4063,-28.0001
10:35:36.985,-16.1876,-31.5001
10:35:36.991,-17.9688,-35.4376
10:35:37.004,-20.6251,-39.1876
10:35:37.027,-22.5313,-42.8752
10:35:37.032,-25.0313,-46.1877
10:35:37.033,-26.6564,-49.5002
10:35:37.038,-28.9376,-54.2502
10:35:37.048,-30.6564,-56.6252
10:35:37.058,-32.4376,-60.8127
10:35:37.071,-34.6564,-63.8127
10:35:37.084,-36.0626,-67.3128
10:35:37.099,-38.0314,-70.6253
10:35:37.101,-39.8752,-74.5003
10:35:37.108,-40.9689,-77.0003
10:35:37.118,-42.2189,-80.0628
10:35:37.128,-43.0002,-81.1253
10:35:37.140,-42.3752,-82.0003
10:35:37.147,-40.0939,-78.3128
10:35:37.158,-35.8751,-71.0003
10:35:37.167,-28.2814,-58.4377
10:35:37.178,-20.5001,-43.6252
10:35:37.188,-10.0313,-27.5626
10:35:37.198,-1.5625,-10.625
10:35:37.208,7.1563,3.625
10:35:37.218,14.6876,17.7501
10:35:37.228,20.6563,27.5626
10:35:37.238,26.7501,38.2501
10:35:37.247,30.9064,45.8752
10:35:37.258,34.6564,53.3752
10:35:37.268,37.5314,58.8752
10:35:37.278,39.7189,62.5627
10:35:37.288,42.1252,65.9378
10:35:37.298,43.0002,68.7503
10:35:37.308,43.1252,69.1253
10:35:37.318,44.1877,70.8753
10:35:37.328,43.6252,70.8753
10:35:37.337,43.3127,70.6253
10:35:37.348,42.0627,70.6253
10:35:37.358,39.7814,66.3753
10:35:37.368,38.2189,63.0002
10:35:37.378,35.4376,59.1252
10:35:37.388,33.1251,54.6252
10:35:37.401,30.0314,50.8752
10:35:37.407,27.0939,46.8752
10:35:37.417,25.0626,43.3127
10:35:37.428,23.3126,39.8127
10:35:37.438,21.6563,37.0626
10:35:37.448,19.9688,34.3751
10:35:37.458,18.5938,31.9376
10:35:37.467,17.0626,29.0626
10:35:37.478,15.8438,27.0001
10:35:37.488,14.1251,23.3751
10:35:37.497,12.2813,21.7501
10:35:37.508,10.75,18.3751
10:35:37.517,9,15.8751
10:35:37.528,7,11.9375
10:35:37.538,5.0625,9.5625
10:35:37.548,3.2813,5.875
10:35:37.558,1.5313,2.6875
10:35:37.596,-0.9375,-1.5625
10:35:37.598,-2.8125,-4.1875
10:35:37.602,-4.9375,-7.8125
10:35:37.603,-6.3438,-11.4375
10:35:37.609,-9.0938,-15.5001
10:35:37.646,-10.8438,-19.1876
10:35:37.648,-12.5,-22.4376
10:35:37.655,-14.8126,-26.1876
10:35:37.661,-17.0313,-29.5001
10:35:37.661,-18.9063,-32.5626
10:35:37.676,-21.5313,-36.3751
10:35:37.678,-23.7188,-40.3752
10:35:37.717,-25.7813,-44.0002
10:35:37.718,-28.0939,-48.2502
10:35:37.722,-30.0314,-51.5002
10:35:37.727,-31.7189,-54.9377
10:35:37.728,-33.8439,-58.1877
10:35:37.746,-35.3439,-62.4377
10:35:37.748,-37.0001,-65.9378
10:35:37.758,-38.6251,-68.7503
10:35:37.767,-41.0627,-71.0003
10:35:37.778,-41.0002,-74.3128
10:35:37.787,-42.6252,-76.1878
10:35:37.798,-42.6564,-77.3128
10:35:37.807,-40.8439,-75.3128
10:35:37.818,-37.4064,-69.9378
10:35:37.828,-31.1564,-59.0002
10:35:37.838,-22.7501,-45.5627
10:35:37.848,-13.5001,-29.0001
10:35:37.858,-4.2188,-13.8126
10:35:37.868,4.5,2.5625
10:35:37.878,12.3125,15.6876
10:35:37.888,18.9376,27.4376
10:35:37.898,25.2188,37.8751
10:35:37.908,29.8126,46.5002
10:35:37.918,34.3751,53.9377
10:35:37.928,37.6564,60.6252
10:35:37.938,40.0627,64.1252
10:35:37.948,42.1877,68.9378
10:35:37.958,43.5314,71.2503
10:35:37.967,45.1877,72.5628
10:35:37.978,44.8752,74.4378
10:35:37.988,45.0627,75.3128
10:35:37.998,45.1877,74.5628
10:35:38.008,44.6877,74.1253
10:35:38.017,42.1564,71.8128
10:35:38.028,40.9064,68.7503
10:35:38.038,38.4064,65.6252
10:35:38.048,36.1564,61.0627
10:35:38.058,33.0939,57.5002
10:35:38.067,30.0939,53.0002
10:35:38.078,28.9689,49.0002
10:35:38.088,25.8126,44.6252
10:35:38.098,24.2813,41.3127
10:35:38.108,22.4063,38.9376
10:35:38.118,20.8126,36.2501
10:35:38.128,19.4688,33.1251
10:35:38.138,19.7813,30.9376
10:35:38.153,20.2501,29.5626
10:35:38.157,18.1876,27.1876
10:35:38.168,17.2501,23.6876
10:35:38.178,14.5938,21.0001
10:35:38.188,12.625,17.5001
10:35:38.198,11.2813,14.1251
10:35:38.207,9.0938,10.5
10:35:38.218,7.25,6.5625
10:35:38.232,4.9063,2.375
10:35:38.238,2.0625,-1.0625
10:35:38.263,0.375,-4.6875
10:35:38.265,-2.2188,-7.875
10:35:38.268,-3.9688,-11.75
10:35:38.405,-6.875,-15.5001
10:35:38.415,-9.1875,-19.0001
10:35:38.429,-10.9375,-23.6251
10:35:38.431,-13.7813,-27.0001
10:35:38.433,-16.2188,-31.0626
10:35:38.435,-17.9376,-35.1876
10:35:38.435,-19.9063,-38.8751
10:35:38.443,-21.6563,-42.1252
10:35:38.453,-24.7188,-46.4377
10:35:38.463,-25.8438,-50.3752
10:35:38.473,-28.5626,-53.1877
10:35:38.483,-30.5001,-57.1877
10:35:38.492,-32.5314,-61.5002
10:35:38.503,-34.6876,-63.5627
10:35:38.512,-36.0314,-68.6253
10:35:38.525,-37.0626,-70.8128
10:35:38.535,-39.4689,-74.1878
10:35:38.543,-41.3127,-78.7503
10:35:38.553,-42.5939,-80.7503
10:35:38.564,-42.2502,-81.6253
10:35:38.573,-40.7502,-78.5628
10:35:38.582,-37.1876,-73.3128
10:35:38.593,-30.8751,-63.2502
10:35:38.603,43.4377,67.2503
10:35:38.613,46.2502,71.1878
10:35:38.623,47.4689,73.6878
10:35:38.633,48.4377,77.0628
10:35:38.643,49.3439,78.1253
10:35:38.653,49.1252,79.2503
10:35:38.662,49.3439,79.3128
10:35:38.672,48.1564,79.1253
10:35:38.683,46.9064,77.1878
10:35:38.692,45.1252,74.8753
10:35:38.703,43.0314,71.6878
10:35:38.712,40.2814,66.5628
10:35:38.722,38.1251,62.6877
10:35:38.733,34.4376,58.3752
10:35:38.743,32.2189,53.7502
10:35:38.753,29.5626,50.3127
10:35:38.764,28.0939,46.4377
10:35:38.772,25.8438,43.6877
10:35:38.782,25.1251,41.8752
10:35:38.793,23.3751,39.0626
10:35:38.803,21.6563,37.3126
10:35:38.814,20.2188,34.1251
10:35:38.823,18.2501,31.7501
10:35:38.835,16.8126,28.5626
10:35:38.843,15.7188,25.5626
10:35:38.853,13.1876,22.8751
10:35:38.863,11.5625,19.7501
10:35:38.873,9.6563,16.5626
10:35:38.883,7.5313,12.5
10:35:38.893,6.0938,8.75
10:35:38.903,3.6563,5.5
10:35:38.913,1.8438,1.75
10:35:38.923,-0.4063,-1.5
10:35:38.933,-2.75,-5
10:35:38.945,-4.4063,-8.5
10:35:38.980,-7.0938,-12.625
10:35:38.981,-9.4688,-15.8126
10:35:38.985,-11.125,-18.9376
10:35:38.987,-13.8438,-23.3126
10:35:38.992,-15.5626,-27.1876
10:35:39.026,-17.3126,-30.8751
10:35:39.030,-19.8751,-33.9376
10:35:39.030,-21.2501,-37.8751
10:35:39.038,-23.7501,-41.1877
10:35:39.049,-26.4064,-44.5002
10:35:39.080,-27.9376,-48.8752
10:35:39.081,-30.1564,-52.3752
10:35:39.084,-32.1564,-55.3127
10:35:39.087,-34.0939,-59.1877
10:35:39.093,-35.1564,-62.3752
10:35:39.120,-37.2189,-64.5627
10:35:39.123,-38.6251,-68.3753
10:35:39.125,-38.4064,-69.2503
10:35:39.133,-37.9376,-67.8128
10:35:39.142,-34.0939,-62.6877
10:35:39.153,-28.3439,-53.1877
10:35:39.163,-20.2501,-38.8751
10:35:39.173,-10.875,-23.7501
10:35:39.183,-1.75,-6
10:35:39.193,7.5625,7.9375
10:35:39.203,15.9063,22.3126
10:35:39.213,23.1563,35.1876
10:35:39.222,28.5939,44.5002
10:35:39.233,34.4376,54.3752
10:35:39.243,38.4064,62.8752
10:35:39.253,41.3439,67.1253
10:35:39.263,44.1252,71.8128
10:35:39.275,46.2502,76.6253
10:35:39.286,47.2189,78.6253
10:35:39.293,49.0002,82.1878
10:35:39.303,49.4064,83.8753
10:35:39.312,49.9377,84.2503
10:35:39.323,49.7189,85.6878
10:35:39.332,49.4377,85.1253
10:35:39.343,48.9689,84.0003
10:35:39.352,46.6564,81.9378
10:35:39.363,44.8127,78.6253
10:35:39.372,41.7502,74.6878
10:35:39.381,39.4377,69.9378
10:35:39.393,36.0939,65.1252
10:35:39.402,33.8126,60.8752
10:35:39.413,31.5001,56.6252
10:35:39.423,29.6564,54.6252
10:35:39.433,27.6564,51.4377
10:35:39.443,25.8438,47.8752
10:35:39.453,24.2501,45.0627
10:35:39.463,22.6251,43.1877
10:35:39.471,21.2501,40.3127
10:35:39.483,19.8751,37.4376
10:35:39.493,17.4688,34.3751
10:35:39.502,16.1251,31.6876
10:35:39.513,14.1563,28.0626
10:35:39.542,12.7813,25.2501
10:35:39.546,10.2813,21.7501
10:35:39.547,8.3438,19.0001
10:35:39.552,6.3438,14.1251
10:35:39.562,3.6875,11.6875
10:35:39.573,1.9688,6.8125
10:35:39.581,-0.25,4.0625
10:35:39.593,-2.125,0.375
10:35:39.601,-4.4063,-4.125
10:35:39.617,-6.5,-6.8125
10:35:39.624,-8.8125,-11.5
10:35:39.633,-10.9688,-15.3751
10:35:39.654,-13.1876,-19.1876
10:35:39.656,-15.0938,-23.1876
10:35:39.666,-17.3438,-26.6251
10:35:39.675,-20.0001,-30.3751
10:35:39.682,-21.7813,-34.0626
10:35:39.698,-24.4063,-37.8751
10:35:39.707,-26.2501,-41.0627
10:35:39.713,-28.1251,-46.0627
10:35:39.742,-30.1251,-48.7502
10:35:39.744,-32.6251,-52.1252
10:35:39.780,-33.9689,-56.0002
10:35:39.782,-36.6251,-60.0002
10:35:39.783,-38.2189,-63.3752
10:35:39.785,-39.7502,-66.3753
10:35:39.785,-39.6252,-67.7503
10:35:39.818,-39.1564,-65.9378
10:35:39.820,-36.0939,-61.7502
10:35:39.823,-29.7501,-51.6252
10:35:39.825,-22.3751,-39.3127
10:35:39.859,-12.3438,-23.0626
10:35:39.860,-3.0313,-5.6875
10:35:39.865,6.3438,8.6875
10:35:39.866,14.0313,23.7501
10:35:39.900,21.3751,34.7501
10:35:39.902,28.4689,46.2502
10:35:39.904,32.6251,54.9377
10:35:39.909,37.6876,62.8127
10:35:39.914,40.9064,69.5003
10:35:39.923,43.7502,75.4378
10:35:39.932,45.5939,79.1253
10:35:39.941,48.0627,81.7503
10:35:39.953,48.9689,85.7503
10:35:39.962,49.9689,86.6253
10:35:39.972,50.6252,89.2503
10:35:39.983,50.0939,89.3128
10:35:39.992,50.2189,89.0628
10:35:40.003,49.8439,89.1878
10:35:40.011,48.2814,88.0628
10:35:40.025,47.1252,85.5003
10:35:40.038,43.9689,82.1253
10:35:40.048,41.5627,77.9378
10:35:40.057,38.7814,72.5628
10:35:40.068,35.9376,69.1253
10:35:40.077,33.2189,65.0627
10:35:40.087,30.7189,60.8752
10:35:40.098,29.3126,57.0002
10:35:40.106,27.3751,54.4377
10:35:40.119,25.3751,52.2502
10:35:40.128,23.9063,49.4377
10:35:40.138,22.2813,45.7502
10:35:40.148,20.5001,43.8127
10:35:40.158,18.7501,41.0002
10:35:40.168,17.1876,37.6251
10:35:40.176,15.4376,34.3751
10:35:40.188,13.7188,31.0626
10:35:40.198,9.875,26.9376
10:35:40.208,8.3125,22.0626
10:35:40.218,6.25,19.1876
10:35:40.228,4.0938,14.9376
10:35:40.237,1.75,11.0625
10:35:40.246,0.0938,7.9375
10:35:40.257,-2.5313,4.125
10:35:40.267,-4.1563,0.0625
10:35:40.278,-7.1875,-3.3125
10:35:40.287,-9.125,-7.125
10:35:40.297,-11.25,-11.1875
10:35:40.306,-14.0313,-14.6251
10:35:40.316,-16.0001,-19.5001
10:35:40.328,-18.6563,-22.9376
10:35:40.337,-20.3438,-27.0626
10:35:40.347,-23.1563,-30.0001
10:35:40.356,-24.7501,-34.1251
10:35:40.368,-27.1564,-38.2501
10:35:40.376,-28.7814,-41.7502
10:35:40.387,-31.1251,-45.1252
10:35:40.403,-33.2814,-49.0627
10:35:40.407,-34.1876,-52.6877
10:35:40.416,-37.0314,-55.8752
10:35:40.427,-37.6251,-59.2502
10:35:40.438,-40.2189,-61.8752
10:35:40.465,-39.7189,-63.9377
10:35:40.467,-39.2814,-62.6877
10:35:40.470,-36.5314,-58.6877
10:35:40.498,-31.2189,-50.0627
10:35:40.502,-24.0313,-39.0626
10:35:40.503,-14.4376,-23.7501
10:35:40.507,-5.5938,-7.1875
10:35:40.535,4.0313,7.4375
10:35:40.538,12.0313,22.6251
10:35:40.540,18.8438,34.1876
10:35:40.572,26.1563,45.1877
10:35:40.573,31.3439,54.3127
10:35:40.575,36.2501,62.1252
10:35:40.580,38.8439,68.6253
10:35:40.588,42.4689,74.0003
10:35:40.620,44.3752,78.7503
10:35:40.623,47.0002,82.1878
10:35:40.625,47.6877,85.1253
10:35:40.628,49.2502,87.8128
10:35:40.637,49.8439,89.8753
10:35:40.648,49.8127,90.1878
10:35:40.656,49.8127,91.1254
10:35:40.667,48.8439,91.6879
10:35:40.676,47.6564,89.4378
10:35:40.687,45.4377,86.9378
10:35:40.696,43.5002,82.6878
10:35:40.707,40.3439,80.2503
10:35:40.717,37.6564,73.7503
10:35:40.726,34.6876,69.6253
10:35:40.736,32.1876,65.0627
10:35:40.747,30.5626,61.6877
10:35:40.757,28.0314,59.2502
10:35:40.767,25.7813,56.0627
10:35:40.783,24.4063,52.6252
10:35:40.787,22.6251,49.5002
10:35:40.797,21.6563,46.5627
10:35:40.826,19.7813,44.3752
10:35:40.828,18.4063,41.4377
10:35:40.833,16.2813,39.1877
10:35:40.836,14.5626,35.5001
10:35:40.848,12.3125,32.6251
10:35:40.856,10.9063,28.5626
10:35:40.867,8.3438,25.5626
10:35:40.876,6.2813,21.6876
10:35:40.887,3.9375,17.8751
10:35:40.897,2.2188,14.6251
10:35:40.907,0,9.8125
10:35:40.916,-2.0625,6.3125
10:35:40.927,-4.5938,2.0625
10:35:40.942,-6.5,-1.1875
10:35:40.950,-9,-5.4375
10:35:40.957,-11.3438,-9.375
10:35:40.972,-13.1563,-12.625
10:35:40.981,-15.5626,-16.3126
10:35:40.987,-18.3126,-20.4376
10:35:40.997,-20.6563,-24.1876
10:35:41.007,-22.5313,-28.6251
10:35:41.026,-24.8438,-31.4376
10:35:41.029,-26.5314,-35.6876
10:35:41.047,-29.0001,-39.8127
10:35:41.048,-29.9689,-42.3752
10:35:41.062,-31.9376,-45.7502
10:35:41.072,-34.4064,-50.0627
10:35:41.078,-36.4064,-52.0002
10:35:41.086,-38.3439,-56.7502
10:35:41.097,-39.9689,-60.4377
10:35:41.107,-40.7189,-62.0627
10:35:41.117,-42.2189,-64.4377
10:35:41.127,-40.5939,-62.5627
10:35:41.136,-37.2814,-58.9377
10:35:41.146,-32.9376,-50.3752
10:35:41.158,-24.0626,-37.6876
10:35:41.168,-15.5313,-22.8751
10:35:41.177,-5.25,-6.9375
10:35:41.186,2.7813,7.1875
10:35:41.196,10.5313,22.2501
10:35:41.230,18.1563,33.7501
10:35:41.232,23.6251,44.5002
10:35:41.234,29.2501,52.6877
10:35:41.236,33.5001,61.1252
10:35:41.268,37.1564,66.6253
10:35:41.270,39.8752,72.8753
10:35:41.272,42.0002,76.7503
10:35:41.279,44.5939,80.2503
10:35:41.304,45.5939,84.3128
10:35:41.308,46.3752,86.1253
10:35:41.309,47.7189,87.8128
10:35:41.340,47.4689,89.6253
10:35:41.344,47.2814,88.8128
10:35:41.345,46.7189,88.6253
10:35:41.347,45.2814,88.5003
10:35:41.380,42.9689,84.6253
10:35:41.381,40.1877,81.3753
10:35:41.385,37.1564,76.5003
10:35:41.391,34.1876,71.0003
10:35:41.399,31.8439,66.8753
10:35:41.406,29.1251,62.6877
10:35:41.416,26.4689,58.7502
10:35:41.427,25.3438,56.0627
10:35:41.436,22.4376,53.7502
10:35:41.447,21.3751,50.8752
10:35:41.457,19.6876,48.3127
10:35:41.467,17.7501,45.8127
10:35:41.477,16.2813,42.1252
10:35:41.487,14.4063,40.3127
10:35:41.497,12.75,36.3751
10:35:41.506,10.5313,32.5001
10:35:41.517,8.875,30.8126
10:35:41.532,6.9063,25.8751
10:35:41.537,4.6563,22.3751
10:35:41.546,2.5313,18.7501
10:35:41.556,0.125,14.6251
10:35:41.566,-1.5938,11.0625
10:35:41.577,-4.2813,7.1875
10:35:41.586,-5.4063,3.625
10:35:41.597,-8.7188,-0.125
10:35:41.607,-10.875,-3.6875
10:35:41.617,-13.0938,-9
10:35:41.626,-15.3751,-11.5625
10:35:41.636,-16.9376,-16.1251
10:35:41.646,-20.5001,-19.3751
10:35:41.659,-22.5313,-24.2501
10:35:41.667,-24.7813,-27.3126
10:35:41.677,-25.9376,-31.6876
10:35:41.686,-28.8751,-34.5001
10:35:41.698,-30.8751,-39.6252
10:35:41.707,-33.0626,-42.6252
10:35:41.717,-34.5001,-47.1252
10:35:41.727,-36.7189,-49.8127
10:35:41.736,-38.9064,-53.5627
10:35:41.746,-40.3127,-57.6877
10:35:41.756,-42.7189,-61.0002
10:35:41.768,-44.0939,-65.1252
10:35:41.776,-44.7814,-65.9378
10:35:41.787,-44.6564,-66.1878
10:35:41.797,-42.1877,-63.0002
10:35:41.807,-37.4689,-55.5627
10:35:41.817,-30.4689,-44.6877
10:35:41.827,-21.3438,-30.7501
10:35:41.837,-12.0625,-15.2501
10:35:41.847,-2.8125,1.4375
10:35:41.881,5.75,14.4376
10:35:41.883,13.3751,27.3751
10:35:41.885,20.0001,38.2501
10:35:41.889,25.4063,48.3752
10:35:41.919,30.0001,57.0627
10:35:41.920,33.9689,62.6877
10:35:41.924,37.0939,69.0003
10:35:41.928,39.0314,73.7503
10:35:41.958,41.6252,76.9378
10:35:41.960,42.6564,81.1253
10:35:41.963,44.2502,84.0628
10:35:42.001,44.8752,85.2503
10:35:42.001,45.7189,87.3128
10:35:42.002,45.0314,88.6878
10:35:42.008,44.9377,87.8128
10:35:42.023,43.7189,87.4378
10:35:42.025,42.0314,84.7503
10:35:42.044,39.5939,80.9378
10:35:42.046,36.3751,76.6253
10:35:42.053,33.6251,72.0003
10:35:42.061,30.0314,67.3128
10:35:42.072,27.8126,62.6252
10:35:42.101,25.2188,57.8127
10:35:42.104,22.1563,55.2502
10:35:42.107,20.1876,51.3127
10:35:42.113,18.5313,47.9377
10:35:42.121,16.8751,44.8127
10:35:42.132,15.0626,42.0002
10:35:42.141,13.2188,38.9376
10:35:42.151,12.0938,36.3126
10:35:42.161,9.6875,33.5626
10:35:42.171,7.0625,28.6876
10:35:42.183,4.5313,24.1876
10:35:42.192,2.5,20.7501
10:35:42.202,0.25,16.7501
10:35:42.211,-1.75,12.9375
10:35:42.221,-4.5938,9.125
10:35:42.231,-6.8125,5.625
10:35:42.241,-8.9688,0.75
10:35:42.256,-11.2188,-3.4375
10:35:42.266,-13.6251,-6.75
10:35:42.271,-16.0938,-11.9375
10:35:42.289,-18.0001,-16.1251
10:35:42.295,-20.9688,-19.6876
10:35:42.302,-23.0938,-23.6251
10:35:42.311,-24.6876,-28.0001
10:35:42.321,-27.5314,-30.8126
10:35:42.331,-29.3439,-35.1876
10:35:42.347,-32.5314,-39.5627
10:35:42.354,-34.6876,-43.3752
10:35:42.361,-37.0001,-47.8127
10:35:42.376,-39.7502,-51.6252
10:35:42.386,-41.7814,-55.8752
10:35:42.393,-43.7502,-60.0627
10:35:42.401,-45.3439,-63.1252
10:35:42.411,-47.0939,-67.4378
10:35:42.421,-48.7502,-70.1253
10:35:42.431,-50.5939,-74.7503
10:35:42.442,-51.5627,-77.0003
10:35:42.451,-51.9689,-78.9378
10:35:42.463,-50.1564,-77.2503
10:35:42.471,-47.8439,-70.3753
10:35:42.481,-41.0002,-62.4377
10:35:42.493,-32.1564,-48.8752
10:35:42.501,-22.9688,-33.1251
10:35:42.511,-12.625,-16.9376
10:35:42.521,-4.2813,-1.0625
10:35:42.531,4.5313,12.5625
10:35:42.542,11.0938,25.3751
10:35:42.555,18.4688,36.2501
10:35:42.561,23.3751,46.0002
10:35:42.571,27.8751,53.2502
10:35:42.583,32.5626,60.5002
10:35:42.591,34.6251,67.1878
10:35:42.601,36.6251,70.5003
10:35:42.612,38.4064,73.6878
10:35:42.621,38.4689,77.1253
10:35:42.632,39.0001,78.8128
10:35:42.642,37.8751,80.3753
10:35:42.652,36.8439,80.8128
10:35:42.661,35.0939,80.3753
10:35:42.671,33.3126,79.9378
10:35:42.682,30.8751,77.3128
10:35:42.712,27.5001,74.8753
10:35:42.714,24.4688,70.3753
10:35:42.716,19.8126,66.5628
10:35:42.723,16.6563,60.5627
10:35:42.751,11.2813,55.6252
10:35:42.755,8.0938,49.6877
10:35:42.756,3.4375,45.5627
10:35:42.781,0.0938,41.5002
10:35:42.784,-3.7188,37.4376
10:35:42.788,-7.1563,33.9376
10:35:42.792,-11.7188,29.1251
10:35:42.804,-15.2813,25.7501
10:35:42.832,-19.3751,21.6251
10:35:42.834,-22.9688,17.9376
10:35:42.836,-26.4376,13.3751
10:35:42.844,-29.4689,10.5
10:35:42.862,-32.4689,6
10:35:42.865,-35.4064,2.1875
10:35:42.871,-37.2501,-1.0625
10:35:42.881,-40.1252,-4.9375
10:35:42.892,-41.6877,-7.9375
10:35:42.901,-42.6877,-10.1875
10:35:42.912,-43.8127,-12.625
10:35:42.922,-46.4064,-16.1251
10:35:42.931,-47.9689,-19.6251
10:35:42.943,-50.4064,-23.2501
10:35:42.952,-52.1877,-26.8126
10:35:42.961,-53.4065,-29.8126
10:35:42.972,-54.4065,-33.3126
10:35:42.981,-55.844,-36.6251
10:35:42.994,-56.844,-40.0002
10:35:43.001,-58.3752,-42.6877
10:35:43.012,-59.6877,-46.5627
10:35:43.021,-61.3752,-49.5627
10:35:43.031,-62.4377,-53.8752
10:35:43.041,-64.0627,-56.9377
10:35:43.052,-65.7503,-61.6877
10:35:43.062,-66.3753,-64.6252
10:35:43.072,-68.0003,-67.3128
10:35:43.082,-69.5315,-72.3753
10:35:43.091,-69.844,-76.1253
10:35:43.103,-72.0315,-79.1253
10:35:43.111,-72.469,-82.8753
10:35:43.122,-73.594,-85.0003
10:35:43.132,-73.9378,-88.7503
10:35:43.140,-72.7815,-87.5628
10:35:43.152,-70.1253,-85.0003
10:35:43.161,-64.344,-78.3753
10:35:43.171,-58.6252,-67.7503
10:35:43.181,-50.1564,-56.8752
10:35:43.190,-41.0314,-43.0002
10:35:43.202,-33.6251,-29.1876
10:35:43.212,-25.8438,-17.7501
10:35:43.220,-18.6251,-6.125
10:35:43.237,-13,4.5
10:35:43.241,-7.0625,12.125
10:35:43.251,-2.4688,20.4376
10:35:43.261,1.25,26.1876
10:35:43.270,5.6563,31.8126
10:35:43.281,8.2813,36.6876
10:35:43.292,11.4375,39.6877
10:35:43.300,13.8438,43.5627
10:35:43.312,15.6251,44.6877
10:35:43.321,17.3438,47.3752
10:35:43.330,17.7501,49.4377
10:35:43.343,18.1251,48.3752
10:35:43.351,18.5938,47.6877
10:35:43.381,17.3438,46.1252
10:35:43.384,16.2813,42.8127
10:35:43.387,14.6563,39.6877
10:35:43.395,12.2813,33.4376
10:35:43.418,10.5313,29.3751
10:35:43.420,8.25,23.5626
10:35:43.424,6.8125,20.0626
10:35:43.459,5.5625,15.5001
10:35:43.459,3.625,10.8125
10:35:43.462,2.125,7.875
10:35:43.470,1,4.5
10:35:43.478,-0.8125,1.3125
10:35:43.481,-2.8125,-1.4375
10:35:43.518,-3.5938,-5.9375
10:35:43.521,-5.8438,-8.9375
10:35:43.523,-6.875,-12.4375
10:35:43.527,-9.5625,-16.6876
10:35:43.531,-11.7188,-20.7501
10:35:43.545,-13.8751,-24.6876
10:35:43.552,-16.0001,-29.1251
10:35:43.561,-18.3438,-34.0626
10:35:43.579,-21.7188,-38.7501
10:35:43.581,-24.8438,-42.9377
10:35:43.596,-27.2189,-49.0002
10:35:43.612,-31.1564,-54.6877
10:35:43.616,-35.2501,-59.7502
10:35:43.631,-39.2502,-65.9378
10:35:43.633,-43.6564,-73.2503
10:35:43.640,-47.5002,-77.7503
10:35:43.661,-51.4064,-84.8753
10:35:43.664,-55.719,-90.0003
10:35:43.674,-58.9377,-96.0629
10:35:43.680,-61.9377,-102.1254
10:35:43.696,-64.719,-105.5629
10:35:43.703,-66.469,-110.1254
10:35:43.711,-68.5003,-113.1254
10:35:43.720,-70.1878,-116.0004
10:35:43.731,-71.219,-118.813
10:35:43.743,-72.2503,-121.188
10:35:43.750,-73.0628,-123.2505
10:35:43.761,-74.6878,-124.2505
10:35:43.770,-74.4065,-127.1255
10:35:43.780,-75.594,-127.7505
10:35:43.791,-75.8753,-129.5005
10:35:43.800,-76.2503,-129.563
10:35:43.811,-74.844,-128.5005
10:35:43.821,-72.219,-124.688
10:35:43.831,-67.594,-116.4379
10:35:43.841,-60.0315,-106.0004
10:35:43.853,-51.9064,-90.1253
10:35:43.861,-42.0314,-72.6253
10:35:43.872,-32.6251,-53.2502
10:35:43.881,-22.5626,-34.0626
10:35:43.890,-12.6563,-15.6251
10:35:43.901,-4.5625,-0.0625
10:35:43.910,2.75,12.9375
10:35:43.922,8.4063,25.0001
10:35:43.931,13.8126,34.0626
10:35:43.942,18.8751,43.6877
10:35:43.951,21.3751,51.3752
10:35:43.961,25.0001,57.2502
10:35:43.970,27.8751,62.5002
10:35:43.987,29.0001,66.7503
10:35:43.990,30.0314,69.7503
10:35:44.001,29.2501,71.6878
10:35:44.010,28.2189,72.3128
10:35:44.020,26.9376,72.8753
10:35:44.030,23.5626,72.8753
10:35:44.045,20.1251,68.5003
10:35:44.055,17.3438,64.8752
10:35:44.066,13.4688,60.8127
10:35:44.089,10.25,55.2502
10:35:44.091,6.5625,50.5002
10:35:44.097,4.1875,45.7502
10:35:44.127,1.3438,41.7502
10:35:44.128,-0.3125,38.3751
10:35:44.134,-2.1563,35.2501
10:35:44.137,-2.875,32.3126
10:35:44.163,-4.2813,30.1876
10:35:44.165,-4.375,28.0001
10:35:44.168,-6.2188,25.6876
10:35:44.202,-6.7813,22.8126
10:35:44.204,-8.3125,20.0626
10:35:44.205,-9.5,16.4376
10:35:44.207,-11.9375,11.5625
10:35:44.244,-12.9063,8.125
10:35:44.249,-14.1876,5.3125
10:35:44.250,-15.7501,2.125
10:35:44.255,-15.9688,-2
10:35:44.256,-18.6563,-6.4375
10:35:44.265,-20.1876,-10.4375
10:35:44.275,-20.7813,-13.4376
10:35:44.285,-20.5001,-17.8751
10:35:44.295,-21.7188,-21.4376
10:35:44.307,-23.5313,-24.4376
10:35:44.315,-25.0626,-29.6251
10:35:44.325,-27.2189,-35.0626
10:35:44.335,-29.0314,-38.3126
10:35:44.345,-31.6564,-44.5627
10:35:44.355,-35.5626,-50.2502
10:35:44.368,-39.0939,-54.9377
10:35:44.375,-41.7189,-61.0627
10:35:44.385,-44.8127,-65.4378
10:35:44.395,-46.3127,-72.0628
10:35:44.405,-49.1564,-78.2503
10:35:44.417,-50.8439,-83.3753
10:35:44.425,-53.219,-89.4378
10:35:44.435,-55.5315,-94.4379
10:35:44.445,-57.8752,-99.4379
10:35:44.457,-59.1877,-104.1879
10:35:44.465,-60.719,-108.1254
10:35:44.475,-61.7815,-111.7504
10:35:44.485,-62.0315,-113.5629
10:35:44.495,-60.594,-115.0004
10:35:44.505,-57.344,-111.6254
10:35:44.515,-52.4377,-103.8754
10:35:44.525,-44.1252,-94.8754
10:35:44.536,-35.2814,-80.4378
10:35:44.545,-24.9063,-64.8752
10:35:44.555,-13.2813,-46.7502
10:35:44.565,-4.5938,-29.1876
10:35:44.575,5.25,-14.0001
10:35:44.585,13.4063,0.9375
10:35:44.595,19.9376,12
10:35:44.606,25.9376,22.8126
10:35:44.615,29.4064,32.3126
10:35:44.625,33.9376,38.1251
10:35:44.635,37.0001,44.4377
10:35:44.661,39.0002,49.6877
10:35:44.665,40.4377,53.0627
10:35:44.666,40.1564,55.3752
10:35:44.675,41.0627,56.9377
10:35:44.685,39.0939,58.0002
10:35:44.695,37.8751,56.7502
10:35:44.705,36.5939,56.5627
10:35:44.715,33.5939,55.6252
10:35:44.725,31.4376,52.1252
10:35:44.738,28.3126,48.3127
10:35:44.746,24.4376,43.6877
10:35:44.755,20.5938,38.5626
10:35:44.767,16.7501,32.6876
10:35:44.775,13.1876,27.3751
10:35:44.785,9.7188,22.2501
10:35:44.795,6.5,18.4376
10:35:44.805,4.6875,13.8751
10:35:44.829,2.5625,10.5625
10:35:44.832,1.0938,7.8125
10:35:44.836,-0.4063,4.75
10:35:44.868,-1.7813,2.375
10:35:44.870,-3,0.0625
10:35:44.873,-3.9688,-1.3125
10:35:44.875,-6.0625,-4.6875
10:35:44.911,-11.125,-7.125
10:35:44.971,-16.0313,-11.375
10:35:44.973,-20.2188,-16.0001
10:35:44.999,-24.2813,-19.1876
10:35:45.002,-27.6876,-23.7501
10:35:45.002,-31.5001,-27.0626
10:35:45.016,-35.6876,-31.3751
10:35:45.017,-40.5939,-35.1251
10:35:45.033,-44.2189,-39.3752
10:35:45.033,-48.4689,-42.5627
10:35:45.033,-52.1252,-47.9377
10:35:45.034,-55.4377,-52.2502
10:35:45.036,-58.6252,-56.5627
10:35:45.045,-61.5002,-60.5002
10:35:45.055,-63.2502,-63.9377
10:35:45.067,-64.5002,-67.6878
10:35:45.076,-65.219,-70.3128
10:35:45.085,-67.5628,-76.2503
10:35:45.095,-69.1253,-78.6878
10:35:45.105,-69.3753,-83.0003
10:35:45.121,-69.6878,-86.3753
10:35:45.125,-70.2503,-89.1253
10:35:45.136,-70.8128,-93.6254
10:35:45.145,-69.6565,-96.2504
10:35:45.155,-68.0628,-98.6879
10:35:45.167,-66.3128,-99.7504
10:35:45.176,-65.219,-100.8754
10:35:45.185,-61.0315,-105.1879
10:35:45.195,-56.9377,-99.6879
10:35:45.205,-50.5939,-91.1879
10:35:45.217,-42.1564,-78.8128
10:35:45.225,-33.4689,-62.0627
10:35:45.235,-22.8751,-44.2502
10:35:45.245,-14.4376,-28.0626
10:35:45.255,-5.3125,-13.5626
10:35:45.266,2.1563,0.5
10:35:45.275,10.125,11.6875
10:35:45.285,18.0001,22.1876
10:35:45.295,24.1876,31.3126
10:35:45.306,30.1251,38.8126
10:35:45.315,35.1251,44.9377
10:35:45.325,39.5002,50.3127
10:35:45.335,41.6877,54.3127
10:35:45.345,44.4377,57.1877
10:35:45.355,46.1877,59.5002
10:35:45.365,46.9377,59.8127
10:35:45.376,47.4064,61.6252
10:35:45.385,46.5002,59.6252
10:35:45.395,45.5939,58.9377
10:35:45.407,42.2189,55.5002
10:35:45.416,39.0939,50.0627
10:35:45.425,34.7814,45.3127
10:35:45.435,30.4376,38.3126
10:35:45.445,24.9063,31.1251
10:35:45.458,19.5001,24.1876
10:35:45.467,13.9063,17.3751
10:35:45.476,9.125,10.9375
10:35:45.485,5.0938,4.5625
10:35:45.495,1.5313,-0.8125
10:35:45.505,-1.5,-4.6875
10:35:45.515,-4.8125,-8.375
10:35:45.525,-7.1563,-12.5
10:35:45.535,-9.4375,-16.0001
10:35:45.546,-12.375,-20.0001
10:35:45.555,-14.2813,-23.3751
10:35:45.592,-17.0938,-27.2501
10:35:45.593,-18.6563,-30.5626
10:35:45.595,-20.4376,-33.7501
10:35:45.629,-22.2813,-36.7501
10:35:45.631,-23.0313,-39.5627
10:35:45.632,-25.6876,-42.7502
10:35:45.639,-26.8126,-46.1877
10:35:45.639,-28.3439,-49.7502
10:35:45.672,-30.3126,-53.1877
10:35:45.674,-31.8126,-57.3127
10:35:45.678,-36.8751,-60.8127
10:35:45.679,-41.4377,-65.5628
10:35:45.685,-44.4377,-70.0628
10:35:45.715,-47.4377,-72.4378
10:35:45.719,-50.0002,-76.8128
10:35:45.721,-51.8127,-79.0628
10:35:45.727,-55.1565,-80.5003
10:35:45.745,-57.7815,-84.6878
10:35:45.747,-60.9377,-86.5003
10:35:45.755,-63.2502,-89.7503
10:35:45.765,-65.9065,-92.2504
10:35:45.776,-69.594,-94.9379
10:35:45.785,-70.5628,-97.1879
10:35:45.795,-72.969,-99.1254
10:35:45.805,-73.8753,-101.8129
10:35:45.815,-76.6565,-103.4379
10:35:45.825,-78.094,-106.6879
10:35:45.836,-78.3128,-108.4379
10:35:45.845,-78.219,-109.4379
10:35:45.855,-76.5628,-108.1879
10:35:45.870,-72.3128,-103.0004
10:35:45.875,-65.5628,-95.1879
10:35:45.885,-56.1252,-83.0003
10:35:45.896,-45.4377,-66.8753
10:35:45.906,-31.9689,-47.0627
10:35:45.916,-19.3126,-27.0001
10:35:45.943,-7.4063,-10.25
10:35:45.945,4.7813,7.4375
10:35:45.948,13.5938,22.5626
10:35:45.955,20.6563,32.1876
10:35:45.965,25.9063,42.3752
10:35:45.976,29.8126,50.1252
10:35:45.985,34.8126,56.1877
10:35:45.995,37.3751,62.6877
10:35:46.005,40.4064,65.6252
10:35:46.015,42.5627,69.6878
10:35:46.026,43.3439,72.7503
10:35:46.036,44.8127,73.3128
10:35:46.045,45.8439,74.3753
10:35:46.055,46.5627,75.3128
10:35:46.065,46.6252,73.4378
10:35:46.076,45.6564,73.2503
10:35:46.086,44.4064,69.1878
10:35:46.095,43.1564,65.1252
10:35:46.105,41.0939,60.0002
10:35:46.115,38.4689,54.5627
10:35:46.126,35.5001,48.8127
10:35:46.135,32.0001,43.0002
10:35:46.145,29.5626,37.6251
10:35:46.155,25.5938,31.8126
10:35:46.165,22.4688,26.1876
10:35:46.174,19.2188,21.8126
10:35:46.185,15.9376,15.7501
10:35:46.196,11.2188,10.625
10:35:46.205,8.2813,4.5625
10:35:46.217,3,-0.5625
10:35:46.229,-1.0625,-6
10:35:46.234,-5,-12.875
10:35:46.305,-10.1875,-17.9376
10:35:46.305,-13.5313,-24.8751
10:35:46.338,-17.5626,-30.3751
10:35:46.342,-20.7501,-35.7501
10:35:46.343,-23.9376,-42.5627
10:35:46.441,-27.3751,-46.8127
10:35:46.441,-29.8751,-52.6252
10:35:46.441,-32.1564,-57.5002
10:35:46.457,-35.1876,-61.8752
10:35:46.474,-37.0939,-65.6253
10:35:46.475,-38.5314,-68.9378
10:35:46.475,-39.7189,-71.5628
10:35:46.475,-40.2189,-73.6878
10:35:46.476,-42.5314,-76.0628
10:35:46.476,-42.6252,-79.4378
10:35:46.485,-43.3752,-80.0628
10:35:46.495,-45.0314,-83.6878
10:35:46.504,-47.8752,-86.1253
10:35:46.516,-50.7814,-88.4378
10:35:46.527,-52.5315,-91.1879
10:35:46.534,-54.7502,-91.8754
10:35:46.545,-57.1877,-94.8754
10:35:46.555,-59.2815,-97.0629
10:35:46.565,-61.5315,-98.6254
10:35:46.575,-76.4065,-110.7504
10:35:46.585,-70.719,-101.5004
10:35:46.594,-62.6252,-88.5628
10:35:46.604,-53.4377,-73.1253
10:35:46.615,-43.7814,-56.1252
10:35:46.625,-6.7188,10.0625
10:35:46.639,-0.2813,23.9376
10:35:46.650,6.5625,32.6251
10:35:46.659,12.7188,40.6252
10:35:46.670,19.1563,49.2502
10:35:46.679,24.2188,56.8127
10:35:46.690,29.8751,60.9377
10:35:46.699,35.1251,66.5003
10:35:46.710,38.0626,70.3753
10:35:46.719,40.6877,72.0003
10:35:46.730,41.7502,73.1878
10:35:46.740,41.2502,74.2503
10:35:46.750,40.0002,72.6253
10:35:46.759,38.2189,69.3753
10:35:46.770,35.9689,65.8752
10:35:46.779,33.4064,62.2502
10:35:46.790,31.0939,56.5002
10:35:46.799,28.1876,50.9377
10:35:46.810,24.6876,44.0627
10:35:46.819,22.3438,38.7501
10:35:46.830,19.7813,34.1251
10:35:46.839,18.7501,29.7501
10:35:46.850,15.8751,25.0626
10:35:46.859,15.0313,21.5626
10:35:46.870,13.2813,17.6876
10:35:46.879,12.5313,13.5001
10:35:46.888,10.7188,9.5
10:35:46.899,9.4375,4.125
10:35:46.909,6.4688,-0.875
10:35:46.920,4.1875,-5.9375
10:35:46.929,1.1875,-11
10:35:46.939,-1.5938,-17.5626
10:35:46.949,-6.3125,-24.1251
10:35:46.960,-9.7188,-30.8751
10:35:46.977,-15.3438,-38.1876
10:35:46.980,-19.4376,-45.7502
10:35:47.012,-25.1251,-53.2502
10:35:47.014,-29.1876,-60.4377
10:35:47.016,-34.3751,-66.7503
10:35:47.019,-37.7501,-73.1878
10:35:47.048,-42.0314,-78.3753
10:35:47.050,-44.6252,-83.5003
10:35:47.053,-47.6564,-88.5003
10:35:47.092,-50.1564,-93.2504
10:35:47.093,-52.1252,-96.0004
10:35:47.095,-54.4065,-100.3754
10:35:47.103,-55.969,-102.8129
10:35:47.103,-58.0315,-104.9379
10:35:47.110,-59.0315,-107.4379
10:35:47.140,-60.6565,-108.5004
10:35:47.141,-60.8127,-109.5629
10:35:47.145,-60.844,-110.0004
10:35:47.150,-61.0627,-110.8754
10:35:47.159,-60.5315,-111.8129
10:35:47.169,-60.3127,-111.5004
10:35:47.185,-59.5315,-111.5004
10:35:47.190,-58.9377,-110.9379
10:35:47.222,-61.0315,-110.3754
10:35:47.225,-60.3752,-108.9379
10:35:47.227,-58.6877,-103.3129
10:35:47.231,-54.6565,-95.1879
10:35:47.240,-47.4377,-83.1878
10:35:47.251,-40.0314,-67.4378
10:35:47.259,-32.0626,-50.9377
10:35:47.268,-24.2188,-34.3126
10:35:47.280,-16.0001,-17.1251
10:35:47.289,-8.1563,-0.125
10:35:47.299,-1.375,13.2501
10:35:47.310,5.0625,26.6876
10:35:47.319,9.625,37.5626
10:35:47.329,15.6251,46.3127
10:35:47.339,18.3126,54.5002
10:35:47.349,21.9376,59.4377
10:35:47.359,25.3126,63.3127
10:35:47.370,27.0001,67.6878
10:35:47.381,29.9064,70.5628
10:35:47.389,30.5314,73.0003
10:35:47.400,32.0939,73.6878
10:35:47.409,32.5626,74.2503
10:35:47.419,32.2501,72.5003
10:35:47.429,32.4689,70.6253
10:35:47.439,30.6876,69.1253
10:35:47.450,30.3439,63.8127
10:35:47.460,29.5314,61.0627
10:35:47.469,28.9064,56.1877
10:35:47.479,27.0001,52.9377
10:35:47.489,25.4376,48.1252
10:35:47.499,23.3438,44.3752
10:35:47.510,21.8126,41.7502
10:35:47.520,19.4063,37.2501
10:35:47.529,17.2501,34.8751
10:35:47.539,15.5626,31.5001
10:35:47.550,14.0001,28.5001
10:35:47.561,12.8438,24.5626
10:35:47.569,10.4688,20.5001
10:35:47.579,9.3125,18.1876
10:35:47.588,8.0625,13.5001
10:35:47.599,5.4063,9.125
10:35:47.608,2.0938,4.75
10:35:47.619,-0.6875,-1.375
10:35:47.629,-4.0313,-7.4375
10:35:47.640,-6.0938,-12.125
10:35:47.657,-8.3438,-17.3751
10:35:47.663,-10.0625,-23.3751
10:35:47.672,-12.7813,-29.1251
10:35:47.679,-14.4376,-34.5626
10:35:47.694,-16.3751,-41.4377
10:35:47.703,-19.6876,-47.3752
10:35:47.709,-22.3126,-52.8127
10:35:47.720,-25.1563,-59.5627
10:35:47.738,-28.6251,-65.1252
10:35:47.739,-30.7501,-69.5628
10:35:47.755,-33.2501,-74.8753
10:35:47.771,-36.5314,-80.0003
10:35:47.772,-39.5939,-83.1878
10:35:47.788,-42.1877,-88.2503
10:35:47.796,-44.5002,-92.9379
10:35:47.800,-47.3127,-96.1879
10:35:47.832,-50.3752,-100.2504
10:35:47.837,-52.7502,-103.0629
10:35:47.837,-55.1565,-106.5004
10:35:47.866,-56.719,-109.6254
10:35:47.868,-59.094,-111.3754
10:35:47.869,-59.0002,-113.3129
10:35:47.876,-58.969,-111.6879
10:35:47.880,-56.8752,-109.3129
10:35:47.911,-51.8439,-100.7504
10:35:47.914,-44.8439,-89.5003
10:35:47.917,-35.9064,-73.3128
10:35:47.921,-26.2188,-56.6252
10:35:47.949,-16.5626,-39.1876
10:35:47.953,-5.75,-21.3751
10:35:47.954,2.5,-4
10:35:47.960,11.6875,12.5625
10:35:47.979,19.6251,27.0001
10:35:47.984,27.5939,40.3752
10:35:47.989,33.5939,52.3752
10:35:48.000,37.6251,60.5627
10:35:48.009,38.9064,66.8753
10:35:48.019,40.5314,71.6253
10:35:48.029,42.0939,76.6253
10:35:48.039,43.3127,79.3753
10:35:48.051,44.5002,81.8128
10:35:48.060,43.5314,84.1253
10:35:48.069,43.1564,83.3128
10:35:48.079,40.7189,83.5003
10:35:48.090,38.2189,80.2503
10:35:48.099,35.1564,76.3753
10:35:48.109,30.9064,72.1878
10:35:48.122,28.0626,66.9378
10:35:48.130,23.6251,62.8127
10:35:48.139,20.1563,57.6252
10:35:48.150,17.5938,53.4377
10:35:48.161,15.1251,49.1877
10:35:48.174,13.2188,45.7502
10:35:48.184,11.0938,41.6877
10:35:48.195,9.9688,38.8126
10:35:48.204,7.625,35.6876
10:35:48.214,6.7188,32.6876
10:35:48.224,5.9375,30.5626
10:35:48.234,4.4063,27.8126
10:35:48.244,2.8438,25.4376
10:35:48.253,2.8438,21.7501
10:35:48.264,0.9688,19.2501
10:35:48.275,0.6563,16.1251
10:35:48.286,-0.4688,12
10:35:48.294,-0.2188,9.4375
10:35:48.304,-0.4688,6
10:35:48.314,-1,2.75
10:35:48.324,-1.8438,-1
10:35:48.334,-4.3125,-5.5625
10:35:48.345,-5.9688,-9.75
10:35:48.354,-8.2813,-15.4376
10:35:48.366,-11.0938,-20.4376
10:35:48.374,-14.2188,-24.5626
10:35:48.384,-16.7188,-30.5626
10:35:48.394,-19.3751,-36.2501
10:35:48.403,-22.5001,-41.9377
10:35:48.414,-25.6563,-46.6877
10:35:48.424,-27.8126,-51.8127
10:35:48.434,-30.7501,-57.7502
10:35:48.444,-32.9689,-60.8127
10:35:48.454,-34.1876,-65.0002
10:35:48.464,-36.4064,-68.6878
10:35:48.474,-37.8126,-71.8128
10:35:48.502,-39.5314,-75.6253
10:35:48.504,-41.2502,-76.7503
10:35:48.507,-42.4689,-80.5628
10:35:48.535,-45.4689,-81.3753
10:35:48.536,-45.6564,-82.5628
10:35:48.540,-45.2189,-80.1878
10:35:48.544,-41.9377,-74.8753
10:35:48.575,-36.7814,-65.2503
10:35:48.577,-29.4689,-53.1877
10:35:48.581,-21.3751,-37.1876
10:35:48.585,-13.2188,-18.3751
10:35:48.616,-5.25,-1.6875
10:35:48.617,1.2188,13.3751
10:35:48.620,5.125,26.3126
10:35:48.625,9.5,36.8126
10:35:48.653,12.2813,45.8127
10:35:48.656,14.3126,51.8752
10:35:48.658,17.0938,58.5002
10:35:48.664,17.7813,62.5002
10:35:48.679,19.7188,66.3128
10:35:48.684,21.9376,70.0628
10:35:48.697,22.0313,72.9378
10:35:48.704,23.9376,75.0628
10:35:48.714,25.0313,78.4378
10:35:48.729,27.4064,79.4378
10:35:48.734,29.4376,82.1253
10:35:48.744,30.0314,81.5628
10:35:48.755,29.8751,80.6253
10:35:48.767,28.2814,78.5628
10:35:48.774,27.2814,74.8128
10:35:48.784,25.3126,71.5003
10:35:48.794,25.2501,69.4378
10:35:48.804,24.6876,66.5628
10:35:48.814,25.3126,65.7503
10:35:48.824,25.5001,63.1877
10:35:48.834,25.6876,61.5627
10:35:48.844,24.8126,59.5002
10:35:48.854,24.5313,58.5002
10:35:48.864,23.4376,55.9377
10:35:48.874,27.2814,57.5627
10:35:48.885,31.8126,57.6252
10:35:48.895,36.1876,59.4377
10:35:48.904,38.7814,57.8127
10:35:48.914,40.7502,56.7502
10:35:48.924,41.0939,54.2502
10:35:48.934,41.0314,51.6877
10:35:48.944,40.2814,47.6252
10:35:48.954,38.9064,43.5627
10:35:48.965,36.8126,39.8752
10:35:48.980,35.7814,36.1251
10:35:48.990,34.4689,31.5626
10:35:48.993,33.1564,28.0001
10:35:49.012,30.8751,23.3751
10:35:49.017,25.8126,16.6251
10:35:49.026,24.0313,11.5625
10:35:49.034,23.3751,7.5625
10:35:49.054,23.3438,4.125
10:35:49.056,23.7501,1.875
10:35:49.067,25.3751,-1.4375
10:35:49.074,26.9064,-3.3125
10:35:49.089,26.5626,-7.25
10:35:49.105,26.9064,-10.625
10:35:49.106,26.5626,-14.6251
10:35:49.116,24.5313,-19.3751
10:35:49.124,23.3751,-24.5001
10:35:49.134,20.0001,-29.3751
10:35:49.144,17.6251,-34.6251
10:35:49.156,14.6563,-40.3127
10:35:49.166,11.5625,-44.6877
10:35:49.174,9.1563,-47.8127
10:35:49.184,7.25,-52.0627
10:35:49.194,7.0313,-52.8127
10:35:49.204,8.75,-50.2502
10:35:49.214,12.4688,-44.4377
10:35:49.224,18.3438,-36.1251
10:35:49.235,24.8438,-24.8751
10:35:49.246,33.7189,-9.0625
10:35:49.254,42.9377,6.875
10:35:49.278,50.9689,20.3126
10:35:49.280,57.6252,34.6251
10:35:49.284,63.7502,44.6877
10:35:49.320,72.0315,57.8752
10:35:49.324,79.3128,65.7503
10:35:49.324,79.6253,70.7503
10:35:49.325,79.3128,74.9378
10:35:49.353,80.4378,78.3753
10:35:49.355,80.7816,80.2503
10:35:49.357,80.9691,82.8128
10:35:49.382,81.7191,84.0628
10:35:49.384,80.4066,84.9378
10:35:49.386,80.3753,84.8128
10:35:49.394,79.1566,83.7503
10:35:49.430,78.0003,81.8128
10:35:49.433,74.9378,78.7503
10:35:49.434,72.594,74.1878
10:35:49.436,68.469,70.0003
10:35:49.444,66.0628,64.0627
10:35:49.455,61.8127,59.0627
10:35:49.464,58.8127,53.9377
10:35:49.479,55.0315,49.5002
10:35:49.484,52.9377,45.6252
10:35:49.494,49.9064,40.9377
10:35:49.503,47.2502,37.3126
10:35:49.514,44.3127,34.3751
10:35:49.523,42.5314,30.5001
10:35:49.534,39.5002,27.1876
10:35:49.545,36.6251,24.5001
10:35:49.554,33.5939,19.7501
10:35:49.564,29.8439,15.9376
10:35:49.572,27.5626,11.5
10:35:49.584,23.7188,7.5
10:35:49.595,19.3751,3.125
10:35:49.604,16.4063,-2.25
10:35:49.614,14.2188,-6.25
10:35:49.624,12.3125,-10.625
10:35:49.634,8.5625,-14.5626
10:35:49.645,6.3438,-19.3751
10:35:49.654,2.0938,-23.4376
10:35:49.663,0.1875,-28.7501
10:35:49.674,-2.5938,-32.6251
10:35:49.684,-5.2813,-37.3126
10:35:49.694,-7.8438,-42.6877
10:35:49.704,-11.0625,-47.1252
10:35:49.712,-13.4688,-52.3752
10:35:49.724,-17.2188,-57.1877
10:35:49.734,-19.4063,-61.2502
10:35:49.744,-22.1251,-65.0627
10:35:49.753,-25.5001,-69.1253
10:35:49.782,-27.5001,-72.5003
10:35:49.784,-29.7501,-75.0003
10:35:49.788,-31.5939,-78.0003
10:35:49.794,-33.4064,-80.2503
10:35:49.804,-34.9376,-83.5003
10:35:49.817,-36.5314,-85.0628
10:35:49.824,-36.5626,-86.8128
10:35:49.834,-37.7814,-87.3753
10:35:49.843,-37.4376,-88.0628
10:35:49.858,-37.2814,-85.7503
10:35:49.865,-33.9376,-80.5628
10:35:49.873,-28.5626,-71.5628
10:35:49.884,-21.0313,-59.6252
10:35:49.906,-12.6875,-44.1877
10:35:49.909,-3.9688,-27.5001
10:35:49.941,5.3125,-10.4375
10:35:49.943,12.2188,6.375
10:35:49.946,19.4063,18.6876
10:35:49.948,25.8126,31.0626
10:35:49.954,31.3126,43.0002
10:35:49.980,35.5939,50.1877
10:35:49.983,38.9689,57.1252
10:35:49.985,41.2502,63.8752
10:35:50.018,43.3127,67.3128
10:35:50.021,44.9377,70.0003
10:35:50.022,46.0314,72.7503
10:35:50.028,46.4377,73.1878
10:35:50.041,46.6252,74.6253
10:35:50.046,44.9377,75.0628
10:35:50.071,44.3439,72.8128
10:35:50.074,43.4064,71.2503
10:35:50.076,40.4689,68.2503
10:35:50.083,38.0626,63.3752
10:35:50.094,35.2501,59.0627
10:35:50.105,31.3751,54.0627
10:35:50.113,29.5314,49.0627
10:35:50.124,26.3751,45.2502
10:35:50.133,23.9376,40.6877
10:35:50.143,22.2501,36.8751
10:35:50.153,20.0938,34.4376
10:35:50.164,18.6876,30.3751
10:35:50.172,17.2813,28.0626
10:35:50.183,15.5626,25.0001
10:35:50.193,13.0313,21.9376
10:35:50.203,10.9063,18.4376
10:35:50.214,9.1563,15.1876
10:35:50.224,7.25,11.6875
10:35:50.236,4.4375,8.375
10:35:50.243,3.0938,4.75
10:35:50.254,-0.0313,0.625
10:35:50.263,-1.9063,-2.75
10:35:50.274,-4.0938,-7.875
10:35:50.284,-6.7813,-11.4375
10:35:50.303,-9.125,-15.3126
10:35:50.310,-11.5313,-20.6876
10:35:50.324,-13.3126,-25.0626
10:35:50.327,-15.4376,-29.3751
10:35:50.333,-18.0626,-33.3751
10:35:50.344,-20.2501,-38.4376
10:35:50.353,-23.0626,-43.1877
10:35:50.372,-25.2188,-47.9377
10:35:50.375,-27.9376,-52.6877
10:35:50.390,-29.4376,-57.0627
10:35:50.394,-32.5001,-60.5627
10:35:50.403,-34.4689,-65.3752
10:35:50.414,-36.5626,-68.3753
10:35:50.424,-37.0939,-71.9378
10:35:50.433,-39.5627,-74.8128
10:35:50.442,-39.9689,-77.0628
10:35:50.453,-41.6877,-79.9378
10:35:50.465,-42.6877,-82.5628
10:35:50.473,-44.1252,-84.2503
10:35:50.483,-44.4689,-86.2503
10:35:50.492,-43.7814,-86.3128
10:35:50.503,-44.0939,-83.6878
10:35:50.515,-40.3752,-79.6878
10:35:50.523,-35.1564,-71.5003
10:35:50.533,-27.9376,-59.1877
10:35:50.543,-19.1251,-44.3752
10:35:50.555,-9.5938,-26.2501
10:35:50.562,-0.5,-9.75
10:35:50.572,9.2188,6.125
10:35:50.583,16.1876,21.1251
10:35:50.593,23.5938,33.3126
10:35:50.605,29.6876,43.8752
10:35:50.617,34.2501,52.7502
10:35:50.623,39.3127,59.4377
10:35:50.632,42.1564,65.8753
10:35:50.643,44.7189,69.2503
10:35:50.654,46.9689,73.1253
10:35:50.662,47.4377,76.9378
10:35:50.694,48.9064,77.6253
10:35:50.696,48.5939,79.1253
10:35:50.700,48.7502,78.3753
10:35:50.704,48.7189,77.9378
10:35:50.731,47.1252,76.7503
10:35:50.734,44.8752,73.7503
10:35:50.736,42.6877,68.6878
10:35:50.744,39.6252,65.2503
10:35:50.771,36.6564,60.8752
10:35:50.774,34.0626,54.9377
10:35:50.776,31.1876,50.2502
10:35:50.784,28.9689,46.6252
10:35:50.810,27.4064,42.7502
10:35:50.812,24.7188,38.8126
10:35:50.815,22.4063,37.3126
10:35:50.848,21.2501,33.6876
10:35:50.849,19.6563,30.0626
10:35:50.852,18.6563,27.6876
10:35:50.859,16.1563,24.5626
10:35:50.863,14.7813,20.8126
10:35:50.873,12.4375,17.8126
10:35:50.882,10.375,14.7501
10:35:50.894,9,10.75
10:35:50.904,6.0625,6.8125
10:35:50.912,4.0625,3.0625
10:35:50.922,1.75,-1.625
10:35:50.933,-1.2188,-6.3125
10:35:50.944,-3.4375,-10.5625
10:35:50.953,-5.8125,-14.2501
10:35:50.962,-8.3438,-19.0001
10:35:50.973,-11.2813,-23.1251
10:35:50.983,-13.4376,-28.3126
10:35:50.995,-16.3751,-32.6251
10:35:51.002,-19.0626,-36.5626
10:35:51.012,-21.4688,-41.4377
10:35:51.023,-23.8751,-46.3752
10:35:51.034,-25.6563,-51.5627
10:35:51.064,-28.6564,-55.2502
10:35:51.066,-30.7189,-60.6877
10:35:51.069,-33.6564,-63.2502
10:35:51.074,-34.5939,-67.6878
10:35:51.085,-36.9689,-70.8128
10:35:51.093,-37.9689,-74.0003
10:35:51.103,-39.3752,-76.6253
10:35:51.113,-41.3127,-79.0003
10:35:51.124,-42.3439,-82.1253
10:35:51.135,-43.3752,-83.7503
10:35:51.142,-43.6564,-84.5003
10:35:51.153,-43.0314,-83.6253
10:35:51.162,-39.0001,-79.1253
10:35:51.174,-34.2814,-70.7503
10:35:51.183,-27.3439,-59.5627
10:35:51.193,-18.4688,-44.3127
10:35:51.202,-9.625,-27.2501
10:35:51.213,0.4063,-9.125
10:35:51.223,9.1563,6.3125
10:35:51.233,18.0313,20.8751
10:35:51.243,24.5001,35.1251
10:35:51.253,30.7814,44.5627
10:35:51.265,35.0939,54.0002
10:35:51.273,39.4689,60.7502
10:35:51.282,42.8439,66.5628
10:35:51.293,45.3439,70.8128
10:35:51.303,47.4377,74.5003
10:35:51.314,49.3439,78.0628
10:35:51.323,50.1877,79.1878
10:35:51.333,50.5002,81.0003
10:35:51.342,50.6877,79.8128
10:35:51.358,50.8752,80.5003
10:35:51.363,48.8127,79.1878
10:35:51.373,47.3127,76.0628
10:35:51.384,45.3439,72.7503
10:35:51.393,41.9689,68.3128
10:35:51.402,39.9377,63.6252
10:35:51.413,36.9689,58.5002
10:35:51.423,34.3126,53.6877
10:35:51.433,31.3439,50.0627
10:35:51.473,29.9376,45.8127
10:35:51.474,27.1564,42.5627
10:35:51.479,26.0626,39.4377
10:35:51.481,23.7501,36.7501
10:35:51.483,22.4063,34.3751
10:35:51.512,20.7188,30.4376
10:35:51.514,18.8438,27.5626
10:35:51.518,17.2501,23.8126
10:35:51.523,14.5001,21.0001
10:35:51.554,12.9063,16.6251
10:35:51.556,10.9375,13.1251
10:35:51.560,8.9375,9.5625
10:35:51.563,6.3125,5.5625
10:35:51.629,4.4375,1.75
10:35:51.631,1.75,-1.5625
10:35:51.631,-0.0938,-6.75
10:35:51.636,-3,-11.1875
10:35:51.639,-6.0938,-15.4376
10:35:51.639,-7.6563,-19.2501
10:35:51.639,-9.4063,-24.1876
10:35:51.648,-12.125,-28.5001
10:35:51.669,-14.8438,-31.3126
10:35:51.671,-16.9376,-36.9376
10:35:51.686,-19.0938,-41.6877
10:35:51.690,-21.7813,-45.7502
10:35:51.700,-23.5313,-50.2502
10:35:51.707,-25.5001,-53.9377
10:35:51.718,-26.7189,-58.8752
10:35:51.730,-28.7814,-62.2502
10:35:51.742,-30.5939,-64.3752
10:35:51.748,-32.1251,-68.0628
10:35:51.758,-33.2814,-71.5003
10:35:51.768,-34.7501,-74.0003
10:35:51.777,-36.1876,-77.0628
10:35:51.788,-37.6251,-78.2503
10:35:51.798,-37.9689,-80.1878
10:35:51.808,-37.2814,-80.0003
10:35:51.820,-35.0939,-75.3753
10:35:51.827,-30.1251,-67.5628
10:35:51.838,-22.6563,-54.6877
10:35:51.847,-14.0938,-39.8752
10:35:51.860,-4.0313,-21.7501
10:35:51.868,5.0313,-4
10:35:51.878,13.7813,11.5
10:35:51.888,21.1563,25.8126
10:35:51.900,27.9689,38.3126
10:35:51.908,34.1564,48.1252
10:35:51.918,38.0626,57.1877
10:35:51.927,42.2189,62.7502
10:35:51.940,45.7502,69.3128
10:35:51.948,47.6564,74.0628
10:35:51.958,50.3752,77.1253
10:35:51.967,50.7189,80.6878
10:35:51.978,52.0314,81.1253
10:35:51.988,52.1877,82.6253
10:35:51.998,52.3439,83.0628
10:35:52.007,51.5939,81.6878
10:35:52.018,50.5314,80.6253
10:35:52.029,48.3127,78.0628
10:35:52.038,46.1564,74.6878
10:35:52.048,43.1877,69.5628
10:35:52.058,41.0939,65.7503
10:35:52.070,37.8439,60.4377
10:35:52.078,35.2189,57.0627
10:35:52.088,33.3751,52.3752
10:35:52.097,30.7501,49.0627
10:35:52.110,29.6564,45.9377
10:35:52.118,27.2501,43.6252
10:35:52.128,25.9063,41.0627
10:35:52.137,24.2188,38.0626
10:35:52.151,22.6563,35.6251
10:35:52.184,21.5938,32.3751
10:35:52.187,18.9688,29.6251
10:35:52.189,17.6563,25.8126
10:35:52.194,14.8126,22.5001
10:35:52.221,12.9688,19.0001
10:35:52.224,10.9688,14.2501
10:35:52.226,8.8438,10.5625
10:35:52.232,6.4688,6.4375
10:35:52.269,3.2813,2.75
10:35:52.272,1.8125,-0.1875
10:35:52.275,-1.25,-5.375
10:35:52.308,-3.9688,-9
10:35:52.308,-6.7188,-13.5626
10:35:52.309,-9.0938,-18.4376
10:35:52.315,-11.6875,-22.3126
10:35:52.315,-13.5313,-26.8126
10:35:52.343,-16.5938,-30.7501
10:35:52.345,-18.5001,-35.8126
10:35:52.348,-23.4063,-43.1252
10:35:52.353,-25.9688,-47.6252
10:35:52.363,-27.5626,-52.2502
10:35:52.373,-29.5001,-54.8752
10:35:52.383,-31.0939,-58.6252
10:35:52.395,-32.9376,-62.8127
10:35:52.403,-34.0939,-67.3753
10:35:52.412,-35.6876,-70.3128
10:35:52.423,-37.7814,-72.5003
10:35:52.434,-38.5001,-75.5003
10:35:52.443,-39.0626,-76.8753
10:35:52.453,-38.2501,-76.4378
10:35:52.463,-36.6251,-73.5003
10:35:52.475,-32.0314,-66.4378
10:35:52.483,-25.8126,-55.5627
10:35:52.493,-16.4376,-38.8126
10:35:52.503,-6.6875,-21.4376
10:35:52.515,3.5313,-3
10:35:52.522,12.2188,11.875
10:35:52.532,20.7501,27.6251
10:35:52.543,27.5939,39.6252
10:35:52.553,33.5314,49.8752
10:35:52.563,38.3439,59.3127
10:35:52.573,42.5627,64.8752
10:35:52.584,45.6564,72.3753
10:35:52.593,48.5627,76.5003
10:35:52.603,50.9689,80.8128
10:35:52.614,52.2189,85.2503
10:35:52.624,53.3752,85.3753
10:35:52.633,53.2502,88.6878
10:35:52.643,54.1565,88.5628
10:35:52.652,54.469,88.6878
10:35:52.663,52.6564,87.6878
10:35:52.673,51.6252,85.7503
10:35:52.682,49.2502,83.0003
10:35:52.693,47.5627,79.1878
10:35:52.702,44.2502,75.0628
10:35:52.713,41.8439,69.8128
10:35:52.721,38.5626,65.8128
10:35:52.736,36.3439,61.3752
10:35:52.743,33.2189,57.3127
10:35:52.752,32.1251,53.8127
10:35:52.762,29.2189,50.4377
10:35:52.775,27.9376,47.0002
10:35:52.781,25.1563,44.1877
10:35:52.792,23.9688,40.7502
10:35:52.803,21.3438,37.3751
10:35:52.811,20.3126,34.8126
10:35:52.823,17.3438,31.1876
10:35:52.833,15.4063,27.6876
10:35:52.843,12.3438,23.6876
10:35:52.856,10.25,20.0626
10:35:52.862,8.375,16.1876
10:35:52.941,6,12
10:35:52.941,2.9688,8.125
10:35:52.945,0.9688,3.75
10:35:52.945,-2.0625,-0.5625
10:35:52.952,-4.0938,-4.4375
10:35:52.952,-6.8125,-8.875
10:35:52.952,-9.5313,-13.3126
10:35:52.989,-11.9063,-17.2501
10:35:52.992,-14.0001,-22.0001
10:35:52.994,-16.7501,-25.8126
10:35:52.994,-18.6251,-30.0001
10:35:52.998,-22.1876,-34.5001
10:35:53.032,-23.9688,-39.5002
10:35:53.034,-27.2814,-43.3127
10:35:53.036,-28.4689,-47.7502
10:35:53.040,-31.5626,-51.9377
10:35:53.050,-33.2501,-56.4377
10:35:53.059,-35.8751,-60.5627
10:35:53.066,-37.9689,-63.6252
10:35:53.078,-39.6564,-69.3753
10:35:53.088,-41.4689,-71.8128
10:35:53.097,-42.8752,-74.7503
10:35:53.108,-43.3752,-77.8753
10:35:53.118,-39.2501,-71.6878
10:35:53.129,-32.6564,-62.1877
10:35:53.137,-24.5626,-46.6252
10:35:53.147,-15.5626,-29.0626
10:35:53.158,-5.9375,-13.1875
10:35:53.168,3.6875,4.3125
10:35:53.176,12.3438,19.7501
10:35:53.188,19.1251,31.9376
10:35:53.201,25.4063,43.6252
10:35:53.208,30.4064,52.1877
10:35:53.218,35.5001,60.5002
10:35:53.233,38.7814,66.7503
10:35:53.237,42.4064,72.5003
10:35:53.246,44.2814,77.6878
10:35:53.258,46.6252,80.1878
10:35:53.266,48.0314,83.1878
10:35:53.278,49.0939,85.0628
10:35:53.287,49.6877,87.5003
10:35:53.300,50.3127,87.7503
10:35:53.306,50.0939,88.2503
10:35:53.318,48.9689,86.5003
10:35:53.327,47.0002,85.3128
10:35:53.338,45.3752,81.5628
10:35:53.347,43.3127,78.1878
10:35:53.358,40.5627,73.4378
10:35:53.367,37.5939,69.2503
10:35:53.378,35.1251,64.1877
10:35:53.386,32.8126,60.0627
10:35:53.398,30.0626,56.6252
10:35:53.406,28.4689,53.2502
10:35:53.418,26.5314,50.1877
10:35:53.428,25.3438,46.7502
10:35:53.437,22.6251,44.6252
10:35:53.447,22.1876,40.8127
10:35:53.456,19.9688,38.7501
10:35:53.468,18.1563,35.0626
10:35:53.478,15.4376,31.5626
10:35:53.488,13.8438,27.6251
10:35:53.497,11.125,24.6876
10:35:53.508,10.1875,20.1251
10:35:53.517,6.625,16.6876
10:35:53.527,5.375,12.875
10:35:53.538,2.4688,8.8125
10:35:53.548,0.9375,4.6875
10:35:53.558,-1.9063,0.5
10:35:53.566,-4.2188,-3.125
10:35:53.576,-6.25,-8.3125
10:35:53.586,-8.75,-11.5
10:35:53.621,-10.3438,-15.7501
10:35:53.624,-13.2501,-19.0001
10:35:53.626,-15.3751,-25.1876
10:35:53.629,-18.1876,-28.5626
10:35:53.660,-20.0313,-34.1251
10:35:53.663,-23.1251,-37.3751
10:35:53.665,-24.9688,-42.2502
10:35:53.667,-27.0939,-46.4377
10:35:53.700,-28.5001,-51.0627
10:35:53.703,-31.5939,-54.7502
10:35:53.707,-32.9064,-59.0002
10:35:53.710,-34.7501,-62.5002
10:35:53.739,-36.6251,-67.5628
10:35:53.741,-36.5939,-70.1253
10:35:53.744,-38.9064,-72.1878
10:35:53.746,-38.8439,-73.8128
10:35:53.776,-37.2814,-73.4378
10:35:53.779,-34.6564,-67.6878
10:35:53.782,-28.4064,-59.1252
10:35:53.788,-20.1563,-44.0002
10:35:53.798,-11.2813,-27.5001
10:35:53.806,-1.3125,-11
10:35:53.817,8.25,6.375
10:35:53.827,16.9688,21.1251
10:35:53.840,24.8751,33.6251
10:35:53.846,30.0939,46.0002
10:35:53.857,35.8439,53.7502
10:35:53.868,40.0939,62.9377
10:35:53.876,43.7189,69.1253
10:35:53.886,47.3439,74.1878
10:35:53.898,49.5314,79.8128
10:35:53.906,51.4064,81.9378
10:35:53.916,53.094,85.1253
10:35:53.927,53.6252,88.3128
10:35:53.937,53.7502,88.8128
10:35:53.946,54.1877,89.3128
10:35:53.957,53.219,89.6253
10:35:53.969,52.594,88.0628
10:35:53.977,51.4064,86.1878
10:35:53.986,48.5627,82.6253
10:35:53.999,45.3439,78.6253
10:35:54.006,42.1252,74.6878
10:35:54.017,39.9064,69.5003
10:35:54.027,36.8751,65.8753
10:35:54.036,34.6251,61.6252
10:35:54.047,32.3751,56.8127
10:35:54.057,29.9376,54.6252
10:35:54.066,28.6564,51.2502
10:35:54.077,26.8751,48.8127
10:35:54.086,25.3751,45.3752
10:35:54.096,23.1876,43.2502
10:35:54.106,21.8126,39.6877
10:35:54.116,20.1876,37.4376
10:35:54.127,18.4688,33.1251
10:35:54.136,16.7813,30.0001
10:35:54.146,15.0313,26.8126
10:35:54.156,12.5,23.4376
10:35:54.172,11.0938,20.0626
10:35:54.177,8.125,16.1251
10:35:54.186,6.5938,12.1875
10:35:54.208,3.75,8.625
10:35:54.214,2.0313,4.25
10:35:54.229,-0.9375,0.1875
10:35:54.232,-2.125,-3.6875
10:35:54.236,-5.4063,-7.5
10:35:54.247,-6.9375,-12.25
10:35:54.262,-10.5313,-16.6876
10:35:54.278,-12.8438,-21.0001
10:35:54.280,-15.5938,-25.0001
10:35:54.289,-16.8126,-28.9376
10:35:54.297,-19.9376,-33.1876
10:35:54.306,-21.5938,-37.4376
10:35:54.317,-24.3438,-40.6877
10:35:54.327,-26.4376,-45.6252
10:35:54.366,-28.8751,-49.3752
10:35:54.369,-31.6564,-53.5002
10:35:54.371,-33.4689,-57.8752
10:35:54.373,-35.4376,-62.1877
10:35:54.378,-37.4689,-65.4377
10:35:54.408,-38.1251,-68.3753
10:35:54.409,-38.8126,-68.8753
10:35:54.410,-37.3126,-67.8753
10:35:54.417,-33.4064,-60.1877
10:35:54.460,-27.1251,-50.6252
10:35:54.462,-18.7813,-35.6251
10:35:54.464,-10,-20.3751
10:35:54.466,0.375,-4.4375
10:35:54.469,8.625,12
10:35:54.502,16.1876,24.8126
10:35:54.505,23.7813,37.0626
10:35:54.508,29.1251,46.8752
10:35:54.508,34.9064,56.0627
10:35:54.522,37.9376,63.9377
10:35:54.528,41.6252,69.5003
10:35:54.536,44.2502,75.0003
10:35:54.549,45.8752,79.1253
10:35:54.556,47.9064,81.3753
10:35:54.566,48.7502,86.1253
10:35:54.577,49.4689,86.3753
10:35:54.587,50.1564,88.1253
10:35:54.597,49.8752,88.5628
10:35:54.607,49.3752,87.6878
10:35:54.617,48.8127,87.4378
10:35:54.627,46.2189,84.3128
10:35:54.636,44.0627,81.0628
10:35:54.650,41.8752,76.9378
10:35:54.657,38.5001,72.5628
10:35:54.667,35.9376,68.8753
10:35:54.676,33.5626,63.3127
10:35:54.687,30.3126,60.3752
10:35:54.697,28.9064,55.1252
10:35:54.708,26.1251,52.0002
10:35:54.716,24.7501,48.5627
10:35:54.727,22.0313,46.1252
10:35:54.739,20.7501,43.1252
10:35:54.746,18.9376,40.1877
10:35:54.757,17.7813,36.5626
10:35:54.769,15.7501,33.8751
10:35:54.776,13.3438,30.0626
10:35:54.787,11.75,26.7501
10:35:54.796,9.0313,22.7501
10:35:54.806,7.7813,19.0626
10:35:54.816,4.5938,15.3126
10:35:54.827,2.5313,11.875
10:35:54.836,0.6875,7.5
10:35:54.846,-2.5,3.6875
10:35:54.856,-4.5625,-1
10:35:54.866,-7.0938,-4.6875
10:35:54.877,-9.3125,-8.875
10:35:54.902,-11.8125,-13.8126
10:35:54.905,-15.0938,-18.0626
10:35:54.909,-16.6876,-22.3751
10:35:54.917,-19.5001,-26.4376
10:35:54.927,-22.1251,-30.6876
10:35:54.937,-24.5626,-36.0001
10:35:54.946,-27.2814,-40.6252
10:35:54.957,-29.3126,-44.6252
10:35:54.967,-32.4064,-49.0002
10:35:54.977,-34.5001,-53.9377
10:35:54.987,-36.4064,-58.0002
10:35:54.997,-39.1564,-61.5627
10:35:55.006,-41.0002,-65.3752
10:35:55.017,-43.0939,-69.9378
10:35:55.026,-43.8439,-73.6253
10:35:55.037,-45.3439,-76.0003
10:35:55.046,-44.2502,-76.4378
10:35:55.056,-43.2189,-73.5003
10:35:55.066,-38.2189,-66.5628
10:35:55.076,-31.8126,-54.5002
10:35:55.096,-23.0626,-40.3752
10:35:55.099,-12.9688,-22.6876
10:35:55.128,-3.875,-7.8125
10:35:55.130,6.0625,9
10:35:55.135,13.3751,22.7501
10:35:55.137,20.9376,34.5626
10:35:55.167,26.0938,45.6877
10:35:55.170,31.2189,53.7502
10:35:55.171,36.3126,60.9377
10:35:55.176,39.1564,68.0628
10:35:55.211,41.9377,71.8753
10:35:55.213,45.2189,77.1253
10:35:55.215,45.6877,80.7503
10:35:55.247,47.9064,82.6253
10:35:55.249,48.0627,86.0628
10:35:55.250,48.9064,86.5003
10:35:55.256,49.6564,87.5003
10:35:55.256,47.8127,86.8753
10:35:55.272,47.2502,85.1878
10:35:55.276,45.2189,83.1878
10:35:55.287,43.0002,79.5628
10:35:55.303,39.4689,74.8128
10:35:55.306,36.7814,70.0003
10:35:55.318,33.2501,65.9378
10:35:55.326,31.3439,61.5002
10:35:55.336,28.6251,56.6252
10:35:55.347,26.5314,53.5002
10:35:55.357,23.8751,49.8752
10:35:55.366,21.7188,45.5627
10:35:55.376,19.8438,42.9377
10:35:55.386,19.4688,40.3127
10:35:55.396,16.6876,37.7501
10:35:55.408,14.9688,34.3751
10:35:55.417,13.3751,30.7501
10:35:55.427,11.3438,28.0626
10:35:55.436,9.625,23.6251
10:35:55.446,7.3125,19.9376
10:35:55.456,5.2813,16.3751
10:35:55.467,2.8125,11.5625
10:35:55.476,0.0313,7.4375
10:35:55.486,-1.5,3.5625
10:35:55.508,-4.6563,-1.0625
10:35:55.515,-6.75,-5.25
10:35:55.516,-9.7813,-9.3125
10:35:55.531,-12.5625,-13.3751
10:35:55.536,-14.6876,-18.4376
10:35:55.557,-17.0626,-22.7501
10:35:55.563,-19.7501,-26.4376
10:35:55.578,-22.5626,-31.1876
10:35:55.579,-25.0001,-35.6251
10:35:55.586,-26.8439,-40.1877
10:35:55.596,-29.0001,-44.8752
10:35:55.607,-31.6564,-48.6877
10:35:55.616,-33.7189,-53.5627
10:35:55.627,-36.3751,-58.4377
10:35:55.637,-38.7501,-61.8127
10:35:55.646,-40.7189,-66.4378
10:35:55.656,-42.9377,-71.0003
10:35:55.666,-44.8439,-75.0003
10:35:55.677,-45.9377,-78.9378
10:35:55.686,-47.7502,-81.9378
10:35:55.696,-48.4689,-84.4378
10:35:55.706,-48.8439,-85.7503
10:35:55.716,-46.4064,-82.9378
10:35:55.726,-42.6877,-77.1878
10:35:55.737,-36.4064,-64.6877
10:35:55.746,-26.8126,-50.1252
10:35:55.757,-17.0001,-32.5626
10:35:55.767,-7.4063,-15.9376
10:35:55.776,2.8125,1.5
10:35:55.787,11.0313,15.7501
10:35:55.797,18.4063,27.9376
10:35:55.806,25.5313,39.4377
10:35:55.817,30.3126,48.7502
10:35:55.826,36.1876,56.4377
10:35:55.859,38.9064,63.9377
10:35:55.862,42.4064,68.7503
10:35:55.865,45.2814,74.1878
10:35:55.866,46.8127,78.6253
10:35:55.901,48.6877,80.6253
10:35:55.905,49.8439,84.4378
10:35:55.905,50.4064,84.8128
10:35:55.908,51.0939,86.1253
10:35:55.945,50.2189,86.0003
10:35:55.947,49.6252,84.8753
10:35:55.947,47.6252,82.3753
10:35:55.956,45.8752,79.3753
10:35:55.957,42.3439,75.0003
10:35:55.989,40.0627,70.1253
10:35:55.991,36.1876,64.6252
10:35:55.994,34.2189,60.0002
10:35:55.996,30.6876,55.7502
10:35:56.012,28.9064,51.5002
10:35:56.017,26.5626,47.3127
10:35:56.026,23.9688,44.9377
10:35:56.037,22.9063,41.1252
10:35:56.052,20.6251,38.8126
10:35:56.057,18.8438,35.3751
10:35:56.067,17.0313,31.2501
10:35:56.076,15.2501,29.0001
10:35:56.087,13.5626,24.4376
10:35:56.095,11.3438,20.8751
10:35:56.106,9.5,17.3126
10:35:56.117,7.2813,13.8126
10:35:56.127,4.4375,10.5
10:35:56.137,3.0313,5.25
10:35:56.148,0.1563,1.9375
10:35:56.156,-1.9375,-3.5
10:35:56.182,-4.625,-7.125
10:35:56.184,-6.5313,-11.6875
10:35:56.187,-9.8125,-15.6876
10:35:56.202,-12.125,-20.8126
10:35:56.211,-15.0938,-25.0626
10:35:56.220,-17.3751,-30.0626
10:35:56.231,-20.2813,-34.8126
10:35:56.241,-23.2501,-39.1877
10:35:56.252,-25.1563,-44.7502
10:35:56.262,-26.9064,-48.8127
10:35:56.272,-29.6251,-53.3127
10:35:56.282,-32.0626,-57.3127
10:35:56.292,-33.6251,-62.0627
10:35:56.301,-36.3126,-65.4378
10:35:56.311,-38.0314,-70.1878
10:35:56.320,-40.1877,-74.5628
10:35:56.331,-41.9689,-79.1253
10:35:56.340,-43.4377,-81.8128
10:35:56.351,-44.7814,-86.5628
10:35:56.362,-47.1877,-90.0003
10:35:56.370,-46.4064,-89.5003
10:35:56.380,-44.2189,-86.8128
10:35:56.393,-39.3439,-80.1253
10:35:56.401,-32.4064,-68.1253
10:35:56.411,-23.0626,-50.9377
10:35:56.428,-13.125,-34.1251
10:35:56.430,-3.0313,-15.6876
10:35:56.442,5.75,-0.0625
10:35:56.452,14.4063,14.5626
10:35:56.477,21.2813,27.0626
10:35:56.480,26.9376,37.5001
10:35:56.482,32.3126,46.5002
10:35:56.515,36.6251,54.5627
10:35:56.518,40.2502,61.2502
10:35:56.520,43.2502,66.3128
10:35:56.521,44.3127,70.6253
10:35:56.562,46.3439,73.6253
10:35:56.564,48.1252,76.6253
10:35:56.567,48.0002,78.5003
10:35:56.572,49.0627,79.5003
10:35:56.573,48.3752,81.2503
10:35:56.604,47.8752,79.5003
10:35:56.606,46.8752,78.5003
10:35:56.609,43.1877,74.8753
10:35:56.611,40.6877,70.1253
10:35:56.640,38.3751,66.0003
10:35:56.645,35.4064,61.3752
10:35:56.646,32.7501,57.1252
10:35:56.657,29.5939,52.6252
10:35:56.665,26.9064,47.9377
10:35:56.678,24.0001,44.3752
10:35:56.685,22.4063,40.9377
10:35:56.695,20.1876,38.3126
10:35:56.705,18.2501,34.7501
10:35:56.715,16.4376,30.3751
10:35:56.726,14.2501,27.8126
10:35:56.736,13.2188,25.1251
10:35:56.745,10.1875,22.0001
10:35:56.755,8.3125,17.7501
10:35:56.767,6.125,13.4376
10:35:56.775,3.0625,10.4375
10:35:56.788,1.0313,5.625
10:35:56.804,-2.5313,-0.0625
10:35:56.820,-4.6563,-5.125
10:35:56.824,-7.3125,-8.875
10:35:56.839,-10,-14.0001
10:35:56.841,-12.9688,-18.1876
10:35:56.856,-15.2188,-22.9376
10:35:56.871,-17.9063,-27.7501
10:35:56.874,-19.8751,-31.4376
10:35:56.889,-22.3438,-36.5001
10:35:56.904,-25.4063,-41.3127
10:35:56.906,-27.9064,-45.8127
10:35:56.921,-30.4064,-50.6252
10:35:56.922,-32.3126,-54.7502
10:35:56.937,-35.5314,-59.3752
10:35:56.940,-37.5939,-62.7502
10:35:56.946,-39.5939,-68.6253
10:35:56.955,-42.9377,-71.9378
10:35:56.967,-45.0002,-77.7503
10:35:56.976,-47.1564,-81.3753
10:35:56.987,-49.3127,-86.0003
10:35:56.995,-49.9689,-89.7503
10:35:57.006,-52.4689,-93.0004
10:35:57.016,-52.4064,-95.0629
10:35:57.025,-53.344,-95.8754
10:35:57.035,-51.2502,-94.0629
10:35:57.048,-47.6564,-88.1878
10:35:57.055,-42.0314,-78.5628
10:35:57.065,-32.6251,-62.1252
10:35:57.077,-22.6563,-45.2502
10:35:57.085,-12.3125,-26.2501
10:35:57.096,-2.9688,-10.5
10:35:57.105,5.8125,5.875
10:35:57.115,14.6563,19.5001
10:35:57.126,19.6876,31.1876
10:35:57.135,25.7501,40.7502
10:35:57.146,30.0001,49.0627
10:35:57.155,34.2501,56.1877
10:35:57.165,37.4689,62.6252
10:35:57.178,39.3439,66.3753
10:35:57.185,41.6252,70.6878
10:35:57.213,42.5002,73.8753
10:35:57.215,44.3752,75.4378
10:35:57.218,43.9377,78.1253
10:35:57.225,44.6252,77.6878
10:35:57.267,43.6252,78.2503
10:35:57.271,42.3127,76.3753
10:35:57.274,40.0939,74.1253
10:35:57.275,35.8126,70.0628
10:35:57.281,30.4064,64.0002
10:35:57.296,24.2813,56.6252
10:35:57.297,17.5001,50.5627
10:35:57.334,11.4375,44.0002
10:35:57.337,5.9375,37.2501
10:35:57.339,0.8438,33.0626
10:35:57.344,-4.0938,27.1876
10:35:57.345,-9.0938,22.6251
10:35:57.375,-15.3126,17.5626
10:35:57.378,-22.7501,12
10:35:57.380,-31.4064,6.75
10:35:57.388,-38.6251,0
10:35:57.395,-45.9689,-5
10:35:57.406,-51.8127,-10
10:35:57.416,-56.3752,-15.3126
10:35:57.428,-59.7502,-17.8751
10:35:57.435,-61.4065,-19.9376
10:35:57.462,-61.3752,-21.0001
10:35:57.465,-61.469,-23.1251
10:35:57.468,-61.844,-25.8126
10:35:57.476,-62.469,-28.6876
10:35:57.485,-63.1877,-31.1876
10:35:57.495,-63.4377,-34.1251
10:35:57.505,-64.6252,-35.7501
10:35:57.515,-64.6877,-40.8127
10:35:57.525,-65.5003,-43.4377
10:35:57.536,-66.344,-46.6252
10:35:57.545,-66.9378,-49.9377
10:35:57.557,-67.2815,-53.6877
10:35:57.568,-69.7503,-57.3752
10:35:57.576,-70.5315,-61.3127
10:35:57.586,-72.9378,-65.1252
10:35:57.595,-74.5003,-69.8753
10:35:57.605,-75.1878,-72.6253
10:35:57.615,-76.844,-78.0003
10:35:57.625,-77.8128,-80.7503
10:35:57.636,-79.3753,-84.3753
10:35:57.645,-79.8128,-88.3753
10:35:57.655,-79.5316,-91.5629
10:35:57.667,-77.719,-93.9379
10:35:57.676,-74.094,-96.1254
10:35:57.686,-69.6565,-94.1879
10:35:57.695,-70.2815,-97.5004
10:35:57.706,-67.2503,-94.7504
10:35:57.718,-63.8127,-90.1253
10:35:57.725,-55.3752,-78.3753
10:35:57.735,-44.8439,-61.9377
10:35:57.746,-33.3126,-45.2502
10:35:57.756,-23.0938,-29.8126
10:35:57.768,-15.3751,-15.6251
10:35:57.775,-7.8438,-3
10:35:57.785,-2.9375,7.75
10:35:57.795,1.9063,17.0626
10:35:57.805,6.5313,26.4376
10:35:57.817,9.7813,32.3126
10:35:57.825,12.9063,39.8752
10:35:57.835,14.8126,44.3127
10:35:57.845,15.9063,48.6252
10:35:57.855,16.5313,52.9377
10:35:57.865,17.2501,55.6252
10:35:57.875,19.5626,58.4377
10:35:57.885,19.7813,60.4377
10:35:57.896,22.3126,61.3752
