timestamp,Red,IR
11:34:11.091,-5.875,-6.875
11:34:11.100,-6.0625,-9.5
11:34:11.111,-6.5625,-9.8125
11:34:11.131,-7,-10.5
11:34:11.134,-7,-11.9375
11:34:11.159,-7.75,-14.0626
11:34:11.161,-8.875,-15.3126
11:34:11.165,-9.4375,-15.3751
11:34:11.170,-9.375,-16.5001
11:34:11.201,-9.5,-17.8751
11:34:11.205,-10.5625,-19.0626
11:34:11.209,-10.75,-19.3126
11:34:11.211,-9.8125,-18.6876
11:34:11.240,-9.125,-16.1876
11:34:11.243,-5.1875,-12
11:34:11.245,-2.4375,-5.6875
11:34:11.278,2.5,1.75
11:34:11.279,5.9375,9.75
11:34:11.283,9.9375,15.4376
11:34:11.288,12.1875,21.6251
11:34:11.292,15.8126,26.5001
11:34:11.300,17.6251,30.1876
11:34:11.310,19.0001,33.8751
11:34:11.321,20.2501,35.9376
11:34:11.330,21.0001,37.8126
11:34:11.341,21.5626,38.9376
11:34:11.352,21.5626,39.7502
11:34:11.360,21.5626,39.8752
11:34:11.370,20.9376,41.5627
11:34:11.380,21.9376,41.0002
11:34:11.390,21.6876,40.8752
11:34:11.400,21.1876,41.4377
11:34:11.410,21.5001,41.9377
11:34:11.420,21.5626,40.3752
11:34:11.432,20.5001,41.5002
11:34:11.441,20.8126,39.3752
11:34:11.450,19.0626,36.7501
11:34:11.460,17.5626,35.1251
11:34:11.470,15.7501,32.5001
11:34:11.480,14.4376,28.9376
11:34:11.490,12.75,25.3751
11:34:11.500,10.4375,22.5626
11:34:11.510,9.25,21.8751
11:34:11.520,8.8125,19.0001
11:34:11.543,7.75,17.0626
11:34:11.546,6.9375,16.6876
11:34:11.560,6.5,16.5626
11:34:11.563,6.75,14.6876
11:34:11.577,6.0625,14.0626
11:34:11.594,5.5625,13.7501
11:34:11.595,5.125,12.3125
11:34:11.601,3.625,10.6875
11:34:11.610,2.9375,11
11:34:11.620,2.25,9
11:34:11.631,1.5,7.1875
11:34:11.641,0.5625,6.5
11:34:11.652,0,5.1875
11:34:11.660,-1.9375,2.8125
11:34:11.670,-2.1875,1.875
11:34:11.681,-2.1875,0.75
11:34:11.692,-2.5625,-1.25
11:34:11.701,-3.75,-3.25
11:34:11.710,-4.4375,-4.625
11:34:11.720,-4.8125,-5.5
11:34:11.731,-6.125,-5.4375
11:34:11.740,-5.625,-8.375
11:34:11.750,-7.0625,-10.1875
11:34:11.761,-8.25,-10.8125
11:34:11.770,-7.5625,-11.8125
11:34:11.782,-8.0625,-12.9375
11:34:11.817,-9.1875,-14.7501
11:34:11.819,-10.0625,-15.3751
11:34:11.821,-10,-16.5001
11:34:11.824,-11.0625,-18.1251
11:34:11.829,-10.75,-18.8126
11:34:11.842,-12.3125,-20.1876
11:34:11.871,-11.75,-21.6251
11:34:11.874,-13.2501,-22.3751
11:34:11.875,-13.3126,-23.8126
11:34:11.882,-14.5626,-24.5001
11:34:11.914,-15.1876,-26.0001
11:34:11.916,-16.1876,-26.7501
11:34:11.918,-15.8751,-25.8751
11:34:11.943,-15.0626,-24.1251
11:34:11.945,-12.125,-21.5626
11:34:11.948,-8.9375,-15.3751
11:34:11.955,-4.9375,-7.125
11:34:11.960,-0.875,-0.6875
11:34:11.969,3,5.625
11:34:11.980,5.4375,12
11:34:11.990,8.625,16.5001
11:34:11.999,9.75,20.0001
11:34:12.009,10.625,23.1876
11:34:12.020,11.625,25.5001
11:34:12.030,12.4375,27.1876
11:34:12.039,12.875,27.5001
11:34:12.051,12.375,28.6876
11:34:12.060,12.25,28.5626
11:34:12.070,12.3125,28.6876
11:34:12.080,12.5625,28.0626
11:34:12.091,12,28.0626
11:34:12.099,12.125,27.9376
11:34:12.109,11,26.9376
11:34:12.120,10.1875,27.0626
11:34:12.130,10.8125,26.6251
11:34:12.141,9.8125,25.0626
11:34:12.150,8,22.3751
11:34:12.160,6.875,21.5001
11:34:12.170,5.875,17.3751
11:34:12.181,3.625,13.6251
11:34:12.190,1.625,10.25
11:34:12.199,0.875,9.4375
11:34:12.209,1,7.5
11:34:12.222,-0.375,6.25
11:34:12.231,-0.625,5.5625
11:34:12.240,-0.5,4.1875
11:34:12.251,-1.1875,3.6875
11:34:12.259,-1.375,3.875
11:34:12.271,-1.0625,3.1875
11:34:12.281,-1.1875,1.6875
11:34:12.291,-2,0.9375
11:34:12.300,-1.875,1.4375
11:34:12.309,-2.9375,-0.8125
11:34:12.320,-3.75,-1.375
11:34:12.330,-2.6875,-2.1875
11:34:12.340,-4,-3.8125
11:34:12.350,-5,-5.5
11:34:12.360,-4.9375,-5.375
11:34:12.371,-5.0625,-7.75
11:34:12.380,-5.4375,-8.25
11:34:12.390,-6.125,-9.875
11:34:12.400,-7.5,-11.1875
11:34:12.411,-8,-13.125
11:34:12.420,-9.5,-14.6876
11:34:12.430,-11.0625,-16.3751
11:34:12.439,-11.4375,-18.1876
11:34:12.450,-13.1876,-18.4376
11:34:12.459,-13.4376,-21.1251
11:34:12.469,-14.5001,-21.0626
11:34:12.479,-14.6876,-22.6251
11:34:12.489,-15.1876,-24.1251
11:34:12.502,-15.4376,-25.0626
11:34:12.529,-16.0626,-25.5626
11:34:12.530,-16.2501,-25.9376
11:34:12.533,-16.8126,-28.1876
11:34:12.541,-17.0001,-28.5001
11:34:12.579,-16.9376,-29.1251
11:34:12.580,-16.8751,-29.6876
11:34:12.583,-17.6251,-31.0626
11:34:12.585,-18.3126,-31.6876
11:34:12.594,-18.5001,-32.8126
11:34:12.600,-19.0626,-33.0626
11:34:12.630,-18.1251,-33.3751
11:34:12.631,-18.1251,-31.0626
11:34:12.635,-14.8126,-28.3751
11:34:12.641,-12.125,-22.0626
11:34:12.674,-7.6875,-14.5001
11:34:12.677,-4.125,-7.375
11:34:12.682,0.5,0.4375
11:34:12.685,2.875,5.75
11:34:12.693,6.5,11.25
11:34:12.699,8.1875,16.1251
11:34:12.709,9.9375,18.6876
11:34:12.720,10.5625,21.6251
11:34:12.730,11.8125,22.7501
11:34:12.739,11.5625,23.4376
11:34:12.749,12.75,24.5626
11:34:12.759,12.75,24.8751
11:34:12.772,12.4375,25.8126
11:34:12.781,12.4375,24.9376
11:34:12.790,12.1875,26.5626
11:34:12.799,12.5,25.6251
11:34:12.809,12.375,25.5001
11:34:12.819,11.75,25.6876
11:34:12.830,12.625,24.9376
11:34:12.840,10.75,23.6251
11:34:12.855,10,24.1251
11:34:12.883,9.4375,21.1876
11:34:12.886,7.5625,18.3751
11:34:12.900,5.8125,15.9376
11:34:12.903,4.5,12.8125
11:34:12.906,3.1875,9.625
11:34:12.909,1.1875,7.3125
11:34:12.919,0.875,5.75
11:34:12.930,0,3.5625
11:34:12.940,-0.875,2.25
11:34:12.950,-0.5,3.25
11:34:12.959,-0.9375,1.4375
11:34:12.969,-1.3125,0.375
11:34:12.979,-1.8125,0.0625
11:34:12.989,-2.6875,-0.25
11:34:13.000,-3.125,-1.1875
11:34:13.009,-3,-2.6875
11:34:13.019,-3.9375,-3.625
11:34:13.030,-4.75,-5.3125
11:34:13.040,-5.5625,-6.5625
11:34:13.049,-6.25,-5.875
11:34:13.059,-6.3125,-7.4375
11:34:13.070,-7.3125,-9.8125
11:34:13.079,-8.3125,-10.9375
11:34:13.089,-8.25,-12.0625
11:34:13.100,-9.6875,-13.6876
11:34:13.134,-10.875,-14.1876
11:34:13.135,-10.6875,-16.7501
11:34:13.138,-11.25,-17.8751
11:34:13.145,-12.1875,-19.4376
11:34:13.153,-12.5625,-20.6251
11:34:13.159,-13.5001,-22.4376
11:34:13.169,-14.3126,-23.5626
11:34:13.179,-14.5626,-24.6876
11:34:13.189,-16.0001,-26.1876
11:34:13.199,-16.3126,-26.5626
11:34:13.210,-17.0626,-28.2501
11:34:13.220,-17.8126,-28.1251
11:34:13.229,-17.7501,-29.8751
11:34:13.239,-17.4376,-29.3126
11:34:13.249,-17.7501,-30.0626
11:34:13.259,-18.3751,-30.3126
11:34:13.270,-18.0001,-31.0001
11:34:13.279,-18.1876,-31.6876
11:34:13.289,-18.6876,-33.1876
11:34:13.321,-19.1251,-33.7501
11:34:13.323,-19.9376,-34.5001
11:34:13.325,-20.3126,-35.0001
11:34:13.331,-20.6876,-36.9376
11:34:13.364,-21.1251,-36.6251
11:34:13.365,-21.1876,-37.1876
11:34:13.368,-21.0626,-37.3126
11:34:13.372,-20.5001,-37.1876
11:34:13.402,-19.1251,-34.1251
11:34:13.404,-16.6876,-31.1876
11:34:13.406,-13.1876,-24.5626
11:34:13.413,-8.9375,-17.6876
11:34:13.426,-4.5,-9.25
11:34:13.430,-0.5625,-3.3125
11:34:13.464,3.3125,3.6875
11:34:13.466,6.1875,7.6875
11:34:13.469,8.5625,12.375
11:34:13.474,9.25,15.1251
11:34:13.483,10.3125,17.3751
11:34:13.491,11,18.5626
11:34:13.504,11.75,19.5626
11:34:13.510,11.0625,19.8751
11:34:13.519,11.6875,20.6251
11:34:13.529,11.375,20.6251
11:34:13.539,11.0625,21.0001
11:34:13.549,10.75,20.3751
11:34:13.559,10.4375,21.4376
11:34:13.569,10.5,20.0626
11:34:13.581,10.375,20.5001
11:34:13.589,10.5,19.8126
11:34:13.599,9.6875,18.2501
11:34:13.610,8.125,17.9376
11:34:13.619,7.375,15.8126
11:34:13.630,4.875,12.125
11:34:13.641,3.5625,9.25
11:34:13.649,2.4375,6.0625
11:34:13.659,0.25,3.75
11:34:13.670,-1,2.25
11:34:13.679,-1.125,-0.3125
11:34:13.689,-2.5625,-2.3125
11:34:13.699,-2.75,-2.4375
11:34:13.709,-2.125,-3.5625
11:34:13.719,-2.8125,-4.5625
11:34:13.729,-3.1875,-4.375
11:34:13.739,-3.6875,-4
11:34:13.749,-3.125,-5.4375
11:34:13.760,-4.5,-6.8125
11:34:13.770,-5.3125,-6.5
11:34:13.779,-4.6875,-8.3125
11:34:13.789,-5.75,-9.3125
11:34:13.799,-5.5625,-9.8125
11:34:13.809,-6.0625,-10.9375
11:34:13.819,-7.5625,-11.9375
11:34:13.829,-7.4375,-13.3751
11:34:13.839,-8.8125,-14.9376
11:34:13.850,-9.8125,-16.7501
11:34:13.860,-10,-17.0001
11:34:13.869,-11.0625,-19.1251
11:34:13.879,-11.25,-19.7501
11:34:13.890,-12.1875,-21.9376
11:34:13.899,-12.75,-21.8126
11:34:13.910,-13.3751,-24.1251
11:34:13.919,-13.7501,-24.3751
11:34:13.929,-14.0001,-26.5001
11:34:13.940,-15.0001,-26.4376
11:34:13.949,-15.4376,-28.6251
11:34:13.960,-16.1876,-29.3751
11:34:13.969,-17.1876,-31.1251
11:34:13.979,-18.0001,-31.1251
11:34:13.990,-18.1876,-32.9376
11:34:13.999,-18.2501,-32.8751
11:34:14.009,-18.2501,-33.6876
11:34:14.019,-19.4376,-33.2501
11:34:14.053,-19.1876,-34.4376
11:34:14.055,-19.9376,-34.6876
11:34:14.058,-19.4376,-35.5626
11:34:14.060,-20.0001,-36.5626
11:34:14.091,-20.0626,-36.5001
11:34:14.093,-20.6251,-37.8751
11:34:14.095,-20.5626,-38.0626
11:34:14.102,-21.0626,-39.6252
11:34:14.132,-21.9376,-39.1877
11:34:14.134,-21.2501,-40.8127
11:34:14.136,-21.5001,-41.0002
11:34:14.163,-22.7501,-42.5002
11:34:14.164,-22.0001,-42.3752
11:34:14.167,-21.4376,-41.1252
11:34:14.199,-19.8751,-37.3126
11:34:14.215,-16.5626,-33.6876
11:34:14.218,-13.0625,-26.7501
11:34:14.222,-7.25,-19.1251
11:34:14.224,-4.1875,-11.5
11:34:14.224,-0.9375,-5.5
11:34:14.229,2.3125,-0.25
11:34:14.239,5.0625,4.5625
11:34:14.254,6.375,8.25
11:34:14.259,7.9375,10.5625
11:34:14.269,8.8125,12.1875
11:34:14.280,10,13.8751
11:34:14.289,10.125,13.8751
11:34:14.300,10.0625,14.9376
11:34:14.309,11.1875,14.8126
11:34:14.319,10.5,14.5001
11:34:14.329,9.5625,15.1876
11:34:14.339,9.25,14.8126
11:34:14.350,9.3125,12.875
11:34:14.360,8.5,13.3126
11:34:14.369,8.375,12.5
11:34:14.379,8.1875,11.3125
11:34:14.414,6.875,9.8125
11:34:14.415,6.75,9.8125
11:34:14.418,5.25,6.1875
11:34:14.420,3.5,3.375
11:34:14.429,1.75,-0.375
11:34:14.440,-0.0625,-2.5
11:34:14.450,-0.125,-4.875
11:34:14.459,-1.125,-7.1875
11:34:14.469,-2.0625,-7.8125
11:34:14.480,-2.5625,-8.3125
11:34:14.489,-1.9375,-8.9375
11:34:14.500,-3.375,-9.9375
11:34:14.509,-3.0625,-9.3125
11:34:14.520,-2.6875,-10.75
11:34:14.530,-3.8125,-11.6875
11:34:14.539,-3.5625,-10.875
11:34:14.549,-3.25,-12.4375
11:34:14.559,-4.375,-12.6875
11:34:14.570,-4.3125,-12.625
11:34:14.579,-4.6875,-15.1876
11:34:14.589,-6,-14.0001
11:34:14.599,-5.8125,-15.9376
11:34:14.609,-5.9375,-17.5001
11:34:14.621,-6.875,-17.6876
11:34:14.633,-7,-19.2501
11:34:14.639,-7.5625,-20.4376
11:34:14.649,-8.4375,-21.5626
11:34:14.660,-9.3125,-23.1251
11:34:14.669,-10.1875,-23.6876
11:34:14.679,-11.125,-26.1251
11:34:14.689,-11.625,-25.8751
11:34:14.699,-11.625,-28.1876
11:34:14.709,-12.0625,-27.4376
11:34:14.748,-12.0625,-29.4376
11:34:14.751,-13.3751,-30.9376
11:34:14.754,-13.6876,-31.6876
11:34:14.757,-14.3751,-33.2501
11:34:14.759,-14.2501,-33.9376
11:34:14.792,-15.0001,-34.8751
11:34:14.796,-15.5001,-35.5001
11:34:14.797,-15.9376,-36.2501
11:34:14.803,-16.2501,-35.5001
11:34:14.811,-16.2501,-37.2501
11:34:14.841,-16.0001,-37.2501
11:34:14.843,-16.4376,-38.1251
11:34:14.848,-16.6876,-37.6876
11:34:14.882,-16.6251,-38.6876
11:34:14.884,-17.6251,-39.0626
11:34:14.886,-17.6251,-39.8127
11:34:14.890,-18.2501,-41.2502
11:34:14.894,-18.4376,-40.6877
11:34:14.904,-18.3751,-42.1252
11:34:14.915,-19.0001,-43.5002
11:34:14.924,-20.0001,-43.7502
11:34:14.934,-19.7501,-44.1252
11:34:14.944,-19.9376,-44.7502
11:34:14.954,-19.3751,-43.9377
11:34:14.964,-17.5001,-40.6877
11:34:14.974,-15.3126,-37.1876
11:34:14.984,-11.0625,-30.3751
11:34:14.994,-7.5,-23.8751
11:34:15.007,-2.8125,-15.5626
11:34:15.015,1.1875,-8.6875
11:34:15.024,3.8125,-3.1875
11:34:15.034,6.75,1.75
11:34:15.044,7.9375,4.4375
11:34:15.054,9.3125,7.8125
11:34:15.065,10.8125,8.8125
11:34:15.074,10.6875,10
11:34:15.084,11.25,10.0625
11:34:15.094,10.0625,10.125
11:34:15.104,10.3125,9.6875
11:34:15.114,9.625,10.5
11:34:15.124,9.0625,10.0625
11:34:15.134,8.625,7.625
11:34:15.144,8.1875,8.125
11:34:15.154,8.5,7.25
11:34:15.164,8.0625,7
11:34:15.175,7.75,6.125
11:34:15.184,6.8125,4.125
11:34:15.194,5.9375,4.0625
11:34:15.204,4.875,0.5
11:34:15.215,2.8125,-3.1875
11:34:15.225,1.0625,-5.6875
11:34:15.234,-0.75,-7.75
11:34:15.244,-1.5,-10.8125
11:34:15.254,-2.875,-11.9375
11:34:15.264,-3.6875,-11.4375
11:34:15.275,-3.1875,-13.5626
11:34:15.284,-3.625,-13.9376
11:34:15.294,-3.4375,-13.6876
11:34:15.304,-2.8125,-14.3751
11:34:15.314,-3.6875,-14.3126
11:34:15.324,-3.6875,-14.2501
11:34:15.334,-4.0625,-15.0626
11:34:15.344,-4.375,-15.8751
11:34:15.354,-4.6875,-15.0001
11:34:15.364,-4.25,-16.2501
11:34:15.375,-4.8125,-17.0626
11:34:15.408,-5.4375,-17.1251
11:34:15.410,-4.8125,-18.8126
11:34:15.413,-6.25,-20.1876
11:34:15.415,-6.4375,-20.8126
11:34:15.450,-6.75,-22.0001
11:34:15.451,-7.5625,-23.3126
11:34:15.453,-8.375,-24.8126
11:34:15.455,-8.9375,-25.6251
11:34:15.521,-10.375,-27.5001
11:34:15.526,-10.3125,-27.6876
11:34:15.536,-11.375,-29.3751
11:34:15.539,-11.625,-29.4376
11:34:15.544,-12.4375,-31.1876
11:34:15.544,-12.0625,-31.7501
11:34:15.551,-12.9375,-32.3751
11:34:15.573,-13.1251,-32.9376
11:34:15.575,-14.3126,-33.7501
11:34:15.578,-13.8126,-34.7501
11:34:15.587,-14.9376,-34.4376
11:34:15.599,-14.6251,-35.5626
11:34:15.609,-15.8751,-35.0626
11:34:15.619,-15.6876,-35.9376
11:34:15.631,-15.6876,-36.1251
11:34:15.639,-15.8751,-37.6876
11:34:15.650,-16.0626,-37.3751
11:34:15.659,-16.7501,-38.1251
11:34:15.694,-17.3751,-38.6876
11:34:15.695,-17.4376,-40.8752
11:34:15.698,-18.2501,-40.8752
11:34:15.700,-18.0626,-41.5002
11:34:15.710,-18.4376,-41.6252
11:34:15.720,-18.3751,-41.8752
11:34:15.731,-18.0001,-39.9377
11:34:15.739,-16.0626,-38.0626
11:34:15.749,-12.8125,-33.1251
11:34:15.765,-8.8125,-26.0001
11:34:15.770,-4.4375,-18.5001
11:34:15.777,-0.3125,-12
11:34:15.790,2.375,-5.5
11:34:15.798,4.875,0.0625
11:34:15.809,6.6875,2.75
11:34:15.819,7.6875,5.875
11:34:15.827,8.8125,7.5
11:34:15.840,8.6875,8.375
11:34:15.848,9.1875,8.75
11:34:15.858,9,8.625
11:34:15.867,8.375,8
11:34:15.879,8.25,7.875
11:34:15.888,7.625,7.75
11:34:15.898,8.3125,6.5625
11:34:15.910,7,7.25
11:34:15.921,7.3125,5.75
11:34:15.928,7.5625,5.25
11:34:15.939,6.75,4.4375
11:34:15.949,6.25,3.0625
11:34:15.959,5.25,0.5
11:34:15.969,3.25,-2.125
11:34:15.977,2.0625,-4.0625
11:34:15.989,0.25,-7.875
11:34:15.999,-1.6875,-9.75
11:34:16.010,-1.875,-11.8125
11:34:16.017,-2.25,-13.1876
11:34:16.029,-2.9375,-14.3126
11:34:16.039,-3.125,-14.1876
11:34:16.049,-3,-14.8126
11:34:16.060,-3.375,-15.2501
11:34:16.069,-3.75,-14.9376
11:34:16.079,-3.8125,-14.4376
11:34:16.089,-3.625,-15.4376
11:34:16.098,-4,-14.6876
11:34:16.109,-4.1875,-15.2501
11:34:16.118,-4.125,-16.8126
11:34:16.129,-5.3125,-16.1251
11:34:16.139,-5.0625,-18.0626
11:34:16.149,-6.625,-17.1251
11:34:16.158,-6.625,-20.0626
11:34:16.180,-7.5,-19.5001
11:34:16.182,-7.4375,-21.5001
11:34:16.213,-8.4375,-21.9376
11:34:16.214,-8.75,-23.6251
11:34:16.217,-9.375,-24.7501
11:34:16.219,-9.9375,-25.7501
11:34:16.252,-10.875,-26.6876
11:34:16.256,-11.25,-28.2501
11:34:16.257,-11.75,-28.3126
11:34:16.265,-11.8125,-30.1876
11:34:16.272,-12.875,-30.3126
11:34:16.308,-13.2501,-31.6251
11:34:16.309,-14.3126,-31.2501
11:34:16.312,-13.7501,-33.1876
11:34:16.314,-14.5626,-33.1251
11:34:16.321,-13.7501,-34.4376
11:34:16.348,-14.3751,-33.9376
11:34:16.350,-14.7501,-34.8126
11:34:16.353,-14.6251,-35.0626
11:34:16.360,-15.8751,-36.0626
11:34:16.367,-14.9376,-36.3126
11:34:16.380,-16.2501,-36.1876
11:34:16.388,-16.3126,-37.2501
11:34:16.398,-16.6876,-37.4376
11:34:16.408,-15.5626,-38.0626
11:34:16.418,-16.5626,-38.0626
11:34:16.429,-16.5001,-39.1251
11:34:16.439,-17.0001,-39.3126
11:34:16.448,-16.6251,-40.3752
11:34:16.457,-17.4376,-40.9377
11:34:16.469,-17.0626,-38.9376
11:34:16.478,-15.5626,-37.7501
11:34:16.488,-13.7501,-33.5001
11:34:16.497,-9.9375,-28.8751
11:34:16.511,-6.125,-21.1251
11:34:16.522,-1.8125,-13.5001
11:34:16.529,1.625,-6.4375
11:34:16.538,4.9375,-0.3125
11:34:16.548,7.875,4.875
11:34:16.557,10.25,8.5
11:34:16.567,11.5,12.75
11:34:16.577,12.6875,13.8126
11:34:16.588,13.7501,16.3126
11:34:16.597,13.1876,16.5626
11:34:16.609,13.0625,17.5001
11:34:16.618,13.2501,17.2501
11:34:16.628,13.0625,16.6876
11:34:16.640,12.9375,16.8126
11:34:16.648,13.2501,16.3126
11:34:16.658,12.25,16.0001
11:34:16.668,11.8125,15.1876
11:34:16.678,11.75,14.9376
11:34:16.688,12.3125,14.3126
11:34:16.698,11.25,14.1251
11:34:16.707,10.9375,12.25
11:34:16.718,9.625,10.4375
11:34:16.730,7.6875,8.875
11:34:16.739,6.375,6.3125
11:34:16.747,5.0625,3.1875
11:34:16.758,3.4375,0.625
11:34:16.768,2.5,0.1875
11:34:16.778,2.25,-2.0625
11:34:16.799,1.25,-4.6875
11:34:16.805,0.75,-4.8125
11:34:16.810,1.75,-5.5625
11:34:16.837,0.25,-5.8125
11:34:16.841,0.125,-5.1875
11:34:16.856,0.8125,-6.6875
11:34:16.858,0.25,-7.125
11:34:16.862,0.1875,-6
11:34:16.869,0.375,-7.625
11:34:16.878,-0.1875,-8.1875
11:34:16.889,-0.8125,-8.9375
11:34:16.898,-0.3125,-8.875
11:34:16.907,-0.5,-10.0625
11:34:16.918,-2.125,-11.6875
11:34:16.929,-2.5,-11.3125
11:34:16.973,-3.0625,-13.3126
11:34:16.974,-4.5,-13.8126
11:34:16.978,-4.0625,-15.0001
11:34:16.980,-4.875,-16.3751
11:34:16.982,-6,-17.0001
11:34:17.011,-7.125,-18.3126
11:34:17.012,-7.5,-20.0001
11:34:17.014,-8.3125,-21.5001
11:34:17.022,-8.875,-21.1876
11:34:17.056,-8.75,-22.8126
11:34:17.058,-9.4375,-23.4376
11:34:17.060,-9.6875,-23.4376
11:34:17.088,-10,-24.6876
11:34:17.088,-10.6875,-25.2501
11:34:17.090,-11.0625,-26.6251
11:34:17.097,-11,-26.6251
11:34:17.099,-11.5,-27.3751
11:34:17.107,-11.1875,-27.5626
11:34:17.118,-11.8125,-27.6251
11:34:17.128,-11.6875,-28.0626
11:34:17.138,-12.0625,-29.1251
11:34:17.148,-12.5625,-29.0626
11:34:17.158,-12.75,-30.6251
11:34:17.168,-13.6251,-29.3751
11:34:17.177,-14.1876,-31.7501
11:34:17.187,-14.3751,-31.4376
11:34:17.198,-13.9376,-31.9376
11:34:17.207,-13.6251,-32.4376
11:34:17.218,-14.8751,-33.5626
11:34:17.228,-15.9376,-33.2501
11:34:17.237,-16.2501,-34.1251
11:34:17.247,-16.1251,-35.3126
11:34:17.264,-15.6876,-33.9376
11:34:17.270,-13.3751,-30.7501
11:34:17.278,-10.5625,-27.2501
11:34:17.288,-7.3125,-20.0001
11:34:17.297,-2.25,-13.8751
11:34:17.307,1.5625,-5.1875
11:34:17.319,6.0625,1.375
11:34:17.327,8.75,6.625
11:34:17.337,11.0625,11.875
11:34:17.347,13.2501,15.1251
11:34:17.357,14.6876,19.0001
11:34:17.368,15.3126,20.0001
11:34:17.378,16.0626,22.0626
11:34:17.388,16.0001,21.9376
11:34:17.398,16.2501,23.0626
11:34:17.407,16.6876,23.1876
11:34:17.417,15.9376,23.5626
11:34:17.428,16.1876,24.1251
11:34:17.438,16.6876,23.4376
11:34:17.447,16.0001,24.8126
11:34:17.457,16.2501,23.6251
11:34:17.468,16.3126,23.1876
11:34:17.477,16.1251,22.1876
11:34:17.487,15.5626,22.1251
11:34:17.498,15.8126,21.6876
11:34:17.508,15.0001,20.0626
11:34:17.518,13.0625,17.4376
11:34:17.528,11.375,14.5626
11:34:17.537,9.4375,11.6875
11:34:17.548,7.4375,10.1875
11:34:17.560,6.375,6.9375
11:34:17.568,6,4.75
11:34:17.577,4.8125,3.6875
11:34:17.587,3.875,3.5625
11:34:17.598,4.5625,2.6875
11:34:17.608,4.625,1.9375
11:34:17.618,3.6875,1.6875
11:34:17.628,3.375,1.125
11:34:17.639,3.375,1.625
11:34:17.654,4.1875,0.625
11:34:17.659,3.6875,0.25
11:34:17.685,3.5,1.1875
11:34:17.688,3.3125,-0.0625
11:34:17.690,3.0625,-1.5625
11:34:17.735,2.875,-2.1875
11:34:17.735,2.125,-1.625
11:34:17.737,2.3125,-3.4375
11:34:17.740,1.5625,-5.5
11:34:17.746,0.8125,-5.8125
11:34:17.750,1.0625,-6.5625
11:34:17.788,0.4375,-8.5
11:34:17.790,-0.5,-9.625
11:34:17.793,-0.9375,-9.8125
11:34:17.795,-0.6875,-11.625
11:34:17.802,-2.125,-12.75
11:34:17.809,-3.125,-12.3125
11:34:17.826,-3.0625,-13.5626
11:34:17.830,-3.9375,-15.6876
11:34:17.837,-4.75,-16.8751
11:34:17.847,-5.125,-16.6251
11:34:17.858,-5.1875,-17.8751
11:34:17.868,-6.25,-19.3751
11:34:17.877,-6.5,-19.0626
11:34:17.888,-7.375,-19.7501
11:34:17.897,-7.125,-20.8751
11:34:17.908,-7.5,-21.3126
11:34:17.919,-7.875,-21.8751
11:34:17.927,-7.875,-22.0001
11:34:17.938,-8.125,-23.2501
11:34:17.947,-8.6875,-22.3751
11:34:17.959,-8.375,-23.8126
11:34:17.968,-8.75,-23.7501
11:34:17.978,-8.9375,-25.6251
11:34:17.987,-10.1875,-24.6876
11:34:17.997,-9.5625,-25.8751
11:34:18.011,-10.3125,-26.3751
11:34:18.018,-10.125,-26.8126
11:34:18.030,-9.9375,-27.9376
11:34:18.038,-9.3125,-26.2501
11:34:18.047,-8.75,-25.5626
11:34:18.057,-6.875,-21.5001
11:34:18.068,-3.3125,-17.0626
11:34:18.077,-0.0625,-10.375
11:34:18.089,4.0625,-3.5
11:34:18.098,7.375,3.125
11:34:18.118,10.6875,10.0625
11:34:18.124,12.9375,14.4376
11:34:18.128,14.7501,18.0001
11:34:18.175,16.6876,21.6251
11:34:18.176,17.9376,23.6251
11:34:18.192,18.6876,25.8126
11:34:18.195,19.1876,26.1251
11:34:18.195,18.9376,26.9376
11:34:18.195,19.8126,27.6876
11:34:18.198,19.0001,27.8751
11:34:18.210,18.8751,28.3751
11:34:18.219,18.7501,27.0001
11:34:18.227,18.1251,28.0001
11:34:18.254,18.4376,27.0001
11:34:18.256,18.1251,27.3126
11:34:18.258,17.6251,26.6251
11:34:18.268,18.4376,25.9376
11:34:18.277,17.8126,24.8126
11:34:18.287,16.3751,22.8126
11:34:18.297,15.3751,21.7501
11:34:18.308,13.8126,19.2501
11:34:18.318,13.125,17.2501
11:34:18.327,11.6875,14.0626
11:34:18.337,10.5625,10.75
11:34:18.347,9.6875,10.9375
11:34:18.358,9.125,8.75
11:34:18.390,9,7.125
11:34:18.393,8.125,8.25
11:34:18.395,9,7.0625
11:34:18.398,8.3125,5.6875
11:34:18.439,7.375,5.75
11:34:18.441,7.3125,6
11:34:18.443,7.75,4.625
11:34:18.447,6.75,4.5625
11:34:18.453,6.75,4.5
11:34:18.459,6.625,2.5
11:34:18.491,5.8125,1.5
11:34:18.493,6.0625,2
11:34:18.496,5.3125,0.125
11:34:18.498,4.625,-0.5625
11:34:18.531,3.625,-1
11:34:18.533,3.4375,-3.1875
11:34:18.535,2.875,-4.6875
11:34:18.542,1.875,-6
11:34:18.550,1.6875,-5.6875
11:34:18.559,0.8125,-7.625
11:34:18.568,0.0625,-9.9375
11:34:18.578,-1.0625,-10.125
11:34:18.587,-1.8125,-10.75
11:34:18.598,-2,-12.125
11:34:18.608,-2.3125,-13.9376
11:34:18.618,-2.75,-14.3126
11:34:18.628,-3.5625,-14.3126
11:34:18.638,-3.375,-15.8126
11:34:18.650,-3.9375,-16.8751
11:34:18.659,-4.125,-17.5001
11:34:18.667,-4.125,-18.0626
11:34:18.678,-4.6875,-17.8751
11:34:18.687,-4.9375,-18.2501
11:34:18.698,-5.0625,-19.2501
11:34:18.708,-5.1875,-20.5001
11:34:18.718,-5.125,-20.1876
11:34:18.728,-5.1875,-21.1251
11:34:18.737,-5.75,-20.8126
11:34:18.747,-5.8125,-22.1251
11:34:18.758,-5.375,-21.5001
11:34:18.767,-6.3125,-23.1251
11:34:18.778,-6.1875,-23.4376
11:34:18.787,-6.625,-24.3751
11:34:18.798,-7.5,-24.5626
11:34:18.806,-7.125,-25.7501
11:34:18.817,-8,-26.3751
11:34:18.828,-7,-26.3126
11:34:18.837,-7.0625,-25.2501
11:34:18.853,-5.75,-23.2501
11:34:18.862,-3,-18.7501
11:34:18.876,0.75,-12.875
11:34:18.887,5.0625,-5.25
11:34:18.898,8.8125,1.9375
11:34:18.908,12.5,9.8125
11:34:18.917,15.9376,14.6251
11:34:18.926,18.4376,20.1251
11:34:18.937,20.1251,22.9376
11:34:18.948,20.8751,25.9376
11:34:18.958,22.1251,27.5001
11:34:18.966,22.1876,28.9376
11:34:18.978,22.8751,29.9376
11:34:18.987,22.6876,30.7501
11:34:18.998,23.1876,30.6251
11:34:19.008,22.5626,30.1876
11:34:19.016,23.1876,31.0626
11:34:19.026,22.1251,31.4376
11:34:19.037,22.6251,30.2501
11:34:19.048,22.1251,29.3751
11:34:19.058,21.7501,30.2501
11:34:19.067,21.6251,28.6251
11:34:19.077,20.5001,26.1876
11:34:19.086,19.4376,25.1876
11:34:19.098,17.8126,21.9376
11:34:19.107,16.4376,20.0626
11:34:19.116,15.1876,17.4376
11:34:19.151,14.2501,14.6251
11:34:19.153,13.0625,13.8751
11:34:19.155,12.375,11.8125
11:34:19.158,11.8125,10.75
11:34:19.191,11.6875,10.5625
11:34:19.195,12.3125,9.75
11:34:19.196,11.375,8.8125
11:34:19.198,11.375,10.4375
11:34:19.231,11.625,9.3125
11:34:19.232,11.25,8.3125
11:34:19.234,11.25,8.5625
11:34:19.242,11.9375,7.5
11:34:19.248,11.4375,6.8125
11:34:19.276,10.9375,5.9375
11:34:19.278,10.5,6.25
11:34:19.280,10.3125,4.5625
11:34:19.302,9.4375,3.375
11:34:19.306,8.4375,3.5
11:34:19.308,8,1
11:34:19.319,7.5,-0.75
11:34:19.327,5.875,-1.0625
11:34:19.338,5.9375,-2.625
11:34:19.348,6,-3.5625
11:34:19.356,4.5625,-5
11:34:19.366,4.875,-4.75
11:34:19.378,4.5,-7
11:34:19.389,3.6875,-8.0625
11:34:19.398,2.5625,-9.0625
11:34:19.406,2.0625,-9.4375
11:34:19.417,1.3125,-11
11:34:19.427,0.125,-12.6875
11:34:19.442,-0.875,-12.9375
11:34:19.452,-0.125,-12.5625
11:34:19.458,-0.4375,-14.2501
11:34:19.473,-1,-15.3751
11:34:19.488,-1.875,-14.1251
11:34:19.492,-1.9375,-16.3126
11:34:19.500,-2.5625,-16.8126
11:34:19.506,-3.0625,-16.3751
11:34:19.536,-2.8125,-17.4376
11:34:19.537,-3.6875,-18.9376
11:34:19.565,-4.375,-18.6876
11:34:19.566,-4.5,-19.3126
11:34:19.568,-5,-21.6251
11:34:19.571,-5.5,-21.0626
11:34:19.577,-5.4375,-22.4376
11:34:19.586,-6.8125,-23.4376
11:34:19.596,-6.75,-22.5626
11:34:19.606,-6.5625,-22.5001
11:34:19.617,-4.5625,-20.3751
11:34:19.626,-2.25,-16.0001
11:34:19.636,1.1875,-10.625
11:34:19.647,6.0625,-2.8125
11:34:19.656,10.5,5
11:34:19.668,13.4376,12.0625
11:34:19.677,16.6876,17.6251
11:34:19.686,19.1876,21.6876
11:34:19.696,20.3751,24.6876
11:34:19.708,20.9376,28.1251
11:34:19.718,21.9376,28.8126
11:34:19.726,22.1251,29.8751
11:34:19.736,22.7501,31.3126
11:34:19.747,23.5626,30.6876
11:34:19.758,23.0001,30.8126
11:34:19.767,22.4376,32.1876
11:34:19.777,23.1876,30.6876
11:34:19.786,21.9376,30.0626
11:34:19.797,22.3751,29.7501
11:34:19.808,21.5626,29.3126
11:34:19.816,21.0626,29.2501
11:34:19.826,20.1876,27.3126
11:34:19.836,19.0001,25.2501
11:34:19.847,17.7501,24.4376
11:34:19.858,17.5001,21.4376
11:34:19.894,14.5626,18.0626
11:34:19.895,12.75,16.1251
11:34:19.898,12,13.2501
11:34:19.900,11.375,11.6875
11:34:19.929,10.1875,10.4375
11:34:19.933,9.8125,10.4375
11:34:19.934,10.0625,9.4375
11:34:19.938,10.4375,9
11:34:19.971,9.625,9.25
11:34:19.973,9.5,9.6875
11:34:19.975,9.6875,8.5625
11:34:19.978,9.25,7.5
11:34:20.014,9.4375,7.5
11:34:20.015,9.3125,6.75
11:34:20.018,8,5.8125
11:34:20.040,7.3125,5.5625
11:34:20.041,7.5625,3.6875
11:34:20.043,6.5,2.625
11:34:20.050,6.3125,3.1875
11:34:20.063,6.25,1.8125
11:34:20.068,5.875,0.1875
11:34:20.077,4.625,-1.625
11:34:20.086,3.5625,-1.625
11:34:20.097,4.75,-3
11:34:20.106,2.5625,-4.75
11:34:20.116,1.9375,-4.5625
11:34:20.127,2.25,-6.375
11:34:20.137,1.4375,-8.4375
11:34:20.146,0.8125,-8.5625
11:34:20.156,0.625,-9.9375
11:34:20.166,-0.8125,-11.25
11:34:20.178,-1.875,-12.4375
11:34:20.187,-2.25,-13.1876
11:34:20.197,-1.75,-13.8751
11:34:20.207,-2.5,-14.3751
11:34:20.217,-2.6875,-13.7501
11:34:20.227,-2.5,-15.0001
11:34:20.237,-3.125,-16.4376
11:34:20.246,-2.875,-16.2501
11:34:20.256,-3.125,-17.0001
11:34:20.267,-3.6875,-17.2501
11:34:20.276,-3.8125,-18.3751
11:34:20.286,-4.0625,-19.4376
11:34:20.298,-4.8125,-19.0001
11:34:20.307,-5.0625,-21.1251
11:34:20.316,-6.3125,-21.8751
11:34:20.326,-7.25,-22.1251
11:34:20.338,-7.0625,-23.6251
11:34:20.347,-7.375,-22.3751
11:34:20.356,-6.5,-21.8126
11:34:20.367,-3.6875,-17.5626
11:34:20.376,-0.625,-12.875
11:34:20.386,3.3125,-5.9375
11:34:20.396,7,1.0625
11:34:20.406,10.9375,9.375
11:34:20.417,13.8126,14.5001
11:34:20.426,17.7501,21.4376
11:34:20.437,19.7501,25.0626
11:34:20.447,21.0001,29.1876
11:34:20.456,22.1251,30.3751
11:34:20.467,22.7501,33.1251
11:34:20.477,22.5626,33.5626
11:34:20.486,22.8126,34.9376
11:34:20.496,23.3126,34.5001
11:34:20.506,23.1251,35.8126
11:34:20.516,22.5626,35.8751
11:34:20.536,22.7501,35.0626
11:34:20.538,21.8126,35.0626
11:34:20.568,22.2501,35.4376
11:34:20.568,21.1876,33.5626
11:34:20.571,21.0626,34.3126
11:34:20.577,22.1251,34.1251
11:34:20.601,20.8751,32.5626
11:34:20.604,19.1251,30.1876
11:34:20.606,18.1876,29.0626
11:34:20.642,18.3126,26.3126
11:34:20.645,15.6251,23.0626
11:34:20.649,14.0626,22.4376
11:34:20.650,13.3751,19.0626
11:34:20.684,12.6875,17.0626
11:34:20.685,11.8125,16.7501
11:34:20.689,12.4375,15.6251
11:34:20.694,12,15.3126
11:34:20.697,11.25,14.0626
11:34:20.707,11.3125,14.5001
11:34:20.717,11.375,13.8751
11:34:20.727,10.8125,13
11:34:20.737,10.0625,13.7501
11:34:20.747,9.75,11.75
11:34:20.756,9.5,10.625
11:34:20.773,8.625,9.75
11:34:20.781,8,10.4375
11:34:20.826,8.0625,8.4375
11:34:20.827,7.1875,6.625
11:34:20.848,6.1875,6.1875
11:34:20.856,6.3125,4.375
11:34:20.859,5.9375,3.125
11:34:20.874,5.125,2.75
11:34:20.875,4,1.25
11:34:20.875,3.5625,0.375
11:34:20.889,3.5,-1.25
11:34:20.893,1.5,-2.125
11:34:20.906,1.9375,-3.6875
11:34:20.908,0.375,-5.1875
11:34:20.913,-0.1875,-5.9375
11:34:20.917,-0.875,-6.375
11:34:20.926,-0.625,-8.375
11:34:20.937,-1.75,-9.4375
11:34:20.946,-2.375,-10
11:34:20.956,-2.8125,-9.9375
11:34:20.967,-2.625,-11
11:34:20.976,-2.4375,-12.375
11:34:20.986,-3.375,-13.1876
11:34:20.996,-4.5,-14.3126
11:34:21.007,-4.5,-15.3126
11:34:21.018,-5.625,-16.0626
11:34:21.026,-6.3125,-16.3751
11:34:21.036,-7.1875,-15.6876
11:34:21.046,-6.5625,-16.8751
11:34:21.056,-7.25,-18.6251
11:34:21.066,-7.8125,-18.9376
11:34:21.076,-7.875,-19.6876
11:34:21.086,-8.1875,-20.4376
11:34:21.096,-9.0625,-21.5626
11:34:21.107,-8.8125,-21.9376
11:34:21.117,-9.6875,-23.0626
11:34:21.127,-10.3125,-23.4376
11:34:21.137,-9.875,-23.7501
11:34:21.146,-10.375,-23.3751
11:34:21.156,-8.25,-19.1876
11:34:21.167,-5.125,-15.4376
11:34:21.177,-1.1875,-7.625
11:34:21.186,3.8125,-0.6875
11:34:21.198,7.75,8
11:34:21.207,12.3125,14.6251
11:34:21.217,14.3751,21.5626
11:34:21.227,17.1251,25.7501
11:34:21.237,18.7501,30.5001
11:34:21.246,20.8126,32.7501
11:34:21.256,21.5626,36.6876
11:34:21.267,22.5626,37.1876
11:34:21.276,23.1251,39.7502
11:34:21.291,23.5001,40.3127
11:34:21.322,23.5626,40.3752
11:34:21.323,24.2501,42.8752
11:34:21.327,24.5626,42.4377
11:34:21.327,25.1876,43.6877
11:34:21.359,25.1251,43.3752
11:34:21.361,24.7501,44.1252
11:34:21.363,24.8126,44.6252
11:34:21.368,25.4376,44.0002
11:34:21.407,24.8126,43.0627
11:34:21.412,24.5626,42.8127
11:34:21.413,24.5001,41.8752
11:34:21.439,22.3751,39.5627
11:34:21.439,20.9376,37.5626
11:34:21.441,19.8751,34.0626
11:34:21.443,18.3126,31.3126
11:34:21.452,17.1876,30.2501
11:34:21.456,17.3126,27.9376
11:34:21.467,15.4376,25.8751
11:34:21.477,15.6251,25.6876
11:34:21.487,15.0626,26.0001
11:34:21.496,15.8751,24.2501
11:34:21.506,15.3126,23.5001
11:34:21.516,14.7501,22.8751
11:34:21.527,15.1251,23.5001
11:34:21.536,13.9376,21.7501
11:34:21.547,13.4376,21.0626
11:34:21.556,12.4375,20.3751
11:34:21.566,12.4375,20.2501
11:34:21.580,11.5,19.3126
11:34:21.586,11.4375,17.3751
11:34:21.596,11.8125,16.1876
11:34:21.607,10.625,14.7501
11:34:21.617,9.375,13.9376
11:34:21.626,9.25,13.1876
11:34:21.636,8.6875,10.625
11:34:21.647,7.1875,9.1875
11:34:21.657,6.25,8.6875
11:34:21.666,6.4375,7.625
11:34:21.677,5.375,5.25
11:34:21.686,4.125,3.75
11:34:21.696,3.1875,3.8125
11:34:21.706,3.3125,2.125
11:34:21.716,2.25,-0.1875
11:34:21.726,1.25,-1.375
11:34:21.736,0.9375,-1.1875
11:34:21.747,-0.125,-3
11:34:21.756,-0.375,-5.125
11:34:21.766,-1.25,-5.875
11:34:21.777,-2.4375,-5.8125
11:34:21.787,-2.1875,-7.3125
11:34:21.796,-3,-8.8125
11:34:21.806,-4.1875,-9.5
11:34:21.816,-4.6875,-9.875
11:34:21.826,-5,-11.75
11:34:21.836,-6.125,-12.625
11:34:21.846,-6.1875,-13
11:34:21.857,-5.75,-12.875
11:34:21.866,-5.6875,-13.6876
11:34:21.877,-6.1875,-15.3751
11:34:21.886,-6.875,-15.6876
11:34:21.896,-6.4375,-16.6876
11:34:21.907,-7.1875,-17.6876
11:34:21.916,-7.5,-18.2501
11:34:21.927,-8.375,-19.3751
11:34:21.936,-8.5,-20.5001
11:34:21.946,-9,-20.6876
11:34:21.957,-8.4375,-20.3751
11:34:21.994,-7.3125,-19.6251
11:34:21.997,-4.9375,-15.5626
11:34:21.999,-1.25,-9.875
11:34:22.000,2.875,-2.9375
11:34:22.006,7.5625,4.1875
11:34:22.043,11.25,12.3125
11:34:22.043,14.4376,19.0001
11:34:22.047,17.1876,23.5626
11:34:22.052,19.1251,28.8126
11:34:22.059,20.1251,31.7501
11:34:22.092,21.3126,34.7501
11:34:22.094,22.1251,37.2501
11:34:22.123,21.3751,38.5626
11:34:22.145,23.2501,39.8752
11:34:22.160,20.9376,40.3127
11:34:22.161,21.6876,40.7502
11:34:22.161,24.5626,42.8752
11:34:22.162,25.5626,44.9377
11:34:22.178,24.2501,43.1877
11:34:22.193,22.6251,43.6877
11:34:22.194,21.8126,42.6252
11:34:22.194,21.5001,42.0002
11:34:22.195,23.5001,44.1877
11:34:22.210,24.1876,43.9377
11:34:22.225,24.0001,42.2502
11:34:22.227,21.9376,40.8127
11:34:22.243,20.6876,38.0001
11:34:22.245,18.4376,34.2501
11:34:22.249,17.3126,32.5626
11:34:22.257,16.8126,30.0001
11:34:22.266,15.5001,28.3751
11:34:22.276,14.6251,26.3751
11:34:22.286,14.1876,25.1876
11:34:22.296,13.8126,25.0001
11:34:22.307,13.4376,24.8751
11:34:22.316,12.6875,23.6876
11:34:22.331,11.9375,22.7501
11:34:22.338,11.6875,22.1876
11:34:22.346,11.5625,22.1251
11:34:22.356,10.5,21.6251
11:34:22.367,9.6875,20.7501
11:34:22.376,8.625,19.3751
11:34:22.387,8.4375,17.4376
11:34:22.397,6.9375,16.0626
11:34:22.406,6.625,14.7501
11:34:22.417,5.1875,12.3125
11:34:22.426,3.8125,12.1875
11:34:22.437,3.6875,10.5
11:34:22.447,1.875,8.3125
11:34:22.457,0.0625,7.5625
11:34:22.467,-1.25,6
11:34:22.477,-2.3125,3
11:34:22.486,-4.6875,1.375
11:34:22.497,-6.5,0.3125
11:34:22.506,-7.875,-1.75
11:34:22.516,-9.4375,-4.0625
11:34:22.527,-11.8125,-5.25
11:34:22.537,-13,-6.3125
11:34:22.547,-14.3751,-8.75
11:34:22.557,-16.3751,-10.75
11:34:22.568,-17.5626,-11.0625
11:34:22.577,-18.4376,-11.3125
11:34:22.586,-19.0626,-12.875
11:34:22.598,-20.3751,-14.1876
11:34:22.606,-22.3751,-14.5626
11:34:22.616,-23.3126,-15.5626
11:34:22.626,-27.3126,-17.3751
11:34:22.636,-29.3751,-17.9376
11:34:22.647,-33.2501,-19.5001
11:34:22.656,-35.0001,-20.9376
11:34:22.667,-37.6251,-22.3751
11:34:22.676,-39.9377,-22.8751
11:34:22.687,-43.6877,-24.9376
11:34:22.701,-45.9377,-25.1876
11:34:22.707,-47.6252,-27.3751
11:34:22.735,-49.5627,-27.3751
11:34:22.738,-50.5002,-29.3751
11:34:22.741,-52.2502,-29.3751
11:34:22.746,-52.1252,-31.2501
11:34:22.777,-53.5627,-31.7501
11:34:22.780,-53.1877,-32.8751
11:34:22.783,-53.9377,-32.8126
11:34:22.788,-52.5002,-33.8751
11:34:22.796,-52.0002,-31.7501
11:34:22.835,-49.6252,-30.3126
11:34:22.837,-46.9377,-24.9376
11:34:22.839,-43.1252,-20.4376
11:34:22.843,-39.5627,-14.0626
11:34:22.847,-35.3126,-7.5
11:34:22.882,-31.6876,-0.75
11:34:22.883,-28.1251,4.9375
11:34:22.885,-24.6876,10.3125
11:34:22.890,-22.2501,14.9376
11:34:22.902,-19.7501,19.1251
11:34:22.910,-17.4376,21.6251
11:34:22.922,-16.1876,25.4376
11:34:22.931,-14.7501,27.0626
11:34:22.940,-14.3751,28.9376
11:34:22.951,-12.9375,30.5626
11:34:22.961,-12.1875,32.3126
11:34:22.970,-11.6875,34.0626
11:34:22.981,-11.1875,34.0626
11:34:22.991,-10.375,35.1251
11:34:23.002,-8.8125,35.9376
11:34:23.011,-8.5625,36.1876
11:34:23.021,-7.75,37.6251
11:34:23.031,-7.6875,37.0626
11:34:23.041,-7.625,36.5626
11:34:23.052,-7.9375,35.3126
11:34:23.060,-9.1875,33.7501
11:34:23.071,-9,31.3126
11:34:23.080,-9.5,29.1876
11:34:23.090,-10.125,28.7501
11:34:23.100,-10.0625,26.6251
11:34:23.111,-11.75,25.4376
11:34:23.122,-11.75,24.5626
11:34:23.132,-11.875,24.5626
11:34:23.141,-12,24.8126
11:34:23.152,-11.125,23.3126
11:34:23.162,-11.9375,23.8751
11:34:23.170,-11.8125,22.8751
11:34:23.182,-11.8125,21.5626
11:34:23.191,-11.25,22.9376
11:34:23.201,-11,21.5626
11:34:23.210,-10.1875,21.8126
11:34:23.221,-10.5,20.9376
11:34:23.231,-11.125,20.5626
11:34:23.240,-10.5625,20.3126
11:34:23.257,-11.125,18.7501
11:34:23.261,-10.9375,18.0626
11:34:23.271,-12.25,16.8126
11:34:23.281,-12.5625,15.8751
11:34:23.291,-12.5625,14.3126
11:34:23.301,-13.6876,11.625
11:34:23.313,-13.6876,11.375
11:34:23.322,-14.9376,10.125
11:34:23.332,-14.6876,7.875
11:34:23.340,-15.8751,6.4375
11:34:23.372,-16.5626,4.6875
11:34:23.374,-17.1251,2.375
11:34:23.377,-17.6251,1.625
11:34:23.382,-18.6876,-1.125
11:34:23.391,-19.3126,-1.8125
11:34:23.400,-19.6876,-3.6875
11:34:23.410,-20.9376,-5.375
11:34:23.422,-20.7501,-6.75
11:34:23.430,-22.0626,-9.6875
11:34:23.446,-22.8126,-10.125
11:34:23.454,-22.7501,-12.25
11:34:23.468,-23.6876,-13.5001
11:34:23.495,-24.1876,-15.0001
11:34:23.498,-25.1251,-17.4376
11:34:23.601,-25.5626,-17.8751
11:34:23.601,-26.5001,-21.1251
11:34:23.602,-25.6876,-22.9376
11:34:23.615,-26.2501,-26.3126
11:34:23.617,-27.0626,-30.0001
11:34:23.622,-28.2501,-32.3126
11:34:23.622,-29.8751,-34.1876
11:34:23.637,-30.6876,-36.1876
11:34:23.640,-33.0001,-36.9376
11:34:23.651,-33.0001,-37.9376
11:34:23.656,-34.8126,-38.7501
11:34:23.665,-36.1251,-39.4377
11:34:23.675,-36.1251,-40.8127
11:34:23.686,-36.4376,-39.8752
11:34:23.697,-35.0626,-39.3127
11:34:23.705,-33.8126,-34.5626
11:34:23.716,-30.8751,-30.1251
11:34:23.726,-27.9376,-24.8751
11:34:23.735,-24.9376,-16.6251
11:34:23.747,-20.8751,-9.75
11:34:23.755,-18.5626,-3.875
11:34:23.767,-16.3126,1.5625
11:34:23.775,-15.1876,6.1875
11:34:23.786,-29.7501,26.2501
11:34:23.797,-31.2501,25.0626
11:34:23.806,-33.5001,25.8751
11:34:23.815,-34.7501,25.5626
11:34:23.825,-37.1251,26.0001
11:34:23.838,-38.3751,24.6876
11:34:23.846,-41.3752,25.3126
11:34:23.855,-43.2502,22.2501
11:34:23.865,-45.3127,20.3126
11:34:23.875,-47.3127,18.2501
11:34:23.885,-49.0627,15.6251
11:34:23.895,-50.5002,13.5001
11:34:23.905,-50.6252,12.6875
11:34:23.916,-50.8752,10.5625
11:34:23.926,-50.0002,9.5
11:34:23.935,-49.7502,8.1875
11:34:23.945,-49.2502,9.3125
11:34:23.955,-47.0002,7.875
11:34:23.966,-46.5002,8.125
11:34:23.975,-45.3127,7.125
11:34:23.985,-44.0002,7.4375
11:34:23.995,-42.6877,7.25
11:34:24.006,-41.2502,6.3125
11:34:24.015,-40.6877,6.5625
11:34:24.027,-39.8127,5.5
11:34:24.036,-38.6251,5.8125
11:34:24.045,-37.8751,4.3125
11:34:24.055,-36.7501,4.3125
11:34:24.065,-35.5626,3.9375
11:34:24.075,-36.3126,2.25
11:34:24.085,-36.2501,1.625
11:34:24.095,-35.3751,-0.4375
11:34:24.105,-35.6876,-1.0625
11:34:24.115,-35.6251,-3.875
11:34:24.125,-35.7501,-5.125
11:34:24.135,-35.0626,-7.6875
11:34:24.145,-36.5001,-8.5
11:34:24.156,-35.8751,-11.5
11:34:24.165,-36.1876,-13.6876
11:34:24.175,-36.4376,-15.1251
11:34:24.186,-37.5001,-16.4376
11:34:24.197,-37.3751,-18.6251
11:34:24.205,-37.8751,-20.8126
11:34:24.215,-37.9376,-20.7501
11:34:24.226,-38.8751,-23.0626
11:34:24.258,-40.1877,-24.3751
11:34:24.259,-40.6877,-25.7501
11:34:24.262,-41.6877,-27.3126
11:34:24.269,-41.1877,-27.6251
11:34:24.303,-42.2502,-28.2501
11:34:24.305,-41.9377,-29.0626
11:34:24.307,-43.2502,-30.0626
11:34:24.309,-43.1252,-31.0001
11:34:24.338,-43.9377,-31.8126
11:34:24.339,-44.6877,-32.0001
11:34:24.341,-44.6252,-33.3751
11:34:24.349,-45.5627,-32.6876
11:34:24.363,-45.2502,-34.3126
11:34:24.369,-45.6877,-34.0626
11:34:24.393,-45.7502,-35.3126
11:34:24.395,-45.9377,-35.3126
11:34:24.398,-46.3127,-35.8751
11:34:24.423,-46.3127,-35.6251
11:34:24.425,-45.7502,-36.3126
11:34:24.428,-45.4377,-33.2501
11:34:24.435,-43.5627,-30.6876
11:34:24.446,-41.3127,-24.5001
11:34:24.455,-38.3751,-19.0001
11:34:24.465,-36.3751,-11.8125
11:34:24.475,-34.3751,-6.25
11:34:24.485,-31.5626,-0.8125
11:34:24.496,-29.8126,5.0625
11:34:24.506,-28.2501,8.9375
11:34:24.515,-27.7501,13.0625
11:34:24.525,-26.9376,15.6876
11:34:24.535,-25.4376,18.2501
11:34:24.545,-25.0626,21.5626
11:34:24.555,-23.7501,22.1876
11:34:24.565,-23.1876,25.3751
11:34:24.576,-22.3751,26.0626
11:34:24.585,-21.1251,26.6876
11:34:24.595,-20.2501,28.7501
11:34:24.606,-19.2501,28.0001
11:34:24.615,-18.3126,29.1251
11:34:24.625,-16.5001,29.5626
11:34:24.653,-16.3126,29.1251
11:34:24.655,-16.0001,29.4376
11:34:24.658,-14.8126,27.2501
11:34:24.666,-15.3126,25.6876
11:34:24.676,-14.8751,25.0001
11:34:24.685,-14.6251,21.5001
11:34:24.695,-15.1876,20.3126
11:34:24.705,-14.1876,18.4376
11:34:24.715,-14.3126,16.9376
11:34:24.725,-14.3751,16.4376
11:34:24.735,-13.5001,14.5626
11:34:24.745,-13.5001,14.3126
11:34:24.755,-12.9375,14.2501
11:34:24.766,-12.4375,12.5
11:34:24.775,-12,12.0625
11:34:24.803,-11.9375,10.9375
11:34:24.816,-12.125,10.9375
11:34:24.819,-12.0625,11
11:34:24.834,-11.3125,9.125
11:34:24.835,-11.8125,6.4375
11:34:24.850,-12.625,5.125
11:34:24.852,-12.875,3.5625
11:34:24.860,-12.9375,1.5
11:34:24.865,-13.6876,-1.5
11:34:24.882,-13.9376,-2
11:34:24.885,-14.3751,-3.75
11:34:24.900,-15.2501,-4.375
11:34:24.915,-16.5001,-6.0625
11:34:24.917,-16.7501,-9.25
11:34:24.933,-18.3126,-10.125
11:34:24.935,-19.1876,-12.5625
11:34:24.946,-20.3751,-15.3126
11:34:24.955,-21.8126,-16.5001
11:34:24.965,-22.7501,-18.0001
11:34:24.975,-24.3751,-19.9376
11:34:25.009,-25.8126,-22.3126
11:34:25.012,-27.8751,-22.8751
11:34:25.014,-28.7501,-23.6876
11:34:25.017,-29.8126,-25.9376
11:34:25.047,-31.9376,-26.8126
11:34:25.050,-32.6876,-28.3751
11:34:25.055,-33.8751,-29.0626
11:34:25.056,-33.7501,-28.3751
11:34:25.096,-34.8751,-29.8126
11:34:25.097,-35.1251,-30.0001
11:34:25.103,-35.0001,-30.8126
11:34:25.142,-36.3751,-30.8751
11:34:25.142,-37.4376,-30.8751
11:34:25.142,-37.8126,-32.2501
11:34:25.143,-38.6876,-32.2501
11:34:25.150,-38.8751,-33.7501
11:34:25.153,-41.1252,-33.6876
11:34:25.155,-42.8127,-36.0626
11:34:25.168,-45.6252,-37.1876
11:34:25.176,-46.9377,-38.5001
11:34:25.185,-49.1252,-40.8127
11:34:25.195,-50.6252,-40.3752
11:34:25.205,-52.5627,-41.8752
11:34:25.215,-53.4377,-42.5627
11:34:25.225,-53.8127,-42.6877
11:34:25.235,-53.1252,-40.1877
11:34:25.245,-50.8752,-35.9376
11:34:25.255,-47.9377,-30.7501
11:34:25.265,-44.8752,-23.0626
11:34:25.275,-41.1252,-17.3126
11:34:25.285,-37.7501,-10.5625
11:34:25.295,-33.8751,-5
11:34:25.305,-30.6251,-0.5625
11:34:25.315,-28.1251,3.375
11:34:25.325,-24.9376,7.1875
11:34:25.335,-21.9376,10.4375
11:34:25.345,-19.2501,13.6251
11:34:25.355,-16.8126,16.6251
11:34:25.365,-14.0001,18.9376
11:34:25.375,-12.8125,21.4376
11:34:25.385,-10.3125,23.4376
11:34:25.395,-9.25,24.5626
11:34:25.405,-6.875,26.0001
11:34:25.416,-6.625,27.2501
11:34:25.425,-4.9375,28.4376
11:34:25.435,-4,27.7501
11:34:25.445,-3.25,28.3751
11:34:25.455,-2.5625,28.6876
11:34:25.465,-2.0625,28.2501
11:34:25.475,-2.25,26.8126
11:34:25.485,-2.5625,24.5626
11:34:25.496,-2.9375,22.3751
11:34:25.505,-2.125,19.9376
11:34:25.515,-4.5,18.0626
11:34:25.525,-5.1875,16.0001
11:34:25.535,-5.4375,13.5001
11:34:25.554,-5.5,11.4375
11:34:25.557,-6.1875,10.125
11:34:25.568,-6.3125,8.1875
11:34:25.575,-6.5625,7.125
11:34:25.585,-7.0625,4.3125
11:34:25.595,-6.625,3.75
11:34:25.605,-7.625,2.3125
11:34:25.615,-9.125,1.375
11:34:25.625,-10.4375,0.375
11:34:25.635,-11.1875,-2.0625
11:34:25.645,-13.3751,-2.1875
11:34:25.655,-14.5001,-3.75
11:34:25.688,-15.8126,-5.8125
11:34:25.689,-17.1876,-6.0625
11:34:25.692,-18.8126,-8.4375
11:34:25.695,-20.4376,-9.0625
11:34:25.732,-21.3751,-10.4375
11:34:25.733,-23.0626,-12.5
11:34:25.735,-25.1251,-12.125
11:34:25.738,-26.5626,-14.5001
11:34:25.771,-27.9376,-16.3126
11:34:25.773,-28.6251,-15.7501
11:34:25.775,-29.9376,-17.6876
11:34:25.783,-30.3751,-17.3126
11:34:25.794,-31.6876,-19.0626
11:34:25.796,-32.1251,-20.0001
11:34:25.827,-33.6251,-20.2501
11:34:25.830,-34.3751,-21.2501
11:34:25.831,-35.8751,-21.8751
11:34:25.839,-37.1251,-22.6251
11:34:25.847,-38.4376,-24.5001
11:34:25.857,-39.6877,-25.7501
11:34:25.865,-41.0627,-27.2501
11:34:25.875,-42.6877,-27.4376
11:34:25.885,-44.3127,-29.4376
11:34:25.895,-45.5002,-29.6251
11:34:25.905,-46.8752,-30.8751
11:34:25.933,-47.6877,-31.5626
11:34:25.935,-48.6252,-32.8751
11:34:25.937,-49.6252,-32.9376
11:34:25.952,-50.1877,-35.1876
11:34:25.955,-50.4377,-35.5626
11:34:25.965,-51.5002,-37.6251
11:34:25.975,-51.6877,-37.7501
11:34:25.985,-52.1252,-39.7502
11:34:25.995,-52.2502,-40.5002
11:34:26.006,-52.1252,-42.5627
11:34:26.015,-51.5002,-42.1252
11:34:26.027,-51.5002,-44.1252
11:34:26.036,-51.1877,-43.6252
11:34:26.045,-50.0002,-44.6877
11:34:26.055,-48.8127,-43.0627
11:34:26.065,-47.0627,-42.6252
11:34:26.076,-44.0002,-39.7502
11:34:26.086,-40.2502,-35.7501
11:34:26.095,-36.0001,-28.6876
11:34:26.117,-30.8751,-21.8126
11:34:26.119,-26.2501,-16.1251
11:34:26.128,-22.7501,-8.8125
11:34:26.135,-18.7501,-4.9375
11:34:26.150,-16.1876,1
11:34:26.160,-13.3751,2.9375
11:34:26.165,-11.3125,7.5625
11:34:26.175,-8.75,9.125
11:34:26.185,-7.3125,12.5625
11:34:26.200,-5.6875,13.2501
11:34:26.209,-4.375,15.7501
11:34:26.217,-2.8125,15.3751
11:34:26.231,-2.3125,17.4376
11:34:26.234,-0.75,16.3751
11:34:26.249,-0.625,18.0001
11:34:26.255,0.3125,16.8751
11:34:26.265,0.5625,18.9376
11:34:26.275,1.0625,18.0001
11:34:26.285,1.5,17.3126
11:34:26.295,1.125,17.3751
11:34:26.305,0.875,15.6251
11:34:26.315,-0.4375,14.5001
11:34:26.324,-1.1875,12.1875
11:34:26.334,-3.3125,11.5
11:34:26.351,-4.3125,9.5
11:34:26.354,-5.9375,6.75
11:34:26.399,-7.5625,5.8125
11:34:26.399,-8.3125,5.375
11:34:26.402,-10,3.3125
11:34:26.406,-11.6875,2.125
11:34:26.406,-12.5625,2.25
11:34:26.417,-13,2.25
11:34:26.450,-15.0001,0.5625
11:34:26.453,-16.8126,0.4375
11:34:26.455,-17.8751,0.8125
11:34:26.457,-18.9376,-0.625
11:34:26.490,-19.8126,-1.0625
11:34:26.495,-21.6876,-2.1875
11:34:26.498,-22.9376,-3.4375
11:34:26.500,-26.1876,-4.6875
11:34:26.506,-29.5626,-5.8125
11:34:26.529,-32.1876,-8.5625
11:34:26.531,-35.6251,-9.8125
11:34:26.534,-38.8751,-13.0625
11:34:26.546,-42.3752,-16.0626
11:34:26.554,-45.0002,-17.1876
11:34:26.565,-48.0627,-20.4376
11:34:26.575,-51.5627,-22.4376
11:34:26.584,-55.8752,-27.4376
11:34:26.595,-59.2502,-29.1251
11:34:26.605,-63.3752,-33.0626
11:34:26.615,-65.7503,-34.9376
11:34:26.624,-68.9378,-37.8751
11:34:26.635,-71.5628,-39.8752
11:34:26.644,-73.5003,-42.1252
11:34:26.655,-75.6253,-44.1252
11:34:26.664,-77.5003,-46.0627
11:34:26.674,-78.3128,-47.8127
11:34:26.684,-79.3753,-49.3127
11:34:26.702,-79.5003,-51.5627
11:34:26.705,-80.1253,-51.9377
11:34:26.714,-79.9378,-52.6877
11:34:26.724,-79.8753,-54.5627
11:34:26.735,-79.8128,-54.8127
11:34:26.744,-79.1253,-56.5002
11:34:26.755,-79.3128,-57.2502
11:34:26.764,-77.8753,-58.2502
11:34:26.775,-77.6878,-59.3127
11:34:26.784,-76.4378,-59.8752
11:34:26.796,-75.1878,-61.1877
11:34:26.805,-74.1253,-61.6252
11:34:26.814,-74.1878,-62.0002
11:34:26.826,-72.3753,-62.7502
11:34:26.834,-71.8128,-62.9377
11:34:26.846,-70.5003,-63.8752
11:34:26.855,-70.5628,-64.8127
11:34:26.865,-69.1253,-65.1252
11:34:26.874,-68.3128,-65.1877
11:34:26.884,-66.5628,-65.6878
11:34:26.894,-64.8752,-63.6877
11:34:26.904,-61.8127,-60.8752
11:34:26.915,-58.1252,-56.8127
11:34:26.950,-53.7502,-51.2502
11:34:26.953,-50.5002,-44.7502
11:34:26.954,-45.3752,-38.7501
11:34:26.961,-42.3752,-33.8751
11:34:26.971,-39.1251,-29.1251
11:34:26.979,-36.0001,-24.5001
11:34:26.990,-34.5001,-20.5001
11:34:26.999,-31.5001,-18.1876
11:34:27.010,-30.6876,-15.6876
11:34:27.019,-28.5001,-13.1876
11:34:27.029,-28.0626,-11.6875
11:34:27.039,-26.8126,-10.8125
11:34:27.050,-26.2501,-8
11:34:27.059,-26.4376,-8.8125
11:34:27.068,-25.8751,-6.9375
11:34:27.080,-25.7501,-6.125
11:34:27.090,-26.3751,-3.9375
11:34:27.099,-25.1876,-4.125
11:34:27.109,-26.4376,-2.6875
11:34:27.119,-26.6876,-2.5625
11:34:27.129,-26.8126,-3.625
11:34:27.139,-28.1876,-3.75
11:34:27.150,-29.3126,-5.25
11:34:27.159,-32.0001,-6.3125
11:34:27.182,-32.7501,-8.0625
11:34:27.185,-34.3751,-9.625
11:34:27.215,-34.7501,-11.25
11:34:27.215,-36.1251,-11.5
11:34:27.246,-37.0626,-12.4375
11:34:27.250,-38.4376,-12.875
11:34:27.250,-39.3752,-14.3751
11:34:27.251,-41.8127,-14.5626
11:34:27.282,-43.4377,-16.6251
11:34:27.283,-46.2502,-17.4376
11:34:27.285,-47.9377,-18.3126
11:34:27.291,-49.8752,-20.1251
11:34:27.294,-50.6877,-21.0626
11:34:27.300,-52.3127,-21.5001
11:34:27.327,-52.2502,-23.5001
11:34:27.330,-53.1252,-24.2501
11:34:27.332,-53.1877,-25.0626
11:34:27.340,-54.6252,-27.1251
11:34:27.353,-55.7502,-28.0626
11:34:27.360,-55.8127,-29.6251
11:34:27.369,-57.5627,-31.1876
11:34:27.379,-57.5627,-32.5001
11:34:27.389,-58.5002,-34.0001
11:34:27.399,-59.2502,-34.3751
11:34:27.409,-58.9377,-35.8751
11:34:27.420,-59.1252,-36.9376
11:34:27.435,-59.1877,-37.3751
11:34:27.443,-59.0002,-39.1877
11:34:27.450,-58.5627,-38.8751
11:34:27.466,-58.0002,-39.7502
11:34:27.470,-58.3127,-40.6877
11:34:27.484,-57.6877,-41.0002
11:34:27.491,-57.5002,-43.0002
11:34:27.499,-56.9377,-42.4377
11:34:27.516,-56.8127,-44.5002
11:34:27.519,-56.5627,-44.9377
11:34:27.534,-55.8127,-45.6252
11:34:27.549,-55.3752,-45.9377
11:34:27.551,-54.6252,-47.0002
11:34:27.561,-54.2502,-47.1252
11:34:27.569,-53.6877,-48.5627
11:34:27.579,-52.9377,-49.3127
11:34:27.589,-52.2502,-49.8752
11:34:27.599,-52.5002,-49.8752
11:34:27.609,-51.5627,-51.0627
11:34:27.620,-51.7502,-52.5002
11:34:27.629,-51.8752,-52.0002
11:34:27.639,-51.1877,-54.1877
11:34:27.649,-50.6252,-55.1252
11:34:27.659,-50.6252,-55.2502
11:34:27.669,-50.1877,-56.5002
11:34:27.679,-50.0627,-56.8752
11:34:27.690,-50.1252,-58.4377
11:34:27.699,-49.5627,-57.6877
11:34:27.711,-47.2502,-56.0002
11:34:27.720,-46.1252,-53.3127
11:34:27.729,-43.0002,-48.1252
11:34:27.739,-39.4377,-43.1877
11:34:27.749,-35.9376,-36.2501
11:34:27.759,-32.0626,-31.0626
11:34:27.769,-29.6876,-24.1251
11:34:27.779,-26.5626,-20.5001
11:34:27.789,-25.0626,-15.3126
11:34:27.800,-23.4376,-11.8125
11:34:27.809,-22.5001,-9.6875
11:34:27.819,-20.7501,-6.75
11:34:27.830,-20.5001,-5.5
11:34:27.839,-19.5001,-3.5
11:34:27.849,-19.5001,-1.5625
11:34:27.868,-19.0626,-0.4375
11:34:27.870,-19.2501,-0.3125
11:34:27.908,-19.6251,0
11:34:27.909,-19.6876,0.5625
11:34:27.912,-19.7501,0.625
11:34:27.914,-21.4376,-0.25
11:34:27.921,-22.4376,-0.1875
11:34:27.952,-25.1251,-2
11:34:27.954,-27.3126,-3
11:34:27.958,-30.1876,-5.25
11:34:27.963,-33.1251,-7.5625
11:34:27.972,-35.3126,-10.75
11:34:28.003,-39.0626,-13
11:34:28.007,-40.5627,-15.1251
11:34:28.008,-42.0002,-16.4376
11:34:28.010,-44.0002,-18.1876
11:34:28.036,-45.3127,-20.5626
11:34:28.038,-47.2502,-21.4376
11:34:28.041,-47.6877,-23.0626
11:34:28.049,-47.8127,-24.1876
11:34:28.059,-47.9377,-24.0001
11:34:28.071,-48.0002,-25.1876
11:34:28.079,-48.4377,-25.6876
11:34:28.089,-47.5627,-26.2501
11:34:28.099,-47.4377,-25.8126
11:34:28.109,-47.0627,-26.3126
11:34:28.119,-47.1877,-26.6251
11:34:28.129,-46.5002,-27.2501
11:34:28.140,-47.0002,-28.0626
11:34:28.149,-46.6877,-27.9376
11:34:28.160,-46.6252,-28.4376
11:34:28.169,-46.5002,-29.4376
11:34:28.179,-46.3127,-28.8126
11:34:28.189,-45.5627,-30.9376
11:34:28.201,-45.2502,-30.2501
11:34:28.209,-45.6252,-31.7501
11:34:28.219,-45.3127,-32.3751
11:34:28.229,-44.6877,-33.0626
11:34:28.239,-45.1252,-33.8126
11:34:28.250,-44.5627,-35.1876
11:34:28.260,-44.2502,-36.0001
11:34:28.269,-43.7502,-36.5001
11:34:28.279,-43.5002,-37.6876
11:34:28.289,-43.0002,-37.0001
11:34:28.299,-42.0627,-38.8126
11:34:28.309,-42.6252,-38.3751
11:34:28.319,-41.8127,-40.5002
11:34:28.329,-42.0627,-39.8127
11:34:28.340,-41.7502,-42.6877
11:34:28.349,-42.3752,-43.2502
11:34:28.359,-42.1252,-44.8127
11:34:28.369,-42.1252,-44.7502
11:34:28.379,-42.5002,-45.7502
11:34:28.390,-42.1252,-47.8752
11:34:28.399,-41.8127,-47.6252
11:34:28.409,-41.9377,-48.8752
11:34:28.419,-42.4377,-48.6877
11:34:28.430,-41.8127,-50.8127
11:34:28.439,-42.1252,-51.1252
11:34:28.449,-42.2502,-51.8127
11:34:28.459,-42.0002,-52.7502
11:34:28.493,-41.5002,-52.5002
11:34:28.494,-41.6877,-51.5002
11:34:28.497,-39.6252,-49.8752
11:34:28.500,-38.1251,-47.0002
11:34:28.513,-34.9376,-41.0627
11:34:28.520,-31.3751,-35.3126
11:34:28.529,-28.8126,-28.3751
11:34:28.540,-26.0626,-23.0626
11:34:28.549,-23.4376,-17.3126
11:34:28.559,-21.0001,-13.8751
11:34:28.569,-20.7501,-8.4375
11:34:28.580,-19.1876,-7
11:34:28.589,-18.7501,-3.625
11:34:28.599,-17.7501,-2.4375
11:34:28.610,-17.1876,0.1875
11:34:28.619,-15.6251,1.25
11:34:28.629,-15.1876,2.625
11:34:28.674,-13.2501,5.75
11:34:28.676,-12.5625,6
11:34:28.678,-12.0625,7.6875
11:34:28.681,-12.4375,7.625
11:34:28.683,-13.0625,9.5625
11:34:28.713,-14.1251,7.875
11:34:28.715,-15.5001,8.375
11:34:28.717,-16.6251,6.375
11:34:28.722,-18.1876,5.1875
11:34:28.730,-20.0001,3.8125
11:34:28.758,-21.7501,1.9375
11:34:28.760,-23.0001,-0.25
11:34:28.777,-24.9376,-1.625
11:34:28.779,-26.3751,-3.5
11:34:28.781,-27.1876,-6.4375
11:34:28.814,-28.5001,-6.125
11:34:28.815,-29.5626,-8.125
11:34:28.818,-30.3126,-10.3125
11:34:28.836,-30.1876,-9.5
11:34:28.837,-30.5001,-11.3125
11:34:28.852,-31.0626,-11.9375
11:34:28.855,-31.6251,-13.5001
11:34:28.860,-31.6876,-14.4376
11:34:28.869,-31.0626,-14.7501
11:34:28.880,-31.6876,-14.3126
11:34:28.889,-29.8751,-14.6251
11:34:28.899,-30.6876,-13.6251
11:34:28.909,-29.8126,-13.6876
11:34:28.919,-28.6251,-15.1251
11:34:28.930,-28.6251,-14.8751
11:34:28.939,-28.0626,-17.0001
11:34:28.951,-27.7501,-18.5001
11:34:28.959,-27.1876,-18.8126
11:34:28.970,-26.4376,-20.9376
11:34:28.979,-25.4376,-20.7501
11:34:28.989,-24.6876,-22.8751
11:34:28.999,-24.0001,-23.4376
11:34:29.010,-23.4376,-25.3751
11:34:29.019,-23.5001,-26.2501
11:34:29.029,-23.1876,-27.6251
11:34:29.039,-22.3126,-29.1251
11:34:29.049,-21.1876,-30.3126
11:34:29.060,-20.5001,-31.6876
11:34:29.069,-18.5001,-32.4376
11:34:29.079,-17.6876,-34.2501
11:34:29.089,-16.0626,-36.5626
11:34:29.099,-15.1251,-38.6876
11:34:29.109,-15.3751,-40.6877
11:34:29.119,-15.2501,-41.7502
11:34:29.129,-14.8126,-42.9377
11:34:29.139,-13.8751,-44.0002
11:34:29.150,-12.6875,-45.5002
11:34:29.159,-12.375,-47.5002
11:34:29.169,-12.25,-49.6252
11:34:29.179,-11.8125,-50.1877
11:34:29.189,-11.6875,-52.8127
11:34:29.199,-11.9375,-53.2502
11:34:29.209,-11.875,-54.8127
11:34:29.219,-12.125,-55.2502
11:34:29.230,-11.9375,-57.2502
11:34:29.240,-12.1875,-57.1252
11:34:29.249,-12.625,-59.3752
11:34:29.259,-12.8125,-58.8752
11:34:29.269,-13.6251,-61.1252
11:34:29.279,-13.3126,-61.4377
11:34:29.313,-13.8751,-62.5002
11:34:29.315,-13,-60.8752
11:34:29.317,-11.5625,-60.0002
11:34:29.319,-9.375,-54.8752
11:34:29.348,-6.4375,-50.0627
11:34:29.351,-2.625,-42.4377
11:34:29.353,1.125,-36.3126
11:34:29.359,4.375,-29.4376
11:34:29.393,7.5,-23.8126
11:34:29.397,9.3125,-18.2501
11:34:29.397,11.5,-14.8751
11:34:29.433,13.3751,-11.1875
11:34:29.434,14.1876,-9.125
11:34:29.437,15.3126,-6.0625
11:34:29.443,15.8126,-5.375
11:34:29.443,17.3751,-3.25
11:34:29.450,16.7501,-3.125
11:34:29.479,16.7501,-2.1875
11:34:29.482,18.1251,-1.4375
11:34:29.484,17.1876,-1.4375
11:34:29.491,17.3751,-0.3125
11:34:29.500,16.6876,0.1875
11:34:29.510,17.3126,0.5
11:34:29.520,16.3751,0.75
11:34:29.529,16.2501,0.3125
11:34:29.540,15.3751,-0.75
11:34:29.549,14.6876,-0.1875
11:34:29.559,13.6876,-2.75
11:34:29.569,12.125,-5.1875
11:34:29.579,11.1875,-6.5
11:34:29.590,9.875,-9.3125
11:34:29.600,7.875,-11.3125
11:34:29.609,6.5625,-11.125
11:34:29.619,5.875,-13.4376
11:34:29.630,5,-14.0001
11:34:29.640,4.125,-14.4376
11:34:29.651,3.4375,-16.0626
11:34:29.659,2.75,-16.2501
11:34:29.669,2.5,-16.3751
11:34:29.679,1.6875,-17.0626
11:34:29.690,1,-15.9376
11:34:29.699,1.1875,-18.0626
11:34:29.709,-0.3125,-17.6876
11:34:29.719,-0.0625,-19.0001
11:34:29.729,-1.25,-19.4376
11:34:29.739,-2.0625,-19.8751
11:34:29.772,-2.8125,-22.1876
11:34:29.774,-3.0625,-22.3751
11:34:29.776,-3.8125,-23.3751
11:34:29.780,-4.75,-23.6876
11:34:29.790,-4.5,-25.1876
11:34:29.799,-5.875,-25.9376
11:34:29.809,-7.375,-25.9376
11:34:29.819,-6.9375,-28.0001
11:34:29.829,-8.6875,-27.3126
11:34:29.840,-8.75,-29.1876
11:34:29.854,-9.375,-30.5626
11:34:29.859,-10.5,-30.6876
11:34:29.870,-10.4375,-32.0626
11:34:29.879,-10.875,-32.6876
11:34:29.889,-12.0625,-33.8751
11:34:29.899,-12.75,-34.5626
11:34:29.910,-13,-35.6251
11:34:29.919,-13.2501,-35.8751
11:34:29.930,-13.7501,-36.4376
11:34:29.939,-14.1251,-36.9376
11:34:29.949,-14.9376,-37.7501
11:34:29.961,-14.8126,-37.5626
11:34:29.969,-15.1876,-38.1251
11:34:29.979,-15.5626,-38.7501
11:34:29.989,-15.3126,-39.5002
11:34:29.999,-15.3126,-39.0626
11:34:30.009,-16.1251,-40.6252
11:34:30.019,-16.2501,-40.3752
11:34:30.029,-16.6876,-42.3127
11:34:30.045,-16.2501,-41.4377
11:34:30.078,-16.3751,-42.2502
11:34:30.079,-17.0001,-43.4377
11:34:30.082,-17.3751,-43.7502
11:34:30.083,-17.5001,-43.4377
11:34:30.116,-17.8126,-44.5002
11:34:30.119,-18.0001,-44.5627
11:34:30.150,-18.4376,-45.5002
11:34:30.153,-18.1876,-46.1252
11:34:30.155,-18.5626,-46.1877
11:34:30.193,-17.6876,-43.3127
11:34:30.194,-16.2501,-40.8752
11:34:30.194,-13,-36.0001
11:34:30.194,-9.5625,-28.2501
11:34:30.196,-5.75,-22.5001
11:34:30.202,-2,-14.3126
11:34:30.204,1.5,-8.625
11:34:30.211,4.25,-3.625
11:34:30.230,6.8125,2.1875
11:34:30.233,9.25,5.1875
11:34:30.240,9.875,7.5625
11:34:30.249,11.25,10.3125
11:34:30.257,11.9375,11.5625
11:34:30.269,12.375,14.4376
11:34:30.279,12.9375,14.0001
11:34:30.289,13.5626,15.5001
11:34:30.298,13.5001,16.9376
11:34:30.309,13.7501,17.3751
11:34:30.321,14.1876,16.8126
11:34:30.330,14.9376,17.8751
11:34:30.339,14.4376,18.3126
11:34:30.347,14.1876,18.3751
11:34:30.359,14.6251,17.5001
11:34:30.369,13.6251,16.7501
11:34:30.379,13.1876,17.0001
11:34:30.387,13.3126,14.9376
11:34:30.398,11.3125,12.8125
11:34:30.410,9.4375,11.8125
11:34:30.418,9.0625,9
11:34:30.429,7.5,6.3125
11:34:30.439,6.625,5.5625
11:34:30.448,6.375,4.25
11:34:30.458,6.0625,2.25
11:34:30.469,4.6875,1.5625
11:34:30.477,4.875,1.25
11:34:30.488,3.6875,-0.3125
11:34:30.500,4.125,0.9375
11:34:30.510,4.1875,-0.125
11:34:30.518,3.625,-1.1875
11:34:30.529,3,-1.875
11:34:30.538,2.3125,-1.25
11:34:30.549,2,-3.0625
11:34:30.559,1.375,-3.4375
11:34:30.568,0.9375,-3.6875
11:34:30.579,0.4375,-6.125
11:34:30.588,0.0625,-6.625
11:34:30.601,-0.5,-7.5625
11:34:30.611,-1.5625,-8.9375
11:34:30.619,-2.375,-9.75
11:34:30.631,-2.8125,-9.4375
11:34:30.639,-2.8125,-12
11:34:30.647,-3.4375,-13.5001
11:34:30.659,-4.125,-13.8126
11:34:30.669,-4.125,-15.4376
11:34:30.680,-5.125,-17.1251
11:34:30.688,-6.375,-15.8126
11:34:30.699,-6.25,-18.4376
11:34:30.708,-7.25,-18.9376
11:34:30.719,-7.375,-19.5001
11:34:30.729,-8,-21.3751
11:34:30.738,-8.375,-21.3751
11:34:30.749,-8.9375,-23.0001
11:34:30.758,-9.5,-22.8751
11:34:30.768,-10.3125,-24.7501
11:34:30.777,-10.4375,-24.6876
11:34:30.787,-10.9375,-25.8126
11:34:30.797,-11.0625,-26.1251
11:34:30.808,-11.5625,-27.3126
11:34:30.818,-11.75,-26.9376
11:34:30.841,-11.8125,-28.5001
11:34:30.843,-12.5,-29.0001
11:34:30.872,-12.5625,-29.2501
11:34:30.874,-13,-30.3751
11:34:30.877,-14.0001,-31.1251
11:34:30.879,-14.0626,-31.6251
11:34:30.913,-14.9376,-31.4376
11:34:30.916,-14.5626,-33.3751
11:34:30.917,-15.1251,-33.4376
11:34:30.919,-15.8126,-34.4376
11:34:30.950,-15.6251,-35.8126
11:34:30.951,-16.3126,-35.5626
11:34:30.955,-15.3126,-35.0626
11:34:30.980,-14.5626,-32.7501
11:34:30.983,-11.375,-29.6251
11:34:30.987,-9.125,-23.2501
11:34:30.993,-4.6875,-16.9376
11:34:31.017,-1.1875,-9.875
11:34:31.021,1.5625,-2.8125
11:34:31.024,5.0625,1.75
11:34:31.053,7.1875,7.5
11:34:31.055,9.3125,10
11:34:31.061,11,14.2501
11:34:31.065,11.9375,15.5626
11:34:31.074,11.75,18.2501
11:34:31.083,13,18.2501
11:34:31.095,13.4376,20.5626
11:34:31.103,13.4376,19.6876
11:34:31.112,12.9375,20.7501
11:34:31.124,13.2501,20.3126
11:34:31.132,13,20.1251
11:34:31.142,13.1251,20.3751
11:34:31.154,12.625,20.3751
11:34:31.163,12.625,19.5001
11:34:31.173,12.3125,18.6876
11:34:31.183,11.5625,18.3126
11:34:31.194,11,16.8751
11:34:31.203,10.25,15.3751
11:34:31.214,8.5625,11.875
11:34:31.223,6.75,10.6875
11:34:31.233,6.4375,8.0625
11:34:31.242,5.25,6.125
11:34:31.253,4.0625,4.8125
11:34:31.263,3.75,4.1875
11:34:31.273,2.875,3.6875
11:34:31.283,2.875,2.5625
11:34:31.292,2.8125,1.25
11:34:31.302,2.4375,1.75
11:34:31.313,2.25,1.3125
11:34:31.322,2.1875,0.625
11:34:31.333,1.75,-0.4375
11:34:31.356,1,-0.125
11:34:31.361,1.8125,-1.4375
11:34:31.375,1,-2.3125
11:34:31.377,-0.25,-2.0625
11:34:31.383,-0.25,-3.6875
11:34:31.393,-1,-4.9375
11:34:31.405,-1.5625,-5.25
11:34:31.412,-1.0625,-6.8125
11:34:31.429,-2.1875,-8.1875
11:34:31.444,-3.125,-8.9375
11:34:31.446,-4.125,-9.8125
11:34:31.453,-3.5,-10.875
11:34:31.487,-5,-12.8125
11:34:31.490,-6.1875,-13.7501
11:34:31.493,-6.75,-14.1251
11:34:31.495,-6.4375,-16.1251
11:34:31.530,-7.8125,-16.4376
11:34:31.532,-7.75,-16.8751
11:34:31.534,-7.875,-18.9376
11:34:31.536,-8.3125,-19.5001
11:34:31.565,-9.3125,-20.4376
11:34:31.566,-10,-22.0001
11:34:31.569,-9.6875,-21.4376
11:34:31.575,-10.6875,-23.2501
11:34:31.602,-10.875,-23.3126
11:34:31.604,-11.125,-24.3126
11:34:31.606,-11.5,-24.7501
11:34:31.632,-11.625,-25.9376
11:34:31.634,-11.625,-24.9376
11:34:31.637,-12.3125,-27.1876
11:34:31.644,-12,-26.5626
11:34:31.652,-12.875,-27.8126
11:34:31.662,-12.6875,-27.7501
11:34:31.673,-13.6876,-29.5001
11:34:31.683,-13.7501,-29.6251
11:34:31.693,-13.6876,-30.4376
11:34:31.702,-14.6251,-31.4376
11:34:31.713,-14.9376,-32.3126
11:34:31.723,-15.9376,-32.5001
11:34:31.732,-15.3751,-32.6251
11:34:31.743,-16.0626,-33.1876
11:34:31.753,-14.3751,-30.8751
11:34:31.764,-13.2501,-27.6876
11:34:31.774,-9.875,-22.6876
11:34:31.782,-5.875,-16.5626
11:34:31.794,-1.8125,-9
11:34:31.802,1.625,-2.3125
11:34:31.812,4.8125,3.625
11:34:31.823,7.8125,9.4375
11:34:31.832,9.375,13.6876
11:34:31.843,10.6875,17.1251
11:34:31.853,12.5625,19.6251
11:34:31.862,13.6251,21.8751
11:34:31.873,14.5001,23.0626
11:34:31.884,14.6876,24.6876
11:34:31.893,14.8126,25.3126
11:34:31.903,15.3751,26.1876
11:34:31.913,15.1876,26.4376
11:34:31.923,16.0001,27.6251
11:34:31.933,15.1876,27.0626
11:34:31.943,15.6251,27.7501
11:34:31.952,15.8126,27.0626
11:34:31.963,15.5626,27.3126
11:34:31.973,14.8126,27.1251
11:34:31.983,15.0001,26.5001
11:34:31.993,14.5626,25.6876
11:34:32.003,12.75,23.8751
11:34:32.013,12.0625,22.0001
11:34:32.023,10.5,18.7501
11:34:32.034,9.625,17.6251
11:34:32.043,8.625,15.1876
11:34:32.053,7.3125,14.4376
11:34:32.063,7,12.1875
11:34:32.073,6.25,10.9375
11:34:32.083,6.0625,11.5625
11:34:32.093,6.0625,10.1875
11:34:32.102,4.4375,9.6875
11:34:32.113,5.25,9.625
11:34:32.123,5,8.4375
11:34:32.133,4.5,7.75
11:34:32.142,4.5,8.125
11:34:32.153,3.5,6.0625
11:34:32.162,3.5,6.3125
11:34:32.173,2.8125,5
11:34:32.182,2.9375,4.4375
11:34:32.193,2.6875,2.9375
11:34:32.202,1,1.875
11:34:32.212,1.875,0.4375
11:34:32.224,1.0625,-0.5625
11:34:32.233,-0.5,-1.6875
11:34:32.248,-0.25,-1.75
11:34:32.252,-0.8125,-3.6875
11:34:32.279,-1.5625,-4.375
11:34:32.282,-1.4375,-5.9375
11:34:32.284,-2.375,-7.375
11:34:32.322,-3.625,-7.125
11:34:32.323,-3.875,-8.4375
11:34:32.325,-3.5,-10.125
11:34:32.342,-5.125,-11.875
11:34:32.344,-5.4375,-11.3125
11:34:32.345,-5.9375,-14.0001
11:34:32.375,-6.8125,-14.6876
11:34:32.377,-6.4375,-14.4376
11:34:32.379,-7,-16.1876
11:34:32.385,-7.625,-17.2501
11:34:32.413,-8.3125,-16.5626
11:34:32.416,-7.9375,-18.5626
11:34:32.418,-9.375,-19.1251
11:34:32.423,-9.0625,-19.4376
11:34:32.435,-9.375,-19.3751
11:34:32.442,-10.125,-21.5001
11:34:32.453,-10.5,-21.3751
11:34:32.463,-10.625,-22.6251
11:34:32.473,-11.375,-22.8751
11:34:32.483,-11.5,-23.7501
11:34:32.492,-11.8125,-23.9376
11:34:32.503,-12.1875,-25.5626
11:34:32.516,-12.375,-25.3126
11:34:32.524,-13.3126,-26.3751
11:34:32.533,-12.625,-26.9376
11:34:32.542,-13.6251,-27.5001
11:34:32.552,-13.6876,-28.4376
11:34:32.563,-14.1251,-28.1251
11:34:32.573,-13.0625,-27.9376
11:34:32.582,-12.0625,-24.6251
11:34:32.592,-8.625,-20.8126
11:34:32.602,-5.875,-14.5001
11:34:32.613,-1.1875,-8.0625
11:34:32.622,1.9375,-0.375
11:34:32.633,5.625,6.375
11:34:32.643,8,10.75
11:34:32.663,10.375,15.8126
11:34:32.669,12.25,19.2501
11:34:32.684,13.1876,22.6876
11:34:32.686,14.6251,24.1251
11:34:32.692,15.1251,26.7501
11:34:32.703,15.8751,27.3126
11:34:32.724,16.8751,28.4376
11:34:32.726,16.2501,29.1876
11:34:32.741,16.8126,29.7501
11:34:32.744,16.8751,29.1876
11:34:32.753,16.7501,30.8751
11:34:32.763,17.7501,30.3751
11:34:32.773,16.9376,30.4376
11:34:32.783,16.8751,30.8751
11:34:32.793,16.4376,29.6251
11:34:32.803,15.8751,29.3126
11:34:32.813,15.4376,29.5001
11:34:32.823,15.2501,27.0001
11:34:32.833,14.4376,24.8751
11:34:32.842,12.6875,22.4376
11:34:32.853,10.75,21.2501
11:34:32.863,10.0625,18.6251
11:34:32.873,9.375,16.0626
11:34:32.882,8.75,15.8126
11:34:32.893,8.4375,15.5626
11:34:32.902,8.1875,14.1876
11:34:32.913,8.375,12.75
11:34:32.923,7.375,13
11:34:32.933,8,12.625
11:34:32.942,6.875,11.1875
11:34:32.954,6.625,10.5625
11:34:32.964,6.1875,11.0625
11:34:32.973,6.8125,9.9375
11:34:32.996,5.8125,8.875
11:34:32.999,4.9375,8.625
11:34:33.003,5.125,7.8125
11:34:33.043,4.6875,6.6875
11:34:33.044,3.6875,5.625
11:34:33.046,3.25,4.5
11:34:33.049,3.375,2.875
11:34:33.054,2.8125,1.6875
11:34:33.082,1.75,0.125
11:34:33.083,0.9375,-1.5625
11:34:33.086,0.6875,-1.6875
11:34:33.116,1.5,-3.3125
11:34:33.116,0.875,-4.5625
11:34:33.120,-0.875,-5.3125
11:34:33.124,-1.5,-6.25
11:34:33.157,-1.3125,-7.125
11:34:33.159,-2,-9.125
11:34:33.163,-2.6875,-10.4375
11:34:33.164,-3.3125,-11.125
11:34:33.174,-3.125,-12.3125
11:34:33.183,-4.1875,-13
11:34:33.193,-5.25,-13.5626
11:34:33.203,-5.5625,-14.8751
11:34:33.213,-5.5625,-15.8126
11:34:33.223,-6.6875,-17.0001
11:34:33.233,-6.75,-16.8751
11:34:33.243,-7,-17.9376
11:34:33.253,-7.625,-19.3751
11:34:33.266,-7.75,-19.1876
11:34:33.273,-8.0625,-20.1251
11:34:33.283,-8.4375,-21.0626
11:34:33.293,-8.875,-22.2501
11:34:33.303,-9.4375,-23.1251
11:34:33.313,-9.125,-23.6251
11:34:33.322,-10.25,-23.5626
11:34:33.333,-10.125,-24.6876
11:34:33.342,-10.875,-25.2501
11:34:33.353,-11,-25.8751
11:34:33.363,-11.625,-26.1251
11:34:33.373,-11.625,-27.5001
11:34:33.382,-12.0625,-27.3751
11:34:33.393,-12.25,-26.0001
11:34:33.403,-10.25,-24.9376
11:34:33.414,-8.8125,-20.8751
11:34:33.422,-5.125,-16.1876
11:34:33.432,-1.3125,-9
11:34:33.442,2.25,-1.4375
11:34:33.452,5.625,3.9375
11:34:33.463,8.8125,10.8125
11:34:33.472,11.5,15.5626
11:34:33.482,12.9375,19.8126
11:34:33.494,14.8126,23.0001
11:34:33.502,15.9376,24.4376
11:34:33.512,16.1876,26.9376
11:34:33.522,17.6251,27.6251
11:34:33.532,17.8126,28.8126
11:34:33.542,18.3751,29.9376
11:34:33.553,18.5626,31.1251
11:34:33.563,18.7501,30.3751
11:34:33.572,18.6251,30.8126
11:34:33.582,18.6876,30.8751
11:34:33.611,18.6876,29.6876
11:34:33.614,19.1251,30.7501
11:34:33.617,19.3751,30.5626
11:34:33.623,18.3751,29.9376
11:34:33.632,17.2501,28.1876
11:34:33.650,16.7501,27.6251
11:34:33.653,15.3751,24.5001
11:34:33.689,13.7501,23.4376
11:34:33.690,14.1251,20.5626
11:34:33.694,12.1875,18.1251
11:34:33.696,10.9375,16.2501
11:34:33.730,10.25,16.4376
11:34:33.735,9.875,14.4376
11:34:33.736,9.25,13.2501
11:34:33.765,8.375,13.9376
11:34:33.767,8.75,12.6875
11:34:33.770,8.75,11.6875
11:34:33.774,7.875,11.0625
11:34:33.776,8,11.1875
11:34:33.784,7.6875,9.9375
11:34:33.815,6.75,9
11:34:33.817,7,8.75
11:34:33.819,6.5625,7.6875
11:34:33.824,5.375,6.8125
11:34:33.836,4.6875,6.3125
11:34:33.843,4.625,4.5
11:34:33.852,3.75,2.75
11:34:33.864,2.5,2.4375
11:34:33.873,3.0625,0.375
11:34:33.882,1.6875,-1.1875
11:34:33.892,0.875,-1.875
11:34:33.902,0.9375,-3
11:34:33.913,0.0625,-4.375
11:34:33.922,-0.75,-5.875
11:34:33.932,-1.625,-7.1875
11:34:33.943,-2,-7.75
11:34:33.964,-2.25,-9
11:34:33.970,-3.25,-10.25
11:34:33.972,-4.5,-10
11:34:33.987,-4.4375,-12.125
11:34:33.993,-4.625,-13.4376
11:34:34.004,-5.625,-13.6251
11:34:34.020,-6.5625,-14.1876
11:34:34.023,-6.3125,-15.6251
11:34:34.038,-7.375,-17.5626
11:34:34.042,-7.5625,-17.0626
11:34:34.053,-8.375,-18.9376
11:34:34.063,-9.1875,-18.7501
11:34:34.071,-9.6875,-20.5001
11:34:34.084,-10,-20.9376
11:34:34.094,-10.3125,-21.7501
11:34:34.102,-11.0625,-22.0001
11:34:34.113,-12.0625,-23.0626
11:34:34.122,-11.9375,-23.2501
11:34:34.133,-12.8125,-24.7501
11:34:34.143,-13,-24.8751
11:34:34.153,-13.1876,-26.2501
11:34:34.163,-13.9376,-27.0626
11:34:34.173,-14.3126,-27.6876
11:34:34.181,-14.0626,-28.2501
11:34:34.193,-15.1251,-29.5001
11:34:34.202,-14.5626,-28.5001
11:34:34.212,-13.5626,-27.5001
11:34:34.222,-13.3751,-25.2501
11:34:34.232,-9.8125,-20.5626
11:34:34.242,-6.375,-15.5626
11:34:34.251,-2.9375,-6.9375
11:34:34.262,1.3125,-0.625
11:34:34.273,4.0625,5.5625
11:34:34.282,7.3125,12.0625
11:34:34.293,9.3125,15.2501
11:34:34.301,11.25,19.7501
11:34:34.312,12.125,21.7501
11:34:34.322,12.9375,23.3751
11:34:34.333,13.5626,25.9376
11:34:34.342,14.2501,25.8126
11:34:34.352,14.1251,27.4376
11:34:34.363,14.7501,27.0626
11:34:34.372,14.6876,26.6876
11:34:34.381,14.6251,27.8751
11:34:34.396,14.7501,27.3751
11:34:34.403,14.5626,27.5626
11:34:34.412,15.0001,27.5626
11:34:34.422,14.0626,27.0626
11:34:34.433,13.8126,25.8126
11:34:34.442,12.625,25.2501
11:34:34.452,12.0625,24.3751
11:34:34.462,12,21.3751
11:34:34.471,9.75,18.6876
11:34:34.513,8.75,17.4376
11:34:34.514,7.5,15.6876
11:34:34.518,7.625,13.8126
11:34:34.519,6.9375,12.375
11:34:34.523,5.8125,11.0625
11:34:34.552,5.25,10.9375
11:34:34.555,5.625,9.375
11:34:34.557,5.3125,9.75
11:34:34.564,5.5625,10.0625
11:34:34.593,5.5625,8.8125
11:34:34.595,5.125,9.1875
11:34:34.598,4.75,9
11:34:34.602,5.4375,7.875
11:34:34.632,4.5625,6.375
11:34:34.634,4,7.0625
11:34:34.636,4.125,5.5625
11:34:34.644,3,4.8125
11:34:34.657,2.1875,4.125
11:34:34.663,1.875,2.1875
11:34:34.673,1.625,0.5
11:34:34.682,0.625,-0.3125
11:34:34.693,0.25,-1.75
11:34:34.701,-0.125,-2.125
11:34:34.713,-0.875,-4.1875
11:34:34.721,-2.25,-5.1875
11:34:34.733,-2.5,-6.75
11:34:34.742,-3.25,-7.875
11:34:34.753,-4.0625,-9
11:34:34.761,-3.9375,-9.625
11:34:34.772,-4.75,-10.8125
11:34:34.783,-5,-12.375
11:34:34.791,-5.375,-13
11:34:34.801,-5.875,-13.6251
11:34:34.811,-6.5625,-15.1251
11:34:34.821,-7.125,-15.3126
11:34:34.832,-7,-16.0001
11:34:34.844,-7.9375,-17.5626
11:34:34.852,-7.8125,-16.8751
11:34:34.862,-8.1875,-18.8751
11:34:34.891,-8.6875,-18.6876
11:34:34.894,-9.25,-19.7501
11:34:34.896,-10,-20.0626
11:34:34.903,-9.6875,-21.5626
11:34:34.913,-10.8125,-21.2501
11:34:34.923,-11.375,-22.4376
11:34:34.936,-11.375,-23.2501
11:34:34.948,-12.375,-24.0001
11:34:34.956,-11.8125,-25.0001
11:34:34.968,-12.4375,-24.7501
11:34:34.976,-10.9375,-24.4376
11:34:34.987,-10.4375,-22.6251
11:34:34.997,-7.875,-18.9376
11:34:35.008,-4.5625,-12.8125
11:34:35.018,-0.875,-6.5625
11:34:35.026,2.3125,0.5
11:34:35.036,5.5625,6.3125
11:34:35.047,9.0625,12.875
11:34:35.058,11.1875,16.7501
11:34:35.067,13.3751,20.3751
11:34:35.076,14.1251,23.1876
11:34:35.086,14.8126,25.7501
11:34:35.096,15.5626,27.7501
11:34:35.106,16.5001,29.4376
11:34:35.118,16.6251,30.2501
11:34:35.126,16.8751,30.3751
11:34:35.137,16.9376,31.3751
11:34:35.151,17.1876,31.1251
11:34:35.157,17.0001,31.6876
11:34:35.167,17.1876,30.6251
11:34:35.205,16.8751,31.5626
11:34:35.206,17.1251,29.6251
11:34:35.209,16.0001,28.8126
11:34:35.211,15.6251,28.3751
11:34:35.219,14.9376,27.6251
11:34:35.251,13.9376,24.4376
11:34:35.330,12.75,22.3126
11:34:35.332,10.9375,20.8126
11:34:35.332,10.25,18.6251
11:34:35.367,9.625,16.5626
11:34:35.367,8.875,14.9376
11:34:35.367,8.375,14.9376
11:34:35.379,8.9375,14.1876
11:34:35.380,8.4375,13.1876
11:34:35.390,7.9375,13.4376
11:34:35.396,8.4375,12.6875
11:34:35.407,7.75,11.3125
11:34:35.417,8.125,12.4375
11:34:35.426,7.75,10.9375
11:34:35.436,7.625,9.9375
11:34:35.446,7,8.875
11:34:35.456,6.125,9.0625
11:34:35.466,6,8.0625
11:34:35.476,5.0625,6.3125
11:34:35.486,4.75,5
11:34:35.497,4,3.4375
11:34:35.506,3.5,3
11:34:35.516,3,1.125
11:34:35.526,-3,-6.875
11:34:35.536,-2.625,-8.9375
11:34:35.547,-3.5,-10.875
11:34:35.558,-4.625,-10.75
11:34:35.566,-4.6875,-11.5625
11:34:35.578,-4.5625,-12.8125
11:34:35.589,-5.1875,-14.2501
11:34:35.597,-6.0625,-13.4376
11:34:35.606,-5.5625,-14.4376
11:34:35.616,-6.3125,-16.1251
11:34:35.627,-7.375,-16.6251
11:34:35.637,-6.8125,-16.4376
11:34:35.646,-7.625,-17.4376
11:34:35.657,-8.0625,-17.6251
11:34:35.667,-8,-18.3751
11:34:35.677,-8.75,-19.9376
11:34:35.686,-9.4375,-19.1876
11:34:35.696,-9.1875,-21.3126
11:34:35.707,-10.5,-20.6876
11:34:35.717,-10.5625,-22.3751
11:34:35.726,-10.875,-22.1251
11:34:35.736,-11.1875,-23.4376
11:34:35.746,-11.375,-23.8126
11:34:35.758,-10.875,-23.9376
11:34:35.767,-10.125,-22.1251
11:34:35.777,-7.625,-19.8751
11:34:35.786,-5.3125,-12.8125
11:34:35.796,-1.4375,-8
11:34:35.806,2.375,-1.0625
11:34:35.817,5.875,6.1875
11:34:35.826,8.875,11.25
11:34:35.848,11.375,16.6876
11:34:35.851,13.6251,20.1876
11:34:35.878,15.7501,24.6251
11:34:35.879,16.9376,27.4376
11:34:35.881,17.6251,30.0626
11:34:35.888,19.0626,31.1251
11:34:35.923,18.7501,32.3126
11:34:35.925,19.8751,33.7501
11:34:35.927,20.6251,33.6251
11:34:35.930,19.8751,35.3126
11:34:35.960,20.5626,34.8751
11:34:35.962,20.5626,35.8751
11:34:35.964,20.6876,35.8751
11:34:35.970,20.8126,35.8751
11:34:36.003,21.1876,36.6876
11:34:36.008,21.1251,36.1251
11:34:36.008,20.5626,35.3126
11:34:36.031,19.1251,33.3126
11:34:36.031,17.8126,32.5001
11:34:36.033,16.6251,30.5001
11:34:36.036,15.8751,28.5626
11:34:36.046,14.9376,25.3751
11:34:36.056,13.9376,24.8126
11:34:36.067,13.3126,23.0001
11:34:36.076,12.6875,21.2501
11:34:36.086,12.75,19.7501
11:34:36.096,11.875,20.2501
11:34:36.107,11.6875,20.1251
11:34:36.117,11.9375,18.3751
11:34:36.126,11.5625,17.6876
11:34:36.137,11.375,18.3751
11:34:36.147,11.4375,16.6876
11:34:36.175,10.375,15.5626
11:34:36.177,9.75,14.3126
11:34:36.183,9.1875,13.1251
11:34:36.186,8.625,12.8125
11:34:36.196,8.0625,12.3125
11:34:36.206,8.75,11.75
11:34:36.217,7.4375,10.0625
11:34:36.226,6.375,8.5625
11:34:36.237,5.5,7.4375
11:34:36.247,4.75,7.5
11:34:36.257,4.5625,5.0625
11:34:36.266,4.0625,3.875
11:34:36.276,2.6875,2.9375
11:34:36.287,2.5,1.3125
11:34:36.296,2.1875,0.1875
11:34:36.306,0.75,-2.125
11:34:36.317,0.625,-1.5
11:34:36.326,0.0625,-2.5
11:34:36.336,-0.5,-3.875
11:34:36.347,-0.8125,-6.1875
11:34:36.356,-1.25,-5.875
11:34:36.366,-1.125,-6.9375
11:34:36.376,-1.6875,-7.625
11:34:36.386,-2.75,-9.0625
11:34:36.397,-3.6875,-10.0625
11:34:36.406,-4.5625,-9.8125
11:34:36.416,-4.0625,-11.5
11:34:36.426,-4.625,-12.625
11:34:36.436,-5.125,-12.0625
11:34:36.447,-5,-13.3751
11:34:36.457,-5.8125,-14.8751
11:34:36.467,-6.625,-15.6876
11:34:36.476,-6.625,-16.1251
11:34:36.486,-6.875,-16.8126
11:34:36.497,-7.75,-17.6876
11:34:36.506,-7.625,-19.0626
11:34:36.516,-8.8125,-19.5626
11:34:36.526,-9.3125,-18.9376
11:34:36.536,-9.1875,-21.1876
11:34:36.548,-10,-20.8751
11:34:36.556,-9.5,-19.8751
11:34:36.567,-8.25,-18.3126
11:34:36.576,-4.75,-13.7501
11:34:36.586,-2.25,-9.0625
11:34:36.597,1.75,-1.5
11:34:36.638,5.375,4.8125
11:34:36.640,8.5,11
11:34:36.673,11.5,16.6876
11:34:36.707,13.3126,20.9376
11:34:36.710,14.9376,25.1876
11:34:36.712,16.6876,27.0626
11:34:36.713,17.3126,30.5626
11:34:36.713,17.9376,31.1251
11:34:36.751,18.1876,32.7501
11:34:36.791,18.2501,34.3126
11:34:36.794,18.4376,33.5626
11:34:36.794,18.9376,35.3751
11:34:36.795,19.1251,35.3751
11:34:36.799,18.8751,36.3126
11:34:36.802,19.1251,36.6251
11:34:36.810,18.1876,35.9376
11:34:36.810,17.5001,37.5001
11:34:36.811,18.0001,36.6876
11:34:36.818,17.3126,36.1876
11:34:36.828,15.8126,35.4376
11:34:36.836,13.3751,33.8751
11:34:36.846,12.125,32.6251
11:34:36.856,9.875,31.1251
11:34:36.867,7.0625,28.9376
11:34:36.877,1.125,28.4376
11:34:36.886,-0.4375,27.6876
11:34:36.897,-1.375,27.9376
11:34:36.907,-2.375,26.8126
11:34:36.917,-4.0625,26.9376
11:34:36.926,-5.1875,27.3126
11:34:36.936,-5.375,26.8751
11:34:36.946,-5.375,26.8751
11:34:36.957,-7.3125,25.3751
11:34:36.966,-9.25,25.5001
11:34:36.976,-10.9375,23.8751
11:34:36.986,-13.4376,21.7501
11:34:36.997,-16.3126,19.4376
11:34:37.006,-18.0001,18.5626
11:34:37.016,-18.5626,17.5001
11:34:37.026,-16.6251,17.2501
11:34:37.038,-17.1251,16.6876
11:34:37.046,-16.1876,16.8126
11:34:37.056,-15.4376,16.0001
11:34:37.066,-16.1876,14.5626
11:34:37.076,-17.1251,13.7501
11:34:37.086,-16.6876,11.625
11:34:37.097,-16.9376,9.8125
11:34:37.107,-17.8751,8.8125
11:34:37.116,-17.8751,7.9375
11:34:37.127,-18.3126,5.8125
11:34:37.137,-18.9376,5.0625
11:34:37.146,-19.2501,3.625
11:34:37.156,-19.5626,1.625
11:34:37.166,-19.6876,0.9375
11:34:37.176,-19.0626,0.375
11:34:37.186,-19.8751,-0.875
11:34:37.197,-19.8126,-1.125
11:34:37.206,-20.2501,-3.0625
11:34:37.216,-20.5626,-4.375
11:34:37.226,-21.3126,-5.0625
11:34:37.237,-20.9376,-6
11:34:37.247,-21.7501,-7.375
11:34:37.257,-21.8751,-7.25
11:34:37.269,-21.6876,-9
11:34:37.276,-21.9376,-10.5
11:34:37.287,-22.1876,-11.25
11:34:37.297,-22.5626,-11.3125
11:34:37.306,-22.2501,-13
11:34:37.338,-22.6876,-14.5626
11:34:37.341,-22.3751,-14.6876
11:34:37.343,-22.9376,-16.8751
11:34:37.346,-23.0626,-17.8751
11:34:37.379,-22.5001,-17.5626
11:34:37.381,-21.3126,-15.6251
11:34:37.383,-19.7501,-14.2501
11:34:37.387,-16.3126,-9.4375
11:34:37.416,-13.3126,-4.25
11:34:37.418,-9.75,2.25
11:34:37.420,-6.875,8.25
11:34:37.427,-3,14.5001
11:34:37.453,-0.375,19.0626
11:34:37.456,2.1875,23.5626
11:34:37.459,3.5625,26.6876
11:34:37.484,5.875,31.1251
11:34:37.486,6.4375,31.7501
11:34:37.489,7.9375,34.6876
11:34:37.497,9,36.1876
11:34:37.509,9.0625,38.1251
11:34:37.517,10.625,38.9376
11:34:37.527,11,40.5627
11:34:37.537,12.1875,42.0627
11:34:37.547,12.375,42.1877
11:34:37.557,12.5625,43.2502
11:34:37.569,12.625,43.5002
11:34:37.577,12.1875,44.3127
11:34:37.587,11.75,43.0002
11:34:37.598,10.75,41.5002
11:34:37.606,10.0625,41.4377
11:34:37.617,10.5,39.1876
11:34:37.626,8.625,37.0001
11:34:37.636,7.25,36.0001
11:34:37.646,6.3125,34.0626
11:34:37.657,6.0625,31.8126
11:34:37.667,5.6875,31.3126
11:34:37.676,5.6875,31.1251
11:34:37.686,6.1875,30.3126
11:34:37.697,4.75,28.6876
11:34:37.707,4.5,29.1251
11:34:37.717,4.3125,28.9376
11:34:37.726,4.75,27.6876
11:34:37.739,4.3125,26.1876
11:34:37.747,3.8125,26.5626
11:34:37.756,3.75,25.6876
11:34:37.766,3.4375,24.2501
11:34:37.776,3.1875,22.6876
11:34:37.786,2.3125,22.7501
11:34:37.797,2.9375,20.7501
11:34:37.806,1.5,18.8751
11:34:37.817,0.0625,18.7501
11:34:37.826,-0.25,17.2501
11:34:37.837,-0.875,15.6876
11:34:37.847,-1,13.9376
11:34:37.857,-2.1875,11.125
11:34:37.866,-2.8125,11.0625
11:34:37.876,-2.75,9.9375
11:34:37.888,-3.375,7.8125
11:34:37.896,-4.375,6.0625
11:34:37.906,-5.5,5.5625
11:34:37.916,-5.5,4.3125
11:34:37.926,-6.1875,3.3125
11:34:37.935,-5.625,1.1875
11:34:37.947,-6.75,-0.375
11:34:37.956,-7.75,-1.875
11:34:37.967,-8.375,-2.1875
11:34:37.977,-8.375,-4.25
11:34:37.987,-9.0625,-5.0625
11:34:37.997,-8.4375,-5.9375
11:34:38.014,-9.75,-7.125
11:34:38.028,-10.25,-7.3125
11:34:38.030,-9.4375,-9.5625
11:34:38.039,-10.25,-10.9375
11:34:38.046,-10.375,-10.125
11:34:38.062,-10.9375,-11.875
11:34:38.070,-10.8125,-12.5
11:34:38.079,-10.3125,-13.5626
11:34:38.093,-11.5625,-14.0626
11:34:38.097,-11.375,-15.0001
11:34:38.111,-12.1875,-15.3126
11:34:38.116,-12,-16.1251
11:34:38.142,-12.125,-16.0626
11:34:38.144,-11.375,-15.2501
11:34:38.146,-10.75,-13.6251
11:34:38.177,-8,-9.6875
11:34:38.179,-5.125,-3.875
11:34:38.181,-2.375,2.125
11:34:38.208,1.75,7.875
11:34:38.209,4.5625,12.9375
11:34:38.212,7.375,18.3126
11:34:38.218,9.75,21.9376
11:34:38.250,12.3125,26.4376
11:34:38.252,14.8126,30.1876
11:34:38.254,15.0001,33.3751
11:34:38.279,17.2501,35.0626
11:34:38.280,17.8126,37.0626
11:34:38.283,17.6251,39.0001
11:34:38.289,19.0001,39.1876
11:34:38.301,18.7501,40.1252
11:34:38.307,18.4376,41.3127
11:34:38.318,18.3126,41.0002
11:34:38.327,17.6251,41.0627
11:34:38.336,17.2501,40.3127
11:34:38.346,17.5626,42.0627
11:34:38.356,17.1251,39.8752
11:34:38.366,16.3126,40.0627
11:34:38.378,15.8751,38.9376
11:34:38.387,15.0001,37.0001
11:34:38.396,13.6251,34.5001
11:34:38.406,13.1876,33.9376
11:34:38.416,11.625,31.1251
11:34:38.426,10.1875,30.0001
11:34:38.438,10.3125,27.8126
11:34:38.446,8.875,26.6876
11:34:38.457,7.6875,25.6876
11:34:38.466,7.75,24.6251
11:34:38.478,6.9375,22.8126
11:34:38.486,5.8125,22.5001
11:34:38.497,6.3125,21.9376
11:34:38.506,5.6875,20.1876
11:34:38.516,5.125,19.8751
11:34:38.526,5.25,19.5001
11:34:38.537,5.4375,17.3751
11:34:38.546,4.25,16.3126
11:34:38.556,2.8125,15.5001
11:34:38.566,2.5,14.0626
11:34:38.576,1.625,12.25
11:34:38.586,1,11.8125
11:34:38.596,0.875,10.0625
11:34:38.607,0.4375,8.625
11:34:38.616,-0.5,7.5625
11:34:38.626,-0.8125,6.5
11:34:38.637,-1.4375,4.25
11:34:38.646,-2.3125,2.9375
11:34:38.656,-3.0625,1.75
11:34:38.666,-3,-0.125
11:34:38.676,-4.625,-2.125
11:34:38.687,-4.1875,-3.0625
11:34:38.696,-5.8125,-6.3125
11:34:38.706,-5.5,-6.375
11:34:38.732,-6.125,-7.9375
11:34:38.735,-6.4375,-9.9375
11:34:38.737,-7.8125,-12.1875
11:34:38.746,-8.3125,-12.25
11:34:38.756,-8.875,-13.8126
11:34:38.775,-9.75,-14.6251
11:34:38.777,-9.6875,-16.4376
11:34:38.815,-9.625,-16.8126
11:34:38.817,-10.5625,-17.2501
11:34:38.819,-10.75,-18.2501
11:34:38.822,-10.9375,-16.8126
11:34:38.828,-11.0625,-19.0001
11:34:38.858,-11.9375,-18.8126
11:34:38.861,-12.375,-20.0626
11:34:38.863,-13.2501,-20.8126
11:34:38.870,-12.875,-21.8751
11:34:38.885,-13.6251,-22.3751
11:34:38.889,-14.3751,-24.0001
11:34:38.926,-15.0001,-24.5626
11:34:38.928,-14.9376,-25.5626
11:34:38.930,-15.3751,-24.1876
11:34:38.936,-14.7501,-24.7501
11:34:38.937,-14.1251,-24.2501
11:34:38.948,-13.2501,-21.1876
11:34:38.957,-10.625,-18.4376
11:34:38.967,-7.0625,-11.5625
11:34:38.977,-3.875,-5.375
11:34:38.986,-0.25,1.5625
11:34:38.995,3.375,7.0625
11:34:39.006,6.5,14.0001
11:34:39.015,8.8125,18.5001
11:34:39.025,11.3125,23.3751
11:34:39.042,12.8125,26.0001
11:34:39.051,14.1251,28.6251
11:34:39.061,15.3126,30.5626
11:34:39.071,15.9376,32.6876
11:34:39.081,16.8126,34.1251
11:34:39.091,17.7501,34.6876
11:34:39.101,17.0001,36.1251
11:34:39.111,18.0001,36.8751
11:34:39.120,17.5626,36.6251
11:34:39.131,17.8751,38.9376
11:34:39.140,17.6876,38.3126
11:34:39.151,17.0001,39.5002
11:34:39.161,17.9376,38.0001
11:34:39.170,17.0626,38.5001
11:34:39.181,17.0626,37.5626
11:34:39.191,15.7501,35.9376
11:34:39.202,13.6251,34.2501
11:34:39.211,12.75,32.4376
11:34:39.221,11.75,29.4376
11:34:39.230,9.375,27.1251
11:34:39.241,9.4375,25.4376
11:34:39.251,9.125,23.6251
11:34:39.260,7.9375,21.7501
11:34:39.270,7.75,21.9376
11:34:39.281,7,20.0626
11:34:39.293,6.5625,20.0001
11:34:39.300,7,18.3126
11:34:39.321,5.1875,17.0001
11:34:39.324,4.625,17.2501
11:34:39.337,4.1875,14.5001
11:34:39.340,3.3125,13.3751
11:34:39.355,2.75,13.1251
11:34:39.363,2.375,11.25
11:34:39.372,1.6875,9.625
11:34:39.386,0.8125,9
11:34:39.403,0.75,6.9375
11:34:39.404,-0.4375,4.75
11:34:39.419,-0.3125,3.625
11:34:39.421,-0.875,1.625
11:34:39.436,-2.125,-0.25
11:34:39.441,-2.875,-0.75
11:34:39.452,-2.625,-3.125
11:34:39.460,-3.3125,-5.3125
11:34:39.471,-4.3125,-7.5
11:34:39.480,-5.5,-9.4375
11:34:39.490,-6.0625,-9.75
11:34:39.500,-6.1875,-11.6875
11:34:39.511,-7,-13.3751
11:34:39.520,-8.5,-14.9376
11:34:39.531,-8.8125,-14.9376
11:34:39.547,-8.875,-15.9376
11:34:39.551,-9.375,-16.9376
11:34:39.592,-10.375,-17.8126
11:34:39.593,-10.875,-18.9376
11:34:39.597,-11.625,-19.6251
11:34:39.598,-11.9375,-19.3126
11:34:39.603,-12.5,-20.6251
11:34:39.629,-13.3751,-21.5001
11:34:39.632,-13.5001,-22.0001
11:34:39.634,-15.0001,-22.6251
11:34:39.642,-14.7501,-23.3751
11:34:39.680,-15.6876,-24.1251
11:34:39.683,-16.2501,-24.7501
11:34:39.685,-17.3751,-25.5001
11:34:39.689,-16.6876,-27.3126
11:34:39.691,-17.5626,-27.2501
11:34:39.721,-16.6876,-28.3751
11:34:39.723,-17.7501,-28.3126
11:34:39.725,-17.3751,-29.0626
11:34:39.730,-17.5001,-28.5626
11:34:39.741,-17.1251,-27.8751
11:34:39.751,-16.8751,-28.4376
11:34:39.760,-16.5001,-26.5626
11:34:39.773,-15.3126,-24.7501
11:34:39.780,-12.4375,-21.3126
11:34:39.792,-9.375,-15.8751
11:34:39.800,-6.875,-8.9375
11:34:39.810,-2.25,-3.625
11:34:39.820,-0.5,2.6875
11:34:39.831,2.5625,7.9375
11:34:39.841,4.8125,11.9375
11:34:39.850,6.25,15.7501
11:34:39.860,7.9375,18.6876
11:34:39.870,9.5625,22.1251
11:34:39.880,10.75,24.0001
11:34:39.890,11.75,25.1251
11:34:39.901,11.25,26.7501
11:34:39.913,11.6875,27.9376
11:34:39.920,12.6875,28.7501
11:34:39.930,12.6875,30.4376
11:34:39.942,12.625,29.8751
11:34:39.950,12.6875,30.0001
11:34:39.960,12.8125,29.7501
11:34:39.971,13.3126,30.5626
11:34:39.980,13.2501,29.8126
11:34:40.012,12.3125,29.6876
11:34:40.014,11.8125,29.0001
11:34:40.016,11.5625,26.7501
11:34:40.023,10.4375,24.5001
11:34:40.030,9.625,23.5001
11:34:40.044,8.75,20.5001
11:34:40.051,6.5,17.6876
11:34:40.060,5.1875,16.2501
11:34:40.070,5.25,15.2501
11:34:40.082,4.8125,13.2501
11:34:40.090,3.6875,11.75
11:34:40.100,3.5,11.9375
11:34:40.110,3.5,9.75
11:34:40.121,3.125,8.125
11:34:40.131,2.5,7.5625
11:34:40.141,3.125,7
11:34:40.150,2.4375,5.25
11:34:40.161,2.5,5.375
11:34:40.171,2.6875,4.1875
11:34:40.186,2.1875,2.375
11:34:40.190,1.375,0.25
11:34:40.201,1.0625,1.0625
11:34:40.211,0.75,-1.5
11:34:40.220,0.25,-3
11:34:40.231,-0.875,-4.125
11:34:40.253,-1.5,-4.6875
11:34:40.256,-1.9375,-6.4375
11:34:40.281,-2.75,-8.4375
11:34:40.284,-3.625,-8.5
11:34:40.287,-4.875,-9.1875
11:34:40.291,-5.0625,-10.5625
11:34:40.322,-5.5,-12.0625
11:34:40.324,-7.0625,-13.8751
11:34:40.326,-7.9375,-12.875
11:34:40.333,-8.25,-15.0626
11:34:40.360,-8.9375,-16.3751
11:34:40.365,-9.375,-16.6876
11:34:40.365,-10.125,-17.2501
11:34:40.399,-10.125,-18.2501
11:34:40.402,-10.5625,-19.4376
11:34:40.405,-10.9375,-20.1251
11:34:40.409,-11.8125,-21.3126
11:34:40.410,-11.5625,-21.1251
11:34:40.421,-12.0625,-22.3751
11:34:40.430,-12.4375,-22.5626
11:34:40.440,-12.5625,-22.9376
11:34:40.452,-13.3751,-22.6251
11:34:40.460,-12.9375,-23.5626
11:34:40.470,-14.0001,-23.9376
11:34:40.481,-14.1876,-24.1251
11:34:40.490,-14.6251,-24.6251
11:34:40.501,-14.8126,-25.8126
11:34:40.511,-15.3751,-26.5001
11:34:40.520,-16.8751,-26.2501
11:34:40.533,-17.0001,-27.3126
11:34:40.543,-18.0001,-29.3126
11:34:40.550,-18.0001,-29.3751
11:34:40.561,-18.3126,-30.0001
11:34:40.571,-18.8751,-30.6876
11:34:40.580,-18.5626,-28.6876
11:34:40.590,-16.5626,-28.1876
11:34:40.600,-15.3751,-23.9376
11:34:40.611,-12.6875,-19.1251
11:34:40.620,-9.6875,-14.2501
11:34:40.640,-6.0625,-8.1875
11:34:40.647,-2.9375,-2.5625
11:34:40.661,-0.0625,3.25
11:34:40.662,1.9375,7.0625
11:34:40.672,3.25,10.25
11:34:40.680,5.375,12.9375
11:34:40.690,6.1875,14.6251
11:34:40.705,7.375,16.6251
11:34:40.721,7.75,17.9376
11:34:40.724,8.875,19.1876
11:34:40.733,9,18.7501
11:34:40.740,8.6875,20.6251
11:34:40.750,8.4375,19.7501
11:34:40.760,8.5625,21.2501
11:34:40.770,8.5625,19.9376
11:34:40.780,8.875,19.6876
11:34:40.790,9.3125,20.7501
11:34:40.800,10.0625,19.9376
11:34:40.810,8.875,18.8126
11:34:40.820,8.375,17.9376
11:34:40.830,7.8125,16.8751
11:34:40.840,7.75,14.8751
11:34:40.850,6.25,11.75
11:34:40.860,5.625,9.75
11:34:40.870,5.375,7.875
11:34:40.880,4.75,5.9375
11:34:40.890,4,4.375
11:34:40.900,3.3125,2.625
11:34:40.910,3.0625,2.8125
11:34:40.920,3.5625,1.5625
11:34:40.935,2.1875,0.1875
11:34:40.940,1.75,1.5
11:34:40.951,1.3125,0
11:34:40.961,0.5,-1.3125
11:34:40.970,-0.1875,-0.6875
11:34:40.980,-0.125,-1.6875
11:34:40.990,-1.1875,-2.875
11:34:41.000,-2.125,-2.1875
11:34:41.010,-2.4375,-3.9375
11:34:41.020,-3.0625,-5.0625
11:34:41.030,-3.8125,-6.375
11:34:41.043,-5.4375,-6.1875
11:34:41.076,-5.25,-8.0625
11:34:41.077,-6.5625,-7.8125
11:34:41.079,-6.25,-10.25
11:34:41.081,-6.8125,-11.125
11:34:41.116,-7.3125,-11.8125
11:34:41.117,-6.6875,-11.9375
11:34:41.122,-7.5625,-13.7501
11:34:41.124,-7.6875,-12.6875
11:34:41.130,-7.5,-14.3126
11:34:41.163,-7.9375,-14.1876
11:34:41.165,-7.875,-14.8126
11:34:41.168,-8.5,-15.9376
11:34:41.201,-8.6875,-15.4376
11:34:41.203,-9.6875,-16.6251
11:34:41.204,-9.5625,-17.2501
11:34:41.210,-9.8125,-17.8126
11:34:41.212,-9.9375,-18.3126
11:34:41.220,-10.9375,-19.1876
11:34:41.230,-11.3125,-18.6876
11:34:41.240,-11.875,-20.4376
11:34:41.250,-12.625,-20.1251
11:34:41.260,-13.4376,-22.5626
11:34:41.292,-13.8751,-22.1251
11:34:41.294,-14.0001,-23.3126
11:34:41.297,-14.6251,-23.3751
11:34:41.300,-15.1251,-24.6876
11:34:41.313,-16.4376,-25.1876
11:34:41.320,-16.0626,-26.2501
11:34:41.330,-17.3751,-26.6251
11:34:41.340,-17.0626,-28.2501
11:34:41.350,-17.6251,-28.5001
11:34:41.360,-16.0001,-27.8751
11:34:41.370,-16.6251,-26.5626
11:34:41.380,-14.9376,-24.0626
11:34:41.390,-12,-20.8126
11:34:41.400,-9.5,-14.5626
11:34:41.412,-6.375,-10.4375
11:34:41.421,-3.75,-4.5
11:34:41.432,-0.3125,-0.6875
11:34:41.441,1.5625,4.375
11:34:41.450,3,7.6875
11:34:41.460,4.125,9.8125
11:34:41.470,5.5625,12.0625
11:34:41.480,6.4375,13.5001
11:34:41.490,7.3125,15.1876
11:34:41.500,8.3125,16.0626
11:34:41.510,7.5625,16.7501
11:34:41.520,8.75,16.8126
11:34:41.530,8.4375,17.1251
11:34:41.540,9.1875,16.9376
11:34:41.550,8.9375,17.2501
11:34:41.560,9.875,17.4376
11:34:41.570,9.5,17.0626
11:34:41.580,9.875,16.7501
11:34:41.590,9.9375,16.5001
11:34:41.600,9.3125,15.3126
11:34:41.610,8.25,13.125
11:34:41.621,6.875,12.6875
11:34:41.631,6.125,9.375
11:34:41.641,4.75,6.75
11:34:41.651,3.75,4.25
11:34:41.660,2.5625,3.8125
11:34:41.670,2.4375,3.0625
11:34:41.680,2,1.1875
11:34:41.691,1.3125,0.875
11:34:41.700,0.875,1.1875
11:34:41.710,1.375,-0.0625
11:34:41.720,0.6875,-0.9375
11:34:41.730,1.1875,0.5
11:34:41.742,0.25,-0.4375
11:34:41.770,-0.0625,-1.8125
11:34:41.773,-0.5,-2.4375
11:34:41.775,-0.8125,-2.0625
11:34:41.781,-1,-2.9375
11:34:41.813,-1.4375,-3.8125
11:34:41.815,-2.25,-4.6875
11:34:41.818,-3.4375,-5.3125
11:34:41.823,-3.1875,-5.875
11:34:41.851,-3.1875,-6.6875
11:34:41.854,-4.125,-8
11:34:41.856,-4.25,-7.8125
11:34:41.862,-4.625,-8.4375
11:34:41.887,-3.9375,-9.375
11:34:41.890,-4.6875,-10.4375
11:34:41.893,-4.875,-9.8125
11:34:41.900,-4.8125,-11.1875
11:34:41.935,-5.75,-11.9375
11:34:41.941,-5.25,-12.4375
11:34:41.942,-6.75,-13
11:34:41.958,-6.875,-13.6876
11:34:41.965,-7.1875,-14.9376
11:34:41.965,-7.75,-15.0626
11:34:41.973,-8.5,-15.7501
11:34:41.987,-9,-16.8126
11:34:41.996,-10.5,-17.3126
11:34:42.000,-10.875,-18.5001
11:34:42.016,-11.1875,-19.0626
11:34:42.033,-12.5,-19.8126
11:34:42.035,-12.125,-20.8751
11:34:42.052,-13.4376,-20.1876
11:34:42.065,-13.3126,-21.0001
11:34:42.068,-13.2501,-21.8126
11:34:42.085,-12.6875,-21.2501
11:34:42.085,-13.5626,-22.8126
11:34:42.091,-14.1876,-23.6251
11:34:42.100,-14.5001,-24.0001
11:34:42.110,-15.1876,-25.1251
11:34:42.121,-15.5001,-25.1251
11:34:42.130,-15.5626,-26.1876
11:34:42.140,-16.8126,-26.0626
11:34:42.150,-16.8126,-28.0001
11:34:42.160,-16.0001,-28.0626
11:34:42.170,-14.1251,-25.3751
11:34:42.180,-12.4375,-21.9376
11:34:42.191,-9.5625,-16.6876
11:34:42.201,-6,-10.6875
11:34:42.210,-3.0625,-6.125
11:34:42.220,-0.3125,0.3125
11:34:42.230,2,4
11:34:42.240,4.3125,7.25
11:34:42.253,6.3125,10.9375
11:34:42.260,7.4375,12.75
11:34:42.270,8.3125,16.2501
11:34:42.281,8.5625,16.9376
11:34:42.290,10.25,18.0001
11:34:42.300,10.8125,19.3751
11:34:42.310,11.125,20.5001
11:34:42.321,11.375,20.9376
11:34:42.330,12.4375,22.0626
11:34:42.341,12,21.5626
11:34:42.350,12.75,22.3751
11:34:42.360,13.1876,21.8751
11:34:42.370,13,22.4376
11:34:42.380,12.8125,22.2501
11:34:42.390,12.625,21.6876
11:34:42.400,12,22.1251
11:34:42.410,11.6875,20.0001
11:34:42.420,11.1875,18.0001
11:34:42.430,9.3125,15.7501
11:34:42.441,7.9375,15.1876
11:34:42.450,7.6875,11.9375
11:34:42.460,6.6875,10.3125
11:34:42.470,6,8.9375
11:34:42.503,4.8125,9.4375
11:34:42.505,5,8.25
11:34:42.509,4.8125,7.5
11:34:42.510,3.75,7.1875
11:34:42.542,3.6875,7.375
11:34:42.544,3.9375,6.3125
11:34:42.548,3.1875,5.25
11:34:42.575,2.5625,5.25
11:34:42.580,2.125,5.5
11:34:42.581,1.5,4.1875
11:34:42.581,1,2.9375
11:34:42.618,0.75,2.25
11:34:42.620,0.3125,2.3125
11:34:42.623,0.375,0.6875
11:34:42.625,0.3125,0.125
11:34:42.631,-0.375,0.625
11:34:42.650,-0.875,0.125
11:34:42.654,-0.625,-0.3125
11:34:42.660,-0.75,-1.3125
11:34:42.670,-1.625,-2.25
11:34:42.680,-1.3125,-2.875
11:34:42.690,-2.125,-3.9375
11:34:42.700,-3.25,-5.6875
11:34:42.710,-4.25,-5.9375
11:34:42.720,-4.0625,-6.625
11:34:42.730,-5.0625,-7.625
11:34:42.740,-5.4375,-9.3125
11:34:42.750,-6.25,-9.1875
11:34:42.761,-6.1875,-10.75
11:34:42.771,-7,-12
11:34:42.783,-8.125,-12.9375
11:34:42.790,-9.0625,-13.2501
11:34:42.800,-8.875,-14.3126
11:34:42.812,-9.6875,-15.4376
11:34:42.820,-9.8125,-16.2501
11:34:42.831,-10.9375,-17.3751
11:34:42.840,-11.1875,-18.4376
11:34:42.850,-10.875,-19.4376
11:34:42.860,-11.875,-20.7501
11:34:42.870,-11.5,-21.1251
11:34:42.881,-12.6875,-22.7501
11:34:42.890,-13.4376,-23.3751
11:34:42.900,-14.1251,-24.7501
11:34:42.910,-14.2501,-25.9376
11:34:42.920,-15.0626,-27.1876
11:34:42.930,-15.3126,-27.1251
11:34:42.940,-15.7501,-28.5001
11:34:42.950,-16.5001,-28.5626
11:34:42.960,-16.1876,-30.2501
11:34:42.971,-14.8126,-28.0001
11:34:42.981,-12.6875,-26.1876
11:34:42.990,-10.25,-22.5001
11:34:43.000,-7.125,-17.8751
11:34:43.010,-3.3125,-12.3125
11:34:43.020,0.9375,-6.625
11:34:43.030,4.5625,-0.5625
11:34:43.045,8,4
11:34:43.055,10.875,7.625
11:34:43.065,13.5626,11.875
11:34:43.075,15.7501,14.4376
11:34:43.086,16.6876,17.8751
11:34:43.095,18.0626,18.7501
11:34:43.105,18.0001,21.5626
11:34:43.115,18.0626,21.1251
11:34:43.125,18.2501,21.8126
11:34:43.136,17.6876,21.5001
11:34:43.145,16.6251,21.8126
11:34:43.155,16.8126,20.8751
11:34:43.190,15.5626,22.3126
11:34:43.194,15.1876,21.0626
11:34:43.194,14.1876,20.8751
11:34:43.198,13.5001,20.3751
11:34:43.239,12.625,19.8126
11:34:43.242,11.3125,18.7501
11:34:43.243,10.5625,16.8126
11:34:43.246,8.1875,14.2501
11:34:43.251,6.5625,13.2501
11:34:43.255,5.3125,11
11:34:43.349,4.6875,8.6875
11:34:43.351,3.4375,8
11:34:43.353,3.0625,7.625
11:34:43.355,3.4375,6.875
11:34:43.363,2.8125,5.75
11:34:43.364,2.1875,6.6875
11:34:43.364,2.875,6.6875
11:34:43.372,2.8125,5.125
11:34:43.387,2.4375,4.4375
11:34:43.401,1.6875,5.1875
11:34:43.403,2.875,4.875
11:34:43.420,2.4375,4.6875
11:34:43.423,2.375,4.3125
11:34:43.437,2,4.6875
11:34:43.440,1.625,4.875
11:34:43.450,1.75,3.0625
11:34:43.460,1,2.3125
11:34:43.470,0.3125,2
11:34:43.480,-0.125,1.8125
11:34:43.491,-0.3125,0.375
11:34:43.501,-0.5625,-0.3125
11:34:43.512,-1.75,-1.1875
11:34:43.520,-2.3125,-3.1875
11:34:43.530,-7.3125,-9.25
11:34:43.540,-8.5625,-9.4375
11:34:43.550,-8.75,-9.375
11:34:43.561,-9,-9.375
11:34:43.569,-8.5625,-10.1875
11:34:43.580,-9.1875,-11.625
11:34:43.591,-9.5,-12
11:34:43.601,-9.9375,-12.5
11:34:43.610,-10.4375,-12.0625
11:34:43.619,-10.8125,-13.5001
11:34:43.630,-11.3125,-14.2501
11:34:43.640,-11.6875,-13.2501
11:34:43.650,-11.125,-14.6251
11:34:43.658,-11.9375,-15.1251
11:34:43.670,-12.1875,-15.5626
11:34:43.679,-12.3125,-15.8751
11:34:43.690,-12.25,-16.7501
11:34:43.700,-12.75,-16.3751
11:34:43.710,-11.5,-16.8751
11:34:43.720,-10.75,-16.6251
11:34:43.731,-8.875,-17.6251
11:34:43.739,-9.3125,-17.1251
11:34:43.750,-8,-19.0001
11:34:43.761,-7.25,-18.5626
11:34:43.770,-7.5625,-18.9376
11:34:43.779,-7.6875,-18.6251
11:34:43.789,-7.5,-17.1876
11:34:43.800,-3.8125,-13.4376
11:34:43.811,-0.25,-8.3125
11:34:43.824,5.4375,-2.375
11:34:43.852,10.25,4.5
11:34:43.854,15.1251,9.625
11:34:43.856,18.2501,15.5001
11:34:43.865,22.0626,19.1251
11:34:43.875,24.1876,22.5626
11:34:43.885,28.0001,25.6251
11:34:43.895,29.9376,27.2501
11:34:43.907,33.2501,29.6251
11:34:43.915,35.1251,31.8751
11:34:43.924,37.8126,33.3126
11:34:43.935,38.8126,34.7501
11:34:43.947,40.6877,34.6876
11:34:43.955,41.8127,35.0626
11:34:43.966,42.1877,36.4376
11:34:43.995,43.8127,36.9376
11:34:43.998,45.3752,36.7501
11:34:44.000,45.8752,36.0001
11:34:44.006,45.8752,37.8751
11:34:44.035,46.8127,36.9376
11:34:44.037,46.3752,33.0001
11:34:44.040,45.5627,32.1251
11:34:44.046,45.7502,29.3751
11:34:44.078,43.9377,26.9376
11:34:44.081,42.7502,24.5001
11:34:44.083,41.6877,22.7501
11:34:44.086,41.6877,20.7501
11:34:44.120,40.5002,19.1876
11:34:44.123,40.0002,17.9376
11:34:44.125,40.5002,18.1876
11:34:44.154,40.1252,16.6251
11:34:44.154,39.9377,16.3126
11:34:44.156,40.0627,15.6876
11:34:44.164,39.5627,14.9376
11:34:44.165,38.5001,12.3125
11:34:44.176,37.7501,11.75
11:34:44.184,37.5626,10.75
11:34:44.195,36.1876,8.3125
11:34:44.205,35.0626,8.5625
11:34:44.214,35.3126,6.625
11:34:44.224,33.5001,4.5625
11:34:44.235,32.4376,2.8125
11:34:44.246,31.0001,1.625
11:34:44.254,30.0626,-0.0625
11:34:44.264,28.3751,-2.5625
11:34:44.276,27.5001,-3.3125
11:34:44.285,26.1251,-4.8125
11:34:44.297,26.1876,-5.6875
11:34:44.305,25.0001,-8.5
11:34:44.315,23.4376,-9.875
11:34:44.324,21.8126,-11.0625
11:34:44.335,21.3751,-11.5625
11:34:44.347,20.3751,-13.4376
11:34:44.354,19.8751,-13.8126
11:34:44.366,19.6876,-15.8751
11:34:44.374,18.5626,-17.2501
11:34:44.385,17.2501,-18.4376
11:34:44.395,16.2501,-19.1876
11:34:44.404,16.3126,-20.8751
11:34:44.415,14.6876,-21.5626
11:34:44.424,14.4376,-23.0626
11:34:44.435,12.8125,-23.5626
11:34:44.444,12.1875,-24.1876
11:34:44.454,11.75,-25.8751
11:34:44.464,10.5,-26.6876
11:34:44.476,9.6875,-27.1251
11:34:44.484,8.5,-29.6876
11:34:44.494,7.5625,-29.1251
11:34:44.504,7.25,-30.6876
11:34:44.514,5.375,-32.1251
11:34:44.527,4.125,-32.1251
11:34:44.539,3.5625,-34.2501
11:34:44.543,2.625,-36.5626
11:34:44.554,2.1875,-35.3751
11:34:44.565,2.1875,-36.9376
11:34:44.574,2,-35.1876
11:34:44.584,2.875,-34.4376
11:34:44.594,4.4375,-30.1876
11:34:44.605,7.9375,-25.0001
11:34:44.614,10.3125,-19.8751
11:34:44.647,13.6251,-11.9375
11:34:44.650,16.7501,-6.625
11:34:44.678,18.8126,-2.0625
11:34:44.748,21.1876,4
11:34:44.780,23.2501,6.8125
11:34:44.783,24.1876,9.9375
11:34:44.783,25.5001,11.875
11:34:44.783,25.8126,12.6875
11:34:44.811,25.3751,13.1876
11:34:44.813,26.7501,15.9376
11:34:44.826,26.4376,14.8126
11:34:44.828,25.8751,15.8751
11:34:44.828,25.3751,15.2501
11:34:44.829,25.1876,14.8751
11:34:44.833,24.5001,15.8126
11:34:44.841,23.6876,15.7501
11:34:44.849,23.4376,14.0626
11:34:44.859,22.1876,14.2501
11:34:44.869,21.5001,12.8125
11:34:44.879,21.0001,10.8125
11:34:44.889,19.0001,8.6875
11:34:44.905,17.4376,6.5625
11:34:44.912,16.0001,4.625
11:34:44.919,14.6251,1.625
11:34:44.929,11.5625,-3.3125
11:34:44.939,10.9375,-4
11:34:44.949,10.125,-5.3125
11:34:44.960,9.5,-4.4375
11:34:44.970,9.3125,-6.5
11:34:44.980,9.3125,-9.375
11:34:44.992,9.5625,-9.875
11:34:44.999,7.875,-11.25
11:34:45.011,6.6875,-11
11:34:45.019,6.4375,-13.1876
11:34:45.029,5.25,-14.5626
11:34:45.039,4.75,-14.5626
11:34:45.049,4.375,-16.4376
11:34:45.059,2.75,-17.8126
11:34:45.070,2.125,-17.5626
11:34:45.082,2.125,-19.1251
11:34:45.089,0.6875,-21.6251
11:34:45.099,0.4375,-21.3126
11:34:45.131,-0.875,-23.7501
11:34:45.134,-0.375,-23.4376
11:34:45.137,-1.25,-24.4376
11:34:45.141,-2.125,-25.6251
11:34:45.149,-1.625,-26.4376
11:34:45.159,-2.875,-27.7501
11:34:45.170,-3.6875,-27.6876
11:34:45.179,-3.6875,-28.7501
11:34:45.189,-4.5625,-30.9376
11:34:45.201,-4.1875,-30.3751
11:34:45.209,-5.25,-31.4376
11:34:45.220,-5.375,-30.8751
11:34:45.229,-6.125,-31.3751
11:34:45.239,-6.375,-32.3126
11:34:45.249,-6.375,-33.3126
11:34:45.260,-6.875,-33.1876
11:34:45.269,-6.9375,-34.2501
11:34:45.279,-7.5,-34.6876
11:34:45.289,-6.9375,-35.0001
11:34:45.299,-7.875,-35.4376
11:34:45.311,-8.25,-36.5626
11:34:45.319,-9.375,-37.3751
11:34:45.329,-9.9375,-37.9376
11:34:45.339,-10.5625,-38.9376
11:34:45.351,-10.5,-38.5001
11:34:45.359,-11.1875,-39.3127
11:34:45.370,-10.75,-39.3127
11:34:45.380,-9.6875,-39.0001
11:34:45.406,-9.25,-35.6251
11:34:45.409,-6,-31.7501
11:34:45.413,-3.4375,-24.5626
11:34:45.440,1.125,-18.7501
11:34:45.444,4.125,-10.625
11:34:45.445,7.1875,-4.6875
11:34:45.450,10.125,1.1875
11:34:45.485,12.5625,5.3125
11:34:45.489,14.3751,9.5
11:34:45.491,15.8126,12.3125
11:34:45.497,16.2501,13.8126
11:34:45.524,17.3751,15.7501
11:34:45.526,17.1876,16.3126
11:34:45.530,17.6251,18.0001
11:34:45.535,17.8126,17.6876
11:34:45.539,18.3126,18.8751
11:34:45.556,18.5626,18.6251
11:34:45.560,18.1251,19.5626
11:34:45.569,18.3126,19.7501
11:34:45.579,18.0626,19.5626
11:34:45.589,18.3126,19.3126
11:34:45.599,17.6876,18.8126
11:34:45.609,17.0001,19.6251
11:34:45.620,16.7501,17.5001
11:34:45.629,15.8751,15.6876
11:34:45.639,14.3751,13.3126
11:34:45.654,13.1876,11.0625
11:34:45.659,11.5,9.875
11:34:45.669,10.5625,6.9375
11:34:45.680,9.4375,5.1875
11:34:45.689,8.5625,4
11:34:45.699,8.0625,2.9375
11:34:45.710,7.25,1.375
11:34:45.721,6.875,1.8125
11:34:45.729,7.3125,0.3125
11:34:45.739,6.375,-0.1875
11:34:45.749,5.8125,0.5625
11:34:45.760,6.125,-0.375
11:34:45.769,5.5625,-2.125
11:34:45.779,5.5625,-1
11:34:45.789,5.3125,-2.75
11:34:45.801,4.6875,-3.125
11:34:45.809,3.9375,-3.5625
11:34:45.819,4.4375,-4.9375
11:34:45.829,3.1875,-6.4375
11:34:45.841,2.125,-6.5
11:34:45.849,2.25,-8.0625
11:34:45.859,1.25,-9.6875
11:34:45.869,0.3125,-10.5625
11:34:45.880,-0.5,-11.0625
11:34:45.891,-0.4375,-12.5
11:34:45.903,-1.0625,-13.6251
11:34:45.913,-2.4375,-15.3126
11:34:45.927,-3.0625,-15.2501
11:34:45.932,-3.75,-17.1251
11:34:45.939,-4.4375,-18.3751
11:34:45.961,-4.5,-19.5626
11:34:45.963,-5.125,-19.5626
11:34:45.977,-5.5625,-20.8126
11:34:45.981,-5.4375,-21.0001
11:34:45.989,-6.9375,-22.7501
11:34:46.000,-7.0625,-22.8126
11:34:46.009,-6.9375,-23.7501
11:34:46.019,-7.6875,-25.3751
11:34:46.035,-8.6875,-24.8126
11:34:46.040,-8.9375,-26.3126
11:34:46.050,-9.75,-26.3751
11:34:46.059,-10.4375,-27.3751
11:34:46.070,-10.0625,-27.1876
11:34:46.080,-9.8125,-28.8751
11:34:46.094,-10.8125,-28.5626
11:34:46.115,-10.625,-29.6251
11:34:46.117,-11.875,-29.5626
11:34:46.122,-12,-31.1251
11:34:46.129,-13.1251,-32.2501
11:34:46.156,-12.3125,-31.4376
11:34:46.160,-12.8125,-33.3126
11:34:46.163,-13.2501,-33.8751
11:34:46.169,-13.3751,-34.3751
11:34:46.195,-14.3751,-34.8126
11:34:46.198,-14.0001,-35.3751
11:34:46.200,-13.8751,-35.0626
11:34:46.229,-12.5,-32.9376
11:34:46.231,-10.9375,-29.7501
11:34:46.234,-7.25,-24.8126
11:34:46.241,-3.875,-17.1876
11:34:46.269,0.0625,-10.5625
11:34:46.271,3.625,-4.75
11:34:46.274,5.125,0.75
11:34:46.280,8.4375,7.125
11:34:46.291,10.625,10.6875
11:34:46.299,12.1875,14.1876
11:34:46.309,13.5001,16.0001
11:34:46.319,13.8126,18.1876
11:34:46.329,14.9376,19.3751
11:34:46.341,14.9376,21.0001
11:34:46.349,16.1876,21.2501
11:34:46.359,15.5626,22.1876
11:34:46.369,16.0626,21.9376
11:34:46.379,15.3751,22.7501
11:34:46.412,16.0626,22.8751
11:34:46.414,15.6251,23.3126
11:34:46.417,15.8126,22.6876
11:34:46.420,15.2501,21.6251
11:34:46.434,14.3126,22.1251
11:34:46.440,14.0001,20.5626
11:34:46.449,13.3126,18.8126
11:34:46.459,12.0625,17.0001
11:34:46.469,10.875,16.3751
11:34:46.479,10.4375,12.5625
11:34:46.492,8.8125,10.5625
11:34:46.499,7.75,8.75
11:34:46.509,7.0625,7.5
11:34:46.521,6.8125,5.75
11:34:46.529,5.875,3.9375
11:34:46.539,5.6875,5.125
11:34:46.549,5.6875,3.75
11:34:46.561,4.8125,2.4375
11:34:46.569,4,2.625
11:34:46.579,4,2.6875
11:34:46.589,3.6875,1.1875
11:34:46.599,3.0625,0.3125
11:34:46.610,3.5,0.5
11:34:46.619,2.625,-1.0625
11:34:46.630,1.875,-1.375
11:34:46.639,1.75,-2
11:34:46.649,1.75,-3.25
11:34:46.659,0.75,-3.375
11:34:46.670,0.375,-4.375
11:34:46.679,0.125,-6.625
11:34:46.689,-1.125,-8.125
11:34:46.702,-1.5625,-7.9375
11:34:46.709,-1.4375,-9
11:34:46.719,-2.4375,-10.6875
11:34:46.729,-3.8125,-12.3125
11:34:46.744,-3.9375,-13.3751
11:34:46.749,-4.8125,-13.6251
11:34:46.759,-5.3125,-14.2501
11:34:46.769,-5.375,-15.4376
11:34:46.779,-5.9375,-17.3126
11:34:46.790,-6.8125,-17.7501
11:34:46.821,-6.9375,-18.2501
11:34:46.823,-7.875,-20.3126
11:34:46.825,-8.1875,-20.1876
11:34:46.830,-7.5625,-20.5001
11:34:46.858,-8.3125,-22.3126
11:34:46.860,-9.1875,-21.5626
11:34:46.863,-9.625,-23.4376
11:34:46.869,-10.1875,-23.8126
11:34:46.903,-10.625,-24.3751
11:34:46.905,-11.8125,-26.0626
11:34:46.908,-11.0625,-25.1251
11:34:46.946,-11.6875,-27.3126
11:34:46.947,-11.75,-27.2501
11:34:46.949,-11.875,-28.1876
11:34:46.955,-12.5625,-28.6251
11:34:46.957,-11.9375,-28.8126
11:34:46.970,-12.8125,-29.1876
11:34:46.973,-12.75,-29.9376
11:34:46.984,-13.4376,-30.2501
11:34:46.989,-13.8751,-30.4376
11:34:46.999,-14.0626,-31.6876
11:34:47.009,-14.7501,-32.8126
11:34:47.019,-15.1876,-32.7501
11:34:47.031,-14.8126,-33.5001
11:34:47.039,-14.1251,-32.5001
11:34:47.049,-12.875,-29.5001
11:34:47.060,-9.5625,-26.9376
11:34:47.069,-6.8125,-19.5626
11:34:47.079,-2.875,-13.6251
11:34:47.089,0.8125,-7.0625
11:34:47.100,4.125,0.25
11:34:47.109,7,6.25
11:34:47.119,9.625,10.5625
11:34:47.129,10.875,14.7501
11:34:47.140,12.75,16.2501
11:34:47.154,13.9376,18.7501
11:34:47.164,14.3751,20.3126
11:34:47.174,15.2501,21.1251
11:34:47.185,15.6251,22.1876
11:34:47.194,15.9376,22.3126
11:34:47.204,15.4376,23.5001
11:34:47.214,16.1251,23.0001
11:34:47.225,15.5626,23.0626
11:34:47.234,15.2501,23.7501
11:34:47.244,15.5626,22.4376
11:34:47.259,14.3751,23.3126
11:34:47.273,14.3751,21.8751
11:34:47.276,14.0626,21.0001
11:34:47.284,13.3751,19.0001
11:34:47.294,12.8125,17.1876
11:34:47.306,11.5625,15.2501
11:34:47.314,9.875,13.0625
11:34:47.324,8.625,9.875
11:34:47.335,7,9.5
11:34:47.344,6.5,6.75
11:34:47.360,6.6875,5.3125
11:34:47.364,4.9375,5.0625
11:34:47.374,5.6875,4.4375
11:34:47.390,5,3.0625
11:34:47.394,4.1875,4
11:34:47.409,4.9375,2.875
11:34:47.414,4.6875,1.625
11:34:47.423,4.25,1.125
11:34:47.433,3.375,0.25
11:34:47.443,2.9375,0
11:34:47.455,3.1875,0
11:34:47.464,3.25,-1.1875
11:34:47.474,2.875,-2.5
11:34:47.485,1.8125,-3.1875
11:34:47.494,1.3125,-4.0625
11:34:47.504,1.5,-4.1875
11:34:47.514,1.1875,-6.1875
11:34:47.524,0.3125,-8
11:34:47.534,-0.75,-8
11:34:47.544,-1.375,-9.0625
11:34:47.555,-1.375,-10.5625
11:34:47.593,-2.8125,-12.625
11:34:47.595,-3.9375,-14.1876
11:34:47.596,-4.625,-13.6876
11:34:47.600,-4.25,-15.1251
11:34:47.606,-5.125,-17.3126
11:34:47.640,-5.8125,-17.9376
11:34:47.642,-6.125,-19.1251
11:34:47.645,-6.125,-19.0626
11:34:47.649,-6.375,-20.0626
11:34:47.653,-7.5,-21.6876
11:34:47.681,-7.1875,-20.8751
11:34:47.684,-7.75,-22.5626
11:34:47.686,-8.5,-23.3126
11:34:47.703,-9.0625,-24.3126
11:34:47.706,-9.75,-24.8126
11:34:47.737,-9.5625,-25.0001
11:34:47.740,-9.5,-26.0626
11:34:47.750,-9.4375,-26.3751
11:34:47.751,-10.3125,-26.4376
11:34:47.753,-9.9375,-27.3126
11:34:47.764,-11.125,-27.9376
11:34:47.773,-10.3125,-29.0001
11:34:47.786,-11.25,-29.0001
11:34:47.794,-11.5,-30.2501
11:34:47.804,-11.6875,-31.1876
11:34:47.814,-12.25,-31.6876
11:34:47.824,-12.3125,-32.5626
11:34:47.834,-12.8125,-33.4376
11:34:47.844,-13.8126,-33.7501
11:34:47.859,-13,-33.9376
11:34:47.871,-13.6251,-33.4376
11:34:47.879,-12.875,-31.7501
11:34:47.889,-10.25,-28.8126
11:34:47.899,-8.0625,-22.3126
11:34:47.909,-3.8125,-16.2501
11:34:47.919,0,-8.5625
11:34:47.929,3.875,-2.6875
11:34:47.939,6.625,4.25
11:34:47.949,9.8125,8.5625
11:34:47.960,11.3125,14.3751
11:34:47.969,13.5626,15.8126
11:34:47.979,13.3751,18.9376
11:34:47.989,14.0626,20.0626
11:34:47.998,14.9376,20.8751
11:34:48.009,15.1876,21.1876
11:34:48.020,15.1251,21.3751
11:34:48.029,15.8751,22.3126
11:34:48.039,15.0001,21.1251
11:34:48.050,14.9376,22.1876
11:34:48.059,14.2501,20.6876
11:34:48.069,14.3126,21.1251
11:34:48.080,14.0626,19.2501
11:34:48.089,13.5626,19.6251
11:34:48.099,13.8126,18.6251
11:34:48.109,12.8125,17.2501
11:34:48.125,11.3125,16.3751
11:34:48.127,10.875,13.7501
11:34:48.140,9.3125,10.625
11:34:48.150,7.9375,8.6875
11:34:48.159,8.0625,6.8125
11:34:48.169,5.9375,5.0625
11:34:48.179,4.9375,5.125
11:34:48.189,5.3125,3.25
11:34:48.199,4.8125,2.375
11:34:48.209,4.5,2.75
11:34:48.218,4.375,1.5
11:34:48.227,4,2.0625
11:34:48.264,4,2.125
11:34:48.266,4.125,0.75
11:34:48.269,3.875,-0.3125
11:34:48.271,3.125,-0.3125
11:34:48.305,3.375,-1.375
11:34:48.309,2.8125,-2.1875
11:34:48.315,1.6875,-3.125
11:34:48.315,1.9375,-3.0625
11:34:48.320,1.1875,-4.75
11:34:48.358,1,-4.6875
11:34:48.360,0.4375,-7
11:34:48.363,-0.25,-7.125
11:34:48.365,-0.3125,-8.9375
11:34:48.368,-2.1875,-9.9375
11:34:48.399,-1.75,-10.9375
11:34:48.401,-2.375,-12.8125
11:34:48.404,-3.75,-13
11:34:48.410,-3.3125,-14.0626
11:34:48.422,-4.375,-15.6876
11:34:48.429,-4.8125,-16.3751
11:34:48.439,-5.6875,-18.0626
11:34:48.449,-5.75,-18.0626
11:34:48.459,-6.0625,-19.9376
11:34:48.473,-6.6875,-19.6251
11:34:48.483,-7.75,-21.6876
11:34:48.502,-8.375,-21.4376
11:34:48.505,-7.5,-22.3126
11:34:48.514,-8,-23.5001
11:34:48.523,-9,-22.7501
11:34:48.532,-8.625,-23.8751
11:34:48.552,-9.1875,-24.3751
11:34:48.557,-9.1875,-24.8751
11:34:48.572,-9.0625,-25.1251
11:34:48.575,-9.9375,-26.0626
11:34:48.584,-10.8125,-27.4376
11:34:48.592,-11.375,-27.3126
11:34:48.604,-11.875,-27.6251
11:34:48.612,-12.0625,-29.6251
11:34:48.624,-12.75,-29.2501
11:34:48.634,-13.5001,-31.0001
11:34:48.643,-13.0625,-31.5001
11:34:48.654,-13.4376,-30.8126
11:34:48.664,-11.8125,-29.0001
11:34:48.674,-10.1875,-25.3126
11:34:48.688,-6.75,-20.3751
11:34:48.708,-4.1875,-13.6876
11:34:48.708,0.6875,-5.9375
11:34:48.713,4,0.9375
11:34:48.723,7.5,7.625
11:34:48.733,10,11.3125
11:34:48.743,11.6875,16.1251
11:34:48.754,13.1876,18.8751
11:34:48.762,14.5001,22.1251
11:34:48.773,14.8126,23.3126
11:34:48.784,15.5626,24.8126
11:34:48.793,15.6876,25.8126
11:34:48.802,16.6251,25.8751
11:34:48.812,15.9376,26.3751
11:34:48.824,16.2501,25.9376
11:34:48.835,15.5626,25.6876
11:34:48.844,15.4376,25.3126
11:34:48.855,15.0001,25.4376
11:34:48.865,14.2501,26.3751
11:34:48.877,14.8126,25.1251
11:34:48.884,13.8751,24.0001
11:34:48.894,12.75,22.4376
11:34:48.903,11.875,21.0626
11:34:48.915,10.5625,19.7501
11:34:48.924,8.875,17.5001
11:34:48.934,8.3125,14.7501
11:34:48.944,6.375,11.3125
11:34:48.972,5.9375,11.4375
11:34:48.974,5.875,9.1875
11:34:48.976,4.875,7.875
11:34:48.984,3.8125,7.5625
11:34:48.997,4,7.125
11:34:49.004,3.4375,5.8125
11:34:49.014,3,6.625
11:34:49.023,4.125,5.875
11:34:49.033,3.625,5.4375
11:34:49.044,3,4.0625
11:34:49.052,3,5.0625
11:34:49.062,2.8125,3.5625
11:34:49.093,1.875,2.25
11:34:49.095,1.4375,3.375
11:34:49.098,1.625,1.375
11:34:49.104,0.8125,-0.1875
11:34:49.133,0.5,-0.0625
11:34:49.134,0.625,-1.75
11:34:49.135,0.0625,-2.3125
11:34:49.171,-1.125,-3.125
11:34:49.174,-0.5625,-4
11:34:49.178,-2.0625,-6.3125
11:34:49.179,-2,-5.6875
11:34:49.185,-2.375,-7.625
11:34:49.214,-3.25,-9.3125
11:34:49.217,-4.125,-9.3125
11:34:49.220,-4.1875,-11.4375
11:34:49.224,-5.125,-11.5
11:34:49.250,-4.625,-11.9375
11:34:49.252,-5,-13.5626
11:34:49.255,-5.4375,-14.8126
11:34:49.269,-6,-15.3751
11:34:49.275,-7.0625,-16.6251
11:34:49.282,-7.625,-15.3751
11:34:49.296,-8,-17.4376
11:34:49.303,-8.875,-17.6876
11:34:49.313,-8.6875,-19.5626
11:34:49.322,-9.1875,-19.5001
11:34:49.332,-9.25,-20.4376
11:34:49.342,-9.625,-19.7501
11:34:49.358,-9.3125,-21.1876
11:34:49.363,-9.875,-20.4376
11:34:49.374,-9.6875,-22.1251
11:34:49.384,-10,-21.5001
11:34:49.394,-10.1875,-23.6876
11:34:49.402,-10.9375,-23.1251
11:34:49.413,-10.4375,-24.6251
11:34:49.423,-11.6875,-25.4376
11:34:49.433,-11.625,-26.1876
11:34:49.443,-12.3125,-26.8751
11:34:49.453,-11.5625,-25.7501
11:34:49.463,-10.8125,-25.5001
11:34:49.473,-8.875,-21.1876
11:34:49.483,-6.125,-17.0626
11:34:49.493,-2.125,-9.75
11:34:49.502,2.125,-3.375
11:34:49.513,5.875,4.8125
11:34:49.522,9.0625,10.9375
11:34:49.533,11.875,16.2501
11:34:49.543,14.8126,20.5001
11:34:49.553,16.3126,24.3126
11:34:49.563,17.3126,26.1876
11:34:49.573,18.3751,28.7501
11:34:49.582,18.8751,29.1251
11:34:49.595,19.0001,31.1876
11:34:49.603,20.0001,32.0001
11:34:49.613,19.0001,32.6251
11:34:49.623,19.6876,32.5001
11:34:49.634,19.5001,33.1876
11:34:49.644,20.0001,33.1251
11:34:49.653,19.8751,33.3126
11:34:49.664,20.3126,32.6251
11:34:49.674,19.4376,32.8751
11:34:49.684,19.1876,33.5001
11:34:49.693,19.0626,31.6251
11:34:49.703,18.1251,30.1876
11:34:49.713,16.6876,29.6876
11:34:49.724,16.4376,26.7501
11:34:49.733,14.9376,24.0001
11:34:49.742,13.5001,22.4376
11:34:49.753,12.3125,21.2501
11:34:49.763,12.25,18.8126
11:34:49.774,11.3125,17.1251
11:34:49.783,10.5625,15.5001
11:34:49.794,10.1875,16.0626
11:34:49.807,10.25,14.9376
11:34:49.883,9.875,14.1251
11:34:49.884,9.1875,15.2501
11:34:49.887,10.125,14.2501
11:34:49.890,9.6875,13.5001
11:34:49.894,8.875,12.4375
11:34:49.897,9.625,12.4375
11:34:49.898,9.25,11.375
11:34:49.898,8.875,11.3125
11:34:49.904,8.25,11.375
11:34:49.941,8.5,9.4375
11:34:49.948,7.375,7.9375
11:34:49.950,6.25,8.6875
11:34:49.951,6.5,5.8125
11:34:49.954,5.625,4.9375
11:34:49.984,5,4.5
11:34:49.987,4.75,2.8125
11:34:50.002,3.8125,1.125
11:34:50.008,3,-0.5
11:34:50.008,2.0625,-0.8125
11:34:50.013,1.9375,-1.875
11:34:50.025,1.375,-3.3125
11:34:50.033,0.625,-4.3125
11:34:50.043,0.0625,-4.6875
11:34:50.053,-0.0625,-6.8125
11:34:50.063,-1.375,-9.125
11:34:50.074,-2,-10
11:34:50.082,-2.6875,-10.625
11:34:50.092,-3.1875,-10.625
11:34:50.103,-3.3125,-11.125
11:34:50.128,-2.75,-12.4375
11:34:50.128,-4.1875,-13.3751
11:34:50.136,-4.6875,-13.7501
11:34:50.145,-4.5625,-13.8751
11:34:50.162,-5.25,-14.5001
11:34:50.180,-4.9375,-15.6251
11:34:50.180,-5.625,-16.4376
11:34:50.197,-6,-16.9376
11:34:50.197,-7.1875,-17.4376
11:34:50.203,-7.125,-19.1251
11:34:50.216,-7.75,-18.8126
11:34:50.225,-7.6875,-19.7501
11:34:50.254,-8.4375,-20.0001
11:34:50.255,-8.1875,-21.2501
11:34:50.256,-8.375,-21.3126
11:34:50.268,-7.6875,-19.4376
11:34:50.276,-6.1875,-18.7501
11:34:50.283,-3.625,-13.8126
11:34:50.293,-0.375,-8.5625
11:34:50.303,3.375,-0.9375
11:34:50.313,7.375,5.125
11:34:50.323,9.875,12.125
11:34:50.333,13.1251,17.4376
11:34:50.347,14.6251,21.4376
11:34:50.354,17.2501,25.8126
11:34:50.366,18.6876,28.9376
11:34:50.373,19.6876,30.5626
11:34:50.383,20.0001,33.2501
11:34:50.396,20.8126,34.4376
11:34:50.404,21.4376,34.6876
11:34:50.414,21.3751,36.3126
11:34:50.425,22.0001,36.1876
11:34:50.433,21.8126,36.5001
11:34:50.443,21.3751,36.8751
11:34:50.473,21.9376,36.4376
11:34:50.475,21.8126,36.0626
11:34:50.477,21.4376,37.7501
11:34:50.485,22.3751,36.6876
11:34:50.511,21.6251,35.6251
11:34:50.512,21.4376,34.6876
11:34:50.515,20.2501,34.3751
11:34:50.545,19.2501,31.7501
11:34:50.547,18.3751,29.1251
11:34:50.551,16.9376,26.6876
11:34:50.555,15.8126,25.2501
11:34:50.593,15.1876,22.8751
11:34:50.600,14.3126,21.1251
11:34:50.602,14.0001,21.3126
11:34:50.603,13.6251,20.8126
11:34:50.604,13.9376,19.4376
11:34:50.635,13.3126,19.0626
11:34:50.635,13.3751,19.7501
11:34:50.635,13.8126,18.3126
11:34:50.656,12.8125,17.5001
11:34:50.656,12.3125,16.1876
11:34:50.663,11.5,16.3751
11:34:50.673,11.625,15.5626
11:34:50.683,12.125,14.6251
11:34:50.692,11.4375,12.875
11:34:50.702,10.9375,12.6875
11:34:50.730,9.75,11.75
11:34:50.731,9.5,9.75
11:34:50.735,9.5625,8.8125
11:34:50.743,8.125,7.0625
11:34:50.753,7.4375,6.0625
11:34:50.763,6.3125,4.875
11:34:50.779,7,3.5
11:34:50.783,5.5,2.125
11:34:50.793,5.125,2.625
11:34:50.803,4.5,0.4375
11:34:50.813,4,-1.25
11:34:50.823,3.625,-2.25
11:34:50.833,3.5625,-2.875
11:34:50.842,2.6875,-4.6875
11:34:50.853,1.6875,-5.9375
11:34:50.863,0.875,-6.125
11:34:50.873,1.0625,-7.75
11:34:50.883,0.25,-8.625
11:34:50.893,-1.0625,-10.125
11:34:50.903,-1.3125,-9.8125
11:34:50.913,-1.3125,-10.875
11:34:50.922,-2.4375,-12.0625
11:34:50.932,-2.9375,-12.6875
11:34:50.943,-3.1875,-12.5625
11:34:50.953,-2.25,-14.0001
11:34:50.964,-3.6875,-14.6876
11:34:50.973,-4.125,-14.3126
11:34:50.983,-4.125,-16.1876
11:34:50.993,-5.375,-16.0626
11:34:51.003,-5.375,-18.0001
11:34:51.013,-6.0625,-17.4376
11:34:51.023,-6,-19.6876
11:34:51.033,-7.375,-19.8126
11:34:51.043,-6.625,-20.0626
11:34:51.053,-6.1875,-19.6876
11:34:51.062,-4.4375,-16.7501
11:34:51.073,-2.25,-12
11:34:51.082,2,-6.875
11:34:51.093,5.625,1.3125
11:34:51.103,9.3125,6.4375
11:34:51.114,12.125,14.5626
11:34:51.123,14.8751,18.8751
11:34:51.134,18.1876,24.7501
11:34:51.153,18.8751,27.8126
11:34:51.156,21.1251,30.8126
11:34:51.170,21.7501,32.5001
11:34:51.185,22.1251,35.6251
11:34:51.187,23.3751,35.4376
11:34:51.223,23.4376,36.0001
11:34:51.225,23.4376,37.6251
11:34:51.228,23.8126,37.1876
11:34:51.230,24.6251,38.6251
11:34:51.259,23.9376,37.3126
11:34:51.262,23.7501,38.5001
11:34:51.264,24.5001,38.8126
11:34:51.298,24.3126,37.8751
11:34:51.301,23.3751,37.8751
11:34:51.303,23.3126,37.4376
11:34:51.305,23.0001,36.2501
11:34:51.310,21.8751,33.9376
11:34:51.342,20.5001,32.0626
11:34:51.343,18.9376,30.2501
11:34:51.346,17.5001,26.2501
11:34:51.348,16.7501,24.9376
11:34:51.358,16.5001,23.4376
11:34:51.368,15.8751,21.8751
11:34:51.377,14.7501,20.8751
11:34:51.388,14.5626,20.8751
11:34:51.397,14.3751,20.4376
11:34:51.408,13.6876,19.0626
11:34:51.419,13.0625,18.2501
11:34:51.428,12.6875,18.1251
11:34:51.440,11.75,17.9376
11:34:51.447,12.125,16.5001
11:34:51.457,12.4375,15.5001
11:34:51.468,11.0625,14.1876
11:34:51.478,10.8125,14.3751
11:34:51.488,10.3125,13.0625
11:34:51.497,10.125,11.625
11:34:51.507,9.125,10.3125
11:34:51.533,8.125,10.875
11:34:51.536,8.25,8.4375
11:34:51.538,8.0625,7.125
11:34:51.552,6.8125,5.5
11:34:51.558,5.8125,6.1875
11:34:51.567,5.9375,3.4375
11:34:51.578,4.875,2.0625
11:34:51.588,4.25,0.3125
11:34:51.597,3.125,0.875
11:34:51.608,3.4375,-0.625
11:34:51.618,2.875,-2.25
11:34:51.628,2.4375,-3
11:34:51.638,1.1875,-3.0625
11:34:51.647,1.4375,-5.125
11:34:51.658,0.9375,-6.5625
11:34:51.667,0.4375,-6.875
11:34:51.678,-0.25,-6.8125
11:34:51.687,-0.3125,-8.125
11:34:51.697,-0.625,-9.8125
11:34:51.708,-1.75,-10.4375
11:34:51.717,-2.5625,-10.1875
11:34:51.728,-2.9375,-12.75
11:34:51.737,-3.4375,-13.5626
11:34:51.747,-3.4375,-13.8126
11:34:51.758,-2.9375,-15.5626
11:34:51.768,-3.875,-16.5001
11:34:51.779,-4.375,-16.9376
11:34:51.787,-4.75,-17.0626
11:34:51.799,-4.4375,-18.5001
11:34:51.807,-4.375,-18.5626
11:34:51.818,-3,-17.5626
11:34:51.827,-2.4375,-14.9376
11:34:51.837,0.25,-10
11:34:51.848,4.25,-4.4375
11:34:51.858,7.125,3.4375
11:34:51.868,10.9375,9.625
11:34:51.878,13.4376,14.8751
11:34:51.888,16.1251,20.5626
11:34:51.897,18.1876,23.3126
11:34:51.907,19.8126,27.3126
11:34:51.917,21.3126,29.5001
11:34:51.932,21.6876,31.6876
11:34:51.937,22.5001,32.5626
11:34:51.948,22.1251,33.6876
11:34:51.958,22.1251,34.5001
11:34:51.967,23.3126,34.0001
11:34:51.978,22.0001,35.2501
11:34:52.010,22.7501,33.6251
11:34:52.013,21.3751,34.2501
11:34:52.015,21.8751,33.5001
11:34:52.017,22.3126,32.6251
11:34:52.050,21.6251,31.6251
11:34:52.053,21.2501,32.9376
11:34:52.055,20.7501,30.6251
11:34:52.058,19.6251,27.8126
11:34:52.089,17.4376,25.1876
11:34:52.091,15.8126,24.0626
11:34:52.094,14.6251,20.4376
11:34:52.122,12.8125,17.8126
11:34:52.124,10.25,16.0001
11:34:52.126,7.6875,14.3126
11:34:52.130,5.9375,13.2501
11:34:52.137,4.25,11.1875
11:34:52.166,1.375,9.375
11:34:52.169,-1.4375,9.25
11:34:52.171,-4.25,8.6875
11:34:52.178,-6.5625,6.3125
11:34:52.187,-10.625,5.1875
11:34:52.197,-13.7501,3.4375
11:34:52.208,-17.4376,1.25
11:34:52.218,-21.7501,-1.3125
11:34:52.228,-26.0001,-2.375
11:34:52.237,-29.6876,-4.3125
11:34:52.247,-34.6251,-7.0625
11:34:52.258,-40.4377,-9.6875
11:34:52.269,-43.7502,-11.375
11:34:52.277,-45.4377,-12.3125
11:34:52.293,-47.5002,-14.6876
11:34:52.298,-48.8127,-15.1251
11:34:52.309,-48.6252,-14.4376
11:34:52.318,-49.3127,-15.5001
11:34:52.329,-50.2502,-16.3751
11:34:52.338,-51.1252,-15.8126
11:34:52.347,-50.8127,-17.9376
11:34:52.359,-51.2502,-17.7501
11:34:52.367,-49.8752,-18.3751
11:34:52.378,-49.5627,-18.1251
11:34:52.387,-49.3127,-18.8126
11:34:52.397,-50.4377,-19.3751
11:34:52.407,-50.1877,-20.1251
11:34:52.418,-50.7502,-21.4376
11:34:52.429,-50.8127,-20.6251
11:34:52.449,-50.6877,-22.1876
11:34:52.452,-50.6877,-23.5001
11:34:52.462,-52.0627,-24.8751
11:34:52.467,-53.2502,-25.8751
11:34:52.483,-53.5627,-28.0626
11:34:52.493,-55.0002,-29.6876
11:34:52.498,-56.1877,-31.0001
11:34:52.506,-57.3752,-32.6251
11:34:52.523,-58.5627,-33.8126
11:34:52.528,-61.1877,-36.0001
11:34:52.538,-62.2502,-38.2501
11:34:52.548,-63.9377,-39.6877
11:34:52.558,-62.6252,-39.8752
11:34:52.575,-60.5002,-41.3127
11:34:52.579,-58.5002,-40.5002
11:34:52.593,-54.6252,-42.0627
11:34:52.607,-50.1252,-41.9377
11:34:52.610,-45.0627,-39.3127
11:34:52.620,-39.2502,-35.8751
11:34:52.627,-33.2501,-30.5001
11:34:52.637,-27.3751,-24.8751
11:34:52.651,-21.2501,-17.9376
11:34:52.658,-17.0001,-8.4375
11:34:52.668,-12.9375,-0.9375
11:34:52.684,-11.8125,6.8125
11:34:52.686,-12.75,13
11:34:52.702,-14.0001,16.0001
11:34:52.708,-16.6251,19.8126
11:34:52.723,-19.3751,19.9376
11:34:52.738,-21.5001,21.6251
11:34:52.741,-22.3751,23.3751
11:34:52.769,-22.0001,22.6876
11:34:52.773,-20.2501,24.0626
11:34:52.778,-19.3126,24.0626
11:34:52.780,-18.3126,27.6251
11:34:52.811,-13.8126,33.2501
11:34:52.814,-9.25,39.8127
11:34:52.818,-4.0625,45.8127
11:34:52.820,0.8125,45.2502
11:34:52.828,3.75,42.7502
11:34:52.864,5.5,39.1877
11:34:52.866,6.5,33.7501
11:34:52.869,8.75,29.6251
11:34:52.871,14.4376,29.5001
11:34:52.877,20.8751,30.8126
11:34:52.910,25.8751,35.0001
11:34:52.912,28.0626,37.3126
11:34:52.915,26.0001,40.8127
11:34:52.917,21.6876,42.8752
11:34:52.926,15.4376,41.9377
11:34:52.937,6.375,39.3127
11:34:52.947,-2.3125,33.8751
11:34:52.959,-9.25,28.0001
11:34:52.968,-11.4375,25.1876
11:34:52.978,-13.3126,20.1251
11:34:52.988,-14.3751,20.0001
11:34:52.999,-13.5001,24.5001
11:34:53.007,-9,29.6251
11:34:53.018,-4.125,31.7501
11:34:53.032,0,32.1876
11:34:53.038,5.1875,33.0626
11:34:53.050,10.4375,32.0626
11:34:53.059,16.9376,31.8126
11:34:53.068,22.6876,31.6251
11:34:53.078,29.1876,30.3126
11:34:53.088,36.0626,30.2501
11:34:53.102,41.3127,32.0626
11:34:53.108,45.0627,35.1251
11:34:53.119,45.8127,37.0626
11:34:53.128,43.0002,40.0627
11:34:53.139,38.6251,41.4377
11:34:53.149,29.6251,41.3127
11:34:53.158,17.3126,37.5626
11:34:53.167,6.1875,30.4376
11:34:53.177,-3.5,19.9376
11:34:53.188,-9.0625,12.6875
11:34:53.197,-10.6875,6.25
11:34:53.208,-11.875,6.5625
11:34:53.217,-9.5625,12.5
11:34:53.231,-4,18.9376
11:34:53.236,1.75,23.0001
11:34:53.247,5.6875,25.4376
11:34:53.258,10.5,22.1876
11:34:53.268,16.0626,19.6876
11:34:53.276,23.6876,19.8126
11:34:53.287,31.3751,18.3751
11:34:53.297,38.8126,17.8126
11:34:53.306,45.7502,19.3751
11:34:53.317,50.5627,22.8751
11:34:53.328,53.5002,24.9376
11:34:53.336,53.8752,27.3751
11:34:53.348,52.3127,31.5626
11:34:53.358,49.1877,36.3126
11:34:53.373,41.8127,39.8752
11:34:53.378,31.9376,39.3752
11:34:53.414,18.6251,35.5001
11:34:53.418,9.0625,29.0001
11:34:53.421,1.9375,25.5001
11:34:53.423,-3.3125,23.9376
11:34:53.426,-4.25,24.3751
11:34:53.458,-2.8125,26.1251
11:34:53.463,-0.5,32.7501
11:34:53.463,5.0625,43.0627
11:34:53.468,13.5626,56.3752
11:34:53.499,20.2501,66.6253
11:34:53.501,26.8751,71.5628
11:34:53.504,31.5001,72.8753
11:34:53.509,36.6251,75.6253
11:34:53.537,41.6877,78.1253
11:34:53.554,47.9377,80.8753
11:34:53.554,51.3752,83.3128
11:34:53.554,54.7502,88.3753
11:34:53.558,58.2502,93.1879
11:34:53.568,58.6877,98.5004
11:34:53.577,56.1877,102.1879
11:34:53.586,49.6877,103.3754
11:34:53.597,40.1877,101.7504
11:34:53.609,32.1876,97.3129
11:34:53.618,26.6876,92.7504
11:34:53.628,21.8751,90.1878
11:34:53.637,19.9376,87.2503
11:34:53.648,18.0001,83.0003
11:34:53.656,16.4376,78.6253
11:34:53.666,17.1251,79.9378
11:34:53.676,21.0001,83.2503
11:34:53.686,27.6251,89.6878
11:34:53.697,33.7501,97.0629
11:34:53.706,38.8126,98.3754
