timestamp,Red,IR
13:50:20.195,8.75,32.9376
13:50:20.206,7.9375,33.1251
13:50:20.215,8,31.5001
13:50:20.226,7.625,29.6251
13:50:20.236,6.6875,28.9376
13:50:20.247,5.8125,27.8751
13:50:20.256,5.75,26.0001
13:50:20.266,4.9375,23.8126
13:50:20.275,4.1875,21.5001
13:50:20.286,3.375,19.6251
13:50:20.297,2,18.0626
13:50:20.305,1.4375,15.9376
13:50:20.315,0.6875,14.1251
13:50:20.326,0.3125,11.625
13:50:20.335,-1.0625,8.4375
13:50:20.345,-1.8125,7.625
13:50:20.356,-3.0625,4
13:50:20.366,-4,3
13:50:20.376,-4.8125,0.1875
13:50:20.386,-5.625,-1.25
13:50:20.396,-6.875,-2.75
13:50:20.405,-7,-6.125
13:50:20.417,-8.4375,-8.9375
13:50:20.425,-8.625,-11
13:50:20.436,-9.875,-12.5
13:50:20.446,-10.8125,-15.4376
13:50:20.457,-12.0625,-16.5626
13:50:20.467,-12.3125,-18.2501
13:50:20.476,-12.4375,-19.5626
13:50:20.486,-11.5625,-18.0626
13:50:20.496,-8.0625,-11.9375
13:50:20.506,-3.75,-2.625
13:50:20.516,1,9.8125
13:50:20.526,5.125,18.3751
13:50:20.536,9,27.3751
13:50:20.545,11.6875,35.1876
13:50:20.556,13.8751,42.3752
13:50:20.567,15.9376,47.9377
13:50:20.578,17.5626,52.6252
13:50:20.608,18.1251,55.7502
13:50:20.611,19.0626,57.5002
13:50:20.648,18.7501,59.1252
13:50:20.651,19.0001,60.5002
13:50:20.683,17.6876,60.3752
13:50:20.683,17.8126,61.8752
13:50:20.683,17.5001,61.5627
13:50:20.685,17.1251,60.6877
13:50:20.687,16.3751,60.3752
13:50:20.711,17.1251,60.3752
13:50:20.711,15.9376,59.5627
13:50:20.712,15.1876,60.1252
13:50:20.714,15.0001,58.0002
13:50:20.724,13.7501,56.4377
13:50:20.730,13,53.5627
13:50:20.741,11.6875,51.0002
13:50:20.751,9.875,47.8127
13:50:20.760,8.3125,45.5627
13:50:20.787,8.1875,43.0627
13:50:20.789,7.5,40.7502
13:50:20.792,7.375,39.1252
13:50:20.801,6.25,37.9376
13:50:20.810,5.0625,35.8751
13:50:20.821,4.6875,34.6876
13:50:20.832,4.375,33.1251
13:50:20.841,3.9375,31.8751
13:50:20.851,4.4375,31.6876
13:50:20.860,3.1875,29.8126
13:50:20.870,1.3125,27.5001
13:50:20.883,1.4375,25.1251
13:50:20.890,0.0625,23.2501
13:50:20.901,-0.5,21.5001
13:50:20.912,-1.3125,18.6876
13:50:20.921,-2.0625,16.9376
13:50:20.931,-3.125,13.8126
13:50:20.940,-4.4375,10.875
13:50:20.951,-5,9.3125
13:50:20.962,-5.75,7.1875
13:50:20.971,-7.125,4.25
13:50:20.981,-7.5625,2.5
13:50:20.991,-9.25,-0.8125
13:50:21.001,-9.875,-2.4375
13:50:21.010,-11.375,-5.75
13:50:21.021,-12.25,-8.625
13:50:21.031,-13.1876,-11.75
13:50:21.042,-14.6251,-14.3126
13:50:21.050,-15.8751,-16.8751
13:50:21.061,-16.4376,-19.7501
13:50:21.071,-17.5626,-23.1251
13:50:21.080,-19.1876,-24.6251
13:50:21.091,-20.0626,-28.5001
13:50:21.102,-20.3751,-29.3751
13:50:21.110,-18.7501,-27.7501
13:50:21.121,-15.6251,-21.0001
13:50:21.130,-9.1875,-8.4375
13:50:21.141,-3.75,3.6875
13:50:21.150,1.1875,14.8751
13:50:21.161,4.4375,23.7501
13:50:21.171,7,32.3751
13:50:21.181,9.0625,39.3127
13:50:21.191,11.4375,44.4377
13:50:21.202,12.6875,49.3752
13:50:21.212,13.7501,53.2502
13:50:21.221,14.8126,54.8127
13:50:21.231,15.1876,57.4377
13:50:21.242,15.3751,58.1252
13:50:21.250,14.8126,58.0627
13:50:21.261,14.9376,57.5002
13:50:21.271,13.6251,57.0627
13:50:21.280,13.5626,56.8752
13:50:21.291,13.3126,56.6877
13:50:21.300,12.8125,55.8752
13:50:21.311,12.25,54.5627
13:50:21.321,11.25,54.7502
13:50:21.331,10.875,51.6877
13:50:21.340,9.1875,48.5002
13:50:21.351,7.625,45.6877
13:50:21.369,7,43.1252
13:50:21.372,5.75,39.3126
13:50:21.387,4.25,38.0626
13:50:21.392,3.375,34.0626
13:50:21.401,2.625,33.1251
13:50:21.410,2,31.6876
13:50:21.421,2.5,29.6251
13:50:21.430,1.9375,29.0626
13:50:21.442,1.6875,27.4376
13:50:21.452,0.875,26.6876
13:50:21.462,1.0625,25.0626
13:50:21.470,-0.3125,23.9376
13:50:21.482,-0.625,22.6876
13:50:21.490,-1.9375,19.5626
13:50:21.501,-2.375,18.5001
13:50:21.510,-3.3125,15.9376
13:50:21.521,-4.25,14.3751
13:50:21.530,-4.5,11.4375
13:50:21.540,-5.6875,8.75
13:50:21.552,-6.5625,6.75
13:50:21.562,-8.25,4.5
13:50:21.571,-8.3125,1.8125
13:50:21.580,-9.9375,-0.75
13:50:21.590,-10.0625,-3.5
13:50:21.601,-11.875,-5.875
13:50:21.611,-12.1875,-8.9375
13:50:21.620,-14.2501,-10.9375
13:50:21.631,-14.3751,-13.6251
13:50:21.640,-16.5001,-16.8126
13:50:21.650,-16.9376,-19.3126
13:50:21.661,-18.3751,-22.6251
13:50:21.671,-19.0626,-24.6876
13:50:21.687,-20.5626,-27.0626
13:50:21.696,-19.6876,-28.8126
13:50:21.706,-20.3126,-28.4376
13:50:21.716,-16.8126,-24.1876
13:50:21.726,-13.6251,-15.1876
13:50:21.736,-7.25,-3.75
13:50:21.747,-4,6.5
13:50:21.756,0.0625,16.0001
13:50:21.765,3.625,25.1251
13:50:21.775,6.5,34.6251
13:50:21.786,9.75,41.6877
13:50:21.795,11.375,46.5627
13:50:21.805,12.875,50.8752
13:50:21.816,12.4375,54.3127
13:50:21.826,13.8751,55.2502
13:50:21.835,13.3751,55.6252
13:50:21.864,12.5625,56.1252
13:50:21.867,12.125,56.6252
13:50:21.868,12.4375,55.5002
13:50:21.877,11.5,55.1252
13:50:21.905,11.125,54.5627
13:50:21.908,9.875,54.3127
13:50:21.922,9.125,53.5002
13:50:21.925,8.1875,51.3752
13:50:21.931,5.6875,48.1877
13:50:21.945,5.25,47.0002
13:50:21.948,3.5,42.9377
13:50:21.975,1.8125,40.6877
13:50:21.977,1.4375,38.0001
13:50:21.980,-0.375,34.8751
13:50:21.987,-1.5625,33.8751
13:50:21.999,-1.625,30.5001
13:50:22.009,-2,29.3751
13:50:22.015,-2.5625,28.2501
13:50:22.026,-3.25,28.0001
13:50:22.035,-3,26.1876
13:50:22.064,-4.375,25.0626
13:50:22.067,-4.9375,24.1876
13:50:22.069,-4.8125,22.1251
13:50:22.077,-6.3125,20.7501
13:50:22.087,-6.75,18.1251
13:50:22.096,-7.75,15.6876
13:50:22.105,-8.8125,13.9376
13:50:22.116,-9.625,10.9375
13:50:22.126,-10.6875,8.4375
13:50:22.136,-11.125,7.4375
13:50:22.145,-13.3126,4.375
13:50:22.155,-13.3751,1.625
13:50:22.166,-14.8126,-1.4375
13:50:22.176,-14.8126,-3.625
13:50:22.185,-16.6876,-5.8125
13:50:22.195,-16.8126,-9.3125
13:50:22.205,-19.0626,-10.875
13:50:22.216,-18.9376,-14.3751
13:50:22.225,-20.8126,-16.5001
13:50:22.236,-20.7501,-19.3751
13:50:22.247,-22.5626,-22.6876
13:50:22.256,-23.1876,-23.6251
13:50:22.265,-22.8126,-23.5626
13:50:22.276,-20.8751,-20.6876
13:50:22.285,-16.3126,-12.5
13:50:22.297,-12.625,-4.125
13:50:22.305,-8.0625,7.5625
13:50:22.316,-4.0625,16.7501
13:50:22.327,0.6875,27.8751
13:50:22.335,3.625,36.8751
13:50:22.346,7.1875,44.1252
13:50:22.357,8.4375,51.8752
13:50:22.366,10.1875,54.8752
13:50:22.376,11.1875,58.1877
13:50:22.386,11.3125,60.2502
13:50:22.396,11.375,59.9377
13:50:22.407,10.5,61.2502
13:50:22.417,10.6875,60.1877
13:50:22.427,10.5,60.2502
13:50:22.435,9.5,60.3127
13:50:22.447,9.375,58.6877
13:50:22.456,8,60.0627
13:50:22.466,7.875,58.0002
13:50:22.477,7.9375,56.2502
13:50:22.487,5.8125,54.1252
13:50:22.498,5.375,51.0002
13:50:22.506,3.3125,48.4377
13:50:22.516,2.0625,45.1877
13:50:22.526,0.5625,40.6877
13:50:22.535,-0.625,37.1251
13:50:22.548,-1.625,34.5001
13:50:22.556,-2.75,31.6251
13:50:22.566,-3.0625,30.1251
13:50:22.576,-3.5,28.2501
13:50:22.586,-3.875,26.8126
13:50:22.595,-3.4375,26.1876
13:50:22.606,-4.625,24.9376
13:50:22.616,-4.3125,23.2501
13:50:22.628,-5.9375,21.8751
13:50:22.635,-6.625,20.8126
13:50:22.648,-7,18.1876
13:50:22.668,-7.8125,16.1876
13:50:22.670,-8.5,13.1876
13:50:22.685,-9.6875,11.4375
13:50:22.687,-10.5625,10
13:50:22.698,-11.1875,5.75
13:50:22.706,-12.125,4.125
13:50:22.715,-12.5625,1.75
13:50:22.726,-14.0626,-1.5
13:50:22.736,-14.6251,-3.125
13:50:22.749,-15.7501,-6.6875
13:50:22.758,-16.6251,-8.3125
13:50:22.766,-16.8751,-11.4375
13:50:22.777,-18.6876,-13.6251
13:50:22.787,-19.4376,-16.5626
13:50:22.797,-20.1876,-19.7501
13:50:22.807,-21.4376,-20.6876
13:50:22.816,-21.4376,-24.4376
13:50:22.827,-23.0001,-27.3126
13:50:22.838,-23.0626,-27.6251
13:50:22.848,-23.2501,-29.6876
13:50:22.857,-21.5001,-26.0001
13:50:22.866,-16.6876,-19.3751
13:50:22.876,-12.9375,-9.125
13:50:22.888,-7.3125,1.75
13:50:22.897,-2.9375,12.1875
13:50:22.906,1.4375,23.2501
13:50:22.916,6.125,33.5626
13:50:22.926,8.75,41.8752
13:50:22.935,11.625,49.1877
13:50:22.947,12.8125,52.9377
13:50:22.956,14.0626,57.9377
13:50:22.967,14.0626,58.9377
13:50:22.979,14.2501,60.1252
13:50:22.986,13.9376,61.4377
13:50:23.000,13.6876,60.1877
13:50:23.006,13.3751,60.4377
13:50:23.017,12.5,60.3752
13:50:23.026,12.6875,58.3127
13:50:23.038,12.375,58.8752
13:50:23.046,10.875,57.9377
13:50:23.057,11.125,56.5002
13:50:23.067,9.6875,54.3127
13:50:23.075,8.5,51.2502
13:50:23.088,6.875,48.6877
13:50:23.096,5.25,44.1252
13:50:23.107,3.3125,41.5002
13:50:23.115,2.375,38.2501
13:50:23.126,1.375,34.9376
13:50:23.137,-0.1875,32.8751
13:50:23.148,-0.75,30.3126
13:50:23.156,-1.5,28.9376
13:50:23.165,-1.875,26.5626
13:50:23.178,-2.375,25.5626
13:50:23.187,-2.6875,24.3126
13:50:23.208,-3.5625,21.9376
13:50:23.210,-3.375,21.6876
13:50:23.226,-4.0625,19.0626
13:50:23.228,-5.0625,16.8126
13:50:23.237,-5.5625,14.7501
13:50:23.247,-7.1875,12.1875
13:50:23.256,-7.6875,10.0625
13:50:23.268,-8.625,6.5
13:50:23.276,-9.75,4.9375
13:50:23.288,-10.6875,1.4375
13:50:23.297,-12.4375,-0.1875
13:50:23.307,-12.75,-3.625
13:50:23.316,-14.5626,-5.8125
13:50:23.345,-15.0626,-9.1875
13:50:23.347,-16.3751,-10.75
13:50:23.349,-16.6251,-14.3126
13:50:23.358,-18.4376,-16.3751
13:50:23.367,-18.5626,-19.0001
13:50:23.392,-19.4376,-22.0626
13:50:23.394,-20.3126,-23.5001
13:50:23.397,-20.8751,-25.9376
13:50:23.425,-21.9376,-28.1251
13:50:23.430,-22.9376,-30.0001
13:50:23.430,-23.4376,-33.5626
13:50:23.460,-24.4376,-34.8751
13:50:23.462,-25.2501,-37.6251
13:50:23.464,-24.9376,-39.5627
13:50:23.470,-26.6876,-41.4377
13:50:23.486,-27.1251,-44.3752
13:50:23.488,-28.0001,-45.5627
13:50:23.514,-28.8751,-48.5627
13:50:23.517,-28.8126,-49.5002
13:50:23.520,-28.8751,-49.1252
13:50:23.529,-26.8126,-48.0627
13:50:23.538,-22.6876,-38.9376
13:50:23.547,-16.3126,-27.0626
13:50:23.557,-10.9375,-15.5626
13:50:23.566,-6.875,-4.4375
13:50:23.578,-2.4375,4.875
13:50:23.587,1.375,13.2501
13:50:23.597,4.875,22.3751
13:50:23.607,7.6875,27.9376
13:50:23.617,9.375,32.9376
13:50:23.628,10.8125,36.0001
13:50:23.636,11,37.3751
13:50:23.647,11.875,38.4376
13:50:23.656,11,37.6876
13:50:23.666,10.75,38.0626
13:50:23.677,10.6875,36.8126
13:50:23.686,10.25,36.7501
13:50:23.696,10.1875,35.3751
13:50:23.707,9.375,36.1251
13:50:23.718,9.4375,34.2501
13:50:23.727,8.875,33.4376
13:50:23.737,8.4375,32.2501
13:50:23.747,7.5625,29.5626
13:50:23.756,6.3125,27.4376
13:50:23.767,5.5625,25.5626
13:50:23.777,4.8125,21.5626
13:50:23.787,3.4375,18.3751
13:50:23.797,2.0625,16.1876
13:50:23.808,1.25,13.3751
13:50:23.817,0.5,11.5
13:50:23.827,-0.3125,9.125
13:50:23.838,-0.75,8
13:50:23.847,-0.25,7.125
13:50:23.858,-1.25,6
13:50:23.867,-1.5,4.4375
13:50:23.877,-1.375,3.5625
13:50:23.893,-3.25,1.875
13:50:23.899,-3.0625,0.375
13:50:23.908,-4.125,-1.125
13:50:23.919,-4.5625,-3.125
13:50:23.927,-5,-5.1875
13:50:23.936,-7.0625,-6.9375
13:50:23.947,-7,-10.5
13:50:23.964,-8.25,-11.6875
13:50:23.967,-8.8125,-14.8751
13:50:23.982,-10.3125,-17.3126
13:50:23.997,-10.4375,-19.8126
13:50:23.999,-11.8125,-20.3751
13:50:24.009,-11.875,-23.5001
13:50:24.017,-13.1876,-24.9376
13:50:24.027,-13.6876,-28.4376
13:50:24.038,-14.6251,-28.8751
13:50:24.048,-14.6876,-32.3126
13:50:24.057,-16.2501,-33.3126
13:50:24.068,-16.0626,-36.3126
13:50:24.078,-17.3126,-37.1876
13:50:24.086,-18.0626,-40.0627
13:50:24.098,-18.0001,-41.5627
13:50:24.107,-19.5626,-43.4377
13:50:24.117,-19.2501,-45.3127
13:50:24.128,-20.5626,-47.2502
13:50:24.137,-20.8126,-48.8127
13:50:24.145,-22.0001,-50.1877
13:50:24.159,-21.3751,-51.8752
13:50:24.168,-22.6251,-53.1252
13:50:24.177,-21.7501,-54.8752
13:50:24.186,-23.3126,-56.3127
13:50:24.197,-23.8126,-58.1252
13:50:24.207,-24.3126,-58.8127
13:50:24.216,-24.8126,-61.5002
13:50:24.226,-24.5001,-61.8127
13:50:24.237,-24.0001,-59.7502
13:50:24.247,-20.5001,-54.4377
13:50:24.258,-15.3751,-43.2502
13:50:24.268,-9,-31.7501
13:50:24.277,-5.5625,-22.1876
13:50:24.287,-0.625,-14.1876
13:50:24.297,0.875,-7.5
13:50:24.307,3.9375,-2.375
13:50:24.317,4.5,1.8125
13:50:24.327,5.875,3.875
13:50:24.337,6.1875,4.875
13:50:24.348,5.9375,5.1875
13:50:24.357,6.25,4.875
13:50:24.367,5.3125,4.8125
13:50:24.377,4.9375,2.6875
13:50:24.387,4.9375,2.4375
13:50:24.397,5.375,2
13:50:24.407,4.9375,1.25
13:50:24.418,4.5,1.4375
13:50:24.428,5.25,0.875
13:50:24.438,4.75,0.3125
13:50:24.446,4.375,-0.125
13:50:24.457,3.6875,-2.5
13:50:24.467,2.625,-2.875
13:50:24.476,2.4375,-6.1875
13:50:24.487,1.8125,-8.0625
13:50:24.497,1.125,-10.3125
13:50:24.512,0.0625,-10.75
13:50:24.521,0.0625,-13.1876
13:50:24.529,-0.6875,-14.5626
13:50:24.545,-0.8125,-15.7501
13:50:24.551,-1.0625,-15.9376
13:50:24.559,-0.875,-15.5001
13:50:24.567,-0.1875,-16.6876
13:50:24.578,-1.125,-17.5626
13:50:24.587,-1.375,-17.9376
13:50:24.597,-1.625,-18.2501
13:50:24.628,-1.9375,-19.5001
13:50:24.630,-2.75,-21.3126
13:50:24.632,-3.125,-21.0626
13:50:24.641,-3.375,-23.7501
13:50:24.648,-4.0625,-26.0626
13:50:24.661,-4.625,-26.0001
13:50:24.667,-5.0625,-28.3126
13:50:24.708,-5.625,-28.8751
13:50:24.709,-5.6875,-30.5001
13:50:24.711,-6.6875,-31.3751
13:50:24.713,-7.4375,-32.4376
13:50:24.717,-8.1875,-34.5626
13:50:24.747,-8.4375,-36.0626
13:50:24.748,-9,-37.6251
13:50:24.750,-9.8125,-39.3127
13:50:24.758,-10.25,-40.0627
13:50:24.788,-10.375,-43.2502
13:50:24.789,-11.25,-43.3127
13:50:24.792,-11.6875,-44.9377
13:50:24.798,-11.75,-45.3752
13:50:24.815,-12.5,-47.5002
13:50:24.818,-12.8125,-48.5002
13:50:24.826,-12.6875,-49.5002
13:50:24.836,-13.7501,-50.0002
13:50:24.848,-14.0001,-51.2502
13:50:24.857,-14.1876,-52.6252
13:50:24.866,-14.8126,-52.9377
13:50:24.877,-15.3751,-54.0002
13:50:24.888,-14.4376,-54.8127
13:50:24.897,-14.2501,-53.2502
13:50:24.908,-12.25,-48.1877
13:50:24.917,-7.6875,-42.6252
13:50:24.927,-4.9375,-33.2501
13:50:24.937,-1,-25.5001
13:50:24.947,1.6875,-20.5626
13:50:24.957,4.25,-13.8126
13:50:24.966,5.6875,-10.875
13:50:24.978,7.0625,-7.4375
13:50:24.987,7.875,-7
13:50:24.997,7.8125,-5.8125
13:50:25.007,8,-6.4375
13:50:25.017,6.9375,-6.9375
13:50:25.027,6.6875,-7.9375
13:50:25.038,6.8125,-9.6875
13:50:25.048,5.8125,-8.9375
13:50:25.057,6.3125,-10.625
13:50:25.068,5.5,-11.25
13:50:25.077,5.5,-11.5
13:50:25.087,5.75,-12.375
13:50:25.097,4.9375,-13.1876
13:50:25.107,5.3125,-14.1251
13:50:25.116,4.25,-15.3751
13:50:25.128,4.1875,-17.0001
13:50:25.137,3.0625,-19.3126
13:50:25.148,2.25,-19.3751
13:50:25.158,1.75,-21.8126
13:50:25.167,1.1875,-23.6876
13:50:25.177,1.375,-23.1251
13:50:25.187,1.25,-24.8126
13:50:25.197,0.6875,-23.6876
13:50:25.206,1.25,-23.5001
13:50:25.217,1.6875,-24.0001
13:50:25.226,1.1875,-24.3126
13:50:25.237,1.875,-23.9376
13:50:25.249,1.25,-25.0001
13:50:25.257,0.8125,-25.1251
13:50:25.268,1.0625,-26.0001
13:50:25.285,0.75,-27.3126
13:50:25.288,0.1875,-27.7501
13:50:25.304,-0.5625,-29.3126
13:50:25.318,-0.75,-30.5001
13:50:25.321,-1.1875,-31.0626
13:50:25.336,-1.375,-32.4376
13:50:25.341,-2,-33.7501
13:50:25.347,-2.75,-33.7501
13:50:25.356,-2.5,-34.8126
13:50:25.367,-3.3125,-37.1876
13:50:25.377,-3.625,-37.1251
13:50:25.388,-3.625,-38.3751
13:50:25.397,-4.5,-39.4377
13:50:25.411,-4.6875,-40.8127
13:50:25.417,-5.625,-41.5627
13:50:25.428,-6.0625,-42.1877
13:50:25.437,-6.125,-44.0002
13:50:25.446,-6.5625,-45.0627
13:50:25.458,-7.4375,-44.9377
13:50:25.467,-7.125,-46.3752
13:50:25.477,-7.5625,-47.3752
13:50:25.487,-7.9375,-46.9377
13:50:25.497,-7.8125,-48.0627
13:50:25.507,-7.5,-45.7502
13:50:25.518,-4.4375,-41.6877
13:50:25.527,-1.3125,-35.8751
13:50:25.537,2.1875,-27.4376
13:50:25.552,4.9375,-22.1251
13:50:25.562,7.9375,-15.1876
13:50:25.572,9.8125,-11.875
13:50:25.581,10.75,-8.3125
13:50:25.592,12,-5.75
13:50:25.602,12.0625,-4.625
13:50:25.613,11.8125,-3.5
13:50:25.622,12.25,-4.5625
13:50:25.632,11.4375,-4.1875
13:50:25.641,11.75,-4.625
13:50:25.652,11.4375,-5.9375
13:50:25.662,11.75,-5.9375
13:50:25.671,11.375,-7.625
13:50:25.682,11.3125,-7.3125
13:50:25.698,10.8125,-8.0625
13:50:25.707,10.625,-7.375
13:50:25.717,10.75,-8.75
13:50:25.727,9.8125,-10.0625
13:50:25.737,8.625,-11.5
13:50:25.746,8,-13.8751
13:50:25.757,7.25,-16.3751
13:50:25.767,7.0625,-16.5001
13:50:25.777,6.875,-18.5626
13:50:25.788,6.3125,-18.3751
13:50:25.796,7,-18.8126
13:50:25.807,6.5625,-18.8126
13:50:25.817,6.125,-17.8751
13:50:25.836,7.1875,-18.3126
13:50:25.845,6.9375,-19.3751
13:50:25.857,6.625,-19.6251
13:50:25.859,7.25,-19.2501
13:50:25.869,6.875,-19.4376
13:50:25.879,6.5,-19.9376
13:50:25.906,6.125,-20.4376
13:50:25.909,5.4375,-22.2501
13:50:25.910,5.5,-21.5626
13:50:25.918,4.5625,-24.5001
13:50:25.927,4.1875,-24.4376
13:50:25.939,5,-25.2501
13:50:25.948,3.625,-25.8751
13:50:25.957,3.125,-25.8126
13:50:25.968,3.125,-27.6251
13:50:25.977,2.3125,-29.8126
13:50:25.988,1.875,-29.0001
13:50:25.996,1.3125,-30.5001
13:50:26.006,1.625,-31.9376
13:50:26.017,0.9375,-33.3126
13:50:26.027,0.4375,-33.7501
13:50:26.037,1.125,-34.0001
13:50:26.047,-0.3125,-35.6251
13:50:26.058,-1.3125,-35.1251
13:50:26.067,-0.3125,-37.8751
13:50:26.077,-1.8125,-39.3752
13:50:26.095,-1.8125,-39.0626
13:50:26.097,-2.125,-40.6877
13:50:26.127,-1.8125,-38.7501
13:50:26.131,0.25,-35.8126
13:50:26.132,3.5625,-30.6251
13:50:26.140,6.4375,-23.8126
13:50:26.166,9.8125,-14.9376
13:50:26.170,13.5626,-8.4375
13:50:26.172,15.4376,-3.6875
13:50:26.178,16.8126,2.5
13:50:26.206,18.4376,5.25
13:50:26.208,19.3126,6.6875
13:50:26.210,19.5626,8.25
13:50:26.219,19.6876,8.8125
13:50:26.233,19.8751,9.9375
13:50:26.238,20.3751,9.875
13:50:26.247,19.9376,9.8125
13:50:26.257,19.9376,9.75
13:50:26.267,19.5001,9.6875
13:50:26.278,20.6251,10.125
13:50:26.286,19.7501,10.0625
13:50:26.297,19.6251,10.9375
13:50:26.306,20.0001,10.375
13:50:26.317,19.9376,9.75
13:50:26.329,19.8126,10.4375
13:50:26.337,20.1876,9.875
13:50:26.347,19.0626,8.6875
13:50:26.357,18.1251,7.1875
13:50:26.367,18.0001,7.1875
13:50:26.378,18.6876,4.875
13:50:26.387,17.1876,3.25
13:50:26.397,16.3126,1.75
13:50:26.408,16.5626,2.625
13:50:26.419,16.2501,0.4375
13:50:26.427,16.1876,0
13:50:26.437,16.1251,0.875
13:50:26.447,16.5001,0.625
13:50:26.457,16.6251,-0.0625
13:50:26.467,16.0001,-1.5
13:50:26.477,15.5626,-1
13:50:26.487,15.1876,-0.625
13:50:26.497,16.0001,-2.25
13:50:26.508,14.5626,-2.9375
13:50:26.517,13.8126,-3.125
13:50:26.527,14.0001,-5.25
13:50:26.536,13.7501,-7
13:50:26.547,13,-8
13:50:26.557,12.25,-7.5625
13:50:26.567,12,-10.375
13:50:26.576,11.25,-11.625
13:50:26.586,11.3125,-11.9375
13:50:26.600,10.625,-13.7501
13:50:26.608,9.9375,-14.4376
13:50:26.623,9.8125,-14.4376
13:50:26.638,9.25,-15.7501
13:50:26.640,8.6875,-17.9376
13:50:26.654,8.1875,-18.0001
13:50:26.657,8.25,-19.3751
13:50:26.671,6.9375,-20.6876
13:50:26.677,6.4375,-21.6876
13:50:26.689,6.75,-23.2501
13:50:26.697,6.25,-23.3751
13:50:26.707,5.75,-25.1876
13:50:26.717,4.6875,-24.8126
13:50:26.727,4.625,-26.6876
13:50:26.737,4.5,-27.5001
13:50:26.746,5.8125,-25.9376
13:50:26.757,7.25,-22.6876
13:50:26.767,10.25,-16.6251
13:50:26.778,13.1876,-9.3125
13:50:26.787,16.1876,-3.1875
13:50:26.797,19.4376,3.5
13:50:26.808,21.1876,8.4375
13:50:26.818,22.5626,13.7501
13:50:26.827,24.6876,16.9376
13:50:26.836,26.0626,18.5626
13:50:26.848,25.5001,20.7501
13:50:26.857,26.3126,22.2501
13:50:26.868,26.0001,22.6876
13:50:26.876,26.3751,24.0626
13:50:26.887,27.3126,24.3126
13:50:26.896,27.4376,24.5626
13:50:26.907,27.5001,26.0626
13:50:26.917,28.1876,25.6876
13:50:26.927,27.6251,26.8751
13:50:26.937,28.8751,27.5626
13:50:26.947,28.4376,27.8126
13:50:26.958,28.2501,29.0001
13:50:26.967,28.5001,29.0001
13:50:26.983,28.1876,27.5626
13:50:26.987,27.5626,26.8751
13:50:26.997,27.5626,26.0001
13:50:27.007,26.5626,24.1251
13:50:27.017,25.6251,21.6876
13:50:27.027,24.8751,21.2501
13:50:27.037,23.8126,20.3751
13:50:27.048,24.1251,18.3751
13:50:27.058,23.5626,17.3751
13:50:27.067,23.0626,17.2501
13:50:27.076,23.3751,17.4376
13:50:27.087,23.6251,16.6251
13:50:27.098,23.0001,16.3126
13:50:27.107,22.4376,15.3751
13:50:27.117,22.1251,14.2501
13:50:27.127,21.8126,14.7501
13:50:27.139,21.8126,13.0625
13:50:27.157,21.5001,11.875
13:50:27.187,20.1876,11.0625
13:50:27.188,19.9376,9.8125
13:50:27.204,19.7501,7.9375
13:50:27.211,18.6876,6.6875
13:50:27.211,18.3751,5.5625
13:50:27.214,17.8751,3.125
13:50:27.217,16.5001,2.25
13:50:27.228,16.3126,0.875
13:50:27.236,15.4376,-0.9375
13:50:27.247,15.0626,-2.3125
13:50:27.257,15.1251,-3.9375
13:50:27.267,14.0626,-5.8125
13:50:27.277,13.0625,-6.9375
13:50:27.288,12.9375,-7.4375
13:50:27.297,12.0625,-9.8125
13:50:27.307,11,-10.625
13:50:27.318,11.125,-11.1875
13:50:27.327,10.8125,-13.3751
13:50:27.337,10.0625,-14.6251
13:50:27.347,9.8125,-16.1876
13:50:27.358,9.0625,-16.1876
13:50:27.367,8.4375,-18.8751
13:50:27.376,7.6875,-19.8126
13:50:27.387,7.6875,-20.1876
13:50:27.397,7.3125,-22.1876
13:50:27.408,6.125,-23.0626
13:50:27.417,5.5625,-23.8126
13:50:27.427,5.375,-25.5626
13:50:27.437,4.3125,-26.3751
13:50:27.447,3.875,-28.5001
13:50:27.457,2.875,-28.1876
13:50:27.468,4.125,-28.4376
13:50:27.477,5.9375,-25.5626
13:50:27.487,9.4375,-17.1251
13:50:27.499,13.3751,-9.5
13:50:27.507,15.8751,-1.5625
13:50:27.517,19.1876,5.75
13:50:27.527,21.7501,11.25
13:50:27.537,23.0626,18.1251
13:50:27.547,25.1876,20.7501
13:50:27.557,25.1876,24.0001
13:50:27.567,25.9376,25.2501
13:50:27.596,26.1876,27.3751
13:50:27.598,27.0001,27.5626
13:50:27.601,26.3751,27.3126
13:50:27.610,26.8126,29.2501
13:50:27.639,27.1876,28.8126
13:50:27.641,26.5001,29.2501
13:50:27.643,26.6876,30.6251
13:50:27.648,27.3126,30.2501
13:50:27.679,26.3751,31.9376
13:50:27.681,26.7501,31.0626
13:50:27.683,26.2501,30.5626
13:50:27.690,26.1876,31.5001
13:50:27.697,26.3126,30.5626
13:50:27.718,25.4376,28.6251
13:50:27.721,24.2501,27.1876
13:50:27.729,23.4376,25.5001
13:50:27.739,22.5001,23.3751
13:50:27.747,21.3126,21.3751
13:50:27.757,20.1876,20.4376
13:50:27.769,19.6251,18.8751
13:50:27.777,19.4376,17.3751
13:50:27.787,18.6251,16.8751
13:50:27.797,17.6251,16.4376
13:50:27.806,17.6876,15.7501
13:50:27.817,17.3126,14.0626
13:50:27.827,17.5001,15.5626
13:50:27.837,17.3751,13.9376
13:50:27.847,16.2501,12
13:50:27.858,15.3751,10.5625
13:50:27.866,15.1251,10.6875
13:50:27.877,14.5626,8.375
13:50:27.887,13.2501,6.5625
13:50:27.897,12.625,6.8125
13:50:27.907,12.5625,3.8125
13:50:27.917,11.9375,2
13:50:27.927,10.875,0.3125
13:50:27.948,10,0.625
13:50:27.951,9.5,-2.5625
13:50:27.960,8.25,-4.5625
13:50:27.968,7.6875,-5.125
13:50:27.982,8.1875,-6.3125
13:50:27.991,6.625,-8.5625
13:50:27.997,5.375,-9.3125
13:50:28.007,4.6875,-11.375
13:50:28.018,4.375,-13.5626
13:50:28.028,3.6875,-13.8126
13:50:28.038,3.1875,-15.2501
13:50:28.047,2.5,-17.8751
13:50:28.057,1.25,-18.9376
13:50:28.067,1.125,-19.0001
13:50:28.077,1,-20.6251
13:50:28.088,0.25,-22.3126
13:50:28.098,-1.1875,-24.1251
13:50:28.106,-2.1875,-25.2501
13:50:28.118,-1.4375,-27.0001
13:50:28.128,-3.25,-28.6876
13:50:28.137,-3.25,-28.5001
13:50:28.147,-2.875,-27.0001
13:50:28.157,-1.6875,-25.8751
13:50:28.166,1.6875,-19.0001
13:50:28.177,4.75,-12.625
13:50:28.187,8.125,-4.0625
13:50:28.197,10.6875,2.25
13:50:28.207,13.4376,10.5
13:50:28.218,16.1876,15.2501
13:50:28.227,17.2501,19.0001
13:50:28.238,17.8126,24.4376
13:50:28.246,18.9376,25.7501
13:50:28.257,18.7501,28.2501
13:50:28.267,19.8751,28.1251
13:50:28.277,18.7501,29.9376
13:50:28.287,19.6251,29.7501
13:50:28.297,19.0001,30.3126
13:50:28.308,19.1876,29.4376
13:50:28.317,18.3126,30.0001
13:50:28.327,18.3751,29.6251
13:50:28.337,17.9376,29.8751
13:50:28.347,17.9376,30.5626
13:50:28.357,17.8126,29.4376
13:50:28.367,17.1876,28.6876
13:50:28.378,15.9376,28.1251
13:50:28.387,15.3751,26.6876
13:50:28.398,14.9376,24.3751
13:50:28.406,13.5626,22.1251
13:50:28.417,11.9375,21.6876
13:50:28.428,11.5625,19.0001
13:50:28.437,10.25,17.3126
13:50:28.465,9.8125,17.1876
13:50:28.468,9.8125,16.0626
13:50:28.470,9.4375,15.2501
13:50:28.479,8.5,16.3751
13:50:28.493,9.125,15.6251
13:50:28.509,8.25,14.7501
13:50:28.511,7.5625,14.4376
13:50:28.526,7.875,13.0625
13:50:28.528,7,12.125
13:50:28.543,5.9375,11.375
13:50:28.548,5.875,10.75
13:50:28.556,5.375,9.0625
13:50:28.567,4.4375,7.5
13:50:28.578,3.5625,5.5
13:50:28.587,3.25,4.625
13:50:28.597,1.9375,2.9375
13:50:28.608,0.75,1.375
13:50:28.617,0.6875,0.4375
13:50:28.627,0.1875,-1.8125
13:50:28.637,-0.875,-1.8125
13:50:28.647,-1.25,-4
13:50:28.657,-1.75,-5.6875
13:50:28.668,-2.625,-7.8125
13:50:28.677,-3.625,-9.5625
13:50:28.686,-4.6875,-10.25
13:50:28.697,-5.5625,-11.25
13:50:28.707,-6,-12.9375
13:50:28.717,-6.3125,-15.1876
13:50:28.728,-6.75,-15.9376
13:50:28.737,-7.0625,-17.0626
13:50:28.748,-8,-18.2501
13:50:28.758,-8.6875,-17.8751
13:50:28.768,-6.6875,-17.0626
13:50:28.778,-4.8125,-12.875
13:50:28.788,-2.125,-6.5
13:50:28.797,1.25,0.0625
13:50:28.807,3.9375,7.4375
13:50:28.817,6.6875,14.2501
13:50:28.827,9,20.8126
13:50:28.837,10.625,26.0001
13:50:28.848,12.6875,30.5626
13:50:28.857,13,33.0626
13:50:28.868,13.8751,35.6876
13:50:28.877,14.0001,36.1876
13:50:28.888,13.5626,37.7501
13:50:28.897,13.4376,38.6251
13:50:28.907,13.2501,37.9376
13:50:28.918,13,38.3126
13:50:28.929,13.3126,38.5626
13:50:28.940,12.6875,38.7501
13:50:28.946,13.0625,39.5002
13:50:28.971,12.625,38.8751
13:50:28.973,12.5625,39.8752
13:50:28.978,12.9375,39.1877
13:50:29.016,12,38.0626
13:50:29.018,10.375,36.6876
13:50:29.020,9.6875,34.8751
13:50:29.023,9.125,32.5001
13:50:29.032,7.375,29.6876
13:50:29.037,7,30.1251
13:50:29.070,6.5625,27.8751
13:50:29.072,6.125,26.7501
13:50:29.075,5.875,26.9376
13:50:29.077,6.0625,27.8126
13:50:29.091,6.625,27.4376
13:50:29.098,6.125,26.8126
13:50:29.107,5.4375,26.6876
13:50:29.118,4.8125,25.8126
13:50:29.128,4.3125,24.0001
13:50:29.137,3.875,22.8126
13:50:29.146,2.625,21.3126
13:50:29.157,1.125,19.6251
13:50:29.167,1,17.3126
13:50:29.177,0.5625,14.5626
13:50:29.187,-0.0625,12.8125
13:50:29.197,-0.6875,11.5
13:50:29.208,-2.125,9.125
13:50:29.217,-3.125,8.875
13:50:29.227,-3.5625,6.1875
13:50:29.240,-3.5,4.4375
13:50:29.247,-5.0625,2.75
13:50:29.268,-5.625,2.5625
13:50:29.271,-5.5,0.125
13:50:29.281,-6.5,-1.1875
13:50:29.286,-6.5625,-1.5
13:50:29.302,-7.5,-4.0625
13:50:29.311,-8.75,-5
13:50:29.317,-8.8125,-6.6875
13:50:29.327,-9.4375,-9.25
13:50:29.336,-10.375,-10.4375
13:50:29.347,-10.8125,-11.875
13:50:29.357,-11.4375,-13.7501
13:50:29.368,-11.4375,-14.2501
13:50:29.376,-12.125,-16.3126
13:50:29.388,-11.6875,-14.3126
13:50:29.399,-9.125,-10.75
13:50:29.408,-5.75,-4.5625
13:50:29.417,-2.8125,4.8125
13:50:29.428,1.1875,13.125
13:50:29.437,4.75,20.1251
13:50:29.446,6.6875,28.1876
13:50:29.458,10.1875,35.5001
13:50:29.466,11.625,42.1252
13:50:29.478,13.3751,47.3127
13:50:29.488,14.1876,51.4377
13:50:29.497,15.9376,55.1252
13:50:29.507,15.8751,57.3127
13:50:29.518,16.3751,59.0627
13:50:29.527,16.0001,61.4377
13:50:29.537,15.8126,62.1877
13:50:29.548,15.9376,63.8127
13:50:29.557,15.3126,63.5627
13:50:29.568,15.3751,64.8127
13:50:29.578,14.5626,63.8752
13:50:29.588,13.8751,64.9377
13:50:29.598,14.0626,63.4377
13:50:29.614,12.75,63.2502
13:50:29.616,11.5625,62.1877
13:50:29.628,11.125,59.4377
13:50:29.639,8.9375,56.6877
13:50:29.648,8.0625,54.8752
13:50:29.658,6.75,50.6877
13:50:29.668,5.1875,47.9377
13:50:29.676,3.9375,45.7502
13:50:29.688,3.625,43.5627
13:50:29.703,2.5,40.9377
13:50:29.712,2,39.8127
13:50:29.744,1.8125,38.9376
13:50:29.747,1.4375,38.6876
13:50:29.749,1.125,37.3751
13:50:29.755,-0.125,36.8126
13:50:29.766,-0.4375,34.1876
13:50:29.772,-1.5625,33.4376
13:50:29.783,-1.4375,30.2501
13:50:29.792,-3.125,29.4376
13:50:29.812,-3.25,26.3126
13:50:29.819,-5,25.5626
13:50:29.835,-5.0625,22.8126
13:50:29.836,-5.875,21.1251
13:50:29.856,-7.0625,19.0001
13:50:29.857,-7.8125,16.5001
13:50:29.863,-9.5,13.3751
13:50:29.872,-9.3125,10.875
13:50:29.884,-11,8.5625
13:50:29.893,-11.9375,7.25
13:50:29.902,-11.5625,4
13:50:29.913,-13.3126,1.9375
13:50:29.923,-14.2501,0.25
13:50:29.933,-14.3126,-2.5
13:50:29.943,-15.6876,-3.125
13:50:29.952,-15.3126,-6.0625
13:50:29.963,-16.6251,-7.0625
13:50:29.972,-17.1876,-10
13:50:29.989,-18.0626,-12.375
13:50:29.992,-19.0001,-13.3751
13:50:30.003,-18.6251,-15.3126
13:50:30.014,-19.8751,-17.7501
13:50:30.023,-20.5001,-17.9376
13:50:30.033,-20.3126,-20.8126
13:50:30.043,-21.4376,-23.0626
13:50:30.053,-21.5626,-24.1251
13:50:30.062,-22.6876,-27.8126
13:50:30.074,-23.0626,-28.3126
13:50:30.082,-22.7501,-30.0001
13:50:30.094,-22.4376,-28.3126
13:50:30.102,-19.1251,-23.4376
13:50:30.113,-15.0001,-16.1876
13:50:30.123,-11.0625,-5.6875
13:50:30.133,-7.375,3.625
13:50:30.142,-4.25,12.75
13:50:30.152,-0.4375,20.1251
13:50:30.163,1.375,28.7501
13:50:30.173,3.3125,34.8751
13:50:30.182,5.375,39.4377
13:50:30.194,6.6875,44.1877
13:50:30.203,7.25,46.5002
13:50:30.214,8.0625,49.4377
13:50:30.222,8.1875,50.3752
13:50:30.233,8.3125,52.5002
13:50:30.243,8.5,53.1252
13:50:30.253,7.625,55.0002
13:50:30.263,8.0625,54.5002
13:50:30.273,8,55.5002
13:50:30.282,8.5,56.6252
13:50:30.293,7.3125,56.7502
13:50:30.302,8.125,58.0627
13:50:30.312,7,56.5627
13:50:30.323,6.1875,55.7502
13:50:30.333,5.375,55.8752
13:50:30.343,4.5,52.8752
13:50:30.353,3,50.5002
13:50:30.379,1,49.0002
13:50:30.382,0.9375,45.8752
13:50:30.384,-0.6875,42.9377
13:50:30.398,-1.4375,40.4377
13:50:30.404,-2.125,39.8127
13:50:30.447,-3.25,37.7501
13:50:30.449,-3.0625,36.4376
13:50:30.450,-4.1875,35.6876
13:50:30.454,-4.8125,34.3751
13:50:30.455,-5.1875,33.1876
13:50:30.492,-5.625,31.6251
13:50:30.494,-6.25,30.0626
13:50:30.496,-7.625,29.0626
13:50:30.502,-8,26.6251
13:50:30.503,-8.9375,24.9376
13:50:30.519,-10.5,22.4376
13:50:30.524,-11.125,20.8751
13:50:30.532,-11.9375,18.0626
13:50:30.543,-12.6875,16.7501
13:50:30.553,-13.6876,13.1251
13:50:30.563,-14.6251,11.4375
13:50:30.573,-16.1876,9
13:50:30.582,-16.8126,7.3125
13:50:30.597,-18.0001,4.4375
13:50:30.606,-18.6876,2.375
13:50:30.613,-18.9376,0.1875
13:50:30.628,-19.9376,-2.0625
13:50:30.638,-21.1251,-2.875
13:50:30.643,-21.8751,-6.375
13:50:30.654,-22.9376,-8.8125
13:50:30.663,-23.5001,-10.5625
13:50:30.673,-24.7501,-12.625
13:50:30.683,-25.1876,-13.7501
13:50:30.693,-25.5001,-16.9376
13:50:30.703,-26.1251,-17.1251
13:50:30.713,-26.8126,-19.5626
13:50:30.723,-27.7501,-22.3751
13:50:30.733,-28.7501,-23.8126
13:50:30.743,-29.0626,-26.7501
13:50:30.753,-30.0001,-28.7501
13:50:30.762,-30.6251,-30.1876
13:50:30.773,-30.3126,-30.6876
13:50:30.784,-29.9376,-30.3126
13:50:30.794,-27.8751,-26.7501
13:50:30.804,-24.8126,-19.6251
13:50:30.814,-21.2501,-11.0625
13:50:30.823,-17.7501,-3.3125
13:50:30.833,-14.9376,5.6875
13:50:30.843,-12,12.625
13:50:30.853,-8.75,20.8126
13:50:30.863,-6.6875,27.6251
13:50:30.873,-4.875,34.6251
13:50:30.883,-3.75,39.2501
13:50:30.892,-4,43.2502
13:50:30.903,-3.5,45.8127
13:50:30.911,-4.5,47.6252
13:50:30.923,-4.3125,49.0002
13:50:30.933,-7.25,49.6877
13:50:30.943,-8.875,50.9377
13:50:30.953,-10.125,51.0002
13:50:30.963,-12.625,52.9377
13:50:30.973,-13.7501,52.3127
13:50:30.982,-16.0001,53.4377
13:50:30.993,-17.2501,54.0627
13:50:31.028,-19.8126,53.3752
13:50:31.030,-22.0626,53.1877
13:50:31.032,-23.7501,52.3127
13:50:31.034,-26.3126,52.1877
13:50:31.044,-28.6876,49.5627
13:50:31.053,-31.7501,47.0627
13:50:31.063,-35.1876,46.3752
13:50:31.073,-36.3126,43.1877
13:50:31.083,-38.8126,41.2502
13:50:31.093,-39.4377,41.5627
13:50:31.103,-40.2502,40.6252
13:50:31.113,-40.5002,40.5627
13:50:31.134,-41.3752,40.0002
13:50:31.141,-42.0627,39.9377
13:50:31.148,-42.1877,39.5002
13:50:31.153,-42.0627,39.5627
13:50:31.171,-42.5002,38.7501
13:50:31.177,-41.9377,38.3751
13:50:31.185,-42.8752,37.2501
13:50:31.193,-43.0002,36.0001
13:50:31.204,-43.8752,35.2501
13:50:31.213,-44.5627,32.3126
13:50:31.223,-44.3127,32.1876
13:50:31.233,-44.8752,29.2501
13:50:31.244,-45.1877,28.1251
13:50:31.254,-45.4377,25.1876
13:50:31.270,-45.6252,24.0001
13:50:31.274,-46.5627,20.4376
13:50:31.284,-46.7502,19.4376
13:50:31.293,-47.6877,15.4376
13:50:31.303,-48.1877,13.9376
13:50:31.313,-48.7502,9.8125
13:50:31.323,-49.5002,8.5
13:50:31.333,-49.9377,5.8125
13:50:31.343,-50.9377,2.9375
13:50:31.353,-50.1877,0.375
13:50:31.363,-51.7502,-2.1875
13:50:31.373,-51.5627,-4.1875
13:50:31.383,-52.3127,-6
13:50:31.393,-52.5627,-9.5
13:50:31.403,-53.8127,-11.875
13:50:31.413,-53.9377,-14.2501
13:50:31.423,-53.9377,-16.8126
13:50:31.433,-54.2502,-18.9376
13:50:31.443,-55.1252,-21.3751
13:50:31.453,-55.0002,-23.6251
13:50:31.463,-56.1252,-26.6251
13:50:31.473,-55.6877,-29.3126
13:50:31.483,-55.6877,-29.4376
13:50:31.493,-55.3752,-30.9376
13:50:31.503,-53.4377,-29.4376
13:50:31.513,-51.7502,-24.9376
13:50:31.523,-48.0627,-19.8751
13:50:31.533,-44.2502,-11.0625
13:50:31.543,-41.6877,-3.3125
13:50:31.553,-38.1251,5.0625
13:50:31.563,-35.6251,14.4376
13:50:31.573,-32.0626,21.1251
13:50:31.585,-30.3751,29.7501
13:50:31.593,-27.9376,33.5626
13:50:31.603,-27.3751,37.3126
13:50:31.613,-25.9376,41.2502
13:50:31.623,-25.0626,42.3752
13:50:31.633,-24.8751,44.4377
13:50:31.644,-23.3126,45.0627
13:50:31.653,-23.2501,45.7502
13:50:31.665,-22.8751,46.4377
13:50:31.673,-21.9376,46.0627
13:50:31.683,-22.5001,47.1877
13:50:31.693,-22.3126,46.1877
13:50:31.703,-22.3751,47.1252
13:50:31.713,-22.2501,45.4377
13:50:31.724,-22.6251,42.9377
13:50:31.734,-23.5001,41.5627
13:50:31.743,-24.3126,38.4376
13:50:31.755,-25.8126,35.5626
13:50:31.763,-26.4376,32.7501
13:50:31.773,-27.0626,29.5626
13:50:31.783,-28.5626,27.8126
13:50:31.793,-28.5001,25.0001
13:50:31.803,-29.0001,21.9376
13:50:31.813,-28.9376,21.1876
13:50:31.823,-28.6251,19.4376
13:50:31.859,-29.6251,18.3751
13:50:31.861,-29.7501,18.0001
13:50:31.863,-30.2501,15.8751
13:50:31.865,-30.6251,13.6251
13:50:31.898,-30.7501,12.75
13:50:31.900,-31.3126,10.4375
13:50:31.942,-32.2501,8.6875
13:50:31.943,-32.4376,6.375
13:50:31.971,-33.9376,3.75
13:50:31.971,-34.1876,1.8125
13:50:31.971,-35.5001,-1.25
13:50:31.972,-37.1876,-3.75
13:50:31.987,-37.2501,-5.625
13:50:32.002,-38.3751,-9.625
13:50:32.003,-39.1251,-10.6875
13:50:32.004,-38.7501,-12.6875
13:50:32.007,-39.6252,-15.1251
13:50:32.020,-40.1252,-15.3126
13:50:32.023,-40.6252,-17.8126
13:50:32.033,-41.2502,-20.4376
13:50:32.043,-41.5627,-21.6876
13:50:32.053,-41.4377,-23.5001
13:50:32.063,-42.0627,-25.4376
13:50:32.073,-43.3127,-27.1251
13:50:32.083,-42.6877,-29.5001
13:50:32.093,-43.0627,-31.0001
13:50:32.103,-43.9377,-33.4376
13:50:32.113,-45.6877,-36.0626
13:50:32.123,-45.5627,-38.1876
13:50:32.133,-45.8752,-40.3752
13:50:32.144,-45.5627,-39.8752
13:50:32.153,-42.6252,-37.6251
13:50:32.163,-40.8752,-32.1251
13:50:32.173,-37.1251,-25.1251
13:50:32.184,-33.3751,-17.3751
13:50:32.193,-30.1876,-8.125
13:50:32.203,-25.8126,0
13:50:32.213,-22.9376,8.5625
13:50:32.223,-19.6876,15.2501
13:50:32.233,-17.8126,22.4376
13:50:32.243,-16.1876,27.1876
13:50:32.253,-14.8751,31.1876
13:50:32.264,-14.1251,33.3751
13:50:32.274,-12.6875,36.3751
13:50:32.305,-12.3125,36.7501
13:50:32.307,-12.8125,36.5001
13:50:32.309,-12.125,38.0626
13:50:32.318,-12.1875,36.8751
13:50:32.326,-12.3125,38.5001
13:50:32.335,-12.125,38.1251
13:50:32.343,-12.0625,38.2501
13:50:32.353,-12.375,37.1251
13:50:32.364,-13.3751,35.8126
13:50:32.373,-13.4376,34.3126
13:50:32.383,-13.3751,31.8751
13:50:32.394,-15.3751,28.5626
13:50:32.403,-15.0626,28.0001
13:50:32.413,-15.9376,25.1251
13:50:32.423,-16.3126,23.8751
13:50:32.433,-16.1251,23.0001
13:50:32.443,-16.6876,22.5626
13:50:32.462,-16.9376,22.6251
13:50:32.468,-16.5001,20.7501
13:50:32.483,-16.5626,20.4376
13:50:32.490,-16.0626,21.6251
13:50:32.496,-16.6876,20.3126
13:50:32.506,-17.1251,20.5626
13:50:32.513,-16.7501,19.1876
13:50:32.523,-17.8126,18.1876
13:50:32.534,-18.5001,17.6251
13:50:32.546,-19.2501,14.0001
13:50:32.555,-19.8126,12.0625
13:50:32.563,-20.1251,10.625
13:50:32.573,-21.0001,7.9375
13:50:32.585,-21.5001,6.125
13:50:32.593,-23.0626,3.25
13:50:32.604,-23.9376,1.625
13:50:32.614,-24.0626,-0.9375
13:50:32.624,-25.0626,-3.75
13:50:32.633,-26.1876,-5.9375
13:50:32.643,-26.7501,-8.25
13:50:32.653,-27.0626,-11.75
13:50:32.663,-28.3126,-14.5626
13:50:32.674,-29.3751,-16.0626
13:50:32.684,-30.1876,-20.2501
13:50:32.694,-31.3126,-22.9376
13:50:32.705,-31.6876,-25.6876
13:50:32.713,-32.8126,-29.1251
13:50:32.723,-34.3126,-31.8751
13:50:32.733,-35.0626,-34.1876
13:50:32.743,-36.1876,-37.7501
13:50:32.754,-36.5626,-37.6876
13:50:32.767,-36.1251,-39.6877
13:50:32.773,-34.2501,-37.8751
13:50:32.785,-31.0626,-31.7501
13:50:32.793,-28.1251,-25.7501
13:50:32.803,-24.0626,-16.3751
13:50:32.813,-21.0001,-7.875
13:50:32.823,-18.0001,2.9375
13:50:32.834,-14.0626,11.3125
13:50:32.843,-11.5625,20.3751
13:50:32.854,-9.1875,26.4376
13:50:32.863,-7.625,33.0626
13:50:32.873,-6.4375,37.8126
13:50:32.885,-5.375,40.6877
13:50:32.893,-4.6875,42.5627
13:50:32.903,-4,45.2502
13:50:32.938,-3.5625,44.8127
13:50:32.940,-3.1875,46.7502
13:50:32.942,-2.6875,46.5627
13:50:32.951,-3.125,47.5002
13:50:32.959,-2.8125,46.8127
13:50:32.968,-2.6875,47.4377
13:50:32.978,-2.375,46.3127
13:50:32.988,-2.75,46.6252
13:50:32.999,-2.875,44.9377
13:50:33.008,-4.0625,43.0627
13:50:33.018,-5.125,40.5627
13:50:33.028,-5.1875,37.8126
13:50:33.038,-6.75,34.1876
13:50:33.048,-7.625,32.8751
13:50:33.060,-8.0625,29.3126
13:50:33.068,-8.875,27.6251
13:50:33.078,-9.0625,25.6876
13:50:33.088,-9,23.1876
13:50:33.098,-10.375,23.6876
13:50:33.108,-10.5,20.5001
13:50:33.118,-10.5,18.8751
13:50:33.129,-11.0625,18.6876
13:50:33.144,-11.6875,16.0001
13:50:33.149,-12.1875,15.5001
13:50:33.158,-13.7501,12.5
13:50:33.168,-13.6876,11.8125
13:50:33.178,-14.3751,9
13:50:33.189,-15.8126,8.375
13:50:33.198,-16.2501,5.5
13:50:33.208,-16.1876,3
13:50:33.218,-16.6251,0.1875
13:50:33.253,-16.8126,-1.1875
13:50:33.255,-17.0001,-2.75
13:50:33.258,-18.0001,-5.125
13:50:33.363,-19.3751,-7.6875
13:50:33.380,-19.3126,-10.6875
13:50:33.382,-20.5626,-13.1251
13:50:33.382,-21.3126,-14.0001
13:50:33.382,-22.5626,-17.2501
13:50:33.385,-23.1876,-19.3751
13:50:33.389,-24.1251,-21.7501
13:50:33.397,-24.6251,-23.0001
13:50:33.403,-25.6251,-24.1876
13:50:33.413,-25.1251,-26.3126
13:50:33.423,-26.3751,-29.2501
13:50:33.433,-26.0626,-29.6876
13:50:33.443,-26.4376,-31.6876
13:50:33.453,-27.3751,-32.8751
13:50:33.463,-27.1876,-34.8126
13:50:33.473,-27.7501,-37.3751
13:50:33.483,-28.7501,-38.3126
13:50:33.493,-28.2501,-39.2502
13:50:33.503,-26.8126,-36.7501
13:50:33.516,-24.2501,-30.7501
13:50:33.528,-21.2501,-23.9376
13:50:33.534,0.75,39.6252
13:50:33.543,1.875,43.5002
13:50:33.553,2.875,45.3752
13:50:33.586,2.75,46.4377
13:50:33.587,3.4375,48.0002
13:50:33.590,3.5625,49.3127
13:50:33.595,3.875,49.9377
13:50:33.605,4.5625,50.6252
13:50:33.613,3.5,51.4377
13:50:33.623,3.75,51.7502
13:50:33.634,3.1875,50.3752
13:50:33.643,3.1875,49.8752
13:50:33.653,3.1875,49.4377
13:50:33.663,1.8125,47.8752
13:50:33.674,1.6875,45.2502
13:50:33.683,0.8125,43.3127
13:50:33.693,-0.5625,39.0001
13:50:33.703,-2.125,36.4376
13:50:33.713,-3.1875,32.3751
13:50:33.724,-4,29.6251
13:50:33.734,-5.625,26.0626
13:50:33.743,-5.9375,24.1251
13:50:33.754,-6.4375,21.0626
13:50:33.769,-7.75,20.1876
13:50:33.777,-7.6875,18.0001
13:50:33.791,-8.1875,17.1251
13:50:33.799,-8.5625,15.2501
13:50:33.813,-8.375,15.4376
13:50:33.819,-10,12.25
13:50:33.828,-10.4375,11.8125
13:50:33.838,-11.375,8.8125
13:50:33.848,-12.0625,7.625
13:50:33.858,-12.75,4.3125
13:50:33.868,-14.0001,2.1875
13:50:33.878,-15.1251,-1
13:50:33.889,-15.5001,-4.125
13:50:33.901,-17.3126,-5.375
13:50:33.908,-17.3126,-9.0625
13:50:33.918,-19.5626,-11.5625
13:50:33.928,-19.8751,-15.1876
13:50:33.938,-21.1876,-17.3126
13:50:33.949,-22.5626,-22.3126
13:50:33.958,-22.8126,-25.7501
13:50:33.968,-23.6251,-27.8751
13:50:33.978,-23.6251,-29.9376
13:50:33.988,-25.0626,-32.5626
13:50:33.998,-25.1876,-35.5001
13:50:34.008,-25.9376,-36.5001
13:50:34.018,-26.9376,-41.0002
13:50:34.028,-27.1876,-42.0002
13:50:34.038,-27.8126,-45.5002
13:50:34.048,-28.3751,-47.1877
13:50:34.059,-29.4376,-47.5002
13:50:34.068,-29.7501,-50.1877
13:50:34.078,-30.0626,-52.4377
13:50:34.089,-30.0001,-53.3127
13:50:34.098,-31.4376,-55.2502
13:50:34.108,-31.2501,-56.9377
13:50:34.118,-32.2501,-58.5627
13:50:34.129,-31.6876,-59.6252
13:50:34.138,-32.7501,-60.4377
13:50:34.149,-32.9376,-61.6877
13:50:34.158,-33.8126,-63.5002
13:50:34.168,-33.7501,-64.9377
13:50:34.178,-34.5626,-66.5003
13:50:34.188,-34.0001,-67.1253
13:50:34.198,-33.8751,-67.2503
13:50:34.208,-32.2501,-64.6252
13:50:34.218,-29.5626,-59.6252
13:50:34.228,-25.8126,-52.7502
13:50:34.239,-22.4376,-43.1877
13:50:34.249,-17.5626,-33.9376
13:50:34.258,-14.1251,-23.3751
13:50:34.268,-9.5,-14.1251
13:50:34.278,-6.4375,-4.25
13:50:34.288,-3.1875,3.375
13:50:34.298,-1.25,10.4375
13:50:34.309,0.5,15.1251
13:50:34.318,1.1875,18.7501
13:50:34.328,2.625,22.0001
13:50:34.338,2.5,25.4376
13:50:34.348,3.25,25.5626
13:50:34.358,3.625,27.8751
13:50:34.368,3.625,28.3751
13:50:34.378,4,28.6876
13:50:34.388,4.4375,30.3751
13:50:34.398,4.5,30.6876
13:50:34.408,5.375,30.8126
13:50:34.419,4.1875,32.3126
13:50:34.428,4.625,30.1251
13:50:34.438,4.6875,30.5001
13:50:34.448,3.125,28.8126
13:50:34.458,2.8125,25.9376
13:50:34.468,1.4375,22.3126
13:50:34.478,0.75,20.1876
13:50:34.488,-0.8125,18.0626
13:50:34.498,-1.8125,14.9376
13:50:34.508,-2.4375,12.625
13:50:34.518,-2.6875,9.625
13:50:34.529,-3.25,9.125
13:50:34.538,-3.625,6.25
13:50:34.548,-4.0625,5.3125
13:50:34.558,-5.125,3.5
13:50:34.568,-5.1875,2.5625
13:50:34.579,-5.6875,0.5625
13:50:34.588,-5.9375,-0.1875
13:50:34.598,-7.125,-2.75
13:50:34.608,-7.5,-3.5625
13:50:34.618,-8.375,-7.1875
13:50:34.629,-8.5625,-7.625
13:50:34.654,-9.125,-10.4375
13:50:34.656,-9.75,-11.9375
13:50:34.700,-11,-15.0001
13:50:34.736,-11.5,-16.1876
13:50:34.738,-12.6875,-18.9376
13:50:34.738,-13,-21.1251
13:50:34.740,-14.6251,-23.0626
13:50:34.742,-15.1251,-26.3751
13:50:34.748,-16.3126,-27.9376
13:50:34.748,-16.5626,-31.6251
13:50:34.752,-18.2501,-32.8751
13:50:34.779,-18.1251,-36.1876
13:50:34.782,-19.8126,-37.7501
13:50:34.784,-20.4376,-40.9377
13:50:34.788,-21.0001,-43.7502
13:50:34.803,-21.1251,-45.0002
13:50:34.808,-22.0001,-46.5627
13:50:34.818,-22.3126,-47.8127
13:50:34.829,-22.6251,-50.7502
13:50:34.838,-22.7501,-51.8127
13:50:34.865,-22.8126,-53.8752
13:50:34.867,-23.5001,-54.2502
13:50:34.871,-24.2501,-59.3752
13:50:34.880,-24.8126,-60.3752
13:50:34.888,-25.5001,-60.6877
13:50:34.898,-25.2501,-61.8127
13:50:34.908,-26.2501,-62.6252
13:50:34.918,-26.8126,-63.5002
13:50:34.928,-26.7501,-65.8753
13:50:34.939,-27.6251,-66.6253
13:50:34.948,-27.1251,-67.8128
13:50:34.958,-27.1876,-68.0628
13:50:34.968,-27.3751,-69.5003
13:50:34.978,-26.5626,-69.9378
13:50:34.988,-27.0001,-69.3128
13:50:34.999,-24.9376,-66.8128
13:50:35.009,-22.9376,-62.3127
13:50:35.018,-18.6251,-55.8127
13:50:35.030,-15.3751,-47.1252
13:50:35.040,-11.6875,-38.6876
13:50:35.049,-8.625,-30.8126
13:50:35.058,-6.25,-23.1876
13:50:35.068,-3.25,-17.2501
13:50:35.083,-0.8125,-10.3125
13:50:35.099,0.875,-5.875
13:50:35.100,2.4375,-1.5
13:50:35.108,3.1875,1.1875
13:50:35.119,4.6875,3.625
13:50:35.128,4.8125,4.875
13:50:35.138,5.25,7.1875
13:50:35.148,5.875,7.5
13:50:35.158,5.9375,9.5625
13:50:35.168,6.25,9.6875
13:50:35.178,6.5,10.75
13:50:35.188,6.875,10.8125
13:50:35.198,7.375,12.9375
13:50:35.209,7.75,13.1876
13:50:35.219,7.75,12.3125
13:50:35.228,7.6875,12.9375
13:50:35.238,7.1875,10.6875
13:50:35.248,7.0625,10.125
13:50:35.258,6.4375,8.25
13:50:35.268,4.5,6
13:50:35.278,3.5,4.8125
13:50:35.288,3.5,2.625
13:50:35.298,3.9375,1.1875
13:50:35.309,2.6875,0.0625
13:50:35.318,2.1875,-0.375
13:50:35.328,2.8125,-2.1875
13:50:35.339,2.0625,-3.6875
13:50:35.351,1.6875,-4.125
13:50:35.359,1.8125,-5.375
13:50:35.369,1,-5.6875
13:50:35.378,1.25,-7.625
13:50:35.388,-0.1875,-8.9375
13:50:35.402,-0.5625,-10.125
13:50:35.408,-1.25,-12.625
13:50:35.418,-2.1875,-14.5626
13:50:35.429,-3.5625,-16.9376
13:50:35.439,-3.8125,-18.2501
13:50:35.450,-4.75,-20.9376
13:50:35.459,-4.8125,-22.1251
13:50:35.468,-5.5625,-24.7501
13:50:35.478,-6.1875,-25.5001
13:50:35.488,-6.3125,-28.0626
13:50:35.498,-7.3125,-29.4376
13:50:35.508,-8.0625,-30.3751
13:50:35.518,-8.3125,-33.7501
13:50:35.529,-9.5625,-33.6876
13:50:35.539,-9.8125,-35.8751
13:50:35.550,-9.6875,-37.5626
13:50:35.558,-10.9375,-38.5626
13:50:35.569,-11.1875,-41.0627
13:50:35.578,-11.1875,-41.3127
13:50:35.590,-11.8125,-43.8127
13:50:35.600,-11.1875,-44.7502
13:50:35.609,-12.0625,-44.4377
13:50:35.618,-12.0625,-46.1252
13:50:35.630,-11.5,-46.5627
13:50:35.638,-11.4375,-47.8127
13:50:35.649,-12.1875,-48.8127
13:50:35.659,-12.6875,-49.6877
13:50:35.670,-13,-49.6252
13:50:35.680,-13.4376,-51.3127
13:50:35.688,-13.6251,-51.1252
13:50:35.700,-14.0626,-52.6877
13:50:35.710,-13.6876,-53.1252
13:50:35.719,-14.0001,-54.5627
13:50:35.729,-14.3126,-54.0627
13:50:35.738,-14.8751,-56.1252
13:50:35.749,-14.1251,-54.5627
13:50:35.758,-12.9375,-52.8752
13:50:35.769,-10.5625,-47.5002
13:50:35.779,-7.625,-41.7502
13:50:35.789,-4.125,-34.3751
13:50:35.798,-0.9375,-28.2501
13:50:35.809,1.6875,-20.0626
13:50:35.818,3.875,-15.2501
13:50:35.828,6.25,-9.0625
13:50:35.840,7.9375,-5.3125
13:50:35.850,9.125,-1.9375
13:50:35.858,9.0625,0.875
13:50:35.868,9.75,2.375
13:50:35.880,10.1875,3.125
13:50:35.888,10,4.8125
13:50:35.900,10.625,4.3125
13:50:35.910,11.125,6.1875
13:50:35.919,11.3125,5.75
13:50:35.928,11.9375,8.5
13:50:35.938,12.125,7.8125
13:50:35.948,12,8.875
13:50:35.958,12.6875,9.875
13:50:35.968,11.9375,9.875
13:50:35.983,12.8125,9.5625
13:50:35.998,12.3125,9.1875
13:50:36.000,10.9375,9.1875
13:50:36.009,10.625,6.9375
13:50:36.020,10.25,4.9375
13:50:36.030,9.6875,3.6875
13:50:36.039,8.8125,2.875
13:50:36.050,9.0625,-0.0625
13:50:36.059,8.125,-0.8125
13:50:36.070,7.6875,-1.6875
13:50:36.078,7,-3.375
13:50:36.098,7.5625,-4.4375
13:50:36.101,6.9375,-6.125
13:50:36.133,6.0625,-6.1875
13:50:36.136,6.9375,-7.75
13:50:36.138,5.375,-9.375
13:50:36.152,4.875,-10.25
13:50:36.154,4.25,-11
13:50:36.185,3.4375,-12.4375
13:50:36.186,3.5,-15.3751
13:50:36.187,2.3125,-17.9376
13:50:36.215,1.375,-19.0626
13:50:36.218,0.875,-20.3751
13:50:36.220,0.4375,-22.9376
13:50:36.226,-0.6875,-25.4376
13:50:36.231,-1.375,-26.3126
13:50:36.241,-0.75,-28.7501
13:50:36.250,-2.5625,-31.0626
13:50:36.259,-3.75,-31.0626
13:50:36.270,-3.8125,-34.4376
13:50:36.280,-5.25,-35.1251
13:50:36.290,-5.3125,-37.7501
13:50:36.299,-5.375,-39.5002
13:50:36.309,-6.6875,-40.5627
13:50:36.318,-7.1875,-42.5002
13:50:36.329,-7.75,-45.0002
13:50:36.338,-8.625,-46.1252
13:50:36.350,-9.25,-47.0627
13:50:36.360,-9.75,-48.4377
13:50:36.378,-10.0625,-50.3752
13:50:36.384,-10.875,-51.2502
13:50:36.399,-11.25,-52.6877
13:50:36.402,-11.5625,-52.8752
13:50:36.409,-12.0625,-53.3752
13:50:36.419,-12.5,-55.0002
13:50:36.430,-12.1875,-54.4377
13:50:36.439,-12.375,-56.1877
13:50:36.449,-12.625,-56.0627
13:50:36.462,-12.375,-56.5002
13:50:36.470,-12.875,-57.3127
13:50:36.479,-12.6875,-58.4377
13:50:36.489,-13.2501,-58.9377
13:50:36.499,-12.25,-59.5627
13:50:36.510,-12.9375,-59.5627
13:50:36.519,-12.4375,-60.3752
13:50:36.528,-12.5,-61.2502
13:50:36.540,-12.875,-61.2502
13:50:36.551,-12.125,-58.5002
13:50:36.559,-10,-54.8127
13:50:36.570,-6.75,-48.8127
13:50:36.578,-3.1875,-41.3752
13:50:36.590,-0.625,-33.1876
13:50:36.599,2.5625,-26.3126
13:50:36.613,4.3125,-20.5626
13:50:36.619,7.375,-14.2501
13:50:36.629,8.125,-10
13:50:36.639,9.5,-6.5
13:50:36.649,10.125,-5.25
13:50:36.659,9.75,-1.625
13:50:36.669,10.5625,-1.875
13:50:36.679,11.0625,1.0625
13:50:36.690,11.625,1.125
13:50:36.699,11.875,1.125
13:50:36.710,11.6875,2.9375
13:50:36.719,12.625,3.25
13:50:36.728,12.3125,4.1875
13:50:36.739,13.3751,4.75
13:50:36.749,13.1876,5.75
13:50:36.759,13.4376,5.9375
13:50:36.769,13.5001,6.125
13:50:36.779,13.1876,5.625
13:50:36.790,12.8125,5.5625
13:50:36.800,12.4375,3.3125
13:50:36.809,12,3
13:50:36.820,11.8125,1.375
13:50:36.830,10.875,-0.1875
13:50:36.839,10.25,-0.375
13:50:36.849,9.9375,-1.9375
13:50:36.860,9.75,-2.5
13:50:36.869,9.5,-3.1875
13:50:36.880,9.1875,-2.75
13:50:36.890,9.375,-3.9375
13:50:36.900,9.1875,-4.9375
13:50:36.909,8.375,-5.25
13:50:36.920,8.75,-6.0625
13:50:36.929,7.625,-7.25
13:50:36.939,7.125,-6.875
13:50:36.950,7.1875,-8.75
13:50:36.959,6.8125,-9.6875
13:50:36.969,5.6875,-11.25
13:50:36.979,4.75,-11.375
13:50:36.993,4.8125,-14.0626
13:50:37.001,4,-14.7501
13:50:37.010,3.6875,-15.8126
13:50:37.019,2.9375,-18.6876
13:50:37.029,2.125,-18.5626
13:50:37.039,1.375,-21.3126
13:50:37.050,0.75,-22.8126
13:50:37.059,0.625,-23.5626
13:50:37.070,-0.3125,-25.5001
13:50:37.079,-1.25,-25.5626
13:50:37.089,-1.75,-27.4376
13:50:37.100,-2.25,-29.6876
13:50:37.109,-2.9375,-29.6876
13:50:37.119,-2.625,-30.3751
13:50:37.130,-3.375,-32.4376
13:50:37.140,-3.9375,-34.1876
13:50:37.149,-3.9375,-34.5626
13:50:37.160,-4.0625,-35.3751
13:50:37.169,-4.9375,-35.6876
13:50:37.179,-4.4375,-36.8751
13:50:37.190,-5.1875,-38.1251
13:50:37.199,-5.8125,-38.5001
13:50:37.209,-5.3125,-39.9377
13:50:37.220,-5.6875,-40.3127
13:50:37.229,-5.9375,-41.5002
13:50:37.239,-4.8125,-41.1877
13:50:37.249,-2.5,-37.8126
13:50:37.260,0.375,-33.1876
13:50:37.276,4.5,-25.8126
13:50:37.280,7.9375,-19.0001
13:50:37.320,10.9375,-11.0625
13:50:37.322,13.4376,-6.0625
13:50:37.325,15.1251,-0.3125
13:50:37.328,16.6876,3.5
13:50:37.330,16.6876,7.0625
13:50:37.359,16.6251,8.8125
13:50:37.360,16.6251,10.9375
13:50:37.363,17.5626,12.4375
13:50:37.371,19.1251,14.1251
13:50:37.383,19.6876,14.6876
13:50:37.390,21.1876,16.5626
13:50:37.425,22.1251,17.1876
13:50:37.430,23.6251,18.9376
13:50:37.430,25.8126,20.6251
13:50:37.437,26.2501,21.6251
13:50:37.443,27.0626,22.8751
13:50:37.449,29.0001,24.5626
13:50:37.460,30.5001,25.2501
13:50:37.470,30.9376,25.8126
13:50:37.479,30.6876,26.1876
13:50:37.489,29.7501,25.4376
13:50:37.500,30.0001,23.1251
13:50:37.509,29.3751,21.5001
13:50:37.519,28.3126,19.6251
13:50:37.530,28.5626,19.5001
13:50:37.539,28.5001,18.3126
13:50:37.549,28.6876,18.0001
13:50:37.560,31.1251,18.8751
13:50:37.569,33.6251,20.3751
13:50:37.580,35.5001,19.3126
13:50:37.590,35.8751,18.8751
13:50:37.599,35.7501,17.2501
13:50:37.610,36.7501,17.3751
13:50:37.619,39.7502,17.5626
13:50:37.630,41.4377,16.6251
13:50:37.639,43.5627,16.5626
13:50:37.649,45.1252,15.3751
13:50:37.659,47.1877,13.0625
13:50:37.679,45.8127,8.6875
13:50:37.684,44.5002,5.75
13:50:37.699,46.6252,5.5625
13:50:37.701,49.1877,5.5625
13:50:37.711,49.5002,3.4375
13:50:37.719,49.8752,1.6875
13:50:37.729,49.4377,-0.125
13:50:37.740,49.8127,-3
13:50:37.749,48.3127,-6.5625
13:50:37.760,46.7502,-9
13:50:37.769,45.8752,-10.8125
13:50:37.780,44.6877,-15.1251
13:50:37.789,42.5002,-18.6251
13:50:37.805,39.5627,-23.7501
13:50:37.820,36.8751,-26.6876
13:50:37.824,35.3126,-30.1876
13:50:37.835,33.1876,-33.8751
13:50:37.844,31.8126,-36.3126
13:50:37.854,30.3126,-38.5626
13:50:37.864,28.9376,-40.1877
13:50:37.875,27.6876,-42.0002
13:50:37.884,26.1876,-44.2502
13:50:37.895,25.1876,-46.6877
13:50:37.904,22.8751,-49.6877
13:50:37.914,21.1251,-50.5002
13:50:37.925,20.7501,-51.3127
13:50:37.934,20.6876,-51.1877
13:50:37.945,22.6251,-44.4377
13:50:37.956,27.6876,-35.3751
13:50:37.965,36.8751,-13.3126
13:50:37.974,41.4377,-2.75
13:50:37.985,43.6877,4.625
13:50:37.995,45.5002,12.1875
13:50:38.005,47.0627,16.0001
13:50:38.014,46.8127,19.6876
13:50:38.024,46.8752,21.8751
13:50:38.035,47.9377,23.2501
13:50:38.045,46.6877,23.3751
13:50:38.055,46.3127,24.1876
13:50:38.065,46.3127,24.3751
13:50:38.074,45.8127,23.8126
13:50:38.084,45.1877,23.1876
13:50:38.094,44.1877,23.4376
13:50:38.104,44.5002,23.2501
13:50:38.114,43.3752,22.8751
13:50:38.124,42.5002,22.5626
13:50:38.134,41.6252,22.2501
13:50:38.144,41.3127,21.3126
13:50:38.154,40.3127,20.5001
13:50:38.165,39.3752,20.6251
13:50:38.174,37.7501,18.3751
13:50:38.184,36.6876,15.6876
13:50:38.199,34.7501,12.9375
13:50:38.204,34.0001,11.25
13:50:38.214,32.1251,8.1875
13:50:38.224,30.7501,5.6875
13:50:38.235,29.1251,4.25
13:50:38.244,28.1251,4.3125
13:50:38.254,26.6876,2.875
13:50:38.264,25.2501,2.0625
13:50:38.274,24.6251,0.375
13:50:38.285,23.5001,0.0625
13:50:38.294,21.6251,-1.375
13:50:38.304,20.5001,-1.3125
13:50:38.315,18.5626,-2.9375
13:50:38.324,17.9376,-4.75
13:50:38.334,17.6251,-7.0625
13:50:38.345,16.1251,-8.25
13:50:38.354,15.6876,-9.9375
13:50:38.364,13.8126,-10.125
13:50:38.374,13.7501,-12.0625
13:50:38.384,13.3751,-14.1876
13:50:38.395,11.75,-16.1251
13:50:38.404,10.8125,-16.9376
13:50:38.415,10.5625,-20.0001
13:50:38.424,9.4375,-21.4376
13:50:38.434,8.9375,-22.3751
13:50:38.444,8.9375,-24.3751
13:50:38.454,8.25,-25.5626
13:50:38.464,6.9375,-25.2501
13:50:38.474,7.3125,-27.3751
13:50:38.484,6.625,-26.9376
13:50:38.494,6.75,-29.2501
13:50:38.504,6.125,-30.8751
13:50:38.514,6.25,-29.9376
13:50:38.524,5.9375,-32.0001
13:50:38.534,6.0625,-31.6876
13:50:38.544,6.125,-33.0626
13:50:38.554,5.5,-34.2501
13:50:38.575,4.5625,-34.0626
13:50:38.578,5,-36.2501
13:50:38.592,4.0625,-37.0001
13:50:38.594,3.125,-38.1876
13:50:38.604,3.0625,-39.8752
13:50:38.614,1.625,-40.7502
13:50:38.624,1.3125,-42.4377
13:50:38.635,0.5625,-44.0002
13:50:38.644,-0.5625,-45.5627
13:50:38.654,-1.625,-47.6877
13:50:38.665,-2.8125,-51.0627
13:50:38.674,-3.9375,-51.1877
13:50:38.705,-4.75,-52.8127
13:50:38.707,-5.5,-54.9377
13:50:38.709,-6.125,-55.6252
13:50:38.715,-6.25,-55.8752
13:50:38.728,-6.875,-57.8752
13:50:38.734,-8.125,-58.5002
13:50:38.745,-8.9375,-60.1252
13:50:38.755,-9.5625,-62.6877
13:50:38.764,-11.3125,-64.4377
13:50:38.774,-10.375,-63.4377
13:50:38.784,-7.1875,-57.3752
13:50:38.794,-1.625,-46.0002
13:50:38.804,5.9375,-28.5001
13:50:38.816,12.875,-11.8125
13:50:38.825,17.5626,-0.875
13:50:38.834,20.8126,8.3125
13:50:38.844,23.0626,14.3126
13:50:38.854,24.8126,20.5626
13:50:38.864,26.5001,24.0001
13:50:38.875,26.6876,26.6876
13:50:38.907,27.3751,28.3751
13:50:38.910,26.4376,30.0001
13:50:38.910,26.7501,30.9376
13:50:38.934,26.1251,30.4376
13:50:38.936,25.1251,32.2501
13:50:38.939,26.1251,31.5626
13:50:38.967,25.0626,33.6251
13:50:39.001,25.5001,33.9376
13:50:39.003,24.3751,35.0626
13:50:39.006,24.5626,34.1251
13:50:39.006,24.3126,35.3126
13:50:39.006,24.0001,34.8126
13:50:39.011,23.1251,34.8126
13:50:39.030,22.5626,35.5626
13:50:39.033,22.1251,33.0626
13:50:39.040,20.1251,32.3126
13:50:39.049,19.7501,29.7501
13:50:39.059,18.5001,28.3126
13:50:39.069,17.2501,25.9376
13:50:39.079,16.3751,24.0001
13:50:39.090,14.9376,22.6876
13:50:39.100,14.1876,20.6251
13:50:39.109,13.8751,20.5626
13:50:39.119,13.0625,18.9376
13:50:39.129,12.3125,17.9376
13:50:39.139,12.0625,18.1876
13:50:39.149,11.375,16.7501
13:50:39.159,11.375,16.0626
13:50:39.169,9.625,15.3126
13:50:39.180,9.3125,11.8125
13:50:39.189,8.8125,11.375
13:50:39.200,7.25,10.5625
13:50:39.209,7.5625,7.0625
13:50:39.219,5.9375,7
13:50:39.229,5.875,4
13:50:39.239,4.25,3.8125
13:50:39.249,4.25,1.25
13:50:39.259,3.4375,0.5625
13:50:39.269,2.9375,-1.8125
13:50:39.279,1.4375,-2.6875
13:50:39.289,1.375,-5.4375
13:50:39.300,-0.0625,-5.875
13:50:39.309,0.125,-8.0625
13:50:39.319,-1.3125,-9.875
13:50:39.330,-1.875,-11.375
13:50:39.339,-2.625,-13.5001
13:50:39.350,-3.0625,-15.3751
13:50:39.359,-2.875,-16.1876
13:50:39.369,-4.5625,-17.0001
13:50:39.384,-4.6875,-18.6251
13:50:39.395,-5.5625,-19.5626
13:50:39.405,-5.75,-21.2501
13:50:39.416,-6.375,-22.6251
13:50:39.424,-7.625,-23.1876
13:50:39.434,-8,-26.0001
13:50:39.444,-9.3125,-26.3126
13:50:39.454,-9.5,-28.9376
13:50:39.464,-9.1875,-30.0001
13:50:39.474,-10.9375,-31.5001
13:50:39.484,-11.25,-32.8751
13:50:39.494,-11.8125,-33.1251
13:50:39.505,-11.9375,-36.1251
13:50:39.515,-12.4375,-37.2501
13:50:39.524,-13.7501,-38.1251
13:50:39.534,-14.1876,-41.3127
13:50:39.544,-14.6251,-42.5002
13:50:39.554,-15.5626,-45.0002
13:50:39.565,-15.9376,-45.8752
13:50:39.575,-16.3751,-46.1877
13:50:39.584,-16.6876,-48.1252
13:50:39.594,-16.8126,-49.8127
13:50:39.605,-16.8751,-49.0627
13:50:39.615,-15.5626,-48.1252
13:50:39.624,-12,-40.5002
13:50:39.634,-6.875,-30.1876
13:50:39.646,-1.3125,-16.9376
13:50:39.655,3.5,-7.3125
13:50:39.664,6.8125,3.0625
13:50:39.674,10,9.875
13:50:39.684,12.8125,16.6251
13:50:39.694,13.7501,21.1876
13:50:39.705,15.1251,25.2501
13:50:39.714,15.2501,26.9376
13:50:39.724,15.9376,29.4376
13:50:39.735,15.3751,29.5001
13:50:39.746,15.6876,30.4376
13:50:39.754,15.2501,30.5001
13:50:39.764,14.5626,31.5001
13:50:39.779,14.1251,31.1876
13:50:39.784,14.0001,31.4376
13:50:39.794,13.4376,31.3126
13:50:39.805,13.2501,31.4376
13:50:39.814,12.875,31.3751
13:50:39.824,12.0625,31.8126
13:50:39.835,11.375,31.3751
13:50:39.844,10.875,29.5626
13:50:39.855,9.875,27.1251
13:50:39.870,9,26.5001
13:50:39.887,8.375,24.1251
13:50:39.888,7.3125,21.0001
13:50:39.895,5.6875,18.7501
13:50:39.905,5.3125,17.1876
13:50:39.914,4.875,15.1876
13:50:39.925,4.1875,15.4376
13:50:39.934,3.9375,14.0626
13:50:39.944,3.6875,12.9375
13:50:39.955,4.375,13.9376
13:50:39.986,3.5625,11.9375
13:50:39.987,3.5625,11.75
13:50:39.989,3.1875,10
13:50:39.996,2.3125,9.1875
13:50:40.005,2.1875,7.75
13:50:40.014,0.6875,6.875
13:50:40.025,0.375,5.5625
13:50:40.034,-0.4375,3.4375
13:50:40.044,-1.0625,0.75
13:50:40.055,-0.75,-0.25
13:50:40.065,-2.125,-2.25
13:50:40.074,-2.5625,-4.125
13:50:40.084,-3.4375,-6.5
13:50:40.094,-4.1875,-8.125
13:50:40.105,-5.0625,-10.875
13:50:40.114,-6.4375,-12.125
13:50:40.124,-6.5625,-14.3751
13:50:40.134,-7.5625,-16.2501
13:50:40.144,-8.8125,-18.5001
13:50:40.154,-8.8125,-19.8126
13:50:40.164,-9.875,-22.9376
13:50:40.174,-10.5,-24.5626
13:50:40.185,-10.875,-26.1876
13:50:40.194,-12.5,-27.5001
13:50:40.233,-12.3125,-29.6876
13:50:40.233,-13.7501,-31.6251
13:50:40.237,-13.7501,-33.4376
13:50:40.238,-14.7501,-34.0001
13:50:40.245,-15.3126,-36.0626
13:50:40.276,-15.0001,-37.2501
13:50:40.280,-16.1251,-37.3751
13:50:40.309,-16.5001,-39.1877
13:50:40.312,-16.8751,-40.6252
13:50:40.313,-17.5626,-41.3752
13:50:40.316,-18.1251,-42.9377
13:50:40.345,-17.7501,-45.3752
13:50:40.346,-19.8751,-45.7502
13:50:40.349,-19.7501,-48.4377
13:50:40.355,-20.6876,-49.3127
13:50:40.357,-21.5001,-51.8127
13:50:40.364,-21.3751,-53.8127
13:50:40.374,-21.9376,-53.8752
13:50:40.385,-20.2501,-52.1877
13:50:40.394,-16.5001,-43.6877
13:50:40.404,-10.125,-32.9376
13:50:40.414,-3.4375,-17.1876
13:50:40.424,1.875,-5.125
13:50:40.435,5.3125,3.875
13:50:40.444,9.375,12.625
13:50:40.454,11.3125,19.6876
13:50:40.464,13.0625,25.4376
13:50:40.476,14.6251,29.5626
13:50:40.484,15.8751,33.4376
13:50:40.494,15.6876,36.0001
13:50:40.504,16.3751,35.9376
13:50:40.517,16.1251,36.5001
13:50:40.529,16.2501,37.3126
13:50:40.534,16.0001,36.5626
13:50:40.545,14.5626,37.0001
13:50:40.554,15.3126,36.3126
13:50:40.564,14.6251,37.3751
13:50:40.574,14.9376,37.5626
13:50:40.585,14.5001,38.5626
13:50:40.594,13.7501,38.5001
13:50:40.604,13.6876,36.5001
13:50:40.614,12.5625,35.6251
13:50:40.624,12.125,35.0001
13:50:40.634,11.875,32.5001
13:50:40.644,9.75,30.1251
13:50:40.654,9.1875,28.3751
13:50:40.664,8.6875,26.3751
13:50:40.674,8.8125,25.3751
13:50:40.684,8.5,24.6876
13:50:40.694,7.375,24.3751
13:50:40.704,8.1875,23.3751
13:50:40.716,7.4375,22.7501
13:50:40.726,6.75,22.0626
13:50:40.734,7.1875,20.8751
13:50:40.744,6.125,21.1251
13:50:40.754,5.6875,18.9376
13:50:40.764,5.25,18.0626
13:50:40.774,4.875,17.7501
13:50:40.784,4.75,15.9376
13:50:40.794,4.5,15.0626
13:50:40.804,4.0625,13.1251
13:50:40.815,3,11.75
13:50:40.825,2,9.25
13:50:40.834,1.0625,7.1875
13:50:40.844,0.5,5.3125
13:50:40.856,-0.4375,2.625
13:50:40.864,-1.125,0.75
13:50:40.875,-2.6875,-1.1875
13:50:40.884,-3.875,-2.375
13:50:40.896,-3.9375,-4.75
13:50:40.906,-5.125,-7.0625
13:50:40.917,-5.5625,-9.0625
13:50:40.925,-6.5625,-11.5625
13:50:40.936,-7.3125,-12.9375
13:50:40.945,-8.4375,-15.8126
13:50:40.954,-8.9375,-17.7501
13:50:40.965,-9.4375,-19.2501
13:50:40.975,-10.5,-20.9376
13:50:40.985,-11.5625,-21.8126
13:50:40.994,-11.9375,-24.1251
13:50:41.007,-13.0625,-26.4376
13:50:41.016,-13.3751,-27.9376
13:50:41.024,-13.5001,-29.3751
13:50:41.036,-14.9376,-31.0626
13:50:41.045,-14.3751,-32.3126
13:50:41.056,-14.6876,-31.2501
13:50:41.065,-11,-27.4376
13:50:41.076,-7.5625,-19.0626
13:50:41.086,-1.5625,-8.125
13:50:41.095,2.375,2.875
13:50:41.104,6.25,11.3125
13:50:41.115,9.6875,21.0001
13:50:41.125,12.4375,27.4376
13:50:41.134,14.8751,34.4376
13:50:41.144,16.3751,40.2502
13:50:41.166,18.5001,44.6877
13:50:41.168,18.8126,49.3127
13:50:41.179,19.6251,51.3127
13:50:41.185,20.1876,51.7502
13:50:41.200,19.8751,53.5627
13:50:41.208,20.6251,53.4377
13:50:41.216,20.3126,54.1252
13:50:41.226,20.5626,54.6877
13:50:41.235,20.2501,54.6877
13:50:41.265,19.8751,55.9377
13:50:41.268,20.4376,54.5002
13:50:41.270,20.3751,55.1877
13:50:41.277,19.6251,56.4377
13:50:41.289,19.8126,54.3752
13:50:41.294,18.9376,52.7502
13:50:41.306,17.7501,50.3752
13:50:41.315,16.7501,48.5002
13:50:41.325,15.8751,45.8127
13:50:41.334,15.3751,42.4377
13:50:41.345,13.7501,41.5627
13:50:41.354,13.1876,37.6876
13:50:41.367,12.5,36.5626
13:50:41.374,11.9375,35.7501
13:50:41.385,11.6875,33.7501
13:50:41.394,10.75,33.0626
13:50:41.404,11.375,31.8126
13:50:41.416,10.625,30.8751
13:50:41.426,10,29.9376
13:50:41.436,9.3125,28.0001
13:50:41.446,7.8125,26.4376
13:50:41.456,7.875,24.8126
13:50:41.465,6.75,21.8126
13:50:41.474,5.8125,20.8126
13:50:41.485,5.25,17.8751
13:50:41.496,3.875,16.0001
13:50:41.504,3.4375,12.75
13:50:41.516,2,11.4375
13:50:41.525,1.4375,8.75
13:50:41.535,0.375,6.5
13:50:41.545,-1.125,3.4375
13:50:41.554,-1.875,1.25
13:50:41.572,-2.8125,-1.5625
13:50:41.578,-4.1875,-3.25
13:50:41.587,-5.1875,-5.4375
13:50:41.596,-6.3125,-8.8125
13:50:41.662,-7,-11.0625
13:50:41.664,-8.375,-13.125
13:50:41.666,-9.25,-15.6251
13:50:41.668,-9.875,-17.6251
13:50:41.668,-10.3125,-19.5626
13:50:41.670,-11.625,-22.1251
13:50:41.698,-12.3125,-23.5626
13:50:41.701,-12.625,-25.9376
13:50:41.703,-14.1876,-27.2501
13:50:41.735,-14.5626,-29.1251
13:50:41.737,-15.3126,-32.0001
13:50:41.740,-16.0626,-32.8126
13:50:41.742,-16.7501,-35.1876
13:50:41.756,-17.2501,-37.1251
13:50:41.761,-18.9376,-37.9376
13:50:41.770,-18.5001,-40.6877
13:50:41.780,-18.8126,-39.1252
13:50:41.790,-15.5626,-36.1251
13:50:41.799,-10.9375,-26.3126
13:50:41.812,-4.3125,-14.1876
13:50:41.821,1.3125,-2.0625
13:50:41.836,11.25,24.2501
13:50:41.845,14.7501,32.3751
13:50:41.856,18.4376,41.1877
13:50:41.865,20.4376,46.9377
13:50:41.876,22.8126,52.6877
13:50:41.886,23.1876,55.5002
13:50:41.896,24.8126,59.2502
13:50:41.904,24.8751,60.5627
13:50:41.915,25.6251,62.3127
13:50:41.926,25.2501,64.6252
13:50:41.936,25.9376,64.5627
13:50:41.945,26.5626,66.0628
13:50:41.954,26.1251,66.0628
13:50:41.964,27.1251,67.3128
13:50:41.975,26.7501,68.0628
13:50:41.985,26.5001,67.6253
13:50:41.996,26.1251,69.6253
13:50:42.006,25.5001,68.5003
13:50:42.016,24.9376,65.8753
13:50:42.026,23.7501,63.1877
13:50:42.036,21.6251,59.4377
13:50:42.046,20.1251,57.2502
13:50:42.056,18.8751,54.6252
13:50:42.065,18.0001,50.8752
13:50:42.075,16.3751,47.9377
13:50:42.086,15.2501,46.2502
13:50:42.096,14.3126,43.3127
13:50:42.106,13.3126,42.3127
13:50:42.116,12.75,40.0002
13:50:42.131,12.5,38.7501
13:50:42.136,11.3125,36.3751
13:50:42.145,10.6875,36.3126
13:50:42.155,10.75,33.7501
13:50:42.166,9.6875,32.2501
13:50:42.176,8.4375,29.8751
13:50:42.186,7.3125,28.0626
13:50:42.196,6.375,26.3126
13:50:42.205,5.125,22.8751
13:50:42.216,4.375,20.6251
13:50:42.226,2.75,19.1876
13:50:42.235,2.125,16.0626
13:50:42.248,1,12.875
13:50:42.256,-0.4375,9.75
13:50:42.265,-1.3125,8.25
13:50:42.276,-1.8125,5.25
13:50:42.286,-3.625,2
13:50:42.295,-5.4375,-0.625
13:50:42.305,-6.125,-1.875
13:50:42.315,-6.4375,-5.6875
13:50:42.325,-8.125,-8.25
13:50:42.336,-9.1875,-10.8125
13:50:42.345,-10.0625,-12.375
13:50:42.356,-11,-15.5001
13:50:42.365,-11.5625,-17.1876
13:50:42.376,-12.375,-19.3751
13:50:42.386,-13.3751,-20.7501
13:50:42.395,-14.0626,-23.6876
13:50:42.406,-14.5626,-25.8751
13:50:42.416,-15.5626,-28.4376
13:50:42.425,-16.1251,-29.1876
13:50:42.436,-16.5001,-31.3751
13:50:42.445,-17.2501,-34.0626
13:50:42.455,-18.5001,-36.0001
13:50:42.465,-18.9376,-37.0001
13:50:42.484,-19.1876,-39.5627
13:50:42.487,-20.0001,-41.6252
13:50:42.506,-21.1876,-43.3752
13:50:42.510,-22.1251,-44.8752
13:50:42.551,-22.3751,-47.2502
13:50:42.566,-22.6876,-48.3127
13:50:42.567,-23.9376,-50.0627
13:50:42.571,-24.3126,-51.3127
13:50:42.571,-24.8751,-53.5002
13:50:42.578,-26.0626,-54.1252
13:50:42.588,-26.3126,-57.0627
13:50:42.596,-26.3751,-58.6877
13:50:42.605,-28.0001,-60.6252
13:50:42.615,-27.8126,-62.5627
13:50:42.626,-28.0626,-62.5627
13:50:42.635,-24.8751,-59.0627
13:50:42.646,-20.2501,-49.9377
13:50:42.655,-12.125,-34.7501
13:50:42.666,-4.875,-17.1876
13:50:42.676,1.8125,-3
13:50:42.686,6.3125,8.25
13:50:42.695,11.75,19.0001
13:50:42.706,14.6251,28.1876
13:50:42.715,17.5626,36.0001
13:50:42.726,20.4376,41.0627
13:50:42.737,24.5001,50.1252
13:50:42.745,24.6251,53.0002
13:50:42.756,25.1876,54.8752
13:50:42.766,25.0626,55.7502
13:50:42.776,25.5001,58.4377
13:50:42.786,25.8126,58.2502
13:50:42.795,26.8751,59.5002
13:50:42.805,25.7501,60.4377
13:50:42.815,26.4376,60.8752
13:50:42.825,26.0626,63.2502
13:50:42.835,26.8126,62.5002
13:50:42.845,26.2501,62.1252
13:50:42.856,25.5626,62.2502
13:50:42.866,24.4376,62.1252
13:50:42.881,24.3751,60.0002
13:50:42.886,22.7501,57.1252
13:50:42.907,22.3126,54.5627
13:50:42.909,20.0001,52.1877
13:50:42.939,18.5626,48.6252
13:50:42.987,17.7501,45.3752
13:50:42.987,15.9376,43.3752
13:50:42.987,15.1251,40.3752
13:50:42.989,13.6251,39.0626
13:50:42.997,13.3126,36.8751
13:50:43.000,11.9375,35.2501
13:50:43.000,11.375,33.4376
13:50:43.031,10.5625,31.0626
13:50:43.034,9.4375,29.1876
13:50:43.036,9.25,27.3126
13:50:43.038,7.75,25.6876
13:50:43.046,6,23.5001
13:50:43.055,5.1875,20.6876
13:50:43.065,3.75,16.5626
13:50:43.075,2.25,14.6251
13:50:43.086,0.875,12.1875
13:50:43.096,-0.25,9
13:50:43.105,-1.1875,5.4375
13:50:43.116,-3.0625,4.125
13:50:43.125,-4.0625,0.8125
13:50:43.136,-5.25,-2
13:50:43.145,-6.3125,-4.625
13:50:43.155,-7.5,-7.875
13:50:43.165,-9.9375,-13.3751
13:50:43.176,-10.875,-14.6876
13:50:43.186,-12.1875,-18.5626
13:50:43.195,-13,-20.5626
13:50:43.206,-14.4376,-23.5001
13:50:43.218,-14.6251,-25.4376
13:50:43.226,-15.7501,-27.8751
13:50:43.236,-17.2501,-30.5001
13:50:43.245,-17.2501,-32.8126
13:50:43.256,-19.3126,-35.1876
13:50:43.266,-20.0626,-37.8751
13:50:43.276,-20.8751,-40.0627
13:50:43.286,-21.8751,-41.1877
13:50:43.296,-21.6251,-44.3127
13:50:43.306,-23.6876,-44.6252
13:50:43.316,-23.8126,-47.5627
13:50:43.326,-23.1876,-48.5627
13:50:43.335,-25.0626,-50.6877
13:50:43.345,-24.9376,-52.9377
13:50:43.356,-26.5626,-54.0002
13:50:43.367,-26.1876,-55.5002
13:50:43.375,-27.5001,-57.0002
13:50:43.386,-27.5626,-59.1877
13:50:43.396,-27.0626,-60.1877
13:50:43.405,-29.0001,-59.5627
13:50:43.416,-28.5001,-61.7502
13:50:43.426,-29.0001,-60.6877
13:50:43.436,-28.5001,-63.0627
13:50:43.446,-28.0001,-63.3752
13:50:43.455,-29.0001,-64.2502
13:50:43.465,-29.1251,-65.8753
13:50:43.477,-30.4376,-67.5628
13:50:43.486,-29.9376,-68.5628
13:50:43.495,-30.1876,-68.1253
13:50:43.505,-27.1876,-64.0002
13:50:43.515,-22.4376,-53.6877
13:50:43.526,-14.3126,-38.6876
13:50:43.536,-5.375,-19.6251
13:50:43.546,0.75,-3.5
13:50:43.555,6.3125,7.875
13:50:43.565,10.6875,19.8126
13:50:43.576,15.2501,28.9376
13:50:43.585,19.1251,37.1251
13:50:43.596,21.0001,44.3752
13:50:43.605,23.4376,48.9377
13:50:43.616,24.1876,53.3752
13:50:43.628,25.0626,55.0627
13:50:43.638,25.1876,57.1252
13:50:43.645,26.0001,57.5627
13:50:43.656,26.0001,58.3752
13:50:43.667,26.8126,59.8752
13:50:43.676,27.2501,60.1252
13:50:43.685,27.0626,61.8752
13:50:43.695,27.5001,63.0002
13:50:43.706,27.3751,64.1252
13:50:43.716,27.8126,65.1252
13:50:43.725,27.5626,64.9377
13:50:43.735,26.8126,63.6877
13:50:43.746,25.7501,63.5627
13:50:43.756,24.8126,60.6252
13:50:43.766,23.0626,58.4377
13:50:43.775,22.0001,55.4377
13:50:43.786,20.1251,51.1877
13:50:43.796,19.4376,50.1252
13:50:43.825,18.2501,46.9377
13:50:43.839,17.5001,45.1877
13:50:43.843,16.5001,43.0002
13:50:43.858,16.1251,41.1877
13:50:43.871,16.1251,40.6877
13:50:43.873,14.6251,39.7502
13:50:43.888,14.6876,37.5001
13:50:43.892,12.8125,36.3751
13:50:43.892,13.0625,34.6251
13:50:43.898,11.6875,33.1251
13:50:43.906,11.25,31.4376
13:50:43.916,10.0625,29.1876
13:50:43.925,9.125,27.8126
13:50:43.935,8.125,23.9376
13:50:43.945,6.9375,22.3126
13:50:43.956,5.875,20.1876
13:50:43.965,4.5,16.7501
13:50:43.976,4.0625,14.4376
13:50:43.985,3,11.375
13:50:43.995,0.875,9.0625
13:50:44.009,-0.1875,5.4375
13:50:44.015,-1.1875,3.1875
13:50:44.026,-2.1875,0.5
13:50:44.037,-4.0625,-2.3125
13:50:44.046,-5.125,-4.625
13:50:44.055,-5.625,-8
13:50:44.066,-7.375,-9.625
13:50:44.076,-7.6875,-13.0625
13:50:44.085,-9.1875,-15.3751
13:50:44.096,-9.375,-17.5626
13:50:44.106,-11,-19.1251
13:50:44.115,-11.5,-22.3126
13:50:44.126,-12.5625,-24.4376
13:50:44.136,-13.0625,-26.6876
13:50:44.145,-14.0626,-28.6876
13:50:44.156,-15.0626,-30.0626
13:50:44.165,-15.9376,-32.9376
13:50:44.176,-15.6251,-33.5626
13:50:44.185,-17.0626,-36.6251
13:50:44.196,-17.5626,-37.1876
13:50:44.206,-18.8126,-40.5002
13:50:44.215,-19.5001,-43.0002
13:50:44.226,-21.5626,-43.7502
13:50:44.235,-23.1876,-48.9377
13:50:44.256,-22.7501,-49.8127
13:50:44.261,-24.8126,-51.9377
13:50:44.269,-24.6876,-53.2502
13:50:44.275,-22.4376,-48.7502
13:50:44.293,-18.3126,-42.3752
13:50:44.299,-11.5625,-27.5001
13:50:44.307,-5.1875,-13
13:50:44.316,0.375,-1.25
13:50:44.325,5.5,10.625
13:50:44.335,9.375,21.5001
13:50:44.345,14.1876,31.5626
13:50:44.356,16.8126,39.7502
13:50:44.365,19.0626,45.5627
13:50:44.380,21.0626,51.3752
13:50:44.385,21.9376,53.0627
13:50:44.396,23.0001,56.6877
13:50:44.406,22.8126,56.6877
13:50:44.415,23.1876,58.7502
13:50:44.426,23.3126,59.0627
13:50:44.435,23.9376,59.5002
13:50:44.447,23.8751,60.5002
13:50:44.456,23.6876,62.4377
13:50:44.466,24.5001,62.1877
13:50:44.494,24.2501,63.4377
13:50:44.498,24.3126,62.6252
13:50:44.500,23.6251,62.8752
13:50:44.508,23.6251,63.0002
13:50:44.538,23.0626,60.6252
13:50:44.540,21.0001,59.1877
13:50:44.542,20.1251,54.8752
13:50:44.548,18.0001,52.5627
13:50:44.564,16.5001,49.3127
13:50:44.566,15.3751,45.1877
13:50:44.599,14.7501,43.0627
13:50:44.602,13.6251,40.6252
13:50:44.604,12.125,38.6251
13:50:44.608,12.375,36.6251
13:50:44.616,10.4375,35.1876
13:50:44.626,11.3125,34.0626
13:50:44.636,9.625,33.1876
13:50:44.647,8.875,31.3126
13:50:44.655,8.0625,29.4376
13:50:44.665,7.125,27.4376
13:50:44.676,6.5625,25.8751
13:50:44.686,4.875,21.8126
13:50:44.697,4.3125,19.9376
13:50:44.706,2.875,16.8751
13:50:44.716,1.5,14.3751
13:50:44.726,0.6875,11.6875
13:50:44.735,-0.8125,9.375
13:50:44.745,-2.0625,6.375
13:50:44.756,-3.375,2.8125
13:50:44.766,-4.4375,0.625
13:50:44.775,-5.4375,-2.8125
13:50:44.785,-7.6875,-5.625
13:50:44.796,-8.5,-8.375
13:50:44.805,-10.25,-11.625
13:50:44.815,-11.0625,-13.9376
13:50:44.825,-12.5,-17.0626
13:50:44.836,-13.6876,-18.8751
13:50:44.846,-14.5626,-22.5001
13:50:44.856,-15.3126,-24.1251
13:50:44.865,-16.6876,-27.6251
13:50:44.876,-17.5001,-29.3751
13:50:44.887,-18.6876,-31.5001
13:50:44.896,-19.3751,-33.4376
13:50:44.906,-19.7501,-36.1876
13:50:44.916,-21.1876,-38.4376
13:50:44.926,-21.3751,-39.9377
13:50:44.936,-22.2501,-41.8752
13:50:44.946,-23.4376,-42.5627
13:50:44.955,-23.3751,-45.6877
13:50:44.966,-23.6251,-46.8127
13:50:44.976,-24.6876,-48.4377
13:50:44.986,-25.7501,-50.9377
13:50:44.995,-25.4376,-51.8127
13:50:45.005,-26.9376,-53.8127
13:50:45.015,-27.3126,-56.9377
13:50:45.025,-27.5626,-58.6252
13:50:45.036,-28.3751,-58.9377
13:50:45.045,-26.2501,-56.8127
13:50:45.056,-21.8751,-48.5002
13:50:45.066,-16.4376,-36.3126
13:50:45.076,-8.5,-21.1251
13:50:45.105,-3.375,-6.0625
13:50:45.107,2.125,5.5625
13:50:45.109,7.0625,16.9376
13:50:45.116,10.625,27.2501
13:50:45.130,14.9376,36.8126
13:50:45.138,16.8751,44.1252
13:50:45.155,18.9376,49.0002
13:50:45.158,20.5001,53.0627
13:50:45.173,20.6876,56.1252
13:50:45.188,21.9376,57.3127
13:50:45.190,22.0626,59.5002
13:50:45.199,22.1876,59.9377
13:50:45.207,22.7501,61.2502
13:50:45.216,22.9376,62.4377
13:50:45.228,22.8126,63.4377
13:50:45.236,23.1876,64.3752
13:50:45.245,23.4376,65.1877
13:50:45.255,23.5626,66.0003
13:50:45.266,23.2501,65.6878
13:50:45.277,22.5001,65.2503
13:50:45.285,21.6876,65.3128
13:50:45.296,21.0626,62.5627
13:50:45.305,19.4376,60.5627
13:50:45.315,17.5626,57.0627
13:50:45.326,16.8751,54.0002
13:50:45.335,14.5626,50.6877
13:50:45.345,14.3751,48.1877
13:50:45.356,13.3126,46.3127
13:50:45.366,12,44.2502
13:50:45.376,11.8125,41.7502
13:50:45.387,10.4375,41.0002
13:50:45.396,10.8125,38.7501
13:50:45.406,9.25,37.5626
13:50:45.417,9,36.1876
13:50:45.425,8.3125,33.7501
13:50:45.437,7.6875,33.0001
13:50:45.445,6.25,29.7501
13:50:45.455,5.875,28.0001
13:50:45.468,4.6875,25.0001
13:50:45.476,3.5,22.3126
13:50:45.485,2.625,19.9376
13:50:45.496,0.3125,17.3126
13:50:45.511,0.125,13.7501
13:50:45.516,-1.625,11.5625
13:50:45.526,-3.125,7.8125
13:50:45.537,-4.4375,4.6875
13:50:45.546,-5.5625,1.6875
13:50:45.557,-6.3125,-0.9375
13:50:45.567,-7.0625,-4
13:50:45.583,-8.625,-6.3125
13:50:45.589,-9.1875,-9.1875
13:50:45.598,-11,-12
13:50:45.607,-11.6875,-14.6876
13:50:45.622,-12.75,-17.2501
13:50:45.630,-14.5626,-19.9376
13:50:45.637,-14.5001,-22.8751
13:50:45.645,-15.6876,-25.0001
13:50:45.655,-16.6251,-26.6876
13:50:45.665,-17.6876,-30.0626
13:50:45.676,-18.4376,-31.5626
13:50:45.687,-18.8751,-33.6876
13:50:45.709,-19.4376,-35.2501
13:50:45.712,-20.5001,-38.1251
13:50:45.747,-21.0626,-39.8752
13:50:45.748,-21.9376,-41.1877
13:50:45.750,-22.3751,-44.1252
13:50:45.753,-23.8751,-46.2502
13:50:45.757,-24.1876,-49.1252
13:50:45.788,-25.2501,-50.3127
13:50:45.789,-25.7501,-52.9377
13:50:45.792,-26.7501,-53.7502
13:50:45.826,-27.0626,-55.0627
13:50:45.826,-25.3751,-53.5627
13:50:45.830,-21.8751,-46.5002
13:50:45.836,-16.1876,-35.5001
13:50:45.837,-9.3125,-21.0626
13:50:45.846,-4.875,-6.4375
13:50:45.862,0.8125,3.5
13:50:45.872,4.6875,16.1876
13:50:45.886,9.8125,25.7501
13:50:45.892,12.6875,35.5626
13:50:45.901,14.9376,41.8127
13:50:45.911,17.0626,47.9377
13:50:45.922,17.8126,51.1252
13:50:45.934,18.4376,53.1252
13:50:45.941,19.0001,55.1877
13:50:45.950,19.5001,55.6252
13:50:45.962,19.1876,57.5627
13:50:45.972,19.3751,57.6877
13:50:45.981,19.6251,59.2502
13:50:45.992,19.9376,59.4377
13:50:46.000,19.0626,60.1252
13:50:46.011,19.5001,60.3127
13:50:46.022,18.4376,61.8127
13:50:46.032,18.3126,60.7502
13:50:46.040,17.8126,60.0627
13:50:46.051,17.1251,57.7502
13:50:46.062,15.6876,54.2502
13:50:46.072,13.6251,50.3127
13:50:46.080,11.6875,47.9377
13:50:46.092,10.5625,43.3127
13:50:46.102,9.625,39.8752
13:50:46.112,7.875,36.8126
13:50:46.120,7.125,35.1876
13:50:46.130,6.25,31.6251
13:50:46.142,5.875,29.1251
13:50:46.152,4.6875,27.2501
13:50:46.160,4.5,25.3126
13:50:46.170,2.8125,22.3751
13:50:46.183,1.5625,21.0626
13:50:46.190,1.4375,19.7501
13:50:46.202,1.1875,16.0001
13:50:46.212,-0.5,13.7501
13:50:46.220,-2.375,10.875
13:50:46.233,-3.25,9.9375
13:50:46.242,-2.875,7.0625
13:50:46.251,-4.4375,3.75
13:50:46.262,-5.625,1.875
13:50:46.270,-7.25,-0.8125
13:50:46.282,-7.4375,-3.25
13:50:46.292,-8.875,-6.625
13:50:46.302,-9.5625,-8.5625
13:50:46.310,-10.3125,-10.375
13:50:46.323,-11.1875,-13.6876
13:50:46.331,-12.5625,-15.6876
13:50:46.342,-13.2501,-18.6251
13:50:46.351,-13.3751,-22.0001
13:50:46.361,-14.5626,-23.8126
13:50:46.386,-14.8126,-25.6876
13:50:46.389,-16.0626,-28.6876
13:50:46.392,-17.0626,-30.3751
13:50:46.402,-17.8751,-33.1876
13:50:46.413,-18.0626,-35.5001
13:50:46.422,-19.0001,-36.6251
13:50:46.431,-19.9376,-39.8127
13:50:46.442,-20.7501,-41.5002
13:50:46.452,-21.3751,-43.5002
13:50:46.473,-22.2501,-44.5002
13:50:46.476,-22.5626,-47.5627
13:50:46.485,-23.8126,-48.3752
13:50:46.492,-23.5001,-51.3752
13:50:46.509,-24.9376,-53.3752
13:50:46.516,-26.1251,-55.6877
13:50:46.523,-26.6876,-57.1252
13:50:46.530,-27.6251,-60.2502
13:50:46.542,-26.7501,-59.3127
13:50:46.553,-25.8751,-58.0627
13:50:46.560,-21.6876,-50.9377
13:50:46.573,-15.0626,-38.0626
13:50:46.581,-9.6875,-22.8126
13:50:46.592,-3.1875,-9.6875
13:50:46.602,0.8125,2.5625
13:50:46.612,6.1875,14.0001
13:50:46.621,9.25,24.8126
13:50:46.638,13.0625,32.9376
13:50:46.640,15.0001,38.8751
13:50:46.652,16.3126,44.5002
13:50:46.662,17.5001,47.1877
13:50:46.672,17.4376,49.8752
13:50:46.681,17.8126,50.6877
13:50:46.692,19.0626,51.7502
13:50:46.701,18.0626,52.3752
13:50:46.711,18.5626,52.8127
13:50:46.722,18.4376,53.6252
13:50:46.732,18.3126,53.6877
13:50:46.742,18.6876,55.7502
13:50:46.750,18.1876,54.7502
13:50:46.762,18.1876,54.9377
13:50:46.773,16.9376,54.8752
13:50:46.782,16.1876,54.1252
13:50:46.793,15.0001,50.8127
13:50:46.801,13.4376,49.5627
13:50:46.812,11.5625,44.6252
13:50:46.822,10.75,42.4377
13:50:46.833,8.6875,38.1251
13:50:46.843,7.25,36.3126
13:50:46.852,6.125,33.0001
13:50:46.861,5.4375,30.5001
13:50:46.871,4.3125,29.4376
13:50:46.882,4.8125,27.8126
13:50:46.892,3.875,26.6876
13:50:46.906,3.1875,27.2501
13:50:46.914,3.3125,25.8126
13:50:46.922,2.4375,23.3126
13:50:46.938,1.1875,22.8126
13:50:46.944,0.25,21.7501
13:50:46.954,-0.8125,19.2501
13:50:46.962,-3.1875,16.6251
13:50:46.972,-5.125,15.8126
13:50:46.982,-6.4375,14.1251
13:50:46.995,-8.5625,12.125
13:50:47.004,-11.625,10.75
13:50:47.013,-14.4376,10.6875
13:50:47.024,-15.9376,8.125
13:50:47.032,-19.8751,6.75
13:50:47.042,-23.2501,5.1875
13:50:47.052,-26.1251,4.5625
13:50:47.061,-29.3751,2.625
13:50:47.072,-31.8126,-0.1875
13:50:47.082,-33.7501,-1
13:50:47.091,-35.8126,-2.1875
13:50:47.101,-37.3751,-2.4375
13:50:47.111,-38.0001,-1.3125
13:50:47.123,-37.6251,-2.625
13:50:47.133,-40.8127,-3.625
13:50:47.142,-40.4377,-5.125
13:50:47.152,-41.6877,-5.1875
13:50:47.161,-42.3127,-5.375
13:50:47.172,-42.0627,-6.8125
13:50:47.182,-43.3127,-7.75
13:50:47.191,-42.4377,-6.9375
13:50:47.202,-42.1877,-6.0625
13:50:47.211,-40.5627,-3.375
13:50:47.223,-37.6876,2.5
13:50:47.232,-33.3126,9.0625
13:50:47.265,-29.6251,19.3126
13:50:47.268,-24.8126,28.6251
13:50:47.269,-20.3751,40.1252
13:50:47.273,-15.8126,50.1877
13:50:47.301,-11.8125,59.0002
13:50:47.302,-8.6875,68.0628
13:50:47.304,-7.0625,73.4378
13:50:47.334,-5.3125,79.6253
13:50:47.338,-3.125,84.3128
13:50:47.340,-2.5625,88.4378
13:50:47.343,-0.8125,90.8129
13:50:47.378,-0.5,93.0629
13:50:47.381,0.75,94.8754
13:50:47.383,1.1875,95.5629
13:50:47.397,1.9375,97.0004
13:50:47.397,3.0625,97.6879
13:50:47.402,3.125,99.1254
13:50:47.412,3.875,97.8129
13:50:47.423,3.9375,97.0629
13:50:47.432,3.8125,96.6254
13:50:47.444,3.3125,93.7504
13:50:47.453,2.0625,91.7504
13:50:47.462,0.75,89.0628
13:50:47.474,0.8125,84.2503
13:50:47.484,-0.8125,80.5628
13:50:47.492,-1.75,78.0003
13:50:47.502,-2.9375,73.6253
13:50:47.512,-3.1875,71.8128
13:50:47.522,-3.6875,69.0003
13:50:47.555,-3.8125,66.7503
13:50:47.558,-3.375,64.9377
13:50:47.560,-4.125,62.8752
13:50:47.568,-4.4375,61.7502
13:50:47.577,-5.5,59.6252
13:50:47.586,-5.5625,57.9377
13:50:47.597,-6.125,55.1877
13:50:47.607,-7.625,52.0627
13:50:47.616,-7.8125,50.1877
13:50:47.627,-10.1875,46.8752
13:50:47.636,-11.375,42.5002
13:50:47.666,-12.75,38.8126
13:50:47.669,-15.4376,36.4376
13:50:47.670,-15.6876,32.3126
13:50:47.678,-17.9376,29.8126
13:50:47.688,-18.7501,25.8126
13:50:47.699,-20.3126,22.0626
13:50:47.707,-22.3126,18.1251
13:50:47.717,-22.5001,15.5626
13:50:47.727,-23.8126,13.125
13:50:47.737,-24.4376,10.375
13:50:47.751,-24.5626,8.1875
13:50:47.757,-25.5001,5.75
13:50:47.767,-26.2501,3.25
13:50:47.778,-26.7501,0.8125
13:50:47.792,-28.1876,-0.3125
13:50:47.800,-28.1876,-4.0625
13:50:47.807,-28.5626,-5.0625
13:50:47.823,-29.0626,-7.8125
13:50:47.839,-29.9376,-9.6875
13:50:47.841,-30.4376,-11.5625
13:50:47.847,-31.8126,-13.8751
13:50:47.857,-31.9376,-16.0001
13:50:47.867,-33.1876,-17.6251
13:50:47.877,-32.6251,-19.1876
13:50:47.890,-33.2501,-19.0001
13:50:47.899,-30.6876,-17.0626
13:50:47.907,-29.3126,-12.25
13:50:47.917,-25.1876,-4.8125
13:50:47.930,-20.8126,5.5625
13:50:47.938,-15.1876,16.6251
13:50:47.947,-10.3125,28.8126
13:50:47.957,-3.5625,41.5627
13:50:47.966,1.125,53.8752
13:50:47.977,5.5,63.8127
13:50:47.989,9.3125,74.5003
13:50:47.998,12.25,80.1253
13:50:48.006,15.5626,86.5628
13:50:48.018,16.5001,92.3754
13:50:48.027,18.5001,94.9379
13:50:48.037,19.3126,98.9379
13:50:48.047,20.2501,100.6254
13:50:48.059,21.1251,100.7504
13:50:48.068,22.6876,102.8129
13:50:48.077,22.6251,104.6879
13:50:48.087,24.1876,104.8129
13:50:48.098,24.3126,105.2504
13:50:48.112,25.1876,105.2504
13:50:48.117,24.9376,104.7504
13:50:48.127,25.2501,103.2504
13:50:48.142,23.8126,100.8754
13:50:48.147,23.3126,98.3754
13:50:48.157,22.1251,93.8754
13:50:48.167,19.6876,89.7503
13:50:48.176,18.4376,86.0003
13:50:48.186,16.7501,79.9378
13:50:48.198,15.1251,76.1878
13:50:48.207,14.3126,71.1878
13:50:48.228,12.1875,68.5628
13:50:48.230,12,63.7502
13:50:48.239,10.9375,59.7502
13:50:48.246,10.4375,56.9377
13:50:48.262,9.875,54.1877
13:50:48.271,8.125,51.4377
13:50:48.276,7.9375,49.0002
13:50:48.288,6.0625,46.1252
13:50:48.297,4.3125,42.3752
13:50:48.307,3.0625,38.0001
13:50:48.317,0.5625,34.8126
13:50:48.327,-1.125,30.8126
13:50:48.337,-3.0625,25.6876
13:50:48.347,-4.25,22.1876
13:50:48.357,-6,17.7501
13:50:48.367,-7.3125,13.6251
13:50:48.378,-9.125,10.3125
13:50:48.387,-11.0625,6.5625
13:50:48.397,-12.8125,3.0625
13:50:48.407,-13.1251,-1.375
13:50:48.417,-15.3751,-4.6875
13:50:48.426,-16.0001,-7.5
13:50:48.437,-17.6251,-10.6875
13:50:48.447,-18.3126,-12.5625
13:50:48.457,-18.9376,-16.6251
13:50:48.468,-20.9376,-19.3126
13:50:48.476,-21.3751,-20.5001
13:50:48.487,-21.4376,-22.8751
13:50:48.498,-22.4376,-24.5626
13:50:48.507,-23.3751,-25.6876
13:50:48.517,-24.0626,-28.2501
13:50:48.527,-23.7501,-30.2501
13:50:48.538,-25.9376,-31.5626
13:50:48.548,-25.3751,-33.0626
13:50:48.558,-26.2501,-34.6251
13:50:48.567,-27.5001,-35.3751
13:50:48.576,-28.2501,-37.6876
13:50:48.587,-29.7501,-39.0001
13:50:48.597,-30.3751,-42.0627
13:50:48.606,-31.0626,-43.1877
13:50:48.617,-32.0626,-45.6877
13:50:48.627,-32.1876,-47.6877
13:50:48.637,-32.8126,-48.3752
13:50:48.648,-32.8751,-50.5627
13:50:48.657,-32.0626,-50.9377
13:50:48.690,-31.2501,-51.0002
13:50:48.692,-27.7501,-44.9377
13:50:48.695,-24.3126,-39.2501
13:50:48.697,-17.9376,-29.0001
13:50:48.729,-13.5001,-17.6251
13:50:48.732,-7.125,-5.9375
13:50:48.735,-2.75,6.5
13:50:48.739,2.125,18.3751
13:50:48.752,5.8125,28.8126
13:50:48.783,9.4375,37.3751
13:50:48.784,12.125,45.7502
13:50:48.788,14.3126,51.2502
13:50:48.789,17.0001,56.0002
13:50:48.800,18.0001,60.1252
13:50:48.807,19.8751,61.4377
13:50:48.816,20.2501,64.8752
13:50:48.828,21.7501,66.0003
13:50:48.837,22.8126,66.2503
13:50:48.847,22.4376,66.8753
13:50:48.857,23.3751,67.1878
13:50:48.866,23.3126,67.8753
13:50:48.877,22.7501,67.7503
13:50:48.889,22.1876,67.1878
13:50:48.899,20.9376,65.0627
13:50:48.907,20.6251,63.9377
13:50:48.918,19.1251,60.0627
13:50:48.945,17.6876,56.6877
13:50:48.948,16.1251,52.4377
13:50:48.949,13.6251,48.1252
13:50:48.957,12.3125,43.8752
13:50:48.967,10.125,38.4376
13:50:48.978,8.5625,34.8751
13:50:48.987,7.625,31.0001
13:50:48.998,6.375,28.0626
13:50:49.009,5.25,25.3751
13:50:49.017,4.0625,21.9376
13:50:49.027,4.0625,19.9376
13:50:49.036,2.5,17.7501
13:50:49.047,0.8125,14.8751
13:50:49.057,0.5,12.5
13:50:49.067,-1.75,9.8125
13:50:49.077,-3.1875,7.3125
13:50:49.086,-4.3125,3.0625
13:50:49.108,-6.25,0.5625
13:50:49.110,-7.6875,-2.875
13:50:49.119,-9.625,-5.875
13:50:49.127,-10.125,-9.0625
13:50:49.142,-12,-11.8125
13:50:49.150,-13.6251,-14.6876
13:50:49.157,-14.6251,-19.0626
13:50:49.167,-16.2501,-21.5001
13:50:49.177,-16.5626,-24.2501
13:50:49.188,-18.8126,-27.1251
13:50:49.201,-19.4376,-29.9376
13:50:49.207,-20.3126,-32.5001
13:50:49.217,-22.1876,-34.7501
13:50:49.226,-22.4376,-37.1876
13:50:49.237,-24.3751,-38.6876
13:50:49.247,-24.6251,-40.8127
13:50:49.256,-24.6876,-42.1877
13:50:49.266,-25.0001,-42.5627
13:50:49.278,-25.8751,-44.7502
13:50:49.287,-26.7501,-45.4377
13:50:49.296,-27.3751,-46.9377
13:50:49.306,-27.8126,-47.1252
13:50:49.316,-28.8751,-49.7502
13:50:49.327,-30.0001,-49.9377
13:50:49.337,-30.6251,-52.5002
13:50:49.347,-31.4376,-52.3127
13:50:49.357,-31.1251,-54.3127
13:50:49.368,-32.2501,-54.2502
13:50:49.376,-32.3126,-56.6252
13:50:49.386,-33.4376,-57.5627
13:50:49.397,-32.7501,-59.0627
13:50:49.407,-33.3126,-61.6252
13:50:49.417,-33.3751,-62.1877
13:50:49.427,-33.1251,-64.3127
13:50:49.437,-34.0626,-64.6252
13:50:49.447,-31.2501,-63.3127
13:50:49.458,-29.1876,-58.6877
13:50:49.467,-25.7501,-50.2502
13:50:49.477,-20.0626,-41.1877
13:50:49.487,-15.6251,-28.6876
13:50:49.497,-10,-17.0001
13:50:49.507,-4.3125,-5
13:50:49.517,0.1875,5.5625
13:50:49.526,4.4375,15.3126
13:50:49.545,7.5625,23.8751
13:50:49.552,11.375,30.1251
13:50:49.559,12.4375,35.4376
13:50:49.567,14.5001,37.9376
13:50:49.582,15.0626,41.3752
13:50:49.590,15.1876,43.0002
13:50:49.598,16.4376,44.5002
13:50:49.608,17.0001,45.5627
13:50:49.617,16.3751,45.9377
13:50:49.626,16.1876,47.0002
13:50:49.643,15.8751,45.6877
13:50:49.648,15.2501,47.1877
13:50:49.658,15.2501,45.3752
13:50:49.666,14.5001,45.3752
13:50:49.677,14.1251,44.0002
13:50:49.686,12.75,42.1252
13:50:49.698,12.5,40.3127
13:50:49.709,12,38.1251
13:50:49.718,10.75,33.2501
13:50:49.728,9.8125,29.7501
13:50:49.737,8.375,25.9376
13:50:49.747,6.875,22.8751
13:50:49.756,6.125,19.3126
13:50:49.766,4.3125,16.5626
13:50:49.777,3.8125,14.1251
13:50:49.786,1.6875,12.125
13:50:49.796,0.6875,10.0625
13:50:49.807,-0.5,6.4375
13:50:49.818,-2.375,5.75
13:50:49.828,-3.125,3.0625
13:50:49.838,-4.6875,0.375
13:50:49.847,-5.4375,-1.625
13:50:49.858,-7.125,-5.375
13:50:49.873,-7.625,-7.3125
13:50:49.881,-9.9375,-10.75
13:50:49.891,-11,-12.6875
13:50:49.904,-12.125,-15.5626
13:50:49.912,-13.1876,-18.3751
13:50:49.922,-14.3126,-21.2501
13:50:49.932,-15.7501,-23.6251
13:50:49.942,-17.2501,-25.3126
13:50:49.951,-17.4376,-28.1251
13:50:49.978,-18.8126,-30.1251
13:50:49.981,-19.1876,-31.3751
13:50:49.983,-20.2501,-32.7501
13:50:50.016,-20.1251,-34.6251
13:50:50.021,-21.5626,-35.9376
13:50:50.022,-21.9376,-38.0001
13:50:50.023,-23.1876,-39.8127
13:50:50.062,-24.9376,-42.0627
13:50:50.063,-25.7501,-42.4377
13:50:50.067,-25.8751,-45.0002
13:50:50.069,-27.3126,-45.1252
13:50:50.073,-27.6251,-48.4377
13:50:50.082,-27.7501,-49.6252
13:50:50.102,-29.9376,-51.0002
13:50:50.105,-30.3126,-52.3752
13:50:50.113,-30.6251,-54.7502
13:50:50.122,-31.0001,-55.8127
13:50:50.132,-31.1251,-58.2502
13:50:50.144,-30.9376,-59.7502
13:50:50.152,-29.8126,-60.1877
13:50:50.162,-29.0001,-57.9377
13:50:50.172,-25.9376,-53.3752
13:50:50.181,-21.7501,-46.8127
13:50:50.192,-18.0001,-36.6876
13:50:50.224,-13,-26.5626
13:50:50.227,-8.375,-16.5626
13:50:50.229,-4.6875,-5.375
13:50:50.234,0.5625,4.0625
13:50:50.242,3.0625,13.1876
13:50:50.252,7.4375,20.4376
13:50:50.262,9.375,26.5001
13:50:50.272,12.25,31.3751
13:50:50.282,13,34.3751
13:50:50.292,14.0001,36.2501
13:50:50.302,14.2501,37.5626
13:50:50.312,14.8751,39.0001
13:50:50.322,14.9376,39.5627
13:50:50.331,15.0626,39.8752
13:50:50.342,14.1876,40.3752
13:50:50.352,14.5001,39.3126
13:50:50.362,14.2501,40.5002
13:50:50.372,14.1876,39.0001
13:50:50.382,13.2501,38.3126
13:50:50.392,12.0625,36.9376
13:50:50.402,11.625,34.1251
13:50:50.412,10.4375,30.0626
13:50:50.428,9.0625,26.3751
13:50:50.436,8,22.2501
13:50:50.442,6.5625,18.3751
13:50:50.458,4.8125,15.4376
13:50:50.474,3.625,12
13:50:50.476,2.0625,8.8125
13:50:50.485,1.375,7.0625
13:50:50.492,-0.8125,5
13:50:50.502,-1.6875,3
13:50:50.512,-2.375,0.75
13:50:50.523,-4.1875,-1.375
13:50:50.534,-5.3125,-3.0625
13:50:50.544,-6.1875,-5.875
13:50:50.552,-7.3125,-7.375
13:50:50.562,-8.125,-10.0625
13:50:50.572,-8.75,-12.1875
13:50:50.582,-9.5625,-14.0626
13:50:50.592,-11.3125,-16.3751
13:50:50.603,-11.4375,-19.0626
13:50:50.615,-13.1876,-20.8126
13:50:50.622,-14.8751,-23.6876
13:50:50.632,-15.8126,-25.1876
13:50:50.642,-17.3126,-28.3751
13:50:50.652,-17.3126,-28.0626
13:50:50.661,-18.5001,-31.6251
13:50:50.672,-18.8126,-32.5001
13:50:50.681,-20.0001,-35.1251
13:50:50.692,-20.3126,-36.2501
13:50:50.702,-21.3126,-36.4376
13:50:50.713,-21.4376,-39.1876
13:50:50.722,-23.1876,-39.8127
13:50:50.732,-23.1251,-41.9377
13:50:50.742,-24.6251,-42.1877
13:50:50.751,-25.1876,-43.8752
13:50:50.762,-25.1876,-45.2502
13:50:50.772,-25.6876,-45.9377
13:50:50.782,-26.2501,-47.4377
13:50:50.792,-26.4376,-47.4377
13:50:50.802,-27.3751,-49.6252
13:50:50.812,-27.5001,-50.6252
13:50:50.821,-28.5001,-50.5627
13:50:50.831,-28.3126,-52.3752
13:50:50.842,-29.0626,-53.1252
13:50:50.852,-29.4376,-55.5627
13:50:50.868,-28.8751,-55.6252
13:50:50.875,-28.9376,-56.9377
13:50:50.884,-27.9376,-55.6877
13:50:50.900,-26.7501,-53.8752
13:50:50.906,-23.6251,-47.8752
13:50:50.913,-19.1876,-39.8752
13:50:50.921,-14.7501,-28.7501
13:50:50.932,-9.25,-18.1876
13:50:50.941,-4,-4.8125
13:50:50.953,0.875,6
13:50:50.962,6.625,18.2501
13:50:50.974,11.375,27.0626
13:50:50.982,13.3751,35.5626
13:50:50.993,16.0626,41.0627
13:50:51.002,18.1251,46.2502
13:50:51.012,20.3126,50.8127
13:50:51.023,21.3751,53.0627
13:50:51.032,21.5001,54.8127
13:50:51.042,22.6251,58.5627
13:50:51.052,23.5001,58.6877
13:50:51.061,24.0001,61.2502
13:50:51.072,25.4376,61.6877
13:50:51.082,25.1251,63.0627
13:50:51.092,25.3751,63.1877
13:50:51.102,25.0001,62.7502
13:50:51.112,25.3126,62.6877
13:50:51.122,24.0001,61.0627
13:50:51.132,22.7501,59.8127
13:50:51.141,21.3751,57.2502
13:50:51.152,20.6876,53.6252
13:50:51.162,19.1876,49.6252
13:50:51.172,17.1876,44.5002
13:50:51.182,15.1251,41.0627
13:50:51.192,13.9376,36.9376
13:50:51.202,12.3125,32.3751
13:50:51.212,10.9375,29.3751
13:50:51.224,9.5625,25.8126
13:50:51.234,8.1875,23.7501
13:50:51.242,6.9375,21.7501
13:50:51.252,5.625,18.8126
13:50:51.263,4.375,17.1876
13:50:51.272,3.4375,14.6251
13:50:51.282,1.5625,11.8125
13:50:51.293,0.375,8.4375
13:50:51.302,-0.5625,6.75
13:50:51.312,-1.625,4.6875
13:50:51.322,-3.5625,1.375
13:50:51.332,-4.75,-0.5625
13:50:51.342,-6.375,-3.9375
13:50:51.352,-7.8125,-5.8125
13:50:51.363,-8.625,-8.5
13:50:51.388,-9.8125,-9.6875
13:50:51.390,-10.9375,-12.5625
13:50:51.393,-11.625,-13.6876
13:50:51.421,-12.25,-16.0001
13:50:51.422,-13.5626,-18.0001
13:50:51.426,-13.3751,-19.1876
13:50:51.461,-14.0001,-20.8126
13:50:51.464,-14.6876,-21.9376
13:50:51.465,-15.5626,-22.3126
13:50:51.469,-16.0626,-24.8751
13:50:51.473,-17.0001,-25.5001
13:50:51.504,-17.6876,-27.8126
13:50:51.507,-17.6876,-27.9376
13:50:51.509,-18.1251,-28.9376
13:50:51.514,-18.6251,-31.0001
13:50:51.522,-20.1876,-30.8126
13:50:51.532,-21.2501,-33.5001
13:50:51.543,-20.9376,-34.6876
13:50:51.553,-22.6876,-36.1251
13:50:51.563,-22.1251,-37.1251
13:50:51.573,-23.5626,-39.0626
13:50:51.583,-23.0626,-40.0002
13:50:51.592,-24.0001,-41.8752
13:50:51.602,-23.9376,-43.6877
13:50:51.612,-24.6251,-45.0002
13:50:51.623,-24.3751,-46.6252
13:50:51.633,-24.1251,-46.1252
13:50:51.644,-22.3126,-44.9377
13:50:51.652,-18.9376,-39.9377
13:50:51.663,-15.5626,-31.9376
13:50:51.673,-10.875,-23.6251
13:50:51.684,-6,-12.625
13:50:51.692,-0.8125,-0.0625
13:50:51.703,4.125,9.75
13:50:51.713,8.75,19.5626
13:50:51.724,13,29.2501
13:50:51.743,15.3751,35.6876
13:50:51.746,18.6251,41.8127
13:50:51.755,20.2501,46.4377
13:50:51.762,21.5001,50.0002
13:50:51.777,23.1876,51.9377
13:50:51.786,23.5626,54.6252
13:50:51.793,24.1251,55.9377
13:50:51.802,24.7501,56.1252
13:50:51.812,24.5001,57.4377
13:50:51.822,24.2501,57.7502
13:50:51.833,24.1251,57.5627
13:50:51.844,24.3751,58.9377
13:50:51.853,24.3126,57.4377
13:50:51.862,24.4376,57.6877
13:50:51.873,23.7501,55.4377
13:50:51.883,22.8751,53.8127
13:50:51.894,21.7501,50.2502
13:50:51.905,19.8126,45.9377
13:50:51.912,18.2501,42.5627
13:50:51.923,16.0001,36.8751
13:50:51.932,14.8751,33.1251
13:50:51.942,13,28.9376
13:50:51.953,10.8125,25.3751
13:50:51.964,9.5,22.2501
13:50:51.974,8.375,17.4376
13:50:51.981,6.5,15.5626
13:50:51.993,5.4375,12.75
13:50:52.003,4.5625,10
13:50:52.014,3.5625,7.9375
13:50:52.023,3.0625,6.3125
13:50:52.032,0.75,4.5625
13:50:52.042,-0.1875,2.3125
13:50:52.052,-1.0625,-0.75
13:50:52.062,-2.8125,-2.3125
13:50:52.072,-3.5,-5.4375
13:50:52.083,-5.5625,-7.3125
13:50:52.092,-6.5,-9.5
13:50:52.103,-8.0625,-12.875
13:50:52.113,-9.6875,-14.6876
13:50:52.125,-10,-16.9376
13:50:52.133,-12.1875,-19.2501
13:50:52.141,-12.5,-20.3751
13:50:52.152,-12.6875,-22.1251
13:50:52.163,-13.6876,-22.9376
13:50:52.172,-13.5626,-25.3751
13:50:52.190,-15.1251,-26.6251
13:50:52.198,-15.2501,-28.3751
13:50:52.212,-15.7501,-30.1251
13:50:52.215,-15.0001,-30.4376
13:50:52.223,-15.5001,-32.1251
13:50:52.233,-15.9376,-33.5001
13:50:52.244,-17.3751,-33.6876
13:50:52.253,-17.3751,-36.3751
13:50:52.262,-18.2501,-35.8751
13:50:52.274,-18.3126,-39.4377
13:50:52.285,-19.4376,-39.9377
13:50:52.292,-19.3126,-41.9377
13:50:52.303,-19.1251,-43.6877
13:50:52.313,-19.0001,-44.8127
13:50:52.323,-19.2501,-46.6877
13:50:52.333,-18.6876,-48.6252
13:50:52.345,-19.1876,-49.8127
13:50:52.352,-18.1876,-51.6877
13:50:52.362,-17.8751,-50.3127
13:50:52.373,-15.5626,-49.0002
13:50:52.381,-13.4376,-43.3127
13:50:52.393,-9.3125,-35.8751
13:50:52.402,-5.625,-25.7501
13:50:52.413,-0.3125,-16.1251
13:50:52.422,4.375,-5.375
13:50:52.433,7.25,4.125
13:50:52.443,10.375,12.5625
13:50:52.453,13.2501,20.0001
13:50:52.462,14.6876,26.5001
13:50:52.474,16.1251,31.3126
13:50:52.484,17.5626,34.2501
13:50:52.493,18.6251,38.8126
13:50:52.502,19.1876,41.0002
13:50:52.514,20.6251,43.8752
13:50:52.521,30.2501,49.3127
13:50:52.534,29.0001,48.7502
13:50:52.543,25.6876,47.5002
13:50:52.553,26.0626,50.4377
13:50:52.564,27.5626,50.6877
13:50:52.572,28.8126,54.3752
13:50:52.583,31.0001,54.3127
13:50:52.592,31.8126,54.9377
13:50:52.603,32.5626,55.0627
13:50:52.614,33.5001,54.0002
13:50:52.622,34.7501,51.4377
13:50:52.633,34.6876,48.2502
13:50:52.643,34.2501,46.2502
13:50:52.654,33.2501,43.0002
13:50:52.665,33.0626,40.1252
13:50:52.673,32.3126,36.2501
13:50:52.682,31.1876,33.1876
13:50:52.693,30.3126,30.0001
13:50:52.705,28.3126,27.3751
13:50:52.712,27.5626,25.8126
13:50:52.725,27.5001,22.3126
13:50:52.734,27.6876,20.5001
13:50:52.743,27.1876,17.3751
13:50:52.755,25.9376,14.1876
13:50:52.784,24.3751,10.5
13:50:52.788,22.1876,7.25
13:50:52.790,20.8751,3.25
13:50:52.793,18.5626,-0.5625
13:50:52.803,17.4376,-4.8125
13:50:52.813,15.3751,-8.625
13:50:52.823,13,-12.6875
13:50:52.832,11.0625,-18.1876
13:50:52.843,9.4375,-21.7501
13:50:52.853,7.5625,-26.5001
13:50:52.863,5.3125,-30.4376
13:50:52.875,3.3125,-34.6876
13:50:52.883,1.875,-38.5626
13:50:52.907,0.9375,-42.5002
13:50:52.908,-0.8125,-46.0002
13:50:52.942,-2.375,-49.7502
13:50:52.946,-3.5,-52.9377
13:50:52.947,-5.5,-56.5627
13:50:52.950,-5.9375,-59.5627
13:50:52.953,-7.375,-63.8752
13:50:52.983,-7.6875,-66.1878
13:50:52.985,-9.5625,-68.8128
13:50:52.988,-10.1875,-72.1878
13:50:52.993,-11.9375,-74.8128
13:50:53.019,-12.9375,-77.9378
13:50:53.021,-13.7501,-79.0628
13:50:53.024,-15.0001,-82.4378
13:50:53.033,-15.5626,-84.0628
13:50:53.043,-16.6876,-88.2503
13:50:53.062,-17.6876,-89.4378
13:50:53.066,-18.8751,-92.9379
13:50:53.079,-19.2501,-94.7504
13:50:53.083,-21.5001,-96.2504
13:50:53.093,-22.2501,-99.7504
13:50:53.104,-22.6876,-101.7504
13:50:53.114,-23.6876,-103.3754
13:50:53.123,-24.9376,-106.3754
13:50:53.133,-24.3126,-105.6879
13:50:53.143,-22.4376,-101.0004
13:50:53.153,-17.9376,-95.1879
13:50:53.163,-11.0625,-82.7503
13:50:53.173,-6.0625,-68.7503
13:50:53.183,0,-57.0627
13:50:53.193,3.9375,-45.6877
13:50:53.203,7.6875,-36.8751
13:50:53.213,11,-27.1876
13:50:53.225,13.3751,-21.5626
13:50:53.233,15.2501,-14.1251
13:50:53.243,16.8751,-11.0625
13:50:53.253,18.4376,-6.125
13:50:53.263,19.0001,-1.9375
13:50:53.273,20.0001,-0.3125
13:50:53.283,20.8126,2.1875
13:50:53.293,21.3751,4.8125
13:50:53.303,21.1251,4.75
13:50:53.313,21.5626,7.375
13:50:53.323,21.3126,8.8125
13:50:53.333,21.6876,9.6875
13:50:53.343,21.7501,11.3125
13:50:53.355,21.3751,11.5
13:50:53.363,20.9376,11
13:50:53.373,20.3126,9.4375
13:50:53.384,19.1876,8
13:50:53.393,17.6876,6.125
13:50:53.403,17.1876,3.5625
13:50:53.413,14.8126,1.3125
13:50:53.423,14.5001,-1.9375
13:50:53.434,12.125,-3.1875
13:50:53.443,11.875,-6
13:50:53.453,10.25,-7.125
13:50:53.463,10.375,-8.5
13:50:53.476,8.6875,-9.1875
13:50:53.492,8.125,-9.625
13:50:53.494,8.0625,-11.625
13:50:53.509,6.5625,-12
13:50:53.513,6.1875,-12.5
13:50:53.525,5.3125,-14.3751
13:50:53.533,4.75,-15.8751
13:50:53.543,3.875,-16.8751
13:50:53.553,3,-18.8126
13:50:53.564,2.3125,-20.7501
13:50:53.573,1.25,-22.9376
13:50:53.583,-0.375,-25.1876
13:50:53.593,-1.1875,-27.8751
13:50:53.603,-2.625,-29.5001
13:50:53.613,-4.25,-32.4376
13:50:53.623,-4.0625,-34.4376
13:50:53.634,-5.8125,-36.5001
13:50:53.643,-6.3125,-38.6876
13:50:53.653,-7.5,-41.3752
13:50:53.664,-9.1875,-42.1252
13:50:53.673,-9.375,-45.0627
13:50:53.683,-10.5,-46.4377
13:50:53.693,-11.4375,-48.1877
13:50:53.703,-12.8125,-49.5627
13:50:53.713,-13.6251,-51.8752
13:50:53.725,-14.4376,-53.0627
13:50:53.733,-14.8126,-55.2502
13:50:53.744,-14.7501,-56.8127
13:50:53.753,-16.3751,-57.5627
13:50:53.763,-16.8751,-59.8752
13:50:53.773,-17.3751,-60.7502
13:50:53.784,-18.5001,-63.0002
13:50:53.793,-18.1251,-63.8752
13:50:53.803,-19.5001,-64.3127
13:50:53.813,-19.3126,-65.0627
13:50:53.826,-17.6251,-64.0002
13:50:53.833,-16.0626,-58.5627
13:50:53.843,-11.875,-50.8127
13:50:53.855,-7.375,-40.7502
13:50:53.863,-3,-30.3751
13:50:53.878,1.5,-21.0001
13:50:53.888,5.5,-10.625
13:50:53.898,9.875,-2.1875
13:50:53.909,12.5625,6.625
13:50:53.918,15.1251,11.75
13:50:53.928,18.1876,17.1251
13:50:53.938,17.8126,21.4376
13:50:53.949,19.7501,24.3751
13:50:53.958,20.4376,27.1876
13:50:53.968,21.1876,28.8751
13:50:53.978,21.9376,30.6251
13:50:53.989,21.5626,31.5001
13:50:53.998,22.3751,32.5626
13:50:54.008,22.1876,34.8751
13:50:54.018,22.7501,34.3126
13:50:54.029,22.8126,35.1876
13:50:54.038,22.0626,36.1251
13:50:54.065,21.6251,34.3126
13:50:54.070,19.9376,31.6251
13:50:54.071,18.7501,29.6876
13:50:54.078,16.7501,25.1251
13:50:54.088,14.9376,20.8751
13:50:54.101,13.4376,18.3751
13:50:54.108,12.5625,15.8751
13:50:54.118,11.75,13.0625
13:50:54.128,10.6875,11.125
13:50:54.140,9.625,9.4375
13:50:54.148,9.4375,7.8125
13:50:54.158,8.1875,5.5
13:50:54.173,7.1875,4.875
13:50:54.180,6.625,3.9375
13:50:54.188,6.1875,1.375
13:50:54.198,4.9375,-1
13:50:54.208,4.4375,-1.9375
13:50:54.218,4.125,-4.25
13:50:54.232,2.9375,-6.75
13:50:54.239,1,-8.5625
13:50:54.249,0.375,-11.125
13:50:54.258,-0.9375,-14.6251
13:50:54.268,-2.4375,-17.1251
13:50:54.279,-3.125,-18.5626
13:50:54.310,-4.375,-22.4376
13:50:54.313,-5.5,-25.6251
13:50:54.316,-6.25,-27.6876
13:50:54.320,-6.875,-30.0001
13:50:54.351,-8.125,-32.8126
13:50:54.385,-9.3125,-33.3751
13:50:54.388,-9.3125,-36.3126
13:50:54.391,-10.1875,-38.3751
13:50:54.391,-11.5625,-40.3127
13:50:54.391,-11.625,-42.7502
13:50:54.411,-12.8125,-44.9377
13:50:54.412,-13.8751,-45.2502
13:50:54.419,-14.5626,-48.5002
13:50:54.429,-15.1876,-49.5627
13:50:54.438,-15.6251,-51.7502
13:50:54.449,-15.8751,-53.0002
13:50:54.460,-16.5001,-55.1877
13:50:54.468,-16.8126,-56.1252
13:50:54.478,-17.6251,-58.6877
13:50:54.489,-18.0001,-59.3752
13:50:54.498,-18.0001,-60.5002
13:50:54.508,-17.1876,-58.6252
13:50:54.519,-15.0626,-54.9377
13:50:54.528,-10.9375,-47.2502
13:50:54.539,-6.125,-38.5626
13:50:54.550,-2.1875,-28.3126
13:50:54.558,6.75,-8
13:50:54.568,10.3125,-0.125
13:50:54.578,14.1251,8.625
13:50:54.589,15.6251,14.5001
13:50:54.604,18.5626,19.6876
13:50:54.608,18.9376,24.3126
13:50:54.619,19.9376,25.9376
13:50:54.628,21.3126,29.4376
13:50:54.640,21.2501,32.1876
13:50:54.649,22.3126,33.4376
13:50:54.658,22.7501,34.8126
13:50:54.670,22.1251,36.1876
13:50:54.678,23.4376,37.2501
13:50:54.688,23.8751,38.5626
13:50:54.698,23.6876,38.8751
13:50:54.708,24.1876,39.8127
13:50:54.718,23.2501,40.3752
13:50:54.729,23.3751,37.9376
13:50:54.739,21.5626,37.3751
13:50:54.748,21.2501,33.8751
13:50:54.759,19.2501,32.5001
13:50:54.768,18.1876,28.9376
13:50:54.788,16.8126,26.9376
13:50:54.793,15.6251,23.4376
13:50:54.808,14.6251,20.6251
13:50:54.809,14.0001,18.2501
13:50:54.818,12.5625,15.8126
13:50:54.828,12.5,14.0001
13:50:54.838,10.625,12.3125
13:50:54.848,10.5625,10.1875
13:50:54.858,9.9375,9.8125
13:50:54.868,9.25,8
13:50:54.879,8.625,5.9375
13:50:54.888,7.4375,4.125
13:50:54.898,6.8125,3.8125
13:50:54.908,6.0625,1.5
13:50:54.921,5.125,-0.25
13:50:54.928,4.5,-2.4375
13:50:54.938,3.8125,-5.5
13:50:54.949,2.4375,-7.8125
13:50:54.958,1.375,-9.0625
13:50:54.968,0.5625,-11.1875
13:50:54.984,-0.0625,-13.6251
13:50:54.990,-1.8125,-17.3126
13:50:54.998,-2.8125,-20.1251
13:50:55.008,-4.3125,-21.5001
13:50:55.018,-4.0625,-25.0626
13:50:55.028,-5.6875,-27.6251
13:50:55.038,-7,-30.3751
13:50:55.048,-8.6875,-31.6251
13:50:55.059,-9.4375,-34.8751
13:50:55.068,-10.5625,-38.5001
13:50:55.079,-12.125,-40.3127
13:50:55.088,-12.375,-42.6252
13:50:55.098,-13.6876,-45.6877
13:50:55.108,-14.7501,-46.5002
13:50:55.120,-15.2501,-49.5002
13:50:55.128,-16.2501,-50.5627
13:50:55.138,-16.8126,-52.3127
13:50:55.148,-17.3751,-54.5002
13:50:55.158,-18.2501,-54.9377
13:50:55.168,-18.9376,-56.6877
13:50:55.180,-18.6876,-58.1252
13:50:55.188,-19.5626,-59.8752
13:50:55.198,-20.3751,-60.5002
13:50:55.208,-20.5001,-62.3127
13:50:55.218,-21.2501,-63.2502
13:50:55.228,-22.1876,-65.6253
13:50:55.238,-22.2501,-67.6253
13:50:55.248,-23.0626,-69.3128
13:50:55.258,-23.3126,-70.5628
13:50:55.269,-24.6876,-72.1253
13:50:55.278,-24.8126,-74.1878
13:50:55.288,-24.8751,-74.0003
13:50:55.298,-23.8751,-73.3128
13:50:55.308,-21.0001,-66.8753
13:50:55.318,-15.3751,-57.8752
13:50:55.346,-9.25,-43.9377
13:50:55.346,-4.75,-31.5001
13:50:55.349,0.6875,-21.9376
13:50:55.361,4.3125,-10.75
13:50:55.369,8.3125,-2.6875
13:50:55.382,12.4375,6.5625
13:50:55.388,15.0001,13.6876
13:50:55.398,18.5001,19.4376
13:50:55.408,19.2501,24.5626
13:50:55.418,21.7501,27.8751
13:50:55.428,21.8751,31.1876
13:50:55.439,23.6251,33.9376
13:50:55.449,24.1876,36.6876
13:50:55.458,24.4376,37.0626
13:50:55.468,25.2501,39.3752
13:50:55.478,25.4376,41.6252
13:50:55.488,26.3751,42.1877
13:50:55.499,26.0001,44.2502
13:50:55.519,26.3751,43.8127
13:50:55.522,25.8751,44.6877
13:50:55.552,25.6876,43.5002
13:50:55.555,25.3126,43.6252
13:50:55.557,25.0001,41.2502
13:50:55.559,22.8751,39.0627
13:50:55.589,21.7501,35.5626
13:50:55.592,20.2501,31.9376
13:50:55.594,18.8126,30.0626
13:50:55.601,17.3751,26.1876
13:50:55.630,16.1876,24.6251
13:50:55.632,16.1251,22.0001
13:50:55.633,14.7501,21.1251
13:50:55.639,13.9376,19.2501
13:50:55.660,13.8751,16.9376
13:50:55.661,12.875,16.6251
13:50:55.677,12.5,14.9376
13:50:55.682,12,13.2501
13:50:55.688,11,11.1875
13:50:55.698,9.9375,10.125
13:50:55.708,9.6875,7.6875
13:50:55.718,8.25,4.8125
13:50:55.734,7,4
13:50:55.740,6.5,1.0625
13:50:55.748,5.625,-1.5
13:50:55.758,4.4375,-3.625
13:50:55.768,2.9375,-5
13:50:55.778,2.5,-8.3125
13:50:55.789,1.6875,-11.5625
13:50:55.798,0.375,-13.1876
13:50:55.808,-0.75,-14.8126
13:50:55.818,-1.75,-17.7501
13:50:55.829,-2,-20.3751
13:50:55.838,-3.75,-23.0626
13:50:55.848,-4.9375,-25.5001
13:50:55.858,-5.625,-26.5626
13:50:55.868,-6.0625,-29.3751
13:50:55.880,-7.3125,-31.1876
13:50:55.888,-8.625,-33.6251
13:50:55.898,-8.75,-36.1251
13:50:55.908,-10.5,-39.3127
13:50:55.918,-10.625,-39.8127
13:50:55.929,-11.8125,-42.7502
13:50:55.938,-12.875,-44.3127
13:50:55.948,-12.9375,-45.9377
13:50:55.961,-14.5626,-47.5627
13:50:55.968,-14.3126,-49.5627
13:50:55.979,-15.5001,-50.6252
13:50:55.988,-15.5626,-52.8752
13:50:55.998,-16.3751,-54.5002
13:50:56.010,-16.6251,-56.0002
13:50:56.020,-17.7501,-56.9377
13:50:56.028,-17.8126,-58.8127
13:50:56.039,-19.0001,-60.2502
13:50:56.048,-18.8126,-61.7502
13:50:56.058,-20.0626,-63.5002
13:50:56.070,-20.8751,-64.1252
13:50:56.079,-21.6876,-67.1253
13:50:56.095,-21.3126,-68.8753
13:50:56.102,-22.5001,-68.3753
13:50:56.123,-21.8751,-68.6878
13:50:56.124,-18.8126,-65.6252
13:50:56.129,-14.8751,-56.2502
13:50:56.138,-8.875,-45.0002
13:50:56.148,-2.625,-31.6251
13:50:56.158,1.4375,-19.1251
13:50:56.168,6.75,-10
13:50:56.179,10.25,0.3125
13:50:56.190,13.6876,7.9375
13:50:56.198,16.7501,15.8126
13:50:56.208,18.6876,21.6876
13:50:56.218,20.6876,26.0001
13:50:56.228,21.8126,30.4376
13:50:56.238,21.8126,31.3751
13:50:56.251,22.8751,34.1876
13:50:56.258,23.3126,34.5001
13:50:56.268,23.6876,36.5626
13:50:56.278,24.3126,37.2501
13:50:56.288,25.1876,39.0001
13:50:56.300,24.3126,40.8127
13:50:56.308,24.2501,40.3752
13:50:56.318,24.1251,41.0627
13:50:56.329,25.1251,41.0002
13:50:56.338,24.3126,41.9377
13:50:56.348,24.1251,40.8752
13:50:56.358,22.8751,39.9377
13:50:56.369,22.2501,36.8751
13:50:56.378,20.5001,34.6251
13:50:56.389,20.3126,31.1876
13:50:56.399,18.0001,28.6876
13:50:56.408,17.4376,24.8751
13:50:56.420,15.9376,23.2501
13:50:56.429,15.6876,20.2501
13:50:56.442,14.2501,19.0001
13:50:56.450,13.6251,16.0001
13:50:56.458,12.9375,14.7501
13:50:56.468,12.125,12.875
13:50:56.484,11.8125,12.3125
13:50:56.490,11.3125,11.5
13:50:56.498,10.6875,8.6875
13:50:56.509,9.8125,7.375
13:50:56.518,8.9375,5.5625
13:50:56.528,8.625,3.625
13:50:56.539,7.5625,0.375
13:50:56.548,5.5625,-0.8125
13:50:56.558,5.8125,-4.1875
13:50:56.568,3.5,-7
13:50:56.578,3.0625,-8.375
13:50:56.590,1.5625,-12.3125
13:50:56.598,0.25,-15.0001
13:50:56.624,-0.5625,-15.8751
13:50:56.626,-0.625,-18.9376
13:50:56.629,-2.375,-21.1876
13:50:56.638,-3.25,-24.4376
13:50:56.650,-4.1875,-27.1876
13:50:56.660,-5.625,-30.1876
13:50:56.669,-7.4375,-31.8126
13:50:56.681,-8.3125,-34.3751
13:50:56.689,-8.5625,-37.7501
13:50:56.698,-10.625,-40.6877
13:50:56.711,-11.625,-41.6877
13:50:56.720,-12.8125,-44.8752
13:50:56.730,-13.6251,-47.6252
13:50:56.738,-14.9376,-49.6877
13:50:56.748,-16.0626,-51.1877
13:50:56.758,-16.0626,-54.9377
13:50:56.769,-17.8126,-56.5002
13:50:56.779,-17.8751,-58.9377
13:50:56.788,-18.8126,-61.7502
13:50:56.798,-19.9376,-62.5627
13:50:56.808,-20.6876,-64.4377
13:50:56.819,-21.3751,-66.5628
13:50:56.828,-22.0001,-67.3128
13:50:56.843,-22.8126,-70.0628
13:50:56.850,-22.7501,-70.0628
13:50:56.859,-22.2501,-70.0003
13:50:56.868,-19.1876,-65.5003
13:50:56.878,-14.3751,-55.3752
13:50:56.889,-7.4375,-42.2502
13:50:56.899,0.4375,-27.0001
13:50:56.909,4.6875,-15.3751
13:50:56.919,10,-4.6875
13:50:56.928,12.8125,4.625
13:50:56.940,15.9376,12
13:50:56.957,18.1876,19.3126
13:50:56.959,20.2501,23.1876
13:50:56.974,22.0001,27.7501
13:50:56.979,21.9376,31.6876
13:50:56.990,23.1251,31.3126
13:50:56.998,22.8126,33.6251
13:50:57.008,22.7501,34.2501
13:50:57.020,23.1876,33.5001
13:50:57.030,23.9376,35.8126
13:50:57.039,23.5626,35.6251
13:50:57.051,23.5001,36.0001
13:50:57.081,23.7501,36.6251
13:50:57.083,23.3751,36.3126
13:50:57.085,23.0001,36.8126
13:50:57.090,23.0001,35.3751
13:50:57.118,21.5626,34.9376
13:50:57.122,20.4376,31.8751
13:50:57.123,18.5626,28.1251
13:50:57.129,18.1251,25.8751
13:50:57.156,17.5626,22.6876
13:50:57.158,15.3751,20.2501
13:50:57.160,15.3126,18.2501
13:50:57.190,14.2501,15.3751
13:50:57.191,13.1876,14.3751
13:50:57.193,13.3751,12.125
13:50:57.203,12,11.0625
13:50:57.209,12,10.875
13:50:57.219,11.125,8.625
13:50:57.234,10.875,8.5625
13:50:57.239,10.375,6.875
13:50:57.249,9.8125,5.6875
13:50:57.260,8.375,3.625
13:50:57.269,7.75,2.9375
13:50:57.279,7.1875,-0.375
13:50:57.290,6.1875,-2.75
13:50:57.299,4.875,-4.1875
13:50:57.309,4.75,-7.1875
13:50:57.319,3.0625,-9.875
13:50:57.329,1.3125,-12.875
13:50:57.340,-0.0625,-15.3751
13:50:57.348,-1.25,-17.6876
13:50:57.359,-2.25,-20.4376
13:50:57.369,-3.375,-23.5001
13:50:57.379,-4.5625,-24.9376
13:50:57.398,-5.3125,-27.9376
13:50:57.405,-6.125,-30.5001
13:50:57.420,-7.625,-32.9376
13:50:57.421,-8.0625,-33.9376
13:50:57.429,-9.3125,-36.8126
13:50:57.439,-10.5625,-39.0001
13:50:57.451,-11.9375,-40.4377
13:50:57.459,-12.5625,-43.0627
13:50:57.468,-13.125,-46.1252
13:50:57.481,-13.5626,-47.0002
13:50:57.489,-14.3751,-49.0002
13:50:57.501,-15.1876,-50.7502
13:50:57.509,-15.3751,-51.7502
13:50:57.520,-14.7501,-50.6877
13:50:57.529,-12.75,-47.0627
13:50:57.539,-8,-37.6251
13:50:57.550,-2.375,-27.0626
13:50:57.558,3.1875,-15.0626
13:50:57.571,7.75,-4.625
13:50:57.579,11,5.1875
13:50:57.588,15.3751,14.0001
13:50:57.601,18.0626,21.4376
13:50:57.609,20.7501,28.2501
13:50:57.619,23.1876,33.8751
13:50:57.629,24.5001,37.8126
13:50:57.639,25.1876,40.3127
13:50:57.651,24.8751,43.3752
13:50:57.658,26.1251,43.6877
13:50:57.670,26.0626,45.5002
13:50:57.679,26.1251,45.7502
13:50:57.689,26.7501,46.3752
13:50:57.700,27.4376,48.0002
13:50:57.709,26.7501,49.0627
13:50:57.720,27.0626,49.3752
13:50:57.732,26.9376,50.3752
13:50:57.738,26.6876,48.9377
13:50:57.749,26.0001,48.8127
13:50:57.759,25.1876,46.0002
13:50:57.768,23.2501,43.8127
13:50:57.780,22.6251,41.2502
13:50:57.788,20.7501,38.7501
13:50:57.798,20.1876,35.8751
13:50:57.810,18.4376,33.5001
13:50:57.819,18.1251,31.6876
13:50:57.829,17.6251,29.5001
13:50:57.839,16.6251,29.3126
13:50:57.849,15.8751,27.1876
13:50:57.859,15.5001,26.1251
13:50:57.870,15.1876,24.6876
13:50:57.878,14.3751,23.2501
13:50:57.904,14.0001,22.0626
13:50:57.909,12.75,19.7501
13:50:57.914,12.0625,18.1876
13:50:57.924,11.75,16.6251
13:50:57.934,10.5,14.3751
13:50:57.944,9.1875,11.8125
13:50:57.956,8.4375,9.8125
13:50:57.964,7.6875,7.5
13:50:57.975,6.1875,4.9375
13:50:57.986,5.5,2.25
13:50:57.994,4.0625,0.3125
13:50:58.004,3,-1.75
13:50:58.014,2.625,-4.875
13:50:58.024,1.625,-6.625
13:50:58.036,-0.0625,-9.25
13:50:58.045,-0.375,-12.25
13:50:58.055,-3.0625,-15.6251
13:50:58.064,-3.1875,-18.5001
13:50:58.074,-3.4375,-20.5001
13:50:58.086,-4.8125,-23.1251
13:50:58.095,-5.375,-25.3751
13:50:58.104,-5.75,-26.6876
13:50:58.114,-6.4375,-28.6251
13:50:58.124,-7.875,-30.3751
13:50:58.135,-8.875,-33.3751
13:50:58.145,-9.625,-34.3126
13:50:58.155,-10.875,-38.4376
13:50:58.164,-11.0625,-39.8752
13:50:58.174,-12.6875,-42.0627
13:50:58.185,-13.0625,-42.8752
13:50:58.194,-10.875,-41.5002
13:50:58.205,-8.8125,-36.6251
13:50:58.214,-2.75,-26.3751
13:50:58.225,2.6875,-13.5626
13:50:58.235,8.375,-1.1875
13:50:58.254,13.3126,11.5625
13:50:58.256,19.1876,23.9376
13:50:58.268,24.4376,37.5001
13:50:58.274,29.3126,50.1252
13:50:58.289,33.5001,61.3127
13:50:58.298,36.9376,69.7503
13:50:58.304,40.0002,78.9378
13:50:58.316,42.8127,85.2503
13:50:58.324,44.9377,92.3129
13:50:58.336,46.7502,98.0004
13:50:58.345,48.1877,103.1254
13:50:58.360,49.8127,107.4379
13:50:58.364,50.6877,111.4379
13:50:58.385,50.8127,115.6254
13:50:58.385,52.1252,117.5005
13:50:58.427,52.9377,119.938
13:50:58.430,53.0002,123.1255
13:50:58.432,53.9377,124.3755
13:50:58.436,53.1877,124.938
13:50:58.439,52.0627,123.8755
13:50:58.444,52.0002,123.3755
13:50:58.481,50.6252,122.0005
13:50:58.483,49.9377,120.8755
13:50:58.485,49.5627,119.563
13:50:58.488,48.2502,118.938
13:50:58.494,48.5002,117.2505
13:50:58.509,47.6252,117.3754
13:50:58.514,47.5002,116.6879
13:50:58.524,47.0627,115.8754
13:50:58.534,47.1252,115.0004
13:50:58.544,46.6252,114.6879
13:50:58.557,45.0627,112.6254
13:50:58.564,44.6252,111.8129
13:50:58.577,43.3127,109.2504
13:50:58.584,41.5002,106.7504
13:50:58.595,40.2502,105.4379
13:50:58.604,39.6252,103.2504
13:50:58.614,39.1252,99.8754
13:50:58.627,36.8126,98.0004
13:50:58.634,36.3126,95.0004
13:50:58.644,35.4376,92.2504
13:50:58.654,33.7501,89.1878
13:50:58.664,32.4376,86.0628
13:50:58.675,30.9376,83.5628
13:50:58.684,30.2501,81.5003
13:50:58.694,29.5001,78.5003
13:50:58.709,27.5001,76.5003
13:50:58.717,27.6876,73.4378
13:50:58.724,25.4376,71.8128
13:50:58.741,25.6251,69.1253
13:50:58.752,24.2501,67.2503
13:50:58.756,23.3751,65.5003
13:50:58.769,22.2501,62.8752
13:50:58.775,20.7501,60.8752
13:50:58.784,20.6876,59.3752
13:50:58.794,19.5626,57.2502
13:50:58.806,18.3751,55.4377
13:50:58.814,17.1251,53.3127
13:50:58.825,15.4376,49.8752
13:50:58.835,14.6876,46.3752
13:50:58.844,13.3751,43.5002
13:50:58.856,11.6875,40.5002
13:50:58.864,9.0625,35.8126
13:50:58.874,7.6875,32.2501
13:50:58.884,7.125,30.5626
13:50:58.894,7.4375,30.1251
13:50:58.904,8.5625,31.2501
13:50:58.914,10.5625,34.9376
13:50:58.924,12.625,40.3752
13:50:58.935,15.0001,45.5002
13:50:58.944,16.2501,50.0627
13:50:58.954,18.3126,54.2502
13:50:58.965,19.0626,56.3127
13:50:58.974,19.7501,57.2502
13:50:58.986,19.6876,56.7502
13:50:58.994,18.5001,56.4377
13:50:59.005,18.4376,54.4377
13:50:59.014,17.3126,53.7502
13:50:59.024,16.8751,53.1877
13:50:59.035,17.3126,50.8127
13:50:59.045,17.2501,52.5627
13:50:59.054,17.3126,52.5627
13:50:59.068,17.1876,52.1252
13:50:59.075,17.5626,54.2502
13:50:59.085,17.5626,53.5627
13:50:59.094,17.8126,54.3127
13:50:59.110,17.2501,52.6252
13:50:59.116,16.5001,51.0002
13:50:59.125,15.2501,48.1252
13:50:59.136,12.5,43.1877
13:50:59.144,12.0625,38.3751
13:50:59.154,8.25,33.1876
13:50:59.185,6.5,26.6876
13:50:59.188,3.3125,21.3126
13:50:59.190,1.375,16.0001
13:50:59.194,-0.0625,10.6875
13:50:59.204,-2.625,6.8125
13:50:59.214,-4.125,2.375
13:50:59.224,-5.4375,-2.125
13:50:59.234,-6.5625,-4.0625
13:50:59.244,-7.0625,-7.25
13:50:59.254,-8.25,-10.4375
13:50:59.264,-9.1875,-12.6875
13:50:59.275,-11.1875,-15.5001
13:50:59.284,-11.875,-18.0001
13:50:59.295,-12.75,-21.5001
13:50:59.304,-14.2501,-24.5626
13:50:59.316,-15.5626,-26.9376
13:50:59.325,-16.3126,-31.0001
13:50:59.334,-17.5001,-33.8126
13:50:59.347,-17.6251,-36.3126
13:50:59.354,-19.8751,-38.8751
13:50:59.365,-20.4376,-41.5002
13:50:59.374,-22.1251,-44.1877
13:50:59.385,-22.6251,-47.6877
13:50:59.394,-24.6251,-50.6252
13:50:59.405,-25.1251,-54.5627
13:50:59.414,-27.8751,-57.6877
13:50:59.424,-28.3751,-61.1252
13:50:59.435,-30.9376,-64.8752
13:50:59.444,-32.4376,-69.2503
13:50:59.454,-34.5626,-73.1253
13:50:59.464,-36.8126,-78.0628
13:50:59.476,-38.0001,-81.6878
13:50:59.485,-40.8127,-87.5628
13:50:59.497,-42.6252,-90.4379
13:50:59.507,-44.6877,-96.1879
13:50:59.514,-45.9377,-100.0629
13:50:59.524,-48.5002,-102.8754
13:50:59.535,-49.3127,-108.0004
13:50:59.547,-51.3127,-110.4379
13:50:59.556,-52.5627,-114.8754
13:50:59.573,-54.3752,-115.7504
13:50:59.575,-54.9377,-119.063
13:50:59.590,-55.9377,-121.5005
13:50:59.598,-57.0627,-123.438
13:50:59.604,-57.1877,-125.063
13:50:59.615,-58.5627,-126.813
13:50:59.624,-57.8127,-128.3755
13:50:59.634,-59.1252,-128.938
13:50:59.646,-57.8127,-128.1255
13:50:59.654,-56.3127,-124.6255
13:50:59.668,-51.4377,-115.5629
13:50:59.674,-43.8127,-100.2504
13:50:59.684,-35.0626,-83.6878
13:50:59.694,-26.5001,-64.6252
13:50:59.704,-20.7501,-49.8752
13:50:59.714,-15.8126,-39.6252
13:50:59.724,-12,-29.2501
13:50:59.735,-8,-22.7501
13:50:59.744,-6.25,-14.9376
13:50:59.754,-4.625,-12.6875
13:50:59.765,-4.4375,-9
13:50:59.775,-3.4375,-9.1875
13:50:59.785,-3.625,-7.8125
13:50:59.794,-3.375,-7.4375
13:50:59.804,-3.3125,-8.3125
13:50:59.814,-3.6875,-8.375
13:50:59.826,-3.75,-8.9375
13:50:59.834,-4,-9.4375
13:50:59.870,-4,-10.1875
13:50:59.872,-4.8125,-10.75
13:50:59.875,-6,-13.3126
13:50:59.881,-6.3125,-14.6876
13:50:59.884,-7.5,-18.6251
13:50:59.916,-8.0625,-19.7501
13:50:59.920,-9.375,-23.1876
13:50:59.922,-10.5,-24.9376
13:50:59.925,-10.8125,-27.5626
13:50:59.961,-10.875,-28.1251
13:50:59.964,-11.875,-27.6876
13:50:59.966,-11.375,-29.9376
13:50:59.970,-10.5625,-29.2501
13:50:59.974,-11.4375,-29.3126
13:50:59.991,-10.8125,-28.8126
13:50:59.994,-10.75,-28.5626
13:51:00.011,-10.1875,-29.2501
13:51:00.016,-11.0625,-29.3126
13:51:00.025,-10.75,-30.1876
13:51:00.041,-12,-31.7501
13:51:00.057,-12.8125,-33.8751
13:51:00.058,-13.3751,-35.3751
13:51:00.068,-14.8126,-37.1251
13:51:00.074,-15.7501,-40.2502
13:51:00.084,-17.3751,-42.6252
13:51:00.097,-18.3751,-46.5002
13:51:00.104,-19.5626,-49.5627
13:51:00.114,-21.2501,-52.1252
13:51:00.124,-21.3126,-55.0002
13:51:00.134,-23.4376,-56.7502
13:51:00.147,-24.5626,-61.3127
13:51:00.155,-25.7501,-62.2502
13:51:00.165,-26.6876,-64.8127
13:51:00.174,-27.2501,-67.5628
13:51:00.184,-28.8126,-68.8128
13:51:00.194,-28.6876,-72.0628
13:51:00.204,-30.0626,-73.0003
13:51:00.214,-30.0001,-75.7503
13:51:00.224,-31.8751,-76.8753
13:51:00.235,-31.8751,-80.0628
13:51:00.244,-33.4376,-80.8753
13:51:00.254,-33.8126,-83.8128
13:51:00.264,-34.1251,-85.2503
13:51:00.275,-35.3126,-86.5628
13:51:00.285,-35.0626,-88.0003
13:51:00.294,-35.2501,-87.4378
13:51:00.305,-32.6876,-84.1253
13:51:00.314,-28.5001,-75.0003
13:51:00.326,-21.3126,-61.0627
13:51:00.334,-11.875,-40.3752
13:51:00.346,-4.75,-23.3751
13:51:00.354,2.5,-10.0625
13:51:00.365,6.3125,3.1875
13:51:00.375,11.625,13.125
13:51:00.386,14.3126,22.2501
13:51:00.394,17.3126,27.5626
13:51:00.404,18.1876,33.2501
13:51:00.414,19.8126,35.4376
13:51:00.425,19.8751,38.3751
13:51:00.434,20.5626,38.6251
13:51:00.464,21.2501,40.1877
13:51:00.466,20.6876,40.2502
13:51:00.470,20.8751,40.9377
13:51:00.476,20.1876,40.6877
13:51:00.485,20.6876,40.5002
13:51:00.494,19.1876,40.3752
13:51:00.506,19.0626,39.3752
13:51:00.514,18.2501,39.1876
13:51:00.525,18.1251,38.1876
13:51:00.540,17.1876,36.8751
13:51:00.549,15.1876,34.8751
13:51:00.559,13.8126,30.5001
13:51:00.569,11.8125,27.5001
13:51:00.581,10.3125,24.1251
13:51:00.589,9.375,20.3751
13:51:00.599,7.6875,18.3126
13:51:00.609,6.8125,15.9376
13:51:00.619,6.4375,14.0626
13:51:00.630,5.5625,13.7501
13:51:00.639,5.3125,12.1875
13:51:00.651,5.25,11.625
13:51:00.659,4.9375,10.3125
13:51:00.671,4.6875,9.1875
13:51:00.679,3.5625,7.3125
13:51:00.689,3,5.6875
13:51:00.699,0.625,2.5625
13:51:00.709,0,0
13:51:00.719,-1.375,-3.625
13:51:00.729,-2.8125,-5.9375
13:51:00.743,-3.875,-8.3125
13:51:00.749,-5.375,-12.125
13:51:00.759,-6.6875,-13.7501
13:51:00.769,-7.8125,-17.5626
13:51:00.779,-9.0625,-20.6876
13:51:00.790,-10.1875,-23.5001
13:51:00.800,-12.5,-26.9376
13:51:00.812,-14.0626,-29.5001
13:51:00.819,-15.0626,-33.0001
13:51:00.830,-16.2501,-36.3126
13:51:00.839,-17.1251,-38.6251
13:51:00.850,-18.1876,-42.2502
13:51:00.859,-20.1251,-44.6252
13:51:00.869,-21.5626,-47.3127
13:51:00.884,-22.1876,-51.1252
13:51:00.892,-23.5001,-52.2502
13:51:00.899,-24.5001,-55.6877
13:51:00.916,-23.3751,-56.1252
13:51:00.923,-22.7501,-53.8127
13:51:00.931,-18.6876,-47.8127
13:51:00.939,-12.5,-34.6251
13:51:00.950,-5.75,-21.7501
13:51:00.959,0.625,-6.6875
13:51:00.969,5.3125,4.8125
13:51:00.980,10.5,15.1876
13:51:00.990,13.6876,26.8126
13:51:00.999,17.0001,33.0626
13:51:01.011,19.8751,39.8127
13:51:01.020,20.8751,43.8127
13:51:01.029,22.4376,46.6252
13:51:01.039,22.0626,49.2502
13:51:01.049,23.2501,50.2502
13:51:01.060,22.7501,51.1252
13:51:01.069,22.0626,50.6877
13:51:01.081,22.6251,51.6877
13:51:01.089,21.8751,51.0002
13:51:01.099,22.3751,52.1252
13:51:01.117,21.5626,51.1877
13:51:01.120,22.3751,51.3127
13:51:01.129,21.2501,50.6877
13:51:01.139,20.0001,49.5002
13:51:01.150,19.0001,47.1877
13:51:01.159,18.0001,44.8127
13:51:01.169,16.3126,41.3127
13:51:01.180,14.5626,37.2501
13:51:01.189,12.875,33.7501
13:51:01.199,11.1875,30.3126
13:51:01.224,10.5,27.5626
13:51:01.227,8.75,24.9376
13:51:01.230,7.5625,21.7501
13:51:01.264,6.625,19.4376
13:51:01.265,5.375,17.6876
13:51:01.267,5.125,15.1876
13:51:01.269,4.5625,13.6876
13:51:01.303,3.625,11
13:51:01.307,2.5,8.875
13:51:01.308,1.25,7.9375
13:51:01.314,0.9375,6.1875
13:51:01.320,0.5,2.9375
13:51:01.346,-1.3125,-0.125
13:51:01.349,-2.9375,-2.6875
13:51:01.363,-3.125,-4.3125
13:51:01.378,-4.3125,-7.6875
13:51:01.380,-6.125,-11.125
13:51:01.385,-7.375,-13.5001
13:51:01.389,-7.9375,-16.0001
13:51:01.399,-9.1875,-19.2501
13:51:01.409,-10.25,-22.6251
13:51:01.421,-11.5625,-25.4376
13:51:01.429,-12.75,-27.1876
13:51:01.439,-14.1251,-29.3751
13:51:01.449,-14.6251,-32.8126
13:51:01.461,-15.7501,-35.1876
13:51:01.469,-17.1251,-38.1876
13:51:01.482,-18.0001,-38.7501
13:51:01.489,-18.6251,-42.8752
13:51:01.500,-20.1251,-45.1252
13:51:01.511,-20.7501,-46.2502
13:51:01.519,-21.0626,-49.6252
13:51:01.529,-23.1251,-51.7502
13:51:01.539,-24.1876,-52.7502
13:51:01.549,-24.2501,-56.1252
13:51:01.559,-24.6876,-57.9377
13:51:01.572,-26.3126,-60.1877
13:51:01.579,-26.9376,-61.5002
13:51:01.590,-26.0001,-61.1877
13:51:01.601,-23.0001,-57.4377
13:51:01.609,-18.5626,-47.3127
13:51:01.620,-12.125,-33.7501
13:51:01.630,-5.875,-20.3751
13:51:01.639,-0.4375,-8.4375
13:51:01.649,3.25,0.4375
13:51:01.662,7.125,9.25
13:51:01.669,9,16.7501
13:51:01.680,11.625,22.0626
13:51:01.689,13.5001,25.8126
13:51:01.699,14.6876,29.1876
13:51:01.710,14.3751,30.0626
13:51:01.719,15.0001,30.8126
13:51:01.745,14.1876,32.5626
13:51:01.749,14.4376,31.8126
13:51:01.750,14.6251,31.4376
13:51:01.759,13.8126,32.1251
13:51:01.769,13.5001,30.8126
13:51:01.780,13.5626,32.0001
13:51:01.790,13.5626,30.5626
13:51:01.801,13.6251,30.3751
13:51:01.811,12.875,31.0001
13:51:01.821,12.3125,29.1251
13:51:01.829,11.125,26.3751
13:51:01.841,10.25,24.5626
13:51:01.850,8.5625,20.8126
13:51:01.868,7.375,18.3751
13:51:01.869,5.75,14.5626
13:51:01.880,4.25,12.125
13:51:01.890,3.0625,8.5
13:51:01.923,2.4375,6.1875
13:51:01.925,1.8125,4.25
13:51:01.928,0.3125,2.375
13:51:01.934,-0.5,0.375
13:51:01.946,-0.625,0.125
13:51:01.956,-1.5625,-2.25
13:51:01.964,-2.125,-3.9375
13:51:01.975,-2.625,-5.375
13:51:01.985,-4.1875,-6.5
13:51:01.996,-4.375,-8.4375
13:51:02.006,-5.125,-10.75
13:51:02.015,-6.75,-12.75
13:51:02.028,-6.875,-14.6876
13:51:02.036,-7.3125,-16.6876
13:51:02.046,-7.9375,-17.7501
13:51:02.055,-9.5625,-19.9376
13:51:02.065,-12.625,-22.8751
13:51:02.076,-13.8126,-25.9376
13:51:02.087,-16.1876,-29.3126
13:51:02.096,-18.0001,-32.7501
13:51:02.104,-21.4376,-34.5001
13:51:02.116,-23.6251,-37.5626
13:51:02.128,-25.5001,-39.0626
13:51:02.135,-29.3751,-42.7502
13:51:02.146,-31.1876,-44.4377
13:51:02.155,-34.0001,-45.5002
13:51:02.165,-36.0001,-46.8752
13:51:02.174,-37.3751,-48.8127
13:51:02.186,-39.7502,-49.2502
13:51:02.202,-42.2502,-52.0627
13:51:02.216,-44.3752,-53.6252
13:51:02.219,-46.7502,-54.6252
13:51:02.228,-48.8127,-56.1877
