timestamp,Red,IR
13:54:54.825,-43.3127,-85.6253
13:54:54.828,-50.3752,-96.1879
13:54:54.835,-31.6251,-69.3128
13:54:54.844,-19.0001,-48.7502
13:54:54.853,-6.375,-27.5001
13:54:54.863,5.1875,-6.625
13:54:54.873,16.0626,11.8125
13:54:54.883,24.7501,29.1251
13:54:54.894,32.0001,44.1877
13:54:54.902,38.8751,55.6252
13:54:54.913,42.5627,65.4378
13:54:54.923,45.5627,72.9378
13:54:54.933,47.8127,77.8128
13:54:54.943,49.5002,81.1253
13:54:54.954,50.1877,84.7503
13:54:54.963,49.8752,84.8128
13:54:54.972,49.5627,86.4378
13:54:54.983,48.4377,84.3753
13:54:54.992,47.9377,83.6253
13:54:55.003,46.8127,83.1878
13:54:55.012,44.8752,81.6253
13:54:55.022,44.1877,79.2503
13:54:55.032,42.3127,76.6253
13:54:55.063,41.3752,73.7503
13:54:55.067,38.8126,70.5628
13:54:55.069,36.3126,65.5002
13:54:55.073,32.3126,60.4377
13:54:55.107,28.5626,54.1877
13:54:55.112,25.5001,46.6877
13:54:55.114,20.8126,40.8752
13:54:55.117,18.3126,34.7501
13:54:55.142,15.2501,31.0001
13:54:55.144,13.5626,26.4376
13:54:55.148,11.375,21.7501
13:54:55.175,9.75,19.8126
13:54:55.177,8.75,16.1251
13:54:55.180,7.5,15.0626
13:54:55.186,6.0625,12.1875
13:54:55.196,6.4375,11.5
13:54:55.203,4.5625,9.8125
13:54:55.213,3.6875,8.375
13:54:55.227,2.125,6.875
13:54:55.232,1,3.5625
13:54:55.242,-0.5625,2.1875
13:54:55.274,-1.375,-1.375
13:54:55.284,-3.5,-3.8125
13:54:55.286,-5.25,-6.8125
13:54:55.287,-7.125,-11.1875
13:54:55.302,-8.6875,-14.7501
13:54:55.306,-10.4375,-17.6251
13:54:55.319,-13.3126,-21.7501
13:54:55.329,-14.9376,-25.7501
13:54:55.333,-17.6876,-29.5626
13:54:55.343,-21.1876,-32.8126
13:54:55.353,-22.8126,-38.5001
13:54:55.363,-25.2501,-41.4377
13:54:55.373,-27.6251,-45.2502
13:54:55.383,-29.2501,-50.2502
13:54:55.394,-31.3751,-53.3127
13:54:55.403,-32.9376,-56.5002
13:54:55.413,-35.4376,-59.8127
13:54:55.423,-36.2501,-62.9377
13:54:55.433,-38.0001,-65.1877
13:54:55.443,-39.1877,-68.3753
13:54:55.452,-40.6252,-70.5003
13:54:55.463,-42.7502,-74.1878
13:54:55.472,-43.4377,-75.6878
13:54:55.483,-45.0627,-79.1878
13:54:55.493,-45.8752,-81.8753
13:54:55.503,-47.5002,-83.5003
13:54:55.515,-48.8127,-86.2503
13:54:55.523,-49.0627,-87.1878
13:54:55.533,-47.6252,-86.3128
13:54:55.542,-42.6877,-79.7503
13:54:55.552,-33.4376,-66.6253
13:54:55.563,-21.6251,-47.7502
13:54:55.572,-9.9375,-28.1876
13:54:55.584,2.375,-6.9375
13:54:55.592,12.6875,11.3125
13:54:55.602,22.4376,30.6251
13:54:55.614,30.5001,45.8127
13:54:55.623,37.0001,59.4377
13:54:55.632,42.8127,70.9378
13:54:55.643,46.3752,80.3128
13:54:55.654,50.5002,87.5003
13:54:55.662,51.5627,93.1254
13:54:55.673,52.9377,97.6254
13:54:55.683,53.6877,98.8754
13:54:55.693,53.3127,99.8754
13:54:55.704,52.1252,99.1879
13:54:55.713,51.5627,98.6254
13:54:55.724,50.0002,96.0629
13:54:55.734,48.7502,94.1879
13:54:55.743,46.5002,91.3129
13:54:55.753,44.3752,88.8128
13:54:55.764,42.1877,84.6878
13:54:55.773,40.0002,80.7503
13:54:55.783,36.3126,74.8128
13:54:55.794,32.6876,68.6878
13:54:55.802,29.1876,62.0002
13:54:55.814,24.7501,54.7502
13:54:55.824,21.3126,47.6877
13:54:55.833,17.1876,41.3127
13:54:55.843,13.8126,35.5626
13:54:55.854,11.6875,30.2501
13:54:55.864,8.875,26.6251
13:54:55.872,7.9375,22.8751
13:54:55.883,6.25,20.6251
13:54:55.892,5.1875,18.1251
13:54:55.902,3.8125,15.6876
13:54:55.914,3.125,14.5001
13:54:55.924,2.625,11.875
13:54:55.934,1.75,10.9375
13:54:55.943,0.625,8.4375
13:54:55.953,-0.8125,6.125
13:54:55.986,-2.0625,4
13:54:55.989,-3.5625,1.5
13:54:55.990,-5.75,-0.8125
13:54:55.998,-7.0625,-5.3125
13:54:56.004,-9.5,-8.25
13:54:56.014,-11.3125,-12.3125
13:54:56.024,-13.8126,-17.1251
13:54:56.033,-16.2501,-20.5001
13:54:56.043,-18.8126,-25.3751
13:54:56.052,-20.5626,-29.0626
13:54:56.063,-22.6251,-33.3751
13:54:56.080,-25.6876,-37.3751
13:54:56.083,-27.1876,-40.8752
13:54:56.092,-29.4376,-45.3127
13:54:56.104,-32.1876,-48.8127
13:54:56.114,-33.3751,-54.0627
13:54:56.124,-36.3126,-56.6252
13:54:56.133,-37.6876,-60.9377
13:54:56.142,-40.0627,-64.2502
13:54:56.154,-41.3127,-67.4378
13:54:56.164,-43.3752,-68.8753
13:54:56.174,-44.4377,-72.7503
13:54:56.184,-45.3752,-75.5628
13:54:56.193,-47.5627,-78.3753
13:54:56.202,-48.5627,-80.6253
13:54:56.213,-50.3127,-83.3128
13:54:56.223,-51.1252,-86.3753
13:54:56.233,-52.1877,-87.7503
13:54:56.244,-53.3127,-90.3753
13:54:56.254,-53.0002,-89.8128
13:54:56.264,-50.0627,-88.2503
13:54:56.273,-42.6877,-77.9378
13:54:56.282,-32.0626,-59.4377
13:54:56.296,-18.6876,-39.5627
13:54:56.304,-4.875,-16.4376
13:54:56.314,8.0625,5.875
13:54:56.322,20.3126,29.4376
13:54:56.334,30.8751,50.2502
13:54:56.342,41.0002,69.6253
13:54:56.354,49.3752,86.2503
13:54:56.363,56.1877,100.3129
13:54:56.374,60.6877,111.8754
13:54:56.399,64.8752,121.063
13:54:56.402,67.6253,128.3755
13:54:56.408,68.8753,132.8755
13:54:56.440,70.1253,135.813
13:54:56.443,70.3128,139.188
13:54:56.445,69.8128,138.438
13:54:56.447,69.3128,138.6255
13:54:56.458,68.0003,137.063
13:54:56.463,66.8753,135.688
13:54:56.492,65.3128,133.813
13:54:56.494,63.8127,131.688
13:54:56.497,61.5002,128.188
13:54:56.517,58.9377,125.0005
13:54:56.519,56.3127,119.3755
13:54:56.525,52.3752,113.3754
13:54:56.533,47.9377,105.8754
13:54:56.544,43.6252,97.2504
13:54:56.553,39.5627,89.4378
13:54:56.562,35.4376,81.6878
13:54:56.600,31.5001,74.6878
13:54:56.605,28.8126,67.9378
13:54:56.608,26.0001,62.1877
13:54:56.613,24.1876,57.5627
13:54:56.616,21.1251,53.3127
13:54:56.627,19.8126,49.9377
13:54:56.642,18.0001,46.1252
13:54:56.647,16.1876,44.4377
13:54:56.659,15.3751,40.8127
13:54:56.667,13.7501,37.8126
13:54:56.673,12.75,35.5001
13:54:56.683,11.125,31.9376
13:54:56.692,9.75,29.5626
13:54:56.703,7.75,25.5001
13:54:56.714,5.5625,21.7501
13:54:56.723,3.5625,18.3126
13:54:56.734,0.875,13.6251
13:54:56.744,-1.3125,8.625
13:54:56.754,-3.5625,4.875
13:54:56.764,-6.1875,0.3125
13:54:56.774,-8.6875,-4.6875
13:54:56.782,-11.4375,-9.5
13:54:56.793,-13.5626,-14.0626
13:54:56.804,-15.9376,-17.8126
13:54:56.813,-18.9376,-22.8751
13:54:56.830,-20.6876,-28.3126
13:54:56.833,-23.3751,-32.4376
13:54:56.844,-25.5001,-37.8751
13:54:56.853,-27.9376,-41.6252
13:54:56.863,-29.3126,-45.8127
13:54:56.875,-31.9376,-49.0002
13:54:56.883,-34.8126,-52.7502
13:54:56.894,-35.5001,-57.5002
13:54:56.903,-37.8751,-59.7502
13:54:56.913,-38.8751,-64.0002
13:54:56.923,-41.2502,-65.6253
13:54:56.934,-41.8127,-70.0003
13:54:56.944,-42.3752,-71.5628
13:54:56.954,-44.8127,-74.1253
13:54:56.964,-45.7502,-77.8753
13:54:56.973,-46.5002,-79.1878
13:54:56.984,-48.3752,-82.0003
13:54:56.992,-49.5002,-85.1878
13:54:57.004,-50.7502,-87.2503
13:54:57.013,-51.0002,-89.0003
13:54:57.024,-49.6877,-86.6878
13:54:57.033,-43.8752,-81.6253
13:54:57.045,-34.3126,-66.5003
13:54:57.053,-21.3126,-46.7502
13:54:57.064,-8.125,-23.4376
13:54:57.073,6.5625,0.375
13:54:57.084,18.9376,25.1251
13:54:57.095,31.3751,46.9377
13:54:57.103,41.7502,68.4378
13:54:57.113,50.8127,87.0628
13:54:57.123,59.0002,102.2504
13:54:57.134,63.7502,114.9379
13:54:57.144,68.0628,124.2505
13:54:57.153,71.6253,132.688
13:54:57.164,73.2503,136.938
13:54:57.173,74.5003,140.5005
13:54:57.184,74.3753,141.6255
13:54:57.193,74.2503,141.7505
13:54:57.205,73.3753,142.8755
13:54:57.213,73.0003,140.5005
13:54:57.224,71.6878,139.8755
13:54:57.234,69.8753,137.563
13:54:57.264,67.8753,134.688
13:54:57.266,66.3753,130.6255
13:54:57.269,63.1877,126.563
13:54:57.273,60.9377,121.938
13:54:57.284,57.1877,115.4379
13:54:57.293,53.2502,107.9379
13:54:57.303,49.6252,99.8129
13:54:57.314,44.0627,91.3754
13:54:57.323,40.2502,82.8753
13:54:57.334,35.3126,74.5628
13:54:57.344,32.1876,67.5003
13:54:57.353,28.6876,60.9377
13:54:57.364,25.8751,55.2502
13:54:57.375,24.0626,50.6252
13:54:57.384,21.1876,46.3752
13:54:57.395,19.5001,42.1252
13:54:57.403,18.3126,38.5626
13:54:57.414,16.2501,36.4376
13:54:57.423,15.3751,33.0001
13:54:57.433,14.1251,30.0001
13:54:57.444,12.6875,26.9376
13:54:57.454,11,23.6251
13:54:57.463,9.125,19.7501
13:54:57.474,7.25,16.5626
13:54:57.488,5.3125,12.6875
13:54:57.494,2.375,8.625
13:54:57.503,0.5,4.125
13:54:57.514,-2.3125,-0.375
13:54:57.524,-4.75,-4.9375
13:54:57.534,-7.6875,-10.25
13:54:57.543,-9.5,-15.5001
13:54:57.553,-12.1875,-19.7501
13:54:57.563,-14.1876,-24.1876
13:54:57.580,-17.3751,-28.9376
13:54:57.584,-19.6876,-33.5001
13:54:57.594,-21.7501,-39.0002
13:54:57.603,-24.6876,-42.9377
13:54:57.614,-26.8751,-47.5627
13:54:57.623,-29.1876,-52.3752
13:54:57.633,-31.1251,-55.6252
13:54:57.644,-33.3751,-60.1252
13:54:57.653,-36.0001,-64.1877
13:54:57.663,-36.8751,-67.1253
13:54:57.674,-38.8126,-70.8128
13:54:57.685,-40.1252,-73.0628
13:54:57.694,-41.6877,-76.2503
13:54:57.704,-41.8752,-78.6253
13:54:57.714,-43.5627,-80.5628
13:54:57.723,-43.8752,-83.5003
13:54:57.734,-45.7502,-85.5628
13:54:57.743,-46.8752,-88.8128
13:54:57.753,-48.2502,-90.9379
13:54:57.765,-49.5002,-92.3129
13:54:57.773,-50.5627,-95.8129
13:54:57.783,-51.9377,-98.1254
13:54:57.793,-53.5002,-100.2504
13:54:57.803,-52.1877,-100.7504
13:54:57.813,-50.0002,-97.8129
13:54:57.823,-42.8752,-88.6878
13:54:57.833,-31.5626,-71.5003
13:54:57.843,-19.5001,-49.6252
13:54:57.867,-6.375,-28.8751
13:54:57.870,5.5,-5.875
13:54:57.874,17.6251,13.9376
13:54:57.913,28.0626,34.3126
13:54:57.914,35.7501,50.8127
13:54:57.942,43.6252,65.6253
13:54:57.975,48.5627,78.5003
13:54:57.977,53.8127,88.1878
13:54:57.996,56.8127,95.1254
13:54:57.996,59.0002,100.2504
13:54:57.998,60.2502,104.2504
13:54:58.012,60.0002,105.4379
13:54:58.014,60.8752,107.1879
13:54:58.029,59.4377,107.8129
13:54:58.029,59.8752,105.8754
13:54:58.030,58.0627,105.5629
13:54:58.044,57.2502,102.3754
13:54:58.047,55.6252,101.3754
13:54:58.054,54.0627,98.2504
13:54:58.064,52.0002,94.5004
13:54:58.073,50.1877,90.6254
13:54:58.083,47.6252,85.2503
13:54:58.095,43.7502,79.9378
13:54:58.103,39.8752,71.5628
13:54:58.114,36.0001,63.9377
13:54:58.124,31.9376,56.1252
13:54:58.133,28.0001,48.7502
13:54:58.144,24.3126,42.5627
13:54:58.154,21.8751,36.1251
13:54:58.164,19.4376,32.1251
13:54:58.173,17.0001,26.7501
13:54:58.183,13.3126,18.0626
13:54:58.193,11.9375,15.8126
13:54:58.205,11.125,13.6876
13:54:58.214,9.5625,10.75
13:54:58.223,7.8125,9.75
13:54:58.233,7.125,5.6875
13:54:58.244,5,3.25
13:54:58.254,3.75,0.125
13:54:58.263,2.3125,-3.625
13:54:58.273,0.0625,-7.5
13:54:58.284,-1.3125,-10.625
13:54:58.294,-3.8125,-14.4376
13:54:58.303,-5.8125,-18.2501
13:54:58.314,-8.375,-22.6876
13:54:58.323,-10.125,-27.8751
13:54:58.333,-12.1875,-30.8126
13:54:58.343,-14.5626,-35.5626
13:54:58.354,-17.3751,-39.8127
13:54:58.372,-19.5626,-43.3752
13:54:58.375,-21.1876,-48.3752
13:54:58.385,-23.6251,-51.7502
13:54:58.393,-25.5001,-55.3127
13:54:58.407,-27.3126,-60.3127
13:54:58.414,-29.0626,-63.8752
13:54:58.423,-30.2501,-67.2503
13:54:58.433,-33.4376,-70.6253
13:54:58.443,-34.3126,-73.5628
13:54:58.453,-36.8751,-76.6878
13:54:58.464,-38.3126,-79.8753
13:54:58.473,-39.8752,-82.1253
13:54:58.483,-40.8127,-84.8753
13:54:58.494,-41.6252,-85.8753
13:54:58.503,-42.1877,-89.0003
13:54:58.513,-43.0002,-90.7503
13:54:58.544,-44.5627,-91.4379
13:54:58.546,-45.1877,-94.8754
13:54:58.548,-46.6877,-96.0004
13:54:58.559,-47.0002,-99.1879
13:54:58.568,-48.5627,-100.2504
13:54:58.580,-49.1252,-103.1879
13:54:58.590,-49.1252,-103.6254
13:54:58.598,-48.9377,-102.6254
13:54:58.608,-43.7502,-97.6254
13:54:58.619,-36.3751,-85.1253
13:54:58.629,-24.5626,-67.6878
13:54:58.639,-12.125,-46.0627
13:54:58.648,-0.5625,-25.3126
13:54:58.658,11.875,-4.1875
13:54:58.668,21.3126,17.0626
13:54:58.679,30.8751,32.8751
13:54:58.690,37.6251,49.2502
13:54:58.698,44.1877,60.6252
13:54:58.709,48.5627,72.5628
13:54:58.718,53.3127,83.0628
13:54:58.729,55.2502,87.4378
13:54:58.742,56.1877,91.1879
13:54:58.748,56.3752,91.5629
13:54:58.761,55.8752,93.0004
13:54:58.768,54.4377,91.9379
13:54:58.778,54.1252,91.8754
13:54:58.789,52.0627,91.0004
13:54:58.798,51.0627,87.4378
13:54:58.808,49.0002,87.0628
13:54:58.818,47.8752,83.2503
13:54:58.829,45.3752,80.5003
13:54:58.840,42.6877,75.6253
13:54:58.849,39.3127,69.4378
13:54:58.858,35.4376,63.3127
13:54:58.869,31.7501,55.7502
13:54:58.878,27.3751,49.1877
13:54:58.888,24.3126,42.5627
13:54:58.898,20.8126,36.0001
13:54:58.909,18.0626,31.7501
13:54:58.919,16.7501,26.4376
13:54:58.928,13.9376,23.3126
13:54:58.939,13.3751,19.1876
13:54:58.948,11.5,17.4376
13:54:58.958,10.5625,15.6876
13:54:58.969,9.875,12.75
13:54:58.978,8.875,11
13:54:58.989,8.3125,9.9375
13:54:58.999,6.8125,8.125
13:54:59.009,6.125,5.3125
13:54:59.019,4.1875,3.625
13:54:59.029,2.5625,1.25
13:54:59.045,1.375,-2.5
13:54:59.050,-0.6875,-5.6875
13:54:59.085,-1.9375,-8.6875
13:54:59.088,-4.4375,-12.6875
13:54:59.090,-6.75,-16.1876
13:54:59.094,-7.5625,-19.4376
13:54:59.099,-9.75,-23.0001
13:54:59.128,-11.75,-26.5626
13:54:59.132,-14.1251,-31.1251
13:54:59.133,-16.2501,-35.4376
13:54:59.139,-17.8751,-39.4377
13:54:59.173,-20.2501,-43.1877
13:54:59.175,-22.5001,-47.3752
13:54:59.177,-24.6876,-51.1877
13:54:59.180,-27.1251,-54.2502
13:54:59.195,-28.7501,-57.8127
13:54:59.199,-30.9376,-62.0627
13:54:59.208,-32.8126,-63.0627
13:54:59.218,-34.5626,-67.4378
13:54:59.228,-35.1876,-70.8128
13:54:59.238,-37.3126,-72.7503
13:54:59.260,-37.7501,-75.8753
13:54:59.266,-39.4377,-77.2503
13:54:59.269,-41.1252,-80.5003
13:54:59.279,-42.1877,-82.8128
13:54:59.313,-43.8127,-85.7503
13:54:59.316,-45.4377,-88.0628
13:54:59.331,-46.4377,-88.7503
13:54:59.335,-45.6252,-90.5629
13:54:59.348,-44.0627,-86.5003
13:54:59.352,-37.3126,-79.5628
13:54:59.353,-27.0001,-64.8752
13:54:59.360,-16.3126,-45.8127
13:54:59.368,-3.9375,-25.0626
13:54:59.378,8.1875,-3
13:54:59.389,18.8126,16.0626
13:54:59.399,28.5001,35.5001
13:54:59.408,36.0001,53.5002
13:54:59.418,43.8752,67.6253
13:54:59.428,49.0627,80.6878
13:54:59.438,54.1252,89.6878
13:54:59.449,56.7502,97.5629
13:54:59.459,58.6877,102.8129
13:54:59.468,59.2502,107.6879
13:54:59.478,59.9377,108.1254
13:54:59.488,59.1252,109.8129
13:54:59.498,58.4377,108.7504
13:54:59.509,56.9377,107.0629
13:54:59.518,56.2502,107.0629
13:54:59.528,55.1252,105.4379
13:54:59.538,53.2502,101.9379
13:54:59.548,50.3127,99.1879
13:54:59.558,48.1252,96.0629
13:54:59.568,45.5627,90.5004
13:54:59.591,42.8752,84.9378
13:54:59.591,38.9376,77.8128
13:54:59.598,34.5626,70.3128
13:54:59.609,30.4376,63.0002
13:54:59.618,26.5001,55.7502
13:54:59.628,23.1876,48.0002
13:54:59.638,20.2501,42.1252
13:54:59.648,17.9376,37.3751
13:54:59.658,15.8751,33.2501
13:54:59.668,13.3126,30.0001
13:54:59.678,12.5625,26.0626
13:54:59.688,10.8125,23.1876
13:54:59.700,9.9375,21.0626
13:54:59.709,8.6875,17.8126
13:54:59.719,7.625,16.4376
13:54:59.728,6.875,14.5001
13:54:59.738,5.3125,12.625
13:54:59.748,4.3125,10.9375
13:54:59.758,3,6.75
13:54:59.768,0.4375,3.4375
13:54:59.778,-0.375,0.25
13:54:59.788,-2.6875,-3.25
13:54:59.798,-4.9375,-7.5
13:54:59.823,-7.3125,-11.375
13:54:59.826,-9.625,-15.8751
13:54:59.828,-11.4375,-20.0001
13:54:59.838,-14.3126,-23.2501
13:54:59.848,-16.2501,-28.0626
13:54:59.858,-18.3751,-32.4376
13:54:59.868,-21.3126,-37.0001
13:54:59.879,-23.0001,-41.1252
13:54:59.888,-25.7501,-45.8752
13:54:59.899,-28.1876,-49.7502
13:54:59.914,-29.5001,-53.3752
13:54:59.919,-31.5001,-56.8752
13:54:59.928,-34.0001,-60.6877
13:54:59.938,-35.9376,-64.1252
13:54:59.949,-37.8751,-67.6253
13:54:59.959,-38.9376,-70.9378
13:54:59.969,-40.7502,-72.3753
13:54:59.978,-41.5627,-76.0628
13:54:59.988,-42.7502,-77.3753
13:54:59.999,-43.9377,-80.0003
13:55:00.008,-44.5627,-82.6878
13:55:00.018,-45.6252,-83.9378
13:55:00.028,-46.7502,-87.2503
13:55:00.038,-48.0627,-88.9378
13:55:00.048,-50.1252,-90.1253
13:55:00.058,-51.1877,-94.1879
13:55:00.068,-51.5627,-96.0629
13:55:00.078,-53.1877,-97.1254
13:55:00.088,-52.9377,-99.0629
13:55:00.098,-51.3752,-96.0004
13:55:00.108,-45.6877,-89.9378
13:55:00.118,-35.1251,-74.1253
13:55:00.128,-23.0001,-54.1877
13:55:00.139,-9.125,-31.6251
13:55:00.149,3.625,-6.75
13:55:00.158,16.4376,14.9376
13:55:00.168,28.4376,37.8751
13:55:00.178,37.8751,58.2502
13:55:00.189,47.6877,77.0003
13:55:00.200,54.5002,92.4379
13:55:00.208,60.8127,105.6254
13:55:00.219,64.6252,116.8129
13:55:00.229,67.8753,123.188
13:55:00.238,70.4378,129.813
13:55:00.248,70.2503,134.063
13:55:00.258,71.3128,135.313
13:55:00.268,70.5628,137.563
13:55:00.279,69.8128,136.688
13:55:00.288,70.0003,136.5005
13:55:00.298,68.1253,136.063
13:55:00.308,66.8753,133.1255
13:55:00.319,66.2503,131.6255
13:55:00.332,64.1877,128.8755
13:55:00.340,61.6252,125.188
13:55:00.349,59.1252,121.8755
13:55:00.358,56.0002,116.2504
13:55:00.369,52.1252,108.3129
13:55:00.378,48.1877,100.5629
13:55:00.388,42.9377,92.5004
13:55:00.399,39.0626,83.8753
13:55:00.408,34.8751,76.1878
13:55:00.419,31.0626,68.7503
13:55:00.428,28.3126,62.6252
13:55:00.438,25.7501,56.5627
13:55:00.449,22.6876,52.2502
13:55:00.458,21.5001,47.2502
13:55:00.468,19.1876,43.8127
13:55:00.478,17.5001,40.7502
13:55:00.488,16.1876,37.4376
13:55:00.499,15.4376,34.9376
13:55:00.508,14.1876,32.0001
13:55:00.518,11.875,28.5001
13:55:00.532,10.5,25.5626
13:55:00.538,8.125,21.8751
13:55:00.548,6.5,18.0626
13:55:00.558,3.625,14.5001
13:55:00.579,1.4375,9.875
13:55:00.586,-1.6875,4.8125
13:55:00.593,-2.875,0.8125
13:55:00.598,-6.375,-3.375
13:55:00.631,-9.1875,-8
13:55:00.665,-10.75,-13.5626
13:55:00.693,-13.9376,-17.5626
13:55:00.725,-16.4376,-22.6876
13:55:00.727,-18.8751,-28.1876
13:55:00.727,-20.5626,-32.8751
13:55:00.729,-23.0001,-37.7501
13:55:00.731,-26.3751,-42.3127
13:55:00.738,-28.5626,-46.5002
13:55:00.738,-30.5626,-51.3752
13:55:00.743,-33.2501,-55.0002
13:55:00.758,-35.0626,-59.6877
13:55:00.763,-37.0001,-63.5002
13:55:00.773,-38.8751,-66.9378
13:55:00.783,-40.4377,-70.3128
13:55:00.793,-42.7502,-72.8128
13:55:00.806,-44.2502,-77.1253
13:55:00.815,-45.6877,-79.4378
13:55:00.824,-47.1252,-82.6878
13:55:00.833,-48.6877,-85.6878
13:55:00.843,-49.8752,-87.5628
13:55:00.853,-50.8127,-90.6879
13:55:00.863,-59.6252,-106.5004
13:55:00.874,-60.7502,-108.8129
13:55:00.883,-61.8752,-109.9379
13:55:00.894,-62.0627,-111.6254
13:55:00.904,-63.1877,-112.3754
13:55:00.913,-63.0627,-115.2504
13:55:00.923,-64.5627,-115.5004
13:55:00.933,-65.1877,-118.938
13:55:00.944,-66.0003,-120.188
13:55:00.954,-68.0628,-122.438
13:55:00.963,-68.6253,-124.813
13:55:00.973,-69.7503,-125.7505
13:55:00.983,-69.8128,-127.688
13:55:00.993,-66.3753,-122.438
13:55:01.005,-57.5002,-111.3754
13:55:01.013,-44.6877,-91.0004
13:55:01.023,-30.2501,-67.1878
13:55:01.033,-14.6876,-40.8752
13:55:01.044,-0.1875,-13.7501
13:55:01.054,13.1876,10
13:55:01.063,26.0626,34.0626
13:55:01.074,36.1876,55.8752
13:55:01.104,46.3127,74.3753
13:55:01.107,52.7502,91.1254
13:55:01.109,58.6252,103.1879
13:55:01.115,62.3752,114.1879
13:55:01.123,65.3127,120.1255
13:55:01.137,67.0003,126.438
13:55:01.145,67.5628,128.563
13:55:01.154,68.3753,132.188
13:55:01.163,68.0628,131.6255
13:55:01.174,67.6878,133.063
13:55:01.183,66.8128,131.6255
13:55:01.195,65.3128,130.438
13:55:01.205,63.9377,129.5005
13:55:01.213,62.6252,126.8755
13:55:01.223,60.1877,124.0005
13:55:01.233,58.1252,119.8755
13:55:01.245,55.0002,114.5629
13:55:01.254,52.1252,109.0004
13:55:01.264,48.8127,101.5629
13:55:01.274,43.3127,93.9379
13:55:01.284,39.8127,85.0003
13:55:01.294,34.8751,77.3128
13:55:01.303,30.9376,69.1253
13:55:01.313,27.3126,61.0627
13:55:01.324,23.5001,55.0627
13:55:01.333,21.6251,49.5002
13:55:01.344,19.0626,44.1877
13:55:01.354,17.3126,40.5627
13:55:01.363,16.5001,37.3126
13:55:01.374,14.3126,34.3126
13:55:01.383,13.6876,31.5626
13:55:01.394,11.75,29.1251
13:55:01.404,10,26.9376
13:55:01.413,8.875,22.9376
13:55:01.423,7.0625,19.7501
13:55:01.435,5.8125,16.0626
13:55:01.444,3.5625,13
13:55:01.454,1,9.25
13:55:01.463,-1.5,5.4375
13:55:01.474,-3.0625,0.125
13:55:01.484,-6.3125,-4.25
13:55:01.494,-8.6875,-9.4375
13:55:01.503,-11.5625,-13.5001
13:55:01.513,-13.4376,-17.8126
13:55:01.524,-15.5626,-22.5626
13:55:01.534,-19.1251,-26.6876
13:55:01.543,-20.6876,-31.8751
13:55:01.553,-24.1876,-36.3126
13:55:01.563,-25.9376,-40.6877
13:55:01.573,-28.6251,-46.0627
13:55:01.584,-31.0626,-49.6252
13:55:01.598,-32.9376,-54.4377
13:55:01.605,-35.2501,-58.6877
13:55:01.614,-36.6251,-63.0627
13:55:01.623,-38.2501,-66.6253
13:55:01.633,-40.9377,-70.0003
13:55:01.643,-41.4377,-73.5003
13:55:01.653,-44.1877,-76.2503
13:55:01.664,-45.0627,-80.0003
13:55:01.673,-47.3752,-82.1878
13:55:01.683,-48.7502,-86.3128
13:55:01.694,-49.5627,-88.7503
13:55:01.704,-51.3127,-90.0628
13:55:01.713,-52.3752,-93.6254
13:55:01.723,-52.7502,-95.7504
13:55:01.733,-54.9377,-98.1254
13:55:01.743,-55.5002,-100.3754
13:55:01.754,-56.5002,-101.7504
13:55:01.764,-58.0002,-104.8754
13:55:01.773,-58.8752,-105.8754
13:55:01.783,-59.8127,-106.6254
13:55:01.793,-59.9377,-109.7504
13:55:01.803,-59.6252,-110.4379
13:55:01.813,-60.9377,-112.5004
13:55:01.823,-62.5627,-115.1254
13:55:01.833,-62.8127,-115.7504
13:55:01.845,-64.0002,-118.2505
13:55:01.854,-64.3752,-119.0005
13:55:01.863,-65.5003,-121.813
13:55:01.873,-67.0628,-123.188
13:55:01.897,-68.6878,-126.3755
13:55:01.899,-69.1253,-127.6255
13:55:01.914,-70.0628,-129.938
13:55:01.930,-68.0628,-127.438
13:55:01.931,-63.3752,-121.938
13:55:01.933,-51.6252,-105.3129
13:55:01.943,-37.3126,-80.1253
13:55:01.953,-21.3126,-54.4377
13:55:01.963,-5.0625,-28.2501
13:55:01.985,7.9375,-2.3125
13:55:01.987,22.1876,22.1876
13:55:01.997,33.1876,45.3752
13:55:02.004,43.6877,65.3128
13:55:02.038,52.0627,83.9378
13:55:02.075,58.0002,97.0629
13:55:02.077,63.6252,109.2504
13:55:02.077,66.0628,118.688
13:55:02.080,69.0003,124.3755
13:55:02.082,70.1878,129.0005
13:55:02.090,70.5003,132.188
13:55:02.090,70.6253,132.2505
13:55:02.094,70.8128,133.2505
13:55:02.132,69.3128,131.688
13:55:02.134,68.2503,130.1255
13:55:02.136,66.4378,129.313
13:55:02.138,65.2503,125.1255
13:55:02.143,62.8127,122.1255
13:55:02.157,60.5627,118.438
13:55:02.164,57.6252,113.2504
13:55:02.173,54.1877,108.1254
13:55:02.183,50.7502,101.0629
13:55:02.194,45.3127,93.0629
13:55:02.203,40.4377,83.1878
13:55:02.214,36.3126,75.5003
13:55:02.224,32.4376,67.5628
13:55:02.235,28.3126,60.5002
13:55:02.244,24.6876,53.1877
13:55:02.254,21.9376,47.1252
13:55:02.265,19.3126,42.3752
13:55:02.273,17.5626,38.6251
13:55:02.283,16.3126,34.7501
13:55:02.294,14.8126,31.9376
13:55:02.304,14.4376,29.5626
13:55:02.314,12.1875,27.1251
13:55:02.325,12.25,25.1876
13:55:02.333,10.625,23.2501
13:55:02.343,10.0625,20.9376
13:55:02.354,8.0625,18.4376
13:55:02.385,7,15.4376
13:55:02.388,5.0625,11.5
13:55:02.389,2.125,7.875
13:55:02.394,0.5,4.375
13:55:02.404,-2.3125,-0.8125
13:55:02.414,-4.25,-4.0625
13:55:02.423,-7.5625,-10.125
13:55:02.434,-10.0625,-14.2501
13:55:02.444,-12.25,-19.2501
13:55:02.453,-16.1251,-24.4376
13:55:02.463,-18.1876,-29.3126
13:55:02.474,-20.8126,-34.4376
13:55:02.484,-23.2501,-39.1251
13:55:02.493,-25.6876,-43.6877
13:55:02.504,-27.6251,-47.7502
13:55:02.513,-30.0626,-51.8752
13:55:02.524,-32.1251,-56.1252
13:55:02.533,-33.8126,-61.3127
13:55:02.544,-36.7501,-65.0628
13:55:02.554,-38.4376,-68.6253
13:55:02.563,-40.0627,-72.0003
13:55:02.573,-41.3752,-76.4378
13:55:02.585,-42.7502,-79.1253
13:55:02.624,-44.5002,-81.5628
13:55:02.624,-44.8752,-84.6253
13:55:02.628,-47.4377,-87.6253
13:55:02.634,-47.6252,-89.5003
13:55:02.643,-48.8752,-90.8754
13:55:02.651,-50.6252,-94.6879
13:55:02.658,-50.8752,-95.5629
13:55:02.669,-53.1877,-96.4379
13:55:02.678,-54.0002,-99.9379
13:55:02.688,-54.3752,-101.8754
13:55:02.698,-56.7502,-104.0004
13:55:02.708,-57.8752,-106.9379
13:55:02.718,-58.8127,-108.1879
13:55:02.728,-60.3752,-111.3129
13:55:02.738,-60.8127,-112.2504
13:55:02.748,-61.0002,-112.1254
13:55:02.758,-54.5002,-103.6879
13:55:02.769,-42.1252,-88.5628
13:55:02.778,-29.5626,-66.8128
13:55:02.789,-14.3126,-42.1877
13:55:02.798,-0.0625,-15.6876
13:55:02.809,14.4376,10
13:55:02.818,27.0001,34.6876
13:55:02.828,38.1876,56.8752
13:55:02.838,49.2502,77.6878
13:55:02.848,56.4377,95.9379
13:55:02.858,63.4377,109.1254
13:55:02.869,68.3753,121.188
13:55:02.878,70.4378,128.063
13:55:02.888,72.4378,132.8755
13:55:02.898,73.4378,135.6255
13:55:02.909,72.8128,137.688
13:55:02.918,72.6253,136.438
13:55:02.929,71.9378,135.7505
13:55:02.939,69.4378,134.1255
13:55:02.949,68.8128,131.6255
13:55:02.958,66.6253,129.313
13:55:02.968,64.5627,125.063
13:55:02.979,62.2502,120.938
13:55:02.989,59.8127,116.6879
13:55:03.000,56.3752,111.1879
13:55:03.009,53.5002,105.0004
13:55:03.018,48.3752,97.1254
13:55:03.029,44.5002,88.3128
13:55:03.039,38.8126,80.1878
13:55:03.048,35.6251,70.6253
13:55:03.059,29.8751,63.0627
13:55:03.069,25.7501,55.7502
13:55:03.078,22.8126,47.5002
13:55:03.089,19.8126,42.3127
13:55:03.098,18.0001,37.8126
13:55:03.108,16.2501,33.7501
13:55:03.118,14.6876,30.3126
13:55:03.129,13.1251,26.4376
13:55:03.140,12.6875,24.1876
13:55:03.149,11.3125,22.1876
13:55:03.159,9.375,19.7501
13:55:03.169,7.875,17.0001
13:55:03.179,6.3125,14.0626
13:55:03.200,5.0625,11.25
13:55:03.206,3.4375,7.9375
13:55:03.222,1.0625,3.3125
13:55:03.224,-1.25,0.3125
13:55:03.232,-3.3125,-5.5625
13:55:03.239,-5.25,-8.875
13:55:03.248,-8.4375,-13.8751
13:55:03.258,-10.75,-17.8126
13:55:03.268,-13.6251,-23.8126
13:55:03.278,-16.2501,-28.5001
13:55:03.289,-19.1251,-33.3126
13:55:03.299,-21.6876,-38.7501
13:55:03.309,-23.8126,-43.1252
13:55:03.330,-26.1251,-47.5002
13:55:03.333,-28.6876,-50.8127
13:55:03.341,-30.5626,-56.3752
13:55:03.348,-33.4376,-60.0002
13:55:03.365,-35.0001,-63.9377
13:55:03.373,-36.6876,-68.3128
13:55:03.379,-39.0626,-72.3128
13:55:03.394,-40.3752,-75.5628
13:55:03.400,-42.7502,-79.5003
13:55:03.408,-44.3127,-83.5003
13:55:03.419,-45.8752,-85.3753
13:55:03.428,-48.1252,-89.4378
13:55:03.438,-49.2502,-92.8754
13:55:03.449,-51.8127,-95.5004
13:55:03.458,-52.3127,-98.8129
13:55:03.489,-52.3127,-101.1254
13:55:03.491,-51.9377,-99.3754
13:55:03.494,-45.8752,-93.6254
13:55:03.500,-36.3126,-78.5003
13:55:03.527,-22.6251,-57.5002
13:55:03.530,-8.1875,-32.6876
13:55:03.532,5.4375,-8.8125
13:55:03.538,20.4376,18.2501
13:55:03.566,32.6876,42.4377
13:55:03.569,44.6252,64.8127
13:55:03.570,54.1252,86.0628
13:55:03.607,61.9377,101.6879
13:55:03.610,68.3128,116.0004
13:55:03.614,72.1253,126.188
13:55:03.619,75.0628,132.938
13:55:03.619,77.1253,138.1255
13:55:03.629,76.6878,140.7505
13:55:03.639,76.0628,140.3755
13:55:03.664,75.0003,139.938
13:55:03.666,74.2503,137.8755
13:55:03.669,71.9378,135.688
13:55:03.679,70.5003,130.8755
13:55:03.688,67.3128,127.688
13:55:03.699,65.2503,122.7505
13:55:03.710,62.8752,117.688
13:55:03.718,59.5627,111.5629
13:55:03.729,55.8127,104.2504
13:55:03.739,51.2502,96.2504
13:55:03.748,45.7502,86.0628
13:55:03.759,40.8127,76.6253
13:55:03.768,35.1251,67.3128
13:55:03.778,29.9376,56.7502
13:55:03.789,24.8126,48.6877
13:55:03.799,21.7501,40.3752
13:55:03.808,18.1876,34.3751
13:55:03.819,15.8126,28.6876
13:55:03.828,13.8126,23.3751
13:55:03.838,13.4376,20.5626
13:55:03.849,12.125,17.0626
13:55:03.859,11.5,14.8126
13:55:03.868,10.625,11.9375
13:55:03.879,8.875,9.8125
13:55:03.888,8,7.75
13:55:03.898,6.25,4.8125
13:55:03.909,5.8125,1.75
13:55:03.920,3.625,-1
13:55:03.929,2,-3.8125
13:55:03.938,0.3125,-8.125
13:55:03.949,-2.375,-11.4375
13:55:03.959,-4.375,-15.6876
13:55:03.968,-6,-20.1876
13:55:03.980,-9.375,-24.8126
13:55:03.989,-11.375,-29.5626
13:55:03.999,-14.3126,-34.4376
13:55:04.009,-16.3126,-39.3127
13:55:04.018,-20.0626,-43.6877
13:55:04.028,-22.5001,-48.8752
13:55:04.038,-25.8751,-53.4377
13:55:04.048,-28.1251,-57.8752
13:55:04.059,-30.4376,-63.0002
13:55:04.068,-33.2501,-66.5003
13:55:04.078,-35.6251,-70.5628
13:55:04.089,-37.3126,-73.9378
13:55:04.098,-39.4377,-78.1878
13:55:04.109,-41.0002,-81.6878
13:55:04.119,-43.8127,-84.8753
13:55:04.130,-45.1877,-89.0628
13:55:04.143,-46.5627,-91.6254
13:55:04.148,-48.6252,-95.2504
13:55:04.159,-49.5002,-98.2504
13:55:04.170,-51.6877,-100.0004
13:55:04.179,-52.8127,-103.6879
13:55:04.188,-51.8127,-103.6879
13:55:04.198,-47.4377,-97.8129
13:55:04.209,-38.1251,-85.0003
13:55:04.218,-24.2501,-62.5002
13:55:04.228,-10.125,-39.0626
13:55:04.238,4.9375,-12.4375
13:55:04.249,19.6251,14.5001
13:55:04.258,32.7501,39.8752
13:55:04.269,45.6877,63.5627
13:55:04.278,55.3127,86.0003
13:55:04.289,63.5002,103.0004
13:55:04.298,69.6253,117.438
13:55:04.310,74.3128,126.8755
13:55:04.318,76.3128,134.438
13:55:04.328,77.1253,138.1255
13:55:04.339,77.4378,138.6255
13:55:04.348,74.7503,138.688
13:55:04.358,73.0003,134.438
13:55:04.369,71.0003,130.938
13:55:04.379,67.7503,127.688
13:55:04.388,64.2502,121.438
13:55:04.398,61.2502,116.4379
13:55:04.408,57.6877,110.2504
13:55:04.418,53.1877,103.0004
13:55:04.428,49.1877,94.3754
13:55:04.439,43.5002,86.1878
13:55:04.449,38.5001,76.1253
13:55:04.458,32.2501,65.6878
13:55:04.469,27.6876,56.0002
13:55:04.478,21.8126,46.6877
13:55:04.488,18.4376,38.2501
13:55:04.506,14.2501,30.9376
13:55:04.520,11.875,25.8751
13:55:04.535,9.5625,20.5626
13:55:04.538,7,18.0001
13:55:04.552,6.1875,14.3126
13:55:04.555,5.625,13.0625
13:55:04.558,4.6875,10.6875
13:55:04.569,5.1875,10.125
13:55:04.578,4.5,9.5625
13:55:04.588,3.6875,8
13:55:04.598,3.6875,5.6875
13:55:04.609,1.75,5
13:55:04.619,0.875,1.125
13:55:04.628,-1.375,-1.125
13:55:04.649,-2.6875,-6.1875
13:55:04.651,-5.6875,-8.25
13:55:04.668,-7.1875,-13.0625
13:55:04.674,-9.4375,-17.2501
13:55:04.679,-12,-21.5001
13:55:04.688,-14.6251,-26.6876
13:55:04.698,-17.5626,-31.5001
13:55:04.709,-19.7501,-35.6876
13:55:04.718,-23.0001,-41.1252
13:55:04.728,-25.7501,-45.1877
13:55:04.739,-28.3751,-50.6877
13:55:04.749,-31.4376,-54.1877
13:55:04.758,-33.1876,-58.7502
13:55:04.769,-36.1876,-63.0002
13:55:04.778,-37.8126,-69.1253
13:55:04.788,-40.6877,-72.2503
13:55:04.798,-43.2502,-77.3753
13:55:04.835,-45.1252,-82.0003
13:55:04.838,-47.9377,-86.4378
13:55:04.840,-49.6252,-89.7503
13:55:04.842,-52.3127,-93.6254
13:55:04.870,-53.0627,-97.0004
13:55:04.871,-51.1877,-95.0629
13:55:04.874,-46.2502,-87.8128
13:55:04.879,-35.1876,-72.7503
13:55:04.911,-20.3126,-49.2502
13:55:04.914,-5.1875,-22.3126
13:55:04.915,11.0625,5.5
13:55:04.946,27.0001,36.1876
13:55:04.949,42.0002,64.3127
13:55:04.949,55.8127,90.8754
13:55:04.955,66.3128,115.0004
13:55:04.962,76.1878,133.188
13:55:04.968,83.4378,148.3756
13:55:04.978,87.0003,159.2506
13:55:04.989,90.5629,166.5006
13:55:04.998,91.6879,171.5007
13:55:05.008,91.7504,172.6257
13:55:05.018,91.1879,173.0632
13:55:05.028,89.1253,170.3757
13:55:05.039,87.6878,167.8756
13:55:05.049,84.8753,165.0631
13:55:05.058,82.0003,159.0631
13:55:05.068,79.3753,154.3131
13:55:05.078,76.1878,148.6881
13:55:05.088,72.7503,143.0005
13:55:05.098,69.5003,135.1255
13:55:05.110,64.3127,127.063
13:55:05.119,58.9377,117.688
13:55:05.129,52.9377,106.0629
13:55:05.140,47.1877,95.4379
13:55:05.149,41.3752,85.0628
13:55:05.158,36.1876,74.5628
13:55:05.168,31.3751,65.2502
13:55:05.179,27.2501,57.4377
13:55:05.189,23.7501,50.0002
13:55:05.199,21.3126,45.6252
13:55:05.209,19.1876,39.3752
13:55:05.218,17.5626,36.6876
13:55:05.228,15.6876,32.7501
13:55:05.239,13.6251,30.2501
13:55:05.249,11.9375,26.0001
13:55:05.259,9.625,24.0626
13:55:05.268,6,18.6876
13:55:05.279,2.125,13.6876
13:55:05.288,-3.375,8.625
13:55:05.299,-8.875,2.625
13:55:05.308,-14.8751,-4.4375
13:55:05.318,-21.2501,-11.0625
13:55:05.329,-26.5626,-16.7501
13:55:05.340,-30.5626,-23.5626
13:55:05.348,-35.1251,-29.3751
13:55:05.359,-40.3127,-37.1876
13:55:05.369,-46.4377,-43.0627
13:55:05.379,-51.6877,-51.5627
13:55:05.388,-57.3127,-57.5627
13:55:05.398,-62.4377,-64.6877
13:55:05.408,-69.0003,-71.0628
13:55:05.418,-77.0628,-80.8128
13:55:05.429,-89.1878,-90.5628
13:55:05.438,-101.6879,-102.4379
13:55:05.449,-114.9379,-112.0629
13:55:05.458,-128.563,-123.5005
13:55:05.468,-137.5005,-132.6255
13:55:05.478,-142.938,-138.0005
13:55:05.488,-144.3755,-141.438
13:55:05.499,-144.313,-143.6255
13:55:05.508,-145.7505,-144.063
13:55:05.518,-146.5006,-147.7506
13:55:05.528,-146.063,-150.1256
13:55:05.538,-146.2505,-150.8756
13:55:05.549,-147.1256,-152.2506
13:55:05.558,-145.7505,-153.5006
13:55:05.568,-140.813,-148.0006
13:55:05.578,-132.5005,-138.3755
13:55:05.588,-121.5005,-123.1255
13:55:05.598,-107.5004,-99.3754
13:55:05.608,-90.8754,-73.6878
13:55:05.620,-72.1878,-42.6252
13:55:05.628,-55.5627,-10.1875
13:55:05.640,-38.3751,19.0626
13:55:05.649,-22.6251,47.1877
13:55:05.658,-9.875,72.4378
13:55:05.668,1.6875,92.3754
13:55:05.678,10.8125,110.3754
13:55:05.688,16.7501,122.8755
13:55:05.698,21.4376,133.3755
13:55:05.712,24.6876,141.3755
13:55:05.720,28.2501,143.7505
13:55:05.730,31.0626,146.9381
13:55:05.739,32.0001,148.8131
13:55:05.749,33.0626,148.3756
13:55:05.759,34.8126,147.8756
13:55:05.769,35.0001,147.9381
13:55:05.778,36.8126,144.563
13:55:05.788,37.4376,142.688
13:55:05.798,35.5626,139.063
13:55:05.820,34.0001,132.0005
13:55:05.826,31.1876,126.563
13:55:05.828,26.8126,118.438
13:55:05.843,22.2501,109.0004
13:55:05.851,15.4376,96.9379
13:55:05.858,7.9375,84.1253
13:55:05.868,-0.125,70.6253
13:55:05.878,-10.25,58.0627
13:55:05.888,-29.9376,45.6877
13:55:05.898,-44.3127,36.5626
13:55:05.908,-49.8127,26.4376
13:55:05.918,-53.8127,18.5626
13:55:05.928,-57.1877,11.625
13:55:05.938,-59.8752,5.5625
13:55:05.955,-62.0627,-0.5
13:55:05.968,-64.5627,-5.5625
13:55:05.971,-66.3753,-10.375
13:55:05.986,-67.0003,-15.8126
13:55:05.990,-68.2503,-19.6876
13:55:05.998,-65.3753,-21.3126
13:55:06.009,-67.9378,-25.4376
13:55:06.019,-71.2503,-29.3126
13:55:06.028,-72.5003,-33.3126
13:55:06.038,-76.1253,-38.8751
13:55:06.049,-76.9378,-43.9377
13:55:06.058,-79.1878,-48.8127
13:55:06.068,-81.3128,-54.4377
13:55:06.078,-82.7503,-57.9377
13:55:06.090,-84.1878,-62.0002
13:55:06.099,-85.2503,-65.1877
13:55:06.108,-84.3753,-68.2503
13:55:06.118,-85.1253,-70.6253
13:55:06.128,-84.4378,-74.0628
13:55:06.138,-86.0003,-77.0003
13:55:06.149,-87.8753,-81.5628
13:55:06.165,-88.7503,-84.3753
13:55:06.170,-91.0629,-87.7503
13:55:06.192,-92.3754,-92.3754
13:55:06.195,-93.8754,-95.3129
13:55:06.224,-95.8129,-98.0004
13:55:06.226,-97.9379,-102.5004
13:55:06.229,-98.8129,-104.6254
13:55:06.261,-100.6254,-106.4379
13:55:06.261,-101.4379,-108.5004
13:55:06.261,-100.3754,-110.5629
13:55:06.268,-101.5004,-112.2504
13:55:06.269,-102.8129,-115.7504
13:55:06.297,-102.7504,-118.1255
13:55:06.300,-104.1879,-119.6255
13:55:06.302,-104.8754,-123.3755
13:55:06.309,-105.5004,-126.313
13:55:06.319,-104.6254,-126.063
13:55:06.328,-101.3754,-123.0005
13:55:06.338,-92.9379,-113.0004
13:55:06.349,-82.6253,-96.6254
13:55:06.358,-67.9378,-76.1878
13:55:06.368,-53.8752,-49.6877
13:55:06.379,-34.5626,-21.6876
13:55:06.389,-16.7501,8.75
13:55:06.398,1.0625,36.3751
13:55:06.408,16.0626,62.1252
13:55:06.418,27.3126,85.0003
13:55:06.429,37.5001,103.3129
13:55:06.439,45.5002,117.8755
13:55:06.449,55.5002,131.1255
13:55:06.466,64.0627,142.1255
13:55:06.470,71.6878,151.1881
13:55:06.479,77.5003,158.4381
13:55:06.489,82.9378,162.4381
13:55:06.499,89.0003,165.9381
13:55:06.508,92.1254,167.1256
13:55:06.519,97.0004,162.8756
13:55:06.529,100.9379,157.8131
13:55:06.538,102.6254,153.0006
13:55:06.548,102.7504,146.438
13:55:06.558,99.0629,139.2505
13:55:06.569,94.6254,130.5005
13:55:06.579,86.6878,121.063
13:55:06.588,80.9378,109.8754
13:55:06.604,73.6253,98.8129
13:55:06.613,65.0003,85.3753
13:55:06.623,54.0627,72.3128
13:55:06.634,43.9377,58.3127
13:55:06.644,35.4376,45.1252
13:55:06.653,25.6251,33.2501
13:55:06.663,17.6251,22.3751
13:55:06.674,10.6875,14.0626
13:55:06.683,5.125,6.4375
13:55:06.693,0.0625,-0.6875
13:55:06.704,-2.625,-6.5625
13:55:06.713,-6.3125,-13.5626
13:55:06.723,-10.5625,-19.3751
13:55:06.733,-13.3126,-26.0001
13:55:06.744,-17.7501,-31.6876
13:55:06.754,-22.7501,-38.7501
13:55:06.764,-32.6876,-48.9377
13:55:06.774,-36.9376,-53.4377
13:55:06.783,-41.9377,-57.2502
13:55:06.793,-46.0627,-62.5627
13:55:06.804,-49.9377,-66.0003
13:55:06.814,-51.2502,-70.3128
13:55:06.825,-51.6877,-73.3753
13:55:06.839,-52.3752,-76.1253
13:55:06.845,-54.6252,-80.6253
13:55:06.854,-57.8127,-83.8128
13:55:06.864,-57.8752,-86.7503
13:55:06.874,-59.3127,-87.4378
13:55:06.884,-59.2502,-89.8753
13:55:06.893,-57.1877,-91.3129
13:55:06.904,-55.3752,-91.0629
13:55:06.913,-54.8752,-91.1879
13:55:06.923,-51.9377,-92.4379
13:55:06.933,-49.0002,-92.3754
13:55:06.943,-49.2502,-92.6879
13:55:06.954,-53.7502,-94.5004
13:55:06.964,-59.1252,-98.5629
13:55:06.974,-64.8752,-99.4379
13:55:06.983,-70.2503,-102.1254
13:55:06.994,-74.5628,-104.8754
13:55:07.003,-79.6253,-107.6254
13:55:07.013,-83.8753,-111.6879
13:55:07.023,-86.6253,-114.2504
13:55:07.033,-88.2503,-115.7504
13:55:07.043,-88.8753,-117.7505
13:55:07.053,-88.0003,-118.3755
13:55:07.064,-87.2503,-120.313
13:55:07.074,-86.8128,-122.8755
13:55:07.083,-89.6253,-125.313
13:55:07.094,-90.8129,-128.688
13:55:07.104,-92.0004,-130.0005
13:55:07.114,-91.3754,-128.8755
13:55:07.128,-87.7503,-126.8755
13:55:07.145,-80.4378,-117.1254
13:55:07.145,-69.5628,-101.5004
13:55:07.153,-54.3752,-80.2503
13:55:07.164,-37.6251,-53.0627
13:55:07.174,-19.4376,-23.4376
13:55:07.183,-0.375,6.875
13:55:07.193,15.4376,37.5001
13:55:07.203,30.1876,63.5002
13:55:07.215,43.3127,86.8753
13:55:07.226,54.1877,107.2504
13:55:07.234,65.2503,122.938
13:55:07.254,75.1878,137.2505
13:55:07.256,82.6878,149.5006
13:55:07.273,89.2503,155.7506
13:55:07.275,96.3129,162.3131
13:55:07.284,100.7504,166.3131
13:55:07.293,105.3754,168.0006
13:55:07.303,107.6254,169.0631
13:55:07.313,109.7504,169.3756
13:55:07.323,106.9379,169.8756
13:55:07.334,103.0629,166.8756
13:55:07.343,99.6879,162.7506
13:55:07.353,91.8754,157.9381
13:55:07.364,89.3128,152.1256
13:55:07.373,86.0628,144.313
13:55:07.383,81.6878,134.188
13:55:07.394,73.2503,122.313
13:55:07.404,64.8127,108.3754
13:55:07.413,56.2502,94.1254
13:55:07.423,47.9377,81.0628
13:55:07.433,39.5002,67.1878
13:55:07.443,30.6876,54.8127
13:55:07.463,23.6251,43.8752
13:55:07.465,16.1251,34.2501
13:55:07.473,10.9375,26.3126
13:55:07.504,4,19.6876
13:55:07.506,-0.8125,12.6875
13:55:07.510,-6.9375,5.9375
13:55:07.540,-10.1875,-1.625
13:55:07.542,-15.1876,-8.1875
13:55:07.545,-18.3126,-13.5626
13:55:07.547,-23.6251,-19.9376
13:55:07.554,-27.3751,-25.3751
13:55:07.591,-32.8126,-30.0626
13:55:07.593,-37.8751,-35.7501
13:55:07.595,-42.6252,-41.2502
13:55:07.597,-47.7502,-45.8752
13:55:07.604,-51.1252,-51.4377
13:55:07.619,-54.8752,-54.0002
13:55:07.624,-55.5627,-58.3752
13:55:07.634,-56.6877,-60.1252
13:55:07.643,-58.3752,-63.1252
13:55:07.654,-59.8752,-66.8128
13:55:07.663,-61.4377,-68.6878
13:55:07.673,-63.1252,-71.5003
13:55:07.684,-63.0002,-74.9378
13:55:07.694,-61.4377,-75.3753
13:55:07.703,-60.1252,-76.4378
13:55:07.714,-58.1252,-77.8753
13:55:07.723,-55.3127,-78.1878
13:55:07.733,-52.3752,-77.0628
13:55:07.743,-49.3752,-76.7503
13:55:07.754,-48.8127,-74.0003
13:55:07.763,-48.5627,-70.6878
13:55:07.774,-44.5002,-69.3128
13:55:07.783,-40.8127,-66.8128
13:55:07.793,-38.6876,-65.3753
13:55:07.804,-39.4377,-66.8128
13:55:07.813,-42.0627,-70.1253
13:55:07.824,-45.6877,-74.3753
13:55:07.833,-50.3127,-78.1253
13:55:07.843,-52.3752,-82.9378
13:55:07.853,-53.2502,-85.7503
13:55:07.863,-54.0002,-88.1878
13:55:07.873,-51.5002,-88.6878
13:55:07.883,-47.7502,-85.3753
13:55:07.893,-43.0627,-77.3753
13:55:07.903,-35.6251,-66.3753
13:55:07.913,-26.8751,-50.1252
13:55:07.923,-18.0001,-29.7501
13:55:07.933,-7.4375,-8.4375
13:55:07.944,3.1875,15.3751
13:55:07.953,13.5001,39.8127
13:55:07.963,25.6876,61.4377
13:55:07.973,36.8126,84.0628
13:55:07.984,46.7502,102.3129
13:55:07.993,54.4377,116.2504
13:55:08.003,58.1877,127.3755
13:55:08.014,62.0002,134.813
13:55:08.023,63.8127,141.6255
13:55:08.033,63.5002,144.813
13:55:08.044,63.2502,144.7505
13:55:08.053,63.5627,144.188
13:55:08.063,63.6252,144.0005
13:55:08.073,64.4377,141.688
13:55:08.084,65.2502,140.813
13:55:08.093,64.8752,138.2505
13:55:08.103,64.1252,133.6255
13:55:08.113,63.0627,129.1255
13:55:08.123,60.0002,121.7505
13:55:08.133,56.8752,110.6879
13:55:08.144,53.7502,101.3129
13:55:08.154,50.0627,90.3753
13:55:08.164,47.1252,80.2503
13:55:08.173,43.7502,69.5003
13:55:08.183,41.3752,61.1252
13:55:08.193,40.0627,52.5627
13:55:08.203,40.0627,47.1877
13:55:08.213,39.5627,40.3127
13:55:08.223,37.3751,35.5626
13:55:08.233,35.6876,29.4376
13:55:08.243,32.2501,24.5626
13:55:08.253,30.9376,20.5001
13:55:08.263,28.5626,15.7501
13:55:08.273,25.7501,11.5
13:55:08.285,22.3751,5.6875
13:55:08.293,16.7501,0.625
13:55:08.304,11.125,-6.625
13:55:08.314,3.8125,-12.75
13:55:08.323,-2.9375,-19.5626
13:55:08.333,-10.0625,-28.6251
13:55:08.343,-18.2501,-36.6251
13:55:08.353,-25.5626,-44.1877
13:55:08.368,-33.0626,-51.3127
13:55:08.374,-39.0626,-58.3752
13:55:08.383,-44.9377,-65.0002
13:55:08.393,-49.9377,-71.0628
13:55:08.403,-53.7502,-75.8753
13:55:08.424,-56.8127,-80.0003
13:55:08.430,-60.5002,-84.5003
13:55:08.445,-63.8752,-88.9378
13:55:08.447,-66.5003,-93.2504
13:55:08.453,-68.2503,-96.3754
13:55:08.464,-69.3753,-98.8754
13:55:08.473,-70.2503,-101.5004
13:55:08.484,-71.8753,-103.3754
13:55:08.493,-71.5628,-105.2504
13:55:08.503,-73.5003,-107.0004
13:55:08.513,-73.3753,-109.1879
13:55:08.523,-73.4378,-109.1254
13:55:08.534,-73.9378,-109.1879
13:55:08.549,-72.9378,-109.8129
13:55:08.567,-72.1878,-110.8129
13:55:08.570,-70.8128,-111.1879
13:55:08.575,-70.8753,-111.8754
13:55:08.583,-68.8128,-111.5629
13:55:08.593,-65.5002,-108.7504
13:55:08.604,-60.1252,-101.0629
13:55:08.613,-53.0627,-87.2503
13:55:08.623,-44.0627,-72.3753
13:55:08.633,-33.9376,-51.3127
13:55:08.644,-23.3126,-31.5001
13:55:08.653,-12.625,-10.0625
13:55:08.663,-2.9375,11.125
13:55:08.673,8.25,30.6876
13:55:08.683,18.5001,50.0002
13:55:08.693,25.5626,65.3127
13:55:08.703,31.8751,77.1253
13:55:08.714,34.1876,87.3128
13:55:08.725,36.0001,91.5629
13:55:08.733,36.7501,96.3754
13:55:08.750,36.7501,99.0629
13:55:08.755,37.0001,99.2504
13:55:08.784,39.0626,102.3129
13:55:08.786,40.8752,102.6879
13:55:08.789,43.6877,105.0629
13:55:08.797,44.6877,104.8129
13:55:08.803,45.5627,104.3129
13:55:08.814,46.2502,103.1879
13:55:08.824,43.5002,99.5629
13:55:08.835,40.1252,94.3129
13:55:08.844,35.3751,87.6878
13:55:08.853,30.8126,79.1878
13:55:08.863,27.8751,70.1878
13:55:08.874,24.1251,61.1877
13:55:08.884,23.6251,51.8127
13:55:08.894,22.5001,45.4377
13:55:08.903,23.0001,38.1251
13:55:08.913,22.7501,32.5001
13:55:08.924,21.5626,26.5626
13:55:08.934,21.9376,22.6876
13:55:08.944,25.0001,21.1876
13:55:08.954,26.1876,18.6251
13:55:08.964,22.2501,18.2501
13:55:08.973,17.0626,16.5001
13:55:08.984,14.1876,12.8125
13:55:08.994,12.4375,9.5
13:55:09.003,10.5625,4.875
13:55:09.013,7.6875,-0.8125
13:55:09.023,2.8125,-6.125
13:55:09.053,-2.625,-13.0625
13:55:09.055,-7.3125,-19.3126
13:55:09.057,-13.2501,-26.5626
13:55:09.065,-18.3751,-33.2501
13:55:09.093,-24.0626,-40.7502
13:55:09.095,-29.5001,-47.8752
13:55:09.097,-36.5001,-56.1252
13:55:09.104,-43.9377,-63.8752
13:55:09.115,-50.0627,-71.3753
13:55:09.143,-56.2502,-78.3753
13:55:09.146,-61.7502,-83.8753
13:55:09.148,-65.2502,-90.2503
13:55:09.154,-70.1878,-94.8754
13:55:09.173,-74.2503,-101.0629
13:55:09.175,-79.5628,-105.1879
13:55:09.184,-82.5628,-111.5629
13:55:09.194,-85.8128,-114.6879
13:55:09.204,-86.1878,-119.1255
13:55:09.213,-87.3753,-121.563
13:55:09.224,-86.4378,-122.938
13:55:09.233,-88.1253,-125.063
13:55:09.243,-88.3128,-126.2505
13:55:09.254,-89.1253,-128.313
13:55:09.264,-90.2503,-127.3755
13:55:09.274,-89.3753,-129.188
13:55:09.283,-89.6253,-130.0005
13:55:09.293,-89.0628,-129.3755
13:55:09.303,-88.0003,-128.6255
13:55:09.314,-86.1253,-127.438
13:55:09.323,-83.6253,-124.438
13:55:09.333,-80.7503,-122.063
13:55:09.343,-74.6253,-115.4379
13:55:09.354,-65.0002,-102.6879
13:55:09.364,-53.0002,-85.8128
13:55:09.373,-41.9377,-68.2503
13:55:09.384,-31.5001,-48.4377
13:55:09.394,-23.3126,-30.8751
13:55:09.404,-15.6876,-14.5626
13:55:09.414,-8.8125,3.0625
13:55:09.425,-1.4375,17.2501
13:55:09.433,5.75,32.5001
13:55:09.445,11.375,45.0627
13:55:09.453,16.4376,56.0002
13:55:09.463,20.6251,65.2503
13:55:09.474,22.5001,71.3753
13:55:09.483,25.0626,75.6878
13:55:09.494,26.3751,79.7503
13:55:09.504,26.1876,82.3753
13:55:09.513,27.4376,84.5003
13:55:09.524,29.6251,88.1253
13:55:09.533,32.5626,90.1878
13:55:09.548,35.7501,93.2504
13:55:09.553,36.7501,95.3129
13:55:09.563,37.5001,93.5629
13:55:09.575,36.5001,92.4379
13:55:09.584,33.0001,88.9378
13:55:09.594,30.5626,84.7503
13:55:09.604,27.0626,78.8753
13:55:09.615,24.5001,71.9378
13:55:09.623,20.3751,64.1877
13:55:09.633,17.6876,56.6877
13:55:09.643,14.4376,47.9377
13:55:09.654,12.0625,41.6252
13:55:09.663,10.3125,35.6876
13:55:09.673,9.875,29.4376
13:55:09.683,10.5,26.2501
13:55:09.694,12.0625,22.7501
13:55:09.704,14.2501,20.3751
13:55:09.726,17.0001,17.6876
13:55:09.730,19.5001,16.3126
13:55:09.744,20.7501,12.6875
13:55:09.748,19.5001,10.6875
13:55:09.753,18.8751,7.125
13:55:09.765,20.4376,4.8125
13:55:09.774,19.7501,1.1875
13:55:09.784,19.1251,-2.9375
13:55:09.793,16.3126,-8.1875
13:55:09.805,12.25,-14.7501
13:55:09.815,6.5,-21.9376
13:55:09.824,-0.0625,-28.5001
13:55:09.846,-6.875,-36.7501
13:55:09.848,-14.3126,-43.5002
13:55:09.863,-21.6251,-51.6252
13:55:09.866,-27.8126,-59.8752
13:55:09.874,-34.3751,-67.0003
13:55:09.883,-39.8127,-73.0628
13:55:09.896,-45.8127,-80.5628
13:55:09.905,-51.1252,-86.4378
13:55:09.914,-55.2502,-92.0629
13:55:09.925,-57.8127,-96.2504
13:55:09.934,-62.8127,-102.2504
13:55:09.944,-67.9378,-107.8754
13:55:09.954,-71.8128,-112.4379
13:55:09.965,-75.0628,-116.5629
13:55:09.973,-76.9378,-119.813
13:55:09.983,-77.6878,-121.1255
13:55:09.995,-78.7503,-124.0005
13:55:10.004,-79.5003,-125.2505
13:55:10.015,-79.6878,-127.313
13:55:10.025,-81.3128,-129.313
13:55:10.034,-82.6878,-130.5005
13:55:10.064,-84.1878,-132.438
13:55:10.066,-84.5628,-134.063
13:55:10.068,-83.7503,-133.688
13:55:10.073,-83.3753,-133.5005
13:55:10.084,-81.3128,-132.438
13:55:10.094,-77.2503,-126.688
13:55:10.106,-69.1878,-117.1879
13:55:10.113,-56.6877,-100.7504
13:55:10.125,-44.8127,-81.5628
13:55:10.134,-31.4376,-62.0002
13:55:10.144,-18.5001,-40.5002
13:55:10.153,-7.8125,-20.3751
13:55:10.164,2.6875,-3.6875
13:55:10.174,11.5,14.0001
13:55:10.183,17.5001,27.1251
13:55:10.197,23.0001,38.5001
13:55:10.203,24.8126,48.0627
13:55:10.213,27.3751,54.0002
13:55:10.223,28.3126,60.1877
13:55:10.233,29.6251,63.8127
13:55:10.243,30.7501,67.8128
13:55:10.253,29.9376,71.1253
13:55:10.264,30.0626,70.9378
13:55:10.274,29.2501,71.7503
13:55:10.284,27.3126,71.3753
13:55:10.298,26.6251,71.2503
13:55:10.303,26.3751,72.0003
13:55:10.313,27.3751,71.2503
13:55:10.323,28.0626,71.6878
13:55:10.333,28.2501,70.5003
13:55:10.343,28.8126,69.1878
13:55:10.355,28.2501,65.8128
13:55:10.364,26.9376,62.2502
13:55:10.373,23.3751,55.4377
13:55:10.384,18.3126,49.2502
13:55:10.393,12.375,40.2502
13:55:10.405,7.375,33.1251
13:55:10.436,4,25.8126
13:55:10.438,3.6875,22.2501
13:55:10.441,4.6875,17.6876
13:55:10.443,7.625,16.6876
13:55:10.483,10.5625,13.5001
13:55:10.483,13.1876,13.0625
13:55:10.486,15.0001,10.6875
13:55:10.487,16.4376,11.4375
13:55:10.495,18.4376,9.375
13:55:10.526,20.1251,8.25
13:55:10.529,21.6876,6.3125
13:55:10.530,25.1876,4.75
13:55:10.535,27.8751,3.125
13:55:10.555,30.1876,2.125
13:55:10.557,30.3126,-2.0625
13:55:10.565,28.5626,-5.3125
13:55:10.575,24.8126,-11.375
13:55:10.584,20.1251,-17.3751
13:55:10.594,13.4376,-23.5626
13:55:10.610,7.75,-32.1251
13:55:10.620,1.3125,-39.0001
13:55:10.628,-6.25,-48.1877
13:55:10.638,-15.6251,-55.6252
13:55:10.648,-23.6251,-64.4377
13:55:10.659,-31.8751,-72.3753
13:55:10.673,-38.2501,-79.6253
13:55:10.680,-45.7502,-86.5628
13:55:10.690,-51.0002,-92.9379
13:55:10.699,-55.7502,-98.8754
13:55:10.709,-59.6877,-102.5629
13:55:10.721,-63.6252,-108.0004
13:55:10.729,-67.5628,-111.0004
13:55:10.739,-72.2503,-114.0004
13:55:10.749,-74.5003,-117.5629
13:55:10.759,-77.3128,-120.3755
13:55:10.768,-80.0003,-123.313
13:55:10.779,-80.6878,-124.313
13:55:10.788,-80.8128,-124.438
13:55:10.800,-80.6878,-122.938
13:55:10.809,-77.1878,-118.938
13:55:10.820,-71.3753,-109.6879
13:55:10.829,-62.5002,-95.5004
13:55:10.838,-50.3752,-75.7503
13:55:10.849,-37.5001,-55.0627
13:55:10.859,-22.5001,-33.3126
13:55:10.869,-7.4375,-9.875
13:55:10.880,5.125,10.5625
13:55:10.889,16.3751,28.8751
13:55:10.899,26.9376,46.0627
13:55:10.908,36.2501,61.0002
13:55:10.920,43.9377,72.8128
13:55:10.929,47.2502,82.3128
13:55:10.940,47.5627,86.9378
13:55:10.948,45.8752,89.1878
13:55:10.960,42.4377,90.5003
13:55:10.968,40.3752,89.9378
13:55:10.980,39.1876,90.3128
13:55:10.990,38.3126,90.3754
13:55:11.000,37.8751,90.3754
13:55:11.008,36.0626,88.9378
13:55:11.030,35.1876,86.5628
13:55:11.036,34.8751,85.2503
13:55:11.038,32.6876,83.3753
13:55:11.053,31.0001,79.3128
13:55:11.060,26.3751,74.8128
13:55:11.069,22.7501,67.1878
13:55:11.079,18.3126,61.4377
13:55:11.089,15.3126,54.3127
13:55:11.099,13.125,49.0627
13:55:11.108,12.5,45.1877
13:55:11.119,10.375,38.9376
13:55:11.128,8.375,34.8126
13:55:11.143,5.375,29.7501
13:55:11.159,3.875,26.1876
13:55:11.161,1.125,23.1876
13:55:11.170,0.5,19.8126
13:55:11.180,0.9375,18.3751
13:55:11.188,3.75,18.7501
13:55:11.199,7.6875,17.1876
13:55:11.208,11.3125,18.3751
13:55:11.220,14.6251,17.8126
13:55:11.230,15.7501,20.1876
13:55:11.239,19.0626,19.1876
13:55:11.248,22.3751,19.0001
13:55:11.260,24.9376,16.6876
13:55:11.268,27.2501,15.6251
13:55:11.279,29.3126,12.5
13:55:11.288,31.1876,11.5
13:55:11.298,31.6876,7.875
13:55:11.309,28.3126,3.1875
13:55:11.320,23.8126,-2.125
13:55:11.346,18.8751,-10.4375
13:55:11.347,11.5,-17.8751
13:55:11.351,4.1875,-26.5001
13:55:11.360,-3.4375,-35.5626
13:55:11.370,-11.75,-44.0002
13:55:11.379,-18.8751,-52.0627
13:55:11.391,-26.7501,-59.8752
13:55:11.398,-34.7501,-67.7503
13:55:11.408,-39.6877,-75.0628
13:55:11.423,-47.1877,-81.2503
13:55:11.431,-52.8127,-88.1253
13:55:11.438,-58.3127,-95.0004
13:55:11.450,-62.1877,-100.0629
13:55:11.460,-66.8753,-104.6254
13:55:11.470,-71.5003,-108.1254
13:55:11.480,-74.5628,-110.0629
13:55:11.490,-74.3128,-111.2504
13:55:11.498,-71.4378,-104.7504
13:55:11.510,-63.0627,-94.7504
13:55:11.518,-52.1877,-77.3753
13:55:11.528,-42.1252,-58.4377
13:55:11.540,-30.5626,-39.0001
13:55:11.549,-19.8751,-19.5001
13:55:11.560,-10.6875,-1.75
13:55:11.570,-1.875,16.0626
13:55:11.580,5.9375,33.4376
13:55:11.590,14.4376,46.4377
13:55:11.600,23.7501,61.8752
13:55:11.610,31.3126,75.7503
13:55:11.619,39.9377,87.5003
13:55:11.629,47.9377,99.5004
13:55:11.640,52.7502,110.0004
13:55:11.649,56.0002,115.0004
13:55:11.659,58.3752,121.188
13:55:11.669,61.3127,124.438
13:55:11.681,62.4377,127.313
13:55:11.689,61.7502,127.938
13:55:11.713,59.0002,125.938
13:55:11.717,55.2502,121.813
13:55:11.720,51.6877,116.8754
13:55:11.752,46.6252,111.6879
13:55:11.754,41.6877,104.7504
13:55:11.756,35.5626,97.3754
13:55:11.762,29.6251,88.7503
13:55:11.772,22.1876,80.1878
13:55:11.809,16.1251,71.6878
13:55:11.810,10.9375,62.6877
13:55:11.813,6.875,56.8752
13:55:11.815,5.375,50.1877
13:55:11.821,3.5,45.8127
13:55:11.845,4,42.3127
13:55:11.847,3.3125,39.0002
13:55:11.851,3.0625,36.1876
13:55:11.860,3.5625,33.1876
13:55:11.869,2.4375,31.4376
13:55:11.879,0.75,28.1876
13:55:11.888,-0.75,25.1876
13:55:11.900,-2.25,22.3126
13:55:11.908,-3.25,19.8751
13:55:11.920,-3.75,17.5001
13:55:11.930,-4.625,13.0625
13:55:11.940,-6.25,9.5
13:55:11.949,-6.8125,5.75
13:55:11.958,-8.875,0.875
13:55:11.970,-11,-2.125
13:55:11.978,-14.1876,-8.375
13:55:11.988,-16.6876,-12.8125
13:55:12.000,-18.6876,-19.0001
13:55:12.009,-21.0626,-23.7501
13:55:12.018,-24.6251,-30.9376
13:55:12.030,-28.0001,-36.9376
13:55:12.038,-31.1876,-41.9377
13:55:12.048,-33.0001,-47.6252
13:55:12.061,-36.3751,-51.3127
13:55:12.070,-38.4376,-58.0627
13:55:12.079,-41.3752,-60.8752
13:55:12.089,-44.0002,-65.7503
13:55:12.098,-47.4377,-68.6878
13:55:12.109,-51.3127,-75.0003
13:55:12.118,-53.4377,-78.6878
13:55:12.128,-52.5002,-79.3128
13:55:12.140,-55.7502,-83.1253
13:55:12.148,-61.6877,-86.9378
13:55:12.160,-69.8128,-93.5004
13:55:12.170,-7.4375,-75.3753
13:55:12.180,-50.5627,-84.6878
13:55:12.190,-66.0628,-94.7504
13:55:12.198,-76.3753,-104.9379
13:55:12.211,-72.5003,-102.3129
13:55:12.219,-66.1253,-98.6254
13:55:12.228,-57.8127,-90.3753
13:55:12.240,-50.3752,-79.4378
13:55:12.249,-40.8127,-63.0627
13:55:12.259,-25.9376,-42.0627
13:55:12.269,-13.6876,-21.8751
13:55:12.278,-2.75,-2.625
13:55:12.290,6.25,15.5626
13:55:12.298,12.5,30.1876
13:55:12.310,16.9376,43.6877
13:55:12.319,19.8751,56.6877
13:55:12.333,24.7501,66.2503
13:55:12.349,77.7503,110.1254
13:55:12.351,60.8752,103.3129
13:55:12.360,54.8752,102.1879
13:55:12.369,57.8127,108.9379
13:55:12.380,57.6877,112.2504
13:55:12.390,60.6877,116.1879
13:55:12.398,68.5628,121.0005
13:55:12.410,77.4378,128.063
13:55:12.419,81.8753,132.7505
13:55:12.438,84.1253,132.063
13:55:12.441,84.3753,131.7505
13:55:12.456,84.1253,129.938
13:55:12.460,85.0003,128.2505
13:55:12.469,84.3128,125.563
13:55:12.478,82.4378,120.8755
13:55:12.490,78.5003,114.5629
13:55:12.498,74.0003,107.6254
13:55:12.510,70.0628,99.6879
13:55:12.520,66.1253,91.5629
13:55:12.529,63.0627,85.2503
13:55:12.540,60.5627,78.5628
13:55:12.549,57.6877,73.1253
13:55:12.559,57.6877,68.9378
13:55:12.568,57.0002,66.1878
13:55:12.580,58.1877,63.0002
13:55:12.596,59.1252,61.1252
13:55:12.600,60.0002,59.5002
13:55:12.625,61.2502,58.3127
13:55:12.627,62.8127,56.5627
13:55:12.629,63.5627,54.6877
13:55:12.638,63.8127,52.6877
13:55:12.650,63.0627,50.2502
13:55:12.660,63.4377,47.9377
13:55:12.669,61.9377,45.1877
13:55:12.680,60.2502,41.7502
13:55:12.689,58.9377,37.3751
13:55:12.699,56.2502,34.2501
13:55:12.708,54.2502,29.3126
13:55:12.718,51.5002,25.9376
13:55:12.728,49.8752,20.6876
13:55:12.739,47.0627,16.1251
13:55:12.748,44.8127,12.1875
13:55:12.759,42.7502,6.625
13:55:12.768,40.3752,3.5625
13:55:12.780,37.8126,-1.875
13:55:12.789,35.5626,-6
13:55:12.800,32.7501,-11.0625
13:55:12.809,30.3751,-14.5626
13:55:12.820,27.7501,-19.9376
13:55:12.829,25.5626,-23.1876
13:55:12.839,23.3126,-28.1251
13:55:12.850,21.2501,-30.1876
13:55:12.860,18.6876,-35.2501
13:55:12.869,16.5626,-38.0626
13:55:12.880,14.3751,-42.3127
13:55:12.889,12.3125,-45.3127
13:55:12.899,10,-49.8127
13:55:12.910,8.3125,-52.3752
13:55:12.918,6.125,-56.1877
13:55:12.930,4.4375,-59.2502
13:55:12.938,3.1875,-61.5002
13:55:12.950,2.8125,-62.8752
13:55:12.959,4.1875,-62.1252
13:55:12.969,9.9375,-54.6877
13:55:12.979,19.4376,-41.0002
13:55:12.989,31.1251,-20.8751
13:55:13.000,43.1252,-0.9375
13:55:13.009,55.8752,20.0626
13:55:13.020,65.1253,40.5627
13:55:13.030,74.4378,56.6877
13:55:13.039,81.5628,73.2503
13:55:13.050,87.3753,84.9378
13:55:13.060,92.0629,96.9379
13:55:13.072,95.0629,105.0629
13:55:13.106,97.3754,112.6879
13:55:13.109,99.4379,118.1255
13:55:13.111,100.6879,123.0005
13:55:13.114,100.8754,125.813
13:55:13.118,101.0004,127.313
13:55:13.156,100.3754,127.7505
13:55:13.159,99.9379,128.063
13:55:13.161,98.1254,126.6255
13:55:13.163,96.8129,126.313
13:55:13.170,95.9379,123.438
13:55:13.198,93.4379,121.3755
13:55:13.201,91.3129,119.438
13:55:13.206,89.3128,114.2504
13:55:13.214,85.6878,109.2504
13:55:13.224,81.7503,104.2504
13:55:13.233,77.7503,97.1254
13:55:13.245,73.5003,89.3753
13:55:13.254,68.6878,80.3753
13:55:13.264,63.7502,73.9378
13:55:13.274,59.5627,66.5003
13:55:13.284,55.8752,59.5627
13:55:13.293,53.0002,53.9377
13:55:13.305,50.5627,49.2502
13:55:13.316,48.1877,44.6877
13:55:13.324,45.9377,40.1877
13:55:13.333,44.3752,37.6251
13:55:13.346,41.8127,33.5626
13:55:13.353,40.1877,30.6251
13:55:13.365,38.3751,26.8126
13:55:13.374,36.8751,24.7501
13:55:13.383,34.7501,20.3126
13:55:13.395,33.0001,18.6876
13:55:13.405,30.3751,13.6251
13:55:13.414,28.4376,10.8125
13:55:13.424,25.3751,6
13:55:13.435,23.1251,2.25
13:55:13.445,20.6251,-2.0625
13:55:13.454,16.9376,-6.0625
13:55:13.465,14.5626,-11.125
13:55:13.474,11.9375,-14.5626
13:55:13.484,9.25,-20.2501
13:55:13.493,6.0625,-24.3126
13:55:13.505,3.5,-29.4376
13:55:13.514,0.625,-34.0626
13:55:13.524,-1.75,-38.4376
13:55:13.536,-5.375,-42.5002
13:55:13.544,-6.8125,-47.1877
13:55:13.554,-10.25,-51.3127
13:55:13.564,-13.3126,-55.3752
13:55:13.575,-15.6876,-60.1877
13:55:13.585,-17.4376,-64.2502
13:55:13.594,-19.6251,-67.0003
13:55:13.605,-20.8751,-71.2503
13:55:13.615,-23.6876,-74.0628
13:55:13.630,-25.3751,-77.1878
13:55:13.637,-27.1251,-80.5628
13:55:13.645,-28.6876,-82.9378
13:55:13.661,-31.0001,-85.7503
13:55:13.668,-32.8126,-88.2503
13:55:13.674,-34.7501,-91.6254
13:55:13.683,-36.1251,-94.1254
13:55:13.694,-37.7501,-96.3129
13:55:13.705,-38.5626,-97.2504
13:55:13.719,-39.3127,-100.5004
13:55:13.735,-39.3127,-99.9379
13:55:13.738,-36.5626,-97.3129
13:55:13.747,-29.3751,-87.6878
13:55:13.755,-17.8126,-70.2503
13:55:13.770,-6.75,-51.3127
13:55:13.778,5.375,-30.5626
13:55:13.785,16.0001,-10.6875
13:55:13.794,26.5626,8.125
13:55:13.804,34.5001,25.1251
13:55:13.814,41.2502,38.5001
13:55:13.824,47.0627,51.9377
13:55:13.835,51.6877,60.8752
13:55:13.844,56.3127,69.5003
13:55:13.855,57.3752,75.3753
13:55:13.863,60.0627,79.6253
13:55:13.874,61.3127,84.4378
13:55:13.904,61.6877,85.0003
13:55:13.906,61.5002,86.8753
13:55:13.908,61.1252,86.1878
13:55:13.915,60.7502,86.0003
13:55:13.924,58.9377,85.7503
13:55:13.934,58.1252,83.9378
13:55:13.945,55.8752,82.6253
13:55:13.954,54.1252,78.5628
13:55:13.964,51.3127,76.2503
13:55:13.974,48.9377,71.3753
13:55:13.983,45.1877,66.8128
13:55:13.995,41.5002,60.2502
13:55:14.004,36.7501,53.1877
13:55:14.015,32.3126,47.4377
13:55:14.024,28.8126,39.6877
13:55:14.034,24.9376,33.8751
13:55:14.044,22.2501,28.8751
13:55:14.054,19.3751,24.2501
13:55:14.064,16.6876,20.1251
13:55:14.073,15.2501,16.4376
13:55:14.085,13.1251,13.8751
13:55:14.098,12.25,12.0625
13:55:14.104,10.625,9
13:55:14.115,9.4375,7.1875
13:55:14.125,8.75,5.75
13:55:14.134,6.8125,4.1875
13:55:14.145,6,2.5
13:55:14.155,3.6875,-0.6875
13:55:14.164,2.375,-3.1875
13:55:14.175,0.25,-6.75
13:55:14.185,-2.375,-10.4375
13:55:14.195,-4.75,-13.3751
13:55:14.204,-7.375,-18.1251
13:55:14.214,-9.6875,-20.6251
13:55:14.225,-11.875,-25.5626
13:55:14.234,-14.5626,-29.3751
13:55:14.245,-16.8751,-34.1876
13:55:14.255,-19.0626,-38.0001
13:55:14.264,-21.4376,-41.5002
13:55:14.278,-23.9376,-45.4377
13:55:14.284,-26.6251,-49.5002
13:55:14.295,-29.2501,-53.0002
13:55:14.304,-31.1876,-57.3127
13:55:14.314,-32.8126,-60.3752
13:55:14.325,-35.1251,-63.6252
13:55:14.334,-37.0626,-66.4378
13:55:14.345,-39.1252,-71.5003
13:55:14.354,-39.8752,-73.1878
13:55:14.365,-42.0002,-75.2503
13:55:14.375,-42.8752,-79.1253
13:55:14.385,-43.8127,-81.6253
13:55:14.394,-45.5002,-83.6878
13:55:14.403,-46.8752,-87.7503
13:55:14.414,-47.4377,-89.6253
13:55:14.425,-49.2502,-90.6253
13:55:14.433,-49.0627,-93.4379
13:55:14.444,-47.8127,-90.8754
13:55:14.455,-43.3127,-86.7503
13:55:14.465,-34.3751,-74.9378
13:55:14.474,-24.6251,-57.8752
13:55:14.485,-12.9375,-39.1251
13:55:14.494,-1.8125,-19.6876
13:55:14.504,9.1875,-1
13:55:14.514,18.9376,18.0626
13:55:14.524,27.1251,33.1251
13:55:14.535,34.6876,47.5627
13:55:14.544,39.6877,61.0002
13:55:14.554,44.1877,69.5003
13:55:14.564,47.7502,77.7503
13:55:14.575,50.1252,84.3128
13:55:14.585,52.2502,88.4378
13:55:14.594,53.2502,92.7504
13:55:14.604,53.4377,93.4379
13:55:14.620,53.6252,95.7504
13:55:14.629,53.0627,94.6879
13:55:14.639,52.7502,95.5629
13:55:14.666,51.8752,95.3754
13:55:14.673,51.8127,92.6254
13:55:14.673,50.2502,91.6254
13:55:14.703,48.5627,89.7503
13:55:14.705,46.8752,86.1878
13:55:14.708,44.4377,81.8753
13:55:14.710,41.0002,76.8753
13:55:14.750,37.5626,70.0003
13:55:14.751,33.3751,63.2502
13:55:14.754,29.8126,56.6252
13:55:14.760,26.3751,49.4377
13:55:14.762,23.5626,43.9377
13:55:14.782,21.3751,38.1876
13:55:14.785,17.6876,33.0001
13:55:14.790,16.4376,27.7501
13:55:14.800,14.5626,25.4376
13:55:14.810,13.2501,21.8126
13:55:14.819,12.75,19.5001
13:55:14.830,11.0625,17.1876
13:55:14.839,9.625,14.6876
13:55:14.849,9.25,12.9375
13:55:14.859,6.9375,10.125
13:55:14.870,6.125,7.25
13:55:14.879,3.6875,3.6875
13:55:14.890,2.3125,1.25
13:55:14.900,0.875,-3.0625
13:55:14.909,-1.3125,-5.9375
13:55:14.919,-3.125,-9.3125
13:55:14.930,-5.625,-15.0001
13:55:14.945,-7.625,-17.5626
13:55:14.961,-9.1875,-22.1876
13:55:14.963,-11.9375,-27.0626
13:55:14.978,-13.6876,-31.0626
13:55:14.981,-16.6251,-34.3126
13:55:14.996,-18.1876,-38.8751
13:55:15.001,-21.2501,-43.1252
13:55:15.010,-23.0626,-46.9377
13:55:15.019,-26.0626,-51.1877
13:55:15.030,-28.1251,-55.8127
13:55:15.040,-30.0626,-59.9377
13:55:15.054,-33.3126,-63.2502
13:55:15.063,-34.5626,-67.8753
13:55:15.069,-36.6251,-69.3128
13:55:15.086,-38.3751,-73.7503
13:55:15.088,-39.7502,-76.3753
13:55:15.099,-42.0002,-78.8128
13:55:15.110,-43.3127,-82.5628
13:55:15.119,-44.5002,-84.1253
13:55:15.130,-46.1877,-87.6878
13:55:15.139,-46.8127,-89.1878
13:55:15.150,-48.8127,-92.6879
13:55:15.159,-49.3752,-93.7504
13:55:15.186,-51.4377,-95.1879
13:55:15.187,-52.5627,-99.1879
13:55:15.190,-53.1252,-101.1879
13:55:15.201,-55.5627,-103.1879
13:55:15.211,-54.0627,-104.8129
13:55:15.228,-53.3752,-102.5629
13:55:15.230,-47.2502,-95.8754
13:55:15.240,-38.6251,-82.5003
13:55:15.249,-26.1876,-64.0002
13:55:15.260,-14.8126,-43.1252
13:55:15.270,-1.875,-21.7501
13:55:15.280,9.0625,-0.9375
13:55:15.291,19.7501,18.4376
13:55:15.300,28.5626,36.6251
13:55:15.310,36.6876,51.9377
13:55:15.320,43.5627,66.1253
13:55:15.329,48.5002,78.9378
13:55:15.340,53.4377,87.0628
13:55:15.349,56.7502,95.6879
13:55:15.360,58.0002,101.3129
13:55:15.369,60.5627,105.7504
13:55:15.379,62.0627,109.8129
13:55:15.390,61.7502,111.5629
13:55:15.400,62.0002,112.3754
13:55:15.409,61.2502,113.3754
13:55:15.420,61.0002,113.5004
13:55:15.430,61.1877,112.5629
13:55:15.438,59.9377,112.3129
13:55:15.449,58.1877,108.8129
13:55:15.460,55.9377,106.6254
13:55:15.469,53.5627,103.2504
13:55:15.479,50.0627,97.6879
13:55:15.490,45.7502,91.4379
13:55:15.500,41.6252,84.7503
13:55:15.510,37.3126,76.6253
13:55:15.520,32.7501,70.2503
13:55:15.530,30.0001,62.1877
13:55:15.540,27.3751,56.3752
13:55:15.557,25.0001,51.0627
13:55:15.560,22.8751,46.7502
13:55:15.570,21.6251,43.1877
13:55:15.580,19.6251,39.1877
13:55:15.590,17.5001,35.6876
13:55:15.600,15.8126,32.1251
13:55:15.609,15.3126,29.7501
13:55:15.620,13.0625,27.1251
13:55:15.629,12.3125,23.8751
13:55:15.640,10.3125,21.1251
13:55:15.650,9.3125,18.6251
13:55:15.660,7.625,15.8126
13:55:15.670,6.4375,12.875
13:55:15.680,4.5,9.5
13:55:15.689,3.75,6.625
13:55:15.700,2.4375,4.625
13:55:15.709,2.125,2.125
13:55:15.720,0.0625,-1.5625
13:55:15.730,-2.125,-5.75
13:55:15.740,-4.8125,-10.4375
13:55:15.749,-7.1875,-15.9376
13:55:15.760,-9.8125,-21.3126
13:55:15.770,-12.1875,-26.6876
13:55:15.781,-16.4376,-31.6251
13:55:15.789,-18.8126,-37.7501
13:55:15.799,-22.4376,-42.1252
13:55:15.810,-25.1251,-46.1252
13:55:15.820,-27.5626,-51.0002
13:55:15.830,-30.0001,-55.2502
13:55:15.840,-32.1876,-59.2502
13:55:15.849,-34.1876,-63.8752
13:55:15.860,-35.0001,-67.1878
13:55:15.870,-36.8751,-71.3128
13:55:15.880,-37.4376,-74.0628
13:55:15.889,-38.8126,-77.1878
13:55:15.899,-39.2501,-79.3753
13:55:15.909,-40.5002,-79.6253
13:55:15.919,-41.4377,-84.0003
13:55:15.929,-41.9377,-85.5003
13:55:15.940,-44.3127,-87.9378
13:55:15.949,-45.6877,-90.3754
13:55:15.960,-47.0002,-91.6254
13:55:15.976,-49.1252,-92.8754
13:55:15.980,-50.1252,-95.6254
13:55:15.990,-50.8127,-97.6879
13:55:16.000,-51.1252,-98.3129
13:55:16.010,-52.0002,-101.4379
13:55:16.020,-52.3127,-102.5004
13:55:16.030,-53.3127,-104.8754
13:55:16.039,-52.2502,-104.7504
13:55:16.050,-48.7502,-98.8754
13:55:16.060,-39.1877,-87.6253
13:55:16.084,-24.8126,-66.6253
13:55:16.086,-9.75,-43.4377
13:55:16.096,5.5,-19.2501
13:55:16.100,18.5001,4.9375
13:55:16.138,30.3126,28.8751
13:55:16.141,41.6252,49.0627
13:55:16.142,51.8752,68.5003
13:55:16.149,59.7502,85.6878
13:55:16.151,66.1878,98.8129
13:55:16.162,70.5003,111.1254
13:55:16.194,73.2503,118.063
13:55:16.198,75.4378,125.313
13:55:16.200,75.4378,130.438
13:55:16.202,76.6253,132.063
13:55:16.210,77.2503,134.438
13:55:16.220,75.8753,134.438
13:55:16.231,74.9378,133.7505
13:55:16.239,74.4378,133.438
13:55:16.249,72.6253,130.188
13:55:16.264,71.1878,129.438
13:55:16.272,68.8128,125.1255
13:55:16.279,66.4378,121.6255
13:55:16.295,63.2502,116.1254
13:55:16.303,58.7502,111.1879
13:55:16.312,55.0627,104.3754
13:55:16.321,50.2502,95.7504
13:55:16.329,44.6252,87.4378
13:55:16.340,39.6252,79.0628
13:55:16.351,34.5626,69.9378
13:55:16.369,30.2501,62.3752
13:55:16.372,25.5001,54.3752
13:55:16.382,21.9376,47.7502
13:55:16.389,19.2501,42.8752
13:55:16.405,15.8126,38.1876
13:55:16.412,14.0626,34.5001
13:55:16.420,11.75,31.3126
13:55:16.430,9.8125,28.1876
13:55:16.440,9.0625,25.2501
13:55:16.465,7.8125,21.8126
13:55:16.467,6,19.1251
13:55:16.471,4.3125,16.3751
13:55:16.482,3.0625,12.0625
13:55:16.489,1.4375,10
13:55:16.500,0.25,5.625
13:55:16.509,-1.3125,3.25
13:55:16.520,-1.875,-0.0625
13:55:16.530,-2.6875,-3.875
13:55:16.540,-4,-7.3125
13:55:16.549,-5.3125,-11.1875
13:55:16.560,-7.625,-14.8126
13:55:16.569,-9.4375,-18.6251
13:55:16.579,-11.4375,-23.3751
13:55:16.590,-14.6251,-27.8751
13:55:16.599,-16.9376,-33.1876
13:55:16.609,-18.8126,-37.7501
13:55:16.620,-20.3751,-41.2502
13:55:16.630,-22.6251,-46.5002
13:55:16.640,-24.5626,-49.6877
13:55:16.650,-26.1251,-55.5002
13:55:16.660,-28.1876,-58.8752
13:55:16.672,-29.7501,-63.5627
13:55:16.680,-31.5626,-65.5627
13:55:16.689,-33.1251,-70.3128
13:55:16.700,-34.5001,-73.3128
13:55:16.710,-36.8126,-76.1878
13:55:16.725,-38.5626,-80.8128
13:55:16.729,-40.6877,-83.2503
13:55:16.741,-43.0627,-86.7503
13:55:16.750,-44.8127,-90.9379
13:55:16.761,-47.2502,-93.4379
13:55:16.770,-49.1252,-96.6879
13:55:16.780,-50.5627,-99.3129
13:55:16.790,-53.3127,-100.7504
13:55:16.800,-54.6877,-104.7504
13:55:16.810,-56.0627,-106.3129
13:55:16.820,-57.7502,-109.2504
13:55:16.829,-58.2502,-110.8754
13:55:16.840,-59.8752,-112.6254
13:55:16.850,-61.1877,-115.3754
13:55:16.860,-61.8127,-116.0629
13:55:16.869,-63.7502,-119.6255
13:55:16.879,-64.3127,-121.1255
13:55:16.890,-66.0628,-123.688
13:55:16.900,-66.1878,-125.063
13:55:16.910,-66.5003,-124.188
13:55:16.919,-63.0002,-121.8755
13:55:16.929,-56.2502,-110.6879
13:55:16.941,-42.9377,-92.4379
13:55:16.950,-28.1251,-68.6878
13:55:16.960,-14.0626,-42.6877
13:55:16.969,0.8125,-17.8751
13:55:16.979,15.1251,8.4375
13:55:16.990,26.7501,31.0626
13:55:17.000,38.4376,53.1877
13:55:17.009,46.6252,71.6253
13:55:17.020,55.0627,87.6253
13:55:17.030,60.8127,100.4379
13:55:17.040,65.1877,110.5004
13:55:17.050,67.5003,119.063
13:55:17.059,70.0003,123.2505
13:55:17.070,70.1253,127.6255
13:55:17.079,70.8128,127.7505
13:55:17.089,71.1253,128.8755
13:55:17.101,69.0003,127.8755
13:55:17.109,67.8753,126.6255
13:55:17.119,66.9378,125.3755
13:55:17.130,65.8128,122.813
13:55:17.139,65.0627,121.1255
13:55:17.149,64.1252,118.313
13:55:17.159,61.5627,113.8754
13:55:17.170,59.9377,108.5004
13:55:17.180,55.5627,102.4379
13:55:17.191,52.5002,94.1879
13:55:17.200,47.3127,86.1253
13:55:17.209,43.0002,77.7503
13:55:17.219,38.2501,70.1878
13:55:17.230,34.3751,62.6252
13:55:17.240,30.6251,55.0627
13:55:17.250,27.6876,50.3127
13:55:17.260,25.8751,45.5627
13:55:17.269,24.5001,42.1252
13:55:17.280,23.7501,40.0002
13:55:17.290,23.3126,36.5001
13:55:17.300,22.3751,34.3751
13:55:17.309,21.7501,32.3751
13:55:17.319,20.1876,30.3751
13:55:17.330,19.0626,28.0001
13:55:17.340,17.3751,25.1876
13:55:17.350,15.5626,22.5626
13:55:17.359,14.0626,19.1876
13:55:17.369,11.8125,14.5626
13:55:17.379,9.5,11.0625
13:55:17.389,7.75,7.6875
13:55:17.400,4.625,3.4375
13:55:17.409,1.6875,-1.4375
13:55:17.419,-1.375,-5.75
13:55:17.430,-4.125,-11.75
13:55:17.439,-7.25,-17.0626
13:55:17.449,-9.875,-22.1251
13:55:17.459,-13.5001,-26.5001
13:55:17.477,-16.1251,-31.8126
13:55:17.479,-19.0001,-37.3126
13:55:17.520,-21.8751,-41.7502
13:55:17.522,-24.1876,-45.8752
13:55:17.524,-27.0001,-51.4377
13:55:17.528,-29.1251,-55.0002
13:55:17.533,-30.6251,-59.3127
13:55:17.542,-33.0001,-62.5002
13:55:17.580,-35.1251,-66.3128
13:55:17.609,-37.4376,-70.1253
13:55:17.625,-39.2502,-73.6878
13:55:17.639,-39.7502,-76.1253
13:55:17.641,-41.5627,-78.2503
13:55:17.655,-42.6877,-82.3753
13:55:17.655,-43.1877,-84.7503
13:55:17.659,-45.3752,-87.3753
13:55:17.661,-46.5002,-90.3129
13:55:17.670,-48.3127,-92.4379
13:55:17.687,-49.5002,-96.4379
13:55:17.689,-50.5002,-98.2504
13:55:17.704,-51.8752,-99.2504
13:55:17.719,-50.7502,-99.7504
13:55:17.748,-46.0002,-92.5004
13:55:17.763,-36.0001,-79.5003
13:55:17.769,-22.3751,-58.4377
13:55:17.769,-8.5,-34.3751
13:55:17.774,5.9375,-10.1875
13:55:17.774,20.0626,16.4376
13:55:17.782,33.0626,40.6877
13:55:17.790,44.5627,65.0002
13:55:17.800,54.9377,84.9378
13:55:17.809,81.5628,143.2505
13:55:17.820,83.7503,148.5631
13:55:17.830,84.1878,152.0006
13:55:17.839,84.1253,152.1256
13:55:17.849,82.5628,151.1881
13:55:17.860,80.8128,148.4381
13:55:17.870,78.2503,145.5005
13:55:17.880,76.3753,141.8755
13:55:17.889,73.0003,137.438
13:55:17.900,70.9378,132.438
13:55:17.910,66.8753,126.563
13:55:17.920,63.4377,120.6255
13:55:17.930,58.3752,112.8129
13:55:17.939,53.1252,104.1254
13:55:17.952,47.2502,94.6879
13:55:17.959,42.1252,84.5628
13:55:17.970,36.8751,74.3128
13:55:17.980,32.6876,65.8753
13:55:17.996,27.9376,57.6252
13:55:18.000,25.1251,51.6877
13:55:18.010,21.1876,45.3127
13:55:18.020,18.4376,40.8752
13:55:18.029,17.2501,36.3126
13:55:18.040,15.3751,32.3126
13:55:18.049,14.3751,29.8751
13:55:18.060,12.8125,26.9376
13:55:18.070,12.125,25.3126
13:55:18.081,11.75,23.3751
13:55:18.090,10.3125,20.7501
13:55:18.099,10,19.3751
13:55:18.111,8.5625,17.0626
13:55:18.120,7.125,14.8751
13:55:18.129,7.0625,11.375
13:55:18.139,5.6875,8.8125
13:55:18.150,4.9375,5.5625
13:55:18.161,4.1875,2.375
13:55:18.170,2.375,-2.0625
13:55:18.179,0.8125,-6.3125
13:55:18.189,-1.8125,-11.25
13:55:18.200,-2.9375,-15.0001
13:55:18.210,-6.0625,-20.3126
13:55:18.219,-9.75,-25.0626
13:55:18.230,-12.25,-31.1876
13:55:18.239,-15.0626,-35.1876
13:55:18.250,-16.8751,-40.7502
13:55:18.260,-19.1876,-45.8127
13:55:18.270,-21.8751,-50.1877
13:55:18.280,-23.6251,-54.5627
13:55:18.290,-25.3751,-59.4377
13:55:18.300,-28.1876,-63.6252
13:55:18.310,-30.3751,-68.3128
13:55:18.320,-33.0626,-72.3128
13:55:18.329,-35.9376,-76.7503
13:55:18.340,-38.2501,-80.8128
13:55:18.349,-41.0002,-84.2503
13:55:18.360,-42.6877,-87.8753
13:55:18.371,-44.3127,-89.9378
13:55:18.380,-46.5627,-94.1254
13:55:18.389,-47.3127,-96.8129
13:55:18.404,-49.1877,-98.7504
13:55:18.410,-50.5002,-101.1879
13:55:18.421,-50.5627,-104.0004
13:55:18.429,-52.9377,-106.7504
13:55:18.439,-53.6877,-109.9379
13:55:18.449,-55.4377,-112.3129
13:55:18.460,-55.9377,-114.6879
13:55:18.470,-54.9377,-113.3754
13:55:18.479,-50.2502,-109.0004
13:55:18.489,-39.6877,-94.1254
13:55:18.499,-27.1251,-72.0003
13:55:18.510,-11.25,-47.3752
13:55:18.520,5.3125,-19.1876
13:55:18.529,21.6876,9.4375
13:55:18.540,36.5626,38.8751
13:55:18.550,50.8127,64.6877
13:55:18.560,63.3127,89.5628
13:55:18.570,72.2503,110.2504
13:55:18.579,80.4378,126.813
13:55:18.589,86.0003,140.7505
13:55:18.600,88.8128,148.8756
13:55:18.610,90.3753,156.5006
13:55:18.620,90.3753,160.0631
13:55:18.629,89.6878,162.3131
13:55:18.639,88.5628,162.5631
13:55:18.654,88.1878,162.8131
13:55:18.665,86.3128,163.1256
13:55:18.685,84.3128,160.1881
13:55:18.687,81.8128,156.4381
13:55:18.695,78.3128,151.4381
13:55:18.723,74.3128,146.063
13:55:18.725,70.9378,139.438
13:55:18.728,66.5003,132.0005
13:55:18.759,61.5627,124.2505
13:55:18.762,56.1877,114.5004
13:55:18.764,50.4377,104.2504
13:55:18.767,44.5627,93.7504
13:55:18.808,38.0626,83.2503
13:55:18.811,33.1876,73.2503
13:55:18.813,27.3751,64.0627
13:55:18.822,23.5626,55.3752
13:55:18.822,18.6251,45.8752
13:55:18.824,15.5001,40.5627
13:55:18.834,13.0625,34.6251
13:55:18.844,11.75,31.3751
13:55:18.855,11.1875,28.0626
13:55:18.865,10.875,25.5626
13:55:18.875,9.4375,23.8126
13:55:18.885,8.4375,21.8126
13:55:18.894,7.9375,18.7501
13:55:18.904,6.625,17.4376
13:55:18.922,4.9375,14.6251
13:55:18.928,3.25,11.375
13:55:18.936,1.8125,7.4375
13:55:18.944,0.0625,3.3125
13:55:18.959,-2.6875,-0.25
13:55:18.968,-4.6875,-4.1875
13:55:18.977,-6.5625,-8
13:55:18.985,-9.6875,-13.1876
13:55:18.994,-12.5,-18.1876
13:55:19.024,-15.0001,-23.6876
13:55:19.040,-19.0001,-29.5001
13:55:19.053,-21.5626,-34.6876
13:55:19.056,-24.5001,-41.0627
13:55:19.071,-28.1251,-47.8127
13:55:19.086,-30.3126,-52.5627
13:55:19.087,-33.0626,-58.4377
13:55:19.087,-36.0001,-63.1252
13:55:19.088,-39.1252,-69.0628
13:55:19.094,-41.1877,-73.6878
13:55:19.106,-43.4377,-79.0628
13:55:19.115,-45.3752,-82.4378
13:55:19.125,-48.0002,-87.3753
13:55:19.134,-49.5627,-90.5004
13:55:19.145,-51.5627,-95.5629
13:55:19.154,-52.3127,-97.9379
13:55:19.164,-54.0627,-100.3754
13:55:19.175,-54.1877,-105.0004
13:55:19.185,-54.5002,-106.0004
13:55:19.196,-54.2502,-109.1254
13:55:19.204,-54.5627,-109.6879
13:55:19.215,-53.6877,-112.5004
13:55:19.226,-54.1877,-113.3129
13:55:19.235,-53.4377,-115.1879
13:55:19.245,-53.8127,-116.5004
13:55:19.254,-54.9377,-117.5629
13:55:19.265,-56.0002,-120.063
13:55:19.274,-56.3127,-120.063
13:55:19.285,-57.2502,-123.563
13:55:19.294,-58.4377,-123.938
13:55:19.304,-60.0002,-127.2505
13:55:19.314,-60.3127,-128.563
13:55:19.325,-61.2502,-128.188
13:55:19.334,-58.2502,-127.563
13:55:19.348,-52.6877,-117.7505
13:55:19.356,-39.8127,-101.0004
13:55:19.365,-25.9376,-76.1878
13:55:19.375,-10.125,-50.5002
13:55:19.385,5.5625,-21.3126
13:55:19.395,21.2501,6.3125
13:55:19.405,35.9376,34.3126
13:55:19.415,49.3752,60.6877
13:55:19.425,60.8752,82.3753
13:55:19.435,70.8128,102.6254
13:55:19.444,77.3128,120.063
13:55:19.454,83.0628,131.5005
13:55:19.464,88.2503,141.688
13:55:19.476,90.0628,148.5006
13:55:19.485,92.1879,152.9381
13:55:19.495,91.8129,156.0631
13:55:19.504,92.4379,156.5631
13:55:19.515,90.6254,156.1256
13:55:19.524,89.3128,154.6256
13:55:19.535,87.4378,152.0006
13:55:19.545,85.3753,148.8131
13:55:19.556,83.1878,145.188
13:55:19.568,80.5003,140.7505
13:55:19.575,77.6253,137.5005
13:55:19.585,73.7503,131.8755
13:55:19.595,70.2503,125.1255
13:55:19.605,65.6877,117.0629
13:55:19.615,60.6252,109.0629
13:55:19.625,55.4377,99.4379
13:55:19.634,50.9377,90.3753
13:55:19.645,46.5002,82.0628
13:55:19.655,41.6252,74.0628
13:55:19.665,39.0001,66.8753
13:55:19.676,34.3751,60.8127
13:55:19.685,32.0001,55.6877
13:55:19.695,29.1876,49.6252
13:55:19.705,26.8126,45.7502
13:55:19.715,25.1876,42.6877
13:55:19.725,23.8126,39.1876
13:55:19.734,22.6876,36.8751
13:55:19.744,20.7501,33.5626
13:55:19.754,19.3751,30.7501
13:55:19.766,17.4376,27.3751
13:55:19.775,15.8126,24.2501
13:55:19.787,13.6251,20.6876
13:55:19.795,11.4375,16.5626
13:55:19.806,9.1875,13.5626
13:55:19.814,7.375,8.0625
13:55:19.824,4.125,4.25
13:55:19.834,1.9375,-2.0625
13:55:19.844,-1.6875,-6.9375
13:55:19.855,-4.5,-11.75
13:55:19.864,-7.1875,-17.7501
13:55:19.875,-10.125,-22.6876
13:55:19.885,-12.875,-28.5626
13:55:19.894,-15.6876,-33.1876
13:55:19.904,-17.9376,-38.4376
13:55:19.915,-21.1251,-43.0627
13:55:19.925,-23.8751,-47.9377
13:55:19.935,-25.8126,-54.1252
13:55:19.947,-29.0626,-58.8752
13:55:19.956,-31.3751,-62.7502
13:55:19.965,-33.7501,-68.0003
13:55:19.977,-35.6251,-70.9378
13:55:19.985,-38.1251,-76.3128
13:55:19.994,-40.3752,-79.3753
13:55:20.004,-42.1252,-84.4378
13:55:20.014,-44.3127,-87.2503
13:55:20.025,-45.8127,-90.0628
13:55:20.035,-46.8752,-93.3754
13:55:20.045,-48.5002,-95.2504
13:55:20.055,-49.6252,-98.9379
13:55:20.064,-49.6877,-100.4379
13:55:20.077,-51.6252,-102.5629
13:55:20.085,-51.9377,-104.6254
13:55:20.095,-53.8127,-105.8754
13:55:20.105,-54.5002,-108.5004
13:55:20.139,-54.5002,-110.6254
13:55:20.140,-56.5002,-110.5004
13:55:20.142,-57.3752,-113.7504
13:55:20.145,-57.9377,-115.3129
13:55:20.179,-59.3127,-117.7505
13:55:20.182,-60.4377,-118.813
13:55:20.182,-61.6252,-121.3755
13:55:20.185,-62.6877,-123.438
13:55:20.217,-63.9377,-124.5005
13:55:20.219,-62.4377,-125.0005
13:55:20.221,-57.5627,-118.563
13:55:20.259,-48.5002,-106.1879
13:55:20.260,-35.2501,-85.5628
13:55:20.275,-21.3126,-60.1252
13:55:20.277,-5.25,-34.0001
13:55:20.306,11.1875,-5.8125
13:55:20.306,25.0626,21.9376
13:55:20.306,39.8752,48.5627
13:55:20.324,51.2502,73.0003
13:55:20.328,62.2502,94.0004
13:55:20.329,71.3753,112.9379
13:55:20.329,78.0628,127.063
13:55:20.336,83.2503,139.0005
13:55:20.353,86.1878,145.938
13:55:20.357,88.7503,152.1256
13:55:20.372,88.6253,155.3131
13:55:20.388,88.7503,156.1256
13:55:20.390,87.5628,157.3131
13:55:20.405,86.3128,154.5631
13:55:20.407,84.7503,152.4381
13:55:20.414,83.0003,150.1881
13:55:20.425,80.3753,146.688
13:55:20.434,78.2503,142.438
13:55:20.444,76.3128,139.188
13:55:20.456,73.0628,134.063
13:55:20.465,69.5628,127.7505
13:55:20.474,65.1877,120.313
13:55:20.485,60.5002,111.4379
13:55:20.496,54.9377,103.0629
13:55:20.505,49.2502,93.9379
13:55:20.515,44.8127,84.3128
13:55:20.524,40.6877,75.6878
13:55:20.535,36.5001,68.6878
13:55:20.547,32.7501,62.0627
13:55:20.554,30.0626,55.4377
13:55:20.565,27.3126,50.0002
13:55:20.574,25.0001,46.5627
13:55:20.585,23.6251,42.1877
13:55:20.594,22.3751,40.6877
13:55:20.605,20.6876,36.7501
13:55:20.615,19.1251,33.6876
13:55:20.624,16.8751,30.4376
13:55:20.634,14.6251,27.2501
13:55:20.645,11.5625,22.8126
13:55:20.655,7.0625,18.5626
13:55:20.665,3.125,13
13:55:20.674,-3.4375,6.5625
13:55:20.684,-11.25,-0.625
13:55:20.696,-18.9376,-9.9375
13:55:20.705,-26.8126,-17.2501
13:55:20.715,-33.0001,-26.6251
13:55:20.725,-40.5627,-33.2501
13:55:20.735,-48.1252,-42.9377
13:55:20.745,-58.4377,-51.3752
13:55:20.755,-69.0003,-61.9377
13:55:20.766,-82.3128,-72.4378
13:55:20.775,-93.7504,-83.0628
13:55:20.785,-106.1879,-92.3754
13:55:20.794,-114.6879,-100.5629
13:55:20.805,-118.188,-106.3129
13:55:20.815,-119.938,-109.6254
13:55:20.825,-122.063,-112.3129
13:55:20.834,-124.813,-115.5629
13:55:20.845,-123.2505,-117.0004
13:55:20.855,-124.563,-118.188
13:55:20.865,-125.813,-121.813
13:55:20.876,-126.0005,-123.3755
13:55:20.885,-127.438,-125.8755
13:55:20.896,-127.188,-130.188
13:55:20.905,-126.438,-131.688
13:55:20.914,-128.563,-135.3755
13:55:20.925,-130.313,-140.563
13:55:20.935,-131.7505,-143.813
13:55:20.945,-134.063,-147.9381
13:55:20.954,-135.188,-151.9381
13:55:20.965,-137.3755,-154.7506
13:55:20.975,-138.313,-159.9381
13:55:20.985,-137.563,-162.8756
13:55:20.994,-139.3755,-166.9381
13:55:21.005,-138.688,-171.0632
13:55:21.016,-137.5005,-172.6257
13:55:21.024,-136.2505,-176.5632
13:55:21.035,-131.563,-177.3757
13:55:21.044,-127.1255,-175.9382
13:55:21.055,-119.1255,-175.2507
13:55:21.071,-110.1254,-172.6257
13:55:21.078,-97.7504,-170.8132
13:55:21.085,-80.8128,-165.2506
13:55:21.095,-61.3127,-158.9381
13:55:21.104,-32.7501,-146.063
13:55:21.115,8.5,-121.813
13:55:21.124,118.313,-63.8127
13:55:21.135,245.6884,5.5625
13:55:21.145,304.6262,51.6877
13:55:21.156,298.7512,77.8128
13:55:21.165,303.5637,100.7504
13:55:21.175,318.5637,125.938
13:55:21.187,341.6263,149.3131
13:55:21.195,366.3139,174.6257
13:55:21.206,383.439,196.6882
13:55:21.214,392.7515,212.0008
13:55:21.224,393.6265,225.5634
13:55:21.235,381.1265,232.8759
13:55:21.245,352.5013,233.1259
13:55:21.254,294.0011,226.3759
13:55:21.264,198.3133,208.1883
13:55:21.274,76.8128,183.1882
13:55:21.287,12.5625,150.4381
13:55:21.294,-18.0626,126.6255
13:55:21.305,-40.4377,105.3129
13:55:21.314,-51.3127,95.0004
13:55:21.327,-56.3752,88.3128
13:55:21.335,-57.6877,86.1253
13:55:21.345,-58.1877,83.2503
13:55:21.355,-59.5002,79.8753
13:55:21.364,-62.0002,75.5628
13:55:21.374,-64.8752,70.9378
13:55:21.385,-67.1878,65.5627
13:55:21.395,-68.5628,59.0002
13:55:21.406,-70.8128,54.2502
13:55:21.415,-68.9378,47.8752
13:55:21.426,-69.1253,39.6252
13:55:21.434,-72.6253,29.8751
13:55:21.445,-79.1253,17.3751
13:55:21.485,-85.1253,8.5
13:55:21.487,-92.3754,-0.6875
13:55:21.490,-97.8129,-7.625
13:55:21.493,-101.1879,-11.25
13:55:21.496,-100.5629,-14.1876
13:55:21.523,-97.1879,-14.1876
13:55:21.528,-95.6254,-13.6251
13:55:21.529,-92.0004,-12
13:55:21.535,-88.6878,-10.4375
13:55:21.574,-85.8128,-9.3125
13:55:21.575,-84.8128,-8.4375
13:55:21.602,-83.7503,-9.625
13:55:21.612,-82.3753,-10.1875
13:55:21.627,-82.7503,-11.25
13:55:21.629,-82.1253,-15.3126
13:55:21.629,-83.5003,-18.5626
13:55:21.629,-84.8753,-23.3126
13:55:21.643,-86.6253,-27.3751
13:55:21.647,-88.0628,-32.9376
13:55:21.648,-90.0003,-36.7501
13:55:21.656,-90.8129,-42.4377
13:55:21.671,-91.6254,-47.1877
13:55:21.687,-93.0004,-53.4377
13:55:21.689,-91.6254,-57.2502
13:55:21.705,-91.6879,-60.8127
13:55:21.721,-91.1254,-65.6878
13:55:21.724,-91.5629,-68.8128
13:55:21.726,-92.4379,-75.5003
13:55:21.735,-94.0629,-79.3753
13:55:21.745,-96.6879,-85.3753
13:55:21.754,-99.4379,-90.8129
13:55:21.764,-101.0004,-94.6254
13:55:21.775,-102.8129,-100.6254
13:55:21.784,-103.4379,-105.8129
13:55:21.795,-105.3129,-109.3754
13:55:21.806,-106.1879,-114.1879
13:55:21.821,-110.0004,-118.5005
13:55:21.826,-112.9379,-123.813
13:55:21.835,-117.0004,-128.0005
13:55:21.845,-120.3755,-134.313
13:55:21.854,-124.8755,-138.813
13:55:21.865,-128.063,-143.8755
13:55:21.874,-131.063,-147.8756
13:55:21.884,-132.3755,-151.3131
13:55:21.895,-132.938,-153.3756
13:55:21.904,-133.2505,-155.5006
13:55:21.914,-132.1255,-155.8756
13:55:21.926,-128.8755,-149.5006
13:55:21.935,-120.5005,-139.813
13:55:21.944,-110.0629,-119.938
13:55:21.954,-95.5629,-98.0004
13:55:21.968,-80.1253,-72.0628
13:55:21.976,-63.5002,-42.1877
13:55:21.985,-46.3127,-13.4376
13:55:21.995,-28.1876,17.3751
13:55:22.005,-7.625,47.3127
13:55:22.015,11.0625,73.5628
13:55:22.024,21.7501,93.0629
13:55:22.034,25.0001,104.9379
13:55:22.044,27.0001,116.0004
13:55:22.054,24.4376,122.938
13:55:22.066,23.3751,127.563
13:55:22.075,22.3126,130.8755
13:55:22.085,20.9376,134.1255
13:55:22.095,23.4376,135.0005
13:55:22.105,28.9376,138.438
13:55:22.115,33.0001,141.563
13:55:22.125,37.2501,142.8755
13:55:22.135,39.0001,143.563
13:55:22.145,39.1876,139.688
13:55:22.154,38.2501,137.188
13:55:22.164,35.2501,131.563
13:55:22.175,31.2501,124.438
13:55:22.187,26.0626,113.9379
13:55:22.196,20.0001,104.1879
13:55:22.204,13.0625,92.6254
13:55:22.214,6.75,82.5003
13:55:22.225,1.5,72.3128
13:55:22.234,-1.75,64.3752
13:55:22.244,-4.9375,56.2502
13:55:22.254,-6.6875,51.8127
13:55:22.266,-6.625,45.8752
13:55:22.276,-6.3125,43.0627
13:55:22.285,-6.875,39.0001
13:55:22.295,-6.875,36.5001
13:55:22.304,-7.8125,32.3126
13:55:22.315,-8.0625,28.7501
13:55:22.324,-8.875,26.8126
13:55:22.335,-10.875,22.0001
13:55:22.345,-13.3751,18.0001
13:55:22.354,-14.9376,12.125
13:55:22.365,-17.6251,7.125
13:55:22.377,-18.6876,1.625
13:55:22.386,-21.5626,-2.8125
13:55:22.394,-24.0001,-9.0625
13:55:22.404,-26.7501,-16.3126
13:55:22.414,-31.8751,-23.3126
13:55:22.426,-36.8126,-31.3126
13:55:22.435,-43.1877,-39.1877
13:55:22.446,-49.2502,-48.2502
13:55:22.455,-55.0002,-56.0627
13:55:22.465,-60.3752,-64.0002
13:55:22.474,-64.8127,-70.8753
13:55:22.486,-69.2503,-77.0628
13:55:22.494,-72.2503,-82.6253
13:55:22.504,-76.1253,-86.9378
13:55:22.514,-77.8128,-90.7504
13:55:22.525,-79.3128,-94.3129
13:55:22.534,-79.7503,-95.3129
13:55:22.544,-80.5003,-98.6879
13:55:22.555,-81.3128,-100.0629
13:55:22.568,-82.0003,-99.8129
13:55:22.575,-80.5003,-100.6879
13:55:22.585,-75.2503,-97.9379
13:55:22.595,-69.4378,-95.0004
13:55:22.605,-68.0003,-99.5004
13:55:22.615,-75.9378,-106.1254
13:55:22.625,-83.5628,-110.8129
13:55:22.634,-90.6879,-116.6254
13:55:22.645,-96.8754,-121.063
13:55:22.681,-100.2504,-124.8755
13:55:22.682,-101.3129,-127.2505
13:55:22.686,-101.9379,-129.438
13:55:22.691,-101.8754,-131.1255
13:55:22.700,-100.3754,-132.688
13:55:22.710,-95.4379,-130.563
13:55:22.719,-88.8753,-125.688
13:55:22.729,-81.0628,-119.0005
13:55:22.740,-72.3753,-108.1879
13:55:22.750,-63.5002,-92.5629
13:55:22.760,-53.1877,-74.0003
13:55:22.769,-38.5626,-50.2502
13:55:22.780,-22.8751,-22.0001
13:55:22.790,-5,7.875
13:55:22.800,10.9375,39.0001
13:55:22.810,25.3126,66.6253
13:55:22.820,43.8127,104.5004
13:55:22.829,54.5002,125.188
13:55:22.839,63.1877,142.813
13:55:22.864,69.3753,154.8756
13:55:22.868,75.5003,166.9381
13:55:22.871,79.5628,176.1257
13:55:22.880,82.9378,180.0007
13:55:22.889,85.1253,183.6257
13:55:22.911,85.5003,184.8757
13:55:22.917,86.8753,184.3132
13:55:22.921,87.1253,184.0007
13:55:22.931,86.6878,180.6257
13:55:23.043,86.5003,178.8757
13:55:23.055,84.8128,173.9382
13:55:23.069,82.5628,169.3756
13:55:23.071,79.5003,162.6256
13:55:23.071,75.4378,155.5631
13:55:23.071,70.1253,145.563
13:55:23.086,65.0002,136.7505
13:55:23.088,58.8127,125.8755
13:55:23.090,53.1252,115.1254
13:55:23.096,46.7502,104.0004
13:55:23.105,39.1251,93.3754
13:55:23.115,33.5626,83.1253
13:55:23.124,27.0626,73.3753
13:55:23.135,20.2501,63.9377
13:55:23.144,13.9376,53.9377
13:55:23.156,6.875,46.5002
13:55:23.164,2.9375,40.0002
13:55:23.175,-0.1875,35.0001
13:55:23.184,-1.0625,32.1251
13:55:23.195,-2.75,29.1876
13:55:23.205,-3.25,26.9376
13:55:23.216,-4.9375,24.9376
13:55:23.225,-11.4375,10.125
13:55:23.234,-11.9375,5.4375
13:55:23.246,-16.1876,-2
13:55:23.254,-20.9376,-8.6875
13:55:23.268,-25.0001,-17.2501
13:55:23.276,-33.1876,-25.8751
13:55:23.285,-41.0627,-34.8126
13:55:23.295,-48.1877,-42.3127
13:55:23.305,-51.2502,-47.3752
13:55:23.316,-51.0627,-49.9377
13:55:23.327,-50.4377,-51.8127
13:55:23.335,-50.6877,-55.6877
13:55:23.344,-51.3127,-59.3752
13:55:23.358,-53.6252,-62.9377
13:55:23.364,-54.6877,-67.3753
13:55:23.375,-56.8127,-69.5003
13:55:23.388,-57.8127,-73.8753
13:55:23.396,-59.1877,-76.8753
13:55:23.404,-61.8127,-80.8128
13:55:23.414,-63.7502,-85.3128
13:55:23.425,-66.4378,-88.5628
13:55:23.437,-67.6878,-92.3754
13:55:23.446,-69.3128,-94.5629
13:55:23.455,-70.8753,-99.1254
13:55:23.465,-71.1253,-100.5629
13:55:23.475,-71.1878,-104.1879
13:55:23.485,-70.6878,-106.0004
13:55:23.495,-70.7503,-107.8129
13:55:23.505,-70.5628,-111.1254
13:55:23.514,-72.1253,-113.2504
13:55:23.527,-73.3753,-116.8129
13:55:23.535,-73.1253,-120.2505
13:55:23.546,-74.8128,-123.3755
13:55:23.555,-75.1253,-126.5005
13:55:23.565,-75.8128,-129.1255
13:55:23.576,-76.8128,-132.688
13:55:23.586,-76.9378,-134.813
13:55:23.595,-76.5003,-133.563
13:55:23.606,-72.5628,-129.813
13:55:23.616,-64.1877,-117.313
13:55:23.625,-53.1877,-98.5004
13:55:23.636,-41.2502,-77.2503
13:55:23.646,-28.8126,-53.1252
13:55:23.656,-15.7501,-27.6876
13:55:23.666,-4.375,-2.3125
13:55:23.675,9.1875,23.1876
13:55:23.687,20.4376,46.3752
13:55:23.695,32.1876,68.2503
13:55:23.706,40.5002,87.6253
13:55:23.715,48.4377,103.3129
13:55:23.726,54.8127,116.8129
13:55:23.735,58.3752,128.438
13:55:23.746,60.8127,136.5005
13:55:23.755,63.1252,143.188
13:55:23.766,64.0627,149.1256
13:55:23.777,65.2503,152.3131
13:55:23.789,67.6878,155.3131
13:55:23.799,68.2503,157.5631
13:55:23.805,69.6253,156.3756
13:55:23.816,70.9378,157.1881
13:55:23.824,70.8753,155.3756
13:55:23.836,68.7503,148.6881
13:55:23.844,62.4377,141.1255
13:55:23.856,58.0002,133.6255
13:55:23.865,49.3752,124.438
13:55:23.876,41.1252,114.7504
13:55:23.886,33.8751,104.1879
13:55:23.896,29.2501,95.0004
13:55:23.905,24.3751,86.3753
13:55:23.916,22.3751,78.5003
13:55:23.924,20.9376,73.2503
13:55:23.936,21.9376,69.5628
13:55:23.946,23.5001,66.3753
13:55:23.957,23.5626,65.1253
13:55:23.966,22.7501,60.7502
13:55:23.976,20.0626,57.8752
13:55:23.985,18.0001,53.1252
13:55:23.995,16.4376,50.1252
13:55:24.006,14.6876,46.6252
13:55:24.014,11.8125,43.0627
13:55:24.026,9.75,38.5001
13:55:24.034,6.4375,34.0626
13:55:24.047,4.9375,29.1876
13:55:24.055,2.375,25.8126
13:55:24.066,0.6875,19.8126
13:55:24.076,-3.4375,14.8126
13:55:24.085,-6,8.125
13:55:24.096,-9.3125,3.0625
13:55:24.105,-11.3125,-4.25
13:55:24.116,-15.1251,-10.25
13:55:24.144,-17.8751,-17.1251
13:55:24.146,-20.8751,-24.2501
13:55:24.149,-23.7501,-29.9376
13:55:24.157,-26.2501,-36.2501
13:55:24.165,-28.7501,-42.0002
13:55:24.176,-31.0626,-47.8127
13:55:24.186,-33.1251,-53.8127
13:55:24.195,-34.8126,-59.7502
13:55:24.204,-38.5001,-65.4377
13:55:24.216,-41.3752,-71.2503
13:55:24.227,-44.6252,-77.8128
13:55:24.248,-48.2502,-83.3128
13:55:24.252,-50.8127,-89.3128
13:55:24.266,-53.7502,-92.1879
13:55:24.269,-54.6252,-96.3129
13:55:24.276,-58.0627,-99.1254
13:55:24.286,-60.6877,-104.1879
13:55:24.295,-64.6877,-109.3754
13:55:24.306,-70.7503,-115.3129
13:55:24.315,-76.4378,-122.938
13:55:24.325,-80.2503,-127.7505
13:55:24.336,-83.0628,-130.063
13:55:24.370,-84.4378,-133.688
13:55:24.372,-85.3753,-135.7505
13:55:24.376,-85.5003,-136.188
13:55:24.377,-86.8128,-138.1255
13:55:24.421,-85.9378,-137.688
13:55:24.423,-87.0628,-136.3755
13:55:24.424,-88.1253,-139.5005
13:55:24.463,-88.1253,-139.5005
13:55:24.463,-86.3128,-140.3755
13:55:24.466,-84.8753,-140.5005
13:55:24.466,-87.1878,-146.063
13:55:24.474,-88.2503,-149.3131
13:55:24.474,-89.0628,-148.8756
13:55:24.489,-86.7503,-143.188
13:55:24.489,-80.6878,-129.7505
13:55:24.498,-70.5628,-111.9379
13:55:24.506,-56.3752,-88.1878
13:55:24.516,-40.6877,-63.6252
13:55:24.526,-24.1876,-35.6876
13:55:24.541,-8.5,-10.625
13:55:24.547,6.6875,15.1876
13:55:24.557,19.5001,39.6252
13:55:24.566,30.6251,58.2502
13:55:24.578,39.5627,76.0628
13:55:24.584,46.8752,88.8128
13:55:24.596,51.5002,100.8129
13:55:24.604,55.8127,108.4379
13:55:24.616,57.6877,116.1254
13:55:24.624,59.8752,118.563
13:55:24.636,59.0002,121.438
13:55:24.645,59.4377,122.1255
13:55:24.656,58.9377,122.1255
13:55:24.666,58.1252,121.7505
13:55:24.678,58.1252,118.7505
13:55:24.685,57.4377,117.0629
13:55:24.697,55.1252,115.2504
13:55:24.704,54.2502,109.2504
13:55:24.715,50.9377,105.0629
13:55:24.726,48.7502,99.6254
13:55:24.734,46.3752,92.3129
13:55:24.747,43.1877,85.3128
13:55:24.756,39.3752,76.3128
13:55:24.767,35.9376,68.5628
13:55:24.777,31.8751,58.9377
13:55:24.788,28.2501,52.1252
13:55:24.795,24.6876,44.0627
13:55:24.806,20.9376,36.7501
13:55:24.815,17.3126,30.0626
13:55:24.826,14.5626,24.8126
13:55:24.834,10.75,18.1251
13:55:24.846,6.625,12.5625
13:55:24.854,1.875,6.0625
13:55:24.866,-2.25,0.6875
13:55:24.876,-7.0625,-5.8125
13:55:24.886,-11.5,-11.6875
13:55:24.897,-14.6251,-17.3751
13:55:24.907,-19.3126,-22.4376
13:55:24.918,-21.8751,-26.4376
13:55:24.929,-25.5001,-31.0626
13:55:24.936,-27.0626,-34.6876
13:55:24.947,-29.0001,-38.4376
13:55:24.956,-29.1251,-40.5002
13:55:24.966,-30.8751,-41.5627
13:55:24.976,-30.2501,-43.2502
13:55:24.986,-32.3126,-44.2502
13:55:24.996,-33.7501,-47.1252
13:55:25.005,-35.8751,-49.6252
13:55:25.017,-36.3126,-52.0627
13:55:25.026,-38.0001,-55.1252
13:55:25.037,-39.6252,-59.2502
13:55:25.046,-44.5002,-66.0628
13:55:25.056,-48.6252,-73.5003
13:55:25.066,-52.4377,-77.6253
13:55:25.076,-56.9377,-82.7503
13:55:25.088,-60.5002,-88.8128
13:55:25.096,-63.6877,-92.4379
13:55:25.106,-67.3753,-96.4379
13:55:25.116,-68.9378,-100.6879
13:55:25.127,-70.3128,-104.1254
13:55:25.134,-70.8128,-105.1254
13:55:25.147,-68.8128,-105.8754
13:55:25.156,-66.5628,-105.5629
13:55:25.165,-65.4378,-104.9379
13:55:25.176,-64.0002,-106.5629
13:55:25.186,-63.1877,-106.1879
13:55:25.196,-63.8127,-107.7504
13:55:25.206,-65.3128,-111.0004
13:55:25.217,-68.0628,-113.0004
13:55:25.226,-70.0003,-116.0629
13:55:25.236,-70.6253,-118.7505
13:55:25.244,-72.1253,-120.813
13:55:25.256,-74.4378,-123.5005
13:55:25.266,-73.7503,-124.8755
13:55:25.276,-71.7503,-120.438
13:55:25.292,-64.7502,-113.5004
13:55:25.297,-54.5627,-99.8129
13:55:25.308,-43.8752,-82.0003
13:55:25.316,-30.7501,-62.6252
13:55:25.326,-17.8126,-40.6252
13:55:25.336,-5.125,-19.7501
13:55:25.346,8.4375,1.25
13:55:25.356,20.2501,22.6876
13:55:25.366,32.4376,40.3752
13:55:25.376,43.5002,58.4377
13:55:25.386,52.1252,73.6253
13:55:25.397,60.0002,85.4378
13:55:25.424,65.6878,95.7504
13:55:25.426,69.8128,102.0004
13:55:25.428,71.4378,106.9379
13:55:25.437,72.1878,108.2504
13:55:25.447,72.0003,108.5004
13:55:25.456,70.1253,108.1254
13:55:25.466,68.1878,104.1254
13:55:25.476,65.1877,99.7504
13:55:25.485,60.6252,96.0004
13:55:25.496,55.0002,88.5628
13:55:25.508,49.5627,81.5003
13:55:25.514,42.4377,74.9378
13:55:25.526,35.3126,65.9378
13:55:25.546,28.7501,57.1252
13:55:25.552,20.7501,47.8127
13:55:25.567,13.3751,37.3751
13:55:25.569,8.0625,29.0001
13:55:25.577,2.5625,19.7501
13:55:25.586,-0.3125,14.6876
13:55:25.597,-3.8125,8.375
13:55:25.608,-5.625,5.375
13:55:25.616,-7.0625,2.375
13:55:25.626,-7.375,2.5
13:55:25.636,-7.625,2.0625
13:55:25.654,-8.6875,1.625
13:55:25.670,-8.875,1.1875
13:55:25.673,-8.75,1.125
13:55:25.678,-5.625,1.375
13:55:25.688,-4.875,1.5625
13:55:25.696,-4.625,0.0625
13:55:25.705,-6.125,-3.5
13:55:25.716,-8.5625,-8.25
13:55:25.726,-10.8125,-12.0625
13:55:25.738,-14.5626,-16.1876
13:55:25.770,-19.3126,-20.1876
13:55:25.771,-24.4376,-26.7501
13:55:25.774,-28.8751,-30.5626
13:55:25.776,-33.1251,-35.8751
13:55:25.815,-35.8751,-39.8127
13:55:25.817,-37.7501,-44.5627
13:55:25.818,-38.3126,-46.8127
13:55:25.821,-37.7501,-49.0002
13:55:25.826,-36.3751,-49.9377
13:55:25.866,-35.6876,-52.1877
13:55:25.867,-37.3751,-54.9377
13:55:25.871,-37.0626,-57.4377
13:55:25.872,-38.3751,-59.8127
13:55:25.876,-40.1877,-63.8127
13:55:25.888,-41.4377,-66.6253
13:55:25.896,-43.9377,-70.0003
13:55:25.906,-46.3127,-74.6878
13:55:25.916,-48.6252,-79.0628
13:55:25.927,-52.8752,-83.1253
13:55:25.938,-55.3752,-88.1878
13:55:25.948,-57.2502,-91.7504
13:55:25.956,-60.2502,-95.8754
13:55:25.966,-61.7502,-100.8754
13:55:25.976,-63.3752,-103.2504
13:55:25.986,-64.8127,-108.0629
13:55:25.998,-66.5628,-109.3754
13:55:26.006,-64.3127,-109.1254
13:55:26.017,-58.5002,-100.3754
13:55:26.027,-48.3127,-88.9378
13:55:26.036,-35.0001,-70.0628
13:55:26.046,-21.9376,-48.6252
13:55:26.057,-8.375,-28.5001
13:55:26.069,5.625,-6.5625
13:55:26.076,17.2501,15.2501
13:55:26.086,28.3126,33.0001
13:55:26.096,36.7501,51.0002
13:55:26.106,44.8752,65.5003
13:55:26.117,50.0002,78.0003
13:55:26.127,54.9377,87.7503
13:55:26.138,58.9377,96.1879
13:55:26.149,60.3752,102.2504
13:55:26.156,62.0002,105.6879
13:55:26.166,61.6252,108.3754
13:55:26.176,60.2502,108.5004
13:55:26.186,58.9377,107.6254
13:55:26.196,56.1252,106.2504
13:55:26.208,52.5627,103.1254
13:55:26.216,49.1877,100.3129
13:55:26.226,45.3752,97.1254
13:55:26.236,43.0627,93.4379
13:55:26.246,39.0627,90.3753
13:55:26.256,36.3751,85.1878
13:55:26.266,32.6251,80.8128
13:55:26.276,29.3126,75.2503
13:55:26.289,27.3126,69.3128
13:55:26.300,23.6251,64.1252
13:55:26.306,20.6251,57.0002
13:55:26.316,17.8751,50.6877
13:55:26.326,15.1876,46.1252
13:55:26.336,13.0625,41.4377
13:55:26.346,11.4375,37.2501
13:55:26.359,10.4375,34.0001
13:55:26.366,10.125,32.2501
13:55:26.376,10.6875,29.8751
13:55:26.387,10.0625,28.5001
13:55:26.396,10,26.8126
13:55:26.406,8.125,22.7501
13:55:26.419,6.5625,20.1251
13:55:26.426,2.9375,17.2501
13:55:26.436,-1.5625,12.5625
13:55:26.446,-6.6875,7.0625
13:55:26.456,-11.75,2.6875
13:55:26.466,-15.9376,-2.125
13:55:26.478,-19.1251,-7.625
13:55:26.486,-20.5626,-11.0625
13:55:26.496,-21.6876,-14.3126
13:55:26.506,-20.5626,-15.5001
13:55:26.516,-17.5626,-15.6876
13:55:26.526,-16.9376,-16.2501
13:55:26.536,-15.7501,-18.1251
13:55:26.548,-17.1876,-20.8126
13:55:26.556,-18.5626,-25.0001
13:55:26.567,-22.9376,-29.3126
13:55:26.577,-26.0626,-35.2501
13:55:26.586,-29.2501,-39.1252
13:55:26.598,-30.9376,-44.1877
13:55:26.607,-33.5001,-47.3752
13:55:26.616,-35.0626,-52.8127
13:55:26.626,-38.3126,-57.5002
13:55:26.636,-40.3752,-62.8752
13:55:26.648,-42.4377,-66.8128
13:55:26.658,-45.5002,-70.8753
13:55:26.666,-46.6252,-76.1253
13:55:26.676,-48.5627,-78.5628
13:55:26.704,-47.4377,-81.1253
13:55:26.706,-42.7502,-77.1253
13:55:26.709,-35.0001,-66.3128
13:55:26.716,-22.8126,-50.5002
13:55:26.732,-8.1875,-28.8751
13:55:26.741,5.75,-7.3125
13:55:26.751,20.8126,16.2501
13:55:26.762,33.5001,40.4377
13:55:26.772,45.5002,60.0002
13:55:26.781,55.0627,80.7503
13:55:26.794,64.1877,95.6879
13:55:26.802,70.1878,111.1254
13:55:26.811,75.1878,121.0005
13:55:26.823,78.1253,130.6255
13:55:26.831,79.3753,136.8755
13:55:26.847,81.5003,142.313
13:55:26.863,82.1878,146.7505
13:55:26.866,82.3128,147.7506
13:55:26.874,80.7503,149.2506
13:55:26.881,77.5003,147.1256
13:55:26.891,75.3753,147.0631
13:55:26.901,73.3753,144.1255
13:55:26.911,69.8753,140.0005
13:55:26.922,67.3128,137.188
13:55:26.933,66.4378,132.563
13:55:26.947,62.6252,127.7505
13:55:26.962,59.3752,120.1255
13:55:26.964,54.0002,110.4379
13:55:26.971,47.6252,101.0004
13:55:26.981,42.3752,89.8753
13:55:26.994,38.7501,81.7503
13:55:27.001,35.6876,73.4378
13:55:27.011,31.5001,66.3753
13:55:27.021,27.1876,58.8752
13:55:27.031,24.3126,52.1877
13:55:27.041,21.2501,48.0002
13:55:27.052,20.4376,43.8752
13:55:27.065,20.9376,40.1252
13:55:27.071,19.0001,37.3126
13:55:27.081,17.2501,34.7501
13:55:27.091,12.6875,31.1251
13:55:27.101,9.5625,27.6251
13:55:27.113,6.9375,25.1251
13:55:27.121,4,21.8126
13:55:27.131,1.5,18.5001
13:55:27.141,-1.0625,14.8751
13:55:27.151,-2.5,12.5
13:55:27.161,-3.5,8.625
13:55:27.173,-5.125,5.5625
13:55:27.204,-5.375,2.9375
13:55:27.206,-7.5625,-0.3125
13:55:27.208,-8.875,-3.625
13:55:27.211,-12.4375,-7.8125
13:55:27.240,-15.6251,-10.875
13:55:27.242,-18.6876,-16.1251
13:55:27.245,-21.5001,-18.9376
13:55:27.271,19.1876,7.875
13:55:27.272,31.7501,6.6875
13:55:27.276,52.4377,15.9376
13:55:27.281,46.1252,7.125
13:55:27.315,42.1252,1.625
13:55:27.318,36.0001,-7.25
13:55:27.321,30.5626,-13.3126
13:55:27.323,30.5626,-18.5001
13:55:27.333,37.5626,-17.2501
13:55:27.341,45.5002,-16.5001
13:55:27.353,53.5627,-15.8751
13:55:27.361,54.3752,-19.8126
13:55:27.371,52.2502,-24.6876
13:55:27.381,49.5627,-29.0626
13:55:27.391,50.0627,-33.8751
13:55:27.402,51.1252,-35.4376
13:55:27.412,49.9377,-38.8751
13:55:27.421,49.6252,-42.3127
13:55:27.431,47.1877,-45.8752
13:55:27.441,44.3752,-48.5002
13:55:27.451,43.8752,-52.1877
13:55:27.462,41.5627,-53.4377
13:55:27.471,40.3127,-57.3752
13:55:27.481,38.5001,-58.6877
13:55:27.491,37.3126,-63.1252
13:55:27.501,34.6251,-64.6877
13:55:27.511,32.5001,-68.3753
13:55:27.521,30.0001,-71.1878
13:55:27.531,27.5626,-76.3128
13:55:27.543,24.7501,-78.1878
13:55:27.551,23.3751,-81.3753
13:55:27.561,24.0001,-78.3753
13:55:27.572,31.7501,-69.6878
13:55:27.581,42.6877,-49.8752
13:55:27.591,58.6252,-25.6876
13:55:27.601,72.3753,1.1875
13:55:27.611,86.0628,24.5001
13:55:27.622,97.4379,47.5627
13:55:27.631,108.8129,66.3128
13:55:27.641,117.1255,85.8128
13:55:27.651,125.1255,99.8129
13:55:27.661,130.1255,113.8129
13:55:27.671,135.6255,123.7505
13:55:27.681,138.8755,133.563
13:55:27.691,142.8755,139.813
13:55:27.701,144.063,145.688
13:55:27.711,145.313,148.4381
13:55:27.721,145.438,151.6256
13:55:27.731,145.7505,152.1881
13:55:27.741,144.1255,153.6256
13:55:27.751,144.0005,151.8131
13:55:27.761,141.563,151.2506
13:55:27.771,140.313,149.1881
13:55:27.781,138.8755,146.7505
13:55:27.792,137.063,144.938
13:55:27.803,135.063,141.688
13:55:27.811,131.6255,137.8755
13:55:27.821,129.438,132.813
13:55:27.831,124.688,126.563
13:55:27.841,121.063,118.938
13:55:27.854,114.5004,111.2504
13:55:27.861,110.3129,103.1254
13:55:27.872,105.1254,95.5629
13:55:27.881,101.0629,88.0003
13:55:27.891,96.5629,81.0628
13:55:27.901,93.6879,75.0628
13:55:27.910,90.9379,71.5628
13:55:27.922,88.1878,66.0628
13:55:27.931,85.8128,62.3127
13:55:27.941,83.4378,59.0627
13:55:27.952,81.1253,56.5627
13:55:27.984,79.6878,53.5627
13:55:27.986,76.6253,50.8127
13:55:27.988,74.7503,46.7502
13:55:27.991,71.5628,43.0002
13:55:28.001,68.9378,39.6877
13:55:28.011,66.1878,35.0626
13:55:28.021,63.4377,30.8751
13:55:28.033,60.5627,26.8751
13:55:28.041,57.5002,21.8126
13:55:28.051,54.8752,17.5001
13:55:28.062,51.8752,11.9375
13:55:28.071,48.8752,7.5
13:55:28.082,45.3752,2.1875
13:55:28.094,42.5002,-2.875
13:55:28.101,39.6877,-7.5625
13:55:28.111,35.5626,-12.25
13:55:28.121,33.4376,-17.1876
13:55:28.145,29.9376,-21.8751
13:55:28.149,27.1876,-26.6876
13:55:28.152,24.7501,-32.1876
13:55:28.167,21.1876,-36.5001
13:55:28.170,18.6251,-40.6252
13:55:28.181,16.1251,-45.8127
13:55:28.191,13.8751,-49.5627
13:55:28.201,10.625,-53.3752
13:55:28.211,8.8125,-56.5002
13:55:28.221,7.125,-60.0002
13:55:28.233,3.9375,-63.6877
13:55:28.250,2,-67.0628
13:55:28.253,-0.3125,-70.6253
13:55:28.267,-2.125,-73.5628
13:55:28.270,-5.0625,-76.6878
13:55:28.281,-5.875,-79.0628
13:55:28.294,-8.75,-81.3128
13:55:28.303,-10.6875,-83.5003
13:55:28.311,-11.8125,-86.8128
13:55:28.321,-13.6876,-88.6253
13:55:28.331,-14.7501,-91.0004
13:55:28.341,-17.2501,-92.5629
13:55:28.351,-17.8751,-95.4379
13:55:28.361,-20.0626,-96.3754
13:55:28.371,-20.3126,-99.0629
13:55:28.382,-22.4376,-100.3754
13:55:28.391,-23.3751,-102.6879
13:55:28.401,-25.1876,-104.3754
13:55:28.412,-25.7501,-106.3129
13:55:28.421,-28.7501,-109.0629
13:55:28.432,-30.0001,-111.8129
13:55:28.441,-32.0001,-115.0629
13:55:28.451,-32.4376,-115.8754
13:55:28.463,-33.3751,-116.3129
13:55:28.471,-29.0001,-111.1879
13:55:28.481,-21.0626,-97.3754
13:55:28.491,-6.5625,-77.0628
13:55:28.502,10,-50.0002
13:55:28.511,23.5626,-24.7501
13:55:28.522,36.3751,-3.1875
13:55:28.531,45.6877,15.1876
13:55:28.542,54.3752,29.5001
13:55:28.553,59.6877,42.5627
13:55:28.561,64.6252,50.5627
13:55:28.571,67.5628,58.3752
13:55:28.581,69.3128,62.6252
13:55:28.593,71.0003,66.8128
13:55:28.601,70.8128,70.6878
13:55:28.611,70.6878,71.0628
13:55:28.621,71.2503,71.8753
13:55:28.631,70.0003,72.3128
13:55:28.643,69.5628,71.3128
13:55:28.661,68.3128,71.1878
13:55:28.663,67.8128,70.1878
13:55:28.671,66.5628,69.1253
13:55:28.704,65.8753,67.8753
13:55:28.706,64.9377,66.2503
13:55:28.708,64.3752,65.3753
13:55:28.711,62.3127,63.3752
13:55:28.739,60.8127,60.4377
13:55:28.741,58.2502,56.2502
13:55:28.744,55.0002,52.2502
13:55:28.771,51.8752,45.8127
13:55:28.773,48.3127,41.1877
13:55:28.776,44.6252,35.5626
13:55:28.781,41.8127,30.0626
13:55:28.793,39.0001,25.0626
13:55:28.802,37.2501,21.8751
13:55:28.811,35.1876,19.2501
13:55:28.821,33.3126,16.0001
13:55:28.832,32.0001,13.6251
13:55:28.841,30.4376,11.625
13:55:28.851,29.8126,9.375
13:55:28.861,28.2501,7.8125
13:55:28.872,26.8126,5.5625
13:55:28.881,26.0001,4.0625
13:55:28.891,23.5626,2.25
13:55:28.901,21.9376,0.6875
13:55:28.911,20.6876,-1.9375
13:55:28.921,18.6251,-4.5625
13:55:28.931,16.8751,-7.3125
13:55:28.941,14.7501,-11.5
13:55:28.951,13.3751,-13.8126
13:55:28.961,11.375,-16.5001
13:55:28.971,8.875,-20.6876
13:55:28.982,6.25,-23.7501
13:55:28.991,4.5,-28.0626
13:55:29.001,1.875,-31.1876
13:55:29.012,-0.625,-35.5001
13:55:29.024,-3.5,-39.9377
13:55:29.031,-5.5625,-42.9377
13:55:29.041,-8.1875,-48.6877
13:55:29.052,-10.125,-52.1877
13:55:29.063,-12.4375,-56.0627
13:55:29.071,-15.5001,-59.5627
13:55:29.081,-17.0626,-62.9377
13:55:29.093,-19.6251,-66.8753
13:55:29.101,-20.3126,-69.8753
13:55:29.111,-23.8751,-73.3753
13:55:29.121,-25.4376,-76.6253
13:55:29.132,-26.8751,-79.4378
13:55:29.141,-28.5001,-82.2503
13:55:29.151,-30.5626,-84.5628
13:55:29.167,-31.3126,-87.3753
13:55:29.173,-33.2501,-89.4378
13:55:29.181,-34.5001,-92.2504
13:55:29.191,-36.9376,-93.6254
13:55:29.201,-38.0001,-96.4379
13:55:29.214,-38.8751,-98.0004
13:55:29.221,-40.7502,-99.5629
13:55:29.231,-40.6252,-100.8129
13:55:29.264,-42.1877,-101.5004
13:55:29.268,-42.7502,-103.6254
13:55:29.270,-42.8127,-105.2504
13:55:29.274,-44.6877,-106.1879
13:55:29.281,-45.3752,-107.8129
13:55:29.291,-46.6252,-109.1254
13:55:29.302,-47.8127,-111.4379
13:55:29.311,-48.5627,-111.8754
13:55:29.321,-50.2502,-115.4379
13:55:29.331,-51.1252,-116.6254
13:55:29.343,-52.9377,-118.2505
13:55:29.351,-52.5627,-120.7505
13:55:29.361,-51.9377,-118.8755
13:55:29.371,-47.2502,-113.5629
13:55:29.382,-37.0626,-100.2504
13:55:29.391,-23.7501,-78.5628
13:55:29.401,-8.875,-54.5002
13:55:29.416,4.3125,-32.2501
13:55:29.426,16.1251,-12
13:55:29.444,24.3126,4.3125
13:55:29.448,31.0626,15.6876
13:55:29.466,36.0001,26.7501
13:55:29.467,38.9376,32.3751
13:55:29.476,42.0627,38.0626
13:55:29.486,41.7502,42.4377
13:55:29.496,42.6252,41.8752
13:55:29.506,42.0002,43.9377
13:55:29.516,41.9377,42.5002
13:55:29.527,40.7502,43.8752
13:55:29.546,40.1877,41.6877
13:55:29.549,40.3127,40.7502
13:55:29.563,38.4376,39.8752
13:55:29.567,37.5626,37.6251
13:55:29.576,36.6251,37.3126
13:55:29.586,35.5001,33.4376
13:55:29.596,34.5001,32.4376
13:55:29.608,33.5626,30.0001
13:55:29.617,32.3126,27.3751
13:55:29.627,30.1876,24.5626
13:55:29.636,27.8751,19.8751
13:55:29.646,25.0626,15.5626
13:55:29.656,22.6876,11.4375
13:55:29.666,20.4376,5.6875
13:55:29.677,18.2501,1.875
13:55:29.686,16.8126,-1.8125
13:55:29.696,14.5001,-4.5
13:55:29.706,13.5001,-6.125
13:55:29.717,12.8125,-8.0625
13:55:29.726,11.9375,-9.875
13:55:29.736,12,-10.6875
13:55:29.746,11.4375,-11.125
13:55:29.757,10.8125,-11.5
13:55:29.766,10.3125,-11.5
13:55:29.776,10.0625,-13.5626
13:55:29.788,8.9375,-13.5001
13:55:29.796,8.5625,-15.5626
13:55:29.807,7.9375,-16.9376
13:55:29.816,7.1875,-18.3751
13:55:29.828,5.9375,-20.1876
13:55:29.836,5.1875,-22.5001
13:55:29.846,3.5,-25.3126
13:55:29.857,2.3125,-26.6876
13:55:29.866,0.125,-30.9376
13:55:29.876,-0.9375,-32.8751
13:55:29.886,-3.125,-36.0001
13:55:29.898,-4.9375,-38.6876
13:55:29.906,-7.25,-43.1877
13:55:29.921,-9.125,-45.6877
13:55:29.926,-11.5,-49.7502
13:55:29.936,-13.3126,-52.3752
13:55:29.946,-15.5001,-56.5627
13:55:29.957,-17.6876,-58.8127
13:55:29.966,-19.8751,-62.9377
13:55:29.977,-21.4376,-65.5002
13:55:29.987,-22.8126,-68.3753
13:55:29.998,-24.4376,-70.2503
13:55:30.006,-25.8126,-73.0628
13:55:30.016,-27.0001,-74.8753
13:55:30.026,-28.1251,-76.9378
13:55:30.036,-28.7501,-78.3128
13:55:30.048,-30.4376,-80.7503
13:55:30.057,-30.9376,-82.1878
13:55:30.067,-32.5001,-82.7503
13:55:30.077,-31.8751,-85.9378
13:55:30.097,-33.8751,-86.0628
13:55:30.102,-34.3751,-89.5003
13:55:30.106,-35.4376,-90.7504
13:55:30.135,-36.3751,-91.9379
13:55:30.138,-36.1876,-92.6254
13:55:30.140,-34.4376,-90.3128
13:55:30.146,-28.1251,-81.8753
13:55:30.181,-19.0626,-67.5628
13:55:30.182,-7.0625,-47.8127
13:55:30.185,3.5,-29.7501
13:55:30.213,13.5626,-11.8125
13:55:30.214,22.9376,3.875
13:55:30.217,28.8751,16.5001
13:55:30.222,34.1876,26.3751
13:55:30.226,37.8751,33.6876
13:55:30.237,38.8751,38.6251
13:55:30.248,40.5627,41.5002
13:55:30.257,41.0627,43.9377
13:55:30.266,40.6252,43.5627
13:55:30.276,39.8752,44.8127
13:55:30.286,39.4377,42.5627
13:55:30.296,38.3751,42.7502
13:55:30.307,36.9376,40.1252
13:55:30.316,36.3126,39.7502
13:55:30.326,34.7501,37.3751
13:55:30.336,33.5001,35.0626
13:55:30.348,32.5626,33.0626
13:55:30.356,30.7501,31.3126
13:55:30.366,29.9376,28.5626
13:55:30.376,28.3126,26.6251
13:55:30.386,26.8751,23.3126
13:55:30.396,23.8751,19.0001
13:55:30.406,22.0001,15.2501
13:55:30.418,19.8751,9.8125
13:55:30.426,17.0626,5.875
13:55:30.437,15.1876,2.375
13:55:30.446,13.8126,-2
13:55:30.456,12.875,-3.625
13:55:30.467,11.8125,-6.625
13:55:30.476,11.5625,-7.625
13:55:30.486,11,-8.75
13:55:30.496,9.875,-8.125
13:55:30.506,9.375,-9
13:55:30.516,9.8125,-10.125
13:55:30.545,9,-9.8125
13:55:30.548,8.6875,-10.5
13:55:30.550,8.75,-11.3125
13:55:30.557,8.375,-12.0625
13:55:30.566,7.8125,-13
13:55:30.576,6.5,-14.1876
13:55:30.586,5.4375,-15.6876
13:55:30.596,4.75,-17.8126
13:55:30.606,2.375,-19.5001
13:55:30.618,1.875,-22.7501
13:55:30.629,0,-24.4376
13:55:30.636,-1,-26.7501
13:55:30.646,-2.625,-30.7501
13:55:30.657,-3.9375,-32.9376
13:55:30.671,-6,-36.1876
13:55:30.676,-8.0625,-38.9376
13:55:30.686,-10.125,-43.0627
13:55:30.696,-12.1875,-46.0002
13:55:30.708,-13.6251,-48.9377
13:55:30.717,-15.0001,-50.6877
13:55:30.726,-17.3751,-55.1877
13:55:30.743,-18.8126,-57.3752
13:55:30.757,-21.2501,-60.1877
13:55:30.773,-22.6251,-62.8752
13:55:30.774,-23.6251,-65.3127
13:55:30.781,-24.6876,-67.1253
13:55:30.791,-26.6251,-68.8753
13:55:30.801,-26.9376,-70.4378
13:55:30.811,-28.4376,-72.3128
13:55:30.821,-29.7501,-74.8128
13:55:30.842,-30.1251,-75.0003
13:55:30.844,-31.6876,-77.6878
13:55:30.860,-32.5626,-78.3128
13:55:30.863,-33.5001,-80.2503
13:55:30.872,-33.8126,-82.3128
13:55:30.881,-36.2501,-83.5628
13:55:30.891,-36.8126,-86.2503
13:55:30.901,-37.8751,-86.7503
13:55:30.911,-34.6251,-84.5628
13:55:30.922,-28.6876,-75.6878
13:55:30.931,-18.3126,-58.8752
13:55:30.941,-6.5,-41.0002
13:55:30.953,3.8125,-20.8751
13:55:30.961,15.0001,-3
13:55:30.971,22.6251,12.5
13:55:30.981,30.0001,25.7501
13:55:30.991,34.8751,34.8751
13:55:31.001,38.0001,43.6877
13:55:31.013,40.8752,49.4377
13:55:31.021,42.3752,53.1877
13:55:31.031,42.6252,56.3127
13:55:31.046,43.0627,58.5002
13:55:31.051,43.3752,59.1877
13:55:31.061,42.5002,58.8127
13:55:31.073,42.6252,59.0002
13:55:31.081,40.8752,58.9377
13:55:31.091,40.5627,57.8127
13:55:31.102,39.2501,57.5002
13:55:31.111,38.5001,56.0627
13:55:31.121,37.4376,54.0627
13:55:31.132,35.6251,53.2502
13:55:31.141,35.8126,50.7502
13:55:31.151,33.6251,49.7502
13:55:31.161,32.1251,45.9377
13:55:31.174,29.5001,43.9377
13:55:31.181,28.0626,39.5002
13:55:31.191,25.3126,35.4376
13:55:31.201,23.3126,31.0626
13:55:31.211,21.2501,26.4376
13:55:31.221,19.5001,23.5626
13:55:31.232,17.9376,19.9376
13:55:31.241,16.7501,17.7501
13:55:31.251,16.0626,15.8751
13:55:31.261,14.6876,14.5626
13:55:31.271,14.4376,13.8126
13:55:31.281,14.1251,12.8125
13:55:31.293,13.1876,11.8125
13:55:31.301,13.3751,10.9375
13:55:31.311,12.625,9.4375
13:55:31.322,12.0625,9.25
13:55:31.331,11.5625,7.0625
13:55:31.341,10.75,5.6875
13:55:31.351,10,4.875
13:55:31.361,8.1875,3.25
13:55:31.371,6.75,1.6875
13:55:31.381,5.9375,-1.625
13:55:31.391,4,-3.6875
13:55:31.401,3,-7.1875
13:55:31.416,0.5625,-9.375
13:55:31.420,-1.4375,-12.375
13:55:31.452,-3.1875,-16.3751
13:55:31.454,-5,-18.7501
13:55:31.456,-6.75,-22.3126
13:55:31.462,-8.75,-25.1251
13:55:31.493,-10.0625,-28.2501
13:55:31.494,-12,-31.6876
13:55:31.497,-14.1876,-33.8126
13:55:31.530,-16.4376,-37.4376
13:55:31.531,-16.9376,-41.0002
13:55:31.533,-18.1251,-43.3752
13:55:31.540,-19.1876,-45.7502
13:55:31.542,-20.6876,-47.7502
13:55:31.556,-21.1876,-50.1252
13:55:31.561,-23.3751,-51.9377
13:55:31.571,-23.8751,-53.7502
13:55:31.581,-25.1251,-56.5627
13:55:31.591,-25.5001,-57.1252
13:55:31.602,-27.2501,-59.1877
13:55:31.611,-26.8126,-60.7502
13:55:31.621,-29.2501,-61.6252
13:55:31.631,-30.0626,-65.0627
13:55:31.642,-31.1251,-65.8128
13:55:31.651,-31.9376,-68.3753
13:55:31.662,-32.9376,-68.8753
13:55:31.671,-34.3751,-71.6253
13:55:31.681,-34.8126,-72.6878
13:55:31.692,-35.6876,-74.3753
13:55:31.701,-34.7501,-72.6878
13:55:31.711,-30.9376,-68.3128
13:55:31.723,-23.4376,-57.1252
13:55:31.731,-13.5626,-41.0627
13:55:31.741,-2.5625,-22.1876
13:55:31.752,7.75,-3.625
13:55:31.761,18.1251,13.6876
13:55:31.771,25.2501,29.1251
13:55:31.781,31.6251,42.8127
13:55:31.791,37.5626,53.8127
13:55:31.824,41.4377,64.6252
13:55:31.827,45.3752,71.5628
13:55:31.828,47.4377,78.1878
13:55:31.833,49.6877,83.4378
13:55:31.841,51.2502,87.6253
13:55:31.852,52.8127,91.0629
13:55:31.861,53.1252,92.6254
13:55:31.871,53.5002,95.0629
13:55:31.882,54.1252,95.8129
13:55:31.891,53.6252,96.3754
13:55:31.902,54.3127,96.0004
13:55:31.911,53.3752,95.5629
13:55:31.921,52.8752,96.6254
13:55:31.931,52.1252,95.0004
13:55:31.941,50.8752,93.2504
13:55:31.951,49.0002,91.0004
13:55:31.961,47.1877,87.3128
13:55:31.971,44.3752,83.5003
13:55:31.981,41.8752,78.8128
13:55:31.991,38.5626,72.9378
13:55:32.001,35.3126,67.6253
13:55:32.011,32.9376,62.1877
13:55:32.021,29.7501,58.6252
13:55:32.044,28.3126,54.4377
13:55:32.050,26.5001,50.6877
13:55:32.052,23.8126,47.7502
13:55:32.067,23.3751,45.6877
13:55:32.074,22.0001,43.6877
13:55:32.081,21.1876,41.0627
13:55:32.091,20.0626,39.5002
13:55:32.101,19.2501,38.1876
13:55:32.112,18.5001,35.8751
13:55:32.121,16.8126,34.3126
13:55:32.131,16.3751,32.5001
13:55:32.149,14.8126,30.5001
13:55:32.163,13.0625,28.2501
13:55:32.179,12.375,24.5626
13:55:32.181,10.625,22.1251
13:55:32.186,9.1875,19.2501
13:55:32.191,7.875,15.9376
13:55:32.201,6.4375,12.5625
13:55:32.211,4.625,9.875
13:55:32.221,2.0625,6.1875
13:55:32.231,-0.8125,2.25
13:55:32.241,-3,-2.375
13:55:32.251,-5.4375,-6.75
13:55:32.261,-7.75,-10.8125
13:55:32.271,-10.25,-14.8126
13:55:32.281,-12.25,-18.6251
13:55:32.291,-14.7501,-22.7501
13:55:32.306,-16.3751,-26.5001
13:55:32.311,-17.8126,-28.6251
13:55:32.321,-19.4376,-33.3126
13:55:32.331,-22.1251,-36.8126
13:55:32.341,-23.8126,-40.5002
13:55:32.351,-25.7501,-43.5002
13:55:32.362,-27.0626,-46.6252
13:55:32.371,-28.0626,-48.6877
13:55:32.382,-30.1251,-50.8752
13:55:32.391,-30.8751,-53.2502
13:55:32.401,-31.6876,-55.6877
13:55:32.414,-31.8126,-57.9377
13:55:32.421,-33.7501,-59.8752
13:55:32.431,-33.3751,-61.4377
13:55:32.441,-35.5001,-63.6877
13:55:32.452,-35.5626,-65.8753
13:55:32.461,-36.5626,-66.8753
13:55:32.471,-37.6251,-70.0003
13:55:32.481,-37.8126,-70.8128
13:55:32.491,-39.8127,-72.1878
13:55:32.501,-40.3752,-74.8753
13:55:32.511,-39.1877,-74.5003
13:55:32.522,-36.5626,-70.0628
13:55:32.531,-29.6876,-62.0002
13:55:32.541,-20.0626,-46.8752
13:55:32.551,-8.75,-27.6251
13:55:32.561,2.3125,-7.25
13:55:32.571,13.3751,11.6875
13:55:32.582,23.4376,30.3751
13:55:32.591,32.2501,48.6252
13:55:32.601,39.7502,64.0002
13:55:32.611,46.3752,78.8128
13:55:32.622,51.5627,90.0629
13:55:32.632,56.2502,101.6254
13:55:32.641,59.1877,109.0629
13:55:32.651,62.2502,116.9379
13:55:32.663,63.6877,121.063
13:55:32.671,64.5627,125.8755
13:55:32.681,64.9377,127.188
13:55:32.693,64.5627,128.563
13:55:32.701,63.9377,128.8755
13:55:32.711,63.3752,129.6255
13:55:32.721,62.3752,128.2505
13:55:32.731,60.9377,127.063
13:55:32.741,59.8127,126.563
13:55:32.751,57.6252,122.313
13:55:32.761,56.3127,120.3755
13:55:32.773,53.5627,116.1254
13:55:32.781,50.6877,110.9379
13:55:32.791,46.3752,104.5629
13:55:32.803,42.7502,98.5004
13:55:32.811,39.3127,91.8754
13:55:32.822,35.4376,86.1253
13:55:32.831,31.9376,80.3128
13:55:32.841,30.1876,75.0003
13:55:32.862,27.0626,71.0003
13:55:32.864,25.5001,66.9378
13:55:32.898,23.5001,63.0002
13:55:32.900,22.3126,60.4377
13:55:32.902,20.6251,57.5002
13:55:32.905,19.6876,55.5627
13:55:32.934,19.3126,53.7502
13:55:32.937,18.3126,51.8752
13:55:32.939,16.3751,50.0627
13:55:32.941,15.7501,46.7502
13:55:32.972,13.8126,44.2502
13:55:32.977,12.0625,40.6877
13:55:32.978,10.5625,37.6876
13:55:32.984,8.875,34.7501
13:55:32.992,7.125,30.2501
13:55:33.001,4.9375,27.0626
13:55:33.013,3.25,22.4376
13:55:33.021,1.25,18.0001
13:55:33.031,-1.0625,14.1251
13:55:33.041,-3.6875,9.5625
13:55:33.053,-6,5.75
13:55:33.064,-8.4375,0.3125
13:55:33.071,-10.4375,-3
13:55:33.104,-12.6875,-7.375
13:55:33.108,-14.5626,-12.375
13:55:33.109,-17.1251,-16.3126
13:55:33.113,-18.6251,-20.3751
13:55:33.122,-20.0626,-24.1251
13:55:33.131,-22.5626,-27.0001
13:55:33.141,-23.7501,-32.0001
13:55:33.151,-25.5626,-34.7501
13:55:33.162,-26.0626,-38.8126
13:55:33.171,-28.1251,-41.3127
13:55:33.181,-28.6251,-44.6252
13:55:33.192,-29.8126,-47.0002
13:55:33.201,-30.8126,-49.5002
13:55:33.211,-31.9376,-52.6877
13:55:33.221,-32.6876,-54.5002
13:55:33.231,-34.6876,-56.1877
13:55:33.241,-35.1876,-59.3127
13:55:33.251,-35.4376,-60.6877
13:55:33.262,-36.6876,-62.7502
13:55:33.272,-37.1876,-64.1877
13:55:33.284,-38.6251,-65.9378
13:55:33.290,-39.1251,-68.0628
13:55:33.304,-39.8127,-68.9378
13:55:33.311,-40.8752,-72.1878
13:55:33.321,-42.0627,-74.0003
13:55:33.335,-42.6877,-75.1878
13:55:33.351,-43.5627,-77.5628
13:55:33.357,-44.5627,-79.5003
13:55:33.372,-44.8752,-80.8753
13:55:33.375,-45.1252,-81.2503
13:55:33.384,-41.2502,-77.5003
13:55:33.393,-34.6251,-67.5628
13:55:33.401,-23.9376,-51.6252
13:55:33.411,-13.2501,-31.3126
13:55:33.423,0.1875,-9.375
13:55:33.434,12.6875,13.6876
13:55:33.449,24.7501,36.6251
13:55:33.465,35.3126,57.0627
13:55:33.467,44.6877,77.8753
13:55:33.482,53.1252,94.5629
13:55:33.486,58.6877,109.4379
13:55:33.493,63.3127,121.0005
13:55:33.501,67.0628,129.813
13:55:33.511,69.1878,137.563
13:55:33.521,71.3128,142.2505
13:55:33.531,71.8128,145.438
13:55:33.543,71.8128,147.0631
13:55:33.552,71.0003,149.3131
13:55:33.564,71.0628,147.7506
13:55:33.571,69.4378,148.2506
13:55:33.582,68.4378,145.938
13:55:33.591,66.4378,143.938
13:55:33.602,64.6252,141.6255
13:55:33.611,62.9377,137.438
13:55:33.622,60.7502,133.688
13:55:33.631,57.8752,129.3755
13:55:33.642,54.1877,123.063
13:55:33.652,49.8752,117.063
13:55:33.661,45.7502,108.5629
13:55:33.672,42.8127,100.6254
13:55:33.681,39.0627,94.5629
13:55:33.691,35.7501,87.0003
13:55:33.703,33.1251,81.3128
13:55:33.711,30.2501,75.8753
13:55:33.721,28.5626,71.6878
13:55:33.731,27.5001,67.6253
13:55:33.742,24.7501,64.3752
13:55:33.751,24.7501,62.0627
13:55:33.762,23.1251,59.7502
13:55:33.775,22.4376,57.1877
13:55:33.781,20.1876,55.3752
13:55:33.792,18.5626,52.2502
13:55:33.801,17.6251,48.9377
13:55:33.812,15.0001,47.1252
13:55:33.822,12.875,42.6252
13:55:33.831,11,38.9376
13:55:33.841,9.375,35.1876
13:55:33.851,6.9375,30.1251
13:55:33.862,5.25,27.3126
13:55:33.871,3.5,22.4376
13:55:33.882,1.625,17.6876
13:55:33.892,-0.625,13.7501
13:55:33.902,-2.625,9.5625
13:55:33.911,-4.6875,5
13:55:33.925,-6.4375,0
13:55:33.931,-8.9375,-4.125
13:55:33.941,-10.375,-9.125
13:55:33.955,-13.3126,-14.1251
13:55:33.961,-15.4376,-18.9376
13:55:33.971,-17.6876,-24.1251
13:55:33.982,-19.5001,-27.5626
13:55:33.992,-21.8751,-32.8126
13:55:34.001,-23.3751,-36.6251
13:55:34.011,-25.6251,-40.9377
13:55:34.021,-27.3751,-43.6877
13:55:34.032,-29.1876,-47.2502
13:55:34.043,-31.3126,-50.6877
13:55:34.051,-32.6251,-54.4377
13:55:34.062,-34.7501,-57.1877
13:55:34.072,-35.9376,-61.2502
13:55:34.081,-37.9376,-63.5002
13:55:34.092,-39.0626,-66.5003
13:55:34.101,-39.6877,-68.4378
13:55:34.113,-41.6877,-69.6878
13:55:34.123,-41.5002,-73.0003
13:55:34.131,-41.6877,-74.6253
13:55:34.144,-43.6252,-77.0628
13:55:34.151,-44.1877,-78.6878
13:55:34.161,-44.8752,-80.0003
13:55:34.171,-45.8752,-82.4378
13:55:34.186,-46.6252,-84.0628
13:55:34.192,-47.6252,-85.8753
13:55:34.201,-49.3127,-88.3128
13:55:34.237,-49.3127,-90.8754
13:55:34.240,-51.4377,-93.0004
13:55:34.242,-51.6877,-95.3129
13:55:34.244,-50.7502,-94.1254
13:55:34.251,-47.4377,-88.9378
13:55:34.284,-39.4377,-78.7503
13:55:34.287,-29.2501,-60.2502
13:55:34.289,-16.7501,-40.5627
13:55:34.294,-2.9375,-16.6876
13:55:34.321,9.25,7.3125
13:55:34.323,21.8751,30.5626
13:55:34.327,32.7501,53.7502
13:55:34.352,42.0002,71.9378
13:55:34.354,50.1252,90.6254
13:55:34.359,56.3752,105.0004
13:55:34.384,61.6252,116.3129
13:55:34.386,64.8752,125.938
13:55:34.388,67.0628,131.1255
13:55:34.394,68.3753,134.8755
13:55:34.403,67.2503,136.188
13:55:34.412,66.5003,136.188
13:55:34.421,65.1252,136.0005
13:55:34.433,63.1252,134.188
13:55:34.443,62.0002,131.813
13:55:34.451,59.3752,129.938
13:55:34.462,57.7502,125.3755
13:55:34.474,54.8127,122.063
13:55:34.481,51.9377,117.7505
13:55:34.491,48.5627,111.0004
13:55:34.502,45.0002,105.0004
13:55:34.511,41.3127,97.4379
13:55:34.522,36.6876,89.7503
13:55:34.531,32.8751,81.8128
13:55:34.542,27.7501,74.1878
13:55:34.551,24.3751,67.3128
13:55:34.569,21.6251,60.2502
13:55:34.571,19.0001,56.0627
13:55:34.582,17.3126,49.8127
13:55:34.592,15.5001,46.1877
13:55:34.601,13.4376,43.0002
13:55:34.612,12.4375,39.2501
13:55:34.622,11.25,37.6251
13:55:34.631,10.1875,35.5001
13:55:34.641,9.375,32.9376
13:55:34.660,8.5625,31.1251
13:55:34.667,6.3125,29.1876
13:55:34.682,6,26.6876
13:55:34.685,3.5,23.7501
13:55:34.699,2.6875,19.5001
13:55:34.707,-0.5,16.5001
13:55:34.711,-1.6875,12.25
13:55:34.721,-4.5625,8.4375
13:55:34.731,-6.8125,4.5
13:55:34.751,-9,-1.125
13:55:34.760,-12.125,-5.375
13:55:34.766,-14.5001,-10.3125
13:55:34.783,-17.2501,-15.8751
13:55:34.785,-19.8751,-20.0001
13:55:34.801,-22.1876,-25.7501
13:55:34.807,-24.8751,-30.3751
13:55:34.817,-27.3126,-35.7501
13:55:34.826,-29.6251,-39.3127
13:55:34.839,-31.0626,-43.9377
13:55:34.847,-34.0626,-49.4377
13:55:34.857,-36.0626,-52.8127
13:55:34.867,-37.8751,-56.1252
13:55:34.877,-39.9377,-61.0002
13:55:34.886,-41.5627,-63.5002
13:55:34.897,-43.0002,-68.1253
13:55:34.907,-45.0627,-72.3128
13:55:34.917,-45.9377,-74.5003
13:55:34.927,-47.1252,-77.0628
13:55:34.943,-48.1877,-80.0628
13:55:34.945,-48.7502,-81.0003
13:55:34.957,-50.1877,-84.0628
13:55:34.966,-50.9377,-87.0003
13:55:34.977,-52.3752,-88.8753
13:55:34.989,-53.1252,-91.6879
13:55:34.997,-54.2502,-93.8129
13:55:35.007,-54.8127,-96.1879
13:55:35.018,-55.5627,-97.0629
13:55:35.027,-53.9377,-96.2504
13:55:35.036,-50.3127,-90.9379
13:55:35.047,-41.2502,-78.1878
13:55:35.057,-31.0001,-60.8127
13:55:35.066,-19.1876,-38.1876
13:55:35.077,-5.6875,-15.8126
13:55:35.089,6.4375,9.375
13:55:35.097,18.9376,32.8126
13:55:35.106,30.1876,55.9377
13:55:35.122,40.2502,75.6878
13:55:35.126,48.7502,93.9379
13:55:35.138,54.1252,107.6254
13:55:35.146,59.3127,118.3755
13:55:35.156,61.6877,127.3755
13:55:35.166,63.6877,131.813
13:55:35.177,65.1253,135.2505
13:55:35.188,64.0627,136.6255
13:55:35.196,64.1877,136.688
13:55:35.207,61.9377,136.5005
13:55:35.217,60.8752,133.2505
13:55:35.227,60.2502,131.0005
13:55:35.238,57.4377,128.438
13:55:35.246,56.0627,123.813
13:55:35.257,52.6877,120.7505
13:55:35.266,50.8752,115.6254
13:55:35.276,48.0002,110.1254
13:55:35.288,44.6877,102.9379
13:55:35.297,40.5627,96.0629
13:55:35.307,36.3126,87.5003
13:55:35.320,31.7501,79.5003
13:55:35.327,27.6251,70.8753
13:55:35.336,24.1251,63.4377
13:55:35.347,20.8126,57.5002
13:55:35.358,18.3751,51.8752
13:55:35.367,17.1876,46.2502
13:55:35.378,14.5001,43.5627
13:55:35.387,13.6876,38.3751
13:55:35.399,12.4375,36.5626
13:55:35.406,11.375,33.8751
13:55:35.417,11.125,30.4376
13:55:35.427,10,28.3126
13:55:35.436,9.5,26.5001
13:55:35.448,8.1875,24.2501
13:55:35.456,6.9375,21.7501
13:55:35.467,5.5,18.4376
13:55:35.480,4.3125,15.8126
