timestamp,Red,IR
12:32:26.183,-9.25,-36.1876
12:32:26.194,-10.5625,-37.3751
12:32:26.204,-10.625,-39.0626
12:32:26.213,-11.375,-40.0627
12:32:26.223,-12.8125,-41.8752
12:32:26.234,-13.2501,-42.4377
12:32:26.245,-14.0001,-43.2502
12:32:26.253,-14.3126,-43.4377
12:32:26.264,-13.7501,-41.8127
12:32:26.277,-10,-37.4376
12:32:26.284,-4.9375,-28.4376
12:32:26.294,2.5625,-16.6876
12:32:26.303,11.0625,-0.1875
12:32:26.314,20.3126,16.0001
12:32:26.324,28.6876,32.3126
12:32:26.334,35.9376,48.5627
12:32:26.344,42.8752,60.8127
12:32:26.355,46.4377,71.3753
12:32:26.364,48.1252,75.5003
12:32:26.374,49.8752,78.6878
12:32:26.383,47.7502,77.4378
12:32:26.393,46.1877,74.0003
12:32:26.406,43.5627,71.6253
12:32:26.419,39.3752,66.0003
12:32:26.431,36.7501,60.5002
12:32:26.439,34.0001,54.6252
12:32:26.449,31.5626,50.6252
12:32:26.459,29.0001,45.0627
12:32:26.468,26.5001,39.6252
12:32:26.478,23.0626,34.7501
12:32:26.489,19.5626,29.1251
12:32:26.499,16.2501,22.2501
12:32:26.508,13.6251,16.2501
12:32:26.519,11.125,11.875
12:32:26.529,9.625,8.75
12:32:26.539,8.0625,6.0625
12:32:26.548,8.5625,5.5625
12:32:26.559,8.25,6.0625
12:32:26.568,9.9375,7.8125
12:32:26.580,11.75,11.0625
12:32:26.600,13.3751,12.875
12:32:26.602,13.3751,15.1876
12:32:26.617,13.5626,15.1251
12:32:26.620,13.3126,15.6251
12:32:26.635,12.75,13.8751
12:32:26.640,11.0625,12.1875
12:32:26.652,9.6875,9.1875
12:32:26.658,7.8125,6.75
12:32:26.668,6.1875,3.375
12:32:26.679,3.6875,-0.6875
12:32:26.688,1.375,-3.8125
12:32:26.698,-1,-9.4375
12:32:26.709,-3.5625,-12.1875
12:32:26.718,-6.25,-17.3751
12:32:26.728,-8.75,-21.2501
12:32:26.738,-11.1875,-25.4376
12:32:26.749,-13.5626,-29.3126
12:32:26.758,-15.7501,-32.2501
12:32:26.770,-17.6251,-36.1251
12:32:26.779,-20.1876,-39.6252
12:32:26.788,-21.8126,-42.5627
12:32:26.799,-23.6876,-46.8752
12:32:26.808,-27.2501,-50.0627
12:32:26.819,-29.0626,-53.6877
12:32:26.829,-30.3126,-57.0002
12:32:26.839,-33.9376,-60.1252
12:32:26.848,-35.4376,-64.2502
12:32:26.859,-37.5626,-65.8128
12:32:26.869,-39.2501,-68.3753
12:32:26.878,-40.0627,-70.7503
12:32:26.889,-41.2502,-71.8753
12:32:26.898,-41.9377,-74.1878
12:32:26.909,-43.1877,-74.1253
12:32:26.919,-43.5627,-76.2503
12:32:26.929,-43.5627,-75.2503
12:32:26.938,-42.2502,-74.1878
12:32:26.948,-38.8751,-67.5003
12:32:26.959,-32.3751,-58.3752
12:32:26.969,-24.1876,-43.3127
12:32:26.979,-13.5626,-26.5626
12:32:26.989,-4.0625,-7.0625
12:32:26.998,7,10.9375
12:32:27.008,15.1251,29.1876
12:32:27.019,23.5626,42.4377
12:32:27.028,27.6251,54.1252
12:32:27.038,31.0626,60.3127
12:32:27.048,32.4376,65.1252
12:32:27.058,32.6251,64.5627
12:32:27.069,31.5001,64.2502
12:32:27.078,29.3126,59.8752
12:32:27.090,26.1876,55.6877
12:32:27.099,24.2501,50.3127
12:32:27.108,20.8751,46.1252
12:32:27.119,18.1876,40.5002
12:32:27.129,15.1251,35.8751
12:32:27.139,12.4375,30.4376
12:32:27.148,8.0625,25.1876
12:32:27.173,4.3125,17.2501
12:32:27.180,0.1875,9.5
12:32:27.181,-2.5,3.875
12:32:27.188,-6.25,-0.75
12:32:27.198,-9.0625,-6.125
12:32:27.209,-10.8125,-10.625
12:32:27.219,-11.4375,-12.9375
12:32:27.228,-11.6875,-12.875
12:32:27.239,-11.75,-13.6251
12:32:27.249,-11.5,-12.5625
12:32:27.259,-11.0625,-11.875
12:32:27.270,-10.8125,-11.25
12:32:27.279,-10.375,-11.6875
12:32:27.289,-10.4375,-10.625
12:32:27.299,-11,-12.0625
12:32:27.309,-11.875,-13.6876
12:32:27.319,-13.0625,-15.5001
12:32:27.335,-14.5626,-18.0001
12:32:27.350,-15.8751,-21.0626
12:32:27.353,-17.8751,-24.3751
12:32:27.367,-19.3751,-27.7501
12:32:27.374,-21.0626,-31.0626
12:32:27.379,-23.0001,-33.7501
12:32:27.388,-24.2501,-37.9376
12:32:27.402,-25.0001,-39.9377
12:32:27.408,-26.8126,-42.6877
12:32:27.419,-27.6251,-45.6877
12:32:27.429,-28.6876,-47.8752
12:32:27.440,-30.5001,-49.7502
12:32:27.451,-31.3126,-52.9377
12:32:27.459,-32.2501,-55.1252
12:32:27.469,-33.7501,-56.7502
12:32:27.479,-34.9376,-59.8127
12:32:27.488,-35.3126,-60.4377
12:32:27.499,-35.6876,-63.4377
12:32:27.509,-36.6251,-63.6877
12:32:27.523,-37.6876,-66.6253
12:32:27.529,-38.2501,-66.7503
12:32:27.571,-39.9377,-69.6253
12:32:27.573,-40.1877,-71.0003
12:32:27.575,-42.0627,-71.4378
12:32:27.579,-42.5002,-74.5003
12:32:27.607,-42.6252,-75.1253
12:32:27.610,-44.3752,-76.2503
12:32:27.612,-44.7502,-77.8128
12:32:27.618,-45.0627,-78.1878
12:32:27.622,-45.6877,-77.8753
12:32:27.660,-43.9377,-77.5628
12:32:27.661,-41.8752,-71.1253
12:32:27.665,-35.5626,-63.6877
12:32:27.666,-26.8751,-49.3752
12:32:27.668,-16.3751,-31.6876
12:32:27.699,-5.25,-12.1875
12:32:27.701,6,7.9375
12:32:27.706,16.7501,27.3126
12:32:27.710,25.1876,44.1877
12:32:27.749,31.8126,57.1877
12:32:27.752,35.9376,65.3128
12:32:27.755,37.8751,70.0003
12:32:27.757,38.0001,70.5628
12:32:27.764,36.6251,69.7503
12:32:27.769,35.1251,67.0628
12:32:27.795,32.0001,63.6877
12:32:27.797,29.8751,58.2502
12:32:27.825,27.7501,53.3127
12:32:27.827,25.0001,50.8752
12:32:27.830,23.4376,46.5002
12:32:27.834,21.5626,42.3127
12:32:27.838,19.3126,38.4376
12:32:27.870,16.2501,33.4376
12:32:27.872,13.2501,28.2501
12:32:27.877,9.25,20.9376
12:32:27.881,5.5625,14.5626
12:32:27.920,2.125,8.375
12:32:28.016,-0.8125,2.9375
12:32:28.020,-4.1875,-1.6875
12:32:28.045,-6.25,-5.1875
12:32:28.046,-7,-6.6875
12:32:28.046,-8.75,-8.6875
12:32:28.047,-8.25,-10.125
12:32:28.052,-8.25,-10.125
12:32:28.057,-8.4375,-10.0625
12:32:28.071,-8.375,-10.8125
12:32:28.074,-7.9375,-11.6875
12:32:28.111,-8.5,-12.5625
12:32:28.111,-10.125,-14.6876
12:32:28.115,-12,-17.8751
12:32:28.117,-13.1876,-21.4376
12:32:28.122,-17.0626,-25.0001
12:32:28.135,-18.1876,-29.6876
12:32:28.140,-20.8751,-34.1251
12:32:28.170,-23.2501,-38.2501
12:32:28.173,-25.1251,-42.7502
12:32:28.175,-27.8126,-46.1877
12:32:28.186,-29.6876,-51.1877
12:32:28.189,-49.7502,-89.9378
12:32:28.219,-50.8127,-92.0629
12:32:28.222,-52.3752,-94.1254
12:32:28.222,-52.6252,-96.1254
12:32:28.254,-53.8752,-97.1254
12:32:28.257,-55.0002,-99.4379
12:32:28.258,-55.4377,-101.1879
12:32:28.260,-55.6252,-102.3754
12:32:28.289,-56.6252,-103.5004
12:32:28.292,-56.7502,-105.0004
12:32:28.296,-57.6252,-106.2504
12:32:28.301,-57.3127,-106.8129
12:32:28.344,-56.5002,-106.2504
12:32:28.347,-56.6252,-106.0629
12:32:28.347,-55.1877,-105.1254
12:32:28.383,-53.5627,-101.7504
12:32:28.383,-49.4377,-97.8754
12:32:28.384,-43.1252,-87.2503
12:32:28.385,-34.1251,-72.9378
12:32:28.417,-23.7501,-54.7502
12:32:28.419,-12.4375,-35.1876
12:32:28.419,-0.125,-14.1876
12:32:28.423,9.8125,4.125
12:32:28.426,18.4376,19.5626
12:32:28.453,24.6251,31.7501
12:32:28.456,28.1251,40.5002
12:32:28.458,29.6251,44.3752
12:32:28.460,30.0001,45.7502
12:32:28.492,28.5001,44.7502
12:32:28.494,26.9376,41.0002
12:32:28.498,24.5626,37.5626
12:32:28.501,22.1251,32.2501
12:32:28.528,17.7501,27.5001
12:32:28.531,16.1251,22.6876
12:32:28.533,13.5626,19.6251
12:32:28.541,11.6875,14.6876
12:32:28.549,8.875,10.0625
12:32:28.560,5.8125,5.3125
12:32:28.568,2.9375,-0.5
12:32:28.580,-1.0625,-6.5625
12:32:28.589,-4,-12.375
12:32:28.599,-7.8125,-18.3126
12:32:28.609,-9.4375,-21.7501
12:32:28.620,-10.9375,-26.6251
12:32:28.630,-10.75,-27.4376
12:32:28.651,-10.9375,-27.5001
12:32:28.653,-9.25,-26.3751
12:32:28.669,-7.9375,-25.3751
12:32:28.671,-6.9375,-23.4376
12:32:28.680,-5.875,-21.6876
12:32:28.690,-5.5625,-20.9376
12:32:28.699,-4.9375,-19.9376
12:32:28.709,-4.9375,-20.7501
12:32:28.718,-5.9375,-21.7501
12:32:28.729,-7.375,-23.1876
12:32:28.743,-9.125,-26.4376
12:32:28.750,-11.0625,-30.0626
12:32:28.759,-13.6876,-33.0626
12:32:28.771,-16.1876,-39.1877
12:32:28.780,-18.2501,-42.6877
12:32:28.789,-21.3126,-47.3752
12:32:28.799,-23.5001,-52.0002
12:32:28.809,-27.1876,-56.1252
12:32:28.819,-29.1876,-61.1877
12:32:28.830,-32.5001,-66.5003
12:32:28.839,-35.4376,-71.1253
12:32:28.849,-38.3751,-75.7503
12:32:28.860,-40.8752,-79.8753
12:32:28.868,-42.8752,-82.6253
12:32:28.880,-45.1877,-87.5628
12:32:28.890,-47.0627,-89.3128
12:32:28.898,-48.1252,-92.1879
12:32:28.910,-48.4377,-94.6879
12:32:28.919,-49.3127,-96.1879
12:32:28.932,-50.8127,-98.7504
12:32:28.938,-52.3127,-101.3754
12:32:28.948,-52.4377,-102.6879
12:32:28.960,-53.9377,-103.9379
12:32:28.968,-53.8752,-106.4379
12:32:28.980,-54.3752,-108.2504
12:32:28.990,-56.9377,-109.6879
12:32:28.999,-57.1877,-111.3754
12:32:29.010,-57.3752,-112.0629
12:32:29.018,-57.7502,-112.8129
12:32:29.029,-57.3127,-114.0629
12:32:29.044,-58.0002,-112.8129
12:32:29.050,-57.1252,-112.8129
12:32:29.059,-53.8127,-109.3754
12:32:29.069,-49.6877,-102.9379
12:32:29.080,-43.0627,-92.9379
12:32:29.090,-33.5626,-77.2503
12:32:29.101,-23.8126,-61.6252
12:32:29.108,-12.6875,-41.6877
12:32:29.119,-2.9375,-24.0626
12:32:29.130,6.25,-7.875
12:32:29.140,12.3125,6.0625
12:32:29.149,17.6251,14.2501
12:32:29.159,20.1876,21.4376
12:32:29.169,20.3126,23.8751
12:32:29.179,22.6251,25.9376
12:32:29.189,21.5626,26.1251
12:32:29.201,19.7501,21.5626
12:32:29.209,17.6251,18.7501
12:32:29.219,15.2501,16.0001
12:32:29.230,13,10.8125
12:32:29.239,10.8125,7.5
12:32:29.258,8.625,3.125
12:32:29.264,6.1875,-1.3125
12:32:29.280,3.125,-5.25
12:32:29.282,0,-11.9375
12:32:29.290,-3.75,-17.5626
12:32:29.299,-6.5625,-21.8126
12:32:29.310,-9.3125,-27.9376
12:32:29.322,-11.9375,-31.8751
12:32:29.328,-13.3751,-34.9376
12:32:29.341,-14.8126,-38.4376
12:32:29.348,-15.0001,-37.6876
12:32:29.359,-15.0001,-38.6251
12:32:29.369,-14.6251,-39.6877
12:32:29.380,-14.4376,-37.5001
12:32:29.390,-13.6251,-36.6876
12:32:29.400,-13.2501,-36.3126
12:32:29.411,-12.75,-36.5001
12:32:29.418,-13.4376,-35.9376
12:32:29.430,-13.8751,-36.6251
12:32:29.440,-14.9376,-39.0001
12:32:29.449,-15.7501,-41.0002
12:32:29.460,-17.1876,-42.7502
12:32:29.470,-19.5626,-47.0627
12:32:29.480,-21.3126,-49.3127
12:32:29.490,-23.6251,-54.3127
12:32:29.500,-25.4376,-57.1252
12:32:29.508,-27.5626,-61.3752
12:32:29.519,-29.7501,-65.1252
12:32:29.530,-31.2501,-68.4378
12:32:29.539,-34.2501,-72.6878
12:32:29.548,-36.0001,-76.0003
12:32:29.560,-38.2501,-79.2503
12:32:29.570,-40.2502,-83.0003
12:32:29.579,-41.4377,-86.0628
12:32:29.590,-42.9377,-87.4378
12:32:29.598,-43.5627,-91.0004
12:32:29.609,-44.7502,-92.8129
12:32:29.620,-46.0002,-94.3129
12:32:29.630,-46.8127,-96.3129
12:32:29.640,-48.0627,-99.0004
12:32:29.650,-48.5627,-99.6879
12:32:29.659,-49.0627,-101.2504
12:32:29.670,-50.6252,-102.9379
12:32:29.682,-51.2502,-105.5629
12:32:29.689,-51.7502,-106.1254
12:32:29.699,-53.8127,-107.5629
12:32:29.734,-53.6252,-109.5004
12:32:29.736,-55.0002,-109.9379
12:32:29.739,-55.4377,-112.0004
12:32:29.744,-55.5627,-112.6254
12:32:29.749,-56.2502,-113.8129
12:32:29.760,-56.4377,-114.8754
12:32:29.771,-55.6877,-114.3754
12:32:29.780,-54.6877,-113.9379
12:32:29.790,-51.3127,-109.1254
12:32:29.799,-46.8127,-99.9379
12:32:29.810,-38.6876,-89.3128
12:32:29.819,-28.6876,-73.0003
12:32:29.830,-19.0626,-55.5627
12:32:29.838,-8.5,-38.0001
12:32:29.852,0.125,-21.7501
12:32:29.860,7.625,-7.5
12:32:29.869,13.3751,3.6875
12:32:29.880,17.3126,11.875
12:32:29.889,18.3126,15.8126
12:32:29.900,18.5626,16.8126
12:32:29.910,18.9376,17.8751
12:32:29.920,18.1876,16.3751
12:32:29.931,16.5001,13.6251
12:32:29.948,14.1876,11.375
12:32:29.952,12.0625,6.3125
12:32:29.964,10.6875,4.3125
12:32:29.975,8.5625,0.375
12:32:29.985,7.125,-2.875
12:32:29.997,4.125,-7
12:32:30.005,1.875,-11.25
12:32:30.016,-0.3125,-16.1876
12:32:30.025,-2.3125,-19.8751
12:32:30.034,-4.6875,-24.3751
12:32:30.047,-6.25,-27.0001
12:32:30.057,-8.4375,-30.0626
12:32:30.064,-9.625,-31.8751
12:32:30.075,-9.625,-33.4376
12:32:30.083,-9.5,-32.2501
12:32:30.095,-8.0625,-31.6876
12:32:30.104,-7.4375,-30.5001
12:32:30.115,-5.625,-28.4376
12:32:30.125,-4.875,-27.3751
12:32:30.135,-4.5625,-26.0626
12:32:30.145,-5.8125,-26.2501
12:32:30.154,-6.3125,-28.5626
12:32:30.164,-7.8125,-29.1251
12:32:30.175,-8.375,-31.3126
12:32:30.183,-9.375,-33.0626
12:32:30.196,-11.3125,-36.5001
12:32:30.205,-12.9375,-39.3752
12:32:30.214,-14.2501,-42.0002
12:32:30.225,-16.0626,-45.6877
12:32:30.237,-18.0001,-48.6252
12:32:30.246,-20.0626,-51.8127
12:32:30.255,-21.3751,-54.7502
12:32:30.265,-22.9376,-57.9377
12:32:30.275,-24.0001,-60.0627
12:32:30.285,-25.4376,-62.6877
12:32:30.297,-25.9376,-63.8127
12:32:30.305,-27.1876,-65.7503
12:32:30.315,-27.9376,-67.4378
12:32:30.325,-28.1251,-69.8753
12:32:30.335,-30.0001,-70.4378
12:32:30.344,-30.2501,-73.5003
12:32:30.355,-31.1251,-74.7503
12:32:30.365,-32.0626,-75.8753
12:32:30.374,-31.8126,-77.8753
12:32:30.386,-32.1251,-77.7503
12:32:30.394,-33.3126,-79.8753
12:32:30.404,-33.8126,-80.8753
12:32:30.415,-33.9376,-81.8753
12:32:30.425,-34.3751,-82.0628
12:32:30.435,-34.5001,-83.7503
12:32:30.445,-34.2501,-83.6878
12:32:30.454,-34.0001,-84.1878
12:32:30.465,-34.0001,-83.8753
12:32:30.475,-34.3126,-84.6253
12:32:30.485,-33.5001,-83.5003
12:32:30.495,-33.2501,-85.0003
12:32:30.505,-32.0001,-82.7503
12:32:30.515,-30.0626,-80.2503
12:32:30.525,-25.0626,-74.5628
12:32:30.535,-18.8751,-64.3127
12:32:30.545,-10,-50.6252
12:32:30.562,-0.125,-33.9376
12:32:30.576,9.375,-18.5626
12:32:30.579,19.0626,-0.3125
12:32:30.585,26.8126,14.8126
12:32:30.595,33.7501,26.5001
12:32:30.605,37.8751,37.0626
12:32:30.614,41.5627,42.1252
12:32:30.625,43.1877,46.8752
12:32:30.635,43.0627,46.8752
12:32:30.644,41.6877,45.1252
12:32:30.654,39.2502,42.9377
12:32:30.665,37.0626,38.5626
12:32:30.675,34.8126,34.8751
12:32:30.685,32.5001,31.8751
12:32:30.695,31.3126,28.3126
12:32:30.705,28.7501,25.0626
12:32:30.715,27.1876,21.0626
12:32:30.726,24.3751,16.1251
12:32:30.737,21.3126,11.625
12:32:30.745,18.9376,7.0625
12:32:30.754,16.0626,2.4375
12:32:30.765,13.4376,-2.0625
12:32:30.775,12.0625,-4.9375
12:32:30.785,11.875,-6
12:32:30.795,11.5625,-6.875
12:32:30.809,11.4375,-6.125
12:32:30.815,12.3125,-6.625
12:32:30.825,13.4376,-4.3125
12:32:30.836,13.9376,-2.8125
12:32:30.844,14.8751,-2.3125
12:32:30.855,15.8751,-1.375
12:32:30.865,17.0001,0.125
12:32:30.875,16.8126,0.9375
12:32:30.884,17.1251,1.0625
12:32:30.895,16.3126,-0.8125
12:32:30.905,14.9376,-1.6875
12:32:30.915,14.3126,-4.125
12:32:30.925,12.8125,-6.625
12:32:30.936,10.6875,-7.9375
12:32:30.945,8.75,-12.25
12:32:30.955,7.625,-14.6876
12:32:30.965,5.9375,-18.6251
12:32:30.976,4.3125,-21.0001
12:32:30.984,1.9375,-24.6876
12:32:31.013,0.5625,-26.8126
12:32:31.015,-1.6875,-30.8751
12:32:31.019,-2.625,-32.0001
12:32:31.025,-3.6875,-35.1251
12:32:31.035,-5.5625,-37.3126
12:32:31.046,-5.6875,-39.5002
12:32:31.055,-6.375,-40.7502
12:32:31.065,-6.625,-42.4377
12:32:31.076,-8.625,-44.1252
12:32:31.085,-9.0625,-45.7502
12:32:31.095,-10.125,-47.1877
12:32:31.105,-10.1875,-48.8127
12:32:31.115,-11.25,-49.6252
12:32:31.125,-11.6875,-50.3752
12:32:31.135,-12.5,-51.5627
12:32:31.145,-12.25,-52.0002
12:32:31.155,-12.625,-52.5627
12:32:31.166,-13.8126,-53.3752
12:32:31.175,-12.9375,-53.3127
12:32:31.184,-13.8126,-53.5002
12:32:31.196,-13.5626,-53.9377
12:32:31.205,-13.6251,-53.3752
12:32:31.214,-12.4375,-53.2502
12:32:31.226,-10.875,-50.0627
12:32:31.244,-7.0625,-43.8752
12:32:31.247,-0.6875,-35.3126
12:32:31.263,7.5,-23.3751
12:32:31.264,14.9376,-9.125
12:32:31.274,23.6876,6.8125
12:32:31.285,33.1876,21.3126
12:32:31.296,40.0002,35.4376
12:32:31.305,46.5627,46.5627
12:32:31.315,50.2502,56.3127
12:32:31.325,53.5002,60.5627
12:32:31.334,54.0627,63.3752
12:32:31.345,54.0002,64.5627
12:32:31.355,53.5002,63.2502
12:32:31.365,51.6877,60.2502
12:32:31.375,49.7502,56.9377
12:32:31.385,46.9377,53.6252
12:32:31.396,45.1877,49.6252
12:32:31.405,42.5002,45.5627
12:32:31.415,40.1252,41.0627
12:32:31.426,36.0626,35.9376
12:32:31.435,31.1251,29.5001
12:32:31.445,27.4376,23.6251
12:32:31.455,23.4376,18.6876
12:32:31.466,21.6251,13.5001
12:32:31.475,20.0001,10.0625
12:32:31.485,18.8126,8.0625
12:32:31.495,17.5001,6.5
12:32:31.506,18.0626,6.1875
12:32:31.515,18.5626,7.25
12:32:31.524,19.2501,8.9375
12:32:31.536,20.5626,9.5
12:32:31.575,20.7501,12
12:32:31.576,22.0001,12.4375
12:32:31.579,21.8126,13.5001
12:32:31.610,21.6251,14.1251
12:32:31.612,21.6251,12.375
12:32:31.640,21.4376,12.1875
12:32:31.642,20.1876,10.25
12:32:31.642,18.5626,8.25
12:32:31.643,17.0001,6.5
12:32:31.645,15.3751,2.875
12:32:31.653,12.4375,0.4375
12:32:31.659,10.75,-4.0625
12:32:31.665,7.875,-7.625
12:32:31.699,6.1875,-11.875
12:32:31.701,2.5625,-14.7501
12:32:31.705,0.1875,-20.3751
12:32:31.708,-2.5625,-23.3751
12:32:31.715,-5,-27.2501
12:32:31.749,-7.3125,-31.8751
12:32:31.750,-8.375,-34.5626
12:32:31.753,-11.375,-38.5626
12:32:31.755,-13.3751,-41.6877
12:32:31.789,-14.7501,-44.2502
12:32:31.791,-16.9376,-48.3127
12:32:31.794,-18.3126,-49.5627
12:32:31.827,-18.8126,-51.5002
12:32:31.830,-20.1251,-53.0002
12:32:31.832,-21.7501,-55.1877
12:32:31.839,-21.9376,-56.6252
12:32:31.841,-23.7501,-58.9377
12:32:31.855,-24.2501,-59.9377
12:32:31.886,-24.8126,-61.4377
12:32:31.888,-26.6251,-62.3127
12:32:31.893,-26.8126,-63.6252
12:32:31.893,-27.4376,-63.8752
12:32:31.935,-25.9376,-62.8127
12:32:31.937,-23.9376,-59.7502
12:32:31.940,-20.9376,-53.0002
12:32:31.945,-11.625,-38.9376
12:32:31.947,-3.9375,-25.5626
12:32:31.955,4,-11.125
12:32:31.960,12.25,3.0625
12:32:31.986,18.4376,15.8751
12:32:31.991,23.8751,27.1876
12:32:31.991,27.8751,34.0626
12:32:32.033,29.4376,38.2501
12:32:32.035,29.5626,41.1252
12:32:32.039,28.5626,41.3752
12:32:32.042,27.1251,37.7501
12:32:32.043,24.4376,34.3751
12:32:32.051,22.0626,30.6876
12:32:32.084,19.5626,26.8126
12:32:32.085,17.1251,23.2501
12:32:32.087,14.6876,18.9376
12:32:32.090,12.125,14.0626
12:32:32.130,9.625,11.0625
12:32:32.135,6.5625,5.5
12:32:32.137,3.5,0.125
12:32:32.142,0.5,-4.625
12:32:32.145,-1.9375,-9.375
12:32:32.149,-3.875,-13.125
12:32:32.192,-5.5,-15.6251
12:32:32.192,-6.1875,-16.7501
12:32:32.194,-4.9375,-16.0626
12:32:32.196,-4.75,-14.7501
12:32:32.201,-4.125,-14.3751
12:32:32.224,-2.875,-11.625
12:32:32.228,-1.8125,-10.375
12:32:32.231,-1.125,-7.375
12:32:32.240,-0.3125,-6.9375
12:32:32.282,0.125,-5.9375
12:32:32.284,-0.25,-5.5625
12:32:32.288,0.1875,-7.0625
12:32:32.300,-1.5,-8.1875
12:32:32.303,-2.5625,-9.4375
12:32:32.310,-3.75,-12.6875
12:32:32.313,-5.375,-14.9376
12:32:32.352,-7.25,-17.5001
12:32:32.355,-9,-20.7501
12:32:32.356,-10.625,-22.5001
12:32:32.358,-12.6875,-27.1251
12:32:32.366,-15.0626,-29.8751
12:32:32.392,-16.6251,-33.5001
12:32:32.395,-19.1251,-35.4376
12:32:32.397,-20.0626,-38.8751
12:32:32.432,-21.3126,-41.5002
12:32:32.432,-23.1251,-42.5627
12:32:32.435,-24.0001,-45.5627
12:32:32.441,-26.0001,-46.7502
12:32:32.442,-26.8751,-50.6252
12:32:32.450,-28.8126,-52.0627
12:32:32.490,-29.2501,-54.6252
12:32:32.492,-29.5001,-55.8127
12:32:32.495,-31.5626,-58.3752
12:32:32.498,-32.2501,-60.0002
12:32:32.503,-33.0626,-61.0002
12:32:32.511,-34.7501,-63.6877
12:32:32.546,-35.8751,-65.1252
12:32:32.548,-36.5626,-66.9378
12:32:32.570,-37.5001,-67.8753
12:32:32.572,-37.9376,-68.5003
12:32:32.578,-37.5001,-68.8128
12:32:32.578,-36.5626,-68.7503
12:32:32.581,-35.0001,-64.5627
12:32:32.590,-30.0001,-59.1252
12:32:32.600,-24.3126,-49.0627
12:32:32.610,-16.0001,-35.2501
12:32:32.620,-6.6875,-20.0001
12:32:32.629,2.125,-2.25
12:32:32.640,11.5625,12.6875
12:32:32.650,19.2501,26.5626
12:32:32.660,25.5001,38.4376
12:32:32.672,28.4376,46.6877
12:32:32.685,30.1876,51.0002
12:32:32.696,30.6876,52.9377
12:32:32.700,30.1876,53.0002
12:32:32.709,28.0626,50.6252
12:32:32.719,25.6876,48.7502
12:32:32.729,24.3751,45.6252
12:32:32.740,21.9376,41.5002
12:32:32.749,19.8126,38.2501
12:32:32.759,18.1251,34.8126
12:32:32.770,15.8126,31.0001
12:32:32.780,13.5001,27.6251
12:32:32.790,10.9375,23.0626
12:32:32.800,8.5,18.5626
12:32:32.810,5.5625,13
12:32:32.819,3,8.625
12:32:32.829,0.75,4.8125
12:32:32.841,-1.125,2
12:32:32.851,-1.6875,-0.4375
12:32:32.860,-2.9375,-0.9375
12:32:32.871,-2.4375,-0.875
12:32:32.879,-0.8125,-0.5
12:32:32.890,0.4375,2.1875
12:32:32.900,1.75,3.0625
12:32:32.910,2.25,4.25
12:32:32.920,3.3125,5.375
12:32:32.930,3,5.875
12:32:32.940,3.3125,5.875
12:32:32.950,2.875,4.5625
12:32:32.959,1.8125,4
12:32:32.970,0.375,1.3125
12:32:32.981,-1.0625,-1
12:32:32.990,-1.875,-3.375
12:32:33.001,-3.75,-5.9375
12:32:33.013,-4.8125,-9.0625
12:32:33.020,-6.5625,-11.625
12:32:33.032,-7.9375,-15.4376
12:32:33.042,-9.125,-17.3751
12:32:33.050,-11.5625,-20.3751
12:32:33.065,-12.5,-23.1876
12:32:33.070,-13.8751,-26.1251
12:32:33.080,-15.4376,-28.9376
12:32:33.091,-16.8126,-32.1876
12:32:33.101,-18.7501,-34.4376
12:32:33.110,-20.5001,-37.6876
12:32:33.120,-22.2501,-40.0627
12:32:33.130,-23.5001,-43.3752
12:32:33.140,-25.1876,-45.3127
12:32:33.156,-26.8126,-49.5627
12:32:33.172,-27.7501,-50.8127
12:32:33.174,-29.5001,-51.6877
12:32:33.180,-31.1251,-55.1877
12:32:33.191,-31.1876,-57.4377
12:32:33.202,-33.1876,-59.3127
12:32:33.210,-32.8126,-60.8752
12:32:33.219,-33.6251,-61.3752
12:32:33.229,-34.1251,-63.1252
12:32:33.240,-33.6251,-62.4377
12:32:33.250,-34.3126,-63.7502
12:32:33.259,-33.3751,-62.8127
12:32:33.270,-32.6876,-62.4377
12:32:33.280,-30.1876,-58.8752
12:32:33.290,-25.9376,-51.5627
12:32:33.300,-19.8126,-43.0002
12:32:33.311,-10.25,-28.2501
12:32:33.321,-0.75,-11.375
12:32:33.330,9.5625,6
12:32:33.341,18.9376,22.3126
12:32:33.350,27.0001,38.0001
12:32:33.360,32.7501,51.8752
12:32:33.370,37.8126,59.5627
12:32:33.380,41.8127,68.0003
12:32:33.390,42.4377,70.6253
12:32:33.400,42.8752,71.2503
12:32:33.409,41.2502,69.6878
12:32:33.420,39.6877,66.8753
12:32:33.432,38.0001,64.3127
12:32:33.443,35.5626,61.0002
12:32:33.451,33.3126,57.9377
12:32:33.460,31.8126,54.9377
12:32:33.470,29.4376,51.5002
12:32:33.480,27.5626,48.6877
12:32:33.490,24.9376,45.3752
12:32:33.500,22.8751,41.4377
12:32:33.509,20.6876,36.8126
12:32:33.522,18.0626,33.6251
12:32:33.530,15.9376,28.5001
12:32:33.540,13.5001,25.7501
12:32:33.574,11.5,21.4376
12:32:33.575,10,20.2501
12:32:33.579,9.625,18.2501
12:32:33.584,10.0625,17.8751
12:32:33.592,9.9375,19.6251
12:32:33.600,12.5,20.3126
12:32:33.610,12.6875,22.3751
12:32:33.620,13.6251,22.8751
12:32:33.630,12.75,22.8126
12:32:33.640,11.875,22.3126
12:32:33.650,10.625,20.1876
12:32:33.659,8.5,17.4376
12:32:33.670,7.3125,15.3751
12:32:33.680,5.8125,12.6875
12:32:33.690,3.5625,9.9375
12:32:33.701,2.25,5.75
12:32:33.710,-0.3125,2.5625
12:32:33.721,-2.6875,-1.0625
12:32:33.730,-4.3125,-5.6875
12:32:33.740,-6.6875,-9.3125
12:32:33.751,-8.6875,-13.1876
12:32:33.760,-10.625,-16.5001
12:32:33.770,-12.6875,-19.8126
12:32:33.780,-13.7501,-23.5626
12:32:33.790,-16.4376,-25.0626
12:32:33.799,-17.3126,-28.9376
12:32:33.815,-18.7501,-30.5001
12:32:33.820,-20.1876,-33.3126
12:32:33.841,-21.1876,-36.5001
12:32:33.844,-21.7501,-37.3126
12:32:33.859,-22.1876,-39.2501
12:32:33.861,-23.0001,-40.4377
12:32:33.870,-23.8751,-42.5002
12:32:33.880,-25.0001,-43.2502
12:32:33.891,-25.2501,-45.8752
12:32:33.899,-25.2501,-46.7502
12:32:33.910,-26.3751,-46.3752
12:32:33.920,-26.5001,-48.6877
12:32:33.930,-27.6876,-49.2502
12:32:33.941,-27.4376,-50.6877
12:32:33.950,-27.1876,-52.1877
12:32:33.960,-27.9376,-52.3127
12:32:33.970,-28.1251,-53.1877
12:32:34.002,-27.0626,-52.7502
12:32:34.004,-27.0001,-51.8127
12:32:34.007,-25.3126,-51.8752
12:32:34.014,-24.5001,-49.1252
12:32:34.025,-20.0626,-44.9377
12:32:34.035,-13.8126,-35.3751
12:32:34.045,-7.1875,-23.8751
12:32:34.054,2.8125,-8.25
12:32:34.066,13.0625,9.9375
12:32:34.075,23.7501,27.1251
12:32:34.084,33.0626,45.3127
12:32:34.095,40.6877,60.4377
12:32:34.105,47.3752,72.2503
12:32:34.115,50.8752,82.1253
12:32:34.124,53.1252,85.8753
12:32:34.135,53.1877,87.3128
12:32:34.145,51.6877,87.1253
12:32:34.155,49.6877,84.5003
12:32:34.165,46.8752,81.1253
12:32:34.176,45.1877,76.6253
12:32:34.190,42.3752,73.1253
12:32:34.197,40.4377,69.6878
12:32:34.205,39.1876,67.0003
12:32:34.215,36.9376,63.4377
12:32:34.225,34.3751,60.3127
12:32:34.235,31.9376,54.8752
12:32:34.245,29.1251,49.8752
12:32:34.255,25.5001,45.4377
12:32:34.265,23.3751,38.8751
12:32:34.275,20.1876,35.6251
12:32:34.285,18.6251,32.6251
12:32:34.295,17.4376,29.3751
12:32:34.305,16.2501,28.8751
12:32:34.315,16.1876,27.1251
12:32:34.325,16.3751,28.1251
12:32:34.335,16.2501,27.7501
12:32:34.345,16.7501,29.1876
12:32:34.355,17.1251,28.1251
12:32:34.364,16.5001,29.0001
12:32:34.375,15.5626,27.7501
12:32:34.387,14.8126,26.6251
12:32:34.396,13.1251,24.3126
12:32:34.405,11.6875,22.3751
12:32:34.415,9.5,18.4376
12:32:34.425,7.9375,16.0626
12:32:34.435,5.75,12
12:32:34.453,4.0625,9.375
12:32:34.456,2.0625,4.6875
12:32:34.471,0.8125,1.875
12:32:34.479,-1.5625,-2.6875
12:32:34.485,-3.6875,-5.1875
12:32:34.495,-4.875,-8.5625
12:32:34.505,-6.75,-12
12:32:34.515,-8.8125,-16.2501
12:32:34.525,-10.125,-18.3126
12:32:34.536,-11.6875,-21.6251
12:32:34.545,-13.7501,-24.8126
12:32:34.555,-14.5626,-26.5001
12:32:34.569,-16.4376,-28.5626
12:32:34.575,-16.6876,-31.0626
12:32:34.585,-18.5001,-33.4376
12:32:34.595,-19.1876,-35.0001
12:32:34.604,-20.7501,-36.6251
12:32:34.615,-21.1251,-39.1877
12:32:34.625,-22.0626,-40.4377
12:32:34.636,-23.3126,-43.1252
12:32:34.646,-24.1876,-43.2502
12:32:34.654,-24.5626,-45.8752
12:32:34.665,-25.3751,-46.9377
12:32:34.676,-26.2501,-49.0627
12:32:34.685,-26.3751,-49.6252
12:32:34.695,-27.1876,-50.0002
12:32:34.704,-27.4376,-51.6877
12:32:34.715,-27.0626,-53.0002
12:32:34.726,-28.1876,-53.9377
12:32:34.735,-28.0626,-54.2502
12:32:34.746,-28.3126,-53.6877
12:32:34.755,-27.8126,-54.7502
12:32:34.765,-26.3751,-52.5002
12:32:34.775,-23.0626,-48.5002
12:32:34.785,-17.0001,-39.0001
12:32:34.795,-8.8125,-27.0626
12:32:34.804,1.0625,-10.1875
12:32:34.815,12.125,9.0625
12:32:34.825,22.8126,27.3751
12:32:34.853,30.8751,44.6252
12:32:34.855,39.3752,58.4377
12:32:34.858,45.1877,70.5003
12:32:34.865,47.8127,77.8753
12:32:34.880,49.3752,81.9378
12:32:34.890,48.4377,82.3128
12:32:34.901,47.0627,81.2503
12:32:34.910,44.8752,79.4378
12:32:34.921,41.5002,74.3753
12:32:34.931,39.3752,70.8128
12:32:34.945,36.5626,66.5628
12:32:34.950,35.1251,63.9377
12:32:34.959,33.1876,60.1877
12:32:34.970,31.4376,57.3127
12:32:34.979,29.8751,53.7502
12:32:34.990,26.3751,49.7502
12:32:35.000,24.0001,43.6877
12:32:35.011,20.2501,38.5626
12:32:35.020,17.6876,34.8126
12:32:35.032,15.8126,29.8126
12:32:35.040,13,25.8126
12:32:35.051,12.8125,23.6251
12:32:35.061,11.8125,23.8751
12:32:35.069,13.5001,23.4376
12:32:35.081,13.4376,24.8751
12:32:35.089,14.3126,25.4376
12:32:35.101,15.5626,27.0001
12:32:35.110,16.3126,28.3126
12:32:35.121,16.3751,28.5626
12:32:35.130,16.6876,28.8126
12:32:35.145,16.3751,28.3751
12:32:35.154,15.3751,27.6251
12:32:35.161,14.3126,25.4376
12:32:35.176,12.375,23.0626
12:32:35.192,11.5625,20.3126
12:32:35.195,8.75,17.5001
12:32:35.200,7.25,13.3751
12:32:35.211,5.375,9.6875
12:32:35.219,2.75,5.875
12:32:35.231,0.9375,2.125
12:32:35.239,-1.4375,-0.6875
12:32:35.251,-2.8125,-5.3125
12:32:35.260,-4.75,-7.75
12:32:35.272,-6.25,-11.3125
12:32:35.279,-7.875,-14.0001
12:32:35.291,-8.9375,-17.5626
12:32:35.301,-10.375,-19.3126
12:32:35.310,-11.625,-21.4376
12:32:35.319,-12.9375,-24.3126
12:32:35.331,-14.6251,-26.1251
12:32:35.342,-15.1251,-28.3126
12:32:35.351,-16.0626,-31.1876
12:32:35.361,-17.5001,-32.3751
12:32:35.371,-19.0626,-34.9376
12:32:35.380,-19.8126,-37.1251
12:32:35.391,-21.1876,-38.5001
12:32:35.399,-21.5001,-39.8752
12:32:35.410,-23.2501,-41.1877
12:32:35.420,-22.8751,-43.5627
12:32:35.430,-25.3751,-45.3127
12:32:35.441,-25.4376,-46.6877
12:32:35.450,-27.8126,-48.7502
12:32:35.461,-28.1251,-50.6252
12:32:35.472,-29.0001,-51.5627
12:32:35.480,-30.2501,-54.7502
12:32:35.491,-30.6876,-54.6877
12:32:35.500,-31.1876,-55.1252
12:32:35.511,-30.6251,-56.6877
12:32:35.521,-30.0626,-56.6877
12:32:35.530,-31.0626,-57.5002
12:32:35.541,-29.3751,-56.1252
12:32:35.551,-26.9376,-53.1252
12:32:35.561,-22.2501,-46.5627
12:32:35.572,-14.9376,-33.8126
12:32:35.581,-4.8125,-19.4376
12:32:35.592,6.625,-0.4375
12:32:35.602,17.8126,19.9376
12:32:35.612,29.1251,39.3127
12:32:35.620,37.7501,56.5627
12:32:35.631,44.8752,69.8753
12:32:35.641,50.3127,80.7503
12:32:35.653,52.0627,87.3753
12:32:35.663,53.0002,90.7503
12:32:35.671,51.4377,90.1878
12:32:35.681,50.3752,87.6878
12:32:35.691,47.6877,85.3128
12:32:35.701,45.1877,80.5628
12:32:35.711,42.8127,76.6878
12:32:35.721,40.1252,73.3753
12:32:35.732,38.1876,68.3753
12:32:35.741,34.8751,65.8753
12:32:35.759,33.8751,61.3752
12:32:35.827,31.0001,57.8127
12:32:35.827,28.5001,51.9377
12:32:35.860,26.1251,48.0627
12:32:35.860,23.0001,42.2502
12:32:35.860,20.0626,38.1876
12:32:35.860,18.4376,34.3751
12:32:35.864,16.8126,32.1876
12:32:35.868,15.6251,30.1876
12:32:35.870,15.1876,28.3751
12:32:35.884,15.3126,28.6876
12:32:35.886,15.8126,29.6251
12:32:35.917,15.8126,30.3751
12:32:35.919,16.4376,31.9376
12:32:35.921,16.5001,32.3751
12:32:35.928,16.4376,32.3751
12:32:35.963,16.0001,32.1876
12:32:35.967,15.4376,30.6876
12:32:35.968,14.6876,28.5001
12:32:35.973,12.3125,26.7501
12:32:35.978,10.4375,23.4376
12:32:36.020,7.75,19.1251
12:32:36.020,-1.125,4.75
12:32:36.023,-3.5,2.4375
12:32:36.035,-6.125,-3.25
12:32:36.036,-8.375,-7.75
12:32:36.069,-11,-11.5625
12:32:36.071,-14.0001,-16.3126
12:32:36.074,-16.9376,-20.4376
12:32:36.077,-20.1876,-24.5001
12:32:36.080,-22.3126,-29.6251
12:32:36.094,-24.6251,-33.4376
12:32:36.097,-27.0001,-35.9376
12:32:36.133,-29.6876,-40.5627
12:32:36.135,-31.6251,-43.4377
12:32:36.138,-34.0626,-47.1877
12:32:36.145,-37.9376,-50.6252
12:32:36.146,-43.0002,-56.8752
12:32:36.181,-49.6877,-62.5627
12:32:36.182,-58.0002,-70.3753
12:32:36.184,-67.6253,-77.7503
12:32:36.187,-79.5628,-88.9378
12:32:36.215,-90.9379,-97.4379
12:32:36.217,-106.0004,-106.8754
12:32:36.220,-122.188,-121.438
12:32:36.228,-135.063,-130.188
12:32:36.236,-154.0631,-143.688
12:32:36.276,-174.0632,-158.3756
12:32:36.277,-195.0007,-172.9382
12:32:36.282,-202.3133,-178.3757
12:32:36.285,-207.6258,-180.0007
12:32:36.288,-207.2508,-177.1257
12:32:36.298,-205.6258,-173.3757
12:32:36.320,-204.0008,-168.5006
12:32:36.323,-199.3758,-163.6256
12:32:36.326,-193.0632,-153.5006
12:32:36.356,-186.3757,-142.1255
12:32:36.357,-176.5632,-127.313
12:32:36.362,-164.9381,-108.0629
12:32:36.369,-152.0631,-87.3128
12:32:36.400,-137.938,-63.8127
12:32:36.403,-126.438,-44.7502
12:32:36.406,-115.4379,-26.8751
12:32:36.409,-107.3129,-10.625
12:32:36.438,-101.0004,-1.4375
12:32:36.441,-96.3754,5.6875
12:32:36.443,-93.2504,9.4375
12:32:36.449,-91.1254,11.1875
12:32:36.480,-90.4378,10.6875
12:32:36.514,-90.8754,7.9375
12:32:36.545,-91.4379,5.125
12:32:36.549,-92.6254,1.4375
12:32:36.551,-92.2504,-2.375
12:32:36.558,-90.5629,-3.1875
12:32:36.560,-86.1253,-0.75
12:32:36.560,-83.5003,0.5
12:32:36.562,-82.0003,0.25
12:32:36.589,-79.8128,0.0625
12:32:36.591,-79.5003,-0.3125
12:32:36.592,-77.0628,-1.0625
12:32:36.623,-75.6878,-0.625
12:32:36.625,-74.3753,0.75
12:32:36.628,-71.4378,0.25
12:32:36.634,-69.7503,3.25
12:32:36.660,-67.6878,4.625
12:32:36.661,-64.6877,7.25
12:32:36.689,-61.0627,9.875
12:32:36.691,-58.6877,14.1251
12:32:36.694,-55.8752,17.1251
12:32:36.696,-53.1252,18.8126
12:32:36.702,-50.6877,21.6251
12:32:36.734,-48.8752,23.9376
12:32:36.736,-45.6877,30.1876
12:32:36.740,-44.5002,29.1876
12:32:36.744,-44.2502,29.5626
12:32:36.772,-43.8127,27.1251
12:32:36.772,-43.3752,26.1251
12:32:36.775,-43.2502,25.3751
12:32:36.781,-42.8127,23.1251
12:32:36.791,-42.9377,21.4376
12:32:36.811,-42.0627,20.2501
12:32:36.814,-42.5627,18.1251
12:32:36.821,-43.2502,17.1251
12:32:36.831,-42.9377,14.0001
12:32:36.841,-44.3127,12.8125
12:32:36.851,-44.1877,10
12:32:36.861,-44.6252,7.5
12:32:36.871,-44.4377,6.9375
12:32:36.883,-44.9377,4.5
12:32:36.891,-45.6252,2.875
12:32:36.903,-45.9377,0.25
12:32:36.911,-49.1252,-2.75
12:32:36.921,-50.6877,-5.4375
12:32:36.931,-50.6877,-8.5
12:32:36.941,-50.2502,-9.8125
12:32:36.955,-48.1877,-8.4375
12:32:36.963,-48.2502,-10.0625
12:32:36.972,-49.0002,-12.5
12:32:36.982,-49.5002,-14.9376
12:32:36.991,-50.8127,-18.3751
12:32:37.001,-52.1877,-19.0626
12:32:37.012,-52.5627,-23.1251
12:32:37.021,-53.0627,-25.9376
12:32:37.031,-53.1877,-26.2501
12:32:37.042,-53.3752,-28.8751
12:32:37.051,-53.7502,-30.1251
12:32:37.070,-53.2502,-31.6251
12:32:37.079,-53.3752,-32.7501
12:32:37.093,-51.6877,-31.1251
12:32:37.108,-47.6877,-28.1251
12:32:37.111,-41.5627,-19.3751
12:32:37.113,-31.3751,-8.3125
12:32:37.121,-20.7501,9.0625
12:32:37.133,-8.6875,25.1251
12:32:37.141,2.25,42.6252
12:32:37.152,12.5625,59.0627
12:32:37.161,21.3126,75.0628
12:32:37.171,29.6876,87.4378
12:32:37.184,35.6876,98.8129
12:32:37.191,41.1252,106.8754
12:32:37.204,44.5627,111.2504
12:32:37.211,46.6252,114.5629
12:32:37.221,47.6877,116.3129
12:32:37.231,48.5627,117.8129
12:32:37.241,49.8127,117.938
12:32:37.251,51.4377,117.813
12:32:37.261,53.0002,120.1255
12:32:37.272,53.9377,119.2505
12:32:37.281,53.6252,118.6255
12:32:37.291,52.3752,117.2504
12:32:37.301,52.9377,115.7504
12:32:37.311,53.0002,114.9379
12:32:37.321,57.3127,118.438
12:32:37.332,59.1252,119.938
12:32:37.341,58.4377,119.3755
12:32:37.351,58.4377,118.438
12:32:37.361,58.0627,118.563
12:32:37.371,59.1877,119.313
12:32:37.381,59.6252,121.0005
12:32:37.413,60.9377,123.6255
12:32:37.415,63.1877,125.438
12:32:37.417,64.3127,127.188
12:32:37.424,65.8753,129.7505
12:32:37.431,66.4378,130.7505
12:32:37.441,65.8128,132.0005
12:32:37.453,65.2502,132.6255
12:32:37.461,64.4377,129.938
12:32:37.471,61.8127,128.7505
12:32:37.481,61.1252,126.7505
12:32:37.491,59.3752,123.438
12:32:37.501,57.8127,120.5005
12:32:37.512,55.6877,116.8129
12:32:37.522,53.5627,113.3129
12:32:37.531,51.4377,108.5004
12:32:37.542,47.0002,102.7504
12:32:37.552,43.8752,96.3129
12:32:37.562,39.6877,88.8128
12:32:37.571,36.0001,82.2503
12:32:37.582,32.1876,76.4378
12:32:37.591,29.1251,70.1253
12:32:37.601,26.2501,64.3752
12:32:37.611,23.6251,59.1252
12:32:37.621,19.8751,54.1252
12:32:37.631,18.8126,48.8127
12:32:37.642,15.7501,44.8752
12:32:37.651,13.6876,40.3127
12:32:37.661,11.25,35.4376
12:32:37.671,9.4375,31.2501
12:32:37.681,7.3125,27.0001
12:32:37.691,5.6875,23.9376
12:32:37.702,3.25,20.0001
12:32:37.711,1.5625,16.1876
12:32:37.722,-0.3125,11.75
12:32:37.731,-2.8125,8.75
12:32:37.742,-4.3125,5.8125
12:32:37.751,-6.25,0.75
12:32:37.761,-8.3125,-2.3125
12:32:37.771,-10.25,-6.0625
12:32:37.781,-12.375,-8.8125
12:32:37.798,-13.1251,-12
12:32:37.814,-15.5001,-14.1876
12:32:37.816,-17.2501,-16.6251
12:32:37.821,-18.0626,-19.6876
12:32:37.836,-18.9376,-20.3126
12:32:37.841,-18.9376,-21.0626
12:32:37.851,-17.3751,-18.8751
12:32:37.861,-12.8125,-12.625
12:32:37.871,-6.625,-3.5
12:32:37.882,1.8125,10.25
12:32:37.891,10.0625,22.8751
12:32:37.901,19.0626,39.1877
12:32:37.911,27.0001,52.0627
12:32:37.921,34.0626,65.1253
12:32:37.934,39.0626,72.9378
12:32:37.941,41.8127,79.0003
12:32:37.951,41.3752,80.6253
12:32:37.962,40.8127,79.5628
12:32:37.971,38.9376,76.6878
12:32:37.981,37.6251,73.3128
12:32:37.992,33.6876,68.4378
12:32:38.001,30.1876,61.1252
12:32:38.011,26.8751,55.1877
12:32:38.021,22.8126,49.4377
12:32:38.031,20.6251,43.8127
12:32:38.046,18.5626,39.6877
12:32:38.056,16.2501,34.9376
12:32:38.067,12.625,29.8126
12:32:38.076,9.25,24.4376
12:32:38.087,7.125,19.0001
12:32:38.096,4.875,15.0001
12:32:38.107,3.125,11.8125
12:32:38.116,2.0625,9.4375
12:32:38.126,2.1875,8.8125
12:32:38.136,4.25,9.4375
12:32:38.146,7,13.3751
12:32:38.156,9.25,16.0001
12:32:38.166,10.1875,18.0001
12:32:38.177,11.25,19.1876
12:32:38.186,12.9375,22.5001
12:32:38.197,13.6251,21.8126
12:32:38.206,13.0625,22.3126
12:32:38.216,11.6875,21.8751
12:32:38.227,9.875,18.5626
12:32:38.236,6.75,15.1251
12:32:38.246,4.75,11.125
12:32:38.256,2.3125,6.6875
12:32:38.267,0.25,3.0625
12:32:38.276,-2.75,-1.75
12:32:38.287,-5.6875,-5.8125
12:32:38.297,-9.0625,-10.8125
12:32:38.308,-11.1875,-15.6876
12:32:38.316,-14.5626,-20.3751
12:32:38.326,-17.3751,-26.8751
12:32:38.336,-20.9376,-31.4376
12:32:38.346,-25.1876,-36.5001
12:32:38.359,-27.4376,-41.6877
12:32:38.378,-29.0626,-45.4377
12:32:38.383,-31.1251,-49.3752
12:32:38.398,-34.1876,-53.1877
12:32:38.401,-35.5626,-57.2502
12:32:38.410,-39.4377,-60.9377
12:32:38.416,-41.1877,-64.6877
12:32:38.426,-44.0002,-69.0003
12:32:38.437,-46.9377,-71.8753
12:32:38.447,-49.5002,-77.3128
12:32:38.456,-52.6877,-81.3753
12:32:38.466,-55.3127,-84.6253
12:32:38.476,-57.6252,-88.6878
12:32:38.486,-60.8127,-90.9379
12:32:38.496,-63.0002,-95.6879
12:32:38.506,-65.3753,-98.0629
12:32:38.516,-67.5003,-98.5004
12:32:38.526,-68.0628,-101.8129
12:32:38.537,-69.0003,-101.9379
12:32:38.546,-69.0628,-103.6879
12:32:38.557,-70.3753,-103.5629
12:32:38.566,-70.2503,-104.8754
12:32:38.576,-68.6253,-104.7504
12:32:38.586,-69.0628,-103.5629
12:32:38.596,-65.5627,-98.5004
12:32:38.606,-58.9377,-89.0628
12:32:38.616,-51.0627,-75.5003
12:32:38.627,-41.3752,-59.8127
12:32:38.636,-29.6251,-42.0627
12:32:38.646,-19.0626,-23.0001
12:32:38.657,-8.4375,-6.6875
12:32:38.666,0.25,9.375
12:32:38.693,5.4375,22.1251
12:32:38.698,10.25,29.1876
12:32:38.711,13.3126,33.9376
12:32:38.713,13.4376,36.1876
12:32:38.717,13.2501,35.5626
12:32:38.726,12.1875,34.5626
12:32:38.736,10.625,30.2501
12:32:38.746,8.6875,27.3751
12:32:38.756,6.375,21.3751
12:32:38.766,5.875,19.6251
12:32:38.776,4.25,16.5001
12:32:38.786,1.6875,11.5625
12:32:38.796,-0.5,7.4375
12:32:38.807,-4,3
12:32:38.817,-6.5625,-3.3125
12:32:38.826,-9.875,-7.6875
12:32:38.836,-12.5625,-12.875
12:32:38.846,-14.0001,-15.4376
12:32:38.857,-14.6876,-17.6251
12:32:38.867,-14.0001,-17.8126
12:32:38.876,-13.1251,-17.4376
12:32:38.886,-12.25,-15.0626
12:32:38.897,-10.6875,-13
12:32:38.906,-10.1875,-10.375
12:32:38.916,-9.1875,-8.125
12:32:38.926,-7.5,-6.5
12:32:38.936,-6.875,-3.625
12:32:38.947,-5.75,-3.1875
12:32:38.957,-6.6875,-1.875
12:32:38.966,-6.4375,-2.8125
12:32:38.976,-5.75,-2.5
12:32:38.988,-8.625,-4.3125
12:32:38.996,-9,-7.1875
12:32:39.006,-9.625,-8.125
12:32:39.016,-12.3125,-10.625
12:32:39.026,-14.5626,-15.1876
12:32:39.037,-16.6251,-17.8126
12:32:39.046,-18.8751,-21.6876
12:32:39.056,-20.3126,-25.2501
12:32:39.066,-20.6251,-27.3751
12:32:39.083,-20.5001,-25.6876
12:32:39.087,-21.3126,-29.7501
12:32:39.106,-22.3751,-31.6876
12:32:39.108,-23.7501,-32.8126
12:32:39.122,-23.6251,-34.4376
12:32:39.139,-22.3751,-33.7501
12:32:39.141,-21.8126,-33.7501
12:32:39.148,-21.0001,-33.4376
12:32:39.156,-20.1876,-33.3126
12:32:39.167,-20.6876,-34.5626
12:32:39.176,-21.3751,-35.2501
12:32:39.186,-22.0001,-36.8126
12:32:39.196,-22.5001,-37.9376
12:32:39.206,-24.0626,-39.4377
12:32:39.216,-24.3126,-41.0627
12:32:39.227,-23.6251,-41.0002
12:32:39.236,-21.8126,-40.3127
12:32:39.246,-22.1251,-39.7502
12:32:39.257,-23.0001,-42.0002
12:32:39.266,-24.2501,-44.5002
12:32:39.276,-25.0626,-45.0627
12:32:39.287,-25.4376,-47.5002
12:32:39.296,-26.6876,-48.6252
12:32:39.306,-26.2501,-49.4377
12:32:39.318,-26.6876,-49.3127
12:32:39.326,-26.1251,-49.3127
12:32:39.336,-22.5626,-43.6877
12:32:39.348,-17.3126,-36.0001
12:32:39.356,-9.8125,-22.8751
12:32:39.367,-0.5625,-9.3125
12:32:39.376,9.25,8.1875
12:32:39.387,18.4376,24.6876
12:32:39.397,27.4376,40.9377
12:32:39.409,34.6876,54.5002
12:32:39.416,39.6877,65.8128
12:32:39.426,42.4377,72.4378
12:32:39.437,44.0002,76.8753
12:32:39.446,44.3752,78.9378
12:32:39.458,43.5002,76.7503
12:32:39.466,40.5002,73.3753
12:32:39.476,37.2501,68.0003
12:32:39.487,33.3751,62.8127
12:32:39.496,29.7501,56.8127
12:32:39.506,25.4376,52.0002
12:32:39.516,23.1876,45.9377
12:32:39.527,18.9376,41.7502
12:32:39.536,16.3126,36.3751
12:32:39.546,12.25,30.2501
12:32:39.556,9.125,25.4376
12:32:39.566,7.0625,20.4376
12:32:39.576,3.5625,15.9376
12:32:39.586,2,12.75
12:32:39.596,-0.625,11.0625
12:32:39.606,-1.1875,8.9375
12:32:39.617,-2.5,8.25
12:32:39.626,-1.5625,9
12:32:39.636,-0.5625,11.5
12:32:39.647,1.5625,14.1251
12:32:39.656,1.9375,16.7501
12:32:39.666,3.1875,18.6251
12:32:39.684,4.4375,21.0626
12:32:39.692,6.5,24.6251
12:32:39.707,8.125,26.8126
12:32:39.710,9.0625,28.7501
12:32:39.725,10.4375,31.4376
12:32:39.727,12.9375,33.9376
12:32:39.736,18.0001,39.6252
12:32:39.746,22.3126,45.4377
12:32:39.756,27.2501,51.9377
12:32:39.766,29.7501,56.0002
12:32:39.777,32.7501,58.8752
12:32:39.787,37.1251,64.8753
12:32:39.797,40.5627,68.8753
12:32:39.828,41.9377,72.0003
12:32:39.831,41.9377,71.5003
12:32:39.833,42.2502,72.1253
12:32:39.836,42.5627,71.6253
12:32:39.871,41.5627,71.3128
12:32:39.873,41.7502,70.8753
12:32:39.875,41.7502,71.5628
12:32:39.877,42.5002,71.6253
12:32:39.908,43.1877,71.6878
12:32:39.911,42.8752,71.6878
12:32:39.912,43.1877,70.3128
12:32:39.917,41.3752,67.9378
12:32:39.946,39.8752,66.1253
12:32:39.948,38.3126,64.7502
12:32:39.950,37.5001,61.6877
12:32:39.977,35.0626,60.0627
12:32:39.980,33.4376,56.0627
12:32:39.982,29.8751,51.9377
12:32:39.987,27.2501,47.5002
12:32:40.020,23.4376,43.6877
12:32:40.022,19.6251,39.8752
12:32:40.024,16.2501,33.6876
12:32:40.028,12.5,28.6251
12:32:40.059,9.5625,24.3751
12:32:40.061,6.125,19.3126
12:32:40.062,4.6875,16.3126
12:32:40.068,4.9375,16.0626
12:32:40.103,7.75,21.1251
12:32:40.105,12.375,28.8126
12:32:40.108,19.6876,39.1876
12:32:40.113,27.0001,52.2502
12:32:40.138,34.5626,65.6253
12:32:40.140,40.1252,76.6253
12:32:40.142,44.2502,86.0628
12:32:40.170,48.3127,92.3129
12:32:40.171,50.0627,97.8129
12:32:40.175,50.6252,99.5629
12:32:40.183,50.8127,99.0629
12:32:40.187,48.5002,96.5629
12:32:40.219,46.0002,92.3754
12:32:40.222,42.6877,87.9378
12:32:40.224,39.9377,83.0628
12:32:40.227,39.3126,78.6253
12:32:40.260,35.9376,74.6253
12:32:40.261,33.8126,70.6878
12:32:40.263,32.0626,67.0628
12:32:40.266,29.0001,61.9377
12:32:40.306,25.6251,57.6252
12:32:40.308,23.2501,52.9377
12:32:40.310,21.3751,48.7502
12:32:40.339,19.7501,44.2502
12:32:40.340,19.2501,41.8752
12:32:40.342,17.6251,39.7502
12:32:40.348,14.6251,36.0001
12:32:40.351,14.4376,33.8126
12:32:40.374,12.1875,32.8126
12:32:40.378,13.0625,30.8751
12:32:40.379,11.5,31.5001
12:32:40.408,12.0625,30.1251
12:32:40.411,11.4375,30.3126
12:32:40.446,10.6875,30.2501
12:32:40.447,9.625,29.5001
12:32:40.482,8.6875,27.1251
12:32:40.486,7.25,24.9376
12:32:40.486,5.625,21.6251
12:32:40.486,3.1875,17.9376
12:32:40.486,0.75,14.7501
12:32:40.517,-2.5625,10.3125
12:32:40.520,-6.1875,4.3125
12:32:40.522,-11.1875,-1.375
12:32:40.525,-14.1876,-7.625
12:32:40.531,-17.3751,-13.2501
12:32:40.564,-20.0626,-17.3751
12:32:40.565,-22.5626,-21.6251
12:32:40.568,-24.2501,-26.1876
12:32:40.573,-26.0001,-29.8126
12:32:40.599,-28.5626,-34.3126
12:32:40.601,-30.0626,-38.3751
12:32:40.604,-32.8126,-41.9377
12:32:40.632,-35.4376,-44.8752
12:32:40.635,-37.7501,-48.3752
12:32:40.638,-39.2501,-50.6252
12:32:40.642,-40.0627,-53.5002
12:32:40.679,-46.0627,-61.5002
12:32:40.681,-48.1877,-64.5002
12:32:40.682,-51.1252,-68.3128
12:32:40.685,-53.8127,-70.3753
12:32:40.717,-55.8127,-73.9378
12:32:40.720,-56.3752,-75.0003
12:32:40.722,-55.9377,-75.5628
12:32:40.725,-57.5627,-74.8753
12:32:40.731,-57.2502,-77.0628
12:32:40.764,-58.1252,-77.1878
12:32:40.765,-59.3127,-79.0003
12:32:40.771,-60.0002,-80.1253
12:32:40.772,-60.2502,-80.0628
12:32:40.803,-58.4377,-79.0628
12:32:40.830,-55.1877,-74.1253
12:32:40.831,-49.3752,-66.3128
12:32:40.832,-42.5627,-54.4377
12:32:40.834,-30.3751,-37.0626
12:32:40.836,-19.1876,-18.2501
12:32:40.841,-8.1875,0.1875
12:32:40.852,1.5625,19.1251
12:32:40.862,12.8125,35.0626
12:32:40.871,19.6251,50.4377
12:32:40.882,25.1251,58.8752
12:32:40.892,28.6876,65.4377
12:32:40.903,29.1876,67.1878
12:32:40.912,29.6251,68.0003
12:32:40.922,28.5626,66.5628
12:32:40.932,27.6876,64.1252
12:32:40.942,25.2501,60.3752
12:32:40.952,24.0001,56.2502
12:32:40.961,20.9376,52.7502
12:32:40.972,18.8126,49.3127
12:32:40.992,18.1251,45.6877
12:32:41.001,16.4376,44.2502
12:32:41.015,16.0001,41.1877
12:32:41.017,14.5626,37.9376
12:32:41.032,12.4375,35.5001
12:32:41.034,11.6875,32.5626
12:32:41.042,10.4375,31.4376
12:32:41.052,9.4375,31.3126
12:32:41.061,10.8125,31.1251
12:32:41.071,13.1876,35.7501
12:32:41.083,16.0626,39.3127
12:32:41.091,18.2501,44.5627
12:32:41.102,21.5626,48.8752
12:32:41.112,23.8751,54.7502
12:32:41.122,25.3751,58.5002
12:32:41.133,27.5001,61.6877
12:32:41.142,27.2501,63.0002
12:32:41.152,27.8751,63.0627
12:32:41.161,27.0001,63.1877
12:32:41.171,26.6876,62.3127
12:32:41.182,25.1251,60.0627
12:32:41.191,23.5001,58.1252
12:32:41.202,22.1251,54.8752
12:32:41.213,20.3126,50.8127
12:32:41.222,18.0626,47.9377
12:32:41.252,15.6876,43.0002
12:32:41.255,12.875,39.5002
12:32:41.257,11.5,36.4376
12:32:41.262,9.9375,32.9376
12:32:41.272,8.9375,30.3751
12:32:41.282,7.625,28.3751
12:32:41.292,6,25.6876
12:32:41.308,5,23.5626
12:32:41.313,4.9375,21.5626
12:32:41.322,5.1875,21.2501
12:32:41.332,6.125,21.0626
12:32:41.342,6.875,22.6251
12:32:41.352,10.625,26.1876
12:32:41.362,13.7501,29.0626
12:32:41.371,15.1876,30.8751
12:32:41.382,16.6251,33.3126
12:32:41.392,15.8126,30.6876
12:32:41.401,15.1251,30.2501
12:32:41.411,14.1251,28.4376
12:32:41.422,12.1875,26.1876
12:32:41.433,11.25,23.2501
12:32:41.443,11.125,23.7501
12:32:41.452,11.0625,21.5626
12:32:41.462,10.375,20.4376
12:32:41.472,9.625,19.1876
12:32:41.482,9.3125,18.8751
12:32:41.492,10.5,19.0001
12:32:41.503,12.1875,20.2501
12:32:41.512,14.8751,24.4376
12:32:41.521,20.1251,32.6251
12:32:41.532,28.3126,43.6877
12:32:41.542,37.6251,58.9377
12:32:41.551,46.3752,74.5003
12:32:41.562,54.9377,89.6878
12:32:41.572,61.8127,103.4379
12:32:41.582,67.1878,115.3129
12:32:41.592,71.0628,124.8755
12:32:41.603,74.7503,130.188
12:32:41.612,74.4378,132.438
12:32:41.622,73.1253,131.7505
12:32:41.632,70.8753,128.688
12:32:41.641,68.1878,123.5005
12:32:41.652,65.1877,118.688
12:32:41.663,61.9377,114.9379
12:32:41.672,58.7502,108.5629
12:32:41.682,56.0002,103.4379
12:32:41.692,52.0002,97.9379
12:32:41.703,48.6252,93.1254
12:32:41.712,45.1252,86.0628
12:32:41.728,40.5002,78.4378
12:32:41.744,34.6251,72.4378
12:32:41.746,30.7501,66.0003
12:32:41.756,26.1876,59.6877
12:32:41.762,22.8751,52.4377
12:32:41.771,20.2501,47.8752
12:32:41.782,18.7501,45.7502
12:32:41.792,18.0626,42.3752
12:32:41.802,18.6251,42.3127
12:32:41.814,17.7501,41.8752
12:32:41.822,18.7501,42.0627
12:32:41.833,18.1251,42.1252
12:32:41.841,18.0001,41.2502
12:32:41.852,15.6876,39.5627
12:32:41.862,12.5625,34.8126
12:32:41.871,8.1875,28.8126
12:32:41.882,3.5,22.6251
12:32:41.892,-1.3125,13.7501
12:32:41.903,-6.4375,6.5625
12:32:41.912,-8.6875,1.0625
12:32:41.922,-13.8126,-7.125
12:32:41.933,-18.1876,-12.9375
12:32:41.942,-21.6251,-19.9376
12:32:41.955,-26.1251,-26.1251
12:32:41.963,-28.7501,-32.1876
12:32:41.972,-32.0626,-37.3126
12:32:41.982,-34.6251,-40.5002
12:32:41.992,-37.1876,-45.3752
12:32:42.002,-38.1876,-48.0002
12:32:42.012,-39.3127,-49.1877
12:32:42.022,-41.6252,-51.1877
12:32:42.032,-41.5002,-51.5002
12:32:42.043,-41.4377,-53.1877
12:32:42.059,-41.3127,-53.4377
12:32:42.067,-41.3752,-51.6877
12:32:42.077,-40.5627,-53.6252
12:32:42.088,-41.1252,-53.0627
12:32:42.097,-41.6252,-53.8127
12:32:42.107,-40.6877,-54.0002
12:32:42.118,-41.3127,-53.0002
12:32:42.127,-39.4377,-53.4377
12:32:42.138,-38.2501,-52.3127
12:32:42.147,-37.3126,-50.3752
12:32:42.157,-36.2501,-50.6252
12:32:42.168,-36.6876,-50.0627
12:32:42.177,-36.3751,-50.6252
12:32:42.187,-36.6876,-50.0627
12:32:42.197,-35.9376,-50.4377
12:32:42.207,-35.0626,-48.6252
12:32:42.219,-35.0626,-49.4377
12:32:42.227,-33.0626,-45.8752
12:32:42.237,-29.6251,-39.3752
12:32:42.247,-22.7501,-32.1251
12:32:42.257,-14.2501,-17.6876
12:32:42.268,-4.1875,-1.4375
12:32:42.277,7.375,17.5626
12:32:42.287,17.6876,36.3751
12:32:42.308,28.0001,53.5627
12:32:42.313,36.5001,69.5628
12:32:42.320,41.3752,81.8128
12:32:42.331,46.0627,87.8753
12:32:42.337,48.0627,92.8129
12:32:42.352,46.7502,92.8754
12:32:42.361,45.6252,91.0004
12:32:42.367,43.1877,88.6253
12:32:42.378,41.3752,83.9378
12:32:42.388,38.5001,80.5003
12:32:42.398,36.3126,75.6878
12:32:42.408,33.6251,71.3753
12:32:42.417,30.5626,67.9378
12:32:42.434,29.5001,63.3127
12:32:42.436,26.6251,60.9377
12:32:42.447,24.9376,56.0002
12:32:42.458,22.2501,52.0627
12:32:42.467,20.6876,48.2502
12:32:42.478,18.9376,43.5627
12:32:42.487,16.4376,39.8127
12:32:42.498,14.6251,36.5001
12:32:42.507,12.875,33.0626
12:32:42.533,11.3125,30.5626
12:32:42.536,10.625,29.3126
12:32:42.540,8.9375,27.1876
12:32:42.547,8,26.6876
12:32:42.559,7.0625,25.0001
12:32:42.567,6.8125,24.6876
12:32:42.577,7.125,24.2501
12:32:42.587,5.9375,23.5001
12:32:42.597,5.375,23.0001
12:32:42.607,4.375,20.0626
12:32:42.618,2.5,17.5626
12:32:42.627,1.4375,14.3126
12:32:42.637,-1.0625,12
12:32:42.648,-3.0625,7.5
12:32:42.657,-5.8125,2.625
12:32:42.667,-8.25,-1.8125
12:32:42.677,-10.5,-5.625
12:32:42.687,-12.9375,-9.0625
12:32:42.697,-16.5001,-14.0001
12:32:42.707,-18.8126,-18.1251
12:32:42.717,-20.6876,-21.8126
12:32:42.727,-22.8751,-25.0001
12:32:42.737,-24.7501,-29.3126
12:32:42.747,-26.5001,-32.9376
12:32:42.757,-28.5626,-36.8126
12:32:42.767,-31.1876,-39.5002
12:32:42.777,-33.8126,-43.1877
12:32:42.789,-35.8751,-47.3752
12:32:42.798,-36.9376,-50.8127
12:32:42.810,-39.0626,-52.5627
12:32:42.817,-40.9377,-56.6252
12:32:42.827,-43.1252,-60.0627
12:32:42.837,-45.0627,-63.8127
12:32:42.847,-47.0627,-67.4378
12:32:42.857,-49.1877,-71.4378
12:32:42.867,-52.0002,-74.5003
12:32:42.877,-54.1877,-79.8128
12:32:42.887,-57.0627,-82.5628
12:32:42.897,-58.3752,-86.6878
12:32:42.907,-59.9377,-86.9378
12:32:42.917,-60.5627,-90.7503
12:32:42.927,-61.6252,-91.6879
12:32:42.937,-62.5002,-94.1254
12:32:42.947,-63.0002,-94.3754
12:32:42.957,-62.8752,-95.7504
12:32:42.968,-61.9377,-94.4379
12:32:42.978,-59.7502,-91.6879
12:32:42.988,-53.6252,-81.9378
12:32:42.997,-45.6877,-69.6253
12:32:43.007,-36.6876,-53.2502
12:32:43.017,-26.4376,-36.7501
12:32:43.038,-15.8126,-17.1876
12:32:43.041,-6.125,-0.5
12:32:43.049,1.75,14.3751
12:32:43.057,7.0625,26.2501
12:32:43.072,17.1251,37.8126
12:32:43.087,24.3751,48.9377
12:32:43.088,27.7501,53.1877
12:32:43.097,28.4376,54.0627
12:32:43.107,29.2501,53.5002
12:32:43.118,29.9376,51.4377
12:32:43.127,31.1251,51.0002
12:32:43.137,30.5626,47.7502
12:32:43.147,32.6876,47.2502
12:32:43.157,33.3126,46.8752
12:32:43.167,36.1876,45.0627
12:32:43.184,39.1252,44.9377
12:32:43.187,40.6252,43.8752
12:32:43.197,43.1252,40.8752
12:32:43.208,44.6877,37.6876
12:32:43.217,46.5627,33.9376
12:32:43.227,48.5627,30.6251
12:32:43.237,49.3127,26.7501
12:32:43.248,51.3752,23.3126
12:32:43.257,52.0002,19.8126
12:32:43.267,53.6877,17.5626
12:32:43.277,55.6877,16.6251
12:32:43.287,57.3752,15.8126
12:32:43.298,60.3752,16.6876
12:32:43.307,61.9377,16.1251
12:32:43.317,62.5627,14.9376
12:32:43.327,64.1252,13.4376
12:32:43.337,63.7502,12.75
12:32:43.347,63.4377,9.3125
12:32:43.358,62.7502,5.0625
12:32:43.367,61.0627,1.5
12:32:43.377,59.3752,-3.8125
12:32:43.387,56.8752,-9.0625
12:32:43.397,54.2502,-13.8751
12:32:43.407,51.3752,-19.5001
12:32:43.417,48.0002,-25.5626
12:32:43.427,45.7502,-31.0626
12:32:43.438,43.1252,-35.3751
12:32:43.447,41.3127,-39.5002
12:32:43.458,39.3127,-42.7502
12:32:43.467,38.1876,-46.6252
12:32:43.477,35.7501,-49.5002
12:32:43.488,34.0626,-53.1252
12:32:43.498,32.6876,-56.0002
12:32:43.507,31.1251,-58.4377
12:32:43.517,29.8126,-61.4377
12:32:43.527,27.1251,-63.8127
12:32:43.537,25.9376,-65.8128
12:32:43.547,24.5626,-67.7503
12:32:43.558,23.2501,-69.8753
12:32:43.567,21.8751,-71.2503
12:32:43.577,20.7501,-72.7503
12:32:43.587,18.7501,-74.1878
12:32:43.598,18.0626,-75.8128
12:32:43.607,16.6876,-76.8128
12:32:43.617,16.0626,-77.5628
12:32:43.639,14.5001,-78.5003
12:32:43.643,14.5626,-79.4378
12:32:43.658,12.875,-79.9378
12:32:43.661,13,-79.8128
12:32:43.671,12,-79.4378
12:32:43.677,12.8125,-78.7503
12:32:43.687,12.0625,-78.2503
12:32:43.697,13.8126,-76.8128
12:32:43.707,15.5626,-72.7503
12:32:43.717,20.5001,-64.2502
12:32:43.727,27.3751,-51.2502
12:32:43.737,38.3751,-34.0626
12:32:43.747,47.8752,-14.7501
12:32:43.757,59.0002,7.5625
12:32:43.767,69.1878,28.7501
12:32:43.779,79.3753,47.8127
12:32:43.787,87.1253,64.9377
12:32:43.812,92.0629,77.0628
12:32:43.817,93.6879,85.3128
12:32:43.817,95.0004,90.0003
12:32:43.828,93.8129,90.2503
12:32:43.839,91.8129,89.9378
12:32:43.848,88.8128,86.2503
12:32:43.857,85.0003,81.6878
12:32:43.868,81.8128,76.4378
12:32:43.877,76.8128,71.3753
12:32:43.887,73.0003,66.8128
12:32:43.898,70.3753,61.9377
12:32:43.907,67.2503,57.7502
12:32:43.917,64.1252,53.1252
12:32:43.931,60.4377,47.9377
12:32:43.938,55.1877,41.6877
12:32:43.948,51.1877,34.6876
12:32:43.957,47.7502,30.1876
12:32:43.967,45.8127,26.3126
12:32:43.977,44.3752,24.0626
12:32:43.987,42.0627,22.7501
12:32:43.997,42.1877,22.7501
12:32:44.021,41.8752,24.2501
12:32:44.023,42.1877,25.2501
12:32:44.027,42.7502,27.0001
12:32:44.057,42.5627,29.0626
12:32:44.058,41.6877,28.8126
12:32:44.060,40.3127,28.1251
12:32:44.092,38.8126,28.1876
12:32:44.094,37.6251,25.4376
12:32:44.096,35.5626,23.8126
12:32:44.123,32.2501,20.8126
12:32:44.125,29.5626,17.5626
12:32:44.129,26.3751,12.75
12:32:44.131,21.8126,7
12:32:44.162,16.8126,0.6875
12:32:44.165,10.5625,-6.0625
12:32:44.167,6.125,-12.4375
12:32:44.197,1,-18.1876
12:32:44.198,-3.5625,-23.6876
12:32:44.202,-7.125,-29.3751
12:32:44.208,-9.5625,-33.9376
12:32:44.213,-12,-36.6251
12:32:44.246,-14.5626,-40.1877
12:32:44.247,-17.3126,-43.8127
12:32:44.251,-19.9376,-46.4377
12:32:44.252,-23.3126,-52.2502
12:32:44.259,-25.5001,-55.3127
12:32:44.288,-27.0001,-56.6877
12:32:44.290,-28.8751,-60.6252
12:32:44.294,-30.7501,-62.6252
12:32:44.299,-32.8751,-65.1252
12:32:44.328,-35.9376,-67.6878
12:32:44.331,-38.0001,-70.0628
12:32:44.334,-39.8752,-73.7503
12:32:44.365,-42.6877,-75.6878
12:32:44.366,-43.1252,-76.6878
12:32:44.401,-44.1877,-78.0003
12:32:44.428,-44.9377,-80.3128
12:32:44.431,-46.1877,-81.3128
12:32:44.431,-46.5627,-82.1878
12:32:44.431,-47.4377,-83.3753
12:32:44.432,-48.6877,-83.6253
12:32:44.438,-48.0627,-83.2503
12:32:44.441,-45.5627,-78.8753
12:32:44.442,-39.8127,-70.0003
12:32:44.475,-31.5626,-55.3752
12:32:44.478,-21.5001,-37.2501
12:32:44.481,-9.75,-18.1876
12:32:44.483,0.4375,3
12:32:44.525,11.1875,21.5626
12:32:44.525,18.8751,38.5001
12:32:44.530,25.0001,50.3752
12:32:44.536,28.1876,60.7502
12:32:44.537,31.9376,65.9378
12:32:44.549,32.6251,68.8753
12:32:44.554,32.3126,69.2503
12:32:44.586,31.5001,65.5002
12:32:44.590,27.5001,61.1252
12:32:44.591,24.4376,55.0627
12:32:44.597,21.6876,51.0002
12:32:44.604,19.0001,45.7502
12:32:44.632,16.3126,41.3127
12:32:44.635,14.3751,36.0001
12:32:44.637,10.375,29.5626
12:32:44.644,7.5625,23.6251
12:32:44.671,4.3125,18.6876
12:32:44.674,2.1875,13.7501
12:32:44.682,1.0625,9.875
12:32:44.688,0.625,7
12:32:44.692,1.25,7.875
12:32:44.733,2.0625,7.9375
12:32:44.734,3.25,10.75
12:32:44.736,4.8125,12.875
12:32:44.740,6.625,15.9376
12:32:44.773,7.5625,18.1251
12:32:44.775,9.5625,20.8751
12:32:44.777,10.4375,22.5626
12:32:44.782,10.0625,24.3751
12:32:44.785,9.5625,23.5001
12:32:44.792,8.625,21.6251
12:32:44.823,6.875,20.9376
12:32:44.825,5.875,17.8126
12:32:44.827,3.5625,13.9376
12:32:44.834,1.5625,10.4375
12:32:44.870,-0.6875,6.375
12:32:44.871,-3.5,2.1875
12:32:44.875,-5.6875,-2.8125
12:32:44.876,-8.1875,-5.875
12:32:44.882,-10.0625,-9.0625
12:32:44.918,-12.1875,-13.3751
12:32:44.920,-13.6251,-16.3126
12:32:44.922,-14.7501,-18.1251
12:32:44.925,-16.0001,-23.0001
12:32:44.935,-16.8751,-24.6251
12:32:44.979,-17.8126,-26.9376
12:32:45.016,-18.5001,-29.1876
12:32:45.019,-19.4376,-30.8751
12:32:45.021,-19.6876,-33.1876
12:32:45.021,-20.2501,-35.2501
12:32:45.021,-21.6876,-37.1876
12:32:45.029,-22.0001,-39.5627
12:32:45.037,-21.8751,-39.5002
12:32:45.047,-22.3126,-41.6252
12:32:45.058,-22.6876,-41.0627
12:32:45.067,-22.5001,-42.4377
12:32:45.092,-21.5001,-42.0627
12:32:45.095,-21.3751,-40.3127
12:32:45.098,-20.2501,-40.8127
12:32:45.108,-18.9376,-38.8751
12:32:45.118,-17.0001,-34.5001
12:32:45.127,-11.8125,-28.7501
12:32:45.137,-4.5,-16.4376
12:32:45.147,4.3125,-1.75
12:32:45.157,14.6251,16.5626
12:32:45.168,25.4376,36.6251
12:32:45.177,36.0626,55.4377
12:32:45.187,61.9377,110.3754
12:32:45.198,64.6877,114.8754
12:32:45.207,65.1878,118.313
12:32:45.217,65.5003,118.5005
12:32:45.227,63.9377,115.5004
12:32:45.237,62.0627,112.9379
12:32:45.247,58.8127,107.0629
12:32:45.257,56.3752,102.1879
12:32:45.268,53.3752,98.1879
12:32:45.277,51.0627,91.8129
12:32:45.288,47.8127,88.0003
12:32:45.298,45.0002,81.5628
12:32:45.307,41.9377,75.8128
12:32:45.317,36.4376,68.0003
12:32:45.327,33.1876,61.1252
12:32:45.337,29.3126,55.1877
12:32:45.348,25.7501,49.5627
12:32:45.357,23.8126,45.3752
12:32:45.367,22.0001,42.9377
12:32:45.377,21.8126,42.4377
12:32:45.387,22.3126,42.5002
12:32:45.397,23.1876,43.7502
12:32:45.407,23.5001,45.3752
12:32:45.418,24.8126,47.0627
12:32:45.432,24.6251,48.3752
12:32:45.437,24.0001,49.1252
12:32:45.447,23.8751,48.2502
12:32:45.457,23.5626,48.0627
12:32:45.467,20.8751,44.5627
12:32:45.477,19.3751,43.1252
12:32:45.487,16.8751,38.8751
12:32:45.498,14.8126,34.5626
12:32:45.507,12,30.1876
12:32:45.517,9.5,25.9376
12:32:45.527,6.375,21.0626
12:32:45.537,2.9375,16.5626
12:32:45.547,0.9375,11.75
12:32:45.557,-3.125,6.6875
12:32:45.568,-5.625,1.3125
12:32:45.577,-8.0625,-3.1875
12:32:45.587,-11,-7.25
12:32:45.597,-13.6876,-11.625
12:32:45.607,-16.3751,-15.6876
12:32:45.617,-17.2501,-19.7501
12:32:45.627,-19.5626,-22.0001
12:32:45.637,-21.0001,-24.3751
12:32:45.647,-22.5001,-28.2501
12:32:45.658,-23.1876,-29.6251
12:32:45.667,-24.2501,-32.5626
12:32:45.685,-25.2501,-34.6876
12:32:45.687,-24.7501,-35.3751
12:32:45.702,-25.5626,-36.8751
12:32:45.707,-25.6251,-37.0001
12:32:45.717,-25.6251,-37.5001
12:32:45.727,-24.6251,-37.7501
12:32:45.737,-23.5001,-35.6251
12:32:45.747,-20.1251,-32.5001
12:32:45.757,-15.0001,-23.4376
12:32:45.767,-7.5625,-12.625
12:32:45.777,2.875,4.875
12:32:45.787,13.6876,24.6876
12:32:45.798,25.8751,44.7502
12:32:45.807,37.6251,65.9378
12:32:45.817,46.2502,83.5628
12:32:45.827,54.3752,99.0629
12:32:45.837,59.8752,111.0629
12:32:45.847,63.2502,116.8129
12:32:45.857,64.2502,121.688
12:32:45.868,63.4377,120.813
12:32:45.878,62.6877,119.438
12:32:45.887,59.8127,116.6879
12:32:45.897,57.8127,111.3754
12:32:45.907,55.6252,106.9379
12:32:45.917,52.4377,102.4379
12:32:45.927,51.5002,97.8129
12:32:45.938,48.8752,94.8754
12:32:45.947,46.2502,89.2503
12:32:45.958,42.8752,84.6253
12:32:45.967,38.3751,75.6878
12:32:45.977,34.0626,68.2503
12:32:45.987,30.3751,61.8127
12:32:45.997,27.4376,56.6877
12:32:46.007,25.4376,51.7502
12:32:46.017,23.5001,49.2502
12:32:46.028,23.6876,48.3752
12:32:46.037,22.4376,46.8127
12:32:46.047,23.6876,47.5627
12:32:46.057,23.5626,48.4377
12:32:46.067,24.3751,49.6252
12:32:46.077,24.3751,49.8752
12:32:46.088,23.5626,50.0627
12:32:46.102,22.9376,48.9377
12:32:46.112,21.1251,46.1252
12:32:46.123,19.5001,43.6252
12:32:46.132,17.8126,40.4377
12:32:46.142,15.2501,37.0001
12:32:46.153,12.8125,31.9376
12:32:46.162,9.9375,27.9376
12:32:46.172,7.25,23.7501
12:32:46.188,5.9375,18.2501
12:32:46.193,2.4375,14.5626
12:32:46.202,1.0625,8.9375
12:32:46.212,-1.6875,4.9375
12:32:46.223,-3.5,0.875
12:32:46.232,-4.625,-2.8125
12:32:46.242,-6.9375,-6.375
12:32:46.260,-7.8125,-9.6875
12:32:46.266,-10.625,-14.1251
12:32:46.281,-11.5,-16.6876
12:32:46.283,-13.4376,-20.1251
12:32:46.293,-14.6876,-22.1876
12:32:46.302,-15.6876,-25.5626
12:32:46.314,-17.1876,-27.7501
12:32:46.323,-18.1876,-30.9376
12:32:46.332,-20.8126,-32.9376
12:32:46.342,-21.6876,-35.1251
12:32:46.374,-22.3751,-38.5626
12:32:46.376,-23.4376,-38.8751
12:32:46.379,-23.3751,-40.1877
12:32:46.385,-24.0001,-42.0002
12:32:46.393,-23.4376,-41.3127
12:32:46.402,-21.8126,-40.3752
12:32:46.412,-19.9376,-36.8126
12:32:46.423,-14.6251,-30.3126
12:32:46.432,-6.5,-17.3751
12:32:46.442,4.25,-0.6875
12:32:46.452,16.0001,20.2501
12:32:46.464,28.0626,40.8752
12:32:46.472,39.6877,62.8752
12:32:46.482,49.9377,81.4378
12:32:46.493,59.1877,97.6254
12:32:46.502,65.6877,111.1254
12:32:46.513,68.6253,117.7505
12:32:46.522,69.9378,121.188
12:32:46.532,69.9378,121.6255
12:32:46.544,68.2503,118.3755
12:32:46.553,64.3127,114.6879
12:32:46.562,61.0627,108.1879
12:32:46.572,58.6252,102.5629
12:32:46.584,54.5002,96.8129
12:32:46.592,52.1252,91.4379
12:32:46.603,49.3752,87.1253
12:32:46.612,47.4377,82.6878
12:32:46.623,43.6252,77.7503
12:32:46.632,39.9377,71.4378
12:32:46.642,35.7501,62.8752
12:32:46.654,31.6251,56.8752
12:32:46.663,28.3751,49.2502
12:32:46.673,24.7501,44.2502
12:32:46.682,22.4376,39.8127
12:32:46.694,20.5001,35.0626
12:32:46.703,19.8126,34.1251
12:32:46.714,19.5001,32.9376
12:32:46.722,20.6251,34.1876
12:32:46.733,21.1876,35.5626
12:32:46.743,21.6876,37.3751
12:32:46.752,23.4376,39.4377
12:32:46.762,23.9376,41.1252
12:32:46.773,24.3751,41.6877
12:32:46.784,24.2501,41.8752
12:32:46.792,23.4376,40.6252
12:32:46.803,22.3751,37.3751
12:32:46.813,21.0001,35.1251
12:32:46.823,19.1251,31.9376
12:32:46.833,16.4376,28.5001
12:32:46.842,14.3126,25.0001
12:32:46.854,11.4375,19.8126
12:32:46.862,9.0625,15.1251
12:32:46.872,5.125,10.0625
12:32:46.883,2.375,5.25
12:32:46.892,-0.4375,0.0625
12:32:46.903,-4.25,-5.3125
12:32:46.912,-7.1875,-10.875
12:32:46.922,-9.6875,-15.8126
12:32:46.939,-12.375,-19.0626
12:32:46.943,-14.8751,-23.2501
12:32:46.954,-16.9376,-27.0001
12:32:46.964,-18.2501,-31.0626
12:32:46.981,-21.0001,-34.9376
12:32:46.983,-22.5001,-37.8751
12:32:46.999,-24.5626,-41.8752
12:32:47.003,-26.1876,-45.5002
12:32:47.012,-27.9376,-48.1252
12:32:47.023,-29.1251,-50.9377
12:32:47.033,-31.0001,-52.6877
12:32:47.042,-31.9376,-55.3127
12:32:47.053,-32.4376,-57.0627
12:32:47.062,-34.0626,-58.2502
12:32:47.074,-34.5001,-59.8127
12:32:47.082,-33.8751,-59.0002
12:32:47.094,-32.6251,-56.8752
12:32:47.103,-27.6251,-50.1252
12:32:47.114,-20.6251,-38.0626
12:32:47.123,-10.375,-22.3751
12:32:47.132,1.3125,-2.25
12:32:47.144,12.75,18.1251
12:32:47.152,24.3126,41.1252
12:32:47.163,34.4376,58.0627
12:32:47.173,43.7502,74.8753
12:32:47.183,48.5002,86.1878
12:32:47.193,52.5002,93.3129
12:32:47.203,54.0627,97.8754
12:32:47.213,53.0002,96.5629
12:32:47.222,51.5627,95.0629
12:32:47.234,49.4377,90.7504
12:32:47.242,47.3752,87.0628
12:32:47.253,44.3752,83.2503
12:32:47.264,42.6252,77.6878
12:32:47.274,40.8752,74.6878
12:32:47.283,38.1251,70.0628
12:32:47.295,35.8126,65.5628
12:32:47.303,32.8751,59.9377
12:32:47.312,29.1876,53.1252
12:32:47.323,25.1251,47.1252
12:32:47.334,21.0626,40.1252
12:32:47.344,18.2501,32.6251
12:32:47.352,14.6251,27.8126
12:32:47.364,12.5625,22.2501
12:32:47.373,10.4375,19.5001
12:32:47.384,9.6875,17.9376
12:32:47.393,9.5625,16.6251
12:32:47.403,9.75,16.6251
12:32:47.413,10.1875,17.3751
12:32:47.422,9.875,18.0626
12:32:47.432,9.5,18.8126
12:32:47.443,9.375,17.7501
12:32:47.453,8.3125,16.5626
12:32:47.463,7,15.6876
12:32:47.474,5.375,12.125
12:32:47.483,3.4375,8.5
12:32:47.493,0.8125,4.9375
12:32:47.502,-1.6875,0.6875
12:32:47.513,-4.375,-3.4375
12:32:47.523,-7.0625,-8.125
12:32:47.534,-9.6875,-12.8125
12:32:47.543,-11.1875,-17.3126
12:32:47.562,-13.8751,-21.3751
12:32:47.567,-16.4376,-25.0001
12:32:47.582,-18.2501,-29.6251
12:32:47.584,-19.5626,-33.8126
12:32:47.592,-21.6876,-37.5626
12:32:47.604,-23.6876,-40.8127
12:32:47.614,-26.1251,-43.2502
12:32:47.622,-27.1876,-47.1877
12:32:47.653,-29.1251,-50.6877
12:32:47.655,-30.3126,-54.2502
12:32:47.658,-31.8751,-57.1252
12:32:47.664,-33.8126,-59.1877
12:32:47.674,-35.0626,-63.4377
12:32:47.685,-36.0626,-65.3127
12:32:47.694,-38.5626,-66.8128
12:32:47.703,-38.7501,-70.3753
12:32:47.712,-39.3126,-72.3128
12:32:47.723,-40.2502,-72.9378
12:32:47.734,-39.9377,-73.5628
12:32:47.743,-41.0002,-75.8753
12:32:47.753,-40.6252,-76.0003
12:32:47.763,-42.3127,-77.1253
12:32:47.773,-41.5627,-77.3753
12:32:47.783,-40.3752,-74.5003
12:32:47.793,-36.2501,-70.3128
12:32:47.803,-29.3751,-58.8752
12:32:47.813,-20.9376,-44.6877
12:32:47.823,-9.5,-26.5001
12:32:47.834,1.5,-5.5
12:32:47.844,12.8125,14.6251
12:32:47.853,22.0001,34.5626
12:32:47.863,31.3751,49.1877
12:32:47.874,37.1251,62.1877
12:32:47.883,41.6252,70.8128
12:32:47.893,43.6877,75.1878
12:32:47.903,44.8752,78.2503
12:32:47.914,43.8127,76.1878
12:32:47.923,42.2502,73.0003
12:32:47.934,39.8752,69.5003
12:32:47.943,36.6876,64.2502
12:32:47.954,34.3126,60.0627
12:32:47.963,31.5626,55.5627
12:32:47.974,29.3751,51.0627
12:32:47.985,27.0626,47.7502
12:32:47.993,23.8126,42.7502
12:32:48.003,21.6251,37.3751
12:32:48.013,17.1251,29.6251
12:32:48.023,13.8126,22.7501
12:32:48.033,10.75,16.6251
12:32:48.043,7.5625,11.8125
12:32:48.054,7.0625,8.25
12:32:48.062,4.875,5.6875
12:32:48.074,4.9375,3.9375
12:32:48.084,4.9375,3.9375
12:32:48.094,5.875,4.625
12:32:48.104,6.125,5.5
12:32:48.113,7.875,6.5625
12:32:48.123,7.3125,7.125
12:32:48.133,7.8125,7.5
12:32:48.143,6.8125,7.5625
12:32:48.153,6.5625,6.4375
12:32:48.163,5.25,3.5625
12:32:48.196,3.1875,1.4375
12:32:48.198,1.25,-2
12:32:48.201,-1.3125,-5.9375
12:32:48.203,-3.6875,-10.0625
12:32:48.235,-5.875,-14.6876
12:32:48.237,-8,-18.0626
12:32:48.239,-10.5,-23.1876
12:32:48.245,-13.1251,-27.3126
12:32:48.281,-15.6251,-32.2501
12:32:48.311,-18.6876,-36.5001
12:32:48.313,-21.1876,-41.6877
12:32:48.316,-24.5001,-45.3127
12:32:48.317,-26.6876,-49.9377
12:32:48.317,-29.5001,-54.1252
12:32:48.359,-32.5626,-57.6252
12:32:48.362,-34.6251,-61.4377
12:32:48.365,-36.1876,-66.1878
12:32:48.367,-37.7501,-67.5628
12:32:48.368,-39.1876,-70.8128
12:32:48.396,-39.5627,-72.7503
12:32:48.399,-41.1877,-73.6878
12:32:48.402,-41.6252,-76.1253
12:32:48.408,-41.9377,-77.5003
12:32:48.413,-42.7502,-78.2503
12:32:48.450,-43.3127,-80.3753
12:32:48.452,-43.0002,-81.5003
12:32:48.453,-44.5002,-80.6253
12:32:48.456,-44.1252,-82.6878
12:32:48.486,-44.1877,-83.0003
12:32:48.489,-43.9377,-82.4378
12:32:48.491,-39.5002,-77.8128
12:32:48.497,-33.5001,-68.2503
12:32:48.514,-25.3751,-55.2502
12:32:48.515,-14.7501,-39.6877
12:32:48.550,-2.875,-20.6251
12:32:48.552,7.375,-0.9375
12:32:48.560,17.1251,16.6251
12:32:48.588,26.3126,33.3751
12:32:48.590,32.8751,44.6252
12:32:48.591,38.0001,53.5002
12:32:48.594,38.6876,58.8127
12:32:48.598,39.3126,59.5002
12:32:48.629,37.8751,58.8752
12:32:48.631,35.8126,54.3752
12:32:48.633,33.5001,50.3127
12:32:48.636,30.4376,45.4377
12:32:48.666,28.4376,41.3752
12:32:48.668,25.3751,36.1876
12:32:48.672,22.8126,31.8126
12:32:48.673,19.4376,26.3751
12:32:48.685,16.5626,19.7501
12:32:48.698,13.3126,14.5001
12:32:48.703,9.9375,7.125
12:32:48.732,6.125,0.75
12:32:48.733,3.25,-3.5625
12:32:48.736,1.1875,-7.5
12:32:48.767,0.375,-10.6875
12:32:48.768,0.625,-11.4375
12:32:48.771,1.0625,-11.1875
12:32:48.775,2.9375,-9.625
12:32:48.810,4.5625,-6.875
12:32:48.813,5.75,-5.125
12:32:48.813,7.4375,-2.75
12:32:48.840,7.75,-1.375
12:32:48.841,9.125,-0.5625
12:32:48.843,7.875,-1.5625
12:32:48.848,7,-2.3125
12:32:48.880,6.3125,-4.3125
12:32:48.882,4.1875,-5.8125
12:32:48.885,3.3125,-9.6875
12:32:48.887,0.4375,-12.5625
12:32:48.921,-0.5625,-16.7501
12:32:48.923,-2.4375,-20.3751
12:32:48.929,-4.75,-24.5001
12:32:48.943,-7.5,-27.6251
12:32:48.946,-9.625,-32.3126
12:32:48.990,-11.375,-34.4376
12:32:48.991,-12.4375,-38.6251
12:32:48.991,-14.5626,-40.7502
12:32:48.991,-15.2501,-44.6252
12:32:48.994,-16.3126,-46.9377
12:32:49.000,-18.7501,-49.9377
12:32:49.015,-19.5626,-52.5002
12:32:49.018,-21.6251,-54.8752
12:32:49.045,-22.4376,-57.8127
12:32:49.047,-24.6251,-61.0002
12:32:49.050,-26.6876,-62.8752
12:32:49.068,-28.0001,-66.6253
12:32:49.068,-28.3126,-68.3128
12:32:49.097,-29.6876,-69.5003
12:32:49.100,-30.3126,-71.0628
12:32:49.102,-29.9376,-71.1878
12:32:49.105,-31.4376,-72.2503
12:32:49.136,-31.0001,-72.1253
12:32:49.139,-31.0001,-72.9378
12:32:49.141,-29.8751,-71.3753
12:32:49.143,-29.7501,-68.6878
12:32:49.155,-25.5001,-65.5003
12:32:49.163,-19.4376,-55.8127
12:32:49.197,-13.0625,-42.8752
12:32:49.200,-3.75,-29.5001
12:32:49.202,6.1875,-11.25
12:32:49.205,15.3751,4.625
12:32:49.214,24.5001,21.8126
12:32:49.224,31.0001,33.8751
12:32:49.234,35.8126,45.0002
12:32:49.243,38.8751,50.9377
12:32:49.254,40.0002,54.7502
12:32:49.263,38.5626,54.0627
12:32:49.273,37.1251,51.6877
12:32:49.284,33.0001,49.0627
12:32:49.293,30.0001,42.4377
12:32:49.303,27.0626,37.1251
12:32:49.313,22.7501,32.1251
12:32:49.324,20.1251,25.6251
12:32:49.334,16.9376,21.5001
12:32:49.343,13.1876,14.8126
12:32:49.353,9.3125,8.8125
12:32:49.363,4.9375,1.25
12:32:49.373,1.25,-4.625
12:32:49.383,-1.875,-10.9375
12:32:49.393,-4.5625,-16.5001
12:32:49.403,-6.1875,-20.0626
12:32:49.413,-7.875,-22.3751
12:32:49.423,-8.3125,-23.5001
12:32:49.433,-8.375,-24.1876
12:32:49.443,-7.125,-22.9376
12:32:49.454,-5.9375,-20.5001
12:32:49.464,-5.3125,-18.3126
12:32:49.473,-4.6875,-17.8126
12:32:49.484,-3.0625,-16.7501
12:32:49.493,-3.3125,-16.6251
12:32:49.503,-3.875,-16.1876
12:32:49.514,-4.4375,-17.9376
12:32:49.523,-6.3125,-20.5001
12:32:49.533,-8.5625,-22.1251
12:32:49.544,-10.5625,-26.9376
12:32:49.554,-12.125,-30.8126
12:32:49.573,-14.8751,-33.1876
12:32:49.576,-16.8751,-38.6876
12:32:49.590,-19.1251,-41.3127
12:32:49.595,-21.1876,-46.0002
12:32:49.603,-23.0001,-50.1252
12:32:49.613,-24.8126,-53.1877
12:32:49.623,-26.1251,-55.7502
12:32:49.634,-27.7501,-58.7502
12:32:49.646,-29.3751,-61.3127
12:32:49.653,-29.7501,-63.6252
12:32:49.664,-32.0001,-66.1253
12:32:49.675,-33.1251,-68.8753
12:32:49.686,-34.6251,-70.5628
12:32:49.694,-35.6876,-72.8128
12:32:49.703,-36.2501,-75.2503
12:32:49.713,-36.7501,-75.9378
12:32:49.723,-37.7501,-77.3753
12:32:49.733,-37.8126,-78.3753
12:32:49.744,-38.5001,-79.1878
12:32:49.754,-38.7501,-79.6253
12:32:49.763,-38.2501,-79.8128
12:32:49.773,-38.1876,-79.8128
12:32:49.784,-38.3126,-78.4378
12:32:49.794,-36.0001,-77.6878
12:32:49.807,-31.6876,-71.8128
12:32:49.813,-26.6876,-62.7502
12:32:49.823,-18.9376,-51.7502
12:32:49.833,-8.6875,-34.6876
12:32:49.844,1.1875,-16.1251
12:32:49.857,12.625,0.8125
12:32:49.864,22.9376,18.9376
12:32:49.873,29.8751,33.8126
12:32:49.883,36.6251,45.2502
12:32:49.893,40.6877,54.4377
12:32:49.904,42.5627,56.6252
12:32:49.914,42.6877,58.3752
12:32:49.924,41.0627,58.8127
12:32:49.933,39.7502,53.6252
12:32:49.943,37.0001,49.6252
12:32:49.953,33.7501,44.6877
12:32:49.963,31.3126,39.3751
12:32:49.974,28.3126,35.9376
12:32:49.983,26.6251,31.0626
12:32:49.993,24.8126,27.0001
12:32:50.003,21.5001,22.8126
12:32:50.014,18.5001,15.1251
12:32:50.023,14.1251,9.4375
12:32:50.034,10.8125,2.9375
12:32:50.043,7.875,-2.375
12:32:50.053,6.125,-6.75
12:32:50.064,4.3125,-9.5
12:32:50.073,4.6875,-11
12:32:50.083,4.25,-10.4375
12:32:50.093,5.25,-9.0625
12:32:50.103,6.5,-8.75
12:32:50.139,7.4375,-6.25
12:32:50.141,9.1875,-5.125
12:32:50.146,10.125,-3.25
12:32:50.161,10.4375,-2.3125
12:32:50.163,10.875,-1.5
12:32:50.186,10.6875,-2.3125
12:32:50.187,10,-3.25
12:32:50.213,8.6875,-6.1875
12:32:50.215,7.3125,-7.625
12:32:50.221,5.3125,-11.5625
12:32:50.221,3.25,-14.0001
12:32:50.228,0.4375,-19.7501
12:32:50.240,-1.9375,-22.3126
12:32:50.248,-4.5625,-27.9376
12:32:50.259,-6.3125,-30.0001
12:32:50.268,-9.25,-35.3126
12:32:50.278,-13.2501,-40.5002
12:32:50.288,-15.1251,-45.3127
12:32:50.298,-17.0626,-47.1252
12:32:50.308,-19.0001,-51.5627
12:32:50.318,-20.9376,-53.3127
12:32:50.328,-22.6876,-58.3127
12:32:50.338,-25.0001,-60.6252
12:32:50.350,-27.0626,-64.2502
12:32:50.358,-29.0001,-67.6878
12:32:50.368,-31.8126,-70.5003
12:32:50.378,-33.0626,-73.1253
12:32:50.389,-34.9376,-74.5628
12:32:50.399,-35.6251,-77.0628
12:32:50.408,-37.1251,-77.8128
12:32:50.418,-38.0626,-80.0628
12:32:50.428,-39.4377,-81.8128
12:32:50.439,-40.1252,-82.2503
12:32:50.448,-41.7502,-82.5628
12:32:50.459,-42.1877,-82.0003
12:32:50.469,-42.6877,-78.8753
12:32:50.478,-39.4377,-71.3753
12:32:50.488,-37.4376,-61.0002
12:32:50.500,-33.9376,-49.1877
12:32:50.508,-33.2501,-37.3126
12:32:50.518,-35.1251,-27.7501
12:32:50.528,-37.0626,-18.3751
12:32:50.538,-43.3127,-14.7501
12:32:50.548,-53.3127,-14.6876
12:32:50.558,-62.8752,-16.0001
12:32:50.568,-78.2503,-22.7501
12:32:50.578,-87.3753,-26.8751
12:32:50.588,-92.1879,-26.8751
12:32:50.599,-94.0004,-24.4376
12:32:50.609,-92.3129,-20.1876
12:32:50.618,-88.8753,-15.1876
12:32:50.628,-87.7503,-9.75
12:32:50.638,-87.8128,-10.5
12:32:50.648,-88.0003,-9.375
12:32:50.658,-88.4378,-9.125
12:32:50.668,-87.3128,-9.375
12:32:50.678,-86.9378,-8.9375
12:32:50.688,-86.5628,-10.375
12:32:50.698,-86.9378,-11.5
12:32:50.708,-87.1253,-13.4376
12:32:50.722,-86.4378,-14.6251
12:32:50.730,-86.3753,-14.6876
12:32:50.740,-85.7503,-16.5001
12:32:50.748,-84.4378,-16.8751
12:32:50.759,-83.1253,-16.1251
12:32:50.768,-82.2503,-13.8126
12:32:50.780,-79.1253,-13.2501
12:32:50.788,-77.8128,-12.375
12:32:50.799,-75.5003,-10.875
12:32:50.809,-74.6878,-8.75
12:32:50.818,-71.8753,-9.375
12:32:50.829,-70.0003,-7.875
12:32:50.839,-68.5003,-6.9375
12:32:50.848,-66.1253,-7.0625
12:32:50.870,-63.1252,-6
12:32:50.888,-63.0002,-6.0625
12:32:50.891,-62.4377,-9.1875
12:32:50.892,-61.5627,-9.6875
12:32:50.898,-60.5002,-13.1876
12:32:50.908,-60.4377,-16.5001
12:32:50.918,-62.3127,-20.7501
12:32:50.933,-65.9378,-26.0626
12:32:50.938,-69.0628,-33.6876
12:32:50.949,-72.3753,-40.2502
12:32:50.958,-75.8753,-46.6252
12:32:50.968,-80.4378,-54.5002
12:32:50.978,-84.1253,-61.6252
12:32:50.990,-90.3128,-69.0003
12:32:50.998,-95.9379,-79.1878
12:32:51.008,-101.1254,-88.3753
12:32:51.018,-107.5629,-96.7504
12:32:51.029,-112.8129,-105.4379
12:32:51.038,-118.2505,-114.1254
12:32:51.048,-122.688,-121.438
12:32:51.059,-126.688,-128.1255
12:32:51.068,-130.8755,-133.938
12:32:51.078,-133.313,-139.1255
12:32:51.089,-136.7505,-142.563
12:32:51.098,-138.3755,-147.1256
12:32:51.108,-140.8755,-150.3756
12:32:51.119,-140.813,-152.0631
12:32:51.129,-140.688,-152.1881
12:32:51.138,-139.063,-151.8131
12:32:51.148,-135.0005,-147.438
12:32:51.160,-129.2505,-138.7505
12:32:51.168,-120.813,-126.3755
12:32:51.178,-110.1254,-111.2504
12:32:51.188,-97.8754,-93.1879
12:32:51.198,-86.8128,-73.5628
12:32:51.209,-76.2503,-57.7502
12:32:51.218,-65.9378,-42.3752
12:32:51.229,-58.6252,-29.8751
12:32:51.239,-52.9377,-21.4376
12:32:51.248,-49.1877,-16.5626
12:32:51.258,-46.7502,-12.625
12:32:51.269,-45.0002,-11.9375
12:32:51.278,-41.4377,-12.375
12:32:51.288,-30.1876,-6.5625
12:32:51.298,-27.6876,-9.75
12:32:51.308,-20.3751,-5.5
12:32:51.318,-21.3751,-8.1875
12:32:51.331,-24.3126,-12.6875
12:32:51.338,-37.6876,-25.5001
12:32:51.350,-49.1252,-37.3751
12:32:51.358,-55.3752,-44.4377
12:32:51.370,-61.1877,-52.0627
12:32:51.380,-63.5002,-55.4377
12:32:51.388,-66.3128,-58.8752
12:32:51.398,-66.4378,-62.6877
12:32:51.408,-65.8753,-62.3127
12:32:51.418,-64.0627,-63.3127
12:32:51.430,-62.1252,-62.3752
12:32:51.438,-60.8127,-60.3127
12:32:51.455,-59.7502,-60.0627
12:32:51.461,-56.6252,-56.3752
12:32:51.492,-55.1877,-54.5627
12:32:51.509,-52.8127,-51.5002
12:32:51.522,-51.0627,-48.8127
12:32:51.524,-49.2502,-48.2502
12:32:51.527,-49.6252,-46.1252
12:32:51.532,-49.3127,-46.3752
12:32:51.532,-49.3752,-46.8752
12:32:51.539,-51.1877,-49.0002
12:32:51.548,-51.2502,-50.6252
12:32:51.558,-53.5002,-52.6877
12:32:51.570,-53.5002,-55.3127
12:32:51.579,-53.5627,-55.8127
12:32:51.588,-54.6877,-58.1877
12:32:51.599,-54.5627,-59.3127
12:32:51.610,-56.3127,-60.6877
12:32:51.619,-56.5002,-64.4377
12:32:51.630,-58.6252,-66.0628
12:32:51.639,-59.0002,-68.9378
12:32:51.648,-60.0002,-70.1253
12:32:51.658,-59.7502,-72.2503
12:32:51.668,-60.5627,-73.0628
12:32:51.684,-61.0002,-76.4378
12:32:51.689,-61.5002,-78.3128
12:32:51.698,-61.2502,-79.8128
12:32:51.708,-62.0627,-80.2503
12:32:51.720,-63.0002,-82.6878
12:32:51.728,-62.6252,-84.3128
12:32:51.739,-64.4377,-86.6878
12:32:51.748,-64.7502,-87.8128
12:32:51.758,-63.0627,-87.6253
12:32:51.769,-62.8127,-86.3753
12:32:51.779,-60.9377,-87.1253
12:32:51.788,-60.8127,-87.4378
12:32:51.801,-60.4377,-87.5003
12:32:51.810,-58.3752,-86.8753
12:32:51.818,-58.4377,-87.3753
12:32:51.828,-58.0627,-87.5628
12:32:51.838,-56.6877,-88.3753
12:32:51.849,-57.2502,-88.3753
12:32:51.861,-56.6252,-89.0003
12:32:51.871,-53.8752,-86.5003
12:32:51.880,-50.6252,-81.1253
12:32:51.889,-43.8127,-71.0628
12:32:51.907,-36.7501,-59.1252
12:32:51.909,-29.4376,-47.5627
12:32:51.945,-22.0626,-35.0001
12:32:51.948,-12.5625,-18.2501
12:32:51.951,-7.875,-9.25
12:32:51.954,-5,-2.8125
12:32:51.958,-5.25,-0.25
12:32:51.989,-5.8125,-0.75
12:32:51.992,-6.9375,-1.375
12:32:51.993,-9.375,-5.25
12:32:51.999,-12.125,-7.9375
12:32:52.034,-15.3126,-14.1876
12:32:52.035,-18.3126,-19.8751
12:32:52.040,-22.4376,-23.5626
12:32:52.041,-24.2501,-28.9376
12:32:52.075,-27.4376,-31.5626
12:32:52.079,-29.3126,-37.4376
12:32:52.079,-31.8751,-41.5002
12:32:52.115,-35.1251,-46.5627
12:32:52.115,-38.5626,-52.9377
12:32:52.117,-41.4377,-57.1252
12:32:52.123,-44.6877,-63.1252
12:32:52.125,-47.0002,-66.5628
12:32:52.131,-48.4377,-69.0628
12:32:52.158,-47.5627,-71.1253
12:32:52.193,-47.6252,-69.1253
12:32:52.194,-45.8127,-68.6878
12:32:52.211,-43.5627,-66.5628
12:32:52.283,-41.7502,-64.0002
12:32:52.283,-38.7501,-60.6877
12:32:52.283,-37.0626,-57.6877
12:32:52.283,-33.2501,-54.2502
12:32:52.287,-27.8126,-50.2502
12:32:52.291,-20.9376,-45.5627
12:32:52.292,-18.2501,-44.6252
12:32:52.292,-8.5,-38.1251
12:32:52.300,-2.125,-34.0001
12:32:52.335,2.9375,-29.5001
12:32:52.338,2.8125,-31.0001
12:32:52.340,-5.5,-37.8126
12:32:52.342,-20.2501,-51.1252
12:32:52.376,-36.0001,-66.9378
12:32:52.378,-44.7502,-74.9378
12:32:52.379,-50.1877,-81.0628
12:32:52.383,-54.6252,-84.2503
12:32:52.399,-54.3127,-85.0628
12:32:52.401,-51.8127,-84.9378
12:32:52.435,-49.8752,-85.0003
12:32:52.436,-51.5627,-86.5628
12:32:52.440,-52.5002,-87.3753
12:32:52.445,-53.1877,-88.3753
12:32:52.451,-53.6877,-89.6253
12:32:52.487,-60.5002,-98.5004
12:32:52.490,-61.1252,-98.7504
12:32:52.492,-61.4377,-98.8754
12:32:52.495,-62.0627,-100.6254
12:32:52.501,-63.5002,-101.6254
12:32:52.532,-65.4378,-102.3129
12:32:52.535,-65.5628,-104.6879
12:32:52.537,-65.1878,-103.4379
12:32:52.540,-64.2502,-104.3129
12:32:52.577,-63.0002,-104.1879
12:32:52.580,-64.5002,-105.2504
12:32:52.583,-64.7502,-106.0004
12:32:52.585,-64.5627,-104.4379
12:32:52.589,-60.0627,-99.5629
12:32:52.632,-53.0002,-89.0003
12:32:52.635,-42.6877,-76.1253
12:32:52.637,-31.6251,-59.3752
12:32:52.640,-17.0001,-39.8752
12:32:52.642,-2.5625,-18.0001
12:32:52.679,8.0625,-1.375
12:32:52.682,18.8751,15.8751
12:32:52.686,31.2501,34.5626
12:32:52.717,41.1877,50.1877
12:32:52.719,49.2502,61.9377
12:32:52.720,57.3127,73.3753
12:32:52.723,64.6252,83.4378
12:32:52.726,70.3128,89.8753
12:32:52.730,75.7503,94.8129
12:32:52.764,79.6878,100.3129
12:32:52.766,84.5628,105.5004
12:32:52.768,87.9378,110.9379
12:32:52.784,91.5629,114.6254
12:32:52.859,95.0004,119.0005
12:32:52.884,96.3129,118.563
12:32:52.886,95.8129,117.938
12:32:52.916,92.8754,113.8129
12:32:52.919,90.3129,110.3129
12:32:52.919,88.9378,106.3754
12:32:52.919,88.3128,105.5629
12:32:52.920,88.3128,104.2504
12:32:52.922,87.2503,103.0629
12:32:52.929,86.6878,102.3754
12:32:52.930,85.4378,99.8754
12:32:52.946,83.0628,95.9379
12:32:52.948,79.2503,92.7504
12:32:52.960,74.2503,87.6253
12:32:52.968,69.6878,83.8753
12:32:52.979,65.4377,76.6878
12:32:52.990,61.5002,72.5628
12:32:53.000,59.5627,68.1253
12:32:53.009,56.3752,65.3127
12:32:53.019,53.1252,59.9377
12:32:53.030,49.2502,53.6252
12:32:53.039,45.6877,48.0002
12:32:53.048,41.4377,41.4377
12:32:53.061,21.9376,9.125
12:32:53.068,18.6876,4.4375
12:32:53.078,16.0001,0.8125
12:32:53.090,15.3751,-1.8125
12:32:53.099,12.9375,-6.0625
12:32:53.109,11.5,-8.0625
12:32:53.120,9.375,-11.9375
12:32:53.129,8.5625,-13.8751
12:32:53.140,8.0625,-15.3751
12:32:53.150,7.9375,-14.8126
12:32:53.160,11.25,-12.6875
12:32:53.169,18.5626,-10.625
12:32:53.180,23.6251,-6.4375
12:32:53.190,33.8126,0.4375
12:32:53.199,42.8127,8.875
12:32:53.210,49.0002,14.8751
12:32:53.220,50.8127,16.9376
12:32:53.230,47.7502,14.6876
12:32:53.239,39.3126,8
12:32:53.248,29.4376,0.375
12:32:53.259,18.8751,-6.9375
12:32:53.270,14.6876,-11.5625
12:32:53.280,13.9376,-8.5
12:32:53.289,20.4376,-1.3125
12:32:53.299,32.8126,14.9376
12:32:53.308,50.3127,35.9376
12:32:53.318,65.6253,56.7502
12:32:53.330,81.0628,77.0003
12:32:53.338,93.6254,96.2504
12:32:53.349,104.3129,113.6254
12:32:53.360,113.8129,131.1255
12:32:53.370,122.6255,146.0005
12:32:53.379,130.6255,161.0631
12:32:53.391,137.438,173.5632
12:32:53.399,141.063,181.5007
12:32:53.409,141.8755,186.1257
12:32:53.419,141.1255,187.2507
12:32:53.431,138.8755,186.8757
12:32:53.439,136.313,183.5632
12:32:53.449,132.063,179.5007
12:32:53.459,126.813,173.2507
12:32:53.469,121.313,166.0006
12:32:53.481,116.3754,159.3756
12:32:53.493,110.5629,152.0006
12:32:53.499,106.0629,144.813
12:32:53.521,100.7504,136.688
12:32:53.523,94.1879,127.188
12:32:53.533,87.9378,118.438
12:32:53.539,82.6253,108.3754
12:32:53.557,77.5003,100.1254
12:32:53.572,72.4378,92.9379
12:32:53.574,68.6253,86.8128
12:32:53.581,65.7502,82.0628
12:32:53.589,62.8752,77.6878
12:32:53.600,61.2502,74.5003
12:32:53.609,59.7502,71.8128
12:32:53.619,58.5627,69.5003
12:32:53.630,58.3127,67.9378
12:32:53.640,57.5002,66.9378
12:32:53.649,55.7502,64.8127
12:32:53.659,54.7502,62.9377
12:32:53.669,51.7502,59.8752
12:32:53.680,50.6252,57.3752
12:32:53.694,49.3752,54.8127
12:32:53.703,49.6252,52.6252
12:32:53.710,48.8752,51.1877
12:32:53.721,47.8752,48.5627
12:32:53.729,45.8127,45.7502
12:32:53.740,44.2502,42.6252
12:32:53.750,42.4377,38.3126
12:32:53.761,40.4377,36.0001
12:32:53.769,37.7501,31.0001
12:32:53.780,35.5001,26.5626
12:32:53.789,32.9376,22.9376
12:32:53.799,29.7501,17.0626
12:32:53.810,26.5001,11.8125
12:32:53.819,23.2501,7.3125
12:32:53.831,19.0001,2.6875
12:32:53.839,15.6876,-3.0625
12:32:53.852,10.5,-9.75
12:32:53.859,5.6875,-15.2501
12:32:53.870,1.8125,-22.1251
12:32:53.879,-3,-28.2501
12:32:53.890,-6.8125,-33.0626
12:32:53.899,-10.8125,-38.5001
12:32:53.909,-14.0626,-43.1252
12:32:53.920,-15.7501,-46.5627
12:32:53.930,-19.4376,-50.0002
12:32:53.940,-21.6876,-52.4377
12:32:53.950,-23.6251,-56.3752
12:32:53.960,-25.8751,-58.5002
12:32:53.971,-27.1876,-62.1252
12:32:53.980,-29.8126,-63.4377
12:32:53.989,-29.9376,-65.5003
12:32:54.001,-30.9376,-66.1878
12:32:54.010,-30.5001,-65.6878
12:32:54.019,-30.0001,-66.8128
12:32:54.053,-29.8751,-64.7502
12:32:54.054,-28.0626,-63.0002
12:32:54.057,-23.2501,-55.6252
12:32:54.059,-16.8751,-47.0627
12:32:54.073,-8.3125,-34.5626
12:32:54.080,0.9375,-19.1251
12:32:54.090,11.0625,-5.125
12:32:54.102,20.9376,10.0625
12:32:54.110,28.3751,23.9376
12:32:54.119,36.2501,35.1251
12:32:54.139,41.2502,44.2502
12:32:54.145,43.5002,48.3127
12:32:54.154,48.5627,54.3127
12:32:54.159,53.2502,54.7502
12:32:54.176,55.4377,57.3752
12:32:54.182,59.3127,57.0627
12:32:54.191,63.8752,61.4377
12:32:54.200,67.6253,61.8127
12:32:54.215,71.7503,65.1252
12:32:54.225,74.4378,67.6878
12:32:54.237,76.5003,68.1253
12:32:54.245,77.0628,68.0628
12:32:54.255,77.0628,67.4378
12:32:54.264,75.2503,64.4377
12:32:54.275,70.3753,59.8752
12:32:54.285,65.5003,54.3127
12:32:54.299,56.5627,44.5002
12:32:54.305,43.8127,31.4376
12:32:54.315,33.0001,20.4376
12:32:54.324,22.1251,10.5625
12:32:54.335,13.3751,1.625
12:32:54.345,7.375,-2.5625
12:32:54.354,5.25,-6.8125
12:32:54.364,4.875,-6.625
12:32:54.376,8.125,-3.125
12:32:54.385,10.6875,-1.5
12:32:54.395,11.375,-1.625
12:32:54.405,11,-2.1875
12:32:54.415,10.8125,-2.25
12:32:54.424,10.5,-3.4375
12:32:54.434,8.875,-6
12:32:54.444,6.0625,-9.0625
12:32:54.456,3.125,-12.5625
12:32:54.464,1,-15.3126
12:32:54.474,-1.4375,-19.0001
12:32:54.484,-4.625,-22.1251
12:32:54.494,-6.4375,-26.0001
12:32:54.507,-9.3125,-28.6876
12:32:54.515,-11.125,-32.3751
12:32:54.524,-14.0001,-33.8126
12:32:54.535,-14.4376,-36.0626
12:32:54.545,-15.3126,-37.3751
12:32:54.554,-16.0626,-40.0002
12:32:54.567,-17.5626,-41.0627
12:32:54.575,-18.3126,-43.3127
12:32:54.584,-19.6876,-44.6252
12:32:54.594,-20.3751,-46.1877
12:32:54.604,-19.9376,-48.0002
12:32:54.621,-21.4376,-49.0627
12:32:54.626,-22.1876,-49.8127
12:32:54.635,-22.6876,-51.6252
12:32:54.644,-23.2501,-52.3127
12:32:54.655,-24.8751,-53.9377
12:32:54.666,-25.0626,-54.5627
12:32:54.674,-25.2501,-55.6252
12:32:54.684,-24.3126,-55.7502
12:32:54.694,-24.8751,-55.6252
12:32:54.704,-22.1876,-53.8752
12:32:54.714,-22.1251,-52.7502
12:32:54.724,-21.0626,-52.5627
12:32:54.735,-21.1876,-51.5627
12:32:54.745,-19.5626,-51.8752
12:32:54.755,-18.3751,-49.2502
12:32:54.767,-15.9376,-47.5627
12:32:54.775,-11.375,-40.9377
12:32:54.784,-5.625,-33.2501
12:32:54.794,2.8125,-21.2501
12:32:54.804,9.75,-10.25
12:32:54.814,18.8751,3.5
12:32:54.832,25.5626,17.0001
12:32:54.847,31.9376,25.9376
12:32:54.862,36.6876,35.1251
12:32:54.864,38.8126,39.5002
12:32:54.879,39.6252,40.6877
12:32:54.881,36.8126,39.3127
12:32:54.896,34.3126,35.0626
12:32:54.898,31.0001,31.5001
12:32:54.904,26.6251,24.7501
12:32:54.914,22.3126,19.3126
12:32:54.924,18.8126,13.8126
12:32:54.936,16.1876,8.25
12:32:54.944,11.6875,3.625
12:32:54.954,7.375,-2.5625
12:32:54.964,3.625,-7.5
12:32:54.974,-0.375,-15.3126
12:32:54.985,-5.5625,-21.8126
12:32:54.995,-8.4375,-26.4376
12:32:55.005,-11.3125,-32.6251
12:32:55.014,-14.0626,-35.8126
12:32:55.024,-17.1876,-38.8126
12:32:55.034,-17.9376,-42.6877
12:32:55.045,-18.5001,-44.0627
12:32:55.056,-18.5626,-43.5627
12:32:55.066,-17.5001,-43.1252
12:32:55.074,-17.4376,-41.8752
12:32:55.084,-16.6876,-41.3752
12:32:55.094,-15.7501,-39.8127
12:32:55.106,-15.0001,-38.1251
12:32:55.115,-13.8126,-37.1876
12:32:55.124,-13.1876,-34.8751
12:32:55.134,-12,-34.6876
12:32:55.144,-9.0625,-32.1251
12:32:55.154,-8.875,-31.2501
12:32:55.164,-7.1875,-30.6251
12:32:55.174,-7.25,-30.8126
12:32:55.184,-7.125,-30.3126
12:32:55.195,-6.625,-30.8126
12:32:55.210,-6.8125,-31.9376
12:32:55.215,-6.8125,-32.3126
12:32:55.226,-7.5625,-33.9376
12:32:55.235,-8.8125,-34.4376
12:32:55.244,-8.5625,-36.6876
12:32:55.256,-9.5,-37.8126
12:32:55.265,-7.625,-36.8751
12:32:55.274,-6.375,-37.8126
12:32:55.285,-3.5,-36.7501
12:32:55.295,-0.8125,-36.2501
12:32:55.305,2.375,-33.8751
12:32:55.332,6.875,-32.0001
12:32:55.334,12.875,-26.1251
12:32:55.338,17.7501,-21.5001
12:32:55.345,22.4376,-18.6251
12:32:55.355,26.9376,-13.3126
12:32:55.364,32.3126,-8.8125
12:32:55.375,36.5626,-3.375
12:32:55.385,39.0001,-1.5
12:32:55.394,39.0001,1.875
12:32:55.404,40.4377,3.3125
12:32:55.416,40.5627,6.5625
12:32:55.425,41.3127,6.625
12:32:55.434,40.3752,9.125
12:32:55.444,39.1877,8.3125
12:32:55.466,38.5626,8.5625
12:32:55.468,38.4376,9.75
12:32:55.477,38.3126,9.25
12:32:55.484,37.5626,11.1875
12:32:55.500,37.2501,10.875
12:32:55.508,35.6251,12.0625
12:32:55.515,38.1876,17.6876
12:32:55.524,42.8127,24.2501
12:32:55.536,47.3127,33.1251
12:32:55.544,47.1877,36.6876
12:32:55.555,34.0001,28.1251
12:32:55.564,27.0626,25.2501
12:32:55.574,25.5001,29.7501
12:32:55.584,23.5626,29.7501
12:32:55.594,26.8751,33.5001
12:32:55.604,32.1251,40.8752
12:32:55.615,38.6251,47.1877
12:32:55.624,40.9377,50.6252
12:32:55.634,40.1877,49.1877
12:32:55.644,37.4376,46.1252
12:32:55.654,34.0001,41.7502
12:32:55.664,31.8126,36.4376
12:32:55.674,27.8751,31.4376
12:32:55.685,24.4376,26.6251
12:32:55.694,20.9376,21.3126
12:32:55.704,17.3126,15.6876
12:32:55.714,14.1876,10.75
12:32:55.724,12.375,7.4375
12:32:55.734,9.125,3.4375
12:32:55.744,7.3125,0.25
12:32:55.754,5.6875,-3.5625
12:32:55.764,3.9375,-6.125
12:32:55.774,3.375,-7.875
12:32:55.784,2.8125,-9.5625
12:32:55.795,3.75,-7.6875
12:32:55.804,4.5625,-8.125
12:32:55.814,5.1875,-6.4375
12:32:55.824,7.0625,-4.8125
12:32:55.835,7.3125,-4.125
12:32:55.844,8.375,-3.125
12:32:55.855,8.125,-3.0625
12:32:55.865,8.5,-2.5625
12:32:55.874,8.25,-3.8125
12:32:55.885,7.625,-4.5
12:32:55.894,6.6875,-5.3125
12:32:55.904,6.3125,-5.6875
12:32:55.914,5.875,-8.4375
12:32:55.925,4.5625,-9
12:32:55.936,5.4375,-10.5
12:32:55.944,4.6875,-11.5
12:32:55.960,4.875,-13.7501
12:32:55.964,3.4375,-14.0626
12:32:55.975,2.875,-17.8751
12:32:55.985,1.5625,-18.6876
12:32:55.996,0.875,-22.4376
12:32:56.005,-0.625,-22.8126
12:32:56.015,-1.125,-27.3126
12:32:56.025,-2.75,-29.1251
12:32:56.034,-5.1875,-33.3751
12:32:56.046,-6.9375,-36.8751
12:32:56.054,-10.375,-41.4377
12:32:56.066,-12.875,-45.2502
12:32:56.078,-17.2501,-50.1252
12:32:56.095,-21.0626,-55.8127
12:32:56.097,-26.2501,-61.0002
12:32:56.125,-29.4376,-66.6253
12:32:56.127,-34.5626,-72.4378
12:32:56.129,-36.8751,-76.1253
12:32:56.189,-40.3127,-79.7503
12:32:56.223,-43.1252,-82.8128
12:32:56.226,-45.3752,-86.8753
12:32:56.260,-47.8752,-90.1253
12:32:56.260,-49.6877,-92.9379
12:32:56.260,-52.0627,-96.1879
12:32:56.261,-52.7502,-97.1879
12:32:56.292,-53.5002,-98.8129
12:32:56.293,-54.5002,-99.0629
12:32:56.295,-54.0627,-100.1879
12:32:56.295,-53.3752,-98.0629
12:32:56.301,-49.9377,-95.3129
12:32:56.328,-44.6252,-86.8753
12:32:56.331,-36.2501,-77.2503
12:32:56.333,-28.1876,-62.0627
12:32:56.340,-18.3126,-48.0002
12:32:56.377,-9.0625,-31.5626
12:32:56.379,1,-16.8751
12:32:56.381,8.6875,-2.6875
12:32:56.386,16.0626,8.625
12:32:56.422,21.0001,16.5001
12:32:56.422,23.4376,22.1876
12:32:56.425,26.3126,23.7501
12:32:56.428,26.0626,23.0626
12:32:56.459,25.2501,21.6251
12:32:56.460,25.7501,20.3751
12:32:56.462,25.1251,18.2501
12:32:56.466,22.7501,13.5001
12:32:56.504,21.1876,9.3125
12:32:56.505,18.8126,7.125
12:32:56.507,18.3751,3.5625
12:32:56.510,16.5626,2.5625
12:32:56.517,16.3751,0.9375
12:32:56.544,18.1251,0.4375
12:32:56.547,17.5001,1.375
12:32:56.549,17.6251,2
12:32:56.558,18.5626,1.875
12:32:56.564,18.7501,4.25
12:32:56.601,20.1876,4.3125
12:32:56.605,21.4376,5.125
12:32:56.607,23.4376,7.375
12:32:56.622,25.1251,8.25
12:32:56.622,28.9376,10.625
12:32:56.627,32.4376,13.9376
12:32:56.635,38.6251,18.0626
12:32:56.664,43.4377,21.7501
12:32:56.666,48.6877,27.1251
12:32:56.669,54.7502,31.6876
12:32:56.674,59.8127,35.9376
12:32:56.718,64.0002,38.7501
12:32:56.719,62.8752,40.1252
12:32:56.724,60.3127,38.1251
12:32:56.724,58.8127,35.8126
12:32:56.729,56.8127,33.8126
12:32:56.736,54.5627,31.5001
12:32:56.767,50.6252,27.6876
12:32:56.770,46.6877,23.3126
12:32:56.844,42.5002,19.4376
12:32:56.846,38.6876,14.8126
12:32:56.883,33.9376,8.625
12:32:56.915,28.2501,1.6875
12:32:56.915,13.8126,-11.1875
12:32:56.915,-1.8125,-27.1251
12:32:56.916,-14.7501,-41.5002
12:32:56.917,-22.4376,-50.2502
12:32:56.922,-28.6251,-55.8752
12:32:56.927,-29.8126,-59.1877
12:32:56.961,-29.6876,-59.8752
12:32:56.968,-28.1876,-59.1877
12:32:56.969,-27.6251,-57.5627
12:32:56.974,-27.5626,-57.7502
12:32:56.978,-29.5626,-60.1252
12:32:57.010,-32.1876,-63.6877
12:32:57.012,-34.5626,-64.6252
12:32:57.016,-35.5001,-67.2503
12:32:57.021,-36.0001,-68.2503
12:32:57.024,-36.3751,-68.6253
12:32:57.057,-34.0001,-66.3753
12:32:57.060,-30.6251,-62.2502
12:32:57.062,39.6877,45.6252
12:32:57.092,45.3127,53.1252
12:32:57.093,48.9377,58.6877
12:32:57.107,49.3752,63.1877
12:32:57.107,50.1252,63.2502
12:32:57.107,50.8752,62.7502
12:32:57.114,49.1252,61.1877
12:32:57.124,47.2502,57.4377
12:32:57.135,44.8752,54.0627
12:32:57.147,42.6877,49.1252
12:32:57.154,40.8752,45.5002
12:32:57.165,37.7501,40.8752
12:32:57.174,34.5001,36.5001
12:32:57.185,30.5626,30.1876
12:32:57.195,25.8751,22.6876
12:32:57.204,21.5626,16.8126
12:32:57.214,16.7501,9.1875
12:32:57.224,14.3751,3.1875
12:32:57.234,15.5626,4.6875
12:32:57.244,12.9375,1.9375
12:32:57.255,10.875,-1.9375
12:32:57.266,9.1875,-3.0625
12:32:57.275,8.125,-3.4375
12:32:57.284,9.6875,-3.1875
12:32:57.295,10.25,-1.6875
12:32:57.307,10.8125,-0.4375
12:32:57.314,10.375,-1.375
12:32:57.324,10.5,-0.6875
12:32:57.334,10.5,-1.125
12:32:57.349,11.0625,-0.9375
12:32:57.355,11.0625,-1.375
12:32:57.365,10.75,-3.6875
12:32:57.374,8.875,-6.1875
12:32:57.385,6.25,-10.5625
12:32:57.396,2.25,-14.3126
12:32:57.405,-1.25,-19.5626
12:32:57.415,-4.6875,-24.2501
12:32:57.424,-6.875,-28.3751
12:32:57.437,-7.9375,-31.1876
12:32:57.444,-9.6875,-34.0001
12:32:57.455,-12.3125,-37.5626
12:32:57.466,-14.7501,-40.5627
12:32:57.476,-16.3751,-43.0627
12:32:57.486,-16.3126,-44.5627
12:32:57.496,-16.9376,-43.6252
12:32:57.504,-16.0001,-43.5627
12:32:57.516,-14.9376,-41.6252
12:32:57.524,-12.3125,-39.1251
12:32:57.542,-8.25,-34.9376
12:32:57.544,-0.875,-31.7501
12:32:57.562,7,-21.5626
12:32:57.575,17.6251,-15.0001
12:32:57.577,24.7501,-7.25
12:32:57.587,25.1876,-5.0625
12:32:57.594,15.1251,-13.1251
12:32:57.607,2,-23.3126
12:32:57.615,-6.6875,-31.8126
12:32:57.626,-10.625,-34.7501
12:32:57.636,-10.8125,-33.8751
12:32:57.647,-6.125,-30.2501
12:32:57.654,-1,-24.0001
12:32:57.666,5.5,-17.6251
12:32:57.676,8.4375,-12.125
12:32:57.688,9.5625,-11
12:32:57.696,11.3125,-9.75
12:32:57.706,11.375,-7.125
12:32:57.716,16.0626,-2.1875
12:32:57.728,23.0001,8.125
12:32:57.736,32.5626,22.9376
12:32:57.744,43.7502,38.9376
12:32:57.754,55.1252,58.2502
12:32:57.766,69.7503,81.6878
12:32:57.776,85.5628,103.4379
12:32:57.786,97.6254,123.5005
12:32:57.797,109.0004,140.6255
12:32:57.806,117.1255,154.0631
12:32:57.817,123.7505,164.8756
12:32:57.826,126.0005,172.4382
12:32:57.834,128.188,174.6882
12:32:57.844,129.8755,177.0632
12:32:57.856,132.6255,181.2507
12:32:57.866,135.3755,184.1882
12:32:57.893,137.1255,187.3132
12:32:57.895,137.6255,190.3757
12:32:57.898,139.313,192.5007
12:32:57.904,140.1255,193.7507
12:32:57.916,138.813,193.8132
12:32:57.924,134.563,191.2507
12:32:57.935,129.5005,186.1257
12:32:57.946,120.188,177.7507
12:32:57.955,111.3754,166.6256
12:32:57.966,102.3129,156.5006
12:32:57.976,95.1254,148.6881
12:32:57.985,89.8753,141.8755
12:32:57.996,86.4378,137.688
12:32:58.004,81.6253,132.3755
12:32:58.015,76.8128,127.0005
12:32:58.026,72.6878,121.063
12:32:58.034,69.1253,116.8129
12:32:58.046,66.2503,110.8129
12:32:58.056,62.1877,106.1879
12:32:58.068,59.8127,102.1879
12:32:58.077,58.3752,97.5004
12:32:58.085,55.6877,93.5629
12:32:58.094,51.4377,87.1253
12:32:58.104,46.5002,80.1253
12:32:58.127,42.6252,74.2503
12:32:58.134,38.9376,68.1878
12:32:58.149,35.0626,60.9377
12:32:58.152,30.3751,54.7502
12:32:58.166,26.6876,47.7502
12:32:58.184,23.6876,42.2502
12:32:58.186,21.3126,37.6251
12:32:58.189,18.8126,34.2501
12:32:58.196,17.3126,32.1876
12:32:58.206,16.2501,29.0626
12:32:58.216,14.6251,27.5001
12:32:58.226,14.0001,23.7501
12:32:58.236,10.9375,20.9376
12:32:58.244,8.5,14.6876
12:32:58.256,9.1875,12.4375
12:32:58.265,7.875,9.125
12:32:58.274,4.8125,3.625
12:32:58.286,1,-3.6875
12:32:58.296,-2.875,-10.3125
12:32:58.306,-8,-18.3126
12:32:58.316,3.25,-8.0625
12:32:58.327,-5.5625,-23.3126
12:32:58.337,-5.8125,-29.8126
12:32:58.351,-3.3125,-32.8751
12:32:58.361,1.625,-36.2501
12:32:58.371,5.0625,-37.9376
12:32:58.382,7.375,-41.8752
12:32:58.389,7.75,-48.8752
12:32:58.401,8.8125,-54.2502
12:32:58.410,9.9375,-60.1877
12:32:58.421,11.1875,-64.8127
12:32:58.430,10.0625,-71.5003
12:32:58.441,10.0625,-77.5003
12:32:58.449,9.1875,-82.5003
12:32:58.459,8.75,-87.7503
12:32:58.471,8.1875,-91.6254
12:32:58.480,8.8125,-95.0004
12:32:58.491,13.6251,-92.3129
12:32:58.500,20.1251,-84.7503
12:32:58.510,33.1876,-68.7503
12:32:58.519,41.8127,-56.2502
12:32:58.531,49.6877,-42.6877
12:32:58.541,57.1877,-29.6251
12:32:58.558,63.8752,-16.7501
12:32:58.561,67.5003,-9.75
12:32:58.571,70.4378,-3.6875
12:32:58.581,70.8753,-2.25
12:32:58.591,70.1878,-1.5625
12:32:58.601,67.5628,-4.875
12:32:58.611,64.9377,-8.125
12:32:58.621,61.6252,-11.6875
12:32:58.631,58.2502,-16.1876
12:32:58.641,55.3752,-21.3751
12:32:58.651,52.1252,-25.5626
12:32:58.661,49.4377,-29.5001
12:32:58.671,46.0627,-33.3751
12:32:58.679,43.3752,-37.0626
12:32:58.691,39.0626,-42.0002
12:32:58.699,35.7501,-47.3127
12:32:58.712,30.8126,-52.3127
12:32:58.719,28.5001,-57.0002
12:32:58.731,24.5626,-60.9377
12:32:58.740,22.8126,-64.0002
12:32:58.751,20.8751,-65.1877
12:32:58.761,20.8126,-64.8752
12:32:58.771,21.3751,-63.4377
12:32:58.781,22.3751,-61.0627
12:32:58.792,24.0001,-56.8127
12:32:58.801,25.0001,-54.0627
12:32:58.812,26.3126,-51.2502
12:32:58.822,28.1876,-48.1252
12:32:58.831,27.3126,-45.8127
12:32:58.841,28.1251,-44.2502
12:32:58.860,27.0626,-43.8127
12:32:58.863,25.8126,-44.5627
12:32:58.878,24.1876,-45.9377
12:32:58.893,22.9376,-47.6252
12:32:58.896,20.6251,-49.5002
12:32:58.903,18.8751,-51.1877
12:32:58.911,17.6251,-53.5627
12:32:58.920,14.7501,-56.6877
12:32:58.931,12.8125,-60.0002
12:32:58.940,9.3125,-63.6877
12:32:58.951,7.125,-66.8128
12:32:58.959,3.5,-70.5003
12:32:58.971,1.1875,-74.0628
12:32:58.980,-1.6875,-76.5628
12:32:58.991,-3.6875,-79.2503
12:32:59.003,-6.25,-81.8128
12:32:59.010,-8.1875,-83.5628
12:32:59.021,-9.9375,-86.2503
12:32:59.031,-11.6875,-87.9378
12:32:59.041,-12.8125,-89.3753
12:32:59.051,-14.4376,-90.0003
12:32:59.061,-16.0001,-91.9379
12:32:59.073,-17.1876,-93.1879
12:32:59.081,-19.3751,-94.5629
12:32:59.089,-21.4376,-97.1254
12:32:59.101,-21.5001,-97.2504
12:32:59.111,-22.8126,-97.8129
12:32:59.122,-24.0626,-99.1879
12:32:59.132,-25.8126,-100.3129
12:32:59.141,-25.1876,-100.6879
12:32:59.172,-27.3751,-101.5629
12:32:59.174,-27.6876,-102.3754
12:32:59.178,-27.8126,-101.4379
12:32:59.180,-29.8751,-102.0629
12:32:59.191,-29.5626,-101.8754
12:32:59.202,-29.8751,-101.6879
12:32:59.212,-29.4376,-101.6254
12:32:59.220,-28.6876,-98.5629
12:32:59.231,-25.0626,-93.1254
12:32:59.241,-17.8126,-81.7503
12:32:59.251,-8.9375,-65.5628
12:32:59.262,1.8125,-47.7502
12:32:59.269,13.5626,-25.7501
12:32:59.281,24.6251,-2.625
12:32:59.291,35.3751,17.1251
12:32:59.307,44.7502,35.6251
12:32:59.311,50.8127,50.6252
12:32:59.321,55.6252,61.5002
12:32:59.333,57.1252,68.1878
12:32:59.341,57.8752,70.6253
12:32:59.351,57.0002,71.2503
12:32:59.361,53.5627,69.6253
12:32:59.371,50.8127,66.0003
12:32:59.381,48.3752,62.4377
12:32:59.392,47.2502,60.3127
12:32:59.401,45.3127,56.2502
12:32:59.411,41.0627,52.0002
12:32:59.421,38.8751,48.1877
12:32:59.431,36.5626,44.8127
12:32:59.449,33.3126,40.8127
12:32:59.455,29.7501,35.4376
12:32:59.462,27.0626,31.1251
12:32:59.471,25.0626,27.3126
12:32:59.486,23.0001,25.3751
12:32:59.502,21.2501,22.3751
12:32:59.504,20.1251,22.1876
12:32:59.512,20.6251,21.2501
12:32:59.521,20.6876,22.3126
12:32:59.531,21.1876,24.6251
12:32:59.541,22.0001,26.5001
12:32:59.551,23.4376,30.0626
12:32:59.561,23.8751,31.5001
12:32:59.571,24.6251,34.1876
12:32:59.581,24.6876,35.4376
12:32:59.591,24.0626,35.3751
12:32:59.601,22.8751,34.5001
12:32:59.611,20.6251,33.8126
12:32:59.622,18.5626,31.7501
12:32:59.631,16.1251,27.0626
12:32:59.641,13.0625,24.1251
12:32:59.652,11.375,21.0001
12:32:59.661,8.3125,15.5001
12:32:59.671,4.5,11.6875
12:32:59.679,2.3125,6.875
12:32:59.691,-0.875,3.5625
12:32:59.702,-3.5,-0.375
12:32:59.711,-6.4375,-5.375
12:32:59.721,-9.1875,-9.375
12:32:59.731,-11,-13.4376
12:32:59.741,-13.6876,-17.2501
12:32:59.751,-16.0001,-20.1876
12:32:59.761,-17.1876,-22.9376
12:32:59.771,-19.4376,-25.3751
12:32:59.781,-20.8751,-27.9376
12:32:59.791,-22.7501,-30.7501
12:32:59.801,-24.6876,-33.2501
12:32:59.813,-26.6251,-35.2501
12:32:59.821,-28.5626,-38.4376
12:32:59.832,-29.3126,-40.0002
12:32:59.841,-30.8751,-41.9377
12:32:59.851,-32.5626,-44.3127
12:32:59.861,-33.8751,-45.6252
12:32:59.871,-35.8751,-48.6252
12:32:59.881,-37.1876,-51.0627
12:32:59.891,-37.3751,-51.5002
12:32:59.901,-39.5002,-54.6877
12:32:59.911,-40.2502,-55.0002
12:32:59.923,-40.8127,-55.5002
12:32:59.931,-41.1252,-57.3127
12:32:59.941,-41.1252,-58.0627
12:32:59.951,-42.3127,-58.5627
12:32:59.961,-42.9377,-60.0002
12:32:59.971,-42.7502,-59.8752
12:32:59.983,-42.9377,-61.1877
12:32:59.991,-41.3752,-57.8127
12:33:00.002,-37.5001,-53.2502
12:33:00.012,-30.1876,-41.3127
12:33:00.023,-20.8751,-24.9376
12:33:00.031,-10.4375,-5.9375
12:33:00.041,2.5625,15.2501
12:33:00.058,13.7501,38.0001
12:33:00.061,23.9376,57.2502
12:33:00.071,33.1251,75.2503
12:33:00.081,38.5001,90.1878
12:33:00.091,43.3127,98.8754
12:33:00.103,44.5002,104.5629
12:33:00.111,44.1877,106.2504
12:33:00.121,42.7502,105.3754
12:33:00.131,39.8752,102.8129
12:33:00.141,37.1876,96.8754
12:33:00.151,33.8126,92.7504
12:33:00.162,29.9376,86.9378
12:33:00.177,27.0001,81.8128
12:33:00.194,23.5626,75.6878
12:33:00.196,20.1251,71.5628
12:33:00.211,17.5626,65.8128
12:33:00.213,14.3751,59.6877
12:33:00.230,10.8125,55.4377
12:33:00.235,8.5625,49.1877
12:33:00.241,5.6875,45.5002
12:33:00.251,4.6875,41.5627
12:33:00.262,2.5625,39.3752
12:33:00.271,2.5,37.0001
12:33:00.282,1.875,37.4376
12:33:00.291,3.125,37.3751
12:33:00.301,3.5625,39.6252
12:33:00.312,4.875,41.1252
12:33:00.321,6.1875,42.9377
12:33:00.331,7.25,44.6877
12:33:00.341,7.75,46.5002
12:33:00.351,7.125,47.8752
12:33:00.361,6.375,47.0627
12:33:00.371,5.9375,45.9377
12:33:00.381,4.5,42.5002
12:33:00.391,2,39.7502
12:33:00.402,-0.375,35.7501
12:33:00.411,-3,31.5626
12:33:00.421,-5.25,27.8126
12:33:00.454,-8.0625,22.9376
12:33:00.456,-11.4375,18.5001
12:33:00.458,-13.3751,13.5001
12:33:00.465,-15.5626,9.3125
12:33:00.471,-17.5001,4.8125
12:33:00.505,-20.5626,0.125
12:33:00.508,-23.1876,-4.1875
12:33:00.510,-25.3126,-6.8125
12:33:00.513,-27.3126,-11
12:33:00.551,-29.3751,-14.6876
12:33:00.553,-31.5001,-19.3126
12:33:00.555,-32.8751,-22.0626
12:33:00.561,-34.0626,-24.1251
12:33:00.561,-35.0001,-26.7501
12:33:00.596,-35.5001,-28.1251
12:33:00.598,-37.0001,-30.8126
12:33:00.601,-37.4376,-31.5626
12:33:00.603,-38.0001,-33.6876
12:33:00.645,-38.8751,-34.6251
12:33:00.647,-39.1877,-37.0001
12:33:00.650,-39.1877,-37.5001
12:33:00.651,-40.0002,-38.6251
12:33:00.656,-39.0626,-38.7501
12:33:00.660,-39.8127,-38.8126
12:33:00.671,-39.8752,-41.4377
12:33:00.704,-39.8127,-42.1252
12:33:00.706,-40.8752,-42.9377
12:33:00.708,-41.0627,-44.1252
12:33:00.714,-42.1252,-44.6252
12:33:00.722,-41.6252,-45.4377
12:33:00.746,-43.3127,-47.0002
12:33:00.748,-43.3752,-48.0627
12:33:00.751,-42.2502,-46.8127
12:33:00.829,-39.8752,-42.1252
12:33:00.830,-34.3751,-34.8126
12:33:00.860,-24.8751,-20.3126
12:33:00.862,-14.5626,-2.25
12:33:00.884,-2.1875,17.9376
12:33:00.886,9.8125,41.3127
12:33:00.886,22.0001,63.1877
12:33:00.887,32.1876,82.2503
12:33:00.889,40.6252,99.7504
12:33:00.896,46.6252,110.6879
12:33:00.927,49.2502,118.313
12:33:00.930,51.2502,121.938
12:33:00.932,51.4377,123.188
12:33:00.937,49.0627,121.063
12:33:00.975,46.8127,116.0629
12:33:00.978,42.5002,110.8754
12:33:00.980,39.3126,104.8754
12:33:00.983,36.3126,98.1879
12:33:00.988,32.3751,92.5629
12:33:01.019,29.5626,87.0628
12:33:01.023,26.1251,81.0628
12:33:01.026,22.8751,75.1253
12:33:01.029,18.9376,68.0003
12:33:01.059,3.5625,45.7502
12:33:01.062,3.3125,43.5002
12:33:01.066,3.3125,44.7502
12:33:01.068,4.5,44.0627
12:33:01.103,4.9375,46.7502
12:33:01.106,6.625,48.0002
12:33:01.108,6.9375,49.4377
12:33:01.138,7.875,51.0002
12:33:01.141,8.1875,52.2502
12:33:01.142,10.125,52.8127
12:33:01.142,9.0625,52.1252
12:33:01.183,9.75,51.5627
12:33:01.185,8.875,49.6252
12:33:01.188,8.8125,48.0627
12:33:01.192,7.125,45.9377
12:33:01.193,6.6875,43.5627
12:33:01.228,5.5625,40.2502
12:33:01.230,3.8125,37.0626
12:33:01.231,2.875,33.3126
12:33:01.237,1.125,29.8751
12:33:01.246,0.5625,27.0626
12:33:01.251,-1.375,23.1251
12:33:01.278,-2.375,20.1251
12:33:01.281,-5.3125,15.0626
12:33:01.283,-6.9375,11.5
12:33:01.291,-10.1875,7
12:33:01.324,-13.4376,1.5625
12:33:01.326,-18.0626,-3.625
12:33:01.327,-20.0001,-8.4375
12:33:01.363,-21.9376,-12.75
12:33:01.363,-23.8126,-14.6876
12:33:01.366,-26.3126,-18.5626
12:33:01.371,-27.8751,-21.5001
12:33:01.375,-29.7501,-24.3126
12:33:01.387,-31.3126,-27.4376
12:33:01.392,-32.1251,-29.1251
12:33:01.401,-32.8751,-30.8126
12:33:01.436,-34.6251,-32.9376
12:33:01.439,-35.1251,-35.3751
12:33:01.441,-37.4376,-36.2501
12:33:01.445,-37.8751,-40.1252
12:33:01.475,-40.0002,-41.5002
12:33:01.479,-40.4377,-44.3752
12:33:01.483,-42.0627,-45.2502
12:33:01.518,-42.2502,-48.0627
12:33:01.522,-43.6877,-48.5002
12:33:01.534,-44.1252,-51.0627
12:33:01.536,-43.5627,-51.0002
12:33:01.557,-42.8127,-49.6252
12:33:01.558,-38.1251,-42.8127
12:33:01.561,-31.2501,-32.3751
12:33:01.562,-21.8751,-16.5626
12:33:01.564,-10.3125,3.5
12:33:01.571,1.3125,26.0001
12:33:01.582,12.6875,46.0002
12:33:01.591,23.3751,67.3753
12:33:01.601,32.2501,82.6253
12:33:01.612,39.3127,97.3754
12:33:01.621,43.1877,106.7504
12:33:01.631,46.4377,112.3129
12:33:01.640,46.8127,115.1254
12:33:01.651,46.9377,113.7504
12:33:01.661,43.8127,111.0629
12:33:01.671,41.8752,106.8129
12:33:01.681,37.8126,100.6254
12:33:01.691,35.6876,95.9379
12:33:01.701,31.8751,90.1253
12:33:01.732,30.1876,84.7503
12:33:01.735,26.5001,80.0003
12:33:01.737,23.6251,74.4378
12:33:01.743,19.6876,67.6878
12:33:01.751,16.9376,61.5002
12:33:01.763,13.1251,55.5002
12:33:01.770,11.25,50.5002
12:33:01.781,8.75,47.0627
12:33:01.791,8.75,45.3752
12:33:01.801,8.875,44.6252
12:33:01.811,8.75,45.6877
12:33:01.821,10.0625,46.5002
12:33:01.831,11.125,48.4377
12:33:01.841,12.5625,51.0627
12:33:01.851,13.5001,53.0627
12:33:01.861,14.0626,55.0627
12:33:01.871,13.9376,55.6252
12:33:01.881,13.7501,55.9377
12:33:01.891,13.8126,56.1877
12:33:01.901,12.625,54.7502
12:33:01.911,11.9375,53.1877
12:33:01.921,9.625,51.0002
12:33:01.934,8.625,47.9377
12:33:01.941,5.5625,43.8127
12:33:01.951,2.5625,39.3752
12:33:01.961,-1.25,34.6251
12:33:01.971,-3.0625,29.9376
12:33:01.981,-5,25.1876
12:33:01.991,-7.6875,21.1876
12:33:02.001,-10.3125,16.7501
12:33:02.011,-12.75,12.375
12:33:02.021,-14.6876,9
12:33:02.031,-16.5001,4.3125
12:33:02.041,-18.1876,1.3125
12:33:02.051,-19.9376,-2.9375
12:33:02.062,-21.8751,-5.5
12:33:02.071,-22.7501,-8.125
12:33:02.082,-23.8126,-10.25
12:33:02.091,-24.1876,-12.4375
12:33:02.111,-25.1876,-13.6876
12:33:02.118,-25.2501,-15.4376
12:33:02.133,-26.4376,-16.8126
12:33:02.136,-26.4376,-19.1251
12:33:02.152,-28.1251,-20.7501
12:33:02.169,-29.0626,-23.0001
12:33:02.170,-29.8126,-25.1876
12:33:02.172,-30.7501,-27.0001
12:33:02.182,-31.6251,-28.0001
12:33:02.193,-32.1876,-29.5001
12:33:02.201,-33.6876,-31.3751
12:33:02.211,-33.8126,-32.2501
12:33:02.223,-36.0626,-34.2501
12:33:02.231,-36.3126,-34.8751
12:33:02.241,-35.2501,-32.0626
12:33:02.251,-31.4376,-28.1876
12:33:02.262,-26.3126,-18.0626
12:33:02.272,-17.6876,-4.875
12:33:02.282,-7.8125,14.0626
12:33:02.291,2.5,31.6876
12:33:02.307,12.3125,51.6877
12:33:02.312,21.3751,68.9378
12:33:02.322,28.6251,84.8128
12:33:02.331,34.1251,96.0004
12:33:02.342,37.0001,104.0004
12:33:02.351,37.8751,107.5004
12:33:02.361,37.7501,108.8754
12:33:02.371,35.0001,105.1879
12:33:02.382,32.0626,101.3129
12:33:02.392,27.8751,95.8754
12:33:02.406,23.5626,88.1253
12:33:02.416,19.8126,81.2503
12:33:02.426,14.5001,73.6253
12:33:02.436,9.9375,65.8753
12:33:02.447,5.75,58.6252
12:33:02.456,0.3125,48.9377
12:33:02.466,-5,40.9377
12:33:02.477,-9.75,32.0001
12:33:02.486,-13.1876,25.3126
12:33:02.496,-15.6251,21.0626
12:33:02.506,-17.8751,17.5626
12:33:02.516,-17.8751,15.3751
12:33:02.527,-18.5001,15.3126
12:33:02.536,-17.6251,15.8751
12:33:02.546,-15.5626,19.4376
12:33:02.557,-15.0001,20.9376
12:33:02.567,-13.2501,25.0626
12:33:02.576,-12.75,26.6251
12:33:02.586,-13,27.6876
12:33:02.597,-14.6251,26.8751
12:33:02.606,-15.3126,24.9376
12:33:02.616,-17.0001,23.6876
12:33:02.626,-18.4376,20.8751
12:33:02.636,-20.1876,18.0001
12:33:02.647,-21.6876,14.0001
12:33:02.657,-24.1251,11.3125
12:33:02.666,-26.0001,6.25
12:33:02.682,-28.1876,2.375
12:33:02.687,-30.0626,-1.1875
12:33:02.696,-31.5001,-5.625
12:33:02.706,-33.3126,-8.3125
12:33:02.716,-34.9376,-13.5626
12:33:02.725,-37.0626,-16.5626
12:33:02.736,-39.9377,-21.8126
12:33:02.747,-41.6877,-24.5001
12:33:02.756,-43.3127,-28.8126
12:33:02.766,-44.7502,-31.3751
12:33:02.776,-46.6252,-35.1251
12:33:02.787,-47.6877,-38.3751
12:33:02.796,-50.1252,-40.6877
12:33:02.806,-50.7502,-44.4377
12:33:02.823,-51.1877,-45.9377
12:33:02.840,-51.8752,-48.3752
12:33:02.842,-53.0002,-51.6877
12:33:02.847,-54.1252,-53.0002
12:33:02.856,-55.3752,-56.4377
12:33:02.866,-55.5627,-57.5002
12:33:02.879,-56.4377,-57.6252
12:33:02.886,-55.5002,-59.0002
12:33:02.896,-56.8127,-59.0627
12:33:02.907,-56.1252,-60.3127
12:33:02.916,-52.8127,-57.3127
12:33:02.927,-50.2502,-52.3752
12:33:02.936,-43.0627,-42.0627
12:33:02.946,-34.1251,-27.3126
12:33:02.956,-22.2501,-8.75
12:33:02.966,-9.4375,13.6251
12:33:02.976,2.6875,35.5001
12:33:02.986,14.9376,58.4377
12:33:03.013,24.6876,76.9378
12:33:03.015,32.8126,93.0629
12:33:03.017,38.1251,103.1254
12:33:03.026,41.1252,110.3754
12:33:03.036,41.9377,114.8754
12:33:03.048,41.4377,113.1879
12:33:03.057,41.0627,111.3754
12:33:03.066,36.8126,106.6254
12:33:03.076,34.0001,101.3129
12:33:03.087,31.0001,96.5004
12:33:03.096,28.3751,89.5628
12:33:03.107,25.6876,86.0628
12:33:03.117,22.6876,79.9378
12:33:03.126,20.4376,75.6253
12:33:03.136,16.3126,68.3128
12:33:03.146,13.3751,61.6252
12:33:03.156,9.6875,56.0627
12:33:03.165,7.8125,50.4377
12:33:03.176,6.375,46.8127
12:33:03.186,5.5,44.5627
12:33:03.197,4.875,43.0627
12:33:03.207,5.6875,42.8127
12:33:03.216,6.4375,43.5002
12:33:03.226,7.875,45.9377
12:33:03.236,8.3125,47.3752
12:33:03.246,9.5625,49.1877
12:33:03.256,10,50.0002
12:33:03.267,10.4375,51.1252
12:33:03.276,10.4375,51.3127
12:33:03.287,9.5625,50.6252
12:33:03.296,8.9375,49.1252
12:33:03.306,7.1875,47.5002
12:33:03.316,5.8125,44.5627
12:33:03.326,2.9375,41.3127
12:33:03.337,1.0625,37.1876
12:33:03.347,-0.75,32.8126
12:33:03.356,-3.625,27.9376
12:33:03.366,-6.25,23.0001
12:33:03.378,-8.75,18.6876
12:33:03.386,-10.4375,13.5626
12:33:03.396,-13.6876,8.375
12:33:03.406,-16.5626,3.125
12:33:03.419,-18.6251,1.3125
12:33:03.435,-20.6876,-4.25
12:33:03.440,-21.8751,-7.875
12:33:03.456,-24.4376,-12.5
12:33:03.459,-26.3751,-14.3751
12:33:03.467,-27.5626,-18.4376
12:33:03.476,-29.5626,-22.4376
12:33:03.486,-31.6876,-25.4376
12:33:03.498,-33.4376,-27.7501
12:33:03.506,-34.3126,-31.1876
12:33:03.516,-36.6251,-34.6251
12:33:03.526,-38.3126,-35.9376
12:33:03.536,-39.1876,-39.7502
12:33:03.546,-39.5002,-41.6877
12:33:03.559,-40.1877,-41.9377
12:33:03.566,-40.2502,-43.6877
12:33:03.576,-40.8752,-43.8127
12:33:03.587,-40.4377,-43.4377
12:33:03.596,-39.3752,-42.9377
12:33:03.606,-36.6251,-39.5002
12:33:03.616,-32.0001,-32.3751
12:33:03.628,-24.1876,-19.6251
12:33:03.638,-13.7501,-3.625
12:33:03.647,-2.625,18.1251
12:33:03.656,9.625,38.4376
12:33:03.669,20.8751,62.1252
12:33:03.677,31.6876,80.7503
12:33:03.686,39.8127,96.9379
12:33:03.698,45.5002,108.6254
12:33:03.708,48.8752,117.563
12:33:03.716,49.1252,119.1255
12:33:03.726,48.9377,120.563
12:33:03.739,46.5627,118.438
12:33:03.746,43.8127,112.0629
12:33:03.757,40.7502,107.6254
12:33:03.767,37.2501,101.8754
12:33:03.777,34.2501,95.7504
12:33:03.786,31.1251,91.0004
12:33:03.796,28.4376,85.0003
12:33:03.811,26.0626,82.0003
12:33:03.816,23.6251,76.0003
12:33:03.828,20.1876,70.4378
12:33:03.837,16.3751,62.9377
12:33:03.846,12.6875,57.0627
12:33:03.856,10,50.5627
12:33:03.866,7.4375,45.6877
12:33:03.876,6.0625,42.5627
12:33:03.886,4.5625,40.3752
12:33:03.897,4.1875,39.8127
12:33:03.906,5.3125,39.1877
12:33:03.917,5.3125,41.0002
12:33:03.927,6.5625,41.1877
12:33:03.936,6.75,42.9377
12:33:03.946,7.8125,44.3127
12:33:03.957,8.25,44.6877
12:33:03.966,8.5625,44.8752
12:33:03.977,8.0625,43.6877
12:33:03.986,5.9375,41.8127
12:33:03.996,5.0625,39.2501
12:33:04.007,2.3125,34.8126
12:33:04.016,-0.125,30.6251
12:33:04.027,-2.8125,26.0001
12:33:04.037,-5.6875,19.6251
12:33:04.046,-8.0625,16.3126
12:33:04.057,-10.3125,11.125
12:33:04.066,-12.8125,6.75
12:33:04.077,-14.5626,2.1875
12:33:04.086,-17.1251,-1.6875
12:33:04.097,-18.2501,-4.75
12:33:04.117,-19.8751,-8.3125
12:33:04.119,-22.5001,-12.25
12:33:04.133,-23.4376,-15.8751
12:33:04.137,-25.0001,-19.1251
12:33:04.147,-26.0626,-21.7501
12:33:04.156,-27.5626,-24.9376
12:33:04.167,-28.2501,-27.5626
12:33:04.176,-29.2501,-29.1876
12:33:04.187,-30.4376,-30.3126
12:33:04.196,-30.1251,-32.4376
12:33:04.207,-30.4376,-34.7501
12:33:04.216,-30.4376,-36.0001
12:33:04.227,-30.1876,-36.5001
12:33:04.237,-30.6876,-38.2501
12:33:04.246,-31.0001,-39.4377
12:33:04.257,-31.3126,-39.5627
12:33:04.266,-30.9376,-41.0627
12:33:04.292,-30.3126,-41.2502
12:33:04.294,-29.7501,-41.0002
12:33:04.297,-29.4376,-39.7502
12:33:04.322,-28.1251,-38.1876
12:33:04.325,-25.3126,-34.7501
12:33:04.327,-18.8126,-26.0001
12:33:04.359,-10.6875,-12.5
12:33:04.361,0.125,6.0625
12:33:04.364,12.3125,26.3126
12:33:04.395,24.9376,48.4377
12:33:04.397,36.2501,68.5628
12:33:04.399,45.8752,88.5003
12:33:04.403,53.5627,103.1254
12:33:04.406,58.9377,113.3129
12:33:04.432,62.0002,121.1255
12:33:04.433,62.2502,122.938
12:33:04.442,61.1252,122.188
12:33:04.447,59.3127,118.813
12:33:04.479,55.5627,115.1254
12:33:04.481,52.7502,107.5004
12:33:04.483,49.1877,103.2504
12:33:04.489,47.0002,97.3754
12:33:04.520,46.0002,93.5629
12:33:04.522,43.3127,90.1878
12:33:04.524,41.6877,86.8128
12:33:04.559,39.3127,81.1878
12:33:04.561,36.3126,75.0003
12:33:04.563,32.8126,69.3753
12:33:04.567,30.2501,62.7502
12:33:04.570,27.6876,58.5627
12:33:04.602,25.0626,54.8752
12:33:04.605,24.5001,51.4377
12:33:04.606,24.8126,49.6877
12:33:04.609,25.0001,49.0627
12:33:04.649,25.5001,50.7502
12:33:04.654,26.8126,52.0002
12:33:04.655,28.4376,53.1877
12:33:04.656,29.6876,55.6877
12:33:04.662,31.3751,56.8127
12:33:04.667,31.3751,57.8127
12:33:04.709,31.6251,57.8752
12:33:04.710,30.3751,56.1877
12:33:04.713,30.0626,54.7502
12:33:04.715,29.1251,52.0627
12:33:04.721,27.1876,49.1877
12:33:04.754,25.2501,45.2502
12:33:04.757,23.5626,41.0627
12:33:04.760,21.6251,37.6876
12:33:04.761,19.5001,34.0626
12:33:04.767,17.6251,28.8126
12:33:04.799,15.1876,25.1876
12:33:04.803,13.3126,19.8751
12:33:04.810,11.3125,16.9376
12:33:04.812,10.8125,13.1251
12:33:04.817,9.25,10
12:33:04.849,7.875,7.6875
12:33:04.851,6.75,4.75
12:33:04.853,5.375,2.5625
12:33:04.858,5,0.3125
12:33:04.886,4.375,-1.8125
12:33:04.888,2.625,-4.125
12:33:04.891,1.9375,-6.125
12:33:04.897,1.1875,-8.75
12:33:04.923,0.5,-10.125
12:33:04.934,-0.5625,-12.5625
12:33:04.934,-0.6875,-13.9376
12:33:04.970,-2,-15.6876
12:33:04.972,-2.4375,-16.8126
12:33:04.975,-3.4375,-18.9376
12:33:04.980,-3.5625,-19.8751
12:33:04.981,-4.25,-21.5001
12:33:04.989,-4.3125,-22.0001
12:33:05.018,-4.375,-22.6876
12:33:05.021,-4.125,-22.5626
12:33:05.023,-4.25,-23.0001
12:33:05.027,-3.5625,-21.9376
12:33:05.056,-0.75,-18.6876
12:33:05.058,4.9375,-10.25
12:33:05.061,13.2501,1.8125
12:33:05.067,23.3126,18.9376
12:33:05.110,35.2501,39.0001
12:33:05.111,46.7502,60.1252
12:33:05.114,58.7502,80.9378
12:33:05.117,68.6253,99.7504
12:33:05.118,76.5628,114.6254
12:33:05.143,82.8128,125.688
12:33:05.146,84.8753,131.938
12:33:05.149,85.8128,134.2505
12:33:05.158,85.1253,133.1255
12:33:05.201,82.6878,130.0005
12:33:05.202,79.7503,125.2505
12:33:05.206,75.5628,118.938
12:33:05.209,72.4378,112.8754
12:33:05.215,69.5003,107.8129
12:33:05.245,66.2503,101.8754
12:33:05.247,61.5627,95.3754
12:33:05.249,57.9377,89.2503
12:33:05.254,54.4377,83.0628
12:33:05.284,50.5627,76.0003
12:33:05.287,45.6252,68.5628
12:33:05.290,42.6252,62.0627
12:33:05.292,38.6876,56.8752
12:33:05.325,37.1876,53.2502
12:33:05.328,35.8751,50.5627
12:33:05.332,35.2501,49.6877
12:33:05.332,35.6876,50.5002
12:33:05.342,36.7501,52.5002
12:33:05.352,36.8126,52.6877
12:33:05.362,36.1251,54.1877
12:33:05.372,36.3751,53.6252
12:33:05.382,34.9376,53.4377
12:33:05.392,33.5626,51.8752
12:33:05.412,31.8126,48.8752
12:33:05.414,29.8751,44.9377
12:33:05.429,26.9376,41.3752
12:33:05.432,24.1251,38.1876
12:33:05.442,21.1251,33.0626
12:33:05.452,17.8751,27.4376
12:33:05.462,15.3751,22.5001
12:33:05.472,11.0625,17.0626
12:33:05.482,8.625,11.4375
12:33:05.492,4.6875,5.9375
12:33:05.502,1.75,0.375
12:33:05.513,-2.125,-5.875
12:33:05.522,-4.5,-10.3125
12:33:05.532,-8.5625,-15.6251
12:33:05.542,-11.375,-20.5626
12:33:05.572,-14.8126,-25.3751
12:33:05.575,-16.9376,-29.3751
12:33:05.577,-19.8751,-34.0626
12:33:05.582,-22.7501,-37.4376
12:33:05.592,-24.6251,-40.8127
12:33:05.602,-27.1876,-46.8127
12:33:05.612,-29.1251,-49.3127
12:33:05.622,-30.3126,-52.0627
12:33:05.632,-32.1876,-54.8752
12:33:05.642,-32.8751,-56.6877
12:33:05.652,-34.5626,-58.0627
12:33:05.662,-34.3751,-59.9377
12:33:05.672,-34.8126,-61.1252
12:33:05.686,-35.3751,-61.3127
12:33:05.692,-35.1251,-62.0627
12:33:05.705,-34.2501,-62.1877
12:33:05.712,-34.4376,-62.3127
12:33:05.722,-33.1251,-61.4377
12:33:05.732,-31.5001,-58.3127
12:33:05.742,-26.8126,-52.8752
12:33:05.752,-20.4376,-42.1252
12:33:05.762,-11.5,-26.8126
12:33:05.773,-0.375,-10.1875
12:33:05.782,11.75,11
12:33:05.792,22.1251,29.6876
12:33:05.802,32.8126,48.1252
12:33:05.812,40.6252,63.8752
12:33:05.822,46.9377,75.1878
12:33:05.833,49.5002,83.1878
12:33:05.844,51.0002,85.5003
12:33:05.852,51.0627,87.0628
12:33:05.862,49.1252,85.5628
12:33:05.874,47.6877,81.2503
12:33:05.882,43.1877,76.6253
12:33:05.892,40.6252,70.0628
12:33:05.904,38.4376,65.3127
12:33:05.912,34.3126,59.6877
12:33:05.922,31.6876,53.9377
12:33:05.934,28.2501,48.6252
12:33:05.942,24.6876,42.0627
12:33:05.952,20.3751,34.5001
12:33:05.962,17.0626,27.7501
12:33:05.972,11.875,21.3751
12:33:05.982,10.375,16.1251
12:33:05.992,7.625,12.4375
12:33:06.002,6.9375,10
12:33:06.012,6.1875,9.375
12:33:06.032,6.875,9.625
12:33:06.040,7.0625,10.0625
12:33:06.055,6.125,10.8125
12:33:06.062,5.8125,10
12:33:06.064,3.125,9.1875
12:33:06.072,-3.75,2.4375
12:33:06.082,-17.3126,-8
12:33:06.092,-34.6876,-24.4376
12:33:06.102,-51.3127,-38.7501
12:33:06.112,-71.3128,-54.6877
12:33:06.122,-91.0004,-70.5003
12:33:06.132,-113.8129,-84.8128
12:33:06.142,-142.563,-106.0629
12:33:06.152,-151.1881,-107.7504
12:33:06.162,-153.0631,-102.9379
12:33:06.172,-144.7505,-88.3753
12:33:06.182,-138.438,-76.3753
12:33:06.195,-130.063,-64.5002
12:33:06.202,-123.438,-57.5002
12:33:06.212,-117.0004,-51.3752
12:33:06.222,-110.5004,-44.7502
12:33:06.232,-96.7504,-32.7501
12:33:06.242,-85.2503,-18.4376
12:33:06.252,-74.3753,-5.875
12:33:06.262,-64.6877,5.3125
12:33:06.272,-58.3752,14.0001
12:33:06.282,-53.4377,19.2501
12:33:06.293,-47.8127,26.3751
12:33:06.302,-41.6877,34.2501
12:33:06.312,-34.3751,41.0002
12:33:06.322,-25.8751,50.0627
12:33:06.332,-19.3126,58.5002
12:33:06.342,-14.1876,63.1877
12:33:06.352,-9.75,68.5628
12:33:06.362,-7.8125,69.1253
12:33:06.372,-7,70.7503
12:33:06.382,-7.1875,71.4378
12:33:06.394,-7.375,69.2503
12:33:06.402,-6.75,68.9378
12:33:06.417,-6.125,69.5003
12:33:06.427,-2.5625,72.1878
12:33:06.437,1.9375,78.8128
12:33:06.447,10.3125,89.5628
12:33:06.457,19.0626,103.0629
12:33:06.468,30.4376,118.0005
12:33:06.477,39.1877,132.5005
12:33:06.488,48.2502,146.063
12:33:06.499,54.8127,156.3756
12:33:06.507,61.0627,164.5631
12:33:06.517,63.8127,168.7506
12:33:06.527,63.6877,169.0631
12:33:06.537,63.1877,165.1881
12:33:06.547,61.0002,160.6256
12:33:06.557,56.9377,154.8756
12:33:06.567,49.3127,143.188
12:33:06.577,31.7501,121.5005
12:33:06.587,17.0626,101.1254
12:33:06.597,2,78.5628
12:33:06.608,-13.6251,55.9377
12:33:06.617,-26.8126,35.6876
12:33:06.627,-35.8751,20.6876
12:33:06.639,-42.5627,9.1875
12:33:06.647,-45.8127,-0.5625
12:33:06.657,-48.3752,-8.375
12:33:06.667,-51.3127,-14.3126
12:33:06.678,-53.5002,-21.1251
12:33:06.688,-54.8752,-25.6251
12:33:06.701,-55.3752,-26.4376
12:33:06.716,-55.1252,-29.0001
12:33:06.719,-55.1877,-29.5001
12:33:06.736,-55.7502,-30.2501
12:33:06.738,-56.1877,-30.4376
12:33:06.749,-54.7502,-28.1876
12:33:06.757,-50.9377,-23.8751
12:33:06.767,-43.8752,-14.9376
12:33:06.777,-30.0001,0.4375
12:33:06.787,-9.875,21.6876
12:33:06.799,13.8751,49.8752
12:33:06.813,35.5001,78.4378
12:33:06.818,55.1252,101.2504
12:33:06.828,72.8753,123.1255
12:33:06.852,89.2503,143.6255
12:33:06.854,102.6254,160.4381
12:33:06.857,113.1879,175.5632
12:33:06.868,124.688,189.0007
12:33:06.877,133.938,201.8133
12:33:06.887,138.5005,206.8133
12:33:06.897,140.2505,210.1258
12:33:06.907,139.313,211.5633
12:33:06.917,137.1255,206.9383
12:33:06.927,133.438,202.6883
12:33:06.937,126.8755,194.6257
12:33:06.947,118.6255,183.8757
12:33:06.958,105.5004,167.6881
12:33:06.967,89.8753,147.7506
12:33:06.977,75.0628,128.3755
12:33:06.989,59.5627,108.5004
12:33:06.997,45.1252,87.6878
12:33:07.007,30.9376,68.4378
12:33:07.019,18.1876,50.4377
12:33:07.027,6.625,33.7501
12:33:07.037,-2.6875,18.2501
12:33:07.048,-11.375,3.8125
12:33:07.058,-19.3751,-8.25
12:33:07.068,-26.8751,-21.0626
12:33:07.077,-36.1876,-34.8751
12:33:07.087,-47.5627,-51.5627
12:33:07.097,-59.2502,-67.8753
12:33:07.107,-68.6253,-82.6253
12:33:07.118,-79.3128,-97.7504
12:33:07.128,-87.3753,-110.3754
12:33:07.137,-96.8754,-121.6255
12:33:07.147,-100.6879,-127.438
12:33:07.157,-100.8129,-125.6255
12:33:07.167,-97.7504,-118.2505
12:33:07.177,-93.1254,-110.5004
12:33:07.187,-87.8753,-99.3754
12:33:07.197,-82.4378,-89.0628
12:33:07.207,-73.8753,-77.5628
12:33:07.217,-65.3753,-64.2502
12:33:07.227,-57.9377,-52.3127
12:33:07.240,-50.4377,-43.3127
12:33:07.247,-45.1252,-37.0626
12:33:07.258,-43.9377,-34.1876
12:33:07.268,-43.5627,-34.6876
12:33:07.277,-45.5627,-37.2501
12:33:07.288,-47.7502,-40.9377
12:33:07.297,-47.6877,-40.9377
12:33:07.307,-45.8127,-40.1252
12:33:07.319,-42.3127,-36.0626
12:33:07.335,-39.5627,-34.5001
12:33:07.341,-36.0001,-29.3126
12:33:07.354,-30.3751,-22.6251
12:33:07.357,-23.1251,-15.8126
12:33:07.367,-15.8751,-7.375
12:33:07.378,-7.5,1.125
12:33:07.388,2.6875,13.8126
12:33:07.397,14.8126,28.8126
12:33:07.408,28.1876,45.0627
12:33:07.418,40.0627,60.3127
12:33:07.428,50.0002,73.2503
12:33:07.437,57.3127,85.5628
12:33:07.447,63.4377,94.6879
12:33:07.457,67.8753,101.3754
12:33:07.467,71.3753,107.7504
12:33:07.477,74.6878,112.8129
12:33:07.487,78.4378,118.0005
12:33:07.497,79.7503,121.2505
12:33:07.507,80.5003,121.313
12:33:07.517,79.4378,119.5005
12:33:07.527,75.8753,114.3129
12:33:07.537,69.3128,106.4379
12:33:07.547,59.5002,91.2504
12:33:07.561,41.9377,69.0628
12:33:07.570,20.1876,39.0001
12:33:07.578,-4.8125,4
12:33:07.587,-30.5001,-33.5001
12:33:07.597,-57.7502,-72.1878
