timestamp,Red,IR
12:51:44.436,-16.5626,-35.5626
12:51:44.444,-10.8438,-22.1251
12:51:44.447,-12.3125,-25.5626
12:51:44.449,-15.3751,-30.0626
12:51:44.455,-19.8438,-39.8127
12:51:44.457,-21.5938,-46.5627
12:51:44.461,-24.9688,-51.7502
12:51:44.471,-27.6564,-57.9377
12:51:44.489,-30.4689,-65.3753
12:51:44.492,-33.0314,-70.8128
12:51:44.508,-36.1876,-77.0003
12:51:44.515,-37.5939,-82.4378
12:51:44.521,-39.5939,-86.5628
12:51:44.532,-41.1252,-90.1879
12:51:44.542,-41.8127,-91.7504
12:51:44.552,-39.9377,-92.0004
12:51:44.561,-35.4689,-83.5003
12:51:44.572,-27.0626,-69.1878
12:51:44.582,-16.0313,-48.1877
12:51:44.591,-2.7188,-21.3126
12:51:44.603,10.4063,7.5625
12:51:44.613,22.1251,33.7501
12:51:44.621,33.3126,58.6877
12:51:44.632,41.4377,77.8753
12:51:44.642,46.5939,93.8129
12:51:44.652,51.0939,104.1254
12:51:44.661,52.3752,109.5629
12:51:44.672,52.0939,110.3754
12:51:44.681,50.8439,109.0629
12:51:44.692,48.0314,105.2504
12:51:44.701,44.7502,98.1879
12:51:44.711,41.3127,90.8128
12:51:44.723,36.6876,83.3128
12:51:44.732,32.2814,72.5628
12:51:44.743,28.0314,62.3127
12:51:44.752,22.0626,51.6252
12:51:44.761,17.0313,39.5627
12:51:44.771,11.125,28.2501
12:51:44.781,5.6875,16.8126
12:51:44.791,1.125,6
12:51:44.802,-3,-3
12:51:44.819,-6.1563,-10.25
12:51:44.825,-8.5938,-15.6876
12:51:44.884,-9.3125,-19.6251
12:51:44.884,-9.5938,-21.3751
12:51:44.909,-8.625,-21.6251
12:51:44.909,-7.875,-20.4376
12:51:44.910,-7.625,-20.3126
12:51:44.913,-6.875,-18.9376
12:51:44.916,-6.6563,-18.3751
12:51:44.919,-7.4688,-18.1251
12:51:44.919,-7.3125,-18.9376
12:51:44.928,-7.7813,-19.9376
12:51:44.957,-7.9688,-21.2501
12:51:44.959,-9.3125,-24.0626
12:51:44.962,-10.6875,-27.2501
12:51:44.968,-11.6875,-31.1251
12:51:44.989,-15.1251,-35.6251
12:51:44.991,-17.0001,-41.1877
12:51:44.999,-20.1563,-47.9377
12:51:45.007,-23.0313,-53.8752
12:51:45.018,-26.1251,-60.5627
12:51:45.027,-29.6876,-66.5003
12:51:45.036,-32.5314,-74.0003
12:51:45.047,-35.4689,-79.6253
12:51:45.056,-38.5001,-86.4378
12:51:45.066,-40.4377,-91.8754
12:51:45.076,-42.0627,-95.8754
12:51:45.088,-42.6252,-99.3754
12:51:45.097,-39.4064,-95.8129
12:51:45.106,-33.7814,-85.0628
12:51:45.117,-23.4063,-68.6253
12:51:45.127,-10.9063,-44.2502
12:51:45.138,1.4688,-17.0626
12:51:45.148,14.6251,10.9375
12:51:45.158,25.9688,37.9376
12:51:45.167,36.1876,59.9377
12:51:45.176,44.3439,79.5628
12:51:45.188,50.0314,92.9379
12:51:45.197,52.7814,102.0004
12:51:45.208,53.9377,104.9379
12:51:45.216,53.0627,105.4379
12:51:45.226,50.3752,102.3754
12:51:45.236,47.5314,95.2504
12:51:45.246,43.1877,89.3128
12:51:45.258,39.7502,80.2503
12:51:45.266,35.5939,70.7503
12:51:45.276,30.9689,61.4377
12:51:45.288,26.3126,51.5002
12:51:45.297,20.7501,40.3127
12:51:45.307,15.5001,28.1251
12:51:45.316,9.625,15.8751
12:51:45.326,5.125,5.75
12:51:45.338,1.25,-4.5625
12:51:45.347,-2.8438,-12.5
12:51:45.358,-4.8438,-19.4376
12:51:45.366,-7,-23.3126
12:51:45.378,-7.9063,-26.4376
12:51:45.387,-7.2813,-28.4376
12:51:45.397,-6.4688,-27.8751
12:51:45.406,-5.5938,-26.5626
12:51:45.417,-5.1563,-25.1876
12:51:45.429,-3.7188,-24.0001
12:51:45.436,-3.3125,-22.0626
12:51:45.448,-3.75,-22.3751
12:51:45.457,-3.2813,-22.5001
12:51:45.472,-4.0625,-23.6251
12:51:45.478,-4.7813,-26.0001
12:51:45.486,-6.375,-28.5001
12:51:45.496,-8.5625,-32.5626
12:51:45.506,-10.9063,-37.1876
12:51:45.517,-13.7813,-42.6252
12:51:45.526,-16.3126,-47.4377
12:51:45.536,-19.2813,-53.6877
12:51:45.548,-21.1876,-59.9377
12:51:45.557,-24.3751,-65.2502
12:51:45.566,-27.1876,-73.1878
12:51:45.600,-29.5939,-77.8128
12:51:45.600,-33.0001,-84.8753
12:51:45.603,-35.4689,-90.5004
12:51:45.608,-37.8126,-94.3129
12:51:45.637,-39.8127,-99.3129
12:51:45.639,-40.0939,-101.8754
12:51:45.641,-39.3126,-101.4379
12:51:45.648,-34.2814,-94.3754
12:51:45.674,-26.8439,-79.9378
12:51:45.682,-14.4688,-58.1252
12:51:45.682,-1.8125,-31.0626
12:51:45.717,12.0938,-2.3125
12:51:45.718,25.5626,27.0626
12:51:45.720,36.9376,51.3127
12:51:45.728,45.3439,73.2503
12:51:45.729,52.2189,88.1253
12:51:45.738,56.3127,99.1254
12:51:45.754,57.4065,105.1879
12:51:45.756,57.2815,106.3754
12:51:45.769,55.3127,103.6879
12:51:45.785,53.4065,99.5629
12:51:45.788,49.1252,93.6879
12:51:45.803,45.4689,85.6878
12:51:45.818,41.2189,77.3753
12:51:45.820,37.2814,67.9378
12:51:45.830,32.1876,57.3127
12:51:45.838,26.7814,46.4377
12:51:45.848,20.6563,34.3751
12:51:45.857,15.5313,22.8751
12:51:45.868,10.8438,11.8125
12:51:45.877,6.25,2.3125
12:51:45.888,1.9688,-5.6875
12:51:45.898,-0.6563,-12.6875
12:51:45.908,-2.5313,-17.1876
12:51:45.918,-3.0625,-19.8751
12:51:45.927,-3.0625,-21.2501
12:51:45.937,-2.8125,-20.8751
12:51:45.948,-1.9688,-19.1876
12:51:45.956,-1.3438,-18.0001
12:51:45.967,-0.8438,-16.9376
12:51:45.976,0.5313,-14.5001
12:51:45.988,0.5313,-12.875
12:51:45.998,0.6875,-11.9375
12:51:46.009,0.3125,-12.375
12:51:46.017,-0.0625,-13.4376
12:51:46.027,-0.7813,-15.6251
12:51:46.038,-2.5313,-18.9376
12:51:46.046,-3.9375,-22.4376
12:51:46.058,-7.5,-27.5626
12:51:46.068,-9.9063,-33.3751
12:51:46.078,-13.6251,-39.3127
12:51:46.103,-17.4063,-46.6877
12:51:46.105,-20.7501,-53.1877
12:51:46.108,-24.3438,-60.6877
12:51:46.118,-27.3126,-66.4378
12:51:46.127,-30.5626,-73.3128
12:51:46.136,-33.5001,-78.7503
12:51:46.148,-34.6564,-83.0628
12:51:46.165,-36.8439,-86.0628
12:51:46.167,-36.9064,-89.5628
12:51:46.182,-36.4689,-88.7503
12:51:46.197,-31.4376,-81.5003
12:51:46.200,-24.3751,-67.5003
12:51:46.210,-12.2813,-46.1252
12:51:46.216,0.25,-19.1251
12:51:46.233,13.8751,10.375
12:51:46.238,27.1564,37.5626
12:51:46.248,38.4064,63.8127
12:51:46.259,47.6564,84.6253
12:51:46.274,54.5315,101.0629
12:51:46.278,58.0002,111.2504
12:51:46.313,60.0627,117.5629
12:51:46.316,60.8752,120.188
12:51:46.318,58.719,117.6879
12:51:46.320,55.3752,114.2504
12:51:46.353,52.1877,108.3129
12:51:46.355,48.5002,100.9379
12:51:46.358,44.3439,91.5629
12:51:46.363,40.3439,84.1878
12:51:46.388,35.3751,73.9378
12:51:46.390,30.1564,63.5627
12:51:46.394,24.4063,51.0627
12:51:46.397,18.6563,38.7501
12:51:46.431,13.1875,27.3126
12:51:46.433,7.1563,15.7501
12:51:46.435,3.3438,6.375
12:51:46.438,-0.125,-1.75
12:51:46.449,-2.75,-7.625
12:51:46.458,-4.4688,-12.8125
12:51:46.468,-5.625,-14.6251
12:51:46.478,-5.7188,-16.1876
12:51:46.488,-5.375,-16.1876
12:51:46.497,-4.4063,-14.8751
12:51:46.508,-3.4375,-14.8126
12:51:46.518,-3.375,-13.9376
12:51:46.528,-2.3438,-12.8125
12:51:46.539,-3.4063,-12.625
12:51:46.548,-2.6875,-13
12:51:46.559,-3.5,-15.0001
12:51:46.568,-5.0313,-16.3126
12:51:46.578,-6.5938,-19.1876
12:51:46.588,-8.7188,-24.1876
12:51:46.597,-10.7813,-27.8751
12:51:46.608,-14.5001,-34.2501
12:51:46.618,-17.0626,-41.0002
12:51:46.628,-20.5938,-46.5002
12:51:46.638,-23.5938,-54.6252
12:51:46.648,-26.3751,-60.8127
12:51:46.658,-30.3439,-67.1253
12:51:46.668,-33.2501,-75.4378
12:51:46.678,-36.3751,-79.9378
12:51:46.688,-38.3751,-86.8753
12:51:46.697,-40.0627,-90.3128
12:51:46.708,-42.0314,-94.9379
12:51:46.718,-41.1252,-94.5629
12:51:46.728,-38.8126,-92.0629
12:51:46.737,-32.4689,-81.2503
12:51:46.748,-22.5626,-63.5627
12:51:46.759,-9.75,-38.5001
12:51:46.768,3.75,-9.6875
12:51:46.778,18.2188,18.7501
12:51:46.788,30.2189,46.0627
12:51:46.797,40.2189,69.2503
12:51:46.808,48.2814,88.3128
12:51:46.817,53.1565,102.3129
12:51:46.827,55.969,111.2504
12:51:46.864,57.3752,115.1254
12:51:46.867,56.6877,115.8754
12:51:46.869,54.7815,113.6254
12:51:46.875,52.8127,109.5629
12:51:46.883,48.5627,102.5004
12:51:46.893,45.3127,94.3129
12:51:46.903,40.5314,85.7503
12:51:46.912,36.0626,75.8128
12:51:46.922,30.1876,65.5003
12:51:46.934,25.6876,54.4377
12:51:46.942,19.1563,42.0627
12:51:46.953,14.2813,30.0626
12:51:46.962,7.875,18.7501
12:51:46.972,2.9375,8.25
12:51:46.983,-1.125,-1.25
12:51:46.992,-4.375,-9.1875
12:51:47.003,-8.4063,-16.8126
12:51:47.013,-9.0625,-20.9376
12:51:47.023,-9.0625,-21.8126
12:51:47.033,-9.0313,-21.5626
12:51:47.043,-7.75,-20.8126
12:51:47.053,-7.4688,-20.1876
12:51:47.062,-6.6875,-18.9376
12:51:47.073,-6,-18.9376
12:51:47.083,-7.0625,-18.8126
12:51:47.117,-7.1563,-19.3126
12:51:47.119,-7.6875,-21.1876
12:51:47.187,-10.0313,-23.1251
12:51:47.189,-11.0625,-25.9376
12:51:47.219,-12.8125,-30.4376
12:51:47.220,-15.3126,-34.9376
12:51:47.245,-18.5313,-40.6877
12:51:47.245,-21.5626,-46.3127
12:51:47.248,-25.0001,-53.0627
12:51:47.248,-27.9689,-59.6252
12:51:47.270,-31.3126,-66.2503
12:51:47.272,-34.5314,-71.1253
12:51:47.277,-38.1564,-79.7503
12:51:47.281,-40.6877,-84.1253
12:51:47.287,-43.7189,-91.9379
12:51:47.298,-45.9377,-95.7504
12:51:47.307,-47.5939,-101.3129
12:51:47.317,-48.5314,-103.5629
12:51:47.329,-48.1877,-104.9379
12:51:47.338,-45.4689,-100.0004
12:51:47.348,-38.8126,-90.7503
12:51:47.357,-28.3126,-71.0628
12:51:47.382,-15.0626,-44.5627
12:51:47.385,0.25,-15.3126
12:51:47.387,57.7815,117.3129
12:51:47.398,57.219,118.6255
12:51:47.408,56.1565,117.7505
12:51:47.418,52.7815,111.5004
12:51:47.428,49.7189,105.1879
12:51:47.437,44.3127,96.4379
12:51:47.448,39.6877,86.8128
12:51:47.458,35.5939,77.3753
12:51:47.467,29.7814,65.1252
12:51:47.483,23.9688,54.6252
12:51:47.492,17.8751,41.3752
12:51:47.498,11.4688,28.6876
12:51:47.515,5.4688,15.3751
12:51:47.523,0.7188,5.375
12:51:47.529,-3.3125,-4.625
12:51:47.539,-6.5938,-11.125
12:51:47.550,-8.8125,-18.5001
12:51:47.558,-10.4375,-22.1876
12:51:47.568,-10.4063,-23.6251
12:51:47.577,-10.8125,-23.5626
12:51:47.587,-10.2813,-23.8751
12:51:47.598,-8.5938,-22.6251
12:51:47.608,-8.75,-21.1876
12:51:47.617,-7.8438,-20.2501
12:51:47.628,-7.7188,-20.8126
12:51:47.638,-7.1563,-20.1876
12:51:47.648,-7.2188,-20.0626
12:51:47.658,-8.0938,-20.7501
12:51:47.667,-9.2188,-23.1876
12:51:47.678,-10.3125,-26.4376
12:51:47.688,-12.4688,-30.3126
12:51:47.698,-14.6251,-34.5001
12:51:47.709,-17.2813,-40.6252
12:51:47.717,-20.3126,-45.3127
12:51:47.728,-22.9063,-52.6877
12:51:47.739,-26.1876,-58.5002
12:51:47.747,-30.3126,-66.2503
12:51:47.757,-33.0001,-73.0003
12:51:47.770,-36.5939,-77.9378
12:51:47.777,-39.8439,-85.8753
12:51:47.788,-42.0627,-90.6879
12:51:47.798,-44.2189,-96.5629
12:51:47.808,-45.4064,-100.0629
12:51:47.817,-47.1877,-104.0629
12:51:47.831,-47.2814,-105.8754
12:51:47.862,-45.8752,-103.5004
12:51:47.864,-39.2502,-94.3129
12:51:47.867,-29.9689,-76.8128
12:51:47.869,-16.8438,-51.6252
12:51:47.897,-2.5938,-22.5626
12:51:47.900,12.6563,8
12:51:47.903,25.7188,37.4376
12:51:47.909,36.9689,62.7502
12:51:47.942,45.0939,81.7503
12:51:47.943,50.3439,96.6254
12:51:47.946,54.1252,105.2504
12:51:47.952,54.2815,108.7504
12:51:47.978,53.8752,110.3754
12:51:47.980,51.8752,106.9379
12:51:47.982,49.4064,101.8754
12:51:48.006,45.3752,94.8754
12:51:48.006,41.5627,86.3128
12:51:48.008,37.3126,76.9378
12:51:48.019,32.5314,66.6253
12:51:48.028,27.1876,55.1877
12:51:48.037,22.2813,43.3127
12:51:48.048,14.8438,30.6251
12:51:48.058,8.4688,17.4376
12:51:48.068,2.9375,3.9375
12:51:48.078,-2.2813,-6.625
12:51:48.088,-5.5,-15.3126
12:51:48.098,-8.4063,-21.5001
12:51:48.109,-10.0938,-24.7501
12:51:48.117,-9.8438,-28.3751
12:51:48.127,-9.5938,-28.3126
12:51:48.138,-8.3125,-26.8751
12:51:48.148,-6.625,-25.0626
12:51:48.159,-5.6563,-21.6876
12:51:48.168,-4.2813,-19.4376
12:51:48.178,-2.9688,-18.0626
12:51:48.188,-2.875,-16.5001
12:51:48.198,-2.4375,-16.6251
12:51:48.208,-2.8438,-17.3751
12:51:48.218,-4.3438,-19.0001
12:51:48.228,-5.9063,-22.2501
12:51:48.238,-6.8125,-26.0001
12:51:48.248,-9.1563,-28.8751
12:51:48.258,-11.3438,-34.4376
12:51:48.268,-13.1563,-39.3752
12:51:48.278,-16.9688,-45.3127
12:51:48.289,-19.4688,-51.6877
12:51:48.297,-23.4688,-58.3752
12:51:48.308,-25.6563,-64.5002
12:51:48.317,-28.4376,-70.1878
12:51:48.328,-31.5626,-77.1253
12:51:48.338,-33.6251,-82.0628
12:51:48.348,-36.9376,-89.5628
12:51:48.358,-39.4064,-94.1254
12:51:48.367,-41.6877,-99.0629
12:51:48.378,-43.3127,-103.1254
12:51:48.388,-43.4377,-105.4379
12:51:48.398,-42.5002,-104.5004
12:51:48.407,-36.4064,-96.2504
12:51:48.417,-28.5314,-80.6878
12:51:48.428,-15.4688,-56.7502
12:51:48.438,-1.1875,-27.6876
12:51:48.447,13.5938,3.3125
12:51:48.457,27.3126,33.1251
12:51:48.472,38.4376,59.1252
12:51:48.480,47.7189,82.2503
12:51:48.494,53.9377,98.7504
12:51:48.509,59.0002,110.4379
12:51:48.510,60.5315,117.7505
12:51:48.520,61.3127,120.188
12:51:48.528,59.5315,119.563
12:51:48.538,57.344,115.3754
12:51:48.547,53.8127,110.6879
12:51:48.572,50.4064,102.8754
12:51:48.574,45.7814,95.0629
12:51:48.602,41.0314,84.1878
12:51:48.604,35.6251,74.7503
12:51:48.606,30.3751,63.5002
12:51:48.609,25.5001,52.6252
12:51:48.641,19.4376,39.4377
12:51:48.652,13.7501,27.4376
12:51:48.657,8.625,16.4376
12:51:48.669,3.8125,5.6875
12:51:48.673,0.8125,-2.5625
12:51:48.675,-2.0625,-7.5625
12:51:48.678,-3.5313,-11.9375
12:51:48.709,-4.75,-13.6876
12:51:48.710,-3.2813,-14.3751
12:51:48.713,-3.5313,-13.3751
12:51:48.719,-2.1875,-12.5625
12:51:48.737,-1.3438,-10.5
12:51:48.739,-0.5625,-7.9375
12:51:48.748,0.2813,-7.375
12:51:48.757,0.25,-7.1875
12:51:48.769,-0.0938,-6.375
12:51:48.777,-0.5625,-8.0625
12:51:48.788,-2.5938,-10.5625
12:51:48.805,-4.0625,-14.5626
12:51:48.812,-6.5,-18.6876
12:51:48.820,-8.875,-22.5626
12:51:48.828,-11.1875,-28.5001
12:51:48.843,-14.0938,-33.9376
12:51:48.851,-17.6563,-39.6252
12:51:48.859,-20.2501,-46.8127
12:51:48.874,-24.3126,-52.3752
12:51:48.879,-27.2501,-60.5627
12:51:48.888,-29.9064,-66.3128
12:51:48.898,-33.0001,-72.4378
12:51:48.908,-35.2501,-77.8128
12:51:48.918,-38.4689,-83.3753
12:51:48.929,-40.0314,-88.0628
12:51:48.937,-41.3127,-91.1879
12:51:48.949,-41.6564,-92.8129
12:51:48.959,-39.2814,-90.0628
12:51:48.967,-33.7814,-81.4378
12:51:48.979,-24.5313,-64.5002
12:51:48.988,-11.8125,-40.2502
12:51:48.998,1.8438,-11.75
12:51:49.007,16.8126,19.0626
12:51:49.019,29.0314,47.0002
12:51:49.028,40.1252,71.5628
12:51:49.037,48.3752,92.3754
12:51:49.049,54.3127,106.7504
12:51:49.058,58.2815,117.688
12:51:49.068,58.8127,122.063
12:51:49.079,58.6565,122.938
12:51:49.088,56.469,121.7505
12:51:49.098,54.594,116.3754
12:51:49.109,50.3127,111.0629
12:51:49.118,46.0627,101.5629
12:51:49.129,42.7502,93.0629
12:51:49.139,37.0939,83.5628
12:51:49.148,31.5626,73.0003
12:51:49.158,26.7189,61.3752
12:51:49.174,21.2813,49.6877
12:51:49.198,14.4688,37.8751
12:51:49.201,9.7188,26.3126
12:51:49.203,4.7188,14.5001
12:51:49.214,0.4375,5.25
12:51:49.246,-2.1875,-1.75
12:51:49.246,-4.3125,-7.1875
12:51:49.249,-5.75,-10.3125
12:51:49.255,-5.4063,-11.6875
12:51:49.281,-5.4063,-11.75
12:51:49.285,-4.5938,-10.3125
12:51:49.287,-3.8438,-9.9375
12:51:49.293,-3.5938,-8.1875
12:51:49.308,-2.5938,-8
12:51:49.314,-2.8125,-6.75
12:51:49.343,-3,-7.0625
12:51:49.345,-3.7813,-8.375
12:51:49.347,-4.4688,-10.375
12:51:49.369,-6.4688,-13.6251
12:51:49.371,-7.875,-17.1251
12:51:49.375,-10.4375,-22.0626
12:51:49.383,-12.9063,-26.3751
12:51:49.393,-16.0938,-32.6876
12:51:49.402,-18.7501,-38.1251
12:51:49.413,-22.3751,-43.9377
12:51:49.422,-25.2188,-52.1877
12:51:49.432,-29.0001,-57.5002
12:51:49.443,-32.3751,-65.5003
12:51:49.454,-35.6564,-72.3128
12:51:49.464,-39.4689,-78.7503
12:51:49.472,-42.0627,-85.8128
12:51:49.486,-43.6252,-90.3753
12:51:49.494,-46.0939,-94.5629
12:51:49.502,-46.9064,-97.9379
12:51:49.514,-47.0939,-100.0004
12:51:49.522,-44.8439,-97.0629
12:51:49.534,-39.3439,-90.1879
12:51:49.543,-29.6251,-72.3753
12:51:49.554,-17.9688,-48.1252
12:51:49.566,-3.5625,-20.3751
12:51:49.574,10.25,9.75
12:51:49.584,24.1876,37.6251
12:51:49.595,34.6876,63.7502
12:51:49.602,43.8439,84.4378
12:51:49.613,49.5939,99.6879
12:51:49.622,53.5627,110.9379
12:51:49.634,55.5315,115.9379
12:51:49.644,55.0627,118.313
12:51:49.652,53.844,115.9379
12:51:49.664,51.2814,112.0004
12:51:49.674,47.3127,104.3129
12:51:49.684,43.7814,97.0004
12:51:49.695,38.7189,88.0628
12:51:49.702,34.4376,77.6253
12:51:49.714,28.8126,68.1253
12:51:49.723,23.4688,54.8752
12:51:49.732,17.1563,43.1877
12:51:49.743,11.2813,30.2501
12:51:49.752,5.6563,17.5001
12:51:49.764,1.0625,6.9375
12:51:49.774,-3.5313,-2
12:51:49.794,-6.2188,-9.8125
12:51:49.796,-8.3125,-14.9376
12:51:49.807,-10.125,-18.4376
12:51:49.813,-10,-20.0626
12:51:49.829,-9.25,-20.6251
12:51:49.836,-9.5313,-19.9376
12:51:49.844,-7.9688,-19.1251
12:51:49.853,-7.375,-17.9376
12:51:49.865,-6.625,-15.5001
12:51:49.874,-6.7813,-16.9376
12:51:49.882,-6.2813,-16.3751
12:51:49.894,-7.0938,-17.1251
12:51:49.903,-7.8125,-18.3126
12:51:49.914,-8.6875,-20.4376
12:51:49.942,-10.125,-23.8751
12:51:49.944,-12.6875,-26.5626
12:51:49.946,-14.7188,-32.7501
12:51:49.985,-17.5001,-36.3126
12:51:49.987,-19.5938,-43.1877
12:51:49.989,-22.7813,-47.6877
12:51:49.995,-24.9688,-55.1252
12:51:49.995,-28.7814,-59.5627
12:51:50.010,-31.6876,-68.1253
12:51:50.015,-34.7501,-74.1253
12:51:50.045,-38.7501,-80.8128
12:51:50.047,-41.4689,-87.5628
12:51:50.050,-44.1877,-93.1254
12:51:50.056,-46.5314,-98.9379
12:51:50.085,-48.1877,-102.0004
12:51:50.087,-49.5314,-106.8754
12:51:50.089,-49.3127,-108.0629
12:51:50.097,-46.9377,-105.6254
12:51:50.129,-42.5627,-96.9379
12:51:50.146,-33.0001,-81.5628
12:51:50.159,-20.3438,-57.0627
12:51:50.174,-6.25,-29.1876
12:51:50.174,8.4375,1.4375
12:51:50.177,22.1251,30.4376
12:51:50.191,33.3439,57.1252
12:51:50.194,42.2189,77.5003
12:51:50.196,48.6564,94.5629
12:51:50.196,52.5002,104.5629
12:51:50.204,54.0002,109.9379
12:51:50.214,54.0627,111.9379
12:51:50.224,52.3752,110.8129
12:51:50.234,49.7814,105.1879
12:51:50.244,45.8127,99.0004
12:51:50.256,41.8127,90.2503
12:51:50.265,37.4376,82.0628
12:51:50.274,32.2501,70.5003
12:51:50.284,26.0938,59.2502
12:51:50.294,20.1563,47.5002
12:51:50.304,14.1876,34.5626
12:51:50.314,8.125,20.9376
12:51:50.324,2.0625,8.875
12:51:50.334,-2.875,-1.4375
12:51:50.343,-7.2813,-11.9375
12:51:50.354,-9.8438,-19.4376
12:51:50.364,-12.4063,-24.5001
12:51:50.375,-13.0938,-27.8126
12:51:50.384,-13.9376,-28.8751
12:51:50.394,-12.5625,-27.9376
12:51:50.405,-11.4688,-27.0001
12:51:50.415,-10.375,-25.3751
12:51:50.424,-9.5,-23.3751
12:51:50.434,-8.375,-22.6876
12:51:50.443,-7.4375,-21.0001
12:51:50.454,-7.2188,-20.6251
12:51:50.465,-8.0938,-21.9376
12:51:50.474,-9,-23.5001
12:51:50.484,-10.5,-25.5626
12:51:50.493,-12.25,-28.1251
12:51:50.504,-13.3126,-32.4376
12:51:50.516,-16.3751,-35.9376
12:51:50.524,-17.7813,-42.1252
12:51:50.534,-20.9688,-45.9377
12:51:50.544,-22.7188,-52.6877
12:51:50.554,-26.3439,-58.0002
12:51:50.564,-29.2501,-65.4378
12:51:50.574,-32.7501,-70.5003
12:51:50.584,-34.5939,-77.5003
12:51:50.593,-38.4376,-82.8128
12:51:50.604,-40.8439,-90.3754
12:51:50.615,-43.8752,-94.8129
12:51:50.624,-46.1877,-101.3754
12:51:50.634,-48.3127,-104.2504
12:51:50.643,-49.5627,-109.1254
12:51:50.654,-49.4689,-111.6254
12:51:50.664,-50.0627,-112.3754
12:51:50.674,-46.3752,-108.2504
12:51:50.683,-40.1252,-97.1254
12:51:50.694,-28.8751,-78.1253
12:51:50.718,-15.3751,-52.2502
12:51:50.719,-0.1563,-22.3751
12:51:50.747,14.8126,9.375
12:51:50.750,27.7501,37.5626
12:51:50.751,38.5939,62.9377
12:51:50.755,47.1564,81.8128
12:51:50.789,52.0002,96.3129
12:51:50.791,55.4377,105.3754
12:51:50.794,56.469,110.0004
12:51:50.801,55.8127,110.0629
12:51:50.806,53.344,106.6879
12:51:50.835,50.1564,101.3129
12:51:50.838,46.5314,93.5629
12:51:50.840,41.9689,84.6253
12:51:50.843,36.5314,74.6878
12:51:50.875,32.2501,64.3127
12:51:50.877,26.3751,53.1877
12:51:50.879,20.6251,40.3752
12:51:50.886,14.4688,27.7501
12:51:50.893,8.3438,14.8126
12:51:50.909,3.625,3.0625
12:51:50.919,-0.5938,-6.4375
12:51:50.929,-3.7813,-13.1876
12:51:50.939,-5.4688,-20.0001
12:51:50.948,-6.8438,-23.3751
12:51:50.959,-6.5313,-25.0001
12:51:50.969,-5.9688,-24.4376
12:51:50.979,-4.7188,-22.1876
12:51:50.989,-3.5,-20.0626
12:51:50.999,-1.4375,-18.3126
12:51:51.009,-0.6875,-15.4376
12:51:51.019,-0.2188,-13.8751
12:51:51.030,0.2188,-13.3126
12:51:51.039,-0.2188,-14.3126
12:51:51.048,-0.6875,-14.9376
12:51:51.058,-1.7188,-16.6876
12:51:51.069,-4.5313,-21.4376
12:51:51.079,-5.0625,-24.3126
12:51:51.090,-8.375,-28.8126
12:51:51.099,-10.4375,-33.6251
12:51:51.114,-13.125,-39.3127
12:51:51.121,-15.1563,-44.1877
12:51:51.129,-18.4688,-50.5002
12:51:51.144,-21.6563,-55.4377
12:51:51.160,-24.8751,-61.8127
12:51:51.163,-27.2814,-68.0003
12:51:51.170,-30.5626,-73.1253
12:51:51.179,-32.6876,-79.2503
12:51:51.189,-34.8439,-85.6878
12:51:51.222,-37.1564,-90.2504
12:51:51.224,-39.5002,-95.7504
12:51:51.227,-40.7189,-99.0004
12:51:51.231,-42.3127,-102.4379
12:51:51.239,-42.1564,-102.4379
12:51:51.249,-38.2501,-98.6879
12:51:51.259,-32.1251,-87.2503
12:51:51.274,-22.0938,-66.8128
12:51:51.281,-7.9063,-42.0002
12:51:51.289,6.625,-12.375
12:51:51.299,21.6251,19.6876
12:51:51.308,34.6876,48.1252
12:51:51.319,45.7189,73.3128
12:51:51.329,53.9377,95.1254
12:51:51.339,60.1252,109.0004
12:51:51.349,63.4377,118.7505
12:51:51.360,64.5627,122.938
12:51:51.369,63.7815,124.3755
12:51:51.379,62.0315,121.688
12:51:51.389,58.9065,116.9379
12:51:51.399,55.1252,109.1879
12:51:51.409,51.4377,102.5004
12:51:51.419,46.4377,93.0629
12:51:51.433,41.6564,83.1253
12:51:51.439,36.0314,73.1878
12:51:51.469,30.0939,60.2502
12:51:51.471,23.4063,46.8127
12:51:51.516,17.4376,34.2501
12:51:51.556,11.6875,23.2501
12:51:51.556,7.2188,12.375
12:51:51.556,2.8125,3.75
12:51:51.559,0.25,-3
12:51:51.559,-1.6875,-7.5625
12:51:51.565,-1.8125,-10.3125
12:51:51.565,-1.7188,-10.625
12:51:51.565,-1.2188,-9.0625
12:51:51.602,0.2188,-7.625
12:51:51.604,1.75,-4.75
12:51:51.607,3.25,-2.5625
12:51:51.609,4.8438,-0.4375
12:51:51.618,5.1875,0.8125
12:51:51.624,5.0625,0.5
12:51:51.634,4.5,-0.0625
12:51:51.649,2.9688,-1.9375
12:51:51.656,1,-5.4375
12:51:51.663,-1.0625,-8.3125
12:51:51.674,-2.9375,-14.0626
12:51:51.684,-10.4375,-24.9376
12:51:51.694,-13.0313,-33.1876
12:51:51.705,-15.5626,-39.3126
12:51:51.714,-18.8126,-44.5627
12:51:51.724,-21.7813,-51.8127
12:51:51.734,-24.2188,-57.1252
12:51:51.744,-27.5001,-63.0002
12:51:51.753,-30.7501,-68.3128
12:51:51.764,-33.1876,-75.1253
12:51:51.774,-36.0314,-79.0628
12:51:51.784,-37.4064,-84.3753
12:51:51.794,-38.6251,-87.9378
12:51:51.804,-38.6876,-89.3128
12:51:51.814,-37.0001,-87.4378
12:51:51.824,-31.0314,-79.2503
12:51:51.834,-22.2188,-61.5002
12:51:51.844,-9.3125,-38.6876
12:51:51.854,4.375,-9.25
12:51:51.866,19.3126,20.0626
12:51:51.875,31.8751,49.6252
12:51:51.884,43.6877,74.2503
12:51:51.895,52.5627,96.3129
12:51:51.904,58.6565,112.8129
12:51:51.914,63.5002,124.688
12:51:51.924,65.5003,130.188
12:51:51.934,65.0315,133.063
12:51:51.944,64.0315,131.7505
12:51:51.954,61.0627,127.438
12:51:51.968,58.2502,121.3755
12:51:51.975,54.1877,114.5629
12:51:51.985,50.3439,105.1879
12:51:51.994,45.4064,96.5629
12:51:52.003,40.1564,86.5628
12:51:52.013,34.3439,73.8128
12:51:52.027,28.7501,61.8127
12:51:52.034,22.1251,48.7502
12:51:52.043,16.0626,36.6876
12:51:52.054,11.25,26.3751
12:51:52.063,6.2813,16.7501
12:51:52.074,2.25,9.125
12:51:52.084,1.2813,2.4375
12:51:52.094,-0.375,-0.875
12:51:52.104,-0.6563,-3.375
12:51:52.116,-0.8125,-3.8125
12:51:52.157,0.2188,-3.75
12:51:52.159,1,-1.8125
12:51:52.162,1.7813,0.25
12:51:52.164,3.125,1.25
12:51:52.168,4.25,2.375
12:51:52.202,4.625,3.5625
12:51:52.204,3.625,4.0625
12:51:52.206,3.4688,3.25
12:51:52.211,2.875,0.3125
12:51:52.217,0.375,-2.5
12:51:52.248,-1.0625,-6.4375
12:51:52.249,-3.5625,-11
12:51:52.251,-5.75,-16.5001
12:51:52.254,-8.7813,-21.3751
12:51:52.294,-11.3438,-28.1876
12:51:52.296,-15.2813,-33.5001
12:51:52.297,-18.8438,-41.0002
12:51:52.301,-22.2501,-46.7502
12:51:52.307,-25.3751,-55.1877
12:51:52.315,-29.4376,-61.9377
12:51:52.324,-32.7814,-68.0628
12:51:52.334,-35.3126,-74.8128
12:51:52.344,-37.0001,-80.2503
12:51:52.353,-38.6251,-83.6253
12:51:52.364,-40.1877,-87.6878
12:51:52.374,-40.8127,-90.1878
12:51:52.384,-39.9377,-88.5628
12:51:52.400,-35.7189,-82.7503
12:51:52.404,-27.0314,-67.8128
12:51:52.414,-15.2813,-46.1877
12:51:52.430,-1.0313,-19.3751
12:51:52.438,12.6875,12.125
12:51:52.444,27.0001,39.8752
12:51:52.461,38.6876,66.8128
12:51:52.464,49.0002,89.3128
12:51:52.504,56.4065,107.3129
12:51:52.506,60.5627,120.3755
12:51:52.507,62.8127,127.8755
12:51:52.509,63.3127,130.688
12:51:52.518,62.8127,130.313
12:51:52.524,59.844,127.188
12:51:52.534,57.2815,121.688
12:51:52.544,54.219,115.4379
12:51:52.554,49.4377,106.9379
12:51:52.564,45.0939,97.8754
12:51:52.574,39.5939,88.3753
12:51:52.584,34.8126,76.1253
12:51:52.594,28.1876,64.6877
12:51:52.604,22.4063,52.1252
12:51:52.614,16.6563,40.1877
12:51:52.625,11.9688,28.0001
12:51:52.635,7.0938,18.1251
12:51:52.645,3.4375,10.4375
12:51:52.653,0.4688,4.25
12:51:52.664,-1,-0.875
12:51:52.674,-1.4063,-3.6875
12:51:52.684,-1.125,-4.1875
12:51:52.693,-0.3125,-3.9375
12:51:52.704,0.4063,-2.8125
12:51:52.714,1.5625,-0.6875
12:51:52.724,2.8125,1.125
12:51:52.734,2.9375,1.25
12:51:52.745,3.1875,1.6875
12:51:52.755,3.0938,1.375
12:51:52.764,2.2188,0.0625
12:51:52.774,0.6875,-3.0625
12:51:52.784,-0.7188,-5.125
12:51:52.804,-2.375,-9.3125
12:51:52.812,-4.4063,-12.3125
12:51:52.818,-6.1875,-17.3126
12:51:52.824,-9.2813,-23.1876
12:51:52.841,-12.1563,-28.4376
12:51:52.848,-14.8126,-35.5001
12:51:52.856,-18.6251,-41.0002
12:51:52.877,-21.4376,-49.3752
12:51:52.879,-25.2501,-54.3127
12:51:52.913,-27.6876,-62.5002
12:51:52.914,-31.4689,-68.3128
12:51:52.919,-34.3126,-74.3753
12:51:52.919,-37.0001,-81.5003
12:51:52.926,-38.4689,-85.5628
12:51:52.936,-40.0002,-90.3129
12:51:52.967,-41.6564,-92.6254
12:51:52.969,-43.0314,-96.1879
12:51:52.972,-41.9377,-95.3754
12:51:53.000,-37.3439,-89.5628
12:51:53.003,-28.2501,-74.6878
12:51:53.005,-16.8126,-50.8752
12:51:53.011,-2.2188,-23.3751
12:51:53.046,11.9063,7.0625
12:51:53.048,25.4063,34.7501
12:51:53.051,37.6564,61.7502
12:51:53.058,46.1564,84.1253
12:51:53.060,53.4065,101.1254
12:51:53.069,58.4377,114.7504
12:51:53.079,60.594,121.5005
12:51:53.089,61.5627,126.2505
12:51:53.099,60.5002,124.563
12:51:53.108,58.9377,122.813
12:51:53.120,55.3752,115.8129
12:51:53.129,50.2502,108.0004
12:51:53.139,45.0627,97.1254
12:51:53.150,40.8439,87.1253
12:51:53.158,35.4064,76.4378
12:51:53.169,30.4064,64.5627
12:51:53.180,24.1563,52.8127
12:51:53.189,18.7188,39.9377
12:51:53.200,12.5938,28.5001
12:51:53.208,7.75,18.2501
12:51:53.220,4.3125,8.8125
12:51:53.228,2,2.0625
12:51:53.239,0.3125,-2.625
12:51:53.248,-0.625,-5
12:51:53.260,-0.0938,-6.25
12:51:53.269,-0.0313,-6.1875
12:51:53.280,1.6875,-5.25
12:51:53.289,1.625,-4.125
12:51:53.301,3.6563,-1.875
12:51:53.310,3.6875,-0.625
12:51:53.318,4.8438,0.0625
12:51:53.329,3.9688,0.0625
12:51:53.340,3.1563,-1.75
12:51:53.350,2.0625,-3.875
12:51:53.360,0.25,-5.5625
12:51:53.371,-1.5,-9.5
12:51:53.381,-3.1563,-13.2501
12:51:53.389,-5.75,-17.4376
12:51:53.400,-7.75,-23.0001
12:51:53.409,-10.3125,-27.4376
12:51:53.419,-13.4376,-34.3751
12:51:53.430,-16.1563,-40.3127
12:51:53.439,-20.3751,-46.0627
12:51:53.450,-22.8126,-53.6252
12:51:53.459,-26.3751,-59.1877
12:51:53.471,-28.9064,-66.2503
12:51:53.480,-31.9376,-71.8753
12:51:53.490,-33.7501,-78.0628
12:51:53.500,-36.7189,-82.8753
12:51:53.510,-38.2501,-88.6878
12:51:53.525,-40.6252,-91.9379
12:51:53.531,-41.1252,-95.8754
12:51:53.539,-41.4064,-95.1879
12:51:53.548,-36.8126,-91.7504
12:51:53.560,-29.4689,-78.5003
12:51:53.569,-17.5938,-59.4377
12:51:53.580,-4.4688,-32.6876
12:51:53.590,10.5,-2.5625
12:51:53.600,24.8126,27.4376
12:51:53.609,36.6564,54.7502
12:51:53.620,47.5627,77.8128
12:51:53.629,55.6565,98.2504
12:51:53.641,61.344,111.6254
12:51:53.663,64.594,120.7505
12:51:53.663,65.9378,125.0005
12:51:53.688,65.2815,125.563
12:51:53.690,63.844,122.8755
12:51:53.693,60.5315,118.1255
12:51:53.701,57.4377,110.6254
12:51:53.737,53.1252,103.1879
12:51:53.739,48.3752,93.6254
12:51:53.773,44.4377,84.5003
12:51:53.831,39.2189,74.1878
12:51:53.845,33.3439,62.8127
12:51:53.845,26.5939,49.7502
12:51:53.845,18.9688,36.7501
12:51:53.845,11.0938,21.5626
12:51:53.859,1.4375,8.375
12:51:53.862,-7.375,-4.1875
12:51:53.868,-16.1876,-12.75
12:51:53.868,-28.0314,-22.1251
12:51:53.871,-43.0627,-32.1251
12:51:53.880,-46.4377,-34.8126
12:51:53.889,-54.5627,-37.4376
12:51:53.900,-79.6878,-52.3127
12:51:53.910,-95.1254,-63.1877
12:51:53.920,-106.4379,-63.3127
12:51:53.930,-127.4067,-70.0003
12:51:53.940,-144.5318,-74.3753
12:51:53.951,-146.9381,-66.8128
12:51:53.961,-142.813,-56.8752
12:51:53.969,-142.313,-50.1877
12:51:53.981,-139.938,-42.8127
12:51:53.990,-135.9068,-37.0001
12:51:54.000,-133.0943,-33.1251
12:51:54.008,-132.563,-32.0626
12:51:54.020,-131.6568,-32.3126
12:51:54.029,-141.3443,-47.1877
12:51:54.040,-139.4068,-49.2502
12:51:54.050,-134.813,-49.4377
12:51:54.060,-130.438,-49.4377
12:51:54.069,-127.6567,-50.6252
12:51:54.080,-129.3442,-55.8127
12:51:54.089,-132.2505,-61.5002
12:51:54.100,-133.8443,-66.8128
12:51:54.110,-132.563,-67.1878
12:51:54.132,-127.938,-65.1252
12:51:54.135,-119.438,-55.4377
12:51:54.141,-107.6254,-40.7502
12:51:54.155,-92.2504,-17.5001
12:51:54.170,-76.469,7.0625
12:51:54.172,-60.6877,35.4376
12:51:54.183,-46.9377,62.1877
12:51:54.190,-33.5626,88.7503
12:51:54.200,-21.3126,111.7504
12:51:54.210,-11.6563,131.0005
12:51:54.221,-5.0625,144.188
12:51:54.231,-0.1875,154.3131
12:51:54.240,3.0938,159.8131
12:51:54.250,5.0313,163.1881
12:51:54.261,4.875,162.1256
12:51:54.276,3.0625,157.8131
12:51:54.282,-0.8125,151.5006
12:51:54.290,-4.3125,144.188
12:51:54.301,-8.25,135.438
12:51:54.310,-14.7188,125.188
12:51:54.320,-21.8126,110.5629
12:51:54.330,-28.7501,97.1879
12:51:54.340,-34.6876,83.1878
12:51:54.352,-38.7814,69.9378
12:51:54.375,-44.4377,57.3127
12:51:54.377,-48.2814,47.6877
12:51:54.380,-51.5627,37.3751
12:51:54.409,-53.7815,29.3126
12:51:54.410,-54.1252,24.2501
12:51:54.412,-53.6877,21.1876
12:51:54.444,-51.5627,18.0626
12:51:54.445,-50.3127,16.3751
12:51:54.448,-48.5314,14.6876
12:51:54.450,-48.4377,13.4376
12:51:54.478,-47.1877,11.25
12:51:54.481,-47.2814,9.6875
12:51:54.483,-46.8752,6.6875
12:51:54.516,-47.9689,3.3125
12:51:54.518,-48.4064,0.1875
12:51:54.520,-51.1252,-4.875
12:51:54.525,-53.8752,-10.4375
12:51:54.540,-55.9377,-16.4376
12:51:54.542,-58.6565,-22.1251
12:51:54.550,-60.7502,-27.6876
12:51:54.561,-62.6252,-33.6876
12:51:54.571,-64.6252,-39.5002
12:51:54.581,-68.1878,-46.6252
12:51:54.590,-70.094,-51.7502
12:51:54.600,-71.8128,-57.2502
12:51:54.610,-73.969,-62.3127
12:51:54.620,-73.6565,-65.7503
12:51:54.631,-72.0003,-67.0628
12:51:54.641,-69.5628,-68.0628
12:51:54.655,-67.219,-67.7503
12:51:54.660,-63.6565,-67.0628
12:51:54.670,-59.6252,-64.3752
12:51:54.680,-54.1252,-60.1877
12:51:54.690,-48.1564,-53.1877
12:51:54.700,-37.5001,-40.7502
12:51:54.710,-23.4063,-19.5626
12:51:54.720,-7.1875,4.75
12:51:54.730,9.7188,33.0001
12:51:54.740,25.0001,59.9377
12:51:54.751,37.9064,85.9378
12:51:54.761,47.1877,105.6879
12:51:54.770,52.1252,120.938
12:51:54.780,57.5627,134.313
12:51:54.790,60.1565,142.938
12:51:54.800,62.094,148.3756
12:51:54.810,62.6565,152.5006
12:51:54.820,62.4065,152.1256
12:51:54.830,60.5315,151.3756
12:51:54.841,59.5315,148.6881
12:51:54.850,56.719,144.5005
12:51:54.860,53.0315,138.938
12:51:54.870,47.5314,131.1255
12:51:54.880,43.0314,122.7505
12:51:54.890,36.9376,113.1879
12:51:54.900,30.5314,102.5004
12:51:54.911,24.4376,90.1878
12:51:54.921,18.5938,80.0628
12:51:54.930,13.6251,70.3753
12:51:54.940,9.0938,59.3127
12:51:54.951,4.125,50.6252
12:51:54.960,-0.125,43.7502
12:51:54.997,-2.8438,38.5626
12:51:54.999,-5.4375,33.8126
12:51:55.003,-6.8438,30.5626
12:51:55.007,-6.9688,28.4376
12:51:55.016,-6.875,27.6876
12:51:55.026,-6.4375,26.9376
12:51:55.036,-6.75,26.8126
12:51:55.062,-7.7813,25.0626
12:51:55.064,-8.4375,23.3126
12:51:55.066,-9.5,20.7501
12:51:55.076,-10.8125,17.4376
12:51:55.112,-13.0938,14.3126
12:51:55.115,-15.3438,10.375
12:51:55.149,-18.2813,5.625
12:51:55.163,-20.8438,1.0625
12:51:55.166,-24.2501,-5.3125
12:51:55.237,-29.5939,-13.1876
12:51:55.237,-32.0001,-20.0001
12:51:55.237,-34.6876,-25.6876
12:51:55.237,-37.0001,-32.3751
12:51:55.240,-39.1564,-36.5001
12:51:55.246,-41.1877,-42.0002
12:51:55.246,-42.7189,-46.3752
12:51:55.246,-43.8752,-51.0002
12:51:55.252,-44.5002,-55.3127
12:51:55.270,-45.2189,-59.7502
12:51:55.273,-45.3752,-64.1252
12:51:55.280,-45.7189,-67.3128
12:51:55.291,-44.3439,-70.5628
12:51:55.300,-41.1252,-67.5628
12:51:55.311,-33.0626,-57.8752
12:51:55.320,-21.8126,-40.8127
12:51:55.330,-8.125,-18.4376
12:51:55.340,6.9688,7.4375
12:51:55.350,21.7813,33.7501
12:51:55.360,46.5939,82.5003
12:51:55.370,55.969,99.1879
12:51:55.381,61.344,113.1254
12:51:55.390,66.1878,122.1255
12:51:55.400,68.2503,127.6255
12:51:55.411,67.5628,130.688
12:51:55.422,64.5627,122.5005
12:51:55.430,60.8752,115.1879
12:51:55.440,55.0002,104.8129
12:51:55.456,49.5314,94.7504
12:51:55.473,42.5314,81.6878
12:51:55.475,34.8126,67.9378
12:51:55.481,27.5001,54.5002
12:51:55.497,20.7188,41.5002
12:51:55.501,15.1876,30.1876
12:51:55.510,10.5313,19.6876
12:51:55.520,7.4063,12.125
12:51:55.532,3.9375,3.375
12:51:55.540,0.2813,-0.875
12:51:55.550,-1.9375,-6.25
12:51:55.560,-2.7813,-9
12:51:55.570,-2.375,-9.5
12:51:55.580,-1.9063,-9.75
12:51:55.590,-2.2813,-10
12:51:55.600,-1.625,-9.4375
12:51:55.610,-2,-10.125
12:51:55.621,-3.125,-11
12:51:55.631,-3.0625,-12
12:51:55.640,-4.7813,-14.2501
12:51:55.650,-6.7813,-17.5626
12:51:55.660,-8.9063,-20.8751
12:51:55.670,-10.5,-24.1251
12:51:55.680,-12.4688,-27.9376
12:51:55.690,-14.6251,-31.4376
12:51:55.701,-16.1563,-34.9376
12:51:55.710,-17.5938,-39.0001
12:51:55.720,-18.4063,-43.1877
12:51:55.730,-19.6876,-46.6252
12:51:55.741,-20.3438,-50.6877
12:51:55.750,-21.5001,-53.1877
12:51:55.760,-22.1251,-56.5002
12:51:55.770,-22.6876,-59.1877
12:51:55.783,-24.4063,-63.7502
12:51:55.793,-24.9376,-66.5003
12:51:55.818,-26.4064,-68.6253
12:51:55.820,-27.5939,-73.3753
12:51:55.822,-28.4064,-75.6253
12:51:55.830,-28.1876,-77.5003
12:51:55.870,-26.0001,-76.5003
12:51:55.873,-21.3126,-68.9378
12:51:55.874,-11,-53.5627
12:51:55.877,0.9063,-31.3126
12:51:55.884,14.5313,-6.1875
12:51:55.923,28.2189,22.1251
12:51:55.923,41.3752,47.5627
12:51:55.924,52.5627,72.1253
12:51:55.927,61.7815,91.8129
12:51:55.931,68.0003,109.6254
12:51:55.941,74.219,122.2505
12:51:55.979,76.094,130.813
12:51:55.979,77.1253,134.7505
12:51:55.983,75.6565,136.5005
12:51:55.988,73.7815,134.1255
12:51:55.994,70.7815,131.1255
12:51:56.004,67.3128,124.7505
12:51:56.010,64.0002,120.6255
12:51:56.020,60.469,113.5629
12:51:56.030,55.5315,106.0004
12:51:56.040,50.2502,97.0629
12:51:56.050,43.8127,86.7503
12:51:56.061,37.2189,75.8128
12:51:56.071,30.1251,63.5627
12:51:56.080,23.0626,51.1252
12:51:56.090,15.5938,40.3752
12:51:56.100,10.25,30.6251
12:51:56.110,4.4063,22.9376
12:51:56.120,0.25,16.5001
12:51:56.130,-2.75,11.625
12:51:56.140,-3.8438,9.625
12:51:56.150,-3.3125,9.375
12:51:56.160,-2.5,10.0625
12:51:56.170,-2.0938,11.125
12:51:56.180,-0.7813,12.5625
12:51:56.190,-0.4688,12.625
12:51:56.200,-0.25,12.6875
12:51:56.210,-1,12.1875
12:51:56.220,-2.375,9.5
12:51:56.230,-3.375,6.6875
12:51:56.241,-5,4.0625
12:51:56.252,-7.2188,-0.3125
12:51:56.260,-9.1875,-4.8125
12:51:56.270,-11.25,-9.1875
12:51:56.281,-13.5626,-13.8751
12:51:56.290,-15.2188,-18.4376
12:51:56.300,-17.2501,-24.6251
12:51:56.311,-18.6563,-28.4376
12:51:56.342,-21.0001,-34.8126
12:51:56.344,-22.1251,-39.1251
12:51:56.346,-23.5313,-45.0002
12:51:56.351,-25.5626,-49.0002
12:51:56.360,-28.0626,-55.9377
12:51:56.372,-30.3751,-59.8127
12:51:56.381,-32.2189,-65.3127
12:51:56.390,-34.5001,-70.0003
12:51:56.400,-36.0626,-73.8753
12:51:56.410,-35.6251,-76.7503
12:51:56.420,-35.4064,-75.1253
12:51:56.430,-30.4064,-70.6878
12:51:56.441,-21.5626,-56.7502
12:51:56.451,-9.1875,-37.3751
12:51:56.460,4.3125,-12.625
12:51:56.483,18.6563,13.3751
12:51:56.485,32.0626,39.6877
12:51:56.500,43.1252,63.4377
12:51:56.502,52.9377,83.3128
12:51:56.539,59.094,99.9379
12:51:56.542,65.1252,112.6879
12:51:56.543,68.0003,121.313
12:51:56.545,70.2815,126.438
12:51:56.553,69.844,127.938
12:51:56.583,68.5315,127.438
12:51:56.584,66.0628,124.688
12:51:56.586,62.344,119.0005
12:51:56.612,58.8127,113.2504
12:51:56.613,54.094,106.4379
12:51:56.617,50.0627,96.7504
12:51:56.622,43.7189,87.5628
12:51:56.632,37.7501,76.3128
12:51:56.662,31.0626,64.0627
12:51:56.665,24.5001,51.8752
12:51:56.667,18.2813,40.0627
12:51:56.670,11.4375,29.5626
12:51:56.686,6.2813,19.6251
12:51:56.692,0.9063,10.4375
12:51:56.700,-3.8438,3
12:51:56.710,-9.1563,-3.6875
12:51:56.721,-13.7501,-9.125
12:51:56.730,-18.0313,-12.0625
12:51:56.741,-19.9376,-14.2501
12:51:56.750,-21.1876,-15.3126
12:51:56.766,-22.8126,-14.6876
12:51:56.784,-23.0626,-13.3751
12:51:56.786,-23.1251,-13.3126
12:51:56.790,-21.9376,-11.125
12:51:56.800,-21.7188,-9.5625
12:51:56.810,-20.7188,-7.9375
12:51:56.821,-19.8751,-6.5
12:51:56.830,-20.2188,-6.625
12:51:56.841,-20.6563,-7.3125
12:51:56.851,-21.8126,-9.875
12:51:56.861,-23.0313,-13.6876
12:51:56.871,-23.7188,-15.4376
12:51:56.881,-25.6876,-20.6251
12:51:56.890,-27.4376,-24.2501
12:51:56.901,-29.2814,-29.6251
12:51:56.910,-31.5626,-33.8751
12:51:56.921,-33.1876,-40.0627
12:51:56.931,-35.3439,-45.3127
12:51:56.940,-36.6564,-50.8752
12:51:56.950,-38.4689,-55.0627
12:51:56.961,-40.4377,-61.6252
12:51:56.970,-42.0314,-66.1253
12:51:56.980,-44.1877,-69.6878
12:51:56.990,-44.7189,-74.0628
12:51:57.001,-44.7502,-73.2503
12:51:57.010,-41.2814,-71.3128
12:51:57.021,-34.7814,-60.8127
12:51:57.030,-25.8438,-43.8127
12:51:57.042,-12.5625,-22.0626
12:51:57.050,0,3.75
12:51:57.065,13.3438,29.6876
12:51:57.072,25.6563,56.1877
12:51:57.080,35.4376,77.1253
12:51:57.090,42.7189,95.4379
12:51:57.100,47.2814,109.4379
12:51:57.110,50.5314,119.188
12:51:57.120,51.4064,125.6255
12:51:57.132,51.3752,127.813
12:51:57.142,49.0627,129.688
12:51:57.151,47.9064,127.1255
12:51:57.160,44.9689,125.1255
12:51:57.170,43.3439,121.063
12:51:57.181,40.2814,117.3129
12:51:57.191,37.1876,110.0629
12:51:57.200,33.0001,104.4379
12:51:57.210,28.7501,95.2504
12:51:57.222,23.0938,84.6878
12:51:57.230,17.0626,75.1878
12:51:57.240,11.7188,63.6252
12:51:57.250,6.3438,54.1877
12:51:57.260,2.4375,44.3752
12:51:57.270,-1.5313,36.9376
12:51:57.280,-4.875,29.7501
12:51:57.291,-7.875,23.8126
12:51:57.300,-9.6563,19.5001
12:51:57.327,-12.125,16.1876
12:51:57.329,-12.9688,14.1876
12:51:57.331,-13.4688,13.125
12:51:57.364,-12.8125,12.5625
12:51:57.366,-12.75,11.25
12:51:57.368,-12.9063,9.25
12:51:57.370,-12.6563,8.6875
12:51:57.382,-12.125,5.625
12:51:57.396,-11.5313,3.1875
12:51:57.401,-11.5625,1.25
12:51:57.430,-11.125,-1.25
12:51:57.433,-11.3438,-3.8125
12:51:57.435,-12.75,-6.3125
12:51:57.468,-14.8438,-10.9375
12:51:57.470,-17.0313,-15.6251
12:51:57.472,-18.7501,-19.6251
12:51:57.477,-21.5938,-25.0626
12:51:57.493,-24.3126,-30.4376
12:51:57.495,-27.0314,-36.6251
12:51:57.500,-29.2189,-42.1877
12:51:57.511,-30.5001,-47.5002
12:51:57.521,-32.5626,-52.8752
12:51:57.530,-34.8126,-59.6252
12:51:57.541,-37.6876,-65.5003
12:51:57.550,-40.1877,-73.8753
12:51:57.560,-43.0002,-79.1253
12:51:57.570,-44.7189,-85.1878
12:51:57.580,-46.5627,-89.1878
12:51:57.592,-46.9377,-93.3129
12:51:57.621,-45.7189,-92.1254
12:51:57.623,-40.6564,-87.8753
12:51:57.625,-32.2189,-73.8128
12:51:57.631,-20.2501,-53.7502
12:51:57.640,-5.75,-29.0001
12:51:57.651,7.9688,-1.875
12:51:57.660,20.3126,23.4376
12:51:57.672,30.0001,47.1252
12:51:57.680,38.0939,65.3753
12:51:57.690,43.9377,79.6253
12:51:57.701,47.6877,91.0004
12:51:57.710,49.5939,97.0629
12:51:57.720,49.5627,100.2504
12:51:57.732,48.8127,99.8129
12:51:57.741,47.1877,96.8754
12:51:57.750,43.3127,92.4379
12:51:57.761,40.5627,86.2503
12:51:57.779,35.8751,79.2503
12:51:57.781,31.6876,72.2503
12:51:57.797,27.3439,63.2502
12:51:57.801,23.0313,54.9377
12:51:57.811,17.8751,45.6877
12:51:57.822,12.375,35.8126
12:51:57.830,5.7188,24.6251
12:51:57.840,0.2813,15.9376
12:51:57.852,-4.75,6.375
12:51:57.861,-8.375,0
12:51:57.870,-10.375,-4.0625
12:51:57.881,-9.8125,-7.8125
12:51:57.890,-9.0625,-8.25
12:51:57.902,-6.2813,-7.3125
12:51:57.911,-4.6563,-5.8125
12:51:57.921,-2.875,-3.875
12:51:57.930,-1.4688,-1.9375
12:51:57.942,-0.7188,-1.25
12:51:57.950,-0.875,0.3125
12:51:57.963,-2.0313,0.8125
12:51:57.992,-2.1563,0.375
12:51:57.992,-2.9688,-1.75
12:51:57.996,-3.25,-3.125
12:51:58.001,-3.5938,-4.6875
12:51:58.010,-4.8438,-7.6875
12:51:58.052,-6.3125,-9.75
12:51:58.053,-9.1563,-14.2501
12:51:58.084,-10.4063,-18.5001
12:51:58.090,-12.4063,-21.1251
12:51:58.090,-14.6251,-27.0626
12:51:58.090,-16.4376,-30.3751
12:51:58.096,-19.3126,-34.7501
12:51:58.127,-21.0001,-39.8752
12:51:58.129,-23.9376,-44.5627
12:51:58.131,-25.2813,-47.6252
12:51:58.136,-26.9064,-52.5002
12:51:58.146,-29.2501,-56.5627
12:51:58.155,-30.5001,-60.1252
12:51:58.167,-33.0939,-63.1877
12:51:58.175,-34.5001,-68.0003
12:51:58.186,-36.0314,-70.0003
12:51:58.195,-36.3751,-72.9378
12:51:58.206,-35.0939,-69.9378
12:51:58.217,-30.3126,-63.8752
12:51:58.227,-21.5313,-48.6877
12:51:58.236,-10.375,-27.7501
12:51:58.253,2.75,-4.625
12:51:58.256,34.6251,62.1877
12:51:58.267,44.9377,83.2503
12:51:58.276,52.8752,101.6879
12:51:58.286,58.7502,114.5004
12:51:58.297,63.0627,123.688
12:51:58.307,62.969,129.688
12:51:58.315,62.594,131.3755
12:51:58.326,60.9065,129.3755
12:51:58.336,58.594,126.188
12:51:58.346,55.2502,120.813
12:51:58.357,52.2814,114.8129
12:51:58.366,48.2189,107.8754
12:51:58.376,44.4064,100.1254
12:51:58.386,39.5002,90.0628
12:51:58.396,34.2189,79.8128
12:51:58.407,27.0001,67.6878
12:51:58.416,20.6563,56.7502
12:51:58.427,14.1563,44.8752
12:51:58.436,9.5625,34.0001
12:51:58.446,4.8125,25.2501
12:51:58.456,2.1875,17.1251
12:51:58.466,-0.1875,11.375
12:51:58.475,-1.0313,8
12:51:58.486,-0.75,5.4375
12:51:58.495,-1.2813,4.4375
12:51:58.507,-0.5938,2.875
12:51:58.516,-0.0938,3
12:51:58.527,0.375,3.625
12:51:58.536,0.6563,2.5
12:51:58.546,0.8125,1.8125
12:51:58.557,0.9375,1.875
12:51:58.567,0.4063,0.5625
12:51:58.577,0.5313,-1.375
12:51:58.587,0.0938,-4.6875
12:51:58.596,-1.375,-8.3125
12:51:58.607,-2.5313,-12.5625
12:51:58.616,-4.375,-18.1251
12:51:58.627,-7.0313,-23.0626
12:51:58.636,-9.0313,-27.8126
12:51:58.646,-11.9375,-33.7501
12:51:58.656,-14.5313,-39.0627
12:51:58.666,-16.9063,-44.9377
12:51:58.679,-20.2501,-50.8752
12:51:58.687,-22.1563,-57.7502
12:51:58.715,-25.0001,-63.9377
12:51:58.717,-27.1251,-69.9378
12:51:58.747,-30.7814,-77.4378
12:51:58.752,-35.2189,-83.5628
12:51:58.753,-37.8439,-89.0628
12:51:58.759,-40.6564,-94.3754
12:51:58.761,-41.4064,-96.6879
12:51:58.770,-40.6252,-96.4379
12:51:58.776,-34.5314,-89.0628
12:51:58.809,-25.6876,-74.9378
12:51:58.810,-12.0625,-53.6877
12:51:58.815,1.1875,-28.5001
12:51:58.819,15.8126,-2.9375
12:51:58.846,27.8751,23.3751
12:51:58.849,39.4377,46.3127
12:51:58.851,47.9377,67.0628
12:51:58.874,53.6565,82.2503
12:51:58.875,56.969,93.7504
12:51:58.878,59.2502,102.0004
12:51:58.903,59.3752,106.7504
12:51:58.905,59.969,107.8754
12:51:58.910,58.5002,107.3754
12:51:58.920,56.7815,104.0004
12:51:58.927,53.7815,98.7504
12:51:58.936,50.4377,92.7504
12:51:58.947,45.5627,86.0003
12:51:58.956,40.5939,77.5003
12:51:58.967,34.9376,67.0628
12:51:58.977,28.6564,57.1877
12:51:58.986,23.1251,45.8752
12:51:59.003,17.8751,34.1876
12:51:59.006,11.9063,23.5626
12:51:59.016,8.25,14.4376
12:51:59.033,3.5625,6.8125
12:51:59.042,0.1563,-0.6875
12:51:59.052,-2.2813,-5.0625
12:51:59.061,-3.2813,-9.375
12:51:59.079,-3.5625,-10.5
12:51:59.092,-2.4688,-10.375
12:51:59.095,-1.9063,-9.875
12:51:59.101,-0.6875,-9.125
12:51:59.111,0.4688,-8.3125
12:51:59.121,0.6875,-8.125
12:51:59.132,0.9063,-7.6875
12:51:59.141,1.4063,-9.25
12:51:59.152,0.5313,-10.125
12:51:59.162,-1.3125,-12.375
12:51:59.172,-3.6875,-16.6876
12:51:59.181,-6.6563,-21.2501
12:51:59.191,-15.8751,-27.6251
12:51:59.201,-27.0314,-36.3126
12:51:59.211,-36.2814,-45.1252
12:51:59.221,-45.2189,-53.0002
12:51:59.231,-56.4377,-61.7502
12:51:59.242,-66.0628,-70.0628
12:51:59.253,-74.0003,-77.1878
12:51:59.261,-81.2191,-85.5003
12:51:59.272,-90.5316,-92.3129
12:51:59.282,-96.9066,-98.6254
12:51:59.291,-101.3754,-102.2504
12:51:59.301,-105.3754,-104.7504
12:51:59.311,-106.6567,-105.4379
12:51:59.321,-108.7504,-105.6879
12:51:59.331,-108.1254,-102.1879
12:51:59.343,-102.9066,-97.0629
12:51:59.364,-95.0629,-86.4378
12:51:59.366,-84.3753,-69.5003
12:51:59.387,-69.4065,-46.6877
12:51:59.389,-40.8127,-7.0625
12:51:59.391,-26.5001,18.6251
12:51:59.401,-6.9688,49.4377
12:51:59.412,10.8125,77.7503
12:51:59.421,24.5001,101.1254
12:51:59.432,34.0314,119.2505
12:51:59.441,42.8127,132.563
12:51:59.452,48.1564,142.0005
12:51:59.462,53.344,146.7505
12:51:59.472,57.6877,149.6256
12:51:59.481,61.0002,147.8756
12:51:59.492,62.8752,144.2505
12:51:59.509,63.7815,137.8755
12:51:59.511,63.5627,131.188
12:51:59.545,63.844,121.938
12:51:59.546,61.1877,111.2504
12:51:59.549,56.969,98.2504
12:51:59.553,53.7815,83.8753
12:51:59.591,51.9064,72.1878
12:51:59.594,47.8439,60.3127
12:51:59.596,44.1252,49.1252
12:51:59.630,43.5314,39.3752
12:51:59.630,44.2189,34.8751
12:51:59.630,46.6564,30.1251
12:51:59.632,45.4689,25.6251
12:51:59.641,44.8439,19.3126
12:51:59.645,45.6564,18.0001
12:51:59.651,48.6877,15.5626
12:51:59.682,50.0627,13.9376
12:51:59.687,51.6252,11.1875
12:51:59.688,53.0315,10.375
12:51:59.695,53.0315,8.8125
12:51:59.702,53.6252,7.4375
12:51:59.712,53.5002,6.875
12:51:59.721,51.0002,2.875
12:51:59.732,48.9377,-2.125
12:51:59.741,48.2814,-4.375
12:51:59.753,46.3439,-7.625
12:51:59.762,41.3439,-14.1251
12:51:59.772,36.1564,-22.6251
12:51:59.781,32.1876,-31.2501
12:51:59.792,26.5939,-38.1876
12:51:59.801,22.2501,-46.7502
12:51:59.811,16.6251,-55.3127
12:51:59.822,12,-63.8752
12:51:59.833,6.7813,-72.0628
12:51:59.841,2.25,-80.6253
12:51:59.852,-2.4063,-88.3128
12:51:59.861,-7.1875,-97.0004
12:51:59.872,-11.9063,-104.0629
12:51:59.881,-15.2501,-109.8754
12:51:59.891,-17.0001,-114.9379
12:51:59.901,-18.5313,-117.688
12:51:59.911,-17.5313,-119.5005
12:51:59.921,-15.4376,-117.6254
12:51:59.932,-9.625,-109.8129
12:51:59.941,-0.875,-96.5629
12:51:59.952,10.25,-75.7503
12:51:59.961,23.3751,-52.2502
12:51:59.972,36.4376,-25.4376
12:51:59.981,49.5939,1
12:51:59.992,60.4065,24.7501
12:52:00.004,69.1878,45.0002
12:52:00.012,75.9378,61.1252
12:52:00.021,80.2191,72.8128
12:52:00.032,81.5316,79.0003
12:52:00.041,81.9691,81.1878
12:52:00.051,79.7191,80.5628
12:52:00.061,77.3753,76.8128
12:52:00.073,73.0003,71.3753
12:52:00.082,69.6565,65.1877
12:52:00.091,64.719,57.6877
12:52:00.101,60.969,49.0627
12:52:00.112,57.3127,41.3752
12:52:00.128,51.8439,30.3751
12:52:00.134,45.4689,18.8751
12:52:00.141,39.4689,7.375
12:52:00.151,33.5939,-4.375
12:52:00.185,28.0626,-13.8751
12:52:00.186,23.7813,-23.6251
12:52:00.189,19.0938,-29.8126
12:52:00.192,17.2188,-35.8751
12:52:00.202,14.7813,-38.3751
12:52:00.213,14.0313,-40.4377
12:52:00.244,13.6563,-40.5002
12:52:00.246,15.7813,-39.1252
12:52:00.247,17.4688,-35.5001
12:52:00.252,18.5938,-33.3751
12:52:00.284,19.9688,-31.0626
12:52:00.285,20.5001,-28.7501
12:52:00.288,20.7501,-27.5626
12:52:00.296,20.5313,-26.6876
12:52:00.319,19.2501,-26.5001
12:52:00.323,17.3126,-27.2501
12:52:00.324,15.9376,-29.3126
12:52:00.333,13.5001,-31.6251
12:52:00.372,12.125,-34.7501
12:52:00.374,10.2188,-37.8126
12:52:00.401,9.3438,-41.6252
12:52:00.402,8.0313,-45.5627
12:52:00.406,6.4688,-49.8127
12:52:00.411,4.6563,-54.6877
12:52:00.411,1.6875,-58.0002
12:52:00.411,-0.4375,-63.9377
12:52:00.425,-3.8125,-68.3128
12:52:00.431,-6.2813,-74.6253
12:52:00.442,-10.1875,-79.7503
12:52:00.452,-11.8125,-84.8128
12:52:00.461,-14.6251,-88.6253
12:52:00.471,-15.8438,-93.5629
12:52:00.481,-17.1251,-95.6254
12:52:00.492,-14.7188,-95.0004
12:52:00.502,-10.125,-87.2503
12:52:00.512,-0.4375,-73.5628
12:52:00.521,11.8125,-51.8127
12:52:00.532,26.7189,-26.1251
12:52:00.541,40.3439,2.375
12:52:00.551,53.3752,29.3126
12:52:00.562,64.594,54.4377
12:52:00.571,72.6565,74.5628
12:52:00.581,79.0941,90.3128
12:52:00.592,84.0628,103.7504
12:52:00.601,85.6253,111.0629
12:52:00.612,84.8441,113.1879
12:52:00.621,82.5628,114.5629
12:52:00.631,79.5941,111.5004
12:52:00.641,76.219,107.3129
12:52:00.651,71.6878,101.1879
12:52:00.667,68.7815,94.4379
12:52:00.683,63.3127,86.8128
12:52:00.685,57.8752,76.8128
12:52:00.692,51.6564,65.6878
12:52:00.701,44.4064,52.0627
12:52:00.712,37.0001,38.4376
12:52:00.721,28.5314,24.8751
12:52:00.731,21.5001,11.75
12:52:00.743,15.1876,2.375
12:52:00.751,10.1563,-6.1875
12:52:00.761,6.2813,-12.5625
12:52:00.772,3.8125,-16.7501
12:52:00.782,2.375,-19.0001
12:52:00.792,2,-19.4376
12:52:00.801,1.7813,-19.5626
12:52:00.812,1.625,-18.6876
12:52:00.821,0.2813,-17.8751
12:52:00.831,-0.5938,-18.8126
12:52:00.841,-1.4375,-18.0001
12:52:00.851,-2,-17.8126
12:52:00.861,-3.9063,-20.0001
12:52:00.871,-5.6563,-22.5626
12:52:00.888,-7.8438,-26.0626
12:52:00.893,-10.5938,-29.2501
12:52:00.902,-13.2813,-33.7501
12:52:00.911,-15.4063,-37.1876
12:52:00.922,-17.5313,-43.5627
12:52:00.952,-20.1563,-46.5002
12:52:00.954,-22.2501,-52.3752
12:52:00.958,-25.4376,-56.6877
12:52:00.961,-28.8439,-62.6877
12:52:00.999,-31.6876,-68.3753
12:52:00.999,-36.0314,-75.3128
12:52:01.002,-38.8751,-82.0628
12:52:01.004,-42.2189,-87.6253
12:52:01.035,-44.3127,-94.1879
12:52:01.038,-46.3127,-98.1254
12:52:01.040,-46.1877,-103.2504
12:52:01.047,-46.8752,-107.5004
12:52:01.057,-46.9689,-111.0004
12:52:01.063,-45.7814,-112.4379
12:52:01.101,-41.2502,-107.4379
12:52:01.103,-32.4064,-93.5629
12:52:01.105,-19.4063,-72.3753
12:52:01.112,-6.1563,-48.3752
12:52:01.113,6.9688,-21.1876
12:52:01.129,20.8438,5.875
12:52:01.132,31.2814,31.1251
12:52:01.142,40.7814,51.5627
12:52:01.152,48.7814,70.6878
12:52:01.161,54.3752,85.6878
12:52:01.171,59.094,96.5004
12:52:01.182,61.844,103.5004
12:52:01.192,62.8752,107.8754
12:52:01.202,61.7815,108.5004
12:52:01.213,60.3752,106.0004
12:52:01.221,57.5002,102.9379
12:52:01.231,54.844,96.3129
12:52:01.241,51.0002,89.7503
12:52:01.252,46.3127,80.7503
12:52:01.261,42.0002,72.9378
12:52:01.271,37.6876,61.9377
12:52:01.283,32.7189,52.1252
12:52:01.292,27.9689,42.5002
12:52:01.302,23.5313,32.8751
12:52:01.311,19.7188,23.3126
12:52:01.321,14.7813,15.0001
12:52:01.331,11.5625,8
12:52:01.342,9.625,1.75
12:52:01.351,8.5625,-0.6875
12:52:01.361,8.4688,-3.125
12:52:01.371,7.9063,-3.875
12:52:01.381,8.5,-4.25
12:52:01.391,8.3438,-3.8125
12:52:01.401,8.5313,-4.125
12:52:01.413,7.2813,-5.375
12:52:01.421,6.8125,-6.375
12:52:01.433,6.3438,-7.4375
12:52:01.462,5.0625,-9.0625
12:52:01.464,4.6563,-10.8125
12:52:01.466,2.7188,-12.3125
12:52:01.472,1.0313,-16.6876
12:52:01.483,-1.0313,-20.7501
12:52:01.493,-4.0625,-25.0001
12:52:01.502,-6.9375,-31.5001
12:52:01.513,-9.7188,-36.6876
12:52:01.527,-12.75,-43.7502
12:52:01.538,-15.4688,-48.4377
12:52:01.548,-18.5001,-54.8752
12:52:01.556,-20.7813,-60.3752
12:52:01.567,-24.3751,-67.2503
12:52:01.576,-28.2189,-73.6878
12:52:01.586,-30.6251,-79.4378
12:52:01.596,-34.6251,-85.3753
12:52:01.608,-36.6251,-91.5004
12:52:01.616,-40.0627,-96.3129
12:52:01.628,-41.3439,-101.1879
12:52:01.637,-43.4377,-104.7504
12:52:01.648,-44.0939,-106.7504
12:52:01.675,-42.5002,-105.6879
12:52:01.676,-36.9064,-96.5629
12:52:01.710,-27.1564,-80.8753
12:52:01.712,-10.4063,-50.8127
12:52:01.715,9.6875,-13.1875
12:52:01.715,24.0313,14.9376
12:52:01.717,35.8751,39.5002
12:52:01.744,45.5939,62.0002
12:52:01.748,51.9689,78.3753
12:52:01.749,57.0315,91.5004
12:52:01.757,60.1565,99.5004
12:52:01.781,60.344,104.0004
12:52:01.783,60.0002,104.5629
12:52:01.788,57.594,103.3129
12:52:01.823,55.0627,98.2504
12:52:01.824,51.1252,93.1879
12:52:01.826,47.3127,83.6878
12:52:01.830,42.1564,75.5628
12:52:01.838,37.4689,66.2503
12:52:01.847,31.3439,55.4377
12:52:01.857,25.7501,43.8127
12:52:01.866,19.5626,32.6251
12:52:01.877,13.9063,20.1876
12:52:01.888,7.9375,10.0625
12:52:01.896,3.8438,0.6875
12:52:01.907,0.75,-7.3125
12:52:01.917,-1.8438,-12.25
12:52:01.927,-3.1875,-16.8126
12:52:01.938,-4.2813,-18.8126
12:52:01.947,-4.5,-19.0001
12:52:01.963,-3.625,-19.8751
12:52:01.968,-2.9375,-18.6251
12:52:01.984,-1.75,-17.8751
12:52:01.987,-1.3125,-16.1876
12:52:02.002,-1.1563,-15.8126
12:52:02.012,-0.875,-15.6876
12:52:02.018,-0.5313,-15.1251
12:52:02.028,-1.2813,-16.1251
12:52:02.038,-2.5938,-18.8751
12:52:02.047,-4,-20.8751
12:52:02.058,-5.2188,-23.9376
12:52:02.068,-7.7188,-28.0626
12:52:02.078,-9.375,-32.7501
12:52:02.088,-12.5938,-36.1876
12:52:02.097,-14.9063,-42.5627
12:52:02.107,-16.7188,-47.2502
12:52:02.117,-19.4376,-51.5627
12:52:02.126,-21.7501,-57.0627
12:52:02.138,-24.7813,-62.6877
12:52:02.147,-27.4376,-67.6253
12:52:02.157,-30.0001,-74.5003
12:52:02.167,-34.1564,-80.0628
12:52:02.177,-36.0939,-86.8128
12:52:02.188,-39.6564,-91.6879
12:52:02.198,-40.7502,-96.6879
12:52:02.208,-43.1877,-100.9379
12:52:02.218,-44.4064,-105.2504
12:52:02.228,-45.5939,-107.6254
12:52:02.238,-43.2189,-106.0004
12:52:02.246,-38.0001,-97.0004
12:52:02.258,-27.6876,-80.8753
12:52:02.268,-14.6563,-56.1877
12:52:02.278,0.4688,-29.8751
12:52:02.288,16.1563,-0.1875
12:52:02.297,27.8439,27.3751
12:52:02.307,38.8126,51.1877
12:52:02.318,46.6252,70.8128
12:52:02.327,51.5939,84.6878
12:52:02.337,54.1877,94.8754
12:52:02.347,54.719,99.2504
12:52:02.359,54.344,101.6254
12:52:02.367,52.2502,100.2504
12:52:02.378,49.6564,97.7504
12:52:02.388,46.5002,91.9379
12:52:02.416,42.6877,85.0003
12:52:02.420,38.8751,78.6253
12:52:02.422,34.2501,69.8753
12:52:02.428,28.9064,61.1252
12:52:02.458,23.6251,49.8127
12:52:02.460,16.9688,38.7501
12:52:02.462,11.625,25.5001
12:52:02.471,5.875,14.9376
12:52:02.501,1.3438,5.125
12:52:02.503,-2.875,-4
12:52:02.506,-5.4063,-9.8125
12:52:02.511,-7,-14.9376
12:52:02.519,-7.2813,-17.5001
12:52:02.546,-6.0625,-16.7501
12:52:02.549,-5.5625,-15.9376
12:52:02.551,-3.4063,-13.3126
12:52:02.559,-2.0938,-10.875
12:52:02.576,-1.5,-9
12:52:02.579,-0.5938,-6.4375
12:52:02.588,0.1875,-5.8125
12:52:02.598,-0.5,-5.375
12:52:02.608,-0.6563,-5.5625
12:52:02.617,-1.5625,-6.5625
12:52:02.629,-2.9688,-10.125
12:52:02.638,-4.6875,-12.9375
12:52:02.648,-7.5625,-16.4376
12:52:02.658,-9.5938,-20.0626
12:52:02.668,-12.6875,-26.8751
12:52:02.678,-15.5001,-31.3126
12:52:02.688,-18.7188,-37.7501
12:52:02.697,-22.0313,-44.8752
12:52:02.708,-25.6876,-49.7502
12:52:02.718,-28.2189,-56.8752
12:52:02.743,-31.8126,-62.5627
12:52:02.747,-34.7189,-70.5628
12:52:02.751,-38.8439,-75.2503
12:52:02.759,-40.0939,-81.4378
12:52:02.769,-43.2814,-86.6253
12:52:02.777,-44.8752,-90.3753
12:52:02.788,-45.8127,-94.8129
12:52:02.798,-47.8439,-98.0004
12:52:02.808,-47.4377,-98.6879
12:52:02.818,-44.3752,-94.6879
12:52:02.828,-36.8439,-84.3128
12:52:02.838,-25.8438,-65.6253
12:52:02.848,-11.875,-41.2502
12:52:02.858,3.0625,-12.5625
12:52:02.867,17.7501,15.5626
12:52:02.878,30.5314,43.0002
12:52:02.888,40.5939,65.4378
12:52:02.898,48.9064,85.3753
12:52:02.908,54.344,98.8754
12:52:02.918,57.9065,110.0004
12:52:02.928,59.9065,115.6879
12:52:02.937,59.9377,118.688
12:52:02.948,58.7502,117.2504
12:52:02.969,56.5002,114.8754
12:52:02.971,52.5002,109.9379
12:52:02.986,48.7502,101.8754
12:52:02.989,43.7189,94.4379
12:52:02.997,39.2189,84.3128
12:52:03.008,32.7501,75.4378
12:52:03.018,26.8751,61.8127
12:52:03.028,19.8438,50.4377
12:52:03.042,13.4688,35.8751
12:52:03.053,6.7188,24.0626
12:52:03.063,1.4688,12.125
12:52:03.073,-2.0313,2.9375
12:52:03.083,-5.4688,-3.25
12:52:03.093,-7.4375,-7.75
12:52:03.104,-7.625,-11.9375
12:52:03.114,-7.7813,-12.9375
12:52:03.122,-6.3125,-12.625
12:52:03.140,-5.5938,-10.8125
12:52:03.142,-4.5625,-10.4375
12:52:03.178,-3.9688,-9.1875
12:52:03.179,-3.4688,-8.6875
12:52:03.182,-2.3438,-7.5
12:52:03.184,-3.9688,-7.8125
12:52:03.221,-3.9375,-8.75
12:52:03.225,-5.3438,-11.375
12:52:03.229,-6.5,-13.8751
12:52:03.232,-8.4063,-17.1251
12:52:03.237,-10.3438,-20.5001
12:52:03.242,-13.3126,-25.0001
12:52:03.312,-15.8126,-30.4376
12:52:03.313,-18.4688,-36.4376
12:52:03.344,-22.4376,-42.3127
12:52:03.346,-25.5626,-48.1877
12:52:03.349,-28.7501,-54.9377
12:52:03.352,-32.1564,-61.8127
12:52:03.352,-35.0314,-67.3128
12:52:03.353,-37.9689,-73.6253
12:52:03.355,-40.6252,-78.4378
12:52:03.366,-42.9689,-83.6878
12:52:03.372,-44.8127,-88.7503
12:52:03.382,-46.8752,-92.6879
12:52:03.393,-48.7814,-96.8754
12:52:03.404,-49.2814,-100.1254
12:52:03.413,-48.5002,-99.3129
12:52:03.422,-43.2502,-94.1254
12:52:03.432,-35.7189,-81.5628
12:52:03.443,-23.0313,-60.0627
12:52:03.453,-9.4375,-34.0626
12:52:03.463,5.9063,-5.6875
12:52:03.472,19.6251,23.5626
12:52:03.483,33.0314,50.5002
12:52:03.493,43.3752,73.5628
12:52:03.502,61.9065,119.7505
12:52:03.513,62.2502,125.688
12:52:03.522,61.8752,125.938
12:52:03.534,59.969,123.3755
12:52:03.542,56.969,119.063
12:52:03.553,53.3127,112.0004
12:52:03.563,48.9689,104.1879
12:52:03.572,43.8127,94.3129
12:52:03.582,38.2814,85.5003
12:52:03.593,31.6876,73.4378
12:52:03.604,26.0001,62.1252
12:52:03.613,19.0938,47.6877
12:52:03.623,12.4063,35.7501
12:52:03.633,6.6563,22.8751
12:52:03.643,0.7813,12.375
12:52:03.653,-2.3438,4.3125
12:52:03.662,-4.9063,-2.375
12:52:03.672,-6.9688,-7.0625
12:52:03.682,-7.6563,-10.75
12:52:03.692,-8.1875,-11.875
12:52:03.707,-7.875,-12.125
12:52:03.712,-7.0938,-12.75
12:52:03.723,-6.125,-11.8125
12:52:03.733,-5.5,-10.625
12:52:03.743,-6.125,-10.1875
12:52:03.753,-6.25,-9.9375
12:52:03.762,-6.6875,-10.625
12:52:03.773,-7.2813,-12.3125
12:52:03.783,-8.6875,-13.1876
12:52:03.793,-9.9063,-16.8126
12:52:03.803,-11.3438,-19.9376
12:52:03.812,-13.0625,-22.7501
12:52:03.822,-15.1563,-27.0626
12:52:03.834,-17.6876,-31.5626
12:52:03.844,-20.8126,-36.8751
12:52:03.853,-22.9688,-42.6877
12:52:03.863,-25.9376,-48.6252
12:52:03.876,-28.8439,-54.1877
12:52:03.906,-32.1564,-60.5627
12:52:03.911,-34.4376,-67.0628
12:52:03.911,-37.3751,-72.0628
12:52:03.913,-40.6564,-79.3128
12:52:03.949,-42.8752,-84.6878
12:52:03.949,-45.7189,-89.0003
12:52:03.952,-47.3439,-94.5629
12:52:03.954,-49.3127,-97.7504
12:52:03.992,-50.1252,-101.4379
12:52:03.994,-50.1877,-103.5004
12:52:03.996,-47.3127,-99.6254
12:52:04.022,-40.6877,-89.4378
12:52:04.023,-29.9689,-70.8128
12:52:04.026,-15.9688,-46.3127
12:52:04.029,-1.1563,-16.4376
12:52:04.033,13.2188,12
12:52:04.051,27.0626,39.8127
12:52:04.053,37.8439,64.3127
12:52:04.062,46.1252,85.3128
12:52:04.073,52.5939,99.1879
12:52:04.083,56.969,110.1879
12:52:04.094,58.4065,117.1254
12:52:04.103,58.4065,118.5005
12:52:04.112,56.7815,116.8129
12:52:04.123,53.2502,113.0004
12:52:04.133,49.2502,105.0004
12:52:04.143,44.0002,96.8754
12:52:04.152,38.7189,86.2503
12:52:04.162,32.7189,76.5628
12:52:04.173,26.9689,63.9377
12:52:04.183,20.7188,53.1877
12:52:04.194,14.2501,38.4376
12:52:04.203,7.1875,25.3126
12:52:04.212,1.9688,14.0001
12:52:04.222,-3.75,3.3125
12:52:04.233,-7.5,-5.25
12:52:04.244,-10.75,-13.0625
12:52:04.253,-12.6875,-17.7501
12:52:04.271,-13.4063,-20.6876
12:52:04.275,-13.1563,-21.2501
12:52:04.289,-12.2813,-20.2501
12:52:04.298,-10.7188,-19.4376
12:52:04.303,-9.375,-17.4376
12:52:04.312,-7.7188,-15.0001
12:52:04.322,-7.5625,-12.875
12:52:04.333,-7.4688,-11.3125
12:52:04.343,-6.2813,-11.4375
12:52:04.352,-7.25,-11.5625
12:52:04.363,-7.3438,-12.125
12:52:04.373,-8.0625,-14.5626
12:52:04.382,-9.3438,-17.1251
12:52:04.392,-11.5938,-20.5626
12:52:04.403,-13.9376,-24.6251
12:52:04.412,-16.3438,-28.4376
12:52:04.423,-18.2813,-34.7501
12:52:04.433,-22.0938,-39.6252
12:52:04.443,-24.2813,-46.3752
12:52:04.454,-27.8751,-50.8127
12:52:04.464,-30.6876,-58.5627
12:52:04.472,-33.1564,-64.1252
12:52:04.482,-36.2501,-69.1878
12:52:04.492,-38.4064,-74.6878
12:52:04.503,-40.5939,-79.6878
12:52:04.513,-42.6877,-85.3128
12:52:04.523,-44.0939,-89.5003
12:52:04.533,-46.3752,-92.3754
12:52:04.543,-47.0627,-97.0629
12:52:04.552,-48.0314,-98.1254
12:52:04.563,-45.5314,-97.3129
12:52:04.573,-38.7814,-87.8753
12:52:04.582,-28.5626,-69.8128
12:52:04.605,-14.2813,-45.0627
12:52:04.680,0.875,-15.6876
12:52:04.712,15.7813,13.5001
12:52:04.715,29.7501,42.5002
12:52:04.718,40.8127,66.6253
12:52:04.718,49.8127,88.3753
12:52:04.718,55.6877,104.2504
12:52:04.723,59.7502,114.4379
12:52:04.759,61.1877,121.2505
12:52:04.761,60.719,122.438
12:52:04.763,59.1877,120.8755
12:52:04.766,56.3127,117.0004
12:52:04.775,52.9377,110.0629
12:52:04.784,48.4689,101.4379
12:52:04.792,43.7189,92.4379
12:52:04.803,38.5939,83.1878
12:52:04.814,33.6876,71.4378
12:52:04.822,27.8751,60.8752
12:52:04.833,21.4063,47.4377
12:52:04.843,15.0313,34.6251
12:52:04.852,9.0938,22.2501
12:52:04.863,3.9375,11.1875
12:52:04.873,-0.9375,1.5
12:52:04.883,-1.4063,-9.375
12:52:04.893,-1.375,-7.375
12:52:04.904,-0.6563,-5.8125
12:52:04.912,0.1563,-5.4375
12:52:04.922,-0.3438,-5.25
12:52:04.933,-0.4688,-5.875
12:52:04.943,-1.25,-7
12:52:04.953,-2.125,-8.8125
12:52:04.962,-4,-11.8125
12:52:04.975,-6.7813,-16.7501
12:52:04.982,-8.2813,-21.3126
12:52:04.994,-11.625,-26.1876
12:52:05.003,-13.8751,-32.0626
12:52:05.013,-16.6251,-38.3751
12:52:05.023,-19.4688,-43.9377
12:52:05.032,-22.4688,-49.9377
12:52:05.044,-25.6563,-55.7502
12:52:05.052,-28.0626,-62.1252
12:52:05.063,-31.6251,-68.6253
12:52:05.073,-33.9376,-73.8753
12:52:05.084,-35.8439,-78.6253
12:52:05.093,-38.3751,-84.8753
12:52:05.104,-39.5939,-87.6878
12:52:05.114,-41.1564,-92.3129
12:52:05.122,-41.5627,-94.4379
12:52:05.132,-41.1252,-92.8754
12:52:05.143,-35.6564,-88.0003
12:52:05.154,-28.5314,-73.5628
12:52:05.162,-15.6251,-52.8127
12:52:05.174,-2.125,-24.7501
12:52:05.184,12.7813,4.3125
12:52:05.195,27.2189,33.1876
12:52:05.206,38.5314,60.0002
12:52:05.216,48.4064,81.3753
12:52:05.224,55.1565,100.4379
12:52:05.233,60.5315,113.3129
12:52:05.243,63.1877,122.313
12:52:05.253,64.4065,126.063
12:52:05.264,62.8127,126.188
12:52:05.272,60.1877,122.5005
12:52:05.302,56.0002,116.9379
12:52:05.309,51.5314,108.0629
12:52:05.309,46.7189,100.1254
12:52:05.314,40.5939,89.3128
12:52:05.324,35.8751,78.1253
12:52:05.363,29.3751,67.7503
12:52:05.366,23.0001,54.5627
12:52:05.369,16.2188,41.1877
12:52:05.371,10.6563,28.3751
12:52:05.373,4.875,15.8751
12:52:05.412,0.0625,5.875
12:52:05.415,-4.3125,-3.25
12:52:05.416,-7.0313,-9.9375
12:52:05.421,-8.4375,-15.5626
12:52:05.435,-10.0938,-17.8751
12:52:05.437,-10.2813,-19.3126
12:52:05.469,-9.9375,-19.5001
12:52:05.471,-9.7188,-18.6876
12:52:05.473,-8,-16.9376
12:52:05.476,-6.7188,-14.4376
12:52:05.492,-5.7813,-12.4375
12:52:05.494,-5.4375,-12.0625
12:52:05.511,-5.5,-11.4375
12:52:05.516,-6.4688,-13.4376
12:52:05.524,-7.75,-14.8126
12:52:05.534,-10.0625,-17.0626
12:52:05.543,-11.2813,-20.8751
12:52:05.553,-13.0313,-24.7501
12:52:05.576,-15.8751,-29.4376
12:52:05.577,-17.6876,-34.4376
12:52:05.586,-21.1876,-38.7501
12:52:05.600,-24.0626,-46.6252
12:52:05.615,-27.1564,-51.5627
12:52:05.618,-30.1251,-59.3752
12:52:05.632,-33.7814,-64.8752
12:52:05.635,-36.9376,-71.3753
12:52:05.644,-40.3127,-77.8128
12:52:05.654,-42.4064,-84.6253
12:52:05.663,-45.0939,-89.6253
12:52:05.672,-47.1564,-95.4379
12:52:05.684,-49.7814,-99.3754
12:52:05.694,-50.9689,-104.1879
12:52:05.702,-50.9064,-104.6254
12:52:05.714,-48.4064,-102.1879
12:52:05.725,-41.6252,-91.0629
12:52:05.732,-30.5314,-73.2503
12:52:05.743,-16.4376,-48.0002
12:52:05.754,-0.4688,-17.1876
12:52:05.764,14.5001,12.9375
12:52:05.774,27.2189,42.4377
12:52:05.783,39.2814,67.5003
12:52:05.795,47.2189,87.2503
12:52:05.803,52.0627,103.5629
12:52:05.813,55.9065,113.3754
12:52:05.824,57.4377,119.438
12:52:05.833,57.0315,121.3755
12:52:05.844,54.2815,119.5005
12:52:05.854,51.4689,114.6254
12:52:05.864,48.1877,109.8754
12:52:05.873,43.5314,100.1254
12:52:05.884,38.7501,91.5004
12:52:05.894,32.7189,81.0628
12:52:05.904,27.2189,69.3128
12:52:05.914,20.2188,58.0002
12:52:05.923,14.0626,43.3752
12:52:05.934,7.0938,30.3126
12:52:05.945,1.0625,17.2501
12:52:05.963,-4.8438,5.5625
12:52:05.969,-7.625,-3
12:52:05.978,-10.5938,-10.0625
12:52:05.984,-13.7813,-15.4376
12:52:06.000,-14.9063,-18.6251
12:52:06.006,-15.3438,-20.6251
12:52:06.016,-15.5001,-20.0626
12:52:06.024,-14.5313,-19.2501
12:52:06.034,-13.4063,-18.8751
12:52:06.054,-12.0313,-16.0626
12:52:06.057,-10.3438,-14.2501
12:52:06.070,-10.0625,-12.75
12:52:06.076,-10.6875,-11.6875
12:52:06.107,-10.9688,-11.4375
12:52:06.109,-11.625,-11.75
12:52:06.112,-12.5938,-13.7501
12:52:06.144,-14.2188,-16.5626
12:52:06.144,-15.7813,-20.1251
12:52:06.146,-18.2501,-25.5626
12:52:06.153,-20.6251,-30.2501
12:52:06.155,-24.0001,-35.9376
12:52:06.187,-26.7814,-42.5002
12:52:06.189,-30.1876,-48.4377
12:52:06.191,-33.3126,-55.9377
12:52:06.194,-36.5001,-61.3752
12:52:06.220,-38.7501,-68.3128
12:52:06.222,-42.2502,-74.6253
12:52:06.224,-44.0627,-80.6878
12:52:06.234,-47.9064,-84.8753
12:52:06.244,-49.5939,-90.1878
12:52:06.254,-50.1252,-93.3129
12:52:06.264,-51.2814,-96.7504
12:52:06.274,-50.9064,-96.1254
12:52:06.284,-47.6877,-93.2504
12:52:06.294,-40.9377,-82.8128
12:52:06.303,-30.5314,-64.8127
12:52:06.313,-17.3751,-40.1252
12:52:06.324,-2.6563,-10.625
12:52:06.334,11.9063,18.2501
12:52:06.343,25.0001,48.2502
12:52:06.353,35.5939,72.5628
12:52:06.370,44.2502,93.5629
12:52:06.373,49.7502,110.3129
12:52:06.384,53.9377,120.188
12:52:06.393,54.219,126.938
12:52:06.407,54.2815,127.6255
12:52:06.414,53.0002,127.063
12:52:06.425,49.4377,121.8755
12:52:06.434,45.8752,115.2504
12:52:06.444,41.6252,107.8129
12:52:06.454,36.6251,97.0004
12:52:06.464,30.9064,87.3128
12:52:06.473,24.5938,74.7503
12:52:06.484,18.3126,62.2502
12:52:06.495,12.0938,49.8127
12:52:06.504,5.625,36.8751
12:52:06.514,1,23.5001
12:52:06.524,-4.3438,12.75
12:52:06.534,-8,4.5625
12:52:06.545,-11,-2.3125
12:52:06.554,-13.3438,-6.8125
12:52:06.581,-13.6563,-10.75
12:52:06.584,-13.8438,-12.1875
12:52:06.586,-13.3751,-12.0625
12:52:06.594,-12.4375,-10.625
12:52:06.608,-11.25,-8.25
12:52:06.615,-9.4688,-5.625
12:52:06.624,-8.0625,-4.0625
12:52:06.635,-8.6875,-3.25
12:52:06.643,-7.6875,-2.4375
12:52:06.654,-7.3125,-3.0625
12:52:06.664,-7.75,-3.3125
12:52:06.673,-8.375,-5.0625
12:52:06.683,-10.125,-7.875
12:52:06.694,-11.4688,-11.6875
12:52:06.703,-15.2188,-17.6876
12:52:06.722,-17.1876,-22.6876
12:52:06.724,-19.7813,-27.3126
12:52:06.755,-22.7188,-34.7501
12:52:06.756,-24.5938,-39.3126
12:52:06.759,-27.9689,-44.6252
12:52:06.764,-30.2189,-52.5002
12:52:06.800,-33.4064,-57.6877
12:52:06.802,-36.2814,-64.0002
12:52:06.804,-38.5314,-70.1253
12:52:06.808,-41.9377,-76.1253
12:52:06.840,-43.9377,-81.6878
12:52:06.841,-45.5627,-85.0003
12:52:06.842,-46.3439,-88.7503
12:52:06.851,-44.5314,-88.1878
12:52:06.862,-40.8127,-82.2503
12:52:06.865,-32.2189,-69.1878
12:52:06.900,-20.9063,-46.8752
12:52:06.904,-7.625,-21.3751
12:52:06.919,6.0938,7.8125
12:52:06.923,19.4376,36.0626
12:52:06.927,30.7814,61.8127
12:52:06.927,39.4377,84.1878
12:52:06.934,46.6877,102.0004
12:52:06.944,51.5314,115.8129
12:52:06.954,53.4377,124.7505
12:52:06.964,55.1565,129.2505
12:52:06.974,54.1252,130.3755
12:52:06.984,52.2502,125.938
12:52:06.994,48.0314,121.688
12:52:07.003,45.1564,114.0629
12:52:07.014,40.4064,106.2504
12:52:07.024,35.4064,95.7504
12:52:07.034,30.0314,85.1878
12:52:07.044,24.1876,72.3753
12:52:07.054,18.0313,60.5627
12:52:07.064,12.75,47.5627
12:52:07.074,6.9375,36.5001
12:52:07.084,1.4688,25.3751
12:52:07.093,-3.0313,14.5001
12:52:07.104,-6.4688,6.9375
12:52:07.115,-8.9063,1.0625
12:52:07.128,-11.25,-3
12:52:07.141,-11.1563,-5
12:52:07.149,-11.4063,-5.5
12:52:07.160,-11.5938,-5.375
12:52:07.169,-10.5313,-2.9375
12:52:07.178,-9.8438,-1.25
12:52:07.189,-9.0625,0.6875
12:52:07.200,-8.3438,1.375
12:52:07.209,-8.1875,2.125
12:52:07.219,-9.1563,1.6875
12:52:07.229,-10.0313,0.6875
12:52:07.239,-11.3438,-1.5
12:52:07.248,-12.5625,-5
12:52:07.259,-14.6251,-8.25
12:52:07.273,-16.1876,-11.9375
12:52:07.278,-18.4376,-16.7501
12:52:07.299,-22.7501,-24.4376
12:52:07.305,-25.1876,-30.6876
12:52:07.313,-28.2189,-36.9376
12:52:07.319,-32.1251,-43.5002
12:52:07.337,-34.8439,-50.0002
12:52:07.343,-37.4689,-57.2502
12:52:07.350,-40.2189,-62.5002
12:52:07.359,-42.7502,-68.3128
12:52:07.369,-44.4377,-72.2503
12:52:07.380,-45.3127,-77.0003
12:52:07.389,-45.6877,-79.1253
12:52:07.400,-45.1564,-78.7503
12:52:07.409,-42.6564,-75.1878
12:52:07.419,-35.6564,-65.5002
12:52:07.429,-25.5938,-46.1252
12:52:07.440,-12.9063,-23.1251
12:52:07.449,0.5625,5.8125
12:52:07.459,14.1876,35.3751
12:52:07.469,26.5626,63.1252
12:52:07.479,36.6564,88.2503
12:52:07.489,45.1564,107.3754
12:52:07.499,49.4377,123.063
12:52:07.534,53.844,133.188
12:52:07.535,53.7502,138.938
12:52:07.538,53.9065,139.313
12:52:07.540,52.3439,136.563
12:52:07.572,49.0002,132.2505
12:52:07.575,45.1252,125.563
12:52:07.577,40.3439,115.8754
12:52:07.580,35.8439,105.7504
12:52:07.623,30.8751,96.3754
12:52:07.625,24.5938,83.1253
12:52:07.626,18.0938,71.6878
12:52:07.653,12.9063,58.2502
12:52:07.653,6.9688,46.1252
12:52:07.654,2,34.9376
12:52:07.659,-1.9688,26.1251
12:52:07.662,-5.9375,17.7501
12:52:07.691,-7.5625,11.1875
12:52:07.693,-9.5625,6.5625
12:52:07.699,-10,3.875
12:52:07.700,-10.0313,3.25
12:52:07.712,-9.2813,3.5
12:52:07.719,-7.6563,4.375
12:52:07.729,-5.6875,7.125
12:52:07.740,-2.0313,10.1875
12:52:07.750,-1,12.4375
12:52:07.759,-0.1563,13.4376
12:52:07.769,-0.1563,13.1876
12:52:07.779,-0.2813,11.875
12:52:07.789,-1.0625,9.5
12:52:07.799,-3,6.3125
12:52:07.809,-4.7813,3.0625
12:52:07.819,-7.5938,-2.875
12:52:07.829,-9.8438,-7.625
12:52:07.861,-12.4063,-14.0001
12:52:07.865,-14.8438,-19.6876
12:52:07.866,-17.6563,-26.2501
12:52:07.873,-20.3438,-32.3751
12:52:07.878,-23.9376,-40.0627
12:52:07.889,-27.6564,-46.6877
12:52:07.900,-31.5939,-54.8752
12:52:07.910,-34.6564,-61.6252
12:52:07.918,-36.8439,-67.8128
12:52:07.929,-39.6564,-72.2503
12:52:07.939,-40.9689,-77.2503
12:52:07.949,-41.5002,-79.8753
12:52:07.959,-41.8439,-82.7503
12:52:07.969,-39.1252,-78.0003
12:52:07.979,-33.7189,-69.8128
12:52:07.989,-23.9376,-51.8752
12:52:07.999,-11.9375,-27.3751
12:52:08.009,2.0625,-0.0625
12:52:08.019,14.6876,29.8751
12:52:08.031,26.7501,55.6877
12:52:08.039,37.4689,80.4378
12:52:08.049,43.5627,99.4379
12:52:08.059,49.7814,114.6254
12:52:08.068,52.0002,124.563
12:52:08.079,53.9065,129.6255
12:52:08.089,51.9064,129.6255
12:52:08.098,49.7189,126.1255
12:52:08.109,45.1252,120.438
12:52:08.118,40.0314,109.7504
12:52:08.129,33.6876,99.7504
12:52:08.139,26.5001,86.9378
12:52:08.149,19.5001,75.6878
12:52:08.159,10.8438,60.5627
12:52:08.169,1.9688,47.2502
12:52:08.179,-6.9688,31.8126
12:52:08.189,-14.6876,19.0626
12:52:08.210,-16.8126,13.8751
12:52:08.215,-20.2813,8.5
12:52:08.221,-23.6876,2.9375
12:52:08.262,-25.6251,-2.875
12:52:08.295,-28.2189,-5.875
12:52:08.322,-29.2501,-8.3125
12:52:08.325,-30.0001,-7.8125
12:52:08.328,-31.5001,-7.875
12:52:08.328,-38.8751,-11.25
12:52:08.328,-45.9064,-14.8751
12:52:08.336,-52.0314,-19.6876
12:52:08.373,-55.4065,-21.9376
12:52:08.375,-59.7815,-22.3126
12:52:08.378,-63.3127,-21.8126
12:52:08.380,-66.4065,-19.9376
12:52:08.385,-68.8128,-21.4376
12:52:08.403,-72.469,-22.1251
12:52:08.406,-73.5315,-23.2501
12:52:08.414,-80.6253,-26.6876
12:52:08.424,-90.0628,-30.3126
12:52:08.434,-97.4691,-32.3751
12:52:08.446,-103.4691,-31.8751
12:52:08.454,-109.1567,-31.3751
12:52:08.464,-110.1254,-28.1251
12:52:08.474,-104.3129,-22.1876
12:52:08.484,-98.5004,-17.0001
12:52:08.495,-73.594,-1.625
12:52:08.504,-71.2815,-2.5625
12:52:08.514,-72.2815,-4.6875
12:52:08.524,-72.4378,-5.1875
12:52:08.533,-68.4378,-1.3125
12:52:08.544,-59.1252,11.625
12:52:08.554,-47.5627,29.3751
12:52:08.564,-31.6251,54.5002
12:52:08.574,-16.7501,82.0003
12:52:08.584,-1.125,108.3754
12:52:08.594,11.5313,133.563
12:52:08.604,19.9376,151.4381
12:52:08.614,28.4689,167.6881
12:52:08.636,35.2814,180.8757
12:52:08.642,39.0939,187.1882
12:52:08.644,37.7814,188.0007
12:52:08.658,35.8439,185.0632
12:52:08.674,33.5626,179.3757
12:52:08.676,30.6876,171.3756
12:52:08.691,27.2814,163.1256
12:52:08.697,22.0001,150.5006
12:52:08.704,16.6563,138.1255
12:52:08.713,10.875,123.0005
12:52:08.723,4.8438,107.9379
12:52:08.734,-1.4375,90.1878
12:52:08.744,-7.875,74.2503
12:52:08.753,-14.7188,57.0002
12:52:08.764,-22.7188,39.1877
12:52:08.774,-30.0626,21.5001
12:52:08.783,-37.5939,6.75
12:52:08.794,-43.0627,-7.0625
12:52:08.804,-46.0627,-18.0626
12:52:08.815,-47.0627,-27.3751
12:52:08.825,-46.3439,-33.6251
12:52:08.833,-44.1877,-38.6251
12:52:08.844,-41.4377,-42.0627
12:52:08.854,-38.7814,-43.5002
12:52:08.864,-36.9376,-45.6877
12:52:08.874,-34.4689,-46.6252
12:52:08.883,-32.6251,-48.5627
12:52:08.894,-31.0314,-48.3127
12:52:08.904,-28.2814,-49.1877
12:52:08.938,-26.4376,-49.8752
12:52:08.941,-23.4688,-50.9377
12:52:08.942,-20.1563,-50.9377
12:52:08.945,-15.8751,-51.2502
12:52:08.980,-9.9063,-51.5002
12:52:08.984,-4.5625,-51.4377
12:52:08.985,-0.5625,-52.1877
12:52:08.988,3.0625,-55.2502
12:52:08.994,4.125,-58.6252
12:52:09.030,3.9063,-66.1878
12:52:09.031,1.7813,-72.5628
12:52:09.034,1.0938,-81.5628
12:52:09.037,-2.5313,-89.8128
12:52:09.064,-5.1875,-99.0004
12:52:09.066,-10.9688,-109.6254
12:52:09.069,-18.0626,-120.7505
12:52:09.076,-26.7501,-130.188
12:52:09.092,-34.8126,-140.063
12:52:09.095,-41.0314,-145.2505
12:52:09.104,-42.0002,-142.2505
12:52:09.114,-37.3126,-129.6255
12:52:09.141,-25.3751,-105.1254
12:52:09.144,-9.2188,-71.2503
12:52:09.146,7.6563,-32.9376
12:52:09.155,22.3126,3.875
12:52:09.163,33.1251,33.2501
12:52:09.174,39.6877,57.0627
12:52:09.183,43.3752,74.6878
12:52:09.198,45.5627,88.5628
12:52:09.205,47.7502,98.3754
12:52:09.214,48.1877,105.5004
12:52:09.225,48.8439,109.1254
12:52:09.235,48.8439,111.8129
12:52:09.244,49.5627,111.7504
12:52:09.254,49.6252,110.6254
12:52:09.264,48.5627,107.1879
12:52:09.273,46.0627,103.3754
12:52:09.283,43.4689,96.5629
12:52:09.293,38.2189,89.0003
12:52:09.304,32.9689,78.5628
12:52:09.315,26.9376,69.3753
12:52:09.323,22.0313,60.0627
12:52:09.335,17.2188,51.4377
12:52:09.344,14.4063,45.0002
12:52:09.353,12.0938,39.7502
12:52:09.364,11.6563,37.3751
12:52:09.373,13.8751,37.6876
12:52:09.384,15.9063,40.1252
12:52:09.395,19.9063,43.2502
12:52:09.403,23.1251,46.7502
12:52:09.413,25.5938,50.5627
12:52:09.425,28.1876,54.5002
12:52:09.434,29.4064,56.8752
12:52:09.443,31.9064,61.1877
12:52:09.454,34.4376,65.5002
12:52:09.463,35.4064,69.0628
12:52:09.473,35.4376,70.3753
12:52:09.485,34.4376,71.0003
12:52:09.494,32.5939,69.5003
12:52:09.505,31.1564,68.3753
12:52:09.515,29.5626,66.1878
12:52:09.526,30.2189,65.0627
12:52:09.534,30.9064,64.3127
12:52:09.545,30.3126,61.8752
12:52:09.553,26.7814,56.6877
12:52:09.564,22.5313,51.7502
12:52:09.580,18.0313,44.8127
12:52:09.596,13.6876,40.1252
12:52:09.597,11.25,36.4376
12:52:09.607,11.0938,33.5001
12:52:09.617,11.3438,31.6876
12:52:09.624,11.2813,31.1251
12:52:09.634,12.9063,29.6251
12:52:09.645,15.0313,30.5626
12:52:09.655,19.2813,36.3751
12:52:09.664,22.8126,45.0002
12:52:09.674,27.0314,55.1252
12:52:09.685,39.8752,76.3753
12:52:09.699,53.0002,102.5004
12:52:09.704,64.5315,127.063
12:52:09.738,77.594,152.1881
12:52:09.740,87.8441,175.5007
12:52:09.742,94.9691,193.9382
12:52:09.745,101.0941,209.3133
12:52:09.775,104.4379,219.4383
12:52:09.777,105.5629,226.1259
12:52:09.781,105.4692,226.8759
12:52:09.806,103.5629,224.5009
12:52:09.806,100.4691,219.1258
12:52:09.811,96.6566,213.0633
12:52:09.816,92.8754,204.3133
12:52:09.848,87.6878,194.0632
12:52:09.854,80.0628,181.7507
12:52:09.856,71.969,167.8756
12:52:09.859,62.969,153.3131
12:52:09.874,54.969,136.5005
12:52:09.876,47.1252,121.5005
12:52:09.889,41.0002,107.1879
12:52:09.895,33.9064,91.8129
12:52:09.905,27.5314,77.0628
12:52:09.915,22.3751,65.1252
12:52:09.924,16.0001,53.3127
12:52:09.934,11,43.5002
12:52:09.958,7.4688,34.3751
12:52:09.961,4.5625,28.2501
12:52:09.977,3.1563,22.5626
12:52:09.993,0.6875,18.0626
12:52:09.995,-0.75,12.4375
12:52:09.997,-3.2188,8.125
12:52:10.005,-4.8438,3.3125
12:52:10.015,-6.6563,-1.75
12:52:10.025,-7.5625,-6.3125
12:52:10.035,-8.8125,-10.75
12:52:10.046,-10.625,-17.0001
12:52:10.056,-15.5313,-24.4376
12:52:10.068,-20.1563,-33.5001
12:52:10.076,-25.7188,-43.6877
12:52:10.085,-30.9376,-52.6877
12:52:10.094,-36.4689,-62.1252
12:52:10.105,-42.1252,-72.3128
12:52:10.116,-47.1252,-82.1878
12:52:10.127,-51.8439,-92.7504
12:52:10.135,-56.3752,-102.1879
12:52:10.143,-60.6565,-112.6879
12:52:10.156,-65.4065,-121.2505
12:52:10.172,-69.9378,-130.563
12:52:10.176,-74.9065,-138.6255
12:52:10.186,-79.3128,-146.2505
12:52:10.195,-83.8753,-151.0006
12:52:10.206,-85.5316,-155.0006
12:52:10.216,-83.9378,-152.0631
12:52:10.225,-76.969,-143.938
12:52:10.235,-64.1252,-125.7505
12:52:10.246,-48.9377,-99.5629
12:52:10.255,-31.0626,-68.5628
12:52:10.265,-13.5938,-34.5001
12:52:10.275,1.25,-5.375
12:52:10.284,14.5938,23.1251
12:52:10.295,25.4063,45.5627
12:52:10.305,33.8126,65.8753
12:52:10.315,39.6564,80.3128
12:52:10.329,43.2814,91.1879
12:52:10.338,43.6252,96.0004
12:52:10.344,42.8439,98.5004
12:52:10.384,40.9689,97.5004
12:52:10.386,38.0314,94.3754
12:52:10.389,35.2501,89.9378
12:52:10.391,32.7501,84.6878
12:52:10.396,30.0939,79.5628
12:52:10.423,28.7501,71.5628
12:52:10.425,25.4063,64.6877
12:52:10.427,22.8126,55.3752
12:52:10.435,18.6251,46.5002
12:52:10.475,15.4376,37.9376
12:52:10.476,11.625,29.7501
12:52:10.479,7.4063,22.7501
12:52:10.481,4.3438,16.5626
12:52:10.487,0.75,12.9375
12:52:10.516,0.0625,9.8125
12:52:10.519,0.7188,9.625
12:52:10.521,3.1563,10.9375
12:52:10.535,6.5938,13.8751
12:52:10.536,10.9688,17.3126
12:52:10.545,13.1251,20.6876
12:52:10.553,15.3438,24.3751
12:52:10.565,16.3438,25.5626
12:52:10.575,16.4376,26.1251
12:52:10.585,15.9376,27.0626
12:52:10.595,14.7188,27.5001
12:52:10.606,12.5938,26.6251
12:52:10.615,10.1875,25.6251
12:52:10.626,7.9375,23.1876
12:52:10.635,4.9688,20.1251
12:52:10.645,3.1563,15.8126
12:52:10.656,1,12.4375
12:52:10.665,-1.9688,7.75
12:52:10.676,-5.5313,1.75
12:52:10.685,-8.8125,-4.125
12:52:10.702,-9.625,-7.1875
12:52:10.705,-11.7813,-12
12:52:10.715,-14.2188,-16.0626
12:52:10.725,-16.7188,-22.3126
12:52:10.735,-19.1251,-26.3126
12:52:10.745,-18.9376,-28.1876
12:52:10.755,-17.6563,-30.1251
12:52:10.765,-17.2188,-31.4376
12:52:10.775,-16.5001,-32.0001
12:52:10.786,-15.0001,-30.5001
12:52:10.795,-11.25,-24.5626
12:52:10.806,-3.4688,-11.875
12:52:10.815,7.75,6.1875
12:52:10.825,20.4688,29.6876
12:52:10.835,34.0314,54.5002
12:52:10.846,45.8439,79.4378
12:52:10.855,55.469,101.0004
12:52:10.866,62.5315,119.5005
12:52:10.881,67.969,134.188
12:52:10.897,72.5315,143.188
12:52:10.901,73.6878,149.9381
12:52:10.917,74.9065,150.3131
12:52:10.921,72.719,149.2506
12:52:10.925,70.5315,142.5005
12:52:10.935,63.969,134.813
12:52:10.947,57.3752,122.5005
12:52:10.955,50.2814,109.5004
12:52:10.966,42.5627,96.3129
12:52:10.975,36.6876,82.5003
12:52:10.985,29.6251,68.0628
12:52:10.995,23.4376,52.6252
12:52:11.006,17.0001,37.6251
12:52:11.015,10.1563,21.7501
12:52:11.025,2.125,6.9375
12:52:11.036,-4.8438,-7.25
12:52:11.045,-10.2188,-19.1876
12:52:11.056,-13.6876,-29.3751
12:52:11.065,-17.7813,-37.3751
12:52:11.081,-20.2188,-44.6252
12:52:11.085,-22.3126,-50.4377
12:52:11.095,-22.8438,-55.5002
12:52:11.106,-23.1876,-58.6252
12:52:11.115,-22.9376,-62.2502
12:52:11.125,-24.2501,-65.5002
12:52:11.135,-27.0939,-70.0003
12:52:11.146,-29.2814,-74.5003
12:52:11.155,-31.4689,-80.4378
12:52:11.185,-35.3439,-85.1878
12:52:11.189,-38.5939,-90.6254
12:52:11.190,-41.9689,-96.5629
12:52:11.221,-44.9377,-103.7504
12:52:11.222,-47.7189,-109.1879
12:52:11.226,-50.7189,-116.1254
12:52:11.231,-54.219,-123.063
12:52:11.240,-57.7815,-129.1255
12:52:11.275,-60.6877,-136.438
12:52:11.338,-65.1565,-142.313
12:52:11.339,-67.844,-150.0631
12:52:11.340,-72.094,-156.5006
12:52:11.348,-76.8128,-164.3131
12:52:11.348,-81.1878,-170.5006
12:52:11.348,-85.4066,-177.5007
12:52:11.355,-89.1878,-183.7507
12:52:11.365,-94.0629,-192.1257
12:52:11.375,-94.7504,-195.1882
12:52:11.385,-93.3441,-195.7507
12:52:11.395,-89.7191,-191.7507
12:52:11.405,-82.1566,-185.1882
12:52:11.416,-70.5003,-167.8756
12:52:11.425,-54.5627,-143.3755
12:52:11.436,-38.7189,-114.1254
12:52:11.445,-24.4063,-86.1878
12:52:11.456,-12.5625,-58.4377
12:52:11.465,-1.8125,-35.1251
12:52:11.475,6.5,-13.8126
12:52:11.485,14.1251,3.125
12:52:11.496,21.0001,16.6876
12:52:11.506,25.5938,28.1876
12:52:11.515,32.8439,44.0002
12:52:11.525,30.8439,41.8127
12:52:11.535,29.5314,38.8751
12:52:11.546,26.3751,34.1251
12:52:11.556,21.2813,26.2501
12:52:11.565,15.8438,19.1251
12:52:11.575,10.5,9.6875
12:52:11.587,6.6563,1.6875
12:52:11.596,3.875,-6.5625
12:52:11.606,2.5625,-11.3125
12:52:11.615,1.5,-16.7501
12:52:11.625,-1.2188,-20.2501
12:52:11.635,-2.875,-23.6876
12:52:11.645,-3.5313,-25.4376
12:52:11.655,-2.8438,-25.5001
12:52:11.665,-3.0625,-24.0626
12:52:11.675,-0.875,-21.1251
12:52:11.705,1,-19.5001
12:52:11.709,3.6875,-17.0626
12:52:11.712,6.25,-13.6876
12:52:11.715,6.9375,-11.125
12:52:11.725,5.3438,-10.75
12:52:11.735,0.8438,-11.375
12:52:11.745,-3.9688,-13.4376
12:52:11.755,-8.5625,-15.2501
12:52:11.765,-12.9375,-18.8751
12:52:11.777,-18.7813,-23.1251
12:52:11.785,-24.5626,-28.4376
12:52:11.795,-28.4689,-33.5626
12:52:11.805,-31.7501,-37.5001
12:52:11.815,-33.0314,-40.5627
12:52:11.829,-32.9376,-42.6877
12:52:11.835,-31.9376,-45.0627
12:52:11.846,-29.4689,-45.6252
12:52:11.855,-26.0938,-46.3127
12:52:11.866,-21.0938,-46.1252
12:52:11.875,-13.1563,-42.8752
12:52:11.885,-7.1563,-40.4377
12:52:11.895,-2.4063,-38.5626
12:52:11.918,-1.5,-38.5626
12:52:11.920,-1.75,-39.8752
12:52:11.956,-1.4688,-38.8751
12:52:11.957,-0.2188,-36.9376
12:52:11.960,4.8438,-27.9376
12:52:11.963,12.4688,-13.3126
12:52:11.966,22.0626,2.875
12:52:11.999,30.8751,22.9376
12:52:12.002,40.1877,40.5002
12:52:12.004,48.3752,58.1252
12:52:12.011,54.094,71.8128
12:52:12.017,59.344,83.2503
12:52:12.053,61.3752,91.3754
12:52:12.054,62.1877,94.9379
12:52:12.056,60.094,95.1879
12:52:12.059,57.9377,93.0629
12:52:12.085,54.4377,88.8753
12:52:12.085,51.0939,82.0003
12:52:12.088,47.3439,75.0003
12:52:12.095,42.3439,64.8128
12:52:12.105,37.3439,55.1252
12:52:12.115,33.0314,43.5002
12:52:12.125,27.5939,31.3751
12:52:12.137,21.8438,18.7501
12:52:12.145,15.0313,4.1875
12:52:12.155,7.75,-9.8125
12:52:12.165,1.4375,-22.8751
12:52:12.183,-4.6563,-36.5001
12:52:12.186,-9.7188,-48.2502
12:52:12.203,-15.3751,-59.4377
12:52:12.210,-20.1876,-68.0628
12:52:12.215,-24.0313,-77.1253
12:52:12.227,-26.3126,-82.6253
12:52:12.236,-27.0626,-86.7503
12:52:12.245,-25.8751,-89.1878
12:52:12.256,-24.9688,-90.1878
12:52:12.265,-24.9376,-91.0004
12:52:12.275,-25.9376,-92.5004
12:52:12.285,-28.3751,-95.8129
12:52:12.295,-31.2189,-97.7504
12:52:12.305,-34.0001,-102.0629
12:52:12.316,-36.9689,-105.8129
12:52:12.325,-39.9064,-109.0629
12:52:12.335,-41.7189,-113.1879
12:52:12.345,-44.1877,-116.0629
12:52:12.357,-47.7814,-121.5005
12:52:12.365,-50.8439,-126.063
12:52:12.375,-55.1252,-132.188
12:52:12.387,-59.0315,-137.063
12:52:12.397,-62.1565,-141.688
12:52:12.406,-63.4065,-145.438
12:52:12.415,-64.9065,-148.0631
12:52:12.425,-65.0315,-151.5006
12:52:12.435,-64.844,-153.0631
12:52:12.445,-65.4378,-155.0006
12:52:12.455,-66.5003,-157.3131
12:52:12.467,-67.5003,-159.5631
12:52:12.476,-67.7503,-158.8756
12:52:12.485,-65.0002,-157.1881
12:52:12.496,-58.8127,-148.3131
12:52:12.505,-48.1564,-133.063
12:52:12.515,-34.6876,-110.8129
12:52:12.525,-19.8126,-87.3128
12:52:12.535,-7.4375,-62.4377
12:52:12.545,4.4063,-41.1252
12:52:12.558,15.3438,-20.4376
12:52:12.587,23.2813,-1.875
12:52:12.589,31.8126,13.125
12:52:12.619,36.4689,25.5626
12:52:12.654,41.0314,34.1876
12:52:12.656,42.5939,41.3752
12:52:12.659,44.4689,45.1252
12:52:12.659,43.6564,46.6252
12:52:12.659,42.4064,47.1252
12:52:12.696,41.2189,46.5627
12:52:12.696,41.0314,45.4377
12:52:12.699,39.2814,44.1877
12:52:12.701,39.0626,41.1877
12:52:12.706,35.8751,37.3751
12:52:12.737,32.0314,31.6876
12:52:12.740,25.8438,25.1876
12:52:12.743,16.7813,16.0626
12:52:12.745,4.4063,6.1875
12:52:12.759,-9.625,-7.5625
12:52:12.766,-23.9063,-21.0001
12:52:12.775,-35.7501,-32.7501
12:52:12.785,-44.4689,-41.5002
12:52:12.795,-50.3127,-47.4377
12:52:12.805,-54.3752,-50.0002
12:52:12.817,-55.5627,-51.2502
12:52:12.825,-53.2815,-47.4377
12:52:12.840,-50.3127,-44.7502
12:52:12.845,-45.5939,-41.1877
12:52:12.856,-40.9064,-38.3751
12:52:12.865,-37.4064,-35.0001
12:52:12.875,-32.9376,-31.6251
12:52:12.885,-28.0939,-30.5626
12:52:12.895,-22.3126,-28.2501
12:52:12.905,-15.5938,-26.1876
12:52:12.915,-9.9375,-24.2501
12:52:12.925,-5.5,-22.5001
12:52:12.935,-4.0313,-23.3126
12:52:12.946,-2.4375,-23.1876
12:52:12.955,-2.625,-26.0001
12:52:12.981,-5.1563,-27.6876
12:52:12.984,-7.8438,-34.4376
12:52:12.986,-10.0625,-37.6251
12:52:12.995,-12.0938,-42.9377
12:52:13.005,-14.1251,-47.1252
12:52:13.017,-17.2188,-52.6252
12:52:13.028,-18.6563,-57.1877
12:52:13.041,-20.4063,-59.5002
12:52:13.045,-19.1251,-58.1877
12:52:13.055,-14.6251,-52.0627
12:52:13.065,-6.5938,-40.5002
12:52:13.078,3.4063,-24.1251
12:52:13.085,13.2813,-6.375
12:52:13.095,21.0938,9.875
12:52:13.105,26.8751,24.2501
12:52:13.115,31.4064,35.0001
12:52:13.126,34.1251,45.7502
12:52:13.135,36.0939,50.6877
12:52:13.148,37.9376,54.9377
12:52:13.156,39.1251,57.7502
12:52:13.166,39.5314,57.1252
12:52:13.175,36.9689,54.5002
12:52:13.187,33.6251,49.5627
12:52:13.196,31.0939,43.0002
12:52:13.206,26.3439,36.3126
12:52:13.216,23.0626,28.9376
12:52:13.225,19.0626,19.8126
12:52:13.235,15.0313,11.375
12:52:13.245,10.9375,0.8125
12:52:13.255,6.75,-9.5
12:52:13.265,2.375,-19.7501
12:52:13.276,-1.9063,-30.1876
12:52:13.285,-6.875,-40.0002
12:52:13.295,-10.3438,-48.8752
12:52:13.328,-13,-56.6252
12:52:13.331,-14.8126,-62.0002
12:52:13.334,-15.8751,-67.3753
12:52:13.336,-17.1876,-72.1253
12:52:13.364,-17.2813,-74.7503
12:52:13.366,-16.2813,-76.8753
12:52:13.369,-16.4063,-77.5003
12:52:13.377,-16.0626,-78.9378
12:52:13.411,-17.0626,-80.6253
12:52:13.413,-19.7813,-83.2503
12:52:13.415,-23.0938,-86.6253
12:52:13.417,-26.0001,-89.0628
12:52:13.456,-29.6564,-92.1254
12:52:13.460,-32.0939,-94.8754
12:52:13.462,-35.0001,-99.3129
12:52:13.464,-37.0001,-102.4379
12:52:13.470,-40.2814,-106.3754
12:52:13.486,-42.3752,-110.6254
12:52:13.489,-44.3752,-113.6879
12:52:13.502,-46.3127,-117.0629
12:52:13.505,-48.7189,-120.3755
12:52:13.520,-48.9689,-122.5005
12:52:13.525,-50.2814,-125.313
12:52:13.535,-50.2502,-127.688
12:52:13.545,-51.2502,-130.188
12:52:13.555,-52.5314,-133.3755
12:52:13.565,-54.7815,-135.7505
12:52:13.576,-56.219,-138.313
12:52:13.585,-56.969,-139.188
12:52:13.595,-55.6565,-139.063
12:52:13.605,-53.219,-134.6255
12:52:13.615,-45.5002,-124.5005
12:52:13.625,-33.8439,-106.8754
12:52:13.635,-19.2188,-83.7503
12:52:13.645,-5.4063,-59.0627
12:52:13.655,6.9688,-36.4376
12:52:13.666,18.6876,-17.5001
12:52:13.675,26.1876,1.125
12:52:13.685,33.8126,14.7501
12:52:13.695,38.0939,27.1251
12:52:13.705,41.0627,34.7501
12:52:13.715,42.2502,40.3752
12:52:13.725,42.3127,45.0627
12:52:13.735,41.5627,46.9377
12:52:13.745,39.6877,47.5002
12:52:13.756,39.1252,46.6252
12:52:13.765,37.7189,45.3127
12:52:13.775,37.0314,42.8752
12:52:13.786,32.7814,38.6251
12:52:13.795,23.3126,31.4376
12:52:13.805,5.625,17.7501
12:52:13.815,-11.9063,0.125
12:52:13.825,-29.2501,-16.2501
12:52:13.835,-44.6564,-32.3751
12:52:13.846,-57.844,-47.6252
12:52:13.855,-68.4378,-58.6877
12:52:13.865,-76.6253,-66.9378
12:52:13.875,-83.7191,-74.3753
12:52:13.885,-89.4378,-79.6253
12:52:13.901,-93.6254,-82.9378
12:52:13.907,-97.7191,-86.1878
12:52:13.924,-100.6254,-88.0628
12:52:13.926,-105.4691,-90.6253
12:52:13.937,-109.0317,-92.4379
12:52:13.945,-112.5317,-93.1879
12:52:13.956,-116.0629,-93.6254
12:52:13.966,-120.7505,-93.7504
12:52:13.975,-123.3442,-93.6254
12:52:13.986,-118.3442,-87.3128
12:52:13.995,-119.0005,-90.3128
12:52:14.005,-119.1567,-90.0004
12:52:14.015,-119.6255,-90.3128
12:52:14.026,-119.8442,-89.1878
12:52:14.035,-120.2505,-89.9378
12:52:14.045,-119.938,-88.9378
12:52:14.055,-120.2505,-90.1878
12:52:14.065,-122.0317,-91.4379
12:52:14.079,-124.3755,-96.1879
12:52:14.090,-125.0942,-96.5629
12:52:14.096,-122.8442,-98.3129
12:52:14.135,-119.438,-98.3129
12:52:14.135,-117.5005,-98.5004
12:52:14.139,-116.2192,-100.1254
12:52:14.171,-114.6567,-100.8129
12:52:14.172,-111.6879,-100.6879
12:52:14.174,-106.6879,-98.6254
12:52:14.179,-101.5941,-95.3754
12:52:14.181,-95.8754,-90.6253
12:52:14.185,-87.7191,-79.8128
12:52:14.216,-78.469,-65.3753
12:52:14.219,-68.3753,-48.1252
12:52:14.221,-58.1877,-31.8751
12:52:14.227,-45.2814,-12.8125
12:52:14.263,-35.3439,6.4375
12:52:14.265,-25.2188,20.3751
12:52:14.266,-16.8751,34.5626
12:52:14.272,-9.5313,44.0627
12:52:14.283,-4.25,51.8127
12:52:14.285,-0.375,54.7502
12:52:14.296,2.5313,56.8752
12:52:14.305,6.2188,58.0002
12:52:14.315,9.0313,57.3127
12:52:14.325,12.5938,56.6877
12:52:14.336,14.4376,50.6877
12:52:14.346,14.2813,43.6252
12:52:14.356,13.8751,33.4376
12:52:14.366,12.5625,21.0626
12:52:14.377,8.5938,11.875
12:52:14.386,4.9688,2
12:52:14.396,0.625,-6.4375
12:52:14.407,-0.7813,-14.3126
12:52:14.416,-2.3125,-19.6876
12:52:14.427,-1.8438,-24.8751
12:52:14.438,-1.6875,-27.5626
12:52:14.447,-0.9063,-30.8126
12:52:14.455,-0.4375,-30.8751
12:52:14.466,1,-31.8126
12:52:14.476,2.6563,-31.0626
12:52:14.488,4.9375,-31.7501
12:52:14.498,5.9063,-31.8751
12:52:14.505,4.9375,-33.2501
12:52:14.515,4.6875,-34.6876
12:52:14.526,4.4375,-36.8751
12:52:14.536,5.4375,-39.0001
12:52:14.546,7.0938,-40.7502
12:52:14.556,8.6563,-44.3752
12:52:14.566,9.3125,-47.1252
12:52:14.576,6.7188,-52.9377
12:52:14.586,8.5938,-56.3127
12:52:14.595,9.625,-59.4377
12:52:14.606,8.3125,-65.6252
12:52:14.616,9.9063,-70.6253
12:52:14.625,7.9063,-76.2503
12:52:14.636,6.25,-83.9378
12:52:14.646,2.0625,-92.2504
12:52:14.656,1.4688,-96.8754
12:52:14.666,0.9063,-100.5004
12:52:14.676,-0.9688,-106.2504
12:52:14.686,-3.0938,-112.6254
12:52:14.697,-4.4375,-117.0004
12:52:14.706,-5.5938,-122.188
12:52:14.716,-5.9375,-123.7505
12:52:14.727,-4.0313,-124.2505
12:52:14.735,-1.3438,-119.938
12:52:14.746,5.4375,-109.1254
12:52:14.756,15.3126,-94.5004
12:52:14.766,24.1251,-76.6878
12:52:14.784,31.6251,-60.5002
12:52:14.786,39.3127,-45.8127
12:52:14.801,44.2189,-33.2501
12:52:14.809,48.5314,-22.1251
12:52:14.816,50.9064,-14.8126
12:52:14.826,52.3127,-10.125
12:52:14.847,52.5002,-7.9375
12:52:14.851,52.0002,-6.5
12:52:14.883,50.1252,-7.9375
12:52:14.884,48.1877,-10.0625
12:52:14.886,45.0314,-12.875
12:52:14.889,42.4377,-17.8751
12:52:14.927,39.9064,-21.8126
12:52:14.929,35.7814,-27.5626
12:52:14.932,33.6564,-32.6876
12:52:14.939,28.3439,-39.0001
12:52:14.939,25.0938,-46.1877
12:52:14.952,19.3751,-53.6252
12:52:14.959,14.2188,-61.0002
12:52:14.995,10.1563,-69.5003
12:52:14.997,6.4375,-75.5628
12:52:14.999,3.125,-80.1253
12:52:15.004,1.6875,-83.8753
12:52:15.007,0.4063,-86.3753
12:52:15.017,1.0938,-86.5003
12:52:15.033,-0.0625,-87.3128
12:52:15.036,0.875,-85.8753
12:52:15.046,0.5313,-85.6253
12:52:15.055,1.125,-85.0628
12:52:15.066,1.1875,-84.4378
12:52:15.076,0.5938,-82.8128
12:52:15.086,0.9375,-83.9378
12:52:15.096,-0.7188,-83.4378
12:52:15.106,-1.125,-85.7503
12:52:15.116,-2.0938,-85.7503
12:52:15.127,-3.6563,-88.2503
12:52:15.137,-4.5625,-89.6253
12:52:15.148,-6.6563,-91.6879
12:52:15.156,-8,-94.3129
12:52:15.166,-10.4375,-98.5629
12:52:15.176,-11.8438,-101.1254
12:52:15.186,-14.0001,-105.0004
12:52:15.203,-16.2501,-107.8754
12:52:15.206,-18.3126,-112.5629
12:52:15.221,-19.8751,-116.5629
12:52:15.231,-22.7188,-119.188
12:52:15.241,-23.9063,-123.563
12:52:15.251,-26.1876,-126.0005
12:52:15.261,-27.8126,-128.438
12:52:15.271,-28.9064,-129.3755
12:52:15.281,-29.8751,-131.7505
12:52:15.291,-29.7189,-131.563
12:52:15.301,-28.9689,-128.8755
12:52:15.311,-24.7813,-122.2505
12:52:15.322,-16.5938,-107.5629
12:52:15.332,-7.0938,-89.9378
12:52:15.343,2.625,-70.3128
12:52:15.353,9.6875,-52.6252
12:52:15.363,16.1876,-37.7501
12:52:15.371,20.5938,-24.5626
12:52:15.381,23.6563,-15.4376
12:52:15.391,24.6563,-5.8125
12:52:15.407,24.3438,-4.3125
12:52:15.411,21.1876,-5.3125
12:52:15.421,18.6563,-8.0625
12:52:15.431,15.7813,-10.75
12:52:15.442,13.6251,-14.9376
12:52:15.451,9.6875,-19.8126
12:52:15.461,7.9688,-24.3751
12:52:15.472,4.0938,-29.4376
12:52:15.481,1.6875,-35.7501
12:52:15.491,-3.0313,-41.3752
12:52:15.502,-6.25,-48.8752
12:52:15.511,-10.0938,-55.2502
12:52:15.542,-13.2813,-62.1877
12:52:15.544,-15.7813,-67.3128
12:52:15.548,-17.4376,-71.9378
12:52:15.575,-18.5938,-73.8128
12:52:15.576,-20.0938,-77.5628
12:52:15.578,-19.7188,-79.0003
12:52:15.586,-20.0938,-79.5628
12:52:15.591,-20.0626,-79.1253
12:52:15.621,-18.6251,-77.6878
12:52:15.624,-18.1876,-76.4378
12:52:15.626,-16.2188,-73.8128
12:52:15.633,-15.4688,-71.3128
12:52:15.667,-13.9063,-69.5628
12:52:15.669,-13.5001,-68.5003
12:52:15.672,-12.6875,-68.0003
12:52:15.674,-14.0938,-68.8753
12:52:15.708,-14.8126,-70.2503
12:52:15.711,-17.0001,-72.5003
12:52:15.712,-18.1876,-74.3753
12:52:15.732,-20.5001,-76.1878
12:52:15.733,-22.0001,-80.4378
12:52:15.739,-23.8751,-83.3128
12:52:15.741,-24.9063,-85.5003
12:52:15.752,-26.3126,-87.6878
12:52:15.761,-28.0626,-91.0629
12:52:15.772,-30.2814,-94.8754
12:52:15.781,-32.2189,-99.0004
12:52:15.795,-33.9689,-102.6254
12:52:15.801,-37.3126,-106.0004
12:52:15.812,-39.0627,-110.5004
12:52:15.821,-40.0939,-113.6879
12:52:15.833,-42.4689,-116.6254
12:52:15.844,-43.3127,-119.5005
12:52:15.851,-43.6564,-120.5005
12:52:15.861,-43.2189,-120.688
12:52:15.871,-40.5939,-115.5629
12:52:15.881,-33.3751,-105.8129
12:52:15.891,-23.3438,-87.6253
12:52:15.901,-14.0626,-68.1253
12:52:15.912,-3.5313,-48.5002
12:52:15.922,3.5625,-29.3126
12:52:15.931,11,-15.3126
12:52:15.941,16.8751,0
12:52:15.951,20.5626,8.5625
12:52:15.961,21.7813,16.0626
12:52:15.971,22.8751,18.5001
12:52:15.981,23.4063,20.6251
12:52:15.992,21.1251,19.8126
12:52:16.001,20.1876,17.1876
12:52:16.011,17.2188,14.3751
12:52:16.021,13.7813,8.875
12:52:16.031,10.8438,4.6875
12:52:16.041,7.5313,-2.25
12:52:16.051,4.4375,-7.6875
12:52:16.062,1.0938,-15.6876
12:52:16.078,-2.625,-21.5001
12:52:16.083,-6.6563,-29.2501
12:52:16.097,-9.9375,-35.9376
12:52:16.101,-12.6875,-42.4377
12:52:16.111,-14.9688,-46.3752
12:52:16.121,-15.5001,-49.5002
12:52:16.131,-16.2501,-51.6252
12:52:16.142,-16.1563,-51.9377
12:52:16.152,-15.4688,-52.3127
12:52:16.161,-15.2813,-51.1877
12:52:16.177,-13.8438,-49.6877
12:52:16.181,-12.5,-48.3752
12:52:16.192,-11.4375,-45.6252
12:52:16.201,-10.0625,-44.3752
12:52:16.211,-8.7813,-42.5002
12:52:16.221,-8.4688,-40.8752
12:52:16.231,-7.5938,-39.3752
12:52:16.241,-7.6875,-40.0002
12:52:16.253,-8.3125,-42.0002
12:52:16.284,-10.0313,-43.8127
12:52:16.286,-10.9063,-45.7502
12:52:16.289,-12.7813,-48.2502
12:52:16.291,-14.3438,-50.6877
12:52:16.333,-16.4063,-54.3127
12:52:16.334,-18.0938,-56.5002
12:52:16.337,-19.1876,-60.2502
12:52:16.340,-20.4688,-64.1877
12:52:16.344,-23.5313,-68.0003
12:52:16.352,-26.1251,-71.1253
12:52:16.384,-27.9376,-76.2503
12:52:16.386,-30.1251,-80.5628
12:52:16.389,-31.0001,-83.0628
12:52:16.391,-31.8751,-85.1253
12:52:16.423,-32.1876,-87.9378
12:52:16.427,-32.5939,-88.8753
12:52:16.427,-32.1564,-88.1253
12:52:16.434,-29.5626,-86.6253
12:52:16.441,-24.0001,-76.8128
12:52:16.451,-14.0313,-61.3127
12:52:16.461,-4.6563,-41.6252
12:52:16.471,5.1875,-20.5626
12:52:16.481,15.1563,-1.9375
12:52:16.491,22.9063,16.5626
12:52:16.506,28.7189,31.0626
12:52:16.521,32.0939,42.0627
12:52:16.525,34.5314,50.1877
12:52:16.531,35.5939,55.0002
12:52:16.541,35.7814,55.8752
12:52:16.552,35.0626,56.8752
12:52:16.561,33.3751,54.5002
12:52:16.571,31.8751,50.7502
12:52:16.582,29.6564,48.5002
12:52:16.591,28.6876,43.5627
12:52:16.601,26.4689,39.1876
12:52:16.611,24.2501,34.0001
12:52:16.621,22.4063,28.2501
12:52:16.631,19.5001,21.4376
12:52:16.641,16.2813,14.4376
12:52:16.653,11.9688,6.75
12:52:16.661,8.3438,-0.25
12:52:16.671,6.1563,-7.125
12:52:16.681,2.8438,-12.375
12:52:16.691,1.0625,-16.1876
12:52:16.701,-0.4688,-19.5001
12:52:16.711,-1.2813,-21.3751
12:52:16.722,-1.6875,-21.4376
12:52:16.731,-0.6563,-21.1251
12:52:16.741,0.4063,-19.2501
12:52:16.751,1.2813,-17.8126
12:52:16.761,1.4688,-15.5626
12:52:16.772,2.375,-14.8751
12:52:16.781,2.6875,-14.0626
12:52:16.794,2.2188,-13.5001
12:52:16.821,1.8125,-15.0001
12:52:16.824,2,-14.7501
12:52:16.829,1.9688,-16.5001
12:52:16.831,1.0625,-17.0626
12:52:16.841,0.1563,-19.6251
12:52:16.851,-1.25,-22.4376
12:52:16.861,-2.9063,-25.6251
12:52:16.871,-4.7188,-29.5001
12:52:16.881,-7.0938,-33.8126
12:52:16.891,-9.75,-38.4376
12:52:16.902,-12.7188,-44.0627
12:52:16.912,-16.0626,-49.8127
12:52:16.927,-18.4063,-54.4377
12:52:16.934,-21.3751,-59.6252
12:52:16.941,-23.5313,-63.5627
12:52:16.951,-25.8438,-67.3753
12:52:16.961,-26.6251,-70.1878
12:52:16.972,-28.3751,-72.5003
12:52:16.984,-28.0314,-72.6878
12:52:16.991,-24.9063,-68.3128
12:52:17.001,-18.4688,-56.5627
12:52:17.013,-8.5625,-39.9377
12:52:17.045,1.7188,-19.1251
12:52:17.047,10.9063,0.125
12:52:17.049,18.7188,19.6251
12:52:17.051,26.0313,36.0626
12:52:17.080,31.6876,50.6252
12:52:17.082,35.2814,63.1252
12:52:17.086,38.3439,70.2503
12:52:17.091,38.5626,75.0628
12:52:17.117,38.2501,76.7503
12:52:17.120,37.5001,76.1253
12:52:17.122,36.7189,75.3753
12:52:17.146,34.2501,71.5003
12:52:17.149,31.3439,67.0003
12:52:17.151,29.1564,61.9377
12:52:17.185,25.6251,55.6252
12:52:17.188,23.1563,49.2502
12:52:17.190,18.7813,41.9377
12:52:17.195,14.7813,34.5001
12:52:17.203,11.5938,24.8751
12:52:17.211,7.5313,16.6251
12:52:17.221,5,9.75
12:52:17.232,1.875,4.125
12:52:17.243,-0.2188,-1
12:52:17.251,-1.2813,-6.125
12:52:17.261,-2.625,-8.0625
12:52:17.271,-2.6875,-10.4375
12:52:17.281,-2.2813,-11.125
12:52:17.291,-2.2813,-10.25
12:52:17.302,-1.5938,-9.875
12:52:17.311,-0.7813,-9.5
12:52:17.322,-0.375,-8.5
12:52:17.331,-0.25,-7.75
12:52:17.341,0.1875,-8.8125
12:52:17.352,-0.0938,-8.125
12:52:17.361,0.5,-8.1875
12:52:17.377,-0.4375,-9
12:52:17.392,-1.1563,-10.75
12:52:17.396,-1.8125,-12.9375
12:52:17.401,-3,-15.7501
12:52:17.411,-4.75,-19.5626
12:52:17.421,-6.8125,-22.6876
12:52:17.431,-9.6563,-27.9376
12:52:17.441,-11.9063,-32.3126
12:52:17.451,-14.9688,-38.1876
12:52:17.462,-16.5938,-42.7502
12:52:17.471,-19.5626,-47.5627
12:52:17.482,-20.9376,-51.9377
12:52:17.492,-22.0001,-55.1877
12:52:17.501,-23.1563,-58.2502
12:52:17.511,-24.5313,-60.7502
12:52:17.521,-25.1251,-64.9377
12:52:17.532,-25.7813,-66.0628
12:52:17.542,-23.8751,-64.2502
12:52:17.554,-20.1876,-58.1252
12:52:17.561,-12.1875,-45.4377
12:52:17.571,-3.0313,-26.3126
12:52:17.581,7.2188,-5.75
12:52:17.591,16.2813,15.1876
12:52:17.601,24.7813,34.8751
12:52:17.611,32.1564,51.3752
12:52:17.621,37.7814,68.0628
12:52:17.631,43.1564,79.2503
12:52:17.641,45.5939,88.4378
12:52:17.652,46.8127,91.8754
12:52:17.661,46.3439,94.8129
12:52:17.677,44.8127,92.1879
12:52:17.683,42.2814,90.3128
12:52:17.712,39.7189,84.2503
12:52:17.716,36.0939,79.8753
12:52:17.719,33.4376,73.3753
12:52:17.721,29.4376,67.1253
12:52:17.757,26.6251,58.3127
12:52:17.759,22.8751,51.2502
12:52:17.762,19.6251,42.1877
12:52:17.763,15.5001,33.3751
12:52:17.800,11.5938,24.4376
12:52:17.803,8.375,16.5001
12:52:17.837,5.6875,10.3125
12:52:17.839,3.875,4.375
12:52:17.840,2.9375,1.8125
12:52:17.842,3.375,0.5625
12:52:17.847,3.875,0.5625
12:52:17.849,4.3438,1.8125
12:52:17.852,6.4063,2.1875
12:52:17.871,6.75,4.125
12:52:17.879,7.5,4.3125
12:52:17.882,8.0625,5.3125
12:52:17.891,7.5,5.75
12:52:17.901,6.5625,4.875
12:52:17.912,6.4063,2.75
12:52:17.924,4.9063,2.6875
12:52:17.932,3.8125,-0.875
12:52:17.941,2.2813,-3.0625
12:52:17.951,0.9688,-7.875
12:52:17.961,-2.1563,-11.0625
12:52:17.972,-4.5625,-16.3126
12:52:17.981,-7.6875,-21.1876
12:52:17.991,-10.4063,-27.1251
12:52:18.003,-13.1251,-31.9376
12:52:18.011,-15.6876,-36.5001
12:52:18.021,-18.0626,-42.3127
12:52:18.032,-20.4063,-47.3752
12:52:18.041,-23.4063,-51.8127
12:52:18.052,-25.2813,-56.1252
12:52:18.061,-26.0626,-60.6877
12:52:18.071,-27.5001,-63.5002
12:52:18.101,-27.5314,-64.5627
12:52:18.103,-26.2813,-62.6252
12:52:18.106,-20.7813,-54.9377
12:52:18.111,-12.3125,-40.2502
12:52:18.122,-2.875,-21.1876
12:52:18.132,7.7813,0.6875
12:52:18.141,16.8751,22.7501
12:52:18.151,25.8751,41.5002
12:52:18.161,32.4064,60.1877
12:52:18.171,38.3751,74.2503
12:52:18.181,42.9689,85.2503
12:52:18.193,44.2814,92.2504
12:52:18.201,45.1564,96.3129
12:52:18.212,45.0627,97.6879
12:52:18.221,44.0939,95.9379
12:52:18.231,41.9689,93.4379
12:52:18.245,39.5939,88.3753
12:52:18.252,36.7814,84.3753
12:52:18.261,33.4689,76.8753
12:52:18.271,29.5001,70.2503
12:52:18.282,25.4688,61.6877
12:52:18.291,21.3438,52.6877
12:52:18.301,17.0626,43.2502
12:52:18.312,12.375,32.8126
12:52:18.321,8.3438,23.7501
12:52:18.333,4.5625,16.0626
12:52:18.341,2,9.6875
12:52:18.351,-0.2188,4
12:52:18.362,-0.9688,0.9375
12:52:18.371,-1.7813,-0.5
12:52:18.382,-0.8125,-0.9375
12:52:18.391,-0.8438,0.5625
12:52:18.401,-0.7813,0.9375
12:52:18.412,0.875,1.5
12:52:18.427,0.5313,2.4375
12:52:18.433,1.1875,3.75
12:52:18.441,0.75,3.0625
12:52:18.451,0.3125,2.5
12:52:18.461,-0.5625,1.3125
12:52:18.473,-2.2813,-0.9375
12:52:18.486,-3.875,-3.0625
12:52:18.492,-5.5938,-5.8125
12:52:18.525,-7.1875,-9.75
12:52:18.529,-9.4688,-14.2501
12:52:18.530,-12.25,-18.0626
12:52:18.532,-14.1876,-23.9376
12:52:18.572,-17.1251,-27.9376
12:52:18.574,-19.9063,-34.2501
12:52:18.575,-23.0938,-38.8126
12:52:18.604,-25.7188,-44.7502
12:52:18.605,-28.6876,-50.0002
12:52:18.608,-30.3751,-54.8752
12:52:18.609,-32.0001,-58.5002
12:52:18.614,-34.5626,-61.3752
12:52:18.639,-34.6251,-62.8127
12:52:18.641,-34.7189,-62.2502
12:52:18.643,-30.8751,-56.7502
12:52:18.652,-24.1251,-43.3752
12:52:18.671,-15.2501,-25.4376
12:52:18.673,-5.1875,-3.875
12:52:18.689,4.0313,16.8126
12:52:18.693,12.875,38.5001
12:52:18.704,21.3751,56.8127
12:52:18.711,28.4376,73.6253
12:52:18.723,33.7189,88.6253
12:52:18.731,37.4376,98.3754
12:52:18.742,39.8127,104.1254
12:52:18.751,39.6564,107.6879
12:52:18.761,39.6877,107.0629
12:52:18.771,37.3751,105.6254
12:52:18.781,35.8439,101.5004
12:52:18.794,33.3751,95.3129
12:52:18.802,30.4376,90.1253
12:52:18.813,26.4689,81.8128
12:52:18.822,22.2813,73.5628
12:52:18.832,17.9688,63.8752
12:52:18.842,13.2188,52.9377
12:52:18.851,8.875,43.0002
12:52:18.861,4.3125,33.5626
12:52:18.873,0.8125,24.2501
12:52:18.881,-2.3125,17.0626
12:52:18.891,-4.8125,10.8125
12:52:18.901,-5.4688,6.625
12:52:18.913,-5.5625,4.5625
12:52:18.921,-5.5,3
12:52:18.932,-4.7188,3.1875
12:52:18.941,-3.125,3.375
12:52:18.953,-2.5,5.125
12:52:18.961,-2.1875,6.0625
12:52:18.972,-1.375,6.8125
12:52:18.981,-1.3125,7.75
12:52:18.994,-1.4688,7.1875
12:52:19.001,-1.75,6.125
12:52:19.013,-1.875,5.375
12:52:19.021,-2.5313,2.4375
12:52:19.034,-4.2188,-0.625
12:52:19.041,-6.125,-4.75
12:52:19.052,-7.4375,-8.125
12:52:19.061,-9.5,-12.9375
12:52:19.072,-12.4375,-18.0626
12:52:19.085,-14.0938,-23.1251
12:52:19.097,-16.4376,-28.6251
12:52:19.106,-18.7501,-33.8126
12:52:19.113,-22.1876,-39.3752
12:52:19.129,-23.8751,-45.3752
12:52:19.136,-26.7814,-49.7502
12:52:19.143,-27.2814,-53.4377
12:52:19.151,-28.5314,-56.8127
12:52:19.161,-28.2501,-58.1252
12:52:19.171,-27.8126,-57.4377
12:52:19.208,-24.2501,-51.5627
12:52:19.209,-17.7813,-40.1252
12:52:19.212,-8.8438,-21.8751
12:52:19.214,-0.0313,-1.5625
12:52:19.247,8.6875,19.0001
12:52:19.250,16.5313,39.8127
12:52:19.252,24.0938,58.5627
12:52:19.258,31.0001,76.0003
12:52:19.270,35.9689,90.8129
12:52:19.300,38.6876,102.0004
12:52:19.303,40.5314,108.8129
12:52:19.305,41.3127,112.3754
12:52:19.311,41.3752,113.8129
12:52:19.342,40.0939,112.9379
12:52:19.345,38.0314,108.9379
12:52:19.347,35.6564,104.6254
12:52:19.352,32.5001,97.1879
12:52:19.381,29.4689,90.5629
12:52:19.383,25.8751,83.0628
12:52:19.386,22.5938,73.6878
12:52:19.392,17.9688,64.2502
12:52:19.404,11.875,50.4377
12:52:19.411,7.7813,40.4377
12:52:19.425,5.1563,32.1251
12:52:19.431,3.3125,25.0626
12:52:19.442,1.8438,20.0001
12:52:19.452,1.4688,16.9376
12:52:19.463,1.5313,15.4376
12:52:19.473,2.5313,15.0626
12:52:19.482,2.9063,16.0001
12:52:19.492,4.7188,16.8751
12:52:19.501,6.0313,18.3751
12:52:19.514,6.0625,19.1876
12:52:19.521,6.875,18.9376
12:52:19.532,6.4063,19.2501
12:52:19.542,5.8438,17.1876
12:52:19.553,5.375,14.9376
12:52:19.561,4.8438,13.0625
12:52:19.572,3.3125,10.125
12:52:19.582,1.875,6.375
12:52:19.593,0.5313,2.4375
12:52:19.603,-2.375,-2.625
12:52:19.611,-5.0625,-8
12:52:19.622,-7.5625,-14.8751
12:52:19.633,-10.5938,-21.0001
12:52:19.642,-13.125,-27.0626
12:52:19.652,-15.6563,-32.1876
12:52:19.662,-18.3438,-37.7501
12:52:19.673,-20.7501,-42.9377
12:52:19.681,-22.6251,-47.4377
12:52:19.692,-24.6251,-51.5002
12:52:19.702,-25.2501,-53.0627
12:52:19.713,-23.1876,-51.1877
12:52:19.722,-18.3126,-44.7502
12:52:19.732,-10.4063,-29.5001
12:52:19.742,0.375,-9.0625
12:52:19.755,10.5938,14.0626
12:52:19.763,21.0001,36.1876
12:52:19.771,30.0001,58.5627
12:52:19.782,38.2814,78.0003
12:52:19.792,45.2502,96.3754
12:52:19.802,49.9377,108.9379
12:52:19.812,53.5002,118.1255
12:52:19.821,54.1252,123.813
12:52:19.833,54.344,126.188
12:52:19.842,53.3752,126.438
12:52:19.853,51.4064,123.438
12:52:19.862,49.1252,119.563
12:52:19.875,46.2502,113.6254
12:52:19.882,42.7502,106.5629
12:52:19.893,39.9377,99.0004
12:52:19.903,35.7501,91.3754
12:52:19.911,31.1876,81.1253
12:52:19.930,27.1251,71.1253
12:52:19.933,22.9063,61.3127
12:52:19.967,18.3126,51.6252
12:52:20.001,14.4063,42.4377
12:52:20.002,11.6563,34.6876
12:52:20.030,9.9375,28.9376
12:52:20.058,8.125,25.1876
12:52:20.061,7.2188,21.3751
12:52:20.061,6.4688,19.7501
12:52:20.061,6.4688,18.8126
12:52:20.099,6.9688,19.6876
12:52:20.100,7.125,20.4376
12:52:20.101,7.9375,21.6251
12:52:20.101,8.1875,21.5001
12:52:20.109,7.9375,21.9376
12:52:20.122,8.3438,22.4376
12:52:20.127,7.25,20.1251
12:52:20.138,6.25,19.0001
12:52:20.148,5.3125,16.1251
12:52:20.157,4.3438,13.125
12:52:20.168,1.4375,9.0625
12:52:20.178,-1.375,4.1875
12:52:20.187,-4.125,-1.6875
12:52:20.197,-7.1875,-7.75
12:52:20.207,-9.9375,-13.6251
12:52:20.218,-21.9376,-39.7502
12:52:20.227,-23.8751,-44.8127
12:52:20.238,-26.5001,-49.0002
12:52:20.247,-27.5626,-52.6252
12:52:20.257,-27.9064,-54.2502
12:52:20.267,-14.3751,-33.9376
12:52:20.279,-4.3125,-14.0001
12:52:20.288,6.125,9
12:52:20.297,17.0938,32.3751
12:52:20.307,25.9063,53.6877
12:52:20.320,34.2814,74.0628
12:52:20.327,40.8439,90.4378
12:52:20.338,45.5627,104.3129
12:52:20.347,48.7189,113.6879
12:52:20.357,49.5939,119.188
12:52:20.367,50.2814,121.063
12:52:20.377,48.2814,121.563
12:52:20.389,46.8752,117.3754
12:52:20.397,44.5314,113.0629
12:52:20.419,40.4377,106.8754
12:52:20.421,37.4376,100.0629
12:52:20.430,33.9376,92.4379
12:52:20.438,29.5939,84.0628
12:52:20.452,25.6876,73.5628
12:52:20.461,20.7188,63.0627
12:52:20.467,16.1251,52.0627
12:52:20.478,12.0625,42.1877
12:52:20.487,7.25,33.1876
12:52:20.497,4.125,25.3126
12:52:20.507,1.8438,17.6251
12:52:20.518,0.3125,13.7501
12:52:20.527,-0.6563,10.8125
12:52:20.537,-1.4688,7.0625
12:52:20.548,-1.5313,6.625
12:52:20.558,-1.7813,5.9375
12:52:20.567,-1.3125,5.875
12:52:20.577,-1.0313,6.9375
12:52:20.587,-0.8125,7.3125
12:52:20.598,-1.375,7.1875
12:52:20.607,-1.8125,6.6875
12:52:20.617,-2.5,4.5625
12:52:20.628,-3.4688,3.625
12:52:20.638,-5.0625,1
12:52:20.665,-6.4688,-3.1875
12:52:20.666,-8.4063,-7.375
12:52:20.693,-10.4063,-11.5
12:52:20.696,-12.0938,-16.0626
12:52:20.697,-14.6876,-21.6251
12:52:20.704,-17.2188,-28.0001
12:52:20.710,-19.2813,-33.5001
12:52:20.745,-21.8751,-39.3752
12:52:20.746,-24.9688,-45.0627
12:52:20.750,-26.5939,-50.7502
12:52:20.752,-29.8126,-56.1877
12:52:20.757,-30.7814,-60.8127
12:52:20.790,-32.9064,-64.2502
12:52:20.792,-33.4689,-66.8128
12:52:20.795,-32.0626,-66.6253
12:52:20.797,-28.4376,-61.0002
12:52:20.834,-21.0313,-49.3752
12:52:20.837,-12.1563,-30.2501
12:52:20.840,-1.0625,-9.4375
12:52:20.842,9.4688,14.8126
12:52:20.848,20.2188,36.8126
12:52:20.857,29.4376,59.4377
12:52:20.873,39.0626,78.6878
12:52:20.878,46.0314,95.4379
12:52:20.888,50.5314,106.3129
12:52:20.898,53.094,113.1254
12:52:20.907,53.6877,115.8754
12:52:20.917,52.8127,115.6254
12:52:20.928,51.8439,113.6254
12:52:20.937,48.9689,107.0004
12:52:20.948,45.9064,101.1254
12:52:20.957,42.5627,93.1879
12:52:20.967,38.8751,85.6253
12:52:20.979,34.4376,75.8128
12:52:20.988,29.3126,65.8128
12:52:20.998,24.7501,54.6252
12:52:21.008,19.3751,43.5627
12:52:21.018,14.8438,32.5626
12:52:21.028,9.5625,23.5626
12:52:21.037,5.8125,15.1251
12:52:21.048,3.4063,7.5
12:52:21.059,0.9375,2.0625
12:52:21.068,-0.25,-0.625
12:52:21.079,-0.5938,-2.875
12:52:21.087,0.0313,-3.0625
12:52:21.100,1.4063,-3.1875
12:52:21.107,1.5313,-1
12:52:21.117,2.25,-0.625
12:52:21.129,3.375,-0.75
12:52:21.137,2.375,-0.5
12:52:21.148,2,-0.75
12:52:21.157,1.7813,-2.875
12:52:21.167,0.8125,-4.875
12:52:21.177,-0.0313,-6.0625
12:52:21.188,-1.5313,-10.1875
12:52:21.198,-3.5625,-13.6876
12:52:21.208,-5.8125,-17.9376
12:52:21.217,-7.5,-24.0626
12:52:21.230,-10.7188,-29.4376
12:52:21.237,-12.8438,-35.1251
12:52:21.252,-15.7188,-40.6877
12:52:21.259,-18.0313,-46.8127
12:52:21.268,-20.9688,-52.5002
12:52:21.277,-22.5001,-58.3752
12:52:21.287,-26.1251,-63.8752
12:52:21.297,-27.8126,-68.8128
12:52:21.307,-29.8751,-73.1253
12:52:21.317,-31.0314,-76.1253
12:52:21.330,-31.0001,-79.8128
12:52:21.399,-31.3751,-79.1253
12:52:21.467,-28.0314,-75.8753
12:52:21.468,-21.8438,-63.4377
12:52:21.469,-11.5313,-45.8127
12:52:21.469,-0.9375,-22.6251
12:52:21.471,11.25,0.6875
12:52:21.496,20.5938,25.1251
12:52:21.499,30.7501,46.2502
12:52:21.499,37.3439,66.7503
12:52:21.500,44.7189,81.0003
12:52:21.503,48.8127,93.8754
12:52:21.507,51.5627,99.6254
12:52:21.517,52.4377,103.3754
12:52:21.528,51.4377,103.3754
12:52:21.538,50.3127,101.6879
12:52:21.547,47.7502,96.5629
12:52:21.560,45.1877,91.0629
12:52:21.568,41.1877,84.0628
12:52:21.577,38.4064,76.8128
12:52:21.588,34.3439,67.1253
12:52:21.598,29.4064,58.3127
12:52:21.607,25.0626,47.0002
12:52:21.618,19.5626,35.7501
12:52:21.627,14.7501,25.2501
12:52:21.637,10.5938,14.7501
12:52:21.648,4.5625,-8
12:52:21.658,5.5938,-6.625
12:52:21.668,6.3125,-4.5
12:52:21.677,7.0938,-2.4375
12:52:21.687,7.4688,-1.5625
12:52:21.700,7.5625,-2.625
12:52:21.707,7.9688,-2.0625
12:52:21.717,6.9688,-3.25
12:52:21.736,5.5,-4.625
12:52:21.743,3.9688,-6.875
12:52:21.751,1.8438,-11.1875
12:52:21.758,-0.3125,-15.9376
12:52:21.775,-2.8438,-20.3126
12:52:21.790,-5.6563,-25.6251
12:52:21.791,-8.0625,-31.1251
12:52:21.799,-11.5313,-36.6251
12:52:21.808,-14.0001,-41.8752
12:52:21.817,-16.4688,-48.1252
12:52:21.827,-19.2813,-53.3127
12:52:21.838,-21.7813,-60.6877
12:52:21.847,-23.6251,-64.4377
12:52:21.857,-25.3126,-69.6253
12:52:21.867,-27.6251,-73.4378
12:52:21.878,-28.3439,-77.6253
12:52:21.887,-29.6564,-79.4378
12:52:21.901,-29.6564,-79.9378
12:52:21.908,-27.1876,-76.3753
12:52:21.917,-20.3751,-66.5628
12:52:21.944,-10.7188,-46.7502
12:52:21.946,0.625,-24.8126
12:52:21.948,11.7188,0.6875
12:52:21.958,21.8126,25.1251
12:52:21.967,32.2501,46.6877
12:52:21.977,40.0314,67.5003
12:52:21.989,46.5627,83.6253
12:52:22.000,50.7189,96.3754
12:52:22.008,53.0627,104.5004
12:52:22.018,53.8127,108.0629
12:52:22.027,53.344,109.6879
12:52:22.037,51.9064,107.3754
12:52:22.047,49.5939,103.3754
12:52:22.057,47.3439,99.0004
12:52:22.067,44.4377,92.4379
12:52:22.077,40.1877,85.3753
12:52:22.103,36.5314,77.4378
12:52:22.106,32.9689,67.4378
12:52:22.109,27.9689,57.3752
12:52:22.147,23.6251,48.6252
12:52:22.149,20.3126,37.6876
12:52:22.152,15.0626,29.0001
12:52:22.156,11.3438,18.7501
12:52:22.158,7.7813,11.625
12:52:22.193,5.4375,6.5
12:52:22.194,5,3.125
12:52:22.197,4.6563,1.875
12:52:22.199,5.4063,1.75
12:52:22.228,6.1875,1.875
12:52:22.230,6.625,3.125
12:52:22.232,6.8438,4.8125
12:52:22.239,8,5.625
12:52:22.263,7.7188,6.1875
12:52:22.265,7.5938,5.625
12:52:22.269,6.9063,5
12:52:22.278,6.6875,3.8125
12:52:22.287,5.0313,1.75
12:52:22.298,3.375,-1.0625
12:52:22.308,1.6563,-4.75
12:52:22.318,0.1563,-9.625
12:52:22.328,-2.6875,-14.0626
12:52:22.338,-4.9375,-19.3751
12:52:22.347,-8.5313,-25.4376
12:52:22.357,-10.7813,-30.6876
12:52:22.367,-13.3438,-36.1876
12:52:22.381,-16.4688,-42.5002
12:52:22.387,-19.0626,-48.7502
12:52:22.397,-21.6563,-54.6877
12:52:22.407,-24.4063,-60.0002
12:52:22.417,-26.3439,-64.3752
12:52:22.428,-28.1251,-69.3753
12:52:22.437,-29.7189,-72.6253
12:52:22.448,-30.1876,-74.3128
12:52:22.458,-29.8751,-76.6253
12:52:22.467,-27.2189,-71.8753
12:52:22.477,-21.4063,-62.5627
12:52:22.489,-11.75,-45.7502
12:52:22.499,-0.8438,-23.5001
12:52:22.507,10.3125,0.4375
12:52:22.518,20.4063,26.0626
12:52:22.527,31.0001,48.5002
12:52:22.537,40.0002,70.9378
12:52:22.548,46.9064,88.5003
12:52:22.557,52.6252,102.5004
12:52:22.567,55.4377,111.5629
12:52:22.578,57.094,116.3129
12:52:22.588,57.1877,118.188
12:52:22.597,56.4065,116.3754
12:52:22.607,54.469,113.7504
12:52:22.618,50.6252,109.0004
12:52:22.627,47.4377,100.8754
12:52:22.638,44.0314,93.9379
12:52:22.648,39.7502,84.8128
12:52:22.657,35.2501,75.6253
12:52:22.667,30.5939,65.1878
12:52:22.677,25.5001,54.8752
12:52:22.688,21.1251,43.3752
12:52:22.711,15.9063,33.0001
12:52:22.712,11.75,24.1251
12:52:22.727,8.75,16.2501
12:52:22.742,6.1875,10
12:52:22.743,5.0938,4.875
12:52:22.762,4.4375,2.9375
12:52:22.765,4.6563,2.0625
12:52:22.769,4.2813,1.8125
12:52:22.777,5.5938,2.25
12:52:22.788,6.0625,4.1875
12:52:22.800,6.125,5.125
12:52:22.809,6.4375,4.4375
12:52:22.832,6.25,4.625
12:52:22.835,5.9063,4.4375
12:52:22.837,5.25,2.8125
12:52:22.866,4.5,0.9375
12:52:22.869,3,-1.75
12:52:22.871,1.4688,-4.8125
12:52:22.879,-0.5938,-8.5625
12:52:22.905,-2.4688,-13.8751
12:52:22.907,-5.5625,-19.0626
12:52:22.910,-8.1563,-24.3751
12:52:22.943,-10.2813,-30.1251
12:52:22.945,-13.5001,-35.3751
12:52:22.948,-16.1563,-42.4377
12:52:22.952,-18.5938,-47.8752
12:52:22.978,-21.5001,-54.1252
12:52:22.980,-24.8126,-59.6877
12:52:22.981,-26.6251,-65.2502
12:52:23.000,-29.2501,-70.4378
12:52:23.002,-31.3126,-74.6878
12:52:23.008,-31.9064,-78.5628
12:52:23.019,-33.5939,-80.5003
12:52:23.029,-33.6564,-82.3128
12:52:23.037,-32.4689,-80.8128
12:52:23.058,-27.3126,-73.7503
12:52:23.061,-19.1251,-58.2502
12:52:23.071,-7.4688,-37.2501
12:52:23.080,4.1563,-11.375
12:52:23.094,15.8438,13.0625
12:52:23.102,26.9689,38.6251
12:52:23.109,36.3126,61.0002
12:52:23.117,44.3752,79.9378
12:52:23.135,49.9377,96.1879
12:52:23.139,53.9065,105.5004
12:52:23.149,55.5315,112.3754
12:52:23.159,55.5002,114.0004
12:52:23.168,54.5315,113.1879
12:52:23.179,51.9689,110.6879
12:52:23.187,49.3127,105.6879
12:52:23.223,46.4689,99.1254
12:52:23.225,42.9377,92.3129
12:52:23.227,39.7814,83.5628
12:52:23.232,36.0626,75.8128
12:52:23.239,31.6564,65.3753
12:52:23.249,26.4063,54.7502
12:52:23.258,21.4063,43.8127
12:52:23.267,15.6563,32.8126
12:52:23.279,11.3438,22.0626
12:52:23.287,7.0938,14.1876
12:52:23.298,3.8438,7.6875
12:52:23.309,2.7188,2.875
12:52:23.318,2.125,0.875
12:52:23.329,2.6875,-0.25
12:52:23.339,3.1875,1.8125
12:52:23.354,4.1563,2.25
12:52:23.363,4.3125,3.625
12:52:23.373,3.0625,4.5
12:52:23.384,2.4688,3.3125
12:52:23.394,-0.8125,3.5
12:52:23.404,-5.8438,0.9375
12:52:23.414,-14.9063,-1.75
12:52:23.424,-27.7501,-6.6875
12:52:23.434,-42.9064,-16.7501
12:52:23.444,-58.594,-24.1251
12:52:23.452,-72.4378,-29.5626
12:52:23.464,-83.5316,-34.5001
12:52:23.474,-91.2816,-34.2501
12:52:23.483,-101.2191,-35.1876
12:52:23.494,-113.8754,-39.9377
12:52:23.502,-123.2817,-42.9377
12:52:23.513,-130.5318,-43.1252
12:52:23.523,-133.5318,-42.6877
12:52:23.532,-134.688,-41.0627
12:52:23.544,-135.2505,-39.6877
12:52:23.586,-132.8755,-37.1251
12:52:23.588,-131.188,-34.3751
12:52:23.589,-129.4692,-32.6251
12:52:23.592,-124.1567,-27.6876
12:52:23.595,-118.1567,-24.5626
12:52:23.632,-111.6879,-21.1251
12:52:23.634,-104.7191,-16.2501
12:52:23.636,-96.3441,-8.5625
12:52:23.668,-84.1566,5
12:52:23.670,-70.8128,21.8751
12:52:23.671,-55.6565,44.8752
12:52:23.679,-38.8439,69.5003
12:52:23.680,-21.9376,98.5004
12:52:23.684,-3.625,131.313
12:52:23.712,11.875,160.0631
12:52:23.715,25.5313,186.3132
12:52:23.717,36.4064,207.0008
12:52:23.724,45.5314,223.0009
12:52:23.735,53.9065,234.6259
12:52:23.743,61.5002,242.1259
12:52:23.754,64.7815,244.1259
12:52:23.764,64.719,241.9384
12:52:23.774,61.7502,234.5634
12:52:23.784,56.2815,224.8759
12:52:23.794,49.9377,213.8758
12:52:23.803,42.9064,199.5008
12:52:23.815,34.6876,187.2507
12:52:23.824,27.7501,172.5007
12:52:23.834,20.2501,159.3131
12:52:23.844,14.6251,144.1255
12:52:23.854,10.25,132.1255
12:52:23.863,7.1563,121.1255
12:52:23.872,4.9063,111.1254
12:52:23.885,2.3125,102.1879
12:52:23.894,0.9063,93.6879
12:52:23.904,-0.2188,88.0628
12:52:23.914,2.1875,85.6878
12:52:23.924,9.5625,87.8753
12:52:23.933,17.4063,92.4379
12:52:23.944,24.8126,95.8754
12:52:23.955,25.5313,96.0629
12:52:23.964,23.2188,94.6254
12:52:23.974,22.5313,93.1254
12:52:23.986,21.8438,91.5004
12:52:23.993,23.4376,90.8129
12:52:24.004,31.6251,94.4379
12:52:24.013,41.5314,99.6879
12:52:24.028,50.0627,102.3754
12:52:24.036,55.0315,102.6879
12:52:24.044,60.5315,103.0629
12:52:24.060,64.7502,102.6879
12:52:24.076,66.8128,99.6879
12:52:24.078,65.5315,94.8754
12:52:24.085,66.9065,90.8754
12:52:24.094,69.719,87.1253
12:52:24.104,69.719,83.3128
12:52:24.114,69.2815,78.6253
12:52:24.126,70.4065,75.5628
12:52:24.133,74.3753,76.3753
12:52:24.143,79.4066,76.1253
12:52:24.153,82.9691,75.7503
12:52:24.164,86.5316,73.9378
12:52:24.174,89.8753,72.6878
12:52:24.184,95.1566,71.4378
12:52:24.193,98.6254,69.9378
12:52:24.204,102.5629,68.3753
12:52:24.214,107.9692,69.8753
12:52:24.223,117.9692,78.3753
12:52:24.234,134.5943,94.5004
12:52:24.243,154.0631,115.1879
12:52:24.260,172.5944,139.063
12:52:24.265,188.3132,162.7506
12:52:24.274,197.532,183.8132
12:52:24.306,199.9383,199.2508
12:52:24.308,194.9695,209.0008
12:52:24.312,187.6882,216.2508
12:52:24.314,181.3132,224.0009
12:52:24.344,174.5632,228.5009
12:52:24.346,166.5944,226.1884
12:52:24.349,156.9069,220.6884
12:52:24.355,142.9068,211.4383
12:52:24.388,124.0317,197.1257
12:52:24.391,101.0004,177.0632
12:52:24.467,76.2503,156.6256
12:52:24.467,57.2815,138.563
12:52:24.471,37.4689,119.0005
12:52:24.471,20.3438,100.0629
12:52:24.471,2.125,79.8753
12:52:24.478,-16.2188,58.5002
12:52:24.501,-29.0314,40.9377
12:52:24.504,-33.3126,29.8751
12:52:24.506,-33.5939,24.8126
12:52:24.513,-28.1564,26.0626
12:52:24.524,-17.6251,36.6876
12:52:24.534,-6.2188,48.5627
12:52:24.543,3.75,61.5627
12:52:24.554,8,70.0628
12:52:24.569,7.5,72.9378
12:52:24.579,4.4375,75.3753
12:52:24.590,-2.3438,72.3753
12:52:24.599,-9.375,66.9378
12:52:24.609,-16.0938,61.3127
12:52:24.618,-19.3126,59.3752
12:52:24.635,-18.7501,58.0002
12:52:24.639,19.5626,80.5628
12:52:24.648,31.0939,85.6878
12:52:24.659,41.5314,89.9378
12:52:24.669,51.0627,93.1879
12:52:24.679,56.4065,93.3129
12:52:24.688,62.1565,92.6254
12:52:24.700,66.0003,89.3753
12:52:24.709,65.5315,83.4378
12:52:24.718,72.3753,81.5628
12:52:24.729,79.4378,78.3753
12:52:24.738,77.0003,69.0628
12:52:24.750,75.4378,61.6877
12:52:24.758,85.5316,63.2502
12:52:24.769,99.2504,67.1878
12:52:24.781,106.5942,69.4378
12:52:24.789,110.0942,67.7503
12:52:24.799,116.5942,70.6253
12:52:24.809,125.063,76.3753
12:52:24.819,134.063,85.3128
12:52:24.829,143.7505,100.1254
12:52:24.839,157.9694,123.0005
12:52:24.849,171.8757,147.1256
12:52:24.859,182.4695,171.1881
12:52:24.869,189.282,191.5007
12:52:24.879,197.6258,213.2508
12:52:24.889,205.3758,231.8134
12:52:24.899,208.8758,244.6259
12:52:24.910,210.5633,253.501
12:52:24.919,210.2508,257.9385
12:52:24.928,210.0008,259.8135
12:52:24.939,208.4383,259.5635
12:52:24.949,206.407,255.126
12:52:24.959,200.157,246.8759
12:52:24.969,192.157,235.6884
12:52:24.979,183.0945,223.6884
12:52:24.989,165.8131,204.3133
12:52:24.999,145.5318,183.0632
12:52:25.008,125.9692,161.3131
12:52:25.033,106.8754,138.688
12:52:25.036,88.7816,118.938
12:52:25.040,66.5315,96.6254
12:52:25.063,42.0627,71.6253
12:52:25.066,18.3751,49.4377
12:52:25.093,-1.8125,29.8751
12:52:25.095,-17.8751,12.9375
12:52:25.097,-32.3751,-1.5
12:52:25.102,-47.0002,-14.8126
12:52:25.135,-54.594,-22.1251
12:52:25.137,-57.0002,-23.8751
12:52:25.140,-54.344,-23.3751
12:52:25.142,-50.9064,-19.3751
12:52:25.149,-47.0002,-15.1251
12:52:25.181,-43.9689,-10.5625
12:52:25.183,-43.9689,-9
12:52:25.187,-50.6564,-11.8125
12:52:25.192,-60.469,-18.1876
12:52:25.204,-70.1878,-25.0626
12:52:25.209,-78.2503,-31.9376
12:52:25.219,-83.1253,-36.3126
12:52:25.229,-86.7816,-40.1877
12:52:25.239,-87.8753,-43.5627
12:52:25.249,-89.3753,-46.6877
12:52:25.258,-89.6253,-49.8127
12:52:25.269,-89.8441,-53.4377
12:52:25.279,-88.7503,-53.5627
12:52:25.289,-87.7816,-56.5002
12:52:25.299,-87.8441,-58.3752
12:52:25.309,-87.6566,-62.1252
12:52:25.321,-86.3128,-64.0002
12:52:25.329,-84.1253,-68.0003
12:52:25.344,-78.5628,-68.3128
12:52:25.354,-72.1878,-70.2503
12:52:25.358,-64.3752,-70.5003
12:52:25.376,-57.5627,-69.4378
12:52:25.378,-49.5627,-70.2503
12:52:25.395,-37.0626,-63.0627
12:52:25.399,-15.5313,-47.6252
12:52:25.410,5.4063,-25.1251
12:52:25.420,26.6876,1.25
12:52:25.429,46.4064,32.0001
12:52:25.439,65.3127,62.1877
12:52:25.449,87.3128,96.7504
12:52:25.458,102.4379,123.1255
12:52:25.469,106.8129,141.188
12:52:25.479,127.8442,166.2506
12:52:25.489,149.5943,191.4382
12:52:25.498,171.1257,213.0008
12:52:25.509,186.8445,227.2509
12:52:25.519,192.8132,233.0009
12:52:25.528,200.3133,235.5634
12:52:25.538,205.5633,236.6259
12:52:25.551,201.7508,228.8134
12:52:25.559,198.0945,220.0634
12:52:25.569,199.6258,214.6258
12:52:25.579,199.9695,207.9383
12:52:25.588,198.407,199.0008
12:52:25.601,195.407,187.5632
12:52:25.609,192.407,176.4382
12:52:25.618,188.5632,163.5006
12:52:25.629,183.7507,151.6881
12:52:25.639,178.7507,139.563
12:52:25.649,175.5632,131.0005
12:52:25.659,172.2819,123.7505
12:52:25.670,167.3131,116.5004
