timestamp,Red,IR
12:36:48.029,-1.125,-14.0626
12:36:48.039,-0.25,-12.1875
12:36:48.048,0.875,-9.5625
12:36:48.058,3.4375,-5.375
12:36:48.067,4.9375,1.5
12:36:48.078,8.5,9.1875
12:36:48.087,11.3125,14.5626
12:36:48.099,11.8125,19.5626
12:36:48.109,13.3751,23.1251
12:36:48.118,14.8126,23.4376
12:36:48.128,13.3126,23.5626
12:36:48.139,12.875,24.3126
12:36:48.149,13.1876,22.2501
12:36:48.158,13.125,20.8751
12:36:48.169,11.9375,20.1251
12:36:48.177,12.5625,19.3126
12:36:48.187,11.5,19.4376
12:36:48.199,11.4375,18.8751
12:36:48.209,11.3125,18.4376
12:36:48.217,11.8125,17.9376
12:36:48.227,11.3125,16.8751
12:36:48.240,10.625,17.8126
12:36:48.249,10.5625,16.0001
12:36:48.257,9.875,13.6251
12:36:48.267,10.1875,13.1876
12:36:48.279,10.1875,12.125
12:36:48.290,9.3125,10.9375
12:36:48.299,8.9375,11.625
12:36:48.309,9.0625,10.625
12:36:48.319,9.0625,10.4375
12:36:48.327,9.5,11.25
12:36:48.339,9.8125,11.1875
12:36:48.349,9.0625,10.5625
12:36:48.357,8.5625,10.25
12:36:48.369,9,10.25
12:36:48.379,8.75,8.4375
12:36:48.387,8.125,7.3125
12:36:48.399,7.6875,5.9375
12:36:48.409,7,6
12:36:48.417,7.5625,4.5
12:36:48.427,6,3.3125
12:36:48.439,4.75,2.6875
12:36:48.447,5.8125,0.75
12:36:48.459,5,-0.5625
12:36:48.469,4.75,-1.75
12:36:48.478,4.1875,-2.9375
12:36:48.506,4.125,-4.0625
12:36:48.512,3.4375,-3.1875
12:36:48.516,3.6875,-5
12:36:48.519,2.875,-6.125
12:36:48.536,2.9375,-5.6875
12:36:48.542,3.1875,-6.5625
12:36:48.549,2.4375,-7.6875
12:36:48.577,2.25,-6.75
12:36:48.580,2.1875,-7.8125
12:36:48.584,1.5625,-9.1875
12:36:48.588,1.5,-10.0625
12:36:48.601,0.8125,-9.0625
12:36:48.614,1.625,-10.375
12:36:48.620,1,-9.6875
12:36:48.649,1,-10.375
12:36:48.651,0.25,-12.125
12:36:48.654,0.75,-11.75
12:36:48.660,1,-12.625
12:36:48.686,0.25,-13.3126
12:36:48.688,0,-12.625
12:36:48.690,0.0625,-13.8751
12:36:48.724,-0.1875,-13.6251
12:36:48.725,-0.75,-14.5626
12:36:48.729,-0.5,-15.3751
12:36:48.735,-0.75,-13.7501
12:36:48.747,-0.5,-13.6251
12:36:48.750,-0.25,-13.8126
12:36:48.759,-0.375,-14.6251
12:36:48.769,-0.5625,-14.4376
12:36:48.779,-1,-13.6876
12:36:48.789,-1,-15.3751
12:36:48.798,-1.0625,-16.1876
12:36:48.810,-0.75,-15.5626
12:36:48.818,-1.0625,-15.8126
12:36:48.830,-1.25,-15.1251
12:36:48.839,-0.25,-14.8751
12:36:48.849,-1.25,-16.3751
12:36:48.858,-1.5625,-14.2501
12:36:48.890,-1.125,-14.4376
12:36:48.893,-0.6875,-15.0626
12:36:48.895,0.6875,-11.3125
12:36:48.898,2.8125,-7.375
12:36:48.909,5.25,-1.0625
12:36:48.919,8.1875,6.6875
12:36:48.929,10.6875,14.0626
12:36:48.939,14.1251,19.1876
12:36:48.949,14.5001,22.5626
12:36:48.959,16.1876,24.5001
12:36:48.975,15.5001,24.5001
12:36:48.979,15.6876,24.5626
12:36:48.989,15.3751,24.0626
12:36:48.999,15.3751,22.9376
12:36:49.009,14.8126,22.3126
12:36:49.019,14.5001,21.6251
12:36:49.029,13.9376,20.6876
12:36:49.039,14.1251,20.6251
12:36:49.049,13.7501,20.9376
12:36:49.059,14.4376,21.3126
12:36:49.070,14.0001,21.1876
12:36:49.079,14.4376,21.0001
12:36:49.090,14.0626,20.4376
12:36:49.099,13.4376,18.1876
12:36:49.109,12.5625,17.5001
12:36:49.119,11.5625,16.6876
12:36:49.129,12.125,15.5001
12:36:49.140,11.375,14.1251
12:36:49.149,10.8125,14.1876
12:36:49.159,11.625,13.125
12:36:49.170,10.75,11.375
12:36:49.179,10.0625,13
12:36:49.189,10.4375,11.5
12:36:49.199,10.25,11.3125
12:36:49.209,10,11.75
12:36:49.219,10.25,11.375
12:36:49.229,9.5625,9.8125
12:36:49.240,9.1875,9.375
12:36:49.249,8.6875,9.625
12:36:49.259,8.8125,7.5625
12:36:49.270,7.8125,7.125
12:36:49.279,7.5,6.1875
12:36:49.289,6.875,4.3125
12:36:49.299,6.25,3.1875
12:36:49.309,6.25,2.0625
12:36:49.319,5.625,1.9375
12:36:49.329,5.25,0.5625
12:36:49.339,5,-0.75
12:36:49.355,3.75,-1
12:36:49.359,4.5625,-1.625
12:36:49.369,3.4375,-3.0625
12:36:49.379,3.375,-3.5625
12:36:49.389,3.0625,-4
12:36:49.399,2.6875,-5.125
12:36:49.409,2.3125,-5.875
12:36:49.419,2,-6.25
12:36:49.429,2.25,-7.1875
12:36:49.439,1.6875,-8.75
12:36:49.449,1.0625,-8
12:36:49.459,1.1875,-8.8125
12:36:49.469,0.625,-10.1875
12:36:49.481,0.1875,-9.875
12:36:49.489,0.4375,-10.5625
12:36:49.499,0.0625,-11.4375
12:36:49.509,-0.125,-10.75
12:36:49.519,-0.625,-11.4375
12:36:49.529,-0.25,-12.5625
12:36:49.539,-1.1875,-13
12:36:49.550,-0.8125,-12.5
12:36:49.559,-1,-13.8126
12:36:49.569,-0.6875,-13.9376
12:36:49.579,-1.8125,-14.2501
12:36:49.589,-1.1875,-14.6876
12:36:49.599,-0.875,-14.1251
12:36:49.609,-1.6875,-15.1876
12:36:49.619,-2.125,-13.8751
12:36:49.629,-1.875,-15.6876
12:36:49.639,-1.875,-15.8126
12:36:49.649,-2.4375,-15.0626
12:36:49.659,-1.6875,-15.5001
12:36:49.669,-1.9375,-16.1876
12:36:49.680,-2.875,-14.9376
12:36:49.689,-2.25,-15.2501
12:36:49.699,-2.3125,-16.2501
12:36:49.709,-2.25,-15.1251
12:36:49.720,-2.1875,-16.0001
12:36:49.729,-2.25,-15.6876
12:36:49.739,-2.1875,-16.1876
12:36:49.750,-2.125,-15.4376
12:36:49.761,-1.875,-15.1876
12:36:49.769,-2.1875,-15.0626
12:36:49.779,-1.1875,-13.3126
12:36:49.789,-0.8125,-11.4375
12:36:49.799,0.8125,-7.1875
12:36:49.810,3.75,-1.75
12:36:49.820,6.4375,5.5625
12:36:49.829,9.5625,13.6876
12:36:49.838,11.75,19.0626
12:36:49.869,12.875,22.1876
12:36:49.875,13.8126,24.6251
12:36:49.877,13.4376,24.3751
12:36:49.893,14.0626,23.8126
12:36:49.894,13.125,22.2501
12:36:49.910,12.875,21.1251
12:36:49.925,12,20.6876
12:36:49.940,12,19.8751
12:36:49.942,11.9375,18.5626
12:36:49.946,11.3125,19.5626
12:36:49.950,11.8125,18.4376
12:36:49.959,12,18.6251
12:36:49.969,11.875,19.7501
12:36:49.978,12.625,19.3126
12:36:50.013,12.1875,17.1251
12:36:50.015,10.875,15.5001
12:36:50.018,10.1875,15.6876
12:36:50.020,9.4375,14.8126
12:36:50.049,9.25,13.8126
12:36:50.052,8.8125,12.8125
12:36:50.054,9.0625,12
12:36:50.060,9.75,11.5625
12:36:50.089,9.1875,10.5625
12:36:50.092,8.6875,10.0625
12:36:50.094,8.3125,11.3125
12:36:50.120,8,11.3125
12:36:50.123,8.625,11.4375
12:36:50.125,7.75,10.5
12:36:50.131,7.5625,9.875
12:36:50.140,7,8.625
12:36:50.149,6.6875,7.875
12:36:50.159,6.125,6
12:36:50.169,5.9375,5.75
12:36:50.179,5.5625,6.3125
12:36:50.189,5.3125,3.25
12:36:50.199,4.25,2.25
12:36:50.209,4.125,0.8125
12:36:50.220,3.6875,1.5625
12:36:50.229,3.8125,-0.1875
12:36:50.239,3.3125,-1.1875
12:36:50.249,2.75,-2.875
12:36:50.260,2.1875,-2.75
12:36:50.269,2.375,-3.1875
12:36:50.279,2.5,-4.375
12:36:50.289,1.5,-4.9375
12:36:50.299,0.4375,-4.8125
12:36:50.309,0.625,-7.25
12:36:50.319,0.75,-8
12:36:50.329,0.4375,-8.3125
12:36:50.339,-0.125,-7.8125
12:36:50.349,0.25,-8.5625
12:36:50.364,-0.0625,-9.25
12:36:50.374,-0.0625,-10.375
12:36:50.384,-0.75,-10.5
12:36:50.394,-0.5,-10.125
12:36:50.404,-0.5625,-11
12:36:50.414,-1.3125,-11.25
12:36:50.424,-0.75,-11.125
12:36:50.435,-1.1875,-12.625
12:36:50.445,-1.6875,-11.4375
12:36:50.454,-2,-12.1875
12:36:50.464,-2.0625,-13.6251
12:36:50.474,-1.1875,-13.3751
12:36:50.484,0.1875,-13.5001
12:36:50.494,-0.6875,-14.3126
12:36:50.504,-1.0625,-14.3751
12:36:50.515,-0.75,-13.3751
12:36:50.524,-1.375,-14.5626
12:36:50.534,-0.9375,-15.2501
12:36:50.544,-0.5,-14.3751
12:36:50.554,-1.3125,-14.6251
12:36:50.565,-0.875,-15.0626
12:36:50.574,-1.5625,-14.5001
12:36:50.584,-0.625,-14.6876
12:36:50.594,-1.1875,-14.2501
12:36:50.604,-0.3125,-14.1251
12:36:50.614,-0.4375,-12.8125
12:36:50.624,0.75,-9.8125
12:36:50.634,2.75,-6.9375
12:36:50.644,4.6875,0.125
12:36:50.654,8.125,7.9375
12:36:50.665,10.375,13.5001
12:36:50.674,12.375,18.0001
12:36:50.685,13.0625,19.8751
12:36:50.694,12.625,21.9376
12:36:50.704,12.5625,21.0001
12:36:50.715,12.8125,19.8751
12:36:50.724,12.0625,19.9376
12:36:50.734,12.125,17.8751
12:36:50.744,11.125,18.5626
12:36:50.754,11.125,17.0626
12:36:50.764,11.1875,16.8751
12:36:50.775,10.875,16.4376
12:36:50.784,11.0625,15.7501
12:36:50.794,10.5,16.6251
12:36:50.804,11.5625,15.8126
12:36:50.814,10.625,15.0001
12:36:50.825,9.375,14.6876
12:36:50.835,9.5,12.6875
12:36:50.845,9.125,11.25
12:36:50.854,8.875,10.5
12:36:50.864,7.9375,11.1875
12:36:50.874,8.125,9.6875
12:36:50.891,7.5625,7.9375
12:36:50.895,7.75,8.75
12:36:50.911,8.0625,8.875
12:36:50.917,7.5,7.9375
12:36:50.924,6.9375,9.0625
12:36:50.934,7.3125,8.25
12:36:50.944,6.875,7.0625
12:36:50.954,6.5,7.5
12:36:50.965,6.5,6.375
12:36:50.976,5.875,4.6875
12:36:50.985,5.375,3.5625
12:36:50.993,5.375,3.6875
12:36:51.004,4.8125,1.5
12:36:51.014,4.4375,1.5
12:36:51.025,4.75,0.3125
12:36:51.034,3.8125,-1.5625
12:36:51.044,3.0625,-1.25
12:36:51.054,2.3125,-2.8125
12:36:51.064,2.375,-5
12:36:51.074,1.6875,-5.5
12:36:51.084,0.9375,-5.125
12:36:51.094,1.1875,-6.375
12:36:51.105,0.9375,-7.75
12:36:51.114,0.875,-7
12:36:51.124,0.4375,-8.6875
12:36:51.134,-0.3125,-9.875
12:36:51.144,-0.125,-9.6875
12:36:51.154,-0.25,-10.75
12:36:51.165,-1,-10.125
12:36:51.174,-0.5625,-10.625
12:36:51.209,-1,-11
12:36:51.216,-1.5625,-11.875
12:36:51.220,-1.5625,-11.8125
12:36:51.232,-1.0625,-12.8125
12:36:51.248,-1.5,-12.1875
12:36:51.249,-0.9375,-13.4376
12:36:51.250,-2.1875,-14.0626
12:36:51.281,-1.9375,-13.9376
12:36:51.282,-1.6875,-14.4376
12:36:51.285,-2.3125,-15.1876
12:36:51.291,-1.4375,-14.1876
12:36:51.299,-1.9375,-15.1876
12:36:51.309,-2.125,-13.8751
12:36:51.319,-2.0625,-14.6876
12:36:51.329,-2.3125,-14.3751
12:36:51.340,-1.8125,-15.6876
12:36:51.349,-2.25,-15.1251
12:36:51.359,-1.8125,-14.1876
12:36:51.386,-1.625,-15.6876
12:36:51.388,-2.25,-15.2501
12:36:51.394,-1.9375,-15.1876
12:36:51.400,-2.375,-15.8126
12:36:51.430,-2.5,-15.7501
12:36:51.433,-2.3125,-15.3751
12:36:51.434,-1.875,-15.6876
12:36:51.439,-1.5625,-15.8126
12:36:51.478,-1.4375,-14.6251
12:36:51.480,-0.375,-12
12:36:51.481,1.25,-8.3125
12:36:51.489,4,-2.25
12:36:51.495,6.375,4.25
12:36:51.526,10.3125,12.6875
12:36:51.530,11.625,16.3126
12:36:51.536,13.3751,20.5001
12:36:51.536,13.5626,21.8126
12:36:51.549,14.3126,22.1251
12:36:51.556,14.0626,22.1876
12:36:51.565,13.4376,21.0626
12:36:51.574,12.75,19.4376
12:36:51.583,12.4375,19.2501
12:36:51.595,12.625,18.6251
12:36:51.606,12,17.8126
12:36:51.615,12.4375,18.0626
12:36:51.626,12,18.8126
12:36:51.634,11.1875,18.3126
12:36:51.648,11.75,17.6251
12:36:51.656,12.0625,17.6876
12:36:51.665,12.4375,16.5001
12:36:51.674,10.625,15.5001
12:36:51.684,10.1875,15.4376
12:36:51.694,9.8125,14.3751
12:36:51.704,9.4375,12.375
12:36:51.714,9.0625,13.6251
12:36:51.724,9.1875,12.0625
12:36:51.735,9.25,11.6875
12:36:51.745,8.4375,11.0625
12:36:51.754,8.25,11.875
12:36:51.764,8.5,11.1875
12:36:51.775,8.25,10.125
12:36:51.786,8.25,11
12:36:51.794,7.9375,10.0625
12:36:51.805,7.9375,8.75
12:36:51.815,7.4375,7.5
12:36:51.824,6.9375,7.625
12:36:51.836,6.375,5.75
12:36:51.845,6,4.625
12:36:51.855,5.3125,2.375
12:36:51.865,4.375,2.4375
12:36:51.875,4.625,0.625
12:36:51.885,3.75,-0.5625
12:36:51.894,3.3125,-0.5
12:36:51.905,2.9375,-1.5625
12:36:51.915,2.625,-3.4375
12:36:51.924,3,-3.8125
12:36:51.933,2.125,-3.5625
12:36:51.945,2.5625,-3.875
12:36:51.954,1.9375,-5.625
12:36:51.965,1.25,-5.6875
12:36:51.976,1.8125,-6.0625
12:36:51.986,1.4375,-7.4375
12:36:51.996,0.625,-7.1875
12:36:52.004,1.0625,-7.375
12:36:52.015,0.9375,-8.25
12:36:52.024,0.375,-9.5
12:36:52.035,0,-9.8125
12:36:52.045,-0.125,-9.375
12:36:52.055,0.125,-10.25
12:36:52.065,-0.5625,-10.875
12:36:52.075,-1.125,-10.625
12:36:52.085,-0.4375,-11.1875
12:36:52.094,-1.125,-12.25
12:36:52.105,-1.8125,-11.9375
12:36:52.114,-1.125,-11.5625
12:36:52.124,-1.9375,-11.9375
12:36:52.135,-1.5625,-12.875
12:36:52.144,-1.125,-14.1876
12:36:52.155,-2.0625,-12.1875
12:36:52.165,-1.5625,-13.9376
12:36:52.176,-2.25,-12.5
12:36:52.184,-2.0625,-13.8126
12:36:52.196,-2.0625,-14.9376
12:36:52.204,-2.4375,-13.9376
12:36:52.215,-2.25,-14.6876
12:36:52.226,-2.5625,-14.5626
12:36:52.235,-1.6875,-14.5001
12:36:52.245,-1.5,-14.3751
12:36:52.257,-1.3125,-13.6251
12:36:52.265,-0.8125,-11.4375
12:36:52.276,0.875,-8.6875
12:36:52.285,2.625,-4.9375
12:36:52.295,4.75,3.5625
12:36:52.305,8.375,9.5
12:36:52.315,9.8125,15.3751
12:36:52.326,11.625,17.6876
12:36:52.337,11.625,20.1876
12:36:52.345,12.4375,19.5626
12:36:52.355,12.375,20.6876
12:36:52.365,12.375,17.8751
12:36:52.376,11.5625,18.3751
12:36:52.385,11.1875,16.5626
12:36:52.397,11.0625,14.6251
12:36:52.405,11,14.0626
12:36:52.415,10.9375,14.0001
12:36:52.425,10.3125,13.7501
12:36:52.435,10.3125,13.3751
12:36:52.445,10.8125,13
12:36:52.455,10.3125,13.5001
12:36:52.465,10.25,11.75
12:36:52.485,9.3125,9.9375
12:36:52.492,9.0625,8
12:36:52.507,8.25,7.75
12:36:52.509,8.625,7.25
12:36:52.515,8.5625,7.0625
12:36:52.525,8.4375,6.125
12:36:52.535,7.625,6.375
12:36:52.550,8.3125,6.8125
12:36:52.565,7.8125,6.25
12:36:52.567,7.875,6.6875
12:36:52.575,9.125,6.25
12:36:52.585,7.9375,5.5625
12:36:52.595,7,5.875
12:36:52.606,7.375,4.25
12:36:52.615,6.9375,2.6875
12:36:52.625,6.1875,2.4375
12:36:52.635,5.25,1.3125
12:36:52.665,5.1875,-0.75
12:36:52.667,5.125,-1.8125
12:36:52.669,4.5625,-2.875
12:36:52.678,3.875,-4.25
12:36:52.685,3.0625,-4.3125
12:36:52.695,3.9375,-5.3125
12:36:52.705,3.0625,-6.0625
12:36:52.715,2.375,-7.6875
12:36:52.725,2,-8
12:36:52.735,1.6875,-6.875
12:36:52.745,1.6875,-7.5625
12:36:52.755,2,-9.1875
12:36:52.765,1.8125,-9.375
12:36:52.775,0.5,-11.1875
12:36:52.785,0.9375,-9.875
12:36:52.795,0.5,-10.75
12:36:52.805,0.125,-11.375
12:36:52.815,0.3125,-11.0625
12:36:52.825,-0.5,-12.3125
12:36:52.851,-0.3125,-12.1875
12:36:52.854,0.375,-11.25
12:36:52.856,0.5,-12.375
12:36:52.890,-0.1875,-12.375
12:36:52.893,-0.4375,-13
12:36:52.895,-0.6875,-13.0625
12:36:52.897,-0.3125,-13.6251
12:36:52.928,-0.625,-13.9376
12:36:52.930,-0.75,-13
12:36:52.935,-0.8125,-13.5626
12:36:52.959,-1.1875,-14.5626
12:36:52.960,-1.4375,-14.1251
12:36:52.963,-1.0625,-14.3751
12:36:52.970,-0.9375,-14.7501
12:36:52.975,-1.25,-13.8126
12:36:52.985,-1.1875,-15.4376
12:36:52.997,-1.625,-16.2501
12:36:53.005,-1.375,-14.7501
12:36:53.015,-1.25,-14.8751
12:36:53.026,-2,-14.6876
12:36:53.035,-1.125,-15.5001
12:36:53.045,-2.5625,-16.0001
12:36:53.055,-1.8125,-14.8126
12:36:53.065,-1.9375,-15.4376
12:36:53.075,-1.875,-13.6876
12:36:53.085,-0.9375,-13.9376
12:36:53.095,0,-11.25
12:36:53.106,1.5,-6.6875
12:36:53.115,4.25,0.9375
12:36:53.125,7.875,8.5
12:36:53.135,10.125,15.0001
12:36:53.145,12.6875,20.5001
12:36:53.156,13.3751,21.5626
12:36:53.165,14.3126,24.3751
12:36:53.175,14.1876,24.1876
12:36:53.185,13.6876,23.6251
12:36:53.195,13.8751,23.1876
12:36:53.206,12.4375,21.5626
12:36:53.216,12.375,21.8126
12:36:53.227,12.75,20.2501
12:36:53.235,12.3125,21.5626
12:36:53.245,11.8125,20.0626
12:36:53.255,12.0625,19.8751
12:36:53.265,12.375,20.5001
12:36:53.275,12.25,20.5001
12:36:53.286,11.8125,19.3126
12:36:53.295,11.375,18.6251
12:36:53.305,11.125,17.7501
12:36:53.315,10.625,16.6876
12:36:53.325,10,15.0001
12:36:53.335,9,13.5626
12:36:53.346,9.3125,14.0626
12:36:53.356,8.5625,11.625
12:36:53.365,8.125,11.8125
12:36:53.375,7.8125,11.9375
12:36:53.386,8.5,11.125
12:36:53.395,8.375,9.4375
12:36:53.405,8.3125,11.25
12:36:53.415,8.3125,10
12:36:53.425,8.125,8.8125
12:36:53.435,8.6875,9.375
12:36:53.446,7.625,9.8125
12:36:53.455,8.625,8.875
12:36:53.465,7.4375,7.125
12:36:53.475,6.625,5.5
12:36:53.485,6.0625,5.1875
12:36:53.495,5.1875,4.375
12:36:53.506,5.25,2.75
12:36:53.515,4.6875,1.25
12:36:53.526,3.75,0.3125
12:36:53.535,3.875,-0.75
12:36:53.546,3.5625,-1.6875
12:36:53.555,2.875,-2.375
12:36:53.565,2.25,-3
12:36:53.575,2.125,-3.125
12:36:53.585,2.5,-4
12:36:53.595,1.9375,-5.3125
12:36:53.605,1.6875,-4.625
12:36:53.615,1.125,-5.125
12:36:53.625,1.5,-6.3125
12:36:53.636,0.6875,-7.625
12:36:53.645,0.5625,-7.5
12:36:53.655,1,-7.5625
12:36:53.665,0.125,-9.4375
12:36:53.675,-0.25,-9.125
12:36:53.685,0.3125,-9.5625
12:36:53.695,-0.625,-10.8125
12:36:53.706,-0.9375,-10.6875
12:36:53.715,-1.125,-10.6875
12:36:53.726,-0.875,-11.5625
12:36:53.735,-1.4375,-12.0625
12:36:53.746,-1.3125,-11
12:36:53.756,-1.8125,-11.9375
12:36:53.765,-2.375,-11.75
12:36:53.787,-2.6875,-13.0625
12:36:53.789,-2.75,-13.8751
12:36:53.804,-3.3125,-12.625
12:36:53.809,-2.75,-14.3751
12:36:53.815,-3.3125,-14.8751
12:36:53.825,-3,-14.5001
12:36:53.845,-2.6875,-14.7501
12:36:53.848,-3.1875,-15.0626
12:36:53.862,-2.375,-14.5001
12:36:53.866,-2.6875,-16.0626
12:36:53.875,-3.25,-14.8126
12:36:53.885,-3.1875,-16.0001
12:36:53.899,-3.1875,-14.1876
12:36:53.905,-2.6875,-15.6876
12:36:53.915,-3.5,-14.7501
12:36:53.944,-3.25,-15.4376
12:36:53.946,-3.25,-15.1876
12:36:53.949,-2.4375,-15.0626
12:36:53.956,-2,-14.2501
12:36:53.965,-0.8125,-11.5625
12:36:53.975,0.9375,-6.375
12:36:53.985,3.875,0.875
12:36:53.995,7.0625,8.0625
12:36:54.006,9,13.0625
12:36:54.015,10.3125,17.1876
12:36:54.026,11.375,19.9376
12:36:54.035,11.25,19.1876
12:36:54.045,11.6875,19.9376
12:36:54.055,11,18.5626
12:36:54.066,11,17.9376
12:36:54.075,10.3125,17.0001
12:36:54.086,10.1875,16.5626
12:36:54.095,10.375,16.0001
12:36:54.105,9.6875,16.0626
12:36:54.115,9.9375,16.1251
12:36:54.126,9.6875,16.3126
12:36:54.135,9.5,16.1251
12:36:54.145,9.625,15.7501
12:36:54.155,9.25,14.6876
12:36:54.165,8.75,14.5626
12:36:54.175,8.25,12.125
12:36:54.185,7.875,11.6875
12:36:54.195,7.0625,11.75
12:36:54.206,7.3125,9.6875
12:36:54.216,6.5625,9
12:36:54.246,6.5,9.625
12:36:54.249,6.6875,9.125
12:36:54.250,6.9375,9.375
12:36:54.258,6.5,7.875
12:36:54.293,6.5625,9.25
12:36:54.295,6.8125,8.125
12:36:54.296,5.9375,7.875
12:36:54.300,5.375,8.125
12:36:54.305,5.75,6.5
12:36:54.338,5.375,5.5625
12:36:54.340,4.625,4.875
12:36:54.343,5.4375,4.5
12:36:54.345,4.6875,2.875
12:36:54.369,3.5625,2.6875
12:36:54.370,3.0625,2
12:36:54.381,3.125,-0.0625
12:36:54.390,2.25,-0.5625
12:36:54.400,2.8125,-1.8125
12:36:54.410,2.1875,-2.75
12:36:54.420,1.1875,-3
12:36:54.430,1.5,-3.1875
12:36:54.441,1.5,-3.875
12:36:54.450,0.5,-4.5625
12:36:54.460,0.5625,-4.25
12:36:54.470,1.0625,-6.1875
12:36:54.481,0.0625,-5.25
12:36:54.491,0.1875,-6.25
12:36:54.500,0.875,-7.1875
12:36:54.510,0.0625,-8.9375
12:36:54.520,-0.375,-9.125
12:36:54.530,-0.875,-8.6875
12:36:54.540,0.0625,-8.25
12:36:54.550,-0.5,-10
12:36:54.560,-1.375,-9.6875
12:36:54.570,-1.1875,-10.8125
12:36:54.580,-1.4375,-9.8125
12:36:54.590,-1.5,-11.5
12:36:54.600,-1.9375,-11.0625
12:36:54.610,-1.5,-11.75
12:36:54.620,-1.5625,-12.25
12:36:54.630,-1.875,-12.625
12:36:54.640,-1.75,-12.875
12:36:54.650,-1.875,-12.8125
12:36:54.660,-2.0625,-13.7501
12:36:54.670,-1.75,-12.625
12:36:54.681,-1.375,-13.3126
12:36:54.690,-2.0625,-13.9376
12:36:54.700,-1.75,-14.2501
12:36:54.710,-2.125,-14.2501
12:36:54.720,-1.875,-14.8751
12:36:54.731,-2.3125,-14.5001
12:36:54.745,-2.3125,-15.1876
12:36:54.751,-1.9375,-15.2501
12:36:54.761,-1.125,-14.1876
12:36:54.770,-0.875,-12.5625
12:36:54.781,1.125,-9
12:36:54.790,3,-3.3125
12:36:54.800,5.375,3.875
12:36:54.810,8.0625,9.3125
12:36:54.820,10.3125,14.5001
12:36:54.830,11.625,17.3126
12:36:54.840,12.4375,19.3751
12:36:54.850,11.75,18.6251
12:36:54.861,11.875,18.6251
12:36:54.871,11.5625,16.5001
12:36:54.880,10.9375,16.5001
12:36:54.892,11.0625,16.0626
12:36:54.900,11,15.0626
12:36:54.910,10.5,14.3126
12:36:54.920,10.625,14.3126
12:36:54.930,10.25,13.8126
12:36:54.942,10.0625,15.0626
12:36:54.953,10.375,13.6876
12:36:54.961,10.1875,11.9375
12:36:54.970,9.5,11.8125
12:36:54.981,9.3125,11.8125
12:36:54.990,9.0625,10
12:36:55.000,8.5625,8.4375
12:36:55.010,8.1875,9.0625
12:36:55.020,8,8.6875
12:36:55.030,8.9375,7.8125
12:36:55.040,7.8125,8.3125
12:36:55.050,8,7.8125
12:36:55.061,7.6875,6.6875
12:36:55.070,7.125,8.1875
12:36:55.086,7.5625,8.125
12:36:55.100,7.6875,8.375
12:36:55.104,7.25,7.375
12:36:55.111,7.0625,7.75
12:36:55.121,6.9375,6.25
12:36:55.141,5.8125,5.375
12:36:55.147,5.3125,5.9375
12:36:55.159,5.1875,3.0625
12:36:55.162,4.1875,2.375
12:36:55.171,4.4375,1.75
12:36:55.180,3.75,-0.5625
12:36:55.191,3.4375,-0.1875
12:36:55.200,3.5625,-1.0625
12:36:55.227,2.8125,-2.125
12:36:55.229,2.1875,-2.1875
12:36:55.232,2.375,-4.25
12:36:55.241,1.3125,-4.625
12:36:55.250,1,-4.875
12:36:55.261,0.9375,-5.3125
12:36:55.271,0.4375,-5.1875
12:36:55.280,0.8125,-6.5
12:36:55.290,0.75,-7.8125
12:36:55.300,0.1875,-8
12:36:55.310,-0.125,-8.1875
12:36:55.321,-0.25,-8.6875
12:36:55.330,-0.0625,-9.125
12:36:55.345,-0.5625,-10.125
12:36:55.350,-0.8125,-9.8125
12:36:55.362,-1.0625,-11.1875
12:36:55.371,-1.5,-10.9375
12:36:55.380,-1.1875,-11.25
12:36:55.394,-1.0625,-12.1875
12:36:55.401,-1.5625,-11.6875
12:36:55.411,-1.75,-12.25
12:36:55.420,-2.1875,-12.9375
12:36:55.431,-2.0625,-13.5626
12:36:55.440,-2.0625,-14.5001
12:36:55.451,-2.375,-13.8751
12:36:55.462,-2.125,-13.7501
12:36:55.471,-2.6875,-14.1251
12:36:55.481,-2.875,-13.7501
12:36:55.496,-1.9375,-14.4376
12:36:55.501,-2.25,-14.1876
12:36:55.511,-1.9375,-15.3126
12:36:55.521,-2.25,-14.3751
12:36:55.531,-1.6875,-15.1876
12:36:55.540,-2.375,-16.0001
12:36:55.551,-2.75,-14.8751
12:36:55.560,-2.6875,-16.0626
12:36:55.571,-2.75,-15.7501
12:36:55.581,-3,-16.7501
12:36:55.591,-2.75,-15.2501
12:36:55.600,-3.375,-16.3126
12:36:55.611,-2.9375,-15.4376
12:36:55.620,-3.5,-16.5626
12:36:55.630,-2.9375,-15.5001
12:36:55.643,-2.8125,-16.2501
12:36:55.652,-1.6875,-13.5626
12:36:55.662,-0.875,-12.8125
12:36:55.671,1.3125,-6.125
12:36:55.682,4.25,0.125
12:36:55.691,7.5,8.9375
12:36:55.702,10.0625,15.0001
12:36:55.724,12.3125,20.4376
12:36:55.726,12.5,21.3751
12:36:55.759,12.9375,21.8751
12:36:55.762,12.375,22.2501
12:36:55.765,12.9375,23.0626
12:36:55.767,11.6875,20.5001
12:36:55.771,11.375,19.8751
12:36:55.802,11.6875,19.1876
12:36:55.804,11.375,19.1876
12:36:55.806,11.1875,19.0001
12:36:55.812,11.5,18.2501
12:36:55.822,11.5,18.6251
12:36:55.845,11.5,18.4376
12:36:55.847,11.6875,19.3751
12:36:55.852,11.4375,19.5626
12:36:55.862,11.875,18.4376
12:36:55.872,11.375,16.3751
12:36:55.881,10.625,14.5001
12:36:55.890,9.9375,14.2501
12:36:55.901,9.6875,14.7501
12:36:55.911,9.5625,12.8125
12:36:55.920,9.1875,11.75
12:36:55.930,8.8125,10.8125
12:36:55.941,8.625,11.5
12:36:55.951,8.875,10.5
12:36:55.962,9.0625,10.25
12:36:55.971,8.875,10.625
12:36:55.980,9.125,11
12:36:55.990,8.4375,9.625
12:36:56.001,7.6875,10.1875
12:36:56.012,8.0625,8.875
12:36:56.022,7.5625,6.875
12:36:56.031,6.9375,7.5
12:36:56.042,6.5625,6.625
12:36:56.050,7.0625,5.3125
12:36:56.062,6.625,3.9375
12:36:56.071,5.75,3.375
12:36:56.082,6.25,2.25
12:36:56.091,5.1875,1.0625
12:36:56.101,4.5,0.375
12:36:56.112,4.75,-0.375
12:36:56.121,4,-1.375
12:36:56.131,3.75,-1.375
12:36:56.140,3.8125,-1.9375
12:36:56.151,3.75,-2.125
12:36:56.161,3.375,-4.0625
12:36:56.171,2.875,-2.875
12:36:56.181,2.25,-4.5625
12:36:56.191,2,-4.3125
12:36:56.201,2.1875,-5
12:36:56.212,2.5,-5.5
12:36:56.222,1.625,-7.625
12:36:56.231,1.1875,-7.0625
12:36:56.247,1.75,-7.25
12:36:56.251,1.25,-8.4375
12:36:56.261,1.3125,-9.625
12:36:56.272,1,-8.875
12:36:56.281,0.5625,-9.6875
12:36:56.291,0.3125,-9.9375
12:36:56.301,0.5625,-10.0625
12:36:56.311,0.4375,-11.0625
12:36:56.322,0,-11.3125
12:36:56.331,-0.625,-11.875
12:36:56.341,-0.75,-12.8125
12:36:56.351,-0.6875,-12.375
12:36:56.361,-0.6875,-12.9375
12:36:56.371,-1.125,-13.3126
12:36:56.386,-1.1875,-12.75
12:36:56.403,-1.4375,-13.3751
12:36:56.406,-1.5625,-12.25
12:36:56.411,-1.875,-14.2501
12:36:56.421,-1.8125,-14.7501
12:36:56.438,-1.5,-14.0001
12:36:56.454,-1.875,-14.8126
12:36:56.458,-2,-15.0626
12:36:56.461,-2.125,-13.9376
12:36:56.472,-1.625,-15.5626
12:36:56.504,-2,-15.2501
12:36:56.507,-2.25,-15.5001
12:36:56.509,-2.3125,-16.5001
12:36:56.512,-1.9375,-15.5001
12:36:56.522,-2.0625,-15.7501
12:36:56.531,-0.125,-12.3125
12:36:56.542,0.25,-10.875
12:36:56.552,2.625,-4.875
12:36:56.563,6.75,2.6875
12:36:56.571,8.375,8.625
12:36:56.582,10.1875,13.2501
12:36:56.591,10.5,15.9376
12:36:56.602,11.8125,17.1251
12:36:56.611,11.5625,16.8751
12:36:56.621,11.125,17.2501
12:36:56.631,11.25,15.3126
12:36:56.642,10.125,15.8126
12:36:56.651,10.3125,14.1251
12:36:56.661,10.3125,12.5
12:36:56.671,9.5625,13.6876
12:36:56.681,9.875,12.4375
12:36:56.691,9.875,12.8125
12:36:56.701,9.8125,12.75
12:36:56.712,9.625,13.1876
12:36:56.722,9.875,12.8125
12:36:56.732,9.3125,11.1875
12:36:56.742,8.5625,10.25
12:36:56.751,7.75,10.375
12:36:56.761,7.875,9.25
12:36:56.771,7.75,8.0625
12:36:56.781,7.0625,7.125
12:36:56.791,7.4375,7.125
12:36:56.801,6.8125,8.5
12:36:56.811,7.125,7.0625
12:36:56.821,6.8125,6.125
12:36:56.833,6.75,6.75
12:36:56.843,6.5625,7.5625
12:36:56.851,6.6875,5.875
12:36:56.861,6.4375,5
12:36:56.871,5.875,4.0625
12:36:56.881,5.1875,4.4375
12:36:56.900,5.375,3.8125
12:36:56.903,5,2.1875
12:36:56.932,4.0625,1.1875
12:36:56.934,3.5,1.1875
12:36:56.937,3.4375,-0.125
12:36:56.945,2.75,-2.5625
12:36:56.970,2.1875,-1.875
12:36:56.973,1.5,-2.4375
12:36:56.975,1.375,-3.125
12:36:56.982,0.875,-4.5625
12:36:56.992,-0.125,-5.5625
12:36:57.025,-0.8125,-6.125
12:36:57.027,-1.1875,-6.375
12:36:57.029,-2.0625,-7.375
12:36:57.032,-2.0625,-8.75
12:36:57.048,-2.4375,-9.1875
12:36:57.052,-3.4375,-10.25
12:36:57.061,-4,-9.875
12:36:57.071,-5.0625,-10
12:36:57.081,-7,-11
12:36:57.091,-6.9375,-12.875
12:36:57.101,-7.8125,-15.0001
12:36:57.111,-7.5625,-15.3126
12:36:57.121,-6.8125,-14.1876
12:36:57.132,-7.3125,-15.1876
12:36:57.141,-8.1875,-16.1251
12:36:57.151,-8.5,-16.0001
12:36:57.162,-8.9375,-17.2501
12:36:57.171,-9.3125,-17.0001
12:36:57.181,-9.875,-17.5001
12:36:57.191,-10.375,-17.6876
12:36:57.201,-10.875,-18.4376
12:36:57.211,-11,-18.4376
12:36:57.222,-12.4375,-20.3126
12:36:57.231,-13.6876,-21.1876
12:36:57.242,-13.4376,-22.3751
12:36:57.251,-15.8751,-23.4376
12:36:57.261,-17.3126,-24.3126
12:36:57.272,-21.3751,-26.1251
12:36:57.282,-26.6251,-28.7501
12:36:57.292,-32.4376,-30.3126
12:36:57.301,-33.2501,-29.3126
12:36:57.311,-34.1251,-30.1876
12:36:57.321,-34.9376,-29.2501
12:36:57.331,-34.8126,-29.7501
12:36:57.341,-34.3126,-29.9376
12:36:57.351,-34.6251,-28.8126
12:36:57.361,-34.0626,-29.2501
12:36:57.371,-33.6251,-28.1251
12:36:57.383,-33.7501,-29.1876
12:36:57.392,-33.8126,-28.3751
12:36:57.401,-33.2501,-28.6876
12:36:57.411,-32.9376,-27.5626
12:36:57.421,-31.7501,-27.8751
12:36:57.431,-32.1876,-27.2501
12:36:57.441,-29.9376,-24.2501
12:36:57.451,-28.7501,-19.8751
12:36:57.461,-25.8751,-12.875
12:36:57.471,-21.6876,-6.25
12:36:57.482,-19.5001,1.5
12:36:57.491,-17.3126,5.0625
12:36:57.501,-15.5001,9.1875
12:36:57.512,-13.9376,9.8125
12:36:57.521,-14.1876,11
12:36:57.531,-13.3751,10.3125
12:36:57.541,-13.5626,8.9375
12:36:57.551,-13.4376,9.125
12:36:57.561,-13.4376,8.375
12:36:57.573,-13.3751,8.125
12:36:57.581,-13.1876,7.8125
12:36:57.591,-12.9375,8.375
12:36:57.601,-12.6875,7.8125
12:36:57.611,-12.3125,7.875
12:36:57.621,-11.875,8.25
12:36:57.631,-11.875,8.1875
12:36:57.641,-12.1875,8.1875
12:36:57.651,-12.4375,6.8125
12:36:57.662,-11.625,6.4375
12:36:57.681,-12.3125,4.5
12:36:57.688,-13.1876,3.1875
12:36:57.702,-13.8126,3
12:36:57.704,-13.7501,1.125
12:36:57.713,-14.2501,1.1875
12:36:57.722,-13.9376,1.25
12:36:57.737,-14.6251,1.125
12:36:57.753,-14.1876,1.375
12:36:57.755,-13.5626,0.5625
12:36:57.784,-13.6251,1.625
12:36:57.787,-12.6875,1.125
12:36:57.789,-13.3751,1.125
12:36:57.801,-13.9376,0.875
12:36:57.802,-14.0626,-1
12:36:57.811,-14.6876,-1.1875
12:36:57.821,-14.8126,-1.75
12:36:57.832,-15.1876,-2.6875
12:36:57.841,-15.0626,-3.6875
12:36:57.851,-15.6251,-4.9375
12:36:57.862,-15.6876,-3.3125
12:36:57.871,-14.6251,-6.0625
12:36:57.881,-14.4376,-4.625
12:36:57.891,-12.5625,-5.5
12:36:57.901,-11.9375,-6.8125
12:36:57.911,-12.5625,-7.625
12:36:57.922,-13.2501,-8.1875
12:36:57.931,-14.0001,-8.0625
12:36:57.941,-13.9376,-8.75
12:36:57.951,-14.6251,-9.0625
12:36:57.962,-13.6251,-10.0625
12:36:57.971,-13.6876,-10.875
12:36:57.982,-14.1876,-11.25
12:36:57.991,-14.1251,-10.5625
12:36:58.001,-14.0001,-11.8125
12:36:58.011,-14.1876,-12.5
12:36:58.021,-13.7501,-13.3126
12:36:58.031,-13.125,-12.0625
12:36:58.041,-13.5626,-13.5001
12:36:58.051,-13.5001,-13.5626
12:36:58.061,-13.4376,-14.7501
12:36:58.071,-13.5626,-14.3126
12:36:58.082,-13.8126,-14.8126
12:36:58.091,-13.3126,-15.7501
12:36:58.101,-13.0625,-15.5001
12:36:58.111,-13.3751,-15.2501
12:36:58.121,-12.875,-16.3751
12:36:58.131,-13.7501,-16.4376
12:36:58.141,-13,-17.3751
12:36:58.151,-13.4376,-17.3126
12:36:58.162,-12.75,-17.4376
12:36:58.176,-13.9376,-18.4376
12:36:58.181,-12.8125,-18.5001
12:36:58.191,-13.3126,-18.3126
12:36:58.201,-13.2501,-19.1876
12:36:58.211,-12.9375,-19.9376
12:36:58.222,-13.3126,-20.1251
12:36:58.231,-13.1876,-19.2501
12:36:58.242,-14.0001,-20.6876
12:36:58.251,-13.3126,-19.9376
12:36:58.261,-13.1876,-20.8751
12:36:58.271,-12.875,-20.0626
12:36:58.282,-12.875,-20.5626
12:36:58.291,-12.75,-20.7501
12:36:58.302,-12.625,-19.9376
12:36:58.311,-12.4375,-20.3751
12:36:58.323,-12.625,-19.6251
12:36:58.331,-11.9375,-20.3751
12:36:58.341,-11.9375,-19.1251
12:36:58.351,-10.5625,-18.6876
12:36:58.362,-9.8125,-14.7501
12:36:58.374,-7,-10.5625
12:36:58.408,-4.6875,-2.875
12:36:58.411,-1.8125,2.125
12:36:58.413,0.6875,7.4375
12:36:58.418,2.1875,11
12:36:58.451,2.8125,10.8125
12:36:58.453,2.4375,12.5
12:36:58.455,2.125,11.375
12:36:58.460,2.6875,12.0625
12:36:58.493,2.1875,10.5625
12:36:58.495,1.5,10
12:36:58.497,1.5625,9.3125
12:36:58.511,1.375,8.6875
12:36:58.516,1.0625,8.4375
12:36:58.519,1.5625,8.125
12:36:58.527,2.125,8.3125
12:36:58.537,1.9375,7.1875
12:36:58.555,1.625,8.75
12:36:58.558,1.6875,6.875
12:36:58.567,0.875,5.3125
12:36:58.577,0.5625,4.875
12:36:58.586,0.3125,3.8125
12:36:58.598,0.6875,2.6875
12:36:58.608,0.125,2.25
12:36:58.617,-0.1875,2.0625
12:36:58.626,0.625,2.5625
12:36:58.636,-0.25,1.8125
12:36:58.648,-0.25,3.125
12:36:58.657,0.125,3.75
12:36:58.666,0.375,3.3125
12:36:58.677,-0.5,1.3125
12:36:58.686,-0.3125,2.0625
12:36:58.696,-0.875,0.4375
12:36:58.707,-0.875,-1.125
12:36:58.716,-1.8125,-1.625
12:36:58.729,-1.8125,-2.0625
12:36:58.736,-1.625,-3.5
12:36:58.748,-2.5625,-4.125
12:36:58.757,-2.5625,-4.0625
12:36:58.768,-3,-5.8125
12:36:58.776,-3.5625,-6.25
12:36:58.787,-3.25,-7.75
12:36:58.796,-4.3125,-8.6875
12:36:58.808,-4.75,-9.25
12:36:58.816,-4.1875,-10.0625
12:36:58.828,-4.875,-11
12:36:58.836,-5.1875,-10.875
12:36:58.848,-4.1875,-10.9375
12:36:58.856,-4.875,-12.125
12:36:58.868,-4.375,-12.1875
12:36:58.877,-5.125,-12.125
12:36:58.886,-4.8125,-12.5625
12:36:58.897,-4.875,-12.6875
12:36:58.910,-5.125,-12.625
12:36:58.917,-5.4375,-13.4376
12:36:58.929,-5,-12.875
12:36:58.937,-4.875,-13.5001
12:36:58.946,-5.125,-13.0625
12:36:58.956,-4.625,-14.1251
12:36:58.967,-5.5,-13.5626
12:36:58.983,-4.8125,-15.0626
12:36:58.994,-5,-13.7501
12:36:58.996,-4.4375,-14.5001
12:36:59.014,-4.8125,-14.2501
12:36:59.020,-4.375,-14.6876
12:36:59.029,-4.9375,-14.5001
12:36:59.037,-4,-14.7501
12:36:59.066,-4.625,-14.1251
12:36:59.068,-3.625,-14.3126
12:36:59.082,-3.4375,-14.8126
12:36:59.097,-3,-14.2501
12:36:59.099,-3.1875,-14.5001
12:36:59.115,-3.5625,-14.3126
12:36:59.117,-3.625,-13.9376
12:36:59.121,-3.75,-14.1251
12:36:59.129,-3.4375,-13.7501
12:36:59.136,-3,-14.2501
12:36:59.148,-3.1875,-13.125
12:36:59.156,-3.125,-13.6251
12:36:59.168,-2.6875,-12.3125
12:36:59.179,-2.8125,-12.3125
12:36:59.188,-2.9375,-13.4376
12:36:59.197,-3.0625,-13.1876
12:36:59.208,-2.875,-13.3126
12:36:59.217,-3.5625,-13.0625
12:36:59.228,-3.3125,-12.125
12:36:59.237,-2.8125,-12.5
12:36:59.248,-2.75,-13
12:36:59.259,-2.5625,-11.75
12:36:59.267,-1.3125,-9
12:36:59.277,-0.25,-6.9375
12:36:59.288,2.25,-0.125
12:36:59.298,4.5625,6.375
12:36:59.309,6.75,12.625
12:36:59.318,8.625,16.3751
12:36:59.328,9.25,19.7501
12:36:59.338,9.9375,19.5001
12:36:59.347,9.9375,20.8751
12:36:59.360,9.625,19.5626
12:36:59.368,8.875,19.8126
12:36:59.377,9.875,18.5001
12:36:59.387,9.0625,17.6251
12:36:59.398,10.0625,18.0001
12:36:59.407,9.875,17.5626
12:36:59.417,9.5625,17.8751
12:36:59.427,10.5625,17.9376
12:36:59.439,9.9375,18.5001
12:36:59.449,9.8125,18.5626
12:36:59.457,10.4375,18.2501
12:36:59.466,9.625,17.3126
12:36:59.477,9.6875,15.6251
12:36:59.488,9.125,15.1876
12:36:59.498,8.75,13.7501
12:36:59.507,8.8125,11.4375
12:36:59.517,7.625,10.5625
12:36:59.528,7.25,10.5
12:36:59.539,8,9.625
12:36:59.547,7.0625,8.1875
12:36:59.556,6.5,9.25
12:36:59.568,6.4375,8.625
12:36:59.577,6.75,8
12:36:59.587,6.0625,6.75
12:36:59.596,5.625,6.9375
12:36:59.608,5.25,5.6875
12:36:59.617,3.9375,5.625
12:36:59.627,4.1875,5
12:36:59.638,3.875,3.3125
12:36:59.648,3.6875,2
12:36:59.658,2.9375,1.9375
12:36:59.668,2.75,0.75
12:36:59.677,2.375,-1.125
12:36:59.687,1.6875,-2.5
12:36:59.699,0.4375,-2.3125
12:36:59.708,1.625,-3.25
12:36:59.719,1.5,-4.25
12:36:59.728,0.75,-5.6875
12:36:59.738,0.4375,-5.75
12:36:59.747,-0.25,-6.0625
12:36:59.758,0,-7.5
12:36:59.767,-0.0625,-8.3125
12:36:59.777,-0.75,-8.0625
12:36:59.789,-0.8125,-8.75
12:36:59.798,-0.875,-9.9375
12:36:59.809,-1.375,-10.625
12:36:59.840,-1.4375,-10.125
12:36:59.841,-2.25,-10.9375
12:36:59.844,-2.1875,-11.9375
12:36:59.848,-2.5,-12.6875
12:36:59.877,-2.3125,-12.25
12:36:59.880,-2.375,-13.5001
12:36:59.881,-2.9375,-13.2501
12:36:59.890,-3.375,-13.5001
12:36:59.922,-3.375,-15.1251
12:36:59.924,-3.8125,-14.6876
12:36:59.926,-3.625,-15.1876
12:36:59.934,-3.6875,-15.5626
12:36:59.949,-4.4375,-14.8751
12:36:59.950,-4.6875,-16.3751
12:36:59.959,-4.25,-15.6876
12:36:59.969,-4.125,-16.2501
12:36:59.978,-4.5,-16.1251
12:36:59.989,-3.5625,-15.5001
12:36:59.998,-4.5,-15.7501
12:37:00.009,-4.75,-15.6251
12:37:00.018,-4.6875,-16.8751
12:37:00.032,-5.0625,-16.1251
12:37:00.039,-4.375,-17.1251
12:37:00.049,-5,-16.6876
12:37:00.059,-4.4375,-16.9376
12:37:00.067,-4.5,-15.5626
12:37:00.079,-4.125,-17.0001
12:37:00.088,-4.6875,-14.7501
12:37:00.098,-4.375,-15.2501
12:37:00.107,-4.1875,-15.7501
12:37:00.118,-4.125,-16.2501
12:37:00.128,-4,-15.1876
12:37:00.138,-3.375,-14.8126
12:37:00.149,-3.25,-14.1876
12:37:00.158,-3.375,-14.7501
12:37:00.169,-3.625,-13.8126
12:37:00.177,-3.25,-14.5626
12:37:00.188,-2.875,-14.6876
12:37:00.198,-3.125,-13.4376
12:37:00.208,-2.875,-14.4376
12:37:00.218,-2.1875,-13.1876
12:37:00.228,-2.0625,-13.5626
12:37:00.238,-1.8125,-12.1875
12:37:00.247,-0.1875,-11.4375
12:37:00.259,0.625,-9.25
12:37:00.268,2.1875,-6.8125
12:37:00.278,3.4375,-3.125
12:37:00.288,7.375,2.0625
12:37:00.305,9.5,9.3125
12:37:00.310,11.6875,14.0626
12:37:00.319,12.875,16.5626
12:37:00.355,14.2501,19.1251
12:37:00.358,14.1876,18.7501
12:37:00.375,14.5626,18.5001
12:37:00.378,13.9376,17.8126
12:37:00.390,13.5001,17.9376
12:37:00.392,13.8751,16.1251
12:37:00.405,13.2501,15.4376
12:37:00.427,12.8125,16.0001
12:37:00.429,12.1875,14.3126
12:37:00.445,11.6875,15.3751
12:37:00.449,11.3125,14.6876
12:37:00.450,10.875,14.1876
12:37:00.455,10.4375,15.7501
12:37:00.457,10,14.0001
12:37:00.468,10.1875,12.5625
12:37:00.478,9.3125,11.375
12:37:00.488,8.3125,11.625
12:37:00.498,7.25,10.5
12:37:00.508,7.4375,9.3125
12:37:00.518,7,9.125
12:37:00.529,6.5,7.4375
12:37:00.538,6.1875,7.6875
12:37:00.548,5.4375,8.125
12:37:00.558,5.875,7.625
12:37:00.568,6.125,7.625
12:37:00.578,6.3125,6.9375
12:37:00.588,5.6875,6.4375
12:37:00.598,5.25,7.0625
12:37:00.609,5.25,6.6875
12:37:00.619,5.75,5.375
12:37:00.628,5.1875,3.5625
12:37:00.638,4.6875,3.625
12:37:00.647,5.125,2.4375
12:37:00.657,3.9375,1.0625
12:37:00.668,4.0625,0.125
12:37:00.679,4.0625,0
12:37:00.688,4.125,-1.0625
12:37:00.697,3.6875,-2.5
12:37:00.709,3.0625,-3.6875
12:37:00.718,3.0625,-3.25
12:37:00.727,3.625,-3.5625
12:37:00.738,3.5625,-5.1875
12:37:00.747,3.375,-4.4375
12:37:00.757,3.1875,-4.9375
12:37:00.767,3.5625,-5.6875
12:37:00.777,3.875,-6.375
12:37:00.788,3.5625,-5.8125
12:37:00.803,3.8125,-6.1875
12:37:00.808,2.6875,-8.0625
12:37:00.819,2.3125,-8.625
12:37:00.828,2.125,-8.3125
12:37:00.838,2,-8.375
12:37:00.848,2.9375,-8.5625
12:37:00.858,2,-9.6875
12:37:00.867,1.375,-8.6875
12:37:00.878,1.9375,-10
12:37:00.889,0.5,-11.4375
12:37:00.897,0.375,-10.4375
12:37:00.908,0.3125,-11.25
12:37:00.918,-0.1875,-11.375
12:37:00.928,-1.375,-11.0625
12:37:00.937,-1.8125,-12.875
12:37:00.948,-2.4375,-13.0625
12:37:00.958,-2.5625,-12.375
12:37:00.969,-2.625,-13.5626
12:37:00.979,-3.3125,-14.3126
12:37:00.988,-3.5,-13.1251
12:37:00.997,-2.75,-14.3751
12:37:01.008,-3.375,-12.75
12:37:01.017,-2.75,-13.3126
12:37:01.027,-2.5,-14.7501
12:37:01.038,-3,-13.5001
12:37:01.047,-2.1875,-14.1251
12:37:01.058,-3.0625,-14.6251
12:37:01.069,-3.5,-14.9376
12:37:01.080,-2.8125,-15.2501
12:37:01.088,-3.5,-14.5001
12:37:01.098,-2.625,-15.3751
12:37:01.108,-3.5625,-14.2501
12:37:01.117,-3.0625,-15.3126
12:37:01.128,-3.25,-14.0001
12:37:01.138,-3.4375,-14.3751
12:37:01.148,-2.6875,-11.1875
12:37:01.160,-1.0625,-9.5
12:37:01.168,0.5625,-4.625
12:37:01.185,3.25,0.4375
12:37:01.189,4.5,7.1875
12:37:01.197,7,10
12:37:01.207,8,14.1251
12:37:01.217,7.9375,14.4376
12:37:01.227,8.3125,15.3126
12:37:01.237,8.3125,13.6876
12:37:01.250,7.9375,14.6876
12:37:01.259,7.5625,12.5625
12:37:01.268,7.25,13.1251
12:37:01.278,7.3125,11.875
12:37:01.288,6.625,11.8125
12:37:01.298,7.625,11.375
12:37:01.307,6.5625,11.3125
12:37:01.318,6.9375,10.875
12:37:01.353,6.8125,12
12:37:01.355,7,11.625
12:37:01.356,7,10.9375
12:37:01.360,6.5625,9.5
12:37:01.395,6.0625,9.3125
12:37:01.395,5.4375,7.4375
12:37:01.397,4.625,6.5
12:37:01.400,4.6875,6.1875
12:37:01.435,4.4375,5.125
12:37:01.436,4.375,5.0625
12:37:01.441,4.4375,5
12:37:01.446,4.5625,5.0625
12:37:01.463,4.375,4.1875
12:37:01.463,5,5
12:37:01.468,5.375,4.9375
12:37:01.478,5.8125,4.6875
12:37:01.488,6.0625,4
12:37:01.498,6.3125,4.4375
12:37:01.508,6.125,4.125
12:37:01.519,7.3125,3.3125
12:37:01.528,6.9375,1.625
12:37:01.538,7.3125,2.0625
12:37:01.548,6.875,0.75
12:37:01.558,7.0625,-0.125
12:37:01.568,6.8125,0.5
12:37:01.578,7.375,-0.1875
12:37:01.588,7.1875,-1.3125
12:37:01.597,6.9375,-2.625
12:37:01.627,6.125,-1.8125
12:37:01.627,6.4375,-2.4375
12:37:01.642,5.625,-4.0625
12:37:01.656,4.8125,-4.875
12:37:01.658,4.4375,-4.1875
12:37:01.674,4.1875,-4.375
12:37:01.675,4.5,-6.125
12:37:01.690,3.25,-6.625
12:37:01.692,3.4375,-7.125
12:37:01.700,2.9375,-5.625
12:37:01.716,2.8125,-6.25
12:37:01.719,2.5625,-7.6875
12:37:01.734,1.875,-8.1875
12:37:01.749,2.1875,-6.6875
12:37:01.751,2.5625,-7.5
12:37:01.761,2.25,-8.4375
12:37:01.768,1.6875,-7.5
12:37:01.778,2.3125,-7.4375
12:37:01.789,2.6875,-7.8125
12:37:01.797,2.625,-7.0625
12:37:01.807,3.0625,-6.6875
12:37:01.818,3.25,-7.6875
12:37:01.828,4.125,-7.8125
12:37:01.838,4.0625,-7.1875
12:37:01.848,4.625,-6.3125
12:37:01.859,5.625,-7.3125
12:37:01.868,5.875,-7.1875
12:37:01.879,5.75,-6.9375
12:37:01.888,7.0625,-5.9375
12:37:01.898,6.625,-6.5625
12:37:01.907,6.25,-6.3125
12:37:01.918,6.5,-5.375
12:37:01.928,5.875,-7.5
12:37:01.941,3.1875,-7
12:37:01.948,2.375,-7.5
12:37:01.958,1.125,-9.1875
12:37:01.969,-0.3125,-7.5
12:37:01.977,-1.5625,-9.4375
12:37:01.989,-1.75,-10.625
12:37:01.997,-1.625,-9.3125
12:37:02.007,-1.5625,-10.3125
12:37:02.018,-2.0625,-9
12:37:02.028,-1.625,-9.125
12:37:02.037,-2,-8.5625
12:37:02.047,-2.3125,-9.0625
12:37:02.059,-2,-10.125
12:37:02.068,-2.3125,-8.625
12:37:02.078,-2.3125,-9.0625
12:37:02.088,-2.5,-9.375
12:37:02.097,-2.375,-7.4375
12:37:02.108,-0.8125,-6.25
12:37:02.118,-0.0625,-2.0625
12:37:02.128,2.25,2.9375
12:37:02.138,4.125,9.5
12:37:02.148,6.5625,13.2501
12:37:02.158,7.1875,16.8751
12:37:02.168,8.125,18.3751
12:37:02.178,7.9375,19.5001
12:37:02.187,6.875,19.6876
12:37:02.198,7,19.1251
12:37:02.208,6.1875,18.3751
12:37:02.217,6.25,17.3751
12:37:02.228,5.25,16.8751
12:37:02.239,5.8125,16.0001
12:37:02.248,5.8125,16.9376
12:37:02.258,6.125,16.0001
12:37:02.267,5.375,16.5626
12:37:02.279,6.625,16.4376
12:37:02.288,5.5625,17.0626
12:37:02.299,5.375,16.5626
12:37:02.308,5.75,15.3751
12:37:02.318,4.6875,13.9376
12:37:02.329,4.5,13.8126
12:37:02.338,4.25,11.6875
12:37:02.348,3.5,10.3125
12:37:02.359,4.1875,11.5
12:37:02.367,3.875,10.375
12:37:02.378,3.5625,9.75
12:37:02.393,2.25,10.4375
12:37:02.403,2.875,9
12:37:02.413,1.5,8.125
12:37:02.422,1.5,8.5625
12:37:02.433,2.125,8.1875
12:37:02.442,1.0625,7.25
12:37:02.453,6.3125,9.375
12:37:02.463,6.0625,8.1875
12:37:02.472,5.125,6.5625
12:37:02.484,5.9375,6.625
12:37:02.492,5.3125,6.6875
12:37:02.502,5.5625,5.125
12:37:02.514,5.8125,4.25
12:37:02.524,6.5625,5.125
12:37:02.532,8.375,5.3125
12:37:02.543,8.8125,4.6875
12:37:02.553,12.25,5.5
12:37:02.562,14.0626,7.125
12:37:02.574,16.4376,8.125
12:37:02.584,18.9376,8.6875
12:37:02.593,20.1876,10.375
12:37:02.603,22.0001,11.3125
12:37:02.614,23.6251,10.375
12:37:02.622,24.7501,9.6875
12:37:02.634,25.6876,9.9375
12:37:02.644,27.3126,11
12:37:02.653,28.0001,10.625
12:37:02.665,29.1876,11.5
12:37:02.673,30.1251,12.8125
12:37:02.682,32.1251,12.4375
12:37:02.699,33.7501,13.5626
12:37:02.704,34.7501,13.1251
12:37:02.712,35.1876,13.3126
12:37:02.744,35.1251,14.8126
12:37:02.746,35.3126,13.8751
12:37:02.748,36.3751,13.3751
12:37:02.754,36.5001,12.3125
12:37:02.791,35.8751,12.4375
12:37:02.792,35.5001,13.6876
12:37:02.794,36.2501,13.1251
12:37:02.796,35.6251,11.4375
12:37:02.803,35.7501,12.8125
12:37:02.836,36.5001,11.75
12:37:02.836,35.7501,11
12:37:02.841,36.6876,11.125
12:37:02.856,36.3126,10.4375
12:37:02.857,35.3751,9.5625
12:37:02.866,35.3751,10
12:37:02.874,35.2501,9.8125
12:37:02.904,34.5626,9.1875
12:37:02.906,34.0001,8.4375
12:37:02.909,33.8126,8.6875
12:37:02.914,33.5626,9.3125
12:37:02.924,33.5001,8.75
12:37:02.933,32.3126,7.6875
12:37:02.944,31.3751,7.6875
12:37:02.960,30.7501,7.875
12:37:02.975,30.5001,6
12:37:02.990,30.0001,5.5
12:37:02.992,29.3751,6.375
12:37:03.008,29.1251,6.8125
12:37:03.009,28.5626,6.1875
12:37:03.015,28.9376,6.8125
12:37:03.034,28.6251,7.625
12:37:03.036,29.0001,10.375
12:37:03.047,30.0626,13.4376
12:37:03.052,31.2501,15.9376
12:37:03.068,31.3751,18.1876
12:37:03.079,31.7501,19.5001
12:37:03.084,31.1251,21.2501
12:37:03.094,31.8751,21.3751
12:37:03.104,30.6876,20.9376
12:37:03.114,30.0001,20.2501
12:37:03.124,29.3751,20.4376
12:37:03.134,29.1876,18.7501
12:37:03.143,28.4376,16.0626
12:37:03.154,27.4376,15.5001
12:37:03.164,26.8126,14.0626
12:37:03.173,26.1251,14.8751
12:37:03.184,26.1251,13.2501
12:37:03.194,25.4376,12.4375
12:37:03.204,24.5001,11.6875
12:37:03.213,23.9376,10.9375
12:37:03.224,23.1876,9.4375
12:37:03.234,22.5001,7.75
12:37:03.244,21.2501,6.375
12:37:03.254,20.8126,7.0625
12:37:03.264,20.7501,6.9375
12:37:03.274,20.1251,5.3125
12:37:03.284,19.6251,5.5
12:37:03.294,20.6876,6
12:37:03.304,19.5001,5.1875
12:37:03.314,19.2501,6.1875
12:37:03.324,19.3126,5.875
12:37:03.334,19.9376,5.375
12:37:03.344,19.3126,5.125
12:37:03.354,19.0626,3.6875
12:37:03.365,17.7501,4.1875
12:37:03.374,17.9376,3.0625
12:37:03.384,17.3126,1.5
12:37:03.394,16.8751,1.125
12:37:03.404,16.6251,2.25
12:37:03.414,16.9376,0.875
12:37:03.424,15.6876,-0.9375
12:37:03.434,15.1251,0.375
12:37:03.443,15.3126,-0.25
12:37:03.454,15.0001,-1.75
12:37:03.464,14.8751,-1.5
12:37:03.474,15.1251,-1.25
12:37:03.484,14.6251,-1.6875
12:37:03.494,14.3751,-2.125
12:37:03.504,14.2501,-1.5
12:37:03.514,14.9376,-1.3125
12:37:03.524,14.5001,-1.6875
12:37:03.535,14.6251,-2.6875
12:37:03.544,13.5626,-2.6875
12:37:03.554,13.1251,-1.6875
12:37:03.564,13,-2.625
12:37:03.574,13.2501,-3.5
12:37:03.584,12.5625,-2.8125
12:37:03.594,13.0625,-2.9375
12:37:03.604,12.25,-3.4375
12:37:03.614,12.125,-2.1875
12:37:03.625,11.75,-4.0625
12:37:03.634,11.75,-4.75
12:37:03.644,11.4375,-4.125
12:37:03.653,12.0625,-3.6875
12:37:03.664,11.875,-4.8125
12:37:03.673,11.125,-3.125
12:37:03.684,11.4375,-4.875
12:37:03.694,11,-4.4375
12:37:03.704,11.3125,-3.9375
12:37:03.714,11.25,-5
12:37:03.725,11.1875,-4.0625
12:37:03.734,11.1875,-4.6875
12:37:03.744,10.6875,-4.1875
12:37:03.754,10.5625,-4.25
12:37:03.764,10.875,-5.1875
12:37:03.774,10.1875,-5.75
12:37:03.784,9.9375,-4.625
12:37:03.794,10.3125,-4.4375
12:37:03.804,9.6875,-4.1875
12:37:03.814,9.75,-4.9375
12:37:03.829,9.5625,-5.25
12:37:03.834,8.875,-4.1875
12:37:03.844,9.4375,-5.0625
12:37:03.854,8.5625,-6.5625
12:37:03.865,8.5,-5.8125
12:37:03.874,8.875,-6.125
12:37:03.884,8.0625,-6.75
12:37:03.894,8.1875,-4.75
12:37:03.904,8.5625,-6.125
12:37:03.914,8.5625,-6.0625
12:37:03.924,9.0625,-3.9375
12:37:03.934,10.875,-1
12:37:03.944,11.6875,2.8125
12:37:03.954,13.1251,8
12:37:03.964,14.8751,11.8125
12:37:03.973,15.8126,17.2501
12:37:03.984,17.2501,17.6876
12:37:03.994,17.1876,18.4376
12:37:04.004,17.4376,19.5626
12:37:04.015,16.9376,18.5626
12:37:04.025,16.5626,18.4376
12:37:04.033,16.6251,17.5626
12:37:04.044,16.0001,17.3126
12:37:04.054,15.8126,16.3126
12:37:04.064,15.8126,15.8751
12:37:04.085,14.9376,16.6876
12:37:04.088,15.2501,15.1876
12:37:04.128,15.4376,15.5001
12:37:04.128,14.8126,15.8126
12:37:04.131,14.4376,15.0626
12:37:04.135,14.4376,13.4376
12:37:04.136,13.9376,12.375
12:37:04.174,13.5001,11.9375
12:37:04.175,13.2501,11.375
12:37:04.178,12.8125,9.8125
12:37:04.192,11.75,7.8125
12:37:04.198,11.9375,8.25
12:37:04.198,11.4375,8
12:37:04.207,11.375,7.375
12:37:04.221,11.125,6.1875
12:37:04.224,10.9375,7.6875
12:37:04.233,11.375,6.0625
12:37:04.244,10.625,5.875
12:37:04.254,10.1875,6.5
12:37:04.274,9.875,4.9375
12:37:04.280,10.25,4.0625
12:37:04.287,9.1875,3.875
12:37:04.294,8.5,3.6875
12:37:04.311,8.25,1.75
12:37:04.318,7.8125,1
12:37:04.326,7.875,0.5
12:37:04.334,7.125,0.3125
12:37:04.352,7.125,-0.4375
12:37:04.354,6.625,-1.25
12:37:04.370,6.1875,-1.3125
12:37:04.384,6.125,-0.625
12:37:04.386,6.1875,-2.4375
12:37:04.398,5.75,-2.3125
12:37:04.406,5.8125,-2.8125
12:37:04.414,5.0625,-2.0625
12:37:04.425,5.5625,-3.1875
12:37:04.434,5.75,-3.375
12:37:04.444,4.9375,-4.625
12:37:04.454,4.9375,-4.8125
12:37:04.465,4.25,-3.5625
12:37:04.474,4.625,-4
12:37:04.484,4.875,-4.1875
12:37:04.494,5.0625,-4.5625
12:37:04.505,4.375,-4.4375
12:37:04.514,4.5625,-4
12:37:04.524,4.6875,-4.125
12:37:04.534,5.125,-5.3125
12:37:04.544,4.8125,-5.125
12:37:04.554,3.8125,-4.5
12:37:04.564,4.625,-5.6875
12:37:04.573,4.375,-6.125
12:37:04.584,4.25,-4.8125
12:37:04.595,4.6875,-5.5
12:37:04.604,4.1875,-6.8125
12:37:04.614,4.125,-5.75
12:37:04.624,4.0625,-5.625
12:37:04.634,4.125,-6.625
12:37:04.644,4.1875,-6.125
12:37:04.654,4.125,-5.75
12:37:04.664,4.625,-6.625
12:37:04.674,4.0625,-6.25
12:37:04.684,4,-5.0625
12:37:04.694,3.9375,-6.625
12:37:04.704,4,-5.8125
12:37:04.715,4.0625,-6.125
12:37:04.724,3.25,-6.125
12:37:04.734,3.1875,-4.875
12:37:04.744,3.75,-6.3125
12:37:04.754,3.6875,-6.5
12:37:04.764,3.625,-5.6875
12:37:04.774,4.125,-5.9375
12:37:04.784,3.25,-5.5625
12:37:04.794,4.3125,-4.75
12:37:04.804,4.1875,-2.5625
12:37:04.814,5.8125,-0.25
12:37:04.824,7.5,2.5625
12:37:04.834,8.3125,7.0625
12:37:04.844,9.375,11.3125
12:37:04.854,10.875,13.5001
12:37:04.864,10.875,15.3126
12:37:04.874,12.4375,16.3126
12:37:04.884,10.9375,15.5001
12:37:04.894,10.375,15.1876
12:37:04.904,10.625,14.8126
12:37:04.914,9.8125,13.125
12:37:04.925,9.25,12.625
12:37:04.934,9.375,10.9375
12:37:04.945,9,10.125
12:37:04.954,8.4375,11.0625
12:37:04.968,8.5625,9.8125
12:37:04.974,8.625,8.5
12:37:04.985,7.9375,9
12:37:04.994,8.5,7.5
12:37:05.004,7.8125,6.6875
12:37:05.014,7.0625,5.125
12:37:05.024,6.5625,4.9375
12:37:05.033,6.6875,4.25
12:37:05.045,6.75,3.625
12:37:05.055,5.75,2.1875
12:37:05.064,6.125,3.125
12:37:05.074,5.9375,2.5
12:37:05.084,5.9375,2.5
12:37:05.094,5.625,3.6875
12:37:05.106,5.8125,2.375
12:37:05.114,5.4375,2.1875
12:37:05.124,5.375,1.4375
12:37:05.135,4.75,2.25
12:37:05.144,4.9375,1.5
12:37:05.153,4.8125,-0.0625
12:37:05.163,4.4375,-0.6875
12:37:05.174,3.75,0.375
12:37:05.185,4.4375,-1.3125
12:37:05.193,3.9375,-2
12:37:05.204,3.0625,-3.6875
12:37:05.214,2.9375,-2.75
12:37:05.224,3.3125,-3.4375
12:37:05.234,2.9375,-4.6875
12:37:05.244,2.125,-4.375
12:37:05.255,2.6875,-4.625
12:37:05.264,1.8125,-5.3125
12:37:05.276,2.375,-5.75
12:37:05.285,1.75,-5.5625
12:37:05.294,1.8125,-4.875
12:37:05.304,1.75,-5.1875
12:37:05.314,2.5625,-5.9375
12:37:05.324,2.1875,-6.5625
12:37:05.334,1.6875,-6.0625
12:37:05.346,1.9375,-5.875
12:37:05.354,2.3125,-6.1875
12:37:05.364,1.1875,-6.9375
12:37:05.374,1.375,-5.4375
12:37:05.384,1.375,-6.6875
12:37:05.394,1.75,-7.125
12:37:05.404,1.4375,-5.4375
12:37:05.414,1.9375,-6.3125
12:37:05.424,1.25,-6.5625
12:37:05.433,1.4375,-5.6875
12:37:05.465,1.3125,-6.0625
12:37:05.468,1.125,-7.75
12:37:05.469,0.9375,-6.5
12:37:05.476,1.75,-6.1875
12:37:05.491,1.5,-6.875
12:37:05.497,1,-7.4375
12:37:05.530,0.875,-6.125
12:37:05.533,2.0625,-6.6875
12:37:05.535,1.1875,-6.3125
12:37:05.537,1.0625,-6.125
12:37:05.545,1.5625,-7
12:37:05.584,1.1875,-7.875
12:37:05.589,0.8125,-6.1875
12:37:05.589,1.875,-7.125
12:37:05.602,0.8125,-6.875
12:37:05.606,1.125,-6.0625
12:37:05.620,1.6875,-6.0625
12:37:05.621,2.9375,-4.375
12:37:05.636,3.75,-0.875
12:37:05.651,6,3.5625
12:37:05.654,7.3125,7.8125
12:37:05.656,9.4375,12.125
12:37:05.670,10.4375,16.2501
12:37:05.678,11.4375,16.8126
12:37:05.685,11.4375,17.6251
12:37:05.701,11.0625,18.9376
12:37:05.704,10.9375,16.8126
12:37:05.719,10.625,16.8126
12:37:05.725,10.1875,16.5001
12:37:05.734,10.375,15.0001
12:37:05.745,9.9375,13.5626
12:37:05.754,9.125,15.0626
12:37:05.764,9.6875,14.3126
12:37:05.777,9.5625,13.4376
12:37:05.784,9.1875,14.0626
12:37:05.794,8.9375,12.6875
12:37:05.804,8.875,13.5001
12:37:05.815,8.9375,12.25
12:37:05.826,8.875,10.8125
12:37:05.834,8.125,9.375
12:37:05.845,6.875,8.9375
12:37:05.854,6.5625,8.6875
12:37:05.864,7.0625,7.0625
12:37:05.875,7.0625,6.875
12:37:05.885,6.6875,5.6875
12:37:05.894,6.5,6.375
12:37:05.905,6.5,5.8125
12:37:05.915,6.375,5.125
12:37:05.926,6.3125,5.3125
12:37:05.935,5.5,5.625
12:37:05.945,5.5,3.5
12:37:05.954,5.4375,2.75
12:37:05.964,4.9375,3.3125
12:37:05.975,5,3.375
12:37:05.985,5.125,2
12:37:05.994,4.125,0.5
12:37:06.004,4.25,0.5
12:37:06.015,4.4375,-0.3125
12:37:06.025,3.625,-1.0625
12:37:06.035,2.9375,-1.5
12:37:06.045,3.4375,-1.1875
12:37:06.055,2.8125,-2.25
12:37:06.066,2.3125,-3.0625
12:37:06.075,1.75,-2.0625
12:37:06.085,2.1875,-3.6875
12:37:06.095,2.1875,-4.8125
12:37:06.106,1.625,-4.5
12:37:06.118,2.25,-4
12:37:06.125,2,-5
12:37:06.134,1.6875,-5.625
12:37:06.145,0.875,-5.5625
12:37:06.155,2,-5.1875
12:37:06.165,1.75,-6.125
12:37:06.176,0.9375,-7.1875
12:37:06.184,1.375,-6.4375
12:37:06.195,0.6875,-8.1875
12:37:06.205,1.1875,-6.9375
12:37:06.215,1.4375,-7.8125
12:37:06.225,0.75,-7.5
12:37:06.237,0.6875,-6.75
12:37:06.245,1,-8.6875
12:37:06.255,0.75,-7.1875
12:37:06.266,0.9375,-7.875
12:37:06.275,0.6875,-8.875
12:37:06.285,0.625,-8.3125
12:37:06.295,0.875,-8.25
12:37:06.306,0.8125,-8.25
12:37:06.314,0.875,-8.125
12:37:06.325,0.625,-8.8125
12:37:06.335,1.0625,-7.9375
12:37:06.345,0.875,-8.875
12:37:06.356,0.5,-8.75
12:37:06.365,0.5625,-7.5
12:37:06.375,0.75,-9.1875
12:37:06.385,0.5,-8.625
12:37:06.400,1.1875,-8.375
12:37:06.410,0.6875,-8.75
12:37:06.420,0.5625,-7
12:37:06.430,1.3125,-7.6875
12:37:06.440,1.3125,-7.5
12:37:06.450,2.0625,-4.0625
12:37:06.461,2.9375,-2.9375
12:37:06.469,4.4375,2
12:37:06.486,6.9375,6.25
12:37:06.491,8.4375,10.625
12:37:06.500,9.3125,16.2501
12:37:06.510,11.0625,17.5626
12:37:06.520,11.4375,18.5001
12:37:06.530,11.4375,19.6251
12:37:06.541,11.8125,18.9376
12:37:06.550,10.5,17.6876
12:37:06.560,10.4375,17.6251
12:37:06.571,10.5,15.7501
12:37:06.580,10.1875,14.5626
12:37:06.590,10.5625,15.3751
12:37:06.600,11.5625,15.2501
12:37:06.610,10.4375,15.0001
12:37:06.621,10,15.6876
12:37:06.630,10.5,14.0001
12:37:06.640,9.3125,13.0625
12:37:06.650,9.4375,12.8125
12:37:06.661,8.6875,10.375
12:37:06.670,8.3125,9.75
12:37:06.681,8.625,8.875
12:37:06.690,7.6875,7.5625
12:37:06.700,7.1875,6.125
12:37:06.710,7.1875,7.3125
12:37:06.720,7.6875,6.5625
12:37:06.747,6.8125,5.625
12:37:06.749,6.4375,7.5
12:37:06.752,6.4375,7.1875
12:37:06.760,6.5,5.4375
12:37:06.771,6.75,6.3125
12:37:06.780,6.6875,5.625
12:37:06.790,6,5.3125
12:37:06.800,4.75,5
12:37:06.810,5.5625,3.75
12:37:06.820,5.125,2.5625
12:37:06.830,4.5625,1.5625
12:37:06.840,3.875,1
12:37:06.851,3.625,0.4375
12:37:06.859,4.0625,-1.9375
12:37:06.870,3.8125,-1.8125
12:37:06.880,3.625,-3.1875
12:37:06.890,2.5625,-3.375
12:37:06.933,2.5625,-3.5
12:37:06.934,2.25,-3.6875
12:37:06.961,2.625,-5.1875
12:37:06.964,2.375,-4.625
12:37:06.966,3.0625,-5
12:37:06.971,2.3125,-5.5625
12:37:06.971,1.9375,-6.25
12:37:06.971,2.1875,-4.6875
12:37:07.006,2.25,-6.3125
12:37:07.049,2,-6.75
12:37:07.064,1.5,-7.625
12:37:07.072,1.5,-6.0625
12:37:07.072,1.6875,-7.0625
12:37:07.072,1,-7.1875
12:37:07.078,0.75,-6.9375
12:37:07.078,0.875,-7.5
12:37:07.078,0.75,-6.8125
12:37:07.085,1.0625,-7.625
12:37:07.095,0.625,-8.875
12:37:07.106,0.125,-8.25
12:37:07.117,0.375,-8.375
12:37:07.125,0.8125,-7.9375
12:37:07.135,1.0625,-7.6875
12:37:07.145,0.4375,-9
12:37:07.155,0.1875,-8.625
12:37:07.165,0.6875,-8.125
12:37:07.175,0.5625,-8.75
12:37:07.185,0.6875,-8.8125
12:37:07.195,0.4375,-9.75
12:37:07.206,0.625,-9.9375
12:37:07.215,0.8125,-9.8125
12:37:07.225,0.875,-10.875
12:37:07.240,0.1875,-10.6875
12:37:07.245,1.25,-8.75
12:37:07.256,1.75,-6
12:37:07.266,3.3125,-4.1875
12:37:07.275,5.4375,-0.8125
12:37:07.285,7.0625,5.5
12:37:07.295,8.75,10.5625
12:37:07.305,10.75,13
12:37:07.315,11.0625,15.1876
12:37:07.325,11.6875,17.6251
12:37:07.335,12.1875,16.8126
12:37:07.345,11.125,16.1251
12:37:07.355,10.875,16.2501
12:37:07.365,10.75,13.9376
12:37:07.375,10.0625,12.4375
12:37:07.385,9.3125,12.75
12:37:07.395,9.625,12.8125
12:37:07.405,9.6875,11.5625
12:37:07.415,9.0625,12.4375
12:37:07.425,9.3125,11.5
12:37:07.435,9.125,10.4375
12:37:07.445,8.5,10.6875
12:37:07.455,9.25,8.625
12:37:07.465,8.1875,6.875
12:37:07.475,7.9375,5.8125
12:37:07.485,7.6875,6.1875
12:37:07.495,6.875,5
12:37:07.506,7.375,4.5625
12:37:07.515,6.625,6
12:37:07.525,7.3125,5.5
12:37:07.535,7.0625,4.875
12:37:07.545,6.875,4.5625
12:37:07.555,6.5625,5.5625
12:37:07.565,6.625,4.625
12:37:07.575,6.625,4
12:37:07.586,6.125,3.0625
12:37:07.595,6.1875,1.9375
12:37:07.606,5.5625,0.875
12:37:07.615,4.875,1.25
12:37:07.625,5.125,0.25
12:37:07.635,4.4375,-0.9375
12:37:07.645,3.75,-2.6875
12:37:07.655,3.625,-2.4375
12:37:07.665,3.5625,-2.875
12:37:07.675,3.625,-4.5
12:37:07.685,2.9375,-4.6875
12:37:07.695,2.75,-5.4375
12:37:07.705,2.25,-5.875
12:37:07.715,1.875,-6.3125
12:37:07.725,2.375,-5.4375
12:37:07.736,2.1875,-6.9375
12:37:07.745,2.125,-7
12:37:07.755,0.9375,-7.375
12:37:07.765,1.3125,-6.5625
12:37:07.775,1.25,-6.9375
12:37:07.785,1.625,-8.0625
12:37:07.795,1.25,-8.1875
12:37:07.805,0.875,-7.9375
12:37:07.815,1.5,-8.6875
12:37:07.825,0.9375,-9.1875
12:37:07.835,0.5,-8.0625
12:37:07.845,0.3125,-9.1875
12:37:07.855,0.4375,-10.25
12:37:07.865,0.5625,-9.0625
12:37:07.875,0.75,-9.3125
12:37:07.885,0,-9.8125
12:37:07.895,0.25,-10
12:37:07.906,0.375,-9.4375
12:37:07.915,-0.1875,-10.5
12:37:07.925,0.0625,-10.25
12:37:07.935,-0.625,-10.125
12:37:07.945,-0.25,-10.375
12:37:07.955,-0.4375,-11
12:37:07.965,-0.375,-10.375
12:37:07.975,-0.125,-10.3125
12:37:07.991,-0.4375,-10.5625
12:37:07.997,-0.9375,-10.3125
12:37:08.025,0.0625,-10.75
12:37:08.026,-0.0625,-11
12:37:08.029,-0.25,-10.375
12:37:08.035,-0.125,-12
12:37:08.046,-0.3125,-11.25
12:37:08.055,-1.1875,-10.1875
12:37:08.065,-0.1875,-10.25
12:37:08.075,0,-7.9375
12:37:08.085,2.4375,-6.5625
12:37:08.095,3,-1.5625
12:37:08.105,5.9375,3.625
12:37:08.115,7.4375,10.9375
12:37:08.125,9.625,15.5626
12:37:08.135,11.4375,17.8126
12:37:08.145,11.9375,20.1251
12:37:08.155,12.1875,20.0626
12:37:08.188,12,20.6876
12:37:08.190,12.1875,20.3751
12:37:08.193,11.75,18.6876
12:37:08.196,11.625,18.2501
12:37:08.232,11.125,17.6876
12:37:08.234,10.625,18.8126
12:37:08.236,11.3125,16.8126
12:37:08.242,10.8125,16.3126
12:37:08.271,11,17.5626
12:37:08.272,10.875,16.5626
12:37:08.274,10.8125,16.9376
12:37:08.302,11.0625,16.8126
12:37:08.309,10.25,15.6876
12:37:08.309,10.1875,14.6876
12:37:08.309,9.8125,12.875
12:37:08.318,8.1875,12.8125
12:37:08.343,9.0625,10.8125
12:37:08.345,8.0625,9.1875
12:37:08.366,8.3125,8.875
12:37:08.368,8.0625,9.0625
12:37:08.384,8.4375,9.875
12:37:08.392,7.9375,8.6875
12:37:08.392,7.5625,8.125
12:37:08.396,7.875,7.5625
12:37:08.405,7.125,7.6875
12:37:08.415,6.875,8.125
12:37:08.427,7.1875,6.75
12:37:08.435,6.375,6
12:37:08.445,6.875,5.125
12:37:08.455,6.0625,5
12:37:08.465,5.9375,4.4375
12:37:08.476,4.9375,3.3125
12:37:08.486,5,2.1875
12:37:08.495,4.25,1.375
12:37:08.505,4.125,1.3125
12:37:08.515,3.8125,0.5625
12:37:08.525,3.25,-0.375
12:37:08.535,2.875,-0.5
12:37:08.545,2.5625,-1.9375
12:37:08.556,2.625,-1.875
12:37:08.566,2.75,-3.125
12:37:08.575,2,-4.75
12:37:08.585,2.125,-4.1875
12:37:08.595,2.375,-4.1875
12:37:08.605,2.0625,-5.9375
12:37:08.615,1.375,-6.0625
12:37:08.626,0.9375,-4.8125
12:37:08.635,1.5625,-7.0625
12:37:08.647,0.9375,-7.5
12:37:08.655,0.375,-6.1875
12:37:08.666,0.6875,-7
12:37:08.675,1,-7.625
12:37:08.686,0.8125,-8.3125
12:37:08.695,0.5,-7.8125
12:37:08.706,0.5,-8.25
12:37:08.715,0.125,-8.3125
12:37:08.725,0.5,-7.5
12:37:08.741,0.875,-7.875
12:37:08.746,-0.25,-8.625
12:37:08.756,-0.25,-7.1875
12:37:08.765,0.3125,-9
12:37:08.775,-0.3125,-8.3125
12:37:08.785,-0.25,-9.3125
12:37:08.795,-0.5,-10.625
12:37:08.805,-0.3125,-9.125
12:37:08.815,0.25,-10.0625
12:37:08.825,-0.25,-10.5625
12:37:08.836,-0.375,-9.4375
12:37:08.845,-0.6875,-9.75
12:37:08.857,-0.25,-11
12:37:08.866,-0.25,-9.5625
12:37:08.875,-0.25,-11.0625
12:37:08.886,-0.1875,-9.75
12:37:08.895,0.5625,-9.625
12:37:08.905,0.875,-7.875
12:37:08.915,1.5,-4.75
12:37:08.925,4.3125,-1.0625
12:37:08.936,5.9375,3.875
12:37:08.945,8.375,10.8125
12:37:08.955,10.375,14.5626
12:37:08.966,11.375,17.9376
12:37:08.976,11.8125,19.1876
12:37:08.985,12.5,20.2501
12:37:08.995,12.3125,19.5626
12:37:09.005,12,18.4376
12:37:09.017,11.4375,17.1251
12:37:09.025,10.9375,17.0001
12:37:09.036,10.75,15.7501
12:37:09.046,10.1875,14.9376
12:37:09.055,10.875,15.2501
12:37:09.066,10.5625,15.3126
12:37:09.076,11.3125,14.4376
12:37:09.085,9.875,14.8126
12:37:09.097,9.5,15.0626
12:37:09.106,10.0625,12.75
12:37:09.115,9.25,11.4375
12:37:09.126,8.6875,10
12:37:09.136,7.75,9.5625
12:37:09.147,7.1875,9.3125
12:37:09.155,7.9375,8.625
12:37:09.165,7.8125,8.375
12:37:09.176,7.0625,7.5
12:37:09.186,7.0625,8.4375
12:37:09.195,6.5625,9.1875
12:37:09.206,7.4375,8.125
12:37:09.217,6.75,8.125
12:37:09.226,6.6875,8.5
12:37:09.237,7.1875,7.875
12:37:09.246,6.3125,6.8125
12:37:09.257,5.875,6.25
12:37:09.266,5.125,5.75
12:37:09.276,5.3125,5.0625
12:37:09.306,4.9375,3.9375
12:37:09.307,4.25,2
12:37:09.309,4.0625,2.3125
12:37:09.316,3.875,1.3125
12:37:09.325,3,-0.4375
12:37:09.338,2.4375,0.125
12:37:09.346,2.1875,-0.5625
12:37:09.357,2.625,-1.6875
12:37:09.366,1.6875,-1.9375
12:37:09.375,1.75,-2.625
12:37:09.386,1.875,-3.8125
12:37:09.396,1.1875,-4.375
12:37:09.406,1.25,-4.1875
12:37:09.415,1.5,-5.1875
12:37:09.426,1.6875,-6
12:37:09.436,0.6875,-7
12:37:09.446,0.125,-7.75
12:37:09.457,0.125,-8.0625
12:37:09.466,0.0625,-7.4375
12:37:09.476,0.5625,-8
12:37:09.492,-0.25,-8.75
12:37:09.497,-0.8125,-8.6875
12:37:09.507,-0.625,-8.8125
12:37:09.516,-0.875,-9.9375
12:37:09.526,-0.8125,-10.3125
12:37:09.535,-0.3125,-9.875
12:37:09.547,-1,-10.3125
12:37:09.555,0,-10.6875
12:37:09.566,-1.3125,-9.9375
12:37:09.576,-0.5625,-10.625
12:37:09.598,-1.125,-11.3125
12:37:09.631,-1.5625,-9.625
12:37:09.633,-0.5625,-11.1875
12:37:09.635,-1.0625,-11.625
12:37:09.641,-1.1875,-10.5
12:37:09.641,-0.625,-11.3125
12:37:09.648,-1.5,-11.5
12:37:09.707,-0.9375,-11.25
12:37:09.711,-1.3125,-11.5
12:37:09.712,-1,-11.4375
12:37:09.714,-1,-11.0625
12:37:09.719,0,-10.1875
12:37:09.721,-0.25,-7.875
12:37:09.721,2.125,-3.9375
12:37:09.727,3.75,0.1875
12:37:09.736,7.1875,7.875
12:37:09.747,9.25,13.5001
12:37:09.757,10.6875,17.0626
12:37:09.766,11.25,19.1251
12:37:09.776,11.375,20.6876
12:37:09.787,11.3125,21.3751
12:37:09.796,11.375,20.8751
12:37:09.807,11.9375,19.1251
12:37:09.816,10.9375,19.8126
12:37:09.827,11.125,18.2501
12:37:09.837,10.875,17.3751
12:37:09.847,10.875,17.9376
12:37:09.856,10.875,18.1251
12:37:09.866,10.8125,17.1876
12:37:09.876,10.375,15.8751
12:37:09.886,10.8125,17.1876
12:37:09.898,11.1875,16.5626
12:37:09.906,9.8125,14.8751
12:37:09.916,9.75,14.4376
12:37:09.926,9.5625,14.5001
12:37:09.936,8.9375,11.875
12:37:09.946,8.1875,11.625
12:37:09.957,7.9375,11.5625
12:37:09.966,8.3125,10.5625
12:37:09.976,7.1875,11.0625
12:37:09.986,7.375,10.8125
12:37:09.997,7.5,9.9375
12:37:10.006,7.6875,9.25
12:37:10.016,7.4375,9.75
12:37:10.026,7.3125,10.125
12:37:10.037,7.3125,9.3125
12:37:10.048,7.1875,8.625
12:37:10.057,6.75,7.4375
12:37:10.066,6.5625,5.9375
12:37:10.077,5.6875,6.75
12:37:10.087,5.875,5.4375
12:37:10.096,5.6875,4
12:37:10.106,4.25,2.4375
12:37:10.116,4.4375,2.3125
12:37:10.126,4,1.375
12:37:10.136,3.5,-0.3125
12:37:10.147,2.625,-0.5625
12:37:10.157,2.9375,-0.9375
12:37:10.166,2.6875,-2.75
12:37:10.176,2.3125,-2.5625
12:37:10.186,1.6875,-2.6875
12:37:10.197,1.375,-3.3125
12:37:10.206,1.875,-4.25
12:37:10.217,1.1875,-5.3125
12:37:10.226,0.875,-4.9375
12:37:10.242,1.0625,-5.6875
12:37:10.246,1.4375,-6.375
12:37:10.259,0.5625,-7.125
12:37:10.266,0.3125,-6.25
12:37:10.277,0.375,-6.75
12:37:10.286,-0.0625,-7.0625
12:37:10.298,-0.375,-8.3125
12:37:10.306,-0.375,-7.4375
12:37:10.316,-0.5625,-8.8125
12:37:10.327,-0.75,-9.25
12:37:10.336,-1.25,-8.1875
12:37:10.347,-1,-9.625
12:37:10.356,-1.0625,-10.3125
12:37:10.367,-1.4375,-9.625
12:37:10.376,-0.8125,-10.4375
12:37:10.386,-1.375,-10.1875
12:37:10.396,-1.1875,-10.25
12:37:10.406,-1.25,-11.0625
12:37:10.421,-2.0625,-12.1875
12:37:10.432,-2.25,-11.8125
12:37:10.441,-1.0625,-12
12:37:10.451,-1.8125,-11.6875
12:37:10.461,-1.5625,-11.75
12:37:10.472,-1.8125,-12.75
12:37:10.481,-2.5625,-11.9375
12:37:10.491,-2.4375,-13.3126
12:37:10.501,-2.125,-13.9376
12:37:10.513,-2.375,-12.4375
12:37:10.522,-1.625,-13
12:37:10.532,-2.75,-13.9376
12:37:10.541,-2,-12.625
12:37:10.551,-1.9375,-12.0625
12:37:10.585,-1.0625,-11
12:37:10.589,0.4375,-8.375
12:37:10.589,4.125,0.6875
12:37:10.595,6.5,7.9375
12:37:10.601,8.9375,13.4376
12:37:10.616,10.4375,17.1876
12:37:10.622,12.1875,20.1876
12:37:10.631,11.9375,21.5626
12:37:10.641,12.5625,21.9376
12:37:10.651,11.6875,21.8751
12:37:10.661,11.6875,21.6251
12:37:10.671,11.6875,20.7501
12:37:10.682,11.375,21.2501
12:37:10.691,11.75,19.5626
12:37:10.701,11.1875,19.8751
12:37:10.711,11.4375,19.9376
12:37:10.723,11.625,20.7501
12:37:10.732,11.75,19.1251
12:37:10.742,11.8125,20.1876
12:37:10.752,11.625,20.5626
12:37:10.762,11.3125,18.6876
12:37:10.771,10.8125,18.9376
12:37:10.782,10.0625,17.8751
12:37:10.791,10.3125,15.8126
12:37:10.801,9.25,14.2501
12:37:10.812,8.625,14.3126
12:37:10.822,8.25,13.8751
12:37:10.831,8.875,13.1876
12:37:10.841,8.75,12.5625
12:37:10.851,8.0625,12.6875
12:37:10.861,7.875,13.2501
12:37:10.871,7.5625,12.6875
12:37:10.881,8.1875,12.375
12:37:10.914,7.8125,11.75
12:37:10.916,7,11.625
12:37:10.949,6.3125,12.25
12:37:10.953,7.0625,10.375
12:37:11.016,6,9
12:37:11.016,5.9375,7
12:37:11.016,4.8125,7.125
12:37:11.018,5.25,6.5
12:37:11.018,4.625,4.9375
12:37:11.025,3.75,3.9375
12:37:11.025,4.375,4.3125
12:37:11.025,3.4375,2.6875
12:37:11.032,3,1.375
12:37:11.045,2.75,1.4375
12:37:11.052,2.8125,0.375
12:37:11.061,2.375,-0.1875
12:37:11.071,2.125,-0.625
12:37:11.081,1.8125,-0.0625
12:37:11.091,2.25,-1.125
12:37:11.101,2.0625,-2.5
12:37:11.112,2,-3.1875
12:37:11.121,1.5,-3.75
12:37:11.132,0.875,-4.3125
12:37:11.141,0.3125,-3.1875
12:37:11.152,0.75,-4.3125
12:37:11.161,0.4375,-4.75
12:37:11.171,-0.625,-4.8125
12:37:11.181,-0.875,-6.625
12:37:11.191,-1.125,-7.6875
12:37:11.202,-1.3125,-8.0625
12:37:11.211,-1.3125,-9.75
12:37:11.222,-2,-10.6875
12:37:11.231,-1.75,-9
12:37:11.241,-1.5625,-10
12:37:11.251,-1.625,-11.0625
12:37:11.261,-2.6875,-9.125
12:37:11.271,-2.25,-11
12:37:11.281,-2.4375,-12.3125
12:37:11.291,-2.1875,-11.875
12:37:11.302,-1.875,-11.875
12:37:11.311,-2.4375,-12.9375
12:37:11.322,-2.625,-12.4375
12:37:11.332,-2.25,-13.0625
12:37:11.342,-3.125,-13.3126
12:37:11.352,-2.8125,-13.3751
12:37:11.361,-2.875,-13.8126
12:37:11.371,-3,-13.3126
12:37:11.382,-1.9375,-13.5001
12:37:11.392,-2.0625,-12.8125
12:37:11.401,-1.3125,-10.125
12:37:11.411,-0.0625,-7.0625
12:37:11.422,2.1875,-0.5625
12:37:11.431,5.6875,4.875
12:37:11.441,7.0625,11.625
12:37:11.451,8.875,14.5001
12:37:11.461,9.5625,17.8751
12:37:11.472,10.75,18.3126
12:37:11.482,10.25,18.6876
12:37:11.492,9.9375,18.3751
12:37:11.501,9.9375,16.4376
12:37:11.511,10.3125,17.2501
12:37:11.522,9.8125,15.2501
12:37:11.531,10,16.2501
12:37:11.541,9.625,14.7501
12:37:11.551,9.875,15.9376
12:37:11.561,10.125,15.4376
12:37:11.572,9.4375,15.1876
12:37:11.581,9.1875,15.5001
12:37:11.591,9.0625,13.6251
12:37:11.601,8.6875,11.8125
12:37:11.611,8.3125,11.4375
12:37:11.621,7.1875,10.875
12:37:11.631,7,8.5625
12:37:11.641,6.75,6.8125
12:37:11.651,6.375,7.3125
12:37:11.661,6.4375,8.25
12:37:11.671,6.375,6.5
12:37:11.681,6.25,7
12:37:11.692,6.625,7.4375
12:37:11.701,6.875,7
12:37:11.711,5.8125,6.8125
12:37:11.722,5.625,8.0625
12:37:11.732,5.5625,7.125
12:37:11.741,5.25,6.25
12:37:11.752,5.0625,5.0625
12:37:11.761,4.1875,5.1875
12:37:11.771,4.875,4
12:37:11.781,3.75,2.4375
12:37:11.796,3.5625,3.0625
12:37:11.801,3.3125,1.3125
12:37:11.811,2.875,-0.25
12:37:11.821,2.3125,0.75
12:37:11.831,3,-1.3125
12:37:11.866,1.875,-3.3125
12:37:11.867,1.5,-1.9375
12:37:11.870,1.1875,-3.25
12:37:11.877,0.625,-4.5625
12:37:11.881,0.1875,-3.625
12:37:11.891,0.5625,-5.8125
12:37:11.901,-0.0625,-6.5
12:37:11.911,-0.6875,-6.875
12:37:11.921,-0.0625,-6.9375
12:37:11.932,-0.9375,-8.375
12:37:11.941,-1.875,-8.0625
12:37:11.951,-1.5625,-9.5
12:37:11.962,-2,-10.1875
12:37:11.971,-3.125,-10.3125
12:37:11.982,-2.875,-10.9375
12:37:11.991,-3,-11.6875
12:37:12.001,-4.6875,-10.6875
12:37:12.011,-4.75,-12.0625
12:37:12.022,-4.875,-12.9375
12:37:12.033,-5.1875,-12.6875
12:37:12.041,-5.1875,-13.1251
12:37:12.051,-5.75,-14.0001
12:37:12.061,-5.9375,-13.1876
12:37:12.072,-6.4375,-14.8126
12:37:12.082,-6.75,-13.8751
12:37:12.092,-6.75,-14.7501
12:37:12.101,-6.9375,-14.5626
12:37:12.111,-7.625,-15.9376
12:37:12.123,-7.875,-17.3751
12:37:12.132,-7.75,-17.8126
12:37:12.141,-8.3125,-19.0001
12:37:12.151,-8.6875,-19.1251
12:37:12.161,-8.8125,-20.3126
12:37:12.172,-9.8125,-19.8751
12:37:12.182,-10.5625,-19.9376
12:37:12.191,-11.375,-20.6251
12:37:12.210,-12.9375,-21.0001
12:37:12.215,-14.1876,-21.0626
12:37:12.230,-16.3751,-22.4376
12:37:12.232,-18.8751,-23.4376
12:37:12.243,-22.1876,-23.8126
12:37:12.251,-26.5001,-26.4376
12:37:12.271,-29.6251,-27.7501
12:37:12.273,-31.9376,-29.7501
12:37:12.287,-35.4376,-30.6251
12:37:12.293,-37.8751,-30.8751
12:37:12.301,-39.5002,-32.7501
12:37:12.312,-39.6877,-31.5626
12:37:12.322,-39.6252,-32.3751
12:37:12.333,-39.3127,-31.0626
12:37:12.341,-37.8126,-30.1876
12:37:12.351,-37.1251,-28.0001
12:37:12.388,-34.6251,-23.6876
12:37:12.391,-31.4376,-15.4376
12:37:12.392,-27.6876,-7.375
12:37:12.395,-25.6251,-1.4375
12:37:12.402,-22.6251,3.8125
12:37:12.439,-22.0001,8
12:37:12.440,-20.0001,9.375
12:37:12.443,-19.7501,9.9375
12:37:12.449,-19.3126,12.625
12:37:12.463,-18.6251,10.625
12:37:12.463,-18.2501,9.5
12:37:12.494,-18.0626,10.625
12:37:12.497,-17.8126,9.125
12:37:12.501,-17.5626,10.3125
12:37:12.505,-17.0001,9.3125
12:37:12.511,-16.5626,9.75
12:37:12.523,-15.3126,10.25
12:37:12.532,-15.1251,10.6875
12:37:12.546,-15.4376,10.75
12:37:12.551,-15.7501,10.1875
12:37:12.561,-15.3126,9.625
12:37:12.572,-16.6251,8.875
12:37:12.581,-17.0001,8.125
12:37:12.591,-17.3751,5.5625
12:37:12.601,-17.0626,4.0625
12:37:12.611,-17.8126,4.25
12:37:12.622,-18.2501,1.875
12:37:12.632,-17.6251,2.625
12:37:12.643,-17.1251,1.3125
12:37:12.651,-17.1876,1
12:37:12.663,-17.3751,0.875
12:37:12.673,-16.9376,-0.375
12:37:12.681,-16.2501,0.875
12:37:12.692,-15.8126,-0.375
12:37:12.701,-15.3751,-0.25
12:37:12.713,-14.1251,-0.125
12:37:12.723,-14.4376,-2.1875
12:37:12.733,-13.6251,-2.125
12:37:12.744,-14.6251,-3.625
12:37:12.752,-14.9376,-4.1875
12:37:12.763,-15.5001,-6.0625
12:37:12.771,-16.6251,-7
12:37:12.781,-16.6876,-6.3125
12:37:12.792,-17.1251,-7.875
12:37:12.801,-17.2501,-8
12:37:12.813,-17.4376,-9.375
12:37:12.821,-18.0001,-10.625
12:37:12.831,-17.7501,-11.0625
12:37:12.841,-18.1876,-11.5
12:37:12.851,-18.5626,-12.625
12:37:12.862,-19.2501,-13.6876
12:37:12.872,-19.3126,-13.2501
12:37:12.881,-20.1251,-15.6251
12:37:12.892,-19.9376,-14.8126
12:37:12.903,-19.5626,-16.5626
12:37:12.912,-19.0626,-16.0001
12:37:12.921,-19.7501,-17.2501
12:37:12.933,-19.5001,-17.1251
12:37:12.942,-19.9376,-18.3126
12:37:12.951,-19.8126,-18.6876
12:37:12.963,-19.7501,-19.2501
12:37:12.971,-18.9376,-19.0626
12:37:12.982,-18.1251,-19.3751
12:37:12.991,-17.1251,-19.4376
12:37:13.003,-17.1251,-20.0626
12:37:13.012,-16.6876,-19.9376
12:37:13.021,-15.9376,-20.0626
12:37:13.033,-15.8751,-21.0626
12:37:13.042,-16.0001,-21.5001
12:37:13.053,-15.3751,-20.0001
12:37:13.063,-15.1876,-21.3751
12:37:13.073,-14.6251,-20.5626
12:37:13.083,-13.5626,-20.0626
12:37:13.093,-13.1876,-20.5001
12:37:13.103,-12.625,-20.3751
12:37:13.111,-11.9375,-21.0626
12:37:13.147,-12.4375,-20.1876
12:37:13.149,-11.375,-21.1876
12:37:13.154,-12.5,-19.3751
12:37:13.154,-12,-21.0626
12:37:13.163,-11.875,-19.3751
12:37:13.173,-11.9375,-20.0001
12:37:13.182,-11.3125,-20.2501
12:37:13.192,-11.5,-20.5626
12:37:13.202,-12.5625,-20.8751
12:37:13.214,-12.5,-20.3751
12:37:13.222,-13.5626,-21.5001
12:37:13.232,-14.3751,-20.1876
12:37:13.242,-14.7501,-21.9376
12:37:13.252,-15.1251,-21.0626
12:37:13.261,-14.9376,-21.4376
12:37:13.273,-14.5626,-21.2501
12:37:13.281,-13.9376,-20.6251
12:37:13.298,-13.1251,-19.5001
12:37:13.302,-12.1875,-15.9376
12:37:13.313,-10.875,-13.3751
12:37:13.322,-8.625,-7.0625
12:37:13.332,-5.9375,-0.5625
12:37:13.342,-3.125,4.25
12:37:13.354,-1.375,6.875
12:37:13.362,-0.1875,9.75
12:37:13.373,0.5625,10.75
12:37:13.381,1.5,10.4375
12:37:13.393,1.4375,11.25
12:37:13.403,1.9375,10.9375
12:37:13.412,1.5625,10.125
12:37:13.422,1.75,9.875
12:37:13.432,2.0625,9.375
12:37:13.444,3.1875,11.0625
12:37:13.453,3.0625,11.125
12:37:13.462,4.1875,11.9375
12:37:13.471,4.1875,11.875
12:37:13.482,3.75,11.3125
12:37:13.492,3.1875,12.1875
12:37:13.511,3.125,9.75
12:37:13.517,3.375,10.125
12:37:13.532,2.5,9
12:37:13.536,2.9375,8.8125
12:37:13.543,4.0625,8.75
12:37:13.556,3.625,9
12:37:13.574,5,9.75
12:37:13.576,6.1875,9.3125
12:37:13.592,6.375,8.875
12:37:13.598,6.4375,9.875
12:37:13.603,6.6875,8.9375
12:37:13.613,5.375,7.375
12:37:13.622,4.1875,8.5625
12:37:13.633,3.5,6.25
12:37:13.641,1.9375,6.5
12:37:13.651,0.875,3.875
12:37:13.662,-0.375,1.8125
12:37:13.674,-1.625,1.75
12:37:13.682,-2.5,1.75
12:37:13.693,-2.4375,1.125
12:37:13.702,-2.1875,-0.4375
12:37:13.713,-3.0625,-1.1875
12:37:13.722,-3.0625,-1.0625
12:37:13.732,-2.6875,-2
12:37:13.743,-2.875,-3.125
12:37:13.752,-3.5,-4.375
12:37:13.763,-3.625,-3.0625
12:37:13.773,-3.1875,-4.6875
12:37:13.782,-3.75,-5.625
12:37:13.792,-3.9375,-5.5
12:37:13.802,-3.6875,-5.9375
12:37:13.813,-3.5625,-7.375
12:37:13.823,-4.125,-7.875
12:37:13.833,-3.9375,-7.8125
12:37:13.843,-4.25,-8.9375
12:37:13.853,-4.8125,-9.8125
12:37:13.863,-4.875,-10.8125
12:37:13.873,-4.4375,-10.625
12:37:13.882,-5.5625,-11.8125
12:37:13.894,-5.5,-12.3125
12:37:13.925,-5.6875,-13.0625
12:37:13.927,-5.3125,-13.4376
12:37:13.930,-5.9375,-14.6876
12:37:13.932,-6.125,-14.1251
12:37:13.966,-6.125,-15.6876
12:37:13.967,-6.75,-14.5626
12:37:13.969,-7.375,-16.4376
12:37:13.972,-7,-16.1251
12:37:14.002,-7,-17.7501
12:37:14.004,-7.625,-17.0001
12:37:14.006,-7.9375,-16.9376
12:37:14.014,-7.25,-17.5001
12:37:14.029,-7.0625,-17.9376
12:37:14.034,-7.0625,-17.2501
12:37:14.047,-7.1875,-18.4376
12:37:14.053,-6.4375,-16.9376
12:37:14.062,-6.8125,-18.5001
12:37:14.072,-6.4375,-17.6876
12:37:14.082,-6.6875,-19.0626
12:37:14.094,-6.8125,-18.5001
12:37:14.103,-6.375,-18.2501
12:37:14.113,-6.625,-18.8751
12:37:14.122,-6.75,-18.9376
12:37:14.133,-7.375,-18.5626
12:37:14.142,-7.3125,-19.2501
12:37:14.153,-7.4375,-18.3751
12:37:14.162,-6.6875,-18.1251
12:37:14.173,-7.0625,-18.3126
12:37:14.183,-5.75,-17.9376
12:37:14.192,-6.5625,-16.9376
12:37:14.203,-5.75,-16.6876
12:37:14.212,-4.75,-17.3751
12:37:14.222,-4.5625,-17.0626
12:37:14.232,-5.0625,-16.3126
12:37:14.243,-4.875,-16.4376
12:37:14.253,-4.8125,-15.9376
12:37:14.263,-5.3125,-14.5001
12:37:14.273,-4.8125,-15.6251
12:37:14.283,-5.3125,-16.6251
12:37:14.292,-5.0625,-14.8751
12:37:14.303,-5,-15.9376
12:37:14.312,-4,-13.4376
12:37:14.323,-2.9375,-12.9375
12:37:14.333,-1,-8.0625
12:37:14.343,0.5625,-4.3125
12:37:14.353,2.5,1.4375
12:37:14.363,4.75,6.125
12:37:14.372,5,9.8125
12:37:14.382,5.9375,12.3125
12:37:14.393,7.125,12.1875
12:37:14.425,6.9375,14.9376
12:37:14.426,7.6875,13.3751
12:37:14.429,7.625,14.0626
12:37:14.434,8.3125,14.3126
12:37:14.447,7.8125,13.7501
12:37:14.459,8,14.7501
12:37:14.468,8.75,15.1251
12:37:14.479,8.25,15.8751
12:37:14.487,9.0625,16.1251
12:37:14.498,9,17.3751
12:37:14.508,9.375,18.6251
12:37:14.518,9.5,16.9376
12:37:14.528,9.5,16.0001
12:37:14.538,8.625,16.5001
12:37:14.548,8.625,15.1876
12:37:14.557,7.5625,13.6876
12:37:14.569,7.25,13.1876
12:37:14.579,7.8125,12.9375
12:37:14.587,7.5625,12
12:37:14.599,8.0625,11.25
12:37:14.608,8.0625,13.5626
12:37:14.618,9,12.5625
12:37:14.628,9.0625,13
12:37:14.638,9.75,12.75
12:37:14.647,10.4375,14.2501
12:37:14.659,12.625,14.3751
12:37:14.668,14.0626,14.5626
12:37:14.679,15.1876,15.5626
12:37:14.687,15.8126,14.8751
12:37:14.697,15.5626,13.3126
12:37:14.708,14.5626,12.0625
12:37:14.718,12,10.0625
12:37:14.727,10.3125,9.25
12:37:14.738,10.0625,7.75
12:37:14.749,9,5.25
12:37:14.758,8.1875,4.875
12:37:14.768,7.25,5.125
12:37:14.778,7.625,3.9375
12:37:14.787,7,2.9375
12:37:14.797,6.3125,2.375
12:37:14.810,4.875,2.8125
12:37:14.823,5.3125,1.5
12:37:14.839,4.625,0.25
12:37:14.841,4.125,0.4375
12:37:14.847,3.375,0.375
12:37:14.857,3.5,-0.6875
12:37:14.878,2.875,-1.6875
12:37:14.880,2.375,-1.1875
12:37:14.895,1.4375,-1.5
12:37:14.899,1.6875,-3
12:37:14.908,0.625,-4.625
12:37:14.917,0.0625,-3.75
12:37:14.928,0.125,-4.25
12:37:14.938,-0.8125,-5.5625
12:37:14.947,-1,-4.875
12:37:14.958,-0.5625,-5.25
12:37:14.968,-1.125,-6.875
12:37:14.977,-1.875,-7.0625
12:37:14.987,-2.375,-8.1875
12:37:14.998,-2.25,-7.1875
12:37:15.008,-2,-8.25
12:37:15.019,-3.125,-9.375
12:37:15.027,-3.125,-9.375
12:37:15.037,-4,-9.5625
12:37:15.049,-3.4375,-10.375
12:37:15.058,-4.25,-11.25
12:37:15.068,-3.875,-11.75
12:37:15.077,-4.125,-11.5625
12:37:15.088,-4.1875,-11.625
12:37:15.097,-3.875,-13.2501
12:37:15.110,-4.75,-12.5
12:37:15.118,-4.3125,-13.3751
12:37:15.127,-4.375,-13.1251
12:37:15.137,-4.1875,-13.7501
12:37:15.149,-4,-14.6876
12:37:15.158,-4.375,-14.5001
12:37:15.168,-3.625,-14.0001
12:37:15.177,-4.9375,-14.6251
12:37:15.187,-5.125,-14.3751
12:37:15.200,-4.4375,-15.0626
12:37:15.208,-5.375,-14.2501
12:37:15.218,-4.3125,-15.0001
12:37:15.228,-4.25,-14.4376
12:37:15.239,-4.25,-15.4376
12:37:15.248,-5.25,-15.1251
12:37:15.258,-5.125,-16.0626
12:37:15.267,-5.0625,-16.0626
12:37:15.278,-4.9375,-15.0626
12:37:15.289,-5.125,-15.5626
12:37:15.298,-4.8125,-15.5626
12:37:15.307,-4.5625,-15.6251
12:37:15.333,-5.4375,-16.0001
12:37:15.335,-4.5625,-14.6251
12:37:15.339,-4.1875,-14.1251
12:37:15.374,-3.375,-11.5625
12:37:15.377,-1.6875,-10.0625
12:37:15.380,-1.0625,-6.25
12:37:15.381,0.875,-2.4375
12:37:15.387,1.5625,2.0625
12:37:15.420,2.5625,3.1875
12:37:15.423,3.6875,3.875
12:37:15.426,4.375,5
12:37:15.429,3.9375,4.8125
12:37:15.453,3.4375,5
12:37:15.455,3.0625,4.375
12:37:15.457,3.25,2.8125
12:37:15.469,3,3.5
12:37:15.478,3.5625,2.25
12:37:15.487,3.5625,1.5625
12:37:15.498,4.125,3.1875
12:37:15.508,4.125,2.4375
12:37:15.519,3.75,3.875
12:37:15.528,3.8125,2.0625
12:37:15.538,3.0625,1.8125
12:37:15.550,3.375,0.125
12:37:15.558,1.875,-0.5
12:37:15.570,1.5625,-2.3125
12:37:15.578,1.25,-2.0625
12:37:15.588,1,-1.875
12:37:15.597,1.5,-2.375
12:37:15.608,1.625,-2.625
12:37:15.617,1.125,-3.4375
12:37:15.627,0.8125,-2.1875
12:37:15.638,0.9375,-3.1875
12:37:15.649,1.75,-3.6875
12:37:15.658,0.6875,-3.625
12:37:15.667,0.625,-4.5
12:37:15.677,0.375,-4.125
12:37:15.704,0.375,-3.6875
12:37:15.706,0.5625,-4.3125
12:37:15.709,0.375,-6.0625
12:37:15.718,0.3125,-5.25
12:37:15.727,0.25,-5.125
12:37:15.739,0.375,-5.5625
12:37:15.747,0.375,-6.75
12:37:15.757,0,-6.5625
12:37:15.768,0.0625,-6.625
12:37:15.777,-0.625,-8.0625
12:37:15.788,-1.0625,-6.375
12:37:15.797,-0.1875,-7.5625
12:37:15.807,-1.0625,-8.75
12:37:15.818,-1.0625,-8
12:37:15.829,-0.6875,-8.625
12:37:15.838,-0.6875,-7.875
12:37:15.848,-0.3125,-9.125
12:37:15.860,-1.3125,-8.25
12:37:15.869,-1.625,-8.5625
12:37:15.878,-0.75,-9.125
12:37:15.888,-0.9375,-8.75
12:37:15.898,-0.25,-7.4375
12:37:15.908,-0.8125,-8.6875
12:37:15.919,-1.1875,-8.625
12:37:15.928,-1,-8.0625
12:37:15.938,-0.375,-8.5
12:37:15.952,-0.125,-8
12:37:15.957,-0.125,-7.75
12:37:15.968,0,-8.0625
12:37:15.977,0.1875,-7.75
12:37:15.988,0.4375,-7.75
12:37:15.997,1,-7.875
12:37:16.010,1.1875,-6.25
12:37:16.018,2.5,-7.875
12:37:16.027,2.5625,-5.875
12:37:16.038,3.5625,-6.8125
12:37:16.047,2.5625,-5.0625
12:37:16.057,2.625,-6.8125
12:37:16.067,1.25,-6.6875
12:37:16.077,1.6875,-7.5625
12:37:16.088,0.75,-5.8125
12:37:16.099,0.9375,-6.875
12:37:16.117,0.25,-7.5
12:37:16.122,-0.3125,-8.75
12:37:16.138,-1.25,-9
12:37:16.139,-1.5,-7.9375
12:37:16.154,-0.5,-8.25
12:37:16.158,-1.375,-8.8125
12:37:16.175,-1.4375,-9.8125
12:37:16.190,-1.375,-8.6875
12:37:16.193,-2.1875,-9.5625
12:37:16.202,-2.4375,-9.3125
12:37:16.207,-1.75,-9.125
12:37:16.217,-2.4375,-10.375
12:37:16.227,-2.25,-9.6875
12:37:16.237,-2.125,-9.9375
12:37:16.247,-3.0625,-8.75
12:37:16.258,-2.875,-10.25
12:37:16.267,-3.125,-10.125
12:37:16.279,-2.375,-9.875
12:37:16.288,-2.1875,-9.1875
12:37:16.297,-2.75,-8.375
12:37:16.307,-1.6875,-8.625
12:37:16.318,-1.0625,-6.75
12:37:16.328,-0.4375,-3.4375
12:37:16.338,1.125,-1.625
12:37:16.347,3.4375,3.9375
12:37:16.357,5.75,9.9375
12:37:16.369,7.75,13.1251
12:37:16.378,9.25,16.4376
12:37:16.387,10.0625,17.5001
12:37:16.399,9.6875,18.5626
12:37:16.407,9.75,19.0626
12:37:16.417,10.75,17.9376
12:37:16.427,9.5625,16.5626
12:37:16.437,9.5625,15.6876
12:37:16.447,9.3125,16.5001
12:37:16.459,9.5625,15.2501
12:37:16.467,8.875,15.5626
12:37:16.478,8.75,14.5001
12:37:16.487,8.1875,14.5626
12:37:16.498,7.6875,14.5001
12:37:16.507,7.625,13
12:37:16.518,7.4375,13.5626
12:37:16.527,7.375,12.5625
12:37:16.537,6.6875,11.125
12:37:16.548,6,8.875
12:37:16.558,4.5,8.125
12:37:16.568,4.0625,7.0625
12:37:16.577,4.0625,4.5
12:37:16.587,3,2.8125
12:37:16.597,2.1875,2.875
12:37:16.609,2,2
12:37:16.618,2.4375,0.8125
12:37:16.628,2.3125,0.3125
12:37:16.649,1.875,1.125
12:37:16.651,2.5625,-0.0625
12:37:16.683,1.8125,-0.9375
12:37:16.685,0.8125,-0.5625
12:37:16.688,1.625,-1.625
12:37:16.690,2.0625,-2.6875
12:37:16.721,1.5,-3
12:37:16.723,0.9375,-4.75
12:37:16.725,1.3125,-4.0625
12:37:16.758,1.8125,-4.5
12:37:16.758,0.9375,-5.5
12:37:16.761,0.9375,-6.375
12:37:16.767,1.3125,-5.1875
12:37:16.767,1.6875,-6.3125
12:37:16.779,0.5625,-7.0625
12:37:16.791,0.75,-7.75
12:37:16.797,0.6875,-6.625
12:37:16.809,0.3125,-7.125
12:37:16.819,1.1875,-8.0625
12:37:16.828,0.75,-7.25
12:37:16.839,1.0625,-7.4375
12:37:16.848,0.5,-8.25
12:37:16.858,0.4375,-7.3125
12:37:16.868,0.375,-8.25
12:37:16.878,-0.4375,-8.5625
12:37:16.889,-1.0625,-9
12:37:16.898,-0.875,-7.9375
12:37:16.909,-0.375,-8.9375
12:37:16.919,-0.6875,-9.1875
12:37:16.929,-0.5,-7.75
12:37:16.938,-0.875,-8.0625
12:37:16.950,-0.4375,-8.5625
12:37:16.959,-1,-9.1875
12:37:16.985,-2.375,-8
12:37:16.986,-1.1875,-8.9375
12:37:16.989,-1.6875,-9.1875
12:37:16.999,-1.375,-8.375
12:37:17.009,-0.25,-7.875
12:37:17.018,-1.0625,-8.25
12:37:17.029,0.1875,-7.4375
12:37:17.039,1,-8.1875
12:37:17.047,0.5,-6.5
12:37:17.057,1.3125,-6.875
12:37:17.068,1.625,-5.6875
12:37:17.077,3.5,-6.25
12:37:17.089,6.0625,-3.4375
12:37:17.099,8.75,-2.75
12:37:17.107,10.9375,-0.4375
12:37:17.118,12.625,-0.5
12:37:17.129,13.3751,1.75
12:37:17.139,14.5001,0.0625
12:37:17.151,12.9375,0.9375
12:37:17.159,11.9375,-0.4375
12:37:17.168,10.1875,-0.1875
12:37:17.180,10.3125,-1.3125
12:37:17.187,8.25,-0.75
12:37:17.199,7.3125,-2.375
12:37:17.209,6.1875,-4.0625
12:37:17.218,5.75,-3.8125
12:37:17.229,5.875,-3.5625
12:37:17.239,5.9375,-4.5625
12:37:17.250,5.4375,-4.75
12:37:17.261,4.9375,-3.6875
12:37:17.270,5.375,-4.4375
12:37:17.279,5.125,-4
12:37:17.288,6.125,-3.0625
12:37:17.299,6.375,-1.875
12:37:17.308,6.9375,0.5625
12:37:17.319,8.5,5.625
12:37:17.327,10.0625,10.1875
12:37:17.337,11.8125,15.5001
12:37:17.349,13.8751,19.0001
12:37:17.358,14.2501,22.0626
12:37:17.368,15.0001,23.5001
12:37:17.378,15.2501,23.1251
12:37:17.387,14.6876,25.0001
12:37:17.397,14.7501,23.2501
12:37:17.409,14.1251,22.5626
12:37:17.425,14.0626,23.0626
12:37:17.440,13.6251,21.5001
12:37:17.442,13.3126,22.2501
12:37:17.451,12.9375,21.3126
12:37:17.459,12.5,22.6876
12:37:17.477,13.2501,22.3751
12:37:17.479,12.1875,21.4376
12:37:17.494,12.3125,21.2501
12:37:17.502,11.9375,19.9376
12:37:17.508,10.9375,19.2501
12:37:17.517,10.5625,19.5001
12:37:17.529,9.875,17.2501
12:37:17.541,17.2501,22.0001
12:37:17.550,21.1251,20.5626
12:37:17.559,22.1251,23.2501
12:37:17.568,21.5626,24.0001
12:37:17.579,23.6876,23.6876
12:37:17.588,25.8751,24.4376
12:37:17.598,26.3126,24.3751
12:37:17.609,26.9376,24.5626
12:37:17.619,26.1251,23.5626
12:37:17.629,23.3751,19.5001
12:37:17.638,18.5626,15.8751
12:37:17.648,12.9375,13.2501
12:37:17.658,11.5625,11.875
12:37:17.669,11.9375,11.9375
12:37:17.679,11.8125,12
12:37:17.689,13.7501,12.9375
12:37:17.697,16.8126,13.4376
12:37:17.708,18.5626,14.1251
12:37:17.719,20.7501,17.1251
12:37:17.729,22.0001,18.5001
12:37:17.737,23.0001,19.3126
12:37:17.748,24.2501,18.7501
12:37:17.759,25.8751,19.2501
12:37:17.769,26.0626,18.8751
12:37:17.779,27.9376,19.8751
12:37:17.789,29.0001,18.9376
12:37:17.798,29.6876,19.5626
12:37:17.810,29.7501,20.3126
12:37:17.819,30.7501,19.5001
12:37:17.829,30.7501,18.3126
12:37:17.839,30.5626,18.4376
12:37:17.849,30.4376,18.8751
12:37:17.859,30.7501,18.0626
12:37:17.869,31.6251,17.8126
12:37:17.878,31.8126,18.2501
12:37:17.889,32.7501,19.5626
12:37:17.902,34.3126,18.8126
12:37:17.910,35.4376,18.5001
12:37:17.919,37.5001,21.0626
12:37:17.929,40.0002,21.5001
12:37:17.939,40.8127,21.7501
12:37:17.949,41.1252,23.2501
12:37:17.960,42.1877,23.0626
12:37:17.971,41.8127,22.0626
12:37:17.978,41.7502,23.1251
12:37:17.989,42.0627,22.2501
12:37:17.999,41.3127,21.4376
12:37:18.009,40.4377,21.6876
12:37:18.019,41.6252,20.3126
12:37:18.029,41.0627,19.1876
12:37:18.039,41.2502,20.0626
12:37:18.049,42.0002,19.8126
12:37:18.059,42.6252,19.1876
12:37:18.069,42.8752,19.0001
12:37:18.078,43.1252,20.0626
12:37:18.088,43.5002,19.8126
12:37:18.099,42.6252,19.6876
12:37:18.109,42.3752,19.8751
12:37:18.118,42.6877,19.6876
12:37:18.129,42.9377,18.4376
12:37:18.150,43.2502,19.4376
12:37:18.151,45.5002,20.0001
12:37:18.180,45.6877,19.4376
12:37:18.183,46.0002,20.9376
12:37:18.188,46.6252,19.9376
12:37:18.189,47.0627,19.5001
12:37:18.218,46.3752,18.9376
12:37:18.221,46.6252,19.3126
12:37:18.224,45.9377,17.5001
12:37:18.230,45.3752,17.0001
12:37:18.259,45.3127,15.3126
12:37:18.261,44.1877,15.9376
12:37:18.264,43.0002,15.7501
12:37:18.274,42.7502,14.6251
12:37:18.280,41.6252,13.9376
12:37:18.295,40.0002,14.7501
12:37:18.301,39.9377,15.1251
12:37:18.309,39.1251,14.8751
12:37:18.318,38.1876,15.1251
12:37:18.329,37.5001,15.6251
12:37:18.338,36.5626,15.1251
12:37:18.348,34.8751,13.9376
12:37:18.359,33.8126,15.1876
12:37:18.369,33.3126,13.125
12:37:18.379,31.6251,12.5625
12:37:18.389,30.1251,12.1875
12:37:18.399,29.5001,10.75
12:37:18.410,27.9376,8.75
12:37:18.418,26.6876,8.9375
12:37:18.429,26.3751,8
12:37:18.438,25.5626,7.25
12:37:18.454,24.0001,6.75
12:37:18.464,23.0001,7.125
12:37:18.474,20.8126,6.0625
12:37:18.484,20.1251,4.5
12:37:18.494,18.5626,4.625
12:37:18.504,17.1876,3.8125
12:37:18.514,16.6876,1.8125
12:37:18.525,15.3751,1.5
12:37:18.537,14.8126,1.25
12:37:18.544,13.4376,-0.25
12:37:18.554,12,-0.6875
12:37:18.564,11.9375,0.5625
12:37:18.573,11.875,-0.875
12:37:18.584,10.5,-1.375
12:37:18.594,10.125,-0.6875
12:37:18.604,9.875,-1.9375
12:37:18.615,9.0625,-2.625
12:37:18.626,8.25,-3.8125
12:37:18.634,7.5625,-4.1875
12:37:18.644,7.1875,-4.375
12:37:18.654,6.6875,-5.6875
12:37:18.670,5.9375,-6.75
12:37:18.675,5.4375,-5.6875
12:37:18.684,5.5625,-6.6875
12:37:18.694,5.8125,-8.4375
12:37:18.704,4.9375,-8.8125
12:37:18.716,4.5625,-8
12:37:18.733,4.6875,-7.875
12:37:18.739,3.9375,-8.9375
12:37:18.748,3.5625,-8.4375
12:37:18.754,3.8125,-9.5625
12:37:18.783,3.125,-9.25
12:37:18.784,2.9375,-9.625
12:37:18.800,2.5,-8.75
12:37:18.816,3.125,-9.625
12:37:18.816,2.1875,-10.8125
12:37:18.819,1.9375,-10.875
12:37:18.832,2.0625,-9.75
12:37:18.837,1.4375,-9.1875
12:37:18.845,1.875,-10.1875
12:37:18.854,1.4375,-10.375
12:37:18.864,1.625,-9.0625
12:37:18.874,1.9375,-10.5
12:37:18.884,1.4375,-10.4375
12:37:18.894,1.375,-10.5
12:37:18.906,0.5,-10.0625
12:37:18.916,1.75,-10
12:37:18.924,1.75,-10.5625
12:37:18.934,1.3125,-10.75
12:37:18.944,1.125,-9.5
12:37:18.954,1.25,-9.3125
12:37:18.964,1.8125,-9
12:37:18.974,1.9375,-10.25
12:37:18.984,1.625,-9.75
12:37:18.994,1.4375,-10.0625
12:37:19.003,1.1875,-9.4375
12:37:19.014,1,-9.8125
12:37:19.024,1.4375,-8.1875
12:37:19.033,0.9375,-8.9375
12:37:19.045,0.4375,-8.8125
12:37:19.054,0.1875,-8
12:37:19.066,0.875,-8.6875
12:37:19.073,-0.0625,-8.8125
12:37:19.084,0,-8.5625
12:37:19.093,-0.0625,-7.375
12:37:19.104,0.125,-7.625
12:37:19.114,0.125,-8.25
12:37:19.124,-0.0625,-7.4375
12:37:19.133,0.8125,-7.375
12:37:19.144,0.375,-7.875
12:37:19.155,0.3125,-7.4375
12:37:19.166,0.8125,-7.625
12:37:19.174,0.5625,-8.375
12:37:19.184,0.25,-8.25
12:37:19.194,1,-7.75
12:37:19.204,0.5625,-7.625
12:37:19.214,0.6875,-6.625
12:37:19.224,1.4375,-5.125
12:37:19.234,1.875,-4.4375
12:37:19.246,2.875,-1.375
12:37:19.254,4.625,1.8125
12:37:19.264,6.0625,5
12:37:19.274,6.4375,8.875
12:37:19.284,7.8125,9.6875
12:37:19.294,7.875,9.75
12:37:19.306,7.9375,11.9375
12:37:19.314,8,11.25
12:37:19.324,7.875,10.3125
12:37:19.334,7.8125,11.25
12:37:19.344,8.25,9.625
12:37:19.354,7.6875,9.6875
12:37:19.364,7.6875,9.9375
12:37:19.374,7.875,9.1875
12:37:19.385,7.3125,8.9375
12:37:19.395,6.9375,9.75
12:37:19.404,7.8125,9.4375
12:37:19.421,8.3125,8.9375
12:37:19.426,7.8125,8.125
12:37:19.457,7.3125,6.125
12:37:19.459,6.4375,6.3125
12:37:19.463,6,5.9375
12:37:19.465,5.875,5.125
12:37:19.495,5.6875,4.4375
12:37:19.497,5.5,3.6875
12:37:19.499,4.8125,2.5625
12:37:19.507,4.5625,3.0625
12:37:19.519,4.4375,3.4375
12:37:19.544,4.875,2.5
12:37:19.546,4.375,1.875
12:37:19.549,3.8125,2.625
12:37:19.555,4,3.5
12:37:19.564,4.375,1.875
12:37:19.574,4.3125,0.8125
12:37:19.585,3.5,0.125
12:37:19.596,3.1875,1.0625
12:37:19.604,2.875,-0.25
12:37:19.613,2.875,-1.3125
12:37:19.624,2.125,-0.6875
12:37:19.634,2.625,-1.4375
12:37:19.645,2.5,-2.8125
12:37:19.656,2.5,-2.75
12:37:19.663,2.0625,-3.375
12:37:19.674,1.6875,-2.6875
12:37:19.684,2.375,-3.1875
12:37:19.694,2.1875,-4.125
12:37:19.704,1.8125,-3.6875
12:37:19.714,1.75,-3.25
12:37:19.725,2.125,-4.5
12:37:19.734,1.9375,-4.75
12:37:19.743,1.375,-4.8125
12:37:19.753,2.125,-4.5625
12:37:19.764,2.125,-4.75
12:37:19.773,1.5625,-5.3125
12:37:19.785,2,-5.3125
12:37:19.795,1.75,-5.5625
12:37:19.804,1.8125,-5.125
12:37:19.815,1.6875,-5.25
12:37:19.824,1.1875,-5.5625
12:37:19.834,1.8125,-5.0625
12:37:19.844,2.0625,-6
12:37:19.855,1.4375,-5.125
12:37:19.865,1.9375,-6.5625
12:37:19.874,1.5,-7.375
12:37:19.884,1.1875,-6.875
12:37:19.894,2.1875,-7.1875
12:37:19.904,1.75,-7.5
12:37:19.914,1.3125,-7.25
12:37:19.924,1.6875,-7.6875
12:37:19.936,1.9375,-7.9375
12:37:19.945,2.0625,-7.3125
12:37:19.954,2,-7.25
12:37:19.964,1.4375,-7.625
12:37:19.973,1.875,-6.875
12:37:19.985,1.375,-6.5
12:37:19.995,1.5,-6.4375
12:37:20.004,1.125,-7
12:37:20.014,1.5,-6.5625
12:37:20.024,1.25,-7.75
12:37:20.034,1,-6.8125
12:37:20.045,1.3125,-7.375
12:37:20.060,1.5625,-7.25
12:37:20.075,1.25,-6.5625
12:37:20.090,1.75,-6.4375
12:37:20.093,2.5,-5.5
12:37:20.108,3.3125,-4.0625
12:37:20.123,4.0625,0.125
12:37:20.126,5.8125,3.8125
12:37:20.140,7.4375,8.125
12:37:20.155,8.6875,11.5625
12:37:20.158,10.5,14.8126
12:37:20.173,11.1875,15.9376
12:37:20.175,10.9375,15.7501
12:37:20.177,10.75,16.7501
12:37:20.184,10.875,14.6876
12:37:20.194,10.6875,14.1251
12:37:20.204,10.625,14.7501
12:37:20.216,11.1875,13.8751
12:37:20.228,10.75,13.5626
12:37:20.234,10.5,13.2501
12:37:20.244,10.375,13.8126
12:37:20.254,10.875,13.6876
12:37:20.264,10.75,13.6251
12:37:20.275,10.6875,12.5
12:37:20.284,10,13.9376
12:37:20.294,10.125,12.1875
12:37:20.304,9.5625,11.375
12:37:20.315,8.6875,10.3125
12:37:20.324,8.125,8.8125
12:37:20.334,7.6875,8.3125
12:37:20.345,7.375,8.5
12:37:20.353,7.6875,7.625
12:37:20.364,6.75,5.9375
12:37:20.375,6.25,7.0625
12:37:20.384,6.6875,5.5
12:37:20.394,6.9375,5.0625
12:37:20.406,6.625,5.4375
12:37:20.414,6.125,5
12:37:20.424,6.1875,4.3125
12:37:20.435,6.125,3.0625
12:37:20.448,6,3.5
12:37:20.459,6,2.8125
12:37:20.470,5.25,2.0625
12:37:20.479,5,1.0625
12:37:20.490,5.4375,0.0625
12:37:20.503,4.625,-1.375
12:37:20.509,3.75,-1.625
12:37:20.520,4.4375,-2.1875
12:37:20.528,3.6875,-2.75
12:37:20.546,3.375,-2.0625
12:37:20.551,3.875,-3
12:37:20.558,2.6875,-4.4375
12:37:20.570,2.5625,-3.625
12:37:20.579,3,-4.0625
12:37:20.588,2.4375,-4.8125
12:37:20.601,1.875,-3.75
12:37:20.609,2.1875,-5.5625
12:37:20.620,1.875,-6.875
12:37:20.629,1.875,-6.1875
12:37:20.640,2.375,-6.75
12:37:20.649,1.5,-6.625
12:37:20.658,1.5,-6.375
12:37:20.671,2,-7.375
12:37:20.679,0.8125,-5.875
12:37:20.688,1.5625,-7.3125
12:37:20.699,1.25,-5.75
12:37:20.711,1.0625,-6.5
12:37:20.720,1.125,-7.75
12:37:20.729,1.125,-7.25
12:37:20.740,1.125,-7.3125
12:37:20.750,0.5625,-6.875
12:37:20.760,0.3125,-7.3125
12:37:20.770,0.9375,-8.5
12:37:20.778,0.375,-7.25
12:37:20.790,0.9375,-8.125
12:37:20.799,0.5,-7
12:37:20.825,1,-7.8125
12:37:20.828,1.0625,-8.25
12:37:20.830,1.1875,-7.0625
12:37:20.863,0.9375,-7.875
12:37:20.864,0.6875,-7.6875
12:37:20.866,1.0625,-7.4375
12:37:20.870,0.5625,-7.4375
12:37:20.900,0.3125,-7.6875
12:37:20.902,0.9375,-8.25
12:37:20.905,0.8125,-7.6875
12:37:20.931,1,-7
12:37:20.933,0.4375,-8.375
12:37:20.937,0.8125,-7.5625
12:37:20.940,0.8125,-8.6875
12:37:20.952,0.625,-6.75
12:37:20.959,1.1875,-7.5
12:37:20.970,1.25,-7.5625
12:37:20.980,2.375,-5.0625
12:37:20.990,3.8125,-2.25
12:37:21.000,4.6875,0.875
12:37:21.009,5.5,4.375
12:37:21.020,7.4375,8.1875
12:37:21.030,8.6875,11
12:37:21.039,8.6875,14.3751
12:37:21.051,9.9375,13.8751
12:37:21.060,9.875,13.6876
12:37:21.070,9.25,13.5001
12:37:21.079,9.625,13.1876
12:37:21.090,9.125,12.375
12:37:21.100,8.875,11.3125
12:37:21.109,9.5625,10.5
12:37:21.120,8.3125,9.0625
12:37:21.130,8.25,10.0625
12:37:21.139,8.375,9.125
12:37:21.152,7.5625,9.375
12:37:21.160,7.25,9.375
12:37:21.170,7.4375,8.125
12:37:21.180,6.625,6.5
12:37:21.190,5.8125,5.9375
12:37:21.201,5.625,5.3125
12:37:21.212,5.6875,4.125
12:37:21.220,5.1875,3.4375
12:37:21.230,4.875,3.875
12:37:21.240,5,3.25
12:37:21.250,5,3.375
12:37:21.260,5.4375,3.5
12:37:21.270,4.5,2.5625
12:37:21.280,4.25,2.9375
12:37:21.290,4.1875,2.875
12:37:21.300,4.9375,3.125
12:37:21.315,3.875,2.1875
12:37:21.327,4.0625,3.3125
12:37:21.335,4,2.8125
12:37:21.345,3.8125,1.8125
12:37:21.354,2.9375,0.25
12:37:21.375,2.4375,1.0625
12:37:21.382,2.875,-0.75
12:37:21.397,2.4375,-2.125
12:37:21.399,1.6875,-1.4375
12:37:21.409,1.5,-2.375
12:37:21.416,1.875,-2.4375
12:37:21.425,1.5,-3.875
12:37:21.446,0.875,-3.125
12:37:21.448,0.9375,-4.25
12:37:21.457,1,-4.5625
12:37:21.465,0.6875,-3.5
12:37:21.480,1.1875,-4.625
12:37:21.489,0.375,-6
12:37:21.495,-0.1875,-5.125
12:37:21.505,0.1875,-5.4375
12:37:21.515,0.75,-5.75
12:37:21.526,0.6875,-6.0625
12:37:21.535,0.875,-5.0625
12:37:21.545,0.875,-5.5625
12:37:21.555,1.125,-7.125
12:37:21.565,0.5625,-7.25
12:37:21.575,0.875,-5.9375
12:37:21.585,0.5,-6.875
12:37:21.595,0.4375,-6.1875
12:37:21.609,0.3125,-5.1875
12:37:21.615,0.9375,-6.3125
12:37:21.625,0.5,-6.8125
12:37:21.635,0.4375,-5.9375
12:37:21.646,0.5,-5.625
12:37:21.655,0.6875,-6.625
12:37:21.665,0.6875,-6.4375
12:37:21.675,1.125,-6.6875
12:37:21.685,1.5,-7.1875
12:37:21.699,1,-7.75
12:37:21.710,1.3125,-6.5625
12:37:21.715,1.5,-7.125
12:37:21.726,0.875,-7.75
12:37:21.735,0.6875,-6.3125
12:37:21.745,1.0625,-7.5625
12:37:21.755,1.25,-7.75
12:37:21.765,0.875,-6.9375
12:37:21.776,1.25,-7.6875
12:37:21.785,0.75,-7.0625
12:37:21.795,1.4375,-7.5625
12:37:21.805,0.8125,-6.3125
12:37:21.815,0.875,-6.625
12:37:21.825,2.0625,-5.125
12:37:21.835,2.8125,-1.8125
12:37:21.845,4.4375,1.625
12:37:21.855,5.9375,5.625
12:37:21.867,7.25,10.0625
12:37:21.875,9.1875,12.1875
12:37:21.885,9.1875,13.9376
12:37:21.895,10.125,15.3751
12:37:21.905,10.0625,13.9376
12:37:21.915,10,15.6251
12:37:21.925,9.75,13.4376
12:37:21.935,9.4375,13.9376
12:37:21.946,9.5625,13.7501
12:37:21.955,9.8125,12.8125
12:37:21.965,9.375,11.6875
12:37:21.975,9.5625,12.3125
12:37:21.985,10.125,12.1875
12:37:21.995,9.3125,11.75
12:37:22.005,8.75,12.25
12:37:22.015,8.8125,11.1875
12:37:22.026,8.4375,9.5
12:37:22.035,8.125,8.0625
12:37:22.045,7,7.6875
12:37:22.055,6.8125,6.8125
12:37:22.065,7,5.75
12:37:22.077,6.5625,6.1875
12:37:22.105,6.25,5.75
12:37:22.106,6.4375,4.9375
12:37:22.109,6.1875,5.1875
12:37:22.115,6.125,6
12:37:22.154,6.0625,4.5
12:37:22.158,6.4375,4.4375
12:37:22.159,5.75,4.25
12:37:22.161,5.8125,4.375
12:37:22.167,5.5,3.25
12:37:22.201,5.4375,2.6875
12:37:22.203,4.6875,2.375
12:37:22.205,4.6875,0.4375
12:37:22.210,4.3125,-0.625
12:37:22.238,2.9375,-0.3125
12:37:22.241,2.9375,-1.4375
12:37:22.244,3.5625,-2.125
12:37:22.247,3.1875,-2.6875
12:37:22.255,2.5625,-3.5
12:37:22.265,1.875,-4.4375
12:37:22.275,2,-3.8125
12:37:22.286,1.5625,-4.3125
12:37:22.295,1.625,-5.375
12:37:22.305,1.5,-5.9375
12:37:22.315,1.5625,-4.875
12:37:22.326,1.375,-6.5
12:37:22.335,0.75,-6.5625
12:37:22.345,1.25,-6.25
12:37:22.355,1.8125,-6.875
12:37:22.366,1.1875,-7.75
12:37:22.375,1.3125,-7.375
12:37:22.385,2.3125,-7.25
12:37:22.395,1.1875,-7.8125
12:37:22.405,0.875,-8.125
12:37:22.415,0.8125,-7.625
12:37:22.425,1.1875,-8.4375
12:37:22.435,0.9375,-7.875
12:37:22.451,1.4375,-7.1875
12:37:22.455,1.625,-7.5625
12:37:22.470,0.9375,-7.25
12:37:22.480,1.75,-7.9375
12:37:22.490,1.25,-8.625
12:37:22.501,0.75,-7.75
12:37:22.510,1.625,-7.125
12:37:22.520,0.6875,-8.0625
12:37:22.530,0.625,-7.5625
12:37:22.542,1.125,-8.1875
12:37:22.550,0.8125,-8.5625
12:37:22.560,0.5,-8.5625
12:37:22.570,1.125,-8.3125
12:37:22.581,0.8125,-9
12:37:22.590,0.3125,-7.5
12:37:22.600,1.0625,-8.1875
12:37:22.612,1.0625,-8.875
12:37:22.620,0.875,-8.8125
12:37:22.630,0.875,-8
12:37:22.640,1.3125,-8.125
12:37:22.655,0.375,-8.625
12:37:22.666,0.375,-8.0625
12:37:22.682,1.25,-8.625
12:37:22.692,1.1875,-8.25
12:37:22.704,1.25,-8.5
12:37:22.706,0.5625,-7.3125
12:37:22.722,2,-6.4375
12:37:22.726,2.6875,-5.875
12:37:22.735,3.25,-2.9375
12:37:22.745,4.5625,2.25
12:37:22.765,6.75,5.875
12:37:22.767,8.0625,10.125
12:37:22.782,9.375,15.8751
12:37:22.787,10.125,16.3751
12:37:22.800,10.8125,17.7501
12:37:22.806,10.625,18.7501
12:37:22.815,11.0625,18.3126
12:37:22.827,10.75,17.1876
12:37:22.835,10.0625,17.6251
12:37:22.845,10.6875,17.0626
12:37:22.856,10.25,16.1251
12:37:22.865,10.25,14.9376
12:37:22.875,9.6875,16.9376
12:37:22.885,10.75,15.5001
12:37:22.895,10.625,15.5626
12:37:22.905,10.125,15.8751
12:37:22.915,9.25,15.3751
12:37:22.925,9.375,15.8126
12:37:22.936,9.9375,14.2501
12:37:22.945,9.1875,12
12:37:22.955,9,10.8125
12:37:22.966,7.875,10.25
12:37:22.975,7.875,9.6875
12:37:22.985,8.1875,7.9375
12:37:22.995,7.5,7.6875
12:37:23.006,7.25,7.5
12:37:23.015,7.5,8.0625
12:37:23.025,7.4375,6.8125
12:37:23.035,7.375,6.1875
12:37:23.047,7,6.3125
12:37:23.055,6.625,7.375
12:37:23.065,7.0625,6
12:37:23.076,6.125,4.3125
12:37:23.085,6.25,4.5
12:37:23.095,6.1875,4.9375
12:37:23.105,5.625,3.5625
12:37:23.116,6.0625,1.5625
12:37:23.125,4.75,1.8125
12:37:23.135,4.8125,1.1875
12:37:23.145,4.375,0.8125
12:37:23.155,4.5625,-0.6875
12:37:23.165,3.5,-1.875
12:37:23.175,3.125,-1.5
12:37:23.186,3.5625,-1.6875
12:37:23.201,4.0625,-2.75
12:37:23.207,2.875,-3.4375
12:37:23.215,2.5625,-2.75
12:37:23.225,2.875,-3.875
12:37:23.235,2.4375,-5.25
12:37:23.246,2.3125,-5.25
12:37:23.255,1.625,-4.625
12:37:23.265,2.1875,-5.75
12:37:23.275,1.9375,-6.0625
12:37:23.285,1.5,-5.1875
12:37:23.297,2.1875,-6
12:37:23.305,1.625,-6.9375
12:37:23.315,1,-5.25
12:37:23.326,1.1875,-7.0625
12:37:23.335,1.0625,-7.75
12:37:23.345,0.8125,-6.5625
12:37:23.355,1.4375,-7.125
12:37:23.384,0.6875,-6.9375
12:37:23.386,0.3125,-6.4375
12:37:23.389,0.6875,-7.1875
12:37:23.395,0.125,-8.125
12:37:23.407,-0.0625,-7.125
12:37:23.415,-0.375,-7.75
12:37:23.425,0.25,-6.5625
12:37:23.435,0.5,-7.625
12:37:23.445,-0.25,-7.5625
12:37:23.455,-0.3125,-7.6875
12:37:23.465,0,-8.3125
12:37:23.476,0.0625,-7.375
12:37:23.485,-0.125,-7.9375
12:37:23.495,-0.625,-8.3125
12:37:23.505,-0.75,-7.375
12:37:23.517,-0.25,-7.75
12:37:23.526,-0.5625,-8.625
12:37:23.535,-0.9375,-8.3125
12:37:23.547,-0.8125,-7
12:37:23.556,0.0625,-8.1875
12:37:23.593,-0.75,-8.3125
12:37:23.594,0,-8.5625
12:37:23.598,-0.125,-9
12:37:23.601,0.25,-6.6875
12:37:23.629,0.9375,-6.375
12:37:23.631,1.25,-3.3125
12:37:23.634,2.625,-1.375
12:37:23.636,4.1875,2.5625
12:37:23.678,5.625,7.375
12:37:23.681,7.75,10.6875
12:37:23.683,8.625,13.5001
12:37:23.688,9,14.8751
12:37:23.689,8.5625,14.3126
12:37:23.704,9.3125,14.8126
12:37:23.706,8.5,14.3751
12:37:23.720,8.6875,13.125
12:37:23.727,8.125,13.1876
12:37:23.735,8.25,12.375
12:37:23.745,8.3125,11.5625
12:37:23.755,8,10.75
12:37:23.765,8.25,11.75
12:37:23.775,8.3125,11
12:37:23.785,7.625,11.4375
12:37:23.795,7.4375,10.6875
12:37:23.805,7.375,9.3125
12:37:23.815,6.875,8.375
12:37:23.825,6.8125,7.1875
12:37:23.835,6.25,7.3125
12:37:23.847,5.5625,6.375
12:37:23.855,6.1875,5.3125
12:37:23.865,5.5,5
12:37:23.875,5.125,6
12:37:23.885,5.25,4.5625
12:37:23.895,5.125,4.375
12:37:23.905,5.5,6.1875
12:37:23.917,5.9375,5.25
12:37:23.925,5.5,4.625
12:37:23.935,4.8125,3.9375
12:37:23.946,4.875,4.4375
12:37:23.955,4.1875,2.6875
12:37:23.965,3.625,2.875
12:37:23.976,3.75,1.4375
12:37:23.997,2.875,-0.125
12:37:24.002,2.625,-1.0625
12:37:24.008,2.375,-0.8125
12:37:24.015,2.75,-1.5625
12:37:24.037,1.6875,-2.0625
12:37:24.039,2.25,-2.875
12:37:24.049,1.875,-4.1875
12:37:24.056,1,-4.0625
12:37:24.071,1.375,-4.3125
12:37:24.079,1.5,-5.375
12:37:24.085,0.75,-6
12:37:24.109,0.625,-5.625
12:37:24.113,1.0625,-5.0625
12:37:24.129,1.3125,-5.75
12:37:24.130,0.5,-6.6875
12:37:24.137,0,-5.75
12:37:24.145,-0.375,-6.875
12:37:24.157,-0.5,-7.125
12:37:24.165,-0.8125,-6.4375
12:37:24.175,0,-5.9375
12:37:24.186,-0.8125,-7.0625
12:37:24.197,-1.1875,-6.375
12:37:24.205,-1.0625,-6
12:37:24.216,-0.8125,-7.125
12:37:24.225,-1.3125,-7.125
12:37:24.236,-0.6875,-6.8125
12:37:24.245,-0.625,-7.3125
12:37:24.255,-1.3125,-7.875
12:37:24.266,-0.6875,-6.1875
12:37:24.276,-0.0625,-7.25
12:37:24.286,-1.3125,-8
12:37:24.295,-1.4375,-7.25
12:37:24.308,-1.125,-7.125
12:37:24.316,-1.5625,-8.125
12:37:24.329,-0.375,-6.875
12:37:24.336,-1.25,-7.5
12:37:24.346,-1.5,-7.25
12:37:24.355,-1.375,-6.6875
12:37:24.365,-1.5625,-6.625
12:37:24.375,-1.0625,-6
12:37:24.387,-0.875,-6.1875
12:37:24.395,-1.125,-5.6875
12:37:24.407,-0.1875,-6.75
12:37:24.416,-1.0625,-5.5
12:37:24.426,-0.625,-5.75
12:37:24.435,-1.0625,-6.5625
12:37:24.446,-0.875,-6.1875
12:37:24.455,-0.6875,-7
12:37:24.471,-0.4375,-5.9375
12:37:24.476,-0.5,-6.3125
12:37:24.488,-0.125,-4.125
12:37:24.496,0.6875,-3.5625
12:37:24.506,2.5,-0.1875
12:37:24.515,3.9375,3.0625
12:37:24.526,6.0625,9.5625
12:37:24.535,8.5,14.0626
12:37:24.545,9.8125,17.1251
12:37:24.556,10.5625,19.1876
12:37:24.565,10.9375,20.4376
12:37:24.577,10.875,19.8751
12:37:24.586,10.75,20.0001
12:37:24.595,10.375,19.4376
12:37:24.605,10.5625,18.8126
12:37:24.616,10.6875,17.6876
12:37:24.626,10.1875,18.6876
12:37:24.635,10.375,17.5626
12:37:24.666,10.8125,18.6876
12:37:24.668,10.3125,17.7501
12:37:24.671,11,19.0626
12:37:24.676,10.1875,17.6251
12:37:24.686,10.25,17.8751
12:37:24.695,10.5,17.1876
12:37:24.705,9.25,15.8751
12:37:24.715,8.75,15.0001
12:37:24.727,8.75,14.1251
12:37:24.736,8.5,11.625
12:37:24.746,8.375,12.5625
12:37:24.755,8.0625,11.25
12:37:24.766,7.125,10.125
12:37:24.776,6.5,9.375
12:37:24.787,6.6875,9
12:37:24.796,7.75,9.25
12:37:24.806,6.5,8.6875
12:37:24.816,6.25,9.3125
12:37:24.826,6.25,8.625
12:37:24.836,5.875,7
12:37:24.846,5.375,5.9375
12:37:24.856,5.375,5.5625
12:37:24.866,5.125,4.375
12:37:24.878,4.5625,3.6875
12:37:24.886,4.1875,1.875
12:37:24.896,3.25,2.4375
12:37:24.906,3.5625,1.5625
12:37:24.915,3.625,0.125
12:37:24.925,2.875,-0.25
12:37:24.936,1.875,-0.3125
12:37:24.974,2.6875,-1.5625
12:37:24.977,2.25,-1.875
12:37:24.979,1.375,-1.5
12:37:24.981,2.1875,-2.9375
12:37:24.986,1.375,-4.4375
12:37:25.020,1,-3.3125
12:37:25.021,1.4375,-3.5
12:37:25.024,1.5625,-5
12:37:25.050,0.4375,-4.6875
12:37:25.051,0.9375,-5.25
12:37:25.053,0.5625,-6.0625
12:37:25.059,0.0625,-5.5
12:37:25.082,0,-5.5
12:37:25.085,0.125,-6.3125
12:37:25.086,-0.125,-6.25
12:37:25.098,-0.5625,-7.25
12:37:25.106,0,-6.4375
12:37:25.116,-0.5625,-7.25
12:37:25.128,-1.0625,-7.1875
12:37:25.136,-1,-7.625
12:37:25.146,-0.375,-7.125
12:37:25.156,-0.0625,-7.75
12:37:25.166,-0.9375,-8
12:37:25.177,-1.25,-7.1875
12:37:25.189,-0.875,-7.875
12:37:25.196,-0.1875,-8.125
12:37:25.206,-0.375,-8
12:37:25.220,-1.4375,-7.75
12:37:25.226,-0.875,-8.9375
12:37:25.236,-1.125,-7.8125
12:37:25.249,-1.25,-8.125
12:37:25.256,-1.0625,-9
12:37:25.266,-1.0625,-8.375
12:37:25.277,-0.5,-8.4375
12:37:25.287,-1.625,-9.0625
12:37:25.296,-1.125,-8.9375
12:37:25.306,-1.125,-9.1875
12:37:25.323,-1,-9.25
12:37:25.328,-1.3125,-9.0625
12:37:25.344,-0.3125,-8.6875
12:37:25.346,-0.25,-8.5
12:37:25.361,1.0625,-5.375
12:37:25.366,1.3125,-5.4375
12:37:25.376,2.25,-1.375
12:37:25.394,4.0625,1.9375
12:37:25.396,5.1875,7.9375
12:37:25.411,7.0625,11
12:37:25.420,7.875,13.5001
12:37:25.426,9.1875,15.7501
12:37:25.436,9.125,15.5001
12:37:25.448,9.3125,17.0626
12:37:25.456,9.375,15.0001
12:37:25.466,8.875,15.6876
12:37:25.478,8.5,13.3126
12:37:25.487,7.5625,12.9375
12:37:25.496,8.25,12.9375
12:37:25.507,8.4375,12
12:37:25.516,8.4375,11.625
12:37:25.526,7.875,12.125
12:37:25.537,9,11.75
12:37:25.546,7.875,10.5
12:37:25.556,7.6875,9.875
12:37:25.566,7.5625,9.1875
12:37:25.576,7,8.3125
12:37:25.587,6.9375,7.625
12:37:25.595,6.75,6.1875
12:37:25.606,6.625,5.1875
12:37:25.617,6.125,6.5625
12:37:25.626,6.375,5.4375
12:37:25.636,5.625,4.25
12:37:25.646,5.9375,4.5625
12:37:25.657,6.3125,4.625
12:37:25.666,5.9375,4.75
12:37:25.676,5.4375,4.4375
12:37:25.687,5.3125,3.8125
12:37:25.696,4.75,3.25
12:37:25.706,5.375,2.4375
12:37:25.717,4.6875,1.25
12:37:25.726,4.625,1.0625
12:37:25.736,4.3125,0.4375
12:37:25.746,3.75,-0.75
12:37:25.756,3.6875,-2.0625
12:37:25.766,3.25,-3.8125
12:37:25.777,2.875,-3.5625
12:37:25.787,2.4375,-3
12:37:25.796,2.375,-4.1875
12:37:25.807,2.375,-5.75
12:37:25.816,1.8125,-6.0625
12:37:25.826,2.125,-5.6875
12:37:25.837,1.75,-6.5625
12:37:25.846,1,-6.75
12:37:25.857,1.5,-5.5
12:37:25.867,1.875,-6.25
12:37:25.876,1.875,-6.75
12:37:25.887,1.375,-8.125
12:37:25.896,1.125,-7.5
12:37:25.906,0.6875,-6.9375
12:37:25.917,1.1875,-8.6875
12:37:25.945,1.5,-7.4375
12:37:25.948,0.5625,-8.8125
12:37:25.950,1,-7.75
12:37:25.957,1.0625,-8.875
12:37:25.971,0.25,-9.375
12:37:25.976,0.5,-8.8125
12:37:25.986,1.25,-9.1875
12:37:25.997,0.3125,-10.625
12:37:26.006,0.375,-8.8125
12:37:26.016,0.4375,-10.4375
12:37:26.030,0.5625,-8.8125
12:37:26.036,0.375,-9.375
12:37:26.047,0,-9.5
12:37:26.056,0.875,-9.125
12:37:26.066,0.25,-8.8125
12:37:26.077,0.125,-8.8125
12:37:26.086,0.4375,-9.75
12:37:26.097,0,-10.25
12:37:26.107,-0.25,-9.625
12:37:26.116,0.125,-9.75
12:37:26.126,-0.125,-10.5625
12:37:26.138,-0.0625,-8.5625
12:37:26.147,-0.5625,-10.375
12:37:26.157,-0.3125,-10.9375
12:37:26.167,0.5,-10.6875
12:37:26.177,0.25,-10.5625
12:37:26.186,-0.0625,-10.0625
12:37:26.198,0.5,-9.0625
12:37:26.207,1.5,-8.0625
12:37:26.217,1.875,-5.875
12:37:26.227,4.125,-1.25
12:37:26.236,5.9375,3.4375
12:37:26.248,7.8125,9.625
12:37:26.256,9.625,13.3751
12:37:26.266,10.75,15.6251
12:37:26.277,11.5,17.8751
12:37:26.286,11.5,19.0001
12:37:26.296,11.75,17.2501
12:37:26.308,12.25,18.3126
12:37:26.316,11.25,16.8126
12:37:26.326,11.3125,17.2501
12:37:26.336,11.6875,17.1251
12:37:26.346,11.5,15.9376
12:37:26.357,10.75,17.0001
12:37:26.366,11.5625,17.0001
12:37:26.377,11.0625,16.2501
12:37:26.386,11.3125,16.7501
12:37:26.396,11.125,17.5626
12:37:26.406,11.8125,16.3126
12:37:26.426,10.75,15.1876
12:37:26.428,10.0625,14.1876
12:37:26.455,10,12.9375
12:37:26.457,9.0625,10.375
12:37:26.461,8.5,11.6875
12:37:26.466,8.625,9.6875
12:37:26.499,8.125,9.1875
12:37:26.501,8.5625,8.0625
12:37:26.504,7.625,9.25
12:37:26.530,8.0625,9.125
12:37:26.532,8.5,8.875
12:37:26.535,7.375,7.125
12:37:26.542,7.5,8.125
12:37:26.555,7.125,8.0625
12:37:26.561,7.125,6.5
12:37:26.571,6.625,5.625
12:37:26.581,6.1875,5.1875
12:37:26.591,6.1875,4.8125
12:37:26.601,5.5625,3.1875
12:37:26.611,4.6875,2.375
12:37:26.631,4.9375,1.875
12:37:26.636,3.625,0.125
12:37:26.651,3.625,0.0625
12:37:26.653,3.6875,-0.4375
12:37:26.665,2.5625,-2.1875
12:37:26.673,2.375,-3.5625
12:37:26.681,2.125,-2.625
12:37:26.697,1.75,-3.625
12:37:26.714,2.0625,-5.0625
12:37:26.722,1.25,-5.25
12:37:26.737,1.8125,-5.9375
12:37:26.740,1.5625,-7.1875
12:37:26.744,1.25,-5.875
12:37:26.751,1.375,-7.25
12:37:26.762,1.4375,-7.5625
12:37:26.771,1,-7.5625
12:37:26.781,0.375,-7.3125
12:37:26.792,1,-7.6875
12:37:26.801,1.3125,-8.625
12:37:26.811,0.9375,-8.5625
12:37:26.822,0.5,-7.625
12:37:26.832,0.3125,-7.6875
12:37:26.841,0.1875,-9
12:37:26.852,-0.25,-8.125
12:37:26.861,-0.5,-8.625
12:37:26.872,-0.4375,-9.125
12:37:26.881,-0.6875,-9.125
12:37:26.891,-0.125,-8.875
12:37:26.901,0.1875,-9.75
12:37:26.911,-1.3125,-9.75
12:37:26.921,0.0625,-9.6875
12:37:26.932,-0.8125,-10.125
12:37:26.941,-1.4375,-9
12:37:26.952,-1.25,-9.9375
12:37:26.962,-0.6875,-10.75
12:37:26.971,-0.9375,-9.8125
12:37:26.982,-1.125,-10
12:37:26.991,-1.9375,-10.1875
12:37:27.001,-0.5625,-10.25
12:37:27.014,-1.4375,-10.3125
12:37:27.021,-1.25,-10.625
12:37:27.032,-1.875,-10.6875
12:37:27.041,-1.0625,-10.5
12:37:27.051,-1.5,-10.875
12:37:27.063,-0.875,-10.75
12:37:27.071,-1.8125,-11
12:37:27.081,-1.1875,-10.875
12:37:27.097,-1.4375,-10.8125
12:37:27.101,-0.8125,-9.5625
12:37:27.113,-0.75,-7.6875
12:37:27.121,1.25,-4.25
12:37:27.131,2.125,0.375
12:37:27.144,4.0625,4.125
12:37:27.151,3.9375,7.9375
12:37:27.161,4,10.625
12:37:27.171,2.875,11.625
12:37:27.183,1.4375,12.5625
12:37:27.192,-0.875,12.625
12:37:27.224,-2.875,12.75
12:37:27.226,-4,12.125
12:37:27.228,-5.875,12.125
12:37:27.234,-7.8125,11.3125
12:37:27.242,-11.3125,12.8125
12:37:27.251,-13.8751,10.5625
12:37:27.261,-19.1876,9.5
12:37:27.272,-23.6876,8.875
12:37:27.281,-26.8126,8.1875
12:37:27.294,-29.1251,8.25
12:37:27.301,-30.1876,6.3125
12:37:27.312,-31.3751,5.1875
12:37:27.321,-31.7501,5.8125
12:37:27.331,-31.6876,4.375
12:37:27.342,-31.2501,3.4375
12:37:27.351,-30.6876,4.0625
12:37:27.361,-29.3751,4.375
12:37:27.373,-29.6251,3.5625
12:37:27.381,-30.1876,4.4375
12:37:27.391,-29.1876,2.875
12:37:27.401,-29.5626,3.5625
12:37:27.411,-29.0001,2.5625
12:37:27.423,-29.0626,1.75
12:37:27.431,-28.6251,1.875
12:37:27.441,-28.5001,0.25
12:37:27.454,-27.5001,0.875
12:37:27.461,-26.6251,-1
12:37:27.472,-26.7501,-0.1875
12:37:27.481,-25.9376,-2.5
12:37:27.491,-25.6251,-3.875
12:37:27.503,-25.8126,-4.8125
12:37:27.511,-25.9376,-5.8125
12:37:27.521,-25.6251,-6.75
12:37:27.532,-26.5001,-8.5625
12:37:27.542,-27.1251,-9.4375
12:37:27.552,-26.3126,-11.25
12:37:27.561,-27.1876,-11.5
12:37:27.571,-26.6876,-14.1876
12:37:27.585,-26.8126,-14.3126
12:37:27.591,-26.6251,-15.3126
12:37:27.602,-26.8751,-16.5626
12:37:27.611,-27.1251,-16.5626
12:37:27.621,-26.8126,-18.2501
12:37:27.634,-26.2501,-17.8126
12:37:27.641,-26.6876,-18.8751
12:37:27.651,-26.0626,-18.6251
12:37:27.661,-26.1876,-20.6876
12:37:27.672,-26.1876,-20.1251
12:37:27.682,-25.3126,-21.1251
12:37:27.692,-23.1876,-20.1251
12:37:27.701,-21.4376,-19.8126
12:37:27.711,-19.6251,-19.8126
12:37:27.721,-18.3751,-21.1251
12:37:27.733,-18.3126,-22.1251
12:37:27.742,-17.7501,-23.7501
12:37:27.751,-17.6251,-25.2501
12:37:27.761,-16.0001,-24.1876
12:37:27.771,-11.375,-23.5626
12:37:27.782,-8.875,-20.7501
12:37:27.791,-6.5625,-20.2501
12:37:27.801,-5.875,-19.1251
12:37:27.823,-5.1875,-19.3751
12:37:27.825,-5.125,-18.8126
12:37:27.853,-3.9375,-19.5001
12:37:27.855,-2.75,-19.0001
12:37:27.858,-0.4375,-18.0001
12:37:27.863,0.8125,-18.0001
12:37:27.889,2.75,-16.1251
12:37:27.891,3.875,-16.3751
12:37:27.895,3.6875,-16.2501
12:37:27.920,3,-15.5001
12:37:27.922,3.75,-16.9376
12:37:27.926,2.0625,-16.1251
12:37:27.961,0.9375,-18.0001
12:37:27.962,-0.6875,-16.3126
12:37:27.965,-1.8125,-17.6876
12:37:27.970,-3.125,-13.6876
12:37:27.972,-4.375,-12.1875
12:37:27.982,-5.5,-8.875
12:37:27.992,-5.9375,-3.5625
12:37:28.006,-5.5625,0.75
12:37:28.021,-6.125,5.0625
12:37:28.024,-6.5625,5.75
12:37:28.031,-7.3125,6.4375
12:37:28.041,-7.25,7
12:37:28.052,-7.75,9
12:37:28.063,-8.5,9.0625
12:37:28.071,-11.6875,7.875
12:37:28.082,-14.8751,7.5
12:37:28.092,-17.2501,5.8125
12:37:28.102,-19.7501,4.3125
12:37:28.111,-22.0626,2.1875
12:37:28.121,-23.2501,2.25
12:37:28.132,-24.3126,0.5
12:37:28.142,-24.9376,-1.4375
12:37:28.153,-26.5626,-2.25
12:37:28.162,-27.8751,-4.125
12:37:28.171,-27.4376,-5.75
12:37:28.182,-27.8751,-7.25
12:37:28.191,-28.5626,-7.5
12:37:28.203,-29.1251,-9.1875
12:37:28.212,-30.0001,-9.3125
12:37:28.222,-30.5626,-9.1875
12:37:28.233,-29.5626,-9.8125
12:37:28.241,-29.0001,-9.5625
12:37:28.253,-27.6876,-8.0625
12:37:28.261,-25.5626,-8.1875
12:37:28.272,-23.4376,-6
12:37:28.281,-19.8126,-4.625
12:37:28.291,-17.6251,-2.75
12:37:28.303,-15.0626,-2.25
12:37:28.313,-12.0625,-1.5625
12:37:28.321,-9.125,-0.5
12:37:28.333,-9.125,-0.5625
12:37:28.341,-9.4375,-1.375
12:37:28.353,-10.9375,-2.875
12:37:28.362,-10.75,-3.375
12:37:28.373,-9.5625,-4.4375
12:37:28.381,-7.6875,-5.6875
12:37:28.392,-6.1875,-5.3125
12:37:28.401,-4.8125,-7
12:37:28.412,-4.5,-7
12:37:28.421,-2.4375,-8.5625
12:37:28.435,-0.9375,-8.75
12:37:28.442,1.3125,-8.75
12:37:28.452,3.3125,-8.4375
12:37:28.462,3.8125,-8.125
12:37:28.473,3.875,-9.25
12:37:28.504,4.625,-9.5625
12:37:28.506,6.125,-8.6875
12:37:28.509,7.125,-9
12:37:28.514,8.375,-7.6875
12:37:28.521,8.875,-8.875
12:37:28.533,9.6875,-7.875
12:37:28.543,11.625,-8.3125
12:37:28.552,14.6876,-6.375
12:37:28.563,17.6876,-5.625
12:37:28.573,20.0626,-4.875
12:37:28.582,21.0626,-3.75
12:37:28.593,19.7501,-4.3125
12:37:28.603,18.5001,-5.625
12:37:28.611,18.1876,-6.625
12:37:28.622,18.6251,-4.875
12:37:28.632,19.3751,-5.5625
12:37:28.643,19.3126,-6.625
12:37:28.652,18.2501,-6.75
12:37:28.665,15.8126,-8.6875
12:37:28.671,11.0625,-11.25
12:37:28.682,8.6875,-14.0001
12:37:28.691,5.3125,-15.1251
12:37:28.707,1.5,-17.9376
12:37:28.715,-0.5,-20.5001
12:37:28.722,-2.5,-22.7501
12:37:28.733,-3.5,-22.8126
12:37:28.743,-4.6875,-24.0001
12:37:28.753,-6.5625,-23.9376
12:37:28.761,-8.1875,-24.5001
12:37:28.772,-8.75,-26.2501
12:37:28.784,-10.75,-25.0001
12:37:28.793,-11.6875,-24.4376
12:37:28.802,-12.875,-24.3751
12:37:28.812,-15.0001,-24.2501
12:37:28.823,-17.2501,-23.8751
12:37:28.835,-19.4376,-24.1251
12:37:28.843,-21.4376,-23.5626
12:37:28.852,-22.1251,-23.8751
12:37:28.863,-22.6251,-23.3751
12:37:28.872,-23.3751,-21.5626
12:37:28.883,-23.7501,-20.5001
12:37:28.892,-24.3126,-17.0626
12:37:28.903,-24.3751,-13.1876
12:37:28.913,-25.8751,-8.9375
12:37:28.922,-26.1251,-5.5625
12:37:28.935,-27.5001,-2.75
12:37:28.943,-27.8751,-1.625
12:37:28.953,-27.5626,0.1875
12:37:28.962,-27.0626,1.6875
12:37:28.971,-26.4376,2.125
12:37:28.984,-25.3751,1.875
12:37:28.992,-25.5626,2.3125
12:37:29.003,-26.1251,3.9375
12:37:29.013,-25.3751,3
12:37:29.022,-24.7501,2.5
12:37:29.035,-23.1876,5.5625
12:37:29.043,-21.7501,5.25
12:37:29.053,-20.0001,7
12:37:29.063,-18.3751,7.75
12:37:29.072,-16.1876,7.9375
12:37:29.084,-13.6251,8.6875
12:37:29.094,-10.5625,8.625
12:37:29.103,-6.8125,10
12:37:29.113,-3.8125,10.875
12:37:29.123,-2.75,11.1875
12:37:29.135,-1.875,11.125
12:37:29.142,-1.5,10
12:37:29.153,-0.4375,10.9375
12:37:29.162,1.125,10.625
12:37:29.172,3.625,10.375
12:37:29.183,6.1875,9.875
12:37:29.192,9.25,9.8125
12:37:29.203,11.5,7.8125
12:37:29.212,12.625,6.3125
12:37:29.234,15.3751,6.5625
12:37:29.237,18.1876,5
12:37:29.254,20.2501,2.875
12:37:29.255,21.7501,2.25
12:37:29.262,24.2501,1.75
12:37:29.273,29.2501,2.75
12:37:29.283,34.0626,3.5625
12:37:29.305,37.8126,4.75
12:37:29.339,42.0627,7
12:37:29.342,45.6877,6.1875
12:37:29.344,48.1252,8.9375
12:37:29.349,47.6252,9.0625
12:37:29.349,45.5627,8.1875
12:37:29.358,43.8752,7.25
12:37:29.363,41.6252,8.625
12:37:29.396,40.8752,7.1875
12:37:29.397,39.4377,6.125
12:37:29.402,37.8126,5.5625
12:37:29.405,35.5626,3.875
12:37:29.412,32.2501,2.25
12:37:29.426,27.8751,0.625
12:37:29.433,22.7501,-1.3125
12:37:29.442,17.7501,-4.75
12:37:29.458,13.0625,-8.3125
12:37:29.462,8.8125,-10.5625
12:37:29.473,5.8125,-12.625
12:37:29.483,2.4375,-13.6251
12:37:29.493,-0.3125,-14.6876
12:37:29.503,-3.3125,-15.9376
12:37:29.512,-5.25,-16.1876
12:37:29.523,-6.6875,-15.6876
12:37:29.533,-8.9375,-16.8126
12:37:29.543,-9.8125,-15.0001
12:37:29.553,-10.75,-14.5626
12:37:29.563,-12.1875,-14.4376
12:37:29.573,-14.8126,-14.8126
12:37:29.582,-17.0001,-14.5626
12:37:29.594,-19.0626,-15.0626
12:37:29.603,-21.1876,-16.6251
12:37:29.613,-22.3126,-17.6876
12:37:29.623,-23.6876,-18.7501
12:37:29.632,-25.7501,-19.2501
12:37:29.643,-26.0626,-20.0626
12:37:29.654,-27.7501,-21.1876
12:37:29.663,-29.2501,-21.8126
12:37:29.673,-30.3126,-23.6251
12:37:29.683,-32.3751,-23.6876
12:37:29.692,-33.8126,-24.9376
12:37:29.702,-34.7501,-26.1251
12:37:29.715,-34.5001,-25.1251
12:37:29.723,-35.1251,-26.0001
12:37:29.733,-35.0626,-24.3751
12:37:29.743,-35.3126,-22.5001
12:37:29.753,-33.1876,-19.8126
12:37:29.784,-30.9376,-13.4376
12:37:29.787,-28.7501,-8.625
12:37:29.788,-26.9376,-3.9375
12:37:29.794,-26.1876,-0.375
12:37:29.804,-24.3126,2.1875
12:37:29.812,-24.5001,3.8125
12:37:29.822,-22.7501,3.6875
12:37:29.833,-22.7501,4.625
12:37:29.842,-20.1876,5.5625
12:37:29.853,-19.1251,5.375
12:37:29.862,-15.9376,6.25
12:37:29.874,-11.5625,7.1875
12:37:29.883,-7.9375,10.3125
12:37:29.893,-3.875,11.0625
12:37:29.903,-0.875,13.5001
12:37:29.912,1.3125,13.3751
12:37:29.925,1,13.6251
12:37:29.933,1.375,12.5
12:37:29.943,1.6875,12.8125
12:37:29.953,3.4375,11.4375
12:37:29.963,5.4375,11.375
12:37:29.973,8.5,10.8125
12:37:29.983,9,10.5
12:37:29.993,10.75,9.6875
12:37:30.002,12.6875,8.75
12:37:30.013,14.8126,10.375
12:37:30.023,15.5626,9.9375
12:37:30.032,14.5001,9.9375
12:37:30.043,13.8751,9
12:37:30.053,13.7501,9.5
12:37:30.063,14.1876,10.0625
12:37:30.073,14.4376,9.1875
12:37:30.082,14.4376,8.6875
12:37:30.093,15.2501,8.4375
12:37:30.102,15.3126,7.6875
12:37:30.113,15.3126,7.0625
12:37:30.123,16.3126,8.5625
12:37:30.132,17.1876,7.625
12:37:30.143,17.5626,7.3125
12:37:30.152,17.1876,6.4375
12:37:30.165,16.3751,6.25
12:37:30.172,15.8126,5.625
12:37:30.184,15.6251,4.3125
12:37:30.193,16.0001,4.0625
12:37:30.208,17.6251,5.375
12:37:30.213,20.7501,6.6875
12:37:30.223,24.0001,7.75
12:37:30.234,24.8126,7.6875
12:37:30.243,24.7501,7.25
12:37:30.252,24.1876,5.5625
12:37:30.263,22.6251,4.4375
12:37:30.272,21.6876,3.3125
12:37:30.285,19.1876,0.9375
12:37:30.293,16.3751,-1.4375
12:37:30.303,12,-3
12:37:30.313,7.6875,-6.625
12:37:30.322,3.75,-10.25
12:37:30.333,-1.5625,-13.8126
12:37:30.343,-5.6875,-16.5001
12:37:30.354,-9.125,-18.6876
12:37:30.363,-10.6875,-20.2501
12:37:30.373,-12.0625,-22.2501
12:37:30.383,-11.8125,-22.1876
12:37:30.393,-11.6875,-20.7501
12:37:30.403,-9.5,-19.9376
12:37:30.412,-8.1875,-19.5001
12:37:30.424,-7.6875,-18.3751
12:37:30.432,-7.875,-17.9376
12:37:30.443,-8.3125,-17.8751
12:37:30.453,-9.75,-17.8126
12:37:30.463,-10.0625,-17.8751
12:37:30.473,-11.875,-18.3126
12:37:30.497,-12.6875,-16.3126
12:37:30.500,-12.3125,-17.8751
12:37:30.539,-12.875,-17.5626
12:37:30.575,-13.4376,-16.9376
12:37:30.579,-15.0626,-18.8751
12:37:30.579,-18.3751,-20.1251
12:37:30.584,-20.7501,-20.9376
12:37:30.618,-22.9376,-22.5001
12:37:30.618,-24.8751,-23.8751
12:37:30.618,-26.0001,-23.9376
12:37:30.621,-26.5001,-24.1251
12:37:30.624,-27.6876,-24.8751
12:37:30.629,-28.0626,-23.5001
12:37:30.629,-27.5626,-23.0626
12:37:30.635,-28.4376,-21.5626
12:37:30.644,-28.1251,-18.5001
12:37:30.652,-27.6251,-11
12:37:30.662,-26.8751,-6.5
12:37:30.673,-26.0001,-0.5
12:37:30.682,-23.5626,2.125
12:37:30.693,-22.8751,4.5625
12:37:30.703,-21.7501,6.9375
12:37:30.713,-21.1876,6.5
12:37:30.723,-20.1251,7.0625
12:37:30.733,-19.0001,7.875
12:37:30.742,-17.7501,7.5625
12:37:30.753,-15.5626,9.8125
12:37:30.763,-12.3125,10
12:37:30.772,-9.1875,11.8125
12:37:30.785,-6.1875,14.4376
12:37:30.792,-3.1875,15.6251
12:37:30.803,-1,16.8126
12:37:30.813,1,18.0001
12:37:30.822,1.125,17.1876
12:37:30.832,1.875,18.0001
12:37:30.843,3.5,16.7501
12:37:30.853,4.5625,17.2501
12:37:30.863,7.5,16.3751
12:37:30.874,9.125,17.0001
12:37:30.882,11.9375,16.0626
12:37:30.892,12.6875,15.2501
12:37:30.903,12.1875,14.0626
12:37:30.912,12.6875,12.3125
12:37:30.923,14.1251,12.6875
12:37:30.932,14.3751,11.625
12:37:30.944,13.6876,11.75
12:37:30.952,14.0001,11.125
12:37:30.963,13.3126,9.8125
12:37:30.973,12,8.1875
12:37:30.982,10.6875,8.4375
12:37:30.993,9.5,6.4375
12:37:31.002,7.875,4.625
12:37:31.015,7.125,5.1875
12:37:31.023,7.8125,4.5625
12:37:31.034,8.5625,4.0625
12:37:31.064,8.25,3.75
12:37:31.068,10.6875,4.9375
12:37:31.069,14.2501,6.375
12:37:31.074,16.8126,7.5625
12:37:31.082,21.1876,10.8125
12:37:31.092,24.8751,11.6875
12:37:31.103,27.2501,11.6875
12:37:31.113,28.6876,11.4375
12:37:31.122,31.0001,11.9375
12:37:31.132,32.3751,12.3125
12:37:31.143,32.8751,12.0625
12:37:31.155,32.3126,9.9375
12:37:31.163,29.2501,7.875
12:37:31.173,24.5001,4.9375
12:37:31.183,18.4376,1.25
12:37:31.193,13.0625,-3.875
12:37:31.203,7,-8.25
12:37:31.213,1.1875,-13.125
12:37:31.222,-3.5,-15.5001
12:37:31.232,-6.6875,-17.8751
12:37:31.244,-8,-19.8751
12:37:31.253,-8.9375,-19.3751
12:37:31.263,-7.4375,-18.3126
12:37:31.273,-5.125,-17.2501
12:37:31.283,-2.625,-15.6251
12:37:31.293,-2.3125,-15.0626
12:37:31.303,-1.3125,-13.125
12:37:31.313,-2.625,-14.1876
12:37:31.322,-4.625,-14.7501
12:37:31.333,-7.625,-14.0001
12:37:31.343,-8.5625,-15.6876
12:37:31.354,-10.875,-16.6251
12:37:31.362,-13.6251,-17.8126
12:37:31.372,-14.0001,-18.7501
12:37:31.388,-15.5626,-19.0626
12:37:31.396,-16.2501,-18.8751
12:37:31.406,-16.1876,-20.0626
12:37:31.412,-17.3126,-19.3126
12:37:31.423,-17.9376,-21.4376
12:37:31.432,-21.3126,-21.6251
12:37:31.443,-24.1251,-24.6876
12:37:31.453,-25.6876,-26.0626
12:37:31.462,-25.5001,-24.5626
12:37:31.472,-25.8126,-25.1251
12:37:31.482,-26.3126,-24.3751
12:37:31.493,-25.3751,-23.8126
12:37:31.503,-24.5626,-22.8126
12:37:31.514,-23.5626,-21.0626
12:37:31.522,-23.6876,-20.6876
12:37:31.533,-23.1876,-20.5626
12:37:31.544,-22.3751,-19.2501
12:37:31.553,-18.7501,-16.5626
12:37:31.563,-16.6251,-12.875
12:37:31.572,-14.3126,-8.75
12:37:31.582,-11.1875,-2.875
12:37:31.592,-8.1875,4.125
12:37:31.604,-5.0625,8.5
12:37:31.613,-1.4375,11.0625
12:37:31.623,1.125,15.3126
12:37:31.633,4.0625,17.3751
12:37:31.643,5.5625,18.8751
12:37:31.653,7.1875,19.1251
12:37:31.662,8.125,19.1251
12:37:31.673,10.625,20.1876
12:37:31.682,14.8126,20.5001
12:37:31.693,16.7501,20.2501
12:37:31.703,18.6251,20.3126
12:37:31.713,20.5001,19.4376
12:37:31.724,20.0001,19.5001
12:37:31.732,18.5626,17.1876
12:37:31.743,16.4376,15.6251
12:37:31.754,13.3126,12.375
12:37:31.766,11.6875,11
12:37:31.772,9.9375,9.375
12:37:31.784,8.375,8.0625
12:37:31.793,8,9.125
12:37:31.803,9.25,9.125
12:37:31.812,11.125,9.25
12:37:31.830,11.4375,9.75
12:37:31.837,12.5625,11.25
12:37:31.851,13.9376,12.5
12:37:31.855,14.3126,11.875
12:37:31.862,12.8125,10.75
12:37:31.875,11.5,10.25
12:37:31.895,11.125,9.75
12:37:31.896,9.0625,8.0625
12:37:31.912,7.9375,6.75
12:37:31.915,7.875,7.5
12:37:31.923,8.1875,6.4375
12:37:31.932,7.5625,5.5
12:37:31.943,8.375,5.0625
12:37:31.952,9.1875,5.3125
12:37:31.966,10.0625,3.5
12:37:31.973,10.125,3.125
12:37:31.984,9.375,2.5
12:37:31.993,9.5,3.1875
12:37:32.003,8.8125,2.5625
12:37:32.033,9.0625,1.625
12:37:32.035,7.5625,0.75
12:37:32.038,6.875,1.25
12:37:32.042,6.875,0.5
12:37:32.085,6.4375,0.6875
12:37:32.087,4.75,-1.5625
12:37:32.090,2.5,-3
12:37:32.092,0.625,-1.75
12:37:32.095,-1.5,-3.9375
12:37:32.136,-3.3125,-5.3125
12:37:32.138,-5.3125,-5.4375
12:37:32.139,-5.375,-6.5625
12:37:32.144,-6.8125,-9.1875
12:37:32.145,-7.5625,-8.9375
12:37:32.160,-8.4375,-10
12:37:32.163,-10.5625,-11.8125
12:37:32.174,-12.1875,-12.75
12:37:32.185,-12.9375,-13.9376
12:37:32.194,-14.1251,-12.75
12:37:32.204,-14.6876,-13.9376
12:37:32.214,-15.6251,-13.9376
12:37:32.224,-17.0626,-14.1251
12:37:32.234,-16.5001,-15.2501
12:37:32.243,-18.0626,-16.1251
12:37:32.254,-19.1876,-16.0626
12:37:32.264,-19.5001,-16.2501
12:37:32.274,-20.3751,-16.1251
12:37:32.284,-21.0001,-17.2501
12:37:32.296,-20.3126,-17.4376
12:37:32.303,-21.1251,-17.3126
12:37:32.313,-21.5001,-18.1251
12:37:32.344,-21.7501,-17.5626
12:37:32.346,-21.8126,-17.1876
12:37:32.348,-23.0001,-18.1251
12:37:32.354,-24.3751,-17.5626
12:37:32.364,-24.6876,-19.0626
12:37:32.374,-26.1251,-18.3126
12:37:32.382,-25.5626,-18.8126
12:37:32.394,-25.6251,-18.3751
12:37:32.402,-26.1251,-19.0001
12:37:32.414,-26.9376,-17.7501
12:37:32.424,-25.6251,-16.1876
12:37:32.435,-24.6251,-14.1251
12:37:32.444,-22.5626,-7.75
