timestamp,Red,IR
14:00:44.656,-29.4376,-59.8752
14:00:44.665,-32.1251,-65.7502
14:00:44.675,-33.9376,-70.0003
14:00:44.686,-36.6876,-75.0003
14:00:44.695,-37.9376,-79.6878
14:00:44.705,-39.4377,-82.9378
14:00:44.715,-40.7502,-86.6878
14:00:44.725,-42.5627,-89.3128
14:00:44.753,-44.6252,-93.5004
14:00:44.757,-45.1877,-97.2504
14:00:44.759,-46.3752,-98.7504
14:00:44.765,-47.6252,-103.2504
14:00:44.776,-49.5002,-106.3754
14:00:44.786,-50.8752,-108.8129
14:00:44.795,-52.8752,-111.8129
14:00:44.805,-53.7502,-115.4379
14:00:44.815,-54.6252,-117.6255
14:00:44.825,-56.1877,-120.313
14:00:44.835,-56.5002,-122.813
14:00:44.845,-54.0627,-121.2505
14:00:44.855,-48.5627,-112.0004
14:00:44.866,-37.0001,-93.8129
14:00:44.875,-23.3126,-67.9378
14:00:44.886,-10,-40.6877
14:00:44.895,4,-14.2501
14:00:44.905,15.6251,12.6875
14:00:44.915,27.2501,36.0001
14:00:44.925,36.0001,56.8127
14:00:44.935,42.5627,74.9378
14:00:44.945,48.0627,88.1253
14:00:44.955,51.0002,98.3754
14:00:44.965,53.4377,105.3129
14:00:44.975,53.6252,109.5629
14:00:44.986,52.8752,110.1879
14:00:44.995,52.5002,112.1254
14:00:45.010,50.8752,110.7504
14:00:45.025,49.5002,107.6254
14:00:45.029,47.0002,104.6879
14:00:45.066,45.0627,99.0004
14:00:45.070,43.3752,94.8129
14:00:45.072,40.0627,89.5628
14:00:45.073,36.8751,82.6253
14:00:45.077,33.0001,75.3128
14:00:45.085,29.8126,68.2503
14:00:45.128,26.4376,61.3127
14:00:45.129,22.8126,55.2502
14:00:45.131,21.1251,48.3127
14:00:45.134,19.0626,44.5002
14:00:45.139,18.2501,41.4377
14:00:45.163,17.2501,39.2502
14:00:45.166,17.4376,37.7501
14:00:45.168,16.5626,36.2501
14:00:45.175,16.8126,35.2501
14:00:45.218,16.5626,34.1876
14:00:45.222,14.8751,32.7501
14:00:45.223,14.1876,30.0001
14:00:45.225,12,26.2501
14:00:45.229,9.25,23.2501
14:00:45.236,8.0625,18.0001
14:00:45.245,4.3125,12.9375
14:00:45.255,2,6.9375
14:00:45.270,-1.0625,0.5625
14:00:45.277,-4.5625,-5.3125
14:00:45.285,-7.75,-12.9375
14:00:45.295,-10.375,-19.2501
14:00:45.306,-13.4376,-25.0001
14:00:45.315,-16.5626,-31.1876
14:00:45.325,-19.1251,-36.7501
14:00:45.335,-22.1251,-42.7502
14:00:45.345,-24.3126,-48.5002
14:00:45.355,-26.8126,-53.6877
14:00:45.365,-29.6876,-58.8752
14:00:45.376,-31.7501,-64.4377
14:00:45.385,-33.5001,-69.4378
14:00:45.395,-35.1876,-72.3128
14:00:45.405,-36.8126,-76.3128
14:00:45.415,-37.6876,-80.1253
14:00:45.426,-39.3126,-85.1253
14:00:45.436,-40.6877,-87.0003
14:00:45.445,-42.5002,-90.6254
14:00:45.455,-43.8127,-94.3129
14:00:45.465,-45.6252,-97.1254
14:00:45.475,-46.8127,-100.0629
14:00:45.485,-48.5002,-103.3754
14:00:45.496,-49.8127,-106.3129
14:00:45.505,-51.5627,-108.7504
14:00:45.515,-52.1877,-113.0629
14:00:45.525,-53.0002,-116.3129
14:00:45.535,-55.8752,-119.188
14:00:45.546,-54.8127,-121.0005
14:00:45.555,-51.0002,-114.8754
14:00:45.566,-42.0627,-102.3129
14:00:45.576,-29.6876,-78.5003
14:00:45.585,-16.1876,-52.3752
14:00:45.597,-1.625,-24.9376
14:00:45.605,10.625,3.625
14:00:45.615,22.8126,27.8751
14:00:45.625,33.7501,50.0627
14:00:45.635,40.3127,70.3753
14:00:45.645,47.0627,84.3753
14:00:45.656,51.3127,98.6879
14:00:45.666,54.0002,105.6879
14:00:45.675,55.3752,111.5004
14:00:45.686,55.6252,114.3754
14:00:45.696,54.7502,116.6254
14:00:45.706,53.3752,116.5004
14:00:45.716,52.0002,112.7504
14:00:45.726,49.8127,110.3754
14:00:45.735,47.8127,105.6879
14:00:45.745,46.4377,101.5629
14:00:45.755,43.1252,96.6879
14:00:45.765,40.8127,90.2503
14:00:45.784,36.8751,82.6253
14:00:45.786,32.8751,75.2503
14:00:45.801,29.5626,68.1253
14:00:45.806,26.3126,60.8752
14:00:45.841,23.6251,55.4377
14:00:45.843,21.0626,50.2502
14:00:45.845,19.6876,45.6877
14:00:45.848,18.3126,43.0002
14:00:45.880,18.0626,40.1252
14:00:45.882,17.3126,40.1252
14:00:45.885,16.7501,37.8126
14:00:45.889,16.2501,36.6251
14:00:45.895,15.8126,36.1876
14:00:45.930,14.7501,32.3751
14:00:45.932,13.0625,30.1251
14:00:45.934,11.625,26.5626
14:00:45.937,9.4375,22.0626
14:00:45.971,7.1875,17.8751
14:00:45.973,4.3125,12.75
14:00:45.975,1.5,6.4375
14:00:45.978,-1.9375,-0.4375
14:00:45.986,-4.875,-6.0625
14:00:45.996,-8.25,-12.4375
14:00:46.006,-11.9375,-18.0001
14:00:46.034,-13.7501,-26.1251
14:00:46.038,-17.3126,-31.4376
14:00:46.039,-20.2501,-38.1876
14:00:46.053,-22.9376,-45.1877
14:00:46.055,-25.4376,-49.5002
14:00:46.066,-27.6876,-55.6877
14:00:46.078,-29.8751,-60.3127
14:00:46.087,-32.3751,-65.8128
14:00:46.096,-34.9376,-69.5628
14:00:46.106,-36.1251,-73.4378
14:00:46.117,-37.4376,-77.8753
14:00:46.127,-39.5002,-81.3128
14:00:46.137,-40.0627,-84.1253
14:00:46.146,-41.5002,-87.0003
14:00:46.157,-43.8752,-90.4378
14:00:46.165,-44.6252,-93.9379
14:00:46.177,-46.3752,-97.0629
14:00:46.186,-48.0002,-101.3129
14:00:46.195,-48.6877,-102.6254
14:00:46.206,-50.5002,-107.1879
14:00:46.215,-51.7502,-109.6254
14:00:46.227,-53.8127,-111.9379
14:00:46.237,-55.0627,-116.1254
14:00:46.246,-55.5627,-118.813
14:00:46.256,-55.2502,-118.188
14:00:46.266,-50.7502,-113.6879
14:00:46.276,-41.0627,-97.5004
14:00:46.286,-28.3751,-75.0628
14:00:46.305,-14.1251,-47.8752
14:00:46.311,-1.4375,-19.6876
14:00:46.326,11.5625,6.5
14:00:46.329,23.5001,31.4376
14:00:46.336,31.3126,52.1877
14:00:46.347,39.2501,70.2503
14:00:46.356,45.3127,86.2503
14:00:46.366,49.1252,96.1254
14:00:46.376,51.1877,104.7504
14:00:46.386,51.6252,107.3754
14:00:46.397,50.8752,110.0004
14:00:46.407,49.6877,109.9379
14:00:46.416,48.5002,109.1879
14:00:46.427,46.5627,107.3129
14:00:46.436,44.2502,101.8129
14:00:46.447,41.6877,98.8754
14:00:46.456,40.0627,92.8754
14:00:46.467,37.1251,88.4378
14:00:46.482,33.6251,81.3128
14:00:46.486,30.3126,72.6878
14:00:46.497,26.6876,65.5628
14:00:46.506,22.5626,57.6252
14:00:46.516,19.5001,50.9377
14:00:46.526,17.6251,44.5627
14:00:46.536,15.1876,40.7502
14:00:46.547,15.3126,38.5626
14:00:46.566,13.9376,35.4376
14:00:46.569,13.1876,34.4376
14:00:46.597,13.6876,33.0001
14:00:46.599,12.5625,32.5001
14:00:46.601,12.125,31.2501
14:00:46.608,11.4375,28.6251
14:00:46.646,10.3125,27.5626
14:00:46.650,8.9375,23.1251
14:00:46.651,7.5625,20.8126
14:00:46.657,5.25,15.3751
14:00:46.659,3.5,11.5
14:00:46.673,0.1875,6.1875
14:00:46.679,-2.4375,0.3125
14:00:46.711,-5.75,-5.9375
14:00:46.714,-8.625,-11.5625
14:00:46.722,-12.25,-19.6251
14:00:46.726,-15.1251,-25.6251
14:00:46.739,-17.9376,-31.6251
14:00:46.741,-21.5001,-38.0626
14:00:46.747,-23.6251,-44.1877
14:00:46.757,-26.1876,-49.0627
14:00:46.767,-28.7501,-54.5002
14:00:46.777,-30.6251,-60.0002
14:00:46.787,-33.6251,-65.4377
14:00:46.802,-35.6876,-70.2503
14:00:46.806,-36.6876,-74.3753
14:00:46.816,-38.8126,-77.3128
14:00:46.827,-40.5627,-82.7503
14:00:46.837,-42.6252,-85.5003
14:00:46.848,-43.1877,-89.1253
14:00:46.856,-44.5627,-90.7504
14:00:46.868,-45.9377,-95.3129
14:00:46.878,-47.1877,-97.7504
14:00:46.887,-48.9377,-100.6879
14:00:46.896,-50.1252,-104.5629
14:00:46.906,-51.7502,-106.6254
14:00:46.918,-53.1877,-110.9379
14:00:46.926,-54.2502,-114.4379
14:00:46.938,-55.5627,-115.4379
14:00:46.947,-56.5002,-119.7505
14:00:46.957,-57.5627,-121.938
14:00:46.967,-57.8127,-122.0005
14:00:46.977,-53.8127,-118.063
14:00:47.002,-44.8127,-103.1254
14:00:47.006,-31.0626,-80.7503
14:00:47.007,-18.1251,-52.6877
14:00:47.016,-4.375,-27.0626
14:00:47.027,8.5625,0.5
14:00:47.037,19.1251,24.6876
14:00:47.048,28.8751,45.7502
14:00:47.060,36.0626,64.9378
14:00:47.074,41.8752,78.6253
14:00:47.090,45.9377,89.8753
14:00:47.098,47.6877,97.0004
14:00:47.101,49.0002,102.9379
14:00:47.114,48.8752,103.1879
14:00:47.136,47.8127,103.8129
14:00:47.136,45.6252,102.2504
14:00:47.143,43.4377,100.3129
14:00:47.148,41.1252,97.8129
14:00:47.162,39.0626,92.1254
14:00:47.168,37.6251,87.8128
14:00:47.182,33.3126,82.1253
14:00:47.193,30.1876,73.7503
14:00:47.202,26.0626,65.7503
14:00:47.214,22.8126,58.3127
14:00:47.223,19.1876,51.0627
14:00:47.231,16.2501,44.9377
14:00:47.242,14.0001,40.3752
14:00:47.254,12.875,35.7501
14:00:47.264,12,33.4376
14:00:47.275,11.8125,32.9376
14:00:47.285,12,31.0001
14:00:47.315,11.4375,30.8126
14:00:47.317,12.25,30.8751
14:00:47.319,12.3125,30.6251
14:00:47.321,11,29.2501
14:00:47.356,10.125,25.7501
14:00:47.356,7,22.8751
14:00:47.363,5.5625,18.6251
14:00:47.386,4,14.5626
14:00:47.386,1.375,9.9375
14:00:47.386,-1.875,4.75
14:00:47.393,-4.6875,-1.1875
14:00:47.406,-7.6875,-7.5625
14:00:47.414,-11,-13.2501
14:00:47.448,-13.6251,-20.0001
14:00:47.452,-16.6251,-26.5001
14:00:47.454,-19.8126,-30.9376
14:00:47.457,-22.1876,-38.6251
14:00:47.461,-24.8751,-44.4377
14:00:47.493,-27.4376,-50.1877
14:00:47.493,-28.6876,-54.2502
14:00:47.496,-32.0001,-58.8127
14:00:47.512,-33.9376,-63.9377
14:00:47.521,-35.3751,-68.5003
14:00:47.531,-37.1251,-71.5003
14:00:47.532,-37.8751,-74.6253
14:00:47.542,-39.7502,-78.5003
14:00:47.553,-40.9377,-81.8128
14:00:47.561,-43.4377,-85.3753
14:00:47.585,-43.3127,-88.0628
14:00:47.591,-46.0627,-91.1254
14:00:47.594,-46.3752,-94.0629
14:00:47.610,-48.6877,-97.1879
14:00:47.628,-48.8127,-99.7504
14:00:47.641,-50.3127,-102.0629
14:00:47.648,-51.3127,-105.0629
14:00:47.666,-51.8752,-106.2504
14:00:47.666,-49.3752,-104.8754
14:00:47.666,-42.1252,-93.0629
14:00:47.685,-31.5001,-75.8753
14:00:47.688,-18.5001,-51.8127
14:00:47.698,-6.125,-25.8126
14:00:47.708,5.5625,-0.4375
14:00:47.717,16.4376,22.1876
14:00:47.729,25.3126,43.7502
14:00:47.739,32.4376,60.6877
14:00:47.752,38.4376,75.2503
14:00:47.752,42.3127,87.8128
14:00:47.770,44.8752,93.6879
14:00:47.772,45.1877,99.0629
14:00:47.785,45.1252,99.5629
14:00:47.792,43.3127,99.2504
14:00:47.822,41.5627,97.3754
14:00:47.822,38.5001,95.8129
14:00:47.826,36.7501,89.9378
14:00:47.835,34.0001,85.5628
14:00:47.848,30.6251,79.2503
14:00:47.853,27.6876,71.6253
14:00:47.862,23.0001,64.3127
14:00:47.876,19.1251,53.5627
14:00:47.891,14.9376,45.5627
14:00:47.893,11.125,37.2501
14:00:47.916,9,31.1251
14:00:47.916,7,26.5626
14:00:47.927,5.9375,23.5001
14:00:47.936,6.5625,21.9376
14:00:47.941,5.75,21.3751
14:00:47.961,6.6875,20.8126
14:00:47.961,6.8125,21.3126
14:00:47.978,6.625,21.0001
14:00:47.987,7.0625,19.8751
14:00:48.002,6.3125,19.6251
14:00:48.002,6.0625,17.5626
14:00:48.011,4,15.1876
14:00:48.021,2.75,10.6875
14:00:48.038,0.0625,7.75
14:00:48.041,-1.6875,2.9375
14:00:48.072,-4,-2
14:00:48.082,-6.875,-6.875
14:00:48.082,-9.5625,-12.5
14:00:48.084,-12.625,-18.3751
14:00:48.121,-14.8751,-25.3751
14:00:48.124,-18.5001,-30.6876
14:00:48.126,-20.6876,-35.6251
14:00:48.129,-23.1876,-42.4377
14:00:48.134,-26.7501,-48.2502
14:00:48.163,-28.3751,-53.0002
14:00:48.168,-31.0001,-58.5002
14:00:48.169,-32.6876,-62.1877
14:00:48.191,-34.0626,-67.1253
14:00:48.193,-36.5001,-72.0628
14:00:48.202,-38.3751,-74.4378
14:00:48.208,-40.4377,-79.6253
14:00:48.221,-42.1877,-82.4378
14:00:48.224,-42.7502,-86.1878
14:00:48.232,-44.6252,-89.1878
14:00:48.243,-46.5627,-92.5004
14:00:48.251,-47.9377,-96.5004
14:00:48.266,-48.7502,-99.0629
14:00:48.271,-50.7502,-101.9379
14:00:48.281,-51.6252,-105.0629
14:00:48.291,-52.5002,-107.2504
14:00:48.305,-51.1877,-107.4379
14:00:48.311,-46.2502,-99.9379
14:00:48.323,-35.7501,-82.8753
14:00:48.334,-22.6876,-59.1252
14:00:48.341,-9,-33.7501
14:00:48.351,3.4375,-5.25
14:00:48.361,15.8751,19.8751
14:00:48.371,26.8126,43.0627
14:00:48.381,35.2501,63.7502
14:00:48.398,41.9377,80.4378
14:00:48.414,47.1252,95.1254
14:00:48.415,51.2502,105.0629
14:00:48.430,53.5002,113.0629
14:00:48.433,53.3127,116.1254
14:00:48.449,53.1252,119.188
14:00:48.453,51.5627,118.063
14:00:48.461,50.1877,116.9379
14:00:48.473,48.0627,113.1879
14:00:48.483,46.5627,109.9379
14:00:48.491,43.7502,105.0629
14:00:48.503,41.8752,100.3129
14:00:48.513,39.2502,94.1254
14:00:48.522,35.6876,87.7503
14:00:48.531,31.6876,79.7503
14:00:48.541,28.2501,71.9378
14:00:48.551,25.3751,64.2502
14:00:48.563,22.5001,58.2502
14:00:48.595,20.5626,52.0002
14:00:48.598,18.8751,48.1877
14:00:48.600,17.0626,44.6877
14:00:48.606,16.8126,42.6252
14:00:48.613,16.7501,41.6252
14:00:48.621,16.3126,40.5627
14:00:48.631,16.5626,40.0002
14:00:48.642,15.7501,38.5001
14:00:48.651,15.3751,37.3751
14:00:48.662,13.9376,35.1876
14:00:48.672,12.6875,32.7501
14:00:48.694,10.875,28.6876
14:00:48.696,9.25,24.9376
14:00:48.711,6.75,20.0001
14:00:48.715,3.9375,14.3126
14:00:48.741,0.6875,8.8125
14:00:48.744,-1.4375,2.8125
14:00:48.748,-5.25,-3.4375
14:00:48.753,-8.4375,-10
14:00:48.764,-10.875,-16.3126
14:00:48.776,-14.2501,-22.5626
14:00:48.810,-16.5626,-28.1251
14:00:48.812,-19.4376,-35.2501
14:00:48.815,-22.3126,-40.6252
14:00:48.819,-23.9376,-45.6252
14:00:48.823,-26.5001,-50.0002
14:00:48.833,-28.4376,-54.6252
14:00:48.862,-30.3126,-58.8752
14:00:48.866,-32.3126,-64.1877
14:00:48.868,-33.3751,-67.6253
14:00:48.874,-35.7501,-72.1878
14:00:48.882,-37.3126,-75.5003
14:00:48.893,-39.2502,-78.8753
14:00:48.903,-41.0002,-83.6878
14:00:48.918,-42.5002,-86.0628
14:00:48.925,-43.3127,-91.0004
14:00:48.934,-44.6877,-93.1879
14:00:48.947,-45.2502,-96.0629
14:00:48.952,-42.5002,-92.3754
14:00:48.963,-35.7501,-82.3753
14:00:48.972,-25.0001,-62.8127
14:00:48.982,-11.9375,-39.5002
14:00:48.992,0.6875,-13.3751
14:00:49.001,13.5626,12.3125
14:00:49.012,25.0001,36.6876
14:00:49.021,34.9376,58.8127
14:00:49.033,41.8752,77.3753
14:00:49.042,47.2502,94.5004
14:00:49.056,52.5002,107.0629
14:00:49.064,55.1252,115.0004
14:00:49.073,56.3752,121.1255
14:00:49.082,56.6252,124.688
14:00:49.092,56.0002,125.438
14:00:49.104,54.1877,123.8755
14:00:49.112,53.5627,121.313
14:00:49.122,49.6252,116.0004
14:00:49.132,48.0627,111.8129
14:00:49.142,45.6252,107.6254
14:00:49.152,42.9377,100.8129
14:00:49.162,39.7502,95.0629
14:00:49.172,36.3751,87.7503
14:00:49.181,32.7501,79.8128
14:00:49.192,29.7501,72.4378
14:00:49.202,26.4376,65.5003
14:00:49.212,23.9376,58.7502
14:00:49.222,20.3751,53.7502
14:00:49.233,19.6251,49.4377
14:00:49.245,18.6251,45.3752
14:00:49.254,17.3126,43.8127
14:00:49.263,16.8126,43.0627
14:00:49.273,17.1876,40.6877
14:00:49.283,16.3126,40.4377
14:00:49.294,15.7501,38.2501
14:00:49.302,15.0001,36.6876
14:00:49.312,13.8126,34.2501
14:00:49.322,11.3125,29.8751
14:00:49.332,10,26.0626
14:00:49.343,7.1875,21.2501
14:00:49.352,5.625,16.2501
14:00:49.362,1.5,10
14:00:49.373,-0.6875,4.375
14:00:49.382,-3.625,-1.25
14:00:49.395,-7.25,-8.1875
14:00:49.406,-10.3125,-14.6876
14:00:49.413,-13.1876,-21.6251
14:00:49.423,-16.4376,-27.6876
14:00:49.433,-18.3751,-34.0626
14:00:49.443,-21.4376,-39.5002
14:00:49.453,-22.9376,-44.5002
14:00:49.463,-26.0001,-49.4377
14:00:49.472,-27.6876,-53.3752
14:00:49.483,-29.3126,-58.3127
14:00:49.517,-30.7501,-62.2502
14:00:49.520,-32.6251,-66.8753
14:00:49.522,-33.9376,-70.3753
14:00:49.550,-36.2501,-74.8753
14:00:49.552,-37.5626,-78.6878
14:00:49.554,-40.0627,-82.7503
14:00:49.557,-40.6877,-86.3753
14:00:49.570,-43.6252,-90.6253
14:00:49.572,-44.6877,-94.4379
14:00:49.582,-45.3752,-96.8754
14:00:49.594,-46.5002,-99.9379
14:00:49.635,-45.3752,-99.6879
14:00:49.638,-41.3127,-92.1879
14:00:49.640,-31.4376,-78.6878
14:00:49.643,-18.8751,-56.2502
14:00:49.648,-7,-31.3751
14:00:49.654,6.25,-5.5
14:00:49.672,17.6251,20.5626
14:00:49.675,27.5626,42.7502
14:00:49.682,36.0626,62.8752
14:00:49.693,42.9377,80.0628
14:00:49.703,48.6252,94.1879
14:00:49.718,51.3752,105.3754
14:00:49.725,53.4377,110.7504
14:00:49.732,54.6877,116.2504
14:00:49.747,53.3752,118.1255
14:00:49.756,51.7502,117.0629
14:00:49.762,50.8752,115.0629
14:00:49.773,48.3752,109.3129
14:00:49.782,46.7502,106.5004
14:00:49.793,44.1877,99.8129
14:00:49.806,41.8752,96.3129
14:00:49.813,38.1876,90.8754
14:00:49.823,35.1251,82.3128
14:00:49.832,31.7501,74.9378
14:00:49.843,28.0626,66.6253
14:00:49.874,24.7501,59.4377
14:00:49.877,21.6251,52.4377
14:00:49.880,19.8751,47.0627
14:00:49.885,18.0626,42.9377
14:00:49.898,16.4376,40.5002
14:00:49.907,15.5001,37.8751
14:00:49.918,15.4376,35.8126
14:00:49.927,15.1876,34.5001
14:00:49.938,15.1876,34.1876
14:00:49.948,14.8126,32.1251
14:00:49.958,13.7501,31.6251
14:00:49.968,12.375,28.2501
14:00:49.978,10.875,25.2501
14:00:49.988,9.125,22.1876
14:00:49.997,6.3125,17.8751
14:00:50.008,3.9375,11.5
14:00:50.018,1.5,6.4375
14:00:50.027,-2.0625,0.5
14:00:50.037,-4.375,-5.6875
14:00:50.047,-7.625,-12.4375
14:00:50.058,-11.25,-19.5001
14:00:50.068,-14.6876,-27.9376
14:00:50.078,-17.5001,-33.3751
14:00:50.087,-19.9376,-39.0001
14:00:50.097,-22.5001,-44.5002
14:00:50.108,-24.6876,-49.2502
14:00:50.118,-26.5001,-54.9377
14:00:50.127,-28.3751,-58.3127
14:00:50.138,-30.3126,-64.3127
14:00:50.148,-31.7501,-66.5628
14:00:50.158,-32.5626,-70.6253
14:00:50.168,-35.5001,-74.0628
14:00:50.197,-37.2501,-78.3128
14:00:50.201,-38.1876,-82.1878
14:00:50.202,-39.5627,-84.9378
14:00:50.210,-41.6877,-89.3753
14:00:50.281,-43.0002,-92.5004
14:00:50.356,-44.7502,-95.8129
14:00:50.358,-45.8752,-100.3129
14:00:50.360,-46.1252,-101.5004
14:00:50.367,-47.5627,-102.6879
14:00:50.368,-45.1252,-101.6254
14:00:50.368,-38.4376,-92.6879
14:00:50.374,-28.4376,-74.6878
14:00:50.390,-16.0626,-51.5627
14:00:50.392,-3.125,-25.5001
14:00:50.403,8.1875,-1.5
14:00:50.413,19.0626,22.4376
14:00:50.423,27.5626,42.8127
14:00:50.432,35.8126,61.6252
14:00:50.442,41.1252,78.3753
14:00:50.453,45.3752,89.3753
14:00:50.462,48.5002,97.0629
14:00:50.474,48.9377,102.8754
14:00:50.483,48.7502,106.5629
14:00:50.492,48.0002,105.8129
14:00:50.503,46.0627,105.0629
14:00:50.512,44.3127,101.1879
14:00:50.523,41.6252,96.5004
14:00:50.533,18.3751,48.3127
14:00:50.542,17.1876,44.5627
14:00:50.553,17.1251,42.1252
14:00:50.562,16.9376,41.5627
14:00:50.573,16.0626,40.3752
14:00:50.583,15.8751,40.1252
14:00:50.592,15.7501,38.8126
14:00:50.602,14.5626,38.2501
14:00:50.614,14.1876,36.1251
14:00:50.623,12.625,32.8126
14:00:50.633,11.8125,30.4376
14:00:50.642,9.5625,25.8751
14:00:50.652,7.0625,22.3126
14:00:50.663,4.625,16.6876
14:00:50.672,1.5625,11.3125
14:00:50.682,-1.0625,5.5625
14:00:50.693,-3.5,0.5
14:00:50.702,-6.3125,-5.875
14:00:50.712,-9.875,-12.1875
14:00:50.723,-12,-17.5001
14:00:50.733,-15.4376,-23.9376
14:00:50.743,-17.8751,-28.6876
14:00:50.752,-20.0626,-34.4376
14:00:50.766,-22.1251,-39.5002
14:00:50.772,-23.6876,-43.3127
14:00:50.782,-25.8751,-48.5627
14:00:50.792,-27.1251,-52.3127
14:00:50.802,-28.6876,-56.4377
14:00:50.814,-30.5626,-60.0002
14:00:50.823,-32.4376,-63.7502
14:00:50.833,-33.3126,-68.1253
14:00:50.842,-35.4376,-71.3128
14:00:50.852,-36.6876,-75.6253
14:00:50.862,-39.0627,-78.5003
14:00:50.873,-40.9377,-83.4378
14:00:50.882,-41.0002,-85.3753
14:00:50.893,-43.0002,-88.6878
14:00:50.902,-41.7502,-89.8128
14:00:50.912,-37.9376,-84.6878
14:00:50.922,-31.4376,-71.6253
14:00:50.933,-19.9376,-53.7502
14:00:50.970,-7.8125,-30.6251
14:00:50.973,3.3125,-6.5
14:00:50.975,13.5626,15.8126
14:00:50.978,22.7501,37.2501
14:00:50.984,31.2501,55.8127
14:00:51.017,38.1876,72.8753
14:00:51.021,42.5627,87.5003
14:00:51.116,46.0002,96.6254
14:00:51.119,48.2502,103.6879
14:00:51.156,47.8752,107.9379
14:00:51.158,47.7502,109.1254
14:00:51.160,46.4377,108.5004
14:00:51.161,44.2502,103.9379
14:00:51.161,42.1252,99.6879
14:00:51.175,39.1876,95.5629
14:00:51.179,36.6251,88.4378
14:00:51.189,34.5626,84.0628
14:00:51.198,30.1876,77.0003
14:00:51.209,26.3126,68.5628
14:00:51.218,22.7501,59.1877
14:00:51.229,19.0001,52.6252
14:00:51.238,16.1876,45.8752
14:00:51.247,13.0625,39.6877
14:00:51.259,11.375,34.8126
14:00:51.267,10.375,31.1251
14:00:51.279,10.125,29.3126
14:00:51.290,10.25,29.6251
14:00:51.297,9.8125,27.7501
14:00:51.309,9.75,26.7501
14:00:51.319,9.4375,25.7501
14:00:51.327,-7.6875,-7.3125
14:00:51.339,-10.6875,-12.6875
14:00:51.347,-13.6876,-18.6251
14:00:51.364,-15.3126,-24.8751
14:00:51.374,-18.6876,-29.9376
14:00:51.383,-21.0626,-36.3126
14:00:51.394,-23.5001,-41.1877
14:00:51.404,-25.7501,-46.1252
14:00:51.413,-27.0626,-51.6252
14:00:51.424,-29.4376,-55.3752
14:00:51.434,-30.6251,-59.5627
14:00:51.444,-32.4376,-62.9377
14:00:51.453,-34.6876,-67.5003
14:00:51.464,-35.5626,-70.6253
14:00:51.474,-37.3751,-74.1253
14:00:51.484,-39.5627,-78.2503
14:00:51.494,-39.5002,-81.1253
14:00:51.503,-42.3752,-85.3128
14:00:51.512,-43.1252,-89.0628
14:00:51.524,-46.0627,-93.4379
14:00:51.533,-46.5627,-94.5004
14:00:51.550,-45.1252,-95.7504
14:00:51.553,-40.0627,-88.6253
14:00:51.564,-30.6876,-73.4378
14:00:51.574,-19.2501,-53.3127
14:00:51.589,-7.375,-27.6876
14:00:51.597,5.125,-3.5
14:00:51.604,15.9376,20.8751
14:00:51.631,25.9376,42.8752
14:00:51.634,33.8126,63.2502
14:00:51.674,40.8127,81.3753
14:00:51.678,46.4377,94.9379
14:00:51.680,50.7502,107.2504
14:00:51.680,52.5002,115.4379
14:00:51.680,53.5002,120.1255
14:00:51.687,52.5627,121.063
14:00:51.716,52.0627,120.1255
14:00:51.718,50.0627,117.563
14:00:51.720,48.5002,113.6254
14:00:51.724,45.8752,109.9379
14:00:51.732,44.8127,106.0629
14:00:51.764,42.3752,102.0004
14:00:51.766,40.9377,97.4379
14:00:51.769,37.2501,90.8128
14:00:51.775,33.6251,83.0628
14:00:51.805,30.5001,75.5628
14:00:51.806,26.6876,68.3753
14:00:51.809,24.2501,62.1252
14:00:51.814,21.1251,56.7502
14:00:51.822,19.6876,51.8127
14:00:51.834,17.9376,46.3752
14:00:51.843,17.2501,43.5627
14:00:51.854,17.2501,43.0002
14:00:51.864,16.3751,42.1877
14:00:51.874,16.1251,40.3752
14:00:51.885,14.8126,38.5626
14:00:51.894,14.5626,36.5001
14:00:51.904,13.1876,33.8126
14:00:51.914,11.375,31.3126
14:00:51.930,9,26.6876
14:00:51.934,7.0625,20.6876
14:00:51.944,4.9375,16.9376
14:00:51.954,2.125,10.75
14:00:51.964,-1.125,4.875
14:00:51.974,-3.6875,-1.1875
14:00:51.984,-6.875,-8.125
14:00:51.994,-9.625,-14.3126
14:00:52.004,-11.6875,-19.9376
14:00:52.014,-14.3126,-25.4376
14:00:52.024,-17.1251,-32.1251
14:00:52.034,-19.1251,-36.7501
14:00:52.044,-22.0626,-42.3127
14:00:52.054,-22.9376,-46.3127
14:00:52.064,-25.5001,-51.0627
14:00:52.074,-26.3751,-55.6252
14:00:52.084,-29.1876,-59.3127
14:00:52.094,-31.0001,-63.1877
14:00:52.104,-32.0001,-67.9378
14:00:52.114,-34.1251,-72.3128
14:00:52.124,-35.5626,-75.6878
14:00:52.134,-37.6251,-79.8128
14:00:52.144,-39.7502,-83.1253
14:00:52.153,-40.8127,-87.3753
14:00:52.164,-41.3127,-90.5003
14:00:52.174,-43.7502,-92.4379
14:00:52.184,-43.9377,-96.0004
14:00:52.194,-41.4377,-94.6254
14:00:52.204,-37.0626,-86.6253
14:00:52.214,-28.3126,-72.3753
14:00:52.224,-16.8751,-51.0627
14:00:52.234,-5.1875,-27.2501
14:00:52.244,7.25,-2.1875
14:00:52.254,18.6876,21.2501
14:00:52.264,28.8126,43.8752
14:00:52.274,36.6876,66.0628
14:00:52.284,44.0002,82.1253
14:00:52.294,48.5627,98.1879
14:00:52.305,52.6877,108.0629
14:00:52.314,55.0002,115.6254
14:00:52.324,55.1252,119.313
14:00:52.334,55.0002,118.7505
14:00:52.344,52.8127,117.3129
14:00:52.354,51.9377,114.3754
14:00:52.365,50.2502,111.8129
14:00:52.374,48.3752,107.5004
14:00:52.385,46.8752,104.7504
14:00:52.400,44.5002,100.8129
14:00:52.404,41.9377,94.1879
14:00:52.466,38.9376,87.5003
14:00:52.468,35.0001,81.5003
14:00:52.499,31.6251,73.0628
14:00:52.502,28.5001,65.6878
14:00:52.506,25.2501,58.6252
14:00:52.508,22.4376,52.6252
14:00:52.508,20.6876,47.6252
14:00:52.516,18.6251,43.8752
14:00:52.549,17.3751,40.8127
14:00:52.551,17.0001,38.0626
14:00:52.554,16.5001,36.4376
14:00:52.557,15.3751,35.1876
14:00:52.584,14.3751,31.3751
14:00:52.586,13.9376,30.0001
14:00:52.589,12.75,27.4376
14:00:52.594,10.3125,23.8126
14:00:52.611,8,20.3751
14:00:52.615,5.5625,15.1251
14:00:52.624,3.4375,8.625
14:00:52.634,0.6875,3.8125
14:00:52.644,-1.8125,-1.4375
14:00:52.654,-4.8125,-8.4375
14:00:52.664,-7.625,-14.0001
14:00:52.680,-18.6876,-40.3127
14:00:52.685,-22.2501,-45.3752
14:00:52.694,-23.8751,-50.3752
14:00:52.704,-25.9376,-55.9377
14:00:52.714,-28.2501,-60.9377
14:00:52.724,-30.1251,-64.6877
14:00:52.734,-31.6876,-67.9378
14:00:52.745,-33.1876,-71.5628
14:00:52.754,-34.4376,-76.1878
14:00:52.764,-36.1876,-79.5628
14:00:52.774,-38.3751,-83.0628
14:00:52.784,-39.7502,-87.0628
14:00:52.794,-40.7502,-90.6254
14:00:52.804,-41.9377,-94.1879
14:00:52.814,-44.4377,-97.0629
14:00:52.824,-45.6252,-101.8754
14:00:52.834,-46.8752,-104.3754
14:00:52.844,-48.0627,-106.6254
14:00:52.854,-48.5002,-109.5629
14:00:52.865,-49.7502,-110.1254
14:00:52.874,-46.6252,-107.6879
14:00:52.884,-39.0002,-96.8754
14:00:52.894,-28.6251,-77.6253
14:00:52.915,-16.1876,-55.0002
14:00:52.918,-4.0625,-29.9376
14:00:52.927,7.25,-5.625
14:00:52.935,18.1876,18.3126
14:00:52.950,27.1876,40.6877
14:00:52.965,35.5001,58.7502
14:00:52.969,41.6877,76.8128
14:00:52.974,46.3127,87.7503
14:00:52.984,48.9377,99.2504
14:00:52.994,50.6252,104.4379
14:00:53.004,50.9377,107.6879
14:00:53.014,50.2502,106.3754
14:00:53.024,49.4377,104.7504
14:00:53.034,46.3127,101.3754
14:00:53.044,45.0002,97.2504
14:00:53.060,42.9377,93.2504
14:00:53.065,41.3752,89.0628
14:00:53.074,39.1876,84.0628
14:00:53.084,35.5001,78.0628
14:00:53.094,32.3126,71.2503
14:00:53.104,29.3126,63.0002
14:00:53.137,25.3126,56.6877
14:00:53.140,22.0001,50.1877
14:00:53.143,19.7501,42.6877
14:00:53.145,17.0001,37.9376
14:00:53.175,15.5626,34.0626
14:00:53.177,15.1876,30.6876
14:00:53.183,14.2501,29.2501
14:00:53.185,14.0626,27.4376
14:00:53.217,13.7501,26.3751
14:00:53.218,13.3751,24.8126
14:00:53.220,11.9375,22.3751
14:00:53.225,10.8125,20.1251
14:00:53.254,9.25,16.6876
14:00:53.256,6.75,12.9375
14:00:53.259,5.125,8.75
14:00:53.287,2.625,2.9375
14:00:53.289,0.75,-1.9375
14:00:53.291,-2.625,-7.6875
14:00:53.297,-5.5625,-14.1251
14:00:53.305,-7.625,-19.3126
14:00:53.314,-11.25,-25.5626
14:00:53.324,-14.5001,-31.2501
14:00:53.334,-16.8126,-38.5001
14:00:53.344,-19.3126,-44.3752
14:00:53.354,-21.8751,-49.5627
14:00:53.364,-24.3126,-55.2502
14:00:53.374,-27.0001,-59.6252
14:00:53.384,-29.0626,-63.8127
14:00:53.394,-30.8126,-69.1878
14:00:53.404,-31.9376,-73.1253
14:00:53.414,-33.6251,-77.0003
14:00:53.424,-35.4376,-80.7503
14:00:53.435,-37.5626,-83.6253
14:00:53.444,-37.9376,-87.0003
14:00:53.454,-40.1877,-90.7503
14:00:53.464,-41.5002,-94.7504
14:00:53.474,-42.5627,-96.1879
14:00:53.484,-44.5627,-99.3754
14:00:53.494,-45.6252,-103.6879
14:00:53.504,-47.3752,-106.1879
14:00:53.514,-48.3752,-109.0004
14:00:53.524,-48.4377,-111.0004
14:00:53.534,-49.6877,-112.5004
14:00:53.544,-46.1252,-109.3754
14:00:53.554,-39.3127,-98.0629
14:00:53.564,-29.1251,-81.0628
14:00:53.574,-17.5001,-58.5002
14:00:53.584,-6.125,-33.0626
14:00:53.594,5.25,-11.75
14:00:53.604,15.1876,11.375
14:00:53.615,23.3751,30.5626
14:00:53.624,31.1251,48.8752
14:00:53.634,35.8751,63.2502
14:00:53.644,40.2502,73.1878
14:00:53.654,43.0002,84.1253
14:00:53.664,43.1252,87.6878
14:00:53.674,44.0002,90.6253
14:00:53.684,42.3127,92.3129
14:00:53.714,41.1877,87.7503
14:00:53.717,39.1252,85.4378
14:00:53.722,37.0001,80.3128
14:00:53.726,34.6876,75.0003
14:00:53.734,31.1251,70.5003
14:00:53.749,27.8126,62.4377
14:00:53.759,23.6876,54.8752
14:00:53.764,19.3126,47.0002
14:00:53.781,15.4376,39.3751
14:00:53.784,11.875,32.5001
14:00:53.799,9.1875,26.6876
14:00:53.812,7.5,22.3751
14:00:53.814,5.4375,19.3751
14:00:53.825,5.0625,17.8126
14:00:53.834,4.1875,16.1876
14:00:53.844,3.4375,15.7501
14:00:53.854,3.25,15.1876
14:00:53.864,1.875,14.2501
14:00:53.874,0.5,14.3126
14:00:53.912,-0.875,12.4375
14:00:53.917,-2.5625,10.5625
14:00:53.917,-4.3125,8.5
14:00:53.919,-7.1875,5.625
14:00:53.925,-9.375,2.5
14:00:53.954,-11.6875,-1.375
14:00:53.957,-14.6251,-6.125
14:00:53.959,-16.8751,-11
14:00:53.986,-19.6251,-17.0001
14:00:53.987,-23.0001,-22.4376
14:00:53.991,-26.1876,-28.3126
14:00:53.997,-30.1251,-34.6876
14:00:54.011,-35.0001,-40.1877
14:00:54.015,-41.0002,-45.3127
14:00:54.048,-48.8752,-50.9377
14:00:54.050,-55.6877,-55.6877
14:00:54.052,-61.1877,-58.1877
14:00:54.058,-67.1878,-61.5002
14:00:54.065,-73.5628,-65.3127
14:00:54.074,-77.3128,-66.7503
14:00:54.085,-76.9378,-64.0002
14:00:54.094,-77.0628,-64.0627
14:00:54.104,-76.9378,-63.3127
14:00:54.115,-75.8128,-64.0627
14:00:54.125,-76.2503,-64.4377
14:00:54.134,-76.3128,-66.0003
14:00:54.144,-76.3753,-68.6878
14:00:54.154,-77.8753,-72.1878
14:00:54.165,-80.1253,-75.6253
14:00:54.175,-82.3128,-77.5628
14:00:54.185,-79.8753,-73.6878
14:00:54.195,-72.5628,-65.7503
14:00:54.204,-62.1252,-51.0627
14:00:54.215,-49.4377,-30.7501
14:00:54.233,-37.1251,-10.5
14:00:54.239,-23.6251,12.75
14:00:54.249,-12.8125,36.1876
14:00:54.255,-1.5625,57.4377
14:00:54.270,8.5625,77.6878
14:00:54.276,15.6251,95.5004
14:00:54.287,22.6876,107.6879
14:00:54.296,27.0001,117.5005
14:00:54.306,29.2501,120.813
14:00:54.315,30.8126,122.563
14:00:54.324,30.3126,120.063
14:00:54.334,30.2501,116.3129
14:00:54.344,28.8126,112.1254
14:00:54.354,29.6251,106.0629
14:00:54.364,31.4376,102.6879
14:00:54.374,30.5001,98.3754
14:00:54.385,30.3126,93.0004
14:00:54.395,30.1251,88.6253
14:00:54.404,32.3126,84.7503
14:00:54.414,32.9376,80.4378
14:00:54.424,35.5626,77.6253
14:00:54.436,38.9376,76.0628
14:00:54.444,41.7502,75.3753
14:00:54.455,45.6252,74.0628
14:00:54.465,46.5002,73.3753
14:00:54.475,48.6252,73.8753
14:00:54.485,49.5627,72.1878
14:00:54.494,49.5627,71.8128
14:00:54.505,48.8752,68.8128
14:00:54.514,46.9377,67.2503
14:00:54.531,44.5627,62.3752
14:00:54.535,42.0627,59.3752
14:00:54.566,37.8751,53.6877
14:00:54.568,33.4376,48.0627
14:00:54.570,29.6251,41.6252
14:00:54.575,25.1876,36.2501
14:00:54.615,20.8751,29.5001
14:00:54.618,16.8751,23.1251
14:00:54.621,13.8126,17.1251
14:00:54.653,10,12.125
14:00:54.653,6.6875,4.875
14:00:54.654,4.625,-1.125
14:00:54.657,1.9375,-5.875
14:00:54.662,-0.3125,-11.6875
14:00:54.665,-1.875,-16.4376
14:00:54.698,-4.3125,-20.4376
14:00:54.700,-5.25,-24.4376
14:00:54.703,-7.1875,-27.5626
14:00:54.705,-7.875,-30.3751
14:00:54.720,-9.625,-32.3126
14:00:54.725,-11.0625,-35.5001
14:00:54.734,-10.6875,-38.2501
14:00:54.744,-12.5625,-40.5002
14:00:54.755,-13.8751,-43.1877
14:00:54.765,-15.7501,-46.5627
14:00:54.775,-16.8126,-49.2502
14:00:54.784,-18.0626,-51.8127
14:00:54.795,-19.7501,-55.4377
14:00:54.807,-21.3751,-57.4377
14:00:54.816,-22.2501,-60.0627
14:00:54.825,-23.1251,-60.6252
14:00:54.835,-19.0001,-57.5627
14:00:54.845,-13.5001,-47.2502
14:00:54.855,-3.8125,-29.3126
14:00:54.864,8.375,-8.6875
14:00:54.880,18.5626,14.5626
14:00:54.890,28.5626,37.9376
14:00:54.900,39.2502,60.1877
14:00:54.910,47.5627,81.5003
14:00:54.920,56.1252,102.5629
14:00:54.930,62.3127,119.3755
14:00:54.941,66.5628,133.8755
14:00:54.950,69.3128,142.1255
14:00:54.961,70.0628,146.688
14:00:54.970,69.8753,147.3131
14:00:54.997,68.6878,145.6255
14:00:55.000,66.5003,141.063
14:00:55.003,64.5627,136.3755
14:00:55.011,61.5627,132.063
14:00:55.022,58.8752,125.5005
14:00:55.032,56.4377,119.5005
14:00:55.040,52.5002,110.6879
14:00:55.050,49.6252,102.2504
14:00:55.066,44.2502,91.9379
14:00:55.070,39.8752,82.5003
14:00:55.086,36.5626,73.6253
14:00:55.101,32.9376,65.1877
14:00:55.116,31.0001,56.2502
14:00:55.121,28.7501,49.7502
14:00:55.124,27.4376,44.1252
14:00:55.130,26.1251,40.2502
14:00:55.140,25.9376,36.3751
14:00:55.150,24.8126,33.9376
14:00:55.162,25.0001,31.3751
14:00:55.171,25.4376,30.1251
14:00:55.181,25.1251,28.3126
14:00:55.190,24.3751,25.0626
14:00:55.200,23.6251,23.3751
14:00:55.210,22.9376,19.3751
14:00:55.220,21.3751,16.8751
14:00:55.231,19.4376,11.3125
14:00:55.241,16.6876,7.375
14:00:55.250,13.6876,1.875
14:00:55.261,10.375,-4.9375
14:00:55.290,6,-11.125
14:00:55.293,2.625,-15.4376
14:00:55.295,-0.8125,-22.9376
14:00:55.302,-4.0625,-27.6876
14:00:55.332,-7.875,-34.8126
14:00:55.334,-10.8125,-40.3127
14:00:55.336,-14.1251,-45.5627
14:00:55.341,-16.7501,-49.6877
14:00:55.370,-19.1251,-54.6252
14:00:55.373,-22.3751,-58.9377
14:00:55.375,-23.4376,-63.0002
14:00:55.382,-25.5626,-66.4378
14:00:55.411,-28.1876,-69.5003
14:00:55.414,-29.3751,-71.7503
14:00:55.416,-31.0626,-75.3128
14:00:55.442,-32.0626,-76.3753
14:00:55.443,-33.3751,-80.1253
14:00:55.445,-34.5001,-81.7503
14:00:55.457,-35.8751,-84.8128
14:00:55.465,-36.0001,-86.6253
14:00:55.475,-38.1251,-87.8753
14:00:55.486,-38.6251,-91.1254
14:00:55.495,-39.2502,-91.3129
14:00:55.505,-37.1876,-90.6253
14:00:55.515,-31.0001,-82.4378
14:00:55.525,-20.5626,-65.3127
14:00:55.535,-8.875,-43.6877
14:00:55.545,4.6875,-18.5001
14:00:55.561,15.0001,5.4375
14:00:55.579,31.3751,42.0627
14:00:55.588,41.3127,63.8752
14:00:55.590,49.2502,84.8753
14:00:55.603,56.3127,103.0629
14:00:55.608,60.6877,118.0005
14:00:55.615,64.3127,129.0005
14:00:55.625,66.1878,136.6255
14:00:55.635,65.3128,138.8755
14:00:55.645,65.4378,139.1255
14:00:55.655,63.0627,137.8755
14:00:55.665,61.5627,133.813
14:00:55.675,59.5627,130.5005
14:00:55.685,56.8127,127.6255
14:00:55.695,55.8127,122.938
14:00:55.705,52.4377,118.7505
14:00:55.715,49.5627,113.2504
14:00:55.725,45.7502,105.5629
14:00:55.736,41.1252,97.6254
14:00:55.746,37.5001,88.8753
14:00:55.757,33.6876,80.3128
14:00:55.765,30.3126,72.7503
14:00:55.776,27.1251,65.8753
14:00:55.785,25.0626,59.3752
14:00:55.795,23.6251,55.4377
14:00:55.805,22.6876,51.1877
14:00:55.815,21.2501,48.0002
14:00:55.826,20.2501,44.8127
14:00:55.835,20.5626,41.9377
14:00:55.851,18.5001,38.4376
14:00:55.856,18.0001,34.8751
14:00:55.866,16.3126,30.8126
14:00:55.876,15.4376,26.1251
14:00:55.885,12.5,20.8751
14:00:55.895,9.875,14.4376
14:00:55.905,7.25,6.6875
14:00:55.915,4,-0.5
14:00:55.925,0.625,-8.25
14:00:55.935,-2.5,-17.6251
14:00:55.945,-5.4375,-24.0626
14:00:55.958,-8.25,-32.3751
14:00:55.966,-11.25,-39.5002
14:00:55.976,-13.2501,-45.8752
14:00:55.985,-16.0001,-53.1252
14:00:55.995,-18.5626,-58.3752
14:00:56.005,-20.6876,-66.0628
14:00:56.015,-22.1251,-70.8753
14:00:56.030,-24.3126,-75.3128
14:00:56.035,-25.6876,-80.2503
14:00:56.062,-28.3751,-85.0628
14:00:56.064,-29.3126,-88.6878
14:00:56.066,-31.7501,-91.7504
14:00:56.104,-33.9376,-95.7504
14:00:56.105,-35.5001,-99.5004
14:00:56.107,-38.5001,-101.6879
14:00:56.110,-39.9377,-106.8129
14:00:56.115,-41.6252,-109.2504
14:00:56.146,-44.6252,-111.8754
14:00:56.150,-45.8127,-114.9379
14:00:56.184,-48.7502,-117.5005
14:00:56.186,-49.9377,-120.5005
14:00:56.186,-52.0002,-122.313
14:00:56.189,-53.2502,-124.313
14:00:56.194,-53.6252,-123.938
14:00:56.195,-52.5627,-123.3755
14:00:56.206,-45.8127,-113.1254
14:00:56.215,-34.5001,-95.1879
14:00:56.226,-21.2501,-69.1878
14:00:56.235,-7.9375,-43.6877
14:00:56.246,4.5,-16.4376
14:00:56.275,15.6251,7.25
14:00:56.277,25.8126,31.2501
14:00:56.279,34.8126,51.9377
14:00:56.285,42.3752,69.6253
14:00:56.295,49.0627,84.0003
14:00:56.305,52.6252,96.8129
14:00:56.315,56.3752,106.8754
14:00:56.325,57.1252,113.3129
14:00:56.336,58.0627,116.2504
14:00:56.345,56.5002,116.1254
14:00:56.355,55.4377,113.4379
14:00:56.365,53.3127,111.6879
14:00:56.384,51.0627,107.0004
14:00:56.386,48.6252,103.6254
14:00:56.402,45.6877,98.5004
14:00:56.417,42.6252,94.1254
14:00:56.421,39.4377,86.9378
14:00:56.436,34.4376,80.4378
14:00:56.440,31.0001,73.6878
14:00:56.447,27.6251,66.8753
14:00:56.455,25.2501,61.1877
14:00:56.465,23.0626,56.8752
14:00:56.476,20.2501,53.1252
14:00:56.485,19.4376,50.4377
14:00:56.495,18.0001,48.3752
14:00:56.506,17.6876,47.6252
14:00:56.515,16.5626,45.5002
14:00:56.525,16.6251,45.6252
14:00:56.535,15.5001,43.6252
14:00:56.545,13.8751,41.6252
14:00:56.556,13.3126,38.2501
14:00:56.565,10.4375,35.0626
14:00:56.575,7.75,30.3126
14:00:56.585,5.375,24.8751
14:00:56.600,2.875,19.2501
14:00:56.606,-0.6875,13.1251
14:00:56.616,-3.125,7.375
14:00:56.626,-5.6875,-0.125
14:00:56.635,-9.0625,-6.6875
14:00:56.645,-11.3125,-13.7501
14:00:56.655,-14.5626,-21.3126
14:00:56.665,-16.3126,-28.1876
14:00:56.675,-19.3126,-35.5626
14:00:56.685,-22.1251,-41.3752
14:00:56.696,-24.8751,-48.0627
14:00:56.705,-26.9376,-54.1877
14:00:56.715,-28.8751,-59.6877
14:00:56.725,-30.3126,-66.0628
14:00:56.735,-32.8751,-71.3128
14:00:56.745,-33.5001,-75.9378
14:00:56.755,-35.0626,-81.0003
14:00:56.766,-36.4376,-85.6878
14:00:56.780,-38.4376,-89.6253
14:00:56.789,-39.3127,-95.0629
14:00:56.819,-40.5627,-98.4379
14:00:56.821,-42.1877,-104.0004
14:00:56.824,-43.8127,-107.6254
14:00:56.826,-45.3127,-110.5629
14:00:56.860,-46.5002,-115.0004
14:00:56.862,-47.3752,-117.0004
14:00:56.907,-47.5002,-116.7504
14:00:56.935,-42.5627,-112.7504
14:00:56.935,-34.6251,-96.7504
14:00:56.935,-22.1251,-76.9378
14:00:56.952,-8.75,-51.6252
14:00:56.955,2.5,-26.7501
14:00:56.960,12.875,-4.375
14:00:56.960,21.9376,17.3751
14:00:56.960,29.0001,36.3751
14:00:56.966,35.8126,53.5627
14:00:56.981,40.0627,68.3128
14:00:56.986,43.8127,78.4378
14:00:56.995,45.6877,87.8128
14:00:57.005,47.1252,92.9379
14:00:57.015,46.6252,96.1254
14:00:57.025,45.6877,96.6254
14:00:57.035,43.9377,94.0004
14:00:57.046,42.1252,91.3129
14:00:57.055,39.5627,86.3753
14:00:57.067,37.2501,82.2503
14:00:57.075,29.5001,66.1878
14:00:57.087,25.3751,59.1252
14:00:57.095,21.7501,52.6877
14:00:57.107,18.8751,45.9377
14:00:57.115,16.8126,41.5627
14:00:57.126,15.3126,38.3126
14:00:57.135,14.6251,35.0001
14:00:57.146,14.8126,33.8751
14:00:57.155,14.5626,32.8751
14:00:57.166,14.3126,32.1251
14:00:57.175,14.1876,32.3126
14:00:57.185,13.7501,31.5001
14:00:57.195,13.3751,31.5001
14:00:57.207,12.3125,30.1251
14:00:57.215,11.6875,28.3751
14:00:57.227,9.9375,25.6876
14:00:57.235,8.3125,22.3126
14:00:57.246,4.8125,17.9376
14:00:57.255,3,13.1876
14:00:57.266,-0.5,8.3125
14:00:57.276,-3,3.5625
14:00:57.287,-7.5,-2.9375
14:00:57.295,-10.25,-8.6875
14:00:57.305,-14.2501,-15.0001
14:00:57.317,-16.6876,-20.8751
14:00:57.325,-21.2501,-27.8751
14:00:57.336,-23.7501,-33.1876
14:00:57.346,-26.4376,-39.0001
14:00:57.357,-28.5001,-43.0002
14:00:57.366,-32.0001,-48.0627
14:00:57.376,-32.9376,-52.8127
14:00:57.385,-36.0626,-57.0002
14:00:57.396,-37.2501,-61.2502
14:00:57.405,-39.8127,-65.7503
14:00:57.419,-40.8127,-70.2503
14:00:57.426,-43.5002,-74.5003
14:00:57.437,-44.8752,-78.1878
14:00:57.446,-47.3752,-82.9378
14:00:57.455,-48.5627,-86.8128
14:00:57.466,-50.4377,-90.6254
14:00:57.475,-53.1252,-96.8129
14:00:57.486,-54.2502,-99.6254
14:00:57.496,-54.5002,-100.8754
14:00:57.514,-51.2502,-98.1879
14:00:57.517,-42.0002,-87.0003
14:00:57.554,-31.6876,-69.0003
14:00:57.557,-18.7501,-46.3752
14:00:57.564,-6.125,-21.0001
14:00:57.564,5.625,-0.125
14:00:57.568,16.1251,21.9376
14:00:57.602,24.6251,43.3127
14:00:57.604,32.8751,59.5627
14:00:57.609,39.6252,75.0628
14:00:57.614,43.5627,86.1253
14:00:57.617,47.5002,94.6879
14:00:57.647,48.1252,100.5629
14:00:57.650,49.1252,102.1254
14:00:57.653,49.5002,102.6254
14:00:57.657,49.2502,98.5629
14:00:57.673,49.2502,96.8129
14:00:57.677,48.2502,93.4379
14:00:57.686,47.8752,90.6254
14:00:57.702,47.1252,87.8128
14:00:57.710,45.3752,83.6253
14:00:57.716,43.3127,79.3128
14:00:57.734,40.0627,71.4378
14:00:57.737,35.4376,65.1878
14:00:57.751,32.1876,56.1877
14:00:57.757,27.5001,49.0002
14:00:57.767,25.5626,44.1252
14:00:57.775,22.4376,38.0001
14:00:57.786,20.2501,34.1876
14:00:57.797,19.0626,31.0001
14:00:57.806,18.3751,29.1876
14:00:57.817,16.6251,27.1876
14:00:57.826,15.9376,27.6251
14:00:57.836,14.8751,25.8126
14:00:57.846,13.3751,24.5001
14:00:57.857,12.6875,23.2501
14:00:57.866,11.3125,19.5001
14:00:57.877,8.375,16.8751
14:00:57.886,6.5625,12.8125
14:00:57.897,4.375,8.375
14:00:57.906,2.5625,3.6875
14:00:57.916,0.6875,-0.375
14:00:57.926,-3.375,-5.3125
14:00:57.936,-5.25,-11.75
14:00:57.946,-8.3125,-16.7501
14:00:57.957,-11.1875,-23.5626
14:00:57.967,-13.6251,-29.0001
14:00:57.977,-17.3126,-34.8751
14:00:57.986,-19.4376,-41.5002
14:00:57.996,-21.7501,-46.2502
14:00:58.006,-23.4376,-51.7502
14:00:58.017,-26.2501,-57.0002
14:00:58.028,-28.5626,-61.6877
14:00:58.037,-30.4376,-66.0003
14:00:58.046,-31.4376,-69.8128
14:00:58.057,-33.2501,-73.2503
14:00:58.066,-35.6251,-75.9378
14:00:58.077,-36.0626,-80.0003
14:00:58.086,-38.3126,-83.6878
14:00:58.096,-39.7502,-86.9378
14:00:58.106,-41.3752,-91.3754
14:00:58.116,-42.3752,-93.3129
14:00:58.126,-44.5627,-97.1879
14:00:58.137,-45.3127,-99.2504
14:00:58.146,-45.1877,-99.2504
14:00:58.156,-40.5627,-92.1879
14:00:58.166,-30.9376,-77.8128
14:00:58.176,-19.5001,-56.1252
14:00:58.186,-7.375,-32.1876
14:00:58.196,5.4375,-7.0625
14:00:58.220,15.2501,16.9376
14:00:58.221,25.0626,39.8127
14:00:58.238,33.3751,60.3752
14:00:58.251,40.9377,79.1253
14:00:58.254,47.2502,96.8129
14:00:58.286,50.4377,110.5004
14:00:58.288,52.8752,118.063
14:00:58.290,54.1877,123.813
14:00:58.293,54.6252,125.8755
14:00:58.327,53.7502,125.438
14:00:58.330,53.0002,124.0005
14:00:58.331,51.0627,119.313
14:00:58.334,49.6252,116.8129
14:00:58.340,48.0627,111.6254
14:00:58.387,46.1252,108.6879
14:00:58.388,43.1877,103.4379
14:00:58.428,40.1877,97.5004
14:00:58.430,35.8751,89.4378
14:00:58.433,31.9376,80.0628
14:00:58.437,27.6876,71.5003
14:00:58.439,24.0626,63.4377
14:00:58.439,21.5001,55.4377
14:00:58.449,18.2501,48.1877
14:00:58.457,15.9376,42.4377
14:00:58.466,15.3751,37.8751
14:00:58.476,14.7501,32.5001
14:00:58.492,14.0626,31.4376
14:00:58.497,13.9376,28.0001
14:00:58.507,12.4375,25.7501
14:00:58.516,11.6875,23.3126
14:00:58.526,10.5,19.4376
14:00:58.536,8.3125,16.5001
14:00:58.546,6.8125,12.0625
14:00:58.556,4.8125,6.4375
14:00:58.566,2.75,1.9375
14:00:58.576,0.625,-3.6875
14:00:58.588,-1.9375,-10.5
14:00:58.596,-4.9375,-16.6876
14:00:58.606,-13.8126,-35.8126
14:00:58.616,-16.9376,-42.0002
14:00:58.626,-20.5001,-46.6252
14:00:58.637,-23.7501,-52.3127
14:00:58.646,-26.1251,-59.1252
14:00:58.656,-28.9376,-63.9377
14:00:58.666,-30.8751,-67.5628
14:00:58.677,-33.6876,-73.3753
14:00:58.686,-36.1876,-76.6253
14:00:58.696,-37.8126,-80.8128
14:00:58.706,-40.2502,-84.3128
14:00:58.716,-41.8127,-87.5003
14:00:58.727,-43.4377,-92.0004
14:00:58.736,-45.7502,-94.4379
14:00:58.746,-47.3752,-98.0004
14:00:58.757,-49.1252,-100.3129
14:00:58.766,-49.6252,-104.2504
14:00:58.776,-52.1877,-105.7504
14:00:58.787,-52.3752,-110.3129
14:00:58.796,-53.6252,-111.8754
14:00:58.806,-54.6252,-114.7504
14:00:58.835,-54.2502,-116.0004
14:00:58.836,-53.1252,-114.0629
14:00:58.839,-46.3127,-104.6879
14:00:58.849,-35.0001,-85.9378
14:00:58.857,-21.3126,-61.4377
14:00:58.867,-7.0625,-36.1876
14:00:58.876,5.0625,-10.1875
14:00:58.886,16.6251,13.9376
14:00:58.896,26.4376,35.0001
14:00:58.907,34.7501,55.3752
14:00:58.916,42.1877,71.8753
14:00:58.926,46.5627,86.6253
14:00:58.937,50.2502,96.6254
14:00:58.946,52.6252,106.3129
14:00:58.956,53.9377,110.2504
14:00:58.967,54.5627,113.6879
14:00:58.976,52.6877,112.7504
14:00:59.051,52.1877,111.9379
14:00:59.055,50.6877,110.1254
14:00:59.056,49.1877,107.3129
14:00:59.057,47.3127,105.8129
14:00:59.061,44.8752,101.1879
14:00:59.087,42.6877,97.5629
14:00:59.090,39.5002,90.9379
14:00:59.090,35.5626,84.3753
14:00:59.090,32.0626,78.3128
14:00:59.122,29.0001,70.1878
14:00:59.124,25.4376,62.8752
14:00:59.128,22.8126,57.1252
14:00:59.128,19.5001,51.1877
14:00:59.133,17.0626,44.8127
14:00:59.166,14.0001,39.8127
14:00:59.168,11.75,34.8126
14:00:59.170,9.5625,30.6876
14:00:59.173,7.625,27.9376
14:00:59.182,6,24.6876
14:00:59.191,2.3125,20.6251
14:00:59.201,0.0625,16.8751
14:00:59.212,-2.25,15.4376
14:00:59.221,-4.5,10.625
14:00:59.231,-7.25,5.8125
14:00:59.241,-15.3751,-0.0625
14:00:59.252,-19.6251,-5.0625
14:00:59.261,-21.3751,-9.75
14:00:59.271,-22.6876,-15.1876
14:00:59.281,-24.3751,-20.0626
14:00:59.292,-29.1251,-28.9376
14:00:59.302,-31.2501,-34.8751
14:00:59.311,-34.0626,-41.2502
14:00:59.322,-37.1876,-46.1252
14:00:59.331,-39.2501,-51.5002
14:00:59.341,-43.3752,-57.6252
14:00:59.352,-49.1877,-64.5002
14:00:59.361,-55.3752,-73.3128
14:00:59.372,-63.0002,-82.0003
14:00:59.382,-68.6253,-88.9378
14:00:59.391,-73.0628,-93.6254
14:00:59.401,-75.6253,-100.0004
14:00:59.411,-78.9378,-103.4379
14:00:59.421,-81.5628,-109.3754
14:00:59.432,-84.8753,-114.5629
14:00:59.441,-90.1879,-120.6255
14:00:59.451,-94.0629,-127.438
14:00:59.468,-97.4379,-132.5005
14:00:59.476,-82.2503,-134.2505
14:00:59.486,-80.5003,-139.438
14:00:59.497,-84.3128,-142.2505
14:00:59.507,-84.0003,-147.1881
14:00:59.517,-79.4378,-146.7506
14:00:59.536,-74.4378,-140.8755
14:00:59.542,-65.1253,-128.3755
14:00:59.558,-54.8127,-110.6879
14:00:59.560,-44.5627,-94.9379
14:00:59.566,-34.2501,-77.3128
14:00:59.576,-25.7501,-59.8127
14:00:59.587,-20.0001,-45.8127
14:00:59.596,-12.875,-32.5001
14:00:59.606,-7.8125,-20.8751
14:00:59.621,-2.4375,-12.5625
14:00:59.626,1.1875,-1.8125
14:00:59.636,4.125,1.4375
14:00:59.646,4.625,2.9375
14:00:59.656,5.625,1.875
14:00:59.669,5,0.5625
14:00:59.677,3.8125,-3.25
14:00:59.686,2.8125,-7.625
14:00:59.710,0,-10.125
14:00:59.712,-1.9375,-16.0626
14:00:59.743,-3.75,-20.9376
14:00:59.744,-6.5625,-26.7501
14:00:59.747,-11.3125,-33.1251
14:00:59.748,-13.6251,-42.0627
14:00:59.783,-16.1251,-48.0002
14:00:59.785,-19.1876,-52.8752
14:00:59.788,-22.0001,-58.5627
14:00:59.791,-23.2501,-62.9377
14:00:59.821,-23.6876,-65.0002
14:00:59.823,-24.0626,-66.1253
14:00:59.825,-24.0626,-67.3128
14:00:59.855,-23.9376,-67.1253
14:00:59.855,-23.7501,-66.4378
14:00:59.857,-23.8126,-66.8753
14:00:59.863,-24.5001,-68.3753
14:00:59.870,-25.0001,-68.5628
14:00:59.879,-26.1251,-71.6253
14:00:59.886,-26.6876,-72.6878
14:00:59.897,-28.0626,-74.8753
14:00:59.906,-29.1876,-79.3753
14:00:59.918,-32.0626,-81.5628
14:00:59.928,-34.8126,-87.8128
14:00:59.936,-37.0001,-92.1254
14:00:59.946,-39.9377,-96.6254
14:00:59.956,-42.2502,-102.0004
14:00:59.967,-44.6252,-106.0004
14:00:59.977,-48.1252,-109.8129
14:00:59.986,-49.9377,-115.1254
14:00:59.997,-52.2502,-119.6255
14:01:00.006,-54.3752,-123.7505
14:01:00.017,-55.8752,-127.188
14:01:00.027,-57.2502,-129.938
14:01:00.036,-59.1252,-135.188
14:01:00.049,-59.8127,-136.813
14:01:00.056,-61.9377,-138.313
14:01:00.068,-62.8127,-142.688
14:01:00.078,-63.9377,-145.188
14:01:00.086,-65.9378,-148.0006
14:01:00.116,-66.1253,-150.1256
14:01:00.119,-67.5003,-152.2506
14:01:00.120,-68.9378,-155.8756
14:01:00.128,-70.1878,-156.3131
14:01:00.139,-70.6878,-159.6256
14:01:00.148,-70.9378,-160.4381
14:01:00.182,-71.8753,-160.7506
14:01:00.184,-70.6253,-161.6881
14:01:00.187,-66.5003,-155.2506
14:01:00.193,-57.3752,-140.563
14:01:00.201,-45.0002,-119.6255
14:01:00.213,-33.2501,-95.5004
14:01:00.222,-20.6876,-70.4378
14:01:00.233,-10.625,-46.6877
14:01:00.241,-1.125,-27.2501
14:01:00.253,7.625,-7.875
14:01:00.263,13.7501,8.9375
14:01:00.271,19.5626,20.4376
14:01:00.281,24.1251,30.8126
14:01:00.292,25.1876,38.8126
14:01:00.302,26.8126,42.5627
14:01:00.322,27.1876,46.5002
14:01:00.324,26.1251,48.9377
14:01:00.339,25.5626,47.0627
14:01:00.343,24.2501,46.7502
14:01:00.352,23.0626,42.9377
14:01:00.370,21.6251,40.3752
14:01:00.374,19.1251,35.8751
14:01:00.383,16.3126,29.3751
14:01:00.393,13.3751,24.1251
14:01:00.403,9.875,15.8751
14:01:00.422,6.8125,10.375
14:01:00.424,3.5,3.875
14:01:00.458,1.875,-0.625
14:01:00.461,-0.25,-4.3125
14:01:00.463,-1.0625,-7.25
14:01:00.466,-1.1875,-7.375
14:01:00.474,-1.0625,-9.1875
14:01:00.486,-1.75,-9.375
14:01:00.517,-1.875,-9
14:01:00.519,-2.0625,-9.25
14:01:00.521,-1.3125,-11.5
14:01:00.524,-2.9375,-13.0625
14:01:00.560,-4.1875,-13.5001
14:01:00.563,-4.5625,-16.5001
14:01:00.565,-6.3125,-20.6876
14:01:00.591,-9,-24.2501
14:01:00.592,-11.1875,-27.6251
14:01:00.595,-13.1876,-32.3751
14:01:00.600,-15.8751,-37.8751
14:01:00.606,-18.9376,-42.2502
14:01:00.612,-21.5626,-47.9377
14:01:00.621,-24.1876,-52.8752
14:01:00.633,-26.8126,-58.3127
14:01:00.643,-29.1876,-63.6252
14:01:00.653,-31.5626,-68.1253
14:01:00.665,-33.8751,-74.2503
14:01:00.673,-35.9376,-78.1878
14:01:00.681,-38.0001,-82.9378
14:01:00.693,-39.5002,-86.0628
14:01:00.703,-40.8752,-89.9378
14:01:00.712,-42.4377,-92.7504
14:01:00.723,-43.3127,-95.7504
14:01:00.733,-45.8752,-99.8754
14:01:00.746,-47.0002,-103.8754
14:01:00.753,-48.6252,-105.3754
14:01:00.762,-50.0002,-109.0629
14:01:00.773,-51.3127,-113.2504
14:01:00.783,-52.0627,-115.4379
14:01:00.793,-54.5002,-118.938
14:01:00.803,-55.9377,-121.813
14:01:00.813,-56.1877,-123.938
14:01:00.823,-54.4377,-120.8755
14:01:00.839,-48.3127,-113.1254
14:01:00.854,-35.9376,-94.5004
14:01:00.856,-24.4376,-70.4378
14:01:00.864,-11.5,-45.8752
14:01:00.873,1.0625,-19.5626
14:01:00.882,11.0625,1.6875
14:01:00.893,20.2501,21.9376
14:01:00.903,27.0001,40.3752
14:01:00.912,33.6251,53.4377
14:01:00.923,39.1252,66.7503
14:01:00.933,40.9377,76.5003
14:01:00.943,43.6877,81.8753
14:01:00.953,44.5627,87.2503
14:01:00.963,44.0627,90.2503
14:01:00.973,44.4377,90.2503
14:01:00.982,43.6252,91.0629
14:01:00.993,41.7502,89.1878
14:01:01.003,39.8127,86.8753
14:01:01.013,38.3751,82.5628
14:01:01.022,36.3751,80.0628
14:01:01.034,33.8126,73.0628
14:01:01.043,30.0626,67.5003
14:01:01.053,27.5001,60.2502
14:01:01.064,22.7501,53.0627
14:01:01.073,19.9376,46.2502
14:01:01.082,16.4376,40.1877
14:01:01.112,14.3126,35.1876
14:01:01.116,12.5625,30.1876
14:01:01.118,11.75,26.5001
14:01:01.123,10.8125,23.8751
14:01:01.162,10.375,22.2501
14:01:01.164,10,21.7501
14:01:01.166,9.375,21.2501
14:01:01.170,8.75,20.1251
14:01:01.175,7.875,18.1876
14:01:01.213,7.375,15.8751
14:01:01.216,5.5,13.4376
14:01:01.218,3.5625,9.4375
14:01:01.220,1.5,5.4375
14:01:01.222,-0.5,0.875
14:01:01.269,-3.8125,-5.5
14:01:01.270,-6.4375,-10.3125
14:01:01.275,-9.1875,-16.3126
14:01:01.281,-11.9375,-22.5626
14:01:01.284,-14.7501,-27.5626
14:01:01.285,-17.9376,-33.8751
14:01:01.297,-20.3126,-39.1251
14:01:01.303,-23.3126,-45.6252
14:01:01.313,-25.8751,-51.8752
14:01:01.322,-28.0001,-56.5002
14:01:01.334,-30.8126,-60.7502
14:01:01.343,-32.6251,-64.8127
14:01:01.352,-33.6251,-70.2503
14:01:01.363,-36.4376,-74.3753
14:01:01.395,-38.5001,-78.8128
14:01:01.396,-40.5627,-81.5003
14:01:01.399,-41.1252,-85.3128
14:01:01.403,-42.8752,-88.8753
14:01:01.414,-44.6877,-92.8129
14:01:01.423,-46.3752,-96.3129
14:01:01.433,-48.1252,-100.0004
14:01:01.443,-49.6877,-102.2504
14:01:01.453,-51.3127,-105.9379
14:01:01.464,-52.1877,-109.5629
14:01:01.473,-53.6877,-111.5004
14:01:01.482,-54.1252,-114.1254
14:01:01.492,-51.7502,-110.6254
14:01:01.503,-44.5002,-101.3754
14:01:01.513,-33.2501,-81.1253
14:01:01.523,-20.9376,-58.4377
14:01:01.533,-7.3125,-31.8126
14:01:01.542,4.3125,-7.6875
14:01:01.553,15.0626,15.4376
14:01:01.563,24.0001,35.5626
14:01:01.573,31.9376,53.8127
14:01:01.583,37.1876,67.9378
14:01:01.592,43.0002,80.5003
14:01:01.604,45.2502,90.5628
14:01:01.620,47.7502,95.4379
14:01:01.635,47.9377,100.9379
14:01:01.636,48.2502,102.0629
14:01:01.643,46.8127,103.3754
14:01:01.653,46.1252,101.5004
14:01:01.662,44.3127,99.6254
14:01:01.673,41.9377,95.2504
14:01:01.683,40.8752,91.5629
14:01:01.693,37.9376,87.3128
14:01:01.703,35.7501,82.0003
14:01:01.713,32.3126,75.6253
14:01:01.722,28.5001,68.9378
14:01:01.733,24.6251,60.0627
14:01:01.743,21.5626,52.8752
14:01:01.753,18.5001,46.8127
14:01:01.763,15.8751,40.8127
14:01:01.772,13.5001,37.5001
14:01:01.782,12.1875,33.6251
14:01:01.793,10.75,31.5001
14:01:01.803,10.8125,28.8126
14:01:01.814,10.625,28.3126
14:01:01.825,10.375,27.2501
14:01:01.832,9.5,26.1876
14:01:01.872,10.1875,24.1251
14:01:01.874,8.3125,20.5626
14:01:01.876,7.9375,18.0626
14:01:01.879,6.25,14.7501
14:01:01.885,3.5625,8.5
14:01:01.923,0.9375,4.75
14:01:01.926,-1.1875,-1.6875
14:01:01.927,-3.5,-7
14:01:01.932,-6.1875,-12.9375
14:01:01.934,-9.4375,-18.6876
14:01:01.948,-11.75,-25.3751
14:01:01.953,-15.6251,-31.7501
14:01:01.977,-18.3751,-37.2501
14:01:01.980,-21.2501,-43.5002
14:01:01.983,-23.7501,-48.6877
14:01:02.018,-26.2501,-52.6252
14:01:02.019,-27.5626,-58.6877
14:01:02.021,-30.5626,-63.9377
14:01:02.029,-33.5001,-69.0628
14:01:02.034,-35.1876,-73.5628
14:01:02.048,-37.1876,-77.4378
14:01:02.053,-38.5626,-80.1878
14:01:02.063,-39.8127,-85.5003
14:01:02.073,-41.0627,-87.3753
14:01:02.083,-43.8127,-92.2504
14:01:02.093,-44.6877,-94.1254
14:01:02.103,-46.3752,-98.3129
14:01:02.113,-48.1252,-101.4379
14:01:02.125,-49.1877,-105.2504
14:01:02.141,-50.5002,-107.5629
14:01:02.147,-52.3127,-110.6254
14:01:02.163,-53.5002,-114.0004
14:01:02.165,-54.2502,-117.688
14:01:02.173,-55.9377,-118.688
14:01:02.183,-56.3127,-121.5005
14:01:02.193,-55.6252,-120.6255
14:01:02.202,-49.2502,-114.0629
14:01:02.214,-37.9376,-94.8754
14:01:02.222,-23.8126,-68.3753
14:01:02.233,-10.3125,-43.7502
14:01:02.242,3.125,-16.6876
14:01:02.253,14.0626,7.8125
14:01:02.262,23.4376,28.6251
14:01:02.273,31.3751,47.6877
14:01:02.282,37.8751,63.0002
14:01:02.292,43.3752,76.4378
14:01:02.303,47.8752,86.1253
14:01:02.312,48.6252,93.8129
14:01:02.322,50.0627,96.8129
14:01:02.333,49.8752,99.7504
14:01:02.343,48.5627,100.0629
14:01:02.353,47.2502,98.0004
14:01:02.364,45.3127,96.5004
14:01:02.372,44.3127,92.3754
14:01:02.383,41.8127,89.6878
14:01:02.393,39.5002,83.3753
14:01:02.403,37.0001,77.8128
14:01:02.413,32.5626,71.2503
14:01:02.423,29.6251,63.3752
14:01:02.433,25.1876,56.5002
14:01:02.442,22.8126,49.8127
14:01:02.452,19.1876,43.1252
14:01:02.462,17.7501,37.5001
14:01:02.473,14.6876,33.2501
14:01:02.483,14.0626,30.5001
14:01:02.493,13.3751,28.8126
14:01:02.503,13.4376,27.3751
14:01:02.512,13.125,26.7501
14:01:02.523,13.2501,25.9376
14:01:02.533,12.125,24.5001
14:01:02.543,10.25,22.5001
14:01:02.553,10.1875,19.6876
14:01:02.563,7.6875,17.3751
14:01:02.573,6.5,13.6876
14:01:02.614,4.375,8.8125
14:01:02.615,1.8125,4.5
14:01:02.619,-0.5,-1.0625
14:01:02.620,-3.4375,-5.875
14:01:02.623,-6,-13.0625
14:01:02.665,-9.375,-17.9376
14:01:02.668,-11.9375,-24.7501
14:01:02.682,-15.0626,-30.3126
14:01:02.688,-18.5001,-37.8126
14:01:02.688,-20.8751,-42.3127
14:01:02.688,-24.8126,-49.3752
14:01:02.693,-26.6251,-54.2502
14:01:02.722,-29.5626,-60.0627
14:01:02.724,-31.2501,-63.8752
14:01:02.726,-33.5626,-68.7503
14:01:02.733,-35.4376,-73.4378
14:01:02.759,-37.6251,-78.3753
14:01:02.762,-39.4377,-82.4378
14:01:02.764,-41.0002,-86.1878
14:01:02.772,-43.2502,-89.5003
14:01:02.783,-44.3127,-93.3129
14:01:02.797,-45.5627,-96.8754
14:01:02.803,-45.8752,-98.6254
14:01:02.814,-48.2502,-101.6254
14:01:02.825,-48.8127,-105.1254
14:01:02.833,-51.1252,-108.0004
14:01:02.842,-51.6877,-110.9379
14:01:02.853,-52.7502,-114.2504
14:01:02.864,-53.3752,-116.5629
14:01:02.873,-54.9377,-119.188
14:01:02.883,-55.7502,-121.313
14:01:02.894,-55.5002,-122.813
14:01:02.914,-53.1877,-119.688
14:01:02.917,-45.4377,-107.9379
14:01:02.931,-33.0001,-87.8753
14:01:02.934,-19.3126,-62.4377
14:01:02.943,-5.5625,-34.8751
14:01:02.953,7.5,-8.4375
14:01:02.963,18.5001,14.0001
14:01:02.974,27.5626,34.6876
14:01:02.984,34.0001,51.8752
14:01:02.993,39.9377,64.9377
14:01:03.004,44.1252,75.8753
14:01:03.012,46.3752,84.7503
14:01:03.022,47.5002,88.4378
14:01:03.033,48.0627,90.8754
14:01:03.042,46.5002,92.6254
14:01:03.054,45.0627,89.5003
14:01:03.064,43.2502,87.6253
14:01:03.074,39.8127,84.8128
14:01:03.082,38.5001,80.8128
14:01:03.096,34.3126,75.9378
14:01:03.103,31.3751,69.0628
14:01:03.114,27.6251,62.3127
14:01:03.124,23.0626,53.1877
14:01:03.133,18.5626,46.0002
14:01:03.144,15.3751,38.0001
14:01:03.154,11.9375,32.1876
14:01:03.162,9.5625,26.6251
14:01:03.174,8,23.6876
14:01:03.185,7.9375,20.6251
14:01:03.193,8.3125,20.2501
14:01:03.203,8.4375,19.4376
14:01:03.214,8.5,19.5626
14:01:03.223,8.375,19.1251
14:01:03.234,7.8125,19.4376
14:01:03.244,7.9375,18.6876
14:01:03.254,6.5625,17.6876
14:01:03.264,5.5625,14.3751
14:01:03.273,5.125,12.0625
14:01:03.284,1.8125,8.5625
14:01:03.294,-0.5,4.75
14:01:03.304,-2.4375,0.125
14:01:03.312,-4.6875,-4.75
14:01:03.324,-7.5,-10.9375
14:01:03.334,-10.6875,-16.6251
14:01:03.344,-13.0625,-22.2501
14:01:03.354,-16.6251,-28.0626
14:01:03.365,-19.3751,-33.4376
14:01:03.386,-22.1251,-38.3126
14:01:03.389,-24.9376,-43.0627
14:01:03.419,-26.5001,-48.9377
14:01:03.420,-28.5001,-53.4377
14:01:03.423,-30.4376,-58.0627
14:01:03.425,-32.0001,-63.1877
14:01:03.495,-33.0626,-66.1878
14:01:03.496,-34.5001,-70.7503
14:01:03.496,-36.3751,-74.0003
14:01:03.499,-37.8126,-78.7503
14:01:03.505,-39.4377,-81.0628
14:01:03.505,-41.5002,-86.3753
14:01:03.505,-42.3752,-88.3128
14:01:03.543,-44.7502,-93.1879
14:01:03.544,-45.2502,-95.6879
14:01:03.548,-47.3127,-99.2504
14:01:03.549,-49.5002,-102.0629
14:01:03.553,-50.1877,-105.0629
14:01:03.565,-49.0627,-104.6254
14:01:03.573,-45.2502,-100.4379
14:01:03.585,-35.9376,-84.3128
14:01:03.593,-24.4376,-64.3127
14:01:03.603,-10.9375,-40.0002
14:01:03.614,1.1875,-14.8126
14:01:03.624,12.125,7.75
14:01:03.634,20.9376,27.4376
14:01:03.644,32.3126,54.5627
14:01:03.654,38.5001,68.3753
14:01:03.664,41.7502,77.1878
14:01:03.674,45.1877,89.6253
14:01:03.684,46.0627,91.1254
14:01:03.694,44.8127,92.9379
14:01:03.704,43.1877,90.8754
14:01:03.714,41.5627,88.8128
14:01:03.724,38.6251,85.3753
14:01:03.733,35.9376,80.6878
14:01:03.744,32.3751,75.9378
14:01:03.754,29.0626,68.0628
14:01:03.764,25.0626,61.2502
14:01:03.774,20.5626,51.6877
14:01:03.784,16.2501,43.5002
14:01:03.793,12.1875,34.6876
14:01:03.804,9.0625,27.8126
14:01:03.814,5.9375,21.1876
14:01:03.824,3.375,16.9376
14:01:03.834,3.125,14.8126
14:01:03.844,2.3125,12.9375
14:01:03.854,3.1875,13.8751
14:01:03.865,3.875,13.2501
14:01:03.875,4.375,13.7501
14:01:03.884,5.3125,15.1251
14:01:03.894,4.875,13
14:01:03.904,4.1875,11.5
14:01:03.914,3.4375,9.875
14:01:03.923,1.75,7.4375
14:01:03.954,-0.625,4.0625
14:01:03.957,-3,0.5
14:01:03.959,-5.1875,-5.3125
14:01:03.967,-7.9375,-10.375
14:01:03.977,-10,-15.4376
14:01:03.984,-13.3751,-21.0626
14:01:03.994,-15.4376,-26.1876
14:01:04.004,-18.7501,-32.4376
14:01:04.014,-21.3751,-38.4376
14:01:04.052,-24.6876,-44.0627
14:01:04.053,-27.5001,-49.0002
14:01:04.055,-29.7501,-55.8752
14:01:04.058,-32.4376,-60.2502
14:01:04.064,-34.1876,-64.6877
14:01:04.094,-35.6251,-69.9378
14:01:04.096,-37.3126,-73.3753
14:01:04.099,-39.3752,-78.7503
14:01:04.105,-40.7502,-81.5003
14:01:04.139,-42.8127,-86.5003
14:01:04.141,-44.1252,-89.4378
14:01:04.145,-46.7502,-92.6254
14:01:04.168,-48.1252,-97.6879
14:01:04.169,-49.5627,-100.6254
14:01:04.172,-51.5627,-104.5004
14:01:04.177,-52.4377,-108.1254
14:01:04.203,-51.9377,-109.9379
14:01:04.220,-52.1252,-111.8129
14:01:04.233,-46.9377,-106.3129
14:01:04.235,-36.9376,-91.6879
14:01:04.237,-23.3126,-67.0628
14:01:04.241,-9.1875,-41.8127
14:01:04.246,4.5625,-14.0626
14:01:04.253,16.1251,10.5
14:01:04.267,27.3126,34.6876
14:01:04.275,35.1251,54.6877
14:01:04.284,42.5627,70.0628
14:01:04.294,47.3127,83.1253
14:01:04.304,51.8752,94.1254
14:01:04.313,53.8127,102.3129
14:01:04.324,55.3127,106.2504
14:01:04.335,54.5002,108.3754
14:01:04.351,53.6252,107.9379
14:01:04.354,51.5002,107.1254
14:01:04.364,50.1252,103.6879
14:01:04.374,46.8752,101.4379
14:01:04.384,44.6877,96.8754
14:01:04.394,42.1877,90.8754
14:01:04.404,38.5626,84.8128
14:01:04.415,34.3126,77.0003
14:01:04.424,31.0001,68.7503
14:01:04.434,26.5001,60.9377
14:01:04.444,22.7501,53.6252
14:01:04.454,20.3126,47.0627
14:01:04.464,17.6251,41.0002
14:01:04.474,15.8751,36.6251
14:01:04.484,14.6876,33.8126
14:01:04.494,13.8126,31.0626
14:01:04.504,13.8751,30.3751
14:01:04.514,13.8126,29.0001
14:01:04.524,14.0001,28.3126
14:01:04.534,13.8751,28.4376
14:01:04.544,12.4375,27.4376
14:01:04.554,12.25,26.1876
14:01:04.564,11.1875,22.6251
14:01:04.574,8.875,19.6876
14:01:04.586,7.1875,15.1251
14:01:04.594,5.5,11.125
14:01:04.604,2.5625,6.125
14:01:04.614,-0.3125,1.25
14:01:04.624,-3.125,-5.25
14:01:04.634,-6.9375,-10.8125
14:01:04.644,-10,-16.5626
14:01:04.654,-12.5,-23.3126
14:01:04.665,-15.8751,-29.1251
14:01:04.674,-17.8126,-34.1876
14:01:04.684,-21.3126,-40.6252
14:01:04.694,-23.6876,-45.5002
14:01:04.703,-25.5001,-50.8127
14:01:04.714,-27.5626,-55.5627
14:01:04.725,-29.7501,-60.0002
14:01:04.742,-31.7501,-63.5627
14:01:04.748,-33.8126,-68.8753
14:01:04.764,-35.6876,-73.3128
14:01:04.766,-37.6251,-77.4378
14:01:04.776,-39.4377,-81.7503
14:01:04.814,-41.6252,-85.6253
14:01:04.816,-43.3127,-90.2503
14:01:04.819,-44.6252,-93.0629
14:01:04.845,-46.3127,-97.1879
14:01:04.847,-46.1877,-97.7504
14:01:04.847,-43.0627,-93.9379
14:01:04.849,-34.1251,-81.9378
14:01:04.855,-22.0001,-59.3127
14:01:04.869,-8.4375,-35.6876
14:01:04.874,4.6875,-9.8125
14:01:04.905,15.9376,14.8126
14:01:04.906,26.7501,38.0001
14:01:04.911,35.4376,57.4377
14:01:04.916,43.1252,75.2503
14:01:04.923,47.9377,88.6253
14:01:04.957,52.0627,99.1254
14:01:04.959,54.9377,108.3129
14:01:04.961,55.5002,111.3129
14:01:04.965,55.5627,114.6254
14:01:04.974,55.1252,115.1254
14:01:04.984,52.8752,114.0004
14:01:04.994,51.4377,111.1254
14:01:05.004,48.8752,107.3129
14:01:05.014,46.5002,101.8129
14:01:05.024,43.8752,96.6254
14:01:05.034,40.5627,89.6878
14:01:05.044,36.6876,82.4378
14:01:05.054,32.6876,73.3128
14:01:05.064,28.0001,65.0002
14:01:05.074,25.1251,57.2502
14:01:05.084,20.8751,50.4377
14:01:05.101,19.0001,44.5627
14:01:05.105,17.1876,40.1877
14:01:05.114,15.6251,36.8751
14:01:05.124,15.7501,33.4376
14:01:05.134,15.1876,33.4376
14:01:05.144,15.5626,32.1876
14:01:05.154,15.1876,32.0626
14:01:05.164,15.2501,30.9376
14:01:05.174,14.0626,29.6251
14:01:05.184,13.5626,26.8126
14:01:05.195,11.375,25.4376
14:01:05.204,10.3125,20.3751
14:01:05.234,7.75,18.0626
14:01:05.238,6.4375,13.5001
14:01:05.239,2.5625,8.75
14:01:05.246,0.625,2.75
14:01:05.255,-2.125,-2.5625
14:01:05.264,-4.6875,-9.25
14:01:05.274,-8.25,-15.6876
14:01:05.284,-11.1875,-21.8126
14:01:05.294,-14.2501,-26.6251
14:01:05.304,-16.5626,-33.1876
14:01:05.314,-19.3126,-39.1877
14:01:05.324,-21.8751,-43.5627
14:01:05.334,-24.2501,-47.5002
14:01:05.344,-25.0001,-52.5627
14:01:05.354,-28.5001,-58.6252
14:01:05.364,-31.2501,-62.0627
14:01:05.375,-32.5001,-67.8753
14:01:05.384,-34.5001,-71.3753
14:01:05.394,-36.3751,-75.5628
14:01:05.404,-38.6876,-79.3753
14:01:05.415,-40.0627,-84.4378
14:01:05.424,-42.1252,-87.6253
14:01:05.434,-43.5002,-91.5629
14:01:05.444,-45.0627,-92.8754
14:01:05.454,-43.9377,-95.5629
14:01:05.464,-40.0627,-89.8753
14:01:05.479,-30.8751,-75.5003
14:01:05.483,-18.6251,-54.8752
14:01:05.494,-6.0625,-28.8751
14:01:05.511,7.125,-4.9375
14:01:05.514,18.2501,20.4376
14:01:05.529,28.2501,41.0627
14:01:05.536,36.3126,60.7502
14:01:05.544,42.3127,76.4378
14:01:05.576,47.7502,89.5628
14:01:05.578,51.2502,100.6879
14:01:05.580,53.3127,105.8754
14:01:05.607,54.3127,110.8754
14:01:05.609,53.0627,112.7504
14:01:05.611,52.5627,112.5629
14:01:05.615,50.2502,111.0629
14:01:05.655,47.6877,106.1254
14:01:05.656,44.3127,101.8754
14:01:05.658,41.3752,94.8754
14:01:05.661,38.8126,88.9378
14:01:05.666,35.6251,82.6253
14:01:05.703,31.5001,73.7503
14:01:05.704,27.0001,64.6877
14:01:05.707,22.8126,58.1877
14:01:05.713,19.5626,48.6252
14:01:05.716,16.3126,42.0002
14:01:05.737,15.3751,37.3126
14:01:05.739,13.4376,32.8751
14:01:05.744,12.375,31.1876
14:01:05.754,12.1875,27.5001
14:01:05.765,11.75,27.0626
14:01:05.774,11.5,26.2501
14:01:05.785,11.375,26.8751
14:01:05.795,11.375,25.0626
14:01:05.804,10.5,23.8751
14:01:05.815,10,22.0626
14:01:05.824,8.375,19.8751
14:01:05.834,7.0625,16.0001
14:01:05.846,4.5,12.4375
14:01:05.854,1.8125,7.0625
14:01:05.864,-0.375,2.125
14:01:05.875,-3.0625,-4.75
14:01:05.884,-6,-9.1875
14:01:05.895,-9.125,-16.1251
14:01:05.905,-11.5625,-21.8126
14:01:05.915,-14.5626,-28.5626
14:01:05.924,-18.2501,-34.0001
14:01:05.935,-21.0001,-38.8751
14:01:05.944,-23.3751,-44.6252
14:01:05.954,-25.8126,-50.8752
14:01:05.964,-27.8751,-54.9377
14:01:05.974,-29.6876,-59.3127
14:01:05.987,-31.9376,-63.8752
14:01:05.995,-33.0626,-68.6878
14:01:06.005,-36.0001,-72.9378
14:01:06.015,-36.7501,-77.3753
14:01:06.026,-39.3127,-81.1253
14:01:06.035,-41.1252,-84.9378
14:01:06.051,-42.7502,-89.8128
14:01:06.067,-43.8127,-91.4379
14:01:06.070,-45.0627,-95.1879
14:01:06.078,-44.8127,-96.6879
14:01:06.085,-42.6877,-95.5629
14:01:06.094,-35.5001,-85.0003
14:01:06.105,-24.1876,-66.2503
14:01:06.115,-11.625,-42.4377
14:01:06.124,2.25,-17.6251
14:01:06.135,12.875,7.5
14:01:06.143,22.8126,30.2501
14:01:06.154,32.3751,47.9377
14:01:06.165,38.4376,64.6877
14:01:06.174,44.1252,78.6878
14:01:06.185,48.3752,88.3128
14:01:06.195,50.8752,97.2504
14:01:06.205,51.1252,102.0629
14:01:06.216,51.0002,103.6879
14:01:06.227,49.4377,103.1879
14:01:06.238,46.3127,101.1254
14:01:06.245,44.3752,97.4379
14:01:06.254,42.0002,92.4379
14:01:06.265,38.5001,86.5003
14:01:06.275,35.5001,79.6878
14:01:06.285,31.3751,73.0003
14:01:06.320,27.1876,63.1877
14:01:06.322,23.1876,54.5002
14:01:06.325,18.8126,46.0002
14:01:06.328,15.3126,38.6876
14:01:06.361,13.3126,33.1251
14:01:06.364,11.0625,29.0001
14:01:06.365,9.375,26.0626
14:01:06.370,8.75,23.6876
14:01:06.376,9.25,22.8126
14:01:06.411,10.75,23.4376
14:01:06.414,11.125,23.6251
14:01:06.418,10.6875,24.5626
14:01:06.419,11,24.4376
14:01:06.448,10.3125,22.5626
14:01:06.451,9.3125,21.3126
14:01:06.454,7.8125,19.5001
14:01:06.456,6.25,14.1251
14:01:06.478,3.75,11.25
14:01:06.480,2.5,7.4375
14:01:06.485,0.0625,2.625
14:01:06.519,-3.25,-2.1875
14:01:06.520,-6.0625,-7.25
14:01:06.522,-8.6875,-13.9376
14:01:06.533,-10.75,-18.0001
14:01:06.535,-14.0001,-25.1251
14:01:06.545,-16.4376,-29.0626
14:01:06.555,-18.9376,-35.6251
14:01:06.566,-21.3126,-40.2502
14:01:06.575,-23.8751,-45.6877
14:01:06.586,-26.8126,-50.6877
14:01:06.596,-28.2501,-54.1252
14:01:06.607,-30.5001,-60.2502
14:01:06.615,-33.0001,-64.3127
14:01:06.625,-34.6251,-68.3753
14:01:06.635,-36.8751,-73.1253
14:01:06.646,-38.1876,-76.1878
14:01:06.656,-39.4377,-81.1253
14:01:06.665,-40.1252,-83.4378
14:01:06.675,-40.5627,-83.9378
14:01:06.687,-37.1876,-81.1253
14:01:06.695,-29.3751,-67.5628
14:01:06.706,-18.5626,-49.3127
14:01:06.715,-5.8125,-26.6251
14:01:06.725,5.1875,-3
14:01:06.735,16.1251,19.4376
14:01:06.746,25.1876,41.1252
14:01:06.755,33.1251,58.5002
14:01:06.765,39.9377,75.1253
14:01:06.775,43.8127,87.5628
14:01:06.787,47.3127,96.7504
14:01:06.795,48.1877,104.2504
14:01:06.805,49.3127,107.6254
14:01:06.820,49.4377,108.9379
14:01:06.836,47.1877,108.4379
14:01:06.841,44.5627,104.4379
14:01:06.854,41.6877,99.4379
14:01:06.856,38.3751,94.6254
14:01:06.871,35.0001,86.8753
14:01:06.875,30.4376,80.9378
14:01:06.885,25.6876,71.2503
14:01:06.895,20.9376,62.3752
14:01:06.905,17.0626,52.6877
14:01:06.915,12.625,44.2502
14:01:06.925,9.4375,37.7501
14:01:06.937,6.625,30.6876
14:01:06.945,4.6875,26.8126
14:01:06.955,4.9375,24.8126
14:01:06.967,6.0625,24.3126
14:01:06.979,5.625,22.6876
14:01:06.985,6.625,22.5001
14:01:07.017,6.8125,22.1876
14:01:07.019,7.75,22.2501
14:01:07.022,7.6875,21.9376
14:01:07.025,6.625,20.9376
14:01:07.057,5.0625,18.5001
14:01:07.058,4.5,15.0001
14:01:07.060,2.0625,11.625
14:01:07.066,0.3125,6.5
14:01:07.081,-2.8125,1.25
14:01:07.086,-5.4375,-3.4375
14:01:07.123,-8,-9.3125
14:01:07.124,-11,-15.3751
14:01:07.127,-13.5626,-21.0001
14:01:07.130,-16.4376,-26.6876
14:01:07.135,-18.2501,-31.6876
14:01:07.167,-20.5001,-37.3126
14:01:07.169,-23.8751,-42.3127
14:01:07.171,-25.6876,-47.6877
14:01:07.175,-28.1876,-53.4377
14:01:07.185,-29.8751,-56.8752
14:01:07.195,-32.7501,-62.6252
14:01:07.205,-35.2501,-68.1253
14:01:07.215,-36.8751,-71.7503
14:01:07.225,-39.3127,-75.6253
14:01:07.235,-40.1877,-80.1878
14:01:07.245,-42.8127,-83.6878
14:01:07.256,-43.6252,-88.0003
14:01:07.265,-43.6877,-87.8128
14:01:07.275,-39.1251,-83.5628
14:01:07.285,-29.9376,-67.3753
14:01:07.295,-18.0001,-45.7502
14:01:07.305,-5.1875,-22.5001
14:01:07.315,7.75,4.4375
14:01:07.325,18.7501,28.5626
14:01:07.336,29.1876,50.5002
14:01:07.354,37.0001,71.0003
14:01:07.360,43.6877,87.1253
14:01:07.375,48.8752,101.4379
14:01:07.390,52.3752,112.8754
14:01:07.392,54.3127,119.938
14:01:07.395,54.7502,126.063
14:01:07.405,53.8127,126.7505
14:01:07.415,53.6877,126.313
14:01:07.425,51.3752,123.813
14:01:07.435,49.3752,119.313
14:01:07.446,46.0002,114.3129
14:01:07.455,44.3127,109.4379
14:01:07.465,41.7502,105.3129
14:01:07.475,38.8751,96.7504
14:01:07.490,35.0626,89.9378
14:01:07.501,31.2501,81.0628
14:01:07.510,26.8126,73.1878
14:01:07.521,22.8751,65.9378
14:01:07.530,20.5626,57.8752
14:01:07.542,17.3126,52.1877
14:01:07.550,16.3126,48.3752
14:01:07.560,15.3126,44.6252
14:01:07.570,14.6876,42.3127
14:01:07.580,14.9376,40.9377
14:01:07.590,14.4376,40.5627
14:01:07.600,12.6875,39.6252
14:01:07.612,13,36.6251
14:01:07.620,11,35.8751
14:01:07.630,10.375,33.0626
14:01:07.640,8.5,29.3126
14:01:07.650,5.625,24.6251
14:01:07.660,3.1875,19.8751
14:01:07.671,1.0625,13.9376
14:01:07.680,-2.1875,9.125
14:01:07.691,-3.6875,3.1875
14:01:07.700,-6.625,-1.8125
14:01:07.710,-9.3125,-8.9375
14:01:07.720,-12.75,-14.7501
14:01:07.730,-14.2501,-21.1251
14:01:07.742,-17.6251,-26.4376
14:01:07.751,-19.9376,-32.2501
14:01:07.761,-22.3751,-37.6251
14:01:07.794,-24.7501,-43.3752
14:01:07.797,-27.1251,-48.8127
14:01:07.801,-29.2501,-53.0627
14:01:07.801,-31.3751,-58.9377
14:01:07.833,-32.5626,-64.1252
14:01:07.835,-34.5626,-67.9378
14:01:07.837,-37.5626,-72.3753
14:01:07.840,-38.2501,-75.8128
14:01:07.870,-39.0626,-78.5003
14:01:07.873,-36.2501,-76.3128
14:01:07.876,-30.3751,-67.3128
14:01:07.880,-20.3126,-50.2502
14:01:07.897,-7.5625,-27.2501
14:01:07.902,5.3125,-2
14:01:07.928,16.8751,23.2501
14:01:07.930,26.6876,45.3127
14:01:07.933,35.8126,66.5003
14:01:07.941,43.3752,85.9378
14:01:07.950,49.7502,102.0004
14:01:07.961,53.8127,114.6879
14:01:07.970,56.9377,123.438
14:01:07.980,59.0002,130.1255
14:01:07.990,57.7502,132.188
14:01:08.000,56.8127,130.938
14:01:08.010,55.2502,128.8755
14:01:08.021,52.5627,122.6255
14:01:08.030,50.2502,119.1255
14:01:08.041,47.3752,113.2504
14:01:08.050,45.5002,108.8754
14:01:08.060,42.3127,104.2504
14:01:08.070,39.1251,96.4379
14:01:08.080,35.0001,87.0003
14:01:08.090,31.1251,79.8128
14:01:08.102,27.2501,70.4378
14:01:08.111,23.4376,63.2502
14:01:08.120,20.7501,56.1252
14:01:08.139,17.7501,50.3127
14:01:08.141,16.3126,45.8127
14:01:08.156,16.1251,42.4377
14:01:08.164,14.8126,41.8127
14:01:08.170,15.2501,39.0626
14:01:08.180,14.0626,38.5626
14:01:08.190,13.6876,36.3751
14:01:08.201,13,34.7501
14:01:08.210,13.8751,32.3126
14:01:08.221,11.25,28.8751
14:01:08.232,9.125,25.6251
14:01:08.240,7.0625,19.6251
14:01:08.250,3.75,14.9376
14:01:08.260,2.25,8.5625
14:01:08.270,-1.375,3.4375
14:01:08.282,-4.375,-4.0625
14:01:08.290,-7.125,-9.875
14:01:08.301,-10.5625,-16.7501
14:01:08.310,-13.5626,-22.6876
14:01:08.320,-16.8126,-28.8126
14:01:08.330,-19.1876,-35.6251
14:01:08.341,-21.8126,-40.6877
14:01:08.350,-24.1876,-46.8752
14:01:08.360,-26.0001,-51.3752
14:01:08.370,-28.3126,-55.2502
14:01:08.381,-29.9376,-60.5627
14:01:08.390,-32.3751,-63.9377
14:01:08.403,-33.8751,-70.1878
14:01:08.433,-35.3126,-72.8753
14:01:08.435,-36.4376,-78.3128
14:01:08.438,-38.4376,-81.4378
14:01:08.440,-39.4377,-86.1878
14:01:08.471,-40.5002,-89.0628
14:01:08.473,-41.0002,-90.3753
14:01:08.475,-38.8751,-90.6879
14:01:08.482,-31.8751,-81.8128
14:01:08.509,-22.6876,-64.8127
14:01:08.511,-10.375,-43.4377
14:01:08.514,2.1875,-18.3126
14:01:08.540,14.4376,6.5625
14:01:08.543,25.1251,30.0626
14:01:08.545,33.8751,51.5627
14:01:08.552,42.0627,70.3128
14:01:08.566,48.1252,87.1878
14:01:08.571,53.2502,99.5004
14:01:08.585,56.1252,107.7504
14:01:08.592,56.8127,114.7504
14:01:08.601,57.0627,117.6255
14:01:08.610,56.6252,117.0004
14:01:08.620,54.5627,115.5004
14:01:08.631,52.9377,109.9379
14:01:08.640,50.8127,105.3129
14:01:08.661,48.3752,100.5629
14:01:08.667,46.7502,95.6879
14:01:08.681,43.5002,90.2503
14:01:08.684,40.0002,82.1253
14:01:08.694,35.9376,73.0003
14:01:08.700,31.6876,64.6252
14:01:08.711,28.6876,55.8752
14:01:08.720,24.7501,49.2502
14:01:08.731,22.2501,42.2502
14:01:08.740,19.6876,36.7501
14:01:08.753,19.0626,32.0001
14:01:08.762,17.5001,30.1876
14:01:08.770,17.0626,26.3126
14:01:08.780,16.4376,25.2501
14:01:08.790,16.1251,23.8751
14:01:08.801,15.7501,23.3126
14:01:08.810,14.8751,20.6251
14:01:08.821,13.1876,19.0626
14:01:08.831,11.875,15.0626
14:01:08.840,9.875,11.625
14:01:08.851,7.375,7.75
14:01:08.860,4.9375,2.4375
14:01:08.871,2.0625,-2.75
14:01:08.881,0.0625,-8.8125
14:01:08.893,-4.375,-14.0626
14:01:08.900,-6.875,-20.8126
14:01:08.911,-10.125,-26.8751
14:01:08.922,-13.5001,-33.5001
14:01:08.931,-16.2501,-39.6877
14:01:08.941,-18.8126,-45.8127
14:01:08.950,-21.4376,-50.5627
14:01:08.965,-23.8126,-57.0002
14:01:08.971,-26.0001,-61.4377
14:01:08.982,-28.5001,-67.1878
14:01:08.991,-29.8751,-70.9378
14:01:09.001,-32.3126,-75.7503
14:01:09.012,-34.9376,-79.0628
14:01:09.022,-35.5626,-83.8128
14:01:09.032,-37.9376,-87.6253
14:01:09.041,-40.4377,-91.4379
14:01:09.074,-41.8752,-95.6879
14:01:09.077,-43.0002,-99.1879
14:01:09.079,-45.5002,-103.0004
14:01:09.082,-46.1252,-106.1879
14:01:09.090,-48.0627,-108.7504
14:01:09.102,-48.3752,-111.9379
14:01:09.111,-46.1252,-109.1254
14:01:09.122,-40.0627,-99.0004
14:01:09.131,-28.9376,-81.1878
14:01:09.141,-16.3751,-56.6877
14:01:09.151,-3.1875,-30.5001
14:01:09.162,9.75,-3.875
14:01:09.172,20.3126,19.6251
14:01:09.191,28.8126,41.2502
14:01:09.194,36.3126,58.6252
14:01:09.230,41.5627,73.7503
14:01:09.232,45.5002,84.2503
14:01:09.234,48.1252,92.2504
14:01:09.236,48.6877,97.1879
14:01:09.243,48.5627,99.3129
14:01:09.272,46.9377,99.9379
14:01:09.274,44.4377,96.6879
14:01:09.277,42.0002,92.5004
14:01:09.282,39.1252,88.8128
14:01:09.293,37.1251,82.6253
14:01:09.323,33.4376,77.1253
14:01:09.325,30.4376,69.4378
14:01:09.328,25.9376,62.6877
14:01:09.332,22.3126,52.8752
14:01:09.367,17.5626,45.0627
14:01:09.368,15.4376,37.3751
14:01:09.370,12.25,31.6876
14:01:09.378,9.875,26.0001
14:01:09.380,8.125,22.7501
14:01:09.395,8.125,20.7501
14:01:09.403,7.1875,19.5626
14:01:09.411,7.875,19.1251
14:01:09.421,7.375,18.6251
14:01:09.443,5.75,17.8751
14:01:09.446,5.375,17.3126
14:01:09.459,3.75,15.3751
14:01:09.475,0.0625,13.125
14:01:09.477,-3.5625,7.9375
14:01:09.485,-10.0625,4.75
14:01:09.491,-16.2501,-0.4375
14:01:09.501,-24.7501,-2.5
14:01:09.513,-31.5626,-6.625
14:01:09.522,-40.8127,-9.8125
14:01:09.531,-50.9377,-13.125
14:01:09.541,-57.6877,-16.1876
14:01:09.551,-60.3127,-15.5626
14:01:09.562,-60.1252,-13.6876
14:01:09.572,-58.8127,-10.4375
14:01:09.583,-58.2502,-10.25
14:01:09.591,-55.2502,-9.0625
14:01:09.603,-51.5002,-7.75
14:01:09.613,-47.1252,-6.375
14:01:09.622,-45.0002,-5.6875
14:01:09.631,-41.1252,-4.4375
14:01:09.642,-36.6251,-3.25
14:01:09.652,-30.3751,-0.75
14:01:09.663,-24.1251,1.625
14:01:09.671,-17.5001,5
14:01:09.682,-10.6875,7
14:01:09.691,-3.9375,8.75
14:01:09.701,1.375,10.8125
14:01:09.712,7.3125,10.25
14:01:09.722,9.75,10.625
14:01:09.731,13,8.5
14:01:09.741,19.7501,14.0001
14:01:09.751,26.3751,26.1251
14:01:09.762,36.7501,44.3127
14:01:09.771,47.1252,66.8753
14:01:09.782,57.3127,86.8128
14:01:09.791,68.8753,110.4379
14:01:09.801,78.3128,129.063
14:01:09.812,86.1253,147.0631
14:01:09.821,91.5629,162.1881
14:01:09.831,95.1254,173.6257
14:01:09.841,97.3129,181.2507
14:01:09.852,99.3754,185.1882
14:01:09.862,99.7504,188.0007
14:01:09.871,100.1879,185.4382
14:01:09.881,100.3754,182.3132
14:01:09.892,100.8754,178.4382
14:01:09.901,100.8129,173.3132
14:01:09.911,100.9379,169.0006
14:01:09.921,99.3754,163.4381
14:01:09.931,97.6254,155.3756
14:01:09.941,94.3129,147.7505
14:01:09.981,90.9379,137.7505
14:01:09.983,87.3753,128.063
14:01:10.029,84.6253,120.688
14:01:10.030,82.1253,113.3129
14:01:10.032,79.7503,107.1879
14:01:10.061,78.8128,103.0004
14:01:10.061,76.1253,99.5004
14:01:10.061,75.5628,96.6879
14:01:10.062,72.3128,94.3129
14:01:10.064,71.1253,92.6879
14:01:10.071,67.4378,89.1253
14:01:10.086,65.1252,86.8753
14:01:10.088,60.3752,82.3128
14:01:10.123,57.1252,78.0003
14:01:10.126,52.3127,72.2503
14:01:10.128,48.7502,67.2503
14:01:10.133,43.9377,61.3752
14:01:10.136,39.5002,54.0002
14:01:10.151,35.3751,47.2502
14:01:10.156,31.1251,39.6252
14:01:10.170,27.6251,33.1876
14:01:10.176,23.7501,25.5626
14:01:10.187,19.8126,18.7501
14:01:10.196,16.6876,10.625
14:01:10.207,12.1875,-3.5
14:01:10.216,9.1875,-8.8125
14:01:10.227,7.125,-13.9376
14:01:10.237,3.3125,-20.9376
14:01:10.246,0.0625,-25.5001
14:01:10.256,-3.0625,-31.6876
14:01:10.267,-7.5,-37.7501
14:01:10.277,-11.5625,-45.1877
14:01:10.286,-15.6876,-52.0002
14:01:10.297,-19.5001,-57.7502
14:01:10.307,-24.6876,-64.0627
14:01:10.317,-28.8751,-70.6253
14:01:10.326,-34.6876,-78.1878
14:01:10.354,-38.1876,-83.9378
14:01:10.356,-41.0002,-87.9378
14:01:10.359,-39.4377,-88.1253
14:01:10.367,-33.3751,-80.4378
14:01:10.378,-23.1876,-60.6252
14:01:10.387,-10.3125,-36.9376
14:01:10.397,4.25,-10.25
14:01:10.406,15.1876,15.1876
14:01:10.417,25.8751,38.2501
14:01:10.427,35.6876,60.4377
14:01:10.436,43.8127,78.5628
14:01:10.446,50.6252,96.1254
14:01:10.456,54.7502,110.6879
14:01:10.467,58.6252,119.438
14:01:10.477,60.3127,128.938
14:01:10.486,61.1877,132.5005
14:01:10.496,61.3752,134.063
14:01:10.506,59.3752,133.5005
14:01:10.517,58.0002,130.1255
14:01:10.526,56.7502,127.2505
14:01:10.536,53.4377,122.313
14:01:10.546,52.3752,118.688
14:01:10.556,49.1252,113.3129
14:01:10.567,45.1877,105.9379
14:01:10.576,41.4377,97.0004
14:01:10.586,36.7501,88.6878
14:01:10.596,32.8751,80.6878
14:01:10.606,28.7501,72.6253
14:01:10.617,26.1876,66.1878
14:01:10.626,23.7501,61.0627
14:01:10.636,23.0626,55.9377
14:01:10.646,22.9376,52.6252
14:01:10.656,22.4376,51.6252
14:01:10.667,23.4376,48.3752
14:01:10.687,23.1251,47.5627
14:01:10.690,24.1876,44.8752
14:01:10.729,22.6876,43.0627
14:01:10.729,22.7501,39.0001
14:01:10.732,20.7501,35.0001
14:01:10.734,19.0626,30.5626
14:01:10.739,16.8126,24.8751
14:01:10.790,15.5001,19.5001
14:01:10.790,13.3751,14.5001
14:01:10.858,11,9.3125
14:01:10.861,8.8125,3.375
14:01:10.861,7,-1.0625
14:01:10.861,6.1875,-6.875
14:01:10.861,3.9375,-10.8125
14:01:10.867,3.25,-15.8126
14:01:10.867,0.1875,-21.3751
14:01:10.867,-2.3125,-26.5626
14:01:10.873,-5,-32.2501
14:01:10.881,-8.6875,-38.7501
14:01:10.892,-12,-43.9377
14:01:10.906,-15.1251,-48.8752
14:01:10.911,-18.5626,-55.0627
14:01:10.921,-21.9376,-59.5627
14:01:10.931,-25.5626,-65.0627
14:01:10.941,-28.0001,-70.7503
14:01:10.953,-30.2501,-75.3753
14:01:10.962,-33.7501,-80.6253
14:01:10.972,-36.3126,-85.8128
14:01:10.981,-38.2501,-91.4379
14:01:10.992,-42.0002,-95.6254
14:01:11.001,-44.1877,-100.9379
14:01:11.011,-46.0002,-105.2504
14:01:11.022,-47.3127,-109.2504
14:01:11.032,-28.8126,-85.9378
14:01:11.042,-13.3126,-60.0627
14:01:11.053,2.9375,-29.8751
14:01:11.062,17.1251,-1
14:01:11.072,29.5001,24.0626
14:01:11.082,38.5626,46.7502
14:01:11.091,47.3752,65.1877
14:01:11.101,54.0002,82.1878
14:01:11.111,59.0627,94.1254
14:01:11.121,61.5002,104.8754
14:01:11.132,63.6252,110.6254
14:01:11.141,62.8127,116.5004
14:01:11.151,62.8127,117.0629
14:01:11.162,61.8752,116.5004
14:01:11.172,58.8752,114.1879
14:01:11.182,57.1877,110.3129
14:01:11.192,53.5002,106.3129
14:01:11.201,51.1252,101.7504
14:01:11.212,46.7502,95.7504
14:01:11.222,43.4377,89.2503
14:01:11.231,38.3126,82.1878
14:01:11.241,33.0626,73.8753
14:01:11.252,28.5626,64.8752
14:01:11.268,24.3751,56.4377
14:01:11.282,21.0001,49.7502
14:01:11.287,17.2501,43.5627
14:01:11.302,15.3126,39.3127
14:01:11.319,14.0626,36.8126
14:01:11.321,13.125,33.8126
14:01:11.336,12.4375,32.5001
14:01:11.339,12.3125,31.5001
14:01:11.354,11.875,29.8751
14:01:11.356,10.9375,27.5001
14:01:11.366,9.8125,26.0001
14:01:11.377,8.375,23.7501
14:01:11.386,4.8125,20.4376
14:01:11.406,3.375,16.8126
14:01:11.409,-0.125,11.875
14:01:11.439,-2.625,6.5
14:01:11.441,-8.3125,-2.5625
14:01:11.445,-12.0625,-9
14:01:11.446,-15.6251,-16.6251
14:01:11.484,-19.5626,-24.3751
14:01:11.486,-23.5626,-31.6251
14:01:11.488,-26.7501,-38.8751
14:01:11.491,-29.6876,-47.5627
14:01:11.497,-33.5001,-53.9377
14:01:11.535,-37.2501,-62.3752
14:01:11.537,-41.0002,-68.6878
14:01:11.540,-43.8752,-77.0003
14:01:11.542,-46.8752,-83.3128
14:01:11.579,-49.0002,-89.4378
14:01:11.581,-50.8752,-94.7504
14:01:11.582,-52.4377,-99.8129
14:01:11.585,-54.3127,-103.8754
14:01:11.591,-54.1252,-108.1254
14:01:11.603,-55.1877,-111.8129
14:01:11.635,-54.6252,-115.4379
14:01:11.639,-56.9377,-119.2505
14:01:11.639,-57.5627,-123.8755
14:01:11.644,-57.5627,-127.0005
14:01:11.657,-58.3127,-129.813
14:01:11.662,-58.0002,-134.063
14:01:11.673,-58.5002,-136.1255
14:01:11.682,-57.5002,-139.2505
14:01:11.693,-55.7502,-140.813
14:01:11.702,-48.1252,-134.438
14:01:11.714,-35.8126,-118.063
14:01:11.723,-18.4376,-89.6253
14:01:11.733,-1.3125,-58.5627
14:01:11.743,15.7501,-26.1876
14:01:11.753,31.0626,4.5625
14:01:11.762,44.2502,30.3751
14:01:11.774,53.1877,53.0627
14:01:11.783,60.6877,68.8753
14:01:11.793,64.9377,84.7503
14:01:11.801,68.0003,93.7504
14:01:11.814,69.4378,101.3129
14:01:11.822,68.2503,104.5004
14:01:11.832,67.4378,106.4379
14:01:11.843,64.2502,107.1254
14:01:11.851,61.9377,103.8129
14:01:11.863,59.0627,102.9379
14:01:11.872,56.0627,98.2504
14:01:11.882,53.6252,94.3129
14:01:11.893,50.0627,92.0629
14:01:11.903,46.6252,85.0003
14:01:11.913,42.1252,77.8753
14:01:11.922,37.9376,68.6253
14:01:11.932,33.3751,60.9377
14:01:11.942,29.2501,53.0002
14:01:11.953,25.8751,45.4377
14:01:11.963,22.8126,39.7502
14:01:11.971,20.9376,33.2501
14:01:11.982,19.6876,29.6876
14:01:11.993,19.1251,27.1251
14:01:12.002,18.8126,25.8751
14:01:12.013,19.1251,25.5001
14:01:12.022,19.0626,23.6876
14:01:12.031,18.9376,23.0626
14:01:12.043,18.9376,20.0001
14:01:12.076,17.9376,16.6876
14:01:12.080,16.1251,13.6876
14:01:12.080,13.9376,8.0625
14:01:12.085,11.75,2
14:01:12.114,9.0625,-3.25
14:01:12.117,5.5,-9.5
14:01:12.145,3.375,-16.3126
14:01:12.147,-1.6875,-23.7501
14:01:12.185,-5.375,-31.1876
14:01:12.185,-9.875,-38.7501
14:01:12.187,-14.3126,-46.4377
14:01:12.187,-18.7501,-54.8127
14:01:12.195,-23.8126,-61.5002
14:01:12.195,-27.1876,-68.2503
14:01:12.195,-31.6251,-74.1878
14:01:12.203,-34.0626,-80.6253
14:01:12.233,-37.6876,-85.0628
14:01:12.236,-40.3752,-90.7504
14:01:12.237,-43.6252,-95.5629
14:01:12.244,-45.3752,-98.1879
14:01:12.253,-47.8127,-103.7504
14:01:12.263,-49.6877,-105.8129
14:01:12.273,-51.0627,-110.5629
14:01:12.283,-53.2502,-113.6879
14:01:12.292,-54.2502,-116.8754
14:01:12.302,-55.7502,-120.563
14:01:12.314,-57.8127,-122.6255
14:01:12.322,-59.5002,-127.7505
14:01:12.332,-60.8127,-130.3755
14:01:12.342,-61.5002,-132.313
14:01:12.354,-61.2502,-131.438
14:01:12.363,-55.3127,-121.6255
14:01:12.373,-45.3127,-103.8129
14:01:12.382,-30.9376,-78.6253
14:01:12.392,-17.6876,-50.0627
14:01:12.405,-3.375,-22.5001
14:01:12.414,8.25,4.1875
14:01:12.422,18.6251,24.8751
14:01:12.433,27.0626,44.0627
14:01:12.443,32.6876,58.8127
14:01:12.452,37.1876,69.7503
14:01:12.463,40.2502,78.8128
14:01:12.474,41.3127,82.1253
14:01:12.483,41.0002,84.3128
14:01:12.493,38.3126,84.6253
14:01:12.503,36.5626,80.3753
14:01:12.513,33.7501,78.6253
14:01:12.522,31.0001,74.2503
14:01:12.533,29.3126,69.1253
14:01:12.542,25.8126,64.1877
14:01:12.552,23.3126,56.0627
14:01:12.563,20.4376,49.7502
14:01:12.574,16.3751,39.6252
14:01:12.583,13.1876,32.9376
14:01:12.593,10.3125,24.2501
14:01:12.603,8,17.4376
14:01:12.622,5.8125,10.9375
14:01:12.628,4.5625,6.625
14:01:12.643,4.75,4.875
14:01:12.645,4.8125,3.75
14:01:12.655,6.75,4.625
14:01:12.662,8.9375,6.6875
14:01:12.672,10.5625,8.5625
14:01:12.682,12.4375,9.875
14:01:12.693,13.1876,8.875
14:01:12.704,13.3126,8.8125
14:01:12.713,13,5.5625
14:01:12.722,11.125,2.75
14:01:12.732,8.8125,-2.75
14:01:12.744,5.6875,-7.625
14:01:12.753,3.125,-12.625
14:01:12.763,-1,-18.6876
14:01:12.773,-4.25,-24.3751
14:01:12.783,-8.3125,-31.3126
14:01:12.792,-11.625,-37.5626
14:01:12.802,-15.3126,-44.1252
14:01:12.812,-18.9376,-51.0002
14:01:12.827,-21.6876,-57.2502
14:01:12.833,-24.9376,-62.5002
14:01:12.857,-29.8126,-68.1878
14:01:12.860,-31.9376,-73.4378
14:01:12.862,-35.4376,-78.6878
14:01:12.903,-38.6876,-83.6253
14:01:12.907,-40.6252,-89.6878
14:01:12.908,-43.5627,-93.4379
14:01:12.922,-44.4377,-98.5004
14:01:12.926,-47.5627,-102.1879
14:01:12.928,-50.0002,-109.0004
14:01:12.932,-53.3127,-112.8754
14:01:12.967,-54.1252,-118.0005
14:01:12.969,-55.1252,-120.7505
14:01:12.971,-53.7502,-120.938
14:01:12.974,-47.8752,-115.3129
14:01:12.999,-37.8126,-98.9379
14:01:13.000,-21.5001,-73.9378
14:01:13.004,-5.5625,-44.6252
14:01:13.013,9.875,-16.6876
14:01:13.023,23.0626,10.875
14:01:13.032,33.8126,32.2501
14:01:13.042,42.8752,51.4377
14:01:13.052,49.1877,65.6253
14:01:13.062,53.6877,77.5628
14:01:13.075,55.1252,85.7503
14:01:13.083,57.5002,92.0004
14:01:13.093,58.1252,93.5004
14:01:13.105,58.0002,94.6254
14:01:13.115,55.0627,95.0629
14:01:13.123,54.3127,91.1879
14:01:13.133,51.1877,89.5003
14:01:13.142,48.4377,85.1253
14:01:13.158,44.8752,78.6878
14:01:13.164,39.6252,72.6253
14:01:13.173,34.2501,62.8127
14:01:13.185,29.0626,53.3752
14:01:13.193,23.1251,43.0627
14:01:13.203,17.1876,34.0001
14:01:13.213,12.5,25.1876
14:01:13.223,8.4375,18.0626
14:01:13.233,6.0625,13.2501
14:01:13.243,4.6875,9
14:01:13.253,3.625,8.5
14:01:13.263,3.8125,8.6875
14:01:13.273,4.8125,8.6875
14:01:13.283,5.625,11.125
14:01:13.293,6.375,12.625
14:01:13.302,5.875,12.4375
14:01:13.313,5.9375,13
14:01:13.323,3.6875,11.3125
14:01:13.332,1.0625,8.5625
14:01:13.343,-1.625,4.75
14:01:13.352,-4.25,-0.875
14:01:13.363,-7.25,-6.375
14:01:13.373,-10.8125,-12.125
14:01:13.382,-14.5001,-19.5001
14:01:13.393,-17.0001,-24.8126
14:01:13.403,-20.6251,-31.5626
14:01:13.412,-22.5626,-36.7501
14:01:13.430,-26.0001,-42.3127
14:01:13.433,-29.0001,-47.1877
14:01:13.447,-31.3751,-53.9377
14:01:13.455,-34.3126,-58.5627
14:01:13.463,-37.0626,-63.6252
14:01:13.473,-39.2502,-69.5003
14:01:13.482,-41.6877,-75.8753
14:01:13.492,-43.6877,-81.3128
14:01:13.503,-45.3752,-86.8753
14:01:13.512,-46.8752,-91.9379
14:01:13.522,-48.5627,-95.8129
14:01:13.532,-50.3752,-100.1254
14:01:13.543,-49.1252,-103.1879
14:01:13.573,-47.1877,-101.3754
14:01:13.575,-40.1877,-95.5629
14:01:13.578,-27.4376,-77.5628
14:01:13.594,-12.3125,-52.3127
14:01:13.599,4.375,-23.5001
14:01:13.631,17.9376,4.6875
14:01:13.633,30.8751,28.8126
14:01:13.635,40.1252,50.7502
14:01:13.663,47.8127,68.1878
14:01:13.665,53.9377,83.3753
14:01:13.667,57.5002,94.1254
14:01:13.671,61.0627,103.6879
14:01:13.702,61.9377,110.6254
14:01:13.702,62.1252,112.8129
14:01:13.705,60.8752,116.1879
14:01:13.739,59.6877,115.5004
14:01:13.742,57.5002,115.0004
14:01:13.742,54.4377,111.7504
14:01:13.748,51.9377,107.3129
14:01:13.748,47.9377,102.2504
14:01:13.758,44.8752,96.1879
14:01:13.767,39.6252,87.7503
14:01:13.777,35.1251,79.7503
14:01:13.787,30.0001,71.2503
14:01:13.799,25.1876,63.9377
14:01:13.808,21.5001,56.1252
14:01:13.818,19.1251,50.1252
14:01:13.827,17.6876,45.6252
14:01:13.838,17.1876,43.4377
14:01:13.847,17.6876,42.8127
14:01:13.858,19.3126,42.8752
14:01:13.868,19.6876,43.5627
14:01:13.877,21.4376,43.9377
14:01:13.887,22.8751,43.1877
14:01:13.899,22.4376,42.0627
14:01:13.913,22.5001,40.6252
14:01:13.929,22.1251,37.5626
14:01:13.932,20.5626,33.6876
14:01:13.946,18.6876,30.6251
14:01:13.948,17.0626,23.2501
14:01:13.963,12.9375,16.8126
14:01:13.968,8.6875,9.875
14:01:13.978,4.8125,2
14:01:13.987,1.25,-4.4375
14:01:13.998,-1.6875,-12.25
14:01:14.008,-6.3125,-18.5626
14:01:14.017,-11.75,-28.2501
14:01:14.027,-16.1251,-35.2501
14:01:14.037,-21.2501,-43.5627
14:01:14.047,-25.5001,-49.5627
14:01:14.058,-29.0626,-56.1877
14:01:14.068,-34.0001,-62.8127
14:01:14.077,-38.8751,-69.3128
14:01:14.087,-42.1877,-75.3128
14:01:14.097,-45.4377,-81.8128
14:01:14.109,-48.3127,-86.3753
14:01:14.119,-49.2502,-89.5003
14:01:14.128,-48.0002,-89.0003
14:01:14.137,-41.5627,-79.1253
14:01:14.149,-30.9376,-61.1252
14:01:14.158,-18.4376,-36.9376
14:01:14.167,-4.75,-10.4375
14:01:14.195,7.9375,14.3751
14:01:14.197,18.5626,39.6252
14:01:14.199,29.5001,60.7502
14:01:14.208,37.5001,81.8128
14:01:14.219,45.6877,98.6879
14:01:14.228,51.8127,114.1254
14:01:14.237,55.0627,126.3755
14:01:14.247,58.1877,134.313
14:01:14.257,59.8752,141.438
14:01:14.267,59.3127,143.938
14:01:14.309,58.3127,143.813
14:01:14.310,57.2502,143.063
14:01:14.313,55.5627,141.688
14:01:14.315,54.6877,138.5005
14:01:14.318,52.3127,137.063
14:01:14.349,50.8752,131.313
14:01:14.352,48.6877,126.188
14:01:14.354,46.0002,119.5005
14:01:14.381,41.7502,113.3754
14:01:14.381,39.3752,105.3129
14:01:14.385,35.9376,99.6254
14:01:14.390,33.6876,92.4379
14:01:14.423,31.8126,88.5628
14:01:14.425,30.5626,85.6878
14:01:14.428,30.4376,81.9378
14:01:14.430,31.0001,82.8753
14:01:14.462,31.6251,81.3128
14:01:14.463,32.7501,80.3128
14:01:14.465,32.6876,78.6878
14:01:14.469,32.6251,77.7503
14:01:14.481,32.6251,75.3753
14:01:14.488,29.9376,72.3128
14:01:14.498,26.7501,67.4378
14:01:14.507,25.8126,62.3127
14:01:14.519,17.0626,55.8127
14:01:14.529,9.5,44.8752
14:01:14.537,5,36.6876
14:01:14.549,0.375,28.3751
14:01:14.557,-5.375,18.8126
14:01:14.568,-11.3125,9.9375
14:01:14.577,-20.1876,-3.75
14:01:14.589,-32.7501,-20.2501
14:01:14.601,-47.5002,-39.0627
14:01:14.609,-63.1877,-57.7502
14:01:14.619,-79.1253,-76.1253
14:01:14.628,-94.6254,-96.2504
14:01:14.639,-107.5629,-110.5629
14:01:14.649,-115.8754,-122.2505
14:01:14.657,-121.813,-132.7505
14:01:14.669,-124.5005,-140.2505
14:01:14.681,-126.7505,-147.2505
14:01:14.688,-127.8755,-151.0631
14:01:14.699,-125.3755,-150.5631
14:01:14.709,-120.6255,-144.813
14:01:14.719,-112.3129,-131.0005
14:01:14.734,-104.0004,-113.3129
14:01:14.749,-95.0004,-93.5004
14:01:14.751,-56.3752,-72.1253
14:01:14.766,-60.5627,-55.2502
14:01:14.771,-45.0002,-33.5626
14:01:14.781,-37.8751,-16.0626
14:01:14.792,-39.4377,-4.125
14:01:14.798,-39.8752,3.875
14:01:14.809,-37.8751,11
14:01:14.819,-33.4376,16.6876
14:01:14.827,-27.0001,19.4376
14:01:14.839,-20.8126,19.6251
14:01:14.849,-18.8751,20.3126
14:01:14.858,-20.0626,15.6251
14:01:14.868,-21.1876,12.0625
14:01:14.879,-22.3126,8.0625
14:01:14.889,-22.7501,2.5625
14:01:14.899,-23.5001,-3.6875
14:01:14.909,-25.2501,-9
14:01:14.919,-27.7501,-18.4376
14:01:14.929,-31.3126,-25.7501
14:01:14.939,-35.3751,-33.8751
14:01:14.949,-37.8126,-43.2502
14:01:14.960,-41.5002,-50.5627
14:01:14.968,-45.0627,-57.5627
14:01:14.979,-47.0627,-63.6252
14:01:14.989,-48.5627,-66.8128
14:01:14.999,-49.4377,-71.0628
14:01:15.009,-50.3752,-73.1878
14:01:15.019,-50.1252,-75.1878
14:01:15.029,-49.8752,-76.8128
14:01:15.062,-51.1252,-79.1878
14:01:15.064,-51.4377,-81.3753
14:01:15.066,-51.7502,-84.1878
14:01:15.069,-52.3127,-86.8753
14:01:15.102,-54.1252,-90.0003
14:01:15.105,-56.3127,-95.0004
14:01:15.108,-57.6252,-99.1254
14:01:15.113,-59.8752,-103.5629
14:01:15.119,-62.1252,-108.5629
14:01:15.152,-63.6877,-113.0004
14:01:15.154,-66.0628,-116.5629
14:01:15.156,-67.5003,-122.0005
14:01:15.159,-69.8128,-125.688
14:01:15.189,-71.3128,-130.6255
14:01:15.192,-72.8128,-135.063
14:01:15.194,-75.6878,-139.688
14:01:15.200,-77.1878,-143.8755
14:01:15.216,-79.2503,-148.0631
14:01:15.219,-81.8128,-154.1256
14:01:15.239,-82.3128,-157.1256
14:01:15.245,-85.3753,-160.2506
14:01:15.254,-86.3753,-165.7506
14:01:15.259,-87.2503,-167.6881
14:01:15.277,-88.5628,-172.0632
14:01:15.282,-89.7503,-173.0632
14:01:15.290,-89.0003,-175.6257
14:01:15.299,-85.8128,-171.0631
14:01:15.308,-79.1253,-160.1881
14:01:15.320,-67.7503,-143.0005
14:01:15.329,-56.6252,-120.688
14:01:15.339,-44.6877,-98.3754
14:01:15.349,-32.9376,-73.4378
14:01:15.359,-22.4376,-51.9377
14:01:15.369,-13.9376,-30.0001
14:01:15.378,-6,-13
14:01:15.390,0.5625,3.25
14:01:15.399,4.75,14.0626
14:01:15.410,8.1875,24.8751
14:01:15.419,10.25,32.1876
14:01:15.430,11.875,37.3126
14:01:15.442,11.375,38.6876
14:01:15.450,10.875,38.5626
14:01:15.474,9.8125,36.8126
14:01:15.476,9.1875,34.8126
14:01:15.481,7.0625,33.5001
14:01:15.489,5.25,28.0626
14:01:15.500,2.8125,23.9376
14:01:15.509,-0.625,17.5001
14:01:15.519,-2.8125,10.25
14:01:15.529,-6.75,3.25
14:01:15.539,-9.875,-4.0625
14:01:15.554,-11.6875,-10.125
14:01:15.564,-14.0626,-14.8126
14:01:15.573,-16.3126,-18.9376
14:01:15.585,-16.5626,-21.6251
14:01:15.594,-16.6876,-24.1251
14:01:15.604,-17.2501,-24.7501
14:01:15.614,-17.3126,-25.5626
14:01:15.624,-17.0001,-27.3126
14:01:15.634,-17.1251,-27.3751
14:01:15.644,-18.2501,-28.8751
14:01:15.654,-19.0626,-30.1251
14:01:15.664,-19.5626,-33.2501
14:01:15.674,-21.1251,-35.0626
14:01:15.684,-21.9376,-39.0001
14:01:15.703,-24.7501,-43.0627
14:01:15.707,-26.6251,-47.5627
14:01:15.733,-30.5001,-54.8127
14:01:15.735,-32.4376,-60.5627
14:01:15.737,-34.4376,-64.6252
14:01:15.744,-36.9376,-69.3128
14:01:15.770,-39.3127,-74.1253
14:01:15.773,-41.1877,-78.7503
14:01:15.775,-43.8752,-83.7503
14:01:15.818,-45.6252,-88.8753
14:01:15.819,-47.5627,-91.8754
14:01:15.823,-49.6252,-97.5004
14:01:15.828,-51.4377,-100.8754
14:01:15.829,-53.1252,-105.1254
14:01:15.835,-54.5002,-109.5004
14:01:15.871,-55.1252,-111.6879
14:01:15.874,-56.8752,-116.8129
14:01:15.876,-58.3752,-120.188
14:01:15.879,-59.3752,-122.8755
14:01:15.885,-59.3127,-124.7505
14:01:15.894,-57.0627,-122.063
14:01:15.905,-50.7502,-113.1254
14:01:15.916,-41.5627,-96.5004
14:01:15.925,-30.6876,-76.1253
14:01:15.934,-18.8126,-54.1252
14:01:15.944,-7.875,-30.9376
14:01:15.954,1.6875,-9.6875
14:01:15.964,10.1875,10.4375
14:01:15.973,17.8126,26.6251
14:01:15.984,22.5001,42.8127
14:01:15.994,26.9376,52.8752
14:01:16.004,29.3126,62.4377
14:01:16.014,31.3126,67.1253
14:01:16.034,30.8751,71.8128
14:01:16.037,30.5626,70.3128
14:01:16.052,29.8751,69.5628
14:01:16.054,27.5626,66.7503
14:01:16.064,26.9376,63.4377
14:01:16.074,23.7501,58.6877
14:01:16.084,21.4376,54.2502
14:01:16.094,18.6251,48.8752
14:01:16.104,15.0626,40.9377
14:01:16.114,11.875,32.8751
14:01:16.124,7.25,25.6251
14:01:16.134,4.625,18.3126
14:01:16.144,1.9375,12.3125
14:01:16.154,0.75,7.125
14:01:16.164,0.125,4.0625
14:01:16.174,-2,1.375
14:01:16.184,-1.75,0.1875
14:01:16.194,-1.9375,-0.8125
14:01:16.205,-2.25,-1.0625
14:01:16.215,-1.875,-2.3125
14:01:16.224,-2.625,-4.125
14:01:16.234,-3.8125,-5.375
14:01:16.244,-4.125,-7.1875
14:01:16.254,-5.5625,-10.25
14:01:16.264,-7.6875,-13.3751
14:01:16.274,-8.9375,-18.6876
14:01:16.283,-11.25,-22.1251
14:01:16.294,-13,-27.5001
14:01:16.304,-15.8751,-31.7501
14:01:16.315,-17.6251,-38.3126
14:01:16.324,-21.1251,-44.3752
14:01:16.334,-23.6876,-49.7502
14:01:16.343,-26.8751,-54.5627
14:01:16.353,-29.0626,-61.5002
14:01:16.365,-31.6876,-65.0627
14:01:16.374,-34.0001,-70.3753
14:01:16.384,-35.2501,-74.6253
14:01:16.394,-37.7501,-78.6878
14:01:16.405,-39.0627,-83.8128
14:01:16.415,-40.5627,-88.2503
14:01:16.424,-42.7502,-90.9379
14:01:16.434,-44.0002,-96.5004
14:01:16.444,-45.1877,-100.6254
14:01:16.454,-48.0002,-104.8129
14:01:16.464,-49.3127,-109.3754
14:01:16.474,-50.3127,-112.5004
14:01:16.484,-50.8752,-111.9379
14:01:16.494,-47.1877,-109.1254
14:01:16.505,-38.5001,-96.8754
14:01:16.531,-28.8751,-78.3128
14:01:16.533,-17.3126,-56.8752
14:01:16.536,-5.875,-32.6251
14:01:16.569,5.5625,-9.5
14:01:16.570,15.6251,13.1876
14:01:16.585,24.3126,31.4376
14:01:16.587,31.1251,50.3752
14:01:16.591,36.8126,62.5627
14:01:16.595,40.4377,75.9378
14:01:16.624,42.6252,85.4378
14:01:16.625,44.0002,89.6878
14:01:16.627,45.1252,93.1254
14:01:16.634,43.3127,93.5629
14:01:16.668,41.7502,90.4379
14:01:16.670,40.1877,87.6253
14:01:16.672,38.1876,85.3753
14:01:16.682,36.9376,80.5628
14:01:16.685,33.8126,77.1878
14:01:16.694,31.3751,69.9378
14:01:16.704,26.6251,63.8127
14:01:16.715,23.1251,55.5627
14:01:16.725,19.6876,46.3127
14:01:16.756,15.3751,39.6252
14:01:16.759,13.3751,32.5626
14:01:16.762,10.4375,25.9376
14:01:16.766,8.6875,22.8751
14:01:16.774,8.0625,18.8751
14:01:16.787,7.4375,16.3751
14:01:16.795,6.875,15.5001
14:01:16.804,7,13.8126
14:01:16.814,6.625,12.125
14:01:16.824,5.625,10.0625
14:01:16.834,4.25,7.875
14:01:16.844,3.1875,4.9375
14:01:16.855,1.3125,1.625
14:01:16.865,-1.1875,-1.8125
14:01:16.885,-3.4375,-7
14:01:16.890,-5.6875,-11.4375
14:01:16.898,-7.9375,-17.5626
14:01:16.907,-10.625,-22.3126
14:01:16.919,-13.1251,-28.1251
14:01:16.958,-15.6876,-34.3126
14:01:16.961,-18.4376,-40.2502
14:01:16.962,-21.0626,-46.1252
14:01:16.965,-23.4376,-50.5627
14:01:17.026,-26.5001,-55.6252
14:01:17.026,-28.0001,-61.3127
14:01:17.030,-30.8751,-65.8753
14:01:17.035,-33.4376,-70.3753
14:01:17.036,-34.8126,-76.6253
14:01:17.036,-36.6876,-80.1253
14:01:17.045,-38.5001,-84.5003
14:01:17.130,-39.8752,-87.8128
14:01:17.130,-42.5627,-93.0629
14:01:17.133,-43.1877,-96.0004
14:01:17.135,-45.6252,-99.1254
14:01:17.197,-46.3127,-103.8129
14:01:17.197,-47.8127,-105.5629
14:01:17.197,-47.9377,-107.1879
14:01:17.198,-44.2502,-103.4379
14:01:17.199,-37.6251,-92.3129
14:01:17.205,-27.2501,-73.5628
14:01:17.206,-15.6876,-51.1252
14:01:17.206,-3.25,-27.3126
14:01:17.215,7.875,-3.3125
14:01:17.281,18.0626,19.8126
14:01:17.283,26.1251,40.7502
14:01:17.285,45.5627,88.3128
14:01:17.287,48.3752,97.2504
14:01:17.292,49.5002,104.5004
14:01:17.292,49.4377,107.0004
14:01:17.292,49.5002,107.3129
14:01:17.300,46.6877,105.0004
14:01:17.371,45.6877,102.8754
14:01:17.371,43.1877,98.4379
14:01:17.374,37.0001,88.7503
14:01:17.377,33.4376,79.3753
14:01:17.382,30.1876,71.8753
14:01:17.383,26.2501,63.3752
14:01:17.383,21.6876,55.8127
14:01:17.390,15.9376,42.3127
14:01:17.453,14.1251,37.3126
14:01:17.456,13.3751,34.8126
14:01:17.457,13.1876,32.1251
14:01:17.460,12.4375,30.3126
14:01:17.465,11.0625,28.8126
14:01:17.466,10.625,26.0626
14:01:17.466,9.75,24.3126
14:01:17.475,7.75,20.5626
14:01:17.553,5.75,16.4376
14:01:17.554,2.875,11.875
14:01:17.555,1.125,6.375
14:01:17.558,-1.0625,1.5
14:01:17.563,-4.3125,-4.5625
14:01:17.564,-7.25,-10.4375
14:01:17.564,-10,-16.3126
14:01:17.624,-16.1876,-28.6251
14:01:17.626,-18.6251,-36.1251
14:01:17.631,-21.3751,-41.2502
14:01:17.631,-22.6876,-46.8752
14:01:17.631,-25.8751,-51.9377
14:01:17.635,-28.0626,-56.1252
14:01:17.645,-30.1876,-61.6877
14:01:17.724,-31.8126,-66.5003
14:01:17.725,-34.7501,-72.7503
14:01:17.725,-35.5626,-76.7503
14:01:17.730,-38.1251,-80.4378
14:01:17.733,-40.6252,-84.8753
14:01:17.733,-41.5002,-89.2503
14:01:17.795,-43.5002,-92.5004
14:01:17.798,-45.1877,-96.6879
14:01:17.799,-46.5627,-101.3129
14:01:17.801,-48.6252,-106.8754
14:01:17.804,-43.1877,-100.3754
14:01:17.809,-33.5626,-83.9378
14:01:17.810,-22.5626,-64.3752
14:01:17.810,-10.6875,-40.1877
14:01:17.820,17.5001,18.5626
14:01:17.901,25.8751,40.0627
14:01:17.901,33.5001,58.4377
14:01:17.904,38.7501,73.8128
14:01:17.906,43.1252,85.7503
14:01:17.969,45.1252,94.6254
14:01:17.969,47.1252,101.0004
14:01:17.969,46.3752,102.8129
14:01:17.969,43.6877,100.0629
14:01:17.971,42.9377,97.5004
14:01:17.977,39.5002,94.0629
14:01:18.001,37.2501,87.0003
14:01:18.001,33.6251,81.3753
14:01:18.001,30.5001,72.6253
14:01:18.004,25.6251,65.1878
14:01:18.034,22.0626,55.8127
14:01:18.039,19.1251,48.3752
14:01:18.039,16.1876,42.5627
14:01:18.044,13.3126,35.5626
14:01:18.045,11.625,31.5626
14:01:18.077,10.9375,28.2501
14:01:18.079,10.125,27.3751
14:01:18.081,10.125,25.0001
14:01:18.085,9.6875,24.3751
14:01:18.115,21.9376,50.0002
14:01:18.118,5.5625,16.1876
14:01:18.121,4.0625,13.4376
14:01:18.127,2.0625,8.8125
14:01:18.149,-0.6875,3.1875
14:01:18.151,-7.875,-12.6875
14:01:18.156,-10.875,-18.0626
14:01:18.165,-13.5626,-24.9376
14:01:18.175,-16.7501,-30.7501
14:01:18.185,-19.1251,-37.5001
14:01:18.195,-22.3751,-43.7502
14:01:18.205,-24.8751,-50.5002
14:01:18.215,-27.1876,-55.6252
14:01:18.226,-30.5001,-61.4377
14:01:18.240,-32.2501,-65.8128
14:01:18.245,-34.1251,-71.1253
14:01:18.255,-34.7501,-74.6878
14:01:18.265,-37.5626,-79.7503
14:01:18.275,-39.0001,-84.1253
14:01:18.286,-40.4377,-87.3128
14:01:18.298,-41.9377,-91.1254
14:01:18.305,-43.0627,-93.8754
14:01:18.315,-44.8127,-97.8754
14:01:18.325,-46.1877,-101.1879
14:01:18.336,-47.3752,-104.1879
14:01:18.346,-48.9377,-108.2504
14:01:18.355,-50.9377,-111.2504
14:01:18.365,-51.6877,-115.3129
14:01:18.375,-53.8752,-118.2505
14:01:18.385,-55.0627,-121.563
14:01:18.395,-55.7502,-123.2505
14:01:18.407,-55.1252,-125.5005
14:01:18.416,-51.9377,-119.1255
14:01:18.425,-43.5002,-106.1254
14:01:18.435,-30.3751,-83.5628
14:01:18.446,-17.3751,-58.6252
14:01:18.457,-3.8125,-33.0626
14:01:18.465,7.5,-6.625
14:01:18.475,17.8751,16.5001
14:01:18.485,27.4376,38.5626
14:01:18.495,34.0626,55.3752
14:01:18.505,40.1252,71.3753
14:01:18.516,43.0627,83.8128
14:01:18.528,45.8127,90.3128
14:01:18.537,46.3752,96.0629
14:01:18.545,46.1252,98.3129
14:01:18.555,46.8127,99.5629
14:01:18.565,44.1252,97.0629
14:01:18.575,42.1252,93.4379
14:01:18.587,40.5002,90.3754
14:01:18.595,38.0001,85.0003
14:01:18.605,36.2501,80.5628
14:01:18.626,31.9376,75.1878
14:01:18.629,28.3126,66.3128
14:01:18.644,24.1251,58.1877
14:01:18.647,21.0001,51.2502
14:01:18.655,17.8126,42.5627
14:01:18.666,14.7501,36.6876
14:01:18.693,13.125,31.0626
14:01:18.696,10.9375,27.5001
14:01:18.697,9.8125,24.8126
14:01:18.731,10.0625,21.3751
14:01:18.733,9.4375,20.8126
14:01:18.735,8.375,19.4376
14:01:18.737,8.5,18.3126
14:01:18.768,8,17.4376
14:01:18.770,7.375,15.1876
14:01:18.772,6.6875,12.8125
14:01:18.775,4.8125,10
14:01:18.804,3.0625,6.3125
14:01:18.806,0.4375,1.25
14:01:18.809,-1.9375,-3.5
14:01:18.843,-5.125,-9.4375
14:01:18.846,-8.6875,-15.1251
14:01:18.847,-10.875,-20.0626
14:01:18.853,-13.6251,-27.3751
14:01:18.856,-16.5001,-33.6251
14:01:18.865,-19.0626,-40.5627
14:01:18.875,-22.0001,-45.8127
14:01:18.885,-25.1251,-51.5002
14:01:18.895,-27.4376,-55.9377
14:01:18.905,-29.2501,-61.3127
14:01:18.915,-31.5626,-66.5003
14:01:18.925,-33.6251,-71.5003
14:01:18.937,-35.3126,-75.7503
14:01:18.945,-37.1251,-79.6878
14:01:18.955,-38.5001,-83.8128
14:01:18.965,-40.1877,-87.1253
14:01:18.976,-42.0627,-91.6254
14:01:18.990,-44.3752,-95.6254
14:01:18.995,-45.7502,-99.1879
14:01:19.005,-47.1252,-102.9379
14:01:19.015,-49.0002,-106.2504
14:01:19.025,-50.3127,-110.3129
14:01:19.035,-51.3127,-112.5004
14:01:19.046,-52.3752,-114.6879
14:01:19.055,-51.0002,-113.8129
14:01:19.065,-46.3752,-106.6254
14:01:19.076,-36.0626,-91.0004
14:01:19.088,-24.5626,-69.6253
14:01:19.095,-12.75,-45.3127
14:01:19.108,-1.3125,-22.2501
14:01:19.115,9.25,-0.5
14:01:19.126,17.5626,21.3126
14:01:19.136,25.0626,37.3126
14:01:19.145,31.3751,53.7502
14:01:19.163,35.4376,63.9377
14:01:19.176,38.0001,73.2503
14:01:19.179,38.6251,79.1253
14:01:19.186,38.7501,81.2503
14:01:19.195,38.3126,81.4378
14:01:19.205,36.4376,80.5628
14:01:19.215,34.3126,76.6878
14:01:19.226,32.1251,73.1878
14:01:19.235,28.5001,68.3128
14:01:19.245,25.5626,60.1252
14:01:19.255,21.9376,52.4377
14:01:19.265,16.8751,43.1252
14:01:19.275,12.875,33.8751
14:01:19.287,8.6875,25.4376
14:01:19.314,5.25,17.6251
14:01:19.316,2.9375,11.375
14:01:19.319,1.375,7
14:01:19.325,-0.125,3.8125
14:01:19.335,-1,1.5
14:01:19.345,-0.375,1.0625
14:01:19.356,-0.1875,0.5625
14:01:19.371,-0.0625,1.75
14:01:19.376,0.1875,0.625
14:01:19.385,-0.375,0.375
14:01:19.395,-0.625,-0.25
14:01:19.405,-2.0625,-2.0625
14:01:19.426,-2.5625,-4.625
14:01:19.430,-5.125,-8.4375
14:01:19.435,-6.5625,-12.5625
14:01:19.472,-9.5,-16.8751
14:01:19.475,-12.625,-22.1876
14:01:19.476,-14.2501,-28.6876
14:01:19.479,-17.1876,-34.0001
14:01:19.485,-19.8751,-38.9376
14:01:19.517,-23.4376,-45.6877
14:01:19.519,-25.9376,-51.3752
14:01:19.521,-28.5626,-56.5002
14:01:19.526,-31.8126,-62.7502
14:01:19.561,-33.5626,-66.8128
14:01:19.564,-35.5626,-71.6878
14:01:19.566,-37.6251,-76.0003
14:01:19.569,-39.8752,-80.8128
14:01:19.598,-41.6877,-85.8753
14:01:19.600,-43.6877,-89.8128
14:01:19.602,-45.5627,-94.1879
14:01:19.607,-47.0002,-98.1254
14:01:19.615,-49.2502,-99.8129
14:01:19.625,-50.2502,-106.1879
14:01:19.635,-52.4377,-107.8129
14:01:19.645,-53.9377,-113.3129
14:01:19.657,-54.8752,-116.8129
14:01:19.665,-57.0627,-119.6255
14:01:19.679,-57.2502,-122.2505
14:01:19.686,-54.5002,-118.438
14:01:19.696,-48.0002,-110.0004
14:01:19.705,-36.1876,-88.6878
14:01:19.715,-23.2501,-65.3128
14:01:19.732,-10.1875,-38.3126
14:01:19.745,0.9375,-15.0626
14:01:19.751,12.25,9.875
14:01:19.762,21.0001,30.8126
14:01:19.770,29.1251,48.5627
14:01:19.781,35.1251,64.0627
14:01:19.791,39.3752,76.1253
14:01:19.800,41.4377,83.8753
14:01:19.811,42.6877,88.8128
14:01:19.820,42.3127,92.6879
14:01:19.830,41.6877,93.3129
14:01:19.841,40.3752,92.1254
14:01:19.851,38.7501,89.2503
14:01:19.861,36.1876,85.3128
14:01:19.870,34.1876,80.8128
14:01:19.880,30.7501,74.6253
14:01:19.890,24.9376,65.3753
14:01:19.902,21.5001,55.5627
14:01:19.911,16.7501,47.4377
14:01:19.926,13.3751,39.0001
14:01:19.940,10.5625,31.3751
14:01:19.942,8.6875,26.0001
14:01:19.951,5.5625,21.3751
14:01:19.962,4.5,18.2501
14:01:19.970,4.25,15.3126
14:01:19.981,4,14.5001
14:01:19.991,4.5625,13.5626
14:01:20.001,4.4375,14.0626
14:01:20.012,4.3125,12.5
14:01:20.021,3.5625,11.9375
14:01:20.030,3.75,10.625
14:01:20.042,1.75,8.875
14:01:20.050,1,5.0625
14:01:20.060,-1.3125,1.8125
14:01:20.070,-3.3125,-3
14:01:20.083,-6.125,-8.4375
14:01:20.090,-8.3125,-12.9375
14:01:20.105,-10.5625,-18.3126
14:01:20.111,-14.1876,-24.5626
14:01:20.146,-16.7501,-29.4376
14:01:20.149,-19.6876,-36.6876
14:01:20.156,-23.3126,-41.5627
14:01:20.157,-25.1876,-48.0627
14:01:20.180,-28.3751,-53.0002
14:01:20.183,-29.7501,-58.5002
14:01:20.186,-32.4376,-63.3127
14:01:20.191,-34.0626,-68.9378
14:01:20.200,-37.0001,-73.0003
14:01:20.230,-39.0626,-77.7503
14:01:20.233,-41.1252,-83.5003
14:01:20.235,-42.3752,-86.8753
14:01:20.241,-44.4377,-89.4378
14:01:20.270,-45.7502,-94.8129
14:01:20.273,-47.9377,-97.5629
14:01:20.275,-49.1252,-102.1879
14:01:20.283,-50.3127,-105.8129
14:01:20.292,-51.7502,-108.5629
14:01:20.302,-52.3127,-112.3129
14:01:20.312,-51.9377,-112.7504
14:01:20.322,-48.8127,-105.9379
14:01:20.331,-39.2501,-93.4379
14:01:20.343,-27.6251,-69.2503
14:01:20.352,-13.8126,-45.1877
14:01:20.361,-1,-19.4376
14:01:20.371,10.25,6.4375
14:01:20.381,20.3751,27.9376
14:01:20.390,28.8751,49.1877
14:01:20.401,35.5001,67.6878
14:01:20.411,41.5002,80.6878
14:01:20.422,45.4377,91.2504
14:01:20.430,46.1877,98.8754
14:01:20.441,47.1877,102.9379
14:01:20.456,47.5002,105.7504
14:01:20.473,45.8752,106.7504
14:01:20.475,44.7502,104.3129
14:01:20.482,43.8127,101.3129
14:01:20.491,40.6252,98.4379
14:01:20.501,38.1876,91.8754
14:01:20.511,35.8751,86.0003
14:01:20.521,31.5001,80.1253
14:01:20.531,27.7501,70.8128
14:01:20.542,23.6876,63.3752
14:01:20.550,20.2501,55.5627
14:01:20.562,16.8126,47.3127
14:01:20.570,14.3126,41.9377
14:01:20.595,12.1875,34.6251
14:01:20.599,10.5,32.6251
14:01:20.603,9.625,28.1876
14:01:20.611,9.1875,27.1876
14:01:20.621,9.625,25.8751
14:01:20.631,8.875,25.5001
14:01:20.641,8.5625,25.1251
14:01:20.653,7.5625,23.3126
14:01:20.667,6.75,21.5626
14:01:20.672,5.3125,18.9376
14:01:20.681,4.1875,16.2501
14:01:20.691,2.8125,12.8125
14:01:20.702,0.5625,7.75
14:01:20.711,-2,3
14:01:20.721,-4.625,-2.9375
14:01:20.731,-7.0625,-8.8125
14:01:20.741,-9.75,-14.0626
14:01:20.751,-13.5001,-19.7501
14:01:20.761,-16.3126,-26.5626
14:01:20.771,-19.5626,-32.1876
14:01:20.781,-22.1251,-38.0001
14:01:20.791,-24.4376,-44.3127
14:01:20.802,-27.3126,-49.7502
14:01:20.811,-28.6876,-55.2502
14:01:20.822,-31.3751,-59.9377
14:01:20.831,-33.5626,-64.3752
14:01:20.861,-35.3126,-68.6878
14:01:20.862,-37.2501,-72.8128
14:01:20.874,-38.3751,-77.8128
14:01:20.874,-40.3127,-81.0003
14:01:20.911,-42.3127,-86.9378
14:01:20.914,-44.3752,-89.7503
14:01:20.917,-46.6252,-92.8129
14:01:20.921,-47.3127,-99.0629
14:01:20.923,-48.3752,-101.3129
14:01:20.961,-50.9377,-104.3129
14:01:20.962,-51.1877,-106.9379
14:01:20.981,-50.3752,-106.6879
14:01:20.983,-45.5627,-101.7504
14:01:20.983,-36.1251,-84.8128
14:01:21.020,-24.1876,-61.0002
14:01:21.020,-10.625,-36.6876
14:01:21.029,1.3125,-9.6875
14:01:21.031,12.75,13.2501
14:01:21.031,22.3751,37.7501
14:01:21.033,30.8751,56.1252
14:01:21.046,38.1251,73.8753
14:01:21.051,41.8752,86.9378
14:01:21.062,46.1252,96.5004
14:01:21.072,47.1252,103.9379
14:01:21.081,47.8127,107.6879
14:01:21.093,47.4377,110.5004
14:01:21.102,46.1877,109.1879
14:01:21.123,44.1877,107.9379
14:01:21.123,42.1877,102.4379
14:01:21.131,40.4377,98.6879
14:01:21.141,37.0626,94.0629
14:01:21.151,35.0001,88.4378
14:01:21.161,30.8751,80.3753
14:01:21.171,26.9376,72.5003
14:01:21.182,23.2501,63.1252
14:01:21.195,19.1251,56.1252
14:01:21.201,16.4376,47.7502
14:01:21.220,13.8751,41.3127
14:01:21.221,11.1875,37.0001
14:01:21.236,10.0625,33.1876
14:01:21.242,9.625,30.3126
14:01:21.251,10,28.8126
14:01:21.263,9.625,27.1251
14:01:21.271,9.125,27.6251
14:01:21.281,8.75,27.1251
14:01:21.292,8.6875,24.7501
14:01:21.303,7.4375,23.3751
14:01:21.311,6.25,20.8126
14:01:21.321,4.8125,17.6251
14:01:21.331,2.625,13.9376
14:01:21.347,0.1875,8.625
14:01:21.351,-2.5625,3.625
14:01:21.362,-4.9375,-2.6875
14:01:21.371,-8.5,-8.0625
14:01:21.382,-11.4375,-13.7501
14:01:21.391,-13.6876,-20.5626
14:01:21.401,-16.8751,-26.5001
14:01:21.411,-19.3751,-33.1876
14:01:21.422,-22.1876,-39.0627
14:01:21.431,-25.1876,-44.5002
14:01:21.441,-27.1251,-50.0002
14:01:21.451,-29.4376,-54.3752
14:01:21.461,-31.5001,-59.1877
14:01:21.473,-33.0001,-64.7502
14:01:21.481,-35.2501,-68.3753
14:01:21.493,-36.8751,-73.3753
14:01:21.501,-38.3751,-77.6253
14:01:21.511,-40.0002,-80.8753
14:01:21.521,-43.2502,-86.7503
14:01:21.531,-43.6252,-89.1253
14:01:21.541,-46.7502,-93.5629
14:01:21.570,-47.5627,-98.5629
14:01:21.572,-49.2502,-100.6879
14:01:21.575,-50.6877,-105.6879
14:01:21.581,-51.1877,-106.1254
14:01:21.611,-50.1877,-106.4379
14:01:21.615,-44.3752,-98.6254
14:01:21.617,-34.4376,-82.0003
14:01:21.621,-22.2501,-57.5002
14:01:21.661,-9.625,-33.2501
14:01:21.664,2.1875,-6.5625
14:01:21.666,13.1876,17.5001
14:01:21.703,22.3126,37.9376
14:01:21.703,30.0626,58.2502
14:01:21.704,36.3126,73.1253
14:01:21.707,41.2502,86.3128
14:01:21.711,44.1252,97.1254
14:01:21.714,45.6877,100.8754
14:01:21.721,44.4377,104.6254
14:01:21.733,44.5627,104.3129
14:01:21.754,42.4377,105.3754
14:01:21.755,40.5627,100.3129
14:01:21.770,38.2501,96.6879
14:01:21.774,36.0001,90.5629
14:01:21.782,33.1251,85.7503
14:01:21.796,30.0626,78.8753
14:01:21.804,26.6876,71.5628
14:01:21.811,22.0626,62.3127
14:01:21.821,17.9376,53.5002
14:01:21.831,14.8126,46.2502
14:01:21.842,11.9375,38.1876
14:01:21.874,9.25,33.1251
14:01:21.877,7.875,28.3126
14:01:21.879,7.375,25.1251
14:01:21.881,7.3125,22.6251
14:01:21.891,6.875,21.5001
14:01:21.901,7.1875,21.1251
14:01:21.911,6.9375,20.6251
14:01:21.921,7.375,19.8126
14:01:21.932,6.9375,18.6251
14:01:21.941,5,18.1876
14:01:21.953,4.5625,14.1876
14:01:21.961,2.6875,10.5625
14:01:21.971,1,7.1875
14:01:21.981,-1,2.9375
14:01:21.992,-3.625,-2.125
14:01:22.001,-6.1875,-7.1875
14:01:22.011,-9.0625,-13.8126
14:01:22.021,-12.1875,-20.1251
14:01:22.034,-14.8751,-26.1876
14:01:22.041,-17.9376,-31.5001
14:01:22.051,-20.8126,-38.3126
14:01:22.061,-23.2501,-42.8127
14:01:22.071,-25.5001,-49.3752
14:01:22.081,-28.0001,-53.5627
14:01:22.091,-30.1251,-59.7502
14:01:22.102,-32.5001,-63.9377
14:01:22.111,-34.0626,-68.6253
14:01:22.121,-36.0001,-73.3753
14:01:22.131,-37.2501,-75.8753
14:01:22.144,-38.6876,-81.1878
14:01:22.151,-39.7502,-84.4378
14:01:22.161,-42.0002,-89.3753
14:01:22.172,-43.5627,-93.0004
14:01:22.181,-45.6877,-95.1254
14:01:22.191,-47.2502,-101.0004
14:01:22.202,-47.8752,-103.6879
14:01:22.211,-49.7502,-106.1254
14:01:22.221,-49.4377,-107.4379
14:01:22.231,-45.8752,-103.3129
14:01:22.245,-38.0626,-91.5629
14:01:22.251,-25.8751,-70.8753
14:01:22.261,-14.4376,-45.8127
14:01:22.273,-2,-22.3751
14:01:22.281,9.8125,2.625
14:01:22.291,18.6251,23.9376
14:01:22.302,27.7501,43.8752
14:01:22.328,33.7501,60.6252
14:01:22.330,38.5626,74.3128
14:01:22.333,42.5002,85.3753
14:01:22.364,44.1877,91.2504
14:01:22.365,45.4377,96.1254
14:01:22.370,43.1877,97.8754
14:01:22.371,42.6877,96.0004
14:01:22.401,39.8127,94.3754
14:01:22.404,38.0626,89.8128
14:01:22.407,34.9376,85.4378
14:01:22.411,32.0001,79.0628
14:01:22.428,28.9376,71.5003
14:01:22.431,24.7501,63.8127
14:01:22.474,20.5626,54.8752
14:01:22.477,16.3126,46.5002
14:01:22.479,13.0625,38.3126
14:01:22.484,10.1875,31.7501
14:01:22.485,8,26.5626
14:01:22.491,6.6875,22.5001
14:01:22.501,6.125,19.0001
14:01:22.517,6.4375,18.1251
14:01:22.522,7.125,18.9376
14:01:22.537,6.9375,19.5626
14:01:22.546,6.9375,20.5001
14:01:22.561,7.1875,19.1251
14:01:22.564,7,17.8126
14:01:22.578,5.9375,17.4376
14:01:22.581,4.5625,14.7501
14:01:22.592,3.5625,11.9375
14:01:22.602,1,7.875
14:01:22.612,-1.625,3.6875
14:01:22.621,-3.5,-0.6875
14:01:22.632,-6.375,-6.1875
14:01:22.642,-8.5625,-12.625
14:01:22.651,-10.9375,-16.0626
14:01:22.662,-14.1251,-23.1876
14:01:22.673,-15.6876,-27.8751
14:01:22.681,-18.5626,-33.2501
14:01:22.692,-21.9376,-38.7501
14:01:22.701,-23.8751,-42.9377
14:01:22.711,-26.0001,-48.8127
14:01:22.721,-28.4376,-54.4377
14:01:22.732,-30.1251,-59.1877
14:01:22.742,-32.0626,-63.4377
14:01:22.751,-33.9376,-67.3128
14:01:22.763,-36.1876,-72.7503
14:01:22.771,-38.3126,-76.1878
14:01:22.782,-40.9377,-82.1878
14:01:22.793,-42.3127,-85.0628
14:01:22.803,-43.4377,-89.0628
14:01:22.811,-44.3752,-92.0629
14:01:22.822,-45.5002,-93.5004
14:01:22.832,-44.0002,-93.8129
14:01:22.843,-38.8751,-86.3753
14:01:22.852,-29.6876,-70.1878
14:01:22.864,-18.0626,-49.7502
14:01:22.873,-6.3125,-24.9376
14:01:22.884,5.0625,-2.25
14:01:22.893,14.7501,21.5626
14:01:22.903,23.1876,41.3752
14:01:22.912,31.1876,60.4377
14:01:22.922,36.4376,76.2503
14:01:22.931,41.0627,87.8128
14:01:22.942,43.5627,96.6254
14:01:22.954,45.4377,101.9379
14:01:22.961,44.7502,105.5629
14:01:22.971,44.5627,105.0004
14:01:22.982,42.2502,104.3129
14:01:22.993,40.3127,99.3129
14:01:23.008,36.8751,95.5629
14:01:23.036,34.5626,88.6253
14:01:23.079,31.6251,82.6253
14:01:23.081,27.0626,73.9378
14:01:23.145,22.9376,64.1877
14:01:23.148,19.5626,55.5627
14:01:23.149,16.1251,47.0002
14:01:23.149,11.9375,39.8752
14:01:23.149,9.6875,34.1251
14:01:23.163,7.4375,28.3126
14:01:23.165,6.4375,25.6876
14:01:23.178,6.25,23.2501
14:01:23.178,6.25,22.3126
14:01:23.179,6.6875,22.7501
14:01:23.187,7.25,22.7501
14:01:23.198,7.5625,22.8126
14:01:23.207,7.75,22.4376
14:01:23.218,6.6875,21.6251
14:01:23.227,5.3125,19.8126
14:01:23.237,4.0625,16.3126
14:01:23.246,2,12.625
14:01:23.257,0.4375,8.8125
14:01:23.270,-2.5,3.375
14:01:23.278,-4.75,-1.75
14:01:23.287,-19.1251,-31.9376
14:01:23.301,-21.8751,-37.0001
14:01:23.307,-24.0001,-42.2502
14:01:23.316,-26.2501,-47.2502
14:01:23.329,-29.0001,-52.7502
14:01:23.337,-31.8751,-59.7502
14:01:23.347,-33.0626,-64.3127
14:01:23.358,-35.7501,-69.1253
14:01:23.372,-37.0001,-73.5628
14:01:23.378,-39.5002,-77.8128
14:01:23.388,-40.4377,-82.7503
14:01:23.399,-42.6877,-86.8128
14:01:23.408,-44.1877,-90.5004
14:01:23.418,-44.8752,-94.1879
14:01:23.427,-46.5002,-95.4379
14:01:23.437,-44.5002,-95.8129
14:01:23.447,-38.8126,-86.3128
14:01:23.458,-27.3751,-68.0003
14:01:23.467,-14.8751,-44.5627
14:01:23.478,-2.875,-18.5626
14:01:23.487,8.5,5.625
14:01:23.499,20.0001,31.1876
14:01:23.509,28.8126,52.1252
14:01:23.518,36.6251,73.0628
14:01:23.528,42.6252,87.7503
14:01:23.538,46.6252,102.1254
14:01:23.548,49.5002,109.9379
14:01:23.557,50.9377,116.0004
14:01:23.568,50.4377,119.063
14:01:23.578,49.9377,120.8755
14:01:23.588,48.0627,119.063
14:01:23.598,45.9377,114.1254
14:01:23.607,43.5002,108.9379
14:01:23.617,41.4377,104.1254
14:01:23.628,38.7501,98.4379
14:01:23.638,35.8126,92.5004
14:01:23.647,31.9376,84.3753
14:01:23.657,27.4376,75.6253
14:01:23.667,24.8751,68.1878
14:01:23.677,21.5001,60.8752
14:01:23.687,17.0001,52.7502
14:01:23.698,15.3751,47.0627
14:01:23.708,12.8125,42.5627
14:01:23.718,11.625,38.1876
14:01:23.728,10.375,36.3126
14:01:23.737,9.8125,36.0001
14:01:23.749,9.75,33.7501
14:01:23.780,8.4375,33.3126
14:01:23.782,6.375,32.3751
14:01:23.785,3.5625,30.6876
14:01:23.818,0.4375,29.1876
14:01:23.821,-4,28.3126
14:01:23.823,-8.1875,26.3126
14:01:23.825,-12.4375,26.8126
14:01:23.855,-19.0626,24.3751
14:01:23.858,-27.2501,20.6876
14:01:23.922,-36.0001,15.5626
14:01:23.944,-43.2502,10.5
14:01:23.957,-47.0627,6.8125
14:01:23.957,-49.2502,5
14:01:23.962,-50.5002,3.75
14:01:23.964,-51.1877,1.4375
14:01:23.970,-52.0627,1.1875
14:01:23.970,-51.2502,0.9375
14:01:23.970,-50.3752,0.5
14:01:23.972,-51.0002,0
14:01:23.983,-51.5002,-2.75
14:01:23.992,-53.0002,-6.25
14:01:24.002,-54.3127,-11.1875
14:01:24.013,-56.3752,-16.6876
14:01:24.023,-57.5002,-20.7501
14:01:24.032,-58.5627,-26.4376
14:01:24.043,-59.3127,-29.6251
14:01:24.053,-57.3127,-30.3126
14:01:24.066,-53.8752,-30.2501
14:01:24.074,-48.5002,-30.2501
14:01:24.083,-36.0626,-20.4376
14:01:24.092,-24.0626,-5.75
14:01:24.103,-11.875,14.3126
14:01:24.113,-0.3125,36.8126
14:01:24.123,9.375,57.8752
14:01:24.134,36.6876,128.438
14:01:24.143,43.0627,145.1255
14:01:24.152,48.8752,157.4381
14:01:24.164,54.6877,169.4381
14:01:24.173,61.2502,177.0632
14:01:24.183,67.1253,183.3757
14:01:24.194,73.5628,187.2507
14:01:24.203,77.3128,189.1257
14:01:24.213,79.2503,189.1257
14:01:24.224,79.5003,184.9382
14:01:24.233,77.8128,181.8757
14:01:24.243,77.6253,175.5632
14:01:24.253,75.6253,170.6256
14:01:24.263,75.1878,161.6256
14:01:24.272,74.4378,152.8131
14:01:24.283,70.6878,142.5005
14:01:24.293,60.2502,130.313
14:01:24.302,60.3127,127.0005
14:01:24.314,60.8127,125.0005
14:01:24.322,61.5627,122.2505
14:01:24.333,60.2502,119.3755
14:01:24.345,57.8127,115.1879
14:01:24.352,54.9377,112.0629
14:01:24.364,49.8127,107.3754
14:01:24.374,42.9377,101.3754
14:01:24.392,36.2501,96.6254
14:01:24.398,31.0626,92.0629
14:01:24.405,26.9376,88.5628
14:01:24.450,24.4376,82.5003
14:01:24.451,21.0001,76.1878
14:01:24.465,14.5001,68.3128
14:01:24.467,6.375,56.1877
14:01:24.472,-2.25,44.8127
14:01:24.472,-12.75,30.9376
14:01:24.479,-20.2501,19.5001
14:01:24.488,-23.6876,10.875
14:01:24.500,-23.8126,4.0625
14:01:24.530,-24.1251,-2.375
14:01:24.531,-23.1251,-8.1875
14:01:24.535,-18.3126,-11.6875
14:01:24.569,-10.625,-8.9375
14:01:24.570,2.9375,-3.1875
14:01:24.574,15.2501,3.0625
14:01:24.579,29.1876,10.0625
14:01:24.581,45.1877,21.6876
14:01:24.587,55.6877,28.0001
14:01:24.623,59.9377,28.0001
14:01:24.624,61.1877,25.4376
14:01:24.628,58.2502,20.6251
14:01:24.629,53.1252,12.75
14:01:24.668,49.4377,1.875
14:01:24.670,46.0627,-2.5
14:01:24.673,43.6252,-10
14:01:24.678,39.6252,-14.9376
14:01:24.681,33.8751,-21.8126
14:01:24.688,27.5001,-22.6251
14:01:24.698,24.3126,-16.5001
14:01:24.708,21.3751,-1
14:01:24.718,18.8751,13.8126
14:01:24.727,19.6251,32.2501
14:01:24.740,25.3751,52.0002
14:01:24.748,29.4376,70.5628
14:01:24.758,35.6251,87.0628
14:01:24.770,44.6877,106.3129
14:01:24.779,45.7502,119.063
14:01:24.787,43.5002,127.6255
14:01:24.798,38.3126,130.7505
14:01:24.808,31.2501,126.6255
14:01:24.824,24.1876,123.063
14:01:24.831,18.8751,116.1254
14:01:24.837,17.3126,113.0629
14:01:24.848,20.0626,111.5629
14:01:24.858,24.0626,110.0629
14:01:24.867,31.6876,111.3129
14:01:24.878,39.5627,114.7504
14:01:24.887,48.3127,117.4379
14:01:24.897,56.3752,117.3129
14:01:24.908,66.0628,121.438
14:01:24.918,77.6253,126.688
14:01:24.928,82.1253,125.563
14:01:24.938,82.5003,121.938
14:01:24.947,80.1878,116.3129
14:01:24.958,75.1253,108.8754
14:01:24.969,71.5003,102.2504
14:01:24.980,65.5627,96.2504
14:01:24.989,61.0002,90.6254
14:01:24.998,57.9377,85.5003
14:01:25.007,58.1252,82.8753
14:01:25.018,55.3752,79.7503
14:01:25.027,51.0002,74.8753
14:01:25.040,44.1877,67.6878
14:01:25.051,35.5001,59.6252
14:01:25.058,25.6876,49.4377
14:01:25.067,12.875,39.6877
14:01:25.078,1.3125,28.1876
14:01:25.089,-9.875,18.8751
14:01:25.098,-17.1251,10.5625
14:01:25.107,-22.7501,2.625
14:01:25.117,-22.8126,-2.875
14:01:25.128,-26.6251,-10.1875
14:01:25.138,-35.6876,-21.3751
14:01:25.148,-47.3752,-39.0626
14:01:25.158,-57.0002,-52.5002
14:01:25.169,-64.1877,-65.7503
14:01:25.178,-68.5628,-74.3753
14:01:25.188,-71.6878,-81.6878
14:01:25.198,-73.1878,-87.5003
14:01:25.207,-70.1878,-89.4378
14:01:25.225,-63.5002,-85.9378
14:01:25.227,-52.8127,-81.0003
14:01:25.242,-36.8751,-72.3753
14:01:25.257,-23.9376,-61.8127
14:01:25.260,-15.0001,-57.5002
14:01:25.275,-11.0625,-54.4377
14:01:25.300,-10.4375,-56.8127
14:01:25.303,-12.1875,-60.6252
14:01:25.305,-15.8751,-65.4378
14:01:25.310,-18.8126,-71.8128
14:01:25.341,-20.6251,-76.3753
14:01:25.344,-22.5626,-82.1878
14:01:25.346,-25.4376,-87.3128
14:01:25.349,-31.1876,-92.6254
14:01:25.380,-36.6251,-98.6879
14:01:25.383,-43.4377,-102.9379
14:01:25.385,-49.3127,-104.4379
14:01:25.389,-49.3752,-97.4379
14:01:25.423,-45.0002,-83.1878
14:01:25.425,-36.5626,-62.1252
14:01:25.428,-27.0626,-38.5001
14:01:25.430,-16.8751,-15.7501
14:01:25.462,-4.9375,9.5
14:01:25.463,3.9375,31.4376
14:01:25.465,8,50.8752
14:01:25.472,6.6875,63.8752
14:01:25.479,5.0625,74.0003
14:01:25.488,3.6875,82.3753
14:01:25.498,3.75,86.2503
14:01:25.507,4.875,87.7503
14:01:25.519,8,88.4378
14:01:25.528,12.5625,89.6253
14:01:25.539,20.2501,91.4379
14:01:25.548,28.5001,96.2504
14:01:25.559,41.0002,101.8129
14:01:25.570,56.3752,112.5629
14:01:25.582,65.3752,119.7505
14:01:25.589,67.1878,118.938
14:01:25.598,65.5002,112.3129
14:01:25.609,59.5002,103.5004
14:01:25.621,53.0627,93.6879
14:01:25.628,47.3127,83.5003
14:01:25.639,41.6877,74.4378
14:01:25.648,36.1876,65.8128
14:01:25.659,33.4376,60.3752
14:01:25.671,32.7501,56.0002
14:01:25.678,30.4376,52.9377
14:01:25.689,27.1876,49.9377
14:01:25.714,23.1251,47.0002
14:01:25.716,16.7501,43.5002
14:01:25.733,10.3125,38.8126
14:01:25.734,3.5625,35.3126
14:01:25.744,-1.875,29.7501
14:01:25.749,-7.5625,24.6876
14:01:25.766,-11.75,20.5626
14:01:25.772,-18.3751,11.5
14:01:25.780,-29.4376,-2.1875
14:01:25.790,-37.1251,-13.6251
14:01:25.799,-47.8127,-26.7501
14:01:25.808,-59.1252,-42.2502
14:01:25.819,-67.4378,-56.3127
14:01:25.829,-72.5003,-65.8753
14:01:25.838,-75.2503,-74.3753
14:01:25.852,-77.8753,-81.8128
14:01:25.859,-76.2503,-86.0003
14:01:25.870,-71.8128,-86.6878
14:01:25.877,-62.7502,-83.3128
14:01:25.889,-52.1252,-77.1878
14:01:25.897,-37.8751,-68.4378
14:01:25.909,-24.6876,-59.1252
14:01:25.919,-17.0001,-53.6252
14:01:25.930,-12.375,-52.1252
14:01:25.949,-10.875,-51.6252
14:01:25.950,-13.1876,-56.7502
14:01:25.959,-14.5626,-60.1252
14:01:25.971,-16.6876,-63.3752
14:01:25.978,-17.3751,-69.5003
14:01:25.989,-20.0626,-73.4378
14:01:25.997,-24.5626,-80.6253
14:01:26.009,-29.7501,-86.8128
