timestamp,Red,IR
14:05:20.458,-11.125,-23.0626
14:05:20.460,-12.0625,-24.4376
14:05:20.472,-13.2501,-26.9376
14:05:20.479,-13.4376,-28.2501
14:05:20.489,-14.6563,-29.8751
14:05:20.499,-15.6251,-32.7501
14:05:20.510,-15.9688,-32.9376
14:05:20.520,-16.2813,-35.3126
14:05:20.530,-16.7813,-35.9376
14:05:20.539,-17.4376,-38.3751
14:05:20.549,-18.2813,-39.5627
14:05:20.559,-19.5313,-40.8752
14:05:20.570,-19.7188,-43.1877
14:05:20.579,-21.0938,-43.5002
14:05:20.589,-20.0938,-45.1877
14:05:20.599,-18.9688,-41.8752
14:05:20.610,-16.8751,-36.7501
14:05:20.619,-12.0625,-27.3751
14:05:20.630,-6.25,-13.8751
14:05:20.640,-0.5625,0.0625
14:05:20.649,4.4375,14.1876
14:05:20.659,8.0938,23.7501
14:05:20.669,11.1875,31.2501
14:05:20.679,12.7188,37.4376
14:05:20.689,14.3751,39.2502
14:05:20.699,14.6563,40.7502
14:05:20.709,14.3126,39.8127
14:05:20.720,14.4688,39.3127
14:05:20.730,13.9063,38.2501
14:05:20.740,13.5001,36.7501
14:05:20.750,12.8125,35.8126
14:05:20.760,12.1563,33.0626
14:05:20.770,12.0938,32.6876
14:05:20.779,11.6875,31.6876
14:05:20.789,11.75,30.5001
14:05:20.799,11.1563,30.0626
14:05:20.818,10.5,28.0626
14:05:20.824,8.8438,26.4376
14:05:20.839,8.4688,23.4376
14:05:20.843,7.1563,21.1876
14:05:20.851,6.4688,19.0626
14:05:20.859,5.4688,16.6876
14:05:20.870,5.3438,15.6876
14:05:20.891,4.9688,14.6251
14:05:20.893,5.0625,14.6251
14:05:20.899,5.125,14.0626
14:05:20.929,4.5,13.7501
14:05:20.932,4.8438,13.4376
14:05:20.935,4.625,12.875
14:05:20.940,4.8438,13.2501
14:05:20.968,3.7813,11.4375
14:05:20.970,3.125,10.375
14:05:20.972,3.2813,9
14:05:21.018,2.375,6.625
14:05:21.024,1.75,5
14:05:21.026,0.75,1.6875
14:05:21.065,-0.4063,0.375
14:05:21.066,-1.75,-2.125
14:05:21.080,-2.7188,-4.8125
14:05:21.084,-4,-8.5
14:05:21.086,-5.375,-10.125
14:05:21.086,-6.25,-13.7501
14:05:21.086,-6.8438,-16.2501
14:05:21.086,-7.625,-16.6251
14:05:21.095,-7.75,-19.6876
14:05:21.100,-9.0938,-22.0001
14:05:21.110,-10.0938,-22.8126
14:05:21.120,-10.625,-24.8751
14:05:21.129,-11.2813,-26.7501
14:05:21.139,-11.9688,-28.1251
14:05:21.150,-12.1875,-30.1251
14:05:21.160,-12.9688,-32.2501
14:05:21.169,-14.1251,-34.0001
14:05:21.179,-14.6251,-35.6251
14:05:21.189,-15.7188,-36.8126
14:05:21.199,-15.6876,-38.5626
14:05:21.209,-17.1251,-41.3752
14:05:21.221,-17.5313,-42.1877
14:05:21.230,-18.1563,-42.7502
14:05:21.240,-18.3438,-44.0627
14:05:21.272,-18.9063,-44.1877
14:05:21.274,-16.6876,-41.3752
14:05:21.277,-13.7813,-34.6876
14:05:21.280,-9.4063,-25.5626
14:05:21.289,-3.625,-12.125
14:05:21.299,2,2.8125
14:05:21.309,6.6563,15.9376
14:05:21.319,10.7813,26.1251
14:05:21.329,13.0313,33.5626
14:05:21.339,15.3751,39.1251
14:05:21.349,16.2501,40.7502
14:05:21.359,16.6563,42.6877
14:05:21.369,16.2501,41.3127
14:05:21.379,16.0313,41.7502
14:05:21.389,15.5313,39.5002
14:05:21.399,14.8751,38.2501
14:05:21.410,14.3126,35.8751
14:05:21.419,14.0313,35.6251
14:05:21.429,12.5938,34.5001
14:05:21.440,13.3438,33.3126
14:05:21.450,12.0938,32.5626
14:05:21.461,11.4375,30.3126
14:05:21.470,11.1875,29.2501
14:05:21.479,10.5625,26.8126
14:05:21.489,9.4688,24.1876
14:05:21.499,8.4063,22.4376
14:05:21.510,7.25,19.8751
14:05:21.519,6.2188,18.0626
14:05:21.529,5.25,16.6251
14:05:21.539,4.625,16.2501
14:05:21.554,4.7813,14.6251
14:05:21.564,4.5,14.6251
14:05:21.598,4.3125,14.7501
14:05:21.601,3.9688,13.7501
14:05:21.602,4.375,13.6876
14:05:21.604,3.6563,11.875
14:05:21.635,3.5313,11.375
14:05:21.637,2.7188,9.6875
14:05:21.638,1.125,7.375
14:05:21.646,0.625,6.5625
14:05:21.686,-0.4375,3.25
14:05:21.687,-2.2813,1.625
14:05:21.690,-2.9375,-1.75
14:05:21.697,-5.0938,-3.25
14:05:21.697,-5.2813,-7.1875
14:05:21.705,-6.6875,-9.9375
14:05:21.736,-8.6563,-13.0625
14:05:21.737,-9.75,-15.4376
14:05:21.741,-10.25,-18.9376
14:05:21.746,-11.9375,-20.7501
14:05:21.758,-12.125,-23.5626
14:05:21.764,-13.2188,-25.7501
14:05:21.775,-13.8751,-26.8126
14:05:21.784,-14.6251,-28.6251
14:05:21.794,-14.8751,-30.5001
14:05:21.804,-15.3438,-31.3751
14:05:21.814,-15.8438,-33.2501
14:05:21.825,-17.2188,-33.6876
14:05:21.834,-17.2188,-37.1251
14:05:21.844,-18.5626,-36.9376
14:05:21.854,-18.5001,-40.0627
14:05:21.864,-18.9063,-40.9377
14:05:21.874,-20.0001,-42.8127
14:05:21.884,-20.2501,-44.5002
14:05:21.894,-20.7501,-46.3127
14:05:21.905,-21.0938,-47.5002
14:05:21.915,-22.5001,-48.6877
14:05:21.927,-21.9376,-49.4377
14:05:21.937,-21.9063,-48.3752
14:05:21.946,-19.4376,-44.4377
14:05:21.955,-15.5938,-36.6251
14:05:21.964,-10.75,-25.1876
14:05:21.975,-4.3125,-10.8125
14:05:21.984,1,4.625
14:05:21.994,6.4688,17.4376
14:05:22.005,10.7813,27.3126
14:05:22.014,12.7188,35.0626
14:05:22.024,14.5626,39.4377
14:05:22.034,15.6563,40.8752
14:05:22.046,15.5001,40.9377
14:05:22.055,15.6563,39.9377
14:05:22.065,14.8126,38.6251
14:05:22.074,14.5626,37.3751
14:05:22.084,13.5626,35.6876
14:05:22.095,13.0625,34.0626
14:05:22.106,12.7188,32.5001
14:05:22.127,12.3125,32.0001
14:05:22.128,11.9375,31.6876
14:05:22.143,11.2813,29.5626
14:05:22.146,10.1875,27.5001
14:05:22.161,10.0313,25.3126
14:05:22.164,9.3438,24.3126
14:05:22.174,8.75,22.4376
14:05:22.184,7.4688,19.8126
14:05:22.194,6.8125,18.0001
14:05:22.204,6.3125,16.3126
14:05:22.219,5.4063,15.0001
14:05:22.225,5.5625,14.5626
14:05:22.234,4.8438,14.8751
14:05:22.245,5.5938,14.8126
14:05:22.254,5.2813,14.3126
14:05:22.265,4.9688,14.3126
14:05:22.275,5.2813,13.3126
14:05:22.285,4.375,12.8125
14:05:22.295,3.6875,12.0625
14:05:22.305,3.6875,9
14:05:22.314,2.6563,7.625
14:05:22.373,2.0625,6.25
14:05:22.399,0.875,4.1875
14:05:22.430,0.4375,2.125
14:05:22.431,-0.8125,-0.875
14:05:22.462,-2.875,-3.375
14:05:22.462,-3.7188,-6.5
14:05:22.462,-4.8125,-10.25
14:05:22.462,-5.4375,-12.375
14:05:22.463,-6,-14.0001
14:05:22.502,-7.0625,-15.5001
14:05:22.503,-8.125,-17.3126
14:05:22.505,-8.4375,-19.8126
14:05:22.507,-9.0938,-21.2501
14:05:22.522,-9.8125,-22.5626
14:05:22.523,-10.375,-25.3126
14:05:22.523,-11.0938,-26.2501
14:05:22.533,-11.4688,-27.5626
14:05:22.539,-12.3438,-29.6876
14:05:22.549,-12.8125,-31.0626
14:05:22.559,-12.7813,-31.2501
14:05:22.569,-14.0001,-34.2501
14:05:22.580,-15.1563,-36.1251
14:05:22.594,-16.1563,-37.8126
14:05:22.599,-17.9376,-43.8127
14:05:22.609,-15.2188,-37.5001
14:05:22.619,-11.1563,-27.0001
14:05:22.630,-5.2188,-14.0001
14:05:22.639,0.1875,1
14:05:22.650,5.375,13.6251
14:05:22.660,8.875,24.3751
14:05:22.670,12.1875,32.9376
14:05:22.679,14.3751,37.7501
14:05:22.689,15.0938,41.3752
14:05:22.699,15.8126,40.8127
14:05:22.709,15.1876,41.2502
14:05:22.719,15.1876,40.4377
14:05:22.729,14.5626,39.4377
14:05:22.739,14.2501,37.5001
14:05:22.749,13.7188,36.0626
14:05:22.759,13.6876,35.7501
14:05:22.769,13.0938,34.6251
14:05:22.780,12.5313,33.8126
14:05:22.790,12.4063,31.6876
14:05:22.799,11.3125,30.8751
14:05:22.810,11.1563,27.8751
14:05:22.819,10,25.9376
14:05:22.829,8.625,24.5626
14:05:22.839,8.3125,21.5001
14:05:22.850,7.4688,19.3126
14:05:22.859,6.8125,18.1876
14:05:22.870,6,16.4376
14:05:22.880,5.9375,15.8751
14:05:22.891,5.4063,15.3751
14:05:22.900,5.25,15.3126
14:05:22.909,5.25,14.8126
14:05:22.920,5.2188,14.8751
14:05:22.929,4.2813,14.5626
14:05:22.939,5.0313,13.3751
14:05:22.949,4.3438,12.8125
14:05:22.959,3.375,11.3125
14:05:22.970,2.9375,9.375
14:05:22.981,2.1875,8.125
14:05:22.989,1,5.5625
14:05:22.999,0.4688,3.125
14:05:23.009,-1.125,0.1875
14:05:23.019,-1.75,-2.1875
14:05:23.030,-3.0625,-4.5
14:05:23.039,-4.2813,-7.1875
14:05:23.049,-5.0313,-9.875
14:05:23.060,-6.3438,-12.0625
14:05:23.096,-7.3125,-14.2501
14:05:23.097,-8.1563,-16.3126
14:05:23.101,-8.5938,-18.6876
14:05:23.102,-9.0938,-19.9376
14:05:23.144,-9.9688,-21.9376
14:05:23.146,-11.0625,-23.1251
14:05:23.148,-11.8438,-25.8126
14:05:23.151,-11.8438,-26.6251
14:05:23.159,-12.25,-27.6876
14:05:23.161,-13.7501,-30.3751
14:05:23.193,-13.3751,-31.6251
14:05:23.194,-14.7188,-32.6876
14:05:23.196,-15.3751,-35.8126
14:05:23.200,-15.5938,-36.4376
14:05:23.230,-17.0001,-36.8751
14:05:23.231,-17.3438,-40.8127
14:05:23.234,-17.8438,-40.8127
14:05:23.246,-18.2188,-42.5627
14:05:23.252,-17.3126,-43.0627
14:05:23.261,-18.6563,-42.0627
14:05:23.270,-16.8438,-39.8752
14:05:23.282,-13.3751,-31.7501
14:05:23.289,-8.7188,-21.8751
14:05:23.299,-2.6875,-6.6875
14:05:23.309,3.0313,7.25
14:05:23.320,7.5,20.5001
14:05:23.329,11.0938,30.1876
14:05:23.344,13.6563,37.6876
14:05:23.349,15.0001,40.4377
14:05:23.359,16.3126,43.6877
14:05:23.370,16.1563,44.2502
14:05:23.379,16.1251,43.2502
14:05:23.389,15.0626,42.4377
14:05:23.400,14.6876,40.4377
14:05:23.410,13.9688,38.8126
14:05:23.428,13.6876,38.6251
14:05:23.434,13.4063,36.8126
14:05:23.449,13.8438,36.6251
14:05:23.452,13,35.2501
14:05:23.467,12.75,33.8751
14:05:23.475,12,31.5001
14:05:23.485,10.5313,31.1876
14:05:23.495,10.375,28.8126
14:05:23.505,9.8125,25.6251
14:05:23.514,8.7813,24.1876
14:05:23.524,8.125,21.5626
14:05:23.536,6.9375,21.0626
14:05:23.545,7.0313,19.0626
14:05:23.554,6.125,17.9376
14:05:23.566,5.8438,18.1876
14:05:23.574,6.125,16.9376
14:05:23.586,6.4375,18.1251
14:05:23.595,6.5938,17.0626
14:05:23.604,5.9063,17.1251
14:05:23.615,5.5,16.0626
14:05:23.624,5.5625,14.7501
14:05:23.636,4,13.2501
14:05:23.647,3.4375,10.4375
14:05:23.656,2.1563,8.1875
14:05:23.665,1.5625,6.25
14:05:23.682,0.5625,3.1875
14:05:23.698,-0.5625,0.6875
14:05:23.699,-1.4688,-1.9375
14:05:23.708,-3.0938,-3.9375
14:05:23.715,-3.375,-7.5
14:05:23.727,-4.6875,-9.6875
14:05:23.736,-5.625,-11.9375
14:05:23.745,-6.8438,-14.7501
14:05:23.784,-7.5313,-16.5001
14:05:23.786,-8.0938,-19.1251
14:05:23.788,-8.9688,-19.8126
14:05:23.804,-9.875,-23.0626
14:05:23.808,-10,-24.3126
14:05:23.808,-10.5625,-26.1251
14:05:23.836,-11.875,-27.5626
14:05:23.840,-11.6875,-29.7501
14:05:23.841,-13.125,-30.1876
14:05:23.846,-13.3126,-31.9376
14:05:23.882,-14.4063,-34.6876
14:05:23.886,-15.0001,-35.8751
14:05:23.887,-16.3126,-38.5001
14:05:23.889,-16.5001,-40.1877
14:05:23.896,-17.4688,-40.0002
14:05:23.930,-17.6876,-42.9377
14:05:23.932,-18.5313,-43.5002
14:05:23.934,-19.2188,-46.3752
14:05:23.937,-19.5313,-46.0002
14:05:23.946,-18.8438,-46.0627
14:05:23.956,-16.4376,-41.8127
14:05:23.967,-13.8751,-34.9376
14:05:23.976,-8.5625,-23.7501
14:05:23.986,-2.9375,-8.25
14:05:23.995,3.5938,6.3125
14:05:24.008,9.25,20.2501
14:05:24.014,11.625,30.6251
14:05:24.024,14.5626,37.0626
14:05:24.035,15.9063,41.2502
14:05:24.047,16.1563,42.6252
14:05:24.055,16.0626,44.4377
14:05:24.064,15.7813,42.5002
14:05:24.075,16.1251,41.4377
14:05:24.085,15.4376,39.8752
14:05:24.102,15.0626,38.4376
14:05:24.104,14.3751,37.3126
14:05:24.116,13.125,36.2501
14:05:24.126,13.3126,34.0626
14:05:24.135,12.8125,33.6876
14:05:24.145,12.0625,32.3126
14:05:24.155,12.1563,31.6251
14:05:24.166,10.4688,29.3751
14:05:24.176,10.75,27.1876
14:05:24.185,9.7188,24.8751
14:05:24.194,8.125,21.7501
14:05:24.206,7.0625,19.8126
14:05:24.216,5.4688,19.1251
14:05:24.226,6,17.0626
14:05:24.234,5.2188,15.4376
14:05:24.246,5.3125,15.3751
14:05:24.255,4.5625,16.4376
14:05:24.266,5,15.3126
14:05:24.276,4.8125,15.0626
14:05:24.286,4.4688,13.5626
14:05:24.296,3.9688,13.5626
14:05:24.306,3.9375,12.375
14:05:24.314,2.6563,10.1875
14:05:24.326,2.0625,8.6875
14:05:24.335,0.9063,6.9375
14:05:24.345,0.3125,4.75
14:05:24.356,-0.9063,2.125
14:05:24.366,-2.4063,-0.875
14:05:24.376,-3.25,-3.5
14:05:24.385,-4.625,-5.375
14:05:24.396,-5.125,-8.9375
14:05:24.406,-6.5313,-11.4375
14:05:24.416,-7.5313,-14.2501
14:05:24.426,-8.9375,-15.8126
14:05:24.435,-9.3125,-19.2501
14:05:24.446,-10.375,-21.6876
14:05:24.456,-10.9375,-23.8751
14:05:24.466,-12.0938,-24.6876
14:05:24.477,-12.4375,-27.4376
14:05:24.485,-12.9063,-29.4376
14:05:24.495,-13.7188,-29.9376
14:05:24.513,-14.0001,-31.8751
14:05:24.516,-15.5626,-33.9376
14:05:24.541,-15.4063,-35.0001
14:05:24.543,-16.5001,-36.7501
14:05:24.546,-16.5313,-39.0002
14:05:24.572,-18.0001,-40.5002
14:05:24.575,-18.7501,-41.3127
14:05:24.578,-18.7188,-44.0002
14:05:24.621,-19.5938,-44.1877
14:05:24.622,-20.2813,-46.4377
14:05:24.624,-20.8751,-48.1877
14:05:24.627,-22.4063,-50.1252
14:05:24.635,-22.1251,-51.0627
14:05:24.637,-22.7188,-51.7502
14:05:24.664,-21.6251,-51.3127
14:05:24.667,-20.2188,-46.5002
14:05:24.670,-16.0313,-39.1251
14:05:24.676,-11.4375,-27.6251
14:05:24.686,-5.2813,-11.875
14:05:24.696,1.4375,3.5
14:05:24.706,5.0938,17.3126
14:05:24.716,8.8438,26.3126
14:05:24.736,11.9375,33.6251
14:05:24.742,13.3438,37.6876
14:05:24.757,14.6251,39.5627
14:05:24.761,14.8751,40.8752
14:05:24.768,13.8126,39.6877
14:05:24.776,13.5313,38.1876
14:05:24.786,12.8438,37.4376
14:05:24.795,12.6875,35.3751
14:05:24.807,12.4375,33.5001
14:05:24.815,12.4688,33.0626
14:05:24.825,12.0938,31.8126
14:05:24.837,11.8125,30.6876
14:05:24.853,11.1875,30.0001
14:05:24.856,10,27.3126
14:05:24.866,9.7813,25.2501
14:05:24.876,8.375,22.6251
14:05:24.885,7.4375,20.4376
14:05:24.896,6.3125,19.1876
14:05:24.906,6.0313,16.1876
14:05:24.915,4.9063,14.9376
14:05:24.926,4,13.9376
14:05:24.935,4.4063,12.25
14:05:24.946,3.4688,11.875
14:05:24.955,3.2813,11.5
14:05:24.967,2.5938,11.375
14:05:24.984,2.3438,10.625
14:05:24.986,1.5,9.9375
14:05:25.003,1.6563,9.375
14:05:25.010,1.125,8.3125
14:05:25.016,-0.4375,5.4375
14:05:25.026,-1.875,5.375
14:05:25.036,-2.5625,1.875
14:05:25.045,-3.3125,-0.3125
14:05:25.074,-4.5938,-2.75
14:05:25.077,-5.75,-4.3125
14:05:25.080,-6.5625,-7.5625
14:05:25.086,-6.6563,-10.0625
14:05:25.096,-8.0625,-12.625
14:05:25.105,-7.5313,-14.4376
14:05:25.116,-9.9688,-17.8126
14:05:25.126,-10.7188,-20.7501
14:05:25.135,-11.2188,-21.2501
14:05:25.146,-11.75,-23.9376
14:05:25.156,-12.25,-25.7501
14:05:25.166,-12.9063,-28.2501
14:05:25.176,-13.7813,-30.0626
14:05:25.186,-14.6251,-30.4376
14:05:25.196,-14.5313,-33.3126
14:05:25.206,-16.1563,-33.9376
14:05:25.216,-16.4063,-36.2501
14:05:25.227,-17.0938,-37.2501
14:05:25.243,-17.5313,-39.3752
14:05:25.245,-17.5001,-39.9377
14:05:25.277,-18.0626,-41.8127
14:05:25.280,-18.9063,-43.1877
14:05:25.282,-18.8751,-45.2502
14:05:25.288,-19.8438,-45.8127
14:05:25.314,-19.7813,-47.6877
14:05:25.316,-20.2188,-47.6252
14:05:25.318,-20.3438,-49.3127
14:05:25.350,-20.1876,-47.4377
14:05:25.352,-18.6876,-45.8127
14:05:25.355,-15.2813,-38.5001
14:05:25.361,-10.8438,-28.8126
14:05:25.371,-5.5313,-14.6251
14:05:25.377,0.5938,0.1875
14:05:25.408,5.75,14.4376
14:05:25.412,10.0313,25.5001
14:05:25.413,12.6875,32.6251
14:05:25.421,14.1563,38.0001
14:05:25.428,15.1251,40.1252
14:05:25.436,15.1876,41.2502
14:05:25.445,15.0001,39.2502
14:05:25.455,13.8126,37.8751
14:05:25.465,13.0938,36.5001
14:05:25.476,12.0313,34.0001
14:05:25.486,11.4688,32.6251
14:05:25.496,10.1563,31.8751
14:05:25.506,9.9063,29.3126
14:05:25.515,8.625,28.8751
14:05:25.525,8.5625,26.1876
14:05:25.536,8.5938,25.1876
14:05:25.545,7.5313,22.9376
14:05:25.555,6.5,20.6251
14:05:25.566,5.0625,16.9376
14:05:25.575,4.4063,14.9376
14:05:25.586,4,14.2501
14:05:25.602,3.5625,12.5625
14:05:25.612,3.5,11.0625
14:05:25.621,2.6563,10.1875
14:05:25.631,3.5938,10.1875
14:05:25.641,3.375,10.3125
14:05:25.650,3.8125,11.0625
14:05:25.661,3.5,9.25
14:05:25.671,3.3125,9.75
14:05:25.681,3.2813,10.1875
14:05:25.691,2.5938,8.4375
14:05:25.701,2.875,7.5625
14:05:25.711,2.0313,6.1875
14:05:25.720,1.8438,3.875
14:05:25.731,0.9063,2.1875
14:05:25.741,-0.3125,-0.125
14:05:25.751,-1.0938,-2.75
14:05:25.760,-3,-6.75
14:05:25.770,-5.75,-9.5
14:05:25.782,-6.6563,-13.5001
14:05:25.791,-7.6563,-15.0626
14:05:25.801,-8.6875,-18.5626
14:05:25.811,-9.375,-19.2501
14:05:25.821,-9.6563,-22.1876
14:05:25.830,-10.375,-23.6876
14:05:25.841,-11.0313,-25.0001
14:05:25.852,-11.2813,-26.1876
14:05:25.861,-12.2188,-28.1876
14:05:25.871,-12.125,-29.2501
14:05:25.880,-12.6875,-30.6251
14:05:25.890,-12.2813,-32.0626
14:05:25.901,-13.0938,-33.9376
14:05:25.911,-13.0938,-34.3126
14:05:25.921,-14.0001,-35.0626
14:05:25.931,-14.3438,-37.5626
14:05:25.940,-13.5001,-37.6876
14:05:25.951,-14.8126,-39.9377
14:05:25.961,-14.8126,-40.5002
14:05:25.999,-14.5938,-41.3127
14:05:25.999,-14.3438,-40.5627
14:05:26.005,-13.0625,-38.8751
14:05:26.005,-11.0625,-33.3751
14:05:26.074,-5.75,-23.8751
14:05:26.075,-0.4063,-10.75
14:05:26.075,5.9375,4.1875
14:05:26.078,10.2188,18.0626
14:05:26.080,15.6563,29.8751
14:05:26.110,17.7813,37.3751
14:05:26.110,20.3438,42.9377
14:05:26.110,20.9688,45.8127
14:05:26.111,21.8751,47.6252
14:05:26.114,21.3751,47.7502
14:05:26.144,21.5626,46.1252
14:05:26.145,20.9063,45.9377
14:05:26.146,21.3126,44.7502
14:05:26.149,20.7188,42.1252
14:05:26.157,18.8751,42.3752
14:05:26.163,16.0626,37.8751
14:05:26.171,16.3126,36.6251
14:05:26.181,16.4376,36.3126
14:05:26.191,14.6251,33.6251
14:05:26.200,14.2813,31.1876
14:05:26.211,12.5313,28.8751
14:05:26.221,11.1875,25.4376
14:05:26.232,10.6563,22.8126
14:05:26.241,9.2188,20.7501
14:05:26.250,8.5313,18.3126
14:05:26.260,7.4375,17.4376
14:05:26.271,7.3125,16.6876
14:05:26.287,6.8125,15.7501
14:05:26.304,7.125,15.6251
14:05:26.305,7.2813,15.6251
14:05:26.311,6.3125,16.0001
14:05:26.321,6.8125,14.8126
14:05:26.354,5.2188,14.5001
14:05:26.362,5.3125,13.3751
14:05:26.364,4.5313,12.1875
14:05:26.364,4.7813,9.6875
14:05:26.370,3.125,8.1875
14:05:26.380,2.0625,5.6875
14:05:26.391,1.2813,3.375
14:05:26.402,-0.2188,0.4375
14:05:26.410,-1.1563,-3.0625
14:05:26.421,-1.5625,-4.6875
14:05:26.431,-2.2813,-7.3125
14:05:26.441,-2.8125,-10.125
14:05:26.451,-3,-12.5625
14:05:26.461,-3.2813,-13.5626
14:05:26.470,-4.3125,-16.3751
14:05:26.481,-4.625,-17.8126
14:05:26.491,-5.1875,-20.1251
14:05:26.500,-5.5625,-21.8126
14:05:26.510,-6.9063,-23.6876
14:05:26.521,-7.6563,-25.2501
14:05:26.530,-7.8438,-27.5626
14:05:26.542,-9.0625,-28.2501
14:05:26.550,-9.0625,-31.2501
14:05:26.562,-10.375,-32.1251
14:05:26.570,-10.9688,-34.4376
14:05:26.580,-11.8125,-36.6876
14:05:26.592,-12.125,-37.5626
14:05:26.601,-13.4688,-39.3127
14:05:26.610,-13.9376,-42.0627
14:05:26.620,-15.0313,-42.3127
14:05:26.630,-16.4688,-44.8752
14:05:26.641,-15.9688,-44.9377
14:05:26.652,-16.2813,-44.0002
14:05:26.661,-14.3751,-40.0002
14:05:26.671,-10.3125,-31.5626
14:05:26.681,-5.8438,-19.4376
14:05:26.690,0.2188,-5.9375
14:05:26.700,6.25,9.9375
14:05:26.712,11.1563,23.1876
14:05:26.722,15.0938,33.6876
14:05:26.731,18.2813,40.4377
14:05:26.769,19.4688,45.1252
14:05:26.770,21.4688,48.0002
14:05:26.772,21.2501,47.6877
14:05:26.775,20.9376,48.1252
14:05:26.783,20.0001,45.8127
14:05:26.822,19.5313,45.0627
14:05:26.822,20.0626,43.1252
14:05:26.825,19.5313,43.0627
14:05:26.851,19.3126,41.1877
14:05:26.852,16.7188,40.0002
14:05:26.854,17.5938,38.5001
14:05:26.856,16.6563,38.1876
14:05:26.861,15.2188,35.0626
14:05:26.893,14.0313,32.6876
14:05:26.896,13.1251,29.6876
14:05:26.898,11.2188,28.6876
14:05:26.902,10.5,24.5001
14:05:26.922,8.8125,21.8126
14:05:26.924,7.8125,21.1251
14:05:26.934,7.25,18.4376
14:05:26.942,6.6563,18.7501
14:05:26.952,7.6875,17.5001
14:05:26.960,7.2188,18.0626
14:05:26.973,7.4375,17.3751
14:05:26.983,7.2188,16.9376
14:05:26.991,6.6875,15.8126
14:05:27.001,6.0938,15.3751
14:05:27.011,4.7188,12.875
14:05:27.022,3.6875,10.375
14:05:27.031,2.2813,8.375
14:05:27.042,0.4063,4.8125
14:05:27.052,-0.3125,3.5625
14:05:27.062,-1.5,0.375
14:05:27.071,-3.4063,-2.6875
14:05:27.080,-3.2813,-4.625
14:05:27.092,-4.4375,-6.0625
14:05:27.101,-4.1563,-8.8125
14:05:27.110,-5.4063,-11.25
14:05:27.122,-5.8438,-13.1251
14:05:27.131,-6.75,-14.9376
14:05:27.140,-7.7813,-17.0626
14:05:27.152,-8.2813,-18.9376
14:05:27.162,-9.5,-21.8751
14:05:27.172,-10.0313,-23.5626
14:05:27.181,-12.125,-25.6876
14:05:27.192,-12.1563,-28.0001
14:05:27.201,-13.6251,-29.9376
14:05:27.210,-14.1251,-31.8126
14:05:27.221,-15.5626,-33.2501
14:05:27.231,-16.4063,-36.1876
14:05:27.240,-16.6251,-38.3126
14:05:27.250,-18.4063,-40.0627
14:05:27.262,-18.7813,-42.1252
14:05:27.271,-19.0938,-42.6877
14:05:27.281,-20.1563,-43.5627
14:05:27.297,-20.2813,-45.5002
14:05:27.302,-19.3438,-45.4377
14:05:27.310,-19.7813,-43.6252
14:05:27.322,-17.3751,-40.1252
14:05:27.339,-14.5001,-33.0626
14:05:27.346,-9.2813,-22.0001
14:05:27.360,-3.9375,-7.875
14:05:27.363,1.9375,7.125
14:05:27.370,6.8438,20.4376
14:05:27.382,9.9063,29.9376
14:05:27.392,12.6563,36.7501
14:05:27.402,13.3126,41.0002
14:05:27.410,14.0626,42.5002
14:05:27.421,13.4063,43.3127
14:05:27.432,13.3751,42.2502
14:05:27.440,11.8438,42.0002
14:05:27.452,11.9375,39.7502
14:05:27.461,11.2813,38.5001
14:05:27.495,11.625,37.3126
14:05:27.495,10.7188,36.9376
14:05:27.500,10.5625,35.8126
14:05:27.503,11.1563,34.4376
14:05:27.530,9.75,33.5626
14:05:27.535,9.3125,32.5001
14:05:27.536,8.8125,30.1251
14:05:27.566,8.25,27.8751
14:05:27.568,7.3438,27.1876
14:05:27.571,6.625,23.3751
14:05:27.604,5.8125,21.1251
14:05:27.609,4.6875,18.7501
14:05:27.609,4,17.5626
14:05:27.609,3.6563,16.6876
14:05:27.636,2.9375,15.7501
14:05:27.638,3.5,15.9376
14:05:27.639,3.5,15.3751
14:05:27.652,2.75,16.0626
14:05:27.656,3.4063,14.2501
14:05:27.662,2,14.5626
14:05:27.672,2,12.875
14:05:27.682,1.375,11.75
14:05:27.691,1.0625,9.0625
14:05:27.701,0,7
14:05:27.712,-0.9688,4.6875
14:05:27.721,-2.375,1.1875
14:05:27.732,-3.8125,-1.375
14:05:27.741,-5.4063,-4.375
14:05:27.752,-6.1563,-7.25
14:05:27.762,-8.3438,-10
14:05:27.772,-9.5313,-13.3751
14:05:27.782,-10.9063,-15.8751
14:05:27.792,-11.2188,-17.9376
14:05:27.802,-11.25,-19.1876
14:05:27.812,-12.7188,-21.5001
14:05:27.822,-13,-23.4376
14:05:27.832,-14.1876,-25.1251
14:05:27.842,-14.3751,-26.8126
14:05:27.850,-14.8438,-28.5001
14:05:27.862,-14.8751,-29.5626
14:05:27.871,-15.9063,-31.1876
14:05:27.882,-15.4063,-33.0626
14:05:27.892,-15.9376,-34.1876
14:05:27.900,-15.1563,-35.4376
14:05:27.912,-16.8126,-37.1251
14:05:27.922,-15.8126,-38.0626
14:05:27.932,-15.6251,-38.0001
14:05:27.942,-15.5626,-39.6877
14:05:27.952,-15.1251,-39.3127
14:05:27.962,-14.4688,-36.9376
14:05:27.972,-11.7813,-33.6876
14:05:27.982,-7.6563,-25.3751
14:05:27.992,-3.0938,-13.8751
14:05:28.002,3.125,0.0625
14:05:28.012,8.2188,14.6876
14:05:28.022,12.0625,24.8751
14:05:28.032,15.0313,35.4376
14:05:28.049,16.9376,41.0002
14:05:28.052,18.8438,44.2502
14:05:28.062,19.0626,47.2502
14:05:28.072,19.0001,47.2502
14:05:28.081,18.7188,46.1877
14:05:28.092,18.2188,45.6252
14:05:28.102,17.9063,43.8127
14:05:28.112,16.9063,43.6252
14:05:28.122,15.8126,40.6877
14:05:28.133,15.0626,40.3127
14:05:28.142,14.6563,38.5001
14:05:28.152,14.2813,38.0001
14:05:28.162,13.2813,37.4376
14:05:28.172,13.1563,34.6876
14:05:28.182,11.875,32.4376
14:05:28.191,10.8125,30.2501
14:05:28.217,9.7813,27.2501
14:05:28.221,8.4688,24.2501
14:05:28.224,7.2813,21.6251
14:05:28.253,6.25,22.0001
14:05:28.256,6.4063,19.8751
14:05:28.258,6.0625,19.5001
14:05:28.262,5.9688,19.7501
14:05:28.303,6.75,20.1876
14:05:28.304,6,19.4376
14:05:28.311,5.7188,19.5001
14:05:28.315,6.0938,19.6876
14:05:28.315,6.2188,18.1251
14:05:28.329,5.2188,16.5626
14:05:28.332,3.2813,15.6876
14:05:28.366,3.2188,12.4375
14:05:28.370,1.7813,9.375
14:05:28.372,0.4688,7.75
14:05:28.377,-0.1563,5.25
14:05:28.383,-0.8438,2.4375
14:05:28.394,-2.125,1.3125
14:05:28.402,-2.5,-1.75
14:05:28.412,-4.2813,-5.75
14:05:28.423,-5.2188,-7.8125
14:05:28.432,-5.9688,-10.125
14:05:28.442,-6.7188,-12.25
14:05:28.455,-7.9688,-14.5001
14:05:28.462,-8.4063,-16.6251
14:05:28.472,-9.1563,-17.5001
14:05:28.482,-10.1563,-18.8751
14:05:28.492,-10.6875,-20.5001
14:05:28.502,-10.5938,-23.1251
14:05:28.512,-12.0938,-26.0626
14:05:28.522,-13.1563,-27.8126
14:05:28.532,-13.8438,-29.0001
14:05:28.542,-14.8126,-31.6876
14:05:28.552,-15.5313,-32.4376
14:05:28.562,-16.2813,-34.6251
14:05:28.572,-16.7501,-35.0001
14:05:28.582,-17.5626,-37.1251
14:05:28.592,-17.0938,-36.3751
14:05:28.602,-16.5313,-36.1876
14:05:28.612,-14.2188,-30.9376
14:05:28.622,-10.4375,-23.4376
14:05:28.642,-5.9375,-11.5625
14:05:28.647,-0.4688,1.5625
14:05:28.662,5,15.7501
14:05:28.668,8.9375,27.2501
14:05:28.672,11.8438,36.7501
14:05:28.682,14.5001,41.9377
14:05:28.692,16.1251,46.5002
14:05:28.703,17.0938,45.8752
14:05:28.712,17.9376,48.0627
14:05:28.722,17.5313,46.6877
14:05:28.732,17.0001,45.8752
14:05:28.742,15.7813,45.7502
14:05:28.752,15.5313,42.8752
14:05:28.764,15.9063,42.3127
14:05:28.772,15.0313,41.4377
14:05:28.782,15.3126,41.4377
14:05:28.795,15.6251,41.8752
14:05:28.802,15.5938,39.8752
14:05:28.813,14.7501,38.7501
14:05:28.822,14.7813,37.4376
14:05:28.832,12.7813,34.4376
14:05:28.842,11.75,32.2501
14:05:28.852,11.0313,28.7501
14:05:28.862,9.3438,26.9376
14:05:28.879,9.0625,24.7501
14:05:28.882,8.625,23.0626
14:05:28.916,8.625,22.6876
14:05:28.918,9.0938,22.5001
14:05:28.924,9.2188,22.1876
14:05:28.925,9.4375,22.1251
14:05:28.960,9.25,21.3126
14:05:28.966,8.4375,20.7501
14:05:28.966,8,19.5001
14:05:28.970,7.5,17.6251
14:05:28.974,5.8438,15.9376
14:05:29.002,5.5625,13.7501
14:05:29.005,4.5938,11.25
14:05:29.007,3.1875,9.125
14:05:29.013,2.5625,7.1875
14:05:29.051,1.5313,3.625
14:05:29.052,0.5938,1.5625
14:05:29.056,-0.4688,-1
14:05:29.071,-1.4063,-3.8125
14:05:29.071,-1.9063,-6.25
14:05:29.072,-3.2813,-9.125
14:05:29.082,-4,-11.6875
14:05:29.092,-5.2188,-13.5001
14:05:29.102,-5.0938,-14.9376
14:05:29.112,-5.4688,-16.5001
14:05:29.123,-6.5,-19.6876
14:05:29.132,-7.5313,-19.6876
14:05:29.142,-7.7813,-22.0001
14:05:29.153,-8.1563,-24.4376
14:05:29.161,-9.5625,-27.0001
14:05:29.175,-10.0625,-29.2501
14:05:29.182,-11.1875,-30.1251
14:05:29.192,-12.0938,-31.5626
14:05:29.202,-12.2813,-34.5626
14:05:29.212,-13.4376,-36.3126
14:05:29.222,-13.7813,-36.8126
14:05:29.232,-14.7188,-39.6877
14:05:29.242,-15.2501,-40.0002
14:05:29.252,-15.6251,-40.7502
14:05:29.262,-15.0938,-38.8751
14:05:29.273,-11.9375,-35.0001
14:05:29.282,-8.0313,-25.1876
14:05:29.292,-2.3438,-12.1875
14:05:29.302,3,2.6875
14:05:29.312,8.0938,16.2501
14:05:29.322,11.75,27.5001
14:05:29.332,15.1563,35.8751
14:05:29.342,16.5313,42.1877
14:05:29.352,18.5938,45.3127
14:05:29.362,18.3751,46.2502
14:05:29.372,18.8126,47.6252
14:05:29.382,18.7501,45.9377
14:05:29.392,17.2501,45.1252
14:05:29.402,16.7501,44.1252
14:05:29.412,16.0313,42.6252
14:05:29.422,16.0626,42.0627
14:05:29.432,14.9376,41.6877
14:05:29.442,15.2188,40.7502
14:05:29.452,15.5626,41.6252
14:05:29.462,15.4063,40.0627
14:05:29.472,14.5938,38.4376
14:05:29.482,13.7188,36.6251
14:05:29.492,12.8125,34.5001
14:05:29.502,11.1563,32.4376
14:05:29.512,10.1875,28.6876
14:05:29.522,9.0313,27.1251
14:05:29.532,8.1563,24.8751
14:05:29.546,7.9375,23.2501
14:05:29.556,7.8125,23.1876
14:05:29.562,7.6563,21.6876
14:05:29.572,7.9688,21.5001
14:05:29.582,7.2813,21.1251
14:05:29.592,6.5313,20.5001
14:05:29.602,7.25,19.8126
14:05:29.618,5.75,18.6251
14:05:29.627,4.7188,16.8751
14:05:29.637,3.7813,14.9376
14:05:29.647,2.9375,13.1876
14:05:29.658,1.9688,11.25
14:05:29.674,0.625,7.6875
14:05:29.677,0.1875,5.4375
14:05:29.707,-1.5,1.875
14:05:29.708,-2.875,-0.5625
14:05:29.712,-4.375,-3.0625
14:05:29.717,-5.5625,-5
14:05:29.747,-6.1875,-7.9375
14:05:29.751,-7.0938,-11.375
14:05:29.755,-8.625,-13.0625
14:05:29.761,-9.125,-15.9376
14:05:29.768,-10.1563,-18.8126
14:05:29.793,-11.3438,-20.8751
14:05:29.794,-12.125,-23.3126
14:05:29.797,-12.1563,-25.1876
14:05:29.839,-13.0625,-26.6876
14:05:29.841,-12.875,-28.1251
14:05:29.843,-13.7501,-30.9376
14:05:29.847,-15.0313,-32.4376
14:05:29.851,-15.2188,-34.1251
14:05:29.858,-16.5626,-36.6876
14:05:29.867,-15.9063,-38.2501
14:05:29.877,-17.7813,-39.8127
14:05:29.887,-18.9376,-41.9377
14:05:29.897,-20.1876,-45.2502
14:05:29.907,-21.6876,-47.0627
14:05:29.923,-23.3126,-49.0002
14:05:29.929,-25.6876,-50.6877
14:05:29.944,-28.1564,-52.4377
14:05:29.958,-28.9064,-50.5002
14:05:29.961,-27.7189,-45.1252
14:05:29.967,-26.2814,-36.3751
14:05:29.977,-24.6251,-25.3126
14:05:29.987,-23.7813,-12.25
14:05:29.997,-24.1876,-0.375
14:05:30.007,-23.8438,7.8125
14:05:30.018,-23.6251,13.8751
14:05:30.027,-23.7501,18.8751
14:05:30.037,-24.2188,21.1251
14:05:30.047,-28.3439,20.3751
14:05:30.057,-38.5626,15.4376
14:05:30.067,-48.9064,10
14:05:30.077,-55.6877,5.25
14:05:30.087,-62.4377,1.125
14:05:30.097,-73.9065,-4.5
14:05:30.106,-88.8441,-15.2501
14:05:30.117,-102.5941,-26.4376
14:05:30.127,-111.4067,-32.1876
14:05:30.137,-115.4379,-34.6876
14:05:30.147,-117.4692,-37.2501
14:05:30.157,-118.438,-38.7501
14:05:30.195,-121.438,-41.4377
14:05:30.196,-123.1255,-44.6877
14:05:30.199,-125.6255,-47.9377
14:05:30.203,-129.1567,-50.8127
14:05:30.208,-131.2193,-53.1877
14:05:30.217,-132.563,-55.7502
14:05:30.228,-134.7193,-58.0627
14:05:30.238,-134.938,-59.0002
14:05:30.247,-135.0318,-59.5002
14:05:30.258,-133.8755,-58.9377
14:05:30.267,-131.688,-57.8752
14:05:30.277,-128.188,-54.0627
14:05:30.287,-121.938,-50.6252
14:05:30.298,-113.1254,-43.5627
14:05:30.307,-102.2504,-34.9376
14:05:30.317,-90.6254,-26.9376
14:05:30.327,-79.0003,-16.1876
14:05:30.337,-68.5003,-7.75
14:05:30.347,-59.5627,-0.625
14:05:30.357,-51.1252,7.125
14:05:30.367,-43.0627,12.3125
14:05:30.377,-35.3126,18.0626
14:05:30.405,-25.7501,25.5001
14:05:30.408,-12.625,35.3126
14:05:30.410,1.8125,47.0002
14:05:30.443,11.0625,53.6252
14:05:30.443,18.5001,57.3752
14:05:30.448,22.8751,60.7502
14:05:30.449,25.3751,62.0627
14:05:30.487,28.7501,61.0627
14:05:30.487,31.5626,63.1252
14:05:30.491,34.6876,63.3127
14:05:30.496,37.1876,65.1877
14:05:30.500,39.6252,64.6252
14:05:30.530,41.5002,63.4377
14:05:30.531,42.9377,62.8752
14:05:30.534,42.8752,61.1252
14:05:30.539,44.5627,60.2502
14:05:30.562,44.7502,58.4377
14:05:30.565,44.5002,56.6877
14:05:30.568,43.0627,52.7502
14:05:30.578,43.3752,50.5627
14:05:30.587,44.2502,49.4377
14:05:30.597,48.1877,49.8752
14:05:30.607,54.1252,52.0002
14:05:30.618,61.5002,56.1252
14:05:30.627,71.0628,63.6252
14:05:30.638,82.1878,72.8753
14:05:30.647,97.0941,86.0003
14:05:30.657,108.4692,101.6254
14:05:30.673,118.1255,119.063
14:05:30.679,129.0005,135.688
14:05:30.688,139.938,153.3131
14:05:30.697,151.9693,170.5632
14:05:30.708,163.3756,186.3132
14:05:30.719,177.2819,200.0633
14:05:30.729,190.3757,212.5633
14:05:30.737,203.782,226.5634
14:05:30.748,215.7821,238.1259
14:05:30.757,225.3446,247.8759
14:05:30.767,232.4696,254.376
14:05:30.777,236.6259,259.376
14:05:30.787,241.6884,262.001
14:05:30.797,244.5947,265.001
14:05:30.807,245.9072,269.251
14:05:30.818,253.4385,272.001
14:05:30.827,252.7822,272.3135
14:05:30.838,252.9072,269.251
14:05:30.847,249.1259,266.8135
14:05:30.858,246.7509,261.001
14:05:30.868,243.0322,256.8135
14:05:30.877,239.5009,250.2509
14:05:30.888,234.8446,245.7509
14:05:30.897,230.7509,238.0634
14:05:30.907,225.1571,232.9384
14:05:30.919,218.6883,223.5009
14:05:30.928,215.6571,221.3134
14:05:30.937,211.2195,216.6258
14:05:30.947,206.9695,211.2508
14:05:30.957,202.0633,206.0008
14:05:30.967,195.9695,199.3133
14:05:30.977,189.0945,192.6257
14:05:30.989,183.2195,185.6257
14:05:30.997,175.3132,177.9382
14:05:31.007,167.5944,170.5006
14:05:31.018,167.0944,158.3756
14:05:31.027,150.6256,152.8756
14:05:31.037,141.6568,143.938
14:05:31.052,133.188,133.188
14:05:31.058,124.3442,123.688
14:05:31.067,115.1567,113.8129
14:05:31.078,105.0941,102.6254
14:05:31.087,93.8754,91.9379
14:05:31.099,84.1878,81.8128
14:05:31.108,75.1253,71.0628
14:05:31.118,66.1253,63.5627
14:05:31.141,58.0627,52.8127
14:05:31.143,50.5627,47.6252
14:05:31.169,43.0627,39.3752
14:05:31.170,35.8126,34.7501
14:05:31.172,29.6251,27.5626
14:05:31.177,23.6876,22.9376
14:05:31.215,18.4063,17.7501
14:05:31.216,14.5313,15.1876
14:05:31.221,10.375,9.9375
14:05:31.223,7.75,6.8125
14:05:31.255,4.7813,3.125
14:05:31.257,1.0313,-0.0625
14:05:31.299,-2.2813,-3.375
14:05:31.300,-5.375,-6.8125
14:05:31.301,-8.7188,-9.6875
14:05:31.303,-10.5313,-13.5001
14:05:31.309,-13.5313,-15.6876
14:05:31.310,-15.6563,-18.5626
14:05:31.310,-17.2813,-21.1876
14:05:31.320,-18.5313,-22.1251
14:05:31.327,-18.5938,-22.3126
14:05:31.339,-18.1563,-18.7501
14:05:31.349,-14.8751,-12.125
14:05:31.357,-11.4688,-1.6875
14:05:31.369,-6.375,10.9375
14:05:31.378,-3.0313,22.5001
14:05:31.388,-0.6875,32.5626
14:05:31.398,1.0625,38.5626
14:05:31.408,2.6875,44.8127
14:05:31.418,3.1563,48.5002
14:05:31.427,3.375,48.5627
14:05:31.438,3.2188,50.3752
14:05:31.448,2.5,49.3752
14:05:31.475,1.5938,48.3752
14:05:31.478,1.4688,47.0002
14:05:31.492,1.0313,45.5627
14:05:31.494,0.6875,45.4377
14:05:31.509,-1.3125,44.1252
14:05:31.524,-2.375,42.3752
14:05:31.527,-2.625,42.4377
14:05:31.542,-4,39.9377
14:05:31.544,-3.625,39.0626
14:05:31.549,-5.9063,37.4376
14:05:31.558,-7.3438,34.0626
14:05:31.569,-8.5938,31.7501
14:05:31.578,-10.2188,29.0001
14:05:31.588,-11.0625,26.7501
14:05:31.598,-12.4688,25.0626
14:05:31.608,-13.1875,22.8751
14:05:31.618,-14.0001,21.6251
14:05:31.628,-14.0001,20.7501
14:05:31.639,-13.6876,20.7501
14:05:31.648,-13.4376,21.2501
14:05:31.658,-12.5938,20.8751
14:05:31.669,-12.1563,19.6251
14:05:31.678,-11.2188,19.5001
14:05:31.688,-10.9375,18.7501
14:05:31.698,-11.3125,17.6876
14:05:31.708,-11.7188,15.9376
14:05:31.718,-11.8438,15.0626
14:05:31.729,-12.9375,11.625
14:05:31.738,-12.9063,10.625
14:05:31.748,-13.4376,7.9375
14:05:31.759,-13.3751,6.3125
14:05:31.768,-13.9688,3.125
14:05:31.793,-14.5626,0.875
14:05:31.797,-15.2813,-2.4375
14:05:31.798,-15.4688,-3.5
14:05:31.831,-16.7813,-6.8125
14:05:31.835,-16.3751,-8.3125
14:05:31.836,-17.6876,-11.6875
14:05:31.838,-17.2501,-11.9375
14:05:31.869,-16.8126,-13.8126
14:05:31.871,-15.7501,-12.625
14:05:31.873,-14.5626,-14.1251
14:05:31.900,-13.7501,-12.9375
14:05:31.901,-12.0938,-14.2501
14:05:31.904,-9.75,-12.9375
14:05:31.909,-6.1875,-12.6875
14:05:31.926,-2.8125,-11.375
14:05:31.929,2.6875,-9.0625
14:05:31.959,5.25,-7.8125
14:05:31.962,9.375,-7.75
14:05:31.964,11.3125,-8
14:05:31.969,14.2501,-8.625
14:05:31.979,16.6563,-8.25
14:05:31.988,19.2501,-9.375
14:05:31.999,21.4063,-9.5
14:05:32.008,21.8126,-9.5
14:05:32.018,23.9063,-10.8125
14:05:32.028,25.3751,-9.5625
14:05:32.038,27.5314,-8.875
14:05:32.048,28.5939,-4.125
14:05:32.058,31.5626,0.75
14:05:32.069,40.5939,7.625
14:05:32.078,38.3126,20.0626
14:05:32.090,41.2502,33.1251
14:05:32.098,44.4689,43.1877
14:05:32.108,45.4064,53.2502
14:05:32.118,46.2814,58.3752
14:05:32.128,45.6877,62.0002
14:05:32.138,44.5002,61.6252
14:05:32.148,42.7814,60.4377
14:05:32.158,40.8439,57.4377
14:05:32.168,37.6564,52.8127
14:05:32.179,34.2814,50.3752
14:05:32.188,29.7814,44.3127
14:05:32.198,24.8751,39.8127
14:05:32.208,19.7813,34.1251
14:05:32.219,14.6876,29.5626
14:05:32.228,8.7813,23.0001
14:05:32.239,2.8125,17.1876
14:05:32.248,-2.8438,11.625
14:05:32.258,-8.5938,4.3125
14:05:32.269,-12.4063,-0.3125
14:05:32.282,-14.7501,-3.1875
14:05:32.288,-15.2501,-7.75
14:05:32.298,-17.3751,-11.1875
14:05:32.308,-18.7813,-12.75
14:05:32.318,-19.4376,-14.5626
14:05:32.335,-20.6563,-16.2501
14:05:32.340,-21.5001,-16.9376
14:05:32.348,-22.8751,-17.4376
14:05:32.359,-23.3751,-15.4376
14:05:32.368,-23.3438,-16.0626
14:05:32.378,-24.3751,-17.6251
14:05:32.389,-26.4689,-18.1251
14:05:32.398,-28.2501,-19.3126
14:05:32.409,-28.6876,-21.3751
14:05:32.418,-30.3439,-24.0001
14:05:32.429,-31.9376,-26.1876
14:05:32.438,-32.5314,-28.6251
14:05:32.449,-34.9689,-30.5626
14:05:32.458,-36.1876,-33.3751
14:05:32.468,-37.7189,-35.9376
14:05:32.479,-39.1251,-37.9376
14:05:32.489,-38.5939,-40.9377
14:05:32.498,-40.4377,-42.6252
14:05:32.508,-40.6252,-45.5002
14:05:32.518,-42.4377,-46.4377
14:05:32.549,-43.1252,-49.6252
14:05:32.622,-43.9689,-50.0627
14:05:32.624,-45.0627,-52.8127
14:05:32.640,-45.8127,-53.3752
14:05:32.644,-46.6877,-56.1877
14:05:32.644,-47.7189,-56.3127
14:05:32.644,-48.3127,-60.0002
14:05:32.644,-49.1252,-59.8752
14:05:32.653,-49.0939,-61.9377
14:05:32.675,-48.2814,-61.1877
14:05:32.677,-47.8127,-62.3752
14:05:32.679,-46.8752,-62.7502
14:05:32.714,-47.5627,-64.0627
14:05:32.716,-47.2189,-65.0002
14:05:32.719,-48.0002,-65.5628
14:05:32.725,-47.6877,-66.4378
14:05:32.731,-48.8439,-68.4378
14:05:32.753,-49.1877,-68.2503
14:05:32.756,-49.5939,-68.6878
14:05:32.758,-48.4689,-66.7503
14:05:32.769,-46.9689,-64.1877
14:05:32.778,-42.7814,-56.0002
14:05:32.788,-37.8751,-45.0627
14:05:32.809,-32.1564,-33.3751
14:05:32.812,-17.7813,12.3125
14:05:32.827,-15.8751,14.5001
14:05:32.842,-15.8751,17.6876
14:05:32.845,-14.2813,16.9376
14:05:32.859,-13.2813,17.6251
14:05:32.862,-14.0001,17.3751
14:05:32.869,-12.375,17.0001
14:05:32.878,-13.4376,16.8751
14:05:32.888,-12.9063,15.5626
14:05:32.900,-12.7813,16.7501
14:05:32.908,-12.9063,14.6251
14:05:32.918,-12.4063,14.6876
14:05:32.928,-13.9063,13.8751
14:05:32.938,-12.7188,12
14:05:32.949,-13.2501,10.5625
14:05:32.958,-12.7813,9
14:05:32.968,-13.3751,7.25
14:05:32.978,-13.6251,5.125
14:05:32.990,-13.0625,4.1875
14:05:32.999,-13.0938,3
14:05:33.008,-10.6875,3.8125
14:05:33.018,-9.0313,5.25
14:05:33.028,-7.25,6.0625
14:05:33.038,-5.875,6.6875
14:05:33.048,-4.8125,7.75
14:05:33.058,-2.7188,8.125
14:05:33.069,-2.6563,9.6875
14:05:33.079,-1.6563,9
14:05:33.090,-0.1875,9.25
14:05:33.098,1.0625,9.25
14:05:33.108,2.7813,8.75
14:05:33.118,5.0938,9.6875
14:05:33.129,7.3438,8.5
14:05:33.138,9.5938,9.625
14:05:33.148,10.7813,8.625
14:05:33.159,12.4375,7.5
14:05:33.170,12.7813,4.8125
14:05:33.178,13.1875,3.75
14:05:33.188,13.6563,2.0625
14:05:33.198,14.6251,1.75
14:05:33.208,14.8751,0.5
14:05:33.218,15.9376,-0.9375
14:05:33.228,16.5626,-2.5
14:05:33.239,17.7501,-2.4375
14:05:33.257,19.9688,-1.1875
14:05:33.260,21.2501,-1
14:05:33.290,23.4376,-1.9375
14:05:33.293,25.0626,-1.75
14:05:33.296,26.9376,-1.8125
14:05:33.299,26.9689,-1.5625
14:05:33.335,28.6876,-0.875
14:05:33.339,30.7814,4.3125
14:05:33.339,32.4689,-1.375
14:05:33.342,33.5626,-0.75
14:05:33.374,33.5626,-2.875
14:05:33.376,33.2189,-3.5625
14:05:33.378,32.6564,-4.0625
14:05:33.383,31.9689,-4.9375
14:05:33.400,33.0314,-1.5625
14:05:33.401,35.5001,3
14:05:33.425,38.7501,11.5
14:05:33.428,43.0314,21.5626
14:05:33.430,48.7189,36.3126
14:05:33.439,53.1877,47.8752
14:05:33.449,56.1565,58.0627
14:05:33.458,56.969,64.1877
14:05:33.470,57.0627,68.8128
14:05:33.478,56.4377,68.8753
14:05:33.488,53.3752,66.6878
14:05:33.498,50.0627,66.6878
14:05:33.508,47.3439,62.3752
14:05:33.518,43.4377,57.5627
14:05:33.531,39.6564,54.6877
14:05:33.538,36.5001,51.5627
14:05:33.548,32.8126,47.3752
14:05:33.558,30.3126,44.5002
14:05:33.568,27.7189,41.6877
14:05:33.578,26.3751,38.7501
14:05:33.588,23.8438,34.9376
14:05:33.598,21.3438,31.7501
14:05:33.608,18.9688,28.5626
14:05:33.619,16.8751,25.5001
14:05:33.628,14.5626,22.1251
14:05:33.638,12.6875,18.4376
14:05:33.648,11.3438,18.3751
14:05:33.681,10.0938,16.1876
14:05:33.683,9.1563,14.3126
14:05:33.686,7.7813,11.9375
14:05:33.694,6.5,11
14:05:33.703,5.25,11.6875
14:05:33.713,4.6875,10.1875
14:05:33.723,3,8.4375
14:05:33.733,1.875,7.1875
14:05:33.743,0.7813,6.3125
14:05:33.753,-0.125,4.9375
14:05:33.763,-1.1563,2.6875
14:05:33.773,-2.2813,0.0625
14:05:33.784,-4.2813,-1.1875
14:05:33.793,-5.0313,-4.5625
14:05:33.803,-6.7188,-7.5
14:05:33.813,-8.2813,-10.6875
14:05:33.823,-10.4375,-13.5001
14:05:33.834,-11.25,-17.5001
14:05:33.844,-13.1876,-20.3126
14:05:33.853,-14.4688,-22.3126
14:05:33.863,-15.2188,-25.6251
14:05:33.873,-16.7501,-26.8126
14:05:33.883,-17.5313,-29.6251
14:05:33.905,-18.5313,-32.0001
14:05:33.907,-19.7813,-33.6251
14:05:33.917,-20.2501,-34.6251
14:05:33.923,-20.8751,-37.3126
14:05:33.938,-21.9063,-38.6251
14:05:33.947,-22.4376,-41.2502
14:05:33.954,-23.0626,-42.3752
14:05:33.964,-23.7188,-44.4377
14:05:33.973,-24.7813,-45.8127
14:05:33.985,-25.1876,-48.3752
14:05:33.994,-25.9063,-50.0002
14:05:34.034,-26.8126,-51.9377
14:05:34.035,-29.0939,-53.8127
14:05:34.038,-30.1251,-55.0627
14:05:34.039,-30.5001,-57.3752
14:05:34.045,-31.5314,-57.9377
14:05:34.078,-30.3751,-57.3127
14:05:34.081,-29.2814,-53.7502
14:05:34.083,-25.6876,-46.2502
14:05:34.085,-21.1563,-37.8126
14:05:34.119,-16.1251,-24.0626
14:05:34.154,-10.7813,-10.5
14:05:34.177,-6.6875,2.125
14:05:34.193,-2.4375,11.625
14:05:34.193,-0.625,18.5626
14:05:34.193,0.625,22.5626
14:05:34.194,1.3125,25.0001
14:05:34.208,0.7813,26.3751
14:05:34.218,0.7813,25.9376
14:05:34.218,-0.4688,23.8751
14:05:34.218,-1.1875,22.6251
14:05:34.221,-2,21.7501
14:05:34.228,-2.875,20.0001
14:05:34.239,-2.7813,19.6876
14:05:34.249,-3.6875,18.7501
14:05:34.258,-3.375,18.4376
14:05:34.268,-4.0625,17.3126
14:05:34.278,-3.9688,15.3126
14:05:34.288,-4.5,13.1876
14:05:34.298,-4.2188,12.5625
14:05:34.309,-3.875,11.5625
14:05:34.318,-3.5313,10.1875
14:05:34.328,-0.9375,9.3125
14:05:34.340,-0.5313,9.5
14:05:34.348,1.4375,9.25
14:05:34.359,2.3438,10
14:05:34.368,2.7188,9.375
14:05:34.380,2.6875,10.3125
14:05:34.388,4.75,10.875
14:05:34.399,6.4063,12.4375
14:05:34.408,8.4375,14.0001
14:05:34.418,9.7188,14.5626
14:05:34.429,10.4375,12.75
14:05:34.438,10.7813,12.9375
14:05:34.449,10.875,11.125
14:05:34.458,10.8438,11.375
14:05:34.469,10.5938,8.5625
14:05:34.478,10.875,7.5
14:05:34.490,10.2813,4.75
14:05:34.498,11.1875,4.375
14:05:34.508,12.1563,2.3125
14:05:34.519,13.1563,2.5
14:05:34.528,15.0313,2.1875
14:05:34.538,14.5938,0.6875
14:05:34.549,16.0313,0
14:05:34.558,16.2188,-1
14:05:34.569,16.9063,-1.375
14:05:34.579,17.2813,-3.0625
14:05:34.590,16.5626,-3.4375
14:05:34.598,17.8438,-5.1875
14:05:34.609,17.2188,-5.9375
14:05:34.618,18.2501,-6.375
14:05:34.629,18.6563,-7.625
14:05:34.639,18.0938,-8.375
14:05:34.649,18.0001,-11.1875
14:05:34.659,17.7188,-11.3125
14:05:34.668,17.7813,-13.3751
14:05:34.679,17.4688,-14.6876
14:05:34.689,16.3438,-16.8751
14:05:34.699,16.4688,-17.1251
14:05:34.722,15.9688,-17.9376
14:05:34.727,17.2501,-15.0626
14:05:34.736,19.3126,-10.125
14:05:34.739,22.8438,-2.25
14:05:34.774,28.1251,8
14:05:34.776,33.3126,22.1876
14:05:34.778,37.3751,34.8126
14:05:34.783,40.5314,44.0002
14:05:34.809,42.6252,52.7502
14:05:34.812,43.3127,55.0002
14:05:34.815,42.4064,57.4377
14:05:34.819,41.3439,56.6877
14:05:34.856,40.0627,54.8127
14:05:34.862,36.9376,52.1877
14:05:34.863,34.9689,50.2502
14:05:34.863,32.8126,46.8127
14:05:34.869,30.8751,44.3127
14:05:34.891,29.2501,41.7502
14:05:34.892,27.9689,40.4377
14:05:34.898,26.9376,37.7501
14:05:34.908,26.4376,38.0001
14:05:34.919,25.2501,35.1876
14:05:34.930,24.3751,32.8126
14:05:34.938,22.8751,29.8751
14:05:34.948,21.6563,29.4376
14:05:34.965,20.9063,26.5001
14:05:34.969,19.1563,24.0001
14:05:34.979,16.3438,22.2501
14:05:34.990,15.0001,19.8751
14:05:34.999,12.2813,17.6876
14:05:35.009,10.2813,15.9376
14:05:35.019,7.9688,15.8126
14:05:35.030,6.5313,13.3126
14:05:35.040,4.2813,11.6875
14:05:35.049,1.1875,10.0625
14:05:35.059,-1.2813,7.0625
14:05:35.069,-4.75,4.375
14:05:35.079,-7.875,-0.0625
14:05:35.089,-10.2188,-2.25
14:05:35.099,-12.4375,-5.1875
14:05:35.109,-14.7188,-8.625
14:05:35.119,-17.0313,-12.5
14:05:35.129,-20.3751,-14.8126
14:05:35.140,-23.2813,-20.6251
14:05:35.149,-26.5001,-24.7501
14:05:35.161,-29.3439,-27.6251
14:05:35.170,-31.9064,-32.7501
14:05:35.179,-34.0626,-36.0626
14:05:35.190,-36.2189,-39.9377
14:05:35.200,-38.3126,-42.3752
14:05:35.209,-39.5939,-44.6252
14:05:35.224,-41.6564,-48.3127
14:05:35.232,-42.8752,-49.3127
14:05:35.239,-44.2502,-51.4377
14:05:35.254,-45.8752,-52.6252
14:05:35.270,-47.8127,-55.5627
14:05:35.273,-49.5002,-56.5002
14:05:35.279,-50.7502,-59.8127
14:05:35.289,-51.0939,-60.3752
14:05:35.314,-52.9065,-63.9377
14:05:35.317,-52.8439,-64.6877
14:05:35.322,-54.6565,-67.0003
14:05:35.329,-56.0315,-69.3753
14:05:35.346,-56.4377,-70.1253
14:05:35.349,-57.1565,-68.6878
14:05:35.359,-56.594,-69.1253
14:05:35.370,-53.4065,-64.2502
14:05:35.379,-50.0002,-56.2502
14:05:35.391,-44.5627,-45.5627
14:05:35.399,-38.6876,-31.0001
14:05:35.409,-33.2814,-19.3126
14:05:35.419,-27.2189,-7.0625
14:05:35.430,-23.9063,0.9375
14:05:35.439,-20.9688,7.0625
14:05:35.459,-20.4376,11.75
14:05:35.462,-20.6251,12.1875
14:05:35.525,-20.6876,13.3751
14:05:35.526,-20.8126,12.8125
14:05:35.552,-20.4376,13.3126
14:05:35.555,-21.5626,11.5625
14:05:35.582,-21.5626,10.75
14:05:35.584,-22.0938,10
14:05:35.590,-23.3126,8
14:05:35.590,-23.6563,6.9375
14:05:35.590,-24.5001,5.5
14:05:35.590,-25.5626,3.9375
14:05:35.624,-26.7501,3
14:05:35.624,-27.5314,0.625
14:05:35.624,-28.5626,-1.75
14:05:35.627,-30.3751,-4.6875
14:05:35.633,-31.0939,-6
14:05:35.635,-32.2814,-8.8125
14:05:35.644,-33.8751,-10.125
14:05:35.655,-34.6564,-12.5625
14:05:35.664,-35.6564,-13.7501
14:05:35.674,-35.6251,-13.6251
14:05:35.684,-36.0626,-14.5001
14:05:35.694,-36.0001,-15.3126
14:05:35.704,-36.3126,-14.8126
14:05:35.720,-36.4376,-16.4376
14:05:35.725,-37.0626,-16.5001
14:05:35.734,-36.4064,-18.1876
14:05:35.745,-36.7189,-19.6876
14:05:35.754,-36.9064,-20.8126
14:05:35.764,-37.4376,-23.0001
14:05:35.774,-39.1252,-25.3751
14:05:35.784,-39.9377,-27.9376
14:05:35.794,-42.2502,-30.8126
14:05:35.804,-43.7814,-34.3126
14:05:35.814,-44.4377,-37.8751
14:05:35.824,-45.3439,-37.9376
14:05:35.834,-45.7189,-40.8127
14:05:35.844,-45.4064,-43.0627
14:05:35.854,-47.3127,-44.8127
14:05:35.864,-47.2814,-46.8752
14:05:35.875,-47.8439,-47.8752
14:05:35.884,-48.5627,-50.7502
14:05:35.894,-48.2189,-50.7502
14:05:35.904,-48.9377,-50.6877
14:05:35.914,-48.5627,-53.8752
14:05:35.924,-49.1564,-55.1252
14:05:35.935,-51.4377,-57.4377
14:05:35.944,-52.2814,-59.4377
14:05:35.954,-53.8127,-60.8752
14:05:35.964,-55.3752,-64.4377
14:05:35.974,-57.4377,-66.5628
14:05:35.984,-60.7502,-70.3753
14:05:35.995,-63.344,-73.1253
14:05:36.004,-66.8128,-76.5628
14:05:36.014,-68.7815,-79.5628
14:05:36.025,-71.844,-78.8753
14:05:36.034,-72.5628,-77.8128
14:05:36.044,-74.5003,-72.1878
14:05:36.054,-76.6253,-66.5628
14:05:36.064,-81.1878,-62.4377
14:05:36.074,-88.0003,-62.3127
14:05:36.084,-95.0316,-64.5627
14:05:36.099,-104.0629,-67.3753
14:05:36.104,-113.3129,-74.6253
14:05:36.114,-125.3755,-82.5628
14:05:36.125,-137.9693,-93.1254
14:05:36.134,-149.2818,-103.5004
14:05:36.144,-161.3756,-113.9379
14:05:36.154,-171.1569,-124.563
14:05:36.164,-183.157,-133.8755
14:05:36.174,-194.6257,-146.5005
14:05:36.185,-205.7508,-158.4381
14:05:36.195,-219.0633,-170.5632
14:05:36.205,-231.1571,-183.4382
14:05:36.215,-243.9697,-195.6882
14:05:36.251,-255.4697,-207.0633
14:05:36.253,-263.251,-216.5633
14:05:36.256,-268.4073,-223.3759
14:05:36.258,-272.9698,-228.3134
14:05:36.265,-274.751,-231.8134
14:05:36.299,-276.6886,-232.6259
14:05:36.302,-276.3761,-234.3134
14:05:36.304,-275.9698,-234.4384
14:05:36.307,-275.2198,-235.3134
14:05:36.343,-274.876,-234.5634
14:05:36.345,-274.376,-233.8759
14:05:36.348,-273.001,-232.6259
14:05:36.349,-271.751,-231.8134
14:05:36.354,-270.6885,-231.2509
14:05:36.368,-270.9385,-229.5634
14:05:36.375,-269.126,-230.3134
14:05:36.392,-269.376,-229.3759
14:05:36.394,-270.376,-232.1259
14:05:36.404,-271.6885,-231.7509
14:05:36.414,-271.5635,-234.3759
14:05:36.424,-270.3135,-232.3759
14:05:36.434,-266.876,-232.7509
14:05:36.444,-262.3135,-230.8759
14:05:36.455,-259.0635,-229.4384
14:05:36.464,-253.4385,-227.6259
14:05:36.474,-249.6884,-224.8134
14:05:36.484,-245.5634,-223.1259
14:05:36.494,-242.8134,-220.0633
14:05:36.504,-238.4384,-219.8133
14:05:36.515,-234.8759,-216.7508
14:05:36.524,-230.6259,-214.0008
14:05:36.539,-213.1258,-201.8758
14:05:36.550,-208.6258,-203.3133
14:05:36.554,-199.8133,-200.6258
14:05:36.601,-189.6882,-195.0007
14:05:36.601,-180.1882,-193.2507
14:05:36.603,-172.0632,-189.2507
14:05:36.611,-167.2506,-187.1257
14:05:36.611,-162.3756,-187.1257
14:05:36.614,-158.8756,-185.6882
14:05:36.625,-155.4381,-186.3757
14:05:36.635,-152.3756,-186.0007
14:05:36.645,-150.1256,-186.4382
14:05:36.655,-146.8755,-186.1257
14:05:36.664,-144.438,-184.6257
14:05:36.674,-141.6255,-185.3757
14:05:36.684,-138.313,-183.0632
14:05:36.694,-134.5005,-180.1257
14:05:36.704,-129.1255,-174.5007
14:05:36.715,-123.5005,-165.6881
14:05:36.725,-116.2504,-153.4381
14:05:36.734,-109.3754,-139.063
14:05:36.744,-101.5629,-124.313
14:05:36.754,-95.8754,-111.5004
14:05:36.764,-91.2504,-101.0004
14:05:36.775,-86.2503,-93.1254
14:05:36.784,-81.8753,-85.9378
14:05:36.794,-79.3128,-81.3128
14:05:36.804,-75.8128,-77.8753
14:05:36.814,-72.1878,-74.3753
14:05:36.836,-68.8128,-73.3753
14:05:36.840,-65.3127,-70.9378
14:05:36.847,-64.2502,-68.3128
14:05:36.859,-61.0627,-68.6253
14:05:36.871,-60.0002,-67.4378
14:05:36.885,-59.5002,-67.8753
14:05:36.888,-58.0627,-67.0003
14:05:36.894,-57.6252,-66.1253
14:05:36.906,-56.3752,-67.1253
14:05:36.914,-55.0627,-66.1878
14:05:36.939,-55.3127,-67.0628
14:05:36.941,-53.8752,-68.3753
14:05:36.944,-54.0627,-67.6878
14:05:36.988,-52.4377,-68.1878
14:05:36.988,-51.0627,-68.3128
14:05:36.991,-50.8752,-68.3128
14:05:36.993,-49.7502,-67.7503
14:05:37.000,-48.5002,-66.4378
14:05:37.006,-47.0627,-65.9378
14:05:37.029,-46.8127,-64.1877
14:05:37.032,-46.1877,-64.6877
14:05:37.034,-45.0627,-62.2502
14:05:37.070,-44.7502,-63.4377
14:05:37.072,-44.0627,-62.9377
14:05:37.075,-44.0627,-63.1252
14:05:37.077,-43.3752,-61.9377
14:05:37.104,-42.3752,-63.7502
14:05:37.105,-42.1252,-62.8752
14:05:37.107,-42.0002,-65.3127
14:05:37.115,-42.9377,-66.1253
14:05:37.127,-42.3127,-68.9378
14:05:37.134,-43.0627,-70.1253
14:05:37.144,-42.8127,-70.4378
14:05:37.154,-43.1252,-72.1253
14:05:37.164,-43.3127,-73.8128
14:05:37.174,-42.7502,-75.5003
14:05:37.185,-42.8752,-75.3753
14:05:37.194,-43.1252,-77.6878
14:05:37.204,-42.2502,-77.5003
14:05:37.214,-42.6252,-78.6878
14:05:37.230,-42.6877,-79.3753
14:05:37.234,-42.8127,-80.3753
14:05:37.244,-42.4377,-80.4378
14:05:37.254,-42.1252,-82.5003
14:05:37.265,-41.9377,-82.5003
14:05:37.274,-41.9377,-83.2503
14:05:37.284,-42.9377,-84.1253
14:05:37.294,-42.5002,-85.0003
14:05:37.304,-43.1252,-85.7503
14:05:37.315,-43.0627,-86.5628
14:05:37.325,-42.5002,-87.4378
14:05:37.334,-41.2502,-87.6878
14:05:37.345,-42.3127,-87.4378
14:05:37.355,-41.8752,-86.3753
14:05:37.366,-39.6252,-82.4378
14:05:37.374,-35.7501,-75.1253
14:05:37.384,-31.3126,-64.6252
14:05:37.395,-24.8126,-50.7502
14:05:37.404,-19.5001,-35.8751
14:05:37.414,-15.2501,-23.7501
14:05:37.425,-10.0625,-12.1875
14:05:37.435,-7.4375,-4.3125
14:05:37.445,-4.1875,0.75
14:05:37.454,-2.9375,5.5
14:05:37.464,-2.1875,6.3125
14:05:37.474,-2.125,7.8125
14:05:37.485,-1.75,8.5625
14:05:37.495,-2,8
14:05:37.504,-1.75,6.75
14:05:37.515,-1.625,6.625
14:05:37.524,-2.25,7.0625
14:05:37.535,-1.5,6.0625
14:05:37.546,-0.25,5.75
14:05:37.555,-1.9375,4.75
14:05:37.564,-1.875,3.5
14:05:37.575,-2,2.375
14:05:37.584,-2.875,1.3125
14:05:37.598,-3.875,-1
14:05:37.607,-4.4375,-3.9375
14:05:37.614,-4.875,-4.5
14:05:37.625,-4.8125,-5.9375
14:05:37.634,-4.4375,-5.6875
14:05:37.646,-5,-5.3125
14:05:37.654,-4.125,-6.25
14:05:37.665,-3.9375,-6.25
14:05:37.675,-4.25,-5.4375
14:05:37.702,-3.25,-5.8125
14:05:37.704,-3.9375,-6.75
14:05:37.730,-4.0625,-6.75
14:05:37.732,-4.875,-8.125
14:05:37.734,-4.4375,-8.4375
14:05:37.740,-5,-9.25
14:05:37.767,-4.5,-10.25
14:05:37.769,-5.75,-12.75
14:05:37.771,-6.6875,-14.9376
14:05:37.786,-6.5,-16.3126
14:05:37.790,-8.625,-18.8751
14:05:37.824,-9.125,-22.0626
14:05:37.827,-10.5625,-24.4376
14:05:37.828,-11.375,-27.1251
14:05:37.831,-12.75,-28.1876
14:05:37.882,-12.75,-31.5001
14:05:37.884,-12.75,-32.9376
14:05:37.898,-14.1251,-35.3126
14:05:37.901,-14.5001,-37.3751
14:05:37.914,-14.8751,-38.8751
14:05:37.915,-16.6251,-39.5627
14:05:37.915,-17.3751,-42.6877
14:05:37.931,-17.5626,-44.0002
14:05:37.933,-18.1251,-45.0002
14:05:37.934,-18.1876,-47.0627
14:05:37.940,-18.5626,-47.7502
14:05:37.951,-19.6251,-48.2502
14:05:37.959,-20.5001,-51.6252
14:05:37.975,-20.7501,-52.4377
14:05:37.981,-21.6251,-54.2502
14:05:37.990,-21.7501,-55.8127
14:05:38.000,-21.8126,-56.1252
14:05:38.010,-22.1876,-56.0627
14:05:38.020,-21.1876,-53.2502
14:05:38.031,-18.3126,-47.7502
14:05:38.040,-13.6876,-38.0001
14:05:38.049,-7.8125,-24.8751
14:05:38.061,-1.8125,-10
14:05:38.069,3.125,3.3125
14:05:38.080,7.375,14.4376
14:05:38.091,10,23.0626
14:05:38.100,12.5625,29.1251
14:05:38.111,13.8751,32.1876
14:05:38.120,15.0001,34.3126
14:05:38.130,14.9376,35.1876
14:05:38.141,14.9376,33.6251
14:05:38.155,13.6251,34.6251
14:05:38.163,13.7501,32.5626
14:05:38.169,13.6251,32.5626
14:05:38.185,12.625,31.1251
14:05:38.194,12.3125,30.4376
14:05:38.200,11.9375,30.5001
14:05:38.210,12.5625,28.5001
14:05:38.221,11.375,28.2501
14:05:38.230,10.75,25.3126
14:05:38.241,9.5,22.4376
14:05:38.251,9.125,21.6876
14:05:38.259,7.9375,18.7501
14:05:38.270,7.5625,16.8751
14:05:38.280,7.25,15.1251
14:05:38.291,6.1875,14.8126
14:05:38.300,6,13.3126
14:05:38.310,6.5,12.25
14:05:38.319,6.75,12.0625
14:05:38.331,5.75,11.875
14:05:38.341,5.3125,11.5625
14:05:38.351,4.75,11.8125
14:05:38.361,5.0625,10.375
14:05:38.370,4.625,10.1875
14:05:38.381,4.4375,8.875
14:05:38.391,4.3125,7.8125
14:05:38.422,2.375,5.5625
14:05:38.424,2.125,3
14:05:38.426,1.1875,1.1875
14:05:38.430,-0.25,-2.1875
14:05:38.459,-1.25,-4.6875
14:05:38.462,-2.6875,-7.875
14:05:38.464,-4.0625,-9.3125
14:05:38.471,-4.8125,-13
14:05:38.500,-5.875,-14.9376
14:05:38.503,-6.4375,-18.3126
14:05:38.504,-8,-20.7501
14:05:38.530,-8.1875,-22.8751
14:05:38.533,-9.1875,-25.0001
14:05:38.535,-10.1875,-26.3126
14:05:38.539,-11.1875,-28.9376
14:05:38.570,-11.5625,-30.6251
14:05:38.572,-12.5,-31.4376
14:05:38.574,-13.4376,-34.8751
14:05:38.582,-13.3751,-34.8126
14:05:38.591,-14.1876,-37.3751
14:05:38.600,-14.4376,-38.7501
14:05:38.611,-15.4376,-40.0627
14:05:38.621,-16.2501,-42.2502
14:05:38.631,-16.8751,-44.8127
14:05:38.640,-17.2501,-46.1252
14:05:38.651,-17.7501,-48.3127
14:05:38.660,-18.1251,-48.1252
14:05:38.670,-19.0626,-49.3127
14:05:38.681,-18.5001,-49.3752
14:05:38.690,-16.8126,-46.1252
14:05:38.701,-13.5001,-39.8752
14:05:38.710,-9.375,-30.0001
14:05:38.727,-3.5,-16.1876
14:05:38.731,2.8125,-1
14:05:38.740,7.8125,13.6876
14:05:38.750,11.5625,23.3751
14:05:38.760,14.5626,31.6251
14:05:38.771,16.3126,36.5626
14:05:38.780,17.6251,39.5002
14:05:38.790,18.5001,41.8127
14:05:38.801,18.3126,41.1252
14:05:38.810,17.4376,39.8127
14:05:38.820,17.6251,39.4377
14:05:38.830,16.4376,37.6876
14:05:38.840,15.7501,36.0626
14:05:38.850,15.6251,33.9376
14:05:38.861,14.8126,33.9376
14:05:38.870,14.3751,32.8126
14:05:38.881,13.9376,30.6876
14:05:38.891,13.1876,29.0001
14:05:38.900,11.875,28.1251
14:05:38.910,11.5625,25.5001
14:05:38.920,10.0625,21.4376
14:05:38.930,8.6875,19.4376
14:05:38.941,8.25,17.2501
14:05:38.954,7,15.4376
14:05:38.961,6.5625,14.4376
14:05:38.971,5.875,11.75
14:05:38.981,6.4375,11.4375
14:05:38.991,6.375,11.25
14:05:39.001,5.9375,10.8125
14:05:39.010,5.75,11.25
14:05:39.021,5.875,10
14:05:39.030,4.75,9.8125
14:05:39.041,4.8125,8.875
14:05:39.050,4,6.875
14:05:39.060,3.3125,5.6875
14:05:39.089,2.0625,2.375
14:05:39.092,0.9375,0.9375
14:05:39.094,0.5,-1.5
14:05:39.101,-1.25,-3.75
14:05:39.131,-1.75,-7.6875
14:05:39.134,-3.9375,-10
14:05:39.136,-4.875,-12.6875
14:05:39.162,-5.8125,-16.7501
14:05:39.163,-7.3125,-18.9376
14:05:39.166,-8.4375,-21.3751
14:05:39.171,-9.25,-25.1251
14:05:39.211,-10.3125,-27.2501
14:05:39.279,-10.625,-29.3751
14:05:39.279,-12.25,-31.8751
14:05:39.279,-12.75,-33.1251
14:05:39.280,-13.2501,-34.4376
14:05:39.287,-14.2501,-36.3126
14:05:39.287,-15.0001,-38.5626
14:05:39.287,-15.3126,-40.8752
14:05:39.295,-16.0001,-41.8752
14:05:39.307,-16.5626,-42.5002
14:05:39.316,-17.5001,-44.8127
14:05:39.325,-18.6876,-45.5627
14:05:39.335,-18.5626,-48.9377
14:05:39.346,-18.8751,-49.6877
14:05:39.355,-20.2501,-51.0002
14:05:39.365,-20.1876,-53.0002
14:05:39.376,-21.0626,-54.0627
14:05:39.385,-20.5626,-54.1877
14:05:39.395,-19.0626,-51.1252
14:05:39.406,-16.6876,-46.5627
14:05:39.415,-13.6251,-37.8126
14:05:39.425,-7.125,-24.8126
14:05:39.436,-1.5625,-10.5
14:05:39.445,4.625,4.8125
14:05:39.456,18.5626,43.1877
14:05:39.471,19.1251,44.6877
14:05:39.481,19.1251,44.5627
14:05:39.486,19.3126,43.3127
14:05:39.503,18.1876,41.5627
14:05:39.506,17.1876,40.2502
14:05:39.520,16.4376,38.8126
14:05:39.525,16.0626,36.3126
14:05:39.535,15.0626,34.6251
14:05:39.546,14.9376,33.7501
14:05:39.556,14.1876,31.8126
14:05:39.565,13.6876,30.7501
14:05:39.576,12.25,27.6876
14:05:39.585,11.8125,25.6876
14:05:39.595,10.8125,22.0626
14:05:39.606,9.875,20.4376
14:05:39.615,9.25,18.8751
14:05:39.632,8.8125,16.8126
14:05:39.635,8.3125,15.6251
14:05:39.646,7.3125,15.5001
14:05:39.655,8.1875,14.3751
14:05:39.665,8.0625,14.0001
14:05:39.676,8.875,14.7501
14:05:39.686,7.25,14.4376
14:05:39.697,5.75,13.8126
14:05:39.705,5.875,13.6876
14:05:39.715,5.6875,11.5625
14:05:39.725,4.8125,10.8125
14:05:39.735,4.1875,8.1875
14:05:39.746,2.8125,6.75
14:05:39.755,1.6875,3.3125
14:05:39.766,0.5625,1.3125
14:05:39.775,-0.75,-2.1875
14:05:39.785,-2.125,-5.5625
14:05:39.796,-2.625,-7.375
14:05:39.805,-3.8125,-11.125
14:05:39.815,-5.375,-13.5626
14:05:39.826,-6,-16.5001
14:05:39.835,-6.6875,-18.6876
14:05:39.845,-8.375,-20.3126
14:05:39.855,-9.3125,-24.0001
14:05:39.890,-10,-26.1876
14:05:39.892,-11.1875,-27.6876
14:05:39.894,-12.5625,-30.1876
14:05:39.897,-13.1876,-31.3126
14:05:39.931,-14.1251,-33.5626
14:05:39.933,-14.8126,-35.0001
14:05:39.936,-15.8126,-36.5626
14:05:39.939,-15.7501,-38.5001
14:05:39.971,-16.6251,-40.6252
14:05:39.975,-16.9376,-41.7502
14:05:39.975,-18.0626,-41.6877
14:05:39.978,-18.2501,-45.2502
14:05:40.011,-18.5626,-46.7502
14:05:40.012,-19.2501,-47.0002
14:05:40.015,-20.0626,-49.3127
14:05:40.041,-19.6876,-50.1252
14:05:40.041,-20.0626,-49.1877
14:05:40.045,-19.0626,-48.2502
14:05:40.049,-15.1251,-41.2502
14:05:40.057,-11.625,-31.8126
14:05:40.067,-4.5625,-18.2501
14:05:40.075,0.9375,-3
14:05:40.085,6.9375,12.8125
14:05:40.095,11.625,26.3751
14:05:40.105,14.8126,34.8126
14:05:40.116,17.2501,40.3752
14:05:40.126,18.8751,45.4377
14:05:40.136,20.4376,46.5627
14:05:40.145,18.9376,48.0002
14:05:40.155,19.2501,45.3752
14:05:40.165,18.8751,45.6252
14:05:40.175,18.5626,41.8127
14:05:40.185,17.8126,40.6252
14:05:40.195,16.5001,39.6877
14:05:40.207,16.1876,37.8126
14:05:40.215,16.1251,36.4376
14:05:40.225,15.0001,35.1876
14:05:40.236,14.5626,32.3126
14:05:40.245,13.2501,31.5001
14:05:40.255,12.9375,27.9376
14:05:40.265,11.25,25.9376
14:05:40.276,10.125,22.1251
14:05:40.286,9.3125,20.5626
14:05:40.295,8.6875,19.0001
14:05:40.305,8.4375,17.0001
14:05:40.315,7.5625,17.0626
14:05:40.325,8.1875,15.7501
14:05:40.335,7.25,14.8126
14:05:40.345,7,15.1251
14:05:40.355,7,15.0001
14:05:40.366,7.3125,14.1876
14:05:40.375,6.6875,13
14:05:40.387,6.375,12
14:05:40.396,5.1875,13.0625
14:05:40.405,4.9375,8.75
14:05:40.436,4,6.125
14:05:40.436,2.9375,3.5
14:05:40.438,1.5,2.8125
14:05:40.447,0.875,-1.4375
14:05:40.457,-0.25,-5
14:05:40.466,-1.8125,-7.6875
14:05:40.475,-3.3125,-10.875
14:05:40.485,-4.0625,-13.8126
14:05:40.495,-5.25,-17.0001
14:05:40.506,-6.1875,-19.8751
14:05:40.515,-7.8125,-22.0001
14:05:40.537,-8.75,-24.3126
14:05:40.566,-9.125,-26.6876
14:05:40.569,-9.625,-29.3751
14:05:40.597,-10.6875,-31.4376
14:05:40.631,-11.625,-33.0626
14:05:40.631,-12.1875,-34.6876
14:05:40.631,-12.875,-37.0001
14:05:40.633,-13.5001,-38.6251
14:05:40.635,-14.3126,-39.1251
14:05:40.641,-14.8126,-41.6877
14:05:40.641,-15.0001,-42.5002
14:05:40.646,-16.1876,-44.5002
14:05:40.682,-16.1876,-45.5002
14:05:40.683,-16.7501,-47.2502
14:05:40.686,-17.5001,-49.4377
14:05:40.688,-18.0626,-50.6877
14:05:40.718,-18.6251,-51.1877
14:05:40.721,-19.2501,-52.1252
14:05:40.723,-18.8126,-51.8752
14:05:40.730,-17.5001,-47.6252
14:05:40.736,-13.2501,-39.8752
14:05:40.745,-8.3125,-28.6251
14:05:40.755,-2.5,-15.0001
14:05:40.765,9.625,17.3126
14:05:40.776,15.2501,29.7501
14:05:40.791,17.1876,38.5001
14:05:40.798,19.8751,43.7502
14:05:40.805,20.2501,46.2502
14:05:40.823,20.8126,46.6252
14:05:40.838,20.2501,47.5002
14:05:40.840,19.9376,45.4377
14:05:40.845,20.0001,45.4377
14:05:40.855,19.0001,42.5002
14:05:40.865,18.3751,40.6877
14:05:40.875,17.5001,39.8752
14:05:40.885,17.0001,38.3751
14:05:40.895,16.6876,36.6251
14:05:40.905,16.0626,36.2501
14:05:40.915,15.0626,34.1876
14:05:40.925,13.9376,30.6251
14:05:40.935,13,27.6876
14:05:40.945,12.5,25.3126
14:05:40.955,11.3125,22.5626
14:05:40.965,10.5,20.1876
14:05:40.975,10.3125,19.0001
14:05:40.985,9.375,17.8126
14:05:40.997,8.5625,16.5001
14:05:41.006,9,15.2501
14:05:41.015,8.5625,15.7501
14:05:41.025,7.6875,14.8751
14:05:41.036,7.625,13.1876
14:05:41.047,7.5625,13.2501
14:05:41.056,7.4375,11.375
14:05:41.065,6.6875,11.5
14:05:41.075,6,8.625
14:05:41.085,5.1875,8.125
14:05:41.095,4,5
14:05:41.105,3.25,3.75
14:05:41.115,1.8125,0.5625
14:05:41.126,1.25,-3.0625
14:05:41.135,0.125,-6.1875
14:05:41.145,-1.75,-8.0625
14:05:41.157,-2.0625,-11.5625
14:05:41.166,-5.25,-16.3751
14:05:41.181,-6.5,-18.8751
14:05:41.197,-7,-22.1251
14:05:41.202,-8.6875,-25.1876
14:05:41.211,-9.875,-26.6876
14:05:41.221,-10.9375,-30.5626
14:05:41.232,-12.375,-30.9376
14:05:41.241,-12.0625,-33.9376
14:05:41.252,-13.4376,-36.5001
14:05:41.261,-14.4376,-37.2501
14:05:41.271,-14.3751,-39.2502
14:05:41.299,-16.1251,-41.8752
14:05:41.302,-17.2501,-42.1252
14:05:41.305,-16.8751,-44.9377
14:05:41.311,-18.0001,-45.6877
14:05:41.348,-18.8126,-47.1252
14:05:41.351,-19.3126,-48.6877
14:05:41.353,-19.6876,-51.2502
14:05:41.356,-21.0626,-52.6252
14:05:41.362,-21.3126,-54.8127
14:05:41.388,-22.5626,-55.8752
14:05:41.391,-22.2501,-57.0002
14:05:41.395,-22.7501,-55.4377
14:05:41.424,-21.0626,-53.5002
14:05:41.426,-17.3751,-45.4377
14:05:41.428,-11.6875,-34.3126
14:05:41.433,-6.25,-19.1251
14:05:41.461,0.75,-3.9375
14:05:41.464,6.4375,13.3751
14:05:41.466,11.6875,26.0001
14:05:41.472,14.5001,34.8751
14:05:41.482,16.8751,41.3752
14:05:41.491,18.1876,43.4377
14:05:41.502,19.0626,46.4377
14:05:41.512,18.8751,45.1877
14:05:41.522,18.2501,44.3752
14:05:41.531,18.1876,43.0627
14:05:41.542,17.0626,41.6877
14:05:41.552,16.7501,39.3752
14:05:41.562,15.5626,39.0001
14:05:41.572,15.7501,35.8126
14:05:41.582,15.3126,35.4376
14:05:41.590,14.0626,33.4376
14:05:41.601,13.8751,31.8751
14:05:41.611,13.2501,29.4376
14:05:41.621,12.875,26.7501
14:05:41.631,11.0625,23.8126
14:05:41.640,10,21.0001
14:05:41.651,9.5,18.3751
14:05:41.661,7.5,16.8751
14:05:41.671,7.375,14.2501
14:05:41.681,6.625,13.6876
14:05:41.714,6.75,12.0625
14:05:41.716,6.3125,12.6875
14:05:41.720,7.3125,11.625
14:05:41.723,6.3125,12.375
14:05:41.732,6.25,11.0625
14:05:41.742,6.125,9.3125
14:05:41.757,5,9
14:05:41.767,4.5,6.8125
14:05:41.775,4,5.5625
14:05:41.786,2.5625,2.25
14:05:41.797,2.3125,0.9375
14:05:41.805,0.375,-2.9375
14:05:41.815,-0.5,-5.75
14:05:41.827,-1.8125,-8.5625
14:05:41.835,-3.25,-12.25
14:05:41.847,-4.1875,-14.9376
14:05:41.856,-6.4375,-17.3751
14:05:41.878,-7.3125,-20.6876
14:05:41.881,-8.125,-24.0626
14:05:41.890,-9.4375,-25.6251
14:05:41.897,-10.25,-29.0001
14:05:41.917,-11.6875,-31.3751
14:05:41.923,-12.5625,-33.5001
14:05:41.930,-12.875,-36.2501
14:05:41.937,-13.125,-36.7501
14:05:41.947,-14.0626,-39.2502
14:05:41.955,-15.3126,-41.0627
14:05:41.967,-15.8126,-43.0627
14:05:41.977,-16.8751,-43.5002
14:05:41.986,-17.1876,-46.1877
14:05:41.997,-17.9376,-47.1252
14:05:42.007,-18.6876,-49.1877
14:05:42.017,-19.1876,-48.7502
14:05:42.027,-19.6876,-51.3752
14:05:42.037,-20.4376,-53.3127
14:05:42.047,-20.2501,-53.6877
14:05:42.056,-20.3751,-54.4377
14:05:42.067,-19.5001,-52.8752
14:05:42.077,-17.2501,-48.4377
14:05:42.092,-13.6251,-38.5001
14:05:42.125,-7.9375,-27.0001
14:05:42.129,-2.1875,-12.5
14:05:42.202,4.6875,3.9375
14:05:42.202,10.4375,19.5001
14:05:42.214,15.1876,31.6251
14:05:42.216,18.0626,40.7502
14:05:42.219,20.0001,45.3127
14:05:42.219,21.1876,48.1877
14:05:42.219,20.8126,48.6877
14:05:42.250,20.0001,48.5002
14:05:42.253,19.9376,46.5627
14:05:42.254,18.8751,44.8752
14:05:42.257,18.7501,42.4377
14:05:42.269,17.5626,40.5002
14:05:42.277,16.5626,38.7501
14:05:42.287,15.6251,35.4376
14:05:42.297,14.1876,34.8126
14:05:42.308,14.4376,32.0626
14:05:42.322,12.9375,29.5001
14:05:42.327,11.5,26.6876
14:05:42.337,10.375,24.6876
14:05:42.347,9.75,22.9376
14:05:42.357,9.0625,19.5626
14:05:42.367,8.125,17.5001
14:05:42.377,7.5625,15.8126
14:05:42.387,7.9375,15.1251
14:05:42.397,7.375,15.0626
14:05:42.406,7.625,13.3751
14:05:42.417,6.8125,13.4376
14:05:42.427,6.6875,11.5625
14:05:42.437,5.75,10.0625
14:05:42.447,4.3125,8.4375
14:05:42.457,4.5,5.25
14:05:42.467,2.75,3.625
14:05:42.477,2.1875,-0.8125
14:05:42.486,0.9375,-3.6875
14:05:42.497,-0.1875,-5.75
14:05:42.507,-1.6875,-9.875
14:05:42.517,-2.9375,-12.6875
14:05:42.527,-3.5625,-15.3126
14:05:42.537,-5.5625,-18.6251
14:05:42.547,-5.6875,-20.5626
14:05:42.557,-7.1875,-23.1251
14:05:42.567,-7.5,-25.1876
14:05:42.577,-8.3125,-27.9376
14:05:42.587,-9.4375,-29.5626
14:05:42.597,-10.0625,-31.1251
14:05:42.607,-10.5625,-33.4376
14:05:42.617,-10.9375,-34.3126
14:05:42.627,-11.375,-36.3751
14:05:42.637,-12.875,-38.3126
14:05:42.647,-12.4375,-39.5627
14:05:42.657,-14.0626,-41.5002
14:05:42.667,-13.3126,-42.8127
14:05:42.677,-15.8126,-44.2502
14:05:42.687,-15.6876,-45.8752
14:05:42.696,-16.6251,-46.8127
14:05:42.707,-16.5001,-48.7502
14:05:42.717,-16.5001,-48.0002
14:05:42.727,-16.2501,-47.9377
14:05:42.737,-14.0001,-43.0627
14:05:42.747,-10.8125,-35.7501
14:05:42.757,-4.8125,-23.3126
14:05:42.789,1.4375,-9.5
14:05:42.791,7.8125,6.5625
14:05:42.794,13.9376,24.0001
14:05:42.797,17.8126,35.6876
14:05:42.829,20.6251,43.6877
14:05:42.830,23.0626,49.3752
14:05:42.832,23.8126,53.1252
14:05:42.840,24.4376,54.3752
14:05:42.865,24.6876,52.9377
14:05:42.869,23.6876,51.6252
14:05:42.870,23.0626,50.0002
14:05:42.879,22.2501,46.6252
14:05:42.913,21.5001,45.0002
14:05:42.915,20.0626,42.5002
14:05:42.918,19.1251,41.3127
14:05:42.920,19.2501,39.7502
14:05:42.943,18.2501,37.0001
14:05:42.946,16.6876,35.3751
14:05:42.949,15.7501,32.2501
14:05:42.957,15.1251,29.5626
14:05:42.967,13.6251,26.5001
14:05:42.995,12.4375,24.1876
14:05:42.999,11.25,21.3751
14:05:43.001,10.375,19.5001
14:05:43.007,10.25,18.6876
14:05:43.017,9.375,17.9376
14:05:43.027,9.875,17.4376
14:05:43.038,9,17.0001
14:05:43.047,8.875,17.0626
14:05:43.061,8.6875,16.9376
14:05:43.073,8.75,15.3126
14:05:43.077,8.125,14.3751
14:05:43.087,7.875,12.875
14:05:43.097,7.375,12.25
14:05:43.107,6.8125,10.375
14:05:43.118,5,7.375
14:05:43.127,4.125,3.75
14:05:43.137,2.3125,1.0625
14:05:43.148,0.375,-2.25
14:05:43.157,-0.375,-5.3125
14:05:43.167,-1.9375,-10.0625
14:05:43.177,-2.875,-13.4376
14:05:43.187,-5.25,-16.8126
14:05:43.208,-6,-18.8126
14:05:43.214,-7.0625,-22.2501
14:05:43.217,-7.875,-24.9376
14:05:43.231,-8.5625,-27.8126
14:05:43.237,-9.4375,-29.2501
14:05:43.248,-10.5,-30.8751
14:05:43.258,-10.625,-32.4376
14:05:43.267,-10.875,-34.0001
14:05:43.277,-11.6875,-35.2501
14:05:43.287,-13.3126,-37.0626
14:05:43.297,-14.1251,-38.6876
14:05:43.307,-14.6876,-40.0002
14:05:43.317,-15.8751,-42.3127
14:05:43.327,-16.1251,-44.5627
14:05:43.337,-16.8126,-44.7502
14:05:43.347,-17.7501,-47.8752
14:05:43.357,-17.7501,-48.1252
14:05:43.367,-18.3126,-49.9377
14:05:43.377,-18.8126,-50.3127
14:05:43.387,-19.1251,-51.7502
14:05:43.397,-17.6876,-48.5627
14:05:43.407,-15.3126,-41.6877
14:05:43.417,-10.1875,-33.1876
14:05:43.426,-4.125,-19.8751
14:05:43.437,1.375,-4.375
14:05:43.447,8.5,12.3125
14:05:43.457,13.8126,28.1251
14:05:43.467,18.7501,38.8751
14:05:43.523,21.1251,46.6877
14:05:43.525,22.8126,50.8127
14:05:43.527,23.4376,53.8752
14:05:43.534,23.2501,53.8752
14:05:43.535,23.1876,52.7502
14:05:43.535,22.7501,51.6877
14:05:43.563,21.5001,49.4377
14:05:43.566,20.5626,46.8752
14:05:43.568,20.0001,45.6877
14:05:43.574,19.6876,43.7502
14:05:43.610,18.4376,41.5627
14:05:43.614,17.8751,39.9377
14:05:43.615,17.9376,38.8126
14:05:43.617,16.1876,36.0001
14:05:43.623,15.3751,33.1876
14:05:43.654,13.7501,31.0001
14:05:43.655,13.0625,27.8126
14:05:43.658,11.25,23.8751
14:05:43.664,10.625,22.0001
14:05:43.672,10,20.7501
14:05:43.682,9.0625,18.9376
14:05:43.692,9.0625,17.1251
14:05:43.702,8.75,16.9376
14:05:43.712,8.375,16.8751
14:05:43.722,8.3125,15.8126
14:05:43.732,7.5625,16.3751
14:05:43.742,7.375,14.5626
14:05:43.752,6.5,12.625
14:05:43.762,6.0625,10.9375
14:05:43.772,5.25,8.875
14:05:43.782,3.6875,6.625
14:05:43.792,2.875,3.4375
14:05:43.802,1.1875,0.4375
14:05:43.812,-0.1875,-1.625
14:05:43.825,-0.6875,-5.625
14:05:43.832,-2.75,-7.875
14:05:43.842,-3.375,-12.6875
14:05:43.851,-5.6875,-15.1876
14:05:43.862,-6.125,-18.5001
14:05:43.872,-7.5625,-20.8751
14:05:43.881,-7.875,-24.1251
14:05:43.892,-9.4375,-25.3751
14:05:43.902,-10.5,-29.1876
14:05:43.912,-11.75,-30.8126
14:05:43.921,-12.25,-33.1876
14:05:43.932,-13.5626,-33.8126
14:05:43.942,-13.5001,-36.4376
14:05:43.952,-14.1876,-37.5626
14:05:43.962,-14.8126,-38.9376
14:05:43.972,-15.5001,-39.7502
14:05:43.982,-15.6876,-42.3127
14:05:43.992,-17.0626,-43.2502
14:05:44.002,-17.8126,-45.0002
14:05:44.012,-17.7501,-46.8752
14:05:44.022,-18.6251,-47.3752
14:05:44.031,-19.4376,-50.1877
14:05:44.042,-19.3126,-50.7502
14:05:44.052,-18.6876,-49.5627
14:05:44.062,-17.5001,-47.5002
14:05:44.072,-14.5626,-40.6877
14:05:44.082,-9.9375,-29.5626
14:05:44.092,-3.875,-17.1251
14:05:44.102,2.875,-0.875
14:05:44.112,8.75,17.2501
14:05:44.123,15.1876,30.4376
14:05:44.132,18.0626,41.6252
14:05:44.142,20.6251,45.9377
14:05:44.152,21.6251,49.6252
14:05:44.162,21.5001,51.6252
14:05:44.172,21.4376,50.9377
14:05:44.203,20.8751,50.7502
14:05:44.207,20.3751,48.5002
14:05:44.208,19.5626,46.5002
14:05:44.215,18.1251,45.8127
14:05:44.252,17.6876,42.5002
14:05:44.254,16.9376,40.6252
14:05:44.255,15.9376,38.7501
14:05:44.282,15.2501,37.0001
14:05:44.287,14.4376,35.6876
14:05:44.288,13.3126,31.9376
14:05:44.288,12.375,30.7501
14:05:44.292,11.1875,27.1876
14:05:44.328,10.3125,25.8126
14:05:44.331,9.5,22.6251
14:05:44.333,9.5625,21.3751
14:05:44.336,8.125,19.8126
14:05:44.365,7.75,18.7501
14:05:44.368,8.3125,18.2501
14:05:44.370,7.9375,18.8751
14:05:44.375,8.5625,18.1876
14:05:44.383,7.5,17.6251
14:05:44.393,7.75,19.0001
14:05:44.402,6.6875,17.5001
14:05:44.412,6.5625,15.8751
14:05:44.422,6.625,14.0626
14:05:44.431,5.1875,12
14:05:44.442,4.1875,9.9375
14:05:44.452,2.9375,8
14:05:44.462,2.5,6.0625
14:05:44.473,1.8125,3.125
14:05:44.482,1.125,-0.625
14:05:44.492,-0.75,-2.875
14:05:44.509,-0.9375,-5.4375
14:05:44.528,-2,-8.6875
14:05:44.528,-3.4375,-11.625
14:05:44.532,-4.625,-13.5626
14:05:44.542,-5.3125,-16.3751
14:05:44.552,-8,-18.5626
14:05:44.563,-8.875,-21.5001
14:05:44.572,-9.5,-24.7501
14:05:44.582,-11.1875,-26.7501
14:05:44.592,-12.9375,-28.0626
14:05:44.603,-13.4376,-29.7501
14:05:44.612,-15.9376,-32.4376
14:05:44.622,-17.9376,-32.1251
14:05:44.633,-19.6251,-34.7501
14:05:44.643,-22.8751,-37.2501
14:05:44.653,-23.9376,-38.4376
14:05:44.663,-26.0626,-40.3127
14:05:44.672,-27.6876,-40.5627
14:05:44.683,-29.6876,-40.9377
14:05:44.692,-32.5001,-42.3752
14:05:44.702,-35.1876,-42.1877
14:05:44.713,-37.8126,-38.5001
14:05:44.723,-38.6251,-32.0001
14:05:44.732,-37.5626,-23.0626
14:05:44.742,-34.5626,-7.75
14:05:44.754,-32.5626,4.9375
14:05:44.761,-31.5626,19.3126
14:05:44.779,-29.9376,29.0001
14:05:44.794,-32.0001,36.7501
14:05:44.795,-32.4376,41.9377
14:05:44.803,-29.5626,48.0002
14:05:44.812,-28.2501,53.7502
14:05:44.823,-27.3751,55.0002
14:05:44.833,-25.8126,55.5002
14:05:44.842,-25.0626,56.4377
14:05:44.852,-22.8126,56.4377
14:05:44.862,-21.0626,57.4377
14:05:44.873,-20.9376,58.9377
14:05:44.884,-19.8751,57.8752
14:05:44.892,-19.0626,57.3752
14:05:44.902,-17.4376,59.2502
14:05:44.911,-17.0001,57.3752
14:05:44.921,-16.6876,57.5002
14:05:44.934,-15.4376,55.0627
14:05:44.943,-14.3126,54.5627
14:05:44.962,-12.0625,54.0002
14:05:44.965,-10.125,54.0002
14:05:44.992,-7.4375,54.6252
14:05:44.995,-3.875,56.2502
14:05:44.998,0.375,59.0002
14:05:45.003,4.8125,62.7502
14:05:45.039,10,66.0003
14:05:45.052,16.8751,72.4378
14:05:45.052,23.0001,76.6878
14:05:45.052,28.8751,82.0003
14:05:45.055,35.8126,84.8753
14:05:45.090,43.5002,90.4378
14:05:45.091,51.4377,93.6254
14:05:45.093,59.6252,98.7504
14:05:45.095,67.1253,101.8754
14:05:45.131,77.1878,109.5629
14:05:45.135,88.2503,115.6254
14:05:45.136,98.5004,122.188
14:05:45.140,107.6879,126.688
14:05:45.146,115.1879,130.8755
14:05:45.154,119.0005,131.1255
14:05:45.166,119.938,130.2505
14:05:45.172,119.0005,127.313
14:05:45.183,116.6879,121.5005
14:05:45.193,111.0004,113.8754
14:05:45.203,106.3129,107.9379
14:05:45.213,104.1879,102.1879
14:05:45.223,100.0629,95.6879
14:05:45.233,97.5004,89.5628
14:05:45.243,95.3129,84.2503
14:05:45.253,93.5004,80.2503
14:05:45.263,92.7504,75.0003
14:05:45.273,89.8753,70.7503
14:05:45.283,89.0003,66.6878
14:05:45.293,89.4378,63.0002
14:05:45.302,91.1254,61.6877
14:05:45.313,95.3754,61.6252
14:05:45.322,99.9379,63.8127
14:05:45.332,105.8129,65.6877
14:05:45.343,114.4379,70.8128
14:05:45.352,124.313,80.2503
14:05:45.363,135.3755,90.4378
14:05:45.373,147.0631,107.0629
14:05:45.383,160.9381,125.6255
14:05:45.393,173.0007,145.6255
14:05:45.403,185.1882,162.8131
14:05:45.413,194.8757,180.1882
14:05:45.422,203.8133,194.5007
14:05:45.433,210.5633,206.1883
14:05:45.442,213.9383,213.3758
14:05:45.453,214.8133,215.1883
14:05:45.463,213.7508,215.6883
14:05:45.473,211.5633,212.2508
14:05:45.482,208.6883,208.8133
14:05:45.493,203.5633,204.0633
14:05:45.503,196.0007,197.8758
14:05:45.513,189.5007,190.1882
14:05:45.524,180.8757,184.1257
14:05:45.553,174.3757,177.0632
14:05:45.556,166.8756,169.3131
14:05:45.558,158.2506,161.8756
14:05:45.566,149.1256,152.0006
14:05:45.574,138.563,142.688
14:05:45.583,130.188,133.563
14:05:45.593,121.6255,123.438
14:05:45.603,111.8754,114.0629
14:05:45.615,104.2504,106.4379
14:05:45.623,97.7504,100.4379
14:05:45.633,93.6879,95.6254
14:05:45.672,91.5629,93.3754
14:05:45.675,90.0628,91.0004
14:05:45.677,88.0003,90.0628
14:05:45.681,87.3128,88.1878
14:05:45.683,86.1253,86.7503
14:05:45.718,86.2503,85.6253
14:05:45.721,86.4378,85.1253
14:05:45.723,85.6878,83.9378
14:05:45.729,85.6878,81.8128
14:05:45.732,85.2503,80.6253
14:05:45.763,85.0003,79.2503
14:05:45.770,82.6878,75.1878
14:05:45.773,79.4378,70.6253
14:05:45.775,76.8128,67.0003
14:05:45.806,74.8128,63.3752
14:05:45.808,75.5003,60.9377
14:05:45.826,75.9378,60.1252
14:05:45.830,77.2503,58.4377
14:05:45.833,77.2503,58.0002
14:05:45.839,77.3753,56.3127
14:05:45.848,76.8753,53.8752
14:05:45.860,77.0628,51.4377
14:05:45.868,75.6253,49.7502
14:05:45.878,73.0628,45.2502
14:05:45.888,70.6253,42.5627
14:05:45.898,67.3753,39.4377
14:05:45.908,63.3752,35.8751
14:05:45.918,58.6252,31.6251
14:05:45.928,53.1252,26.8126
14:05:45.939,47.8752,22.0626
14:05:45.949,43.0002,17.2501
14:05:45.958,38.0626,13.6251
14:05:45.968,33.0001,9.6875
14:05:45.978,31.2501,6.375
14:05:45.989,30.6876,6.125
14:05:45.998,29.9376,6.125
14:05:46.008,30.7501,10.1875
14:05:46.018,34.6251,17.6251
14:05:46.029,38.6876,28.2501
14:05:46.040,44.8752,42.1252
14:05:46.048,50.6877,57.9377
14:05:46.058,56.2502,72.2503
14:05:46.070,60.5627,83.4378
14:05:46.083,63.6877,92.0004
14:05:46.098,65.4377,97.8754
14:05:46.100,65.5628,100.8129
14:05:46.108,65.2503,100.8129
14:05:46.118,63.5002,100.2504
14:05:46.130,61.4377,99.3754
14:05:46.138,59.2502,96.1879
14:05:46.148,57.0002,94.7504
14:05:46.158,53.8752,91.6254
14:05:46.168,52.1252,89.1253
14:05:46.178,49.3127,86.9378
14:05:46.188,46.8127,84.1878
14:05:46.198,44.6252,80.2503
14:05:46.208,41.9377,76.8753
14:05:46.219,39.5627,72.8753
14:05:46.230,37.5626,69.0628
14:05:46.238,35.6251,64.5627
14:05:46.248,33.6251,60.8752
14:05:46.258,31.7501,57.7502
14:05:46.268,30.2501,54.3127
14:05:46.278,28.6876,50.6877
14:05:46.288,26.6876,48.2502
14:05:46.299,26.8126,46.2502
14:05:46.309,25.8751,45.0627
14:05:46.324,26.1876,43.3752
14:05:46.329,24.9376,41.0627
14:05:46.338,23.0626,38.5001
14:05:46.348,21.8126,34.5626
14:05:46.358,19.5001,31.3126
14:05:46.368,18.8126,28.1876
14:05:46.400,17.3751,24.0626
14:05:46.402,15.5626,20.1251
14:05:46.404,12.4375,14.6251
14:05:46.409,10.75,10.5625
14:05:46.437,8.25,5.375
14:05:46.439,5.125,0.625
14:05:46.442,3.5625,-4.375
14:05:46.448,1.0625,-9.5625
14:05:46.474,-1.9375,-14.5626
14:05:46.477,-4.1875,-19.2501
14:05:46.479,-6.5,-24.2501
14:05:46.513,-8,-28.0001
14:05:46.514,-10.125,-31.1876
14:05:46.518,-12.6875,-34.4376
14:05:46.522,-14.0626,-36.8751
14:05:46.528,-15.9376,-40.8752
14:05:46.553,-17.3751,-44.0002
14:05:46.554,-18.9376,-46.3127
14:05:46.560,-20.1251,-49.1877
14:05:46.568,-21.7501,-51.2502
14:05:46.579,-22.3751,-53.7502
14:05:46.589,-23.2501,-55.9377
14:05:46.598,-23.9376,-56.6252
14:05:46.608,-25.3126,-60.5002
14:05:46.619,-26.3126,-61.5002
14:05:46.628,-26.1876,-63.2502
14:05:46.638,-25.5001,-62.8752
14:05:46.648,-25.3126,-63.0627
14:05:46.658,-25.0001,-62.6877
14:05:46.669,-22.3126,-57.8752
14:05:46.679,-18.4376,-50.0627
14:05:46.688,-11.1875,-36.1876
14:05:46.699,-4.125,-19.9376
14:05:46.711,4,-4
14:05:46.718,12.3125,14.8751
14:05:46.730,19.8751,29.5001
14:05:46.738,25.0001,42.2502
14:05:46.748,28.5001,50.0627
14:05:46.760,30.5001,54.5002
14:05:46.769,31.8751,58.1252
14:05:46.778,33.4376,59.6252
14:05:46.788,35.4376,60.1252
14:05:46.798,35.6251,59.5002
14:05:46.808,35.3751,60.3127
14:05:46.833,36.0626,58.6252
14:05:46.836,35.5626,59.5002
14:05:46.838,36.6251,58.0002
14:05:46.849,36.0001,57.6877
14:05:46.859,35.1876,55.8752
14:05:46.868,35.5001,53.8127
14:05:46.878,35.1876,52.8752
14:05:46.888,33.1251,49.6877
14:05:46.898,24.8751,44.1877
14:05:46.908,16.6876,36.4376
14:05:46.918,8.9375,28.7501
14:05:46.928,1.5625,22.6876
14:05:46.939,-3.625,19.0626
14:05:46.948,-6.125,14.4376
14:05:46.958,-9.9375,12.1875
14:05:46.968,-12.6875,10.125
14:05:46.979,-16.5001,5.8125
14:05:46.988,-20.5001,2.5625
14:05:46.998,-25.4376,-2.625
14:05:47.010,-31.8126,-8.125
14:05:47.018,-37.7501,-14.0626
14:05:47.029,-44.2502,-21.3126
14:05:47.038,-51.4377,-27.6251
14:05:47.048,-56.7502,-34.9376
14:05:47.058,-61.6252,-40.0002
14:05:47.072,-65.9378,-46.1252
14:05:47.078,-69.1253,-50.8752
14:05:47.090,-70.6253,-53.3127
14:05:47.109,-72.0628,-57.9377
14:05:47.110,-71.8753,-59.3127
14:05:47.155,-71.1253,-60.0002
14:05:47.155,-68.5628,-60.8752
14:05:47.157,-67.2503,-60.6252
14:05:47.161,-65.8128,-61.4377
14:05:47.166,-63.7502,-62.6252
14:05:47.169,-62.7502,-62.3752
14:05:47.198,-60.8127,-62.3127
14:05:47.201,-59.1252,-61.7502
14:05:47.202,-56.2502,-62.0002
14:05:47.209,-53.6252,-60.2502
14:05:47.243,-51.1252,-57.3752
14:05:47.246,-47.8127,-57.3127
14:05:47.248,-44.8127,-54.3752
14:05:47.251,-42.5627,-54.1877
14:05:47.291,-40.5002,-53.6252
14:05:47.292,-39.6877,-53.6252
14:05:47.294,-39.5627,-52.9377
14:05:47.297,-39.2502,-54.1877
14:05:47.303,-39.0001,-54.1877
14:05:47.311,-38.0626,-52.3752
14:05:47.320,-36.3126,-47.3127
14:05:47.329,-31.8126,-38.6251
14:05:47.340,-24.8751,-26.5001
14:05:47.348,-18.7501,-11.75
14:05:47.359,-12.125,3.125
14:05:47.378,-8.625,15.7501
14:05:47.380,-5.3125,23.6251
14:05:47.395,-2.75,30.2501
14:05:47.398,-2,33.1251
14:05:47.409,-0.1875,36.3751
14:05:47.418,-0.125,38.5626
14:05:47.428,0.375,37.3126
14:05:47.438,0,37.0626
14:05:47.450,0.5625,34.9376
14:05:47.458,-0.3125,35.1251
14:05:47.468,0.875,32.2501
14:05:47.479,1.1875,31.9376
14:05:47.488,0.4375,30.9376
14:05:47.498,0.625,28.9376
14:05:47.508,0.0625,27.0001
14:05:47.518,-0.375,23.6251
14:05:47.529,-0.6875,20.4376
14:05:47.538,-1.5,17.3751
14:05:47.549,-2.25,14.0001
14:05:47.558,-2.1875,11.0625
14:05:47.569,-3.3125,8.3125
14:05:47.579,-3.875,7
14:05:47.589,-4.375,5.5625
14:05:47.599,-4.25,3.75
14:05:47.609,-5.4375,2
14:05:47.618,-5.875,1.5625
14:05:47.628,-6.4375,1.6875
14:05:47.640,-6.8125,-0.625
14:05:47.648,-7.125,-2.5
14:05:47.659,-8.5,-3.4375
14:05:47.669,-8.6875,-5.0625
14:05:47.678,-10.8125,-7.375
14:05:47.688,-11.875,-10.8125
14:05:47.698,-13.5626,-13.6251
14:05:47.708,-14.6251,-16.1876
14:05:47.718,-16.6251,-19.5626
14:05:47.728,-17.7501,-22.8126
14:05:47.740,-18.9376,-26.8751
14:05:47.750,-20.5001,-29.7501
14:05:47.758,-21.3751,-34.8126
14:05:47.769,-22.8126,-34.8751
14:05:47.778,-23.2501,-39.6252
14:05:47.788,-24.5626,-41.0627
14:05:47.798,-25.3126,-44.5002
14:05:47.808,-25.5626,-44.9377
14:05:47.825,-24.8126,-47.5627
14:05:47.830,-25.1251,-47.2502
14:05:47.839,-23.7501,-49.8127
14:05:47.861,-23.1876,-49.0002
14:05:47.863,-22.1876,-49.8752
14:05:47.893,-22.5001,-50.3127
14:05:47.894,-21.5001,-52.3752
14:05:47.899,-20.8751,-51.6252
14:05:47.899,-20.1876,-52.0627
14:05:47.931,-19.5626,-53.1252
14:05:47.932,-19.3751,-52.9377
14:05:47.934,-18.6876,-52.5002
14:05:47.966,-17.6876,-50.8752
14:05:47.967,-15.1876,-46.1877
14:05:47.970,-11.5625,-37.0626
14:05:47.974,-5.5625,-26.1251
14:05:48.002,1.6875,-10.625
14:05:48.005,7.875,6.4375
14:05:48.007,14.0001,22.6251
14:05:48.009,14.7501,35.7501
14:05:48.028,13.7501,42.5002
14:05:48.031,11.9375,47.1252
14:05:48.039,10,47.9377
14:05:48.049,8.375,49.5002
14:05:48.058,6.875,48.0002
14:05:48.069,5.9375,46.8127
14:05:48.079,2.375,45.8752
14:05:48.088,-2.5,40.4377
14:05:48.116,-10.4375,32.3126
14:05:48.118,-17.9376,23.8751
14:05:48.123,-26.2501,18.3126
14:05:48.129,-32.4376,10.6875
14:05:48.138,-37.9376,4.375
14:05:48.149,-44.3752,-1.25
14:05:48.158,-49.5627,-7.375
14:05:48.169,-54.2502,-12.4375
14:05:48.178,-56.1877,-16.0626
14:05:48.189,-57.8127,-19.0626
14:05:48.201,-58.5627,-21.7501
14:05:48.208,-60.4377,-23.6876
14:05:48.219,-59.6877,-25.1251
14:05:48.228,-59.6252,-25.3126
14:05:48.240,-59.0002,-24.3126
14:05:48.250,-56.6877,-24.0626
14:05:48.260,-54.0627,-21.0001
14:05:48.268,-48.5627,-17.6876
14:05:48.279,-43.4377,-12.125
14:05:48.289,-36.2501,-8
14:05:48.299,-28.4376,-1.8125
14:05:48.311,-24.1876,2.5
14:05:48.318,-18.9376,5.375
14:05:48.329,-14.8751,8.3125
14:05:48.339,-10.8125,10.1875
14:05:48.349,-7.1875,12
14:05:48.359,-4.8125,12.5625
14:05:48.369,-2.25,12
14:05:48.380,-0.875,11.8125
14:05:48.388,0.625,11.1875
14:05:48.410,1.4375,11.0625
14:05:48.417,2.1875,8.8125
14:05:48.419,2.125,8.4375
14:05:48.434,2.625,6.5
14:05:48.442,2.375,5.9375
14:05:48.448,2.125,2.625
14:05:48.459,1.9375,1.75
14:05:48.469,0.8125,-2.375
14:05:48.480,-0.1875,-5.1875
14:05:48.489,-1.9375,-7.9375
14:05:48.499,-3.875,-10.9375
14:05:48.508,-5.8125,-13.3751
14:05:48.519,-7.3125,-18.0626
14:05:48.528,-8.6875,-22.2501
14:05:48.540,-9.6875,-24.6876
14:05:48.549,-11.25,-28.7501
14:05:48.560,-13.4376,-32.6876
14:05:48.572,-14.5001,-36.0626
14:05:48.582,-15.6251,-38.6251
14:05:48.590,-16.5626,-40.0002
14:05:48.599,-15.1876,-38.6251
14:05:48.609,-13.3126,-35.5626
14:05:48.618,-9.125,-27.5001
14:05:48.629,-3.4375,-15.3126
14:05:48.651,4.125,-0.5
14:05:48.653,11.3125,14.8751
14:05:48.685,17.6876,28.7501
14:05:48.686,21.8126,38.0626
14:05:48.750,24.6251,44.4377
14:05:48.819,27.0626,48.5627
14:05:48.819,28.6876,51.4377
14:05:48.819,29.5626,51.4377
14:05:48.820,29.3126,50.5002
14:05:48.824,28.4376,50.1877
14:05:48.827,28.7501,47.7502
14:05:48.830,26.6876,47.1877
14:05:48.830,25.6876,43.5627
14:05:48.833,25.0626,41.3752
14:05:48.846,24.5001,40.4377
14:05:48.855,22.9376,38.1876
14:05:48.864,21.7501,36.6251
14:05:48.874,20.3126,32.6876
14:05:48.884,18.2501,29.0001
14:05:48.894,16.3751,26.0626
14:05:48.903,14.5626,23.0626
14:05:48.915,13.2501,19.8126
14:05:48.924,12.1875,16.4376
14:05:48.934,11.875,14.0626
14:05:48.947,11.1875,12.8125
14:05:48.957,9.8125,10.5625
14:05:48.965,9.5625,10.125
14:05:48.974,9.125,9.6875
14:05:48.984,9.4375,10.5
14:05:48.994,12.125,5.875
14:05:49.006,11.25,4
14:05:49.014,10.75,2.375
14:05:49.024,11.25,-0.0625
14:05:49.035,10.5,-2.0625
14:05:49.044,9.0625,-4.4375
14:05:49.055,6.875,-7.6875
14:05:49.064,5.75,-10
14:05:49.074,4.5625,-13.0625
14:05:49.084,3.25,-15.2501
14:05:49.094,2.5,-17.9376
14:05:49.105,1.5,-20.0626
14:05:49.115,0.3125,-21.8751
14:05:49.124,-1.0625,-24.7501
14:05:49.134,-1.875,-26.8751
14:05:49.144,-2.6875,-28.3751
14:05:49.154,-5.9375,-30.2501
14:05:49.164,-8.5,-32.1876
14:05:49.174,-12,-35.1876
14:05:49.185,-17.2501,-37.8751
14:05:49.194,-20.7501,-43.4377
14:05:49.205,-25.1876,-45.2502
14:05:49.214,-27.6876,-50.5002
14:05:49.224,-31.1876,-51.6252
14:05:49.234,-32.1876,-55.0002
14:05:49.246,-36.0001,-56.7502
14:05:49.254,-39.2501,-58.3752
14:05:49.265,-42.6252,-56.7502
14:05:49.276,-42.8752,-52.5627
14:05:49.284,-41.1252,-40.9377
14:05:49.308,-38.8751,-27.4376
14:05:49.310,-36.1876,-17.1876
14:05:49.315,-34.7501,-8.0625
14:05:49.353,-32.8126,-2
14:05:49.355,-31.1251,4.1875
14:05:49.357,-29.6876,7.875
14:05:49.360,-28.3126,10.125
14:05:49.365,-26.5626,11.4375
14:05:49.393,-25.1251,12.6875
14:05:49.395,-21.1251,16.0001
14:05:49.399,-15.2501,19.5626
14:05:49.404,-11.25,23.8751
14:05:49.442,-7.4375,26.4376
14:05:49.445,-4.625,29.3126
14:05:49.446,-2.125,31.9376
14:05:49.448,0.5,32.6876
14:05:49.456,2.25,33.1876
14:05:49.485,5.6875,35.1876
14:05:49.487,8.0625,35.4376
14:05:49.490,11.25,37.1876
14:05:49.495,13.9376,37.2501
14:05:49.504,15.6876,38.2501
14:05:49.514,17.0001,38.2501
14:05:49.525,16.5001,37.5626
14:05:49.534,17.1876,37.7501
14:05:49.544,17.3126,38.3126
14:05:49.554,17.3126,39.1876
14:05:49.564,17.0001,37.9376
14:05:49.574,16.4376,35.9376
14:05:49.584,16.4376,35.1876
14:05:49.594,14.8126,33.5001
14:05:49.604,14.7501,31.1876
14:05:49.614,12.875,29.3751
14:05:49.624,11.375,25.5001
14:05:49.634,9.9375,21.5626
14:05:49.646,8.75,17.0001
14:05:49.655,6.625,12.625
14:05:49.664,5.3125,8.1875
14:05:49.676,2.625,3.375
14:05:49.684,2.125,-1.625
14:05:49.694,-0.9375,-6.375
14:05:49.704,-0.6875,-9.1875
14:05:49.720,-0.3125,-14.3126
14:05:49.736,-0.6875,-17.3126
14:05:49.738,-0.3125,-20.1251
14:05:49.753,-1,-24.9376
14:05:49.755,-2.25,-27.1876
14:05:49.764,-2.3125,-30.3751
14:05:49.776,-5.3125,-34.3126
14:05:49.785,-5.9375,-36.6876
14:05:49.794,-6.625,-39.8127
14:05:49.804,-7.875,-41.6877
14:05:49.814,-8.75,-46.0627
14:05:49.824,-10.8125,-47.5002
14:05:49.834,-12,-51.4377
14:05:49.846,-14.0001,-54.6252
14:05:49.860,-14.8126,-56.5627
14:05:49.865,-17.0626,-59.0627
14:05:49.898,-18.0626,-61.6877
14:05:49.901,-19.5626,-62.1877
14:05:49.903,-18.7501,-61.6252
14:05:49.909,-17.6251,-53.8752
14:05:49.920,-12.375,-44.8752
14:05:49.929,-6.5,-30.2501
14:05:49.939,0.4375,-14.6876
14:05:49.949,7.3125,3.0625
14:05:49.959,13.6251,18.8751
14:05:49.969,18.8751,30.5001
14:05:49.979,23.3126,39.8752
14:05:49.989,24.6876,43.0002
14:05:49.999,24.9376,46.9377
14:05:50.009,24.7501,48.7502
14:05:50.019,25.0001,48.2502
14:05:50.029,24.0001,48.5627
14:05:50.045,25.0001,48.5002
14:05:50.050,26.7501,47.0627
14:05:50.122,28.6251,47.9377
14:05:50.221,30.7501,49.1252
14:05:50.223,31.8751,48.3752
14:05:50.226,33.1251,50.7502
14:05:50.237,32.7501,47.5002
14:05:50.237,29.9376,45.7502
14:05:50.237,26.5626,42.0627
14:05:50.241,20.2501,37.5626
14:05:50.249,15.0626,35.0001
14:05:50.259,10.125,31.5626
14:05:50.269,3,26.9376
14:05:50.279,-2.9375,22.0001
14:05:50.289,-15.9376,9.0625
14:05:50.299,-29.7501,-2.5
14:05:50.309,-39.2501,-12.8125
14:05:50.320,-49.0002,-20.8126
14:05:50.329,-58.6877,-30.3126
14:05:50.339,-68.6878,-39.5002
14:05:50.349,-78.6253,-47.9377
14:05:50.360,-86.4378,-55.8127
14:05:50.369,-92.2504,-61.7502
14:05:50.379,-95.5629,-65.3128
14:05:50.390,-98.6254,-69.6253
14:05:50.399,-158.6256,-138.813
14:05:50.409,-160.1256,-142.438
14:05:50.419,-161.5631,-144.5005
14:05:50.429,-162.6881,-147.0006
14:05:50.439,-164.9381,-149.8756
14:05:50.449,-167.6881,-154.1881
14:05:50.459,-171.0632,-158.1256
14:05:50.469,-174.6257,-162.4381
14:05:50.479,-176.8132,-167.2506
14:05:50.489,-180.3132,-170.0631
14:05:50.499,-180.4382,-173.1882
14:05:50.509,-181.4382,-174.3757
14:05:50.519,-179.9382,-173.5007
14:05:50.529,-168.3756,-163.1881
14:05:50.540,-167.0006,-164.3131
14:05:50.549,-160.3756,-158.1256
14:05:50.559,-151.9381,-151.9381
14:05:50.569,-142.438,-139.438
14:05:50.579,-132.188,-125.8755
14:05:50.589,-119.938,-109.4379
14:05:50.600,-109.0004,-92.8754
14:05:50.614,-97.6879,-79.6878
14:05:50.620,-88.2503,-66.8753
14:05:50.632,-82.5003,-57.1252
14:05:50.640,-76.3128,-48.5002
14:05:50.651,-72.8753,-42.0627
14:05:50.674,-70.3128,-37.6876
14:05:50.677,-69.6878,-35.2501
14:05:50.682,-67.3753,-33.4376
14:05:50.689,-66.5003,-32.0001
14:05:50.699,-63.9377,-30.8751
14:05:50.709,-61.6877,-29.2501
14:05:50.719,-58.3752,-28.5001
14:05:50.729,-56.0627,-26.6251
14:05:50.739,-55.5002,-24.2501
14:05:50.749,-54.2502,-25.3751
14:05:50.759,-53.4377,-24.0626
14:05:50.769,-52.1252,-24.9376
14:05:50.779,-52.0002,-25.1876
14:05:50.789,-51.0627,-27.4376
14:05:50.799,-49.3127,-27.5626
14:05:50.809,-47.5627,-27.9376
14:05:50.819,-46.3752,-28.4376
14:05:50.829,-46.3127,-29.0626
14:05:50.844,-44.5002,-29.5001
14:05:50.850,-42.8752,-29.1251
14:05:50.879,-42.3127,-29.0001
14:05:50.882,-41.0627,-29.3751
14:05:50.884,-40.5002,-27.8126
14:05:50.889,-38.9376,-28.8126
14:05:50.931,-37.7501,-28.3126
14:05:50.934,-38.6251,-29.0001
14:05:50.938,-38.4376,-30.2501
14:05:50.942,-40.8752,-31.0001
14:05:50.945,-39.8127,-33.0001
14:05:50.958,-39.5627,-33.7501
14:05:50.960,-38.8126,-35.3126
14:05:50.989,-36.3126,-36.3126
14:05:50.992,-35.3751,-37.4376
14:05:50.994,-32.1251,-37.6251
14:05:50.999,-33.6251,-39.6877
14:05:51.021,-33.6251,-42.7502
14:05:51.027,-34.0001,-44.3752
14:05:51.029,-34.9376,-46.3127
14:05:51.044,-33.7501,-49.4377
14:05:51.053,-33.5001,-49.6252
14:05:51.060,-32.9376,-51.6877
14:05:51.069,-33.1876,-52.5002
14:05:51.079,-32.8126,-55.5002
14:05:51.089,-33.8126,-57.3127
14:05:51.100,-33.3751,-58.0627
14:05:51.111,-34.4376,-60.3752
14:05:51.120,-34.6876,-61.0002
14:05:51.131,-35.1876,-63.7502
14:05:51.139,-35.2501,-65.3128
14:05:51.149,-36.5001,-67.6878
14:05:51.161,-36.1876,-69.0628
14:05:51.172,-37.2501,-71.3753
14:05:51.180,-38.0626,-73.0003
14:05:51.189,-37.2501,-73.9378
14:05:51.200,-37.9376,-76.5628
14:05:51.209,-37.7501,-76.8753
14:05:51.219,-36.7501,-76.9378
14:05:51.230,-34.8126,-75.2503
14:05:51.239,-30.9376,-67.0628
14:05:51.250,-25.5626,-56.5002
14:05:51.259,-19.0001,-40.9377
14:05:51.271,-11.375,-23.1251
14:05:51.281,-5.1875,-6.5625
14:05:51.290,0.25,5.8125
14:05:51.299,3.25,15.6876
14:05:51.309,7.375,22.8126
14:05:51.319,8,27.3126
14:05:51.329,9.75,29.7501
14:05:51.339,9.25,31.1876
14:05:51.349,9.6875,30.6876
14:05:51.359,8.75,28.8126
14:05:51.369,9.0625,28.0626
14:05:51.379,8.25,26.5626
14:05:51.389,8.4375,25.3126
14:05:51.402,7.3125,24.6251
14:05:51.411,7.5,22.6876
14:05:51.419,6.3125,21.5001
14:05:51.429,5.625,18.6876
14:05:51.441,4.5625,16.0626
14:05:51.450,3.375,13.8751
14:05:51.463,2.6875,10.5
14:05:51.479,1.4375,8.75
14:05:51.482,0.25,5.6875
14:05:51.497,0.25,4.0625
14:05:51.512,-0.25,3.5
14:05:51.514,0.25,2.8125
14:05:51.523,0.375,3
14:05:51.529,0.5,3.125
14:05:51.558,1.1875,3.8125
14:05:51.561,1.3125,4.6875
14:05:51.563,1.6875,4.25
14:05:51.592,0.375,3.9375
14:05:51.594,-0.125,3.6875
14:05:51.597,-0.25,2.0625
14:05:51.602,-1.0625,0.75
14:05:51.631,-1.5,-1.75
14:05:51.633,-2.25,-4.6875
14:05:51.635,-3.625,-6.9375
14:05:51.674,-4.875,-9.75
14:05:51.675,-6,-13.1876
14:05:51.677,-7.625,-14.8126
14:05:51.683,-9,-19.1876
14:05:51.683,-10.4375,-22.8126
14:05:51.690,-10.875,-25.5001
14:05:51.715,-12.3125,-28.7501
14:05:51.718,-13.9376,-31.1251
14:05:51.720,-14.8751,-33.0626
14:05:51.730,-15.5001,-36.1251
14:05:51.740,-16.6251,-37.7501
14:05:51.750,-17.0001,-40.7502
14:05:51.760,-18.0001,-42.0002
14:05:51.772,-18.8126,-45.1877
14:05:51.780,-18.6876,-47.0002
14:05:51.790,-20.0001,-48.4377
14:05:51.800,-20.3126,-51.4377
14:05:51.811,-21.2501,-52.6877
14:05:51.820,-21.8751,-55.3127
14:05:51.829,-22.9376,-56.3127
14:05:51.844,-23.6251,-58.5002
14:05:51.849,-23.8126,-60.5002
14:05:51.861,-24.7501,-62.9377
14:05:51.871,-25.0001,-63.0627
14:05:51.881,-23.5626,-59.6877
14:05:51.889,-19.6876,-54.0627
14:05:51.903,-14.7501,-41.6877
14:05:51.910,-7.75,-27.0626
14:05:51.920,-0.625,-7.8125
14:05:51.954,5.4375,7.6875
14:05:51.957,9.6875,20.3751
14:05:51.958,13.3751,28.9376
14:05:51.961,15.2501,35.8751
14:05:51.971,16.7501,39.7502
14:05:51.981,18.3126,42.0002
14:05:51.990,17.9376,43.0627
14:05:52.000,17.3126,42.8127
14:05:52.010,17.6251,41.7502
14:05:52.021,16.1876,40.1877
14:05:52.031,15.5626,38.0626
14:05:52.041,14.6876,36.6251
14:05:52.051,14.4376,34.3751
14:05:52.062,13.5626,32.8751
14:05:52.072,12.4375,31.1251
14:05:52.081,11.9375,28.0626
14:05:52.089,9.8125,25.6251
14:05:52.100,9,23.8126
14:05:52.110,8.0625,20.5626
14:05:52.120,7.0625,17.0626
14:05:52.131,5.6875,15.1876
14:05:52.147,5.75,13.3126
14:05:52.150,5.9375,13.4376
14:05:52.159,6.4375,12.0625
14:05:52.170,6.5625,12.3125
14:05:52.180,6.0625,11.875
14:05:52.191,6.6875,12.8125
14:05:52.201,6.8125,12.375
14:05:52.211,6.8125,13.0625
14:05:52.221,6,11.5
14:05:52.232,5.4375,11.8125
14:05:52.242,4.6875,8.75
14:05:52.251,4.375,6.6875
14:05:52.282,3.5625,5
14:05:52.285,2.0625,2.8125
14:05:52.287,1.375,-0.8125
14:05:52.291,-0.0625,-3.125
14:05:52.325,-1.125,-6.6875
14:05:52.328,-2.625,-10.4375
14:05:52.372,-3.75,-12.9375
14:05:52.401,-4.8125,-17.0626
14:05:52.441,-5.5625,-19.5626
14:05:52.441,-7.375,-22.1876
14:05:52.441,-8.25,-24.3751
14:05:52.443,-8.8125,-27.3126
14:05:52.445,-10.125,-29.5001
14:05:52.450,-10.25,-32.3126
14:05:52.450,-12,-34.0626
14:05:52.450,-12.5,-36.6876
14:05:52.461,-14.2501,-38.1251
14:05:52.470,-14.8126,-41.3127
14:05:52.481,-15.4376,-43.3752
14:05:52.491,-16.3126,-45.1252
14:05:52.501,-16.7501,-47.4377
14:05:52.511,-18.1876,-49.4377
14:05:52.527,-18.3126,-51.2502
14:05:52.531,-20.3126,-53.0627
14:05:52.540,-20.0001,-54.8127
14:05:52.551,-19.6876,-54.0002
14:05:52.560,-17.8126,-50.5002
14:05:52.571,10.6875,21.5001
14:05:52.580,14.9376,30.3751
14:05:52.590,18.1251,38.8751
14:05:52.601,20.1251,43.9377
14:05:52.612,21.0626,48.6252
14:05:52.622,21.1876,49.6877
14:05:52.631,21.1876,48.9377
14:05:52.640,20.7501,48.4377
14:05:52.650,21.0001,46.7502
14:05:52.660,18.9376,45.3127
14:05:52.670,18.6251,43.0627
14:05:52.680,17.8126,41.2502
14:05:52.690,17.1251,40.0002
14:05:52.701,16.8751,37.8751
14:05:52.711,15.5626,36.4376
14:05:52.723,15.5001,33.3751
14:05:52.732,13.6876,31.8126
14:05:52.741,12.6875,28.0626
14:05:52.750,11.6875,24.8751
14:05:52.760,11,22.6876
14:05:52.770,9.125,20.3126
14:05:52.781,8.5625,18.7501
14:05:52.799,8.5,16.6876
14:05:52.802,7.5625,17.3126
14:05:52.817,8,16.2501
14:05:52.832,8.25,16.0001
14:05:52.834,7.9375,16.4376
14:05:52.843,7.8125,15.5626
14:05:52.851,8,14.8751
14:05:52.861,7.625,14.5626
14:05:52.873,6.6875,13.1876
14:05:52.880,6.125,11.75
14:05:52.891,4.5625,10.125
14:05:52.902,3.8125,7.4375
14:05:52.910,2.875,3
14:05:52.924,1.25,0.4375
14:05:52.930,-0.25,-2.5625
14:05:52.940,-2,-7.4375
14:05:52.951,-2.25,-10.4375
14:05:52.963,-3.3125,-13.125
14:05:52.970,-4.5625,-15.5626
14:05:52.998,-6.3125,-19.6251
14:05:53.001,-7.875,-22.2501
14:05:53.003,-8.25,-25.6876
14:05:53.037,-9.6875,-27.8751
14:05:53.039,-10.6875,-31.1876
14:05:53.042,-12.0625,-33.3126
14:05:53.045,-12.625,-35.3126
14:05:53.050,-13.3751,-37.9376
14:05:53.080,-13.9376,-39.7502
14:05:53.082,-15.0001,-41.3127
14:05:53.084,-16.6251,-42.9377
14:05:53.090,-17.2501,-46.3752
14:05:53.123,-18.0626,-47.2502
14:05:53.127,-18.9376,-50.0002
14:05:53.128,-19.3126,-51.7502
14:05:53.130,-20.4376,-52.9377
14:05:53.157,-21.1876,-55.0002
14:05:53.159,-19.6876,-52.8752
14:05:53.162,-18.3126,-47.3752
14:05:53.170,-13.3751,-39.3126
14:05:53.181,-7.125,-24.4376
14:05:53.190,-0.1875,-5.375
14:05:53.200,6.75,11.3125
14:05:53.233,12.1875,26.1251
14:05:53.235,16.8126,36.3751
14:05:53.243,18.9376,43.8752
14:05:53.244,21.3126,48.5002
14:05:53.251,22.0626,52.3752
14:05:53.261,22.6251,52.5627
14:05:53.277,21.8126,52.6877
14:05:53.283,21.3751,51.6252
14:05:53.290,20.1876,50.0002
14:05:53.301,19.4376,48.1877
14:05:53.310,18.5626,45.8127
14:05:53.321,18.0001,45.2502
14:05:53.330,17.0001,42.2502
14:05:53.342,17.5001,41.4377
14:05:53.352,15.6251,39.4377
14:05:53.362,15.3751,37.0001
14:05:53.370,13.5001,34.1876
14:05:53.380,12.125,31.3126
14:05:53.390,10.875,27.2501
14:05:53.400,10.1875,25.3126
14:05:53.411,8.875,23.4376
14:05:53.420,8.3125,22.5001
14:05:53.431,8.25,21.6876
14:05:53.442,8.625,21.1251
14:05:53.451,8.75,20.3751
14:05:53.460,8.6875,20.5626
14:05:53.471,8.1875,21.6251
14:05:53.482,9.1875,20.8126
14:05:53.490,8.375,19.5626
14:05:53.500,8.0625,19.0001
14:05:53.510,8.25,17.8126
14:05:53.521,6.5625,14.6251
14:05:53.533,5,12.0625
14:05:53.540,4.375,10.9375
14:05:53.550,2.9375,6.8125
14:05:53.561,1.6875,4.3125
14:05:53.571,0.75,1.375
14:05:53.581,-0.75,-3
14:05:53.591,-2.1875,-5.125
14:05:53.603,-2.875,-7.875
14:05:53.611,-4.3125,-11.6875
14:05:53.620,-5.4375,-14.6876
14:05:53.630,-7.3125,-17.7501
14:05:53.640,-7.3125,-20.0626
14:05:53.652,-9.125,-23.0626
14:05:53.661,-9.6875,-25.9376
14:05:53.670,-10.8125,-28.5001
14:05:53.727,-11.6875,-29.4376
14:05:53.728,-12.5625,-32.8126
14:05:53.794,-14.0626,-35.3126
14:05:53.795,-15.4376,-37.1251
14:05:53.797,-16.4376,-38.4376
14:05:53.797,-16.9376,-42.0002
14:05:53.798,-17.8126,-43.5002
14:05:53.801,-18.1876,-45.0627
14:05:53.830,-18.6876,-46.3752
14:05:53.830,-18.7501,-44.8752
14:05:53.830,-15.7501,-42.3127
14:05:53.832,-13,-34.1251
14:05:53.833,-7,-22.0001
14:05:53.839,-0.875,-4.1875
14:05:53.847,5.9375,11.75
14:05:53.875,10.9375,26.3751
14:05:53.877,14.8751,37.4376
14:05:53.879,18.5001,45.6252
14:05:53.887,20.7501,50.8127
14:05:53.897,21.7501,54.7502
14:05:53.906,23.0001,56.1877
14:05:53.915,22.3751,55.7502
14:05:53.925,20.5626,53.1252
14:05:53.935,20.1876,52.6252
14:05:53.946,19.5001,50.5627
14:05:53.956,18.7501,48.5627
14:05:53.966,18.5626,46.8752
14:05:53.976,17.2501,45.3127
14:05:53.985,16.3751,42.3127
14:05:53.996,14.6876,40.1252
14:05:54.007,13.4376,35.7501
14:05:54.017,12.375,33.0626
14:05:54.028,11.6875,31.3126
14:05:54.036,11.25,30.0626
14:05:54.046,10.4375,28.5001
14:05:54.063,9.6875,27.8751
14:05:54.071,9.1875,27.7501
14:05:54.082,10.5625,27.6251
14:05:54.091,10,27.1876
14:05:54.101,10.0625,26.7501
14:05:54.119,9.875,27.1251
14:05:54.122,9.625,26.3126
14:05:54.137,9.0625,24.5001
14:05:54.153,8.3125,23.5001
14:05:54.155,7.6875,20.9376
14:05:54.172,7.0625,18.8751
14:05:54.173,6,16.4376
14:05:54.182,3.9375,14.1251
14:05:54.191,3.375,10.75
14:05:54.203,1.1875,7.0625
14:05:54.211,-0.625,3.5625
14:05:54.222,-2.25,0.5625
14:05:54.231,-3.125,-3.8125
14:05:54.240,-4.4375,-6.5625
14:05:54.250,-5.9375,-8.5625
14:05:54.261,-6.25,-11.4375
14:05:54.271,-6.625,-14.1876
14:05:54.281,-7.9375,-16.8126
14:05:54.291,-9.1875,-19.7501
14:05:54.301,-10.3125,-22.5626
14:05:54.313,-11.0625,-23.5001
14:05:54.320,-11.9375,-26.3126
14:05:54.330,-12.5625,-28.5001
14:05:54.340,-13.3751,-31.3751
14:05:54.350,-14.3126,-32.5626
14:05:54.361,-14.9376,-33.2501
14:05:54.373,-14.0626,-32.3126
14:05:54.381,-11.875,-28.8126
14:05:54.391,-8.1875,-19.8751
14:05:54.402,-2.4375,-6
14:05:54.411,3.875,9.6875
14:05:54.422,9.625,23.3126
14:05:54.434,13.6876,35.1251
14:05:54.441,17.5001,44.7502
14:05:54.451,20.0626,51.1252
14:05:54.460,22.0626,56.3752
14:05:54.501,22.8751,59.2502
14:05:54.504,23.8751,59.6877
14:05:54.504,22.6251,59.6877
14:05:54.523,21.6876,57.6877
14:05:54.525,21.4376,56.5627
14:05:54.553,21.0626,54.8752
14:05:54.555,19.8751,53.8127
14:05:54.557,19.5626,51.3752
14:05:54.559,18.3751,50.6877
14:05:54.583,18.9376,48.3127
14:05:54.584,17.3751,46.3127
14:05:54.587,15.8751,44.4377
14:05:54.590,15.0001,41.8127
14:05:54.603,14.5626,37.6876
14:05:54.629,12.6875,34.1251
14:05:54.630,11.5625,31.3751
14:05:54.633,11.4375,29.7501
14:05:54.647,10.875,28.4376
14:05:54.652,10.625,27.9376
14:05:54.660,10.4375,27.1251
14:05:54.670,10.5625,26.6876
14:05:54.681,10.8125,26.3126
14:05:54.692,10.5,26.3126
14:05:54.701,9.375,26.8751
14:05:54.711,9.1875,25.9376
14:05:54.721,9.0625,23.9376
14:05:54.731,7.5625,22.8751
14:05:54.743,6.9375,20.3126
14:05:54.751,6.3125,17.6876
14:05:54.762,5.625,16.5626
14:05:54.777,4.375,12.6875
14:05:54.782,3.1875,10.3125
14:05:54.793,2.25,8
14:05:54.801,0.5625,4.8125
14:05:54.810,-0.875,2.3125
14:05:54.821,-1.75,-1.125
14:05:54.832,-2.625,-4.3125
14:05:54.842,-4.375,-7.5625
14:05:54.853,-6.0625,-10.25
14:05:54.861,-6.25,-13.8126
14:05:54.871,-7.5,-15.1251
14:05:54.880,-8.25,-18.1251
14:05:54.893,-9.0625,-20.5626
14:05:54.905,-9.9375,-23.2501
14:05:54.912,-10.875,-25.5626
14:05:54.920,-12.375,-27.9376
14:05:54.930,-13,-29.7501
14:05:54.941,-13.8126,-32.4376
14:05:54.954,-14.9376,-33.3126
14:05:54.961,-15.2501,-34.3751
14:05:54.972,-14.5626,-33.1251
14:05:54.980,-11.125,-27.8751
14:05:54.991,-7.3125,-15.5626
14:05:55.000,-1.25,-2.25
14:05:55.012,5.375,12.375
14:05:55.020,10.8125,26.1876
14:05:55.040,14.1251,36.2501
14:05:55.046,17.5626,44.5002
14:05:55.060,19.3126,52.1877
14:05:55.063,20.4376,53.1877
14:05:55.078,20.7501,55.1877
14:05:55.083,21.2501,55.5627
14:05:55.090,20.5001,54.3127
14:05:55.101,20.0626,52.6877
14:05:55.110,19.5001,51.9377
14:05:55.122,18.2501,50.1877
14:05:55.134,17.8751,49.4377
14:05:55.142,17.3751,46.3127
14:05:55.158,16.6876,45.1877
14:05:55.162,15.5626,43.0627
14:05:55.172,14.5001,41.8127
14:05:55.182,14.0626,38.4376
14:05:55.192,12.75,34.8126
14:05:55.207,11.625,32.3751
14:05:55.214,9.9375,30.3751
14:05:55.245,9.375,28.5001
14:05:55.247,9.4375,26.4376
14:05:55.249,8,25.8126
14:05:55.252,8.875,25.0626
14:05:55.283,8.875,24.4376
14:05:55.285,8.875,25.0626
14:05:55.287,8.5,25.1876
14:05:55.311,7.6875,24.3751
14:05:55.312,8.25,23.1876
14:05:55.314,7.375,23.5626
14:05:55.351,6.9375,22.6876
14:05:55.354,6.125,20.1876
14:05:55.355,5.0625,18.9376
14:05:55.362,4.3125,15.1876
14:05:55.364,2.6875,13.5626
14:05:55.372,1.75,10.4375
14:05:55.382,0.5625,8.9375
14:05:55.392,-0.0625,5.25
14:05:55.402,-0.6875,2.6875
14:05:55.411,-2.1875,0.5625
14:05:55.422,-3,-1.0625
14:05:55.438,-3.8125,-3.875
14:05:55.442,-5.125,-7.125
14:05:55.457,-6.8125,-7.8125
14:05:55.466,-7.3125,-11.5
14:05:55.472,-7.75,-14.0626
14:05:55.482,-8.9375,-15.8751
14:05:55.492,-9.6875,-18.0626
14:05:55.503,-10.875,-20.7501
14:05:55.512,-11.5,-22.1251
14:05:55.522,-12.4375,-24.3751
14:05:55.532,-12.9375,-25.6251
14:05:55.543,-13.6876,-27.1251
14:05:55.552,-14.5626,-29.3751
14:05:55.562,-14.1251,-27.8126
14:05:55.571,-12.5,-25.9376
14:05:55.583,-8.625,-18.6876
14:05:55.592,-4.3125,-6.875
14:05:55.602,1.625,5.625
14:05:55.612,6.375,20.5626
14:05:55.622,11.75,31.6251
14:05:55.634,15.0626,41.3127
14:05:55.642,17.6876,47.3752
14:05:55.652,19.8751,51.8752
14:05:55.661,19.7501,53.8752
14:05:55.673,20.0001,54.5627
14:05:55.682,19.9376,54.6252
14:05:55.691,19.3751,52.3127
14:05:55.702,18.6251,51.4377
14:05:55.712,16.9376,51.2502
14:05:55.722,16.5001,48.5002
14:05:55.734,16.7501,47.1252
14:05:55.742,15.1876,46.9377
14:05:55.752,15.1876,44.1877
14:05:55.762,14.1876,43.9377
14:05:55.793,13.3126,40.2502
14:05:55.795,11.9375,38.3751
14:05:55.799,10.6875,34.5626
14:05:55.802,10.5625,32.9376
14:05:55.812,9.375,30.3126
14:05:55.822,7.9375,28.0626
14:05:55.832,7.4375,26.6876
14:05:55.843,6.5625,25.3751
14:05:55.854,7.0625,26.3751
14:05:55.862,7.3125,25.5626
14:05:55.872,7.1875,25.1876
14:05:55.882,6.625,26.1876
14:05:55.892,6.75,25.0626
14:05:55.906,6.75,24.1251
14:05:55.932,6.3125,24.2501
14:05:55.935,5.75,22.5626
14:05:55.936,5.0625,20.8126
14:05:55.942,3.6875,20.0001
14:05:55.974,2.9375,16.8126
14:05:55.976,2.125,14.0626
14:05:55.978,1,11.125
14:05:55.982,-0.6875,10.125
14:05:56.014,-0.9375,6.5
14:05:56.016,-2.5,3
14:05:56.018,-2.8125,1.5
14:05:56.023,-3.4375,-1.375
14:05:56.053,-4.625,-3.6875
14:05:56.054,-5.5,-4.6875
14:05:56.059,-5.625,-7.5
14:05:56.088,-6.6875,-10.3125
14:05:56.089,-7.4375,-11.625
14:05:56.092,-8.6875,-13.3751
14:05:56.095,-9.125,-15.5001
14:05:56.105,-8.9375,-17.7501
14:05:56.112,-10.9375,-19.7501
14:05:56.122,-11.1875,-22.0626
14:05:56.132,-11.1875,-24.5626
14:05:56.145,-12.75,-26.5001
14:05:56.152,-12.3125,-27.3126
14:05:56.162,-12.75,-29.0001
14:05:56.172,-13.5626,-28.6251
14:05:56.184,-11.625,-26.8751
14:05:56.192,-9.125,-20.1251
14:05:56.202,-3.75,-9.1875
14:05:56.212,1.625,4.125
14:05:56.224,7.1875,17.6876
14:05:56.232,11.6875,28.8126
14:05:56.242,15.8751,38.8126
14:05:56.252,17.8751,45.8127
14:05:56.263,19.8126,49.6877
14:05:56.272,20.5626,52.2502
14:05:56.288,20.6876,52.7502
14:05:56.292,20.3751,52.2502
14:05:56.303,20.5001,52.2502
14:05:56.312,19.1876,51.3127
14:05:56.322,18.6876,48.8752
14:05:56.332,19.0626,48.0627
14:05:56.353,17.6876,46.7502
14:05:56.357,17.3126,45.5002
14:05:56.365,16.9376,45.1877
14:05:56.372,16.4376,44.0627
14:05:56.386,15.4376,42.3127
14:05:56.403,14.6876,38.1251
14:05:56.408,13.4376,37.1876
14:05:56.412,12.3125,33.5001
14:05:56.422,11.0625,31.2501
14:05:56.431,10.5,29.5626
14:05:56.442,10.4375,27.3751
14:05:56.452,9.375,26.1876
14:05:56.462,9.25,25.1876
14:05:56.472,9.125,25.0001
14:05:56.482,9.3125,24.9376
14:05:56.492,9.4375,24.3126
14:05:56.502,9.1875,23.8751
14:05:56.511,9.4375,23.7501
14:05:56.522,9.125,22.0626
14:05:56.532,7.5,21.1876
14:05:56.542,6.8125,20.1876
14:05:56.553,6.25,17.0001
14:05:56.562,5.25,15.5001
14:05:56.572,4.25,13.6251
14:05:56.582,3.25,11.0625
14:05:56.592,1.875,8.625
14:05:56.602,1.5,5
14:05:56.637,-0.0625,2.75
14:05:56.638,-0.3125,-0.1875
14:05:56.641,-1.0625,-1.25
14:05:56.643,-2.3125,-5.0625
14:05:56.680,-3.3125,-7.25
14:05:56.682,-4.375,-9
14:05:56.685,-4.875,-11
14:05:56.687,-5.5625,-13.2501
14:05:56.693,-7.0625,-15.6876
14:05:56.727,-7.375,-16.1251
14:05:56.733,-7.875,-18.5626
14:05:56.735,-8.75,-21.6876
14:05:56.812,-10,-22.9376
14:05:56.812,-10.5,-25.8751
14:05:56.825,-11.3125,-28.6251
14:05:56.828,-12.0625,-30.8751
14:05:56.829,-12.625,-31.8126
14:05:56.829,-13.2501,-33.8126
14:05:56.833,-14.2501,-35.6251
14:05:56.842,-13.7501,-35.7501
14:05:56.852,-13.1876,-33.6876
14:05:56.862,-10.125,-28.4376
14:05:56.872,-5.125,-16.9376
14:05:56.884,0.9375,-3.9375
14:05:56.892,7.0625,12.125
14:05:56.902,11.9375,24.1876
14:05:56.912,16.3751,35.6251
14:05:56.924,19.3126,42.0002
14:05:56.932,20.6876,46.1252
14:05:56.941,21.3126,49.8127
14:05:56.952,21.3751,50.3752
14:05:56.964,21.5626,49.9377
14:05:56.971,20.8751,48.3752
14:05:56.982,20.3126,47.0002
14:05:56.992,19.5626,44.5002
14:05:57.003,18.1251,42.7502
14:05:57.012,16.5626,41.6877
14:05:57.022,15.9376,37.8126
14:05:57.032,14.9376,36.5001
14:05:57.045,14.0001,33.4376
14:05:57.073,12.125,29.6251
14:05:57.075,10.8125,28.6876
14:05:57.079,10.25,25.9376
14:05:57.083,9.9375,24.1251
14:05:57.092,9.875,24.0626
14:05:57.102,10.875,23.7501
14:05:57.112,9.875,24.0626
14:05:57.122,9.375,23.5001
14:05:57.132,9.4375,22.0001
14:05:57.142,8.8125,20.8751
14:05:57.152,9.0625,20.3126
14:05:57.169,7.8125,19.2501
14:05:57.173,7.5,17.9376
14:05:57.182,6.25,15.8751
14:05:57.192,5.6875,13.6876
14:05:57.204,3.9375,10.6875
14:05:57.211,2.8125,8.5625
14:05:57.222,1.5625,5.25
14:05:57.232,-0.125,2.6875
14:05:57.243,-0.625,-0.5625
14:05:57.252,-2.0625,-3.1875
14:05:57.261,-3.5625,-6.3125
14:05:57.272,-4.375,-8.75
14:05:57.283,-5,-10.5625
14:05:57.292,-5.8125,-13.4376
14:05:57.302,-6.4375,-15.5001
14:05:57.312,-6.75,-16.8751
14:05:57.330,-7.6875,-18.8751
14:05:57.332,-8.0625,-21.1251
14:05:57.343,-9.125,-23.4376
14:05:57.373,-10.5,-25.3126
14:05:57.376,-11.5,-28.9376
14:05:57.380,-12.8125,-30.1876
14:05:57.384,-13.5626,-32.3751
14:05:57.412,-13.8126,-35.8126
14:05:57.414,-15.0626,-37.7501
14:05:57.417,-15.6251,-39.9377
14:05:57.422,-16.2501,-41.0627
14:05:57.449,-16.4376,-42.6877
14:05:57.452,-16.1876,-42.0627
14:05:57.454,-15.6251,-40.8127
14:05:57.484,-11.6875,-33.5626
14:05:57.485,-7.5625,-20.2501
14:05:57.487,-1.4375,-7.25
14:05:57.493,4.875,8.6875
14:05:57.503,9.5625,20.9376
14:05:57.512,13.3751,31.4376
14:05:57.522,16.1876,38.1876
14:05:57.532,17.7501,42.9377
14:05:57.543,18.3126,44.2502
14:05:57.552,17.9376,45.1877
14:05:57.562,17.8751,45.1252
14:05:57.572,17.3126,42.7502
14:05:57.582,15.6251,41.8127
14:05:57.591,15.9376,38.7501
14:05:57.602,14.2501,36.6876
14:05:57.613,14.1876,36.0626
14:05:57.622,13.0625,34.5001
14:05:57.633,13.4376,33.8126
14:05:57.642,12.9375,31.6876
14:05:57.654,12,30.4376
14:05:57.672,9.9375,28.5626
14:05:57.678,9.4375,24.7501
14:05:57.695,7.625,22.0626
14:05:57.695,7.0625,19.9376
14:05:57.708,6.0625,17.5626
14:05:57.712,5,15.0626
14:05:57.724,5.25,15.1251
14:05:57.732,5.375,14.0001
14:05:57.742,5.0625,14.3751
14:05:57.753,5.6875,13.6251
14:05:57.762,5.25,14.1251
14:05:57.772,5.8125,13.3751
14:05:57.782,5.6875,14.4376
14:05:57.794,5.5,12.0625
14:05:57.802,4.6875,12.0625
14:05:57.812,4.1875,9.1875
14:05:57.822,3.4375,8.6875
14:05:57.832,2.6875,5.625
14:05:57.842,1.4375,3.5625
14:05:57.851,0.75,1.25
14:05:57.863,0,-1.9375
14:05:57.872,-1.6875,-3.75
14:05:57.882,-3.375,-7.9375
14:05:57.894,-4.5625,-10.6875
14:05:57.901,-5.1875,-13.6876
14:05:57.921,-7.5,-16.4376
14:05:57.924,-7.875,-19.0626
14:05:57.932,-8.6875,-20.9376
14:05:57.943,-9.8125,-22.9376
14:05:57.952,-10.125,-25.2501
14:05:57.961,-10.5625,-26.7501
14:05:57.971,-11.375,-28.9376
14:05:57.984,-12.125,-29.5626
14:05:57.992,-12.6875,-32.3751
14:05:58.002,-13.2501,-34.2501
14:05:58.013,-14.1251,-36.5001
14:05:58.022,-14.8751,-38.2501
14:05:58.032,-16.0001,-41.4377
14:05:58.043,-17.0001,-42.1252
14:05:58.052,-17.6876,-44.6252
14:05:58.063,-18.2501,-47.0002
14:05:58.072,-19.0626,-47.5002
14:05:58.107,-18.7501,-48.0627
14:05:58.142,-16.5001,-45.4377
14:05:58.178,-13.8751,-39.3127
14:05:58.182,-8.25,-28.1251
14:05:58.184,-2.3125,-12.375
14:05:58.185,4.0625,2.1875
14:05:58.185,9.0625,17.0626
14:05:58.190,13,26.8751
14:05:58.220,15.9376,34.6876
14:05:58.223,17.3126,40.8127
14:05:58.225,18.6876,42.4377
14:05:58.228,19.2501,43.3752
14:05:58.258,17.8751,42.5627
14:05:58.261,17.4376,41.6252
14:05:58.263,16.3126,40.0627
14:05:58.269,15.7501,37.5001
14:05:58.282,15.3751,36.4376
14:05:58.287,14.6876,34.2501
14:05:58.298,13.5001,33.1251
14:05:58.307,12.625,31.1251
14:05:58.318,12.1875,29.6251
14:05:58.327,11.4375,26.8751
14:05:58.353,9.5,24.2501
14:05:58.355,7.125,16.5001
14:05:58.358,6.375,17.5626
14:05:58.369,7,15.9376
14:05:58.377,6.6875,15.3751
14:05:58.387,7.3125,16.3126
14:05:58.400,6.625,16.0626
14:05:58.407,6.875,15.4376
14:05:58.418,6.4375,16.1251
14:05:58.427,7.0625,15.2501
14:05:58.438,5.3125,14.4376
14:05:58.448,5.75,13.125
14:05:58.459,4.3125,12.0625
14:05:58.469,4.375,9.625
14:05:58.477,2.375,6.875
14:05:58.488,1.6875,4.6875
14:05:58.498,0.75,2.1875
14:05:58.507,-0.6875,-0.9375
14:05:58.518,-1.875,-3.25
14:05:58.528,-2.5625,-7.125
14:05:58.537,-3.4375,-8.875
14:05:58.549,-3.625,-11.1875
14:05:58.557,-5.1875,-13.6251
14:05:58.570,-5.125,-15.5626
14:05:58.578,-6.1875,-17.5001
14:05:58.586,-6.4375,-18.5001
14:05:58.599,-7.1875,-20.1876
14:05:58.608,-8.5625,-22.3751
14:05:58.618,-8.375,-24.3126
14:05:58.628,-8.875,-25.3751
14:05:58.640,-9.5625,-27.0626
14:05:58.648,-10.0625,-30.2501
14:05:58.658,-10.5,-31.6876
14:05:58.673,-10.5625,-33.3751
14:05:58.678,-12,-34.6251
14:05:58.687,-13.9376,-38.0626
14:05:58.700,-14.0626,-39.6252
14:05:58.707,-14.7501,-41.5627
14:05:58.718,-14.5001,-42.0002
14:05:58.729,-14.2501,-40.3127
14:05:58.738,-12.0625,-37.3126
14:05:58.747,-6.75,-26.9376
14:05:58.759,-0.9375,-13.1876
14:05:58.768,5.6875,2.375
14:05:58.789,11.0625,17.0626
14:05:58.792,15.8126,27.3751
14:05:58.820,18.6876,37.2501
14:05:58.821,19.9376,41.3127
14:05:58.824,21.6876,44.5627
14:05:58.828,21.1876,46.8127
14:05:58.860,20.3126,44.7502
14:05:58.862,20.5626,44.1877
14:05:58.864,19.3126,42.8127
14:05:58.869,19.2501,41.3127
14:05:58.906,18.6251,39.6252
14:05:58.909,19.4376,38.5001
14:05:58.910,18.1876,37.6251
14:05:58.949,18.1876,35.7501
14:05:58.949,16.5001,34.3751
14:05:58.952,16.0626,32.1251
14:05:58.957,14.3751,29.8126
14:05:58.958,13.3126,27.4376
14:05:58.958,13.0625,24.0626
14:05:58.979,11.5625,22.7501
14:05:58.982,11.625,19.6251
14:05:58.998,10.8125,19.0001
14:05:59.014,11.0625,17.3751
14:05:59.015,9.875,16.3126
14:05:59.018,9.8125,15.7501
14:05:59.029,9.625,15.5626
14:05:59.038,10.5,16.6251
14:05:59.048,10.6875,15.8751
14:05:59.059,11.0625,16.0001
14:05:59.068,10.6875,16.1251
14:05:59.078,10.4375,15.7501
14:05:59.090,10.75,15.0001
14:05:59.098,9.3125,12.8125
14:05:59.108,9.1875,10.9375
14:05:59.118,8.125,9.0625
14:05:59.129,7.4375,5.375
14:05:59.139,5.8125,2.25
14:05:59.148,5.0625,0.0625
14:05:59.158,3.875,-3.125
14:05:59.169,2.8125,-5.625
14:05:59.180,1.375,-9.25
14:05:59.190,0.5625,-11.625
14:05:59.198,-0.3125,-14.6876
14:05:59.209,-1.5,-16.3751
14:05:59.218,-2.0625,-18.0001
14:05:59.229,-2.0625,-20.0626
14:05:59.238,-2.25,-22.1876
14:05:59.248,-2.8125,-22.9376
14:05:59.258,-4.625,-24.3751
14:05:59.269,-4.1875,-26.6876
14:05:59.278,-5.1875,-28.0001
14:05:59.288,-5.5,-29.6876
14:05:59.298,-7,-31.4376
14:05:59.308,-7.5625,-34.3751
14:05:59.318,-8.875,-36.0626
14:05:59.328,-9.0625,-37.5626
14:05:59.338,-10.125,-40.6252
14:05:59.348,-10.6875,-42.0627
14:05:59.359,-12.0625,-44.5627
14:05:59.368,-13,-45.6252
14:05:59.378,-13,-48.0002
14:05:59.388,-12.0625,-44.6252
14:05:59.398,-9.25,-40.0627
14:05:59.409,-3.9375,-28.8126
14:05:59.426,2.8125,-13.2501
14:05:59.428,9.75,3.125
14:05:59.447,15.3751,18.7501
14:05:59.451,20.0626,30.8751
14:05:59.459,23.5001,39.1251
14:05:59.468,25.0001,44.6877
14:05:59.479,26.6876,48.6877
14:05:59.488,26.3751,49.8752
14:05:59.498,25.4376,49.9377
14:05:59.509,25.0626,47.5627
14:05:59.518,23.1876,46.8127
14:05:59.528,22.5001,43.8752
14:05:59.539,21.3126,42.8752
14:05:59.548,20.6876,40.5627
14:05:59.558,20.3751,40.1877
14:05:59.568,20.0001,38.0626
14:05:59.579,20.0001,38.3126
14:05:59.588,18.8751,35.4376
14:05:59.630,17.3751,33.5626
14:05:59.632,16.3751,31.5626
14:05:59.634,15.3751,28.0001
14:05:59.643,13.6876,25.8751
14:05:59.645,13.3126,22.6876
14:05:59.648,11.8125,21.3126
14:05:59.685,10.875,19.7501
14:05:59.689,11,17.8751
14:05:59.713,11.3125,17.4376
14:05:59.714,11.125,17.3751
14:05:59.715,10.625,16.9376
14:05:59.719,11.3125,16.6876
14:05:59.722,9.875,17.2501
14:05:59.760,10.625,16.2501
14:05:59.762,9.625,14.8751
14:05:59.764,9,14.0001
14:05:59.767,8.4375,12
14:05:59.770,7.0625,9.8125
14:05:59.782,6.6875,7.1875
14:05:59.788,5.8125,5.1875
14:05:59.802,4.9375,3
14:05:59.809,3.8125,-0.5625
14:05:59.818,2.3125,-3.625
14:05:59.830,2.0625,-6.125
14:05:59.838,0.4375,-8.875
14:05:59.848,-1.0625,-11.9375
14:05:59.858,-2.3125,-15.3751
14:05:59.868,-3.5,-17.8126
14:05:59.878,-4.4375,-19.3126
14:05:59.888,-5.0625,-21.6251
14:05:59.899,-6.0625,-24.5001
14:05:59.909,-7.5625,-26.3751
14:05:59.918,-8.4375,-27.6251
14:05:59.928,-8.3125,-30.5001
14:05:59.938,-9.625,-30.7501
14:05:59.948,-10.25,-33.4376
14:05:59.958,-11,-35.6251
14:05:59.969,-11.125,-36.9376
14:05:59.978,-12.8125,-38.2501
14:05:59.989,-12.375,-41.1877
14:05:59.998,-14.4376,-43.5627
14:06:00.009,-15.0626,-45.3752
14:06:00.018,-16.1876,-48.1877
14:06:00.029,-16.9376,-49.9377
14:06:00.038,-17.1876,-52.0002
14:06:00.048,-18.0626,-53.6877
14:06:00.060,-17.5001,-53.5627
14:06:00.068,-17.0001,-51.6252
14:06:00.079,-12.5625,-43.5627
14:06:00.091,-6.125,-30.1876
14:06:00.098,1.5625,-12.3125
14:06:00.108,8.0625,4.5625
14:06:00.118,14.0001,20.8126
14:06:00.128,18.6251,31.1251
14:06:00.138,21.1876,39.6252
14:06:00.150,22.4376,44.1877
14:06:00.158,23.4376,47.3752
14:06:00.169,23.2501,47.3752
14:06:00.183,23.2501,47.8752
14:06:00.188,22.1251,45.5627
14:06:00.198,21.4376,44.0627
14:06:00.209,19.9376,40.6877
14:06:00.218,19.1251,39.9377
14:06:00.228,18.5626,36.5001
14:06:00.238,17.4376,35.9376
14:06:00.248,17.5001,33.8751
14:06:00.259,15.9376,33.3751
14:06:00.270,15.9376,30.8751
14:06:00.283,15.0001,28.1251
14:06:00.299,13.5001,25.3126
14:06:00.299,12.25,23.9376
14:06:00.309,11.4375,19.9376
14:06:00.347,10.0625,18.5001
14:06:00.350,10.375,16.0001
14:06:00.352,9.875,15.5001
14:06:00.354,9.5625,14.5001
14:06:00.361,9.0625,14.3751
14:06:00.390,9.3125,14.7501
14:06:00.392,9.625,13.8751
14:06:00.394,9.4375,14.9376
14:06:00.399,9.125,13.9376
14:06:00.428,8.5625,12.625
14:06:00.430,7.9375,12.3125
14:06:00.433,7.375,9.75
14:06:00.440,6.9375,8.0625
14:06:00.471,6.375,6.875
14:06:00.473,5.125,3.9375
14:06:00.475,3.8125,1.3125
14:06:00.478,3.375,0.1875
14:06:00.489,2.5625,-4.125
14:06:00.498,0.8125,-6.0625
14:06:00.509,-0.375,-9.5
14:06:00.518,-1.1875,-13.2501
14:06:00.529,-2.6875,-15.7501
14:06:00.540,-3.1875,-17.7501
14:06:00.548,-4.4375,-21.3126
14:06:00.562,-5.375,-23.2501
14:06:00.568,-5.5,-24.8126
14:06:00.578,-6.4375,-26.8126
14:06:00.588,-7.125,-28.8751
14:06:00.598,-7.8125,-31.2501
14:06:00.608,-9.0625,-33.3126
14:06:00.619,-10.4375,-34.8126
14:06:00.628,-10.375,-37.6251
14:06:00.638,-11.0625,-39.5627
14:06:00.648,-11.9375,-41.3127
14:06:00.658,-13,-43.1252
14:06:00.668,-13.7501,-46.1252
14:06:00.680,-13.6876,-47.3127
14:06:00.689,-14.8751,-48.8752
14:06:00.698,-15.5001,-51.2502
14:06:00.710,-16.3126,-53.0002
14:06:00.728,-15.7501,-52.4377
14:06:00.730,-14.8126,-50.1252
14:06:00.745,-10.125,-43.5627
14:06:00.749,-4.5,-28.6876
14:06:00.758,2.8125,-12.25
14:06:00.768,9.75,5.4375
14:06:00.778,15.1251,19.1251
14:06:00.789,19.5001,30.3751
14:06:00.799,21.8126,37.1876
14:06:00.809,24.0626,42.8127
14:06:00.819,23.8126,44.5627
14:06:00.828,24.0626,44.7502
14:06:00.838,23.1251,43.1877
14:06:00.848,22.0001,41.7502
14:06:00.858,20.5001,38.8126
14:06:00.868,18.5626,36.6251
14:06:00.878,17.1251,33.6876
14:06:00.889,15.2501,32.2501
14:06:00.915,14.7501,30.2501
14:06:00.917,13.0625,29.1876
14:06:00.921,7.8125,27.4376
14:06:00.929,3.0625,23.3751
14:06:00.943,-6.25,16.8126
14:06:00.949,-15.1876,10.375
14:06:00.958,-25.1251,1.5
14:06:00.968,-35.6251,-4.8125
14:06:00.980,-41.8127,-10.5625
14:06:00.988,-46.5627,-13.3751
14:06:00.998,-49.2502,-13.5626
14:06:01.010,-53.1877,-13.7501
14:06:01.018,-54.8127,-10.6875
14:06:01.029,-63.6252,-19.3751
14:06:01.046,-66.2503,-23.4376
14:06:01.048,-68.3753,-23.1876
14:06:01.081,-68.7503,-23.3751
14:06:01.083,-67.0628,-21.3751
14:06:01.085,-67.5003,-22.5001
14:06:01.088,-69.5628,-24.2501
14:06:01.131,-69.6878,-27.0626
14:06:01.132,-71.1878,-28.0001
14:06:01.134,-71.8753,-31.2501
14:06:01.138,-71.1253,-32.4376
14:06:01.143,-69.5003,-33.0626
14:06:01.158,-63.8127,-32.2501
14:06:01.159,-56.9377,-28.8751
14:06:01.187,-49.5627,-25.3126
14:06:01.191,-39.0001,-19.7501
14:06:01.192,-30.1876,-12.625
14:06:01.218,-21.5001,-5.75
14:06:01.223,-10,1
14:06:01.224,4,11.75
14:06:01.230,16.1251,20.1876
14:06:01.238,26.1251,27.6251
14:06:01.249,33.0626,33.6251
14:06:01.259,39.1251,36.1251
14:06:01.268,42.5002,37.5001
14:06:01.279,46.2502,38.3126
14:06:01.288,46.8752,38.4376
14:06:01.300,47.6252,36.2501
14:06:01.309,47.3127,36.4376
14:06:01.319,49.2502,35.5001
14:06:01.330,53.5002,37.7501
14:06:01.339,57.5002,40.6252
14:06:01.352,63.8752,44.0627
14:06:01.358,71.1253,49.8127
14:06:01.369,76.5628,56.0002
14:06:01.379,78.2503,61.8752
14:06:01.391,81.5628,72.0628
14:06:01.399,85.8753,86.7503
14:06:01.409,104.3754,106.5629
14:06:01.419,142.563,141.688
14:06:01.430,183.4382,178.1882
14:06:01.441,226.0634,216.6883
14:06:01.449,263.876,251.7509
14:06:01.459,294.9386,278.4386
14:06:01.469,316.6262,298.8762
14:06:01.479,330.1888,308.0637
14:06:01.489,339.8138,316.1262
14:06:01.498,344.5638,317.8137
14:06:01.510,343.3138,315.6262
14:06:01.519,333.7513,305.5012
14:06:01.529,318.5012,291.6261
14:06:01.538,291.5011,271.251
14:06:01.549,254.501,241.2509
14:06:01.560,208.1258,204.5008
14:06:01.578,151.4381,159.1881
14:06:01.584,102.1254,116.3754
14:06:01.599,62.1252,81.5003
14:06:01.602,40.2502,62.7502
14:06:01.610,25.1876,54.9377
14:06:01.618,18.2501,48.1252
14:06:01.629,12.9375,43.5002
14:06:01.639,8.9375,39.2502
14:06:01.649,5.6875,36.8751
14:06:01.658,7.1875,39.3752
14:06:01.670,13.1251,42.9377
14:06:01.678,21.1251,48.5002
14:06:01.691,31.3126,56.8127
14:06:01.702,37.9376,63.3752
14:06:01.710,40.3127,63.3127
14:06:01.719,45.3752,66.4378
14:06:01.729,49.6877,69.1253
14:06:01.740,54.1252,71.6253
14:06:01.748,61.5627,75.8753
14:06:01.759,68.0628,76.6878
14:06:01.778,69.8753,74.1253
14:06:01.780,67.0003,68.9378
14:06:01.820,60.6877,60.8127
14:06:01.822,52.7502,53.1877
14:06:01.824,45.4377,45.1252
14:06:01.827,35.1876,38.3126
14:06:01.830,25.3751,29.0001
14:06:01.838,22.4376,26.4376
14:06:01.872,35.3751,32.0001
14:06:01.874,59.5627,48.2502
14:06:01.877,82.3128,62.8752
14:06:01.880,100.6879,75.8128
14:06:01.911,120.063,85.8753
14:06:01.915,132.5005,93.1879
14:06:01.916,145.063,98.9379
14:06:01.919,155.6881,105.8754
14:06:01.949,164.8756,108.8129
14:06:01.952,169.4381,109.3129
14:06:01.954,171.0632,107.3129
14:06:01.959,167.8756,101.4379
14:06:01.969,157.4381,89.8128
14:06:01.980,137.8755,72.3128
14:06:01.990,108.1879,48.6877
14:06:02.000,68.1253,18.0001
14:06:02.009,33.3126,-6.3125
14:06:02.024,13,-14.6251
14:06:02.040,2.5625,-8.6875
14:06:02.043,-1.3125,5.125
14:06:02.053,0.5,19.7501
14:06:02.060,4.9375,33.9376
14:06:02.069,10.875,46.1877
14:06:02.079,17.9376,55.2502
14:06:02.089,19.8126,60.9377
14:06:02.099,23.8126,66.0003
14:06:02.110,25.5626,69.5628
14:06:02.119,23.8751,69.0003
14:06:02.129,24.4376,68.0003
14:06:02.166,25.3751,69.7503
14:06:02.169,26.3751,68.6878
14:06:02.193,25.5626,69.0628
14:06:02.198,22.9376,65.3752
14:06:02.199,20.7501,63.6252
14:06:02.199,19.0001,61.1877
14:06:02.206,17.6251,59.5627
14:06:02.214,17.6876,57.8127
14:06:02.227,18.8126,55.8127
14:06:02.235,21.8751,55.5627
14:06:02.244,28.2501,57.5627
14:06:02.254,36.2189,59.2502
14:06:02.264,41.9064,60.8752
14:06:02.276,51.1252,65.0002
14:06:02.284,55.5627,66.6253
14:06:02.294,56.2815,64.8752
14:06:02.305,48.8127,57.8752
14:06:02.315,41.8439,52.1877
14:06:02.326,32.5626,45.8127
14:06:02.334,28.3439,42.5002
14:06:02.345,27.3439,41.1877
14:06:02.354,36.2189,44.2502
14:06:02.364,62.344,62.0627
14:06:02.374,93.1879,81.5628
14:06:02.385,121.938,101.1254
14:06:02.394,145.4693,115.4379
14:06:02.404,162.4694,124.438
14:06:02.414,171.7194,127.2505
14:06:02.424,175.1569,125.563
14:06:02.434,173.3444,119.6255
14:06:02.444,170.7506,113.3129
14:06:02.454,165.9069,106.5629
14:06:02.480,154.0943,94.0629
14:06:02.482,136.0318,77.6253
14:06:02.485,111.7817,56.8127
14:06:02.513,79.9378,30.8751
14:06:02.516,47.5002,4.375
14:06:02.518,18.0313,-19.9376
