timestamp,Red,IR
13:28:46.269,0.6875,9.3125
13:28:46.280,1,10.9375
13:28:46.289,2.125,12.25
13:28:46.299,2.3125,11.8125
13:28:46.309,2.1875,12.3125
13:28:46.319,0.625,10.75
13:28:46.329,-0.5625,8.5625
13:28:46.340,-1.75,5.5
13:28:46.349,-4.3125,2.5
13:28:46.362,-5.75,-1.1875
13:28:46.370,-7.6875,-5.9375
13:28:46.379,-9.75,-10.25
13:28:46.390,-11.9375,-16.2501
13:28:46.400,-14.6876,-20.0626
13:28:46.409,-16.7501,-25.6876
13:28:46.420,-19.8751,-31.0626
13:28:46.430,-21.8751,-36.8751
13:28:46.440,-24.6876,-41.5002
13:28:46.450,-26.0626,-46.0002
13:28:46.459,-28.4376,-51.8752
13:28:46.470,-29.9376,-54.6877
13:28:46.479,-31.4376,-60.6252
13:28:46.490,-33.9376,-64.1252
13:28:46.500,-36.0626,-68.5003
13:28:46.510,-37.4376,-71.2503
13:28:46.520,-39.2502,-74.5003
13:28:46.530,-40.1252,-78.1878
13:28:46.540,-40.5627,-79.5628
13:28:46.577,-41.6877,-81.2503
13:28:46.579,-42.3127,-84.6878
13:28:46.582,-42.9377,-85.1253
13:28:46.585,-43.8127,-88.0003
13:28:46.590,-44.1252,-89.5003
13:28:46.621,-45.3752,-89.6878
13:28:46.623,-45.6252,-93.0004
13:28:46.627,-46.0002,-93.5004
13:28:46.650,-48.0002,-96.0004
13:28:46.652,-47.3752,-97.0629
13:28:46.654,-46.9377,-96.1879
13:28:46.660,-42.5627,-89.4378
13:28:46.675,-32.8751,-70.8753
13:28:46.680,-19.7501,-40.7502
13:28:46.698,-3.25,-8.375
13:28:46.704,10.75,24.2501
13:28:46.720,25.6876,52.4377
13:28:46.721,38.1251,79.2503
13:28:46.730,46.5627,100.0629
13:28:46.739,53.5002,115.5004
13:28:46.750,55.7502,124.2505
13:28:46.761,57.7502,127.0005
13:28:46.771,57.8127,129.688
13:28:46.780,56.4377,126.063
13:28:46.792,54.1252,122.0005
13:28:46.803,49.7502,115.7504
13:28:46.811,46.0002,106.3129
13:28:46.820,41.0627,97.1254
13:28:46.835,36.3126,87.6253
13:28:46.845,31.0626,75.7503
13:28:46.856,25.5001,65.6253
13:28:46.865,20.2501,54.9377
13:28:46.875,14.5626,44.5627
13:28:46.886,10.25,32.9376
13:28:46.895,5,22.5626
13:28:46.905,1.4375,12.9375
13:28:46.915,-2.6875,5.3125
13:28:46.925,-5.875,-1.375
13:28:46.941,-7.125,-6.4375
13:28:46.945,-9,-9.3125
13:28:46.955,-8.875,-8.4375
13:28:46.966,-7.8125,-8.875
13:28:46.977,-6.5625,-6.4375
13:28:46.985,-4.6875,-4.0625
13:28:46.995,-3.5,-0.0625
13:28:47.005,-0.6875,2.75
13:28:47.015,-0.5,3.9375
13:28:47.026,0.3125,4.0625
13:28:47.036,-0.4375,3.6875
13:28:47.046,-0.1875,2.75
13:28:47.055,-0.8125,1.375
13:28:47.065,-2.375,-1.6875
13:28:47.075,-3.3125,-6.6875
13:28:47.085,-5.6875,-9.4375
13:28:47.095,-7.875,-15.6876
13:28:47.105,-10.625,-21.1251
13:28:47.115,-13.5626,-25.9376
13:28:47.127,-16.3751,-33.5626
13:28:47.135,-18.3751,-37.0626
13:28:47.145,-21.5626,-42.8752
13:28:47.155,-22.7501,-47.6877
13:28:47.165,-25.6876,-51.3127
13:28:47.176,-27.6251,-56.3127
13:28:47.185,-28.1251,-60.1877
13:28:47.196,-30.6251,-63.0627
13:28:47.206,-32.4376,-67.5628
13:28:47.215,-33.7501,-70.4378
13:28:47.227,-34.9376,-74.6253
13:28:47.235,-36.0001,-76.4378
13:28:47.245,-37.9376,-78.5003
13:28:47.256,-39.2501,-81.5003
13:28:47.266,-39.1877,-83.7503
13:28:47.275,-40.9377,-85.1878
13:28:47.304,-41.9377,-88.2503
13:28:47.305,-42.8127,-90.3128
13:28:47.311,-43.5002,-92.0004
13:28:47.317,-44.4377,-93.1879
13:28:47.325,-44.5002,-95.3754
13:28:47.335,-43.8752,-93.8754
13:28:47.345,-40.2502,-88.6253
13:28:47.355,-31.8751,-73.1878
13:28:47.365,-19.5626,-48.1877
13:28:47.375,-4.3125,-14.6251
13:28:47.385,9.5625,15.1251
13:28:47.396,23.6251,42.6252
13:28:47.405,34.1876,68.9378
13:28:47.415,43.6877,88.3753
13:28:47.427,50.0002,104.0004
13:28:47.447,52.5002,113.0004
13:28:47.449,54.1252,116.6879
13:28:47.459,53.2502,117.688
13:28:47.465,52.0002,115.6254
13:28:47.481,47.1252,108.7504
13:28:47.489,43.8752,101.3129
13:28:47.495,39.5627,94.0004
13:28:47.505,34.8751,83.1253
13:28:47.515,29.9376,73.5628
13:28:47.525,24.6876,61.8752
13:28:47.537,20.3751,51.8127
13:28:47.545,13.7501,41.1252
13:28:47.556,8.5,29.0001
13:28:47.566,2.125,17.3751
13:28:47.575,-2.0625,6.4375
13:28:47.586,-5.4375,-3.0625
13:28:47.595,-9,-9.0625
13:28:47.605,-10.3125,-14.1876
13:28:47.617,-10.75,-17.3126
13:28:47.625,-10.6875,-16.8751
13:28:47.635,-8.875,-14.8126
13:28:47.645,-6.6875,-12.625
13:28:47.656,-4.875,-8.0625
13:28:47.666,-3.1875,-3.9375
13:28:47.676,-1.3125,-2.0625
13:28:47.689,-0.0625,1.4375
13:28:47.698,1.5625,1.4375
13:28:47.705,0.9375,3.625
13:28:47.716,1.125,2.5625
13:28:47.725,0.125,1.125
13:28:47.736,-0.1875,-1.5625
13:28:47.745,-1.875,-3.6875
13:28:47.755,-3.5625,-7.3125
13:28:47.766,-4.625,-11.3125
13:28:47.776,-8.3125,-16.5626
13:28:47.785,-10.5625,-21.1251
13:28:47.815,-12.875,-26.1251
13:28:47.819,-15.4376,-32.1876
13:28:47.822,-17.0626,-35.9376
13:28:47.827,-20.0001,-40.0627
13:28:47.854,-21.5001,-46.1877
13:28:47.857,-24.3126,-49.2502
13:28:47.859,-26.1251,-53.9377
13:28:47.867,-28.6876,-57.6252
13:28:47.908,-30.8126,-63.0002
13:28:47.910,-31.8751,-66.3128
13:28:47.912,-33.1876,-68.8128
13:28:47.937,-35.0626,-72.2503
13:28:47.937,-35.1251,-75.1253
13:28:47.938,-36.8751,-75.9378
13:28:47.939,-37.6251,-80.3128
13:28:47.946,-39.3126,-83.0628
13:28:47.955,-40.8127,-84.8753
13:28:47.965,-39.0001,-84.0003
13:28:47.975,-35.9376,-78.0003
13:28:47.986,-27.4376,-62.8752
13:28:48.002,-15.0001,-35.5626
13:28:48.010,-1.1875,-6.0625
13:28:48.015,12.25,21.8751
13:28:48.032,25.1876,46.6877
13:28:48.048,36.7501,72.0628
13:28:48.051,44.7502,89.9378
13:28:48.057,51.0627,105.3129
13:28:48.069,55.0002,113.7504
13:28:48.076,55.2502,117.2504
13:28:48.086,55.5002,117.2504
13:28:48.095,52.6252,113.8129
13:28:48.106,49.5002,108.0004
13:28:48.115,45.5627,100.9379
13:28:48.125,41.0627,90.8129
13:28:48.135,36.0626,82.3753
13:28:48.148,30.5001,73.1878
13:28:48.156,25.1876,61.1877
13:28:48.167,19.2501,50.5002
13:28:48.175,13,38.5001
13:28:48.185,7.5625,25.2501
13:28:48.196,1.5625,14.0001
13:28:48.206,-3.625,4.1875
13:28:48.216,-7.25,-4.625
13:28:48.227,-10.3125,-10.5
13:28:48.236,-10.8125,-13.7501
13:28:48.246,-11.875,-16.0626
13:28:48.255,-11.75,-14.7501
13:28:48.265,-10.25,-13.6876
13:28:48.275,-9.25,-10.875
13:28:48.287,-6.4375,-7.0625
13:28:48.305,-6.1875,-4
13:28:48.311,-3.375,-0.8125
13:28:48.320,-1.5625,0.625
13:28:48.331,-2.0625,2.8125
13:28:48.340,-1.25,1.4375
13:28:48.351,-1.3125,1.125
13:28:48.361,-2.3125,-0.0625
13:28:48.371,-3.25,-2.75
13:28:48.380,-5.8125,-6
13:28:48.391,-7.25,-10.9375
13:28:48.400,-8.9375,-13.125
13:28:48.410,-11.1875,-18.6876
13:28:48.420,-12.8125,-23.5001
13:28:48.430,-16.3751,-28.0626
13:28:48.442,-18.1251,-33.5626
13:28:48.453,-21.1876,-38.3126
13:28:48.460,-14.9376,-24.1876
13:28:48.470,-26.4376,-49.6877
13:28:48.481,-29.1251,-54.6252
13:28:48.490,-31.0001,-59.6252
13:28:48.524,-32.6251,-62.5627
13:28:48.527,-34.4376,-66.5003
13:28:48.528,-36.1251,-69.2503
13:28:48.535,-37.5001,-72.1878
13:28:48.541,-38.3126,-76.0003
13:28:48.551,-40.0002,-77.6878
13:28:48.561,-40.3127,-80.3753
13:28:48.570,-39.8752,-81.6878
13:28:48.580,-39.3127,-77.8128
13:28:48.591,-33.0001,-66.8128
13:28:48.602,-21.0626,-43.4377
13:28:48.610,-6.8125,-11.8125
13:28:48.620,7.5,15.2501
13:28:48.630,22.3751,44.3752
13:28:48.641,35.2501,71.1878
13:28:48.650,45.4377,95.8754
13:28:48.661,52.8752,111.0629
13:28:48.671,57.5002,123.438
13:28:48.681,61.1252,129.813
13:28:48.691,60.5002,133.188
13:28:48.703,60.5002,132.188
13:28:48.711,58.2502,129.6255
13:28:48.723,55.5002,124.5005
13:28:48.730,50.6877,117.2504
13:28:48.741,46.1877,107.7504
13:28:48.753,41.1252,99.6254
13:28:48.767,36.9376,89.4378
13:28:48.773,31.6876,80.5003
13:28:48.780,27.4376,69.8753
13:28:48.797,20.8751,58.3752
13:28:48.818,16.6251,47.5627
13:28:48.820,11.75,38.1251
13:28:48.822,7.3125,28.4376
13:28:48.833,3.9375,20.1876
13:28:48.842,1.3125,15.0626
13:28:48.851,0.4375,11.875
13:28:48.860,-0.375,10
13:28:48.870,0.125,11.0625
13:28:48.881,1.25,12.125
13:28:48.890,2.75,13.4376
13:28:48.900,4.6875,17.2501
13:28:48.911,6,19.0001
13:28:48.920,6.9375,22.0626
13:28:48.930,8.6875,23.0626
13:28:48.941,9.0625,23.2501
13:28:48.951,8.6875,23.0001
13:28:48.961,8.5,21.4376
13:28:48.970,7.3125,19.1251
13:28:48.980,5.5,15.6251
13:28:48.991,2.375,11.8125
13:28:49.000,0.1875,6.0625
13:28:49.011,-2.6875,1.4375
13:28:49.020,-4.125,-3.5625
13:28:49.030,-6.75,-8.8125
13:28:49.042,-8.875,-12.5625
13:28:49.051,-10.5625,-19.0001
13:28:49.062,-13,-23.6876
13:28:49.071,-15.6251,-28.9376
13:28:49.081,-18.5001,-33.4376
13:28:49.090,-22.4376,-39.0627
13:28:49.101,-24.2501,-43.6877
13:28:49.111,-26.2501,-47.6252
13:28:49.121,-27.4376,-51.1252
13:28:49.130,-28.9376,-55.1252
13:28:49.140,-30.6251,-57.6252
13:28:49.151,-32.7501,-60.4377
13:28:49.161,-34.2501,-63.8752
13:28:49.171,-36.1251,-65.5003
13:28:49.181,-37.0001,-69.0003
13:28:49.222,-38.5001,-70.5003
13:28:49.222,-38.6876,-72.8128
13:28:49.225,-38.4376,-74.1253
13:28:49.227,-38.5626,-75.0628
13:28:49.231,-37.1251,-74.3753
13:28:49.262,-33.8126,-68.0628
13:28:49.264,-24.8751,-51.6252
13:28:49.265,-11,-22.6251
13:28:49.273,4.0625,7.25
13:28:49.289,19.3751,36.5001
13:28:49.319,34.4376,67.5628
13:28:49.364,47.0002,94.6254
13:28:49.366,55.8127,116.2504
13:28:49.382,63.0002,130.563
13:28:49.386,66.4378,140.188
13:28:49.386,69.1253,145.938
13:28:49.386,69.0628,147.8756
13:28:49.391,67.6878,147.1256
13:28:49.400,66.2503,143.438
13:28:49.411,63.8752,139.563
13:28:49.420,60.1877,132.688
13:28:49.433,56.1877,126.063
13:28:49.442,52.3127,118.2505
13:28:49.451,48.5002,109.2504
13:28:49.462,44.0002,101.4379
13:28:49.472,39.3127,92.1879
13:28:49.482,34.7501,82.6878
13:28:49.494,29.5626,73.3128
13:28:49.502,25.5001,63.6252
13:28:49.511,21.1251,56.4377
13:28:49.521,17.8751,49.0002
13:28:49.532,15.9376,42.8752
13:28:49.540,14.5001,38.8751
13:28:49.552,13.6251,37.8751
13:28:49.562,14.5626,38.5001
13:28:49.572,15.6876,40.3127
13:28:49.581,16.6251,41.4377
13:28:49.590,16.0626,42.4377
13:28:49.600,17.3126,42.6877
13:28:49.612,17.1876,41.5002
13:28:49.620,15.5626,39.1251
13:28:49.632,14.5626,35.2501
13:28:49.641,12.5,32.3126
13:28:49.653,10.0625,26.8126
13:28:49.662,7.9375,22.4376
13:28:49.672,5.5625,17.8751
13:28:49.683,3.625,11.6875
13:28:49.690,0.0625,6.5
13:28:49.702,-1.6875,1.625
13:28:49.711,-3.8125,-4.625
13:28:49.721,-7.0625,-9.625
13:28:49.732,-10.1875,-15.4376
13:28:49.740,-12.9375,-22.2501
13:28:49.752,-14.5626,-27.0626
13:28:49.762,-16.8126,-32.0626
13:28:49.772,-19.3751,-35.6876
13:28:49.804,-20.6251,-39.7502
13:28:49.806,-22.6876,-43.5627
13:28:49.809,-24.6251,-46.4377
13:28:49.815,-25.4376,-50.6877
13:28:49.823,-27.0626,-52.5002
13:28:49.832,-28.0626,-55.1252
13:28:49.844,-29.1251,-57.1877
13:28:49.851,-30.6876,-59.0002
13:28:49.863,-31.0626,-61.1877
13:28:49.873,-31.3126,-62.9377
13:28:49.883,-32.2501,-64.0002
13:28:49.892,-33.0001,-67.1253
13:28:49.902,-33.4376,-67.8753
13:28:49.911,-34.1251,-69.1878
13:28:49.922,-34.3751,-71.0003
13:28:49.933,-34.9376,-72.6878
13:28:49.948,-36.3751,-74.4378
13:28:49.952,-36.3751,-76.8753
13:28:49.962,-38.0626,-76.0003
13:28:49.972,-35.6876,-75.5628
13:28:49.981,-30.5001,-65.1253
13:28:49.992,-19.5626,-42.2502
13:28:50.002,-4.4375,-12.4375
13:28:50.011,9.1875,17.3751
13:28:50.022,24.5626,47.3752
13:28:50.031,38.4376,78.3753
13:28:50.041,49.1252,103.0629
13:28:50.052,56.5002,122.313
13:28:50.062,62.0002,134.1255
13:28:50.083,66.0628,142.8755
13:28:50.085,67.1253,148.8756
13:28:50.095,67.2503,148.0631
13:28:50.102,66.1878,147.2506
13:28:50.117,62.6252,142.688
13:28:50.124,59.8752,137.188
13:28:50.131,55.9377,131.1255
13:28:50.142,51.5002,122.813
13:28:50.153,47.5002,116.0004
13:28:50.162,43.7502,109.5629
13:28:50.174,41.0002,100.5004
13:28:50.181,36.1251,93.0629
13:28:50.192,32.1251,83.5628
13:28:50.202,27.4376,74.6878
13:28:50.212,23.8751,66.1253
13:28:50.221,20.1251,58.4377
13:28:50.231,17.2501,51.6252
13:28:50.244,14.2501,46.3752
13:28:50.253,12.625,41.5002
13:28:50.261,10.9375,39.8127
13:28:50.271,10.75,36.5626
13:28:50.282,9.9375,36.1876
13:28:50.292,9.9375,36.3751
13:28:50.302,10.9375,37.3126
13:28:50.312,12.3125,38.8126
13:28:50.324,13.0625,40.0002
13:28:50.331,13.6876,40.9377
13:28:50.342,14.0001,39.6252
13:28:50.351,12.375,38.2501
13:28:50.362,11.8125,35.5001
13:28:50.371,10.5,32.6251
13:28:50.382,8.4375,28.3126
13:28:50.392,4.6875,23.0001
13:28:50.402,2.625,18.0001
13:28:50.412,0.375,12.375
13:28:50.422,-2.625,7.3125
13:28:50.433,-5.6875,0.875
13:28:50.442,-8.4375,-5.1875
13:28:50.452,-11.75,-10.3125
13:28:50.462,-13.7501,-16.8126
13:28:50.471,-17.3751,-21.8126
13:28:50.481,-20.0626,-28.1251
13:28:50.492,-23.6876,-34.3751
13:28:50.502,-25.8126,-38.4376
13:28:50.511,-27.5626,-44.7502
13:28:50.521,-29.8751,-48.6877
13:28:50.532,-32.2501,-53.0002
13:28:50.541,-33.6251,-57.1252
13:28:50.552,-35.3751,-60.0627
13:28:50.563,-37.0001,-64.3752
13:28:50.572,-38.0001,-66.7503
13:28:50.582,-39.0001,-69.6878
13:28:50.592,-39.5627,-70.0003
13:28:50.602,-39.7502,-72.6253
13:28:50.612,-39.5002,-72.8753
13:28:50.621,-40.1877,-73.6878
13:28:50.631,-40.4377,-76.7503
13:28:50.646,-41.1877,-78.7503
13:28:50.655,-42.3752,-81.0628
13:28:50.662,-43.5002,-82.8753
13:28:50.691,-44.4377,-84.6253
13:28:50.693,-45.3127,-87.2503
13:28:50.733,-46.1877,-88.3753
13:28:50.739,-47.1877,-91.3129
13:28:50.741,-47.6252,-92.9379
13:28:50.742,-48.3752,-95.0629
13:28:50.742,-48.3127,-96.8754
13:28:50.748,-50.0002,-96.5629
13:28:50.774,-49.3127,-98.5629
13:28:50.775,-44.9377,-92.2504
13:28:50.778,-37.3751,-77.5003
13:28:50.817,-24.0001,-50.6877
13:28:50.818,-9.75,-18.8126
13:28:50.822,5.75,9.5625
13:28:50.822,20.8751,42.0627
13:28:50.828,33.8751,68.9378
13:28:50.839,44.1877,92.0629
13:28:50.846,50.5002,108.3754
13:28:50.857,55.3752,118.1255
13:28:50.866,57.0627,125.563
13:28:50.876,57.9377,127.813
13:28:50.886,57.7502,126.0005
13:28:50.897,54.8127,122.5005
13:28:50.907,51.0002,115.6254
13:28:50.917,48.7502,109.0004
13:28:50.927,44.3752,102.4379
13:28:50.937,41.3752,93.8754
13:28:50.947,37.0001,86.5003
13:28:50.957,33.9376,77.5628
13:28:50.967,30.2501,70.1253
13:28:50.976,25.2501,60.4377
13:28:50.986,21.0626,50.7502
13:28:50.996,16.8751,42.0627
13:28:51.007,13.0625,33.3751
13:28:51.017,10.5,28.3751
13:28:51.027,8.25,21.8126
13:28:51.039,6.875,18.8126
13:28:51.047,6.4375,17.1876
13:28:51.057,6.3125,16.5626
13:28:51.084,7.375,17.4376
13:28:51.086,8.6875,18.8126
13:28:51.088,10.4375,21.1876
13:28:51.096,11.0625,23.3751
13:28:51.107,12,24.8126
13:28:51.118,13,25.3751
13:28:51.126,12.5625,26.4376
13:28:51.137,12.125,23.8126
13:28:51.146,11.1875,21.0001
13:28:51.157,9.625,17.9376
13:28:51.167,7.6875,13.6876
13:28:51.177,4.9375,9.75
13:28:51.187,2.625,4.5
13:28:51.199,-0.75,-1.3125
13:28:51.212,-2.625,-6.6875
13:28:51.217,-6.5625,-12.625
13:28:51.227,-9.125,-17.9376
13:28:51.236,-11.25,-23.4376
13:28:51.248,-14.1876,-29.3126
13:28:51.257,-15.7501,-33.3126
13:28:51.268,-18.6251,-39.2501
13:28:51.277,-20.8126,-43.1252
13:28:51.287,-22.9376,-48.5002
13:28:51.297,-23.8126,-51.3752
13:28:51.306,-26.2501,-55.3752
13:28:51.318,-27.9376,-59.0002
13:28:51.326,-29.0001,-62.0002
13:28:51.337,-30.3126,-64.7502
13:28:51.348,-31.0626,-66.4378
13:28:51.356,-32.2501,-67.9378
13:28:51.367,-32.5001,-70.3753
13:28:51.377,-34.2501,-72.3753
13:28:51.387,-35.1251,-74.3753
13:28:51.402,-35.3751,-75.3128
13:28:51.409,-36.2501,-75.8128
13:28:51.417,-36.6251,-78.1878
13:28:51.433,-36.3751,-78.6253
13:28:51.441,-37.2501,-79.6878
13:28:51.449,-37.3126,-81.2503
13:28:51.458,-37.0626,-80.3753
13:28:51.466,-38.1876,-81.7503
13:28:51.477,-38.1251,-84.3128
13:28:51.486,-39.2501,-85.5003
13:28:51.497,-40.4377,-87.5628
13:28:51.506,-40.8127,-89.3753
13:28:51.517,-41.3127,-90.5003
13:28:51.527,-43.0002,-93.7504
13:28:51.538,-43.0002,-94.6254
13:28:51.547,-42.6252,-95.5629
13:28:51.558,-41.3752,-91.8129
13:28:51.567,-34.2501,-80.6878
13:28:51.576,-23.5626,-58.0002
13:28:51.587,-9.1875,-29.0626
13:28:51.597,4.0625,-1
13:28:51.606,20.1251,27.6251
13:28:51.616,31.7501,54.5002
13:28:51.628,42.3127,78.3753
13:28:51.637,49.6877,95.8129
13:28:51.647,54.2502,104.8129
13:28:51.657,55.6252,110.1879
13:28:51.667,55.5002,112.3129
13:28:51.678,55.1877,110.3754
13:28:51.687,52.3752,107.6254
13:28:51.698,50.0627,100.7504
13:28:51.707,46.4377,94.6879
13:28:51.718,42.3752,86.7503
13:28:51.726,39.0001,77.9378
13:28:51.737,33.3751,69.1253
13:28:51.747,29.8751,59.8127
13:28:51.756,25.3751,50.6877
13:28:51.766,20.9376,40.8127
13:28:51.777,16.0001,31.6876
13:28:51.788,11.75,22.7501
13:28:51.797,7.75,14.5626
13:28:51.807,4.375,7.1875
13:28:51.818,2.4375,2.0625
13:28:51.827,-0.1875,-0.9375
13:28:51.838,-0.625,-3.375
13:28:51.846,-1.125,-3.625
13:28:51.862,0.4375,-2.5
13:28:51.866,1.875,0.4375
13:28:51.877,3.1875,3.25
13:28:51.886,4.75,6.3125
13:28:51.897,6,8.75
13:28:51.907,6.3125,10.0625
13:28:51.916,6.9375,10.1875
13:28:51.927,7.0625,9.6875
13:28:51.937,6.3125,7.75
13:28:51.947,5.1875,5.375
13:28:51.962,3.3125,1.75
13:28:51.979,1.8125,-1.875
13:28:51.992,-0.75,-5.8125
13:28:51.996,-1.875,-10.5625
13:28:52.009,-5,-15.5001
13:28:52.024,-7.625,-21.4376
13:28:52.026,-9.375,-25.0626
13:28:52.029,-12.1875,-31.5001
13:28:52.037,-14.1876,-36.3751
13:28:52.051,-17.0001,-41.8127
13:28:52.057,-19.1251,-46.0627
13:28:52.068,-21.8751,-50.8127
13:28:52.076,-24.1876,-55.6252
13:28:52.087,-26.2501,-59.0002
13:28:52.098,-27.8126,-63.3752
13:28:52.108,-29.5001,-66.2503
13:28:52.124,-30.0626,-68.8753
13:28:52.127,-31.0626,-71.5003
13:28:52.155,-32.0626,-72.5003
13:28:52.159,-32.2501,-75.0003
13:28:52.160,-33.0626,-75.3753
13:28:52.167,-32.7501,-77.2503
13:28:52.194,-33.0001,-77.5003
13:28:52.196,-33.9376,-79.8753
13:28:52.224,-33.5001,-79.5628
13:28:52.226,-34.1876,-79.5628
13:28:52.230,-34.3126,-81.9378
13:28:52.236,-35.1876,-82.7503
13:28:52.240,-35.9376,-84.6878
13:28:52.251,-35.8126,-86.8128
13:28:52.258,-36.6876,-87.0628
13:28:52.269,-36.3751,-85.0003
13:28:52.278,-32.4376,-80.8753
13:28:52.287,-25.5626,-64.8127
13:28:52.297,-13.4376,-41.8752
13:28:52.308,-0.5625,-15.6251
13:28:52.317,12.875,9.875
13:28:52.328,26.3751,36.0001
13:28:52.364,37.3126,60.8127
13:28:52.367,45.5627,80.8753
13:28:52.369,51.4377,93.3129
13:28:52.373,53.4377,101.3129
13:28:52.383,55.7502,104.5004
13:28:52.392,55.4377,105.8129
13:28:52.405,54.0002,102.9379
13:28:52.411,52.6877,99.6879
13:28:52.423,48.1877,93.9379
13:28:52.433,44.9377,86.8753
13:28:52.442,40.6877,80.1253
13:28:52.453,36.4376,70.1878
13:28:52.462,32.7501,63.1252
13:28:52.473,28.3126,54.3127
13:28:52.482,24.1876,45.3752
13:28:52.494,19.4376,36.1251
13:28:52.501,14.0626,22.2501
13:28:52.514,9.4375,14.0626
13:28:52.522,5.5,7.3125
13:28:52.533,4.125,1.0625
13:28:52.543,1.25,-2.9375
13:28:52.553,1.125,-5.3125
13:28:52.563,0.1875,-5.6875
13:28:52.574,1.4375,-4.6875
13:28:52.583,2,-4
13:28:52.594,2.9375,-1.5
13:28:52.602,4.75,0.0625
13:28:52.613,5.25,3.8125
13:28:52.621,7.1875,5.3125
13:28:52.634,7.8125,6.75
13:28:52.643,8.125,6.6875
13:28:52.653,7.5,4.8125
13:28:52.663,6.8125,3.875
13:28:52.672,5.5,0.1875
13:28:52.683,4.5,-1.8125
13:28:52.694,3.0625,-6.25
13:28:52.703,0.9375,-10.375
13:28:52.718,-1.1875,-15.5001
13:28:52.727,-3.1875,-18.8751
13:28:52.733,-5.1875,-24.4376
13:28:52.749,-7.75,-30.4376
13:28:52.753,-10.9375,-33.8751
13:28:52.769,-13.7501,-39.6877
13:28:52.773,-15.8751,-44.6252
13:28:52.783,-18.3126,-49.9377
13:28:52.794,-21.0626,-55.8127
13:28:52.803,-22.6251,-59.5002
13:28:52.813,-25.0626,-63.5002
13:28:52.823,-26.6876,-66.8128
13:28:52.833,-28.0626,-69.5003
13:28:52.843,-29.9376,-72.4378
13:28:52.853,-31.1876,-75.8128
13:28:52.863,-33.1251,-77.3753
13:28:52.873,-34.0001,-79.6878
13:28:52.883,-35.5001,-80.3753
13:28:52.894,-35.5626,-82.8753
13:28:52.903,-35.8126,-82.6878
13:28:52.913,-36.1876,-83.1253
13:28:52.923,-36.5626,-84.0003
13:28:52.933,-37.3751,-84.5628
13:28:52.943,-38.0001,-86.8753
13:28:52.953,-38.6876,-87.5003
13:28:52.963,-39.3126,-88.5628
13:28:52.973,-39.5002,-90.5628
13:28:52.983,-39.5002,-91.4379
13:28:52.993,-41.0002,-91.0004
13:28:53.004,-38.9376,-90.9379
13:28:53.015,-35.3751,-84.3128
13:28:53.024,-28.0626,-67.2503
13:28:53.033,-15.0001,-43.1877
13:28:53.043,-0.125,-13.8751
13:28:53.054,13.4376,16.3751
13:28:53.062,27.8751,44.3752
13:28:53.074,40.3752,70.2503
13:28:53.083,48.3127,90.9379
13:28:53.093,53.8127,102.5629
13:28:53.103,58.0627,113.1879
13:28:53.113,59.3127,118.688
13:28:53.123,60.2502,119.188
13:28:53.133,60.0627,118.438
13:28:53.143,57.3127,115.6254
13:28:53.153,54.4377,109.3754
13:28:53.163,51.1252,103.6254
13:28:53.173,47.3752,97.9379
13:28:53.182,44.1252,89.0628
13:28:53.193,41.6877,82.5628
13:28:53.203,37.0001,76.2503
13:28:53.213,33.4376,67.4378
13:28:53.223,29.1876,59.2502
13:28:53.233,25.3751,51.1252
13:28:53.243,20.9376,42.1877
13:28:53.256,17.8126,34.4376
13:28:53.268,14.2501,27.4376
13:28:53.272,11.1875,21.4376
13:28:53.292,9.375,17.5001
13:28:53.298,8.8125,15.1251
13:28:53.307,8.125,14.1251
13:28:53.313,8.625,13.9376
13:28:53.330,8.625,14.7501
13:28:53.335,10.25,17.0626
13:28:53.344,11.1875,19.1251
13:28:53.353,12.375,21.0001
13:28:53.363,12.3125,21.8126
13:28:53.373,13.5626,22.3751
13:28:53.383,13.4376,23.0626
13:28:53.393,13.1251,21.3126
13:28:53.403,11.875,18.0001
13:28:53.413,10,14.5626
13:28:53.423,7.6875,10.5
13:28:53.434,5.4375,4.875
13:28:53.443,2.75,0.8125
13:28:53.453,0.375,-4.625
13:28:53.467,-3.375,-9.4375
13:28:53.474,-4.875,-14.8751
13:28:53.483,-7.3125,-20.3751
13:28:53.493,-9.4375,-25.5001
13:28:53.503,-12.4375,-29.8751
13:28:53.513,-14.5001,-35.6251
13:28:53.522,-15.7501,-38.8751
13:28:53.532,-18.5626,-44.1877
13:28:53.566,-20.3751,-48.7502
13:28:53.568,-22.3751,-52.3127
13:28:53.571,-24.6251,-56.5627
13:28:53.573,-25.6876,-60.0627
13:28:53.605,-28.0626,-62.3127
13:28:53.607,-28.5626,-64.0002
13:28:53.609,-29.1876,-66.5003
13:28:53.613,-30.1876,-67.8128
13:28:53.643,-30.8751,-70.0003
13:28:53.645,-31.0001,-71.0003
13:28:53.648,-31.0626,-72.3753
13:28:53.653,-31.8126,-72.9378
13:28:53.672,-32.0626,-74.0003
13:28:53.674,-33.4376,-74.5628
13:28:53.684,-33.2501,-77.0003
13:28:53.692,-33.5001,-77.5628
13:28:53.703,-35.4376,-79.1253
13:28:53.713,-35.6876,-80.8128
13:28:53.724,-36.8126,-82.4378
13:28:53.734,-37.1251,-84.6253
13:28:53.742,-37.0001,-85.0628
13:28:53.754,-38.8126,-85.7503
13:28:53.763,-38.6876,-88.4378
13:28:53.773,-38.2501,-88.3128
13:28:53.783,-36.0001,-84.1878
13:28:53.794,-29.6876,-74.0628
13:28:53.803,-18.8751,-51.7502
13:28:53.813,-5.3125,-23.7501
13:28:53.823,8.875,5.5625
13:28:53.834,23.6876,37.2501
13:28:53.843,37.3126,64.3752
13:28:53.853,48.8127,89.8753
13:28:53.863,56.1252,107.9379
13:28:53.873,62.2502,121.688
13:28:53.882,65.0627,129.438
13:28:53.893,66.6878,133.7505
13:28:53.903,67.0003,135.7505
13:28:53.912,66.1253,133.938
13:28:53.923,65.1877,131.813
13:28:53.933,61.8127,128.3755
13:28:53.943,60.0002,121.8755
13:28:53.953,57.3752,117.4379
13:28:53.963,54.6252,110.6254
13:28:53.973,51.7502,104.3754
13:28:53.983,48.2502,98.1879
13:28:53.995,45.2502,91.1879
13:28:54.003,41.1877,84.6878
13:28:54.013,38.3751,76.6253
13:28:54.035,34.1251,69.1253
13:28:54.037,31.1251,61.2502
13:28:54.046,27.6251,55.3127
13:28:54.053,25.5001,49.7502
13:28:54.067,22.8751,45.4377
13:28:54.083,21.7501,42.5002
13:28:54.085,21.9376,39.7502
13:28:54.094,20.6251,39.4377
13:28:54.103,21.1251,40.7502
13:28:54.114,21.5001,39.5627
13:28:54.123,22.1876,40.8752
13:28:54.133,22.2501,41.5627
13:28:54.142,23.0626,41.5002
13:28:54.153,22.5001,41.2502
13:28:54.162,21.9376,40.3752
13:28:54.174,21.5001,37.7501
13:28:54.183,20.1251,35.4376
13:28:54.193,18.1251,31.6876
13:28:54.203,16.0001,26.8126
13:28:54.219,12.5625,22.3126
13:28:54.223,10.375,17.0001
13:28:54.233,8.25,11.875
13:28:54.243,6.1875,7.125
13:28:54.254,3.5625,1.8125
13:28:54.263,1.0625,-4
13:28:54.274,-0.875,-8.375
13:28:54.283,-3.4375,-13.6251
13:28:54.293,-7.25,-19.3126
13:28:54.303,-9.0625,-24.2501
13:28:54.313,-10.875,-29.4376
13:28:54.323,-12.875,-33.5001
13:28:54.333,-14.6251,-37.1251
13:28:54.345,-16.8126,-40.8127
13:28:54.354,-18.6876,-44.1252
13:28:54.363,-20.2501,-48.9377
13:28:54.373,-21.8751,-51.3127
13:28:54.382,-23.5001,-53.2502
13:28:54.393,-23.9376,-56.0002
13:28:54.403,-24.9376,-57.2502
13:28:54.413,-25.1251,-59.8752
13:28:54.423,-26.6251,-61.6252
13:28:54.433,-27.7501,-64.4377
13:28:54.443,-29.1251,-65.3753
13:28:54.453,-29.6876,-68.1878
13:28:54.463,-30.8126,-69.0003
13:28:54.475,-31.5001,-69.8128
13:28:54.482,-31.1876,-72.0628
13:28:54.493,-32.1251,-71.7503
13:28:54.503,-32.0001,-74.0003
13:28:54.513,-31.3126,-75.8128
13:28:54.523,-32.9376,-77.3128
13:28:54.533,-33.1251,-78.6878
13:28:54.543,-34.5001,-81.0628
13:28:54.554,-35.9376,-83.5003
13:28:54.562,-36.6251,-85.1253
13:28:54.572,-37.6876,-88.1253
13:28:54.583,-36.0626,-87.3128
13:28:54.593,-33.6876,-80.8753
13:28:54.603,-26.2501,-68.0003
13:28:54.619,-13.3126,-41.6252
13:28:54.625,1.1875,-10.75
13:28:54.634,16.7501,19.6876
13:28:54.643,31.8126,51.4377
13:28:54.659,45.3752,80.8753
13:28:54.674,55.3127,105.3754
13:28:54.677,62.8127,121.563
13:28:54.683,68.0003,134.1255
13:28:54.693,70.5003,143.0005
13:28:54.702,71.7503,144.7505
13:28:54.714,70.8128,145.6255
13:28:54.723,69.3753,142.7505
13:28:54.733,67.9378,139.1255
13:28:54.743,64.3127,134.0005
13:28:54.753,61.0002,126.7505
13:28:54.763,57.4377,120.688
13:28:54.774,53.0002,113.3129
13:28:54.783,50.3127,107.0004
13:28:54.793,47.1252,99.5004
13:28:54.804,44.0002,92.7504
13:28:54.813,40.0002,84.8128
13:28:54.822,35.4376,77.0628
13:28:54.833,31.2501,68.5003
13:28:54.843,27.5626,60.5002
13:28:54.853,24.2501,53.4377
13:28:54.863,21.8126,47.6877
13:28:54.872,20.6251,44.5002
13:28:54.883,19.1876,42.0002
13:28:54.893,19.1251,41.1252
13:28:54.924,19.3126,40.0002
13:28:54.926,19.3126,41.6877
13:28:54.929,20.6251,41.5627
13:28:54.935,21.1251,43.5627
13:28:54.943,21.9376,44.2502
13:28:54.953,22.2501,45.1877
13:28:54.969,22.3751,45.1877
13:28:54.975,22.3751,43.0627
13:28:54.983,21.0626,40.9377
13:28:54.993,19.5001,37.9376
13:28:55.003,18.2501,33.6876
13:28:55.033,15.8751,29.3126
13:28:55.034,13.0625,24.8126
13:28:55.038,11,19.5626
13:28:55.043,8.1875,14.5626
13:28:55.071,5.4375,9.25
13:28:55.075,2.6875,2.75
13:28:55.076,-1.1875,-4.0625
13:28:55.111,-3.4375,-9.375
13:28:55.114,-6.375,-15.0001
13:28:55.114,-10,-20.5001
13:28:55.140,-11.4375,-25.9376
13:28:55.140,-14.3751,-30.6876
13:28:55.141,-16.8126,-34.5001
13:28:55.149,-18.3751,-38.8126
13:28:55.156,-20.5001,-43.6252
13:28:55.163,-21.7501,-45.6877
13:28:55.173,-23.1251,-50.2502
13:28:55.183,-24.4376,-51.5002
13:28:55.193,-26.1251,-53.4377
13:28:55.203,-26.1251,-56.3752
13:28:55.213,-27.5001,-57.5627
13:28:55.223,-28.3126,-58.8127
13:28:55.234,-28.5626,-61.3127
13:28:55.244,-28.8126,-61.8752
13:28:55.254,-29.9376,-62.2502
13:28:55.263,-29.7501,-64.3752
13:28:55.273,-30.6251,-64.5002
13:28:55.283,-30.7501,-67.2503
13:28:55.293,-30.5626,-67.9378
13:28:55.303,-31.8751,-69.7503
13:28:55.313,-32.4376,-72.0003
13:28:55.324,-33.0001,-73.5628
13:28:55.333,-34.2501,-74.4378
13:28:55.354,-35.8126,-78.5003
13:28:55.355,-36.9376,-80.6878
13:28:55.369,-36.8751,-80.5003
13:28:55.384,-35.8126,-78.8753
13:28:55.387,-29.1251,-67.1253
13:28:55.397,-19.0001,-43.6877
13:28:55.404,-4.625,-16.6876
13:28:55.412,9.0625,11.6875
13:28:55.423,24.0626,40.2502
13:28:55.434,37.8751,68.3128
13:28:55.443,48.8127,92.0004
13:28:55.453,55.5627,110.3754
13:28:55.463,59.9377,121.688
13:28:55.473,62.9377,129.5005
13:28:55.483,63.1877,133.313
13:28:55.493,63.1252,133.7505
13:28:55.505,62.1252,132.688
13:28:55.513,59.1252,126.813
13:28:55.524,55.6877,122.063
13:28:55.533,51.1877,113.6254
13:28:55.545,46.8127,106.1254
13:28:55.553,42.6877,98.0629
13:28:55.564,38.8126,90.3753
13:28:55.574,34.3751,81.8128
13:28:55.584,30.3751,73.4378
13:28:55.594,26.3126,64.6252
13:28:55.603,22.0001,56.1252
13:28:55.614,17.0626,47.2502
13:28:55.624,14.0626,39.5627
13:28:55.634,10.375,33.2501
13:28:55.644,8.75,28.5001
13:28:55.654,7.625,25.6251
13:28:55.663,6.625,24.5001
13:28:55.673,7.8125,23.6251
13:28:55.684,6.375,24.0626
13:28:55.693,8.3125,25.8126
13:28:55.704,7.6875,27.2501
13:28:55.714,8.375,28.4376
13:28:55.725,7.4375,28.5001
13:28:55.734,5.4375,27.7501
13:28:55.744,3.3125,25.6251
13:28:55.754,-0.4375,22.8126
13:28:55.764,-5.0625,17.5001
13:28:55.773,-10.8125,13.9376
13:28:55.784,-15.0626,7.9375
13:28:55.794,-22.2501,2.5
13:28:55.804,-29.1251,-5
13:28:55.814,-39.3751,-14.0001
13:28:55.823,-51.5002,-25.0626
13:28:55.834,-64.8127,-35.7501
13:28:55.844,-74.5003,-45.5627
13:28:55.855,-76.0628,-46.3752
13:28:55.865,-76.6253,-49.6252
13:28:55.873,-80.0628,-51.4377
13:28:55.885,-77.5628,-53.3752
13:28:55.894,-76.8128,-53.6252
13:28:55.903,-76.9378,-56.9377
13:28:55.915,-77.5003,-57.2502
13:28:55.924,-77.5003,-60.4377
13:28:55.942,-76.1878,-61.0002
13:28:55.948,-75.9378,-62.4377
13:28:55.957,-75.8128,-63.8752
13:28:55.964,-77.0003,-66.6253
13:28:55.979,-77.1878,-69.1253
13:28:55.996,-75.9378,-68.8128
13:28:55.999,-75.9378,-71.2503
13:28:56.004,-75.0003,-72.6878
13:28:56.014,-75.2503,-72.4378
13:28:56.024,-74.5628,-74.5003
13:28:56.034,-74.0003,-75.7503
13:28:56.044,-74.3128,-77.3128
13:28:56.054,-72.6878,-79.1253
13:28:56.065,-72.4378,-79.1878
13:28:56.074,-72.7503,-79.8128
13:28:56.084,-70.6253,-78.6878
13:28:56.094,-66.8128,-69.8753
13:28:56.109,-58.8752,-56.7502
13:28:56.115,-46.5627,-35.3126
13:28:56.125,-33.8126,-10.5
13:28:56.135,-19.0626,17.0626
13:28:56.144,-7.8125,42.8752
13:28:56.155,2.4375,64.8752
13:28:56.165,9.6875,82.0003
13:28:56.175,15.8126,94.8129
13:28:56.204,20.5626,106.6254
13:28:56.208,23.2501,112.1254
13:28:56.210,26.1876,118.688
13:28:56.214,27.3751,121.938
13:28:56.225,27.8751,120.688
13:28:56.234,26.8751,118.688
13:28:56.244,25.1876,115.4379
13:28:56.254,23.6251,110.0004
13:28:56.265,22.4376,105.6254
13:28:56.274,20.0626,101.2504
13:28:56.284,19.0626,94.5629
13:28:56.294,16.1251,86.6253
13:28:56.304,11.9375,78.6253
13:28:56.314,9.0625,69.8128
13:28:56.325,4.5,60.0002
13:28:56.334,1.6875,51.3127
13:28:56.350,-1.25,44.0627
13:28:56.359,-3.4375,37.1876
13:28:56.369,-6.3125,31.8126
13:28:56.380,-8.1875,26.6251
13:28:56.389,-8.6875,24.0626
13:28:56.399,-9,21.8126
13:28:56.409,-8.875,21.0626
13:28:56.419,-8.375,21.4376
13:28:56.430,-8.5,21.1876
13:28:56.459,-8.8125,21.1251
13:28:56.462,-8.0625,19.6251
13:28:56.464,-8.6875,19.9376
13:28:56.469,-7.9375,18.1251
13:28:56.504,-9.125,16.8751
13:28:56.506,-10.0625,14.2501
13:28:56.508,-12.125,11
13:28:56.512,-14.1876,6.5625
13:28:56.543,-15.3751,2.4375
13:28:56.545,-17.1251,-2.5
13:28:56.548,-18.9376,-6.625
13:28:56.554,-20.3126,-11.3125
13:28:56.565,-21.8751,-16.7501
13:28:56.569,-24.5626,-21.0626
13:28:56.583,-25.9376,-26.8126
13:28:56.589,-28.0001,-31.3126
13:28:56.599,-30.2501,-35.0001
13:28:56.609,-31.7501,-40.0627
13:28:56.621,-33.5001,-44.1877
13:28:56.629,-33.7501,-47.1252
13:28:56.639,-35.3751,-49.8127
13:28:56.649,-36.3751,-51.7502
13:28:56.669,-36.4376,-54.9377
13:28:56.671,-36.9376,-57.2502
13:28:56.681,-37.0626,-57.8752
13:28:56.689,-37.8751,-60.5002
13:28:56.704,-38.1251,-61.5627
13:28:56.711,-38.0626,-62.3752
13:28:56.719,-38.7501,-64.0627
13:28:56.729,-39.3127,-66.3128
13:28:56.741,-40.2502,-67.7503
13:28:56.749,-40.3752,-70.4378
13:28:56.759,-42.5002,-72.6253
13:28:56.769,-43.8752,-75.3753
13:28:56.779,-44.7502,-77.6878
13:28:56.790,-46.5002,-79.9378
13:28:56.799,-45.7502,-81.1253
13:28:56.809,-43.6877,-76.5628
13:28:56.820,-38.1876,-66.1878
13:28:56.830,-28.8126,-47.6877
13:28:56.839,-16.4376,-24.4376
13:28:56.851,-3.5625,2.5625
13:28:56.861,10.25,31.3126
13:28:56.869,21.5001,56.7502
13:28:56.880,31.6251,77.3128
13:28:56.891,38.0626,94.4379
13:28:56.899,43.3127,105.7504
13:28:56.910,46.4377,114.4379
13:28:56.919,48.8127,118.5005
13:28:56.930,49.8127,121.3755
13:28:56.940,49.1252,123.0005
13:28:56.949,47.6877,119.438
13:28:56.963,46.6877,117.3754
13:28:56.969,44.1877,113.0629
13:28:56.979,42.3752,107.8754
13:28:56.989,38.6876,102.6254
13:28:56.999,36.4376,96.8129
13:28:57.009,32.5626,91.6254
13:28:57.019,29.0001,84.1253
13:28:57.029,25.2501,76.1253
13:28:57.039,21.3751,68.0003
13:28:57.050,18.1876,59.7502
13:28:57.059,15.3751,51.6877
13:28:57.071,11.875,44.5627
13:28:57.079,8.8125,38.1876
13:28:57.090,6.875,32.0001
13:28:57.099,5.25,29.0001
13:28:57.109,4.9375,26.0001
13:28:57.119,4.4375,25.0626
13:28:57.129,3.5625,23.6876
13:28:57.139,2.375,22.1251
13:28:57.149,1.6875,22.5626
13:28:57.159,1.5625,21.4376
13:28:57.169,2.375,22.3751
13:28:57.179,2.4375,21.6876
13:28:57.189,1.125,20.0626
13:28:57.199,0.8125,18.0001
13:28:57.209,-1.375,15.2501
13:28:57.219,-2.625,11.8125
13:28:57.229,-5.5,7.8125
13:28:57.239,-7.0625,3.375
13:28:57.250,-10.1875,-0.5625
13:28:57.264,-9.875,-5.0625
13:28:57.283,-11.9375,-7.75
13:28:57.289,-12.125,-11.5625
13:28:57.292,-15.1876,-16.4376
13:28:57.307,-16.8126,-20.5626
13:28:57.311,-18.9376,-24.6876
13:28:57.319,-21.2501,-29.9376
13:28:57.329,-23.5626,-32.5001
13:28:57.339,-24.3126,-37.6876
13:28:57.349,-25.6251,-41.6252
13:28:57.359,-26.9376,-44.6252
13:28:57.369,-28.3751,-46.3752
13:28:57.379,-30.2501,-51.5002
13:28:57.389,-31.6251,-54.5627
13:28:57.399,-32.6251,-55.6252
13:28:57.409,-33.1876,-58.5002
13:28:57.419,-33.6876,-61.4377
13:28:57.429,-34.5001,-62.9377
13:28:57.439,-35.1251,-66.2503
13:28:57.449,-36.1251,-66.5628
13:28:57.459,-37.5001,-70.3128
13:28:57.484,-38.8126,-73.7503
13:28:57.486,-39.5002,-75.7503
13:28:57.491,-42.1252,-79.2503
13:28:57.499,-42.9377,-81.0628
13:28:57.509,-43.9377,-83.7503
13:28:57.519,-44.1877,-85.2503
13:28:57.530,-45.2502,-87.8128
13:28:57.539,-46.0627,-89.6253
13:28:57.549,-46.8752,-91.3754
13:28:57.561,-46.3127,-90.0003
13:28:57.569,-42.0627,-83.6253
13:28:57.579,-35.3126,-69.4378
13:28:57.590,-23.7501,-48.2502
13:28:57.600,-11.9375,-22.3126
13:28:57.609,1.8125,4.25
13:28:57.619,16.5626,34.1876
13:28:57.629,26.5001,59.6877
13:28:57.653,35.3751,79.1253
13:28:57.656,41.1252,94.6254
13:28:57.686,46.0627,104.1254
13:28:57.689,50.0002,113.1879
13:28:57.692,53.0002,118.6255
13:28:57.695,53.8752,121.438
13:28:57.701,53.4377,122.5005
13:28:57.739,51.3127,118.688
13:28:57.741,50.6252,116.6879
13:28:57.743,47.6252,112.3754
13:28:57.751,46.5627,107.8129
13:28:57.752,43.1877,103.3754
13:28:57.767,40.8127,97.3754
13:28:57.771,37.6876,92.9379
13:28:57.780,34.0001,83.4378
13:28:57.789,30.2501,76.6878
13:28:57.799,25.3126,66.4378
13:28:57.809,21.5626,57.6252
13:28:57.819,16.9376,49.3752
13:28:57.829,13.7501,41.1877
13:28:57.839,10.5,34.4376
13:28:57.849,7.8125,29.4376
13:28:57.859,6.8125,25.1876
13:28:57.869,5.0625,22.1876
13:28:57.879,4.0625,20.1876
13:28:57.891,2.4375,19.3126
13:28:57.900,1.6875,17.1876
13:28:57.910,0.875,17.3126
13:28:57.919,0.875,17.2501
13:28:57.931,1.375,16.6876
13:28:57.939,0.375,16.1876
13:28:57.949,0,14.8751
13:28:57.959,-2.0625,11.1875
13:28:57.969,-4.625,7.625
13:28:57.986,-6.25,4.4375
13:28:57.990,-9.1875,-0.0625
13:28:58.006,-12.1875,-5
13:28:58.021,-14.8126,-10.875
13:28:58.023,-17.8126,-15.3751
13:28:58.038,-19.1876,-20.4376
13:28:58.042,-21.1251,-25.4376
13:28:58.049,-22.2501,-28.6251
13:28:58.059,-24.0626,-34.2501
13:28:58.069,-26.5626,-37.6251
13:28:58.079,-27.6876,-43.0627
13:28:58.089,-29.2501,-46.2502
13:28:58.099,-30.8126,-50.8127
13:28:58.109,-31.6876,-53.3752
13:28:58.119,-33.6876,-58.1877
13:28:58.129,-35.0626,-59.5002
13:28:58.143,-36.4376,-63.0627
13:28:58.150,-36.9376,-66.0003
13:28:58.159,-38.0001,-69.1878
13:28:58.169,-38.7501,-70.0003
13:28:58.179,-39.5627,-72.0628
13:28:58.189,-40.8752,-75.6253
13:28:58.199,-41.6877,-76.5628
13:28:58.209,-42.2502,-78.1878
13:28:58.219,-42.6877,-80.0628
13:28:58.229,-43.0002,-81.0628
13:28:58.239,-43.4377,-82.3753
13:28:58.249,-43.5627,-84.4378
13:28:58.259,-44.6877,-85.3128
13:28:58.269,-45.0627,-87.5628
13:28:58.281,-46.3127,-90.2503
13:28:58.289,-47.7502,-92.4379
13:28:58.299,-49.4377,-95.0004
13:28:58.309,-50.2502,-98.1879
13:28:58.319,-51.3127,-100.8129
13:28:58.329,-51.2502,-101.8754
13:28:58.341,-49.8752,-99.4379
13:28:58.349,-45.7502,-90.8129
13:28:58.359,-36.5001,-73.3753
13:28:58.370,-25.2501,-50.0627
13:28:58.379,-11.75,-25.3751
13:28:58.389,2.25,4.4375
13:28:58.399,15.3751,31.0626
13:28:58.409,25.6876,55.8752
13:28:58.419,33.6876,74.9378
13:28:58.429,39.0001,86.9378
13:28:58.439,41.8127,96.6254
13:28:58.449,44.0002,101.5629
13:28:58.460,45.1252,104.5629
13:28:58.469,45.0627,105.4379
13:28:58.480,43.5627,103.8129
13:28:58.489,42.4377,99.4379
13:28:58.500,39.5627,96.2504
13:28:58.510,37.5001,90.1879
13:28:58.520,35.1876,84.5003
13:28:58.531,31.3126,78.3753
13:28:58.539,28.6876,71.0003
13:28:58.549,26.0626,64.0627
13:28:58.559,21.3751,54.8127
13:28:58.574,17.5001,46.6252
13:28:58.582,14.1876,38.3751
13:28:58.590,10.8125,29.9376
13:28:58.605,7.875,23.3751
13:28:58.610,3.9375,17.6876
13:28:58.620,2.3125,13.5626
13:28:58.629,1.25,9.75
13:28:58.640,0.375,9.125
13:28:58.649,0.9375,7.4375
13:28:58.660,0,8.375
13:28:58.670,0.0625,7.6875
13:28:58.679,-0.75,9.3125
13:28:58.690,-0.125,8.5
13:28:58.700,-0.6875,8
13:28:58.709,-1.625,6.5
13:28:58.720,-2.625,5
13:28:58.731,-4.125,2.5625
13:28:58.764,-5.8125,-0.5
13:28:58.765,-7.6875,-4.75
13:28:58.768,-9.875,-8.3125
13:28:58.771,-12,-12.125
13:28:58.780,-13.6876,-16.5626
13:28:58.790,-15.8751,-21.4376
13:28:58.801,-18.1876,-25.3126
13:28:58.810,-20.2501,-29.8751
13:28:58.821,-22.5626,-33.8751
13:28:58.830,-24.5626,-38.0001
13:28:58.839,-25.8751,-42.5002
13:28:58.849,-27.6251,-46.1252
13:28:58.859,-29.1251,-49.6252
13:28:58.869,-30.5001,-54.3752
13:28:58.880,-32.2501,-56.6252
13:28:58.894,-32.9376,-61.4377
13:28:58.900,-34.0626,-63.0627
13:28:58.911,-35.3126,-67.1253
13:28:58.919,-35.6876,-69.7503
13:28:58.930,-36.7501,-71.5003
13:28:58.940,-37.5626,-74.6253
13:28:58.949,-38.3751,-76.3128
13:28:58.960,-40.0627,-77.6253
13:28:58.969,-40.3752,-80.5003
13:28:58.979,-40.9377,-82.3128
13:28:58.991,-40.1252,-83.6253
13:28:58.999,-41.5002,-85.0003
13:28:59.010,-41.0627,-87.1878
13:28:59.019,-42.3127,-88.3128
13:28:59.029,-41.0627,-87.0003
13:28:59.040,-37.9376,-81.1878
13:28:59.050,-31.0001,-68.2503
13:28:59.059,-21.6251,-48.8752
13:28:59.070,-8.375,-25.3126
13:28:59.080,3.5625,0.875
13:28:59.091,16.1876,26.1876
13:28:59.121,24.3126,48.0002
13:28:59.123,31.1876,64.9377
13:28:59.127,35.8751,77.6253
13:28:59.132,39.3752,86.1253
13:28:59.160,41.3752,92.0004
13:28:59.162,41.2502,94.0629
13:28:59.164,41.3127,95.0629
13:28:59.171,39.5627,94.3129
13:28:59.201,38.1251,90.4379
13:28:59.203,35.5626,87.3128
13:28:59.206,32.6251,81.4378
13:28:59.237,31.6251,77.1253
13:28:59.238,29.6251,72.1253
13:28:59.241,25.3751,65.8128
13:28:59.245,21.7501,57.8752
13:28:59.252,17.7501,51.1877
13:28:59.260,13.8751,41.0002
13:28:59.271,10.0625,33.2501
13:28:59.281,7.75,25.1876
13:28:59.290,4.1875,18.7501
13:28:59.306,2.375,12.75
13:28:59.322,1.125,8.375
13:28:59.324,-0.75,6.0625
13:28:59.330,-0.5,4.125
13:28:59.340,-0.25,4.3125
13:28:59.351,-0.0625,5.3125
13:28:59.360,1.1875,5.4375
13:28:59.370,2.375,7.6875
13:28:59.380,2.125,7.25
13:28:59.390,2.25,7.125
13:28:59.400,2.1875,7.375
13:28:59.411,0.75,5.3125
13:28:59.422,0.375,3.25
13:28:59.429,-2.125,0.5625
13:28:59.441,-2.375,-3.3125
13:28:59.451,-5.625,-7.6875
13:28:59.460,-7.1875,-11.6875
13:28:59.470,-9.75,-17.1876
13:28:59.484,-12.875,-22.4376
13:28:59.490,-15.3751,-29.0626
13:28:59.501,-18.9376,-34.5626
13:28:59.510,-21.3126,-41.3752
13:28:59.520,-24.5001,-46.9377
13:28:59.530,-26.8126,-53.4377
13:28:59.541,-30.1251,-58.8752
13:28:59.550,-32.5001,-63.5627
13:28:59.560,-34.6251,-69.5628
13:28:59.570,-37.6251,-74.2503
13:28:59.580,-41.5627,-79.1878
13:28:59.590,-44.0627,-82.8753
13:28:59.601,-47.1252,-88.3753
13:28:59.611,-48.8127,-91.3129
13:28:59.621,-51.0002,-94.5004
13:28:59.630,-52.4377,-97.3754
13:28:59.641,-55.7502,-100.0004
13:28:59.650,-56.9377,-103.3754
13:28:59.661,-59.8752,-106.8754
13:28:59.671,-60.0627,-108.5004
13:28:59.681,-60.5002,-108.3754
13:28:59.690,-60.6877,-110.4379
13:28:59.702,-60.9377,-110.1879
13:28:59.710,-61.1252,-111.6879
13:28:59.720,-61.8127,-113.4379
13:28:59.730,-59.2502,-109.8754
13:28:59.743,-54.8752,-101.7504
13:28:59.750,-44.8752,-85.6253
13:28:59.760,-33.2501,-62.8127
13:28:59.770,-18.6876,-35.5001
13:28:59.780,-4.5625,-4.625
13:28:59.795,8.625,23.5001
13:28:59.802,18.7501,46.8752
13:28:59.811,25.9376,65.4378
13:28:59.821,32.7501,79.3128
13:28:59.830,37.5626,91.1879
13:28:59.840,41.0002,98.0629
13:28:59.850,42.6877,103.8129
13:28:59.860,43.0002,103.5629
13:28:59.870,41.8127,103.6254
13:28:59.886,39.6877,100.3129
13:28:59.901,39.5002,97.8129
13:28:59.904,37.0626,95.0629
13:28:59.910,35.4376,88.7503
13:28:59.920,32.6251,85.3128
13:28:59.930,29.6251,78.3753
13:28:59.940,26.1876,73.4378
13:28:59.950,24.3126,65.3752
13:28:59.961,20.6251,57.4377
13:28:59.970,16.1876,49.0627
13:28:59.980,12.3125,40.5002
13:28:59.990,9.125,33.0626
13:29:00.003,5.4375,26.9376
13:29:00.010,2.5625,21.5001
13:29:00.043,1.375,17.4376
13:29:00.046,0.3125,14.1251
13:29:00.048,-0.9375,13.5001
13:29:00.050,0.25,14.0626
13:29:00.060,1.125,13.6876
13:29:00.071,1,15.0001
13:29:00.081,1.75,15.1251
13:29:00.091,2.1875,16.3126
13:29:00.100,2.1875,16.5001
13:29:00.110,2.1875,14.4376
13:29:00.121,0.75,14.0626
13:29:00.131,-0.5625,11.5
13:29:00.140,-1.625,8.0625
13:29:00.151,-3.1875,4.375
13:29:00.160,-3.5625,1.1875
13:29:00.170,-6.125,-3.125
13:29:00.181,-7.6875,-6.75
13:29:00.190,-9.875,-12.3125
13:29:00.201,-12.25,-18.7501
13:29:00.210,-14.5626,-23.1251
13:29:00.221,-16.6251,-29.0001
13:29:00.230,-18.0626,-33.2501
13:29:00.240,-19.4376,-37.3751
13:29:00.251,-21.4376,-42.5627
13:29:00.260,-23.1251,-46.8127
13:29:00.270,-26.0001,-51.7502
13:29:00.281,-28.1876,-56.6252
13:29:00.290,-30.6876,-61.5002
13:29:00.301,-32.5001,-66.9378
13:29:00.310,-33.6251,-70.2503
13:29:00.320,-35.2501,-73.7503
13:29:00.330,-36.4376,-76.8128
13:29:00.340,-38.6876,-80.8753
13:29:00.355,-40.8127,-83.5628
13:29:00.365,-42.7502,-88.2503
13:29:00.376,-45.0002,-90.1878
13:29:00.386,-45.3127,-92.7504
13:29:00.397,-45.3127,-94.9379
13:29:00.405,-46.2502,-95.9379
13:29:00.415,-47.5627,-99.7504
13:29:00.425,-48.6252,-101.4379
13:29:00.435,-50.5002,-102.8754
13:29:00.445,-50.3752,-104.9379
13:29:00.455,-49.6877,-102.8754
13:29:00.465,-46.3127,-99.0004
13:29:00.497,-38.6251,-84.6878
13:29:00.499,-27.3751,-64.6252
13:29:00.502,-13.8126,-37.3126
13:29:00.506,0.5625,-9.125
13:29:00.547,21.3126,35.4376
13:29:00.549,33.1876,59.4377
13:29:00.552,41.2502,78.0003
13:29:00.579,48.8752,90.6879
13:29:00.579,53.4377,102.4379
13:29:00.579,56.0002,108.3754
13:29:00.583,57.6252,112.1879
13:29:00.588,57.3127,112.7504
13:29:00.619,56.6877,111.3129
13:29:00.622,55.7502,110.1879
13:29:00.624,54.3752,105.9379
13:29:00.630,51.0002,102.3129
13:29:00.636,48.4377,96.4379
13:29:00.645,45.6252,92.3754
13:29:00.655,42.8127,85.8753
13:29:00.665,39.4377,79.3128
13:29:00.675,34.7501,71.5628
13:29:00.685,30.9376,64.3127
13:29:00.696,26.5626,55.6877
13:29:00.705,22.8126,47.4377
13:29:00.716,19.3751,39.9377
13:29:00.726,16.7501,34.1251
13:29:00.736,13.8751,29.1876
13:29:00.746,11.3125,25.1251
13:29:00.756,10.5,21.6251
13:29:00.771,8.8125,20.0001
13:29:00.775,8.1875,18.9376
13:29:00.788,7.6875,18.5626
13:29:00.796,7.1875,18.5626
13:29:00.805,7.125,17.8751
13:29:00.817,6.0625,18.3751
13:29:00.826,5.5,17.3751
13:29:00.837,4.9375,16.0626
13:29:00.845,3.5,13.9376
13:29:00.855,2.5,11.75
13:29:00.865,1.4375,7.625
13:29:00.875,-0.5,4.5625
13:29:00.885,-2.375,0.6875
13:29:00.895,-4.5,-4.25
13:29:00.905,-6.5625,-9.5625
13:29:00.915,-9.3125,-13.9376
13:29:00.926,-11.6875,-19.3126
13:29:00.936,-14.4376,-25.3126
13:29:00.945,-16.6251,-29.2501
13:29:00.956,-17.9376,-35.4376
13:29:00.965,-20.3126,-40.8752
13:29:00.975,-22.6251,-45.8127
13:29:00.985,-25.0001,-51.3127
13:29:00.995,-26.7501,-56.1252
13:29:01.005,-28.8751,-60.5627
13:29:01.016,-30.8751,-65.0003
13:29:01.025,-32.4376,-68.1878
13:29:01.036,-34.1876,-72.8753
13:29:01.045,-37.1876,-78.5628
13:29:01.056,-39.5002,-82.1878
13:29:01.065,-41.8127,-87.3128
13:29:01.075,-42.8127,-88.8753
13:29:01.085,-44.3752,-91.3129
13:29:01.095,-45.2502,-95.4379
13:29:01.105,-46.0002,-97.3129
13:29:01.116,-48.1877,-99.6879
13:29:01.125,-49.5627,-103.1254
13:29:01.135,-49.6252,-103.3754
13:29:01.145,-51.0002,-104.6879
13:29:01.155,-50.6877,-105.9379
13:29:01.165,-51.2502,-106.9379
13:29:01.183,-52.1252,-108.8754
13:29:01.197,-52.3752,-109.9379
13:29:01.200,-52.3752,-109.8754
13:29:01.207,-49.6877,-106.8129
13:29:01.217,-44.1252,-95.4379
13:29:01.227,-34.9376,-77.7503
13:29:01.236,-22.8751,-52.8752
13:29:01.246,-9.1875,-23.3126
13:29:01.257,4.6875,5.0625
13:29:01.266,16.4376,32.0626
13:29:01.275,24.5001,53.3752
13:29:01.285,31.5001,68.6878
13:29:01.295,37.4376,81.7503
13:29:01.326,40.9377,89.5628
13:29:01.328,42.5002,94.6254
13:29:01.330,42.0627,96.7504
13:29:01.336,41.3752,94.1879
13:29:01.345,37.5626,92.6254
13:29:01.355,35.7501,86.6253
13:29:01.365,33.5626,84.1878
13:29:01.376,32.0626,80.0003
13:29:01.385,30.3126,74.5628
13:29:01.395,29.6876,71.1253
13:29:01.405,27.1251,66.7503
13:29:01.415,23.4376,58.0627
13:29:01.426,17.8751,50.0627
13:29:01.435,14.0001,41.9377
13:29:01.445,10,34.5626
13:29:01.455,7.75,27.6876
13:29:01.466,5.3125,23.1251
13:29:01.475,3.625,19.2501
13:29:01.486,2.5,14.8751
13:29:01.495,0.875,12.875
13:29:01.506,0.5625,10.875
13:29:01.521,1,12.375
13:29:01.529,1.375,12
13:29:01.535,2.125,14.0001
13:29:01.546,2.625,14.6251
13:29:01.556,4.1875,16.1251
13:29:01.565,3.9375,16.6876
13:29:01.575,4.375,16.4376
13:29:01.586,4.375,15.9376
13:29:01.595,2.875,14.3751
13:29:01.605,1.375,11.375
13:29:01.615,-0.5,8.5
13:29:01.625,-5.25,3.1875
13:29:01.635,-9,-1.875
13:29:01.647,-12.625,-8.5
13:29:01.657,-16.1876,-14.3126
13:29:01.666,-19.1876,-19.2501
13:29:01.675,-21.8126,-23.9376
13:29:01.685,-23.1876,-28.0001
13:29:01.695,-24.5001,-31.8126
13:29:01.707,-26.5626,-35.8126
13:29:01.715,-27.2501,-40.1252
13:29:01.726,-29.8751,-43.8127
13:29:01.737,-31.0626,-48.6877
13:29:01.745,-32.9376,-51.9377
13:29:01.755,-33.3126,-54.8127
13:29:01.766,-35.1876,-59.4377
13:29:01.777,-35.7501,-61.0627
13:29:01.785,-37.3751,-64.6877
13:29:01.797,-38.1251,-65.3753
13:29:01.806,-39.3127,-67.8753
13:29:01.815,-39.6252,-70.1878
13:29:01.826,-40.8127,-72.5003
13:29:01.835,-40.7502,-73.1878
13:29:01.874,-40.5002,-76.0003
13:29:01.876,-41.0002,-75.6253
13:29:01.879,-42.1877,-77.0003
13:29:01.880,-41.7502,-79.8128
13:29:01.915,-43.3127,-80.3128
13:29:01.915,-44.1877,-82.3128
13:29:01.944,-43.5627,-83.1253
13:29:01.946,-43.3127,-82.0003
13:29:01.949,-40.8127,-77.5003
13:29:01.954,-34.1876,-67.3753
13:29:01.954,-24.8126,-48.4377
13:29:01.961,-12.5,-24.1251
13:29:01.967,-1.125,0.3125
13:29:01.991,9.125,24.9376
13:29:01.994,17.6876,44.1877
13:29:01.997,25.1251,61.6252
13:29:02.006,29.2501,76.2503
13:29:02.015,33.3126,84.2503
13:29:02.027,33.4376,91.1879
13:29:02.035,34.1876,91.4379
13:29:02.045,35.2501,93.6879
13:29:02.056,33.9376,93.1879
13:29:02.066,32.5001,92.3129
13:29:02.075,31.0001,87.2503
13:29:02.086,28.3126,84.6878
13:29:02.095,26.3126,77.9378
13:29:02.105,23.4376,75.0628
13:29:02.116,20.9376,68.4378
13:29:02.125,17.6251,62.5627
13:29:02.136,14.8751,55.3752
13:29:02.147,11.75,48.2502
13:29:02.155,8.5,41.5002
13:29:02.165,5.5625,33.3751
13:29:02.175,2.5,27.3126
13:29:02.185,0.1875,21.5001
13:29:02.195,-1.1875,19.0626
13:29:02.206,-2.3125,15.5626
13:29:02.215,-2.5,14.0626
13:29:02.227,-2.875,14.1876
13:29:02.237,-2.5625,15.6876
13:29:02.247,-1.9375,14.5626
13:29:02.257,-1.1875,17.0626
13:29:02.266,-0.25,17.5626
13:29:02.277,-0.5625,17.7501
13:29:02.285,0.375,18.3126
13:29:02.296,-0.8125,18.0626
13:29:02.305,-1.25,16.1251
13:29:02.316,-2.5625,13.6251
13:29:02.327,-3.3125,10.4375
13:29:02.335,-5.6875,7.4375
13:29:02.347,-6.875,3.8125
13:29:02.357,-8.8125,-0.375
13:29:02.366,-10.4375,-5.3125
13:29:02.377,-11.8125,-8.875
13:29:02.387,-13.9376,-13.0625
13:29:02.395,-16.1251,-17.2501
13:29:02.407,-17.9376,-21.9376
13:29:02.417,-19.8751,-27.5626
13:29:02.426,-22.2501,-31.5001
13:29:02.436,-23.8751,-37.1876
13:29:02.446,-26.0626,-40.6877
13:29:02.456,-27.2501,-45.5002
13:29:02.469,-28.4376,-49.5627
13:29:02.485,-31.2501,-53.6252
13:29:02.489,-32.5001,-57.3752
13:29:02.504,-34.0001,-61.3127
13:29:02.506,-35.1251,-63.6877
13:29:02.516,-36.1251,-66.1878
13:29:02.526,-37.1876,-67.8128
13:29:02.536,-38.1876,-71.9378
13:29:02.546,-39.0626,-74.5628
13:29:02.557,-40.1877,-75.9378
13:29:02.566,-42.0002,-80.5003
13:29:02.576,-42.0627,-82.3128
13:29:02.604,-44.1252,-84.0003
13:29:02.607,-44.8752,-86.6878
13:29:02.608,-45.0002,-86.9378
13:29:02.617,-43.6877,-84.1878
13:29:02.626,-37.9376,-75.3128
13:29:02.637,-28.8751,-58.4377
13:29:02.647,-17.1251,-36.1251
13:29:02.657,-4,-7.625
13:29:02.667,8.375,17.6876
13:29:02.677,19.3751,42.0627
13:29:02.687,27.5626,62.6877
13:29:02.696,35.1251,78.3128
13:29:02.706,40.5002,91.5629
13:29:02.717,43.0002,99.1254
13:29:02.726,44.7502,103.3129
13:29:02.739,46.0002,107.3754
13:29:02.749,45.2502,106.3129
13:29:02.756,44.9377,106.1879
13:29:02.766,42.7502,104.6254
13:29:02.777,41.2502,99.7504
13:29:02.787,39.6877,96.1254
13:29:02.797,37.3126,90.6879
13:29:02.807,34.5626,85.8128
13:29:02.816,31.9376,81.0003
13:29:02.826,29.0001,73.1878
13:29:02.837,25.6251,65.8128
13:29:02.846,22.3126,58.7502
13:29:02.856,18.2501,51.5002
13:29:02.867,14.9376,44.8127
13:29:02.878,12.3125,37.8126
13:29:02.886,9.3125,33.1251
13:29:02.897,7.6875,29.0626
13:29:02.906,6.4375,26.8126
13:29:02.917,6.5,25.5001
13:29:02.926,5.8125,24.0626
13:29:02.936,6.1875,25.0626
13:29:02.947,6.5625,25.3751
13:29:02.956,6.75,26.5001
13:29:02.966,7,27.7501
13:29:02.977,7.6875,27.1251
13:29:02.987,6.4375,26.7501
13:29:02.997,6.625,25.3751
13:29:03.006,4.4375,23.5001
13:29:03.017,3.4375,19.8126
13:29:03.027,2.25,16.6876
13:29:03.038,0.4375,13
13:29:03.046,-1.625,9.0625
13:29:03.056,-4.5,4.75
13:29:03.066,-6.125,1
13:29:03.077,-8.375,-5.1875
13:29:03.087,-11.0625,-10
13:29:03.096,-13.5626,-15.0001
13:29:03.106,-15.3126,-20.7501
13:29:03.116,-17.1876,-25.7501
13:29:03.127,-19.3751,-30.6251
13:29:03.136,-22.1251,-35.8126
13:29:03.147,-24.3751,-40.0627
13:29:03.157,-25.8751,-44.7502
13:29:03.166,-28.1251,-49.2502
13:29:03.177,-29.3126,-53.9377
13:29:03.196,-31.1876,-56.7502
13:29:03.198,-32.5001,-59.8127
13:29:03.214,-33.4376,-62.9377
13:29:03.217,-34.6876,-65.8753
13:29:03.227,-35.0626,-69.5003
13:29:03.236,-33.8126,-70.9378
13:29:03.247,-34.8751,-72.6253
13:29:03.256,-35.5626,-75.0628
13:29:03.267,-36.3126,-77.6253
13:29:03.277,-37.6876,-80.3753
13:29:03.287,-37.9376,-82.6253
13:29:03.297,-39.6252,-84.6878
13:29:03.307,-40.1877,-87.0003
13:29:03.317,-40.6252,-87.8753
13:29:03.327,-41.3752,-89.5628
13:29:03.337,-39.2502,-87.4378
13:29:03.371,-34.7501,-78.1253
13:29:03.374,-25.5001,-61.9377
13:29:03.377,-13.6251,-36.3126
13:29:03.379,0.625,-8.8125
13:29:03.418,14.3126,20.1251
13:29:03.420,25.3751,46.0002
13:29:03.425,34.6251,66.3128
13:29:03.425,42.3752,84.3128
13:29:03.432,47.3127,99.2504
13:29:03.438,51.1877,106.8754
13:29:03.460,53.0627,113.8754
13:29:03.463,54.1877,116.7504
13:29:03.479,54.3127,117.3754
13:29:03.481,53.3752,116.4379
13:29:03.493,52.5627,113.1254
13:29:03.499,49.6252,109.8754
13:29:03.506,47.5627,104.5629
13:29:03.517,45.5002,101.6254
13:29:03.527,43.0002,94.5004
13:29:03.537,39.7502,90.0003
13:29:03.546,37.4376,82.8128
13:29:03.557,34.4376,75.8753
13:29:03.567,30.2501,68.5628
13:29:03.576,26.5626,60.8752
13:29:03.586,23.4376,53.9377
13:29:03.596,20.5626,46.6252
13:29:03.606,17.5001,41.3127
13:29:03.617,15.1251,36.8126
13:29:03.626,14.3751,32.6876
13:29:03.636,13.6251,31.0001
13:29:03.646,13.5001,29.8751
13:29:03.656,12.875,30.8751
13:29:03.667,13.6876,31.3126
13:29:03.677,14.1876,30.7501
13:29:03.686,13.6251,31.5001
13:29:03.696,13.3126,30.1251
13:29:03.706,12.25,29.3751
13:29:03.717,11.6875,27.3751
13:29:03.727,10.3125,25.5626
13:29:03.736,8.8125,22.6251
13:29:03.746,7,19.8126
13:29:03.757,4.625,15.8751
13:29:03.767,2.8125,10.6875
13:29:03.783,0.875,6.875
13:29:03.798,-1.375,0.875
13:29:03.800,-3.75,-3.875
13:29:03.806,-6.25,-9.875
13:29:03.816,-9.4375,-15.0001
13:29:03.826,-10.875,-20.3751
13:29:03.836,-14.3126,-25.8751
13:29:03.846,-16.0001,-31.5001
13:29:03.856,-18.5001,-36.5001
13:29:03.883,-21.4376,-41.0002
13:29:03.886,-23.5001,-47.3127
13:29:03.888,-25.7501,-51.6877
13:29:03.903,-27.5626,-55.4377
13:29:03.907,-28.9376,-61.3752
13:29:03.917,-31.0001,-63.5627
13:29:03.926,-32.1251,-67.8753
13:29:03.937,-33.1251,-71.0003
13:29:03.947,-33.7501,-73.5003
13:29:03.956,-36.2501,-76.5003
13:29:03.966,-36.9376,-79.3128
13:29:03.976,-37.9376,-81.3128
13:29:03.987,-40.6877,-83.1878
13:29:03.997,-41.1877,-86.3753
13:29:04.006,-41.7502,-87.8128
13:29:04.016,-43.7502,-89.8128
13:29:04.026,-44.0002,-93.5004
13:29:04.036,-45.1877,-94.3129
13:29:04.047,-45.3752,-96.1254
13:29:04.056,-46.3127,-98.1879
13:29:04.067,-47.8127,-98.0004
13:29:04.076,-47.0002,-99.7504
13:29:04.086,-44.6252,-94.7504
13:29:04.096,-38.7501,-84.8128
13:29:04.106,-28.1876,-65.2503
13:29:04.116,-15.7501,-39.0001
13:29:04.127,-1.625,-10.8125
13:29:04.137,12.5625,18.3751
13:29:04.147,22.3126,42.8752
13:29:04.158,31.2501,60.9377
13:29:04.166,38.8126,77.4378
13:29:04.177,42.1877,89.2503
13:29:04.186,45.2502,95.8129
13:29:04.197,47.0627,100.6254
13:29:04.206,47.7502,102.2504
13:29:04.217,46.4377,102.2504
13:29:04.226,45.1252,99.4379
13:29:04.237,43.7502,96.2504
13:29:04.247,41.1252,93.0004
13:29:04.257,38.9376,87.8753
13:29:04.267,36.9376,81.9378
13:29:04.277,34.5626,76.7503
13:29:04.287,31.0001,70.2503
13:29:04.296,27.2501,61.7502
13:29:04.307,23.6876,54.2502
13:29:04.316,20.1876,46.8127
13:29:04.327,16.6876,38.5626
13:29:04.337,12.5625,30.0001
13:29:04.346,10,24.6251
13:29:04.363,7.875,20.1251
13:29:04.372,7.5625,16.8126
13:29:04.381,5.5,15.0001
13:29:04.391,6.125,14.8126
13:29:04.401,6.4375,14.5001
13:29:04.412,7.1875,16.0001
13:29:04.421,8.0625,17.6251
13:29:04.432,8.8125,19.0001
13:29:04.441,9.75,20.0626
13:29:04.451,10.25,20.0626
13:29:04.461,8.9375,19.6251
13:29:04.471,8.625,19.1876
13:29:04.491,7.8125,16.1251
13:29:04.495,5.1875,14.4376
13:29:04.510,4.4375,9.875
13:29:04.514,1.9375,6.4375
13:29:04.522,-1.5,0.125
13:29:04.531,-3.3125,-5.6875
13:29:04.541,-5.6875,-12.125
13:29:04.552,-8.1875,-15.6251
13:29:04.562,-10.75,-21.6251
13:29:04.571,-12.4375,-26.5626
13:29:04.582,-15.2501,-32.8751
13:29:04.592,-18.0001,-36.5626
13:29:04.602,-19.3751,-41.5627
13:29:04.612,-22.0626,-46.4377
13:29:04.650,-24.3751,-51.1877
13:29:04.651,-25.6251,-53.8752
13:29:04.654,-26.8751,-58.3752
13:29:04.656,-28.9376,-62.5002
13:29:04.664,-30.7501,-65.3752
13:29:04.692,-32.3751,-67.8753
13:29:04.694,-32.5626,-70.4378
13:29:04.697,-35.0626,-73.5628
13:29:04.704,-35.7501,-76.0628
13:29:04.732,-37.3751,-78.5003
13:29:04.734,-37.3751,-81.0003
13:29:04.736,-38.6251,-84.0003
13:29:04.743,-39.1251,-86.0628
13:29:04.766,-40.0002,-85.8753
13:29:04.769,-37.5001,-82.3753
13:29:04.773,-32.3126,-73.4378
13:29:04.782,-23.5001,-55.1877
13:29:04.791,-11.0625,-33.5626
13:29:04.801,1.375,-7.0625
13:29:04.812,14.0001,18.8126
13:29:04.822,22.6251,41.3752
13:29:04.831,31.0626,56.8127
13:29:04.841,36.6251,73.6253
13:29:04.851,40.2502,81.6878
13:29:04.862,43.3127,89.2503
13:29:04.872,44.5627,93.8754
13:29:04.881,45.0627,94.4379
13:29:04.892,43.5627,95.0004
13:29:04.901,42.6877,90.6879
13:29:04.912,41.6252,88.0628
13:29:04.921,38.1251,83.2503
13:29:04.933,36.4376,78.0003
13:29:04.941,32.1876,70.8753
13:29:04.953,29.5626,63.9377
13:29:04.963,25.5626,56.4377
13:29:04.972,22.1251,48.1877
13:29:04.982,17.4376,38.7501
13:29:04.993,13.5626,29.5626
13:29:05.001,9.0625,22.0626
13:29:05.011,5.8125,14.2501
13:29:05.022,3.625,6.9375
13:29:05.032,1.1875,3.8125
13:29:05.041,0.1875,0.375
13:29:05.052,-1.1875,-1.375
13:29:05.062,-0.1875,-1.625
13:29:05.078,-0.375,0.125
13:29:05.094,1.25,1.25
13:29:05.095,1.625,2.875
13:29:05.103,2.375,3.9375
13:29:05.118,2.25,5.25
13:29:05.123,2.6875,4.375
13:29:05.131,1.625,4.9375
13:29:05.165,0.875,3.0625
13:29:05.167,-0.75,1.75
13:29:05.169,-2.5,-2
13:29:05.174,-3.625,-5.75
13:29:05.182,-5.5625,-8.5
13:29:05.192,-7.1875,-13.3751
13:29:05.202,-9.25,-17.6876
13:29:05.211,-11.8125,-22.7501
13:29:05.221,-13.8751,-26.8126
13:29:05.231,-16.3126,-32.1876
13:29:05.243,-18.5001,-36.3126
13:29:05.252,-20.7501,-42.7502
13:29:05.263,-23.4376,-46.6252
13:29:05.271,-25.0001,-51.5627
13:29:05.283,-27.2501,-56.8127
13:29:05.292,-29.1876,-60.5627
13:29:05.303,-31.3126,-65.0002
13:29:05.311,-33.8126,-68.8128
13:29:05.322,-34.6876,-72.7503
13:29:05.331,-37.1251,-75.6878
13:29:05.343,-38.1876,-80.1878
13:29:05.352,-38.9376,-83.2503
13:29:05.362,-41.2502,-85.3753
13:29:05.372,-42.5002,-89.8753
13:29:05.381,-43.3752,-92.2504
13:29:05.391,-44.8752,-93.3129
13:29:05.403,-44.1252,-92.8129
13:29:05.411,-40.0627,-87.0628
13:29:05.421,-33.2501,-72.0628
13:29:05.433,-21.0626,-51.9377
13:29:05.441,-8.6875,-24.5626
13:29:05.452,5.375,3.25
13:29:05.462,15.8126,29.8751
13:29:05.472,26.3126,49.5627
13:29:05.482,33.0626,68.2503
13:29:05.493,38.9376,80.8753
13:29:05.502,42.0627,91.3754
13:29:05.514,44.6252,96.1254
13:29:05.524,46.0627,98.8129
13:29:05.532,45.1252,101.5004
13:29:05.541,44.6252,98.9379
13:29:05.553,43.6252,96.7504
13:29:05.562,40.8127,93.6254
13:29:05.571,39.0001,88.8753
13:29:05.583,35.7501,84.5003
13:29:05.592,32.7501,76.5628
13:29:05.603,29.6876,69.6878
13:29:05.613,25.8751,62.5002
13:29:05.621,22.2501,54.5627
13:29:05.633,17.7501,45.8752
13:29:05.643,13.5626,36.4376
13:29:05.652,9.3125,27.9376
13:29:05.662,7.125,22.5626
13:29:05.673,3.9375,16.5626
13:29:05.683,1.9375,11.875
13:29:05.692,1.375,9.5625
13:29:05.702,0.6875,8.75
13:29:05.712,0.6875,7.875
13:29:05.722,1.125,9.3125
13:29:05.733,2.4375,10.4375
13:29:05.743,2.1875,11.8125
13:29:05.753,3.125,12.8125
13:29:05.762,3.625,12.8125
13:29:05.772,3.375,13.0625
13:29:05.789,2.1875,12
13:29:05.804,2.125,9.6875
13:29:05.806,0.875,8.25
13:29:05.815,-0.5,3.8125
13:29:05.822,-2.25,0.6875
13:29:05.833,-3.1875,-2.6875
13:29:05.843,-6.4375,-7.25
13:29:05.852,-8.8125,-11.6875
13:29:05.862,-10.125,-17.1251
13:29:05.872,-13.2501,-21.8751
13:29:05.883,-15.9376,-27.5626
13:29:05.891,-18.0001,-31.9376
13:29:05.902,-20.0626,-36.9376
13:29:05.913,-22.5001,-42.3127
13:29:05.923,-24.2501,-47.3127
13:29:05.932,-26.1251,-51.0627
13:29:05.943,-28.4376,-54.8127
13:29:05.951,-30.8126,-59.6252
13:29:05.963,-32.6251,-63.2502
13:29:05.973,-34.6876,-69.8753
13:29:05.983,-36.8126,-72.5003
13:29:05.992,-39.1251,-77.0003
13:29:06.003,-39.5627,-79.5003
13:29:06.012,-41.2502,-81.4378
13:29:06.023,-42.0627,-84.9378
13:29:06.032,-41.5627,-85.9378
13:29:06.043,-40.4377,-82.3128
13:29:06.053,-35.1876,-74.5003
13:29:06.063,-25.9376,-56.0002
13:29:06.073,-13.6251,-33.4376
13:29:06.082,0,-4.875
13:29:06.092,11.9375,22.8751
13:29:06.102,22.5626,45.3127
13:29:06.113,31.7501,66.3753
13:29:06.123,38.1251,82.8128
13:29:06.133,43.5627,94.0004
13:29:06.143,46.3127,104.5629
13:29:06.173,47.9377,107.8129
13:29:06.175,49.0627,110.3129
13:29:06.179,49.1877,112.0004
13:29:06.183,48.0002,109.5629
13:29:06.220,46.7502,107.1879
13:29:06.222,44.8127,104.0004
13:29:06.225,43.3752,100.4379
13:29:06.227,40.6877,94.8754
13:29:06.232,38.8751,89.6253
13:29:06.266,36.5001,83.9378
13:29:06.269,32.6876,76.3753
13:29:06.272,30.0001,69.6253
13:29:06.276,25.3126,61.0002
13:29:06.300,21.5626,52.5002
13:29:06.302,17.2501,45.9377
13:29:06.305,14.5626,39.0001
13:29:06.313,11.9375,32.9376
13:29:06.323,10.3125,29.5626
13:29:06.333,10.1875,27.8126
13:29:06.343,8.75,26.4376
13:29:06.353,9.25,25.4376
13:29:06.362,8.5625,26.5626
13:29:06.372,8.5625,26.6876
13:29:06.389,9.375,26.1876
13:29:06.404,9.75,28.2501
13:29:06.406,10.5625,26.8751
13:29:06.446,10,26.9376
13:29:06.446,9.5625,25.6251
13:29:06.451,7.375,21.3126
13:29:06.454,5.4375,18.8126
13:29:06.456,3.5,13.4376
13:29:06.463,1.375,9.6875
13:29:06.472,-0.125,5.6875
13:29:06.483,-2.9375,1.25
13:29:06.493,-5.625,-3.625
13:29:06.502,-7.5625,-9.5
13:29:06.512,-10,-14.7501
13:29:06.522,-12.875,-20.0001
13:29:06.532,-14.9376,-25.5001
13:29:06.542,-17.5001,-30.4376
13:29:06.553,-20.2501,-35.8126
13:29:06.562,-22.5001,-41.2502
13:29:06.572,-24.5626,-45.8127
13:29:06.583,-26.1251,-50.1877
13:29:06.592,-27.0626,-54.5002
13:29:06.603,-30.3126,-58.1252
13:29:06.613,-32.0001,-62.8127
13:29:06.623,-33.7501,-66.2503
13:29:06.632,-35.5626,-69.6253
13:29:06.642,-36.7501,-73.8128
13:29:06.652,-37.9376,-76.6878
13:29:06.663,-37.9376,-78.7503
13:29:06.679,-38.8126,-79.0628
13:29:06.682,-38.5626,-81.0003
13:29:06.692,-35.9376,-77.0003
13:29:06.702,-30.6251,-68.0003
13:29:06.712,-20.8751,-51.6252
13:29:06.722,-8.875,-27.1876
13:29:06.736,5,-0.25
13:29:06.743,17.6251,27.2501
13:29:06.752,28.6251,49.7502
13:29:06.763,37.5001,70.8753
13:29:06.773,45.1252,87.3753
13:29:06.783,50.7502,101.3129
13:29:06.793,53.8127,110.7504
13:29:06.802,56.0627,115.3129
13:29:06.813,55.8752,117.6255
13:29:06.823,54.8752,115.7504
13:29:06.833,53.3752,114.0004
13:29:06.843,51.1252,110.1879
13:29:06.853,49.2502,106.6879
13:29:06.863,46.3127,101.3754
13:29:06.873,43.0627,95.6879
13:29:06.883,40.2502,90.5004
13:29:06.893,37.0626,83.0003
13:29:06.903,33.3126,76.1878
13:29:06.913,29.5001,66.5628
13:29:06.923,24.6876,58.7502
13:29:06.932,22.1251,51.1877
13:29:06.942,17.7501,44.1252
13:29:06.953,15.8126,38.1251
13:29:06.963,14.2501,34.2501
13:29:06.973,12.375,31.3126
13:29:06.983,12.5625,29.1876
13:29:06.994,11.3125,29.2501
13:29:07.003,12.1875,28.2501
13:29:07.013,12.5625,29.7501
13:29:07.023,13,30.5626
13:29:07.033,13.9376,32.1876
13:29:07.042,14.1876,32.4376
13:29:07.054,13.6251,32.1251
13:29:07.063,13.2501,31.0626
13:29:07.073,12.375,29.7501
13:29:07.090,11.5625,28.3126
13:29:07.092,9.75,25.1876
13:29:07.110,8.125,20.6251
13:29:07.115,6.0625,16.5001
13:29:07.123,3.8125,11.5
13:29:07.133,1,6.5625
13:29:07.143,-1.75,1.625
13:29:07.154,-4.3125,-3.0625
13:29:07.163,-6.875,-9.4375
13:29:07.173,-10.1875,-13.6876
13:29:07.183,-11.875,-20.6251
13:29:07.193,-15.1251,-24.5626
13:29:07.203,-17.1876,-29.8126
13:29:07.213,-18.5001,-34.6251
13:29:07.223,-20.2501,-39.1877
13:29:07.233,-22.2501,-42.8752
13:29:07.242,-24.5001,-47.7502
13:29:07.253,-25.6251,-51.0627
13:29:07.263,-27.6251,-54.9377
13:29:07.273,-29.1876,-59.1252
13:29:07.283,-30.4376,-61.4377
13:29:07.293,-31.1251,-65.5627
13:29:07.303,-31.6876,-66.6878
13:29:07.313,-31.6251,-67.9378
13:29:07.323,-28.8126,-63.1252
13:29:07.332,-22.8751,-52.0627
13:29:07.343,-13.1251,-34.6251
13:29:07.353,-1.125,-10
13:29:07.362,10.75,14.1876
13:29:07.372,21.5626,37.5001
13:29:07.383,29.2501,57.5627
13:29:07.393,36.5626,74.3753
13:29:07.403,42.0627,88.5003
13:29:07.413,45.6877,98.8754
13:29:07.429,48.0002,104.2504
13:29:07.434,47.7502,108.6254
13:29:07.443,47.0002,107.2504
13:29:07.452,46.7502,106.3129
13:29:07.463,44.7502,104.5004
13:29:07.472,42.5627,100.1879
13:29:07.483,40.5627,95.8129
13:29:07.492,38.0626,90.7504
13:29:07.503,35.6251,83.8753
13:29:07.514,31.1876,77.3128
13:29:07.523,27.3126,68.0628
13:29:07.533,22.9376,60.5002
13:29:07.543,19.6251,50.3752
13:29:07.554,14.8751,43.0627
13:29:07.586,12.1875,34.8751
13:29:07.587,9.1875,29.1876
13:29:07.589,7.25,24.6876
13:29:07.595,6.875,22.3751
13:29:07.632,7.375,21.9376
13:29:07.633,7.75,22.5001
13:29:07.638,7.75,23.7501
13:29:07.662,9.4375,25.3751
13:29:07.663,10.6875,27.1251
13:29:07.665,10.625,28.4376
13:29:07.672,11.5,28.3126
13:29:07.674,11.5,28.8126
13:29:07.710,11.6875,27.2501
13:29:07.712,9.875,26.5001
13:29:07.748,9.25,22.8751
13:29:07.754,8,20.3126
13:29:07.765,5.75,16.9376
13:29:07.771,4.4375,12.625
13:29:07.771,1.6875,7.4375
13:29:07.771,-1.1875,1.6875
13:29:07.777,-3.875,-3.5625
13:29:07.783,-6.25,-8.375
13:29:07.793,-7.8125,-13.125
13:29:07.807,-10.625,-18.9376
13:29:07.813,-13.125,-24.1876
13:29:07.823,-16.8751,-29.2501
13:29:07.833,-19.0626,-33.7501
13:29:07.843,-20.6251,-39.3127
13:29:07.853,-22.8126,-44.0002
13:29:07.864,-24.6251,-46.8752
13:29:07.872,-26.3126,-51.0002
13:29:07.882,-26.7501,-55.5002
13:29:07.894,-29.0626,-59.5002
13:29:07.902,-30.5001,-63.1252
13:29:07.912,-31.6876,-66.3128
13:29:07.924,-32.7501,-68.1878
13:29:07.932,-33.1876,-72.0628
13:29:07.943,-30.1251,-67.1253
13:29:07.958,-23.4376,-56.0002
13:29:07.968,-13,-35.9376
13:29:07.979,-1.5,-12.375
13:29:07.989,11.125,14.3751
13:29:07.998,21.3126,38.9376
13:29:08.008,30.3126,60.0627
13:29:08.019,39.0626,78.6253
13:29:08.028,43.8752,93.7504
13:29:08.038,48.6252,104.4379
13:29:08.048,51.3752,111.5629
13:29:08.058,52.5002,115.5629
13:29:08.070,51.3127,115.5629
13:29:08.078,51.3127,115.3129
13:29:08.088,48.2502,114.0629
13:29:08.098,46.3752,110.0629
13:29:08.109,44.7502,105.7504
13:29:08.117,42.5002,100.7504
13:29:08.129,39.5627,95.2504
13:29:08.138,37.3126,88.1878
13:29:08.148,32.5626,81.3753
13:29:08.159,29.4376,72.3128
13:29:08.168,24.7501,64.1877
13:29:08.183,21.8751,56.6252
13:29:08.189,18.6251,50.4377
13:29:08.197,16.7501,45.3127
13:29:08.208,15.5626,40.6877
13:29:08.218,14.7501,39.1876
13:29:08.228,15.5626,36.9376
13:29:08.237,15.8751,37.8751
13:29:08.249,16.1251,37.6251
13:29:08.259,16.9376,39.2501
13:29:08.267,17.2501,39.6877
13:29:08.279,17.6251,38.6876
13:29:08.288,16.9376,39.3752
13:29:08.300,18.2501,39.0626
13:29:08.308,17.2501,38.0001
13:29:08.319,15.2501,35.0001
13:29:08.327,13.5001,31.0001
13:29:08.339,10.3125,28.0626
13:29:08.348,8.6875,23.3751
13:29:08.359,6.375,20.1251
13:29:08.369,3.875,13.3751
13:29:08.393,1.6875,9.0625
13:29:08.395,-0.8125,3.875
13:29:08.411,-3.125,-0.8125
13:29:08.417,-4.875,-6.625
13:29:08.425,-7.5,-12
13:29:08.435,-8.75,-16.8751
13:29:08.444,-12.1875,-21.7501
13:29:08.453,-13.0625,-26.1876
13:29:08.464,-16.0001,-31.4376
13:29:08.473,-17.5001,-35.5626
13:29:08.484,-18.8126,-39.6252
13:29:08.493,-21.5626,-43.5002
13:29:08.504,-22.8126,-47.5627
13:29:08.513,-23.8126,-50.3752
13:29:08.523,-25.1876,-53.6877
13:29:08.534,-26.1876,-57.2502
13:29:08.544,-27.8751,-60.8127
13:29:08.556,-27.8751,-62.8127
13:29:08.566,-28.8751,-64.7502
13:29:08.573,-29.9376,-68.3753
13:29:08.583,-31.5001,-71.5003
13:29:08.592,-31.7501,-72.9378
13:29:08.604,-32.7501,-74.7503
13:29:08.612,-33.1876,-77.6253
13:29:08.625,-34.3751,-78.3753
13:29:08.635,-33.2501,-80.0628
13:29:08.643,-31.0626,-74.9378
13:29:08.654,-24.6251,-65.7503
13:29:08.664,-15.1251,-45.6252
13:29:08.673,-2,-21.9376
13:29:08.685,9.6875,5.1875
13:29:08.694,22.6251,32.5001
13:29:08.702,31.8751,54.6252
13:29:08.714,40.3127,74.5628
13:29:08.725,46.7502,88.8128
13:29:08.734,51.0627,101.1254
13:29:08.743,54.6877,108.3754
13:29:08.754,57.2502,114.2504
13:29:08.763,57.8752,116.5629
13:29:08.773,57.3752,115.7504
13:29:08.784,56.5627,115.0629
13:29:08.804,55.2502,111.1254
13:29:08.806,53.1877,108.1254
13:29:08.838,49.9377,104.6879
13:29:08.839,48.0002,99.6879
13:29:08.843,45.8752,95.3754
13:29:08.844,44.0002,90.8754
13:29:08.875,41.2502,85.6878
13:29:08.881,38.7501,79.5003
13:29:08.882,35.1251,71.1878
13:29:08.884,32.4376,65.5003
13:29:08.915,29.5626,59.3127
13:29:08.917,27.6251,53.8127
13:29:08.919,24.8751,48.5627
13:29:08.926,23.4376,44.6877
13:29:08.940,21.8751,42.5002
13:29:08.943,20.6876,40.1877
13:29:08.954,20.4376,39.8752
13:29:08.964,19.5626,39.0627
13:29:08.974,19.9376,39.3126
13:29:09.003,19.5626,38.4376
13:29:09.006,18.8751,39.0626
13:29:09.009,19.0626,37.0626
13:29:09.016,17.8751,36.6876
13:29:09.024,17.2501,33.1876
13:29:09.040,15.9376,30.6251
13:29:09.047,15.0001,26.6251
13:29:09.055,12.0625,23.0626
13:29:09.064,9.75,18.0001
13:29:09.079,7.4375,13.0625
13:29:09.088,5.0625,7.375
13:29:09.094,2.1875,1.3125
13:29:09.104,0.6875,-3.375
13:29:09.114,-1.4375,-9.0625
13:29:09.124,-3.1875,-13.7501
13:29:09.135,-5.6875,-19.0001
13:29:09.144,-8.3125,-23.8751
13:29:09.154,-10.0625,-28.6876
13:29:09.164,-12.625,-34.6876
13:29:09.174,-14.5001,-39.0626
13:29:09.184,-16.3126,-42.3752
13:29:09.194,-16.9376,-47.5627
13:29:09.204,-17.4376,-50.0002
13:29:09.214,-16.6251,-52.1252
13:29:09.224,-17.5001,-55.2502
13:29:09.234,-19.1251,-58.3127
13:29:09.244,-19.8126,-61.3752
13:29:09.254,-20.3751,-64.0627
13:29:09.264,-20.6876,-66.0003
13:29:09.274,-22.5001,-69.9378
13:29:09.284,-24.1876,-72.1253
13:29:09.294,-25.1251,-75.7503
13:29:09.305,-26.9376,-77.6878
13:29:09.315,-27.8751,-80.0003
13:29:09.324,-28.6876,-81.8753
13:29:09.334,-29.8126,-85.4378
13:29:09.344,-30.0626,-86.5003
13:29:09.354,-32.0626,-89.3753
13:29:09.364,-33.0626,-92.2504
13:29:09.374,-34.3126,-95.3129
13:29:09.384,-34.3126,-97.0004
13:29:09.394,-34.8751,-99.5629
13:29:09.404,-36.0001,-101.1879
13:29:09.414,-36.0001,-104.6879
13:29:09.424,-37.3751,-106.2504
13:29:09.435,-35.7501,-106.4379
13:29:09.444,-32.2501,-99.3754
13:29:09.454,-24.2501,-85.9378
13:29:09.464,-12.5625,-62.3752
13:29:09.474,2.875,-35.0626
13:29:09.485,16.2501,-4.0625
13:29:09.494,28.3126,21.3126
13:29:09.504,38.2501,45.3752
13:29:09.515,44.7502,63.6252
13:29:09.524,50.0627,75.0628
13:29:09.534,53.6252,84.5003
13:29:09.544,55.6252,90.0003
13:29:09.554,57.2502,94.0004
13:29:09.565,57.0002,94.2504
13:29:09.574,56.6877,91.6879
13:29:09.585,55.4377,90.5003
13:29:09.594,54.0002,86.7503
13:29:09.604,52.0002,83.4378
13:29:09.614,49.3127,80.6253
13:29:09.624,47.5002,73.2503
13:29:09.634,43.6252,69.3753
13:29:09.644,41.0627,62.1252
13:29:09.655,36.4376,55.9377
13:29:09.664,34.0626,47.3127
13:29:09.675,29.5626,40.3752
13:29:09.693,26.8126,33.5626
13:29:09.696,23.5626,25.9376
13:29:09.711,20.6876,21.2501
13:29:09.718,19.5001,16.1251
13:29:09.724,17.9376,13.6251
13:29:09.741,16.1876,10.375
13:29:09.744,17.2501,10.3125
13:29:09.759,18.0001,11.6875
13:29:09.765,18.8751,12.125
13:29:09.774,19.7501,13.0625
13:29:09.784,19.8751,13.3751
13:29:09.794,23.9376,16.4376
13:29:09.804,22.7501,15.5001
13:29:09.814,23.8126,14.3751
13:29:09.824,22.8751,12.4375
13:29:09.835,20.5626,9.875
13:29:09.844,19.1251,5.375
13:29:09.854,17.5626,1.8125
13:29:09.864,16.1876,-3
13:29:09.874,13.9376,-7.625
13:29:09.884,11.5625,-12.75
13:29:09.894,10.1875,-16.6251
13:29:09.976,7.9375,-22.2501
13:29:09.979,5.5,-26.0626
13:29:09.980,3.8125,-31.0001
13:29:09.983,2,-35.7501
13:29:09.990,0.1875,-39.6877
13:29:09.990,-1.625,-45.1252
13:29:09.990,-2.9375,-48.6877
13:29:09.994,-4.5625,-51.6877
13:29:10.004,-6.5,-54.8127
13:29:10.014,-7.0625,-58.3752
13:29:10.025,-9.4375,-61.8752
13:29:10.034,-10.1875,-63.8752
13:29:10.044,-12.3125,-67.3753
13:29:10.054,-14.2501,-69.2503
13:29:10.066,-14.8126,-73.5003
13:29:10.074,-16.6251,-73.8128
13:29:10.084,-16.4376,-76.3753
13:29:10.098,-17.7501,-77.5003
13:29:10.104,-18.0626,-80.8128
13:29:10.114,-19.3126,-81.2503
13:29:10.124,-20.0626,-82.8753
13:29:10.134,-21.6876,-85.8753
13:29:10.144,-23.2501,-88.5628
13:29:10.154,-27.3751,-95.1879
13:29:10.164,-27.5626,-97.5004
13:29:10.174,-28.4376,-98.8129
13:29:10.184,-29.0001,-100.4379
13:29:10.195,-29.8126,-101.9379
13:29:10.204,-31.1876,-104.6254
13:29:10.214,-32.5001,-106.6879
13:29:10.224,-33.9376,-108.9379
13:29:10.234,-35.0001,-112.7504
13:29:10.244,-37.6251,-114.0004
13:29:10.255,-37.8126,-116.5629
13:29:10.284,-38.3126,-117.813
13:29:10.285,-38.4376,-118.8755
13:29:10.288,-35.6876,-113.3754
13:29:10.317,-29.6251,-103.3129
13:29:10.320,-18.0626,-82.6878
13:29:10.322,-4.6875,-55.6252
13:29:10.324,9.625,-26.1876
13:29:10.394,23.5626,4
13:29:10.395,34.1876,30.5626
13:29:10.411,42.5002,49.5627
13:29:10.413,49.3752,66.5628
13:29:10.418,52.1252,75.5003
13:29:10.418,54.1252,81.0628
13:29:10.418,53.8752,84.1878
13:29:10.426,52.8127,82.7503
13:29:10.441,51.7502,80.1878
13:29:10.445,49.0627,77.1878
13:29:10.454,45.8127,71.6253
13:29:10.464,43.8127,68.6253
13:29:10.474,41.3127,61.9377
13:29:10.484,39.3752,57.5002
13:29:10.494,35.8751,52.8127
13:29:10.508,32.3126,44.3752
13:29:10.515,27.1876,36.4376
13:29:10.525,23.4376,27.7501
13:29:10.534,18.9376,19.6251
13:29:10.545,15.5001,12.5
13:29:10.555,12.3125,6
13:29:10.564,9.6875,2
13:29:10.574,8.3125,-2.75
13:29:10.584,7.9375,-4.5625
13:29:10.594,9.0625,-2.25
13:29:10.605,10.1875,-0.75
13:29:10.614,11.25,2.5625
13:29:10.624,13.2501,4
13:29:10.634,13.5001,5.375
13:29:10.644,13,5.3125
13:29:10.654,13.1876,4.4375
13:29:10.664,11.875,3
13:29:10.674,10.4375,0
13:29:10.684,9.4375,-2.1875
13:29:10.694,7.875,-6.5
13:29:10.704,5.9375,-8.875
13:29:10.714,4.3125,-14.5001
13:29:10.724,1.75,-17.9376
13:29:10.734,-0.3125,-23.2501
13:29:10.744,-2.8125,-28.5626
13:29:10.754,-6.375,-32.3126
13:29:10.764,-8.5,-39.1252
13:29:10.774,-11,-43.4377
13:29:10.784,-13.8126,-48.5627
13:29:10.794,-17.1876,-52.8127
13:29:10.813,-18.8751,-58.1252
13:29:10.815,-20.8126,-61.1877
13:29:10.826,-22.6876,-64.1252
13:29:10.841,-24.1876,-68.1878
13:29:10.853,-25.6876,-70.3753
13:29:10.855,-27.0001,-74.4378
13:29:10.865,-27.6251,-75.6878
13:29:10.875,-28.7501,-78.8128
13:29:10.884,-29.3126,-80.1253
13:29:10.894,-30.3126,-80.5003
13:29:10.904,-30.9376,-82.5628
13:29:10.914,-31.3751,-84.5003
13:29:10.924,-31.8126,-85.0628
13:29:10.934,-33.4376,-87.3753
13:29:10.944,-33.4376,-88.1253
13:29:10.954,-33.5001,-88.3753
13:29:10.964,-34.6251,-89.8128
13:29:10.974,-35.1876,-91.5629
13:29:10.984,-35.8751,-92.1254
13:29:10.994,-36.5626,-94.0629
13:29:11.004,-37.7501,-96.1254
13:29:11.014,-39.1252,-97.5629
13:29:11.036,-40.3752,-100.2504
13:29:11.040,-42.8752,-103.8754
13:29:11.054,-45.5627,-106.0004
13:29:11.070,-48.0627,-109.3754
13:29:11.071,-50.5002,-111.0629
13:29:11.086,-51.6252,-109.6879
13:29:11.093,-49.0002,-103.0629
13:29:11.094,-44.5627,-87.7503
13:29:11.104,-36.0001,-66.4378
13:29:11.115,-31.3751,-43.6252
13:29:11.124,-22.2501,-16.5626
13:29:11.134,-16.5626,4.6875
13:29:11.144,-15.3126,22.0626
13:29:11.154,-9.5625,36.8751
13:29:11.166,-3.25,51.3752
13:29:11.174,1.5625,59.9377
13:29:11.184,6.8125,68.9378
13:29:11.194,8.3125,73.6253
13:29:11.204,7.8125,72.3128
13:29:11.223,5.6875,71.7503
13:29:11.225,5.625,67.4378
13:29:11.234,4.3125,66.0003
13:29:11.245,4.4375,62.6252
13:29:11.254,3.4375,59.2502
13:29:11.264,2.3125,55.6877
13:29:11.274,1.6875,50.6877
13:29:11.285,1.0625,45.9377
13:29:11.294,-1.75,40.0627
13:29:11.306,-3.6875,32.6876
13:29:11.314,-6.25,27.5626
13:29:11.325,-7.3125,20.6876
13:29:11.334,-8.8125,17.4376
13:29:11.344,-8.8125,14.0001
13:29:11.354,-7.875,11.5
13:29:11.364,-7.6875,11.375
13:29:11.374,-5.5,11.25
13:29:11.384,-4.75,12.25
13:29:11.394,-2.375,13
13:29:11.405,-1.4375,15.1251
13:29:11.415,-0.1875,15.8126
13:29:11.424,0.9375,15.3126
13:29:11.435,0.5,15.6876
13:29:11.445,1.0625,14.1876
13:29:11.454,0.4375,13.6876
13:29:11.465,0.5625,11.125
13:29:11.474,-1,7.875
13:29:11.484,-2.8125,3.4375
13:29:11.494,-3.625,-0.6875
13:29:11.504,-5.375,-5.4375
13:29:11.515,-7.8125,-10.625
13:29:11.553,-10.25,-16.1876
13:29:11.554,-13.4376,-21.5001
13:29:11.556,-15.4376,-27.7501
13:29:11.570,-18.8126,-34.1251
13:29:11.572,-21.0001,-39.2502
13:29:11.579,-23.4376,-44.5627
13:29:11.585,-26.6876,-49.1252
13:29:11.597,-29.5001,-54.1877
13:29:11.605,-31.6876,-60.3127
13:29:11.615,-34.6876,-65.0002
13:29:11.624,-37.6251,-68.7503
13:29:11.639,-40.1252,-74.1253
13:29:11.645,-41.7502,-76.7503
13:29:11.679,-44.0627,-82.3753
13:29:11.682,-45.1252,-83.7503
13:29:11.750,-46.2502,-87.0003
13:29:11.753,-46.6252,-88.9378
13:29:11.754,-48.0002,-89.7503
13:29:11.755,-48.1877,-93.2504
13:29:11.755,-48.3752,-92.7504
13:29:11.760,-50.0627,-95.8129
13:29:11.769,-53.5002,-99.5004
13:29:11.781,-57.9377,-103.3754
13:29:11.790,-60.5627,-105.8129
13:29:11.800,-60.5627,-106.3129
13:29:11.810,-60.5002,-105.2504
13:29:11.820,-59.8127,-106.5004
13:29:11.837,-58.8127,-106.9379
13:29:11.839,-59.4377,-106.6254
13:29:11.854,-59.8127,-108.3129
13:29:11.865,-62.3127,-109.6254
13:29:11.874,-62.5627,-111.9379
13:29:11.885,-62.3752,-112.8129
13:29:11.895,-63.3752,-113.9379
13:29:11.906,-62.3752,-112.8754
13:29:11.916,-59.4377,-110.8754
13:29:11.925,-15.0001,-26.8751
13:29:11.934,0.875,5.1875
13:29:11.946,13.5001,33.0626
13:29:11.955,24.7501,55.5627
13:29:11.971,33.1251,74.5003
13:29:11.974,39.5627,87.1253
13:29:11.985,44.2502,98.0629
13:29:11.995,46.9377,104.2504
13:29:12.005,49.0627,107.5629
13:29:12.014,51.5627,109.8129
13:29:12.026,53.1252,110.3754
13:29:12.034,53.6252,107.6254
13:29:12.045,53.2502,106.2504
13:29:12.055,51.6877,103.1254
13:29:12.065,50.2502,97.5004
13:29:12.075,48.0002,94.0629
13:29:12.085,45.9377,87.5628
13:29:12.096,43.0002,80.9378
13:29:12.106,39.3752,73.6253
13:29:12.115,34.8751,66.6253
13:29:12.125,32.1251,58.3752
13:29:12.135,28.8751,50.7502
13:29:12.146,26.3751,44.8752
13:29:12.155,24.8751,39.3127
13:29:12.165,23.6876,34.7501
13:29:12.175,22.5626,31.6251
13:29:12.186,21.3751,29.7501
13:29:12.195,22.3751,28.8751
13:29:12.205,22.1876,28.0626
13:29:12.215,21.5001,28.0001
13:29:12.226,22.0626,27.7501
13:29:12.235,22.0626,27.8126
13:29:12.245,22.3751,26.3751
13:29:12.254,20.8751,25.6876
13:29:12.265,20.1251,22.9376
13:29:12.275,18.6876,19.6251
13:29:12.285,16.5001,15.8126
13:29:12.295,13.8126,11.75
13:29:12.305,10.875,6.8125
13:29:12.315,7.5625,0.0625
13:29:12.324,4.4375,-4.75
13:29:12.335,0.625,-12.5
13:29:12.354,-2.3125,-18.5001
13:29:12.356,-5.9375,-24.5001
13:29:12.371,-9.625,-30.1251
13:29:12.379,-12.4375,-35.7501
13:29:12.387,-16.7501,-42.1252
13:29:12.395,-18.9376,-48.3752
13:29:12.405,-22.6251,-53.1252
13:29:12.415,-26.0001,-58.3752
13:29:12.425,-28.2501,-62.9377
13:29:12.436,-30.8126,-67.6253
13:29:12.445,-31.8751,-70.6878
13:29:12.455,-34.1251,-74.5003
13:29:12.470,-35.4376,-76.8753
13:29:12.480,-36.3126,-80.3128
13:29:12.490,-39.0001,-82.9378
13:29:12.500,-43.1877,-87.8753
13:29:12.510,-47.2502,-90.5629
13:29:12.520,-50.6877,-94.2504
13:29:12.530,-51.9377,-95.3129
13:29:12.540,-52.0002,-97.5004
13:29:12.550,-50.8127,-96.2504
13:29:12.562,-51.4377,-97.1254
13:29:12.570,-51.6252,-97.4379
13:29:12.580,-53.0002,-97.7504
13:29:12.590,-54.1252,-99.8129
13:29:12.600,-54.4377,-100.6879
13:29:12.611,-55.1877,-100.1254
13:29:12.620,-55.7502,-103.0629
13:29:12.631,-56.2502,-105.0004
13:29:12.640,-57.1877,-105.2504
13:29:12.650,-57.3127,-107.4379
13:29:12.662,-57.1252,-107.8754
13:29:12.670,-57.4377,-107.7504
13:29:12.681,-56.4377,-108.6254
13:29:12.690,-53.2502,-101.5629
13:29:12.700,-46.0627,-89.4378
13:29:12.710,-34.3751,-67.4378
13:29:12.720,-19.9376,-41.3127
13:29:12.730,-3.1875,-9.3125
13:29:12.740,12.75,23.2501
13:29:12.750,24.9376,49.5627
13:29:12.761,35.9376,72.8753
13:29:12.770,42.9377,90.5628
13:29:12.780,49.0002,102.4379
13:29:12.790,53.9377,113.3129
13:29:12.800,57.0627,119.063
13:29:12.811,60.1252,122.313
13:29:12.845,61.0002,125.8755
13:29:12.847,61.8752,124.563
13:29:12.850,61.5002,122.313
13:29:12.853,61.1252,121.063
13:29:12.861,59.7502,116.6254
13:29:12.870,59.3752,113.8754
13:29:12.880,57.4377,107.6879
13:29:12.890,55.3752,101.7504
13:29:12.901,52.0627,95.8754
13:29:12.911,48.0002,87.2503
13:29:12.920,43.2502,79.1253
13:29:12.930,39.6877,69.2503
13:29:12.940,34.7501,61.6252
13:29:12.951,31.6876,52.4377
13:29:12.961,28.1876,46.1252
13:29:12.970,25.5001,39.6877
13:29:12.980,24.0001,36.6251
13:29:13.001,22.3126,32.2501
13:29:13.004,21.9376,31.5626
13:29:13.013,22.0001,30.9376
13:29:13.020,21.4376,30.5626
13:29:13.035,22.7501,30.2501
13:29:13.044,22.3751,31.3126
13:29:13.051,23.2501,30.0626
13:29:13.060,21.7501,29.5001
13:29:13.070,21.3126,27.4376
13:29:13.080,19.8751,25.0626
13:29:13.097,18.5001,21.0626
13:29:13.100,15.4376,17.3751
13:29:13.111,13.7501,11.8125
13:29:13.120,9.9375,7.25
13:29:13.131,7.5625,0.6875
13:29:13.140,3.9375,-5.8125
13:29:13.150,0.1875,-11.8125
13:29:13.179,-3.0625,-18.6251
13:29:13.181,-7.0625,-25.1876
13:29:13.184,-9.3125,-31.0626
13:29:13.193,-13.3126,-36.6876
13:29:13.215,-16.8751,-42.8127
13:29:13.218,-19.5001,-49.5627
13:29:13.220,-23.0626,-54.1877
13:29:13.244,-25.1876,-58.9377
13:29:13.246,-27.6251,-64.1877
13:29:13.273,-30.1251,-68.9378
13:29:13.274,-31.6251,-72.1253
13:29:13.277,-33.6876,-75.3128
13:29:13.281,-34.3126,-78.0003
13:29:13.300,-35.3126,-80.6253
13:29:13.303,-39.9377,-83.5003
13:29:13.311,-43.3752,-88.0003
13:29:13.320,-46.0002,-90.7504
13:29:13.330,-48.8127,-92.9379
13:29:13.340,-49.5002,-94.6879
13:29:13.351,-50.1252,-94.2504
13:29:13.361,-49.8752,-96.2504
13:29:13.370,-49.4377,-95.8129
13:29:13.380,-51.3752,-96.4379
13:29:13.390,-52.6877,-98.1254
13:29:13.400,-53.1252,-99.8129
13:29:13.410,-54.3127,-100.2504
13:29:13.423,-54.5002,-101.8129
13:29:13.430,-54.6877,-103.0004
13:29:13.442,-55.8752,-104.5629
13:29:13.451,-57.2502,-105.1879
13:29:13.460,-56.8752,-106.0629
13:29:13.472,-55.6877,-103.0629
13:29:13.480,-51.8127,-97.3129
13:29:13.490,-42.8127,-81.1253
13:29:13.502,-31.4376,-58.3752
13:29:13.511,-17.0001,-31.5626
13:29:13.520,-2.3125,-0.1875
13:29:13.530,12.1875,28.5001
13:29:13.540,24.6876,56.0627
13:29:13.550,32.2501,75.4378
13:29:13.561,38.8126,89.4378
13:29:13.570,43.2502,101.0004
13:29:13.582,45.7502,105.9379
13:29:13.591,48.1252,111.1879
13:29:13.601,48.2502,113.0004
13:29:13.610,48.6877,111.3754
13:29:13.621,49.2502,110.6254
13:29:13.630,47.7502,107.5004
13:29:13.640,46.7502,101.9379
13:29:13.656,44.2502,97.7504
13:29:13.673,42.8752,92.3754
13:29:13.677,41.5002,87.2503
13:29:13.682,39.0626,81.6878
13:29:13.690,37.0001,73.2503
13:29:13.700,33.5001,66.0003
13:29:13.711,31.3751,56.5002
13:29:13.720,28.6876,49.0002
13:29:13.730,26.5001,43.0002
13:29:13.740,24.0001,35.8751
13:29:13.750,22.2501,30.6251
13:29:13.761,21.3751,28.3751
13:29:13.770,20.8126,26.6251
13:29:13.780,21.5001,26.4376
13:29:13.792,20.3751,27.3126
13:29:13.800,21.7501,28.0626
13:29:13.810,21.7501,28.4376
13:29:13.820,22.3751,27.8751
13:29:13.830,22.7501,28.3751
13:29:13.846,21.6876,27.4376
13:29:13.851,20.4376,25.8751
13:29:13.860,19.9376,22.8126
13:29:13.871,17.3751,19.4376
13:29:13.881,17.5626,16.1251
13:29:13.890,15.8126,13.125
13:29:13.901,14.1251,7
13:29:13.910,11.1875,2.0625
13:29:13.920,8.25,-4.1875
13:29:13.930,4.8125,-11.9375
13:29:13.940,1.3125,-19.3751
13:29:13.951,-1.625,-25.5626
13:29:13.960,-5.375,-31.8751
13:29:13.970,-8.5625,-38.5001
13:29:13.981,-11.1875,-44.0002
13:29:13.990,-13.5626,-50.3127
13:29:14.000,-17.3751,-55.4377
13:29:14.010,-19.9376,-60.7502
13:29:14.020,-22.6876,-65.7503
13:29:14.030,-24.8126,-69.6253
13:29:14.042,-27.7501,-74.8128
13:29:14.050,-29.8751,-78.4378
13:29:14.060,-31.9376,-81.5628
13:29:14.070,-34.0001,-84.3753
13:29:14.081,-34.8126,-86.8128
13:29:14.090,-36.5001,-89.1253
13:29:14.123,-37.9376,-91.7504
13:29:14.125,-39.6877,-94.7504
13:29:14.128,-40.3752,-96.6879
13:29:14.133,-41.3752,-97.3129
13:29:14.141,-42.3752,-99.6879
13:29:14.150,-44.1252,-100.4379
13:29:14.160,-45.1252,-103.5004
13:29:14.171,-44.2502,-101.3129
13:29:14.180,-40.9377,-94.5004
13:29:14.191,-33.1876,-80.1253
13:29:14.201,-25.0001,-58.1252
13:29:14.210,-14.8126,-34.9376
13:29:14.223,-3.375,-8.4375
13:29:14.231,8.5625,19.3126
13:29:14.240,20.2501,46.2502
13:29:14.250,29.1251,68.0003
13:29:14.260,35.6876,83.1253
13:29:14.270,40.0002,94.1254
13:29:14.280,42.6877,101.1254
13:29:14.292,43.1877,105.1254
13:29:14.300,42.6252,105.8129
13:29:14.321,41.8752,105.6879
13:29:14.327,40.1252,102.1254
13:29:14.341,38.5626,99.1254
13:29:14.343,35.6251,95.5004
13:29:14.353,33.3126,88.3128
13:29:14.361,30.3126,83.7503
13:29:14.370,27.9376,77.4378
13:29:14.380,23.6251,69.3128
13:29:14.392,20.5001,61.3127
13:29:14.401,15.8126,52.0627
13:29:14.410,10.9375,42.5002
13:29:14.429,8.125,34.3751
13:29:14.432,4.0625,27.1251
13:29:14.471,2.1875,21.0626
13:29:14.473,-0.1875,16.5626
13:29:14.475,-0.1875,12.875
13:29:14.479,-1.375,11.875
13:29:14.483,-1.8125,11.125
13:29:14.497,-0.75,11.25
13:29:14.502,0.4375,12.1875
13:29:14.531,1.9375,14.9376
13:29:14.535,3.4375,16.8126
13:29:14.537,4.75,18.0001
13:29:14.541,5.9375,18.8751
13:29:14.559,6.625,19.8751
13:29:14.561,7.25,18.5626
13:29:14.571,7.875,18.0626
13:29:14.581,7.8125,15.9376
13:29:14.597,7.9375,14.2501
13:29:14.601,7.8125,10.9375
13:29:14.610,6.8125,7.4375
13:29:14.622,7.25,3.0625
13:29:14.630,5.9375,-1
13:29:14.640,4.5625,-5.75
13:29:14.650,1.625,-11.625
13:29:14.660,-0.5625,-17.3751
13:29:14.670,-3.0625,-24.8751
13:29:14.683,-5.25,-31.0626
13:29:14.690,-7.5625,-37.4376
13:29:14.700,-10.625,-43.3127
13:29:14.710,-14.1876,-49.3752
13:29:14.720,-17.0626,-55.3127
13:29:14.730,-19.7501,-62.1252
13:29:14.741,-22.6876,-65.6252
13:29:14.751,-24.2501,-72.1878
13:29:14.760,-27.0001,-75.6878
13:29:14.771,-28.1251,-79.6253
13:29:14.782,-29.7501,-83.1878
13:29:14.790,-31.1876,-85.5003
13:29:14.800,-32.5001,-90.5629
13:29:14.810,-32.9376,-91.6254
13:29:14.820,-35.3126,-96.3129
13:29:14.831,-36.5001,-98.3754
13:29:14.840,-37.1876,-100.3754
13:29:14.851,-37.8751,-103.6879
13:29:14.860,-38.1251,-105.3754
13:29:14.872,-39.8752,-107.0629
13:29:14.881,-41.3127,-111.4379
13:29:14.890,-41.9377,-112.8754
13:29:14.902,-42.6252,-114.0629
13:29:14.911,-42.5627,-112.7504
13:29:14.922,-38.4376,-105.4379
13:29:14.931,-30.3126,-86.4378
13:29:14.942,-18.3126,-60.6252
13:29:14.960,-4.125,-31.6251
13:29:14.962,11.3125,0.4375
13:29:14.979,25.6876,32.0626
13:29:14.993,37.7501,59.7502
13:29:14.995,45.5627,80.4378
13:29:15.001,51.9377,94.8754
13:29:15.011,54.3127,104.4379
13:29:15.021,56.3127,109.5629
13:29:15.030,56.1877,113.5629
13:29:15.041,55.3127,112.0004
13:29:15.050,53.5002,110.0629
13:29:15.062,50.1877,107.8129
13:29:15.072,48.1252,101.4379
13:29:15.080,45.5627,97.2504
13:29:15.091,43.5002,91.6254
13:29:15.101,40.0627,86.0003
13:29:15.111,37.0001,78.0003
13:29:15.120,29.6876,69.1253
13:29:15.131,22.1876,58.8127
13:29:15.141,16.0001,48.7502
13:29:15.151,10.625,40.1877
13:29:15.162,7.5625,32.7501
13:29:15.172,5.5625,26.0626
13:29:15.180,2.3125,21.1251
13:29:15.190,-0.6875,14.3751
13:29:15.201,-3.875,9.8125
13:29:15.210,-5.625,7.625
13:29:15.221,-5.9375,5.6875
13:29:15.231,-6.1875,6.4375
13:29:15.241,-4.5625,7.4375
13:29:15.253,-4.6875,8.8125
13:29:15.263,-4.125,9
13:29:15.271,-4.8125,9.375
13:29:15.282,-4.4375,10.0625
13:29:15.290,-5.1875,9.125
13:29:15.301,-5.875,8.9375
13:29:15.310,-6.375,6.6875
13:29:15.321,-8.3125,4.625
13:29:15.330,-9.375,1.75
13:29:15.347,-10,-2.0625
13:29:15.351,-11,-4.4375
13:29:15.362,-12.4375,-9.5625
13:29:15.371,-14.0001,-12.375
13:29:15.403,-16.3126,-17.6876
13:29:15.406,-17.7501,-22.3751
13:29:15.408,-19.5626,-27.1251
13:29:15.412,-20.2501,-30.8751
13:29:15.422,-21.3126,-34.6876
13:29:15.432,-22.4376,-38.6251
13:29:15.442,-24.0626,-44.2502
13:29:15.451,-25.6876,-47.5002
13:29:15.461,-25.9376,-52.3127
13:29:15.472,-26.5626,-54.6877
13:29:15.481,-26.3751,-57.4377
13:29:15.490,-25.4376,-59.0002
13:29:15.501,-24.6876,-60.1252
13:29:15.511,-24.0001,-63.5002
13:29:15.521,-24.8126,-64.8752
13:29:15.532,-24.3751,-68.3128
13:29:15.541,-25.0626,-70.1253
13:29:15.552,-26.6251,-73.2503
13:29:15.562,-27.2501,-75.6878
13:29:15.573,-29.0626,-78.9378
13:29:15.585,-30.5001,-82.4378
13:29:15.593,-31.6876,-84.4378
13:29:15.602,-33.6876,-89.0003
13:29:15.614,-34.7501,-91.4379
13:29:15.629,-35.4376,-93.6254
13:29:15.635,-37.0626,-97.0004
13:29:15.650,-37.9376,-100.2504
13:29:15.654,-40.0627,-101.7504
13:29:15.668,-39.2501,-102.3129
13:29:15.671,-34.1876,-93.4379
13:29:15.680,-24.8126,-74.0628
13:29:15.691,-10.9375,-49.5627
13:29:15.701,5,-19.1251
13:29:15.712,19.8751,10.3125
13:29:15.725,34.6251,40.2502
13:29:15.733,46.7502,68.3753
13:29:15.742,54.5627,86.5003
13:29:15.752,60.5002,101.5629
13:29:15.761,63.1252,110.2504
13:29:15.772,64.4377,114.1254
13:29:15.782,64.3752,116.1879
13:29:15.793,63.0002,114.8129
13:29:15.801,60.3127,112.6254
13:29:15.811,58.1877,107.5629
13:29:15.822,53.3127,102.2504
13:29:15.832,49.8752,94.5629
13:29:15.842,47.5627,89.5003
13:29:15.851,42.5002,81.6878
13:29:15.861,39.5002,74.9378
13:29:15.872,35.1876,66.9378
13:29:15.881,31.1876,59.1877
13:29:15.892,26.8126,50.8127
13:29:15.901,22.4376,41.6877
13:29:15.911,17.9376,33.5626
13:29:15.921,15.0001,26.3126
13:29:15.931,11.1875,20.7501
13:29:15.941,9.6875,15.3126
13:29:15.951,7.5625,10.375
13:29:15.961,4.875,8.375
13:29:15.972,4.75,6.1875
13:29:15.981,4.1875,6.75
13:29:15.992,2.4375,3.9375
13:29:16.024,-1.9375,3.0625
13:29:16.027,-3.1875,1.125
13:29:16.031,-4.9375,0.5625
13:29:16.031,-4.4375,0.375
13:29:16.061,-4.625,1.375
13:29:16.070,-5.75,-0.875
13:29:16.071,-7.0625,-3
13:29:16.071,-9.75,-5.6875
13:29:16.103,-12.25,-9.875
13:29:16.108,-14.3126,-13.1876
13:29:16.108,-16.1251,-17.8751
13:29:16.116,-16.9376,-20.8751
13:29:16.126,-18.6876,-25.5001
13:29:16.142,-21.6876,-29.0001
13:29:16.144,-24.3126,-35.6876
13:29:16.151,-27.0626,-40.9377
13:29:16.162,-30.0001,-46.1877
13:29:16.172,-32.1251,-50.1877
13:29:16.181,-33.5626,-54.9377
13:29:16.191,-35.0001,-57.7502
13:29:16.202,-36.3751,-62.1877
13:29:16.213,-37.5001,-66.6253
13:29:16.222,-39.5627,-68.0003
13:29:16.232,-41.0627,-72.8753
13:29:16.243,-42.7502,-73.8128
13:29:16.262,-43.8752,-78.1253
13:29:16.264,-43.8752,-80.0003
13:29:16.280,-45.1252,-81.3753
13:29:16.281,-44.7502,-82.3128
13:29:16.291,-44.4377,-82.4378
13:29:16.308,-45.3127,-85.3128
13:29:16.312,-45.1252,-85.9378
13:29:16.323,-46.8127,-85.3753
13:29:16.332,-46.6877,-87.7503
13:29:16.342,-47.3127,-88.0628
13:29:16.352,-47.3752,-88.8753
13:29:16.365,-47.0627,-90.0003
13:29:16.372,-47.3127,-90.8754
13:29:16.382,-47.5002,-92.5004
13:29:16.393,-48.3752,-93.6879
13:29:16.406,-49.4377,-96.1254
13:29:16.416,-49.3752,-96.3754
13:29:16.434,-50.1252,-97.4379
13:29:16.434,-48.3752,-95.0629
13:29:16.442,-44.2502,-87.8128
13:29:16.463,-36.3751,-73.4378
13:29:16.487,-24.0001,-51.2502
13:29:16.488,-12.375,-25.0001
13:29:16.491,2,4
13:29:16.503,15.7501,33.4376
13:29:16.507,26.8126,58.5002
13:29:16.521,36.5001,78.8753
13:29:16.531,41.3752,95.2504
13:29:16.539,46.4377,105.0629
13:29:16.547,49.1252,114.6879
13:29:16.562,50.4377,116.7504
13:29:16.569,51.5627,119.2505
13:29:16.579,49.8752,118.313
13:29:16.595,49.1252,115.7504
13:29:16.607,46.2502,111.7504
13:29:16.609,43.6877,106.8754
13:29:16.616,41.8127,101.5629
13:29:16.675,38.3126,96.6879
13:29:16.686,33.8751,88.5628
13:29:16.691,31.8126,80.8128
13:29:16.693,27.5626,71.6253
13:29:16.701,23.1876,64.1877
13:29:16.701,19.6251,55.9377
13:29:16.701,15.5626,48.6252
13:29:16.706,13.2501,41.6252
13:29:16.720,11.0625,37.3126
13:29:16.722,10.1875,33.2501
13:29:16.735,9.25,32.2501
13:29:16.742,9.25,31.0626
13:29:16.751,9.75,31.4376
13:29:16.773,10.25,32.7501
13:29:16.777,11.875,34.8751
13:29:16.783,15.0001,38.5626
13:29:16.792,15.1251,39.5002
13:29:16.802,15.4376,40.1877
13:29:16.813,15.0001,39.4377
13:29:16.823,13.8126,39.0001
13:29:16.834,13.125,36.8751
13:29:16.844,11.5625,33.3126
13:29:16.853,10.9375,30.7501
13:29:16.862,8.5625,25.7501
13:29:16.871,5.875,21.1251
13:29:16.881,3.0625,16.1876
13:29:16.893,0.125,9.8125
13:29:16.901,-2.5625,4.5625
13:29:16.912,-4.5625,-0.8125
13:29:16.923,-7.8125,-5.75
13:29:16.937,-9.6875,-11
13:29:16.953,-11.625,-16.5001
13:29:16.973,-14.7501,-20.8126
13:29:16.975,-17.5001,-25.8751
13:29:16.975,-19.3751,-31.1876
13:29:16.984,-20.5626,-34.1876
13:29:16.994,-23.4376,-38.5001
13:29:17.002,-27.6251,-43.5002
13:29:17.012,-29.4376,-47.9377
13:29:17.056,-33.2501,-50.5627
13:29:17.056,-34.7501,-53.5002
13:29:17.056,-36.9376,-57.1252
13:29:17.056,-39.2502,-60.1877
13:29:17.069,-40.5627,-61.8752
13:29:17.073,-41.9377,-64.3127
13:29:17.083,-42.1877,-66.5003
13:29:17.092,-44.1252,-67.3753
13:29:17.103,-44.1252,-69.3128
13:29:17.117,-45.2502,-70.1253
13:29:17.122,-45.0627,-72.2503
13:29:17.131,-44.0002,-73.4378
13:29:17.142,-44.0002,-73.3128
13:29:17.152,-41.2502,-70.7503
13:29:17.163,-36.7501,-63.2502
13:29:17.171,-28.4376,-48.8127
13:29:17.181,-17.3751,-26.0001
13:29:17.191,-4.375,-1.125
13:29:17.205,11.1875,26.0626
13:29:17.212,22.1876,51.3752
13:29:17.223,31.4376,71.1878
13:29:17.232,37.5001,88.7503
13:29:17.258,42.1252,98.8754
13:29:17.259,45.6252,109.1879
13:29:17.265,48.1252,114.7504
13:29:17.274,48.8752,117.0004
13:29:17.281,48.7502,118.688
13:29:17.291,47.3752,117.8129
13:29:17.302,47.0627,114.0629
13:29:17.312,46.9377,112.6879
13:29:17.323,45.4377,108.6254
13:29:17.332,43.9377,103.8129
13:29:17.343,40.7502,98.8754
13:29:17.374,37.8126,91.5629
13:29:17.388,33.8751,85.1253
13:29:17.388,29.3751,76.2503
13:29:17.388,25.1251,68.1253
13:29:17.394,21.4376,59.8127
13:29:17.426,16.2501,52.1252
13:29:17.431,13.0625,45.3752
13:29:17.434,10.625,39.3752
13:29:17.442,8.1875,35.6251
13:29:17.443,7.375,32.5626
13:29:17.470,7.125,30.6251
13:29:17.481,7.125,30.3751
13:29:17.481,7.5625,31.7501
13:29:17.484,7.0625,32.5626
13:29:17.492,7.3125,33.6251
13:29:17.502,7.375,33.6876
13:29:17.528,7.0625,33.0626
13:29:17.528,6.1875,33.0001
13:29:17.532,5.5,31.1876
13:29:17.543,4.1875,29.6876
13:29:17.558,3.1875,26.6251
13:29:17.574,0.875,22.9376
13:29:17.578,-1.125,19.8751
13:29:17.583,-3.375,14.6876
13:29:17.592,-6.5,9.6875
13:29:17.601,-8.75,4.375
13:29:17.622,-10.875,-1.6875
13:29:17.625,-14.4376,-6.625
13:29:17.633,-15.9376,-12.125
13:29:17.641,-19.3751,-17.0001
13:29:17.659,-21.6876,-22.1876
13:29:17.662,-23.2501,-28.0001
13:29:17.671,-26.8751,-33.2501
13:29:17.682,-29.0001,-39.1252
13:29:17.692,-31.9376,-43.6877
13:29:17.705,-33.7501,-47.9377
13:29:17.711,-35.4376,-52.5002
13:29:17.721,-37.5626,-56.5627
13:29:17.731,-39.0002,-59.4377
13:29:17.741,-41.1877,-62.8127
13:29:17.752,-42.3752,-66.9378
13:29:17.762,-43.4377,-68.6253
13:29:17.771,-44.7502,-71.6253
13:29:17.781,-45.3752,-74.4378
13:29:17.791,-46.8752,-75.9378
13:29:17.801,-47.7502,-79.0003
13:29:17.813,-48.6252,-80.3128
13:29:17.822,-49.8752,-83.1878
13:29:17.832,-50.3752,-84.9378
13:29:17.842,-51.8127,-87.6878
13:29:17.852,-52.3752,-89.7503
13:29:17.862,-53.5627,-90.7504
13:29:17.873,-52.6877,-91.4379
13:29:17.884,-49.3127,-84.6878
13:29:17.891,-41.3127,-71.1253
13:29:17.903,-30.6876,-51.2502
13:29:17.911,-17.9376,-24.9376
13:29:17.921,-4.25,3
13:29:17.932,8.25,31.1876
13:29:17.963,18.5626,53.5627
13:29:17.965,28.2501,74.4378
13:29:17.969,34.0626,90.2503
13:29:17.974,38.8751,102.3754
13:29:17.982,43.0627,112.5004
13:29:17.992,45.1877,117.0629
13:29:18.003,46.2502,120.6255
13:29:18.016,46.5002,121.1255
13:29:18.022,45.6877,120.438
13:29:18.033,43.7502,119.6255
13:29:18.042,43.0627,115.8129
13:29:18.051,41.5002,112.6254
13:29:18.061,38.9376,108.7504
13:29:18.071,37.2501,103.0004
13:29:18.082,34.0626,98.7504
13:29:18.092,31.5001,91.4379
13:29:18.103,27.6251,85.1253
13:29:18.113,24.6251,77.8753
13:29:18.123,21.0626,70.6253
13:29:18.132,19.1251,64.3752
13:29:18.141,14.6876,57.6252
13:29:18.153,12.5625,52.3127
13:29:18.161,10.3125,48.3752
13:29:18.178,8.875,45.8127
13:29:18.199,9.0625,44.1252
13:29:18.201,8.625,43.8752
13:29:18.203,8.3125,43.1252
13:29:18.215,9.3125,43.2502
13:29:18.232,9.75,44.8752
13:29:18.238,9.9375,44.7502
13:29:18.253,9.75,44.1252
13:29:18.256,8.75,42.4377
13:29:18.263,7.3125,40.1877
13:29:18.285,6.1875,38.0001
13:29:18.286,3.75,34.9376
13:29:18.295,2.75,31.0626
13:29:18.303,0.8125,26.8126
13:29:18.315,-2.0625,23.3751
13:29:18.321,-4.1875,18.0001
13:29:18.333,-6.375,12.4375
13:29:18.341,-8.1875,7.9375
13:29:18.354,-10.8125,1.375
13:29:18.361,-13.0625,-2.6875
13:29:18.376,-16.0001,-9.6875
13:29:18.383,-18.4376,-14.3126
13:29:18.399,-20.6251,-20.3126
13:29:18.404,-24.1251,-25.2501
13:29:18.412,-26.0626,-30.1876
13:29:18.421,-27.7501,-35.8126
13:29:18.434,-30.4376,-39.3752
13:29:18.441,-31.5001,-44.5627
13:29:18.453,-34.1251,-48.0002
13:29:18.468,-35.3751,-53.0002
13:29:18.474,-37.6251,-55.6877
13:29:18.483,-38.1251,-59.7502
13:29:18.493,-40.6252,-61.6877
13:29:18.502,-40.5627,-65.1877
13:29:18.513,-42.2502,-67.3128
13:29:18.522,-43.1252,-70.0628
13:29:18.533,-44.6877,-71.1878
13:29:18.543,-44.3752,-74.5003
13:29:18.551,-44.6877,-76.5003
13:29:18.563,-46.8127,-78.3128
13:29:18.571,-47.3752,-81.3753
13:29:18.583,-48.7502,-82.0628
13:29:18.592,-49.3127,-85.3128
13:29:18.605,-49.9377,-87.5003
13:29:18.613,-51.3752,-88.6878
13:29:18.622,-52.5627,-93.0004
13:29:18.633,-53.3752,-93.6879
13:29:18.644,-53.9377,-95.6879
13:29:18.675,-52.3127,-93.5004
13:29:18.675,-46.8752,-83.6253
13:29:18.678,-38.3126,-69.0628
13:29:18.684,-25.2501,-44.1877
13:29:18.714,-12.25,-16.5626
13:29:18.718,3.375,12.625
13:29:18.719,14.8126,40.6252
13:29:18.724,25.3126,62.5627
13:29:18.759,33.3126,82.8128
13:29:18.761,39.1877,97.1879
13:29:18.764,44.8752,109.9379
13:29:18.770,47.9377,117.1254
13:29:18.774,49.3752,122.2505
13:29:18.798,49.9377,125.0005
13:29:18.800,49.4377,123.8755
13:29:18.804,49.0627,122.938
13:29:18.812,46.5627,121.6255
13:29:18.824,45.3127,116.8129
13:29:18.833,43.6877,113.6254
13:29:18.854,41.6877,109.1879
13:29:18.857,40.6252,105.5629
13:29:18.872,37.1876,99.6879
13:29:18.875,34.0001,93.0004
13:29:18.883,30.2501,85.9378
13:29:18.892,27.0001,79.0003
13:29:18.903,23.6251,71.7503
13:29:18.913,20.0001,66.1253
13:29:18.923,17.3751,59.3127
13:29:18.932,15.0626,54.8127
13:29:18.942,13.9376,51.6252
13:29:18.953,13.0625,48.8127
13:29:18.961,12.75,48.3127
13:29:18.973,11.625,45.7502
13:29:18.983,12.875,46.3127
13:29:18.994,13,46.5002
13:29:19.003,13.3126,47.0627
13:29:19.013,13.5001,46.2502
13:29:19.022,13.1251,45.8752
13:29:19.033,13.2501,43.8127
13:29:19.043,12.1875,43.0002
13:29:19.052,10.0625,38.6251
13:29:19.063,6.9375,34.1251
13:29:19.073,5,29.4376
13:29:19.083,3.0625,26.6251
13:29:19.093,1.6875,20.9376
13:29:19.103,-0.1875,18.1876
13:29:19.113,-2.3125,11.875
13:29:19.123,-4.5625,7.0625
13:29:19.133,-6.6875,1
13:29:19.146,-9.3125,-4
13:29:19.153,-12.3125,-10.0625
13:29:19.163,-14.0626,-16.6876
13:29:19.175,-17.2501,-21.9376
13:29:19.183,-18.8126,-28.2501
13:29:19.193,-22.0626,-34.3751
13:29:19.203,-23.5001,-38.8751
13:29:19.213,-25.8126,-44.5627
13:29:19.244,-28.6251,-49.5627
13:29:19.246,-29.2501,-53.5002
13:29:19.250,-30.8751,-57.3127
13:29:19.254,-31.9376,-61.3127
13:29:19.263,-33.6251,-64.1877
13:29:19.273,-33.3751,-67.0003
13:29:19.283,-35.3751,-69.7503
13:29:19.292,-34.5626,-72.1253
13:29:19.303,-34.5001,-73.9378
13:29:19.313,-35.3751,-75.6878
13:29:19.328,-35.1876,-77.1878
13:29:19.338,-36.1251,-78.3128
13:29:19.348,-37.0626,-82.8128
13:29:19.358,-36.6876,-83.8128
13:29:19.368,-38.0001,-85.5003
13:29:19.379,-39.3752,-88.7503
13:29:19.388,-38.7501,-89.6253
13:29:19.398,-39.8127,-92.6879
13:29:19.409,-41.0627,-94.5004
13:29:19.419,-43.3127,-98.8754
13:29:19.428,-45.5002,-101.6879
13:29:19.438,-46.5627,-104.0004
13:29:19.448,-46.3127,-106.3129
13:29:19.458,-45.0627,-105.7504
13:29:19.468,-42.2502,-101.2504
13:29:19.479,-35.6876,-91.1254
13:29:19.487,-23.2501,-67.8128
13:29:19.501,-7.5625,-36.0001
13:29:19.508,7.8125,-7.8125
13:29:19.518,21.0626,22.6251
13:29:19.533,32.9376,47.1252
13:29:19.554,42.5627,68.5003
13:29:19.556,49.1877,84.6253
13:29:19.559,55.0002,96.8754
13:29:19.568,57.3127,105.8129
13:29:19.579,58.0627,109.0629
13:29:19.589,58.3752,110.6879
13:29:19.598,56.1252,110.1254
13:29:19.608,53.7502,105.8129
13:29:19.618,52.1252,102.3754
13:29:19.629,49.5002,98.8129
13:29:19.637,47.5627,93.3129
13:29:19.647,43.6252,87.3753
13:29:19.657,39.4377,79.8753
13:29:19.667,36.5001,73.7503
13:29:19.679,33.4376,66.5003
13:29:19.688,31.3751,60.0627
13:29:19.697,28.0001,52.8127
13:29:19.708,23.4376,45.2502
13:29:19.718,20.0626,38.6876
13:29:19.727,17.3126,31.4376
13:29:19.738,14.8751,26.6876
13:29:19.754,13.0625,23.3126
13:29:19.764,11.5625,20.1251
13:29:19.773,10.4375,18.3126
13:29:19.783,10.5625,19.0001
13:29:19.792,10.625,20.8126
13:29:19.803,12.5625,21.5001
13:29:19.813,12.875,23.6876
13:29:19.823,14.3126,25.5626
13:29:19.833,12.5,24.3126
13:29:19.844,11.8125,24.0001
13:29:19.853,12.375,22.4376
13:29:19.863,10.625,20.8126
13:29:19.873,8.8125,16.1876
13:29:19.883,6.5,12.4375
13:29:19.892,4.1875,8.4375
13:29:19.903,1.625,4.125
13:29:19.914,-1.9375,-4.5
13:29:19.929,-3.8125,-9
13:29:19.932,-5.875,-13.0625
13:29:19.942,-7.4375,-18.3126
13:29:19.952,-9.4375,-24.0626
13:29:19.962,-12.125,-29.1876
13:29:19.973,-14.5626,-34.6251
13:29:19.983,-16.1876,-39.3126
13:29:19.993,-18.6251,-45.6252
13:29:20.003,-20.5001,-49.1252
13:29:20.013,-21.6876,-53.3752
13:29:20.023,-24.8126,-58.7502
13:29:20.033,-27.2501,-61.7502
13:29:20.045,-28.8126,-65.5627
13:29:20.053,-29.5001,-70.0628
13:29:20.065,-29.1251,-70.8128
13:29:20.073,-29.0626,-71.8753
13:29:20.082,-31.0626,-75.7503
13:29:20.093,-32.5001,-78.5003
13:29:20.104,-34.1876,-81.4378
13:29:20.127,-34.0001,-81.6878
13:29:20.130,-34.1876,-82.0003
13:29:20.133,-33.6251,-83.5628
13:29:20.193,-33.6876,-85.1253
13:29:20.194,-34.3751,-86.1878
13:29:20.197,-35.3126,-88.0003
13:29:20.199,-37.1251,-90.7504
13:29:20.204,-37.1251,-92.8754
13:29:20.204,-38.7501,-94.1879
13:29:20.204,-39.1876,-97.6879
13:29:20.243,-40.6877,-99.0629
13:29:20.247,-42.2502,-102.9379
13:29:20.248,-42.6877,-103.8754
13:29:20.250,-42.1252,-103.0629
13:29:20.253,-37.0626,-94.6879
13:29:20.266,-29.0001,-76.8753
13:29:20.273,-17.1876,-57.1252
13:29:20.283,-4.875,-30.3751
13:29:20.293,8.875,-5.8125
13:29:20.306,19.7501,21.3126
13:29:20.314,30.6251,44.9377
13:29:20.324,38.4376,63.3127
13:29:20.332,45.0627,78.1253
13:29:20.343,49.0627,87.6253
13:29:20.353,51.1877,93.6254
13:29:20.363,53.7502,97.1879
13:29:20.373,51.8752,97.9379
13:29:20.385,49.5002,94.1254
13:29:20.393,46.6877,90.6879
13:29:20.403,43.5627,83.9378
13:29:20.413,40.2502,79.1253
13:29:20.423,36.0626,70.6253
13:29:20.432,32.5626,63.3752
13:29:20.446,27.8751,55.8752
13:29:20.453,23.6251,45.3752
13:29:20.463,18.3126,36.7501
13:29:20.472,13.6251,26.3126
13:29:20.482,9.0625,17.5001
13:29:20.498,5.25,9.6875
13:29:20.524,2.125,2.25
13:29:20.526,0.4375,-1.875
13:29:20.529,-1.4375,-5.1875
13:29:20.538,-2.8125,-6.6875
13:29:20.547,-3.5625,-6.9375
13:29:20.558,-3.375,-7.8125
13:29:20.568,-3.9375,-5.8125
13:29:20.580,-2.375,-5.625
13:29:20.588,-1.9375,-2.5
13:29:20.598,-0.4375,-1.0625
13:29:20.607,0.625,0.1875
13:29:20.618,0.9375,1.3125
13:29:20.628,0.6875,-0.625
13:29:20.638,-0.5,-1.8125
13:29:20.647,-1.6875,-3.9375
13:29:20.657,-4.5,-8.5
13:29:20.669,-6.125,-11.3125
13:29:20.682,-7.6875,-15.6876
13:29:20.687,-10,-20.1876
13:29:20.697,-12.625,-24.3751
13:29:20.707,-15.4376,-30.5001
13:29:20.718,-18.9376,-34.2501
13:29:20.730,-21.9376,-40.5627
13:29:20.738,-25.3126,-45.0627
13:29:20.747,-26.6876,-50.7502
13:29:20.759,-29.3126,-54.4377
13:29:20.768,-31.2501,-60.3752
13:29:20.780,-33.6251,-64.9377
13:29:20.788,-34.8751,-67.6878
13:29:20.798,-36.7501,-72.1878
13:29:20.808,-39.1252,-76.1253
13:29:20.828,-39.8752,-79.1878
13:29:20.834,-41.5627,-81.8753
13:29:20.849,-42.3127,-84.6878
13:29:20.851,-43.0002,-87.4378
13:29:20.857,-44.6252,-89.9378
13:29:20.868,-45.6877,-92.0629
13:29:20.880,-47.4377,-92.5004
13:29:20.887,-47.0002,-95.0629
13:29:20.898,-47.0002,-95.7504
13:29:20.907,-47.5002,-97.1879
13:29:20.918,-47.6877,-99.5629
13:29:20.930,-48.1877,-100.0629
13:29:20.939,-49.1252,-102.3129
13:29:20.948,-49.7502,-103.7504
13:29:20.958,-51.6877,-106.0004
13:29:20.968,-51.8127,-108.6254
13:29:20.979,-52.5627,-108.6254
13:29:20.987,-51.8752,-110.8754
13:29:20.998,-51.1877,-107.8754
13:29:21.008,-46.8127,-101.8754
13:29:21.019,-38.3751,-84.9378
13:29:21.030,-27.7501,-63.6252
13:29:21.037,-17.3126,-40.6252
13:29:21.048,-4.3125,-12.25
13:29:21.063,8.9375,14.5626
13:29:21.068,20.7501,41.2502
13:29:21.077,29.5626,62.5627
13:29:21.087,37.0001,78.8128
13:29:21.098,42.6252,91.8754
13:29:21.108,46.0002,101.8129
13:29:21.119,47.6877,105.3129
13:29:21.127,48.5002,108.0629
13:29:21.138,47.4377,107.0004
13:29:21.149,46.6877,104.3754
13:29:21.158,42.6252,100.3129
13:29:21.168,40.0627,94.0004
13:29:21.180,36.6251,89.0628
13:29:21.188,33.0001,82.7503
13:29:21.199,28.8126,73.6878
13:29:21.209,25.1876,66.2503
13:29:21.218,20.3126,57.3752
13:29:21.228,17.2501,48.5627
13:29:21.238,12.375,39.8127
13:29:21.248,9.9375,32.8751
13:29:21.258,6.125,26.0626
13:29:21.268,3.9375,19.7501
13:29:21.278,0.9375,15.6251
13:29:21.288,-0.0625,12.1875
13:29:21.299,-0.8125,10.5
13:29:21.307,-1.4375,9.625
13:29:21.318,-1.625,9.25
13:29:21.328,-0.875,10.3125
13:29:21.338,1.4375,11.5625
13:29:21.348,2.5,14.1876
13:29:21.358,3.25,15.8126
13:29:21.369,3.1875,15.5626
13:29:21.378,3.5,15.8126
13:29:21.389,2.75,14.1876
13:29:21.397,2.1875,14.0001
13:29:21.408,1.125,10.5
13:29:21.419,0.5625,8.625
13:29:21.427,-0.8125,4.6875
13:29:21.448,-2.25,2
13:29:21.450,-4.25,-3.4375
13:29:21.466,-6.75,-7.5
13:29:21.468,-9.5625,-13.0625
13:29:21.479,-12.4375,-17.7501
13:29:21.488,-15.3126,-24.0001
13:29:21.501,-17.5626,-29.5626
13:29:21.508,-19.9376,-34.1876
13:29:21.519,-22.1876,-38.8751
13:29:21.528,-24.3126,-43.9377
13:29:21.539,-26.0001,-49.6877
13:29:21.548,-28.5001,-53.6877
13:29:21.559,-30.0626,-58.0627
13:29:21.569,-32.0001,-62.0627
13:29:21.577,-33.7501,-65.0002
13:29:21.589,-34.5626,-68.9378
13:29:21.601,-36.3126,-71.3128
13:29:21.608,-38.4376,-75.5628
13:29:21.657,-40.5002,-77.5628
13:29:21.660,-42.1877,-81.5628
13:29:21.660,-43.8752,-82.4378
13:29:21.665,-43.8752,-86.0628
13:29:21.665,-44.4377,-87.3128
13:29:21.679,-44.5002,-88.9378
13:29:21.680,-44.4377,-88.9378
13:29:21.710,-44.5627,-90.8754
13:29:21.712,-45.3127,-91.5004
13:29:21.714,-46.0627,-93.6879
13:29:21.720,-47.1252,-95.5629
13:29:21.746,-49.8127,-99.6254
13:29:21.750,-50.0002,-101.7504
13:29:21.752,-49.4377,-102.3129
13:29:21.759,-50.8752,-103.8754
13:29:21.768,-49.8752,-102.9379
13:29:21.779,-46.6877,-96.4379
13:29:21.805,-37.5001,-80.3128
13:29:21.806,-26.0001,-56.7502
13:29:21.809,-12.1875,-30.8126
13:29:21.824,2.25,-3.5625
13:29:21.829,15.3751,24.5001
13:29:21.839,26.8751,51.5627
13:29:21.849,36.8126,72.7503
13:29:21.859,44.2502,90.3129
13:29:21.869,49.5627,102.0004
13:29:21.879,53.3752,111.3129
13:29:21.889,55.1252,118.5005
13:29:21.897,56.1877,119.313
13:29:21.909,55.6252,120.1255
13:29:21.918,54.1252,117.813
13:29:21.929,51.7502,114.0004
13:29:21.938,49.1252,108.7504
13:29:21.951,46.0002,102.6879
13:29:21.958,42.9377,97.1879
13:29:21.969,39.8752,90.3128
13:29:21.979,37.0626,83.9378
13:29:21.989,32.9376,77.9378
13:29:21.998,29.5001,69.9378
13:29:22.009,26.0626,62.6877
13:29:22.019,22.5626,54.0002
13:29:22.029,18.6876,47.8127
13:29:22.039,16.5626,40.9377
13:29:22.049,14.5001,37.2501
13:29:22.058,13.125,33.1876
13:29:22.069,12.5625,29.4376
13:29:22.078,12.875,29.5001
13:29:22.091,12.75,28.7501
13:29:22.098,13.4376,29.3126
13:29:22.109,13.2501,27.8751
13:29:22.129,14.1876,30.3751
13:29:22.135,15.1251,30.2501
13:29:22.142,14.8751,31.1251
13:29:22.149,14.8751,30.4376
13:29:22.166,14.1251,29.9376
13:29:22.172,12.875,27.0626
13:29:22.180,11.5,25.4376
13:29:22.189,9.6875,21.2501
13:29:22.200,8,18.6876
13:29:22.210,6.8125,13.8126
13:29:22.219,4.375,10.6875
13:29:22.229,1.1875,4
13:29:22.239,-1.4375,0.1875
13:29:22.249,-4.5625,-6.375
13:29:22.261,-6.6875,-11.3125
13:29:22.269,-9.5625,-15.8751
13:29:22.279,-11.6875,-20.5626
13:29:22.289,-14.2501,-27.0001
13:29:22.299,-16.5626,-32.3126
13:29:22.309,-18.9376,-36.8751
13:29:22.319,-21.1876,-41.3127
13:29:22.329,-23.0001,-46.3752
13:29:22.339,-24.6251,-51.8127
13:29:22.350,-26.6876,-54.3752
13:29:22.359,-27.9376,-58.3127
13:29:22.369,-30.2501,-63.5627
13:29:22.379,-31.9376,-65.3128
13:29:22.390,-33.5001,-69.8128
13:29:22.399,-35.3126,-73.1878
13:29:22.409,-35.8751,-74.6878
13:29:22.419,-37.6251,-78.1878
13:29:22.430,-38.0626,-79.9378
13:29:22.439,-38.3751,-80.4378
13:29:22.449,-38.5001,-82.5003
13:29:22.459,-38.9376,-82.8753
13:29:22.470,-39.1876,-85.3753
13:29:22.479,-40.3752,-86.1878
13:29:22.489,-40.5627,-89.1253
13:29:22.499,-42.0627,-90.3753
13:29:22.510,-42.7502,-93.1879
13:29:22.519,-44.1252,-95.7504
13:29:22.529,-45.3752,-98.4379
13:29:22.539,-46.0627,-100.6879
13:29:22.549,-45.9377,-101.0629
13:29:22.559,-44.3127,-97.1879
13:29:22.572,-37.3751,-85.6878
13:29:22.581,-26.8751,-64.6252
13:29:22.589,-14.1251,-40.5627
13:29:22.599,-0.1875,-12.875
13:29:22.609,13.5626,16.5626
13:29:22.621,26.5626,42.3752
13:29:22.629,37.8126,67.1253
13:29:22.639,44.5627,85.8128
13:29:22.649,50.5002,98.3754
13:29:22.659,53.4377,108.6879
13:29:22.669,55.0002,113.1254
13:29:22.680,55.6877,116.4379
13:29:22.689,55.1877,116.0004
13:29:22.699,54.0627,114.9379
13:29:22.709,51.1877,109.1254
13:29:22.719,48.6877,104.8754
13:29:22.729,44.6252,99.3754
13:29:22.744,41.6252,92.0004
13:29:22.752,38.8126,85.5003
13:29:22.759,35.1251,78.3128
13:29:22.775,31.8126,71.6253
13:29:22.779,28.8751,63.6252
13:29:22.794,24.6876,55.5002
13:29:22.799,20.8126,48.0627
13:29:22.809,16.2501,40.1877
13:29:22.819,14.4376,32.6251
13:29:22.830,10.8125,28.7501
13:29:22.840,8.6875,23.0001
13:29:22.849,7.375,20.6876
13:29:22.859,6.9375,19.0001
13:29:22.869,6.75,18.2501
13:29:22.879,7.625,19.1876
13:29:22.889,8.4375,19.4376
13:29:22.899,8.875,21.1876
13:29:22.910,9.75,22.3126
13:29:22.939,9.5,22.4376
13:29:22.941,10.0625,22.5626
13:29:22.946,10,22.3751
13:29:22.950,9.8125,21.4376
13:29:22.976,9.875,20.5626
13:29:22.979,8.6875,16.9376
13:29:22.981,7.4375,14.1876
13:29:23.019,5.5625,10.625
13:29:23.022,3.5,6.0625
13:29:23.025,1.4375,1.4375
13:29:23.026,-2.125,-4.25
13:29:23.031,-4.1875,-9.125
13:29:23.059,-7.25,-14.2501
13:29:23.084,-9.5625,-19.1251
13:29:23.086,-11.875,-24.9376
13:29:23.089,-15.2501,-29.1876
13:29:23.091,-17.5001,-33.8751
13:29:23.095,-19.6251,-39.8127
13:29:23.100,-22.2501,-46.0627
13:29:23.109,-24.6876,-50.4377
13:29:23.119,-26.5001,-55.0627
13:29:23.131,-28.1876,-58.7502
13:29:23.139,-29.7501,-61.0627
13:29:23.149,-29.6876,-63.5627
13:29:23.159,-30.0001,-65.9378
13:29:23.169,-31.5001,-68.3753
13:29:23.179,-32.5001,-70.3753
13:29:23.189,-33.6251,-72.0003
13:29:23.200,-35.1876,-75.6878
13:29:23.209,-36.1251,-77.1878
13:29:23.219,-36.8751,-78.7503
13:29:23.229,-36.7501,-80.2503
13:29:23.241,-36.8126,-80.5628
13:29:23.249,-37.0001,-82.9378
13:29:23.259,-38.1876,-83.8128
13:29:23.269,-39.6252,-86.8753
13:29:23.281,-40.5002,-88.2503
13:29:23.289,-42.3752,-91.3129
13:29:23.299,-42.6252,-93.1879
13:29:23.309,-44.3752,-95.0629
13:29:23.322,-43.3127,-97.3129
13:29:23.329,-42.0002,-94.2504
13:29:23.339,-38.3126,-86.0003
13:29:23.350,-28.6876,-68.6878
13:29:23.359,-17.8126,-45.2502
13:29:23.369,-5.3125,-21.5001
13:29:23.379,8.1875,6.625
13:29:23.391,20.8126,32.3751
13:29:23.399,32.5626,58.6252
13:29:23.409,41.6252,78.0628
13:29:23.419,48.4377,93.4379
13:29:23.432,52.8127,105.3129
13:29:23.441,55.2502,111.5629
13:29:23.457,55.6252,116.0629
13:29:23.460,56.0627,114.8129
13:29:23.475,53.7502,113.9379
13:29:23.492,51.9377,109.2504
13:29:23.493,48.1252,104.2504
13:29:23.507,44.7502,97.8754
13:29:23.510,41.9377,91.1879
13:29:23.519,37.2501,83.0003
13:29:23.529,34.0001,74.8753
13:29:23.539,29.4376,66.4378
13:29:23.549,24.6876,58.2502
13:29:23.559,21.2501,48.3752
13:29:23.569,16.8751,39.2502
13:29:23.579,12.75,31.2501
13:29:23.589,10.0625,24.3126
13:29:23.599,7,19.3751
13:29:23.609,5.5625,16.3751
13:29:23.619,5.25,14.1251
13:29:23.629,5.875,13.6251
13:29:23.639,7.0625,14.9376
13:29:23.649,7.8125,16.8751
13:29:23.659,9.875,18.5626
13:29:23.669,10.375,21.1876
13:29:23.679,11.25,23.0626
13:29:23.690,12.0625,23.6876
13:29:23.699,12.625,24.4376
13:29:23.709,12.75,24.8126
13:29:23.719,11.625,22.4376
13:29:23.731,10.4375,20.4376
13:29:23.739,8.8125,18.3126
13:29:23.749,7.3125,14.1876
13:29:23.759,5.625,10.5625
13:29:23.770,3.1875,5.6875
13:29:23.779,1.4375,1.8125
13:29:23.789,-1.125,-3.0625
13:29:23.799,-3.3125,-8.9375
13:29:23.811,-6.0625,-13.7501
13:29:23.819,-8.1875,-18.4376
13:29:23.829,-10.0625,-23.3126
13:29:23.839,-12.875,-29.0626
13:29:23.849,-16.4376,-34.1251
13:29:23.859,-18.1251,-38.8751
13:29:23.870,-20.8751,-43.5627
13:29:23.881,-22.9376,-48.3752
13:29:23.889,-24.4376,-52.6877
13:29:23.899,-26.2501,-56.6252
13:29:23.909,-27.5001,-59.9377
13:29:23.920,-29.3126,-61.8127
13:29:23.929,-30.1876,-65.2502
13:29:23.939,-31.8751,-67.9378
13:29:23.949,-33.3126,-70.2503
13:29:23.959,-33.1251,-72.8753
13:29:23.969,-34.6876,-75.1253
13:29:23.979,-35.4376,-75.6878
13:29:23.989,-34.8751,-77.5628
13:29:23.999,-35.9376,-79.5003
13:29:24.009,-37.0001,-81.2503
13:29:24.019,-37.8751,-84.2503
13:29:24.029,-37.7501,-85.0628
13:29:24.039,-37.8751,-85.8753
13:29:24.061,-35.0626,-80.8753
13:29:24.063,-28.9376,-68.6878
13:29:24.071,-19.5001,-48.6252
13:29:24.081,-7.25,-26.0626
13:29:24.096,6.3125,-0.25
13:29:24.110,18.6251,26.3126
13:29:24.110,30.4376,51.0627
13:29:24.124,39.6252,73.7503
13:29:24.130,46.1252,88.9378
13:29:24.143,51.5627,100.8754
13:29:24.152,53.4377,110.3754
13:29:24.159,55.3752,113.8754
13:29:24.169,56.3127,116.6879
13:29:24.185,55.7502,116.0629
13:29:24.193,53.8752,114.6879
13:29:24.201,51.1877,109.4379
13:29:24.209,49.0627,104.8754
13:29:24.220,44.9377,97.6254
13:29:24.229,41.8752,92.1879
13:29:24.239,38.7501,83.6253
13:29:24.250,35.1251,77.3753
13:29:24.259,31.2501,69.2503
13:29:24.269,27.3126,60.3752
13:29:24.279,22.0001,52.0002
13:29:24.317,17.8126,43.2502
13:29:24.318,15.0001,35.8126
13:29:24.321,11.6875,30.2501
13:29:24.353,9.6875,25.6876
13:29:24.354,8.0625,21.6251
13:29:24.357,7.625,20.3751
13:29:24.371,7.3125,19.7501
13:29:24.373,8.3125,20.6876
13:29:24.374,10,22.9376
13:29:24.407,11.6875,24.6876
13:29:24.407,11.8125,26.7501
13:29:24.410,13.3751,27.4376
13:29:24.411,14.0001,29.5626
13:29:24.430,13.9376,28.2501
13:29:24.434,12.3125,27.1876
13:29:24.440,11.25,25.8751
13:29:24.449,9.8125,22.0626
13:29:24.459,8.8125,19.6251
13:29:24.469,7.1875,15.8126
13:29:24.479,5.1875,11.75
13:29:24.491,2.875,7.8125
13:29:24.505,0.375,2.125
13:29:24.514,-2.25,-2.8125
13:29:24.524,-5.1875,-8.5625
13:29:24.534,-6.9375,-13.1251
13:29:24.546,-10,-17.9376
13:29:24.554,-13.1876,-22.6251
13:29:24.567,-15.7501,-29.2501
13:29:24.575,-18.1251,-34.9376
13:29:24.584,-19.8126,-39.6877
13:29:24.594,-22.0626,-43.3127
13:29:24.604,-24.4376,-47.0627
13:29:24.614,-25.6876,-50.8127
13:29:24.625,-28.5626,-55.1252
13:29:24.634,-29.3126,-58.7502
13:29:24.646,-31.0626,-61.5627
13:29:24.654,-32.3126,-65.0627
13:29:24.665,-34.3751,-69.1253
13:29:24.675,-34.7501,-70.8128
13:29:24.685,-36.0626,-72.5003
13:29:24.694,-37.0001,-73.5003
13:29:24.705,-37.5626,-76.9378
13:29:24.717,-38.3751,-78.1878
13:29:24.724,-38.9376,-80.4378
13:29:24.734,-40.7502,-82.4378
13:29:24.746,-41.0002,-84.5628
13:29:24.754,-41.9377,-86.1253
13:29:24.774,-41.8127,-87.1253
13:29:24.780,-40.1877,-84.1878
13:29:24.789,-34.9376,-76.2503
13:29:24.794,-26.2501,-58.3127
13:29:24.812,-14.6876,-36.3126
13:29:24.817,-1.9375,-10.4375
13:29:24.826,11.8125,17.9376
13:29:24.835,24.6251,44.8127
13:29:24.844,35.8751,71.9378
13:29:24.854,45.0002,91.8129
13:29:24.865,51.2502,106.3129
13:29:24.876,54.3127,118.813
13:29:24.884,57.5002,124.8755
13:29:24.895,60.0002,130.688
13:29:24.906,59.6252,132.3755
13:29:24.915,58.8127,131.8755
13:29:24.924,57.3127,130.0005
13:29:24.935,54.4377,124.438
13:29:24.944,51.8127,120.3755
13:29:24.954,48.6252,114.5629
13:29:24.964,46.3127,109.6879
13:29:24.974,43.0627,105.8129
13:29:24.986,40.8752,97.9379
13:29:24.994,37.1251,91.8129
13:29:25.006,32.6876,84.6253
13:29:25.015,28.9376,76.4378
13:29:25.025,25.8751,69.0003
13:29:25.035,22.1876,61.9377
13:29:25.046,19.9376,56.1877
13:29:25.055,18.0001,52.3752
13:29:25.065,16.5626,49.1877
13:29:25.075,15.2501,46.0627
13:29:25.085,14.4376,44.5002
13:29:25.095,13.6251,43.5002
13:29:25.105,13.9376,44.1877
13:29:25.115,13.8126,43.5002
13:29:25.124,14.1251,44.6877
13:29:25.136,14.5001,45.0002
13:29:25.145,13.8751,44.7502
13:29:25.155,14.0626,44.5002
13:29:25.165,13.7501,43.0627
13:29:25.175,11.8125,41.2502
13:29:25.185,10.4375,37.8126
13:29:25.194,8.1875,35.3126
13:29:25.205,5.8125,30.4376
13:29:25.215,3.4375,26.8751
13:29:25.226,1.25,21.2501
13:29:25.236,-1.4375,15.9376
13:29:25.245,-4.125,10.3125
13:29:25.255,-7.625,4.8125
13:29:25.265,-9.375,-0.5625
13:29:25.275,-13.3126,-5.6875
13:29:25.285,-16.1876,-10.875
13:29:25.294,-18.1251,-17.0001
13:29:25.305,-20.9376,-20.6876
13:29:25.315,-24.1251,-27.3126
13:29:25.325,-27.4376,-31.8126
13:29:25.337,-31.6876,-37.9376
13:29:25.346,-35.6876,-42.5627
13:29:25.355,-39.1251,-46.9377
13:29:25.366,-41.7502,-51.6252
13:29:25.382,-46.1877,-55.3752
13:29:25.387,-48.7502,-59.8127
13:29:25.396,-52.1252,-61.9377
13:29:25.411,-51.1252,-63.6252
13:29:25.426,-50.6252,-62.6877
13:29:25.429,-48.8127,-64.3752
13:29:25.435,-47.1252,-62.5002
13:29:25.445,-46.1252,-65.1878
13:29:25.455,-45.1252,-66.9378
13:29:25.466,-46.1877,-67.9378
13:29:25.475,-46.2502,-70.8128
13:29:25.486,-47.9377,-71.5003
13:29:25.495,-47.4377,-72.8753
13:29:25.505,-46.1877,-71.4378
13:29:25.515,-42.0627,-67.1878
13:29:25.525,-36.6876,-55.3127
13:29:25.535,-26.5001,-37.9376
13:29:25.545,-14.2501,-14.3751
13:29:25.555,0.25,11.625
13:29:25.565,13.3751,38.6876
13:29:25.575,26.4376,64.5627
13:29:25.585,37.3126,85.4378
13:29:25.595,45.5002,101.0629
13:29:25.605,51.7502,113.0004
13:29:25.618,57.1252,123.063
13:29:25.643,59.5627,127.1255
13:29:25.648,61.0627,130.438
13:29:25.650,62.4377,131.313
13:29:25.655,63.0627,131.313
13:29:25.665,62.9377,129.063
13:29:25.677,61.3752,125.938
13:29:25.685,60.6877,121.8755
13:29:25.695,60.1252,117.688
13:29:25.707,57.7502,112.5004
13:29:25.715,55.7502,107.6879
13:29:25.725,53.3127,99.5629
13:29:25.735,49.6252,92.3754
13:29:25.745,46.6252,83.3753
13:29:25.755,41.1252,75.1253
13:29:25.767,37.9376,65.2503
13:29:25.775,34.2501,57.8752
13:29:25.785,32.1876,51.4377
13:29:25.796,29.8751,47.1877
13:29:25.828,32.2501,45.8127
13:29:25.830,30.4376,44.9377
13:29:25.833,25.9376,41.7502
13:29:25.835,21.8751,39.7502
13:29:25.866,22.1251,39.6877
13:29:25.868,23.4376,41.3752
13:29:25.870,24.6251,41.0627
13:29:25.876,24.1251,42.0627
13:29:25.907,24.7501,40.1877
13:29:25.909,24.0626,40.3127
13:29:25.911,23.1251,37.8126
13:29:25.916,21.5626,33.6251
13:29:25.945,18.8751,28.8751
13:29:25.947,15.8126,23.7501
13:29:25.950,12.8125,17.8126
13:29:25.955,10.6875,12.25
13:29:25.968,8.8125,6.0625
13:29:25.975,6.1875,0.375
13:29:25.988,3.3125,-6.5
13:29:25.996,0.8125,-13
13:29:26.005,-1.375,-18.8126
13:29:26.015,-3.4375,-24.0626
13:29:26.026,-5.6875,-29.4376
13:29:26.035,-6.8125,-33.4376
13:29:26.045,-9.25,-38.1876
13:29:26.056,-11.25,-43.5002
13:29:26.071,-13.6251,-47.3127
13:29:26.075,-12.9375,-50.6877
13:29:26.086,-14.4376,-52.8752
13:29:26.101,-16.5001,-55.5002
13:29:26.107,-19.6251,-58.6877
13:29:26.117,-23.1251,-60.0002
13:29:26.125,-25.8751,-63.3127
13:29:26.141,-28.5626,-65.6253
13:29:26.149,-29.5626,-67.5628
13:29:26.155,-29.3751,-68.6878
13:29:26.165,-29.6251,-69.5003
13:29:26.177,-29.8751,-72.3128
13:29:26.185,-30.5001,-72.6253
13:29:26.195,-30.7501,-74.6253
13:29:26.206,-31.0001,-75.4378
13:29:26.215,-32.8126,-78.4378
13:29:26.225,-32.8751,-80.9378
13:29:26.235,-32.5626,-79.1878
13:29:26.245,-28.2501,-75.3753
13:29:26.255,-22.0001,-62.3127
13:29:26.265,-10.875,-44.7502
13:29:26.275,-0.25,-22.3751
13:29:26.285,12.375,1.875
13:29:26.295,26.3751,28.0626
13:29:26.305,37.4376,53.0002
13:29:26.315,48.3127,74.2503
13:29:26.325,55.1877,90.3129
13:29:26.335,61.2502,102.6879
13:29:26.345,63.5627,110.8754
13:29:26.355,64.2502,113.0004
13:29:26.365,64.3752,115.0629
13:29:26.375,64.6252,114.0629
13:29:26.387,63.7502,114.3129
13:29:26.395,60.8127,110.5004
13:29:26.405,58.9377,107.0004
13:29:26.415,56.0627,103.8129
13:29:26.425,54.0627,98.9379
13:29:26.435,51.6877,93.6254
13:29:26.449,46.1877,87.3128
13:29:26.455,40.9377,79.3128
13:29:26.465,35.3751,71.7503
13:29:26.475,30.4376,64.3752
13:29:26.485,27.2501,56.8127
13:29:26.495,23.9376,51.0627
13:29:26.505,21.8126,46.5627
13:29:26.515,21.5001,42.3127
13:29:26.525,21.5001,41.2502
13:29:26.535,22.2501,40.5002
13:29:26.545,22.8126,41.3752
13:29:26.556,24.5001,41.6252
13:29:26.565,26.8126,42.5002
13:29:26.575,28.9376,45.7502
13:29:26.585,33.1251,47.8127
13:29:26.595,35.1251,48.4377
13:29:26.605,36.7501,48.6252
13:29:26.615,37.9376,48.5002
13:29:26.625,37.0001,45.0002
13:29:26.635,33.6251,41.2502
13:29:26.646,30.0001,35.4376
13:29:26.655,26.5626,28.8751
13:29:26.665,23.8126,24.0001
13:29:26.676,21.8126,19.3126
13:29:26.695,18.4376,13.8751
13:29:26.699,15.0626,7.25
13:29:26.714,12.3125,1.125
13:29:26.729,9.4375,-3.75
13:29:26.731,7.125,-8.5
13:29:26.746,4.75,-12.3125
13:29:26.750,2.5,-16.0626
13:29:26.756,0,-19.2501
13:29:26.765,-1.75,-22.1251
13:29:26.775,-2.3125,-23.9376
13:29:26.786,-4.25,-27.5001
13:29:26.795,-8.8125,-32.8751
13:29:26.806,-14.3126,-36.3751
13:29:26.815,-18.1251,-39.6252
13:29:26.825,-20.3126,-41.3752
13:29:26.835,-21.2501,-44.0002
13:29:26.846,-22.7501,-47.3127
13:29:26.857,-23.8751,-49.6252
13:29:26.865,-23.8126,-51.3752
13:29:26.875,-25.0626,-53.4377
13:29:26.885,-25.7501,-56.0627
13:29:26.895,-26.5001,-57.5002
13:29:26.923,-26.2501,-60.3127
13:29:26.925,-25.1251,-59.8127
13:29:26.927,-21.1876,-56.8752
13:29:26.935,-15.0626,-48.3752
13:29:26.945,-5.5625,-32.2501
13:29:26.955,6.6875,-13.6251
13:29:26.965,20.1251,10.8125
13:29:26.975,31.9376,35.3751
13:29:26.985,42.3127,56.6252
13:29:26.995,50.6252,76.1253
13:29:27.006,54.6252,90.9379
13:29:27.035,59.2502,99.7504
13:29:27.041,62.0627,106.8129
13:29:27.042,63.1252,112.5629
13:29:27.046,63.3752,112.8754
13:29:27.075,62.6252,112.9379
13:29:27.077,61.4377,110.8754
13:29:27.080,59.8127,108.0004
13:29:27.086,57.0627,105.6879
13:29:27.113,54.1252,100.5004
13:29:27.116,50.9377,96.7504
13:29:27.117,49.0002,91.4379
13:29:27.149,46.3752,85.5628
13:29:27.151,42.9377,80.0003
13:29:27.154,39.1877,72.8753
13:29:27.159,33.5001,64.8127
13:29:27.166,28.7501,56.6877
13:29:27.175,23.8126,50.0627
13:29:27.187,20.8126,44.6252
13:29:27.199,17.8126,39.1252
13:29:27.206,16.9376,36.9376
13:29:27.218,17.3751,35.2501
13:29:27.225,17.1251,34.9376
13:29:27.235,19.5001,36.1251
13:29:27.245,19.1251,36.1876
13:29:27.255,19.5626,36.6251
13:29:27.266,19.6876,36.9376
13:29:27.275,20.5626,37.1876
13:29:27.285,21.4376,35.8751
13:29:27.295,22.5001,35.3126
13:29:27.305,22.5001,33.0626
13:29:27.315,20.8751,29.3126
13:29:27.325,17.8126,23.8751
