timestamp,Red,IR
13:23:48.759,1.5,5.5625
13:23:48.768,1.5,6.1875
13:23:48.778,1,6.9375
13:23:48.788,2.0625,6.6875
13:23:48.799,2.0625,7.0625
13:23:48.808,1.625,7.5
13:23:48.818,1,6.125
13:23:48.847,1.0625,5.5
13:23:48.849,0.875,5.1875
13:23:48.852,0.5625,5.8125
13:23:48.858,0.9375,5.75
13:23:48.898,0.8125,5.0625
13:23:48.900,0.125,4.5
13:23:48.900,0.625,5.6875
13:23:48.912,1,4.5
13:23:48.913,0.5625,5.5625
13:23:48.922,1.5,5
13:23:48.954,0.8125,4.9375
13:23:48.956,0.125,5.75
13:23:48.962,0.5,4.875
13:23:48.962,-0.6875,3.8125
13:23:48.968,-0.5,5.875
13:23:49.000,0.1875,5.125
13:23:49.002,-1.4375,3.375
13:23:49.004,-1.5,4.5
13:23:49.010,-0.75,4.375
13:23:49.046,-0.875,3.375
13:23:49.050,-1.0625,2.25
13:23:49.052,-1.375,3.375
13:23:49.054,-0.875,3.125
13:23:49.061,-0.875,2.375
13:23:49.069,-0.875,1.8125
13:23:49.104,-1.5,1.375
13:23:49.107,-0.75,2.6875
13:23:49.109,-0.9375,1.125
13:23:49.113,-1.875,0.6875
13:23:49.118,-1.125,2
13:23:49.150,-0.375,0.875
13:23:49.152,-1.5625,1.875
13:23:49.154,-1.4375,0.0625
13:23:49.159,-0.9375,-0.0625
13:23:49.189,-1.125,-0.3125
13:23:49.192,-1.0625,-0.875
13:23:49.224,-1.25,0.1875
13:23:49.226,-0.5,-0.125
13:23:49.229,-1,-1.4375
13:23:49.232,-1.375,-0.4375
13:23:49.232,-1.0625,-1.9375
13:23:49.260,-1.875,0
13:23:49.262,-2.25,-1.875
13:23:49.263,-1.6875,-3
13:23:49.274,-1.8125,-1.9375
13:23:49.287,-2.1875,-2.5
13:23:49.319,-2.4375,-2.8125
13:23:49.321,-2.5,-2.5625
13:23:49.323,-3.125,-3.0625
13:23:49.332,-2.5625,-3.8125
13:23:49.332,-3,-3.75
13:23:49.364,-1.9375,-4.1875
13:23:49.366,-2.0625,-4.75
13:23:49.368,-2.5,-3.25
13:23:49.371,-2.0625,-4.875
13:23:49.378,-1.375,-4.625
13:23:49.410,-2,-5.5625
13:23:49.413,-1.5,-5.6875
13:23:49.415,-1.5625,-5.625
13:23:49.421,-0.9375,-6.8125
13:23:49.457,-1.4375,-6.75
13:23:49.460,-0.875,-7.25
13:23:49.462,-1.125,-6.625
13:23:49.490,-1.5625,-7
13:23:49.491,-1.5,-6.5
13:23:49.492,-1.875,-6.9375
13:23:49.495,-2.125,-7.5
13:23:49.501,-2.0625,-7.9375
13:23:49.535,-2.3125,-8.25
13:23:49.537,-2.625,-8.75
13:23:49.542,-2.25,-8.125
13:23:49.543,-2.375,-8.625
13:23:49.579,-1.5625,-9.0625
13:23:49.579,-1.625,-9.625
13:23:49.581,-1.75,-9.4375
13:23:49.583,-1.5625,-8.625
13:23:49.589,-1,-6.4375
13:23:49.626,-0.75,-5.75
13:23:49.627,-0.3125,-2.1875
13:23:49.630,1.3125,0.625
13:23:49.635,1.8125,2.9375
13:23:49.641,2.3125,4.8125
13:23:49.672,2.25,5.5
13:23:49.673,2,6.3125
13:23:49.676,1.75,6.625
13:23:49.679,2.5625,6.375
13:23:49.713,1.4375,6.1875
13:23:49.715,2.75,5.5625
13:23:49.717,1.9375,4.875
13:23:49.724,2.5,4.5625
13:23:49.730,2,3.875
13:23:49.757,2,4.5625
13:23:49.760,2.6875,4.125
13:23:49.762,2.75,4.3125
13:23:49.768,3.1875,3.9375
13:23:49.800,2.6875,3.9375
13:23:49.802,3.25,4.1875
13:23:49.805,3.5625,4.8125
13:23:49.811,3.5625,3
13:23:49.836,3.4375,2.4375
13:23:49.838,3,2.0625
13:23:49.840,3.25,3.0625
13:23:49.870,4,2
13:23:49.872,3.5,1.5
13:23:49.874,3.75,1.375
13:23:49.881,2.5,2.625
13:23:49.893,3.75,2.3125
13:23:49.910,3.5,1.8125
13:23:49.912,3.125,2.0625
13:23:49.919,3.1875,2.3125
13:23:49.929,2.8125,2.0625
13:23:49.939,2.8125,2.3125
13:23:49.950,2.25,1.875
13:23:49.958,1.8125,1.875
13:23:49.969,2,0.8125
13:23:49.979,1.8125,0.4375
13:23:49.990,1.625,0.9375
13:23:49.998,0.875,0.875
13:23:50.008,1.625,-0.5
13:23:50.019,0.9375,-1.1875
13:23:50.029,0.5625,-0.5
13:23:50.040,1.625,-0.6875
13:23:50.049,0.6875,-1.5
13:23:50.058,0.1875,-2.625
13:23:50.069,-0.0625,-1.125
13:23:50.079,0,-1.125
13:23:50.088,0.5,-2.75
13:23:50.100,0.25,-1.5625
13:23:50.129,1.0625,-2.5625
13:23:50.132,0.8125,-3.1875
13:23:50.134,0.9375,-3.375
13:23:50.140,0.875,-2
13:23:50.149,0.9375,-2.5625
13:23:50.158,1.75,-3.625
13:23:50.170,1.0625,-3.6875
13:23:50.178,0.8125,-3.6875
13:23:50.188,1.25,-4.375
13:23:50.201,0.6875,-3.9375
13:23:50.208,0.625,-3.9375
13:23:50.218,0,-5.25
13:23:50.229,0.5625,-5.125
13:23:50.238,0,-5.125
13:23:50.248,0.125,-4.6875
13:23:50.259,0.375,-4.8125
13:23:50.269,-0.625,-5.8125
13:23:50.278,-0.625,-4.75
13:23:50.288,-0.25,-5.75
13:23:50.300,-1.25,-5.375
13:23:50.308,-0.4375,-6.0625
13:23:50.319,-1.4375,-6.5
13:23:50.329,-1.4375,-6
13:23:50.339,-0.5,-6.75
13:23:50.348,-1.1875,-6.75
13:23:50.358,-1.0625,-5.0625
13:23:50.370,-1.0625,-6.9375
13:23:50.379,-2.3125,-7.625
13:23:50.388,-1.8125,-6.625
13:23:50.399,-1.625,-6.5625
13:23:50.409,-2.375,-8.4375
13:23:50.419,-2.75,-7
13:23:50.428,-2.5,-8.3125
13:23:50.439,-2.5625,-7.1875
13:23:50.449,-2.1875,-8.625
13:23:50.458,-2.8125,-7.4375
13:23:50.468,-2.25,-8.9375
13:23:50.478,-2.5625,-8.1875
13:23:50.493,-3,-9.5625
13:23:50.508,-3.1875,-8.25
13:23:50.511,-3.125,-9.75
13:23:50.518,-4.0625,-8.75
13:23:50.529,-4.25,-9.5625
13:23:50.538,-4.5,-9.875
13:23:50.548,-3.875,-10.625
13:23:50.559,-3.25,-9.5625
13:23:50.569,-3.4375,-10.625
13:23:50.579,-3.8125,-9.5625
13:23:50.588,-3.8125,-9.6875
13:23:50.600,-2.75,-8.6875
13:23:50.608,-2.625,-6.5625
13:23:50.619,-1.75,-4.375
13:23:50.628,-1.375,-1.125
13:23:50.639,0.125,1
13:23:50.648,0.75,3
13:23:50.658,0.375,5.8125
13:23:50.668,2,6
13:23:50.679,1.875,4.9375
13:23:50.688,1.875,6.25
13:23:50.699,2.5625,6.0625
13:23:50.708,1.625,6.0625
13:23:50.718,2.125,4.75
13:23:50.729,1.875,4.75
13:23:50.738,2.5,5.3125
13:23:50.748,1.8125,5
13:23:50.760,2.4375,4.6875
13:23:50.769,2.875,5.1875
13:23:50.782,3.8125,5.25
13:23:50.788,3.3125,6.3125
13:23:50.799,3.1875,6.5625
13:23:50.808,3.8125,6.25
13:23:50.818,2.5,6.4375
13:23:50.829,2.9375,5.6875
13:23:50.839,3.125,5.5625
13:23:50.848,2.375,5.625
13:23:50.859,1.875,6.4375
13:23:50.868,2.9375,4.75
13:23:50.880,2.25,3.9375
13:23:50.890,2.4375,5.125
13:23:50.900,2.0625,4.25
13:23:50.908,1.25,4.5625
13:23:50.919,1.25,4.9375
13:23:50.928,1.625,4.3125
13:23:50.938,1.3125,3.625
13:23:50.950,0.25,3.5625
13:23:50.959,1.25,3.5
13:23:50.968,0.875,2.625
13:23:50.979,-0.125,3.8125
13:23:50.990,0.5,3.8125
13:23:50.998,0.1875,3.6875
13:23:51.009,-0.5625,3.375
13:23:51.018,-0.8125,3.5625
13:23:51.029,-0.1875,2.5
13:23:51.038,-0.875,1.5
13:23:51.048,-0.75,2.3125
13:23:51.058,-0.1875,1
13:23:51.068,-1.625,0.4375
13:23:51.079,-1.5625,0.9375
13:23:51.088,-1.4375,0.5
13:23:51.098,-1.4375,0
13:23:51.109,-2.125,1.3125
13:23:51.118,-1.75,1.125
13:23:51.128,-2.9375,-0.375
13:23:51.139,-2.9375,0.875
13:23:51.149,-2.3125,-0.25
13:23:51.162,-2.8125,-1.125
13:23:51.168,-2.0625,-0.75
13:23:51.190,-2.9375,-1.875
13:23:51.192,-2.75,-1.125
13:23:51.208,-2.625,-1.5625
13:23:51.215,-3.5625,-1.4375
13:23:51.218,-2.375,-2.25
13:23:51.229,-3.3125,-1.9375
13:23:51.238,-2.375,-2.3125
13:23:51.249,-3.4375,-2.3125
13:23:51.258,-2.9375,-3
13:23:51.269,-3.9375,-2.875
13:23:51.279,-3.9375,-1.75
13:23:51.288,-3.625,-3.3125
13:23:51.298,-4.1875,-2.25
13:23:51.309,-4.1875,-4.0625
13:23:51.318,-4.4375,-3.1875
13:23:51.329,-5.6875,-3.4375
13:23:51.339,-4.9375,-4.1875
13:23:51.349,-5.0625,-4.6875
13:23:51.359,-5.4375,-3.5
13:23:51.369,-4.875,-4.5625
13:23:51.378,-4.8125,-5.8125
13:23:51.409,-4.4375,-5.5625
13:23:51.411,-4.5,-6.4375
13:23:51.413,-4.25,-5.6875
13:23:51.419,-4.0625,-6.875
13:23:51.429,-4.5625,-6.375
13:23:51.438,-4.5,-6.4375
13:23:51.448,-4.25,-6.8125
13:23:51.458,-4.875,-7.8125
13:23:51.468,-5.25,-7.25
13:23:51.480,-5.125,-7.9375
13:23:51.490,-4.75,-7.75
13:23:51.500,-4.625,-9.125
13:23:51.508,-3.5,-7.9375
13:23:51.520,-3.25,-8.3125
13:23:51.528,-3.375,-8.875
13:23:51.538,-2.3125,-8.1875
13:23:51.548,-2.0625,-7.0625
13:23:51.559,-1.0625,-4.875
13:23:51.568,-0.75,-2.4375
13:23:51.579,0.25,-0.625
13:23:51.588,0.75,1.25
13:23:51.598,1.125,2.75
13:23:51.609,0.625,4.4375
13:23:51.618,0.75,3.8125
13:23:51.628,0,4.0625
13:23:51.639,0.4375,4
13:23:51.649,-0.25,4.1875
13:23:51.658,-0.4375,3.5
13:23:51.668,0.125,2.6875
13:23:51.680,-0.5,3.875
13:23:51.688,0.0625,1.8125
13:23:51.700,-0.125,3.25
13:23:51.708,0.625,2.375
13:23:51.719,0.4375,3.4375
13:23:51.730,0.125,2.9375
13:23:51.738,-0.75,3.9375
13:23:51.748,0.125,3.1875
13:23:51.758,-0.1875,2.0625
13:23:51.769,-0.5625,3.125
13:23:51.787,0.5625,2.625
13:23:51.793,-0.25,1.5625
13:23:51.801,-0.0625,0.8125
13:23:51.809,0.25,2.1875
13:23:51.825,0.25,0.625
13:23:51.842,-0.125,1.25
13:23:51.844,0.5625,0.9375
13:23:51.849,0,0.875
13:23:51.858,0.125,1.6875
13:23:51.868,0.625,0.9375
13:23:51.879,0.1875,0.6875
13:23:51.893,0.625,1.875
13:23:51.903,0.5,0.4375
13:23:51.913,-0.4375,1
13:23:51.923,0,0.4375
13:23:51.933,-0.8125,0.875
13:23:51.946,-1.3125,0.9375
13:23:51.953,-1.9375,0.5
13:23:51.965,-2.375,-0.25
13:23:51.975,-2.4375,0.5
13:23:51.984,-1.875,-0.0625
13:23:51.994,-2.8125,0.0625
13:23:52.003,-3.25,-0.125
13:23:52.015,-2.5625,-0.25
13:23:52.024,-2.5625,-1.4375
13:23:52.034,-3.3125,-1.25
13:23:52.043,-3.5625,-0.375
13:23:52.053,-2.5,-1.375
13:23:52.064,-3.3125,-2.5625
13:23:52.073,-3,-2.5
13:23:52.085,-1.8125,-2.625
13:23:52.093,-2.625,-3
13:23:52.109,-2.625,-2.3125
13:23:52.119,-2.4375,-4.375
13:23:52.129,-2.9375,-3
13:23:52.139,-2.25,-4.25
13:23:52.149,-2.4375,-5.375
13:23:52.158,-1.5625,-3.6875
13:23:52.170,-1.3125,-4.8125
13:23:52.178,-1.6875,-5.125
13:23:52.189,-1.6875,-5.0625
13:23:52.198,-2.375,-4.25
13:23:52.210,-1.9375,-5.375
13:23:52.218,-2.5625,-5
13:23:52.229,-2,-5.1875
13:23:52.239,-2.875,-4.5625
13:23:52.249,-2.875,-5.875
13:23:52.259,-2.75,-6.5625
13:23:52.269,-3.0625,-5.9375
13:23:52.278,-2.3125,-6.0625
13:23:52.294,-2.9375,-7.125
13:23:52.301,-2.625,-6.5625
13:23:52.309,-2.9375,-7.3125
13:23:52.319,-3.0625,-6.875
13:23:52.329,-2.1875,-7.125
13:23:52.339,-3.25,-7.875
13:23:52.350,-2.3125,-8.125
13:23:52.359,-2.8125,-8.1875
13:23:52.371,-1.375,-8.3125
13:23:52.378,-2.25,-7.9375
13:23:52.389,-2.25,-8.1875
13:23:52.399,-1.5625,-9.125
13:23:52.409,-1.6875,-8.4375
13:23:52.418,-2.125,-8.5625
13:23:52.429,-2.0625,-8.3125
13:23:52.438,-2.25,-9.125
13:23:52.449,-2.5625,-9.25
13:23:52.459,-2.375,-9.0625
13:23:52.469,-2.6875,-10.3125
13:23:52.486,-2.0625,-9.875
13:23:52.489,-1.125,-10.375
13:23:52.503,-1.4375,-10.5625
13:23:52.519,-1,-9
13:23:52.521,0.375,-9.125
13:23:52.535,1.0625,-5.875
13:23:52.540,1.5,-4.0625
13:23:52.549,2.625,-1.5
13:23:52.558,2.4375,-0.125
13:23:52.568,4.25,2.125
13:23:52.582,4.1875,3.3125
13:23:52.589,4.6875,5
13:23:52.598,5.125,5.0625
13:23:52.609,4.375,4.75
13:23:52.620,4.3125,4.375
13:23:52.650,4.25,5.0625
13:23:52.650,3.625,2.5625
13:23:52.653,3.6875,3.6875
13:23:52.661,4.3125,3.8125
13:23:52.689,4.5625,3.375
13:23:52.691,4.25,3.9375
13:23:52.692,5.3125,4.375
13:23:52.724,5.3125,4.25
13:23:52.726,4,5.3125
13:23:52.728,4.625,4.6875
13:23:52.734,3.8125,5.0625
13:23:52.738,3.6875,5.4375
13:23:52.774,4.5625,5.0625
13:23:52.780,3.6875,5.0625
13:23:52.780,3.5625,4.9375
13:23:52.781,4.0625,4.375
13:23:52.814,3.8125,3.125
13:23:52.816,3.6875,2.375
13:23:52.817,3.3125,2.25
13:23:52.824,2.6875,3.3125
13:23:52.828,4.625,3.1875
13:23:52.859,3.5,2.625
13:23:52.863,3.5,3.3125
13:23:52.868,3.1875,3.5
13:23:52.870,3.4375,2.8125
13:23:52.896,3.0625,2.375
13:23:52.898,2.6875,3.875
13:23:52.908,3.625,1.9375
13:23:52.912,2.625,2.375
13:23:52.952,3.6875,2.4375
13:23:52.953,3.25,1.375
13:23:52.957,2.8125,1.4375
13:23:52.986,3.25,1.375
13:23:52.986,3.1875,0.875
13:23:52.988,2.375,0.125
13:23:52.989,2.3125,1
13:23:52.995,3.5,0.0625
13:23:53.008,2.1875,1
13:23:53.010,2.0625,0.4375
13:23:53.040,2.0625,-0.3125
13:23:53.042,2,-0.875
13:23:53.046,2.25,0.25
13:23:53.050,3,-0.5625
13:23:53.058,2,-1.8125
13:23:53.101,2.125,-1.5
13:23:53.102,2.5625,-1.375
13:23:53.119,3.5625,-1.875
13:23:53.120,2.6875,-2.8125
13:23:53.163,2.4375,-2.375
13:23:53.166,2.4375,-1.5625
13:23:53.202,3.3125,-2.3125
13:23:53.204,2.6875,-3
13:23:53.205,2.125,-3.125
13:23:53.210,1.1875,-3.1875
13:23:53.210,1.1875,-4
13:23:53.225,1.8125,-2.75
13:23:53.226,1.8125,-4.0625
13:23:53.261,1.5,-4.4375
13:23:53.262,1.25,-3.4375
13:23:53.266,1.375,-4.6875
13:23:53.271,1.5,-4.25
13:23:53.275,2.0625,-4.25
13:23:53.285,1.1875,-5.9375
13:23:53.315,1.625,-5.125
13:23:53.318,1.875,-4.9375
13:23:53.319,1.8125,-5.8125
13:23:53.327,2,-6.6875
13:23:53.352,1.9375,-5.1875
13:23:53.355,1.25,-5.75
13:23:53.356,1.4375,-5.625
13:23:53.384,1.4375,-7.375
13:23:53.387,0.9375,-7.1875
13:23:53.389,1.0625,-7
13:23:53.398,1.25,-7.6875
13:23:53.434,0.5,-8.75
13:23:53.435,0.6875,-7.625
13:23:53.438,0.1875,-7.875
13:23:53.440,-0.1875,-8.5625
13:23:53.445,-0.625,-7.9375
13:23:53.473,-0.6875,-9.4375
13:23:53.474,-0.75,-8.875
13:23:53.477,-0.6875,-8.5
13:23:53.506,-0.5625,-10.5625
13:23:53.509,-0.25,-9.25
13:23:53.510,0.9375,-9.25
13:23:53.515,1.0625,-9
13:23:53.525,1.625,-6.625
13:23:53.558,2.8125,-5.1875
13:23:53.559,3.25,-0.75
13:23:53.564,4.5,0.1875
13:23:53.565,4.5,0.75
13:23:53.597,4.9375,2.8125
13:23:53.599,4.875,4.3125
13:23:53.601,5.125,3.4375
13:23:53.606,5.3125,4.4375
13:23:53.632,5.9375,3.4375
13:23:53.634,5.3125,4.6875
13:23:53.640,5.1875,3
13:23:53.645,5.125,3.125
13:23:53.656,5.875,2.6875
13:23:53.664,5.5625,1.75
13:23:53.674,6.125,2.625
13:23:53.683,5.8125,2.5625
13:23:53.693,5.9375,3.0625
13:23:53.703,5.625,3.125
13:23:53.713,6,2.5625
13:23:53.724,5.5625,3.4375
13:23:53.735,5.4375,3.6875
13:23:53.744,5.4375,2.1875
13:23:53.753,5.0625,2.0625
13:23:53.765,4.9375,3.125
13:23:53.773,5.4375,1.5
13:23:53.784,5.3125,1
13:23:53.804,4.375,1
13:23:53.807,5.375,1.5
13:23:53.822,4.3125,0.6875
13:23:53.837,4,1.375
13:23:53.839,3.75,2.1875
13:23:53.854,3.125,1.5
13:23:53.857,2.875,1.8125
13:23:53.863,3.375,1.8125
13:23:53.873,2.9375,1.25
13:23:53.884,2.6875,1.9375
13:23:53.894,2.9375,1.6875
13:23:53.903,2.6875,0.25
13:23:53.914,2.1875,-0.1875
13:23:53.924,2,1.3125
13:23:53.933,2.5625,-1
13:23:53.968,2.375,-0.9375
13:23:53.971,1.8125,-0.3125
13:23:53.973,2.375,-0.4375
13:23:53.974,2.375,-0.75
13:23:53.984,2.875,-1.8125
13:23:53.993,3.1875,-2.0625
13:23:54.005,2.6875,-3.125
13:23:54.014,2.5625,-2
13:23:54.032,3.125,-2.875
13:23:54.033,2,-3.625
13:23:54.044,2.125,-2.3125
13:23:54.055,2.125,-2.5
13:23:54.063,2.8125,-3
13:23:54.073,2.4375,-3.625
13:23:54.085,2.3125,-1.9375
13:23:54.093,2.875,-4.4375
13:23:54.104,2.3125,-3.9375
13:23:54.113,2.5625,-3.375
13:23:54.125,2.9375,-4.1875
13:23:54.135,1.6875,-4.4375
13:23:54.144,2.625,-4.1875
13:23:54.155,2.5625,-5.0625
13:23:54.163,1.5625,-4.25
13:23:54.175,1.5625,-4.8125
13:23:54.186,1.1875,-5.9375
13:23:54.193,1.375,-4.375
13:23:54.204,2.125,-5.4375
13:23:54.214,1.5625,-4.625
13:23:54.223,1.75,-5.375
13:23:54.234,1.25,-5.3125
13:23:54.243,0.625,-4.25
13:23:54.253,1.0625,-6.0625
13:23:54.263,1.0625,-5.3125
13:23:54.273,1.25,-6.4375
13:23:54.285,1,-6.25
13:23:54.293,0.875,-7.25
13:23:54.304,0.6875,-6.875
13:23:54.313,0.8125,-6.5
13:23:54.325,1.875,-6.4375
13:23:54.335,1.0625,-7.125
13:23:54.344,0.4375,-6.25
13:23:54.355,1.625,-7.9375
13:23:54.363,0.875,-7.75
13:23:54.373,1.5,-6.875
13:23:54.384,1.8125,-8.25
13:23:54.393,1.375,-7.6875
13:23:54.405,1.625,-8.4375
13:23:54.414,1.375,-7.625
13:23:54.425,1.5,-8.6875
13:23:54.446,0.5,-8.625
13:23:54.450,0.25,-7.6875
13:23:54.464,0.5625,-9.0625
13:23:54.479,-0.25,-8.25
13:23:54.482,0.6875,-9.5
13:23:54.497,0.6875,-9.375
13:23:54.502,1.0625,-8.25
13:23:54.504,1.5625,-7.9375
13:23:54.514,2.0625,-6.25
13:23:54.523,3.8125,-3.6875
13:23:54.534,3.4375,-2
13:23:54.543,4.0625,2.625
13:23:54.554,4.875,2.25
13:23:54.565,4.5,4.4375
13:23:54.574,5,5
13:23:54.584,5.125,4.4375
13:23:54.594,5.375,4.5
13:23:54.604,5.6875,4.75
13:23:54.614,5.125,3.9375
13:23:54.624,5.125,5.625
13:23:54.634,6.25,4.0625
13:23:54.643,5.6875,4.0625
13:23:54.654,6,3.3125
13:23:54.664,5.9375,4.5
13:23:54.674,6.125,4.375
13:23:54.684,5.9375,4.0625
13:23:54.694,6,4.8125
13:23:54.703,7.3125,4.9375
13:23:54.714,6.375,5.0625
13:23:54.724,6.25,5.1875
13:23:54.734,6.4375,5.6875
13:23:54.744,6.5625,5.375
13:23:54.754,5.6875,4.5625
13:23:54.763,5.1875,3.875
13:23:54.780,5.8125,3.9375
13:23:54.784,5.0625,3.3125
13:23:54.793,5.1875,3.375
13:23:54.804,5.4375,2.5625
13:23:54.814,4.625,2.625
13:23:54.823,4.5625,4.0625
13:23:54.833,4.5,3
13:23:54.845,4.0625,2.4375
13:23:54.854,4.4375,2.6875
13:23:54.863,4.75,3.1875
13:23:54.873,3.9375,2.625
13:23:54.884,3.8125,3.375
13:23:54.894,4.4375,1.25
13:23:54.903,2.9375,1.875
13:23:54.913,3.25,1.5
13:23:54.924,2.75,0.8125
13:23:54.933,2.6875,0.8125
13:23:54.943,2.625,1.375
13:23:54.955,3.25,-0.125
13:23:54.963,2.625,0.0625
13:23:54.973,2.625,0.875
13:23:54.985,2.6875,-0.375
13:23:54.993,2.125,-1.8125
13:23:55.004,2.0625,-0.1875
13:23:55.015,2.9375,-0.8125
13:23:55.024,2.6875,-1.5
13:23:55.034,2.125,-1.875
13:23:55.043,1.8125,-0.875
13:23:55.054,2.3125,-1.625
13:23:55.063,2.125,-2.5
13:23:55.073,2.125,-1.5625
13:23:55.083,1.8125,-1.4375
13:23:55.093,2,-2.5
13:23:55.106,1.5625,-3.4375
13:23:55.120,1.5,-1.75
13:23:55.123,2,-3.1875
13:23:55.138,0.875,-3.25
13:23:55.156,0.875,-2.0625
13:23:55.171,1.1875,-3.9375
13:23:55.173,0.25,-2.3125
13:23:55.176,0.875,-3.5
13:23:55.184,0.5,-3
13:23:55.193,1,-4.1875
13:23:55.205,0.5625,-4.75
13:23:55.213,1.0625,-3.625
13:23:55.223,1.1875,-4.6875
13:23:55.248,0.625,-4.125
13:23:55.252,1.4375,-5.1875
13:23:55.256,1.5,-5.8125
13:23:55.266,0.6875,-4.25
13:23:55.274,1.4375,-5.375
13:23:55.284,1.1875,-6.5625
13:23:55.293,1.375,-5.5625
13:23:55.304,1.5,-6.3125
13:23:55.313,1,-5.9375
13:23:55.324,1.375,-5.5625
13:23:55.334,0.6875,-6.3125
13:23:55.343,0.3125,-4.875
13:23:55.353,0.0625,-7.125
13:23:55.364,-0.0625,-6.0625
13:23:55.373,0.3125,-7.3125
13:23:55.385,0.0625,-7.3125
13:23:55.393,0.3125,-6.4375
13:23:55.405,0.75,-7.0625
13:23:55.415,-0.0625,-6.625
13:23:55.425,-0.5625,-6.25
13:23:55.434,-0.5625,-7.9375
13:23:55.443,-1.125,-5.5
13:23:55.455,-0.1875,-7.25
13:23:55.464,-0.9375,-6.375
13:23:55.474,-0.5,-8.3125
13:23:55.483,-1.125,-7.0625
13:23:55.494,-0.4375,-7.75
13:23:55.503,-0.9375,-8.5
13:23:55.518,-1.125,-7.8125
13:23:55.525,-1.375,-8.6875
13:23:55.533,-1.4375,-9.0625
13:23:55.544,-1.25,-7.8125
13:23:55.554,-0.1875,-9.375
13:23:55.565,-0.6875,-9.125
13:23:55.573,-0.375,-9.25
13:23:55.584,-0.1875,-8.8125
13:23:55.593,-0.0625,-7.625
13:23:55.606,0.875,-5.0625
13:23:55.613,1.8125,-2.625
13:23:55.627,2.1875,1
13:23:55.634,3.0625,1.75
13:23:55.643,3.4375,3.0625
13:23:55.655,4.625,5
13:23:55.663,4.25,4.9375
13:23:55.673,3.8125,4.9375
13:23:55.684,4.3125,3.875
13:23:55.694,4.3125,4.625
13:23:55.703,4.25,3.8125
13:23:55.713,4.3125,3.4375
13:23:55.723,4.25,3.625
13:23:55.733,4.1875,2.8125
13:23:55.744,3.9375,4
13:23:55.763,4.1875,4.375
13:23:55.772,4.25,4
13:23:55.777,4.4375,3.8125
13:23:55.784,3.625,5.4375
13:23:55.801,3.9375,4.4375
13:23:55.807,3.4375,3.625
13:23:55.817,4,4
13:23:55.823,3.375,3.375
13:23:55.833,3.5625,3.6875
13:23:55.844,3.125,4.0625
13:23:55.853,4,2.75
13:23:55.863,3.1875,1.9375
13:23:55.874,3.1875,2.6875
13:23:55.884,3.125,3.375
13:23:55.893,2.8125,2.0625
13:23:55.907,2.8125,2.3125
13:23:55.916,2.8125,2.9375
13:23:55.923,3.5625,1.9375
13:23:55.934,3.4375,2.375
13:23:55.943,2.6875,3.5
13:23:55.953,2.9375,1.6875
13:23:55.964,2.5,1.5625
13:23:55.974,1.9375,1.6875
13:23:55.984,3.1875,1.4375
13:23:55.994,2,1
13:23:56.003,1.4375,1.8125
13:23:56.014,2.1875,0.375
13:23:56.024,1.5,-0.125
13:23:56.033,1.25,0.3125
13:23:56.047,2,-0.125
13:23:56.053,0.5625,-1.5
13:23:56.063,1,0
13:23:56.074,0.6875,-0.0625
13:23:56.083,0.125,-1.0625
13:23:56.093,0.3125,-0.625
13:23:56.103,0.1875,-1.875
13:23:56.113,-0.5,-1.5
13:23:56.123,-0.875,-1.25
13:23:56.133,-0.3125,-2.625
13:23:56.150,-0.4375,-1.0625
13:23:56.158,-0.25,-2.0625
13:23:56.168,-0.875,-2.8125
13:23:56.178,-1.25,-1.6875
13:23:56.189,-1.625,-2
13:23:56.199,-2.1875,-2.6875
13:23:56.209,-3.125,-1.75
13:23:56.218,-2.8125,-3.5
13:23:56.228,-3.625,-2
13:23:56.238,-4,-2.625
13:23:56.248,-4.5,-3.4375
13:23:56.258,-4.9375,-2.1875
13:23:56.269,-4.5,-2.5625
13:23:56.282,-5.6875,-2.8125
13:23:56.288,-4.6875,-3.3125
13:23:56.299,-5.9375,-4
13:23:56.308,-5.9375,-4
13:23:56.319,-6.4375,-3.9375
13:23:56.328,-5.75,-3.875
13:23:56.338,-6.4375,-4.125
13:23:56.348,-5.6875,-4.5
13:23:56.359,-6.375,-4.1875
13:23:56.368,-5.875,-4.9375
13:23:56.379,-5.4375,-5.5625
13:23:56.389,-5.125,-5.3125
13:23:56.399,-6.0625,-5.375
13:23:56.409,-5.8125,-5.625
13:23:56.419,-7.0625,-5.5625
13:23:56.438,-6.8125,-5.9375
13:23:56.441,-7.1875,-5.3125
13:23:56.455,-7,-5.625
13:23:56.472,-6.625,-5.5
13:23:56.473,-7.4375,-7.0625
13:23:56.481,-6.875,-5.6875
13:23:56.488,-6.5625,-6.3125
13:23:56.498,-5.875,-6.4375
13:23:56.529,-6.5,-7.4375
13:23:56.531,-6.5,-6.4375
13:23:56.534,-5.75,-6.75
13:23:56.539,-6.3125,-6.6875
13:23:56.549,-5.9375,-6.125
13:23:56.560,-5.4375,-5.4375
13:23:56.569,-4.0625,-3.9375
13:23:56.579,-3.75,-0.1875
13:23:56.588,-2.75,0.4375
13:23:56.599,-0.875,4
13:23:56.608,-0.9375,4.4375
13:23:56.618,-0.9375,5.375
13:23:56.629,-0.3125,5.5
13:23:56.639,-1,6.1875
13:23:56.648,-0.75,5.6875
13:23:56.658,-1.3125,5.625
13:23:56.670,-1.0625,5.1875
13:23:56.678,-1.125,5.25
13:23:56.688,-0.25,4.5625
13:23:56.698,-0.625,4
13:23:56.709,-0.8125,3.5625
13:23:56.718,0.125,5.8125
13:23:56.728,0.1875,5.5
13:23:56.738,0.1875,5.5
13:23:56.748,0,4.5
13:23:56.758,0.0625,5.875
13:23:56.768,-0.25,4.9375
13:23:56.778,0.3125,6.125
13:23:56.788,-0.0625,5
13:23:56.799,-0.125,4.8125
13:23:56.809,-0.1875,3.875
13:23:56.818,0.0625,3.6875
13:23:56.829,0.8125,3.3125
13:23:56.841,-0.0625,3.125
13:23:56.848,0.5,2.375
13:23:56.859,0.0625,2
13:23:56.869,-0.9375,3.875
13:23:56.878,-0.4375,2.75
13:23:56.889,-0.9375,1.625
13:23:56.898,0.375,3.75
13:23:56.908,0.0625,2.6875
13:23:56.918,-0.6875,2.5625
13:23:56.928,0.8125,2.875
13:23:56.938,0,2.625
13:23:56.948,-0.25,3.1875
13:23:56.958,0.3125,1.5
13:23:56.968,0.1875,1.625
13:23:56.978,0.5,0.375
13:23:56.988,0.8125,-0.4375
13:23:56.999,0.5625,0.9375
13:23:57.008,0.5625,0.3125
13:23:57.018,-0.125,-0.75
13:23:57.031,-0.1875,0.5
13:23:57.040,0.125,-0.8125
13:23:57.048,-0.375,-0.375
13:23:57.058,0.3125,-1.75
13:23:57.069,-0.25,-0.9375
13:23:57.078,-0.0625,0.125
13:23:57.146,-0.8125,-1
13:23:57.146,-1.1875,-0.6875
13:23:57.178,-0.1875,-0.5
13:23:57.180,-1.1875,-0.25
13:23:57.183,-0.5,-0.6875
13:23:57.183,-0.5,-1.5625
13:23:57.183,-0.625,-1.25
13:23:57.190,-1,-0.6875
13:23:57.222,-1.4375,-2.9375
13:23:57.224,-1.125,-2.5
13:23:57.227,-0.6875,-2.25
13:23:57.229,-1.125,-2.125
13:23:57.265,-1.0625,-3
13:23:57.267,-1.5625,-2.4375
13:23:57.268,-1.125,-2.875
13:23:57.273,-2.1875,-3
13:23:57.284,-2.375,-3.3125
13:23:57.318,-3.4375,-3.875
13:23:57.321,-4.625,-2.9375
13:23:57.323,-5,-4.3125
13:23:57.326,-5.4375,-5.0625
13:23:57.332,-5.8125,-3.8125
13:23:57.359,-5.8125,-4.8125
13:23:57.362,-4.5625,-7.1875
13:23:57.364,-4.9375,-8.1875
13:23:57.392,-4.375,-7.1875
13:23:57.393,-5,-7.25
13:23:57.394,-4.875,-7.5625
13:23:57.401,-5.4375,-8
13:23:57.409,-5.0625,-7.1875
13:23:57.438,-4.9375,-7.875
13:23:57.440,-6.4375,-7.75
13:23:57.443,-5.9375,-7.75
13:23:57.450,-6.625,-8
13:23:57.474,-7.5625,-7.875
13:23:57.476,-8.6875,-7.125
13:23:57.478,-9.4375,-6.8125
13:23:57.506,-9.625,-7.9375
13:23:57.509,-10,-6.625
13:23:57.513,-10.0625,-6.8125
13:23:57.546,-9.1875,-7.6875
13:23:57.548,-8.4375,-8.125
13:23:57.551,-8.0625,-8.125
13:23:57.553,-6.875,-8.375
13:23:57.560,-6.6875,-7.5
13:23:57.592,-6,-7.6875
13:23:57.596,-5.8125,-9
13:23:57.602,-4.9375,-7.5625
13:23:57.605,-4.375,-8.25
13:23:57.618,-5.125,-8
13:23:57.622,-3.25,-9.3125
13:23:57.658,-4,-8.6875
13:23:57.661,-2.8125,-9.3125
13:23:57.663,-1.3125,-10.375
13:23:57.695,-0.5625,-10.875
13:23:57.695,0.75,-11.4375
13:23:57.697,0.4375,-10.625
13:23:57.699,0,-12
13:23:57.704,0.0625,-12.625
13:23:57.708,-0.875,-10.875
13:23:57.746,-1.8125,-11.125
13:23:57.748,-1.9375,-7.875
13:23:57.764,-3.125,-6.3125
13:23:57.768,-3.125,-2.5
13:23:57.799,-3.8125,-0.5625
13:23:57.801,-4.875,2.125
13:23:57.816,-5,2.75
13:23:57.848,-5.8125,3.3125
13:23:57.850,-5.0625,3.3125
13:23:57.853,-6.5625,2.25
13:23:57.853,-7.8125,2.0625
13:23:57.854,-8.875,2.25
13:23:57.857,-9.25,0.875
13:23:57.890,-10.6875,1.8125
13:23:57.890,-11.8125,1.5625
13:23:57.890,-12.625,-0.25
13:23:57.892,-12.75,1.5
13:23:57.901,-12.9375,0.4375
13:23:57.901,-14.0626,-0.0625
13:23:57.913,-14.3751,0.125
13:23:57.918,-17.3126,-1.3125
13:23:57.948,-20.2501,-1.25
13:23:57.950,-23.0626,-0.5
13:23:57.952,-26.3751,-1.6875
13:23:57.959,-32.4376,-3.75
13:23:57.994,-39.4377,-5.9375
13:23:57.995,-41.5627,-7.1875
13:23:57.997,-43.0627,-5.375
13:23:57.999,-42.5002,-5.6875
13:23:58.034,-41.9377,-5.5625
13:23:58.037,-41.6252,-5.6875
13:23:58.039,-41.9377,-4.8125
13:23:58.040,-41.6252,-5.5625
13:23:58.049,-42.0002,-5.25
13:23:58.081,-41.4377,-3.75
13:23:58.082,-40.6252,-4.75
13:23:58.085,-40.8127,-3.8125
13:23:58.110,-41.2502,-4.0625
13:23:58.111,-40.7502,-3.375
13:23:58.115,-39.9377,-5.1875
13:23:58.119,-40.5002,-4.0625
13:23:58.128,-40.3752,-5.4375
13:23:58.139,-40.5627,-5.3125
13:23:58.148,-39.5002,-5
13:23:58.158,-39.0001,-6.125
13:23:58.168,-38.5626,-5.375
13:23:58.178,-37.6251,-6.3125
13:23:58.188,-38.3751,-5.75
13:23:58.198,-37.4376,-6.3125
13:23:58.208,-37.9376,-6.9375
13:23:58.218,-38.2501,-7.0625
13:23:58.228,-38.3126,-7.1875
13:23:58.238,-38.8126,-7
13:23:58.248,-37.6876,-8.6875
13:23:58.258,-37.6876,-7.6875
13:23:58.268,-36.5626,-9.5
13:23:58.278,-36.5626,-9.3125
13:23:58.288,-36.2501,-10.4375
13:23:58.298,-34.8751,-9.3125
13:23:58.309,-34.4376,-8.9375
13:23:58.318,-33.9376,-8.9375
13:23:58.328,-32.5626,-9.1875
13:23:58.338,-31.6251,-8.625
13:23:58.349,-30.9376,-8.25
13:23:58.358,-30.3126,-8.625
13:23:58.369,-29.7501,-8.8125
13:23:58.378,-29.1876,-9.4375
13:23:58.388,-28.2501,-8.5625
13:23:58.399,-28.0001,-9.4375
13:23:58.409,-27.8126,-9.0625
13:23:58.427,-27.3126,-8.9375
13:23:58.433,-27.1876,-9.125
13:23:58.442,-25.5626,-9.5
13:23:58.448,-25.3751,-10.125
13:23:58.465,-25.8751,-8.5625
13:23:58.481,-25.0001,-10.4375
13:23:58.482,-25.6876,-10.1875
13:23:58.488,-25.6876,-10.5625
13:23:58.498,-25.8126,-11.25
13:23:58.508,-26.3751,-10.625
13:23:58.518,-25.1251,-11.5
13:23:58.528,-25.2501,-10.5625
13:23:58.538,-24.1876,-10.75
13:23:58.549,-24.1251,-11.3125
13:23:58.558,-24.5001,-10.6875
13:23:58.569,-23.5626,-12.8125
13:23:58.579,-24.1876,-11.875
13:23:58.588,-23.8751,-11.625
13:23:58.598,-23.5001,-13.5626
13:23:58.608,-22.6251,-12.5625
13:23:58.618,-22.1251,-13.2501
13:23:58.628,-22.1251,-12.625
13:23:58.638,-21.8751,-12.25
13:23:58.648,-20.9376,-13.3126
13:23:58.658,-21.3751,-12.375
13:23:58.668,-20.7501,-13.6876
13:23:58.678,-20.6876,-12.6875
13:23:58.688,-20.9376,-13.8126
13:23:58.698,-20.3751,-13.8126
13:23:58.708,-20.6251,-13.1876
13:23:58.718,-20.8751,-13.8126
13:23:58.730,-19.7501,-14.3126
13:23:58.739,-19.9376,-14.0001
13:23:58.749,-19.6251,-14.0626
13:23:58.759,-19.4376,-14.1876
13:23:58.768,-18.8126,-12.4375
13:23:58.783,-18.5001,-10.6875
13:23:58.788,-16.8126,-10.0625
13:23:58.799,-16.7501,-5.3125
13:23:58.809,-15.6876,-3.6875
13:23:58.818,-15.1876,-2.8125
13:23:58.828,-14.8751,-1.1875
13:23:58.838,-15.1876,0
13:23:58.848,-14.7501,-0.25
13:23:58.858,-15.0626,0.4375
13:23:58.868,-14.8751,-0.5625
13:23:58.878,-15.0001,0.6875
13:23:58.888,-14.6876,-1.125
13:23:58.898,-15.3126,0.8125
13:23:58.908,-14.5626,-0.4375
13:23:58.918,-14.9376,1.5
13:23:58.928,-14.1251,0.1875
13:23:58.938,-14.3126,0.75
13:23:58.948,-13.4376,2.6875
13:23:58.958,-13.5626,1.4375
13:23:58.970,-12.875,2.5625
13:23:58.978,-12.5,2
13:23:58.988,-12.25,2.625
13:23:58.998,-12.125,2.4375
13:23:59.009,-11.8125,2.625
13:23:59.018,-10.625,2.375
13:23:59.028,-11.0625,2.9375
13:23:59.038,-9.9375,1.75
13:23:59.048,-10.875,1.3125
13:23:59.058,-11.4375,2.25
13:23:59.088,-10.6875,0.0625
13:23:59.091,-10.5,1.75
13:23:59.105,-9.8125,0.9375
13:23:59.108,-9.9375,-0.0625
13:23:59.123,-9.9375,1.375
13:23:59.138,-9,0.25
13:23:59.140,-9.875,0.4375
13:23:59.161,-10,2
13:23:59.163,-9.5,-0.125
13:23:59.168,-9.5,-0.75
13:23:59.170,-9.125,-0.25
13:23:59.178,-8.5,-1.5625
13:23:59.188,-8.6875,-0.6875
13:23:59.198,-7.25,-1.9375
13:23:59.208,-8.8125,-1.75
13:23:59.218,-7.25,-1.75
13:23:59.228,-7.625,-2.625
13:23:59.238,-9.0625,-3.75
13:23:59.249,-8.5,-2.5
13:23:59.258,-7.5,-3.5625
13:23:59.268,-7.625,-3.625
13:23:59.278,-7.625,-2.5625
13:23:59.288,-7.25,-3.5625
13:23:59.299,-7,-4.375
13:23:59.308,-7.9375,-3.6875
13:23:59.320,-7.125,-3.0625
13:23:59.328,-6.25,-3.375
13:23:59.338,-6.6875,-3.625
13:23:59.349,-7,-5.625
13:23:59.358,-6.5625,-4.1875
13:23:59.369,-7.0625,-4.3125
13:23:59.379,-5.6875,-4.9375
13:23:59.388,-5.625,-4.75
13:23:59.399,-4.3125,-5.125
13:23:59.408,-5.1875,-4.4375
13:23:59.418,-5.625,-5.0625
13:23:59.428,-5.75,-4.8125
13:23:59.438,-5.8125,-5.4375
13:23:59.448,-5.5625,-6
13:23:59.458,-6.125,-4.9375
13:23:59.469,-5.375,-5.875
13:23:59.478,-5.4375,-6.9375
13:23:59.488,-6,-5.75
13:23:59.498,-4.75,-6.0625
13:23:59.508,-4.6875,-6.5625
13:23:59.518,-4.875,-5.8125
13:23:59.530,-4.375,-6.6875
13:23:59.540,-4.75,-5.875
13:23:59.548,-4.25,-6.9375
13:23:59.558,-5.875,-7.3125
13:23:59.570,-5.5,-7.8125
13:23:59.578,-6.375,-7.1875
13:23:59.590,-5.125,-9
13:23:59.598,-6.6875,-7.8125
13:23:59.608,-5.5625,-9
13:23:59.618,-5.25,-8.6875
13:23:59.628,-5.75,-9.3125
13:23:59.638,-6.4375,-9.0625
13:23:59.648,-6.75,-9.75
13:23:59.658,-6.125,-9.5
13:23:59.668,-6.375,-10.875
13:23:59.678,-6.9375,-9.125
13:23:59.688,-6.75,-10.875
13:23:59.699,-7.125,-10.3125
13:23:59.709,-6.375,-12.3125
13:23:59.718,-7,-11.625
13:23:59.728,-7.1875,-11.6875
13:23:59.750,-7.4375,-10.9375
13:23:59.752,-7.625,-11.4375
13:23:59.761,-7.125,-11.8125
13:23:59.768,-6.9375,-11.8125
13:23:59.784,-7.6875,-12.5
13:23:59.792,-7.125,-11.25
13:23:59.798,-6.9375,-11.875
13:23:59.808,-7.3125,-11.75
13:23:59.818,-7.4375,-12
13:23:59.828,-7.0625,-12.375
13:23:59.838,-7.8125,-13.0625
13:23:59.848,-8.125,-12.1875
13:23:59.858,-8,-12.9375
13:23:59.868,-7.125,-11.5
13:23:59.879,-7.625,-12.5
13:23:59.888,-7,-12.5625
13:23:59.898,-7.1875,-12.4375
13:23:59.908,-6.6875,-11.6875
13:23:59.918,-6.9375,-9.3125
13:23:59.928,-6.0625,-8.875
13:23:59.939,-5.6875,-7.75
13:23:59.948,-4.4375,-4.75
13:23:59.959,-3,-3
13:23:59.968,-2.9375,-1.125
13:23:59.978,-2.25,1.25
13:23:59.988,-1.875,0.5625
13:23:59.998,-2.875,2
13:24:00.009,-2.5625,0.8125
13:24:00.018,-3.25,-0.0625
13:24:00.028,-2.8125,1.3125
13:24:00.038,-3.4375,0.6875
13:24:00.048,-3.5625,1.125
13:24:00.058,-4.25,0
13:24:00.068,-4.25,1.5
13:24:00.078,-3.375,0.5625
13:24:00.088,-4.9375,0.5
13:24:00.098,-4.375,2.125
13:24:00.108,-3.9375,1.5
13:24:00.118,-3.75,3
13:24:00.128,-3.1875,2.0625
13:24:00.138,-3.375,2.0625
13:24:00.148,-3.0625,2.3125
13:24:00.158,-3,0.8125
13:24:00.168,-2.5625,1.375
13:24:00.183,-2.3125,0.5625
13:24:00.193,-2.3125,1.375
13:24:00.203,-2.25,1.0625
13:24:00.214,-1.625,0.1875
13:24:00.223,-2.1875,0.125
13:24:00.233,-1.875,0.5
13:24:00.243,-1.4375,0.4375
13:24:00.253,-1.6875,1.125
13:24:00.263,-2.125,1.75
13:24:00.273,-1.25,0.0625
13:24:00.283,-1.125,-1.125
13:24:00.293,-1.125,0.875
13:24:00.303,-0.5,-0.5625
13:24:00.313,-1.4375,-0.5
13:24:00.323,-2.0625,-0.5
13:24:00.334,-1.6875,-1.5
13:24:00.343,-2.25,-1.875
13:24:00.368,-2.5625,-3
13:24:00.370,-2.875,-2.0625
13:24:00.375,-2.125,-2.9375
13:24:00.383,-2.375,-4.375
13:24:00.393,-2.25,-3.9375
13:24:00.403,-1.75,-4.5625
13:24:00.422,-2.625,-5.4375
13:24:00.424,-2.5,-3.4375
13:24:00.439,-1.6875,-5
13:24:00.455,-1.8125,-5.5
13:24:00.457,-1.8125,-3.75
13:24:00.466,-1.625,-5.375
13:24:00.473,-0.625,-4.3125
13:24:00.483,-1.625,-4.5
13:24:00.493,-1.375,-5.125
13:24:00.503,-0.875,-5.4375
13:24:00.513,-0.5,-4.875
13:24:00.524,0.25,-4.625
13:24:00.533,-0.5,-4.1875
13:24:00.543,-0.75,-4.625
13:24:00.553,-0.25,-5.625
13:24:00.563,-0.9375,-5.1875
13:24:00.573,-1,-6
13:24:00.583,-1.5625,-6.0625
13:24:00.593,-0.8125,-5.875
13:24:00.603,-1.0625,-6.3125
13:24:00.613,-1.625,-6.25
13:24:00.624,-1.0625,-6.375
13:24:00.633,-1.75,-6.625
13:24:00.643,-1.375,-5.9375
13:24:00.660,-0.875,-6.6875
13:24:00.663,-1.8125,-5.75
13:24:00.673,-1.4375,-7.375
13:24:00.683,-2.5,-6
13:24:00.693,-1.875,-7.5625
13:24:00.703,-2.875,-6.1875
13:24:00.713,-2.5,-8.375
13:24:00.723,-2.75,-6.6875
13:24:00.733,-2.6875,-7.1875
13:24:00.743,-3.5625,-7.625
13:24:00.753,-4,-8.625
13:24:00.763,-4.4375,-7.625
13:24:00.773,-4.3125,-9.75
13:24:00.783,-5.125,-8.1875
13:24:00.793,-4.3125,-10.8125
13:24:00.803,-4.5625,-8.4375
13:24:00.813,-3.875,-10.1875
13:24:00.823,-4.6875,-9
13:24:00.834,-4.25,-11.0625
13:24:00.843,-4.4375,-9.875
13:24:00.853,-4.4375,-11.75
13:24:00.863,-5.25,-11.6875
13:24:00.873,-5.3125,-11
13:24:00.883,-5.25,-12.6875
13:24:00.893,-5.1875,-10.875
13:24:00.903,-5.125,-10.5
13:24:00.913,-4.75,-8.5
13:24:00.923,-3.375,-7.3125
13:24:00.934,-2.4375,-5.0625
13:24:00.944,-2.4375,-1.75
13:24:00.953,-1,-2.25
13:24:00.964,-1.5625,0.0625
13:24:00.973,-1.375,-1
13:24:00.983,-1.625,0.4375
13:24:00.993,-1.0625,0.3125
13:24:01.003,-1.375,1.0625
13:24:01.013,-1.375,-0.25
13:24:01.023,-1.75,0.3125
13:24:01.035,-1.5,-0.3125
13:24:01.043,-2.1875,-0.625
13:24:01.053,-2.375,0.375
13:24:01.068,-2.5,-0.125
13:24:01.077,-2.375,0.375
13:24:01.084,-1.8125,1.375
13:24:01.099,-1.5625,1.4375
13:24:01.105,-1.875,1.1875
13:24:01.114,-1.8125,2
13:24:01.123,-1.25,2.125
13:24:01.133,-2.375,1.5625
13:24:01.143,-2.875,1.9375
13:24:01.153,-2.8125,0.375
13:24:01.163,-3,-0.0625
13:24:01.173,-3.375,0.4375
13:24:01.198,-3.3125,-1.375
13:24:01.202,-3.1875,-0.4375
13:24:01.203,-2.75,-0.25
13:24:01.237,-3.375,-1.375
13:24:01.238,-3.875,-0.875
13:24:01.241,-3.375,0
13:24:01.244,-3.625,-0.75
13:24:01.274,-3.3125,1.125
13:24:01.276,-3.75,0.3125
13:24:01.278,-3.625,-0.9375
13:24:01.312,-3.75,-0.1875
13:24:01.314,-3,0.625
13:24:01.317,-3.3125,-0.4375
13:24:01.322,-4.0625,-0.0625
13:24:01.325,-3.6875,-1.1875
13:24:01.355,-4.5625,-1.3125
13:24:01.356,-5.1875,-0.875
13:24:01.359,-4.1875,-1.75
13:24:01.364,-3.875,-2.0625
13:24:01.402,-2.875,-1.625
13:24:01.406,-2.9375,-2.3125
13:24:01.406,-2.0625,-1
13:24:01.408,-1.125,-2.0625
13:24:01.453,-2.375,-1.625
13:24:01.453,-2.3125,-1.4375
13:24:01.454,-2.5625,-3.0625
13:24:01.464,-2.75,-2.6875
13:24:01.464,-1.9375,-3.125
13:24:01.464,-2.4375,-4.3125
13:24:01.509,-2.5,-3
13:24:01.510,-2,-4.375
13:24:01.513,-1.8125,-4.6875
13:24:01.514,-1.75,-4.5625
13:24:01.517,-2.25,-4.4375
13:24:01.548,-2.4375,-4.3125
13:24:01.548,-2.9375,-4.375
13:24:01.550,-2.25,-6
13:24:01.556,-2.5,-5.4375
13:24:01.565,-2.25,-5.375
13:24:01.591,-2.1875,-6.625
13:24:01.593,-2.6875,-4.875
13:24:01.595,-2.3125,-6.125
13:24:01.638,-2.5625,-6.6875
13:24:01.643,-2.8125,-6.5625
13:24:01.644,-2.3125,-6.375
13:24:01.665,-2.125,-6.5625
13:24:01.671,-2.9375,-7.8125
13:24:01.673,-2.3125,-7.25
13:24:01.673,-2,-7.5
13:24:01.680,-2.8125,-7.625
13:24:01.711,-2.375,-8.1875
13:24:01.713,-2.375,-7.75
13:24:01.714,-2.625,-8.75
13:24:01.719,-2.25,-7.9375
13:24:01.751,-2.25,-8.0625
13:24:01.783,-2.0625,-7.5
13:24:01.812,-2.3125,-9.1875
13:24:01.814,-2.3125,-8.125
13:24:01.842,-2.25,-8.8125
13:24:01.842,-2.4375,-8.625
13:24:01.843,-2.5,-7.8125
13:24:01.846,-1.8125,-8.6875
13:24:01.852,-1.4375,-8.5
13:24:01.852,-2.5,-8.1875
13:24:01.852,-1.5625,-8.9375
13:24:01.868,-1.6875,-9.875
13:24:01.869,-1.875,-9.9375
13:24:01.898,-2.0625,-9.3125
13:24:01.900,-2.6875,-9.9375
13:24:01.902,-2.625,-9.6875
13:24:01.912,-2.5,-9.8125
13:24:01.918,-2.9375,-9.4375
13:24:01.950,-2.375,-9.625
13:24:01.954,-2.625,-10.25
13:24:01.955,-3.375,-10
13:24:01.961,-2.8125,-11.6875
13:24:01.988,-4,-10.25
13:24:01.990,-3.875,-11.75
13:24:01.992,-4.5625,-12.4375
13:24:02.029,-5,-13.3751
13:24:02.030,-5.3125,-12.625
13:24:02.037,-4.125,-9.8125
13:24:02.044,-3.75,-5.0625
13:24:02.044,-2.6875,-5.375
13:24:02.057,-2.6875,-3.1875
13:24:02.060,-1.75,-1.125
13:24:02.100,-2,-0.75
13:24:02.100,-2.0625,-0.8125
13:24:02.105,-1.4375,-1.25
13:24:02.111,-1,-0.1875
13:24:02.111,-1.125,-1.1875
13:24:02.125,-0.625,-0.25
13:24:02.129,-1.5,-1.3125
13:24:02.154,-1.3125,-0.3125
13:24:02.157,-0.9375,-0.4375
13:24:02.159,-0.4375,0.3125
13:24:02.185,-0.625,0
13:24:02.188,-1.0625,1.0625
13:24:02.191,-0.1875,1.875
13:24:02.206,-0.875,1.6875
13:24:02.209,-1.25,2.4375
13:24:02.218,-0.3125,1.25
13:24:02.228,-0.4375,2.9375
13:24:02.239,-0.4375,2.0625
13:24:02.249,-0.25,0.5625
13:24:02.258,-0.625,0.6875
13:24:02.268,-0.25,0.9375
13:24:02.280,-1.1875,1.5625
13:24:02.289,-0.6875,0.6875
13:24:02.298,-0.75,-0.25
13:24:02.308,-1.0625,1.5625
13:24:02.318,-0.375,0.125
13:24:02.328,-0.5,0.5
13:24:02.338,-0.1875,1
13:24:02.348,-0.125,1.5
13:24:02.358,0.0625,0.375
13:24:02.369,-0.25,1.875
13:24:02.390,0.125,0.125
13:24:02.392,-0.875,-0.25
13:24:02.402,-0.375,0.9375
13:24:02.409,-0.4375,-1.3125
13:24:02.423,-0.3125,-0.4375
13:24:02.432,-0.125,-1.25
13:24:02.438,-1.4375,-1.5625
13:24:02.448,-0.5,-1.1875
13:24:02.458,-0.375,-1.9375
13:24:02.468,-1.4375,-0.4375
13:24:02.479,-1.375,-1.625
13:24:02.488,-1.4375,-2.6875
13:24:02.498,-1.875,-2
13:24:02.509,-0.625,-2.5
13:24:02.518,-1,-2.6875
13:24:02.528,-1,-1.125
13:24:02.538,-1.0625,-2.5
13:24:02.548,-1.0625,-2.125
13:24:02.558,-1.4375,-2.125
13:24:02.569,-1,-2.6875
13:24:02.578,-2,-1.9375
13:24:02.589,-1.4375,-1.8125
13:24:02.599,-2.625,-2.9375
13:24:02.609,-2.125,-2.5
13:24:02.618,-2.1875,-3.375
13:24:02.629,-2.75,-2.4375
13:24:02.638,-2.8125,-3.4375
13:24:02.648,-2.6875,-2.8125
13:24:02.658,-2.625,-2.75
13:24:02.668,-1.9375,-2.625
13:24:02.678,-2.9375,-2.125
13:24:02.688,-2.125,-2.4375
13:24:02.698,-3.3125,-1.8125
13:24:02.708,-2.6875,-2.5
13:24:02.718,-3.3125,-2.5
13:24:02.730,-3.1875,-2.5
13:24:02.738,-3.6875,-2.5
13:24:02.748,-3.4375,-3
13:24:02.758,-4.1875,-3
13:24:02.768,-3.4375,-3.3125
13:24:02.778,-4.375,-3.125
13:24:02.788,-4.1875,-3.5625
13:24:02.802,-4.1875,-2.8125
13:24:02.808,2.4375,-3.0625
13:24:02.818,2.0625,-1.5
13:24:02.828,3.5,0.5625
13:24:02.838,6.1875,-0.375
13:24:02.848,7.5,1
13:24:02.858,9.4375,0.375
13:24:02.868,10.875,2.6875
13:24:02.878,12.5625,1.5625
13:24:02.889,14.8126,1.4375
13:24:02.899,16.0001,2.625
13:24:02.930,17.5626,1.875
13:24:02.931,19.6251,1.6875
13:24:02.933,19.1251,1.9375
13:24:02.941,19.6251,3.3125
13:24:02.951,19.0001,2.375
13:24:02.958,18.7501,2.75
13:24:02.968,19.0001,2.6875
13:24:02.978,18.8751,3.5
13:24:02.988,20.1876,4.8125
13:24:02.998,22.4376,5.3125
13:24:03.008,24.1251,5.25
13:24:03.019,26.5001,5.875
13:24:03.028,27.9376,6.25
13:24:03.038,29.8751,7.125
13:24:03.048,32.0626,10.0625
13:24:03.058,35.7501,12.25
13:24:03.068,38.5626,14.0626
13:24:03.078,41.4377,16.4376
13:24:03.095,44.0627,19.5626
13:24:03.098,46.1877,21.8126
13:24:03.113,48.7502,23.0001
13:24:03.118,48.3752,24.6251
13:24:03.128,48.7502,27.4376
13:24:03.139,49.3127,27.6251
13:24:03.148,50.0627,26.5001
13:24:03.158,50.0627,26.0626
13:24:03.168,49.8752,26.3126
13:24:03.178,49.5002,26.1876
13:24:03.188,49.1252,25.3126
13:24:03.198,48.7502,26.3126
13:24:03.208,48.2502,26.3126
13:24:03.219,48.0627,26.0001
13:24:03.229,46.6877,26.6876
13:24:03.239,46.8752,26.8751
13:24:03.248,45.6877,24.8126
13:24:03.258,45.5002,26.1251
13:24:03.268,45.1252,25.9376
13:24:03.278,44.7502,25.2501
13:24:03.288,43.9377,24.1876
13:24:03.298,42.9377,23.6251
13:24:03.308,41.5627,23.7501
13:24:03.319,41.8752,22.3751
13:24:03.328,41.4377,20.9376
13:24:03.338,39.9377,18.8126
13:24:03.349,39.0626,19.2501
13:24:03.361,38.9376,18.6876
13:24:03.369,37.8126,16.6251
13:24:03.378,36.7501,17.3751
13:24:03.388,37.5626,16.5626
13:24:03.398,36.6876,15.1876
13:24:03.409,35.5001,15.0626
13:24:03.418,35.5626,14.0001
13:24:03.428,34.6251,13.3126
13:24:03.438,34.0001,12.3125
13:24:03.448,33.1251,13.0625
13:24:03.458,33.1251,12.1875
13:24:03.469,32.3751,10.6875
13:24:03.478,31.7501,10.9375
13:24:03.489,31.3751,10.3125
13:24:03.498,31.0001,9.375
13:24:03.508,30.2501,9.125
13:24:03.518,29.0626,8.5625
13:24:03.529,28.0001,9.1875
13:24:03.538,27.6251,8.875
13:24:03.549,27.3126,7.8125
13:24:03.560,26.0001,6.375
13:24:03.569,25.8126,7.4375
13:24:03.578,26.1251,6.3125
13:24:03.588,25.4376,4.875
13:24:03.598,24.5626,3.9375
13:24:03.608,24.5001,6.125
13:24:03.618,24.6251,4.25
13:24:03.628,23.6251,3.375
13:24:03.638,23.0001,3.5
13:24:03.648,22.5001,3.75
13:24:03.658,22.2501,2
13:24:03.669,21.0626,1.0625
13:24:03.678,20.5626,1.4375
13:24:03.688,20.3126,1.9375
13:24:03.709,19.0626,1
13:24:03.714,18.7501,0.5
13:24:03.731,17.8751,1.375
13:24:03.734,17.0001,-0.125
13:24:03.738,16.3126,1.5625
13:24:03.748,16.3751,1.3125
13:24:03.758,15.2501,0.125
13:24:03.768,14.3126,0.75
13:24:03.778,14.5626,0.625
13:24:03.788,14.0626,0.125
13:24:03.798,13.0625,1.5625
13:24:03.809,12.6875,-0.625
13:24:03.818,11.75,-0.5
13:24:03.828,11.75,-0.4375
13:24:03.838,11.6875,-0.6875
13:24:03.848,10.9375,-1.375
13:24:03.858,10.0625,-0.875
13:24:03.868,10.125,-1.0625
13:24:03.878,9.9375,-2.4375
13:24:03.888,9.625,-2.875
13:24:03.898,9.5625,-1.5
13:24:03.909,10.375,-2.75
13:24:03.918,9.25,-3.5625
13:24:03.930,9.125,-2.4375
13:24:03.938,9.625,-2.6875
13:24:03.948,9,-4.375
13:24:03.959,8.0625,-4
13:24:03.968,8.5625,-4.0625
13:24:03.978,7.625,-4.4375
13:24:03.988,7.75,-4.875
13:24:03.998,7.5625,-4.6875
13:24:04.008,7.8125,-5.8125
13:24:04.018,7.25,-4.625
13:24:04.028,7.1875,-5.1875
13:24:04.038,6.375,-5.6875
13:24:04.048,6.375,-4.9375
13:24:04.058,6.25,-5.8125
13:24:04.068,5.5625,-5.5
13:24:04.078,6.0625,-6.5625
13:24:04.088,5,-6.625
13:24:04.098,4.75,-7.0625
13:24:04.108,4.875,-7.875
13:24:04.118,4.875,-7.75
13:24:04.129,6.1875,-7.625
13:24:04.138,5,-9.125
13:24:04.148,5.0625,-7.75
13:24:04.159,5.5625,-7.5
13:24:04.168,5.1875,-7.8125
13:24:04.178,5.375,-5.25
13:24:04.209,6,-3.3125
13:24:04.209,7,-1.6875
13:24:04.213,6.875,-0.75
13:24:04.225,7.5,2.75
13:24:04.233,7.8125,3.3125
13:24:04.243,7.0625,5
13:24:04.253,8.5625,4.9375
13:24:04.263,7.25,5.5
13:24:04.273,7.0625,6.25
13:24:04.283,7.1875,5.625
13:24:04.293,6.6875,4.875
13:24:04.301,6.5,6.25
13:24:04.314,7.6875,3.75
13:24:04.324,7,3.8125
13:24:04.333,7.6875,4.4375
13:24:04.343,8.3125,3.5
13:24:04.353,7.3125,3.5625
13:24:04.364,7.875,4.25
13:24:04.373,7.25,3.25
13:24:04.392,7.25,3.9375
13:24:04.394,7.25,3
13:24:04.409,7,3.875
13:24:04.413,7.6875,3.4375
13:24:04.424,7.4375,3
13:24:04.434,6.375,1.1875
13:24:04.443,6.875,2
13:24:04.453,7.25,1.6875
13:24:04.463,6.1875,0.875
13:24:04.473,5.9375,1.375
13:24:04.483,5.9375,2.3125
13:24:04.493,5.875,1.3125
13:24:04.503,5.5625,1.5625
13:24:04.513,5.375,1.9375
13:24:04.523,6.375,1.3125
13:24:04.534,5.5,0.3125
13:24:04.543,4.5625,0.875
13:24:04.553,4.9375,1.4375
13:24:04.563,5.125,0.625
13:24:04.573,5.625,-0.1875
13:24:04.583,5.1875,-1.5
13:24:04.593,4.75,-0.5
13:24:04.604,5.5,-1.625
13:24:04.613,4.5,-1.9375
13:24:04.623,4.5625,-1.0625
13:24:04.633,4.9375,-2.25
13:24:04.643,4.1875,-2.6875
13:24:04.654,3.625,-1.8125
13:24:04.663,3.75,-1.4375
13:24:04.674,3.4375,-2.25
13:24:04.683,2.4375,-3
13:24:04.693,2.8125,-2.375
13:24:04.703,2.9375,-3.25
13:24:04.714,2.5,-3.125
13:24:04.723,2.6875,-2.4375
13:24:04.733,2.4375,-3.4375
13:24:04.744,3.25,-2.125
13:24:04.753,2.3125,-3.8125
13:24:04.764,2.5625,-3.75
13:24:04.773,2.625,-4.4375
13:24:04.783,2.125,-3.25
13:24:04.793,2.1875,-4.5625
13:24:04.803,1.625,-4.1875
13:24:04.814,2.25,-4
13:24:04.823,2.125,-4.5625
13:24:04.833,1.25,-4.25
13:24:04.844,2.0625,-5.375
13:24:04.853,1.4375,-4.25
13:24:04.864,2.1875,-6.1875
13:24:04.873,1.5625,-5.8125
13:24:04.883,1.125,-6.25
13:24:04.894,1.625,-7.125
13:24:04.903,1.3125,-5.8125
13:24:04.913,1.375,-6.5
13:24:04.923,0.9375,-6.5
13:24:04.933,2.375,-7
13:24:04.943,2,-8.1875
13:24:04.954,1.125,-7.125
13:24:04.963,2.3125,-8.1875
13:24:04.973,2.25,-8.625
13:24:04.983,2.125,-7.8125
13:24:04.993,1.8125,-10.25
13:24:05.012,2.0625,-8.1875
13:24:05.027,1.875,-9.75
13:24:05.027,1.8125,-8.4375
13:24:05.033,3.0625,-9
13:24:05.044,2,-9.625
13:24:05.058,1.75,-8.3125
13:24:05.064,2.1875,-10
13:24:05.073,1.5,-10.0625
13:24:05.083,1.3125,-9.5625
13:24:05.098,1.3125,-11.1875
13:24:05.102,2.3125,-9.125
13:24:05.127,1.625,-10.875
13:24:05.129,2,-9.6875
13:24:05.134,2,-11.0625
13:24:05.168,1.3125,-8.5625
13:24:05.169,2.125,-8
13:24:05.171,2.875,-4.3125
13:24:05.174,3.875,-2.5
13:24:05.184,4.125,-0.5
13:24:05.217,3.875,1.375
13:24:05.219,4.75,3.375
13:24:05.221,4.6875,3.0625
13:24:05.223,5.375,4.3125
13:24:05.254,5.875,3.3125
13:24:05.258,5.6875,3.1875
13:24:05.258,7.1875,3.125
13:24:05.263,6.8125,2.375
13:24:05.306,6.5,2.8125
13:24:05.311,6.5,2.25
13:24:05.311,6.875,1.4375
13:24:05.340,7.0625,2.875
13:24:05.340,7.1875,1.9375
13:24:05.341,6.75,3.0625
13:24:05.343,6.9375,3.625
13:24:05.351,7.375,3.4375
13:24:05.354,7.125,4.1875
13:24:05.385,7.375,3.625
13:24:05.387,7.4375,2.75
13:24:05.391,7.0625,3
13:24:05.395,7.875,2.625
13:24:05.423,7.5625,2
13:24:05.425,6.375,1.8125
13:24:05.427,6.375,1.8125
13:24:05.433,5.4375,1.0625
13:24:05.467,6.3125,2.6875
13:24:05.470,6.3125,1.75
13:24:05.471,5.125,2.0625
13:24:05.496,5.25,1
13:24:05.498,4.6875,2.1875
13:24:05.501,5,1.75
13:24:05.507,4.1875,0.9375
13:24:05.518,4.25,2.125
13:24:05.523,4.625,1.3125
13:24:05.557,3.875,-0.25
13:24:05.557,4.125,1.0625
13:24:05.560,4.0625,-0.375
13:24:05.566,3.5,0
13:24:05.601,4.25,-1.3125
13:24:05.602,2.9375,-1.375
13:24:05.603,2.9375,-0.625
13:24:05.632,3.375,-1
13:24:05.633,3.6875,-1.6875
13:24:05.636,3.0625,-1.5
13:24:05.642,2.8125,-1.9375
13:24:05.645,2.875,-2
13:24:05.656,2.9375,-2.75
13:24:05.694,2.4375,-3.3125
13:24:05.697,2.0625,-2.1875
13:24:05.733,2.375,-3
13:24:05.737,2.75,-3.75
13:24:05.738,2.5,-3.5
13:24:05.738,3.3125,-4.0625
13:24:05.738,3,-4.625
13:24:05.742,3,-4.4375
13:24:05.775,3.1875,-4.6875
13:24:05.777,3.3125,-5.75
13:24:05.779,3.25,-5.8125
13:24:05.783,3.4375,-5.6875
13:24:05.797,3.5625,-5.6875
13:24:05.808,3.4375,-6.75
13:24:05.816,3.1875,-6.4375
13:24:05.845,3.0625,-6.0625
13:24:05.847,2.6875,-6.375
13:24:05.849,3.1875,-5.875
13:24:05.854,2.4375,-6.125
13:24:05.882,1.5625,-7.25
13:24:05.884,1.875,-6.9375
13:24:05.887,1.8125,-6.75
13:24:05.918,1.375,-7.375
13:24:05.921,1,-7.6875
13:24:05.924,0.3125,-6.6875
13:24:05.928,-0.1875,-6.5
13:24:05.933,0.0625,-7.25
13:24:05.965,-0.4375,-7.0625
13:24:05.967,-0.3125,-6.75
13:24:05.969,-0.8125,-7.125
13:24:05.975,-1.125,-6.125
13:24:06.008,-1.0625,-7.6875
13:24:06.009,-0.8125,-7.0625
13:24:06.012,-0.6875,-7.5625
13:24:06.018,-0.6875,-7.5625
13:24:06.023,-0.5,-7.875
13:24:06.034,-0.9375,-7.625
13:24:06.059,-0.5625,-6.9375
13:24:06.066,-0.9375,-8.3125
13:24:06.068,-1.0625,-8.6875
13:24:06.101,-0.6875,-8.0625
13:24:06.102,-0.125,-9.0625
13:24:06.104,-0.9375,-9.125
13:24:06.107,-0.5,-10.3125
13:24:06.114,-0.25,-10.0625
13:24:06.123,0.25,-10.5
13:24:06.132,-0.125,-10.9375
13:24:06.141,0.125,-10.875
13:24:06.154,-0.1875,-10.4375
13:24:06.163,-0.25,-11.3125
13:24:06.172,-0.625,-10.5625
13:24:06.183,-0.3125,-11.25
13:24:06.192,0,-11
13:24:06.203,0.375,-11.6875
13:24:06.213,0.4375,-11.5625
13:24:06.222,0.875,-11.4375
13:24:06.233,0.875,-10.4375
13:24:06.243,0.625,-9.5625
13:24:06.253,2.0625,-7.125
13:24:06.264,2.8125,-4.3125
13:24:06.273,2.6875,-1.5
13:24:06.283,3.6875,0.875
13:24:06.294,2.75,3.0625
13:24:06.313,2.6875,4.5625
13:24:06.319,3.25,5.125
13:24:06.335,3.125,6.375
13:24:06.337,3.5625,5.1875
13:24:06.343,3,5.3125
13:24:06.352,3.0625,4.5
13:24:06.363,2.5,3.3125
13:24:06.373,2.6875,4.5625
13:24:06.381,2.9375,3.125
13:24:06.393,3,3.5625
13:24:06.406,3.8125,3.3125
13:24:06.412,3.5625,2.5
13:24:06.423,4.125,4.125
13:24:06.433,4.1875,2.625
13:24:06.442,3.75,2.625
13:24:06.452,3.5625,3.75
13:24:06.461,3.3125,3.25
13:24:06.472,3.5,3.75
13:24:06.482,2.75,3.9375
13:24:06.493,3,3.5
13:24:06.502,3.3125,3.375
13:24:06.512,2.875,1.9375
13:24:06.523,2.1875,3.0625
13:24:06.533,2.9375,2.125
13:24:06.542,2.625,1.9375
13:24:06.553,2.1875,1.625
13:24:06.561,2.625,1.75
13:24:06.572,2.3125,1.8125
13:24:06.583,2.5,2.5625
13:24:06.593,2.8125,2.125
13:24:06.602,2.625,0.5625
13:24:06.611,2.3125,0.9375
13:24:06.622,2.6875,0.5
13:24:06.632,2.875,0.125
13:24:06.643,1.875,-0.0625
13:24:06.652,2.3125,1.3125
13:24:06.662,2.3125,0.1875
13:24:06.673,1.9375,0.25
13:24:06.682,1.9375,0.3125
13:24:06.692,2.5625,-1.4375
13:24:06.703,2.6875,-2.0625
13:24:06.713,2,-0.5
13:24:06.722,2.875,-1.6875
13:24:06.733,3.0625,-2.75
13:24:06.742,2,-2.5
13:24:06.770,2.125,-1.5625
13:24:06.771,2.5,-2.1875
13:24:06.773,2.4375,-2.375
13:24:06.784,2,-3.375
13:24:06.799,2.1875,-2.875
13:24:06.803,2.375,-3.125
13:24:06.813,2.75,-3.75
13:24:06.823,2.625,-3.9375
13:24:06.832,2.375,-3
13:24:06.842,3.125,-3.6875
13:24:06.852,2.9375,-4.375
13:24:06.863,2,-3.125
13:24:06.873,2.25,-3.5625
13:24:06.883,2.6875,-4.875
13:24:06.894,2.4375,-4.125
13:24:06.901,2.5625,-5.5
13:24:06.913,2.25,-4.9375
13:24:06.922,2.5,-5.3125
13:24:06.932,2.9375,-6.4375
13:24:06.941,2.4375,-4.5
13:24:06.952,2.5625,-6.5
13:24:06.961,1.375,-5.6875
13:24:06.972,1.5,-5.375
13:24:06.989,1,-5.375
13:24:06.993,0.375,-5.1875
13:24:07.008,1.625,-5.4375
13:24:07.013,0.625,-6.4375
13:24:07.022,-0.1875,-5.875
13:24:07.032,0.75,-6.9375
13:24:07.043,0.1875,-7.375
13:24:07.052,0.125,-6.8125
13:24:07.063,-0.375,-6.4375
13:24:07.072,-0.0625,-5.6875
13:24:07.084,-0.625,-6.6875
13:24:07.093,-0.875,-6.25
13:24:07.101,-0.25,-6.5
13:24:07.113,-0.9375,-7.125
13:24:07.123,-1.625,-5.9375
13:24:07.134,-1.0625,-8.375
13:24:07.142,-1.75,-6.1875
13:24:07.156,-0.875,-7.625
13:24:07.161,-0.1875,-9.125
13:24:07.172,0.1875,-8.9375
13:24:07.183,1.1875,-8.3125
13:24:07.192,1.625,-7.3125
13:24:07.202,2.125,-4.3125
13:24:07.213,2.625,-3.6875
13:24:07.223,3.125,0.375
13:24:07.232,3.875,0.4375
13:24:07.242,3.125,3.9375
13:24:07.252,3.8125,4.375
13:24:07.261,3.875,5.5
13:24:07.273,3.4375,5.375
13:24:07.282,2.9375,4.9375
13:24:07.291,3.3125,4.9375
13:24:07.302,2.9375,4.4375
13:24:07.312,3.1875,4.9375
13:24:07.322,3.625,3.9375
13:24:07.333,3,4.1875
13:24:07.341,3.125,4.1875
13:24:07.352,3.375,3.5
13:24:07.363,2.75,3.5625
13:24:07.373,3.25,4.8125
13:24:07.382,3.5625,4.25
13:24:07.391,2.375,5
13:24:07.402,3.125,5.0625
13:24:07.412,2.8125,4.125
13:24:07.423,3.9375,5.625
13:24:07.432,3.9375,5.125
13:24:07.442,4.5,3.4375
13:24:07.453,3.625,3.1875
13:24:07.461,4.5625,3.125
13:24:07.472,3.875,1.5
13:24:07.483,3.375,2.375
13:24:07.494,4.25,2.5625
13:24:07.503,4.0625,1.375
13:24:07.512,3.6875,1.5
13:24:07.522,3.25,2.8125
13:24:07.533,3.1875,2.3125
13:24:07.543,2.875,1.8125
13:24:07.552,2.8125,2.1875
13:24:07.562,2.75,2.5
13:24:07.572,2.0625,0.9375
13:24:07.581,1.8125,2.9375
13:24:07.592,2.3125,1.8125
13:24:07.615,2.25,1.1875
13:24:07.620,1.6875,1.8125
13:24:07.624,2.4375,0.875
13:24:07.638,1.625,-0.3125
13:24:07.644,0.75,1.125
13:24:07.653,1.625,-0.4375
13:24:07.662,1.5625,-0.875
13:24:07.672,1.0625,-0.4375
13:24:07.682,1.875,-0.625
13:24:07.692,2.5625,-0.875
13:24:07.701,1.6875,-1.3125
13:24:07.712,1.75,-0.5625
13:24:07.723,2.6875,-1.9375
13:24:07.733,1.75,-2.5
13:24:07.742,1.125,-1.8125
13:24:07.752,2.3125,-1.9375
13:24:07.762,1.75,-3.375
13:24:07.772,2.125,-2.75
13:24:07.782,2.0625,-2.8125
13:24:07.792,2.4375,-3.75
13:24:07.802,2.5625,-4.5
13:24:07.813,2.5,-3.125
13:24:07.822,2.6875,-3.9375
13:24:07.831,2,-3.6875
13:24:07.842,2.4375,-3.6875
13:24:07.852,1.4375,-4.0625
13:24:07.862,0.5,-4.4375
13:24:07.872,1,-5.1875
13:24:07.882,0.5625,-3.75
13:24:07.893,1.25,-5.8125
13:24:07.906,0.4375,-4.6875
13:24:07.912,1.625,-5.9375
13:24:07.922,0.6875,-6.25
13:24:07.931,1.3125,-5.375
13:24:07.943,1,-6.625
13:24:07.952,0.5,-5.6875
13:24:07.963,1.1875,-5.9375
13:24:07.972,0.3125,-6.25
13:24:07.982,0.0625,-5.8125
13:24:07.993,0.6875,-6.625
13:24:08.002,-0.125,-7.375
13:24:08.012,0.625,-6.25
13:24:08.022,0.625,-7
13:24:08.049,0.1875,-7.25
13:24:08.052,1.0625,-7.375
13:24:08.054,0.125,-7.0625
13:24:08.062,0.6875,-7.375
13:24:08.072,-0.125,-7.0625
13:24:08.084,0.0625,-7.4375
13:24:08.092,-0.25,-7.4375
13:24:08.102,0,-7.625
13:24:08.113,-0.5,-8.4375
13:24:08.121,-1.125,-6.9375
13:24:08.132,-0.6875,-8.875
13:24:08.141,-1.0625,-8.5625
13:24:08.152,-1.25,-7.8125
13:24:08.162,-1.5625,-9.5
13:24:08.172,-1.5625,-8.5
13:24:08.182,-1.4375,-8.6875
13:24:08.192,-1.875,-8
13:24:08.202,-1.625,-8.625
13:24:08.212,-1.4375,-9.25
13:24:08.227,-2.375,-8.8125
13:24:08.237,-2.125,-8.9375
13:24:08.247,-2.4375,-8.125
13:24:08.258,-1.1875,-9.9375
13:24:08.268,-1.9375,-10.0625
13:24:08.285,-0.625,-8.625
13:24:08.288,-0.25,-9.3125
13:24:08.303,0.9375,-7.3125
13:24:08.308,0.8125,-4.3125
13:24:08.316,2.5,-1.875
13:24:08.327,3.75,-0.25
13:24:08.337,4.3125,2.75
13:24:08.347,4.625,3.5625
13:24:08.357,4.75,5.25
13:24:08.366,4.4375,4.8125
13:24:08.377,4.3125,6.0625
13:24:08.386,4.0625,5.875
13:24:08.398,4.8125,5.5
13:24:08.407,4.5,6.5625
13:24:08.416,5.125,4.6875
13:24:08.431,4.3125,5.75
13:24:08.437,4.6875,3.9375
13:24:08.447,4.6875,4.6875
13:24:08.457,5.875,4.8125
13:24:08.467,5.5625,4.1875
13:24:08.478,4.9375,5.375
13:24:08.488,5.25,5.25
13:24:08.497,4.875,5.8125
13:24:08.507,4.4375,6.3125
13:24:08.518,5,5.5625
13:24:08.527,4.125,4.375
13:24:08.537,4.375,5.5625
13:24:08.546,5,4.75
13:24:08.557,4.5,4.4375
13:24:08.568,3.8125,5.25
13:24:08.580,3.6875,3.8125
13:24:08.588,5.0625,3.1875
13:24:08.597,3.8125,3.0625
13:24:08.606,4.9375,3.3125
13:24:08.617,4.125,2.5
13:24:08.627,4.25,2.625
13:24:08.637,4.1875,3.875
13:24:08.647,4.125,2.4375
13:24:08.657,4.375,2.5625
13:24:08.668,5.1875,2.8125
13:24:08.677,3.8125,1.8125
13:24:08.686,3.625,3.25
13:24:08.697,3.6875,1.9375
13:24:08.706,3.3125,0.875
13:24:08.717,3.625,1.8125
13:24:08.729,4.125,1.1875
13:24:08.737,3.125,0.25
13:24:08.747,3.1875,1.625
13:24:08.758,3.9375,0.75
13:24:08.766,3.375,-0.1875
13:24:08.777,3.5,0
13:24:08.786,4.125,-1
13:24:08.797,2.75,-2
13:24:08.807,2.9375,-0.75
13:24:08.817,3.375,-0.5
13:24:08.827,3,-1.5
13:24:08.837,2.75,-1.4375
13:24:08.848,2.5,-0.25
13:24:08.857,3.25,-1.625
13:24:08.867,2.0625,-2.375
13:24:08.877,1.6875,-1.125
13:24:08.887,2.625,-1.4375
13:24:08.898,2.125,-2.6875
13:24:08.917,2.625,-1.125
13:24:08.922,2.125,-2.5625
13:24:08.938,2.625,-3.5625
13:24:08.941,2.125,-3.1875
13:24:08.957,2.4375,-3.25
13:24:08.960,2.625,-3.5625
13:24:08.968,2.375,-3.5625
13:24:08.977,2.5625,-4.625
13:24:08.987,1.875,-3.5625
13:24:08.997,2.6875,-4.6875
13:24:09.006,2,-4.875
13:24:09.017,1.875,-4.5625
13:24:09.028,1.75,-5.875
13:24:09.041,1.75,-5.75
13:24:09.048,2.1875,-5.4375
13:24:09.057,1.3125,-5.5
13:24:09.098,2.1875,-5.9375
13:24:09.100,1.625,-6.25
13:24:09.102,1.125,-5.75
13:24:09.103,1.625,-5.625
13:24:09.108,1.375,-6.6875
13:24:09.134,1.5,-6.3125
13:24:09.136,2.25,-5.9375
13:24:09.139,1.9375,-6.75
13:24:09.171,1.375,-7.375
13:24:09.173,1.5625,-5.9375
13:24:09.176,1.375,-7.875
13:24:09.183,1.3125,-6.625
13:24:09.196,2,-6.75
13:24:09.199,1.75,-8.5625
13:24:09.230,1.125,-7
13:24:09.231,1,-8.125
13:24:09.233,0.8125,-7.0625
13:24:09.238,0.5625,-7.8125
13:24:09.269,-0.125,-7.75
13:24:09.270,-0.1875,-7.3125
13:24:09.272,-0.8125,-8.5625
13:24:09.319,-0.5625,-7.3125
13:24:09.319,-0.375,-8.625
13:24:09.321,-0.625,-9.1875
13:24:09.324,0.1875,-8.25
13:24:09.343,-0.125,-9.6875
13:24:09.343,-0.1875,-9.1875
13:24:09.343,-0.1875,-8.4375
13:24:09.349,1.25,-8.125
13:24:09.389,1.125,-6.375
13:24:09.392,1.625,-3.75
13:24:09.393,2.375,-2.125
13:24:09.397,2.25,1.25
13:24:09.402,3.6875,2.6875
13:24:09.415,3.1875,3.375
13:24:09.419,3.9375,4.5
13:24:09.447,3.5625,4.5
13:24:09.448,3.6875,5.75
13:24:09.450,4.75,4.0625
13:24:09.457,4.375,4.0625
13:24:09.487,3.8125,4.1875
13:24:09.489,4.5,3.5625
13:24:09.493,4.375,3.125
13:24:09.520,4.125,2.375
13:24:09.521,4.3125,2.3125
13:24:09.523,4.5,3.375
13:24:09.529,4.3125,3.75
13:24:09.559,3.5,3.6875
13:24:09.561,3.375,3.875
13:24:09.563,4.25,3.3125
13:24:09.594,3.75,2.0625
13:24:09.626,3.8125,2.875
13:24:09.628,3.8125,2.875
13:24:09.669,4.375,2.1875
13:24:09.670,3.75,1.6875
13:24:09.670,3.125,1.75
13:24:09.683,3.875,2
13:24:09.686,2.6875,1.5625
13:24:09.714,3,3.25
13:24:09.717,2.125,2.875
13:24:09.717,2.4375,1.8125
13:24:09.719,1.9375,1.9375
13:24:09.719,1.75,2.6875
13:24:09.726,2,1.5
13:24:09.727,1.4375,3.1875
13:24:09.734,1.75,2
13:24:09.763,1.5,1.75
13:24:09.764,1.5625,0.75
13:24:09.768,0.3125,0.375
13:24:09.772,-0.125,2
13:24:09.799,0,0.625
13:24:09.802,-0.125,-0.25
13:24:09.804,-0.6875,-0.5
13:24:09.840,-0.9375,-0.5
13:24:09.841,-0.6875,-0.375
13:24:09.845,-1.0625,0.6875
13:24:09.852,-0.4375,-1.5
13:24:09.852,-0.25,-1.375
13:24:09.894,-0.875,-2.1875
13:24:09.895,-0.5625,-2.0625
13:24:09.898,-1.0625,-1.8125
13:24:09.901,-0.625,-2.125
13:24:09.904,-0.5,-2.9375
13:24:09.936,0.1875,-3.3125
13:24:09.939,-0.375,-3.625
13:24:09.942,-0.4375,-3.6875
13:24:09.971,-0.3125,-4.75
13:24:09.972,0.4375,-3.375
13:24:09.974,0.125,-4.125
13:24:09.980,-0.625,-4.5625
13:24:09.983,0,-3.75
13:24:10.019,-0.8125,-4.3125
13:24:10.020,-0.375,-4.5
13:24:10.024,-0.1875,-4.25
13:24:10.027,-0.375,-4.5625
13:24:10.039,-1.0625,-4.0625
13:24:10.043,0.0625,-4.1875
13:24:10.070,-0.5,-5
13:24:10.073,-0.375,-5.125
13:24:10.075,-1,-5.5
13:24:10.083,-0.9375,-6.25
13:24:10.092,-1.25,-5.375
13:24:10.102,-0.8125,-4.25
13:24:10.112,-1.75,-6.3125
13:24:10.122,-1.125,-6.25
13:24:10.133,-0.8125,-5.875
13:24:10.142,-1.375,-5.4375
13:24:10.152,-0.875,-6.875
13:24:10.162,-1.5,-6.375
13:24:10.172,-1,-5.625
13:24:10.182,-1.25,-6.5625
13:24:10.192,-0.875,-6.0625
13:24:10.203,-1.8125,-7.375
13:24:10.223,-1.8125,-7.125
13:24:10.229,-1.375,-6.875
13:24:10.234,-2.125,-6.9375
13:24:10.246,-1.3125,-7.5
13:24:10.254,-2.5,-7.5
13:24:10.262,-1.125,-7.6875
13:24:10.272,-1.375,-7.5
13:24:10.282,-0.9375,-8
13:24:10.294,-1.25,-8.5625
13:24:10.302,-0.875,-8.9375
13:24:10.312,-1.375,-8.875
13:24:10.322,-0.25,-9.125
13:24:10.332,-1.4375,-9.4375
13:24:10.341,-1.125,-9.5
13:24:10.352,-1.125,-9.6875
13:24:10.362,-1.625,-8.9375
13:24:10.373,-1.4375,-9.75
13:24:10.382,-2.0625,-8.375
13:24:10.392,-1.875,-9.8125
13:24:10.402,-1.375,-9.5
13:24:10.413,-1.3125,-11.1875
13:24:10.421,-0.9375,-9.75
13:24:10.432,-0.8125,-10.75
13:24:10.442,-0.8125,-8.375
13:24:10.452,-0.125,-6.9375
13:24:10.462,0.8125,-5.1875
13:24:10.472,1.375,-1.25
13:24:10.482,1.9375,0.0625
13:24:10.492,3,3.4375
13:24:10.502,2.6875,3.625
13:24:10.511,3.75,5.375
13:24:10.521,3.5,6.4375
13:24:10.532,2.4375,6.0625
13:24:10.542,3.0625,5.5625
13:24:10.552,2.8125,5.1875
13:24:10.562,3.25,6
13:24:10.572,2.875,4.0625
13:24:10.583,2.8125,5.125
13:24:10.608,3.0625,4.375
13:24:10.609,3,3.75
13:24:10.614,3.25,4.375
13:24:10.623,4.125,4.25
13:24:10.632,4.25,5.125
13:24:10.642,5.0625,5.0625
13:24:10.652,4.5625,4.8125
13:24:10.661,4.5625,5
13:24:10.673,4.8125,5.625
13:24:10.681,4.875,4.5
13:24:10.692,4.5,3.875
13:24:10.701,4.25,3.875
13:24:10.712,4.6875,3.4375
13:24:10.721,3.6875,3.5
13:24:10.731,4.375,3
13:24:10.742,4.3125,4.8125
13:24:10.751,4.125,4.625
13:24:10.762,3.5,4.4375
13:24:10.772,3.125,3
13:24:10.788,2.875,2.4375
13:24:10.793,2.6875,2.625
13:24:10.803,2.5,4.8125
13:24:10.812,2.625,3.875
13:24:10.822,2.0625,2.5625
13:24:10.832,2.25,2.125
13:24:10.842,1.5,3.625
13:24:10.852,2.375,2.6875
13:24:10.862,1.375,1.625
13:24:10.872,1,2
13:24:10.882,2.4375,1.5625
13:24:10.892,1.6875,0.375
13:24:10.902,1.4375,2.0625
13:24:10.912,1.625,1.3125
13:24:10.922,2.1875,0.375
13:24:10.931,1.4375,-0.875
13:24:10.941,0.875,0.1875
13:24:10.952,1.5625,0.0625
13:24:10.961,1.375,-0.5
13:24:10.977,0.3125,-0.625
13:24:10.984,0.0625,0.5
13:24:10.991,0.875,-0.375
13:24:11.008,0.4375,-1.1875
13:24:11.023,0.5625,0
13:24:11.024,0.625,-0.625
13:24:11.032,1,-1.1875
13:24:11.041,0.5,-1.5625
13:24:11.052,0.125,-0.9375
13:24:11.061,-0.125,-1.0625
13:24:11.072,0.0625,-1.875
13:24:11.082,0,-2.5
13:24:11.092,-0.3125,-1.6875
13:24:11.102,0.5,-2.25
13:24:11.112,-0.4375,-2.75
13:24:11.122,-0.8125,-2.25
13:24:11.131,-0.375,-1.6875
13:24:11.141,-1,-2.5
13:24:11.151,-1.6875,-2.3125
13:24:11.163,-2.875,-1.5
13:24:11.173,-2,-2.6875
13:24:11.182,-2.375,-3.3125
13:24:11.191,-3,-3.0625
13:24:11.202,-1.9375,-3.125
13:24:11.212,-2.4375,-3
13:24:11.222,-2.75,-2.9375
13:24:11.232,-1.875,-3.5
13:24:11.241,-2.125,-4.3125
13:24:11.252,-1.875,-3.3125
13:24:11.262,-1.4375,-4.5625
13:24:11.272,-2.0625,-4.5625
13:24:11.282,-1.3125,-5.1875
13:24:11.291,-2.1875,-5.1875
13:24:11.301,-1,-6
13:24:11.311,-0.9375,-6.375
13:24:11.321,-1.0625,-5.5625
13:24:11.332,-0.625,-5.875
13:24:11.341,-1.5,-5.8125
13:24:11.352,-1.3125,-6.75
13:24:11.362,-1.875,-7.6875
13:24:11.371,-1.8125,-6.25
13:24:11.382,-1.875,-6.75
13:24:11.391,-2.1875,-7.0625
13:24:11.401,-1.125,-7.4375
13:24:11.412,-1.6875,-7.5
13:24:11.421,-0.25,-8.1875
13:24:11.432,-0.4375,-9.0625
13:24:11.442,-0.3125,-7.125
13:24:11.452,0.1875,-7.125
13:24:11.462,0.5625,-6.8125
13:24:11.471,1.4375,-3
13:24:11.482,1.875,-2.375
13:24:11.491,2.125,0.375
13:24:11.502,2.3125,2
13:24:11.512,2.4375,3.5625
13:24:11.530,3.625,4.4375
13:24:11.551,2.9375,4.8125
13:24:11.554,3,6.25
13:24:11.570,4.1875,4.75
13:24:11.573,3.625,5.4375
13:24:11.577,3.625,3.625
13:24:11.584,3.6875,4.5
13:24:11.592,3.9375,3.4375
13:24:11.601,3.625,2.0625
13:24:11.612,3.5,2.75
13:24:11.621,5.1875,3.625
13:24:11.632,4.5625,2.9375
13:24:11.641,4.625,3.5625
13:24:11.651,3.5,4.5
13:24:11.662,5,3.5625
13:24:11.672,4.3125,3.75
13:24:11.682,4.125,2.8125
13:24:11.692,3.6875,3.125
13:24:11.702,4.3125,2.875
13:24:11.712,4.3125,2.25
13:24:11.722,3.875,2.25
13:24:11.731,3.4375,1.6875
13:24:11.741,3.8125,2.0625
13:24:11.752,3.625,1.9375
13:24:11.762,3,1.625
13:24:11.772,2.375,2.8125
13:24:11.782,2.3125,3.875
13:24:11.791,2.5625,3.3125
13:24:11.802,2.75,2.5625
13:24:11.812,1.6875,1.9375
13:24:11.822,1.5,2.75
13:24:11.831,2.125,2.5625
13:24:11.841,1.25,1.5
13:24:11.852,0.5,1
13:24:11.862,0.25,1.3125
13:24:11.888,0.6875,1.5625
13:24:11.890,0.8125,1.3125
13:24:11.892,0.3125,0.3125
13:24:11.902,0.75,1.3125
13:24:11.914,1.0625,0.5
13:24:11.923,1.25,-0.1875
13:24:11.932,0.5,-0.8125
13:24:11.941,1.25,-0.6875
13:24:11.952,1.0625,-0.4375
13:24:11.962,1.1875,-1.25
13:24:11.973,0.5625,-1.375
13:24:11.982,0.4375,-1.1875
13:24:11.991,0.625,-1.3125
13:24:12.002,1.125,-1.5625
13:24:12.012,1.125,-2.8125
13:24:12.021,0.75,-2.6875
13:24:12.032,0.9375,-2
13:24:12.042,0.1875,-2.5625
13:24:12.052,1.4375,-2.875
13:24:12.061,0.6875,-3.3125
13:24:12.072,0.875,-3.75
13:24:12.081,0.625,-2.75
13:24:12.092,1.125,-3.75
13:24:12.102,0.875,-4.1875
13:24:12.112,0.6875,-3.1875
13:24:12.121,0.5,-3.1875
13:24:12.132,1,-4.125
13:24:12.142,0.5625,-5.1875
13:24:12.152,0.9375,-4.5
13:24:12.162,0.4375,-5.625
13:24:12.172,0.3125,-5.375
13:24:12.182,1.3125,-5.8125
13:24:12.192,0.125,-5.0625
13:24:12.202,0.125,-4.625
13:24:12.211,0.1875,-6
13:24:12.222,0.5,-6.3125
13:24:12.231,0.75,-5.75
13:24:12.247,1.3125,-6.625
13:24:12.257,0.5,-6.0625
13:24:12.268,0.625,-5.5625
13:24:12.277,1,-5.8125
13:24:12.289,0.3125,-7.375
13:24:12.306,1.0625,-5.4375
13:24:12.308,0.0625,-7.125
13:24:12.323,-0.25,-5.5625
13:24:12.338,-0.1875,-6.5
13:24:12.340,0.6875,-7.125
13:24:12.349,0.0625,-7.625
13:24:12.358,0.25,-5.8125
13:24:12.368,0.75,-6.75
13:24:12.378,0.0625,-8
13:24:12.387,0.125,-7.25
13:24:12.396,-0.125,-7.625
13:24:12.406,-0.0625,-7.5625
13:24:12.417,0.375,-8.0625
13:24:12.427,0.25,-9
13:24:12.437,-0.25,-8.6875
13:24:12.448,-0.6875,-7.75
13:24:12.456,-0.5,-9.375
13:24:12.466,-1.3125,-9.8125
13:24:12.477,-1.375,-8.5625
13:24:12.486,-1.4375,-9.5625
13:24:12.496,-2.25,-9.3125
13:24:12.507,-0.8125,-9.5
13:24:12.517,-0.6875,-10.4375
13:24:12.528,-1.4375,-9.3125
13:24:12.538,-1.25,-8.9375
13:24:12.547,-0.4375,-7.5625
13:24:12.556,-0.375,-4.625
13:24:12.566,0.375,-2.25
13:24:12.576,-0.125,-0.25
13:24:12.587,-0.3125,4
13:24:12.597,-0.625,3.5
13:24:12.606,-0.5,4.1875
13:24:12.617,-0.125,4.4375
13:24:12.628,-0.1875,3.5625
13:24:12.637,0.3125,4.25
13:24:12.647,-0.25,3.1875
13:24:12.663,-0.4375,3.5625
13:24:12.667,-0.6875,2.9375
13:24:12.677,-2,2.9375
13:24:12.687,-2.5,2.625
13:24:12.696,-2.3125,0.875
13:24:12.706,-3.5,1.8125
13:24:12.718,-5.375,0.25
13:24:12.727,-8.3125,0.75
13:24:12.737,-10.4375,-2.0625
13:24:12.746,-13.5626,-3.4375
13:24:12.757,-16.5626,-2.375
13:24:12.767,-20.0626,-4.125
13:24:12.777,-23.8751,-4.125
13:24:12.786,-27.6251,-4.8125
13:24:12.796,-32.8126,-6.875
13:24:12.810,-39.4377,-6.875
13:24:12.817,-45.9377,-9.4375
13:24:12.837,-50.9377,-11.6875
13:24:12.844,-54.0627,-10.9375
13:24:12.858,-57.0002,-11.8125
13:24:12.861,-58.7502,-11.8125
13:24:12.869,-59.4377,-10.9375
13:24:12.877,-58.6252,-12.5625
13:24:12.886,-58.0002,-11.5
13:24:12.898,-55.6877,-9.9375
13:24:12.907,-55.0627,-10.5625
13:24:12.917,-54.2502,-8.9375
13:24:12.926,-54.1877,-10.125
13:24:12.937,-53.8752,-10.1875
13:24:12.947,-53.5627,-10.25
13:24:12.957,-54.1877,-10.125
13:24:12.968,-52.3752,-10.125
13:24:12.977,-53.1252,-10.125
13:24:12.988,-51.2502,-9.125
13:24:12.997,-51.0002,-10.8125
13:24:13.007,-51.9377,-11.1875
13:24:13.017,-51.6877,-11.3125
13:24:13.027,-49.9377,-11.4375
13:24:13.037,-50.3752,-10.75
13:24:13.046,-49.5002,-11.1875
13:24:13.057,-50.0627,-12.0625
13:24:13.068,-48.8752,-11.625
13:24:13.078,-49.0627,-11.625
13:24:13.086,-47.4377,-11.9375
13:24:13.097,-46.3127,-12.25
13:24:13.107,-44.1877,-11.6875
13:24:13.116,-43.6877,-11.375
13:24:13.126,-43.3127,-11.4375
13:24:13.136,-43.5627,-12.25
13:24:13.170,-44.5627,-10.625
13:24:13.170,-44.8752,-12.625
13:24:13.173,-46.0002,-11.75
13:24:13.178,-45.6252,-13.5626
13:24:13.187,-45.6877,-13.4376
13:24:13.196,-44.9377,-15.4376
13:24:13.207,-44.6252,-15.2501
13:24:13.216,-43.1252,-16.7501
13:24:13.226,-42.6877,-15.5001
13:24:13.236,-40.4377,-16.3126
13:24:13.246,-40.3752,-15.4376
13:24:13.259,-38.7501,-16.7501
13:24:13.266,-38.6876,-15.8751
13:24:13.277,-37.7501,-16.6251
13:24:13.286,-37.4376,-16.2501
13:24:13.297,-36.9376,-17.0626
13:24:13.307,-36.1876,-16.6876
13:24:13.316,-35.8126,-17.3126
13:24:13.326,-36.5001,-18.9376
13:24:13.336,-35.8126,-19.3126
13:24:13.348,-35.1251,-18.4376
13:24:13.357,-35.0001,-18.3751
13:24:13.367,-35.4376,-18.5626
13:24:13.377,-36.8751,-19.3126
13:24:13.386,-37.2501,-20.1876
13:24:13.397,-39.1877,-20.5001
13:24:13.413,-39.9377,-21.3751
13:24:13.417,-42.0002,-21.6876
13:24:13.427,-41.6877,-23.1251
13:24:13.438,-41.5002,-22.1251
13:24:13.456,-39.5002,-20.9376
13:24:13.459,-37.2501,-20.3751
13:24:13.490,-34.1251,-18.5626
13:24:13.492,-31.8126,-17.8126
13:24:13.494,-28.6251,-17.1251
13:24:13.497,-28.0001,-16.4376
13:24:13.530,-26.7501,-16.5626
13:24:13.531,-27.4376,-16.8126
13:24:13.533,-27.0626,-16.3126
13:24:13.538,-26.6251,-16.8751
13:24:13.565,-26.7501,-16.7501
13:24:13.567,-25.5001,-17.2501
13:24:13.569,-25.8126,-18.0001
13:24:13.606,-24.5626,-16.3751
13:24:13.607,-24.4376,-18.0001
13:24:13.609,-23.8126,-17.6876
13:24:13.681,-22.6251,-18.0626
13:24:13.682,-22.9376,-17.1876
13:24:13.685,-22.1876,-16.6876
13:24:13.711,-21.9376,-14.5001
13:24:13.747,-20.6876,-12.9375
13:24:13.747,-19.8126,-10.6875
13:24:13.747,-18.0001,-8.3125
13:24:13.748,-17.8751,-5.375
13:24:13.750,-16.4376,-3.6875
13:24:13.756,-16.4376,-2.6875
13:24:13.757,-16.0626,-1.5625
13:24:13.768,-16.1251,-0.375
13:24:13.771,-15.6876,-0.6875
13:24:13.805,-15.5626,-1.1875
13:24:13.808,-14.8751,-1.1875
13:24:13.809,-16.0001,-1.3125
13:24:13.817,-15.5001,-0.1875
13:24:13.821,-15.4376,-2
13:24:13.853,-14.6251,-1.125
13:24:13.856,-12.5625,0.875
13:24:13.858,-12.1875,0.3125
13:24:13.862,-11.875,0.3125
13:24:13.894,-11.75,0.8125
13:24:13.896,-9.625,3.3125
13:24:13.899,-9.5,2.625
13:24:13.904,-10.1875,2.75
13:24:13.936,-9.6875,3.6875
13:24:13.938,-9.875,3.0625
13:24:13.941,-9.25,2.4375
13:24:13.971,-10.4375,2.375
13:24:13.972,-10.25,2.5625
13:24:13.974,-9.9375,1.6875
13:24:13.980,-10.3125,2.75
13:24:13.983,-10,2.25
13:24:14.019,-10.5625,1.8125
13:24:14.021,-10.375,2.625
13:24:14.029,-10.0625,2.125
13:24:14.030,-10,0.875
13:24:14.033,-11.1875,2
13:24:14.070,-11.3125,0.8125
13:24:14.072,-11.5625,-0.75
13:24:14.076,-11.1875,0.25
13:24:14.100,-11.5,-1.25
13:24:14.101,-11.1875,-0.75
13:24:14.103,-10.4375,-0.375
13:24:14.109,-11.0625,-1.3125
13:24:14.111,-11.875,-0.5625
13:24:14.145,-11.8125,-1.875
13:24:14.147,-12.375,-2.25
13:24:14.162,-12.0625,-2.25
13:24:14.164,-10.9375,-2.6875
13:24:14.200,-11.4375,-2.8125
13:24:14.239,-11.6875,-1.8125
13:24:14.239,-11.25,-3.125
13:24:14.239,-11.4375,-4.0625
13:24:14.242,-10.75,-2.5
13:24:14.243,-10.5625,-4.3125
13:24:14.272,-10.6875,-3.4375
13:24:14.272,-10.25,-3.75
13:24:14.274,-9.1875,-3.4375
13:24:14.276,-9.0625,-4.1875
13:24:14.281,-7.875,-4.5
13:24:14.282,-7.9375,-4.125
13:24:14.323,-8.5,-4.8125
13:24:14.325,-9.0625,-4.4375
13:24:14.328,-8.5,-6.375
13:24:14.330,-9.1875,-6.5625
13:24:14.365,-9.0625,-6.375
13:24:14.367,-9.9375,-7.5625
13:24:14.369,-10.5,-8.3125
13:24:14.372,-10.9375,-8.9375
13:24:14.376,-11.9375,-9.75
13:24:14.413,-11.75,-10.125
13:24:14.416,-12.6875,-9.9375
13:24:14.418,-12.75,-9.625
13:24:14.420,-13.0625,-10.75
13:24:14.448,-13.4376,-11
13:24:14.451,-14.4376,-12.75
13:24:14.454,-15.1251,-12.375
13:24:14.457,-16.8751,-14.0626
13:24:14.473,-18.5001,-13.9376
13:24:14.476,-19.0001,-15.6876
13:24:14.487,-20.4376,-16.2501
13:24:14.497,-21.8126,-17.9376
13:24:14.507,-21.7501,-17.5001
13:24:14.518,-21.7501,-17.8751
13:24:14.530,-20.9376,-18.5001
13:24:14.536,-19.6251,-16.5001
13:24:14.547,-18.3751,-17.2501
13:24:14.556,-16.5626,-16.2501
13:24:14.566,-14.0626,-14.5001
13:24:14.576,-12,-14.6251
13:24:14.586,-10.0625,-12.75
13:24:14.597,-8.125,-13.2501
13:24:14.608,-8.5,-11.4375
13:24:14.617,-7.4375,-12.5
13:24:14.627,-7,-12.0625
13:24:14.637,-6.8125,-12.875
13:24:14.646,-8.125,-12.3125
13:24:14.656,-7.9375,-14.1251
13:24:14.666,-9.4375,-13.6251
13:24:14.677,-8.625,-15.6876
13:24:14.687,-8.3125,-16.1251
13:24:14.698,-7.6875,-14.5001
13:24:14.707,-8,-15.6876
13:24:14.716,-8.1875,-14.3126
13:24:14.727,-8.3125,-15.5001
13:24:14.737,-8.3125,-15.3126
13:24:14.746,-7.8125,-15.2501
13:24:14.757,-7.9375,-14.8751
13:24:14.766,-7.625,-14.6251
13:24:14.778,-7.5625,-13.6876
13:24:14.790,-6.875,-12.75
13:24:14.797,-5.625,-10.625
13:24:14.808,-4.6875,-7.125
13:24:14.817,-4.3125,-3.6875
13:24:14.827,-3.8125,-2.0625
13:24:14.838,-3.0625,1.625
13:24:14.848,-2.875,1.75
13:24:14.858,-2.1875,4.0625
13:24:14.867,-2.25,2.625
13:24:14.875,-2.0625,3.875
13:24:14.886,-2.25,3.4375
13:24:14.897,-1.8125,4.3125
13:24:14.905,-1,3.4375
13:24:14.917,-0.5,4
13:24:14.927,0,5.25
13:24:14.937,0.9375,4.25
13:24:14.947,1.25,6.0625
13:24:14.957,0.875,5.125
13:24:14.965,1.3125,6.0625
13:24:14.977,2.0625,6.5625
13:24:14.995,2.625,6.1875
13:24:14.996,2.125,7.1875
13:24:15.012,2.875,6.4375
13:24:15.020,2.0625,6.625
13:24:15.028,2.1875,6.4375
13:24:15.037,2.9375,5.8125
13:24:15.046,1.875,6.25
13:24:15.055,2.375,6.0625
13:24:15.066,2.1875,6.125
13:24:15.077,1.125,5.8125
13:24:15.086,1.25,6.5625
13:24:15.095,1,5.75
13:24:15.107,0.25,5.3125
13:24:15.116,-0.25,5.25
13:24:15.128,-0.75,4.8125
13:24:15.136,-1.125,3.8125
13:24:15.146,-2.1875,3
13:24:15.157,-2.5625,4.5
13:24:15.167,-2.875,4.625
13:24:15.175,-2.875,3.1875
13:24:15.186,-3.375,2.9375
13:24:15.196,-3.75,3.5
13:24:15.206,-2.9375,3.125
13:24:15.217,-3.5,2.5625
13:24:15.228,-3.6875,2.125
13:24:15.236,-4,2.875
13:24:15.247,-4.25,2.9375
13:24:15.256,-3.625,1.5625
13:24:15.267,-3.5625,1.3125
13:24:15.280,-3.25,2.125
13:24:15.285,-3.75,0.8125
13:24:15.296,-4.4375,0.4375
13:24:15.306,-3.5,0.4375
13:24:15.317,-4.1875,-0.3125
13:24:15.328,-3.9375,-0.125
13:24:15.337,-3.1875,-1.25
13:24:15.346,-3.4375,-1.375
13:24:15.355,-2.875,-0.75
13:24:15.367,-2.875,-1.9375
13:24:15.377,-3,-1
13:24:15.387,-1.4375,-1.625
13:24:15.396,-1.625,-2.625
13:24:15.407,-1.75,-2.75
13:24:15.419,-1,-1.8125
13:24:15.426,-1.5625,-3.625
13:24:15.447,-1.375,-2.625
13:24:15.453,-0.875,-2.9375
13:24:15.468,-1.125,-3.1875
13:24:15.471,-2.0625,-3
13:24:15.479,-1.1875,-4.5625
13:24:15.487,-2.0625,-3.3125
13:24:15.497,-2.4375,-4.875
13:24:15.508,-2.9375,-3.875
13:24:15.517,-3.0625,-5.4375
13:24:15.527,-3.625,-5.3125
13:24:15.537,-4.1875,-6.3125
13:24:15.547,-5.6875,-7.25
13:24:15.557,-5.9375,-7.3125
13:24:15.565,-6.5,-8
13:24:15.577,-7.5625,-8.4375
13:24:15.585,-7.0625,-9.5625
13:24:15.598,-7.3125,-8.5
13:24:15.605,-7.25,-10.125
13:24:15.619,-6.5625,-8.9375
13:24:15.627,-7.375,-10
13:24:15.637,-6.4375,-10.0625
13:24:15.646,-6.75,-10.5
13:24:15.655,-6.8125,-10
13:24:15.666,-7,-11.1875
13:24:15.675,-5.8125,-11.125
13:24:15.688,-5.75,-10.25
13:24:15.697,-5.1875,-10.625
13:24:15.727,-5.3125,-10.5
13:24:15.729,-4.9375,-10.1875
13:24:15.732,-4.625,-11.3125
13:24:15.737,-5.5625,-11.125
13:24:15.746,-5.6875,-11.3125
13:24:15.756,-6.375,-11.4375
13:24:15.767,-5.875,-12.5625
13:24:15.779,-6,-12.75
13:24:15.786,-5.75,-12.75
13:24:15.795,-5.4375,-12.625
13:24:15.807,-5.1875,-12.625
13:24:15.815,-5.1875,-12.0625
13:24:15.827,-5.1875,-11.75
13:24:15.836,-4.625,-9.75
13:24:15.846,-3,-7
13:24:15.855,-1.875,-4.375
13:24:15.868,-0.6875,-1.5
13:24:15.875,-0.9375,0.1875
13:24:15.886,-0.125,1.875
13:24:15.898,-0.9375,2.875
13:24:15.906,-0.125,2.8125
13:24:15.916,-0.4375,3.6875
13:24:15.928,-0.4375,3.6875
13:24:15.936,-0.6875,3.1875
13:24:15.947,0,3.0625
13:24:15.959,-1.0625,2.6875
13:24:15.967,-0.5,3.125
13:24:15.976,-1.3125,3.25
13:24:15.985,-1.125,3.125
13:24:15.996,0.0625,3.375
13:24:16.006,-0.125,5.25
13:24:16.015,0.625,4.5625
13:24:16.030,0.625,5.5625
13:24:16.037,1.5625,5.375
13:24:16.045,1.8125,5.5
13:24:16.055,2.75,6.5625
13:24:16.068,3.125,5.625
13:24:16.077,3.25,6.3125
13:24:16.086,3.9375,6.0625
13:24:16.096,2.9375,6.375
13:24:16.106,2.625,7.125
13:24:16.117,2.4375,5.9375
13:24:16.126,2,6
13:24:16.135,2.3125,6.125
13:24:16.146,2.625,5.8125
13:24:16.157,2.125,7.3125
13:24:16.165,2.0625,7.5
13:24:16.176,2.375,5.875
13:24:16.186,1.9375,6.9375
13:24:16.197,1.625,6.8125
13:24:16.205,2.125,5.8125
13:24:16.215,1.1875,5
13:24:16.228,0.0625,4.1875
13:24:16.236,0.5,5.125
13:24:16.245,0.0625,3.5
13:24:16.255,0,4.25
13:24:16.268,1,3.875
13:24:16.276,-0.5,3.625
13:24:16.296,-1.25,3.1875
13:24:16.299,-1.5,2.25
13:24:16.314,-2.0625,2.6875
13:24:16.320,-1.875,1.3125
13:24:16.337,-1.5,1.0625
13:24:16.342,-1.8125,1
13:24:16.350,-2.375,-0.4375
13:24:16.361,-3,0.375
13:24:16.372,-2.75,-1.125
13:24:16.381,-4.0625,-1.9375
13:24:16.392,-4.5,-1.5625
13:24:16.405,-4,-1.6875
13:24:16.412,-4.5625,-2.625
13:24:16.420,-5.0625,-3.5625
13:24:16.432,-5.3125,-2.5
13:24:16.440,-5.5625,-3.75
13:24:16.452,-4.8125,-4.1875
13:24:16.460,-4.5625,-4.25
13:24:16.472,-4.5,-4.25
13:24:16.480,-3.9375,-3.625
13:24:16.492,-3.25,-3.8125
13:24:16.500,-3.25,-3.4375
13:24:16.511,-2.8125,-4.625
13:24:16.520,-2.875,-4.875
13:24:16.532,-3.1875,-3.625
13:24:16.540,-3.1875,-5.25
13:24:16.551,-3.25,-4.5
13:24:16.560,-3.125,-6.0625
13:24:16.571,-4.4375,-5.375
13:24:16.580,-4.3125,-7.125
13:24:16.591,-5.4375,-6.9375
13:24:16.600,-5,-8.5625
13:24:16.612,-5.6875,-7.8125
13:24:16.620,-5.625,-8.9375
13:24:16.631,-6.3125,-7.75
13:24:16.640,-5.9375,-8.875
13:24:16.653,-6.4375,-8.0625
13:24:16.660,-6.5625,-10.6875
13:24:16.672,-6.875,-9.75
13:24:16.680,-6.5625,-11.1875
13:24:16.692,-7.75,-10.125
13:24:16.700,-7.75,-12
13:24:16.712,-8.4375,-11.125
13:24:16.720,-8.5625,-12.6875
13:24:16.731,-8.5,-11.4375
13:24:16.740,-8.75,-13.4376
13:24:16.755,-8.875,-12.1875
13:24:16.771,-8.0625,-13.3126
13:24:16.773,-8.625,-12.625
13:24:16.788,-8.5625,-14.6251
13:24:16.791,-8.1875,-13.5001
13:24:16.800,-7.75,-14.7501
13:24:16.810,-7.1875,-13.2501
13:24:16.820,-6.75,-15.0001
13:24:16.830,-6.75,-12.9375
13:24:16.840,-5.6875,-15.5626
13:24:16.850,-5.5,-13.8751
13:24:16.861,-5,-13.8751
13:24:16.870,-5.1875,-12.8125
13:24:16.882,-4.625,-13.1251
13:24:16.890,-4.4375,-11.25
13:24:16.900,-3.1875,-9.875
13:24:16.911,-3.1875,-6.0625
13:24:16.920,-2.125,-4.625
13:24:16.932,-1.375,-3.4375
13:24:16.940,-0.3125,0.0625
13:24:16.952,-0.125,0.4375
13:24:16.960,-0.125,1.9375
13:24:16.970,0.5625,1.6875
13:24:16.982,0.625,2.125
13:24:17.006,0.5625,1.9375
13:24:17.009,-0.75,1.6875
13:24:17.014,-0.125,0.8125
13:24:17.021,-0.375,1.3125
13:24:17.030,-0.25,1
13:24:17.041,-1.1875,0.375
13:24:17.050,-0.6875,1
13:24:17.060,-1.3125,0.625
13:24:17.070,-0.9375,1.75
13:24:17.081,-0.9375,1.3125
13:24:17.090,-0.4375,2.375
13:24:17.101,-0.0625,0.875
13:24:17.110,-0.25,2.25
13:24:17.120,-0.3125,0.6875
13:24:17.130,-1.1875,1.1875
13:24:17.140,-0.5625,1.3125
13:24:17.150,0.125,0.1875
13:24:17.160,-0.0625,0.4375
13:24:17.171,0.3125,1.875
13:24:17.181,1,1.75
13:24:17.190,1.25,0.75
13:24:17.200,2.375,2.875
13:24:17.210,2.9375,2.1875
13:24:17.222,2.4375,3.125
13:24:17.230,3.625,3.25
13:24:17.240,2.8125,2.3125
13:24:17.250,2.8125,3.75
13:24:17.260,3,3.0625
13:24:17.270,2.6875,2.375
13:24:17.281,3.1875,3.8125
13:24:17.291,4.0625,3.1875
13:24:17.300,2.9375,3.25
13:24:17.310,3.0625,4.5
13:24:17.321,3.4375,3
13:24:17.330,3.4375,1.875
13:24:17.340,3.125,2.1875
13:24:17.352,2.4375,2
13:24:17.362,2.625,1.0625
13:24:17.370,1.5625,0.25
13:24:17.382,2,1.25
13:24:17.390,1.5625,0.4375
13:24:17.400,0.9375,1.1875
13:24:17.411,0.25,0.375
13:24:17.420,-0.4375,0.6875
13:24:17.430,-0.125,0.0625
13:24:17.440,-0.9375,-0.5
13:24:17.450,-1.25,-0.5625
13:24:17.461,-1.625,-0.5625
13:24:17.472,-1.25,-1.0625
13:24:17.480,-2.375,-2.25
13:24:17.490,-2.8125,-2.375
13:24:17.501,-3,-1.8125
13:24:17.510,-2.625,-2.5
13:24:17.523,-3.3125,-3.4375
13:24:17.533,-4.125,-2.3125
13:24:17.543,-3.5,-2.875
13:24:17.550,-4,-4
13:24:17.561,-4.875,-4.25
13:24:17.571,-5.625,-4.1875
13:24:17.581,-4.8125,-5.375
13:24:17.590,-5.75,-6.0625
13:24:17.613,-5.75,-5.4375
13:24:17.615,-5.375,-6.125
13:24:17.623,-5.375,-6.5
13:24:17.632,-5.5,-7.6875
13:24:17.647,-5,-6.5
13:24:17.654,-4.6875,-8
13:24:17.660,-4.125,-6.3125
13:24:17.671,-4.1875,-7.9375
13:24:17.680,-3.375,-7.125
13:24:17.690,-3,-7.4375
13:24:17.701,-2.25,-7.375
13:24:17.711,-1.5625,-6.1875
13:24:17.743,-0.8125,-7.75
13:24:17.745,-0.75,-6.8125
13:24:17.748,-0.5625,-8.6875
13:24:17.750,-1,-8.875
13:24:17.779,-1.25,-8.6875
13:24:17.782,-2.3125,-8.8125
13:24:17.784,-2.1875,-10.1875
13:24:17.790,-3.6875,-11.5
13:24:17.823,-3.6875,-10.75
13:24:17.824,-3.625,-11.6875
13:24:17.827,-3.6875,-11.3125
13:24:17.859,-4.875,-12
13:24:17.859,-5.0625,-11.125
13:24:17.862,-4.3125,-9.4375
13:24:17.870,-3.5625,-7.6875
13:24:17.896,-2.6875,-5.5625
13:24:17.898,-2.6875,-3
13:24:17.900,-1.5625,-2.0625
13:24:17.933,-0.8125,-0.125
13:24:17.933,-0.8125,0.5625
13:24:17.936,0.3125,1.875
13:24:17.944,0.9375,1.9375
13:24:17.944,0.125,1.875
13:24:17.954,0.4375,1.9375
13:24:17.985,0.25,1
13:24:17.989,0.75,1.375
13:24:17.990,0.3125,1.75
13:24:17.993,0.625,1.6875
13:24:18.030,0.3125,1.375
13:24:18.031,0.25,2.5625
13:24:18.033,1.5,1.8125
13:24:18.039,1.375,3.0625
13:24:18.040,1,3.0625
13:24:18.087,1.25,3.375
13:24:18.087,1.0625,2.5
13:24:18.118,0.0625,1.8125
13:24:18.120,0,2.5
13:24:18.121,-0.25,0.9375
13:24:18.121,-0.25,0.1875
13:24:18.125,-0.1875,-0.25
13:24:18.130,-0.1875,0.875
13:24:18.133,0.25,0.1875
13:24:18.161,-0.625,-0.5625
13:24:18.164,-1.75,-1.8125
13:24:18.167,-1.9375,-0.6875
13:24:18.172,-1.875,-1.8125
13:24:18.199,-2.3125,-2.1875
13:24:18.202,-2.0625,-1.25
13:24:18.204,-1.625,-0.8125
13:24:18.211,-0.9375,0
13:24:18.239,-0.6875,-0.875
13:24:18.240,0.0625,-1
13:24:18.244,0.4375,-0.5625
13:24:18.278,0.5625,-0.5625
13:24:18.280,0.1875,0.625
13:24:18.283,1.1875,0.125
13:24:18.298,1.3125,0.875
13:24:18.299,1.3125,-0.5
13:24:18.302,1.8125,0.75
13:24:18.329,1.625,0.25
13:24:18.333,1.875,0.125
13:24:18.334,1.1875,-0.25
13:24:18.340,1.4375,0.375
13:24:18.371,2.25,0
13:24:18.373,2.0625,-0.5
13:24:18.405,1.75,-0.6875
13:24:18.406,1.25,-0.4375
13:24:18.408,0.6875,-1.5
13:24:18.409,-0.3125,-1.375
13:24:18.414,-0.3125,-0.9375
13:24:18.422,-0.125,-1.5
13:24:18.450,-0.625,-1.875
13:24:18.453,-1,-2.1875
13:24:18.454,-1,0.0625
13:24:18.462,-0.5625,-0.625
13:24:18.493,-0.625,-1.8125
13:24:18.494,-1.125,-1.75
13:24:18.497,-1.9375,-2.3125
13:24:18.502,-1.375,-1.8125
13:24:18.536,-1.875,-2.125
13:24:18.541,-1.5625,-2
13:24:18.541,-1.375,-1.75
13:24:18.547,-0.625,-1.4375
13:24:18.558,-1.125,-2.25
13:24:18.562,-1.9375,-1.625
13:24:18.590,-2.3125,-1.1875
13:24:18.593,-2.125,-1.5625
13:24:18.594,-2.3125,-1.9375
13:24:18.600,-2.375,-2.75
13:24:18.637,-3.0625,-1.9375
13:24:18.640,-3.4375,-3.5
13:24:18.642,0.3125,0
13:24:18.669,-0.25,-2.0625
13:24:18.670,0.3125,-1.5625
13:24:18.674,0.5,-1.0625
13:24:18.678,0.4375,-1.5
13:24:18.682,1.125,0.5625
13:24:18.715,1.75,-0.4375
13:24:18.717,2.4375,0.5
13:24:18.720,3.125,0.875
13:24:18.723,2.625,0.6875
13:24:18.750,3.125,1.6875
13:24:18.753,3.25,0.125
13:24:18.754,2.9375,0.5625
13:24:18.760,2.4375,0.25
13:24:18.771,1.875,0.375
13:24:18.782,2.8125,-0.1875
13:24:18.792,3.75,0.1875
13:24:18.802,5.4375,0.75
13:24:18.810,6.5,2
13:24:18.820,9.625,2.3125
13:24:18.830,11.875,3.4375
13:24:18.841,13.125,4.3125
13:24:18.850,14.2501,6
13:24:18.860,16.1251,4.8125
13:24:18.870,16.1251,3.375
13:24:18.880,16.5626,4.1875
13:24:18.890,20.3126,4.125
13:24:18.900,21.6876,4.0625
13:24:18.911,25.7501,6.8125
13:24:18.932,28.8751,9.75
13:24:18.934,31.8751,13.1876
13:24:18.949,33.6251,14.3126
13:24:18.951,34.1876,18.0001
13:24:18.967,36.0001,21.2501
13:24:18.972,37.5001,23.8126
13:24:18.980,39.0001,26.8751
13:24:18.990,41.0627,29.5001
13:24:19.000,44.1252,31.8751
13:24:19.011,46.5627,33.0626
13:24:19.020,47.3752,34.0626
13:24:19.031,48.4377,35.9376
13:24:19.040,48.8752,35.0001
13:24:19.050,48.8752,33.9376
13:24:19.060,48.3752,34.0626
13:24:19.070,48.7502,35.1251
13:24:19.080,49.0627,34.3126
13:24:19.090,48.6877,33.7501
13:24:19.100,47.6877,34.0001
13:24:19.110,46.8752,35.3126
13:24:19.120,46.6877,35.0626
13:24:19.131,45.8752,34.4376
13:24:19.140,44.8127,33.0626
13:24:19.150,43.5002,34.0626
13:24:19.160,42.5627,32.5001
13:24:19.170,41.6252,31.6251
13:24:19.181,40.7502,31.5001
13:24:19.191,40.1877,30.9376
13:24:19.200,39.9377,29.5001
13:24:19.210,38.1876,28.9376
13:24:19.220,38.1251,30.0001
13:24:19.230,37.4376,28.1876
13:24:19.240,36.5001,27.3751
13:24:19.250,35.7501,28.3126
13:24:19.260,35.3126,27.3751
13:24:19.271,35.7501,25.6251
13:24:19.280,35.4376,25.0001
13:24:19.296,34.3126,23.5626
13:24:19.301,34.0001,23.6251
13:24:19.311,34.0626,22.6251
13:24:19.321,32.8126,22.8126
13:24:19.330,33.9376,21.5626
13:24:19.340,33.0001,20.6876
13:24:19.351,31.5626,19.9376
13:24:19.369,31.6876,20.6251
13:24:19.377,30.8126,19.8751
13:24:19.393,30.4376,18.6251
13:24:19.394,29.6876,18.8126
13:24:19.409,28.9376,18.4376
13:24:19.411,29.3751,17.3751
13:24:19.420,28.4376,16.5626
13:24:19.430,27.6876,17.1251
13:24:19.440,27.6251,15.0626
13:24:19.450,26.9376,14.3751
13:24:19.460,26.5001,14.4376
13:24:19.470,25.5626,13.3126
13:24:19.481,26.0626,12.8125
13:24:19.492,24.6876,11.8125
13:24:19.501,24.6876,12.875
13:24:19.510,24.6876,11.6875
13:24:19.520,23.4376,10.25
13:24:19.530,23.0626,10.5
13:24:19.540,22.2501,10.3125
13:24:19.567,22.1876,10.8125
13:24:19.569,21.9376,10.0625
13:24:19.572,21.5001,9.4375
13:24:19.580,21.4376,8.6875
13:24:19.591,20.6251,9.1875
13:24:19.600,20.5626,7.375
13:24:19.612,19.8751,5.625
13:24:19.620,19.0626,6.75
13:24:19.631,19.6251,6.125
13:24:19.642,19.3751,5.875
13:24:19.650,18.6251,4.125
13:24:19.660,18.5001,4.625
13:24:19.671,18.5626,4.125
13:24:19.680,17.3126,3.0625
13:24:19.690,16.6876,4.5625
13:24:19.701,17.1876,4.875
13:24:19.711,16.7501,3.1875
13:24:19.720,15.5001,1.875
13:24:19.731,15.0001,2.625
13:24:19.741,15.1876,1.5625
13:24:19.751,15.1251,0.8125
13:24:19.760,14.8126,0.4375
13:24:19.771,14.4376,0.6875
13:24:19.780,14.5626,-0.9375
13:24:19.790,13.3126,-2.5
13:24:19.800,14.1251,-0.875
13:24:19.810,14.5001,-2.125
13:24:19.821,14.0626,-2.9375
13:24:19.831,13.4376,-2.5625
13:24:19.840,13.2501,-3.75
13:24:19.850,13.1251,-4.3125
13:24:19.861,12.75,-4.8125
13:24:19.870,12.4375,-3.875
13:24:19.880,13,-4.5
13:24:19.890,12.25,-5.3125
13:24:19.900,12.25,-6
13:24:19.910,11.75,-5.25
13:24:19.922,12.1875,-5.375
13:24:19.931,12.0625,-5.875
13:24:19.940,11.125,-6.0625
13:24:19.951,11.6875,-5.125
13:24:19.963,12.3125,-5.375
13:24:19.972,12.125,-1.6875
13:24:19.983,13.3126,-0.375
13:24:19.990,13,0.6875
13:24:20.000,14.1876,4.1875
13:24:20.010,13.8751,5
13:24:20.020,13.6876,5.625
13:24:20.030,14.8126,6.25
13:24:20.045,14.4376,6.125
13:24:20.050,13.3751,7.375
13:24:20.061,13.9376,6.5
13:24:20.070,14.1876,5.625
13:24:20.080,14.0001,6.125
13:24:20.090,13.1876,5.1875
13:24:20.101,13,6.0625
13:24:20.111,13.5626,5.3125
13:24:20.122,13.2501,6.4375
13:24:20.132,13.3126,6.75
13:24:20.140,13,5.875
13:24:20.150,13.1876,6.375
13:24:20.160,13.1876,7.5
13:24:20.170,13.5626,6.25
13:24:20.181,12.875,6.0625
13:24:20.190,12.375,5.5625
13:24:20.200,12.8125,5.625
13:24:20.210,12.875,4.875
13:24:20.220,12.0625,4.125
13:24:20.235,11.1875,4.1875
13:24:20.250,11.0625,3.5625
13:24:20.252,11,2.6875
13:24:20.261,10.625,4.125
13:24:20.271,10.5625,3.3125
13:24:20.280,9.875,3.4375
13:24:20.290,9,3
13:24:20.300,9.375,3.5625
13:24:20.337,9.625,2.625
13:24:20.339,9.625,2.1875
13:24:20.340,8.8125,1.625
13:24:20.347,8.1875,2.6875
13:24:20.356,9,1.875
13:24:20.365,8,0.0625
13:24:20.375,7.875,1.125
13:24:20.386,7.875,1.1875
13:24:20.395,8.125,0.6875
13:24:20.405,7.3125,-0.5
13:24:20.418,6.875,-0.6875
13:24:20.428,6.3125,-0.125
13:24:20.435,6.4375,0.5
13:24:20.445,6.875,-1.1875
13:24:20.455,6.25,-1.4375
13:24:20.465,5.75,-1.6875
13:24:20.476,5.8125,-1
13:24:20.486,4.8125,-0.6875
13:24:20.495,4,-0.625
13:24:20.506,4.0625,-2.8125
13:24:20.517,3.875,-2.4375
13:24:20.525,3.875,-2.375
13:24:20.535,3.625,-3
13:24:20.545,3.125,-2.8125
13:24:20.556,3.0625,-2.8125
13:24:20.565,3.375,-4.125
13:24:20.575,2.75,-4.875
13:24:20.586,3.125,-2.25
13:24:20.597,3.3125,-3.625
13:24:20.605,2.25,-4.1875
13:24:20.615,1.9375,-3.625
13:24:20.625,2.5,-4.6875
13:24:20.635,1.5625,-5.9375
13:24:20.645,2.0625,-4.125
13:24:20.655,2.1875,-5.1875
13:24:20.676,2.1875,-4.5625
13:24:20.679,1.375,-5.5625
13:24:20.695,1.4375,-5.5
13:24:20.696,1.0625,-5.375
13:24:20.705,1.125,-5.8125
13:24:20.716,1,-4.75
13:24:20.725,1.5625,-5.75
13:24:20.736,1.4375,-6
13:24:20.746,0.4375,-6.4375
13:24:20.756,0.3125,-6.125
13:24:20.765,1.125,-7.625
13:24:20.775,0.3125,-8.4375
13:24:20.785,0.375,-6.6875
13:24:20.797,0.3125,-7.6875
13:24:20.809,-0.0625,-7
13:24:20.815,0.6875,-7.4375
13:24:20.846,0.0625,-8.3125
13:24:20.849,0,-7.3125
13:24:20.852,0.0625,-7.1875
13:24:20.856,-0.0625,-8.1875
13:24:20.866,-0.5625,-7.625
13:24:20.876,-0.8125,-7.3125
13:24:20.887,-0.1875,-8.25
13:24:20.895,-1.5,-6.75
13:24:20.905,-1.125,-7.75
13:24:20.915,-1.375,-8.9375
13:24:20.925,-1.25,-8.1875
13:24:20.935,-1,-9.5625
13:24:20.946,-0.9375,-10.5
13:24:20.955,-1.25,-8.8125
13:24:20.967,-0.875,-10.125
13:24:20.975,-0.4375,-8.4375
13:24:20.986,0,-8
13:24:20.995,0.6875,-6.8125
13:24:21.005,1.5625,-3.6875
13:24:21.015,2.625,-2.0625
13:24:21.026,2.8125,0.0625
13:24:21.036,3.9375,1.3125
13:24:21.048,3.4375,2.8125
13:24:21.055,3.8125,3
13:24:21.065,4.3125,2.375
13:24:21.076,3.9375,3.25
13:24:21.089,4.25,2
13:24:21.096,4.125,2.6875
13:24:21.106,4.75,0.8125
13:24:21.116,4.375,2
13:24:21.125,5.125,0.875
13:24:21.136,4.875,2.1875
13:24:21.146,5.625,1.4375
13:24:21.156,5.3125,0.875
13:24:21.168,5.6875,1.6875
13:24:21.179,6.3125,1.5625
13:24:21.185,5.5625,2.3125
13:24:21.195,5.1875,2.6875
13:24:21.206,5.5625,2
13:24:21.217,5.125,1
13:24:21.227,5.875,1.625
13:24:21.235,5.1875,0.9375
13:24:21.245,4.9375,0.625
13:24:21.255,4.6875,0.4375
13:24:21.265,4.875,0.875
13:24:21.275,4.5,0
13:24:21.287,4.5,-0.625
13:24:21.295,3.6875,1.0625
13:24:21.305,3.6875,0.0625
13:24:21.316,4,-1.125
13:24:21.325,4.125,0.4375
13:24:21.335,5,0.0625
13:24:21.345,4.25,-0.875
13:24:21.356,3.4375,0.4375
13:24:21.365,4.9375,-0.1875
13:24:21.375,4.3125,-1
13:24:21.385,4,-1.1875
13:24:21.395,3.9375,0.0625
13:24:21.405,3.875,-1.3125
13:24:21.416,3.5625,-2.125
13:24:21.426,3.625,-2.125
13:24:21.435,4.5,-1.5
13:24:21.445,4.0625,-1.5625
13:24:21.455,3.3125,-0.6875
13:24:21.465,4.0625,-1.1875
13:24:21.475,2.875,-3.125
13:24:21.486,3.1875,-2.1875
13:24:21.495,3.6875,-2.6875
13:24:21.505,3.0625,-3.625
13:24:21.515,3.5625,-1.75
13:24:21.530,3.9375,-3.6875
13:24:21.551,3.625,-4.5
13:24:21.552,3.5,-4.25
13:24:21.555,3,-4.875
13:24:21.568,3.4375,-4.5
13:24:21.576,3.625,-5.125
13:24:21.586,3.5625,-5.4375
13:24:21.595,3.25,-4.0625
13:24:21.605,3.875,-5.75
13:24:21.616,3.625,-4.75
13:24:21.625,3.875,-4.8125
13:24:21.637,3.625,-6.1875
13:24:21.645,3.0625,-5.625
13:24:21.655,3.6875,-5.75
13:24:21.665,2.8125,-6
13:24:21.685,3.125,-5.1875
13:24:21.688,3.1875,-6.25
13:24:21.716,2.9375,-7.1875
13:24:21.718,2.9375,-5.8125
13:24:21.720,2.75,-6.625
13:24:21.727,2.1875,-7
13:24:21.753,2.3125,-7.25
13:24:21.755,1.8125,-6.875
13:24:21.758,2,-6.6875
13:24:21.788,1.9375,-7.9375
13:24:21.791,1.8125,-7.6875
13:24:21.793,2.5625,-8.1875
13:24:21.795,1.875,-6.875
13:24:21.834,1.5625,-8.125
13:24:21.837,1,-8.5625
13:24:21.837,0.875,-7.625
13:24:21.877,1.375,-8.3125
13:24:21.877,0.9375,-7.4375
13:24:21.880,0.25,-8.125
13:24:21.881,1.0625,-8.8125
13:24:21.882,0.6875,-10.0625
13:24:21.886,1.3125,-8.5625
13:24:21.920,0.75,-9.625
13:24:21.923,1.5,-7.25
13:24:21.925,2.375,-6
13:24:21.928,2.6875,-4.75
13:24:21.958,3.4375,-0.75
13:24:21.965,4.625,0.75
13:24:22.001,4.3125,1.125
13:24:22.003,5,2.1875
13:24:22.005,4.6875,2.3125
13:24:22.007,5.75,4.5
13:24:22.007,5.375,3.8125
13:24:22.010,5.75,3.25
13:24:22.038,4.5,2.1875
13:24:22.040,4.5,3.625
13:24:22.043,4.875,3.625
13:24:22.073,5.3125,2.6875
13:24:22.076,4.6875,4
13:24:22.079,5.0625,3.375
13:24:22.083,5.1875,2.6875
13:24:22.116,5,2.25
13:24:22.119,6,3
13:24:22.122,5.0625,3.25
13:24:22.135,4.9375,3.3125
13:24:22.138,4.75,3.375
13:24:22.140,4.875,1.875
13:24:22.168,5.375,1.875
13:24:22.170,4.4375,0.75
13:24:22.173,3.9375,0.5625
13:24:22.216,3,0.9375
13:24:22.218,4,0.25
13:24:22.219,3.3125,-0.4375
13:24:22.225,3.625,0
13:24:22.227,4.0625,0.375
13:24:22.240,3.5625,-0.4375
13:24:22.242,3.5,-0.25
13:24:22.269,3.5,1.1875
13:24:22.272,4.1875,0.5
13:24:22.274,3.25,0
13:24:22.280,3.4375,0.75
13:24:22.296,3.4375,0.75
13:24:22.302,3.6875,-0.5625
13:24:22.330,3.125,-0.625
13:24:22.333,2.9375,-0.75
13:24:22.335,3.5,-1.375
13:24:22.341,3.3125,-2.875
13:24:22.372,2.6875,-2.4375
13:24:22.373,2.8125,-3.3125
13:24:22.376,2.875,-3.625
13:24:22.383,2.3125,-4.125
13:24:22.408,2.5625,-2.9375
13:24:22.411,2.25,-3.75
13:24:22.414,2.4375,-3
13:24:22.450,2.5,-3.6875
13:24:22.453,1.9375,-4.375
13:24:22.455,1.9375,-3.25
13:24:22.460,2.5625,-3.625
13:24:22.460,1.6875,-4.0625
13:24:22.486,2.25,-3.9375
13:24:22.489,1.75,-5.5
13:24:22.492,2,-5
13:24:22.537,1.8125,-5.5
13:24:22.538,1.8125,-5.1875
13:24:22.541,2.0625,-4.625
13:24:22.544,2.25,-6.0625
13:24:22.544,1.625,-5.0625
13:24:22.583,1.6875,-5.25
13:24:22.585,2.25,-6.0625
13:24:22.588,1.25,-5.75
13:24:22.590,2,-6
13:24:22.593,1.6875,-7
13:24:22.631,0.8125,-6.3125
13:24:22.632,0.9375,-5.9375
13:24:22.637,1.75,-8
13:24:22.641,0.8125,-7.625
13:24:22.643,0.5625,-6.75
13:24:22.656,0.5625,-7.5625
13:24:22.660,0.8125,-8.0625
13:24:22.690,0.875,-7.9375
13:24:22.693,1,-8.375
13:24:22.696,0.9375,-8.5625
13:24:22.702,0.4375,-8.875
13:24:22.711,0.875,-8.3125
13:24:22.720,0.375,-7.3125
13:24:22.730,-0.0625,-8.5
13:24:22.741,0.9375,-9.1875
13:24:22.751,0.625,-9
13:24:22.761,0.0625,-9.625
13:24:22.771,0.875,-8.875
13:24:22.780,0.25,-8.5625
13:24:22.790,0.5,-8.9375
13:24:22.801,0.375,-9.8125
13:24:22.811,0.4375,-9.375
13:24:22.826,0.6875,-9.75
13:24:22.830,0.375,-11.0625
13:24:22.845,0.125,-10.0625
13:24:22.851,0.4375,-10.6875
13:24:22.861,0.125,-12.0625
13:24:22.871,0.25,-10.1875
13:24:22.880,0.125,-10.5
13:24:22.890,-0.25,-10.3125
13:24:22.900,0.3125,-10.0625
13:24:22.912,-0.875,-10.1875
13:24:22.920,-0.125,-10.375
13:24:22.930,-0.6875,-10.75
13:24:22.940,-0.9375,-9.6875
13:24:22.950,-0.375,-11
13:24:22.960,-0.0625,-10.4375
13:24:22.970,-0.125,-9.1875
13:24:22.980,1.375,-7.4375
13:24:22.990,2,-4.875
13:24:23.001,2.5,-2.375
13:24:23.013,3.125,0.6875
13:24:23.020,4.6875,2.75
13:24:23.030,4.5,3.375
13:24:23.040,4.6875,6
13:24:23.051,4.9375,4.625
13:24:23.060,4.625,5.4375
13:24:23.070,5.125,4
13:24:23.080,4.625,3.8125
13:24:23.090,5.125,3.6875
13:24:23.101,4.5,3.5625
13:24:23.111,4.8125,3.8125
13:24:23.120,4.4375,2.5625
13:24:23.130,4.6875,3.375
13:24:23.140,4.625,2.75
13:24:23.152,5.6875,4.0625
13:24:23.160,5.25,3.875
13:24:23.170,4.75,5.625
13:24:23.180,5.4375,4.4375
13:24:23.191,4.375,3.75
13:24:23.202,4.375,5.3125
13:24:23.210,4.9375,3.625
13:24:23.220,4.5,2.25
13:24:23.230,3.8125,3.125
13:24:23.240,4.75,2.8125
13:24:23.250,4.25,1.3125
13:24:23.260,3.8125,1.4375
13:24:23.276,3.3125,2.0625
13:24:23.293,3.8125,2.0625
13:24:23.296,3.4375,1.25
13:24:23.301,3.1875,0.8125
13:24:23.311,3.4375,1.3125
13:24:23.321,2.9375,1.625
13:24:23.330,3.3125,1.4375
13:24:23.344,2.375,0.5
13:24:23.350,2.8125,1.5625
13:24:23.362,2.6875,1.125
13:24:23.371,1.875,0.375
13:24:23.380,2.1875,1.125
13:24:23.407,2.5,0
13:24:23.409,2.25,-0.5625
13:24:23.412,3,0.5625
13:24:23.420,2,-0.6875
13:24:23.430,2,-2.125
13:24:23.441,1.8125,-2.3125
13:24:23.450,1.5625,-0.375
13:24:23.460,1.5625,-1.3125
13:24:23.470,2.25,-1.5625
13:24:23.480,1.8125,-2.3125
13:24:23.492,1.375,-1
13:24:23.500,1.875,-1.75
13:24:23.511,1.8125,-2.3125
13:24:23.521,1.5,-3.3125
13:24:23.531,1.875,-1.875
13:24:23.540,1.8125,-3.0625
13:24:23.550,1.1875,-2.375
13:24:23.561,2.0625,-2.75
13:24:23.572,1.5625,-3.5
13:24:23.580,0.875,-2.9375
13:24:23.590,1.375,-4
13:24:23.600,1.125,-4.25
13:24:23.611,1.25,-4.1875
13:24:23.620,1.0625,-4.8125
13:24:23.630,1.25,-5.1875
13:24:23.645,0.4375,-3.875
13:24:23.650,0.6875,-4.8125
13:24:23.660,-0.125,-2.875
13:24:23.670,0,-4.3125
13:24:23.680,-0.0625,-4.625
13:24:23.690,0.125,-4
13:24:23.703,-0.5625,-5.625
13:24:23.711,-0.0625,-5.625
13:24:23.720,0.5625,-5.125
13:24:23.730,0.4375,-6.0625
13:24:23.742,-0.4375,-5.5625
13:24:23.751,0.625,-6.625
13:24:23.760,0.125,-5.1875
13:24:23.770,0.3125,-7
13:24:23.780,0.3125,-6.0625
13:24:23.791,0.3125,-7.125
13:24:23.800,0.1875,-8.125
13:24:23.810,0.375,-7.4375
13:24:23.821,-0.125,-9.3125
13:24:23.831,-0.375,-8.0625
13:24:23.841,0,-8.1875
13:24:23.850,-0.6875,-8.375
13:24:23.861,0.125,-8.375
13:24:23.870,-0.25,-9
13:24:23.880,0.1875,-9.25
13:24:23.890,-0.5,-8.875
13:24:23.901,-0.5625,-8.75
13:24:23.910,-1.5625,-8.6875
13:24:23.920,-0.5,-9.0625
13:24:23.930,-1.0625,-9.875
13:24:23.940,-1.1875,-9.3125
13:24:23.952,-0.875,-10.5625
13:24:23.960,-1.0625,-10.375
13:24:23.971,-0.875,-9.3125
13:24:23.980,-0.625,-9.5
13:24:23.992,0.0625,-6.8125
13:24:24.001,-0.25,-5.5
13:24:24.010,0.9375,-2.3125
13:24:24.020,1.0625,-1.1875
13:24:24.033,1.6875,1.9375
13:24:24.045,2.875,3.375
13:24:24.050,2.25,5.0625
13:24:24.060,2.3125,5.3125
13:24:24.072,1.8125,5.0625
13:24:24.080,3.0625,5.3125
13:24:24.090,2,4.9375
13:24:24.100,2.3125,4.75
13:24:24.110,2,3.8125
13:24:24.126,2.6875,3.75
13:24:24.140,2.5,3.75
13:24:24.143,2.9375,2.8125
13:24:24.150,2.4375,3.625
13:24:24.162,3,3.625
13:24:24.170,2.0625,3.625
13:24:24.180,2.8125,3.25
13:24:24.190,2.5625,2.8125
13:24:24.200,1.875,3.6875
13:24:24.212,1.75,2.9375
13:24:24.220,2.3125,2.375
13:24:24.230,1.6875,1.3125
13:24:24.240,1.25,1.375
13:24:24.250,1,2.3125
13:24:24.263,2,2.3125
13:24:24.270,1.25,1.25
13:24:24.280,0.8125,0.9375
13:24:24.291,0.1875,2.1875
13:24:24.302,-0.125,2.1875
13:24:24.311,0.0625,1.6875
13:24:24.325,-0.25,1
13:24:24.335,-0.5625,3.0625
13:24:24.345,0.375,2.1875
13:24:24.355,0.0625,1.75
13:24:24.366,-0.4375,0.875
13:24:24.375,-0.25,1.4375
13:24:24.385,-0.125,0.4375
13:24:24.397,0.25,0.5625
13:24:24.411,-0.25,0.625
13:24:24.415,0.3125,-0.375
13:24:24.426,0.4375,-1.1875
13:24:24.437,0.0625,-1.9375
13:24:24.445,-0.1875,-1.8125
13:24:24.455,0.875,-2.375
13:24:24.465,0.5625,-3.5
13:24:24.477,0.25,-4
13:24:24.486,0.9375,-3.1875
13:24:24.495,1.125,-3.9375
13:24:24.505,1.5,-4
13:24:24.516,1.3125,-4.375
13:24:24.525,0.5,-5.3125
13:24:24.535,1.125,-4
13:24:24.545,0.875,-4.6875
13:24:24.557,0.25,-5.3125
13:24:24.571,0.5625,-4
13:24:24.586,0.8125,-3.8125
13:24:24.589,1.25,-4.9375
13:24:24.595,0.4375,-3.6875
13:24:24.606,0.6875,-5.3125
13:24:24.615,0.625,-5.75
13:24:24.627,0.25,-6.0625
13:24:24.635,0.5625,-5
13:24:24.645,0.125,-5.75
13:24:24.655,0.0625,-6.1875
13:24:24.688,0.5625,-5.875
13:24:24.690,-0.375,-6.8125
13:24:24.693,-0.4375,-4.875
13:24:24.698,-0.0625,-6.5
13:24:24.705,-0.125,-7.125
13:24:24.715,0.125,-6.1875
13:24:24.725,0.125,-7.375
13:24:24.736,0,-7.125
13:24:24.745,0.0625,-6
13:24:24.755,0,-8.125
13:24:24.765,0.125,-8.75
13:24:24.776,-1.25,-7.1875
13:24:24.789,0,-8.1875
13:24:24.795,-0.5,-9
13:24:24.805,-0.6875,-7.1875
13:24:24.817,-0.25,-8.5
13:24:24.825,-0.625,-8.8125
13:24:24.835,-0.5625,-9.1875
13:24:24.845,-0.1875,-8.9375
13:24:24.856,-0.9375,-8.8125
13:24:24.865,0.1875,-9.3125
13:24:24.875,-0.3125,-9.625
13:24:24.888,-0.6875,-7.8125
13:24:24.895,-0.0625,-9.4375
13:24:24.906,-0.625,-10.125
13:24:24.916,-0.625,-9.6875
13:24:24.925,0,-10
13:24:24.935,-0.5,-9.25
13:24:24.945,0.25,-10.0625
13:24:24.957,-0.5625,-9.75
13:24:24.966,0.6875,-9.4375
13:24:24.975,-1.125,-10.4375
13:24:24.985,-0.5,-10.625
13:24:24.995,-0.5625,-11.4375
13:24:25.005,-0.25,-9.3125
13:24:25.015,0.3125,-10
13:24:25.026,0.6875,-5.8125
13:24:25.035,1.625,-5.5625
13:24:25.045,2.3125,-2.25
13:24:25.055,3.6875,-0.1875
13:24:25.067,3.9375,2.5
13:24:25.075,4.8125,2.9375
13:24:25.085,4.6875,4.625
13:24:25.095,4.6875,4.3125
13:24:25.106,4.875,3.6875
13:24:25.115,5.1875,4.875
13:24:25.125,4.5625,3.625
13:24:25.136,3.8125,3.6875
13:24:25.145,4.4375,3.6875
13:24:25.162,4.25,3.6875
13:24:25.165,5,3.9375
13:24:25.175,4.5625,4.1875
13:24:25.185,4.3125,4.75
13:24:25.196,5.375,3.75
13:24:25.205,4.75,3.6875
13:24:25.215,4.6875,5.5
13:24:25.225,4.1875,3.8125
13:24:25.235,4,5.5
13:24:25.245,4.8125,4.25
13:24:25.255,4.3125,3.9375
13:24:25.266,3.3125,4.5
13:24:25.276,4.125,3.75
13:24:25.285,3.625,2.9375
13:24:25.295,3.125,2.3125
13:24:25.306,3.25,3.0625
13:24:25.315,3.5,2.3125
13:24:25.325,3.0625,1.5625
13:24:25.335,3.25,2.125
13:24:25.346,4,1.9375
13:24:25.355,3.375,1.0625
13:24:25.366,2.9375,1.0625
13:24:25.375,3.5,2
13:24:25.385,3.1875,1.4375
13:24:25.395,3.5,1.25
13:24:25.406,3,2
13:24:25.422,3.0625,1.0625
13:24:25.437,2.5625,-0.4375
13:24:25.439,2.4375,0.5
13:24:25.445,2.0625,-0.4375
13:24:25.455,2.125,-1.125
13:24:25.466,1.6875,-0.875
13:24:25.475,1.625,-0.25
13:24:25.485,0.6875,-0.125
13:24:25.495,1.375,-1.5625
13:24:25.505,0.6875,-2.25
13:24:25.515,1.125,-1.125
13:24:25.527,1.4375,-1.25
13:24:25.535,1.0625,-1.4375
13:24:25.545,0.5625,-2.25
13:24:25.556,0.5625,-2.125
13:24:25.565,0.9375,-2.3125
13:24:25.575,0.3125,-2.625
13:24:25.585,0.1875,-3.875
13:24:25.595,0.4375,-2.5625
13:24:25.605,0.8125,-3.4375
13:24:25.615,-0.3125,-2.8125
13:24:25.625,1.0625,-3.0625
13:24:25.636,0.4375,-3.5
13:24:25.645,-0.125,-2.3125
13:24:25.655,0.75,-3.9375
13:24:25.665,-0.0625,-4.25
13:24:25.675,0.25,-3.4375
13:24:25.685,-0.1875,-4.75
13:24:25.695,-0.4375,-4.5625
13:24:25.704,0.4375,-4.5625
13:24:25.723,-0.625,-5.3125
13:24:25.726,-0.1875,-5.0625
13:24:25.766,-0.4375,-6.125
13:24:25.768,-0.875,-4.875
13:24:25.771,-0.6875,-5.4375
13:24:25.774,-1.3125,-5.125
13:24:25.778,-1,-5.3125
13:24:25.785,-1.4375,-5.625
13:24:25.818,-1.1875,-5.875
13:24:25.821,-1,-7.0625
13:24:25.823,-1.125,-6.0625
13:24:25.825,-1.3125,-7.5
13:24:25.890,-1.375,-6.75
13:24:25.890,-1.4375,-7.625
13:24:25.894,-1.3125,-7.5625
13:24:25.900,-0.8125,-7.3125
13:24:25.900,-1.875,-6.6875
13:24:25.900,-1.5,-7.3125
13:24:25.905,-2,-8.5
13:24:25.938,-1.5625,-7.5
13:24:25.941,-2.375,-7.1875
13:24:25.943,-1.9375,-7.25
13:24:25.971,-2.5,-7
13:24:25.972,-1.8125,-7.9375
13:24:25.975,-2.4375,-8.8125
13:24:25.977,-2.125,-8.125
13:24:26.010,-2.5625,-8.9375
13:24:26.013,-2.0625,-8.9375
13:24:26.015,-2.0625,-9.5
13:24:26.045,-1.3125,-8.5625
13:24:26.045,-0.625,-8.1875
13:24:26.047,-0.125,-6.4375
13:24:26.052,0.375,-4.375
13:24:26.055,1.25,-2.25
13:24:26.097,2.9375,1.875
13:24:26.097,2.375,3
13:24:26.099,2.9375,4.4375
13:24:26.102,3.375,3.625
13:24:26.106,3.5,4.5625
13:24:26.139,3.8125,3.625
13:24:26.141,3.9375,2.6875
13:24:26.144,3.9375,3.1875
13:24:26.172,4.3125,2.5625
13:24:26.173,3.6875,2.375
13:24:26.175,3.25,1.8125
13:24:26.182,3.5,2
13:24:26.185,3.0625,2.4375
13:24:26.218,3.0625,2.5625
13:24:26.219,2.875,1.8125
13:24:26.222,2.5625,2.5625
13:24:26.226,3.0625,1.8125
13:24:26.258,2.375,1.8125
13:24:26.260,2.25,2.75
13:24:26.263,1.9375,1.75
13:24:26.266,2.625,1.5625
13:24:26.302,1.6875,1.375
13:24:26.305,1.5625,1.3125
13:24:26.307,1.9375,0.8125
13:24:26.339,1.3125,1
13:24:26.339,1.125,0.5625
13:24:26.342,0.5,0.8125
13:24:26.350,0.625,1.125
13:24:26.350,0.5,0.375
13:24:26.355,-0.1875,2
13:24:26.392,0.875,1.125
13:24:26.393,0.5,0.5625
13:24:26.397,-0.0625,0.375
13:24:26.400,-0.5625,1.125
13:24:26.406,-0.5,-0.0625
13:24:26.445,-0.3125,-0.4375
13:24:26.449,-0.6875,0.6875
13:24:26.450,-0.9375,0.3125
13:24:26.453,-0.5625,0
13:24:26.456,-0.1875,-1.375
13:24:26.464,-0.875,-1.6875
13:24:26.506,-1.125,-2.4375
13:24:26.509,-0.9375,-1.3125
13:24:26.511,-0.4375,-1.875
13:24:26.513,-0.25,-2.6875
13:24:26.516,-0.1875,-3.9375
13:24:26.530,-1.125,-3.25
13:24:26.538,-0.9375,-3.625
13:24:26.544,0,-4.3125
13:24:26.578,-1.125,-5
13:24:26.580,-0.625,-5.625
13:24:26.583,-1.25,-5.4375
13:24:26.588,-0.4375,-4.625
13:24:26.616,-0.4375,-5.1875
13:24:26.618,-0.875,-5.625
13:24:26.620,-0.75,-4.375
13:24:26.625,-1.375,-5.1875
13:24:26.653,-1.125,-4.8125
13:24:26.656,-1.375,-5.125
13:24:26.657,-1.8125,-3.6875
13:24:26.693,-2.125,-4.75
13:24:26.694,-2.1875,-4.25
13:24:26.697,-2.1875,-5.0625
13:24:26.699,-2.625,-3.6875
13:24:26.728,-2.375,-4.4375
13:24:26.732,-3,-4.0625
13:24:26.745,-3.375,-5.3125
13:24:26.747,-3,-6
13:24:26.762,-3.0625,-5.375
13:24:26.763,-3.375,-6.1875
13:24:26.778,-3.0625,-5.75
13:24:26.780,-2.4375,-7.0625
13:24:26.785,-2.25,-7.3125
13:24:26.796,-2.9375,-8.4375
13:24:26.805,-2.75,-9
13:24:26.815,-1.9375,-8.875
13:24:26.826,-2.625,-10.0625
13:24:26.836,-2.5,-9.25
13:24:26.846,-1.6875,-10
13:24:26.855,-2.75,-9.875
13:24:26.865,-2.8125,-9.75
13:24:26.878,-3.1875,-8.625
13:24:26.886,-2.9375,-10.4375
13:24:26.896,-3.5,-10.4375
13:24:26.907,-3.3125,-8.4375
13:24:26.915,-2.5,-9.9375
13:24:26.925,-3.1875,-9.8125
13:24:26.936,-3.5625,-8.5
13:24:26.944,-3.3125,-9.375
13:24:26.956,-3.125,-8.625
13:24:26.964,-3,-9.0625
13:24:26.976,-2.1875,-8
13:24:26.985,-1.875,-5.0625
13:24:26.997,-1.4375,-3.5
13:24:27.005,-0.125,-0.1875
13:24:27.015,1.0625,1.4375
13:24:27.026,1.3125,3.75
13:24:27.035,1.4375,3.6875
13:24:27.044,2.125,5.625
13:24:27.055,2.1875,4.5625
13:24:27.066,2.625,5.0625
13:24:27.074,2.25,4.0625
13:24:27.086,2.375,4.9375
13:24:27.096,2.5625,3.875
13:24:27.105,2.1875,3.375
13:24:27.115,1.875,4.9375
13:24:27.124,1.4375,3.25
13:24:27.135,1.3125,4.9375
13:24:27.145,1.9375,4.5
13:24:27.163,1.625,3.375
13:24:27.169,1.4375,4.9375
13:24:27.176,1.8125,3.6875
13:24:27.184,1.1875,5.4375
13:24:27.201,1.375,6.125
13:24:27.208,1.375,4.375
13:24:27.218,0.5625,4.375
13:24:27.246,0.8125,4.3125
13:24:27.249,0.25,3.125
13:24:27.252,0.4375,2.875
13:24:27.257,0.1875,4.25
13:24:27.265,0.5625,3.4375
13:24:27.280,0.3125,2.75
13:24:27.286,-0.4375,4.0625
13:24:27.294,0.4375,3.875
13:24:27.304,0.375,3.6875
13:24:27.315,0.375,3.375
13:24:27.324,0.3125,3.125
13:24:27.334,0,4.375
13:24:27.344,0.875,3.1875
13:24:27.359,0.0625,1.875
13:24:27.366,0,2.8125
13:24:27.374,-0.25,2.875
13:24:27.385,0.375,2.0625
13:24:27.394,0.6875,1.125
13:24:27.404,0.5,1
13:24:27.414,0.0625,0.3125
13:24:27.425,0.375,0.9375
13:24:27.434,0.5625,-0.1875
13:24:27.444,0.125,-0.125
13:24:27.454,1.3125,-0.5625
13:24:27.465,-0.1875,-0.9375
13:24:27.478,-0.1875,-1
13:24:27.484,-0.4375,-1
13:24:27.495,0.875,-0.625
13:24:27.507,0.375,-1.8125
13:24:27.514,0.125,-2.0625
13:24:27.524,0.0625,-1.4375
13:24:27.538,-0.4375,-3.0625
13:24:27.544,-0.6875,-2.5625
13:24:27.555,0.1875,-1.875
13:24:27.564,-0.375,-2.0625
13:24:27.575,-1.375,-2.6875
13:24:27.584,-1.125,-2
13:24:27.597,-1.3125,-2.625
13:24:27.605,-2.625,-2.0625
13:24:27.615,-2.625,-1.75
13:24:27.624,-4.0625,-1.25
13:24:27.635,-4.6875,-1.5
13:24:27.644,-5.5625,-2.75
13:24:27.655,-5.9375,-3.375
13:24:27.664,-6.0625,-3.25
13:24:27.676,-6.1875,-5.75
13:24:27.685,-6.25,-6.4375
13:24:27.695,-6.3125,-7.125
13:24:27.708,-7.4375,-7.375
13:24:27.714,-8.75,-6.875
13:24:27.725,-9.6875,-7.8125
13:24:27.734,-11.5,-7.1875
13:24:27.745,-13.3751,-9.125
13:24:27.755,-15.9376,-8.25
13:24:27.765,-19.0626,-11.3125
13:24:27.774,-24.6251,-11.4375
13:24:27.786,-30.2501,-14.4376
13:24:27.794,-38.9376,-15.8751
13:24:27.805,-45.8127,-19.8126
13:24:27.815,-52.6877,-21.4376
13:24:27.825,-60.8752,-24.8126
13:24:27.834,-66.6878,-26.0001
13:24:27.846,-69.0628,-26.9376
13:24:27.854,-70.4378,-26.5001
13:24:27.864,-70.1253,-26.8751
13:24:27.877,-68.8753,-26.7501
13:24:27.884,-67.8128,-25.0626
13:24:27.894,-66.5628,-25.6251
13:24:27.905,-65.3127,-23.8751
13:24:27.914,-65.0627,-25.2501
13:24:27.926,-64.4377,-24.5626
13:24:27.934,-64.6252,-25.3751
13:24:27.944,-63.3127,-24.1876
13:24:27.954,-63.2502,-24.5001
13:24:27.966,-61.9377,-24.2501
13:24:27.975,-60.8127,-25.0001
13:24:27.984,-58.9377,-23.2501
13:24:27.994,-57.7502,-24.3126
13:24:28.006,-57.5002,-23.2501
13:24:28.014,-56.6252,-23.8126
13:24:28.028,-56.8752,-23.5001
13:24:28.045,-57.3752,-22.1876
13:24:28.048,-57.1877,-21.8751
13:24:28.058,-56.3752,-20.0001
13:24:28.067,-54.6252,-18.2501
13:24:28.079,-53.4377,-16.6251
13:24:28.088,-52.4377,-15.0626
13:24:28.096,-51.6252,-14.1251
13:24:28.104,-50.0002,-13
13:24:28.115,-49.5002,-11.5625
13:24:28.124,-49.0627,-11.9375
13:24:28.135,-48.3127,-11.0625
13:24:28.149,-47.1252,-12.25
13:24:28.159,-47.3127,-10.625
13:24:28.169,-45.6877,-11.6875
13:24:28.179,-45.7502,-10.6875
13:24:28.191,-42.3127,-10.75
13:24:28.200,-39.3127,-8.3125
13:24:28.209,-36.6876,-7.0625
13:24:28.222,-34.1251,-7.4375
13:24:28.229,-32.3126,-7.75
13:24:28.239,-29.1876,-9.125
13:24:28.249,-26.8126,-9.8125
13:24:28.260,-24.3751,-10.375
13:24:28.269,-22.9376,-11.1875
13:24:28.279,-21.5626,-12.3125
13:24:28.290,-19.3126,-13.6251
13:24:28.300,-16.8126,-13.0625
13:24:28.310,-11.5,-11.6875
13:24:28.319,-7.0625,-10.5625
13:24:28.330,-3.3125,-7.5
13:24:28.348,1.5625,-6
13:24:28.354,3.875,-2.5
13:24:28.364,9.375,-0.875
13:24:28.375,15.8126,0.875
13:24:28.384,21.8751,3.1875
13:24:28.394,29.0626,4.625
13:24:28.410,39.1251,10.625
13:24:28.415,49.4377,14.8751
13:24:28.424,56.3127,19.8126
13:24:28.434,60.0627,20.5001
13:24:28.445,60.3752,21.5001
13:24:28.454,60.2502,21.3126
13:24:28.465,56.3127,19.3126
13:24:28.474,49.2502,16.6251
13:24:28.490,40.1252,11.375
13:24:28.536,29.7501,6.375
13:24:28.537,16.3126,-0.125
13:24:28.541,9.5,-4.8125
13:24:28.554,4.375,-6.9375
13:24:28.558,2,-9.375
13:24:28.560,-1.125,-12.875
13:24:28.566,-8.125,-16.0626
13:24:28.566,-15.5001,-16.1251
13:24:28.575,-22.5626,-16.2501
13:24:28.584,-30.1251,-16.7501
13:24:28.594,-37.5001,-14.0626
13:24:28.605,-42.5002,-14.6251
13:24:28.614,-48.6252,-15.2501
13:24:28.624,-54.0002,-14.7501
13:24:28.634,-57.0002,-16.0001
13:24:28.644,-56.8752,-15.6251
13:24:28.654,-56.1252,-15.1876
13:24:28.664,-56.9377,-14.1251
13:24:28.674,-57.8127,-13.8751
13:24:28.684,-59.7502,-14.5626
13:24:28.695,-62.0002,-14.0626
13:24:28.704,-64.4377,-14.3751
13:24:28.714,-65.0002,-14.6876
13:24:28.726,-64.5627,-14.5001
13:24:28.734,-62.6877,-13.2501
13:24:28.744,-60.1877,-13.6876
13:24:28.754,-57.4377,-11.75
13:24:28.764,-53.2502,-11.4375
13:24:28.774,-49.0002,-9.1875
13:24:28.788,-45.0002,-8.25
13:24:28.794,-40.8127,-7.375
13:24:28.807,-39.0001,-8.75
13:24:28.814,-37.3751,-8.9375
13:24:28.824,-36.6251,-10.5625
13:24:28.834,-36.4376,-12.125
13:24:28.844,-33.3751,-12.0625
13:24:28.855,-27.9376,-9.9375
13:24:28.864,-21.3751,-10.0625
13:24:28.874,-15.3126,-8.3125
13:24:28.884,-9,-10.4375
13:24:28.894,-4.0625,-12.75
13:24:28.904,-2.125,-16.3751
13:24:28.914,-1.0625,-19.4376
13:24:28.924,-1.75,-20.8126
13:24:28.936,-1,-21.3751
13:24:28.944,2.1875,-19.4376
13:24:28.954,8.0625,-15.3126
13:24:28.966,12.3125,-11.5625
13:24:28.974,16.9376,-8.4375
13:24:28.984,21.5001,-6.125
13:24:28.994,25.6251,-4.25
13:24:29.004,31.3126,-1.3125
13:24:29.015,37.6876,2.875
13:24:29.024,45.5627,6.8125
13:24:29.034,50.5002,9.8125
13:24:29.044,56.1877,11.875
13:24:29.054,61.7502,17.0001
13:24:29.065,68.8128,22.1876
13:24:29.074,73.0628,27.3751
13:24:29.084,74.2503,30.1876
13:24:29.097,70.6253,30.2501
13:24:29.104,64.3127,28.5626
13:24:29.114,54.7502,24.0001
13:24:29.124,45.1877,20.8126
13:24:29.134,38.0626,16.5001
13:24:29.144,32.3751,14.0001
13:24:29.154,30.3126,13
13:24:29.164,27.8751,9.125
13:24:29.175,20.4376,5.8125
13:24:29.184,11.8125,3.5
13:24:29.194,3.375,1.1875
13:24:29.204,-6.75,0.9375
13:24:29.214,-14.8751,1.125
13:24:29.225,-19.6251,2.625
13:24:29.234,-21.8751,3.125
13:24:29.244,-26.3126,2.8125
13:24:29.254,-29.6876,2.3125
13:24:29.264,-29.7501,2.5625
13:24:29.274,-30.4376,2.6875
13:24:29.284,-30.8126,2.4375
13:24:29.295,-31.5001,3.625
13:24:29.305,-33.1251,4.0625
13:24:29.314,-37.2501,1.8125
13:24:29.324,-40.5002,0.1875
13:24:29.335,-41.6877,1.1875
13:24:29.344,-40.9377,0.9375
13:24:29.363,-41.1252,0.875
13:24:29.366,-40.3752,2.3125
13:24:29.378,-37.3751,3
13:24:29.384,-34.3126,3.25
13:24:29.401,-30.9376,6.125
13:24:29.404,-28.4376,6.625
13:24:29.419,-26.0001,7.875
13:24:29.425,-23.6876,9.25
13:24:29.434,-21.4376,8.125
13:24:29.444,-21.8126,7.5
13:24:29.454,-21.8751,5.6875
13:24:29.465,-19.8751,4.5625
13:24:29.483,-15.7501,5.4375
13:24:29.485,-11.25,5.875
13:24:29.518,-8.4375,5.5
13:24:29.521,-6,5.625
13:24:29.525,-0.9375,2.3125
13:24:29.527,4.25,0.875
13:24:29.558,7.25,-0.6875
13:24:29.560,10,-0.0625
13:24:29.563,12.1875,-0.9375
13:24:29.568,12.8125,-1.0625
13:24:29.596,13.6876,0.125
13:24:29.599,13.125,-1.8125
13:24:29.599,15.2501,-1.75
13:24:29.631,19.9376,-0.125
13:24:29.634,25.4376,2.3125
13:24:29.638,32.0001,7.875
13:24:29.641,38.0001,10.0625
13:24:29.644,46.8752,14.3126
13:24:29.670,58.5002,22.1876
13:24:29.674,74.5003,32.6876
13:24:29.675,91.9379,45.5002
13:24:29.711,112.6879,60.4377
13:24:29.713,134.438,78.8753
13:24:29.715,156.4381,98.6254
13:24:29.718,173.1882,114.3129
13:24:29.748,185.1257,126.6255
13:24:29.749,187.0632,132.313
13:24:29.751,179.1257,127.7505
13:24:29.756,163.1256,116.6879
13:24:29.786,146.6256,106.0004
13:24:29.789,130.813,93.7504
13:24:29.792,115.5004,80.6878
13:24:29.818,100.7504,70.0628
13:24:29.819,87.3753,59.3127
13:24:29.848,77.6253,53.1877
13:24:29.924,72.9378,47.8752
13:24:29.926,65.4378,41.9377
13:24:29.926,55.6877,35.5001
13:24:29.926,45.5002,30.1876
13:24:29.927,34.8126,26.3126
13:24:29.957,26.5626,23.2501
13:24:29.958,19.5001,21.2501
13:24:29.958,11.5625,21.1876
13:24:29.959,4.5,17.6876
13:24:29.961,-0.25,15.9376
13:24:29.967,-2.375,15.3126
13:24:29.970,-3.5625,14.4376
13:24:30.005,-4.6875,14.5626
13:24:30.008,-6,13.3751
13:24:30.010,-8.1875,10.6875
13:24:30.013,-11.8125,10.25
13:24:30.043,-15.3751,7.875
13:24:30.045,-18.8751,4.5625
13:24:30.048,-21.8751,2.875
13:24:30.050,-22.9376,2.1875
13:24:30.088,-22.7501,1.125
13:24:30.091,-23.7501,1.9375
13:24:30.093,-22.0001,1.9375
13:24:30.098,-21.0626,1.625
13:24:30.099,-13.0625,3.75
13:24:30.138,-13.9376,3.9375
13:24:30.140,-12.5,1.6875
13:24:30.143,-12.8125,3.0625
13:24:30.145,-11.1875,2.6875
13:24:30.150,-7.1875,5.5625
13:24:30.175,0.0625,7.25
13:24:30.179,6.3125,12
13:24:30.183,13.5626,12.5
13:24:30.189,19.0001,11.6875
13:24:30.222,20.9376,10.625
13:24:30.225,22.5001,7.8125
13:24:30.227,23.8126,6.3125
13:24:30.229,26.0626,7.5625
13:24:30.257,27.1251,8.75
13:24:30.259,29.9376,12
13:24:30.263,32.7501,13.9376
13:24:30.270,36.6876,16.5001
13:24:30.302,38.4376,18.3126
13:24:30.303,41.2502,18.9376
13:24:30.305,43.9377,21.8126
13:24:30.334,49.3752,25.3751
13:24:30.335,56.2502,30.4376
13:24:30.338,64.6252,38.4376
13:24:30.342,73.0628,43.2502
13:24:30.378,81.5003,50.6877
13:24:30.381,89.8753,54.7502
13:24:30.389,94.1254,58.4377
13:24:30.420,97.5629,61.3752
13:24:30.421,98.6879,61.5002
13:24:30.421,97.0004,61.5002
13:24:30.424,91.6254,57.8127
13:24:30.429,83.0628,53.1252
13:24:30.429,74.0003,47.1252
13:24:30.462,64.1252,39.1876
13:24:30.464,54.9377,33.0626
13:24:30.466,47.1877,27.6876
13:24:30.469,38.3126,22.3751
13:24:30.500,30.3751,17.0001
13:24:30.503,23.8126,13.1876
13:24:30.504,19.8126,10.4375
13:24:30.510,18.5626,9.0625
13:24:30.520,13.6876,6.375
13:24:30.529,7.875,3.25
13:24:30.539,0.9375,-0.125
13:24:30.549,-6.5,-1.875
13:24:30.559,-13.9376,-2.5625
13:24:30.569,-20.4376,-3.9375
13:24:30.579,-24.0001,-4.5
13:24:30.589,-27.6876,-4.8125
13:24:30.599,-29.7501,-4.125
13:24:30.609,-30.6251,-3.5
13:24:30.620,-33.3751,-4.25
13:24:30.629,-35.5626,-5
13:24:30.639,-39.0001,-7.4375
13:24:30.649,-40.3127,-8.0625
13:24:30.659,-41.3752,-10.125
13:24:30.670,-42.2502,-10.625
13:24:30.686,-42.0002,-10.6875
13:24:30.689,-42.8752,-11.6875
13:24:30.706,-45.0002,-11.875
13:24:30.719,-44.9377,-12.125
13:24:30.721,-45.8752,-11.875
13:24:30.731,-46.0002,-12.8125
13:24:30.739,-44.5627,-10.8125
13:24:30.749,-43.3127,-11.625
13:24:30.759,-41.6877,-10.125
13:24:30.770,-40.5002,-9.625
13:24:30.779,-38.1876,-9.25
13:24:30.790,-38.8751,-8.8125
13:24:30.799,-36.0626,-11.4375
13:24:30.809,-33.4376,-10.875
13:24:30.819,-30.9376,-9.8125
13:24:30.829,-27.0626,-10.375
13:24:30.839,-21.6876,-8.5
13:24:30.849,-16.8126,-8.5
13:24:30.859,-11.3125,-5.875
13:24:30.869,-10.1875,-8.875
13:24:30.879,-8.5,-10.0625
13:24:30.889,-8.125,-13.5626
13:24:30.899,-6.25,-14.6251
13:24:30.909,-3.6875,-12.875
13:24:30.922,-0.875,-13.6876
13:24:30.929,0.5625,-10.75
13:24:30.940,3.125,-11.3125
13:24:30.949,4.6875,-10.6875
13:24:30.959,2.0625,-12.5625
13:24:30.969,0.625,-15.1251
13:24:30.979,1.0625,-15.2501
13:24:30.989,3.25,-14.3751
13:24:30.999,6.625,-11.1875
13:24:31.009,9.8125,-10.75
13:24:31.021,13.5001,-9
13:24:31.033,17.5626,-5.25
13:24:31.039,24.8751,-1.875
13:24:31.049,29.5001,2.9375
13:24:31.059,34.4376,4.0625
13:24:31.088,40.3127,8.8125
13:24:31.090,48.6877,13.9376
13:24:31.093,57.5002,21.3751
13:24:31.099,65.6878,29.1876
13:24:31.109,75.9378,38.8751
13:24:31.119,83.8753,45.4377
13:24:31.129,90.1879,52.5002
13:24:31.142,94.4379,55.0627
13:24:31.149,96.1254,58.3127
13:24:31.160,97.9379,59.1252
13:24:31.169,94.8754,58.1877
13:24:31.188,89.7503,55.1877
13:24:31.194,81.6253,49.6877
13:24:31.201,71.5628,43.6252
13:24:31.209,60.3127,34.7501
13:24:31.226,49.8127,27.6876
13:24:31.231,40.5002,21.9376
13:24:31.242,31.8126,17.0001
13:24:31.249,24.0001,11.6875
13:24:31.259,19.0626,10.0625
13:24:31.269,16.8126,6.625
13:24:31.279,12.5625,3.75
13:24:31.289,7,-0.0625
13:24:31.299,0.125,-1.8125
13:24:31.310,-7.0625,-3.375
13:24:31.319,-15.0001,-7
13:24:31.329,-22.4376,-8.3125
13:24:31.339,-26.8126,-8.25
13:24:31.349,-29.8126,-7.3125
13:24:31.362,-30.9376,-8
13:24:31.369,-33.4376,-7.5
13:24:31.379,-35.6251,-7
13:24:31.389,-37.6876,-7
13:24:31.399,-40.3127,-8
13:24:31.409,-41.8127,-8.875
13:24:31.419,-43.6877,-10.5
13:24:31.429,-45.4377,-11.8125
13:24:31.439,-47.0002,-11.375
13:24:31.449,-47.4377,-11.9375
13:24:31.459,-47.6877,-13.5626
13:24:31.470,-46.2502,-12.375
13:24:31.481,-44.6252,-12.25
13:24:31.489,-42.0627,-9.1875
13:24:31.499,-39.9377,-8.1875
13:24:31.509,-38.6251,-8.125
13:24:31.519,-38.5626,-7.3125
13:24:31.531,-37.1876,-8.8125
13:24:31.539,-33.7501,-8.875
13:24:31.549,-28.8126,-8.8125
13:24:31.559,-22.9376,-9.875
13:24:31.569,-14.1251,-9.5625
13:24:31.579,-6.1875,-12.5
13:24:31.590,1,-15.8126
13:24:31.600,9.6875,-18.3751
13:24:31.609,13.8751,-21.8126
13:24:31.619,17.0001,-20.3126
13:24:31.629,17.3751,-23.1876
13:24:31.639,18.5626,-22.6876
13:24:31.649,20.7501,-23.3751
13:24:31.659,23.0626,-19.1876
13:24:31.669,26.6876,-18.5001
13:24:31.679,30.0001,-16.2501
13:24:31.689,36.0626,-10.375
13:24:31.699,39.9377,-7.3125
13:24:31.709,41.4377,-2.4375
13:24:31.719,43.6252,1.5625
13:24:31.729,47.0627,5.75
13:24:31.739,49.1252,10.6875
13:24:31.749,50.3752,11.875
13:24:31.759,53.5002,14.5626
13:24:31.769,56.5627,20.1251
13:24:31.783,61.0002,23.3751
13:24:31.791,66.1253,28.3126
13:24:31.799,70.8128,34.4376
13:24:31.809,77.1253,38.2501
13:24:31.819,82.5003,42.7502
13:24:31.829,87.2503,49.5002
13:24:31.842,90.5629,50.2502
13:24:31.849,91.2504,53.1877
13:24:31.859,91.3129,52.3752
13:24:31.869,85.5628,49.3127
13:24:31.879,78.1253,45.5002
13:24:31.889,68.9378,39.6252
13:24:31.899,58.5002,32.0001
13:24:31.911,48.9377,24.9376
13:24:31.919,38.3126,16.9376
13:24:31.929,28.1876,9.625
13:24:31.939,21.0001,4.25
13:24:31.949,16.1876,-0.75
13:24:31.961,11.25,-5.5625
13:24:31.969,4.375,-13
13:24:31.980,-4.25,-18.5626
13:24:31.989,-12.5625,-23.1251
13:24:32.004,-20.1876,-24.6876
13:24:32.015,-27.6251,-24.6251
13:24:32.019,-35.1251,-25.1876
13:24:32.036,-43.6252,-26.5001
13:24:32.039,-49.7502,-25.6251
13:24:32.054,-52.6252,-25.2501
13:24:32.059,-52.2502,-24.4376
13:24:32.069,-51.4377,-23.6251
13:24:32.079,-51.6877,-22.6876
13:24:32.089,-52.8752,-22.8126
13:24:32.099,-54.6877,-23.9376
13:24:32.109,-56.1252,-25.3126
13:24:32.120,-58.1877,-24.5626
13:24:32.129,-59.0002,-24.4376
13:24:32.139,-59.0002,-22.2501
13:24:32.149,-57.6252,-20.1251
13:24:32.164,-56.0002,-18.3751
13:24:32.169,-53.3752,-14.8751
13:24:32.179,-48.3127,-12.625
13:24:32.191,-43.8127,-9.375
13:24:32.199,-39.5627,-7.1875
13:24:32.209,-37.3751,-6.4375
13:24:32.219,-36.1251,-6.125
13:24:32.229,-34.1876,-8.4375
13:24:32.239,-32.8751,-9
13:24:32.252,-27.6876,-10.1875
13:24:32.259,-22.9376,-9.875
13:24:32.270,-16.6876,-8.5625
13:24:32.279,-12.375,-10.4375
13:24:32.289,-8.4375,-10.375
13:24:32.299,-5.1875,-11.875
13:24:32.309,-1.1875,-11.5
13:24:32.322,3.5,-10.6875
13:24:32.329,3.1875,-10.75
13:24:32.339,2.6875,-10.875
13:24:32.367,2.1875,-11.625
13:24:32.369,4.1875,-10.875
13:24:32.374,5.4375,-9.3125
13:24:32.384,9.25,-7.5
13:24:32.394,14.0001,-4.5
13:24:32.404,19.6876,-0.1875
13:24:32.414,24.9376,3.6875
13:24:32.426,29.2501,7.8125
13:24:32.434,34.1876,11.9375
13:24:32.444,38.3751,15.2501
13:24:32.454,45.0627,21.6251
13:24:32.464,52.5002,26.6876
13:24:32.479,58.8127,33.3751
13:24:32.489,64.1252,35.8751
13:24:32.499,68.5628,40.5002
13:24:32.515,74.8753,46.9377
13:24:32.522,81.1253,50.0627
13:24:32.538,86.1253,56.5627
13:24:32.553,90.8129,59.1252
13:24:32.555,95.8129,62.2502
13:24:32.570,96.7504,64.6252
13:24:32.573,97.1254,64.8752
13:24:32.579,92.8754,61.9377
13:24:32.589,85.8128,59.0627
13:24:32.599,77.0628,52.5002
13:24:32.609,65.8753,44.2502
13:24:32.619,54.5002,36.8126
13:24:32.629,44.6877,28.1251
13:24:32.639,36.3126,19.3751
13:24:32.649,29.9376,11.5
13:24:32.659,22.4376,4.4375
13:24:32.669,14.3751,-3.0625
13:24:32.679,4.875,-9.9375
13:24:32.689,-4.125,-15.8751
13:24:32.699,-14.7501,-19.6251
13:24:32.709,-23.4376,-21.3126
13:24:32.724,-30.6876,-22.0626
13:24:32.734,-36.4376,-22.2501
13:24:32.744,-41.4377,-22.1251
13:24:32.754,-46.2502,-20.1876
13:24:32.764,-49.2502,-22.1251
13:24:32.776,-52.3127,-22.1251
13:24:32.784,-53.6877,-21.4376
13:24:32.794,-53.7502,-20.7501
13:24:32.804,-54.3752,-21.6876
13:24:32.814,-55.2502,-22.7501
13:24:32.824,-55.8752,-21.6876
13:24:32.834,-55.4377,-22.3126
13:24:32.844,-56.4377,-22.0001
13:24:32.854,-55.4377,-20.0001
13:24:32.864,-54.8127,-19.6876
13:24:32.874,-51.8127,-18.5001
13:24:32.884,-46.2502,-16.1876
13:24:32.894,-41.2502,-17.9376
13:24:32.904,-35.0001,-18.5626
13:24:32.913,-30.0001,-20.8126
13:24:32.924,-22.3751,-25.5626
13:24:32.934,-12.75,-28.1876
13:24:32.944,-4.0625,-29.8751
13:24:32.954,1.4375,-29.4376
13:24:32.964,5.6875,-25.3126
13:24:32.974,8,-21.3751
13:24:32.984,11.4375,-16.8126
13:24:32.996,11.875,-14.1251
13:24:33.005,15.9376,-11.125
13:24:33.014,24.3751,-5.625
13:24:33.024,34.8751,0.875
13:24:33.034,42.8752,7.0625
13:24:33.044,51.3752,13.2501
13:24:33.054,57.6252,19.4376
13:24:33.064,65.2502,25.4376
13:24:33.074,72.1878,31.2501
13:24:33.086,75.8128,35.3751
13:24:33.094,78.5003,38.2501
13:24:33.105,78.6878,40.5002
13:24:33.114,78.7503,41.6252
13:24:33.124,76.6253,42.0627
13:24:33.134,72.2503,41.3752
13:24:33.144,66.9378,37.3126
13:24:33.155,60.7502,34.1876
13:24:33.164,53.5627,27.8751
13:24:33.175,46.8752,24.7501
13:24:33.184,39.9377,18.2501
13:24:33.194,34.2501,13.8751
13:24:33.204,26.6876,7.875
13:24:33.214,18.8751,2.6875
13:24:33.224,13,-2.4375
13:24:33.234,4.6875,-6.6875
13:24:33.246,-1.5625,-10.5625
13:24:33.254,-7.1875,-13.6251
13:24:33.265,-13.8751,-15.3126
13:24:33.274,-18.1251,-16.3126
13:24:33.288,-22.7501,-17.1251
13:24:33.294,-26.7501,-16.8751
13:24:33.304,-30.4376,-17.1876
13:24:33.321,-34.8751,-16.6876
13:24:33.324,-37.3751,-16.3751
13:24:33.339,-39.2501,-16.2501
13:24:33.355,-42.3752,-14.9376
13:24:33.357,-43.7502,-15.0626
13:24:33.367,-45.3127,-14.0626
13:24:33.374,-46.3127,-12.3125
13:24:33.384,-48.4377,-13.5001
13:24:33.394,-51.2502,-12.3125
13:24:33.404,-52.6252,-13.3126
13:24:33.414,-55.3752,-13.125
13:24:33.424,-56.4377,-16.0001
13:24:33.434,-58.5627,-13.4376
13:24:33.447,-59.7502,-14.7501
13:24:33.454,-62.1252,-16.0001
13:24:33.465,-64.0627,-14.6876
13:24:33.474,-66.3753,-16.0001
13:24:33.486,-67.3753,-15.3751
13:24:33.494,-69.6878,-15.8126
13:24:33.505,-70.3753,-15.6251
13:24:33.514,-70.8128,-15.3126
13:24:33.524,-72.2503,-15.4376
13:24:33.534,-71.9378,-14.9376
13:24:33.544,-72.5003,-15.3126
13:24:33.554,-73.1878,-14.6876
13:24:33.564,-72.1878,-14.9376
13:24:33.574,-72.2503,-14.5626
13:24:33.584,-71.1253,-13.1876
13:24:33.594,-70.8753,-13.7501
13:24:33.604,-69.8128,-12.625
13:24:33.614,-69.0628,-13.2501
13:24:33.647,-68.4378,-12
13:24:33.649,-68.0628,-13.4376
13:24:33.651,-68.7503,-12.125
13:24:33.655,-68.1253,-13.2501
13:24:33.668,-66.8128,-11.625
13:24:33.674,-66.0003,-12.8125
13:24:33.684,-64.6877,-11.9375
13:24:33.694,-63.8127,-11.0625
13:24:33.704,-62.6877,-12.3125
13:24:33.714,-62.3127,-10.75
13:24:33.724,-60.6877,-11.75
13:24:33.734,-60.3127,-11.0625
13:24:33.758,-59.3127,-11.875
13:24:33.760,-59.3127,-12.3125
13:24:33.766,-58.0627,-12.25
13:24:33.789,-56.0002,-10.375
13:24:33.791,-53.4377,-11.1875
13:24:33.794,-52.7502,-10.1875
13:24:33.829,-51.6877,-10.8125
