timestamp,Red,IR
16:14:14.786,48.8127,59.4377
16:14:14.797,50.5002,64.6252
16:14:14.806,49.8127,67.1878
16:14:14.816,47.5002,65.1252
16:14:14.826,46.1877,61.0627
16:14:14.836,44.3127,59.1877
16:14:14.846,44.3127,56.5627
16:14:14.857,44.2502,54.8127
16:14:14.866,42.6877,52.0002
16:14:14.877,41.3127,48.6877
16:14:14.887,38.3126,41.8752
16:14:14.912,35.3126,36.6251
16:14:14.914,31.6251,30.5001
16:14:14.922,27.5626,22.7501
16:14:14.931,24.5001,18.6251
16:14:14.941,22.5001,12.75
16:14:14.951,21.6251,9.625
16:14:14.994,21.1876,6.1875
16:14:14.994,20.7501,3.625
16:14:14.998,19.9376,2.25
16:14:14.999,17.9376,1
16:14:15.007,16.6876,-0.125
16:14:15.011,15.8751,-2.4375
16:14:15.048,16.2501,-1.6875
16:14:15.050,16.7501,-0.125
16:14:15.054,17.6876,-0.1875
16:14:15.056,18.8126,1.125
16:14:15.062,19.0626,0.8125
16:14:15.095,18.9376,0.625
16:14:15.097,17.8126,-1.125
16:14:15.100,16.6876,-2.25
16:14:15.102,16.5626,-2.875
16:14:15.137,15.5626,-4.1875
16:14:15.139,14.8751,-6
16:14:15.142,13.4376,-7.5625
16:14:15.144,11.375,-11
16:14:15.153,10.5,-12.625
16:14:15.162,9.4375,-14.6876
16:14:15.172,8.25,-17.5001
16:14:15.182,7.3125,-18.7501
16:14:15.191,7.25,-19.1251
16:14:15.215,7.125,-20.8126
16:14:15.223,7.3125,-20.5626
16:14:15.227,7.6875,-21.3751
16:14:15.239,6.9375,-22.2501
16:14:15.254,5.8125,-23.6876
16:14:15.259,5.1875,-24.6876
16:14:15.263,4.125,-25.8126
16:14:15.272,3.625,-25.8126
16:14:15.281,5.6875,-24.5626
16:14:15.293,7.9375,-20.9376
16:14:15.302,13,-15.8751
16:14:15.311,17.0626,-7.25
16:14:15.322,24.4376,3.75
16:14:15.332,31.5001,20.9376
16:14:15.341,37.6876,38.5001
16:14:15.355,43.3127,50.1877
16:14:15.363,45.2502,58.8752
16:14:15.376,47.6252,64.1877
16:14:15.385,49.6252,68.6253
16:14:15.391,50.0002,68.6253
16:14:15.407,49.5627,67.9378
16:14:15.424,48.1252,65.5627
16:14:15.427,45.7502,61.0627
16:14:15.431,43.0002,58.2502
16:14:15.441,39.6877,51.5002
16:14:15.453,35.5626,47.0002
16:14:15.461,32.7501,40.3127
16:14:15.471,29.7501,35.1876
16:14:15.481,27.8751,31.9376
16:14:15.497,26.3126,25.5626
16:14:15.501,24.1251,21.5626
16:14:15.511,21.1876,15.8126
16:14:15.521,18.0001,9.3125
16:14:15.531,14.5626,4.3125
16:14:15.541,11.6875,-0.8125
16:14:15.551,9.6875,-3.3125
16:14:15.561,9.6875,-4.3125
16:14:15.571,10.8125,-3.4375
16:14:15.584,12.3125,-2.625
16:14:15.594,13.3126,-1.9375
16:14:15.630,14.2501,-0.4375
16:14:15.633,13.8751,-0.8125
16:14:15.635,13.2501,-1.3125
16:14:15.640,10.875,-2.5625
16:14:15.641,10.6875,-3.875
16:14:15.652,9.3125,-4.625
16:14:15.663,10.4375,-5.125
16:14:15.671,10.8125,-4.4375
16:14:15.681,11.375,-4.375
16:14:15.691,10.75,-6.75
16:14:15.701,9.3125,-7.75
16:14:15.712,7.375,-10.5625
16:14:15.722,3.875,-14.3126
16:14:15.733,1.5625,-18.9376
16:14:15.742,-1.9375,-21.4376
16:14:15.754,-2.5,-25.1876
16:14:15.761,-2.9375,-25.0001
16:14:15.802,-2.0625,-26.5001
16:14:15.805,-3.0625,-26.3126
16:14:15.806,-3.5625,-28.3751
16:14:15.809,-4.9375,-30.5001
16:14:15.811,-6.8125,-32.0626
16:14:15.844,-8.375,-34.5001
16:14:15.846,-8,-34.1876
16:14:15.849,-7.6875,-34.1876
16:14:15.854,-5.1875,-30.7501
16:14:15.874,-2.75,-28.5626
16:14:15.900,1.375,-22.1251
16:14:15.902,7,-12.3125
16:14:15.905,13.6876,2.75
16:14:15.908,20.6876,19.8751
16:14:15.912,26.3126,34.9376
16:14:15.943,30.1876,43.6252
16:14:15.945,34.8126,52.7502
16:14:15.946,37.5001,59.5627
16:14:15.953,40.1252,61.2502
16:14:15.962,40.2502,62.8752
16:14:15.971,40.0002,60.1252
16:14:15.983,36.8751,57.1877
16:14:15.991,33.8126,52.0002
16:14:16.002,31.3751,47.4377
16:14:16.012,28.2501,43.3752
16:14:16.021,27.3751,39.2502
16:14:16.031,26.2501,37.3751
16:14:16.041,25.5626,32.1876
16:14:16.052,23.4376,27.8126
16:14:16.062,20.4376,23.5001
16:14:16.071,16.8126,16.6876
16:14:16.081,13.1251,10.125
16:14:16.091,9.9375,6
16:14:16.102,9.4375,2.375
16:14:16.112,9.125,0.8125
16:14:16.121,10,-0.3125
16:14:16.131,8.875,-1.8125
16:14:16.142,8.4375,-2.75
16:14:16.152,7.5,-3.9375
16:14:16.162,7.0625,-3.125
16:14:16.191,7.0625,-5.1875
16:14:16.194,6.6875,-5
16:14:16.196,7.5625,-4.1875
16:14:16.202,8.3125,-4.1875
16:14:16.213,9.3125,-2.3125
16:14:16.223,11.375,-2.25
16:14:16.231,10.8125,-2.875
16:14:16.248,9.5625,-4
16:14:16.253,8.5,-7.125
16:14:16.263,6.4375,-9
16:14:16.272,4.1875,-12.3125
16:14:16.281,2.625,-15.7501
16:14:16.291,1.4375,-17.4376
16:14:16.302,1.5625,-18.5001
16:14:16.312,1.375,-19.3126
16:14:16.322,1.375,-21.0626
16:14:16.331,1.125,-21.8751
16:14:16.343,-0.1875,-25.1251
16:14:16.353,-2.3125,-26.4376
16:14:16.362,-4.25,-29.6876
16:14:16.371,-6.3125,-31.6876
16:14:16.381,-7.625,-34.1251
16:14:16.391,-7.1875,-33.6251
16:14:16.402,-6.1875,-33.1876
16:14:16.412,-4.625,-31.9376
16:14:16.422,-2.6875,-29.2501
16:14:16.431,-0.125,-22.8126
16:14:16.442,4.5625,-14.5626
16:14:16.481,10.9375,-0.5625
16:14:16.483,18.6876,16.4376
16:14:16.486,24.5001,32.4376
16:14:16.498,30.0001,44.2502
16:14:16.501,32.9376,52.4377
16:14:16.502,35.8126,56.9377
16:14:16.537,35.5626,59.6877
16:14:16.581,35.1876,57.9377
16:14:16.585,34.0001,56.8752
16:14:16.614,31.6876,52.3127
16:14:16.615,29.6251,49.3752
16:14:16.623,27.1251,47.3127
16:14:16.626,25.5001,41.8752
16:14:16.626,24.5001,40.1877
16:14:16.634,24.3126,36.8751
16:14:16.644,23.5626,33.1251
16:14:16.652,20.7501,29.6251
16:14:16.661,18.4376,24.4376
16:14:16.671,14.8126,18.8126
16:14:16.693,11.125,13.6251
16:14:16.695,9.0625,7.1875
16:14:16.704,6.625,4.75
16:14:16.712,6.625,1.1875
16:14:16.726,5.6875,-0.1875
16:14:16.736,6.6875,-1.0625
16:14:16.742,5.8125,-2.4375
16:14:16.751,4.9375,-3.9375
16:14:16.761,4.6875,-4.5
16:14:16.771,3.8125,-5.5625
16:14:16.782,3.8125,-6.125
16:14:16.791,3.6875,-7.8125
16:14:16.802,3.0625,-10.125
16:14:16.813,2.5625,-11.375
16:14:16.823,2.75,-12.125
16:14:16.833,1.5,-13.6876
16:14:16.842,0.25,-15.5626
16:14:16.852,-1.625,-18.9376
16:14:16.862,-3.5,-21.5001
16:14:16.872,-5.5625,-24.3126
16:14:16.881,-7.5,-28.2501
16:14:16.891,-8.9375,-30.0626
16:14:16.902,-10.3125,-33.1876
16:14:16.912,-10.5625,-33.0001
16:14:16.921,-10.125,-35.1251
16:14:16.931,-10.375,-34.9376
16:14:16.941,-11.125,-37.3751
16:14:16.952,-10.75,-36.8126
16:14:16.961,-10.5625,-37.6876
16:14:16.971,-11.4375,-37.2501
16:14:16.982,-11.1875,-38.0626
16:14:16.991,-10.8125,-37.6876
16:14:17.005,-8.625,-33.1876
16:14:17.011,-3.5625,-24.1251
16:14:17.021,4.4375,-9.3125
16:14:17.032,14.3751,10
16:14:17.042,22.7501,28.0001
16:14:17.051,29.2501,42.0627
16:14:17.062,32.5001,50.9377
16:14:17.071,34.3126,55.9377
16:14:17.081,33.4376,56.8127
16:14:17.092,32.5626,55.8752
16:14:17.104,30.7501,54.2502
16:14:17.111,29.5626,52.0627
16:14:17.121,28.9376,50.3752
16:14:17.135,28.3751,48.5627
16:14:17.142,27.9376,45.3752
16:14:17.151,26.5626,42.1877
16:14:17.175,23.3126,38.6876
16:14:17.177,21.0626,35.0626
16:14:17.193,18.8126,30.1251
16:14:17.196,16.7501,26.1876
16:14:17.229,15.6876,24.4376
16:14:17.231,14.8126,20.0626
16:14:17.234,12.5625,15.5001
16:14:17.242,11.25,13.1876
16:14:17.244,9.1875,8.5
16:14:17.251,7.5,5
16:14:17.289,5.3125,2.0625
16:14:17.291,4.5,-0.0625
16:14:17.293,5,-0.875
16:14:17.295,4.4375,-0.1875
16:14:17.302,5.0625,0
16:14:17.331,5.5,-0.875
16:14:17.334,5.375,-0.75
16:14:17.336,5.5625,-1.25
16:14:17.345,5.375,-2.375
16:14:17.352,4.5625,-3.375
16:14:17.362,4.4375,-4.625
16:14:17.371,3.5625,-5.625
16:14:17.382,3.25,-5.5
16:14:17.392,3.5625,-7.6875
16:14:17.401,2.6875,-9.5625
16:14:17.412,2.6875,-9.6875
16:14:17.422,2.0625,-12.625
16:14:17.433,1,-14.5626
16:14:17.441,-0.125,-17.5001
16:14:17.470,-2.6875,-20.0626
16:14:17.473,-3.75,-23.3751
16:14:17.475,-5.875,-25.9376
16:14:17.484,-5.4375,-27.5001
16:14:17.492,-7.375,-29.2501
16:14:17.502,-8.125,-30.5626
16:14:17.511,-9,-34.1876
16:14:17.522,-11.3125,-35.6251
16:14:17.531,-12.75,-38.8751
16:14:17.542,-14.6251,-40.0002
16:14:17.551,-15.3126,-42.4377
16:14:17.561,-14.6251,-41.1877
16:14:17.571,-12.3125,-40.6252
16:14:17.582,-10.4375,-36.5626
16:14:17.592,-5.5,-30.8751
16:14:17.602,0.6875,-18.3751
16:14:17.611,8.9375,-3.4375
16:14:17.622,16.9376,15.3751
16:14:17.632,22.1876,30.3751
16:14:17.641,25.8751,40.5002
16:14:17.652,29.3126,49.0627
16:14:17.661,31.8126,53.0627
16:14:17.672,32.3126,54.3752
16:14:17.682,19.1251,55.5627
16:14:17.691,18.5626,53.0627
16:14:17.701,15.8751,51.1252
16:14:17.711,13.5001,46.5627
16:14:17.721,10.5,43.5002
16:14:17.732,9.25,39.0626
16:14:17.743,8,36.8126
16:14:17.756,8.9375,34.6876
16:14:17.761,7.6875,33.0001
16:14:17.772,8.25,30.2501
16:14:17.783,7.25,27.1251
16:14:17.792,6,25.8751
16:14:17.801,6.0625,23.1251
16:14:17.811,5.4375,19.6251
16:14:17.822,5.4375,17.7501
16:14:17.831,4.0625,14.1251
16:14:17.842,2.875,12.625
16:14:17.852,2,8.75
16:14:17.866,1.9375,7.75
16:14:17.874,1.625,6.625
16:14:17.910,2.0625,5
16:14:17.912,2.5625,5.8125
16:14:17.947,1.875,3.75
16:14:17.950,2.0625,4.1875
16:14:17.975,0.375,1.4375
16:14:17.975,-0.875,0.3125
16:14:17.978,-1.4375,-1.375
16:14:17.978,-2.625,-3.1875
16:14:18.013,-2.8125,-4.0625
16:14:18.016,-3.3125,-5.0625
16:14:18.031,-2.75,-6.4375
16:14:18.065,-3.625,-8
16:14:18.067,-4.125,-9.625
16:14:18.067,-6.1875,-11.875
16:14:18.082,-8,-14.8751
16:14:18.091,-9.1875,-17.3751
16:14:18.099,-10.8125,-21.6876
16:14:18.099,-12.5625,-24.3751
16:14:18.099,-13.1876,-26.4376
16:14:18.100,-14.6251,-28.6251
16:14:18.103,-16.1876,-31.3751
16:14:18.111,-17.8751,-34.0626
16:14:18.121,-21.4376,-41.8127
16:14:18.131,-24.0001,-44.2502
16:14:18.141,-25.5001,-47.1252
16:14:18.151,-25.9376,-47.7502
16:14:18.161,-25.8126,-48.9377
16:14:18.171,-24.2501,-46.6877
16:14:18.181,-22.1251,-46.5627
16:14:18.191,-20.6876,-43.8752
16:14:18.201,-16.5626,-37.7501
16:14:18.212,-10.9375,-27.5626
16:14:18.224,-3.125,-11.6875
16:14:18.231,6,7.3125
16:14:18.242,12.875,22.9376
16:14:18.251,18.2501,37.5626
16:14:18.262,22.6876,44.6252
16:14:18.271,24.6251,49.0002
16:14:18.282,24.1876,52.3752
16:14:18.291,23.4376,49.8127
16:14:18.301,21.8126,48.0627
16:14:18.318,18.3751,44.3127
16:14:18.326,16.4376,40.2502
16:14:18.338,14.6876,37.9376
16:14:18.346,15.0626,35.5001
16:14:18.356,14.5001,34.8126
16:14:18.366,14.1876,32.1876
16:14:18.376,13.5001,29.6251
16:14:18.386,12.6875,27.2501
16:14:18.396,10.875,24.8126
16:14:18.407,9.9375,21.1251
16:14:18.416,7.8125,18.2501
16:14:18.426,6.6875,15.2501
16:14:18.437,6.3125,11.1875
16:14:18.447,4.625,9.5
16:14:18.456,5.25,7.375
16:14:18.466,4.625,6.125
16:14:18.476,4.0625,2.875
16:14:18.486,2.25,1.5
16:14:18.498,1.4375,-0.4375
16:14:18.506,-0.0625,-2.8125
16:14:18.517,-2.1875,-4.4375
16:14:18.526,-2.75,-4.6875
16:14:18.537,-1,-4.125
16:14:18.546,-0.3125,-4.625
16:14:18.557,-0.0625,-3.3125
16:14:18.567,-0.375,-5.3125
16:14:18.576,-1.8125,-8.625
16:14:18.587,-3.0625,-9.5625
16:14:18.596,-2.6875,-11.6875
16:14:18.606,-2.125,-12.4375
16:14:18.618,-1.125,-12.6875
16:14:18.626,-1.6875,-13.0625
16:14:18.637,-1.5625,-15.5001
16:14:18.648,-2.3125,-18.4376
16:14:18.657,-5.25,-22.1251
16:14:18.666,-6.25,-23.7501
16:14:18.705,-7.4375,-26.5001
16:14:18.709,-7.75,-27.5001
16:14:18.711,-7.5,-30.1251
16:14:18.711,-7.9375,-30.5001
16:14:18.720,-8.5625,-33.3126
16:14:18.752,-10.75,-35.5001
16:14:18.754,-13,-39.2502
16:14:18.756,-14.9376,-41.5627
16:14:18.795,-18.0626,-46.1877
16:14:18.796,-19.6876,-47.1877
16:14:18.799,-19.8751,-47.8752
16:14:18.804,-17.8751,-46.5002
16:14:18.805,-16.4376,-45.2502
16:14:18.816,-14.7501,-42.9377
16:14:18.818,-12.375,-39.8752
16:14:18.843,-7.9375,-32.3126
16:14:18.846,-1.125,-20.8126
16:14:18.848,6.75,-1.25
16:14:18.860,14.3751,15.5001
16:14:18.867,20.3751,30.6251
16:14:18.878,26.5626,40.9377
16:14:18.888,28.8126,47.3752
16:14:18.897,29.3751,50.8127
16:14:18.907,29.1876,51.0002
16:14:18.916,28.2501,49.4377
16:14:18.927,27.4376,47.5627
16:14:18.937,25.3751,45.0627
16:14:18.946,24.8751,42.7502
16:14:18.959,23.6251,40.3752
16:14:18.966,23.9376,37.8126
16:14:18.977,22.3751,35.5626
16:14:18.987,21.9376,32.5001
16:14:18.996,20.8126,29.6251
16:14:19.006,20.0001,26.3751
16:14:19.018,17.8751,23.1876
16:14:19.027,18.4376,20.3751
16:14:19.038,15.9376,16.8126
16:14:19.046,14.7501,13.3126
16:14:19.058,13.0625,9.25
16:14:19.067,12.0625,7.8125
16:14:19.076,11.4375,5.6875
16:14:19.087,10.4375,2.8125
16:14:19.097,10.125,0.9375
16:14:19.106,9.375,0
16:14:19.119,9.125,-1
16:14:19.128,10.25,-1.125
16:14:19.137,9.75,-0.75
16:14:19.147,10.625,-0.875
16:14:19.156,9.9375,-1
16:14:19.167,8.5,-2.375
16:14:19.177,6.9375,-5.0625
16:14:19.194,6.6875,-6.125
16:14:19.196,6.125,-6.375
16:14:19.212,7.625,-7.4375
16:14:19.226,5.875,-8.125
16:14:19.230,5.625,-10.0625
16:14:19.245,4.4375,-12.625
16:14:19.249,2.4375,-15.9376
16:14:19.262,0.3125,-18.8751
16:14:19.269,-2.625,-22.6251
16:14:19.277,-3.75,-24.6251
16:14:19.287,-5.5625,-28.0626
16:14:19.298,-4.8125,-28.8751
16:14:19.306,-5.5,-28.5626
16:14:19.319,-4.875,-30.6876
16:14:19.328,-5.3125,-30.6876
16:14:19.338,-6.875,-34.1876
16:14:19.346,-9.375,-36.4376
16:14:19.365,-11,-40.1252
16:14:19.367,-13.6876,-41.2502
16:14:19.438,-13.9376,-43.3752
16:14:19.468,-13.0625,-43.4377
16:14:19.470,-10.5625,-40.6877
16:14:19.472,-9.75,-40.7502
16:14:19.478,-8.3125,-38.8126
16:14:19.478,-8,-39.8752
16:14:19.478,-7.1875,-37.9376
16:14:19.483,-6.1875,-35.2501
16:14:19.523,-3.3125,-27.5001
16:14:19.523,3.5625,-16.1251
16:14:19.527,11.875,3.125
16:14:19.529,22.0626,21.7501
16:14:19.534,28.5001,37.7501
16:14:19.548,33.6251,47.7502
16:14:19.553,34.9376,54.5002
16:14:19.562,35.1251,55.3127
16:14:19.573,32.8751,54.0627
16:14:19.581,30.3126,51.2502
16:14:19.593,28.8751,49.1252
16:14:19.603,28.1251,46.5627
16:14:19.612,27.7501,44.3752
16:14:19.624,27.6251,43.0627
16:14:19.639,26.6876,39.6877
16:14:19.643,16.8751,18.3751
16:14:19.653,15.2501,14.3751
16:14:19.663,14.1876,11.5
16:14:19.674,11.9375,6.125
16:14:19.684,9.4375,0.9375
16:14:19.692,7.1875,-1.5
16:14:19.703,6.25,-5.5
16:14:19.711,5.125,-6.6875
16:14:19.722,5.6875,-7.125
16:14:19.733,4.6875,-7.9375
16:14:19.742,5.1875,-8.375
16:14:19.753,4.9375,-8.25
16:14:19.762,5.3125,-7.75
16:14:19.772,5.1875,-8.4375
16:14:19.783,5.25,-8
16:14:19.793,5.9375,-9.375
16:14:19.802,4.75,-8.0625
16:14:19.813,4.1875,-11.25
16:14:19.822,3.625,-11.125
16:14:19.833,3.5625,-13.3751
16:14:19.842,1.6875,-15.0626
16:14:19.853,0.75,-16.8126
16:14:19.863,0.0625,-20.0001
16:14:19.873,0.3125,-19.7501
16:14:19.883,0,-20.5626
16:14:19.891,-0.0625,-22.4376
16:14:19.903,-1.25,-22.3126
16:14:19.915,-1.5,-25.5626
16:14:19.923,-3.9375,-27.5001
16:14:19.934,-5.375,-30.5626
16:14:19.942,-8.1875,-32.0001
16:14:19.952,-8.9375,-35.8751
16:14:19.962,-10.625,-36.4376
16:14:19.972,-9.625,-38.1251
16:14:19.983,-9.625,-37.3126
16:14:19.993,-9,-38.0001
16:14:20.002,-10.1875,-37.5626
16:14:20.032,-9.9375,-39.5002
16:14:20.035,-10.9375,-39.3127
16:14:20.039,-10.125,-39.8752
16:14:20.044,-10.1875,-38.7501
16:14:20.053,-8.8125,-38.0626
16:14:20.067,-8.0625,-36.1251
16:14:20.073,-5,-32.9376
16:14:20.108,-0.4375,-24.6251
16:14:20.109,6.1875,-14.1251
16:14:20.111,13.8751,1.125
16:14:20.117,20.3126,17.3751
16:14:20.130,25.6251,31.8751
16:14:20.135,29.8751,42.0002
16:14:20.165,31.9376,48.3752
16:14:20.167,33.2501,52.1252
16:14:20.169,34.6251,54.5627
16:14:20.173,35.0001,55.1877
16:14:20.203,34.4376,53.1877
16:14:20.207,32.9376,51.3127
16:14:20.209,31.4376,46.5627
16:14:20.239,28.6251,43.5002
16:14:20.239,26.3126,36.2501
16:14:20.244,22.6251,30.4376
16:14:20.248,20.4376,24.0001
16:14:20.252,18.6876,19.3751
16:14:20.261,17.5001,15.7501
16:14:20.272,16.5001,10.0625
16:14:20.282,14.4376,5.5
16:14:20.294,12.625,1.875
16:14:20.303,10.625,-2.875
16:14:20.313,8.625,-7
16:14:20.323,5.3125,-10.0625
16:14:20.334,4.6875,-11.6875
16:14:20.343,4.75,-13.6876
16:14:20.352,5.25,-12.625
16:14:20.362,6,-12.125
16:14:20.373,6.4375,-10.1875
16:14:20.387,8.0625,-10.1875
16:14:20.393,7.5,-9.4375
16:14:20.403,6.75,-10.6875
16:14:20.413,5.6875,-11.375
16:14:20.422,5,-12.25
16:14:20.434,4.5625,-12.9375
16:14:20.442,5.25,-12.6875
16:14:20.454,6.125,-12.5625
16:14:20.463,6.6875,-12.875
16:14:20.473,6.9375,-12.75
16:14:20.483,6.0625,-15.4376
16:14:20.492,5,-16.3126
16:14:20.512,3.0625,-18.0001
16:14:20.521,1.8125,-20.5626
16:14:20.527,1.125,-22.4376
16:14:20.532,1.5625,-22.6251
16:14:20.549,0.9375,-22.3126
16:14:20.555,1.75,-23.5626
16:14:20.564,1.875,-24.4376
16:14:20.573,0.375,-25.8751
16:14:20.583,-0.4375,-26.7501
16:14:20.593,-0.6875,-28.1251
16:14:20.602,-1.625,-27.2501
16:14:20.613,-0.75,-27.1876
16:14:20.623,1.125,-26.2501
16:14:20.633,1.6875,-25.3126
16:14:20.643,2.875,-24.8126
16:14:20.654,1.875,-25.0001
16:14:20.664,1.875,-26.3126
16:14:20.672,0.75,-26.0001
16:14:20.683,2.625,-24.0626
16:14:20.693,4.3125,-19.5001
16:14:20.714,11.3125,-10.1875
16:14:20.718,19.3751,4.375
16:14:20.726,27.0626,21.7501
16:14:20.734,35.2501,37.0001
16:14:20.752,41.1877,49.0627
16:14:20.765,42.6252,56.3752
16:14:20.768,43.3752,59.7502
16:14:20.772,43.4377,62.4377
16:14:20.787,43.6252,60.6877
16:14:20.794,44.6252,61.0002
16:14:20.802,44.6252,58.8127
16:14:20.816,44.1252,56.5627
16:14:20.824,42.3752,51.8752
16:14:20.832,40.1877,46.6252
16:14:20.843,36.1251,37.1251
16:14:20.853,31.5001,30.3126
16:14:20.863,26.8126,21.1876
16:14:20.904,23.5626,14.6876
16:14:20.906,21.8126,10.25
16:14:20.909,21.3751,6.8125
16:14:20.916,21.6251,4.375
16:14:20.916,20.8126,1.3125
16:14:20.923,19.1251,0.25
16:14:20.950,17.6876,-2.8125
16:14:20.952,16.5001,-5.5
16:14:20.954,13.7501,-7.25
16:14:20.989,13.8751,-6.5
16:14:20.993,14.6876,-6.25
16:14:20.995,17.1251,-3.4375
16:14:20.997,19.2501,0.375
16:14:21.003,21.3126,1.0625
16:14:21.037,22.1876,1.25
16:14:21.039,21.2501,1.4375
16:14:21.041,19.8751,-0.375
16:14:21.061,17.5001,-2.5
16:14:21.061,14.6251,-3.75
16:14:21.065,13.5001,-6.4375
16:14:21.074,13.0625,-7.4375
16:14:21.083,14.6876,-6.375
16:14:21.093,14.7501,-4.9375
16:14:21.102,15.1251,-6.875
16:14:21.114,14.4376,-7.4375
16:14:21.123,12.9375,-9.125
16:14:21.138,10.375,-12.25
16:14:21.142,8.5625,-14.6251
16:14:21.153,5.4375,-17.0001
16:14:21.163,5.75,-17.4376
16:14:21.173,7.0625,-15.3751
16:14:21.183,10.25,-13.6876
16:14:21.193,12.6875,-13.125
16:14:21.202,12.8125,-11.4375
16:14:21.213,13.5001,-11.9375
16:14:21.223,11.375,-13.2501
16:14:21.233,8.375,-14.8751
16:14:21.243,6.625,-18.4376
16:14:21.252,6.3125,-18.4376
16:14:21.269,8.1875,-16.0626
16:14:21.279,11.125,-12.8125
16:14:21.311,15.7501,-5.5
16:14:21.314,22.0001,4.375
16:14:21.317,29.0001,16.8751
16:14:21.333,34.8751,32.4376
16:14:21.335,41.0002,46.3127
16:14:21.338,44.8127,56.6252
16:14:21.348,46.8127,63.3127
16:14:21.357,49.5002,67.9378
16:14:21.368,50.0627,70.6878
16:14:21.377,50.1252,70.7503
16:14:21.389,49.0002,68.3128
16:14:21.407,45.8752,63.0002
16:14:21.409,42.9377,58.6252
16:14:21.417,38.5626,50.8127
16:14:21.427,34.2501,42.6877
16:14:21.438,29.8751,34.4376
16:14:21.448,28.0001,28.1876
16:14:21.458,24.4376,22.6251
16:14:21.468,21.1876,16.8751
16:14:21.479,17.9376,10.375
16:14:21.487,15.3126,6.625
16:14:21.498,13.5001,1.625
16:14:21.513,11.5,-1.4375
16:14:21.518,10.625,-3.8125
16:14:21.527,10.625,-3.375
16:14:21.538,11.9375,-3.25
16:14:21.548,12.375,-2.5625
16:14:21.558,12.875,-1.375
16:14:21.569,12.875,-1.75
16:14:21.578,11.9375,-2.1875
16:14:21.588,11.3125,-2.9375
16:14:21.620,9.5,-4.125
16:14:21.623,9.5625,-4.3125
16:14:21.625,9.5,-3.5
16:14:21.627,9.625,-3.0625
16:14:21.659,10.4375,-3.875
16:14:21.663,10,-3.3125
16:14:21.664,9.6875,-5
16:14:21.669,8.75,-4.25
16:14:21.707,8.375,-7.5
16:14:21.710,6.1875,-8.5625
16:14:21.711,5.25,-11.6875
16:14:21.719,3,-12.25
16:14:21.719,3.6875,-14.3751
16:14:21.749,3.9375,-13.1876
16:14:21.751,3.875,-15.2501
16:14:21.754,4.6875,-13.5001
16:14:21.758,4.625,-14.5626
16:14:21.776,4.8125,-15.3126
16:14:21.778,3.875,-16.5626
16:14:21.788,3.5,-17.6876
16:14:21.798,1.5,-18.8126
16:14:21.808,1.8125,-19.0001
16:14:21.818,1.625,-18.5001
16:14:21.839,2.4375,-17.4376
16:14:21.842,4,-15.0626
16:14:21.850,8.0625,-10.4375
16:14:21.858,13,0.125
16:14:21.874,18.8126,14.0001
16:14:21.891,26.5001,29.3751
16:14:21.894,32.8751,46.5002
16:14:21.903,37.4376,56.5627
16:14:21.914,40.6252,63.2502
16:14:21.922,43.3752,68.1878
16:14:21.933,44.3127,72.0003
16:14:21.942,44.4377,71.0003
16:14:21.953,42.5002,70.0628
16:14:21.963,39.6877,64.0627
16:14:21.972,36.8126,59.2502
16:14:21.982,34.2501,54.3127
16:14:21.992,30.9376,48.8127
16:14:22.003,28.1251,42.9377
16:14:22.013,25.1251,37.1251
16:14:22.033,22.5001,32.6876
16:14:22.035,20.8126,26.6876
16:14:22.048,18.0001,20.5626
16:14:22.066,15.3751,15.0001
16:14:22.067,13,9.25
16:14:22.076,11.25,6.0625
16:14:22.083,10.4375,3.8125
16:14:22.092,8.875,2.3125
16:14:22.102,7.625,0.25
16:14:22.113,6.375,-0.625
16:14:22.122,6.3125,-2
16:14:22.132,5.4375,-2.375
16:14:22.144,6.6875,-1.3125
16:14:22.154,7.375,-1.375
16:14:22.164,7.875,0.0625
16:14:22.174,7.9375,-1.125
16:14:22.183,8.625,0.1875
16:14:22.193,8.6875,-0.5
16:14:22.203,8.0625,-1.25
16:14:22.214,7,-1.4375
16:14:22.222,6.5,-4.0625
16:14:22.232,6.125,-5.25
16:14:22.246,6.0625,-5.4375
16:14:22.279,5.125,-8.1875
16:14:22.281,3.9375,-9.6875
16:14:22.282,1.625,-13.4376
16:14:22.285,-0.125,-15.3126
16:14:22.295,-2.4375,-18.4376
16:14:22.324,-4.0625,-21.5001
16:14:22.327,-5.0625,-22.5001
16:14:22.329,-4.25,-22.1876
16:14:22.335,-3.9375,-23.1876
16:14:22.371,-2.9375,-22.1876
16:14:22.373,-3.0625,-23.8751
16:14:22.375,-3.875,-23.8751
16:14:22.403,-5.1875,-25.3751
16:14:22.405,-5.5625,-24.7501
16:14:22.406,-6.25,-26.1876
16:14:22.412,-4.6875,-21.7501
16:14:22.421,0.4375,-12.8125
16:14:22.427,9.25,4.4375
16:14:22.438,18.4376,22.1251
16:14:22.448,26.8751,41.0002
16:14:22.457,31.8751,51.6877
16:14:22.469,34.9376,59.7502
16:14:22.478,34.8751,65.1252
16:14:22.488,34.6876,64.6877
16:14:22.498,32.9376,64.1252
16:14:22.508,32.3126,62.0002
16:14:22.518,31.9376,60.6877
16:14:22.527,30.9376,59.1877
16:14:22.538,29.8751,55.1252
16:14:22.548,28.3751,52.5627
16:14:22.559,26.1876,47.0627
16:14:22.590,22.9376,42.0627
16:14:22.593,20.1251,38.1876
16:14:22.595,17.2501,32.3751
16:14:22.597,15.7501,28.4376
16:14:22.608,14.9376,24.6876
16:14:22.618,13.1876,22.5626
16:14:22.629,12.4375,17.6876
16:14:22.638,10.5,14.8751
16:14:22.649,9.1875,11.4375
16:14:22.658,7.6875,9.3125
16:14:22.668,7.1875,7.6875
16:14:22.678,6.9375,6.6875
16:14:22.688,7.625,7.25
16:14:22.698,7.4375,4.8125
16:14:22.707,6.8125,6.1875
16:14:22.718,7.5625,5.75
16:14:22.727,7.6875,5.875
16:14:22.739,8.1875,5.3125
16:14:22.748,7.25,5.375
16:14:22.757,6.8125,4.375
16:14:22.767,6.625,2.375
16:14:22.778,5.5,1.6875
16:14:22.787,5.4375,0.125
16:14:22.801,3.9375,-2.5
16:14:22.810,1.5625,-5.0625
16:14:22.818,-1,-9.5
16:14:22.829,-1.75,-12.1875
16:14:22.837,-3.875,-15.6876
16:14:22.847,-4.4375,-16.9376
16:14:22.858,-3.3125,-17.5001
16:14:22.867,-4.0625,-18.1251
16:14:22.877,-2,-18.7501
16:14:22.887,-3.5,-20.2501
16:14:22.898,-4.1875,-21.3126
16:14:22.908,-6.75,-24.3751
16:14:22.920,-9.3125,-27.5001
16:14:22.928,-11.1875,-30.5001
16:14:22.938,-11.875,-32.3126
16:14:22.947,-10.125,-31.3126
16:14:22.957,-7.875,-28.5626
16:14:22.968,-3.4375,-21.6876
16:14:22.977,3,-11.375
16:14:22.988,11.5,4.9375
16:14:22.998,18.4376,23.0001
16:14:23.009,24.4376,37.5001
16:14:23.019,28.5001,50.1252
16:14:23.050,31.9376,56.4377
16:14:23.054,34.6876,61.7502
16:14:23.056,34.6251,63.5627
16:14:23.058,35.3126,64.6877
16:14:23.087,34.3126,64.0627
16:14:23.091,32.8751,60.9377
16:14:23.091,31.0626,58.0627
16:14:23.099,28.6876,56.5002
16:14:23.141,26.8751,51.6252
16:14:23.142,26.1876,48.1877
16:14:23.175,24.8751,45.9377
16:14:23.202,24.1876,43.8127
16:14:23.202,23.8751,42.6252
16:14:23.202,22.1876,39.0001
16:14:23.202,21.3126,37.4376
16:14:23.206,21.1876,34.5001
16:14:23.213,19.5626,30.9376
16:14:23.221,17.0626,27.1876
16:14:23.228,15.5001,23.8126
16:14:23.238,13.3126,20.3751
16:14:23.248,12.4375,18.0001
16:14:23.258,11.6875,16.6251
16:14:23.268,11.25,15.9376
16:14:23.279,11.625,14.8126
16:14:23.288,10.5625,15.2501
16:14:23.297,10.6875,14.0001
16:14:23.307,10.5,13.3751
16:14:23.317,9.3125,12.0625
16:14:23.328,9.5625,11.25
16:14:23.350,9.625,10.9375
16:14:23.352,8.8125,8.5625
16:14:23.369,7.75,6.125
16:14:23.371,6,4.4375
16:14:23.378,5.25,1.125
16:14:23.387,3.8125,-1.75
16:14:23.398,2.875,-3.3125
16:14:23.408,1.6875,-5.3125
16:14:23.417,0.6875,-8.25
16:14:23.427,-1.1875,-11.75
16:14:23.437,-3.4375,-15.1251
16:14:23.447,-3.875,-16.3126
16:14:23.460,-3.5625,-18.9376
16:14:23.467,-3.6875,-20.7501
16:14:23.477,-3.9375,-21.1251
16:14:23.487,-4.1875,-23.3126
16:14:23.498,-4.6875,-25.7501
16:14:23.507,-7.375,-28.4376
16:14:23.517,-8.5625,-29.6251
16:14:23.528,-7.875,-29.5626
16:14:23.537,-6.8125,-27.4376
16:14:23.550,-3.5,-25.8751
16:14:23.557,0.8125,-18.5001
16:14:23.567,8.125,-5
16:14:23.578,15.7501,12.6875
16:14:23.587,23.6876,29.3126
16:14:23.597,27.9376,42.3127
16:14:23.609,32.0001,51.1877
16:14:23.617,33.1251,56.3752
16:14:23.627,34.3126,59.0627
16:14:23.639,33.8751,60.5627
16:14:23.647,34.2501,60.0627
16:14:23.657,32.5626,58.7502
16:14:23.667,31.5001,56.8127
16:14:23.679,29.6876,54.1877
16:14:23.687,28.2501,51.5002
16:14:23.697,26.6251,49.4377
16:14:23.708,25.6876,47.2502
16:14:23.717,24.5001,44.7502
16:14:23.729,24.6251,43.6877
16:14:23.737,24.3126,41.1252
16:14:23.747,23.5626,40.0627
16:14:23.758,21.8751,38.4376
16:14:23.768,21.4376,34.4376
16:14:23.795,18.7501,30.0001
16:14:23.798,16.5001,27.5626
16:14:23.799,14.8751,24.3751
16:14:23.827,14.5626,23.5001
16:14:23.829,14.8751,21.2501
16:14:23.831,15.5626,21.6251
16:14:23.840,14.1251,19.5626
16:14:23.872,13.125,19.2501
16:14:23.874,11.375,16.0001
16:14:23.876,10.6875,15.0001
16:14:23.883,9.8125,12.8125
16:14:23.910,10.25,13.7501
16:14:23.913,11.1875,12.9375
16:14:23.914,11.5625,13.9376
16:14:23.949,11.5,13.1876
16:14:23.949,11.625,12.1875
16:14:23.949,9.8125,9.875
16:14:23.956,8.1875,6.875
16:14:23.962,6.3125,4.875
16:14:23.974,4.625,3.625
16:14:23.979,3.6875,1.0625
16:14:23.989,3.9375,1.0625
16:14:23.999,3.625,-2.3125
16:14:24.007,2.5625,-3.875
16:14:24.018,0.375,-8.0625
16:14:24.027,-1.6875,-10.75
16:14:24.038,-3.875,-13.9376
16:14:24.047,-5.9375,-18.4376
16:14:24.057,-7.375,-20.3751
16:14:24.067,-7.8125,-21.8126
16:14:24.077,-7.375,-24.3751
16:14:24.089,-7.25,-25.3751
16:14:24.097,-7.625,-26.2501
16:14:24.107,-9.0625,-29.0001
16:14:24.118,-10.875,-30.3126
16:14:24.127,-11.5,-33.1876
16:14:24.138,-11.875,-34.6876
16:14:24.147,-11.125,-34.0001
16:14:24.158,-9.4375,-31.5001
16:14:24.168,-5.375,-24.4376
16:14:24.179,1.75,-12.9375
16:14:24.188,9.3125,5.5
16:14:24.198,16.8126,21.1876
16:14:24.207,22.3126,34.2501
16:14:24.219,24.5626,44.0627
16:14:24.227,27.2501,47.8752
16:14:24.237,28.3751,52.0002
16:14:24.249,29.3126,53.3127
16:14:24.258,28.6251,54.2502
16:14:24.268,28.5001,53.4377
16:14:24.277,26.8126,50.5002
16:14:24.287,24.0626,48.8127
16:14:24.297,22.5001,45.2502
16:14:24.307,20.7501,43.7502
16:14:24.318,20.2501,40.5627
16:14:24.327,19.4376,39.8127
16:14:24.337,19.4376,37.5001
16:14:24.349,19.1251,36.2501
16:14:24.360,19.2501,36.2501
16:14:24.367,19.7501,35.1876
16:14:24.377,18.0001,31.6251
16:14:24.387,16.3751,30.7501
16:14:24.398,15.1876,26.4376
16:14:24.407,13.5626,23.5001
16:14:24.418,12.6875,21.9376
16:14:24.487,11.9375,20.1876
16:14:24.488,12.4375,19.1876
16:14:24.489,13.0625,18.3751
16:14:24.491,13.0625,19.0626
16:14:24.494,12.625,17.9376
16:14:24.525,11.8125,16.5001
16:14:24.525,11,15.8126
16:14:24.525,10.6875,14.5626
16:14:24.525,10.75,14.6251
16:14:24.526,11.5,14.8751
16:14:24.532,12.75,14.1251
16:14:24.539,13.1251,13.8751
16:14:24.572,12.375,13.5626
16:14:24.574,10.6875,11.8125
16:14:24.576,9.6875,8.8125
16:14:24.579,6.4375,5.25
16:14:24.609,5.125,1.5
16:14:24.610,4.3125,-0.3125
16:14:24.614,4.375,-1.625
16:14:24.620,3.8125,-2.75
16:14:24.629,3.375,-4.3125
16:14:24.646,1.6875,-7
16:14:24.649,-0.25,-10.25
16:14:24.663,-1.8125,-13.5626
16:14:24.670,-4.625,-17.1251
16:14:24.677,-6.625,-19.8751
16:14:24.689,-8.125,-22.4376
16:14:24.697,-8.1875,-24.6251
16:14:24.710,-6.875,-23.7501
16:14:24.721,-5.375,-24.0626
16:14:24.733,-2.8125,-22.8126
16:14:24.737,1.6875,-20.2501
16:14:24.749,6.25,-16.3126
16:14:24.758,11.9375,-11.6875
16:14:24.769,17.3126,-8.25
16:14:24.778,18.8751,-7.0625
16:14:24.789,18.9376,-9
16:14:24.797,22.5626,-5.5625
16:14:24.808,25.8126,-0.6875
16:14:24.818,34.2501,14.2501
16:14:24.828,37.6251,26.4376
16:14:24.838,36.0626,39.9377
16:14:24.849,28.8126,46.4377
16:14:24.858,14.7501,43.9377
16:14:24.869,-8.75,32.2501
16:14:24.877,-20.5001,26.0626
16:14:24.888,-27.8751,24.0001
16:14:24.899,-26.0626,26.8126
16:14:24.908,-21.3126,31.8751
16:14:24.919,-20.7501,34.1251
16:14:24.928,-25.9376,30.2501
16:14:24.939,-28.5626,27.5001
16:14:24.948,-27.8751,27.8126
16:14:24.958,-26.4376,27.7501
16:14:24.967,-29.0001,25.8126
16:14:24.978,-27.7501,26.3126
16:14:24.989,-26.0626,26.6876
16:14:24.998,-25.9376,25.7501
16:14:25.007,-25.6876,25.0001
16:14:25.017,-25.1876,25.6251
16:14:25.029,-24.3751,23.3126
16:14:25.038,-22.9376,24.0626
16:14:25.049,-24.6876,22.9376
16:14:25.058,-23.1251,21.8751
16:14:25.067,-21.5626,21.6876
16:14:25.079,-22.0001,21.2501
16:14:25.088,-22.6251,18.8751
16:14:25.097,-21.7501,19.8751
16:14:25.107,-21.9376,18.3126
16:14:25.119,-22.1876,17.5626
16:14:25.151,-21.9376,16.3126
16:14:25.153,-22.1876,15.2501
16:14:25.155,-21.3751,14.3126
16:14:25.158,-21.0001,15.0626
16:14:25.170,-20.5001,14.1251
16:14:25.177,-21.3126,13.3751
16:14:25.189,-21.3751,12.6875
16:14:25.208,-20.5001,10.4375
16:14:25.210,-20.5626,10.5625
16:14:25.241,-19.0001,10.0625
16:14:25.243,-18.4376,9.25
16:14:25.247,-17.3751,9.6875
16:14:25.249,-14.6876,9.25
16:14:25.279,-13.7501,10
16:14:25.280,-12.9375,10.3125
16:14:25.283,-10.3125,11.25
16:14:25.314,-8.5,11.9375
16:14:25.314,-6,13.1876
16:14:25.315,-3.25,14.8126
16:14:25.321,-2,16.1876
16:14:25.333,0.9375,16.5001
16:14:25.337,0.9375,16.6251
16:14:25.374,-0.1875,16.8126
16:14:25.380,-1.1875,13.5626
16:14:25.382,-2.5,10.5625
16:14:25.385,-3.5,9.5
16:14:25.393,-4.4375,6.9375
16:14:25.397,-4.9375,5.8125
16:14:25.411,-5.4375,4.6875
16:14:25.419,-6.25,2.875
16:14:25.430,-8.125,2.6875
16:14:25.438,-8.1875,0.5
16:14:25.448,-8.3125,-0.875
16:14:25.459,-8.3125,0.5625
16:14:25.467,-6.5625,2.25
16:14:25.482,-4.875,6.875
16:14:25.490,-0.6875,12.6875
16:14:25.498,3.0625,19.8751
16:14:25.509,5.8125,27.0001
16:14:25.519,8.75,34.1251
16:14:25.529,10.5625,39.1251
16:14:25.538,11.5625,41.9377
16:14:25.547,11.75,43.8752
16:14:25.559,11.5625,44.3127
16:14:25.569,10.625,45.8752
16:14:25.577,10.125,43.1252
16:14:25.589,8.0625,42.5002
16:14:25.598,6.875,39.6877
16:14:25.608,5.9375,37.5001
16:14:25.619,5.125,36.3126
16:14:25.628,3.8125,32.9376
16:14:25.638,1.6875,31.5626
16:14:25.649,0,29.2501
16:14:25.659,-1.75,26.4376
16:14:25.667,-3.125,23.0626
16:14:25.677,-5.75,21.3751
16:14:25.688,-6.375,17.7501
16:14:25.697,-9.5,15.4376
16:14:25.709,-10.5625,11.625
16:14:25.719,-13.5626,8.1875
16:14:25.729,-15.0626,7.875
16:14:25.740,-15.9376,4.0625
16:14:25.756,-17.8126,1.25
16:14:25.771,-19.1876,0.125
16:14:25.773,-20.0001,-1.625
16:14:25.777,-21.2501,-4.4375
16:14:25.789,-23.5001,-6
16:14:25.798,-24.3751,-8.75
16:14:25.808,-25.8126,-10.5
16:14:25.819,-27.6251,-12.125
16:14:25.829,-27.8126,-13.8126
16:14:25.839,-30.0001,-17.0626
16:14:25.849,-30.8751,-17.0001
16:14:25.858,-32.1251,-20.0001
16:14:25.869,-34.5001,-22.1251
16:14:25.879,-35.0626,-23.1876
16:14:25.889,-36.6251,-26.0626
16:14:25.898,-37.2501,-27.7501
16:14:25.931,-38.2501,-29.3751
16:14:25.934,-38.9376,-29.1876
16:14:25.968,-39.5627,-30.7501
16:14:25.969,-40.6877,-33.2501
16:14:25.972,-41.5627,-33.6251
16:14:25.981,-42.7502,-35.7501
16:14:25.981,-43.4377,-36.6876
16:14:25.982,-43.8127,-39.8752
16:14:26.021,-44.8752,-39.7502
16:14:26.022,-45.5002,-42.2502
16:14:26.025,-45.2502,-42.5627
16:14:26.026,-44.5002,-42.6252
16:14:26.029,-44.8752,-44.3752
16:14:26.062,-45.1252,-44.1252
16:14:26.064,-46.0627,-47.0627
16:14:26.066,-46.2502,-47.1252
16:14:26.074,-46.6252,-49.4377
16:14:26.079,-46.3752,-49.3127
16:14:26.092,-46.3752,-51.1877
16:14:26.099,-46.0002,-51.1252
16:14:26.109,-45.3127,-51.3127
16:14:26.119,-44.2502,-50.3752
16:14:26.129,-42.3752,-48.4377
16:14:26.139,-39.9377,-44.0627
16:14:26.149,-36.6876,-38.1251
16:14:26.159,-32.0626,-28.9376
16:14:26.170,-27.8751,-19.4376
16:14:26.179,-23.6876,-13.125
16:14:26.188,-20.0001,-6.375
16:14:26.198,-17.7501,0.0625
16:14:26.208,-15.6251,2.5625
16:14:26.219,-13.6251,5.125
16:14:26.233,-12.625,6.8125
16:14:26.238,-11.625,7.5625
16:14:26.249,-11.0625,7.625
16:14:26.259,-10.5,7.125
16:14:26.269,-10.375,7.3125
16:14:26.279,-10.0625,5.6875
16:14:26.288,-9.625,5.5625
16:14:26.299,-9.8125,5.25
16:14:26.309,-8.375,4.5625
16:14:26.318,-8.3125,5.8125
16:14:26.329,-7.9375,3.4375
16:14:26.339,-7.8125,1.8125
16:14:26.348,-9,1.1875
16:14:26.358,-8.6875,-0.625
16:14:26.369,-8.125,0.4375
16:14:26.379,-8.1875,-1.625
16:14:26.393,-7.875,-0.75
16:14:26.405,-7.3125,-1.625
16:14:26.430,-6.625,-0.875
16:14:26.432,-6,-1.25
16:14:26.435,-5.3125,-0.0625
16:14:26.444,-4.1875,-0.3125
16:14:26.454,-3.375,1.4375
16:14:26.464,-3.4375,0.25
16:14:26.473,-2,1.75
16:14:26.484,-2.3125,1
16:14:26.494,-1.375,2.75
16:14:26.506,-1.375,1
16:14:26.514,-1.4375,1.0625
16:14:26.524,-1.8125,-0.125
16:14:26.534,-1.4375,0.1875
16:14:26.544,-1.875,-1.6875
16:14:26.553,-1,-1.6875
16:14:26.564,-0.5,-2.5
16:14:26.574,0.9375,-1.5
16:14:26.583,0.5,-0.25
16:14:26.594,1.0625,-1.875
16:14:26.609,1.25,-2.125
16:14:26.614,1.5625,-3.3125
16:14:26.624,0.875,-5.0625
16:14:26.634,-0.0625,-6.75
16:14:26.644,-1.6875,-8.75
16:14:26.655,-3.0625,-10.375
16:14:26.664,-4.375,-12.6875
16:14:26.674,-4,-12.5625
16:14:26.684,-4.6875,-15.0001
16:14:26.723,-4.6875,-15.8751
16:14:26.725,-6.375,-15.8126
16:14:26.729,-5.9375,-18.3126
16:14:26.729,-7.6875,-19.2501
16:14:26.734,-8.25,-21.6251
16:14:26.773,-9.875,-22.2501
16:14:26.774,-9.9375,-24.0626
16:14:26.777,-10.25,-22.7501
16:14:26.783,-8.0625,-20.3751
16:14:26.784,-5.125,-14.9376
16:14:26.816,0,-8.9375
16:14:26.818,3.5625,0.375
16:14:26.820,7.0625,7.9375
16:14:26.824,9.9375,14.0626
16:14:26.866,12,20.1876
16:14:26.866,12.625,22.2501
16:14:26.870,12.8125,25.8751
16:14:26.872,12,26.2501
16:14:26.879,11.875,26.0001
16:14:26.885,10,26.2501
16:14:26.895,8.9375,23.1876
16:14:26.904,6.875,20.7501
16:14:26.914,5.1875,18.0001
16:14:26.924,2.5,16.0001
16:14:26.934,0.8125,13.3751
16:14:26.944,-1.4375,11.125
16:14:26.955,-2.4375,8.5
16:14:26.964,-4.9375,5.4375
16:14:26.974,-6.875,4.5625
16:14:26.982,-7.6875,2.1875
16:14:26.994,-8.5,-1.0625
16:14:27.004,-9.5,-1.8125
16:14:27.014,-9.75,-2.1875
16:14:27.024,-10.5,-3.3125
16:14:27.033,-9.875,-4.5
16:14:27.053,-10.0625,-6.25
16:14:27.060,-10.4375,-5.3125
16:14:27.076,-9.25,-5.125
16:14:27.077,-9.4375,-5.6875
16:14:27.085,-9.1875,-6.1875
16:14:27.094,-8.625,-3.875
16:14:27.104,-9.125,-5.875
16:14:27.114,-9.0625,-7.1875
16:14:27.124,-8.625,-6.125
16:14:27.135,-8,-7.0625
16:14:27.144,-8.3125,-6.3125
16:14:27.154,-8.25,-7.5625
16:14:27.164,-8.3125,-7.25
16:14:27.174,-7.8125,-8.3125
16:14:27.183,-8.125,-9.5
16:14:27.194,-8.375,-8.75
16:14:27.204,-8.75,-11.25
16:14:27.214,-9.3125,-12.0625
16:14:27.224,-9.5,-11.75
16:14:27.244,-10.0625,-14.0001
16:14:27.246,-10.5625,-15.1876
16:14:27.261,-11.3125,-17.3751
16:14:27.265,-11.0625,-17.3751
16:14:27.276,-11.5625,-19.1251
16:14:27.283,-12.1875,-20.4376
16:14:27.293,-11.75,-22.2501
16:14:27.304,-12.1875,-24.2501
16:14:27.314,-13.6251,-24.5626
16:14:27.324,-13.1876,-27.0001
16:14:27.334,-14.4376,-27.8751
16:14:27.343,-15.5626,-30.5626
16:14:27.371,-15.8126,-32.3751
16:14:27.373,-17.3751,-34.0626
16:14:27.376,-17.0626,-36.2501
16:14:27.406,-17.0626,-36.2501
16:14:27.409,-16.8751,-37.3751
16:14:27.411,-15.8751,-34.5001
16:14:27.415,-11.75,-29.2501
16:14:27.444,-7,-20.0001
16:14:27.446,-1.75,-8.8125
16:14:27.449,3.375,1.8125
16:14:27.481,8,11.0625
16:14:27.482,11.125,18.3126
16:14:27.484,14.5626,23.1876
16:14:27.490,15.1876,26.5626
16:14:27.498,17.1251,28.3126
16:14:27.505,16.1876,29.0001
16:14:27.537,16.7501,28.6251
16:14:27.539,16.1251,28.0001
16:14:27.541,15.3751,27.8126
16:14:27.547,15.5001,25.5001
16:14:27.554,15.0626,25.2501
16:14:27.564,15.0626,23.4376
16:14:27.573,14.8751,23.5626
16:14:27.584,15.2501,21.4376
16:14:27.594,14.0626,20.5626
16:14:27.604,13.7501,18.6251
16:14:27.614,13.6876,17.1876
16:14:27.624,12.3125,15.3751
16:14:27.633,11.4375,13.3126
16:14:27.644,10.625,13.1876
16:14:27.654,11,11.5625
16:14:27.664,10.6875,10.0625
16:14:27.674,10.4375,9.25
16:14:27.684,9.875,9.5
16:14:27.710,11.125,9.0625
16:14:27.714,9.8125,8.6875
16:14:27.715,9.5625,9.1875
16:14:27.724,10.3125,8.4375
16:14:27.734,9.75,7.9375
16:14:27.744,9.5,7.5
16:14:27.754,9.4375,8.0625
16:14:27.764,9.375,6.5
16:14:27.774,8.625,5.4375
16:14:27.784,7.8125,5.625
16:14:27.794,7.875,4.9375
16:14:27.804,7.4375,3.375
16:14:27.814,6.875,1.875
16:14:27.823,6.5625,1.5
16:14:27.833,6.3125,0.5
16:14:27.844,5.875,-1.375
16:14:27.853,4.5,-3.625
16:14:27.864,3.6875,-4.5625
16:14:27.874,2.75,-5.9375
16:14:27.884,1.8125,-8.125
16:14:27.893,1.25,-11
16:14:27.904,-0.0625,-12.6875
16:14:27.915,-0.875,-12.8125
16:14:27.924,-1.625,-15.5001
16:14:27.933,-2.5625,-18.4376
16:14:27.943,-3.875,-21.0626
16:14:27.954,-5.125,-22.4376
16:14:27.964,-5.75,-24.5626
16:14:27.974,-7.375,-27.4376
16:14:27.983,-8.5625,-28.6876
16:14:27.993,-9.0625,-28.5626
16:14:28.004,-8,-27.5001
16:14:28.013,-6,-23.7501
16:14:28.023,-2.3125,-15.3751
16:14:28.033,3.375,-6.3125
16:14:28.043,6.125,2.8125
16:14:28.053,9.25,10.5
16:14:28.063,10.9375,15.0001
16:14:28.074,12.3125,20.3126
16:14:28.084,13.6876,22.1876
16:14:28.094,13.125,23.3751
16:14:28.108,12.25,23.3751
16:14:28.114,10.875,21.8126
16:14:28.124,9.75,19.8126
16:14:28.133,8,18.3126
16:14:28.165,6.125,15.7501
16:14:28.166,4.4375,14.4376
16:14:28.169,3.4375,11.875
16:14:28.177,1.75,9.1875
16:14:28.206,0.875,8.125
16:14:28.210,-0.5625,5.75
16:14:28.211,-2.375,4.25
16:14:28.219,-3.5625,2.4375
16:14:28.224,-3.625,-0.625
16:14:28.259,-5.4375,-2.75
16:14:28.261,-5.875,-4.8125
16:14:28.262,-6.6875,-3.625
16:14:28.265,-6.1875,-6.9375
16:14:28.298,-7.1875,-6
16:14:28.302,-6.75,-6.5625
16:14:28.306,-6.1875,-8
16:14:28.307,-6.4375,-7.875
16:14:28.324,-6.625,-7.5625
16:14:28.326,-5.75,-6.3125
16:14:28.334,-4.4375,-6
16:14:28.353,-4.9375,-7
16:14:28.360,-6.1875,-7.25
16:14:28.375,-5.5,-7.1875
16:14:28.377,-5.25,-7.8125
16:14:28.384,-6.625,-8.625
16:14:28.393,-5.625,-9.6875
16:14:28.404,-6.6875,-11.25
16:14:28.413,-7.25,-10.6875
16:14:28.424,-7.3125,-11.75
16:14:28.434,-7.9375,-12.6875
16:14:28.443,-7.5,-14.6876
16:14:28.454,-8.375,-17.3751
16:14:28.464,-8.875,-17.8751
16:14:28.473,-9.625,-20.5001
16:14:28.483,-10.375,-21.0626
16:14:28.494,-10.5,-24.2501
16:14:28.504,-12.0625,-26.6876
16:14:28.514,-12.5625,-27.6251
16:14:28.524,-13.7501,-30.4376
16:14:28.540,-14.7501,-31.2501
16:14:28.557,-15.0626,-34.5001
16:14:28.558,-15.6876,-35.0626
16:14:28.564,-15.4376,-36.6251
16:14:28.573,-16.6876,-36.2501
16:14:28.583,-14.6876,-36.6876
16:14:28.594,-13.0625,-31.9376
16:14:28.604,-8.5625,-24.8751
16:14:28.614,-3.375,-13.6251
16:14:28.623,2.625,-3.5625
16:14:28.634,7.25,7.75
16:14:28.644,11.875,14.7501
16:14:28.653,14.8751,21.5001
16:14:28.663,16.1876,24.3751
16:14:28.674,16.8126,27.0626
16:14:28.684,17.3751,27.2501
16:14:28.694,17.0626,28.7501
16:14:28.704,16.6876,27.0626
16:14:28.714,15.5001,24.5001
16:14:28.723,16.0626,23.4376
16:14:28.733,14.3126,21.5626
16:14:28.744,13.4376,19.8126
16:14:28.754,12.5625,18.6876
16:14:28.764,12.125,16.3751
16:14:28.774,10.9375,14.2501
16:14:28.784,11,13.8126
16:14:28.794,9.75,10.375
16:14:28.804,9.25,8.5625
16:14:28.814,7.5625,6.0625
16:14:28.823,7.125,4.875
16:14:28.834,6.875,3.9375
16:14:28.844,7.0625,2
16:14:28.867,6.125,1.125
16:14:28.869,6.4375,1.5
16:14:28.896,6.875,0.625
16:14:28.898,6.5,0.4375
16:14:28.900,6.1875,0.3125
16:14:28.905,6.1875,1.5625
16:14:28.940,6.4375,1
16:14:28.941,7.1875,1.1875
16:14:28.945,6.125,0.125
16:14:28.946,6.6875,1.0625
16:14:28.954,5.8125,0.0625
16:14:28.994,5.3125,-0.3125
16:14:28.994,5.1875,-1.1875
16:14:28.997,5.375,-2
16:14:28.999,4.625,-3.4375
16:14:29.007,3.8125,-3.75
16:14:29.036,3.8125,-5
16:14:29.040,3.3125,-7.25
16:14:29.042,2,-9.0625
16:14:29.047,1.75,-9.3125
16:14:29.054,1.1875,-10.375
16:14:29.063,1,-12.625
16:14:29.074,0.6875,-14.7501
16:14:29.084,-0.25,-15.9376
16:14:29.094,-1.125,-17.1876
16:14:29.103,-1.4375,-19.2501
16:14:29.113,-2.25,-21.3751
16:14:29.123,-3.5625,-23.4376
16:14:29.133,-4,-23.9376
16:14:29.144,-4.1875,-25.5626
16:14:29.154,-5,-25.9376
16:14:29.164,-3.6875,-23.1876
16:14:29.174,-0.9375,-18.1876
16:14:29.184,3.25,-8.25
16:14:29.194,7.625,0.875
16:14:29.204,12.125,8.9375
16:14:29.213,14.6251,17.8751
16:14:29.223,16.1876,22.1251
16:14:29.238,17.4376,24.6251
16:14:29.243,18.2501,27.5001
16:14:29.253,17.5626,27.3751
16:14:29.264,16.6251,26.8126
16:14:29.274,15.7501,25.4376
16:14:29.284,14.2501,23.6251
16:14:29.294,13.7501,21.8751
16:14:29.304,11.25,19.9376
16:14:29.314,10.25,17.8751
16:14:29.324,8.875,15.3751
16:14:29.334,7.9375,14.5001
16:14:29.344,7,11.625
16:14:29.354,5.1875,9
16:14:29.364,3.125,7.25
16:14:29.374,2.75,4.8125
16:14:29.383,1.1875,2.5625
16:14:29.394,0.375,0.125
16:14:29.404,0.125,0.375
16:14:29.414,-0.0625,-0.875
16:14:29.424,-0.9375,-2.5
16:14:29.433,-2.0625,-1.1875
16:14:29.443,-2,-3.25
16:14:29.454,-2.4375,-3.5
16:14:29.464,-2.375,-3.375
16:14:29.473,-1.1875,-2.875
16:14:29.483,-2.0625,-3.375
16:14:29.493,-2.3125,-2.6875
16:14:29.503,-2.375,-3.25
16:14:29.514,-2.6875,-4.125
16:14:29.523,-2.875,-3.6875
16:14:29.534,-1.9375,-4.4375
16:14:29.543,-3.5625,-4.625
16:14:29.558,-3,-5.1875
16:14:29.565,-3.25,-6
16:14:29.591,-4.1875,-7.8125
16:14:29.594,-4.75,-8.0625
16:14:29.597,-5.25,-9.9375
16:14:29.604,-6.25,-11.125
16:14:29.644,-6.5625,-13.3126
16:14:29.646,-7,-13.4376
16:14:29.677,-7.5,-16.1251
16:14:29.754,-8.375,-17.0001
16:14:29.757,-9.1875,-19.5001
16:14:29.757,-9.5625,-20.7501
16:14:29.757,-10.9375,-23.8126
16:14:29.757,-11.0625,-23.5626
16:14:29.759,-12.0625,-27.0001
16:14:29.767,-13.7501,-28.9376
16:14:29.767,-14.4376,-29.1251
16:14:29.767,-12.8125,-28.7501
16:14:29.777,-11.8125,-26.9376
16:14:29.784,-8.3125,-20.8126
16:14:29.794,-5,-13.6251
16:14:29.804,0.375,-4
16:14:29.814,4.4375,4.9375
16:14:29.837,7.875,13
16:14:29.839,9.6875,18.4376
16:14:29.853,12.1875,22.0001
16:14:29.857,12.875,24.4376
16:14:29.871,13.0625,26.3126
16:14:29.876,12.6875,25.6876
16:14:29.884,12.75,24.5626
16:14:29.893,12.3125,22.5001
16:14:29.904,11.25,22.3126
16:14:29.914,10.6875,19.6251
16:14:29.924,9.9375,18.3126
16:14:29.934,8.125,11.875
16:14:29.944,7.1875,10.4375
16:14:29.954,6.25,8.4375
16:14:29.964,5.375,6.9375
16:14:29.974,5.125,6.5
16:14:29.984,5.6875,5.625
16:14:29.993,6.0625,3.875
16:14:30.004,5.3125,3.3125
16:14:30.014,4.9375,3
16:14:30.025,5.4375,3.8125
16:14:30.034,5.6875,4.5625
16:14:30.044,6,3.25
16:14:30.054,5.9375,2.625
16:14:30.064,5.8125,2.875
16:14:30.073,5.75,4
16:14:30.084,6,2.25
16:14:30.095,5.25,1.1875
16:14:30.103,4.5625,0.625
16:14:30.115,3.9375,0.3125
16:14:30.124,3.75,-0.4375
16:14:30.133,3.75,-2.1875
16:14:30.143,3.1875,-3.6875
16:14:30.153,2.3125,-3.25
16:14:30.163,2.5625,-4.4375
16:14:30.174,2.0625,-7.125
16:14:30.184,1.4375,-8.125
16:14:30.195,0.8125,-10.375
16:14:30.204,-0.375,-10.875
16:14:30.214,-0.25,-12.25
16:14:30.224,-1.3125,-14.6876
16:14:30.235,-2.6875,-16.8126
16:14:30.244,-3.875,-18.8751
16:14:30.271,-5.5625,-19.6251
16:14:30.273,-5.5625,-21.7501
16:14:30.280,-7,-24.1876
16:14:30.284,-7.1875,-25.1876
16:14:30.294,-8,-25.3126
16:14:30.304,-6.75,-26.1876
16:14:30.314,-5.3125,-22.3751
16:14:30.325,-1.375,-15.1876
16:14:30.334,3.25,-6.8125
16:14:30.343,6.875,2.3125
16:14:30.354,10.8125,11.1875
16:14:30.363,14.6251,18.8126
16:14:30.390,16.3126,23.3751
16:14:30.394,17.5001,26.5626
16:14:30.432,18.3751,28.2501
16:14:30.433,16.6876,26.9376
16:14:30.436,15.0626,26.8751
16:14:30.441,13.8751,24.4376
16:14:30.441,12.0625,22.6251
16:14:30.477,10.75,19.6251
16:14:30.480,8.6875,16.4376
16:14:30.482,7.125,15.3751
16:14:30.485,7,13.6251
16:14:30.490,5.125,12.125
16:14:30.518,6.5,10.75
16:14:30.520,5.6875,9.25
16:14:30.522,5.125,8.375
16:14:30.555,4.1875,6.875
16:14:30.556,3.5,5.0625
16:14:30.560,3.125,4
16:14:30.565,2.75,2.625
16:14:30.572,4.75,5.6875
16:14:30.579,19.0626,11.6875
16:14:30.589,30.8126,23.8751
16:14:30.600,43.6252,34.5626
16:14:30.609,49.0627,40.1252
16:14:30.619,50.1252,39.0626
16:14:30.630,44.3127,33.1251
16:14:30.638,38.6251,25.5626
16:14:30.649,39.9377,26.1876
16:14:30.660,40.6877,25.1251
16:14:30.668,37.9376,21.4376
16:14:30.678,37.2501,20.2501
16:14:30.688,43.5002,23.8751
16:14:30.699,56.0002,32.3126
16:14:30.710,68.5628,42.0627
16:14:30.719,73.6253,44.9377
16:14:30.729,74.4378,43.8127
16:14:30.739,72.3753,37.6251
16:14:30.750,69.4378,32.5001
16:14:30.759,65.8128,27.6251
16:14:30.769,63.2502,21.8126
16:14:30.780,59.8127,15.6876
16:14:30.790,56.6252,11.0625
16:14:30.799,55.8127,7.4375
16:14:30.808,53.0627,2.4375
16:14:30.820,49.5627,-1.9375
16:14:30.830,43.9377,-8.9375
16:14:30.840,39.3752,-16.0626
16:14:30.850,38.0626,-20.3126
16:14:30.859,35.7501,-23.3126
16:14:30.870,38.4376,-21.5626
16:14:30.880,45.0627,-17.6876
16:14:30.889,50.1877,-11.3125
16:14:30.900,56.9377,-2.0625
16:14:30.910,64.3127,11.4375
16:14:30.919,74.0003,27.9376
16:14:30.935,81.6878,44.1877
16:14:30.941,88.5628,59.5002
16:14:30.950,94.0629,69.9378
16:14:30.960,97.6254,76.6253
16:14:30.968,97.8754,79.7503
16:14:30.980,93.9379,80.0628
16:14:30.989,87.8128,74.1253
16:14:31.000,81.5003,67.2503
16:14:31.008,77.6253,63.3752
16:14:31.024,75.0628,59.7502
16:14:31.031,76.6253,60.3752
16:14:31.067,77.1878,58.8752
16:14:31.072,79.5003,59.1252
16:14:31.103,78.0003,56.7502
16:14:31.106,74.3753,52.6252
16:14:31.111,66.4378,42.8752
16:14:31.111,58.0002,32.9376
16:14:31.111,53.2502,27.1876
16:14:31.115,54.3127,25.6251
16:14:31.148,58.8127,27.4376
16:14:31.150,60.8127,27.2501
16:14:31.178,61.7502,27.6876
16:14:31.215,64.6877,29.0001
16:14:31.227,62.1252,26.6876
16:14:31.229,61.9377,25.4376
16:14:31.230,59.1877,21.8126
16:14:31.244,58.3752,22.1251
16:14:31.246,59.4377,21.2501
16:14:31.250,61.5627,23.8126
16:14:31.250,65.5627,27.5626
16:14:31.250,68.8753,29.6876
16:14:31.255,69.2503,31.0626
16:14:31.263,68.7503,28.6876
16:14:31.276,65.2502,26.1876
16:14:31.285,62.0002,19.8126
16:14:31.295,61.0627,19.3126
16:14:31.310,61.9377,18.1876
16:14:31.315,61.3127,17.6251
16:14:31.323,62.1877,17.6251
16:14:31.335,62.4377,15.0001
16:14:31.345,64.8127,16.7501
16:14:31.355,63.8752,13.5001
16:14:31.365,63.1877,13.4376
16:14:31.373,61.0627,9.1875
16:14:31.384,58.5002,4.6875
16:14:31.395,56.6252,2.875
16:14:31.405,55.0627,-0.75
16:14:31.414,58.0627,0.5
16:14:31.424,58.9377,0.375
16:14:31.435,58.7502,1.25
16:14:31.445,57.3127,0.0625
16:14:31.454,56.3127,-0.5
16:14:31.465,57.8752,3.875
16:14:31.475,62.6252,13.8751
16:14:31.485,69.5003,28.1876
16:14:31.495,77.4378,46.6877
16:14:31.505,84.5628,65.0002
16:14:31.515,89.1253,76.4378
16:14:31.525,92.1254,85.9378
16:14:31.550,94.0629,91.3129
16:14:31.552,92.9379,92.5004
16:14:31.555,89.6878,91.5004
16:14:31.565,86.6878,88.9378
16:14:31.575,84.1253,85.5003
16:14:31.585,79.3128,80.3128
16:14:31.595,75.7503,76.6253
16:14:31.605,72.6878,73.3128
16:14:31.614,71.0628,69.1878
16:14:31.625,67.3128,65.0627
16:14:31.635,63.6252,61.9377
16:14:31.645,59.3752,55.1877
16:14:31.655,54.2502,48.9377
16:14:31.663,50.6252,43.9377
16:14:31.675,45.6252,36.5626
16:14:31.685,40.6877,32.1876
16:14:31.695,39.0626,28.5001
16:14:31.705,38.6876,25.1251
16:14:31.715,39.5627,25.5001
16:14:31.730,39.7502,26.1876
16:14:31.735,39.6252,25.6876
16:14:31.770,37.9376,21.7501
16:14:31.773,35.3126,20.5001
16:14:31.777,32.4376,17.1876
16:14:31.777,30.0626,14.3751
16:14:31.815,28.2501,13
16:14:31.816,26.1876,11.4375
16:14:31.820,25.6876,10.5625
16:14:31.827,25.5626,9.9375
16:14:31.827,26.6251,9.875
16:14:31.859,25.0626,9.25
16:14:31.861,24.9376,7.125
16:14:31.864,22.5001,4.75
16:14:31.866,21.3751,2.125
16:14:31.907,19.3126,-0.625
16:14:31.909,17.3751,-2.6875
16:14:31.910,17.2501,-5.875
16:14:31.913,16.0626,-7.125
16:14:31.919,15.4376,-8.6875
16:14:31.926,14.6251,-12.375
16:14:31.935,14.2501,-12.4375
16:14:31.945,11.8125,-17.0626
16:14:31.955,9.625,-19.8126
16:14:31.965,7,-23.7501
16:14:31.975,5.6875,-25.7501
16:14:31.985,5.0625,-27.8126
16:14:31.995,3.6875,-28.6876
16:14:32.005,5.125,-27.1251
16:14:32.015,6.9375,-22.6251
16:14:32.025,12.5,-12.3125
16:14:32.035,20.5001,3.25
16:14:32.045,29.1251,21.2501
16:14:32.060,37.0626,35.4376
16:14:32.065,41.1252,47.3752
16:14:32.075,43.1877,53.3752
16:14:32.085,43.7502,56.5002
16:14:32.095,42.6877,57.9377
16:14:32.106,42.2502,57.4377
16:14:32.115,42.1877,58.3127
16:14:32.125,43.5002,57.9377
16:14:32.135,44.1877,58.8127
16:14:32.145,44.0627,56.4377
16:14:32.155,43.2502,55.8127
16:14:32.165,40.8127,51.3127
16:14:32.175,39.5627,49.7502
16:14:32.212,37.8751,46.1877
16:14:32.214,36.6251,43.3752
16:14:32.218,34.7501,40.0627
16:14:32.224,33.7501,37.0001
16:14:32.234,33.0001,34.2501
16:14:32.241,31.6251,32.8751
16:14:32.250,31.0626,29.3751
16:14:32.260,29.7501,26.6251
16:14:32.270,27.6251,23.8751
16:14:32.280,27.0626,21.4376
16:14:32.290,24.3751,19.3751
16:14:32.300,22.8126,18.2501
16:14:32.310,22.4376,15.7501
16:14:32.320,21.0001,14.6876
16:14:32.330,20.9376,15.0001
16:14:32.340,20.1251,15.3126
16:14:32.358,19.0626,12.25
16:14:32.371,17.0626,10
16:14:32.373,13.7501,7.3125
16:14:32.383,11.375,5.375
16:14:32.390,10.9375,2.75
16:14:32.401,9.875,1.125
16:14:32.410,9.375,0.8125
16:14:32.421,7.9375,-2.5
16:14:32.435,5.4375,-4.25
16:14:32.440,2.3125,-8
16:14:32.450,-0.0625,-13.3126
16:14:32.460,-2.8125,-17.1251
16:14:32.470,-3.8125,-18.5626
16:14:32.481,-5.3125,-20.4376
16:14:32.490,-6.1875,-23.3751
16:14:32.502,-6.75,-25.1876
16:14:32.519,-6.8125,-26.4376
16:14:32.521,-7.0625,-27.3126
16:14:32.536,-8.25,-29.2501
16:14:32.551,-8.6875,-31.1251
16:14:32.554,-9.75,-32.3126
16:14:32.584,-7.375,-27.1251
16:14:32.588,-2,-19.5626
16:14:32.589,4.4375,-6.5
16:14:32.593,11.375,8.75
16:14:32.626,16.4376,20.8751
16:14:32.626,20.3751,31.4376
16:14:32.629,23.1251,38.6251
16:14:32.631,24.0626,43.6252
16:14:32.672,25.1251,45.6252
16:14:32.675,24.6876,45.9377
16:14:32.676,24.0001,46.5627
16:14:32.679,23.8126,44.1252
16:14:32.686,23.0626,43.3127
16:14:32.691,20.8126,40.5627
16:14:32.720,20.5001,38.8126
16:14:32.721,19.3126,38.1251
16:14:32.724,20.4376,37.0001
16:14:32.730,19.7501,37.3751
16:14:32.740,18.5001,33.5626
16:14:32.750,16.5626,30.8126
16:14:32.760,14.1251,28.0001
16:14:32.770,11.875,22.3751
16:14:32.780,10,19.1251
16:14:32.790,10.25,17.8126
16:14:32.800,10.5,17.5001
16:14:32.830,12.5625,17.5001
16:14:32.832,13.1251,17.2501
16:14:32.835,13.4376,16.8751
16:14:32.841,12.6875,15.9376
16:14:32.850,12.625,14.1876
16:14:32.860,11.5,13.7501
16:14:32.870,11.3125,12.8125
16:14:32.880,9.875,11.625
16:14:32.890,10.0625,11.125
16:14:32.900,10,10.625
16:14:32.910,10.6875,11.0625
16:14:32.920,11.5,11.125
16:14:32.930,12.625,11.8125
16:14:32.940,12.875,10.5625
16:14:32.950,10.75,8.6875
16:14:32.960,9.125,5
16:14:32.970,5.75,1.6875
16:14:32.980,3.9375,-1.875
16:14:32.990,1.75,-5.625
16:14:33.000,0.375,-6.75
16:14:33.010,1.25,-8
16:14:33.021,1.125,-8.8125
16:14:33.030,0.875,-10.5
16:14:33.040,-0.25,-13.1876
16:14:33.050,-2.125,-16.4376
16:14:33.060,-4.625,-20.5001
16:14:33.070,-6.875,-24.3126
16:14:33.080,-7.5625,-25.9376
16:14:33.090,-8.5625,-28.3126
16:14:33.100,-7.75,-29.5001
16:14:33.110,-6.6875,-28.3751
16:14:33.120,-4.875,-24.5626
16:14:33.130,-1.5625,-17.8751
16:14:33.140,4.5,-8.125
16:14:33.150,10.375,6.375
16:14:33.160,15.9376,19.0626
16:14:33.170,18.9376,30.1251
16:14:33.180,21.3126,36.6876
16:14:33.190,24.5626,41.0627
16:14:33.200,26.1251,45.6252
16:14:33.210,27.1876,47.2502
16:14:33.237,27.1876,47.6252
16:14:33.239,26.2501,46.0002
16:14:33.241,23.5626,44.4377
16:14:33.271,22.0626,41.3752
16:14:33.273,20.1876,38.2501
16:14:33.275,20.2501,37.5626
16:14:33.280,20.4376,36.7501
16:14:33.313,20.4376,35.5626
16:14:33.315,20.0626,35.3126
16:14:33.318,19.9376,33.0626
16:14:33.324,17.9376,30.4376
16:14:33.339,15.3126,26.1251
16:14:33.341,12.625,22.4376
16:14:33.370,10.375,19.3126
16:14:33.373,9.0625,16.3126
16:14:33.375,8.9375,14.9376
16:14:33.381,9.875,15.5001
16:14:33.397,11.5,14.6251
16:14:33.400,11.5625,14.6876
16:14:33.410,11.375,14.0001
16:14:33.420,10.3125,13.8126
16:14:33.430,9.8125,11.375
16:14:33.440,8.75,9.625
16:14:33.450,7.4375,9.1875
16:14:33.460,6.375,8.0625
16:14:33.471,5.5625,5
16:14:33.480,4.125,3.4375
16:14:33.491,3.1875,3.3125
16:14:33.500,2.9375,1.0625
16:14:33.511,2.625,1.5625
16:14:33.521,2.9375,1.1875
16:14:33.530,3.9375,-0.1875
16:14:33.541,2.3125,-1.9375
16:14:33.550,0.375,-4.0625
16:14:33.565,-1.625,-6.75
16:14:33.570,-2,-10.3125
16:14:33.580,-3.5,-13.3751
16:14:33.590,-4.8125,-14.7501
16:14:33.600,-5.1875,-15.8126
16:14:33.610,-5.75,-19.2501
16:14:33.620,-5.4375,-20.9376
16:14:33.630,-5.375,-22.1251
16:14:33.640,-5.875,-23.5001
16:14:33.658,-6.625,-26.5001
16:14:33.664,-8.625,-29.7501
16:14:33.672,-10.25,-32.6876
16:14:33.680,-12.1875,-34.6876
16:14:33.695,-12.125,-35.9376
16:14:33.705,-9.5,-32.5001
16:14:33.710,-4.6875,-24.2501
16:14:33.720,3.9375,-10.5625
16:14:33.730,12.5625,6
16:14:33.740,21.0626,21.6251
16:14:33.750,26.6876,33.6876
16:14:33.760,30.9376,42.5002
16:14:33.770,32.1251,47.0002
16:14:33.780,34.1251,50.0627
16:14:33.790,34.1251,51.6252
16:14:33.800,35.0001,51.6252
16:14:33.811,34.2501,50.3752
16:14:33.820,32.8751,49.9377
16:14:33.838,32.0626,48.4377
16:14:33.842,31.1251,45.8752
16:14:33.856,30.0626,43.5627
16:14:33.871,30.6251,43.0002
16:14:33.872,30.1251,41.8752
16:14:33.882,30.3751,40.5627
16:14:33.890,30.1876,39.0001
16:14:33.900,28.1251,35.3751
16:14:33.910,26.3751,33.1251
16:14:33.941,23.5626,28.0001
16:14:33.943,20.1251,23.8751
16:14:33.945,18.0626,19.7501
16:14:33.951,16.8751,17.5001
16:14:33.992,17.1876,16.1876
16:14:33.992,18.1876,15.5001
16:14:33.996,18.8126,16.6251
16:14:34.001,19.3126,14.8751
16:14:34.001,19.1876,14.9376
16:14:34.015,18.8126,13.4376
16:14:34.022,16.1251,12.125
16:14:34.051,13.7501,9.0625
16:14:34.054,11.5625,7.0625
16:14:34.056,10.75,4.0625
16:14:34.063,10.9375,4.625
16:14:34.101,11.8125,3.8125
16:14:34.103,12.5,4.5
16:14:34.105,13.125,3.75
16:14:34.126,12,2.375
16:14:34.126,11.75,0.125
16:14:34.127,9.5625,-1.375
16:14:34.130,7.4375,-5
16:14:34.140,5.4375,-8.4375
16:14:34.150,4,-11.875
16:14:34.161,2.375,-14.2501
16:14:34.170,2.0625,-16.8126
16:14:34.180,0.5,-19.6251
16:14:34.190,-1.4375,-21.6876
16:14:34.200,-3.1875,-26.3751
16:14:34.210,-4.125,-29.3126
16:14:34.221,-4.5625,-31.3751
16:14:34.230,-5,-32.7501
16:14:34.240,-7,-35.9376
16:14:34.250,-8.8125,-38.2501
16:14:34.260,-9.625,-40.8752
16:14:34.270,-10,-43.1877
16:14:34.281,-12.5,-45.1252
16:14:34.290,-11.9375,-45.3127
16:14:34.300,-10,-41.4377
16:14:34.310,-2.5,-31.6876
16:14:34.320,5.4375,-15.5626
16:14:34.330,16.0001,3
16:14:34.340,23.1251,20.1876
16:14:34.350,29.3751,33.0001
16:14:34.360,33.1876,43.6252
16:14:34.371,34.2501,47.6877
16:14:34.380,34.0001,48.9377
16:14:34.390,31.3126,49.5627
16:14:34.400,29.7501,45.8127
16:14:34.410,27.6251,45.5002
16:14:34.420,27.8126,42.8127
16:14:34.430,28.1876,42.3127
16:14:34.440,28.4376,41.5627
16:14:34.450,29.1251,40.4377
16:14:34.466,28.8751,40.0627
16:14:34.475,27.5001,35.1876
16:14:34.485,25.5626,32.3751
16:14:34.500,21.4376,28.1251
16:14:34.505,18.8126,23.3751
16:14:34.515,16.5001,19.0001
16:14:34.525,15.9376,17.0626
16:14:34.535,16.5626,13.8751
16:14:34.545,17.9376,13.6251
16:14:34.555,17.9376,11.875
16:14:34.565,17.5001,10.25
16:14:34.575,16.6251,8.9375
16:14:34.585,14.6876,6.6875
16:14:34.595,12.0625,4.0625
16:14:34.605,10.875,1.375
16:14:34.615,11.375,1.5625
16:14:34.625,15.6251,3.25
16:14:34.635,17.1876,5.3125
16:14:34.645,16.8126,5.625
16:14:34.655,16.6876,3.3125
16:14:34.665,14.5001,0.625
16:14:34.675,11.8125,-2.1875
16:14:34.685,9.625,-4.0625
16:14:34.695,9,-6.25
16:14:34.705,9.625,-7.75
16:14:34.720,10.375,-8.25
16:14:34.726,10.3125,-7.3125
16:14:34.760,11.1875,-10.375
16:14:34.762,9.4375,-13.3751
16:14:34.765,7,-16.0001
16:14:34.767,5.1875,-20.1251
16:14:34.799,2.5,-24.5626
16:14:34.802,0.5625,-27.5626
16:14:34.803,-0.5,-29.4376
16:14:34.817,-1.75,-32.1251
16:14:34.824,-2.25,-33.2501
16:14:34.826,-2.25,-34.0001
16:14:34.855,-1.875,-36.3126
16:14:34.858,-2.6875,-38.1876
16:14:34.860,-4.3125,-39.5002
16:14:34.867,-4.4375,-40.8752
16:14:34.893,-6.25,-42.3752
16:14:34.896,-6,-40.3752
16:14:34.897,-3.25,-36.1876
16:14:34.909,1.8125,-23.8751
16:14:34.916,9.8125,-8.1875
16:14:34.925,18.4376,10.8125
16:14:34.935,25.3126,27.3751
16:14:34.945,30.2501,38.6251
16:14:34.955,32.5626,46.6877
16:14:34.965,34.0626,50.9377
16:14:34.981,33.3751,52.2502
16:14:34.987,32.7501,51.3127
16:14:35.003,30.8126,50.4377
16:14:35.005,30.6876,48.3752
16:14:35.020,28.7501,46.0627
16:14:35.025,27.1876,43.5627
16:14:35.035,25.5001,39.6252
16:14:35.045,24.0626,37.9376
16:14:35.055,21.8126,35.0001
16:14:35.065,19.9376,30.3751
16:14:35.075,16.8751,27.0626
16:14:35.085,14.9376,22.5626
16:14:35.095,12.5625,18.9376
16:14:35.105,11.75,16.0001
16:14:35.115,9.8125,11.8125
16:14:35.125,9.1875,9
16:14:35.135,9.125,6.9375
16:14:35.145,8.625,5.25
16:14:35.165,8.75,3.9375
16:14:35.166,7.5625,1.3125
16:14:35.183,5.25,-0.6875
16:14:35.199,4.5625,-1.375
16:14:35.201,3.375,-3.25
16:14:35.208,2.8125,-4.1875
16:14:35.215,3.1875,-4.1875
16:14:35.225,3.75,-3.9375
16:14:35.235,3.1875,-4.6875
16:14:35.245,2.3125,-5.625
16:14:35.255,2.125,-6.75
16:14:35.266,1.4375,-8
16:14:35.275,0.6875,-9.4375
16:14:35.288,-0.1875,-10.625
16:14:35.296,-2,-13.0625
16:14:35.305,-4.1875,-16.6251
16:14:35.315,-6.5,-20.6251
16:14:35.325,-8.8125,-23.6251
16:14:35.335,-11.25,-26.1251
16:14:35.346,-11.8125,-30.0626
16:14:35.355,-12.875,-30.3751
16:14:35.366,-12.25,-33.0626
16:14:35.391,-12.0625,-35.0626
16:14:35.394,-12.8125,-36.3126
16:14:35.398,-13.1876,-38.0626
16:14:35.407,-13.4376,-39.6252
16:14:35.415,-15.2501,-42.6252
16:14:35.429,-17.8126,-45.5002
16:14:35.435,-18.0626,-48.2502
16:14:35.471,-20.0626,-49.0002
16:14:35.474,-19.4376,-50.1877
16:14:35.475,-16.5001,-45.3127
16:14:35.479,-12.1875,-39.2501
16:14:35.511,-4.0625,-26.3751
16:14:35.515,3.75,-9.3125
16:14:35.516,11.4375,8.125
16:14:35.524,16.3126,22.0626
16:14:35.526,20.5001,32.1251
16:14:35.563,21.1876,37.1876
16:14:35.565,21.1251,41.5002
16:14:35.567,22.6876,42.3752
16:14:35.570,23.6251,45.0627
16:14:35.576,24.0626,43.3127
16:14:35.604,21.8126,42.7502
16:14:35.607,20.3751,38.0626
16:14:35.611,16.9376,35.8751
16:14:35.616,14.0001,30.4376
16:14:35.625,12.0625,25.9376
16:14:35.635,10.375,23.8126
16:14:35.645,9.5625,21.7501
16:14:35.656,9.5,19.2501
16:14:35.665,9.375,16.8751
16:14:35.675,7.375,12.5625
16:14:35.686,5.5,8.75
16:14:35.695,3.1875,5.75
16:14:35.706,0.625,2.4375
16:14:35.716,-0.5625,-0.6875
16:14:35.727,-1,-3.4375
16:14:35.736,-0.4375,-3.125
16:14:35.746,1.25,-3.75
16:14:35.756,1.75,-3.875
16:14:35.766,1.8125,-3.5
16:14:35.775,1.6875,-5.4375
16:14:35.786,0.0625,-5.1875
16:14:35.795,-1,-7.9375
16:14:35.805,-2.4375,-8.625
16:14:35.816,-1.875,-9.625
16:14:35.827,-1.5625,-10
16:14:35.836,0.3125,-9.375
16:14:35.846,-0.25,-8.9375
16:14:35.856,0.375,-10
16:14:35.867,-0.0625,-11.4375
16:14:35.875,-2.125,-13.6876
16:14:35.886,-4.25,-18.1876
16:14:35.896,-7.125,-20.3751
16:14:35.905,-9.8125,-25.0001
16:14:35.916,-10.875,-28.5001
16:14:35.927,-13,-30.9376
16:14:35.936,-13,-33.9376
16:14:35.945,-14.5001,-36.0626
16:14:35.956,-15.6251,-39.2502
16:14:35.966,-16.6251,-41.6252
16:14:35.976,-19.3751,-44.5627
16:14:35.986,-21.1876,-48.9377
16:14:35.996,-23.8126,-50.0002
16:14:36.006,-23.3126,-52.3752
16:14:36.016,-23.7501,-51.8127
16:14:36.025,-23.1876,-53.2502
16:14:36.037,-22.6876,-54.0002
16:14:36.046,-22.3126,-51.5627
16:14:36.055,-19.4376,-47.0002
16:14:36.066,-13.2501,-35.4376
16:14:36.076,-6.125,-17.5626
16:14:36.086,2.3125,-0.1875
16:14:36.095,10.3125,15.8126
16:14:36.106,16.6251,29.2501
16:14:36.117,20.4376,38.4376
16:14:36.125,22.5001,42.0627
16:14:36.136,21.6251,44.6252
16:14:36.145,20.1251,41.8127
16:14:36.156,18.6876,40.1252
16:14:36.165,16.0001,36.9376
16:14:36.190,13.5626,33.2501
16:14:36.195,13.5626,32.0001
16:14:36.196,12.8125,31.8751
16:14:36.210,13.1876,28.8751
16:14:36.215,13.3126,27.0626
16:14:36.249,10.6875,24.5626
16:14:36.252,8.0625,20.6251
16:14:36.254,5.25,16.6876
16:14:36.256,3,11.3125
16:14:36.290,0.5625,6.4375
16:14:36.291,-0.875,4.375
16:14:36.322,0,1.6875
16:14:36.356,-0.5,0
16:14:36.358,-0.5,-1.875
16:14:36.358,-1.1875,-4.5625
16:14:36.358,-1.4375,-4.875
16:14:36.363,-1.8125,-6.3125
16:14:36.364,-4.5625,-7.6875
16:14:36.367,-4.25,-9.1875
16:14:36.367,-5.8125,-10.125
16:14:36.375,-4.9375,-10.5625
16:14:36.385,-4.5625,-11.1875
16:14:36.396,-3.8125,-10.3125
16:14:36.406,-4.125,-10.6875
16:14:36.416,-4.625,-11.3125
16:14:36.426,-5,-12.875
16:14:36.437,-5.5,-15.0626
16:14:36.446,-6.4375,-17.1251
16:14:36.455,-9.1875,-20.2501
16:14:36.466,-10.1875,-22.5001
16:14:36.483,-11.5,-25.0626
16:14:36.486,-13.5626,-26.8126
16:14:36.501,-15.0001,-31.0001
16:14:36.510,-16.5626,-33.3126
16:14:36.516,-18.3126,-36.7501
16:14:36.526,-19.8126,-40.0002
16:14:36.536,-21.0001,-43.1252
16:14:36.545,-23.2501,-46.0002
16:14:36.556,-24.6251,-49.3752
16:14:36.566,-24.8751,-50.5627
16:14:36.576,-25.6876,-52.5002
16:14:36.586,-24.7501,-53.8127
16:14:36.596,-25.9376,-53.0627
16:14:36.605,-26.3751,-56.0002
16:14:36.616,-27.3751,-56.8752
16:14:36.626,-27.4376,-56.6252
16:14:36.635,-24.7501,-52.1252
16:14:36.646,-19.7501,-41.5002
16:14:36.671,-10.125,-23.9376
16:14:36.674,0.625,-3.375
16:14:36.676,8.4375,14.9376
16:14:36.687,15.3126,27.2501
16:14:36.696,18.9376,35.9376
16:14:36.707,19.7501,40.9377
16:14:36.715,18.4376,42.3752
16:14:36.726,17.5626,40.3127
16:14:36.736,15.3126,39.6877
16:14:36.746,13.4376,36.8751
16:14:36.756,12.0625,34.0626
16:14:36.766,10.75,31.6876
16:14:36.775,9.25,29.8126
16:14:36.788,8.9375,26.3126
16:14:36.795,8.1875,24.7501
16:14:36.806,7.5625,23.5001
16:14:36.817,6.9375,20.3126
16:14:36.826,6,19.0001
16:14:36.836,4.125,14.3751
16:14:36.846,2.8125,11.0625
16:14:36.856,0.25,7.5
16:14:36.866,-1,3.4375
16:14:36.876,-2,1.25
16:14:36.886,-3.0625,-0.75
16:14:36.896,-4,-1.6875
16:14:36.917,-4.5,-4.4375
16:14:36.920,-5.125,-5.1875
16:14:36.948,-6.4375,-7.5
16:14:36.950,-7.9375,-9.3125
16:14:36.952,-9,-10.3125
16:14:36.958,-9.75,-10.6875
16:14:36.985,-9.125,-12.125
16:14:36.988,-9.5625,-12.4375
16:14:36.993,-8.625,-13.0625
16:14:36.996,-9.1875,-13.7501
16:14:37.040,-9.5,-14.1876
16:14:37.041,-10.0625,-16.8126
16:14:37.043,-11,-18.0626
16:14:37.045,-12.875,-21.3126
16:14:37.051,-14.5001,-23.1251
16:14:37.077,-16.5626,-25.0001
16:14:37.079,-17.5001,-29.1876
16:14:37.081,-19.6876,-30.6876
16:14:37.089,-20.8126,-34.2501
16:14:37.097,-21.8126,-37.3126
16:14:37.106,-22.9376,-39.1876
16:14:37.116,-24.1251,-42.5627
16:14:37.127,-24.1251,-44.3127
16:14:37.136,-24.1251,-46.0627
16:14:37.146,-26.1876,-48.6252
16:14:37.156,-26.8751,-51.0627
16:14:37.166,-27.4376,-51.6252
16:14:37.176,-28.3126,-55.3127
16:14:37.186,-29.9376,-56.5002
16:14:37.196,-30.5001,-58.5627
16:14:37.206,-29.6251,-57.1877
16:14:37.216,-27.1251,-54.4377
16:14:37.226,-21.6251,-45.0002
16:14:37.237,-14.0001,-30.9376
16:14:37.247,-4.625,-10.875
16:14:37.256,1.9375,5.25
16:14:37.266,8.1875,18.3126
16:14:37.276,11.9375,27.6251
16:14:37.286,15.3126,35.2501
16:14:37.297,17.3751,38.1251
16:14:37.306,18.3751,41.7502
16:14:37.316,18.6251,39.9377
16:14:37.326,16.5626,39.6877
16:14:37.336,14.6876,35.2501
16:14:37.346,11.6875,32.1876
16:14:37.357,8.8125,27.0001
16:14:37.366,7.4375,25.6251
16:14:37.376,6.6875,21.8751
16:14:37.386,6.625,20.8126
16:14:37.396,6.5625,19.1251
16:14:37.406,7.4375,17.8126
16:14:37.417,6.1875,14.3126
16:14:37.426,3.625,11.6875
16:14:37.436,2.4375,6.875
16:14:37.447,-1.375,1.9375
16:14:37.457,-5.3125,-1.75
16:14:37.467,-6.5,-6.625
16:14:37.476,-8.5,-9
16:14:37.486,-7.9375,-11.6875
16:14:37.496,-7.0625,-10.5
16:14:37.507,-5.375,-10.9375
16:14:37.516,-5,-10.6875
16:14:37.526,-4.5,-11.75
16:14:37.539,-5.0625,-11.875
16:14:37.546,-5.75,-12.875
16:14:37.556,-6.125,-13.5626
16:14:37.566,-6.4375,-15.6876
16:14:37.576,-6.8125,-16.0626
16:14:37.586,-5.25,-15.7501
16:14:37.603,-4.375,-16.3751
16:14:37.610,-3.6875,-16.0001
16:14:37.625,-3.875,-17.4376
16:14:37.627,-3.8125,-19.4376
16:14:37.642,-6.1875,-21.8751
16:14:37.646,-8.5,-25.8751
16:14:37.666,-8.9375,-28.7501
16:14:37.669,-10,-31.1876
16:14:37.701,-9.8125,-32.6876
16:14:37.706,-9.5625,-34.0626
16:14:37.707,-10.9375,-36.9376
16:14:37.709,-12.1875,-39.1251
16:14:37.740,-13.7501,-41.3752
16:14:37.741,-16.3751,-46.0627
16:14:37.744,-17.1251,-48.6252
16:14:37.752,-18.2501,-49.8127
16:14:37.756,-17.0626,-51.1877
16:14:37.794,-15.5626,-49.2502
16:14:37.796,-14.5001,-49.5627
16:14:37.813,-13.3751,-48.7502
16:14:37.840,-13.5626,-48.8752
16:14:37.843,-11.3125,-45.5002
16:14:37.845,-8.9375,-37.4376
16:14:37.846,-3.4375,-26.3126
16:14:37.848,3.625,-8.375
16:14:37.854,11.5,11.1875
16:14:37.856,19.6251,25.7501
16:14:37.867,26.6876,38.6876
16:14:37.877,31.0001,46.1877
16:14:37.886,32.8751,51.3752
16:14:37.896,32.8751,51.3752
16:14:37.906,31.6251,51.0627
16:14:37.916,29.3126,47.3752
16:14:37.926,26.8751,44.7502
16:14:37.952,25.1876,39.8127
16:14:37.956,23.0626,37.8751
16:14:37.958,22.4376,34.1876
16:14:37.966,21.5001,30.1876
16:14:37.976,19.8751,27.2501
16:14:37.986,18.0626,23.4376
16:14:37.997,15.7501,17.8126
16:14:38.007,12,12.0625
16:14:38.016,9.4375,7.25
16:14:38.026,7.125,1
16:14:38.036,6.6875,-1.25
16:14:38.046,7.4375,-3.4375
16:14:38.056,8,-4.5
16:14:38.067,8.75,-5.1875
16:14:38.076,9.5625,-5.875
16:14:38.086,9.25,-7.5625
16:14:38.096,7.8125,-8.375
16:14:38.106,6.0625,-10.875
16:14:38.116,5.375,-12.5
16:14:38.126,5.125,-13.5001
16:14:38.136,5.0625,-12.6875
16:14:38.147,6.5,-11.875
16:14:38.157,8.3125,-10.75
16:14:38.166,9.5625,-10
16:14:38.176,10.4375,-10.5
16:14:38.186,10.6875,-11.0625
16:14:38.196,9.125,-13.5001
16:14:38.206,7.8125,-15.5626
16:14:38.216,4.4375,-19.6251
16:14:38.226,2.3125,-23.6251
16:14:38.236,0,-24.8751
16:14:38.246,-0.375,-28.5626
16:14:38.256,-1.25,-27.6876
16:14:38.266,-0.75,-30.3126
16:14:38.276,-1.875,-30.8751
16:14:38.290,-3.25,-34.3751
16:14:38.296,-6.3125,-36.0626
16:14:38.306,-7.5,-40.6877
16:14:38.317,-10.4375,-41.9377
16:14:38.343,-11.5,-44.2502
16:14:38.346,-12.125,-44.7502
16:14:38.348,-12.375,-45.8752
16:14:38.380,-12.9375,-47.0002
16:14:38.382,-13.3751,-46.4377
16:14:38.385,-12.875,-45.5002
16:14:38.387,-11.6875,-43.2502
16:14:38.426,-8.3125,-35.4376
16:14:38.428,-1.625,-23.1876
16:14:38.430,8.5,-3.9375
16:14:38.438,16.5626,15.7501
16:14:38.438,23.8751,31.3751
16:14:38.452,28.0626,42.8752
16:14:38.456,30.9376,49.2502
16:14:38.484,32.6876,54.0627
16:14:38.488,31.8751,56.2502
16:14:38.492,31.0001,53.9377
16:14:38.509,28.0001,51.9377
16:14:38.511,25.8126,46.6877
16:14:38.521,23.5001,43.0627
16:14:38.531,20.5626,39.3752
16:14:38.542,17.6251,33.4376
16:14:38.551,15.5001,29.7501
16:14:38.562,13.1876,26.1251
16:14:38.572,10.75,20.3126
16:14:38.581,8.75,15.1251
16:14:38.591,5.375,10.875
16:14:38.601,1.8125,5
16:14:38.612,-0.4375,-1.6875
16:14:38.621,-3.4375,-6
16:14:38.631,-4.875,-11.5625
16:14:38.641,-6.125,-12.9375
16:14:38.651,-6.4375,-14.8126
16:14:38.663,-7.1875,-17.0626
16:14:38.674,-7.1875,-17.3751
16:14:38.681,-6.875,-16.6876
16:14:38.691,-5.9375,-16.8126
16:14:38.701,-6.4375,-17.3126
16:14:38.711,-7.1875,-16.1251
16:14:38.722,-6.75,-17.5626
16:14:38.731,-6.625,-18.5626
16:14:38.741,-7.5,-19.0626
16:14:38.752,-8.0625,-19.6876
16:14:38.761,-8.625,-22.0001
16:14:38.772,-9.625,-23.4376
16:14:38.781,-10.1875,-25.4376
16:14:38.791,-11.5625,-27.3751
16:14:38.802,-12.125,-28.2501
16:14:38.812,-12.5,-31.1876
16:14:38.821,-12.8125,-32.5626
16:14:38.831,-13.9376,-35.6251
16:14:38.841,-15.1876,-36.9376
16:14:38.851,-16.8126,-40.3127
16:14:38.861,-17.9376,-42.6252
16:14:38.871,-19.8126,-45.4377
16:14:38.881,-21.3126,-47.1252
16:14:38.891,-23.2501,-49.4377
16:14:38.911,-23.0001,-50.4377
16:14:38.917,-23.6876,-51.9377
16:14:38.932,-23.2501,-51.0627
16:14:38.935,-22.3751,-52.1877
16:14:38.944,-20.6251,-49.1877
16:14:38.951,-18.3126,-45.3127
16:14:38.961,-13.3751,-36.7501
16:14:38.971,-7.1875,-22.3126
16:14:38.981,1.125,-6.4375
16:14:38.991,9.0625,14.3126
16:14:39.001,14.7501,26.8126
16:14:39.011,19.9376,38.7501
16:14:39.021,23.6876,47.2502
16:14:39.032,26.0626,50.4377
16:14:39.041,26.8751,53.2502
16:14:39.051,25.8126,51.1252
16:14:39.061,24.3126,49.0627
16:14:39.071,21.8126,46.4377
16:14:39.081,19.4376,41.6877
16:14:39.160,15.8751,37.5626
16:14:39.191,15.1251,33.8751
16:14:39.193,12.3125,29.8751
16:14:39.193,11.25,25.5001
16:14:39.195,9.8125,22.1876
16:14:39.196,7.75,17.3751
16:14:39.201,6.5,13.8751
16:14:39.202,4.4375,8.25
16:14:39.202,2.6875,3.5625
16:14:39.232,2,-0.0625
16:14:39.234,-0.25,-3.9375
16:14:39.237,-1.3125,-7.75
16:14:39.242,-3.375,-9.5625
16:14:39.270,-3.8125,-11.5625
16:14:39.273,-5.4375,-13.0625
16:14:39.275,-4.75,-13.8751
16:14:39.281,-5.1875,-13.6251
16:14:39.291,-3.4375,-12.625
16:14:39.301,-2.0625,-12.375
16:14:39.311,-0.3125,-10.875
16:14:39.321,-0.875,-11.3125
16:14:39.331,-1.625,-11.375
16:14:39.341,-2.3125,-14.3126
16:14:39.351,-5.0625,-16.5001
16:14:39.361,-8,-19.9376
16:14:39.371,-6.875,-25.0626
16:14:39.381,-8,-26.8126
16:14:39.391,-9.1875,-30.1876
16:14:39.401,-11.625,-31.8751
16:14:39.413,-13.8751,-36.8126
16:14:39.423,-16.5626,-39.5627
16:14:39.431,-20.0001,-45.0002
16:14:39.441,-21.6251,-47.0002
16:14:39.453,-23.5001,-47.5002
16:14:39.461,-23.0626,-49.6877
16:14:39.471,-21.8751,-49.6252
16:14:39.482,-23.0626,-49.6252
16:14:39.491,-23.5626,-50.3752
16:14:39.502,-23.8751,-51.8127
16:14:39.511,-24.1251,-51.5002
16:14:39.521,-23.9376,-48.8752
16:14:39.531,-19.7501,-41.0627
16:14:39.542,-12.375,-25.0626
16:14:39.552,-2.875,-4.625
16:14:39.562,7.125,16.8126
16:14:39.571,16.5001,32.8751
16:14:39.581,21.5001,44.8127
16:14:39.591,24.3126,50.2502
16:14:39.602,24.2501,52.7502
16:14:39.611,22.9376,54.0627
16:14:39.621,20.8751,51.8752
16:14:39.631,18.6251,50.2502
16:14:39.641,15.3126,45.8127
16:14:39.653,17.1251,47.0627
16:14:39.661,11.875,41.0002
16:14:39.671,8.375,37.1251
16:14:39.681,-0.375,28.0001
16:14:39.692,-11.375,16.1876
16:14:39.702,-22.2501,5.3125
16:14:39.711,-30.8751,-2.4375
16:14:39.721,-36.3126,-9.5625
16:14:39.731,-39.8127,-12.125
16:14:39.741,-44.5002,-17.3751
16:14:39.752,-52.0627,-24.1876
16:14:39.761,-59.6877,-30.6251
16:14:39.771,-67.5628,-36.5626
16:14:39.787,-76.0628,-43.8752
16:14:39.792,-83.2503,-48.3752
16:14:39.830,-87.5628,-50.6877
16:14:39.834,-86.8753,-49.6252
16:14:39.834,-83.0003,-45.4377
16:14:39.837,-81.4378,-44.8752
16:14:39.842,-80.8128,-42.6877
16:14:39.852,-78.8753,-41.6252
16:14:39.886,-78.7503,-41.0002
16:14:39.889,-76.8753,-39.8752
16:14:39.890,-74.5003,-37.7501
16:14:39.893,-72.0003,-36.6876
16:14:39.927,-69.4378,-34.1876
16:14:39.931,-67.3128,-33.8751
16:14:39.933,-67.0003,-34.1251
16:14:39.938,-65.3128,-34.6876
16:14:39.965,-66.1878,-34.8126
16:14:39.966,-66.0003,-36.3126
16:14:39.970,-65.5002,-37.1876
16:14:39.980,-66.0628,-39.4377
16:14:39.982,-66.0628,-41.0002
16:14:39.991,-66.8128,-43.4377
16:14:40.001,-66.3128,-44.6252
16:14:40.011,-67.5628,-45.3127
16:14:40.021,-67.5628,-48.1252
16:14:40.032,-68.1253,-49.5002
16:14:40.042,-67.2503,-51.6252
16:14:40.051,-66.5003,-52.0627
16:14:40.061,-66.9378,-54.4377
16:14:40.071,-66.3128,-55.8127
16:14:40.081,-66.5003,-56.3127
16:14:40.092,-64.3752,-55.5627
16:14:40.101,-61.8752,-48.6877
16:14:40.111,-55.8752,-41.7502
16:14:40.124,-49.6877,-29.3751
16:14:40.131,-43.5002,-19.8126
16:14:40.141,-40.1252,-10.75
16:14:40.152,-36.0626,-4.6875
16:14:40.162,-33.0626,-0.125
16:14:40.171,-31.7501,2.8125
16:14:40.181,-29.4376,5.4375
16:14:40.191,-28.9376,6.9375
16:14:40.201,-27.8751,5.6875
16:14:40.219,-27.1876,5.75
16:14:40.225,-27.8751,5.0625
16:14:40.241,-27.4376,2.875
16:14:40.244,-27.6251,1.625
16:14:40.251,-26.7501,-0.625
16:14:40.261,-28.8126,-3.25
16:14:40.271,-30.0001,-5.875
16:14:40.282,-30.5001,-9.75
16:14:40.291,-31.0626,-11.75
16:14:40.301,-30.7501,-14.3126
16:14:40.312,-31.5626,-16.0626
16:14:40.323,-31.3126,-19.1876
16:14:40.331,-33.4376,-22.3751
16:14:40.342,-33.3126,-24.1251
16:14:40.352,-35.0001,-27.0001
16:14:40.361,-34.9376,-27.6251
16:14:40.371,-34.8126,-28.5626
16:14:40.381,-33.8126,-27.6876
16:14:40.392,-32.3126,-26.6876
16:14:40.401,-31.5001,-25.1876
16:14:40.411,-31.1251,-24.2501
16:14:40.421,-30.9376,-23.8751
16:14:40.442,-30.5626,-23.9376
16:14:40.444,-29.1251,-23.0626
16:14:40.459,-29.0626,-22.8751
16:14:40.462,-28.1251,-21.7501
16:14:40.471,-27.1876,-22.7501
16:14:40.482,-27.8126,-21.8751
16:14:40.511,-27.9376,-23.0001
16:14:40.513,-28.9376,-23.5001
16:14:40.515,-28.7501,-24.7501
16:14:40.522,-29.1251,-24.0626
16:14:40.531,-29.2501,-26.5001
16:14:40.541,-30.3751,-26.1251
16:14:40.560,-30.8751,-28.6876
16:14:40.562,-32.3751,-28.8126
16:14:40.590,-32.1876,-30.7501
16:14:40.593,-32.8126,-30.5001
16:14:40.595,-32.1251,-31.4376
16:14:40.602,-32.0001,-33.0001
16:14:40.627,-31.1876,-31.8751
16:14:40.629,-31.8126,-34.4376
16:14:40.659,-32.0626,-34.2501
16:14:40.661,-31.2501,-34.9376
16:14:40.663,-31.0001,-34.5001
16:14:40.665,-29.8751,-33.2501
16:14:40.672,-27.8126,-31.8751
16:14:40.711,-24.6251,-26.3751
16:14:40.714,-18.8751,-18.6251
16:14:40.715,-11.8125,-6.5625
16:14:40.717,-5.4375,3.8125
16:14:40.724,-1.875,14.5001
16:14:40.736,3.4375,21.3126
16:14:40.742,5.3125,27.9376
16:14:40.751,7.375,31.3751
16:14:40.761,8.5,33.4376
16:14:40.773,9.4375,35.5626
16:14:40.781,11,37.0001
16:14:40.791,11.25,38.0001
16:14:40.801,11.4375,37.3751
16:14:40.811,11.625,35.6876
16:14:40.821,10.3125,35.6876
16:14:40.833,11.1875,34.6876
16:14:40.841,10.6875,32.8751
16:14:40.851,9.9375,31.0626
16:14:40.861,7.9375,29.8751
16:14:40.874,7.0625,26.7501
16:14:40.882,5.75,24.8751
16:14:40.891,5.5,22.0626
16:14:40.902,4.1875,20.3126
16:14:40.911,3.5625,19.2501
16:14:40.921,3.5,18.0001
16:14:40.932,2.5,17.7501
16:14:40.942,2.0625,15.8126
16:14:40.951,1.125,14.8751
16:14:40.961,0.75,13.3126
16:14:40.971,0.25,12.1875
16:14:40.982,0.5625,12.25
16:14:40.991,0.25,10.8125
16:14:41.001,0.3125,10.75
16:14:41.011,0,9.375
16:14:41.021,-0.125,8.6875
16:14:41.031,-0.75,7.4375
16:14:41.042,-1.5,6.375
16:14:41.051,-1.0625,5.375
16:14:41.061,-2.25,4.3125
16:14:41.073,-2.0625,3
16:14:41.081,-3.25,0.75
16:14:41.091,-4.625,0.1875
16:14:41.101,-4.3125,-2.6875
16:14:41.116,-4.9375,-4.4375
16:14:41.121,-7,-7.625
16:14:41.132,-8.3125,-9.1875
16:14:41.141,-7.3125,-11.9375
16:14:41.153,-9.375,-15.2501
16:14:41.161,-11.125,-19.3751
16:14:41.173,-13.125,-21.7501
16:14:41.181,-13.8126,-26.1251
16:14:41.192,-15.8126,-29.2501
16:14:41.202,-17.8751,-31.3751
16:14:41.214,-18.3751,-36.7501
16:14:41.257,-20.3126,-40.4377
16:14:41.260,-21.6876,-42.1252
16:14:41.260,-22.8126,-45.5627
16:14:41.292,-23.1876,-46.0002
16:14:41.292,-20.9376,-45.1877
16:14:41.293,-19.0626,-40.5627
16:14:41.295,-13.8126,-30.3126
16:14:41.302,-8.1875,-17.7501
16:14:41.302,-1.8125,-5.0625
16:14:41.316,3.375,6.6875
16:14:41.322,6.75,13.8126
16:14:41.359,8.875,20.1876
16:14:41.361,9.375,21.3751
16:14:41.365,9.9375,23.6251
16:14:41.369,9.5,22.6876
16:14:41.372,9.75,23.3126
16:14:41.404,8.125,20.8751
16:14:41.406,7.375,19.8751
16:14:41.408,6.875,17.6251
16:14:41.414,6.125,17.0626
16:14:41.424,5.3125,14.8126
16:14:41.432,4.5,11.4375
16:14:41.442,3,10.25
16:14:41.452,3.375,8.1875
16:14:41.462,3,5.75
16:14:41.472,2.3125,5.0625
16:14:41.482,3.1875,3.375
16:14:41.496,2.6875,1.625
16:14:41.503,2,1.125
16:14:41.520,3.25,1.375
16:14:41.526,3.5,2.25
16:14:41.541,4.1875,1.5625
16:14:41.544,4.125,1.5625
16:14:41.551,3.3125,1.125
16:14:41.563,2.5625,1.75
16:14:41.572,1.6875,0.1875
16:14:41.581,0.125,-1.5
16:14:41.592,-1.875,-2.75
16:14:41.602,-3.625,-2.9375
16:14:41.614,-3.625,-3.6875
16:14:41.622,-3.0625,-3.25
16:14:41.632,-3.1875,-3.6875
16:14:41.643,-1.9375,-3.375
16:14:41.652,-1.5,-1.3125
16:14:41.661,-0.1875,-1.875
16:14:41.673,-1.0625,-3
16:14:41.682,-1.375,-4.125
16:14:41.692,-2.25,-3.9375
16:14:41.701,-2.5,-3.3125
16:14:41.712,-1.375,-5.125
16:14:41.721,-2.3125,-4.8125
16:14:41.737,-2.3125,-6
16:14:41.754,-2.5625,-7.3125
16:14:41.758,-2.5,-7.5
16:14:41.762,-3.375,-8.9375
16:14:41.790,-3.0625,-9.4375
16:14:41.793,-4.25,-12.125
16:14:41.795,-4.875,-12.25
16:14:41.802,-5.625,-14.1876
16:14:41.813,-6.25,-14.8751
16:14:41.822,-6.5625,-15.8126
16:14:41.832,-6.125,-14.8126
16:14:41.841,-3.5,-12.3125
16:14:41.852,-2,-8.125
16:14:41.863,1.8125,-1.5
16:14:41.871,5.25,8
16:14:41.883,9.625,16.5626
16:14:41.891,11.8125,23.1876
16:14:41.902,13.5001,29.6876
16:14:41.912,16.3751,33.5626
16:14:41.921,17.5001,37.1876
16:14:41.931,18.0001,38.6251
16:14:41.944,18.1876,38.9376
16:14:41.952,17.3751,39.1876
16:14:41.971,16.8126,36.9376
16:14:41.974,15.8751,36.0626
16:14:42.006,14.6251,33.1876
16:14:42.007,13.8126,31.6251
16:14:42.010,13.2501,29.5001
16:14:42.012,12.4375,28.3751
16:14:42.047,11.8125,26.1876
16:14:42.049,9.9375,23.2501
16:14:42.051,9.25,22.0001
16:14:42.053,9,19.9376
16:14:42.089,8,17.0001
16:14:42.091,7,14.8751
16:14:42.093,6,13.1876
16:14:42.127,5.75,11.1875
16:14:42.127,4.9375,8.9375
16:14:42.129,4.375,9.5
16:14:42.138,4.125,8.875
16:14:42.138,4.5,7.125
16:14:42.143,3.375,8.8125
16:14:42.153,4.3125,6.625
16:14:42.162,4.6875,6.0625
16:14:42.173,4.0625,6.1875
16:14:42.182,3.25,5.25
16:14:42.192,2.8125,3.0625
16:14:42.202,2.3125,1.875
16:14:42.214,1.8125,-0.1875
16:14:42.222,1.375,-0.0625
16:14:42.232,1.1875,-3.125
16:14:42.246,0.4375,-4.4375
16:14:42.253,-0.5,-6.8125
16:14:42.262,-2.25,-10.5
16:14:42.272,-3.25,-11.8125
16:14:42.282,-5.125,-14.6251
16:14:42.292,-6.75,-18.1876
16:14:42.302,-8.4375,-21.8751
16:14:42.313,-10,-23.5001
16:14:42.323,-11,-27.1251
16:14:42.332,-12.625,-30.4376
16:14:42.342,-13.8751,-31.7501
16:14:42.352,-14.8126,-34.1251
16:14:42.364,-15.2501,-37.1251
16:14:42.373,-17.0001,-40.8752
16:14:42.382,-18.3751,-42.0627
16:14:42.393,-19.2501,-45.3127
16:14:42.402,-18.8126,-44.0627
16:14:42.412,-16.3126,-43.8127
16:14:42.425,-13.0625,-36.6876
16:14:42.434,-7.375,-27.0001
16:14:42.442,-0.25,-13.5626
16:14:42.452,6.4375,0.125
16:14:42.463,11.3125,11.8125
16:14:42.472,14.4376,20.0001
16:14:42.484,16.6251,26.8751
16:14:42.493,18.6876,29.4376
16:14:42.507,18.8751,33.3751
16:14:42.518,19.3751,33.7501
16:14:42.528,19.7501,34.6251
16:14:42.538,19.4376,32.8751
16:14:42.548,18.1876,33.1251
16:14:42.557,18.2501,32.7501
16:14:42.567,17.8126,29.5626
16:14:42.577,18.1251,28.3751
16:14:42.587,16.8751,27.3126
16:14:42.597,17.4376,26.0626
16:14:42.607,16.0001,24.8751
16:14:42.618,15.0001,21.1876
16:14:42.630,13.1251,19.5626
16:14:42.637,11.625,16.3126
16:14:42.647,8.75,14.6251
16:14:42.658,7.1875,10.9375
16:14:42.667,5.4375,10.6875
16:14:42.679,5.8125,10.3125
16:14:42.705,5.5625,9.5
16:14:42.707,5.5,9.875
16:14:42.736,7.125,11.25
16:14:42.738,7.625,10.875
16:14:42.742,6.75,11.0625
16:14:42.746,7.375,12.0625
16:14:42.748,8.3125,12.1875
16:14:42.790,8.625,12.625
16:14:42.791,7.875,12.5625
16:14:42.794,8.125,12.4375
16:14:42.796,7.75,11
16:14:42.799,7.3125,11.25
16:14:42.870,6.875,11.4375
16:14:42.870,7.1875,10.8125
16:14:42.870,6.875,9.125
16:14:42.876,5.625,8.25
16:14:42.876,4.8125,6.6875
16:14:42.876,4.5,7.0625
16:14:42.883,3.75,5.6875
16:14:42.892,3.25,2.9375
16:14:42.903,2.125,2
16:14:42.913,0.875,2.125
16:14:42.923,0.9375,-0.3125
16:14:42.932,-0.1875,-3.25
16:14:42.942,-1.3125,-4.75
16:14:42.952,-2.375,-4.75
16:14:42.962,-2.9375,-6.75
16:14:42.976,-3.6875,-8.6875
16:14:42.982,-4.9375,-8.75
16:14:42.996,-4.9375,-8.5625
16:14:43.004,-3.25,-7.1875
16:14:43.014,-0.5625,-3.3125
16:14:43.034,3.0625,4.125
16:14:43.038,6.9375,12
16:14:43.073,16.0001,30.8751
16:14:43.075,17.8751,36.5626
16:14:43.079,19.5626,38.9376
16:14:43.080,20.3751,42.0002
16:14:43.090,21.6251,43.5002
16:14:43.099,21.3751,44.8127
16:14:43.107,21.8126,44.6252
16:14:43.117,21.0001,43.1877
16:14:43.127,20.5626,42.2502
16:14:43.138,18.9376,38.6876
16:14:43.147,17.6251,37.1876
16:14:43.159,15.8126,35.1251
16:14:43.169,14.9376,32.5001
16:14:43.177,13.0625,29.8126
16:14:43.187,12.5,27.7501
16:14:43.197,11.5625,24.8751
16:14:43.207,10.6875,21.6251
16:14:43.217,10,19.0626
16:14:43.228,8.8125,17.8126
16:14:43.237,8.5,15.8126
16:14:43.247,8.75,14.3126
16:14:43.259,7.25,11.9375
16:14:43.268,6.0625,11.8125
16:14:43.277,6.8125,10
16:14:43.287,5,7.9375
16:14:43.297,4.75,7.25
16:14:43.307,3.4375,5.75
16:14:43.317,2.9375,3.125
16:14:43.327,1.75,1.1875
16:14:43.337,0.5,-0.125
16:14:43.348,-0.375,-2.3125
16:14:43.357,-1.375,-4.5625
16:14:43.371,-2.875,-5.75
16:14:43.377,-3.75,-6.8125
16:14:43.387,-4.75,-10.375
16:14:43.397,-6.0625,-13.3126
16:14:43.407,-7.9375,-15.6876
16:14:43.417,-9,-16.8751
16:14:43.430,-9.5625,-20.3126
16:14:43.439,-11.5,-22.9376
16:14:43.447,-12.25,-23.5626
16:14:43.457,-12.75,-26.5626
16:14:43.467,-13.8751,-29.2501
16:14:43.482,-15.0626,-31.3126
16:14:43.519,-15.6251,-33.1251
16:14:43.522,-16.1251,-35.8126
16:14:43.524,-17.3751,-37.2501
16:14:43.526,-18.1251,-40.6252
16:14:43.532,-19.1876,-42.0002
16:14:43.539,-20.1251,-43.5627
16:14:43.575,-20.3751,-46.3127
16:14:43.577,-20.4376,-46.5627
16:14:43.581,-20.0001,-46.5002
16:14:43.582,-16.7501,-41.4377
16:14:43.589,-12,-32.1251
16:14:43.629,-5.4375,-18.5001
16:14:43.631,1.4375,-4.4375
16:14:43.634,9.125,10.3125
16:14:43.636,13.8126,19.5001
16:14:43.639,17.5001,27.8751
16:14:43.653,20.3751,32.8751
16:14:43.657,21.8126,37.7501
16:14:43.667,21.2501,38.0626
16:14:43.677,21.2501,38.6251
16:14:43.687,19.2501,36.3751
16:14:43.697,17.6876,36.5001
16:14:43.708,15.5626,33.2501
16:14:43.717,13.8126,31.5626
16:14:43.727,11.8125,29.2501
16:14:43.737,10.5,28.5626
16:14:43.747,10.9375,27.0626
16:14:43.757,10.4375,25.6876
16:14:43.767,9.625,24.8126
16:14:43.777,8.9375,23.5001
16:14:43.787,8.5625,23.0626
16:14:43.798,8.6875,21.0001
16:14:43.808,8.4375,19.6251
16:14:43.817,8.375,19.6876
16:14:43.827,9.0625,18.5626
16:14:43.837,8.25,19.5001
16:14:43.847,9.4375,18.1251
16:14:43.857,9.0625,18.4376
16:14:43.867,8.875,18.6251
16:14:43.878,8.5625,17.1251
16:14:43.889,8.4375,16.6876
16:14:43.897,8.4375,17.1251
16:14:43.907,7.5625,17.6251
16:14:43.917,7.8125,17.2501
16:14:43.927,6.5,15.8751
16:14:43.940,5.1875,15.3126
16:14:43.948,5.375,13.2501
16:14:43.958,3.75,13.6876
16:14:43.968,3.9375,11.0625
16:14:43.979,2.125,10.3125
16:14:43.988,1.375,8.9375
16:14:43.998,1.125,6.4375
16:14:44.007,1.1875,6.4375
16:14:44.017,0.625,5
16:14:44.027,-0.1875,3.25
16:14:44.037,-0.8125,1.875
16:14:44.047,-1.375,-0.625
16:14:44.057,-2.75,-1.5625
16:14:44.068,-2.75,-3
16:14:44.077,-3.8125,-5.75
16:14:44.087,-4.875,-7.3125
16:14:44.097,-4.625,-8.25
16:14:44.108,-5.75,-10.0625
16:14:44.122,-6.6875,-12.125
16:14:44.137,-6.625,-14.8751
16:14:44.140,-7.4375,-15.8126
16:14:44.147,-7.4375,-17.3126
16:14:44.158,-7.5625,-17.0001
16:14:44.167,-6.375,-14.8751
16:14:44.178,-3.125,-10.3125
16:14:44.187,1.375,-1.3125
16:14:44.198,5.75,6.5
16:14:44.225,9.5,15.0001
16:14:44.227,12.375,20.4376
16:14:44.230,14.5001,25.7501
16:14:44.264,15.6876,28.4376
16:14:44.266,16.1876,30.9376
16:14:44.269,16.1251,30.3126
16:14:44.271,15.5626,30.1876
16:14:44.279,13.8751,27.9376
16:14:44.357,13.0625,26.4376
16:14:44.357,12.1875,24.9376
16:14:44.359,11.25,22.1876
16:14:44.362,10,20.1251
16:14:44.363,7.6875,17.6876
16:14:44.374,6.125,14.5626
16:14:44.375,5.5625,12
16:14:44.375,3.8125,8.9375
16:14:44.378,1.8125,6.0625
16:14:44.390,-0.625,3
16:14:44.398,-0.5625,0.4375
16:14:44.407,-2.125,-2.25
16:14:44.417,-3.875,-5.1875
16:14:44.429,-4.4375,-5.4375
16:14:44.438,-5.3125,-6.8125
16:14:44.449,-5.6875,-8.8125
16:14:44.457,-6,-10.25
16:14:44.468,-6.875,-9.9375
16:14:44.477,-6.8125,-11.25
16:14:44.487,-7.375,-11.9375
16:14:44.498,-7.9375,-12.25
16:14:44.507,-7.375,-12.9375
16:14:44.519,-8.25,-13.3126
16:14:44.527,-9.3125,-13.7501
16:14:44.537,-9.125,-15.1251
16:14:44.547,-9.4375,-16.3126
16:14:44.557,-9.875,-17.1876
16:14:44.567,-10,-18.8126
16:14:44.577,-11.1875,-19.0001
16:14:44.588,-10.6875,-21.0626
16:14:44.597,-11.25,-21.1876
16:14:44.608,-11.625,-21.9376
16:14:44.617,-9.375,-22.1876
16:14:44.629,-9.25,-22.1251
16:14:44.637,-9.25,-23.6251
16:14:44.647,-9.25,-24.6876
16:14:44.658,-9.125,-25.6876
16:14:44.667,-11.0625,-27.5626
16:14:44.679,-12.25,-30.1251
16:14:44.689,-14.1876,-31.0001
16:14:44.699,-15.0001,-33.4376
16:14:44.707,-16.3126,-33.5001
16:14:44.717,-17.1876,-35.3751
16:14:44.727,-19.1876,-37.2501
16:14:44.737,-18.8751,-35.6876
16:14:44.747,-18.1251,-34.3126
16:14:44.757,-14.8126,-27.5001
16:14:44.767,-9.625,-19.3751
16:14:44.777,-3.9375,-8
16:14:44.788,-0.3125,1.5625
16:14:44.797,3.375,10.5625
16:14:44.807,6.9375,16.5001
16:14:44.818,8,22.2501
16:14:44.830,9.625,25.6876
16:14:44.837,10.6875,29.4376
16:14:44.850,11.625,31.1876
16:14:44.858,12.0625,31.4376
16:14:44.873,12.125,32.5001
16:14:44.878,11,31.1876
16:14:44.890,10.5,30.3751
16:14:44.919,9.5,28.7501
16:14:44.922,8.8125,26.6251
16:14:44.924,8.25,26.2501
16:14:44.929,8.375,25.6251
16:14:44.956,9,25.3126
16:14:44.958,7.375,24.4376
16:14:44.961,6.125,22.6251
16:14:44.968,6.8125,21.0626
16:14:45.007,5.9375,18.8126
16:14:45.009,5.0625,17.9376
16:14:45.011,4.1875,15.6876
16:14:45.037,3.25,13.7501
16:14:45.039,1.75,11.375
16:14:45.040,1.125,11.6875
16:14:45.043,1.4375,11.6875
16:14:45.048,1.9375,9.875
16:14:45.078,2,11
16:14:45.081,1.5625,10.625
16:14:45.085,1.0625,10.8125
16:14:45.089,2.0625,10.75
16:14:45.099,4.1875,11.5625
16:14:45.110,6.6875,14.6876
16:14:45.117,7.9375,15.8751
16:14:45.127,9.9375,15.4376
16:14:45.137,10.9375,17.2501
16:14:45.148,12.75,19.0626
16:14:45.157,15.0626,20.5001
16:14:45.167,16.9376,21.1876
16:14:45.177,18.5626,21.5626
16:14:45.187,20.8126,22.9376
16:14:45.197,22.9376,25.3126
16:14:45.207,24.0626,24.7501
16:14:45.218,23.8126,23.5626
16:14:45.230,22.3126,21.8751
16:14:45.240,21.3751,20.7501
16:14:45.248,21.6251,19.5626
16:14:45.257,21.9376,17.7501
16:14:45.267,21.4376,16.5001
16:14:45.277,21.5626,15.8751
16:14:45.287,20.4376,12.375
16:14:45.297,43.5002,17.8751
16:14:45.307,49.8752,31.8126
16:14:45.317,60.5002,36.9376
16:14:45.328,69.6253,41.5627
16:14:45.337,78.0628,48.6877
16:14:45.347,84.1878,51.1877
16:14:45.358,85.0628,53.1252
16:14:45.368,87.4378,58.4377
16:14:45.378,90.1253,63.2502
16:14:45.387,96.5629,72.3753
16:14:45.397,110.3754,89.1878
16:14:45.418,125.938,105.4379
16:14:45.425,136.688,118.2505
16:14:45.440,142.063,125.5005
16:14:45.441,144.563,128.7505
16:14:45.449,144.8755,127.813
16:14:45.457,145.813,129.5005
16:14:45.468,144.938,126.438
16:14:45.477,145.188,125.5005
16:14:45.487,146.1255,126.0005
16:14:45.497,144.3755,122.688
16:14:45.508,138.7505,116.8754
16:14:45.518,129.938,110.1879
16:14:45.528,117.7505,96.9379
16:14:45.537,103.1254,82.3128
16:14:45.547,99.5004,76.8128
16:14:45.561,96.6254,71.6253
16:14:45.568,98.7504,73.4378
16:14:45.577,103.8129,76.5628
16:14:45.587,106.6254,78.3753
16:14:45.598,105.3754,77.2503
16:14:45.630,100.6879,73.1253
16:14:45.646,93.8129,64.9377
16:14:45.649,83.8753,56.6877
16:14:45.651,77.3753,49.1877
16:14:45.653,72.0003,44.6252
16:14:45.659,71.0003,42.8127
16:14:45.690,71.0628,43.2502
16:14:45.691,70.0003,43.0002
16:14:45.694,67.1878,40.3127
16:14:45.699,62.4377,35.9376
16:14:45.727,54.4377,28.1876
16:14:45.730,47.9377,21.6876
16:14:45.733,41.1252,15.2501
16:14:45.739,35.8126,9.6875
16:14:45.775,33.0626,6.6875
16:14:45.779,33.4376,5.125
16:14:45.781,33.0001,5.25
16:14:45.785,33.3126,5.25
16:14:45.788,32.1876,3
16:14:45.818,28.6876,-1.375
16:14:45.821,25.6251,-5.625
16:14:45.825,22.0001,-9.4375
16:14:45.831,22.1876,-11.8125
16:14:45.846,22.5626,-12.5
16:14:45.851,22.5001,-12.9375
16:14:45.857,21.4376,-16.5001
16:14:45.868,18.1251,-21.2501
16:14:45.877,12.625,-27.8126
16:14:45.887,7.625,-35.1251
16:14:45.897,3.9375,-38.5001
16:14:45.908,3.75,-41.0002
16:14:45.919,5.3125,-41.6252
16:14:45.927,8.6875,-39.5627
16:14:45.937,13.3751,-36.8751
16:14:45.947,18.8751,-32.7501
16:14:45.958,23.3126,-26.7501
16:14:45.968,29.8751,-17.8126
16:14:45.977,37.1876,-3.6875
16:14:45.987,45.8127,14.5626
16:14:45.999,53.1252,30.1876
16:14:46.010,60.8127,44.3127
16:14:46.018,67.1253,57.5627
16:14:46.027,74.6878,67.8753
16:14:46.037,80.5003,76.3128
16:14:46.048,85.1878,82.0628
16:14:46.057,87.9378,85.5003
16:14:46.069,90.8129,87.2503
16:14:46.078,90.8129,88.3753
16:14:46.087,91.1254,87.2503
16:14:46.097,90.5628,85.5628
16:14:46.107,91.8754,85.0003
16:14:46.117,91.1879,84.1253
16:14:46.127,93.0629,84.1253
16:14:46.138,94.4379,83.9378
16:14:46.147,95.3754,82.5628
16:14:46.157,92.5004,79.0003
16:14:46.168,87.9378,72.4378
16:14:46.178,81.0003,64.4377
16:14:46.189,75.9378,58.0627
16:14:46.197,73.5628,53.3752
16:14:46.207,73.1878,51.6252
16:14:46.217,74.0628,49.5627
16:14:46.228,72.6253,48.3127
16:14:46.237,71.2503,44.8752
16:14:46.248,68.5003,42.4377
16:14:46.257,64.5627,37.7501
16:14:46.268,60.5002,33.3126
16:14:46.277,57.8127,29.8751
16:14:46.287,56.1252,27.7501
16:14:46.297,54.5002,27.0626
16:14:46.307,54.6877,25.8751
16:14:46.318,53.3127,25.0626
16:14:46.327,51.3127,22.8751
16:14:46.338,48.8127,18.7501
16:14:46.348,46.0627,15.2501
16:14:46.357,43.8752,11.625
16:14:46.367,41.0627,7.6875
16:14:46.377,40.0627,5.5
16:14:46.391,39.5627,4.4375
16:14:46.397,38.0001,2.5625
16:14:46.439,36.6251,0.625
16:14:46.441,34.2501,-4.9375
16:14:46.443,30.7501,-8.6875
16:14:46.445,26.7501,-13.8751
16:14:46.450,22.6876,-19.5001
16:14:46.463,19.1251,-23.8126
16:14:46.468,17.0626,-27.6251
16:14:46.499,15.2501,-30.4376
16:14:46.502,13.7501,-32.7501
16:14:46.504,10.875,-35.3751
16:14:46.509,7.8125,-40.1877
16:14:46.545,3.5,-44.3127
16:14:46.547,-0.9375,-49.1877
16:14:46.549,-3.375,-52.3127
16:14:46.554,-6.5,-54.5002
16:14:46.581,-6.9375,-56.3127
16:14:46.583,-6.25,-52.9377
16:14:46.586,-2.25,-46.8752
16:14:46.593,3.5625,-35.5001
16:14:46.603,11.625,-16.4376
16:14:46.614,19.1876,1.75
16:14:46.626,24.7501,16.3751
16:14:46.633,28.2501,26.9376
16:14:46.642,32.0001,36.5001
16:14:46.653,34.1876,43.2502
16:14:46.662,35.8126,47.3127
16:14:46.673,34.5001,47.8127
16:14:46.682,31.8751,43.6877
16:14:46.692,29.4376,40.7502
16:14:46.703,27.6251,38.0001
16:14:46.719,26.0626,35.3126
16:14:46.735,22.6251,30.8126
16:14:46.738,19.2501,26.1251
16:14:46.753,17.8751,23.6251
16:14:46.755,18.0626,21.6251
16:14:46.766,20.1251,21.5001
16:14:46.773,19.4376,19.0626
16:14:46.783,16.9376,15.8126
16:14:46.796,14.3751,8.9375
16:14:46.803,9.9375,3.0625
16:14:46.813,6.25,-1.875
16:14:46.823,4.625,-4.6875
16:14:46.833,1.9375,-9.25
16:14:46.843,-1.625,-12.9375
16:14:46.854,-4.75,-17.4376
16:14:46.863,-6.25,-18.3126
16:14:46.873,-4.3125,-17.6251
16:14:46.883,-2.375,-15.8126
16:14:46.910,-1.0625,-14.5626
16:14:46.925,-1.625,-15.6251
16:14:46.940,-3.1875,-18.5001
16:14:46.943,-3.9375,-19.1251
16:14:46.957,-2.1875,-19.3126
16:14:46.958,-0.8125,-17.6876
16:14:46.972,0.4375,-17.2501
16:14:46.974,-0.0625,-18.3126
16:14:46.979,-0.3125,-20.0001
16:14:46.983,-2.25,-23.3126
16:14:46.992,-5.8125,-26.3751
16:14:47.003,-8,-31.5626
16:14:47.015,-9.5625,-33.6251
16:14:47.022,-10.8125,-36.2501
16:14:47.033,-11.1875,-39.1877
16:14:47.043,-13,-41.4377
16:14:47.053,-13.6876,-44.5002
16:14:47.063,-15.8751,-46.8127
16:14:47.074,-17.5626,-51.3127
16:14:47.084,-18.7501,-52.1252
16:14:47.092,-19.8751,-55.6877
16:14:47.103,-20.8751,-56.8127
16:14:47.113,-20.6876,-59.5002
16:14:47.128,-20.8751,-58.9377
16:14:47.133,-21.1876,-60.5627
16:14:47.171,-21.3126,-60.6877
16:14:47.174,-19.4376,-58.8127
16:14:47.176,-15.8751,-52.3752
16:14:47.179,-9.125,-41.6877
16:14:47.185,-0.9375,-25.0001
16:14:47.215,7.375,-4.1875
16:14:47.219,17.3126,12.125
16:14:47.221,24.1876,28.5626
16:14:47.223,29.6876,37.8751
16:14:47.258,31.0001,44.8752
16:14:47.261,34.0001,48.7502
16:14:47.263,35.6876,51.3127
16:14:47.265,35.1876,50.9377
16:14:47.295,34.3126,50.6252
16:14:47.298,32.1251,48.1252
16:14:47.301,29.1251,42.0627
16:14:47.305,27.5001,39.2502
16:14:47.317,27.4376,39.1877
16:14:47.323,29.6876,36.4376
16:14:47.333,30.1876,37.1876
16:14:47.342,27.1876,30.9376
16:14:47.354,26.3126,26.5626
16:14:47.365,22.1876,18.8126
16:14:47.372,19.5001,12.5625
16:14:47.383,15.8126,6.625
16:14:47.394,13.6251,1.1875
16:14:47.403,10.375,-3.5
16:14:47.414,7.3125,-8.125
16:14:47.425,3.9375,-13.0625
16:14:47.433,0.75,-16.7501
16:14:47.444,-1.125,-19.4376
16:14:47.453,-1.5,-21.1251
16:14:47.463,-2.25,-20.3126
16:14:47.474,-2.8125,-22.3126
16:14:47.484,-4.25,-22.9376
16:14:47.496,-6.4375,-26.0001
16:14:47.503,-9.75,-28.5626
16:14:47.514,-12.6875,-31.2501
16:14:47.523,-13.6251,-33.3751
16:14:47.534,-14.8751,-35.5626
16:14:47.545,-16.0626,-35.4376
16:14:47.553,-17.3751,-37.9376
16:14:47.564,-19.5626,-41.1877
16:14:47.573,-22.6251,-43.8127
16:14:47.584,-25.3126,-49.0002
16:14:47.594,-27.8751,-50.5627
16:14:47.605,-29.7501,-54.0627
16:14:47.614,-31.5626,-56.2502
16:14:47.623,-34.3751,-59.5002
16:14:47.634,-35.5626,-61.6877
16:14:47.646,-36.0001,-63.6252
16:14:47.654,-34.8751,-62.9377
16:14:47.663,-33.3751,-62.9377
16:14:47.673,-34.6251,-63.8752
16:14:47.683,-37.1876,-67.6253
16:14:47.695,-38.6876,-69.4378
16:14:47.703,-39.3126,-70.1878
16:14:47.713,-37.7501,-69.3128
16:14:47.723,-34.9376,-64.8752
16:14:47.734,-30.2501,-56.4377
16:14:47.744,-23.5626,-44.5002
16:14:47.754,-17.6251,-28.8126
16:14:47.763,-11.5,-11.625
16:14:47.773,-3.625,4.4375
16:14:47.784,2.875,18.3126
16:14:47.795,6.5,28.0001
16:14:47.803,8.75,31.5626
16:14:47.813,9.375,33.1876
16:14:47.825,5.8125,32.0626
16:14:47.834,3.5,28.9376
16:14:47.844,2.8125,28.1876
16:14:47.854,1.5,27.8126
16:14:47.863,1,23.6251
16:14:47.873,1.25,21.8751
16:14:47.883,-0.375,19.8751
16:14:47.920,-0.25,17.8126
16:14:47.922,-0.3125,15.8751
16:14:47.924,-1.375,13.3751
16:14:47.927,-3,8.6875
16:14:47.961,-5.125,5.25
16:14:47.965,-7.6875,1
16:14:47.965,-10.3125,-2.75
16:14:47.967,-10.75,-6.6875
16:14:47.973,-11.4375,-8.0625
16:14:48.004,-11.1875,-9.6875
16:14:48.006,-10.5625,-9.3125
16:14:48.009,-10,-9.5
16:14:48.013,-10.5,-12.25
16:14:48.050,-10.875,-11.875
16:14:48.054,-12.5625,-14.4376
16:14:48.091,-13.6876,-14.4376
16:14:48.092,-12.6875,-14.6876
16:14:48.106,-11.0625,-13.5626
16:14:48.108,-8.125,-12
16:14:48.109,-7.375,-10.1875
16:14:48.111,-5.625,-11.1875
16:14:48.116,-6.1875,-11.4375
16:14:48.119,-7.9375,-14.9376
16:14:48.123,-9.3125,-17.6876
16:14:48.134,-11.25,-20.1876
16:14:48.145,-12.125,-22.1251
16:14:48.153,-10.9375,-23.1876
16:14:48.164,-10.375,-23.3751
16:14:48.190,-10.9375,-27.1251
16:14:48.193,-12.8125,-29.8751
16:14:48.195,-16.3751,-33.5001
16:14:48.204,-18.8126,-38.9376
16:14:48.214,-22.1876,-42.4377
16:14:48.224,-23.9376,-46.3752
16:14:48.240,-24.8751,-48.4377
16:14:48.243,-24.3751,-49.5627
16:14:48.259,-25.5001,-50.3127
16:14:48.274,-24.6876,-52.0002
16:14:48.276,-25.0001,-52.7502
16:14:48.291,-24.5626,-52.4377
16:14:48.293,-23.8751,-48.3752
16:14:48.303,-19.8751,-40.8752
16:14:48.314,-12.5,-26.2501
16:14:48.323,-5.0625,-6.125
16:14:48.334,3,9.125
16:14:48.345,8.625,22.6251
16:14:48.353,12.75,31.5626
16:14:48.363,15.8751,38.2501
16:14:48.374,17.3751,42.8752
16:14:48.384,18.4376,45.4377
16:14:48.394,18.6876,44.5002
16:14:48.404,17.5001,44.8752
16:14:48.415,16.0001,42.1252
16:14:48.424,13.4376,37.7501
16:14:48.435,10.8125,34.8126
16:14:48.450,8.75,30.7501
16:14:48.453,5.6875,27.6876
16:14:48.463,5.6875,23.8126
16:14:48.474,4.9375,22.5626
16:14:48.483,4.625,20.7501
16:14:48.493,2.5,17.5001
16:14:48.506,0.6875,14.4376
16:14:48.514,-1.1875,9.0625
16:14:48.524,-4.6875,5.4375
16:14:48.533,-6.625,1.125
16:14:48.543,-7.875,-1.6875
16:14:48.554,-7.625,-3.375
16:14:48.564,-7.5,-3
16:14:48.573,-6.0625,-1.625
16:14:48.583,-4.5625,-1.6875
16:14:48.597,-4.625,-0.8125
16:14:48.640,-4.9375,-2.1875
16:14:48.643,-6.625,-3.9375
16:14:48.643,-8.25,-5.5625
16:14:48.646,-9.3125,-8.625
16:14:48.649,-10.5625,-8.1875
16:14:48.682,-10.9375,-10.8125
16:14:48.684,-11.5625,-11.625
16:14:48.687,-10.25,-11.375
16:14:48.693,-9.4375,-11.25
16:14:48.695,-9.1875,-12.4375
16:14:48.723,-11.25,-14.7501
16:14:48.726,-14.5626,-19.0626
16:14:48.729,-17.5626,-22.5626
16:14:48.735,-19.8126,-26.8751
16:14:48.770,-20.1251,-29.5001
16:14:48.775,-20.6251,-29.3751
16:14:48.776,-20.3751,-33.1251
16:14:48.778,-21.5626,-34.8126
16:14:48.784,-23.3751,-38.0001
16:14:48.794,-24.0001,-41.5627
16:14:48.804,-25.5626,-44.3127
16:14:48.814,-26.8751,-46.8127
16:14:48.828,-27.6876,-48.6252
16:14:48.835,-29.6251,-50.0002
16:14:48.843,-29.9376,-53.2502
16:14:48.854,-29.6876,-50.1252
16:14:48.863,-26.0626,-45.0002
16:14:48.874,-18.8126,-33.6251
16:14:48.885,-11.75,-17.1251
16:14:48.893,-3.1875,-0.125
16:14:48.903,4.375,14.7501
16:14:48.914,8.3125,26.8126
16:14:48.924,10.6875,31.3126
16:14:48.937,10.4375,35.5001
16:14:48.943,8.875,34.0626
16:14:48.954,7.6875,34.4376
16:14:48.964,7.25,34.6251
16:14:48.974,7.375,32.1876
16:14:48.983,7.375,32.6876
16:14:48.994,7.3125,32.5001
16:14:49.003,5.5,29.4376
16:14:49.014,4.125,27.4376
16:14:49.025,3.625,23.7501
16:14:49.034,3.5,23.1251
16:14:49.043,2.4375,21.5001
16:14:49.055,2,19.1876
16:14:49.065,0.375,17.3126
16:14:49.074,-1.875,14.1876
16:14:49.084,-2.5,9.8125
16:14:49.094,-2.3125,8.3125
16:14:49.104,-0.1875,9.6875
16:14:49.114,0.1875,9.375
16:14:49.124,0.875,8.5625
16:14:49.135,-0.3125,5.8125
16:14:49.144,-2.6875,3.25
16:14:49.153,-5.5,0.6875
16:14:49.163,-7.4375,-1.0625
16:14:49.174,-7.0625,-2.25
16:14:49.184,-6.5625,-2.6875
16:14:49.193,-4.875,0.1875
16:14:49.205,-3.0625,1.3125
16:14:49.214,-2.375,1.125
16:14:49.223,-3,-1.875
16:14:49.233,-3,-1.6875
16:14:49.243,-4.5,-3.4375
16:14:49.255,-4.6875,-4.625
16:14:49.263,-3.625,-5.1875
16:14:49.274,-4.9375,-7.875
16:14:49.283,-6.375,-10.4375
16:14:49.294,-7.875,-11.8125
16:14:49.303,-8.875,-13.8126
16:14:49.313,-9.875,-17.4376
16:14:49.323,-11.3125,-20.2501
16:14:49.334,-13.6251,-23.6876
16:14:49.356,-15.3126,-28.3126
16:14:49.359,-15.6251,-29.8751
16:14:49.462,-16.5001,-32.5626
16:14:49.463,-16.8751,-35.5626
16:14:49.491,-18.0001,-38.0626
16:14:49.491,-19.5626,-41.0002
16:14:49.491,-20.8751,-43.8127
16:14:49.495,-23.6251,-47.1877
16:14:49.497,-24.7501,-49.0627
16:14:49.525,-25.3751,-48.0627
16:14:49.527,-20.4376,-41.9377
16:14:49.531,-12.25,-27.3751
16:14:49.536,-1.625,-9.5625
16:14:49.536,7,8.125
16:14:49.546,13.4376,21.3126
16:14:49.560,16.3126,29.6876
16:14:49.575,17.8751,34.8751
16:14:49.577,17.7501,38.0626
16:14:49.592,18.3751,39.5627
16:14:49.607,19.2501,40.1252
16:14:49.613,19.0626,41.5627
16:14:49.614,19.9376,41.8127
16:14:49.623,20.3126,40.7502
16:14:49.634,15.6876,28.8751
16:14:49.644,14.8126,27.9376
16:14:49.654,15.5626,25.3126
16:14:49.664,15.6876,24.8126
16:14:49.676,16.0626,22.0001
16:14:49.684,15.5626,20.8126
16:14:49.694,14.5626,18.1876
16:14:49.704,13.3126,16.1251
16:14:49.714,11.375,12.6875
16:14:49.723,10,11.4375
16:14:49.734,9.75,10.4375
16:14:49.744,10.3125,11
16:14:49.754,10.75,9.375
16:14:49.763,10.1875,8.5625
16:14:49.773,11.3125,8.9375
16:14:49.784,9.75,7.9375
16:14:49.794,8.9375,5.375
16:14:49.806,6.4375,4.5
16:14:49.813,5.4375,2.375
16:14:49.824,5.25,-0.25
16:14:49.834,3.5,-1.0625
16:14:49.845,2.875,-4.3125
16:14:49.853,1.1875,-5.375
16:14:49.863,0.6875,-9.5
16:14:49.873,-1.625,-11.25
16:14:49.884,-2.6875,-15.1876
16:14:49.893,-5.5,-18.0001
16:14:49.903,-6.5625,-21.3751
16:14:49.915,-8.875,-24.1876
16:14:49.924,-9.6875,-28.2501
16:14:49.933,-10.875,-30.1876
16:14:49.943,-12.1875,-33.1876
16:14:49.953,-12.875,-36.0001
16:14:49.968,-13.125,-38.2501
16:14:49.974,-14.5626,-40.6252
16:14:49.983,-16.1876,-43.5002
16:14:49.994,-15.6251,-44.8127
16:14:50.003,-16.6251,-46.7502
16:14:50.015,-16.1876,-47.9377
16:14:50.023,-16.5626,-47.3752
16:14:50.033,-12.6875,-40.9377
16:14:50.049,-6.3125,-29.0001
16:14:50.055,2.3125,-13.1876
16:14:50.088,10.0625,4.625
16:14:50.091,17.7501,21.5001
16:14:50.094,23.1876,32.7501
16:14:50.096,27.1251,42.6252
16:14:50.103,29.4376,47.1252
16:14:50.133,29.7501,49.7502
16:14:50.137,28.3751,48.6252
16:14:50.138,27.1251,48.3127
16:14:50.145,27.5001,46.8752
16:14:50.179,27.5001,46.8752
16:14:50.181,27.6876,45.3752
16:14:50.184,26.9376,43.2502
16:14:50.186,26.3751,41.9377
16:14:50.220,24.7501,37.8126
16:14:50.221,22.4376,35.8126
16:14:50.224,20.3126,31.1251
16:14:50.226,18.1251,27.5626
16:14:50.234,16.3751,24.3751
16:14:50.244,16.5626,20.7501
16:14:50.254,18.0001,19.5001
16:14:50.263,18.1876,18.3751
16:14:50.274,18.7501,17.0626
16:14:50.284,19.0001,15.6251
16:14:50.294,18.2501,13.8126
16:14:50.303,16.0626,12.0625
16:14:50.313,14.0001,9.75
16:14:50.324,13.3126,7.875
16:14:50.334,12.125,7.5
16:14:50.344,12.375,5.4375
16:14:50.354,12.875,6.9375
16:14:50.365,13.8126,7
16:14:50.373,14.5001,6.125
16:14:50.383,14.9376,5.9375
16:14:50.393,14.5001,4.8125
16:14:50.404,11.8125,2.625
16:14:50.413,10.3125,-0.0625
16:14:50.423,8.125,-2.9375
16:14:50.434,8.125,-3.875
16:14:50.443,6.75,-5.4375
16:14:50.453,5.0625,-7.5625
16:14:50.463,4.4375,-11.25
16:14:50.475,2.1875,-14.1876
16:14:50.483,0.9375,-17.3751
16:14:50.495,-0.4375,-20.3126
16:14:50.503,-1.875,-22.4376
16:14:50.515,-3.625,-27.1876
16:14:50.523,-6.25,-30.6251
16:14:50.534,-9,-34.7501
16:14:50.544,-12.625,-38.1876
16:14:50.554,-14.2501,-42.1877
16:14:50.563,-16.7501,-45.4377
16:14:50.573,-17.8126,-46.5002
16:14:50.583,-17.6876,-48.2502
16:14:50.594,-17.2501,-47.8127
16:14:50.610,-15.8751,-47.7502
16:14:50.618,-14.8751,-43.5627
16:14:50.630,-11.0625,-36.9376
16:14:50.638,-4.1875,-23.1251
16:14:50.648,2.625,-6.25
16:14:50.658,10.5625,10.3125
16:14:50.670,16.5626,24.0001
16:14:50.678,21.8126,34.3751
16:14:50.688,24.8126,43.0627
16:14:50.698,27.1251,46.2502
16:14:50.741,28.4376,48.8752
16:14:50.743,28.0001,50.3752
16:14:50.841,26.8751,47.0627
16:14:50.842,25.7501,44.9377
16:14:50.842,23.5626,43.1252
16:14:50.851,22.6251,39.9377
16:14:50.851,22.6876,38.1251
16:14:50.851,22.6876,36.3126
16:14:50.863,22.8126,34.0626
16:14:50.905,20.4376,30.9376
16:14:50.911,18.6876,26.6251
16:14:50.913,14.1251,20.9376
16:14:50.928,9.5625,16.4376
16:14:50.929,6.1875,9.4375
16:14:50.945,3.25,5.1875
16:14:50.945,1.1875,3.125
16:14:50.946,1.0625,0.8125
16:14:50.947,1,-1.4375
16:14:50.954,1.25,-0.375
16:14:50.964,1.625,-1.375
16:14:50.974,0.5,-2
16:14:50.983,-1.0625,-3.4375
16:14:50.994,-2.1875,-5.4375
16:14:51.004,-3.125,-6.0625
16:14:51.013,-1.8125,-11.0625
16:14:51.025,-2.75,-12.75
16:14:51.034,-4.5,-15.4376
16:14:51.043,-5.5,-18.0626
16:14:51.053,-5.75,-20.3126
16:14:51.064,-6.375,-21.1876
16:14:51.073,-7.375,-24.1876
16:14:51.084,-9.9375,-27.5626
16:14:51.095,-11.875,-31.1876
16:14:51.105,-14.2501,-34.5001
16:14:51.113,-15.3126,-38.3751
16:14:51.126,-16.5626,-40.1877
16:14:51.134,-17.6876,-42.5627
16:14:51.143,-18.4376,-45.4377
16:14:51.154,-19.7501,-46.0627
16:14:51.164,-20.5626,-48.7502
16:14:51.173,-19.7501,-49.6252
16:14:51.184,-19.4376,-47.4377
16:14:51.197,-17.0626,-43.8752
16:14:51.204,-11.5625,-33.6251
16:14:51.214,-3.8125,-18.6876
16:14:51.225,4.1875,-1.1875
16:14:51.234,10.9375,14.3751
16:14:51.245,15.1251,26.5001
16:14:51.254,18.7501,34.6251
16:14:51.266,19.6251,41.5002
16:14:51.281,20.6876,43.0002
16:14:51.283,19.4376,42.1877
16:14:51.294,18.3751,41.2502
16:14:51.304,15.7501,37.9376
16:14:51.313,14.1251,35.3751
16:14:51.324,11.25,32.5626
16:14:51.334,10.3125,29.1251
16:14:51.343,9.6875,27.2501
16:14:51.354,8.75,24.9376
16:14:51.365,8.25,22.5001
16:14:51.374,7.5,20.5626
16:14:51.383,4.5625,17.5001
16:14:51.394,3.625,13.0625
16:14:51.403,1,9.6875
16:14:51.413,-0.6875,6.25
16:14:51.425,-2,2.4375
16:14:51.435,-3.125,1.375
16:14:51.447,-3.5,-1.875
16:14:51.455,-2.8125,-2.0625
16:14:51.463,-3.1875,-3.4375
16:14:51.474,-3.1875,-3.0625
16:14:51.485,-4.25,-5.25
16:14:51.495,-4.4375,-4.5625
16:14:51.504,-4.875,-5.5625
16:14:51.513,-4.5625,-5.875
16:14:51.534,-4.8125,-6.625
16:14:51.536,-5.3125,-6.5
16:14:51.564,-5.625,-8.4375
16:14:51.566,-5.6875,-9.125
16:14:51.569,-6.75,-11.125
16:14:51.575,-7.6875,-12.0625
16:14:51.605,-9,-13.6876
16:14:51.607,-10.1875,-15.9376
16:14:51.610,-12.5,-18.8751
16:14:51.616,-14.0626,-22.5626
16:14:51.650,-15.0001,-25.0626
16:14:51.653,-15.5626,-26.7501
16:14:51.655,-16.6876,-27.8126
16:14:51.662,-17.8751,-32.0001
16:14:51.670,-18.8126,-34.3751
16:14:51.676,-20.4376,-36.4376
16:14:51.706,-23.8751,-41.8127
16:14:51.708,-25.6876,-45.5627
16:14:51.710,-27.3126,-47.8127
16:14:51.715,-28.4376,-50.8127
16:14:51.724,-27.0001,-51.3752
16:14:51.735,-27.8751,-52.3127
16:14:51.745,-27.9376,-54.1877
16:14:51.755,-28.3126,-55.1877
16:14:51.763,-28.1876,-55.8752
16:14:51.775,-26.2501,-53.8752
16:14:51.786,-23.3751,-44.5002
16:14:51.795,-16.4376,-32.2501
16:14:51.803,-8.4375,-15.8126
16:14:51.815,0.0625,3.0625
16:14:51.823,7.4375,16.8751
16:14:51.835,12.1875,28.8751
16:14:51.844,16.0001,35.6251
16:14:51.854,17.5001,40.6252
16:14:51.863,17.8751,42.1252
16:14:51.873,16.8126,40.8752
16:14:51.883,15.3126,38.5001
16:14:51.895,11.875,36.0001
16:14:51.904,10.25,32.7501
16:14:51.915,9.0625,31.5001
16:14:51.925,9.1875,29.1251
16:14:51.935,9.5625,28.9376
16:14:51.945,10.375,27.0001
16:14:51.953,9.25,26.5626
16:14:51.965,7.75,22.1251
16:14:51.974,5.375,20.1251
16:14:51.984,2.875,14.1876
16:14:51.994,0.25,11.875
16:14:52.003,-0.125,7.5625
16:14:52.030,-0.9375,5.9375
16:14:52.033,-0.625,3.6875
16:14:52.036,-1.75,1.5625
16:14:52.045,-2.125,0.8125
16:14:52.055,-4.5625,-1.6875
16:14:52.065,-5.5,-3.9375
16:14:52.088,-7.6875,-6
16:14:52.103,-8.875,-6.4375
16:14:52.106,-8.25,-7.375
16:14:52.121,-8.125,-6.8125
16:14:52.138,-7.9375,-7.0625
16:14:52.139,-7.3125,-7.25
16:14:52.141,-7.8125,-7.5
16:14:52.144,-8.5625,-9.125
16:14:52.154,-9.1875,-10.75
16:14:52.165,-10.6875,-13.2501
16:14:52.175,-9.9375,-13.1876
16:14:52.184,-10.25,-14.7501
16:14:52.195,-9.6875,-15.0001
16:14:52.211,-10.5,-16.3751
16:14:52.229,-11.3125,-20.2501
16:14:52.233,-15.0001,-22.4376
16:14:52.303,-16.5001,-27.9376
16:14:52.304,-19.3126,-29.2501
16:14:52.308,-19.2501,-33.6251
16:14:52.308,-20.3751,-34.9376
16:14:52.308,-19.7501,-37.6876
16:14:52.337,-20.5626,-38.5001
16:14:52.340,-22.3126,-41.8127
16:14:52.342,-24.3751,-46.3752
16:14:52.345,-27.0626,-49.3127
16:14:52.376,-29.3751,-54.0002
16:14:52.378,-30.5626,-55.3752
16:14:52.381,-29.8126,-56.5627
16:14:52.385,-29.3751,-55.3752
16:14:52.401,-26.1251,-52.5627
16:14:52.405,-23.1251,-45.8127
16:14:52.415,-16.8126,-34.5626
16:14:52.425,-10.3125,-18.3751
16:14:52.435,-2.75,-3.125
16:14:52.445,3.375,11.4375
16:14:52.455,8.9375,23.4376
16:14:52.464,11.875,29.8126
16:14:52.475,12.1875,36.9376
16:14:52.487,11.125,35.1251
16:14:52.495,10.125,33.2501
16:14:52.505,9.8125,32.0001
16:14:52.514,10.3125,30.3126
16:14:52.525,9.75,29.5001
16:14:52.535,10.4375,27.1876
16:14:52.546,9.125,26.1251
16:14:52.555,6.875,21.7501
16:14:52.565,5.125,17.6876
16:14:52.575,1.875,13.5001
16:14:52.585,-0.1875,10.4375
16:14:52.595,-1.3125,6.375
16:14:52.605,-1.75,3.6875
16:14:52.615,-1.5,4
16:14:52.625,-0.5,1.875
16:14:52.635,-1.6875,0.8125
16:14:52.645,-1.625,-0.9375
16:14:52.656,-3.3125,-2.0625
16:14:52.665,-5.0625,-4.625
16:14:52.675,-6.125,-6.625
16:14:52.685,-7.25,-8.6875
16:14:52.695,-8.0625,-8.5
16:14:52.705,-7.6875,-9.6875
16:14:52.715,-7.875,-9.6875
16:14:52.725,-6.3125,-9.8125
16:14:52.735,-5.75,-9.875
16:14:52.745,-5.3125,-9.75
16:14:52.756,-4.5625,-11.375
16:14:52.765,-4.6875,-11.4375
16:14:52.775,-4.9375,-14.3126
16:14:52.785,-6.25,-16.1876
16:14:52.795,-8,-18.6251
16:14:52.806,-8.375,-20.6876
16:14:52.815,-8.75,-22.2501
16:14:52.825,-8.75,-25.1251
16:14:52.840,-10.375,-26.0001
16:14:52.845,-11.5625,-30.0001
16:14:52.855,-10.8125,-32.7501
16:14:52.867,-13,-35.7501
16:14:52.875,-13.0625,-38.1876
16:14:52.885,-13.3751,-39.6877
16:14:52.896,-13.8751,-42.0627
16:14:52.905,-12.875,-42.9377
16:14:52.915,-13.4376,-43.1252
16:14:52.925,-13.5001,-45.7502
16:14:52.935,-13.4376,-48.0002
16:14:52.946,-15.8126,-48.7502
16:14:52.955,-16.6876,-52.5002
16:14:52.965,-17.4376,-51.6877
16:14:52.978,-15.1876,-48.4377
16:14:52.985,-8.4375,-36.6876
16:14:53.020,-0.25,-18.4376
16:14:53.022,10.6875,1.25
16:14:53.026,19.3751,19.5626
16:14:53.026,27.0626,34.4376
16:14:53.056,30.2501,43.1877
16:14:53.058,32.3751,49.6252
16:14:53.061,31.5001,52.0627
16:14:53.093,31.3751,51.1877
16:14:53.094,31.2501,51.2502
16:14:53.096,29.8126,50.7502
16:14:53.103,29.7501,47.3127
16:14:53.106,29.8751,46.6877
16:14:53.135,28.5626,44.9377
16:14:53.137,28.0626,41.6252
16:14:53.141,27.5626,38.7501
16:14:53.145,24.3751,35.7501
16:14:53.158,22.1251,29.8751
16:14:53.165,19.2501,25.4376
16:14:53.175,17.7501,20.6251
16:14:53.185,15.6876,17.0001
16:14:53.195,13.1251,11.3125
16:14:53.205,11.4375,7.5
16:14:53.215,10.3125,4.1875
16:14:53.225,8.5,1.3125
16:14:53.235,7.8125,-1.25
16:14:53.247,6.125,-3.9375
16:14:53.255,5.5625,-4.625
16:14:53.265,5.6875,-5.5
16:14:53.275,6.1875,-5.8125
16:14:53.285,6,-6.5625
16:14:53.311,5.4375,-7.6875
16:14:53.312,4.5,-6.625
16:14:53.317,3.875,-9.1875
16:14:53.325,2.875,-11.125
16:14:53.335,1.6875,-13.125
16:14:53.345,1.75,-12.375
16:14:53.355,3.25,-13.1251
16:14:53.365,3.0625,-13.9376
16:14:53.375,3.875,-14.8126
16:14:53.386,2.4375,-16.5001
16:14:53.404,0.9375,-19.7501
16:14:53.410,-1.5,-24.1876
16:14:53.418,-3.625,-26.6876
16:14:53.425,-6.5,-32.1251
16:14:53.441,-8.375,-34.3751
16:14:53.446,-10.1875,-38.1876
16:14:53.462,-10.5,-39.1251
16:14:53.465,-9.9375,-40.7502
16:14:53.476,-9.5,-41.7502
16:14:53.485,-10,-43.0002
16:14:53.495,-11.1875,-44.1877
16:14:53.505,-12.875,-47.1877
16:14:53.515,-15.2501,-50.4377
16:14:53.527,-17.6876,-53.5627
16:14:53.543,-19.7501,-55.2502
16:14:53.558,-19.0001,-55.2502
16:14:53.560,-17.1876,-53.3127
16:14:53.575,-14.0626,-49.3752
16:14:53.577,-9.0625,-39.6252
16:14:53.592,-2.375,-27.3751
16:14:53.595,5.8125,-7
16:14:53.606,12.875,10.0625
16:14:53.615,17.6251,24.9376
16:14:53.625,20.0001,35.8751
16:14:53.638,22.8751,43.0627
16:14:53.645,22.9376,47.5627
16:14:53.655,24.1251,49.6252
16:14:53.665,24.7501,51.6252
16:14:53.675,23.6251,51.2502
16:14:53.685,22.6251,47.8752
16:14:53.695,20.3126,46.0002
16:14:53.705,18.0001,40.8127
16:14:53.715,14.9376,36.9376
16:14:53.740,12.75,32.1876
16:14:53.745,9.6875,29.5001
16:14:53.745,7.5625,23.2501
16:14:53.777,5.125,20.1876
16:14:53.780,3.5625,15.3126
16:14:53.782,2.9375,13
16:14:53.785,1.8125,8.5625
16:14:53.820,-0.125,6.125
16:14:53.822,-1.0625,2.5
16:14:53.826,-2.25,-0.875
16:14:53.829,-3.0625,-2.875
16:14:53.863,-4.375,-5.6875
16:14:53.866,-5.125,-6.4375
16:14:53.868,-4,-6.875
16:14:53.871,-5.0625,-6.6875
16:14:53.876,-4.0625,-6.4375
16:14:53.908,-3.5,-6.25
16:14:53.910,-3.875,-6.25
16:14:53.912,-3.6875,-6.8125
16:14:53.916,-4.625,-8.9375
16:14:53.925,-4.5,-8.6875
16:14:53.935,-5.0625,-10.625
16:14:53.946,-6.75,-12
16:14:53.955,-7.4375,-13.9376
16:14:53.971,-7.875,-15.0001
16:14:53.975,-7.9375,-16.9376
16:14:53.985,-7.5625,-17.6251
16:14:53.995,-8.625,-20.2501
16:14:54.005,-8.5,-22.0626
16:14:54.015,-10.875,-25.0001
16:14:54.025,-13,-28.7501
16:14:54.035,-16.0626,-32.3751
16:14:54.046,-18.7501,-36.5001
16:14:54.055,-19.9376,-40.8127
16:14:54.065,-22.4376,-42.6877
16:14:54.077,-21.3751,-44.6252
16:14:54.085,-20.9376,-44.2502
16:14:54.095,-20.8751,-45.6877
16:14:54.105,-19.8751,-45.9377
16:14:54.115,-20.1876,-46.8127
16:14:54.126,-19.8751,-47.7502
16:14:54.135,-20.4376,-47.0002
16:14:54.145,-19.1251,-44.6877
16:14:54.157,-15.8126,-37.6876
16:14:54.165,-10.5625,-24.7501
16:14:54.176,-2.625,-7.125
16:14:54.185,3.9375,8.9375
16:14:54.195,10,22.5626
16:14:54.206,14.6251,33.3126
16:14:54.215,16.9376,40.7502
16:14:54.225,18.1876,43.3127
16:14:54.237,17.2501,44.5002
16:14:54.245,16.2501,44.0627
16:14:54.255,13.5626,41.9377
16:14:54.265,12.0625,39.3751
16:14:54.275,10.25,35.2501
16:14:54.287,8.1875,33.6876
16:14:54.295,7.3125,30.1251
16:14:54.305,6.1875,27.5001
16:14:54.315,5.1875,25.2501
16:14:54.325,4.375,21.9376
16:14:54.335,2.75,18.6251
16:14:54.345,0.375,13.6251
16:14:54.382,-2.5625,9.5
16:14:54.383,-4.625,5.875
16:14:54.385,-5.375,1.0625
16:14:54.388,-6.5,-1.25
16:14:54.419,-7.25,-3.125
16:14:54.423,-6.9375,-3.5625
16:14:54.425,-5.75,-4.4375
16:14:54.427,-6.25,-5
16:14:54.461,-5.9375,-5.375
16:14:54.461,-7.125,-5.0625
16:14:54.464,-7.1875,-5.3125
16:14:54.469,-7.4375,-7.25
16:14:54.475,-8.6875,-7.3125
16:14:54.503,-8.375,-8.75
16:14:54.505,-8.5625,-8.3125
16:14:54.507,-8.25,-9.4375
16:14:54.537,-9.8125,-10.25
16:14:54.541,-10.5625,-12.375
16:14:54.542,-12.5,-15.3751
16:14:54.545,-14.7501,-18.1876
16:14:54.555,-15.8126,-20.0626
16:14:54.566,-22.1251,-27.1876
16:14:54.590,-22.0001,-30.3126
16:14:54.592,-26.3751,-34.2501
16:14:54.598,-28.0626,-38.4376
16:14:54.605,-32.5626,-43.3127
16:14:54.615,-37.7501,-48.1877
16:14:54.626,-41.8752,-52.1252
16:14:54.635,-50.8752,-59.0002
16:14:54.647,-58.1252,-63.1877
16:14:54.655,-65.1252,-65.9378
16:14:54.665,-68.4378,-68.7503
16:14:54.675,-71.3753,-69.2503
16:14:54.685,-81.8128,-74.5628
16:14:54.696,-90.6878,-80.4378
16:14:54.739,-93.6254,-79.5628
16:14:54.743,-91.7504,-76.7503
16:14:54.757,-87.5003,-67.3128
16:14:54.758,-81.2503,-54.5627
16:14:54.772,-72.0628,-38.4376
16:14:54.772,-67.8128,-24.8751
16:14:54.773,-60.8752,-13.7501
16:14:54.783,-53.6252,-0.375
16:14:54.790,-47.7502,6.9375
16:14:54.800,-45.2502,13.5626
16:14:54.810,-43.5002,14.8751
16:14:54.820,-42.2502,18.5001
16:14:54.830,-39.5002,20.4376
16:14:54.840,-36.4376,23.1876
16:14:54.858,-34.6251,23.2501
16:14:54.861,-32.9376,23.6251
16:14:54.876,-34.5001,21.5626
16:14:54.891,-34.0626,19.8751
16:14:54.893,-35.0626,18.6251
16:14:54.902,-35.0626,17.0626
16:14:54.910,-35.5001,14.3751
16:14:54.920,-35.3126,11.1875
16:14:54.930,-35.8126,9.1875
16:14:54.940,-34.9376,7
16:14:54.950,-36.0001,4.375
16:14:54.962,-36.8751,1
16:14:54.970,-38.0001,-1.4375
16:14:54.980,-39.3752,-4.5
16:14:54.990,-40.8752,-6.125
16:14:55.000,-39.9377,-7.5625
16:14:55.010,-40.3127,-8.125
16:14:55.020,-43.0002,-11.9375
16:14:55.030,-57.1877,-26.1876
16:14:55.041,-83.8753,-53.5627
16:14:55.050,-129.2505,-97.1879
16:14:55.060,-186.3757,-157.0006
16:14:55.071,-243.7509,-217.0008
16:14:55.080,-307.3137,-286.3761
16:14:55.092,-365.4389,-352.1263
16:14:55.103,-407.8141,-405.564
16:14:55.110,-433.2516,-440.7517
16:14:55.123,-445.1267,-462.3143
16:14:55.130,-458.0643,-479.8143
16:14:55.140,-473.8143,-501.8769
16:14:55.150,-487.1894,-521.252
16:14:55.160,-494.1894,-534.2521
16:14:55.191,-495.1894,-539.8771
16:14:55.193,-490.9394,-539.0646
16:14:55.197,-481.5643,-534.3145
16:14:55.201,-470.6893,-525.1895
16:14:55.232,-463.5018,-518.6895
16:14:55.234,-459.2518,-515.877
16:14:55.236,-455.6267,-512.9395
16:14:55.242,-453.4392,-510.002
16:14:55.275,-447.1267,-506.1269
16:14:55.277,-440.2517,-498.6269
16:14:55.280,-429.2516,-489.5644
16:14:55.282,-403.8765,-463.3768
16:14:55.319,-363.0639,-421.1266
16:14:55.321,-317.3137,-370.6889
16:14:55.323,-268.9385,-313.1262
16:14:55.348,-224.5634,-261.6885
16:14:55.349,-189.6257,-218.1883
16:14:55.350,-160.3131,-182.1882
16:14:55.352,-135.188,-148.6256
16:14:55.360,-116.8754,-121.7505
16:14:55.370,-101.2504,-99.0004
16:14:55.380,-90.9379,-81.3128
16:14:55.390,-82.1253,-71.1253
16:14:55.400,-75.9378,-59.5627
16:14:55.410,-71.1253,-53.6877
16:14:55.422,-67.4378,-49.3752
16:14:55.430,-68.4378,-50.3127
16:14:55.441,-76.3753,-58.5002
16:14:55.450,-97.0629,-79.0628
16:14:55.460,-117.1254,-103.0629
16:14:55.472,-146.6255,-133.2505
16:14:55.480,-186.0007,-174.3132
16:14:55.492,-221.3134,-215.3758
16:14:55.500,-239.9384,-236.8759
16:14:55.510,-247.1259,-248.3134
16:14:55.520,-252.8135,-252.6885
16:14:55.530,-259.626,-259.9385
16:14:55.541,-265.5635,-269.6885
16:14:55.550,-271.376,-276.626
16:14:55.561,-274.1885,-280.6261
16:14:55.570,-275.251,-283.6886
16:14:55.580,-278.1886,-286.8761
16:14:55.590,-284.0011,-295.3136
16:14:55.600,-291.8761,-305.1887
16:14:55.611,-298.3762,-312.5012
16:14:55.620,-303.6262,-318.0637
16:14:55.630,-304.2512,-319.0637
16:14:55.642,-298.5637,-308.5637
16:14:55.650,-282.4386,-292.3136
16:14:55.660,-259.9385,-267.501
16:14:55.670,-234.1259,-239.0634
16:14:55.680,-204.8133,-205.8758
16:14:55.690,-165.8756,-163.6256
16:14:55.700,-130.7505,-122.813
16:14:55.710,-103.8754,-92.8129
16:14:55.722,-84.2503,-73.0003
16:14:55.730,-71.3128,-57.5002
16:14:55.740,-60.7502,-47.1252
16:14:55.750,-55.4377,-39.5627
16:14:55.760,-49.6877,-34.3751
16:14:55.770,-47.5627,-30.8126
16:14:55.780,-45.0002,-30.7501
16:14:55.790,-44.8127,-30.8126
16:14:55.801,-48.9377,-36.6876
16:14:55.810,-61.6877,-51.3127
16:14:55.820,-82.3753,-74.3753
16:14:55.830,-104.9379,-99.9379
16:14:55.843,-131.563,-129.0005
16:14:55.870,-161.3756,-160.4381
16:14:55.872,-178.3757,-179.1257
16:14:55.875,-189.0632,-188.0007
16:14:55.894,-199.6258,-196.9383
16:14:55.896,-215.7508,-213.6258
16:14:55.921,-238.6884,-239.4384
16:14:55.923,-265.376,-271.251
16:14:55.926,-283.6261,-295.7511
16:14:55.931,-292.1261,-307.0012
16:14:55.960,-296.9386,-310.3137
16:14:55.966,-294.4386,-307.7512
16:14:55.966,-289.7511,-297.6261
16:14:55.970,-290.7511,-294.1886
16:14:55.998,-292.6886,-293.0636
16:14:56.001,-292.1261,-289.4386
16:14:56.003,-287.8761,-284.5011
16:14:56.033,-276.9385,-270.126
16:14:56.036,-263.626,-253.751
16:14:56.039,-245.7509,-233.8759
16:14:56.041,-216.9383,-201.9383
16:14:56.058,-180.5007,-162.3756
16:14:56.062,-139.063,-113.2504
16:14:56.070,-93.1879,-61.5002
16:14:56.089,-60.3752,-20.0001
16:14:56.095,-43.8127,-1.875
16:14:56.103,-34.6876,7.625
16:14:56.110,-29.8751,15.8751
16:14:56.120,-23.4376,21.8751
16:14:56.131,-18.8751,28.0626
16:14:56.140,-15.7501,30.1251
16:14:56.150,-12.9375,33.9376
16:14:56.160,-11.5625,34.3126
16:14:56.176,-11.1875,36.3751
16:14:56.194,-13.6251,32.8126
16:14:56.196,-20.8126,25.1876
16:14:56.209,-31.5626,15.5626
16:14:56.211,-42.6877,2.1875
16:14:56.231,-61.3127,-19.9376
16:14:56.233,-90.6254,-49.8127
16:14:56.240,-115.0004,-78.6878
16:14:56.250,-123.5005,-87.8128
16:14:56.260,-124.3755,-87.0628
16:14:56.272,-128.813,-90.1879
16:14:56.280,-132.3755,-91.6254
16:14:56.290,-135.5005,-97.5004
16:14:56.300,-139.188,-103.2504
16:14:56.310,-145.063,-113.2504
16:14:56.320,-150.0006,-120.938
16:14:56.330,-152.7506,-128.563
16:14:56.340,-153.1881,-131.938
16:14:56.350,-151.8756,-133.063
16:14:56.360,-151.9381,-134.5005
16:14:56.373,-155.9381,-139.1255
16:14:56.380,-163.0006,-148.4381
16:14:56.390,-176.0007,-162.0006
16:14:56.400,-193.6257,-181.6882
16:14:56.410,-213.4383,-201.5633
16:14:56.420,-230.3134,-220.4383
16:14:56.430,-240.9384,-234.0009
16:14:56.441,-240.3759,-237.4384
16:14:56.450,-223.5009,-222.9384
16:14:56.460,-201.1258,-200.5008
16:14:56.470,-175.2507,-173.3757
16:14:56.480,-143.188,-141.8755
16:14:56.490,-110.1879,-106.3754
16:14:56.500,-76.1878,-68.7503
16:14:56.510,-43.5002,-30.0626
16:14:56.520,-17.3126,6.125
16:14:56.530,3.375,33.7501
16:14:56.542,17.1251,56.1877
16:14:56.550,25.5001,71.1253
16:14:56.579,31.3126,83.6878
16:14:56.581,36.2501,94.3754
16:14:56.584,39.5627,100.5629
16:14:56.590,42.2502,106.2504
16:14:56.618,40.9377,109.0629
16:14:56.625,34.3126,103.7504
16:14:56.625,24.1251,93.4379
16:14:56.654,10.625,80.2503
16:14:56.657,-3.625,65.0003
16:14:56.658,-21.2501,44.4377
16:14:56.664,-47.3752,18.3751
16:14:56.670,-73.6253,-12
16:14:56.701,-100.0629,-43.0627
16:14:56.703,-126.938,-72.5003
16:14:56.706,-144.813,-95.5629
16:14:56.712,-168.1881,-120.5005
16:14:56.737,-189.0007,-146.1255
16:14:56.739,-212.6883,-178.3132
16:14:56.744,-242.6259,-216.3133
16:14:56.756,-273.6885,-253.001
16:14:56.760,-312.4387,-296.6886
16:14:56.770,-352.3763,-339.5638
16:14:56.780,-389.439,-378.0014
16:14:56.790,-419.1266,-407.1266
16:14:56.800,-438.2516,-427.8766
16:14:56.810,-443.4392,-432.2516
16:14:56.820,-431.2516,-418.9391
16:14:56.830,-406.9391,-394.564
16:14:56.840,-368.2514,-355.5638
16:14:56.850,-326.7513,-312.3762
16:14:56.860,-297.6886,-279.9386
16:14:56.872,-265.626,-245.2509
16:14:56.881,-226.0634,-202.0008
16:14:56.891,-185.5007,-157.1881
16:14:56.900,-149.8756,-116.2504
16:14:56.910,-125.063,-86.8128
16:14:56.920,-110.0629,-70.5003
16:14:56.930,-100.3754,-59.5002
16:14:56.940,-94.5004,-52.5627
16:14:56.951,-93.5004,-50.8127
16:14:56.960,-96.0004,-54.2502
16:14:56.970,-98.3129,-56.9377
16:14:56.981,-99.4379,-59.3752
16:14:56.991,-101.0629,-60.3127
16:14:57.000,-100.1879,-60.8127
16:14:57.012,-99.8129,-60.0627
16:14:57.020,-100.8129,-62.1877
16:14:57.030,-100.0629,-64.1252
16:14:57.041,-101.0629,-65.1252
16:14:57.050,-102.1254,-70.0628
16:14:57.060,-108.6879,-78.0003
16:14:57.070,-126.1255,-96.3754
16:14:57.080,-135.2505,-109.6879
16:14:57.091,-138.938,-115.5629
16:14:57.100,-153.8131,-129.813
16:14:57.111,-171.3757,-145.2505
16:14:57.121,-178.6257,-151.5631
16:14:57.151,-176.8132,-145.8755
16:14:57.153,-175.1257,-137.2505
16:14:57.156,-182.5632,-141.2505
16:14:57.161,-189.1882,-147.8131
16:14:57.170,-194.1257,-148.5006
16:14:57.181,-193.1257,-147.0631
16:14:57.190,-190.2507,-142.438
16:14:57.200,-188.9382,-136.6255
16:14:57.212,-185.6257,-134.6255
16:14:57.220,-176.8132,-125.8755
16:14:57.231,-171.0632,-117.6255
16:14:57.241,-170.0006,-116.3754
16:14:57.250,-173.1882,-117.938
16:14:57.261,-180.3757,-123.688
16:14:57.271,-186.3757,-128.813
16:14:57.280,-194.0007,-132.7505
16:14:57.290,-197.1882,-137.1255
16:14:57.302,-195.6257,-134.438
16:14:57.310,-186.8757,-125.1255
16:14:57.321,-164.1256,-104.2504
16:14:57.331,-134.2505,-77.0003
16:14:57.340,-116.9379,-56.1877
16:14:57.352,-102.8754,-45.2502
16:14:57.360,-78.9378,-21.1876
16:14:57.423,-53.0627,9.75
16:14:57.426,-27.0626,39.2502
16:14:57.428,-8.375,61.6252
