timestamp,Red,IR
15:09:02.532,9375,39.6877
15:09:02.535,8.5938,39.7502
15:09:02.539,8.1875,37.8751
15:09:02.549,6.75,37.7501
15:09:02.559,6.7188,35.9376
15:09:02.572,5.5625,34.6251
15:09:02.580,5.0313,31.3126
15:09:02.589,3.375,29.3126
15:09:02.599,2.625,26.7501
15:09:02.609,1.3438,25.1251
15:09:02.619,0.5,22.5626
15:09:02.630,-1.4688,19.6251
15:09:02.639,-2.6563,16.5626
15:09:02.649,-3.7813,13.4376
15:09:02.660,-4.875,10.375
15:09:02.669,-6.625,6.9375
15:09:02.680,-7.9688,3.6875
15:09:02.690,-9.4688,2.1875
15:09:02.702,-10.6875,-2.625
15:09:02.709,-12.6563,-6.0625
15:09:02.719,-13.2813,-7
15:09:02.730,-14.5313,-10.125
15:09:02.739,-14.7813,-13.1876
15:09:02.749,-15.5001,-15.6251
15:09:02.759,-17.2501,-18.8751
15:09:02.768,-18.5001,-20.4376
15:09:02.779,-19.0626,-22.1251
15:09:02.789,-18.8751,-25.0626
15:09:02.799,-20.7501,-26.5001
15:09:02.821,-21.1563,-28.6876
15:09:02.825,-21.1563,-30.3751
15:09:02.841,-22.4376,-33.0626
15:09:02.844,-23.0313,-33.5626
15:09:02.851,-23.0626,-35.9376
15:09:02.859,-23.5313,-37.5626
15:09:02.870,-24.4688,-37.9376
15:09:02.879,-24.8751,-40.8752
15:09:02.889,-26.0626,-41.5002
15:09:02.901,-26.1251,-43.0002
15:09:02.910,-26.5939,-45.0627
15:09:02.919,-26.5626,-45.2502
15:09:02.929,-28.0626,-47.4377
15:09:02.938,-27.4376,-49.0002
15:09:02.950,-29.0314,-50.3127
15:09:02.959,-29.2814,-51.3127
15:09:02.969,-29.6876,-53.1877
15:09:02.979,-30.0939,-54.0002
15:09:02.989,-30.7814,-56.5002
15:09:03.000,-32.2189,-57.3127
15:09:03.009,-31.8751,-60.0627
15:09:03.019,-33.3439,-61.0002
15:09:03.029,-34.3439,-63.7502
15:09:03.039,-34.3751,-65.3127
15:09:03.049,-35.0939,-66.3128
15:09:03.058,-33.4376,-65.1252
15:09:03.092,-31.0314,-61.3752
15:09:03.094,-25.5938,-53.3752
15:09:03.097,-19.4376,-41.3127
15:09:03.099,-11.7813,-28.3126
15:09:03.129,-5.375,-14.9376
15:09:03.133,1.5313,-2.375
15:09:03.134,7.1875,10.625
15:09:03.143,11.7813,19.5626
15:09:03.172,15.5001,29.5626
15:09:03.174,18.0938,35.0626
15:09:03.175,20.1563,41.6877
15:09:03.209,21.3126,44.6252
15:09:03.210,21.5938,48.8127
15:09:03.213,21.3751,49.4377
15:09:03.219,21.2501,50.6877
15:09:03.220,21.2188,50.7502
15:09:03.230,20.0001,51.7502
15:09:03.274,19.7813,50.8127
15:09:03.274,18.9376,51.4377
15:09:03.276,18.5938,50.9377
15:09:03.280,18.3126,51.8127
15:09:03.286,17.1251,48.6877
15:09:03.290,15.7501,47.3127
15:09:03.326,14.5626,45.5002
15:09:03.328,12.3438,43.1877
15:09:03.330,10.5313,40.1252
15:09:03.333,9.2188,37.0626
15:09:03.340,7.7813,34.8751
15:09:03.383,7.1563,33.1251
15:09:03.384,6.5313,32.1876
15:09:03.387,6,30.7501
15:09:03.389,5.5,30.5626
15:09:03.391,4.875,31.0001
15:09:03.422,4.9063,29.5626
15:09:03.425,4.8125,29.0001
15:09:03.425,4.75,28.7501
15:09:03.431,4.375,27.7501
15:09:03.443,3.7188,28.1251
15:09:03.450,3.8438,26.1876
15:09:03.461,2.4063,23.7501
15:09:03.470,1.3438,22.5626
15:09:03.479,-0.2188,20.8751
15:09:03.491,-0.75,18.5001
15:09:03.499,-2.7813,15.6251
15:09:03.509,-3.8438,13.1876
15:09:03.519,-4.5938,10.25
15:09:03.529,-6.1875,8.25
15:09:03.539,-7.75,5.0625
15:09:03.549,-8,2.1875
15:09:03.559,-9.5938,-0.375
15:09:03.569,-11.1563,-3.9375
15:09:03.579,-12.875,-5.9375
15:09:03.590,-14.0626,-8.875
15:09:03.599,-14.8126,-12
15:09:03.610,-16.2501,-14.8126
15:09:03.619,-18.0001,-18.6876
15:09:03.629,-19.8751,-20.3751
15:09:03.648,-20.6251,-23.8126
15:09:03.650,-21.9063,-27.3126
15:09:03.665,-23.4063,-29.5001
15:09:03.672,-24.6563,-32.3751
15:09:03.679,-25.4063,-33.5001
15:09:03.689,-25.6876,-35.6251
15:09:03.699,-26.9689,-37.5626
15:09:03.709,-27.4689,-39.3751
15:09:03.719,-27.9064,-40.6877
15:09:03.729,-28.5939,-43.3127
15:09:03.740,-28.7189,-43.7502
15:09:03.751,-29.3439,-45.6252
15:09:03.760,-29.2189,-45.6877
15:09:03.769,-29.8126,-48.4377
15:09:03.779,-30.4689,-49.4377
15:09:03.789,-30.9689,-52.0002
15:09:03.799,-31.8439,-52.5002
15:09:03.809,-31.4376,-54.3752
15:09:03.819,-31.8126,-56.1877
15:09:03.829,-33.5001,-58.7502
15:09:03.839,-34.1251,-60.5627
15:09:03.849,-34.5939,-62.0002
15:09:03.859,-34.9689,-62.3127
15:09:03.869,-34.8439,-64.2502
15:09:03.880,-33.8126,-62.3752
15:09:03.889,-30.8126,-58.3127
15:09:03.899,-24.8126,-49.4377
15:09:03.909,-18.5001,-38.0001
15:09:03.919,-10.7813,-23.8751
15:09:03.928,-3.0625,-9.375
15:09:03.939,3.2188,2.5
15:09:03.950,9.5,16.1876
15:09:03.960,14.1251,25.2501
15:09:03.969,17.7813,35.0001
15:09:03.979,21.6563,42.8127
15:09:03.989,23.0626,48.6877
15:09:03.999,24.6251,53.5002
15:09:04.009,25.0938,57.6252
15:09:04.019,25.5313,59.6252
15:09:04.029,26.1876,62.4377
15:09:04.048,25.7813,64.4377
15:09:04.049,26.0938,64.6877
15:09:04.078,25.3438,65.9378
15:09:04.081,25.6876,65.8753
15:09:04.083,24.8438,67.5628
15:09:04.089,24.4376,66.8753
15:09:04.160,23.5938,66.5628
15:09:04.160,22.3751,65.3128
15:09:04.190,20.6563,62.8752
15:09:04.215,19.2501,61.8127
15:09:04.215,17.7501,58.0627
15:09:04.215,15.2813,54.9377
15:09:04.216,13.8126,52.6252
15:09:04.219,12.8438,50.3127
15:09:04.230,12,47.3752
15:09:04.230,11.0313,45.6877
15:09:04.239,10.2813,45.1252
15:09:04.250,10.1563,44.2502
15:09:04.259,9.9063,42.4377
15:09:04.269,9.9688,42.1877
15:09:04.279,9.1563,41.3127
15:09:04.290,8.3438,41.7502
15:09:04.300,8.2813,39.6252
15:09:04.309,7.625,38.1251
15:09:04.320,7.0938,36.4376
15:09:04.330,5.7813,34.2501
15:09:04.339,4.8438,32.5626
15:09:04.349,2.5625,29.3126
15:09:04.359,-3.8438,16.0626
15:09:04.370,-5.125,13.4376
15:09:04.379,-6.9063,9.8125
15:09:04.389,-8.4688,6.375
15:09:04.400,-10.0625,3.4375
15:09:04.409,-11.375,0.875
15:09:04.419,-12.0938,-2.25
15:09:04.429,-12.4688,-5.4375
15:09:04.439,-14.7188,-9.25
15:09:04.450,-16.4063,-10.5625
15:09:04.459,-16.5313,-14.0001
15:09:04.470,-17.1251,-17.1251
15:09:04.480,-19.4688,-20.4376
15:09:04.489,-19.4376,-22.1876
15:09:04.521,-21.1251,-25.0626
15:09:04.523,-21.9376,-26.4376
15:09:04.525,-22.4688,-28.4376
15:09:04.530,-23.4063,-31.2501
15:09:04.540,-23.3751,-32.3126
15:09:04.549,-24.4063,-34.9376
15:09:04.561,-24.6876,-35.3126
15:09:04.570,-25.0626,-38.5626
15:09:04.579,-25.8438,-39.8752
15:09:04.590,-25.6251,-41.5002
15:09:04.607,-26.8751,-42.4377
15:09:04.610,-27.2814,-44.0002
15:09:04.620,-27.7814,-46.0627
15:09:04.631,-28.5314,-46.9377
15:09:04.639,-29.0314,-50.0627
15:09:04.649,-29.5939,-50.6877
15:09:04.660,-30.2189,-53.0002
15:09:04.669,-30.0001,-53.6252
15:09:04.680,-31.2501,-56.8752
15:09:04.690,-31.6564,-58.1252
15:09:04.701,-33.2189,-58.7502
15:09:04.709,-33.8439,-62.1252
15:09:04.719,-34.4064,-64.0627
15:09:04.730,-35.3126,-66.5628
15:09:04.739,-35.2189,-67.3753
15:09:04.751,-35.6564,-67.0003
15:09:04.792,-32.5314,-64.6252
15:09:04.793,-28.6876,-57.5627
15:09:04.798,-21.5938,-46.6877
15:09:04.802,-15.3751,-33.3751
15:09:04.841,-7.7813,-19.0001
15:09:04.841,-0.7188,-4
15:09:04.845,5.25,8.375
15:09:04.847,10.7188,20.5001
15:09:04.852,14.1251,28.7501
15:09:04.859,18.0938,38.2501
15:09:04.865,20.3126,44.6252
15:09:04.902,23.1563,51.5627
15:09:04.904,24.6251,55.0627
15:09:04.907,25.2813,59.1252
15:09:04.914,26.6251,62.6877
15:09:04.918,26.5314,64.9377
15:09:04.952,27.1564,67.1878
15:09:04.952,26.9064,67.5003
15:09:04.969,27.0001,69.6878
15:09:04.971,26.7814,71.3753
15:09:04.989,26.7501,71.7503
15:09:04.994,26.2814,71.1253
15:09:04.994,25.1251,71.1253
15:09:04.995,24.6251,69.1253
15:09:05.005,22.8126,66.9378
15:09:05.015,20.7501,63.0002
15:09:05.025,18.5626,60.6877
15:09:05.035,17.1876,56.7502
15:09:05.047,15.0313,54.5002
15:09:05.056,14.3126,52.1877
15:09:05.065,13.8438,49.6877
15:09:05.076,12.8125,48.3752
15:09:05.085,12.5313,46.9377
15:09:05.096,11.1875,45.9377
15:09:05.105,10.4063,44.0002
15:09:05.115,10.3125,43.9377
15:09:05.125,10.125,41.9377
15:09:05.135,9.625,41.8752
15:09:05.146,9.0313,39.2501
15:09:05.155,8.4688,38.2501
15:09:05.166,7.1875,35.6251
15:09:05.175,6.8125,33.4376
15:09:05.185,6.125,31.0626
15:09:05.195,3.7813,28.1251
15:09:05.205,1.625,24.8126
15:09:05.217,0.3125,21.6876
15:09:05.226,-0.5313,18.0626
15:09:05.237,-2.5938,14.5001
15:09:05.246,-3.75,11.8125
15:09:05.255,-5.3438,9.0625
15:09:05.266,-6.2188,5.5625
15:09:05.275,-7.1875,2.125
15:09:05.286,-8.625,-0.8125
15:09:05.297,-9.0625,-3.0625
15:09:05.305,-9.9688,-6.1875
15:09:05.316,-11.3125,-9
15:09:05.327,-11.9375,-10.9375
15:09:05.335,-13.2501,-13.8751
15:09:05.345,-14.6563,-16.3751
15:09:05.359,-15.2813,-19.1876
15:09:05.369,-16.0001,-22.1251
15:09:05.375,-16.8438,-24.0626
15:09:05.385,-17.2813,-26.1876
15:09:05.395,-18.5938,-28.5001
15:09:05.405,-18.7501,-30.4376
15:09:05.416,-19.7813,-32.0626
15:09:05.426,-21.0313,-33.5001
15:09:05.448,-20.6563,-36.0626
15:09:05.514,-21.9063,-36.5001
15:09:05.517,-22.1563,-39.1877
15:09:05.517,-23.2501,-40.0627
15:09:05.524,-23.3751,-42.6877
15:09:05.524,-24.2501,-43.1877
15:09:05.524,-24.8438,-46.3127
15:09:05.544,-25.8751,-45.8127
15:09:05.546,-25.9688,-48.6877
15:09:05.568,-26.7501,-48.9377
15:09:05.570,-26.7814,-52.0002
15:09:05.574,-28.2189,-52.9377
15:09:05.580,-28.8751,-55.9377
15:09:05.615,-30.2501,-56.6877
15:09:05.617,-30.7814,-59.1877
15:09:05.618,-31.5626,-60.8127
15:09:05.623,-31.5626,-61.6877
15:09:05.631,-30.2814,-60.2502
15:09:05.640,-26.0626,-53.5002
15:09:05.650,-19.8126,-44.6252
15:09:05.660,-12.4375,-31.8751
15:09:05.670,-4.9688,-17.3126
15:09:05.680,1.875,-4
15:09:05.690,20.3751,35.0001
15:09:05.700,23.6563,41.5002
15:09:05.711,25.4063,49.0627
15:09:05.720,27.6251,52.0002
15:09:05.735,28.0001,56.6252
15:09:05.740,28.8439,57.8752
15:09:05.750,29.3751,59.7502
15:09:05.760,28.1251,60.6877
15:09:05.770,27.9064,61.0627
15:09:05.801,26.5939,60.8127
15:09:05.804,26.4376,61.2502
15:09:05.806,25.6563,61.6252
15:09:05.812,25.3126,60.6252
15:09:05.820,24.1251,59.5627
15:09:05.831,23.4376,59.0627
15:09:05.840,22.1876,56.3752
15:09:05.850,19.5626,52.6252
15:09:05.860,17.2813,49.6252
15:09:05.870,16.3751,46.7502
15:09:05.880,13.9063,44.4377
15:09:05.890,13.2813,42.6252
15:09:05.900,12.0625,39.8752
15:09:05.910,11.6875,39.0001
15:09:05.923,11.625,37.1876
15:09:05.930,11.6563,36.5626
15:09:05.940,11,36.8126
15:09:05.951,10.2188,36.5626
15:09:05.961,10.2813,35.0626
15:09:05.970,9.25,33.6876
15:09:05.981,8.25,32.1876
15:09:05.991,7.3438,30.3126
15:09:06.001,6.2188,28.1251
15:09:06.010,5.125,26.0626
15:09:06.020,3.7188,23.8126
15:09:06.031,2.2188,21.2501
15:09:06.041,0.7813,18.6251
15:09:06.050,-1.2813,15.3126
15:09:06.060,-2.3438,12.75
15:09:06.070,-3.875,8.5
15:09:06.081,-5.2813,5.6875
15:09:06.090,-7.1563,2.5
15:09:06.100,-8.25,-0.625
15:09:06.111,-10.0938,-3.4375
15:09:06.120,-11.1563,-7
15:09:06.130,-12.75,-11
15:09:06.140,-13.6876,-13.5001
15:09:06.151,-15.5938,-17.3751
15:09:06.161,-16.3438,-19.6251
15:09:06.170,-16.7188,-22.0626
15:09:06.180,-18.3126,-24.3751
15:09:06.190,-19.4376,-26.0626
15:09:06.200,-20.1876,-28.9376
15:09:06.210,-21.2188,-31.6876
15:09:06.220,-21.6251,-33.2501
15:09:06.255,-22.3438,-36.1876
15:09:06.256,-23.2501,-37.1876
15:09:06.288,-23.2813,-39.3752
15:09:06.289,-25.0001,-40.8752
15:09:06.292,-25.2188,-43.2502
15:09:06.294,-25.7188,-44.2502
15:09:06.294,-26.2188,-47.6252
15:09:06.334,-27.3439,-49.3127
15:09:06.334,-28.3126,-52.1252
15:09:06.338,-29.7189,-52.8127
15:09:06.339,-30.5314,-54.8752
15:09:06.343,-31.3751,-58.2502
15:09:06.370,-31.8751,-58.6252
15:09:06.372,-32.7189,-60.8752
15:09:06.374,-30.9064,-60.5002
15:09:06.380,-29.4376,-58.5627
15:09:06.395,-25.4063,-51.5627
15:09:06.400,-18.9688,-41.1252
15:09:06.410,-10.9688,-27.7501
15:09:06.420,-3.5313,-13.6251
15:09:06.430,3.3125,-0.3125
15:09:06.441,9.4375,12.4375
15:09:06.450,14.7188,22.6251
15:09:06.460,19.9376,33.0626
15:09:06.471,22.9376,42.1252
15:09:06.486,26.0938,48.3752
15:09:06.491,28.1564,53.6252
15:09:06.500,29.7189,59.4377
15:09:06.510,30.3126,61.6252
15:09:06.520,31.2501,65.0002
15:09:06.530,30.7501,65.4378
15:09:06.540,31.1564,67.4378
15:09:06.550,31.0314,68.3753
15:09:06.560,31.6251,69.4378
15:09:06.570,30.7189,70.4378
15:09:06.580,30.5626,69.1253
15:09:06.590,30.1876,69.5003
15:09:06.602,29.7814,68.1878
15:09:06.610,27.8126,67.0003
15:09:06.621,26.3751,64.5002
15:09:06.630,24.4063,60.3752
15:09:06.640,21.9376,56.6877
15:09:06.650,20.6251,54.3127
15:09:06.661,18.9376,50.5627
15:09:06.672,16.6876,47.1877
15:09:06.680,16.5001,45.6877
15:09:06.690,14.7813,42.4377
15:09:06.700,14.9063,41.2502
15:09:06.710,14.2188,40.0627
15:09:06.720,14.0313,38.6251
15:09:06.730,13.9063,38.0001
15:09:06.740,12.625,37.0001
15:09:06.760,12.2813,36.0626
15:09:06.766,10.9688,34.7501
15:09:06.782,10.5625,32.3751
15:09:06.784,9.5313,30.5626
15:09:06.791,8.2813,27.9376
15:09:06.800,6.9688,24.9376
15:09:06.810,6.2813,23.1251
15:09:06.820,5.6563,20.5001
15:09:06.831,4.625,16.1876
15:09:06.840,3.5313,13.1251
15:09:06.850,1.5,9.625
15:09:06.861,0.2813,7
15:09:06.870,-1.6875,2.9375
15:09:06.881,-2.9375,-0.4375
15:09:06.890,-4.75,-4.9375
15:09:06.909,-6.3438,-8
15:09:06.911,-7.9063,-11.6875
15:09:06.940,-9.25,-13.6251
15:09:06.943,-11.2813,-16.7501
15:09:06.945,-12.5313,-20.3126
15:09:06.950,-13.5313,-23.9376
15:09:06.988,-14.5938,-26.1251
15:09:06.991,-15.5938,-29.8126
15:09:06.994,-16.7813,-31.8126
15:09:07.022,-18.4063,-34.3751
15:09:07.023,-19.4063,-36.8126
15:09:07.025,-20.6251,-37.8751
15:09:07.031,-21.5313,-41.8127
15:09:07.035,-22.5313,-42.6252
15:09:07.041,-22.9063,-44.5002
15:09:07.082,-23.5001,-45.5002
15:09:07.086,-24.1876,-48.3127
15:09:07.087,-24.8126,-49.5002
15:09:07.090,-25.3126,-51.5627
15:09:07.099,-26.0938,-53.5627
15:09:07.102,-27.0314,-55.0627
15:09:07.110,-28.0626,-56.6252
15:09:07.121,-28.5939,-59.7502
15:09:07.131,-30.0939,-60.3752
15:09:07.140,-30.8126,-64.3127
15:09:07.150,-32.0001,-64.9377
15:09:07.160,-32.9064,-68.1878
15:09:07.170,-34.1251,-68.9378
15:09:07.180,-34.0001,-71.3753
15:09:07.190,-34.3126,-70.1253
15:09:07.200,-31.3439,-68.2503
15:09:07.210,-26.8751,-59.8752
15:09:07.221,-19.0001,-48.9377
15:09:07.237,-11.8125,-33.5626
15:09:07.241,-2.9063,-19.4376
15:09:07.250,4.1875,-3.4375
15:09:07.262,11.25,9.0625
15:09:07.272,17.9688,22.0626
15:09:07.280,21.6251,31.9376
15:09:07.291,25.0938,39.9377
15:09:07.300,27.3439,47.8127
15:09:07.310,29.2189,52.8127
15:09:07.321,30.9376,57.9377
15:09:07.330,31.7189,61.5002
15:09:07.341,32.2814,64.8127
15:09:07.350,33.0939,66.8128
15:09:07.361,33.4064,69.5628
15:09:07.371,33.0001,69.3753
15:09:07.380,33.1251,70.7503
15:09:07.391,32.6564,71.7503
15:09:07.400,32.5001,72.8753
15:09:07.410,32.8126,72.7503
15:09:07.422,32.1564,72.7503
15:09:07.430,30.7814,71.6253
15:09:07.441,29.5001,69.3128
15:09:07.451,27.4064,65.9378
15:09:07.461,25.3438,61.8752
15:09:07.472,23.6251,58.8127
15:09:07.481,21.3126,55.5627
15:09:07.490,19.7501,52.6877
15:09:07.501,18.2813,50.0002
15:09:07.510,17.3751,47.4377
15:09:07.521,16.1876,45.0627
15:09:07.531,15.1876,43.6252
15:09:07.550,14.8438,43.2502
15:09:07.552,14.9063,40.4377
15:09:07.566,14.3126,39.8752
15:09:07.572,13.8438,38.8751
15:09:07.582,12.4063,36.5626
15:09:07.591,11.75,35.0001
15:09:07.600,11.0625,33.6876
15:09:07.611,9.7813,30.7501
15:09:07.621,8.9063,28.0001
15:09:07.631,7.6563,24.6876
15:09:07.641,5.5,21.8126
15:09:07.651,4.4063,19.1251
15:09:07.662,2.0313,15.4376
15:09:07.671,1.0625,11.9375
15:09:07.703,-0.9063,8.75
15:09:07.705,-3.1875,5.1875
15:09:07.708,-4.9063,1.25
15:09:07.712,-5.7813,-2.0625
15:09:07.749,-7.3125,-5.0625
15:09:07.751,-8.4688,-8.0625
15:09:07.753,-9.5938,-11.375
15:09:07.755,-10.625,-14.3751
15:09:07.763,-11.4688,-17.8126
15:09:07.793,-12.6875,-20.6251
15:09:07.795,-14.1251,-23.3751
15:09:07.798,-14.7188,-25.6876
15:09:07.801,-15.5001,-28.9376
15:09:07.840,-17.2188,-31.0001
15:09:07.841,-18.2501,-33.6876
15:09:07.844,-19.5938,-37.3751
15:09:07.846,-20.0626,-39.8752
15:09:07.853,-20.1876,-41.3752
15:09:07.863,-22.3126,-43.7502
15:09:07.871,-22.3126,-45.5627
15:09:07.881,-23.8126,-48.1252
15:09:07.891,-24.8126,-50.5002
15:09:07.902,-25.4063,-51.9377
15:09:07.911,-26.6876,-54.1252
15:09:07.922,-27.2814,-55.9377
15:09:07.932,-28.3126,-56.8752
15:09:07.941,-28.6564,-59.9377
15:09:07.952,-30.0626,-60.5002
15:09:07.961,-30.0939,-63.5002
15:09:07.971,-30.5001,-65.5003
15:09:07.984,-31.3439,-66.7503
15:09:07.995,-31.2189,-68.5628
15:09:08.002,-32.6876,-69.9378
15:09:08.011,-33.5626,-72.3128
15:09:08.021,-34.1564,-73.6253
15:09:08.031,-34.5626,-76.5003
15:09:08.041,-35.6876,-77.6253
15:09:08.061,-36.2814,-80.2503
15:09:08.069,-37.6251,-81.7503
15:09:08.082,-38.5939,-84.1878
15:09:08.087,-38.9689,-85.6878
15:09:08.091,-39.7189,-87.0628
15:09:08.102,-38.8439,-88.3753
15:09:08.112,-38.4689,-85.1878
15:09:08.121,-33.5314,-80.3753
15:09:08.131,-25.8126,-68.3128
15:09:08.141,-17.3751,-52.6252
15:09:08.152,-8,-36.3126
15:09:08.161,-0.1875,-19.8751
15:09:08.172,7.7188,-5.3125
15:09:08.181,13.2813,7.8125
15:09:08.191,18.3751,18.6876
15:09:08.201,22.6563,27.3751
15:09:08.211,24.5313,34.3751
15:09:08.222,27.7189,40.8127
15:09:08.231,28.2814,44.1252
15:09:08.241,28.7814,47.6877
15:09:08.251,28.9064,49.4377
15:09:08.261,29.4376,52.5002
15:09:08.273,28.9376,52.6877
15:09:08.282,28.9689,55.1252
15:09:08.291,28.9376,55.1252
15:09:08.302,29.0314,56.7502
15:09:08.311,28.4064,56.5002
15:09:08.322,28.1876,57.8752
15:09:08.332,27.7501,56.3752
15:09:08.361,26.3438,55.8127
15:09:08.363,25.1876,54.6252
15:09:08.365,23.1251,52.9377
15:09:08.377,21.1563,49.2502
15:09:08.382,19.9063,45.8127
15:09:08.392,17.9688,42.9377
15:09:08.401,17.3438,41.4377
15:09:08.412,16.0001,39.6877
15:09:08.422,15.6251,38.4376
15:09:08.434,15.1563,36.6876
15:09:08.443,14.4376,36.6876
15:09:08.472,14.9688,35.8751
15:09:08.474,14.5938,35.6251
15:09:08.476,14.9063,35.1251
15:09:08.483,13.8751,34.5001
15:09:08.512,12.8125,33.6251
15:09:08.515,12.9063,31.3126
15:09:08.517,10.875,30.6876
15:09:08.522,10.0938,28.6251
15:09:08.556,8.75,25.7501
15:09:08.558,7.0938,22.9376
15:09:08.561,5.7813,20.0001
15:09:08.563,2.75,17.1251
15:09:08.604,2.4063,14.1876
15:09:08.604,-0.2188,10.4375
15:09:08.607,-1.4688,6.8125
15:09:08.609,-3.4063,3.9375
15:09:08.615,-4.6563,1
15:09:08.622,-6.4688,-2.875
15:09:08.633,-7.625,-6.5
15:09:08.641,-8.5625,-8.875
15:09:08.651,-9.5938,-11.375
15:09:08.662,-10.5938,-14.3126
15:09:08.671,-11.9375,-17.3126
15:09:08.681,-13.0625,-19.3126
15:09:08.691,-14.2188,-22.8126
15:09:08.701,-15.0626,-25.3126
15:09:08.711,-16.3438,-27.1251
15:09:08.722,-18.0313,-30.8126
15:09:08.731,-19.2501,-32.5001
15:09:08.742,-19.9376,-35.1876
15:09:08.751,-20.9063,-37.4376
15:09:08.761,-21.8438,-39.0626
15:09:08.771,-22.6251,-40.8127
15:09:08.782,-23.7188,-42.6877
15:09:08.791,-24.5626,-45.5627
15:09:08.801,-25.2501,-46.8752
15:09:08.813,-26.6564,-49.3127
15:09:08.847,-27.4689,-51.0627
15:09:08.849,-27.5314,-52.5627
15:09:08.864,-28.6251,-53.5002
15:09:08.866,-29.4064,-56.0627
15:09:08.870,-29.6251,-57.8752
15:09:08.878,-30.7501,-60.3752
15:09:08.888,-31.6876,-62.1877
15:09:08.897,-32.7814,-65.0627
15:09:08.906,-33.2501,-65.9378
15:09:08.916,-34.5314,-67.8753
15:09:08.927,-34.6251,-70.0628
15:09:08.937,-35.7189,-70.8128
15:09:08.946,-34.7501,-71.5628
15:09:08.957,-33.1251,-67.0628
15:09:08.968,-28.0001,-60.2502
15:09:08.976,-20.7813,-49.9377
15:09:08.986,-9.4063,-29.4376
15:09:08.997,-1.8438,-14.1876
15:09:09.006,5.625,-0.4375
15:09:09.017,12.7188,11.625
15:09:09.027,16.1251,21.6251
15:09:09.036,20.7813,30.2501
15:09:09.049,23.0001,36.4376
15:09:09.056,25.3126,44.5627
15:09:09.066,26.5314,47.7502
15:09:09.076,28.3439,52.3127
15:09:09.087,28.4689,54.0627
15:09:09.096,28.4064,57.3752
15:09:09.106,28.3439,57.8127
15:09:09.116,28.4064,58.5002
15:09:09.131,27.4376,58.5627
15:09:09.136,27.3439,58.8752
15:09:09.154,26.3126,58.5002
15:09:09.156,25.8126,58.8127
15:09:09.186,24.5626,57.6252
15:09:09.189,23.5313,55.9377
15:09:09.191,21.9063,52.8127
15:09:09.199,19.7501,50.3752
15:09:09.226,17.8126,46.6877
15:09:09.229,16.0938,44.3127
15:09:09.231,14.4063,40.8752
15:09:09.236,13.2813,37.5626
15:09:09.249,12.0625,36.2501
15:09:09.279,11.4375,34.2501
15:09:09.281,11.75,33.9376
15:09:09.284,11.1563,32.6876
15:09:09.287,10.5313,31.8126
15:09:09.318,11.0938,32.0001
15:09:09.320,10.125,31.7501
15:09:09.324,9.6875,30.5001
15:09:09.328,9.8438,28.8751
15:09:09.338,8.5313,27.5001
15:09:09.346,7.875,25.6876
15:09:09.370,6.5,22.5626
15:09:09.376,5.9063,20.8751
15:09:09.390,4.375,18.2501
15:09:09.392,2.6875,15.2501
15:09:09.397,1.4688,11.9375
15:09:09.406,-0.0313,9.625
15:09:09.417,-1.8125,5.5
15:09:09.426,-3.5313,3.125
15:09:09.436,-4.5313,-1.4375
15:09:09.446,-6.0625,-4.3125
15:09:09.456,-7.9375,-7.625
15:09:09.466,-9.4688,-10.25
15:09:09.476,-10.875,-13.2501
15:09:09.488,-12.0625,-17.3751
15:09:09.496,-13.9063,-18.9376
15:09:09.507,-14.4063,-22.3751
15:09:09.516,-16.0626,-25.4376
15:09:09.526,-17.2813,-28.8751
15:09:09.536,-18.1251,-31.5001
15:09:09.546,-19.6563,-34.0001
15:09:09.556,-21.3751,-36.2501
15:09:09.566,-21.3438,-38.6876
15:09:09.577,-22.4688,-40.9377
15:09:09.588,-23.2813,-43.1252
15:09:09.596,-23.6876,-44.4377
15:09:09.606,-24.8438,-45.9377
15:09:09.616,-24.1251,-47.8752
15:09:09.644,-25.8126,-50.3127
15:09:09.645,-25.5938,-51.2502
15:09:09.647,-27.5001,-54.2502
15:09:09.656,-27.3439,-54.9377
15:09:09.666,-28.7189,-56.6252
15:09:09.678,-28.9064,-58.1252
15:09:09.686,-29.7501,-59.3127
15:09:09.696,-30.0939,-61.3127
15:09:09.707,-30.0939,-61.6252
15:09:09.716,-29.9376,-63.8127
15:09:09.726,-30.5314,-65.0002
15:09:09.736,-30.8126,-66.4378
15:09:09.748,-32.3751,-68.6253
15:09:09.756,-33.4689,-71.1253
15:09:09.768,-34.5626,-72.3128
15:09:09.778,-35.0939,-75.1253
15:09:09.786,-34.7189,-75.3128
15:09:09.797,-33.6564,-71.5003
15:09:09.807,-28.0939,-64.3752
15:09:09.817,-21.3126,-53.1877
15:09:09.828,-13.1875,-37.5001
15:09:09.836,-3.6875,-23.0626
15:09:09.851,4.1563,-8.4375
15:09:09.893,11.3125,6.0625
15:09:09.894,17.8126,18.0626
15:09:09.899,23.0001,29.0001
15:09:09.900,27.2501,37.8126
15:09:09.901,29.9376,46.0627
15:09:09.933,32.5626,52.8752
15:09:09.935,35.6564,58.3752
15:09:09.936,36.6876,64.8127
15:09:09.939,37.9376,67.1253
15:09:09.969,38.0939,69.3128
15:09:09.974,37.7814,72.1878
15:09:09.974,37.7814,73.1878
15:09:10.013,37.0626,73.0628
15:09:10.015,36.3751,75.6253
15:09:10.015,36.3751,74.9378
15:09:10.023,35.5314,76.8128
15:09:10.023,35.5939,75.7503
15:09:10.030,34.3126,73.9378
15:09:10.040,31.9689,72.8753
15:09:10.047,30.6564,69.6878
15:09:10.057,28.5626,66.4378
15:09:10.066,26.2188,63.3752
15:09:10.079,24.6563,59.0627
15:09:10.090,23.6876,56.7502
15:09:10.096,21.7813,54.0002
15:09:10.107,20.8438,52.8752
15:09:10.118,20.5001,51.0002
15:09:10.128,20.0938,48.6877
15:09:10.143,18.8751,49.0627
15:09:10.158,19.2501,47.1877
15:09:10.160,18.3126,46.1877
15:09:10.167,18.9688,44.8752
15:09:10.179,17.9376,44.1252
15:09:10.187,17.1876,42.3127
15:09:10.197,15.7813,40.8127
15:09:10.208,14.9688,37.7501
15:09:10.218,13.3438,35.4376
15:09:10.227,11.7813,32.3126
15:09:10.236,10.3125,27.8126
15:09:10.247,8.5938,25.0626
15:09:10.259,7.0938,22.3126
15:09:10.269,5.5938,19.1251
15:09:10.278,4,15.0626
15:09:10.286,2.5938,11.875
15:09:10.297,0.5938,8.625
15:09:10.309,-0.875,5.6875
15:09:10.316,-1.875,1.125
15:09:10.328,-3.6875,-2.1875
15:09:10.338,-4.6875,-5.3125
15:09:10.346,-6.25,-8.375
15:09:10.359,-8.0938,-11.875
15:09:10.368,-9.5938,-15.7501
15:09:10.377,-11.3125,-19.9376
15:09:10.388,-12.3125,-22.8126
15:09:10.398,-13.6563,-25.5001
15:09:10.406,-15.0626,-28.6251
15:09:10.418,-16.0313,-30.8126
15:09:10.427,-16.8438,-32.9376
15:09:10.438,-17.7813,-36.0626
15:09:10.449,-17.9063,-38.6251
15:09:10.462,-19.3126,-40.3752
15:09:10.467,-19.6876,-42.3752
15:09:10.478,-19.7501,-44.6252
15:09:10.487,-21.3438,-47.1252
15:09:10.497,-21.6563,-48.8752
15:09:10.508,-22.7501,-50.6877
15:09:10.518,-23.4688,-53.3127
15:09:10.527,-24.0001,-54.0627
15:09:10.538,-24.8126,-56.8127
15:09:10.547,-25.6251,-58.4377
15:09:10.557,-26.5626,-61.0627
15:09:10.568,-27.2501,-62.1877
15:09:10.577,-28.0939,-65.9378
15:09:10.588,-29.0001,-66.6878
15:09:10.597,-30.0626,-68.9378
15:09:10.607,-30.5314,-70.9378
15:09:10.622,-31.2501,-73.5003
15:09:10.630,-32.2501,-75.2503
15:09:10.655,-32.8126,-77.2503
15:09:10.657,-31.7189,-76.6878
15:09:10.695,-30.0939,-73.6253
15:09:10.697,-23.5938,-65.3128
15:09:10.700,-16.7188,-52.9377
15:09:10.705,-7.2188,-38.1251
15:09:10.705,1.0625,-22.3126
15:09:10.711,9.0313,-6.8125
15:09:10.741,16.0001,6.3125
15:09:10.743,21.6251,19.0001
15:09:10.745,26.8751,28.0001
15:09:10.748,30.5939,35.8751
15:09:10.788,33.6876,44.1252
15:09:10.788,35.8751,49.2502
15:09:10.790,36.4376,54.1252
15:09:10.800,37.8126,57.6252
15:09:10.801,38.0001,59.8752
15:09:10.815,37.3751,61.0627
15:09:10.817,37.3126,63.1877
15:09:10.827,37.9376,63.7502
15:09:10.838,37.3439,63.6252
15:09:10.848,37.1876,64.5627
15:09:10.858,36.6251,65.1252
15:09:10.868,35.5626,65.8128
15:09:10.878,34.8751,63.6252
15:09:10.887,33.5626,62.2502
15:09:10.923,32.3751,60.5002
15:09:10.924,29.8751,57.7502
15:09:10.926,28.4064,55.3752
15:09:10.930,26.5626,50.8752
15:09:10.938,24.5313,48.2502
15:09:10.949,23.6251,44.6252
15:09:10.958,22.4063,43.5002
15:09:10.967,21.3438,42.3127
15:09:10.977,20.1876,40.6877
15:09:10.989,20.5001,40.0002
15:09:10.998,19.8126,39.2502
15:09:11.008,19.5313,37.5001
15:09:11.017,19.3438,37.8126
15:09:11.027,18.7188,37.2501
15:09:11.038,18.4376,34.6876
15:09:11.048,17.1251,33.8751
15:09:11.058,15.8438,30.8751
15:09:11.067,14.7188,28.7501
15:09:11.079,12.5938,26.3126
15:09:11.088,11.8125,23.1876
15:09:11.098,9.625,19.9376
15:09:11.108,8.3125,18.3126
15:09:11.118,7.5938,14.1251
15:09:11.129,5.5938,11.5625
15:09:11.137,4.4063,8.0625
15:09:11.147,2.9375,4.6875
15:09:11.158,0.5625,1.9375
15:09:11.169,-0.7188,-1.25
15:09:11.177,-2.5313,-5.125
15:09:11.187,-3.4063,-7.625
15:09:11.198,-4.7188,-11.125
15:09:11.208,-6.8438,-13.8126
15:09:11.217,-7.4688,-16.7501
15:09:11.228,-8.625,-19.9376
15:09:11.238,-10.0313,-22.8751
15:09:11.247,-11.5,-25.0626
15:09:11.259,-12.5,-28.1876
15:09:11.269,-14.2188,-30.8751
15:09:11.278,-14.7813,-32.5001
15:09:11.287,-15.7813,-35.7501
15:09:11.297,-17.1563,-37.5626
15:09:11.308,-18.0626,-39.4377
15:09:11.318,-18.3438,-41.7502
15:09:11.327,-19.7188,-43.8752
15:09:11.338,-19.7501,-46.1877
15:09:11.372,-20.9376,-46.1877
15:09:11.374,-21.7501,-49.3127
15:09:11.377,-21.7813,-50.2502
15:09:11.379,-23.0626,-52.2502
15:09:11.413,-23.1251,-54.5002
15:09:11.415,-24.9688,-55.0627
15:09:11.418,-25.5001,-58.5627
15:09:11.420,-26.3439,-60.3127
15:09:11.456,-26.8751,-62.1252
15:09:11.458,-28.3751,-64.9377
15:09:11.460,-28.3439,-64.0627
15:09:11.466,-26.3126,-62.5627
15:09:11.468,-22.0626,-55.5002
15:09:11.482,-15.8438,-47.0002
15:09:11.505,-8.0625,-33.0626
15:09:11.507,0.4375,-18.7501
15:09:11.510,7.5625,-5.625
15:09:11.524,13.7813,7.625
15:09:11.529,20.1563,18.0626
15:09:11.539,23.7813,28.0001
15:09:11.547,28.0626,37.0001
15:09:11.557,29.9064,43.2502
15:09:11.569,32.0314,49.7502
15:09:11.577,33.9689,55.0627
15:09:11.587,34.7189,57.1252
15:09:11.598,34.5314,59.6252
15:09:11.607,34.8439,61.5002
15:09:11.619,35.0939,62.0002
15:09:11.627,33.5314,62.1877
15:09:11.637,33.2814,61.6877
15:09:11.648,31.7814,61.1252
15:09:11.658,30.8126,61.4377
15:09:11.668,30.2814,60.0002
15:09:11.677,28.4689,58.3752
15:09:11.688,26.2188,56.7502
15:09:11.698,24.8126,52.9377
15:09:11.709,22.2188,49.1252
15:09:11.718,19.7501,46.0002
15:09:11.728,17.4376,41.5002
15:09:11.737,14.4688,36.8126
15:09:11.748,12.25,34.5626
15:09:11.757,10.9688,32.0626
15:09:11.767,9.25,30.3126
15:09:11.778,8.3438,28.6251
15:09:11.787,7.5,27.8126
15:09:11.800,6.875,26.3751
15:09:11.807,4.75,26.0001
15:09:11.817,4,24.0626
15:09:11.827,3.4375,24.0001
15:09:11.838,3,21.4376
15:09:11.849,2.5313,20.3126
15:09:11.859,1.0938,18.7501
15:09:11.868,-0.2188,17.3126
15:09:11.878,-1.75,14.2501
15:09:11.889,-3.5313,11.8125
15:09:11.897,-5.0625,9.4375
15:09:11.908,-6.5313,6.1875
15:09:11.918,-8.375,2.875
15:09:11.928,-11.4375,-0.25
15:09:11.938,-12.5625,-2.5625
15:09:11.947,-14.9376,-7.6875
15:09:11.965,-17.4376,-10.75
15:09:11.973,-19.4063,-14.8126
15:09:11.981,-20.9063,-18.3751
15:09:11.988,-23.4376,-22.3126
15:09:12.004,-25.4688,-24.6251
15:09:12.013,-27.4376,-29.3126
15:09:12.017,-29.7814,-31.9376
15:09:12.027,-31.1251,-35.5001
15:09:12.038,-32.9064,-39.7502
15:09:12.047,-34.5001,-43.0002
15:09:12.057,-37.5001,-46.8752
15:09:12.069,-39.8127,-50.6877
15:09:12.077,-40.5314,-54.1252
15:09:12.088,-42.7502,-57.8127
15:09:12.097,-44.1564,-60.6877
15:09:12.128,-46.6252,-63.6877
15:09:12.130,-47.7814,-66.5003
15:09:12.133,-49.7814,-69.1253
15:09:12.139,-50.2189,-72.1878
15:09:12.167,-51.9064,-73.5628
15:09:12.168,-51.3127,-75.5003
15:09:12.170,-52.844,-77.5003
15:09:12.203,-52.4377,-79.3753
15:09:12.206,-52.844,-80.3753
15:09:12.208,-53.7502,-82.6253
15:09:12.214,-54.9065,-85.7503
15:09:12.228,-56.344,-87.8753
15:09:12.231,-57.1877,-90.0629
15:09:12.260,-58.969,-93.8129
15:09:12.262,-59.6565,-94.3754
15:09:12.264,-59.1877,-95.8754
15:09:12.271,-57.094,-92.0629
15:09:12.286,-52.4064,-86.2503
15:09:12.288,-46.5314,-78.2503
15:09:12.298,-39.0314,-64.7502
15:09:12.315,-31.5314,-50.7502
15:09:12.318,-24.3751,-37.1251
15:09:12.329,-17.1563,-21.9376
15:09:12.339,-9.6563,-9.875
15:09:12.348,-4.4063,3.3125
15:09:12.357,0.2188,15.0626
15:09:12.371,4,23.5001
15:09:12.379,6.6563,31.2501
15:09:12.387,6.6563,35.6876
15:09:12.399,6.5313,39.1251
15:09:12.407,6.75,40.5002
15:09:12.418,6,43.3127
15:09:12.429,5.7188,43.1877
15:09:12.437,5.75,43.3127
15:09:12.448,4.75,44.6252
15:09:12.459,5.3438,44.6252
15:09:12.469,4.1875,45.5627
15:09:12.479,4.5938,44.5627
15:09:12.489,2.25,42.8127
15:09:12.499,0.4375,40.6877
15:09:12.510,-2.3125,36.0626
15:09:12.519,-4,32.5626
15:09:12.529,-6.1875,29.9376
15:09:12.537,-6.8438,26.6876
15:09:12.547,-8.5313,23.8126
15:09:12.559,-8.625,21.3126
15:09:12.569,-8.6563,19.8751
15:09:12.579,-8.875,18.8751
15:09:12.587,-10.0313,17.1251
15:09:12.598,-10.375,15.9376
15:09:12.610,-10.375,16.6251
15:09:12.618,-8.7813,17.5001
15:09:12.629,-7.7813,17.6876
15:09:12.638,-6.5625,16.7501
15:09:12.649,-6.5938,17.5626
15:09:12.658,-6.9063,17.1251
15:09:12.669,-6.4375,14.4376
15:09:12.678,-6.4375,13.4376
15:09:12.693,-5.625,11.875
15:09:12.699,-6.0938,11.3125
15:09:12.709,-6.625,8.25
15:09:12.719,-8.1563,6.375
15:09:12.735,-9.4688,1.375
15:09:12.743,-11.6563,-1.4375
15:09:12.749,-13.9688,-6.125
15:09:12.778,-15.4376,-10.625
15:09:12.820,-16.3751,-14.3126
15:09:12.822,-18.4063,-18.2501
15:09:12.825,-19.7188,-22.1876
15:09:12.830,-20.6251,-24.0626
15:09:12.830,-22.5938,-27.1251
15:09:12.830,-22.4688,-30.0001
15:09:12.864,-24.2188,-32.4376
15:09:12.866,-25.4376,-36.4376
15:09:12.870,-27.5314,-39.5002
15:09:12.884,-29.0939,-41.5002
15:09:12.918,-28.7189,-45.3752
15:09:12.920,-30.7501,-47.3127
15:09:12.923,-30.5626,-49.8127
15:09:12.925,-31.3751,-50.5002
15:09:12.930,-31.2189,-52.8127
15:09:12.942,-31.3751,-53.6252
15:09:12.952,-31.9689,-55.7502
15:09:12.959,-32.7189,-58.3752
15:09:12.969,-33.2189,-59.1252
15:09:12.980,-33.7814,-61.8127
15:09:12.989,-35.0001,-63.3127
15:09:12.999,-35.7189,-66.1878
15:09:13.009,-38.7814,-72.8128
15:09:13.019,-39.7502,-76.5003
15:09:13.028,-40.0939,-78.4378
15:09:13.039,-41.0627,-81.8753
15:09:13.049,-43.7502,-84.1253
15:09:13.059,-44.3127,-86.8128
15:09:13.067,-45.1564,-90.6879
15:09:13.079,-45.8439,-92.5629
15:09:13.090,-45.7502,-94.8754
15:09:13.099,-46.0002,-94.3754
15:09:13.109,-43.7814,-91.0629
15:09:13.119,-38.1876,-84.6253
15:09:13.129,-30.7189,-71.8753
15:09:13.139,-20.9688,-57.5002
15:09:13.149,-12.625,-40.1252
15:09:13.159,-3.3125,-24.3751
15:09:13.169,5.375,-8.8125
15:09:13.179,13.7501,7.8125
15:09:13.189,20.1251,20.3126
15:09:13.199,25.1563,32.8751
15:09:13.209,29.5314,42.8752
15:09:13.219,32.0314,51.6252
15:09:13.229,35.3751,56.3752
15:09:13.239,36.1251,61.8752
15:09:13.249,37.8439,64.8127
15:09:13.259,38.0626,68.8753
15:09:13.269,39.0314,69.2503
15:09:13.288,38.3126,71.6878
15:09:13.295,37.9064,71.0003
15:09:13.303,37.0001,71.8128
15:09:13.309,37.0314,71.7503
15:09:13.325,35.7501,72.0628
15:09:13.332,34.7814,70.0003
15:09:13.340,33.9689,68.9378
15:09:13.349,31.5626,66.3128
15:09:13.359,29.4689,63.5002
15:09:13.369,27.4376,59.7502
15:09:13.379,25.4688,55.4377
15:09:13.389,23.3126,52.6252
15:09:13.399,21.7188,50.0002
15:09:13.409,20.6251,48.0002
15:09:13.419,20.1876,46.0627
15:09:13.429,18.9376,44.4377
15:09:13.443,18.3126,42.4377
15:09:13.449,17.6876,41.3127
15:09:13.480,17.6251,41.1252
15:09:13.482,16.5626,38.1876
15:09:13.485,15.0938,37.1251
15:09:13.489,14.6876,34.3126
15:09:13.499,12.9063,32.3126
15:09:13.508,11.375,30.1251
15:09:13.519,10.0938,27.6876
15:09:13.540,8.375,23.5626
15:09:13.543,6.0938,20.8126
15:09:13.559,4.5938,17.4376
15:09:13.564,3.9688,14.5626
15:09:13.569,1.5625,11.75
15:09:13.600,0.5,8.3125
15:09:13.602,-0.4688,4.625
15:09:13.610,-1.375,1.4375
15:09:13.610,-2.4688,-0.8125
15:09:13.650,-3.4063,-4.75
15:09:13.651,-5.0625,-7.3125
15:09:13.656,-6.25,-10.25
15:09:13.656,-8.0313,-13.9376
15:09:13.661,-9.0313,-16.6251
15:09:13.670,-9.1563,-18.5001
15:09:13.701,-10.5938,-21.6876
15:09:13.703,-11.9688,-23.8126
15:09:13.707,-13.5313,-26.1876
15:09:13.711,-14.6876,-29.0626
15:09:13.722,-15.1563,-32.7501
15:09:13.730,-17.4688,-35.3126
15:09:13.739,-18.3126,-37.5626
15:09:13.749,-19.0001,-40.1252
15:09:13.759,-20.0626,-42.1877
15:09:13.769,-20.3751,-44.3127
15:09:13.779,-21.6876,-46.8127
15:09:13.789,-22.6876,-48.7502
15:09:13.799,-23.5313,-51.5002
15:09:13.809,-24.0001,-52.4377
15:09:13.819,-25.1876,-55.6877
15:09:13.829,-25.8438,-57.0002
15:09:13.840,-26.9064,-59.7502
15:09:13.849,-27.6251,-60.2502
15:09:13.859,-28.5314,-63.1877
15:09:13.869,-30.0626,-64.6877
15:09:13.879,-30.4689,-67.6253
15:09:13.889,-31.5314,-70.0003
15:09:13.899,-32.7189,-71.6878
15:09:13.909,-33.6876,-73.1253
15:09:13.919,-34.5314,-75.9378
15:09:13.929,-35.3751,-79.5003
15:09:13.939,-35.8126,-81.8753
15:09:13.948,-36.8126,-83.0003
15:09:13.959,-37.1251,-83.5003
15:09:13.969,-35.3439,-80.6253
15:09:13.979,-30.3439,-74.7503
15:09:13.989,-23.3438,-62.8752
15:09:13.998,-13.6251,-48.3752
15:09:14.009,-4.7188,-32.5626
15:09:14.019,4.7813,-14.8751
15:09:14.029,12.6875,0.3125
15:09:14.039,19.9063,15.7501
15:09:14.058,26.5314,29.0001
15:09:14.060,30.0314,39.1877
15:09:14.075,32.0939,47.7502
15:09:14.091,35.0001,52.5627
15:09:14.094,35.5939,56.3127
15:09:14.103,36.5314,60.3752
15:09:14.109,37.2814,61.8127
15:09:14.119,36.4689,64.0627
15:09:14.129,36.7814,63.6252
15:09:14.139,35.1251,64.2502
15:09:14.149,35.7501,62.9377
15:09:14.159,34.1564,63.7502
15:09:14.169,33.7189,62.4377
15:09:14.179,32.7814,61.5002
15:09:14.192,31.3126,59.5627
15:09:14.199,29.4064,57.3127
15:09:14.229,27.8751,53.6252
15:09:14.231,25.6563,50.1252
15:09:14.234,23.7813,46.0627
15:09:14.240,22.3126,42.4377
15:09:14.284,19.9688,39.5627
15:09:14.284,18.3126,36.6251
15:09:14.287,18.3126,34.5626
15:09:14.289,18.0626,33.6251
15:09:14.319,17.8438,33.2501
15:09:14.322,18.0001,33.8751
15:09:14.323,18.9063,34.0001
15:09:14.325,18.5626,34.1876
15:09:14.331,18.0626,34.1251
15:09:14.347,18.4688,33.0001
15:09:14.351,18.0938,32.0626
15:09:14.386,17.8438,31.6876
15:09:14.388,16.9688,30.5626
15:09:14.390,16.3751,29.6251
15:09:14.394,15.8751,28.0626
15:09:14.400,14.0626,26.3126
15:09:14.409,12.8438,23.8751
15:09:14.419,11.3125,20.5001
15:09:14.429,9.9063,17.7501
15:09:14.439,7.875,14.6876
15:09:14.449,6.625,12.125
15:09:14.459,3.9063,9.5
15:09:14.469,2.4063,5.625
15:09:14.481,1.375,0.875
15:09:14.489,-1.0938,-2.5625
15:09:14.499,-2.0625,-5.4375
15:09:14.509,-4.0313,-9.4375
15:09:14.519,-6.0938,-12.75
15:09:14.530,-8.0938,-17.6876
15:09:14.539,-9.8438,-21.3126
15:09:14.549,-11.4063,-24.5626
15:09:14.559,-12.25,-27.0001
15:09:14.570,-13.4376,-31.2501
15:09:14.580,-14.0313,-33.3126
15:09:14.589,-15.4376,-35.5001
15:09:14.599,-16.4376,-37.4376
15:09:14.616,-16.9063,-38.8751
15:09:14.621,-17.7188,-40.9377
15:09:14.631,-18.2188,-43.0002
15:09:14.639,-19.2188,-45.0627
15:09:14.654,-19.8126,-47.3752
15:09:14.662,-21.5626,-49.5627
15:09:14.669,-21.6876,-52.2502
15:09:14.680,-23.0001,-53.3127
15:09:14.689,-22.8751,-54.8127
15:09:14.700,-24.4688,-56.3752
15:09:14.709,-25.0313,-58.6252
15:09:14.719,-26.6564,-61.1877
15:09:14.730,-27.5314,-62.7502
15:09:14.760,-28.2189,-66.1253
15:09:14.763,-30.3439,-67.5628
15:09:14.767,-30.7189,-71.0628
15:09:14.769,-31.7501,-73.5003
15:09:14.780,-31.0626,-73.5628
15:09:14.789,-28.6251,-70.3753
15:09:14.800,-23.4376,-61.6877
15:09:14.809,-15.9688,-48.5627
15:09:14.820,-6.3438,-33.7501
15:09:14.829,2.9688,-18.2501
15:09:14.840,11.2188,-0.5625
15:09:14.850,18.9688,14.3751
15:09:14.860,25.7813,29.8126
15:09:14.869,30.7501,40.6877
15:09:14.879,34.8439,51.6252
15:09:14.889,37.1251,58.1877
15:09:14.899,38.9689,63.8752
15:09:14.910,39.7189,68.0003
15:09:14.920,40.0314,69.5003
15:09:14.930,40.1877,71.7503
15:09:14.943,39.3127,71.2503
15:09:14.949,38.7189,70.8753
15:09:14.974,36.8126,71.1253
15:09:14.977,37.2501,69.6253
15:09:14.982,35.7189,69.8128
15:09:15.023,35.8439,67.6253
15:09:15.025,34.1876,67.1878
15:09:15.027,33.2501,64.6252
15:09:15.031,31.2814,62.1252
15:09:15.036,29.0314,57.6877
15:09:15.040,27.5626,53.3752
15:09:15.072,25.5001,49.7502
15:09:15.072,23.7188,46.4377
15:09:15.074,21.9688,42.9377
15:09:15.081,20.8438,41.1252
15:09:15.112,20.5938,38.5626
15:09:15.114,18.9688,37.2501
15:09:15.116,18.9063,35.5626
15:09:15.121,18.7501,34.2501
15:09:15.140,17.9063,33.5001
15:09:15.142,18.6563,33.6876
15:09:15.150,18.4063,32.8126
15:09:15.160,17.0313,31.4376
15:09:15.169,15.5313,29.8751
15:09:15.180,14.1876,27.8751
15:09:15.189,12.7813,24.4376
15:09:15.200,10.4063,23.0001
15:09:15.211,9.25,18.0626
15:09:15.220,7.4063,16.1876
15:09:15.229,5.5938,11.875
15:09:15.239,4.2813,7.9375
15:09:15.250,2.1875,4.0625
15:09:15.261,0.5,0.4375
15:09:15.270,-1.9375,-3.125
15:09:15.280,-3.9688,-6.6875
15:09:15.291,-5.3438,-10.6875
15:09:15.300,-7.3438,-14.0626
15:09:15.310,-9.0625,-18.2501
15:09:15.325,-10.7813,-21.0001
15:09:15.330,-12.125,-25.2501
15:09:15.340,-12.9063,-27.7501
15:09:15.350,-14.2813,-30.6251
15:09:15.360,-15.6563,-33.1876
15:09:15.375,-17.1876,-35.5001
15:09:15.384,-17.7501,-37.5626
15:09:15.390,-17.6876,-38.4376
15:09:15.408,-18.5313,-40.2502
15:09:15.410,-19.1876,-41.1877
15:09:15.425,-20.3126,-42.7502
15:09:15.430,-20.9376,-44.9377
15:09:15.440,-21.2188,-45.9377
15:09:15.450,-21.7501,-47.8752
15:09:15.460,-22.5938,-47.7502
15:09:15.470,-22.5626,-49.9377
15:09:15.480,-23.0938,-51.6252
15:09:15.491,-23.4376,-52.8752
15:09:15.500,-24.3126,-54.1252
15:09:15.510,-25.7501,-55.8752
15:09:15.521,-26.4689,-57.7502
15:09:15.530,-27.2814,-60.3752
15:09:15.540,-28.2501,-61.5627
15:09:15.550,-29.8751,-64.1252
15:09:15.560,-30.6876,-67.7503
15:09:15.570,-31.6876,-70.4378
15:09:15.580,-32.8439,-72.5628
15:09:15.590,-33.2501,-74.1878
15:09:15.600,-32.4689,-74.9378
15:09:15.612,-30.3751,-71.7503
15:09:15.621,-25.5938,-65.9378
15:09:15.630,-18.4063,-54.5627
15:09:15.640,-10,-40.5002
15:09:15.650,0.1563,-23.9376
15:09:15.660,9.5625,-6.875
15:09:15.671,18.7501,11.1875
15:09:15.680,27.2501,27.0626
15:09:15.690,32.9689,41.6252
15:09:15.700,37.8439,52.8752
15:09:15.710,41.2814,62.9377
15:09:15.720,45.0939,69.8128
15:09:15.730,46.9377,74.4378
15:09:15.740,47.7502,79.5628
15:09:15.750,48.6564,81.5628
15:09:15.763,49.6252,83.3753
15:09:15.795,47.6877,84.0628
15:09:15.798,48.0002,83.8128
15:09:15.800,47.3752,84.3753
15:09:15.803,46.6877,82.5003
15:09:15.833,46.4377,82.3753
15:09:15.837,45.0002,81.6253
15:09:15.838,44.4064,80.0003
15:09:15.840,41.6252,77.0628
15:09:15.878,39.0314,73.0628
15:09:15.880,35.8439,67.2503
15:09:15.884,33.3751,62.8127
15:09:15.889,30.8751,57.2502
15:09:15.892,27.8439,53.0627
15:09:15.925,26.7501,49.5627
15:09:15.942,24.9376,46.7502
15:09:15.958,24.8126,45.4377
15:09:15.971,24.4063,44.0002
15:09:15.974,23.9376,43.2502
15:09:15.990,23.2501,42.1877
15:09:15.990,23.0938,40.9377
15:09:15.990,21.8126,40.3752
15:09:15.991,21.9688,39.6877
15:09:15.996,20.8751,38.4376
15:09:16.005,19.2813,36.3126
15:09:16.015,18.8751,34.8751
15:09:16.044,17.5001,33.3751
15:09:16.046,16.9688,31.0001
15:09:16.048,15.9063,28.3751
15:09:16.055,13.9063,26.1251
15:09:16.067,13.0625,22.6876
15:09:16.079,11.2188,20.3751
15:09:16.085,10.0938,16.6876
15:09:16.095,7.2188,13
15:09:16.105,5.6563,8.4375
15:09:16.115,3.6875,4.9375
15:09:16.125,0.9375,1.25
15:09:16.135,-0.9063,-3.5
15:09:16.145,-3.9375,-8.6875
15:09:16.155,-5.7813,-12.5
15:09:16.165,-7.5938,-17.2501
15:09:16.175,-9.4688,-20.7501
15:09:16.185,-11.4063,-24.2501
15:09:16.195,-13.3438,-28.0001
15:09:16.205,-15.2188,-32.0001
15:09:16.215,-16.6251,-35.0626
15:09:16.225,-18.1251,-39.2502
15:09:16.236,-20.0626,-41.4377
15:09:16.246,-21.3751,-44.8127
15:09:16.255,-22.7188,-48.0627
15:09:16.265,-24.4688,-52.1252
15:09:16.276,-25.8751,-54.0002
15:09:16.285,-27.5626,-56.1877
15:09:16.296,-28.0314,-59.5002
15:09:16.305,-28.6876,-61.5627
15:09:16.315,-29.6876,-63.1252
15:09:16.325,-30.2189,-65.7503
15:09:16.336,-30.8126,-68.0628
15:09:16.346,-31.6876,-68.0628
15:09:16.355,-32.2189,-70.6878
15:09:16.365,-32.6251,-71.3128
15:09:16.375,-32.9064,-73.6253
15:09:16.385,-34.3439,-75.0003
15:09:16.398,-34.5314,-76.0003
15:09:16.430,-35.2501,-78.1878
15:09:16.430,-36.5314,-78.4378
15:09:16.432,-36.8126,-80.1253
15:09:16.435,-37.7189,-81.9378
15:09:16.467,-38.3751,-83.1253
15:09:16.469,-38.7501,-84.1253
15:09:16.471,-38.1564,-84.1878
15:09:16.476,-37.2814,-83.8128
15:09:16.513,-33.3439,-79.5628
15:09:16.514,-27.9376,-70.4378
15:09:16.518,-20.1251,-57.3752
15:09:16.520,-11.4375,-42.6252
15:09:16.526,-1.5,-25.8751
15:09:16.557,7.2813,-9.75
15:09:16.560,15.2188,7.5625
15:09:16.562,23.2813,23.3126
15:09:16.567,29.5314,37.1876
15:09:16.582,34.4064,49.5627
15:09:16.587,38.1251,57.7502
15:09:16.595,41.0939,66.0628
15:09:16.605,42.1877,71.2503
15:09:16.616,43.4689,74.2503
15:09:16.625,43.8439,76.5628
15:09:16.635,44.8752,79.7503
15:09:16.645,44.6564,79.5628
15:09:16.655,44.6564,81.7503
15:09:16.665,44.4689,81.7503
15:09:16.675,46.0002,84.5003
15:09:16.692,46.0627,84.1253
15:09:16.695,45.7814,84.5628
15:09:16.710,44.8127,83.3753
15:09:16.725,42.7814,81.5628
15:09:16.727,40.6564,78.0003
15:09:16.738,38.7189,72.9378
15:09:16.746,35.7814,68.3128
15:09:16.755,33.6564,64.6252
15:09:16.766,31.5001,60.0002
15:09:16.776,30.1564,56.8127
15:09:16.785,29.0314,53.7502
15:09:16.795,27.5001,51.3127
15:09:16.805,26.5939,49.5627
15:09:16.816,26.2188,47.6877
15:09:16.825,25.5626,46.8752
15:09:16.835,25.4063,45.3752
15:09:16.845,24.5313,43.6252
15:09:16.860,23.5313,41.8127
15:09:16.871,22.8126,40.0002
15:09:16.880,21.3751,37.6251
15:09:16.890,20.6563,34.6876
15:09:16.900,19.4688,32.3751
15:09:16.910,17.6563,30.5001
15:09:16.920,15.4688,26.3126
15:09:16.930,13.8126,23.8126
15:09:16.940,12.3438,19.8126
15:09:16.956,10.375,15.3126
15:09:16.962,8.9688,11.8125
15:09:16.970,7.1875,8.5625
15:09:16.980,4.7188,4.8125
15:09:16.990,3.4375,1.375
15:09:17.001,1.625,-2.5625
15:09:17.010,-0.4688,-5.875
15:09:17.020,-3,-12.3125
15:09:17.032,-4.9375,-15.7501
15:09:17.040,-6.625,-19.1251
15:09:17.050,-8.5,-21.5626
15:09:17.060,-9.375,-25.5001
15:09:17.070,-11.8438,-28.6251
15:09:17.080,-13.9376,-31.9376
15:09:17.090,-15.0626,-34.5626
15:09:17.100,-16.0001,-37.2501
15:09:17.111,-16.5001,-41.0627
15:09:17.120,-18.5001,-43.9377
15:09:17.131,-19.8438,-46.1877
15:09:17.140,-20.9688,-48.0627
15:09:17.150,-21.9376,-50.1252
15:09:17.160,-22.2501,-52.5627
15:09:17.170,-23.7813,-55.0002
15:09:17.180,-25.2813,-56.5627
15:09:17.190,-26.0001,-59.0002
15:09:17.201,-27.3751,-61.9377
15:09:17.215,-28.5626,-63.3752
15:09:17.221,-29.7814,-65.6878
15:09:17.253,-30.9689,-67.5003
15:09:17.254,-31.6876,-69.6253
15:09:17.328,-32.1876,-70.8753
15:09:17.329,-33.6564,-73.1253
15:09:17.361,-35.1251,-75.8128
15:09:17.361,-35.7501,-77.6253
15:09:17.362,-37.5001,-78.3753
15:09:17.368,-37.9064,-81.1253
15:09:17.369,-38.7814,-82.6253
15:09:17.371,-39.6877,-85.0003
15:09:17.379,-40.4064,-85.5003
15:09:17.394,-39.4064,-86.3753
15:09:17.396,-36.1251,-83.0003
15:09:17.406,-31.3751,-74.7503
15:09:17.415,-22.4063,-61.8127
15:09:17.425,-13.8751,-45.8752
15:09:17.436,-3.1875,-27.6876
15:09:17.445,6.0938,-8.6875
15:09:17.455,15.8126,9.0625
15:09:17.465,23.0001,24.6876
15:09:17.475,28.7501,37.7501
15:09:17.486,33.6876,47.1252
15:09:17.495,43.0002,74.6878
15:09:17.506,42.4689,74.5628
15:09:17.516,41.5314,73.2503
15:09:17.526,40.3752,72.1253
15:09:17.536,39.9377,71.3753
15:09:17.545,38.5626,70.6878
15:09:17.556,37.9689,69.1253
15:09:17.566,35.5626,67.0003
15:09:17.575,34.6564,63.4377
15:09:17.586,32.1564,61.1252
15:09:17.595,29.4064,57.0627
15:09:17.605,26.6564,51.6252
15:09:17.616,24.2813,47.6877
15:09:17.625,22.8438,45.6252
15:09:17.635,22.4688,42.8752
15:09:17.646,22.4376,41.8752
15:09:17.655,22.8438,41.6252
15:09:17.666,23.3126,42.1877
15:09:17.676,24.1563,43.3127
15:09:17.687,25.5626,43.5627
15:09:17.696,25.5001,44.6252
15:09:17.705,26.7189,45.6252
15:09:17.716,27.7189,46.8127
15:09:17.726,27.7189,46.0627
15:09:17.736,27.8439,45.3127
15:09:17.745,26.4064,44.9377
15:09:17.756,25.5626,42.8127
15:09:17.771,24.9688,41.3752
15:09:17.777,24.5626,39.9377
15:09:17.785,24.1876,38.5001
15:09:17.796,23.2813,35.8126
15:09:17.806,23.3126,34.5626
15:09:17.816,23.6251,34.0001
15:09:17.825,24.0626,32.0626
15:09:17.835,23.7501,31.1251
15:09:17.846,23.5313,28.8126
15:09:17.856,23.6251,27.0626
15:09:17.866,22.3751,25.0001
15:09:17.876,19.5313,21.0626
15:09:17.887,17.5001,18.1251
15:09:17.895,15.2813,15.5626
15:09:17.906,14.2501,11.8125
15:09:17.916,12.1875,8.25
15:09:17.938,10.6563,5.5625
15:09:17.940,10.0625,3.375
15:09:17.947,10,0.625
15:09:17.982,9.875,-2.4375
15:09:17.983,8.8438,-4.75
15:09:17.985,8.125,-5.6875
15:09:17.989,9.125,-7.9375
15:09:18.020,8.6563,-10.625
15:09:18.023,10.8125,-11.5
15:09:18.116,13.6251,-9.8125
15:09:18.116,16.2501,-9.9375
15:09:18.129,27.4689,-3.375
15:09:18.129,35.6876,0.3125
15:09:18.134,37.9689,-2.3125
15:09:18.136,40.1877,-3.25
15:09:18.140,39.1877,-5.5
15:09:18.140,38.7501,-7.5
15:09:18.140,38.7189,-10.75
15:09:18.148,37.7814,-13.7501
15:09:18.157,36.7501,-15.4376
15:09:18.166,35.6564,-18.3126
15:09:18.176,34.8751,-21.7501
15:09:18.186,33.8439,-25.1876
15:09:18.196,32.6876,-27.0626
15:09:18.206,31.0001,-31.3751
15:09:18.216,28.8439,-33.8751
15:09:18.227,27.7189,-35.8126
15:09:18.236,29.4064,-34.0626
15:09:18.247,33.8751,-27.9376
15:09:18.256,61.094,15.3126
15:09:18.267,72.594,33.7501
15:09:18.276,81.0316,49.3752
15:09:18.287,88.3753,64.0002
15:09:18.296,93.3129,74.9378
15:09:18.306,106.2192,102.8129
15:09:18.316,105.9379,107.0629
15:09:18.326,104.3129,108.0004
15:09:18.336,102.9379,107.9379
15:09:18.347,101.5004,108.7504
15:09:18.356,100.9379,108.2504
15:09:18.366,99.7816,106.9379
15:09:18.377,98.0004,105.8129
15:09:18.387,96.3754,105.2504
15:09:18.397,94.6879,101.6879
15:09:18.407,92.0316,100.3754
15:09:18.416,88.1566,96.7504
15:09:18.427,84.4691,92.2504
15:09:18.438,79.6253,87.5003
15:09:18.446,77.0315,82.0003
15:09:18.456,74.9065,79.0003
15:09:18.466,73.4065,75.1253
15:09:18.476,73.0003,71.8128
15:09:18.486,71.6253,69.3128
15:09:18.497,70.3753,66.4378
15:09:18.506,68.094,64.0627
15:09:18.516,66.3753,61.8752
15:09:18.526,63.969,58.7502
15:09:18.536,62.719,56.7502
15:09:18.546,61.094,54.5627
15:09:18.556,59.1252,53.0627
15:09:18.567,58.1877,51.5627
15:09:18.576,56.344,49.8752
15:09:18.602,56.1877,48.3127
15:09:18.604,54.6877,45.3127
15:09:18.619,53.0315,43.9377
15:09:18.626,50.5002,39.1877
15:09:18.629,47.4064,36.0626
15:09:18.682,45.2502,31.8126
15:09:18.682,42.5627,28.8126
15:09:18.684,39.7502,25.1876
15:09:18.688,37.5001,20.3126
15:09:18.693,34.7814,16.3751
15:09:18.696,32.5939,11.5
15:09:18.698,30.2501,8
15:09:18.729,27.6564,3.75
15:09:18.731,25.0626,0.75
15:09:18.734,22.9376,-3.9375
15:09:18.736,20.8751,-8
15:09:18.775,18.0938,-12.1875
15:09:18.779,15.8438,-14.5626
15:09:18.779,13.3438,-19.0001
15:09:18.782,11.1563,-22.3126
15:09:18.787,9.4063,-26.2501
15:09:18.813,7.2813,-29.6876
15:09:18.815,4.6875,-33.1251
15:09:18.822,2.0313,-37.1876
15:09:18.830,0.2813,-39.8752
15:09:18.836,-1.3125,-42.1252
15:09:18.846,-1.9688,-44.2502
15:09:18.857,-3.1563,-45.6252
15:09:18.866,-4.7813,-48.1877
15:09:18.876,-6.1875,-51.4377
15:09:18.886,-7.2813,-53.9377
15:09:18.899,-9.3438,-56.6877
15:09:18.907,-11,-58.6252
15:09:18.917,-12.5313,-61.8127
15:09:18.926,-13.2501,-63.7502
15:09:18.937,-14.7813,-65.8127
15:09:18.946,-15.5626,-66.6878
15:09:18.957,-15.5313,-68.4378
15:09:18.966,-16.3438,-71.5003
15:09:18.976,-17.8438,-72.8753
15:09:18.986,-19.0001,-75.2503
15:09:18.996,-20.2813,-76.9378
15:09:19.008,-22.7813,-80.5003
15:09:19.016,-24.3126,-83.3128
15:09:19.026,-25.3751,-85.5003
15:09:19.036,-26.2501,-88.0628
15:09:19.046,-27.5001,-90.0629
15:09:19.057,-28.1564,-91.3129
15:09:19.067,-27.6876,-90.1253
15:09:19.076,-23.5313,-83.7503
15:09:19.086,-15.9063,-71.6253
15:09:19.096,-4.125,-52.1252
15:09:19.107,8.125,-30.3126
15:09:19.116,19.2813,-9.375
15:09:19.126,28.7501,8.375
15:09:19.136,37.0314,23.8751
15:09:19.146,41.4689,35.9376
15:09:19.156,46.7189,45.1877
15:09:19.166,48.6877,53.1877
15:09:19.176,51.0939,58.8752
15:09:19.186,52.1877,63.8752
15:09:19.196,53.1565,66.7503
15:09:19.207,53.4377,69.4378
15:09:19.216,52.6877,69.5003
15:09:19.226,52.1877,70.7503
15:09:19.236,51.2814,70.0628
15:09:19.246,50.5002,71.5003
15:09:19.256,50.2502,71.3753
15:09:19.266,49.9377,72.3753
15:09:19.277,49.7814,71.1878
15:09:19.288,49.4377,71.0628
15:09:19.297,48.1877,69.5003
15:09:19.308,46.4377,66.6878
15:09:19.316,44.5627,63.6877
15:09:19.329,41.5314,60.3752
15:09:19.336,39.6252,57.5002
15:09:19.346,37.6564,52.4377
15:09:19.356,34.6876,49.6877
15:09:19.366,34.1564,46.8127
15:09:19.400,32.4376,44.4377
15:09:19.402,32.1876,42.8127
15:09:19.429,31.5314,41.3752
15:09:19.432,30.6251,39.8127
15:09:19.498,29.3751,39.0627
15:09:19.498,29.0314,38.7501
15:09:19.498,29.2814,37.8751
15:09:19.511,29.3439,36.8126
15:09:19.513,28.9064,36.5626
15:09:19.515,27.8439,34.0626
15:09:19.515,25.7188,32.0001
15:09:19.524,24.4376,29.0001
15:09:19.554,22.0626,26.3126
15:09:19.558,20.0313,22.3126
15:09:19.559,17.8126,19.0626
15:09:19.561,15.9688,15.0001
15:09:19.572,14.1251,11.1875
15:09:19.581,12.0313,8.125
15:09:19.592,10.625,4.625
15:09:19.601,9.1875,1.0625
15:09:19.611,7.5,-2.3125
15:09:19.621,5.3438,-5.75
15:09:19.631,2.6875,-10.75
15:09:19.642,0.6875,-15.3126
15:09:19.653,-1.1563,-19.3751
15:09:19.663,-3.6563,-22.0001
15:09:19.671,-6.4688,-27.0001
15:09:19.681,-12.625,-42.1252
15:09:19.691,-13.9688,-45.4377
15:09:19.701,-15.5938,-48.3752
15:09:19.712,-17.1563,-51.8752
15:09:19.721,-19.0001,-55.3752
15:09:19.733,-21.0001,-57.2502
15:09:19.742,-22.1251,-59.5627
15:09:19.752,-23.4376,-62.8752
15:09:19.762,-24.6876,-65.3127
15:09:19.771,-25.2813,-66.6878
15:09:19.783,-25.1563,-68.5003
15:09:19.791,-27.0626,-70.8753
15:09:19.801,-27.7814,-71.4378
15:09:19.811,-29.0001,-75.1878
15:09:19.822,-30.2814,-76.2503
15:09:19.832,-31.0626,-78.5628
15:09:19.841,-32.5001,-80.9378
15:09:19.853,-33.2814,-83.4378
15:09:19.881,-34.2501,-84.6878
15:09:19.883,-35.8439,-86.5628
15:09:19.887,-36.9689,-89.8128
15:09:19.892,-39.5939,-90.8754
15:09:19.902,-40.5939,-94.8129
15:09:19.913,-41.5314,-96.1879
15:09:19.922,-41.3439,-97.6879
15:09:19.931,-41.3439,-98.9379
15:09:19.947,-40.5627,-97.5004
15:09:19.956,-35.2814,-90.7504
15:09:19.962,-26.8439,-77.9378
15:09:19.979,-15.2188,-59.9377
15:09:19.985,-2.8125,-36.6251
15:09:19.991,8.4688,-15.7501
15:09:20.009,17.9063,3.375
15:09:20.013,25.4063,18.5001
15:09:20.026,32.0001,30.7501
15:09:20.033,35.3126,41.3127
15:09:20.043,38.7501,48.6877
15:09:20.052,40.7502,55.1252
15:09:20.063,42.2502,58.1252
15:09:20.073,42.5939,61.5002
15:09:20.095,42.5002,62.4377
15:09:20.098,42.6564,63.2502
15:09:20.103,41.0002,63.5627
15:09:20.137,41.0939,62.5627
15:09:20.141,38.9689,61.5002
15:09:20.144,37.8126,60.5002
15:09:20.146,36.6564,60.5627
15:09:20.183,35.6251,58.0627
15:09:20.183,34.5314,56.5002
15:09:20.186,32.7189,54.8752
15:09:20.190,30.1876,51.5627
15:09:20.194,28.7501,48.5627
15:09:20.225,27.2814,46.3752
15:09:20.226,25.0313,42.6252
15:09:20.229,23.3751,39.3127
15:09:20.231,21.8438,36.3126
15:09:20.265,20.1876,34.1876
15:09:20.267,19.4376,32.3126
15:09:20.269,18.5313,31.1876
15:09:20.272,18.3126,30.6876
15:09:20.283,18.0938,30.1876
15:09:20.293,17.3751,30.2501
15:09:20.303,17.0313,30.0001
15:09:20.312,16.8126,28.4376
15:09:20.322,16.0313,27.6876
15:09:20.332,15.7813,26.8126
15:09:20.342,14.1563,24.9376
15:09:20.352,12.7188,22.6251
15:09:20.362,11.5625,20.3126
15:09:20.372,10.0938,17.9376
15:09:20.382,8.0625,15.5626
15:09:20.394,6.9688,11.8125
15:09:20.401,4.3125,7.8125
15:09:20.413,2.5625,4.375
15:09:20.422,-0.25,1.0625
15:09:20.433,-1.375,-2.4375
15:09:20.442,-2.9688,-6.125
15:09:20.452,-4.4063,-8.25
15:09:20.463,-5.7188,-10.875
15:09:20.472,-6.9375,-15.0001
15:09:20.482,-8.375,-18.5001
15:09:20.492,-10.4688,-21.9376
15:09:20.503,-12.1563,-23.8126
15:09:20.513,-13.1875,-28.0001
15:09:20.523,-14.7813,-31.0001
15:09:20.532,-16.8126,-33.5001
15:09:20.543,-18.4376,-35.9376
15:09:20.552,-19.1876,-39.3127
15:09:20.563,-20.6876,-42.0627
15:09:20.572,-22.0626,-45.2502
15:09:20.583,-22.8751,-44.9377
15:09:20.592,-23.5313,-48.1252
15:09:20.602,-23.6251,-50.5002
15:09:20.613,-24.6876,-51.8752
15:09:20.622,-25.9688,-55.1877
15:09:20.633,-26.9376,-56.3752
15:09:20.643,-28.3126,-59.3752
15:09:20.652,-29.2189,-60.2502
15:09:20.663,-30.0626,-63.1252
15:09:20.672,-30.2189,-63.8127
15:09:20.682,-30.8126,-65.8128
15:09:20.693,-32.2189,-67.8128
15:09:20.702,-32.7814,-70.3128
15:09:20.713,-34.0314,-72.2503
15:09:20.722,-34.9689,-73.7503
15:09:20.732,-36.0001,-75.5003
15:09:20.742,-35.5314,-76.5628
15:09:20.753,-33.6564,-72.4378
15:09:20.762,-26.8126,-65.0627
15:09:20.777,-18.6563,-49.5627
15:09:20.786,-7.1563,-32.2501
15:09:20.792,2.4375,-12.5
15:09:20.839,11.8438,4.125
15:09:20.868,19.3126,18.3751
15:09:20.872,25.9063,31.5001
15:09:20.873,30.7501,41.7502
15:09:20.876,33.8439,51.2502
15:09:20.884,36.1876,56.8127
15:09:20.884,37.7501,62.8127
15:09:20.884,38.4689,65.4377
15:09:20.889,38.7501,68.1878
15:09:20.920,37.9689,68.6253
15:09:20.922,37.7814,69.0628
15:09:20.924,36.8751,68.8753
15:09:20.930,36.2501,68.8753
15:09:20.969,33.9689,65.8128
15:09:20.970,32.3751,65.1252
15:09:20.972,30.9064,62.9377
15:09:20.979,29.4376,60.7502
15:09:20.982,27.9376,58.6252
15:09:20.993,25.6876,55.0002
15:09:21.003,24.0938,50.7502
15:09:21.012,21.9063,47.1877
15:09:21.022,19.3751,42.8127
15:09:21.032,18.5001,39.6252
15:09:21.042,16.8438,36.3751
15:09:21.053,15.3438,33.0626
15:09:21.062,14.3438,33.1251
15:09:21.072,14.1563,31.1251
15:09:21.083,13.7501,29.8751
15:09:21.092,14.4063,29.8126
15:09:21.102,13.8438,29.4376
15:09:21.113,13.4688,29.4376
15:09:21.123,13.9063,29.1251
15:09:21.133,12.7813,27.5626
15:09:21.160,11.3125,25.5001
15:09:21.162,9.875,22.3751
15:09:21.165,8.4375,20.0626
15:09:21.176,6.9375,18.2501
15:09:21.185,5.5313,15.6251
15:09:21.192,4.5,13
15:09:21.202,2.5,9.125
15:09:21.212,0.75,5.1875
15:09:21.222,-0.7188,1.125
15:09:21.232,-3.125,-2.4375
15:09:21.242,-5.1875,-5.1875
15:09:21.252,-6.6563,-8.3125
15:09:21.262,-7.6563,-11.9375
15:09:21.279,-9.9688,-16.4376
15:09:21.285,-12.0313,-19.1251
15:09:21.293,-13.9063,-21.8126
15:09:21.307,-15.0938,-25.7501
15:09:21.316,-16.9063,-29.1876
15:09:21.324,-18.7188,-32.9376
15:09:21.332,-19.7188,-35.1876
15:09:21.342,-19.8126,-37.1251
15:09:21.352,-20.6251,-39.6877
15:09:21.362,-21.9063,-42.6877
15:09:21.373,-23.2813,-45.7502
15:09:21.383,-24.9376,-48.7502
15:09:21.393,-26.6876,-50.5002
15:09:21.402,-27.2501,-53.3127
15:09:21.412,-29.2501,-55.1877
15:09:21.422,-29.2501,-57.3127
15:09:21.432,-30.4689,-58.8752
15:09:21.443,-31.2189,-60.1252
15:09:21.452,-31.4376,-62.3752
15:09:21.462,-32.1564,-63.2502
15:09:21.473,-32.7189,-64.6877
15:09:21.482,-32.4376,-67.6253
15:09:21.493,-34.6876,-68.8753
15:09:21.502,-34.7189,-71.0003
15:09:21.512,-35.7501,-72.1878
15:09:21.523,-37.3439,-75.0628
15:09:21.532,-38.2189,-77.3753
15:09:21.548,-39.7189,-80.0628
15:09:21.554,-40.3439,-81.8128
15:09:21.562,-41.3752,-82.4378
15:09:21.573,-40.4064,-83.3128
15:09:21.582,-37.9064,-78.5628
15:09:21.622,-30.7814,-69.4378
15:09:21.622,-20.3438,-53.1252
15:09:21.624,-9.4063,-32.5626
15:09:21.626,2.1875,-12.8125
15:09:21.634,11.375,5.5625
15:09:21.664,21.3126,22.0626
15:09:21.667,26.9689,36.7501
15:09:21.670,33.0001,48.7502
15:09:21.675,37.8439,59.6252
15:09:21.703,41.1564,67.4378
15:09:21.705,43.7189,74.2503
15:09:21.706,44.5002,77.4378
15:09:21.736,44.3439,81.0003
15:09:21.739,44.5002,82.6253
15:09:21.741,44.2502,83.1878
15:09:21.746,43.3752,83.2503
15:09:21.775,43.4064,83.3128
15:09:21.778,42.1877,84.1878
15:09:21.780,41.6877,82.0628
15:09:21.782,40.1252,82.3753
15:09:21.793,39.5939,80.7503
15:09:21.802,37.8751,79.5003
15:09:21.813,36.3439,75.6878
15:09:21.823,33.8439,72.3753
15:09:21.833,31.6876,69.3753
15:09:21.842,29.9376,64.6252
15:09:21.852,27.8439,61.4377
15:09:21.862,26.4376,57.4377
15:09:21.872,25.1876,54.9377
15:09:21.882,23.9063,52.4377
15:09:21.892,23.4063,51.1877
15:09:21.902,22.7501,50.1877
15:09:21.912,22.2813,48.6877
15:09:21.924,21.5626,48.0627
15:09:21.933,21.2188,47.6877
15:09:21.942,20.8751,46.2502
15:09:21.953,21.2188,45.7502
15:09:21.963,20.2501,44.4377
15:09:21.972,19.0001,43.0627
15:09:21.982,17.9063,40.4377
15:09:21.993,16.5938,38.0626
15:09:22.003,14.7501,35.5626
15:09:22.012,13.6251,32.4376
15:09:22.022,12.2813,28.9376
15:09:22.032,10.3125,25.6251
15:09:22.042,8.875,23.0626
15:09:22.052,6.7813,20.0001
15:09:22.063,4.9375,16.1251
15:09:22.072,2.8438,11.8125
15:09:22.082,1.7813,8.25
15:09:22.092,-0.3125,4.9375
15:09:22.102,-2.1563,0.6875
15:09:22.118,-4,-1.9375
15:09:22.135,-5.4688,-6
15:09:22.137,-7.25,-9
15:09:22.152,-9.375,-13.8126
15:09:22.156,-10.75,-15.6876
15:09:22.171,-11.9063,-19.6251
15:09:22.173,-13.2501,-21.3751
15:09:22.183,-15.0626,-25.5626
15:09:22.192,-16.0313,-27.8751
15:09:22.203,-17.3751,-31.2501
15:09:22.212,-18.3438,-32.7501
15:09:22.224,-19.4376,-36.1251
15:09:22.234,-20.8126,-38.5001
15:09:22.242,-21.4688,-41.2502
15:09:22.254,-23.5313,-43.7502
15:09:22.263,-24.1563,-46.0627
15:09:22.274,-25.0626,-47.8127
15:09:22.282,-26.5626,-50.3752
15:09:22.299,-26.8439,-51.8752
15:09:22.312,-28.0314,-54.4377
15:09:22.315,-29.1251,-55.7502
15:09:22.324,-29.9376,-58.2502
15:09:22.355,-30.2501,-59.5627
15:09:22.356,-31.2501,-62.0627
15:09:22.360,-32.2814,-63.1877
15:09:22.364,-33.5939,-66.7503
15:09:22.392,-34.3439,-68.6878
15:09:22.395,-35.9064,-70.0003
15:09:22.396,-37.4689,-73.1253
15:09:22.431,-37.3751,-75.4378
15:09:22.432,-39.5002,-77.9378
15:09:22.434,-39.9689,-80.4378
15:09:22.451,-40.4377,-81.6253
15:09:22.454,-39.5627,-82.6878
15:09:22.454,-37.0314,-77.8753
15:09:22.480,-31.1251,-70.5628
15:09:22.483,-21.0313,-53.5627
15:09:22.486,-9.2188,-33.3751
15:09:22.494,2.4063,-12.8125
15:09:22.504,12.4375,5.1875
15:09:22.514,20.7813,22.6251
15:09:22.522,27.1251,35.5001
15:09:22.534,33.7501,48.8752
15:09:22.544,37.8751,59.6252
15:09:22.553,41.3752,68.7503
15:09:22.564,43.8439,74.5628
15:09:22.572,45.5939,79.6253
15:09:22.592,46.3752,83.6878
15:09:22.600,46.5314,84.3128
15:09:22.615,45.6564,85.9378
15:09:22.617,44.4377,84.1253
15:09:22.632,42.9689,83.8753
15:09:22.647,42.0939,82.8128
15:09:22.650,41.6877,82.6878
15:09:22.654,40.7502,81.0003
15:09:22.663,40.2189,80.2503
15:09:22.674,39.1251,78.6253
15:09:22.684,38.6564,76.8128
15:09:22.694,36.0626,73.8128
15:09:22.704,33.8439,70.0003
15:09:22.713,31.4689,64.8752
15:09:22.725,29.6876,61.5002
15:09:22.735,27.6251,57.8127
15:09:22.744,26.6564,53.8127
15:09:22.753,24.4376,52.0002
15:09:22.764,23.1251,50.1877
15:09:22.774,23.0938,48.3127
15:09:22.784,23.6876,47.9377
15:09:22.793,24.1563,46.9377
15:09:22.802,24.7813,48.3127
15:09:22.814,24.7501,46.9377
15:09:22.824,23.6251,46.7502
15:09:22.835,23.8438,45.0627
15:09:22.845,21.6563,43.0627
15:09:22.853,20.6876,40.6252
15:09:22.864,19.8126,37.6876
15:09:22.872,18.4376,34.9376
15:09:22.884,16.5313,32.3751
15:09:22.894,14.3438,29.3126
15:09:22.904,11.3125,25.1251
15:09:22.914,10.25,20.7501
15:09:22.924,8.3438,17.7501
15:09:22.934,6.7813,14.1876
15:09:22.944,5.25,10
15:09:22.954,3.375,6.1875
15:09:22.964,1.75,4.0625
15:09:22.974,0.0625,-0.25
15:09:22.984,-2.4688,-4.125
15:09:22.994,-3.9688,-7.1875
15:09:23.004,-5.4375,-10.5
15:09:23.014,-6.25,-12.6875
15:09:23.024,-7.625,-16.1876
15:09:23.034,-9.5625,-19.6876
15:09:23.049,-10.8125,-22.8126
15:09:23.057,-12.5,-25.5626
15:09:23.085,-14.8438,-28.9376
15:09:23.088,-16.1563,-31.8751
15:09:23.090,-16.8438,-34.6876
15:09:23.095,-17.5313,-37.1251
15:09:23.125,-18.0626,-39.1252
15:09:23.128,-19.3126,-40.8752
15:09:23.130,-20.2813,-43.1877
15:09:23.158,-21.5938,-45.5627
15:09:23.159,-22.6251,-46.9377
15:09:23.160,-23.2813,-49.1252
15:09:23.167,-24.6563,-49.5627
15:09:23.180,-24.3751,-51.8752
15:09:23.184,-25.4688,-52.9377
15:09:23.219,-26.1876,-55.0627
15:09:23.221,-26.5626,-57.5002
15:09:23.224,-27.6251,-59.6252
15:09:23.230,-28.9064,-62.1877
15:09:23.242,-29.9064,-64.3752
15:09:23.244,-31.4689,-66.5003
15:09:23.254,-33.1251,-69.6253
15:09:23.264,-34.2814,-71.9378
15:09:23.274,-34.4689,-72.5003
15:09:23.284,-35.5314,-75.4378
15:09:23.294,-34.4689,-74.5628
15:09:23.304,-32.4064,-72.0003
15:09:23.314,-26.5939,-63.0002
15:09:23.324,-16.4376,-48.3127
15:09:23.334,-5.3438,-29.6876
15:09:23.344,4.25,-8.875
15:09:23.354,14.3751,7.625
15:09:23.364,22.2188,24.6251
15:09:23.374,29.2189,37.0626
15:09:23.383,33.8439,49.8752
15:09:23.394,38.1876,59.5627
15:09:23.404,40.2502,68.5628
15:09:23.414,42.3439,72.4378
15:09:23.424,42.9064,76.4378
15:09:23.440,42.4064,78.0628
15:09:23.455,41.7189,78.1253
15:09:23.457,40.2814,78.0003
15:09:23.464,38.2814,76.1253
15:09:23.474,36.7189,74.7503
15:09:23.484,35.5939,72.8753
15:09:23.494,35.0626,71.7503
15:09:23.504,33.6876,69.7503
15:09:23.514,31.3439,66.6253
15:09:23.524,29.4376,63.8752
15:09:23.534,27.4689,60.9377
15:09:23.543,25.0626,56.1877
15:09:23.553,21.9688,51.4377
15:09:23.564,19.4376,46.6252
15:09:23.574,17.5001,43.5627
15:09:23.584,16.5626,40.5627
15:09:23.594,16.4376,38.5001
15:09:23.604,15.9376,36.8751
15:09:23.615,15.3751,35.9376
15:09:23.624,15.2501,36.1251
15:09:23.634,15.1251,37.0626
15:09:23.644,15.5001,36.7501
15:09:23.654,15.6876,35.6251
15:09:23.664,15.2188,34.8126
15:09:23.674,14.5938,34.8126
15:09:23.684,13.5938,33.9376
15:09:23.694,13.4063,31.9376
15:09:23.722,12.375,29.3751
15:09:23.724,10.3438,26.3751
15:09:23.728,8.5938,24.8126
15:09:23.763,7.6563,21.3751
15:09:23.766,5.25,17.6876
15:09:23.770,2.9688,13.6876
15:09:23.773,0.9375,10.9375
15:09:23.774,-0.9375,7.5625
15:09:23.788,-1.7813,4.1875
15:09:23.794,-3.2188,0.3125
15:09:23.830,-5.4688,-3.5
15:09:23.834,-7.75,-7.625
15:09:23.836,-9.2188,-11.75
15:09:23.839,-11.6875,-13.5626
15:09:23.873,-12.3438,-17.6876
15:09:23.875,-14.1563,-21.0626
15:09:23.878,-15.5313,-24.8126
15:09:23.911,-17.1876,-27.2501
15:09:23.911,-18.5938,-29.0626
15:09:23.925,-19.5626,-33.0626
15:09:23.940,-21.3751,-36.1876
15:09:23.942,-23.1563,-39.0001
15:09:23.942,-24.4063,-40.8752
15:09:23.943,-24.5313,-43.6877
15:09:23.946,-25.6563,-46.6877
15:09:23.954,-27.0314,-47.1877
15:09:23.964,-27.6251,-49.6252
15:09:23.974,-28.4064,-52.6252
15:09:23.987,-28.7501,-54.2502
15:09:23.993,-29.7501,-55.6252
15:09:24.005,-30.5001,-57.8127
15:09:24.014,-32.3126,-60.2502
15:09:24.024,-32.7814,-62.6252
15:09:24.034,-34.1251,-64.6877
15:09:24.044,-34.9064,-66.6253
15:09:24.054,-36.1251,-68.8128
15:09:24.064,-37.1564,-71.5003
15:09:24.074,-37.7189,-73.3128
15:09:24.084,-37.1564,-72.3753
15:09:24.094,-33.7189,-69.1878
15:09:24.104,-28.0001,-58.5627
15:09:24.113,-18.5938,-45.0627
15:09:24.124,-8.7188,-25.9376
15:09:24.133,2.0313,-8.1875
15:09:24.144,11.25,9.125
15:09:24.154,18.3438,24.9376
15:09:24.163,24.4688,38.1251
15:09:24.173,30.3126,51.8127
15:09:24.183,33.7189,60.8127
15:09:24.193,36.9064,69.2503
15:09:24.204,38.2189,75.5003
15:09:24.213,39.3127,78.0628
15:09:24.224,39.0939,80.9378
15:09:24.234,39.1252,81.9378
15:09:24.244,37.8126,83.0003
15:09:24.254,37.5939,81.6878
15:09:24.263,36.4064,81.9378
15:09:24.273,35.6251,80.0628
15:09:24.284,35.0626,79.7503
15:09:24.294,33.6251,76.9378
15:09:24.304,32.3126,75.3753
15:09:24.313,30.9376,73.2503
15:09:24.323,29.0001,68.7503
15:09:24.333,26.4689,65.2503
15:09:24.344,23.8438,60.7502
15:09:24.354,21.0001,56.9377
15:09:24.365,19.5313,52.4377
15:09:24.374,16.5938,48.5002
15:09:24.384,15.0313,46.1252
15:09:24.394,14.6563,43.5627
15:09:24.404,13.5001,42.6252
15:09:24.414,13.2188,40.6877
15:09:24.424,12.5,40.1252
15:09:24.434,12.5,40.1252
15:09:24.445,12.6563,39.0626
15:09:24.454,14.4688,42.1252
15:09:24.464,13.3438,38.9376
15:09:24.474,13.3751,39.0001
15:09:24.484,11.9063,36.3126
15:09:24.494,11.5625,35.6876
15:09:24.507,10.8125,32.5626
15:09:24.515,9.5625,31.0001
15:09:24.558,8.6563,27.6876
15:09:24.559,7.0625,24.8751
15:09:24.563,4.8125,21.1876
15:09:24.566,3.6563,18.8126
15:09:24.569,1.8125,13.8126
15:09:24.579,-0.1875,11.375
15:09:24.583,-1.375,7.1875
15:09:24.616,-4,3
15:09:24.616,-5.9375,0.375
15:09:24.616,-7.4063,-4.8125
15:09:24.647,-9.9063,-8.3125
15:09:24.650,-10.9375,-11.75
15:09:24.651,-12.25,-15.0626
15:09:24.658,-13.3126,-18.2501
15:09:24.669,-14.7188,-21.8126
15:09:24.674,-16.7813,-24.9376
15:09:24.683,-18.5313,-27.5001
15:09:24.694,-20.1876,-30.9376
15:09:24.704,-21.6251,-35.1251
15:09:24.714,-23.2501,-37.3751
15:09:24.753,-23.5001,-38.8751
15:09:24.756,-24.4063,-41.9377
15:09:24.756,-25.9063,-43.1252
15:09:24.760,-25.5938,-46.4377
15:09:24.765,-27.0314,-47.8752
15:09:24.774,-27.5314,-50.3752
15:09:24.784,-29.0314,-52.5002
15:09:24.793,-29.9376,-55.3127
15:09:24.803,-31.3751,-56.6252
15:09:24.814,-32.0626,-59.2502
15:09:24.825,-33.3439,-60.0627
15:09:24.834,-33.9064,-63.4377
15:09:24.844,-34.5626,-65.1877
15:09:24.855,-36.0001,-66.5628
15:09:24.864,-37.3126,-70.6253
15:09:24.875,-38.6564,-72.4378
15:09:24.884,-39.9377,-73.8128
15:09:24.895,-41.7814,-77.1878
15:09:24.904,-41.4689,-78.1878
15:09:24.915,-40.2814,-76.2503
15:09:24.924,-35.1251,-69.5628
15:09:24.934,-26.5939,-56.5002
15:09:24.944,-16.5313,-40.1252
15:09:24.954,-6.1875,-19.7501
15:09:24.965,3.6875,-3.0625
15:09:24.974,12.75,16.1876
15:09:25.003,20.5626,33.2501
15:09:25.004,27.2501,46.8752
15:09:25.010,32.8751,60.1252
15:09:25.019,36.8126,70.9378
15:09:25.032,40.8127,80.1878
15:09:25.039,42.5627,86.8128
15:09:25.049,43.5627,90.7504
15:09:25.059,43.5314,93.5004
15:09:25.071,42.8127,93.5004
15:09:25.079,41.0939,93.1254
15:09:25.089,39.6252,92.0004
15:09:25.098,38.9064,92.1254
15:09:25.115,38.3439,89.7503
15:09:25.119,38.8126,91.0629
15:09:25.129,37.3751,90.0628
15:09:25.140,36.4064,87.1878
15:09:25.150,33.5939,84.0628
15:09:25.159,29.5314,79.6253
15:09:25.170,27.3439,75.0003
15:09:25.179,25.8438,69.4378
15:09:25.189,23.8126,65.4377
15:09:25.199,22.0938,61.9377
15:09:25.218,20.8438,59.9377
15:09:25.224,19.6563,57.3752
15:09:25.256,19.2501,55.7502
15:09:25.257,18.6876,55.1877
15:09:25.259,19.4063,53.8752
15:09:25.263,19.4376,53.7502
15:09:25.295,19.6563,53.4377
15:09:25.298,19.8438,52.9377
15:09:25.300,20.2501,52.9377
15:09:25.327,20.9688,53.0627
15:09:25.328,21.3438,52.6252
15:09:25.330,22.3438,52.2502
15:09:25.336,22.6563,50.1877
15:09:25.352,22.3438,48.3127
15:09:25.354,21.5313,44.4377
15:09:25.383,20.4376,41.4377
15:09:25.385,18.6251,37.2501
15:09:25.388,16.7188,33.1251
15:09:25.394,14.5313,29.5001
15:09:25.409,13.5626,25.3126
15:09:25.411,11.4688,20.6876
15:09:25.420,8.5625,16.8751
15:09:25.429,6.3125,12.125
15:09:25.440,3.1875,6.8125
15:09:25.450,-0.4375,1.9375
15:09:25.460,-3.4063,-3.1875
15:09:25.469,-6.2813,-9
15:09:25.480,-9,-13.1876
15:09:25.495,-11.5938,-17.9376
15:09:25.500,-14.1563,-21.6876
15:09:25.510,-16.4688,-24.9376
15:09:25.519,-18.1251,-29.5626
15:09:25.530,-20.7501,-32.7501
15:09:25.539,-23.0938,-36.0626
15:09:25.550,-24.3438,-39.8752
15:09:25.560,-25.7188,-41.8127
15:09:25.570,-27.4064,-45.3127
15:09:25.580,-29.2814,-47.9377
15:09:25.590,-29.5626,-49.8752
15:09:25.600,-30.9064,-51.8752
15:09:25.610,-31.7501,-53.7502
15:09:25.620,-32.6564,-55.4377
15:09:25.630,-33.0314,-58.1877
15:09:25.640,-34.9689,-60.0627
15:09:25.650,-34.8126,-61.8752
15:09:25.660,-37.2501,-64.6877
15:09:25.671,-38.3439,-67.5003
15:09:25.680,-39.1252,-69.5628
15:09:25.690,-39.9377,-71.5003
15:09:25.700,-40.1564,-72.7503
15:09:25.710,-41.1252,-75.4378
15:09:25.720,-41.0002,-76.5003
15:09:25.731,-42.5939,-78.1253
15:09:25.741,-42.8752,-82.0003
15:09:25.750,-44.4064,-83.0628
15:09:25.761,-45.3127,-86.5628
15:09:25.770,-45.2502,-86.1253
15:09:25.780,-43.3752,-84.6878
15:09:25.790,-37.8751,-75.8753
15:09:25.801,-29.0939,-62.4377
15:09:25.810,-18.4688,-44.2502
15:09:25.820,-7.25,-25.1876
15:09:25.830,2.9375,-6.625
15:09:25.840,10.875,10.8125
15:09:25.850,18.3126,26.8126
15:09:25.860,24.6251,41.4377
15:09:25.870,29.0626,53.2502
15:09:25.880,32.0314,63.4377
15:09:25.908,33.8751,71.2503
15:09:25.910,35.2189,74.8128
15:09:25.912,35.0626,79.0628
15:09:25.950,36.5626,80.8128
15:09:25.951,34.7189,82.3753
15:09:25.954,33.9376,79.7503
15:09:25.956,32.2814,79.5003
15:09:25.962,29.5314,77.1878
15:09:25.987,28.4376,75.6878
15:09:25.989,28.3126,76.1878
15:09:25.991,28.6876,74.7503
15:09:26.020,27.5001,72.1253
15:09:26.024,25.2188,70.3753
15:09:26.058,23.9376,66.7503
15:09:26.069,22.0001,62.6252
15:09:26.069,19.7501,58.3127
15:09:26.069,18.0313,53.9377
15:09:26.070,16.1563,51.4377
15:09:26.082,15.6876,49.0627
15:09:26.090,15.3126,46.5627
15:09:26.100,15.2188,45.3752
15:09:26.110,15.9688,44.8127
15:09:26.120,16.2501,44.9377
15:09:26.131,15.8126,44.5002
15:09:26.140,16.2813,43.9377
15:09:26.150,15.7813,44.3127
15:09:26.160,15.1251,42.8127
15:09:26.170,14.3126,41.8752
15:09:26.180,13.7813,39.7502
15:09:26.190,12.875,38.1251
15:09:26.200,11.5625,35.4376
15:09:26.210,10.7813,33.1876
15:09:26.220,9.875,30.1876
15:09:26.230,7.1563,25.0001
15:09:26.246,6.4375,22.0626
15:09:26.250,4.2813,18.8126
15:09:26.281,2.875,14.5001
15:09:26.283,0.875,11.1875
15:09:26.285,-1.8125,6.875
15:09:26.289,-3.9063,2.9375
15:09:26.300,-5.8438,-0.8125
15:09:26.310,-6.875,-4.6875
15:09:26.320,-8.0625,-8.6875
15:09:26.331,-9.4688,-11.25
15:09:26.340,-10.5,-14.2501
15:09:26.350,-12.4063,-18.1251
15:09:26.360,-13.4688,-21.5626
15:09:26.371,-14.6251,-24.1876
15:09:26.380,-16.6563,-28.4376
15:09:26.390,-17.5001,-30.8751
15:09:26.400,-19.8438,-34.5001
15:09:26.410,-21.0313,-37.3126
15:09:26.420,-22.1563,-39.5627
15:09:26.431,-22.8751,-42.0002
15:09:26.440,-23.0938,-44.6252
15:09:26.450,-23.4063,-45.5002
15:09:26.460,-24.0626,-47.8127
15:09:26.470,-24.8751,-49.5002
15:09:26.480,-25.8126,-52.3127
15:09:26.491,-26.2188,-54.1252
15:09:26.500,-27.2189,-55.2502
15:09:26.519,-28.0001,-57.6877
15:09:26.525,-29.7501,-60.0627
15:09:26.540,-30.6251,-63.3127
15:09:26.542,-32.0939,-64.6252
15:09:26.550,-32.7814,-67.7503
15:09:26.560,-33.4689,-68.8753
15:09:26.570,-33.7814,-72.1253
15:09:26.580,-34.9064,-74.0628
15:09:26.590,-35.0001,-76.5628
15:09:26.600,-33.9689,-76.1253
15:09:26.610,-32.3439,-72.9378
15:09:26.622,-26.2501,-64.6877
15:09:26.630,-17.6251,-50.0002
15:09:26.641,-8.6563,-33.9376
15:09:26.650,1.6875,-15.5001
15:09:26.660,10.125,2.4375
15:09:26.697,19.2188,18.5001
15:09:26.700,26.2188,34.9376
15:09:26.701,32.4376,48.6877
15:09:26.705,36.1876,60.0627
15:09:26.710,39.2502,68.0003
15:09:26.748,40.7502,73.7503
15:09:26.750,41.5627,78.1253
15:09:26.753,41.3752,79.1253
15:09:26.755,40.6252,79.9378
15:09:26.761,39.4064,78.6253
15:09:26.774,38.3126,78.3128
15:09:26.780,36.9064,76.3753
15:09:26.810,35.9376,74.2503
15:09:26.813,34.5626,72.2503
15:09:26.815,32.4064,70.3128
15:09:26.821,31.1876,66.5003
15:09:26.859,28.8439,62.0002
15:09:26.859,26.4689,59.5002
15:09:26.859,24.8126,54.3752
15:09:26.865,22.0938,50.1877
15:09:26.872,20.6563,46.3127
15:09:26.880,19.2188,42.2502
15:09:26.890,17.7813,39.0002
15:09:26.900,16.6563,36.7501
15:09:26.910,15.3751,34.6251
15:09:26.921,15.7501,33.3126
15:09:26.930,14.2501,32.3751
15:09:26.940,13.8751,31.8751
15:09:26.950,13.8751,31.0626
15:09:26.960,13.0625,29.3751
15:09:26.971,13.4688,29.1876
15:09:26.980,13.2813,28.9376
15:09:26.994,12.0625,27.7501
15:09:27.005,11.75,25.9376
15:09:27.010,10.0313,23.3751
15:09:27.020,9.4063,20.1876
15:09:27.030,8.3438,18.2501
15:09:27.041,5.8125,14.5626
15:09:27.050,3.7813,11.125
15:09:27.060,2.0625,8.1875
15:09:27.070,-0.2813,4.625
15:09:27.080,-3.3438,-0.1875
15:09:27.092,-7.5625,-6.1875
15:09:27.100,-11.9063,-11.6875
15:09:27.110,-16.3126,-18.0001
15:09:27.121,-20.2813,-24.0001
15:09:27.130,-23.5938,-28.6876
15:09:27.140,-27.4376,-32.9376
15:09:27.150,-31.4376,-37.0626
15:09:27.160,-37.0001,-42.8127
15:09:27.170,-43.6564,-48.8127
15:09:27.180,-46.2502,-51.1877
15:09:27.190,-48.7502,-54.8127
15:09:27.200,-51.4064,-58.1877
15:09:27.210,-54.344,-61.6252
15:09:27.220,-55.7815,-63.9377
15:09:27.230,-57.7502,-65.6252
15:09:27.240,-58.6877,-68.4378
15:09:27.250,-60.9377,-69.8753
15:09:27.260,-62.1877,-72.3753
15:09:27.270,-64.094,-73.5628
15:09:27.280,-66.969,-76.6878
15:09:27.290,-68.6565,-80.3128
15:09:27.300,-70.0315,-81.6878
15:09:27.310,-70.344,-83.9378
15:09:27.333,-71.719,-85.3753
15:09:27.335,-71.344,-87.5628
15:09:27.350,-71.0628,-88.0628
15:09:27.356,-72.094,-89.8753
15:09:27.362,-72.2503,-92.4379
15:09:27.375,-75.219,-94.5004
15:09:27.380,-75.6253,-97.3754
15:09:27.390,-77.0628,-99.8754
15:09:27.400,-77.1878,-102.3129
15:09:27.428,-78.0628,-104.1254
15:09:27.430,-78.5003,-105.8754
15:09:27.433,-78.094,-107.1879
15:09:27.469,-79.1253,-110.3754
15:09:27.473,-77.1878,-108.8754
15:09:27.474,-74.5003,-106.3754
15:09:27.482,-68.5003,-97.9379
15:09:27.484,-60.0002,-86.2503
15:09:27.524,-49.3127,-68.2503
15:09:27.524,-37.3751,-49.8752
15:09:27.528,-26.9376,-29.7501
15:09:27.529,-16.4688,-10
15:09:27.531,-7.6563,8.1875
15:09:27.560,-1.0313,21.5626
15:09:27.563,4.5625,35.0001
15:09:27.565,8.6563,43.2502
15:09:27.570,10.75,50.2502
15:09:27.586,12.375,54.0002
15:09:27.592,13.1563,56.7502
15:09:27.600,13.0625,58.1252
15:09:27.610,12.9688,57.5002
15:09:27.621,12.375,56.6877
15:09:27.630,11.9688,54.4377
15:09:27.640,11.5625,52.5627
15:09:27.651,10.1563,49.6252
15:09:27.660,8.5938,48.2502
15:09:27.671,8.25,44.6252
15:09:27.680,6.625,41.7502
15:09:27.691,5.5,37.1876
15:09:27.702,3.5625,33.2501
15:09:27.711,1.1875,26.8126
15:09:27.720,-1.8125,22.3126
15:09:27.730,-3.4063,16.5626
15:09:27.743,-4.75,11.6875
15:09:27.751,-6.0313,7.625
15:09:27.760,-7,4.9375
15:09:27.771,-7.7813,1.9375
15:09:27.780,-8.7188,0.1875
15:09:27.791,-8.125,-1.125
15:09:27.801,-7.375,-2.5
15:09:27.820,-7.625,-3.625
15:09:27.826,-6.9688,-3.875
15:09:27.841,-7.4063,-4.375
15:09:27.844,-7.3438,-5.8125
15:09:27.852,-7.9375,-6.75
15:09:27.861,-8.9688,-9.125
15:09:27.870,-11.5313,-13.2501
15:09:27.881,-13.2188,-16.6251
15:09:27.892,-14.6251,-19.2501
15:09:27.900,-15.0938,-21.6876
15:09:27.911,-17.6876,-24.7501
15:09:27.921,-19.7188,-29.4376
15:09:27.930,-23.1251,-33.1876
15:09:27.942,-25.5626,-36.9376
15:09:27.950,-28.2814,-40.1877
15:09:27.961,-30.2501,-43.9377
15:09:27.971,-31.2189,-45.6877
15:09:27.981,-32.0626,-48.1877
15:09:27.990,-32.6876,-50.0002
15:09:28.002,-32.9064,-52.0002
15:09:28.012,-34.4064,-53.1252
15:09:28.020,-33.9064,-54.4377
15:09:28.031,-34.4689,-55.1252
15:09:28.040,-34.6564,-55.1877
15:09:28.051,-34.6876,-58.3127
15:09:28.061,-34.1564,-58.8752
15:09:28.071,-35.0626,-59.3752
15:09:28.080,-34.3126,-60.6877
15:09:28.092,-33.8126,-60.1252
15:09:28.101,-33.7501,-61.7502
15:09:28.131,-33.0939,-59.9377
15:09:28.132,-32.9064,-60.6877
15:09:28.135,-30.9064,-58.9377
15:09:28.142,-30.3126,-59.8127
15:09:28.168,-30.4064,-59.2502
15:09:28.171,-31.1876,-60.8752
15:09:28.173,-31.0939,-61.0627
15:09:28.204,-30.8126,-61.0002
15:09:28.208,-29.6564,-60.5627
15:09:28.209,-27.3439,-59.5002
15:09:28.211,-25.9063,-59.3752
15:09:28.245,-24.6251,-59.1252
15:09:28.245,-24.2813,-59.8752
15:09:28.248,-23.7813,-61.3127
15:09:28.281,-24.9376,-62.6877
15:09:28.285,-26.0313,-65.4378
15:09:28.286,-27.4376,-67.8128
15:09:28.290,-27.9689,-69.2503
15:09:28.294,-27.0939,-68.4378
15:09:28.304,-23.9376,-64.6252
15:09:28.312,-17.0001,-53.6252
15:09:28.321,-9.6563,-39.1251
15:09:28.331,-0.5625,-25.5626
15:09:28.341,8.0625,-9.625
15:09:28.353,15.8751,6.4375
15:09:28.361,23.8751,20.5001
15:09:28.371,28.9689,34.1251
15:09:28.383,34.4064,45.5002
15:09:28.391,37.1564,54.5002
15:09:28.401,38.9064,60.9377
15:09:28.413,38.5626,65.0628
15:09:28.421,38.3126,66.9378
15:09:28.431,36.7501,68.3128
15:09:28.441,35.9064,67.4378
15:09:28.451,33.0939,65.6878
15:09:28.462,30.5939,62.9377
15:09:28.471,27.7189,59.2502
15:09:28.482,24.6876,55.6252
15:09:28.491,20.8751,50.1877
15:09:28.501,16.9063,46.5002
15:09:28.512,12.7813,40.1252
15:09:28.522,8.0313,32.8751
15:09:28.532,3.9688,26.8126
15:09:28.541,0.5625,20.8126
15:09:28.551,-3.3438,13.9376
15:09:28.561,-6.5,7.625
15:09:28.571,-9.6563,0.375
15:09:28.582,-12.4688,-5.375
15:09:28.591,-13.8438,-9.8125
15:09:28.601,-15.1251,-15.0001
15:09:28.612,-16.9688,-18.8126
15:09:28.629,-18.0001,-21.8126
15:09:28.632,-19.3126,-24.9376
15:09:28.646,-20.4376,-26.6251
15:09:28.651,-21.5626,-28.5001
15:09:28.661,-22.0001,-30.6876
15:09:28.676,-22.3751,-32.2501
15:09:28.682,-23.0313,-34.1251
15:09:28.692,-23.7501,-36.5001
15:09:28.702,-24.4376,-39.2502
15:09:28.711,-25.2188,-40.5002
15:09:28.721,-26.2188,-43.5002
15:09:28.731,-27.1564,-45.7502
15:09:28.743,-28.1876,-49.0627
15:09:28.752,-29.4689,-50.9377
15:09:28.761,-31.1564,-53.5002
15:09:28.771,-31.8439,-57.3127
15:09:28.782,-33.7189,-59.4377
15:09:28.791,-34.6564,-63.2502
15:09:28.801,-36.3439,-64.8752
15:09:28.811,-36.7189,-68.6253
15:09:28.841,-38.9689,-69.5003
15:09:28.844,-39.0001,-72.3753
15:09:28.846,-41.5627,-74.7503
15:09:28.851,-42.9689,-78.5628
15:09:28.887,-44.0939,-79.6253
15:09:28.889,-44.4064,-80.6253
15:09:28.892,-44.6252,-82.6878
15:09:28.896,-46.1564,-84.0628
15:09:28.901,-45.5314,-85.5003
15:09:28.945,-46.3127,-85.8128
15:09:28.946,-46.2502,-85.8128
15:09:28.950,-46.6877,-85.8753
15:09:28.951,-46.2189,-86.0003
15:09:28.957,-45.1877,-84.1253
15:09:28.961,-44.1564,-84.1878
15:09:29.003,-42.6564,-81.8128
15:09:29.006,-42.1252,-81.7503
15:09:29.007,-41.9064,-80.3128
15:09:29.010,-40.8752,-80.0003
15:09:29.016,-40.2502,-78.9378
15:09:29.026,-39.6252,-79.0628
15:09:29.036,-39.7814,-79.0003
15:09:29.049,-38.7189,-78.5003
15:09:29.059,-39.2502,-78.1878
15:09:29.066,-38.5314,-79.0628
15:09:29.076,-39.0314,-79.1253
15:09:29.086,-38.6564,-79.6878
15:09:29.096,-37.9064,-77.5628
15:09:29.108,-33.9376,-71.3753
15:09:29.122,-26.9376,-62.1877
15:09:29.138,-18.8126,-46.8752
15:09:29.141,-8.5938,-29.3751
15:09:29.148,0.7813,-11.25
15:09:29.156,10.0313,5.6875
15:09:29.166,18.9063,22.8126
15:09:29.176,30.1251,48.8752
15:09:29.186,35.8751,61.4377
15:09:29.196,39.9377,72.7503
15:09:29.207,42.0314,79.1253
15:09:29.216,43.8127,84.6253
15:09:29.227,44.1252,86.7503
15:09:29.236,44.1564,87.8753
15:09:29.246,42.8439,87.1878
15:09:29.257,41.5939,85.8753
15:09:29.267,38.7189,82.1878
15:09:29.276,36.4376,79.5628
15:09:29.286,34.3126,74.3128
15:09:29.296,32.4376,71.7503
15:09:29.307,30.0001,66.5003
15:09:29.316,27.3439,61.3752
15:09:29.326,24.8751,56.3127
15:09:29.336,21.4688,50.3752
15:09:29.347,17.7501,43.2502
15:09:29.357,14.9376,36.5001
15:09:29.366,11.4063,29.8751
15:09:29.376,8.5938,22.3751
15:09:29.386,5.2188,16.3126
15:09:29.397,1.4375,10.9375
15:09:29.406,0.1875,5.75
15:09:29.416,-2.0938,1.8125
15:09:29.431,-3.8438,-1.3125
15:09:29.436,-3.1875,-3.25
15:09:29.446,-3.0625,-5.3125
15:09:29.456,-4.1875,-6.4375
15:09:29.466,-5.5,-9.375
15:09:29.476,-6.8125,-13.1251
15:09:29.487,-8.5313,-16.3751
15:09:29.496,-9.6875,-19.5001
15:09:29.507,-10.75,-22.5001
15:09:29.516,-12.1875,-26.2501
15:09:29.526,-14.3751,-30.1251
15:09:29.541,-17.0001,-34.5626
15:09:29.546,-18.8126,-37.8126
15:09:29.581,-20.7188,-42.6877
15:09:29.585,-23.0313,-47.0627
15:09:29.585,-25.0626,-51.0002
15:09:29.587,-26.8439,-55.4377
15:09:29.619,-28.0314,-57.6877
15:09:29.622,-29.6564,-62.2502
15:09:29.624,-31.6564,-64.6877
15:09:29.629,-33.1876,-69.0003
15:09:29.638,-34.3126,-71.0628
15:09:29.669,-36.8126,-74.8753
15:09:29.670,-37.2814,-78.0628
15:09:29.673,-39.0314,-79.2503
15:09:29.678,-38.9689,-82.5003
15:09:29.706,-39.9377,-82.6253
15:09:29.711,-39.6252,-84.3753
15:09:29.712,-39.6877,-83.9378
15:09:29.719,-39.3439,-84.9378
15:09:29.726,-38.6876,-84.9378
15:09:29.736,-40.6877,-85.7503
15:09:29.746,-41.2814,-85.4378
15:09:29.759,-40.9064,-85.7503
15:09:29.766,-40.2502,-84.4378
15:09:29.777,-39.1564,-83.9378
15:09:29.786,-38.1876,-82.5628
15:09:29.796,-38.7501,-82.3128
15:09:29.806,-38.4376,-83.3128
15:09:29.816,-38.4064,-82.5628
15:09:29.826,-37.7814,-82.6253
15:09:29.838,-37.2189,-81.8128
15:09:29.846,-33.6876,-77.4378
15:09:29.856,-28.8439,-69.1253
15:09:29.866,-20.4688,-54.5627
15:09:29.878,-9.8438,-37.8126
15:09:29.886,1.2813,-17.7501
15:09:29.896,11.6875,2.375
15:09:29.906,21.8126,20.6876
15:09:29.925,29.9064,38.8126
15:09:29.941,38.8439,55.0627
15:09:29.944,44.2502,70.4378
15:09:29.959,49.9689,83.5003
15:09:29.963,51.7189,93.3129
15:09:29.971,54.6565,100.6254
15:09:29.982,54.9377,104.8129
15:09:29.991,55.4065,107.7504
15:09:30.001,55.0315,109.6879
15:09:30.011,55.0315,110.9379
15:09:30.023,53.6252,111.1879
15:09:30.032,53.4065,110.4379
15:09:30.042,52.2502,109.7504
15:09:30.051,51.7502,109.0629
15:09:30.061,49.7189,106.8129
15:09:30.071,48.2814,104.6879
15:09:30.081,46.1564,100.1254
15:09:30.091,41.4064,93.8129
15:09:30.120,39.2814,88.6253
15:09:30.123,36.7189,83.4378
15:09:30.125,33.9376,79.3753
15:09:30.131,31.7814,75.3753
15:09:30.141,30.4376,71.7503
15:09:30.151,29.0314,68.8128
15:09:30.163,28.6251,67.3753
15:09:30.171,28.1251,65.3753
15:09:30.187,27.1251,64.3752
15:09:30.192,26.4064,63.1877
15:09:30.201,26.1876,61.7502
15:09:30.211,24.8126,59.6877
15:09:30.223,22.7813,56.5002
15:09:30.232,21.4688,52.7502
15:09:30.242,19.4063,49.5627
15:09:30.254,17.4376,45.3752
15:09:30.261,14.5001,41.0002
15:09:30.271,12.5625,35.8751
15:09:30.282,10.0313,30.0626
15:09:30.291,6.3438,25.1876
15:09:30.331,3.875,19.3751
15:09:30.332,1.9063,13.5001
15:09:30.334,-1.5938,7.9375
15:09:30.336,-4.7813,2.375
15:09:30.345,-7.0625,-4.3125
15:09:30.375,-9.9063,-9.9375
15:09:30.378,-12.0313,-15.4376
15:09:30.382,-14.7813,-21.9376
15:09:30.383,-17.7188,-26.8126
15:09:30.414,-20.1251,-32.5626
15:09:30.416,-23.0001,-38.7501
15:09:30.492,-25.8126,-43.8127
15:09:30.492,-28.4376,-50.0002
15:09:30.492,-30.2814,-55.2502
15:09:30.492,-33.5939,-60.0002
15:09:30.505,-35.8751,-64.1877
15:09:30.508,-38.5314,-69.5628
15:09:30.510,-39.9377,-75.1878
15:09:30.510,-41.8752,-77.9378
15:09:30.510,-43.1877,-81.0003
15:09:30.519,-44.1564,-84.0628
15:09:30.530,-44.4064,-86.2503
15:09:30.539,-45.0627,-88.6253
15:09:30.548,-46.0939,-90.5628
15:09:30.562,-46.9377,-93.8129
15:09:30.567,-48.2814,-94.5004
15:09:30.577,-49.0939,-96.5629
15:09:30.587,-49.5314,-98.1879
15:09:30.597,-49.0314,-99.0004
15:09:30.608,-48.1877,-99.1254
15:09:30.617,-45.3752,-95.1879
15:09:30.626,-35.5626,-81.4378
15:09:30.638,-24.6563,-63.1252
15:09:30.647,-12.3125,-40.0002
15:09:30.657,0.3125,-16.8751
15:09:30.668,11.25,3.625
15:09:30.678,30.6251,43.7502
15:09:30.688,39.6252,61.3752
15:09:30.700,45.5939,77.3753
15:09:30.708,51.5627,89.0003
15:09:30.718,53.6877,98.1254
15:09:30.727,56.344,104.5004
15:09:30.737,57.3752,109.9379
15:09:30.747,57.7502,115.0629
15:09:30.757,58.2815,116.7504
15:09:30.767,58.5627,119.813
15:09:30.778,58.0627,121.2505
15:09:30.790,58.4065,122.3755
15:09:30.798,57.5002,123.8755
15:09:30.807,57.7502,124.063
15:09:30.818,56.8127,124.1255
15:09:30.828,55.5002,122.813
15:09:30.838,53.3752,119.6255
15:09:30.848,51.3752,116.9379
15:09:30.858,48.9064,113.2504
15:09:30.868,47.0939,108.0629
15:09:30.879,44.9689,105.3129
15:09:30.888,42.8752,100.0629
15:09:30.898,42.0627,97.4379
15:09:30.907,41.6252,94.9379
15:09:30.917,40.4689,93.7504
15:09:30.927,40.1564,92.6879
15:09:30.937,40.3127,91.5629
15:09:30.947,40.6877,91.2504
15:09:30.957,41.3439,91.1879
15:09:30.970,41.9377,90.6878
15:09:30.978,42.0939,89.2503
15:09:30.987,41.7189,87.8128
15:09:30.998,40.5314,84.8753
15:09:31.007,38.9689,81.5628
15:09:31.020,37.7501,77.2503
15:09:31.028,35.3126,73.4378
15:09:31.037,34.5314,69.3753
15:09:31.059,33.0626,64.5002
15:09:31.062,31.4689,59.1877
15:09:31.100,28.5001,53.5627
15:09:31.102,25.3126,48.0627
15:09:31.105,22.4063,41.2502
15:09:31.107,19.1251,34.6251
15:09:31.110,15.0938,28.1251
15:09:31.119,11.625,21.0626
15:09:31.149,7.9375,13.1251
15:09:31.152,4.4375,7.625
15:09:31.156,1.25,0.8125
15:09:31.158,-1.7813,-4.625
15:09:31.186,-4.8125,-10.9375
15:09:31.188,-8.0625,-16.6876
15:09:31.191,-10.125,-23.3126
15:09:31.198,-13.1876,-28.7501
15:09:31.226,-15.4688,-34.0626
15:09:31.242,-17.6251,-39.5627
15:09:31.261,-21.2813,-43.6877
15:09:31.262,-24.0001,-49.6877
15:09:31.274,-26.1563,-54.7502
15:09:31.276,-28.3126,-59.1877
15:09:31.290,-30.4689,-63.6877
15:09:31.291,-32.4064,-68.4378
15:09:31.292,-34.2814,-72.5003
15:09:31.299,-37.0314,-76.3128
15:09:31.312,-40.3439,-81.5003
15:09:31.318,-41.6877,-85.7503
15:09:31.329,-45.2814,-89.8128
15:09:31.337,-47.3439,-94.8754
15:09:31.348,-50.7814,-99.5004
15:09:31.357,-52.7502,-103.8754
15:09:31.367,-55.3127,-106.6879
15:09:31.400,-56.3752,-110.1879
15:09:31.403,-56.5002,-110.2504
15:09:31.405,-53.5627,-108.0004
15:09:31.410,-46.9689,-99.8754
15:09:31.418,-36.3751,-82.1253
15:09:31.427,-22.6876,-60.5627
15:09:31.437,-9.3125,-36.2501
15:09:31.447,4,-13.8751
15:09:31.458,12.8438,5.8125
15:09:31.467,20.9376,22.0001
15:09:31.478,27.6876,36.8126
15:09:31.489,34.0001,49.6877
15:09:31.498,37.3751,60.2502
15:09:31.509,40.1877,69.2503
15:09:31.517,43.5002,76.0003
15:09:31.527,44.8127,82.1878
15:09:31.537,46.5314,85.3128
15:09:31.547,48.2814,88.6878
15:09:31.557,47.1252,90.7504
15:09:31.567,48.0627,92.5004
15:09:31.577,48.2189,94.9379
15:09:31.587,49.1877,96.1254
15:09:31.599,48.3439,97.0629
15:09:31.607,48.2502,96.4379
15:09:31.618,47.0314,94.8129
15:09:31.627,45.4377,93.0629
15:09:31.637,43.2814,90.7504
15:09:31.647,41.6564,86.0628
15:09:31.659,39.3752,82.3128
15:09:31.669,38.1876,79.9378
15:09:31.678,35.5314,77.8753
15:09:31.690,35.0626,75.4378
15:09:31.698,34.7814,73.3128
15:09:31.708,33.3126,73.0628
15:09:31.718,33.0939,72.8753
15:09:31.727,33.6251,72.4378
15:09:31.737,33.7189,73.0628
15:09:31.752,34.0626,73.1253
15:09:31.757,33.0939,73.0628
15:09:31.793,32.1251,72.0628
15:09:31.795,31.2501,70.5628
15:09:31.812,30.3439,68.5003
15:09:31.883,29.4689,66.6253
15:09:31.885,28.2189,65.0627
15:09:31.887,27.0001,63.1252
15:09:31.888,25.3751,61.1252
15:09:31.894,24.3438,56.5627
15:09:31.894,21.6876,53.5627
15:09:31.894,20.0626,50.3127
15:09:31.924,18.0313,45.6252
15:09:31.927,16.0938,41.0627
15:09:31.929,13.8438,37.1876
15:09:31.933,11.5313,33.0626
15:09:31.942,9.2813,28.2501
15:09:31.952,7.5,23.0001
15:09:31.962,5.5938,19.3751
15:09:31.972,2.7813,15.5001
15:09:31.984,0.9688,11.5625
15:09:31.992,-1.5313,5.75
15:09:32.002,-3.9063,0.75
15:09:32.012,-6.1875,-3.375
15:09:32.022,-8.8438,-8.0625
15:09:32.032,-11.125,-13.8751
15:09:32.042,-13.9688,-17.8751
15:09:32.052,-16.1563,-23.4376
15:09:32.062,-28.6876,-47.1877
15:09:32.072,-31.7501,-51.6877
15:09:32.083,-33.6251,-56.6877
15:09:32.092,-35.2814,-60.7502
15:09:32.102,-38.2189,-66.0628
15:09:32.112,-39.8752,-70.2503
15:09:32.122,-41.9064,-74.4378
15:09:32.132,-44.1877,-77.8753
15:09:32.145,-46.2814,-82.1878
15:09:32.153,-47.3439,-86.7503
15:09:32.162,-49.1564,-88.8753
15:09:32.175,-48.3439,-90.7504
15:09:32.184,-44.5314,-86.9378
15:09:32.192,-39.6564,-78.8128
15:09:32.204,-29.4376,-64.7503
15:09:32.213,-20.3751,-47.1252
15:09:32.224,-10.1563,-29.5626
15:09:32.234,-1.7813,-12.25
15:09:32.243,6.75,3.5625
15:09:32.252,12.9063,18.5001
15:09:32.262,17.5626,29.2501
15:09:32.272,20.4688,38.5001
15:09:32.282,22.9063,44.1252
15:09:32.294,24.2501,48.5002
15:09:32.305,23.8126,52.8127
15:09:32.313,24.0313,52.6877
15:09:32.324,23.3126,54.1877
15:09:32.332,23.1876,53.5627
15:09:32.342,22.3751,54.6252
15:09:32.352,22.2188,53.6252
15:09:32.362,20.9376,54.1877
15:09:32.372,20.4376,51.8752
15:09:32.382,19.0938,52.0627
15:09:32.392,19.0938,49.7502
15:09:32.402,17.5001,47.3127
15:09:32.414,15.0938,44.3752
15:09:32.423,14.0001,40.1877
15:09:32.435,13.8438,38.1876
15:09:32.445,13.1875,35.8751
15:09:32.452,11.9688,33.4376
15:09:32.464,11.6875,33.0626
15:09:32.472,11.7813,32.3126
15:09:32.482,12.8438,32.3751
15:09:32.494,13.1563,32.1251
15:09:32.524,13.1563,33.4376
15:09:32.527,13.6251,33.6876
15:09:32.529,13.3438,32.8751
15:09:32.535,12.7188,32.6876
15:09:32.565,12.2813,32.3126
15:09:32.567,11.6563,30.8126
15:09:32.602,11,29.8126
15:09:32.606,9.9063,28.5626
15:09:32.644,9.4063,26.8126
15:09:32.647,7.0313,23.5626
15:09:32.647,4.0625,19.6876
15:09:32.684,3.5,20.3126
15:09:32.686,2.7813,17.0001
15:09:32.703,2.6563,15.3126
15:09:32.703,2.5625,16.0626
15:09:32.703,3.25,16.7501
15:09:32.704,5.0313,16.4376
15:09:32.706,4.375,16.0001
15:09:32.714,1.9688,12.75
15:09:32.722,3.2188,12.625
15:09:32.732,5.4688,12.1875
15:09:32.742,7.4688,12.8125
15:09:32.754,6.5625,11.25
15:09:32.762,5.875,9.625
15:09:32.772,5.625,9.3125
15:09:32.784,6.5625,10
15:09:32.793,12.1875,12.25
15:09:32.802,16.6876,14.4376
15:09:32.813,29.4689,26.2501
15:09:32.824,45.3127,31.6251
15:09:32.833,54.4065,35.6251
15:09:32.844,61.1252,39.6877
15:09:32.853,57.719,27.6876
15:09:32.864,55.2502,22.3126
15:09:32.874,52.4689,19.2501
15:09:32.882,50.8752,15.0001
15:09:32.893,49.0627,9.875
15:09:32.904,43.6564,3.8125
15:09:32.913,39.1251,-1.8125
15:09:32.922,34.2501,-7.6875
15:09:32.934,31.7814,-11.875
15:09:32.943,30.2501,-14.0626
15:09:32.954,30.7189,-11.75
15:09:32.964,34.4064,-5.8125
15:09:32.973,39.4689,4.1875
15:09:32.983,46.7189,18.7501
15:09:32.995,54.9377,35.5001
15:09:33.003,65.2815,52.8752
15:09:33.015,77.9378,70.3753
15:09:33.024,89.8753,89.0003
15:09:33.034,101.3129,108.3129
15:09:33.044,112.1567,122.3755
15:09:33.054,119.063,133.438
15:09:33.063,124.0942,141.1255
15:09:33.073,127.2505,146.8756
15:09:33.084,128.3442,149.7506
15:09:33.094,127.5005,150.3131
15:09:33.109,127.9692,150.1256
15:09:33.130,125.5942,148.5631
15:09:33.132,124.0005,147.6256
15:09:33.142,122.8755,145.188
15:09:33.151,121.2505,142.313
15:09:33.163,119.9692,141.5005
15:09:33.172,118.9692,137.7505
15:09:33.179,116.3442,132.7505
15:09:33.195,113.4692,127.563
15:09:33.211,109.8442,121.1255
15:09:33.213,105.8129,115.0004
15:09:33.241,101.5629,107.8129
15:09:33.244,96.9066,99.8754
15:09:33.246,92.7191,94.5629
15:09:33.249,90.5941,90.1253
15:09:33.281,86.6253,85.4378
15:09:33.285,84.4378,82.3753
15:09:33.287,84.0941,79.6878
15:09:33.289,83.1566,78.7503
15:09:33.323,83.6566,78.1878
15:09:33.326,84.1878,77.6878
15:09:33.329,81.2191,75.5003
15:09:33.366,79.5003,72.9378
15:09:33.366,77.4065,68.5628
15:09:33.369,71.8128,64.3752
15:09:33.376,67.1878,58.0627
15:09:33.376,64.6877,55.4377
15:09:33.383,60.8127,49.5002
15:09:33.389,55.4377,43.6877
15:09:33.398,52.2189,38.3126
15:09:33.409,47.4377,32.6876
15:09:33.419,44.3439,27.6251
15:09:33.431,40.3127,23.0626
15:09:33.439,38.2189,19.6876
15:09:33.448,36.0939,13.6876
15:09:33.458,32.0939,9
15:09:33.469,29.0314,5
15:09:33.478,27.3439,0
15:09:33.488,24.5313,-3.8125
15:09:33.498,23.3438,-7.625
15:09:33.508,20.1876,-11.5
15:09:33.519,18.0001,-15.7501
15:09:33.528,16.5001,-19.3751
15:09:33.538,13.8751,-22.7501
15:09:33.549,12.0625,-26.7501
15:09:33.560,9.5313,-29.9376
15:09:33.570,6.9063,-33.5626
15:09:33.582,4.2188,-37.5001
15:09:33.588,0.25,-40.8127
15:09:33.598,-1.9688,-44.1252
15:09:33.609,-5.5938,-49.0002
15:09:33.618,-9.6875,-53.1252
15:09:33.628,-13.5001,-55.8127
15:09:33.638,-15.5938,-58.9377
15:09:33.648,-17.4688,-61.1877
15:09:33.659,-19.2188,-63.4377
15:09:33.669,-20.7501,-65.5002
15:09:33.679,-21.6563,-67.1253
15:09:33.689,-23.0313,-69.0003
15:09:33.699,-23.0626,-70.0628
15:09:33.708,-24.5626,-72.6878
15:09:33.718,-25.6876,-74.6878
15:09:33.729,-27.9689,-77.1253
15:09:33.738,-29.3126,-79.1878
15:09:33.748,-30.0001,-82.1253
15:09:33.760,-31.8439,-83.2503
15:09:33.769,-31.8126,-85.4378
15:09:33.779,-30.5314,-81.6253
15:09:33.789,-25.0001,-73.9378
15:09:33.799,-16.5313,-58.9377
15:09:33.811,-5.0625,-39.5627
15:09:33.820,7.9688,-17.8126
15:09:33.828,18.0938,2.125
15:09:33.839,29.2814,19.8751
15:09:33.849,36.5626,36.9376
15:09:33.859,44.4064,52.1877
15:09:33.869,48.3127,64.5627
15:09:33.879,51.4064,73.4378
15:09:33.889,51.4689,80.4378
15:09:33.899,52.7502,84.8128
15:09:33.911,51.7189,88.0628
15:09:33.918,50.6252,89.2503
15:09:33.929,48.4064,89.3128
15:09:33.995,49.0314,90.1878
15:09:34.026,48.6564,91.1879
15:09:34.042,48.0314,91.6254
15:09:34.045,47.3127,91.6254
15:09:34.076,47.5314,91.7504
15:09:34.076,47.6564,90.9379
15:09:34.078,47.5002,89.6878
15:09:34.081,45.6252,86.9378
15:09:34.111,43.5939,83.9378
15:09:34.112,41.1564,80.1253
15:09:34.113,39.6564,74.9378
15:09:34.118,38.8751,71.8753
15:09:34.121,39.0939,69.0003
15:09:34.125,37.3439,65.2502
15:09:34.137,36.3751,63.3127
15:09:34.144,36.3126,59.5627
15:09:34.154,35.5939,58.1252
15:09:34.166,34.7501,57.1252
15:09:34.174,34.0314,54.3127
15:09:34.184,32.9064,53.7502
15:09:34.193,31.3126,51.8752
15:09:34.204,30.6564,49.5627
15:09:34.214,23.2813,36.6251
15:09:34.224,20.4688,31.9376
15:09:34.233,18.5626,27.9376
15:09:34.244,16.0938,24.0626
15:09:34.255,13.8751,19.0626
15:09:34.266,11.2188,14.6251
15:09:34.274,8.0625,10.25
15:09:34.284,6.2813,5.3125
15:09:34.293,4.2188,1.4375
15:09:34.304,2.75,-2.1875
15:09:34.314,1.5625,-5.6875
15:09:34.324,-0.5313,-8.625
15:09:34.334,-2.1875,-12
15:09:34.345,-4.4375,-16.6876
15:09:34.356,-6,-20.6876
15:09:34.364,-8.0625,-23.9376
15:09:34.374,-10.2188,-27.1876
15:09:34.383,-12.7188,-31.1251
15:09:34.394,-13.5313,-35.1251
15:09:34.403,-15.2501,-37.8751
15:09:34.414,-15.7813,-40.5002
15:09:34.424,-17.4376,-42.5002
15:09:34.434,-19.1563,-45.0627
15:09:34.444,-19.1251,-47.6877
15:09:34.462,-21.5313,-50.3127
15:09:34.466,-22.4376,-53.1252
15:09:34.474,-24.2813,-55.5627
15:09:34.490,-25.0938,-57.6252
15:09:34.499,-26.1251,-59.7502
15:09:34.504,-26.7501,-62.1252
15:09:34.514,-27.4064,-64.3127
15:09:34.523,-28.5001,-65.3128
15:09:34.534,-29.9064,-68.9378
15:09:34.544,-30.9689,-70.1878
15:09:34.554,-33.0314,-74.2503
15:09:34.563,-34.8439,-76.3128
15:09:34.574,-36.9376,-80.7503
15:09:34.584,-38.9376,-82.6253
15:09:34.594,-41.2502,-86.5628
15:09:34.604,-42.1564,-87.9378
15:09:34.614,-42.3127,-89.2503
15:09:34.624,-39.1564,-87.0003
15:09:34.633,-33.9376,-79.7503
15:09:34.643,-24.7188,-65.7503
15:09:34.664,-13.5626,-46.9377
15:09:34.668,-4.0313,-28.1251
15:09:34.682,5.7813,-10.6875
15:09:34.691,13.6563,6.5625
15:09:34.714,21.1563,21.6251
15:09:34.715,27.7501,36.5626
15:09:34.716,32.9689,49.7502
15:09:34.749,37.0626,58.6877
15:09:34.752,38.9376,65.3752
15:09:34.754,40.5627,70.5003
15:09:34.759,40.3752,72.6253
15:09:34.764,40.7502,74.7503
15:09:34.799,39.6877,75.7503
15:09:34.801,38.2189,74.0003
15:09:34.804,36.9376,74.1253
15:09:34.807,36.6876,72.7503
15:09:34.830,35.1564,72.9378
15:09:34.831,35.1251,70.3128
15:09:34.834,32.7501,69.9378
15:09:34.844,31.7814,66.1878
15:09:34.854,29.6876,63.6877
15:09:34.865,27.7814,60.3127
15:09:34.874,25.9376,55.1877
15:09:34.890,23.0938,50.5627
15:09:34.894,20.6251,46.2502
15:09:34.904,18.4688,41.4377
15:09:34.916,15.8751,35.7501
15:09:34.926,14.5938,33.6251
15:09:34.934,13.5313,30.9376
15:09:34.944,13.5001,29.0001
15:09:34.954,14.2501,28.4376
15:09:34.964,15.0626,27.8126
15:09:34.974,14.4376,26.5626
15:09:34.985,14.8438,26.4376
15:09:34.994,14.5938,26.3126
15:09:35.005,15.2188,25.9376
15:09:35.014,14.5626,23.9376
15:09:35.024,13.6251,21.6251
15:09:35.035,12.3125,20.9376
15:09:35.045,12.25,17.6251
15:09:35.056,9.625,14.5001
15:09:35.065,7.4063,9.75
15:09:35.073,5.0313,5.5
15:09:35.083,1.4375,2.25
15:09:35.094,-0.125,-2.375
15:09:35.104,-3.2188,-7.8125
15:09:35.114,-6.0625,-12.0625
15:09:35.123,-8,-15.7501
15:09:35.135,-10.5313,-21.0001
15:09:35.144,-13.0938,-25.5626
15:09:35.155,-15.7501,-28.2501
15:09:35.164,-17.4063,-32.3126
15:09:35.175,-19.1251,-37.1251
15:09:35.185,-20.6563,-40.8127
15:09:35.196,-23.0938,-42.5002
15:09:35.204,-23.6876,-46.4377
15:09:35.215,-25.5001,-50.2502
15:09:35.240,-27.3126,-51.8752
15:09:35.242,-27.3439,-54.0627
15:09:35.245,-28.9689,-57.1252
15:09:35.255,-29.7501,-58.8127
15:09:35.263,-30.5939,-61.1252
15:09:35.275,-31.7814,-63.8752
15:09:35.284,-33.0314,-66.2503
15:09:35.296,-34.6251,-67.6878
15:09:35.304,-35.0314,-70.3753
15:09:35.320,-35.9376,-70.5003
15:09:35.328,-36.0626,-73.6878
15:09:35.335,-38.0314,-75.1878
15:09:35.350,-38.4376,-77.5003
15:09:35.357,-40.0939,-78.9378
15:09:35.365,-41.3127,-81.8753
15:09:35.375,-41.4064,-83.6253
15:09:35.385,-43.1252,-86.0003
15:09:35.394,-42.9377,-86.5628
15:09:35.406,-41.6252,-84.2503
15:09:35.413,-37.6251,-79.7503
15:09:35.444,-30.9689,-67.6878
15:09:35.446,-21.8751,-51.8127
15:09:35.448,-11.25,-34.8751
15:09:35.456,-2.25,-18.0626
15:09:35.492,6.5313,-1.6875
15:09:35.496,13.5313,13.125
15:09:35.496,19.7813,28.0626
15:09:35.499,23.6251,38.1876
15:09:35.505,26.4689,47.3127
15:09:35.548,28.1251,52.3127
15:09:35.550,28.6564,58.0002
15:09:35.553,28.9689,60.5002
15:09:35.555,28.8751,60.3127
15:09:35.560,29.4376,61.0627
15:09:35.586,27.2189,60.1877
15:09:35.589,26.6876,58.3127
15:09:35.591,24.8751,57.1252
15:09:35.596,24.1563,55.3752
15:09:35.604,22.3438,53.5627
15:09:35.615,22.0938,50.8127
15:09:35.625,20.4063,47.6877
15:09:35.640,18.6251,44.3752
15:09:35.646,15.9063,40.2502
15:09:35.654,13.0938,34.5001
15:09:35.665,9.4063,28.8126
15:09:35.675,6.4375,24.5626
15:09:35.685,4.1875,20.1251
15:09:35.694,2.7813,16.7501
15:09:35.705,2.625,15.0001
15:09:35.715,2.0625,13.8126
15:09:35.724,2.0625,13.0625
15:09:35.735,2.9688,13.0625
15:09:35.745,3.5,13.3751
15:09:35.755,3.7188,13.1876
15:09:35.775,4.0313,13.6876
15:09:35.782,2.5,11.5
15:09:35.796,0.7813,11.25
15:09:35.799,-0.125,9.5
15:09:35.807,-1.25,8.0625
15:09:35.817,-2.5313,4.875
15:09:35.825,-4.125,1.9375
15:09:35.835,-5.375,-1.0625
15:09:35.845,-7.375,-2.5
15:09:35.855,-8.2813,-6.6875
15:09:35.865,-9.5,-10
15:09:35.877,-11.4375,-13.7501
15:09:35.885,-13.0938,-16.8751
15:09:35.895,-14.5938,-20.4376
15:09:35.905,-17.4376,-25.3751
15:09:35.915,-19.3751,-27.3126
15:09:35.925,-20.3438,-31.9376
15:09:35.935,-21.4688,-35.0626
15:09:35.945,-23.1251,-38.6251
15:09:35.955,-24.9688,-41.6252
15:09:35.965,-25.5313,-44.2502
15:09:35.976,-27.1251,-48.1877
15:09:35.985,-29.1251,-50.8127
15:09:35.995,-29.7501,-53.3127
15:09:36.005,-31.4376,-56.4377
15:09:36.015,-32.3439,-59.1877
15:09:36.027,-33.2814,-61.3127
15:09:36.035,-34.3439,-64.7502
15:09:36.045,-35.1876,-65.8128
15:09:36.055,-35.4689,-67.5003
15:09:36.065,-36.3439,-70.8753
15:09:36.078,-37.1876,-72.5003
15:09:36.085,-37.9064,-74.8753
15:09:36.114,-39.2814,-77.3753
15:09:36.118,-40.5627,-79.3753
15:09:36.119,-40.7814,-80.9378
15:09:36.125,-41.1564,-82.1878
15:09:36.160,-41.1252,-82.4378
15:09:36.162,-37.5314,-77.6878
15:09:36.163,-31.6251,-69.4378
15:09:36.165,-22.1876,-54.8127
15:09:36.196,-12.375,-37.1251
15:09:36.199,-2.1563,-19.3126
15:09:36.201,6.875,-2.125
15:09:36.228,15.4063,14.8751
15:09:36.229,22.2188,30.2501
15:09:36.231,28.3439,43.3127
15:09:36.238,31.3439,54.5627
15:09:36.264,34.5626,60.5002
15:09:36.266,35.1251,66.6253
15:09:36.269,36.2189,69.1253
15:09:36.279,35.7814,71.8128
15:09:36.285,35.7814,71.0628
15:09:36.296,34.5314,71.5003
15:09:36.305,33.2189,69.8753
15:09:36.317,31.6251,69.1253
15:09:36.325,30.7501,67.3128
15:09:36.335,28.8439,66.4378
15:09:36.345,28.2189,63.2502
15:09:36.355,26.2814,61.1877
15:09:36.366,25.4688,58.3752
15:09:36.376,23.1251,53.8127
15:09:36.391,20.1563,49.3127
15:09:36.395,18.5313,45.3127
15:09:36.406,15.8438,40.5627
15:09:36.415,13.3751,36.5626
15:09:36.425,11.7188,32.3751
15:09:36.435,10.5625,29.5001
15:09:36.445,10.875,27.8126
15:09:36.455,10.875,27.2501
15:09:36.467,10.9375,26.5626
15:09:36.475,11.9063,27.7501
15:09:36.485,11.8125,26.8751
15:09:36.495,12.0625,26.5001
15:09:36.520,11.7813,26.2501
15:09:36.522,11.3438,25.4376
15:09:36.526,10.5938,24.3126
15:09:36.535,9.6563,21.8126
15:09:36.545,8.5313,19.4376
15:09:36.555,7.6563,17.9376
15:09:36.565,6.7188,16.5001
15:09:36.575,5.8125,12.75
15:09:36.586,4.5,9.1875
15:09:36.597,2.7813,5.9375
15:09:36.605,0.6563,3.125
15:09:36.615,-1.125,-1.125
15:09:36.635,-2.5313,-5
15:09:36.639,-4.1875,-9.0625
15:09:36.654,-6.7813,-12.1875
15:09:36.670,-8.0938,-16.0001
15:09:36.672,-9.125,-19.3126
15:09:36.676,-10.9688,-23.3751
15:09:36.685,-12.1875,-27.5626
15:09:36.695,-13.7501,-30.2501
15:09:36.706,-16.0001,-33.6876
15:09:36.715,-17.9688,-36.8751
15:09:36.725,-19.3438,-40.5627
15:09:36.735,-21.7813,-45.1252
15:09:36.746,-23.2188,-47.8752
15:09:36.755,-23.9063,-48.5627
15:09:36.770,-23.4063,-51.3127
15:09:36.775,-24.2188,-53.6252
15:09:36.785,-25.2501,-54.3752
15:09:36.795,-25.9063,-58.0002
15:09:36.805,-26.8439,-60.6877
15:09:36.815,-28.4376,-62.6877
15:09:36.825,-29.2814,-64.7502
15:09:36.836,-30.6564,-67.5003
15:09:36.845,-31.8751,-68.9378
15:09:36.855,-33.2501,-72.5003
15:09:36.865,-34.3751,-73.6253
15:09:36.875,-35.0626,-76.4378
15:09:36.887,-35.9064,-77.8753
15:09:36.895,-37.9376,-81.5003
15:09:36.905,-40.0314,-83.1253
15:09:36.939,-41.6877,-86.6878
15:09:36.942,-42.9377,-88.5003
15:09:36.944,-43.4689,-88.5003
15:09:36.946,-40.5314,-85.0628
15:09:36.982,-34.3439,-74.9378
15:09:36.984,-25.1251,-61.0002
15:09:36.987,-14.8126,-41.1877
15:09:36.990,-3.6875,-23.3751
15:09:36.995,6.7813,-3.75
15:09:37.035,14.6563,13.1876
15:09:37.039,22.5001,29.5626
15:09:37.039,27.7501,43.2502
15:09:37.042,32.1876,54.6877
15:09:37.045,34.3751,62.6877
15:09:37.099,35.5001,67.8753
15:09:37.115,36.2814,72.3128
15:09:37.128,36.9689,74.1253
15:09:37.132,37.2501,76.0628
15:09:37.135,36.9064,75.1878
15:09:37.135,36.5314,75.7503
15:09:37.141,35.9376,73.7503
15:09:37.152,35.8126,74.0628
15:09:37.160,34.9376,72.0628
15:09:37.170,33.5626,70.8128
15:09:37.180,32.1251,67.5003
15:09:37.195,30.6876,64.6877
15:09:37.205,28.6564,61.6877
15:09:37.215,26.7501,57.0627
15:09:37.225,24.0313,52.3752
15:09:37.235,22.0938,47.8752
15:09:37.245,20.4063,43.2502
15:09:37.256,20.0938,40.4377
15:09:37.265,20.8438,38.2501
15:09:37.275,18.5938,35.8126
15:09:37.285,19.3126,34.1876
15:09:37.296,18.2188,32.3751
15:09:37.307,17.6563,30.1251
15:09:37.315,18.1876,30.0001
15:09:37.325,16.0626,26.9376
15:09:37.335,16.6563,25.6251
15:09:37.345,16.0001,23.8126
15:09:37.357,13.2188,19.4376
15:09:37.365,11.8125,16.9376
15:09:37.375,10.3438,12.9375
15:09:37.385,8.375,9
15:09:37.396,5.0938,4.375
15:09:37.405,1.8125,0.625
15:09:37.418,-0.75,-4.6875
15:09:37.425,-2.5938,-9.375
15:09:37.435,-5.125,-13.7501
15:09:37.445,-7.4375,-17.6251
15:09:37.455,-9.5625,-20.5626
15:09:37.466,-11.7188,-26.6251
15:09:37.478,-13.8438,-30.8126
15:09:37.485,-17.1876,-34.3126
15:09:37.495,-17.9063,-38.4376
15:09:37.506,-19.8751,-42.2502
15:09:37.516,-22.7813,-46.6252
15:09:37.529,-23.7501,-48.8127
15:09:37.535,-24.7501,-50.8752
15:09:37.545,-25.9376,-54.6877
15:09:37.555,-27.6564,-58.6252
15:09:37.567,-28.7189,-60.1877
15:09:37.575,-29.0939,-62.3752
15:09:37.585,-30.6251,-65.0627
15:09:37.595,-31.1564,-67.3753
15:09:37.605,-31.4064,-69.0628
15:09:37.626,-32.3751,-70.1253
15:09:37.630,-32.5314,-72.5628
15:09:37.665,-31.8439,-73.5628
15:09:37.665,-33.2189,-74.4378
15:09:37.668,-33.9064,-77.1253
15:09:37.671,-34.4689,-79.4378
15:09:37.676,-36.3439,-81.5628
15:09:37.704,-37.3126,-83.6878
15:09:37.706,-38.4376,-85.8128
15:09:37.707,-39.4064,-88.9378
15:09:37.752,-40.6252,-90.6254
15:09:37.753,-41.6877,-92.5004
15:09:37.755,-42.1877,-95.1254
15:09:37.762,-43.6564,-95.8129
15:09:37.763,-43.8439,-97.5004
15:09:37.773,-41.0314,-94.8129
15:09:37.801,-36.4376,-86.9378
15:09:37.801,-25.8751,-71.3128
15:09:37.804,-14.2501,-50.8752
15:09:37.808,-2.3125,-30.0001
15:09:37.815,7.3125,-9.25
15:09:37.825,16.7501,7.9375
15:09:37.835,24.6563,24.3751
15:09:37.846,32.1564,39.7502
15:09:37.855,34.3439,51.0002
15:09:37.865,39.2814,60.2502
15:09:37.876,41.2502,67.5628
15:09:37.885,40.7189,69.0003
15:09:37.904,40.2814,72.5003
15:09:37.906,39.3752,72.2503
15:09:37.915,37.9689,71.7503
15:09:37.937,36.7501,70.0628
15:09:37.941,35.2501,69.5003
15:09:37.955,35.4689,68.4378
15:09:37.957,32.1251,65.3752
15:09:37.972,32.2189,63.5002
15:09:37.976,31.1876,63.0627
15:09:37.985,28.0939,58.2502
15:09:37.996,26.5939,55.5002
15:09:38.006,24.4063,50.3127
15:09:38.018,21.6563,45.5002
15:09:38.025,19.4376,40.9377
15:09:38.036,16.8438,37.3126
15:09:38.046,16.0938,33.6876
15:09:38.056,13.6876,31.1251
15:09:38.066,12.6875,29.0001
15:09:38.076,13.3126,27.6251
15:09:38.086,12.8438,27.0626
15:09:38.096,13,26.8751
15:09:38.105,14.0001,26.8126
15:09:38.116,13.5626,26.5001
15:09:38.126,13.4688,25.8751
15:09:38.135,13.0938,26.3751
15:09:38.147,12.1563,24.3751
15:09:38.157,10.75,22.6251
15:09:38.166,10.3125,20.9376
15:09:38.175,9.2813,18.9376
15:09:38.185,7,14.5626
15:09:38.196,6.0313,12.3125
15:09:38.206,4.0625,9.1875
15:09:38.216,3.3125,5.75
15:09:38.225,0.7813,1.375
15:09:38.236,-1.4375,-0.8125
15:09:38.246,-2.625,-5.625
15:09:38.256,-4.8125,-10.5625
15:09:38.266,-6.875,-14.9376
15:09:38.277,-9.4063,-18.1251
15:09:38.285,-11.3438,-21.1876
15:09:38.296,-12.25,-25.9376
15:09:38.307,-15.3126,-29.8126
15:09:38.317,-16.6876,-32.7501
15:09:38.325,-19.7188,-36.4376
15:09:38.336,-20.3751,-40.5627
15:09:38.368,-20.9688,-43.5002
15:09:38.371,-23.0626,-47.1877
15:09:38.373,-23.8438,-48.8752
15:09:38.376,-24.3438,-50.8127
15:09:38.405,-24.2501,-53.1252
15:09:38.407,-25.7188,-56.2502
15:09:38.471,-26.7189,-59.3752
15:09:38.472,-27.9064,-61.7502
15:09:38.477,-29.0626,-63.1877
15:09:38.477,-29.8439,-65.1252
15:09:38.478,-30.0626,-67.8753
15:09:38.479,-30.2189,-68.4378
15:09:38.528,-29.8751,-69.8128
15:09:38.529,-33.4064,-74.6878
15:09:38.529,-32.8439,-75.3128
15:09:38.530,-34.2189,-77.8128
15:09:38.533,-36.0001,-81.5003
15:09:38.536,-36.5314,-83.3128
15:09:38.538,-36.6876,-84.3128
15:09:38.546,-36.7189,-83.9378
15:09:38.556,-32.9689,-79.7503
15:09:38.566,-25.9376,-69.6878
15:09:38.578,-15.1563,-53.7502
15:09:38.586,-4.5313,-33.8126
15:09:38.596,6.1563,-13.5001
15:09:38.607,15.4063,4.0625
15:09:38.619,23.6876,20.8751
15:09:38.626,30.3126,35.6876
15:09:38.636,34.5001,48.1877
15:09:38.652,40.0939,60.1877
15:09:38.656,41.0002,66.3753
15:09:38.666,44.1564,77.1253
15:09:38.676,43.7814,76.7503
15:09:38.686,42.3752,76.8128
15:09:38.700,41.4689,75.8128
15:09:38.706,39.3752,73.5628
15:09:38.716,37.6876,71.3753
15:09:38.728,35.8126,69.5628
15:09:38.737,34.0626,66.5628
15:09:38.746,32.4689,64.0002
15:09:38.756,30.4376,60.5002
15:09:38.767,30.1564,57.5627
15:09:38.776,24.2813,51.9377
15:09:38.786,24.3438,47.6877
15:09:38.796,22.2188,44.9377
15:09:38.807,18.6251,38.3126
15:09:38.816,17.3438,34.6251
15:09:38.826,16.3751,31.1251
15:09:38.837,15.0938,28.5626
15:09:38.846,14.6563,26.8126
15:09:38.856,15.0938,26.3751
15:09:38.866,15.0001,25.1876
15:09:38.876,14.5001,26.0001
15:09:38.886,15.2501,25.1876
15:09:38.897,16.1876,25.5001
15:09:38.907,15.8751,25.3126
15:09:38.918,15.9063,24.0626
15:09:38.926,14.8126,23.4376
15:09:38.936,13.8438,20.6251
15:09:38.946,12.7188,18.7501
15:09:38.958,10.5625,15.7501
15:09:38.967,9.0313,12.125
15:09:38.976,7.7813,9.375
15:09:38.986,4.375,4.375
15:09:38.999,2,0.25
15:09:39.029,0.9688,-2.75
15:09:39.031,-2.0625,-6.1875
15:09:39.034,-3.7188,-11.375
15:09:39.036,-5.8438,-15.5626
15:09:39.071,-7.75,-18.8751
15:09:39.074,-10.0938,-22.7501
15:09:39.075,-12.1875,-27.3126
15:09:39.088,-14.8126,-32.6251
15:09:39.092,-17.0626,-36.9376
15:09:39.119,-19.3438,-39.8752
15:09:39.121,-20.6251,-44.1877
15:09:39.125,-22.2501,-47.9377
15:09:39.126,-25.5626,-51.6252
15:09:39.159,-26.0626,-52.9377
15:09:39.161,-27.2189,-56.8752
15:09:39.164,-29.1564,-59.8127
15:09:39.169,-29.7189,-62.0002
15:09:39.196,-29.9376,-64.3127
15:09:39.199,-31.2501,-66.5003
15:09:39.202,-32.1251,-68.5003
15:09:39.206,-32.8751,-72.0003
15:09:39.216,-32.7501,-72.5628
15:09:39.229,-33.5626,-74.3753
15:09:39.243,-34.8439,-77.1253
15:09:39.256,-35.0001,-77.5628
15:09:39.258,-35.3751,-80.1253
15:09:39.269,-35.7814,-81.1253
15:09:39.276,-36.0001,-83.4378
15:09:39.286,-37.0314,-84.5003
15:09:39.298,-37.5001,-86.4378
15:09:39.307,-38.5939,-88.0003
15:09:39.316,-39.5627,-91.2504
15:09:39.326,-41.0939,-92.8129
15:09:39.336,-42.5002,-95.9379
15:09:39.346,-42.8127,-97.5629
15:09:39.356,-42.6564,-97.4379
15:09:39.367,-38.9376,-92.8129
15:09:39.376,-31.3751,-81.2503
15:09:39.386,-21.0938,-63.0627
15:09:39.396,-9.0313,-41.1252
15:09:39.406,2.3125,-17.9376
15:09:39.416,12.4063,0.6875
15:09:39.426,21.1876,19.2501
15:09:39.436,27.9689,34.6876
15:09:39.446,34.4689,49.1252
15:09:39.456,39.9377,60.8127
15:09:39.467,43.3439,70.1878
15:09:39.477,45.6564,76.4378
15:09:39.487,45.5314,79.9378
15:09:39.496,45.6564,81.5003
15:09:39.509,44.6564,82.2503
15:09:39.516,43.3752,81.1253
15:09:39.529,42.4377,79.8128
15:09:39.536,41.1564,77.8128
15:09:39.547,40.0002,76.5628
15:09:39.556,39.0627,74.6253
15:09:39.571,37.7189,73.0628
15:09:39.576,35.7501,69.5628
15:09:39.586,33.7501,66.6878
15:09:39.596,31.6251,62.5627
15:09:39.607,29.2189,57.5002
15:09:39.616,26.0313,52.1252
15:09:39.626,23.3438,47.7502
15:09:39.636,20.5313,43.0002
15:09:39.646,19.8126,40.2502
15:09:39.656,17.0313,35.8126
15:09:39.666,18.2188,35.8126
15:09:39.678,17.8126,34.0626
15:09:39.686,17.0001,32.4376
15:09:39.696,17.7188,32.7501
15:09:39.706,18.2501,33.6251
15:09:39.721,17.3438,33.5001
15:09:39.736,17.5001,32.3126
15:09:39.738,17.1563,32.2501
15:09:39.754,16.5313,30.1876
15:09:39.756,15.6563,28.7501
15:09:39.766,13.9376,27.0626
15:09:39.776,10.8125,22.2501
15:09:39.786,9.875,19.8126
15:09:39.796,8.375,17.1876
15:09:39.836,5.5938,13.6251
15:09:39.838,3.875,9.5
15:09:39.840,2.3438,4.6875
15:09:39.872,-0.0938,0.75
15:09:39.872,-2.25,-2.5625
15:09:39.875,-3.7188,-7.875
15:09:39.876,-6.5938,-12.375
15:09:39.882,-8.5625,-15.0626
15:09:39.887,-11,-18.7501
15:09:39.920,-12.5625,-23.0626
15:09:39.923,-13.9376,-27.6251
15:09:39.925,-15.9063,-30.8126
15:09:39.928,-17.5626,-35.5626
15:09:39.966,-20.0001,-39.0001
15:09:39.973,-22.3751,-42.6252
15:09:39.973,-23.5313,-45.2502
15:09:39.975,-25.2188,-49.1252
15:09:39.978,-27.1564,-52.5627
15:09:39.989,-30.0626,-57.0002
15:09:40.003,-32.8126,-59.6877
15:09:40.008,-33.4376,-61.6252
15:09:40.017,-34.9689,-65.2502
15:09:40.026,-36.5001,-67.0003
15:09:40.036,-37.7189,-69.2503
15:09:40.047,-38.8126,-72.1253
15:09:40.056,-39.8439,-72.8753
15:09:40.066,-41.0314,-75.2503
15:09:40.077,-42.0314,-77.5628
15:09:40.087,-43.2814,-79.2503
15:09:40.096,-44.6877,-81.2503
15:09:40.106,-45.4377,-82.9378
15:09:40.116,-45.9377,-84.7503
15:09:40.126,-45.9377,-85.6878
15:09:40.136,-46.5314,-86.8128
15:09:40.147,-47.0627,-89.1253
15:09:40.157,-49.0939,-90.4378
15:09:40.167,-49.9377,-93.9379
15:09:40.177,-50.1564,-94.8129
15:09:40.186,-50.4064,-96.8129
15:09:40.196,-49.5314,-97.5629
15:09:40.207,-50.3752,-99.1879
15:09:40.216,-49.8439,-99.1254
15:09:40.226,-45.3752,-93.4379
15:09:40.236,-36.9376,-83.3753
15:09:40.246,-26.7814,-64.9377
15:09:40.256,-14.4376,-43.3752
15:09:40.266,-1.625,-22.1251
15:09:40.280,7.75,-1.6875
15:09:40.286,16.8751,14.3126
15:09:40.296,24.7813,30.7501
15:09:40.307,30.9064,45.4377
15:09:40.316,37.1251,56.8752
15:09:40.326,39.8127,66.2503
15:09:40.339,43.0002,73.0003
15:09:40.361,44.3127,77.6253
15:09:40.363,44.7814,79.5003
15:09:40.369,45.5314,81.9378
15:09:40.378,45.1252,81.0003
15:09:40.386,43.8439,80.0628
15:09:40.397,43.1564,78.4378
15:09:40.406,43.0939,76.7503
15:09:40.416,42.2502,75.1253
15:09:40.426,41.7814,71.5003
15:09:40.436,39.3127,69.8128
15:09:40.446,38.0626,66.0628
15:09:40.456,35.4064,61.3752
15:09:40.468,32.5314,56.2502
15:09:40.477,30.1564,50.3752
15:09:40.486,27.4376,46.4377
15:09:40.497,25.6563,41.1877
15:09:40.506,24.2813,37.8751
15:09:40.527,23.1251,35.1876
15:09:40.528,22.3438,32.8751
15:09:40.560,22.2188,30.6251
15:09:40.563,22.7188,30.6251
15:09:40.565,23.4063,30.7501
15:09:40.569,23.9063,31.0001
15:09:40.599,24.5938,31.0626
15:09:40.603,23.7501,29.9376
15:09:40.605,23.2501,29.3751
15:09:40.608,22.0938,28.3126
15:09:40.642,21.0001,26.5001
15:09:40.644,19.1251,22.7501
15:09:40.646,16.3438,18.6876
15:09:40.649,14.1251,16.6876
15:09:40.680,12.5,13.6251
15:09:40.682,11.5313,9
15:09:40.685,8.125,4.75
15:09:40.703,5.4063,0.3125
15:09:40.703,2.9063,-2.8125
15:09:40.707,-1.1563,-7.5625
15:09:40.716,-4.0938,-13.6876
15:09:40.726,-7.5,-19.1876
15:09:40.737,-11.3125,-24.8751
15:09:40.750,-14.9376,-28.5626
15:09:40.763,-16.4688,-32.6876
15:09:40.767,-16.8126,-36.4376
15:09:40.776,-18.0938,-39.5627
15:09:40.790,-19.8438,-42.3752
15:09:40.796,-20.0001,-44.5627
15:09:40.807,-21.0626,-47.6252
15:09:40.816,-22.3126,-51.5002
15:09:40.827,-23.2813,-54.3752
15:09:40.836,-25.2188,-57.0002
15:09:40.849,-26.8751,-59.6252
15:09:40.856,-27.6251,-62.6877
15:09:40.868,-28.5001,-63.5002
15:09:40.879,-28.5001,-67.0003
15:09:40.887,-28.2189,-67.6878
15:09:40.896,-29.0626,-68.6253
15:09:40.908,-29.0001,-70.6253
15:09:40.916,-30.7814,-71.7503
15:09:40.927,-31.0626,-74.8128
15:09:40.938,-32.0001,-76.1253
15:09:40.948,-33.7189,-78.1253
15:09:40.956,-34.1564,-79.8128
15:09:40.968,-35.5626,-81.3753
15:09:40.976,-35.5939,-82.7503
15:09:40.988,-36.3751,-84.5003
15:09:40.997,-36.3751,-86.0628
15:09:41.007,-37.8439,-87.5003
15:09:41.022,-38.0001,-89.5003
15:09:41.038,-39.6877,-91.9379
15:09:41.041,-40.2814,-94.3754
15:09:41.049,-41.7189,-97.0004
15:09:41.057,-42.3127,-98.6879
15:09:41.070,-43.6564,-100.2504
15:09:41.076,-41.6564,-99.7504
15:09:41.087,-38.0001,-95.3754
15:09:41.096,-31.4689,-84.8753
15:09:41.107,-20.7813,-68.6878
15:09:41.117,-7.625,-45.2502
15:09:41.131,5.4063,-22.0001
15:09:41.138,17.2188,-1.1875
15:09:41.148,25.2188,16.0001
15:09:41.159,33.3126,31.7501
15:09:41.167,38.5001,44.1252
15:09:41.177,42.7502,55.8127
15:09:41.186,45.7189,62.5002
15:09:41.197,46.2814,68.7503
15:09:41.213,47.3439,71.6878
15:09:41.222,46.3439,73.3753
15:09:41.233,44.9377,73.4378
15:09:41.243,44.2502,72.8128
15:09:41.252,41.7189,70.1878
15:09:41.263,39.5002,68.2503
15:09:41.272,37.5626,64.8127
15:09:41.312,35.4689,62.6877
15:09:41.312,34.2814,59.0002
15:09:41.315,32.3751,56.3752
15:09:41.322,29.2189,52.5002
15:09:41.324,26.6876,46.7502
15:09:41.354,23.6876,41.6252
15:09:41.356,20.5938,36.5626
15:09:41.359,16.8126,32.0001
15:09:41.364,14.3438,28.1876
15:09:41.396,12.9375,25.1251
15:09:41.399,12.2813,23.6251
15:09:41.401,12.4063,22.9376
15:09:41.430,11.7188,21.9376
15:09:41.431,12.25,23.6251
15:09:41.433,12.2188,23.3126
15:09:41.439,11.4375,21.8126
15:09:41.453,9.8125,20.6251
15:09:41.456,8.75,19.5626
15:09:41.462,8.375,19.8126
15:09:41.472,7.5625,18.7501
15:09:41.482,7.4063,16.5626
15:09:41.494,5.5313,14.3126
15:09:41.510,4.8438,13.3126
15:09:41.513,3.3438,9.8125
15:09:41.523,1.5313,5.875
15:09:41.532,-0.9375,2.0625
15:09:41.542,-2.8438,-1.0625
15:09:41.554,-4.5313,-3.875
15:09:41.563,-5.7813,-7.75
15:09:41.572,-7.2813,-12.125
15:09:41.584,-8.9688,-15.8126
15:09:41.592,-10.25,-19.1251
15:09:41.603,-11.5313,-21.2501
15:09:41.616,-12.9375,-24.6876
15:09:41.640,-14.6251,-28.7501
15:09:41.642,-16.3126,-32.0001
15:09:41.646,-17.5626,-34.1876
15:09:41.652,-19.0626,-37.4376
15:09:41.663,-20.0938,-40.6877
15:09:41.672,-20.9688,-44.3752
15:09:41.682,-22.4376,-47.6252
15:09:41.695,-23.7813,-48.6252
15:09:41.703,-23.9376,-51.7502
15:09:41.712,-24.7813,-52.6252
15:09:41.724,-25.5626,-55.6252
15:09:41.732,-26.6564,-59.3752
15:09:41.742,-27.3439,-61.0002
15:09:41.753,-29.5001,-63.3752
15:09:41.762,-30.8751,-66.2503
15:09:41.772,-31.4376,-68.1253
15:09:41.783,-33.0001,-70.2503
15:09:41.793,-34.0626,-72.9378
15:09:41.804,-36.0939,-75.5628
15:09:41.812,-37.9376,-78.3128
15:09:41.823,-39.2502,-80.6253
15:09:41.838,-40.7814,-83.3753
15:09:41.855,-42.7189,-84.2503
15:09:41.860,-42.5939,-85.6878
15:09:41.864,-40.6564,-80.5628
15:09:41.872,-33.2189,-70.6878
15:09:41.883,-23.1251,-52.2502
15:09:41.895,-10.8438,-31.8751
15:09:41.903,1.125,-10.875
15:09:41.912,10.875,7.6875
15:09:41.922,19.8438,23.5001
15:09:41.932,26.3126,36.9376
15:09:41.943,32.1251,49.2502
15:09:41.952,35.1876,59.0002
15:09:41.962,38.0001,66.8128
15:09:41.973,39.5627,73.2503
15:09:41.982,40.2189,75.2503
15:09:41.993,40.4064,78.5003
15:09:42.003,39.5002,77.9378
15:09:42.012,38.6564,77.8128
15:09:42.035,37.5001,75.7503
15:09:42.038,35.7189,74.8128
15:09:42.042,34.3439,71.0628
15:09:42.078,32.5939,69.3753
15:09:42.080,30.0939,65.1252
15:09:42.083,28.5626,61.8752
15:09:42.085,26.8439,57.7502
15:09:42.116,23.7188,53.1877
15:09:42.118,22.2813,49.5627
15:09:42.121,20.9688,44.5627
15:09:42.126,18.2813,41.1252
15:09:42.164,16.4688,36.9376
15:09:42.167,15.5313,34.2501
15:09:42.169,14.6563,31.5626
15:09:42.201,14.2188,30.2501
15:09:42.201,13.7813,29.7501
15:09:42.202,14.0313,29.6876
15:09:42.204,14.7501,29.5626
15:09:42.211,15.0313,30.1251
15:09:42.214,16.2501,30.8751
15:09:42.223,16.2501,30.1876
15:09:42.234,16.6563,28.5626
15:09:42.243,14.9376,27.3126
15:09:42.257,13.2188,26.3751
15:09:42.264,11.625,23.1876
15:09:42.273,9.875,19.5626
15:09:42.283,7.5938,16.1251
15:09:42.293,6.9063,11.75
15:09:42.303,4.6563,8.1875
15:09:42.318,2.5938,5.0625
15:09:42.334,1.7188,2
15:09:42.335,-0.5625,-1.8125
15:09:42.344,-2.6563,-6
15:09:42.353,-5.5938,-11.875
15:09:42.362,-8.6563,-17.1876
15:09:42.373,-12.0313,-21.6876
15:09:42.382,-14.4688,-25.8751
15:09:42.394,-16.4063,-29.8751
15:09:42.402,-18.4063,-34.1251
15:09:42.412,-19.8751,-37.5001
15:09:42.425,-20.8126,-39.8127
15:09:42.433,-22.4688,-44.1877
15:09:42.442,-27.0939,-49.3127
15:09:42.454,-31.9689,-54.1877
15:09:42.462,-36.7501,-58.6877
15:09:42.473,-41.5314,-64.8127
15:09:42.483,-49.6564,-71.0628
15:09:42.492,-57.5002,-78.6253
15:09:42.503,-64.5002,-83.2503
15:09:42.512,-69.1253,-86.9378
15:09:42.522,-72.1878,-89.0628
15:09:42.535,-73.2503,-89.0628
15:09:42.542,-74.344,-90.1878
15:09:42.552,-75.8128,-89.4378
15:09:42.563,-78.9378,-92.1879
15:09:42.572,-80.6878,-93.8129
15:09:42.583,-83.3753,-94.5004
15:09:42.593,-84.3441,-97.1879
15:09:42.602,-86.6253,-97.1254
15:09:42.616,-87.5941,-99.8754
15:09:42.622,-87.5941,-99.1254
15:09:42.633,-85.6253,-100.0629
15:09:42.642,-86.7503,-99.6879
15:09:42.652,-84.5316,-98.5629
15:09:42.662,-80.9691,-90.4379
15:09:42.673,-71.5315,-78.7503
15:09:42.683,-61.0627,-61.8127
15:09:42.696,-49.5627,-45.1877
15:09:42.702,-39.9064,-25.8751
15:09:42.712,-29.7814,-8.9375
15:09:42.723,-22.9376,7.625
15:09:42.736,-17.0626,19.8126
15:09:42.771,-12.4688,32.3751
15:09:42.773,-8.6563,40.5002
15:09:42.775,-5.8438,47.5002
15:09:42.779,-2.9063,53.4377
15:09:42.784,-0.8438,57.8752
15:09:42.812,0.5938,60.0002
15:09:42.815,0.6875,61.8127
15:09:42.818,-0.125,61.0002
15:09:42.822,-2.5625,59.1252
15:09:42.839,-5.3125,55.5627
15:09:42.844,-8.375,51.6252
15:09:42.875,-12.875,45.6252
15:09:42.878,-17.5938,39.9377
15:09:42.880,-22.6876,31.8751
15:09:42.884,-29.2501,25.0626
15:09:42.921,-35.8126,15.8126
15:09:42.924,-44.5314,7.125
15:09:42.927,-50.3752,-2.625
15:09:42.931,-57.094,-12.9375
15:09:42.934,-65.9065,-26.6251
15:09:42.944,-71.6253,-35.8126
15:09:42.952,-72.1878,-39.0001
15:09:42.962,-70.219,-38.9376
15:09:42.973,-66.344,-36.0001
15:09:42.982,-60.4377,-30.3126
15:09:42.993,-50.9377,-19.5626
15:09:43.010,-35.3439,-4.375
15:09:43.012,-28.2501,2.5625
15:09:43.024,-28.3751,2.6875
15:09:43.033,-31.2189,-2.5
15:09:43.042,-37.3126,-12.625
15:09:43.054,-47.0627,-25.8751
15:09:43.062,-53.3752,-35.4376
15:09:43.074,-57.5627,-42.3752
15:09:43.082,-63.0315,-51.3127
15:09:43.092,-70.4065,-61.0627
15:09:43.105,-76.719,-70.6878
15:09:43.113,-83.0941,-80.5628
15:09:43.122,-91.0316,-91.7504
15:09:43.138,-102.7504,-107.4379
15:09:43.155,-113.0004,-122.7505
15:09:43.155,-123.0005,-136.0005
15:09:43.162,-134.7505,-151.1256
15:09:43.172,-144.3755,-164.8756
15:09:43.183,-155.9693,-178.8757
15:09:43.192,-166.3444,-191.8132
15:09:43.203,-170.1569,-197.1882
15:09:43.214,-169.9694,-196.2507
15:09:43.224,-164.4381,-189.0007
15:09:43.235,-152.4693,-173.8132
15:09:43.243,-136.688,-154.3131
15:09:43.252,-122.0005,-133.0005
15:09:43.264,-108.0004,-113.2504
15:09:43.272,-91.5316,-91.8754
15:09:43.284,-78.5003,-74.1878
15:09:43.294,-67.1565,-59.0627
15:09:43.303,-59.344,-50.7502
15:09:43.316,-55.4065,-45.2502
15:09:43.323,-50.4064,-42.8127
15:09:43.334,-48.8439,-42.7502
15:09:43.343,-52.1564,-50.7502
15:09:43.353,-60.0315,-62.8752
15:09:43.366,-71.3128,-76.9378
15:09:43.372,-81.9066,-94.1879
15:09:43.391,-92.7191,-109.2504
15:09:43.393,-100.7816,-124.5005
15:09:43.402,-108.4379,-137.0005
15:09:43.414,-118.5317,-153.0006
15:09:43.442,-131.7193,-170.0631
15:09:43.446,-141.938,-189.3132
15:09:43.447,-156.0006,-209.3133
15:09:43.454,-169.6256,-232.1259
15:09:43.489,-184.8757,-254.6885
15:09:43.491,-195.9382,-274.0635
15:09:43.494,-204.5008,-288.4386
15:09:43.499,-209.032,-295.0011
15:09:43.530,-204.407,-290.5011
15:09:43.533,-201.5945,-281.0011
15:09:43.535,-200.282,-271.8135
15:09:43.538,-200.1258,-261.251
15:09:43.544,-199.6883,-251.4385
15:09:43.580,-198.6258,-239.6884
15:09:43.583,-193.532,-224.5009
15:09:43.586,-186.6882,-206.4383
15:09:43.588,-172.4382,-183.0007
15:09:43.594,-152.3756,-151.0631
15:09:43.613,-132.2193,-119.2505
15:09:43.618,-113.1254,-84.8128
15:09:43.634,-93.0004,-47.7502
15:09:43.636,-67.8753,-3.5
15:09:43.643,-43.8752,35.6876
