timestamp,Red,IR
16:34:37.404,-10.75,-18.9376
16:34:37.415,-12.625,-21.6876
16:34:37.428,-13.9376,-25.7501
16:34:37.434,-16.0626,-28.7501
16:34:37.444,-18.0626,-32.4376
16:34:37.456,-19.6251,-35.8126
16:34:37.466,-21.5001,-39.1252
16:34:37.474,-22.3751,-41.3752
16:34:37.515,-23.3126,-44.3752
16:34:37.518,-24.8751,-47.0002
16:34:37.520,-25.5001,-47.9377
16:34:37.523,-26.8126,-49.0627
16:34:37.525,-27.0626,-52.0002
16:34:37.534,-27.8126,-51.4377
16:34:37.566,-26.8126,-51.8127
16:34:37.569,-23.0001,-46.5627
16:34:37.572,-15.7501,-35.9376
16:34:37.577,-7.25,-20.0001
16:34:37.616,3.75,-3.125
16:34:37.620,16.1876,17.8751
16:34:37.621,29.7501,40.5627
16:34:37.623,40.9377,61.5002
16:34:37.630,51.8127,81.1253
16:34:37.636,60.0627,97.4379
16:34:37.665,65.9378,110.6254
16:34:37.668,70.1253,117.813
16:34:37.670,73.0628,124.438
16:34:37.675,72.9378,125.7505
16:34:37.687,72.0003,124.7505
16:34:37.694,69.4378,121.313
16:34:37.705,64.8752,115.6254
16:34:37.715,60.8127,109.2504
16:34:37.724,56.5002,102.1879
16:34:37.735,52.3127,94.8754
16:34:37.744,47.7502,88.1878
16:34:37.756,43.5627,80.0003
16:34:37.764,39.9377,72.6878
16:34:37.775,35.1876,64.6252
16:34:37.784,31.2501,56.7502
16:34:37.807,26.1251,48.8127
16:34:37.813,22.5626,41.8752
16:34:37.815,18.6251,35.3126
16:34:37.830,15.8126,29.1876
16:34:37.840,13.2501,24.6251
16:34:37.844,12.4375,21.9376
16:34:37.855,13,21.4376
16:34:37.864,12.625,22.8751
16:34:37.874,14.5626,23.8751
16:34:37.886,15.9376,25.9376
16:34:37.894,17.3751,29.6251
16:34:37.906,19.5001,32.6251
16:34:37.915,21.3751,35.2501
16:34:37.925,23.0626,38.6876
16:34:37.934,24.0001,39.1252
16:34:37.946,24.3751,41.3127
16:34:37.954,24.0001,39.6252
16:34:37.967,22.6251,39.5002
16:34:37.975,22.3126,38.2501
16:34:37.986,20.5626,35.2501
16:34:37.994,18.5626,32.8751
16:34:38.005,16.5001,29.8751
16:34:38.015,14.5001,25.3126
16:34:38.026,12.5625,21.8126
16:34:38.035,10,17.0001
16:34:38.046,7,12.5625
16:34:38.058,5.125,8.0625
16:34:38.068,1.25,3.5625
16:34:38.075,0,-0.75
16:34:38.086,-3.25,-4.75
16:34:38.095,-4.6875,-9.625
16:34:38.105,-7.375,-13
16:34:38.115,-8.9375,-17.3126
16:34:38.125,-10.8125,-21.1251
16:34:38.135,-13.0625,-23.8751
16:34:38.146,-15.7501,-28.0001
16:34:38.156,-16.8751,-31.8751
16:34:38.165,-18.3126,-34.9376
16:34:38.176,-20.0001,-38.0626
16:34:38.186,-21.3751,-40.6252
16:34:38.224,-22.5001,-43.8127
16:34:38.227,-24.1251,-46.5002
16:34:38.228,-25.5001,-48.8752
16:34:38.230,-27.0001,-52.5627
16:34:38.238,-28.8126,-54.8127
16:34:38.271,-30.1876,-57.5002
16:34:38.271,-30.8126,-57.9377
16:34:38.273,-30.6251,-60.1877
16:34:38.367,-31.0001,-59.5002
16:34:38.387,-28.7501,-58.6252
16:34:38.387,-23.8126,-51.5627
16:34:38.387,-17.5001,-39.5627
16:34:38.387,-6.0625,-24.0001
16:34:38.391,4.9375,-4.5
16:34:38.402,17.7501,17.3751
16:34:38.410,30.6876,42.1877
16:34:38.420,43.1252,63.8752
16:34:38.436,54.0627,82.9378
16:34:38.441,61.5627,100.2504
16:34:38.450,69.0003,111.8754
16:34:38.461,72.1878,121.313
16:34:38.470,73.8753,125.063
16:34:38.480,73.9378,126.1255
16:34:38.491,72.0628,124.188
16:34:38.500,69.6253,120.8755
16:34:38.511,65.1877,115.0004
16:34:38.520,61.9377,109.4379
16:34:38.531,57.5627,103.0629
16:34:38.540,53.2502,95.5004
16:34:38.551,27.3751,49.5002
16:34:38.561,24.4376,45.1252
16:34:38.588,22.6876,40.0627
16:34:38.589,20.1876,36.5626
16:34:38.591,19.9376,34.7501
16:34:38.601,19.6251,34.4376
16:34:38.610,19.6876,33.6251
16:34:38.620,20.6251,34.9376
16:34:38.630,22.3126,37.8751
16:34:38.640,23.8126,39.6252
16:34:38.650,25.8126,42.3752
16:34:38.660,27.3126,44.0002
16:34:38.671,27.3126,46.1252
16:34:38.681,27.8751,47.1252
16:34:38.690,27.6251,46.7502
16:34:38.700,27.0001,46.4377
16:34:38.710,26.1251,44.6252
16:34:38.724,24.4376,42.4377
16:34:38.730,23.0626,39.4377
16:34:38.742,20.5626,35.3126
16:34:38.753,18.1251,31.9376
16:34:38.761,16.0626,27.5001
16:34:38.770,13.0625,23.3126
16:34:38.780,10.875,19.1876
16:34:38.790,8.625,14.0001
16:34:38.801,4.875,8.8125
16:34:38.810,1.875,4.1875
16:34:38.820,-0.3125,-1.0625
16:34:38.831,-2.375,-4.875
16:34:38.840,-4.5,-9.875
16:34:38.851,-7.6875,-14.2501
16:34:38.862,-8.9375,-17.8751
16:34:38.873,-11.125,-20.7501
16:34:38.880,-12.5,-24.6876
16:34:38.890,-14.4376,-28.5626
16:34:38.902,-15.9376,-30.4376
16:34:38.910,-17.3126,-34.3126
16:34:38.920,-19.0001,-35.8751
16:34:38.931,-19.8126,-38.0001
16:34:38.940,-21.2501,-41.4377
16:34:38.967,-21.6876,-43.3752
16:34:38.970,-23.3126,-45.5627
16:34:38.972,-24.5626,-47.2502
16:34:39.003,-24.9376,-49.0627
16:34:39.005,-27.0626,-51.2502
16:34:39.010,-28.3751,-54.2502
16:34:39.011,-29.1251,-55.6252
16:34:39.042,-30.6876,-57.4377
16:34:39.044,-30.7501,-59.5002
16:34:39.046,-32.1876,-60.1252
16:34:39.078,-34.0001,-62.6877
16:34:39.079,-33.4376,-63.8752
16:34:39.082,-34.8126,-65.5628
16:34:39.089,-35.0001,-66.4378
16:34:39.093,-32.8126,-64.5627
16:34:39.126,-28.6251,-59.3752
16:34:39.128,-21.0001,-47.6877
16:34:39.146,-11.9375,-32.5626
16:34:39.148,0.25,-12.25
16:34:39.161,13.5626,9.875
16:34:39.169,27.5626,34.1251
16:34:39.169,39.8127,57.0002
16:34:39.172,51.5627,77.6878
16:34:39.188,59.3752,96.5629
16:34:39.190,66.5628,108.3754
16:34:39.200,72.1878,118.813
16:34:39.210,72.7503,124.438
16:34:39.221,73.1878,124.938
16:34:39.231,72.1253,124.813
16:34:39.240,69.6253,120.938
16:34:39.251,65.6252,117.3129
16:34:39.260,61.3752,108.7504
16:34:39.270,58.0627,103.5004
16:34:39.282,52.6877,96.0629
16:34:39.290,48.9377,88.7503
16:34:39.300,45.2502,81.1878
16:34:39.310,41.7502,75.0003
16:34:39.320,36.4376,67.4378
16:34:39.330,32.8751,60.4377
16:34:39.340,28.8751,52.5627
16:34:39.350,25.3126,45.8752
16:34:39.360,20.9376,38.5001
16:34:39.371,18.1251,33.6251
16:34:39.380,16.7501,29.3126
16:34:39.390,14.9376,26.5626
16:34:39.401,14.5626,26.0001
16:34:39.410,15.3126,25.8751
16:34:39.421,15.8126,26.8751
16:34:39.430,17.8126,29.0626
16:34:39.441,18.4376,31.2501
16:34:39.450,20.8751,33.8751
16:34:39.460,21.1251,35.8126
16:34:39.471,23.0626,38.2501
16:34:39.481,23.6876,39.9377
16:34:39.490,22.9376,39.8127
16:34:39.500,23.5001,40.3752
16:34:39.510,22.6251,39.7502
16:34:39.521,21.3126,38.3126
16:34:39.532,19.8126,35.2501
16:34:39.540,17.5001,31.3126
16:34:39.550,15.8751,27.8751
16:34:39.566,13.8751,23.1876
16:34:39.571,10.6875,20.1876
16:34:39.580,7.9375,15.6251
16:34:39.591,6.1875,10.25
16:34:39.601,2.4375,5.875
16:34:39.610,0.1875,0
16:34:39.620,-2.4375,-4.3125
16:34:39.630,-4.875,-8.125
16:34:39.647,-7.5625,-13.4376
16:34:39.650,-9.625,-17.6876
16:34:39.682,-11.9375,-22.5001
16:34:39.685,-14.3751,-26.0001
16:34:39.701,-15.8126,-29.7501
16:34:39.733,-17.5626,-32.8751
16:34:39.735,-20.3126,-35.5626
16:34:39.738,-20.9376,-39.8752
16:34:39.742,-23.1251,-41.9377
16:34:39.770,-24.1251,-44.9377
16:34:39.770,-25.6251,-48.0627
16:34:39.772,-26.1251,-49.8752
16:34:39.776,-26.8126,-50.8127
16:34:39.780,-27.5626,-52.1877
16:34:39.782,-27.8751,-53.3752
16:34:39.791,-28.6876,-54.5627
16:34:39.826,-29.4376,-56.5002
16:34:39.828,-29.5001,-57.1252
16:34:39.832,-31.1251,-58.6252
16:34:39.833,-31.4376,-60.1252
16:34:39.869,-33.1876,-60.3127
16:34:39.870,-33.5001,-63.6877
16:34:39.873,-35.3126,-64.7502
16:34:39.880,-35.3126,-67.6253
16:34:39.882,-36.5001,-67.1878
16:34:39.891,-37.9376,-70.6253
16:34:39.900,-38.8751,-72.6253
16:34:39.910,-38.8751,-73.3753
16:34:39.921,-39.5627,-73.4378
16:34:39.930,-39.3126,-75.0628
16:34:39.942,-39.3752,-75.5628
16:34:39.953,-37.0001,-74.5628
16:34:39.962,-33.6251,-67.4378
16:34:39.971,-26.3126,-57.5627
16:34:39.980,-15.8126,-41.3752
16:34:39.991,-4.375,-22.1876
16:34:40.000,9.375,0.0625
16:34:40.012,22.6251,24.6251
16:34:40.021,35.6251,47.3752
16:34:40.030,48.0627,69.5003
16:34:40.041,56.3752,86.5628
16:34:40.050,63.5627,100.3754
16:34:40.061,66.6878,110.3129
16:34:40.070,68.7503,114.0004
16:34:40.080,69.5003,115.8129
16:34:40.090,66.7503,113.7504
16:34:40.100,64.7502,110.6879
16:34:40.110,60.3752,105.8129
16:34:40.120,56.3127,98.3129
16:34:40.130,52.5002,91.3129
16:34:40.140,47.6877,85.0003
16:34:40.150,43.5627,76.6253
16:34:40.160,39.0626,69.9378
16:34:40.171,35.1876,61.6877
16:34:40.182,30.8126,55.1252
16:34:40.190,26.7501,46.4377
16:34:40.200,22.5001,39.6877
16:34:40.211,18.1876,30.9376
16:34:40.220,14.5001,26.2501
16:34:40.230,12.875,20.1876
16:34:40.240,10.375,17.5001
16:34:40.250,10.5625,14.5001
16:34:40.261,9.375,14.3751
16:34:40.273,11,14.1251
16:34:40.281,11.25,16.2501
16:34:40.290,13.8126,18.3751
16:34:40.301,15.5626,22.4376
16:34:40.316,18.5001,25.1876
16:34:40.322,18.9376,28.4376
16:34:40.331,21.5626,30.6251
16:34:40.342,21.8126,33.8126
16:34:40.350,22.9376,32.6876
16:34:40.361,21.6251,34.0626
16:34:40.371,20.8751,32.0626
16:34:40.380,18.9376,31.4376
16:34:40.391,18.6876,28.0626
16:34:40.401,16.0626,25.2501
16:34:40.429,13.7501,20.6876
16:34:40.476,11.5625,16.9376
16:34:40.476,9.5,12.4375
16:34:40.541,5.9375,7.6875
16:34:40.541,4.25,2.5
16:34:40.543,0.4375,-2.25
16:34:40.543,-1.75,-7
16:34:40.543,-5.0625,-11.5625
16:34:40.544,-7.4375,-16.0001
16:34:40.549,-9.5,-20.8751
16:34:40.576,-11.0625,-25.5626
16:34:40.576,-12.875,-29.0001
16:34:40.577,-15.5626,-33.0626
16:34:40.580,-17.5626,-36.6876
16:34:40.588,-19.4376,-39.3752
16:34:40.592,-21.2501,-43.0002
16:34:40.595,-22.6251,-46.0627
16:34:40.605,-23.1876,-47.0627
16:34:40.615,-24.3751,-49.5002
16:34:40.626,-25.0626,-51.7502
16:34:40.635,-25.1251,-52.6877
16:34:40.645,-25.5001,-53.3752
16:34:40.655,-26.8751,-54.8752
16:34:40.665,-27.9376,-57.2502
16:34:40.676,-32.6251,-65.1877
16:34:40.691,-32.4376,-66.5003
16:34:40.697,-33.6876,-66.6878
16:34:40.705,-34.9376,-67.6878
16:34:40.715,-36.0001,-69.7503
16:34:40.725,-35.8126,-71.3753
16:34:40.735,-37.3126,-71.9378
16:34:40.745,-38.3126,-73.8753
16:34:40.755,-38.9376,-75.5628
16:34:40.765,-39.8752,-77.6253
16:34:40.775,-39.8752,-78.3128
16:34:40.786,-40.0002,-77.8753
16:34:40.795,-39.0001,-78.1253
16:34:40.806,-37.6876,-73.2503
16:34:40.815,-31.7501,-66.7503
16:34:40.825,-23.7501,-53.6252
16:34:40.835,-12.5625,-36.7501
16:34:40.845,-0.5625,-16.8126
16:34:40.860,12.6875,6.0625
16:34:40.870,24.6876,29.5626
16:34:40.880,36.1876,48.8752
16:34:40.890,46.8752,67.3128
16:34:40.924,53.7502,82.1253
16:34:40.926,58.0627,91.3754
16:34:40.928,61.2502,98.5004
16:34:40.937,61.1252,101.1254
16:34:40.945,59.8752,99.4379
16:34:40.955,58.1877,96.4379
16:34:40.965,53.6252,91.6879
16:34:40.982,49.9377,84.7503
16:34:40.985,45.1252,78.0003
16:34:41.003,39.8752,69.5003
16:34:41.015,35.5626,61.3127
16:34:41.019,30.7501,54.1877
16:34:41.028,23.4376,41.9377
16:34:41.035,19.4376,33.4376
16:34:41.045,14.0001,25.1876
16:34:41.056,10.3125,17.3751
16:34:41.072,5.25,8.25
16:34:41.077,2.5,2.875
16:34:41.086,0.875,-1.75
16:34:41.096,-0.25,-3.1875
16:34:41.122,0.125,-4.9375
16:34:41.124,0.875,-3.3125
16:34:41.126,2.6875,-0.625
16:34:41.153,5.25,1.6875
16:34:41.156,7.25,5
16:34:41.158,10,9.0625
16:34:41.173,11.125,13.8751
16:34:41.177,12.8125,17.3126
16:34:41.218,14.6876,19.2501
16:34:41.222,15.5001,20.2501
16:34:41.223,16.0626,21.6876
16:34:41.229,15.7501,21.5626
16:34:41.231,14.9376,21.0001
16:34:41.245,14.1876,17.9376
16:34:41.248,12.0625,15.3751
16:34:41.285,9.6875,11.9375
16:34:41.286,8,8.375
16:34:41.290,5.6875,4.3125
16:34:41.296,3.375,0.1875
16:34:41.298,0.6875,-4.5625
16:34:41.306,-2.1875,-8.1875
16:34:41.317,-4.375,-11.875
16:34:41.326,-6.9375,-16.8126
16:34:41.337,-9.1875,-20.1251
16:34:41.351,-10.625,-24.3126
16:34:41.355,-13.5001,-28.6251
16:34:41.365,-15.3126,-33.1251
16:34:41.375,-16.9376,-36.6876
16:34:41.385,-18.7501,-40.1252
16:34:41.396,-19.9376,-43.5002
16:34:41.405,-22.9376,-46.5002
16:34:41.416,-23.8126,-49.1877
16:34:41.425,-25.0001,-51.9377
16:34:41.436,-27.6876,-54.8752
16:34:41.446,-28.5001,-58.1252
16:34:41.455,-30.6876,-60.9377
16:34:41.466,-31.6251,-63.5002
16:34:41.476,-34.0626,-64.9377
16:34:41.485,-34.9376,-68.8128
16:34:41.495,-34.8126,-70.8128
16:34:41.506,-36.8126,-72.2503
16:34:41.516,-37.1876,-74.1253
16:34:41.525,-37.4376,-74.8128
16:34:41.536,-38.2501,-76.9378
16:34:41.547,-37.5626,-76.7503
16:34:41.555,-38.3126,-75.8753
16:34:41.567,-33.8126,-72.3128
16:34:41.575,-28.9376,-62.6252
16:34:41.586,-20.3751,-50.0627
16:34:41.595,-9.25,-31.0626
16:34:41.605,3.4375,-10.8125
16:34:41.615,17.3751,12.4375
16:34:41.626,29.7501,34.8126
16:34:41.635,41.2502,55.8752
16:34:41.646,51.3752,76.0003
16:34:41.657,58.8127,88.5628
16:34:41.668,64.0002,99.5004
16:34:41.676,66.3753,107.1254
16:34:41.685,67.8128,108.2504
16:34:41.695,65.9378,108.9379
16:34:41.707,63.9377,104.9379
16:34:41.715,60.7502,100.3129
16:34:41.726,56.2502,93.8129
16:34:41.736,52.3127,85.8128
16:34:41.746,47.1252,78.1878
16:34:41.757,42.3752,69.8128
16:34:41.766,38.1251,63.0627
16:34:41.786,32.6876,53.6252
16:34:41.792,28.3126,45.9377
16:34:41.799,23.7501,37.8126
16:34:41.807,19.6251,30.5001
16:34:41.827,15.2501,22.0626
16:34:41.829,11,15.5626
16:34:41.839,7.3125,7.9375
16:34:41.847,4.75,3.5
16:34:41.856,3.1875,-0.0625
16:34:41.866,2.375,-1.5
16:34:41.878,3.25,-1.6875
16:34:41.917,3.5,-1.5625
16:34:41.920,4.8125,1
16:34:41.922,6.9375,4.8125
16:34:41.926,8,7.6875
16:34:41.931,10.5625,9.875
16:34:41.937,12.1875,13.3751
16:34:41.966,14.0626,15.6876
16:34:41.968,14.6876,17.3751
16:34:41.970,14.6251,18.0626
16:34:41.976,14.5626,18.5626
16:34:42.008,14.5001,17.3751
16:34:42.012,12.4375,15.4376
16:34:42.013,11.125,13.3126
16:34:42.017,9.1875,9.5
16:34:42.026,7.4375,6.875
16:34:42.054,4.625,2
16:34:42.057,2.375,-1.4375
16:34:42.059,0.5625,-6.3125
16:34:42.067,-3.375,-10.8125
16:34:42.077,-4.6875,-14.5001
16:34:42.085,-6.8125,-19.5626
16:34:42.096,-10.3125,-23.5626
16:34:42.107,-12.3125,-28.6251
16:34:42.116,-15.1251,-33.3126
16:34:42.126,-17.0626,-37.3751
16:34:42.135,-19.0626,-40.5002
16:34:42.147,-21.3126,-44.3127
16:34:42.157,-23.2501,-47.1877
16:34:42.165,-25.0001,-51.3752
16:34:42.177,-26.9376,-54.1252
16:34:42.187,-28.1876,-57.3127
16:34:42.201,-30.5626,-60.6252
16:34:42.207,-32.1876,-64.0627
16:34:42.215,-34.1251,-67.3753
16:34:42.226,-34.6876,-68.8128
16:34:42.236,-36.3126,-72.3128
16:34:42.246,-37.8126,-74.6253
16:34:42.257,-38.3751,-77.0628
16:34:42.266,-39.2501,-78.8128
16:34:42.277,-41.0002,-79.0628
16:34:42.286,-41.0627,-81.3753
16:34:42.301,-40.6252,-82.1878
16:34:42.309,-41.3127,-83.1878
16:34:42.317,-39.2501,-80.8128
16:34:42.334,-34.2501,-73.8753
16:34:42.337,-27.2501,-61.5627
16:34:42.351,-16.0001,-46.3752
16:34:42.357,-4.125,-25.4376
16:34:42.367,9.5625,-3.8125
16:34:42.376,23.6876,20.3751
16:34:42.386,35.2501,42.8752
16:34:42.397,47.3127,62.3127
16:34:42.428,54.2502,77.3753
16:34:42.430,60.4377,90.0629
16:34:42.433,64.3752,98.0629
16:34:42.437,64.7502,100.6254
16:34:42.446,64.2502,101.2504
16:34:42.456,61.8752,98.6254
16:34:42.466,59.5627,94.6254
16:34:42.475,54.3127,87.6253
16:34:42.486,50.4377,80.6878
16:34:42.497,45.0627,72.4378
16:34:42.505,39.6877,64.3127
16:34:42.516,34.9376,56.5627
16:34:42.527,30.7501,47.5627
16:34:42.535,26.3751,40.1877
16:34:42.547,21.5001,31.5001
16:34:42.558,16.2501,23.8126
16:34:42.565,12.0625,16.3126
16:34:42.593,8.625,7.8125
16:34:42.599,4.6875,2
16:34:42.603,2.4375,-2.5625
16:34:42.606,1.3125,-6.25
16:34:42.639,0.875,-8.5625
16:34:42.644,0.9375,-7.5625
16:34:42.644,2,-7.125
16:34:42.647,3.625,-5.5
16:34:42.681,5.25,-2.625
16:34:42.683,7.4375,1.125
16:34:42.687,9.125,3.6875
16:34:42.694,11.125,8.1875
16:34:42.701,13.3751,10
16:34:42.738,13.8126,11.375
16:34:42.741,14.3126,13.8126
16:34:42.744,15.2501,14.1251
16:34:42.745,14.4376,13.0625
16:34:42.752,13.2501,11.3125
16:34:42.759,11.4375,8.8125
16:34:42.766,9.6875,6.4375
16:34:42.777,7.625,2.4375
16:34:42.787,5.5,-0.9375
16:34:42.796,4.0625,-4.5
16:34:42.809,0.9375,-8.375
16:34:42.816,-0.5625,-13.0625
16:34:42.826,-3.9375,-16.6876
16:34:42.837,-6.75,-21.1876
16:34:42.846,-8.9375,-26.8751
16:34:42.857,-12.875,-30.9376
16:34:42.867,-14.6876,-35.4376
16:34:42.876,-16.6876,-40.0627
16:34:42.886,-19.0001,-43.7502
16:34:42.897,-20.3126,-46.9377
16:34:42.906,-22.3751,-50.6877
16:34:42.916,-25.3126,-54.2502
16:34:42.926,-26.5001,-57.0627
16:34:42.937,-27.6251,-59.7502
16:34:42.946,-29.2501,-62.1877
16:34:42.957,-30.6251,-65.5003
16:34:42.967,-31.4376,-66.2503
16:34:42.976,-33.0001,-69.6253
16:34:42.988,-32.8126,-71.0003
16:34:42.996,-35.1251,-72.5003
16:34:43.006,-35.7501,-75.0003
16:34:43.019,-35.9376,-76.0003
16:34:43.027,-37.4376,-78.1253
16:34:43.037,-38.1251,-80.1878
16:34:43.047,-40.0627,-81.8128
16:34:43.056,-41.1877,-84.5003
16:34:43.068,-41.6252,-86.1253
16:34:43.076,-42.8752,-87.3753
16:34:43.087,-43.4377,-87.8128
16:34:43.097,-43.1877,-90.6879
16:34:43.112,-43.3127,-89.8753
16:34:43.128,-42.1252,-90.5004
16:34:43.131,-38.9376,-85.6253
16:34:43.145,-34.1876,-78.0628
16:34:43.148,-25.1251,-65.0003
16:34:43.163,-14.6251,-46.1252
16:34:43.168,-0.8125,-26.0626
16:34:43.176,12.5625,-1.4375
16:34:43.187,26.8751,21.5001
16:34:43.196,40.6877,44.9377
16:34:43.207,50.8752,65.0002
16:34:43.216,60.1252,80.8128
16:34:43.226,64.9377,92.5629
16:34:43.236,68.4378,98.8129
16:34:43.246,69.1253,101.8129
16:34:43.257,67.0003,100.4379
16:34:43.290,65.1877,98.0629
16:34:43.293,60.9377,91.8129
16:34:43.295,56.4377,85.3753
16:34:43.300,51.8127,77.0628
16:34:43.330,47.0627,69.4378
16:34:43.332,42.6877,61.0627
16:34:43.334,38.4376,53.8127
16:34:43.337,33.0001,44.3752
16:34:43.368,28.4376,36.6876
16:34:43.371,23.5001,27.0626
16:34:43.373,18.6876,19.4376
16:34:43.380,15.0626,11.25
16:34:43.394,9.9375,4.8125
16:34:43.398,7.5625,-2.375
16:34:43.406,4.375,-6.4375
16:34:43.420,4.25,-9.9375
16:34:43.429,2.375,-11.25
16:34:43.449,3.125,-11.4375
16:34:43.452,5,-11.5625
16:34:43.457,5.0625,-8.5
16:34:43.466,8.25,-6.4375
16:34:43.476,10.5,-1.3125
16:34:43.486,13.125,1
16:34:43.497,14.9376,4.6875
16:34:43.507,15.8126,6.875
16:34:43.518,17.3751,10.125
16:34:43.526,18.4376,10.75
16:34:43.536,18.1251,10.9375
16:34:43.546,17.0626,11.0625
16:34:43.557,16.8126,9.8125
16:34:43.567,15.5001,7
16:34:43.579,13.5626,5
16:34:43.587,11.4375,1.4375
16:34:43.596,9.1875,-1.8125
16:34:43.619,6.8125,-6.5625
16:34:43.621,4.5,-10.0625
16:34:43.629,2.25,-14.9376
16:34:43.638,-1.625,-18.6876
16:34:43.652,-4.4375,-24.6251
16:34:43.661,-6.8125,-29.7501
16:34:43.666,-8.625,-33.6876
16:34:43.677,-10.9375,-37.2501
16:34:43.707,-13.5626,-41.6252
16:34:43.709,-14.8126,-45.4377
16:34:43.712,-17.3751,-49.0627
16:34:43.717,-18.5626,-52.1877
16:34:43.726,-21.6251,-55.6252
16:34:43.736,-22.4376,-58.2502
16:34:43.747,-23.6251,-61.8752
16:34:43.758,-25.8126,-64.6252
16:34:43.766,-27.3751,-68.0628
16:34:43.776,-29.3751,-71.8753
16:34:43.787,-30.6876,-73.6253
16:34:43.797,-31.9376,-75.3128
16:34:43.806,-33.1251,-78.4378
16:34:43.816,-34.1876,-79.6878
16:34:43.826,-34.4376,-82.6253
16:34:43.836,-35.9376,-83.1253
16:34:43.847,-36.8126,-85.5628
16:34:43.856,-38.5001,-87.5628
16:34:43.866,-39.2501,-89.6878
16:34:43.876,-39.0626,-90.3128
16:34:43.893,-39.0001,-90.0628
16:34:43.897,-38.1876,-91.3129
16:34:43.906,-36.9376,-90.5628
16:34:43.916,-37.8126,-91.6879
16:34:43.926,-36.3126,-90.6879
16:34:43.937,-32.7501,-85.3128
16:34:43.947,-25.8751,-76.5003
16:34:43.956,-16.1251,-61.8127
16:34:43.966,-5.0625,-43.6252
16:34:43.981,8.25,-22.3126
16:34:44.009,20.6251,0.5
16:34:44.011,33.1876,21.6876
16:34:44.013,45.0627,43.3127
16:34:44.016,54.7502,61.2502
16:34:44.050,62.4377,74.6253
16:34:44.052,65.5002,84.8753
16:34:44.056,67.7503,89.7503
16:34:44.057,68.0003,91.0629
16:34:44.088,66.0628,90.1878
16:34:44.089,62.9377,84.8128
16:34:44.092,58.7502,79.8753
16:34:44.100,53.9377,72.0003
16:34:44.126,48.6877,64.3752
16:34:44.128,42.7502,57.1877
16:34:44.130,37.1876,47.0627
16:34:44.153,32.3751,38.5626
16:34:44.156,26.8126,29.5626
16:34:44.158,20.6876,20.7501
16:34:44.166,14.8126,10.75
16:34:44.176,10.4375,2.25
16:34:44.186,5.6875,-4.75
16:34:44.197,1.9375,-11.8125
16:34:44.206,-1.0625,-16.5626
16:34:44.216,-3.0625,-21.4376
16:34:44.227,-4.625,-23.5626
16:34:44.237,-6.1875,-26.6251
16:34:44.247,-6.0625,-26.4376
16:34:44.256,-5.375,-24.5001
16:34:44.271,-4,-21.5626
16:34:44.277,-1.75,-18.0001
16:34:44.286,0.0625,-13.8751
16:34:44.296,3.1875,-8.75
16:34:44.306,6.3125,-3.5625
16:34:44.317,8.9375,0
16:34:44.326,9.5625,2.5
16:34:44.336,10,4.6875
16:34:44.347,9.6875,4.1875
16:34:44.356,9.375,4.625
16:34:44.367,8.875,3.1875
16:34:44.376,7.5,3.125
16:34:44.387,5.75,0.375
16:34:44.396,5.375,-1.75
16:34:44.406,3.1875,-3.375
16:34:44.417,2.125,-7.1875
16:34:44.432,0.3125,-9.625
16:34:44.439,-1.3125,-12.0625
16:34:44.446,-3.625,-16.8126
16:34:44.461,-6,-21.0626
16:34:44.470,-8.5625,-25.2501
16:34:44.477,-12.1875,-28.8126
16:34:44.486,-14.6876,-34.0626
16:34:44.497,-17.1876,-38.6251
16:34:44.506,-19.1251,-41.2502
16:34:44.517,-20.8126,-45.4377
16:34:44.527,-23.7501,-48.1252
16:34:44.537,-24.6876,-51.6877
16:34:44.547,-26.4376,-55.1877
16:34:44.556,-28.3751,-57.8127
16:34:44.566,-29.7501,-62.5627
16:34:44.576,-30.4376,-64.9377
16:34:44.588,-32.6251,-67.5003
16:34:44.597,-33.3126,-69.3753
16:34:44.607,-34.6251,-71.9378
16:34:44.617,-35.2501,-74.6878
16:34:44.627,-36.6876,-75.6253
16:34:44.636,-36.9376,-78.3128
16:34:44.647,-37.2501,-79.4378
16:34:44.657,-37.8126,-78.9378
16:34:44.667,-35.3126,-78.2503
16:34:44.677,-30.1876,-72.1253
16:34:44.686,-24.2501,-61.6252
16:34:44.696,-14.2501,-46.9377
16:34:44.706,-2.5,-27.8126
16:34:44.716,9.8125,-8.3125
16:34:44.726,22.6251,13.7501
16:34:44.738,34.0001,35.5626
16:34:44.747,44.6877,52.5002
16:34:44.757,53.0627,68.0628
16:34:44.766,57.8127,78.5628
16:34:44.777,61.5627,85.3128
16:34:44.804,62.4377,89.5003
16:34:44.807,61.8127,88.8753
16:34:44.808,60.0002,86.1253
16:34:44.845,56.3752,83.1878
16:34:44.849,52.1877,75.0628
16:34:44.850,47.6877,67.8128
16:34:44.852,41.7502,60.0002
16:34:44.858,36.9376,50.3127
16:34:44.901,31.8751,42.1252
16:34:44.901,26.0001,33.6251
16:34:44.905,20.8126,24.5001
16:34:44.936,14.8126,14.7501
16:34:44.976,9.5625,6.625
16:34:44.998,4.8125,-2.9375
16:34:45.013,0.6875,-10
16:34:45.019,-2.5625,-16.8751
16:34:45.019,-5.125,-21.8126
16:34:45.030,-6.6875,-25.7501
16:34:45.032,-7.6875,-26.5626
16:34:45.035,-6.8125,-26.0626
16:34:45.035,-5.1875,-25.2501
16:34:45.035,-3.9375,-22.3751
16:34:45.043,-0.8125,-18.0001
16:34:45.051,1.5,-14.5626
16:34:45.061,3.9375,-10.125
16:34:45.072,6.4375,-7.625
16:34:45.081,8.0625,-4.3125
16:34:45.091,9.375,-2.125
16:34:45.101,9.5625,-0.5
16:34:45.111,10.4375,0.4375
16:34:45.121,9.625,0.875
16:34:45.131,8.5625,0.0625
16:34:45.141,7.25,-1.9375
16:34:45.152,1.875,-11.125
16:34:45.162,0.3125,-15.3126
16:34:45.171,-1.5625,-18.5626
16:34:45.182,-4.3125,-23.1251
16:34:45.192,-7.0625,-27.0001
16:34:45.203,-10.6875,-31.9376
16:34:45.213,-12.8125,-37.1251
16:34:45.221,-15.6251,-39.6877
16:34:45.231,-17.6876,-44.3752
16:34:45.242,-20.1876,-48.1877
16:34:45.251,-22.6251,-51.8127
16:34:45.261,-25.0626,-56.8752
16:34:45.272,-26.5626,-59.6877
16:34:45.282,-29.0001,-64.4377
16:34:45.292,-31.4376,-68.3128
16:34:45.302,-33.3126,-70.1878
16:34:45.312,-35.0626,-74.5003
16:34:45.321,-37.0001,-77.8753
16:34:45.331,-38.5626,-79.6253
16:34:45.342,-39.5627,-82.1253
16:34:45.353,-40.9377,-83.1878
16:34:45.362,-39.7502,-83.8128
16:34:45.372,-38.0626,-81.9378
16:34:45.381,-33.4376,-75.6878
16:34:45.391,-26.5001,-64.5627
16:34:45.401,-15.3751,-48.1252
16:34:45.411,-3.375,-27.6876
16:34:45.421,10.5625,-5.0625
16:34:45.433,24.5626,19.1876
16:34:45.443,38.7501,42.5002
16:34:45.451,49.8127,64.1252
16:34:45.461,59.6252,81.2503
16:34:45.472,66.3128,95.2504
16:34:45.482,70.8128,102.2504
16:34:45.492,72.4378,107.8754
16:34:45.535,72.0003,108.2504
16:34:45.537,71.3128,107.1254
16:34:45.541,67.8753,102.5629
16:34:45.542,64.5002,97.6254
16:34:45.547,59.7502,89.8753
16:34:45.577,54.5002,81.7503
16:34:45.580,49.1877,74.1253
16:34:45.582,43.7502,66.3753
16:34:45.588,38.8751,56.4377
16:34:45.603,33.7501,48.5627
16:34:45.605,28.1251,39.4377
16:34:45.638,23.0626,29.6876
16:34:45.642,17.1251,20.5626
16:34:45.643,13.4376,13.4376
16:34:45.650,9,6.375
16:34:45.681,5.8125,0.875
16:34:45.683,3.625,-3.4375
16:34:45.685,2.625,-5.875
16:34:45.693,3.0625,-6.9375
16:34:45.697,3.3125,-7.0625
16:34:45.709,5.25,-4.8125
16:34:45.716,7.1875,-1.5
16:34:45.726,8.8125,2.6875
16:34:45.749,11.3125,6.1875
16:34:45.754,14.1876,9.625
16:34:45.769,15.3751,13.5626
16:34:45.778,17.5001,15.3751
16:34:45.780,18.5001,17.5626
16:34:45.786,18.6251,18.6876
16:34:45.797,18.0001,18.4376
16:34:45.806,17.6876,15.8751
16:34:45.816,16.0001,14.6876
16:34:45.827,14.4376,12.25
16:34:45.836,12,9.0625
16:34:45.846,9.875,5
16:34:45.856,7.625,0.8125
16:34:45.866,5.375,-2
16:34:45.876,2.6875,-7.8125
16:34:45.886,0.5,-10.9375
16:34:45.896,-1.75,-15.5626
16:34:45.907,-4.5625,-18.7501
16:34:45.917,-7.375,-22.5001
16:34:45.926,-9.8125,-27.7501
16:34:45.936,-12,-31.3126
16:34:45.948,-14.6876,-35.5001
16:34:45.957,-17.0001,-39.8127
16:34:45.967,-18.8126,-43.2502
16:34:45.976,-21.0001,-47.8752
16:34:45.987,-23.3751,-51.0002
16:34:45.998,-25.5626,-55.3752
16:34:46.007,-27.4376,-58.7502
16:34:46.017,-29.0626,-61.2502
16:34:46.026,-30.9376,-64.0002
16:34:46.036,-31.9376,-66.9378
16:34:46.047,-33.7501,-70.0003
16:34:46.056,-35.0626,-72.3753
16:34:46.067,-35.9376,-74.5628
16:34:46.077,-38.0001,-76.2503
16:34:46.088,-37.5001,-77.1253
16:34:46.096,-37.9376,-76.9378
16:34:46.108,-34.1876,-73.6253
16:34:46.117,-29.5001,-65.5628
16:34:46.126,-19.7501,-51.3752
16:34:46.137,-7.1875,-33.4376
16:34:46.148,7.3125,-8.6875
16:34:46.157,22.3126,15.3126
16:34:46.167,37.6876,40.0627
16:34:46.177,51.6252,65.1877
16:34:46.188,63.0002,84.6878
16:34:46.196,72.8128,102.1254
16:34:46.208,78.5003,115.0004
16:34:46.218,82.6878,121.813
16:34:46.226,83.0628,125.5005
16:34:46.238,83.2503,124.3755
16:34:46.268,80.1878,122.438
16:34:46.269,77.1253,117.0004
16:34:46.272,72.4378,110.2504
16:34:46.278,67.9378,102.6254
16:34:46.344,62.6877,95.1879
16:34:46.344,57.1877,85.6253
16:34:46.348,52.7502,78.9378
16:34:46.351,47.1877,68.8753
16:34:46.352,42.3752,61.1252
16:34:46.352,38.3126,52.8127
16:34:46.359,33.1251,45.2502
16:34:46.389,27.8126,37.3126
16:34:46.390,23.3126,28.8126
16:34:46.393,19.1876,22.0001
16:34:46.399,16.0001,15.9376
16:34:46.431,14.1876,12.4375
16:34:46.433,13.2501,10.9375
16:34:46.435,14.0626,9.4375
16:34:46.441,14.1251,9.5625
16:34:46.447,15.6876,11.375
16:34:46.457,17.3751,14.5001
16:34:46.468,19.3751,17.5626
16:34:46.477,21.1876,21.5001
16:34:46.488,23.1251,23.6251
16:34:46.497,24.6251,26.4376
16:34:46.506,26.1251,28.1251
16:34:46.517,27.7501,30.6876
16:34:46.531,26.0001,30.5626
16:34:46.538,25.0626,27.1876
16:34:46.546,23.2501,25.2501
16:34:46.558,21.5626,22.1251
16:34:46.567,18.3751,18.5626
16:34:46.577,15.7501,14.4376
16:34:46.588,15.7501,12.0625
16:34:46.597,14.3126,10.5
16:34:46.606,7.6875,3.875
16:34:46.617,-1.875,-6.0625
16:34:46.628,-4.4375,-8.4375
16:34:46.636,-6.5625,-10.5625
16:34:46.648,-8.875,-14.1876
16:34:46.657,-11,-17.1876
16:34:46.667,-13.6251,-19.3126
16:34:46.678,-15.8126,-21.8751
16:34:46.688,-18.5001,-24.9376
16:34:46.698,-19.1876,-26.5626
16:34:46.708,-20.1876,-29.0626
16:34:46.719,-20.9376,-30.8126
16:34:46.728,-21.3126,-31.7501
16:34:46.738,-21.6251,-32.1876
16:34:46.748,-21.6251,-32.2501
16:34:46.758,-21.1876,-32.5001
16:34:46.768,-21.1251,-34.7501
16:34:46.777,-22.8751,-37.8751
16:34:46.788,-24.4376,-40.0002
16:34:46.797,-27.3751,-44.0002
16:34:46.808,-29.5001,-47.2502
16:34:46.818,-30.7501,-50.0627
16:34:46.828,-33.7501,-53.6877
16:34:46.837,-36.7501,-58.5627
16:34:46.848,-38.6251,-63.0002
16:34:46.858,-41.9377,-66.0003
16:34:46.866,-44.3752,-71.1253
16:34:46.878,-47.2502,-75.9378
16:34:46.888,-50.0627,-79.6253
16:34:46.896,-52.4377,-84.7503
16:34:46.910,-53.0627,-86.3128
16:34:46.918,-51.6877,-86.1253
16:34:46.930,-47.1252,-79.1253
16:34:46.962,-39.1252,-68.6878
16:34:46.964,-27.9376,-52.3752
16:34:46.966,-16.1251,-33.3751
16:34:46.969,-1.875,-10.6875
16:34:47.005,12.375,12.6875
16:34:47.009,25.1876,33.8751
16:34:47.011,35.5001,51.7502
16:34:47.015,43.1252,66.2503
16:34:47.023,48.3752,75.8753
16:34:47.092,51.9377,81.8128
16:34:47.092,52.2502,85.6253
16:34:47.094,51.2502,84.1253
16:34:47.099,49.2502,82.0003
16:34:47.099,45.8127,77.7503
16:34:47.101,42.5002,70.7503
16:34:47.107,37.1876,64.6877
16:34:47.107,34.3126,56.4377
16:34:47.109,30.5001,49.6877
16:34:47.118,27.4376,42.6877
16:34:47.128,24.3126,35.5626
16:34:47.138,20.3126,29.1251
16:34:47.146,17.6876,22.6876
16:34:47.158,13.3751,15.5626
16:34:47.166,9.5,9.75
16:34:47.178,7.625,2.5
16:34:47.188,4.125,-2.1875
16:34:47.197,3.1875,-6.375
16:34:47.208,2.8125,-9.5625
16:34:47.218,3.1875,-10.75
16:34:47.228,5,-10.0625
16:34:47.238,5.9375,-8.5
16:34:47.248,8.1875,-6.875
16:34:47.258,10.3125,-3.9375
16:34:47.268,11.875,0.3125
16:34:47.278,14.1876,3.5
16:34:47.291,16.8751,7.0625
16:34:47.299,18.8751,10.625
16:34:47.308,20.6876,12.1875
16:34:47.318,22.6251,14.3126
16:34:47.326,24.4376,15.8751
16:34:47.338,26.6876,15.2501
16:34:47.348,27.2501,15.1876
16:34:47.357,27.7501,14.1251
16:34:47.369,26.5626,13
16:34:47.379,24.4376,8.9375
16:34:47.387,21.1876,4.875
16:34:47.398,18.6251,0
16:34:47.408,16.2501,-4.75
16:34:47.419,13.3751,-9.5625
16:34:47.428,11.6875,-13.8751
16:34:47.437,10.125,-17.3751
16:34:47.448,8.375,-22.2501
16:34:47.459,5.75,-26.6251
16:34:47.468,3.0625,-31.1876
16:34:47.478,-0.0625,-36.4376
16:34:47.488,-5,-40.6877
16:34:47.497,-10.6875,-47.4377
16:34:47.508,-19.0001,-53.0002
16:34:47.518,-28.6876,-60.8752
16:34:47.547,-36.3751,-68.8753
16:34:47.549,-41.8752,-73.5003
16:34:47.552,-45.6252,-77.8128
16:34:47.558,-49.6252,-80.5628
16:34:47.568,-52.0627,-84.4378
16:34:47.580,-56.4377,-87.5003
16:34:47.594,-59.1877,-89.8753
16:34:47.611,-62.3127,-92.8754
16:34:47.613,-63.5627,-94.4379
16:34:47.619,-64.6877,-96.7504
16:34:47.627,-66.2503,-99.6879
16:34:47.638,-67.8753,-100.6254
16:34:47.648,-69.2503,-103.6254
16:34:47.658,-70.4378,-105.6254
16:34:47.666,-71.8753,-109.1254
16:34:47.678,-73.9378,-110.5004
16:34:47.688,-75.8753,-114.9379
16:34:47.700,-78.3753,-116.4379
16:34:47.729,-80.3128,-121.3755
16:34:47.732,-81.3753,-123.1255
16:34:47.733,-83.0003,-124.438
16:34:47.739,-82.0003,-126.0005
16:34:47.767,-79.8128,-123.1255
16:34:47.769,-74.5628,-116.8754
16:34:47.772,-65.3128,-103.0629
16:34:47.778,-52.8752,-86.5628
16:34:47.812,-39.8752,-65.1877
16:34:47.816,-25.5626,-42.6252
16:34:47.818,-10.875,-18.6876
16:34:47.822,2.5,4.5625
16:34:47.828,14.3751,23.6251
16:34:47.861,24.5001,42.1877
16:34:47.863,32.5626,55.0627
16:34:47.866,38.5001,66.1253
16:34:47.868,42.0002,71.8753
16:34:47.878,43.4377,75.1253
16:34:47.887,42.8127,75.5003
16:34:47.897,42.1252,72.1253
16:34:47.909,40.1252,68.9378
16:34:47.918,37.1251,63.5627
16:34:47.929,35.5626,58.6252
16:34:47.940,31.5626,52.9377
16:34:47.948,27.2501,44.3127
16:34:47.958,23.7501,37.0626
16:34:47.968,19.0001,30.1251
16:34:47.977,16.3126,23.1876
16:34:47.988,13.7501,14.5626
16:34:47.998,10.8125,8.9375
16:34:48.008,8,0.9375
16:34:48.018,5.5,-5
16:34:48.029,5.0625,-9.75
16:34:48.044,2.625,-13.7501
16:34:48.048,3.3125,-15.7501
16:34:48.058,3.25,-15.7501
16:34:48.068,5.375,-13.6251
16:34:48.078,7.125,-13.0625
16:34:48.088,9.25,-9.6875
16:34:48.098,12.5,-6.9375
16:34:48.108,16.7501,-1.1875
16:34:48.118,22.3751,2.375
16:34:48.128,26.8126,7.8125
16:34:48.138,31.5001,11.125
16:34:48.148,34.1251,15.2501
16:34:48.158,37.0626,18.5001
16:34:48.168,38.1251,19.3751
16:34:48.178,38.3126,19.0626
16:34:48.188,37.6251,18.5001
16:34:48.198,36.0626,16.3126
16:34:48.208,35.8751,14.5001
16:34:48.218,33.5626,12.0625
16:34:48.227,32.2501,9.0625
16:34:48.238,30.0626,6.25
16:34:48.248,28.4376,2.9375
16:34:48.258,25.3751,-0.8125
16:34:48.268,23.1251,-5.6875
16:34:48.277,18.1251,-9.4375
16:34:48.288,13.7501,-14.5626
16:34:48.298,6,-19.9376
16:34:48.308,-2.25,-26.4376
16:34:48.318,-12.25,-35.2501
16:34:48.328,-24.5626,-43.6877
16:34:48.352,-34.8126,-53.0002
16:34:48.355,-40.8752,-58.8752
16:34:48.369,-45.9377,-63.6877
16:34:48.373,-50.4377,-67.6253
16:34:48.378,-54.8127,-70.8753
16:34:48.387,-56.9377,-74.8753
16:34:48.398,-59.7502,-79.1878
16:34:48.408,-63.1252,-82.7503
16:34:48.419,-65.3127,-86.7503
16:34:48.428,-67.7503,-90.6254
16:34:48.438,-69.8753,-92.1879
16:34:48.457,-71.1878,-96.2504
16:34:48.459,-72.7503,-99.5004
16:34:48.499,-73.7503,-100.9379
16:34:48.505,-74.9378,-104.7504
16:34:48.507,-75.8128,-106.0629
16:34:48.511,-76.3753,-108.4379
16:34:48.537,-75.8753,-107.8129
16:34:48.538,-71.3753,-104.6254
16:34:48.540,-65.1253,-96.7504
16:34:48.548,-55.5002,-82.6253
16:34:48.548,-45.1252,-64.1252
16:34:48.594,-31.8126,-45.1252
16:34:48.596,-17.3126,-23.5001
16:34:48.598,-5.4375,-1.8125
16:34:48.599,6.9375,17.3126
16:34:48.602,16.7501,34.7501
16:34:48.628,24.0001,47.6877
16:34:48.629,29.6876,58.6877
16:34:48.632,32.4376,63.8752
16:34:48.638,34.7501,67.3128
16:34:48.649,34.0626,68.7503
16:34:48.659,33.0001,65.7503
16:34:48.668,30.9376,62.9377
16:34:48.678,28.7501,57.3127
16:34:48.689,26.2501,51.2502
16:34:48.698,22.9376,45.2502
16:34:48.708,20.8751,38.7501
16:34:48.718,16.8126,33.6876
16:34:48.728,13.5001,24.8126
16:34:48.738,9.625,18.0626
16:34:48.748,5.5,9.3125
16:34:48.758,1.8125,2
16:34:48.768,-1.3125,-5.0625
16:34:48.778,-3.0625,-9.875
16:34:48.791,-4.125,-14.6251
16:34:48.797,-5.125,-18.6876
16:34:48.828,-4.25,-19.6251
16:34:48.831,-2.75,-19.5626
16:34:48.833,-0.3125,-17.7501
16:34:48.841,1.4375,-16.3126
16:34:48.848,5.125,-12.375
16:34:48.858,7.1875,-8.6875
16:34:48.867,10.9375,-4.375
16:34:48.890,13.2501,0.3125
16:34:48.896,17.3126,3.6875
16:34:48.910,18.8751,6.1875
16:34:48.912,21.7501,9.125
16:34:48.918,24.2501,10.875
16:34:48.928,25.4376,12.6875
16:34:48.938,26.4376,11.5625
16:34:48.948,27.9376,12.5
16:34:48.963,25.6876,10.8125
16:34:48.973,23.9376,7.75
16:34:48.982,21.1251,4.6875
16:34:48.993,17.5001,-0.5625
16:34:49.003,15.9376,-3.8125
16:34:49.013,14.3751,-7.25
16:34:49.024,11.625,-10.8125
16:34:49.033,10.4375,-15.0001
16:34:49.043,7.375,-18.0001
16:34:49.052,5.5625,-21.1251
16:34:49.065,3.5625,-25.0626
16:34:49.073,1.125,-29.3126
16:34:49.082,-4.0625,-33.4376
16:34:49.093,-10.5625,-38.8126
16:34:49.102,-18.0626,-44.4377
16:34:49.113,-27.1876,-52.5627
16:34:49.127,-38.7501,-62.0627
16:34:49.133,-43.6252,-66.4378
16:34:49.166,-47.0002,-69.1253
16:34:49.168,-49.5627,-71.8753
16:34:49.171,-53.6877,-74.7503
16:34:49.173,-55.8127,-77.9378
16:34:49.207,-58.5627,-79.6878
16:34:49.209,-59.9377,-82.3753
16:34:49.211,-61.6252,-85.3128
16:34:49.213,-63.2502,-86.9378
16:34:49.241,-65.4378,-90.7504
16:34:49.244,-67.0003,-93.4379
16:34:49.245,-68.6253,-96.3129
16:34:49.254,-70.2503,-99.9379
16:34:49.290,-71.1878,-103.1254
16:34:49.291,-72.8128,-105.5629
16:34:49.293,-73.0003,-107.1879
16:34:49.295,-73.3128,-109.8129
16:34:49.303,-73.0628,-109.1254
16:34:49.318,-70.9378,-107.5629
16:34:49.324,-65.5003,-99.8754
16:34:49.333,-57.6252,-87.3128
16:34:49.343,-44.8752,-70.1253
16:34:49.353,-32.0626,-48.5002
16:34:49.363,-16.5001,-24.8751
16:34:49.373,-1.4375,0.1875
16:34:49.382,12.875,23.6251
16:34:49.393,24.3126,46.3127
16:34:49.403,35.1251,64.3127
16:34:49.413,43.5002,77.6878
16:34:49.423,46.5627,86.8753
16:34:49.432,49.0002,91.5004
16:34:49.443,49.6252,94.1879
16:34:49.453,49.1877,93.0629
16:34:49.463,48.5002,91.6254
16:34:49.473,46.6252,88.3753
16:34:49.482,45.3752,83.9378
16:34:49.493,42.6877,78.7503
16:34:49.503,39.8127,73.2503
16:34:49.513,37.9376,68.0628
16:34:49.523,34.3751,61.7502
16:34:49.533,31.6251,54.5002
16:34:49.542,27.9376,47.1252
16:34:49.553,25.0626,40.3752
16:34:49.563,22.0001,33.5001
16:34:49.573,20.6876,27.5626
16:34:49.582,17.9376,22.5626
16:34:49.593,17.5626,18.0626
16:34:49.603,16.0626,15.0001
16:34:49.613,16.5626,12.125
16:34:49.624,16.2501,11.25
16:34:49.633,16.1876,12.3125
16:34:49.649,18.6876,13
16:34:49.664,20.6251,15.8751
16:34:49.667,23.0001,18.1876
16:34:49.673,25.3751,20.9376
16:34:49.683,27.6251,26.1251
16:34:49.693,30.1251,27.6876
16:34:49.703,32.1251,31.7501
16:34:49.713,33.8751,33.1251
16:34:49.722,35.1251,35.0626
16:34:49.733,36.6251,35.2501
16:34:49.743,36.4376,35.8751
16:34:49.753,34.1251,32.4376
16:34:49.763,31.6251,30.7501
16:34:49.773,28.5626,26.1876
16:34:49.782,25.7501,22.2501
16:34:49.792,23.1251,17.8751
16:34:49.803,20.2501,14.5626
16:34:49.813,18.6251,10.9375
16:34:49.822,15.9376,7.125
16:34:49.833,13.3751,3
16:34:49.843,10.3125,-1.5625
16:34:49.853,6.5625,-6.5
16:34:49.863,1.8125,-10.625
16:34:49.874,-3.8125,-16.8126
16:34:49.883,-9.75,-20.7501
16:34:49.896,-15.0001,-27.6251
16:34:49.925,-21.1251,-32.6251
16:34:49.926,-25.8751,-37.5001
16:34:49.929,-30.4376,-41.5627
16:34:49.936,-34.6251,-46.6252
16:34:49.963,-38.6251,-51.4377
16:34:49.966,-42.1252,-55.5627
16:34:49.967,-45.4377,-57.6877
16:34:49.973,-47.3752,-60.4377
16:34:50.008,-47.7502,-63.0002
16:34:50.009,-48.9377,-65.4377
16:34:50.012,-50.8752,-67.0628
16:34:50.040,-52.1252,-69.8753
16:34:50.041,-54.1252,-72.0628
16:34:50.043,-55.4377,-75.1253
16:34:50.050,-58.1877,-80.1878
16:34:50.056,-59.6252,-82.6878
16:34:50.074,-62.0627,-87.0628
16:34:50.077,-63.9377,-89.3128
16:34:50.085,-64.8127,-92.8129
16:34:50.108,-65.2503,-94.3129
16:34:50.110,-65.1878,-95.6879
16:34:50.113,-65.1253,-96.6879
16:34:50.122,-65.5628,-98.8129
16:34:50.133,-65.5003,-100.0629
16:34:50.143,-63.5627,-98.8129
16:34:50.152,-61.0002,-94.8129
16:34:50.163,-55.3127,-87.4378
16:34:50.173,-46.3127,-74.1253
16:34:50.189,-36.2501,-57.3752
16:34:50.204,-23.0001,-36.4376
16:34:50.207,-9.4375,-13.8126
16:34:50.214,5.4375,9.6875
16:34:50.223,18.1876,33.0001
16:34:50.232,29.6251,51.8127
16:34:50.242,40.1877,69.3753
16:34:50.253,47.3127,82.1253
16:34:50.262,52.5002,90.1878
16:34:50.274,54.7502,96.6254
16:34:50.283,56.0627,97.3754
16:34:50.294,56.3752,96.7504
16:34:50.304,54.5002,95.2504
16:34:50.313,52.6877,89.3128
16:34:50.323,50.1252,85.4378
16:34:50.333,47.0627,80.2503
16:34:50.344,44.5002,73.5628
16:34:50.354,42.3127,68.8753
16:34:50.363,40.5627,62.2502
16:34:50.373,37.3751,56.3127
16:34:50.383,34.4376,49.0002
16:34:50.393,31.0001,40.6877
16:34:50.403,27.7501,34.5001
16:34:50.414,24.7501,27.6251
16:34:50.425,22.6876,22.2501
16:34:50.433,20.2501,17.6251
16:34:50.449,19.5626,15.2501
16:34:50.454,18.7501,13.4376
16:34:50.462,19.6251,13.8751
16:34:50.473,22.0001,15.8126
16:34:50.482,23.4376,18.6876
16:34:50.493,26.8751,20.6876
16:34:50.502,28.7501,24.7501
16:34:50.512,31.1251,29.0626
16:34:50.523,33.6876,31.5626
16:34:50.533,34.2501,34.3751
16:34:50.543,35.0626,35.2501
16:34:50.553,33.3751,36.3126
16:34:50.562,33.0001,36.0001
16:34:50.573,32.0001,34.1251
16:34:50.583,31.9376,34.0001
16:34:50.593,31.2501,33.1876
16:34:50.603,30.1251,31.4376
16:34:50.614,27.5001,28.3126
16:34:50.651,25.3126,26.1251
16:34:50.654,22.3126,21.0626
16:34:50.655,18.6876,17.0001
16:34:50.658,12.9375,11.6875
16:34:50.665,6.6875,6.25
16:34:50.696,0.6875,-0.625
16:34:50.698,-5,-5.625
16:34:50.702,-11.0625,-12.125
16:34:50.704,-15.5626,-16.8751
16:34:50.740,-20.6251,-22.1251
16:34:50.742,-24.9376,-25.5626
16:34:50.746,-27.8751,-29.8126
16:34:50.777,-29.8126,-34.8126
16:34:50.778,-33.5626,-39.6877
16:34:50.782,-37.3126,-42.5002
16:34:50.786,-38.7501,-47.5627
16:34:50.786,-41.8752,-52.1877
16:34:50.808,-44.1252,-55.4377
16:34:50.810,-46.7502,-58.9377
16:34:50.815,-48.5002,-62.8752
16:34:50.831,-51.3127,-67.8128
16:34:50.833,-53.5627,-70.8753
16:34:50.842,-55.6252,-73.5628
16:34:50.853,-57.3127,-78.5628
16:34:50.863,-59.6252,-81.0628
16:34:50.872,-60.4377,-84.3753
16:34:50.883,-61.9377,-85.1878
16:34:50.893,-62.3127,-88.8753
16:34:50.902,-63.0002,-91.3754
16:34:50.913,-63.5627,-91.5629
16:34:50.922,-62.8752,-93.8754
16:34:50.944,-64.1252,-94.9379
16:34:50.951,-63.2502,-94.1254
16:34:50.965,-61.6877,-91.8129
16:34:50.969,-57.0002,-86.0628
16:34:50.973,-49.2502,-75.4378
16:34:50.985,-39.8752,-59.4377
16:34:50.993,-28.5001,-42.7502
16:34:51.002,-15.9376,-21.0626
16:34:51.013,-3.6875,-0.0625
16:34:51.022,9.0625,20.9376
16:34:51.034,19.8751,40.5627
16:34:51.043,29.4376,55.8752
16:34:51.052,36.5001,70.4378
16:34:51.063,42.0002,78.4378
16:34:51.073,46.6877,85.0003
16:34:51.082,47.7502,88.1878
16:34:51.094,47.8752,88.3128
16:34:51.103,46.9377,86.5628
16:34:51.113,45.8127,83.1878
16:34:51.123,41.8752,78.1878
16:34:51.132,39.6877,71.7503
16:34:51.143,35.3751,65.5003
16:34:51.154,32.7501,58.4377
16:34:51.163,29.3751,52.7502
16:34:51.172,26.1251,46.0627
16:34:51.185,23.4376,39.3127
16:34:51.193,20.3126,32.3126
16:34:51.202,17.0001,25.3751
16:34:51.214,14.3126,18.1251
16:34:51.223,12.375,13.2501
16:34:51.235,11.125,8.625
16:34:51.244,9.625,5.1875
16:34:51.253,9.375,3.9375
16:34:51.264,9.8125,2.1875
16:34:51.273,10.6875,3.5625
16:34:51.284,12.8125,4.875
16:34:51.293,14.5626,8
16:34:51.302,16.1876,11.0625
16:34:51.314,18.9376,14.5001
16:34:51.325,21.1876,18.6251
16:34:51.334,24.1251,22.0626
16:34:51.377,24.6251,24.8751
16:34:51.380,25.8751,26.1876
16:34:51.382,25.9376,27.2501
16:34:51.397,24.1876,27.1251
16:34:51.398,22.9376,24.5626
16:34:51.427,20.1876,21.6876
16:34:51.430,17.6876,17.6251
16:34:51.430,13.8751,13.8126
16:34:51.432,10.875,8.875
16:34:51.463,8.125,4.125
16:34:51.464,5.4375,-0.1875
16:34:51.466,2.9375,-4
16:34:51.508,-0.375,-9.9375
16:34:51.529,-3.75,-14.5001
16:34:51.542,-7.6875,-19.3751
16:34:51.544,-12.5,-24.9376
16:34:51.547,-16.8126,-31.9376
16:34:51.548,-23.4376,-38.1876
16:34:51.548,-27.8126,-43.7502
16:34:51.553,-32.9376,-48.9377
16:34:51.564,-35.4376,-52.0627
16:34:51.581,-39.1876,-54.2502
16:34:51.583,-40.5627,-56.9377
16:34:51.593,-42.9377,-59.8752
16:34:51.604,-44.4377,-60.8752
16:34:51.614,-46.0002,-61.2502
16:34:51.624,-47.2502,-63.3127
16:34:51.634,-48.2502,-65.5003
16:34:51.645,-49.8752,-67.2503
16:34:51.654,-50.0627,-68.6253
16:34:51.664,-51.5002,-69.5003
16:34:51.674,-53.1877,-70.6253
16:34:51.686,-53.7502,-72.1878
16:34:51.693,-54.1877,-74.3753
16:34:51.704,-56.3127,-77.7503
16:34:51.714,-63.8127,-90.2503
16:34:51.724,-65.6878,-92.3754
16:34:51.734,-67.6878,-96.1879
16:34:51.745,-68.0628,-99.0629
16:34:51.753,-68.3128,-101.0629
16:34:51.762,-68.0628,-100.3754
16:34:51.776,-67.1253,-100.7504
16:34:51.783,-63.1252,-95.5004
16:34:51.794,-57.2502,-85.2503
16:34:51.804,-47.8127,-72.3753
16:34:51.814,-37.1876,-53.5627
16:34:51.825,-24.8126,-34.8751
16:34:51.833,-10.5,-12.25
16:34:51.842,3.0625,10.375
16:34:51.853,15.4376,32.8126
16:34:51.865,26.5626,52.1252
16:34:51.874,35.5626,68.1878
16:34:51.884,41.2502,78.3753
16:34:51.895,46.1877,85.3753
16:34:51.903,47.1252,89.6878
16:34:51.914,47.3752,89.1878
16:34:51.923,45.5002,88.0003
16:34:51.933,42.8127,82.5628
16:34:51.944,39.9377,78.5628
16:34:51.957,36.6251,72.8753
16:34:51.964,33.3126,66.0628
16:34:51.974,29.5626,60.6252
16:34:51.983,26.3126,53.6877
16:34:51.994,23.1251,46.3127
16:34:52.004,18.5001,38.6876
16:34:52.014,14.5626,31.5001
16:34:52.025,10.75,24.3751
16:34:52.034,6.625,17.8126
16:34:52.045,3.875,12.75
16:34:52.062,1.375,5.875
16:34:52.066,-0.0625,3.4375
16:34:52.106,-1.625,0.25
16:34:52.108,-1.8125,-1.4375
16:34:52.115,-1.25,-1
16:34:52.115,0.125,1.1875
16:34:52.122,2.0625,3.75
16:34:52.125,3.6875,5.375
16:34:52.159,5.1875,9.125
16:34:52.161,7.8125,13
16:34:52.163,9.4375,15.9376
16:34:52.165,12,19.3126
16:34:52.197,12.1875,21.0626
16:34:52.198,12.6875,22.3126
16:34:52.202,13.5626,23.1876
16:34:52.207,12.375,21.8751
16:34:52.221,11.75,21.1251
16:34:52.225,10.375,19.4376
16:34:52.244,9.1875,16.8751
16:34:52.251,6.375,14.1876
16:34:52.265,4.9375,9.4375
16:34:52.267,0.875,5.1875
16:34:52.276,-1.6875,1.25
16:34:52.284,-5.625,-4
16:34:52.293,-8.3125,-9.9375
16:34:52.305,-11.6875,-14.8751
16:34:52.316,-13.8751,-18.6876
16:34:52.328,-17.1876,-24.3126
16:34:52.334,-20.2501,-27.8126
16:34:52.345,-22.0001,-32.9376
16:34:52.354,-24.1251,-36.5626
16:34:52.364,-26.4376,-40.4377
16:34:52.374,-28.6251,-44.8127
16:34:52.384,-30.8126,-48.5627
16:34:52.394,-33.0001,-51.4377
16:34:52.405,-35.4376,-54.3752
16:34:52.414,-36.0626,-56.8127
16:34:52.424,-36.8751,-58.5627
16:34:52.434,-37.6876,-60.1877
16:34:52.444,-37.6876,-59.8752
16:34:52.454,-37.1876,-61.2502
16:34:52.464,-38.3126,-61.5002
16:34:52.475,-38.8751,-62.3127
16:34:52.484,-39.0626,-62.7502
16:34:52.496,-39.3127,-63.0627
16:34:52.504,-40.1252,-65.3128
16:34:52.515,-40.6252,-65.0002
16:34:52.524,-40.8752,-65.2502
16:34:52.534,-40.6252,-65.7503
16:34:52.544,-41.0627,-66.3128
16:34:52.554,-41.6252,-67.6253
16:34:52.565,-41.6252,-67.1253
16:34:52.574,-42.2502,-69.0003
16:34:52.586,-42.7502,-68.6878
16:34:52.595,-42.5002,-69.9378
16:34:52.604,-42.3127,-70.4378
16:34:52.614,-41.1877,-67.7503
16:34:52.624,-37.0626,-63.0627
16:34:52.634,-31.0001,-52.6252
16:34:52.668,-22.6251,-39.3127
16:34:52.670,-11,-23.1876
16:34:52.672,0.6875,-2.125
16:34:52.681,12.875,17.3126
16:34:52.689,26.5626,39.6252
16:34:52.699,39.3126,60.8127
16:34:52.709,49.8752,79.1253
16:34:52.719,56.5627,92.5629
16:34:52.729,62.6877,103.0004
16:34:52.739,64.9377,109.6879
16:34:52.749,66.9378,111.3129
16:34:52.760,65.8753,112.0629
16:34:52.769,64.9377,109.0629
16:34:52.779,62.9377,106.0004
16:34:52.790,58.8752,99.3754
16:34:52.819,54.4377,92.7504
16:34:52.888,50.1252,86.0003
16:34:52.891,43.9377,77.0628
16:34:52.891,40.0627,69.8753
16:34:52.896,33.0001,58.4377
16:34:52.897,28.3126,51.3752
16:34:52.897,23.6876,42.5002
16:34:52.906,19.9376,35.6876
16:34:52.938,15.9376,28.5001
16:34:52.940,12.25,22.9376
16:34:52.942,9.75,17.8751
16:34:52.947,8.3125,13.5001
16:34:52.981,5.5,11.125
16:34:52.983,5.9375,10.125
16:34:52.984,6.75,10.75
16:34:52.991,8.625,11.3125
16:34:52.995,9.625,14.5626
16:34:53.004,11.125,18.1876
16:34:53.015,13.2501,20.0001
16:34:53.030,15.0626,22.8126
16:34:53.040,15.9376,25.5001
16:34:53.050,16.1251,26.5626
16:34:53.059,16.8126,26.4376
16:34:53.069,10.9375,20.5626
16:34:53.082,7.375,16.8751
16:34:53.092,6.3125,13.8126
16:34:53.099,4.5,9.375
16:34:53.109,2.625,6.5625
16:34:53.119,-0.0625,3.3125
16:34:53.129,-1.8125,-1
16:34:53.139,-3.6875,-4.875
16:34:53.149,-5.75,-8.625
16:34:53.160,-7.5625,-13.7501
16:34:53.169,-9.25,-16.9376
16:34:53.179,-12.1875,-21.6251
16:34:53.190,-16.5001,-28.1251
16:34:53.199,-19.5001,-33.0001
16:34:53.209,-21.4376,-38.2501
16:34:53.219,-23.6876,-42.1252
16:34:53.229,-26.2501,-45.6877
16:34:53.239,-28.3126,-48.0002
16:34:53.249,-29.4376,-50.9377
16:34:53.259,-29.8126,-54.2502
16:34:53.269,-31.6251,-57.0627
16:34:53.279,-33.2501,-58.6877
16:34:53.290,-34.1251,-61.8752
16:34:53.299,-36.4376,-64.5627
16:34:53.309,-37.0626,-66.5628
16:34:53.319,-39.1877,-69.0003
16:34:53.329,-39.2502,-71.3128
16:34:53.339,-40.1252,-72.5003
16:34:53.349,-40.1877,-74.0628
16:34:53.359,-40.5002,-75.3753
16:34:53.369,-41.5002,-75.5628
16:34:53.379,-40.6252,-77.3128
16:34:53.389,-38.3126,-72.6878
16:34:53.399,-33.8126,-66.6253
16:34:53.409,-26.2501,-56.1877
16:34:53.419,-16.5001,-39.9377
16:34:53.429,-5.4375,-20.8126
16:34:53.439,7.125,0.125
16:34:53.449,20.3751,20.3126
16:34:53.459,31.4376,41.8127
16:34:53.469,41.1877,57.5627
16:34:53.479,47.7502,72.5003
16:34:53.489,52.8127,81.7503
16:34:53.499,56.9377,88.6878
16:34:53.509,58.0627,93.3129
16:34:53.519,58.1252,93.8754
16:34:53.529,56.5002,92.4379
16:34:53.541,55.0627,89.5003
16:34:53.558,50.4377,85.0628
16:34:53.564,47.5627,78.6253
16:34:53.598,41.8752,71.4378
16:34:53.673,37.5001,64.3127
16:34:53.677,31.5626,56.3752
16:34:53.677,28.6876,49.8752
16:34:53.677,22.8751,42.7502
16:34:53.677,19.8751,35.5001
16:34:53.685,15.1251,28.7501
16:34:53.686,11.25,21.4376
16:34:53.686,7.5625,15.1251
16:34:53.700,4.125,9.9375
16:34:53.704,2.1875,3.625
16:34:53.735,0.25,0.75
16:34:53.737,-0.6875,-0.5625
16:34:53.741,-0.5625,-2.625
16:34:53.746,0.4375,-1.4375
16:34:53.756,1.25,-0.75
16:34:53.764,2.0625,2.125
16:34:53.774,3.75,4.75
16:34:53.784,5.9375,7.8125
16:34:53.794,9.0625,10.6875
16:34:53.804,10.1875,12.875
16:34:53.814,12,15.5001
16:34:53.824,12.875,16.8751
16:34:53.834,14.0626,17.0001
16:34:53.846,13.1876,17.0626
16:34:53.854,9.875,7.0625
16:34:53.864,8.75,4.5
16:34:53.875,5.625,-0.9375
16:34:53.884,3.4375,-4.1875
16:34:53.894,0.5625,-11
16:34:53.904,-2,-14.9376
16:34:53.914,-4.125,-19.9376
16:34:53.949,-6.3125,-23.5626
16:34:53.950,-8.3125,-28.8751
16:34:53.953,-10.25,-33.3751
16:34:53.955,-12.875,-37.5626
16:34:53.965,-16.5626,-42.7502
16:34:53.975,-21.9376,-48.2502
16:34:53.984,-24.5626,-54.6252
16:34:53.995,-26.9376,-58.5627
16:34:54.004,-29.3751,-61.6252
16:34:54.014,-31.0626,-65.3127
16:34:54.025,-31.8126,-68.0003
16:34:54.034,-32.7501,-70.1253
16:34:54.044,-34.8126,-71.9378
16:34:54.055,-34.0001,-73.3753
16:34:54.064,-34.7501,-74.0003
16:34:54.074,-34.5001,-75.8128
16:34:54.084,-34.9376,-76.1878
16:34:54.094,-36.0001,-77.6253
16:34:54.104,-37.0626,-79.8753
16:34:54.115,-37.2501,-80.3753
16:34:54.125,-38.3126,-83.0628
16:34:54.139,-39.5002,-84.8128
16:34:54.148,-40.3752,-87.1253
16:34:54.154,-41.2502,-87.8753
16:34:54.170,-41.2502,-89.5003
16:34:54.186,-42.5627,-92.0629
16:34:54.188,-44.1877,-93.4379
16:34:54.195,-45.0627,-95.0629
16:34:54.210,-45.5002,-96.6879
16:34:54.217,-45.5627,-97.5004
16:34:54.225,-44.9377,-97.2504
16:34:54.260,-42.2502,-92.7504
16:34:54.263,-36.5001,-83.6253
16:34:54.264,-29.1251,-71.9378
16:34:54.267,-18.4376,-54.1877
16:34:54.297,-6,-35.0626
16:34:54.298,6.0625,-13.5626
16:34:54.300,17.5001,8.25
16:34:54.308,29.5626,28.3126
16:34:54.334,38.6251,46.5627
16:34:54.337,46.5627,59.4377
16:34:54.340,51.0002,72.1878
16:34:54.348,55.8752,78.8128
16:34:54.354,56.8752,84.3753
16:34:54.387,57.2502,83.6253
16:34:54.391,55.5002,83.5628
16:34:54.392,53.9377,79.4378
16:34:54.395,49.8752,76.1878
16:34:54.414,46.9377,69.3753
16:34:54.416,42.5627,64.0002
16:34:54.424,38.8126,55.8127
16:34:54.434,34.0001,49.6252
16:34:54.444,30.5001,43.1252
16:34:54.454,26.3126,37.0001
16:34:54.464,21.8751,28.9376
16:34:54.475,17.4376,21.7501
16:34:54.484,13.3126,15.5001
16:34:54.494,9.125,7.9375
16:34:54.504,6.5,2.6875
16:34:54.515,4.625,-1.4375
16:34:54.524,2.375,-4.25
16:34:54.535,2.3125,-5.5
16:34:54.544,2.625,-6.4375
16:34:54.554,2.25,-5.0625
16:34:54.565,4.0625,-4.875
16:34:54.574,5.125,-2.6875
16:34:54.584,6.5,-0.8125
16:34:54.596,8,3.1875
16:34:54.604,9.375,6
16:34:54.614,11,6.5625
16:34:54.625,11.4375,8.4375
16:34:54.634,11.375,8.4375
16:34:54.645,11.5625,8.1875
16:34:54.656,10.875,7.625
16:34:54.664,9.4375,6.375
16:34:54.674,8.125,3.875
16:34:54.684,6.3125,1.5625
16:34:54.694,4.75,-1.9375
16:34:54.704,1.375,-5.9375
16:34:54.715,-0.25,-10.5625
16:34:54.724,-3.1875,-14.2501
16:34:54.734,-5.75,-19.0626
16:34:54.745,-8.875,-23.3126
16:34:54.754,-10.5625,-27.7501
16:34:54.764,-13.3126,-31.9376
16:34:54.774,-15.3751,-35.6251
16:34:54.784,-17.1876,-40.6877
16:34:54.794,-20.4376,-44.0627
16:34:54.804,-22.3126,-49.5627
16:34:54.814,-25.4376,-53.2502
16:34:54.824,-28.6251,-59.5002
16:34:54.835,-32.8751,-64.1877
16:34:54.844,-35.1251,-67.6253
16:34:54.855,-36.8751,-71.1878
16:34:54.864,-38.1251,-72.8753
16:34:54.874,-39.7502,-76.6878
16:34:54.884,-40.6252,-78.3753
16:34:54.897,-42.8127,-79.4378
16:34:54.913,-42.8752,-81.8128
16:34:54.919,-43.1252,-83.0003
16:34:54.927,-42.8127,-83.1878
16:34:54.934,-42.9377,-83.5628
16:34:54.950,-43.0002,-84.8753
16:34:54.958,-44.1252,-85.6878
16:34:54.967,-44.1252,-86.5628
16:34:54.979,-44.8127,-87.8753
16:34:54.995,-45.2502,-89.5003
16:34:55.001,-46.9377,-91.1879
16:34:55.040,-48.6877,-93.3129
16:34:55.041,-49.8752,-96.0629
16:34:55.043,-51.1252,-97.3754
16:34:55.050,-52.1252,-98.7504
16:34:55.050,-54.2502,-101.0629
16:34:55.087,-54.5627,-103.6254
16:34:55.088,-54.6877,-104.2504
16:34:55.090,-54.7502,-104.9379
16:34:55.093,-53.0627,-101.3129
16:34:55.122,-48.5002,-95.8129
16:34:55.124,-40.5627,-83.6253
16:34:55.126,-31.4376,-69.8753
16:34:55.136,-20.0626,-51.0627
16:34:55.140,-2.9375,-21.3126
16:34:55.164,8.0625,-2.375
16:34:55.167,17.8126,16.5001
16:34:55.170,26.6251,31.3751
16:34:55.183,33.9376,45.0002
16:34:55.189,37.6251,55.1877
16:34:55.200,41.3127,62.0627
16:34:55.227,42.3127,64.3127
16:34:55.231,42.1252,65.6253
16:34:55.232,40.1252,64.7502
16:34:55.241,38.8751,62.0002
16:34:55.249,35.5626,58.0627
16:34:55.259,33.1251,53.0627
16:34:55.269,29.3126,48.0002
16:34:55.279,26.1876,41.9377
16:34:55.289,21.5001,35.9376
16:34:55.299,17.8126,29.1876
16:34:55.309,14.2501,22.8751
16:34:55.320,10.625,16.5626
16:34:55.334,7.125,10.3125
16:34:55.339,4.0625,4.9375
16:34:55.350,0.875,-0.6875
16:34:55.359,-1.5625,-4.4375
16:34:55.369,-2.25,-9.5
16:34:55.380,-3.8125,-9.9375
16:34:55.389,-4.5625,-12.25
16:34:55.399,-3.9375,-12.625
16:34:55.409,-3.1875,-11.625
16:34:55.419,-2.3125,-10.875
16:34:55.429,-1.3125,-7.6875
16:34:55.439,0.875,-5.3125
16:34:55.458,1.8125,-2.625
16:34:55.460,4.125,0.5
16:34:55.475,5.6875,3.125
16:34:55.490,5.625,4.8125
16:34:55.494,6.1875,4.4375
16:34:55.503,5.375,5.1875
16:34:55.510,5.125,3.25
16:34:55.519,3.5625,2.9375
16:34:55.529,3,-0.75
16:34:55.539,1.875,-2.125
16:34:55.549,-0.875,-6.25
16:34:55.559,-1.6875,-9.125
16:34:55.569,-3.125,-12.5
16:34:55.580,-6.0625,-15.4376
16:34:55.590,-7.4375,-20.1876
16:34:55.599,-10.3125,-24.3751
16:34:55.609,-12.75,-28.0001
16:34:55.620,-15.1251,-33.5001
16:34:55.629,-18.2501,-37.4376
16:34:55.639,-20.0001,-41.0627
16:34:55.650,-22.5001,-45.5002
16:34:55.659,-24.7501,-49.0002
16:34:55.676,-26.8751,-53.0002
16:34:55.679,-29.1251,-56.9377
16:34:55.718,-31.3751,-60.0627
16:34:55.721,-33.3751,-64.1252
16:34:55.723,-34.7501,-66.0003
16:34:55.726,-37.0001,-69.6878
16:34:55.731,-38.2501,-72.8128
16:34:55.762,-40.3752,-74.9378
16:34:55.764,-41.8752,-78.0003
16:34:55.770,-42.8127,-80.1878
16:34:55.770,-44.2502,-83.7503
16:34:55.801,-45.2502,-85.1878
16:34:55.802,-46.0627,-87.0628
16:34:55.804,-47.1877,-88.0628
16:34:55.812,-47.5002,-89.8128
16:34:55.836,-48.3752,-91.0629
16:34:55.840,-48.0627,-91.5004
16:34:55.842,-48.3127,-91.0629
16:34:55.855,-44.8127,-88.6253
16:34:55.860,-40.5002,-82.4378
16:34:55.869,-33.7501,-70.5628
16:34:55.880,-25.0626,-57.5627
16:34:55.889,-14.9376,-42.5002
16:34:55.899,-5,-24.2501
16:34:55.910,4.6875,-8
16:34:55.920,14.7501,10.75
16:34:55.931,22.1876,25.1251
16:34:55.940,29.7501,38.0001
16:34:55.950,33.5001,47.8752
16:34:55.960,36.9376,53.8127
16:34:55.970,39.0001,58.6252
16:34:55.980,38.6251,60.3127
16:34:55.989,38.5001,59.9377
16:34:55.999,36.3126,56.3752
16:34:56.009,33.8751,53.7502
16:34:56.020,29.7501,48.3127
16:34:56.029,27.3751,43.3752
16:34:56.039,23.0001,39.0627
16:34:56.050,19.9376,31.2501
16:34:56.060,15.8751,25.0626
16:34:56.070,11.5625,18.3751
16:34:56.079,7.9375,12.0625
16:34:56.090,4.625,5
16:34:56.102,0.5625,-1
16:34:56.110,-2.5625,-7.75
16:34:56.120,-5.3125,-12.4375
16:34:56.129,-7.0625,-17.0001
16:34:56.140,-8.25,-19.4376
16:34:56.150,-8.875,-20.9376
16:34:56.160,-8.8125,-22.5626
16:34:56.170,-7,-21.1876
16:34:56.179,-6.3125,-19.3751
16:34:56.190,-5.125,-17.0001
16:34:56.199,-4.0625,-15.6876
16:34:56.210,-1.625,-11.4375
16:34:56.219,-1,-10.5
16:34:56.242,-0.4375,-8.25
16:34:56.244,0.75,-7.625
16:34:56.259,0.375,-6.8125
16:34:56.261,-0.625,-6.8125
16:34:56.278,-0.75,-8
16:34:56.283,-1.5625,-9.5
16:34:56.290,-2.375,-10.9375
16:34:56.300,-3.375,-13.7501
16:34:56.310,-4.4375,-15.5626
16:34:56.320,-7.0625,-17.7501
16:34:56.330,-8.75,-22.7501
16:34:56.341,-9.5625,-25.4376
16:34:56.350,-13.2501,-28.8126
16:34:56.359,-13.7501,-32.6876
16:34:56.370,-17.0001,-36.1251
16:34:56.379,-18.0626,-39.4377
16:34:56.390,-20.7501,-43.5627
16:34:56.399,-22.5001,-47.4377
16:34:56.410,-24.5626,-50.7502
16:34:56.420,-26.8751,-53.6877
16:34:56.431,-28.6876,-58.6252
16:34:56.440,-30.7501,-61.1252
16:34:56.466,-33.3751,-65.5627
16:34:56.469,-34.8751,-69.7503
16:34:56.471,-37.3751,-72.2503
16:34:56.509,-39.1252,-76.3753
16:34:56.511,-40.0002,-79.8128
16:34:56.513,-42.5627,-82.1253
16:34:56.515,-43.4377,-84.6878
16:34:56.523,-44.6252,-87.5003
16:34:56.555,-46.1252,-88.9378
16:34:56.557,-46.5627,-92.3129
16:34:56.560,-48.3127,-93.2504
16:34:56.586,-48.3752,-95.3129
16:34:56.587,-48.8127,-95.5004
16:34:56.589,-47.5627,-94.6254
16:34:56.598,-44.6877,-89.8753
16:34:56.610,-39.0002,-83.7503
16:34:56.612,-32.2501,-72.3128
16:34:56.642,-23.3126,-57.4377
16:34:56.643,-13.3126,-41.6877
16:34:56.647,-3.3125,-23.5001
16:34:56.653,6.8125,-6.25
16:34:56.661,16.0626,10.375
16:34:56.670,24.0626,26.1251
16:34:56.679,30.5001,37.0626
16:34:56.690,35.7501,46.5002
16:34:56.700,37.6251,52.0002
16:34:56.710,39.0001,55.6252
16:34:56.720,38.8751,56.3127
16:34:56.730,37.5626,54.8127
16:34:56.740,33.8126,52.4377
16:34:56.749,31.3126,46.4377
16:34:56.761,28.2501,41.6252
16:34:56.777,24.3126,36.8751
16:34:56.779,20.1251,30.1251
16:34:56.795,17.5001,24.0626
16:34:56.801,12.25,18.1876
16:34:56.810,8.5625,9.75
16:34:56.820,4.4375,4.125
16:34:56.830,1.25,-3.625
16:34:56.842,-2.0625,-9
16:34:56.850,-5.1875,-14.7501
16:34:56.860,-7.9375,-19.4376
16:34:56.870,-10.0625,-23.0001
16:34:56.880,-11,-25.6251
16:34:56.890,-10.4375,-25.4376
16:34:56.900,-10.5625,-26.1251
16:34:56.910,-9.0625,-24.3126
16:34:56.920,-7.1875,-21.8751
16:34:56.931,-5.375,-19.6876
16:34:56.940,-3.1875,-16.8126
16:34:56.950,-2.0625,-13.0625
16:34:56.960,-0.0625,-9.875
16:34:56.970,1.375,-8.5625
16:34:56.981,1.8125,-7.0625
16:34:56.990,3,-6.25
16:34:57.000,2.3125,-5.25
16:34:57.014,2,-7.1875
16:34:57.020,2.25,-8
16:34:57.031,-0.0625,-9.875
16:34:57.040,-1.125,-12.375
16:34:57.050,-2.6875,-14.6251
16:34:57.061,-5.125,-16.1251
16:34:57.075,-6.25,-21.0001
16:34:57.085,-8.0625,-23.2501
16:34:57.095,-10,-27.5001
16:34:57.105,-12.25,-31.1251
16:34:57.116,-14.4376,-34.2501
16:34:57.126,-17.0626,-39.5002
16:34:57.136,-18.0626,-43.4377
16:34:57.145,-21.0001,-45.6877
16:34:57.155,-21.8126,-49.5002
16:34:57.165,-24.3126,-52.4377
16:34:57.178,-26.2501,-56.5627
16:34:57.208,-27.5001,-60.0627
16:34:57.210,-30.5626,-63.5002
16:34:57.213,-32.5626,-67.4378
16:34:57.215,-33.5626,-69.8753
16:34:57.252,-35.3126,-72.1878
16:34:57.253,-37.5626,-76.0628
16:34:57.255,-38.0001,-80.0003
16:34:57.259,-40.0002,-82.2503
16:34:57.266,-41.0627,-83.6253
16:34:57.304,-42.2502,-86.6878
16:34:57.305,-42.8127,-87.8753
16:34:57.308,-43.8752,-90.6879
16:34:57.310,-45.1252,-91.5004
16:34:57.318,-45.1877,-92.0629
16:34:57.355,-45.1252,-93.8129
16:34:57.362,-44.8127,-93.6879
16:34:57.363,-42.6877,-90.6254
16:34:57.369,-38.6876,-85.2503
16:34:57.369,-32.2501,-75.0628
16:34:57.375,-23.6251,-62.6877
16:34:57.389,-14.5626,-46.9377
16:34:57.395,-4.75,-30.7501
16:34:57.405,4.9375,-13.1876
16:34:57.415,15.1876,4
16:34:57.425,23.5001,19.2501
16:34:57.436,30.0626,32.3751
16:34:57.445,34.8126,41.1877
16:34:57.455,38.0001,49.0002
16:34:57.466,38.9376,52.1877
16:34:57.475,40.2502,53.6252
16:34:57.485,38.0001,54.7502
16:34:57.496,35.0001,50.3752
16:34:57.505,32.9376,47.0002
16:34:57.515,29.5626,41.9377
16:34:57.525,24.8126,36.6251
16:34:57.544,21.4376,30.8126
16:34:57.550,18.6251,25.0001
16:34:57.565,14.5001,18.3751
16:34:57.567,10.125,11.25
16:34:57.578,6.6875,5.875
16:34:57.585,3.625,-1.6875
16:34:57.596,-0.25,-7.4375
16:34:57.605,-2.4375,-12.6875
16:34:57.615,-5.3125,-16.5001
16:34:57.625,-6.875,-20.2501
16:34:57.635,-7.6875,-23.0626
16:34:57.645,-8.3125,-23.5001
16:34:57.656,-7.75,-24.3126
16:34:57.665,-7.5625,-23.1876
16:34:57.675,-5.4375,-21.6876
16:34:57.685,-4.0625,-17.8126
16:34:57.696,-1.875,-15.3751
16:34:57.705,-0.5,-13.6876
16:34:57.715,1.3125,-10.4375
16:34:57.725,2.5625,-9.0625
16:34:57.735,3.5625,-7.5625
16:34:57.745,3.9375,-6.5
16:34:57.755,2.9375,-6.75
16:34:57.787,3.0625,-6.875
16:34:57.790,1.0625,-8
16:34:57.793,0.9375,-10.4375
16:34:57.795,-1.625,-12.5625
16:34:57.809,-2.875,-15.1251
16:34:57.815,-4.3125,-16.5001
16:34:57.825,-5.875,-21.5001
16:34:57.835,-7.75,-23.3126
16:34:57.845,-10.125,-27.5626
16:34:57.855,-11.75,-29.8751
16:34:57.865,-13.9376,-35.2501
16:34:57.875,-16.2501,-37.9376
16:34:57.885,-18.4376,-42.6252
16:34:57.895,-19.6251,-45.5627
16:34:57.905,-22.2501,-48.1877
16:34:57.943,-23.6251,-52.7502
16:34:57.945,-25.7501,-54.6877
16:34:57.947,-27.1876,-59.6252
16:34:57.949,-29.5626,-61.5002
16:34:57.956,-30.6251,-65.6878
16:34:57.985,-32.1251,-68.0003
16:34:57.988,-33.9376,-70.0628
16:34:57.990,-35.2501,-73.8128
16:34:57.998,-35.7501,-75.0003
16:34:58.031,-37.1251,-76.3128
16:34:58.033,-37.6251,-79.3753
16:34:58.035,-39.3127,-79.1878
16:34:58.038,-39.8127,-82.6878
16:34:58.101,-40.5002,-83.5628
16:34:58.103,-42.0002,-85.4378
16:34:58.116,-42.9377,-87.1253
16:34:58.119,-43.7502,-88.6878
16:34:58.135,-44.8752,-90.4379
16:34:58.136,-45.5627,-91.4379
16:34:58.136,-46.3127,-92.6879
16:34:58.137,-46.8752,-93.8129
16:34:58.138,-46.8127,-95.6254
16:34:58.145,-47.7502,-96.8129
16:34:58.156,-48.9377,-97.1254
16:34:58.165,-48.6252,-98.6254
16:34:58.175,-47.6877,-96.8754
16:34:58.189,-44.6252,-94.1254
16:34:58.195,-39.6252,-85.1253
16:34:58.205,-32.1876,-75.0003
16:34:58.216,-22.8126,-58.9377
16:34:58.225,-11.9375,-41.8127
16:34:58.235,-1.0625,-23.8126
16:34:58.245,10.1875,-3.6875
16:34:58.255,20.6251,13.8751
16:34:58.266,29.4376,31.0001
16:34:58.275,36.4376,44.0002
16:34:58.285,44.9377,63.1252
16:34:58.296,47.3752,68.3128
16:34:58.305,46.5002,70.0628
16:34:58.315,45.6877,69.0628
16:34:58.325,44.6252,68.9378
16:34:58.335,41.6877,65.6878
16:34:58.346,38.8751,61.0002
16:34:58.355,35.1876,57.1252
16:34:58.365,32.7501,51.6877
16:34:58.375,30.8751,46.6877
16:34:58.385,25.8751,41.1252
16:34:58.395,23.0001,35.0626
16:34:58.405,19.3126,29.8126
16:34:58.415,15.1876,22.3126
16:34:58.425,12.1875,17.1876
16:34:58.435,9.0625,12.0625
16:34:58.446,6.5,7.375
16:34:58.455,4.9375,4.25
16:34:58.466,3.125,1.25
16:34:58.475,3.625,-0.375
16:34:58.485,3,0.3125
16:34:58.496,4.5625,1.5
16:34:58.505,6.1875,2.875
16:34:58.515,7,6.1875
16:34:58.525,9.6875,7.9375
16:34:58.535,11,12.1875
16:34:58.545,13.1251,13.8751
16:34:58.555,13.2501,15.8126
16:34:58.565,14.3751,16.0626
16:34:58.576,13.7501,17.0626
16:34:58.585,14.5001,17.2501
16:34:58.595,13.1876,16.8126
16:34:58.605,12.9375,15.5001
16:34:58.615,11.875,13.3126
16:34:58.625,10.4375,12.25
16:34:58.635,9.0625,9.0625
16:34:58.645,7.6875,6.8125
16:34:58.655,5.6875,2.875
16:34:58.683,3.1875,-0.6875
16:34:58.686,1.8125,-4.375
16:34:58.689,-1.4375,-8.25
16:34:58.697,-2.8125,-12.5
16:34:58.725,-6.1875,-16.0626
16:34:58.727,-7.625,-19.8126
16:34:58.729,-10.5,-24.2501
16:34:58.737,-12.9375,-28.5001
16:34:58.763,-14.6876,-32.6251
16:34:58.765,-17.2501,-35.8751
16:34:58.768,-18.4376,-40.3127
16:34:58.796,-20.3751,-42.9377
16:34:58.800,-22.1251,-46.3752
16:34:58.801,-23.1876,-49.6252
16:34:58.806,-24.7501,-51.3127
16:34:58.835,-25.5001,-54.8752
16:34:58.838,-26.1251,-56.3127
16:34:58.861,-27.6876,-59.1877
16:34:58.865,-28.3751,-60.8127
16:34:58.871,-30.2501,-61.8127
16:34:58.871,-31.1251,-65.3753
16:34:58.875,-31.8751,-66.0003
16:34:58.892,-32.3126,-68.5628
16:34:58.908,-33.2501,-68.3128
16:34:58.910,-33.5001,-70.5628
16:34:58.917,-34.5001,-71.5003
16:34:58.925,-34.8751,-73.3753
16:34:58.941,-36.3751,-74.6253
16:34:58.947,-37.3126,-76.6253
16:34:58.955,-37.6876,-78.2503
16:34:58.968,-37.8126,-80.0003
16:34:58.975,-40.0002,-81.3128
16:34:58.985,-41.1877,-83.6253
16:34:58.995,-41.4377,-85.8128
16:34:59.005,-42.5627,-87.1253
16:34:59.015,-43.0627,-87.3128
16:34:59.025,-42.8752,-87.6253
16:34:59.035,-39.6877,-85.0628
16:34:59.068,-34.6876,-78.1253
16:34:59.070,-27.6876,-66.5003
16:34:59.073,-18.0001,-52.4377
16:34:59.077,-8.0625,-34.8751
16:34:59.086,3.125,-17.0001
16:34:59.097,13,2.3125
16:34:59.105,22.6251,19.1251
16:34:59.116,32.3126,35.3751
16:34:59.125,39.0001,50.2502
16:34:59.136,44.8752,60.6877
16:34:59.145,49.3127,70.3128
16:34:59.155,51.3752,74.8128
16:34:59.165,52.9377,78.6253
16:34:59.175,52.1877,79.9378
16:34:59.185,51.4377,78.1253
16:34:59.195,48.3752,76.6878
16:34:59.205,45.6877,71.2503
16:34:59.216,41.8127,67.5003
16:34:59.225,38.8126,61.5002
16:34:59.235,35.0001,57.3127
16:34:59.245,32.4376,50.6252
16:34:59.255,28.6876,45.6252
16:34:59.265,25.7501,39.6252
16:34:59.275,21.8126,34.1876
16:34:59.285,19.1251,29.1251
16:34:59.295,16.3126,23.1876
16:34:59.306,13.9376,19.5001
16:34:59.317,12.75,14.6251
16:34:59.326,11.625,12.0625
16:34:59.358,10.9375,10.5
16:34:59.361,10.875,10.375
16:34:59.363,11.4375,10.25
16:34:59.365,11.375,12
16:34:59.401,13.5626,14.5626
16:34:59.403,14.5626,15.8751
16:34:59.438,15.6876,19.2501
16:34:59.479,17.2501,21.1876
16:34:59.484,18.0001,22.6876
16:34:59.484,19.5626,25.1251
16:34:59.484,20.3126,25.5626
16:34:59.484,20.6876,26.7501
16:34:59.485,21.0001,26.0626
16:34:59.491,19.8751,25.3751
16:34:59.493,19.0626,23.2501
16:34:59.493,18.0001,22.2501
16:34:59.518,17.8751,19.6251
16:34:59.521,15.6876,17.7501
16:34:59.524,13.9376,14.6251
16:34:59.531,12.625,11.125
16:34:59.541,10.8125,7.125
16:34:59.550,9.125,3.6875
16:34:59.560,6.9375,-0.875
16:34:59.570,3.5,-5.3125
16:34:59.580,0.75,-9.125
16:34:59.590,-2.125,-14.0626
16:34:59.602,-4.9375,-18.5626
16:34:59.610,-7.375,-25.1251
16:34:59.620,-9.1875,-28.6876
16:34:59.630,-12.0625,-31.5626
16:34:59.641,-12.4375,-35.7501
16:34:59.650,-14.9376,-38.6251
16:34:59.660,-15.5626,-41.5627
16:34:59.670,-17.2501,-44.4377
16:34:59.681,-18.8751,-46.3752
16:34:59.696,-21.0001,-49.0002
16:34:59.701,-21.6876,-52.1252
16:34:59.710,-23.1876,-54.3752
16:34:59.720,-24.0001,-56.3752
16:34:59.730,-24.9376,-57.6252
16:34:59.741,-26.1251,-59.6252
16:34:59.750,-26.3751,-61.0627
16:34:59.760,-26.5001,-62.0002
16:34:59.770,-28.0626,-62.5002
16:34:59.780,-28.1251,-65.5628
16:34:59.790,-29.6251,-66.3753
16:34:59.801,-30.6251,-68.4378
16:34:59.810,-30.8751,-70.1878
16:34:59.820,-31.8126,-71.9378
16:34:59.830,-31.7501,-72.9378
16:34:59.841,-32.5626,-74.5628
16:34:59.851,-33.5001,-75.8128
16:34:59.860,-33.8126,-77.1253
16:34:59.871,-34.1876,-77.4378
16:34:59.880,-34.0626,-78.0628
16:34:59.890,-31.5626,-74.6878
16:34:59.900,-26.6876,-67.8753
16:34:59.910,-18.8751,-56.8127
16:34:59.920,-11.25,-43.5627
16:34:59.930,-2.25,-29.0001
16:34:59.940,7.4375,-11.375
16:34:59.950,18.0626,4.6875
16:34:59.960,28.5001,21.8126
16:34:59.970,35.7501,36.5001
16:34:59.980,42.5002,49.0627
16:34:59.990,46.8127,60.4377
16:35:00.000,49.7502,66.2503
16:35:00.011,51.6877,71.0628
16:35:00.021,50.7502,72.8128
16:35:00.031,51.1252,72.0628
16:35:00.040,48.9377,71.1878
16:35:00.050,45.8752,68.7503
16:35:00.061,43.3127,63.8752
16:35:00.070,39.5002,59.4377
16:35:00.081,36.1876,53.7502
16:35:00.090,33.3126,49.5002
16:35:00.106,30.1251,43.1252
16:35:00.113,26.5626,38.0001
16:35:00.146,23.5001,31.7501
16:35:00.150,19.6251,26.3126
16:35:00.150,16.3126,20.8751
16:35:00.153,13.8751,14.6251
16:35:00.189,10.5625,11
16:35:00.262,10.125,6.6875
16:35:00.262,8.75,5.125
16:35:00.267,9,3.75
16:35:00.267,8.6875,3.8125
16:35:00.267,10.375,5
16:35:00.272,11,7.1875
16:35:00.282,12.1875,8.375
16:35:00.290,13.3751,10.9375
16:35:00.300,15.7501,13.1876
16:35:00.311,15.8126,15.1251
16:35:00.320,16.8751,17.0626
16:35:00.347,17.3126,17.7501
16:35:00.350,17.7501,18.6876
16:35:00.352,18.1251,19.6251
16:35:00.362,17.4376,19.1251
16:35:00.371,17.7501,17.9376
16:35:00.380,16.6876,17.0626
16:35:00.390,15.0626,15.0626
16:35:00.400,13.8751,12
16:35:00.410,12.25,9.375
16:35:00.420,10.0625,6.1875
16:35:00.432,-1.625,-16.9376
16:35:00.445,-4.5,-19.9376
16:35:00.450,-6.375,-23.3751
16:35:00.462,-8.625,-27.3751
16:35:00.470,-10.1875,-29.9376
16:35:00.481,-12.25,-34.0001
16:35:00.491,-13.8751,-36.8126
16:35:00.500,-15.0626,-40.3127
16:35:00.512,-16.4376,-43.6252
16:35:00.521,-17.2501,-45.5627
16:35:00.530,-18.8126,-47.8127
16:35:00.540,-19.1251,-50.1252
16:35:00.551,-20.8126,-52.1252
16:35:00.560,-21.5626,-54.6877
16:35:00.570,-22.3751,-55.8127
16:35:00.580,-24.3751,-57.5627
16:35:00.591,-25.0001,-59.7502
16:35:00.604,-26.1876,-61.7502
16:35:00.611,-27.0001,-63.8752
16:35:00.621,-28.3751,-64.8752
16:35:00.630,-28.6251,-67.5003
16:35:00.641,-30.0001,-68.1878
16:35:00.650,-31.1876,-70.4378
16:35:00.660,-33.0001,-73.2503
16:35:00.671,-34.4376,-75.1253
16:35:00.680,-34.9376,-76.2503
16:35:00.691,-34.5001,-77.2503
16:35:00.701,-33.2501,-74.9378
16:35:00.721,-28.9376,-69.5003
16:35:00.724,-22.9376,-60.0627
16:35:00.740,-14.8126,-46.0627
16:35:00.742,-4.5,-31.8126
16:35:00.755,6.4375,-13.3126
16:35:00.760,16.8751,4.125
16:35:00.771,27.7501,23.3751
16:35:00.780,36.8126,39.7502
16:35:00.792,45.8752,55.0627
16:35:00.801,51.5627,68.8128
16:35:00.810,56.6252,77.1253
16:35:00.828,59.4377,85.0003
16:35:00.832,60.2502,87.5003
16:35:00.846,60.5002,89.8128
16:35:00.851,58.6252,90.6878
16:35:00.883,57.3127,87.2503
16:35:00.885,54.6252,85.1253
16:35:00.889,51.8127,79.8753
16:35:00.890,48.1252,76.5003
16:35:00.926,45.6877,70.0003
16:35:00.928,41.9377,65.6252
16:35:00.930,39.1251,58.9377
16:35:00.933,34.8126,53.8752
16:35:00.966,31.2501,47.7502
16:35:00.968,27.8751,41.4377
16:35:00.971,24.5626,35.3751
16:35:01.002,21.4376,30.0626
16:35:01.003,19.3126,25.8751
16:35:01.005,17.1251,22.2501
16:35:01.011,16.3126,19.9376
16:35:01.013,16.2501,18.5626
16:35:01.022,16.0001,19.3126
16:35:01.031,17.1251,20.5626
16:35:01.040,18.5001,22.9376
16:35:01.051,20.4376,25.3751
16:35:01.063,22.3126,27.8751
16:35:01.072,24.0001,31.1876
16:35:01.082,25.7501,32.8751
16:35:01.090,26.3751,35.3751
16:35:01.101,27.9376,36.5626
16:35:01.112,28.0001,37.6876
16:35:01.122,27.7501,37.8751
16:35:01.132,27.5001,36.5001
16:35:01.146,26.2501,35.6876
16:35:01.156,25.2501,33.4376
16:35:01.165,24.0001,31.6876
16:35:01.175,21.4376,28.5626
16:35:01.186,20.0626,24.6251
16:35:01.202,17.3126,20.4376
16:35:01.207,15.5001,17.7501
16:35:01.215,12.8125,12.5
16:35:01.225,10.625,9.625
16:35:01.236,8.1875,4.4375
16:35:01.247,6.0625,0.875
16:35:01.257,3.375,-3.375
16:35:01.265,0.875,-8.875
16:35:01.276,-3.6875,-13.4376
16:35:01.289,-6.1875,-19.1251
16:35:01.297,-9.375,-22.9376
16:35:01.306,-13.3126,-28.0626
16:35:01.315,-14.1251,-31.3126
16:35:01.327,-14.3751,-34.3751
16:35:01.336,-16.8126,-37.6251
16:35:01.348,-17.8126,-40.1252
16:35:01.356,-18.7501,-40.8752
16:35:01.366,-19.1876,-42.4377
16:35:01.375,-19.4376,-44.5627
16:35:01.388,-20.3751,-46.5002
16:35:01.396,-20.6251,-47.3127
16:35:01.405,-20.6251,-49.0627
16:35:01.416,-21.8751,-50.3127
16:35:01.427,-22.2501,-51.8752
16:35:01.435,-22.8126,-53.5627
16:35:01.446,-23.7501,-54.1252
16:35:01.457,-24.3126,-56.0627
16:35:01.465,-25.6251,-57.5002
16:35:01.476,-26.5001,-60.3752
16:35:01.486,-27.6251,-60.5627
16:35:01.501,-27.5626,-62.5627
16:35:01.517,-28.6876,-63.6877
16:35:01.519,-28.3751,-66.2503
16:35:01.534,-29.6876,-66.7503
16:35:01.539,-29.6251,-68.1878
16:35:01.547,-28.5001,-65.5627
16:35:01.573,-25.3126,-62.3127
16:35:01.576,-18.5626,-52.5627
16:35:01.578,-11.0625,-39.3752
16:35:01.618,-0.75,-24.9376
16:35:01.621,9.875,-6.4375
16:35:01.622,19.8751,12.0625
16:35:01.636,30.6876,30.8751
16:35:01.641,40.8127,49.1877
16:35:01.647,48.7502,64.2502
16:35:01.647,56.5002,78.6878
16:35:01.675,61.1877,88.3753
16:35:01.679,65.2502,97.5004
16:35:01.681,67.5003,101.8754
16:35:01.686,67.5628,104.6879
16:35:01.722,67.1878,103.6879
16:35:01.724,66.1878,102.5004
16:35:01.727,63.3127,99.3754
16:35:01.729,61.2502,95.4379
16:35:01.743,57.8752,90.5629
16:35:01.749,54.7502,84.8128
16:35:01.757,51.6252,80.8128
16:35:01.766,48.9377,75.0628
16:35:01.777,45.0002,69.5628
16:35:01.787,40.8752,62.0627
16:35:01.796,37.7501,55.3752
16:35:01.806,34.3126,51.0627
16:35:01.817,31.4376,44.8752
16:35:01.827,29.3126,41.0627
16:35:01.836,26.8126,36.0626
16:35:01.846,26.2501,34.2501
16:35:01.856,25.8126,32.8126
16:35:01.866,24.7501,32.9376
16:35:01.876,26.5626,33.5626
16:35:01.886,27.7501,35.6876
16:35:01.897,29.5001,37.5626
16:35:01.906,30.4376,39.9377
16:35:01.916,32.1876,43.8127
16:35:01.926,34.3126,45.0002
16:35:01.937,35.0626,48.1877
16:35:01.946,36.3751,48.8752
16:35:01.956,36.3751,50.2502
16:35:01.966,36.8126,49.7502
16:35:01.976,34.9376,49.1252
16:35:01.987,35.0001,45.6877
16:35:01.996,32.5626,44.6877
16:35:02.007,31.1876,40.7502
16:35:02.024,28.5626,38.3126
16:35:02.026,26.9376,34.3751
16:35:02.041,23.3751,30.8126
16:35:02.049,21.1876,25.0626
16:35:02.057,19.0626,21.3751
16:35:02.066,15.6876,16.7501
16:35:02.076,12.1875,10.6875
16:35:02.087,7.625,5.75
16:35:02.096,2.6875,-1.9375
16:35:02.106,-3.4375,-8.125
16:35:02.117,-10.8125,-15.2501
16:35:02.126,-18.1251,-24.3751
16:35:02.137,-27.3126,-34.3126
16:35:02.146,-36.5626,-42.0002
16:35:02.156,-44.1877,-49.5627
16:35:02.166,-61.0627,-64.2502
16:35:02.176,-69.2503,-71.2503
16:35:02.186,-71.4378,-72.5003
16:35:02.197,-70.1253,-70.6253
16:35:02.206,-67.0003,-66.1253
16:35:02.216,-65.9378,-62.3127
16:35:02.226,-64.8752,-57.3752
16:35:02.237,-61.6252,-54.5002
16:35:02.246,-60.8127,-51.7502
16:35:02.257,-57.5002,-46.7502
16:35:02.267,-53.4377,-43.1252
16:35:02.277,-48.6252,-37.6876
16:35:02.306,-43.7502,-34.8126
16:35:02.308,-41.9377,-31.7501
16:35:02.311,-39.4377,-30.1876
16:35:02.318,-38.0001,-28.1251
16:35:02.351,-35.5001,-27.8126
16:35:02.355,-32.6876,-26.3751
16:35:02.355,-30.2501,-24.8126
16:35:02.359,-26.6876,-23.4376
16:35:02.398,-24.0626,-21.3126
16:35:02.399,-23.1251,-22.4376
16:35:02.402,-20.3751,-21.5001
16:35:02.433,-18.6251,-19.2501
16:35:02.433,-14.2501,-17.5001
16:35:02.434,-9.875,-11.375
16:35:02.437,-4.875,-4.625
16:35:02.442,2.4375,5.125
16:35:02.463,9.1875,16.9376
16:35:02.465,16.3751,28.6876
16:35:02.468,23.1251,42.1252
16:35:02.476,28.8751,50.8127
16:35:02.493,33.8126,60.8127
16:35:02.496,36.8751,69.1878
16:35:02.506,38.4376,73.6878
16:35:02.517,38.3126,76.7503
16:35:02.526,36.2501,75.5628
16:35:02.536,32.0626,71.1878
16:35:02.546,26.9376,66.3128
16:35:02.557,21.0626,58.9377
16:35:02.566,14.4376,52.3752
16:35:02.577,8.1875,43.6252
16:35:02.586,1.875,36.0001
16:35:02.596,-4.4375,26.6251
16:35:02.606,-10.875,17.9376
16:35:02.616,-15.3126,11.125
16:35:02.627,-19.6876,4.5
16:35:02.636,-23.5001,-2.9375
16:35:02.647,-27.5626,-9.25
16:35:02.656,-30.4376,-14.5626
16:35:02.666,-32.3751,-18.8751
16:35:02.677,-33.5001,-22.6251
16:35:02.686,-33.7501,-23.7501
16:35:02.696,-31.3126,-22.8126
16:35:02.706,-30.4376,-21.5626
16:35:02.716,-25.9376,-17.9376
16:35:02.728,-22.5001,-13.0625
16:35:02.736,-21.5001,-10.6875
16:35:02.747,-20.6876,-7.375
16:35:02.757,-18.9376,-4.75
16:35:02.766,-18.0001,-0.75
16:35:02.777,-18.2501,2.75
16:35:02.787,-17.1876,6.4375
16:35:02.802,-15.9376,9.5
16:35:02.818,-14.4376,12
16:35:02.820,-13.0625,16.1876
16:35:02.827,-11.4375,18.9376
16:35:02.837,-9.5,20.5001
16:35:02.846,-8,23.4376
16:35:02.856,-6.6875,23.4376
16:35:02.870,-5.125,24.3751
16:35:02.876,-4.4375,23.8126
16:35:02.906,-4.5625,23.5001
16:35:02.909,-5.1875,22.3126
16:35:02.911,-4.6875,20.1251
16:35:02.916,-5.6875,19.6251
16:35:02.927,-4.9375,16.3751
16:35:02.936,-5,15.8751
16:35:02.946,-4.5625,13.8126
16:35:02.956,-4.0625,13.1251
16:35:02.967,-3.0625,12.625
16:35:02.977,-2.5,10.5625
16:35:02.987,-2.0625,7.6875
16:35:02.996,-1.375,6.375
16:35:03.018,-0.375,4.6875
16:35:03.020,-0.25,2.8125
16:35:03.051,0.9375,0.625
16:35:03.052,0.25,-2.9375
16:35:03.054,-0.125,-5.1875
16:35:03.056,-1.5,-8.75
16:35:03.088,-3.375,-14.1251
16:35:03.089,-5.625,-18.3126
16:35:03.091,-7.125,-23.3751
16:35:03.099,-10.6875,-28.0001
16:35:03.126,-12.6875,-33.8126
16:35:03.129,-16.0001,-40.5002
16:35:03.133,-20.4376,-46.9377
16:35:03.161,-24.5001,-53.5627
16:35:03.161,-29.3126,-61.3127
16:35:03.163,-34.1876,-67.9378
16:35:03.169,-39.0002,-76.1878
16:35:03.184,-45.4377,-83.5628
16:35:03.191,-51.1252,-91.1879
16:35:03.197,-55.0627,-98.5004
16:35:03.206,-58.5627,-102.0004
16:35:03.217,-59.6877,-101.7504
16:35:03.227,-57.7502,-98.1879
16:35:03.236,-53.3127,-89.6253
16:35:03.247,-47.4377,-79.7503
16:35:03.258,-39.8127,-66.2503
16:35:03.267,-32.3751,-52.6252
16:35:03.276,-24.7501,-37.8126
16:35:03.286,-16.0001,-22.7501
16:35:03.297,-9.5625,-8.8125
16:35:03.306,-4.9375,2.8125
16:35:03.327,-0.4375,11.375
16:35:03.329,2.375,19.3126
16:35:03.344,3.75,24.5626
16:35:03.347,5.375,28.1876
16:35:03.359,5.625,31.5626
16:35:03.366,7.375,32.0626
16:35:03.381,7.8125,34.9376
16:35:03.391,9.375,33.6876
16:35:03.402,8.8125,34.6876
16:35:03.411,8.875,33.4376
16:35:03.421,9.1875,34.0001
16:35:03.431,11.75,33.3751
16:35:03.442,12.125,31.7501
16:35:03.451,12.1875,29.1876
16:35:03.461,16.2501,29.2501
16:35:03.472,11.625,24.8126
16:35:03.482,4,13.9376
16:35:03.491,-2.4375,8.125
16:35:03.501,-8.625,2
16:35:03.511,-14.8751,-5
16:35:03.521,-18.3126,-7.25
16:35:03.531,-19.3126,-6.8125
16:35:03.541,-17.1251,-2.125
16:35:03.553,-13.9376,2.625
16:35:03.562,-9.875,9
16:35:03.572,-4,15.9376
16:35:03.581,1.4375,22.5001
16:35:03.592,6.875,31.5626
16:35:03.601,13.2501,39.0001
16:35:03.611,17.1876,43.6877
16:35:03.621,20.1251,49.5002
16:35:03.632,23.6251,53.6252
16:35:03.642,26.1251,55.8127
16:35:03.653,28.5001,58.8752
16:35:03.661,29.9376,59.6877
16:35:03.672,32.1251,61.3752
16:35:03.681,32.8751,61.9377
16:35:03.693,34.7501,60.6252
16:35:03.701,37.6251,61.0627
16:35:03.712,37.7501,60.5002
16:35:03.722,39.1251,58.3752
16:35:03.731,37.7501,55.8752
16:35:03.742,36.1251,51.7502
16:35:03.751,33.5626,44.6252
16:35:03.761,29.8751,37.5626
16:35:03.771,25.8751,30.3751
16:35:03.782,21.6876,23.8751
16:35:03.815,18.4376,14.9376
16:35:03.820,13.5626,6.125
16:35:03.821,9.125,-0.125
16:35:03.823,5.3125,-8.3125
16:35:03.858,1.5625,-16.6876
16:35:03.859,-3.9375,-26.1251
16:35:03.863,-9.25,-33.2501
16:35:03.864,-14.5001,-43.0627
16:35:03.904,-20.2501,-52.6877
16:35:03.905,-25.9376,-59.6252
16:35:03.910,-30.5626,-68.5628
16:35:03.935,-36.5626,-77.0003
16:35:03.935,-41.5002,-84.8753
16:35:03.936,-46.6252,-90.2503
16:35:03.939,-50.5627,-97.6879
16:35:03.943,-55.2502,-104.3129
16:35:03.960,-60.4377,-110.9379
16:35:03.963,-65.3127,-116.1879
16:35:03.972,-69.0628,-123.188
16:35:03.982,-73.3128,-130.438
16:35:03.996,-77.8753,-136.188
16:35:04.001,-80.7503,-140.438
16:35:04.012,-84.1878,-144.938
16:35:04.022,-84.6878,-146.0631
16:35:04.033,-84.8753,-142.2505
16:35:04.042,-80.4378,-135.938
16:35:04.051,-73.2503,-124.3755
16:35:04.061,-63.3127,-107.8754
16:35:04.074,-51.1877,-89.6253
16:35:04.082,-37.5001,-67.8753
16:35:04.098,-24.3751,-44.6877
16:35:04.114,-9.625,-20.8751
16:35:04.117,2.25,3.4375
16:35:04.123,15.2501,25.1876
16:35:04.133,25.8126,45.4377
16:35:04.141,38.6876,63.8127
16:35:04.151,47.8127,78.6253
16:35:04.161,54.3127,89.5628
16:35:04.188,58.8127,95.3754
16:35:04.190,64.6877,102.3754
16:35:04.195,64.0627,103.1254
16:35:04.203,57.3127,96.8754
16:35:04.211,51.0627,90.4379
16:35:04.221,42.7502,84.8128
16:35:04.231,35.3126,76.0628
16:35:04.244,27.5001,69.8128
16:35:04.251,23.6876,63.3127
16:35:04.261,19.1251,60.0627
16:35:04.273,16.8751,55.0627
16:35:04.281,14.1876,52.3752
16:35:04.292,13.4376,48.4377
16:35:04.301,11.6875,45.6877
16:35:04.311,11.5625,45.0627
16:35:04.321,12.625,44.8752
16:35:04.331,12.9375,46.3752
16:35:04.341,16.5626,49.3752
16:35:04.351,18.3751,53.9377
16:35:04.361,21.8126,59.9377
16:35:04.371,27.4376,65.8753
16:35:04.381,32.0001,73.8753
16:35:04.393,38.0626,80.8753
16:35:04.401,41.3127,87.1253
16:35:04.411,44.7502,92.3129
16:35:04.422,48.1252,95.9379
16:35:04.449,51.3127,100.4379
16:35:04.451,54.8752,103.1254
16:35:04.455,57.5002,106.2504
16:35:04.487,59.7502,108.2504
16:35:04.489,61.2502,109.5629
16:35:04.492,63.3127,108.6254
16:35:04.494,63.5002,107.3129
16:35:04.533,64.0627,105.0004
16:35:04.534,62.0002,101.5004
16:35:04.537,59.5627,95.1254
16:35:04.571,57.2502,90.8754
16:35:04.571,54.0002,83.6878
16:35:04.571,49.6877,75.1253
16:35:04.573,45.9377,68.1878
16:35:04.580,41.6877,60.1252
16:35:04.603,36.8751,51.0002
16:35:04.608,31.5626,41.8127
16:35:04.610,26.2501,31.6876
16:35:04.625,20.2501,22.6876
16:35:04.625,15.4376,12.625
16:35:04.640,10.125,4.1875
16:35:04.645,5.3125,-5.0625
16:35:04.652,-0.875,-15.4376
16:35:04.661,-7.75,-24.3751
16:35:04.672,-13.5626,-34.7501
16:35:04.681,-19.3751,-43.6877
16:35:04.691,-24.9376,-52.8127
16:35:04.702,-30.2501,-60.1877
16:35:04.711,-35.7501,-67.0628
16:35:04.721,-40.3127,-73.0628
16:35:04.731,-44.5002,-81.1878
16:35:04.744,-48.2502,-87.6253
16:35:04.754,-51.9377,-93.5629
16:35:04.761,-56.3752,-99.9379
16:35:04.772,-61.0627,-106.8754
16:35:04.782,-65.1877,-112.3754
16:35:04.792,-67.6878,-116.8129
16:35:04.801,-70.6878,-121.6255
16:35:04.813,-74.0003,-124.7505
16:35:04.821,-76.5628,-128.2505
16:35:04.832,-79.4378,-130.0005
16:35:04.841,-80.3753,-131.188
16:35:04.851,-76.7503,-127.438
16:35:04.861,-71.3128,-118.563
16:35:04.871,-62.0627,-107.5004
16:35:04.881,-50.9377,-90.3753
16:35:04.893,-39.1251,-69.4378
16:35:04.902,-23.8751,-45.7502
16:35:04.911,-6.875,-20.1251
16:35:04.922,9.3125,6.375
16:35:04.931,25.3751,34.0626
16:35:04.941,37.7501,53.9377
16:35:04.952,54.1252,76.6878
16:35:04.961,61.5627,94.3129
16:35:04.971,62.4377,99.5004
16:35:04.983,63.0627,104.8754
16:35:04.992,60.1252,107.0004
16:35:05.001,56.2502,105.1879
16:35:05.012,51.0627,102.6254
16:35:05.022,46.9377,98.5004
16:35:05.031,43.0002,95.5629
16:35:05.043,39.6252,91.0629
16:35:05.052,37.1876,88.8128
16:35:05.062,33.6251,86.0003
16:35:05.072,32.0626,81.2503
16:35:05.084,30.3126,78.9378
16:35:05.092,29.7501,75.3128
16:35:05.101,29.0626,73.3128
16:35:05.111,29.3126,72.7503
16:35:05.122,30.0001,71.0628
16:35:05.132,29.6876,70.1878
16:35:05.141,29.9376,69.7503
16:35:05.163,31.3126,70.6253
16:35:05.168,34.0001,73.1878
16:35:05.208,36.9376,76.2503
16:35:05.208,41.0627,80.6253
16:35:05.212,45.0002,86.5003
16:35:05.213,49.6252,93.3129
16:35:05.219,55.4377,97.6254
16:35:05.244,59.8127,104.9379
16:35:05.246,66.1878,110.0004
16:35:05.249,69.6253,115.6254
16:35:05.256,73.6253,117.938
16:35:05.297,74.8753,118.188
16:35:05.298,75.8128,117.6255
16:35:05.302,74.3753,114.2504
16:35:05.303,73.9378,112.0004
16:35:05.309,70.8128,105.0629
16:35:05.338,65.5003,96.7504
16:35:05.342,61.1252,89.1253
16:35:05.344,56.5002,79.9378
16:35:05.348,50.2502,70.3128
16:35:05.358,45.0002,61.8127
16:35:05.366,40.0002,51.1252
16:35:05.378,34.0001,41.4377
16:35:05.387,27.3126,29.0626
16:35:05.403,20.6251,17.3126
16:35:05.418,13.1876,6.125
16:35:05.421,4.8125,-5.9375
16:35:05.430,-2.0625,-17.3126
16:35:05.438,-9.8125,-27.1251
16:35:05.468,-16.7501,-37.4376
16:35:05.470,-24.3126,-48.7502
16:35:05.472,-30.9376,-57.1252
16:35:05.478,-37.7501,-67.6253
16:35:05.489,-44.5627,-76.2503
16:35:05.497,-49.1877,-84.0628
16:35:05.508,-54.8752,-92.5004
16:35:05.516,-58.7502,-98.7504
16:35:05.527,-61.0627,-103.6254
16:35:05.538,-64.5002,-108.5629
16:35:05.547,-67.6253,-112.6254
16:35:05.557,-70.0628,-116.3754
16:35:05.568,-72.9378,-119.3755
16:35:05.576,-74.3128,-120.438
16:35:05.590,-73.6253,-121.1255
16:35:05.598,-71.3128,-119.938
16:35:05.608,-69.6253,-115.0004
16:35:05.617,-66.1878,-111.8129
16:35:05.629,-60.6252,-102.8129
16:35:05.638,-52.0627,-91.1879
16:35:05.648,-39.3751,-75.1253
16:35:05.656,-25.2501,-53.7502
16:35:05.667,-11.4375,-32.5626
16:35:05.676,6.0625,-8.125
16:35:05.689,23.8126,20.5001
16:35:05.697,35.9376,42.1252
16:35:05.707,42.9377,60.0627
16:35:05.717,48.3127,74.1253
16:35:05.726,52.6252,86.9378
16:35:05.740,53.4377,96.2504
16:35:05.749,52.8752,101.8129
16:35:05.758,54.3127,106.5004
16:35:05.767,53.2502,110.3129
16:35:05.779,51.9377,110.5629
16:35:05.787,51.1252,109.7504
16:35:05.798,49.9377,109.8129
16:35:05.806,48.2502,106.3129
16:35:05.817,47.7502,104.6879
16:35:05.828,46.1877,104.6254
16:35:05.836,46.1252,101.2504
16:35:05.848,44.6877,98.6879
16:35:05.857,43.0002,94.9379
16:35:05.871,40.5002,90.0628
16:35:05.877,37.9376,85.8128
16:35:05.886,35.8126,80.0003
16:35:05.898,32.5626,76.2503
16:35:05.919,32.1251,73.1878
16:35:05.922,31.6876,71.3753
16:35:05.938,32.0001,71.1253
16:35:05.939,34.3126,72.3128
16:35:05.947,36.6876,75.7503
16:35:05.977,41.5627,78.6878
16:35:05.982,45.6252,84.2503
16:35:05.985,50.6877,89.2503
16:35:05.988,55.1252,94.1254
16:35:05.997,59.7502,98.8129
16:35:06.034,63.1252,101.0629
16:35:06.036,64.3752,101.3754
16:35:06.039,64.4377,100.8754
16:35:06.041,63.2502,98.6879
16:35:06.049,62.5627,96.2504
16:35:06.082,59.5627,91.1879
16:35:06.083,56.0627,85.6253
16:35:06.086,53.2502,79.7503
16:35:06.089,49.9377,72.8753
16:35:06.121,44.6252,65.5628
16:35:06.123,39.6877,57.5627
16:35:06.125,34.5626,46.9377
16:35:06.128,27.3751,37.0001
16:35:06.140,21.3751,25.6876
16:35:06.148,14.4376,16.8751
16:35:06.157,7.25,4.625
16:35:06.166,-0.0625,-5.5
16:35:06.177,-6.875,-17.6876
16:35:06.188,-15.1876,-27.9376
16:35:06.196,-23.3751,-39.0002
16:35:06.207,-30.6251,-50.5002
16:35:06.218,-37.4376,-60.0627
16:35:06.229,-43.8127,-70.0003
16:35:06.238,-49.7502,-78.5003
16:35:06.248,-53.3752,-86.0628
16:35:06.257,-58.8127,-93.6254
16:35:06.267,-63.6252,-102.0629
16:35:06.278,-67.6253,-107.3129
16:35:06.288,-70.5003,-111.4379
16:35:06.297,-72.6878,-115.5629
16:35:06.308,-75.5628,-119.3755
16:35:06.320,-77.1878,-120.6255
16:35:06.328,-77.4378,-122.313
16:35:06.338,-76.8128,-121.1255
16:35:06.348,-74.5628,-120.438
16:35:06.357,-72.0628,-117.1254
16:35:06.367,-71.3753,-115.1254
16:35:06.377,-67.8753,-110.1879
16:35:06.386,-64.3752,-104.9379
16:35:06.399,-60.1252,-101.8129
16:35:06.407,-55.6877,-98.5629
16:35:06.416,-55.8127,-100.1254
16:35:06.429,-49.2502,-93.0004
16:35:06.437,-48.6252,-91.2504
16:35:06.448,-52.9377,-93.5629
16:35:06.457,-55.3752,-97.8754
16:35:06.467,-59.5002,-98.1254
16:35:06.478,-62.9377,-100.8754
16:35:06.489,-63.5627,-99.8754
16:35:06.498,-61.3127,-92.8754
16:35:06.508,-53.8127,-81.0003
16:35:06.519,-44.3127,-63.5627
16:35:06.528,-32.5626,-40.8127
16:35:06.538,-20.1876,-18.6251
16:35:06.548,-5.125,7
16:35:06.558,10,35.4376
16:35:06.567,25.0001,61.0002
16:35:06.577,37.1251,85.3128
16:35:06.587,47.0627,104.8754
16:35:06.597,54.9377,121.1255
16:35:06.607,61.3127,135.188
16:35:06.622,66.2503,142.438
16:35:06.628,69.0003,148.4381
16:35:06.637,69.0628,150.5631
16:35:06.647,70.0003,150.9381
16:35:06.662,68.3128,149.3756
16:35:06.667,67.6878,147.4381
16:35:06.740,65.3752,143.938
16:35:06.741,62.9377,139.313
16:35:06.745,60.2502,134.6255
16:35:06.757,57.0002,130.313
16:35:06.759,54.4377,123.6255
16:35:06.786,49.2502,117.5004
16:35:06.786,46.2502,111.2504
16:35:06.786,42.6252,105.6879
16:35:06.790,40.6252,99.0629
16:35:06.817,36.8751,95.3754
16:35:06.819,35.3126,89.7503
16:35:06.821,33.4376,88.0628
16:35:06.825,34.4376,86.5003
16:35:06.829,34.5001,87.2503
16:35:06.837,35.7501,87.6878
16:35:06.847,36.6251,89.5628
16:35:06.857,38.3126,91.5629
16:35:06.867,39.0001,93.2504
16:35:06.878,39.9377,95.1879
16:35:06.888,41.6877,96.3754
16:35:06.897,42.1252,98.1254
16:35:06.907,41.8127,99.0004
16:35:06.917,42.3752,98.3129
16:35:06.927,42.0627,97.8754
16:35:06.937,39.7502,96.5004
16:35:06.948,38.3751,92.6879
16:35:06.957,36.3126,88.2503
16:35:06.967,33.7501,84.9378
16:35:06.978,31.2501,80.5628
16:35:06.988,32.0001,76.7503
16:35:06.996,29.3751,74.5628
16:35:07.010,27.0626,68.6878
16:35:07.019,24.0001,62.8127
16:35:07.028,20.8751,57.3752
16:35:07.038,17.5626,52.1877
16:35:07.047,15.4376,47.2502
16:35:07.057,12.4375,42.6252
16:35:07.067,11.9375,39.0626
16:35:07.078,10.5,34.5001
16:35:07.088,8.5,32.0001
16:35:07.097,7.3125,27.0001
16:35:07.108,5.125,24.5626
16:35:07.117,4.1875,20.3126
16:35:07.128,2.8125,16.6251
16:35:07.137,0.6875,14.1251
16:35:07.147,-3.25,8.375
16:35:07.157,-6.3125,4.5
16:35:07.168,-9.5,-0.25
16:35:07.177,-11.4375,-2
16:35:07.187,-12.125,-4
16:35:07.197,-12.9375,-5.375
16:35:07.215,-13.3126,-6.4375
16:35:07.218,-15.3751,-8.625
16:35:07.233,-13.5001,-9.6875
16:35:07.237,-14.0626,-9.875
16:35:07.250,-14.6876,-11.625
16:35:07.257,-16.3126,-13.9376
16:35:07.268,-18.8126,-16.0001
16:35:07.277,-20.1251,-19.3751
16:35:07.287,-20.7501,-21.3126
16:35:07.298,-21.7501,-21.6876
16:35:07.308,-21.8126,-23.3126
16:35:07.318,-22.9376,-23.8126
16:35:07.330,-23.0626,-25.0626
16:35:07.370,-19.8126,-22.5001
16:35:07.372,-15.5001,-14.1876
16:35:07.373,-8.4375,-5.375
16:35:07.400,-0.4375,9.1875
16:35:07.400,9.4375,25.1876
16:35:07.401,21.2501,46.1877
16:35:07.403,33.5626,66.5003
16:35:07.409,45.0002,86.5003
16:35:07.448,54.0627,104.1254
16:35:07.450,61.6877,118.3755
16:35:07.453,67.5003,129.5005
16:35:07.478,70.2503,136.3755
16:35:07.478,72.7503,140.813
16:35:07.480,71.1878,143.2505
16:35:07.483,69.9378,140.2505
16:35:07.488,68.0628,137.563
16:35:07.522,63.9377,132.5005
16:35:07.524,61.6877,127.0005
16:35:07.526,57.5002,120.563
16:35:07.529,54.2502,114.3754
16:35:07.543,50.0002,107.0004
16:35:07.548,44.6877,100.0629
16:35:07.558,40.3752,92.9379
16:35:07.567,35.8126,84.8128
16:35:07.578,32.0626,77.5628
16:35:07.588,28.0626,70.3753
16:35:07.598,23.3126,63.8752
16:35:07.608,20.7501,58.2502
16:35:07.618,18.4376,53.1877
16:35:07.628,17.0001,49.7502
16:35:07.637,16.6876,48.0627
16:35:07.648,16.6251,47.3752
16:35:07.657,17.6251,48.1252
16:35:07.668,18.1251,48.5627
16:35:07.678,19.0001,51.0627
16:35:07.688,20.1251,53.4377
16:35:07.698,21.1876,54.3752
16:35:07.708,22.4376,56.2502
16:35:07.717,22.6876,57.4377
16:35:07.728,22.9376,57.7502
16:35:07.739,22.5626,57.9377
16:35:07.747,21.8126,56.6877
16:35:07.758,21.5626,55.1877
16:35:07.768,19.4376,52.3752
16:35:07.777,17.6876,50.4377
16:35:07.787,15.5626,45.8752
16:35:07.797,13.6251,42.4377
16:35:07.807,11.125,38.0626
16:35:07.817,8.4375,33.6251
16:35:07.828,5.9375,28.9376
16:35:07.838,3.25,24.0626
16:35:07.847,1.125,19.4376
16:35:07.858,-2,15.6251
16:35:07.868,-3.5625,11.0625
16:35:07.878,-6.8125,6.625
16:35:07.887,-9.625,3
16:35:07.897,-11.6875,-2.3125
16:35:07.907,-14.1251,-6.125
16:35:07.923,-15.8126,-10.25
16:35:07.928,-18.5626,-13.5626
16:35:07.938,-19.7501,-17.0001
16:35:07.948,-21.6876,-20.7501
16:35:07.958,-22.6876,-23.6876
16:35:07.970,-25.0626,-27.1251
16:35:07.979,-26.1876,-30.0626
16:35:07.993,-27.3126,-31.4376
16:35:08.001,-28.9376,-34.6251
16:35:08.026,-29.6876,-36.4376
16:35:08.029,-31.4376,-38.1876
16:35:08.044,-31.8751,-40.8127
16:35:08.046,-33.1251,-42.4377
16:35:08.049,-33.6251,-44.5627
16:35:08.058,-35.6251,-47.2502
16:35:08.069,-35.6876,-49.0002
16:35:08.078,-37.6251,-50.6877
16:35:08.088,-38.1251,-53.0627
16:35:08.099,-38.6876,-53.5627
16:35:08.110,-39.5627,-55.7502
16:35:08.118,-40.2502,-55.6252
16:35:08.128,-39.5627,-57.6252
16:35:08.138,-38.1251,-53.8752
16:35:08.149,-34.8751,-49.0627
16:35:08.194,-26.8751,-38.7501
16:35:08.194,-18.1876,-22.7501
16:35:08.197,-6.5625,-5.375
16:35:08.201,4.5,14.0001
16:35:08.202,16.9376,35.2501
16:35:08.229,28.7501,57.1252
16:35:08.230,39.8127,75.9378
16:35:08.232,47.5002,92.4379
16:35:08.259,54.6252,103.0629
16:35:08.260,57.8752,112.8129
16:35:08.263,59.4377,117.3755
16:35:08.268,60.6252,118.5005
16:35:08.302,58.6877,117.6255
16:35:08.305,56.1252,114.4379
16:35:08.307,52.4377,109.6879
16:35:08.312,49.0002,103.7504
16:35:08.318,45.3752,98.1254
16:35:08.330,41.4377,90.3128
16:35:08.337,37.3751,85.2503
16:35:08.347,33.0001,77.3128
16:35:08.358,29.5001,70.7503
16:35:08.368,25.4376,64.8752
16:35:08.378,22.2501,57.1252
16:35:08.388,17.3126,50.8752
16:35:08.400,13.5001,44.1252
16:35:08.410,10.625,37.5626
16:35:08.418,8.375,33.0626
16:35:08.428,6.5625,28.8126
16:35:08.437,4.5625,26.5626
16:35:08.448,3.4375,24.7501
16:35:08.457,3.75,23.7501
16:35:08.468,4.875,24.1251
16:35:08.478,5.875,27.0001
16:35:08.487,7.25,27.6876
16:35:08.497,9.25,30.1876
16:35:08.513,10.5,33.1251
16:35:08.529,11.1875,35.6251
16:35:08.531,11.8125,37.0626
16:35:08.546,11.625,35.9376
16:35:08.561,11.75,36.7501
16:35:08.562,11.5,35.3751
16:35:08.569,9.75,33.1251
16:35:08.577,8.125,32.8751
16:35:08.588,7,28.5001
16:35:08.598,4.875,25.1876
16:35:08.609,2.4375,21.0001
16:35:08.620,0.125,17.5001
16:35:08.627,-2.375,12.875
16:35:08.638,-5.375,9.5
16:35:08.648,-7.3125,4.1875
16:35:08.658,-9.375,-0.4375
16:35:08.667,-12.0625,-5.4375
16:35:08.677,-15.3751,-10.5
16:35:08.688,-17.7501,-14.3751
16:35:08.698,-19.8126,-18.4376
16:35:08.709,-22.3751,-22.7501
16:35:08.719,-24.3126,-26.7501
16:35:08.729,-26.0626,-30.7501
16:35:08.737,-28.6251,-35.0001
16:35:08.748,-30.4376,-37.5626
16:35:08.758,-32.6251,-40.0627
16:35:08.768,-32.9376,-43.5002
16:35:08.777,-34.0001,-46.8752
16:35:08.788,-35.6876,-49.2502
16:35:08.798,-37.4376,-51.8127
16:35:08.810,-38.0001,-52.8127
16:35:08.817,-38.7501,-54.5627
16:35:08.828,-39.5002,-56.1877
16:35:08.838,-39.3752,-57.1877
16:35:08.847,-40.2502,-58.6877
16:35:08.858,-40.0627,-59.2502
16:35:08.867,-41.7502,-61.2502
16:35:08.891,-41.7502,-62.3752
16:35:08.894,-42.8127,-61.8127
16:35:08.923,-43.1877,-65.1252
16:35:08.926,-44.5627,-65.0002
16:35:08.928,-44.7502,-67.6878
16:35:08.930,-46.0627,-68.5003
16:35:08.962,-46.5002,-71.4378
16:35:08.963,-47.5627,-72.1253
16:35:08.965,-49.1252,-74.7503
16:35:08.969,-48.9377,-76.0003
16:35:09.001,-50.1877,-77.1253
16:35:09.003,-50.3127,-78.0628
16:35:09.005,-50.2502,-78.7503
16:35:09.032,-47.6252,-75.8753
16:35:09.033,-43.0627,-68.8128
16:35:09.036,-34.5001,-56.9377
16:35:09.040,-25.0001,-40.8752
16:35:09.052,-13.2501,-21.0001
16:35:09.061,-0.6875,0.0625
16:35:09.067,12.5625,22.4376
16:35:09.082,23.5001,43.3752
16:35:09.087,34.6251,61.8752
16:35:09.097,42.5002,78.0628
16:35:09.108,48.8127,89.6878
16:35:09.118,52.0627,97.4379
16:35:09.127,54.0002,102.1254
16:35:09.137,53.6252,103.0629
16:35:09.147,52.0002,101.3129
16:35:09.157,49.3752,97.5629
16:35:09.167,46.2502,93.0629
16:35:09.184,42.0627,87.6253
16:35:09.192,38.3751,82.0628
16:35:09.203,34.4376,73.8128
16:35:09.213,31.2501,67.5628
16:35:09.222,26.3751,61.1252
16:35:09.232,23.1251,54.5002
16:35:09.242,18.8751,48.1252
16:35:09.252,15.0001,42.1877
16:35:09.263,11.6875,34.8126
16:35:09.276,7.75,28.3126
16:35:09.283,5.4375,23.1876
16:35:09.307,2.75,18.2501
16:35:09.311,0.9375,15.0001
16:35:09.326,0.5,12.5
16:35:09.344,0.1875,11.4375
16:35:09.357,-0.3125,11.9375
16:35:09.359,1.0625,14.3751
16:35:09.374,3.5625,15.7501
16:35:09.379,5.0625,18.3751
16:35:09.379,6.4375,20.6251
16:35:09.382,7.9375,23.1251
16:35:09.392,8.3125,25.3751
16:35:09.402,9.5,25.5626
16:35:09.412,8.75,26.4376
16:35:09.422,8.75,26.8751
16:35:09.433,8.75,24.6876
16:35:09.443,7.3125,22.6251
16:35:09.457,5.8125,19.5626
16:35:09.463,3.75,17.5626
16:35:09.473,1.3125,14.5001
16:35:09.483,-0.625,9.9375
16:35:09.493,-2.9375,4.625
16:35:09.503,-5.1875,1.25
16:35:09.513,-7.9375,-2.625
16:35:09.522,-10.75,-6.8125
16:35:09.533,-12.875,-11.5625
16:35:09.543,-15.8751,-15.5001
16:35:09.553,-17.1876,-20.5626
16:35:09.591,-20.1876,-23.6876
16:35:09.594,-22.4376,-27.4376
16:35:09.597,-25.1251,-33.0626
16:35:09.600,-27.3126,-36.6876
16:35:09.604,-29.0001,-40.1877
16:35:09.627,-30.5626,-43.6252
16:35:09.630,-31.9376,-47.5627
16:35:09.665,-33.8751,-50.6252
16:35:09.666,-35.0626,-52.8752
16:35:09.669,-36.1876,-55.7502
16:35:09.670,-37.3751,-57.6252
16:35:09.676,-38.2501,-59.8127
16:35:09.682,-38.8126,-60.1252
16:35:09.717,-39.2502,-62.5627
16:35:09.719,-39.3127,-63.6252
16:35:09.721,-40.3752,-63.1877
16:35:09.724,-41.6252,-66.1253
16:35:09.746,-41.4377,-66.8753
16:35:09.749,-41.9377,-68.2503
16:35:09.754,-42.6252,-68.6253
16:35:09.764,-43.4377,-70.6253
16:35:09.775,-43.8752,-72.3128
16:35:09.785,-44.6252,-72.8753
16:35:09.793,-45.5002,-75.2503
16:35:09.802,-46.1877,-75.8128
16:35:09.812,-47.0627,-77.6878
16:35:09.829,-48.2502,-78.9378
16:35:09.846,-48.3752,-80.0628
16:35:09.848,-48.3752,-81.1878
16:35:09.862,-49.3127,-81.5628
16:35:09.879,-48.9377,-82.2503
16:35:09.881,-47.6252,-78.5628
16:35:09.884,-42.6252,-73.3128
16:35:09.894,-36.1251,-63.0627
16:35:09.903,-26.4376,-48.5627
16:35:09.912,-16.0001,-29.8126
16:35:09.925,-3.8125,-11.5
16:35:09.932,7.75,10.8125
16:35:09.943,19.9376,30.1876
16:35:09.953,31.5626,49.7502
16:35:09.963,39.2501,65.6253
16:35:09.972,44.8752,75.5628
16:35:09.983,47.8752,83.0003
16:35:09.992,49.3127,85.9378
16:35:10.005,49.1877,87.3753
16:35:10.013,46.9377,84.8128
16:35:10.023,44.5627,81.1878
16:35:10.032,40.4377,76.2503
16:35:10.042,37.3126,69.7503
16:35:10.052,31.8126,64.3127
16:35:10.063,27.9376,56.3127
16:35:10.072,23.8751,48.1877
16:35:10.084,19.8751,42.3127
16:35:10.092,15.5001,34.5626
16:35:10.103,12,27.8126
16:35:10.112,7.5625,20.6876
16:35:10.122,3.875,14.6251
16:35:10.133,0.6875,7.8125
16:35:10.145,-1.0625,3
16:35:10.153,-2.75,-0.3125
16:35:10.164,-4.625,-3
16:35:10.172,-4.0625,-4.875
16:35:10.182,-4.8125,-5.3125
16:35:10.194,-3.4375,-4.6875
16:35:10.205,-2.125,-3.125
16:35:10.215,-1.6875,-0.9375
16:35:10.222,1.5625,2.9375
16:35:10.232,3.25,5.75
16:35:10.242,5.3125,9.5625
16:35:10.252,6.375,10.375
16:35:10.279,7.25,12.75
16:35:10.281,7.75,13.7501
16:35:10.284,7.4375,13.5626
16:35:10.316,7.75,13.5626
16:35:10.319,6.5,13
16:35:10.322,6.375,11.0625
16:35:10.323,4.375,9.125
16:35:10.353,2.5625,4.875
16:35:10.355,1.3125,1.625
16:35:10.358,-1.4375,-1.1875
16:35:10.365,-3.6875,-5.5625
16:35:10.379,-5.625,-10.25
16:35:10.384,-8.5625,-13.8751
16:35:10.417,-11.1875,-18.9376
16:35:10.419,-13.3751,-23.1876
16:35:10.422,-16.3751,-28.2501
16:35:10.425,-17.7501,-31.6251
16:35:10.440,-19.5001,-35.2501
16:35:10.446,-21.8751,-38.6876
16:35:10.453,-23.5626,-42.4377
16:35:10.464,-26.0626,-45.5627
16:35:10.472,-26.8126,-48.5002
16:35:10.482,-28.2501,-52.3752
16:35:10.493,-30.0001,-54.8127
16:35:10.505,-31.6251,-58.1877
16:35:10.513,-33.3126,-60.9377
16:35:10.523,-34.6251,-64.0002
16:35:10.534,-35.3751,-66.1878
16:35:10.542,-36.9376,-68.0628
16:35:10.555,-38.2501,-70.8128
16:35:10.589,-39.4377,-73.4378
16:35:10.591,-41.0002,-75.2503
16:35:10.594,-41.9377,-78.0628
16:35:10.596,-42.9377,-77.9378
16:35:10.602,-43.1252,-80.1878
16:35:10.617,-42.8127,-81.3753
16:35:10.624,-44.1877,-82.3753
16:35:10.640,-43.4377,-82.5003
16:35:10.646,-43.1877,-82.0003
16:35:10.655,-40.0627,-78.2503
16:35:10.664,-34.8126,-69.2503
16:35:10.679,-26.0001,-56.8752
16:35:10.688,-16.2501,-39.5627
16:35:10.694,-3.9375,-21.3751
16:35:10.704,8,-0.6875
16:35:10.714,19.6876,20.7501
16:35:10.724,30.8126,39.0627
16:35:10.732,41.3752,56.8127
16:35:10.744,48.0627,70.5003
16:35:10.755,53.6877,79.3753
16:35:10.762,56.3752,85.9378
16:35:10.774,56.5627,87.6253
16:35:10.784,56.6877,87.9378
16:35:10.794,54.2502,86.1253
16:35:10.804,51.1877,80.9378
16:35:10.814,47.0627,76.2503
16:35:10.823,43.9377,69.6878
16:35:10.833,39.0001,63.7502
16:35:10.843,35.4376,55.4377
16:35:10.852,31.5626,48.9377
16:35:10.864,26.0001,41.0627
16:35:10.874,22.3751,33.6251
16:35:10.888,17.0001,25.8126
16:35:10.892,12.6875,18.3126
16:35:10.904,8.375,9.5
16:35:10.914,4.0625,4
16:35:10.924,1.8125,-2.125
16:35:10.935,-0.9375,-4.875
16:35:10.946,-1.5625,-9.5625
16:35:10.952,-2.3125,-9.9375
16:35:10.963,-1.5625,-11.4375
16:35:10.974,-1.4375,-9.9375
16:35:10.985,-0.6875,-8.75
16:35:10.998,0.8125,-8.375
16:35:11.004,2.375,-5.4375
16:35:11.013,3.4375,-3.3125
16:35:11.024,4.6875,-0.0625
16:35:11.034,7.1875,2.5625
16:35:11.047,7.875,5.4375
16:35:11.054,8.5,5.9375
16:35:11.064,8.8125,6.6875
16:35:11.074,7.5,6.375
16:35:11.087,7.5625,4.9375
16:35:11.119,6.75,3.625
16:35:11.122,4.25,0.4375
16:35:11.124,3.1875,-2.8125
16:35:11.128,1,-5.25
16:35:11.163,-1.6875,-9.75
16:35:11.164,-2.6875,-13.3126
16:35:11.200,-5.375,-15.5626
16:35:11.239,-7.625,-21.0001
16:35:11.239,-10.3125,-24.8751
16:35:11.239,-12.4375,-29.0626
16:35:11.242,-15.0001,-32.8751
16:35:11.263,-17.1876,-37.9376
16:35:11.279,-19.7501,-41.2502
16:35:11.279,-21.6876,-46.2502
16:35:11.279,-23.9376,-49.2502
16:35:11.282,-25.3751,-53.0627
16:35:11.288,-27.1251,-57.0002
16:35:11.289,-27.8751,-59.8752
16:35:11.289,-30.4376,-63.0627
16:35:11.300,-33.0626,-66.5628
16:35:11.309,-34.6251,-69.5003
16:35:11.319,-36.0626,-70.8128
16:35:11.329,-37.1876,-74.8753
16:35:11.339,-37.5001,-76.0628
16:35:11.351,-38.8126,-76.8128
16:35:11.359,-39.8752,-78.1253
16:35:11.373,-42.2502,-83.1878
16:35:11.379,-43.0627,-84.3753
16:35:11.391,-43.5627,-86.5003
16:35:11.399,-44.8127,-86.4378
16:35:11.409,-45.2502,-88.9378
16:35:11.419,-46.5627,-90.3129
16:35:11.429,-47.0627,-91.9379
16:35:11.440,-47.5002,-92.3129
16:35:11.449,-47.8752,-93.5004
16:35:11.459,-49.6252,-95.6879
16:35:11.469,-49.8127,-97.0004
16:35:11.479,-50.1252,-97.3129
16:35:11.489,-49.8752,-95.5629
16:35:11.499,-47.6252,-94.4379
16:35:11.509,-42.2502,-86.1253
16:35:11.517,-34.3751,-74.7503
16:35:11.529,-23.9376,-58.3127
16:35:11.541,-11.0625,-37.6876
16:35:11.549,1.25,-14.5001
16:35:11.559,15.1251,7.375
16:35:11.569,27.7501,31.5001
16:35:11.579,39.5002,51.2502
16:35:11.592,49.1252,68.9378
16:35:11.599,56.4377,82.9378
16:35:11.609,60.8127,92.1254
16:35:11.619,64.0627,97.7504
16:35:11.629,64.5002,101.6254
16:35:11.641,63.6252,100.1879
16:35:11.648,61.3752,97.8129
16:35:11.659,57.1877,93.1254
16:35:11.669,54.3127,87.3128
16:35:11.679,50.5002,82.6253
16:35:11.689,45.9377,75.0628
16:35:11.699,41.9377,68.7503
16:35:11.709,38.0001,61.9377
16:35:11.719,34.5626,55.2502
16:35:11.729,29.7501,48.8127
16:35:11.738,26.3751,42.0627
16:35:11.749,22.6251,34.1876
16:35:11.779,18.3126,26.8751
16:35:11.785,15.4376,20.8126
16:35:11.785,12.25,16.0001
16:35:11.789,9.9375,12.0625
16:35:11.824,8.125,8.8125
16:35:11.827,7.6875,7.5625
16:35:11.828,8.125,6.8125
16:35:11.831,8.75,8.5625
16:35:11.868,10.5625,9.5
16:35:11.870,12.5625,13.3126
16:35:11.873,14.3126,15.3751
16:35:11.908,15.9376,18.5626
16:35:11.909,18.0001,22.1251
16:35:11.912,19.3126,23.5626
16:35:11.915,20.1876,24.8751
16:35:11.919,21.1251,25.9376
16:35:11.919,21.1876,26.4376
16:35:11.938,21.2501,25.9376
16:35:11.941,19.8126,25.1251
16:35:11.949,18.4376,22.8751
16:35:11.964,16.4376,19.3126
16:35:11.972,15.5001,16.5001
16:35:11.980,13.5001,13
16:35:11.995,11.0625,10.25
16:35:12.006,8.6875,5.375
16:35:12.014,5.8125,-0.3125
16:35:12.025,2.875,-5.125
16:35:12.034,-0.625,-9.9375
16:35:12.044,-3.4375,-14.0626
16:35:12.054,-5.375,-19.3126
16:35:12.064,-8.4375,-23.8126
16:35:12.074,-10.4375,-28.0626
16:35:12.084,-13.0625,-32.5626
16:35:12.094,-14.5626,-36.3126
16:35:12.104,-17.8126,-40.5002
16:35:12.115,-18.8126,-44.0002
16:35:12.125,-21.4376,-47.4377
16:35:12.137,-23.8126,-51.6252
16:35:12.144,-25.0626,-53.7502
16:35:12.156,-26.8126,-57.5002
16:35:12.164,-28.4376,-59.5002
16:35:12.177,-29.8751,-63.9377
16:35:12.184,-31.2501,-64.4377
16:35:12.194,-32.0626,-66.5628
16:35:12.205,-32.1251,-68.3753
16:35:12.215,-33.2501,-68.2503
16:35:12.224,-35.2501,-70.9378
16:35:12.234,-35.4376,-72.7503
16:35:12.244,-36.8751,-73.5628
16:35:12.254,-36.8751,-75.6878
16:35:12.265,-37.3126,-76.5628
16:35:12.274,-39.6877,-77.0003
16:35:12.284,-39.8127,-79.1878
16:35:12.295,-39.6877,-80.0628
16:35:12.304,-40.8127,-80.6878
16:35:12.314,-41.0627,-83.3128
16:35:12.324,-41.5627,-83.3753
16:35:12.334,-42.6877,-83.8753
16:35:12.344,-42.3752,-84.9378
16:35:12.356,-41.3127,-84.4378
16:35:12.364,-39.8752,-81.0628
16:35:12.374,-33.3751,-73.9378
16:35:12.385,-26.3751,-61.4377
16:35:12.396,-15.9376,-46.0627
16:35:12.404,-3.625,-25.4376
16:35:12.414,8.75,-3.75
16:35:12.424,22.1876,17.6251
16:35:12.436,34.2501,39.8127
16:35:12.444,45.1252,59.0627
16:35:12.454,54.3752,75.5628
16:35:12.464,60.0627,87.5003
16:35:12.475,63.6877,94.4379
16:35:12.486,66.0628,100.5629
16:35:12.494,65.6253,100.9379
16:35:12.504,64.1877,100.0629
16:35:12.515,59.6877,97.0629
16:35:12.548,56.6252,89.4378
16:35:12.550,51.7502,85.1253
16:35:12.577,47.9377,77.0628
16:35:12.580,43.3127,71.0003
16:35:12.609,38.8126,63.3752
16:35:12.643,35.0626,56.2502
16:35:12.646,29.8751,48.8752
16:35:12.646,25.8751,41.2502
16:35:12.657,21.5626,32.7501
16:35:12.660,18.5001,26.5001
16:35:12.665,13.5626,19.3751
16:35:12.665,9.625,13.8126
16:35:12.665,7.3125,7.875
16:35:12.669,5.0625,4.25
16:35:12.700,4.3125,1.4375
16:35:12.703,3.5,1.25
16:35:12.706,4.4375,1.3125
16:35:12.710,6.375,2.4375
16:35:12.719,9.125,6.25
16:35:12.729,10.875,9.25
16:35:12.739,12.9375,12.9375
16:35:12.749,15.1876,17.4376
16:35:12.761,16.9376,20.1876
16:35:12.769,17.9376,21.7501
16:35:12.779,18.0626,23.9376
16:35:12.789,17.6876,24.0626
16:35:12.801,16.1876,21.6251
16:35:12.809,15.3126,19.4376
16:35:12.819,13.3751,17.5001
16:35:12.829,11.5625,14.3126
16:35:12.840,9.5625,11.8125
16:35:12.849,7.3125,7.4375
16:35:12.859,4.4375,4.25
16:35:12.869,1.75,-1.125
16:35:12.884,-0.75,-4.6875
16:35:12.890,-3.5,-9.6875
16:35:12.899,-5.625,-13.2501
16:35:12.909,-7.8125,-16.6251
16:35:12.919,-9.3125,-21.1876
16:35:12.929,-11.75,-24.6251
16:35:12.939,-13.3126,-28.6251
16:35:12.950,-14.8126,-32.1876
16:35:12.959,-17.3751,-34.8751
16:35:12.969,-20.3751,-40.3752
16:35:12.979,-22.0001,-42.7502
16:35:12.989,-23.5626,-46.9377
16:35:12.999,-25.4376,-49.1877
16:35:13.009,-26.1876,-52.6877
16:35:13.019,-28.3751,-55.1252
16:35:13.030,-29.8126,-57.1252
16:35:13.039,-31.3126,-60.5627
16:35:13.049,-32.8126,-63.6252
16:35:13.059,-35.4376,-66.2503
16:35:13.069,-35.8751,-68.1878
16:35:13.079,-37.1251,-70.4378
16:35:13.089,-38.5001,-72.5628
16:35:13.099,-38.0626,-73.3753
16:35:13.109,-39.4377,-73.3128
16:35:13.119,-39.6877,-75.6253
16:35:13.146,-39.4377,-75.3128
16:35:13.149,-37.4376,-72.8128
16:35:13.151,-33.3126,-67.7503
16:35:13.159,-25.7501,-56.1252
16:35:13.169,-17.5001,-42.9377
16:35:13.179,-5.75,-24.5626
16:35:13.189,5.5,-4.5625
16:35:13.199,18.1876,17.1876
16:35:13.211,31.3126,39.0001
16:35:13.224,41.3752,58.6252
16:35:13.236,50.4377,73.8753
16:35:13.244,57.1252,88.6253
16:35:13.259,62.1877,96.9379
16:35:13.264,64.9377,104.6879
16:35:13.278,65.5003,106.2504
16:35:13.354,65.4377,107.6879
16:35:13.356,63.1252,104.1254
16:35:13.388,59.8752,100.5629
16:35:13.390,55.8752,95.6254
16:35:13.392,51.7502,88.0003
16:35:13.394,46.5627,81.8128
16:35:13.394,42.6877,73.6253
16:35:13.400,38.0626,67.4378
16:35:13.439,34.2501,59.9377
16:35:13.441,30.4376,51.8127
16:35:13.443,24.0626,41.3127
16:35:13.445,19.6251,34.1876
16:35:13.450,15.8126,27.4376
16:35:13.459,12.8125,21.0626
16:35:13.469,9.5,15.8751
16:35:13.479,7.5,11.75
16:35:13.490,5.75,8.5
16:35:13.499,5.6875,6.625
16:35:13.509,5.9375,6.5625
16:35:13.519,6.8125,8.4375
16:35:13.530,7.9375,9.875
16:35:13.539,9.25,12.5
16:35:13.549,11.375,15.5001
16:35:13.559,19.5001,29.3751
16:35:13.570,19.1876,28.8126
16:35:13.579,18.9376,27.7501
16:35:13.589,16.4376,25.8126
16:35:13.599,14.6251,23.6876
16:35:13.609,12.875,20.2501
16:35:13.619,10.6875,16.3751
16:35:13.634,9.25,12.4375
16:35:13.639,7.0625,9.25
16:35:13.650,3.75,4.9375
16:35:13.659,2.25,1.375
16:35:13.669,-1.25,-3.9375
16:35:13.679,-3.25,-7.875
16:35:13.689,-6.1875,-12.375
16:35:13.699,-7.75,-17.1876
16:35:13.709,-12.125,-21.5626
16:35:13.720,-13.3126,-25.8751
16:35:13.729,-16.8126,-29.7501
16:35:13.739,-18.3126,-33.9376
16:35:13.749,-20.6251,-37.0626
16:35:13.761,-21.7501,-40.8752
16:35:13.769,-24.3751,-43.5627
16:35:13.779,-25.3751,-46.6252
16:35:13.789,-27.6251,-48.8752
16:35:13.799,-28.3751,-51.9377
16:35:13.809,-29.7501,-53.7502
16:35:13.819,-31.1251,-54.9377
16:35:13.831,-31.0626,-56.8752
16:35:13.839,-32.5626,-57.5627
16:35:13.849,-32.8751,-60.2502
16:35:13.859,-33.4376,-59.9377
16:35:13.872,-34.3126,-61.4377
16:35:13.879,-34.3751,-63.3127
16:35:13.889,-36.0001,-64.5627
16:35:13.899,-36.7501,-66.3753
16:35:13.912,-37.6251,-67.2503
16:35:13.945,-38.4376,-68.6253
16:35:13.946,-39.0626,-69.6253
16:35:13.976,-39.5002,-72.2503
16:35:14.056,-39.9377,-72.0628
16:35:14.056,-40.8752,-74.3753
16:35:14.061,-40.5627,-74.6253
16:35:14.062,-40.8127,-74.9378
16:35:14.062,-39.0626,-74.0628
16:35:14.092,-35.5001,-68.8128
16:35:14.096,-29.1251,-59.2502
16:35:14.097,-19.1876,-43.8127
16:35:14.100,-8.375,-25.5626
16:35:14.114,5.4375,-3.3125
16:35:14.119,19.6876,21.2501
16:35:14.129,33.5626,43.6252
16:35:14.139,46.1877,66.6253
16:35:14.149,56.1877,85.9378
16:35:14.160,64.8752,99.8754
16:35:14.169,69.6253,111.3129
16:35:14.179,73.0003,118.0005
16:35:14.189,74.1878,121.8755
16:35:14.199,73.6878,122.8755
16:35:14.209,72.0628,119.938
16:35:14.220,68.4378,116.7504
16:35:14.229,43.2502,76.5003
16:35:14.239,39.1251,67.3128
16:35:14.250,34.3751,60.9377
16:35:14.259,31.3126,52.8752
16:35:14.269,27.9376,47.7502
16:35:14.279,25.0626,43.1877
16:35:14.290,22.9376,39.6252
16:35:14.299,22.4376,36.1876
16:35:14.309,21.0001,35.8751
16:35:14.319,22.3751,35.9376
16:35:14.329,23.6251,37.1876
16:35:14.339,24.8751,39.1252
16:35:14.349,26.0001,40.8127
16:35:14.360,27.7501,43.6877
16:35:14.369,30.0626,46.6252
16:35:14.379,31.1876,48.8127
16:35:14.389,32.3751,50.7502
16:35:14.400,33.1251,52.3752
16:35:14.426,32.8751,53.1252
16:35:14.429,32.9376,51.3127
16:35:14.431,31.2501,50.5002
16:35:14.439,29.8126,48.0002
16:35:14.449,27.8126,45.0002
16:35:14.459,25.8751,41.5002
16:35:14.469,23.6876,37.1251
16:35:14.479,20.8126,32.7501
16:35:14.492,19.0626,28.8126
16:35:14.499,15.9376,24.8126
16:35:14.509,13.125,20.7501
16:35:14.519,10.75,15.2501
16:35:14.529,7.875,10.625
16:35:14.539,5.1875,6.125
16:35:14.549,2.8125,-0.3125
16:35:14.559,0,-4.125
16:35:14.570,-2.6875,-9.3125
16:35:14.579,-5.375,-13.125
16:35:14.589,-8.25,-17.1876
16:35:14.599,-10.4375,-21.7501
16:35:14.611,-12.625,-25.6251
16:35:14.619,-14.3751,-28.8751
16:35:14.635,-16.3126,-33.1876
16:35:14.667,-17.1251,-35.3126
16:35:14.700,-18.1251,-37.8126
16:35:14.727,-20.0001,-40.2502
16:35:14.727,-20.8126,-41.7502
16:35:14.728,-21.3751,-44.3127
16:35:14.730,-22.3751,-45.3752
16:35:14.736,-22.7501,-46.6877
16:35:14.738,-24.0001,-48.9377
16:35:14.738,-25.0626,-49.8752
16:35:14.744,-26.2501,-52.5627
16:35:14.774,-26.4376,-52.3752
16:35:14.779,-28.0626,-54.3127
16:35:14.780,-28.1251,-56.8127
16:35:14.786,-29.8126,-57.8752
16:35:14.815,-30.0626,-60.1252
16:35:14.820,-30.3126,-61.5002
16:35:14.821,-32.2501,-62.5627
16:35:14.825,-32.1876,-64.0002
16:35:14.835,-33.2501,-65.1252
16:35:14.844,-34.0626,-65.0628
16:35:14.854,-32.1876,-65.0627
16:35:14.865,-28.8126,-59.5627
16:35:14.876,-22.0626,-50.0002
16:35:14.884,-12.5625,-35.5001
16:35:14.894,-1.5,-17.6876
16:35:14.905,31.0001,37.7501
16:35:14.914,43.2502,57.5627
16:35:14.924,54.9377,75.9378
16:35:14.934,61.6877,91.1879
16:35:14.944,68.1253,102.4379
16:35:14.954,70.5003,109.8754
16:35:14.964,73.1253,113.8754
16:35:14.977,72.4378,114.6879
16:35:14.984,71.5628,112.8754
16:35:14.995,67.5003,109.2504
16:35:15.004,64.5002,103.5629
16:35:15.014,58.7502,97.0629
16:35:15.024,54.5002,88.9378
16:35:15.034,50.0627,82.4378
16:35:15.046,44.6252,75.0628
16:35:15.054,40.1877,66.1253
16:35:15.064,35.1876,59.0627
16:35:15.074,31.3751,50.7502
16:35:15.088,26.7501,43.3127
16:35:15.094,22.6251,34.8126
16:35:15.104,18.6251,29.2501
16:35:15.115,15.8751,23.5626
16:35:15.124,14.0626,18.8126
16:35:15.134,12,16.8126
16:35:15.144,11.375,14.0001
16:35:15.154,11.375,12.625
16:35:15.164,12.3125,13.8751
16:35:15.175,12.75,16.0001
16:35:15.184,14.9376,18.2501
16:35:15.194,16.1876,22.0001
16:35:15.204,17.5001,25.3126
16:35:15.214,19.8751,27.4376
16:35:15.224,20.4376,30.1251
16:35:15.234,22.0626,32.2501
16:35:15.244,22.6876,33.1876
16:35:15.254,22.5001,34.3751
16:35:15.265,22.1876,34.6876
16:35:15.275,21.6251,32.8751
16:35:15.290,20.3751,31.7501
16:35:15.296,18.8126,28.6251
16:35:15.304,16.8751,25.7501
16:35:15.320,14.5001,22.1251
16:35:15.335,13.0625,18.0001
16:35:15.337,11.125,15.2501
16:35:15.345,8.8125,10.8125
16:35:15.355,5.6875,6.5625
16:35:15.364,3.3125,1.625
16:35:15.375,-0.5,-3.5
16:35:15.384,-3.5,-7.75
16:35:15.415,-5.875,-12.6875
16:35:15.418,-8.125,-16.0626
16:35:15.420,-9.875,-19.5001
16:35:15.426,-12.5,-24.7501
16:35:15.456,-13.5626,-27.7501
16:35:15.458,-15.8751,-31.8126
16:35:15.460,-17.7501,-35.2501
16:35:15.465,-19.9376,-37.8751
16:35:15.505,-22.0626,-41.7502
16:35:15.508,-23.3751,-45.6252
16:35:15.509,-25.4376,-47.9377
16:35:15.537,-27.1876,-50.7502
16:35:15.537,-28.3751,-53.0002
16:35:15.539,-29.8751,-56.5627
16:35:15.541,-30.6251,-58.1877
16:35:15.546,-32.5001,-59.4377
16:35:15.566,-32.6876,-62.7502
16:35:15.569,-34.1251,-62.9377
16:35:15.575,-33.8126,-65.3753
16:35:15.584,-32.7501,-64.7502
16:35:15.594,-32.6876,-63.4377
16:35:15.605,-29.4376,-59.2502
16:35:15.618,-23.8751,-50.8127
16:35:15.625,-15.0001,-38.1876
16:35:15.634,-5.1875,-20.8751
16:35:15.647,7.1875,-1.5625
16:35:15.654,19.5626,20.3126
16:35:15.664,31.5001,40.5002
16:35:15.674,42.1252,60.1877
16:35:15.707,51.7502,76.0003
16:35:15.709,57.1877,88.3753
16:35:15.711,61.0002,96.1254
16:35:15.716,63.5002,102.1254
16:35:15.724,63.2502,104.4379
16:35:15.734,62.2502,102.9379
16:35:15.745,58.7502,100.5004
16:35:15.754,56.1252,95.2504
16:35:15.764,53.3127,89.8128
16:35:15.775,47.8752,83.6253
16:35:15.784,43.4377,75.0628
16:35:15.794,38.7501,67.9378
16:35:15.805,33.5626,60.3127
16:35:15.814,28.3751,52.1252
16:35:15.824,23.8751,43.2502
16:35:15.834,19.0001,36.0626
16:35:15.844,14.3126,27.3126
16:35:15.854,10,20.0001
16:35:15.864,6.875,13.8751
16:35:15.874,3.4375,8.5
16:35:15.884,1.5625,4
16:35:15.895,0.5625,2.1875
16:35:15.905,0.25,-0.1875
16:35:15.914,0.5625,1.25
16:35:15.924,1.625,1.25
16:35:15.934,3.375,4.75
16:35:15.944,5.9375,6.5
16:35:15.954,8.125,10.5625
16:35:15.966,10.3125,14.0626
16:35:15.980,13.3126,18.5001
16:35:15.987,15.1251,20.3126
16:35:15.999,15.6251,22.9376
16:35:16.015,15.6876,22.8751
16:35:16.022,15.2501,22.8751
16:35:16.037,14.8751,21.2501
16:35:16.039,13.9376,20.6251
16:35:16.044,12.8125,18.1251
16:35:16.054,11.1875,15.7501
16:35:16.064,8.9375,12.4375
16:35:16.075,7.375,9.875
16:35:16.099,5.1875,5.4375
16:35:16.101,2.875,1.0625
16:35:16.104,-0.375,-3.5
16:35:16.133,-3.25,-8.5
16:35:16.135,-5.625,-13.2501
16:35:16.139,-8.5,-17.0001
16:35:16.145,-11.9375,-21.6876
16:35:16.186,-13.6251,-25.5626
16:35:16.189,-15.8751,-29.2501
16:35:16.191,-17.6876,-33.3751
16:35:16.195,-19.1876,-37.1876
16:35:16.197,-21.8751,-40.8127
16:35:16.204,-24.5626,-43.6252
16:35:16.239,-26.3126,-48.1877
16:35:16.242,-28.5626,-50.9377
16:35:16.244,-29.5001,-53.5627
16:35:16.247,-31.2501,-55.2502
16:35:16.267,-32.6251,-57.6877
16:35:16.270,-33.7501,-60.6877
16:35:16.276,-34.2501,-61.7502
16:35:16.284,-35.8751,-63.1252
16:35:16.294,-36.1251,-65.5628
16:35:16.306,-36.8126,-66.1878
16:35:16.314,-38.1876,-66.7503
16:35:16.324,-38.5626,-68.6878
16:35:16.334,-39.3127,-69.6878
16:35:16.345,-39.5627,-71.2503
16:35:16.355,-40.4377,-72.0003
16:35:16.365,-41.8752,-74.7503
16:35:16.375,-42.5002,-75.9378
16:35:16.384,-43.3127,-76.4378
16:35:16.395,-43.5002,-78.0628
16:35:16.404,-43.6252,-76.4378
16:35:16.414,-40.8127,-73.8128
16:35:16.424,-35.3126,-66.6253
16:35:16.435,-26.9376,-52.3127
16:35:16.444,-14.7501,-35.8126
16:35:16.454,-1.1875,-13.8126
16:35:16.464,12.25,11.0625
16:35:16.475,26.8126,33.8751
16:35:16.484,40.2502,56.7502
16:35:16.494,51.3752,78.2503
16:35:16.504,60.3752,95.3129
16:35:16.516,67.4378,108.2504
16:35:16.525,72.2503,117.2505
16:35:16.536,73.3753,123.0005
16:35:16.545,73.6253,123.6255
16:35:16.555,73.0628,123.438
16:35:16.565,69.8753,120.313
16:35:16.575,66.6253,115.3754
16:35:16.584,63.2502,109.5004
16:35:16.604,57.3752,102.7504
16:35:16.606,53.5627,94.7504
16:35:16.621,48.6877,88.1253
16:35:16.637,43.5002,79.5628
16:35:16.637,39.0001,73.6878
16:35:16.646,35.0001,65.4378
16:35:16.655,30.6251,57.7502
16:35:16.665,26.3126,50.7502
16:35:16.674,22.0626,44.1877
16:35:16.686,19.9376,39.3127
16:35:16.694,16.1876,34.0001
16:35:16.705,14.6251,30.0626
16:35:16.716,12.1875,26.5626
16:35:16.724,12.75,25.6251
16:35:16.735,11.875,25.3751
16:35:16.747,12.375,26.0626
16:35:16.757,13,27.6876
16:35:16.766,13.2501,29.1876
16:35:16.774,11.3125,31.0001
16:35:16.785,10.75,32.8126
16:35:16.795,10.75,34.1251
16:35:16.805,11.5,36.5626
16:35:16.814,13.3126,40.3752
16:35:16.825,16.5626,44.1252
16:35:16.834,17.0001,47.1877
16:35:16.845,18.5001,47.0627
16:35:16.869,17.9376,48.0002
16:35:16.873,17.8751,47.3752
16:35:16.887,17.6251,48.1877
16:35:16.889,19.3751,48.1877
16:35:16.919,18.3751,46.8127
16:35:16.921,14.6876,41.8752
16:35:16.924,13.3126,37.6251
16:35:16.929,11.125,34.1251
16:35:16.965,10.4375,30.5001
16:35:16.968,8.75,25.1876
16:35:16.970,6.25,19.6251
16:35:16.995,3.5625,13.2501
16:35:16.998,0.125,7.125
16:35:17.000,-3.1875,0.25
16:35:17.024,-7,-7.125
16:35:17.025,-10.5,-13.6251
16:35:17.027,-12.375,-18.6251
16:35:17.029,-16.2501,-24.8126
16:35:17.038,-18.6251,-31.6876
16:35:17.045,-21.1251,-36.7501
16:35:17.055,-23.0626,-42.8752
16:35:17.065,-24.6251,-46.4377
16:35:17.075,-26.0626,-49.5002
16:35:17.086,-27.6251,-55.4377
16:35:17.096,-28.4376,-59.0627
16:35:17.105,-30.5001,-63.3127
16:35:17.115,-31.6876,-67.8753
16:35:17.124,-35.2501,-76.7503
16:35:17.135,-45.2502,-92.4379
16:35:17.144,-50.4377,-103.1879
16:35:17.155,-51.7502,-107.4379
16:35:17.168,-50.6252,-106.6254
16:35:17.175,-48.0002,-106.6254
16:35:17.187,-45.1252,-102.9379
16:35:17.195,-42.1252,-100.6254
16:35:17.206,-39.1876,-96.6879
16:35:17.215,-37.5626,-94.0004
16:35:17.225,-35.8751,-90.3129
16:35:17.237,-33.0001,-86.0003
16:35:17.245,-29.3126,-79.1878
16:35:17.255,-23.1251,-71.5628
16:35:17.268,-15.0001,-58.8127
16:35:17.276,-6,-45.8127
16:35:17.285,4.1875,-27.1876
16:35:17.305,11.25,-8.6875
16:35:17.311,18.6251,10.0625
16:35:17.316,25.0001,30.4376
16:35:17.331,32.6251,48.9377
16:35:17.345,40.8752,68.3128
16:35:17.348,44.3127,82.2503
16:35:17.361,45.8127,89.4378
16:35:17.369,45.9377,95.3129
16:35:17.380,45.5627,96.1879
16:35:17.390,45.9377,95.0629
16:35:17.399,44.3752,91.0629
16:35:17.411,42.8752,87.0628
16:35:17.419,41.6252,82.5628
16:35:17.430,40.5002,77.4378
16:35:17.441,39.5002,71.6253
16:35:17.449,37.5001,66.8128
16:35:17.460,35.9376,58.3127
16:35:17.470,31.6876,51.4377
16:35:17.480,28.0626,44.0002
16:35:17.489,25.4376,35.8751
16:35:17.504,22.5001,28.1251
16:35:17.510,17.1876,17.9376
16:35:17.520,5.4375,-2.75
16:35:17.530,-5.8125,-19.0001
16:35:17.540,-13.9376,-33.1251
16:35:17.557,-19.8126,-40.6877
16:35:17.561,-20.4376,-41.3127
16:35:17.593,-17.5626,-38.3751
16:35:17.594,-10.6875,-29.1251
16:35:17.598,-5.125,-18.4376
16:35:17.600,-2.25,-8.3125
16:35:17.630,3.0625,1.625
16:35:17.632,9.4375,13.3126
16:35:17.636,15.5626,22.1876
16:35:17.641,17.9376,28.7501
16:35:17.674,19.6251,32.3126
16:35:17.676,20.4376,35.0626
16:35:17.678,18.8751,36.0626
16:35:17.681,15.9376,36.0001
16:35:17.719,11.25,34.9376
16:35:17.721,10.125,33.1876
16:35:17.723,7.4375,33.5001
16:35:17.725,5.5,29.7501
16:35:17.732,3.125,26.2501
16:35:17.741,-1,21.0001
16:35:17.750,-2.625,14.1251
16:35:17.761,-1.75,10.4375
16:35:17.769,-1.875,4.625
16:35:17.780,-3.9375,-2.6875
16:35:17.792,-6.8125,-10.5
16:35:17.800,-11.5,-17.6251
16:35:17.810,-14.3126,-24.5001
16:35:17.820,-18.0001,-30.6876
16:35:17.830,-21.3751,-36.4376
16:35:17.842,-24.6251,-42.6252
16:35:17.850,-27.6251,-47.6877
16:35:17.859,-31.0001,-54.4377
16:35:17.870,-37.0001,-65.8128
16:35:17.880,-46.1877,-80.5003
16:35:17.890,-54.9377,-96.3754
16:35:17.900,-63.0002,-107.2504
16:35:17.922,-63.6877,-110.3129
16:35:17.924,-58.6252,-105.0629
16:35:17.932,-49.6877,-96.4379
16:35:17.940,-41.6252,-87.7503
16:35:17.955,-35.9376,-79.8753
16:35:17.965,-37.8751,-75.1878
16:35:17.970,-39.9377,-72.5628
16:35:17.981,-38.0001,-69.2503
16:35:17.991,-35.6251,-64.3752
16:35:18.000,-34.1251,-62.8752
16:35:18.010,-32.1876,-61.9377
16:35:18.022,-29.7501,-57.6252
16:35:18.030,-26.9376,-51.8127
16:35:18.042,-24.2501,-43.0627
16:35:18.050,-17.9376,-29.8126
16:35:18.060,-8.125,-11
16:35:18.073,4.4375,12.125
16:35:18.080,15.0001,30.6251
16:35:18.090,21.6876,47.8752
16:35:18.104,27.4376,60.3127
16:35:18.110,33.5626,73.0003
16:35:18.120,38.8751,82.1253
16:35:18.130,42.3127,89.5628
16:35:18.140,45.3752,92.7504
16:35:18.151,46.3752,94.0004
16:35:18.161,45.4377,92.6879
16:35:18.170,43.5627,88.8753
16:35:18.181,41.4377,85.4378
16:35:18.190,39.0001,78.5003
16:35:18.200,37.3751,73.4378
16:35:18.212,34.0626,66.2503
16:35:18.220,32.1251,60.4377
16:35:18.230,28.8751,51.3752
16:35:18.243,22.5626,38.9376
16:35:18.266,15.8751,25.8751
16:35:18.269,10.375,16.3126
16:35:18.273,9.5625,10.9375
16:35:18.281,5.5,6.6875
16:35:18.292,5.5,4.3125
16:35:18.300,8.4375,4.0625
16:35:18.310,11.9375,7.75
16:35:18.320,12.625,9.875
16:35:18.330,10.875,12.1875
16:35:18.344,14.1251,17.5626
16:35:18.350,19.8126,24.2501
16:35:18.390,22.6251,29.1251
16:35:18.393,26.4376,34.0626
16:35:18.394,27.6251,38.6876
16:35:18.396,28.3126,41.5002
16:35:18.402,27.5626,43.1877
16:35:18.438,23.0001,43.4377
16:35:18.441,21.5626,44.0627
16:35:18.443,21.0626,46.3752
16:35:18.472,19.5001,45.7502
16:35:18.473,13.7501,42.9377
16:35:18.476,7.75,33.4376
16:35:18.482,0.5,23.3751
16:35:18.483,-5.6875,12.5625
16:35:18.497,-10.3125,2.9375
16:35:18.500,-14.0001,-5.5
16:35:18.517,-19.5626,-15.9376
16:35:18.520,-25.1251,-24.5626
16:35:18.530,-31.1251,-34.5626
16:35:18.540,-36.5626,-42.7502
16:35:18.551,-40.4377,-48.8127
16:35:18.560,-42.4377,-55.3752
16:35:18.570,-43.3752,-59.3752
16:35:18.581,-43.1252,-62.5627
16:35:18.590,-41.4377,-65.2502
16:35:18.600,-41.5002,-67.9378
16:35:18.610,-43.5002,-73.4378
16:35:18.628,-45.1252,-78.3753
16:35:18.634,-42.8752,-81.0003
16:35:18.641,-38.9376,-80.2503
16:35:18.655,-30.9376,-76.3753
16:35:18.672,-29.1251,-74.5003
16:35:18.674,-31.1251,-74.0003
16:35:18.683,-33.9376,-73.4378
16:35:18.690,-33.0001,-71.3753
16:35:18.701,-28.8126,-66.2503
16:35:18.711,-27.2501,-64.3752
16:35:18.720,-26.5626,-62.8127
16:35:18.730,-28.7501,-62.6877
16:35:18.740,-33.2501,-63.7502
16:35:18.750,-38.8126,-64.3752
16:35:18.760,-40.4377,-66.0628
16:35:18.770,-39.0001,-63.1252
16:35:18.781,-40.3752,-64.1252
16:35:18.790,-45.1877,-69.6253
16:35:18.800,-51.0627,-75.9378
16:35:18.810,-54.7502,-81.9378
16:35:18.820,-59.1252,-87.0628
16:35:18.830,-62.2502,-92.7504
16:35:18.841,-65.4377,-98.0629
16:35:18.850,-65.7503,-99.8129
16:35:18.862,-62.0627,-96.9379
16:35:18.870,-54.8752,-90.2503
16:35:18.880,-47.4377,-78.6253
16:35:18.890,-31.0001,-58.5627
16:35:18.900,-5.5625,-25.0001
16:35:18.913,24.8751,15.1251
16:35:18.920,50.9377,56.4377
16:35:18.930,72.0003,90.5003
16:35:18.941,86.6878,118.813
16:35:18.950,93.8129,135.6255
16:35:18.961,97.1254,146.3755
16:35:18.970,96.9379,152.0006
16:35:18.980,95.2504,154.6256
16:35:18.990,91.1254,154.8756
