timestamp,Red,IR
11:01:27.648,-0.25,-3.375
11:01:27.657,-0.375,-2.625
11:01:27.666,0.0625,-4.1875
11:01:27.677,-0.75,-4.875
11:01:27.687,-0.6875,-4.8125
11:01:27.697,-0.5,-4.4375
11:01:27.707,-0.0625,-5.4375
11:01:27.717,-0.375,-5.625
11:01:27.727,-0.8125,-7.125
11:01:27.737,-1.125,-8.3125
11:01:27.747,-1.3125,-8.3125
11:01:27.757,-1.1875,-6.8125
11:01:27.770,0.625,-5.4375
11:01:27.783,2.1875,-2.875
11:01:27.789,3.3125,2.4375
11:01:27.797,6,6.5
11:01:27.807,8.0625,10.4375
11:01:27.818,9.5625,15.1876
11:01:27.829,11.75,19.3126
11:01:27.839,12.5,21.3751
11:01:27.849,13.125,23.4376
11:01:27.883,13.3126,23.8751
11:01:27.883,13.0625,25.2501
11:01:27.886,12.875,23.8751
11:01:27.887,12,22.6876
11:01:27.926,11.375,22.8126
11:01:27.927,10.6875,20.1876
11:01:27.929,9.6875,18.5626
11:01:27.934,8.6875,15.9376
11:01:27.938,7,15.4376
11:01:27.947,6.4375,14.4376
11:01:27.982,6.6875,11.6875
11:01:27.986,5.4375,9.5
11:01:27.987,4.1875,9.125
11:01:27.990,2.8125,7.6875
11:01:28.023,3.625,6.5625
11:01:28.026,3,4.25
11:01:28.028,2.125,3.5
11:01:28.033,1.875,3.9375
11:01:28.038,2.25,4
11:01:28.047,3.0625,3.9375
11:01:28.057,2.6875,3.25
11:01:28.068,2.25,4.0625
11:01:28.078,2.75,4.0625
11:01:28.120,3.3125,3.9375
11:01:28.123,2.75,5.25
11:01:28.137,3.5625,6.125
11:01:28.159,3.4375,6.125
11:01:28.162,4.0625,5.6875
11:01:28.162,3,5.1875
11:01:28.162,3.0625,5.9375
11:01:28.163,3.625,6.625
11:01:28.170,3,4.8125
11:01:28.179,2.75,4.5
11:01:28.187,2.5,4.1875
11:01:28.197,2.9375,4.0625
11:01:28.208,2.625,3.125
11:01:28.219,1.875,2.875
11:01:28.227,1.375,2.6875
11:01:28.239,1.4375,1
11:01:28.249,1.6875,0.4375
11:01:28.257,1.1875,-0.25
11:01:28.267,0.8125,-0.0625
11:01:28.277,-0.4375,-1.9375
11:01:28.287,-0.25,-2.4375
11:01:28.297,-0.5625,-2.4375
11:01:28.307,-0.25,-3.4375
11:01:28.317,-0.6875,-4
11:01:28.327,-1.75,-5.3125
11:01:28.337,-2.125,-5.1875
11:01:28.347,-2.0625,-5.125
11:01:28.358,-2.5,-7.0625
11:01:28.367,-3.5625,-8.0625
11:01:28.377,-3.5,-7.5625
11:01:28.387,-3.1875,-8.9375
11:01:28.397,-4.25,-9.8125
11:01:28.407,-4.375,-9.4375
11:01:28.418,-4.1875,-8.9375
11:01:28.427,-3.75,-8.5625
11:01:28.438,-2,-5.9375
11:01:28.447,-0.6875,-2.75
11:01:28.458,1.5,2.1875
11:01:28.467,3.125,5.8125
11:01:28.477,4.5625,10.4375
11:01:28.487,6.375,15.2501
11:01:28.499,8.125,17.8751
11:01:28.507,8.625,20.4376
11:01:28.517,8.875,21.1251
11:01:28.532,8.9375,20.5626
11:01:28.559,8.125,21.5001
11:01:28.561,7.875,20.4376
11:01:28.563,7.625,19.8751
11:01:28.571,6.75,17.0626
11:01:28.579,5.25,16.4376
11:01:28.588,4.5,13.8126
11:01:28.612,3.625,13.125
11:01:28.615,3.4375,12.125
11:01:28.621,2.375,10.0625
11:01:28.659,1.5,9.3125
11:01:28.662,1.3125,8.4375
11:01:28.665,0.5625,5.9375
11:01:28.668,-0.5,4.25
11:01:28.672,0.125,3.375
11:01:28.683,-0.4375,1.875
11:01:28.688,-0.9375,0.75
11:01:28.725,-1.1875,1.25
11:01:28.728,-0.625,1.5
11:01:28.729,-1.1875,-0.5625
11:01:28.731,-1.75,-0.5625
11:01:28.737,-1.3125,1
11:01:28.773,-1.25,0.875
11:01:28.775,-1.1875,1.1875
11:01:28.778,-1.125,0.9375
11:01:28.783,-1.375,2.4375
11:01:28.788,-0.75,2.875
11:01:28.798,0,2.6875
11:01:28.807,-0.625,1.4375
11:01:28.817,-0.875,3.0625
11:01:28.827,-0.6875,2.5625
11:01:28.837,-1.0625,1.6875
11:01:28.847,-1.625,1.4375
11:01:28.859,-1.3125,1.125
11:01:28.868,-1.5625,0.5
11:01:28.878,-1.9375,-1.3125
11:01:28.888,-2.0625,-0.8125
11:01:28.897,-2.3125,-1.375
11:01:28.909,-2.125,-2.0625
11:01:28.917,-2.6875,-3.25
11:01:28.927,-3.5,-4.875
11:01:28.937,-3.0625,-4.3125
11:01:28.947,-4,-5.8125
11:01:28.959,-3.75,-5.0625
11:01:28.968,-3.8125,-6.25
11:01:28.977,-4.625,-6.75
11:01:28.987,-5.3125,-7.0625
11:01:28.998,-5.4375,-8.625
11:01:29.008,-6.1875,-9.875
11:01:29.017,-6.25,-10
11:01:29.027,-6.1875,-10.375
11:01:29.038,-7.0625,-10.875
11:01:29.048,-7,-11.5
11:01:29.058,-7.625,-11.9375
11:01:29.067,-7.1875,-12.125
11:01:29.077,-7.6875,-13.1876
11:01:29.087,-9.0625,-12.375
11:01:29.099,-8,-13.4376
11:01:29.108,-8,-12.8125
11:01:29.117,-6.625,-8.9375
11:01:29.129,-4.625,-6.25
11:01:29.138,-3.3125,-1.4375
11:01:29.147,-0.0625,4
11:01:29.159,1.6875,9.4375
11:01:29.167,3.4375,13.3751
11:01:29.177,4.6875,15.1876
11:01:29.187,5.375,19.0001
11:01:29.197,6.25,20.1876
11:01:29.208,6.0625,22.1251
11:01:29.217,6.5,20.1876
11:01:29.227,5.5,21.4376
11:01:29.238,5.8125,19.1251
11:01:29.247,4.5625,18.3751
11:01:29.257,3.5625,16.6251
11:01:29.267,3,14.7501
11:01:29.280,3.0625,14.4376
11:01:29.290,2.625,12.75
11:01:29.297,2.1875,12
11:01:29.306,0.875,9.875
11:01:29.317,0.875,8.5
11:01:29.327,-0.125,9.25
11:01:29.338,0.25,8
11:01:29.370,0.0625,5.9375
11:01:29.372,-1.5625,4.5625
11:01:29.374,-2.1875,4.4375
11:01:29.377,-2.375,2.375
11:01:29.410,-3.6875,1.6875
11:01:29.413,-3.5625,0.6875
11:01:29.427,-3.5625,0.75
11:01:29.431,-3.875,-0.5625
11:01:29.461,-3.875,0
11:01:29.462,-4.3125,0.8125
11:01:29.466,-3.5,0.9375
11:01:29.468,-3.3125,0.9375
11:01:29.503,-4.0625,1.125
11:01:29.506,-4.9375,1.5625
11:01:29.506,-3.4375,1.75
11:01:29.538,-4.5,0.875
11:01:29.554,-4.4375,2.125
11:01:29.554,-4.25,0.5
11:01:29.554,-4.625,-0.4375
11:01:29.569,-5.3125,0.6875
11:01:29.571,-4.4375,-0.625
11:01:29.577,-5.125,-1.6875
11:01:29.588,-5.5,-2.3125
11:01:29.597,-5.875,-3
11:01:29.607,-6.1875,-3.8125
11:01:29.617,-6,-4.75
11:01:29.627,-6,-5.375
11:01:29.637,-6.25,-4.625
11:01:29.647,-6.625,-4.6875
11:01:29.658,-6.1875,-6.3125
11:01:29.667,-6.25,-8
11:01:29.677,-6.5625,-8.125
11:01:29.687,-6.5625,-7.125
11:01:29.697,-6.6875,-9.3125
11:01:29.707,-8.375,-10.5625
11:01:29.717,-7.9375,-11.5625
11:01:29.727,-8.6875,-11.8125
11:01:29.737,-8.8125,-11.3125
11:01:29.748,-8.875,-13.3126
11:01:29.757,-8.625,-12.875
11:01:29.768,-8.4375,-13.125
11:01:29.777,-9.5625,-13.9376
11:01:29.802,-9,-14.0001
11:01:29.804,-9.3125,-13.3126
11:01:29.813,-8.125,-11.75
11:01:29.822,-7,-8.625
11:01:29.832,-4.75,-4.3125
11:01:29.842,-2.9375,-0.75
11:01:29.852,-1.3125,5.8125
11:01:29.863,1.6875,9.375
11:01:29.872,3,14.2501
11:01:29.881,4.5,16.4376
11:01:29.893,4.6875,19.8126
11:01:29.903,6.0625,20.4376
11:01:29.912,5.4375,20.9376
11:01:29.922,5.9375,20.3126
11:01:29.934,5.0625,19.8126
11:01:29.943,4.6875,19.3751
11:01:29.952,3.875,17.3751
11:01:29.964,3.0625,15.5001
11:01:29.972,2.75,15.1876
11:01:29.983,1.9375,13.3751
11:01:29.992,1.4375,12.0625
11:01:30.003,0.5625,10.5625
11:01:30.014,0.0625,10.375
11:01:30.022,0.4375,7.875
11:01:30.035,-0.875,6.625
11:01:30.074,-0.625,5.8125
11:01:30.075,-1.25,5.3125
11:01:30.077,-1.4375,3.4375
11:01:30.079,-1.8125,1.6875
11:01:30.082,-2.3125,2.5625
11:01:30.117,-1.8125,1.5
11:01:30.119,-2.625,0.875
11:01:30.122,-2.875,0.0625
11:01:30.130,-3.125,0.375
11:01:30.145,-3.0625,1.375
11:01:30.149,-2.5625,0.9375
11:01:30.181,-2.25,0.8125
11:01:30.182,-2.5625,1
11:01:30.185,-2,2.625
11:01:30.193,-1.5,2.25
11:01:30.196,-1.4375,1.625
11:01:30.204,-1,3.3125
11:01:30.221,-1,2.375
11:01:30.222,-0.9375,2.8125
11:01:30.232,-1.25,3.5625
11:01:30.242,-0.6875,1.375
11:01:30.252,-0.625,0.875
11:01:30.263,-0.8125,1.125
11:01:30.272,-0.8125,-0.6875
11:01:30.282,-1.0625,-1.0625
11:01:30.292,-0.375,-0.4375
11:01:30.302,-0.1875,-1.9375
11:01:30.312,-1.1875,-2.0625
11:01:30.322,-1.125,-3.75
11:01:30.332,-1.4375,-4.1875
11:01:30.342,-0.875,-4.625
11:01:30.352,-1.25,-4.6875
11:01:30.361,-0.625,-5.4375
11:01:30.372,-0.625,-6.375
11:01:30.382,-1.125,-6.3125
11:01:30.392,-1.1875,-6.75
11:01:30.407,-1.8125,-7.3125
11:01:30.412,-2.6875,-7.3125
11:01:30.423,-2.125,-9.375
11:01:30.432,-2.25,-8.9375
11:01:30.444,-2.5625,-9.875
11:01:30.452,-2.875,-9.3125
11:01:30.462,-2.3125,-9.6875
11:01:30.471,-2.8125,-10.3125
11:01:30.482,-2.875,-11.6875
11:01:30.492,-3.4375,-10.9375
11:01:30.502,-3.3125,-12.1875
11:01:30.512,-3.1875,-11.125
11:01:30.523,-1.75,-9.5
11:01:30.532,-0.3125,-5.75
11:01:30.543,2.6875,-1.9375
11:01:30.552,4.0625,3.5625
11:01:30.562,6.5625,7.4375
11:01:30.574,8.5,12.8125
11:01:30.582,10.3125,16.3751
11:01:30.592,11,19.4376
11:01:30.602,11.75,21.3126
11:01:30.612,11.5625,22.6251
11:01:30.622,12.3125,22.7501
11:01:30.633,12.375,22.1251
11:01:30.643,11.9375,22.1251
11:01:30.652,11.25,20.0626
11:01:30.663,10.3125,19.0626
11:01:30.672,9.625,16.7501
11:01:30.683,8.9375,15.0001
11:01:30.692,7.8125,13
11:01:30.702,5.875,10.6875
11:01:30.711,6.6875,10.1875
11:01:30.724,5.75,7.875
11:01:30.737,5,7.0625
11:01:30.742,3.8125,6.625
11:01:30.774,5,5.125
11:01:30.776,3.5,2.75
11:01:30.780,2.875,2.8125
11:01:30.784,3.0625,1.3125
11:01:30.813,2.875,0.375
11:01:30.815,2.625,0.9375
11:01:30.819,3.5,1.1875
11:01:30.823,3.1875,0.5
11:01:30.854,3,0
11:01:30.856,2.9375,1.375
11:01:30.889,3.125,0.625
11:01:30.916,3.1875,1.9375
11:01:30.916,4.375,2.25
11:01:30.916,3.9375,2.4375
11:01:30.918,3.8125,3.125
11:01:30.943,4.5625,4.6875
11:01:30.958,4.9375,3
11:01:30.961,4,2.75
11:01:30.961,4.625,3
11:01:30.962,4.6875,2.9375
11:01:30.976,4.875,2.3125
11:01:30.978,4.8125,1.6875
11:01:30.982,4.4375,0.4375
11:01:30.992,3.9375,0.5
11:01:31.002,3.5625,0.125
11:01:31.012,3.5,-0.9375
11:01:31.023,3.0625,-0.5
11:01:31.032,3.3125,-1.1875
11:01:31.042,3.4375,-2.6875
11:01:31.053,3.0625,-4.25
11:01:31.082,3.0625,-5.25
11:01:31.085,2.3125,-5
11:01:31.087,2.25,-6.75
11:01:31.093,1.4375,-6.875
11:01:31.103,0.5625,-8.5
11:01:31.112,0,-8.6875
11:01:31.122,0.375,-8.75
11:01:31.132,-0.125,-9.1875
11:01:31.142,-1,-10.1875
11:01:31.152,-0.8125,-10.4375
11:01:31.162,-2.125,-11.75
11:01:31.173,-1.8125,-11.3125
11:01:31.182,-1.875,-13.0625
11:01:31.192,-3.25,-14.3126
11:01:31.202,-3.6875,-12.3125
11:01:31.212,-3.375,-12.9375
11:01:31.223,-2.875,-12
11:01:31.233,-1.875,-9.8125
11:01:31.242,-0.375,-5.25
11:01:31.252,1.5,-2.375
11:01:31.262,3.5,3.5
11:01:31.272,5.875,7.625
11:01:31.282,7.125,10.75
11:01:31.296,8.1875,13.5001
11:01:31.302,9.4375,16.3751
11:01:31.312,9.1875,17.2501
11:01:31.322,8.3125,17.9376
11:01:31.332,8.5,16.1876
11:01:31.343,7.4375,15.5001
11:01:31.353,7.3125,14.3126
11:01:31.362,6.0625,13.9376
11:01:31.372,5.5625,11.8125
11:01:31.383,4.8125,9.875
11:01:31.393,4.625,9.25
11:01:31.402,4.0625,6.8125
11:01:31.412,3.625,5.625
11:01:31.424,3.4375,3.375
11:01:31.433,2.75,3.0625
11:01:31.464,2.8125,1.0625
11:01:31.466,1,-0.9375
11:01:31.470,0.375,-1.25
11:01:31.475,0.125,-3.375
11:01:31.505,-0.1875,-4.375
11:01:31.506,-1,-5.375
11:01:31.508,-1.3125,-5.25
11:01:31.517,-1.4375,-5.125
11:01:31.543,-1.75,-6.5625
11:01:31.545,-2.125,-5.5625
11:01:31.548,-2.625,-5.25
11:01:31.554,-2,-5.375
11:01:31.569,-2.5625,-5.75
11:01:31.573,-2.375,-4.6875
11:01:31.611,-1.6875,-4.75
11:01:31.612,-3.125,-5.125
11:01:31.614,-3.1875,-5.5625
11:01:31.623,-3.25,-4.6875
11:01:31.626,-2.875,-5.5
11:01:31.633,-2.9375,-5.125
11:01:31.642,-3.3125,-5
11:01:31.652,-3.5625,-6.5
11:01:31.663,-4.4375,-7.25
11:01:31.673,-4.9375,-8.0625
11:01:31.683,-4.625,-8.875
11:01:31.692,-5.3125,-9.3125
11:01:31.702,-5.75,-10.5
11:01:31.713,-6.125,-10.75
11:01:31.722,-6.5,-11.75
11:01:31.733,-6.75,-11
11:01:31.743,-6.875,-13.4376
11:01:31.753,-7,-13.3126
11:01:31.762,-7.1875,-13.7501
11:01:31.773,-7.4375,-14.8751
11:01:31.782,-7.5625,-13.8126
11:01:31.792,-8.3125,-15.7501
11:01:31.802,-8.9375,-15.6251
11:01:31.812,-8.9375,-17.0626
11:01:31.822,-8.75,-16.5626
11:01:31.832,-8.625,-17.8751
11:01:31.842,-9.25,-16.6251
11:01:31.852,-8.6875,-17.3126
11:01:31.862,-9.0625,-17.9376
11:01:31.872,-8.9375,-18.3751
11:01:31.882,-8.875,-19.2501
11:01:31.892,-8.25,-17.8751
11:01:31.904,-7.6875,-19.0001
11:01:31.912,-7.4375,-17.0001
11:01:31.923,-5.9375,-15.1876
11:01:31.933,-2.9375,-9.75
11:01:31.942,-0.625,-5.5625
11:01:31.953,0.8125,-0.625
11:01:31.965,3.375,4.6875
11:01:31.973,5.125,9
11:01:31.982,7.5625,12.5
11:01:31.992,8.1875,15.0626
11:01:32.002,8.75,16.6876
11:01:32.012,8.125,18.0001
11:01:32.023,8.875,17.0001
11:01:32.032,7.4375,16.6876
11:01:32.043,7.8125,16.0626
11:01:32.054,6.3125,14.8751
11:01:32.063,5.75,13.3751
11:01:32.072,4.625,10.3125
11:01:32.082,3.1875,10.1875
11:01:32.092,2.375,6.5625
11:01:32.103,0.5,5.3125
11:01:32.113,1,3.625
11:01:32.122,0.0625,1.875
11:01:32.132,-0.5,1.1875
11:01:32.142,-0.5,-0.5
11:01:32.152,-1.75,-2.25
11:01:32.164,-2.625,-3.5
11:01:32.172,-3,-4.4375
11:01:32.181,-3.625,-5.125
11:01:32.194,-3.875,-5.9375
11:01:32.209,-3.5625,-7.1875
11:01:32.212,-3.9375,-7.4375
11:01:32.227,-4.1875,-7.5625
11:01:32.263,-3.8125,-6.3125
11:01:32.265,-4.375,-7.125
11:01:32.299,-4.5625,-7.5625
11:01:32.299,-4.25,-5.625
11:01:32.301,-3.625,-5.5625
11:01:32.301,-3.4375,-6.0625
11:01:32.368,-3.25,-4.4375
11:01:32.368,-3.125,-5.75
11:01:32.368,-3.5625,-5.5625
11:01:32.373,-4.0625,-5.1875
11:01:32.404,-3.4375,-6.125
11:01:32.422,-3.8125,-5.25
11:01:32.422,-3.875,-7.125
11:01:32.422,-4.1875,-6.875
11:01:32.423,-4.9375,-7
11:01:32.427,-4.5625,-8.875
11:01:32.435,-4.625,-9.4375
11:01:32.443,-5.3125,-10
11:01:32.452,-5.4375,-10.5625
11:01:32.463,-6,-11.6875
11:01:32.473,-5.75,-11.375
11:01:32.483,-6.25,-11.875
11:01:32.493,-6.5625,-11.875
11:01:32.502,-6.75,-13.5626
11:01:32.513,-7.5,-14.3751
11:01:32.522,-8.875,-16.7501
11:01:32.532,-9.375,-17.1251
11:01:32.543,-9.1875,-17.6876
11:01:32.552,-9.5,-18.9376
11:01:32.564,-9.625,-19.4376
11:01:32.573,-11.4375,-20.3126
11:01:32.583,-11.75,-20.6876
11:01:32.592,-10.9375,-21.2501
11:01:32.602,-10.875,-19.1876
11:01:32.614,-9.625,-18.3751
11:01:32.623,-9,-14.5001
11:01:32.633,-6.5,-10.4375
11:01:32.642,-4.4375,-5.6875
11:01:32.653,-1.9375,0.6875
11:01:32.662,-0.1875,4.625
11:01:32.672,2,9.625
11:01:32.683,2.6875,11.625
11:01:32.693,2.6875,13.5626
11:01:32.702,3.1875,14.3126
11:01:32.711,2.625,14.8751
11:01:32.723,1.8125,13.9376
11:01:32.733,0.5,12.25
11:01:32.743,0.3125,12.1875
11:01:32.752,-0.4375,10.25
11:01:32.764,-1.875,8.625
11:01:32.774,-2.9375,6.25
11:01:32.783,-3.0625,4.9375
11:01:32.797,-4.125,3.3125
11:01:32.804,-4.5,1.125
11:01:32.813,-4.75,1.375
11:01:32.822,-5,-0.8125
11:01:32.834,-6.125,-2.4375
11:01:32.842,-7,-2.1875
11:01:32.852,-6.25,-4.0625
11:01:32.863,-7.125,-5.5
11:01:32.874,-7.5625,-6.9375
11:01:32.882,-8.0625,-6.125
11:01:32.892,-7.625,-6.375
11:01:32.902,-7,-6.8125
11:01:32.915,-7.875,-7.1875
11:01:32.922,-7.875,-6.0625
11:01:32.934,-6.9375,-6.75
11:01:32.942,-7.3125,-5.4375
11:01:32.952,-7.5,-6.25
11:01:32.961,-7.3125,-5.75
11:01:32.996,-7.3125,-5.3125
11:01:32.998,-6.875,-5.8125
11:01:33.000,-6.25,-4.5625
11:01:33.003,-6.0625,-4.9375
11:01:33.032,-5.375,-4.5625
11:01:33.034,-4.3125,-4.25
11:01:33.035,-4.3125,-2.9375
11:01:33.070,-4.4375,-5.1875
11:01:33.074,-4.6875,-5
11:01:33.076,-5.4375,-6.3125
11:01:33.079,-5.25,-5.75
11:01:33.083,-5.9375,-7.5625
11:01:33.116,-5.5625,-6.8125
11:01:33.118,-5.9375,-7.6875
11:01:33.119,-5.1875,-8.0625
11:01:33.124,-6.1875,-9.375
11:01:33.147,-6.5,-10.125
11:01:33.150,-6.5,-10.5625
11:01:33.152,-7.625,-12
11:01:33.163,-7.4375,-13.125
11:01:33.174,-8.1875,-12.4375
11:01:33.183,-8.4375,-14.5001
11:01:33.193,-8.9375,-14.5626
11:01:33.203,-9.25,-15.6876
11:01:33.213,-10.1875,-16.4376
11:01:33.222,-10,-16.2501
11:01:33.233,-11.0625,-17.8126
11:01:33.244,-12.125,-16.6876
11:01:33.255,-12.25,-18.0001
11:01:33.265,-12.5,-19.0001
11:01:33.272,-12.5,-20.3126
11:01:33.282,-12.75,-18.5001
11:01:33.293,-11.375,-15.6876
11:01:33.301,-9.5,-13.0625
11:01:33.314,-7.5625,-8.75
11:01:33.323,-5.8125,-3.4375
11:01:33.334,-3.5625,0.375
11:01:33.342,-2.5,5.0625
11:01:33.353,-0.75,8.8125
11:01:33.364,0.1875,11.375
11:01:33.373,1.125,14.7501
11:01:33.382,1.5625,14.6876
11:01:33.392,1.625,16.4376
11:01:33.403,1.1875,15.1251
11:01:33.414,1.125,15.8126
11:01:33.422,0.8125,13.9376
11:01:33.432,-0.4375,13.1876
11:01:33.444,-0.25,11.75
11:01:33.452,-1,10
11:01:33.462,-1,9.0625
11:01:33.474,-1.875,8.125
11:01:33.483,-1.9375,6.6875
11:01:33.492,-2,6.25
11:01:33.503,-1.6875,4.9375
11:01:33.513,-2.375,4.0625
11:01:33.523,-2.4375,3.9375
11:01:33.533,-2.1875,2.625
11:01:33.550,-1.8125,1.5
11:01:33.553,-2,0.375
11:01:33.568,-2.625,-1
11:01:33.584,-2.3125,0.875
11:01:33.585,-1.1875,0.6875
11:01:33.599,-1.875,0.5625
11:01:33.604,-1.625,0.4375
11:01:33.611,-0.0625,0.4375
11:01:33.644,-0.25,0.5625
11:01:33.646,0.5625,3
11:01:33.673,0.9375,1.625
11:01:33.703,1.3125,3.5625
11:01:33.703,1.3125,3.25
11:01:33.703,1.5625,3.25
11:01:33.739,1.3125,2.25
11:01:33.772,1.25,3.25
11:01:33.773,2.25,3.0625
11:01:33.775,2.125,2.8125
11:01:33.775,1.9375,3.4375
11:01:33.776,2.1875,3.1875
11:01:33.779,2.25,1.9375
11:01:33.817,1.8125,1.625
11:01:33.817,1.25,0.9375
11:01:33.818,0.5,-1.125
11:01:33.822,0.25,-0.5625
11:01:33.827,0.3125,-0.6875
11:01:33.829,0.375,-1.875
11:01:33.829,1.0625,-2.125
11:01:33.838,1,-2.5
11:01:33.848,-0.1875,-4.0625
11:01:33.858,-0.3125,-4.5625
11:01:33.868,-0.125,-4.8125
11:01:33.883,-0.125,-5.0625
11:01:33.893,-0.125,-5.375
11:01:33.905,-0.4375,-6.25
11:01:33.912,-0.3125,-7.375
11:01:33.922,-0.25,-8.0625
11:01:33.933,-0.5,-9.4375
11:01:33.942,-1.1875,-9.625
11:01:33.957,-1.0625,-9.25
11:01:33.963,-1.25,-9.75
11:01:33.972,-1.25,-9.0625
11:01:33.983,-0.125,-7.1875
11:01:33.993,3,-1.5
11:01:34.003,4.9375,2.3125
11:01:34.013,6.6875,8.25
11:01:34.021,9.8125,12.25
11:01:34.031,11.375,16.4376
11:01:34.043,12.625,21.5626
11:01:34.053,14.0626,23.0626
11:01:34.062,13.6876,25.5001
11:01:34.072,14.1876,24.6251
11:01:34.083,13.6251,25.6251
11:01:34.092,13.2501,24.0001
11:01:34.103,13,22.3751
11:01:34.113,12.8125,22.1251
11:01:34.123,11.5625,19.9376
11:01:34.132,10.5,18.3126
11:01:34.143,10,17.0626
11:01:34.154,9.375,15.3126
11:01:34.163,8.5,14.3751
11:01:34.172,8.375,12.6875
11:01:34.183,8.125,11.5625
11:01:34.193,7.25,10.6875
11:01:34.202,6.1875,9
11:01:34.212,6.1875,7.6875
11:01:34.223,5.75,6.4375
11:01:34.234,4.8125,5.5
11:01:34.242,4.25,5.5625
11:01:34.254,5.4375,4.6875
11:01:34.264,4.875,4.4375
11:01:34.273,4.6875,5.5625
11:01:34.284,5.125,5.6875
11:01:34.298,5.3125,5.5
11:01:34.303,5.25,4.5
11:01:34.312,4.9375,6.125
11:01:34.323,5.5625,7.375
11:01:34.333,5.9375,6.625
11:01:34.342,5.75,7.875
11:01:34.353,5.9375,8.1875
11:01:34.362,6.6875,7.75
11:01:34.372,6.1875,7.1875
11:01:34.383,5.875,7
11:01:34.393,5.6875,7.4375
11:01:34.403,5.9375,6.0625
11:01:34.413,5.375,5.1875
11:01:34.424,4.8125,5.5625
11:01:34.434,5.375,4.3125
11:01:34.466,5.25,3.25
11:01:34.470,4.9375,3.75
11:01:34.471,6.125,3.4375
11:01:34.473,5.0625,2.125
11:01:34.510,4.5625,2.3125
11:01:34.510,4.625,2
11:01:34.515,4.3125,0.375
11:01:34.516,3.625,0.25
11:01:34.554,2.6875,-0.125
11:01:34.554,2.9375,-1.8125
11:01:34.559,2.875,-2.375
11:01:34.589,2.5625,-2.5625
11:01:34.589,2.625,-3.125
11:01:34.590,1.5,-4.75
11:01:34.592,0.4375,-4.75
11:01:34.597,0.1875,-5.875
11:01:34.605,0.3125,-6.625
11:01:34.614,-0.5,-7.1875
11:01:34.623,-0.0625,-6.9375
11:01:34.633,0,-4.875
11:01:34.642,2.0625,-2.25
11:01:34.653,4,2.5
11:01:34.664,5.9375,7.125
11:01:34.675,8.25,12.125
11:01:34.685,9.875,15.5626
11:01:34.693,12.0625,21.5001
11:01:34.704,13.0625,22.8751
11:01:34.713,13.7501,24.3126
11:01:34.723,13.4376,26.4376
11:01:34.733,12.625,26.1876
11:01:34.743,12.25,25.3751
11:01:34.754,11.625,24.5001
11:01:34.765,11.25,23.3751
11:01:34.774,9.5,22.3126
11:01:34.782,9.125,20.2501
11:01:34.792,8.125,18.9376
11:01:34.803,8.125,17.1876
11:01:34.813,6.8125,15.5626
11:01:34.824,6.0625,14.7501
11:01:34.835,5.5625,12.75
11:01:34.843,5.125,11.25
11:01:34.853,4.3125,10.125
11:01:34.870,3.375,9.25
11:01:34.887,3.4375,6.4375
11:01:34.888,3.3125,5.4375
11:01:34.893,2.625,6.0625
11:01:34.922,2.6875,5.375
11:01:34.925,3.0625,5.625
11:01:34.927,2.875,4.1875
11:01:34.934,3.25,5.9375
11:01:34.943,3.875,6.75
11:01:34.953,3.75,6.625
11:01:34.963,3.5,6.875
11:01:34.973,3.9375,8
11:01:34.982,4.375,7.1875
11:01:34.994,4.375,8.5625
11:01:35.004,4.8125,8.5625
11:01:35.021,4.6875,7.75
11:01:35.024,4.75,8.5
11:01:35.038,3.875,7.625
11:01:35.051,3.3125,8.125
11:01:35.053,3.375,6.5
11:01:35.063,3.3125,5.3125
11:01:35.072,2.875,6.125
11:01:35.083,2.75,4.4375
11:01:35.093,2.6875,4
11:01:35.109,1.625,4.9375
11:01:35.113,1.875,2.3125
11:01:35.148,1.4375,0.875
11:01:35.151,-0.0625,0.8125
11:01:35.152,-0.125,-0.25
11:01:35.157,-0.125,-1.625
11:01:35.185,-1.25,-1.875
11:01:35.187,-2.125,-1.6875
11:01:35.191,-2.5625,-2.6875
11:01:35.199,-3.4375,-4.125
11:01:35.231,-3,-4.9375
11:01:35.234,-3.6875,-6.25
11:01:35.235,-4.625,-6
11:01:35.265,-4.4375,-7.125
11:01:35.265,-4.6875,-7.9375
11:01:35.268,-5,-8.125
11:01:35.275,-5.4375,-8.375
11:01:35.275,-4.75,-8.75
11:01:35.283,-5.3125,-9.9375
11:01:35.293,-5.0625,-7.6875
11:01:35.303,-3.0625,-5
11:01:35.314,-1.5,-0.9375
11:01:35.323,0.625,3.8125
11:01:35.334,2.875,9.3125
11:01:35.344,4.5625,14.0626
11:01:35.354,6.75,18.3751
11:01:35.364,8.1875,22.1876
11:01:35.373,9.6875,24.3126
11:01:35.383,9.8125,26.6876
11:01:35.394,10.3125,26.9376
11:01:35.403,9.3125,28.0001
11:01:35.413,9.8125,27.3126
11:01:35.424,9.25,25.3751
11:01:35.433,8.25,25.0626
11:01:35.444,7.4375,23.8751
11:01:35.455,6.0625,22.6876
11:01:35.464,6.375,19.8126
11:01:35.473,4.8125,19.8751
11:01:35.483,4.25,17.0626
11:01:35.495,3.625,17.3126
11:01:35.503,3.375,16.0001
11:01:35.513,3.875,14.5626
11:01:35.523,2.625,13.4376
11:01:35.534,2.375,13
11:01:35.543,2.6875,11.625
11:01:35.554,1.1875,10.875
11:01:35.563,1.4375,10.5625
11:01:35.575,1.4375,9.125
11:01:35.585,1.1875,10.125
11:01:35.594,1.3125,9.5
11:01:35.603,1.1875,8.5
11:01:35.616,1.5625,9.1875
11:01:35.623,0.875,9.9375
11:01:35.633,1.5,9.875
11:01:35.643,1.125,9.375
11:01:35.653,0.9375,9.375
11:01:35.663,0.75,10.3125
11:01:35.674,1.5625,11
11:01:35.683,1.125,10.375
11:01:35.694,1.125,10.0625
11:01:35.704,0.5,8.875
11:01:35.715,1,9.5625
11:01:35.725,1.1875,9.1875
11:01:35.733,0.5625,8.375
11:01:35.744,0.3125,7.5
11:01:35.753,-0.125,7.4375
11:01:35.763,-0.3125,5.75
11:01:35.773,-1.375,5.1875
11:01:35.784,-2.375,4.625
11:01:35.800,-2,3.1875
11:01:35.804,-2.9375,1.5625
11:01:35.813,-3,0.9375
11:01:35.824,-3.5625,0.6875
11:01:35.834,-3.5625,0.1875
11:01:35.845,-4,-1.5625
11:01:35.878,-5.375,-1.1875
11:01:35.881,-5,-2
11:01:35.885,-4.875,-2.875
11:01:35.885,-6.125,-4.125
11:01:35.916,-6.4375,-4.5625
11:01:35.918,-6,-4.75
11:01:35.920,-6,-5.6875
11:01:35.923,-6.6875,-4.25
11:01:35.954,-6.75,-5.75
11:01:35.954,-6.8125,-6.625
11:01:35.958,-7.4375,-7.1875
11:01:35.965,-6.5,-7.0625
11:01:35.982,-7.0625,-7.0625
11:01:35.984,-5.875,-4.25
11:01:36.017,-4.1875,-2.375
11:01:36.019,-2.625,3.25
11:01:36.022,0.0625,7.5625
11:01:36.029,2.5,12.0625
11:01:36.034,4.5,18.5001
11:01:36.043,5.875,22.0626
11:01:36.053,7.3125,26.3751
11:01:36.063,8.75,28.0626
11:01:36.074,9,31.3126
11:01:36.084,9.1875,31.4376
11:01:36.094,9.125,32.1251
11:01:36.103,8.4375,30.6876
11:01:36.113,8.5,31.1876
11:01:36.123,7.4375,29.2501
11:01:36.134,7.5,30.3751
11:01:36.143,5.9375,28.1251
11:01:36.165,5.5625,26.3126
11:01:36.204,5.3125,25.5626
11:01:36.206,4.6875,24.1876
11:01:36.211,4.1875,22.8126
11:01:36.211,3.625,23.0001
11:01:36.217,4,22.1251
11:01:36.219,3.375,20.0626
11:01:36.223,2.1875,20.8751
11:01:36.234,2.25,18.5626
11:01:36.243,2.5,17.9376
11:01:36.253,1.4375,16.1251
11:01:36.265,0.9375,15.9376
11:01:36.274,1.125,16.5001
11:01:36.283,1.625,15.4376
11:01:36.293,1.1875,14.9376
11:01:36.303,1.0625,17.0626
11:01:36.320,2,15.7501
11:01:36.334,2.6875,16.5001
11:01:36.338,2,16.2501
11:01:36.343,2.4375,16.0626
11:01:36.354,2.4375,17.3751
11:01:36.363,2.8125,18.0001
11:01:36.374,3.5,17.8751
11:01:36.383,3,17.3126
11:01:36.393,3.0625,16.9376
11:01:36.403,2.3125,16.6251
11:01:36.414,2.75,15.1251
11:01:36.424,2.3125,14.5626
11:01:36.434,1.8125,14.8126
11:01:36.443,1.9375,13.3126
11:01:36.453,1.375,12.5625
11:01:36.463,1.25,11.6875
11:01:36.476,0.625,10.3125
11:01:36.483,-0.1875,10.625
11:01:36.494,-0.25,9.75
11:01:36.503,-0.75,8.125
11:01:36.513,-1.875,6.0625
11:01:36.523,-2,5.4375
11:01:36.533,-2.25,5
11:01:36.550,-1.75,4.4375
11:01:36.555,-3.125,2.75
11:01:36.564,-3.375,3.3125
11:01:36.574,-3.625,2.875
11:01:36.610,-3.4375,1.0625
11:01:36.611,-4.5625,-0.125
11:01:36.613,-5.3125,0.75
11:01:36.617,-5.375,-1.5
11:01:36.646,-5.6875,-2.4375
11:01:36.647,-5.9375,-1.25
11:01:36.650,-6.5,-2.25
11:01:36.654,-6.5625,-4.0625
11:01:36.679,-6.9375,-4
11:01:36.682,-7.25,-4.6875
11:01:36.685,-7.4375,-5.9375
11:01:36.726,-6.6875,-3.875
11:01:36.728,-5.75,-2.8125
11:01:36.729,-3.375,2.125
11:01:36.738,-0.5,6.625
11:01:36.738,0.6875,12.625
11:01:36.746,3.875,16.8126
11:01:36.766,5.5625,22.4376
11:01:36.770,7.125,26.7501
11:01:36.774,8.625,29.4376
11:01:36.783,9.125,31.2501
11:01:36.793,10.0625,34.2501
11:01:36.805,10,34.8126
11:01:36.814,10,34.9376
11:01:36.823,10.1875,35.3126
11:01:36.833,9.75,34.3751
11:01:36.843,9.5,32.5626
11:01:36.853,9.6875,31.3126
11:01:36.864,7.9375,31.4376
11:01:36.875,7.5625,29.0001
11:01:36.883,7.125,27.5626
11:01:36.895,7.125,26.2501
11:01:36.905,7.0625,26.0626
11:01:36.913,7.0625,25.9376
11:01:36.923,6,23.9376
11:01:36.934,5.5625,22.7501
11:01:36.944,5.3125,22.6251
11:01:36.953,4.9375,20.6876
11:01:36.963,4.9375,19.4376
11:01:36.974,4.8125,19.4376
11:01:36.983,4.0625,18.9376
11:01:36.993,4.6875,18.4376
11:01:37.003,4.0625,17.5001
11:01:37.014,4.6875,18.5626
11:01:37.023,4.8125,18.1876
11:01:37.033,4.625,18.0001
11:01:37.043,4.875,20.2501
11:01:37.053,5.5625,19.0001
11:01:37.064,5.6875,19.1251
11:01:37.073,6.375,19.6876
11:01:37.083,5.75,19.2501
11:01:37.093,5.5,19.0626
11:01:37.103,5.25,19.1876
11:01:37.114,6.0625,18.5001
11:01:37.124,5.1875,16.8751
11:01:37.133,4.9375,16.7501
11:01:37.143,4.75,17.2501
11:01:37.154,4.75,15.4376
11:01:37.163,4.5625,13.6251
11:01:37.173,3.5,12.875
11:01:37.183,3.1875,12.5625
11:01:37.193,3.25,11.4375
11:01:37.204,3.75,10.8125
11:01:37.215,2.6875,10.25
11:01:37.224,1.875,9.875
11:01:37.233,1.875,7.4375
11:01:37.243,0.5625,6.0625
11:01:37.253,0.3125,5.375
11:01:37.263,0.9375,5
11:01:37.283,-0.625,3.375
11:01:37.286,-1.75,2.625
11:01:37.318,-2.3125,2.0625
11:01:37.322,-2.1875,0.875
11:01:37.323,-2.8125,0.125
11:01:37.326,-3.375,0.1875
11:01:37.352,-3.6875,-0.9375
11:01:37.355,-4.3125,-2.3125
11:01:37.357,-5.125,-2.4375
11:01:37.364,-5,-3
11:01:37.376,-5.125,-4.3125
11:01:37.405,-6.25,-6.375
11:01:37.407,-7,-6.4375
11:01:37.410,-7,-7.125
11:01:37.414,-6.5625,-7.125
11:01:37.443,-7.375,-7.375
11:01:37.444,-6.125,-5.5625
11:01:37.447,-4.4375,-2.6875
11:01:37.484,-1.75,2.6875
11:01:37.486,1.0625,8.125
11:01:37.490,4.125,13.0625
11:01:37.496,4.9375,18.8751
11:01:37.499,8.1875,22.8751
11:01:37.504,10.125,28.8126
11:01:37.515,12.8125,32.6876
11:01:37.523,13.1251,35.7501
11:01:37.533,12.6875,35.6876
11:01:37.543,11.375,34.6251
11:01:37.553,10.5625,35.3751
11:01:37.564,7.375,32.6876
11:01:37.573,4.6875,30.3126
11:01:37.583,1.9375,28.1876
11:01:37.593,-1,25.8126
11:01:37.615,-3.875,22.7501
11:01:37.616,-10.125,17.3126
11:01:37.632,-15.6251,14.0001
11:01:37.635,-20.3751,9.6875
11:01:37.643,-24.5626,7.25
11:01:37.653,-28.1251,4.1875
11:01:37.663,-32.2501,0.875
11:01:37.673,-35.9376,-1.75
11:01:37.683,-37.1251,-1.375
11:01:37.693,-37.2501,-2.5
11:01:37.703,-37.6251,-3.8125
11:01:37.713,-37.6876,-2.625
11:01:37.723,-37.7501,-2.125
11:01:37.733,-36.6251,-1.9375
11:01:37.743,-36.0001,-0.9375
11:01:37.754,-35.7501,0
11:01:37.763,-34.5001,1.3125
11:01:37.773,-34.5626,1.375
11:01:37.783,-34.6251,2.75
11:01:37.794,-33.3751,3.0625
11:01:37.804,-33.7501,3.0625
11:01:37.813,-33.1876,3.75
11:01:37.824,-33.1251,1.875
11:01:37.839,-32.8126,3.6875
11:01:37.843,-32.7501,2.6875
11:01:37.853,-32.5626,2.8125
11:01:37.863,-31.3126,2.5
11:01:37.874,-31.5626,2.875
11:01:37.888,-30.8751,2.375
11:01:37.898,-31.1876,1.3125
11:01:37.908,-30.8751,1.0625
11:01:37.919,-30.3751,-0.0625
11:01:37.929,-30.6876,0.3125
11:01:37.938,-30.5001,-0.125
11:01:37.948,-30.4376,-2.125
11:01:37.958,-29.7501,-1.4375
11:01:37.969,-28.8126,-2.5
11:01:37.979,-29.6876,-2.1875
11:01:37.988,-29.5001,-2.875
11:01:37.999,-29.0001,-4.8125
11:01:38.009,-28.9376,-3.9375
11:01:38.019,-28.2501,-5.6875
11:01:38.042,-28.3751,-4.875
11:01:38.043,-28.0001,-6.375
11:01:38.056,-28.8126,-6.8125
11:01:38.060,-27.1251,-7.75
11:01:38.101,-27.3751,-7.6875
11:01:38.102,-27.5626,-8.125
11:01:38.107,-27.0626,-9.6875
11:01:38.112,-26.9376,-8.75
11:01:38.114,-26.4376,-10.4375
11:01:38.126,-25.6876,-10.375
11:01:38.130,-25.7501,-11.5625
11:01:38.167,-25.8126,-11.375
11:01:38.169,-25.3751,-12.25
11:01:38.174,-25.1876,-11.3125
11:01:38.180,-23.0626,-9.625
11:01:38.181,-21.4376,-6.9375
11:01:38.190,-19.1876,-3.125
11:01:38.207,-17.6876,1.625
11:01:38.216,-15.5001,7.375
11:01:38.221,-13.3751,10.125
11:01:38.230,-11.125,15.2501
11:01:38.238,-9.6875,16.8751
11:01:38.248,-8.8125,20.8126
11:01:38.258,-7.9375,21.7501
11:01:38.269,-7.0625,21.5626
11:01:38.279,-7.0625,23.0626
11:01:38.288,-6.75,22.5001
11:01:38.299,-6.625,21.7501
11:01:38.308,-6.8125,20.0626
11:01:38.318,-6.5625,19.8126
11:01:38.328,-6.75,18.1876
11:01:38.339,-8,17.0626
11:01:38.348,-7.8125,15.9376
11:01:38.358,-8.625,14.4376
11:01:38.368,-8.75,12.625
11:01:38.378,-9.125,10.875
11:01:38.388,-10,10.0625
11:01:38.398,-11,8.25
11:01:38.408,-11,6.625
11:01:38.419,-11.125,6.1875
11:01:38.430,-11.5,4.875
11:01:38.438,-11.4375,4.625
11:01:38.448,-11.875,3.4375
11:01:38.458,-11.9375,3.3125
11:01:38.468,-12,2.125
11:01:38.478,-11.3125,3.3125
11:01:38.490,-10.75,3.8125
11:01:38.500,-11.3125,3.4375
11:01:38.508,-12.25,3.625
11:01:38.519,-11.6875,4.75
11:01:38.528,-11.0625,3.6875
11:01:38.538,-10.75,4.75
11:01:38.548,-9.9375,5.1875
11:01:38.558,-11.5,4.375
11:01:38.568,-10.75,3.6875
11:01:38.578,-11.75,3.375
11:01:38.595,-11.875,3.4375
11:01:38.599,-12.125,2.125
11:01:38.608,-12.8125,0.125
11:01:38.620,-13,0.625
11:01:38.628,-12.4375,-0.3125
11:01:38.638,-13.4376,-1.5625
11:01:38.649,-14.3126,-0.8125
11:01:38.658,-14.7501,-3.875
11:01:38.669,-14.8126,-4.875
11:01:38.679,-15.1251,-4.875
11:01:38.688,-15.7501,-7.125
11:01:38.698,-16.5001,-7.6875
11:01:38.708,-16.6876,-8.4375
11:01:38.718,-17.6251,-8.75
11:01:38.728,-16.8126,-9.6875
11:01:38.738,-17.1876,-10.75
11:01:38.765,-18.0626,-9.5
11:01:38.799,-17.8126,-11.25
11:01:38.801,-18.8126,-12.5
11:01:38.802,-18.3751,-14.3751
11:01:38.805,-19.2501,-13.2501
11:01:38.811,-18.7501,-14.4376
11:01:38.811,-19.5001,-13.7501
11:01:38.818,-18.9376,-15.6251
11:01:38.853,-19.8126,-14.7501
11:01:38.853,-18.8126,-16.4376
11:01:38.856,-19.8126,-15.9376
11:01:38.859,-19.8751,-17.5626
11:01:38.896,-20.1876,-16.1251
11:01:38.928,-19.5001,-17.7501
11:01:38.930,-19.3751,-15.7501
11:01:38.932,-18.0626,-14.8126
11:01:38.934,-16.4376,-11.125
11:01:38.934,-14.1876,-5.75
11:01:38.934,-11.3125,-1.5
11:01:38.949,-9.4375,3.6875
11:01:38.951,-7.875,8.5625
11:01:38.959,-6.4375,12.625
11:01:38.975,-5.8125,16.9376
11:01:38.979,-4.1875,19.3126
11:01:38.990,-3.375,21.6876
11:01:38.998,-3.25,22.8126
11:01:39.009,-2.5,22.8751
11:01:39.018,-2.5625,23.8126
11:01:39.028,-2.875,22.3751
11:01:39.038,-3.5,22.8751
11:01:39.049,-3.5,20.5626
11:01:39.058,-4.6875,19.5001
11:01:39.068,-5.125,19.8126
11:01:39.078,-5.375,18.4376
11:01:39.088,-5.375,16.8126
11:01:39.098,-5.3125,15.2501
11:01:39.108,-5.4375,14.7501
11:01:39.118,-6.875,14.2501
11:01:39.128,-6.4375,12.6875
11:01:39.138,-7.6875,11.9375
11:01:39.149,-6.75,10.875
11:01:39.159,-8,10.25
11:01:39.168,-8.25,9.3125
11:01:39.178,-7.6875,7.8125
11:01:39.188,-8.125,8.25
11:01:39.198,-8.625,7.75
11:01:39.208,-8.3125,7.25
11:01:39.219,-8.125,8.0625
11:01:39.228,-7.625,6.9375
11:01:39.239,-7.25,8.25
11:01:39.250,-6.4375,8.75
11:01:39.258,-6.9375,9
11:01:39.269,-6.8125,10.5625
11:01:39.278,-6.1875,8.8125
11:01:39.288,-6.6875,9.0625
11:01:39.298,-6.6875,9
11:01:39.308,-6.8125,8.0625
11:01:39.318,-6.4375,7.5625
11:01:39.328,-6.75,6.125
11:01:39.338,-6.6875,6.625
11:01:39.351,-7.1875,5.1875
11:01:39.359,-7.125,5.6875
11:01:39.368,-6.875,3.8125
11:01:39.378,-7.625,3.75
11:01:39.388,-7.5625,1.8125
11:01:39.398,-7.8125,1.8125
11:01:39.409,-7.5625,0.125
11:01:39.418,-8.5625,-1.3125
11:01:39.428,-9,0.125
11:01:39.439,-8.5,-2.6875
11:01:39.448,-9.3125,-4
11:01:39.459,-9,-3.0625
11:01:39.468,-9.75,-5.375
11:01:39.478,-10.0625,-4.9375
11:01:39.488,-10.125,-7.125
11:01:39.498,-11.5,-8.4375
11:01:39.508,-11.5,-8.875
11:01:39.518,-11.875,-9
11:01:39.528,-12.6875,-11.625
11:01:39.538,-13.4376,-11.1875
11:01:39.548,-13.5626,-12.1875
11:01:39.558,-14.6251,-13.1876
11:01:39.574,-14.0001,-13.8751
11:01:39.579,-15.0001,-14.8126
11:01:39.610,-15.8751,-14.9376
11:01:39.612,-15.1251,-15.9376
11:01:39.614,-15.5626,-15.0626
11:01:39.621,-13.6251,-12.875
11:01:39.653,-12.5625,-9.1875
11:01:39.655,-10.0625,-4.5
11:01:39.657,-8.9375,-0.4375
11:01:39.662,-7,4.9375
11:01:39.669,-5.1875,8.6875
11:01:39.704,-3.8125,12.875
11:01:39.706,-3.1875,14.6876
11:01:39.708,-3.0625,17.0626
11:01:39.711,-2.3125,17.5001
11:01:39.746,-2.625,18.3126
11:01:39.749,-2.8125,17.8126
11:01:39.751,-3.0625,17.6876
11:01:39.760,-3,16.8751
11:01:39.760,-4.3125,16.1251
11:01:39.769,-4.125,14.8126
11:01:39.778,-5.5,13.3751
11:01:39.790,-5.5625,11.8125
11:01:39.798,-6.25,10.125
11:01:39.808,-6.8125,10.0625
11:01:39.818,-6.9375,8.0625
11:01:39.828,-7.75,5.875
11:01:39.838,-8,5.5
11:01:39.848,-7.9375,4.375
11:01:39.858,-8.8125,2.0625
11:01:39.868,-9.9375,2.375
11:01:39.878,-9.5625,0.0625
11:01:39.888,-10.1875,-0.625
11:01:39.900,-9.6875,-0.3125
11:01:39.908,-9.25,-0.5
11:01:39.918,-9.375,-0.4375
11:01:39.928,-9.125,-0.0625
11:01:39.938,-7.9375,-0.6875
11:01:39.949,-8.875,2.1875
11:01:39.958,-8.6875,1
11:01:39.968,-8.125,0.4375
11:01:39.984,-8.375,1.1875
11:01:39.990,-7.875,1.625
11:01:39.999,-8.0625,1.1875
11:01:40.008,-9.0625,1.4375
11:01:40.018,-8.5625,0.3125
11:01:40.044,-9.3125,-0.375
11:01:40.060,-9.5,-0.1875
11:01:40.066,-9.6875,-2.1875
11:01:40.079,-9.75,-1.125
11:01:40.082,-9.875,-3.3125
11:01:40.082,-10.125,-3.25
11:01:40.090,-10.0625,-4.4375
11:01:40.098,-10.5625,-5
11:01:40.108,-11.3125,-5.625
11:01:40.119,-11.9375,-6.5625
11:01:40.128,-11.375,-5.875
11:01:40.142,-12.1875,-7.0625
11:01:40.148,-12.5625,-8.125
11:01:40.158,-12.375,-9.75
11:01:40.168,-12.75,-10.0625
11:01:40.178,-13.4376,-9.875
11:01:40.188,-13.8126,-11
11:01:40.252,-13.8751,-12
11:01:40.252,-13.9376,-12.8125
11:01:40.253,-14.3126,-13
11:01:40.256,-14.5001,-13.4376
11:01:40.261,-14.8751,-13.8126
11:01:40.261,-15.1876,-13.7501
11:01:40.261,-15.0626,-14.6876
11:01:40.269,-15.3751,-15.0001
11:01:40.311,-15.3751,-15.6251
11:01:40.316,-15.0001,-17.1251
11:01:40.316,-14.6876,-15.2501
11:01:40.318,-14.4376,-14.9376
11:01:40.325,-12.3125,-11.6875
11:01:40.328,-11.3125,-9.25
11:01:40.361,-9,-3.75
11:01:40.364,-8,-0.375
11:01:40.366,-5.4375,6
11:01:40.371,-3.9375,9
11:01:40.383,-2.125,12.75
11:01:40.388,-1.75,16.8126
11:01:40.398,-0.9375,18.0626
11:01:40.408,-0.4375,18.4376
11:01:40.419,-1.75,17.3751
11:01:40.429,-1.625,18.0001
11:01:40.438,-1.4375,17.3126
11:01:40.448,-2.6875,17.0626
11:01:40.458,-3.125,14.3751
11:01:40.468,-4,14.9376
11:01:40.479,-4.0625,12.3125
11:01:40.488,-4.625,10.8125
11:01:40.498,-5.5625,9.1875
11:01:40.509,-6.1875,6.8125
11:01:40.520,-6.5625,6.3125
11:01:40.530,-6.875,4.1875
11:01:40.538,-6.9375,3.75
11:01:40.549,-8.1875,3.25
11:01:40.558,-7.625,0.5625
11:01:40.568,-8.5625,1.1875
11:01:40.578,-7.9375,-0.375
11:01:40.588,-8.1875,-1.25
11:01:40.598,-7.8125,-0.25
11:01:40.608,-8.25,-0.875
11:01:40.618,-8.4375,-0.4375
11:01:40.628,-8.0625,-1.0625
11:01:40.639,-8.1875,-1.0625
11:01:40.648,-8.125,-0.6875
11:01:40.658,-7.5625,-0.875
11:01:40.668,-8.1875,-0.4375
11:01:40.678,-7.8125,-1
11:01:40.688,-7.9375,-2.0625
11:01:40.698,-7.875,-1.75
11:01:40.708,-8.375,-0.625
11:01:40.719,-8,-2.1875
11:01:40.728,-8.4375,-2.875
11:01:40.738,-8.875,-2.875
11:01:40.749,-9,-4.3125
11:01:40.759,-8.625,-4.3125
11:01:40.769,-8.875,-5.5625
11:01:40.778,-8.75,-4.875
11:01:40.788,-9.0625,-6.8125
11:01:40.798,-8.8125,-7.5
11:01:40.808,-9.375,-8.625
11:01:40.819,-9.8125,-8.9375
11:01:40.828,-9.75,-10.0625
11:01:40.838,-9.875,-10.875
11:01:40.848,-10.25,-12.375
11:01:40.858,-10.1875,-13.6251
11:01:40.868,-11,-13.7501
11:01:40.878,-11.25,-14.1251
11:01:40.893,-11,-15.5626
11:01:40.899,-11.125,-16.1251
11:01:40.908,-11.9375,-16.0001
11:01:40.920,-11.5,-17.8126
11:01:40.928,-11.8125,-18.0626
11:01:40.938,-11.875,-18.5001
11:01:40.948,-11.875,-18.8126
11:01:40.958,-11.8125,-19.5626
11:01:40.970,-11.8125,-18.3751
11:01:40.978,-10.625,-18.5001
11:01:40.988,-9.4375,-15.5001
11:01:40.998,-8.0625,-10.625
11:01:41.009,-5.75,-6.6875
11:01:41.022,-3.5,-0.375
11:01:41.028,-2.375,3.25
11:01:41.063,-0.8125,7.75
11:01:41.066,0.5625,10.125
11:01:41.068,0.6875,12.8125
11:01:41.071,2.1875,14.1251
11:01:41.105,1.8125,15.3751
11:01:41.107,1.625,15.3126
11:01:41.112,1.375,14.6251
11:01:41.139,0.9375,14.7501
11:01:41.139,0,12.375
11:01:41.142,-0.4375,11.875
11:01:41.150,-1.375,11.25
11:01:41.150,-2.25,9.5625
11:01:41.166,-2.6875,8.75
11:01:41.168,-3.0625,6.3125
11:01:41.194,-4.125,5.9375
11:01:41.197,-5.0625,4.9375
11:01:41.199,-5.6875,1.0625
11:01:41.209,-7.6875,-1
11:01:41.218,-8.125,-1.125
11:01:41.229,-7.8125,-2.75
11:01:41.239,-8.8125,-3.8125
11:01:41.249,-9.4375,-4.75
11:01:41.258,-9.5625,-4.4375
11:01:41.268,-9.5625,-4
11:01:41.278,-9.0625,-4.8125
11:01:41.289,-9.25,-5.1875
11:01:41.298,-9.0625,-4.8125
11:01:41.323,-9.125,-2.5625
11:01:41.325,-8.375,-3.4375
11:01:41.331,-8.5,-3.1875
11:01:41.338,-8.4375,-2.0625
11:01:41.356,-8.5,-1.125
11:01:41.370,-8.125,-2.25
11:01:41.373,-7.8125,-2.8125
11:01:41.382,-7.5,-1.75
11:01:41.388,-7.6875,-2.5625
11:01:41.398,-7.4375,-2.5
11:01:41.409,-7.3125,-3.375
11:01:41.418,-7.5,-3.5
11:01:41.428,-6.8125,-3.875
11:01:41.438,-7.6875,-3.9375
11:01:41.448,-7,-4.5
11:01:41.458,-7.375,-6.0625
11:01:41.469,-7.5625,-5.4375
11:01:41.478,-8.4375,-6.5625
11:01:41.489,-8.125,-7.5625
11:01:41.504,-8.75,-7.875
11:01:41.519,-8.8125,-9.8125
11:01:41.522,-8.875,-9.1875
11:01:41.537,-9,-10.625
11:01:41.539,-9.3125,-11.0625
11:01:41.549,-9.375,-12.375
11:01:41.558,-9.8125,-12.375
11:01:41.569,-10.125,-13.5001
11:01:41.578,-11.3125,-14.4376
11:01:41.588,-11.25,-15.3751
11:01:41.598,-12.4375,-16.0626
11:01:41.609,-12.375,-17.0001
11:01:41.618,-12.9375,-17.6876
11:01:41.628,-13.2501,-17.4376
11:01:41.641,-11.875,-16.6876
11:01:41.650,-11.375,-12.8125
11:01:41.680,-9.6875,-9.4375
11:01:41.682,-7.875,-5.4375
11:01:41.685,-5.8125,0.625
11:01:41.691,-3.375,3.9375
11:01:41.718,-1.5625,8.375
11:01:41.721,-0.0625,11.5625
11:01:41.722,0.5,15.2501
11:01:41.730,1.6875,17.1876
11:01:41.757,1.6875,18.2501
11:01:41.760,2,19.1876
11:01:41.763,1.75,18.5626
11:01:41.796,2.625,18.6251
11:01:41.797,1.625,19.1251
11:01:41.799,1.375,19.0626
11:01:41.806,0.8125,16.1251
11:01:41.814,0.25,14.7501
11:01:41.837,-0.75,14.1876
11:01:41.839,-0.5625,12
11:01:41.846,-1.4375,11.5
11:01:41.856,-1.5625,10.125
11:01:41.863,-2.375,8.125
11:01:41.874,-2.5625,7.5625
11:01:41.883,-3.875,5.625
11:01:41.921,-4.4375,5.3125
11:01:41.922,-4.8125,3.0625
11:01:41.923,-5.6875,1.125
11:01:41.930,-6,1.8125
11:01:41.939,-6.625,1.25
11:01:41.948,-6.4375,-0.1875
11:01:41.958,-6.9375,-0.625
11:01:41.969,-6.25,0.5625
11:01:41.979,-6.125,0.6875
11:01:41.988,-6.5,0.75
11:01:41.999,-5.75,2.3125
11:01:42.008,-5.75,2.4375
11:01:42.019,-5.375,1.0625
11:01:42.028,-5.1875,2.125
11:01:42.038,-5,1.375
11:01:42.048,-4.6875,0.5625
11:01:42.058,-5,0.8125
11:01:42.068,-4.625,-0.5625
11:01:42.079,-5,-1.125
11:01:42.092,-4.9375,-1.625
11:01:42.098,-4.9375,-2.1875
11:01:42.109,-4.8125,-2.4375
11:01:42.118,-4.0625,-3.4375
11:01:42.128,-4.5,-3.625
11:01:42.138,-3.9375,-3.125
11:01:42.148,-4.5,-5.125
11:01:42.159,-4.5,-5.5625
11:01:42.168,-5.0625,-6.625
11:01:42.178,-5.125,-7.3125
11:01:42.189,-5.75,-7.75
11:01:42.198,-6.3125,-8.375
11:01:42.208,-5.6875,-10.6875
11:01:42.218,-7.125,-11.375
11:01:42.228,-7.1875,-11.875
11:01:42.238,-7.0625,-12.125
11:01:42.248,-6.9375,-12.1875
11:01:42.258,-7.375,-15.2501
11:01:42.268,-7.625,-14.1876
11:01:42.278,-7.9375,-15.1251
11:01:42.289,-7.4375,-13.5626
11:01:42.299,-6.875,-13.2501
11:01:42.308,-5.6875,-10.375
11:01:42.319,-3.5,-5.8125
11:01:42.329,-1.6875,-1.5
11:01:42.338,0.125,3.375
11:01:42.349,1.6875,8.75
11:01:42.358,3.3125,13.3751
11:01:42.368,3.1875,15.9376
11:01:42.391,4.4375,18.5626
11:01:42.394,4.5625,20.9376
11:01:42.405,4.75,21.1251
11:01:42.411,4.125,20.6251
11:01:42.443,4.6875,21.1251
11:01:42.446,3,20.5001
11:01:42.448,2.25,19.3126
11:01:42.483,1.5,17.3126
11:01:42.485,0.5,17.1876
11:01:42.486,0.1875,15.2501
11:01:42.495,-0.5625,14.3751
11:01:42.496,-0.75,12.1875
11:01:42.507,-2.625,11.1875
11:01:42.511,-3.8125,10.125
11:01:42.544,-3.8125,8.4375
11:01:42.546,-4.8125,6.4375
11:01:42.550,-5.125,5.5
11:01:42.551,-6.25,5.3125
11:01:42.565,-6.125,3.9375
11:01:42.570,-5.8125,2.75
11:01:42.578,-7.1875,1.75
11:01:42.604,-6.875,3.4375
11:01:42.606,-5.9375,3
11:01:42.612,-5.9375,2.8125
11:01:42.618,-6.4375,2.1875
11:01:42.628,-6.625,3.625
11:01:42.639,-6,3.875
11:01:42.657,-5.5,3.5625
11:01:42.663,-5.125,3.8125
11:01:42.678,-4.8125,4.875
11:01:42.681,-4.1875,4.4375
11:01:42.695,-4.5,4.6875
11:01:42.699,-4.25,5.125
11:01:42.709,-4,4.5625
11:01:42.718,-4.3125,4
11:01:42.730,-4.25,4.3125
11:01:42.739,-4.3125,2.75
11:01:42.750,-4.75,2.625
11:01:42.758,-5.375,2.0625
11:01:42.768,-4.6875,0.8125
11:01:42.781,-5.6875,1.6875
11:01:42.790,-6.0625,-0.3125
11:01:42.810,-5.9375,-1.125
11:01:42.812,-6.9375,-2.875
11:01:42.823,-8.125,-3.75
11:01:42.828,-7.375,-4.4375
11:01:42.843,-8.0625,-5.625
11:01:42.851,-9.3125,-6.875
11:01:42.858,-9.9375,-6.875
11:01:42.869,-10.1875,-9.25
11:01:42.878,-11.6875,-10.75
11:01:42.888,-11.4375,-10.625
11:01:42.899,-11.75,-12.625
11:01:42.909,-11.9375,-12.0625
11:01:42.919,-12,-13.6876
11:01:42.929,-12.3125,-14.3126
11:01:42.939,-12,-12.4375
11:01:42.948,-10.8125,-11.125
11:01:42.959,-9.1875,-9.125
11:01:42.969,-7.875,-3.9375
11:01:42.978,-5.25,0.375
11:01:42.989,-3.5,5.9375
11:01:42.998,-2.5625,10.75
11:01:43.008,-1.25,13.8126
11:01:43.019,-0.4375,15.3751
11:01:43.028,0.75,17.5001
11:01:43.038,0.625,18.5626
11:01:43.049,0.1875,18.8126
11:01:43.059,0.8125,18.6251
11:01:43.068,-0.5,18.4376
11:01:43.079,-0.75,16.7501
11:01:43.088,-0.9375,15.3751
11:01:43.098,-1.625,15.0626
11:01:43.132,-1.75,12.8125
11:01:43.134,-2.8125,12.9375
11:01:43.136,-2.75,10.75
11:01:43.139,-2.8125,8.625
11:01:43.170,-3.3125,8.1875
11:01:43.172,-3.0625,6.875
11:01:43.174,-4.25,4.9375
11:01:43.181,-5.125,4.5
11:01:43.206,-4.6875,1.9375
11:01:43.209,-5.25,1.0625
11:01:43.209,-4.3125,1.8125
11:01:43.242,-4.0625,0.875
11:01:43.246,-4.6875,0.5
11:01:43.247,-4.875,1.5625
11:01:43.254,-3.75,0.4375
11:01:43.259,-3.3125,0.375
11:01:43.291,-2.8125,2.25
11:01:43.293,-3.3125,1.6875
11:01:43.294,-2.5625,2.875
11:01:43.301,-2.1875,3.25
11:01:43.315,-2.0625,3.1875
11:01:43.319,-2.0625,4.5625
11:01:43.328,-2.0625,3.4375
11:01:43.339,-1.875,2.4375
11:01:43.349,-1.9375,3.25
11:01:43.358,-2,2.0625
11:01:43.368,-2.375,1.6875
11:01:43.378,-2.125,0.625
11:01:43.388,-3.375,-0.5
11:01:43.398,-3.75,-0.5625
11:01:43.408,-3.9375,-1.5625
11:01:43.418,-4.3125,-2.625
11:01:43.429,-4.75,-2.875
11:01:43.439,-5.1875,-4.4375
11:01:43.450,-5.25,-4.5625
11:01:43.458,-5.0625,-5.375
11:01:43.469,-5.1875,-5
11:01:43.478,-6,-6.5
11:01:43.488,-6.4375,-7.4375
11:01:43.498,-6.375,-7.8125
11:01:43.508,-6.25,-7.8125
11:01:43.520,-6.25,-9.375
11:01:43.528,-6.8125,-9.8125
11:01:43.540,-6.8125,-10.6875
11:01:43.548,-7.375,-11
11:01:43.559,-6.625,-11.0625
11:01:43.569,-7.25,-11.0625
11:01:43.579,-6.375,-10.125
11:01:43.589,-5.875,-7.8125
11:01:43.599,-3.75,-4.3125
11:01:43.608,-1.9375,0.375
11:01:43.619,1.375,5.375
11:01:43.629,3.1875,11.125
11:01:43.638,5.875,15.7501
11:01:43.648,8.625,20.7501
11:01:43.659,11.625,25.1251
11:01:43.670,12.875,28.7501
11:01:43.678,14.6251,30.7501
11:01:43.694,14.7501,31.9376
11:01:43.699,15.3126,32.6876
11:01:43.709,15.0626,33.1251
11:01:43.718,15.0626,32.8751
11:01:43.728,15.0626,31.8126
11:01:43.739,13.9376,31.9376
11:01:43.748,13.8126,29.8126
11:01:43.759,12.75,30.2501
11:01:43.769,12.25,27.3126
11:01:43.778,10.75,25.1251
11:01:43.788,8.75,24.0001
11:01:43.798,7.625,22.0626
11:01:43.809,5.875,19.0626
11:01:43.819,4.5,18.5626
11:01:43.828,3.3125,16.8126
11:01:43.840,3.0625,14.8126
11:01:43.849,1.6875,13.2501
11:01:43.858,1.6875,14.5626
11:01:43.885,1.1875,13
11:01:43.888,1.5625,11.875
11:01:43.891,1.1875,12.375
11:01:43.900,0.25,12.9375
11:01:43.908,1.5625,12.875
11:01:43.919,0.75,12
11:01:43.930,0.6875,13.5001
11:01:43.938,0.5,13
11:01:43.958,1.4375,13.8126
11:01:44.058,1.25,13.3751
11:01:44.061,0.9375,13.8751
11:01:44.062,1.125,13.9376
11:01:44.063,1.75,13.125
11:01:44.063,0.625,13.0625
11:01:44.070,0.875,13.5626
11:01:44.100,1.5625,12.1875
11:01:44.102,0.1875,10.4375
11:01:44.106,-0.3125,10.625
11:01:44.110,-0.375,10.75
11:01:44.130,0.625,10.3125
11:01:44.132,-0.6875,8.125
11:01:44.146,-0.875,7.4375
11:01:44.163,-1.0625,7.875
11:01:44.164,-0.9375,7
11:01:44.171,-1.3125,6.125
11:01:44.180,-2.375,6.4375
11:01:44.189,-2.6875,5.625
11:01:44.199,-2.5625,4.5625
11:01:44.209,-3.3125,4.8125
11:01:44.219,-3.25,3.25
11:01:44.230,-3.75,2.0625
11:01:44.238,-1.875,4.625
11:01:44.250,1.1875,8.3125
11:01:44.259,3,12
11:01:44.268,5.3125,17.2501
11:01:44.280,7.3125,22.3751
11:01:44.289,8.875,26.3126
11:01:44.298,10.0625,31.1876
11:01:44.309,11.75,34.6251
11:01:44.319,14.1876,36.1876
11:01:44.329,18.4376,41.6877
11:01:44.339,19.1251,43.7502
11:01:44.348,24.6876,46.8127
11:01:44.359,28.5626,48.9377
11:01:44.369,30.9376,50.3752
11:01:44.378,33.2501,49.6252
11:01:44.388,33.6876,49.1252
11:01:44.399,35.8126,49.3752
11:01:44.409,36.6876,48.6877
11:01:44.418,37.6876,48.6877
11:01:44.428,38.1251,46.4377
11:01:44.439,37.9376,44.3127
11:01:44.448,38.6251,44.0002
11:01:44.459,39.7502,42.6877
11:01:44.470,39.3126,41.6252
11:01:44.478,39.3752,39.8127
11:01:44.488,39.2502,38.8126
11:01:44.506,39.0626,39.1252
11:01:44.508,39.3127,36.8751
11:01:44.518,38.5626,35.1876
11:01:44.529,37.5001,34.8751
11:01:44.539,38.0626,33.6876
11:01:44.549,37.4376,32.0626
11:01:44.559,37.6251,33.1251
11:01:44.570,38.7501,34.5001
11:01:44.578,40.5627,34.0626
11:01:44.588,39.1252,33.0001
11:01:44.599,39.1251,33.1876
11:01:44.610,38.3126,32.0626
11:01:44.619,36.7501,29.9376
11:01:44.630,35.6876,29.8126
11:01:44.639,35.1876,28.3126
11:01:44.650,33.7501,26.0626
11:01:44.678,32.1876,24.3751
11:01:44.683,30.5001,23.8126
11:01:44.685,29.1876,21.0626
11:01:44.691,26.5626,19.3126
11:01:44.719,24.8751,19.0001
11:01:44.722,24.1251,15.9376
11:01:44.724,23.3751,14.0626
11:01:44.731,22.6876,14.3126
11:01:44.740,22.9376,13.3751
11:01:44.772,21.9376,10.9375
11:01:44.774,21.1876,9.5
11:01:44.777,19.8126,8.9375
11:01:44.779,20.0626,7.5
11:01:44.817,17.8751,5.625
11:01:44.818,16.1876,4.75
11:01:44.819,15.7501,3.8125
11:01:44.826,15.0001,1.625
11:01:44.832,13.5001,0.4375
11:01:44.839,12.0625,0.1875
11:01:44.848,12.5625,-1.9375
11:01:44.859,11.875,-3
11:01:44.869,11.5,-2.875
11:01:44.879,10.875,-4.125
11:01:44.890,9.5625,-5.9375
11:01:44.900,9.0625,-5.5625
11:01:44.909,9.6875,-6
11:01:44.919,9.375,-4.6875
11:01:44.929,11.3125,-0.3125
11:01:44.938,12.5625,3.3125
11:01:44.949,14.6251,7.5625
11:01:44.959,15.8126,13.3751
11:01:44.969,18.0626,16.5001
11:01:44.978,18.7501,20.3126
11:01:44.989,18.4376,22.7501
11:01:45.000,19.0001,25.6876
11:01:45.011,19.4376,25.5626
11:01:45.018,19.2501,24.8751
11:01:45.028,18.9376,25.6251
11:01:45.039,18.1251,24.4376
11:01:45.049,18.3126,24.1251
11:01:45.058,16.8126,22.1876
11:01:45.070,15.5626,21.6251
11:01:45.079,14.7501,18.8751
11:01:45.088,13.5626,18.1251
11:01:45.099,13.3751,15.7501
11:01:45.111,12.125,14.6876
11:01:45.118,10.6875,12.5625
11:01:45.129,9.8125,12.625
11:01:45.162,9.125,10.75
11:01:45.165,8.6875,8.6875
11:01:45.168,7,6.375
11:01:45.170,6.3125,6.25
11:01:45.180,5.125,4.5
11:01:45.189,5.375,3.125
11:01:45.199,4.8125,2.125
11:01:45.209,5.0625,3.3125
11:01:45.219,5.25,2.6875
11:01:45.229,4.6875,2.4375
11:01:45.239,5,2.625
11:01:45.255,4.9375,2.0625
11:01:45.259,4.5625,2.3125
11:01:45.268,4.0625,3.125
11:01:45.279,4.5625,2.6875
11:01:45.289,4.1875,2.0625
11:01:45.299,3,0.8125
11:01:45.308,2.9375,2.125
11:01:45.343,3,0.8125
11:01:45.343,2.625,-0.1875
11:01:45.442,1.5,0.125
11:01:45.474,2.25,-0.75
11:01:45.494,1.0625,-2.625
11:01:45.496,0.25,-3.0625
11:01:45.496,-0.875,-3.5
11:01:45.496,-0.875,-5.25
11:01:45.497,-1.75,-6.9375
11:01:45.500,-2.9375,-6.375
11:01:45.504,-2.5625,-7.9375
11:01:45.514,-3.625,-9
11:01:45.524,-4.125,-10.3125
11:01:45.535,-5.4375,-10.8125
11:01:45.544,-5.875,-11.4375
11:01:45.554,-6,-12.6875
11:01:45.565,-6.6875,-14.5626
11:01:45.575,-7.625,-14.5626
11:01:45.583,-8.5625,-14.6251
11:01:45.594,-8.5625,-16.0001
11:01:45.606,-8.5625,-17.0626
11:01:45.614,-9.4375,-17.4376
11:01:45.628,-9.25,-17.7501
11:01:45.634,-9.625,-18.3126
11:01:45.645,-9.1875,-12.375
11:01:45.655,-6.625,-6.5625
11:01:45.664,-5.0625,-2.1875
11:01:45.675,-3.6875,2.0625
11:01:45.684,-2.4375,4.6875
11:01:45.694,-2.25,6.5
11:01:45.704,-1.3125,8.1875
11:01:45.715,-1.8125,8.5625
11:01:45.724,-1.4375,8.0625
11:01:45.734,-2.75,8
11:01:45.745,-1.875,6.5625
11:01:45.754,-3.125,6.25
11:01:45.765,-3.625,5.125
11:01:45.774,-4.25,3.0625
11:01:45.784,-5.125,2.1875
11:01:45.795,-6.3125,0.625
11:01:45.804,-6,-1
11:01:45.815,-7.75,-1.25
11:01:45.825,-7.625,-3.5
11:01:45.835,-8.6875,-5.875
11:01:45.844,-9.6875,-5.375
11:01:45.855,-9.875,-8.375
11:01:45.865,-10.8125,-10.0625
11:01:45.874,-10.625,-9.25
11:01:45.884,-11,-10.5625
11:01:45.894,-10.625,-9.625
11:01:45.904,-11.0625,-10.5625
11:01:45.914,-11.375,-10.8125
11:01:45.924,-10.25,-9.375
11:01:45.934,-10.3125,-9.25
11:01:45.944,-10.9375,-7.8125
11:01:45.954,-9.75,-8
11:01:45.965,-10.25,-8.4375
11:01:45.975,-9.75,-7.8125
11:01:45.984,-9.6875,-8.625
11:01:45.994,-10.5,-7.75
11:01:46.006,-9.75,-8.1875
11:01:46.018,-9.4375,-7
11:01:46.025,-9.125,-8.5625
11:01:46.034,-9.1875,-8.8125
11:01:46.061,-9.75,-9.3125
11:01:46.063,-10.125,-9
11:01:46.090,-10.75,-11.3125
11:01:46.090,-10.875,-11.4375
11:01:46.094,-10.6875,-12.1875
11:01:46.105,-11.1875,-12.875
11:01:46.111,-11.5,-13.8126
11:01:46.148,-11.9375,-13.8126
11:01:46.150,-11.9375,-14.3751
11:01:46.152,-12.125,-16.4376
11:01:46.185,-12.8125,-15.6876
11:01:46.185,-12.6875,-17.9376
11:01:46.186,-12.875,-17.2501
11:01:46.188,-12.875,-18.2501
11:01:46.194,-13.3126,-19.0626
11:01:46.208,-13.9376,-20.3126
11:01:46.211,-13.6251,-19.6251
11:01:46.221,-14.4376,-20.2501
11:01:46.229,-14.2501,-22.0001
11:01:46.240,-14.5001,-22.0001
11:01:46.249,-14.4376,-21.7501
11:01:46.259,-14.6251,-23.3126
11:01:46.270,-15.1876,-22.4376
11:01:46.279,-15.0001,-23.6876
11:01:46.290,-15.4376,-23.8126
11:01:46.299,-14.5626,-23.0626
11:01:46.309,-14.0626,-22.5626
11:01:46.319,-13,-18.1251
11:01:46.329,-11,-15.6251
11:01:46.339,-9.1875,-10.25
11:01:46.349,-6.5,-6.125
11:01:46.359,-5,-0.125
11:01:46.369,-3.3125,2.6875
11:01:46.383,-2.3125,6.5625
11:01:46.390,-1.125,8.375
11:01:46.400,0.0625,11.6875
11:01:46.410,-0.25,11.3125
11:01:46.442,-0.1875,11.3125
11:01:46.445,-0.125,11.5
11:01:46.447,-0.6875,10
11:01:46.450,-1.3125,9.5
11:01:46.460,-2.25,8.9375
11:01:46.470,-3,7.0625
11:01:46.480,-3.125,4.875
11:01:46.489,-3.75,4.6875
11:01:46.499,-3.75,3.9375
11:01:46.509,-4.5,2.5625
11:01:46.519,-4.625,1.125
11:01:46.530,-5.3125,1
11:01:46.539,-5.75,-0.875
11:01:46.549,-6.125,-2.3125
11:01:46.559,-7.0625,-2.5
11:01:46.569,-7.125,-3.9375
11:01:46.579,-7.4375,-5.125
11:01:46.589,-6.875,-5
11:01:46.599,-7.4375,-5.375
11:01:46.610,-8.125,-5
11:01:46.620,-7.25,-5.8125
11:01:46.630,-7.25,-5.8125
11:01:46.639,-6.625,-4.75
11:01:46.649,-7.125,-4.875
11:01:46.659,-6.9375,-4.1875
11:01:46.669,-6.625,-3.875
11:01:46.690,-5.75,-3.875
11:01:46.695,-5.6875,-3.9375
11:01:46.702,-6.1875,-4.375
11:01:46.710,-5.5625,-3.875
11:01:46.726,-6.875,-4.625
11:01:46.740,-6.1875,-4.875
11:01:46.743,-7.3125,-5.4375
11:01:46.761,-6.875,-6.25
11:01:46.776,-7.1875,-7.25
11:01:46.778,-7.375,-6.9375
11:01:46.813,-8.1875,-9.3125
11:01:46.816,-8.1875,-8.8125
11:01:46.842,-8.125,-11
11:01:46.842,-8.625,-10.875
11:01:46.843,-9.625,-11.6875
11:01:46.847,-9.25,-13.5626
11:01:46.873,-9.75,-13.4376
11:01:46.876,-10.0625,-13.8751
11:01:46.878,-10.3125,-15.8751
11:01:46.883,-10,-15.3751
11:01:46.884,-9.875,-16.8751
11:01:46.921,-11,-17.0626
11:01:46.923,-10.75,-17.3126
11:01:46.925,-11.4375,-18.7501
11:01:46.928,-11.25,-18.0626
11:01:46.962,-11.375,-18.9376
11:01:46.966,-11.375,-18.7501
11:01:46.967,-11.9375,-20.0626
11:01:46.969,-12.1875,-20.3126
11:01:46.975,-12.375,-21.6251
11:01:46.985,-12.875,-21.5626
11:01:46.995,-12.375,-21.7501
11:01:47.004,-12.3125,-22.5001
11:01:47.014,-12.8125,-22.4376
11:01:47.025,-12,-22.6251
11:01:47.035,-12.3125,-21.6251
11:01:47.044,-10.875,-19.1876
11:01:47.054,-9.375,-16.6251
11:01:47.064,-7.4375,-11.8125
11:01:47.075,-4.75,-6.3125
11:01:47.085,-3.0625,-1.0625
11:01:47.095,-1,2.9375
11:01:47.104,0.25,7.3125
11:01:47.114,2.1875,11
11:01:47.125,3.0625,12
11:01:47.134,2.8125,13.5001
11:01:47.145,3.125,13.1876
11:01:47.155,2.1875,14.5001
11:01:47.165,2.375,12.5625
11:01:47.175,1.9375,13.6251
11:01:47.185,1.625,11.3125
11:01:47.194,0.6875,10.5625
11:01:47.205,0.875,9
11:01:47.214,-0.4375,7.9375
11:01:47.224,-0.8125,5.5
11:01:47.234,-1.5625,6.6875
11:01:47.244,-2.125,4.0625
11:01:47.254,-2.375,2.25
11:01:47.265,-3.0625,2.5625
11:01:47.274,-2.3125,1.625
11:01:47.284,-3.5625,-0.3125
11:01:47.294,-4.1875,-1.0625
11:01:47.304,-4.75,-1.25
11:01:47.315,-3.9375,-2.875
11:01:47.324,-4.75,-3.625
11:01:47.335,-5.125,-3.6875
11:01:47.345,-5.25,-4.375
11:01:47.354,-5.1875,-4.375
11:01:47.365,-4.8125,-3.875
11:01:47.375,-4,-2.875
11:01:47.385,-4.6875,-4.625
11:01:47.395,-4.625,-3.0625
11:01:47.404,-4.8125,-3.25
11:01:47.415,-3.8125,-4.0625
11:01:47.424,-4.1875,-3.625
11:01:47.435,-4.0625,-3
11:01:47.445,-4.875,-3.75
11:01:47.455,-5.375,-3.75
11:01:47.464,-5.25,-5.9375
11:01:47.474,-5.8125,-6.125
11:01:47.485,-5.5625,-7.125
11:01:47.494,-6.125,-5.875
11:01:47.526,-5.875,-8.0625
11:01:47.528,-6.5625,-9.4375
11:01:47.530,-6.75,-9.6875
11:01:47.535,-7.25,-10.25
11:01:47.576,-7,-11.6875
11:01:47.577,-8.3125,-11.75
11:01:47.583,-8.1875,-13.5626
11:01:47.584,-8.4375,-13.2501
11:01:47.587,-8.5,-15.1876
11:01:47.601,-9.1875,-15.1876
11:01:47.605,-9.1875,-16.6876
11:01:47.641,-9.5625,-15.9376
11:01:47.643,-9.4375,-17.9376
11:01:47.646,-10.0625,-18.1876
11:01:47.653,-10.0625,-18.3751
11:01:47.654,-9.8125,-20.0626
11:01:47.688,-9.625,-19.6251
11:01:47.689,-10.1875,-20.6876
11:01:47.693,-10.5625,-21.0626
11:01:47.694,-10.6875,-21.3126
11:01:47.723,-11.4375,-21.7501
11:01:47.725,-11.6875,-22.7501
11:01:47.727,-11.5,-23.0626
11:01:47.738,-11.6875,-23.5626
11:01:47.744,-13.3126,-24.2501
11:01:47.754,-12.75,-24.3126
11:01:47.765,-13.0625,-24.7501
11:01:47.775,-12.6875,-25.0001
11:01:47.784,-12.8125,-24.6876
11:01:47.794,-11.5,-21.9376
11:01:47.805,-9.6875,-19.3751
11:01:47.815,-7.4375,-14.0001
11:01:47.825,-5.0625,-8.25
11:01:47.834,-3.5625,-3.6875
11:01:47.844,-1.5625,1.5
11:01:47.854,-0.125,3.875
11:01:47.864,1.125,7.375
11:01:47.875,1.75,9
11:01:47.884,2.25,10.625
11:01:47.895,2.1875,10.8125
11:01:47.904,2.0625,10.4375
11:01:47.914,2.0625,8.9375
11:01:47.925,0.875,8.625
11:01:47.934,1,6.9375
11:01:47.944,-0.3125,5.375
11:01:47.955,-1.25,3.9375
11:01:47.964,-1.5625,2.5625
11:01:47.974,-1.3125,1
11:01:47.984,-2.5,-0.5
11:01:47.994,-2.5625,-1.125
11:01:48.009,-2.9375,-2.6875
11:01:48.026,-2.75,-4
11:01:48.028,-3.0625,-4.8125
11:01:48.037,-3.875,-6.5
11:01:48.046,-4.6875,-7.75
11:01:48.061,-4.75,-6.9375
11:01:48.077,-5.0625,-8.4375
11:01:48.080,-4.8125,-8.9375
11:01:48.086,-5.1875,-8.8125
11:01:48.094,-5,-9.3125
11:01:48.104,-4.25,-9.5625
11:01:48.115,-4.875,-9.6875
11:01:48.124,-4.75,-8.8125
11:01:48.135,-3.375,-8.0625
11:01:48.144,-4.5625,-8.6875
11:01:48.154,-3.375,-7.25
11:01:48.164,-4.0625,-7.4375
11:01:48.175,-4.0625,-6.5
11:01:48.184,-4.0625,-8.125
11:01:48.194,-4.5,-9.5625
11:01:48.204,-3.9375,-8.625
11:01:48.214,-4.5625,-10.5
11:01:48.224,-4.9375,-9.1875
11:01:48.234,-5.0625,-11.625
11:01:48.244,-5.625,-11.75
11:01:48.254,-5.9375,-12.3125
11:01:48.264,-6.6875,-13
11:01:48.275,-6.4375,-14.1251
11:01:48.285,-7.0625,-15.0626
11:01:48.294,-7.25,-16.0626
11:01:48.326,-7.9375,-16.2501
11:01:48.328,-7.875,-16.8126
11:01:48.332,-8.875,-17.6876
11:01:48.337,-8.5,-19.0626
11:01:48.367,-8.8125,-19.7501
11:01:48.370,-9.5625,-19.6251
11:01:48.375,-9.4375,-21.2501
11:01:48.402,-9.6875,-21.0626
11:01:48.403,-10.125,-22.1876
11:01:48.405,-10.5625,-21.5626
11:01:48.413,-10.4375,-23.3126
11:01:48.414,-10.75,-23.1876
11:01:48.447,-10.5,-24.2501
11:01:48.450,-11.0625,-24.7501
11:01:48.452,-11.3125,-25.3126
11:01:48.454,-11.1875,-26.1251
11:01:48.484,-11.0625,-25.1876
11:01:48.487,-11.6875,-26.5001
11:01:48.489,-11.1875,-26.9376
11:01:48.496,-12.375,-27.5626
11:01:48.506,-11.3125,-26.6876
11:01:48.514,-10.9375,-27.1251
11:01:48.524,-10,-23.7501
11:01:48.535,-8.25,-21.0626
11:01:48.544,-6.4375,-17.2501
11:01:48.555,-4.0625,-11.6875
11:01:48.564,-2.0625,-6.4375
11:01:48.575,-0.1875,-1.1875
11:01:48.584,1.25,1.875
11:01:48.595,2.5625,4.5
11:01:48.604,3.4375,6.1875
11:01:48.615,4,7.375
11:01:48.624,3.75,7.6875
11:01:48.634,3.625,7.125
11:01:48.644,2.4375,6.4375
11:01:48.654,3.1875,4.5625
11:01:48.664,1.5625,3.875
11:01:48.674,0.3125,2
11:01:48.684,-0.6875,-0.1875
11:01:48.694,-1.25,-2.25
11:01:48.704,-2.5625,-4.6875
11:01:48.715,-3.6875,-5.0625
11:01:48.724,-4.1875,-7.25
11:01:48.735,-4.1875,-9.9375
11:01:48.744,-5.625,-11.0625
11:01:48.754,-6.1875,-11
11:01:48.764,-7,-13.6876
11:01:48.774,-7.375,-15.5626
11:01:48.784,-7.8125,-16.0626
11:01:48.795,-7.875,-15.8126
11:01:48.805,-7.25,-16.3126
11:01:48.814,-7.8125,-16.9376
11:01:48.825,-7.625,-15.3126
11:01:48.835,-7.125,-15.4376
11:01:48.844,-7.25,-16.0626
11:01:48.854,-7.8125,-16.4376
11:01:48.864,-7.75,-14.8126
11:01:48.881,-7.375,-15.4376
11:01:48.885,-7.6875,-13.8126
11:01:48.894,-7.4375,-12.75
11:01:48.904,-7,-14.1251
11:01:48.915,-7.125,-14.3751
11:01:48.925,-7.5625,-14.2501
11:01:48.934,-7.5625,-15.4376
11:01:48.944,-7.375,-15.2501
11:01:48.954,-8.0625,-15.5001
11:01:48.964,-8.375,-16.2501
11:01:48.974,-8.75,-17.4376
11:01:49.002,-8.8125,-17.4376
11:01:49.008,-9,-18.9376
11:01:49.008,-9.3125,-18.5626
11:01:49.021,-9.6875,-19.9376
11:01:49.028,-10.4375,-20.5626
11:01:49.034,-10.5,-22.5001
11:01:49.066,-10.1875,-22.5626
11:01:49.068,-10.9375,-23.8126
11:01:49.070,-11.75,-23.7501
11:01:49.075,-11.625,-24.6876
11:01:49.105,-12.125,-25.0001
11:01:49.106,-11.75,-26.0626
11:01:49.109,-11.75,-26.1251
11:01:49.141,-12.375,-27.7501
11:01:49.147,-12.625,-27.6876
11:01:49.147,-12.75,-28.6876
11:01:49.152,-13.4376,-28.3126
11:01:49.166,-13.6876,-29.1876
11:01:49.168,-13.6251,-29.6251
11:01:49.199,-13.7501,-29.4376
11:01:49.201,-14.6251,-30.1251
11:01:49.203,-13.8126,-31.6251
11:01:49.210,-14.0626,-30.0626
11:01:49.215,-13.5626,-29.3126
11:01:49.224,-12.375,-27.5626
11:01:49.234,-10.5625,-23.3751
11:01:49.244,-8.5625,-18.8126
11:01:49.256,-5.5625,-13.125
11:01:49.265,-3.3125,-8.3125
11:01:49.274,-1.1875,-2.3125
11:01:49.284,0.0625,1.625
11:01:49.295,1.375,3.5
11:01:49.311,2.375,5.0625
11:01:49.314,2.4375,7
11:01:49.329,2.3125,6.75
11:01:49.338,1.875,6.1875
11:01:49.344,1.25,5.5
11:01:49.363,0.9375,4.5625
11:01:49.366,0.1875,2.6875
11:01:49.380,-1.0625,1.25
11:01:49.388,-1.75,-0.5
11:01:49.394,-2.5,-1.9375
11:01:49.404,-2.75,-4.375
11:01:49.415,-3.5,-6.4375
11:01:49.424,-4.75,-7.5625
11:01:49.434,-4.875,-9.9375
11:01:49.445,-5,-9.75
11:01:49.454,-5.875,-12.4375
11:01:49.465,-6.1875,-13.6251
11:01:49.476,-6.75,-13.8751
11:01:49.485,-6.75,-15.6876
11:01:49.494,-6.6875,-16.6251
11:01:49.505,-7.375,-17.1876
11:01:49.514,-7.8125,-16.7501
11:01:49.524,-7.6875,-16.5001
11:01:49.534,-6.875,-16.4376
11:01:49.546,-7.1875,-16.2501
11:01:49.554,-6.5625,-15.2501
11:01:49.564,-7.1875,-15.3126
11:01:49.575,-6.6875,-14.0626
11:01:49.584,-6.4375,-15.3126
11:01:49.594,-6.25,-15.4376
11:01:49.605,-5.5625,-13.9376
11:01:49.615,-5.9375,-14.6876
11:01:49.632,-5.8125,-15.1876
11:01:49.634,-6.1875,-15.2501
11:01:49.645,-6.1875,-14.2501
11:01:49.654,-7.1875,-16.5626
11:01:49.665,-6.625,-15.8751
11:01:49.674,-7.5625,-17.3751
11:01:49.685,-7.3125,-17.9376
11:01:49.695,-7.625,-19.2501
11:01:49.705,-7.75,-19.3751
11:01:49.714,-8.4375,-20.5001
11:01:49.725,-8.8125,-21.0626
11:01:49.734,-9.3125,-21.7501
11:01:49.758,-9.6875,-22.8751
11:01:49.761,-10.3125,-23.2501
11:01:49.765,-10.75,-24.3126
11:01:49.805,-10.75,-24.9376
11:01:49.806,-11.1875,-25.3126
11:01:49.808,-10.875,-25.8751
11:01:49.813,-11.4375,-26.5001
11:01:49.817,-11,-27.5626
11:01:49.831,-12.1875,-27.8126
11:01:49.835,-12.3125,-28.1251
11:01:49.870,-12.1875,-29.0626
11:01:49.873,-12.4375,-28.7501
11:01:49.875,-12.75,-30.1251
11:01:49.881,-13.1876,-29.2501
11:01:49.888,-13.4376,-31.3126
11:01:49.921,-13.3126,-30.7501
11:01:49.924,-13.2501,-31.5626
11:01:49.926,-12.6875,-28.7501
11:01:49.929,-10.625,-26.6251
11:01:49.936,-8.4375,-20.5626
11:01:49.945,-5.125,-15.6876
11:01:49.955,-3.4375,-9.125
11:01:49.964,-0.3125,-4.125
11:01:49.974,0.875,0.5625
11:01:49.985,3.125,5
11:01:49.994,3.5625,8.125
11:01:50.009,4.1875,8.625
11:01:50.014,4.3125,9.875
11:01:50.024,4.625,9.5625
11:01:50.034,4.125,10.1875
11:01:50.044,4.1875,8.4375
11:01:50.080,3.1875,8.375
11:01:50.083,2.6875,5.5625
11:01:50.085,1.5,3.1875
11:01:50.092,1.5,2.5
11:01:50.099,0.5,-0.25
11:01:50.109,-0.5,-0.8125
11:01:50.119,-1.1875,-3.75
11:01:50.129,-1.625,-4.25
11:01:50.139,-2.25,-6.125
11:01:50.149,-2.9375,-7
11:01:50.159,-3.9375,-7.5625
11:01:50.169,-3.5625,-10.0625
11:01:50.179,-4.75,-11.125
11:01:50.189,-5.3125,-12.0625
11:01:50.200,-5,-13.3751
11:01:50.209,-6.4375,-14.4376
11:01:50.219,-6.375,-14.1876
11:01:50.229,-6.125,-13.3751
11:01:50.239,-6.0625,-13.0625
11:01:50.250,-5.75,-13.5626
11:01:50.282,-6.0625,-13.4376
11:01:50.286,-6,-13.1251
11:01:50.287,-5.3125,-12.875
11:01:50.291,-5.3125,-12.125
11:01:50.300,-5.4375,-11.875
11:01:50.309,-6,-11.75
11:01:50.320,-5.5,-12.4375
11:01:50.329,-6.3125,-11.9375
11:01:50.339,-5.75,-12.25
11:01:50.349,-7,-13.5001
11:01:50.359,-6.875,-13.2501
11:01:50.369,-7.4375,-14.8751
11:01:50.384,-7.875,-16.0626
11:01:50.389,-9,-16.1251
11:01:50.399,-8.0625,-16.9376
11:01:50.409,-9.25,-17.8751
11:01:50.439,-8.1875,-18.4376
11:01:50.443,-9.375,-18.6251
11:01:50.446,-9.125,-19.8751
11:01:50.450,-10.1875,-20.2501
11:01:50.477,-10.25,-21.5626
11:01:50.480,-10.5625,-22.5626
11:01:50.482,-10.875,-23.3126
11:01:50.513,-10.625,-23.2501
11:01:50.514,-11,-24.1251
11:01:50.517,-11.25,-23.8751
11:01:50.555,-11.375,-25.1251
11:01:50.557,-11.8125,-25.5001
11:01:50.558,-11.875,-25.7501
11:01:50.562,-11.9375,-26.3126
11:01:50.567,-12.625,-27.1876
11:01:50.602,-13.6251,-27.7501
11:01:50.609,-12.9375,-27.9376
11:01:50.624,-12.9375,-27.3126
11:01:50.629,-10.5,-25.3126
11:01:50.640,-10.125,-21.7501
11:01:50.655,-7.0625,-17.2501
11:01:50.657,-4.8125,-10.8125
11:01:50.657,-2.6875,-4.3125
11:01:50.671,0.1875,0
11:01:50.674,2,7
11:01:50.689,3.5,9.0625
11:01:50.690,4.1875,11.0625
11:01:50.705,5,11.875
11:01:50.720,4.75,13.3751
11:01:50.723,4.25,10.9375
11:01:50.738,3.875,10.75
11:01:50.740,3.3125,9.75
11:01:50.745,3.1875,8.625
11:01:50.760,2.125,6.75
11:01:50.764,1.5625,4.3125
11:01:50.774,1.0625,3.5625
11:01:50.784,0.6875,1.875
11:01:50.794,-0.25,0
11:01:50.804,-1.3125,-0.875
11:01:50.814,-2,-3.125
11:01:50.825,-2.4375,-4.6875
11:01:50.835,-3.125,-6.8125
11:01:50.844,-4.0625,-8.3125
11:01:50.854,-4.3125,-8.75
11:01:50.864,-4.25,-9.125
11:01:50.875,-4.3125,-10.3125
11:01:50.884,-4.0625,-10.9375
11:01:50.894,-4.125,-10.25
11:01:50.905,-4.125,-10.625
11:01:50.914,-3.75,-10.75
11:01:50.924,-2.8125,-10.125
11:01:50.935,-3.75,-9.875
11:01:50.944,-3.4375,-9.75
11:01:50.954,-2.75,-7.4375
11:01:50.965,-2.5,-8.5625
11:01:50.975,-2,-8.0625
11:01:50.984,-2.0625,-7.5625
11:01:50.994,-2,-8.1875
11:01:51.004,-2.125,-8
11:01:51.015,-1.6875,-6.75
11:01:51.025,-2.25,-8.5625
11:01:51.035,-2.1875,-8.1875
11:01:51.045,-2.375,-10.1875
11:01:51.054,-2.6875,-10.8125
11:01:51.065,-3.1875,-10.75
11:01:51.075,-3.25,-11.8125
11:01:51.084,-3.375,-12.3125
11:01:51.094,-3.625,-12.9375
11:01:51.104,-4.125,-13.8751
11:01:51.114,-3.1875,-14.4376
11:01:51.125,-4.4375,-14.8126
11:01:51.135,-4.125,-15.3751
11:01:51.144,-4.8125,-15.8126
11:01:51.154,-4.9375,-17.5626
11:01:51.165,-5,-17.5626
11:01:51.174,-6.125,-18.3751
11:01:51.185,-6.9375,-19.5626
11:01:51.194,-6.3125,-19.6251
11:01:51.205,-6.75,-20.5001
11:01:51.215,-7.1875,-20.8126
11:01:51.224,-7,-21.6876
11:01:51.253,-8.125,-22.3751
11:01:51.255,-8.375,-22.5626
11:01:51.257,-8.375,-23.4376
11:01:51.264,-8.375,-23.1251
11:01:51.301,-7.875,-22.3126
11:01:51.303,-6.8125,-19.8126
11:01:51.306,-4.875,-15.0626
11:01:51.308,-2.875,-10.0625
11:01:51.336,-0.1875,-4.9375
11:01:51.338,2.0625,0.5
11:01:51.342,4.0625,5.5
11:01:51.348,5.125,9.4375
11:01:51.382,6.875,12.3125
11:01:51.383,7.75,14.4376
11:01:51.386,7.25,14.3751
11:01:51.388,7.4375,14.6251
11:01:51.394,6.5,13.8751
11:01:51.415,6.5625,12.8125
11:01:51.417,6,11.625
11:01:51.425,4.5625,10.4375
11:01:51.434,4.3125,7.25
11:01:51.444,3.375,6.8125
11:01:51.454,2.5625,4.6875
11:01:51.464,1.8125,2
11:01:51.474,0.8125,0.5625
11:01:51.484,0.125,-1.375
11:01:51.495,0,-2.25
11:01:51.507,-0.75,-3.0625
11:01:51.517,-0.4375,-5.4375
11:01:51.524,-1.3125,-7.25
11:01:51.534,-2.3125,-6.875
11:01:51.562,-2.4375,-6.875
11:01:51.565,-1.5625,-7.9375
11:01:51.567,-1.3125,-7.75
11:01:51.576,-1.5,-8.875
11:01:51.584,-1.6875,-7.0625
11:01:51.594,-1.375,-7.75
11:01:51.605,-1.25,-7.75
11:01:51.614,-0.75,-6.3125
11:01:51.625,0,-6.1875
11:01:51.634,-0.0625,-6.0625
11:01:51.644,-0.5,-5.5625
11:01:51.654,-0.0625,-5.1875
11:01:51.665,-0.375,-5.25
11:01:51.674,-0.625,-4.5
11:01:51.685,-0.75,-5.9375
11:01:51.694,-0.875,-5.3125
11:01:51.705,-1,-6
11:01:51.714,-1.3125,-6.25
11:01:51.724,-1.9375,-7.9375
11:01:51.734,-2,-7.4375
11:01:51.744,-3.125,-9.625
11:01:51.754,-2.75,-8.9375
11:01:51.764,-3.6875,-11.1875
11:01:51.774,-3.9375,-11.25
11:01:51.785,-3.4375,-11.375
11:01:51.796,-4.875,-12.625
11:01:51.805,-4.25,-13.6876
11:01:51.816,-4.8125,-14.4376
11:01:51.824,-5.375,-14.6251
11:01:51.834,-5.4375,-15.6251
11:01:51.844,-5.5625,-15.5626
11:01:51.856,-6.125,-16.3751
11:01:51.865,-5.9375,-16.9376
11:01:51.874,-6.75,-17.8751
11:01:51.891,-6.25,-18.6876
11:01:51.896,-7.25,-18.3126
11:01:51.905,-6.9375,-19.3751
11:01:51.915,-7.5625,-19.7501
11:01:51.947,-6.25,-18.6876
11:01:51.950,-5.75,-17.3751
11:01:52.019,-4.25,-14.5001
11:01:52.055,-2.125,-9.6875
11:01:52.089,0.625,-4.4375
11:01:52.089,2.0625,0.625
11:01:52.089,5,5.9375
11:01:52.091,6.5625,9.625
11:01:52.093,7.8125,13.3751
11:01:52.099,8.25,15.6251
11:01:52.099,8.75,16.7501
11:01:52.099,8.125,17.4376
11:01:52.108,8.25,17.5001
11:01:52.115,7.5625,15.7501
11:01:52.125,6.3125,14.6251
11:01:52.134,6.25,12.3125
11:01:52.144,5.25,12.1875
11:01:52.155,4.75,9.0625
11:01:52.164,3.1875,7
11:01:52.174,3.0625,6.3125
11:01:52.184,2.1875,4.5625
11:01:52.194,1.75,2.25
11:01:52.205,0.5,0.75
11:01:52.214,-0.5,-1.875
11:01:52.225,-1.5,-2.8125
11:01:52.234,-1.875,-3.6875
11:01:52.244,-2.5625,-5.375
11:01:52.254,-2.4375,-6.375
11:01:52.269,-2.25,-6.3125
11:01:52.274,-1.6875,-6.5
11:01:52.285,-2.8125,-4.1875
11:01:52.294,-1.25,-4.75
11:01:52.305,-1.0625,-5.25
11:01:52.316,-1.25,-4.3125
11:01:52.325,-1.0625,-4.5625
11:01:52.334,-1.0625,-5
11:01:52.344,-2,-4.1875
11:01:52.355,-1.3125,-5.75
11:01:52.365,-1.8125,-6.625
11:01:52.374,-1.875,-6.4375
11:01:52.384,-2.375,-7.75
11:01:52.394,-1.9375,-7.8125
11:01:52.406,-2.3125,-9
11:01:52.414,-3.4375,-8.8125
11:01:52.424,-3.4375,-10.8125
11:01:52.436,-3.75,-10.5
11:01:52.444,-3.75,-11.125
11:01:52.454,-4.25,-11.5
11:01:52.464,-4.375,-12.625
11:01:52.474,-4.6875,-13.3126
11:01:52.485,-5.3125,-13.125
11:01:52.494,-4.75,-15.1876
11:01:52.504,-5.0625,-12.8125
11:01:52.514,-4.1875,-14.4376
11:01:52.525,-5,-13.5001
11:01:52.534,-4.9375,-15.0001
11:01:52.544,-5.875,-15.1251
11:01:52.554,-7.125,-15.1876
11:01:52.564,-8.5,-15.9376
11:01:52.574,-9.9375,-16.3751
11:01:52.584,-9.875,-15.5626
11:01:52.596,-9.5,-13.6876
11:01:52.605,-7.0625,-10.125
11:01:52.615,-4.9375,-5
11:01:52.624,-3.875,0.125
11:01:52.635,-4.0625,5.4375
11:01:52.649,-3.75,8.375
11:01:52.655,-4.125,13.1876
11:01:52.689,-4.5625,14.5626
11:01:52.693,-5.5,17.8126
11:01:52.695,-6.875,17.4376
11:01:52.697,-7.4375,19.1876
11:01:52.728,-10.1875,17.2501
11:01:52.730,-12.75,16.7501
11:01:52.732,-15.1251,14.3751
11:01:52.737,-16.6876,14.6251
11:01:52.769,-17.8751,12.25
11:01:52.771,-20.6876,11.4375
11:01:52.773,-24.0001,7.5625
11:01:52.799,-24.5001,8.1875
11:01:52.800,-26.1251,7
11:01:52.803,-26.5626,7.25
11:01:52.808,-27.0626,6.5
11:01:52.814,-27.2501,6
11:01:52.843,-26.8751,5.0625
11:01:52.847,-27.8126,4.8125
11:01:52.848,-28.3126,5.5625
11:01:52.856,-27.7501,5.0625
11:01:52.865,-26.8751,5.8125
11:01:52.877,-26.8751,4.5625
11:01:52.884,-26.1876,4.125
11:01:52.894,-26.5626,4.75
11:01:52.904,-25.8751,5.4375
11:01:52.914,-25.8751,4.5625
11:01:52.925,-25.8751,6.1875
11:01:52.934,-25.5626,6.0625
11:01:52.945,-25.1251,5.8125
11:01:52.954,-24.5001,6.0625
11:01:52.964,-23.5626,7.1875
11:01:52.974,-23.8751,7.875
11:01:52.985,-23.4376,7.5
11:01:52.994,-21.6876,6.8125
11:01:53.004,-22.0626,7.6875
11:01:53.014,-22.0626,7.8125
11:01:53.025,-21.5626,6.625
11:01:53.035,-20.6251,7.75
11:01:53.045,-20.5626,6.1875
11:01:53.054,-20.8126,5.625
11:01:53.064,-20.6876,5.625
11:01:53.074,-20.8126,5
11:01:53.085,-20.4376,4.25
11:01:53.096,-20.6876,3.875
11:01:53.104,-20.7501,3.5
11:01:53.114,-20.3751,1.4375
11:01:53.124,-21.8126,1.625
11:01:53.134,-21.4376,-0.4375
11:01:53.144,-21.3126,-1.0625
11:01:53.154,-21.0001,-0.8125
11:01:53.164,-21.6251,-2.8125
11:01:53.174,-22.0001,-3.5625
11:01:53.184,-21.8751,-4.75
11:01:53.194,-22.9376,-5.125
11:01:53.204,-22.5626,-6.75
11:01:53.214,-22.6251,-7.6875
11:01:53.224,-24.0001,-8.375
11:01:53.235,-23.1251,-9.4375
11:01:53.245,-23.5626,-11
11:01:53.262,-23.9376,-10.75
11:01:53.268,-23.7501,-11.4375
11:01:53.283,-23.5001,-10.4375
11:01:53.285,-21.5626,-9
11:01:53.295,-20.0001,-5.75
11:01:53.305,-18.2501,-1.125
11:01:53.314,-17.0626,2.6875
11:01:53.325,-14.4376,7.125
11:01:53.335,-12.75,11.125
11:01:53.344,-11.125,14.7501
11:01:53.364,-10.375,18.0626
11:01:53.366,-9.125,19.6876
11:01:53.381,-9.5,20.6876
11:01:53.385,-8.25,22.0001
11:01:53.395,-9.3125,21.0001
11:01:53.404,-8,21.0626
11:01:53.415,-8.6875,21.6251
11:01:53.425,-8.875,19.6876
11:01:53.445,-9.4375,18.6876
11:01:53.448,-9.625,17.8751
11:01:53.480,-10.5625,16.3126
11:01:53.482,-9.875,15.4376
11:01:53.484,-10.4375,12.875
11:01:53.487,-11.0625,13.125
11:01:53.519,-10.625,9.9375
11:01:53.521,-11.5,8.25
11:01:53.523,-12.1875,7.5625
11:01:53.525,-12.4375,5.3125
11:01:53.560,-12.625,4.3125
11:01:53.562,-13.2501,3.4375
11:01:53.564,-12.75,1.6875
11:01:53.590,-13.2501,2.4375
11:01:53.593,-12.5,0.6875
11:01:53.595,-12.8125,0.5625
11:01:53.600,-12.8125,1
11:01:53.605,-12.6875,0.0625
11:01:53.620,-12.875,0.75
11:01:53.626,-11.4375,0.75
11:01:53.634,-11.5,0.375
11:01:53.645,-12.375,1.9375
11:01:53.654,-11.8125,0.8125
11:01:53.664,-11.4375,1
11:01:53.674,-11.9375,2.125
11:01:53.685,-11.0625,2.0625
11:01:53.695,-12,1.5
11:01:53.704,-10.375,2
11:01:53.717,-10.6875,1.375
11:01:53.726,-10.8125,-0.1875
11:01:53.734,-10.5625,0.8125
11:01:53.744,-9,2
11:01:53.754,-9.0625,0.3125
11:01:53.764,-9.5625,1
11:01:53.774,-7.75,0.6875
11:01:53.785,-7.9375,1.875
11:01:53.794,-7.5,0.625
11:01:53.804,-7.8125,0.75
11:01:53.816,-7.125,0.375
11:01:53.826,-7.0625,-0.625
11:01:53.834,-6.0625,0.875
11:01:53.845,-4.6875,0.375
11:01:53.854,-3.625,1.375
11:01:53.864,-1.375,2.3125
11:01:53.874,-2.1875,1.5
11:01:53.885,-2.75,1.5625
11:01:53.894,-3.5,-0.1875
11:01:53.904,-4.25,-0.0625
11:01:53.914,-4.3125,0
11:01:53.925,-4.875,-1.8125
11:01:53.937,-5,-2.375
11:01:53.946,-5.25,-2.25
11:01:53.955,-5.0625,-2.9375
11:01:53.964,-5.4375,-1.375
11:01:53.977,-4.875,-0.625
11:01:53.984,-5.125,1.3125
11:01:53.995,-4.75,5.8125
11:01:54.005,-3.25,9.6875
11:01:54.014,-2,15.0626
11:01:54.026,-0.5,18.5001
11:01:54.034,0.5625,22.0626
11:01:54.045,0.5,26.5001
11:01:54.054,1.75,27.1876
11:01:54.064,2.1875,29.5001
11:01:54.089,2.4375,29.1876
11:01:54.091,1.9375,30.2501
11:01:54.125,1.25,30.3126
11:01:54.126,0.0625,28.1251
11:01:54.128,-0.1875,28.3126
11:01:54.133,-0.3125,26.1251
11:01:54.165,-0.75,25.5626
11:01:54.166,-1.5,23.5626
11:01:54.168,-1.75,23.6876
11:01:54.170,-1.9375,21.2501
11:01:54.201,-3.625,20.1876
11:01:54.203,-4.125,18.9376
11:01:54.205,-4.625,16.5001
11:01:54.235,-4.9375,14.8751
11:01:54.237,-5.8125,14.4376
11:01:54.238,-5.9375,12.625
11:01:54.244,-6.25,11.125
11:01:54.251,-6.6875,10.8125
11:01:54.260,-7,10.1875
11:01:54.269,-5.9375,10.25
11:01:54.281,-6.3125,9.25
11:01:54.290,-6.5,9.9375
11:01:54.300,-6.8125,10.5
11:01:54.312,-6.375,10.5
11:01:54.319,-5.4375,9.625
11:01:54.331,-6,9.1875
11:01:54.341,-6.0625,9.625
11:01:54.349,-6.125,8.6875
11:01:54.359,-6.375,9.1875
11:01:54.369,-6.75,8.9375
11:01:54.379,-6.9375,6.0625
11:01:54.391,-7.625,7.25
11:01:54.399,-7.5625,4.9375
11:01:54.410,-8.125,3.8125
11:01:54.419,-8,3
11:01:54.429,-7.8125,1.875
11:01:54.440,-8,1.8125
11:01:54.450,-8.25,0.8125
11:01:54.460,-8.1875,0.875
11:01:54.471,-8.0625,-0.5
11:01:54.479,-8.3125,-1.5625
11:01:54.489,-8.875,-1.8125
11:01:54.501,-8.625,-4.0625
11:01:54.510,-10.0625,-5.375
11:01:54.519,-9.75,-5.0625
11:01:54.530,-9.375,-6.125
11:01:54.541,-10.625,-7.4375
11:01:54.550,-10.6875,-7.875
11:01:54.569,-10.0625,-9.25
11:01:54.582,-11.25,-8.375
11:01:54.585,-11,-10.875
11:01:54.590,-11.6875,-10.9375
11:01:54.605,-11.9375,-11.75
11:01:54.616,-12.0625,-13.2501
11:01:54.624,-11.9375,-12.25
11:01:54.636,-11.8125,-13.5626
11:01:54.645,-10.4375,-10.6875
11:01:54.660,-8.9375,-8.625
11:01:54.677,-8.25,-4.125
11:01:54.679,-5.4375,1.125
11:01:54.685,-2.25,5.875
11:01:54.695,0.3125,11.3125
11:01:54.706,2.4375,16.3126
11:01:54.716,4.75,22.3126
11:01:54.724,6.3125,25.5001
11:01:54.736,6.8125,28.6251
11:01:54.750,7.25,30.8751
11:01:54.755,8.5625,32.9376
11:01:54.766,10.25,34.2501
11:01:54.775,10.5625,37.2501
11:01:54.785,11.3125,35.5626
11:01:54.794,10.75,36.5626
11:01:54.805,10.25,35.3751
11:01:54.830,8.6875,33.3126
11:01:54.833,8.3125,33.1251
11:01:54.835,8,30.9376
11:01:54.871,5.9375,29.5001
11:01:54.873,5.1875,28.2501
11:01:54.875,4.8125,25.3751
11:01:54.877,4.3125,22.5001
11:01:54.910,3.4375,22.3126
11:01:54.912,1.875,20.8126
11:01:54.915,0.9375,19.6251
11:01:54.921,0.3125,17.0001
11:01:54.935,-0.8125,15.9376
11:01:54.937,-1.4375,16.5001
11:01:54.972,-1.5,16.1876
11:01:54.975,-1.375,15.2501
11:01:54.975,-1,17.5001
11:01:54.982,0.375,17.5626
11:01:54.984,-0.3125,17.7501
11:01:54.994,-1.125,17.5626
11:01:55.004,-0.5,19.4376
11:01:55.015,-0.3125,18.7501
11:01:55.026,-1.25,17.8126
11:01:55.034,-1.1875,17.6251
11:01:55.046,-1.875,18.6876
11:01:55.057,-1.9375,16.8751
11:01:55.064,-2.8125,16.3126
11:01:55.076,-3.8125,16.2501
11:01:55.086,-3.8125,15.0626
11:01:55.094,-4.5625,14.5626
11:01:55.105,-4.125,12.1875
11:01:55.114,-5,10.5625
11:01:55.125,-4.5,10.6875
11:01:55.141,-4.0625,9.25
11:01:55.149,-5.3125,8
11:01:55.159,-5,6
11:01:55.170,-6.4375,4
11:01:55.182,-6.9375,2.3125
11:01:55.191,-7.375,2.75
11:01:55.201,-7.25,1.3125
11:01:55.211,-7.9375,0.375
11:01:55.219,-8.125,-0.375
11:01:55.230,-8.1875,-2.5
11:01:55.239,-9.1875,-3.0625
11:01:55.249,-9.0625,-3.75
11:01:55.261,-9.5,-6.0625
11:01:55.270,-10.125,-6.5
11:01:55.281,-10.625,-7.8125
11:01:55.289,-11.3125,-8.3125
11:01:55.301,-11.5,-9.625
11:01:55.309,-11.6875,-10.75
11:01:55.321,-11.375,-10.875
11:01:55.329,-10.9375,-11.8125
11:01:55.342,-11.25,-10
11:01:55.350,-9.4375,-7.625
11:01:55.361,-7.6875,-5.375
11:01:55.370,-5.4375,0.375
11:01:55.404,-3.25,5.125
11:01:55.405,-1.8125,9.625
11:01:55.408,-0.5625,14.5001
11:01:55.410,0.25,18.2501
11:01:55.421,2.5625,21.0626
11:01:55.431,2.625,24.4376
11:01:55.440,2.5625,26.1876
11:01:55.449,3.875,26.2501
11:01:55.461,2.75,27.8751
11:01:55.470,3.5625,27.1251
11:01:55.479,3.25,27.5626
11:01:55.489,3.1875,26.4376
11:01:55.506,2.5625,26.4376
11:01:55.511,3.25,25.3126
11:01:55.519,3.9375,26.1876
11:01:55.531,2.75,25.8126
11:01:55.542,2.1875,23.5001
11:01:55.550,1.625,23.2501
11:01:55.560,1.4375,22.3126
11:01:55.569,2.375,22.3751
11:01:55.581,2.375,21.3126
11:01:55.591,2.75,21.6876
11:01:55.599,3.625,19.6876
11:01:55.611,2.5625,19.0001
11:01:55.643,2.75,18.1876
11:01:55.646,2.75,19.6251
11:01:55.648,2.5,17.9376
11:01:55.652,2.4375,18.3751
11:01:55.686,3.4375,19.7501
11:01:55.687,4.625,20.0626
11:01:55.689,4.5,19.6876
11:01:55.693,3.875,19.8751
11:01:55.728,4.25,20.8751
11:01:55.730,4.9375,21.6876
11:01:55.732,5.1875,21.0626
11:01:55.737,3.5625,19.4376
11:01:55.740,2.875,19.5001
11:01:55.780,2.125,18.6251
11:01:55.782,1.9375,17.0626
11:01:55.786,0.875,16.3751
11:01:55.787,-0.1875,15.1251
11:01:55.793,-0.4375,15.3126
11:01:55.801,-1,13.7501
11:01:55.810,-1,13.7501
11:01:55.820,-0.9375,13.1251
11:01:55.830,-1.6875,11.8125
11:01:55.839,-2.8125,11.125
11:01:55.859,-3.375,9.625
11:01:55.865,-3.875,8
11:01:55.881,-4.125,8.375
11:01:55.883,-4.625,6.6875
11:01:55.891,-5.75,5.6875
11:01:55.899,-6.5,4.6875
11:01:55.909,-6.4375,3.9375
11:01:55.921,-6.5,2.5
11:01:55.929,-7.4375,2.4375
11:01:55.941,-8.0625,1.375
11:01:55.957,-8.5,-1.3125
11:01:55.973,-8.9375,-0.25
11:01:55.974,-8.6875,-3.125
11:01:55.981,-9.375,-4.4375
11:01:55.991,-9.75,-4.8125
11:01:55.999,-10.1875,-5.75
11:01:56.011,-10.8125,-6.4375
11:01:56.022,-11.1875,-6.5625
11:01:56.031,-11.4375,-8.1875
11:01:56.040,-11.125,-8.6875
11:01:56.050,-10.875,-6.8125
11:01:56.060,-9.5625,-4.9375
11:01:56.069,-7.8125,-1.5625
11:01:56.080,-6.3125,4.1875
11:01:56.089,-4.125,7.3125
11:01:56.102,-2.875,13.7501
11:01:56.112,-0.9375,15.8751
11:01:56.119,-0.125,19.8126
11:01:56.129,0.9375,22.2501
11:01:56.141,1,22.1876
11:01:56.151,1.25,23.8751
11:01:56.161,0.9375,23.8751
11:01:56.170,0.5625,24.0001
11:01:56.180,0.1875,23.1876
11:01:56.191,-0.625,22.1251
11:01:56.202,-0.875,20.2501
11:01:56.209,-1.4375,19.3751
11:01:56.221,-1.625,19.5626
11:01:56.230,-1.5,16.5001
11:01:56.240,-2.6875,15.5001
11:01:56.257,-2.625,12.75
11:01:56.259,-3.6875,10.4375
11:01:56.271,-4.1875,10.3125
11:01:56.279,-4.125,8.625
11:01:56.292,-4.875,6.875
11:01:56.300,-5.25,5.625
11:01:56.309,-5.5625,4.5625
11:01:56.322,-5.6875,3.6875
11:01:56.332,-6.8125,1.875
11:01:56.341,-7.0625,0.8125
11:01:56.380,-7.25,1.0625
11:01:56.382,-6.9375,0.8125
11:01:56.385,-6.875,0.75
11:01:56.387,-7.3125,2.8125
11:01:56.393,-7,1.9375
11:01:56.422,-6.375,1.625
11:01:56.425,-6.5,2.6875
11:01:56.427,-5.75,3.0625
11:01:56.452,-5.6875,4.0625
11:01:56.453,-5.25,3.9375
11:01:56.456,-5.375,3
11:01:56.461,-6.125,3.6875
11:01:56.490,-5.5,2.5625
11:01:56.493,-6,2.125
11:01:56.494,-6.5,2.3125
11:01:56.500,-6.1875,0.6875
11:01:56.531,-7,0.875
11:01:56.533,-6.8125,0.125
11:01:56.535,-6.5,-0.3125
11:01:56.541,-7.25,-1.6875
11:01:56.549,-6.625,-0.8125
11:01:56.562,-5.875,-1.5
11:01:56.569,-6.5625,-2
11:01:56.580,-6,-2.4375
11:01:56.590,-6.375,-3.4375
11:01:56.600,-6.5625,-3.125
11:01:56.609,-6.625,-3.625
11:01:56.620,-6.9375,-5.0625
11:01:56.632,-6.75,-3.6875
11:01:56.640,-6.5625,-5.875
11:01:56.652,-7.0625,-5.875
11:01:56.682,-6.3125,-6.9375
11:01:56.684,-6.3125,-6.0625
11:01:56.686,-6.125,-7.1875
11:01:56.694,-6.25,-7.9375
11:01:56.699,-7,-6.6875
11:01:56.713,-6.5,-8.75
11:01:56.719,-7.75,-8.4375
11:01:56.730,-7.1875,-8.875
11:01:56.742,-7.25,-7.875
11:01:56.750,-6.0625,-6.125
11:01:56.760,-5.125,-2.1875
11:01:56.771,-3.3125,2.125
11:01:56.780,-2.5,7.0625
11:01:56.792,-0.3125,11.8125
11:01:56.801,0.8125,15.5626
11:01:56.811,1.625,18.9376
11:01:56.820,2.6875,22.8751
11:01:56.831,3.0625,26.0626
11:01:56.840,3.625,28.0001
11:01:56.850,4.375,28.7501
11:01:56.860,4,28.7501
11:01:56.871,3.6875,29.2501
11:01:56.882,3.5,28.2501
11:01:56.890,2.375,26.9376
11:01:56.899,2,26.3751
11:01:56.909,1.8125,24.7501
11:01:56.922,0.5625,25.1251
11:01:56.931,0.4375,22.7501
11:01:56.940,-0.9375,22.1251
11:01:56.950,-1,19.2501
11:01:56.963,-1.9375,16.6251
11:01:56.972,-2.625,16.1251
11:01:56.980,-3.4375,13.8751
11:01:56.990,-3.8125,12.4375
11:01:57.007,-3.9375,9.6875
11:01:57.012,-4,9.1875
11:01:57.021,-4.875,9.0625
11:01:57.029,-4.8125,7.4375
11:01:57.040,-5.125,6.4375
11:01:57.071,-5.4375,5.75
11:01:57.074,-4.875,6.4375
11:01:57.076,-5.625,5.75
11:01:57.081,-6.125,5.1875
11:01:57.110,-5.4375,5.5
11:01:57.112,-5.5,4.625
11:01:57.116,-5.3125,5.4375
11:01:57.121,-5.375,4.8125
11:01:57.130,-5.0625,4.1875
11:01:57.161,-6.4375,5.0625
11:01:57.164,-6.125,3.3125
11:01:57.179,-6.25,1.75
11:01:57.182,-7.125,2.125
11:01:57.184,-7.1875,0.1875
11:01:57.192,-7.9375,-0.8125
11:01:57.226,-8.625,-0.25
11:01:57.227,-8.6875,-2.25
11:01:57.229,-8.875,-3.6875
11:01:57.232,-9.3125,-4
11:01:57.241,-9.6875,-5.1875
11:01:57.256,-10.625,-6.3125
11:01:57.271,-10.875,-6.8125
11:01:57.279,-10.8125,-7.875
11:01:57.281,-11.8125,-9.8125
11:01:57.290,-11.6875,-9.6875
11:01:57.302,-12.3125,-11.375
11:01:57.311,-12.1875,-11.4375
11:01:57.320,-12.5625,-10.9375
11:01:57.331,-11.8125,-11.9375
11:01:57.340,-11.9375,-12.6875
11:01:57.350,-12.5,-12.6875
11:01:57.360,-11.9375,-12.875
11:01:57.371,-11.875,-12.875
11:01:57.382,-11.4375,-12.0625
11:01:57.390,-11.1875,-12.875
11:01:57.401,-10.6875,-13.4376
11:01:57.411,-10.375,-14.2501
11:01:57.421,-10.625,-13.9376
11:01:57.430,-10.8125,-13.9376
11:01:57.441,-9.6875,-13.8751
11:01:57.451,-9.1875,-11.25
11:01:57.463,-6.8125,-8
11:01:57.471,-4.875,-4.1875
11:01:57.482,-2.6875,3.1875
11:01:57.491,0.1875,7.9375
11:01:57.500,2.875,13.3751
11:01:57.511,4.625,19.3126
11:01:57.521,7.25,23.6251
11:01:57.530,9.125,28.4376
11:01:57.541,11.3125,32.0626
11:01:57.553,11.4375,34.6251
11:01:57.562,12.8125,36.0001
11:01:57.570,12.1875,37.6251
11:01:57.581,11.9375,38.3751
11:01:57.591,12,36.5626
11:01:57.604,11.125,36.8126
11:01:57.612,10.875,35.6876
11:01:57.620,10.8125,34.7501
11:01:57.630,10.75,34.3751
11:01:57.643,9.625,32.1251
11:01:57.650,9.0625,31.7501
11:01:57.660,9.5625,30.9376
11:01:57.671,8.875,30.0001
11:01:57.680,8.6875,29.9376
11:01:57.690,8.3125,29.1251
11:01:57.700,9.3125,28.0626
11:01:57.710,8.375,26.3126
11:01:57.720,7.9375,25.3751
11:01:57.756,8.1875,24.8751
11:01:57.757,7.5,23.7501
11:01:57.760,7.25,23.3126
11:01:57.762,7.125,25.1876
11:01:57.802,7.75,24.5626
11:01:57.803,8.8125,25.3126
11:01:57.807,9.5625,26.2501
11:01:57.808,10.625,28.6251
11:01:57.815,13.0625,30.1876
11:01:57.822,14.7501,32.0001
11:01:57.849,16.3751,33.1876
11:01:57.852,17.2501,34.7501
11:01:57.854,18.0001,35.7501
11:01:57.860,18.3126,35.4376
11:01:57.888,18.4376,34.4376
11:01:57.891,18.3126,34.8751
11:01:57.893,17.6876,34.5001
11:01:57.917,17.0001,34.1876
11:01:57.920,17.4376,32.1876
11:01:57.922,17.3126,31.0001
11:01:57.931,16.7501,29.4376
11:01:57.963,16.3126,28.9376
11:01:57.967,15.2501,26.8126
11:01:57.967,13.5626,25.7501
11:01:57.973,12.75,24.6876
11:01:57.983,12.625,22.6876
11:01:57.990,11.5,21.1876
11:01:58.005,11,20.6876
11:01:58.010,11.1875,19.6251
11:01:58.021,11.1875,18.9376
11:01:58.031,9.3125,16.8126
11:01:58.040,8.625,15.6251
11:01:58.050,7.875,15.3126
11:01:58.060,8.9375,14.1876
11:01:58.070,8.6875,13.4376
11:01:58.081,16.9376,16.1876
11:01:58.091,16.5626,15.5626
11:01:58.100,21.9376,16.8126
11:01:58.110,23.0626,16.3751
11:01:58.120,24.6876,15.9376
11:01:58.130,26.0001,14.2501
11:01:58.145,27.8126,11.5625
11:01:58.155,29.3751,10.8125
11:01:58.165,29.9376,9.4375
11:01:58.175,32.5001,8.1875
11:01:58.186,33.6251,8.25
11:01:58.195,36.1251,11.4375
11:01:58.205,39.5002,15.1876
11:01:58.216,43.9377,18.9376
11:01:58.225,46.7502,22.6876
11:01:58.235,50.1252,27.9376
11:01:58.246,53.1252,30.6251
11:01:58.255,55.0627,31.9376
11:01:58.265,56.7502,33.0626
11:01:58.275,56.2502,33.1251
11:01:58.292,55.7502,30.9376
11:01:58.296,54.0627,26.3751
11:01:58.306,50.7502,23.7501
11:01:58.316,48.9377,21.0001
11:01:58.327,46.3127,16.3751
11:01:58.336,44.2502,15.2501
11:01:58.345,41.8752,11.6875
11:01:58.356,39.6252,8.1875
11:01:58.365,37.6876,5.5
11:01:58.375,36.1876,3.375
11:01:58.385,33.8751,1.125
11:01:58.395,31.8751,-2.125
11:01:58.405,28.6876,-7.125
11:01:58.416,26.3126,-9.8125
11:01:58.425,23.4376,-12.3125
11:01:58.435,22.4376,-14.4376
11:01:58.457,19.3126,-18.3126
11:01:58.460,16.8126,-20.8126
11:01:58.468,14.5626,-22.4376
11:01:58.506,13.6251,-23.4376
11:01:58.537,13.3126,-24.0001
11:01:58.576,11.9375,-24.3751
11:01:58.579,10.5625,-25.3751
11:01:58.612,10.125,-24.0001
11:01:58.613,8.75,-24.1876
11:01:58.613,7.875,-25.1876
11:01:58.640,6.5625,-26.6251
11:01:58.656,5.3125,-26.3126
11:01:58.658,5.25,-27.1251
11:01:58.658,3.5625,-27.3126
11:01:58.658,3.125,-26.1251
11:01:58.663,2.75,-27.5001
11:01:58.665,1.25,-28.9376
11:01:58.673,-0.1875,-28.8751
11:01:58.680,-0.6875,-28.7501
11:01:58.690,-0.125,-29.5001
11:01:58.701,-1.375,-30.8751
11:01:58.710,-1.9375,-31.6876
11:01:58.722,-3.125,-31.7501
11:01:58.731,-3.75,-32.9376
11:01:58.740,-3.9375,-33.6251
11:01:58.750,-4.6875,-35.5626
11:01:58.760,-6.875,-41.6877
11:01:58.770,-7.75,-43.4377
11:01:58.781,-8.25,-43.3752
11:01:58.792,-9,-44.1877
11:01:58.802,-8.4375,-44.5002
11:01:58.813,-9.3125,-47.5627
11:01:58.820,-9.4375,-48.1877
11:01:58.832,-9.8125,-49.0002
11:01:58.840,-10.625,-48.7502
11:01:58.851,-10.9375,-51.5627
11:01:58.860,-11.5625,-52.5627
11:01:58.870,-11.8125,-52.0627
11:01:58.881,-11.75,-53.6877
11:01:58.891,-11.375,-51.0627
11:01:58.902,-9.5,-49.2502
11:01:58.911,-7.25,-44.0627
11:01:58.922,-5.1875,-38.5001
11:01:58.930,-2.75,-32.7501
11:01:58.941,0.0625,-25.8751
11:01:58.951,2.375,-21.3126
11:01:58.961,3.5625,-15.3126
11:01:58.970,5.375,-13.2501
11:01:58.981,5.625,-9.3125
11:01:58.991,6.9375,-9
11:01:59.000,7.3125,-7.8125
11:01:59.011,6.75,-6.75
11:01:59.021,6.125,-8.8125
11:01:59.033,5.75,-9.1875
11:01:59.047,4.8125,-10.75
11:01:59.051,5,-11.5
11:01:59.061,3.25,-13.2501
11:01:59.070,2.625,-15.1876
11:01:59.082,0.6875,-16.1251
11:01:59.090,0.625,-19.2501
11:01:59.100,-0.5625,-20.3126
11:01:59.110,-1.75,-23.3751
11:01:59.120,-1.6875,-23.3126
11:01:59.130,-2.6875,-24.6876
11:01:59.140,-3.125,-26.6876
11:01:59.151,-3.3125,-26.7501
11:01:59.160,-3.875,-27.7501
11:01:59.173,-3.8125,-27.8126
11:01:59.182,-4.4375,-28.1876
11:01:59.192,-3.3125,-28.3751
11:01:59.200,-4,-27.2501
11:01:59.210,-3.5,-26.8751
11:01:59.242,-2.875,-26.9376
11:01:59.245,-3.125,-24.9376
11:01:59.247,-2.4375,-25.5626
11:01:59.251,-3.125,-24.3751
11:01:59.286,-3.0625,-24.8751
11:01:59.288,-3.9375,-23.5001
11:01:59.291,-3.375,-24.5001
11:01:59.293,-3.3125,-24.8751
11:01:59.321,-3.8125,-24.0626
11:01:59.326,-3.5625,-24.1251
11:01:59.326,-4.1875,-25.4376
11:01:59.332,-4,-24.8126
11:01:59.356,-4.0625,-26.6876
11:01:59.358,-4.625,-26.5001
11:01:59.389,-3.875,-26.8126
11:01:59.390,-5.4375,-27.5001
11:01:59.392,-4.375,-27.6876
11:01:59.395,-5.75,-29.5001
11:01:59.400,-6.1875,-29.7501
11:01:59.440,-6.75,-31.1876
11:01:59.443,-7.3125,-31.1876
11:01:59.445,-7.125,-32.6876
11:01:59.447,-8.1875,-33.8751
11:01:59.452,-8.5,-33.5626
11:01:59.462,-8.75,-35.0001
11:01:59.471,-9.1875,-35.3126
11:01:59.480,-9.0625,-35.6251
11:01:59.490,-9.6875,-36.3126
11:01:59.501,-9.4375,-37.3126
11:01:59.510,-10.6875,-37.6251
11:01:59.520,-11.0625,-37.9376
11:01:59.531,-10.9375,-38.3126
11:01:59.541,-12.375,-38.5626
11:01:59.551,-11.5625,-40.0627
11:01:59.562,-11.9375,-40.0627
11:01:59.572,-11.9375,-40.5002
11:01:59.581,-12.3125,-39.7502
11:01:59.590,-11.1875,-39.1876
11:01:59.600,-10.25,-34.9376
11:01:59.611,-7.0625,-30.6251
11:01:59.621,-4.625,-25.2501
11:01:59.631,-2.8125,-18.7501
11:01:59.641,0.3125,-13
11:01:59.652,1.9375,-8
11:01:59.663,3.0625,-2.375
11:01:59.671,5.3125,0.0625
11:01:59.681,5.5,2.1875
11:01:59.690,5.8125,3.4375
11:01:59.700,6.3125,2.9375
11:01:59.711,6.1875,3.9375
11:01:59.721,5.75,2.375
11:01:59.731,4.625,1.625
11:01:59.742,4.125,-0.25
11:01:59.750,3.625,-1.1875
11:01:59.760,2.6875,-3.6875
11:01:59.770,2,-4.75
11:01:59.788,2.1875,-6.125
11:01:59.803,0.75,-6.9375
11:01:59.806,1.0625,-8.75
11:01:59.821,-0.4375,-10.875
11:01:59.823,-1.5625,-12.0625
11:01:59.838,-1.9375,-13.3751
11:01:59.841,-2.0625,-15.4376
11:01:59.851,-3.5625,-17.6251
11:01:59.861,-4,-18.5001
11:01:59.870,-3.6875,-18.9376
11:01:59.880,-4.5625,-18.1876
11:01:59.892,-3.75,-17.8751
11:01:59.900,-3.625,-19.3751
11:01:59.910,-4.4375,-18.9376
11:01:59.925,-4.0625,-18.7501
11:01:59.934,-3.75,-19.0626
11:01:59.941,-3.875,-19.1876
11:01:59.956,-3.875,-18.1876
11:01:59.966,-3.75,-17.6251
11:01:59.970,-4,-18.1251
11:01:59.982,-4.25,-17.8126
11:01:59.991,-4.5625,-18.1876
11:02:00.019,-4.9375,-19.3751
11:02:00.023,-5.1875,-19.3751
11:02:00.025,-6.125,-20.0001
11:02:00.031,-5.9375,-20.4376
11:02:00.068,-6.875,-20.3751
11:02:00.069,-7,-22.1251
11:02:00.074,-7.8125,-22.1251
11:02:00.101,-7.625,-23.8751
11:02:00.102,-8.625,-24.5001
11:02:00.104,-8.625,-24.8751
11:02:00.109,-8.4375,-26.4376
11:02:00.110,-9.375,-27.1876
11:02:00.139,-8.875,-27.0001
11:02:00.142,-9.375,-27.6251
11:02:00.145,-9.375,-28.3126
11:02:00.151,-9.9375,-29.5001
11:02:00.181,-10,-29.5626
11:02:00.183,-10.625,-31.1251
11:02:00.185,-11.5,-32.4376
11:02:00.193,-11.375,-32.1251
11:02:00.202,-11.8125,-32.0626
11:02:00.214,-11.6875,-33.6251
11:02:00.220,-12.75,-34.2501
11:02:00.230,-12.5625,-34.5001
11:02:00.240,-13.125,-35.5626
11:02:00.253,-12.5625,-34.6876
11:02:00.263,-12.3125,-35.0626
11:02:00.270,-13.1876,-35.6251
11:02:00.281,-11.9375,-34.5001
11:02:00.291,-10.5,-33.1876
11:02:00.300,-9.5,-28.0626
11:02:00.311,-6.5,-23.8126
11:02:00.321,-4.5,-17.1876
11:02:00.333,-1.625,-11.375
11:02:00.342,0.6875,-4.875
11:02:00.351,2.875,-0.1875
11:02:00.360,4.5,5.0625
11:02:00.371,6.1875,6.4375
11:02:00.382,6.4375,8.8125
11:02:00.390,7.125,8.3125
11:02:00.401,7.3125,10.375
11:02:00.410,7.3125,8.6875
11:02:00.420,6.5,9.25
11:02:00.431,6.25,6.5625
11:02:00.440,5.5625,6.1875
11:02:00.451,4.875,3.9375
11:02:00.460,4,2.9375
11:02:00.470,3.375,0.1875
11:02:00.480,2.3125,0.0625
11:02:00.490,2.625,-2.75
11:02:00.526,1.5625,-2.625
11:02:00.527,0.5,-5.5
11:02:00.532,-0.875,-8.25
11:02:00.536,-2.0625,-9.375
11:02:00.540,-2.1875,-10.6875
11:02:00.551,-2.9375,-12.625
11:02:00.563,-4.0625,-12.375
11:02:00.570,-4.375,-14.2501
11:02:00.586,-4.5,-15.1876
11:02:00.591,-5.375,-15.8126
11:02:00.601,-6.3125,-15.2501
11:02:00.611,-4.4375,-15.5626
11:02:00.620,-5.4375,-15.6251
11:02:00.630,-4.875,-14.3126
11:02:00.654,-4.625,-15.0001
11:02:00.657,-5,-14.8751
11:02:00.671,-4.875,-13.5626
11:02:00.674,-4.625,-13.6251
11:02:00.700,-5.0625,-14.6251
11:02:00.703,-4.9375,-14.1251
11:02:00.705,-5.1875,-14.6251
11:02:00.712,-4.875,-15.9376
11:02:00.747,-6.0625,-15.6876
11:02:00.750,-6.0625,-16.5001
11:02:00.750,-5.9375,-17.5626
11:02:00.782,-5.8125,-17.5001
11:02:00.782,-6.3125,-18.4376
11:02:00.785,-6.625,-19.3126
11:02:00.792,-6.75,-20.1876
11:02:00.793,-6.5,-20.6251
11:02:00.805,-6.75,-20.1876
11:02:00.812,-6.0625,-21.0626
11:02:00.821,-6.6875,-21.3126
11:02:00.830,-6.375,-21.6876
11:02:00.841,-6.5,-21.4376
11:02:00.853,-6.4375,-23.0001
11:02:00.861,-7.25,-23.0626
11:02:00.870,-7.5625,-24.6251
11:02:00.881,-9,-25.3751
11:02:00.890,-8.9375,-27.6251
11:02:00.901,-9.0625,-27.6251
11:02:00.913,-8.875,-28.3751
11:02:00.921,-9.1875,-28.2501
11:02:00.931,-9.75,-29.8126
11:02:00.940,-10.5,-30.1251
11:02:00.951,-10.5,-31.2501
11:02:00.964,-11.4375,-29.8751
11:02:00.973,-10.375,-31.6876
11:02:00.980,-10.0625,-28.3126
11:02:00.990,-7.625,-26.8126
11:02:01.000,-6.3125,-21.4376
11:02:01.010,-3.375,-16.8126
11:02:01.022,-1.4375,-10.5625
11:02:01.031,1.5,-5.0625
11:02:01.041,3.375,1.5
11:02:01.050,5.125,4.4375
11:02:01.062,5.8125,8.625
11:02:01.071,7,9
11:02:01.081,6.5625,10.4375
11:02:01.093,6.9375,10.75
11:02:01.105,6.25,9.5
11:02:01.115,6,9.5
11:02:01.121,4.375,7.875
11:02:01.137,5.0625,6.25
11:02:01.143,4,4.375
11:02:01.153,3.5625,3.625
11:02:01.161,2.5,1.375
11:02:01.171,1.625,-1.1875
11:02:01.180,1.0625,-2.25
11:02:01.191,0,-5.25
11:02:01.201,-0.4375,-7
11:02:01.212,-1.125,-7.125
11:02:01.220,-1.3125,-9.3125
11:02:01.242,-2.25,-10.25
11:02:01.245,-2.75,-11.5
11:02:01.262,-2.9375,-12.6875
11:02:01.275,-3.125,-12.9375
11:02:01.276,-3.375,-13.3751
11:02:01.283,-3.875,-13.8126
11:02:01.290,-3.25,-13.3126
11:02:01.302,-2.8125,-13.6251
11:02:01.310,-2.625,-13.5626
11:02:01.320,-3.5625,-12.9375
11:02:01.332,-3,-12.4375
11:02:01.340,-3.5,-12.375
11:02:01.351,-4.0625,-12.6875
11:02:01.362,-4.1875,-11.6875
11:02:01.370,-4.3125,-12.5
11:02:01.380,-4.9375,-12.4375
11:02:01.390,-4.9375,-13.3126
11:02:01.401,-5.8125,-13.8751
11:02:01.412,-6.25,-14.2501
11:02:01.423,-6.4375,-15.6251
11:02:01.449,-6.1875,-16.2501
11:02:01.451,-6,-16.0001
11:02:01.453,-7.4375,-16.2501
11:02:01.485,-7.0625,-17.3126
11:02:01.487,-7.625,-17.6876
11:02:01.489,-7.75,-18.6876
11:02:01.492,-8.0625,-20.1876
11:02:01.527,-8.75,-19.2501
11:02:01.527,-7.625,-20.0626
11:02:01.531,-8.375,-22.4376
11:02:01.536,-8.6875,-21.5001
11:02:01.552,-8.625,-23.4376
11:02:01.553,-9.3125,-23.1251
11:02:01.582,-9.125,-23.9376
11:02:01.583,-10.1875,-24.3751
11:02:01.585,-10.0625,-24.8751
11:02:01.593,-9.8125,-26.4376
11:02:01.602,-10.875,-26.1876
11:02:01.611,-10.3125,-27.4376
11:02:01.623,-10.6875,-27.1251
11:02:01.631,-11.125,-27.5001
11:02:01.641,-11.25,-27.5626
11:02:01.651,-10.625,-28.2501
11:02:01.661,-9.8125,-25.1876
11:02:01.671,-7.75,-22.7501
11:02:01.680,-5.6875,-17.8751
11:02:01.691,-3.0625,-11.4375
11:02:01.700,-0.4375,-6.3125
11:02:01.712,1.4375,-1.5
11:02:01.723,2.8125,3.375
11:02:01.731,4.125,6
11:02:01.741,5.25,8.1875
11:02:01.750,5.4375,9.625
11:02:01.761,4.875,10.4375
11:02:01.772,5,9.5
11:02:01.803,4.3125,7.5625
11:02:01.805,3.75,7.375
11:02:01.808,3,5.125
11:02:01.811,2.125,3.3125
11:02:01.823,1.4375,0.6875
11:02:01.831,0.8125,-1
11:02:01.841,-0.75,-2.375
11:02:01.852,-1.75,-4
11:02:01.861,-2.3125,-6.8125
11:02:01.873,-3.625,-7.75
11:02:01.880,-3.5,-10.25
11:02:01.890,-5.25,-11.75
11:02:01.901,-6.0625,-12.125
11:02:01.910,-5.75,-14.0626
11:02:01.922,-6.1875,-15.0626
11:02:01.931,-6.3125,-14.7501
11:02:01.941,-6.1875,-15.3126
11:02:01.950,-5.8125,-14.9376
11:02:01.962,-6.5625,-13.6876
11:02:01.971,-6,-14.5001
11:02:01.980,-5.8125,-14.1876
11:02:01.991,-5,-11.8125
11:02:02.001,-5.125,-12.125
11:02:02.011,-4.9375,-11.3125
11:02:02.020,-4.5,-11.625
11:02:02.031,-4.4375,-11.5625
11:02:02.041,-4.125,-11.0625
11:02:02.052,-4.0625,-10.1875
11:02:02.062,-4.25,-11.5625
11:02:02.070,-5.1875,-10.4375
11:02:02.081,-4.8125,-12.5
11:02:02.096,-5.0625,-12.0625
11:02:02.101,-4.6875,-13.0625
11:02:02.113,-5.5,-13.4376
11:02:02.120,-5.0625,-13.9376
11:02:02.130,-5.6875,-15.7501
11:02:02.142,-5.9375,-14.3751
11:02:02.152,-6.0625,-16.0626
11:02:02.163,-6,-16.5001
11:02:02.171,-6.75,-17.8126
11:02:02.202,-5.8125,-17.8126
11:02:02.204,-6.9375,-18.8126
11:02:02.207,-6.25,-18.9376
11:02:02.217,-7.1875,-19.6251
11:02:02.251,-7.1875,-20.0001
11:02:02.254,-7.1875,-20.6876
11:02:02.256,-7.4375,-21.2501
11:02:02.258,-7.6875,-21.5626
11:02:02.290,-8.1875,-22.3751
11:02:02.293,-9.125,-23.6251
11:02:02.295,-8.9375,-23.7501
11:02:02.323,-8.6875,-24.6876
11:02:02.325,-9.375,-24.9376
11:02:02.327,-8.9375,-24.0626
11:02:02.332,-7.6875,-21.9376
11:02:02.358,-5.6875,-19.0001
11:02:02.359,-3.1875,-14.1251
11:02:02.361,-1.0625,-7.5625
11:02:02.367,2.25,0.6875
11:02:02.375,4.1875,5.25
11:02:02.386,6.25,8.9375
11:02:02.395,7.75,12.75
11:02:02.406,8.6875,13.5001
11:02:02.427,8.9375,15.2501
11:02:02.433,9,14.5626
11:02:02.441,8.5,14.7501
11:02:02.447,7.875,13.5001
11:02:02.468,7.4375,12.125
11:02:02.472,6.9375,10.5
11:02:02.479,5.125,8.8125
11:02:02.486,4.625,8.1875
11:02:02.498,3.75,6.25
11:02:02.505,2.875,4.25
11:02:02.515,3.125,2.0625
11:02:02.525,2.0625,1.1875
11:02:02.536,1.5625,-1.3125
11:02:02.548,0.125,-1.6875
11:02:02.561,0.1875,-4.0625
11:02:02.569,0.3125,-5.6875
11:02:02.576,-0.875,-6.0625
11:02:02.591,-0.9375,-6.875
11:02:02.607,-0.8125,-7.9375
11:02:02.608,-0.8125,-7.75
11:02:02.616,-0.375,-7.5
11:02:02.627,0.0625,-7.875
11:02:02.636,0.4375,-6.5625
11:02:02.645,2.25,-6.1875
11:02:02.655,2.25,-5.4375
11:02:02.666,2.75,-4.25
11:02:02.675,3.1875,-4.5625
11:02:02.687,3.4375,-4.9375
11:02:02.696,3.625,-5.3125
11:02:02.707,4.75,-5
11:02:02.715,4.5625,-6.0625
11:02:02.725,3.875,-5.9375
11:02:02.737,3.875,-6.9375
11:02:02.746,2.375,-8.125
11:02:02.757,2.625,-11.25
11:02:02.767,1.625,-12.4375
11:02:02.777,0.8125,-11.625
11:02:02.785,1.0625,-13.7501
11:02:02.798,-0.125,-13.6251
11:02:02.805,0.1875,-15.9376
11:02:02.815,-1.0625,-15.6251
11:02:02.825,-0.8125,-17.0001
11:02:02.848,-1.75,-17.3126
11:02:02.851,-2.4375,-18.1876
11:02:02.862,-2.5,-20.6876
11:02:02.867,-3.625,-19.8751
11:02:02.890,-4.125,-21.0626
11:02:02.892,-5.125,-22.1251
11:02:02.923,-5.6875,-22.3751
11:02:02.926,-6.3125,-23.7501
11:02:02.930,-7.125,-24.3751
11:02:02.941,-7.0625,-26.2501
11:02:02.942,-8.0625,-25.0001
11:02:02.968,-8.75,-26.2501
11:02:02.971,-8.5625,-26.6251
11:02:02.973,-8.6875,-26.2501
11:02:03.001,-8.8125,-26.1876
11:02:03.002,-7.25,-24.7501
11:02:03.005,-6.375,-20.1876
11:02:03.009,-3.9375,-15.6251
11:02:03.016,-1.25,-9.375
11:02:03.028,1,-3.75
11:02:03.036,3.25,2.375
11:02:03.047,5.125,7.5
11:02:03.057,6.5625,11.0625
11:02:03.082,7.9375,14.3751
11:02:03.084,8.375,15.2501
11:02:03.087,8.25,16.6251
11:02:03.095,8.5625,16.2501
11:02:03.106,7.9375,16.6251
11:02:03.117,7.8125,15.3751
11:02:03.126,6.125,15.0001
11:02:03.137,6.25,12.375
11:02:03.146,4.8125,12.6875
11:02:03.157,4.375,9.6875
11:02:03.167,3.3125,8.5
11:02:03.176,3.125,7.1875
11:02:03.185,1.75,6.625
11:02:03.198,2.375,3.8125
11:02:03.209,0.75,2.4375
11:02:03.217,1,2.75
11:02:03.227,0.5,1.3125
11:02:03.236,-0.3125,-0.4375
11:02:03.247,-1.125,-0.1875
11:02:03.255,-1.125,-3.125
11:02:03.267,-1,-0.8125
11:02:03.275,0,-1.8125
11:02:03.287,-0.9375,-1.9375
11:02:03.302,-1,-2.0625
11:02:03.312,-1.5,-1.25
11:02:03.320,-0.8125,-1.9375
11:02:03.332,-0.6875,-2.5
11:02:03.341,-0.8125,-1.375
11:02:03.352,-0.3125,-1.3125
11:02:03.361,-0.5625,0.0625
11:02:03.372,-0.375,-0.125
11:02:03.380,-0.125,0.5
11:02:03.393,0.0625,-1.25
11:02:03.405,-0.5,-0.25
11:02:03.412,-0.5625,-1
11:02:03.422,-0.5625,-2.0625
11:02:03.432,-1.4375,-2.0625
11:02:03.442,-1.375,-3.5625
11:02:03.452,-2.375,-2.75
11:02:03.462,-2.6875,-4.875
11:02:03.472,-2.6875,-5.5625
11:02:03.482,-1.875,-5.9375
11:02:03.491,-3,-6.4375
11:02:03.502,-2.625,-7.625
11:02:03.513,-3.6875,-7.25
11:02:03.522,-2.25,-9
11:02:03.531,-3.8125,-7.875
11:02:03.541,-2.875,-9.6875
11:02:03.551,-3.875,-10.5625
11:02:03.562,-4.1875,-10.5
11:02:03.571,-4.875,-11.5
11:02:03.581,-4.25,-12.1875
11:02:03.595,-5,-12.9375
11:02:03.631,-4.1875,-12.75
11:02:03.634,-5.5,-13.5001
11:02:03.638,-5.125,-14.2501
11:02:03.638,-5.375,-15.5001
11:02:03.642,-6.0625,-14.9376
11:02:03.674,-6.375,-15.5001
11:02:03.677,-4.9375,-13.4376
11:02:03.678,-3.625,-11.8125
11:02:03.684,-1.125,-6.625
11:02:03.690,0.6875,-1.5625
11:02:03.730,3.0625,3.875
11:02:03.732,5.4375,8.875
11:02:03.734,7.9375,13.8751
11:02:03.737,9.0625,17.5626
11:02:03.770,10.9375,21.8126
11:02:03.786,11.3125,22.5626
11:02:03.800,11.5625,24.3751
11:02:03.815,11.75,25.0001
11:02:03.817,11.3125,24.6876
11:02:03.817,11.5625,25.0001
11:02:03.818,10.9375,23.7501
11:02:03.821,10.6875,23.2501
11:02:03.832,9.8125,22.3126
11:02:03.843,9.5625,21.1876
11:02:03.851,8.6875,20.3751
11:02:03.860,9.5,18.8751
11:02:03.876,8.25,17.1876
11:02:03.886,7.625,15.8751
11:02:03.892,7.25,15.6251
11:02:03.909,7,15.0626
11:02:03.924,6.25,14.1876
11:02:03.927,6.5625,12.125
11:02:03.932,5.4375,11.375
11:02:03.941,5.1875,10.375
11:02:03.951,5.4375,9.3125
11:02:03.962,4.875,8.8125
11:02:03.972,5.0625,9.1875
11:02:03.980,4.5625,9.875
11:02:03.992,5.1875,8.625
11:02:04.000,4.875,8.1875
11:02:04.012,4.75,9.25
11:02:04.022,5.9375,9.1875
11:02:04.032,5.3125,8.4375
11:02:04.042,5.0625,7.875
11:02:04.051,4.5,8.625
11:02:04.063,4.75,8.375
11:02:04.072,3.75,7.625
11:02:04.081,4,6.875
11:02:04.093,3.3125,6.5
11:02:04.102,2.75,7.1875
11:02:04.112,2.75,5.4375
11:02:04.122,1.8125,3.8125
11:02:04.133,1.625,3.375
11:02:04.143,0.9375,1.875
11:02:04.158,0.3125,1
11:02:04.160,0.375,0.125
11:02:04.173,-0.6875,-1.5
11:02:04.182,-1.25,-3
11:02:04.192,-1.1875,-2.1875
11:02:04.201,-1.5625,-3.125
11:02:04.212,-1.4375,-4.375
11:02:04.220,-2.125,-5.0625
11:02:04.232,-2.0625,-4.75
11:02:04.242,-2.1875,-6.0625
11:02:04.252,-1.8125,-6.625
11:02:04.262,-2.9375,-7.3125
11:02:04.271,-3.125,-6.6875
11:02:04.282,-3.25,-8.5
11:02:04.292,-3.75,-10.1875
11:02:04.302,-3.9375,-9.3125
11:02:04.310,-3.9375,-10.75
11:02:04.323,-4.0625,-11.5
11:02:04.332,-3.8125,-11.125
11:02:04.362,-3.625,-11.9375
11:02:04.364,-3.875,-11.6875
11:02:04.367,-3.8125,-11.1875
11:02:04.373,-3.25,-10.8125
11:02:04.407,-1.5,-7.125
11:02:04.408,-0.3125,-3.1875
11:02:04.410,2.9375,2.1875
11:02:04.417,4.625,8.625
11:02:04.428,6.9375,13.2501
11:02:04.434,9.1875,18.6876
11:02:04.465,10.3125,21.7501
11:02:04.468,11.25,23.7501
11:02:04.470,12.1875,26.3751
11:02:04.472,11.8125,25.5001
11:02:04.501,11.75,26.3126
11:02:04.503,12.0625,26.5001
11:02:04.505,11.1875,24.5001
11:02:04.536,10.1875,24.5001
11:02:04.538,9.9375,23.0626
11:02:04.542,9.375,21.1876
11:02:04.547,9,19.6876
11:02:04.553,7.125,19.0626
11:02:04.563,6.75,17.6876
11:02:04.572,6.3125,16.0001
11:02:04.584,5.8125,14.4376
11:02:04.592,5,13.6251
11:02:04.601,4.8125,12.5625
11:02:04.612,4.5,11.5625
11:02:04.622,4.0625,9.625
11:02:04.632,3.625,9.75
11:02:04.642,4.1875,8.625
11:02:04.653,3.3125,7.625
11:02:04.662,3.3125,7.3125
11:02:04.672,3.5625,8.5
11:02:04.683,3.5625,7.375
11:02:04.693,3.75,8.1875
11:02:04.702,4.1875,9.8125
11:02:04.712,5,8.875
11:02:04.721,4.9375,8.75
11:02:04.733,5.125,9.9375
11:02:04.742,5.5625,9.75
11:02:04.752,4.75,10.25
11:02:04.761,5.5625,10
11:02:04.774,5.125,8.8125
11:02:04.782,4.625,9.0625
11:02:04.791,5.0625,9.125
11:02:04.802,4.8125,7.8125
11:02:04.812,4,6.3125
11:02:04.822,3.25,6.9375
11:02:04.831,4.25,5.5
11:02:04.841,2.75,4.25
11:02:04.852,2.75,4.4375
11:02:04.862,3.0625,2.9375
11:02:04.872,2,1.5
11:02:04.881,1.125,2.6875
11:02:04.891,1.9375,0.625
11:02:04.900,0.9375,-0.8125
11:02:04.912,1.5,-0.5
11:02:04.922,0.9375,-2.0625
11:02:04.932,0.3125,-2.9375
11:02:04.942,-0.0625,-2.5
11:02:04.952,0.375,-3.9375
11:02:04.961,-0.25,-4.5625
11:02:04.972,-0.25,-3.75
11:02:04.983,-0.875,-5.125
11:02:04.991,-0.25,-5.5625
11:02:05.002,-0.8125,-6.875
11:02:05.012,-1.5,-5.6875
11:02:05.022,-1.75,-6.8125
11:02:05.032,-1.4375,-7.6875
11:02:05.042,-1.5,-8.1875
11:02:05.054,-2.5,-8.75
11:02:05.063,-2.4375,-9
11:02:05.089,-2.9375,-9.9375
11:02:05.091,-2.8125,-10.375
11:02:05.107,-2.0625,-8.625
11:02:05.109,-1.625,-8.375
11:02:05.153,-0.1875,-4.4375
11:02:05.155,2.1875,0
11:02:05.158,3.9375,3.625
11:02:05.190,6.6875,9.3125
11:02:05.191,7.0625,13.8751
11:02:05.191,9.5625,17.7501
11:02:05.192,10.25,20.8751
11:02:05.222,11.0625,23.5001
11:02:05.252,11.75,25.8751
11:02:05.271,11.4375,25.5626
11:02:05.271,10.9375,25.7501
11:02:05.273,11.375,25.6876
11:02:05.290,10.125,24.0001
11:02:05.290,9.1875,24.7501
11:02:05.292,8.1875,21.0001
11:02:05.292,7.25,19.6251
11:02:05.296,6.25,18.8126
11:02:05.309,5.75,17.0001
11:02:05.317,5.125,15.0001
11:02:05.327,4.1875,14.7501
11:02:05.337,4,12.5625
11:02:05.346,3.0625,11.0625
11:02:05.359,2.875,10.8125
11:02:05.367,2.1875,9
11:02:05.377,1.9375,7.5
11:02:05.387,1.75,7.0625
11:02:05.397,1.0625,5.4375
11:02:05.406,1.4375,6.125
11:02:05.417,1.25,6.5
11:02:05.427,1.4375,5.6875
11:02:05.438,2.375,6.375
11:02:05.447,2.5,7
11:02:05.458,2.875,9.625
11:02:05.467,3.875,8.75
11:02:05.477,2.75,8.3125
11:02:05.487,3.25,8.1875
11:02:05.497,3,8.75
11:02:05.506,2.75,8.375
11:02:05.517,3.125,7.125
11:02:05.528,2.75,5.75
11:02:05.537,2.4375,5.625
11:02:05.547,1.6875,5.9375
11:02:05.556,1.875,4.0625
11:02:05.567,1.625,4.125
11:02:05.577,1.625,3.375
11:02:05.587,1.25,1.9375
11:02:05.598,0.6875,0.625
11:02:05.607,0.6875,1.875
11:02:05.616,1.125,-0.4375
11:02:05.642,0.3125,-1.1875
11:02:05.645,0.6875,-2.4375
11:02:05.646,-0.125,-2.125
11:02:05.656,0.0625,-3.1875
11:02:05.667,-0.4375,-5.4375
11:02:05.678,-0.5,-4.5
11:02:05.688,-0.3125,-5.625
11:02:05.698,-1.25,-5.875
11:02:05.706,-1.6875,-5.6875
11:02:05.717,-2.3125,-7.75
11:02:05.727,-2.3125,-8.3125
11:02:05.737,-2.25,-8.25
11:02:05.769,-3,-8.375
11:02:05.772,-3.5,-10.5625
11:02:05.774,-3.9375,-9.5625
11:02:05.776,-3.375,-10.9375
11:02:05.816,-3.125,-11.8125
11:02:05.818,-4,-11.625
11:02:05.821,-3.5625,-12.4375
11:02:05.822,-4.1875,-12.3125
11:02:05.828,-4.375,-12.75
11:02:05.856,-4.75,-13.0625
11:02:05.858,-3.25,-11.4375
11:02:05.861,-3.0625,-8.8125
11:02:05.891,-0.25,-5.3125
11:02:05.895,1.5,0.25
11:02:05.896,4.5625,5.3125
11:02:05.901,6.3125,10.8125
11:02:05.909,9.375,16.0001
11:02:05.929,9.8125,19.8751
11:02:05.933,12.375,23.2501
11:02:05.939,12.6875,25.8751
11:02:05.947,13.6251,26.8751
11:02:05.957,13.1876,27.6251
11:02:05.967,12.8125,28.9376
11:02:05.978,12.5625,27.9376
11:02:05.987,12,26.1251
11:02:05.997,11.625,24.6876
11:02:06.007,10.3125,24.6251
11:02:06.017,9.875,22.5626
11:02:06.026,9.625,21.5001
11:02:06.037,9.25,20.2501
11:02:06.047,8.4375,19.3751
11:02:06.057,7.9375,17.4376
11:02:06.070,6.9375,17.6876
11:02:06.080,6.8125,16.0001
11:02:06.088,6.0625,14.5001
11:02:06.097,5.75,13.2501
11:02:06.109,4.875,12.9375
11:02:06.117,4.875,10.0625
11:02:06.127,4,9.625
11:02:06.138,3.625,9.75
11:02:06.146,3.9375,10.375
11:02:06.157,4.125,9.25
11:02:06.167,3.8125,9.0625
11:02:06.177,3.5625,8.9375
11:02:06.186,3.5625,10
11:02:06.196,4.75,9.6875
11:02:06.207,4.25,9.375
11:02:06.217,4.6875,11.1875
11:02:06.227,4.6875,10.25
11:02:06.237,3.9375,9.75
11:02:06.253,4.0625,11.5
11:02:06.261,4.75,8.8125
11:02:06.272,3.875,8.875
11:02:06.283,3.375,8.5625
11:02:06.292,3.1875,8.625
11:02:06.302,3.375,7.0625
11:02:06.314,3.25,5.9375
11:02:06.322,2.375,4.5
11:02:06.332,1.875,4.625
11:02:06.344,1.3125,3.75
11:02:06.352,2.3125,2
11:02:06.362,0.9375,0.5
11:02:06.372,0.75,-0.6875
11:02:06.382,0.625,-0.6875
11:02:06.391,-0.3125,-0.1875
11:02:06.404,0.1875,-2.875
11:02:06.419,-1.3125,-4.4375
11:02:06.425,-1.4375,-4.1875
11:02:06.434,-1.5625,-4.8125
11:02:06.450,-1.875,-6.5
11:02:06.465,-2.3125,-5.875
11:02:06.465,-1.8125,-7.25
11:02:06.474,-2.1875,-8.375
11:02:06.482,-3.375,-8.25
11:02:06.494,-3,-8.9375
11:02:06.502,-3.5,-10.125
11:02:06.511,-3.625,-9
11:02:06.523,-3.25,-10.25
11:02:06.562,-3.4375,-11.3125
11:02:06.625,-4.3125,-11.125
11:02:06.638,-4.3125,-12.3125
11:02:06.669,-4.5,-13.3126
11:02:06.672,-5.125,-12.125
11:02:06.672,-5.5625,-14.1251
11:02:06.702,-5.375,-13.7501
11:02:06.703,-5.1875,-15.2501
11:02:06.715,-5.25,-15.6251
11:02:06.715,-5.5,-15.3126
11:02:06.715,-4.625,-14.7501
11:02:06.715,-4.1875,-12.125
11:02:06.723,-1.9375,-10.1875
11:02:06.731,0,-5.4375
11:02:06.743,2.0625,0.625
11:02:06.752,4.75,4.5625
11:02:06.762,6.25,11.875
11:02:06.774,8.8125,14.8126
11:02:06.781,9.875,20.3126
11:02:06.792,11.3125,22.5626
11:02:06.802,12.25,24.3126
11:02:06.812,11.125,24.2501
11:02:06.822,9.8125,22.2501
11:02:06.833,8.8125,20.5626
11:02:06.842,7.5625,18.7501
11:02:06.852,6.9375,19.1876
11:02:06.864,6.375,16.6251
11:02:06.872,5.4375,14.1251
11:02:06.882,4.8125,12.8125
11:02:06.894,3.625,10.6875
11:02:06.925,2.9375,10.625
11:02:06.928,2.75,8
11:02:06.928,2,6.5625
11:02:06.931,1.5625,7.875
11:02:06.945,1.6875,6.875
11:02:06.952,1.375,5.875
11:02:06.961,1.625,5.625
11:02:06.974,2.25,7.125
11:02:06.982,1.9375,6.0625
11:02:06.992,2.125,6.375
11:02:07.004,1.4375,7.6875
11:02:07.012,2.75,6.875
11:02:07.022,2.6875,6.8125
11:02:07.035,2.1875,7.125
11:02:07.043,1.625,7.375
11:02:07.052,2.0625,6.6875
11:02:07.064,2,5.25
11:02:07.073,2.25,5.5625
11:02:07.082,3.1875,4.8125
11:02:07.094,1.6875,3.625
11:02:07.102,1.1875,2.8125
11:02:07.112,1,1.8125
11:02:07.122,0.3125,0.0625
11:02:07.131,0.125,-0.8125
11:02:07.142,-0.4375,-1.6875
11:02:07.151,-1.5,-3.5
11:02:07.162,-1.375,-4.75
11:02:07.172,-1.5,-5.9375
11:02:07.182,-2.4375,-5.25
11:02:07.219,-2.125,-6.625
11:02:07.219,-2.5625,-8.25
11:02:07.222,-3.375,-10.125
11:02:07.224,-4.3125,-9.625
11:02:07.258,-4.375,-10.5625
11:02:07.260,-5.0625,-12.3125
11:02:07.262,-5.625,-13.1876
11:02:07.268,-5.75,-12.25
11:02:07.273,-6.25,-14.0001
11:02:07.307,-5.375,-14.0626
11:02:07.309,-6.4375,-14.7501
11:02:07.311,-6.5,-15.3126
11:02:07.314,-7.125,-16.6251
11:02:07.345,-8,-15.9376
11:02:07.349,-8.125,-17.5001
11:02:07.351,-8.8125,-17.4376
11:02:07.353,-8.75,-18.3751
11:02:07.382,-8.875,-17.8126
11:02:07.384,-8.5625,-18.6251
11:02:07.386,-9.6875,-18.1251
11:02:07.392,-11,-19.8751
11:02:07.401,-13.3751,-20.3126
11:02:07.411,-16.0001,-22.7501
11:02:07.422,-16.9376,-23.5001
11:02:07.432,-17.5626,-23.5001
11:02:07.442,-18.8126,-21.8751
11:02:07.454,-19.1876,-21.5001
11:02:07.462,-21.1251,-19.5626
11:02:07.472,-22.5001,-16.6251
11:02:07.482,-24.1251,-12.4375
11:02:07.492,-25.5001,-9.0625
11:02:07.502,-26.0626,-4.5625
11:02:07.512,-25.8126,0.5
11:02:07.522,-26.0626,4
11:02:07.532,-27.1876,6.875
11:02:07.542,-27.7501,8.75
11:02:07.552,-28.5626,10.25
11:02:07.562,-28.8751,11.625
11:02:07.573,-29.0001,13.3126
11:02:07.582,-31.0626,12
11:02:07.593,-33.6876,12.875
11:02:07.602,-36.5001,12.3125
11:02:07.612,-39.5002,10.5625
11:02:07.623,-39.5627,10.8125
11:02:07.632,-39.6252,11.5625
11:02:07.641,-39.3127,11.1875
11:02:07.652,-39.1251,12.5625
11:02:07.662,-38.6876,12.5625
11:02:07.672,-37.9376,14.0001
11:02:07.681,-39.3127,11
11:02:07.691,-39.2501,10.8125
11:02:07.702,-39.0001,10.25
11:02:07.712,-39.0002,9.25
11:02:07.721,-39.8127,8.8125
11:02:07.733,-39.1251,8.8125
11:02:07.750,-38.3126,8.75
11:02:07.754,-38.1251,8.6875
11:02:07.766,-37.7501,9.9375
11:02:07.771,-36.8126,9.5625
11:02:07.786,-36.0626,8.8125
11:02:07.796,-35.7501,10.8125
11:02:07.801,-33.8751,10.9375
11:02:07.812,-33.5001,11.125
11:02:07.822,-33.8126,12.8125
11:02:07.833,-32.4376,11.625
11:02:07.842,-32.0001,11.75
11:02:07.852,-31.7501,11.9375
11:02:07.863,-31.5001,11.125
11:02:07.872,-31.2501,10.25
11:02:07.882,-31.8126,9.5625
11:02:07.891,-32.9376,8.4375
11:02:07.902,-33.4376,7.6875
11:02:07.912,-33.4376,5.5
11:02:07.922,-34.0001,3.125
11:02:07.931,-33.8126,3
11:02:07.965,-33.8751,1.25
11:02:07.968,-33.3126,0.75
11:02:08.062,-33.6251,0.3125
11:02:08.064,-33.2501,-1.9375
11:02:08.064,-33.8126,-4
11:02:08.072,-33.9376,-3.8125
11:02:08.072,-35.0001,-6.4375
11:02:08.072,-36.1876,-8
11:02:08.078,-37.2501,-11.1875
11:02:08.112,-39.0626,-14.1876
11:02:08.115,-41.3752,-16.2501
11:02:08.117,-42.0002,-18.0001
11:02:08.119,-43.1877,-20.6876
11:02:08.138,-43.3752,-22.0626
11:02:08.139,-43.0627,-22.6251
11:02:08.147,-44.0627,-23.3126
11:02:08.156,-43.0002,-24.3126
11:02:08.168,-43.2502,-25.9376
11:02:08.177,-43.7502,-25.6876
11:02:08.202,-44.0002,-27.2501
11:02:08.204,-44.2502,-28.9376
11:02:08.208,-43.8127,-28.1876
11:02:08.217,-43.3752,-28.3126
11:02:08.228,-43.3127,-29.7501
11:02:08.237,-39.1877,-22.0001
11:02:08.247,-36.0001,-14.8751
11:02:08.257,-33.1251,-8.625
11:02:08.267,-29.1251,-2
11:02:08.277,-23.6251,5.0625
11:02:08.287,-19.5001,11.125
11:02:08.297,-15.3751,16.5001
11:02:08.307,-12.5,20.5626
11:02:08.323,-10.4375,23.8126
11:02:08.327,-8.6875,25.4376
11:02:08.337,-7.375,27.0001
11:02:08.347,-6.75,28.4376
11:02:08.357,-6.4375,26.8751
11:02:08.367,-5.3125,27.7501
11:02:08.377,-4.625,26.3126
11:02:08.387,-4.4375,25.5001
11:02:08.397,-4.3125,23.9376
11:02:08.408,-6.125,22.4376
11:02:08.417,-7.3125,20.1876
11:02:08.427,-8.375,18.2501
11:02:08.440,-8.9375,16.4376
11:02:08.447,-12.0625,12.1875
11:02:08.457,-15.9376,9.5
11:02:08.467,-20.0001,4.4375
11:02:08.477,-22.7501,-0.125
11:02:08.489,-24.8126,-2.5
11:02:08.497,-26.7501,-5.8125
11:02:08.507,-27.3751,-7.875
11:02:08.517,-28.7501,-10.0625
11:02:08.527,-30.6876,-11.6875
11:02:08.537,-30.8126,-13
11:02:08.547,-31.4376,-14.2501
11:02:08.557,-32.0001,-13.8751
11:02:08.569,-32.3751,-14.8751
11:02:08.580,-31.6876,-16.5626
11:02:08.587,-32.5626,-16.1251
11:02:08.597,-32.4376,-16.5001
11:02:08.607,-33.1876,-16.6876
11:02:08.617,-34.1251,-17.1251
11:02:08.627,-33.0001,-17.5001
11:02:08.637,-32.4376,-16.7501
11:02:08.649,-30.4376,-14.5001
11:02:08.657,-28.5001,-14.8126
11:02:08.667,-25.9376,-12.1875
11:02:08.699,-25.0001,-11.5625
11:02:08.702,-23.5626,-10.3125
11:02:08.704,-23.2501,-11.1875
11:02:08.707,-22.4376,-10.625
11:02:08.742,-22.3751,-11.9375
11:02:08.745,-21.5001,-12.4375
11:02:08.747,-22.1251,-14.2501
11:02:08.749,-23.8126,-15.9376
11:02:08.782,-27.3751,-19.2501
11:02:08.784,-30.2501,-21.5626
11:02:08.787,-31.8751,-24.3751
11:02:08.814,-31.4376,-24.2501
11:02:08.815,-31.0626,-25.6876
11:02:08.819,-30.1876,-27.5001
11:02:08.823,-30.9376,-30.6876
11:02:08.828,-31.0001,-32.6251
11:02:08.858,-31.3126,-34.4376
11:02:08.860,-31.4376,-35.7501
11:02:08.862,-31.2501,-36.6251
11:02:08.868,-33.1251,-38.8751
11:02:08.878,-33.7501,-41.5002
11:02:08.888,-36.7501,-43.3127
11:02:08.897,-37.7501,-43.3752
11:02:08.907,-38.0001,-42.5627
11:02:08.917,-35.8751,-40.3127
11:02:08.929,-33.2501,-36.2501
11:02:08.937,-29.0626,-32.2501
11:02:08.946,-23.5001,-26.6876
11:02:08.957,-18.9376,-21.0001
11:02:08.967,-14.3126,-17.0001
11:02:08.977,-11.25,-13.4376
11:02:08.986,-8.5625,-9.3125
11:02:08.998,-6,-6.375
11:02:09.007,-4.75,-1.5
11:02:09.017,-1.625,4.6875
11:02:09.027,0.75,10.9375
11:02:09.037,3.625,16.5001
11:02:09.047,6.375,20.8126
11:02:09.057,7.125,25.0626
11:02:09.073,7.6875,27.1876
11:02:09.089,7.1875,27.1251
11:02:09.090,4.6875,26.6876
11:02:09.105,2.625,24.3126
11:02:09.121,1.25,23.1876
11:02:09.123,0.8125,22.6251
11:02:09.129,-1.1875,21.5626
11:02:09.137,-4.75,18.6876
11:02:09.147,-9.875,12.9375
11:02:09.157,-12.0625,7.5625
11:02:09.167,-14.7501,2.25
11:02:09.179,-15.6251,-2.25
11:02:09.187,-18.1251,-5.1875
11:02:09.196,-19.3126,-8.25
11:02:09.207,-19.1876,-12.1875
11:02:09.216,-20.5001,-15.0626
11:02:09.227,-22.3126,-17.1251
11:02:09.237,-24.1251,-18.3126
11:02:09.254,-25.5626,-21.4376
11:02:09.258,-27.8126,-23.2501
11:02:09.267,-28.4376,-22.8751
11:02:09.278,-26.6876,-20.8126
11:02:09.286,-23.6251,-17.0626
11:02:09.308,-19.4376,-12
11:02:09.311,-14.8126,-7.1875
11:02:09.319,-9.625,-2.5
11:02:09.327,-4.9375,3.1875
11:02:09.343,-0.25,8
11:02:09.358,2.1875,10.5
11:02:09.362,2.125,11.1875
11:02:09.367,1.125,10.3125
11:02:09.378,-0.6875,8.6875
11:02:09.387,-3.0625,7.8125
11:02:09.397,-5.375,5.875
11:02:09.408,-8.75,-0.1875
11:02:09.417,-14.7501,-4.125
11:02:09.427,-18.3126,-10.875
11:02:09.436,-20.5001,-14.0001
11:02:09.447,-20.2501,-15.4376
11:02:09.458,-18.9376,-17.8751
11:02:09.481,-18.1876,-19.1876
11:02:09.484,-18.8126,-22.0001
11:02:09.487,-20.6251,-24.7501
11:02:09.522,-21.7501,-26.0001
11:02:09.524,-24.8751,-29.1251
11:02:09.527,-27.4376,-30.9376
11:02:09.529,-28.9376,-30.3751
11:02:09.559,-28.3126,-30.5626
11:02:09.562,-28.0626,-29.4376
11:02:09.564,-26.7501,-26.3126
11:02:09.570,-23.1876,-24.6876
11:02:09.585,-20.0001,-20.1251
11:02:09.588,-16.4376,-17.8126
11:02:09.624,-13.8126,-13.6876
11:02:09.627,-10.6875,-12.1875
11:02:09.628,-9.3125,-10.0625
11:02:09.633,-7.875,-8.9375
11:02:09.658,-7.25,-9.3125
11:02:09.660,-7.625,-9.25
11:02:09.663,-8.0625,-12.125
11:02:09.668,-11.9375,-15.1876
11:02:09.677,-17.0626,-22.0001
11:02:09.687,-21.9376,-26.1251
11:02:09.698,-24.3751,-29.8751
11:02:09.707,-26.0626,-32.3751
11:02:09.717,-25.3751,-32.4376
11:02:09.726,-23.9376,-31.5626
11:02:09.736,-20.6251,-28.5626
11:02:09.747,-16.9376,-26.0001
11:02:09.756,-13.9376,-22.1251
11:02:09.767,-11.375,-19.4376
11:02:09.777,-10.1875,-16.5001
11:02:09.787,-9.375,-12.375
11:02:09.798,-10.0625,-11.1875
11:02:09.807,-11.375,-8.3125
11:02:09.818,-13.6876,-8.0625
11:02:09.827,-16.1251,-6.625
11:02:09.836,-18.5001,-4.4375
11:02:09.847,-18.0001,-3.125
11:02:09.857,-16.0626,2.1875
11:02:09.867,-11.4375,7
11:02:09.877,-6.625,12.9375
11:02:09.887,-1.125,16.9376
11:02:09.897,2.6875,22.0001
11:02:09.907,5.9375,23.3126
11:02:09.917,7.1875,25.7501
11:02:09.926,7.875,25.5001
11:02:09.936,7.8125,26.3126
11:02:09.946,8.125,24.7501
11:02:09.956,6.75,23.9376
11:02:09.968,6.875,20.4376
11:02:09.977,5.8125,18.6876
11:02:09.987,4.875,15.8751
11:02:09.997,1.8125,14.6876
11:02:10.007,-2.75,9.125
11:02:10.017,-9.625,4.875
11:02:10.034,-12.375,2.5
11:02:10.038,-13.5001,-0.375
11:02:10.047,-13.1876,-0.9375
11:02:10.057,-12.5625,-3
11:02:10.066,-12.4375,-5.5
11:02:10.077,-15.0001,-6.8125
11:02:10.087,-16.5626,-7.125
11:02:10.097,-17.5001,-4.9375
11:02:10.107,-14.8751,-3.625
11:02:10.117,-11.75,-0.0625
11:02:10.148,-7.4375,5.75
11:02:10.151,-2.3125,11.25
11:02:10.153,2.1875,15.0001
11:02:10.157,5.0625,18.6251
11:02:10.191,6.3125,20.6876
11:02:10.194,8.875,22.1876
11:02:10.196,9.0625,21.6876
11:02:10.198,8.875,20.6251
11:02:10.232,8.625,18.7501
11:02:10.234,6.625,18.2501
11:02:10.236,5.4375,14.9376
11:02:10.261,3.625,13.0625
11:02:10.265,2.1875,12.6875
11:02:10.266,-0.9375,9.1875
11:02:10.272,-3.25,7.375
11:02:10.278,-6.25,3.5625
11:02:10.304,-8.6875,0.4375
11:02:10.307,-11.5,-3.8125
11:02:10.310,-13.2501,-6.9375
11:02:10.317,-14.8751,-10
11:02:10.329,-16.2501,-12.875
11:02:10.337,-17.5001,-13.5001
11:02:10.347,-17.5001,-15.1876
11:02:10.357,-18.8751,-16.6876
11:02:10.367,-19.7501,-17.2501
11:02:10.389,-19.1876,-17.0626
11:02:10.395,-18.4376,-16.0001
11:02:10.411,-17.1876,-16.0001
11:02:10.413,-16.5001,-14.7501
11:02:10.422,-15.0626,-12.4375
11:02:10.432,-13,-10.8125
11:02:10.442,-10.3125,-7.375
11:02:10.452,-7.8125,-2.125
11:02:10.463,-5.3125,3
11:02:10.472,-2.875,9.125
11:02:10.482,-0.3125,13.8126
11:02:10.492,0.9375,18.8126
11:02:10.502,2.375,22.0001
11:02:10.514,4.0625,25.8126
11:02:10.522,5.375,28.3126
11:02:10.532,5,27.0626
11:02:10.542,3.5625,27.3126
11:02:10.553,2.3125,24.8126
11:02:10.563,0.8125,25.0626
11:02:10.571,-0.625,22.8126
11:02:10.583,-1.9375,21.7501
11:02:10.591,-2.75,21.3751
11:02:10.601,-1.9375,20.0626
11:02:10.612,-2.75,20.0001
11:02:10.628,-2.875,18.2501
11:02:10.643,-3.6875,14.4376
11:02:10.645,-5.1875,12.4375
11:02:10.651,-5.4375,11.125
11:02:10.662,-6.875,8.875
11:02:10.672,-7.375,6.0625
11:02:10.682,-8.5,4.5
11:02:10.692,-10.6875,3.375
11:02:10.703,-11.0625,2.375
11:02:10.712,-10.875,2
11:02:10.722,-10.6875,0.8125
11:02:10.732,-9.9375,2.1875
11:02:10.762,-7.6875,4.125
11:02:10.764,-6.625,5.375
11:02:10.767,-6.3125,8.125
11:02:10.772,-4.625,8.25
11:02:10.788,-3.6875,9.5
11:02:10.792,-1.875,12.4375
11:02:10.802,1,14.4376
11:02:10.812,2.375,15.1876
11:02:10.822,1.875,16.5001
11:02:10.833,1.5,14.6876
11:02:10.842,-1.125,15.1876
11:02:10.852,-2.375,13.5001
11:02:10.862,-3.125,12.875
11:02:10.874,-3.875,11.5
11:02:10.882,-4.1875,11
11:02:10.892,-3.8125,8.375
11:02:10.928,-5.25,6.5
11:02:10.930,-5.0625,5.3125
11:02:10.933,-5.5,1.8125
11:02:10.935,-7,-0.75
11:02:10.942,-8.9375,-2
11:02:10.973,-9.3125,-4.375
11:02:10.975,-10.0625,-7.375
11:02:10.978,-11.375,-7.875
11:02:11.005,-11.3125,-9.25
11:02:11.006,-12.8125,-9.9375
11:02:11.008,-13.7501,-11.9375
11:02:11.013,-13.4376,-11.0625
11:02:11.053,-12.375,-11
11:02:11.056,-12.6875,-10.625
11:02:11.058,-12,-10.6875
11:02:11.079,-11.1875,-10.375
11:02:11.079,-10.8125,-8
11:02:11.079,-9.875,-9.25
11:02:11.083,-8.5625,-8.6875
11:02:11.092,-9.5,-9.1875
11:02:11.102,-8.5625,-7.25
11:02:11.112,-8.25,-5.25
11:02:11.122,-7,-0.3125
11:02:11.132,-4.625,3.4375
11:02:11.142,-2.375,9
11:02:11.152,0.3125,14.1251
11:02:11.167,1.6875,20.8751
11:02:11.173,3.9375,25.3751
11:02:11.181,4,28.1876
11:02:11.192,4.1875,32.5001
11:02:11.202,4.3125,33.4376
11:02:11.211,5.3125,35.6876
11:02:11.224,6.75,37.8126
11:02:11.231,8,38.0626
11:02:11.242,8.8125,40.5627
11:02:11.252,10.5,40.3752
11:02:11.262,11.875,42.4377
11:02:11.271,12.375,42.4377
11:02:11.282,12.5,43.3127
11:02:11.293,13.3751,43.1252
11:02:11.302,13.6251,43.0002
11:02:11.312,14.4376,43.8752
11:02:11.321,16.7501,44.0002
11:02:11.331,16.0626,42.3127
11:02:11.342,15.3126,40.3752
11:02:11.352,14.5626,40.1877
11:02:11.363,12.0625,37.1251
11:02:11.372,10.6875,35.2501
11:02:11.382,11.0625,36.1251
11:02:11.392,11.625,36.2501
11:02:11.402,10.6875,35.2501
11:02:11.412,9.3125,34.8751
11:02:11.422,7.4375,33.6876
11:02:11.432,6.3125,33.3751
11:02:11.442,7.125,33.5001
11:02:11.451,8.25,34.8126
11:02:11.462,8.5625,34.1876
11:02:11.472,9,35.1876
11:02:11.482,8.625,34.5001
11:02:11.492,8.625,33.5626
11:02:11.503,8.5625,33.3751
11:02:11.511,9.3125,35.9376
11:02:11.522,11.125,36.0626
11:02:11.532,11.75,36.9376
11:02:11.542,13.3126,39.0002
11:02:11.552,14.6876,40.1877
11:02:11.562,16.5001,41.0002
11:02:11.572,17.8751,42.1252
11:02:11.582,19.1251,42.4377
11:02:11.591,20.3126,42.3752
11:02:11.602,22.8126,43.1877
11:02:11.611,25.1876,46.0002
11:02:11.621,27.4376,46.3127
11:02:11.632,25.9376,44.1877
11:02:11.644,23.1876,40.9377
11:02:11.673,19.0001,38.1876
11:02:11.677,14.7501,34.0001
11:02:11.711,11.125,30.5001
11:02:11.714,9,27.1251
11:02:11.714,7.5,23.5626
11:02:11.721,4.5625,19.6251
11:02:11.721,1.6875,16.9376
11:02:11.733,1.0625,14.1876
11:02:11.734,-2.25,10.3125
11:02:11.771,-3.9375,8.375
11:02:11.774,-3.75,6.5
11:02:11.777,-5.5,3.5625
11:02:11.780,-5.1875,4.375
11:02:11.784,-4.75,4.25
11:02:11.798,-4.625,5.625
11:02:11.802,-3.4375,10.9375
11:02:11.826,-1.4375,14.3751
11:02:11.829,1.625,19.3126
11:02:11.833,4.625,27.0626
11:02:11.842,8.75,33.1251
11:02:11.852,12.125,39.1251
11:02:11.862,14.0626,43.6252
11:02:11.871,16.1876,48.1877
11:02:11.882,17.3751,50.6877
11:02:11.892,18.3751,54.1877
11:02:11.902,19.4376,56.3127
11:02:11.924,20.4376,57.1252
11:02:11.925,20.7501,57.1252
11:02:11.941,20.0626,57.7502
11:02:11.945,20.2501,56.3127
11:02:11.952,19.6251,56.0627
11:02:11.962,18.8751,55.6877
