timestamp,Red,IR
11:24:10.569,-34.5626,-115.7504
11:24:10.571,-34.4689,-118.7505
11:24:10.579,-35.1564,-120.813
11:24:10.589,-35.7501,-121.6255
11:24:10.599,-35.5626,-123.5005
11:24:10.609,-35.9376,-126.188
11:24:10.619,-36.4376,-127.0005
11:24:10.630,-36.2814,-128.0005
11:24:10.640,-36.0939,-127.438
11:24:10.649,-34.5939,-124.688
11:24:10.659,-32.4689,-118.563
11:24:10.672,-29.3751,-108.0629
11:24:10.679,-26.1876,-94.4379
11:24:10.689,-22.2813,-82.1878
11:24:10.698,-18.5001,-68.6878
11:24:10.711,-16.0938,-56.3752
11:24:10.747,-12.6875,-45.6877
11:24:10.750,-9.8438,-34.6876
11:24:10.753,-8.375,-25.5626
11:24:10.755,-6.3438,-19.5001
11:24:10.760,-4.0625,-13.3751
11:24:10.769,-3.3438,-9.125
11:24:10.824,-2.1563,-5.1875
11:24:10.825,-0.6875,-0.625
11:24:10.830,-0.0625,2.1875
11:24:10.833,0.5938,4.0625
11:24:10.834,1.9063,6.125
11:24:10.837,1.9063,8.625
11:24:10.840,2.7188,9.8125
11:24:10.877,4.0313,12.125
11:24:10.879,3.5625,14.3751
11:24:10.884,4.3438,13.1251
11:24:10.885,4.2813,14.5626
11:24:10.890,4.3438,13.0625
11:24:10.899,5,11.4375
11:24:10.909,3.6563,10
11:24:10.920,4.8438,7.625
11:24:10.929,3.625,5.375
11:24:10.939,3.2188,3.375
11:24:10.949,3.2188,0.875
11:24:10.959,3.0313,-1.3125
11:24:10.990,3.0313,-2.8125
11:24:10.996,2.4375,-2.875
11:24:11.001,1.9375,-3.0625
11:24:11.001,2.1875,-2.4375
11:24:11.017,2.2813,-3.4375
11:24:11.019,2.3125,-4.4375
11:24:11.034,1.2813,-4.4375
11:24:11.039,2.0313,-4.5
11:24:11.049,1.75,-5.75
11:24:11.062,1.2188,-6.625
11:24:11.070,1.75,-7.75
11:24:11.081,1.4688,-9.125
11:24:11.089,0.4688,-11
11:24:11.099,-0.0625,-11.875
11:24:11.109,0.6875,-13.7501
11:24:11.119,0.3125,-16.1876
11:24:11.129,-1.1875,-18.1251
11:24:11.140,-0.7813,-18.4376
11:24:11.149,-0.5313,-20.5001
11:24:11.159,-0.9063,-22.9376
11:24:11.169,-2.0938,-25.6876
11:24:11.179,-2.4375,-26.7501
11:24:11.189,-2.2188,-28.4376
11:24:11.199,-3.0938,-30.8751
11:24:11.210,-4.25,-32.0626
11:24:11.224,-4.4063,-34.5001
11:24:11.231,-4.7188,-36.4376
11:24:11.240,-5.7813,-38.0001
11:24:11.249,-5.5,-39.8752
11:24:11.260,-6.3438,-41.1252
11:24:11.270,-6.9063,-42.8127
11:24:11.281,-6.75,-44.5627
11:24:11.290,-7.6563,-43.8752
11:24:11.299,-6.9375,-46.2502
11:24:11.309,-8.5313,-46.8127
11:24:11.320,-7.625,-48.9377
11:24:11.329,-8.25,-49.9377
11:24:11.339,-9,-50.7502
11:24:11.349,-8.4063,-52.5627
11:24:11.359,-9.5625,-53.8752
11:24:11.369,-9.2188,-55.5627
11:24:11.379,-10.125,-57.8127
11:24:11.390,-10.4688,-58.3752
11:24:11.426,-10.5938,-59.5627
11:24:11.430,-11.0938,-61.5627
11:24:11.431,-10.5313,-63.0627
11:24:11.434,-10.7813,-62.6877
11:24:11.440,-9.4375,-59.6877
11:24:11.449,-7.75,-55.2502
11:24:11.481,-5.625,-47.6252
11:24:11.483,-2.125,-37.5626
11:24:11.485,1.0313,-26.8126
11:24:11.490,3.75,-14.5626
11:24:11.521,6.8438,-3.75
11:24:11.526,9.6875,6.25
11:24:11.528,11.875,15.7501
11:24:11.533,14.5626,24.3751
11:24:11.548,16.1251,32.0001
11:24:11.550,18.5313,38.4376
11:24:11.570,19.7501,43.3752
11:24:11.573,21.5938,47.8752
11:24:11.579,21.6251,51.8752
11:24:11.589,22.8438,55.1877
11:24:11.599,24.5938,57.3752
11:24:11.609,25.3126,60.8127
11:24:11.620,26.4689,62.6877
11:24:11.630,26.5001,65.0627
11:24:11.639,27.1564,66.6253
11:24:11.650,27.8751,67.9378
11:24:11.659,28.3126,68.8753
11:24:11.669,29.3751,68.8753
11:24:11.679,29.5001,68.6878
11:24:11.690,29.0001,68.1253
11:24:11.719,28.9376,65.4377
11:24:11.721,28.0939,61.2502
11:24:11.726,27.4376,59.1252
11:24:11.730,26.6564,55.6877
11:24:11.739,25.6563,53.0627
11:24:11.750,24.7813,51.8752
11:24:11.759,25.3126,49.2502
11:24:11.769,24.6251,47.7502
11:24:11.780,24.5938,48.4377
11:24:11.789,25.8126,46.9377
11:24:11.799,25.1563,46.1877
11:24:11.809,24.8438,45.8127
11:24:11.819,24.9376,45.1252
11:24:11.831,24.5313,43.2502
11:24:11.839,24.0626,42.0627
11:24:11.849,24.6563,40.6877
11:24:11.860,24.2188,38.0626
11:24:11.869,23.4376,36.0626
11:24:11.879,22.2188,34.3751
11:24:11.889,21.8126,31.3751
11:24:11.899,20.8126,28.5001
11:24:11.909,19.7188,25.3751
11:24:11.919,19.0938,23.0626
11:24:11.930,18.8438,19.6251
11:24:11.947,17.4376,17.5626
11:24:11.952,17.4376,16.1876
11:24:11.959,17.6563,12.4375
11:24:11.969,16.9063,10.125
11:24:11.979,16.3126,8.75
11:24:11.990,16.1251,5.9375
11:24:11.999,14.7813,3.125
11:24:12.009,14.3438,0.625
11:24:12.020,13.6251,-1.375
11:24:12.029,12.5313,-4.4375
11:24:12.039,11.875,-7.375
11:24:12.050,10.1563,-8.75
11:24:12.059,10.6563,-11.125
11:24:12.069,9.625,-14.6876
11:24:12.079,9.3125,-15.2501
11:24:12.090,9.2188,-17.3126
11:24:12.099,8.4063,-18.6876
11:24:12.109,8.4375,-19.6876
11:24:12.119,8.4375,-22.0001
11:24:12.129,7.0625,-22.9376
11:24:12.142,7,-24.9376
11:24:12.170,6.6563,-28.1876
11:24:12.172,5.75,-29.9376
11:24:12.174,4.75,-31.4376
11:24:12.179,3.8125,-34.6251
11:24:12.212,3.1875,-37.6251
11:24:12.214,3.0625,-37.8751
11:24:12.216,2.375,-40.5002
11:24:12.220,1.6875,-42.0002
11:24:12.249,1.9063,-42.1252
11:24:12.251,2.2188,-38.5001
11:24:12.253,4.875,-33.5626
11:24:12.335,7.875,-23.5001
11:24:12.336,10.5313,-12.0625
11:24:12.350,14.0938,0
11:24:12.353,16.5626,12.8125
11:24:12.353,20.1876,24.6876
11:24:12.353,22.4376,35.8126
11:24:12.362,24.8126,46.0002
11:24:12.369,26.9064,54.5002
11:24:12.379,30.0939,63.1252
11:24:12.390,31.3126,71.0003
11:24:12.400,33.1564,76.3753
11:24:12.409,34.9689,81.6878
11:24:12.419,35.9689,87.8128
11:24:12.429,38.0314,93.1254
11:24:12.439,39.1564,97.2504
11:24:12.449,40.6252,101.7504
11:24:12.460,41.8752,105.9379
11:24:12.469,42.6252,110.0004
11:24:12.481,44.8127,114.5629
11:24:12.489,45.3127,117.3755
11:24:12.500,46.7189,118.438
11:24:12.509,46.6564,119.313
11:24:12.519,47.0314,117.8129
11:24:12.529,45.2814,114.0004
11:24:12.539,44.4064,109.4379
11:24:12.549,43.1877,106.6254
11:24:12.559,43.0002,101.5629
11:24:12.569,41.4064,98.5629
11:24:12.580,40.4377,96.1254
11:24:12.590,39.5939,93.4379
11:24:12.599,39.7502,91.6879
11:24:12.609,39.0314,89.0003
11:24:12.619,38.2189,88.2503
11:24:12.629,37.7501,85.3753
11:24:12.639,36.8126,84.3128
11:24:12.650,36.7814,81.2503
11:24:12.660,35.5001,79.4378
11:24:12.669,34.3439,75.9378
11:24:12.680,32.8439,72.2503
11:24:12.690,31.6251,69.0628
11:24:12.699,30.5314,65.8128
11:24:12.709,30.4064,62.1877
11:24:12.721,28.7189,59.1252
11:24:12.731,27.0939,54.9377
11:24:12.739,26.2188,51.3127
11:24:12.749,25.3438,48.3752
11:24:12.760,24.6563,44.6877
11:24:12.769,22.8751,40.7502
11:24:12.779,21.6563,36.5626
11:24:12.789,20.9688,33.9376
11:24:12.799,19.8751,30.2501
11:24:12.810,18.6876,26.6251
11:24:12.819,17.3438,23.4376
11:24:12.830,16.0626,20.4376
11:24:12.840,14.9063,16.5001
11:24:12.849,14.0626,13.9376
11:24:12.859,13.3126,10.4375
11:24:12.903,12.25,7.0625
11:24:12.903,11.0938,4.5
11:24:12.905,10.5313,2.125
11:24:12.914,9.875,-0.0625
11:24:12.914,9.5938,-2.25
11:24:12.924,8.5,-4.4375
11:24:12.929,7.6875,-6.75
11:24:12.968,6.875,-9.75
11:24:12.969,6.5,-11.625
11:24:12.973,5.625,-14.9376
11:24:12.998,4,-16.2501
11:24:13.001,3.3438,-20.0001
11:24:13.002,2.0625,-21.3126
11:24:13.004,1.625,-25.3126
11:24:13.010,0.3438,-27.6876
11:24:13.042,-0.0625,-29.9376
11:24:13.044,-0.2188,-32.0626
11:24:13.047,-0.9688,-33.6251
11:24:13.050,-0.8125,-33.2501
11:24:13.061,-0.125,-30.0001
11:24:13.070,2.2188,-23.4376
11:24:13.081,4.3125,-13.125
11:24:13.096,7.4063,-2.4375
11:24:13.100,11.0313,10.5625
11:24:13.111,13.6251,23.3126
11:24:13.120,16.7813,36.2501
11:24:13.129,20.5313,47.8752
11:24:13.139,22.6251,59.6252
11:24:13.150,25.1563,68.1878
11:24:13.160,26.9376,78.2503
11:24:13.200,29.8751,85.6878
11:24:13.202,31.7814,92.6879
11:24:13.203,32.6876,98.9379
11:24:13.212,35.5314,105.3754
11:24:13.217,36.2501,111.3754
11:24:13.225,37.6251,115.7504
11:24:13.234,39.0939,120.313
11:24:13.245,40.0002,125.1255
11:24:13.255,41.5939,129.563
11:24:13.264,43.0002,132.938
11:24:13.275,44.1877,137.0005
11:24:13.284,44.7189,138.063
11:24:13.294,43.9377,138.563
11:24:13.305,43.7189,136.6255
11:24:13.315,42.7814,135.6255
11:24:13.324,41.9689,131.188
11:24:13.334,40.1877,127.063
11:24:13.344,38.6876,121.063
11:24:13.354,37.1251,116.3754
11:24:13.365,35.9376,110.8754
11:24:13.375,33.4064,105.6254
11:24:13.385,32.9064,101.5004
11:24:13.394,31.7814,98.8754
11:24:13.405,30.3126,96.6879
11:24:13.414,29.2814,92.8129
11:24:13.424,28.4689,89.6878
11:24:13.435,27.4689,88.0003
11:24:13.444,26.4064,85.3128
11:24:13.454,25.6251,81.8753
11:24:13.470,24.2501,80.2503
11:24:13.475,23.6563,75.9378
11:24:13.484,22.0938,72.7503
11:24:13.494,20.8438,68.8128
11:24:13.504,19.5938,65.0627
11:24:13.514,18.5001,62.0002
11:24:13.527,17.0626,56.4377
11:24:13.535,15.7501,52.8127
11:24:13.546,13.7188,48.4377
11:24:13.554,12.8125,44.7502
11:24:13.564,11.5,40.6252
11:24:13.574,9.9375,36.4376
11:24:13.587,9.1563,33.0626
11:24:13.609,7.4375,29.5626
11:24:13.615,6.5313,26.0626
11:24:13.618,5.875,21.7501
11:24:13.655,3.5625,18.5001
11:24:13.657,3.75,14.3126
11:24:13.690,1.4688,10.9375
11:24:13.690,0.8125,7.4375
11:24:13.717,-1.0625,3.8125
11:24:13.717,-2.0625,-1.125
11:24:13.717,-3.6563,-3.25
11:24:13.718,-4.4063,-7.0625
11:24:13.721,-5.8438,-9.75
11:24:13.753,-5.9063,-13.3751
11:24:13.755,-7.7188,-15.8126
11:24:13.757,-7.75,-19.2501
11:24:13.764,-9.625,-21.2501
11:24:13.766,-10.25,-24.7501
11:24:13.772,-11.2813,-26.6251
11:24:13.780,-12.1875,-30.5626
11:24:13.789,-12.4688,-33.1251
11:24:13.799,-14.1563,-35.1876
11:24:13.810,-14.7501,-38.3126
11:24:13.819,-16.2501,-41.0627
11:24:13.830,-17.3126,-44.4377
11:24:13.845,-17.8126,-47.3127
11:24:13.851,-19.1251,-49.6877
11:24:13.859,-20.4688,-52.4377
11:24:13.869,-20.6251,-55.8127
11:24:13.879,-21.3438,-56.8752
11:24:13.889,-22.4063,-60.1252
11:24:13.900,-22.6876,-61.9377
11:24:13.909,-23.8751,-63.1252
11:24:13.919,-23.8438,-65.8753
11:24:13.930,-24.8438,-67.8128
11:24:13.939,-25.5626,-70.0628
11:24:13.949,-26.2501,-72.2503
11:24:13.959,-26.5001,-73.6253
11:24:13.972,-27.2814,-74.0003
11:24:13.980,-26.9689,-76.5003
11:24:13.989,-27.1876,-75.3753
11:24:14.000,-25.5938,-72.7503
11:24:14.009,-23.2501,-66.8753
11:24:14.019,-20.7188,-56.4377
11:24:14.029,-17.2501,-43.7502
11:24:14.039,-13.4063,-29.3751
11:24:14.049,-9.4375,-15.0001
11:24:14.060,-6.2188,0.0625
11:24:14.069,-3.0313,14.6876
11:24:14.079,0.5938,26.3751
11:24:14.089,3.0938,37.4376
11:24:14.099,5.9688,48.0002
11:24:14.109,9.1875,56.1252
11:24:14.119,11.2813,64.0627
11:24:14.129,13.4688,72.1253
11:24:14.139,15.8438,78.2503
11:24:14.149,17.1876,83.1253
11:24:14.159,18.4376,88.9378
11:24:14.172,19.6563,92.3129
11:24:14.179,20.5001,96.6254
11:24:14.190,20.4688,101.5629
11:24:14.199,22.5313,103.3754
11:24:14.209,22.6876,107.1254
11:24:14.220,23.8751,109.5629
11:24:14.229,23.5001,108.4379
11:24:14.240,22.7188,108.2504
11:24:14.249,22.6876,105.1879
11:24:14.279,21.6251,102.8129
11:24:14.280,20.5001,98.4379
11:24:14.283,18.9376,93.7504
11:24:14.291,16.7813,88.5628
11:24:14.300,16.3751,83.6878
11:24:14.309,14.1251,79.3753
11:24:14.320,12.6563,76.3753
11:24:14.329,11.3438,72.3128
11:24:14.340,10.0938,68.9378
11:24:14.350,8.9688,67.0628
11:24:14.381,8.2188,63.0627
11:24:14.384,7,60.7502
11:24:14.386,5.8125,57.7502
11:24:14.392,5.0938,55.4377
11:24:14.419,3.5625,52.7502
11:24:14.421,2.375,49.3127
11:24:14.424,1.5625,46.1877
11:24:14.431,0.0938,41.8752
11:24:14.441,-1,38.5001
11:24:14.476,-2.125,35.5001
11:24:14.478,-3.4063,32.5001
11:24:14.480,-3.5,28.8751
11:24:14.483,-5.1563,25.3126
11:24:14.490,-5.9688,21.6876
11:24:14.529,-6.7188,18.1876
11:24:14.533,-8.9375,15.0001
11:24:14.534,-9.7188,10.75
11:24:14.540,-10.3125,6.8125
11:24:14.540,-12.2813,2.3125
11:24:14.550,-13,0.375
11:24:14.560,-13.9688,-3.4375
11:24:14.569,-14.0626,-7.0625
11:24:14.579,-15.4063,-10.5625
11:24:14.589,-16.7813,-13
11:24:14.599,-17.0001,-15.9376
11:24:14.610,-18.3126,-18.3126
11:24:14.619,-18.1563,-21.5626
11:24:14.631,-19.4376,-23.3751
11:24:14.640,-20.0626,-26.1876
11:24:14.649,-20.0001,-28.5626
11:24:14.659,-21.1563,-30.2501
11:24:14.669,-21.0938,-32.6876
11:24:14.679,-22.5938,-35.6251
11:24:14.689,-22.1563,-36.8126
11:24:14.699,-23.3438,-38.1876
11:24:14.709,-22.1251,-39.3127
11:24:14.720,-22.8751,-40.4377
11:24:14.730,-22.7188,-42.3752
11:24:14.739,-23.1251,-42.6877
11:24:14.750,-23.1876,-44.6877
11:24:14.759,-22.9376,-44.8752
11:24:14.769,-22.8751,-47.4377
11:24:14.781,-22.5313,-47.6877
11:24:14.789,-23.8438,-48.1252
11:24:14.799,-23.0626,-51.5627
11:24:14.809,-23.8751,-52.8127
11:24:14.819,-23.9063,-54.6877
11:24:14.830,-24.0313,-57.2502
11:24:14.839,-24.3751,-58.1877
11:24:14.849,-25.4063,-60.3752
11:24:14.859,-24.6876,-60.3752
11:24:14.870,-22.8126,-57.1252
11:24:14.881,-22.1876,-51.5002
11:24:14.889,-18.9376,-42.5002
11:24:14.900,-15.0313,-29.4376
11:24:14.909,-11.1875,-15.5001
11:24:14.920,-6.0625,-0.9375
11:24:14.935,-0.75,14.0626
11:24:14.952,3.5313,29.6876
11:24:14.953,7.6875,41.6877
11:24:14.984,12.4375,54.0002
11:24:14.988,17.0313,66.3128
11:24:14.990,19.3126,73.8753
11:24:14.996,22.9376,83.4378
11:24:15.002,25.6251,89.9378
11:24:15.009,27.0314,96.3754
11:24:15.038,27.6876,99.5629
11:24:15.041,29.5001,104.9379
11:24:15.043,34.8126,115.0629
11:24:15.051,36.7501,119.7505
11:24:15.079,38.7189,124.188
11:24:15.081,41.3439,127.188
11:24:15.084,41.5939,130.3755
11:24:15.090,42.6252,130.7505
11:24:15.125,42.8127,129.938
11:24:15.127,42.2502,127.938
11:24:15.129,41.0002,123.813
11:24:15.157,38.6564,117.7505
11:24:15.158,37.1251,113.0629
11:24:15.159,35.4689,108.0629
11:24:15.167,33.6876,102.8754
11:24:15.171,32.0939,98.0629
11:24:15.202,30.1876,93.9379
11:24:15.206,29.1251,89.6878
11:24:15.207,26.2813,86.2503
11:24:15.210,25.4063,82.0003
11:24:15.219,23.7188,79.8753
11:24:15.230,23.3751,76.6253
11:24:15.239,20.7501,74.0003
11:24:15.250,20.5313,71.0003
11:24:15.260,19.2501,67.6878
11:24:15.270,18.3126,64.5002
11:24:15.279,17.3438,62.2502
11:24:15.289,16.0001,57.7502
11:24:15.299,14.4688,55.1877
11:24:15.310,13.125,49.5627
11:24:15.320,12.0938,46.0627
11:24:15.329,10.375,41.1877
11:24:15.339,9.1563,38.2501
11:24:15.350,7.375,32.8126
11:24:15.361,5.875,29.1876
11:24:15.370,5.0313,24.5626
11:24:15.381,3.7813,20.8126
11:24:15.390,2.5313,16.6251
11:24:15.399,0.5625,12.5625
11:24:15.411,-0.5938,8.8125
11:24:15.420,-0.8125,4.625
11:24:15.430,-2.5938,2.375
11:24:15.441,-2.8125,-2
11:24:15.449,-4.0938,-4.625
11:24:15.462,-4.9063,-7.5
11:24:15.469,-6.0625,-10.375
11:24:15.479,-6.0938,-14.3751
11:24:15.490,-7.6563,-16.5001
11:24:15.501,-8.75,-20.3751
11:24:15.509,-9.9375,-22.9376
11:24:15.520,-9.5938,-25.6251
11:24:15.530,-11.625,-28.1251
11:24:15.559,-12.0938,-31.5626
11:24:15.561,-13.2188,-33.3126
11:24:15.564,-13.9376,-36.3751
11:24:15.570,-14.6251,-38.9376
11:24:15.580,-15.4376,-41.1252
11:24:15.589,-16.9376,-44.0002
11:24:15.601,-18.3126,-46.6877
11:24:15.610,-17.2501,-48.6877
11:24:15.620,-18.8126,-51.1252
11:24:15.630,-19.1563,-53.9377
11:24:15.639,-19.8438,-56.0002
11:24:15.650,-20.4688,-58.3752
11:24:15.660,-20.7813,-59.9377
11:24:15.669,-20.2813,-61.3127
11:24:15.680,-21.3438,-62.6252
11:24:15.690,-21.2188,-63.0002
11:24:15.699,-19.3126,-58.3127
11:24:15.710,-17.8438,-50.9377
11:24:15.727,-13.9376,-42.3127
11:24:15.731,-10.6563,-30.0626
11:24:15.740,-7.4375,-16.1876
11:24:15.774,-3.7188,-2.4375
11:24:15.777,0.8438,12.625
11:24:15.779,4.4375,27.6251
11:24:15.781,8.3438,39.6252
11:24:15.818,11.9375,51.8127
11:24:15.820,15.0313,63.0627
11:24:15.828,18.4063,72.3753
11:24:15.828,21.3751,81.7503
11:24:15.861,24.2188,90.3128
11:24:15.861,26.4689,97.3129
11:24:15.865,27.9064,103.5629
11:24:15.869,29.8126,110.1254
11:24:15.871,30.7189,114.2504
11:24:15.883,32.2501,119.6255
11:24:15.917,32.6251,123.1255
11:24:15.922,33.3126,125.2505
11:24:15.923,33.5314,126.6255
11:24:15.926,34.0939,127.938
11:24:15.932,33.7501,126.2505
11:24:15.940,31.6251,123.7505
11:24:15.951,31.0314,119.938
11:24:15.960,29.6251,115.4379
11:24:15.970,28.6876,110.0629
11:24:15.979,25.6563,102.7504
11:24:15.990,23.7813,95.6254
11:24:16.000,22.1563,88.1878
11:24:16.010,18.7813,82.1878
11:24:16.020,17.3751,74.9378
11:24:16.030,15.5001,68.9378
11:24:16.039,14.0313,64.0002
11:24:16.050,12.8125,58.6252
11:24:16.060,11.0938,55.0627
11:24:16.070,9.8125,51.1252
11:24:16.080,9.125,46.4377
11:24:16.091,7.3438,43.8127
11:24:16.102,6.8125,39.7502
11:24:16.111,5.25,36.8126
11:24:16.119,4.4375,33.1251
11:24:16.130,2.9688,28.9376
11:24:16.139,1.75,24.1876
11:24:16.150,0.7813,20.4376
11:24:16.159,-0.0313,16.6876
11:24:16.170,-1.5938,13.3126
11:24:16.180,-1.9063,8.875
11:24:16.192,-3.5,4.1875
11:24:16.200,-4.4375,0.3125
11:24:16.210,-5.9375,-5.0625
11:24:16.230,-6.9688,-7.9375
11:24:16.241,-8.0938,-13.125
11:24:16.250,-9.4375,-15.9376
11:24:16.254,-10.0938,-20.8126
11:24:16.269,-11.3125,-24.0001
11:24:16.284,-12.5313,-28.5001
11:24:16.286,-13.1563,-31.4376
11:24:16.291,-14.6563,-35.7501
11:24:16.300,-15.1563,-38.1876
11:24:16.310,-16.6876,-42.5002
11:24:16.320,-17.2501,-44.0002
11:24:16.330,-18.0313,-47.4377
11:24:16.339,-18.8126,-50.2502
11:24:16.350,-19.3438,-52.1877
11:24:16.360,-20.4688,-56.1252
11:24:16.371,-22.0313,-57.6877
11:24:16.380,-21.9063,-62.3127
11:24:16.390,-23.5001,-63.7502
11:24:16.400,-24.0313,-67.3128
11:24:16.410,-24.5001,-69.8128
11:24:16.420,-25.8751,-71.8128
11:24:16.430,-25.3751,-73.7503
11:24:16.440,-26.7501,-76.4378
11:24:16.450,-27.5314,-79.3128
11:24:16.459,-27.7189,-80.6253
11:24:16.474,-28.8439,-82.1253
11:24:16.480,-28.9064,-85.6878
11:24:16.490,-29.2501,-86.8128
11:24:16.500,-29.9376,-87.7503
11:24:16.510,-30.5314,-91.1879
11:24:16.535,-30.5314,-91.9379
11:24:16.537,-30.9376,-92.8754
11:24:16.541,-31.0001,-95.3754
11:24:16.579,-31.7189,-96.2504
11:24:16.582,-32.3439,-99.5004
11:24:16.584,-31.9064,-100.9379
11:24:16.586,-33.0626,-101.9379
11:24:16.593,-32.6876,-104.0004
11:24:16.624,-32.5314,-104.5004
11:24:16.626,-33.7501,-106.8754
11:24:16.629,-33.5626,-106.8754
11:24:16.658,-33.9064,-108.8754
11:24:16.660,-34.0314,-110.8754
11:24:16.662,-35.0939,-111.2504
11:24:16.667,-34.6251,-113.7504
11:24:16.671,-34.1251,-113.7504
11:24:16.696,-35.5314,-115.3129
11:24:16.699,-34.8751,-116.5004
11:24:16.703,-35.0001,-117.0629
11:24:16.710,-35.2814,-119.188
11:24:16.721,-34.4064,-118.063
11:24:16.730,-34.2814,-118.188
11:24:16.741,-32.3439,-112.5004
11:24:16.750,-30.0626,-105.5629
11:24:16.760,-26.3751,-93.0004
11:24:16.770,-22.5313,-79.0003
11:24:16.782,-17.9376,-63.1877
11:24:16.790,-14.0938,-47.2502
11:24:16.801,-8.8125,-30.6876
11:24:16.811,-4.8438,-13.3126
11:24:16.838,-0.4688,1.1875
11:24:16.841,4.125,15.1251
11:24:16.843,7.0313,27.8751
11:24:16.849,10.9688,38.4376
11:24:16.863,13.8751,49.7502
11:24:16.870,16.3126,59.1252
11:24:16.880,19.0313,66.3753
11:24:16.890,21.0001,74.0628
11:24:16.900,22.3126,80.5628
11:24:16.910,24.4063,86.6253
11:24:16.919,25.2501,93.5629
11:24:16.931,27.1564,97.0004
11:24:16.940,28.0939,101.6254
11:24:16.950,28.1876,105.5629
11:24:16.959,29.1251,106.5629
11:24:16.970,29.2189,108.3129
11:24:16.980,29.6876,107.9379
11:24:16.990,28.9689,106.6879
11:24:17.000,27.2814,102.6254
11:24:17.010,25.4376,98.0629
11:24:17.019,23.3438,92.8754
11:24:17.030,21.9376,86.1253
11:24:17.039,19.7188,79.1878
11:24:17.051,17.1563,73.0628
11:24:17.061,15.8126,67.1878
11:24:17.069,14.7188,62.3127
11:24:17.080,13.4063,56.4377
11:24:17.090,11.5625,52.3752
11:24:17.101,10.9375,48.5002
11:24:17.110,9.5625,44.4377
11:24:17.120,8.5313,41.6877
11:24:17.129,7.4375,37.7501
11:24:17.140,6.2188,34.3751
11:24:17.150,5.375,30.8751
11:24:17.160,3.7188,27.9376
11:24:17.171,3,24.5626
11:24:17.185,2.625,20.9376
11:24:17.196,0.9688,17.1876
11:24:17.204,-0.1563,13.4376
11:24:17.215,-0.875,10.4375
11:24:17.225,-2.1875,6.9375
11:24:17.238,-2.8438,2.375
11:24:17.247,-4.4375,-2.25
11:24:17.284,-5.8438,-5.875
11:24:17.286,-6.75,-9.6875
11:24:17.289,-8.1875,-14.0001
11:24:17.292,-8.7813,-17.7501
11:24:17.297,-9.625,-21.0001
11:24:17.328,-11.3125,-24.8751
11:24:17.330,-11.9375,-29.1251
11:24:17.333,-12.9688,-32.0626
11:24:17.338,-14.2188,-36.4376
11:24:17.348,-16.3126,-41.6252
11:24:17.378,-17.3751,-44.4377
11:24:17.380,-17.8126,-48.3752
11:24:17.384,-19.5313,-51.3752
11:24:17.390,-19.7813,-55.1252
11:24:17.423,-21.3126,-58.2502
11:24:17.428,-22.0626,-60.3127
11:24:17.428,-22.4376,-63.5002
11:24:17.434,-23.4376,-65.0002
11:24:17.441,-23.8126,-68.8128
11:24:17.451,-25.1876,-70.7503
11:24:17.459,-25.4688,-73.6253
11:24:17.470,-26.6564,-75.4378
11:24:17.480,-27.2189,-79.0003
11:24:17.490,-28.0626,-81.3753
11:24:17.500,-28.0001,-83.7503
11:24:17.510,-29.5001,-85.6878
11:24:17.533,-31.0314,-90.3753
11:24:17.537,-30.8126,-91.6254
11:24:17.546,-32.0939,-94.2504
11:24:17.550,-32.1564,-96.9379
11:24:17.568,-32.9376,-98.9379
11:24:17.570,-33.2814,-101.3129
11:24:17.585,-34.4689,-102.5629
11:24:17.598,-33.8126,-103.5629
11:24:17.600,-34.8126,-105.6254
11:24:17.612,-34.9689,-107.8129
11:24:17.620,-35.7189,-108.9379
11:24:17.636,-36.4376,-110.8754
11:24:17.643,-36.1251,-112.2504
11:24:17.651,-37.1564,-113.6879
11:24:17.660,-37.6251,-115.1879
11:24:17.670,-37.7814,-115.8754
11:24:17.680,-38.3126,-117.8755
11:24:17.691,-38.3439,-119.2505
11:24:17.700,-39.0939,-121.2505
11:24:17.711,-39.9689,-123.188
11:24:17.720,-39.8127,-124.313
11:24:17.730,-40.5314,-125.313
11:24:17.741,-40.0314,-126.563
11:24:17.750,-40.4689,-126.8755
11:24:17.760,-39.0939,-124.938
11:24:17.771,-37.6564,-119.313
11:24:17.780,-34.9689,-112.2504
11:24:17.790,-31.5626,-100.3754
11:24:17.800,-28.2189,-87.3128
11:24:17.811,-24.7501,-72.7503
11:24:17.821,-20.1563,-58.1252
11:24:17.830,-16.1251,-42.6252
11:24:17.840,-11.9375,-27.5001
11:24:17.850,-8.625,-15.5001
11:24:17.860,-4.75,-2.625
11:24:17.871,-1.4688,8.3125
11:24:17.880,1.75,18.3126
11:24:17.890,4.4375,24.7501
11:24:17.900,7,32.3126
11:24:17.910,8.0313,38.8751
11:24:17.920,9.6563,42.5627
11:24:17.931,11.2188,48.2502
11:24:17.940,12.8438,52.7502
11:24:17.950,12.8438,55.0002
11:24:17.961,13.7813,57.8127
11:24:17.970,14.3751,60.9377
11:24:17.980,15.0001,62.3127
11:24:17.990,16.0001,64.0627
11:24:18.005,15.1876,64.4377
11:24:18.010,14.3751,61.5627
11:24:18.042,14.5001,59.0627
11:24:18.044,12.8438,55.6877
11:24:18.046,11.875,51.5002
11:24:18.050,9.5625,46.0002
11:24:18.086,8.3125,41.5627
11:24:18.088,6.7813,36.8751
11:24:18.091,6.4063,32.9376
11:24:18.119,5.125,29.1251
11:24:18.120,4.4063,26.2501
11:24:18.126,3.2813,23.6876
11:24:18.131,2.75,21.1876
11:24:18.132,2.2188,19.3126
11:24:18.163,2,16.6876
11:24:18.164,0.4375,14.9376
11:24:18.165,0.3125,11.9375
11:24:18.170,-1.2188,9
11:24:18.180,-1.6563,7.625
11:24:18.190,-1.9688,4.1875
11:24:18.201,-3.7188,0.75
11:24:18.210,-4.7813,-0.625
11:24:18.221,-5.25,-4.9375
11:24:18.230,-6,-8.75
11:24:18.240,-6.9063,-10.875
11:24:18.251,-7.6875,-13.9376
11:24:18.260,-8.7813,-18.3751
11:24:18.270,-9.5313,-21.7501
11:24:18.280,-10.7813,-24.6251
11:24:18.290,-11.25,-27.3751
11:24:18.300,-11.4063,-30.4376
11:24:18.311,-12.75,-33.6251
11:24:18.320,-13.4376,-36.7501
11:24:18.330,-14.5938,-40.3752
11:24:18.340,-15.5626,-43.4377
11:24:18.350,-15.5938,-45.6252
11:24:18.363,-15.9063,-47.6877
11:24:18.372,-17.2813,-50.3752
11:24:18.380,-17.2501,-52.1252
11:24:18.390,-17.7813,-54.6252
11:24:18.400,-17.8438,-55.4377
11:24:18.410,-18.5313,-58.9377
11:24:18.420,-18.9688,-59.0627
11:24:18.430,-19.2501,-60.3752
11:24:18.440,-18.8438,-61.7502
11:24:18.450,-19.6876,-62.5627
11:24:18.460,-20.1563,-65.7503
11:24:18.470,-19.9688,-65.8753
11:24:18.480,-21.0626,-66.5003
11:24:18.491,-21.2501,-68.8753
11:24:18.500,-20.8751,-70.7503
11:24:18.510,-22.1251,-72.5003
11:24:18.520,-22.4688,-74.7503
11:24:18.530,-22.5938,-75.6878
11:24:18.541,-23.7188,-76.7503
11:24:18.550,-23.4063,-78.8753
11:24:18.560,-23.2501,-81.1253
11:24:18.570,-24.1876,-82.1878
11:24:18.582,-24.5313,-84.1878
11:24:18.590,-24.7501,-85.0628
11:24:18.600,-24.0938,-84.3128
11:24:18.610,-22.9063,-80.8753
11:24:18.620,-21.6876,-73.8753
11:24:18.630,-19.1251,-66.0628
11:24:18.640,-16.5626,-54.1252
11:24:18.650,-12.4688,-42.1877
11:24:18.660,-8.6875,-28.0626
11:24:18.671,-6,-14.8126
11:24:18.680,-1,-1.75
11:24:18.693,2.0625,10.625
11:24:18.700,5.1875,20.8751
11:24:18.710,8.6563,30.8126
11:24:18.738,10.8125,39.8752
11:24:18.741,12.8438,45.8127
11:24:18.743,14.6563,50.9377
11:24:18.751,16.0938,56.0002
11:24:18.785,17.3126,59.7502
11:24:18.790,17.8751,64.0627
11:24:18.791,18.9063,65.5628
11:24:18.818,19.5626,68.5003
11:24:18.819,20.2188,70.1878
11:24:18.822,20.5938,71.1253
11:24:18.829,20.4063,72.3128
11:24:18.832,20.3438,71.0628
11:24:18.863,19.4063,70.1878
11:24:18.918,19.2501,67.1878
11:24:18.918,17.9688,63.6252
11:24:18.919,17.4376,58.8752
11:24:18.936,15.5626,55.0627
11:24:18.949,14.6563,50.1252
11:24:18.949,13.5626,45.5002
11:24:18.950,12.5,41.8752
11:24:18.956,11.1563,38.3751
11:24:18.967,10.4375,36.5626
11:24:18.975,10.1875,32.7501
11:24:18.986,9.6875,31.2501
11:24:19.002,9.1875,28.5001
11:24:19.005,8.0938,26.3126
11:24:19.020,7.7813,25.4376
11:24:19.025,7.4688,22.9376
11:24:19.035,7.5,20.9376
11:24:19.045,6.4375,19.8751
11:24:19.055,5.6563,17.3126
11:24:19.065,5.625,13.8751
11:24:19.075,5.1563,10.75
11:24:19.086,4.5625,8.125
11:24:19.095,2.9063,3.5625
11:24:19.105,-0.8438,-10.75
11:24:19.115,-1.6875,-14.7501
11:24:19.125,-2.6875,-18.2501
11:24:19.136,-3.25,-20.0626
11:24:19.145,-3.3438,-23.7501
11:24:19.155,-4.875,-27.3126
11:24:19.166,-5.75,-30.6251
11:24:19.175,-6.25,-32.5001
11:24:19.185,-7.5938,-34.0626
11:24:19.195,-7.7188,-38.1251
11:24:19.205,-8.5313,-41.1252
11:24:19.215,-8.4063,-42.7502
11:24:19.225,-8.0938,-44.6252
11:24:19.236,-9.7813,-46.9377
11:24:19.247,-10.1563,-47.5002
11:24:19.255,-10.4375,-49.6877
11:24:19.265,-10.9063,-53.2502
11:24:19.275,-11.3438,-54.6252
11:24:19.285,-12.1875,-55.7502
11:24:19.295,-12.3125,-58.3752
11:24:19.305,-13.125,-60.0002
11:24:19.315,-13.6876,-63.1252
11:24:19.325,-14.3751,-62.8752
11:24:19.335,-14.8438,-65.8128
11:24:19.345,-14.7501,-65.8128
11:24:19.355,-15.6251,-68.9378
11:24:19.366,-15.2813,-71.7503
11:24:19.399,-16.9688,-71.9378
11:24:19.400,-16.7188,-74.1878
11:24:19.404,-16.4688,-75.6878
11:24:19.405,-17.4376,-77.8128
11:24:19.415,-17.1563,-78.6253
11:24:19.425,-17.2501,-77.4378
11:24:19.435,-16.0313,-75.5003
11:24:19.455,-13.3126,-69.9378
11:24:19.458,-11.5938,-60.1252
11:24:19.493,-7.9375,-50.3752
11:24:19.494,-2.9688,-35.1876
11:24:19.497,0.1875,-19.6876
11:24:19.499,5.1875,-4.1875
11:24:19.534,9.625,11.25
11:24:19.538,13.3126,26.9376
11:24:19.539,17.6876,39.3127
11:24:19.547,21.5938,52.2502
11:24:19.549,24.1876,63.5002
11:24:19.556,28.1564,72.8128
11:24:19.595,30.4376,81.3128
11:24:19.599,32.6251,88.7503
11:24:19.602,34.5939,96.5629
11:24:19.602,36.5626,100.9379
11:24:19.608,38.3439,106.8129
11:24:19.616,39.2814,111.9379
11:24:19.629,40.4377,115.0004
11:24:19.636,41.2189,119.5005
11:24:19.645,42.0002,121.063
11:24:19.661,41.6877,123.438
11:24:19.665,42.5939,122.438
11:24:19.675,40.7814,121.8755
11:24:19.685,40.0314,119.6255
11:24:19.696,39.5939,115.3754
11:24:19.705,37.6876,110.7504
11:24:19.715,36.5939,105.1254
11:24:19.725,34.1251,98.9379
11:24:19.735,32.2501,92.9379
11:24:19.745,30.6251,87.1878
11:24:19.755,28.6876,80.3128
11:24:19.765,26.5001,73.9378
11:24:19.775,24.9688,68.8753
11:24:19.785,23.8126,65.3753
11:24:19.795,23.0313,61.1252
11:24:19.805,22.4688,57.1252
11:24:19.815,21.3751,53.8752
11:24:19.825,19.8438,50.3752
11:24:19.835,19.4063,47.4377
11:24:19.846,17.6563,44.3127
11:24:19.855,17.3438,40.8752
11:24:19.866,16.1251,38.0001
11:24:19.875,14.9688,34.3751
11:24:19.887,13.9376,29.4376
11:24:19.895,12.4063,26.0001
11:24:19.905,12,22.0001
11:24:19.915,10.6875,17.6251
11:24:19.925,8.625,13.9376
11:24:19.935,8.875,9.6875
11:24:19.945,6.625,6.4375
11:24:19.956,4.9375,1.625
11:24:19.966,4.0313,-2.75
11:24:19.977,2.5625,-7.125
11:24:19.986,2.8438,-9.8125
11:24:19.995,0.9063,-14.1876
11:24:20.006,-0.1875,-17.6251
11:24:20.015,-1.4063,-21.5001
11:24:20.025,-3.4375,-24.7501
11:24:20.041,-4.7813,-28.6251
11:24:20.046,-5.125,-31.6876
11:24:20.055,-6.0625,-35.1251
11:24:20.065,-6.9375,-37.5001
11:24:20.076,-8.3125,-41.7502
11:24:20.085,-9,-44.0627
11:24:20.095,-9.5625,-47.1877
11:24:20.105,-10.2813,-49.6252
11:24:20.115,-10.75,-52.1252
11:24:20.149,-12.1563,-54.0002
11:24:20.151,-11.8438,-56.2502
11:24:20.153,-13.2813,-58.6877
11:24:20.155,-13.0938,-61.6252
11:24:20.191,-14.7813,-63.0627
11:24:20.193,-15.6251,-66.2503
11:24:20.195,-15.1563,-67.8753
11:24:20.198,-16.7188,-68.2503
11:24:20.237,-16.6251,-71.5628
11:24:20.238,-16.5313,-72.8753
11:24:20.240,-18.5313,-75.6878
11:24:20.251,-17.8751,-77.5628
11:24:20.251,-18.6251,-77.6878
11:24:20.262,-19.0001,-81.3128
11:24:20.288,-19.7501,-81.8128
11:24:20.290,-20.5938,-82.7503
11:24:20.306,-20.5938,-85.7503
11:24:20.308,-20.5626,-86.5003
11:24:20.323,-21.1563,-88.5628
11:24:20.337,-21.1876,-90.1253
11:24:20.340,-21.9063,-92.0004
11:24:20.356,-22.8126,-93.9379
11:24:20.370,-22.8126,-95.4379
11:24:20.372,-22.4063,-95.0629
11:24:20.388,-22.5626,-94.7504
11:24:20.389,-21.3751,-91.8754
11:24:20.390,-18.9688,-84.3753
11:24:20.397,-15.3126,-74.5003
11:24:20.405,-12.4688,-61.0627
11:24:20.419,-8.5,-46.8127
11:24:20.426,-4.0313,-29.1251
11:24:20.435,0.5625,-12.6875
11:24:20.445,5.8125,4.625
11:24:20.455,10.4688,20.6251
11:24:20.465,14.7813,36.5001
11:24:20.476,18.1563,48.1877
11:24:20.485,22.3751,60.3752
11:24:20.495,25.5001,69.8128
11:24:20.505,28.6564,80.1878
11:24:20.515,30.4689,87.3128
11:24:20.526,33.1251,94.6254
11:24:20.535,34.4376,100.2504
11:24:20.545,35.9689,106.7504
11:24:20.555,37.1564,110.3129
11:24:20.566,38.2501,115.9379
11:24:20.575,38.9064,117.6254
11:24:20.585,39.8127,121.5005
11:24:20.595,39.9064,123.3755
11:24:20.605,39.9064,123.813
11:24:20.615,39.1876,122.1255
11:24:20.628,38.6251,118.688
11:24:20.635,37.3126,116.5004
11:24:20.646,35.4689,111.4379
11:24:20.678,33.9064,105.5004
11:24:20.681,32.0939,98.0629
11:24:20.683,30.0314,92.1254
11:24:20.685,27.8126,84.9378
11:24:20.697,26.0001,78.3753
11:24:20.705,24.1876,73.8753
11:24:20.717,22.7188,68.3128
11:24:20.725,21.1251,63.3127
11:24:20.735,20.9688,60.1877
11:24:20.745,18.6876,56.5002
11:24:20.755,17.2188,54.2502
11:24:20.765,17.0938,49.4377
11:24:20.775,15.4688,46.6877
11:24:20.790,15.0938,42.9377
11:24:20.795,13.5313,39.8752
11:24:20.805,13.1876,36.3751
11:24:20.815,11.9375,32.9376
11:24:20.827,10.7813,28.3751
11:24:20.865,9.1563,24.6876
11:24:20.867,8,19.8751
11:24:20.869,6.6875,16.3751
11:24:20.871,5.8438,13
11:24:20.875,4.3438,8.5
11:24:20.906,3.0313,3.6875
11:24:20.907,1.875,0.0625
11:24:20.910,0.625,-3.6875
11:24:20.915,-0.75,-8.4375
11:24:20.956,-1.7813,-12.9375
11:24:20.958,-2.625,-15.7501
11:24:20.961,-4.2188,-19.2501
11:24:20.964,-5,-22.4376
11:24:21.002,-5.6875,-26.7501
11:24:21.004,-7.0313,-30.6251
11:24:21.005,-7.5625,-33.6876
11:24:21.008,-8.4375,-36.6876
11:24:21.014,-9.625,-39.4377
11:24:21.022,-10.625,-41.6877
11:24:21.030,-11.5625,-45.3127
11:24:21.040,-12.9375,-48.3127
11:24:21.050,-13.4688,-51.8127
11:24:21.060,-14.1563,-53.5002
11:24:21.070,-14.3126,-55.7502
11:24:21.080,-15.0001,-58.4377
11:24:21.090,-15.9688,-61.7502
11:24:21.100,-16.6251,-64.1877
11:24:21.110,-17.8438,-67.5003
11:24:21.120,-18.6251,-70.1878
11:24:21.130,-19.3438,-71.6878
11:24:21.140,-20.0313,-73.1878
11:24:21.150,-20.1251,-76.6878
11:24:21.162,-21.9688,-77.0628
11:24:21.173,-21.9688,-80.4378
11:24:21.181,-21.4688,-82.1253
11:24:21.190,-22.4688,-83.6878
11:24:21.200,-23.1251,-86.6253
11:24:21.210,-23.5313,-86.7503
11:24:21.220,-24.4688,-90.5629
11:24:21.237,-24.5313,-90.8753
11:24:21.246,-25.4688,-92.6879
11:24:21.256,-25.1251,-94.0629
11:24:21.265,-25.6251,-94.6879
11:24:21.275,-26.3439,-96.7504
11:24:21.285,-26.2501,-99.0004
11:24:21.295,-27.5314,-100.5629
11:24:21.306,-28.3751,-103.5629
11:24:21.315,-28.5314,-104.1879
11:24:21.325,-29.4376,-107.5629
11:24:21.335,-29.8751,-108.1879
11:24:21.345,-31.0939,-108.5004
11:24:21.355,-31.1564,-110.0004
11:24:21.365,-30.8439,-106.5629
11:24:21.375,-28.7814,-99.3754
11:24:21.386,-25.2813,-88.3753
11:24:21.397,-18.9688,-64.3127
11:24:21.406,-14.5626,-45.2502
11:24:21.415,-8.7813,-27.1251
11:24:21.425,-3.6875,-8.25
11:24:21.435,0.7188,11.4375
11:24:21.446,6.375,28.6251
11:24:21.455,10.375,44.6877
11:24:21.465,14.5938,59.9377
11:24:21.475,18.6251,72.6878
11:24:21.486,21.0001,82.3753
11:24:21.497,23.9376,92.5004
11:24:21.505,24.3126,100.5004
11:24:21.516,25.5938,105.4379
11:24:21.526,26.0938,110.3129
11:24:21.541,26.0313,114.8754
11:24:21.546,27.8751,119.6255
11:24:21.555,28.1876,124.563
11:24:21.565,29.0001,127.688
11:24:21.575,28.8439,129.5005
11:24:21.585,26.5001,127.563
11:24:21.605,26.1563,128.438
11:24:21.612,24.5313,125.0005
11:24:21.640,22.0626,120.188
11:24:21.642,19.6876,113.5629
11:24:21.721,15.4376,107.3129
11:24:21.753,13.3751,100.0629
11:24:21.784,10.4375,92.6254
11:24:21.784,8.375,83.8128
11:24:21.784,4.9063,76.3753
11:24:21.785,1.3125,69.3128
11:24:21.788,-4.5938,56.7502
11:24:21.793,-11.1563,45.5002
11:24:21.794,-18.8126,30.6876
11:24:21.794,-28.0626,13.3126
11:24:21.802,-32.5001,3.5
11:24:21.810,-23.4063,11.1875
11:24:21.820,-10.875,27.5626
11:24:21.830,-6.5938,33.3126
11:24:21.840,-6.9688,28.4376
11:24:21.850,-10.0313,23.1251
11:24:21.860,-11,17.1876
11:24:21.871,-13.2188,11.5625
11:24:21.880,-15.7501,5.8125
11:24:21.890,-17.3438,-1.6875
11:24:21.900,-21.5938,-8.5625
11:24:21.915,-24.1876,-16.0626
11:24:21.921,-26.0626,-20.3126
11:24:21.931,-26.8126,-25.1876
11:24:21.958,-30.4689,-31.6876
11:24:21.960,-34.3751,-39.2501
11:24:21.963,-58.8127,-89.4378
11:24:21.972,-59.9065,-92.8129
11:24:21.980,-60.2815,-95.1254
11:24:21.990,-61.1252,-97.9379
11:24:22.000,-60.969,-99.3754
11:24:22.010,-61.0315,-101.2504
11:24:22.020,-60.7815,-103.0004
11:24:22.030,-61.0315,-104.0629
11:24:22.041,-60.9065,-105.8129
11:24:22.050,-61.594,-107.0629
11:24:22.060,-60.594,-108.8754
11:24:22.070,-61.5315,-109.5004
11:24:22.080,-61.344,-112.5629
11:24:22.090,-61.219,-113.6254
11:24:22.100,-61.8127,-115.5004
11:24:22.111,-61.0627,-116.7504
11:24:22.121,-61.0627,-118.313
11:24:22.130,-59.844,-119.3755
11:24:22.141,-61.7815,-119.8755
11:24:22.150,-60.719,-121.813
11:24:22.160,-59.344,-122.0005
11:24:22.170,-59.844,-121.2505
11:24:22.180,-59.5002,-123.3755
11:24:22.190,-59.2502,-123.438
11:24:22.200,-58.6252,-125.938
11:24:22.210,-58.469,-125.1255
11:24:22.220,-57.6877,-127.188
11:24:22.231,-56.8127,-127.063
11:24:22.240,-58.1565,-128.1255
11:24:22.250,-56.719,-128.938
11:24:22.260,-55.4065,-127.938
11:24:22.273,-55.1252,-129.0005
11:24:22.280,-54.6565,-128.6255
11:24:22.290,-53.3127,-128.313
11:24:22.301,-51.8752,-125.313
11:24:22.310,-49.9689,-119.6255
11:24:22.320,-45.8127,-113.0004
11:24:22.330,-41.1877,-99.8754
11:24:22.365,-35.7189,-84.4378
11:24:22.367,-28.0939,-65.5628
11:24:22.371,-21.9688,-47.0627
11:24:22.373,-15.5001,-28.8126
11:24:22.403,-9.7813,-10.125
11:24:22.406,-4.625,5.5625
11:24:22.408,0.5625,21.2501
11:24:22.410,4.0625,31.8751
11:24:22.444,7.625,42.0002
11:24:22.446,9.5625,51.5002
11:24:22.449,11.6563,56.4377
11:24:22.453,14.0313,63.9377
11:24:22.484,16.4688,68.1253
11:24:22.487,18.1876,71.5003
11:24:22.489,19.0001,75.3128
11:24:22.495,19.9063,76.8753
11:24:22.507,22.4063,80.3128
11:24:22.511,21.7501,81.6878
11:24:22.525,22.6876,82.0003
11:24:22.530,22.8751,81.5003
11:24:22.540,22.6563,79.9378
11:24:22.551,21.0626,77.0003
11:24:22.563,20.7501,73.6253
11:24:22.570,20.1876,68.6253
11:24:22.580,18.9688,64.6252
11:24:22.590,17.1876,60.8127
11:24:22.600,16.3126,56.7502
11:24:22.610,15.2188,53.6877
11:24:22.621,14.3126,51.0002
11:24:22.630,13.5938,46.9377
11:24:22.640,12.0313,44.6252
11:24:22.650,9.875,40.8752
11:24:22.665,5.4063,33.2501
11:24:22.670,1.3438,25.6251
11:24:22.681,-2.6875,18.1251
11:24:22.690,-7.125,10.625
11:24:22.700,-9.3125,4.25
11:24:22.710,-10.2188,1.8125
11:24:22.720,-12.8438,-3.5625
11:24:22.730,-14.2188,-6.8125
11:24:22.741,-11.875,-7.3125
11:24:22.750,-6.0625,-0.5625
11:24:22.760,1.4063,7.125
11:24:22.770,4.0313,10.1875
11:24:22.780,4.3438,7.4375
11:24:22.790,4.25,5.625
11:24:22.800,1.625,0.5625
11:24:22.810,-1.7188,-6.5625
11:24:22.820,-5.5,-15.0626
11:24:22.830,-10.125,-22.9376
11:24:22.840,-14.7188,-33.9376
11:24:22.850,-21.0938,-42.8127
11:24:22.861,-25.2813,-52.6877
11:24:22.870,-30.5939,-60.9377
11:24:22.880,-35.2814,-71.0628
11:24:22.890,-40.1564,-77.6253
11:24:22.900,-44.5939,-87.0003
11:24:22.910,-49.0314,-92.1879
11:24:22.921,-52.7502,-100.1879
11:24:22.930,-57.469,-105.3754
11:24:22.942,-61.6252,-112.8129
11:24:22.956,-66.0003,-117.1254
11:24:22.966,-69.5628,-120.938
11:24:22.971,-72.219,-124.813
11:24:22.988,-74.094,-128.7505
11:24:22.995,-75.469,-130.813
11:24:23.003,-77.5628,-132.563
11:24:23.011,-78.4065,-133.8755
11:24:23.020,-78.9378,-134.5005
11:24:23.041,-79.3753,-136.563
11:24:23.044,-79.3441,-137.938
11:24:23.054,-79.1253,-137.2505
11:24:23.060,-79.0628,-138.5005
11:24:23.075,-79.3753,-139.7505
11:24:23.084,-79.1253,-139.5005
11:24:23.090,-79.1253,-142.188
11:24:23.100,-78.8441,-142.188
11:24:23.110,-78.5315,-142.563
11:24:23.141,-78.2503,-144.063
11:24:23.142,-77.219,-142.813
11:24:23.144,-76.1565,-142.313
11:24:23.150,-74.5003,-137.7505
11:24:23.184,-70.6253,-129.0005
11:24:23.185,-66.5315,-116.6254
11:24:23.192,-61.5002,-103.0629
11:24:23.196,-55.8752,-86.1878
11:24:23.208,-49.7502,-69.5628
11:24:23.213,-44.2502,-50.6877
11:24:23.240,-37.5626,-33.6876
11:24:23.242,-30.6876,-15.8126
11:24:23.244,-26.2501,-0.5625
11:24:23.251,-21.1251,12.5625
11:24:23.280,-16.6563,25.2501
11:24:23.280,-12.5313,36.8751
11:24:23.285,-8.0625,45.2502
11:24:23.299,-5.2188,54.4377
11:24:23.303,-2.25,61.3127
11:24:23.310,0.7188,69.0003
11:24:23.320,3.8125,75.4378
11:24:23.331,6.7813,82.1253
11:24:23.341,9.375,88.5003
11:24:23.350,11.1563,92.8129
11:24:23.361,13.7501,98.3754
11:24:23.370,15.0313,100.6879
11:24:23.380,17.0001,104.1879
11:24:23.390,17.9376,106.6254
11:24:23.400,18.1876,105.8129
11:24:23.412,19.0313,104.7504
11:24:23.423,18.5001,102.4379
11:24:23.431,19.2813,100.5004
11:24:23.440,18.8438,98.2504
11:24:23.450,19.3126,96.3129
11:24:23.460,19.2188,94.3754
11:24:23.471,19.0626,94.0629
11:24:23.481,21.0626,92.6879
11:24:23.491,22.0938,93.7504
11:24:23.500,25.1876,95.3129
11:24:23.510,27.3439,98.0629
11:24:23.520,30.9689,98.8754
11:24:23.531,31.9689,99.8754
11:24:23.540,33.0314,97.6254
11:24:23.550,33.5001,97.3754
11:24:23.560,34.4376,95.0004
11:24:23.571,34.2189,92.7504
11:24:23.581,33.7814,89.3753
11:24:23.591,33.4064,84.5003
11:24:23.600,32.2189,80.9378
11:24:23.610,31.3439,76.3128
11:24:23.620,30.3439,72.2503
11:24:23.630,29.0939,67.8128
11:24:23.640,27.4689,62.3127
11:24:23.650,26.2813,57.8752
11:24:23.660,24.5938,53.1877
11:24:23.670,23.2813,49.3127
11:24:23.680,22.1251,43.8127
11:24:23.690,19.8438,39.6252
11:24:23.700,17.8126,34.1251
11:24:23.710,15.0001,26.5001
11:24:23.723,10.1875,17.9376
11:24:23.730,5.4375,7.375
11:24:23.740,0.0625,-2.6875
11:24:23.750,-3.125,-10.3125
11:24:23.760,-5.5938,-16.6876
11:24:23.770,-8.2813,-21.8126
11:24:23.781,-10.5313,-28.2501
11:24:23.796,-12.8438,-33.8751
11:24:23.801,-15.3751,-38.1876
11:24:23.810,-17.1876,-44.2502
11:24:23.854,-17.3126,-45.5627
11:24:23.856,-15.6563,-46.0002
11:24:23.860,-13.5001,-43.4377
11:24:23.860,-12.625,-44.1877
11:24:23.863,-10.9375,-42.6252
11:24:23.906,-10.3438,-42.4377
11:24:23.908,-10.7813,-45.4377
11:24:23.909,-13.9688,-53.0002
11:24:23.920,-19.9063,-62.6252
11:24:23.920,-25.3126,-72.5628
11:24:23.920,-30.8126,-82.2503
11:24:23.960,-35.6251,-93.6254
11:24:23.963,-41.2814,-103.0004
11:24:23.964,-46.9377,-113.3754
11:24:23.966,-52.6564,-122.063
11:24:23.972,-59.3127,-131.7505
11:24:24.004,-64.594,-139.563
11:24:24.007,-70.2815,-144.0005
11:24:24.009,-74.469,-146.6881
11:24:24.015,-78.0003,-143.563
11:24:24.021,-79.8753,-137.5005
11:24:24.030,-78.5315,-127.188
11:24:24.040,-77.1253,-113.5004
11:24:24.051,-74.4378,-99.9379
11:24:24.060,-70.4065,-84.1253
11:24:24.071,-65.969,-68.0628
11:24:24.082,-60.844,-53.3752
11:24:24.090,-57.2815,-38.8126
11:24:24.100,-53.094,-28.1876
11:24:24.111,-49.0627,-16.5001
11:24:24.121,-45.5939,-6.375
11:24:24.132,-42.0627,1.4375
11:24:24.142,-40.1252,8.625
11:24:24.150,-37.5939,14.9376
11:24:24.162,-35.4376,21.8126
11:24:24.177,-33.0314,26.3751
11:24:24.181,-30.4064,32.5001
11:24:24.191,-28.8751,34.7501
11:24:24.200,-27.3126,38.5626
11:24:24.210,-26.5939,40.1252
11:24:24.220,-25.9063,41.5002
11:24:24.232,-24.9376,42.8127
11:24:24.241,-25.1563,41.0002
11:24:24.250,-25.2813,37.6251
11:24:24.260,-25.7813,33.5626
11:24:24.278,-26.6564,30.1251
11:24:24.285,-27.3751,23.4376
11:24:24.293,-28.5314,18.8126
11:24:24.302,-29.0626,13.0625
11:24:24.316,-29.0939,9.0625
11:24:24.324,-30.1251,4.25
11:24:24.332,-30.5314,0.5
11:24:24.340,-31.1251,-2.5625
11:24:24.359,-31.1876,-5.9375
11:24:24.362,-31.2501,-7.75
11:24:24.377,-31.0314,-10.375
11:24:24.391,-30.6564,-11.3125
11:24:24.394,-30.3439,-14.5001
11:24:24.403,-30.2501,-15.5001
11:24:24.410,-30.3126,-17.8751
11:24:24.420,-29.2189,-17.8751
11:24:24.430,-27.9376,-17.9376
11:24:24.440,-26.8439,-20.1876
11:24:24.451,-26.0938,-18.6251
11:24:24.461,-23.8751,-19.3751
11:24:24.470,-22.6563,-19.1876
11:24:24.482,-21.0001,-20.1876
11:24:24.490,-20.6251,-20.2501
11:24:24.518,-20.3126,-21.3126
11:24:24.520,-19.1563,-21.8126
11:24:24.524,-19.2813,-21.8126
11:24:24.557,-17.5001,-22.7501
11:24:24.558,-17.0313,-23.1876
11:24:24.560,-14.7188,-22.6876
11:24:24.565,-13.4688,-20.5626
11:24:24.571,-10.2813,-18.7501
11:24:24.614,-4.9063,-13.4376
11:24:24.614,-0.6875,-8.75
11:24:24.618,4.8125,-3.8125
11:24:24.619,9.7188,4.1875
11:24:24.624,16.4063,8.625
11:24:24.632,21.0626,12.4375
11:24:24.663,23.3751,13.6876
11:24:24.666,25.5313,13.5626
11:24:24.668,27.5001,13.6876
11:24:24.672,28.6251,13.8126
11:24:24.704,30.2189,11.5
11:24:24.711,30.0314,9.375
11:24:24.711,30.1876,6.0625
11:24:24.714,29.2501,3.8125
11:24:24.724,29.3439,1
11:24:24.734,28.2189,-2.625
11:24:24.740,26.3126,-6.75
11:24:24.751,25.9376,-10.625
11:24:24.760,23.4063,-15.2501
11:24:24.771,18.8438,-22.7501
11:24:24.781,14.0938,-31.6251
11:24:24.790,9.8438,-37.2501
11:24:24.803,6.9375,-40.7502
11:24:24.811,6.2188,-37.3126
11:24:24.822,8.2188,-27.7501
11:24:24.831,12.9688,-15.1876
11:24:24.840,16.8126,-1.25
11:24:24.851,21.5938,14.6876
11:24:24.860,28.1564,33.3126
11:24:24.871,36.8126,52.3127
11:24:24.881,44.3127,70.5628
11:24:24.890,49.9689,85.3753
11:24:24.901,55.0315,99.3129
11:24:24.912,56.5002,107.0629
11:24:24.921,55.3127,108.1254
11:24:24.932,51.5002,104.4379
11:24:24.942,46.0314,98.6254
11:24:24.951,41.6564,92.5629
11:24:24.962,35.6876,87.5628
11:24:24.971,29.8751,79.1253
11:24:24.984,22.5938,71.1878
11:24:24.991,14.8438,62.3127
11:24:25.001,3.2188,49.5627
11:24:25.010,-8.75,36.8126
11:24:25.022,-21.0938,22.6251
11:24:25.031,-34.1251,6.8125
11:24:25.041,-46.1877,-7.4375
11:24:25.052,-54.0315,-17.3126
11:24:25.061,-59.8127,-25.3751
11:24:25.070,-64.1877,-32.3126
11:24:25.080,-66.219,-39.0001
11:24:25.092,-69.094,-43.5627
11:24:25.101,-69.719,-48.4377
11:24:25.111,-70.8128,-50.2502
11:24:25.121,-71.0003,-53.1877
11:24:25.130,-71.6878,-54.4377
11:24:25.141,-70.5315,-56.0002
11:24:25.151,-70.5628,-57.1252
11:24:25.163,-69.5315,-56.9377
11:24:25.171,-67.969,-58.2502
11:24:25.182,-68.5003,-58.4377
11:24:25.190,-66.969,-59.8752
11:24:25.200,-66.1253,-60.8127
11:24:25.212,-66.0003,-62.3752
11:24:25.221,-65.844,-64.3127
11:24:25.230,-65.094,-66.5003
11:24:25.241,-64.9065,-67.8128
11:24:25.253,-65.5003,-72.4378
11:24:25.261,-64.5002,-74.1878
11:24:25.272,-65.2502,-75.7503
11:24:25.283,-64.969,-79.6878
11:24:25.291,-64.0002,-82.1878
11:24:25.307,-64.9377,-84.7503
11:24:25.327,-64.4065,-87.8753
11:24:25.329,-64.2502,-89.7503
11:24:25.336,-64.4377,-91.0629
11:24:25.363,-64.1565,-94.1879
11:24:25.365,-63.5627,-96.6254
11:24:25.368,-63.0627,-97.8129
11:24:25.404,-63.8752,-99.3754
11:24:25.406,-62.844,-100.4379
11:24:25.411,-61.4065,-101.6254
11:24:25.412,-62.344,-103.1879
11:24:25.417,-61.6252,-105.0004
11:24:25.448,-61.5315,-105.2504
11:24:25.450,-61.219,-107.1879
11:24:25.453,-60.5315,-107.7504
11:24:25.458,-60.3752,-109.3754
11:24:25.493,-60.5627,-111.6254
11:24:25.495,-59.7502,-112.6879
11:24:25.498,-58.1877,-114.5004
11:24:25.500,-58.3127,-114.8129
11:24:25.507,-57.0627,-116.8754
11:24:25.523,-55.4377,-115.8129
11:24:25.525,-52.0939,-113.0004
11:24:25.536,-48.0627,-107.3754
11:24:25.547,-41.9377,-97.0004
11:24:25.556,-36.2189,-86.1878
11:24:25.568,-30.3126,-72.0628
11:24:25.576,-23.8438,-54.6252
11:24:25.587,-15.5938,-36.7501
11:24:25.601,-6.0938,-14.7501
11:24:25.609,1.8125,7.4375
11:24:25.617,11.5938,29.4376
11:24:25.632,20.6563,50.8752
11:24:25.639,29.7189,72.8128
11:24:25.647,39.0314,92.9379
11:24:25.657,47.5002,111.6254
11:24:25.677,56.0315,128.7505
11:24:25.680,65.1878,145.313
11:24:25.690,74.219,162.7506
11:24:25.709,84.3441,178.3132
11:24:25.711,93.5629,193.3757
11:24:25.719,99.6566,203.3758
11:24:25.726,104.8754,210.5633
11:24:25.736,108.0629,216.5008
11:24:25.748,110.8754,218.3758
11:24:25.756,111.1254,220.4383
11:24:25.765,112.7192,220.3133
11:24:25.798,111.5942,219.5008
11:24:25.801,111.1254,217.1258
11:24:25.803,110.2817,210.6883
11:24:25.808,107.7504,204.1883
11:24:25.817,104.7504,196.3133
11:24:25.826,101.1879,186.9382
11:24:25.838,96.5316,175.9382
11:24:25.846,90.8441,163.5631
11:24:25.856,85.1566,151.3756
11:24:25.866,79.2816,138.2505
11:24:25.876,72.6565,125.313
11:24:25.887,67.2815,114.5004
11:24:25.897,62.6252,103.8754
11:24:25.906,58.5627,94.9379
11:24:25.916,56.3127,88.9378
11:24:25.928,55.4377,86.1878
11:24:25.937,53.7502,82.5628
11:24:25.947,52.3439,79.3753
11:24:25.957,52.4064,77.5003
11:24:25.966,53.969,76.9378
11:24:26.006,55.719,81.0628
11:24:26.007,57.719,80.9378
11:24:26.010,58.594,81.2503
11:24:26.012,58.5627,77.8753
11:24:26.018,54.969,71.3753
11:24:26.049,49.7189,61.3127
11:24:26.052,43.0002,47.5627
11:24:26.054,36.3439,35.6251
11:24:26.060,28.8751,20.5626
11:24:26.068,21.5938,8.3125
11:24:26.095,14.3751,-6.625
11:24:26.098,6,-19.3751
11:24:26.100,-2.75,-33.2501
11:24:26.108,-12.5625,-48.4377
11:24:26.136,-23.5938,-62.1877
11:24:26.139,-35.2189,-76.4378
11:24:26.141,-46.4689,-89.8753
11:24:26.147,-56.7502,-102.2504
11:24:26.158,-65.7815,-113.1879
11:24:26.166,-74.0003,-121.813
11:24:26.178,-80.1878,-128.2505
11:24:26.187,-83.9066,-133.0005
11:24:26.198,-86.6878,-136.1255
11:24:26.207,-87.6878,-140.2505
11:24:26.216,-88.8441,-141.188
11:24:26.227,-89.2503,-143.563
11:24:26.236,-89.7816,-144.313
11:24:26.246,-89.2503,-146.3756
11:24:26.256,-89.6566,-148.1256
11:24:26.272,-89.5941,-149.9381
11:24:26.275,-89.5003,-150.7506
11:24:26.287,-89.1566,-152.5631
11:24:26.297,-87.5941,-153.5006
11:24:26.308,-87.2191,-153.7506
11:24:26.321,-85.7503,-152.8131
11:24:26.329,-82.3128,-146.2505
11:24:26.336,-78.4066,-138.2505
11:24:26.346,-72.9065,-125.938
11:24:26.356,-67.7503,-110.3129
11:24:26.366,-61.0627,-92.6254
11:24:26.377,-54.2502,-73.6878
11:24:26.386,-47.5314,-52.4377
11:24:26.396,-40.7502,-34.9376
11:24:26.406,-33.4689,-16.0626
11:24:26.416,-28.2189,2.1875
11:24:26.426,-22.3126,16.5626
11:24:26.436,-16.0001,32.1876
11:24:26.446,-12.125,44.1877
11:24:26.457,-8.25,54.7502
11:24:26.468,-5.1875,66.0003
11:24:26.477,-1.75,73.8128
11:24:26.486,1.375,82.1253
11:24:26.496,3.1563,89.5628
11:24:26.506,5.0313,93.6254
11:24:26.516,6.7188,98.7504
11:24:26.526,7.875,102.6254
11:24:26.536,9.3125,104.8129
11:24:26.546,9.875,106.7504
11:24:26.558,10.0625,106.0629
11:24:26.566,10.1875,103.7504
11:24:26.577,9,100.7504
11:24:26.586,8.4375,95.8754
11:24:26.596,9.5,90.3128
11:24:26.607,9.0938,85.1878
11:24:26.617,10.2813,81.5628
11:24:26.626,12,80.0628
11:24:26.636,15.0938,79.9378
11:24:26.649,15.8438,77.4378
11:24:26.657,17.0626,73.9378
11:24:26.666,16.8126,71.0628
11:24:26.677,18.2188,70.4378
11:24:26.687,20.5001,70.8128
11:24:26.726,22.5001,70.8753
11:24:26.729,24.9688,72.1878
11:24:26.732,28.0001,73.6878
11:24:26.734,32.0001,77.2503
11:24:26.738,35.4376,80.1253
11:24:26.768,39.7189,83.3128
11:24:26.770,45.2814,87.1878
11:24:26.773,50.0314,91.8129
11:24:26.779,55.4065,95.5004
11:24:26.814,62.094,100.4379
11:24:26.817,67.8128,105.7504
11:24:26.820,72.5003,105.3754
11:24:26.852,73.5628,104.6254
11:24:26.853,75.6565,101.0004
11:24:26.856,75.469,98.1254
11:24:26.862,75.6565,93.1254
11:24:26.862,75.0003,89.4378
11:24:26.869,73.6253,84.4378
11:24:26.877,73.0003,79.2503
11:24:26.886,71.5628,74.6878
11:24:26.896,71.0315,69.7503
11:24:26.906,68.719,65.1252
11:24:26.922,66.844,59.5002
11:24:26.929,65.344,53.5627
11:24:26.937,63.7502,50.6252
11:24:26.946,63.2815,44.6252
11:24:26.963,60.4065,40.2502
11:24:26.977,57.3752,34.4376
11:24:26.980,53.719,27.6251
11:24:26.995,51.5627,21.0001
11:24:26.998,49.7189,17.0001
11:24:27.012,48.4689,12.375
11:24:27.027,45.9064,8.875
11:24:27.030,44.9064,5.5625
11:24:27.045,44.1252,4
11:24:27.047,44.4064,3.5625
11:24:27.079,43.5627,0.25
11:24:27.080,41.6877,-3.1875
11:24:27.082,39.9689,-6
11:24:27.086,38.5939,-9.5625
11:24:27.098,36.9689,-11.75
11:24:27.106,35.6564,-15.8751
11:24:27.118,33.5939,-18.6876
11:24:27.126,31.1564,-23.3126
11:24:27.136,29.7189,-25.6876
11:24:27.146,28.3439,-28.8126
11:24:27.156,27.2814,-32.0626
11:24:27.167,26.3126,-35.6251
11:24:27.176,24.3751,-38.8751
11:24:27.189,22.8751,-41.4377
11:24:27.196,21.2813,-43.6252
11:24:27.207,19.6876,-47.6252
11:24:27.216,16.9688,-51.8752
11:24:27.226,14.6251,-53.8127
11:24:27.236,13.6876,-58.1252
11:24:27.247,10.375,-62.3127
11:24:27.256,8.6875,-66.4378
11:24:27.266,7.0938,-69.2503
11:24:27.277,6.0938,-71.8753
11:24:27.286,3.6875,-76.1253
11:24:27.296,1.9375,-80.4378
11:24:27.306,-0.25,-84.1878
11:24:27.316,-2.5313,-89.3128
11:24:27.327,-4.8438,-92.5629
11:24:27.337,-5.875,-95.5004
11:24:27.346,-7.8438,-98.6254
11:24:27.356,-8.6563,-102.1879
11:24:27.367,-10.3125,-105.5629
11:24:27.376,-11.125,-107.8129
11:24:27.387,-11.9375,-109.0004
11:24:27.399,-11.8438,-111.3754
11:24:27.409,-11.25,-108.7504
11:24:27.416,-8.5,-102.1254
11:24:27.426,-5.0938,-91.4379
11:24:27.436,0.375,-76.1253
11:24:27.446,5.375,-58.1252
11:24:27.457,10.9063,-39.1251
11:24:27.466,16.3126,-20.5626
11:24:27.476,21.4688,0.4375
11:24:27.490,26.9376,18.0626
11:24:27.528,34.0939,36.3126
11:24:27.529,37.7501,53.0002
11:24:27.530,42.6564,67.4378
11:24:27.533,46.2502,81.1253
11:24:27.537,50.6877,93.3129
11:24:27.571,53.1565,103.5004
11:24:27.573,56.344,113.5629
11:24:27.575,57.8752,121.438
11:24:27.583,60.0315,128.8755
11:24:27.592,62.7815,137.188
11:24:27.598,64.1252,142.2505
11:24:27.637,65.469,148.3131
11:24:27.639,65.3753,150.6881
11:24:27.644,65.8128,153.6256
11:24:27.646,66.469,155.0006
11:24:27.648,66.0315,155.3756
11:24:27.661,65.2502,153.9381
11:24:27.666,62.9065,150.1881
11:24:27.677,61.5627,145.8755
11:24:27.686,58.3752,137.938
11:24:27.697,55.9377,130.438
11:24:27.707,53.1565,122.563
11:24:27.716,50.0314,112.4379
11:24:27.728,47.5314,103.8754
11:24:27.737,44.1252,96.1879
11:24:27.746,42.1877,88.0628
11:24:27.757,39.7189,82.5628
11:24:27.766,38.6876,75.3753
11:24:27.781,36.0626,69.9378
11:24:27.787,34.5626,65.5627
11:24:27.796,33.9064,60.9377
11:24:27.806,33.0314,58.1877
11:24:27.818,33.0001,55.7502
11:24:27.826,31.6564,52.1252
11:24:27.836,29.1564,47.3752
11:24:27.846,27.9064,43.0002
11:24:27.856,26.6876,38.1251
11:24:27.866,25.1251,32.8126
11:24:27.877,23.5626,28.1251
11:24:27.886,21.8126,23.5626
11:24:27.897,19.9376,19.3126
11:24:27.908,18.8126,13.5626
11:24:27.916,17.4376,9.0625
11:24:27.926,17.4688,5.3125
11:24:27.936,15.7188,0.75
11:24:27.947,13.5938,-3.75
11:24:27.956,12.9688,-8.8125
11:24:27.966,10.1875,-13.3126
11:24:27.976,8.5313,-17.7501
11:24:27.986,6.9375,-22.6251
11:24:27.997,5.7813,-26.1251
11:24:28.006,4.7188,-30.4376
11:24:28.016,3.1875,-34.2501
11:24:28.026,2.5,-38.7501
11:24:28.036,1.3125,-41.6252
11:24:28.047,0.0625,-44.5002
11:24:28.056,-0.75,-48.0627
11:24:28.066,-1.9063,-51.3127
11:24:28.076,-2.5,-54.8127
11:24:28.087,-3,-57.8752
11:24:28.096,-3.875,-60.1252
11:24:28.106,-4.7813,-62.2502
11:24:28.116,-5.8125,-65.5002
11:24:28.126,-7,-69.0003
11:24:28.136,-8.2188,-72.2503
11:24:28.146,-9.9375,-74.6878
11:24:28.156,-10.5938,-78.4378
11:24:28.166,-11.2813,-81.0628
11:24:28.178,-12.4063,-83.8128
11:24:28.186,-13.5938,-86.6878
11:24:28.197,-13.9063,-88.3128
11:24:28.207,-14.3126,-90.6254
11:24:28.223,-14.7813,-92.6254
11:24:28.227,-15.5001,-94.0004
11:24:28.289,-16.3438,-97.3754
11:24:28.292,-17.3126,-98.3754
11:24:28.294,-17.5001,-100.0004
11:24:28.297,-18.9376,-103.3754
11:24:28.330,-18.7813,-104.0629
11:24:28.331,-20.1876,-106.6879
11:24:28.331,-19.9376,-108.0004
11:24:28.333,-20.9063,-109.3754
11:24:28.357,-22.0313,-112.7504
11:24:28.364,-22.0626,-113.6254
11:24:28.364,-23.5001,-115.6254
11:24:28.364,-24.0001,-118.0005
11:24:28.372,-23.8126,-117.6255
11:24:28.398,-23.5001,-119.438
11:24:28.400,-24.9688,-120.2505
11:24:28.405,-25.2501,-123.5005
11:24:28.415,-24.2188,-123.813
11:24:28.421,-24.4376,-122.5005
11:24:28.431,-23.7501,-119.188
11:24:28.441,-20.8438,-112.6254
11:24:28.451,-18.1876,-102.0004
11:24:28.462,-13.6251,-87.2503
11:24:28.471,-10.25,-72.4378
11:24:28.481,-3.25,-46.5627
11:24:28.492,0.75,-30.0626
11:24:28.501,4.8438,-13.6876
11:24:28.512,8.8438,1.75
11:24:28.521,11.875,13.1876
11:24:28.531,17.8126,36.1876
11:24:28.541,20.2813,43.9377
11:24:28.551,22.7813,50.7502
11:24:28.561,24.2501,57.5627
11:24:28.571,26.8439,62.9377
11:24:28.583,27.0626,67.8753
11:24:28.591,29.0939,71.3753
11:24:28.601,29.8751,75.6878
11:24:28.611,31.0939,79.3753
11:24:28.621,31.9376,80.6253
11:24:28.632,31.7189,83.9378
11:24:28.642,32.3439,83.7503
11:24:28.653,32.7189,83.1878
11:24:28.662,31.5001,81.2503
11:24:28.672,31.3751,78.3128
11:24:28.681,29.7501,74.5003
11:24:28.691,28.3751,70.6253
11:24:28.702,27.5939,65.5002
11:24:28.711,26.2813,60.3752
11:24:28.722,24.1251,54.7502
11:24:28.731,22.4376,51.8752
11:24:28.741,21.5626,47.8127
11:24:28.752,20.9688,45.5002
11:24:28.764,20.9063,43.1877
11:24:28.771,19.4688,40.4377
11:24:28.782,18.9688,39.1877
11:24:28.791,18.5938,36.4376
11:24:28.801,17.7501,34.6876
11:24:28.811,17.0001,33.2501
11:24:28.822,16.7813,30.2501
11:24:28.831,15.6876,27.1251
11:24:28.841,15.6876,24.9376
11:24:28.853,14.5626,23.1251
11:24:28.876,13.9063,19.9376
11:24:28.879,12.8125,15.5626
11:24:28.881,11.4375,12.8125
11:24:28.925,11.125,8.8125
11:24:28.927,9.9688,6.1875
11:24:28.929,8.5938,1.8125
11:24:28.932,8.2813,-2.1875
11:24:28.936,7.0938,-5
11:24:28.943,6.9063,-7.875
11:24:28.972,5.1875,-11.3125
11:24:28.974,4.0625,-14.4376
11:24:28.976,3.375,-18.7501
11:24:28.982,1.7188,-21.1876
11:24:29.014,0.6875,-24.5001
11:24:29.016,0.375,-28.1251
11:24:29.020,-1.1875,-30.6876
11:24:29.025,-1.8438,-34.7501
11:24:29.050,-2.5938,-37.2501
11:24:29.052,-3.1875,-39.5002
11:24:29.054,-4.5625,-42.0627
11:24:29.061,-4.625,-44.8127
11:24:29.071,-5.5938,-47.3752
11:24:29.081,-6.9375,-50.0627
11:24:29.092,-7.625,-52.2502
11:24:29.101,-8.7188,-54.2502
11:24:29.111,-8.4063,-56.0002
11:24:29.122,-9.25,-58.4377
11:24:29.131,-9.0625,-59.8752
11:24:29.142,-10.25,-61.6877
11:24:29.151,-9.875,-63.1252
11:24:29.162,-11.4688,-65.0627
11:24:29.171,-11.4375,-66.9378
11:24:29.182,-12.8125,-68.5003
11:24:29.192,-12.625,-70.6253
11:24:29.201,-13.6563,-72.1878
11:24:29.213,-14.4376,-74.6878
11:24:29.221,-15.1251,-76.3753
11:24:29.232,-15.8751,-79.1878
11:24:29.242,-15.9063,-80.7503
11:24:29.252,-17.4376,-81.3128
11:24:29.262,-17.5626,-84.4378
11:24:29.271,-17.5938,-86.2503
11:24:29.281,-18.1251,-86.6253
11:24:29.292,-18.1876,-88.5003
11:24:29.302,-17.0938,-86.4378
11:24:29.313,-15.9376,-80.6253
11:24:29.326,-13.5626,-74.4378
11:24:29.336,-10.125,-61.7502
11:24:29.347,-6.1563,-48.1252
11:24:29.356,-1.75,-31.9376
11:24:29.366,1.625,-15.6876
11:24:29.376,6.625,0
11:24:29.386,10.875,16.0001
11:24:29.396,14.4688,32.0001
11:24:29.406,18.5626,44.3127
11:24:29.416,21.7501,56.7502
11:24:29.429,25.5313,65.5003
11:24:29.438,28.5939,74.8753
11:24:29.446,30.3126,82.6878
11:24:29.456,32.6876,90.1253
11:24:29.466,34.6564,96.9379
11:24:29.476,36.4376,101.4379
11:24:29.486,38.0001,110.6879
11:24:29.497,40.0939,115.1879
11:24:29.506,40.4377,117.5005
11:24:29.516,41.4064,119.313
11:24:29.527,42.4689,122.188
11:24:29.547,42.4377,123.1255
11:24:29.549,42.1252,122.8755
11:24:29.564,41.9689,121.938
11:24:29.566,40.2814,117.8755
11:24:29.576,39.7189,113.5004
11:24:29.586,37.9064,108.2504
11:24:29.610,37.1564,103.2504
11:24:29.614,35.2501,97.1879
11:24:29.641,33.7501,91.4379
11:24:29.642,31.5626,84.8128
11:24:29.645,30.4064,80.3128
11:24:29.650,29.3126,75.0003
11:24:29.681,27.8439,71.5628
11:24:29.685,26.4689,67.6253
11:24:29.686,26.0938,64.6877
11:24:29.715,25.0938,61.0627
11:24:29.717,24.6251,59.1877
11:24:29.719,23.6563,56.0627
11:24:29.725,22.4688,53.6252
11:24:29.726,22.0626,50.0002
11:24:29.768,20.2813,46.0627
11:24:29.770,19.4063,44.1252
11:24:29.773,18.7813,39.1251
11:24:29.775,17.2813,36.0626
11:24:29.781,16.4688,32.5001
11:24:29.788,15.0313,27.3751
11:24:29.815,13.2813,24.0626
11:24:29.818,12.5313,19.1876
11:24:29.820,10.9688,14.4376
11:24:29.827,9.5313,10.5
11:24:29.836,8.125,5.375
11:24:29.847,6.125,1.6875
11:24:29.856,5.3125,-3.0625
11:24:29.866,3.6875,-6.3125
11:24:29.876,3.3125,-10.6875
11:24:29.887,1.25,-14.8751
11:24:29.897,0.7188,-18.2501
11:24:29.906,-0.3125,-21.5001
11:24:29.916,-1.2813,-25.5001
11:24:29.926,-1.4063,-28.6876
11:24:29.937,-3.3125,-31.6876
11:24:29.947,-3.9688,-34.0626
11:24:29.956,-4.5938,-37.1251
11:24:29.966,-4.9688,-39.1251
11:24:29.978,-5.875,-41.7502
11:24:29.986,-6.625,-45.4377
11:24:29.996,-8.0313,-47.6877
11:24:30.006,-8.8438,-50.5002
11:24:30.016,-9.25,-54.0627
11:24:30.026,-9.6563,-56.3752
11:24:30.036,-11.9688,-58.3127
11:24:30.046,-11.4375,-61.6877
11:24:30.057,-12.1875,-61.7502
11:24:30.069,-11.9375,-65.5628
11:24:30.076,-11.9688,-66.5003
11:24:30.086,-13.8126,-69.1878
11:24:30.096,-14.0938,-71.5628
11:24:30.106,-14.4688,-72.4378
11:24:30.116,-15.0001,-74.4378
11:24:30.133,-15.4376,-77.3753
11:24:30.142,-16.0626,-79.5628
11:24:30.151,-17.0626,-81.9378
11:24:30.162,-17.1876,-84.8753
11:24:30.171,-17.6563,-86.3128
11:24:30.182,-18.6876,-87.3753
11:24:30.192,-18.8126,-89.4378
11:24:30.202,-18.1876,-87.7503
11:24:30.211,-16.6251,-81.6878
11:24:30.222,-13.2501,-73.4378
11:24:30.231,-9.6875,-59.9377
11:24:30.242,-5.75,-44.5002
11:24:30.251,-1.3125,-28.8751
11:24:30.261,2.8438,-10.5
11:24:30.271,7.9375,3.9375
11:24:30.282,11.625,19.7501
11:24:30.293,16.5313,40.9377
11:24:30.301,20.7813,51.6877
11:24:30.311,23.8751,62.2502
11:24:30.321,25.9376,71.1878
11:24:30.332,27.8439,79.5003
11:24:30.341,30.8751,86.1253
11:24:30.353,31.3751,91.5629
11:24:30.361,33.7189,96.1879
11:24:30.371,34.7189,101.7504
11:24:30.383,35.2814,106.5004
11:24:30.391,36.5939,109.5004
11:24:30.407,37.9376,111.5629
11:24:30.411,39.7502,114.8754
11:24:30.442,38.9064,116.3754
11:24:30.444,40.0314,117.3754
11:24:30.447,39.2189,116.0004
11:24:30.453,39.2814,113.3754
11:24:30.496,38.2814,110.6254
11:24:30.500,36.9689,104.3754
11:24:30.502,34.5939,100.5629
11:24:30.503,33.6876,93.8754
11:24:30.505,32.0001,88.4378
11:24:30.534,30.8126,82.7503
11:24:30.536,28.5314,79.1878
11:24:30.541,27.7814,73.2503
11:24:30.546,26.2188,69.3753
11:24:30.554,25.1251,66.0003
11:24:30.581,24.8751,63.1252
11:24:30.586,23.6563,58.8127
11:24:30.588,22.1876,56.3127
11:24:30.594,21.6251,53.0627
11:24:30.603,20.0313,50.4377
11:24:30.611,19.9688,46.9377
11:24:30.622,18.3751,44.5627
11:24:30.631,17.6876,40.0002
11:24:30.642,16.5313,37.1251
11:24:30.652,15.5313,32.6876
11:24:30.661,14.0313,30.4376
11:24:30.671,13.1876,25.5626
11:24:30.681,11.3438,21.0001
11:24:30.691,10.5625,16.2501
11:24:30.703,8.8438,12.0625
11:24:30.711,7.9063,7.75
11:24:30.721,6.5313,4.125
11:24:30.732,5.5625,-0.8125
11:24:30.742,4.25,-3.9375
11:24:30.751,3.1563,-8.0625
11:24:30.761,1.4063,-11.8125
11:24:30.772,1.0938,-15.8751
11:24:30.782,-0.5313,-19.4376
11:24:30.791,-1,-23.1251
11:24:30.802,-2.75,-26.0626
11:24:30.811,-3.25,-29.5001
11:24:30.822,-4.375,-32.6251
11:24:30.843,-5.6875,-37.3751
11:24:30.848,-6.75,-38.7501
11:24:30.862,-7.0938,-42.5627
11:24:30.865,-8.7813,-44.8752
11:24:30.872,-8.75,-47.8752
11:24:30.882,-9.875,-50.0002
11:24:30.891,-9.5313,-52.7502
11:24:30.924,-11.2188,-54.4377
11:24:30.927,-12,-57.4377
11:24:30.929,-12.3125,-60.0627
11:24:30.934,-13.6563,-63.0002
11:24:30.941,-13.8438,-64.9377
11:24:30.953,-14.9063,-67.4378
11:24:30.961,-16.3438,-68.5628
11:24:30.972,-16.8751,-72.2503
11:24:30.981,-16.7501,-74.6253
11:24:30.992,-17.9688,-76.6878
11:24:31.003,-17.5626,-78.3753
11:24:31.013,-18.9376,-80.7503
11:24:31.021,-18.8438,-83.1253
11:24:31.032,-20.5626,-85.3753
11:24:31.043,-20.6563,-87.8128
11:24:31.069,-20.7813,-90.6253
11:24:31.072,-22.3438,-91.6254
11:24:31.074,-21.4376,-94.1254
11:24:31.117,-21.0626,-92.3754
11:24:31.118,-19.8751,-89.5628
11:24:31.121,-17.0001,-80.1253
11:24:31.123,-13.6876,-67.6253
11:24:31.129,-9.6875,-53.9377
11:24:31.141,-6.1563,-38.1876
11:24:31.145,-1.5,-21.8126
11:24:31.184,2.375,-5.25
11:24:31.187,6.0625,10.1875
11:24:31.191,9.6563,24.8751
11:24:31.197,13.4063,36.8126
11:24:31.197,16.4376,48.3752
11:24:31.202,17.9376,57.7502
11:24:31.232,19.7501,64.1877
11:24:31.234,21.4063,71.0003
11:24:31.238,23.3438,75.3128
11:24:31.245,25.8751,81.3128
11:24:31.254,26.0313,85.5003
11:24:31.261,27.6876,88.7503
11:24:31.272,28.5001,91.7504
11:24:31.281,29.3439,94.3129
11:24:31.293,31.0626,96.7504
11:24:31.301,30.4376,98.0004
11:24:31.313,30.5314,98.0629
11:24:31.322,30.8751,96.5629
11:24:31.336,29.3126,94.2504
11:24:31.343,28.5314,90.5004
11:24:31.353,26.5314,86.5003
11:24:31.361,25.2813,80.8753
11:24:31.373,24.0938,75.5628
11:24:31.384,22.0938,69.0003
11:24:31.393,21.3126,64.6877
11:24:31.402,19.0313,59.5002
11:24:31.411,17.7188,55.6877
11:24:31.422,17.0001,51.7502
11:24:31.432,15.0938,47.6877
11:24:31.442,15.0626,45.3127
11:24:31.453,13.7188,42.3127
11:24:31.462,13.8751,40.6252
11:24:31.472,13.0625,39.3752
11:24:31.481,13.3126,37.0626
11:24:31.492,12.25,34.6876
11:24:31.501,12.5938,31.7501
11:24:31.513,10.875,30.1251
11:24:31.522,9.125,26.0001
11:24:31.534,8.5,21.3126
11:24:31.542,7.0625,17.6876
11:24:31.551,6.75,13.8126
11:24:31.562,5.0938,10.75
11:24:31.572,4.9688,5.9375
11:24:31.582,3.0625,2.375
11:24:31.591,2.75,-1.8125
11:24:31.602,0.5938,-5.5
11:24:31.612,-0.9063,-10.25
11:24:31.621,-1.7188,-14.0001
11:24:31.632,-3.25,-19.5626
11:24:31.642,-4.6563,-21.8126
11:24:31.653,-5.0313,-26.8751
11:24:31.661,-6.375,-28.5001
11:24:31.672,-6.5938,-33.0626
11:24:31.683,-8.2813,-36.5001
11:24:31.691,-8.75,-39.6877
11:24:31.703,-10.4063,-43.1877
11:24:31.711,-11.0938,-46.8127
11:24:31.722,-12.3125,-49.3752
11:24:31.732,-12.7813,-52.8127
11:24:31.742,-14.4063,-55.6877
11:24:31.751,-14.7813,-58.3127
11:24:31.762,-16.0626,-58.9377
11:24:31.772,-16.6876,-63.7502
11:24:31.816,-17.1563,-65.6878
11:24:31.817,-18.2813,-67.4378
11:24:31.820,-19.4063,-71.3753
11:24:31.823,-19.3438,-72.6878
11:24:31.824,-20.2188,-74.6253
11:24:31.834,-21.5626,-77.7503
11:24:31.849,-21.4376,-80.8128
11:24:31.852,-22.5313,-82.3753
11:24:31.882,-23.6251,-86.2503
11:24:31.884,-23.5313,-88.0628
11:24:31.886,-24.2501,-89.8128
11:24:31.921,-24.5938,-90.5003
11:24:31.924,-23.4376,-87.8128
11:24:31.926,-20.8438,-81.2503
11:24:31.933,-18.1251,-70.8128
11:24:31.933,-14.9376,-58.1252
11:24:31.961,-10.2188,-43.6252
11:24:31.964,-6.8125,-29.0626
11:24:31.966,-2.375,-12.375
11:24:31.973,2.4688,2.625
11:24:31.982,5.0938,16.5001
11:24:31.992,8.9063,27.6251
11:24:32.002,10.9375,38.1876
11:24:32.013,13.6563,46.8752
11:24:32.023,15.8751,52.9377
11:24:32.032,17.8751,58.7502
11:24:32.042,18.1563,62.5627
11:24:32.051,19.1563,65.0627
11:24:32.062,19.7501,67.7503
11:24:32.072,19.7813,70.2503
11:24:32.088,20.3751,71.0003
11:24:32.092,19.8126,70.8753
11:24:32.102,18.8751,69.5003
11:24:32.111,18.5626,69.3753
11:24:32.123,17.6251,66.3753
11:24:32.143,16.6563,62.6877
11:24:32.149,14.9376,60.2502
11:24:32.164,13.5938,54.5002
11:24:32.166,12.5938,51.2502
11:24:32.173,11.625,46.3127
11:24:32.207,9.5,41.7502
11:24:32.210,8.6875,37.5626
11:24:32.226,6.8438,34.3751
11:24:32.226,6.0625,32.0626
11:24:32.230,5.3438,28.3751
11:24:32.234,4.375,26.6876
11:24:32.243,3.375,23.9376
11:24:32.252,2.25,23.3126
11:24:32.263,1.7188,20.8751
11:24:32.272,1.5,20.1876
11:24:32.282,0.9375,17.1876
11:24:32.292,0.9688,16.9376
11:24:32.303,1.6563,15.3126
11:24:32.313,0.5625,12.875
11:24:32.323,0.1563,10.5
11:24:32.333,-1.1875,6.5
11:24:32.344,-2.5,3.75
11:24:32.353,-3.3438,0.0625
11:24:32.362,-4.0938,-3.0625
11:24:32.374,-4.8438,-7.75
11:24:32.381,-7,-10.625
11:24:32.393,-6.8438,-15.9376
11:24:32.403,-8.6563,-17.8751
11:24:32.413,-9.0625,-21.5001
11:24:32.422,-10.4063,-24.3751
11:24:32.432,-10.875,-28.4376
11:24:32.443,-12.0938,-31.9376
11:24:32.453,-13.5313,-35.0626
11:24:32.469,-14.5938,-37.5001
11:24:32.473,-14.9063,-40.8127
11:24:32.483,-15.8751,-43.0002
11:24:32.492,-15.8438,-46.0002
11:24:32.502,-17.6251,-47.1252
11:24:32.512,-17.0313,-49.5002
11:24:32.523,-17.7813,-50.5627
11:24:32.532,-17.7501,-53.3127
11:24:32.543,-17.9376,-54.7502
11:24:32.552,-18.8126,-56.3127
11:24:32.563,-19.2813,-58.4377
11:24:32.572,-19.4063,-60.3752
11:24:32.582,-19.8126,-62.9377
11:24:32.593,-19.8438,-65.0002
11:24:32.603,-21.0626,-65.8128
11:24:32.636,-20.2813,-67.7503
11:24:32.639,-20.7813,-69.0003
11:24:32.641,-21.1251,-69.5628
11:24:32.644,-19.7188,-67.8753
11:24:32.678,-17.5001,-60.2502
11:24:32.682,-15.1251,-50.1877
11:24:32.683,-11.4375,-37.7501
11:24:32.685,-7.4375,-23.1876
11:24:32.717,-3.625,-8.125
11:24:32.718,0.6563,9
11:24:32.720,5.5938,24.5001
11:24:32.726,9.6875,38.8751
11:24:32.738,12.9688,51.4377
11:24:32.742,16.1876,63.1252
11:24:32.781,19.6251,73.1253
11:24:32.783,21.6563,82.0628
11:24:32.785,23.9376,87.7503
11:24:32.790,25.2813,94.5629
11:24:32.794,26.5626,97.3129
11:24:32.803,27.1564,102.1879
11:24:32.812,27.9689,104.0629
11:24:32.823,28.3751,106.1879
11:24:32.833,28.7814,108.1254
11:24:32.844,29.1564,108.5004
11:24:32.853,29.3439,109.5004
11:24:32.863,28.4376,108.0629
11:24:32.872,27.4064,106.1254
11:24:32.883,25.8126,103.1879
11:24:32.892,24.4063,98.1254
11:24:32.903,23.7501,93.5629
11:24:32.913,21.5938,88.0628
11:24:32.922,19.9376,81.8128
11:24:32.933,17.6251,75.8753
11:24:32.942,17.1563,70.8753
11:24:32.953,15.8126,66.9378
11:24:32.962,14.3126,61.6252
11:24:32.972,13.5313,58.8127
11:24:32.983,11.9375,55.3752
11:24:32.993,11.0938,53.3752
11:24:33.003,10.125,49.6252
11:24:33.012,10.4063,47.8752
11:24:33.023,9.4063,44.9377
11:24:33.033,8.9375,43.3752
11:24:33.043,8.625,41.2502
11:24:33.052,7.7188,37.6876
11:24:33.062,7.4375,35.8126
11:24:33.073,6.7188,31.7501
11:24:33.083,5.0313,28.5001
11:24:33.093,4.5938,24.1876
11:24:33.102,3.3125,20.3751
11:24:33.112,1.9063,16.8751
11:24:33.123,1.1875,12.5625
11:24:33.133,-0.125,8.625
11:24:33.143,-0.25,5.1875
11:24:33.153,-2.2813,1.875
11:24:33.162,-2.8438,-2.3125
11:24:33.174,-3.5313,-6.375
11:24:33.182,-4.9688,-10.125
11:24:33.192,-5.6875,-13.8751
11:24:33.202,-7.0938,-17.9376
11:24:33.218,-7.5625,-21.3751
11:24:33.223,-8.1875,-23.8126
11:24:33.234,-9.7813,-26.6876
11:24:33.243,-9.5625,-29.9376
11:24:33.273,-11.625,-32.6876
11:24:33.275,-12.4375,-36.2501
11:24:33.277,-13.5626,-39.2502
11:24:33.284,-13.8751,-42.1877
11:24:33.314,-14.9376,-44.9377
11:24:33.317,-16.2188,-47.5002
11:24:33.319,-16.7813,-50.7502
11:24:33.323,-17.2188,-53.0002
11:24:33.353,-17.7188,-55.1252
11:24:33.356,-18.4063,-58.5627
11:24:33.358,-19.4063,-61.3752
11:24:33.390,-20.2501,-62.6877
11:24:33.392,-19.7813,-64.6877
11:24:33.393,-19.6563,-62.6252
11:24:33.399,-18.0938,-58.9377
11:24:33.429,-15.2501,-50.3752
11:24:33.446,-12.125,-37.8751
11:24:33.448,-7.875,-23.5001
11:24:33.480,-2.5,-5.8125
11:24:33.483,1.375,12.75
11:24:33.488,5.8438,28.6876
11:24:33.489,10.875,46.6252
11:24:33.489,14.9063,61.4377
11:24:33.504,19.0626,74.5628
11:24:33.519,23.8438,93.8754
11:24:33.521,26.1251,104.3754
11:24:33.527,28.6251,111.8129
11:24:33.538,30.5626,119.938
11:24:33.548,32.6564,126.063
11:24:33.558,34.0001,131.938
11:24:33.567,34.4064,135.1255
11:24:33.578,35.2189,139.5005
11:24:33.594,36.5314,141.813
11:24:33.599,36.3751,144.0005
11:24:33.608,36.2189,145.0005
11:24:33.617,35.5939,144.6255
11:24:33.627,34.7501,143.7505
11:24:33.637,34.2814,140.7505
11:24:33.647,32.5626,136.5005
11:24:33.658,28.6251,127.2505
11:24:33.669,26.0626,118.188
11:24:33.678,24.2813,109.8129
11:24:33.688,22.1251,101.8129
11:24:33.697,19.7813,94.2504
11:24:33.707,16.7501,86.4378
11:24:33.717,15.1876,79.4378
11:24:33.727,13.9688,74.0628
11:24:33.738,12.7188,68.1878
11:24:33.747,10.5938,63.5002
11:24:33.758,8.875,58.7502
11:24:33.767,8,53.8752
11:24:33.778,6.6875,51.3752
11:24:33.788,6.0625,46.8127
11:24:33.798,3.875,42.3752
11:24:33.807,2.5313,38.2501
11:24:33.817,1.3125,33.5001
11:24:33.829,0.4063,29.0626
11:24:33.837,-1.75,24.0001
11:24:33.848,-2.5625,18.9376
11:24:33.858,-4.5938,14.6251
11:24:33.867,-5.6875,10.875
11:24:33.878,-6.7813,6
11:24:33.887,-7.8438,0.1875
11:24:33.898,-9.9688,-4.3125
11:24:33.908,-11.9688,-8.8125
11:24:33.917,-12.8125,-14.1251
11:24:33.927,-13.5626,-18.3126
11:24:33.938,-14.9376,-23.0626
11:24:33.948,-16.9688,-28.1251
11:24:33.957,-18.6876,-32.1251
11:24:33.967,-19.9063,-35.6876
11:24:33.977,-20.3751,-39.4377
11:24:33.988,-21.1876,-43.0002
11:24:33.998,-22.3126,-46.3752
11:24:34.007,-23.2813,-49.6877
11:24:34.017,-23.7501,-53.0627
11:24:34.033,-24.5001,-56.2502
11:24:34.037,-25.4063,-58.9377
11:24:34.071,-26.0313,-62.3752
11:24:34.071,-27.1564,-65.0627
11:24:34.074,-27.7189,-66.8128
11:24:34.078,-28.1876,-70.5628
11:24:34.111,-28.4689,-72.4378
11:24:34.113,-29.8126,-75.8753
11:24:34.115,-30.4376,-77.8753
11:24:34.123,-31.0314,-81.3753
11:24:34.135,-31.4064,-83.7503
11:24:34.140,-33.1564,-87.8128
11:24:34.171,-33.1251,-90.0628
11:24:34.174,-34.5939,-91.6254
11:24:34.176,-35.0001,-95.0629
11:24:34.182,-33.9064,-97.5004
11:24:34.191,-35.4064,-98.8129
11:24:34.202,-34.5939,-98.3129
11:24:34.209,-34.0314,-94.0629
11:24:34.218,-30.9064,-85.3128
11:24:34.228,-28.0939,-73.1253
11:24:34.237,-24.0001,-58.6877
11:24:34.247,-19.1251,-40.5002
11:24:34.257,-14.9376,-23.0626
11:24:34.268,-9.8125,-3.375
11:24:34.278,-5.0938,12.9375
11:24:34.289,-0.5,30.1251
11:24:34.298,1.9375,44.8752
11:24:34.308,5.625,57.0627
11:24:34.318,9.3438,67.5628
11:24:34.328,11.9063,77.2503
11:24:34.344,14.3751,85.5003
11:24:34.349,15.6251,92.3129
11:24:34.358,17.1563,98.1879
11:24:34.367,18.7813,103.6254
11:24:34.378,20.0626,107.1879
11:24:34.389,20.8126,111.0004
11:24:34.397,21.1251,113.0629
11:24:34.407,21.1563,114.5629
11:24:34.417,20.7188,115.5004
11:24:34.427,20.4063,113.3129
11:24:34.439,19.3126,112.3129
11:24:34.447,18.2501,106.9379
11:24:34.457,15.9376,102.0004
11:24:34.467,14.5313,93.6254
11:24:34.477,12.8438,85.8753
11:24:34.488,10.375,78.3753
11:24:34.498,8,67.8128
11:24:34.507,5.3438,59.6877
11:24:34.518,3.6875,52.1252
11:24:34.528,1.5313,44.6252
11:24:34.538,-1,38.3126
11:24:34.548,-2.6563,30.8126
11:24:34.557,-4.3125,26.7501
11:24:34.567,-5.5938,21.6876
11:24:34.577,-7.0938,17.5001
11:24:34.588,-7.5625,14.6876
11:24:34.597,-8.625,11.875
11:24:34.607,-9.7188,8.9375
11:24:34.617,-11.125,5.5625
11:24:34.627,-11.7813,1.375
11:24:34.637,-13.0313,-3.0625
11:24:34.647,-13.8751,-6.1875
11:24:34.657,-15.5313,-11.1875
11:24:34.667,-16.5001,-15.1251
11:24:34.678,-16.8751,-19.0001
11:24:34.688,-18.1876,-23.8126
11:24:34.698,-19.5626,-27.0001
11:24:34.708,-20.8751,-33.2501
11:24:34.720,-22.2501,-35.9376
11:24:34.769,-22.5313,-41.6877
11:24:34.769,-24.5001,-45.1252
11:24:34.784,-24.8751,-50.2502
11:24:34.786,-26.4064,-53.3127
11:24:34.822,-27.1251,-58.4377
11:24:34.863,-28.6876,-61.1877
11:24:34.893,-29.2814,-66.6253
11:24:34.893,-30.8126,-69.3753
11:24:34.925,-31.6251,-73.8128
11:24:34.925,-31.6564,-76.6253
11:24:34.929,-32.7814,-79.0628
11:24:34.929,-33.1251,-82.5003
11:24:34.929,-34.2501,-85.1253
11:24:34.933,-35.1876,-86.8128
11:24:34.960,-34.9376,-90.3128
11:24:34.963,-35.6251,-91.1254
11:24:34.965,-35.4064,-94.3754
11:24:34.981,-36.0314,-94.7504
11:24:34.983,-35.7501,-97.1879
11:24:34.994,-36.8751,-98.8754
11:24:35.002,-36.9689,-100.7504
11:24:35.013,-37.5626,-103.0004
11:24:35.022,-38.6564,-104.7504
11:24:35.033,-39.1877,-107.5629
11:24:35.043,-42.6252,-119.0005
11:24:35.053,-43.0939,-121.313
11:24:35.062,-43.2814,-123.2505
11:24:35.073,-42.9689,-125.688
11:24:35.082,-42.9064,-127.563
11:24:35.095,-46.0939,-138.813
11:24:35.103,-42.7189,-128.5005
11:24:35.112,-39.1252,-112.8754
11:24:35.122,-34.8126,-96.2504
11:24:35.133,-30.8126,-79.5628
11:24:35.142,-26.6251,-61.1877
11:24:35.152,-22.0626,-44.2502
11:24:35.162,-18.0001,-27.2501
11:24:35.172,-13.8438,-11.625
11:24:35.182,-9.3438,2.375
11:24:35.193,-7.1875,14.6251
11:24:35.202,-3.1563,23.6876
11:24:35.212,-1.9375,33.9376
11:24:35.222,1.4688,40.0002
11:24:35.232,2.375,46.9377
11:24:35.242,3.7813,49.4377
11:24:35.252,4.5,54.8127
11:24:35.262,4.625,56.7502
11:24:35.273,5.2188,58.2502
11:24:35.283,4.75,58.4377
11:24:35.293,4.75,57.8127
11:24:35.302,4.75,57.5627
11:24:35.312,4.0938,54.8127
11:24:35.323,2.5313,51.6877
11:24:35.334,1.5313,46.2502
11:24:35.343,-0.0625,40.7502
11:24:35.353,-2.0313,33.8751
11:24:35.362,-4.125,28.1876
11:24:35.372,-5.5,22.0001
11:24:35.383,-6.9375,17.6876
11:24:35.393,-7.7188,12.8125
11:24:35.402,-8.5,10.5625
11:24:35.412,-9.2813,7.0625
11:24:35.422,-9.7813,5.8125
11:24:35.433,-9.625,4.3125
11:24:35.443,-10.4688,3.5
11:24:35.452,-10.875,2.75
11:24:35.497,-11.1563,0.4375
11:24:35.498,-11.25,-1
11:24:35.500,-11.25,-2.75
11:24:35.508,-11.1563,-2.9375
11:24:35.509,-11.625,-6
11:24:35.514,-12.3125,-8.4375
11:24:35.546,-12.25,-10.125
11:24:35.548,-12.8438,-13.9376
11:24:35.550,-12.7188,-15.8126
11:24:35.553,-13.9688,-20.6251
11:24:35.582,-15.1251,-23.6876
11:24:35.584,-15.9063,-28.1251
11:24:35.588,-17.4063,-31.3751
11:24:35.594,-18.4063,-36.3126
11:24:35.631,-19.5626,-40.0627
11:24:35.633,-20.4376,-43.8127
11:24:35.636,-21.7501,-47.1877
11:24:35.655,-22.9376,-51.8752
11:24:35.656,-23.9688,-54.5627
11:24:35.658,-24.4376,-58.2502
11:24:35.664,-24.6876,-59.0627
11:24:35.673,-25.9376,-62.5627
11:24:35.683,-26.2501,-65.3128
11:24:35.692,-27.4064,-66.6253
11:24:35.703,-27.0314,-70.3128
11:24:35.712,-28.3126,-70.6253
11:24:35.722,-28.6876,-73.0628
11:24:35.732,-28.4689,-75.0003
11:24:35.744,-28.9064,-75.5628
11:24:35.753,-28.9689,-78.5628
11:24:35.763,-29.4064,-79.2503
11:24:35.773,-30.3751,-82.6253
11:24:35.783,-30.6876,-83.5628
11:24:35.793,-31.5314,-87.1878
11:24:35.802,-31.3439,-89.0628
11:24:35.814,-32.7814,-89.7503
11:24:35.822,-32.6876,-93.1879
11:24:35.833,-33.8439,-94.1254
11:24:35.844,-33.7189,-96.8129
11:24:35.853,-33.1251,-97.8129
11:24:35.862,-33.3439,-95.1879
11:24:35.872,-31.3751,-89.3753
11:24:35.883,-28.6564,-78.6878
11:24:35.892,-24.0938,-66.4378
11:24:35.902,-20.6563,-50.5627
11:24:35.912,-16.5001,-33.7501
11:24:35.922,-11.5313,-16.1876
11:24:35.933,-7.5313,1.375
11:24:35.942,-3.2188,17.0001
11:24:35.953,1.5938,31.4376
11:24:35.963,4.4063,45.1877
11:24:35.973,8.0313,56.6252
11:24:35.983,9.6875,65.1877
11:24:35.992,12.4375,73.4378
11:24:36.003,14.3438,80.8128
11:24:36.013,15.4688,84.9378
11:24:36.038,17.5001,90.1253
11:24:36.056,17.6876,94.1879
11:24:36.057,19.2188,96.1254
11:24:36.071,20.1563,98.7504
11:24:36.079,20.3438,100.5629
11:24:36.079,21.1876,101.1879
11:24:36.083,20.4063,100.0004
11:24:36.092,20.3126,97.7504
11:24:36.102,19.3126,94.8754
11:24:36.113,17.7501,88.7503
11:24:36.123,15.7188,84.1253
11:24:36.133,14.0938,76.5003
11:24:36.143,12.625,69.5003
11:24:36.152,10.6875,63.0002
11:24:36.174,9.5313,57.9377
11:24:36.176,8.5938,53.5627
11:24:36.249,8.375,49.1252
11:24:36.250,8.5,46.4377
11:24:36.254,9.5,46.0002
11:24:36.254,10.7813,45.3127
11:24:36.254,11.125,45.6252
11:24:36.257,12.0938,44.6877
11:24:36.286,12.8125,44.5627
11:24:36.289,13.2813,44.7502
11:24:36.289,12.75,44.6252
11:24:36.290,12.625,44.1877
11:24:36.292,11.9063,41.3127
11:24:36.297,10.1875,40.0627
11:24:36.302,8.6563,36.7501
11:24:36.339,6.8125,33.8751
11:24:36.341,5.4688,31.5001
11:24:36.344,3.875,27.6251
11:24:36.347,2.1563,25.1876
11:24:36.352,0,21.3126
11:24:36.380,-0.875,17.0001
11:24:36.383,-0.9375,15.7501
11:24:36.385,-1.5938,12.375
11:24:36.394,-2.8438,9.625
11:24:36.403,-5.0625,3.5625
11:24:36.413,-7.7813,-0.875
11:24:36.423,-9.7188,-5.1875
11:24:36.433,-10.4688,-9.625
11:24:36.444,-12.8438,-13.8126
11:24:36.453,-15.9376,-20.0001
11:24:36.463,-17.2813,-26.1251
11:24:36.474,-18.5001,-29.3751
11:24:36.483,-20.7501,-34.0626
11:24:36.492,-21.7188,-38.5626
11:24:36.503,-22.6251,-42.5002
11:24:36.514,-25.6876,-47.5002
11:24:36.523,-28.6251,-53.1252
11:24:36.533,-36.5626,-66.0003
11:24:36.542,-46.8752,-80.4378
11:24:36.553,-65.094,-107.1879
11:24:36.562,-84.1878,-136.813
11:24:36.574,-98.0941,-160.6881
11:24:36.582,-105.7191,-175.0632
11:24:36.592,-108.6567,-183.2507
11:24:36.602,-111.2504,-189.0007
11:24:36.612,-113.9379,-194.1882
11:24:36.623,-116.2192,-200.6883
11:24:36.633,-119.0317,-207.3133
11:24:36.642,-119.9067,-211.1258
11:24:36.652,-119.313,-213.0008
11:24:36.663,-120.2505,-216.7508
11:24:36.672,-120.813,-220.9383
11:24:36.682,-120.7505,-224.3759
11:24:36.692,-121.188,-226.0634
11:24:36.702,-119.563,-227.3759
11:24:36.713,-116.4379,-221.4384
11:24:36.722,-110.8754,-210.6883
11:24:36.732,-103.2504,-195.5007
11:24:36.742,-96.0316,-175.5632
11:24:36.756,-86.9378,-154.1256
11:24:36.762,-77.9378,-130.0005
11:24:36.773,-67.1253,-104.8754
11:24:36.783,-55.0315,-76.4378
11:24:36.793,-42.9689,-50.4377
11:24:36.802,-30.7814,-23.7501
11:24:36.815,-20.5001,1.375
11:24:36.823,-9.625,22.3751
11:24:36.832,-0.2188,41.1252
11:24:36.843,7.5938,57.8752
11:24:36.852,14.1251,70.7503
11:24:36.862,20.1563,82.8753
11:24:36.874,24.4688,93.9379
11:24:36.882,29.6251,102.5629
11:24:36.892,34.5626,111.1879
11:24:36.904,39.6877,119.0005
11:24:36.913,42.4377,126.2505
11:24:36.923,45.2814,130.3755
11:24:36.932,44.9689,132.0005
11:24:36.942,44.5002,129.7505
11:24:36.952,43.5002,126.1255
11:24:36.963,41.4064,120.688
11:24:36.974,39.9064,114.8129
11:24:36.991,36.6876,106.8754
11:24:36.995,35.0314,98.3754
11:24:37.022,31.4376,89.3753
11:24:37.030,29.1876,81.1253
11:24:37.031,26.6564,72.1253
11:24:37.033,24.5001,64.3752
11:24:37.057,21.8751,56.8752
11:24:37.060,19.5626,49.6877
11:24:37.063,16.7501,42.8752
11:24:37.092,14.5001,36.3751
11:24:37.092,11.6875,29.6876
11:24:37.094,10.6563,24.0626
11:24:37.126,8,18.6251
11:24:37.128,5.8125,13.8126
11:24:37.130,3.75,8.0625
11:24:37.135,1.4375,2.9375
11:24:37.161,-0.5938,-4.125
11:24:37.164,-3.9688,-9.375
11:24:37.166,-7.1563,-17.0626
11:24:37.179,-9.9063,-24.2501
11:24:37.182,-13.1563,-31.3751
11:24:37.192,-15.9063,-38.0626
11:24:37.204,-19.4376,-45.6877
11:24:37.214,-23.2188,-53.0627
11:24:37.223,-26.7814,-60.3752
11:24:37.233,-31.1564,-67.1253
11:24:37.244,-35.1876,-75.7503
11:24:37.252,-40.2189,-85.0003
11:24:37.262,-45.2502,-93.3129
11:24:37.272,-50.8127,-102.6879
11:24:37.283,-55.594,-108.5629
11:24:37.293,-59.5627,-121.5005
11:24:37.319,-51.0627,-111.9379
11:24:37.321,-44.5314,-105.4379
11:24:37.326,-33.0939,-90.9379
11:24:37.333,-22.2501,-75.9378
11:24:37.347,-15.0938,-66.6253
11:24:37.361,-9.6875,-60.5627
11:24:37.367,-4.9063,-54.0627
11:24:37.375,-4.6563,-51.8127
11:24:37.382,-4.8438,-54.0627
11:24:37.399,-4.1563,-54.6252
11:24:37.415,-4.8125,-55.0627
11:24:37.418,-5,-57.0002
11:24:37.429,-4.9063,-57.5002
11:24:37.439,-6.4375,-58.6252
11:24:37.447,-5.75,-61.3752
11:24:37.459,-6.5,-62.4377
11:24:37.467,-7.5313,-64.2502
11:24:37.479,-7.1875,-66.4378
11:24:37.489,-8.1563,-66.8753
11:24:37.503,-8.625,-70.0628
11:24:37.510,-9.1563,-71.6253
11:24:37.518,-11.0625,-74.8753
11:24:37.534,-11.5313,-75.7503
11:24:37.537,-13.1563,-77.1253
11:24:37.552,-13.9063,-79.7503
11:24:37.561,-14.7813,-82.5003
11:24:37.569,-16.3126,-85.3128
11:24:37.578,-17.5001,-88.1878
11:24:37.587,-20.8751,-92.6254
11:24:37.598,-22.6563,-97.8129
11:24:37.607,-24.6563,-100.2504
11:24:37.619,-26.1876,-104.3129
11:24:37.627,-27.7189,-108.3754
11:24:37.638,-30.3439,-112.8754
11:24:37.647,-35.0626,-120.813
11:24:37.657,-39.7814,-127.813
11:24:37.677,-45.1252,-133.8755
11:24:37.680,-49.4064,-137.188
11:24:37.711,-53.3752,-137.8755
11:24:37.716,-57.5002,-136.313
11:24:37.718,-61.6877,-132.7505
11:24:37.720,-63.9377,-124.063
11:24:37.761,-64.3752,-115.0004
11:24:37.762,-59.7502,-97.6254
11:24:37.765,-56.0315,-81.6878
11:24:37.772,-52.8752,-66.4378
11:24:37.772,-48.2814,-53.0002
11:24:37.782,-44.0314,-37.4376
11:24:37.818,-38.3126,-24.6251
11:24:37.821,-32.9376,-13.8751
11:24:37.821,-27.5939,-1.5
11:24:37.824,-23.5626,9.75
11:24:37.830,-18.2813,17.8751
11:24:37.850,-13.0313,29.2501
11:24:37.852,-5.875,39.7502
11:24:37.859,2.25,52.8127
11:24:37.869,7.8125,63.4377
11:24:37.877,14.2188,73.0628
11:24:37.888,18.6251,80.9378
11:24:37.897,20.5001,86.0628
11:24:37.909,22.9688,86.9378
11:24:37.925,24.1563,88.0003
11:24:37.928,24.6563,86.3753
11:24:37.939,24.9063,84.1253
11:24:37.947,26.0313,81.7503
11:24:37.957,26.9064,79.9378
11:24:37.968,28.2501,76.6878
11:24:37.978,29.5939,75.6253
11:24:37.988,29.6876,69.8128
11:24:37.997,27.8126,64.1252
11:24:38.008,27.1876,58.5002
11:24:38.019,25.7813,52.1252
11:24:38.027,24.2813,47.4377
11:24:38.039,24.0001,42.2502
11:24:38.047,21.9376,38.1876
11:24:38.059,21.1251,33.1876
11:24:38.068,19.5001,29.1876
11:24:38.077,17.9063,24.8751
11:24:38.087,17.4376,19.5626
11:24:38.097,15.1563,15.7501
11:24:38.107,13.7501,10.1875
11:24:38.117,11.9375,4.8125
11:24:38.127,10.8438,0.125
11:24:38.137,9.6563,-5.5625
11:24:38.149,7.5938,-11.5
11:24:38.159,6.125,-16.0626
11:24:38.168,4.8125,-21.8126
11:24:38.177,2.7188,-26.1251
11:24:38.188,2.2813,-32.0626
11:24:38.199,0.0938,-36.3751
11:24:38.210,-0.5625,-40.2502
11:24:38.220,-2.5938,-44.7502
11:24:38.227,-4.3125,-49.2502
11:24:38.239,-6.9688,-56.4377
11:24:38.248,-10.8438,-63.5627
11:24:38.259,-13.0625,-71.4378
11:24:38.269,-16.7501,-76.6253
11:24:38.278,-19.6563,-83.9378
11:24:38.290,-21.8126,-88.8753
11:24:38.305,-24.5313,-95.3754
11:24:38.310,-26.6876,-99.2504
11:24:38.319,-28.8751,-103.7504
11:24:38.330,-31.5001,-108.6254
11:24:38.338,-33.0626,-112.8129
11:24:38.348,-35.5001,-117.2504
11:24:38.359,-38.0314,-120.938
11:24:38.367,-39.5627,-124.813
11:24:38.384,-41.7502,-129.6255
11:24:38.389,-43.2189,-133.063
11:24:38.415,-46.2814,-136.8755
11:24:38.418,-48.2189,-141.563
11:24:38.420,-51.0314,-145.063
11:24:38.452,-53.4065,-147.8131
11:24:38.452,-53.8127,-150.8131
11:24:38.455,-57.844,-156.2506
11:24:38.459,-48.6877,-145.3755
11:24:38.487,-44.2189,-139.313
11:24:38.490,-35.8126,-127.563
11:24:38.492,-28.4689,-116.5004
11:24:38.517,-21.5626,-107.1879
11:24:38.520,-14.8126,-96.6879
11:24:38.522,-10.3125,-89.5003
11:24:38.528,-8.5938,-87.1253
11:24:38.556,-8.7188,-85.8753
11:24:38.558,-8.4688,-86.1253
11:24:38.561,-8.25,-86.5628
11:24:38.569,-8.4063,-85.4378
11:24:38.598,-8.0938,-84.9378
11:24:38.600,-6.7813,-80.1253
11:24:38.604,-4.8125,-71.5003
11:24:38.609,-0.9375,-61.1877
11:24:38.618,2.75,-46.3752
11:24:38.627,6.6875,-31.4376
11:24:38.637,10.6563,-15.9376
11:24:38.648,14.0313,-1.25
11:24:38.661,17.7501,12.5
11:24:38.667,20.5626,26.5001
11:24:38.679,22.5313,37.3126
11:24:38.694,25.6251,46.8752
11:24:38.702,26.8126,55.5002
11:24:38.707,29.0001,62.0002
11:24:38.725,30.1876,66.6253
11:24:38.730,30.2501,71.4378
11:24:38.740,31.5314,74.0628
11:24:38.749,32.0314,77.1878
11:24:38.758,31.5314,80.1253
11:24:38.769,30.2814,78.6253
11:24:38.780,28.3439,76.2503
11:24:38.789,24.2813,72.0003
11:24:38.799,17.9688,63.0627
11:24:38.820,10.8438,53.4377
11:24:38.822,2.1875,40.3752
11:24:38.839,-7.9688,23.4376
11:24:38.840,-17.0001,8.3125
11:24:38.857,-25.9376,-7.3125
11:24:38.860,-34.1564,-23.5626
11:24:38.867,-41.8439,-35.7501
11:24:38.880,-47.2502,-47.4377
11:24:38.889,-51.0939,-56.4377
11:24:38.899,-53.3752,-63.4377
11:24:38.909,-54.0315,-65.8753
11:24:38.919,-51.6252,-65.5002
11:24:38.927,-49.8752,-63.4377
11:24:38.939,-45.9689,-60.8752
11:24:38.947,-42.2502,-57.3127
11:24:38.959,-39.0939,-53.0002
11:24:38.969,-35.0626,-50.7502
11:24:38.977,-31.7189,-47.0627
11:24:38.987,-27.0001,-42.1877
11:24:38.998,-22.9063,-40.0002
11:24:39.009,-19.6876,-36.6876
11:24:39.017,-17.4063,-35.9376
11:24:39.029,-15.7813,-35.5001
11:24:39.037,-15.2813,-36.3751
11:24:39.055,-13.2501,-37.6876
11:24:39.057,-11.1875,-37.1251
11:24:39.068,-10.1875,-37.6251
11:24:39.097,-7.3438,-36.1876
11:24:39.099,-3.9375,-33.0001
11:24:39.101,-0.75,-31.9376
11:24:39.109,3.7188,-28.1251
11:24:39.146,7.3125,-22.8751
11:24:39.146,10.5625,-21.3751
11:24:39.149,10.5313,-23.8126
11:24:39.151,9.7188,-25.7501
11:24:39.157,8.625,-30.5626
11:24:39.185,7.9688,-33.8126
11:24:39.188,7.75,-36.5626
11:24:39.218,6.0625,-40.1252
11:24:39.221,5.2813,-44.1877
11:24:39.222,4.25,-46.4377
11:24:39.230,2.75,-50.6252
11:24:39.231,2.5313,-54.9377
11:24:39.239,0.5625,-57.9377
11:24:39.258,-0.3125,-61.9377
11:24:39.262,-1.6875,-64.5002
11:24:39.269,-1.9375,-68.1253
11:24:39.279,-3.0313,-70.1878
11:24:39.289,-3.625,-72.3128
11:24:39.299,-4.7188,-75.8753
11:24:39.309,-5.6563,-77.6878
11:24:39.318,-6,-80.9378
11:24:39.328,-7.9375,-81.5628
11:24:39.339,-7.875,-85.1253
11:24:39.349,-9.1875,-88.6878
11:24:39.359,-9.9375,-89.5003
11:24:39.369,-10.8125,-92.9379
11:24:39.379,-11.4375,-94.2504
11:24:39.389,-12.9688,-98.3754
11:24:39.397,-15.7813,-104.3754
11:24:39.409,-17.6251,-106.1879
11:24:39.419,-19.0626,-108.4379
11:24:39.432,-18.9376,-105.7504
11:24:39.440,-17.2188,-96.9379
11:24:39.449,-12.9688,-83.9378
11:24:39.459,-9.75,-68.0003
11:24:39.469,-6.75,-53.5002
11:24:39.479,-4.0938,-38.9376
11:24:39.489,-2.3438,-28.7501
11:24:39.499,-0.4375,-18.8751
11:24:39.509,1.25,-8.25
11:24:39.519,2,0.25
11:24:39.529,0.9688,5.625
11:24:39.538,1.25,9.625
11:24:39.549,1.1563,13.3126
11:24:39.559,0.5,17.1251
11:24:39.569,-0.5313,19.5001
11:24:39.578,-0.5625,21.7501
11:24:39.589,-1.5625,23.1876
11:24:39.598,-2.6563,23.6251
11:24:39.609,-0.8125,26.3751
11:24:39.619,-3.3438,26.8751
11:24:39.629,6.25,42.3752
11:24:39.639,13.2501,52.5627
11:24:39.649,20.8438,64.0002
11:24:39.659,28.0626,75.8128
11:24:39.669,35.9376,85.7503
11:24:39.679,42.4064,97.1254
11:24:39.688,48.4689,103.6879
11:24:39.698,48.1252,104.8754
11:24:39.709,48.8752,101.3754
11:24:39.719,47.2189,99.0629
11:24:39.729,47.6877,97.2504
11:24:39.739,46.3752,96.2504
11:24:39.749,46.5002,92.2504
11:24:39.759,44.4689,90.6253
11:24:39.768,44.4377,87.8128
11:24:39.779,42.9689,86.5003
11:24:39.789,42.7814,83.5003
11:24:39.806,42.2814,81.5628
11:24:39.810,41.0002,79.9378
11:24:39.819,39.9377,77.8128
11:24:39.829,38.1564,76.5628
11:24:39.840,38.1564,72.5628
11:24:39.880,35.8126,69.1878
11:24:39.880,34.4689,64.9377
11:24:39.883,32.5314,61.3127
11:24:39.889,31.9689,57.8127
11:24:39.892,29.5626,53.8752
11:24:39.922,28.1564,49.3752
11:24:39.924,24.6876,42.9377
11:24:39.927,20.2188,34.3751
11:24:39.954,13.9688,24.1251
11:24:39.955,6.4063,11.25
11:24:39.958,-2.7188,-3.8125
11:24:39.963,-12.6875,-20.9376
11:24:39.994,-24.4063,-39.5627
11:24:39.997,-34.6251,-56.6877
11:24:40.000,-44.1564,-73.3128
11:24:40.001,-52.1877,-86.3128
11:24:40.026,-57.9065,-97.5629
11:24:40.040,-61.2502,-105.3754
11:24:40.042,-60.4065,-106.7504
11:24:40.060,-59.8752,-109.5004
11:24:40.075,-59.6877,-112.1254
11:24:40.077,-57.8752,-111.2504
11:24:40.078,-55.0002,-110.1879
11:24:40.079,-52.9065,-109.6879
11:24:40.089,-50.6564,-109.2504
11:24:40.099,-48.4689,-108.3754
11:24:40.109,-44.8127,-105.3754
11:24:40.130,-40.2814,-100.1879
11:24:40.133,-35.2501,-97.2504
11:24:40.142,-31.9376,-92.0629
11:24:40.149,-28.2189,-90.5629
11:24:40.164,-26.0001,-88.0628
11:24:40.172,-22.4063,-86.3128
11:24:40.181,-20.1251,-84.0003
11:24:40.189,-18.1251,-82.3753
11:24:40.199,-15.3751,-80.6253
11:24:40.209,-11.6563,-75.4378
11:24:40.219,-6.7813,-66.8753
11:24:40.229,-0.375,-53.1877
11:24:40.239,7.75,-34.3126
11:24:40.249,13.2188,-17.1876
11:24:40.259,17.3751,-3.0625
11:24:40.269,21.1251,9.5
11:24:40.279,24.5626,23.1251
11:24:40.289,27.7501,33.0001
11:24:40.299,29.7189,43.8127
11:24:40.309,32.4689,51.5002
11:24:40.319,34.7501,58.8752
11:24:40.329,35.0626,64.6252
11:24:40.339,37.1876,68.3753
11:24:40.348,39.0939,72.7503
11:24:40.359,39.1564,76.0628
11:24:40.369,39.5627,76.5628
11:24:40.379,40.9377,78.9378
11:24:40.389,41.9064,80.9378
11:24:40.399,41.7189,81.5628
11:24:40.408,42.5314,82.3128
11:24:40.423,42.5939,81.3753
11:24:40.429,42.6564,83.4378
11:24:40.439,43.2189,81.0003
11:24:40.449,42.5314,79.5003
11:24:40.459,41.9064,76.0628
11:24:40.469,41.0002,73.0628
11:24:40.479,40.0002,67.8753
11:24:40.489,39.4064,64.5627
11:24:40.499,38.1564,59.0002
11:24:40.509,37.8126,56.0002
11:24:40.520,36.7189,51.8127
11:24:40.529,35.7501,49.0627
11:24:40.539,34.2814,44.8752
11:24:40.572,32.9064,41.6252
11:24:40.573,31.4689,38.0626
11:24:40.575,29.1876,35.4376
11:24:40.579,27.4376,33.0001
11:24:40.609,25.3126,28.3751
11:24:40.611,21.4376,24.5001
11:24:40.614,19.4688,18.6251
11:24:40.620,15.5938,14.6251
11:24:40.649,13.5626,8.625
11:24:40.652,10.7813,4.5
11:24:40.654,8.6875,-1.5625
11:24:40.659,5.8125,-4.875
11:24:40.694,4.4375,-10.375
11:24:40.697,0.7813,-12.8125
11:24:40.699,-0.7188,-18.3751
11:24:40.701,-3.8125,-22.7501
11:24:40.732,-6.4375,-29.0626
11:24:40.734,-10.9063,-35.7501
11:24:40.737,-15.5626,-40.7502
11:24:40.739,-18.7501,-53.6252
11:24:40.749,-9.75,-41.6252
11:24:40.759,-4.8438,-35.6876
11:24:40.769,1.125,-27.8126
11:24:40.779,5.5313,-20.6251
11:24:40.789,10.0938,-15.3751
11:24:40.799,10.5,-14.3751
11:24:40.809,11.9375,-13.5001
11:24:40.819,11.6875,-13.1876
11:24:40.829,11.3438,-13.5626
11:24:40.839,12.0938,-13.1251
11:24:40.849,11.2813,-14.4376
11:24:40.859,11.4375,-15.0001
11:24:40.869,9.9063,-17.0626
11:24:40.879,9.4063,-18.5626
11:24:40.889,8.9688,-20.6876
11:24:40.898,7.9063,-21.1251
11:24:40.909,7.5,-23.0626
11:24:40.919,6.8125,-24.3126
11:24:40.930,6,-26.6251
11:24:40.939,5.2188,-28.0001
11:24:40.949,5.0938,-29.1251
11:24:40.958,5.0938,-27.5626
11:24:40.969,6.4688,-22.8126
11:24:40.979,7.3438,-15.3751
11:24:40.989,8.4688,-7.3125
11:24:40.999,8.7813,0.625
11:24:41.011,7.4688,8.75
11:24:41.021,5.4063,14.6251
11:24:41.029,3.375,19.1251
11:24:41.039,0.4375,24.5001
11:24:41.049,-2.9375,26.2501
11:24:41.058,-7.6563,26.6251
11:24:41.069,-12.875,24.1251
11:24:41.079,-13.6251,27.6876
11:24:41.089,-9.0313,35.4376
11:24:41.099,-8,40.4377
11:24:41.109,-5.625,46.7502
11:24:41.119,-2.3125,51.8752
11:24:41.129,0.5,57.1252
11:24:41.158,3.9375,63.3127
11:24:41.160,7.0938,67.6253
11:24:41.162,9.5313,71.1878
11:24:41.170,12.9375,76.3128
11:24:41.179,17.1251,81.5003
11:24:41.189,22.1876,87.6253
11:24:41.199,26.7814,91.0629
11:24:41.210,30.0939,92.8129
11:24:41.222,31.2501,92.0004
11:24:41.229,31.2189,89.6253
11:24:41.239,30.9064,84.0003
11:24:41.249,30.8126,80.0003
11:24:41.259,29.6564,76.4378
11:24:41.269,28.5001,70.3128
11:24:41.279,27.0001,65.1877
11:24:41.289,25.9688,61.6252
11:24:41.306,24.6563,56.8752
11:24:41.318,25.0313,55.3127
11:24:41.322,24.4063,52.0627
11:24:41.329,23.5313,49.5002
11:24:41.376,23.5938,48.0627
11:24:41.380,23.4063,43.8752
11:24:41.501,22.7188,41.5627
11:24:41.511,23.1251,38.8751
11:24:41.512,22.1563,36.8751
11:24:41.513,22.5313,33.9376
11:24:41.513,21.8126,30.7501
11:24:41.514,21.9688,28.3751
11:24:41.520,21.5313,23.8126
11:24:41.522,21.5001,21.1251
11:24:41.524,21.2501,17.7501
11:24:41.524,19.1876,13.5001
11:24:41.529,18.5938,9.8125
11:24:41.539,18.1876,5.3125
11:24:41.549,17.6251,1.125
11:24:41.558,16.9376,-2
11:24:41.569,15.7188,-7.8125
11:24:41.579,15.6251,-11.25
11:24:41.589,14.3751,-14.6251
11:24:41.599,13.6251,-17.7501
11:24:41.609,12.5938,-21.6251
11:24:41.620,12.375,-25.4376
11:24:41.629,11.8438,-28.3126
11:24:41.639,10.75,-34.6251
11:24:41.649,10.4375,-37.2501
11:24:41.659,7.9375,-42.1252
11:24:41.668,5.9063,-45.6252
11:24:41.685,4,-51.1252
11:24:41.690,-17.5938,-98.1254
11:24:41.699,-21.0938,-102.0629
11:24:41.710,-23.8438,-108.3754
11:24:41.719,-28.0939,-114.6254
11:24:41.729,-29.2501,-115.6254
11:24:41.739,-28.9689,-113.5004
11:24:41.749,-27.6564,-104.8754
11:24:41.759,-24.7501,-93.2504
11:24:41.769,-22.9688,-81.1253
11:24:41.779,-22.0626,-67.8753
11:24:41.789,-21.1876,-55.5627
11:24:41.800,-21.2813,-48.7502
11:24:41.811,-7.7813,-19.0001
11:24:41.818,1.1875,3.5625
11:24:41.830,12.9063,28.1876
11:24:41.839,23.4376,52.9377
11:24:41.849,32.8439,72.3753
11:24:41.859,40.0314,90.5629
11:24:41.869,44.0002,103.6879
11:24:41.879,47.0002,115.1879
11:24:41.890,50.0627,124.6255
11:24:41.900,53.094,134.438
11:24:41.909,54.7502,141.2505
11:24:41.919,57.3127,149.1256
11:24:41.929,58.469,156.5631
11:24:41.939,60.5315,161.6881
11:24:41.949,61.7815,165.6881
11:24:41.959,62.3127,168.2506
11:24:41.969,62.719,169.2506
11:24:41.981,61.719,169.1256
11:24:41.991,61.3127,168.0631
11:24:41.999,60.469,163.3131
11:24:42.009,59.5627,159.0631
11:24:42.037,57.5627,154.6256
11:24:42.040,56.7502,148.3756
11:24:42.043,53.6565,138.688
11:24:42.049,48.7189,126.188
11:24:42.076,45.6252,118.7505
11:24:42.078,43.5002,112.1879
11:24:42.080,41.4377,107.0629
11:24:42.106,40.5627,102.7504
11:24:42.109,39.7814,98.1254
11:24:42.112,39.8127,95.8129
11:24:42.152,41.2189,96.3129
11:24:42.153,40.6564,96.0004
11:24:42.157,41.4689,93.0629
11:24:42.163,39.3752,90.5003
11:24:42.163,37.2501,85.4378
11:24:42.176,33.9064,78.1253
11:24:42.180,31.1876,72.1878
11:24:42.206,29.9064,66.0628
11:24:42.209,27.5626,60.4377
11:24:42.211,26.8126,54.8752
11:24:42.219,23.8438,48.7502
11:24:42.229,22.8751,43.1252
11:24:42.240,21.9688,38.6876
11:24:42.251,20.6251,33.9376
11:24:42.258,19.8126,28.8126
11:24:42.269,18.7501,24.6876
11:24:42.279,16.9376,19.8751
11:24:42.289,14.7813,13.6251
11:24:42.299,12.125,7.625
11:24:42.309,11.125,2.4375
11:24:42.319,8.9375,-2.4375
11:24:42.329,6.6563,-7.6875
11:24:42.340,5.25,-12.625
11:24:42.349,2.0938,-18.5626
11:24:42.359,0.5313,-23.4376
11:24:42.369,-1.4063,-28.5001
11:24:42.379,-2.0938,-31.3751
11:24:42.389,-2.875,-34.9376
11:24:42.399,-2.9688,-37.1251
11:24:42.410,-2.5,-39.6877
11:24:42.438,-3.125,-41.2502
11:24:42.442,-3.4375,-43.1252
11:24:42.443,-2.3438,-45.6877
11:24:42.449,-2.5625,-46.0002
11:24:42.460,-1.8125,-47.8752
11:24:42.469,-1.625,-50.2502
11:24:42.479,-1.0938,-51.1877
11:24:42.489,-0.625,-52.9377
11:24:42.499,-0.875,-54.6877
11:24:42.509,-0.6875,-55.8752
11:24:42.519,-0.2813,-56.8752
11:24:42.529,0.9375,-54.0002
11:24:42.541,2.25,-48.2502
11:24:42.548,4.0313,-40.3127
11:24:42.558,6.3438,-29.4376
11:24:42.569,8.9063,-16.6251
11:24:42.584,12.8125,-0.5625
11:24:42.590,16.9376,14.2501
11:24:42.599,20.3751,30.4376
11:24:42.609,23.9376,46.4377
11:24:42.619,28.0626,59.6877
11:24:42.629,31.7814,73.8753
11:24:42.639,35.7501,84.9378
11:24:42.649,39.2814,95.1879
11:24:42.659,40.8439,104.1254
11:24:42.669,42.8439,109.8129
11:24:42.690,45.0314,117.3754
11:24:42.692,45.5627,124.563
11:24:42.708,47.0314,127.188
11:24:42.710,47.6252,132.563
11:24:42.725,48.7502,134.313
11:24:42.730,49.2502,137.938
11:24:42.739,49.8127,138.188
11:24:42.749,49.2814,139.188
11:24:42.759,48.8127,137.5005
11:24:42.777,47.3127,134.938
11:24:42.799,45.7502,130.8755
11:24:42.870,44.3127,124.188
11:24:42.870,42.7189,117.8755
11:24:42.872,39.8127,110.4379
11:24:42.879,37.6564,102.5004
11:24:42.879,35.7501,95.5004
11:24:42.879,33.3439,88.5628
11:24:42.884,30.7814,82.1253
11:24:42.910,29.5939,75.9378
11:24:42.911,27.3439,70.5628
11:24:42.915,26.7501,66.1878
11:24:42.949,25.4063,62.8127
11:24:42.951,24.0001,59.1252
11:24:42.954,23.1563,55.7502
11:24:42.958,22.0626,52.3127
11:24:42.970,21.0626,49.5627
11:24:42.975,19.6563,45.7502
11:24:42.984,17.9063,42.2502
11:24:42.994,17.9063,39.2502
11:24:43.006,15.7813,34.3751
11:24:43.014,13.9063,30.2501
11:24:43.024,11.9063,24.6251
11:24:43.034,10,18.6251
11:24:43.044,3.5,-0.125
11:24:43.054,2.4688,-4.875
11:24:43.064,2.1563,-8.875
11:24:43.074,1.3438,-11.6875
11:24:43.084,1.3438,-15.4376
11:24:43.094,0.0313,-18.6876
11:24:43.104,-1,-21.3751
11:24:43.114,-1.6875,-25.8751
11:24:43.124,-2.3438,-27.6251
11:24:43.135,-3.125,-31.7501
11:24:43.146,-4.2813,-35.5001
11:24:43.154,-5.4375,-38.6251
11:24:43.164,-6.4688,-42.2502
11:24:43.174,-6.9688,-45.3752
11:24:43.184,-7.0938,-47.6252
11:24:43.196,-8.5938,-51.5002
11:24:43.206,-10,-53.1877
11:24:43.214,-11.2813,-57.2502
11:24:43.224,-10.6563,-59.0627
11:24:43.234,-12.2813,-62.1252
11:24:43.244,-11.2813,-62.4377
11:24:43.254,-11.2813,-63.3127
11:24:43.264,-11.375,-64.9377
11:24:43.274,-12.1563,-66.1253
11:24:43.284,-13.5001,-68.5628
11:24:43.294,-14.0626,-71.3128
11:24:43.304,-14.3751,-72.6878
11:24:43.314,-15.8126,-75.5003
11:24:43.324,-16.2501,-77.8753
11:24:43.334,-16.3438,-80.3753
11:24:43.345,-17.8438,-81.6878
11:24:43.354,-18.5626,-85.7503
11:24:43.364,-18.7501,-87.0628
11:24:43.376,-20.2501,-89.1878
11:24:43.384,-19.7188,-91.0629
11:24:43.394,-19.9376,-90.3754
11:24:43.404,-19.6563,-87.6253
11:24:43.414,-17.1251,-78.5003
11:24:43.424,-14.6563,-66.3128
11:24:43.434,-11.5,-53.5627
11:24:43.444,-7.6563,-37.0001
11:24:43.453,-5.1563,-19.5001
11:24:43.464,-0.625,-2.875
11:24:43.474,3.4688,16.0626
11:24:43.485,7.1563,30.6251
11:24:43.497,11.375,46.1877
11:24:43.504,13.5938,59.8752
11:24:43.536,16.9063,70.9378
11:24:43.538,19.5313,81.2503
11:24:43.541,21.8126,90.9379
11:24:43.547,23.9376,97.8129
11:24:43.579,26.1251,104.9379
11:24:43.581,27.0001,112.1254
11:24:43.584,28.6876,117.2504
11:24:43.587,30.6251,121.5005
11:24:43.625,30.8439,125.7505
11:24:43.628,31.7814,127.188
11:24:43.630,32.3126,129.438
11:24:43.636,31.5314,131.1255
11:24:43.636,32.2814,129.1255
11:24:43.662,30.1876,126.938
11:24:43.665,28.9064,121.6255
11:24:43.668,26.7814,117.0004
11:24:43.674,26.0001,109.7504
11:24:43.710,23.6251,102.8129
11:24:43.711,21.4688,96.2504
11:24:43.715,19.1563,87.5628
11:24:43.728,17.4063,81.9378
11:24:43.732,15.7501,75.4378
11:24:43.741,14.3126,69.6878
11:24:43.745,13.6251,65.5628
11:24:43.754,11.375,60.8127
11:24:43.764,11.2813,56.8127
11:24:43.774,9.9063,54.3127
11:24:43.784,9.2813,50.6877
11:24:43.796,7.9063,46.3127
11:24:43.804,6.5938,43.5002
11:24:43.814,5.5313,38.9376
11:24:43.824,4.2813,35.8126
11:24:43.834,3.3438,31.1876
11:24:43.844,1.8438,27.9376
11:24:43.856,0.0938,22.1876
11:24:43.864,-0.7813,17.1876
11:24:43.874,-1.7813,13.1876
11:24:43.884,-2.6563,9.125
11:24:43.894,-4.6875,5
11:24:43.904,-5.625,0
11:24:43.917,-7.5625,-4.4375
11:24:43.924,-7.4688,-8.75
11:24:43.934,-9,-12.8125
11:24:43.944,-10.0313,-16.6876
11:24:43.954,-11.3125,-21.7501
11:24:43.964,-12.375,-25.1251
11:24:43.976,-12.4688,-28.9376
11:24:43.993,-13.8438,-33.0626
11:24:44.001,-15.5313,-36.8751
11:24:44.015,-16.8126,-41.6252
11:24:44.017,-18.1563,-45.6252
11:24:44.033,-19.2501,-49.5002
11:24:44.037,-20.8438,-53.9377
11:24:44.044,-22.0626,-57.4377
11:24:44.054,-23.6876,-61.4377
11:24:44.064,-24.3126,-64.1877
11:24:44.075,-25.4688,-68.0003
11:24:44.085,-26.0313,-70.7503
11:24:44.094,-26.7189,-72.9378
11:24:44.104,-27.9689,-76.4378
11:24:44.124,-27.9689,-78.3128
11:24:44.126,-29.1251,-80.1878
11:24:44.141,-29.5626,-82.5628
11:24:44.157,-30.1564,-85.9378
11:24:44.160,-31.4376,-87.7503
11:24:44.168,-31.5939,-90.5629
11:24:44.174,-31.7189,-92.6879
11:24:44.184,-32.6251,-94.6879
11:24:44.194,-32.9064,-97.3754
11:24:44.204,-34.6564,-100.0004
11:24:44.214,-34.8126,-102.1254
11:24:44.224,-35.1876,-104.8754
11:24:44.237,-35.1564,-107.0629
11:24:44.264,-36.4064,-109.1879
11:24:44.266,-37.0001,-112.0629
11:24:44.268,-37.7501,-113.5629
11:24:44.274,-36.5939,-112.3754
11:24:44.284,-35.6251,-109.7504
11:24:44.318,-34.2501,-101.1879
11:24:44.322,-31.4689,-89.1253
11:24:44.323,-28.0314,-75.4378
11:24:44.326,-24.2188,-59.0002
11:24:44.357,-19.3126,-42.6252
11:24:44.359,-16.5626,-24.3751
11:24:44.361,-12.9688,-8.6875
11:24:44.366,-7.6563,8
11:24:44.397,-5.5938,21.8126
11:24:44.400,-2.1875,32.0001
11:24:44.402,-0.2813,42.3752
11:24:44.421,1.5938,51.0002
11:24:44.422,3.25,56.6877
11:24:44.425,4.7188,63.8127
11:24:44.434,6.6563,67.3128
11:24:44.445,8.0938,72.1253
11:24:44.454,7.9375,75.0628
11:24:44.465,8.9063,77.8753
11:24:44.473,8.7188,80.0003
11:24:44.484,9.75,79.7503
11:24:44.496,9.4063,80.5628
11:24:44.505,7.9688,80.6878
11:24:44.516,7.7188,76.5628
11:24:44.524,7.0313,73.8753
11:24:44.533,6.2813,68.6878
11:24:44.544,4.125,63.7502
11:24:44.554,3.0625,57.0002
11:24:44.564,1.2188,52.3127
11:24:44.574,0.3438,45.5627
11:24:44.584,-1.0625,40.1877
11:24:44.595,-2.0313,34.9376
11:24:44.607,-3.8438,31.5001
11:24:44.614,-3.7813,27.1251
11:24:44.624,-5.4688,24.6876
11:24:44.636,-5.5938,21.1876
11:24:44.644,-6.8438,19.1251
11:24:44.654,-7.5,15.6251
11:24:44.664,-8.4063,14.1876
11:24:44.674,-9.0313,10.1875
11:24:44.684,-10.4688,7.75
11:24:44.694,-11.0625,4.75
11:24:44.704,-12.7188,1.5
11:24:44.714,-13.4376,-2.25
11:24:44.725,-14.3751,-6.25
11:24:44.734,-14.6563,-9.5
11:24:44.744,-15.9688,-13.8751
11:24:44.754,-17.0001,-16.4376
11:24:44.764,-17.3126,-21.5001
11:24:44.774,-18.0313,-23.5001
11:24:44.784,-18.4376,-28.5626
11:24:44.793,-19.5938,-30.9376
11:24:44.804,-20.7501,-36.1876
11:24:44.814,-20.8126,-38.4376
11:24:44.824,-22.0001,-42.3752
11:24:44.837,-22.1876,-44.8752
11:24:44.844,-23.4376,-49.0002
11:24:44.854,-24.7813,-51.7502
11:24:44.864,-25.3751,-54.4377
11:24:44.878,-25.7188,-57.8127
11:24:44.886,-26.2188,-59.1877
11:24:44.894,-26.3126,-61.6877
11:24:44.904,-27.5626,-64.2502
11:24:44.914,-28.3126,-66.3753
11:24:44.925,-28.7814,-67.2503
11:24:44.934,-28.2189,-70.1878
11:24:44.944,-28.7814,-71.6878
11:24:44.954,-29.7501,-73.2503
11:24:44.964,-30.3126,-75.7503
11:24:44.976,-30.2501,-77.5628
11:24:44.999,-30.1564,-79.0628
11:24:45.001,-30.5001,-80.0628
11:24:45.007,-31.6564,-82.5628
11:24:45.036,-31.0626,-83.6253
11:24:45.041,-31.7814,-84.8753
11:24:45.041,-31.4064,-87.2503
11:24:45.046,-31.9064,-89.1253
11:24:45.054,-32.0626,-90.5004
11:24:45.094,-32.3126,-92.1879
11:24:45.095,-31.7814,-92.2504
11:24:45.098,-31.5939,-90.0003
11:24:45.100,-29.7814,-83.8128
11:24:45.105,-28.2814,-74.5628
11:24:45.137,-24.3438,-61.4377
11:24:45.140,-22.0626,-47.1877
11:24:45.142,-17.5626,-31.1876
11:24:45.145,-14.5626,-15.8751
11:24:45.179,-11.0313,-0.375
11:24:45.181,-7.9688,15.0626
11:24:45.184,-4.5625,27.6251
11:24:45.188,-1.6875,39.6252
11:24:45.197,1.0625,49.1252
11:24:45.206,3.3125,57.8752
11:24:45.216,5.25,65.4378
11:24:45.227,7.3125,69.9378
11:24:45.234,8.9688,73.9378
11:24:45.246,9.25,78.1253
11:24:45.254,10.125,78.5628
11:24:45.264,10.7188,81.1253
11:24:45.274,10.875,82.6878
11:24:45.284,11.7813,81.8753
11:24:45.300,10.4063,81.5003
11:24:45.317,9.9063,79.0628
11:24:45.319,9.4375,75.4378
11:24:45.326,7.875,72.6253
11:24:45.335,7.6563,66.5003
11:24:45.344,5.0625,62.0002
11:24:45.354,3.9375,56.1252
11:24:45.365,3.2188,51.3752
11:24:45.374,1.5938,45.0002
11:24:45.386,0.3125,40.3752
11:24:45.395,-0.5313,36.8126
11:24:45.405,-1.7188,31.7501
11:24:45.415,-2.7188,29.4376
11:24:45.424,-3.25,26.5001
11:24:45.442,-3.625,23.0626
11:24:45.445,-4.5313,21.6251
11:24:45.460,-6.0313,18.6251
11:24:45.469,-6.5938,16.6251
11:24:45.475,-7.1875,12.75
11:24:45.485,-7.8438,11.0625
11:24:45.495,-8.9375,8.0625
11:24:45.504,-9.8438,3.75
11:24:45.515,-10.6875,1.5625
11:24:45.525,-11.5938,-3.6875
11:24:45.540,-12,-6.125
11:24:45.550,-12.5938,-11.0625
11:24:45.560,-13.9063,-14.5001
11:24:45.571,-14.5313,-17.9376
11:24:45.580,-15.0938,-22.1876
11:24:45.589,-15.9688,-25.6876
11:24:45.599,-16.7813,-29.9376
11:24:45.610,-17.7813,-32.4376
11:24:45.620,-17.7188,-37.3126
11:24:45.630,-19.0313,-39.2501
11:24:45.639,-19.3126,-44.7502
11:24:45.650,-20.7813,-46.8127
11:24:45.661,-22.0938,-51.1252
11:24:45.670,-21.6251,-54.0627
11:24:45.680,-23.4376,-57.1252
11:24:45.690,-23.8438,-60.7502
11:24:45.701,-25.9688,-65.6253
11:24:45.711,-26.7501,-68.2503
11:24:45.739,-26.9689,-72.0003
11:24:45.742,-27.5314,-73.6253
11:24:45.744,-28.0939,-76.8753
11:24:45.750,-28.2189,-78.9378
11:24:45.776,-29.8126,-81.0628
11:24:45.779,-29.4689,-82.5003
11:24:45.781,-29.8126,-85.6253
11:24:45.808,-30.4376,-87.0628
11:24:45.810,-31.3126,-89.3753
11:24:45.813,-31.9689,-91.5004
11:24:45.819,-32.9689,-93.8754
11:24:45.851,-32.6251,-96.0004
11:24:45.854,-33.7501,-98.8754
11:24:45.856,-34.2189,-100.3129
11:24:45.862,-35.4064,-103.0629
11:24:45.888,-35.7189,-104.8754
11:24:45.890,-34.9064,-105.3129
11:24:45.893,-34.7501,-106.3129
11:24:45.899,-33.7814,-105.0004
11:24:45.911,-32.4064,-98.0004
11:24:45.920,-28.6876,-87.6253
11:24:45.933,-24.6876,-72.5628
11:24:45.940,-21.3438,-56.7502
11:24:45.949,-17.5313,-40.8127
11:24:45.960,-12.75,-21.5626
11:24:45.971,-8.9688,-2.9375
11:24:45.979,-4.5313,13.5626
11:24:45.990,-0.6563,29.3126
11:24:46.005,3,43.6252
11:24:46.012,5.875,56.5002
11:24:46.019,9.7813,66.6878
11:24:46.030,13.1251,76.3128
11:24:46.040,14.4063,83.9378
11:24:46.051,16.4376,90.0003
11:24:46.059,18.5313,96.5004
11:24:46.070,19.9376,100.7504
11:24:46.079,21.7501,104.0629
11:24:46.091,21.4688,108.2504
11:24:46.100,22.5001,110.0629
11:24:46.110,24.0938,112.3129
11:24:46.119,23.3751,113.0004
11:24:46.130,23.7501,112.0629
11:24:46.141,22.9688,110.4379
11:24:46.150,21.3751,106.9379
11:24:46.159,20.1251,102.0004
11:24:46.170,18.8126,95.3129
11:24:46.179,17.5001,89.6253
11:24:46.190,15.6563,80.8753
11:24:46.199,13.8751,74.7503
11:24:46.210,11.4063,68.0628
11:24:46.219,10.1563,61.3752
11:24:46.230,8.9375,55.5627
11:24:46.240,8.0313,51.8127
11:24:46.250,6.375,46.6252
11:24:46.279,5.3438,43.0002
11:24:46.281,4.3438,39.0001
11:24:46.284,4.1875,36.6876
11:24:46.290,2.5938,32.6251
11:24:46.300,1.8438,29.1251
11:24:46.311,0.8438,25.3126
11:24:46.320,0.0938,22.5001
11:24:46.330,-0.4375,18.4376
11:24:46.340,-1.3438,15.6876
11:24:46.351,-2.625,10.3125
11:24:46.360,-3.9688,6.875
11:24:46.370,-4.875,1.6875
11:24:46.380,-5.6563,-1.4375
11:24:46.392,-7.3438,-7.0625
11:24:46.400,-8.5,-11.0625
11:24:46.410,-9.5625,-15.4376
11:24:46.420,-10.5313,-19.9376
11:24:46.430,-11.5625,-24.8126
11:24:46.439,-13.0625,-28.5626
11:24:46.450,-14.0626,-33.0626
11:24:46.460,-14.8126,-36.8126
11:24:46.470,-16.0626,-40.3752
11:24:46.480,-16.1563,-44.4377
11:24:46.493,-17.4688,-48.1252
11:24:46.530,-18.5626,-51.9377
11:24:46.535,-20.0001,-53.6877
11:24:46.535,-20.1251,-58.3127
11:24:46.538,-19.5626,-60.1877
11:24:46.544,-21.2813,-63.2502
11:24:46.552,-22.0001,-67.4378
11:24:46.588,-22.8438,-70.0628
11:24:46.592,-22.9376,-72.2503
11:24:46.624,-23.0001,-74.1253
11:24:46.624,-24.0313,-77.1253
11:24:46.629,-24.4376,-78.7503
11:24:46.631,-24.9063,-80.9378
11:24:46.631,-25.6251,-83.3753
11:24:46.664,-25.0626,-85.3128
11:24:46.666,-26.0626,-87.6253
11:24:46.669,-26.1251,-89.3128
11:24:46.672,-27.0939,-92.3129
11:24:46.680,-27.2501,-94.1879
11:24:46.690,-27.4064,-96.2504
11:24:46.701,-28.4376,-98.6879
11:24:46.710,-28.1564,-100.5004
11:24:46.720,-28.7501,-103.6254
11:24:46.731,-28.6564,-104.6879
11:24:46.745,-28.2189,-104.4379
11:24:46.762,-26.9376,-101.5004
11:24:46.765,-25.7188,-93.3129
11:24:46.772,-23.1563,-83.3128
11:24:46.780,-19.1876,-68.9378
11:24:46.790,-15.0001,-51.7502
11:24:46.800,-7.9688,-16.4376
11:24:46.813,-4.125,-0.125
11:24:46.820,0.9688,16.6251
11:24:46.830,4.75,32.2501
11:24:46.840,7.7813,45.6252
11:24:46.850,10.5938,56.5627
11:24:46.860,12.3125,65.3128
11:24:46.870,15.4688,73.7503
11:24:46.880,16.8751,81.1253
11:24:46.890,18.1876,85.3753
11:24:46.900,20.5313,90.3754
11:24:46.910,20.2188,94.5004
11:24:46.921,22.0626,97.1879
11:24:46.930,22.0938,99.4379
11:24:46.940,22.5938,99.9379
11:24:46.950,22.5626,101.1879
11:24:46.964,22.2188,99.6254
11:24:46.970,21.3751,98.0004
11:24:46.980,20.6563,94.4379
11:24:46.990,19.2188,90.0003
11:24:47.003,17.8126,83.8753
11:24:47.010,16.3126,77.5628
11:24:47.020,14.5938,70.6253
11:24:47.030,13.1563,63.1877
11:24:47.042,11.5938,57.1877
11:24:47.050,9.8125,50.3752
11:24:47.060,7.9688,44.8127
11:24:47.070,6.7188,39.8127
11:24:47.081,6.6875,35.5001
11:24:47.090,4.875,31.5626
11:24:47.100,4.75,29.0001
11:24:47.111,2.9688,26.1876
11:24:47.120,3.75,23.0001
11:24:47.130,2.5938,19.5626
11:24:47.140,1.4063,16.5626
11:24:47.174,1.375,13
11:24:47.176,0.0938,9.625
11:24:47.179,-1.1563,6
11:24:47.182,-1.875,2
11:24:47.211,-3.8438,-2.25
11:24:47.216,-4.875,-7
11:24:47.216,-6.5,-11.8125
11:24:47.220,-7.9375,-16.6876
11:24:47.252,-8.8438,-21.3126
11:24:47.254,-10.4375,-26.1251
11:24:47.257,-11.6563,-31.0626
11:24:47.262,-13.8126,-34.6876
11:24:47.293,-14.7501,-38.5001
11:24:47.295,-15.5001,-43.9377
11:24:47.298,-16.2501,-46.3752
11:24:47.300,-17.3751,-50.6877
11:24:47.327,-18.9688,-54.7502
11:24:47.332,-19.5626,-58.1877
11:24:47.333,-20.4376,-61.0002
11:24:47.340,-20.9688,-64.6252
11:24:47.352,-22.8751,-67.8753
11:24:47.360,-23.6563,-71.9378
11:24:47.370,-23.3751,-73.9378
11:24:47.380,-24.3751,-76.0003
11:24:47.390,-25.0938,-79.5628
11:24:47.400,-26.0001,-82.1253
11:24:47.410,-26.7189,-84.5628
11:24:47.421,-27.1251,-87.1253
11:24:47.430,-26.7814,-88.0628
11:24:47.440,-26.8751,-90.5003
11:24:47.450,-28.3126,-93.5004
11:24:47.460,-29.5001,-94.5004
11:24:47.470,-29.3751,-96.5004
11:24:47.480,-29.1251,-97.9379
11:24:47.491,-29.5314,-99.3754
11:24:47.502,-30.8439,-102.0004
11:24:47.512,-30.6251,-103.5629
11:24:47.521,-31.0939,-104.3754
11:24:47.530,-31.6564,-107.5629
11:24:47.558,-32.1564,-109.9379
11:24:47.560,-32.5314,-112.0004
11:24:47.563,-33.6876,-115.5629
11:24:47.570,-32.9376,-116.5004
11:24:47.580,-33.4376,-114.3754
11:24:47.590,-32.0626,-110.9379
11:24:47.600,-29.3751,-100.8129
11:24:47.610,-27.1251,-87.1253
11:24:47.622,-22.8751,-71.9378
11:24:47.630,-18.3126,-53.6877
11:24:47.640,-14.3438,-37.6876
11:24:47.651,-10.2813,-19.4376
11:24:47.660,-7.4688,-2.875
11:24:47.670,-2.375,11.5625
11:24:47.680,0.75,25.1251
11:24:47.690,3.5313,35.8126
11:24:47.700,6.1875,44.5627
11:24:47.710,7.3125,52.0002
11:24:47.721,9.1563,55.7502
11:24:47.730,10.625,61.0627
11:24:47.740,10.4688,63.5627
11:24:47.750,11.1875,65.6253
11:24:47.763,11.0313,67.3753
11:24:47.770,11.9688,68.1253
11:24:47.780,11.875,70.4378
11:24:47.790,12.0313,69.4378
11:24:47.800,12.25,68.3753
11:24:47.810,10.75,66.1253
11:24:47.820,10.4063,63.0002
11:24:47.830,9.7813,58.8752
11:24:47.840,9.3125,54.8752
11:24:47.850,7.4688,50.1877
11:24:47.863,6.3438,45.3752
11:24:47.870,5.7188,40.8752
11:24:47.927,5.875,36.9376
11:24:47.928,3.9375,33.5001
11:24:47.929,4.2813,30.4376
11:24:47.933,2.8438,28.8751
11:24:47.936,2.75,26.4376
11:24:47.938,2.5938,24.3751
11:24:47.941,2.3438,22.4376
11:24:47.965,1.7813,21.5626
11:24:47.968,2.0313,20.3126
11:24:47.970,2.2188,20.0626
11:24:47.981,2.5938,18.2501
11:24:48.020,1.5,16.1251
11:24:48.023,1.625,13.6251
11:24:48.024,0,10.5625
11:24:48.030,0.0625,7.8125
11:24:48.059,-0.7813,4.6875
11:24:48.063,-0.875,1.5
11:24:48.063,-2.7188,-2.125
11:24:48.069,-3.9063,-6.75
11:24:48.070,-4.3125,-10.25
11:24:48.084,-4.75,-14.0626
11:24:48.091,-6.125,-17.5001
11:24:48.100,-6.6875,-21.8751
11:24:48.110,-7.6875,-25.1876
11:24:48.120,-8.875,-28.5001
11:24:48.134,-9.1875,-32.3126
11:24:48.140,-9.5625,-34.0626
11:24:48.150,-10.25,-37.9376
11:24:48.161,-12.2813,-41.1877
11:24:48.170,-12.5938,-43.8127
11:24:48.180,-13.5626,-45.5002
11:24:48.190,-13.3438,-48.5002
11:24:48.204,-14.6251,-52.1252
11:24:48.210,-15.5626,-53.4377
11:24:48.220,-15.2501,-54.6877
11:24:48.233,-15.8751,-58.3127
11:24:48.240,-16.6251,-59.3752
11:24:48.250,-17.0938,-62.4377
11:24:48.261,-18.2501,-64.1252
11:24:48.270,-17.6876,-65.7503
11:24:48.280,-18.5626,-68.0628
11:24:48.290,-19.3126,-70.5628
11:24:48.300,-20.5001,-73.8128
11:24:48.310,-21.1876,-75.4378
11:24:48.320,-21.9688,-78.5628
11:24:48.333,-21.2188,-79.8128
11:24:48.340,-21.8751,-81.5628
11:24:48.350,-20.9688,-80.6878
11:24:48.361,-20.7501,-75.6878
11:24:48.370,-18.0001,-67.6878
11:24:48.380,-14.7501,-55.5627
11:24:48.390,-11.6563,-41.2502
11:24:48.400,-8.0313,-25.6876
11:24:48.410,-4.375,-8.125
11:24:48.420,0.0625,9
11:24:48.430,5.25,25.2501
11:24:48.440,7.8438,40.8752
11:24:48.450,11.625,52.1252
11:24:48.462,13.8126,65.0627
11:24:48.470,17.0938,72.6253
11:24:48.480,19.9063,80.6878
11:24:48.491,20.8438,85.6253
11:24:48.500,21.6876,89.6878
11:24:48.510,23.1876,94.2504
11:24:48.521,24.5313,96.5629
11:24:48.530,25.5001,99.7504
11:24:48.540,25.6563,99.9379
11:24:48.550,25.9063,102.2504
11:24:48.560,25.6876,101.0004
11:24:48.570,25.6563,101.3754
11:24:48.581,24.9688,97.0004
11:24:48.590,23.5626,93.8754
11:24:48.600,21.5626,89.8128
11:24:48.610,20.2813,83.5003
11:24:48.621,18.4063,77.6253
11:24:48.630,17.5001,71.8753
11:24:48.669,15.7813,64.8752
11:24:48.670,14.3751,60.5627
11:24:48.674,13,54.8127
11:24:48.708,11.7813,50.6252
11:24:48.709,11.4063,46.0627
11:24:48.712,9.625,43.3752
11:24:48.717,9.0313,40.6252
11:24:48.718,7.75,38.2501
11:24:48.720,6.4688,35.3126
11:24:48.759,6.9688,31.8126
11:24:48.762,5.75,31.0626
11:24:48.764,4.125,26.6251
11:24:48.767,3.1875,24.3126
11:24:48.772,3.375,20.8126
11:24:48.799,2.3438,18.1251
11:24:48.801,1.3438,13.6876
11:24:48.804,-0.625,9.625
11:24:48.840,-1.5938,4.1875
11:24:48.844,-2.4063,0.6875
11:24:48.845,-3.25,-3.875
11:24:48.851,-3.7188,-7.8125
11:24:48.851,-5.4688,-12.375
11:24:48.865,-6.9688,-15.9376
11:24:48.870,-7.125,-20.3126
11:24:48.881,-7.5625,-23.5626
11:24:48.890,-8.2813,-26.4376
11:24:48.900,-9.1563,-30.0626
11:24:48.911,-10.6563,-32.5001
11:24:48.920,-10.3125,-36.9376
11:24:48.930,-11.4063,-40.5002
11:24:48.943,-12.6563,-42.8127
11:24:48.950,-12.6563,-45.8752
11:24:48.960,-13.6876,-49.2502
11:24:48.970,-14.5626,-50.9377
11:24:48.980,-14.5938,-53.7502
11:24:48.990,-15.9063,-57.3752
11:24:49.000,-16.6563,-59.0627
11:24:49.010,-18.1251,-62.1252
11:24:49.021,-18.8126,-64.5627
11:24:49.030,-18.9063,-67.5628
11:24:49.040,-20.0626,-69.8128
11:24:49.050,-20.7501,-72.6878
11:24:49.060,-21.9063,-75.6253
11:24:49.070,-22.0313,-78.3128
11:24:49.080,-23.2813,-80.8753
11:24:49.090,-23.4688,-82.6878
11:24:49.100,-23.9688,-85.5003
11:24:49.110,-24.2501,-86.5003
11:24:49.123,-24.5938,-88.4378
11:24:49.131,-23.1876,-86.5003
11:24:49.140,-21.9063,-80.0628
11:24:49.150,-19.8438,-70.6878
11:24:49.160,-16.7188,-57.3752
11:24:49.170,-12.4063,-39.8127
11:24:49.182,-7.7813,-22.3126
11:24:49.199,-3.3438,-3.75
11:24:49.203,0.1875,15.8126
11:24:49.219,4.6875,31.8751
11:24:49.221,8.75,49.1877
11:24:49.230,13.5313,62.3752
11:24:49.241,16.0626,75.9378
11:24:49.250,19.3438,85.7503
11:24:49.260,22.0938,94.6254
11:24:49.270,24.0938,102.5629
11:24:49.283,26.2501,108.4379
11:24:49.290,26.8126,113.3754
11:24:49.300,28.1564,117.3129
11:24:49.312,27.5314,120.7505
11:24:49.320,28.9376,122.2505
11:24:49.338,30.1251,125.188
11:24:49.342,29.5314,126.813
11:24:49.356,29.8439,125.1255
11:24:49.360,28.5626,124.563
11:24:49.375,28.3751,122.063
11:24:49.381,27.8126,117.5629
11:24:49.410,26.4063,112.7504
11:24:49.413,25.2501,105.5629
11:24:49.415,22.2501,98.2504
11:24:49.424,21.4688,91.6879
11:24:49.449,19.5626,84.0003
11:24:49.451,18.0313,77.1878
11:24:49.453,16.1251,70.1878
11:24:49.460,14.5938,65.1878
11:24:49.487,13.5938,59.9377
11:24:49.489,13.0625,54.6252
11:24:49.492,11.25,50.8127
11:24:49.521,10.6563,47.9377
11:24:49.524,9.625,43.4377
11:24:49.525,8.9375,41.2502
11:24:49.531,8.125,37.9376
11:24:49.547,7.5625,33.9376
11:24:49.555,6.5,30.3126
11:24:49.565,5.6875,27.3126
11:24:49.575,4.5313,22.8751
11:24:49.585,3.25,19.8126
11:24:49.595,2.25,14.1876
11:24:49.605,1.2188,9.5
11:24:49.615,0.0625,5.125
11:24:49.625,-1.3125,0.1875
11:24:49.635,-1.5938,-3.125
11:24:49.645,-3.125,-7.8125
11:24:49.655,-4.25,-12.5
11:24:49.666,-5.2813,-16.5626
11:24:49.675,-6.2188,-20.5001
11:24:49.685,-7.3438,-24.6251
11:24:49.696,-8.1875,-29.6251
11:24:49.705,-9.3438,-33.1876
11:24:49.715,-11.1875,-39.8752
11:24:49.727,-11.875,-42.3752
11:24:49.736,-12.0938,-46.1877
11:24:49.745,-12.7188,-49.1252
11:24:49.758,-13.5938,-52.2502
11:24:49.765,-14.4688,-54.5627
11:24:49.775,-15.3751,-56.8127
11:24:49.785,-15.2188,-61.1252
11:24:49.795,-16.6876,-62.6252
11:24:49.805,-17.5313,-65.8127
11:24:49.815,-18.2188,-68.9378
11:24:49.825,-18.6876,-71.8753
11:24:49.835,-19.0313,-73.3753
11:24:49.845,-19.6563,-76.8753
11:24:49.855,-20.4688,-79.3128
11:24:49.865,-21.5001,-81.5628
11:24:49.875,-21.5626,-84.3128
11:24:49.885,-21.0313,-86.7503
11:24:49.895,-22.1251,-87.5003
11:24:49.905,-21.6251,-88.5628
11:24:49.915,-19.8751,-84.5628
11:24:49.926,-18.4376,-76.5628
11:24:49.935,-14.7501,-65.5628
11:24:49.945,-11.4375,-49.5627
11:24:49.956,-8,-33.2501
11:24:49.965,-3.1875,-15.4376
11:24:49.975,1.0313,4
11:24:49.990,5.5625,21.0001
11:24:49.995,9.5,38.6876
11:24:50.005,12.3125,53.8127
11:24:50.015,15.8126,65.5627
11:24:50.027,18.9063,76.5003
11:24:50.035,21.0313,85.4378
11:24:50.045,23.1251,92.3754
11:24:50.055,24.0938,99.0004
11:24:50.066,25.3126,103.3129
11:24:50.082,26.6564,107.2504
11:24:50.085,27.3126,111.3754
11:24:50.119,27.7814,113.1879
11:24:50.123,27.9376,114.6254
11:24:50.124,28.6564,116.7504
11:24:50.127,28.3126,115.8754
11:24:50.165,27.9376,114.8754
11:24:50.168,27.6564,111.8754
11:24:50.170,25.7813,107.0629
11:24:50.173,24.5313,101.7504
11:24:50.177,22.3126,95.5629
11:24:50.191,21.5001,88.1253
11:24:50.196,18.7813,80.1878
11:24:50.229,16.8751,72.3753
11:24:50.231,14.7813,65.3753
11:24:50.232,13.7813,58.8752
11:24:50.237,12.6875,53.1877
11:24:50.247,10.9688,48.5002
11:24:50.255,9.5938,43.6877
11:24:50.265,8.6563,39.0001
11:24:50.275,7.9375,36.7501
11:24:50.285,7.375,32.4376
11:24:50.295,6.8125,29.8751
11:24:50.305,5.5625,26.0001
11:24:50.315,4.5,23.0001
11:24:50.325,4.0625,19.9376
11:24:50.335,3.375,15.0001
11:24:50.345,1.5,10.875
11:24:50.355,-0.0938,7.1875
11:24:50.365,-0.75,1.75
11:24:50.377,-2.4375,-1.9375
11:24:50.385,-4.0313,-7
11:24:50.395,-5.1875,-12.375
11:24:50.405,-7,-17.3751
11:24:50.416,-7.3438,-21.8751
11:24:50.425,-8.6563,-26.0001
11:24:50.439,-10.4688,-30.8751
11:24:50.447,-11.1875,-35.4376
11:24:50.455,-13.2188,-40.3752
11:24:50.465,-14.3751,-44.9377
11:24:50.475,-15.6563,-48.3752
11:24:50.485,-15.9063,-52.1252
11:24:50.501,-17.3438,-55.0002
11:24:50.516,-17.8751,-58.8127
11:24:50.518,-19.1563,-62.6252
11:24:50.525,-19.3126,-65.7503
11:24:50.535,-19.8438,-69.1878
11:24:50.545,-21.2188,-72.5628
11:24:50.555,-22.5626,-74.6878
11:24:50.565,-23.2188,-77.3753
11:24:50.575,-23.9688,-79.8128
11:24:50.585,-23.9063,-83.5003
11:24:50.596,-25.2501,-84.8753
11:24:50.605,-26.6251,-87.8753
11:24:50.615,-27.0314,-89.9378
11:24:50.634,-28.1251,-92.5004
11:24:50.636,-28.1876,-95.5629
11:24:50.651,-29.7501,-98.2504
11:24:50.656,-30.1876,-100.2504
11:24:50.665,-30.8751,-102.6879
11:24:50.676,-31.4064,-104.7504
11:24:50.685,-31.4376,-107.3754
11:24:50.695,-30.9689,-108.4379
11:24:50.705,-32.8439,-111.0004
11:24:50.715,-32.3751,-113.3754
11:24:50.726,-31.4376,-112.2504
11:24:50.742,-30.7501,-107.0629
11:24:50.745,-28.3439,-97.1879
11:24:50.755,-25.1876,-82.9378
11:24:50.765,-21.4688,-66.0003
11:24:50.775,-17.4688,-48.2502
11:24:50.785,-12.3438,-29.6251
11:24:50.795,-8.2813,-10.8125
11:24:50.806,-3.0938,6.5625
11:24:50.838,1.5938,23.9376
11:24:50.840,4.8125,36.2501
11:24:50.842,8.75,47.7502
11:24:50.871,11.3125,59.1877
11:24:50.872,13.2501,65.0627
11:24:50.877,15.1251,71.4378
11:24:50.880,16.9688,75.9378
11:24:50.911,17.6563,78.9378
11:24:50.912,18.2188,80.8753
11:24:50.915,17.7501,83.8128
11:24:50.919,18.0938,84.0003
11:24:50.949,17.8438,84.0628
11:24:50.951,17.8751,83.7503
11:24:50.952,17.3126,81.3753
11:24:50.955,16.5001,79.2503
11:24:50.988,15.1876,75.7503
11:24:50.990,13.7813,70.2503
11:24:50.992,13.6563,64.8127
11:24:50.996,11.5625,58.6877
11:24:51.005,9.0938,52.3127
11:24:51.015,8.6875,44.8752
11:24:51.027,6.8438,39.5627
11:24:51.035,6,35.7501
11:24:51.045,4.2813,30.3126
11:24:51.055,3.625,28.1251
11:24:51.065,3.1563,23.8751
11:24:51.075,2.0313,22.1876
11:24:51.085,2.4375,19.6876
11:24:51.095,1.875,17.8126
11:24:51.105,1.2188,16.6876
11:24:51.115,0.7813,14.8126
11:24:51.125,0.875,13
11:24:51.135,0.7813,9.8125
11:24:51.145,-0.5938,7.3125
11:24:51.155,-1.3125,4.5
11:24:51.165,-1.8125,1.0625
11:24:51.175,-1.4063,-2.0625
11:24:51.185,-1.0938,-4.3125
11:24:51.195,-2.5313,-8.0625
11:24:51.205,-2.5625,-11.25
11:24:51.216,-3.3125,-14.3126
11:24:51.225,-3.375,-16.9376
11:24:51.235,-3.3125,-20.8751
11:24:51.245,-3.9063,-23.3751
11:24:51.255,-3.5313,-26.4376
11:24:51.265,-3.625,-28.3751
11:24:51.275,-3.375,-29.7501
11:24:51.285,-1.5313,-30.7501
11:24:51.297,-1.2813,-31.3126
11:24:51.305,0.5938,-31.7501
11:24:51.315,0.1875,-33.1876
11:24:51.325,0.5625,-34.1876
11:24:51.335,1.0938,-34.4376
11:24:51.346,2.25,-35.0001
11:24:51.355,5.6875,-32.0001
11:24:51.365,7.6875,-28.0626
11:24:51.401,10.75,-25.5626
11:24:51.403,12.5313,-24.3126
11:24:51.406,13.3438,-22.1876
11:24:51.408,14.1563,-21.7501
11:24:51.416,14.9063,-21.0626
11:24:51.428,15.3751,-21.2501
11:24:51.435,15.5626,-20.2501
11:24:51.446,15.6251,-21.1251
11:24:51.456,15.5938,-22.0001
11:24:51.465,15.5938,-23.5001
11:24:51.478,14.2501,-22.1876
11:24:51.488,13.2501,-25.8126
11:24:51.499,9.5625,-27.1876
11:24:51.505,9.25,-26.0626
11:24:51.515,8.6563,-24.0626
11:24:51.530,9.0625,-18.3126
11:24:51.535,10.4375,-9.3125
11:24:51.568,10.6875,1.875
11:24:51.570,11.9688,13.8126
11:24:51.573,12.875,26.9376
11:24:51.600,13.8126,42.0627
11:24:51.601,15.9376,54.8752
11:24:51.604,17.6563,65.5628
11:24:51.609,19.0313,78.1878
11:24:51.636,19.3126,84.3753
11:24:51.640,17.4063,89.4378
11:24:51.641,13.2188,89.1878
11:24:51.668,6.0313,85.1253
11:24:51.673,0.8125,80.2503
11:24:51.673,-0.375,79.1253
11:24:51.700,-1.6875,78.7503
11:24:51.700,-3.375,74.5003
11:24:51.705,-9.75,66.3128
