timestamp,Red,IR
12:43:20.046,-12.3125,-30.3126
12:43:20.057,-13,-32.0001
12:43:20.066,-13.2501,-31.6876
12:43:20.077,-13.1251,-33.5626
12:43:20.086,-13.7501,-34.4376
12:43:20.096,-14.0001,-33.2501
12:43:20.106,-13.3126,-34.0626
12:43:20.116,-12.5625,-33.6251
12:43:20.126,-11.5,-30.8751
12:43:20.136,-9.375,-26.0001
12:43:20.146,-6.4375,-22.3126
12:43:20.156,-4.75,-16.9376
12:43:20.166,-1.8125,-11.375
12:43:20.177,1.75,-6.3125
12:43:20.187,3.1875,-1.4375
12:43:20.196,6,3.0625
12:43:20.206,7.125,7.3125
12:43:20.217,9.3125,11.75
12:43:20.227,9.875,14.8751
12:43:20.236,11.3125,17.3751
12:43:20.246,12.3125,19.5001
12:43:20.256,13.1876,23.7501
12:43:20.266,13.8751,25.9376
12:43:20.277,15.0626,28.1876
12:43:20.286,15.8126,31.4376
12:43:20.296,17.3126,32.3126
12:43:20.306,18.1876,34.9376
12:43:20.316,18.0001,36.4376
12:43:20.326,18.6251,37.8751
12:43:20.336,18.9376,39.1252
12:43:20.352,20.1876,39.9377
12:43:20.356,18.9376,40.2502
12:43:20.393,19.0001,39.8127
12:43:20.396,17.8126,39.1876
12:43:20.396,16.5001,38.2501
12:43:20.400,16.6251,36.8751
12:43:20.430,15.7501,36.8751
12:43:20.434,15.2501,34.8126
12:43:20.439,15.1876,33.7501
12:43:20.439,14.2501,33.0626
12:43:20.470,14.3751,33.1251
12:43:20.472,14.1876,32.1876
12:43:20.510,13.5001,31.0626
12:43:20.512,12.6875,32.0626
12:43:20.515,13,29.9376
12:43:20.515,12.9375,29.5001
12:43:20.515,11.0625,27.3751
12:43:20.545,10.5625,26.4376
12:43:20.546,9.875,26.9376
12:43:20.549,10.625,25.1876
12:43:20.554,9.9375,23.3126
12:43:20.562,8.875,22.3751
12:43:20.571,8.125,22.2501
12:43:20.581,7,20.6876
12:43:20.591,6.0625,18.5626
12:43:20.602,6,16.1251
12:43:20.611,5.5,15.4376
12:43:20.622,3.75,14.6876
12:43:20.632,4,13.125
12:43:20.643,3.25,10.625
12:43:20.661,3.25,9.4375
12:43:20.672,2.125,7.9375
12:43:20.677,1.125,6.3125
12:43:20.681,0,3.6875
12:43:20.691,-1.125,4.0625
12:43:20.701,-1.4375,2.3125
12:43:20.711,-1.25,0.125
12:43:20.727,-2.1875,-1.4375
12:43:20.732,-2.875,-3.0625
12:43:20.742,-4.5625,-5.4375
12:43:20.751,-4.6875,-6.375
12:43:20.761,-5.5625,-7.125
12:43:20.772,-5.4375,-8.625
12:43:20.781,-5.75,-10.625
12:43:20.792,-6.5625,-10.75
12:43:20.801,-6.6875,-11.875
12:43:20.813,-7.4375,-13.8751
12:43:20.821,-7.875,-14.6876
12:43:20.831,-8.375,-16.1876
12:43:20.841,-7.625,-16.9376
12:43:20.851,-8.875,-18.3751
12:43:20.861,-9.5,-18.6251
12:43:20.871,-9.25,-20.4376
12:43:20.881,-10.5,-22.6876
12:43:20.891,-10.6875,-22.3126
12:43:20.902,-11.5625,-24.3751
12:43:20.911,-12.625,-26.1251
12:43:20.921,-11.6875,-26.5001
12:43:20.931,-12.9375,-27.6876
12:43:20.941,-13.125,-28.1876
12:43:20.951,-13.2501,-29.8751
12:43:20.961,-14.3126,-30.8751
12:43:20.971,-14.8751,-32.0001
12:43:20.981,-15.0001,-33.2501
12:43:20.992,-14.5001,-32.9376
12:43:21.031,-14.5626,-33.5626
12:43:21.034,-13.9376,-32.2501
12:43:21.037,-11.625,-29.4376
12:43:21.044,-10.4375,-26.0626
12:43:21.046,-8.0625,-20.7501
12:43:21.081,-5.9375,-17.0626
12:43:21.084,-3.9375,-10.5
12:43:21.086,-1.0625,-6.625
12:43:21.090,0.375,-2.5625
12:43:21.117,2.1875,1.8125
12:43:21.120,4.4375,6.9375
12:43:21.123,5.5,9.4375
12:43:21.127,6.25,14.5001
12:43:21.155,8.5625,16.3751
12:43:21.159,9.1875,19.5001
12:43:21.160,10.375,22.1876
12:43:21.186,12.0625,27.5626
12:43:21.189,13.9376,30.2501
12:43:21.194,14.3126,31.2501
12:43:21.196,15.0626,34.8126
12:43:21.211,15.6876,35.5626
12:43:21.216,16.7501,37.8126
12:43:21.226,17.0626,38.3751
12:43:21.236,17.1251,39.6877
12:43:21.246,18.5626,40.3752
12:43:21.256,17.3751,39.8752
12:43:21.266,16.1876,40.1877
12:43:21.276,16.1251,40.0002
12:43:21.287,15.3751,37.8126
12:43:21.296,14.7501,36.6251
12:43:21.306,14.0001,35.1251
12:43:21.316,13.5626,34.1876
12:43:21.326,12.6875,34.5001
12:43:21.336,13.3126,33.3751
12:43:21.346,12.875,32.7501
12:43:21.356,12.0625,31.7501
12:43:21.366,11.5625,31.7501
12:43:21.376,11.3125,30.0001
12:43:21.386,10.9375,28.9376
12:43:21.396,10,28.0001
12:43:21.407,9.375,27.6251
12:43:21.417,9.375,25.1251
12:43:21.427,8.25,23.8126
12:43:21.437,7.875,23.2501
12:43:21.446,6.875,22.1251
12:43:21.457,6.375,19.8751
12:43:21.466,5.375,17.3751
12:43:21.477,4.5,16.3126
12:43:21.486,3.25,16.1876
12:43:21.496,3.875,13.5001
12:43:21.508,2.8125,11.375
12:43:21.516,2.25,9.875
12:43:21.526,1.25,8.4375
12:43:21.536,-0.125,7.25
12:43:21.546,-0.4375,5.8125
12:43:21.557,-0.6875,4.125
12:43:21.566,-1.125,2.5625
12:43:21.576,-2.3125,0.375
12:43:21.586,-3.125,-0.6875
12:43:21.596,-3.375,-1.9375
12:43:21.607,-3.625,-3.5625
12:43:21.616,-4.5,-5.5
12:43:21.627,-5.1875,-7.0625
12:43:21.636,-6.375,-7.875
12:43:21.646,-6.375,-8.875
12:43:21.656,-6.75,-11.25
12:43:21.666,-7.1875,-12.8125
12:43:21.676,-7.25,-13.3751
12:43:21.687,-8.5625,-13.8126
12:43:21.696,-8.8125,-16.0001
12:43:21.706,-9.375,-18.6251
12:43:21.716,-9.875,-19.3751
12:43:21.726,-9.5625,-20.3126
12:43:21.736,-11.3125,-21.9376
12:43:21.746,-11.8125,-21.4376
12:43:21.756,-11.5625,-24.1251
12:43:21.795,-11.875,-23.4376
12:43:21.797,-12.1875,-26.8126
12:43:21.812,-12.875,-26.4376
12:43:21.840,-13.3751,-28.4376
12:43:21.842,-13.5626,-30.1251
12:43:21.875,-13.9376,-30.3751
12:43:21.876,-15.0001,-32.1876
12:43:21.886,-14.9376,-33.1251
12:43:21.886,-14.8126,-34.5001
12:43:21.886,-16.3751,-35.8126
12:43:21.886,-16.4376,-36.7501
12:43:21.887,-16.5626,-38.4376
12:43:21.917,-17.3751,-38.6251
12:43:21.923,-16.9376,-39.1877
12:43:21.926,-17.1251,-39.1877
12:43:21.928,-16.1251,-38.8751
12:43:21.964,-15.8751,-37.6251
12:43:21.990,-14.3751,-34.7501
12:43:21.992,-12.875,-30.8751
12:43:22.008,-9.1875,-26.3751
12:43:22.009,-6.6875,-21.1251
12:43:22.009,-5.0625,-15.7501
12:43:22.022,-2,-10.1875
12:43:22.025,0.3125,-5.4375
12:43:22.040,2.25,-0.75
12:43:22.042,4.625,3.25
12:43:22.045,5.375,8.125
12:43:22.052,9.625,16.3126
12:43:22.061,11.125,21.1876
12:43:22.074,12.375,23.6251
12:43:22.082,13.5001,26.0626
12:43:22.094,14.7501,30.2501
12:43:22.101,16.8126,32.7501
12:43:22.111,17.3126,35.4376
12:43:22.122,17.6251,37.2501
12:43:22.131,18.6251,41.2502
12:43:22.141,19.3751,43.9377
12:43:22.151,20.5001,44.3752
12:43:22.163,21.7501,47.6252
12:43:22.174,21.6876,47.7502
12:43:22.181,20.6876,47.4377
12:43:22.191,19.8751,47.8127
12:43:22.201,19.1251,47.3127
12:43:22.212,18.9376,46.0002
12:43:22.222,18.0001,44.2502
12:43:22.231,17.0001,43.0002
12:43:22.241,16.1251,42.3752
12:43:22.254,16.0626,41.3752
12:43:22.261,15.6251,40.0002
12:43:22.271,15.0626,38.3126
12:43:22.281,14.1251,38.3751
12:43:22.292,13.5626,37.0626
12:43:22.301,13.8126,35.5001
12:43:22.311,11.9375,34.8751
12:43:22.322,12,33.1251
12:43:22.332,10.6875,32.3126
12:43:22.343,11.25,31.1876
12:43:22.351,10.25,29.7501
12:43:22.366,9.125,28.5626
12:43:22.372,8.6875,26.8126
12:43:22.382,7.6875,25.0626
12:43:22.391,6.75,23.2501
12:43:22.401,5.875,21.6876
12:43:22.411,5,19.2501
12:43:22.421,5.1875,18.1876
12:43:22.433,4.5625,17.1876
12:43:22.441,3.0625,14.7501
12:43:22.451,3.3125,13.8751
12:43:22.462,2.125,12.625
12:43:22.471,1,10.25
12:43:22.506,1.125,8.25
12:43:22.508,-0.625,6.8125
12:43:22.510,-0.6875,4.5625
12:43:22.513,-1.8125,2.875
12:43:22.548,-2.5,0.875
12:43:22.550,-3.1875,-1.125
12:43:22.552,-4.4375,-3.125
12:43:22.555,-4.3125,-4.375
12:43:22.561,-5.75,-5.4375
12:43:22.592,-6.25,-7.0625
12:43:22.594,-6,-9.1875
12:43:22.597,-7.75,-10.4375
12:43:22.602,-7.9375,-11.6875
12:43:22.641,-8.5,-14.3126
12:43:22.642,-8.5625,-14.3126
12:43:22.645,-9.0625,-16.5626
12:43:22.647,-9.625,-18.4376
12:43:22.652,-9.4375,-18.6251
12:43:22.664,-11.1875,-20.1251
12:43:22.671,-11.375,-21.5626
12:43:22.682,-12.1875,-22.4376
12:43:22.691,-11.75,-24.6251
12:43:22.702,-12.5625,-25.2501
12:43:22.712,-12.625,-26.3751
12:43:22.721,-13.3751,-27.2501
12:43:22.731,-13.9376,-28.8751
12:43:22.742,-14.7501,-30.0626
12:43:22.751,-14.9376,-31.4376
12:43:22.761,-15.1251,-31.9376
12:43:22.771,-15.9376,-34.6876
12:43:22.782,-15.9376,-34.5626
12:43:22.792,-16.5626,-36.6251
12:43:22.802,-17.0626,-36.4376
12:43:22.811,-17.4376,-39.6252
12:43:22.821,-16.6876,-38.6876
12:43:22.831,-17.3751,-37.9376
12:43:22.841,-16.1876,-38.5626
12:43:22.851,-15.6251,-37.0626
12:43:22.861,-13.4376,-34.5001
12:43:22.871,-11.5625,-31.0626
12:43:22.884,-9.75,-25.2501
12:43:22.893,-6.5,-20.4376
12:43:22.903,-4.125,-15.4376
12:43:22.911,-1.1875,-9.4375
12:43:22.921,1.0625,-4.1875
12:43:22.931,2.5,0.1875
12:43:22.941,4.4375,4.4375
12:43:22.951,6,7.8125
12:43:22.961,7.1875,12.5625
12:43:22.972,9.125,15.5626
12:43:22.981,9.5,19.3126
12:43:22.991,11.4375,22.3751
12:43:23.002,13.3751,25.5001
12:43:23.011,14.0001,28.8751
12:43:23.022,15.2501,30.8751
12:43:23.032,15.5001,33.5626
12:43:23.065,16.8751,35.7501
12:43:23.066,17.0626,38.8126
12:43:23.069,18.5001,40.2502
12:43:23.073,19.1876,41.6252
12:43:23.082,18.6876,43.1877
12:43:23.091,18.9376,44.0627
12:43:23.102,18.8751,43.9377
12:43:23.125,17.6876,42.7502
12:43:23.130,17.0626,42.5002
12:43:23.134,16.8126,41.7502
12:43:23.146,15.4376,40.2502
12:43:23.155,14.7501,38.9376
12:43:23.161,14.3751,37.3751
12:43:23.171,13.6251,35.1876
12:43:23.181,13.0625,34.1251
12:43:23.192,12.3125,33.6251
12:43:23.201,12.0625,33.7501
12:43:23.211,11.75,33.1251
12:43:23.221,11.875,32.4376
12:43:23.232,11.5625,30.9376
12:43:23.244,10,29.6876
12:43:23.252,10.1875,29.3751
12:43:23.261,9.5,28.0001
12:43:23.294,8.25,26.6251
12:43:23.327,7.5,24.9376
12:43:23.331,7.0625,22.8751
12:43:23.371,6.375,21.4376
12:43:23.398,5.9375,19.6251
12:43:23.401,4.875,19.1876
12:43:23.434,3.6875,16.5626
12:43:23.434,2.8125,15.3751
12:43:23.434,1.6875,13.5001
12:43:23.437,1.75,10.875
12:43:23.448,0.5625,10.3125
12:43:23.450,0.3125,8.75
12:43:23.450,-0.0625,6.4375
12:43:23.458,-0.625,5.75
12:43:23.466,-0.875,3.6875
12:43:23.476,-1.875,2.1875
12:43:23.493,-2.6875,0.75
12:43:23.497,-3.9375,-1.0625
12:43:23.506,-4.8125,-2
12:43:23.516,-5.625,-4.875
12:43:23.526,-5.9375,-6.875
12:43:23.536,-6.6875,-8.3125
12:43:23.548,-7.25,-9.875
12:43:23.557,-7.3125,-11.1875
12:43:23.566,-12.375,-21.0001
12:43:23.576,-12.6875,-21.2501
12:43:23.586,-12.8125,-23.3126
12:43:23.597,-12.5,-23.8751
12:43:23.606,-14.1251,-25.1876
12:43:23.617,-14.2501,-26.6251
12:43:23.626,-14.8126,-28.4376
12:43:23.636,-14.5626,-28.9376
12:43:23.647,-15.6251,-29.3126
12:43:23.657,-15.8126,-31.6876
12:43:23.666,-15.6251,-32.1876
12:43:23.676,-17.1251,-33.7501
12:43:23.686,-17.0001,-34.2501
12:43:23.696,-17.4376,-36.0626
12:43:23.706,-18.1876,-37.6251
12:43:23.717,-18.8751,-38.2501
12:43:23.726,-19.0001,-38.7501
12:43:23.736,-18.2501,-39.0626
12:43:23.748,-18.3126,-38.0626
12:43:23.758,-16.3751,-35.5626
12:43:23.766,-14.1251,-33.0001
12:43:23.776,-12.6875,-26.5001
12:43:23.786,-9.5,-22.5626
12:43:23.796,-7.625,-17.8126
12:43:23.807,-5.3125,-11.8125
12:43:23.816,-3.1875,-8.1875
12:43:23.826,-0.625,-2.4375
12:43:23.836,0.5625,0.9375
12:43:23.846,1.875,5.0625
12:43:23.856,3.25,8.3125
12:43:23.867,4.125,11.3125
12:43:23.877,5.6875,14.2501
12:43:23.887,6.75,16.1876
12:43:23.896,7.4375,19.1876
12:43:23.908,8.4375,20.5626
12:43:23.916,9.1875,24.1251
12:43:23.926,10.3125,26.0626
12:43:23.936,10.625,29.0626
12:43:23.946,11.75,30.8126
12:43:23.957,12,31.9376
12:43:23.966,12.3125,32.8751
12:43:24.008,12.3125,33.1876
12:43:24.009,12.1875,33.1876
12:43:24.013,11,32.8751
12:43:24.016,10.625,31.7501
12:43:24.020,10.3125,30.4376
12:43:24.049,9.625,29.0626
12:43:24.050,8.6875,27.2501
12:43:24.056,8.1875,27.0001
12:43:24.059,7.625,27.7501
12:43:24.096,7.375,25.6251
12:43:24.098,6.9375,24.1251
12:43:24.100,5.625,24.5626
12:43:24.138,5.9375,23.0626
12:43:24.138,5.4375,22.1251
12:43:24.138,4.625,20.1251
12:43:24.140,4.375,20.6876
12:43:24.150,4.5625,19.9376
12:43:24.150,3.5625,18.1876
12:43:24.160,2.6875,17.0626
12:43:24.167,2.75,16.8126
12:43:24.176,2.25,15.1251
12:43:24.186,1.1875,12.8125
12:43:24.196,0.375,10.9375
12:43:24.207,-0.3125,10.1875
12:43:24.216,-1.375,9.375
12:43:24.226,-2.0625,7.3125
12:43:24.240,-2.8125,5.1875
12:43:24.249,-3.3125,3.9375
12:43:24.256,-4.4375,1.875
12:43:24.268,-4.8125,0.8125
12:43:24.276,-5.375,-0.9375
12:43:24.287,-5.75,-1.625
12:43:24.296,-6.4375,-4.125
12:43:24.306,-7.25,-5.4375
12:43:24.316,-8.375,-6.25
12:43:24.344,-8.875,-8.9375
12:43:24.346,-8.3125,-10.0625
12:43:24.349,-9.8125,-11.875
12:43:24.358,-10.9375,-11.9375
12:43:24.366,-11.0625,-14.1251
12:43:24.377,-11.9375,-16.1251
12:43:24.386,-12,-16.5001
12:43:24.397,-12.4375,-18.8751
12:43:24.407,-12.8125,-19.8751
12:43:24.416,-13.6876,-20.1876
12:43:24.432,-14.4376,-22.5001
12:43:24.447,-15.1876,-24.5626
12:43:24.450,-15.1876,-25.3126
12:43:24.459,-15.5626,-26.8126
12:43:24.466,-16.1251,-27.5001
12:43:24.476,-16.3126,-28.6876
12:43:24.486,-17.8126,-30.3126
12:43:24.496,-18.2501,-31.0001
12:43:24.507,-17.5626,-32.7501
12:43:24.517,-18.5001,-33.1251
12:43:24.528,-18.7501,-34.6876
12:43:24.536,-19.0626,-34.9376
12:43:24.547,-18.9376,-36.8751
12:43:24.556,-20.0626,-37.8751
12:43:24.567,-20.5626,-39.0001
12:43:24.576,-20.6876,-41.0627
12:43:24.586,-21.3126,-40.9377
12:43:24.597,-20.1251,-40.9377
12:43:24.606,-20.4376,-42.3752
12:43:24.616,-20.9376,-40.3127
12:43:24.627,-19.5626,-39.8752
12:43:24.636,-18.3126,-36.1251
12:43:24.646,-15.0001,-32.8126
12:43:24.661,-12.6875,-25.9376
12:43:24.670,-10,-22.0626
12:43:24.676,-7.375,-15.1876
12:43:24.712,-4.375,-10.5625
12:43:24.715,-2.125,-5.4375
12:43:24.747,0,-0.375
12:43:24.750,2.25,3.125
12:43:24.784,4.375,8.625
12:43:24.784,5.5,11.0625
12:43:24.785,6.375,14.7501
12:43:24.788,7.6875,19.0001
12:43:24.817,10.0625,21.5001
12:43:24.819,10.9375,25.7501
12:43:24.820,11.375,27.9376
12:43:24.822,12.875,30.0626
12:43:24.831,14.2501,34.0001
12:43:24.831,15.0001,35.9376
12:43:24.844,14.8126,37.8126
12:43:24.849,15.8751,39.4377
12:43:24.856,15.6876,41.5002
12:43:24.866,16.1876,42.7502
12:43:24.876,15.9376,42.0627
12:43:24.886,15.3751,41.6877
12:43:24.896,14.5626,40.8752
12:43:24.910,13.8126,39.3752
12:43:24.917,12.1875,37.8126
12:43:24.928,12.0625,37.0626
12:43:24.937,11,36.5001
12:43:24.946,10.625,35.0626
12:43:24.958,10.375,34.5626
12:43:24.968,10,32.9376
12:43:24.977,9.4375,31.6251
12:43:24.991,8.5625,29.5001
12:43:24.997,8.3125,30.4376
12:43:25.006,7.75,28.7501
12:43:25.017,6.5,27.5626
12:43:25.026,6.3125,26.8751
12:43:25.037,5.5,24.1876
12:43:25.048,5.25,23.4376
12:43:25.056,4.6875,21.6251
12:43:25.067,3.4375,20.1876
12:43:25.078,3.4375,19.3126
12:43:25.093,2.375,17.8751
12:43:25.101,1.5625,16.3751
12:43:25.111,1.5,14.3126
12:43:25.121,-0.125,13.4376
12:43:25.132,-0.25,10.75
12:43:25.141,-1.8125,9.0625
12:43:25.152,-2.5625,6.125
12:43:25.162,-3.1875,4.8125
12:43:25.172,-3.5,3.0625
12:43:25.181,-4.5625,1.125
12:43:25.192,-5.5625,-0.375
12:43:25.201,-5.875,-1.5
12:43:25.212,-7.0625,-3.5625
12:43:25.223,-7.125,-5.1875
12:43:25.232,-7.5625,-6.875
12:43:25.242,-9.3125,-8.6875
12:43:25.251,-9.875,-10.125
12:43:25.262,-10.8125,-12.25
12:43:25.271,-10.6875,-14.3751
12:43:25.281,-11.75,-15.8751
12:43:25.291,-11.8125,-17.1251
12:43:25.302,-12.0625,-18.1876
12:43:25.313,-12.5625,-19.5001
12:43:25.321,-12.875,-21.1251
12:43:25.331,-13.8126,-22.2501
12:43:25.342,-14.5626,-23.4376
12:43:25.351,-15.0626,-25.8126
12:43:25.366,-15.0001,-26.8126
12:43:25.372,-16.1876,-28.1251
12:43:25.402,-16.1251,-29.0001
12:43:25.405,-17.0001,-30.9376
12:43:25.408,-17.1876,-31.1876
12:43:25.437,-17.6251,-33.5001
12:43:25.437,-18.1876,-34.5626
12:43:25.441,-18.5001,-35.5001
12:43:25.445,-18.6251,-36.6251
12:43:25.461,-19.5626,-37.6251
12:43:25.463,-18.8751,-38.1251
12:43:25.493,-20.0626,-40.1252
12:43:25.495,-19.8751,-40.3127
12:43:25.498,-20.5626,-41.7502
12:43:25.503,-20.8751,-42.6877
12:43:25.535,-20.8126,-43.1877
12:43:25.538,-20.7501,-42.8127
12:43:25.542,-19.6876,-41.8127
12:43:25.567,-17.7501,-38.9376
12:43:25.567,-16.0001,-35.3751
12:43:25.572,-13.8751,-29.1876
12:43:25.577,-10.5,-24.7501
12:43:25.582,-8.5,-18.8751
12:43:25.591,-5.25,-12.375
12:43:25.624,-3.0625,-7.875
12:43:25.625,-1.375,-2.9375
12:43:25.628,0.9375,2.6875
12:43:25.634,3.0625,5.875
12:43:25.641,4.25,10.4375
12:43:25.654,5.1875,14.8126
12:43:25.661,7.1875,17.0626
12:43:25.672,7.9375,20.3126
12:43:25.682,9.6875,24.5626
12:43:25.691,10.625,27.4376
12:43:25.702,11.75,31.3126
12:43:25.711,13.3751,34.5626
12:43:25.721,13.8751,35.9376
12:43:25.748,14.4376,40.1877
12:43:25.749,15.5001,42.2502
12:43:25.765,16.6876,44.0627
12:43:25.780,16.8751,45.8127
12:43:25.782,17.0626,47.8752
12:43:25.796,17.4376,47.8752
12:43:25.797,17.1876,47.0002
12:43:25.803,16.9376,47.6877
12:43:25.811,16.4376,46.4377
12:43:25.821,15.5001,44.5627
12:43:25.832,14.1876,43.0002
12:43:25.843,13.5626,42.2502
12:43:25.854,13,40.0002
12:43:25.861,12.0625,39.8127
12:43:25.871,12.5625,38.5626
12:43:25.881,10.625,36.3751
12:43:25.892,9.9375,35.8126
12:43:25.901,9.25,34.6876
12:43:25.911,9.625,33.1251
12:43:25.923,8.8125,32.5626
12:43:25.932,8.5,31.1251
12:43:25.942,7.8125,30.5626
12:43:25.953,7.25,28.7501
12:43:25.962,6.3125,27.8126
12:43:25.971,5.75,25.1876
12:43:25.982,4.4375,23.9376
12:43:25.992,3.5625,22.2501
12:43:26.009,2.9375,19.6876
12:43:26.022,2.6875,18.9376
12:43:26.026,1.625,15.8126
12:43:26.040,1,14.3126
12:43:26.047,0.375,12.8125
12:43:26.052,-0.625,11.5625
12:43:26.061,-1.5,9.5625
12:43:26.071,-2.25,7
12:43:26.083,-2.8125,6.3125
12:43:26.093,-3.3125,3.5625
12:43:26.101,-4.5,1.75
12:43:26.142,-5.375,1.1875
12:43:26.144,-5.5,-1.1875
12:43:26.146,-6.8125,-3.3125
12:43:26.149,-6.875,-4.5625
12:43:26.151,-8.5,-6.0625
12:43:26.180,-9,-7.875
12:43:26.183,-9.125,-9.5
12:43:26.187,-10.375,-11.6875
12:43:26.192,-10.125,-13.3126
12:43:26.224,-11.375,-15.1876
12:43:26.226,-12.875,-15.5626
12:43:26.229,-12.3125,-18.1876
12:43:26.232,-12.875,-19.5001
12:43:26.268,-13.3751,-20.5626
12:43:26.269,-13.6251,-21.9376
12:43:26.273,-14.1876,-23.9376
12:43:26.274,-15.5626,-24.5001
12:43:26.298,-16.0001,-26.3751
12:43:26.302,-16.5626,-27.8751
12:43:26.305,-16.5001,-28.5001
12:43:26.311,-17.8751,-30.6251
12:43:26.323,-17.5626,-31.6876
12:43:26.331,-18.6251,-33.1251
12:43:26.341,-18.8751,-34.0626
12:43:26.352,-19.7501,-36.9376
12:43:26.361,-20.1251,-36.7501
12:43:26.372,-20.0626,-38.2501
12:43:26.381,-20.9376,-39.3751
12:43:26.393,-20.1876,-39.5002
12:43:26.402,-21.5001,-41.2502
12:43:26.411,-22.0001,-42.2502
12:43:26.422,-22.0001,-44.3752
12:43:26.431,-22.6251,-45.2502
12:43:26.441,-21.7501,-44.8752
12:43:26.451,-21.2501,-42.4377
12:43:26.461,-19.1876,-39.1876
12:43:26.471,-17.0001,-35.3751
12:43:26.482,-13.8751,-30.0626
12:43:26.492,-11.3125,-24.9376
12:43:26.502,-8.5,-19.0001
12:43:26.511,-5.875,-13.2501
12:43:26.522,-4.25,-7.8125
12:43:26.531,-2,-3.25
12:43:26.542,0,0.25
12:43:26.552,1,5
12:43:26.562,2.6875,7.6875
12:43:26.572,3.875,11.5
12:43:26.582,5.1875,14.5001
12:43:26.591,6.5625,17.5626
12:43:26.602,7.8125,21.0001
12:43:26.611,8.375,24.5626
12:43:26.621,9.6875,25.6876
12:43:26.631,10.9375,29.5626
12:43:26.641,11.375,30.8751
12:43:26.652,12.8125,33.5001
12:43:26.662,12.8125,36.3126
12:43:26.674,13.5001,36.8751
12:43:26.682,13.0625,38.6876
12:43:26.692,13.3126,37.4376
12:43:26.701,13.125,38.5626
12:43:26.712,12.25,37.8751
12:43:26.721,11.375,36.3751
12:43:26.733,10.375,34.8751
12:43:26.742,9.3125,32.9376
12:43:26.752,8.9375,31.6251
12:43:26.762,7.8125,31.0001
12:43:26.771,7.5,29.3751
12:43:26.782,7.5,28.0626
12:43:26.791,7.1875,27.8126
12:43:26.801,6.8125,26.6251
12:43:26.813,6.3125,25.8751
12:43:26.822,6.5,24.8751
12:43:26.832,4.9375,23.1876
12:43:26.842,5.0625,22.5626
12:43:26.851,4.125,21.5626
12:43:26.865,3.5625,20.6876
12:43:26.905,3.125,18.6876
12:43:26.906,1.8125,16.9376
12:43:26.908,1,16.2501
12:43:26.911,0.6875,13.8751
12:43:26.913,-0.4375,11.4375
12:43:26.945,-1.5625,9.75
12:43:26.948,-2.125,8.875
12:43:26.950,-2.75,7.5
12:43:26.956,-2.8125,5.4375
12:43:26.968,-4.5,2.875
12:43:26.974,-5.5,2.0625
12:43:26.999,-6,-1.125
12:43:27.001,-6.875,-2.3125
12:43:27.005,-7.5,-4.125
12:43:27.043,-9.125,-5.8125
12:43:27.044,-9.5,-7.0625
12:43:27.047,-10.25,-9.0625
12:43:27.048,-10.5625,-11
12:43:27.073,-11.9375,-12.875
12:43:27.074,-12.3125,-14.7501
12:43:27.088,-12.8125,-14.7501
12:43:27.092,-13.4376,-17.6251
12:43:27.105,-14.6876,-19.1251
12:43:27.107,-14.5626,-20.1251
12:43:27.115,-15.2501,-22.6876
12:43:27.122,-15.5626,-23.1251
12:43:27.133,-16.0001,-24.9376
12:43:27.141,-16.9376,-26.4376
12:43:27.153,-18.0626,-27.0626
12:43:27.161,-18.3751,-29.9376
12:43:27.171,-18.7501,-30.3751
12:43:27.182,-18.6251,-31.1251
12:43:27.191,-19.5001,-32.9376
12:43:27.202,-20.1251,-34.6876
12:43:27.211,-20.3751,-36.1251
12:43:27.221,-20.7501,-37.5626
12:43:27.231,-21.6251,-39.1876
12:43:27.241,-22.1876,-39.0626
12:43:27.252,-22.0001,-40.8127
12:43:27.263,-22.5626,-41.5002
12:43:27.272,-22.5626,-42.8127
12:43:27.281,-22.8126,-44.3127
12:43:27.293,-23.1876,-45.3127
12:43:27.301,-23.5626,-46.6252
12:43:27.311,-24.3126,-46.3127
12:43:27.332,-23.2501,-47.1877
12:43:27.334,-23.1876,-44.7502
12:43:27.349,-21.3126,-43.5627
12:43:27.364,-19.6251,-41.6252
12:43:27.365,-16.6876,-35.5001
12:43:27.373,-14.3126,-31.4376
12:43:27.383,-11.6875,-24.6876
12:43:27.391,-8.8125,-19.8751
12:43:27.401,-6.8125,-14.6251
12:43:27.411,-4.75,-8.25
12:43:27.421,-2.75,-5
12:43:27.433,-0.9375,-1.5625
12:43:27.443,0.5625,2.5
12:43:27.451,2.125,6.9375
12:43:27.463,3.1875,8.6875
12:43:27.473,4.5625,12.8125
12:43:27.483,5.125,14.8126
12:43:27.492,6.8125,19.0626
12:43:27.502,7.9375,20.6876
12:43:27.512,8.375,24.0626
12:43:27.522,10.25,26.1251
12:43:27.531,9.9375,28.8751
12:43:27.541,10.75,29.6876
12:43:27.552,11,32.1876
12:43:27.562,11.1875,32.4376
12:43:27.571,11.5,34.6876
12:43:27.581,11.0625,33.3751
12:43:27.591,10.375,32.8126
12:43:27.601,9.25,31.2501
12:43:27.612,8.75,30.4376
12:43:27.622,7.875,29.3751
12:43:27.631,7,27.0626
12:43:27.641,6.375,26.8126
12:43:27.686,6.3125,25.1876
12:43:27.686,5.625,24.3751
12:43:27.689,5.4375,24.1876
12:43:27.691,6.125,23.8126
12:43:27.694,6.4375,23.8751
12:43:27.702,6.375,23.6251
12:43:27.735,5.9375,23.9376
12:43:27.737,6.625,22.5001
12:43:27.739,6,21.0626
12:43:27.746,5.6875,21.3751
12:43:27.781,5.5,19.5001
12:43:27.784,4.4375,18.6876
12:43:27.785,3.625,16.7501
12:43:27.788,2.625,14.7501
12:43:27.794,1.75,12.5
12:43:27.801,0.625,11.6875
12:43:27.837,-0.0625,10.125
12:43:27.842,-0.4375,7.375
12:43:27.844,-1.0625,5.375
12:43:27.848,-2,3.0625
12:43:27.858,-3.4375,1.3125
12:43:27.865,-5,-0.1875
12:43:27.872,-5.5625,-2.75
12:43:27.883,-6.1875,-4.75
12:43:27.891,-7.3125,-7.6875
12:43:27.902,-7.5,-8.125
12:43:27.911,-8.4375,-10.4375
12:43:27.922,-9.5,-12.125
12:43:27.931,-10.5625,-12.875
12:43:27.942,-11.5,-14.8126
12:43:27.953,-11.5,-17.8126
12:43:27.961,-12.9375,-20.1876
12:43:27.972,-13.5001,-20.7501
12:43:27.982,-13.2501,-22.8751
12:43:27.992,-13.7501,-23.7501
12:43:28.001,-14.3751,-25.1876
12:43:28.012,-16.4376,-26.8751
12:43:28.023,-17.0626,-29.3751
12:43:28.032,-17.1876,-30.3751
12:43:28.044,-17.3126,-31.4376
12:43:28.053,-17.6251,-33.2501
12:43:28.062,-18.4376,-34.3126
12:43:28.071,-19.0626,-36.5001
12:43:28.083,-19.5626,-38.1251
12:43:28.092,-20.1876,-39.3752
12:43:28.102,-21.3751,-40.6877
12:43:28.112,-21.6251,-42.2502
12:43:28.122,-21.6251,-43.4377
12:43:28.133,-22.7501,-44.0002
12:43:28.141,-22.6876,-46.0627
12:43:28.152,-23.5001,-46.5627
12:43:28.183,-23.3126,-49.0002
12:43:28.185,-24.3126,-48.3752
12:43:28.188,-23.8751,-51.0627
12:43:28.195,-25.0626,-52.7502
12:43:28.203,-25.2501,-52.8127
12:43:28.211,-25.2501,-54.1877
12:43:28.221,-25.2501,-54.1877
12:43:28.236,-25.8751,-56.5002
12:43:28.241,-25.8751,-56.2502
12:43:28.251,-25.1876,-56.5002
12:43:28.262,-25.7501,-55.8127
12:43:28.271,-23.5626,-54.5002
12:43:28.282,-22.3751,-50.8752
12:43:28.292,-18.9376,-45.6877
12:43:28.302,-16.6876,-40.9377
12:43:28.311,-14.4376,-34.2501
12:43:28.322,-11.375,-29.4376
12:43:28.332,-8.8125,-23.4376
12:43:28.348,-6.625,-17.5001
12:43:28.353,-3.75,-12.9375
12:43:28.390,-2.8125,-7.625
12:43:28.393,0,-3.875
12:43:28.408,2.1875,0.6875
12:43:28.441,2.6875,4.0625
12:43:28.442,4.125,8.0625
12:43:28.444,6.4375,11.75
12:43:28.445,7.4375,14.6251
12:43:28.448,8.3125,18.3126
12:43:28.453,9.5,22.1251
12:43:28.455,10.9375,24.3126
12:43:28.486,11.875,27.1876
12:43:28.490,12.5625,29.4376
12:43:28.496,12.9375,31.8126
12:43:28.496,13.5626,33.0001
12:43:28.517,14.6251,35.6876
12:43:28.520,14.1876,35.5626
12:43:28.522,14.2501,36.1876
12:43:28.531,14.1251,35.8751
12:43:28.541,13.4376,35.5001
12:43:28.553,12.5625,33.8751
12:43:28.561,11.6875,32.6251
12:43:28.571,10.6875,31.0626
12:43:28.581,9.9375,29.2501
12:43:28.592,9,27.9376
12:43:28.601,8,26.2501
12:43:28.617,6.875,26.2501
12:43:28.623,7,24.6876
12:43:28.631,6.5,23.5626
12:43:28.650,5.625,22.7501
12:43:28.652,5.9375,22.0626
12:43:28.668,5.125,21.3751
12:43:28.677,4.625,19.6251
12:43:28.681,3.0625,18.6876
12:43:28.692,3.5,17.0626
12:43:28.702,2.5625,15.6251
12:43:28.711,1.375,14.8751
12:43:28.721,1.25,11.75
12:43:28.732,0.3125,10.9375
12:43:28.741,-0.5625,8.875
12:43:28.752,-1,7.0625
12:43:28.761,-2.1875,4.6875
12:43:28.772,-3.3125,3.6875
12:43:28.781,-4.375,1.8125
12:43:28.792,-4.4375,-0.75
12:43:28.803,-4.9375,-1.25
12:43:28.812,-6.375,-4.125
12:43:28.822,-7.25,-6.1875
12:43:28.831,-7.6875,-7.1875
12:43:28.842,-8.375,-9.25
12:43:28.852,-8.875,-10.5
12:43:28.862,-10.1875,-12.5625
12:43:28.871,-10.9375,-14.7501
12:43:28.881,-10.9375,-16.1251
12:43:28.892,-11.3125,-18.1876
12:43:28.901,-11.875,-19.1251
12:43:28.913,-13.3751,-20.6876
12:43:28.921,-12.4375,-22.1251
12:43:28.931,-14.2501,-23.4376
12:43:28.942,-14.3751,-24.9376
12:43:28.952,-15.5001,-26.6251
12:43:28.962,-15.9376,-28.3126
12:43:28.972,-16.8751,-30.5626
12:43:28.982,-16.8126,-31.3126
12:43:28.991,-16.8126,-31.7501
12:43:29.002,-17.7501,-34.1876
12:43:29.011,-18.0001,-35.2501
12:43:29.022,-19.0626,-35.3126
12:43:29.031,-18.8751,-38.1876
12:43:29.043,-19.1251,-39.2502
12:43:29.051,-19.8751,-39.8752
12:43:29.062,-20.3126,-41.4377
12:43:29.073,-20.5001,-42.7502
12:43:29.081,-21.0001,-43.8127
12:43:29.121,-21.0626,-44.5002
12:43:29.123,-21.5626,-44.8752
12:43:29.125,-21.7501,-46.9377
12:43:29.130,-22.6251,-47.1877
12:43:29.137,-22.7501,-48.8127
12:43:29.167,-22.3126,-49.8127
12:43:29.170,-23.9376,-50.6877
12:43:29.173,-23.6876,-52.6877
12:43:29.178,-23.6251,-52.3752
12:43:29.217,-24.2501,-55.1877
12:43:29.220,-24.1876,-55.1877
12:43:29.222,-24.6251,-54.9377
12:43:29.229,-24.0001,-56.0002
12:43:29.230,-24.1876,-54.4377
12:43:29.244,-22.3751,-53.5002
12:43:29.249,-20.4376,-50.9377
12:43:29.282,-17.7501,-44.1877
12:43:29.285,-14.1251,-38.2501
12:43:29.286,-11.375,-32.9376
12:43:29.292,-9.3125,-26.2501
12:43:29.297,-6.1875,-21.1876
12:43:29.307,-4.375,-15.6251
12:43:29.316,-1.3125,-11
12:43:29.327,0.1875,-6.3125
12:43:29.336,2,-1.375
12:43:29.348,3.6875,1.4375
12:43:29.356,4.75,5.375
12:43:29.374,5.5625,8.8125
12:43:29.378,7.375,11.3125
12:43:29.386,8.6875,15.1251
12:43:29.396,10.4375,18.6876
12:43:29.407,10.8125,20.6251
12:43:29.417,10.9375,23.8751
12:43:29.426,12.1875,25.6251
12:43:29.436,13.0625,27.3751
12:43:29.464,13.6251,30.2501
12:43:29.466,13.5001,31.5626
12:43:29.476,14.0626,32.3751
12:43:29.483,14.0001,32.8751
12:43:29.492,14.1876,33.9376
12:43:29.501,13.2501,32.4376
12:43:29.511,12.8125,32.5626
12:43:29.521,12.8125,31.4376
12:43:29.531,12.1875,30.3751
12:43:29.542,10.6875,28.8751
12:43:29.551,9.875,27.6251
12:43:29.562,10.1875,26.3751
12:43:29.571,9.25,25.6251
12:43:29.582,7.625,24.9376
12:43:29.592,8.0625,23.6251
12:43:29.601,7.8125,22.6876
12:43:29.612,7.6875,21.8751
12:43:29.622,6,20.6876
12:43:29.633,5.125,19.6251
12:43:29.641,5.3125,18.0626
12:43:29.652,4.25,17.6876
12:43:29.663,3.4375,15.3751
12:43:29.672,3.25,13.3126
12:43:29.692,2.4375,12.4375
12:43:29.699,1.875,10.6875
12:43:29.703,0.375,9
12:43:29.716,0.25,7.25
12:43:29.725,-1.25,5.5625
12:43:29.733,-1.75,4.5
12:43:29.747,-2.1875,3
12:43:29.753,-3.6875,1.5
12:43:29.763,-4.125,-1.3125
12:43:29.771,-5.125,-2.6875
12:43:29.781,-5.625,-3.5625
12:43:29.791,-5.5,-5.9375
12:43:29.801,-5.9375,-7.875
12:43:29.843,-7.25,-9.625
12:43:29.844,-8.125,-10.5
12:43:29.846,-8.5625,-12.1875
12:43:29.853,-8.9375,-14.3126
12:43:29.858,-9.75,-15.3126
12:43:29.865,-10.4375,-16.8751
12:43:29.900,-10.875,-18.9376
12:43:29.903,-12.3125,-20.2501
12:43:29.905,-12.375,-21.9376
12:43:29.908,-12.875,-23.1251
12:43:29.914,-13.2501,-24.5626
12:43:29.953,-14.3751,-26.0626
12:43:29.957,-14.1251,-27.6251
12:43:30.000,-14.6876,-27.6251
12:43:30.003,-15.2501,-29.6876
12:43:30.004,-15.5001,-30.1251
12:43:30.011,-15.8751,-32.4376
12:43:30.013,-16.6251,-32.0626
12:43:30.013,-16.9376,-34.6251
12:43:30.018,-16.5626,-35.5001
12:43:30.026,-17.4376,-36.5001
12:43:30.036,-17.1251,-36.7501
12:43:30.047,-18.1251,-38.9376
12:43:30.056,-18.3126,-40.0002
12:43:30.067,-19.5626,-39.3751
12:43:30.079,-19.5626,-42.5627
12:43:30.086,-20.3126,-43.6877
12:43:30.097,-21.0001,-44.1252
12:43:30.107,-20.8751,-45.9377
12:43:30.123,-21.4376,-47.8127
12:43:30.127,-22.6876,-48.4377
12:43:30.137,-21.5001,-49.3752
12:43:30.147,-22.1876,-50.1877
12:43:30.157,-22.3126,-51.0627
12:43:30.166,-22.2501,-50.0002
12:43:30.178,-18.0001,-43.8127
12:43:30.186,-16.3126,-39.2502
12:43:30.197,-12.9375,-33.6251
12:43:30.208,-10.3125,-27.6876
12:43:30.217,-7.3125,-22.3751
12:43:30.227,-5.75,-17.1251
12:43:30.236,-3.9375,-13.3751
12:43:30.248,-1.9375,-9.6875
12:43:30.256,-1.125,-4.875
12:43:30.266,0.0625,-2.9375
12:43:30.277,0.75,-0.0625
12:43:30.287,2.375,3.5625
12:43:30.297,3,5.125
12:43:30.307,4.375,8.5625
12:43:30.317,5.5,10.8125
12:43:30.327,5.5625,13.6876
12:43:30.336,6.1875,15.5626
12:43:30.346,7.625,17.0626
12:43:30.356,8.125,19.1251
12:43:30.368,8.375,20.5626
12:43:30.378,8.75,21.3126
12:43:30.387,9.3125,23.6876
12:43:30.396,8.5,22.1876
12:43:30.408,7.8125,22.1251
12:43:30.416,6.8125,20.7501
12:43:30.426,5.6875,19.6251
12:43:30.437,4.1875,18.7501
12:43:30.448,4.4375,17.1876
12:43:30.456,3.0625,15.2501
12:43:30.466,2.25,14.0626
12:43:30.478,0.875,12.9375
12:43:30.488,-0.3125,11.625
12:43:30.502,-0.5625,10.625
12:43:30.508,-0.9375,9.5625
12:43:30.517,-1.1875,9.1875
12:43:30.526,-1.5625,9.625
12:43:30.537,-2.4375,9.875
12:43:30.548,-4.125,8.5
12:43:30.557,-7.5,6.125
12:43:30.584,-14.3126,2.5625
12:43:30.587,-22.1251,-2.0625
12:43:30.588,-27.5626,-2.9375
12:43:30.620,-37.8751,-4.3125
12:43:30.622,-50.2502,-8.1875
12:43:30.625,-34.1876,14.6251
12:43:30.627,-11.125,44.0627
12:43:30.659,6.75,67.4378
12:43:30.661,20.1876,83.0628
12:43:30.665,27.5626,91.6254
12:43:30.692,30.7501,94.9379
12:43:30.692,34.6251,99.3754
12:43:30.692,37.1251,103.1879
12:43:30.699,41.0627,107.3754
12:43:30.733,44.2502,110.6254
12:43:30.735,45.1877,109.4379
12:43:30.737,45.6877,110.5629
12:43:30.753,44.5627,109.1254
12:43:30.755,44.2502,107.9379
12:43:30.759,43.8127,106.9379
12:43:30.766,40.6877,104.0004
12:43:30.777,42.4377,103.6879
12:43:30.786,42.5002,102.4379
12:43:30.799,37.6876,98.3129
12:43:30.806,26.3126,82.2503
12:43:30.817,15.1251,66.3753
12:43:30.827,7.125,54.5002
12:43:30.837,-0.75,42.8752
12:43:30.848,-6.6875,33.6251
12:43:30.857,-13.4376,22.6251
12:43:30.868,-22.6251,10.375
12:43:30.883,-30.6876,-0.5625
12:43:30.888,-39.5002,-12.75
12:43:30.897,-48.4377,-24.5626
12:43:30.906,-55.8127,-36.0001
12:43:30.917,-63.3752,-47.8752
12:43:30.926,-70.3128,-58.0002
12:43:30.937,-76.8753,-68.3128
12:43:30.947,-82.9378,-79.6878
12:43:30.957,-91.8129,-91.0004
12:43:30.966,-100.6254,-105.1254
12:43:30.977,-105.3754,-111.8129
12:43:30.986,-106.5004,-113.8129
12:43:31.001,-105.4379,-115.3754
12:43:31.019,-104.5004,-112.6254
12:43:31.019,-100.1879,-110.8754
12:43:31.029,-96.6879,-106.5629
12:43:31.037,-92.3129,-103.5004
12:43:31.046,-88.8128,-99.6879
12:43:31.057,-84.5003,-96.8129
12:43:31.066,-79.0628,-92.5629
12:43:31.076,-73.8128,-87.3753
12:43:31.087,-66.7503,-80.5003
12:43:31.097,-61.4377,-73.3753
12:43:31.107,-55.0627,-66.8128
12:43:31.116,-49.1252,-59.4377
12:43:31.127,-43.7502,-51.2502
12:43:31.136,-40.4377,-43.5627
12:43:31.148,-35.9376,-35.6876
12:43:31.156,-32.0626,-26.6251
12:43:31.168,-26.7501,-18.4376
12:43:31.177,-23.7501,-11.8125
12:43:31.187,-19.8751,-3.0625
12:43:31.197,-17.1251,2
12:43:31.207,-14.0001,7.6875
12:43:31.216,-12.875,11.125
12:43:31.227,-11.3125,15.4376
12:43:31.236,-10.125,19.2501
12:43:31.247,-9.0625,20.8126
12:43:31.262,-7.9375,25.8751
12:43:31.277,-5.625,28.3751
12:43:31.280,2.375,38.5626
12:43:31.289,21.3751,54.8127
12:43:31.297,37.3751,74.5628
12:43:31.330,50.3127,92.9379
12:43:31.333,64.2502,116.0629
12:43:31.333,79.4378,142.6255
12:43:31.339,97.0629,168.9381
12:43:31.370,104.8129,186.4382
12:43:31.376,109.1879,194.8757
12:43:31.377,111.2504,201.6883
12:43:31.420,110.7504,202.7508
12:43:31.420,110.5004,204.0008
12:43:31.421,110.6254,204.1883
12:43:31.424,109.5629,202.1258
12:43:31.432,107.5629,200.1258
12:43:31.432,105.0004,196.6257
12:43:31.440,102.8754,194.3757
12:43:31.476,100.9379,192.6257
12:43:31.477,99.5629,190.0632
12:43:31.480,98.0629,189.0007
12:43:31.484,97.0629,186.8132
12:43:31.490,95.3129,185.1257
12:43:31.498,95.4379,184.9382
12:43:31.508,94.9379,182.6882
12:43:31.517,93.0629,180.5632
12:43:31.527,91.0629,177.6882
12:43:31.538,90.3753,176.1882
12:43:31.546,88.8128,173.8757
12:43:31.557,87.5628,169.8131
12:43:31.568,86.5628,167.7506
12:43:31.576,85.6878,164.7506
12:43:31.587,84.5003,162.4381
12:43:31.596,81.6253,158.5006
12:43:31.608,79.6253,154.3756
12:43:31.616,76.2503,149.6256
12:43:31.626,72.6878,145.063
12:43:31.638,70.3128,139.063
12:43:31.646,67.4378,135.6255
12:43:31.657,66.0628,130.6255
12:43:31.666,64.5627,127.5005
12:43:31.677,63.8752,124.188
12:43:31.687,61.8752,122.2505
12:43:31.697,60.9377,118.6255
12:43:31.707,59.2502,115.5629
12:43:31.716,57.0627,110.5629
12:43:31.726,52.6252,106.1879
12:43:31.736,49.1252,101.6254
12:43:31.746,45.1877,96.0629
12:43:31.757,42.1877,92.3129
12:43:31.766,39.5627,87.6878
12:43:31.778,38.7501,84.5003
12:43:31.788,34.8751,80.0003
12:43:31.797,29.1251,72.3753
12:43:31.807,19.0001,59.0002
12:43:31.816,7.1875,44.6252
12:43:31.828,-7.0625,25.3751
12:43:31.836,-21.5626,4.375
12:43:31.848,-31.2501,-11.625
12:43:31.857,-36.9376,-21.6251
12:43:31.866,-42.3127,-30.5626
12:43:31.878,-45.1252,-36.2501
12:43:31.887,-46.9377,-40.3127
12:43:31.897,-48.3752,-43.3127
12:43:31.906,-48.0627,-44.5002
12:43:31.917,-48.0002,-45.3127
12:43:31.926,-46.5627,-45.0627
12:43:31.937,-45.3752,-45.1877
12:43:31.946,-44.0627,-44.7502
12:43:31.957,-41.3752,-44.4377
12:43:31.966,-41.0627,-44.2502
12:43:31.976,-40.6877,-44.9377
12:43:31.987,-40.5627,-44.9377
12:43:31.997,-38.5001,-47.3752
12:43:32.023,-35.9376,-45.2502
12:43:32.025,-32.6251,-46.0002
12:43:32.027,-27.9376,-44.4377
12:43:32.038,-23.4376,-41.5002
12:43:32.068,-19.2501,-37.1251
12:43:32.071,-15.6876,-33.5626
12:43:32.072,-12,-29.6876
12:43:32.080,-10.75,-26.0001
12:43:32.111,-9,-22.5001
12:43:32.114,-7.75,-18.3751
12:43:32.116,-6.0625,-13.6251
12:43:32.118,-5.4375,-8.3125
12:43:32.149,-7,-2.8125
12:43:32.154,-7.1875,6.6875
12:43:32.156,-3.0625,19.1876
12:43:32.161,7.6875,34.3126
12:43:32.174,14.6876,50.4377
12:43:32.179,22.3126,62.8127
12:43:32.204,27.8751,75.6253
12:43:32.207,32.2501,83.9378
12:43:32.210,37.6251,92.6879
12:43:32.220,42.9377,101.3129
12:43:32.228,49.6877,110.0629
12:43:32.236,53.6252,116.8754
12:43:32.246,57.3127,120.6255
12:43:32.258,61.1877,125.813
12:43:32.267,63.3752,127.313
12:43:32.277,65.3128,130.188
12:43:32.288,66.3128,130.7505
12:43:32.302,67.3753,131.8755
12:43:32.319,66.0628,129.8755
12:43:32.322,63.5002,128.2505
12:43:32.328,60.0002,125.6255
12:43:32.337,55.5627,122.188
12:43:32.348,52.0002,118.6255
12:43:32.357,49.1877,115.1879
12:43:32.367,46.8127,112.8129
12:43:32.377,46.3127,112.2504
12:43:32.387,46.1252,111.2504
12:43:32.397,46.3752,110.6254
12:43:32.406,46.0002,109.8129
12:43:32.416,45.1252,108.0629
12:43:32.426,44.6252,107.3754
12:43:32.438,44.3752,105.1879
12:43:32.446,43.5002,102.8754
12:43:32.457,42.1877,100.8754
12:43:32.466,41.1877,98.0004
12:43:32.477,40.4377,95.3129
12:43:32.489,39.5002,92.3754
12:43:32.498,38.4376,90.0004
12:43:32.507,37.1251,87.8128
12:43:32.516,36.0626,84.0628
12:43:32.526,34.3126,82.6878
12:43:32.537,33.9376,79.3128
12:43:32.547,33.3751,78.1253
12:43:32.564,33.3126,75.3128
12:43:32.567,32.1251,73.1253
12:43:32.582,32.0001,71.5003
12:43:32.588,31.1251,69.1878
12:43:32.596,29.5001,66.1253
12:43:32.606,29.3126,64.6252
12:43:32.616,28.0001,61.6252
12:43:32.627,28.3751,60.6877
12:43:32.636,27.9376,59.1877
12:43:32.648,28.3126,58.6252
12:43:32.656,30.1251,57.3752
12:43:32.666,30.3751,56.7502
12:43:32.676,31.5626,56.3127
12:43:32.688,31.6251,54.4377
12:43:32.696,30.6251,52.5627
12:43:32.706,29.8126,50.9377
12:43:32.716,28.3751,46.8752
12:43:32.726,26.5626,44.4377
12:43:32.737,25.3751,41.8127
12:43:32.746,25.0626,39.1251
12:43:32.757,24.1876,37.2501
12:43:32.767,23.1251,35.6251
12:43:32.808,22.4376,33.6876
12:43:32.809,21.5626,32.4376
12:43:32.813,21.1251,30.2501
12:43:32.814,18.9376,28.2501
12:43:32.816,16.0626,24.6251
12:43:32.847,12.6875,19.4376
12:43:32.848,7.6875,13.4376
12:43:32.850,3.5625,6.4375
12:43:32.859,0.25,2
12:43:32.895,-3.125,-2.4375
12:43:32.897,-6.125,-8
12:43:32.900,-8.625,-10.9375
12:43:32.902,-10.3125,-12.9375
12:43:32.908,-10.5625,-14.5626
12:43:32.942,-10.0625,-14.9376
12:43:32.944,-10.0625,-14.5001
12:43:32.946,-8.6875,-11.6875
12:43:32.957,-6.75,-7.375
12:43:32.960,-4.4375,-2.25
12:43:32.967,-2,3.125
12:43:32.976,0.6875,7.3125
12:43:32.987,3.6875,11.9375
12:43:32.996,5.375,14.6876
12:43:33.006,7.0625,18.8126
12:43:33.016,10.125,21.8126
12:43:33.026,12.1875,25.8751
12:43:33.037,15.5626,29.0001
12:43:33.046,17.3751,31.3751
12:43:33.057,19.8126,33.9376
12:43:33.066,21.7501,35.2501
12:43:33.076,22.5626,37.7501
12:43:33.086,24.5626,39.3752
12:43:33.096,26.7501,42.1877
12:43:33.106,26.8751,43.5627
12:43:33.123,27.5626,45.6252
12:43:33.131,27.5626,46.3752
12:43:33.142,26.0626,47.2502
12:43:33.152,23.9376,48.5002
12:43:33.161,22.9376,50.2502
12:43:33.172,22.1251,50.8752
12:43:33.181,21.8751,51.1252
12:43:33.191,21.1876,53.0002
12:43:33.203,20.8126,54.3127
12:43:33.212,21.5626,56.8127
12:43:33.222,24.0001,60.5002
12:43:33.233,27.6251,64.8752
12:43:33.243,30.6876,66.7503
12:43:33.252,34.2501,69.2503
12:43:33.261,38.3751,73.3128
12:43:33.273,39.9377,75.6253
12:43:33.302,39.9377,76.5628
12:43:33.307,35.0001,74.3753
12:43:33.308,29.5001,68.9378
12:43:33.314,23.3126,64.4377
12:43:33.323,21.3126,61.5627
12:43:33.332,20.1251,59.6877
12:43:33.342,18.9376,59.0627
12:43:33.353,17.1876,57.0627
12:43:33.362,16.1876,55.0002
12:43:33.372,14.8126,53.0002
12:43:33.381,13.6251,51.7502
12:43:33.391,13.3751,50.3752
12:43:33.401,11.75,48.8127
12:43:33.412,11.25,46.5627
12:43:33.443,10.9375,45.4377
12:43:33.445,10,44.3752
12:43:33.447,11.125,44.2502
12:43:33.453,11.9375,42.5627
12:43:33.483,10.5,40.6252
12:43:33.486,10.9375,38.9376
12:43:33.487,10.625,36.8751
12:43:33.494,10.125,34.9376
12:43:33.525,9.3125,33.0626
12:43:33.527,8.1875,31.0001
12:43:33.528,7.4375,28.7501
12:43:33.536,5.8125,26.4376
12:43:33.542,4.75,25.0626
12:43:33.574,4.25,21.3751
12:43:33.576,3.3125,19.7501
12:43:33.578,3,17.8126
12:43:33.583,2.4375,17.0626
12:43:33.601,2.8125,15.7501
12:43:33.617,2.5625,14.3751
12:43:33.620,2.75,12.0625
12:43:33.623,2.0625,11.3125
12:43:33.633,2.625,9.6875
12:43:33.642,2.125,8.0625
12:43:33.652,2.3125,7.4375
12:43:33.661,2.0625,5.5625
12:43:33.673,1.75,5.8125
12:43:33.682,2.625,4.4375
12:43:33.691,3.75,3.5625
12:43:33.706,5.625,4.5625
12:43:33.712,9.25,4.6875
12:43:33.722,10.3125,5.625
12:43:33.731,12.1875,5.6875
12:43:33.741,11.9375,4.5625
12:43:33.751,11.8125,3.6875
12:43:33.763,10.75,1.0625
12:43:33.773,11.5625,0.3125
12:43:33.782,11.375,1
12:43:33.792,11.6875,1.375
12:43:33.801,9.375,1.6875
12:43:33.812,0.9375,-5.3125
12:43:33.821,-8.5,-15.6876
12:43:33.831,-20.5626,-26.5626
12:43:33.842,-38.5001,-51.0002
12:43:33.860,-57.4377,-77.5628
12:43:33.863,-75.5003,-101.2504
12:43:33.879,-84.5003,-113.8754
12:43:33.881,-90.6878,-124.063
12:43:33.891,-99.5004,-141.7505
12:43:33.901,-104.3754,-150.0631
12:43:33.912,-102.0629,-147.188
12:43:33.921,-99.8754,-140.6255
12:43:33.933,-96.6254,-135.0005
12:43:33.942,-93.6879,-129.563
12:43:33.952,-90.5629,-122.8755
12:43:33.961,-86.3753,-115.9379
12:43:33.973,-82.0003,-109.7504
12:43:33.981,-77.2503,-102.1254
12:43:33.993,-73.1253,-97.1879
12:43:34.002,-68.8753,-90.3128
12:43:34.012,-64.9377,-84.5628
12:43:34.022,-61.3752,-78.7503
12:43:34.033,-58.9377,-75.5628
12:43:34.043,-55.8127,-70.8753
12:43:34.052,-53.8127,-68.9378
12:43:34.062,-52.1252,-66.0003
12:43:34.073,-50.5002,-63.4377
12:43:34.081,-48.1252,-61.5002
12:43:34.092,-47.2502,-58.5002
12:43:34.101,-44.8752,-58.1252
12:43:34.113,-42.8127,-54.6252
12:43:34.122,-39.5002,-52.9377
12:43:34.132,-38.0626,-49.3127
12:43:34.141,-36.0001,-47.9377
12:43:34.151,-34.8751,-44.3127
12:43:34.184,-31.5626,-41.6877
12:43:34.185,-23.1876,-31.1251
12:43:34.189,-14.6251,-20.3126
12:43:34.195,-8.875,-7.6875
12:43:34.222,-2.875,3
12:43:34.225,7.75,23.8751
12:43:34.227,24.5001,47.3127
12:43:34.234,38.8751,71.6878
12:43:34.251,47.1252,82.5003
12:43:34.254,52.8752,90.9379
12:43:34.280,58.0627,94.6254
12:43:34.283,62.5627,101.6254
12:43:34.285,66.0628,103.3754
12:43:34.291,67.8753,106.4379
12:43:34.325,69.3753,105.6254
12:43:34.327,69.2503,105.5004
12:43:34.329,66.3753,103.4379
12:43:34.346,61.5627,98.3754
12:43:34.347,53.3752,90.6879
12:43:34.353,48.8127,85.7503
12:43:34.362,46.6877,83.0628
12:43:34.371,45.0002,80.5003
12:43:34.381,42.8127,77.9378
12:43:34.393,40.7502,74.8753
12:43:34.402,39.1876,71.7503
12:43:34.412,37.9376,69.6878
12:43:34.421,37.0626,67.6253
12:43:34.432,35.5626,65.4377
12:43:34.442,33.8751,62.6877
12:43:34.456,33.5626,60.7502
12:43:34.462,33.6251,58.6877
12:43:34.472,32.5626,57.8127
12:43:34.481,31.9376,56.3752
12:43:34.492,31.5626,53.4377
12:43:34.501,31.6251,51.5627
12:43:34.511,29.8751,49.7502
12:43:34.521,28.3126,47.5002
12:43:34.531,27.6876,44.9377
12:43:34.542,26.5001,41.5002
12:43:34.551,24.4376,39.0626
12:43:34.585,22.9376,35.6876
12:43:34.588,21.4376,33.1251
12:43:34.591,19.8751,30.4376
12:43:34.594,19.6251,28.4376
12:43:34.602,18.0626,25.7501
12:43:34.611,17.8126,23.8751
12:43:34.621,17.3751,21.1251
12:43:34.632,16.4376,20.6251
12:43:34.642,16.6876,19.6251
12:43:34.651,17.1876,18.8751
12:43:34.661,18.4376,20.9376
12:43:34.673,19.8126,21.7501
12:43:34.682,21.9376,25.4376
12:43:34.691,24.5001,28.9376
12:43:34.701,26.8751,33.5626
12:43:34.712,30.2501,38.2501
12:43:34.721,33.1876,42.9377
12:43:34.731,36.6251,48.0002
12:43:34.741,40.6877,53.0627
12:43:34.751,45.3752,57.2502
12:43:34.763,48.8752,63.1252
12:43:34.773,51.8752,65.8752
12:43:34.781,54.0002,69.6253
12:43:34.792,56.0002,71.3753
12:43:34.802,57.0627,73.5628
12:43:34.812,57.6877,76.1253
12:43:34.821,58.0002,76.1878
12:43:34.836,57.9377,76.6253
12:43:34.842,57.0627,75.7503
12:43:34.852,54.4377,73.3753
12:43:34.861,47.6877,67.1253
12:43:34.871,37.1251,55.3752
12:43:34.882,28.1876,45.1877
12:43:34.898,15.8751,31.1251
12:43:34.916,-1.0625,9
12:43:34.919,-17.4376,-15.5001
12:43:34.923,-32.8126,-37.8126
12:43:34.960,-46.9377,-58.3752
12:43:34.962,-55.8127,-72.0628
12:43:34.964,-61.4377,-80.8128
12:43:34.967,-65.3127,-84.6253
12:43:34.972,-66.3753,-88.0003
12:43:35.003,-66.6253,-88.8128
12:43:35.005,-65.6253,-87.0628
12:43:35.007,-63.7502,-85.5628
12:43:35.014,-60.8127,-84.3753
12:43:35.045,-58.4377,-82.6253
12:43:35.047,-56.3752,-79.1878
12:43:35.049,-53.0627,-76.3753
12:43:35.053,-49.6877,-73.9378
12:43:35.082,-45.5002,-71.5628
12:43:35.084,-43.1252,-69.9378
12:43:35.087,-37.9376,-66.8128
12:43:35.091,-35.0626,-66.1253
12:43:35.103,-33.3751,-65.3752
12:43:35.111,-32.6251,-66.8128
12:43:35.122,-32.8126,-65.4378
12:43:35.131,-34.1876,-65.6878
12:43:35.142,-34.7501,-66.3753
12:43:35.158,-35.2501,-65.2502
12:43:35.172,-34.1876,-62.9377
12:43:35.175,-34.0001,-57.5002
12:43:35.182,-32.6251,-55.0002
12:43:35.191,-33.0626,-48.9377
12:43:35.202,-31.5001,-46.1877
12:43:35.212,-28.8126,-37.5626
12:43:35.221,-24.8751,-31.3126
12:43:35.231,-18.1876,-21.4376
12:43:35.241,-9.3125,-11.4375
12:43:35.253,-0.625,-0.6875
12:43:35.261,8.625,11.875
12:43:35.271,17.7501,25.9376
12:43:35.282,25.1251,36.4376
12:43:35.291,31.0626,42.3127
12:43:35.303,36.3751,48.8752
12:43:35.312,44.6877,57.7502
12:43:35.321,47.8127,62.2502
12:43:35.331,51.8752,65.2502
12:43:35.341,53.5002,67.1253
12:43:35.351,52.6877,66.9378
12:43:35.361,47.1877,62.9377
12:43:35.371,40.5002,56.2502
12:43:35.382,35.7501,52.2502
12:43:35.393,33.5001,49.2502
12:43:35.402,32.3126,47.1252
12:43:35.412,30.8126,45.6252
12:43:35.421,29.5626,42.5002
12:43:35.431,27.6876,41.0002
12:43:35.441,25.8126,38.1876
12:43:35.451,24.1876,34.5001
12:43:35.461,22.6251,33.3751
12:43:35.472,21.0001,29.8126
12:43:35.482,19.7501,29.0626
12:43:35.492,19.3126,27.0001
12:43:35.502,18.8126,27.0626
12:43:35.513,17.8751,25.4376
12:43:35.521,18.9376,26.9376
12:43:35.531,21.1876,30.1251
12:43:35.541,23.5626,34.4376
12:43:35.551,26.3751,37.9376
12:43:35.563,28.3751,43.3752
12:43:35.572,30.8751,48.1877
12:43:35.587,34.1251,51.7502
12:43:35.592,35.7501,56.8127
12:43:35.602,37.7501,60.0002
12:43:35.624,39.5002,62.1252
12:43:35.627,40.8127,66.5003
12:43:35.654,41.9377,67.6253
12:43:35.656,43.5627,70.1253
12:43:35.659,44.2502,72.0003
12:43:35.663,44.8752,74.8128
12:43:35.692,45.1877,76.0003
12:43:35.694,47.0627,76.8128
12:43:35.696,46.9377,79.5003
12:43:35.705,48.5627,79.6253
12:43:35.716,48.8127,80.6878
12:43:35.721,49.1252,82.1253
12:43:35.754,49.6877,82.8128
12:43:35.756,49.7502,81.3753
12:43:35.759,48.7502,80.4378
12:43:35.765,47.8752,79.8753
12:43:35.789,47.5627,77.5628
12:43:35.791,46.0627,74.1878
12:43:35.795,44.4377,72.1253
12:43:35.802,43.6252,70.3753
12:43:35.812,44.1252,68.1878
12:43:35.821,44.7502,66.8128
12:43:35.831,45.6877,68.0003
12:43:35.866,47.4377,67.3753
12:43:35.868,48.4377,66.0628
12:43:35.870,48.5002,64.1877
12:43:35.872,48.0627,64.2502
12:43:35.882,48.7502,62.3752
12:43:35.892,47.7502,61.3752
12:43:35.901,47.8752,59.0627
12:43:35.911,47.5002,58.0002
12:43:35.922,48.0002,57.8752
12:43:35.932,47.9377,56.9377
12:43:35.941,47.9377,56.8752
12:43:35.952,48.0627,56.1252
12:43:35.965,48.3127,54.3127
12:43:35.971,47.8752,53.5002
12:43:35.981,47.7502,51.3752
12:43:35.991,46.9377,49.1877
12:43:36.001,45.7502,46.7502
12:43:36.011,44.8127,45.6877
12:43:36.022,43.7502,44.1877
12:43:36.032,42.1877,43.3127
12:43:36.044,41.1252,41.0002
12:43:36.051,39.3752,38.0626
12:43:36.061,37.6876,34.0001
12:43:36.072,35.8126,31.6251
12:43:36.081,33.8751,28.6251
12:43:36.092,32.5626,25.9376
12:43:36.102,31.6876,24.8126
12:43:36.112,30.0001,21.7501
12:43:36.122,27.3126,19.4376
12:43:36.132,24.8126,16.3126
12:43:36.142,22.3126,11.8125
12:43:36.151,20.2501,9.4375
12:43:36.161,17.8126,6.375
12:43:36.171,15.6876,2.0625
12:43:36.191,14.5001,-0.6875
12:43:36.199,13.4376,-2.375
12:43:36.212,11.375,-4.3125
12:43:36.215,10.5625,-6.5
12:43:36.221,8.875,-7.9375
12:43:36.231,6.8125,-10.75
12:43:36.241,5.625,-12.5
12:43:36.252,4.5,-15.4376
12:43:36.262,3.5,-16.6251
12:43:36.271,2.9375,-17.8751
12:43:36.281,0.625,-19.6251
12:43:36.293,0.1875,-20.6876
12:43:36.302,-0.25,-21.5626
12:43:36.312,-0.6875,-21.1876
12:43:36.322,-1,-21.3751
12:43:36.331,-0.4375,-22.5626
12:43:36.343,-0.6875,-21.8126
12:43:36.352,0.8125,-20.5001
12:43:36.361,1.9375,-17.6876
12:43:36.371,4.75,-12.8125
12:43:36.382,8.625,-7.9375
12:43:36.393,12.625,-1.0625
12:43:36.401,14.4376,4.125
12:43:36.411,17.7501,9.75
12:43:36.421,19.8751,15.1251
12:43:36.431,23.1251,20.3751
12:43:36.469,25.5001,24.6251
12:43:36.473,25.6876,29.7501
12:43:36.477,28.0001,32.3126
12:43:36.478,29.3751,37.6251
12:43:36.486,31.3751,40.7502
12:43:36.512,33.7501,44.1877
12:43:36.514,34.6876,47.0627
12:43:36.516,36.6251,52.3752
12:43:36.522,39.4377,55.1877
12:43:36.557,40.1877,56.8752
12:43:36.560,41.3127,60.0002
12:43:36.562,42.0627,61.2502
12:43:36.566,43.8752,62.5627
12:43:36.598,45.4377,65.5628
12:43:36.600,46.6877,66.7503
12:43:36.602,46.1877,66.9378
12:43:36.606,45.4377,66.6878
12:43:36.612,62.1877,82.3128
12:43:36.623,67.5003,81.8128
12:43:36.631,68.7503,81.4378
12:43:36.641,65.5002,78.0628
12:43:36.652,66.4378,75.4378
12:43:36.661,65.6878,72.8753
12:43:36.672,67.1253,71.8128
12:43:36.681,68.9378,70.3128
12:43:36.692,70.7503,69.8128
12:43:36.702,71.1253,67.7503
12:43:36.716,72.0003,66.2503
12:43:36.721,71.5003,61.6877
12:43:36.731,70.1253,59.8752
12:43:36.742,69.5003,55.1252
12:43:36.751,69.7503,52.5627
12:43:36.761,69.3753,50.6252
12:43:36.772,71.0003,48.2502
12:43:36.782,70.9378,46.6252
12:43:36.791,71.7503,42.9377
12:43:36.801,71.8753,40.3127
12:43:36.811,70.6253,36.8751
12:43:36.821,68.3128,30.9376
12:43:36.832,66.0003,25.7501
12:43:36.842,63.1877,20.1251
12:43:36.851,59.5627,13.5001
12:43:36.862,57.1877,8.4375
12:43:36.873,55.1252,4.25
12:43:36.881,52.7502,-0.9375
12:43:36.892,50.6252,-5.375
12:43:36.901,47.4377,-9.9375
12:43:36.911,46.4377,-13.8126
12:43:36.922,44.3752,-18.5626
12:43:36.932,41.5002,-22.5001
12:43:36.942,39.6877,-26.9376
12:43:36.952,36.8126,-31.3126
12:43:36.962,34.3126,-34.6876
12:43:36.973,32.1251,-40.2502
12:43:36.982,29.2501,-43.8127
12:43:36.991,27.1251,-47.6877
12:43:37.001,24.5001,-51.9377
12:43:37.012,22.2501,-55.3752
12:43:37.023,19.8751,-59.3127
12:43:37.031,17.0626,-64.0002
12:43:37.043,15.1876,-67.2503
12:43:37.052,12.5,-71.1253
12:43:37.072,11.1875,-73.5628
12:43:37.075,8.3125,-77.9378
12:43:37.114,6.0625,-81.0628
12:43:37.117,4.125,-84.8128
12:43:37.119,1.375,-87.5628
12:43:37.145,-0.1875,-91.7504
12:43:37.148,-1.5625,-93.0629
12:43:37.151,-3.5625,-96.8754
12:43:37.151,-6.375,-99.6879
12:43:37.190,-8.375,-103.4379
12:43:37.192,-11.9375,-107.8129
12:43:37.195,-14.8751,-112.1879
12:43:37.200,-19.7501,-118.438
12:43:37.201,-23.3126,-123.1255
12:43:37.206,-28.4376,-127.8755
12:43:37.239,-32.0626,-131.7505
12:43:37.241,-34.2501,-134.7505
12:43:37.244,-32.9376,-132.8755
12:43:37.246,-30.5001,-128.563
12:43:37.260,-29.2501,-124.938
12:43:37.267,-28.5001,-121.063
12:43:37.276,-27.0001,-116.3129
12:43:37.286,-25.8751,-111.6879
12:43:37.296,-26.5626,-108.0004
12:43:37.307,-25.4376,-103.9379
12:43:37.316,-24.5001,-101.1254
12:43:37.326,-23.1251,-95.8754
12:43:37.338,-22.8126,-92.3129
12:43:37.346,-21.7501,-89.1253
12:43:37.357,-20.8751,-86.1253
12:43:37.366,-20.3126,-82.2503
12:43:37.376,-19.0001,-80.3128
12:43:37.387,-17.8126,-76.5003
12:43:37.396,-17.3126,-75.1878
12:43:37.407,-16.8126,-72.3128
12:43:37.417,-16.1251,-68.6878
12:43:37.428,-15.3751,-68.5003
12:43:37.436,-15.6876,-66.8753
12:43:37.448,-16.1251,-66.1878
12:43:37.457,-16.5626,-66.0628
12:43:37.467,-17.9376,-67.4378
12:43:37.476,-19.0626,-67.8753
12:43:37.493,-19.5626,-68.6253
12:43:37.509,-21.5001,-71.3128
12:43:37.512,-21.7501,-72.1253
12:43:37.518,-23.2501,-72.4378
12:43:37.526,-23.6876,-74.7503
12:43:37.538,-25.1251,-74.0628
12:43:37.546,-24.9376,-76.4378
12:43:37.557,-24.5626,-76.3128
12:43:37.566,-25.0001,-77.7503
12:43:37.576,-24.7501,-76.8128
12:43:37.587,-24.2501,-77.1878
12:43:37.596,-23.6876,-76.6878
12:43:37.607,-24.2501,-77.2503
12:43:37.616,-23.6876,-76.8753
12:43:37.628,-24.8126,-77.8128
12:43:37.643,-25.2501,-78.8753
12:43:37.646,-26.0626,-80.0628
12:43:37.656,-26.8126,-81.3128
12:43:37.667,-26.5001,-81.8128
12:43:37.676,-27.1876,-81.8128
12:43:37.686,-27.6876,-83.4378
12:43:37.696,-28.1876,-83.5628
12:43:37.706,-28.0626,-85.1878
12:43:37.717,-29.1251,-85.1253
12:43:37.726,-29.5001,-86.8128
12:43:37.737,-30.3126,-87.8753
12:43:37.751,-31.5001,-89.7503
12:43:37.766,-32.0626,-90.8754
12:43:37.768,-32.3751,-90.9379
12:43:37.776,-31.6876,-92.8129
12:43:37.786,-33.2501,-94.0629
12:43:37.797,-33.7501,-94.9379
12:43:37.806,-34.8126,-95.6879
12:43:37.816,-34.5001,-96.3754
12:43:37.827,-34.6876,-96.5629
12:43:37.836,-34.3126,-97.3129
12:43:37.849,-35.3751,-97.1254
12:43:37.870,-35.5626,-98.6879
12:43:37.873,-36.0001,-98.5629
12:43:37.900,-35.8126,-100.2504
12:43:37.903,-36.0626,-100.0629
12:43:37.905,-37.9376,-100.5004
12:43:37.907,-37.8751,-101.6879
12:43:37.938,-37.5626,-103.1879
12:43:37.939,-37.5001,-101.8754
12:43:37.941,-38.0001,-102.7504
12:43:37.949,-37.7501,-103.0629
12:43:37.972,-38.5001,-103.1879
12:43:37.975,-38.3751,-103.2504
12:43:37.977,-38.1876,-103.0629
12:43:38.005,-38.2501,-104.3754
12:43:38.006,-38.5626,-104.5004
12:43:38.009,-38.4376,-104.3754
12:43:38.017,-37.8751,-104.8129
12:43:38.045,-38.1251,-104.7504
12:43:38.048,-37.7501,-106.1879
12:43:38.050,-37.7501,-105.4379
12:43:38.058,-37.3751,-106.0629
12:43:38.066,-36.6251,-104.1879
12:43:38.076,-36.3126,-102.8129
12:43:38.087,-34.5001,-102.2504
12:43:38.097,-33.1876,-98.1254
12:43:38.107,-30.5626,-95.5004
12:43:38.117,-27.7501,-89.7503
12:43:38.126,-25.3126,-83.7503
12:43:38.138,-21.8751,-76.8753
12:43:38.148,-18.5626,-70.7503
12:43:38.156,-14.5001,-63.9377
12:43:38.167,-12,-58.3752
12:43:38.176,-9.0625,-53.3752
12:43:38.186,-8,-49.6252
12:43:38.196,-5.25,-45.6252
12:43:38.207,-4.3125,-41.3752
12:43:38.216,-2.4375,-38.2501
12:43:38.228,-1.75,-34.1251
12:43:38.236,-0.8125,-32.0001
12:43:38.246,0.0625,-29.5001
12:43:38.256,0.875,-25.5626
12:43:38.268,2.1875,-23.0626
12:43:38.276,3.125,-20.4376
12:43:38.287,3.4375,-19.0626
12:43:38.296,3.625,-16.1876
12:43:38.306,4.6875,-15.1876
12:43:38.316,5.625,-14.1251
12:43:38.327,4.9375,-13.7501
12:43:38.336,4.0625,-14.5001
12:43:38.346,3.25,-14.5001
12:43:38.356,2.0625,-16.5001
12:43:38.368,1.8125,-16.3751
12:43:38.376,1.375,-17.1251
12:43:38.387,1.5,-18.0626
12:43:38.396,0.4375,-18.9376
12:43:38.424,-0.125,-19.0626
12:43:38.425,0,-19.8751
12:43:38.428,0.125,-19.1876
12:43:38.438,-0.4375,-20.0001
12:43:38.446,-1.3125,-20.5626
12:43:38.456,-1.75,-21.4376
12:43:38.467,-2.25,-20.8751
12:43:38.476,-2.625,-22.0001
12:43:38.486,-2.4375,-22.1251
12:43:38.496,-3.125,-23.3751
12:43:38.506,-3.125,-23.0626
12:43:38.516,-3.625,-24.6876
12:43:38.530,-4.75,-25.3126
12:43:38.537,-4.8125,-26.6251
12:43:38.578,-5.8125,-28.5001
12:43:38.580,-6.5,-29.3751
12:43:38.581,-6.75,-30.1876
12:43:38.585,-7.125,-31.7501
12:43:38.590,-8.125,-33.1251
12:43:38.596,-8.625,-34.6251
12:43:38.622,-10.25,-36.3751
12:43:38.625,-10.4375,-37.6876
12:43:38.628,-11.75,-39.1251
12:43:38.636,-12.4375,-41.3752
12:43:38.669,-13,-41.1877
12:43:38.670,-13.5626,-43.6252
12:43:38.672,-13.5001,-44.0002
12:43:38.680,-14.2501,-45.1877
12:43:38.707,-14.5626,-46.9377
12:43:38.710,-15.8126,-46.8752
12:43:38.712,-16.1251,-49.8752
12:43:38.718,-16.6251,-50.1252
12:43:38.726,-17.5626,-51.8752
12:43:38.736,-18.0626,-53.1252
12:43:38.746,-18.6251,-53.3752
12:43:38.757,-18.0001,-55.0627
12:43:38.766,-19.3126,-55.3752
12:43:38.776,-18.5001,-56.5002
12:43:38.791,-20.0001,-58.2502
12:43:38.800,-21.1251,-60.0002
12:43:38.807,-21.5001,-59.8127
12:43:38.820,-21.5001,-61.7502
12:43:38.834,-21.7501,-61.9377
12:43:38.836,-21.5001,-62.7502
12:43:38.851,-21.6251,-62.3127
12:43:38.858,-22.0001,-64.0002
12:43:38.866,-21.8751,-64.0002
12:43:38.877,-22.7501,-66.0003
12:43:38.886,-22.5626,-66.1253
12:43:38.896,-21.9376,-66.0003
12:43:38.906,-21.2501,-66.0003
12:43:38.916,-21.2501,-65.2502
12:43:38.926,-19.5626,-63.6877
12:43:38.937,-19.1251,-61.9377
12:43:38.946,-17.6251,-56.8752
12:43:38.956,-14.8751,-53.6877
12:43:38.966,-12.25,-48.6252
12:43:38.976,-9.5,-42.1252
12:43:38.986,-6.75,-37.2501
12:43:38.996,-4.8125,-31.8751
12:43:39.006,-3,-26.4376
12:43:39.017,-0.625,-22.3751
12:43:39.026,1.25,-17.8126
12:43:39.045,3.875,-13.5626
12:43:39.048,5.0625,-10.5625
12:43:39.062,6.25,-6.875
12:43:39.078,7.75,-4.0625
12:43:39.080,8.0625,-0.75
12:43:39.086,10.1875,2.4375
12:43:39.101,10.4375,4.125
12:43:39.107,11.5625,7.1875
12:43:39.116,13.2501,10.1875
12:43:39.126,14.3751,11.9375
12:43:39.136,14.7501,14.0626
12:43:39.146,14.6876,14.7501
12:43:39.157,15.1876,16.1876
12:43:39.166,14.7501,15.8751
12:43:39.178,14.6251,16.8126
12:43:39.190,14.5626,15.3751
12:43:39.196,13.5001,14.9376
12:43:39.207,12.75,14.2501
12:43:39.216,12.5625,13.3126
12:43:39.226,12.625,12.375
12:43:39.237,12.5625,11.6875
12:43:39.246,12.6875,11.9375
12:43:39.256,13.3126,11.875
12:43:39.266,15.1251,12.0625
12:43:39.276,14.0626,11.1875
12:43:39.286,14.1876,11.125
12:43:39.296,12.8125,10.5625
12:43:39.306,12.1875,8.3125
12:43:39.316,9.625,5.875
12:43:39.326,7.75,4.25
12:43:39.336,6.0625,1.875
12:43:39.376,4.5625,-0.25
12:43:39.378,3.25,-1.9375
12:43:39.380,2.375,-3
12:43:39.386,2.125,-3.5
12:43:39.386,1.25,-5.5625
12:43:39.422,-0.3125,-8.0625
12:43:39.424,-1.3125,-8.875
12:43:39.426,-2.3125,-11.75
12:43:39.429,-2.375,-12.75
12:43:39.463,-4.0625,-14.8126
12:43:39.466,-4.9375,-16.2501
12:43:39.467,-4.625,-17.2501
12:43:39.471,-6.6875,-18.8751
12:43:39.477,-6.6875,-20.7501
12:43:39.521,-7.375,-22.2501
12:43:39.522,-7.6875,-23.4376
12:43:39.525,-8.0625,-24.4376
12:43:39.527,-7.5,-25.3751
12:43:39.530,-8.3125,-26.5626
12:43:39.538,-7.875,-26.8126
12:43:39.546,-8.25,-28.4376
12:43:39.556,-8,-27.9376
12:43:39.566,-8.9375,-29.5001
12:43:39.576,-9.5,-31.4376
12:43:39.586,-10.125,-33.9376
12:43:39.596,-10.5625,-34.8751
12:43:39.607,-11.9375,-36.6251
12:43:39.617,-11.375,-36.9376
12:43:39.626,-12.625,-38.1251
12:43:39.636,-12.625,-39.6252
12:43:39.646,-12.75,-40.3127
12:43:39.656,-13.5626,-40.7502
12:43:39.666,-14.0001,-42.8127
12:43:39.676,-14.9376,-43.1252
12:43:39.703,-16.1251,-45.5002
12:43:39.706,-17.0001,-46.6877
12:43:39.708,-16.9376,-48.4377
12:43:39.720,-17.3126,-47.5627
12:43:39.728,-17.1251,-49.5627
12:43:39.737,-17.3126,-50.2502
12:43:39.746,-17.7501,-50.8752
12:43:39.757,-18.3751,-52.8127
12:43:39.766,-18.9376,-52.1252
12:43:39.776,-19.2501,-53.8127
12:43:39.786,-18.4376,-54.2502
12:43:39.796,-17.3751,-51.3752
12:43:39.806,-16.0001,-48.9377
12:43:39.816,-13.6876,-45.0627
12:43:39.826,-10.5625,-40.2502
12:43:39.836,-8.875,-34.6876
12:43:39.846,-4.9375,-28.8126
12:43:39.857,-2.5625,-23.0001
12:43:39.868,-0.25,-17.3751
12:43:39.876,2.5,-12.9375
12:43:39.886,3.75,-7.75
12:43:39.897,6.3125,-4.875
12:43:39.907,7.0625,0.25
12:43:39.916,9.125,3.125
12:43:39.926,9.8125,6.6875
12:43:39.940,11.5,9.875
12:43:39.946,13.1876,13.0625
12:43:39.957,13.8126,16.1251
12:43:39.966,15.5001,18.9376
12:43:39.976,16.6876,21.3751
12:43:39.986,17.4376,24.6251
12:43:40.016,18.0626,26.8751
12:43:40.018,19.3126,28.1251
12:43:40.021,19.5001,30.6876
12:43:40.028,20.6251,32.5001
12:43:40.066,20.9376,32.5626
12:43:40.068,20.0626,32.4376
12:43:40.070,19.1876,32.9376
12:43:40.073,19.1251,31.1251
12:43:40.079,17.8751,29.6251
12:43:40.106,16.7501,27.8751
12:43:40.181,15.3751,26.7501
12:43:40.194,14.5626,26.5626
12:43:40.197,14.5001,24.3751
12:43:40.197,13.3126,23.3126
12:43:40.197,13.1251,22.7501
12:43:40.198,12.4375,21.6876
12:43:40.206,12.125,20.8751
12:43:40.206,11.375,19.5001
12:43:40.216,11.375,19.8751
12:43:40.226,11,17.7501
12:43:40.236,9.25,16.6251
12:43:40.246,8.3125,15.5001
12:43:40.256,7.9375,13.3126
12:43:40.266,7.5625,12.5
12:43:40.277,6.9375,11.3125
12:43:40.286,6.1875,10.5
12:43:40.296,5.3125,8.25
12:43:40.306,4.5,7.4375
12:43:40.316,3.625,5.9375
12:43:40.326,2.9375,3.5
12:43:40.336,2.0625,1.6875
12:43:40.347,-2.3125,-7.8125
12:43:40.356,-3.625,-8.9375
12:43:40.373,-3.75,-9.75
12:43:40.380,-4.3125,-11.5625
12:43:40.387,-5.125,-12.5625
12:43:40.401,-5.3125,-14.4376
12:43:40.417,-6.5,-15.6251
12:43:40.419,-7.5625,-18.3751
12:43:40.426,-8.5,-20.2501
12:43:40.436,-8.3125,-20.8751
12:43:40.447,-9.4375,-22.6251
12:43:40.456,-10,-23.8126
12:43:40.466,-10.5,-26.0001
12:43:40.476,-10.25,-25.9376
12:43:40.486,-11.625,-27.1251
12:43:40.497,-11.4375,-28.1876
12:43:40.506,-12.3125,-29.7501
12:43:40.516,-12.5625,-30.5626
12:43:40.526,-13.1876,-31.8126
12:43:40.537,-13.2501,-33.2501
12:43:40.547,-13.7501,-33.8751
12:43:40.556,-13.8751,-36.1251
12:43:40.568,-14.3751,-36.5001
12:43:40.576,-14.5626,-38.1876
12:43:40.588,-14.8751,-38.8126
12:43:40.596,-15.8751,-39.8127
12:43:40.606,-16.3751,-40.4377
12:43:40.618,-16.3751,-41.8127
12:43:40.626,-17.0001,-43.9377
12:43:40.636,-17.1876,-44.0627
12:43:40.646,-18.1251,-46.0627
12:43:40.657,-18.3126,-46.0002
12:43:40.666,-17.8126,-46.8127
12:43:40.677,-17.1876,-45.4377
12:43:40.690,-16.1251,-43.6877
12:43:40.696,-13.6876,-40.2502
12:43:40.707,-11.625,-36.3751
12:43:40.716,-8.9375,-30.5626
12:43:40.736,-5.75,-24.8126
12:43:40.739,-2.1875,-19.5626
12:43:40.750,-0.125,-12.875
12:43:40.785,2.875,-8.5625
12:43:40.786,5,-2.0625
12:43:40.791,7.375,1.5
12:43:40.794,8.4375,4.375
12:43:40.797,10.5625,9.25
12:43:40.841,12,11.75
12:43:40.843,13.8126,16.5001
12:43:40.844,15.1251,18.6251
12:43:40.847,15.7501,21.6876
12:43:40.849,17.9376,24.6251
12:43:40.857,17.9376,27.2501
12:43:40.892,18.6251,30.2501
12:43:40.894,19.8126,31.3751
12:43:40.896,19.5626,33.5626
12:43:40.899,20.5626,34.5626
12:43:40.907,20.8126,35.0626
12:43:40.916,20.8126,36.5001
12:43:40.927,20.3751,35.3126
12:43:40.936,18.8126,34.1251
12:43:40.946,18.2501,33.1876
12:43:40.956,17.6251,31.8751
12:43:40.984,16.3751,29.5626
12:43:40.988,15.6876,29.4376
12:43:40.989,14.5626,28.3126
12:43:40.997,14.6251,26.6876
12:43:41.009,13.5001,25.1251
12:43:41.016,13.3126,25.4376
12:43:41.027,13,23.4376
12:43:41.036,11.9375,23.0626
12:43:41.046,12.125,22.5626
12:43:41.056,11.4375,22.1251
12:43:41.066,11,21.0001
12:43:41.076,11.6875,20.3126
12:43:41.086,9.625,18.5001
12:43:41.097,10.125,17.6251
12:43:41.106,8.4375,17.0001
12:43:41.116,9.125,15.0001
12:43:41.126,8.1875,13.1876
12:43:41.136,6.875,12.4375
12:43:41.146,6.5,10.5625
12:43:41.156,5.375,9.3125
12:43:41.172,4.6875,7.3125
12:43:41.182,4.25,5.25
12:43:41.191,4.125,4.625
12:43:41.201,2.5,2.4375
12:43:41.211,1.1875,0.0625
12:43:41.221,0.5625,-1
12:43:41.231,0,-2.4375
12:43:41.242,0,-3.625
12:43:41.251,-0.6875,-5.3125
12:43:41.261,-1.9375,-6.125
12:43:41.272,-2.5625,-8.6875
12:43:41.281,-3.375,-9.875
12:43:41.291,-4.3125,-11
12:43:41.301,-4.875,-13.2501
12:43:41.311,-4.625,-15.0626
12:43:41.324,-5.375,-16.5001
12:43:41.332,-7.25,-17.3126
12:43:41.341,-7,-19.5626
12:43:41.351,-7.625,-20.8751
12:43:41.361,-8.25,-22.9376
12:43:41.372,-8.3125,-23.5001
12:43:41.381,-9.5625,-25.8126
12:43:41.392,-9.8125,-26.1251
12:43:41.401,-11,-29.0626
12:43:41.411,-11.5,-29.0626
12:43:41.425,-12.3125,-31.1251
12:43:41.431,-12.25,-32.5001
12:43:41.446,-12.875,-33.8126
12:43:41.452,-13.3126,-34.7501
12:43:41.467,-12.9375,-35.6251
12:43:41.476,-14.0001,-36.3751
12:43:41.481,-14.1251,-37.1251
12:43:41.499,-14.3751,-38.5626
12:43:41.505,-14.8126,-38.6251
12:43:41.514,-14.4376,-39.3127
12:43:41.538,-15.2501,-40.5002
12:43:41.540,-16.1251,-41.9377
12:43:41.544,-15.5626,-42.3752
12:43:41.569,-15.8126,-41.0627
12:43:41.572,-13.9376,-40.3127
12:43:41.574,-12.8125,-36.8126
12:43:41.602,-9.8125,-31.5626
12:43:41.605,-6.875,-27.0001
12:43:41.608,-3.9375,-21.1251
12:43:41.613,-1.0625,-15.8126
12:43:41.638,1.3125,-10.3125
12:43:41.642,3.375,-5.375
12:43:41.643,5.4375,-2.4375
12:43:41.670,6.9375,2.625
12:43:41.672,9.3125,5.375
12:43:41.673,9.6875,7.3125
12:43:41.701,10.875,10.625
12:43:41.716,11.8125,12
12:43:41.720,12.25,15.6251
12:43:41.735,14.3126,17.2501
12:43:41.737,14.1251,18.8126
12:43:41.748,15.0001,22.0626
12:43:41.751,15.9376,22.4376
12:43:41.755,16.0001,24.8126
12:43:41.762,16.6876,25.8751
12:43:41.771,16.6251,26.0626
12:43:41.783,16.7501,26.8126
12:43:41.791,16.8751,26.6876
12:43:41.801,15.4376,26.1251
12:43:41.812,14.5626,24.3126
12:43:41.821,13.5001,23.4376
12:43:41.831,13.0625,21.8126
12:43:41.841,12.5625,19.8751
12:43:41.852,11.6875,18.7501
12:43:41.861,11,17.2501
12:43:41.872,10.4375,17.4376
12:43:41.881,9.625,16.1876
12:43:41.893,9.125,15.1251
12:43:41.902,8.4375,14.8751
12:43:41.911,7.9375,13.3751
12:43:41.921,8.1875,11.9375
12:43:41.932,7,11.8125
12:43:41.942,6.5625,11.1875
12:43:41.952,6.75,9.75
12:43:41.962,6.125,9.8125
12:43:41.971,5.75,7.8125
12:43:41.981,5.25,5.9375
12:43:41.991,4.1875,4.25
12:43:42.002,3.4375,3.9375
12:43:42.012,3.5,3.3125
12:43:42.021,2.8125,1
12:43:42.031,1.3125,-1.3125
12:43:42.042,-0.375,-1.5625
12:43:42.055,-0.75,-3.5
12:43:42.062,-1.3125,-5.875
12:43:42.073,-1.375,-7.125
12:43:42.081,-2.5625,-9.4375
12:43:42.092,-4,-11.5
12:43:42.102,-4,-11.75
12:43:42.111,-4.625,-13.5001
12:43:42.121,-5.1875,-15.1876
12:43:42.131,-5.8125,-16.8126
12:43:42.143,-6.8125,-17.3751
12:43:42.151,-6.625,-18.8751
12:43:42.161,-6.875,-21.0001
12:43:42.171,-8.4375,-22.1876
12:43:42.181,-9.0625,-22.6251
12:43:42.196,-8.75,-24.5001
12:43:42.201,-9.5625,-26.5626
12:43:42.211,-10.75,-26.3751
12:43:42.223,-11.4375,-29.0626
12:43:42.253,-13.2501,-29.7501
12:43:42.256,-13.1251,-32.6876
12:43:42.258,-14.0001,-32.6251
12:43:42.271,-14.1251,-34.1876
12:43:42.273,-14.6876,-35.7501
12:43:42.311,-14.3126,-35.2501
12:43:42.313,-15.5626,-38.4376
12:43:42.317,-15.0626,-37.3751
12:43:42.317,-15.6876,-39.8127
12:43:42.323,-16.6251,-40.6877
12:43:42.354,-16.7501,-42.0627
12:43:42.358,-17.2501,-42.7502
12:43:42.359,-17.1251,-43.6877
12:43:42.368,-17.2501,-43.8127
12:43:42.372,-17.5001,-44.6252
12:43:42.406,-17.3126,-43.5627
12:43:42.406,-16.8126,-44.0002
12:43:42.410,-15.5626,-41.5002
12:43:42.413,-13.2501,-37.4376
12:43:42.422,-11.3125,-34.0001
12:43:42.433,-8.125,-28.0001
12:43:42.444,-5.4375,-22.0626
12:43:42.452,-2.5625,-15.8126
12:43:42.462,0.0625,-12.3125
12:43:42.471,2.25,-7
12:43:42.482,4.375,-1.9375
12:43:42.492,5.75,0.3125
12:43:42.502,7.5625,5
12:43:42.511,8.4375,6.625
12:43:42.521,8.875,9.4375
12:43:42.532,10,11.625
12:43:42.541,11.0625,14.3126
12:43:42.555,12.25,16.8751
12:43:42.561,13.5626,18.8126
12:43:42.572,13.6876,20.1251
12:43:42.581,14.3751,21.4376
12:43:42.592,14.7501,24.1251
12:43:42.601,14.9376,25.2501
12:43:42.612,15.5626,25.0001
12:43:42.622,15.0626,26.5626
12:43:42.631,14.8126,25.1876
12:43:42.641,13.5001,24.8126
12:43:42.651,13.3751,24.3126
12:43:42.661,13.2501,23.0626
12:43:42.671,11.75,20.9376
12:43:42.682,10.875,19.0626
12:43:42.691,9.25,18.3126
12:43:42.701,9,16.7501
12:43:42.712,8.75,14.6876
12:43:42.721,7.875,14.9376
12:43:42.732,8.1875,14.6876
12:43:42.743,7.75,12.8125
12:43:42.751,7.3125,12.25
12:43:42.761,7,12.5
12:43:42.773,6.375,10.9375
12:43:42.788,5.25,8.9375
12:43:42.796,4.4375,8.75
12:43:42.804,4.4375,7.875
12:43:42.813,4.375,6.375
12:43:42.828,3,4.375
12:43:42.835,2.3125,3.8125
12:43:42.842,1.8125,2.5625
12:43:42.851,1.3125,1.0625
12:43:42.863,-0.125,-1.125
12:43:42.871,-0.6875,-2.125
12:43:42.882,-0.875,-3.625
12:43:42.891,-2.375,-5.4375
12:43:42.901,-2.5,-6.4375
12:43:42.911,-3.25,-8.8125
12:43:42.922,-3.875,-8.9375
12:43:42.934,-3.8125,-10.4375
12:43:42.944,-5.0625,-12.625
12:43:42.957,-6.4375,-14.8126
12:43:42.961,-6.4375,-15.8126
12:43:42.972,-7.4375,-16.2501
12:43:42.982,-7.375,-17.8751
12:43:42.991,-8.1875,-19.0626
12:43:43.014,-8.875,-21.3126
12:43:43.016,-9.9375,-21.8126
12:43:43.046,-10.125,-22.7501
12:43:43.080,-10.9375,-25.1251
12:43:43.080,-10.9375,-25.8751
12:43:43.115,-11,-27.0626
12:43:43.155,-11.4375,-27.7501
12:43:43.156,-11.6875,-29.1251
12:43:43.157,-12.3125,-30.1876
12:43:43.157,-13.2501,-31.6251
12:43:43.160,-13.6251,-32.0626
12:43:43.161,-14.1876,-33.7501
12:43:43.179,-14.5001,-35.1876
12:43:43.179,-14.5626,-36.1251
12:43:43.179,-15.6251,-36.9376
12:43:43.181,-15.2501,-37.7501
12:43:43.187,-15.5001,-39.1877
12:43:43.196,-16.5626,-39.4377
12:43:43.207,-16.7501,-41.8752
12:43:43.216,-17.4376,-42.5002
12:43:43.227,-18.0001,-43.4377
12:43:43.239,-17.5626,-44.6877
12:43:43.247,-17.8126,-45.0627
12:43:43.257,-17.7501,-45.1877
12:43:43.266,-18.0626,-46.3752
12:43:43.276,-18.0626,-47.6252
12:43:43.288,-15.3751,-43.8127
12:43:43.297,-13.1251,-39.0627
12:43:43.306,-11.0625,-33.5001
12:43:43.324,-7.125,-28.3751
12:43:43.327,-4.375,-21.8126
12:43:43.336,-1.5625,-16.5626
12:43:43.347,1.0625,-10.125
12:43:43.357,3.6875,-6.4375
12:43:43.366,6.1875,-1.125
12:43:43.376,8.125,2.4375
12:43:43.387,9.5,7.5
12:43:43.396,10.75,11.0625
12:43:43.406,12.4375,13
12:43:43.417,13.125,17.2501
12:43:43.426,15.0626,18.8126
12:43:43.436,15.8126,23.1251
12:43:43.447,16.9376,25.3126
12:43:43.456,18.4376,26.8126
12:43:43.466,19.3751,30.3751
12:43:43.477,19.9376,31.3751
12:43:43.486,20.1251,33.6251
12:43:43.497,21.0001,33.9376
12:43:43.506,20.6251,34.6251
12:43:43.516,20.0626,36.6251
12:43:43.543,20.3751,34.5001
12:43:43.546,18.8751,34.2501
12:43:43.547,18.6251,32.8751
12:43:43.557,17.8126,30.6876
12:43:43.567,16.3751,28.5626
12:43:43.577,15.8751,28.8126
12:43:43.587,15.0626,27.1251
12:43:43.596,14.9376,25.6876
12:43:43.607,14.3126,25.8126
12:43:43.616,14.3751,24.1251
12:43:43.656,13.1876,22.6251
12:43:43.660,12.375,23.2501
12:43:43.661,11.5625,21.6876
12:43:43.663,11.8125,20.4376
12:43:43.669,11.4375,20.3126
12:43:43.695,11,19.7501
12:43:43.696,10.375,19.0626
12:43:43.697,9.4375,17.5001
12:43:43.706,8.625,15.3126
12:43:43.736,8.4375,14.0001
12:43:43.738,7.25,12.6875
12:43:43.741,6.375,11.9375
12:43:43.748,5.4375,9.75
12:43:43.781,4.9375,8.625
12:43:43.783,4.25,7.6875
12:43:43.785,3.5625,5.375
12:43:43.788,3.3125,2.9375
12:43:43.817,2.0625,2.125
12:43:43.818,1.1875,0.75
12:43:43.822,0.5,-0.5
12:43:43.829,0.25,-2.25
12:43:43.838,-0.8125,-4.3125
12:43:43.847,-2.25,-5.5
12:43:43.856,-2.75,-6.4375
12:43:43.866,-3.5,-8.8125
12:43:43.876,-3.8125,-10.75
12:43:43.886,-4.5,-10.9375
12:43:43.896,-4.4375,-12.8125
12:43:43.906,-5.8125,-14.1251
12:43:43.917,-6.9375,-15.6876
12:43:43.927,-7.1875,-17.0001
12:43:43.936,-7.5,-18.5001
12:43:43.947,-7.75,-20.6876
12:43:43.956,-9.4375,-20.9376
12:43:43.967,-9.8125,-22.5626
12:43:43.976,-8.6875,-24.0001
12:43:43.986,-10.5,-24.8751
12:43:43.996,-10.8125,-26.1876
12:43:44.006,-11.5625,-27.6251
12:43:44.016,-11.8125,-29.1876
12:43:44.028,-13.1876,-30.3126
12:43:44.036,-12.75,-31.6876
12:43:44.047,-13.8126,-32.3126
12:43:44.056,-14.0626,-34.3126
12:43:44.066,-14.6251,-35.0001
12:43:44.077,-14.5001,-35.8126
12:43:44.087,-14.6876,-37.1251
12:43:44.096,-15.6876,-38.0626
12:43:44.111,-16.1251,-39.3126
12:43:44.123,-16.3126,-40.6252
12:43:44.128,-16.3126,-40.4377
12:43:44.143,-16.2501,-41.8752
12:43:44.150,-16.6876,-41.0627
12:43:44.157,-16.1876,-41.9377
12:43:44.166,-14.9376,-40.0002
12:43:44.177,-13.8126,-38.3126
12:43:44.192,-11.5,-34.2501
12:43:44.197,-8.8125,-29.3126
12:43:44.206,-5.9375,-22.6876
12:43:44.216,-3.5625,-18.6876
12:43:44.232,-0.75,-12.25
12:43:44.236,1.4375,-7.5
12:43:44.246,3.75,-1.6875
12:43:44.256,5.3125,1.5625
12:43:44.268,7.25,5.9375
12:43:44.276,8.75,9.125
12:43:44.287,10.4375,12.1875
12:43:44.297,12,15.6876
12:43:44.308,12.5625,19.1876
12:43:44.316,14.3751,21.6876
12:43:44.327,15.0626,24.8126
12:43:44.336,16.0626,27.0001
12:43:44.346,17.3126,29.0626
12:43:44.356,17.5001,31.9376
12:43:44.367,18.8126,32.4376
12:43:44.378,19.1251,35.6876
12:43:44.396,19.2501,36.0001
12:43:44.398,19.5001,36.0001
12:43:44.409,19.9376,37.8126
12:43:44.429,18.6251,35.8126
12:43:44.431,18.2501,36.6876
12:43:44.440,18.5626,34.6251
12:43:44.447,16.0001,32.7501
12:43:44.456,15.6251,31.5001
12:43:44.471,15.0001,29.6876
12:43:44.497,14.9376,28.4376
12:43:44.501,13.6876,27.3751
12:43:44.502,13.1876,27.1251
12:43:44.508,13.5001,27.2501
12:43:44.542,13,25.5626
12:43:44.546,12.1875,25.0001
12:43:44.546,11.5,24.6251
12:43:44.549,11.875,23.1251
12:43:44.584,11.5,21.8751
12:43:44.587,10.625,20.3751
12:43:44.589,10.625,20.3751
12:43:44.595,9.25,19.3126
12:43:44.597,8.5,18.8751
12:43:44.630,8.4375,16.8126
12:43:44.633,7.6875,14.3751
12:43:44.635,6.875,13.8126
12:43:44.636,7,13.0625
12:43:44.650,6.25,11.5
12:43:44.657,5.25,9.375
12:43:44.666,3.875,8.5
12:43:44.676,3.625,6.75
12:43:44.686,3,4.8125
12:43:44.698,2.8125,3.3125
12:43:44.706,1.0625,1.3125
12:43:44.717,-0.25,0.8125
12:43:44.726,-0.4375,-1.8125
12:43:44.736,-0.9375,-3.6875
12:43:44.746,-1.8125,-5.0625
12:43:44.756,-2.25,-6.0625
12:43:44.767,-2.5,-7.6875
12:43:44.776,-3.375,-9.25
12:43:44.786,-4.5,-10.625
12:43:44.796,-5.1875,-11.375
12:43:44.822,-4.8125,-13.8126
12:43:44.825,-5.6875,-14.7501
12:43:44.828,-7,-15.4376
12:43:44.836,-6.3125,-16.8751
12:43:44.847,-8.0625,-18.5001
12:43:44.856,-8.75,-18.8751
12:43:44.866,-9.1875,-22.1876
12:43:44.876,-10.4375,-22.9376
12:43:44.887,-10.375,-23.6251
12:43:44.897,-11.4375,-25.4376
12:43:44.907,-12.25,-26.9376
12:43:44.917,-12.5625,-28.5626
12:43:44.927,-13.5626,-30.4376
12:43:44.936,-14.3126,-32.0001
12:43:44.948,-14.0001,-31.8126
12:43:44.956,-14.8126,-33.3751
12:43:44.967,-14.9376,-33.5001
12:43:44.976,-14.1876,-34.2501
12:43:44.986,-15.0626,-35.6251
12:43:44.996,-15.5001,-35.3126
12:43:45.006,-15.3751,-37.1876
12:43:45.018,-15.7501,-38.8751
12:43:45.028,-15.5626,-38.8126
12:43:45.038,-16.7501,-40.5627
12:43:45.046,-16.3751,-40.4377
12:43:45.057,-16.1876,-41.5002
12:43:45.067,-15.5001,-39.7502
12:43:45.079,-14.0001,-38.8751
12:43:45.086,-12.3125,-35.8126
12:43:45.097,-9.625,-31.7501
12:43:45.106,-6.4375,-25.0001
12:43:45.139,-3.125,-20.0001
12:43:45.141,0.1875,-13.5626
12:43:45.144,2.625,-8.375
12:43:45.146,5,-3.125
12:43:45.180,7.25,1
12:43:45.181,8.3125,4.6875
12:43:45.184,10.625,8.3125
12:43:45.190,11.1875,10.875
12:43:45.219,12.0625,14.2501
12:43:45.221,13.9376,16.1251
12:43:45.223,14.1251,19.4376
12:43:45.252,16.0001,20.1876
12:43:45.254,16.0626,23.6876
12:43:45.256,17.8126,24.8751
12:43:45.262,17.3751,27.9376
12:43:45.271,18.5001,27.6251
12:43:45.292,17.8126,30.0001
12:43:45.295,18.8126,30.5001
12:43:45.302,18.1876,30.9376
12:43:45.311,17.5001,31.0001
12:43:45.321,17.0001,29.0626
12:43:45.332,16.3126,28.8126
12:43:45.341,15.2501,27.8751
12:43:45.351,14.1876,25.5626
12:43:45.362,12.875,24.0001
12:43:45.374,12.8125,22.8751
12:43:45.383,12.1875,21.3751
12:43:45.391,11.375,21.0001
12:43:45.401,10.6875,20.5001
12:43:45.411,10.875,19.6251
12:43:45.423,10.625,18.3126
12:43:45.436,11.375,19.7501
12:43:45.445,11,18.0001
12:43:45.452,9.75,17.0626
12:43:45.467,9.125,17.5626
12:43:45.475,9.125,15.1876
12:43:45.482,7.875,14.6251
12:43:45.491,7.6875,13.6251
12:43:45.501,7.1875,11.375
12:43:45.511,5.625,10.0625
12:43:45.523,4.9375,9.0625
12:43:45.531,4.375,6.8125
12:43:45.541,3.75,4.8125
12:43:45.551,2,2.5625
12:43:45.562,1.375,1.5625
12:43:45.571,0.1875,0.375
12:43:45.581,-0.1875,-1.9375
12:43:45.595,-1.5,-3.4375
12:43:45.601,-2.625,-5.6875
12:43:45.611,-3.375,-5.9375
12:43:45.622,-3.9375,-8.625
12:43:45.631,-5,-10.625
12:43:45.643,-6.3125,-12.25
12:43:45.653,-7.25,-13.125
12:43:45.666,-6.25,-13.6251
12:43:45.672,-7.625,-15.1876
12:43:45.684,-8.75,-14.9376
12:43:45.692,-9.0625,-17.0001
12:43:45.701,-11.1875,-19.5626
12:43:45.717,-15.0626,-22.8126
12:43:45.725,-23.0626,-29.1251
12:43:45.733,-32.4376,-38.2501
12:43:45.746,-42.0002,-47.0627
12:43:45.755,-49.8752,-52.7502
12:43:45.762,-57.6252,-58.1877
12:43:45.777,-72.8753,-66.9378
12:43:45.782,-89.7503,-75.9378
12:43:45.792,-85.9378,-64.0002
12:43:45.801,-69.0003,-39.8127
12:43:45.814,-55.1877,-23.6876
12:43:45.822,-44.4377,-8.1875
12:43:45.832,-37.4376,-1.6875
12:43:45.841,-34.1251,4.0625
12:43:45.852,-30.5626,6.4375
12:43:45.862,-28.4376,10.5
12:43:45.873,-26.4376,12.8125
12:43:45.881,-25.8751,12.0625
12:43:45.892,-24.7501,13.6251
12:43:45.901,-23.8126,14.1251
12:43:45.938,-22.0626,16.2501
12:43:45.943,-18.5001,20.7501
12:43:45.943,-12.875,25.7501
12:43:45.950,-7.9375,31.2501
12:43:45.951,-2.4375,37.1876
12:43:45.981,3.125,43.6252
12:43:45.984,8.1875,52.3127
12:43:45.986,14.8751,59.3127
12:43:45.991,19.4376,67.3753
12:43:46.006,24.5626,72.4378
12:43:46.013,27.5001,78.0003
12:43:46.048,29.3751,81.1253
12:43:46.050,29.1251,82.9378
12:43:46.053,29.8126,83.4378
12:43:46.059,29.3126,85.2503
12:43:46.062,29.5001,85.4378
12:43:46.104,28.0626,86.0628
12:43:46.106,28.0001,85.7503
12:43:46.109,27.1251,85.8128
12:43:46.115,26.6251,85.5628
12:43:46.119,25.2501,84.6253
12:43:46.125,23.6876,82.8128
12:43:46.131,22.2501,80.3128
12:43:46.142,19.3126,78.1878
12:43:46.152,16.6876,74.5628
12:43:46.164,13.3751,71.8128
12:43:46.171,10.3125,68.4378
12:43:46.181,6.875,64.5627
12:43:46.192,4,62.2502
12:43:46.201,1.3125,56.8752
12:43:46.213,-1.6875,54.0627
12:43:46.221,-4.1875,49.8752
12:43:46.231,-6.5,46.6252
12:43:46.241,-8.5,43.4377
12:43:46.251,-11.0625,37.8126
12:43:46.262,-14.6876,33.3126
12:43:46.272,-20.5001,26.8126
12:43:46.282,-26.7501,18.2501
12:43:46.291,-32.8751,10.4375
12:43:46.301,-40.0627,0.6875
12:43:46.311,-46.5002,-7.375
12:43:46.321,-52.2502,-15.6876
12:43:46.332,-55.3752,-21.8126
12:43:46.341,-58.5002,-25.6251
12:43:46.351,-59.8127,-30.0626
12:43:46.363,-60.6877,-31.3751
12:43:46.373,-60.8752,-33.3751
12:43:46.382,-61.3127,-34.4376
12:43:46.393,-61.8752,-36.8751
12:43:46.401,-62.0627,-37.7501
12:43:46.412,-61.6252,-39.5002
12:43:46.421,-61.9377,-39.8752
12:43:46.432,-60.9377,-40.3752
12:43:46.441,-60.0002,-39.4377
12:43:46.454,-58.8127,-39.4377
12:43:46.463,-57.9377,-38.5626
12:43:46.473,-57.5627,-36.6251
12:43:46.482,-54.5627,-35.9376
12:43:46.491,-53.0627,-32.0626
12:43:46.501,-49.1877,-30.1876
12:43:46.513,-44.9377,-24.1876
12:43:46.527,-39.5627,-18.3126
12:43:46.533,-32.1876,-11.3125
12:43:46.541,-24.5001,-2.6875
12:43:46.552,-16.9376,5.5
12:43:46.561,-9.1875,15.2501
12:43:46.573,-1.4375,22.8126
12:43:46.581,8.0625,33.4376
12:43:46.592,23.6876,48.3752
12:43:46.601,31.1251,54.6252
12:43:46.612,23.3751,50.1877
12:43:46.621,20.6251,45.6877
12:43:46.632,20.9376,45.5002
12:43:46.669,20.1251,44.3127
12:43:46.672,20.0626,42.9377
12:43:46.674,18.8126,42.5627
12:43:46.675,17.8751,40.8752
12:43:46.704,18.4376,40.2502
12:43:46.705,18.3751,39.6877
12:43:46.708,19.5626,40.5002
12:43:46.716,21.1876,42.0002
12:43:46.721,23.8751,44.8127
12:43:46.792,26.8126,49.0627
12:43:46.795,29.5626,49.4377
12:43:46.823,30.6876,51.5002
12:43:46.838,32.0001,51.6877
12:43:46.838,33.8751,53.1252
12:43:46.838,35.3751,53.5627
12:43:46.839,36.8126,54.2502
12:43:46.841,38.2501,54.6252
12:43:46.852,40.2502,55.8127
12:43:46.861,41.7502,58.0627
12:43:46.871,44.1252,59.4377
12:43:46.882,46.0627,62.7502
12:43:46.891,48.8752,67.1253
12:43:46.902,52.5627,71.6253
12:43:46.912,54.3752,75.6878
12:43:46.922,57.6252,79.8753
12:43:46.933,57.8752,82.5628
12:43:46.941,57.5627,84.8128
12:43:46.952,58.1252,85.1253
12:43:46.964,57.0627,86.5003
12:43:46.971,56.5002,85.9378
12:43:46.981,53.8127,84.6253
12:43:46.991,42.0002,80.9378
12:43:47.002,37.9376,77.0003
12:43:47.011,33.0001,73.6253
12:43:47.031,26.8126,67.9378
12:43:47.033,19.3126,61.6252
12:43:47.045,10.0625,53.5002
12:43:47.064,-2.875,39.0001
12:43:47.065,-22.0626,18.0626
12:43:47.074,-47.0002,-15.8126
12:43:47.081,-78.9378,-57.4377
12:43:47.093,-124.0005,-126.313
12:43:47.101,-129.3755,-145.313
12:43:47.112,-123.7505,-141.313
12:43:47.121,-117.5004,-136.063
12:43:47.132,-112.8129,-130.438
12:43:47.143,-108.2504,-126.688
12:43:47.151,-102.3754,-121.938
12:43:47.162,-95.8754,-114.6254
12:43:47.171,-90.9379,-108.6879
12:43:47.184,-88.3128,-106.1254
12:43:47.191,-88.3753,-105.8754
12:43:47.202,-89.6253,-107.0004
12:43:47.211,-90.1878,-108.1879
12:43:47.221,-91.6254,-107.0004
12:43:47.232,-93.1879,-107.6879
12:43:47.241,-92.6254,-105.1254
12:43:47.252,-91.9379,-104.8129
12:43:47.265,-89.8128,-100.9379
12:43:47.279,-87.6878,-97.7504
12:43:47.281,-84.9378,-94.3129
12:43:47.291,-83.3753,-90.6878
12:43:47.302,-81.5003,-88.5003
12:43:47.311,-79.6253,-87.1253
12:43:47.321,-79.5628,-84.0003
12:43:47.332,-77.8753,-80.6878
12:43:47.343,-74.6253,-75.1878
12:43:47.351,-70.0628,-70.1253
12:43:47.383,-63.1252,-62.1877
12:43:47.385,-58.6877,-55.4377
12:43:47.387,-56.3127,-52.6252
12:43:47.392,-54.5002,-49.6877
12:43:47.417,-51.6877,-48.0627
12:43:47.420,-49.1877,-45.7502
12:43:47.423,-44.6877,-41.2502
12:43:47.450,-39.6252,-33.3751
12:43:47.454,-29.9376,-24.0001
12:43:47.456,-18.0001,-8.8125
12:43:47.462,-1.375,11.5
12:43:47.493,35.3751,54.5002
12:43:47.495,60.8127,90.5629
12:43:47.498,70.9378,103.7504
12:43:47.529,77.5628,110.6254
12:43:47.530,86.1253,116.1879
12:43:47.533,80.9378,112.3129
12:43:47.540,68.0628,100.1879
12:43:47.543,63.5627,93.0629
12:43:47.559,59.8127,90.6254
12:43:47.561,57.7502,85.6253
12:43:47.571,56.5002,83.5628
12:43:47.581,53.0627,80.5003
12:43:47.593,52.6252,78.2503
12:43:47.601,51.0002,77.2503
12:43:47.611,51.3752,75.4378
12:43:47.621,52.0002,75.6253
12:43:47.634,52.8752,75.5628
12:43:47.642,53.7502,77.2503
12:43:47.656,55.0627,76.8128
12:43:47.661,55.7502,77.5628
12:43:47.671,55.0627,75.1253
12:43:47.681,54.4377,74.0628
12:43:47.692,53.8127,71.8128
12:43:47.702,52.8752,71.6253
12:43:47.712,52.8127,69.8753
12:43:47.722,52.8127,70.0003
12:43:47.731,54.8127,70.7503
12:43:47.741,55.4377,72.1878
12:43:47.752,56.5002,74.3753
12:43:47.761,59.8752,76.3753
12:43:47.772,62.7502,82.7503
12:43:47.781,66.6253,87.3128
12:43:47.793,69.5628,93.2504
12:43:47.801,73.6878,97.8754
12:43:47.812,76.0003,103.7504
12:43:47.822,78.5003,108.1254
12:43:47.832,79.6253,109.6254
12:43:47.841,79.8753,112.0629
12:43:47.851,80.3753,113.8129
12:43:47.861,80.3128,113.8129
12:43:47.872,79.0628,114.4379
12:43:47.881,77.5003,113.5629
12:43:47.892,75.8128,112.8129
12:43:47.902,73.3753,110.4379
12:43:47.911,71.7503,110.0629
12:43:47.921,69.6878,108.3129
12:43:47.931,66.9378,106.4379
12:43:47.941,64.5002,103.5004
12:43:47.953,60.8127,100.2504
12:43:47.961,57.5627,96.3754
12:43:47.971,53.5627,91.3129
12:43:47.981,50.3127,87.3128
12:43:47.993,45.8752,82.5628
12:43:48.002,42.5627,78.3128
12:43:48.033,38.9376,73.6253
12:43:48.035,35.3751,69.3753
12:43:48.037,32.4376,65.1252
12:43:48.044,29.5001,61.0627
12:43:48.072,26.3751,57.0002
12:43:48.074,24.8751,52.8127
12:43:48.076,21.8751,49.4377
12:43:48.082,19.3126,45.6252
12:43:48.098,17.6876,42.9377
12:43:48.143,15.6251,39.3127
12:43:48.196,14.9376,36.7501
12:43:48.196,12.4375,33.5626
12:43:48.199,10.875,30.9376
12:43:48.204,9.0625,27.8751
12:43:48.205,7.625,25.2501
12:43:48.205,6.5,22.6251
12:43:48.213,5.75,21.2501
12:43:48.221,3.625,19.1876
12:43:48.231,2.5625,16.8751
12:43:48.241,2.0625,14.3751
12:43:48.251,0.5,12.25
12:43:48.264,-0.4375,10.625
12:43:48.272,-0.0625,9.125
12:43:48.282,-1.25,7.5
12:43:48.291,-1.1875,7.5
12:43:48.301,-1.375,5.75
12:43:48.311,-1.8125,3.875
12:43:48.321,-1.875,3.875
12:43:48.331,-1.6875,3.125
12:43:48.348,-1.6875,4.125
12:43:48.352,-0.5625,4.625
12:43:48.369,0.3125,4.9375
12:43:48.382,11.875,16.1876
12:43:48.385,15.0626,18.4376
12:43:48.401,18.0001,20.8126
12:43:48.402,21.9376,23.9376
12:43:48.411,24.9376,26.7501
12:43:48.421,27.1251,30.1251
12:43:48.432,31.8751,35.1251
12:43:48.442,35.3126,37.6251
12:43:48.451,36.6876,38.6876
12:43:48.461,26.9376,30.8126
12:43:48.471,20.1876,23.1876
12:43:48.481,17.8126,21.2501
12:43:48.496,14.6251,17.8126
12:43:48.501,13.125,16.6876
12:43:48.511,10.6875,13.5626
12:43:48.521,10.25,11.75
12:43:48.532,9.5625,11.3125
12:43:48.543,7.25,9.5625
12:43:48.551,7.5625,9.8125
12:43:48.567,7.0625,9.25
12:43:48.573,6.6875,8.1875
12:43:48.582,5.6875,7.25
12:43:48.592,5.25,6.3125
12:43:48.601,6.25,6.25
12:43:48.612,6.125,6.5
12:43:48.622,5.75,7.5
12:43:48.631,5.4375,7
12:43:48.663,7.0625,9.875
12:43:48.665,9.375,13.7501
12:43:48.667,14.2501,20.9376
12:43:48.673,19.0626,28.1876
12:43:48.682,25.8126,37.8126
12:43:48.692,33.0626,47.8127
12:43:48.703,39.8127,57.5002
12:43:48.713,46.4377,65.8753
12:43:48.723,51.1252,72.6878
12:43:48.732,55.1252,79.5003
12:43:48.741,58.5627,84.1253
12:43:48.751,60.6252,87.1878
12:43:48.761,62.7502,90.6879
12:43:48.771,63.8752,93.0004
12:43:48.781,65.3127,95.8754
12:43:48.792,66.4378,97.4379
12:43:48.816,66.4378,98.1254
12:43:48.818,66.8128,98.8754
12:43:48.822,66.6878,98.6254
12:43:48.853,66.0003,96.9379
12:43:48.854,64.3127,95.0629
12:43:48.856,62.4377,93.3129
12:43:48.864,60.4377,90.6254
12:43:48.888,56.8752,87.2503
12:43:48.892,52.5627,80.7503
12:43:48.895,47.6877,76.1253
12:43:48.922,42.7502,68.9378
12:43:48.924,36.6876,62.0002
12:43:48.927,31.0626,55.3127
12:43:48.932,25.3126,48.8127
12:43:48.946,20.9376,43.1877
12:43:48.952,16.3751,37.5626
12:43:48.984,12.5,32.6876
12:43:48.988,8.8125,27.1876
12:43:48.990,5.625,22.9376
12:43:48.993,2.3125,18.5001
12:43:49.002,-0.6875,14.4376
12:43:49.016,-2.875,11.1875
12:43:49.021,-5.25,7.8125
12:43:49.031,-6.75,4.9375
12:43:49.041,-8.9375,0.625
12:43:49.052,-11.9375,-3.125
12:43:49.061,-13.5626,-6.625
12:43:49.072,-15.8751,-9.5625
12:43:49.081,-17.8126,-13.1876
12:43:49.092,-19.8126,-15.8126
12:43:49.101,-21.9376,-19.6251
12:43:49.111,-24.0001,-22.3751
12:43:49.122,-24.1251,-24.4376
12:43:49.131,-24.4376,-26.6251
12:43:49.141,-25.5626,-28.5001
12:43:49.152,-27.8751,-31.4376
12:43:49.162,-28.4376,-32.0626
12:43:49.171,-29.1876,-34.8126
12:43:49.183,-29.6251,-35.3126
12:43:49.191,-30.3126,-37.1251
12:43:49.201,-30.3751,-37.0001
12:43:49.211,-30.1251,-37.8751
12:43:49.223,-28.6251,-36.5626
12:43:49.231,-27.6876,-34.3126
12:43:49.242,-25.8126,-33.1876
12:43:49.252,-23.7501,-29.8126
12:43:49.261,-21.0001,-29.0001
12:43:49.272,-15.9376,-24.6876
12:43:49.287,-11.125,-20.3751
12:43:49.296,-5.5625,-16.3751
12:43:49.306,-1.0625,-11.625
12:43:49.316,3.5,-7
12:43:49.326,6.875,-2.4375
12:43:49.336,10.3125,1.125
12:43:49.346,13.5626,5.125
12:43:49.356,17.3126,7.875
12:43:49.366,21.1876,11.75
12:43:49.379,23.1251,13.1251
12:43:49.392,22.9376,12.8125
12:43:49.397,23.0001,12.4375
12:43:49.407,18.8751,9.25
12:43:49.418,13.8751,1.75
12:43:49.428,8.75,-4.625
12:43:49.437,1.25,-10.4375
12:43:49.453,-6.4375,-18.1251
12:43:49.457,-8.75,-20.6251
12:43:49.471,-9.8125,-21.6876
12:43:49.476,-10.9375,-23.8751
12:43:49.496,-11.8125,-24.6251
12:43:49.497,-12.75,-24.5626
12:43:49.534,-14.0001,-25.5001
12:43:49.536,-14.8751,-26.9376
12:43:49.538,-15.1251,-26.2501
12:43:49.541,-13.7501,-25.0626
12:43:49.546,-10.8125,-19.5626
12:43:49.561,-7.5,-14.0001
12:43:49.590,-2.9375,-7.4375
12:43:49.593,1.625,0.4375
12:43:49.595,6.375,10.1875
12:43:49.597,11.5625,16.8126
12:43:49.630,15.3751,24.1251
12:43:49.634,19.6876,30.5001
12:43:49.635,23.0001,35.0626
12:43:49.674,25.6251,39.8752
12:43:49.675,29.6876,45.8752
12:43:49.690,33.3751,52.0002
12:43:49.694,38.8126,58.5627
12:43:49.696,41.5002,63.1252
12:43:49.696,44.9377,69.1253
12:43:49.704,48.1252,71.6253
12:43:49.711,50.5627,75.6878
12:43:49.721,52.3752,76.7503
12:43:49.731,53.5002,79.8753
12:43:49.741,54.6252,80.6253
12:43:49.751,54.7502,80.3753
12:43:49.764,53.5002,78.6878
12:43:49.773,50.6877,76.1253
12:43:49.781,48.0627,73.6253
12:43:49.793,45.3127,69.0628
12:43:49.801,40.5002,63.1877
12:43:49.811,35.3751,55.9377
12:43:49.822,29.6251,49.7502
12:43:49.831,23.6876,43.0002
12:43:49.841,18.8751,36.3751
12:43:49.851,14.8751,30.5001
12:43:49.861,8.9375,24.5001
12:43:49.871,6.375,20.6251
12:43:49.883,2.375,16.6251
12:43:49.892,-0.9375,12.4375
12:43:49.901,-3.6875,7.75
12:43:49.911,-6.5625,4.875
12:43:49.942,-9,-0.1875
12:43:49.945,-11.875,-4.25
12:43:49.948,-13.7501,-8
12:43:49.952,-17.1251,-11.8125
12:43:49.962,-19.0626,-15.9376
12:43:49.974,-22.4376,-20.2501
12:43:49.981,-25.8126,-24.8751
12:43:49.991,-27.3126,-29.8751
12:43:50.001,-30.3751,-34.4376
12:43:50.011,-32.2501,-37.6251
12:43:50.021,-34.0626,-39.6877
12:43:50.031,-34.1876,-41.0627
12:43:50.042,-34.8126,-44.6252
12:43:50.051,-36.4376,-45.6877
12:43:50.062,-36.1251,-47.0002
12:43:50.072,-37.3751,-48.2502
12:43:50.081,-36.4376,-49.5002
12:43:50.092,-37.6876,-50.8127
12:43:50.103,-37.5626,-52.4377
12:43:50.112,-37.9376,-52.1877
12:43:50.121,-37.5626,-52.8127
12:43:50.132,-36.3751,-51.3127
12:43:50.141,-34.5626,-50.1877
12:43:50.152,-32.8751,-47.8127
12:43:50.161,-31.0001,-46.3752
12:43:50.171,-26.0001,-42.3127
12:43:50.182,-20.3126,-38.8126
12:43:50.191,-14.5001,-33.3126
12:43:50.218,-9.0625,-27.6876
12:43:50.220,-3.625,-21.8751
12:43:50.222,0.6875,-16.3126
12:43:50.254,5.0625,-11.75
12:43:50.258,9.875,-6.6875
12:43:50.259,13.6251,-0.875
12:43:50.261,17.6251,3.375
12:43:50.303,19.2501,4.625
12:43:50.305,8.9375,-7.375
12:43:50.307,-0.3125,-16.2501
12:43:50.335,-2.25,-19.1251
12:43:50.335,-8.0625,-21.0001
12:43:50.336,-10.875,-25.4376
12:43:50.338,-13.3751,-27.6251
12:43:50.344,-13.8126,-27.9376
12:43:50.377,-14.4376,-29.0001
12:43:50.381,-14.9376,-29.1876
12:43:50.382,-14.9376,-29.0626
12:43:50.388,-14.5001,-29.1876
12:43:50.391,-14.5626,-26.6251
12:43:50.403,-13.6251,-26.8126
12:43:50.411,-12.875,-27.3126
12:43:50.422,-12.1875,-25.6876
12:43:50.432,-11.6875,-25.1251
12:43:50.443,-10.1875,-24.1251
12:43:50.452,-8.8125,-21.2501
12:43:50.461,-5.875,-16.5626
12:43:50.473,-2.625,-12.125
12:43:50.484,0.5625,-6.5625
12:43:50.491,5.8125,0.875
12:43:50.501,10,10.0625
12:43:50.518,16.2501,18.4376
12:43:50.521,22.3126,26.6251
12:43:50.531,27.0626,34.8751
12:43:50.541,31.2501,41.4377
12:43:50.551,33.9376,45.5002
12:43:50.561,36.1251,49.1252
12:43:50.571,38.3126,51.8752
12:43:50.581,39.0001,54.2502
12:43:50.591,39.8752,54.9377
12:43:50.602,40.8127,57.5627
12:43:50.611,41.7502,59.8752
12:43:50.621,44.3127,62.5627
12:43:50.632,45.5002,65.1252
12:43:50.642,45.6877,64.0002
12:43:50.651,43.8127,63.1877
12:43:50.662,41.7502,61.6252
12:43:50.672,39.3752,57.7502
12:43:50.683,35.8126,53.6877
12:43:50.693,31.6876,48.8127
12:43:50.701,27.6876,46.4377
12:43:50.711,24.9376,42.5627
12:43:50.722,21.8126,38.1876
12:43:50.731,18.8126,35.3751
12:43:50.750,15.3751,30.1876
12:43:50.757,12.4375,26.8126
12:43:50.771,9.375,21.8751
12:43:50.772,6.8125,18.5001
12:43:50.782,3.375,13.3751
12:43:50.791,-0.8125,9.5
12:43:50.803,-3.5625,4.875
12:43:50.811,-6,0
12:43:50.822,-8.5,-3.375
12:43:50.831,-10.625,-7.125
12:43:50.842,-11.9375,-9.9375
12:43:50.852,-13.3126,-11.6875
12:43:50.861,-14.6876,-16.0626
12:43:50.872,-15.8751,-17.7501
12:43:50.882,-16.9376,-20.6251
12:43:50.893,-17.1876,-21.5626
12:43:50.902,-18.2501,-24.2501
12:43:50.912,-19.6876,-25.8126
12:43:50.921,-20.4376,-27.0001
12:43:50.932,-20.9376,-28.4376
12:43:50.941,-21.9376,-30.8751
12:43:50.952,-22.3751,-31.0626
12:43:50.968,-22.5626,-31.6251
12:43:50.972,-21.2501,-30.5626
12:43:50.986,-21.0001,-31.2501
12:43:51.000,-20.5001,-30.8126
12:43:51.005,-19.8126,-28.6876
12:43:51.036,-17.5001,-27.1876
12:43:51.039,-13.6251,-23.7501
12:43:51.043,-7.5,-17.8751
12:43:51.043,-0.75,-11.8125
12:43:51.077,6.0625,-6.125
12:43:51.079,10.5,-0.5
12:43:51.081,13.125,3.4375
12:43:51.086,15.7501,5.4375
12:43:51.115,16.2501,8.875
12:43:51.118,19.9376,12.625
12:43:51.120,25.7501,20.4376
12:43:51.122,32.6876,23.8751
12:43:51.152,30.7501,23.5626
12:43:51.155,19.3126,13.2501
12:43:51.157,13.7501,5.5625
12:43:51.163,12.625,3.6875
12:43:51.174,9.9375,1.5
12:43:51.181,6.3125,-1.9375
12:43:51.191,3.9375,-5.1875
12:43:51.222,2.375,-6.1875
12:43:51.225,2.3125,-7.6875
12:43:51.227,1.25,-9.3125
12:43:51.232,1.25,-9.125
12:43:51.241,0.5,-8.9375
12:43:51.253,2.3125,-8.3125
12:43:51.263,1.875,-8.875
12:43:51.273,0.6875,-10.8125
12:43:51.281,0.0625,-10.3125
12:43:51.292,0.875,-11.3125
12:43:51.302,-0.4375,-12.625
12:43:51.311,-1,-12
12:43:51.322,-0.375,-13.0625
12:43:51.331,-0.125,-12.6875
12:43:51.342,0.4375,-11.375
12:43:51.352,2,-8.8125
12:43:51.364,4.9375,-4.375
12:43:51.373,6.6875,-0.0625
12:43:51.381,10.25,7.25
12:43:51.391,13.0625,12.125
12:43:51.403,15.2501,17.6876
12:43:51.413,18.0001,23.2501
12:43:51.422,21.2501,27.8126
12:43:51.432,22.7501,33.0001
12:43:51.442,24.5001,35.1251
12:43:51.454,25.6251,40.0627
12:43:51.464,27.2501,42.3127
12:43:51.472,28.1251,44.3752
12:43:51.481,29.0626,47.0002
12:43:51.491,29.5626,48.5002
12:43:51.502,30.6876,51.8127
12:43:51.511,31.3751,52.5627
12:43:51.522,31.1251,54.1252
12:43:51.531,33.1251,57.3127
12:43:51.541,34.8751,59.4377
12:43:51.552,36.5626,59.7502
12:43:51.564,37.1251,62.1877
12:43:51.573,38.0626,62.0002
12:43:51.581,37.8126,60.6877
12:43:51.595,82.5628,89.5003
12:43:51.602,59.0002,79.9378
12:43:51.612,62.7502,77.2503
12:43:51.625,62.0627,74.2503
12:43:51.631,59.0627,70.3128
12:43:51.646,53.1877,61.3127
12:43:51.652,46.8127,52.8127
12:43:51.662,43.0002,49.1877
12:43:51.672,43.4377,47.0627
12:43:51.682,47.5627,47.6877
12:43:51.693,50.0002,46.4377
12:43:51.727,51.4377,43.9377
12:43:51.729,50.8127,39.8127
12:43:51.732,47.7502,33.3126
12:43:51.734,43.1252,27.6876
12:43:51.773,40.3127,20.6251
12:43:51.775,36.9376,14.1251
12:43:51.777,34.4376,8
12:43:51.781,32.8751,2.75
12:43:51.785,29.4376,-2.9375
12:43:51.792,25.9376,-8.375
12:43:51.826,23.3126,-13.6876
12:43:51.829,21.1876,-18.3126
12:43:51.831,19.8126,-22.0626
12:43:51.834,16.9376,-26.3126
12:43:51.863,15.5001,-30.0001
12:43:51.866,13.6251,-33.6251
12:43:51.869,12.75,-37.1251
12:43:51.872,11.125,-41.1252
12:43:51.883,9.75,-43.6877
12:43:51.891,9.375,-47.7502
12:43:51.903,8.0625,-51.6252
12:43:51.912,7.625,-55.5002
12:43:51.922,8.25,-58.0002
12:43:51.932,8.0625,-59.5627
12:43:51.943,8.6875,-64.5627
12:43:51.952,8.625,-67.8128
12:43:51.963,7.3125,-72.6878
12:43:51.973,3.125,-80.3753
12:43:51.981,-4.5625,-90.2503
12:43:51.992,-16.4376,-101.8754
12:43:52.002,-24.6251,-115.0629
12:43:52.012,-31.7501,-124.313
12:43:52.021,-35.8126,-130.313
12:43:52.031,-38.6876,-134.063
12:43:52.051,-40.8752,-138.188
12:43:52.056,-42.2502,-141.5005
12:43:52.071,-44.4377,-143.5005
12:43:52.073,-44.7502,-146.3756
12:43:52.084,-47.1252,-147.6881
12:43:52.091,-48.2502,-150.5006
12:43:52.102,-48.7502,-150.8131
12:43:52.112,-49.6252,-153.0006
12:43:52.123,-50.5627,-153.3131
12:43:52.134,-50.3127,-154.1881
12:43:52.141,-50.5002,-154.1881
12:43:52.153,-50.1252,-154.0631
12:43:52.161,-49.0002,-153.8756
12:43:52.172,-50.3752,-154.1256
12:43:52.181,-50.6252,-155.4381
12:43:52.192,-50.9377,-155.6256
12:43:52.201,-52.0627,-157.3131
12:43:52.212,-52.0627,-156.9381
12:43:52.222,-52.7502,-158.6881
12:43:52.231,-52.9377,-157.7506
12:43:52.241,-53.6877,-158.1256
12:43:52.265,-52.7502,-156.8131
12:43:52.269,-52.5627,-154.4381
12:43:52.282,-51.0002,-152.6256
12:43:52.284,-48.1877,-149.3131
12:43:52.293,-46.1877,-143.813
12:43:52.303,-42.5002,-137.813
12:43:52.314,-40.3752,-131.688
12:43:52.321,-36.6876,-126.063
12:43:52.332,-34.3126,-120.5005
12:43:52.341,-31.8751,-115.1879
12:43:52.352,-30.2501,-110.6254
12:43:52.362,-27.5626,-105.9379
12:43:52.372,-26.2501,-101.8129
12:43:52.383,-24.7501,-98.5629
12:43:52.395,-23.1876,-94.2504
12:43:52.406,-21.6876,-91.6879
12:43:52.411,-21.4376,-89.1878
12:43:52.422,-20.2501,-86.8128
12:43:52.460,-20.4376,-84.3128
12:43:52.462,-19.6876,-82.0628
12:43:52.465,-20.7501,-81.5628
12:43:52.468,-20.5626,-80.3753
12:43:52.473,-21.8751,-79.5003
12:43:52.509,-21.9376,-79.6878
12:43:52.510,-24.3751,-79.7503
12:43:52.512,-26.6876,-81.8128
12:43:52.520,-30.3126,-84.3753
12:43:52.523,-32.9376,-87.1878
12:43:52.561,-35.6876,-89.3128
12:43:52.562,-37.6251,-91.6879
12:43:52.567,-39.0626,-93.1879
12:43:52.568,-39.2502,-93.5629
12:43:52.573,-39.8127,-93.3129
12:43:52.602,-40.5002,-94.3129
12:43:52.605,-40.1877,-92.8754
12:43:52.608,-40.6252,-90.9379
12:43:52.612,-39.3127,-91.7504
12:43:52.622,-39.5002,-90.3129
12:43:52.634,-38.6251,-90.5628
12:43:52.641,-37.8751,-89.9378
12:43:52.652,-38.2501,-88.3753
12:43:52.661,-37.7501,-87.6878
12:43:52.673,-37.6876,-87.5003
12:43:52.682,-38.0626,-88.0628
12:43:52.693,-36.6876,-86.8753
12:43:52.704,-37.8126,-85.5003
12:43:52.711,-37.1251,-86.6878
12:43:52.721,-38.1251,-85.7503
12:43:52.731,-37.5001,-86.3128
12:43:52.742,-36.7501,-86.8128
12:43:52.751,-37.9376,-87.0003
12:43:52.762,-37.8751,-87.6878
12:43:52.776,-37.6251,-87.5628
12:43:52.782,-39.0001,-87.3128
12:43:52.791,-38.6251,-88.1878
12:43:52.801,-38.1876,-88.6878
12:43:52.812,-39.1252,-88.1878
12:43:52.822,-38.5626,-88.0628
12:43:52.832,-38.6876,-87.6878
12:43:52.843,-38.4376,-88.7503
12:43:52.852,-38.6251,-88.0003
12:43:52.862,-37.8126,-88.7503
12:43:52.872,-38.5626,-88.0003
12:43:52.883,-38.1876,-89.1253
12:43:52.894,-38.1876,-87.8128
12:43:52.901,-38.2501,-87.9378
12:43:52.911,-38.0626,-87.8128
12:43:52.921,-37.7501,-87.6878
12:43:52.931,-37.0001,-88.6253
12:43:52.943,-37.8126,-87.3128
12:43:52.952,-37.5001,-88.8128
12:43:52.965,-36.6876,-88.1878
12:43:52.972,-37.3126,-89.3128
12:43:52.981,-36.9376,-90.3128
12:43:52.992,-37.0001,-89.4378
12:43:53.001,-37.5626,-89.5628
12:43:53.011,-37.5626,-90.5628
12:43:53.022,-38.3126,-90.5003
12:43:53.035,-37.8126,-91.2504
12:43:53.042,-37.0626,-91.3129
12:43:53.051,-37.9376,-91.2504
12:43:53.061,-37.5001,-91.3129
12:43:53.072,-36.5001,-90.3128
12:43:53.082,-37.3126,-91.6254
12:43:53.094,-37.0626,-90.7504
12:43:53.102,-36.8126,-91.4379
12:43:53.112,-36.0626,-91.6879
12:43:53.122,-36.5626,-90.8129
12:43:53.131,-36.0626,-91.8129
12:43:53.153,-35.3751,-91.3129
12:43:53.156,-35.8126,-91.7504
12:43:53.182,-35.5626,-92.1879
12:43:53.184,-35.3126,-91.4379
12:43:53.186,-34.7501,-92.1254
12:43:53.201,-34.1876,-90.6254
12:43:53.205,-32.3126,-87.0003
12:43:53.232,-30.3126,-84.4378
12:43:53.235,-27.1251,-78.6878
12:43:53.237,-24.5626,-73.8753
12:43:53.242,-21.5001,-68.1878
12:43:53.281,-18.8126,-61.5002
12:43:53.283,-15.5001,-55.1877
12:43:53.285,-13.2501,-50.4377
12:43:53.288,-10.9375,-45.5002
12:43:53.326,-9.4375,-40.5627
12:43:53.327,-8.25,-37.0626
12:43:53.330,-6.8125,-33.1876
12:43:53.333,-5.375,-31.0001
12:43:53.337,-3.75,-26.6251
12:43:53.358,-2.8125,-24.6251
12:43:53.361,-1.1875,-21.4376
12:43:53.376,-0.0625,-17.0001
12:43:53.378,0.25,-15.4376
12:43:53.387,0.8125,-12.4375
12:43:53.398,2.3125,-11.25
12:43:53.408,2.8125,-8.125
12:43:53.416,3.625,-6.875
12:43:53.426,4.0625,-6.4375
12:43:53.436,3.75,-4.25
12:43:53.448,3.1875,-5.4375
12:43:53.456,2.75,-4.4375
12:43:53.467,2.6875,-5.5
12:43:53.476,1.4375,-5.5
12:43:53.486,1.1875,-6.8125
12:43:53.499,0.25,-7.6875
12:43:53.506,-0.25,-8.9375
12:43:53.517,-0.5625,-7.6875
12:43:53.526,-0.3125,-9
12:43:53.536,-1,-10.25
12:43:53.549,-1.125,-9.25
12:43:53.563,-1.4375,-9.5625
12:43:53.578,-1.9375,-9.375
12:43:53.581,-1.4375,-9.375
12:43:53.588,-1.5625,-9.4375
12:43:53.596,-1.5,-9.4375
12:43:53.606,-2.1875,-10.1875
12:43:53.617,-2.75,-11.3125
12:43:53.626,-2.4375,-10.625
12:43:53.637,-2.6875,-11.3125
12:43:53.646,-3.9375,-12.3125
12:43:53.657,-3.6875,-12.875
12:43:53.666,-3.6875,-13.4376
12:43:53.677,-4.8125,-13.6876
12:43:53.688,-4.75,-15.5001
12:43:53.697,-5.3125,-15.6251
12:43:53.707,-5.5625,-15.7501
12:43:53.717,-5.4375,-17.6876
12:43:53.726,-6,-19.0001
12:43:53.737,-6.625,-19.1251
12:43:53.746,-7.1875,-19.9376
12:43:53.756,-7.375,-21.0001
12:43:53.782,-8.6875,-21.6251
12:43:53.785,-8.875,-23.0001
12:43:53.788,-10,-23.9376
12:43:53.797,-10.5625,-25.3751
12:43:53.807,-10.25,-26.8126
12:43:53.816,-11.4375,-26.9376
12:43:53.828,-11.8125,-28.4376
12:43:53.836,-11.6875,-28.3126
12:43:53.847,-11.9375,-29.6251
12:43:53.857,-13.3751,-30.1876
12:43:53.867,-13.6876,-32.0626
12:43:53.887,-14.5626,-32.4376
12:43:53.893,-14.9376,-34.3751
12:43:53.919,-15.2501,-34.1876
12:43:53.921,-15.1876,-36.1251
12:43:53.924,-16.4376,-36.6876
12:43:53.926,-17.1876,-38.1876
12:43:53.967,-17.2501,-39.8127
12:43:53.973,-17.5001,-39.2502
12:43:53.974,-17.6251,-40.3752
12:43:53.977,-18.0626,-40.5627
12:43:53.978,-17.8751,-42.1252
12:43:53.991,-18.7501,-41.5627
12:43:53.998,-18.5626,-42.4377
12:43:54.038,-18.6876,-42.9377
12:43:54.041,-19.0001,-45.1252
12:43:54.042,-19.5626,-44.9377
12:43:54.047,-19.1876,-46.6252
12:43:54.049,-19.3126,-46.0627
12:43:54.056,-19.8126,-47.6877
12:43:54.068,-20.2501,-47.6877
12:43:54.077,-19.1876,-48.6877
12:43:54.087,-20.3126,-49.4377
12:43:54.103,-19.9376,-48.6877
12:43:54.106,-19.5001,-47.5002
12:43:54.116,-17.4376,-45.0002
12:43:54.126,-15.6876,-42.1877
12:43:54.136,-14.0001,-37.4376
12:43:54.147,-10.8125,-31.8126
12:43:54.156,-8.6875,-25.0001
12:43:54.166,-5.625,-21.0001
12:43:54.177,-3.5625,-14.6251
12:43:54.186,-1.6875,-10.25
12:43:54.197,0.75,-6.75
12:43:54.206,2.125,-3.25
12:43:54.216,2.375,0.125
12:43:54.228,4,3.6875
12:43:54.236,4.9375,5.375
12:43:54.248,6.1875,9.375
12:43:54.257,6.6875,10.75
12:43:54.267,8.375,13.9376
12:43:54.276,8.5625,15.5001
12:43:54.286,9,17.8126
12:43:54.299,9.875,19.3126
12:43:54.307,9.625,21.1251
12:43:54.316,10.9375,22.6251
12:43:54.326,10.1875,23.0001
12:43:54.337,10,25.0001
12:43:54.349,10.25,24.1251
12:43:54.358,9.5,24.8751
12:43:54.366,9.5,23.2501
12:43:54.376,8.125,22.4376
12:43:54.386,7.5,21.9376
12:43:54.396,7.5625,19.9376
12:43:54.406,6.8125,19.2501
12:43:54.416,5.125,17.5001
12:43:54.426,4.1875,16.9376
12:43:54.437,4.375,16.4376
12:43:54.448,3.5625,14.6876
12:43:54.456,3.125,15.3751
12:43:54.469,2.8125,15.3126
12:43:54.482,3.125,14.3751
12:43:54.488,1.5,13.0625
12:43:54.496,1,13.6251
12:43:54.506,1.4375,12
12:43:54.517,0.25,11
12:43:54.527,-0.9375,10.875
12:43:54.537,-0.25,9.3125
12:43:54.546,-2.125,7.5625
12:43:54.556,-2.4375,6.8125
12:43:54.566,-3.3125,6.4375
12:43:54.578,-3.3125,5.0625
12:43:54.586,-4.1875,3.5625
12:43:54.600,-5.375,2.0625
12:43:54.630,-5.375,1.3125
12:43:54.633,-6.1875,-0.0625
12:43:54.638,-7.0625,-1.25
12:43:54.638,-7.4375,-2.875
12:43:54.672,-8,-3.75
12:43:54.674,-8.6875,-5.5625
12:43:54.677,-9.625,-6.4375
12:43:54.679,-10.6875,-7.125
12:43:54.706,-10.5,-9.375
12:43:54.709,-11.3125,-10.5625
12:43:54.711,-11.5,-11.5
12:43:54.717,-12.3125,-12.375
12:43:54.752,-12.5,-13.5626
12:43:54.755,-13.1251,-14.5001
12:43:54.757,-13.6876,-16.3126
12:43:54.760,-13.9376,-18.3126
12:43:54.772,-14.5001,-18.6251
12:43:54.777,-14.5626,-19.3751
12:43:54.786,-15.6251,-20.3126
12:43:54.796,-15.9376,-21.6251
12:43:54.806,-15.8126,-23.1251
12:43:54.817,-16.6251,-23.0626
12:43:54.826,-17.4376,-25.1251
12:43:54.837,-17.6876,-27.1876
12:43:54.858,-18.1251,-26.8751
12:43:54.860,-18.3126,-29.0001
12:43:54.875,-18.5001,-28.9376
12:43:54.877,-19.2501,-31.1876
12:43:54.887,-19.5626,-31.1876
12:43:54.896,-20.1876,-33.2501
12:43:54.907,-19.5626,-33.9376
12:43:54.916,-20.3751,-34.6251
12:43:54.927,-20.7501,-36.0001
12:43:54.938,-20.8751,-36.5626
12:43:54.946,-21.5626,-36.8751
12:43:54.956,-20.7501,-38.4376
12:43:54.967,-22.1876,-39.5002
12:43:54.977,-22.0001,-40.5002
12:43:54.988,-23.0001,-41.5002
12:43:54.996,-23.5001,-42.3127
12:43:55.006,-23.2501,-44.0627
12:43:55.016,-24.0001,-43.8127
12:43:55.027,-23.8126,-45.0002
12:43:55.036,-23.3751,-44.6877
12:43:55.063,-22.4376,-43.0627
12:43:55.065,-20.3751,-39.5002
12:43:55.067,-17.8126,-34.5001
12:43:55.076,-15.5001,-29.7501
12:43:55.087,-12.3125,-23.0626
12:43:55.097,-9.6875,-18.3751
12:43:55.108,-7.0625,-12.1875
12:43:55.117,-4.8125,-7.4375
12:43:55.127,-2.6875,-1.875
12:43:55.138,-1.1875,0.625
12:43:55.147,0,5.625
12:43:55.156,3,9.125
12:43:55.166,3.625,13.0625
12:43:55.179,5.125,15.3751
12:43:55.186,5.5,18.5626
12:43:55.196,7.625,21.8751
12:43:55.206,8.3125,24.1251
12:43:55.218,9.0625,26.5626
12:43:55.231,9.8125,30.1251
12:43:55.236,10.4375,31.6251
12:43:55.247,11.3125,33.3751
12:43:55.258,11.6875,34.7501
12:43:55.266,11.8125,36.7501
12:43:55.276,11.5625,36.1876
12:43:55.286,11.4375,38.0001
12:43:55.298,11.5,37.1876
12:43:55.307,10.8125,37.8751
12:43:55.316,11.125,37.6251
12:43:55.327,10.125,35.8751
12:43:55.354,8.6875,34.4376
12:43:55.356,8.125,33.8126
12:43:55.359,7.9375,32.4376
12:43:55.392,6.5625,30.9376
12:43:55.394,6,29.8126
12:43:55.397,5.3125,29.9376
12:43:55.401,5.75,29.2501
12:43:55.440,4.125,28.2501
12:43:55.443,3.625,28.3126
12:43:55.446,3.8125,26.5001
12:43:55.479,3.125,25.6876
12:43:55.479,3.3125,25.5001
12:43:55.480,1.5,24.8751
12:43:55.483,1.25,24.0626
12:43:55.488,0.8125,22.7501
12:43:55.489,0.0625,22.3126
12:43:55.517,-0.0625,20.2501
12:43:55.518,-1.125,20.0626
12:43:55.521,-1.9375,18.3751
12:43:55.526,-2.625,16.3751
12:43:55.538,-3.375,14.8126
12:43:55.546,-3.5625,13.8126
12:43:55.556,-4.8125,12.125
12:43:55.568,-5.5,10.9375
12:43:55.576,-6.6875,8.8125
12:43:55.587,-6.4375,7.8125
12:43:55.596,-6.9375,7
12:43:55.606,-8.0625,6.1875
12:43:55.616,-8.375,3.625
12:43:55.626,-9.3125,1.875
12:43:55.636,-10.0625,0.5
12:43:55.648,-10.4375,-0.375
12:43:55.656,-11.4375,-1.3125
12:43:55.667,-10.875,-3
12:43:55.677,-12,-4.25
12:43:55.687,-12.3125,-5.375
12:43:55.697,-13.5001,-7.3125
12:43:55.707,-13.1876,-8
12:43:55.717,-13.5626,-9.75
12:43:55.726,-14.3126,-11.375
12:43:55.736,-14.6251,-11
12:43:55.747,-15.3126,-13.5626
12:43:55.756,-15.5626,-14.5001
12:43:55.769,-16.1876,-16.1876
12:43:55.778,-16.9376,-16.8126
12:43:55.786,-17.0626,-18.4376
12:43:55.796,-17.0626,-18.6251
12:43:55.808,-17.7501,-21.1876
12:43:55.816,-17.5626,-21.3126
12:43:55.826,-18.4376,-21.6251
12:43:55.838,-18.9376,-23.8751
12:43:55.846,-19.6876,-24.2501
12:43:55.857,-19.9376,-26.2501
12:43:55.868,-19.4376,-27.8751
12:43:55.878,-21.0626,-29.0001
12:43:55.886,-20.5001,-30.3126
12:43:55.897,-20.6876,-30.1251
12:43:55.908,-21.3751,-30.6876
12:43:55.916,-20.7501,-32.5001
12:43:55.928,-21.5626,-32.3126
12:43:55.938,-21.3751,-33.5626
12:43:55.953,-21.5001,-34.5001
12:43:55.968,-21.5626,-35.8751
12:43:55.971,-21.8126,-34.8126
12:43:55.986,-20.5626,-35.1251
12:43:55.991,-19.7501,-32.5001
12:43:55.997,-17.5626,-29.6876
12:43:56.006,-15.6251,-25.4376
12:43:56.018,-12.9375,-19.1876
12:43:56.028,-9.375,-14.1251
12:43:56.036,-7.3125,-6.6875
12:43:56.048,-3.9375,-2.6875
12:43:56.059,-2.3125,3.25
12:43:56.066,0.0625,6.5
12:43:56.076,1.75,10.6875
12:43:56.097,3.0625,15.4376
12:43:56.101,4.625,18.1251
12:43:56.107,5.875,20.5001
12:43:56.134,6.625,23.0001
12:43:56.136,7.25,27.3751
12:43:56.142,8.625,28.2501
12:43:56.176,9.5625,31.1876
12:43:56.213,9.875,33.3126
12:43:56.242,11.25,33.8751
12:43:56.245,11.1875,37.6251
12:43:56.248,11.75,38.4376
12:43:56.248,12.25,39.5002
12:43:56.248,12.9375,42.1252
12:43:56.254,12.8125,41.5002
12:43:56.266,12.3125,41.9377
12:43:56.272,12.5625,42.5627
12:43:56.282,12.3125,41.8752
12:43:56.293,11,40.4377
12:43:56.301,10.1875,40.4377
12:43:56.311,10.1875,39.9377
12:43:56.342,9.4375,38.3751
12:43:56.345,7.9375,36.3751
12:43:56.349,7.8125,36.9376
12:43:56.352,7.125,36.0626
12:43:56.367,7.4375,35.0001
12:43:56.372,6.5625,34.3751
12:43:56.381,6.25,34.2501
12:43:56.394,5.75,33.3126
12:43:56.402,5.1875,32.6876
12:43:56.411,2.8125,30.8126
12:43:56.421,2.6875,29.6876
12:43:56.434,2.0625,28.8751
12:43:56.442,1.0625,27.1251
12:43:56.452,0.3125,27.0001
12:43:56.461,0.3125,24.6251
12:43:56.472,-1.0625,22.3126
12:43:56.482,-1.6875,21.6876
12:43:56.491,-1.9375,20.8751
12:43:56.501,-2.875,19.2501
12:43:56.512,-3,17.2501
12:43:56.521,-4.3125,15.0626
12:43:56.533,-5.625,14.6876
12:43:56.545,-5.4375,11.6875
12:43:56.552,-6.625,10.125
12:43:56.561,-7.6875,9
12:43:56.573,-7.8125,8.0625
12:43:56.581,-8.375,6.25
12:43:56.592,-9.1875,4.4375
12:43:56.604,-9.8125,4.375
12:43:56.611,-10.0625,1.5625
12:43:56.621,-11.125,-0.5625
12:43:56.632,-12,-1.25
12:43:56.641,-12.1875,-1.375
12:43:56.652,-11.5625,-3.3125
12:43:56.662,-12.4375,-5.5
12:43:56.673,-13.3126,-5.0625
12:43:56.682,-13,-7.1875
12:43:56.692,-14.4376,-9
12:43:56.701,-15.2501,-9.75
12:43:56.713,-14.0626,-10.6875
12:43:56.722,-15.0626,-12.1875
12:43:56.736,-16.3751,-12.5
12:43:56.741,-15.7501,-14.7501
12:43:56.752,-16.8751,-16.3126
12:43:56.761,-17.2501,-16.5626
12:43:56.775,-17.3751,-18.6876
12:43:56.781,-18.4376,-20.1876
12:43:56.792,-18.9376,-20.3751
12:43:56.805,-18.5001,-22.2501
12:43:56.812,-19.1876,-21.8126
12:43:56.822,-19.2501,-24.1251
12:43:56.833,-20.2501,-24.1876
12:43:56.842,-19.9376,-26.7501
12:43:56.851,-21.1876,-26.1251
12:43:56.890,-20.5626,-28.5001
12:43:56.893,-21.0001,-29.0001
12:43:56.895,-20.8751,-29.9376
12:43:56.897,-21.8751,-30.1876
12:43:56.903,-20.7501,-29.6876
12:43:56.932,-19.8126,-27.3126
12:43:56.935,-17.0626,-24.3126
12:43:56.937,-15.6876,-18.8126
12:43:56.942,-11.9375,-15.1251
12:43:56.953,-9.8125,-8.5625
12:43:56.983,-6.875,-3.125
12:43:56.986,-4.3125,1.125
12:43:56.989,-1.9375,7.375
12:43:56.992,-0.3125,10.3125
12:43:57.026,1.125,15.6876
12:43:57.029,2.625,17.8126
12:43:57.030,3.25,21.0001
12:43:57.035,4.5625,22.9376
12:43:57.041,5.25,24.7501
12:43:57.051,5.75,28.0001
12:43:57.063,6.75,30.1251
12:43:57.072,7.5,31.3751
12:43:57.082,8,34.6251
12:43:57.092,8.375,35.5001
12:43:57.101,8.5625,36.8126
12:43:57.114,9.9375,38.6876
12:43:57.122,9.9375,39.9377
12:43:57.131,10.375,40.3752
12:43:57.141,10.4375,40.7502
12:43:57.152,9.4375,40.9377
12:43:57.162,9.25,39.1877
12:43:57.172,7.8125,38.0626
12:43:57.181,7.375,36.4376
12:43:57.192,6.5,35.4376
12:43:57.203,6.3125,34.6876
12:43:57.211,5.5,34.2501
12:43:57.222,5.125,32.9376
12:43:57.232,3.1875,31.9376
12:43:57.253,3.5625,31.6251
12:43:57.259,3,31.3126
12:43:57.276,1.9375,29.3126
12:43:57.277,1.625,30.0001
12:43:57.286,1.4375,29.8751
12:43:57.291,1.125,28.1876
12:43:57.302,1,27.6876
12:43:57.314,0.25,25.8751
12:43:57.322,-1.1875,26.2501
12:43:57.338,-1.1875,24.6876
12:43:57.346,-1.5625,22.6251
12:43:57.359,-2.875,21.9376
12:43:57.366,-3.4375,19.9376
12:43:57.378,-4.3125,17.7501
12:43:57.388,-5.3125,17.3126
12:43:57.396,-5.875,15.7501
12:43:57.406,-6.875,13.9376
12:43:57.417,-7,12.25
12:43:57.426,-8.8125,10.3125
12:43:57.437,-9.125,8.75
12:43:57.447,-9.9375,7.75
12:43:57.456,-9.8125,6.5625
12:43:57.467,-10.875,4.6875
12:43:57.477,-11.375,3.75
12:43:57.492,-11.875,1.875
12:43:57.507,-12.875,1.0625
12:43:57.509,-12.25,-1.1875
12:43:57.524,-13.0625,-1.375
12:43:57.538,-12.5625,-2.6875
12:43:57.541,-13.8751,-5.1875
12:43:57.550,-14.1876,-5.4375
12:43:57.557,-15.0626,-8.0625
12:43:57.566,-15.7501,-8.5625
12:43:57.594,-16.1876,-10.0625
12:43:57.596,-17.1251,-11.75
12:43:57.599,-18.0001,-13.6876
12:43:57.625,-18.0001,-13.5626
12:43:57.628,-18.8126,-16.1876
12:43:57.630,-19.1876,-15.7501
12:43:57.666,-18.7501,-17.5626
12:43:57.666,-19.8126,-19.4376
12:43:57.669,-20.5626,-20.9376
12:43:57.671,-20.8751,-21.5626
12:43:57.676,-20.4376,-22.3126
12:43:57.691,-21.0626,-22.5626
12:43:57.721,-21.5001,-23.3751
12:43:57.723,-21.9376,-25.5001
12:43:57.726,-22.5626,-26.1251
12:43:57.728,-22.5001,-28.0001
12:43:57.745,-23.0626,-29.5001
12:43:57.746,-23.3751,-29.8751
12:43:57.759,-23.8751,-31.0626
12:43:57.768,-23.8751,-31.0001
12:43:57.776,-23.8126,-32.6876
12:43:57.789,-23.0001,-32.9376
12:43:57.796,-23.6876,-34.4376
12:43:57.809,-24.0626,-34.3126
12:43:57.819,-22.6876,-33.9376
12:43:57.826,-22.0001,-33.0001
12:43:57.836,-20.4376,-29.0001
12:43:57.847,-18.4376,-25.9376
12:43:57.856,-15.6876,-20.1251
12:43:57.870,-12.875,-15.8126
12:43:57.878,-10.25,-9.9375
12:43:57.886,-7.9375,-3.875
12:43:57.897,-5.875,0.5
12:43:57.908,-3.8125,6.5
12:43:57.918,-2.1875,10.3125
12:43:57.926,-0.5,13.8751
12:43:57.936,0.875,17.3751
12:43:57.946,2.625,21.2501
12:43:57.958,3.125,24.1876
12:43:57.966,4.6875,28.0626
12:43:57.976,5.5625,29.9376
12:43:57.987,6.3125,33.1876
12:43:57.997,7.5625,35.5626
12:43:58.006,8,38.2501
12:43:58.017,9.25,40.3127
12:43:58.026,9.75,43.1252
12:43:58.036,10.9375,44.7502
12:43:58.048,12.125,46.5002
12:43:58.057,11.9375,49.0627
12:43:58.067,12.875,48.5627
12:43:58.078,12,49.5002
12:43:58.088,12.1875,48.3127
12:43:58.096,11.125,47.3127
12:43:58.107,9.9375,46.6252
12:43:58.117,9.125,46.1252
12:43:58.126,8.625,44.4377
12:43:58.137,7.8125,43.3127
12:43:58.147,6.625,41.7502
12:43:58.158,5.125,41.8127
12:43:58.167,5.0625,40.3127
12:43:58.177,5.1875,39.8752
12:43:58.186,4.5,39.1876
12:43:58.197,4.375,39.0001
12:43:58.207,3.5625,37.9376
12:43:58.218,2.625,38.3126
12:43:58.228,2.5625,35.8751
12:43:58.238,2.625,35.9376
12:43:58.246,1.6875,34.5001
12:43:58.257,0.6875,33.0626
12:43:58.268,-0.5,31.4376
12:43:58.276,-0.5625,30.1251
12:43:58.318,-1.1875,29.1251
12:43:58.320,-2.4375,26.7501
12:43:58.321,-2.5625,24.7501
12:43:58.324,-3.8125,23.0001
12:43:58.328,-3.75,22.8751
12:43:58.366,-4.75,20.3751
12:43:58.367,-5.1875,19.0001
12:43:58.370,-6,18.2501
12:43:58.397,-6.3125,15.3126
12:43:58.398,-7.375,13
12:43:58.399,-8.4375,13
12:43:58.401,-9,10
12:43:58.407,-10.25,8.25
12:43:58.420,-11.125,5.75
12:43:58.457,-12.0625,4.8125
12:43:58.460,-12,4.375
12:43:58.463,-13.5626,2
12:43:58.466,-14.3126,1.0625
12:43:58.470,-14.0001,-1.4375
12:43:58.477,-15.7501,-3.3125
12:43:58.486,-15.8751,-4.0625
12:43:58.496,-16.2501,-6.25
12:43:58.506,-17.1876,-7.375
12:43:58.517,-17.3126,-8.3125
12:43:58.527,-16.8126,-9.125
12:43:58.538,-17.9376,-11
12:43:58.547,-18.2501,-11
12:43:58.567,-18.1876,-13.5001
12:43:58.576,-19.0626,-14.6251
12:43:58.577,-19.6251,-16.6876
12:43:58.587,-19.8126,-18.0001
12:43:58.606,-20.3751,-18.0626
12:43:58.617,-20.2501,-19.5001
12:43:58.621,-20.6876,-22.3126
12:43:58.634,-20.1251,-22.1251
12:43:58.639,-20.8751,-23.3126
12:43:58.647,-21.8751,-24.1251
12:43:58.657,-21.6876,-25.8126
12:43:58.667,-22.8751,-27.8126
12:43:58.676,-24.0001,-28.5001
12:43:58.687,-23.6251,-30.3751
12:43:58.696,-24.3751,-30.5626
12:43:58.706,-24.1876,-32.5001
12:43:58.717,-25.5001,-33.0626
12:43:58.726,-25.1251,-34.2501
12:43:58.737,-25.1251,-35.5626
12:43:58.747,-25.1876,-35.2501
12:43:58.757,-24.8751,-35.3126
12:43:58.767,-23.5001,-33.8126
12:43:58.777,-22.0001,-29.3126
12:43:58.786,-19.3126,-26.3751
12:43:58.798,-16.5626,-21.2501
12:43:58.807,-13.8126,-14.0626
12:43:58.825,-11,-9.375
12:43:58.828,-7.3125,-2.25
12:43:58.843,-5.625,1.875
12:43:58.850,-3.75,6.8125
12:43:58.856,-1.1875,11.5
12:43:58.867,-0.25,16.0626
12:43:58.876,2.5625,20.2501
12:43:58.904,4.125,23.9376
12:43:58.909,5.9375,27.6251
12:43:58.909,7.3125,30.4376
12:43:58.917,9.4375,34.0626
12:43:58.926,9.3125,37.5626
12:43:58.938,10.625,39.4377
12:43:58.947,12.3125,42.3127
12:43:58.957,12.375,44.2502
12:43:58.969,12.6875,46.1252
12:43:58.986,12.9375,47.9377
12:43:58.987,13,49.1252
12:43:59.024,13.1876,50.4377
12:43:59.026,13.3126,51.1252
12:43:59.029,12.75,50.7502
12:43:59.031,11.8125,50.3127
12:43:59.038,11.0625,49.3752
12:43:59.074,10.5625,47.8752
12:43:59.076,9.1875,48.1252
12:43:59.079,8.6875,46.6877
12:43:59.081,8.3125,45.1252
12:43:59.088,7.0625,44.0627
12:43:59.124,7.4375,43.1877
12:43:59.126,6.6875,42.5627
12:43:59.129,5.875,40.9377
12:43:59.131,5.375,40.8127
12:43:59.136,4.875,40.2502
12:43:59.160,5.0625,38.6876
12:43:59.164,4.0625,37.1251
12:43:59.167,3.5,37.0001
12:43:59.178,3.25,35.9376
12:43:59.187,2.75,34.2501
12:43:59.196,1.5,31.6876
12:43:59.207,0.125,31.8126
12:43:59.217,0,29.2501
12:43:59.228,-1.75,27.1251
12:43:59.237,-2.8125,24.6251
12:43:59.246,-4.375,23.3751
12:43:59.259,-4.25,21.8751
12:43:59.266,-5.3125,19.8751
12:43:59.277,-6.4375,17.7501
12:43:59.290,-7.25,16.5626
12:43:59.298,-7.5625,14.6251
12:43:59.307,-8.125,13.6251
12:43:59.317,-9.0625,10.9375
12:43:59.327,-9.9375,9.4375
12:43:59.338,-10.4375,8.4375
12:43:59.348,-11.5625,6.8125
12:43:59.358,-11,4.375
12:43:59.367,-12.125,3.0625
12:43:59.377,-12.875,1.75
12:43:59.386,-12.875,0.75
12:43:59.398,-13.5001,-2.0625
12:43:59.407,-14.5001,-3.4375
12:43:59.419,-14.5626,-3.6875
12:43:59.427,-14.7501,-6.75
12:43:59.436,-15.8751,-7.5
12:43:59.450,-15.6876,-8.625
12:43:59.456,-16.6876,-11.375
12:43:59.467,-16.8751,-12.1875
12:43:59.476,-18.5001,-12.75
12:43:59.486,-18.2501,-15.0001
12:43:59.497,-19.1251,-17.8751
12:43:59.507,-19.8126,-17.1876
12:43:59.518,-19.7501,-19.1251
12:43:59.529,-20.8751,-20.8126
12:43:59.536,-21.0001,-22.2501
12:43:59.547,-21.5001,-24.3751
12:43:59.556,-22.8751,-25.1876
12:43:59.567,-23.2501,-26.0626
12:43:59.576,-23.9376,-28.5626
12:43:59.587,-24.3126,-29.2501
12:43:59.596,-25.5001,-31.6876
12:43:59.607,-26.3126,-32.9376
12:43:59.618,-27.3751,-34.3751
12:43:59.626,-27.5626,-35.1876
12:43:59.640,-27.7501,-36.3126
12:43:59.646,-29.0626,-37.5001
12:43:59.657,-28.2501,-37.5626
12:43:59.667,-28.5626,-39.2502
12:43:59.676,-29.4376,-38.4376
12:43:59.688,-28.1251,-39.9377
12:43:59.697,-27.2501,-39.4377
12:43:59.706,-25.7501,-36.8751
12:43:59.720,-23.6876,-33.7501
12:43:59.727,-21.5001,-28.4376
12:43:59.736,-17.8751,-22.8126
12:43:59.750,-14.7501,-17.0626
12:43:59.756,-11.75,-11.625
12:43:59.767,-9.5,-5.125
12:43:59.776,-6.5,-0.0625
12:43:59.799,-3.8125,4.6875
12:43:59.801,-2.875,9.1875
12:43:59.834,-0.125,13.0625
12:43:59.835,0.75,16.8751
12:43:59.838,1.75,19.0001
12:43:59.840,3.0625,22.5626
12:43:59.846,3.3125,25.8751
12:43:59.873,4.0625,28.0626
12:43:59.876,4.75,29.5626
12:43:59.879,5.0625,32.0001
12:43:59.886,5.8125,33.8751
12:43:59.918,6.75,36.8126
12:43:59.948,7.5,38.8126
12:43:59.976,8,40.5627
12:43:59.991,9.125,42.2502
12:43:59.993,9.1875,43.3752
12:43:59.996,9.75,44.0002
12:43:59.997,10,44.2502
12:43:59.997,9.125,42.7502
12:44:00.005,8.125,41.7502
12:44:00.014,7.875,41.1877
12:44:00.024,7.3125,40.1252
12:44:00.031,7.125,38.7501
12:44:00.041,6.4375,38.0626
12:44:00.054,5.625,37.1251
12:44:00.062,4.75,37.5626
12:44:00.072,4.8125,35.1251
12:44:00.082,4.125,34.5626
12:44:00.092,3.8125,33.5626
12:44:00.101,3.75,32.5626
12:44:00.111,3.3125,33.2501
12:44:00.129,2.375,32.6876
12:44:00.132,2.5,31.3126
12:44:00.146,1.6875,30.4376
12:44:00.184,1,28.2501
12:44:00.198,-0.5,24.6876
12:44:00.200,-1.375,23.2501
12:44:00.205,-2.0625,21.1876
12:44:00.205,-2.75,19.1876
12:44:00.205,-3.5,17.6251
12:44:00.213,-5.125,15.7501
12:44:00.222,-4.75,14.1876
12:44:00.233,-6.125,11.8125
12:44:00.242,-7.875,9.4375
12:44:00.252,-9.125,9.0625
12:44:00.264,-9.75,7.0625
12:44:00.271,-10.1875,5
12:44:00.284,-11.1875,2.75
12:44:00.292,-13,0.375
12:44:00.301,-14.1251,-1.125
12:44:00.311,-16.5001,-3.75
12:44:00.322,-19.4376,-6.8125
12:44:00.337,-22.8126,-11.5625
12:44:00.352,-28.2501,-16.8126
12:44:00.357,-32.8126,-20.2501
12:44:00.367,-36.0626,-23.0626
12:44:00.380,-37.7501,-23.6251
12:44:00.387,-41.6252,-28.0626
12:44:00.397,-47.2502,-32.5626
12:44:00.407,-52.1252,-36.2501
12:44:00.417,-57.8127,-38.3126
12:44:00.453,-71.3753,-44.7502
12:44:00.455,-82.3128,-49.3127
12:44:00.457,-75.0003,-35.3751
12:44:00.461,-60.5627,-15.1876
12:44:00.496,-49.8752,-1.125
12:44:00.499,-42.8752,8.0625
12:44:00.501,-38.8126,13.9376
12:44:00.502,-36.5001,17.5626
12:44:00.507,-34.1876,20.6876
12:44:00.538,-31.7501,23.3126
12:44:00.541,-29.5626,25.6876
12:44:00.543,-27.4376,28.0626
12:44:00.546,-24.6876,29.5001
12:44:00.577,-18.3751,37.5001
12:44:00.578,-7,47.8752
12:44:00.582,7,63.2502
12:44:00.588,17.0626,73.0003
12:44:00.605,25.4376,81.3753
12:44:00.607,32.0626,88.2503
12:44:00.619,36.9376,94.1254
12:44:00.627,42.2502,101.5629
12:44:00.636,49.3752,112.3754
12:44:00.647,58.6877,122.5005
12:44:00.656,65.3127,131.3755
12:44:00.667,71.0628,138.7505
12:44:00.676,77.5003,144.938
12:44:00.686,81.8128,150.8131
12:44:00.699,86.8128,157.1881
12:44:00.706,90.7504,163.0006
12:44:00.717,93.4379,165.6881
12:44:00.729,91.0004,164.2506
12:44:00.736,68.8753,144.438
12:44:00.746,29.8751,105.9379
12:44:00.756,-24.8751,47.4377
12:44:00.766,-91.5004,-28.8126
12:44:00.779,-139.438,-101.9379
12:44:00.787,-140.1255,-136.2505
12:44:00.798,-132.188,-152.5631
12:44:00.807,-122.313,-170.8756
12:44:00.817,-123.6255,-197.1258
12:44:00.827,-133.938,-227.5009
12:44:00.836,-155.3131,-263.501
12:44:00.847,-183.3757,-304.1887
12:44:00.856,-205.5633,-337.5013
12:44:00.866,-223.5009,-361.5014
12:44:00.877,-235.6884,-366.9389
12:44:00.886,-245.9384,-384.564
12:44:00.897,-258.376,-403.814
12:44:00.907,-272.501,-420.4391
12:44:00.917,-286.7511,-436.2516
12:44:00.927,-300.4387,-449.3767
12:44:00.938,-311.7512,-459.5018
12:44:00.947,-322.6887,-466.5643
12:44:00.956,-334.0638,-472.1893
12:44:00.968,-345.6888,-474.7518
12:44:00.978,-354.3138,-472.8143
12:44:00.986,-355.1888,-460.6268
12:44:00.996,-341.6263,-432.9391
12:44:01.008,-317.6887,-392.814
12:44:01.017,-286.0011,-346.1888
12:44:01.027,-247.0634,-292.0011
12:44:01.038,-204.1258,-236.0634
12:44:01.046,-160.0631,-177.8757
12:44:01.059,-117.1254,-123.313
12:44:01.067,-77.9378,-72.1253
12:44:01.077,-47.1252,-30.8751
12:44:01.087,-23.0626,-0.6875
12:44:01.102,-10.0625,16.6876
12:44:01.109,-7.5,19.0626
12:44:01.117,-30.8126,-6.125
12:44:01.126,-66.9378,-50.0002
12:44:01.137,-109.0629,-98.4379
12:44:01.147,-145.813,-144.813
12:44:01.158,-170.2506,-180.8132
12:44:01.167,-168.5631,-193.6882
12:44:01.184,-179.6882,-215.3133
12:44:01.186,-173.5632,-225.4384
12:44:01.219,-174.8132,-238.9384
12:44:01.222,-178.2507,-257.8135
12:44:01.225,-189.1257,-278.6261
12:44:01.228,-202.1883,-299.1887
12:44:01.263,-215.6258,-314.3762
12:44:01.329,-225.6884,-327.3763
12:44:01.330,-234.8134,-336.0638
12:44:01.333,-242.3134,-341.4388
12:44:01.333,-247.1884,-343.1263
12:44:01.333,-248.9384,-339.1888
12:44:01.337,-248.9384,-333.3138
12:44:01.360,-246.4384,-326.1887
12:44:01.363,-242.8134,-314.0637
12:44:01.369,-234.0009,-299.5012
12:44:01.376,-220.7508,-277.4385
12:44:01.387,-204.1258,-253.626
12:44:01.396,-185.1257,-225.2509
12:44:01.412,-163.8131,-197.1257
12:44:01.422,-141.313,-166.5006
12:44:01.433,-117.1254,-136.1255
12:44:01.466,-95.5629,-105.6879
12:44:01.468,-74.5628,-81.1253
12:44:01.485,-58.1252,-59.5002
12:44:01.500,-44.1877,-42.0627
12:44:01.502,-38.3751,-33.7501
12:44:01.507,-50.0002,-49.3127
12:44:01.509,-161.8756,-262.8135
12:44:01.512,-154.8131,-285.8761
12:44:01.524,-145.563,-305.1262
12:44:01.531,-140.5005,-320.5637
12:44:01.541,-133.188,-321.1887
12:44:01.551,-133.6255,-319.7512
12:44:01.564,-142.1255,-327.6888
12:44:01.572,-162.3131,-348.9388
12:44:01.582,-173.9382,-359.0639
12:44:01.591,-185.1882,-366.1264
12:44:01.605,-194.8757,-368.9389
12:44:01.612,-200.5633,-368.7514
12:44:01.624,-209.5008,-366.2514
12:44:01.633,-219.3133,-364.8139
12:44:01.642,-229.4384,-360.8139
12:44:01.653,-238.9384,-359.0014
12:44:01.662,-246.0634,-350.6888
12:44:01.674,-249.5009,-341.7513
12:44:01.681,-249.0634,-325.1887
12:44:01.692,-236.6259,-295.6886
12:44:01.702,-215.2508,-257.251
12:44:01.711,-192.0632,-214.0008
12:44:01.725,-168.9381,-172.1257
12:44:01.731,-142.813,-127.8755
12:44:01.742,-112.6254,-83.4378
12:44:01.752,-80.8753,-36.6876
12:44:01.762,-50.0002,4.375
12:44:01.772,-23.1876,39.5002
12:44:01.782,-7.0625,63.8127
12:44:01.792,-2.9375,68.6253
12:44:01.802,-21.8751,47.5627
12:44:01.812,-54.5002,4.625
12:44:01.825,-77.6878,-29.7501
12:44:01.832,-99.3129,-72.8128
12:44:01.843,-103.3754,-108.1254
12:44:01.858,-109.3754,-143.688
12:44:01.862,-119.313,-178.5007
12:44:01.873,-125.313,-203.6883
12:44:01.881,-128.063,-221.9384
12:44:01.892,-126.7505,-229.0009
