timestamp,Red,IR
12:50:38.411,9.5625,43.6877
12:50:38.420,7.875,43.3752
12:50:38.429,7.2188,41.1877
12:50:38.441,6.6563,39.8127
12:50:38.451,6.375,38.3751
12:50:38.461,7.2188,38.2501
12:50:38.470,6.625,36.9376
12:50:38.481,5.6563,35.5001
12:50:38.491,4.5625,33.5001
12:50:38.503,3.6875,31.0001
12:50:38.512,2.25,29.4376
12:50:38.519,2.9063,26.8751
12:50:38.529,3.6563,26.4376
12:50:38.541,4.75,25.4376
12:50:38.549,5.5,25.0626
12:50:38.561,5.3125,23.4376
12:50:38.571,5.6875,24.0001
12:50:38.579,5.7188,23.0626
12:50:38.591,4.8125,21.8126
12:50:38.600,5.0313,22.6251
12:50:38.609,5.4375,22.6876
12:50:38.621,7.125,24.4376
12:50:38.631,7.1563,24.2501
12:50:38.639,8.75,26.0001
12:50:38.660,8.9688,24.5626
12:50:38.663,8.0938,22.7501
12:50:38.698,7.6563,21.9376
12:50:38.701,7.125,19.0001
12:50:38.703,5.5313,16.4376
12:50:38.705,4.3438,15.3126
12:50:38.710,3.625,12.125
12:50:38.742,3.5,10.5625
12:50:38.743,4.4375,9.8125
12:50:38.746,4.1875,8.1875
12:50:38.772,2.625,6.25
12:50:38.773,1.4063,2.75
12:50:38.778,-1.1563,-1.4375
12:50:38.812,-4.125,-4.25
12:50:38.815,-6.2188,-8.375
12:50:38.815,-8.0625,-12.125
12:50:38.842,-9.9063,-14.8751
12:50:38.858,-10.7188,-15.8126
12:50:38.861,-10.5938,-18.4376
12:50:38.879,-10.5,-19.8126
12:50:38.892,-10.6875,-20.8126
12:50:38.906,-10.9063,-20.7501
12:50:38.910,-11.1875,-24.0001
12:50:38.925,-12.4688,-25.9376
12:50:38.938,-11.875,-25.6251
12:50:38.942,-10.9375,-26.5001
12:50:38.942,-11.125,-27.3126
12:50:38.944,-10.6875,-26.2501
12:50:38.946,-9.3438,-27.1876
12:50:38.956,-8.4688,-27.8751
12:50:38.966,-8.875,-27.8751
12:50:38.976,-11.0625,-30.5001
12:50:38.985,-15.7501,-37.5626
12:50:38.997,-18.8126,-39.9377
12:50:39.004,-20.9063,-42.3127
12:50:39.015,-21.7188,-44.0002
12:50:39.026,-21.4376,-44.3752
12:50:39.034,-20.3751,-44.3752
12:50:39.045,-19.5626,-43.5002
12:50:39.055,-17.0313,-42.1252
12:50:39.064,-15.3438,-42.5002
12:50:39.076,-15.4688,-42.8127
12:50:39.085,-15.6876,-44.0627
12:50:39.094,-17.5313,-46.8752
12:50:39.105,-16.6563,-43.8752
12:50:39.118,-10.7188,-33.5001
12:50:39.125,-2.5625,-17.6876
12:50:39.134,5.9063,-0.4375
12:50:39.145,12.4375,16.5001
12:50:39.154,17.5626,28.1251
12:50:39.164,20.9063,38.7501
12:50:39.180,21.9688,45.0627
12:50:39.192,21.3438,46.6877
12:50:39.202,19.8751,46.5627
12:50:39.211,17.1876,46.6877
12:50:39.222,16.5001,44.5627
12:50:39.230,15.5938,43.3752
12:50:39.241,15.0313,42.9377
12:50:39.251,16.0626,41.7502
12:50:39.260,16.3438,42.1877
12:50:39.272,16.4376,40.3752
12:50:39.281,16.1251,40.0002
12:50:39.291,15.1251,38.8126
12:50:39.300,14.6251,37.0001
12:50:39.309,13.4688,36.0001
12:50:39.321,12.9375,33.1876
12:50:39.331,11.2813,29.8751
12:50:39.340,7.9688,24.8126
12:50:39.351,6.8438,21.8751
12:50:39.361,4.5313,19.7501
12:50:39.370,2.7813,16.3751
12:50:39.381,0.625,13
12:50:39.397,0.4063,10.875
12:50:39.401,-0.7188,11.3125
12:50:39.433,-0.3125,11.0625
12:50:39.436,0.4688,10.875
12:50:39.441,1.6563,13.0625
12:50:39.445,2.6563,13.3751
12:50:39.478,4.1875,15.3126
12:50:39.482,6.7813,16.6876
12:50:39.486,6.9688,16.8126
12:50:39.489,6.5,16.8751
12:50:39.489,5.2188,15.9376
12:50:39.502,2.5625,12
12:50:39.530,-3.3438,6.875
12:50:39.533,-8.0625,2.8125
12:50:39.535,-11.25,-2.6875
12:50:39.551,-14.2188,-6.375
12:50:39.556,-15.8438,-8.875
12:50:39.563,-16.9063,-11.0625
12:50:39.571,-17.6251,-12.125
12:50:39.580,-19.5626,-13.2501
12:50:39.597,-21.4063,-16.7501
12:50:39.601,-24.5626,-21.5626
12:50:39.612,-27.8126,-25.1251
12:50:39.620,-29.8126,-27.0001
12:50:39.631,-30.0939,-28.3751
12:50:39.640,-29.1876,-29.0001
12:50:39.651,-28.4376,-30.5626
12:50:39.660,-27.9064,-30.6876
12:50:39.671,-27.3751,-30.7501
12:50:39.682,-26.2501,-30.7501
12:50:39.690,-25.3751,-31.4376
12:50:39.701,-24.6251,-30.8126
12:50:39.711,-22.9688,-30.6251
12:50:39.721,-20.8126,-30.0626
12:50:39.729,-19.0313,-28.7501
12:50:39.741,-18.4376,-30.1251
12:50:39.749,-19.1251,-31.5001
12:50:39.761,-20.5313,-33.0001
12:50:39.770,-22.3751,-35.5626
12:50:39.781,-24.2813,-38.1251
12:50:39.791,-24.5313,-38.4376
12:50:39.801,-25.0626,-40.1252
12:50:39.811,-23.5626,-39.2502
12:50:39.821,-20.9063,-37.6251
12:50:39.832,-18.0313,-35.4376
12:50:39.841,-15.0001,-33.0001
12:50:39.849,-13.8438,-31.9376
12:50:39.862,-13.1563,-32.5001
12:50:39.873,-14.9063,-34.1876
12:50:39.881,-17.5313,-37.3126
12:50:39.893,-18.0313,-39.3126
12:50:39.901,-16.7188,-38.6876
12:50:39.910,-12.0625,-31.6876
12:50:39.922,-4.3438,-18.5001
12:50:39.931,4.25,-1.5
12:50:39.942,12.75,16.0001
12:50:39.950,18.6563,30.6876
12:50:39.961,22.2501,40.3752
12:50:39.973,22.6563,47.3752
12:50:39.981,23.1563,50.0002
12:50:39.990,21.3126,52.3752
12:50:40.001,19.8751,50.8752
12:50:40.011,18.5313,49.3752
12:50:40.019,16.1251,47.5002
12:50:40.030,14.2813,45.0627
12:50:40.041,11.7188,41.9377
12:50:40.049,9.8438,38.6876
12:50:40.061,6.75,35.6876
12:50:40.072,5.0313,33.0626
12:50:40.081,2.3438,30.1251
12:50:40.090,0.6563,27.6876
12:50:40.101,-2,24.6876
12:50:40.111,-2.8125,22.3751
12:50:40.140,-5.0313,19.3751
12:50:40.142,-5.1875,17.7501
12:50:40.145,-5.9375,16.0001
12:50:40.151,-6.625,12.75
12:50:40.177,-7.75,10.75
12:50:40.217,-9.3125,9.25
12:50:40.300,-9.625,7.3125
12:50:40.319,-11.4688,4.8125
12:50:40.332,-12.6563,4.8125
12:50:40.332,-12.5625,3.9375
12:50:40.332,-11.9375,3.3125
12:50:40.332,-10.625,6.125
12:50:40.363,-7.7813,6.9375
12:50:40.365,-6.8125,7.375
12:50:40.365,-6.5313,8.375
12:50:40.365,-6.125,7.875
12:50:40.367,-7.4063,5.6875
12:50:40.373,-8,4.375
12:50:40.380,-8.5313,1.875
12:50:40.391,-9.0625,1.75
12:50:40.400,-7.8125,2.0625
12:50:40.409,-7.375,0.9375
12:50:40.422,-6.8438,-0.3125
12:50:40.431,-8.125,-3.125
12:50:40.440,-9.125,-5.4375
12:50:40.451,-10.0313,-7.625
12:50:40.461,-10.0313,-8.1875
12:50:40.472,-14.9063,-17.4376
12:50:40.480,-16.5313,-20.3126
12:50:40.491,-16.6876,-22.8751
12:50:40.499,-17.1563,-23.5001
12:50:40.512,-16.8126,-24.1876
12:50:40.521,-18.2188,-31.5626
12:50:40.530,-18.3438,-31.3751
12:50:40.541,-18.5938,-33.8751
12:50:40.551,-18.8438,-34.3751
12:50:40.561,-17.7188,-34.1251
12:50:40.571,-18.1876,-35.6876
12:50:40.581,-18.0938,-35.8751
12:50:40.592,-19.5938,-38.2501
12:50:40.601,-21.5626,-41.1877
12:50:40.609,-24.8126,-43.8127
12:50:40.623,-26.9064,-46.7502
12:50:40.631,-29.2189,-47.9377
12:50:40.641,-29.4689,-49.8752
12:50:40.651,-29.3439,-50.9377
12:50:40.661,-28.6876,-51.1877
12:50:40.671,-29.5001,-51.6877
12:50:40.680,-29.9064,-52.6877
12:50:40.691,-30.1564,-54.9377
12:50:40.700,-31.5939,-56.6252
12:50:40.711,-31.6564,-55.3127
12:50:40.728,-28.3751,-54.0002
12:50:40.732,-23.6251,-44.2502
12:50:40.741,-15.0001,-29.8751
12:50:40.751,-6.4063,-11.1875
12:50:40.761,2.75,5.6875
12:50:40.770,11.125,21.4376
12:50:40.781,16.7813,34.3126
12:50:40.789,21.7813,43.0627
12:50:40.824,24.3126,49.7502
12:50:40.826,24.5938,51.1877
12:50:40.829,23.3126,52.5627
12:50:40.833,20.5313,50.3127
12:50:40.843,18.3751,48.7502
12:50:40.852,16.7813,46.5002
12:50:40.860,15.0001,45.1877
12:50:40.872,14.9376,43.9377
12:50:40.881,15.5313,44.7502
12:50:40.892,15.2813,45.5002
12:50:40.925,15.3438,44.0002
12:50:40.926,14.9376,43.3127
12:50:40.928,13.6876,42.1252
12:50:40.931,13.2501,41.3127
12:50:40.963,11.8125,39.0626
12:50:40.965,10.7188,36.5626
12:50:40.970,8.25,33.1876
12:50:40.974,6.7813,30.1876
12:50:41.002,6.0625,27.6251
12:50:41.004,5.3125,25.6251
12:50:41.006,4.875,24.7501
12:50:41.011,4.5938,23.9376
12:50:41.050,4.0938,23.9376
12:50:41.054,4.2188,23.5626
12:50:41.056,3.6563,24.3751
12:50:41.060,3.875,23.8751
12:50:41.061,3.7188,23.6876
12:50:41.083,3.6563,23.6876
12:50:41.086,3.875,24.1876
12:50:41.092,5.5938,25.0001
12:50:41.105,6.9063,24.6876
12:50:41.111,7.125,25.0626
12:50:41.121,7.75,24.8126
12:50:41.130,7.9375,23.8126
12:50:41.142,6.4063,20.6876
12:50:41.151,4.7188,18.9376
12:50:41.161,3.4375,16.8751
12:50:41.171,3.5625,15.5626
12:50:41.182,4.0938,14.0001
12:50:41.191,5.125,13.3751
12:50:41.203,5.2188,13.1876
12:50:41.210,4.4375,10.1875
12:50:41.221,1.6875,6.125
12:50:41.231,-1.0938,2.1875
12:50:41.241,-3.4063,0.25
12:50:41.251,-3.9375,-0.6875
12:50:41.261,-4.625,-3.0625
12:50:41.271,-4.4375,-4.25
12:50:41.282,-4.5,-3.8125
12:50:41.293,-3.1875,-5.125
12:50:41.301,-3.1563,-6.125
12:50:41.311,-3.2813,-7.4375
12:50:41.321,-4.0938,-8.125
12:50:41.331,-4.9063,-10.375
12:50:41.341,-5.5,-12.1875
12:50:41.351,-5.5313,-12.9375
12:50:41.361,-4.9375,-11.625
12:50:41.371,-3.5938,-13.2501
12:50:41.381,-2.0938,-13.2501
12:50:41.391,-1.625,-12.5
12:50:41.401,-1.2813,-12.9375
12:50:41.410,-2.2188,-13.7501
12:50:41.420,-2.375,-15.0001
12:50:41.432,-2.9375,-16.8751
12:50:41.441,-3.5938,-18.6876
12:50:41.451,-5.375,-20.6251
12:50:41.461,-5.6875,-22.6251
12:50:41.471,-6.0625,-23.0001
12:50:41.480,-5.6563,-24.3751
12:50:41.491,-5.4063,-24.7501
12:50:41.501,-5.3438,-23.9376
12:50:41.511,-4.8125,-25.6251
12:50:41.521,-5.25,-25.4376
12:50:41.533,-5.5313,-28.6876
12:50:41.541,-8.0313,-30.5626
12:50:41.552,-10.375,-34.6251
12:50:41.583,-12.8438,-37.2501
12:50:41.658,-13.0625,-37.6876
12:50:41.661,-10.3438,-31.8126
12:50:41.663,-2.2188,-19.8126
12:50:41.666,6.125,-1.25
12:50:41.668,14.0001,15.0626
12:50:41.705,20.2188,31.6251
12:50:41.705,25.6876,42.4377
12:50:41.705,27.8439,49.8127
12:50:41.708,27.3751,54.9377
12:50:41.730,25.6563,54.5002
12:50:41.731,23.3438,55.0002
12:50:41.731,21.8438,53.0627
12:50:41.733,20.3438,52.6877
12:50:41.738,18.6563,49.7502
12:50:41.746,17.4688,49.4377
12:50:41.755,16.5938,46.6877
12:50:41.767,16.0626,46.3127
12:50:41.776,14.9063,45.5627
12:50:41.786,13.6563,43.6252
12:50:41.796,12.25,42.4377
12:50:41.806,11.5938,42.1252
12:50:41.816,10.4375,40.5002
12:50:41.826,10.625,38.3751
12:50:41.836,14.8126,37.8126
12:50:41.845,15.2813,37.4376
12:50:41.857,15.4376,37.4376
12:50:41.866,15.9063,37.6876
12:50:41.875,18.0313,37.8751
12:50:41.885,19.3126,38.0626
12:50:41.896,20.7501,39.7502
12:50:41.906,23.0938,42.4377
12:50:41.916,24.8126,42.8127
12:50:41.926,26.0626,44.5002
12:50:41.936,27.1876,44.2502
12:50:41.946,25.6876,41.8752
12:50:41.956,22.8126,39.5002
12:50:41.966,19.9376,37.0001
12:50:41.977,17.7188,32.5001
12:50:41.986,13.4376,28.0001
12:50:41.996,10.4375,23.5626
12:50:42.006,8.8438,21.0001
12:50:42.016,8.4063,18.2501
12:50:42.026,8.4375,16.5626
12:50:42.035,7.375,14.3126
12:50:42.046,6.4063,12.4375
12:50:42.056,5.3125,10.0625
12:50:42.066,3.4375,6.5625
12:50:42.076,1.0938,2.6875
12:50:42.104,-2.2188,0.0625
12:50:42.105,-3.9375,-3.5625
12:50:42.109,-5.6563,-7.1875
12:50:42.116,-7.9688,-10
12:50:42.125,-8.4375,-11.1875
12:50:42.137,-8.5625,-13.1251
12:50:42.147,-8,-14.6876
12:50:42.156,-9.1563,-16.6876
12:50:42.168,-10.6563,-17.6251
12:50:42.176,-12.875,-22.0001
12:50:42.186,-15.9688,-26.5626
12:50:42.195,-18.3126,-29.0001
12:50:42.206,-20.0001,-32.5626
12:50:42.216,-20.9063,-35.9376
12:50:42.229,-21.5313,-36.2501
12:50:42.236,-20.9688,-36.5001
12:50:42.246,-20.0938,-37.8751
12:50:42.256,-20.7501,-37.8751
12:50:42.266,-21.2188,-39.1877
12:50:42.298,-20.4063,-39.4377
12:50:42.301,-20.3126,-39.7502
12:50:42.304,-19.9063,-39.9377
12:50:42.306,-20.5626,-41.0627
12:50:42.343,-20.5938,-41.4377
12:50:42.344,-21.5313,-42.5627
12:50:42.348,-22.3438,-43.9377
12:50:42.353,-22.9688,-45.6252
12:50:42.357,-23.1563,-45.4377
12:50:42.389,-22.3126,-46.0627
12:50:42.392,-20.4376,-44.6877
12:50:42.396,-19.1876,-44.2502
12:50:42.396,-18.1563,-43.8752
12:50:42.425,-17.9063,-44.1877
12:50:42.428,-17.9688,-46.0002
12:50:42.430,-18.8438,-45.7502
12:50:42.436,-18.4688,-47.0627
12:50:42.461,-15.2501,-41.9377
12:50:42.463,-8.125,-30.8126
12:50:42.468,1.625,-12.875
12:50:42.476,10.6875,6.6875
12:50:42.486,19.3438,23.1251
12:50:42.496,26.6251,37.6251
12:50:42.506,31.4064,48.3752
12:50:42.515,34.1564,55.3127
12:50:42.527,35.9376,60.4377
12:50:42.536,35.5626,61.7502
12:50:42.546,36.0626,61.8127
12:50:42.556,35.4064,61.7502
12:50:42.566,35.2814,60.7502
12:50:42.576,34.1251,60.0002
12:50:42.586,33.4376,58.3752
12:50:42.598,33.0939,57.3752
12:50:42.611,30.3751,56.0627
12:50:42.615,29.0314,53.5627
12:50:42.626,27.3439,52.0002
12:50:42.636,26.5939,49.8127
12:50:42.646,26.3439,48.2502
12:50:42.656,25.4063,46.4377
12:50:42.666,24.3438,43.1877
12:50:42.675,23.7813,42.1877
12:50:42.686,24.9688,39.8752
12:50:42.696,25.1876,37.9376
12:50:42.706,24.9063,36.8751
12:50:42.718,24.9688,36.8126
12:50:42.727,24.9376,35.3126
12:50:42.737,24.4063,33.6876
12:50:42.747,23.5313,31.6251
12:50:42.755,21.2813,29.8126
12:50:42.766,18.8126,27.2501
12:50:42.776,17.0313,25.1251
12:50:42.786,16.6563,23.5001
12:50:42.796,15.9376,21.6251
12:50:42.806,16.2501,21.6876
12:50:42.816,16.0001,22.6251
12:50:42.826,16.9063,21.1251
12:50:42.836,16.2813,19.1876
12:50:42.848,15.3438,18.6876
12:50:42.856,14.9688,16.5001
12:50:42.866,15.1563,14.5626
12:50:42.876,14.4376,12.125
12:50:42.893,14.7501,12.3125
12:50:42.900,15.0313,11.125
12:50:42.909,15.2501,10
12:50:42.937,14.2813,7.9375
12:50:42.939,12.5313,5.375
12:50:42.956,9.8125,1.9375
12:50:42.959,6.8125,-1.125
12:50:42.961,4.0938,-5.75
12:50:42.966,1.375,-9.3125
12:50:42.976,-0.6563,-11.5625
12:50:42.987,-1.125,-13.6251
12:50:42.996,-1.5938,-15.6251
12:50:43.006,-2.2813,-18.1251
12:50:43.016,-2.6875,-19.2501
12:50:43.025,-3.4063,-20.5626
12:50:43.036,-5.7188,-23.5001
12:50:43.058,-8,-27.5001
12:50:43.060,-10,-30.4376
12:50:43.093,-11.625,-31.5001
12:50:43.094,-12.625,-33.8751
12:50:43.097,-12.6563,-34.8751
12:50:43.099,-13.1563,-36.3126
12:50:43.136,-13.1875,-36.5001
12:50:43.137,-12.5938,-37.1251
12:50:43.140,-14.0313,-39.8127
12:50:43.149,-15.1563,-41.0627
12:50:43.149,-18.0626,-43.1877
12:50:43.161,-20.4688,-46.8127
12:50:43.166,-26.4689,-51.8127
12:50:43.195,-32.4689,-57.0627
12:50:43.196,-37.7501,-62.4377
12:50:43.199,-41.8752,-67.3128
12:50:43.232,-44.5627,-69.5003
12:50:43.233,-45.9689,-71.0003
12:50:43.235,-45.5627,-71.6253
12:50:43.242,-43.5627,-70.8753
12:50:43.247,-42.0627,-70.2503
12:50:43.257,-39.0627,-67.8753
12:50:43.266,-38.2189,-66.1253
12:50:43.277,-36.4064,-66.6878
12:50:43.286,-34.2814,-65.1877
12:50:43.319,-33.4376,-64.6877
12:50:43.321,-29.8126,-61.3752
12:50:43.323,-24.0313,-52.8752
12:50:43.332,-16.8126,-39.0626
12:50:43.343,-7.6875,-21.9376
12:50:43.352,0.5,-5.5
12:50:43.384,8.1563,9.1875
12:50:43.385,12.8125,20.6251
12:50:43.387,16.5001,26.6251
12:50:43.395,17.3438,30.5001
12:50:43.401,14.9063,29.5001
12:50:43.411,12.1875,27.9376
12:50:43.421,9.0313,25.6251
12:50:43.433,7.2813,21.9376
12:50:43.443,6.4063,21.1251
12:50:43.451,6.5938,19.0626
12:50:43.461,6.625,18.8126
12:50:43.472,5.875,17.1876
12:50:43.481,5.2188,15.1876
12:50:43.491,3.5313,14.0626
12:50:43.501,2.2813,11.1875
12:50:43.512,-0.3125,9
12:50:43.521,-2.125,6.125
12:50:43.531,-4,3
12:50:43.541,-5.4063,1.625
12:50:43.553,-5.6875,-0.5
12:50:43.561,-6.7813,-2.1875
12:50:43.571,-8,-4.6875
12:50:43.581,-8.4688,-6.875
12:50:43.591,-9.8438,-6.75
12:50:43.601,-10.3125,-9.6875
12:50:43.611,-11.8438,-10.3125
12:50:43.620,-12.4688,-11
12:50:43.631,-11.0625,-12
12:50:43.641,-9.5313,-9.6875
12:50:43.651,-8.6875,-9.3125
12:50:43.661,-8.2813,-8.625
12:50:43.671,-7.3125,-8.4375
12:50:43.681,-7.75,-8.5
12:50:43.691,-7.75,-9.125
12:50:43.702,-7.5,-9.8125
12:50:43.711,-7.0313,-9.5625
12:50:43.721,-7,-10.1875
12:50:43.731,-6.6563,-11.8125
12:50:43.743,-6.7188,-12.3125
12:50:43.751,-6.6563,-13.3126
12:50:43.761,-6.4688,-13.9376
12:50:43.771,-6.6875,-15.5001
12:50:43.781,-6.125,-16.0626
12:50:43.791,-6.4063,-15.8126
12:50:43.802,-6.0313,-17.0001
12:50:43.812,-5.6875,-19.0001
12:50:43.827,-4.8438,-18.1876
12:50:43.833,-5.0313,-20.3126
12:50:43.873,-6.2188,-21.6876
12:50:43.876,-9.0938,-23.8126
12:50:43.878,-10.75,-27.6251
12:50:43.882,-11.4688,-29.3126
12:50:43.886,-11.6875,-30.5001
12:50:43.891,-10.6875,-30.1251
12:50:43.920,-9.8125,-29.5001
12:50:43.923,-8.25,-29.8126
12:50:43.925,-8.0313,-29.5626
12:50:43.932,-7.8438,-30.5001
12:50:43.958,-9.3125,-31.8751
12:50:43.960,-10.9063,-33.5001
12:50:43.964,-12.375,-36.3751
12:50:43.994,-12.5313,-37.2501
12:50:43.996,-14.5313,-38.5626
12:50:43.998,-14.4376,-39.4377
12:50:44.007,-13.0313,-38.6876
12:50:44.011,-11.9063,-36.6876
12:50:44.021,-9.9375,-37.1876
12:50:44.032,-10.4375,-36.5001
12:50:44.042,-10.8125,-37.8751
12:50:44.051,-11.1563,-38.0001
12:50:44.061,-10.8125,-39.3127
12:50:44.071,-10.3125,-39.8127
12:50:44.082,-10,-39.5002
12:50:44.091,-8.25,-39.5002
12:50:44.100,-6.4375,-37.5626
12:50:44.119,-4.5,-37.8126
12:50:44.123,-2.2188,-35.6876
12:50:44.131,2.0313,-31.1251
12:50:44.141,10,-22.4376
12:50:44.151,20.3438,-6.625
12:50:44.161,28.9689,7.5
12:50:44.171,36.3751,21.6251
12:50:44.181,38.9376,32.4376
12:50:44.191,39.5939,37.5001
12:50:44.201,38.3439,40.1877
12:50:44.217,36.0314,39.6252
12:50:44.234,34.0626,37.6251
12:50:44.235,31.0626,35.5626
12:50:44.250,28.4689,32.1251
12:50:44.252,28.6876,30.4376
12:50:44.267,28.5626,28.2501
12:50:44.274,27.4064,27.3751
12:50:44.281,25.8126,23.7501
12:50:44.291,23.3126,21.0001
12:50:44.300,20.1251,17.3126
12:50:44.311,16.5313,13.5626
12:50:44.321,15.1251,10.75
12:50:44.331,12.2813,7.375
12:50:44.341,9.8438,4.0625
12:50:44.350,9.5625,2.875
12:50:44.361,8.7813,0.3125
12:50:44.371,8.9063,-1
12:50:44.381,8.3125,-2
12:50:44.391,9.1563,-3.6875
12:50:44.403,8.9688,-4.75
12:50:44.411,8.8438,-6.125
12:50:44.421,8.8125,-6
12:50:44.431,9.625,-5.75
12:50:44.441,9.9688,-6.625
12:50:44.451,10.0625,-4.75
12:50:44.461,11.8125,-4.4375
12:50:44.472,12.1875,-4.6875
12:50:44.509,11.9063,-4.75
12:50:44.510,11.7188,-4.9375
12:50:44.512,12.5938,-5
12:50:44.515,12.25,-5.875
12:50:44.524,12.3438,-6.5625
12:50:44.531,10.5625,-8.0625
12:50:44.569,9.5625,-10.8125
12:50:44.571,6.3125,-14.1251
12:50:44.573,3.9688,-17.9376
12:50:44.576,1.25,-22.0001
12:50:44.582,-1.6563,-23.1876
12:50:44.614,-2.5313,-26.3751
12:50:44.616,-3.5313,-29.0626
12:50:44.651,-3.8438,-29.1876
12:50:44.652,-2.5625,-30.3126
12:50:44.653,-3.3125,-30.8126
12:50:44.655,-3.7813,-31.1876
12:50:44.682,-4.9063,-34.2501
12:50:44.682,-7.375,-36.7501
12:50:44.682,-8.7813,-38.3751
12:50:44.685,-10.0938,-39.8752
12:50:44.692,-10.1563,-39.9377
12:50:44.704,-9.0313,-40.9377
12:50:44.712,-8.375,-40.3752
12:50:44.721,-7.1875,-39.6877
12:50:44.731,-5.9375,-38.3126
12:50:44.741,-5.25,-38.0626
12:50:44.751,-5.0313,-39.0001
12:50:44.762,-5.9063,-40.8752
12:50:44.770,-7.8438,-43.0002
12:50:44.781,-8,-43.3127
12:50:44.791,-8.8125,-45.0002
12:50:44.801,-9.25,-45.3127
12:50:44.811,-9.25,-46.3127
12:50:44.821,-8.4375,-46.5002
12:50:44.831,-8.0313,-46.5002
12:50:44.841,-6.5,-45.6877
12:50:44.852,-6.7813,-45.5002
12:50:44.861,-8.0625,-46.8752
12:50:44.872,-10.0938,-49.5002
12:50:44.881,-12.125,-50.7502
12:50:44.891,-14.4376,-54.0002
12:50:44.901,-16.5626,-56.0627
12:50:44.911,-18.5313,-56.9377
12:50:44.921,-18.3751,-58.3127
12:50:44.930,-16.9376,-58.0627
12:50:44.941,-16.2813,-57.0002
12:50:44.951,-13.8751,-56.0002
12:50:44.961,-12.2188,-54.2502
12:50:44.971,-9.0938,-51.1252
12:50:44.981,-4.5,-42.6877
12:50:44.992,2.4688,-30.8126
12:50:45.002,10.5,-15.0626
12:50:45.011,16.1251,-0.3125
12:50:45.021,21.4376,10.375
12:50:45.031,23.8751,19.1876
12:50:45.041,25.9063,23.6251
12:50:45.058,25.0001,27.6251
12:50:45.063,24.2188,25.8751
12:50:45.072,22.6876,26.3751
12:50:45.081,20.9376,23.7501
12:50:45.091,19.3751,21.8126
12:50:45.101,18.6251,19.8126
12:50:45.111,18.3438,18.0626
12:50:45.121,17.6251,17.1876
12:50:45.131,17.0313,14.2501
12:50:45.141,16.0313,14.1876
12:50:45.151,15.9063,12.6875
12:50:45.161,14.7501,10.3125
12:50:45.171,14.0001,9.125
12:50:45.181,13.8126,8
12:50:45.191,12.1563,5.9375
12:50:45.202,10.4375,4.625
12:50:45.211,9.4688,1.8125
12:50:45.221,7.7188,-1.375
12:50:45.231,4.9688,-4
12:50:45.242,3.4375,-6.25
12:50:45.251,2.4375,-8.5
12:50:45.261,2.125,-9.4375
12:50:45.280,2.0625,-8.9375
12:50:45.283,3.0938,-8.75
12:50:45.312,4.8125,-7.25
12:50:45.313,6.4688,-5.8125
12:50:45.316,7.4688,-5.75
12:50:45.323,7.3438,-6.125
12:50:45.360,7.2188,-5.875
12:50:45.361,6.3438,-5.9375
12:50:45.363,6.375,-7.3125
12:50:45.367,5.625,-7.9375
12:50:45.373,6.375,-9
12:50:45.408,6.6875,-8.3125
12:50:45.410,7.0625,-9
12:50:45.412,6,-10.25
12:50:45.414,6.5313,-11.25
12:50:45.421,5.5313,-12.6875
12:50:45.450,4.3125,-14.6876
12:50:45.453,2,-16.4376
12:50:45.455,-0.1563,-19.5626
12:50:45.463,-2.5938,-22.1251
12:50:45.471,-3.5625,-23.9376
12:50:45.481,-5.3125,-25.5001
12:50:45.491,-5.6875,-27.3126
12:50:45.514,-5.0938,-27.5626
12:50:45.520,-5.25,-28.6876
12:50:45.522,-5.3125,-29.6251
12:50:45.534,-6.2188,-30.5626
12:50:45.548,-7.0625,-32.1876
12:50:45.562,-7.4063,-33.4376
12:50:45.563,-8.9688,-35.1876
12:50:45.578,-9.9063,-37.0001
12:50:45.582,-12.2188,-38.3751
12:50:45.590,-13.4688,-40.7502
12:50:45.601,-13.5313,-41.1877
12:50:45.611,-14.5626,-43.5002
12:50:45.621,-13.4063,-42.9377
12:50:45.632,-13.9063,-42.0002
12:50:45.641,-13.3126,-42.9377
12:50:45.651,-12.1875,-42.9377
12:50:45.661,-12.1875,-42.5627
12:50:45.671,-12.4375,-45.1252
12:50:45.681,-14.1251,-45.5627
12:50:45.691,-16.0313,-47.1252
12:50:45.701,-16.8751,-49.8127
12:50:45.711,-19.0938,-51.1252
12:50:45.720,-19.5938,-52.5002
12:50:45.731,-20.4688,-52.1877
12:50:45.740,-19.9688,-53.7502
12:50:45.752,-18.9376,-53.1877
12:50:45.761,-19.2188,-53.4377
12:50:45.773,-18.2813,-53.3127
12:50:45.781,-19.2813,-53.9377
12:50:45.792,-19.5313,-55.1877
12:50:45.801,-20.3438,-56.0002
12:50:45.811,-20.4688,-57.5627
12:50:45.821,-19.4063,-55.6252
12:50:45.831,-17.6876,-50.8127
12:50:45.847,-11.9688,-43.3127
12:50:45.853,-3.7813,-29.1876
12:50:45.863,2.5,-14.1876
12:50:45.871,10.0625,-0.0625
12:50:45.880,16.1251,11.875
12:50:45.891,19.0626,20.5001
12:50:45.901,20.8438,24.7501
12:50:45.911,20.4063,26.8126
12:50:45.941,19.8126,27.6876
12:50:45.943,18.0001,24.8751
12:50:45.947,15.3751,23.3126
12:50:45.954,13.0938,18.8751
12:50:45.961,11.125,17.0001
12:50:45.971,10.7188,14.6251
12:50:45.981,9.625,13.8126
12:50:45.996,9.625,11.75
12:50:46.002,8.6875,11.375
12:50:46.033,8.3125,8.9375
12:50:46.035,7.6875,7.5
12:50:46.037,6.9688,7.1875
12:50:46.042,6.1875,4.875
12:50:46.072,4.875,3.3125
12:50:46.075,4.9375,1
12:50:46.077,3.625,-0.9375
12:50:46.084,2.875,-1.8125
12:50:46.113,2.5,-4.125
12:50:46.114,1.8125,-5.5
12:50:46.116,1.7813,-6.5625
12:50:46.144,0.125,-7.5
12:50:46.145,-1.4375,-9.1875
12:50:46.148,-3.125,-10.6875
12:50:46.153,-2.9063,-10.875
12:50:46.169,-2.125,-11.125
12:50:46.173,-1.0938,-8.6875
12:50:46.182,-0.1875,-8.875
12:50:46.191,0.2188,-8.125
12:50:46.201,0.4375,-9.0625
12:50:46.211,1.4688,-8.9375
12:50:46.223,2.0938,-9.1875
12:50:46.231,0.7813,-10.1875
12:50:46.241,-1.625,-12.875
12:50:46.251,-2.7813,-15.3126
12:50:46.261,-4.6875,-17.6876
12:50:46.271,-3.5625,-17.8751
12:50:46.281,-3.8125,-18.8126
12:50:46.291,-3.1563,-19.6876
12:50:46.301,-4,-20.1876
12:50:46.311,-3.75,-22.2501
12:50:46.321,-4.0625,-22.0626
12:50:46.331,-4.9063,-24.6876
12:50:46.341,-5.5938,-26.0626
12:50:46.351,-6.6563,-26.3126
12:50:46.361,-7.375,-29.1251
12:50:46.371,-8.6875,-30.1876
12:50:46.381,-9.8125,-32.9376
12:50:46.391,-10.75,-33.5001
12:50:46.401,-12.2813,-35.6876
12:50:46.411,-12.5625,-37.3126
12:50:46.421,-13.8438,-37.9376
12:50:46.431,-14.0938,-39.5627
12:50:46.441,-14.5626,-40.0627
12:50:46.451,-15.5001,-39.6252
12:50:46.461,-14.5938,-41.5627
12:50:46.471,-13.9688,-41.3127
12:50:46.481,-14.5313,-42.0002
12:50:46.491,-15.0626,-43.1877
12:50:46.501,-15.2188,-42.8127
12:50:46.513,-14.6876,-41.6877
12:50:46.522,-14.5626,-43.8752
12:50:46.531,-15.1563,-43.7502
12:50:46.541,-16.1563,-44.6877
12:50:46.552,-16.5313,-46.3752
12:50:46.561,-15.7501,-46.3752
12:50:46.571,-16.9688,-47.3752
12:50:46.581,-16.6876,-48.5002
12:50:46.597,-17.4376,-48.1877
12:50:46.602,-16.9688,-49.5627
12:50:46.611,-16.9688,-50.7502
12:50:46.621,-19.0313,-52.1252
12:50:46.631,-20.1563,-54.6252
12:50:46.642,-20.6876,-54.7502
12:50:46.651,-22.2813,-55.7502
12:50:46.661,-21.8126,-57.2502
12:50:46.671,-21.3126,-56.6877
12:50:46.681,-19.8751,-55.1252
12:50:46.691,-16.8126,-51.5627
12:50:46.701,-12.125,-41.0627
12:50:46.711,-4.2813,-28.8751
12:50:46.721,2.0938,-13.1875
12:50:46.732,8.4063,-0.9375
12:50:46.772,11.9375,10.0625
12:50:46.773,14.4063,16.6876
12:50:46.776,15.5938,21.1251
12:50:46.781,16.8126,24.0001
12:50:46.787,17.7188,24.8126
12:50:46.816,17.6876,24.0626
12:50:46.818,16.7188,23.0626
12:50:46.820,16.0313,20.8751
12:50:46.878,14.5938,19.3126
12:50:46.878,12.6875,15.6251
12:50:46.894,12.4063,13.7501
12:50:46.926,10.6875,11.75
12:50:46.927,11.2188,11.375
12:50:46.927,10.4063,10.375
12:50:46.928,11.6875,10.0625
12:50:46.930,10.6875,8.5
12:50:46.937,9.5313,8.375
12:50:46.937,10.0313,5.6875
12:50:46.946,9.2813,4.6875
12:50:46.956,8.8125,3.0625
12:50:46.966,8.7188,2.0625
12:50:46.980,8.2813,-0.375
12:50:46.985,8.2188,-1.375
12:50:46.996,6.4688,-1.8125
12:50:47.006,5.1563,-5
12:50:47.017,4.2813,-5.125
12:50:47.026,4.3125,-5.6875
12:50:47.036,4.9375,-6.125
12:50:47.047,5,-5.25
12:50:47.058,5.375,-5.375
12:50:47.067,8.75,-2.875
12:50:47.076,8.8125,-3.3125
12:50:47.086,7.8438,-4.625
12:50:47.096,6.625,-5.5
12:50:47.106,6.0625,-8.125
12:50:47.116,4.4688,-9.8125
12:50:47.126,3.3125,-12.1875
12:50:47.136,1.6563,-12.875
12:50:47.146,1.7188,-15.3126
12:50:47.156,1.2188,-15.9376
12:50:47.166,0.625,-18.1251
12:50:47.178,0.5625,-19.6251
12:50:47.187,-0.8438,-20.7501
12:50:47.197,-0.5625,-22.6876
12:50:47.224,-2.125,-24.3751
12:50:47.226,-2.7188,-26.1876
12:50:47.227,-4.8125,-27.8751
12:50:47.237,-5.625,-30.0626
12:50:47.246,-7.2188,-31.9376
12:50:47.256,-7.7188,-33.6251
12:50:47.266,-9.5313,-34.6251
12:50:47.276,-8.9688,-36.1251
12:50:47.286,-9.7813,-36.6251
12:50:47.296,-9.8438,-37.5001
12:50:47.306,-9.9375,-37.1876
12:50:47.316,-9.6875,-37.6876
12:50:47.333,-9.5938,-38.0626
12:50:47.342,-9.9063,-37.1876
12:50:47.356,-9.7813,-38.7501
12:50:47.361,-8.3438,-38.8751
12:50:47.372,-8.1563,-38.0001
12:50:47.381,-8,-38.5626
12:50:47.391,-8.8438,-38.1876
12:50:47.402,-9.1875,-40.6252
12:50:47.411,-10.3438,-41.3127
12:50:47.421,-11.9688,-42.2502
12:50:47.431,-13.4688,-45.0002
12:50:47.447,-14.7813,-45.5627
12:50:47.451,-15.2188,-46.6252
12:50:47.477,-15.4376,-47.0627
12:50:47.482,-15.4688,-47.3127
12:50:47.484,-15.4063,-48.1877
12:50:47.493,-14.4376,-47.1877
12:50:47.522,-13.7188,-47.8127
12:50:47.525,-14.1251,-47.6252
12:50:47.527,-13.6876,-48.3127
12:50:47.532,-12.4375,-45.6252
12:50:47.560,-7.5313,-39.3126
12:50:47.563,-2.25,-26.8751
12:50:47.565,5.625,-12.375
12:50:47.574,12.625,3.125
12:50:47.600,17.1563,14.0626
12:50:47.603,19.8126,23.3126
12:50:47.604,21.5626,27.6251
12:50:47.611,22.4376,30.1876
12:50:47.623,22.2188,31.3126
12:50:47.632,21.0626,29.6251
12:50:47.641,20.3126,29.3126
12:50:47.651,19.5001,26.1876
12:50:47.663,18.1563,24.8126
12:50:47.672,17.2501,21.6876
12:50:47.682,16.0938,20.2501
12:50:47.691,14.2501,16.9376
12:50:47.701,13.4688,15.3126
12:50:47.711,12.7188,13
12:50:47.721,11.9063,12.3125
12:50:47.731,10.1875,10.5
12:50:47.741,9.7813,9
12:50:47.751,9.1563,8.25
12:50:47.761,8.5938,6.1875
12:50:47.771,7.0625,3.0625
12:50:47.781,5.75,1.3125
12:50:47.793,4.5,0.1875
12:50:47.801,4.625,-1.6875
12:50:47.810,4.0625,-1.5625
12:50:47.820,4.5625,-2.25
12:50:47.831,5.0625,-1.5625
12:50:47.841,4.5625,-2.125
12:50:47.851,3.3125,-2.125
12:50:47.861,2.4375,-4.125
12:50:47.872,1.4063,-4.125
12:50:47.881,1.5,-4.25
12:50:47.892,1.1875,-4.9375
12:50:47.901,0.875,-5.1875
12:50:47.910,0.0625,-5.75
12:50:47.921,-0.9688,-8.9375
12:50:47.931,-4.3438,-12.1875
12:50:47.941,-7.9688,-16.5001
12:50:47.951,-12.2813,-21.2501
12:50:47.961,-16.5001,-25.6251
12:50:47.972,-20.6563,-29.6251
12:50:47.981,-25.4376,-34.1251
12:50:47.991,-29.0939,-38.3751
12:50:48.001,-34.0626,-42.7502
12:50:48.011,-39.4377,-46.6877
12:50:48.021,-47.4377,-55.1252
12:50:48.031,-60.4377,-65.1877
12:50:48.041,-76.8753,-81.0003
12:50:48.051,-95.2816,-98.3129
12:50:48.060,-114.7817,-115.8754
12:50:48.072,-132.563,-133.2505
12:50:48.081,-153.9381,-152.1256
12:50:48.090,-173.9069,-171.6882
12:50:48.108,-193.0632,-190.1257
12:50:48.112,-207.282,-202.1883
12:50:48.121,-218.9696,-214.6258
12:50:48.131,-229.0634,-223.4384
12:50:48.141,-232.7821,-227.6259
12:50:48.151,-232.7509,-228.5634
12:50:48.169,-232.5946,-227.9384
12:50:48.172,-231.7196,-227.1259
12:50:48.205,-230.7821,-226.6884
12:50:48.207,-228.6884,-224.4384
12:50:48.255,-227.0634,-222.0009
12:50:48.255,-229.0009,-224.1259
12:50:48.293,-227.8446,-223.6884
12:50:48.330,-225.2821,-222.9384
12:50:48.330,-220.1571,-220.0008
12:50:48.332,-214.7821,-215.6883
12:50:48.335,-214.9071,-215.0008
12:50:48.342,-213.8446,-216.1883
12:50:48.342,-212.9071,-215.1883
12:50:48.342,-210.0945,-214.6258
12:50:48.348,-205.6883,-210.8758
12:50:48.356,-200.157,-206.3133
12:50:48.365,-193.3445,-199.5633
12:50:48.376,-188.5632,-192.6257
12:50:48.387,-180.1257,-181.0632
12:50:48.396,-173.8444,-168.1881
12:50:48.406,-165.8131,-154.7506
12:50:48.416,-159.5319,-142.063
12:50:48.426,-153.2506,-129.8755
12:50:48.436,-147.5318,-122.0005
12:50:48.445,-143.1255,-113.7504
12:50:48.456,-135.8443,-103.7504
12:50:48.466,-134.1255,-100.1879
12:50:48.504,-131.6255,-98.5629
12:50:48.505,-129.8755,-97.3129
12:50:48.507,-128.0005,-95.8129
12:50:48.510,-129.5942,-97.5629
12:50:48.519,-128.0317,-96.1879
12:50:48.528,-126.813,-95.1254
12:50:48.536,-125.9067,-96.0004
12:50:48.547,-124.7817,-96.7504
12:50:48.557,-124.7192,-97.2504
12:50:48.566,-124.1567,-99.3754
12:50:48.576,-123.688,-99.5629
12:50:48.586,-122.563,-101.0004
12:50:48.596,-121.2192,-100.5629
12:50:48.606,-120.438,-99.6254
12:50:48.616,-119.1255,-99.7504
12:50:48.626,-116.8442,-98.6254
12:50:48.636,-115.7504,-97.3754
12:50:48.646,-113.6879,-95.9379
12:50:48.656,-112.0942,-93.1879
12:50:48.666,-109.7817,-91.6879
12:50:48.676,-107.4067,-89.1878
12:50:48.686,-105.2816,-87.5003
12:50:48.696,-102.4066,-86.0628
12:50:48.707,-101.0941,-83.8128
12:50:48.716,-98.6254,-83.5003
12:50:48.731,-97.0004,-82.6878
12:50:48.741,-95.1254,-81.9378
12:50:48.752,-93.3441,-81.5003
12:50:48.762,-90.6254,-78.8128
12:50:48.771,-87.3753,-76.9378
12:50:48.781,-83.0628,-72.9378
12:50:48.791,-77.3753,-67.0003
12:50:48.801,-73.969,-62.6877
12:50:48.810,-70.3128,-58.5627
12:50:48.821,-66.219,-54.3752
12:50:48.832,-64.0627,-50.1877
12:50:48.840,-61.4065,-47.7502
12:50:48.863,-58.219,-45.1877
12:50:48.866,-56.5627,-42.5627
12:50:48.872,-54.469,-41.3752
12:50:48.908,-52.6252,-38.9376
12:50:48.911,-50.7814,-36.5626
12:50:48.913,-48.5002,-37.1876
12:50:48.915,-47.1564,-36.6251
12:50:48.950,-48.0314,-37.6876
12:50:48.951,-47.9689,-39.4377
12:50:48.953,-48.0627,-39.5002
12:50:48.959,-47.8752,-41.5627
12:50:48.962,-47.6877,-41.5627
12:50:49.000,-46.7814,-42.6877
12:50:49.001,-46.4064,-43.1252
12:50:49.004,-46.8752,-43.6877
12:50:49.006,-47.0314,-45.2502
12:50:49.011,-46.7814,-47.1252
12:50:49.040,-48.3752,-48.7502
12:50:49.043,-48.9064,-50.6252
12:50:49.044,-50.0002,-52.5627
12:50:49.053,-50.4064,-54.5627
12:50:49.061,-49.8127,-54.6877
12:50:49.071,-50.6564,-57.0002
12:50:49.081,-50.5314,-58.8752
12:50:49.091,-51.0314,-59.1877
12:50:49.101,-51.3127,-61.8752
12:50:49.111,-52.3752,-63.9377
12:50:49.120,-53.5315,-66.0003
12:50:49.131,-53.219,-66.8753
12:50:49.141,-51.1877,-63.5627
12:50:49.151,-46.8439,-56.6877
12:50:49.161,-42.2814,-46.7502
12:50:49.171,-38.0314,-36.1251
12:50:49.180,-34.7189,-27.4376
12:50:49.193,-31.9376,-18.4376
12:50:49.203,-29.2814,-11.375
12:50:49.211,-28.1564,-6.9375
12:50:49.222,-28.2814,-3.5
12:50:49.233,-28.3126,-1.625
12:50:49.241,-28.2501,-0.875
12:50:49.251,-29.5314,-0.875
12:50:49.261,-30.2814,-2
12:50:49.271,-31.3751,-3
12:50:49.282,-32.5626,-4.3125
12:50:49.291,-34.8439,-6.8125
12:50:49.301,-36.4064,-9.75
12:50:49.311,-38.0001,-12.375
12:50:49.321,-38.9689,-13.5001
12:50:49.330,-39.5314,-15.6876
12:50:49.341,-40.2502,-16.1876
12:50:49.352,-41.2814,-17.3126
12:50:49.360,-40.1877,-18.4376
12:50:49.371,-41.3752,-19.1876
12:50:49.381,-41.9377,-20.4376
12:50:49.391,-41.8127,-22.6251
12:50:49.401,-41.6252,-23.5626
12:50:49.411,-42.5002,-25.0001
12:50:49.421,-41.9689,-25.1876
12:50:49.431,-42.4689,-26.0001
12:50:49.442,-41.0939,-26.0001
12:50:49.452,-40.3752,-25.3126
12:50:49.461,-39.6877,-24.9376
12:50:49.471,-39.4064,-23.4376
12:50:49.481,-37.8126,-23.0626
12:50:49.492,-36.5939,-21.8126
12:50:49.501,-36.2189,-21.1251
12:50:49.511,-34.9064,-19.9376
12:50:49.522,-33.6564,-19.0001
12:50:49.531,-31.6876,-17.0001
12:50:49.551,-29.4376,-15.0626
12:50:49.558,-27.9689,-13
12:50:49.564,-24.2188,-11.25
12:50:49.601,-23.5313,-10
12:50:49.602,-22.7501,-9.0625
12:50:49.608,-20.7501,-6.625
12:50:49.608,-18.1251,-4.625
12:50:49.638,-15.6251,-1.75
12:50:49.641,-12.8125,1
12:50:49.675,-9.625,4.625
12:50:49.678,-6.375,7.125
12:50:49.691,-3.4688,10.25
12:50:49.693,-1.8438,13.6251
12:50:49.697,1.4375,15.0626
12:50:49.699,2.9063,16.6251
12:50:49.699,4.7813,17.0001
12:50:49.703,7.0625,18.5626
12:50:49.734,9.2188,19.3751
12:50:49.739,10.0938,19.5626
12:50:49.740,11.25,19.7501
12:50:49.741,11.5625,19.4376
12:50:49.782,12.6563,20.1251
12:50:49.784,13.3126,19.0626
12:50:49.788,12.75,18.5626
12:50:49.793,13,16.7501
12:50:49.796,12.8125,15.4376
12:50:49.801,12.6563,13.7501
12:50:49.812,11.75,12.25
12:50:49.821,11.1875,11.0625
12:50:49.831,10.2813,9.8125
12:50:49.841,9.3125,7
12:50:49.851,8.125,4
12:50:49.861,7.8438,2.1875
12:50:49.872,6.9375,0.8125
12:50:49.883,5.3125,-0.75
12:50:49.892,3.5,-3.0625
12:50:49.902,2.4063,-4.9375
12:50:49.912,1.0625,-7.625
12:50:49.921,-0.125,-9.0625
12:50:49.932,-1.0938,-12.25
12:50:49.941,-1.875,-13.8751
12:50:49.953,-3.9063,-16.7501
12:50:49.961,-4.4063,-17.5626
12:50:49.972,-3.8438,-17.0001
12:50:49.981,-1,-10.375
12:50:49.992,3.4375,0.0625
12:50:50.001,8.6875,12.125
12:50:50.011,12.5313,22.7501
12:50:50.021,15.5938,32.6251
12:50:50.030,17.6563,40.7502
12:50:50.044,17.8751,46.1877
12:50:50.053,19.4688,51.1877
12:50:50.062,17.8751,53.3752
12:50:50.071,16.7813,53.9377
12:50:50.083,15.5001,53.0627
12:50:50.091,13.8751,53.1252
12:50:50.103,11.5313,51.1877
12:50:50.112,9.3438,50.1877
12:50:50.120,7.5625,47.1252
12:50:50.131,4.9375,45.5627
12:50:50.142,2.0313,41.8127
12:50:50.152,0.4375,40.7502
12:50:50.161,-2.8438,36.8751
12:50:50.177,-6.0313,33.8126
12:50:50.181,-7.9375,30.5001
12:50:50.191,-10.3125,28.0001
12:50:50.202,-11.4375,26.7501
12:50:50.211,-11.5625,25.1876
12:50:50.225,-13.3751,21.5626
12:50:50.230,-13.8438,20.3751
12:50:50.241,-14.9688,18.6876
12:50:50.252,-15.6563,16.0001
12:50:50.262,-15.7813,14.6876
12:50:50.273,-16.5001,14.6251
12:50:50.281,-15.8751,12.6875
12:50:50.293,-16.6251,12.5625
12:50:50.300,-16.5001,13.3751
12:50:50.311,-16.3126,13.0625
12:50:50.322,-16.7813,11.5625
12:50:50.356,-16.6876,11.5625
12:50:50.359,-18.0001,9.6875
12:50:50.361,-18.6563,8.875
12:50:50.364,-18.8751,8.125
12:50:50.394,-19.6563,5.375
12:50:50.398,-20.7501,4.6875
12:50:50.399,-20.8438,2.8125
12:50:50.404,-21.7188,0.625
12:50:50.420,-22.4688,-0.875
12:50:50.422,-23.1563,-3.25
12:50:50.451,-23.4688,-3.875
12:50:50.454,-23.6876,-5.25
12:50:50.456,-24.0001,-7.625
12:50:50.462,-23.8751,-7.5625
12:50:50.477,-24.0938,-8
12:50:50.483,-22.5626,-9
12:50:50.509,-22.6563,-8
12:50:50.510,-21.6876,-7.25
12:50:50.512,-20.8126,-7.375
12:50:50.522,-20.2188,-6.875
12:50:50.532,-18.3751,-6.6875
12:50:50.541,-17.6876,-4.9375
12:50:50.553,-16.3438,-3.0625
12:50:50.562,-14.2501,-2.0625
12:50:50.572,-12.4063,0.0625
12:50:50.580,-9.8125,1.8125
12:50:50.592,-8.375,2.625
12:50:50.601,-6.25,3.4375
12:50:50.611,-4.8125,5.625
12:50:50.622,-2.75,6.5
12:50:50.631,-1.3125,8
12:50:50.643,0.1563,8.9375
12:50:50.652,1.4063,9.8125
12:50:50.661,2.5,9.625
12:50:50.672,3.3438,10.9375
12:50:50.682,3.875,9.125
12:50:50.691,4.875,10.9375
12:50:50.701,4.9688,8.75
12:50:50.713,4.2188,9
12:50:50.721,4.125,6.1875
12:50:50.731,3.25,5.5625
12:50:50.742,2.0625,3.0625
12:50:50.752,1.5625,2.125
12:50:50.763,1.0625,-0.0625
12:50:50.772,-0.4375,-1.875
12:50:50.783,-0.9375,-2.8125
12:50:50.794,-1.2813,-4.1875
12:50:50.802,0.0625,-1.5625
12:50:50.812,3.5938,4.8125
12:50:50.823,7.1875,13.7501
12:50:50.832,10.8438,23.8126
12:50:50.842,13.8438,36.2501
12:50:50.852,16.4688,44.8752
12:50:50.862,18.1251,52.4377
12:50:50.871,19.0001,59.4377
12:50:50.883,20.0001,63.9377
12:50:50.892,18.5001,65.3128
12:50:50.908,17.3438,68.4378
12:50:50.928,16.3438,68.2503
12:50:50.942,14.5938,66.7503
12:50:50.944,13.9688,67.4378
12:50:50.961,13.5938,68.5628
12:50:50.976,11.5938,67.1253
12:50:50.976,11.2188,66.0003
12:50:50.977,9.4375,65.6877
12:50:50.992,8.9375,64.3127
12:50:50.994,7.5938,63.1252
12:50:51.002,6,61.8127
12:50:51.011,5.0625,61.6877
12:50:51.022,2.875,58.1252
12:50:51.032,1.3125,54.5002
12:50:51.061,-1.625,50.8127
12:50:51.064,-3.0313,47.9377
12:50:51.066,-5.0313,44.2502
12:50:51.072,-7.8438,41.3127
12:50:51.104,-11.0313,37.3751
12:50:51.106,-14.0626,32.4376
12:50:51.110,-17.2813,28.5001
12:50:51.113,-20.4688,25.0001
12:50:51.141,-23.1563,21.0626
12:50:51.144,-24.7813,17.3751
12:50:51.146,-27.7501,15.0001
12:50:51.174,-28.1876,12.6875
12:50:51.175,-28.7814,12.6875
12:50:51.177,-29.0939,10.9375
12:50:51.185,-30.0626,8.75
12:50:51.194,-31.1876,7.875
12:50:51.226,-31.2501,5.125
12:50:51.227,-33.0314,3.375
12:50:51.230,-34.3439,1.3125
12:50:51.237,-34.4376,-1.25
12:50:51.245,-35.3439,-2.125
12:50:51.252,-35.1564,-4.6875
12:50:51.261,-36.5626,-7.1875
12:50:51.271,-36.7501,-8.625
12:50:51.281,-37.4689,-11.0625
12:50:51.292,-38.5001,-13.1876
12:50:51.302,-39.3439,-14.8751
12:50:51.311,-40.0002,-17.5001
12:50:51.323,-40.8752,-18.0001
12:50:51.331,-40.9377,-20.9376
12:50:51.342,-41.4377,-23.1251
12:50:51.351,-41.8127,-23.4376
12:50:51.361,-41.4377,-24.9376
12:50:51.372,-41.5939,-25.8751
12:50:51.387,-40.9689,-26.5626
12:50:51.396,-41.9064,-28.2501
12:50:51.407,-41.6877,-29.6876
12:50:51.416,-42.0002,-30.7501
12:50:51.427,-42.2814,-31.8126
12:50:51.437,-41.8439,-32.0001
12:50:51.447,-40.5627,-32.0626
12:50:51.456,-40.5939,-31.5626
12:50:51.467,-39.3439,-31.7501
12:50:51.476,-38.5001,-31.0626
12:50:51.487,-37.1564,-29.9376
12:50:51.496,-35.9064,-29.0626
12:50:51.507,-35.0939,-28.5626
12:50:51.515,-34.0314,-27.8126
12:50:51.527,-32.9689,-26.4376
12:50:51.537,-31.0626,-25.8751
12:50:51.547,-27.6564,-22.0626
12:50:51.556,-25.1876,-21.9376
12:50:51.565,-23.2813,-19.2501
12:50:51.576,-21.1563,-19.3126
12:50:51.586,-20.2501,-16.4376
12:50:51.597,-18.5313,-17.1251
12:50:51.607,-17.4376,-14.4376
12:50:51.616,-13.2501,-10.5625
12:50:51.627,-8.4063,-0.4375
12:50:51.637,-1.9063,9.375
12:50:51.648,3.4375,23.4376
12:50:51.657,9.3438,34.9376
12:50:51.666,13.0313,47.1252
12:50:51.677,16.2813,54.8127
12:50:51.687,17.4688,63.0627
12:50:51.697,18.5313,67.3128
12:50:51.706,19.0313,71.1878
12:50:51.716,18.5938,73.3753
12:50:51.727,18.6251,73.8128
12:50:51.736,17.2813,74.8128
12:50:51.747,16.9376,74.5003
12:50:51.755,15.9688,74.5003
12:50:51.768,15.4063,74.6253
12:50:51.801,13.5626,71.8128
12:50:51.803,12.5,72.1253
12:50:51.807,10.7188,69.6878
12:50:51.808,8.75,67.1878
12:50:51.841,7.7188,66.7503
12:50:51.842,7.625,64.5627
12:50:51.844,4.9375,61.8752
12:50:51.876,3.0625,60.6252
12:50:51.879,1.5313,55.8752
12:50:51.881,-0.0938,52.5002
12:50:51.883,-1.4375,50.1877
12:50:51.892,-3.3438,47.3752
12:50:51.931,-4.7813,45.2502
12:50:51.932,-5.875,42.9377
12:50:51.935,-6.2813,40.9377
12:50:51.937,-7.7188,40.0002
12:50:51.944,-7.5938,39.0001
12:50:51.953,-8.4688,38.0001
12:50:51.962,-9.0313,36.7501
12:50:51.972,-9.8438,34.5626
12:50:51.984,-13.2188,31.0001
12:50:51.992,-14.4376,26.9376
12:50:52.002,-16.5001,26.3751
12:50:52.013,-18.1876,21.9376
12:50:52.022,-20.7501,18.3751
12:50:52.033,-24.5313,13.6251
12:50:52.042,-27.7814,7.3125
12:50:52.056,-31.6876,1.6875
12:50:52.062,-34.9064,-3.25
12:50:52.072,-38.0939,-7.6875
12:50:52.083,-41.5939,-14.0626
12:50:52.091,-43.9377,-16.8126
12:50:52.102,-45.2189,-20.6251
12:50:52.112,-45.0939,-23.7501
12:50:52.122,-46.3127,-24.7501
12:50:52.132,-47.5314,-29.6876
12:50:52.142,-49.3127,-32.0626
12:50:52.152,-50.9064,-36.6251
12:50:52.162,-53.4065,-40.0627
12:50:52.172,-53.7815,-44.1877
12:50:52.182,-56.0315,-46.5627
12:50:52.192,-56.2502,-49.8127
12:50:52.211,-57.9065,-50.7502
12:50:52.217,-57.1877,-53.3752
12:50:52.226,-57.6877,-53.1877
12:50:52.232,-57.969,-55.4377
12:50:52.248,-57.469,-56.7502
12:50:52.252,-58.1877,-57.0627
12:50:52.267,-58.2502,-59.4377
12:50:52.282,-58.0315,-59.6252
12:50:52.285,-58.594,-60.9377
12:50:52.300,-58.5002,-62.0627
12:50:52.315,-58.7502,-62.8752
12:50:52.317,-59.469,-63.8127
12:50:52.342,-58.9377,-65.0003
12:50:52.347,-58.4065,-64.8752
12:50:52.350,-58.4065,-65.6878
12:50:52.351,-57.9065,-65.8128
12:50:52.362,-57.594,-65.9378
12:50:52.372,-57.0002,-66.7503
12:50:52.382,-56.5315,-65.9378
12:50:52.392,-55.2502,-66.2503
12:50:52.402,-54.4065,-64.5627
12:50:52.412,-52.2502,-63.1877
12:50:52.423,-51.1252,-61.3752
12:50:52.432,-48.5314,-59.8752
12:50:52.442,-46.4689,-57.6252
12:50:52.451,-43.9377,-53.5002
12:50:52.462,-39.7502,-48.8127
12:50:52.472,-34.1564,-39.3752
12:50:52.482,-26.5939,-25.5626
12:50:52.492,-18.7501,-11.625
12:50:52.502,-11.9688,3.125
12:50:52.512,-5.8125,15.6251
12:50:52.521,-0.4688,27.4376
12:50:52.532,3.3438,36.0001
12:50:52.542,5.9375,43.5002
12:50:52.553,9.1563,49.8752
12:50:52.589,11.0625,54.4377
12:50:52.591,13,57.8127
12:50:52.592,13.5626,60.2502
12:50:52.596,14.7501,61.3752
12:50:52.603,13.6563,62.0002
12:50:52.636,14.3438,61.6877
12:50:52.639,14.0938,62.2502
12:50:52.643,14.1251,62.0627
12:50:52.644,13.1563,61.8752
12:50:52.672,13.6876,62.0002
12:50:52.674,13.2188,60.8752
12:50:52.677,12,61.1252
12:50:52.703,11.4063,57.9377
12:50:52.704,9.9375,55.8752
12:50:52.706,8.4688,53.0002
12:50:52.712,7.1875,50.3127
12:50:52.725,6.4688,48.4377
12:50:52.732,5.9375,45.5002
12:50:52.741,3.9375,44.6877
12:50:52.752,3.125,41.7502
12:50:52.763,2.2188,39.8752
12:50:52.772,1.25,39.1251
12:50:52.782,0.5625,36.3126
12:50:52.793,-0.875,35.3126
12:50:52.803,-2.25,34.0001
12:50:52.814,-2.5,31.8126
12:50:52.822,-3.7188,30.3126
12:50:52.832,-4.2813,28.1876
12:50:52.842,-5.5,25.2501
12:50:52.852,-6.5,23.8751
12:50:52.863,-8.3125,21.2501
12:50:52.872,-9.4375,19.3126
12:50:52.882,-10,16.8751
12:50:52.892,-11.2188,15.1876
12:50:52.902,-10.5313,14.3126
12:50:52.912,-10.25,13.0625
12:50:52.922,-10.8125,12.75
12:50:52.932,-10.6875,10.1875
12:50:52.940,-11.4688,9.3125
12:50:52.953,-11.9375,6.6875
12:50:52.962,-13,5.5625
12:50:52.972,-14.3438,2.3125
12:50:52.983,-15.1563,0.5
12:50:52.992,-15.8438,-2.0625
12:50:53.002,-15.8751,-2.6875
12:50:53.013,-16.3438,-5.6875
12:50:53.022,-17.8126,-6.625
12:50:53.032,-17.7501,-9.0625
12:50:53.042,-20.4376,-11.375
12:50:53.052,-21.2813,-14.9376
12:50:53.062,-22.8438,-17.2501
12:50:53.072,-23.9063,-20.1251
12:50:53.082,-25.4376,-21.5001
12:50:53.092,-25.4063,-24.3126
12:50:53.102,-24.8438,-25.6876
12:50:53.112,-26.6564,-27.9376
12:50:53.123,-26.9064,-30.0626
12:50:53.132,-27.9689,-32.3126
12:50:53.142,-29.4376,-34.0626
12:50:53.152,-29.4064,-35.0001
12:50:53.162,-30.7189,-37.6876
12:50:53.172,-31.8751,-39.1877
12:50:53.181,-32.0939,-40.8752
12:50:53.192,-32.1564,-42.1877
12:50:53.203,-32.5314,-42.5627
12:50:53.212,-32.5939,-44.8752
12:50:53.223,-32.4064,-46.1877
12:50:53.232,-33.5001,-46.6877
12:50:53.242,-34.2501,-49.3752
12:50:53.252,-34.0314,-49.8752
12:50:53.262,-34.5314,-51.8127
12:50:53.272,-34.6564,-52.5002
12:50:53.282,-33.8751,-52.6877
12:50:53.315,-33.0001,-52.5627
12:50:53.318,-31.8439,-52.3127
12:50:53.320,-31.2501,-52.3752
12:50:53.322,-30.8751,-52.0627
12:50:53.353,-29.3439,-49.1252
12:50:53.356,-26.3438,-43.0002
12:50:53.359,-21.5001,-33.7501
12:50:53.362,-16.0626,-23.3751
12:50:53.401,-12.8125,-13.9376
12:50:53.403,-8.4063,-3.3125
12:50:53.405,-6.625,3.5625
12:50:53.412,-4.6875,10.8125
12:50:53.412,-4.3125,13.8751
12:50:53.423,-3.375,17.1876
12:50:53.460,-4.1563,17.3751
12:50:53.461,-5.4375,17.6876
12:50:53.463,-7.4688,15.0001
12:50:53.466,-8.125,14.6876
12:50:53.472,-9.7813,13.1876
12:50:53.483,-10.375,12.6875
12:50:53.492,-12.0313,9.5625
12:50:53.502,-13.1876,9.125
12:50:53.512,-13.6563,7.5625
12:50:53.522,-14.3751,7.25
12:50:53.542,-15.2501,6.4375
12:50:53.548,-16.2188,5.4375
12:50:53.557,-15.6563,4.25
12:50:53.562,-16.1876,3.1875
12:50:53.580,-18.0938,0.625
12:50:53.587,-18.7188,-0.125
12:50:53.592,-19.8751,-3.0625
12:50:53.625,-20.8126,-4.125
12:50:53.628,-20.7188,-5.4375
12:50:53.641,-21.5938,-6.625
12:50:53.657,-20.8751,-4.3125
12:50:53.657,-18.4376,-3.25
12:50:53.658,-16.8126,-0.9375
12:50:53.673,-15.1876,1.875
12:50:53.675,-14.5626,2.6875
12:50:53.683,-14.1563,3.8125
12:50:53.693,-14.2501,4.3125
12:50:53.702,-14.3751,2.5625
12:50:53.712,-15.6876,0.625
12:50:53.723,-17.4063,-2.375
12:50:53.732,-18.5313,-3.75
12:50:53.742,-18.6563,-3.5
12:50:53.752,-17.0938,-2.75
12:50:53.762,-16.2188,-2.4375
12:50:53.772,-14.8126,-1.75
12:50:53.782,-14.8751,-1.9375
12:50:53.792,-13.4688,-1.625
12:50:53.802,-12.7188,-0.75
12:50:53.812,-11.8125,-0.6875
12:50:53.822,-12.0938,-1.4375
12:50:53.832,-12.9063,-1.5625
12:50:53.842,-13.1563,-3.3125
12:50:53.852,-13.6251,-6.125
12:50:53.862,-13.2813,-5.375
12:50:53.874,-12.8438,-5.625
12:50:53.882,-11.7188,-5.125
12:50:53.892,-9.75,-4.3125
12:50:53.902,-9.7188,-3.25
12:50:53.912,-7.7813,-2.3125
12:50:53.922,-7.25,-1.625
12:50:53.932,-7.7188,-2.25
12:50:53.944,-7.8125,-3.625
12:50:53.956,-7.8125,-4.8125
12:50:53.962,-8.625,-7.0625
12:50:53.972,-9.3125,-8.125
12:50:53.982,-10.2188,-10.4375
12:50:53.992,-11.7813,-12.375
12:50:54.002,-13.3438,-15.7501
12:50:54.036,-15.5001,-16.5626
12:50:54.038,-16.2188,-18.4376
12:50:54.041,-17.4688,-21.1251
12:50:54.043,-18.6876,-22.8751
12:50:54.080,-18.8751,-24.0626
12:50:54.081,-19.0626,-25.5626
12:50:54.083,-18.0626,-24.7501
12:50:54.087,-17.3751,-25.4376
12:50:54.092,-18.3126,-25.5001
12:50:54.123,-18.8438,-28.5626
12:50:54.125,-19.7813,-29.8126
12:50:54.127,-21.3438,-32.1876
12:50:54.133,-23.6876,-33.7501
12:50:54.159,-24.4376,-37.5001
12:50:54.161,-25.4688,-38.6876
12:50:54.164,-24.1563,-38.8751
12:50:54.197,-21.0938,-34.7501
12:50:54.197,-15.8751,-27.3751
12:50:54.200,-10.4688,-17.6251
12:50:54.202,-6.5938,-8.4375
12:50:54.212,-3.6875,1.125
12:50:54.223,-0.9063,8.75
12:50:54.233,0.8125,14.2501
12:50:54.242,6.9375,24.0001
12:50:54.252,8.0313,31.0001
12:50:54.262,4.6875,29.4376
12:50:54.272,4.25,30.2501
12:50:54.282,3.3438,29.5626
12:50:54.292,3.5938,31.9376
12:50:54.302,5.625,33.9376
12:50:54.312,8.6875,37.7501
12:50:54.323,12.3125,41.0627
12:50:54.332,16.8126,44.0627
12:50:54.343,20.3751,46.5627
12:50:54.352,22.9376,48.0627
12:50:54.362,24.5626,49.5002
12:50:54.372,28.3751,50.0002
12:50:54.382,30.0001,51.8752
12:50:54.392,33.2501,52.8127
12:50:54.402,52.9065,66.5003
12:50:54.412,66.344,76.3128
12:50:54.423,77.1253,86.5628
12:50:54.432,82.2816,90.0003
12:50:54.442,85.2503,92.1254
12:50:54.452,88.5003,93.5629
12:50:54.462,93.0316,97.5629
12:50:54.473,99.1566,103.8754
12:50:54.482,108.4379,109.7504
12:50:54.492,117.938,119.063
12:50:54.502,126.1567,127.3755
12:50:54.512,131.4693,132.188
12:50:54.522,137.7193,136.438
12:50:54.532,149.2506,146.5005
12:50:54.542,166.2194,162.3756
12:50:54.552,174.2819,169.5631
12:50:54.562,184.8445,178.6882
12:50:54.572,197.3133,190.5632
12:50:54.582,215.7821,208.3758
12:50:54.592,217.8758,212.5008
12:50:54.602,218.5321,211.8133
12:50:54.612,220.3758,211.6883
12:50:54.622,221.4696,213.7508
12:50:54.632,223.0009,211.8758
12:50:54.642,223.3134,212.6883
12:50:54.652,226.1571,212.4383
12:50:54.662,225.9071,212.7508
12:50:54.672,226.0009,211.5633
12:50:54.683,222.6884,207.6258
12:50:54.700,216.1883,200.5633
12:50:54.705,211.1883,192.8132
12:50:54.712,206.407,187.1257
12:50:54.722,205.8133,184.8132
12:50:54.732,202.6883,180.4382
12:50:54.742,201.3133,177.1882
12:50:54.752,200.0945,175.6257
12:50:54.794,197.157,171.3132
12:50:54.797,193.157,167.5631
12:50:54.800,190.657,163.0631
12:50:54.801,184.657,157.3756
12:50:54.803,180.4695,152.1256
12:50:54.831,176.6569,146.563
12:50:54.834,173.1257,143.188
12:50:54.836,172.4069,140.3755
12:50:54.843,166.6569,134.188
12:50:54.857,162.1256,127.688
12:50:54.862,158.4069,121.438
12:50:54.902,155.8131,118.188
12:50:54.904,152.1568,113.3754
12:50:54.946,146.3443,107.2504
12:50:54.963,141.5943,101.1254
12:50:54.964,136.2818,95.2504
12:50:54.964,132.0318,89.4378
12:50:54.977,126.938,83.5628
12:50:54.980,122.9067,79.0628
12:50:54.994,118.7192,73.8753
12:50:54.996,114.4379,68.4378
12:50:54.996,111.0629,64.3752
12:50:55.009,107.8442,59.5002
12:50:55.012,104.7504,55.0002
12:50:55.017,100.8754,49.3127
12:50:55.022,96.3441,45.5627
12:50:55.032,93.8754,43.0627
12:50:55.042,92.9691,44.8752
12:50:55.052,97.2504,53.6877
12:50:55.062,102.0316,65.2502
12:50:55.075,105.6254,75.8753
12:50:55.082,108.3129,83.8753
12:50:55.092,107.8754,88.5628
12:50:55.102,107.0942,92.7504
12:50:55.112,104.5941,91.5004
12:50:55.123,101.0941,88.9378
12:50:55.132,97.7191,85.0003
12:50:55.143,95.4066,82.0628
12:50:55.152,93.1254,79.4378
12:50:55.162,90.3753,76.8128
12:50:55.173,88.4066,72.8128
12:50:55.182,85.8441,70.0003
12:50:55.193,84.3128,69.1878
12:50:55.207,83.0628,65.7503
12:50:55.217,80.7816,64.2502
12:50:55.227,77.2503,60.5627
12:50:55.237,73.7503,56.1877
12:50:55.247,70.469,51.1252
12:50:55.258,66.844,46.6877
12:50:55.267,65.094,43.4377
12:50:55.277,63.3752,41.4377
12:50:55.287,63.5315,40.1877
12:50:55.297,64.0315,39.6877
12:50:55.307,63.094,38.4376
12:50:55.317,59.5627,34.6876
12:50:55.327,56.9377,32.8751
12:50:55.337,54.6252,29.5626
12:50:55.347,51.0002,27.0001
12:50:55.362,49.2189,23.5626
12:50:55.372,45.8752,20.0626
12:50:55.382,46.5939,20.1251
12:50:55.392,45.7189,19.0001
12:50:55.402,43.6564,17.8126
12:50:55.417,42.0939,14.4376
12:50:55.428,38.5626,12.0625
12:50:55.437,36.7189,8.5
12:50:55.449,34.0939,5.625
12:50:55.458,32.0314,2.625
12:50:55.467,30.8439,-0.3125
12:50:55.477,29.8751,-2.1875
12:50:55.491,29.8126,-3.25
12:50:55.523,28.7501,-5.125
12:50:55.525,28.0626,-6.0625
12:50:55.530,26.0626,-8.75
12:50:55.532,22.8126,-13.0625
12:50:55.561,18.7501,-18.0001
12:50:55.562,16.5313,-21.6876
12:50:55.564,14.2501,-24.4376
12:50:55.568,14.0313,-25.8751
12:50:55.597,15.9063,-24.8751
12:50:55.601,18.5626,-23.4376
12:50:55.603,17.1876,-23.8126
12:50:55.609,14.8126,-25.9376
12:50:55.642,11.9688,-29.8126
12:50:55.644,8.4063,-33.3126
12:50:55.647,5.6875,-38.0626
12:50:55.651,2.9375,-39.9377
12:50:55.672,2.5938,-42.6877
12:50:55.673,1.375,-42.6877
12:50:55.677,1.625,-43.5627
12:50:55.693,1.2813,-43.7502
12:50:55.698,0.5938,-46.1877
12:50:55.707,-1.9375,-47.6252
12:50:55.717,-3.1563,-49.6252
12:50:55.727,-4.5938,-53.0002
12:50:55.737,-5.1875,-52.8127
12:50:55.747,-6.3125,-54.8127
12:50:55.757,-6.4063,-54.6252
12:50:55.767,-7.3438,-56.5627
12:50:55.778,-7.375,-56.2502
12:50:55.787,-8.5,-58.8752
12:50:55.797,-10.4375,-61.4377
12:50:55.807,-13.4376,-64.6252
12:50:55.823,-16.0938,-66.6253
12:50:55.828,-16.6251,-68.8753
12:50:55.837,-16.1876,-68.5003
12:50:55.847,-16.4376,-69.6878
12:50:55.857,-16.0626,-69.0628
12:50:55.867,-15.4688,-68.5628
12:50:55.877,-13.7188,-65.6252
12:50:55.887,-10.4688,-62.0002
12:50:55.897,-6.0313,-52.5002
12:50:55.907,-0.5625,-39.1877
12:50:55.918,5.5938,-26.6876
12:50:55.927,10.9063,-13.9376
12:50:55.937,13.1251,-5.125
12:50:55.947,15.7188,1.3125
12:50:55.957,16.8438,7
12:50:55.967,17.2501,8
12:50:55.977,15.9376,8.75
12:50:55.987,14.1876,7.5625
12:50:55.997,11.9375,4.8125
12:50:56.007,10.1563,4.375
12:50:56.017,11,2.3125
12:50:56.027,11,1.75
12:50:56.037,10.2188,1.0625
12:50:56.048,10.7188,1.0625
12:50:56.057,11.0938,2.5
12:50:56.068,10.375,0.5625
12:50:56.077,8.4688,-0.5625
12:50:56.087,6.25,-4.1875
12:50:56.098,4.4688,-5.8125
12:50:56.107,2.9063,-8.875
12:50:56.117,2.1875,-9.3125
12:50:56.127,1.2188,-12.3125
12:50:56.174,1.0625,-13.8126
12:50:56.175,0.8125,-14.0001
12:50:56.177,0.375,-15.1876
12:50:56.191,-0.6875,-16.3126
12:50:56.196,-1.8125,-18.1251
12:50:56.265,-3.0938,-20.3126
12:50:56.265,-4.5313,-21.5626
12:50:56.285,-5,-21.6876
12:50:56.313,-3.5625,-21.3126
12:50:56.335,-2.1563,-18.8751
12:50:56.335,-1.5313,-17.8126
12:50:56.335,-1.6875,-18.5626
12:50:56.335,-2.1875,-18.8126
12:50:56.344,-4.0313,-22.2501
12:50:56.360,-6.2188,-24.1876
12:50:56.360,-7.4375,-26.9376
12:50:56.360,-8.0313,-27.3751
12:50:56.361,-6.1875,-28.2501
12:50:56.367,-4.9375,-26.1251
12:50:56.379,-2.5,-25.0001
12:50:56.388,-2.75,-24.8751
12:50:56.397,-3.0625,-26.4376
12:50:56.407,-7.0625,-29.2501
12:50:56.420,-9.9688,-34.7501
12:50:56.428,-13.4063,-37.8751
12:50:56.437,-14.7188,-41.6252
12:50:56.447,-15.2188,-42.7502
12:50:56.457,-13.9688,-43.2502
12:50:56.467,-14.3751,-46.4377
12:50:56.477,-17.2501,-49.3127
12:50:56.487,-18.5626,-51.3127
12:50:56.497,-20.3438,-54.3127
12:50:56.507,-22.1876,-57.0627
12:50:56.517,-26.3438,-63.0627
12:50:56.527,-27.0626,-65.0627
12:50:56.537,-27.7501,-66.5003
12:50:56.548,-27.8439,-66.5628
12:50:56.557,-27.0939,-67.3128
12:50:56.567,-27.1251,-67.0628
12:50:56.577,-26.5939,-66.8128
12:50:56.587,-26.8126,-67.8128
12:50:56.597,-25.4376,-65.7503
12:50:56.607,-25.0938,-66.5628
12:50:56.617,-25.7813,-67.3753
12:50:56.628,-26.8751,-69.0003
12:50:56.637,-29.3126,-71.1253
12:50:56.647,-31.3126,-73.8128
12:50:56.657,-33.5626,-77.3753
12:50:56.667,-33.5314,-77.6878
12:50:56.677,-34.2501,-78.5628
12:50:56.687,-33.2501,-78.5003
12:50:56.702,-32.4064,-78.1878
12:50:56.707,-31.2814,-77.9378
12:50:56.717,-30.7501,-77.1253
12:50:56.727,-29.8439,-74.8128
12:50:56.737,-27.2189,-69.4378
12:50:56.747,-21.3126,-57.9377
12:50:56.757,-15.2188,-45.7502
12:50:56.767,-9.4063,-31.7501
12:50:56.778,-4.5938,-21.1251
12:50:56.787,-1.0938,-11.5625
12:50:56.797,0.4688,-6.0625
12:50:56.807,0.875,-2.625
12:50:56.817,-0.0938,-2.75
12:50:56.827,-2.0313,-3.875
12:50:56.837,-3.4375,-4.8125
12:50:56.847,-5.3438,-8
12:50:56.857,-6.5,-9.8125
12:50:56.867,-7.5625,-11.9375
12:50:56.877,-8.2813,-12.8125
12:50:56.888,-9.6563,-15.7501
12:50:56.897,-9.3125,-15.3126
12:50:56.907,-9.4688,-16.6876
12:50:56.918,-8.6563,-15.5626
12:50:56.927,-9.5625,-17.5626
12:50:56.962,-9.5938,-18.1251
12:50:56.965,-11.0313,-20.0626
12:50:56.967,-12.6875,-21.8126
12:50:56.971,-13.8438,-24.6251
12:50:57.009,-15.1563,-26.6251
12:50:57.011,-16.4063,-28.6251
12:50:57.012,-15.8126,-28.7501
12:50:57.014,-16.4376,-30.4376
12:50:57.022,-16.0313,-28.5626
12:50:57.030,-14.4688,-29.2501
12:50:57.065,-13.4376,-27.5001
12:50:57.067,-12.5313,-25.9376
12:50:57.069,-11.5625,-25.2501
12:50:57.072,-10.9688,-23.8751
12:50:57.080,-10.0938,-23.1876
12:50:57.111,-9.5625,-23.3126
12:50:57.114,-8.875,-22.7501
12:50:57.116,-8.5625,-22.2501
12:50:57.126,-8.3125,-22.8126
12:50:57.133,-8.875,-24.1251
12:50:57.141,-9.25,-24.9376
12:50:57.147,-10.5938,-26.1876
12:50:57.157,-11.1563,-28.8751
12:50:57.168,-10.9688,-28.3126
12:50:57.177,-11.0938,-29.2501
12:50:57.187,-10.4375,-30.1251
12:50:57.197,-10.5313,-30.8751
12:50:57.207,-10.875,-32.5001
12:50:57.217,-11.2813,-32.8751
12:50:57.227,-12.75,-35.3751
12:50:57.237,-13.9376,-37.0001
12:50:57.247,-14.6563,-39.3127
12:50:57.257,-15.2188,-39.9377
12:50:57.267,-15.9376,-41.6877
12:50:57.277,-15.4376,-41.6877
12:50:57.287,-15.2501,-42.5002
12:50:57.297,-15.3438,-42.7502
12:50:57.307,-15.6876,-43.6877
12:50:57.317,-15.2813,-43.3127
12:50:57.327,-17.3751,-46.0002
12:50:57.337,-18.0313,-46.8752
12:50:57.347,-18.9376,-49.2502
12:50:57.357,-19.5313,-50.2502
12:50:57.367,-20.1563,-51.0627
12:50:57.377,-19.6563,-51.3127
12:50:57.387,-20.0001,-52.0627
12:50:57.397,-20.5001,-51.8752
12:50:57.407,-21.5001,-53.8127
12:50:57.417,-22.0938,-54.5002
12:50:57.427,-22.8438,-57.2502
12:50:57.437,-23.0626,-56.3752
12:50:57.462,-22.8751,-57.5002
12:50:57.464,-22.5313,-56.8752
12:50:57.468,-21.6876,-57.6877
12:50:57.477,-21.7813,-57.3752
12:50:57.487,-23.5313,-59.2502
12:50:57.499,-25.1563,-60.3127
12:50:57.507,-27.9376,-64.1252
12:50:57.517,-28.3751,-65.1877
12:50:57.527,-28.5939,-66.5628
12:50:57.544,-27.8126,-66.5003
12:50:57.551,-27.4376,-67.1878
12:50:57.565,-25.7813,-65.8753
12:50:57.568,-24.0626,-64.6252
12:50:57.583,-21.8751,-61.8127
12:50:57.588,-18.3751,-55.1877
12:50:57.597,-12.125,-43.3752
12:50:57.607,-5.4375,-29.2501
12:50:57.628,0.4375,-14.9376
12:50:57.631,7.0625,-2.25
12:50:57.646,12.125,9.8125
12:50:57.649,17.3751,19.1876
12:50:57.663,19.1876,25.3126
12:50:57.667,20.1563,28.1251
12:50:57.701,18.9688,28.8751
12:50:57.703,17.8751,28.0001
12:50:57.705,15.7188,25.7501
12:50:57.709,13.6876,24.3126
12:50:57.740,12.9063,22.6876
12:50:57.744,12.9063,20.9376
12:50:57.747,13.125,21.7501
12:50:57.753,13.6563,21.3126
12:50:57.768,13.6563,21.1251
12:50:57.770,12.4063,19.2501
12:50:57.804,10,16.7501
12:50:57.806,8.2188,16.0626
12:50:57.809,6.9688,12.0625
12:50:57.815,6.3438,9.9375
12:50:57.820,5.7813,8
12:50:57.850,5.2188,7.375
12:50:57.852,5.4063,6
12:50:57.855,5.7188,6.1875
12:50:57.857,5.4063,4.6875
12:50:57.867,3.5,3.4375
12:50:57.878,2.8438,1.9375
12:50:57.887,1.9688,0.375
12:50:57.897,2.25,0.5625
12:50:57.907,2.3125,1.0625
12:50:57.917,3.125,1.9375
12:50:57.927,4.8438,3.0625
12:50:57.937,5.375,4.5
12:50:57.947,5.9375,3.5
12:50:57.957,4.3438,2.375
12:50:57.967,2.875,0.5
12:50:57.977,2.5625,-1.6875
12:50:57.987,1.375,-2.375
12:50:57.997,0.7813,-4.125
12:50:58.007,0.125,-4.8125
12:50:58.017,-0.7813,-6
12:50:58.027,-0.9375,-7.6875
12:50:58.037,-1.8125,-9
12:50:58.047,-1.3125,-10.4375
12:50:58.057,-2.4063,-12.5
12:50:58.067,-2.7813,-13.6251
12:50:58.077,-3.0313,-15.5626
12:50:58.087,-4.375,-17.0626
12:50:58.097,-4.75,-18.6876
12:50:58.107,-4.4688,-19.5626
12:50:58.117,-3.4688,-19.0626
12:50:58.127,-3.5,-18.8751
12:50:58.137,-2.625,-18.8126
12:50:58.148,-1.5313,-19.0001
12:50:58.157,-1.25,-19.0626
12:50:58.167,-1.3438,-19.7501
12:50:58.177,-1.75,-20.3126
12:50:58.188,-2.0625,-21.3751
12:50:58.197,-1.375,-22.0001
12:50:58.207,-1.4375,-21.1876
12:50:58.217,-2,-23.6876
12:50:58.227,-2.2813,-23.1876
12:50:58.237,-3.0938,-25.3126
12:50:58.249,-3.7188,-26.1876
12:50:58.257,-3.2188,-26.0626
12:50:58.267,-2.2813,-25.7501
12:50:58.277,-1.5,-25.5001
12:50:58.287,0.0938,-23.9376
12:50:58.297,-0.375,-23.8751
12:50:58.307,-0.0938,-24.5626
12:50:58.317,-0.125,-24.7501
12:50:58.327,-0.5938,-25.6876
12:50:58.337,-0.75,-25.5001
12:50:58.356,1.0625,-24.5626
12:50:58.358,1.5313,-24.9376
12:50:58.394,1.9688,-22.9376
12:50:58.397,2.875,-24.0001
12:50:58.399,2.2813,-23.8751
12:50:58.401,0.75,-26.4376
12:50:58.407,-1.7813,-28.3126
12:50:58.452,-3.7188,-31.8126
12:50:58.453,-5.4375,-33.5626
12:50:58.455,-4.6563,-34.5001
12:50:58.457,-2.9063,-33.2501
12:50:58.461,1.125,-27.1876
12:50:58.500,7.4688,-17.2501
12:50:58.502,15.0313,-2.8125
12:50:58.504,22.2501,12.625
12:50:58.508,28.4376,27.7501
12:50:58.511,33.0939,39.1252
12:50:58.529,36.4064,48.0627
12:50:58.532,37.8751,54.3127
12:50:58.539,37.5939,56.8752
12:50:58.547,37.4376,58.0002
12:50:58.557,36.5626,58.5002
12:50:58.567,35.7814,56.8127
12:50:58.577,33.8439,55.1877
12:50:58.587,32.0314,51.9377
12:50:58.597,29.6564,49.5627
12:50:58.607,27.5314,46.5002
12:50:58.617,25.2501,43.8127
12:50:58.627,24.4688,41.5002
12:50:58.637,22.7188,39.3752
12:50:58.647,22.2188,39.4377
12:50:58.657,22.2813,37.8126
12:50:58.667,20.4063,35.6251
12:50:58.677,18.0001,32.7501
12:50:58.687,15.8438,28.1251
12:50:58.697,12.2813,24.7501
12:50:58.707,10.75,21.2501
12:50:58.717,8.7813,18.1251
12:50:58.744,8.3125,16.4376
12:50:58.748,9.0313,15.8126
12:50:58.749,9.3438,16.3126
12:50:58.757,9.125,16.1251
12:50:58.767,9.2188,14.7501
12:50:58.778,8.0313,14.1876
12:50:58.787,8.4375,14.0626
12:50:58.797,8.0938,13.1251
12:50:58.807,8.8125,13.6251
12:50:58.817,9.8125,13.7501
12:50:58.829,9.375,14.1251
12:50:58.837,9.625,13.3126
12:50:58.852,9.2813,12.3125
12:50:58.868,7.875,10.75
12:50:58.871,7.4688,8.5
12:50:58.882,5.25,5.0625
12:50:58.887,4.9688,4.6875
12:50:58.897,5.2188,4
12:50:58.907,6.0313,3.125
12:50:58.917,4.6875,1.125
12:50:58.932,2.9063,-0.875
12:50:58.947,0.9688,-3.1875
12:50:58.949,-1.0938,-7.1875
12:50:58.959,-2.75,-9.6875
12:50:58.967,-4.25,-12
12:50:58.977,-3.5,-13.3751
12:50:58.987,-4.2813,-15.6251
12:50:59.001,-3.8438,-14.7501
12:50:59.007,-3.5938,-16.3751
12:50:59.017,-4.2813,-17.8126
12:50:59.027,-6.0938,-19.9376
12:50:59.037,-8.0313,-21.8751
12:50:59.047,-9.5938,-24.1251
12:50:59.057,-10.1875,-27.0626
12:50:59.092,-10.9063,-28.4376
12:50:59.093,-11.2813,-28.9376
12:50:59.096,-10.1875,-28.5001
12:50:59.099,-9.1563,-28.4376
12:50:59.135,-9.3438,-29.6251
12:50:59.139,-10.6875,-31.1251
12:50:59.140,-12.8125,-34.3751
12:50:59.143,-15.0938,-37.6876
12:50:59.149,-17.1876,-39.5002
12:50:59.175,-17.8751,-41.0002
12:50:59.178,-17.3438,-41.5627
12:50:59.181,-17.4688,-42.4377
12:50:59.188,-17.0313,-42.3127
12:50:59.221,-16.7188,-43.7502
12:50:59.224,-17.7813,-44.1877
12:50:59.226,-19.0938,-46.6252
12:50:59.228,-20.4376,-47.7502
12:50:59.247,-21.6251,-50.0002
12:50:59.249,-22.0001,-49.6877
12:50:59.257,-20.8126,-51.1252
12:50:59.267,-20.5626,-49.8127
12:50:59.277,-20.4688,-50.4377
12:50:59.287,-19.6563,-51.0627
12:50:59.297,-20.6251,-51.5627
12:50:59.307,-21.6876,-54.0627
12:50:59.318,-23.0001,-55.8752
12:50:59.327,-22.6251,-55.9377
12:50:59.338,-19.3751,-51.6252
12:50:59.347,-12.8438,-41.3127
12:50:59.357,-5.0625,-25.6876
12:50:59.367,2.3438,-9.3125
12:50:59.377,8.2813,4.75
12:50:59.387,11.8125,16.1251
12:50:59.397,14.2501,23.5001
12:50:59.407,14.6251,29.5001
12:50:59.417,14.3751,32.7501
12:50:59.427,13.7813,32.6251
12:50:59.437,14.0313,32.7501
12:50:59.447,12.1875,32.1251
12:50:59.457,10.1875,28.6876
12:50:59.472,6.8438,25.4376
12:50:59.482,4.8125,21.8751
12:50:59.492,3.9375,20.6876
12:50:59.502,2.3438,17.6251
12:50:59.512,2.3438,16.6876
12:50:59.522,1.5,15.0001
12:50:59.532,1,15.6876
12:50:59.543,0.0938,13.2501
12:50:59.552,-1.8438,10.125
12:50:59.562,-3.75,7.125
12:50:59.572,-5.1875,5.0625
12:50:59.582,-6.0313,3.0625
12:50:59.592,-6,0.5625
12:50:59.602,-6,-0.5625
12:50:59.612,-5.75,-0.625
12:50:59.622,-6.2188,-2.0625
12:50:59.632,-9.375,-4.0625
12:50:59.643,-9.8438,-4.875
12:50:59.652,-9.3438,-4.4375
12:50:59.662,-8.875,-4.375
12:50:59.672,-7.6875,-4.3125
12:50:59.682,-5.3125,-2.1875
12:50:59.693,-3.5625,1.625
12:50:59.702,-1.6875,1.5
12:50:59.712,-2.0938,0.3125
12:50:59.723,-3.0938,-0.75
12:50:59.733,-4,-1.8125
12:50:59.742,-5.6563,-4.9375
12:50:59.753,-6.5,-4.6875
12:50:59.762,-6.8125,-6.9375
12:50:59.772,-7.3125,-8.4375
12:50:59.782,-7.0313,-9.5
12:50:59.793,-6.875,-11
12:50:59.803,-6.625,-10.75
12:50:59.812,-7.3125,-13.9376
12:50:59.823,-8.3125,-14.6876
12:50:59.832,-9.4063,-16.5626
12:50:59.842,-9.9688,-18.4376
12:50:59.865,-9.5,-19.1876
12:50:59.867,-10.9688,-21.5001
12:50:59.900,-11.4063,-22.6251
12:50:59.903,-11.75,-23.3751
12:50:59.904,-12.2813,-25.8126
12:50:59.907,-13.7501,-26.8126
12:50:59.912,-14.9688,-29.9376
12:50:59.922,-16.4376,-32.1876
12:50:59.953,-17.6251,-34.6251
12:50:59.956,-18.2188,-35.7501
12:50:59.958,-18.2813,-36.5001
12:50:59.965,-18.4688,-37.4376
12:50:59.992,-18.1876,-38.6251
12:50:59.995,-18.3126,-38.8126
12:50:59.996,-17.0938,-38.1876
12:51:00.020,-16.7813,-37.8751
12:51:00.023,-16.4376,-38.6251
12:51:00.026,-17.0001,-39.3127
12:51:00.039,-16.8438,-39.9377
12:51:00.042,-16.4688,-40.1252
12:51:00.055,-15.7501,-39.2502
12:51:00.062,-13.8126,-38.7501
12:51:00.072,-12.875,-37.1251
12:51:00.082,-12.4688,-37.8751
12:51:00.093,-11.5,-37.3751
12:51:00.102,-11.5,-38.4376
12:51:00.112,-12.5,-37.8751
12:51:00.122,-13.2188,-40.0627
12:51:00.132,-13.7188,-41.1252
12:51:00.142,-13.2501,-41.3127
12:51:00.157,-12.9375,-41.9377
12:51:00.172,-11.1563,-41.1252
12:51:00.175,-9.375,-39.6877
12:51:00.182,-5.625,-33.4376
12:51:00.192,0.7813,-22.4376
12:51:00.202,7.25,-8.125
12:51:00.212,13.0313,7
12:51:00.233,19.4688,21.5626
12:51:00.236,24.7501,33.9376
12:51:00.260,28.8439,43.8127
12:51:00.260,32.5939,52.1877
12:51:00.264,33.0939,57.0627
12:51:00.273,33.9689,59.0627
12:51:00.283,32.7501,58.3127
12:51:00.292,31.3126,58.0627
12:51:00.303,29.7189,55.0002
12:51:00.312,28.4689,53.6877
12:51:00.322,27.4376,52.8127
12:51:00.333,26.6251,50.5002
12:51:00.342,26.9689,50.6252
12:51:00.352,26.7814,50.3127
12:51:00.362,26.0626,50.1877
12:51:00.373,25.0626,48.6877
12:51:00.383,24.5938,46.6252
12:51:00.392,22.7813,44.1252
12:51:00.403,21.8438,41.6877
12:51:00.412,20.3751,40.1877
12:51:00.423,19.6876,37.2501
12:51:00.432,19.0001,35.8751
12:51:00.442,18.9688,35.0001
12:51:00.452,18.7188,35.0626
12:51:00.462,18.8751,34.8126
12:51:00.472,18.0001,32.3126
12:51:00.482,15.8126,30.2501
12:51:00.492,14.6876,29.0001
12:51:00.503,14.8438,28.8751
12:51:00.513,15.0313,29.1251
12:51:00.524,15.7813,30.0001
12:51:00.532,16.9688,31.3751
12:51:00.542,17.9376,31.5626
12:51:00.552,18.3751,31.5001
12:51:00.562,17.8751,30.7501
12:51:00.572,16.5313,29.6876
12:51:00.584,15.5626,27.0626
12:51:00.617,14.0626,24.8126
12:51:00.621,13.1563,23.1876
12:51:00.624,12.5625,21.3126
12:51:00.624,12.625,18.8751
12:51:00.659,12.8438,18.1251
12:51:00.662,11.875,18.0626
12:51:00.665,10.875,14.0001
12:51:00.667,8.8125,11.125
12:51:00.672,7.4063,8.3125
12:51:00.687,6.5625,7.0625
12:51:00.722,6.25,5.1875
12:51:00.722,5.3438,3.6875
12:51:00.726,5.3125,2.5625
12:51:00.727,5.5938,2.5625
12:51:00.733,6.5,1.625
12:51:00.765,4.7188,-0.4375
12:51:00.766,2.125,-3
12:51:00.768,0.7813,-5.125
12:51:00.774,-0.3125,-7.5
12:51:00.784,-0.8438,-9.9375
12:51:00.792,-1.2188,-11.625
12:51:00.803,-1.0938,-10.875
12:51:00.813,-0.625,-11.1875
12:51:00.822,-0.8438,-12.1875
12:51:00.832,-2.0313,-13.8751
12:51:00.842,-3.6563,-15.6876
12:51:00.852,-5.6563,-19.1251
12:51:00.862,-7.5938,-22.0626
12:51:00.874,-8.4063,-23.7501
12:51:00.882,-8.5938,-23.9376
12:51:00.892,-7.5313,-24.6876
12:51:00.902,-6.5625,-23.5626
12:51:00.913,-5.5,-22.1251
12:51:00.923,-4.5,-22.8126
12:51:00.932,-5.6563,-24.5001
12:51:00.942,-7.1563,-25.4376
12:51:00.953,-8.5938,-28.3126
12:51:00.962,-9.9063,-29.3126
12:51:00.972,-11.4375,-31.9376
12:51:00.982,-11.75,-33.1251
12:51:00.992,-11.3125,-34.1251
12:51:01.002,-9.9063,-32.9376
12:51:01.012,-8.7813,-32.8126
12:51:01.022,-7.5,-32.5001
12:51:01.032,-6.75,-31.8126
12:51:01.042,-7.2813,-32.0001
12:51:01.052,-5.625,-29.3126
12:51:01.062,-0.3125,-19.5626
12:51:01.072,6.3125,-5.375
12:51:01.082,14.8438,11.375
12:51:01.092,22.0001,29.0626
12:51:01.102,27.7814,42.8752
12:51:01.112,33.0626,54.7502
12:51:01.122,35.6876,63.2502
12:51:01.132,35.5314,67.0003
12:51:01.142,33.9064,67.8753
12:51:01.152,31.6876,68.1878
12:51:01.162,29.6251,65.3752
12:51:01.172,28.4689,64.8752
12:51:01.182,26.9689,63.0002
12:51:01.192,26.3126,61.5627
12:51:01.202,26.2814,60.8752
12:51:01.212,25.5313,60.2502
12:51:01.222,24.5001,58.2502
12:51:01.232,23.9688,58.0002
12:51:01.242,22.1876,55.8127
12:51:01.252,21.2501,54.0627
12:51:01.262,20.1251,53.2502
12:51:01.272,20.3126,51.2502
12:51:01.301,19.3126,49.0002
12:51:01.304,18.1563,48.6877
12:51:01.306,17.6251,45.5627
12:51:01.312,17.6251,45.4377
12:51:01.343,16.3438,42.7502
12:51:01.346,16.3438,41.9377
12:51:01.347,15.5626,41.5002
12:51:01.356,15.3126,40.8752
12:51:01.386,16.3751,40.4377
12:51:01.390,16.3751,41.6877
12:51:01.392,16.9688,41.5627
12:51:01.394,16.9688,42.1252
12:51:01.427,16.3751,40.6877
12:51:01.432,16.7501,40.2502
12:51:01.434,15.2188,39.0626
12:51:01.470,14.2813,37.0001
12:51:01.470,14.6876,35.8751
12:51:01.473,13.9688,35.6251
12:51:01.478,15.1251,34.9376
12:51:01.480,15.4688,34.5001
12:51:01.488,19.0001,37.7501
12:51:01.493,18.9063,35.8751
12:51:01.502,16.7188,32.7501
12:51:01.513,15.4688,29.5626
12:51:01.529,14.0938,26.9376
12:51:01.532,12.1875,23.9376
12:51:01.547,9.75,21.3126
12:51:01.554,10.0938,18.4376
12:51:01.562,8.7188,16.8751
12:51:01.572,7.7188,13.5001
12:51:01.582,6.3438,10.8125
12:51:01.592,4.7188,9.1875
12:51:01.602,3.5625,5.625
12:51:01.612,2.25,3.1875
12:51:01.624,2.5313,1.375
12:51:01.632,1.1563,0.25
12:51:01.643,0.4063,0.0625
12:51:01.652,0.2188,-2.75
12:51:01.662,-0.7188,-3.875
12:51:01.672,-2.1563,-7
12:51:01.682,-4.4375,-8.875
12:51:01.692,-6.7188,-12.125
12:51:01.702,-7.5938,-15.0626
12:51:01.712,-8.25,-15.8751
12:51:01.722,-7.6875,-16.9376
12:51:01.732,-6.6875,-16.0626
12:51:01.742,-6.875,-16.8751
12:51:01.752,-8.9375,-20.0626
12:51:01.762,-11.4688,-22.8751
12:51:01.772,-14.0626,-26.0626
12:51:01.782,-15.4688,-28.3751
12:51:01.792,-17.0313,-29.6251
12:51:01.802,-16.4376,-30.6251
12:51:01.812,-16.0313,-30.7501
12:51:01.822,-14.8126,-30.8126
12:51:01.832,-14.3438,-30.7501
12:51:01.842,-14.6251,-32.4376
12:51:01.853,-15.3438,-33.5001
12:51:01.862,-17.1251,-34.6251
12:51:01.872,-18.7501,-38.8126
12:51:01.882,-19.4688,-40.1877
12:51:01.892,-19.3126,-41.0002
12:51:01.902,-18.8751,-39.8752
12:51:01.912,-17.3751,-40.1877
12:51:01.922,-15.5938,-39.3752
12:51:01.932,-13.5626,-36.1876
12:51:01.942,-10.2813,-32.0626
12:51:01.953,-5.5938,-19.6876
12:51:01.962,0.9063,-4.1875
12:51:01.972,8.0313,10.6875
12:51:01.983,15.0313,26.5001
12:51:01.992,20.0938,40.9377
12:51:02.003,23.4063,49.7502
12:51:02.032,25.4063,57.0002
12:51:02.036,24.8126,60.9377
12:51:02.037,23.5626,61.0627
12:51:02.045,20.9376,59.1877
12:51:02.072,17.0938,57.9377
12:51:02.075,15.4688,53.8752
12:51:02.077,12.75,52.3127
12:51:02.083,11.6563,49.3127
12:51:02.123,10.5938,47.3752
12:51:02.124,10.5313,47.6252
12:51:02.126,11.4688,47.5002
12:51:02.164,11.8438,46.9377
12:51:02.165,10.375,44.9377
12:51:02.166,8.4688,43.8752
12:51:02.168,6.9688,40.2502
12:51:02.174,4.9375,37.6876
12:51:02.189,3.3125,34.6876
12:51:02.192,2.6563,32.7501
12:51:02.197,2.5625,32.1251
12:51:02.207,4.3438,32.1876
12:51:02.217,4.2813,32.1251
12:51:02.227,4.2188,31.1251
12:51:02.237,2.4375,28.9376
12:51:02.247,0.5313,28.0001
12:51:02.257,-0.6875,24.5626
12:51:02.269,-2.5938,23.7501
12:51:02.277,-2.7813,23.1876
12:51:02.287,-1.4688,23.4376
12:51:02.299,-1.25,24.2501
12:51:02.307,0.7188,25.8751
12:51:02.319,1.5313,26.0001
12:51:02.327,-0.9063,23.5626
12:51:02.337,-3.4063,19.3126
12:51:02.347,-6.25,16.0001
12:51:02.357,-8,12.375
12:51:02.367,-10.375,10
12:51:02.378,-10.9063,6.5
12:51:02.387,-11.6875,4.9375
12:51:02.397,-11.5,2.25
12:51:02.407,-12.4063,1.3125
12:51:02.417,-13.4063,-1.75
12:51:02.427,-15.6876,-3.875
12:51:02.437,-17.8438,-9.375
12:51:02.448,-20.3126,-12
12:51:02.457,-21.1251,-15.5001
12:51:02.467,-21.0626,-15.8126
12:51:02.477,-20.0001,-17.1876
12:51:02.487,-19.8751,-17.0626
12:51:02.497,-19.2188,-18.7501
12:51:02.507,-19.8126,-19.1251
12:51:02.518,-20.2501,-22.4376
12:51:02.527,-22.0001,-23.9376
12:51:02.537,-22.8751,-26.1251
12:51:02.548,-23.1563,-27.5626
12:51:02.557,-23.0001,-28.3126
12:51:02.582,-21.8751,-27.5626
12:51:02.584,-19.5313,-28.1251
12:51:02.592,-17.9688,-26.5001
12:51:02.597,-17.9063,-26.3751
12:51:02.607,-17.5626,-27.8126
12:51:02.617,-18.4063,-28.2501
12:51:02.628,-19.2501,-29.5001
12:51:02.637,-19.5313,-31.9376
12:51:02.647,-19.0626,-32.0001
12:51:02.657,-18.5001,-32.4376
12:51:02.667,-17.7501,-32.8126
12:51:02.677,-16.9688,-31.4376
12:51:02.687,-17.6876,-32.6876
12:51:02.697,-18.7813,-35.5001
12:51:02.708,-21.3751,-36.8126
12:51:02.717,-22.7188,-39.9377
12:51:02.727,-23.0938,-42.9377
12:51:02.752,-24.6563,-44.6877
12:51:02.753,-24.7813,-45.5627
12:51:02.768,-24.5001,-46.4377
12:51:02.770,-23.4376,-46.3127
12:51:02.777,-22.3751,-46.9377
12:51:02.790,-24.0001,-46.4377
12:51:02.802,-24.2813,-49.8127
12:51:02.807,-24.9688,-51.0627
12:51:02.866,-26.5939,-52.6877
12:51:02.867,-25.1563,-52.0627
12:51:02.869,-20.0938,-43.6877
12:51:02.878,-12.7813,-30.3751
12:51:02.878,-2.625,-11.1875
12:51:02.878,5.7813,7.625
12:51:02.887,12.7188,23.5626
12:51:02.911,16.9063,36.7501
12:51:02.914,19.4063,45.6877
12:51:02.914,19.8126,50.6877
12:51:02.922,19.4688,54.4377
12:51:02.955,19.4063,56.1252
12:51:02.959,19.3438,56.5002
12:51:02.961,19.4688,58.0627
12:51:02.968,18.8438,56.5627
12:51:02.977,18.8126,56.3127
12:51:02.982,17.8438,55.2502
12:51:02.992,15.9376,53.2502
12:51:03.002,14.8438,51.5627
12:51:03.012,14.7813,50.4377
12:51:03.023,15.0626,49.3127
12:51:03.032,13.6251,48.3752
12:51:03.042,13.125,47.7502
12:51:03.052,12.25,46.7502
12:51:03.063,12.0938,44.1877
12:51:03.073,8.5938,40.8127
12:51:03.082,5.8125,36.0001
12:51:03.092,3.5,32.8751
12:51:03.103,2.8438,31.3751
12:51:03.114,2.0938,30.5626
12:51:03.124,2.75,29.6251
12:51:03.132,3.25,30.0001
12:51:03.142,4.1563,32.3126
12:51:03.153,5.1875,31.8126
12:51:03.162,5.8438,33.4376
12:51:03.172,5.5625,33.7501
12:51:03.182,6.3125,34.8751
12:51:03.192,5.9688,34.1251
12:51:03.202,5.7188,33.8126
12:51:03.212,4.8438,32.3751
12:51:03.222,3.6875,30.8126
12:51:03.232,2.1875,27.6876
12:51:03.242,0.7813,25.6251
12:51:03.252,-0.75,22.0626
12:51:03.262,-3.4375,19.1251
12:51:03.272,-4.8125,15.8751
12:51:03.282,-6.6563,13
12:51:03.292,-7.25,10.5625
12:51:03.302,-9.5313,7.5
12:51:03.313,-8.8125,6.375
12:51:03.322,-9.9375,5.1875
12:51:03.332,-9.3438,3.6875
12:51:03.342,-10.6563,2.125
12:51:03.352,-12.25,-0.9375
12:51:03.363,-14.6563,-4.25
12:51:03.372,-15.9063,-7.375
12:51:03.382,-18.2813,-10.5
12:51:03.393,-18.7188,-12.5625
12:51:03.402,-20.9063,-14.8751
12:51:03.412,-19.6876,-16.3751
12:51:03.422,-20.4688,-17.4376
12:51:03.456,-19.6251,-18.2501
12:51:03.458,-20.6876,-19.2501
12:51:03.461,-21.2188,-21.4376
12:51:03.463,-22.8438,-23.1876
12:51:03.496,-22.7188,-24.5626
12:51:03.498,-23.8438,-26.4376
12:51:03.502,-23.1876,-26.6876
12:51:03.508,-23.1876,-26.7501
12:51:03.536,-22.8438,-27.8751
12:51:03.538,-23.6876,-28.9376
12:51:03.541,-24.0626,-30.7501
12:51:03.575,-26.8751,-33.1251
12:51:03.577,-30.6876,-38.4376
12:51:03.580,-36.0626,-44.1252
12:51:03.584,-44.0939,-51.3127
12:51:03.599,-53.1565,-58.6252
12:51:03.620,-64.6565,-69.5628
12:51:03.623,-78.0315,-80.3753
12:51:03.626,-94.2816,-95.2504
12:51:03.628,-106.2817,-107.2504
12:51:03.637,-116.9692,-116.6254
12:51:03.647,-135.1255,-132.813
12:51:03.657,-146.6255,-143.0005
12:51:03.667,-156.6569,-152.0631
12:51:03.677,-168.5319,-161.4381
12:51:03.688,-179.2507,-166.8756
12:51:03.697,-188.1257,-168.1881
12:51:03.707,-199.3758,-167.6881
12:51:03.717,-207.657,-165.6881
12:51:03.727,-208.282,-155.3756
12:51:03.737,-207.8133,-145.3755
12:51:03.747,-204.782,-133.063
12:51:03.757,-199.407,-118.813
12:51:03.767,-193.3757,-105.7504
12:51:03.777,-188.0945,-94.5004
12:51:03.788,-184.5007,-84.8753
12:51:03.797,-181.0632,-78.6253
12:51:03.809,-177.1882,-70.5003
12:51:03.817,-175.0007,-64.8127
12:51:03.829,-170.3756,-59.3127
12:51:03.837,-164.7194,-49.0002
12:51:03.865,-159.7819,-43.8752
12:51:03.868,-155.8443,-37.4376
12:51:03.870,-153.3443,-32.8751
12:51:03.877,-150.0006,-29.7501
12:51:03.887,-147.7818,-25.5626
12:51:03.898,-144.8755,-23.8751
12:51:03.907,-142.5005,-21.3126
12:51:03.918,-141.688,-18.6876
12:51:03.927,-140.7505,-19.7501
12:51:03.938,-139.1568,-19.3751
12:51:03.947,-139.1568,-19.5001
12:51:03.957,-136.938,-18.4376
12:51:03.968,-136.8755,-17.6251
12:51:03.977,-134.6568,-16.7501
12:51:03.987,-131.5318,-13.8751
12:51:03.997,-129.9692,-10.9375
12:51:04.007,-126.5317,-8.875
12:51:04.017,-121.3442,-4.1875
12:51:04.027,-116.1567,0.6875
12:51:04.047,-111.3129,4.6875
12:51:04.053,-105.6254,8.9375
12:51:04.068,-103.2191,12.5
12:51:04.071,-99.0629,12.3125
12:51:04.078,-96.9066,14.6876
12:51:04.087,-94.4691,14.9376
12:51:04.097,-92.2504,14.3751
12:51:04.107,-92.2191,12.8125
12:51:04.123,-91.7191,9.875
12:51:04.138,-92.6566,6.9375
12:51:04.141,-94.8441,2.3125
12:51:04.147,-96.4691,-2.875
12:51:04.157,-98.7191,-6.875
12:51:04.167,-101.2816,-12.0625
12:51:04.177,-102.6254,-16.6876
12:51:04.188,-104.6566,-21.3126
12:51:04.199,-105.5629,-26.1251
12:51:04.207,-106.3754,-28.8126
12:51:04.218,-106.3442,-31.8126
12:51:04.227,-108.0004,-35.5001
12:51:04.238,-108.0317,-38.0626
12:51:04.247,-108.7817,-41.3127
12:51:04.281,-109.1254,-44.6252
12:51:04.284,-109.9379,-47.7502
12:51:04.285,-110.9067,-51.2502
12:51:04.289,-111.1254,-54.1252
12:51:04.317,-111.1567,-55.5627
12:51:04.319,-111.0942,-58.8752
12:51:04.322,-111.1567,-60.5002
12:51:04.329,-110.4067,-62.2502
12:51:04.357,-110.5629,-64.0627
12:51:04.361,-109.7817,-65.6253
12:51:04.362,-109.5942,-66.0628
12:51:04.392,-109.1879,-67.3753
12:51:04.393,-108.4379,-67.7503
12:51:04.396,-108.1567,-67.9378
12:51:04.402,-106.9379,-67.9378
12:51:04.407,-105.8129,-68.3128
12:51:04.435,-103.9066,-66.6878
12:51:04.437,-102.0316,-65.5628
12:51:04.440,-97.0004,-61.9377
12:51:04.454,-90.8753,-55.3752
12:51:04.457,-84.5628,-50.8127
12:51:04.468,-81.8753,-48.8127
12:51:04.477,-80.9066,-48.1877
12:51:04.488,-80.9066,-50.9377
12:51:04.498,-83.3128,-53.1877
12:51:04.507,-84.4378,-57.8752
12:51:04.517,-85.8753,-58.3752
12:51:04.527,-85.3128,-58.3127
12:51:04.537,-81.7503,-51.8127
12:51:04.547,-77.8128,-43.1877
12:51:04.558,-72.3753,-29.9376
12:51:04.567,-65.6877,-15.6251
12:51:04.577,-59.2502,0.5625
12:51:04.588,-50.5002,18.0001
12:51:04.597,-43.9064,32.9376
12:51:04.610,-39.7189,45.2502
12:51:04.618,-36.9064,53.6252
12:51:04.633,-35.0939,59.4377
12:51:04.642,-34.2189,63.8752
12:51:04.652,-33.4689,66.8753
12:51:04.662,-33.1564,69.2503
12:51:04.672,-30.9064,71.5003
12:51:04.682,-28.6876,75.2503
12:51:04.692,-25.4688,78.3128
12:51:04.702,-22.0626,82.3753
12:51:04.713,-17.7188,86.5628
12:51:04.723,-13.1875,91.8754
12:51:04.732,-9.1563,94.4379
12:51:04.742,-6.25,97.8129
12:51:04.753,-4.0313,99.0004
12:51:04.763,-3.8438,98.3754
12:51:04.772,-4.1875,95.5629
12:51:04.783,-5.2188,93.6254
12:51:04.792,-7.4688,89.1878
12:51:04.802,-8.25,86.1253
12:51:04.812,-10.1563,82.6253
12:51:04.822,-12.75,77.1253
12:51:04.834,-14.7188,73.8128
12:51:04.842,-18.0001,69.8753
12:51:04.852,-20.6876,65.1252
12:51:04.862,-24.2501,60.8752
12:51:04.874,-26.5939,55.6877
12:51:04.882,-29.3126,51.7502
12:51:04.893,-32.7189,47.3752
12:51:04.902,-34.4064,42.9377
12:51:04.913,-37.0001,38.6251
12:51:04.922,-38.3126,34.5001
12:51:04.932,-39.4377,31.8126
12:51:04.955,-41.1252,27.0626
12:51:04.957,-41.7502,23.8126
12:51:04.994,-43.2502,19.5001
12:51:05.000,-44.3127,15.4376
12:51:05.000,-45.8752,11.1875
12:51:05.001,-46.5939,6.4375
12:51:05.003,-47.6877,2.25
12:51:05.033,-49.8439,-2.25
12:51:05.035,-50.7502,-6.875
12:51:05.039,-51.8127,-9.8125
12:51:05.043,-51.7189,-13.6251
12:51:05.054,-53.0002,-16.0001
12:51:05.089,-53.6565,-19.2501
12:51:05.091,-55.4377,-22.8751
12:51:05.093,-55.7815,-25.7501
12:51:05.096,-56.344,-29.1251
12:51:05.103,-57.2815,-32.2501
12:51:05.144,-57.469,-33.7501
12:51:05.146,-56.4377,-35.5001
12:51:05.149,-54.7502,-35.1876
12:51:05.151,-53.344,-35.5001
12:51:05.155,-51.3439,-34.6251
12:51:05.162,-49.1252,-34.8126
12:51:05.173,-48.1877,-34.5001
12:51:05.184,-47.0627,-33.2501
12:51:05.193,-44.8127,-32.6876
12:51:05.202,-41.6252,-29.9376
12:51:05.218,-38.9064,-26.9376
12:51:05.223,-37.2189,-27.0626
12:51:05.234,-35.9689,-26.0626
12:51:05.242,-37.6251,-27.5626
12:51:05.253,-37.1876,-29.0626
12:51:05.262,-38.2501,-30.9376
12:51:05.274,-40.0002,-33.3751
12:51:05.284,-42.0314,-35.9376
12:51:05.293,-44.3127,-38.0626
12:51:05.302,-45.4689,-40.8752
12:51:05.313,-46.7189,-42.6252
12:51:05.322,-47.1252,-44.3127
12:51:05.332,-47.8127,-44.8127
12:51:05.349,-48.6877,-46.8752
12:51:05.352,-48.5314,-47.3752
12:51:05.364,-48.2814,-48.8127
12:51:05.381,-48.4689,-47.5627
12:51:05.387,-46.4377,-46.0002
12:51:05.395,-43.6252,-39.2501
12:51:05.403,-39.0001,-28.1251
12:51:05.418,-32.6564,-15.6876
12:51:05.427,-27.1564,-0.5625
12:51:05.432,-20.9688,13.3751
12:51:05.451,-16.3438,26.3126
12:51:05.453,-12.4063,38.5626
12:51:05.468,-9.7813,46.2502
12:51:05.473,-8.375,54.3752
12:51:05.483,-6.0313,58.9377
12:51:05.492,-2.4375,65.8128
12:51:05.503,1.25,72.0628
12:51:05.513,4.2188,76.1253
12:51:05.523,6.1875,79.5003
12:51:05.534,7.75,79.8128
12:51:05.543,7.875,80.0003
12:51:05.552,7.1875,78.1253
12:51:05.564,6.7188,76.7503
12:51:05.573,6.2813,75.3753
12:51:05.583,7.1563,75.4378
12:51:05.593,7.5313,75.5003
12:51:05.602,6.6875,74.1878
12:51:05.614,5.0625,71.9378
12:51:05.623,2.9688,67.6253
12:51:05.634,1.6563,64.8752
12:51:05.643,-1.375,60.5627
12:51:05.653,-3.3125,55.5002
12:51:05.665,-6.4375,52.3127
12:51:05.673,-7.875,47.6252
12:51:05.682,-10.5313,44.1252
12:51:05.707,-11.8438,40.0627
12:51:05.709,-14.3751,37.6251
12:51:05.725,-15.2813,34.3126
12:51:05.727,-17.4063,31.6876
12:51:05.765,-19.2188,28.2501
12:51:05.767,-21.7188,25.5626
12:51:05.768,-22.3751,21.6876
12:51:05.775,-24.1251,19.1251
12:51:05.775,-24.5938,15.8751
12:51:05.788,-26.2501,13.7501
12:51:05.795,-26.5314,11.0625
12:51:05.823,-27.7814,8.875
12:51:05.827,-28.4064,4.875
12:51:05.828,-29.5939,2
12:51:05.834,-31.0626,-2.4375
12:51:05.843,-32.2189,-5.375
12:51:05.868,-33.5626,-7.75
12:51:05.870,-33.9376,-10.8125
12:51:05.873,-34.6564,-14.0001
12:51:05.884,-34.4376,-16.3751
12:51:05.892,-35.2189,-18.6876
12:51:05.904,-35.3439,-20.9376
12:51:05.912,-35.5001,-23.6876
12:51:05.924,-36.6251,-26.0626
12:51:05.933,-36.0939,-26.7501
12:51:05.942,-35.4376,-28.0626
12:51:05.954,-34.0001,-28.4376
12:51:05.970,-33.2814,-27.8126
12:51:05.973,-32.2814,-28.3126
12:51:05.982,-31.2501,-28.6251
12:51:05.992,-29.9376,-28.5626
12:51:06.002,-28.0001,-26.7501
12:51:06.012,-27.3126,-27.3126
12:51:06.024,-26.1251,-27.5626
12:51:06.033,-25.5313,-26.6876
12:51:06.042,-25.5626,-28.8751
12:51:06.055,-25.2501,-28.5001
12:51:06.063,-26.2813,-28.2501
12:51:06.073,-27.6564,-31.5626
12:51:06.082,-29.4376,-32.8126
12:51:06.093,-30.7814,-33.4376
12:51:06.103,-31.1564,-32.9376
12:51:06.115,-31.8439,-34.9376
12:51:06.124,-34.0314,-37.7501
12:51:06.133,-34.3126,-38.1876
12:51:06.142,-34.7501,-39.4377
12:51:06.153,-33.5001,-38.6251
12:51:06.162,-33.6564,-38.1876
12:51:06.174,-32.9064,-39.3752
12:51:06.182,-34.5626,-40.3127
12:51:06.194,-34.1564,-41.1877
12:51:06.202,-34.5939,-41.6877
12:51:06.213,-33.2814,-41.6877
12:51:06.222,-32.2189,-39.5002
12:51:06.233,-28.9689,-33.3126
12:51:06.242,-23.1563,-23.5626
12:51:06.253,-18.1563,-9.125
12:51:06.263,-11.6875,4.75
12:51:06.272,-4.375,20.4376
12:51:06.284,4.5938,38.5626
12:51:06.293,12.2813,54.2502
12:51:06.303,18.6876,66.2503
12:51:06.312,23.0938,77.9378
12:51:06.324,27.7189,84.7503
12:51:06.332,30.3439,91.2504
12:51:06.344,31.8751,93.9379
12:51:06.353,33.5939,96.3129
12:51:06.362,33.8439,96.5004
12:51:06.374,33.2501,97.5004
12:51:06.410,33.2814,95.4379
12:51:06.412,31.1564,93.3754
12:51:06.415,29.1564,90.4379
12:51:06.428,26.4689,85.9378
12:51:06.431,24.0626,83.6253
12:51:06.433,21.9063,79.5003
12:51:06.467,18.8126,76.3128
12:51:06.469,15.1251,71.1878
12:51:06.473,11.9688,64.4377
12:51:06.476,7.1875,58.9377
12:51:06.507,3.1875,51.0627
12:51:06.507,-0.8125,45.0002
12:51:06.538,-4.5313,39.8752
12:51:06.541,-8.5625,34.0001
12:51:06.543,-10.8125,29.5001
12:51:06.544,-12.2188,26.8751
12:51:06.551,-12.8438,24.2501
12:51:06.553,-14.2813,22.6251
12:51:06.563,-15.1563,20.1251
12:51:06.573,-15.4376,16.5626
12:51:06.583,-16.5001,14.1876
12:51:06.593,-16.9688,11.625
12:51:06.603,-18.2501,9.375
12:51:06.616,-19.2188,6.9375
12:51:06.623,-19.7501,2.625
12:51:06.634,-21.5313,-0.125
12:51:06.643,-22.6251,-3.5
12:51:06.653,-24.2501,-7.625
12:51:06.674,-26.4064,-10.1875
12:51:06.677,-27.5626,-15.3126
12:51:06.685,-29.3751,-17.5626
12:51:06.708,-30.1251,-21.8126
12:51:06.714,-31.8439,-23.5001
12:51:06.727,-31.3439,-25.8126
12:51:06.729,-31.8751,-26.2501
12:51:06.746,-30.6251,-27.5001
12:51:06.748,-29.5939,-27.3751
12:51:06.767,-28.0314,-27.6251
12:51:06.778,-26.9064,-26.8751
12:51:06.780,-25.1563,-27.6251
12:51:06.790,-22.3126,-25.6251
12:51:06.798,-21.2501,-24.2501
12:51:06.808,-17.0938,-21.9376
12:51:06.817,-13.9063,-18.1876
12:51:06.829,-12.9063,-16.0626
12:51:06.838,-13.2501,-18.1876
12:51:06.848,-13.2501,-19.0001
12:51:06.858,-13.5938,-19.6251
12:51:06.870,-16.2501,-24.3126
12:51:06.877,-20.3751,-27.3126
12:51:06.888,-23.5626,-31.2501
12:51:06.897,-25.4376,-31.8751
12:51:06.908,-26.6876,-34.3751
12:51:06.918,-28.3751,-34.8126
12:51:06.931,-30.0626,-36.7501
12:51:06.938,-30.5001,-37.7501
12:51:06.950,-29.5939,-37.1876
12:51:06.958,-27.3439,-35.9376
12:51:06.968,-27.6251,-35.9376
12:51:06.978,-26.4064,-37.4376
12:51:06.988,-27.3751,-38.2501
12:51:06.998,-27.0314,-40.1252
12:51:07.008,-28.0314,-42.0627
12:51:07.018,-27.6564,-43.0002
12:51:07.028,-26.9376,-42.5627
12:51:07.038,-22.9376,-37.6876
12:51:07.048,-17.2188,-27.8751
12:51:07.058,-8.2813,-13.5626
12:51:07.071,0.1875,2.75
12:51:07.077,8.5,17.9376
12:51:07.087,15.5313,32.4376
12:51:07.098,21.7813,45.1252
12:51:07.111,26.2188,55.9377
12:51:07.133,29.3439,63.1252
12:51:07.136,31.6876,68.6878
12:51:07.138,32.4064,72.0628
12:51:07.176,32.8751,73.9378
12:51:07.177,31.8126,73.4378
12:51:07.181,31.0001,73.1253
12:51:07.183,28.4689,70.5628
12:51:07.188,26.0001,68.4378
12:51:07.228,23.0001,64.6252
12:51:07.232,19.9376,61.0627
12:51:07.234,17.4376,58.1252
12:51:07.236,13.6563,54.4377
12:51:07.238,11.7188,50.7502
12:51:07.271,8.6875,46.5627
12:51:07.273,5.25,42.1252
12:51:07.276,2.2813,38.5001
12:51:07.296,-0.9688,33.5001
12:51:07.297,-3.8438,28.8126
12:51:07.299,-6.625,22.9376
12:51:07.308,-8.5,19.0626
12:51:07.318,-10.7188,15.6251
12:51:07.329,-11.5938,12.6875
12:51:07.338,-12.3438,10.9375
12:51:07.348,-13,8.5625
12:51:07.361,-13.4063,6.75
12:51:07.369,-13.9376,5.0625
12:51:07.378,-14.7813,3.4375
12:51:07.387,-15.8126,1.75
12:51:07.398,-16.6251,0.1875
12:51:07.408,-17.6876,-1.375
12:51:07.418,-18.0938,-2.6875
12:51:07.428,-18.6876,-5.3125
12:51:07.438,-19.0313,-6
12:51:07.450,-18.9688,-8.875
12:51:07.460,-19.5938,-10.4375
12:51:07.468,-19.5001,-11.8125
12:51:07.485,-19.1251,-13.8751
12:51:07.488,-20.2501,-16.3751
12:51:07.503,-20.0001,-18.9376
12:51:07.515,-20.5938,-19.8126
12:51:07.523,-18.3751,-20.4376
12:51:07.533,-15.1251,-19.3751
12:51:07.543,-13.7813,-18.8751
12:51:07.553,-10.9688,-17.0626
12:51:07.565,-10.6875,-18.0626
12:51:07.574,-9.875,-17.1876
12:51:07.583,-10.7813,-19.7501
12:51:07.593,-12.2188,-22.6251
12:51:07.603,-13.1875,-23.9376
12:51:07.615,-14.6251,-27.1876
12:51:07.623,-16.4688,-29.3751
12:51:07.633,-19.0938,-32.1251
12:51:07.643,-21.1563,-34.6251
12:51:07.653,-22.5001,-35.8126
12:51:07.663,-24.2813,-37.4376
12:51:07.674,-24.5938,-39.0001
12:51:07.701,-25.4376,-39.5002
12:51:07.705,-26.3126,-42.0002
12:51:07.706,-26.3126,-42.8752
12:51:07.713,-27.8126,-43.5002
12:51:07.723,-28.1564,-45.6877
12:51:07.733,-29.2189,-47.5627
12:51:07.743,-29.3126,-49.1252
12:51:07.753,-29.6876,-49.6877
12:51:07.763,-29.2189,-50.5627
12:51:07.773,-29.5314,-51.1252
12:51:07.783,-28.9376,-51.6252
12:51:07.794,-28.3126,-52.4377
12:51:07.803,-28.6251,-53.4377
12:51:07.813,-27.4064,-53.1252
12:51:07.823,-26.7189,-54.3127
12:51:07.833,-25.3751,-53.9377
12:51:07.857,-23.7813,-53.1252
12:51:07.860,-23.0001,-53.3752
12:51:07.863,-20.3126,-52.9377
12:51:07.905,-18.5313,-50.8752
12:51:07.909,-13.7188,-45.3127
12:51:07.911,-8.6875,-36.4376
12:51:07.914,-2.875,-24.8751
12:51:07.917,3.3125,-12.4375
12:51:07.925,8.4688,-0.9375
12:51:07.951,12.0938,8.625
12:51:07.953,13.9376,15.6251
12:51:07.956,14.5001,21.8126
12:51:07.987,14.8751,25.0626
12:51:08.037,14.5938,26.1876
12:51:08.051,12.8438,26.6251
12:51:08.053,11.4375,25.8126
12:51:08.068,8.8125,23.5001
12:51:08.071,6.4063,21.1876
12:51:08.071,3.2188,17.5001
12:51:08.083,1.2188,15.8751
12:51:08.085,-1,13
12:51:08.102,-1.7813,12.9375
12:51:08.117,-2.75,10.4375
12:51:08.118,-4.1875,11
12:51:08.135,-5.0313,8.6875
12:51:08.136,-6.3438,7.625
12:51:08.138,-8.375,4.4375
12:51:08.144,-10.1563,2.5625
12:51:08.153,-10.0313,0.6875
12:51:08.164,-10.8438,-1.125
12:51:08.173,-11.0625,-1.125
12:51:08.183,-11.25,-3.125
12:51:08.193,-11.625,-3.8125
12:51:08.203,-12.75,-5.1875
12:51:08.213,-12.375,-5.8125
12:51:08.223,-12.4688,-6.6875
12:51:08.233,-10.7813,-5.8125
12:51:08.243,-10.3125,-4.8125
12:51:08.253,-9.2188,-3.25
12:51:08.263,-8.7188,-3.8125
12:51:08.273,-9.2188,-4
12:51:08.283,-10.5,-4.375
12:51:08.293,-11.8125,-5.9375
12:51:08.303,-13.9688,-8.875
12:51:08.313,-14.5626,-10.25
12:51:08.323,-15.9376,-13
12:51:08.333,-15.6876,-14.1876
12:51:08.343,-16.6876,-14.6876
12:51:08.353,-15.6563,-15.5001
12:51:08.363,-17.2501,-15.0001
12:51:08.373,-16.5626,-18.2501
12:51:08.384,-16.5001,-17.6876
12:51:08.393,-15.9688,-18.3126
12:51:08.407,-16.0626,-19.6876
12:51:08.413,-16.0001,-20.4376
12:51:08.423,-16.8438,-23.3751
12:51:08.433,-16.5626,-23.7501
12:51:08.443,-17.6563,-22.9376
12:51:08.453,-17.2813,-26.4376
12:51:08.463,-18.0938,-25.8751
12:51:08.473,-17.5626,-28.6876
12:51:08.483,-16.9376,-29.5626
12:51:08.493,-17.9376,-30.7501
12:51:08.504,-13.8438,-29.8126
12:51:08.513,2.9688,-14.2501
12:51:08.524,28.7814,11.1875
12:51:08.534,43.8439,28.3751
12:51:08.544,57.844,47.2502
12:51:08.553,66.3753,56.1877
12:51:08.591,65.2815,58.0627
12:51:08.593,55.4065,50.5627
12:51:08.596,45.7189,41.0002
12:51:08.601,37.9064,35.1876
12:51:08.608,36.7189,33.6876
12:51:08.618,42.3127,39.4377
12:51:08.639,47.6877,44.3752
12:51:08.641,47.8127,43.8127
12:51:08.668,40.9689,35.5626
12:51:08.671,34.3439,27.5626
12:51:08.673,25.5938,16.0626
12:51:08.679,15.6876,6.5
12:51:08.717,7.6875,-2.625
12:51:08.720,3.7188,-8.0625
12:51:08.723,1.4375,-9.8125
12:51:08.727,0.8125,-11.5
12:51:08.729,0.4375,-13.7501
12:51:08.757,2.1875,-13.7501
12:51:08.760,6.4688,-12
12:51:08.762,15.0001,-3.625
12:51:08.768,27.0001,11.6875
12:51:08.803,38.9064,30.3751
12:51:08.805,49.3752,46.8127
12:51:08.807,59.344,63.0627
12:51:08.811,68.844,77.1253
12:51:08.825,77.4065,91.3129
12:51:08.828,88.0316,103.6254
12:51:08.838,98.6254,115.0004
12:51:08.848,110.5317,125.0005
12:51:08.858,128.8442,141.813
12:51:08.868,137.7193,149.7506
12:51:08.878,143.1255,153.8131
12:51:08.888,151.0631,156.6881
12:51:08.898,159.6256,164.0006
12:51:08.908,167.8756,169.2506
12:51:08.919,173.1569,173.3132
12:51:08.928,175.8132,174.4382
12:51:08.938,177.9694,176.5632
12:51:08.948,181.2819,177.0007
12:51:08.981,184.032,178.6882
12:51:08.984,186.657,179.9382
12:51:08.986,190.0632,182.5632
12:51:08.988,194.532,185.3757
12:51:08.998,195.9382,186.9382
12:51:09.008,198.4695,188.5007
12:51:09.018,199.657,188.3132
12:51:09.029,200.0633,188.7507
12:51:09.038,201.4695,189.5007
12:51:09.048,203.0633,189.5632
12:51:09.058,206.1883,193.2507
12:51:09.068,208.0633,195.0632
12:51:09.078,209.8445,197.5008
12:51:09.088,208.657,196.6882
12:51:09.098,206.907,197.2507
12:51:09.108,204.8133,194.1257
12:51:09.119,202.9695,192.4382
12:51:09.131,201.907,190.8757
12:51:09.138,198.8758,188.9382
12:51:09.148,198.7508,187.5007
12:51:09.158,196.8757,186.1257
12:51:09.168,197.4382,185.4382
12:51:09.178,196.0945,183.9382
12:51:09.188,194.2507,182.5632
12:51:09.200,192.3757,179.5007
12:51:09.208,188.907,175.8757
12:51:09.218,185.7507,172.5007
12:51:09.228,182.282,167.4381
12:51:09.238,176.6569,161.8756
12:51:09.248,172.3132,156.7506
12:51:09.258,168.5319,150.6256
12:51:09.280,164.9381,146.563
12:51:09.283,162.1256,142.688
12:51:09.310,158.7194,137.6255
12:51:09.312,154.5631,133.688
12:51:09.315,150.4693,127.1255
12:51:09.320,146.938,123.2505
12:51:09.351,142.9068,117.3754
12:51:09.386,138.2818,111.6254
12:51:09.389,133.313,105.6879
12:51:09.434,129.813,100.5004
12:51:09.435,125.4067,95.7504
12:51:09.435,121.5317,91.1254
12:51:09.436,117.438,85.7503
12:51:09.437,113.3442,80.5628
12:51:09.466,109.1879,75.6253
12:51:09.467,105.6254,69.4378
12:51:09.467,100.6566,64.4377
12:51:09.468,95.4379,57.4377
12:51:09.475,89.7816,50.3127
12:51:09.483,86.6566,46.0627
12:51:09.494,84.7191,41.8752
12:51:09.503,81.4066,38.1251
12:51:09.513,78.5628,33.5626
12:51:09.523,75.2815,29.4376
12:51:09.533,72.0315,24.8126
12:51:09.543,69.3128,19.8751
12:51:09.553,65.594,15.6876
12:51:09.563,60.0315,8.3125
12:51:09.573,52.4377,-3.4375
12:51:09.583,49.5314,-6.5
12:51:09.593,48.5002,-8.125
12:51:09.603,52.3439,-3.1875
12:51:09.613,57.3127,6.8125
12:51:09.623,72.7503,39.3126
12:51:09.633,75.594,47.0627
12:51:09.644,76.3128,52.9377
12:51:09.653,75.5315,54.9377
12:51:09.663,74.7503,55.1877
12:51:09.673,72.9065,54.0002
12:51:09.683,71.094,51.4377
12:51:09.693,68.7503,48.3127
12:51:09.703,65.969,45.2502
12:51:09.715,64.6252,43.2502
12:51:09.724,63.5002,41.4377
12:51:09.736,64.6252,41.0627
12:51:09.743,64.2815,40.7502
12:51:09.753,64.6877,39.6877
12:51:09.763,63.1252,38.7501
12:51:09.773,61.8752,37.0001
12:51:09.783,59.2815,34.5626
12:51:09.793,56.9377,30.7501
12:51:09.803,53.6252,27.3751
12:51:09.813,52.1564,24.5001
12:51:09.823,52.2502,22.0001
12:51:09.835,51.7189,21.8751
12:51:09.845,52.0627,21.0001
12:51:09.854,52.8127,21.3751
12:51:09.865,53.719,22.0626
12:51:09.873,53.094,21.5626
12:51:09.883,52.5002,20.8126
12:51:09.893,51.4377,19.6876
12:51:09.903,50.1252,18.4376
12:51:09.913,50.2502,18.4376
12:51:09.923,51.0627,18.4376
12:51:09.933,50.8752,19.6251
12:51:09.949,51.4377,19.8751
12:51:09.955,50.3439,17.8751
12:51:09.965,47.6564,15.1876
12:51:09.976,44.8127,11.9375
12:51:09.985,41.2502,7.75
12:51:09.993,37.9689,3.5
12:51:10.003,36.0001,-1.0625
12:51:10.013,34.0314,-3.375
12:51:10.023,33.3126,-4.625
12:51:10.033,32.8126,-6.875
12:51:10.045,31.9689,-8.8125
12:51:10.054,31.0314,-11.25
12:51:10.063,29.0314,-13.6876
12:51:10.091,28.0626,-16.6876
12:51:10.093,25.3438,-19.2501
12:51:10.096,22.9688,-22.9376
12:51:10.126,19.5001,-27.1876
12:51:10.128,15.8438,-33.6251
12:51:10.131,13.4376,-38.4376
12:51:10.133,12.375,-41.1877
12:51:10.173,10.7813,-43.0627
12:51:10.175,9.5,-45.0627
12:51:10.176,9.3438,-47.9377
12:51:10.185,7.2188,-49.2502
12:51:10.187,6.1563,-52.9377
12:51:10.218,3.0625,-55.5002
12:51:10.220,1.0938,-58.6877
12:51:10.222,-1.4375,-61.5627
12:51:10.224,-3.2188,-65.1877
12:51:10.263,-5.8438,-67.8753
12:51:10.266,-6.9375,-70.0003
12:51:10.268,-8.6563,-71.8753
12:51:10.281,-9.8438,-74.3128
12:51:10.286,-12.3438,-76.5628
12:51:10.287,-14.5626,-80.3753
12:51:10.294,-16.4376,-83.0628
12:51:10.306,-17.6563,-84.6878
12:51:10.314,-18.9688,-85.8753
12:51:10.324,-19.4376,-87.2503
12:51:10.333,-19.6876,-87.5003
12:51:10.344,-20.3438,-89.1878
12:51:10.353,-22.1876,-91.6879
12:51:10.365,-22.6251,-93.0004
12:51:10.373,-24.2501,-94.6254
12:51:10.384,-25.4063,-95.5629
12:51:10.393,-26.0001,-97.6879
12:51:10.403,-24.1876,-94.3129
12:51:10.413,-20.2501,-86.6253
12:51:10.423,-13.8126,-75.1878
12:51:10.435,-6.6875,-59.1252
12:51:10.445,0.0938,-45.9377
12:51:10.453,5.1875,-32.3751
12:51:10.463,9.0313,-24.0001
12:51:10.473,10.6563,-17.2501
12:51:10.483,11.5938,-13.8751
12:51:10.493,11.125,-13.4376
12:51:10.503,9.9688,-14.1876
12:51:10.513,8.3438,-15.7501
12:51:10.526,5.7188,-17.8751
12:51:10.533,3.5313,-22.1876
12:51:10.543,2.1875,-23.2501
12:51:10.553,0.1875,-25.1876
12:51:10.563,-0.7188,-28.4376
12:51:10.573,-1.5938,-29.0626
12:51:10.583,-3,-31.8751
12:51:10.593,-4.0625,-33.3751
12:51:10.605,-4.0625,-34.2501
12:51:10.616,-4.9688,-36.2501
12:51:10.623,-5.2188,-37.2501
12:51:10.633,-5.375,-38.1876
12:51:10.643,-6.4688,-40.2502
12:51:10.653,-7.5625,-43.1252
12:51:10.664,-8.7813,-44.5002
12:51:10.675,-7.875,-44.8752
12:51:10.685,-8.0938,-45.1252
12:51:10.700,-7.5625,-45.4377
12:51:10.703,-7.1563,-44.2502
12:51:10.719,-6.0313,-43.6877
12:51:10.728,-6.2188,-44.1877
12:51:10.733,-6.2188,-43.7502
12:51:10.769,-6.1875,-43.2502
12:51:10.771,-5.4063,-43.2502
12:51:10.801,-4.8125,-41.6252
12:51:10.830,-5.0313,-42.4377
12:51:10.858,-3.8438,-41.8752
12:51:10.862,-3.5313,-40.1252
12:51:10.863,-4,-41.5002
12:51:10.867,-4.75,-42.0627
12:51:10.867,-5.5625,-43.6877
12:51:10.869,-7.1875,-45.3752
12:51:10.906,-8.7188,-48.3752
12:51:10.909,-9.4063,-50.7502
12:51:10.911,-11.875,-53.3752
12:51:10.913,-12.4063,-55.5002
12:51:10.919,-14.4688,-57.2502
12:51:10.929,-14.9688,-59.1877
12:51:10.938,-15.2813,-60.0627
12:51:10.948,-16.5001,-61.8752
12:51:10.959,-17.5938,-64.0627
12:51:10.969,-18.4063,-66.0628
12:51:10.980,-20.5626,-67.0003
12:51:10.988,-22.1876,-71.0003
12:51:10.998,-23.2813,-73.0628
12:51:11.008,-24.3438,-74.5003
12:51:11.018,-25.4688,-76.3128
12:51:11.028,-30.1251,-86.3753
12:51:11.040,-31.4689,-88.8753
12:51:11.048,-32.5001,-90.8754
12:51:11.058,-32.6876,-91.1879
12:51:11.068,-33.6251,-92.4379
12:51:11.082,-33.8126,-92.3754
12:51:11.088,-34.4064,-93.8754
12:51:11.099,-34.8126,-95.5004
12:51:11.109,-36.7501,-96.4379
12:51:11.118,-37.0939,-97.3129
12:51:11.129,-38.2814,-99.1254
12:51:11.138,-38.3126,-99.9379
12:51:11.148,-39.0314,-100.8129
12:51:11.158,-39.4064,-100.1879
12:51:11.169,-39.4689,-101.1879
12:51:11.180,-39.6252,-103.1254
12:51:11.188,-38.9376,-102.0629
12:51:11.198,-39.0939,-103.5629
12:51:11.208,-38.8126,-102.9379
12:51:11.218,-38.0001,-101.9379
12:51:11.229,-39.2501,-103.6879
12:51:11.238,-39.9377,-104.7504
12:51:11.248,-40.6877,-106.8754
12:51:11.258,-38.8126,-103.4379
12:51:11.268,-34.6251,-93.5629
12:51:11.278,-26.4376,-81.2503
12:51:11.289,-18.5001,-63.7502
12:51:11.298,-10.9063,-48.6877
12:51:11.308,-3.125,-34.1251
12:51:11.318,1.6563,-22.5001
12:51:11.328,5.9063,-13.8126
12:51:11.338,7.4375,-9.25
12:51:11.348,8.3125,-7
12:51:11.359,7.9688,-6.5625
12:51:11.371,7,-8.0625
12:51:11.379,4.9063,-9.6875
12:51:11.388,3.3125,-12.125
12:51:11.398,1.5625,-14.2501
12:51:11.408,-0.0625,-17.6251
12:51:11.419,-0.5,-18.1251
12:51:11.429,-0.5938,-18.1251
12:51:11.438,0.0938,-19.0626
12:51:11.448,1.1563,-18.6251
12:51:11.458,-0.4375,-19.5001
12:51:11.469,-0.125,-20.2501
12:51:11.480,-1,-20.8751
12:51:11.488,-1.625,-22.7501
12:51:11.498,-3.25,-24.8126
12:51:11.508,-4.4063,-27.5626
12:51:11.541,-6.5625,-29.7501
12:51:11.543,-7.375,-32.4376
12:51:11.546,-7.7188,-32.8751
12:51:11.551,-8.125,-34.8751
12:51:11.562,-8.5,-35.0626
12:51:11.589,-9,-36.1876
12:51:11.592,-10.1563,-36.3126
12:51:11.595,-10.5625,-37.8751
12:51:11.634,-10.0313,-37.6251
12:51:11.636,-10.75,-36.6876
12:51:11.639,-10.375,-37.3751
12:51:11.641,-10.5625,-36.5001
12:51:11.647,-10.25,-38.3126
12:51:11.677,-9.4375,-38.1251
12:51:11.679,-10,-38.5626
12:51:11.681,-9.375,-39.1876
12:51:11.705,-10.375,-40.0002
12:51:11.707,-10.9063,-41.5627
12:51:11.708,-11.4063,-42.3752
12:51:11.714,-13.2813,-45.5627
12:51:11.723,-15.0626,-47.4377
12:51:11.733,-17.1563,-49.4377
12:51:11.743,-17.4376,-52.6252
12:51:11.753,-18.1563,-53.6252
12:51:11.763,-19.0313,-55.5627
12:51:11.774,-18.9376,-56.9377
12:51:11.784,-18.4376,-57.8127
12:51:11.799,-19.5001,-58.5002
12:51:11.808,-20.2188,-59.9377
12:51:11.818,-21.0938,-62.3127
12:51:11.834,-22.0001,-63.0627
12:51:11.840,-22.5626,-64.0002
12:51:11.849,-23.0001,-65.8753
12:51:11.858,-23.3438,-66.7503
12:51:11.870,-23.8126,-67.5628
12:51:11.879,-24.6251,-68.4378
12:51:11.889,-24.7813,-69.5628
12:51:11.898,-25.4063,-70.4378
12:51:11.908,-25.2188,-71.5003
12:51:11.919,-26.0938,-72.5003
12:51:11.928,-27.2189,-73.6878
12:51:11.939,-27.5314,-73.4378
12:51:11.952,-27.5001,-74.5628
12:51:11.958,-27.3439,-76.1253
12:51:11.968,-27.2814,-76.4378
12:51:11.979,-26.6876,-76.5628
12:51:11.988,-26.0313,-75.9378
12:51:12.000,-25.5313,-75.8128
12:51:12.008,-25.0313,-75.1878
12:51:12.018,-24.0938,-74.6253
12:51:12.033,-23.2188,-73.9378
12:51:12.041,-24.0626,-73.5628
12:51:12.049,-23.6876,-74.8128
12:51:12.064,-25.0313,-75.7503
12:51:12.073,-25.2188,-77.1253
12:51:12.078,-26.2501,-78.4378
12:51:12.088,-26.5001,-79.1878
12:51:12.098,-27.2189,-80.0628
12:51:12.113,-26.1876,-80.0003
12:51:12.123,-24.7813,-77.5628
12:51:12.128,-20.5938,-71.1878
12:51:12.144,-13.9688,-59.5002
12:51:12.152,-6.1875,-42.1877
12:51:12.162,1.75,-26.1251
12:51:12.168,8.0938,-10.375
12:51:12.178,12.75,0.75
12:51:12.212,16.2501,10.3125
12:51:12.215,17.9688,14.3126
12:51:12.218,17.7813,17.1876
12:51:12.219,17.3751,17.3126
12:51:12.250,16.5938,15.6251
12:51:12.252,16.2813,14.8126
12:51:12.255,14.3751,12.125
12:51:12.259,12.4688,9.4375
12:51:12.290,10.3438,6.6875
12:51:12.293,8.4063,3.1875
12:51:12.297,7.6875,1.0625
12:51:12.299,6.125,-0.4375
12:51:12.309,5.9063,-2.8125
12:51:12.346,4.75,-3.5625
12:51:12.349,3.4688,-5.8125
12:51:12.354,2.9063,-7.375
12:51:12.354,1.4375,-10.0625
12:51:12.359,-0.0625,-13.125
12:51:12.377,-1.4375,-15.8126
12:51:12.381,-2.5313,-17.3126
12:51:12.388,-3.4688,-19.3126
12:51:12.398,-3.6563,-20.0001
12:51:12.408,-3.6563,-20.8751
12:51:12.421,-2.25,-20.2501
12:51:12.428,-0.9063,-18.8126
12:51:12.438,0.5,-17.8751
12:51:12.448,2.5625,-16.2501
12:51:12.458,3.1875,-14.3751
12:51:12.469,3.4688,-13.1876
12:51:12.479,3.5625,-13.6876
12:51:12.488,3.1563,-14.2501
12:51:12.498,2.75,-13.6876
12:51:12.508,3.4063,-15.1876
12:51:12.519,2.8438,-14.5626
12:51:12.528,2.5625,-16.3126
12:51:12.538,2.2813,-16.5001
12:51:12.548,1.8438,-18.3126
12:51:12.558,1.5,-20.5001
12:51:12.570,-0.0313,-22.5001
12:51:12.579,-1.0938,-24.1251
12:51:12.589,-1.4375,-25.0001
12:51:12.598,-1.875,-27.0626
12:51:12.608,-2.0313,-28.3126
12:51:12.620,-1.6563,-27.9376
12:51:12.629,-1.9688,-30.0626
12:51:12.638,-1.1563,-30.6251
12:51:12.648,-2.9688,-32.3126
12:51:12.658,-4.3438,-35.1251
12:51:12.669,-6.6875,-37.1251
12:51:12.678,-8.6875,-40.6252
12:51:12.688,-11.2813,-43.4377
12:51:12.698,-11.5625,-45.0002
12:51:12.708,-13.0625,-47.3127
12:51:12.720,-12.75,-47.5627
12:51:12.729,-12.1875,-47.9377
12:51:12.738,-11.875,-47.7502
12:51:12.751,-10.9688,-47.9377
12:51:12.758,-10.5625,-47.6252
12:51:12.769,-10.75,-47.6252
12:51:12.778,-12.4688,-48.7502
12:51:12.788,-12.7188,-49.8127
12:51:12.821,-13.6876,-50.2502
12:51:12.825,-12.8438,-50.5627
12:51:12.827,-13.1876,-50.6877
12:51:12.829,-11.8438,-50.1252
12:51:12.838,-10.2813,-48.5627
12:51:12.848,-8.75,-46.9377
12:51:12.859,-8.1563,-46.6252
12:51:12.868,-7.8438,-46.2502
12:51:12.878,-8.4688,-46.7502
12:51:12.888,-8.25,-47.5002
12:51:12.899,-8.1875,-48.2502
12:51:12.914,-9.6875,-48.1252
12:51:12.918,-9.7188,-50.3127
12:51:12.947,-10.9375,-51.5627
12:51:12.952,-11.875,-52.7502
12:51:12.953,-10.9375,-52.9377
12:51:12.960,-9.9063,-49.7502
12:51:12.986,-5.125,-42.0002
12:51:12.988,1.8438,-28.1876
12:51:12.991,9.5938,-10.8125
12:51:13.017,16.3438,4.0625
12:51:13.020,20.7813,16.8126
12:51:13.025,23.9376,25.1251
12:51:13.030,25.5313,31.6876
12:51:13.063,26.1563,33.0626
12:51:13.066,24.5938,34.8126
12:51:13.068,23.4688,32.4376
12:51:13.071,21.8126,29.6251
12:51:13.101,19.7813,27.1251
12:51:13.105,18.5626,24.6251
12:51:13.108,15.6251,20.1876
12:51:13.110,13.2188,17.1876
12:51:13.118,12.2188,13.8126
12:51:13.131,11.6875,11.75
12:51:13.138,10.9375,11.0625
12:51:13.148,11.5625,10.5
12:51:13.158,10.7813,8.25
12:51:13.168,9.5938,6.75
12:51:13.180,7.9063,4.6875
12:51:13.188,7.0313,1.4375
12:51:13.198,4.5938,-2.125
12:51:13.209,3,-4.5625
12:51:13.218,2.8125,-6.3125
12:51:13.228,2.2813,-7.25
12:51:13.238,2.8125,-7.25
12:51:13.248,3.2188,-6.6875
12:51:13.259,3.5313,-5.8125
12:51:13.268,4.375,-5.1875
12:51:13.279,4.75,-3.75
12:51:13.288,5.5313,-3.5625
12:51:13.299,5.4063,-2.625
12:51:13.310,4.7188,-4.5625
12:51:13.318,4.3438,-5
12:51:13.328,3.125,-6.4375
12:51:13.349,2.0625,-8.8125
12:51:13.354,1.25,-9.8125
12:51:13.362,0.9375,-11.375
12:51:13.370,0.6563,-12.3125
12:51:13.385,0.875,-13.6251
12:51:13.392,-1.125,-15.6251
12:51:13.400,-1.375,-17.0626
12:51:13.409,-2.6875,-18.3126
12:51:13.428,-3.3125,-19.8126
12:51:13.430,-4.4375,-22.7501
12:51:13.440,-4.9375,-23.6251
12:51:13.450,-5.4375,-25.8751
12:51:13.465,-6.4063,-26.5001
12:51:13.473,-7.3438,-29.3126
12:51:13.478,-8.25,-30.9376
12:51:13.489,-9.9688,-32.2501
12:51:13.498,-10.7188,-34.3126
12:51:13.513,-11.6563,-38.0626
12:51:13.519,-12.3125,-39.0001
12:51:13.531,-13.0313,-40.3127
12:51:13.538,-14.6563,-40.7502
12:51:13.549,-14.7813,-43.3127
12:51:13.560,-15.8751,-43.2502
12:51:13.568,-15.0313,-45.0002
12:51:13.578,-15.3126,-45.3752
12:51:13.588,-16.3438,-46.5627
12:51:13.600,-17.4688,-47.4377
12:51:13.608,-17.2188,-48.7502
12:51:13.619,-18.3438,-49.1252
12:51:13.628,-18.4688,-50.5627
12:51:13.639,-19.0626,-51.2502
12:51:13.648,-19.3126,-52.3127
12:51:13.658,-19.8438,-53.6252
12:51:13.668,-22.0313,-54.4377
12:51:13.678,-23.2501,-58.0627
12:51:13.688,-23.4063,-58.1252
12:51:13.698,-22.9688,-58.8127
12:51:13.708,-23.4376,-58.3752
12:51:13.719,-23.2501,-59.6877
12:51:13.728,-23.3438,-61.1252
12:51:13.738,-23.4063,-60.7502
12:51:13.759,-22.5313,-60.6877
12:51:13.762,-20.9376,-59.7502
12:51:13.794,-18.0626,-53.5002
12:51:13.794,-12.0313,-44.1877
12:51:13.797,-4.6563,-27.6251
12:51:13.800,2.75,-12.4375
12:51:13.835,7.4063,1.4375
12:51:13.836,11.0625,12.875
12:51:13.839,13.4063,19.5001
12:51:13.841,14.6251,25.1251
12:51:13.869,13.9376,27.5626
12:51:13.872,13,27.3751
12:51:13.874,11.8125,26.9376
12:51:13.879,10.75,25.5001
12:51:13.908,9.9375,24.6876
12:51:13.911,9.8125,24.3751
12:51:13.913,9.4375,22.4376
12:51:13.918,8.4688,20.0001
12:51:13.938,6.6563,19.3751
12:51:13.942,5.4688,16.8126
12:51:13.948,3.8438,14.1251
12:51:13.958,3.0313,13.0625
12:51:13.971,2.8438,12.625
12:51:13.978,2,11
12:51:13.990,2.4688,9.75
12:51:13.999,1.5,7.6875
12:51:14.008,0.6875,6.6875
12:51:14.018,0.5,4
12:51:14.028,0.4375,3.1875
12:51:14.038,0.7813,2.4375
12:51:14.048,0.6875,2.25
12:51:14.058,0.3125,1.875
12:51:14.068,0.5938,0.875
12:51:14.102,0.25,1.8125
12:51:14.105,1.2188,0.8125
12:51:14.107,0.5938,1.375
12:51:14.110,1.2188,1
12:51:14.118,0.5313,1.25
12:51:14.128,0.7188,0.4375
12:51:14.141,0.75,0.3125
12:51:14.148,0.8125,0.1875
12:51:14.159,1.1563,-1.0625
12:51:14.168,1.3125,-1.5
12:51:14.178,0.9688,-2.9375
12:51:14.188,0.4375,-3.875
12:51:14.198,-0.375,-5.25
12:51:14.208,-1.3438,-6.5625
12:51:14.218,-1.9063,-8.1875
12:51:14.228,-1.5,-10.4375
12:51:14.238,-2.4688,-11.1875
12:51:14.249,-3.0313,-13.0625
12:51:14.258,-3.2813,-15.1251
12:51:14.268,-4.3125,-16.1251
12:51:14.278,-5.0938,-18.3126
12:51:14.290,-6.0938,-19.5001
12:51:14.298,-7.1875,-23.0626
12:51:14.309,-8.1875,-24.3751
12:51:14.319,-9.4688,-26.5001
12:51:14.331,-10.9063,-27.5001
12:51:14.338,-10.375,-28.8751
12:51:14.349,-10.6563,-29.4376
12:51:14.360,-11.125,-29.6876
12:51:14.368,-11.2813,-31.6876
12:51:14.378,-12.125,-32.1251
12:51:14.388,-12.1875,-34.2501
12:51:14.405,-12.5313,-35.3126
12:51:14.409,-14.0626,-36.0626
12:51:14.437,-14.7188,-38.1876
12:51:14.440,-15.2501,-37.8751
12:51:14.443,-15.0001,-39.5002
12:51:14.448,-15.0313,-39.5002
12:51:14.481,-15.8751,-41.1252
12:51:14.483,-16.2813,-42.0627
12:51:14.486,-17.5001,-42.9377
12:51:14.491,-17.4063,-44.0627
12:51:14.524,-16.3126,-44.0002
12:51:14.528,-15.9688,-44.9377
12:51:14.529,-17.0626,-45.3127
12:51:14.561,-17.8438,-47.0627
12:51:14.562,-18.2813,-47.7502
12:51:14.564,-18.4688,-49.6252
12:51:14.571,-19.3126,-49.5627
12:51:14.572,-18.7501,-50.1877
12:51:14.578,-17.6876,-49.0627
12:51:14.588,-13.7501,-42.5627
12:51:14.598,-6.5938,-30.8751
12:51:14.609,1.5625,-14.0626
12:51:14.618,9.7188,2.4375
12:51:14.628,15.2188,18.1251
12:51:14.638,20.1563,29.8751
12:51:14.651,23.2501,38.9376
12:51:14.658,24.3751,44.8127
12:51:14.676,25.0001,47.6252
12:51:14.680,23.5313,48.8127
12:51:14.694,22.5313,49.3127
12:51:14.708,22.3438,48.2502
12:51:14.712,20.9063,46.6252
12:51:14.721,19.8438,46.2502
12:51:14.728,18.7501,43.8127
12:51:14.746,17.4063,43.1252
12:51:14.750,17.4063,42.0627
12:51:14.762,16.3438,41.1252
12:51:14.770,16.7501,40.3752
12:51:14.785,15.0938,38.7501
12:51:14.802,14.0626,37.6251
12:51:14.802,14.1251,37.7501
12:51:14.808,13.0625,35.6251
12:51:14.819,11.9688,34.1876
12:51:14.829,11.2188,31.3751
12:51:14.839,10.625,30.0001
12:51:14.849,11,29.3126
12:51:14.858,10.7813,27.8126
12:51:14.868,10.3438,27.3126
12:51:14.878,10.125,26.0001
12:51:14.888,9.3438,25.9376
12:51:14.898,9.3438,25.3126
12:51:14.910,8.5625,23.8751
12:51:14.919,8.5938,22.7501
12:51:14.928,8.625,23.2501
12:51:14.939,9.0938,24.0001
12:51:14.948,10.7813,24.1876
12:51:14.958,10.375,24.6251
12:51:14.968,11.2813,24.1876
12:51:14.978,10.3438,23.5626
12:51:14.988,10.5,22.4376
12:51:14.998,8.9375,19.8751
12:51:15.009,7.5,18.7501
12:51:15.018,7.5313,15.8751
12:51:15.029,6.1563,13.4376
12:51:15.038,5.6563,12.625
12:51:15.049,4.4688,9.9375
12:51:15.060,4.8438,8.5625
12:51:15.069,4.9375,7.5625
12:51:15.078,4.7188,6.9375
12:51:15.088,4.4063,5.75
12:51:15.098,4.3438,4.25
12:51:15.110,2.9063,3.25
12:51:15.119,1.9375,0.1875
12:51:15.128,0.0313,-2.125
12:51:15.138,-0.4688,-3.8125
12:51:15.148,-0.7813,-5.5
12:51:15.159,-0.875,-7
12:51:15.168,-1.6875,-9.1875
12:51:15.178,-1.9063,-8.5625
12:51:15.188,-2.625,-10.5625
12:51:15.224,-3.7813,-12.1875
12:51:15.226,-3.8438,-14.4376
12:51:15.229,-4.9063,-16.1876
12:51:15.231,-5.8125,-16.5001
12:51:15.268,-5.875,-17.4376
12:51:15.273,-5.8438,-19.0001
12:51:15.273,-6.3438,-19.5001
12:51:15.306,-6.375,-20.3126
12:51:15.306,-5.25,-19.9376
12:51:15.308,-4.25,-20.5626
12:51:15.311,-3.875,-19.9376
12:51:15.315,-4.2813,-20.9376
12:51:15.341,-4.6875,-22.0001
12:51:15.342,-5.9375,-24.5001
12:51:15.346,-7,-25.3751
12:51:15.381,-8,-28.0001
12:51:15.383,-8.7188,-29.8751
12:51:15.386,-9.625,-30.2501
12:51:15.391,-9.875,-32.9376
12:51:15.391,-10.4063,-32.5626
12:51:15.399,-10.2813,-33.6251
12:51:15.409,-9.6563,-34.0626
12:51:15.418,-7.7813,-32.3126
12:51:15.430,-3.25,-25.3126
12:51:15.440,4.4375,-11.25
12:51:15.448,12,5.75
12:51:15.458,19.0313,22.3751
12:51:15.468,25.8438,37.1251
12:51:15.478,28.6876,49.2502
12:51:15.488,32.0314,56.8752
12:51:15.498,32.1564,61.3127
12:51:15.508,32.2814,64.1252
12:51:15.518,31.4064,63.5002
12:51:15.528,29.0939,63.3752
12:51:15.538,26.5001,60.3127
12:51:15.548,25.0626,57.7502
12:51:15.558,22.8126,54.8752
12:51:15.568,21.9063,53.3752
12:51:15.578,20.9376,52.0627
12:51:15.588,21.0313,51.3752
12:51:15.598,20.1563,50.0002
12:51:15.631,20.5938,49.8752
12:51:15.633,21.1563,49.6877
12:51:15.636,19.8126,49.5002
12:51:15.645,19.5938,46.8127
12:51:15.654,17.7188,43.7502
12:51:15.663,16.6563,41.3752
12:51:15.673,15.1251,38.0001
12:51:15.683,13.3126,35.7501
12:51:15.693,12.7813,33.3751
12:51:15.703,12.3125,32.5626
12:51:15.715,12.75,30.8751
12:51:15.724,12.3125,30.3751
12:51:15.733,11.625,29.1876
12:51:15.743,11.1563,29.1876
12:51:15.753,11.0938,28.3751
12:51:15.763,10.4063,27.2501
12:51:15.773,10.125,27.8126
12:51:15.783,11.25,27.7501
12:51:15.793,11.7813,27.5001
12:51:15.804,11.875,26.6876
12:51:15.815,10.6875,23.8751
12:51:15.825,9.5313,22.8126
12:51:15.833,8.0938,20.9376
12:51:15.879,7.5938,18.4376
12:51:15.880,6,15.6876
12:51:15.882,5.4688,13.2501
12:51:15.884,4.5625,12.25
12:51:15.887,4.0938,8.9375
12:51:15.921,3.125,7.5625
12:51:15.924,2.4063,5.1875
12:51:15.926,0.4063,1.375
12:51:15.933,-1.25,0.375
12:51:15.935,-2.2813,-3.5625
12:51:15.969,-3.75,-5.5625
12:51:15.972,-4.0938,-7.125
12:51:15.975,-4.1875,-9.1875
12:51:15.977,-4.9375,-10.5625
12:51:16.027,-5.7813,-12
12:51:16.029,-6.0625,-12
12:51:16.043,-5.5625,-13.8751
12:51:16.045,-5.9063,-15.1251
12:51:16.061,-6.625,-15.6876
12:51:16.062,-7.7813,-17.6251
12:51:16.062,-7,-19.0626
12:51:16.075,-7.3438,-20.7501
12:51:16.078,-7.6563,-21.8126
12:51:16.093,-7.5313,-21.8126
12:51:16.109,-7.0313,-21.6876
12:51:16.112,-7.375,-22.8751
12:51:16.127,-7.6875,-23.3126
12:51:16.129,-8.1563,-25.1251
12:51:16.129,-8.0938,-25.1876
12:51:16.134,-8.2188,-26.4376
12:51:16.143,-8.2188,-26.5626
12:51:16.153,-8.5,-27.3126
12:51:16.163,-8.7188,-28.0626
12:51:16.173,-8.875,-28.6251
12:51:16.183,-8.0313,-28.8751
12:51:16.193,-8.5,-30.2501
12:51:16.203,-9.0938,-31.4376
12:51:16.215,-9.2188,-33.7501
12:51:16.223,-9.4063,-33.1876
12:51:16.233,-8.9375,-33.5626
12:51:16.244,-8,-32.9376
12:51:16.253,-5.0938,-27.2501
12:51:16.263,3.5313,-16.3751
12:51:16.275,12.625,1.625
12:51:16.283,21.8126,21.1251
12:51:16.293,29.9064,38.0001
12:51:16.305,34.6251,51.6877
12:51:16.313,38.3439,61.4377
12:51:16.323,39.0001,67.2503
12:51:16.333,38.5626,70.3753
12:51:16.343,36.8126,70.5003
12:51:16.353,35.5001,69.8753
12:51:16.363,33.7189,68.6253
12:51:16.373,32.2189,66.1878
12:51:16.383,31.6251,65.0627
12:51:16.393,29.7501,62.8752
12:51:16.403,27.9064,60.0002
12:51:16.413,26.1251,57.7502
12:51:16.424,23.7501,54.6252
12:51:16.436,22.1876,52.3752
12:51:16.444,20.5626,49.6877
12:51:16.453,18.9688,47.6877
12:51:16.464,17.6876,45.1877
12:51:16.473,16.8438,43.2502
12:51:16.483,14.8438,40.1252
12:51:16.495,13.1876,36.8751
12:51:16.504,12,34.3751
12:51:16.514,10.0313,31.5626
12:51:16.524,9.75,29.7501
12:51:16.533,8.75,28.7501
12:51:16.543,7.4063,27.5626
12:51:16.554,8.1875,26.6876
12:51:16.564,8.5,27.1251
12:51:16.573,9.0938,27.6251
12:51:16.584,9.7813,28.1876
12:51:16.593,10.2188,28.9376
12:51:16.605,10.7188,28.7501
12:51:16.614,10.5313,27.1251
12:51:16.623,9.6563,26.5626
12:51:16.662,8.8438,25.6251
12:51:16.665,8.2188,24.8126
12:51:16.667,8.625,22.8126
12:51:16.669,7.9688,20.1876
12:51:16.676,7.3438,21.1876
12:51:16.705,8.0938,18.5626
12:51:16.707,7.3438,16.1251
12:51:16.709,6.5938,15.5001
12:51:16.714,5.0313,12.6875
12:51:16.724,5.3438,10.5625
12:51:16.769,3.875,7.8125
12:51:16.770,3.5313,7.3125
12:51:16.773,2.9688,6.25
12:51:16.774,3.2813,3.75
12:51:16.781,2.75,3.0625
12:51:16.784,1.9375,0.375
12:51:16.810,0.125,-0.25
12:51:16.811,-0.9688,-3.75
12:51:16.815,-2.5,-6.875
12:51:16.823,-3.9063,-9.625
12:51:16.833,-5.4688,-10.1875
12:51:16.843,-5.875,-12.6875
12:51:16.853,-6.5,-14.9376
12:51:16.863,-7.7188,-17.3751
12:51:16.873,-8.5,-18.1251
12:51:16.884,-8.0938,-18.5001
12:51:16.894,-9.1875,-21.1251
12:51:16.903,-11.0938,-24.2501
12:51:16.914,-12.9063,-25.6251
12:51:16.927,-13.5001,-27.3751
12:51:16.933,-14.0001,-28.7501
12:51:16.948,-15.0001,-30.5001
12:51:16.955,-15.5313,-30.6876
12:51:16.964,-16.0313,-32.7501
12:51:16.973,-16.9063,-35.0626
12:51:16.984,-17.5938,-36.0626
12:51:16.993,-18.6251,-38.3126
12:51:17.003,-19.2188,-38.8751
12:51:17.013,-20.1251,-41.0627
12:51:17.023,-20.7188,-42.3127
12:51:17.033,-21.1563,-44.4377
12:51:17.043,-20.8751,-43.9377
12:51:17.053,-19.4063,-42.5002
12:51:17.064,-15.1876,-35.9376
12:51:17.073,-9.7813,-24.1876
12:51:17.083,-1.4375,-8.6875
12:51:17.094,3.875,8
12:51:17.103,9.75,21.5626
12:51:17.114,14.8126,34.1251
12:51:17.125,16.3751,42.6252
12:51:17.133,17.6563,47.7502
12:51:17.143,17.0001,51.1252
12:51:17.154,16.3751,51.2502
12:51:17.164,16.6251,51.6877
12:51:17.173,14.1563,51.0627
12:51:17.185,13.2501,49.5002
12:51:17.193,12.8438,49.8752
12:51:17.203,11.3438,46.5002
12:51:17.213,10.625,46.1877
12:51:17.223,10.4375,46.2502
12:51:17.233,9.625,44.4377
12:51:17.244,9.0313,45.3752
12:51:17.253,7.9375,43.5627
12:51:17.263,7.125,42.3127
12:51:17.275,7.0313,40.8127
12:51:17.284,5.875,39.3752
12:51:17.293,5.0313,35.8751
12:51:17.305,3.1875,33.6251
12:51:17.313,2.25,30.6251
12:51:17.329,0.9688,28.1876
12:51:17.361,0.4063,26.6876
12:51:17.363,0.5313,25.9376
12:51:17.366,0.2188,25.3751
12:51:17.368,1.2813,25.8751
12:51:17.374,1.2188,26.6876
12:51:17.417,1.8438,26.6876
12:51:17.420,1.5,26.5626
12:51:17.422,1.2813,25.6876
12:51:17.452,0.8438,24.6251
12:51:17.452,-0.2188,23.3126
12:51:17.453,-1.4063,22.6251
12:51:17.458,-0.9375,21.1876
12:51:17.462,-0.75,19.8751
12:51:17.465,-1,19.2501
12:51:17.496,-1.7188,17.6251
12:51:17.498,-1.7813,15.3751
12:51:17.501,-3.0938,13.5626
12:51:17.503,-4.125,10.6875
12:51:17.516,-6.1563,7.375
12:51:17.524,-8.0938,3.9375
12:51:17.535,-9.7188,2.125
12:51:17.543,-10.25,-0.25
12:51:17.553,-10.9688,-3
12:51:17.564,-11.6875,-4.75
12:51:17.574,-11.9375,-7
12:51:17.583,-12.4063,-7.375
12:51:17.594,-12.9688,-9.8125
12:51:17.604,-14.4063,-12.4375
12:51:17.613,-16.2188,-15.7501
12:51:17.627,-17.2188,-17.6251
12:51:17.633,-18.0938,-20.2501
12:51:17.644,-18.4376,-20.1876
12:51:17.653,-17.5313,-21.7501
12:51:17.664,-18.6563,-23.3126
12:51:17.673,-19.0001,-24.2501
12:51:17.687,-19.3438,-26.1876
12:51:17.702,-19.6876,-26.5001
12:51:17.704,-19.8126,-28.2501
12:51:17.713,-21.2813,-30.0001
12:51:17.724,-21.6563,-32.1876
12:51:17.733,-22.4376,-33.5001
12:51:17.743,-22.7188,-33.4376
12:51:17.753,-23.2501,-35.2501
12:51:17.764,-23.5001,-35.7501
12:51:17.773,-23.2813,-36.8126
12:51:17.783,-23.2501,-37.8751
12:51:17.794,-23.1251,-37.4376
12:51:17.803,-22.8438,-38.7501
12:51:17.813,-23.0938,-40.4377
12:51:17.825,-22.9688,-40.1877
12:51:17.834,-22.4688,-41.1877
12:51:17.843,-22.4376,-40.6877
12:51:17.854,-22.3126,-42.9377
12:51:17.863,-22.3751,-43.0627
12:51:17.874,-22.0313,-44.1252
12:51:17.883,-19.8751,-40.6252
12:51:17.893,-15.2813,-34.1251
12:51:17.905,-8.2188,-21.2501
12:51:17.913,-0.4688,-4.875
12:51:17.940,6,13.6251
12:51:17.943,12.2813,27.6251
12:51:17.946,17.5938,41.1252
12:51:17.956,20.1876,50.5627
12:51:17.965,21.7188,56.1252
12:51:17.975,21.9376,61.1877
12:51:17.983,21.8438,65.0627
12:51:17.995,21.2188,63.9377
12:51:18.003,20.9063,64.6877
12:51:18.014,18.2501,63.2502
12:51:18.024,17.2501,62.5627
12:51:18.042,17.0626,61.7502
12:51:18.044,16.1251,61.5002
12:51:18.077,15.0938,60.9377
12:51:18.081,14.5938,62.3752
12:51:18.084,15.1563,61.3127
12:51:18.085,14.6251,60.2502
12:51:18.119,13.5626,59.5002
12:51:18.122,13.0313,58.1252
12:51:18.124,10.2813,55.2502
12:51:18.154,9.125,52.0627
12:51:18.155,6.8438,48.4377
12:51:18.157,5.1563,45.6252
12:51:18.162,4.1563,42.9377
12:51:18.163,4.7813,42.0627
12:51:18.194,3.8125,40.8752
12:51:18.197,4.2188,40.4377
12:51:18.200,5.125,40.6252
12:51:18.206,5.1563,41.6877
12:51:18.223,5.2813,40.4377
12:51:18.224,5.1563,40.3752
12:51:18.233,4.7813,41.1252
12:51:18.243,6.1563,41.1252
12:51:18.253,5.6563,39.5627
12:51:18.268,5.9688,40.0627
12:51:18.273,6.4375,38.8751
12:51:18.284,5.9375,36.7501
12:51:18.295,4.8125,34.5626
12:51:18.303,3.6563,32.7501
12:51:18.314,2.75,30.5626
12:51:18.323,2.3125,28.4376
12:51:18.335,1.3125,26.6251
12:51:18.344,0.2188,23.8126
12:51:18.353,-0.125,21.7501
12:51:18.364,-1.7813,18.7501
12:51:18.373,-2.7813,17.3126
12:51:18.383,-2.375,15.3126
12:51:18.395,-3,13.5626
12:51:18.403,-3.75,11.1875
12:51:18.414,-4.875,8
12:51:18.424,-5.8125,6.625
12:51:18.433,-6.7813,3.4375
12:51:18.445,-8.2813,0.9375
12:51:18.453,-10.1563,-0.8125
12:51:18.464,-10.75,-4.5
12:51:18.475,-12.7813,-8.0625
12:51:18.484,-14.2501,-10.25
12:51:18.493,-14.7188,-11.5
12:51:18.505,-14.2188,-13.5626
12:51:18.513,-15.6251,-15.5626
12:51:18.525,-16.2188,-16.9376
12:51:18.533,-16.6563,-18.3126
12:51:18.544,-17.7813,-20.5001
12:51:18.554,-18.4376,-22.4376
12:51:18.563,-18.9063,-23.6251
12:51:18.573,-18.7188,-24.1876
12:51:18.584,-18.5938,-25.3751
12:51:18.598,-18.7188,-25.5001
12:51:18.604,-18.2813,-26.6251
12:51:18.624,-18.5313,-27.0626
12:51:18.631,-18.9063,-29.1251
12:51:18.646,-20.7501,-31.1876
12:51:18.651,-21.3751,-33.6251
12:51:18.653,-22.2813,-34.3751
12:51:18.667,-21.7501,-37.5001
12:51:18.674,-22.0626,-37.1251
12:51:18.690,-22.4688,-38.8126
12:51:18.706,-21.4376,-38.8751
12:51:18.708,-21.2813,-37.6876
12:51:18.716,-19.3126,-37.3126
12:51:18.723,-15.7501,-31.4376
12:51:18.733,-10.5938,-18.6251
12:51:18.743,-4.9375,-5.375
12:51:18.754,-1.75,8.25
12:51:18.764,-3.4688,15.6251
12:51:18.775,-13.4063,15.4376
12:51:18.783,-30.4689,6.5
12:51:18.798,-49.7502,-4.625
12:51:18.804,-68.594,-16.6876
12:51:18.833,-85.9691,-31.2501
12:51:18.836,-102.4066,-41.3752
12:51:18.838,-116.5004,-54.5627
12:51:18.845,-124.8755,-61.4377
12:51:18.883,-133.063,-66.3128
12:51:18.885,-141.2818,-71.8753
12:51:18.886,-150.5631,-78.6253
12:51:18.892,-158.9381,-86.0628
12:51:18.894,-167.0631,-90.4379
12:51:18.933,-170.1882,-91.1879
12:51:18.935,-166.9069,-83.2503
12:51:18.936,-162.2819,-74.5003
12:51:18.940,-158.0319,-66.6878
12:51:18.945,-153.9693,-61.8127
12:51:18.975,-149.1568,-54.4377
12:51:18.980,-141.813,-47.3752
12:51:18.980,-139.5318,-42.0627
12:51:18.984,-136.0005,-39.0001
12:51:18.996,-131.0005,-32.0001
12:51:19.003,-122.813,-22.5626
12:51:19.013,-114.4692,-12.3125
12:51:19.025,-106.4379,-2.375
12:51:19.033,-99.2504,8.625
12:51:19.046,-90.8754,16.8126
12:51:19.054,-85.0316,24.9376
12:51:19.063,-80.2191,30.5001
12:51:19.075,-76.1878,34.5626
12:51:19.083,-74.0315,38.8751
12:51:19.095,-71.8753,39.6252
12:51:19.103,-71.469,40.5627
12:51:19.114,-70.0628,39.6877
12:51:19.123,-67.0003,40.0627
12:51:19.134,-63.8127,43.1252
12:51:19.143,-55.2815,48.6252
12:51:19.153,-39.5314,64.3752
12:51:19.163,-32.9376,74.5628
12:51:19.175,-39.5314,67.3753
12:51:19.183,-61.4065,45.6877
12:51:19.193,-88.5628,7.125
12:51:19.220,-105.4691,-20.8126
12:51:19.224,-116.5629,-45.3127
12:51:19.225,-127.063,-68.3128
12:51:19.233,-132.6568,-85.3753
12:51:19.244,-134.0318,-95.4379
12:51:19.256,-138.8755,-105.2504
12:51:19.265,-143.2193,-115.1254
12:51:19.274,-149.8756,-125.8755
12:51:19.283,-149.8443,-131.5005
12:51:19.293,-149.2193,-135.0005
12:51:19.304,-149.6256,-139.563
12:51:19.314,-155.5006,-147.5006
12:51:19.323,-161.3444,-157.3131
12:51:19.333,-171.6257,-169.4381
12:51:19.344,-188.0632,-188.3757
12:51:19.354,-206.0633,-211.0633
12:51:19.372,-222.0946,-232.5634
12:51:19.380,-234.5009,-248.4384
12:51:19.388,-239.8759,-259.126
12:51:19.400,-238.1259,-259.501
12:51:19.408,-232.0946,-253.9385
12:51:19.420,-217.4383,-239.5009
12:51:19.431,-200.407,-218.8758
12:51:19.439,-187.7195,-204.7508
12:51:19.451,-184.782,-198.5008
12:51:19.460,-182.8132,-195.3757
12:51:19.468,-177.8444,-191.8757
12:51:19.479,-164.5944,-181.1257
12:51:19.488,-152.6256,-172.1257
12:51:19.499,-149.7193,-171.1257
12:51:19.509,-150.8443,-174.9382
12:51:19.544,-156.7506,-182.8757
12:51:19.548,-173.6569,-200.4383
12:51:19.549,-192.6882,-220.0633
12:51:19.552,-204.657,-232.3134
12:51:19.587,-218.3758,-243.6884
12:51:19.591,-223.2196,-248.0009
12:51:19.594,-228.3759,-248.5634
12:51:19.594,-225.5946,-240.6259
12:51:19.599,-193.8445,-200.6258
12:51:19.632,-148.3756,-141.2505
12:51:19.635,-97.3129,-77.3128
12:51:19.637,-57.1565,-24.1251
12:51:19.646,-34.1251,8.125
12:51:19.675,-12,35.0626
12:51:19.676,-3.7813,48.7502
12:51:19.678,-8.6563,49.5627
12:51:19.697,-39.6877,26.4376
12:51:19.701,-90.7816,-19.6251
12:51:19.705,-123.9067,-48.9377
12:51:19.715,-125.2192,-52.1877
12:51:19.723,-105.4692,-34.3126
12:51:19.733,-86.5003,-16.7501
12:51:19.748,-79.2503,-10.25
12:51:19.754,-78.9066,-13
12:51:19.764,-90.1878,-23.1251
12:51:19.775,-110.0942,-44.5002
12:51:19.783,-142.0005,-78.4378
12:51:19.794,-162.8756,-100.8754
