timestamp,Red,IR
13:28:50.641,0.3751,23.1876
13:28:50.646,14.6563,21.1876
13:28:50.656,14.2188,19.7501
13:28:50.665,12.375,18.1251
13:28:50.675,11.5625,16.0626
13:28:50.686,10.375,15.0001
13:28:50.696,10,13.3751
13:28:50.706,9.5313,11.5625
13:28:50.735,9.2188,10.4375
13:28:50.741,8.125,8.25
13:28:50.741,6.625,6.25
13:28:50.746,6.1875,6.25
13:28:50.755,5.6563,5.5625
13:28:50.766,5.3125,3.9375
13:28:50.775,5.0938,2.25
13:28:50.784,4.25,0.5
13:28:50.795,3.7188,-0.125
13:28:50.805,3.25,-2.3125
13:28:50.816,2.5313,-2.1875
13:28:50.825,2.375,-3.8125
13:28:50.836,1.9688,-4.8125
13:28:50.846,1.9063,-5.8125
13:28:50.857,1.0625,-5.625
13:28:50.865,2.4375,-5.6875
13:28:50.875,3.0625,-5.0625
13:28:50.886,5.5938,-0.625
13:28:50.897,8.8125,6.9375
13:28:50.914,12.5625,14.0626
13:28:50.919,16.5313,22.5001
13:28:50.935,19.4376,29.8126
13:28:50.937,22.2813,37.7501
13:28:50.946,24.8751,44.2502
13:28:50.954,24.5938,49.1252
13:28:50.966,26.8126,53.4377
13:28:50.976,27.2814,55.3127
13:28:50.985,26.7814,58.3127
13:28:50.996,26.9376,57.8752
13:28:51.006,26.1563,58.0627
13:28:51.016,25.9376,56.1877
13:28:51.025,25.5001,54.4377
13:28:51.038,24.7813,54.3127
13:28:51.046,23.5938,51.8127
13:28:51.056,22.4063,51.0627
13:28:51.085,21.8751,49.1252
13:28:51.090,20.5001,46.6252
13:28:51.092,18.7188,43.5627
13:28:51.095,17.2188,41.1252
13:28:51.122,15.9688,40.0002
13:28:51.124,15.1876,37.6251
13:28:51.131,13.9063,35.0001
13:28:51.135,13.1251,33.8751
13:28:51.171,13.5313,32.6251
13:28:51.175,12.2188,30.8126
13:28:51.177,11.75,32.2501
13:28:51.183,12.6875,31.6251
13:28:51.198,13.6251,31.1876
13:28:51.200,12.5,30.6251
13:28:51.236,12.375,32.5001
13:28:51.238,12.75,32.3751
13:28:51.241,12.75,31.6251
13:28:51.247,12.125,31.3751
13:28:51.247,11.9375,31.0626
13:28:51.255,11.625,29.3126
13:28:51.265,10.9688,29.1251
13:28:51.276,10.9063,28.6251
13:28:51.287,10.9375,27.6251
13:28:51.295,10.5625,26.5626
13:28:51.306,9.5625,25.6876
13:28:51.315,9.4375,23.8751
13:28:51.326,8.75,21.6876
13:28:51.336,7.375,19.3126
13:28:51.346,5.8438,18.8751
13:28:51.355,4.3125,16.2501
13:28:51.367,2.9375,12.4375
13:28:51.376,1.75,10.5
13:28:51.386,0.8438,9.3125
13:28:51.396,0.5938,8.9375
13:28:51.406,-0.4375,6.875
13:28:51.415,-0.5625,4.6875
13:28:51.425,-1.75,2.4375
13:28:51.437,-1.9688,2.125
13:28:51.447,-3.125,1.0625
13:28:51.455,-3.4688,-1.75
13:28:51.467,-4.75,-3.25
13:28:51.476,-5.4375,-4.6875
13:28:51.486,-6.4688,-5.1875
13:28:51.496,-6.8125,-6.8125
13:28:51.507,-7.0313,-7.9375
13:28:51.516,-7.3125,-9.75
13:28:51.527,-8.4063,-10.25
13:28:51.535,-8.7188,-11.3125
13:28:51.546,-9.4375,-13.0625
13:28:51.556,-9.875,-14.0001
13:28:51.565,-9.875,-13.7501
13:28:51.576,-9.9688,-15.3126
13:28:51.585,-10.125,-16.5626
13:28:51.596,-9.875,-16.6876
13:28:51.606,-9.0625,-16.2501
13:28:51.616,-9.6875,-18.0626
13:28:51.626,-10.4688,-17.5626
13:28:51.636,-9.0938,-17.6876
13:28:51.647,-7.2813,-12.5625
13:28:51.657,-3.6875,-8
13:28:51.669,0.2813,0.6875
13:28:51.678,5.0938,7.375
13:28:51.686,7.4375,17.1251
13:28:51.696,11.4375,23.3126
13:28:51.706,14.1563,29.5001
13:28:51.715,16.3438,35.5001
13:28:51.726,17.1563,38.8751
13:28:51.736,18.4063,41.6252
13:28:51.751,18.3438,42.7502
13:28:51.769,17.4688,43.4377
13:28:51.770,16.6563,43.0627
13:28:51.777,16.8751,40.5002
13:28:51.787,14.4688,40.3127
13:28:51.796,13.4688,36.9376
13:28:51.806,11.0938,35.0626
13:28:51.816,10.6875,33.4376
13:28:51.829,9.2813,30.7501
13:28:51.869,7.1875,27.9376
13:28:51.869,5.5938,26.1876
13:28:51.871,4.3438,23.3126
13:28:51.875,3.9688,20.8751
13:28:51.876,3.0625,18.7501
13:28:51.886,2,17.2501
13:28:51.902,1.875,16.6251
13:28:51.907,1.5313,15.2501
13:28:51.938,0.3438,13.5001
13:28:51.940,-0.2813,12.5625
13:28:51.942,-0.8438,12.875
13:28:51.946,-0.5313,12.8125
13:28:51.960,-0.5938,12.5
13:28:51.966,-0.875,13
13:28:52.006,-0.625,12.875
13:28:52.007,-1.1563,15.0626
13:28:52.010,-0.375,14.0001
13:28:52.024,-0.25,13.5001
13:28:52.025,0.25,13.5001
13:28:52.027,-0.5938,12.6875
13:28:52.036,-0.9063,12.5
13:28:52.045,-1.4375,11.5625
13:28:52.055,-2.625,9.25
13:28:52.066,-3.5625,7.625
13:28:52.077,-4.1875,6.5625
13:28:52.086,-5.0625,3.875
13:28:52.096,-7.0313,3
13:28:52.107,-9.0313,0.5
13:28:52.116,-9,-2
13:28:52.126,-11.5,-3
13:28:52.136,-12.1563,-5.625
13:28:52.146,-12.9063,-8.25
13:28:52.155,-13.4688,-8.875
13:28:52.166,-13.5001,-9.875
13:28:52.176,-13.5626,-11.1875
13:28:52.186,-14.8438,-13.2501
13:28:52.197,-15.4063,-14.3126
13:28:52.214,-16.1563,-15.7501
13:28:52.222,-16.2501,-16.4376
13:28:52.236,-16.9063,-18.1876
13:28:52.239,-17.5626,-19.5626
13:28:52.247,-18.7188,-21.0001
13:28:52.256,-18.4688,-20.9376
13:28:52.265,-17.8751,-22.0626
13:28:52.276,-18.9063,-22.6876
13:28:52.286,-18.8751,-23.5626
13:28:52.297,-19.4063,-24.4376
13:28:52.306,-19.5313,-24.7501
13:28:52.316,-19.5626,-26.1251
13:28:52.326,-20.2501,-26.7501
13:28:52.336,-20.5001,-28.1251
13:28:52.346,-20.8438,-28.2501
13:28:52.355,-20.7188,-28.8751
13:28:52.371,-20.1876,-29.0626
13:28:52.381,-19.9688,-30.7501
13:28:52.391,-20.3438,-30.6876
13:28:52.401,-19.8751,-30.6876
13:28:52.411,-18.0938,-27.8751
13:28:52.426,-15.4376,-23.7501
13:28:52.431,-12.25,-16.5626
13:28:52.443,-8.3125,-9.4375
13:28:52.451,-4.9063,-0.8125
13:28:52.461,-0.3438,6.5
13:28:52.472,2.8438,14.3126
13:28:52.482,6.4063,19.7501
13:28:52.490,8.1563,25.1251
13:28:52.501,8.6875,27.7501
13:28:52.511,9.5625,30.4376
13:28:52.521,9.4063,29.3751
13:28:52.530,8.125,30.3126
13:28:52.564,7,29.3751
13:28:52.566,7,27.5626
13:28:52.568,6.0625,25.4376
13:28:52.570,5.4688,24.0626
13:28:52.603,4.8125,22.2501
13:28:52.610,4.0313,20.8751
13:28:52.614,4.0625,19.6876
13:28:52.614,3.25,17.7501
13:28:52.644,2.5313,16.4376
13:28:52.645,2.6875,14.2501
13:28:52.647,1.8438,12.125
13:28:52.654,0.625,10.5625
13:28:52.679,0.2188,10.375
13:28:52.680,0.875,8.5625
13:28:52.682,0.7813,8.625
13:28:52.710,0.7813,8.6875
13:28:52.714,1.375,9.5
13:28:52.715,2.0625,9.6875
13:28:52.722,2.7813,11.625
13:28:52.731,3.3438,12.5625
13:28:52.741,3.5313,12.0625
13:28:52.751,3.9063,12.4375
13:28:52.761,3.5313,12.6875
13:28:52.771,4.5938,12.5625
13:28:52.781,3.625,12.125
13:28:52.791,3.4375,11.625
13:28:52.801,3.375,10.75
13:28:52.810,2.5,8.875
13:28:52.821,2.0938,8.125
13:28:52.831,1.375,6.875
13:28:52.841,0.6875,6.25
13:28:52.851,0.875,4.4375
13:28:52.861,0.0625,2.875
13:28:52.870,-0.6875,0.875
13:28:52.881,-0.7188,0.8125
13:28:52.891,-1.0313,-0.4375
13:28:52.902,-1.5,-2.375
13:28:52.910,-2.7188,-4.5625
13:28:52.920,-3.0625,-5
13:28:52.931,-2.7813,-6.5
13:28:52.941,-3.5313,-8.25
13:28:52.951,-4.3125,-8.0625
13:28:52.961,-4.1563,-10.0625
13:28:52.970,-5.125,-12.125
13:28:52.981,-4.7188,-12.125
13:28:52.992,-5.5938,-13.4376
13:28:53.001,-5.5938,-15.0001
13:28:53.010,-6.4688,-15.7501
13:28:53.020,-6.0313,-15.1876
13:28:53.032,-5.625,-16.3751
13:28:53.047,-5.9688,-16.7501
13:28:53.063,-6.3438,-17.5001
13:28:53.066,-5.5625,-18.8126
13:28:53.071,-6.5313,-18.4376
13:28:53.082,-6.3125,-19.1876
13:28:53.091,-6.4688,-21.3126
13:28:53.101,-7.25,-22.0001
13:28:53.111,-6.0313,-21.5626
13:28:53.121,-6.7188,-22.8126
13:28:53.132,-5.6563,-22.5626
13:28:53.141,-5.8438,-23.3751
13:28:53.150,-5.5938,-22.8751
13:28:53.161,-5.5625,-23.1251
13:28:53.175,-3.7813,-21.1876
13:28:53.181,-1.0313,-15.9376
13:28:53.191,1.5313,-10.0625
13:28:53.201,5.9063,-0.6875
13:28:53.210,9.8125,7.3125
13:28:53.221,12.9688,14.6251
13:28:53.231,15.5938,23.0626
13:28:53.241,18.8751,29.0001
13:28:53.251,20.5001,34.9376
13:28:53.285,22.5626,38.3751
13:28:53.288,22.6876,41.2502
13:28:53.290,23.4063,41.8752
13:28:53.306,22.3126,41.5002
13:28:53.311,21.8751,41.9377
13:28:53.315,21.3751,40.4377
13:28:53.330,20.7813,40.0627
13:28:53.332,19.6563,38.3126
13:28:53.360,18.5938,36.1876
13:28:53.363,17.6563,35.6876
13:28:53.365,16.6876,34.6251
13:28:53.375,16.0313,33.0001
13:28:53.385,15.3126,30.9376
13:28:53.415,14.6563,28.8751
13:28:53.418,13.9376,27.8751
13:28:53.419,12.6875,25.2501
13:28:53.422,11.6563,23.8126
13:28:53.439,11.125,22.8126
13:28:53.442,10.375,21.3751
13:28:53.450,10.5,20.5626
13:28:53.460,10.3125,21.1251
13:28:53.472,9.5625,21.2501
13:28:53.481,10.4688,20.6876
13:28:53.491,9.9375,20.5001
13:28:53.502,10.1563,21.3751
13:28:53.517,10.625,22.4376
13:28:53.532,10.8438,21.6876
13:28:53.534,10.625,21.2501
13:28:53.542,9.9375,20.7501
13:28:53.552,9.5313,20.9376
13:28:53.561,9.3438,20.1251
13:28:53.571,8.4375,18.8126
13:28:53.581,8.125,18.0626
13:28:53.590,7.7813,16.3751
13:28:53.602,6.4063,15.5626
13:28:53.613,6.5,14.2501
13:28:53.622,5.375,12.375
13:28:53.632,4.5,11.875
13:28:53.642,4.2813,9.875
13:28:53.651,3.375,7.5
13:28:53.662,2.4063,5.9375
13:28:53.671,1.3125,4.75
13:28:53.681,1.0938,3.3125
13:28:53.692,1.0625,0.9375
13:28:53.701,0.125,0.125
13:28:53.711,-0.6563,-2.0625
13:28:53.722,-1.5625,-2.375
13:28:53.730,-1.1563,-4
13:28:53.742,-1.5,-5
13:28:53.750,-2.625,-6.0625
13:28:53.760,-3.1563,-6.5
13:28:53.771,-2.9375,-7.75
13:28:53.782,-4.0313,-10.25
13:28:53.790,-4.875,-10.0625
13:28:53.801,-4.7813,-11.5625
13:28:53.811,-5.4375,-13.3751
13:28:53.821,-6.2188,-13.6251
13:28:53.831,-5.625,-14.4376
13:28:53.843,-6.5313,-16.1251
13:28:53.851,-7.125,-15.1251
13:28:53.862,-6.7813,-16.9376
13:28:53.871,-8.3125,-18.2501
13:28:53.881,-8.6875,-19.7501
13:28:53.890,-9.8438,-21.8751
13:28:53.902,-9.9688,-22.3126
13:28:53.912,-9.9688,-22.5001
13:28:53.925,-10.4688,-22.7501
13:28:53.937,-9.9688,-23.6876
13:28:53.941,-10.3125,-24.7501
13:28:53.950,-10.125,-24.6876
13:28:53.962,-8.9688,-21.8126
13:28:53.972,-6.2188,-17.3751
13:28:53.981,-2.9688,-10.5
13:28:53.996,0.5625,-2.5625
13:28:54.000,4.4688,6
13:28:54.041,8.125,13.9376
13:28:54.042,11.6563,22.6876
13:28:54.045,15.4688,29.6876
13:28:54.079,16.9688,34.8126
13:28:54.080,18.0938,38.2501
13:28:54.081,18.3751,40.6252
13:28:54.085,17.9063,41.0627
13:28:54.092,17.0626,41.5002
13:28:54.092,16.9376,41.3127
13:28:54.131,16.6876,40.6252
13:28:54.132,16.0313,39.3752
13:28:54.136,14.8751,38.0001
13:28:54.142,14.7813,36.6876
13:28:54.168,13.5938,34.9376
13:28:54.170,12.4375,34.1251
13:28:54.173,11.8438,32.1876
13:28:54.179,10.875,29.5626
13:28:54.182,9.875,28.1251
13:28:54.192,8.9375,27.3751
13:28:54.202,8.5,24.1876
13:28:54.212,7.6563,23.1251
13:28:54.222,6.5625,21.4376
13:28:54.231,6.2188,21.8126
13:28:54.242,6.625,20.6876
13:28:54.253,5.875,18.9376
13:28:54.262,5.9688,19.5001
13:28:54.272,6.7813,20.0001
13:28:54.282,6.625,20.6251
13:28:54.294,6.875,20.0626
13:28:54.303,6.3125,20.2501
13:28:54.313,7.0625,19.7501
13:28:54.321,7.125,20.5001
13:28:54.343,7.0313,20.8126
13:28:54.346,7.375,21.2501
13:28:54.362,6.3125,19.0001
13:28:54.363,5.375,18.1251
13:28:54.372,4.9063,16.2501
13:28:54.381,3.75,15.3126
13:28:54.392,2.75,13.1876
13:28:54.402,1.9688,10.875
13:28:54.411,0.3438,9.6875
13:28:54.421,-0.1563,7.6875
13:28:54.432,-1.125,5.125
13:28:54.441,-2.9375,4.0625
13:28:54.452,-3.4688,2.25
13:28:54.462,-3.625,0.5625
13:28:54.472,-4.1875,-1.75
13:28:54.482,-4.375,-1.6875
13:28:54.491,-4.2813,-2.875
13:28:54.503,-4.9375,-5
13:28:54.513,-5.3438,-6.125
13:28:54.522,-6.0625,-7.25
13:28:54.532,-6.75,-7.25
13:28:54.542,-6.25,-9.75
13:28:54.575,-6.7188,-10.75
13:28:54.577,-7.0625,-11.0625
13:28:54.579,-6.9688,-12.375
13:28:54.582,-6.875,-13.0625
13:28:54.592,-6.9688,-12.625
13:28:54.602,-6.4063,-14.1876
13:28:54.612,-6.5938,-14.8126
13:28:54.623,-6.5625,-15.4376
13:28:54.633,-6.5938,-15.6251
13:28:54.642,-8.1563,-17.3751
13:28:54.653,-8.0938,-18.5626
13:28:54.662,-9.0938,-19.7501
13:28:54.672,-10.0625,-20.8126
13:28:54.693,-10.4375,-22.0626
13:28:54.694,-11.7188,-23.4376
13:28:54.730,-11.8438,-24.7501
13:28:54.731,-12.25,-27.1876
13:28:54.735,-12.3438,-26.6251
13:28:54.740,-12.7188,-27.9376
13:28:54.743,-13,-28.5001
13:28:54.779,-12.8125,-30.1251
13:28:54.782,-14.0938,-30.9376
13:28:54.784,-12.6875,-29.6876
13:28:54.786,-11.7188,-26.6251
13:28:54.793,-8.4063,-21.9376
13:28:54.860,-5.7813,-14.6876
13:28:54.860,-2.0625,-5.5
13:28:54.862,2.3438,1.6875
13:28:54.868,5.1563,10.4375
13:28:54.870,8.8125,15.2501
13:28:54.870,10.125,21.2501
13:28:54.876,11.7188,23.6251
13:28:54.887,11.4375,26.8126
13:28:54.897,11.5625,26.3751
13:28:54.908,11.1563,27.5626
13:28:54.916,10.3438,26.0626
13:28:54.927,9.4375,25.4376
13:28:54.937,9.4063,23.3126
13:28:54.946,7.9063,22.3126
13:28:54.957,7.25,20.8751
13:28:54.967,6.375,18.1251
13:28:54.977,5.7188,16.8751
13:28:54.987,4.75,15.3751
13:28:54.996,3.1875,12.9375
13:28:55.007,2.3125,10.8125
13:28:55.017,1,7.625
13:28:55.026,0.6563,5.625
13:28:55.037,-0.8125,2.75
13:28:55.047,-1.4375,1.375
13:28:55.057,-2.25,1.125
13:28:55.067,-2.4375,1.625
13:28:55.076,-1.7813,1.75
13:28:55.087,-1.9063,0.8125
13:28:55.097,-1.625,1.4375
13:28:55.107,-1.5313,2.6875
13:28:55.118,-0.8438,2
13:28:55.127,-1.375,1.9375
13:28:55.137,-1,1.9375
13:28:55.148,-1.2188,2.9375
13:28:55.158,-1.1875,2.125
13:28:55.167,-1.9063,0.75
13:28:55.177,-2.9375,-0.5625
13:28:55.187,-3.6875,-0.8125
13:28:55.198,-3.3125,-3
13:28:55.208,-4.4063,-4.125
13:28:55.216,-5.1875,-5
13:28:55.227,-5.8438,-7.4375
13:28:55.237,-6.1563,-8
13:28:55.253,-6.625,-9.375
13:28:55.257,-7.5625,-11.6875
13:28:55.267,-8,-12.5625
13:28:55.277,-8.0313,-13
13:28:55.286,-8.2813,-14.8126
13:28:55.297,-8.5,-15.6876
13:28:55.307,-9.4063,-16.0001
13:28:55.318,-8.875,-18.2501
13:28:55.327,-9.5,-19.3126
13:28:55.337,-9.6563,-19.1876
13:28:55.347,-9.25,-21.7501
13:28:55.357,-9.125,-21.0001
13:28:55.367,-9.4063,-21.9376
13:28:55.377,-8.4375,-21.8126
13:28:55.387,-8.8438,-22.6251
13:28:55.397,-8.5625,-23.6876
13:28:55.407,-8.7188,-24.3751
13:28:55.417,-9.3125,-24.8751
13:28:55.428,-9.4063,-25.2501
13:28:55.437,-9.9688,-26.1876
13:28:55.474,-10.0938,-27.0626
13:28:55.476,-9.75,-27.9376
13:28:55.479,-10.5,-28.4376
13:28:55.481,-10.2813,-29.1876
13:28:55.517,-9.5625,-29.1251
13:28:55.520,-10.5,-30.0626
13:28:55.520,-9.1875,-30.3126
13:28:55.522,-9.6563,-30.4376
13:28:55.531,-8.9063,-30.5626
13:28:55.563,-9.1875,-32.1251
13:28:55.565,-9.7188,-31.5626
13:28:55.567,-9.0313,-32.5626
13:28:55.599,-7.6875,-28.4376
13:28:55.599,-4.7188,-24.2501
13:28:55.602,-1.5625,-17.4376
13:28:55.609,2.375,-9.3125
13:28:55.609,5.8438,-3
13:28:55.623,9,5.0625
13:28:55.627,11.625,10
13:28:55.642,13.7501,15.2501
13:28:55.657,15.5938,18.1251
13:28:55.658,15.5626,19.8751
13:28:55.667,16.0626,21.2501
13:28:55.678,15.4063,21.3126
13:28:55.688,15.4688,20.5001
13:28:55.697,15.3126,20.6251
13:28:55.707,15.1251,18.5001
13:28:55.717,13.7813,17.6251
13:28:55.727,12.75,16.7501
13:28:55.738,12.1875,14.6876
13:28:55.747,12.25,12.625
13:28:55.757,11.1875,11.125
13:28:55.767,10.25,10.25
13:28:55.777,9.8125,7.9375
13:28:55.788,8.625,4.625
13:28:55.797,8,3.625
13:28:55.808,6.9375,2.6875
13:28:55.818,6.6875,0.875
13:28:55.827,5.6875,-1.5
13:28:55.854,4.875,-1
13:28:55.857,5.5938,-1.625
13:28:55.859,5.3438,-2.5
13:28:55.867,5.25,-1.9375
13:28:55.879,5.9375,-0.5625
13:28:55.887,6.1875,0.375
13:28:55.897,6.625,-0.1875
13:28:55.907,6.9688,1.6875
13:28:55.917,7.3438,0.75
13:28:55.928,7.7813,0.4375
13:28:55.938,7.6563,1.125
13:28:55.947,6.5625,0.125
13:28:55.957,7.3125,-0.75
13:28:55.968,6.1563,-2.125
13:28:55.978,6.125,-1.75
13:28:55.987,6,-3.6875
13:28:55.998,5.0625,-5.3125
13:28:56.014,4.4063,-6.3125
13:28:56.018,3.25,-7.75
13:28:56.028,2.5938,-9
13:28:56.037,1.75,-10.1875
13:28:56.047,2.3438,-11.625
13:28:56.057,0.9688,-13.4376
13:28:56.068,-0.7813,-13.7501
13:28:56.078,-0.8438,-16.1251
13:28:56.087,-2,-18.1251
13:28:56.097,-2.6875,-18.0626
13:28:56.113,-2.5938,-19.9376
13:28:56.132,-3.4375,-21.8751
13:28:56.138,-4.7813,-21.7501
13:28:56.140,-4.2813,-23.3751
13:28:56.156,-4.5313,-24.6251
13:28:56.158,-5.25,-24.7501
13:28:56.166,-5.3438,-26.6876
13:28:56.178,-5.8438,-26.2501
13:28:56.214,-5.375,-27.3126
13:28:56.216,-6.375,-28.4376
13:28:56.218,-6.3438,-28.3126
13:28:56.220,-6.125,-29.8126
13:28:56.229,-6.2813,-29.0626
13:28:56.257,-5.6563,-30.1876
13:28:56.259,-6.625,-30.3126
13:28:56.262,-6.7813,-32.0001
13:28:56.268,-7.6563,-31.3751
13:28:56.293,-7.3438,-33.1251
13:28:56.296,-6.9375,-33.3126
13:28:56.297,-6.6875,-33.1251
13:28:56.308,-7.1875,-34.8126
13:28:56.341,-8,-35.0001
13:28:56.342,-7.1563,-35.1251
13:28:56.344,-6.9375,-34.2501
13:28:56.351,-5.5313,-31.8126
13:28:56.358,-2.125,-27.3126
13:28:56.366,0.2813,-19.6876
13:28:56.377,4.0625,-13.3751
13:28:56.392,7.2813,-6.3125
13:28:56.403,10.7813,2.125
13:28:56.412,13.1875,7.75
13:28:56.422,16.0626,13.6876
13:28:56.432,18.0001,17.3126
13:28:56.441,18.5313,20.0626
13:28:56.453,18.5001,20.7501
13:28:56.462,18.2501,21.1251
13:28:56.473,17.1563,19.5001
13:28:56.482,16.6876,19.3126
13:28:56.493,15.6251,17.2501
13:28:56.502,15.6876,17.9376
13:28:56.512,15.3751,16.0001
13:28:56.522,15.2501,15.8751
13:28:56.531,15.2813,14.1251
13:28:56.542,15.3126,13.8126
13:28:56.552,15.0313,12.75
13:28:56.563,14.4376,11.5
13:28:56.572,13.8751,10.3125
13:28:56.582,12.5625,8.4375
13:28:56.592,12.3125,8.1875
13:28:56.602,12.125,7.1875
13:28:56.612,12.5625,6.125
13:28:56.622,11.0938,6.25
13:28:56.632,12.1875,5.75
13:28:56.642,12.9688,5.75
13:28:56.652,12.625,6.9375
13:28:56.662,12.9688,6.8125
13:28:56.672,12.4688,6.0625
13:28:56.682,11.6563,5.75
13:28:56.694,11.6875,7.375
13:28:56.702,12.25,6.375
13:28:56.712,11.9063,5.6875
13:28:56.722,12,6.4375
13:28:56.732,12.25,5.9375
13:28:56.742,11.6875,5.0625
13:28:56.753,10.8438,5.375
13:28:56.763,10.9375,4.0625
13:28:56.775,9.875,2.25
13:28:56.783,8.9688,1.5
13:28:56.793,8.875,0.9375
13:28:56.804,8.9063,-0.0625
13:28:56.813,8.1875,-2.25
13:28:56.822,7.9375,-2.625
13:28:56.832,7.5,-4.3125
13:28:56.842,6.3438,-6.1875
13:28:56.852,4.8438,-6.625
13:28:56.862,4.1563,-8.3125
13:28:56.872,4,-10.3125
13:28:56.882,3,-12.3125
13:28:56.895,2.125,-12.375
13:28:56.911,2.875,-12.875
13:28:56.913,3.0313,-14.3126
13:28:56.946,2.2188,-15.6251
13:28:56.948,1.5938,-15.0626
13:28:56.989,1.5,-16.5001
13:28:57.004,0.625,-18.0626
13:28:57.034,0.4375,-18.5626
13:28:57.079,-0.375,-19.1251
13:28:57.079,-0.0625,-20.5001
13:28:57.079,-1.125,-21.6251
13:28:57.080,-0.7813,-21.7501
13:28:57.082,0.5,-22.0001
13:28:57.089,-0.8438,-21.6876
13:28:57.089,-0.5313,-22.3126
13:28:57.089,-0.1875,-23.5626
13:28:57.094,-0.875,-24.3751
13:28:57.102,-1.6563,-24.8751
13:28:57.135,-2.4063,-25.8751
13:28:57.138,-2.9688,-27.8126
13:28:57.139,-3.125,-28.1876
13:28:57.152,-3.375,-28.5001
13:28:57.154,-2.7813,-27.7501
13:28:57.162,-2.1875,-28.5001
13:28:57.173,-2.4375,-29.3126
13:28:57.182,-2.5313,-30.0626
13:28:57.193,-2.0313,-28.4376
13:28:57.202,5.4063,-14.0001
13:28:57.213,9.1563,-7.125
13:28:57.223,12.7813,0.75
13:28:57.232,16.0001,7.625
13:28:57.244,18.8438,13.8126
13:28:57.254,11.6875,4.4375
13:28:57.262,24.1563,27.5001
13:28:57.272,23.4063,26.8751
13:28:57.283,22.2188,25.4376
13:28:57.294,21.5001,25.1876
13:28:57.302,20.6563,23.0626
13:28:57.313,19.3751,22.8751
13:28:57.323,19.1251,20.4376
13:28:57.332,18.1563,19.9376
13:28:57.345,18.2188,18.5001
13:28:57.353,17.2501,18.8751
13:28:57.363,17.2188,16.0001
13:28:57.372,16.0626,14.6251
13:28:57.385,15.7188,14.1251
13:28:57.393,15.3751,12.25
13:28:57.403,14.7188,11.0625
13:28:57.421,14.6251,11.0625
13:28:57.427,15.0001,9.5
13:28:57.435,14.5626,8.5625
13:28:57.443,14.5626,9.5
13:28:57.458,14.5001,10
13:28:57.467,14.4688,9.0625
13:28:57.473,13.8751,8.8125
13:28:57.483,14.2501,9.5
13:28:57.492,13.7813,8.8125
13:28:57.502,13.7501,9
13:28:57.513,13.8126,10.3125
13:28:57.527,14.0001,9.5625
13:28:57.533,14.0626,8.375
13:28:57.543,13.6563,8.375
13:28:57.554,13.3751,8.4375
13:28:57.563,13.0938,8.25
13:28:57.574,12.6563,6.5
13:28:57.582,11.9688,4.3125
13:28:57.593,10.1875,3.3125
13:28:57.603,10.4063,2.6875
13:28:57.619,9.3438,0.9375
13:28:57.656,8,-0.9375
13:28:57.657,7.0625,-2.4375
13:28:57.658,5.7813,-3.4375
13:28:57.661,5.4375,-4.75
13:28:57.668,4.7813,-6.375
13:28:57.673,4.125,-8.0625
13:28:57.703,3.0313,-8.9375
13:28:57.708,3.2188,-8.9375
13:28:57.709,2.8125,-10.4375
13:28:57.716,2.8438,-12.75
13:28:57.743,1.9375,-12.9375
13:28:57.745,0.9063,-12.9375
13:28:57.747,1,-15.1876
13:28:57.753,0.625,-16.3751
13:28:57.779,-0.4688,-18.1251
13:28:57.782,-0.8438,-19.0001
13:28:57.783,-1.9063,-19.3751
13:28:57.795,-1.5625,-20.5001
13:28:57.805,-2.75,-21.8751
13:28:57.814,-3,-20.9376
13:28:57.824,-3.4375,-21.8751
13:28:57.834,-3.8438,-24.1876
13:28:57.843,-3.625,-23.8126
13:28:57.853,-3.4375,-24.5001
13:28:57.863,-3.625,-24.6251
13:28:57.873,-2.7813,-25.1251
13:28:57.884,-3.2188,-25.2501
13:28:57.894,-3.3438,-25.9376
13:28:57.903,-3.6875,-27.1876
13:28:57.913,-3.5313,-26.0626
13:28:57.924,-3.5313,-27.0626
13:28:57.934,-4.625,-27.6251
13:28:57.944,-5.0313,-28.9376
13:28:57.953,-4.75,-29.8126
13:28:57.963,-4.4375,-28.1251
13:28:57.974,-2.1875,-24.6251
13:28:57.983,0.9063,-19.5626
13:28:57.993,4.1563,-12.3125
13:28:58.003,7.6875,-4.625
13:28:58.013,11.6875,2
13:28:58.023,13.9688,9.125
13:28:58.033,16.1563,12.6875
13:28:58.043,17.6251,18.8126
13:28:58.053,18.6251,20.4376
13:28:58.064,18.9376,22.3751
13:28:58.073,19.5313,22.8126
13:28:58.083,18.5313,23.0001
13:28:58.093,17.7813,22.3751
13:28:58.103,16.7501,21.0626
13:28:58.113,16.3751,19.3751
13:28:58.124,15.3126,17.0626
13:28:58.134,14.1251,16.5626
13:28:58.143,13.5626,15.3126
13:28:58.155,12.9063,13.9376
13:28:58.163,12.5,12.375
13:28:58.173,12.25,10.875
13:28:58.183,10.1875,7.9375
13:28:58.193,9.0625,6.125
13:28:58.203,8.2813,5.25
13:28:58.213,8.25,3.875
13:28:58.223,8.1875,3.125
13:28:58.233,8.25,1.6875
13:28:58.244,8.375,4
13:28:58.254,9.0313,3.9375
13:28:58.263,10.4063,4.0625
13:28:58.276,10.6875,4.125
13:28:58.285,10.8438,5
13:28:58.293,10.9688,7.375
13:28:58.305,11.6563,7.4375
13:28:58.337,12.0625,7.5
13:28:58.410,11.7188,7.375
13:28:58.410,11.7813,8.0625
13:28:58.426,12.4063,7.8125
13:28:58.430,12.7813,7.625
13:28:58.432,12.2813,6.875
13:28:58.434,11.8125,7
13:28:58.434,11.5313,5.125
13:28:58.439,10.6875,3.6875
13:28:58.471,9.7188,4.125
13:28:58.473,9.1563,2.375
13:28:58.479,9.4375,1.25
13:28:58.479,8.2813,-0.8125
13:28:58.496,7.75,-1
13:28:58.498,7.5625,-1.125
13:28:58.508,7.9688,-2.75
13:28:58.518,8.0938,-4.0625
13:28:58.528,7.375,-4.6875
13:28:58.538,6.9063,-5.625
13:28:58.549,5.8438,-7.5
13:28:58.558,4.9375,-8.625
13:28:58.569,4.8125,-9.875
13:28:58.578,3.3438,-10.875
13:28:58.588,2.625,-12.9375
13:28:58.599,2.25,-16.0001
13:28:58.608,2.5,-17.2501
13:28:58.618,2.0625,-18.6876
13:28:58.630,1.4063,-20.0626
13:28:58.638,0.2813,-20.0001
13:28:58.648,0.3125,-21.5001
13:28:58.658,0.0938,-21.9376
13:28:58.670,0.4688,-21.3751
13:28:58.678,0.7188,-22.3126
13:28:58.688,1.3125,-21.2501
13:28:58.698,1.125,-22.9376
13:28:58.708,0.7188,-23.0001
13:28:58.718,0.4063,-23.6251
13:28:58.729,-0.5938,-24.0001
13:28:58.745,-0.2813,-22.8126
13:28:58.763,1.375,-21.1251
13:28:58.764,4,-17.0001
13:28:58.772,7.4375,-9.25
13:28:58.786,11.6563,-1.4375
13:28:58.788,14.3751,4.8125
13:28:58.799,16.6876,12.25
13:28:58.808,19.4376,16.5626
13:28:58.818,20.8126,22.8126
13:28:58.828,22.8438,25.8751
13:28:58.838,22.8751,26.6251
13:28:58.848,22.5001,29.0001
13:28:58.858,22.8126,29.8751
13:28:58.868,21.9688,28.5001
13:28:58.878,21.6251,28.6251
13:28:58.888,20.7501,27.0001
13:28:58.898,19.6876,25.0001
13:28:58.908,18.8126,23.7501
13:28:58.918,17.5938,22.4376
13:28:58.928,16.9063,21.0626
13:28:58.938,16.2501,19.0626
13:28:58.949,15.3751,18.5626
13:28:58.959,14.8751,16.0001
13:28:58.969,13.0313,14.1251
13:28:58.978,12.5313,12.5
13:28:58.989,11.3438,10.625
13:28:58.998,11.3438,9.8125
13:28:59.008,10.8438,9.1875
13:28:59.018,10.625,9.875
13:28:59.029,11.2188,8.5625
13:28:59.039,11.25,8.375
13:28:59.048,11.0313,9.4375
13:28:59.058,11.375,9.875
13:28:59.081,11.75,10.4375
13:28:59.083,12.4375,10.5
13:28:59.117,12.2188,11.3125
13:28:59.119,11.7188,12.125
13:28:59.121,12.2188,10.9375
13:28:59.124,11.3125,10.1875
13:28:59.130,11.3125,10.8125
13:28:59.158,11.6875,10.25
13:28:59.160,10.125,9.0625
13:28:59.162,9.7188,7.75
13:28:59.187,9.2188,7.0625
13:28:59.195,9.5,5.875
13:28:59.195,8.7188,4.25
13:28:59.223,7.4063,4.375
13:28:59.225,7.1875,2.25
13:28:59.229,6.6875,0.8125
13:28:59.234,6.3125,-0.1875
13:28:59.239,5,-0.75
13:28:59.251,5.1563,-2.75
13:28:59.258,4.4375,-4.4375
13:28:59.269,3.625,-5.125
13:28:59.279,3.2813,-5.125
13:28:59.288,3.4375,-7.375
13:28:59.298,2.625,-8.75
13:28:59.309,2.375,-8.4375
13:28:59.320,2.375,-9.625
13:28:59.330,2.5938,-11.1875
13:28:59.338,1.2188,-11.125
13:28:59.349,1.0938,-12.75
13:28:59.358,0.8125,-13.6876
13:28:59.368,0.5,-13.0625
13:28:59.378,0.3438,-13.2501
13:28:59.388,0.6563,-14.5626
13:28:59.402,0.1875,-16.3126
13:28:59.409,-0.375,-16.5001
13:28:59.418,-0.2813,-17.9376
13:28:59.428,-0.2813,-17.0626
13:28:59.438,-0.4688,-18.3126
13:28:59.449,-1.1875,-18.5626
13:28:59.458,-1.125,-19.6251
13:28:59.469,-0.9063,-20.6876
13:28:59.478,-1.2813,-21.5001
13:28:59.488,-1.7813,-21.1251
13:28:59.498,-1.625,-22.0001
13:28:59.508,-1.875,-22.8126
13:28:59.518,-1.1875,-21.9376
13:28:59.528,1.3125,-17.3751
13:28:59.538,4.4688,-12.4375
13:28:59.549,8.7813,-4
13:28:59.559,12.3438,3.75
13:28:59.568,15.9376,11.875
13:28:59.579,19.8751,19.4376
13:28:59.588,21.9688,26.3126
13:28:59.599,23.5626,31.7501
13:28:59.608,25.8751,34.8751
13:28:59.619,26.4689,38.6251
13:28:59.629,27.3439,40.0627
13:28:59.638,26.5001,41.5002
13:28:59.649,26.5626,40.0002
13:28:59.658,25.6563,41.3127
13:28:59.668,25.6563,39.6877
13:28:59.696,25.7501,38.3126
13:28:59.699,25.0938,38.8751
13:28:59.716,24.9376,37.1876
13:28:59.719,23.8438,36.4376
13:28:59.731,22.8751,36.5626
13:28:59.732,22.9376,34.1876
13:28:59.747,21.6876,32.7501
13:28:59.750,21.0626,32.1251
13:28:59.758,21.0313,29.7501
13:28:59.769,19.8751,27.7501
13:28:59.779,19.3438,28.0626
13:28:59.788,19.3751,26.7501
13:28:59.822,18.7813,25.1251
13:28:59.823,18.8751,24.5626
13:28:59.826,17.6563,25.5001
13:28:59.828,18.5001,24.9376
13:28:59.864,19.0938,24.4376
13:28:59.867,18.5938,25.5001
13:28:59.868,18.9376,27.0001
13:28:59.874,19.7501,26.3751
13:28:59.902,18.9376,26.1876
13:28:59.905,18.6251,25.7501
13:28:59.907,18.2188,25.8751
13:28:59.932,18.6251,25.5626
13:28:59.933,18.2501,25.1876
13:28:59.937,17.7501,23.8751
13:28:59.966,16.8751,22.1876
13:28:59.969,15.8438,22.1876
13:28:59.971,15.3751,21.0626
13:28:59.977,14.2188,18.0626
13:28:59.983,13,17.4376
13:28:59.993,12.8125,15.7501
13:29:00.006,11.9375,13.6876
13:29:00.013,10.7813,10.6875
13:29:00.023,9.6875,10.375
13:29:00.034,9.5625,8.625
13:29:00.052,8.9688,7.25
13:29:00.058,8.125,5.3125
13:29:00.067,7.4063,5.3125
13:29:00.073,6.8125,2.875
13:29:00.089,6.5313,1.0625
13:29:00.106,5.5313,1.1875
13:29:00.107,4.5938,0.0625
13:29:00.114,3.9688,-2
13:29:00.124,3.125,-3.5
13:29:00.136,2.5,-4.3125
13:29:00.144,2,-4.5625
13:29:00.153,1.9063,-6.3125
13:29:00.163,1.2188,-8.1875
13:29:00.175,0.8125,-7.875
13:29:00.184,1.1875,-9.375
13:29:00.193,1.0938,-9.8125
13:29:00.203,0.4375,-9.8125
13:29:00.214,0.2813,-10.5625
13:29:00.225,-0.1875,-11.625
13:29:00.233,-0.2813,-11.625
13:29:00.244,-0.0625,-12.875
13:29:00.253,-0.5313,-14.3126
13:29:00.263,-1.125,-14.7501
13:29:00.274,-1.4375,-15.2501
13:29:00.283,-1.3438,-16.7501
13:29:00.293,-0.8438,-17.0626
13:29:00.304,-0.9063,-16.2501
13:29:00.314,-1,-17.2501
13:29:00.324,-0.9688,-18.0626
13:29:00.333,0.6563,-14.5001
13:29:00.344,2.875,-11.0625
13:29:00.353,6.625,-3.6875
13:29:00.363,10.5313,4.0625
13:29:00.374,13.7813,12.75
13:29:00.383,17.2501,20.6251
13:29:00.393,20.4063,28.0626
13:29:00.405,23.3751,33.8751
13:29:00.414,25.1563,39.7502
13:29:00.424,27.1564,43.6877
13:29:00.434,27.5626,46.6252
13:29:00.443,28.1564,46.8127
13:29:00.455,28.0939,47.3752
13:29:00.465,27.8751,48.0627
13:29:00.473,27.2814,47.8127
13:29:00.489,27.3751,47.1877
13:29:00.500,26.6876,46.0002
13:29:00.510,25.7501,44.6877
13:29:00.518,25.7813,43.7502
13:29:00.528,24.1563,43.0627
13:29:00.538,22.7501,41.9377
13:29:00.550,23.1876,39.0002
13:29:00.559,21.0938,36.8126
13:29:00.569,19.7501,35.8751
13:29:00.578,18.8438,33.1251
13:29:00.590,17.8126,32.2501
13:29:00.608,18.0938,31.5001
13:29:00.610,17.2501,29.5626
13:29:00.638,17.0001,29.9376
13:29:00.640,16.9376,29.6876
13:29:00.642,16.3751,27.8751
13:29:00.677,16.5938,28.9376
13:29:00.680,16.5938,29.1876
13:29:00.680,16.3126,28.8751
13:29:00.683,16.9688,29.1251
13:29:00.689,16.4376,30.3751
13:29:00.719,16.4688,29.6251
13:29:00.722,16.3751,30.0626
13:29:00.725,15.9688,28.5626
13:29:00.730,15.5313,28.1251
13:29:00.765,14.6876,27.2501
13:29:00.766,14.4376,26.7501
13:29:00.768,14.3126,23.8126
13:29:00.771,12.3125,22.0626
13:29:00.781,11.5625,21.5001
13:29:00.789,9.875,19.4376
13:29:00.799,9.6563,16.9376
13:29:00.809,8.1875,14.3126
13:29:00.819,6.1563,12.9375
13:29:00.829,5.375,11.3125
13:29:00.839,4.0938,10
13:29:00.849,3.875,7.125
13:29:00.859,2.8438,6.25
13:29:00.870,1.9375,4.0625
13:29:00.878,1.4688,2.4375
13:29:00.889,-0.125,0.5625
13:29:00.902,-0.2188,-0.3125
13:29:00.909,-1.4688,-2
13:29:00.920,-3.125,-4.375
13:29:00.929,-3.8438,-5.125
13:29:00.939,-4.2813,-7
13:29:00.950,-6,-8.375
13:29:00.975,-6.875,-10.4375
13:29:00.978,-8.0625,-12.25
13:29:00.979,-9.7188,-13.5001
13:29:00.990,-10.5313,-14.4376
13:29:01.002,-11.875,-17.1251
13:29:01.014,-13.9063,-18.5001
13:29:01.023,-15.6563,-20.2501
13:29:01.029,-16.9063,-22.3751
13:29:01.040,-18.5313,-24.3126
13:29:01.055,-20.9688,-27.5626
13:29:01.062,-23.2188,-29.1876
13:29:01.069,-27.5001,-32.6876
13:29:01.078,-31.6251,-36.8751
13:29:01.090,-36.8751,-42.1252
13:29:01.099,-41.5314,-47.0627
13:29:01.110,-47.1877,-51.8127
13:29:01.118,-53.4377,-56.6252
13:29:01.130,-61.3752,-64.3127
13:29:01.139,-70.2815,-71.4378
13:29:01.149,-81.1566,-81.0628
13:29:01.160,-90.9066,-87.0003
13:29:01.171,-97.5316,-90.7504
13:29:01.179,-102.2816,-90.0628
13:29:01.190,-104.0316,-90.8129
13:29:01.199,-104.2191,-86.1878
13:29:01.210,-106.3129,-83.3753
13:29:01.220,-112.4067,-84.5628
13:29:01.230,-117.0317,-84.9378
13:29:01.239,-122.5942,-86.9378
13:29:01.267,-133.4068,-92.7504
13:29:01.273,-146.1568,-97.9379
13:29:01.273,-160.7819,-110.8129
13:29:01.281,-176.2819,-123.1255
13:29:01.306,-188.7195,-134.5005
13:29:01.310,-196.9695,-139.938
13:29:01.311,-219.0633,-160.5631
13:29:01.355,-243.4072,-180.4382
13:29:01.358,-277.5948,-211.1258
13:29:01.359,-306.6262,-237.6884
13:29:01.390,-310.6262,-243.4384
13:29:01.390,-302.9387,-237.2509
13:29:01.391,-295.9699,-228.6259
13:29:01.438,-296.5636,-229.4384
13:29:01.438,-296.5011,-228.1259
13:29:01.454,-293.5636,-226.8134
13:29:01.454,-289.5323,-222.4384
13:29:01.457,-286.8761,-220.8758
13:29:01.459,-284.8761,-217.0633
13:29:01.463,-283.4698,-216.8133
13:29:01.474,-281.8136,-213.2508
13:29:01.484,-276.7198,-210.3133
13:29:01.495,-270.9698,-204.1258
13:29:01.504,-270.2823,-200.5633
13:29:01.515,-271.0635,-201.3133
13:29:01.524,-269.376,-197.3758
13:29:01.534,-262.1885,-191.4382
13:29:01.545,-256.5635,-184.6882
13:29:01.555,-253.626,-179.8757
13:29:01.564,-252.9385,-177.9382
13:29:01.574,-250.5635,-175.8132
13:29:01.585,-249.2509,-173.7507
13:29:01.594,-246.1572,-172.1257
13:29:01.605,-254.376,-175.1882
13:29:01.614,-254.0322,-171.7507
13:29:01.625,-250.9697,-168.4381
13:29:01.635,-244.8134,-163.4381
13:29:01.645,-240.9072,-159.5006
13:29:01.655,-237.8759,-159.6881
13:29:01.664,-234.8759,-158.1881
13:29:01.675,-231.7821,-156.2506
13:29:01.686,-227.0321,-154.1256
13:29:01.694,-223.6884,-151.5006
13:29:01.704,-220.5321,-148.9381
13:29:01.714,-216.6571,-149.0631
13:29:01.724,-211.6571,-146.0005
13:29:01.735,-208.4383,-143.7505
13:29:01.744,-202.5945,-140.2505
13:29:01.755,-199.5945,-138.063
13:29:01.764,-196.9695,-138.313
13:29:01.775,-194.3757,-136.0005
13:29:01.784,-191.5632,-135.188
13:29:01.795,-187.6882,-133.0005
13:29:01.805,-186.5632,-131.0005
13:29:01.814,-185.5007,-132.563
13:29:01.826,-182.6882,-131.438
13:29:01.834,-182.032,-130.563
13:29:01.844,-179.7194,-130.6255
13:29:01.855,-177.6569,-128.7505
13:29:01.864,-175.8444,-126.938
13:29:01.874,-173.5944,-127.7505
13:29:01.885,-171.3757,-125.2505
13:29:01.894,-168.7194,-124.063
13:29:01.905,-166.6881,-123.8755
13:29:01.914,-164.0631,-122.5005
13:29:01.925,-161.0006,-121.563
13:29:01.934,-158.3756,-119.188
13:29:01.945,-157.4381,-117.2504
13:29:01.954,-155.6256,-118.063
13:29:01.965,-153.0631,-114.6254
13:29:01.975,-148.7506,-106.7504
13:29:01.985,-142.938,-99.6254
13:29:01.994,-136.438,-88.5003
13:29:02.005,-129.938,-79.3128
13:29:02.016,-123.8755,-68.6878
13:29:02.050,-119.0005,-58.9377
13:29:02.052,-113.4379,-51.5002
13:29:02.054,-108.6254,-43.3752
13:29:02.057,-106.1879,-37.3751
13:29:02.100,-103.1254,-32.8126
13:29:02.101,-100.3129,-27.8751
13:29:02.103,-99.1879,-26.8751
13:29:02.109,-97.5004,-24.8751
13:29:02.111,-96.0004,-21.6876
13:29:02.116,-93.1879,-20.8751
13:29:02.155,-90.5003,-18.6876
13:29:02.161,-90.7504,-18.3126
13:29:02.161,-89.9378,-19.6876
13:29:02.163,-89.8128,-20.1251
13:29:02.169,-89.5003,-21.1251
13:29:02.175,-89.1878,-22.2501
13:29:02.192,-90.0628,-22.8126
13:29:02.201,-89.4378,-25.3751
13:29:02.204,-89.1878,-25.4376
13:29:02.215,-89.0628,-27.3126
13:29:02.225,-87.8753,-26.1876
13:29:02.255,-86.9378,-27.1876
13:29:02.257,-86.0628,-25.8126
13:29:02.259,-84.0003,-25.7501
13:29:02.265,-82.6253,-23.4376
13:29:02.274,-81.7503,-23.1251
13:29:02.285,-81.1878,-22.3126
13:29:02.294,-80.5628,-22.1251
13:29:02.304,-79.5628,-19.8751
13:29:02.319,-79.1878,-20.5626
13:29:02.336,-79.1878,-19.5626
13:29:02.339,-79.2503,-20.4376
13:29:02.355,-78.8753,-21.4376
13:29:02.370,-79.3753,-21.0001
13:29:02.372,-78.6253,-22.7501
13:29:02.382,-78.7503,-23.1251
13:29:02.389,-79.6878,-24.1251
13:29:02.400,-80.2503,-25.8751
13:29:02.410,-80.8753,-27.9376
13:29:02.419,-80.3128,-29.0626
13:29:02.430,-81.2503,-30.3751
13:29:02.439,-81.1878,-32.1251
13:29:02.449,-82.5628,-33.5626
13:29:02.459,-83.1878,-35.7501
13:29:02.469,-83.9378,-38.4376
13:29:02.479,-84.9378,-41.4377
13:29:02.489,-84.1878,-42.0627
13:29:02.499,-82.8128,-41.7502
13:29:02.510,-83.5003,-42.8127
13:29:02.519,-82.1253,-43.3752
13:29:02.531,-81.1878,-44.3127
13:29:02.542,-80.5003,-43.8752
13:29:02.551,-78.5628,-43.7502
13:29:02.559,-77.7503,-44.6252
13:29:02.576,-76.1878,-42.8127
13:29:02.582,-74.2503,-44.0627
13:29:02.590,-73.0628,-43.2502
13:29:02.599,-71.2503,-42.8127
13:29:02.609,-70.5003,-42.5002
13:29:02.620,-69.5003,-42.9377
13:29:02.630,-69.1878,-42.8752
13:29:02.641,-67.8128,-43.0627
13:29:02.651,-68.0003,-43.8127
13:29:02.661,-65.7503,-43.3752
13:29:02.669,-65.8753,-43.3752
13:29:02.680,-63.5002,-42.8752
13:29:02.690,-64.5627,-44.1252
13:29:02.699,-64.1252,-45.6252
13:29:02.717,-63.0002,-44.9377
13:29:02.723,-60.9377,-43.7502
13:29:02.730,-59.5002,-41.8127
13:29:02.739,-56.6877,-36.8751
13:29:02.754,-51.4377,-30.2501
13:29:02.763,-46.4377,-19.7501
13:29:02.769,-39.5002,-10.5625
13:29:02.780,-36.3126,-0.75
13:29:02.823,-31.1251,8.125
13:29:02.826,-27.7501,17.8126
13:29:02.826,-24.1876,24.7501
13:29:02.828,-21.6876,30.1251
13:29:02.830,-20.2501,34.8751
13:29:02.859,-19.4376,37.1251
13:29:02.863,-18.7501,39.8752
13:29:02.863,-18.6876,40.0627
13:29:02.871,-19.1251,40.6877
13:29:02.882,-19.3751,39.6252
13:29:02.925,-20.1876,38.9376
13:29:02.926,-21.1251,37.0001
13:29:02.928,-21.4376,36.2501
13:29:02.931,-22.8126,34.6876
13:29:02.937,-24.0001,32.1876
13:29:02.941,-24.4376,30.1251
13:29:02.972,-25.9376,28.4376
13:29:02.974,-26.4376,25.4376
13:29:02.977,-28.2501,23.6876
13:29:02.979,-29.5626,20.7501
13:29:02.993,-30.0626,18.7501
13:29:03.000,-29.8126,18.8751
13:29:03.010,-31.3126,15.8126
13:29:03.019,-32.5001,13.9376
13:29:03.029,-32.3751,13.6251
13:29:03.039,-32.5626,13.3751
13:29:03.049,-32.8126,12.5
13:29:03.059,-34.3751,12.625
13:29:03.071,-33.5626,12.9375
13:29:03.080,-32.5626,12.5
13:29:03.090,-32.0626,13.6876
13:29:03.101,-32.2501,12.5625
13:29:03.109,-32.0001,12.75
13:29:03.119,-31.6876,11.6875
13:29:03.130,-33.5626,10.25
13:29:03.139,-35.0001,9.3125
13:29:03.150,-36.0626,6.75
13:29:03.159,-36.6876,4.25
13:29:03.169,-37.3126,3.3125
13:29:03.180,-38.5001,1.3125
13:29:03.189,-39.9377,-1.1875
13:29:03.199,-40.8127,-3.5
13:29:03.210,-42.1877,-5.8125
13:29:03.220,-42.5002,-7.4375
13:29:03.230,-43.4377,-10.125
13:29:03.239,-44.1877,-11.875
13:29:03.249,-44.7502,-13.9376
13:29:03.259,-45.9377,-16.8751
13:29:03.269,-46.5627,-18.2501
13:29:03.280,-46.1877,-20.1876
13:29:03.289,-47.8752,-21.1876
13:29:03.299,-48.0627,-23.4376
13:29:03.310,-47.0627,-24.4376
13:29:03.320,-48.6252,-25.4376
13:29:03.330,-48.1252,-27.0626
13:29:03.339,-47.5627,-28.0626
13:29:03.350,-47.5627,-28.0626
13:29:03.359,-49.1252,-30.7501
13:29:03.371,-50.3127,-32.0001
13:29:03.379,-50.1877,-33.8126
13:29:03.390,-50.1877,-33.1251
13:29:03.401,-49.0627,-34.3751
13:29:03.409,-47.7502,-32.8126
13:29:03.419,-46.5002,-33.7501
13:29:03.429,-46.4377,-33.8751
13:29:03.439,-44.5002,-34.1876
13:29:03.450,-43.5627,-33.3126
13:29:03.460,-43.6877,-33.9376
13:29:03.470,-45.2502,-36.0626
13:29:03.479,-45.4377,-36.6251
13:29:03.489,-43.5627,-32.2501
13:29:03.499,-40.3752,-26.8751
13:29:03.536,-35.5626,-20.3126
13:29:03.541,-31.0001,-10.4375
13:29:03.541,-26.1876,-1.9375
13:29:03.544,-22.1251,7.625
13:29:03.580,-18.6876,15.3126
13:29:03.583,-16.6876,23.1251
13:29:03.583,-16.4376,27.1251
13:29:03.586,-18.1876,29.8126
13:29:03.593,-19.0626,30.1251
13:29:03.623,-20.5001,31.5001
13:29:03.626,-20.9376,30.8126
13:29:03.628,-22.8751,30.4376
13:29:03.633,-22.6251,28.8126
13:29:03.639,-23.4376,29.8751
13:29:03.698,-23.9376,27.8751
13:29:03.701,-24.8126,28.0626
13:29:03.716,-25.3751,26.0626
13:29:03.729,-25.5001,24.6251
13:29:03.731,-25.3126,25.1251
13:29:03.734,-24.3751,23.5626
13:29:03.734,-23.1876,23.8751
13:29:03.741,-22.9376,22.6251
13:29:03.751,-21.8126,22.9376
13:29:03.759,-19.2501,23.9376
13:29:03.771,-17.5001,23.7501
13:29:03.780,-17.4376,24.6251
13:29:03.790,-15.8126,23.8126
13:29:03.800,-14.8126,23.5626
13:29:03.810,-15.3126,25.0001
13:29:03.819,-14.4376,25.4376
13:29:03.830,-13.7501,25.8126
13:29:03.840,-11.3125,27.8751
13:29:03.849,-9.8125,28.2501
13:29:03.860,-8.5,28.6251
13:29:03.870,-8.0625,28.1251
13:29:03.879,-8.1875,28.1876
13:29:03.891,-9.25,25.9376
13:29:03.900,-11,22.4376
13:29:03.910,-10.75,23.2501
13:29:03.920,-11.0625,22.5626
13:29:03.929,-10.8125,20.5001
13:29:03.940,-11.75,19.7501
13:29:03.950,-11.4375,17.4376
13:29:03.959,-11.9375,16.2501
13:29:03.970,-11.8125,15.8126
13:29:03.979,-12.0625,13.1251
13:29:03.990,-13.6251,10.9375
13:29:04.001,-13.3126,8.9375
13:29:04.010,-14.8126,7.8125
13:29:04.021,-15.3126,5.75
13:29:04.039,-14.6876,4.1875
13:29:04.046,-13.8751,3.8125
13:29:04.053,-13.1251,3.625
13:29:04.059,-12.4375,2.625
13:29:04.077,-12.8125,2.1875
13:29:04.083,-11.6875,1.0625
13:29:04.093,-11.9375,0.0625
13:29:04.101,-10.6875,1
13:29:04.109,-9.5,1.1875
13:29:04.120,-8.6875,-0.1875
13:29:04.131,-9.25,-1.25
13:29:04.141,-8.8125,-2.1875
13:29:04.151,-10.25,-4
13:29:04.159,-10.4375,-3.9375
13:29:04.197,-9.75,-5.9375
13:29:04.199,-9.3125,-4.4375
13:29:04.204,-7.25,-2.6875
13:29:04.205,-4.5,1.4375
13:29:04.234,-1.8125,7.375
13:29:04.237,-0.125,12.625
13:29:04.238,0.6875,20.3126
13:29:04.244,4,27.9376
13:29:04.273,6.9375,33.2501
13:29:04.274,8.3125,39.1251
13:29:04.277,9.875,44.5002
13:29:04.303,10.5625,47.1877
13:29:04.304,11.875,50.0627
13:29:04.307,11,50.2502
13:29:04.313,10.1875,51.3127
13:29:04.341,8.75,49.6252
13:29:04.343,7.875,47.9377
13:29:04.345,6.625,46.0627
13:29:04.360,5.8125,45.3127
13:29:04.362,5.25,44.1877
13:29:04.371,2.5625,41.4377
13:29:04.381,0.6875,38.8751
13:29:04.391,-1.8125,35.7501
13:29:04.401,-4.75,31.1876
13:29:04.411,-7.5,28.5001
13:29:04.421,-10.5,24.0626
13:29:04.430,-12.0625,20.9376
13:29:04.440,-12.8125,19.1876
13:29:04.450,-13.3751,16.0626
13:29:04.461,-15.0626,14.3751
13:29:04.471,-16.8126,11.6875
13:29:04.481,-19.0001,9.5
13:29:04.495,-19.6876,7.75
13:29:04.501,-21.8126,6.6875
13:29:04.511,-23.5626,5
13:29:04.521,-25.1251,3
13:29:04.531,-27.0626,0.5
13:29:04.547,-30.3126,-1.6875
13:29:04.555,-34.0001,-5.8125
13:29:04.565,-37.3751,-10.25
13:29:04.575,-40.1252,-13.4376
13:29:04.587,-42.8752,-16.6876
13:29:04.595,-44.0627,-17.8751
13:29:04.605,-45.4377,-20.5626
13:29:04.616,-46.4377,-21.8751
13:29:04.626,-46.9377,-24.2501
13:29:04.635,-49.1252,-26.1251
13:29:04.646,-48.3752,-25.6876
13:29:04.656,-46.2502,-26.6876
13:29:04.666,-45.0627,-27.2501
13:29:04.675,-43.5627,-26.9376
13:29:04.686,-42.0627,-28.8126
13:29:04.697,-41.5002,-30.6251
13:29:04.705,-41.2502,-32.7501
13:29:04.715,-42.0627,-35.6876
13:29:04.726,-42.7502,-37.3126
13:29:04.736,-41.7502,-39.1251
13:29:04.746,-41.8127,-40.9377
13:29:04.755,-40.8752,-42.8752
13:29:04.765,-40.6252,-42.5627
13:29:04.775,-39.8127,-44.6252
13:29:04.786,-39.5002,-44.1877
13:29:04.815,-38.5001,-45.3127
13:29:04.817,-39.0001,-45.1252
13:29:04.820,-38.8751,-47.1877
13:29:04.826,-39.5002,-47.4377
13:29:04.836,-39.8752,-49.3127
13:29:04.846,-38.1251,-48.2502
13:29:04.855,-37.6251,-49.0627
13:29:04.871,-37.8126,-48.6252
13:29:04.876,-36.0001,-48.5002
13:29:04.887,-33.8126,-44.6877
13:29:04.897,-30.8751,-39.9377
13:29:04.906,-27.3751,-34.2501
13:29:04.915,-20.7501,-23.8126
13:29:04.926,-14.9376,-15.3126
13:29:04.936,-10.25,-5.5
13:29:04.946,-6.5,0.75
13:29:04.956,-5.4375,6.625
13:29:04.970,-3.6875,10.8125
13:29:05.007,-2.8125,14.8751
13:29:05.009,-1.6875,16.3751
13:29:05.045,-2.1875,17.3751
13:29:05.086,-1.875,18.1251
13:29:05.120,-3,17.5626
13:29:05.145,-4.3125,16.3751
13:29:05.145,-6.0625,14.1876
13:29:05.145,-8.0625,12.9375
13:29:05.147,-9.875,10
13:29:05.149,-10.5625,9.3125
13:29:05.156,-13.0625,6.875
13:29:05.156,-15.1876,5.3125
13:29:05.156,-17.8126,3
13:29:05.161,-20.0626,0
13:29:05.171,-23.3751,-1.875
13:29:05.180,-26.1876,-5.875
13:29:05.191,-28.1251,-7.6875
13:29:05.201,-29.6876,-9.6875
13:29:05.211,-30.8751,-10.625
13:29:05.222,-31.0001,-11.1875
13:29:05.231,-30.6876,-11.4375
13:29:05.249,-29.8751,-11.6875
13:29:05.250,-31.3126,-12.75
13:29:05.261,-32.4376,-13.8126
13:29:05.271,-33.3751,-14.6876
13:29:05.281,-34.9376,-15.0001
13:29:05.291,-35.9376,-15.4376
13:29:05.302,-38.4376,-18.7501
13:29:05.311,-41.6252,-22.6251
13:29:05.321,-49.5002,-32.2501
13:29:05.330,-53.4377,-35.4376
13:29:05.341,-57.0627,-41.1252
13:29:05.351,-60.1877,-44.3752
13:29:05.367,-63.8127,-49.9377
13:29:05.371,-65.1253,-52.2502
13:29:05.381,-68.3128,-56.3127
13:29:05.399,-68.9378,-57.7502
13:29:05.407,-69.8128,-60.2502
13:29:05.414,-69.6253,-61.6877
13:29:05.421,-70.1878,-64.0627
13:29:05.430,-72.0628,-66.5003
13:29:05.441,-71.3128,-67.5628
13:29:05.451,-70.5628,-68.6253
13:29:05.461,-68.1878,-69.5628
13:29:05.471,-66.0628,-70.9378
13:29:05.481,-65.7503,-71.6253
13:29:05.491,-64.5002,-73.0003
13:29:05.501,-63.5002,-73.7503
13:29:05.511,-63.7502,-74.6878
13:29:05.521,-62.9377,-76.3753
13:29:05.530,-63.5627,-77.1878
13:29:05.541,-63.8127,-78.6253
13:29:05.550,-63.9377,-79.5003
13:29:05.561,-64.4377,-80.8753
13:29:05.571,-63.2502,-81.6253
13:29:05.581,-62.8127,-80.8753
13:29:05.591,-62.3127,-80.9378
13:29:05.601,-61.8127,-80.1253
13:29:05.610,-60.3127,-80.0628
13:29:05.622,-58.6877,-77.6253
13:29:05.631,-55.8127,-73.6253
13:29:05.662,-52.1252,-66.6878
13:29:05.665,-47.1252,-59.6252
13:29:05.667,-42.0002,-51.0627
13:29:05.681,-36.8126,-42.2502
13:29:05.687,-32.7501,-35.2501
13:29:05.714,-30.3751,-28.7501
13:29:05.717,-26.5626,-22.8751
13:29:05.719,-23.6251,-17.8126
13:29:05.726,-21.0001,-12.9375
13:29:05.761,-18.1876,-9.4375
13:29:05.762,-16.4376,-6.4375
13:29:05.763,-16.5626,-4.4375
13:29:05.765,-14.7501,-5
13:29:05.798,-12.375,-1.75
13:29:05.801,-11.9375,-0.875
13:29:05.802,-10.125,0
13:29:05.807,-9.6875,0.6875
13:29:05.820,-8.875,0.6875
13:29:05.826,-9.3125,0.625
13:29:05.835,-7.875,0.5
13:29:05.846,-8.125,0.5625
13:29:05.855,-9.5,-2.375
13:29:05.866,-10.75,-3.6875
13:29:05.876,-11.9375,-6.0625
13:29:05.886,-11.75,-5.9375
13:29:05.895,-12.1875,-5.0625
13:29:05.905,-10.4375,-5.25
13:29:05.916,-10.5625,-3.8125
13:29:05.926,-11.875,-4.9375
13:29:05.935,-13.8751,-5.6875
13:29:05.945,-15.3126,-5.8125
13:29:05.956,-15.9376,-4.375
13:29:05.966,-18.8126,-4.0625
13:29:05.975,-20.4376,-5.4375
13:29:05.986,-23.9376,-6.875
13:29:05.997,-23.9376,-7.0625
13:29:06.007,-24.5001,-6.6875
13:29:06.016,-25.1876,-7.4375
13:29:06.026,-27.6876,-9.1875
13:29:06.036,-27.3126,-9.625
13:29:06.045,-28.1876,-10.25
13:29:06.056,-28.0626,-11.625
13:29:06.066,-28.6876,-11.9375
13:29:06.098,-29.8126,-14.9376
13:29:06.099,-30.3751,-15.5626
13:29:06.102,-31.5626,-16.3751
13:29:06.108,-32.6876,-18.9376
13:29:06.116,-34.0001,-22.5001
13:29:06.126,-36.0001,-23.9376
13:29:06.135,-37.8751,-26.1876
13:29:06.146,-38.9376,-29.4376
13:29:06.156,-40.5002,-30.5626
13:29:06.165,-41.9377,-34.4376
13:29:06.176,-45.8127,-35.8751
13:29:06.186,-48.1877,-40.5002
13:29:06.196,-49.3752,-43.2502
13:29:06.205,-51.6877,-46.2502
13:29:06.216,-53.3127,-49.2502
13:29:06.225,-55.0002,-51.0002
13:29:06.235,-57.7502,-53.6252
13:29:06.246,-59.1252,-57.1252
13:29:06.256,-59.9377,-58.3752
13:29:06.266,-60.4377,-59.3752
13:29:06.275,-61.6877,-60.5627
13:29:06.285,-60.5002,-62.1877
13:29:06.295,-58.8127,-61.7502
13:29:06.306,-58.1877,-62.8752
13:29:06.315,-56.2502,-64.2502
13:29:06.326,-54.2502,-64.1877
13:29:06.336,-53.5002,-65.4377
13:29:06.346,-53.6877,-67.8753
13:29:06.355,-52.3127,-68.0003
13:29:06.369,-51.8127,-68.3128
13:29:06.401,-51.1252,-69.1878
13:29:06.402,-50.3752,-69.3128
13:29:06.438,-48.8752,-68.1878
13:29:06.471,-46.8127,-64.1252
13:29:06.501,-43.3127,-59.1252
13:29:06.542,-40.9377,-51.3752
13:29:06.542,-35.2501,-43.2502
13:29:06.542,-30.4376,-35.0626
13:29:06.542,-25.8126,-26.0001
13:29:06.546,-23.1251,-20.1251
13:29:06.552,-20.8751,-14.3751
13:29:06.552,-17.8126,-9.375
13:29:06.553,-16.6251,-5.0625
13:29:06.561,-14.8751,-2.4375
13:29:06.571,-13.9376,-0.4375
13:29:06.580,-13.125,0.875
13:29:06.591,-11.9375,1.8125
13:29:06.601,-11.125,4.1875
13:29:06.611,-9.3125,5.4375
13:29:06.622,-8,5.6875
13:29:06.631,-6.375,7.8125
13:29:06.640,-4.75,8.9375
13:29:06.650,-3.5,10.1875
13:29:06.661,-3.0625,9.3125
13:29:06.671,-1.5,9.5625
13:29:06.689,-1.875,9.9375
13:29:06.696,-1.3125,10.625
13:29:06.704,0.5,11.375
13:29:06.712,1.3125,13.5001
13:29:06.727,2.8125,14.7501
13:29:06.734,2.125,14.0626
13:29:06.747,1.625,14.8126
13:29:06.752,1.125,14.6876
13:29:06.760,2.1875,14.9376
13:29:06.772,2.3125,14.9376
13:29:06.782,2.25,17.3126
13:29:06.791,2.9375,15.6876
13:29:06.800,1.9375,16.5001
13:29:06.810,2.6875,14.6876
13:29:06.820,1.3125,13.6876
13:29:06.831,0.9375,13.5001
13:29:06.840,-1.125,10.875
13:29:06.850,-2.375,9.4375
13:29:06.861,-3.375,8.4375
13:29:06.871,-2.5625,6.8125
13:29:06.881,-1.625,7.375
13:29:06.891,-1,6.9375
13:29:06.901,-1.625,6.25
13:29:06.910,-1.75,6.6875
13:29:06.921,-2.25,3.1875
13:29:06.930,-4.3125,1.1875
13:29:06.941,-5.4375,-1
13:29:06.952,-4.875,-1.125
13:29:06.961,-3.75,-0.75
13:29:06.972,-1.25,-0.8125
13:29:06.982,1,1.1875
13:29:06.992,3.75,2.6875
13:29:07.001,6.375,5.4375
13:29:07.012,9.3125,6.5
13:29:07.022,10.0625,7
13:29:07.032,11.4375,7.4375
13:29:07.041,16.3751,10.875
13:29:07.052,21.1876,14.9376
13:29:07.061,24.0001,18.0001
13:29:07.073,26.3126,18.8751
13:29:07.082,27.7501,19.8751
13:29:07.108,28.3751,20.8751
13:29:07.109,28.5001,19.8126
13:29:07.112,27.7501,19.1251
13:29:07.143,27.5001,17.1251
13:29:07.147,28.7501,18.6251
13:29:07.148,32.2501,21.0001
13:29:07.153,35.3126,23.8126
13:29:07.191,37.0001,24.0001
13:29:07.193,38.7501,26.5001
13:29:07.194,39.3752,25.0626
13:29:07.222,36.8126,24.5001
13:29:07.222,114.2504,42.3752
13:29:07.223,121.8755,98.4379
13:29:07.225,126.3755,103.8129
13:29:07.230,132.1255,110.5629
13:29:07.246,145.5005,125.2505
13:29:07.250,161.1881,144.063
13:29:07.275,176.3757,160.2506
13:29:07.277,194.1882,178.6257
13:29:07.283,209.2508,196.9382
13:29:07.292,222.5634,210.0633
13:29:07.303,232.0634,220.6884
13:29:07.312,239.0009,228.8134
13:29:07.321,242.5634,233.1884
13:29:07.331,247.3134,236.0009
13:29:07.340,252.876,240.6259
13:29:07.350,260.751,246.5009
13:29:07.376,265.6885,249.3759
13:29:07.379,275.126,259.126
13:29:07.383,281.9386,262.876
13:29:07.392,287.0636,267.126
13:29:07.402,290.0636,269.6885
13:29:07.412,294.2511,272.4385
13:29:07.423,300.3137,276.251
13:29:07.432,299.4387,275.8135
13:29:07.442,302.3137,275.001
13:29:07.452,303.4387,275.1885
13:29:07.462,302.4387,273.0635
13:29:07.472,300.9387,270.376
13:29:07.482,299.5637,268.376
13:29:07.492,299.1261,265.9385
13:29:07.501,299.0011,265.626
13:29:07.512,297.6261,263.376
13:29:07.522,295.7511,262.1885
13:29:07.532,294.6261,259.751
13:29:07.541,293.5011,258.751
13:29:07.552,292.8136,258.1885
13:29:07.561,293.4386,257.3135
13:29:07.572,292.2511,256.5635
13:29:07.582,291.1886,254.501
13:29:07.593,285.5636,251.8135
13:29:07.602,286.0011,249.0634
13:29:07.612,282.3136,246.1259
13:29:07.622,281.0636,243.5009
13:29:07.632,277.8761,241.5634
13:29:07.642,275.876,237.2509
13:29:07.651,272.001,233.7509
13:29:07.662,267.626,229.0009
13:29:07.672,262.3135,223.5634
13:29:07.682,256.376,217.9383
13:29:07.692,250.1259,210.9383
13:29:07.702,244.4384,206.0008
13:29:07.712,238.4384,199.0633
13:29:07.722,233.7509,194.2507
13:29:07.732,230.6259,190.1882
13:29:07.742,226.8134,186.0632
13:29:07.752,223.5009,182.1257
13:29:07.762,219.6883,177.6257
13:29:07.785,217.1883,175.2507
13:29:07.788,213.1258,171.1256
13:29:07.802,210.8133,167.3131
13:29:07.805,206.6883,163.5631
13:29:07.812,203.3758,159.4381
13:29:07.822,198.0633,154.7506
13:29:07.832,194.1257,149.7506
13:29:07.842,190.3132,145.813
13:29:07.852,188.1257,142.313
13:29:07.862,185.3132,140.0005
13:29:07.872,182.9382,136.3755
13:29:07.882,179.1882,132.813
13:29:07.892,176.3132,129.313
13:29:07.902,172.6257,126.438
13:29:07.946,169.2506,121.688
13:29:07.947,164.6256,118.313
13:29:07.950,160.4381,113.5004
13:29:07.952,155.3756,108.2504
13:29:07.957,149.8131,103.6254
13:29:07.990,143.8755,98.0629
13:29:07.991,138.563,93.1254
13:29:07.993,133.6255,87.9378
13:29:07.999,129.4067,84.2503
13:29:08.047,125.5005,80.6878
13:29:08.048,123.0942,76.7503
13:29:08.049,119.063,74.3753
13:29:08.077,116.7504,70.6253
13:29:08.077,112.2504,67.5003
13:29:08.080,109.9379,64.2502
13:29:08.081,107.0942,61.0002
13:29:08.096,104.0629,60.5627
13:29:08.096,102.4691,60.7502
13:29:08.098,101.0629,62.2502
13:29:08.107,99.9691,65.3752
13:29:08.117,98.2816,68.1878
13:29:08.127,96.9691,71.3128
13:29:08.137,95.7816,72.7503
13:29:08.147,94.7816,74.1878
13:29:08.157,93.1566,75.5003
13:29:08.167,91.1879,76.1878
13:29:08.177,90.5629,74.9378
13:29:08.187,88.4066,74.4378
13:29:08.197,87.2816,72.6253
13:29:08.207,85.7503,70.3753
13:29:08.219,84.8441,69.3753
13:29:08.227,82.7191,66.5003
13:29:08.237,80.9378,65.2502
13:29:08.247,80.0316,63.2502
13:29:08.257,79.1253,61.0002
13:29:08.267,78.0628,59.5627
13:29:08.277,77.969,58.7502
13:29:08.287,76.094,56.5002
13:29:08.297,75.3128,54.2502
13:29:08.307,74.2503,52.8752
13:29:08.316,72.8753,50.6877
13:29:08.327,72.7815,49.3127
13:29:08.337,71.3128,48.5002
13:29:08.347,71.1565,46.6877
13:29:08.357,70.2815,45.8127
13:29:08.368,69.6878,44.8127
13:29:08.377,67.969,43.4377
13:29:08.387,66.9378,43.1877
13:29:08.397,66.844,42.6252
13:29:08.407,65.9378,42.1877
13:29:08.417,65.1877,42.0002
13:29:08.427,63.6877,40.9377
13:29:08.438,62.6252,40.3127
13:29:08.447,60.594,37.2501
13:29:08.457,58.4065,35.9376
13:29:08.470,55.9065,33.8751
13:29:08.477,53.9065,31.1251
13:29:08.488,51.8752,28.4376
13:29:08.497,49.6877,25.6251
13:29:08.507,46.2189,23.2501
13:29:08.517,44.6564,21.3126
13:29:08.527,41.9689,17.3751
13:29:08.537,38.9376,14.5001
13:29:08.547,36.2501,11.625
13:29:08.557,33.1876,7.9375
13:29:08.567,28.8439,3.5625
13:29:08.578,24.5938,0
13:29:08.587,21.1251,-3.75
13:29:08.597,17.2188,-8.4375
13:29:08.607,13.3438,-11.5625
13:29:08.618,9.6563,-16.1876
13:29:08.627,6.625,-18.6876
13:29:08.657,2.6563,-23.3126
13:29:08.660,-2.0313,-28.1251
13:29:08.661,-7.2813,-33.3126
13:29:08.695,-11.5,-36.7501
13:29:08.697,-15.3126,-39.2501
13:29:08.699,-18.2813,-42.8752
13:29:08.702,-21.6251,-45.5627
13:29:08.733,-24.0938,-47.4377
13:29:08.734,-24.9376,-49.8127
13:29:08.737,-25.6563,-49.9377
13:29:08.743,-25.3126,-50.0002
13:29:08.775,-26.0626,-50.0002
13:29:08.777,-26.9376,-51.1252
13:29:08.779,-28.0001,-51.9377
13:29:08.786,-30.0001,-52.6877
13:29:08.801,-30.2814,-54.8127
13:29:08.803,-31.3751,-54.9377
13:29:08.815,-31.2501,-55.9377
13:29:08.823,-31.5939,-55.5627
13:29:08.832,-29.8751,-54.4377
13:29:08.844,-27.6876,-54.3127
13:29:08.852,-26.3751,-52.7502
13:29:08.861,-26.0313,-53.0627
13:29:08.872,-25.3438,-52.9377
13:29:08.882,-25.2188,-51.3752
13:29:08.892,-23.0938,-51.1877
13:29:08.902,-22.2188,-46.5627
13:29:08.912,-18.5313,-42.2502
13:29:08.922,-14.7188,-34.8126
13:29:08.932,-11.0938,-29.3751
13:29:08.942,-8.625,-21.8751
13:29:08.952,-6,-17.1251
13:29:08.962,-4.0625,-13.3126
13:29:08.972,-3.9375,-9.25
13:29:08.982,-2.5313,-7.625
13:29:08.992,-2.8125,-6.3125
13:29:09.002,-2.0938,-5.0625
13:29:09.012,-1.9063,-3.8125
13:29:09.022,-2.5938,-5.4375
13:29:09.032,-3.375,-5.8125
13:29:09.042,-2.7813,-5.9375
13:29:09.052,-3.375,-6.6875
13:29:09.062,-2.9375,-7.6875
13:29:09.080,-2.4688,-6.9375
13:29:09.095,-3.6563,-6.75
13:29:09.097,-4.2188,-9.75
13:29:09.102,-4.1875,-10.9375
13:29:09.113,-5.375,-12.375
13:29:09.122,-5.9375,-13.7501
13:29:09.131,-7.0625,-15.0001
13:29:09.141,-8.4375,-18.0626
13:29:09.151,-10.375,-19.5626
13:29:09.161,-13.8126,-21.3751
13:29:09.172,-16.4376,-24.6876
13:29:09.182,-18.4376,-27.6251
13:29:09.192,-21.5938,-29.6251
13:29:09.202,-23.9688,-32.1876
13:29:09.211,-25.7813,-33.4376
13:29:09.224,-28.5939,-33.8126
13:29:09.232,-28.8126,-35.9376
13:29:09.242,-29.1876,-35.6251
13:29:09.252,-28.5001,-34.5001
13:29:09.262,-28.0626,-35.5626
13:29:09.272,-27.3751,-34.7501
13:29:09.282,-26.0626,-32.6251
13:29:09.292,-25.1876,-32.8751
13:29:09.302,-25.1876,-33.7501
13:29:09.320,-26.3126,-34.1876
13:29:09.326,-26.1251,-35.3126
13:29:09.341,-26.5314,-35.9376
13:29:09.343,-26.9376,-35.1251
13:29:09.352,-25.2813,-36.8751
13:29:09.384,-23.5001,-35.2501
13:29:09.387,-22.9688,-34.8126
13:29:09.389,-20.6251,-34.0626
13:29:09.394,-18.2501,-31.9376
13:29:09.426,-16.4063,-31.3751
13:29:09.428,-14.4376,-30.0001
13:29:09.429,-14.9063,-31.5626
13:29:09.464,-14.0938,-31.6876
13:29:09.465,-14.6563,-31.3751
13:29:09.467,-14.4688,-32.3751
13:29:09.473,-13.7188,-32.6876
13:29:09.477,-14.9063,-33.6251
13:29:09.482,-13.1563,-33.1876
13:29:09.516,-12.8438,-32.6251
13:29:09.518,-11.2813,-32.3126
13:29:09.524,-10.5313,-31.6876
13:29:09.525,-10.125,-31.3751
13:29:09.531,-9.7188,-30.6251
13:29:09.543,-8.9375,-31.5001
13:29:09.552,-7.875,-30.7501
13:29:09.562,-7.6875,-30.8751
13:29:09.572,-6.875,-30.8126
13:29:09.581,-6.875,-30.8126
13:29:09.594,-6.4375,-30.5001
13:29:09.603,-6.25,-29.6876
13:29:09.612,-6.3125,-31.8751
13:29:09.622,-6.6875,-31.1251
13:29:09.632,-7.0938,-33.8751
13:29:09.642,-7.25,-33.7501
13:29:09.652,-8.0625,-34.1876
13:29:09.662,-7.8125,-35.5626
13:29:09.672,-8.25,-35.2501
13:29:09.682,-7.2188,-34.6876
13:29:09.692,-7.0938,-34.7501
13:29:09.703,-5.6875,-34.4376
13:29:09.713,-4.75,-35.0001
13:29:09.722,-4.1875,-34.3126
13:29:09.732,-3.2813,-33.0001
13:29:09.743,-1.5625,-28.1251
13:29:09.752,1.0625,-22.7501
13:29:09.762,3.375,-15.8751
13:29:09.772,7.1563,-9.25
13:29:09.782,11.0313,-1.4375
13:29:09.793,15.2813,5.6875
13:29:09.802,18.9063,11.9375
13:29:09.812,21.1563,16.3751
13:29:09.823,21.3126,18.8126
13:29:09.832,22.7188,21.0001
13:29:09.842,22.1563,21.8751
13:29:09.852,21.6251,21.9376
13:29:09.862,21.7501,22.1251
13:29:09.872,20.6563,21.5626
13:29:09.884,20.3751,20.8751
13:29:09.892,20.2188,20.1876
13:29:09.902,19.5313,19.5626
13:29:09.936,19.6251,18.9376
13:29:09.937,18.5313,18.2501
13:29:09.941,19.5938,17.8126
13:29:09.945,19.2188,18.2501
13:29:09.954,21.2188,18.5626
13:29:09.970,20.8126,16.7501
13:29:09.972,18.5938,14.4376
13:29:09.986,18.1563,14.0626
13:29:09.994,17.4688,11.8125
13:29:10.002,16.8438,11.0625
13:29:10.012,16.5001,10.625
13:29:10.031,16.7188,10.25
13:29:10.035,16.1563,9.375
13:29:10.062,16.4063,10.625
13:29:10.068,17.1251,10.1875
13:29:10.069,17.9063,12.4375
13:29:10.074,19.8438,12.8125
13:29:10.106,18.9376,12.1875
13:29:10.108,18.5001,13.5001
13:29:10.110,18.5001,12.9375
13:29:10.140,18.1876,11.25
13:29:10.141,17.9063,11.625
13:29:10.143,17.5313,10.5625
13:29:10.150,17.0626,9.5
13:29:10.157,17.0938,9.75
13:29:10.185,17.5001,8.4375
13:29:10.187,16.8751,7.3125
13:29:10.189,16.8126,7
13:29:10.195,17.3126,6.9375
13:29:10.204,18.8751,6.1875
13:29:10.212,19.8438,7.5
13:29:10.223,21.8126,8.25
13:29:10.232,22.0626,7.6875
13:29:10.242,21.6251,6.375
13:29:10.253,20.5938,4.625
13:29:10.263,20.5313,5.375
13:29:10.272,20.4688,3.5
13:29:10.283,19.0001,1.1875
13:29:10.294,19.0313,2.125
13:29:10.302,19.6251,0.6875
13:29:10.315,18.9063,-0.4375
13:29:10.323,18.0938,-0.625
13:29:10.333,16.7813,-2.875
13:29:10.348,16.4376,-3.9375
13:29:10.353,15.4688,-6.4375
13:29:10.376,14.7188,-6.6875
13:29:10.380,13.8126,-7.625
13:29:10.398,13.9376,-7.8125
13:29:10.398,14.4063,-8.25
13:29:10.403,15.0001,-8.75
13:29:10.413,15.0938,-9.625
13:29:10.422,15.4376,-8.75
13:29:10.433,16.6876,-8.875
13:29:10.442,16.2501,-9.5
13:29:10.453,16.0938,-8.0625
13:29:10.463,17.3438,-9.5625
13:29:10.473,17.3751,-9.375
13:29:10.482,17.7813,-8.5
13:29:10.493,17.9688,-9.9375
13:29:10.504,17.2501,-9.25
13:29:10.514,16.1563,-11.625
13:29:10.523,15.4376,-12.5
13:29:10.533,15.3126,-13
13:29:10.542,14.7501,-13.7501
13:29:10.553,14.3126,-13
13:29:10.562,14.7813,-15.0626
13:29:10.574,14.7501,-13.3751
13:29:10.583,16.2188,-14.0001
13:29:10.593,16.4688,-12.8125
13:29:10.603,18.7188,-10.375
13:29:10.613,20.6563,-3.8125
13:29:10.628,23.9376,1
13:29:10.646,26.5314,9.25
13:29:10.650,30.3439,14.4376
13:29:10.654,32.5001,22.1251
13:29:10.665,36.0001,26.1876
13:29:10.673,37.8439,32.8751
13:29:10.683,41.1564,35.6251
13:29:10.693,42.3127,40.8127
13:29:10.703,44.5627,41.8127
13:29:10.713,45.1252,43.4377
13:29:10.724,46.6877,43.3127
13:29:10.754,47.3439,44.3752
13:29:10.757,48.6564,44.7502
13:29:10.759,49.5939,44.4377
13:29:10.763,49.1877,43.9377
13:29:10.798,48.2502,41.9377
13:29:10.800,47.7189,41.3752
13:29:10.802,46.9377,39.1251
13:29:10.804,45.9064,37.0001
13:29:10.835,44.3127,34.5001
13:29:10.839,42.4689,33.8126
13:29:10.841,41.2814,30.2501
13:29:10.845,39.8439,28.5001
13:29:10.855,38.4376,27.3751
13:29:10.882,38.0001,24.7501
13:29:10.885,36.8126,23.4376
13:29:10.887,36.6876,23.4376
13:29:10.894,35.9689,21.6876
13:29:10.915,34.5001,20.9376
13:29:10.919,34.0001,20.5001
13:29:10.924,34.4376,20.4376
13:29:10.934,34.8439,20.0626
13:29:10.943,34.4064,20.9376
13:29:10.953,34.3126,20.3751
13:29:10.963,33.3439,19.2501
13:29:10.973,32.0001,19.6251
13:29:10.983,31.3439,18.7501
13:29:10.993,31.1876,16.8126
13:29:11.003,29.3751,15.5626
13:29:11.013,28.2501,15.2501
13:29:11.024,27.2501,13
13:29:11.033,26.0626,10.375
13:29:11.043,24.0001,9.6875
13:29:11.053,23.0938,8.0625
13:29:11.063,21.9688,6
13:29:11.073,20.9688,3.4375
13:29:11.083,20.2501,2.8125
13:29:11.098,19.0313,1.25
13:29:11.103,18.3126,-1.0625
13:29:11.114,16.5313,-1.9375
13:29:11.123,15.5626,-4
13:29:11.133,14.6876,-6.8125
13:29:11.143,13.0938,-7.8125
13:29:11.153,12.1563,-8.25
13:29:11.163,11.5625,-9.8125
13:29:11.173,10.4688,-12.5625
13:29:11.183,9.6563,-13.3751
13:29:11.216,10.0625,-13.5001
13:29:11.219,8.8438,-15.1876
13:29:11.224,8.25,-15.7501
13:29:11.226,7.375,-16.6251
13:29:11.234,6.2813,-19.3126
13:29:11.245,4.75,-20.3126
13:29:11.253,3.9063,-21.2501
13:29:11.263,3.9063,-21.6251
13:29:11.273,3.7813,-23.1251
13:29:11.283,3.2188,-23.9376
13:29:11.294,1.625,-23.4376
13:29:11.303,2,-25.0001
13:29:11.313,1.5625,-26.3126
13:29:11.324,1.5938,-26.0001
13:29:11.333,2.0938,-26.5001
13:29:11.343,1.0313,-26.7501
13:29:11.353,1.2188,-26.6876
13:29:11.363,1.625,-28.2501
13:29:11.373,0.9063,-29.1876
13:29:11.384,0.7813,-28.1251
13:29:11.393,0.1563,-30.5626
13:29:11.403,0.2813,-29.0626
13:29:11.413,1.4688,-28.7501
13:29:11.423,3.6875,-23.5626
13:29:11.434,7.0313,-18.5001
13:29:11.443,10.0625,-11.375
13:29:11.455,13.3438,-3.8125
13:29:11.463,17.1251,1.25
13:29:11.474,18.5626,6.5
13:29:11.485,20.6251,11.875
13:29:11.493,22.3438,14.7501
13:29:11.503,22.5626,16.9376
13:29:11.513,22.3751,19.0001
13:29:11.523,22.9376,19.0001
13:29:11.555,22.1251,18.0001
13:29:11.560,20.8751,17.0626
13:29:11.560,20.2813,15.8751
13:29:11.564,18.7813,14.0001
13:29:11.594,17.0626,13.2501
13:29:11.597,16.1876,11.1875
13:29:11.598,14.8126,8.625
13:29:11.603,14.1251,7.5
13:29:11.635,13.2813,6
13:29:11.638,13.2188,3.9375
13:29:11.643,11.625,1.6875
13:29:11.645,10.4688,-1.25
13:29:11.711,9.4375,-2.8125
13:29:11.713,8.25,-3.125
13:29:11.713,8.0938,-4.75
13:29:11.714,7.625,-5.8125
13:29:11.721,6.5625,-7.1875
13:29:11.722,6.7188,-5.8125
13:29:11.722,7.0313,-5.8125
13:29:11.729,7.5313,-5.625
13:29:11.738,7.2188,-5.5
13:29:11.750,7.2188,-5.625
13:29:11.760,7.2188,-5.25
13:29:11.770,7.8438,-3.625
13:29:11.778,8.7813,-3.625
13:29:11.788,8.6875,-3.5
13:29:11.799,7.9375,-3.9375
13:29:11.808,7.4688,-3.0625
13:29:11.818,7.2188,-5.3125
13:29:11.828,6.9688,-5
13:29:11.839,5.9688,-4.875
13:29:11.853,4.8125,-7.5625
13:29:11.859,3.5625,-9
13:29:11.869,2.7188,-10.6875
13:29:11.878,1.625,-12.5625
13:29:11.888,0.9063,-13.5001
13:29:11.899,-0.5625,-14.5626
13:29:11.908,-0.8125,-16.3751
13:29:11.925,-0.9375,-17.3751
13:29:11.942,-1.3125,-17.9376
13:29:11.943,-1.625,-18.8751
13:29:11.948,-2.2813,-20.4376
13:29:11.958,-3.5,-20.2501
13:29:11.968,-3.375,-21.8126
13:29:11.978,-3.9375,-23.1251
13:29:11.989,-4.8125,-24.6876
13:29:11.998,-4.875,-24.3126
13:29:12.008,-5.3438,-25.5001
13:29:12.019,-6.1563,-26.0001
13:29:12.028,-6.375,-28.3751
13:29:12.038,-8.4063,-29.1876
13:29:12.049,-8.6563,-29.8751
13:29:12.058,-8.9063,-31.1876
13:29:12.068,-9.75,-31.3126
13:29:12.079,-8.6563,-31.1251
13:29:12.088,-9.5,-32.3126
13:29:12.099,-9.5938,-31.0626
13:29:12.108,-9.1563,-32.5001
13:29:12.118,-9.0313,-32.0626
13:29:12.129,-8.7813,-31.8126
13:29:12.138,-8.5,-32.9376
13:29:12.148,-7.625,-30.8126
13:29:12.158,-6.4375,-28.7501
13:29:12.168,-4.2188,-23.2501
13:29:12.178,0.125,-16.8751
13:29:12.206,3.4063,-9.75
13:29:12.209,7.0313,-2.1875
13:29:12.213,10.5,4
13:29:12.218,13.4688,11.25
13:29:12.258,16.1251,15.2501
13:29:12.260,17.0313,19.1876
13:29:12.263,17.7501,22.8751
13:29:12.268,18.3438,23.7501
13:29:12.271,18.1251,25.0626
13:29:12.285,17.7813,24.6251
13:29:12.289,18.4688,25.1251
13:29:12.322,17.6251,24.1876
13:29:12.322,16.9688,23.9376
13:29:12.326,16.3126,22.8126
13:29:12.332,15.7188,20.8751
13:29:12.359,14.9063,20.0626
13:29:12.361,13.9063,17.8751
13:29:12.363,12.4063,15.5001
13:29:12.379,11.4375,14.7501
13:29:12.380,11.1875,12.6875
13:29:12.388,9.875,10.0625
13:29:12.398,9,9.6875
13:29:12.409,8.8125,8.1875
13:29:12.418,8.0625,6.625
13:29:12.429,9.0625,6.4375
13:29:12.438,8.4375,6.5
13:29:12.448,9.5625,7.25
13:29:12.458,10.2188,7.625
13:29:12.469,10.7813,8
13:29:12.496,10.5313,8.75
13:29:12.498,10.6563,9.0625
13:29:12.499,10.875,10.3125
13:29:12.509,10.8125,10.75
13:29:12.518,11.9375,10.625
13:29:12.529,11.8125,10.5
13:29:12.539,11.7813,11.625
13:29:12.548,12.4688,11.5
13:29:12.559,12,10.375
13:29:12.568,11.9688,10.5
13:29:12.578,12.0313,9.1875
13:29:12.588,10.5,7.75
13:29:12.598,9.5,5.5625
13:29:12.608,8.8438,5.8125
13:29:12.619,8.6563,3.6875
13:29:12.628,7.1875,2.25
13:29:12.638,5.8125,1.875
13:29:12.648,5.8438,-0.0625
13:29:12.659,5.4688,-2.0625
13:29:12.668,4,-2.5625
13:29:12.683,3.75,-3.9375
13:29:12.693,3.3125,-5.4375
13:29:12.704,2.4063,-6.875
13:29:12.714,1.7813,-7.875
13:29:12.723,0.75,-9.25
13:29:12.735,0.5,-11
13:29:12.743,-1.0625,-11.875
13:29:12.758,-1.5625,-13.1251
13:29:12.763,-1.9063,-14.9376
13:29:12.773,-3,-15.7501
13:29:12.783,-3.5625,-16.5626
13:29:12.793,-4.125,-16.3751
13:29:12.803,-3.5313,-17.0001
13:29:12.813,-3.5,-18.1876
13:29:12.824,-3.6875,-19.5001
13:29:12.833,-4.0938,-19.3751
13:29:12.843,-4.0313,-19.3751
13:29:12.853,-3.5625,-19.5626
13:29:12.863,-1.4063,-16.5626
13:29:12.873,1.6563,-10.0625
13:29:12.883,5.5313,-3.5
13:29:12.894,9.375,4.4375
13:29:12.903,12.5938,12.375
13:29:12.914,16.1876,20.0626
13:29:12.923,19.1876,26.6876
13:29:12.933,21.0001,32.1251
13:29:12.943,23.3126,36.9376
13:29:12.953,24.9063,40.8127
13:29:12.969,25.6876,43.8752
13:29:12.993,25.3438,44.8752
13:29:12.996,25.7813,46.2502
13:29:12.998,24.5626,45.0627
13:29:13.004,23.8438,44.6252
13:29:13.034,23.3126,44.1877
13:29:13.037,22.2813,43.2502
13:29:13.039,21.2501,42.3127
13:29:13.073,21.5626,41.1877
13:29:13.076,20.0001,39.7502
13:29:13.078,19.6251,39.0626
13:29:13.083,19.0938,37.7501
13:29:13.083,18.1251,35.3751
13:29:13.111,16.6876,33.2501
13:29:13.113,16.6251,31.7501
13:29:13.115,16.0626,29.8126
13:29:13.125,15.4688,28.9376
13:29:13.154,14.7501,28.8126
13:29:13.156,15.1563,28.5001
13:29:13.160,15.2813,27.6876
13:29:13.164,15.3751,27.3751
13:29:13.180,15.3126,28.0001
13:29:13.185,16.0001,28.6876
13:29:13.194,16.1563,29.2501
13:29:13.204,15.5626,28.9376
13:29:13.221,16.3751,30.3751
13:29:13.223,16.3126,31.9376
13:29:13.238,16.3438,31.9376
13:29:13.245,17.6251,30.5626
13:29:13.254,16.5313,30.0626
13:29:13.263,15.7188,29.6876
13:29:13.274,14.8126,28.8751
13:29:13.285,14.9688,27.1876
13:29:13.294,13.6563,26.0001
13:29:13.303,12.75,24.3751
13:29:13.313,12.375,23.6251
13:29:13.325,11.5,21.4376
13:29:13.333,10.6563,20.5001
13:29:13.345,9.7813,17.8126
13:29:13.354,7.75,15.7501
13:29:13.364,6.25,14.6876
13:29:13.373,6.125,11.8125
13:29:13.383,5.375,10.5
13:29:13.393,4.0938,8.875
13:29:13.404,3.4688,9.0625
13:29:13.415,3.7188,6.875
13:29:13.423,2.7188,5.125
13:29:13.434,2.0938,4.5
13:29:13.444,1.2813,1.75
13:29:13.454,0,1.75
13:29:13.463,0.5,0.1875
13:29:13.474,-0.2813,-1.875
13:29:13.483,-1.4063,-1.5625
13:29:13.495,-1.5625,-3.875
13:29:13.504,-2.9375,-4.5
13:29:13.513,-2.8438,-5.5625
13:29:13.525,-3.2813,-6.9375
13:29:13.533,-3.3438,-7.625
13:29:13.544,-3.25,-7.8125
13:29:13.555,-3.625,-9.0625
13:29:13.564,-4.5,-9.875
13:29:13.573,-4.4688,-9.9375
13:29:13.584,-2.875,-9.375
13:29:13.595,-0.8125,-6.125
13:29:13.604,2.5,0.5625
13:29:13.614,5.9375,7.375
13:29:13.624,10.6875,15.7501
13:29:13.634,15.0938,25.0001
13:29:13.645,18.4063,33.2501
13:29:13.655,21.5313,41.5002
13:29:13.665,24.2813,47.7502
13:29:13.675,25.8751,53.4377
13:29:13.685,27.1564,57.8127
13:29:13.695,27.8439,60.3127
13:29:13.704,27.8439,62.6252
13:29:13.746,28.4064,62.4377
13:29:13.747,27.7189,63.4377
13:29:13.751,27.5001,62.5627
13:29:13.775,26.4376,62.1252
13:29:13.777,24.8751,60.1877
13:29:13.808,24.0626,60.1252
13:29:13.808,23.6563,59.1877
13:29:13.809,23.2813,57.6252
13:29:13.809,21.8751,56.3127
13:29:13.815,20.5001,54.4377
13:29:13.849,19.9688,52.1252
13:29:13.850,18.9688,50.0002
13:29:13.852,17.8126,47.8127
13:29:13.858,16.0313,47.5002
13:29:13.859,15.7813,45.1877
13:29:13.864,14.8126,43.3127
13:29:13.894,14.4376,43.3752
13:29:13.897,15.0001,43.5002
13:29:13.900,14.9688,43.4377
13:29:13.905,14.8126,42.8127
13:29:13.914,15.6876,44.0627
13:29:13.929,15.7501,43.9377
13:29:13.935,15.4688,45.9377
13:29:13.944,16.7501,45.4377
13:29:13.954,16.2813,45.0002
13:29:13.964,16.4063,44.3752
13:29:13.975,15.1563,44.7502
13:29:13.985,15.5626,43.6877
13:29:13.994,14.6876,42.5002
13:29:14.004,13.4063,41.3752
13:29:14.014,12.7813,40.2502
13:29:14.023,12.375,39.1876
13:29:14.033,11.9063,37.2501
13:29:14.044,11.7813,35.3126
13:29:14.055,10.6875,34.1876
13:29:14.089,10.5625,32.2501
13:29:14.092,8.6563,30.5626
13:29:14.094,7.9375,28.6251
13:29:14.105,7.25,26.0626
13:29:14.114,5.9375,24.6251
13:29:14.124,5.75,23.2501
13:29:14.135,4.6875,20.6876
13:29:14.144,3.75,19.4376
13:29:14.154,3,17.8126
13:29:14.165,2.5,15.9376
13:29:14.175,1.9375,13.2501
13:29:14.187,1.3125,13.2501
13:29:14.195,1.1563,12.375
13:29:14.205,1.3438,10.375
13:29:14.214,0.4375,8.5
13:29:14.225,0.4688,9
13:29:14.234,-0.6563,6.375
13:29:14.245,-1.4688,5.3125
13:29:14.264,-2.25,4.375
13:29:14.268,-2.0938,1.875
13:29:14.282,-3.2813,1.5
13:29:14.297,-3.4375,0.3125
13:29:14.299,-4.2188,-1.9375
13:29:14.304,-4.25,-3.3125
13:29:14.319,-4.5,-3.9375
13:29:14.324,-4.9063,-5.1875
13:29:14.334,-5.9375,-7.125
13:29:14.345,-5.8125,-6.875
13:29:14.354,-6.2813,-8.375
13:29:14.364,-5.4688,-7.0625
13:29:14.374,-3.5,-2.1875
13:29:14.387,0.5313,3.625
13:29:14.399,4.0625,10.6875
13:29:14.409,8.25,20.5626
13:29:14.426,12.2188,28.0001
13:29:14.429,15.7813,37.4376
13:29:14.465,19.8438,46.1252
13:29:14.466,22.6251,52.0002
13:29:14.469,24.1251,58.0002
13:29:14.472,26.0626,61.7502
13:29:14.510,26.2188,63.3752
13:29:14.555,26.6251,65.7503
13:29:14.591,25.6876,64.7502
13:29:14.592,25.5001,65.5002
13:29:14.592,25.0001,63.7502
13:29:14.592,24.4688,62.7502
13:29:14.593,23.4376,61.5002
13:29:14.598,22.5938,62.1252
13:29:14.602,21.4376,59.1252
13:29:14.604,20.2188,57.0002
13:29:14.604,18.7501,56.1877
13:29:14.614,18.0001,53.3752
13:29:14.625,17.1251,50.2502
13:29:14.635,16.4688,48.4377
13:29:14.644,14.9376,47.6252
13:29:14.654,15.0313,46.1877
13:29:14.664,14.5001,43.8752
13:29:14.674,13.8126,42.6252
13:29:14.684,13.5938,42.4377
13:29:14.695,13.1876,42.6877
13:29:14.704,13,42.6252
13:29:14.714,12.875,41.7502
13:29:14.724,13.7813,45.3127
13:29:14.734,13.7813,44.8752
13:29:14.744,13.5001,44.3127
13:29:14.754,13.4376,43.8752
13:29:14.766,12.1563,42.5627
13:29:14.774,11.875,42.2502
13:29:14.784,11.6563,41.1252
13:29:14.795,10.6563,38.4376
13:29:14.806,9.9375,38.5001
13:29:14.816,9.1563,35.6251
13:29:14.824,8.375,33.1876
13:29:14.835,7.5313,31.5626
13:29:14.844,6.5313,29.4376
13:29:14.854,5.375,28.5626
13:29:14.865,4.3125,25.6876
13:29:14.874,3.875,23.6876
13:29:14.884,3,21.4376
13:29:14.894,1.3438,18.4376
13:29:14.904,0.8125,17.8751
13:29:14.914,0,16.1251
13:29:14.924,-0.5625,13.6876
13:29:14.934,-0.625,11.5625
13:29:14.944,-1.8438,9.5625
13:29:14.954,-2.1563,8.5625
13:29:14.965,-2.2188,7.6875
13:29:14.974,-3.2188,5.1875
13:29:14.984,-3.6875,4.125
13:29:14.994,-4.9375,3.5625
13:29:15.005,-4.5625,1.625
13:29:15.015,-5.5625,-0.1875
13:29:15.024,-6.1563,-2.0625
13:29:15.055,-6.25,-1.9375
13:29:15.057,-5.6563,-3.0625
13:29:15.059,-6.2188,-4.0625
13:29:15.066,-6.9063,-5.375
13:29:15.078,-7.3438,-5.8125
13:29:15.084,-6.9063,-7.25
13:29:15.094,-7.5,-8.625
13:29:15.104,-7.7813,-9
13:29:15.115,-7.625,-10.5
13:29:15.124,-7.6875,-11.375
13:29:15.134,-7.6875,-11.625
13:29:15.148,-7.3125,-13
13:29:15.177,-7.9375,-14.3126
13:29:15.178,-8.3438,-15.1876
13:29:15.180,-7.5,-13.125
13:29:15.196,-4.4063,-8.75
13:29:15.198,-1.6875,-1.875
13:29:15.224,2.7813,6.875
13:29:15.227,7.9063,15.1876
13:29:15.229,11.375,23.9376
13:29:15.236,15.4063,31.9376
13:29:15.266,18.1876,40.2502
13:29:15.269,20.6251,47.2502
13:29:15.270,23.2813,51.3127
13:29:15.311,24.0313,54.6877
13:29:15.311,24.0938,57.8127
13:29:15.312,24.8438,57.0002
13:29:15.318,23.6876,56.4377
13:29:15.320,23.3126,56.6252
13:29:15.327,22.6876,55.0627
13:29:15.337,21.0626,53.5002
13:29:15.346,20.5313,52.1877
13:29:15.355,19.5626,50.5627
13:29:15.364,19.2188,48.6252
13:29:15.374,18.2501,46.1877
13:29:15.385,16.8751,43.8127
13:29:15.396,16.4063,41.5002
13:29:15.406,15.4376,39.5002
13:29:15.415,14.4063,37.6876
13:29:15.424,13.8126,35.1251
13:29:15.434,12.7813,32.8751
13:29:15.444,12.2188,32.5001
13:29:15.455,12.25,32.3751
13:29:15.464,12.5938,32.3126
13:29:15.474,14.0938,32.6876
13:29:15.484,13.1563,32.7501
13:29:15.494,13.9688,33.6876
13:29:15.504,14.5938,34.1251
13:29:15.514,15.0001,34.4376
13:29:15.524,15.2501,34.0001
13:29:15.534,15.0313,35.5001
13:29:15.545,16.0001,36.0001
13:29:15.557,15.3126,34.5626
13:29:15.573,14.1251,33.3751
13:29:15.576,13.2813,32.8126
13:29:15.590,12.2813,30.1876
13:29:15.606,10.75,30.1251
13:29:15.608,9.7188,28.4376
13:29:15.620,9.625,25.9376
13:29:15.624,9.1875,23.8126
13:29:15.635,8.4688,23.6876
13:29:15.646,8.375,21.7501
13:29:15.654,7.5625,19.8126
13:29:15.665,6.375,17.0626
13:29:15.675,5,15.3751
13:29:15.684,4.2188,13.3126
13:29:15.694,3.5938,10.75
13:29:15.704,2.6875,8.75
13:29:15.714,2.5938,8.0625
13:29:15.725,1.125,5.375
13:29:15.734,0.625,3.125
13:29:15.745,-0.2813,3.6875
13:29:15.754,-0.3438,1.1875
13:29:15.765,-0.5313,-1
13:29:15.774,-0.2813,-2.625
13:29:15.784,-2.25,-1.9375
13:29:15.795,-3.0625,-4.5
13:29:15.804,-3.1563,-5.8125
13:29:15.814,-3.6875,-6.3125
13:29:15.824,-4.2813,-6.6875
13:29:15.840,-4.0938,-9.0625
13:29:15.856,-4.6563,-8.4375
13:29:15.857,-6,-9.875
13:29:15.867,-6.5,-12.0625
13:29:15.875,-7.875,-13.3751
13:29:15.912,-8.3438,-13.6876
13:29:15.915,-7.8438,-15.4376
13:29:15.917,-9.1563,-15.8126
13:29:15.918,-9.3438,-16.8751
13:29:15.925,-9.3125,-18.3751
13:29:15.962,-10.625,-18.6876
13:29:15.963,-10.2188,-19.8751
13:29:15.966,-9.8125,-18.5001
13:29:15.968,-7.9063,-14.2501
13:29:15.974,-4.625,-8.875
13:29:16.009,-1.25,-0.125
13:29:16.011,3.5313,8.3125
13:29:16.015,7.8125,16.5626
13:29:16.017,12.0938,26.3751
13:29:16.048,15.1876,33.1251
13:29:16.051,17.4376,40.8127
13:29:16.054,20.1563,46.8752
13:29:16.066,21.2501,52.1877
13:29:16.067,22.4376,53.8752
13:29:16.076,22.9688,55.2502
13:29:16.084,21.6876,56.0627
13:29:16.095,22.1563,55.4377
13:29:16.105,20.4063,56.3127
13:29:16.115,20.3751,54.1877
13:29:16.126,19.1563,52.3127
13:29:16.136,17.3751,51.0002
13:29:16.145,16.1563,48.6252
13:29:16.154,14.6563,46.9377
13:29:16.165,13.8126,45.1877
13:29:16.175,12.25,42.6252
13:29:16.186,11.25,39.4377
13:29:16.194,10.6875,38.1876
13:29:16.206,9.875,35.8751
13:29:16.214,9.2188,33.5626
13:29:16.225,8.3438,32.3126
13:29:16.235,8.4688,32.3126
13:29:16.245,8.0625,30.7501
13:29:16.254,7.7188,30.6251
13:29:16.265,7.6875,32.2501
13:29:16.276,8.4688,31.1876
13:29:16.286,8.5938,31.8751
13:29:16.294,8.625,33.2501
13:29:16.306,9.0938,33.1876
13:29:16.336,8.4063,32.6876
13:29:16.338,7.875,34.1251
13:29:16.341,8.4688,32.5626
13:29:16.345,7.1875,31.9376
13:29:16.355,6.7188,30.9376
13:29:16.366,6.1875,30.3126
13:29:16.374,5.9375,28.1251
13:29:16.385,3.875,25.8751
13:29:16.395,2.7188,25.1251
13:29:16.406,2.625,22.6876
13:29:16.416,0.8438,21.5626
13:29:16.426,-0.375,19.0626
13:29:16.435,-1.9375,16.2501
13:29:16.445,-3.1563,13.8126
13:29:16.454,-4.6563,11.3125
13:29:16.467,-5.5625,10.25
13:29:16.474,-6.4375,7.625
13:29:16.489,-7.0313,5.5
13:29:16.498,-8,3.6875
13:29:16.506,-8.5,2.9375
13:29:16.515,-8.2188,1.375
13:29:16.526,-9.5625,-1.1875
13:29:16.535,-10.6875,-3.25
13:29:16.546,-11.8125,-4.1875
13:29:16.554,-12.3438,-6.8125
13:29:16.566,-13.3751,-7.6875
13:29:16.577,-13.3438,-8.875
13:29:16.617,-14.4688,-11.0625
13:29:16.618,-14.7501,-11.875
13:29:16.621,-14.3438,-12.6875
13:29:16.623,-15.4376,-13
13:29:16.625,-16.1251,-14.9376
13:29:16.658,-16.5626,-16.9376
13:29:16.661,-17.2188,-17.0001
13:29:16.665,-17.4688,-18.8126
13:29:16.693,-18.1251,-20.0626
13:29:16.694,-17.8126,-19.7501
13:29:16.699,-17.9688,-21.5001
13:29:16.702,-18.5001,-21.3126
13:29:16.706,-17.9063,-21.1251
13:29:16.738,-16.5626,-21.6251
13:29:16.739,-15.0938,-16.4376
13:29:16.742,-12.8125,-11.25
13:29:16.771,-10.5938,-4.625
13:29:16.775,-7.5313,4.4375
13:29:16.776,-5.2813,11.9375
13:29:16.781,-3.7813,20.8126
13:29:16.790,-3.5,25.8751
13:29:16.800,-4.5938,30.4376
13:29:16.809,-8.0938,32.3126
13:29:16.821,-13.2188,32.6251
13:29:16.831,-18.6876,30.5001
13:29:16.844,-25.4063,27.6876
13:29:16.851,-30.2814,23.6251
13:29:16.860,-35.0939,20.1251
13:29:16.871,-40.1877,17.1251
13:29:16.883,-45.5939,11.6875
13:29:16.901,-54.594,5.125
13:29:16.903,-62.5315,-1.1875
13:29:16.917,-72.1253,-10.4375
13:29:16.933,-82.4691,-19.3126
13:29:16.935,-97.9066,-32.7501
13:29:16.943,-110.8754,-44.8752
13:29:16.950,-125.563,-58.5002
13:29:16.961,-139.8443,-71.0003
13:29:16.970,-155.8756,-86.1253
13:29:16.981,-169.8444,-98.7504
13:29:16.991,-189.907,-115.2504
13:29:17.000,-217.4071,-140.7505
13:29:17.010,-252.126,-168.3131
13:29:17.020,-272.001,-189.1882
13:29:17.031,-304.3762,-216.1883
13:29:17.041,-322.72,-231.6259
13:29:17.051,-326.97,-235.6259
13:29:17.061,-328.9075,-235.0634
13:29:17.070,-327.4388,-233.3134
13:29:17.081,-325.2825,-230.1259
13:29:17.091,-320.3762,-222.7509
13:29:17.101,-318.0012,-221.1883
13:29:17.110,-316.4075,-218.5633
13:29:17.120,-313.4074,-216.5008
13:29:17.141,-312.0324,-213.5008
13:29:17.149,-311.3762,-212.8133
13:29:17.163,-309.3762,-210.9383
13:29:17.165,-308.7512,-208.8758
13:29:17.180,-306.3762,-209.5633
13:29:17.195,-302.5012,-207.1883
13:29:17.199,-299.4387,-205.0633
13:29:17.200,-294.5949,-202.6258
13:29:17.211,-289.6261,-198.5633
13:29:17.220,-284.8448,-197.0632
13:29:17.230,-279.9073,-194.0632
13:29:17.241,-275.8448,-190.2507
13:29:17.250,-270.251,-189.3132
13:29:17.260,-266.0635,-185.2507
13:29:17.270,-261.0322,-182.6257
13:29:17.281,-256.2197,-180.9382
13:29:17.290,-253.4385,-179.1882
13:29:17.301,-251.0322,-179.0632
13:29:17.334,-247.9384,-177.1257
13:29:17.337,-245.5009,-176.1257
13:29:17.338,-242.5634,-174.2507
13:29:17.341,-239.0634,-173.6257
13:29:17.376,-235.5634,-171.0007
13:29:17.378,-233.5634,-170.7507
13:29:17.379,-232.6259,-170.6257
13:29:17.382,-230.9384,-168.5006
13:29:17.413,-227.1884,-168.8131
13:29:17.416,-224.6259,-166.6881
13:29:17.418,-222.5009,-165.6881
13:29:17.424,-218.3758,-164.3131
13:29:17.432,-216.7508,-162.6881
13:29:17.462,-213.8758,-162.1256
13:29:17.464,-212.1883,-161.0631
13:29:17.467,-210.7508,-161.8131
13:29:17.470,-209.3133,-160.9381
13:29:17.499,-207.6883,-160.3756
13:29:17.502,-206.2508,-161.5631
13:29:17.507,-205.2508,-159.6256
13:29:17.512,-203.0008,-159.8756
13:29:17.521,-199.6258,-155.6256
13:29:17.533,-195.6882,-148.7506
13:29:17.540,-190.0632,-140.3755
13:29:17.551,-183.6257,-127.938
13:29:17.561,-176.4382,-115.9379
13:29:17.570,-169.7506,-101.4379
13:29:17.580,-161.5631,-86.5628
13:29:17.592,-151.7506,-72.2503
13:29:17.618,-141.813,-55.8752
13:29:17.621,-134.438,-43.2502
13:29:17.623,-128.438,-32.6251
13:29:17.631,-124.813,-25.0626
13:29:17.640,-121.188,-19.5001
13:29:17.651,-120.063,-15.6876
13:29:17.663,-117.8755,-12.9375
13:29:17.671,-113.8754,-7.5625
13:29:17.682,-110.9379,-3.875
13:29:17.690,-108.6879,-3.5
13:29:17.701,-107.0629,-0.1875
13:29:17.710,-107.2504,-1.5625
13:29:17.721,-107.0004,-1.9375
13:29:17.732,-108.0004,-2.375
13:29:17.740,-107.3754,-5.5
13:29:17.751,-106.9379,-4.8125
13:29:17.761,-107.6879,-6.5625
13:29:17.770,-107.7504,-8.5625
13:29:17.781,-108.1254,-11.0625
13:29:17.791,-108.0629,-12.25
13:29:17.801,-109.1254,-12.875
13:29:17.810,-109.5004,-14.8751
13:29:17.820,-109.0004,-15.3126
13:29:17.830,-108.5004,-14.1251
13:29:17.842,-107.4379,-14.1876
13:29:17.851,-106.3129,-13.3751
13:29:17.861,-104.6879,-12.75
13:29:17.875,-103.0629,-10.6875
13:29:17.881,-101.7504,-9.5625
13:29:17.891,-99.6879,-9.125
13:29:17.900,-98.4379,-8.625
13:29:17.910,-97.5629,-8.6875
13:29:17.920,-95.3754,-7.875
13:29:17.930,-94.0004,-7.8125
13:29:17.941,-93.0629,-8.9375
13:29:17.951,-91.3129,-9.3125
13:29:17.961,-89.5628,-9.8125
13:29:17.971,-87.7503,-9.5625
13:29:17.981,-86.9378,-9.0625
13:29:17.990,-85.3128,-10.8125
13:29:18.001,-84.6878,-11.875
13:29:18.010,-84.5003,-14.0001
13:29:18.020,-84.5003,-16.9376
13:29:18.030,-84.5003,-19.0001
13:29:18.043,-85.2503,-21.0626
13:29:18.051,-84.5003,-23.6876
13:29:18.060,-85.2503,-24.5001
13:29:18.099,-85.3753,-28.1876
13:29:18.099,-85.5628,-31.3126
13:29:18.102,-87.6253,-33.5001
13:29:18.106,-88.5003,-38.2501
13:29:18.110,-88.4378,-39.3752
13:29:18.143,-88.5628,-41.0002
13:29:18.146,-88.0628,-44.0002
13:29:18.148,-89.0628,-45.4377
13:29:18.154,-89.0628,-48.6877
13:29:18.164,-88.7503,-50.0627
13:29:18.189,-89.4378,-51.1252
13:29:18.192,-90.0003,-53.7502
13:29:18.195,-90.2503,-55.8127
13:29:18.201,-90.3128,-57.5002
13:29:18.232,-90.5003,-58.7502
13:29:18.233,-89.3128,-60.1252
13:29:18.255,-88.9378,-61.0627
13:29:18.258,-91.0629,-61.8752
13:29:18.264,-92.0629,-65.7502
13:29:18.264,-93.9379,-68.0628
13:29:18.270,-95.8129,-71.2503
13:29:18.280,-97.2504,-75.0003
13:29:18.290,-99.6254,-77.3128
13:29:18.300,-101.4379,-81.9378
13:29:18.313,-102.6879,-83.8753
13:29:18.321,-103.8754,-84.8753
13:29:18.331,-103.0629,-87.9378
13:29:18.340,-101.0629,-87.2503
13:29:18.350,-97.5629,-83.3128
13:29:18.360,-91.0629,-75.8753
13:29:18.372,-82.4378,-63.9377
13:29:18.380,-74.0628,-51.7502
13:29:18.391,-67.6878,-36.3751
13:29:18.400,-59.8127,-23.3751
13:29:18.410,-51.0627,-7.375
13:29:18.422,-42.4377,7.125
13:29:18.430,-38.4376,17.1876
13:29:18.441,-35.3751,24.6876
13:29:18.451,-34.6876,29.8126
13:29:18.472,-35.2501,32.5626
13:29:18.474,-36.4376,34.3751
13:29:18.483,-36.3126,34.3126
13:29:18.491,-34.8126,37.0626
13:29:18.506,-36.1251,37.6251
13:29:18.513,-36.5626,35.6876
13:29:18.520,-38.7501,33.6251
13:29:18.530,-41.3127,32.6876
13:29:18.540,-42.5627,29.9376
13:29:18.551,-43.1252,27.6251
13:29:18.561,-44.0002,26.1876
13:29:18.571,-46.2502,22.1251
13:29:18.580,-47.8752,18.8126
13:29:18.590,-49.0627,15.8126
13:29:18.602,-50.0002,12.5
13:29:18.611,-50.5627,9.6875
13:29:18.620,-51.3752,8.1875
13:29:18.631,-50.5002,7.4375
13:29:18.640,-49.1877,7
13:29:18.650,-49.0627,6.3125
13:29:18.660,-47.3127,7.4375
13:29:18.671,-46.8752,8.1875
13:29:18.680,-44.3752,9.4375
13:29:18.690,-43.7502,10.4375
13:29:18.700,-42.4377,10.375
13:29:18.710,-40.8127,12.5
13:29:18.721,-40.3127,13.6876
13:29:18.731,-38.7501,12.5
13:29:18.741,-39.7502,12.75
13:29:18.751,-40.0627,9.8125
13:29:18.761,-41.2502,9.1875
13:29:18.772,-42.0002,6
13:29:18.781,-43.5002,4.875
13:29:18.791,-44.3752,0.9375
13:29:18.801,-46.5002,-1.0625
13:29:18.813,-47.3752,-5.1875
13:29:18.822,-49.2502,-8.25
13:29:18.831,-50.8752,-11.3125
13:29:18.846,-50.5002,-14.1251
13:29:18.888,-52.2502,-16.9376
13:29:18.888,-51.8127,-19.3751
13:29:18.890,-52.1877,-20.1876
13:29:18.903,-53.0002,-23.7501
13:29:18.908,-53.8127,-25.6251
13:29:18.910,-55.0002,-29.0001
13:29:18.913,-54.9377,-30.1876
13:29:18.942,-56.0627,-33.6251
13:29:18.944,-56.3752,-34.8126
13:29:18.947,-58.0002,-37.3751
13:29:18.954,-59.5627,-41.0627
13:29:18.979,-62.0627,-43.3752
13:29:18.982,-64.1252,-48.3127
13:29:18.984,-67.0003,-50.2502
13:29:18.991,-68.8128,-53.8127
13:29:19.024,-68.5003,-56.3127
13:29:19.027,-69.6878,-57.7502
13:29:19.028,-70.1878,-60.1877
13:29:19.035,-70.2503,-61.5002
13:29:19.041,-69.7503,-62.2502
13:29:19.050,-69.8128,-63.0002
13:29:19.062,-67.8128,-63.1252
13:29:19.072,-67.0628,-62.7502
13:29:19.081,-66.6253,-63.6877
13:29:19.092,-65.0002,-64.6877
13:29:19.101,-64.5627,-62.6252
13:29:19.110,-62.9377,-63.9377
13:29:19.121,-61.6252,-63.7502
13:29:19.130,-58.5002,-61.5627
13:29:19.140,-57.1252,-59.6877
13:29:19.150,-57.2502,-61.5002
13:29:19.161,-56.6877,-62.1252
13:29:19.170,-58.3127,-62.9377
13:29:19.180,-56.3752,-61.3127
13:29:19.192,-55.3127,-57.3752
13:29:19.202,-49.1877,-49.0002
13:29:19.212,-41.3752,-36.8751
13:29:19.221,-36.9376,-24.4376
13:29:19.232,-32.7501,-15.5626
13:29:19.241,-29.0626,-5.8125
13:29:19.252,-28.7501,1.9375
13:29:19.261,-27.8751,8.5625
13:29:19.272,-26.7501,15.1251
13:29:19.282,-27.3126,18.6876
13:29:19.291,-26.5626,22.3751
13:29:19.303,-27.5626,23.6876
13:29:19.313,-26.6251,25.4376
13:29:19.322,-26.8126,27.0001
13:29:19.332,-25.4376,27.6251
13:29:19.342,-25.7501,27.1876
13:29:19.353,-25.5001,26.4376
13:29:19.362,-25.1876,26.2501
13:29:19.370,-23.8126,25.8751
13:29:19.382,-23.6876,25.0626
13:29:19.399,-23.8751,23.2501
13:29:19.402,-23.8751,21.0001
13:29:19.412,-24.9376,19.3126
13:29:19.422,-25.5001,15.5001
13:29:19.432,-26.6251,12.8125
13:29:19.440,-27.3751,12.0625
13:29:19.451,-26.6876,9.5625
13:29:19.462,-28.0001,8.75
13:29:19.472,-28.1876,6.75
13:29:19.482,-28.4376,7.0625
13:29:19.492,-28.0001,6.4375
13:29:19.501,-28.5626,6.875
13:29:19.512,-28.8126,5.5
13:29:19.521,-29.1876,5.9375
13:29:19.539,-28.6876,4.375
13:29:19.541,-30.0626,5.125
13:29:19.557,-30.5001,2.5625
13:29:19.596,-32.3751,2.125
13:29:19.596,-33.0001,0
13:29:19.597,-33.9376,-1.125
13:29:19.599,-34.4376,-3.5
13:29:19.601,-34.0626,-4.5
13:29:19.612,-35.1251,-5.8125
13:29:19.648,-35.6876,-7.125
13:29:19.649,-36.5001,-9.875
13:29:19.652,-36.0001,-11.3125
13:29:19.654,-37.6876,-14.1876
13:29:19.698,-38.4376,-17.5626
13:29:19.699,-41.3752,-21.0001
13:29:19.701,-43.6252,-24.3126
13:29:19.702,-47.0627,-29.1876
13:29:19.737,-49.4377,-33.0626
13:29:19.739,-51.4377,-36.0626
13:29:19.740,-53.3127,-38.8126
13:29:19.742,-53.6252,-40.8752
13:29:19.748,-53.1877,-42.4377
13:29:19.751,-54.6252,-45.0627
13:29:19.760,-56.3127,-48.3127
13:29:19.774,-56.8752,-49.5002
13:29:19.791,-57.1252,-52.5627
13:29:19.793,-57.0002,-52.6252
13:29:19.808,-55.6252,-52.1877
13:29:19.815,-54.1877,-52.6877
13:29:19.823,-52.0002,-51.6877
13:29:19.832,-49.9377,-48.5002
13:29:19.842,-45.7502,-47.1877
13:29:19.852,-43.3127,-44.7502
13:29:19.862,-41.7502,-43.6252
13:29:19.872,-39.9377,-42.8127
13:29:19.882,-41.1252,-42.5627
13:29:19.893,-42.3127,-45.3127
13:29:19.902,-43.2502,-46.6877
13:29:19.912,-41.0627,-46.6252
13:29:19.922,-40.1877,-45.3127
13:29:19.931,-40.9377,-46.5627
13:29:19.942,-40.6252,-47.8752
13:29:19.951,-40.9377,-48.4377
13:29:19.961,-41.2502,-49.6877
13:29:19.971,-42.2502,-50.3127
13:29:19.981,-41.7502,-50.8752
13:29:19.991,-41.0627,-47.9377
13:29:20.002,-39.0001,-41.0627
13:29:20.011,-34.7501,-33.4376
13:29:20.021,-30.6251,-24.3751
13:29:20.031,-27.9376,-14.9376
13:29:20.042,-24.1251,-5.6875
13:29:20.052,-19.9376,4.875
13:29:20.062,-17.5001,11
13:29:20.072,-16.1876,18.1251
13:29:20.082,-14.9376,24.5001
13:29:20.092,-13.6876,26.1876
13:29:20.102,-13.0625,29.7501
13:29:20.112,-12.75,30.5626
13:29:20.122,-11.8125,32.0001
13:29:20.132,-11.4375,32.1876
13:29:20.148,-11.875,32.6876
13:29:20.174,-12.1875,31.0626
13:29:20.177,-12.3125,30.5626
13:29:20.179,-11.9375,29.5001
13:29:20.182,-12,29.3751
13:29:20.192,-11.125,28.3751
13:29:20.204,-11.9375,25.9376
13:29:20.214,-13.1876,23.9376
13:29:20.224,-14.2501,20.6251
13:29:20.233,-16.0626,18.9376
13:29:20.243,-17.3126,14.8751
13:29:20.254,-17.7501,12.1875
13:29:20.263,-18.8126,11
13:29:20.273,-19.6251,8.25
13:29:20.283,-20.4376,7.5625
13:29:20.316,-21.4376,6.8125
13:29:20.318,-20.8126,5.875
13:29:20.320,-21.8751,5.5
13:29:20.324,-20.8126,5
13:29:20.353,-22.3751,4.875
13:29:20.356,-21.6876,4.5
13:29:20.359,-22.1876,4
13:29:20.362,-22.3126,2.625
13:29:20.392,-22.2501,3.25
13:29:20.393,-23.5001,2.5625
13:29:20.395,-24.7501,-0.125
13:29:20.402,-25.8751,-3.125
13:29:20.412,-27.8126,-5
13:29:20.442,-29.9376,-7.75
13:29:20.446,-31.7501,-11.5
13:29:20.448,-34.0001,-13.8751
13:29:20.452,-36.1251,-18.3126
13:29:20.468,-37.4376,-21.1876
13:29:20.471,-39.6252,-23.6876
13:29:20.482,-41.3752,-26.3751
13:29:20.492,-42.9377,-29.8126
13:29:20.502,-44.0627,-32.3751
13:29:20.512,-45.8752,-34.6876
13:29:20.526,-46.6252,-37.8751
13:29:20.532,-49.7502,-41.4377
13:29:20.542,-47.0002,-42.4377
13:29:20.552,-47.9377,-43.1877
13:29:20.562,-46.1252,-42.8127
13:29:20.572,-43.3127,-40.4377
13:29:20.582,-40.3752,-38.3751
13:29:20.592,-38.7501,-38.5001
13:29:20.602,-38.6251,-38.2501
13:29:20.612,-37.8751,-39.6877
13:29:20.622,-38.5001,-39.7502
13:29:20.632,-39.6252,-41.5627
13:29:20.642,-41.6877,-44.3752
13:29:20.651,-42.1877,-44.1877
13:29:20.662,-40.6877,-45.0627
13:29:20.672,-38.6251,-42.3752
13:29:20.682,-38.8751,-43.3752
13:29:20.692,-38.6251,-44.5002
13:29:20.704,-39.4377,-45.6252
13:29:20.713,-41.9377,-48.0627
13:29:20.722,-43.7502,-51.5002
13:29:20.736,-46.0002,-53.1252
13:29:20.747,-48.0002,-56.8127
13:29:20.757,-49.0627,-57.8127
13:29:20.767,-51.8752,-60.2502
13:29:20.776,-52.4377,-62.6877
13:29:20.787,-52.2502,-61.5627
13:29:20.797,-49.9377,-57.6252
13:29:20.807,-45.8127,-51.3127
13:29:20.817,-42.8752,-43.3752
13:29:20.827,-38.0626,-34.3751
13:29:20.842,-32.1876,-23.6876
13:29:20.858,-27.5001,-12.75
13:29:20.861,-23.0001,-4.125
13:29:20.869,-18.9376,5
13:29:20.876,-15.6251,10.8125
13:29:20.886,-12.625,16.1251
13:29:20.902,-9.875,22.7501
13:29:20.907,-7.9375,25.6876
13:29:20.917,-6.875,26.3751
13:29:20.927,-6.125,27.0626
13:29:20.937,-5.1875,27.6876
13:29:20.946,-4.375,28.1251
13:29:20.987,-4.875,27.8126
13:29:20.990,-4.9375,26.9376
13:29:20.992,-4.25,25.3751
13:29:20.994,-6.8125,23.4376
13:29:20.997,-7.9375,21.6251
13:29:21.031,-9.3125,18.3126
13:29:21.034,-12.3125,16.0001
13:29:21.037,-13.6876,11.375
13:29:21.041,-15.2501,8.625
13:29:21.057,-16.0001,6.8125
13:29:21.060,-17.9376,4.0625
13:29:21.095,-19.5001,1.75
13:29:21.097,-19.8126,0.8125
13:29:21.142,-19.6876,-0.1875
13:29:21.143,-21.5001,-1.375
13:29:21.145,-21.1876,-1.6875
13:29:21.145,-21.8126,-1.0625
13:29:21.147,-22.5001,-3.1875
13:29:21.149,-24.1251,-2.9375
13:29:21.157,-25.3126,-5.0625
13:29:21.167,-25.2501,-5
13:29:21.177,-25.5626,-6.1875
13:29:21.186,-25.3751,-6.3125
13:29:21.197,-26.3751,-7.5625
13:29:21.207,-26.9376,-8.6875
13:29:21.217,-27.1876,-10.75
13:29:21.227,-27.0626,-10.5625
13:29:21.237,-26.0626,-12.375
13:29:21.247,-24.9376,-11.75
13:29:21.257,-23.5001,-13.125
13:29:21.267,-23.8126,-11.9375
13:29:21.277,-21.1876,-11.5625
13:29:21.287,-16.5001,-9.625
13:29:21.297,-12.1875,-5.3125
13:29:21.307,-9.6875,-5.3125
13:29:21.317,-7.25,-4.875
13:29:21.326,-4.125,-2.1875
13:29:21.337,-3.0625,-0.9375
13:29:21.346,-0.5625,-1.5625
13:29:21.356,4.0625,2.875
13:29:21.367,5.125,3.25
13:29:21.377,9.5625,4.875
13:29:21.387,10,6.5625
13:29:21.397,12.5625,6.625
13:29:21.407,14.4376,8.125
13:29:21.418,16.5626,9.625
13:29:21.427,19.3751,10.3125
13:29:21.455,23.1251,14.8126
13:29:21.457,25.3751,16.6876
13:29:21.460,26.8126,15.7501
13:29:21.468,30.1876,18.1876
13:29:21.477,35.7501,22.6251
13:29:21.487,40.4377,27.0001
13:29:21.503,45.5627,30.4376
13:29:21.512,50.8127,35.2501
13:29:21.522,51.0002,35.6876
13:29:21.532,52.0627,37.3751
13:29:21.542,56.5002,39.8752
13:29:21.552,63.0002,45.1252
13:29:21.562,66.3128,48.1252
13:29:21.573,70.3753,52.1877
13:29:21.584,72.8753,57.0627
13:29:21.593,74.3128,62.0627
13:29:21.602,77.6878,68.5628
13:29:21.612,81.2503,76.7503
13:29:21.622,87.3128,86.9378
13:29:21.632,144.313,150.0006
13:29:21.642,169.3756,165.0631
13:29:21.652,192.6257,189.4382
13:29:21.665,227.3134,224.1884
13:29:21.672,245.8134,241.0009
13:29:21.682,260.9385,255.1885
13:29:21.691,274.6885,267.9385
13:29:21.702,287.0636,277.1885
13:29:21.712,298.6887,288.0011
13:29:21.723,307.0012,293.6261
13:29:21.734,307.5637,293.6886
13:29:21.742,307.8762,292.5011
13:29:21.770,308.0637,291.6886
13:29:21.772,305.0012,288.5011
13:29:21.774,303.6262,284.9386
13:29:21.807,301.3137,281.7511
13:29:21.810,299.3761,279.0636
13:29:21.812,299.2511,274.876
13:29:21.814,299.0636,273.626
13:29:21.854,299.0636,270.5635
13:29:21.856,298.2511,268.3135
13:29:21.858,296.5636,265.8135
13:29:21.864,293.3761,262.251
13:29:21.865,290.0636,258.4385
13:29:21.880,286.3136,255.6885
13:29:21.885,285.1886,253.751
13:29:21.908,279.6261,249.2509
13:29:21.911,273.9385,244.7509
13:29:21.915,268.626,239.0009
13:29:21.930,262.3135,234.3134
13:29:21.932,256.251,228.6259
13:29:21.942,250.8759,222.0634
13:29:21.952,245.0009,216.8133
13:29:21.962,240.0634,210.8133
13:29:21.972,233.6259,205.2508
13:29:21.981,227.5009,198.4383
13:29:21.992,220.5634,190.8132
13:29:22.002,213.8758,184.1882
13:29:22.013,207.2508,178.1882
13:29:22.023,201.5008,171.7507
13:29:22.032,196.1882,165.1256
13:29:22.043,190.3132,158.0006
13:29:22.053,184.6882,152.0006
13:29:22.062,179.3757,145.8755
13:29:22.072,172.7507,139.2505
13:29:22.082,166.1256,131.813
13:29:22.092,160.6881,125.6255
13:29:22.102,156.1881,120.313
13:29:22.112,152.2506,115.7504
13:29:22.122,149.1881,111.7504
13:29:22.132,144.2505,106.9379
13:29:22.152,139.938,102.0629
13:29:22.155,135.5005,97.3754
13:29:22.170,132.313,92.3129
13:29:22.185,128.563,88.6253
13:29:22.187,125.688,84.6253
13:29:22.194,122.313,82.0003
13:29:22.202,119.7505,78.1878
13:29:22.213,117.563,75.0003
13:29:22.225,116.2504,73.0628
13:29:22.232,115.1254,71.4378
13:29:22.242,113.1254,68.3753
13:29:22.252,111.3754,65.9378
13:29:22.261,109.4379,63.0627
13:29:22.272,106.5004,59.8752
13:29:22.282,104.5629,57.1877
13:29:22.292,101.5004,54.3127
13:29:22.302,99.1254,52.1877
13:29:22.312,97.1879,51.0002
13:29:22.323,96.9379,51.6877
13:29:22.333,98.1254,54.5002
13:29:22.344,100.4379,60.3127
13:29:22.352,101.8754,67.0628
13:29:22.366,104.6254,73.4378
13:29:22.371,105.8129,78.8753
13:29:22.382,108.5004,84.3128
13:29:22.393,108.3129,87.7503
13:29:22.408,107.4379,90.7504
13:29:22.429,107.5004,90.3128
13:29:22.431,105.3129,90.1878
13:29:22.447,103.5629,88.3753
13:29:22.451,101.9379,87.6253
13:29:22.452,100.5004,85.5003
13:29:22.463,98.5629,83.3128
13:29:22.474,95.6879,81.3128
13:29:22.484,94.4379,79.4378
13:29:22.492,91.2504,76.3128
13:29:22.524,89.1878,73.5628
13:29:22.526,87.1878,70.5628
13:29:22.529,84.1878,68.0003
13:29:22.535,82.2503,63.8127
13:29:22.568,79.4378,60.3127
13:29:22.570,77.2503,57.6877
13:29:22.572,75.4378,54.5627
13:29:22.578,74.1253,52.5627
13:29:22.593,72.3128,50.6877
13:29:22.595,71.0628,48.6877
13:29:22.634,69.6878,47.1877
13:29:22.636,68.5003,47.1877
13:29:22.638,67.9378,46.1252
13:29:22.644,67.3128,46.3127
13:29:22.645,66.2503,45.3127
13:29:22.653,65.3127,44.8752
13:29:22.679,64.7502,44.0627
13:29:22.681,63.3752,44.1252
13:29:22.684,62.3127,43.0002
13:29:22.692,62.6252,41.6252
13:29:22.702,61.5002,40.9377
13:29:22.736,61.6877,40.8127
13:29:22.738,61.2502,39.2502
13:29:22.740,59.8752,37.7501
13:29:22.743,59.1877,36.0001
13:29:22.754,56.5627,33.5626
13:29:22.762,54.8752,31.5001
13:29:22.773,52.6252,29.0626
13:29:22.783,50.5002,25.3751
13:29:22.792,48.6877,23.5626
13:29:22.803,47.2502,20.8126
13:29:22.814,46.1252,19.2501
13:29:22.823,44.3752,16.3751
13:29:22.833,42.5002,14.7501
13:29:22.843,41.1252,11.875
13:29:22.852,38.8126,10.375
13:29:22.864,37.9376,8.25
13:29:22.874,37.0001,6.0625
13:29:22.882,35.5001,4.1875
13:29:22.893,34.1876,3.3125
13:29:22.904,33.0001,1.875
13:29:22.912,32.3126,0.25
13:29:22.923,31.0001,-0.4375
13:29:22.933,30.5626,-3.625
13:29:22.943,29.8126,-3.3125
13:29:22.954,28.3751,-5.6875
13:29:22.964,27.1876,-6.125
13:29:22.972,26.8126,-8.5
13:29:22.983,25.3126,-9.75
13:29:22.991,25.3751,-10.8125
13:29:23.003,24.4376,-11.5625
13:29:23.013,24.3126,-12.625
13:29:23.023,24.0001,-12.5625
13:29:23.034,22.8751,-14.1876
13:29:23.043,22.7501,-14.6876
13:29:23.053,23.3126,-13.5001
13:29:23.063,24.4376,-9.5625
13:29:23.073,27.6876,-3.25
13:29:23.084,31.0626,2.25
13:29:23.093,34.3126,11.125
13:29:23.104,36.6251,17.5626
13:29:23.114,39.4377,24.6251
13:29:23.122,40.9377,29.4376
13:29:23.157,43.0002,35.3751
13:29:23.158,43.3127,37.0626
13:29:23.162,43.6877,40.1252
13:29:23.164,43.9377,40.0627
13:29:23.198,43.0627,40.3127
13:29:23.200,41.2502,38.9376
13:29:23.202,40.1252,37.9376
13:29:23.205,38.6251,35.9376
13:29:23.234,37.4376,35.6251
13:29:23.237,36.2501,33.5001
13:29:23.239,34.7501,32.1876
13:29:23.244,34.3126,31.1876
13:29:23.276,33.2501,29.0001
13:29:23.280,31.9376,28.0626
13:29:23.281,30.8751,27.1876
13:29:23.312,30.7501,24.9376
13:29:23.312,29.6251,23.5001
13:29:23.315,28.8751,22.2501
13:29:23.321,28.1876,19.8751
13:29:23.327,26.6876,18.8126
13:29:23.334,26.7501,17.1876
13:29:23.343,26.3126,16.1876
13:29:23.354,26.0626,17.5001
13:29:23.363,26.3126,17.5001
13:29:23.373,26.8126,16.6251
13:29:23.383,26.4376,17.3751
13:29:23.394,27.0001,18.3751
13:29:23.404,26.1876,16.9376
13:29:23.413,25.2501,15.6876
13:29:23.423,24.0626,14.6876
13:29:23.433,23.1876,14.4376
13:29:23.444,22.1876,13.0625
13:29:23.453,21.9376,11.5
13:29:23.471,20.6876,10.375
13:29:23.473,20.4376,9
13:29:23.489,19.1251,7.6875
13:29:23.495,18.0001,6.75
13:29:23.503,18.2501,3.9375
13:29:23.513,16.3126,1.9375
13:29:23.523,15.1251,0.125
13:29:23.534,13.1251,-0.9375
13:29:23.543,13.0625,-3.75
13:29:23.556,11,-5
13:29:23.565,10.6875,-7.25
13:29:23.573,9.8125,-9.125
13:29:23.583,8.75,-10.6875
13:29:23.593,7.8125,-11.5625
13:29:23.603,7.1875,-13.8126
13:29:23.613,5.9375,-15.5001
13:29:23.624,4.5625,-16.0001
13:29:23.635,3.9375,-17.8126
13:29:23.646,3.9375,-19.1251
13:29:23.653,3,-20.7501
13:29:23.663,1.4375,-23.0626
13:29:23.673,0.8125,-22.3751
13:29:23.683,0.6875,-24.2501
13:29:23.693,0.1875,-25.5001
13:29:23.714,0.375,-26.2501
13:29:23.720,-0.4375,-25.8751
13:29:23.723,-0.4375,-27.7501
13:29:23.738,-0.5625,-29.3751
13:29:23.745,-1.75,-29.1251
13:29:23.753,-1.4375,-31.4376
13:29:23.766,-3.125,-33.6876
13:29:23.774,-3.3125,-32.8751
13:29:23.783,-3.625,-34.0001
13:29:23.794,-3.6875,-35.6876
13:29:23.804,-4.0625,-35.6876
13:29:23.813,-4.625,-36.7501
13:29:23.825,-3.75,-34.8751
13:29:23.836,-0.9375,-31.0626
13:29:23.843,0.9375,-26.1251
13:29:23.853,5,-19.2501
13:29:23.863,7.4375,-12.875
13:29:23.875,10.1875,-4.9375
13:29:23.885,13.0625,-0.6875
13:29:23.895,15.3126,5.375
13:29:23.903,17.0626,8.5
13:29:23.913,17.7501,11.5
13:29:23.923,17.8126,12.1875
13:29:23.946,16.2501,12.125
13:29:23.949,15.2501,11
13:29:23.977,14.5626,10
13:29:23.979,13.6876,8.5625
13:29:23.982,12.375,6.75
13:29:23.984,11.75,6.625
13:29:24.015,11.125,4.375
13:29:24.017,11.0625,5.25
13:29:24.019,10.3125,3.625
13:29:24.057,9.25,2.1875
13:29:24.058,7.9375,0.4375
13:29:24.060,7,-2.125
13:29:24.062,4.875,-4.875
13:29:24.098,3.6875,-5.25
13:29:24.100,2.9375,-8.25
13:29:24.102,0.75,-9.75
13:29:24.109,-0.125,-10.125
13:29:24.110,-0.5,-12.4375
13:29:24.123,-1.0625,-13.2501
13:29:24.128,-1.5625,-13.125
13:29:24.138,-1.3125,-10.625
13:29:24.148,-0.8125,-11.5
13:29:24.160,-0.3125,-12
13:29:24.168,-1.375,-12.75
13:29:24.178,-1.6875,-11.4375
13:29:24.188,-1.1875,-12.5625
13:29:24.199,-1.75,-12.1875
13:29:24.210,-1,-13
13:29:24.218,-1.0625,-14.3126
13:29:24.228,-1.5625,-14.8126
13:29:24.238,-2.1875,-14.7501
13:29:24.248,-2.25,-17.1251
13:29:24.261,-2.125,-18.0626
13:29:24.268,-2.875,-19.6876
13:29:24.278,-2.5,-19.6251
13:29:24.288,-2.625,-21.0001
13:29:24.299,-2.6875,-21.5626
13:29:24.309,-2.75,-22.8126
13:29:24.318,-3.5625,-24.8126
13:29:24.328,-4.125,-25.0001
13:29:24.338,-4.3125,-27.1876
13:29:24.349,-4.9375,-27.4376
13:29:24.360,-4.75,-28.9376
13:29:24.368,-4.6875,-29.5001
13:29:24.378,-5.5625,-30.9376
13:29:24.388,-5.5625,-30.5626
13:29:24.399,-5.9375,-32.0626
13:29:24.408,-5.375,-32.6876
13:29:24.421,-6.375,-33.5626
13:29:24.429,-6.4375,-35.2501
13:29:24.438,-6.5,-35.3126
13:29:24.448,-6.75,-36.0626
13:29:24.459,-5.75,-35.6876
13:29:24.468,-6.3125,-36.1251
13:29:24.478,-5.3125,-36.2501
13:29:24.493,-5.5,-35.9376
13:29:24.498,-5.8125,-37.3126
13:29:24.508,-6.375,-38.1876
13:29:24.518,-6.25,-38.5001
13:29:24.528,-7.9375,-39.1877
13:29:24.538,-7.375,-40.1252
13:29:24.548,-8.3125,-41.7502
13:29:24.560,-8.75,-41.9377
13:29:24.568,-9.25,-43.9377
13:29:24.578,-9.8125,-43.2502
13:29:24.588,-10.3125,-45.1252
13:29:24.599,-10.4375,-47.0002
13:29:24.609,-11.25,-46.8127
13:29:24.625,-12.875,-47.6252
13:29:24.628,-12.5,-49.3752
13:29:24.666,-12.9375,-48.8752
13:29:24.669,-11.625,-48.5627
13:29:24.672,-10,-45.0002
13:29:24.673,-7,-40.8127
13:29:24.706,-3.375,-33.5001
13:29:24.707,0.75,-26.5001
13:29:24.711,6.375,-19.1876
13:29:24.716,13.1251,-9.875
13:29:24.729,15.3126,-4.375
13:29:24.729,17.4376,-0.25
13:29:24.776,19.0626,3
13:29:24.777,20.0626,4.125
13:29:24.799,20.1251,5.875
13:29:24.802,20.0001,5.1875
13:29:24.806,19.5001,4.125
13:29:24.806,19.7501,4.875
13:29:24.806,19.6251,3.6875
13:29:24.813,19.3751,3.375
13:29:24.823,19.1251,1.4375
13:29:24.833,19.4376,1.375
13:29:24.845,19.0626,0.375
13:29:24.853,19.1251,0.0625
13:29:24.865,18.6876,-1.1875
13:29:24.875,18.7501,-2.75
13:29:24.884,17.9376,-3.75
13:29:24.894,17.9376,-4.0625
13:29:24.903,17.8126,-5.9375
13:29:24.913,18.1251,-6.375
13:29:24.923,17.9376,-5.875
13:29:24.933,16.8126,-6.25
13:29:24.945,16.4376,-7.25
13:29:24.955,15.5626,-7.75
13:29:24.963,15.2501,-7.5
13:29:24.974,14.9376,-7.5625
13:29:24.983,14.6251,-6.75
13:29:24.994,14.5001,-7.0625
13:29:25.004,14.6251,-8.0625
13:29:25.021,13.6876,-7.5
13:29:25.028,13.6251,-8.3125
13:29:25.044,12.125,-10.25
13:29:25.045,10.875,-11.125
13:29:25.054,9.9375,-11.5
13:29:25.065,9.5,-13.9376
13:29:25.073,8.875,-13.6876
13:29:25.083,9.625,-15.5626
13:29:25.094,8.4375,-16.3126
13:29:25.105,8.875,-16.3751
13:29:25.113,8.1875,-18.5626
13:29:25.123,7.5625,-19.4376
13:29:25.133,6.5625,-19.8126
13:29:25.143,5.75,-21.8751
13:29:25.156,5.375,-22.2501
13:29:25.163,5.375,-23.2501
13:29:25.173,4.5625,-24.6876
13:29:25.183,4.375,-24.3126
13:29:25.193,5.4375,-25.6251
13:29:25.205,4.25,-26.5626
13:29:25.213,4.1875,-26.7501
13:29:25.223,3.75,-28.1876
13:29:25.234,2.5625,-28.6251
13:29:25.244,2.5625,-30.1251
13:29:25.254,1.875,-30.1251
13:29:25.266,1.6875,-31.3751
13:29:25.294,1.5625,-32.5626
13:29:25.297,1,-31.5001
13:29:25.299,0.6875,-32.4376
13:29:25.304,0.5,-34.3126
13:29:25.314,0.25,-33.6251
13:29:25.326,0.1875,-34.8751
13:29:25.335,-0.75,-35.6251
13:29:25.343,-1.625,-36.3126
13:29:25.354,-1.8125,-37.2501
13:29:25.363,-3.3125,-37.6251
13:29:25.373,-3.9375,-39.8127
13:29:25.384,-4.875,-41.3127
13:29:25.393,-5.5,-41.5627
13:29:25.405,-5.1875,-42.0627
13:29:25.413,-5.3125,-42.5002
13:29:25.447,-5.125,-42.7502
13:29:25.449,-5.8125,-44.0002
13:29:25.452,-6.3125,-43.0627
13:29:25.455,-5.5625,-44.1252
13:29:25.490,-4.4375,-42.3127
13:29:25.492,-1.9375,-36.7501
13:29:25.495,0.5625,-32.6876
13:29:25.500,3.6875,-26.4376
13:29:25.504,6.9375,-20.1251
13:29:25.537,10.625,-14.2501
13:29:25.541,13.4376,-9
13:29:25.543,15.6251,-4
13:29:25.544,18.1251,0.1875
13:29:25.582,18.6876,2.0625
13:29:25.586,19.4376,3.875
13:29:25.587,20.2501,4.25
13:29:25.593,19.4376,4.1875
13:29:25.593,18.9376,4.3125
13:29:25.604,18.1251,2.25
13:29:25.618,17.7501,2.625
13:29:25.623,17.3751,0.75
13:29:25.634,16.7501,0.4375
13:29:25.644,17.1251,0.3125
13:29:25.655,16.3751,-1
13:29:25.664,15.0626,-1.6875
13:29:25.674,14.9376,-3.8125
13:29:25.684,13.2501,-4.875
13:29:25.694,12.5,-5.9375
13:29:25.703,11.75,-8
13:29:25.714,10.75,-8.875
13:29:25.723,10.5625,-9.5625
13:29:25.733,10.0625,-10.6875
13:29:25.745,10.125,-10.25
13:29:25.755,9.5,-10.625
13:29:25.764,9.375,-8.9375
13:29:25.775,9.5,-10.5
13:29:25.786,9.4375,-10.3125
13:29:25.794,9.0625,-9.25
13:29:25.804,9.125,-9.6875
13:29:25.814,9.0625,-9.9375
13:29:25.823,8.625,-9.625
13:29:25.835,8.5,-9.375
13:29:25.843,8.3125,-10.875
13:29:25.854,7.5625,-11
13:29:25.866,6.875,-12.1875
13:29:25.874,6.5,-13.5001
13:29:25.884,5.9375,-14.3126
13:29:25.894,4.375,-15.3751
13:29:25.905,3.875,-16.1251
13:29:25.918,3.25,-17.7501
13:29:25.923,2.3125,-18.0626
13:29:25.934,1.5625,-20.0001
13:29:25.944,0.875,-22.1876
13:29:25.955,0.6875,-21.6876
13:29:25.964,0.375,-24.3751
13:29:25.973,-0.625,-24.5626
13:29:25.984,-1.25,-26.3126
13:29:25.996,-2,-26.3126
13:29:26.004,-1.75,-27.3126
13:29:26.015,-2.375,-28.8751
13:29:26.024,-3.1875,-29.3126
13:29:26.037,-3.5625,-28.8751
13:29:26.043,-3.25,-30.8751
13:29:26.057,-3.5,-30.8751
13:29:26.091,-4.125,-32.6251
13:29:26.094,-4.5,-32.4376
13:29:26.095,-5.0625,-33.3751
13:29:26.100,-5.625,-34.0001
13:29:26.105,-5.375,-35.0001
13:29:26.135,-6,-35.5001
13:29:26.138,-6.75,-35.4376
13:29:26.141,-7.6875,-36.9376
13:29:26.144,-7.6875,-37.4376
13:29:26.175,-8.3125,-38.0626
13:29:26.177,-8.8125,-38.6251
13:29:26.179,-9,-38.8751
13:29:26.186,-9.4375,-40.5627
13:29:26.212,-10,-40.5002
13:29:26.215,-9.625,-41.0002
13:29:26.218,-10.75,-41.6252
13:29:26.246,-11.5,-43.0627
13:29:26.248,-11.75,-44.2502
13:29:26.250,-12.6875,-45.6877
13:29:26.256,-12.625,-44.9377
13:29:26.267,-13.3751,-46.2502
13:29:26.274,-13.6876,-46.6252
13:29:26.284,-14.0626,-46.8752
13:29:26.295,-13.2501,-46.2502
13:29:26.306,-12.3125,-44.5002
13:29:26.324,-9.875,-41.0002
13:29:26.333,-7.1875,-34.5001
13:29:26.345,-3.6875,-28.9376
13:29:26.348,-0.125,-21.8126
13:29:26.355,3.0625,-14.9376
13:29:26.364,6.125,-9.75
13:29:26.375,8.6875,-3.875
13:29:26.385,9.75,-1.1875
13:29:26.395,10.625,2.25
13:29:26.404,10.875,3.25
13:29:26.416,10.125,4.3125
13:29:26.424,10.25,3.9375
13:29:26.434,9.5,3.875
13:29:26.444,8.9375,2.5625
13:29:26.454,7.875,2.375
13:29:26.464,7.875,1.3125
13:29:26.474,6.75,1.5
13:29:26.484,6.25,0.625
13:29:26.494,5.375,-0.4375
13:29:26.506,4.125,-1.9375
13:29:26.514,3,-3.25
13:29:26.524,2.5625,-4.8125
13:29:26.536,1.3125,-5.6875
13:29:26.545,0.4375,-6.5625
13:29:26.574,0.875,-8.0625
13:29:26.577,0.4375,-9.875
13:29:26.579,0.25,-8.8125
13:29:26.586,1.375,-9.125
13:29:26.595,1.875,-8.9375
13:29:26.604,1.9375,-8.1875
13:29:26.614,3.0625,-7.125
13:29:26.625,3.5,-6.625
13:29:26.635,4,-5.125
13:29:26.644,4.75,-4.25
13:29:26.654,4.5,-4.9375
13:29:26.666,3.9375,-4.8125
13:29:26.675,4.75,-3.1875
13:29:26.685,5,-4.5
13:29:26.694,5.0625,-3.125
13:29:26.705,5.1875,-4.5
13:29:26.715,4.8125,-4.875
13:29:26.725,4.6875,-5.375
13:29:26.734,4.6875,-6.8125
13:29:26.747,3.25,-6.375
13:29:26.761,3.375,-7.9375
13:29:26.764,2.9375,-9.5
13:29:26.775,3.25,-9.4375
13:29:26.785,2.25,-11.5625
13:29:26.794,1.4375,-12.125
13:29:26.805,0.9375,-13.4376
13:29:26.815,0,-14.0626
13:29:26.824,0.3125,-15.5626
13:29:26.834,-0.0625,-15.9376
13:29:26.845,-0.875,-17.8126
13:29:26.856,-1.0625,-17.1251
13:29:26.865,-2.0625,-19.0626
13:29:26.874,-2.375,-19.0626
13:29:26.903,-2.125,-20.1876
13:29:26.906,-1.875,-20.3126
13:29:26.908,-1.875,-21.7501
13:29:26.914,-2.0625,-21.3751
13:29:26.944,-1.875,-21.5001
13:29:26.946,-1.9375,-22.8751
13:29:26.949,-3,-22.2501
13:29:26.954,-2.875,-23.5626
13:29:26.987,-3.3125,-24.4376
13:29:26.992,-2.875,-24.0626
13:29:26.992,-3.375,-26.1876
13:29:26.994,-3.625,-25.1251
13:29:27.024,-3.6875,-26.7501
13:29:27.027,-3.875,-26.8126
13:29:27.029,-4.375,-28.3126
13:29:27.036,-4.9375,-28.3751
13:29:27.068,-5.125,-29.2501
13:29:27.070,-4.9375,-29.0001
13:29:27.072,-5.5,-30.3751
13:29:27.074,-6,-30.3751
13:29:27.084,-6.875,-32.0626
13:29:27.094,-6.75,-32.6251
13:29:27.105,-6.8125,-32.8751
13:29:27.114,-7.25,-34.0626
13:29:27.124,-7.625,-34.5626
13:29:27.134,-7.6875,-34.8751
13:29:27.146,-7.9375,-35.3751
13:29:27.154,-7.4375,-34.7501
13:29:27.164,-6.375,-33.1876
13:29:27.174,-3.0625,-27.6876
13:29:27.184,0.0625,-23.0001
13:29:27.194,3.625,-15.3126
13:29:27.205,6.9375,-9
13:29:27.217,10.25,-1.5
13:29:27.225,13.7501,4.6875
13:29:27.235,16.3751,9.1875
13:29:27.244,17.9376,14.8751
13:29:27.254,19.8126,17.0001
13:29:27.265,19.5626,18.5626
13:29:27.274,19.9376,20.1876
13:29:27.285,19.6251,18.7501
13:29:27.295,19.0626,19.8751
13:29:27.304,18.8126,19.0001
13:29:27.314,17.5626,18.4376
13:29:27.325,17.8126,17.6251
13:29:27.335,17.1251,16.3751
13:29:27.344,17.3751,15.9376
13:29:27.366,16.6876,14.6876
13:29:27.369,15.5626,13.5626
13:29:27.383,14.8126,12.4375
13:29:27.388,14.1251,9.75
13:29:27.394,13.0625,9.375
13:29:27.404,13.1876,8.6875
13:29:27.414,13.6251,7.125
13:29:27.426,13.1876,6.6875
13:29:27.435,13.0625,7.625
13:29:27.444,13.2501,6.3125
13:29:27.455,13.1876,6.1875
13:29:27.465,13.1876,7.9375
13:29:27.475,14.0001,7.75
13:29:27.485,14.8126,8.625
13:29:27.494,14.7501,9.875
13:29:27.506,16.0626,10.25
13:29:27.516,15.8751,10.1875
13:29:27.542,15.7501,10.75
13:29:27.544,15.9376,11.25
13:29:27.546,15.4376,11.0625
13:29:27.581,16.0626,10
13:29:27.582,14.8126,8.875
13:29:27.584,14.1251,8.875
13:29:27.587,13.7501,8.5
13:29:27.656,13.8126,6.625
13:29:27.658,12.75,5.5
13:29:27.658,12.0625,4.4375
13:29:27.664,12,3.375
13:29:27.665,10.8125,1.5625
13:29:27.665,9.8125,1.5
13:29:27.670,9.625,-0.75
13:29:27.702,8.625,-2.5
13:29:27.706,7.375,-3.5625
13:29:27.707,6.6875,-4.125
13:29:27.709,5.875,-6.4375
13:29:27.719,5.1875,-8.5
13:29:27.729,3.75,-9.0625
13:29:27.742,4,-10.25
13:29:27.749,3,-12.3125
13:29:27.759,2.5625,-13.3126
13:29:27.770,2.875,-12.5
13:29:27.779,2.8125,-14.1876
13:29:27.789,2.5,-15.3126
13:29:27.799,2.0625,-15.3126
13:29:27.810,1.5625,-16.8126
13:29:27.819,1.0625,-18.1876
13:29:27.829,0.75,-19.4376
13:29:27.855,0.625,-20.6251
13:29:27.858,0.3125,-20.0626
13:29:27.861,0.875,-20.5001
13:29:27.869,1,-21.2501
13:29:27.884,0.5,-21.0626
13:29:27.889,0.9375,-22.9376
13:29:27.902,-0.1875,-22.5001
13:29:27.909,0,-23.6876
13:29:27.919,0.4375,-24.1876
13:29:27.931,-0.0625,-25.6251
13:29:27.939,-0.0625,-24.1876
13:29:27.949,0.5,-25.8751
13:29:27.960,-0.8125,-26.9376
13:29:27.970,-0.75,-27.1876
13:29:27.979,-0.6875,-27.6876
13:29:27.989,-1.125,-28.3126
13:29:28.001,-0.9375,-26.5626
13:29:28.010,1.1875,-25.0001
13:29:28.019,4.25,-20.2501
13:29:28.031,8.125,-13.1251
13:29:28.040,12.25,-5.625
13:29:28.049,14.8126,-0.3125
13:29:28.059,17.1876,7.75
13:29:28.069,20.0626,11.5
13:29:28.079,21.8751,16.5626
13:29:28.089,22.8126,21.0626
13:29:28.100,24.0001,23.3751
13:29:28.110,24.7501,25.5001
13:29:28.120,25.3126,26.9376
13:29:28.131,24.9376,27.0626
13:29:28.139,25.1251,26.8126
13:29:28.151,23.9376,25.6251
13:29:28.160,22.8751,24.5626
13:29:28.172,21.9376,23.0001
13:29:28.180,20.9376,22.5001
13:29:28.189,20.7501,20.1251
13:29:28.201,18.8126,19.9376
13:29:28.210,18.6251,17.1876
13:29:28.219,17.5001,15.6876
13:29:28.230,16.1251,14.0626
13:29:28.242,15.5626,13.1876
13:29:28.249,15.0626,11.1875
13:29:28.259,14.8751,10.4375
13:29:28.270,14.6251,10.3125
13:29:28.279,14.5626,10.5625
13:29:28.290,14.8751,9.5625
13:29:28.301,15.0001,11.125
13:29:28.310,15.9376,10.3125
13:29:28.319,16.5626,11.5625
13:29:28.357,16.6251,12.75
13:29:28.358,17.3751,14.9376
13:29:28.361,18.0001,14.5001
13:29:28.363,18.3126,13.9376
13:29:28.394,17.8126,15.5626
13:29:28.397,18.5001,15.0001
13:29:28.399,17.3751,13.5626
13:29:28.402,16.5001,13.3126
13:29:28.432,15.9376,13.1876
13:29:28.434,16.0626,11.75
13:29:28.437,14.5001,10
13:29:28.441,12.125,10.3125
13:29:28.471,8.5625,4.4375
13:29:28.474,8.125,3.6875
13:29:28.478,7.25,2.125
13:29:28.481,6.25,0.25
13:29:28.506,5.375,-0.4375
13:29:28.508,4.875,-1.375
13:29:28.511,4.375,-3.5625
13:29:28.520,3.1875,-5.25
13:29:28.529,2.6875,-5.5
13:29:28.541,2.3125,-6.875
13:29:28.551,1.5625,-8.8125
13:29:28.559,0.5625,-8.25
13:29:28.570,0.75,-10.875
13:29:28.582,0,-11.9375
13:29:28.591,-1.125,-11.8125
13:29:28.600,-0.9375,-13.6251
13:29:28.611,-1.5625,-14.5001
13:29:28.619,-1.6875,-14.7501
13:29:28.636,-1.3125,-15.6251
13:29:28.641,-2,-16.8751
13:29:28.661,-3,-17.7501
13:29:28.665,-2.3125,-18.5001
13:29:28.680,-2.875,-19.0001
13:29:28.683,-3.5,-19.3751
13:29:28.690,-4.3125,-21.3126
13:29:28.701,-5.8125,-21.5001
13:29:28.711,-5.6875,-22.8751
13:29:28.720,-5.25,-24.0626
13:29:28.730,-6.3125,-24.5001
13:29:28.741,-7.0625,-25.4376
13:29:28.750,-7.75,-26.5001
13:29:28.760,-8.6875,-27.4376
13:29:28.769,-8.125,-25.8126
13:29:28.788,-6.6875,-24.2501
13:29:28.796,-4.5,-20.1251
13:29:28.806,-1.125,-14.6251
13:29:28.815,1.0625,-7.9375
13:29:28.826,4.75,-0.875
13:29:28.835,7.875,5
13:29:28.845,9.4375,11.25
13:29:28.854,10.5625,14.1876
13:29:28.868,10.875,19.0001
13:29:28.875,11.8125,20.1876
13:29:28.888,11.9375,22.9376
13:29:28.896,11.4375,22.3751
13:29:28.906,10.3125,23.6251
13:29:28.925,9.5,22.0626
13:29:28.931,7.3125,20.2501
13:29:28.947,6,17.3751
13:29:28.952,3.3125,15.8126
13:29:28.956,1.5625,13.8126
13:29:28.966,-0.875,9.9375
13:29:28.975,-3.4375,8
13:29:28.985,-6.125,3.25
13:29:28.996,-9.5,1.5
13:29:29.026,-10.875,-2.5
13:29:29.028,-13.0625,-5.6875
13:29:29.030,-13.7501,-7.0625
13:29:29.035,-13.5626,-6.5625
13:29:29.071,-13.5626,-7.6875
13:29:29.073,-13.7501,-8.5
13:29:29.075,-13.9376,-7.5
13:29:29.078,-13.4376,-7.8125
13:29:29.115,-13.8751,-8.25
13:29:29.117,-13.5626,-7.3125
13:29:29.119,-12.375,-5.5
13:29:29.146,-10.9375,-4.125
13:29:29.147,-9.9375,-3.75
13:29:29.148,-9.3125,-2.5625
13:29:29.150,-8.75,-3.1875
13:29:29.155,-8.5,-2.125
13:29:29.184,-8.3125,-3.0625
13:29:29.186,-8.8125,-3.3125
13:29:29.189,-8.1875,-3.375
13:29:29.195,-7.6875,-3.375
13:29:29.208,-7.6875,-4.8125
13:29:29.215,-8,-4.5625
13:29:29.225,-8.625,-6.5
13:29:29.238,-9.5,-7.125
13:29:29.245,-10,-9.125
13:29:29.255,-10.25,-10.75
13:29:29.268,-11.0625,-11.4375
13:29:29.275,-11.375,-12.4375
13:29:29.285,-12.125,-14.9376
13:29:29.297,-12.4375,-16.1251
13:29:29.305,-12.75,-16.3751
13:29:29.315,-13.2501,-17.5001
13:29:29.327,-13.7501,-18.5001
13:29:29.336,-13.5001,-19.4376
13:29:29.346,-13.9376,-20.0001
13:29:29.359,-13.7501,-21.8751
13:29:29.365,-14.3126,-21.7501
13:29:29.375,-13.8751,-23.1876
13:29:29.388,-13.6251,-22.5001
13:29:29.395,-12.75,-23.3126
13:29:29.405,-12.9375,-23.3126
13:29:29.417,-12.75,-24.7501
13:29:29.426,-13.3751,-24.5001
13:29:29.436,-13.3751,-25.6251
13:29:29.448,-13.6251,-26.6876
13:29:29.455,-13.4376,-26.7501
13:29:29.465,-13.3751,-27.8126
13:29:29.478,-14.1876,-28.3751
13:29:29.485,-13.3751,-28.8751
13:29:29.496,-14.3126,-30.4376
13:29:29.509,-14.0001,-30.3126
13:29:29.515,-15.2501,-31.1876
13:29:29.525,-15.0626,-32.3751
13:29:29.537,-15.8126,-31.5626
13:29:29.546,-14.6876,-31.1251
13:29:29.556,-14.4376,-28.1876
13:29:29.570,-14.1876,-23.0001
13:29:29.583,-12.625,-19.1876
13:29:29.585,-12.25,-13.125
13:29:29.598,-10.8125,-9.1875
13:29:29.606,-9.3125,-3.0625
13:29:29.615,-7.9375,0.8125
13:29:29.625,-5.875,6.75
13:29:29.635,-4.8125,8.375
13:29:29.646,-5,10.625
13:29:29.656,-5,10.875
13:29:29.665,-5.75,11.375
13:29:29.676,-5.5,10.5
13:29:29.686,-5.375,9.6875
13:29:29.695,-5.5625,10
13:29:29.705,-6.1875,9
13:29:29.716,-5.5,9.8125
13:29:29.737,-5.875,8.1875
13:29:29.739,-5.5,8.75
13:29:29.768,-5.125,7.6875
13:29:29.772,-4.9375,7.8125
13:29:29.773,-5,7.125
13:29:29.775,-4.8125,6.125
13:29:29.805,-5,3.375
13:29:29.808,-5.5,3.875
13:29:29.810,-6.3125,1.875
13:29:29.816,-7.375,1.125
13:29:29.832,-8.0625,0.1875
13:29:29.836,-8.4375,-0.9375
13:29:29.875,-10.375,-2.625
13:29:29.878,-12.25,-4.6875
13:29:29.881,-15.1876,-6.1875
13:29:29.887,-18.5626,-8.875
13:29:29.888,-19.7501,-11.1875
13:29:29.901,-22.3126,-11.75
13:29:29.906,-22.3126,-13.0625
13:29:29.916,-23.8126,-13.3126
13:29:29.926,-24.3751,-13.6251
13:29:29.936,-24.6876,-15.4376
13:29:29.946,-25.3751,-15.0001
13:29:29.978,-25.7501,-16.6251
13:29:29.980,-26.0626,-18.5001
13:29:29.986,-25.9376,-17.8751
13:29:29.986,-26.1876,-19.3751
13:29:29.996,-25.3751,-19.6876
13:29:30.006,-25.5626,-20.7501
13:29:30.016,-26.0626,-21.5001
13:29:30.026,-25.7501,-22.6876
13:29:30.035,-26.1876,-22.7501
13:29:30.046,-25.0626,-22.9376
13:29:30.055,-23.7501,-22.8751
13:29:30.065,-20.7501,-20.1876
13:29:30.077,-19.8126,-20.6251
13:29:30.086,-19.6876,-21.1876
13:29:30.095,-20.1251,-22.5626
13:29:30.109,-19.6251,-22.0001
13:29:30.116,-19.6876,-23.3126
13:29:30.125,-20.4376,-24.3126
13:29:30.137,-19.8126,-23.8751
13:29:30.146,-19.6876,-25.2501
13:29:30.155,-19.0001,-23.8126
13:29:30.168,-18.3126,-25.6876
13:29:30.175,-17.6876,-24.7501
13:29:30.185,-17.1876,-24.8751
13:29:30.195,-17.2501,-25.1876
13:29:30.205,-16.6876,-25.9376
13:29:30.226,-18.5001,-27.6251
13:29:30.232,-18.4376,-27.2501
13:29:30.240,-17.4376,-28.6876
13:29:30.246,-17.1876,-28.3126
13:29:30.263,-16.1876,-28.8751
13:29:30.269,-16.5001,-29.3751
13:29:30.278,-16.4376,-29.3126
13:29:30.286,-16.0001,-29.8126
13:29:30.295,-15.5626,-28.9376
13:29:30.306,-13.9376,-28.0626
13:29:30.316,-11.375,-22.9376
13:29:30.326,-7.875,-16.9376
13:29:30.338,-3.9375,-11.625
13:29:30.345,-1.375,-3.8125
13:29:30.355,1.5625,1.5625
13:29:30.367,3.9375,6.625
13:29:30.375,5.25,11.375
13:29:30.385,7.125,15.3126
13:29:30.414,8.125,17.3126
13:29:30.417,9.625,20.8126
13:29:30.419,10.875,20.8751
13:29:30.425,11.25,22.3751
13:29:30.436,12,23.1251
13:29:30.445,12.4375,22.8751
13:29:30.455,12.625,23.3126
13:29:30.466,12.6875,21.8751
13:29:30.476,12.625,21.6251
13:29:30.485,13.2501,20.8126
13:29:30.496,11.6875,20.1876
13:29:30.505,11.5,19.2501
13:29:30.536,11.375,17.5001
13:29:30.539,9.75,15.3751
13:29:30.540,9.9375,15.1876
13:29:30.547,10.1875,14.5626
13:29:30.583,9.75,13.3751
13:29:30.586,10,12.25
13:29:30.588,10.0625,11.5
13:29:30.590,9.3125,10.75
13:29:30.595,8.5625,10.75
13:29:30.628,8.375,10.5625
13:29:30.630,7.75,10.0625
13:29:30.633,7.5625,9.4375
13:29:30.636,7.75,9.875
13:29:30.675,8.5,10.75
13:29:30.677,7.375,10.125
13:29:30.679,5.8125,8.0625
13:29:30.682,4.6875,7.75
13:29:30.687,3.25,7.9375
13:29:30.699,3.5625,5.9375
13:29:30.706,3.5625,5.5
13:29:30.718,2.875,4.3125
13:29:30.725,3.375,4.0625
13:29:30.735,3.5625,4.1875
13:29:30.748,4.0625,2.4375
13:29:30.756,3.25,1.25
13:29:30.766,2.125,0.0625
13:29:30.776,1.875,0
13:29:30.786,2.375,-1.875
13:29:30.796,1.0625,-2.9375
13:29:30.806,1,-2.6875
13:29:30.816,0.4375,-4.9375
13:29:30.826,0.875,-6.1875
13:29:30.836,0,-7.3125
13:29:30.846,-1.125,-7
13:29:30.857,-0.8125,-9.25
13:29:30.865,-1.75,-11.1875
13:29:30.876,-2.25,-10.8125
13:29:30.887,-1.8125,-12.3125
13:29:30.896,-2.625,-13.1876
13:29:30.906,-2.8125,-14.7501
13:29:30.918,-2.375,-14.1251
13:29:30.925,-1.875,-15.0001
13:29:30.936,-1.5625,-15.3126
13:29:30.946,-2.0625,-14.9376
13:29:30.955,-1.5,-16.3751
13:29:30.966,-2.3125,-17.7501
13:29:30.975,-1.9375,-17.3751
13:29:30.986,-2.75,-18.8126
13:29:30.997,-2.6875,-18.5001
13:29:31.005,-2.9375,-19.9376
13:29:31.015,-4.0625,-21.0001
13:29:31.026,-3.875,-22.4376
13:29:31.036,-4.5,-22.6251
13:29:31.045,-4.9375,-23.8751
13:29:31.057,-4.3125,-24.0001
13:29:31.066,-4.75,-24.5626
13:29:31.075,-5.8125,-26.5626
13:29:31.089,-5.5625,-27.0001
13:29:31.095,-6.375,-26.7501
13:29:31.107,-5.1875,-25.3751
13:29:31.118,-3.4375,-21.5626
13:29:31.125,0,-16.3126
13:29:31.136,1.875,-9.25
13:29:31.146,5.0625,-3.0625
13:29:31.156,7.3125,2.375
13:29:31.167,9.5,8.375
13:29:31.176,10.1875,12.5625
13:29:31.185,11.5625,15.1876
13:29:31.197,10.125,16.9376
13:29:31.215,10.25,17.9376
13:29:31.217,8.125,17.5001
13:29:31.250,6.5625,15.6876
13:29:31.253,3.1875,13.6876
13:29:31.287,0.8125,10.5
13:29:31.290,-3.25,7.9375
13:29:31.319,-5.5,4.6875
13:29:31.319,-8.9375,1.8125
13:29:31.319,-12.3125,-0.9375
13:29:31.353,-17.8126,-6.0625
13:29:31.392,-22.6251,-11.5
13:29:31.393,-29.5001,-18.0001
13:29:31.395,-34.0626,-22.1251
13:29:31.395,-38.7501,-27.0626
13:29:31.397,-45.0002,-34.1251
13:29:31.399,-45.9377,-34.7501
13:29:31.404,-59.2502,-44.8752
13:29:31.404,-69.1878,-56.4377
13:29:31.407,-79.6878,-65.8753
13:29:31.419,-89.8128,-74.4378
13:29:31.427,-102.5004,-84.5628
13:29:31.435,-115.5004,-96.3129
13:29:31.445,-130.0005,-108.5004
13:29:31.463,-143.0005,-119.563
13:29:31.468,-149.6881,-127.5005
13:29:31.477,-156.9381,-127.438
13:29:31.486,-175.2507,-144.063
13:29:31.498,-194.8757,-160.0631
13:29:31.507,-220.3133,-180.5007
13:29:31.516,-253.4385,-211.3758
13:29:31.527,-313.9387,-264.376
13:29:31.537,-315.5012,-266.4385
13:29:31.553,-315.4387,-266.751
13:29:31.560,-317.0637,-266.6885
13:29:31.568,-316.2512,-267.5635
13:29:31.577,-312.5637,-264.251
13:29:31.592,-311.1262,-262.0635
13:29:31.600,-309.3137,-262.001
13:29:31.606,-308.0012,-258.8135
13:29:31.617,-307.8762,-260.501
13:29:31.629,-305.5012,-258.001
13:29:31.636,-303.8762,-256.4385
13:29:31.647,-302.3762,-257.001
13:29:31.660,-301.6887,-255.0635
13:29:31.665,-300.6262,-256.0635
13:29:31.695,-296.5011,-254.251
13:29:31.697,-292.7511,-251.1885
13:29:31.699,-286.8136,-248.2509
13:29:31.707,-283.0011,-244.0634
13:29:31.717,-279.5011,-242.8134
13:29:31.725,-274.6885,-238.6884
13:29:31.737,-270.501,-236.6259
13:29:31.747,-266.251,-233.3134
13:29:31.757,-262.126,-230.2509
13:29:31.767,-259.751,-228.6884
13:29:31.779,-257.251,-226.6884
13:29:31.786,-255.001,-225.9384
13:29:31.798,-247.8134,-221.5634
13:29:31.807,-242.4384,-217.0633
13:29:31.817,-229.3134,-206.1258
13:29:31.829,-220.5009,-197.9383
13:29:31.845,-223.6259,-198.6258
13:29:31.846,-232.1259,-208.5633
13:29:31.858,-249.5634,-224.5634
13:29:31.867,-277.5011,-251.0634
13:29:31.878,-303.5637,-280.0636
13:29:31.887,-323.6262,-302.5012
13:29:31.897,-333.2513,-313.9387
13:29:31.909,-337.1263,-321.7512
13:29:31.915,-338.5013,-323.9387
13:29:31.927,-343.5638,-329.3763
13:29:31.937,-351.1888,-339.0013
13:29:31.947,-355.8138,-344.1888
13:29:31.958,-358.9389,-349.1263
13:29:31.970,-364.3139,-354.6263
13:29:31.977,-371.0014,-358.7514
13:29:32.008,-379.939,-366.0014
13:29:32.009,-388.189,-372.5014
13:29:32.011,-393.314,-373.1264
13:29:32.017,-395.814,-372.3139
13:29:32.054,-394.2515,-366.6264
13:29:32.057,-394.814,-362.2514
13:29:32.059,-400.1265,-363.7514
13:29:32.062,-403.064,-361.3139
13:29:32.067,-399.814,-357.7513
13:29:32.109,-393.1265,-349.6263
13:29:32.113,-382.564,-337.5638
13:29:32.115,-369.3139,-323.5637
13:29:32.117,-354.5013,-309.0012
13:29:32.119,-342.1888,-295.0636
13:29:32.155,-327.6888,-282.6886
13:29:32.156,-310.9387,-264.8135
13:29:32.159,-291.1261,-248.2509
13:29:32.163,-269.6885,-228.1259
13:29:32.171,-241.5634,-203.2508
13:29:32.180,-212.8758,-176.8132
13:29:32.187,-182.1882,-147.9381
13:29:32.197,-159.5006,-125.8755
13:29:32.207,-164.8131,-127.6255
13:29:32.217,-192.0632,-153.4381
13:29:32.229,-216.3758,-181.5007
13:29:32.237,-229.1884,-196.3132
13:29:32.247,-230.6259,-202.8133
13:29:32.257,-218.6883,-193.1257
13:29:32.266,-207.8758,-180.1257
13:29:32.280,-198.7508,-171.5007
13:29:32.287,-192.0007,-163.4381
13:29:32.297,-193.2507,-160.0631
13:29:32.307,-195.0007,-162.4381
13:29:32.317,-202.6883,-166.3131
13:29:32.327,-214.4383,-176.1257
13:29:32.337,-227.0634,-187.6882
13:29:32.347,-245.6259,-204.5633
13:29:32.357,-262.3135,-220.2508
13:29:32.367,-270.0635,-227.5634
13:29:32.378,-280.7511,-236.1884
13:29:32.387,-289.6261,-244.0009
13:29:32.397,-291.6886,-246.8759
13:29:32.407,-288.7511,-243.5634
13:29:32.417,-275.8135,-233.3759
13:29:32.428,-253.8135,-211.5008
13:29:32.437,-233.8134,-192.7507
13:29:32.447,-217.9383,-177.1882
13:29:32.457,-207.5633,-167.2506
13:29:32.466,-196.7508,-156.6881
13:29:32.478,-182.6257,-145.438
13:29:32.486,-162.8131,-128.563
13:29:32.497,-139.688,-107.8754
13:29:32.507,-112.3129,-82.5628
13:29:32.517,-86.3128,-60.2502
13:29:32.529,-71.6253,-45.3127
13:29:32.537,-75.6878,-49.3752
13:29:32.547,-88.8753,-60.8127
13:29:32.557,-120.5005,-92.6879
13:29:32.566,-145.438,-120.7505
13:29:32.579,-159.1256,-138.7505
13:29:32.593,-164.1881,-148.3131
13:29:32.596,-153.6881,-141.5005
13:29:32.607,-134.438,-123.563
