timestamp,Red,IR
12:34:58.715,4.25,13.4376
12:34:58.744,3.5,12.5625
12:34:58.747,2.6875,11.8125
12:34:58.752,1.8125,11.125
12:34:58.756,2.0625,10
12:34:58.765,1.9375,8.3125
12:34:58.775,2.1875,7.6875
12:34:58.786,2.8125,7.375
12:34:58.797,2.75,6.5625
12:34:58.806,2.125,5
12:34:58.815,1.0625,3.6875
12:34:58.826,0.5,3.625
12:34:58.835,-0.0625,3.1875
12:34:58.845,0.8125,2.25
12:34:58.855,1,3.625
12:34:58.865,1.4375,3.6875
12:34:58.875,2.125,3.375
12:34:58.885,1.875,3.625
12:34:58.896,1.4375,4.0625
12:34:58.905,2.1875,3.0625
12:34:58.915,1.75,1.9375
12:34:58.925,1.6875,2.4375
12:34:58.935,1.5,2.0625
12:34:58.946,1.5,0.875
12:34:58.956,1.125,-0.8125
12:34:58.965,1.5625,0.375
12:34:58.975,2.1875,-0.0625
12:34:58.985,1.625,-0.4375
12:34:58.995,1.625,-1
12:34:59.005,2.5,-1.9375
12:34:59.021,2.5625,-2.625
12:34:59.026,1.5,-3
12:34:59.035,1,-2.875
12:34:59.046,1.1875,-4.125
12:34:59.078,1.4375,-5.8125
12:34:59.082,0.5625,-5.625
12:34:59.085,1.375,-5.625
12:34:59.086,-0.5625,-7.75
12:34:59.116,-1.5625,-7.25
12:34:59.119,-2.6875,-8.375
12:34:59.120,-3.25,-10.875
12:34:59.126,-3.375,-10.375
12:34:59.135,-2.875,-10
12:34:59.146,-3.25,-10.6875
12:34:59.155,-1.875,-10.5625
12:34:59.166,-2.875,-10.625
12:34:59.176,-3.8125,-11.4375
12:34:59.188,-4.875,-13.5001
12:34:59.222,-5.5,-12.3125
12:34:59.223,-4.875,-14.4376
12:34:59.224,-5.0625,-15.3751
12:34:59.226,-4.4375,-13.7501
12:34:59.258,-3,-13.9376
12:34:59.260,-3.75,-14.1876
12:34:59.264,-3.1875,-15.0626
12:34:59.268,-4.3125,-15.5001
12:34:59.303,-4.25,-15.5626
12:34:59.305,-4.6875,-16.3126
12:34:59.308,-4.375,-17.0626
12:34:59.313,-5,-17.0001
12:34:59.316,-3.9375,-16.2501
12:34:59.349,-2.25,-14.0001
12:34:59.352,1.4375,-10.0625
12:34:59.353,4.9375,-3.8125
12:34:59.358,9.3125,3.6875
12:34:59.374,11.5,10.4375
12:34:59.377,13.6876,15.9376
12:34:59.385,16.0001,20.5001
12:34:59.396,16.3126,21.8126
12:34:59.406,16.8751,22.9376
12:34:59.415,15.5626,24.2501
12:34:59.425,15.4376,21.7501
12:34:59.437,13.6251,20.8126
12:34:59.445,13.9376,19.0001
12:34:59.455,13.0625,18.1251
12:34:59.466,12.25,18.2501
12:34:59.476,12.1875,17.7501
12:34:59.485,12.9375,19.3126
12:34:59.497,13.7501,19.3126
12:34:59.506,13.7501,19.4376
12:34:59.517,13.5001,21.1876
12:34:59.525,13.8751,21.1876
12:34:59.535,13.8751,20.3751
12:34:59.546,13.4376,20.8126
12:34:59.558,12.3125,21.1251
12:34:59.566,12,19.0001
12:34:59.575,11.375,17.4376
12:34:59.586,10.4375,17.5001
12:34:59.596,9.8125,15.5626
12:34:59.612,9.5,13.8751
12:34:59.622,8.5,12.25
12:34:59.630,7.1875,10.875
12:34:59.640,7.3125,8.75
12:34:59.652,6.4375,7.25
12:34:59.662,5.875,8.75
12:34:59.670,6.5,8
12:34:59.681,6.4375,6.6875
12:34:59.692,6.25,7.4375
12:34:59.702,7.0625,9
12:34:59.711,6.8125,7.875
12:34:59.721,5.9375,5.875
12:34:59.730,5.625,6.625
12:34:59.741,4.75,6.75
12:34:59.751,4.5625,4.3125
12:34:59.761,3.4375,4.5
12:34:59.778,4.625,5.375
12:34:59.780,5.375,3.6875
12:34:59.791,5.5,3.1875
12:34:59.800,5.6875,4.3125
12:34:59.810,6,3.875
12:34:59.821,5.8125,2.25
12:34:59.832,4.625,0.375
12:34:59.842,3.5625,0.375
12:34:59.850,2.125,-0.625
12:34:59.861,1.3125,-2.6875
12:34:59.870,0.75,-4.5625
12:34:59.880,0.5,-5.125
12:34:59.891,0.0625,-5.0625
12:34:59.900,-0.5625,-7.4375
12:34:59.911,-1.8125,-7.0625
12:34:59.921,-2.1875,-8.5
12:34:59.956,-3,-9.4375
12:34:59.957,-3.1875,-9
12:34:59.963,-2.8125,-9
12:34:59.966,-2.1875,-9.875
12:35:00.005,-1.5625,-9.5
12:35:00.007,-2.4375,-7.9375
12:35:00.008,-2.375,-9.0625
12:35:00.037,-2.0625,-10.25
12:35:00.038,-2.375,-11.3125
12:35:00.038,-2.875,-11.1875
12:35:00.052,-3.9375,-12.9375
12:35:00.080,-4.9375,-12.6875
12:35:00.083,-5,-13.7501
12:35:00.085,-5.0625,-14.5001
12:35:00.088,-5.75,-14.8126
12:35:00.102,-5,-16.1876
12:35:00.107,-6,-15.3751
12:35:00.118,-6.125,-17.4376
12:35:00.125,-7.3125,-18.3751
12:35:00.136,-6.8125,-17.1876
12:35:00.153,-6.5,-17.1876
12:35:00.156,-3.375,-13.1876
12:35:00.166,-0.5,-7.625
12:35:00.175,2.75,-0.9375
12:35:00.186,5.5,6.8125
12:35:00.197,7.6875,10.5
12:35:00.206,8.6875,16.3751
12:35:00.217,8.3125,16.0001
12:35:00.226,8.5,16.6251
12:35:00.235,8.1875,15.5626
12:35:00.247,7.5,15.7501
12:35:00.257,6.8125,14.6251
12:35:00.265,6.5625,13.8751
12:35:00.276,4.5,12.3125
12:35:00.286,3.9375,10.9375
12:35:00.295,1.9375,9.75
12:35:00.306,1.75,9.25
12:35:00.316,1.75,9.3125
12:35:00.325,1.5,9.875
12:35:00.336,2.375,9.375
12:35:00.346,1.375,10.9375
12:35:00.358,2,9.6875
12:35:00.367,1.375,9.4375
12:35:00.384,0.3125,8.8125
12:35:00.386,-0.375,8.1875
12:35:00.401,-0.625,5.5
12:35:00.417,-1.5,3.6875
12:35:00.420,-1.875,2.875
12:35:00.435,-2.1875,0.3125
12:35:00.436,-2.75,-0.875
12:35:00.446,-2.25,1.125
12:35:00.456,-1.4375,-0.5625
12:35:00.466,-1.375,-0.3125
12:35:00.477,-1.4375,-0.25
12:35:00.486,-0.8125,0.5625
12:35:00.497,-0.5625,-0.3125
12:35:00.506,-1.4375,-0.25
12:35:00.517,-2.125,-0.0625
12:35:00.532,-2.3125,-2.5625
12:35:00.536,-3.25,-1.875
12:35:00.546,-3.125,-2.4375
12:35:00.556,-2.1875,-2.6875
12:35:00.566,-1.5,-2.625
12:35:00.576,-1.125,-2.875
12:35:00.587,0,-2.1875
12:35:00.596,-0.375,-3.6875
12:35:00.608,-1.25,-2.75
12:35:00.616,-1.25,-4.4375
12:35:00.626,-1.75,-4.75
12:35:00.636,-1.8125,-6.25
12:35:00.646,-2.375,-5.4375
12:35:00.673,-1.8125,-7.25
12:35:00.675,-2.3125,-7.0625
12:35:00.678,-1.375,-8.875
12:35:00.719,-1.6875,-8.125
12:35:00.721,-1.375,-8.8125
12:35:00.723,-1.125,-8.75
12:35:00.726,-1.5,-9.625
12:35:00.758,-0.4375,-8.75
12:35:00.759,0,-8
12:35:00.760,0.125,-7.5625
12:35:00.762,0.9375,-8.3125
12:35:00.770,0.5625,-7.8125
12:35:00.799,1,-9.5625
12:35:00.801,0.4375,-10.1875
12:35:00.804,0.25,-9
12:35:00.806,0.25,-10.0625
12:35:00.832,0,-10.6875
12:35:00.835,-0.625,-12.1875
12:35:00.838,-0.625,-11.8125
12:35:00.846,-0.5625,-12.875
12:35:00.856,-0.625,-13.3751
12:35:00.866,-1.3125,-13.1876
12:35:00.876,-1.125,-14.3751
12:35:00.886,-1.75,-15.0001
12:35:00.897,-2.375,-15.1251
12:35:00.907,-2.8125,-15.5001
12:35:00.917,-2.75,-14.6251
12:35:00.927,-1,-11.5
12:35:00.936,2.9375,-7.3125
12:35:00.946,5.3125,-1
12:35:00.956,9.375,7.0625
12:35:00.966,12.6875,12.4375
12:35:00.977,15.2501,18.1251
12:35:00.986,16.3126,19.7501
12:35:00.996,16.5001,21.2501
12:35:01.006,15.9376,21.3751
12:35:01.018,15.4376,21.8751
12:35:01.026,14.7501,19.3751
12:35:01.036,13.8751,19.8126
12:35:01.046,12.9375,18.3751
12:35:01.056,12.9375,16.7501
12:35:01.066,12,16.8126
12:35:01.076,11.5,17.0001
12:35:01.087,12.25,17.4376
12:35:01.097,11.8125,17.6876
12:35:01.106,11.8125,19.1251
12:35:01.116,12.25,19.0001
12:35:01.126,12.1875,17.8751
12:35:01.136,11.3125,19.9376
12:35:01.149,12.625,18.7501
12:35:01.158,11.375,18.0626
12:35:01.166,10.375,17.4376
12:35:01.176,9.625,15.4376
12:35:01.186,8.5,12.8125
12:35:01.197,6.625,9.6875
12:35:01.206,5.5625,8.9375
12:35:01.216,5.8125,7.9375
12:35:01.226,6.375,6.6875
12:35:01.236,5.3125,5.75
12:35:01.248,4.9375,5.625
12:35:01.258,4.625,5.375
12:35:01.267,4.625,5.6875
12:35:01.305,4.75,4.5625
12:35:01.306,4.625,5.25
12:35:01.309,4.6875,6.5625
12:35:01.315,4.9375,4.9375
12:35:01.320,3.875,5.3125
12:35:01.326,4.5,5.125
12:35:01.337,5.125,4.9375
12:35:01.348,5.0625,4.1875
12:35:01.356,5.25,4.3125
12:35:01.367,5.125,5.125
12:35:01.377,5.8125,4.1875
12:35:01.386,6.75,3.4375
12:35:01.397,6.3125,2.0625
12:35:01.406,5.875,1.0625
12:35:01.416,5.875,2.875
12:35:01.437,7.0625,1
12:35:01.440,5.8125,-0.125
12:35:01.468,6.0625,1.0625
12:35:01.470,6.25,0.3125
12:35:01.472,7.25,0.5625
12:35:01.476,7.6875,-0.5
12:35:01.506,7.4375,0.125
12:35:01.508,7.6875,0.375
12:35:01.510,8.25,-0.5
12:35:01.518,7.8125,-1.0625
12:35:01.555,7.9375,-1.5625
12:35:01.557,7.5,-1.375
12:35:01.559,8,-2.125
12:35:01.585,8.375,-3.125
12:35:01.587,7.8125,-4.0625
12:35:01.588,7.0625,-3.6875
12:35:01.594,5.5625,-5.875
12:35:01.596,4.5,-6.5
12:35:01.612,3.6875,-7.125
12:35:01.616,3.9375,-8.0625
12:35:01.626,3.75,-9.3125
12:35:01.636,2.9375,-9.8125
12:35:01.646,3.75,-10.0625
12:35:01.656,3.375,-10
12:35:01.667,2.875,-8.5
12:35:01.676,3.125,-9.8125
12:35:01.696,3.875,-9.3125
12:35:01.704,6,-5.3125
12:35:01.707,9.75,-0.375
12:35:01.735,12.1875,5.8125
12:35:01.737,14.9376,11.25
12:35:01.753,16.7501,17.4376
12:35:01.758,18.8126,22.3126
12:35:01.759,20.5001,25.1876
12:35:01.766,21.5626,26.1251
12:35:01.776,21.4376,25.1251
12:35:01.786,20.1251,26.8126
12:35:01.797,19.1251,24.0626
12:35:01.806,17.9376,22.1251
12:35:01.816,16.5001,21.1876
12:35:01.826,15.8126,20.0001
12:35:01.837,14.8126,18.8751
12:35:01.846,13.3126,17.4376
12:35:01.856,13.1876,18.7501
12:35:01.866,13.6251,19.1876
12:35:01.876,13.8126,19.0001
12:35:01.887,13.9376,19.8751
12:35:01.897,13.6876,19.7501
12:35:01.906,13.6876,20.0001
12:35:01.917,13.5001,20.0626
12:35:01.926,14.2501,20.5001
12:35:01.936,12.9375,18.5001
12:35:01.946,11.8125,16.7501
12:35:01.958,11.625,16.1251
12:35:01.966,11.4375,13.3126
12:35:01.976,9.9375,11.0625
12:35:01.988,9.125,10.1875
12:35:01.996,8.375,9.125
12:35:02.006,8,8.6875
12:35:02.016,7.75,7.125
12:35:02.033,7.5,6.5625
12:35:02.038,7.0625,7.5
12:35:02.046,7.8125,7.375
12:35:02.057,8.125,6.4375
12:35:02.066,7.6875,6.5
12:35:02.076,7.25,7.625
12:35:02.086,7.125,5.5625
12:35:02.096,6.125,4.4375
12:35:02.106,6.3125,4.5
12:35:02.116,6.0625,4.5
12:35:02.136,5.0625,4.8125
12:35:02.138,5.3125,2.1875
12:35:02.179,5.125,2.3125
12:35:02.180,5.25,2.25
12:35:02.186,5.625,1.8125
12:35:02.186,5.75,1.0625
12:35:02.190,4.8125,-1
12:35:02.220,4.5,0
12:35:02.223,4.8125,-1.5625
12:35:02.225,5.0625,-1.6875
12:35:02.234,5.125,-2.625
12:35:02.242,5.4375,-2.625
12:35:02.249,4.9375,-3.5625
12:35:02.283,4.1875,-2.6875
12:35:02.285,4.6875,-4.25
12:35:02.289,3.75,-5.4375
12:35:02.294,3.5625,-4.625
12:35:02.297,3.75,-5.375
12:35:02.310,4.0625,-6.375
12:35:02.316,3.375,-5.4375
12:35:02.327,3.5,-5.75
12:35:02.336,3.1875,-6.75
12:35:02.346,2.875,-8.625
12:35:02.356,1.5,-9.125
12:35:02.366,0.9375,-8.8125
12:35:02.376,0.1875,-10.75
12:35:02.386,-0.125,-12.5
12:35:02.396,-1.375,-12.625
12:35:02.406,-1.3125,-12.1875
12:35:02.416,-0.75,-13.1251
12:35:02.426,0.25,-12
12:35:02.437,2.5625,-8.25
12:35:02.446,6.0625,-3
12:35:02.456,8.1875,3.0625
12:35:02.466,11.375,9.5
12:35:02.477,12.875,13.6251
12:35:02.486,14.3126,17.0626
12:35:02.496,15.1876,20.1876
12:35:02.506,16.2501,21.5626
12:35:02.517,15.2501,21.9376
12:35:02.526,15.9376,21.3751
12:35:02.536,14.2501,19.8751
12:35:02.546,12.9375,19.8126
12:35:02.556,11.75,18.0626
12:35:02.586,10.9375,16.1251
12:35:02.588,10.8125,16.3126
12:35:02.590,10.8125,16.5626
12:35:02.598,10.6875,16.7501
12:35:02.607,11.8125,17.3126
12:35:02.617,11.6875,17.1876
12:35:02.626,11.25,19.4376
12:35:02.636,11.875,18.3126
12:35:02.646,11.375,18.0626
12:35:02.656,11.125,19.0626
12:35:02.666,11.4375,18.1876
12:35:02.677,9.75,15.5626
12:35:02.686,8.8125,13.8751
12:35:02.696,8.75,13.8126
12:35:02.706,7.875,11.4375
12:35:02.716,7.4375,9.6875
12:35:02.726,6.3125,7.75
12:35:02.736,5.5,5.75
12:35:02.747,4.75,7.1875
12:35:02.756,5.0625,6.5
12:35:02.766,5.75,5.8125
12:35:02.778,6.1875,6.375
12:35:02.789,5.6875,5.9375
12:35:02.796,6.25,6.5
12:35:02.806,5.5,6.625
12:35:02.817,5.5,5.25
12:35:02.826,4.625,4.4375
12:35:02.837,4.3125,3.125
12:35:02.846,3.4375,3.5625
12:35:02.856,3.375,2
12:35:02.868,2.625,1.625
12:35:02.876,2.1875,1.0625
12:35:02.886,2.5625,0.875
12:35:02.896,2.8125,0
12:35:02.906,2.375,-0.8125
12:35:02.916,2,-1.9375
12:35:02.927,1.8125,-3.3125
12:35:02.936,1.5625,-3.125
12:35:02.963,1.4375,-3.9375
12:35:02.965,-0.0625,-6.125
12:35:02.968,-1.5,-6.375
12:35:03.004,-1.9375,-7.0625
12:35:03.072,-1.625,-8.1875
12:35:03.074,-1.875,-8.9375
12:35:03.077,-2.4375,-10.3125
12:35:03.121,-2.75,-9.4375
12:35:03.121,-1.5625,-10.0625
12:35:03.121,-2.6875,-10.9375
12:35:03.136,-3.125,-10.8125
12:35:03.150,-2.9375,-11.125
12:35:03.155,-4.1875,-11.875
12:35:03.158,-4.125,-12.625
12:35:03.166,-4.1875,-13.0625
12:35:03.176,-4.25,-13.6251
12:35:03.186,-4.1875,-14.2501
12:35:03.197,-4.625,-14.1876
12:35:03.206,-4.5625,-15.3751
12:35:03.216,-5.5,-16.1251
12:35:03.226,-5.4375,-16.3126
12:35:03.236,-7,-17.0001
12:35:03.246,-7.5625,-17.3751
12:35:03.256,-6.875,-18.3126
12:35:03.266,-6.75,-19.3126
12:35:03.276,-6.875,-19.4376
12:35:03.286,-11.1875,-27.8751
12:35:03.296,-12,-28.3126
12:35:03.307,-13.125,-28.1876
12:35:03.316,-12.4375,-29.1251
12:35:03.326,-12.5,-26.8751
12:35:03.336,-10.5625,-25.0001
12:35:03.346,-7.5,-19.0001
12:35:03.358,-4.1875,-13
12:35:03.368,-1.3125,-4.4375
12:35:03.376,2.6875,0.9375
12:35:03.386,4.3125,6.25
12:35:03.396,5.5,9.9375
12:35:03.406,6.5625,11.375
12:35:03.416,6.375,12.1875
12:35:03.426,6.625,11.6875
12:35:03.436,5.1875,11.125
12:35:03.447,5,9.0625
12:35:03.456,4.125,8.5625
12:35:03.466,4.1875,8.1875
12:35:03.476,4.1875,7.375
12:35:03.486,3.75,8.8125
12:35:03.496,4.4375,8.1875
12:35:03.506,3.875,8.4375
12:35:03.516,5.125,9.6875
12:35:03.532,5.5,9.9375
12:35:03.537,6.0625,11
12:35:03.546,6.8125,11.5
12:35:03.556,5.8125,10.75
12:35:03.566,5.1875,11.5
12:35:03.576,5.8125,11.5
12:35:03.587,5.5625,9.9375
12:35:03.597,5.5625,9
12:35:03.606,5.1875,6.9375
12:35:03.633,3.125,5.9375
12:35:03.637,3.4375,4.0625
12:35:03.639,2.5625,2.9375
12:35:03.678,2.625,1.1875
12:35:03.679,2.5625,2.8125
12:35:03.681,3.875,2.4375
12:35:03.686,4.0625,2.625
12:35:03.690,4.4375,2.5
12:35:03.714,4.3125,3.5
12:35:03.716,4.25,2.9375
12:35:03.745,5.25,2.625
12:35:03.746,4.25,2
12:35:03.748,3.5625,2.1875
12:35:03.763,3.5,1.25
12:35:03.769,3.5625,0.625
12:35:03.773,3.25,-0.5625
12:35:03.795,2,-0.5625
12:35:03.798,1.75,-0.625
12:35:03.804,2.125,-2.3125
12:35:03.811,1.6875,-3.875
12:35:03.821,2,-3.0625
12:35:03.832,1.9375,-4
12:35:03.864,2.4375,-4.3125
12:35:03.866,2.25,-5.375
12:35:03.870,1.625,-6.625
12:35:03.874,1.8125,-7.1875
12:35:03.883,1.9375,-7.8125
12:35:03.891,1.125,-7.3125
12:35:03.908,1.3125,-8.125
12:35:03.913,1.5625,-9.1875
12:35:03.921,0.9375,-9.8125
12:35:03.931,0.375,-10.6875
12:35:03.942,0.25,-9.625
12:35:03.951,0.375,-10.75
12:35:03.962,-0.125,-10.875
12:35:03.971,1.0625,-10.75
12:35:03.981,0.375,-11.0625
12:35:03.991,0.25,-10.3125
12:35:04.001,2.5,-10.75
12:35:04.013,2.5625,-8.75
12:35:04.021,3.25,-9.3125
12:35:04.031,2.9375,-11.25
12:35:04.041,2,-11
12:35:04.051,1.5625,-12.8125
12:35:04.061,0.1875,-13.0625
12:35:04.072,-0.375,-12.5625
12:35:04.081,0,-14.1251
12:35:04.092,-0.375,-15.1876
12:35:04.102,-0.375,-14.5001
12:35:04.112,-1,-15.7501
12:35:04.121,-0.5,-15.2501
12:35:04.132,-1.3125,-17.0001
12:35:04.141,-1.625,-16.2501
12:35:04.151,-1.9375,-17.4376
12:35:04.162,-2.4375,-17.2501
12:35:04.171,-2.5625,-18.4376
12:35:04.181,-3.6875,-19.4376
12:35:04.192,-3.25,-19.4376
12:35:04.201,-3.25,-19.0001
12:35:04.211,-3.75,-19.3126
12:35:04.221,-3.75,-20.6876
12:35:04.231,-4.25,-20.5001
12:35:04.241,-4.0625,-21.8126
12:35:04.251,-5.4375,-20.7501
12:35:04.262,-4.3125,-20.6876
12:35:04.271,-2.875,-16.6251
12:35:04.284,-0.4375,-11.75
12:35:04.293,3.5625,-5.25
12:35:04.301,6.75,2.9375
12:35:04.312,10.0625,8.1875
12:35:04.321,12.125,14.3751
12:35:04.331,13.5626,16.4376
12:35:04.341,14.5001,19.0001
12:35:04.352,13.3751,18.0626
12:35:04.362,12.5,17.1251
12:35:04.372,10.9375,14.6251
12:35:04.389,10.125,14.3751
12:35:04.460,9.625,12.25
12:35:04.461,8.6875,12.3125
12:35:04.463,8.125,10.5625
12:35:04.463,8.6875,12
12:35:04.464,8.375,10.5625
12:35:04.465,7.875,12.1875
12:35:04.497,7.625,10.0625
12:35:04.533,7.3125,10.5
12:35:04.533,8,11.5625
12:35:04.533,7.4375,10.5
12:35:04.536,7.6875,12.0625
12:35:04.541,8.0625,11.75
12:35:04.572,8.0625,10.4375
12:35:04.574,7.875,10.25
12:35:04.575,8,9.6875
12:35:04.589,7.375,7.5
12:35:04.594,6.9375,6.6875
12:35:04.597,6.8125,5.6875
12:35:04.597,6.9375,4.6875
12:35:04.602,6.8125,5.1875
12:35:04.612,6.875,4.8125
12:35:04.621,7.375,4.125
12:35:04.631,7.4375,4
12:35:04.641,6.625,3.5
12:35:04.657,6.6875,3.8125
12:35:04.661,7.375,2.9375
12:35:04.672,7.5,3.5625
12:35:04.681,7,3.9375
12:35:04.691,7.1875,2.4375
12:35:04.701,6.8125,1.875
12:35:04.711,5.375,1
12:35:04.721,4.9375,0.3125
12:35:04.731,4.4375,-1
12:35:04.743,3.5625,-2.125
12:35:04.803,3.1875,-3.875
12:35:04.806,2.125,-5
12:35:04.808,2.25,-5
12:35:04.812,2.625,-6.5
12:35:04.812,2,-7.5625
12:35:04.817,1.0625,-7.0625
12:35:04.826,1.8125,-8.125
12:35:04.837,1.875,-8.875
12:35:04.846,1.75,-9
12:35:04.856,2,-8.75
12:35:04.868,2,-9.5625
12:35:04.876,2.125,-9.75
12:35:04.886,2.6875,-9.5
12:35:04.896,2.1875,-10.375
12:35:04.906,1.4375,-9.5625
12:35:04.921,1.0625,-11.125
12:35:04.929,0.625,-11.9375
12:35:04.936,1.4375,-10.9375
12:35:04.946,1.4375,-11.375
12:35:04.957,1,-13.0625
12:35:04.967,0.125,-13.5626
12:35:04.977,0.5625,-14.1251
12:35:04.986,0.8125,-15.1251
12:35:04.996,1.6875,-13.8126
12:35:05.007,1.6875,-14.5001
12:35:05.016,1.625,-14.5626
12:35:05.033,1.1875,-14.8126
12:35:05.059,1.625,-16.3751
12:35:05.061,1.5,-15.4376
12:35:05.065,2,-15.9376
12:35:05.067,2.375,-16.8751
12:35:05.106,2.3125,-16.0001
12:35:05.108,3.5625,-15.1876
12:35:05.110,4.6875,-14.6876
12:35:05.115,5.5,-10.375
12:35:05.116,8.75,-7.4375
12:35:05.144,11.25,-0.5
12:35:05.146,15.2501,6.0625
12:35:05.149,17.6251,12.125
12:35:05.180,18.7501,16.8126
12:35:05.181,19.5001,21.1251
12:35:05.185,20.9376,21.9376
12:35:05.189,20.1876,24.5001
12:35:05.220,19.7501,22.6876
12:35:05.222,19.8751,21.5626
12:35:05.225,19.1251,20.6876
12:35:05.228,18.0626,19.6876
12:35:05.236,16.6251,18.0626
12:35:05.248,15.4376,18.3751
12:35:05.256,15.4376,16.8751
12:35:05.266,15.7501,16.9376
12:35:05.276,14.4376,16.3751
12:35:05.287,14.3751,15.3751
12:35:05.296,15.0626,16.3751
12:35:05.308,14.5626,16.9376
12:35:05.318,13.8751,15.8751
12:35:05.351,13.9376,16.1251
12:35:05.354,13.8126,16.1251
12:35:05.356,13.6876,16.7501
12:35:05.363,14.1251,15.0626
12:35:05.368,13.0625,13.0625
12:35:05.376,12.75,13
12:35:05.388,12.375,12.8125
12:35:05.397,12.0625,9.4375
12:35:05.410,10.875,8.3125
12:35:05.417,10.5,6.875
12:35:05.427,10.1875,5.6875
12:35:05.436,9.5625,5
12:35:05.447,9.5,5.5
12:35:05.458,9.6875,4.5
12:35:05.467,8.875,4.6875
12:35:05.476,9,4.625
12:35:05.489,8.9375,3.75
12:35:05.496,7.5,1.9375
12:35:05.506,7.1875,3.4375
12:35:05.517,6.8125,2.3125
12:35:05.526,6,1.0625
12:35:05.536,5.25,0.6875
12:35:05.547,4.4375,-0.375
12:35:05.558,4,-2
12:35:05.567,2.1875,-4.8125
12:35:05.577,1.375,-4.625
12:35:05.587,0.625,-5.6875
12:35:05.597,0.875,-7.25
12:35:05.606,-0.5625,-9.125
12:35:05.617,-0.5625,-8.3125
12:35:05.626,-1,-10.5625
12:35:05.637,-1.3125,-10.3125
12:35:05.646,-2.25,-11.1875
12:35:05.657,-2.75,-12.4375
12:35:05.666,-4.1875,-14.7501
12:35:05.677,-5.5625,-14.3751
12:35:05.687,-5.5625,-15.8126
12:35:05.698,-7.5,-17.3126
12:35:05.707,-8.125,-18.6876
12:35:05.718,-9.6875,-20.0001
12:35:05.726,-11.0625,-20.5001
12:35:05.740,-10.625,-21.3751
12:35:05.746,-11.3125,-21.9376
12:35:05.762,-11.25,-21.5001
12:35:05.767,-11.5,-23.0001
12:35:05.777,-10.875,-22.5626
12:35:05.786,-10.4375,-22.1876
12:35:05.851,-10.125,-22.5001
12:35:05.852,-8.5625,-21.6251
12:35:05.854,-7.875,-20.6251
12:35:05.857,-7.5,-21.0626
12:35:05.966,-6.5,-20.2501
12:35:05.995,-6.875,-21.0626
12:35:05.995,-6.625,-19.4376
12:35:05.995,-6.375,-21.0001
12:35:05.998,-6.375,-20.9376
12:35:06.000,-6.6875,-20.8751
12:35:06.005,-6.875,-21.4376
12:35:06.005,-6.6875,-21.8751
12:35:06.005,-6.8125,-22.1876
12:35:06.013,-6.0625,-21.9376
12:35:06.023,-5.6875,-21.9376
12:35:06.032,-5.4375,-21.3751
12:35:06.042,-5.3125,-21.4376
12:35:06.051,-5.6875,-22.3126
12:35:06.062,-5.625,-21.8126
12:35:06.072,-4.625,-20.0626
12:35:06.084,-3.8125,-19.5626
12:35:06.091,-1.1875,-16.0626
12:35:06.102,1.6875,-9.5625
12:35:06.111,4.875,-2.6875
12:35:06.123,12.0625,15.3751
12:35:06.133,11.5625,17.2501
12:35:06.142,11,17.8751
12:35:06.152,10.875,16.5626
12:35:06.168,9.3125,14.6251
12:35:06.174,1.1875,6.6875
12:35:06.181,0.3125,7.5
12:35:06.192,0.75,7.25
12:35:06.202,0.25,7.5
12:35:06.211,1.3125,8.25
12:35:06.224,1.0625,9.0625
12:35:06.233,1.3125,8.9375
12:35:06.242,0.5625,8.375
12:35:06.253,0.3125,6.75
12:35:06.264,-0.5625,6
12:35:06.273,-0.3125,4.5625
12:35:06.282,-1.625,2.25
12:35:06.293,-1.75,3
12:35:06.302,-1.25,0.9375
12:35:06.312,-0.75,-0.0625
12:35:06.322,-1.25,-0.1875
12:35:06.332,-1.875,-0.125
12:35:06.342,-1.3125,-1.6875
12:35:06.354,-1.4375,-1.75
12:35:06.362,-1.9375,-1.5
12:35:06.398,-0.75,-1.1875
12:35:06.400,-1.25,-1.125
12:35:06.402,-1.75,-0.8125
12:35:06.428,-1.3125,-0.6875
12:35:06.430,-1.0625,-1.875
12:35:06.435,-2.6875,-2.5625
12:35:06.437,-3.75,-3.8125
12:35:06.444,-3.6875,-4.75
12:35:06.452,-4.8125,-6.5
12:35:06.462,-5.3125,-6.3125
12:35:06.472,-6,-9.1875
12:35:06.482,-6.5,-8.625
12:35:06.492,-6.875,-10.8125
12:35:06.502,-6.75,-10.25
12:35:06.512,-7,-11.625
12:35:06.522,-7.5,-11.375
12:35:06.533,-7.5625,-13.6876
12:35:06.542,-7.75,-12.9375
12:35:06.580,-7.375,-13.8751
12:35:06.583,-7.625,-14.0626
12:35:06.585,-7.8125,-15.1876
12:35:06.592,-7.6875,-14.8751
12:35:06.593,-6.375,-14.4376
12:35:06.604,-6.375,-14.0001
12:35:06.636,-6.75,-14.4376
12:35:06.639,-6.875,-15.3126
12:35:06.641,-7.4375,-15.8126
12:35:06.644,-7.625,-16.4376
12:35:06.682,-7.5,-15.8126
12:35:06.684,-7.5625,-16.6251
12:35:06.687,-8.0625,-16.8751
12:35:06.693,-8.1875,-18.1251
12:35:06.696,-7.5625,-17.6876
12:35:06.706,-7.3125,-18.4376
12:35:06.715,-7.5,-16.8751
12:35:06.753,-6.5625,-17.6251
12:35:06.755,-6.4375,-17.5001
12:35:06.758,-6.625,-16.6251
12:35:06.762,-6.5625,-18.1876
12:35:06.764,-5.9375,-17.5626
12:35:06.783,-6.375,-18.6251
12:35:06.871,-5.875,-18.5001
12:35:06.871,-5.6875,-18.8126
12:35:06.874,-5.8125,-18.3126
12:35:06.876,-5.3125,-18.6251
12:35:06.884,-4.4375,-18.8126
12:35:06.885,-3.8125,-18.0626
12:35:06.885,-3.9375,-18.9376
12:35:06.894,-4.125,-18.1876
12:35:06.903,-5,-20.6251
12:35:06.917,-5.5,-19.5001
12:35:06.923,-4.125,-19.6876
12:35:06.932,-4.375,-18.0001
12:35:06.942,-2.5,-16.5001
12:35:06.952,0.6875,-11.125
12:35:06.963,4.5,-4.5
12:35:06.972,7.375,2.3125
12:35:06.983,10.75,10.0625
12:35:06.993,12.375,13.9376
12:35:07.003,13.7501,18.8126
12:35:07.013,14.3126,20.1251
12:35:07.022,14.0001,22.0626
12:35:07.032,13.8751,21.8751
12:35:07.042,14.5626,20.8751
12:35:07.053,11.3125,17.8126
12:35:07.062,10.1875,17.2501
12:35:07.073,10.6875,17.1251
12:35:07.083,10.0625,17.6876
12:35:07.092,11.0625,18.1251
12:35:07.102,10.6875,18.5001
12:35:07.114,10.875,19.3751
12:35:07.122,11.9375,19.0001
12:35:07.133,11.5625,19.1876
12:35:07.142,11.4375,20.4376
12:35:07.153,12.1875,19.3751
12:35:07.164,11.625,17.8126
12:35:07.183,10.9375,16.0626
12:35:07.189,10,14.3126
12:35:07.197,9.3125,14.2501
12:35:07.202,9.625,12.375
12:35:07.221,9.8125,11.75
12:35:07.226,9.9375,11.0625
12:35:07.233,9.125,11.75
12:35:07.243,10.4375,11.1875
12:35:07.263,9.9375,11.0625
12:35:07.265,10.0625,11.5
12:35:07.275,9.5,12
12:35:07.321,10.25,11.125
12:35:07.323,9.875,10.375
12:35:07.352,10.1875,10.6875
12:35:07.354,10.4375,10.8125
12:35:07.357,8.9375,8.5
12:35:07.362,7.5,6.625
12:35:07.362,6.625,7.375
12:35:07.362,5.4375,5.8125
12:35:07.368,5,3.75
12:35:07.406,3.3125,2.1875
12:35:07.408,2.4375,1.375
12:35:07.410,2.3125,0.6875
12:35:07.412,2.6875,-0.25
12:35:07.419,1.8125,-2.375
12:35:07.455,0.375,-2.75
12:35:07.456,-0.5625,-3.625
12:35:07.460,-0.75,-4.4375
12:35:07.461,-0.875,-6.1875
12:35:07.475,-2,-8.1875
12:35:07.477,-2.5,-8.1875
12:35:07.487,-2.4375,-7.125
12:35:07.498,-2.625,-8
12:35:07.507,-1.9375,-7.5
12:35:07.518,-2.125,-8.1875
12:35:07.527,-2.3125,-9.3125
12:35:07.537,-2.9375,-10.6875
12:35:07.548,-3.75,-10.875
12:35:07.557,-4.125,-11.1875
12:35:07.567,-3.5,-11.8125
12:35:07.577,-3.8125,-11.75
12:35:07.587,-3.4375,-11.3125
12:35:07.597,-2.6875,-11.625
12:35:07.608,-1.8125,-10.625
12:35:07.617,-1.3125,-12.0625
12:35:07.628,-1.875,-11.8125
12:35:07.637,-2.25,-13.3126
12:35:07.648,-2.625,-13.9376
12:35:07.657,-2.375,-13.3126
12:35:07.667,-2.5625,-14.1251
12:35:07.678,-1.625,-14.2501
12:35:07.705,-2,-13.8751
12:35:07.708,-1.625,-13.2501
12:35:07.710,-1,-14.1876
12:35:07.718,0.25,-12.8125
12:35:07.727,0.9375,-13.0625
12:35:07.738,1.6875,-11.375
12:35:07.748,3,-9.4375
12:35:07.757,5.375,-6
12:35:07.767,8.4375,0.6875
12:35:07.778,11.25,6.375
12:35:07.788,14.0001,13.8126
12:35:07.797,15.8126,16.6876
12:35:07.807,16.3126,21.3126
12:35:07.817,16.6251,22.0001
12:35:07.828,15.3751,23.7501
12:35:07.837,14.6876,21.6251
12:35:07.853,13.7501,21.9376
12:35:07.859,12,18.9376
12:35:07.867,10.8125,17.9376
12:35:07.885,9.1875,15.8126
12:35:07.892,8.25,15.5626
12:35:07.903,7.5,13.8126
12:35:07.913,6.625,14.1251
12:35:07.922,6.5,12.875
12:35:07.932,5.0625,11.625
12:35:07.942,4.375,11.4375
12:35:07.952,3.75,11.5
12:35:07.962,3,10.875
12:35:07.974,2.375,10.0625
12:35:07.982,1.0625,11.25
12:35:07.992,0.8125,8.875
12:35:08.002,-0.4375,7.4375
12:35:08.021,-1.3125,6.0625
12:35:08.023,-1.9375,5.3125
12:35:08.059,-1.875,3.0625
12:35:08.062,-2.0625,3.25
12:35:08.064,-1.9375,2.3125
12:35:08.067,-1.4375,1.625
12:35:08.073,-1.3125,2.5
12:35:08.109,-1.1875,3.375
12:35:08.111,-0.5625,3.625
12:35:08.114,0.3125,3
12:35:08.119,0.375,3.5
12:35:08.148,0.1875,3.8125
12:35:08.152,0.875,3.4375
12:35:08.155,2,3.5625
12:35:08.155,2.1875,2.9375
12:35:08.163,1.8125,2.5625
12:35:08.193,2.625,3.625
12:35:08.195,2.5,3.125
12:35:08.197,2.0625,2.625
12:35:08.204,2.9375,2.375
12:35:08.213,2.625,1.6875
12:35:08.229,2.125,1.8125
12:35:08.233,1.9375,-0.25
12:35:08.243,1.75,-0.1875
12:35:08.252,0.875,-1
12:35:08.262,0.625,-2.6875
12:35:08.274,-0.25,-3.8125
12:35:08.282,-1.4375,-5.125
12:35:08.292,-1.4375,-4.375
12:35:08.302,-1.4375,-5.3125
12:35:08.312,-2.0625,-6.1875
12:35:08.322,-2.0625,-7.8125
12:35:08.334,-3.625,-7.4375
12:35:08.342,-3.875,-7.9375
12:35:08.353,-3.375,-9.25
12:35:08.362,-4.3125,-10.125
12:35:08.372,-4.5625,-9.875
12:35:08.383,-3.5,-9.8125
12:35:08.392,-3.0625,-10.375
12:35:08.402,-3.6875,-10.625
12:35:08.413,-3.6875,-10
12:35:08.424,-3.625,-11.25
12:35:08.432,-3.625,-11
12:35:08.442,-3.375,-12.25
12:35:08.453,-3.5,-12
12:35:08.463,-4.0625,-13
12:35:08.472,-3.0625,-13.2501
12:35:08.482,-3.6875,-13.0625
12:35:08.493,-3.625,-14.3126
12:35:08.510,-2.5625,-12.75
12:35:08.516,-2.5,-12.125
12:35:08.524,-1.8125,-12.5625
12:35:08.532,-2.5,-13.1251
12:35:08.548,-1.5,-13.7501
12:35:08.556,-1.6875,-13.5626
12:35:08.562,-1,-13.2501
12:35:08.572,-0.3125,-12.6875
12:35:08.582,0.5,-12.5625
12:35:08.592,1.0625,-13.0625
12:35:08.608,1.5625,-13
12:35:08.615,1,-13.6876
12:35:08.625,-0.1875,-13.6251
12:35:08.641,-1.3125,-15.3126
12:35:08.655,-2.0625,-15.3751
12:35:08.657,-2.8125,-16.1251
12:35:08.662,-1,-12.6875
12:35:08.672,2.0625,-8.25
12:35:08.705,5.5,-1.125
12:35:08.708,9.4375,6.6875
12:35:08.710,12.0625,12.5625
12:35:08.714,13.2501,18.3751
12:35:08.754,15.3751,21.6251
12:35:08.758,14.7501,23.9376
12:35:08.759,15.3751,23.9376
12:35:08.765,14.0626,23.2501
12:35:08.768,13.8751,23.4376
12:35:08.781,13.6876,23.1876
12:35:08.783,12.75,20.6876
12:35:08.812,12.4375,21.1251
12:35:08.814,11.75,19.5626
12:35:08.816,10.9375,18.9376
12:35:08.823,10.9375,19.5001
12:35:08.837,11.375,18.8751
12:35:08.844,11.125,18.8751
12:35:08.857,11,20.3751
12:35:08.862,12.625,21.1876
12:35:08.873,12.5,21.5626
12:35:08.882,12.5,22.9376
12:35:08.892,12.5625,22.6876
12:35:08.903,12.4375,22.3126
12:35:08.913,12.4375,21.2501
12:35:08.922,11.8125,20.0626
12:35:08.932,11.4375,19.5626
12:35:08.943,10.8125,17.8751
12:35:08.953,9.75,15.6876
12:35:08.984,8.75,14.3126
12:35:08.986,7.9375,13.3126
12:35:08.989,7.9375,13.5626
12:35:08.993,9.375,13.3126
12:35:09.005,8.1875,12.75
12:35:09.013,8.5,13
12:35:09.022,7.9375,14.1251
12:35:09.032,8.375,12.1875
12:35:09.042,7.875,11.1875
12:35:09.053,7.375,11.9375
12:35:09.063,7.375,11.75
12:35:09.072,6.8125,11.125
12:35:09.082,5.875,9.4375
12:35:09.092,5.625,8.75
12:35:09.102,5.5625,9.25
12:35:09.112,5.25,8.25
12:35:09.122,4.25,6.5625
12:35:09.133,2.875,6.25
12:35:09.143,1.875,4.375
12:35:09.152,0.5625,1.875
12:35:09.162,-1.125,0.6875
12:35:09.172,-2.3125,0.8125
12:35:09.182,-3.125,-1.5625
12:35:09.192,-1.375,-0.5
12:35:09.202,-1.3125,0.625
12:35:09.212,-1.625,-1.3125
12:35:09.222,-1.375,-1.125
12:35:09.233,-1.375,-2.375
12:35:09.242,-5.125,-4.0625
12:35:09.252,-4.25,-5.25
12:35:09.262,-3.1875,-5.5
12:35:09.273,-4.1875,-5.6875
12:35:09.282,-4,-6.5
12:35:09.293,-5.0625,-8.1875
12:35:09.303,-7.625,-9.4375
12:35:09.312,-9.5625,-12.375
12:35:09.323,-13.3751,-15.6251
12:35:09.333,-17.1876,-18.3126
12:35:09.342,-19.0626,-20.7501
12:35:09.353,-22.4376,-22.5626
12:35:09.362,-23.9376,-24.6876
12:35:09.374,-28.0001,-28.3126
12:35:09.388,-31.0626,-29.8751
12:35:09.392,-33.8126,-32.3751
12:35:09.402,-37.3751,-35.0001
12:35:09.414,-44.1877,-40.3127
12:35:09.422,-53.0627,-48.0627
12:35:09.432,-66.5003,-58.5627
12:35:09.442,-78.2503,-68.6878
12:35:09.453,-84.5628,-72.9378
12:35:09.463,-92.6879,-79.4378
12:35:09.472,-100.6254,-84.6878
12:35:09.482,-105.6254,-90.1879
12:35:09.492,-111.1254,-93.2504
12:35:09.504,-116.1879,-97.7504
12:35:09.524,-124.063,-103.4379
12:35:09.526,-129.1255,-108.4379
12:35:09.551,-131.188,-109.3754
12:35:09.552,-129.688,-107.1254
12:35:09.555,-116.1879,-93.6879
12:35:09.570,-102.5004,-77.7503
12:35:09.575,-97.6254,-69.5003
12:35:09.605,-86.4378,-57.8752
12:35:09.606,-81.5003,-49.5627
12:35:09.609,-79.8128,-46.9377
12:35:09.616,-80.5628,-46.1877
12:35:09.646,-83.8128,-48.0002
12:35:09.648,-85.8753,-50.3752
12:35:09.652,-84.9378,-49.4377
12:35:09.657,-83.1878,-46.8127
12:35:09.662,-81.3753,-47.2502
12:35:09.690,-79.5003,-45.3127
12:35:09.693,-75.9378,-41.7502
12:35:09.695,-73.3753,-39.5002
12:35:09.703,-71.0628,-37.8126
12:35:09.712,-69.9378,-35.8126
12:35:09.722,-67.8753,-34.4376
12:35:09.732,-66.1878,-32.4376
12:35:09.742,-65.2503,-32.3126
12:35:09.753,-63.8127,-30.8126
12:35:09.763,-64.1252,-30.3126
12:35:09.773,-64.4377,-30.1876
12:35:09.782,-64.1877,-29.7501
12:35:09.792,-64.3752,-32.3126
12:35:09.802,-64.5627,-32.2501
12:35:09.812,-64.5627,-32.3126
12:35:09.832,-63.9377,-33.4376
12:35:09.839,-62.8752,-32.6876
12:35:09.846,-61.6877,-31.8126
12:35:09.852,-60.5002,-32.8751
12:35:09.870,-62.7502,-34.0626
12:35:09.876,-66.0003,-37.6876
12:35:09.886,-67.0003,-38.6876
12:35:09.893,-69.1878,-38.1876
12:35:09.902,-71.0628,-41.8127
12:35:09.923,-74.3753,-43.8752
12:35:09.925,-76.5628,-45.1252
12:35:09.941,-78.8753,-48.9377
12:35:09.956,-80.0003,-49.8127
12:35:09.957,-80.8128,-49.4377
12:35:09.966,-79.6878,-49.7502
12:35:09.972,-77.3128,-48.8752
12:35:09.982,-77.1253,-48.4377
12:35:09.992,-75.4378,-47.3127
12:35:10.002,-75.5003,-47.7502
12:35:10.012,-75.2503,-49.0627
12:35:10.022,-75.3753,-48.5002
12:35:10.032,-76.0003,-49.5002
12:35:10.047,-76.0003,-49.0002
12:35:10.053,-76.8128,-51.6877
12:35:10.062,-76.3128,-51.7502
12:35:10.072,-76.5628,-51.0627
12:35:10.083,-74.6878,-52.1252
12:35:10.094,-74.0628,-50.0002
12:35:10.102,-73.8128,-52.0002
12:35:10.112,-73.6253,-51.8127
12:35:10.123,-74.6878,-53.1252
12:35:10.139,-75.3753,-54.5627
12:35:10.144,-75.3753,-54.5002
12:35:10.152,-75.8128,-54.0627
12:35:10.162,-75.1253,-55.4377
12:35:10.173,-74.6878,-55.5627
12:35:10.203,-75.3753,-55.4377
12:35:10.206,-73.8128,-55.6877
12:35:10.255,-73.9378,-55.0002
12:35:10.255,-74.0003,-54.8127
12:35:10.255,-73.8128,-56.3752
12:35:10.257,-73.2503,-56.5002
12:35:10.260,-73.0628,-55.1252
12:35:10.274,-72.2503,-56.5627
12:35:10.274,-71.4378,-55.6252
12:35:10.275,-69.5628,-54.9377
12:35:10.303,-69.4378,-54.8752
12:35:10.306,-69.0628,-55.9377
12:35:10.308,-68.0003,-54.6252
12:35:10.314,-67.9378,-54.1252
12:35:10.346,-67.6253,-55.1252
12:35:10.348,-67.0628,-54.5627
12:35:10.351,-66.5628,-55.1252
12:35:10.355,-65.9378,-55.2502
12:35:10.363,-66.6253,-55.1252
12:35:10.372,-65.2502,-55.2502
12:35:10.383,-64.3752,-55.6252
12:35:10.392,-62.7502,-55.4377
12:35:10.404,-62.0002,-54.2502
12:35:10.412,-61.3752,-54.5002
12:35:10.422,-60.1877,-53.0002
12:35:10.433,-58.0002,-51.7502
12:35:10.442,-55.5627,-47.5627
12:35:10.452,-53.2502,-44.4377
12:35:10.463,-49.3752,-38.2501
12:35:10.472,-46.0627,-32.0001
12:35:10.483,-42.8127,-25.6876
12:35:10.494,-39.5627,-18.6876
12:35:10.503,-36.1251,-14.3126
12:35:10.512,-34.9376,-9.8125
12:35:10.523,-33.7501,-7.5625
12:35:10.534,-33.1251,-6.0625
12:35:10.543,-32.2501,-5.9375
12:35:10.553,-31.7501,-5.4375
12:35:10.562,-31.5626,-5.625
12:35:10.572,-31.9376,-5.375
12:35:10.584,-31.1876,-6.125
12:35:10.593,-30.6251,-3.5625
12:35:10.602,-29.5001,-3.3125
12:35:10.612,-28.6876,-1.375
12:35:10.624,-28.6876,-2.1875
12:35:10.632,-27.8751,0.3125
12:35:10.643,-28.1251,1
12:35:10.652,-27.6251,1.3125
12:35:10.662,-27.3126,1.9375
12:35:10.674,-27.2501,1.6875
12:35:10.682,-27.0001,3.6875
12:35:10.693,-25.2501,2.9375
12:35:10.702,-25.2501,4.9375
12:35:10.713,-23.3751,4.5625
12:35:10.723,-24.0001,5.1875
12:35:10.733,-22.3751,4
12:35:10.742,-23.2501,4.1875
12:35:10.752,-23.0626,1.5
12:35:10.763,-25.3126,0.75
12:35:10.773,-25.8126,-0.625
12:35:10.785,-25.7501,-0.375
12:35:10.792,-25.6251,-1.25
12:35:10.804,-25.6876,0.625
12:35:10.812,-24.6876,-0.5
12:35:10.823,-24.9376,0.25
12:35:10.832,-25.7501,-0.75
12:35:10.844,-25.8751,-1.75
12:35:10.853,-24.5001,-0.625
12:35:10.862,-25.3126,-2.25
12:35:10.873,-24.6876,-1.25
12:35:10.888,-24.6876,-1.75
12:35:10.894,-24.5001,-2.125
12:35:10.902,-24.1251,-2.1875
12:35:10.914,-25.0001,-2.75
12:35:10.923,-25.1251,-4.25
12:35:10.933,-26.3751,-4.4375
12:35:10.944,-26.7501,-5.75
12:35:10.953,-26.9376,-6.875
12:35:10.966,-28.2501,-8.625
12:35:10.997,-29.3751,-10
12:35:10.999,-31.3751,-11
12:35:11.001,-31.8751,-13.125
12:35:11.004,-32.6251,-13.3126
12:35:11.034,-32.4376,-16.0626
12:35:11.036,-33.3126,-15.2501
12:35:11.039,-34.0626,-16.6876
12:35:11.045,-34.0001,-16.3751
12:35:11.080,-33.9376,-18.8751
12:35:11.082,-34.5626,-18.8126
12:35:11.084,-34.0001,-18.4376
12:35:11.092,-33.2501,-19.6251
12:35:11.092,-34.0626,-19.0626
12:35:11.124,-33.4376,-20.7501
12:35:11.126,-34.4376,-20.7501
12:35:11.129,-33.2501,-21.9376
12:35:11.134,-32.5626,-20.4376
12:35:11.142,-32.8126,-22.6251
12:35:11.160,-33.3126,-23.4376
12:35:11.166,-33.1251,-24.0001
12:35:11.175,-32.3126,-24.3751
12:35:11.184,-31.8126,-24.6251
12:35:11.199,-33.0001,-25.3751
12:35:11.206,-33.3751,-27.4376
12:35:11.213,-32.8126,-27.3751
12:35:11.223,-30.0001,-25.9376
12:35:11.240,-26.4376,-25.8126
12:35:11.242,-22.5001,-24.9376
12:35:11.264,-18.1876,-24.3126
12:35:11.266,-16.5001,-21.6876
12:35:11.281,-14.7501,-21.8751
12:35:11.296,-14.0626,-19.9376
12:35:11.300,-13.3751,-20.1876
12:35:11.303,-11.5,-19.8751
12:35:11.312,-11.8125,-19.2501
12:35:11.323,-10.125,-17.9376
12:35:11.332,-8.75,-17.3126
12:35:11.342,-9.375,-16.6876
12:35:11.354,-7.75,-16.9376
12:35:11.363,-7,-15.5001
12:35:11.373,-4.875,-12.75
12:35:11.382,-2.3125,-5.6875
12:35:11.394,1.9375,-1.125
12:35:11.405,4.0625,5.125
12:35:11.413,6.875,11.875
12:35:11.424,9.5625,16.1251
12:35:11.434,11.4375,21.2501
12:35:11.444,12.3125,23.1251
12:35:11.454,12.1875,24.0626
12:35:11.463,11.0625,25.3751
12:35:11.472,10.4375,25.0001
12:35:11.484,10.0625,23.8126
12:35:11.493,9.1875,23.8751
12:35:11.504,9.375,23.5626
12:35:11.513,7.9375,23.4376
12:35:11.544,6.8125,22.3751
12:35:11.546,6.75,23.1251
12:35:11.549,6.1875,22.7501
12:35:11.554,6.5,23.2501
12:35:11.564,6.3125,24.9376
12:35:11.574,5.75,25.6876
12:35:11.583,4.3125,25.9376
12:35:11.594,3.5625,25.4376
12:35:11.604,2.75,24.0626
12:35:11.612,0.375,23.5001
12:35:11.624,-0.4375,23.1251
12:35:11.635,0.125,22.3751
12:35:11.645,-1.0625,21.1876
12:35:11.654,-2.5,21.7501
12:35:11.664,-6.5,22.0626
12:35:11.673,-10.75,20.0001
12:35:11.684,-14.3126,16.9376
12:35:11.696,-18.5626,13.5001
12:35:11.726,-21.5626,9.5625
12:35:11.729,-24.3751,5.625
12:35:11.731,-26.5001,4.875
12:35:11.734,-26.6251,3.5625
12:35:11.778,-26.9376,2.1875
12:35:11.778,-27.1876,2.4375
12:35:11.780,-28.3126,0.5
12:35:11.782,-29.9376,-2.1875
12:35:11.788,-33.0626,-3.875
12:35:11.802,-35.6876,-7.3125
12:35:11.805,-37.6876,-11.25
12:35:11.840,-39.5002,-12.875
12:35:11.842,-39.3752,-14.3126
12:35:11.845,-40.6877,-15.1251
12:35:11.849,-40.7502,-14.8751
12:35:11.856,-39.5002,-16.3751
12:35:11.872,-40.6252,-18.0001
12:35:11.873,-40.5627,-17.3751
12:35:11.888,-41.4377,-19.3751
12:35:11.898,-40.2502,-19.6876
12:35:11.909,-39.7502,-20.9376
12:35:11.918,-38.8126,-20.7501
12:35:11.930,-38.3126,-22.0001
12:35:11.939,-36.4376,-22.7501
12:35:11.948,-35.4376,-22.5001
12:35:11.958,-33.6251,-21.6251
12:35:11.969,-32.8751,-22.4376
12:35:11.980,-31.6876,-22.0626
12:35:11.987,-30.0001,-21.7501
12:35:11.998,-29.4376,-22.1876
12:35:12.012,-28.5626,-22.9376
12:35:12.019,-27.0001,-23.3751
12:35:12.028,-25.0626,-24.6876
12:35:12.039,-22.5001,-23.2501
12:35:12.049,-19.3126,-24.0626
12:35:12.057,-16.0626,-22.4376
12:35:12.068,-13.6876,-22.8751
12:35:12.079,-11.375,-21.3751
12:35:12.089,-9.375,-20.6251
12:35:12.099,-6.5,-18.2501
12:35:12.109,-4.625,-17.0001
12:35:12.119,-3.6875,-13.6251
12:35:12.128,-0.3125,-10.0625
12:35:12.139,1.125,-5.25
12:35:12.147,6.1875,1.25
12:35:12.158,10,8.3125
12:35:12.172,16.0626,18.2501
12:35:12.178,22.0001,27.0001
12:35:12.189,27.5001,32.0001
12:35:12.198,31.3751,36.1876
12:35:12.208,33.8751,40.6877
12:35:12.218,36.6876,41.8752
12:35:12.228,39.2502,46.8127
12:35:12.238,42.0002,50.0002
12:35:12.248,45.1252,53.9377
12:35:12.259,47.7502,58.8752
12:35:12.272,49.3127,61.8752
12:35:12.279,50.0627,63.9377
12:35:12.288,50.2502,64.3752
12:35:12.298,49.3127,63.9377
12:35:12.308,48.6252,62.1252
12:35:12.318,48.1252,60.2502
12:35:12.330,46.3127,59.0002
12:35:12.338,45.8127,59.5627
12:35:12.349,46.8752,61.0002
12:35:12.359,47.7502,60.8752
12:35:12.368,47.5002,60.3127
12:35:12.379,46.8752,61.4377
12:35:12.389,47.2502,61.8752
12:35:12.434,46.8127,60.5627
12:35:12.436,46.5627,60.6877
12:35:12.436,46.1252,62.0002
12:35:12.439,46.6877,62.3127
12:35:12.443,47.3127,62.3127
12:35:12.469,47.3752,62.8127
12:35:12.567,45.7502,60.8752
12:35:12.567,44.8127,61.0627
12:35:12.568,42.7502,57.9377
12:35:12.584,41.1877,56.7502
12:35:12.584,39.2502,56.0002
12:35:12.587,37.5626,56.2502
12:35:12.597,36.9376,56.7502
12:35:12.614,34.5001,58.0002
12:35:12.616,32.3126,58.2502
12:35:12.630,27.6876,57.3127
12:35:12.645,22.3751,53.6252
12:35:12.646,13.5626,47.9377
12:35:12.647,4.4375,38.0001
12:35:12.654,-6.25,26.5626
12:35:12.664,-15.9376,18.1251
12:35:12.673,-23.0001,8.75
12:35:12.684,-29.3126,3.375
12:35:12.693,-33.6876,-3.0625
12:35:12.704,-37.6251,-9.1875
12:35:12.714,-43.8127,-15.8751
12:35:12.724,-49.0002,-26.5001
12:35:12.733,-34.0001,-20.6251
12:35:12.744,-29.7501,-18.6251
12:35:12.753,-25.9376,-15.6876
12:35:12.763,-21.5001,-12.375
12:35:12.775,-18.7501,-10.75
12:35:12.784,-17.0001,-8.9375
12:35:12.793,-16.3126,-8.8125
12:35:12.826,-16.4376,-8.9375
12:35:12.829,-19.0626,-11.875
12:35:12.831,-21.8751,-13.8751
12:35:12.835,-25.0001,-17.2501
12:35:12.843,-28.1876,-19.4376
12:35:12.853,-30.8126,-22.5001
12:35:12.864,-33.3751,-25.1876
12:35:12.874,-38.1251,-29.3126
12:35:12.884,-40.6877,-32.2501
12:35:12.894,-43.1252,-33.6876
12:35:12.904,-44.0627,-36.0626
12:35:12.914,-45.3752,-36.1251
12:35:12.924,-46.3127,-37.8126
12:35:12.933,-46.3127,-36.5001
12:35:12.943,-46.6877,-36.5001
12:35:12.953,-45.4377,-36.1251
12:35:12.963,-45.1252,-34.3751
12:35:12.975,-44.8752,-34.5001
12:35:12.984,-44.5627,-34.6251
12:35:12.993,-45.0627,-35.0626
12:35:13.003,-44.3127,-35.3751
12:35:13.013,-44.1877,-35.3751
12:35:13.024,-42.7502,-36.2501
12:35:13.033,-41.1877,-35.2501
12:35:13.044,-37.0626,-34.5626
12:35:13.053,-32.3126,-33.6251
12:35:13.063,-27.9376,-29.8126
12:35:13.073,-23.7501,-26.4376
12:35:13.090,-20.3751,-22.7501
12:35:13.093,-16.0001,-18.8751
12:35:13.126,-11.4375,-12.9375
12:35:13.128,-5.0625,-6.625
12:35:13.129,1.625,3.375
12:35:13.135,10.125,14.4376
12:35:13.171,18.1251,27.4376
12:35:13.175,25.9376,38.1876
12:35:13.176,33.2501,50.4377
12:35:13.177,39.1252,59.0627
12:35:13.211,44.4377,67.0003
12:35:13.213,47.6877,70.1253
12:35:13.214,48.5002,71.0003
12:35:13.220,47.3127,68.9378
12:35:13.233,45.2502,68.3128
12:35:13.235,43.5002,64.6252
12:35:13.264,42.8752,64.5002
12:35:13.266,42.5627,63.4377
12:35:13.271,42.9377,63.8752
12:35:13.276,42.3127,63.1252
12:35:13.286,42.3127,63.6252
12:35:13.293,42.2502,64.0002
12:35:13.304,42.7502,63.0002
12:35:13.313,41.6877,62.6252
12:35:13.323,41.5002,63.9377
12:35:13.333,40.1252,63.1877
12:35:13.344,39.6877,61.1252
12:35:13.354,38.3751,60.5002
12:35:13.363,37.8126,60.1252
12:35:13.374,37.4376,57.9377
12:35:13.384,35.0001,57.0002
12:35:13.394,33.2501,53.0002
12:35:13.404,32.6251,50.6877
12:35:13.414,32.1876,48.5627
12:35:13.423,31.1251,48.3752
12:35:13.434,29.2501,46.0002
12:35:13.443,27.9376,45.0627
12:35:13.453,26.8126,44.1877
12:35:13.466,25.8751,42.2502
12:35:13.473,23.3751,40.8752
12:35:13.484,21.9376,39.5627
12:35:13.494,20.3751,38.0626
12:35:13.504,19.1876,37.5626
12:35:13.514,17.6876,35.6251
12:35:13.523,16.1876,34.1251
12:35:13.534,14.6251,33.7501
12:35:13.544,14.0001,31.6251
12:35:13.553,11.4375,30.4376
12:35:13.564,9,27.4376
12:35:13.575,5.1875,24.2501
12:35:13.584,1.4375,20.7501
12:35:13.593,-2.375,17.3126
12:35:13.603,-5.8125,13
12:35:13.615,-10.3125,8.3125
12:35:13.625,-14.8751,3.5
12:35:13.634,-18.5626,-1.5
12:35:13.645,-22.6876,-5.25
12:35:13.653,-26.9376,-11.8125
12:35:13.664,-32.2501,-16.6251
12:35:13.673,-35.4376,-21.4376
12:35:13.683,-40.7502,-25.8126
12:35:13.693,-44.2502,-31.6251
12:35:13.704,-48.3127,-37.2501
12:35:13.713,-53.1877,-43.2502
12:35:13.724,-59.3752,-49.8752
12:35:13.734,-63.0627,-55.2502
12:35:13.744,-66.4378,-59.6252
12:35:13.754,-66.7503,-62.3752
12:35:13.764,-66.6253,-62.6252
12:35:13.773,-65.5003,-62.2502
12:35:13.784,-66.5003,-63.8127
12:35:13.794,-67.1253,-63.1877
12:35:13.824,-68.4378,-64.5002
12:35:13.826,-68.3753,-65.1252
12:35:13.829,-68.6253,-65.7503
12:35:13.834,-67.6878,-65.1252
12:35:13.865,-67.5003,-65.3127
12:35:13.868,-67.1253,-66.4378
12:35:13.905,-67.8128,-66.3753
12:35:13.936,-68.0003,-67.4378
12:35:13.939,-66.7503,-67.2503
12:35:13.939,-65.5003,-66.4378
12:35:13.939,-63.7502,-65.3753
12:35:13.940,-63.2502,-65.6253
12:35:13.943,-61.4377,-64.4377
12:35:13.949,-59.8752,-62.8752
12:35:13.950,-58.2502,-62.8127
12:35:13.955,-57.1877,-61.9377
12:35:13.980,-55.5002,-62.2502
12:35:13.983,-53.3127,-60.4377
12:35:13.986,-51.0627,-60.5627
12:35:13.993,-48.6877,-58.2502
12:35:14.004,-44.3127,-56.8127
12:35:14.020,-37.6251,-52.1877
12:35:14.025,-31.0626,-48.3752
12:35:14.033,-23.7501,-41.3752
12:35:14.044,-17.0626,-33.8751
12:35:14.053,-11,-25.3751
12:35:14.063,-6,-17.3126
12:35:14.074,-3.0625,-10.125
12:35:14.105,0.5,-2.6875
12:35:14.108,3.4375,1.875
12:35:14.110,5.4375,6.8125
12:35:14.115,7.5625,9.3125
12:35:14.126,11,14.5001
12:35:14.134,12.5625,19.0001
12:35:14.143,16.5001,23.9376
12:35:14.154,20.3126,30.3126
12:35:14.163,24.8751,35.4376
12:35:14.173,30.3126,42.9377
12:35:14.183,34.5001,48.8127
12:35:14.194,38.3126,52.2502
12:35:14.204,41.6877,56.0627
12:35:14.214,43.1252,57.0002
12:35:14.223,44.6877,58.6252
12:35:14.234,45.1252,59.3127
12:35:14.244,43.6252,57.7502
12:35:14.253,42.3752,57.4377
12:35:14.264,42.2502,55.3127
12:35:14.273,40.3127,53.0627
12:35:14.284,39.6877,50.9377
12:35:14.293,37.4376,49.2502
12:35:14.303,36.0001,47.1252
12:35:14.313,35.1251,44.3752
12:35:14.323,33.3751,43.1877
12:35:14.334,32.8126,43.2502
12:35:14.344,32.0626,41.3127
12:35:14.353,31.0626,40.6252
12:35:14.363,30.0001,38.6876
12:35:14.373,29.3126,38.6251
12:35:14.383,29.5001,38.2501
12:35:14.395,28.8126,37.1876
12:35:14.403,28.6876,37.1876
12:35:14.414,27.8751,36.1876
12:35:14.424,27.6876,35.3126
12:35:14.434,27.0626,34.7501
12:35:14.444,26.5001,33.5001
12:35:14.454,24.1876,31.9376
12:35:14.464,23.3751,30.7501
12:35:14.473,21.1251,28.7501
12:35:14.484,18.5626,26.3751
12:35:14.494,16.3126,23.7501
12:35:14.503,13,21.5626
12:35:14.514,10.6875,19.0626
12:35:14.524,8.3125,17.1876
12:35:14.533,6.1875,14.0626
12:35:14.556,3.25,11.625
12:35:14.558,0.875,9.25
12:35:14.570,-0.875,8.4375
12:35:14.573,-2.875,5
12:35:14.612,-6.9375,0.125
12:35:14.614,-11.3125,-3.3125
12:35:14.617,-14.3126,-5.6875
12:35:14.624,-17.1876,-10.6875
12:35:14.626,-21.2501,-14.1876
12:35:14.665,-22.8751,-17.3751
12:35:14.666,-25.0001,-20.1876
12:35:14.669,-27.9376,-22.9376
12:35:14.671,-31.3751,-25.5001
12:35:14.674,-35.0626,-30.3751
12:35:14.705,-38.5626,-35.4376
12:35:14.709,-43.0627,-40.0002
12:35:14.711,-47.0627,-42.8752
12:35:14.716,-49.8752,-46.0002
12:35:14.723,-52.1252,-50.0002
12:35:14.734,-55.7502,-53.6877
12:35:14.743,-57.6252,-56.6877
12:35:14.753,-59.5627,-60.6877
12:35:14.770,-61.3127,-61.5002
12:35:14.775,-61.5002,-62.5627
12:35:14.784,-60.8752,-62.0627
12:35:14.794,-60.4377,-62.8752
12:35:14.803,-61.2502,-63.6252
12:35:14.813,-60.3127,-63.5627
12:35:14.823,-60.0627,-63.3127
12:35:14.833,-58.5002,-63.3127
12:35:14.844,-57.1877,-61.0002
12:35:14.853,-53.5002,-56.7502
12:35:14.864,-49.0627,-51.8752
12:35:14.873,-45.3127,-45.4377
12:35:14.885,-42.7502,-38.0626
12:35:14.893,-37.7501,-32.9376
12:35:14.903,-35.5001,-26.9376
12:35:14.914,-32.8751,-24.1876
12:35:14.923,-31.4376,-21.3751
12:35:14.933,-30.8751,-20.3751
12:35:14.943,-29.7501,-19.1251
12:35:14.954,-29.5001,-18.1251
12:35:14.964,-28.3751,-18.2501
12:35:14.973,-30.0001,-18.3751
12:35:14.984,-32.4376,-19.5626
12:35:14.993,-31.5626,-20.3126
12:35:15.003,-30.0626,-18.6876
12:35:15.014,-29.8126,-17.6251
12:35:15.023,-28.3751,-16.8126
12:35:15.033,-29.4376,-16.0001
12:35:15.043,-29.3751,-15.9376
12:35:15.053,-27.6876,-14.5626
12:35:15.063,-27.2501,-11.5625
12:35:15.074,-25.5001,-12.25
12:35:15.084,-23.5001,-10
12:35:15.093,-23.0626,-9.625
12:35:15.104,-23.5001,-9.6875
12:35:15.113,-21.9376,-9.0625
12:35:15.123,-21.1876,-7.125
12:35:15.133,-19.8126,-8.3125
12:35:15.143,-17.0001,-6.3125
12:35:15.162,-15.8126,-5
12:35:15.178,-13.3751,-4.9375
12:35:15.178,-10.0625,-1.4375
12:35:15.185,-8.375,1.3125
12:35:15.193,-5.5,2.3125
12:35:15.215,-5.125,3.6875
12:35:15.219,-4.75,3
12:35:15.232,-4.8125,2.6875
12:35:15.235,-4.0625,3.25
12:35:15.243,-0.9375,4.9375
12:35:15.253,2.625,8.8125
12:35:15.264,5.1875,9.8125
12:35:15.307,7.0625,11.1875
12:35:15.309,8.25,12.375
12:35:15.311,9.0625,11.5625
12:35:15.314,11.25,13.1876
12:35:15.318,12.5625,14.0001
12:35:15.323,15.7501,15.5001
12:35:15.355,32.5001,28.4376
12:35:15.358,44.0002,37.4376
12:35:15.360,50.3127,42.5627
12:35:15.383,56.8127,47.0002
12:35:15.386,64.4377,53.8127
12:35:15.412,74.8128,60.0627
12:35:15.413,77.5003,62.9377
12:35:15.415,76.5003,62.7502
12:35:15.447,72.4378,58.8127
12:35:15.448,69.8753,56.2502
12:35:15.448,67.3128,53.4377
12:35:15.450,64.1877,50.1252
12:35:15.457,59.8752,47.5002
12:35:15.464,57.6877,43.8127
12:35:15.474,56.0627,42.1252
12:35:15.483,53.6252,39.6252
12:35:15.494,53.5627,39.2501
12:35:15.504,56.8127,41.7502
12:35:15.520,60.0627,44.3127
12:35:15.525,62.3127,45.9377
12:35:15.533,64.3752,46.1877
12:35:15.543,62.8127,45.6877
12:35:15.553,59.0627,41.4377
12:35:15.564,57.0627,40.2502
12:35:15.574,57.5627,39.8127
12:35:15.584,56.3127,38.9376
12:35:15.593,54.6877,36.0001
12:35:15.604,53.1252,33.9376
12:35:15.613,52.8752,33.0001
12:35:15.623,55.6252,36.6251
12:35:15.634,57.2502,35.8126
12:35:15.644,58.1877,36.5001
12:35:15.653,58.3752,35.3126
12:35:15.663,58.1252,35.7501
12:35:15.673,57.4377,34.5626
12:35:15.685,55.4377,32.8751
12:35:15.696,53.3752,30.1251
12:35:15.705,52.1877,29.9376
12:35:15.714,51.7502,28.7501
12:35:15.724,51.0627,27.5001
12:35:15.734,50.0002,27.3751
12:35:15.746,49.8752,25.8126
12:35:15.754,48.1877,24.0001
12:35:15.764,46.5627,22.0626
12:35:15.776,44.7502,22.6876
12:35:15.784,46.9377,25.0001
12:35:15.794,49.6252,28.5001
12:35:15.804,53.3752,35.1876
12:35:15.815,57.9377,42.7502
12:35:15.823,59.7502,47.6877
12:35:15.835,62.0002,51.6877
12:35:15.845,62.3127,55.6877
12:35:15.854,60.7502,55.2502
12:35:15.864,58.8127,53.2502
12:35:15.874,58.4377,55.5002
12:35:15.885,59.5627,54.5002
12:35:15.900,60.6877,55.3127
12:35:15.905,62.7502,57.1877
12:35:15.916,63.5627,57.8752
12:35:15.923,64.0627,58.0627
12:35:15.933,62.9377,58.6252
12:35:15.944,60.6252,56.0002
12:35:15.960,58.1252,53.3752
12:35:15.969,56.4377,52.7502
12:35:15.980,58.0627,54.9377
12:35:15.988,59.1252,55.2502
12:35:15.998,60.1252,57.6252
12:35:16.009,61.6252,58.1252
12:35:16.018,63.1877,59.1877
12:35:16.029,62.6252,58.2502
12:35:16.039,62.3127,58.5627
12:35:16.050,62.4377,57.5002
12:35:16.058,61.6877,54.6252
12:35:16.073,58.5627,52.8127
12:35:16.080,56.3127,50.0002
12:35:16.109,57.3127,47.8127
12:35:16.112,59.5002,49.0627
12:35:16.114,63.6877,52.6252
12:35:16.121,71.0628,58.3752
12:35:16.146,74.8128,60.3752
12:35:16.149,77.6253,63.8752
12:35:16.151,80.9378,64.6877
12:35:16.186,83.0628,65.3128
12:35:16.189,83.0628,66.4378
12:35:16.191,82.6878,64.9377
12:35:16.194,82.7503,63.9377
12:35:16.198,81.1878,62.7502
12:35:16.213,81.0628,63.2502
12:35:16.218,83.0628,62.3127
12:35:16.249,83.1878,62.4377
12:35:16.251,81.2503,62.6877
12:35:16.257,78.2503,59.0002
12:35:16.264,74.5003,54.5627
12:35:16.270,69.3753,51.3127
12:35:16.281,65.8128,47.6252
12:35:16.290,61.8752,43.2502
12:35:16.300,57.3752,39.5627
12:35:16.309,55.8127,38.4376
12:35:16.318,53.9377,35.7501
12:35:16.329,52.5002,34.1876
12:35:16.338,51.8752,34.9376
12:35:16.350,52.7502,33.9376
12:35:16.360,52.0627,33.1251
12:35:16.369,51.3127,32.1876
12:35:16.379,52.3127,32.3751
12:35:16.390,50.5627,30.3126
12:35:16.400,49.3127,29.5626
12:35:16.409,48.8752,29.9376
12:35:16.420,48.6877,29.0001
12:35:16.430,48.4377,27.6251
12:35:16.440,47.9377,27.7501
12:35:16.456,46.6877,26.0626
12:35:16.472,44.5627,23.4376
12:35:16.473,43.5627,23.5001
12:35:16.480,44.7502,23.0001
12:35:16.488,43.8127,21.8126
12:35:16.512,42.9377,20.5626
12:35:16.516,42.0627,20.5001
12:35:16.530,41.3127,19.6251
12:35:16.533,41.2502,18.5001
12:35:16.538,41.3127,17.3126
12:35:16.550,39.8127,17.3751
12:35:16.561,38.8126,17.6251
12:35:16.570,38.8126,14.8126
12:35:16.580,37.5001,13.3751
12:35:16.590,36.5626,12.875
12:35:16.600,35.5001,11.5
12:35:16.609,34.3126,9.8125
12:35:16.618,32.8751,8.1875
12:35:16.628,32.1876,7.9375
12:35:16.640,32.7501,9.4375
12:35:16.665,34.9376,10.875
12:35:16.668,37.8751,15.0001
12:35:16.670,41.0627,20.8751
12:35:16.685,44.2502,27.9376
12:35:16.690,45.8752,33.9376
12:35:16.700,47.0002,37.3751
12:35:16.710,46.9377,38.7501
12:35:16.728,45.1877,39.1251
12:35:16.731,43.8127,40.1877
12:35:16.765,44.2502,39.7502
12:35:16.768,42.6877,38.6251
12:35:16.770,42.3127,38.3126
12:35:16.772,42.1877,37.6251
12:35:16.810,41.2502,36.3751
12:35:16.812,40.2502,35.4376
12:35:16.814,39.1876,35.1876
12:35:16.841,39.3752,34.4376
12:35:16.841,38.4376,33.3751
12:35:16.842,38.0626,33.6251
12:35:16.845,37.5001,34.7501
12:35:16.852,37.4376,35.0001
12:35:16.885,37.8126,34.1876
12:35:16.886,37.1876,33.0001
12:35:16.891,35.8126,33.0626
12:35:16.893,34.8751,32.1251
12:35:16.901,33.3126,28.8126
12:35:16.909,31.0001,27.6876
12:35:16.920,29.9376,26.0626
12:35:16.930,29.0001,24.0001
12:35:16.938,28.7501,21.3751
12:35:16.951,28.6876,22.2501
12:35:16.960,28.3751,20.3751
12:35:16.970,27.6251,18.9376
12:35:16.980,26.3126,17.8751
12:35:16.990,26.1251,17.8751
12:35:17.000,25.8751,17.0001
12:35:17.010,24.0626,15.2501
12:35:17.020,23.0626,15.6876
12:35:17.028,23.8126,14.5626
12:35:17.040,24.3126,14.4376
12:35:17.050,24.3126,15.6251
12:35:17.060,24.9376,15.4376
12:35:17.070,24.8126,14.5626
12:35:17.080,24.3126,14.0001
12:35:17.090,23.0001,13.6876
12:35:17.100,23.1876,12.6875
12:35:17.110,22.3751,11.25
12:35:17.120,21.1251,9.625
12:35:17.129,20.3126,8.8125
12:35:17.140,19.5626,7
12:35:17.150,16.1876,3.6875
12:35:17.161,15.1251,3.75
12:35:17.169,15.8126,3.3125
12:35:17.180,17.0001,2.875
12:35:17.190,16.3751,1.9375
12:35:17.200,14.5001,0
12:35:17.208,13.4376,-0.1875
12:35:17.220,12.8125,-0.75
12:35:17.230,12.4375,-2.25
12:35:17.239,11.5,-3.25
12:35:17.249,10.8125,-3
12:35:17.260,10.625,-4.4375
12:35:17.268,9.0625,-6.6875
12:35:17.280,9,-5.3125
12:35:17.289,9.25,-6.125
12:35:17.300,8.9375,-6.8125
12:35:17.310,7.875,-8.375
12:35:17.318,7.1875,-7.0625
12:35:17.328,7.875,-8.5625
12:35:17.341,7.8125,-9
12:35:17.350,7.625,-9.5625
12:35:17.361,6.3125,-9.8125
12:35:17.370,5.75,-11.375
12:35:17.380,5.125,-12.1875
12:35:17.390,3.8125,-13.1876
12:35:17.400,3.875,-13.6251
12:35:17.410,2.5625,-15.5001
12:35:17.419,2.5625,-14.9376
12:35:17.435,2.375,-16.4376
12:35:17.440,1.875,-17.6251
12:35:17.450,0.5625,-17.1251
12:35:17.460,0.25,-18.3751
12:35:17.470,0,-18.1876
12:35:17.482,0.75,-17.7501
12:35:17.490,1.9375,-16.3126
12:35:17.500,3.875,-12
12:35:17.511,6.875,-5.25
12:35:17.522,10.25,-0.125
12:35:17.548,13.1876,7.125
12:35:17.550,15.5001,11.8125
12:35:17.553,15.5626,14.7501
12:35:17.580,15.2501,17.5001
12:35:17.583,15.3751,16.1876
12:35:17.585,14.1876,15.1876
12:35:17.591,13.125,15.7501
12:35:17.621,12.9375,14.6876
12:35:17.623,12.3125,13.4376
12:35:17.625,11.5625,13.8126
12:35:17.630,11.875,13.4376
12:35:17.640,11.4375,13.0625
12:35:17.677,11.125,13.5626
12:35:17.678,10.625,13.7501
12:35:17.681,10.875,13.3751
12:35:17.682,10.5625,13.5626
12:35:17.710,9.8125,14.9376
12:35:17.713,10.625,13.8126
12:35:17.715,10.3125,13.3751
12:35:17.720,10.3125,13.7501
12:35:17.731,10,14.7501
12:35:17.753,10.4375,13.8751
12:35:17.759,9.375,12.75
12:35:17.761,7.9375,11.125
12:35:17.776,6.9375,9.375
12:35:17.780,5.5,7.625
12:35:17.791,5.25,5.375
12:35:17.810,4.3125,3.75
12:35:17.825,3.5625,3.625
12:35:17.827,3.1875,3.5
12:35:17.830,3.6875,2.4375
12:35:17.840,4.5625,2.0625
12:35:17.850,4.1875,1.9375
12:35:17.860,4.3125,3.6875
12:35:17.870,5.75,3.6875
12:35:17.880,5.625,3.0625
12:35:17.889,5.1875,2.9375
12:35:17.900,5.375,3.125
12:35:17.910,5.875,2.6875
12:35:17.920,5.6875,2.375
12:35:17.945,5.3125,1.3125
12:35:17.948,4.875,0.25
12:35:17.950,3.625,0.1875
12:35:17.960,3.5,-1.125
12:35:17.970,2.625,-2.75
12:35:17.980,1.625,-4.1875
12:35:17.990,0.875,-5.3125
12:35:18.000,0.625,-4.5625
12:35:18.010,-0.5625,-6.4375
12:35:18.020,-1,-7.0625
12:35:18.030,-1.25,-7.625
12:35:18.040,-1.875,-9
12:35:18.050,-0.25,-8.9375
12:35:18.060,0,-8.125
12:35:18.070,0.25,-7.75
12:35:18.080,1.375,-8.25
12:35:18.090,2.4375,-8
12:35:18.100,2.8125,-7.25
12:35:18.110,3.9375,-8.25
12:35:18.120,5.25,-6.375
12:35:18.130,5.0625,-7.125
12:35:18.140,5.5,-5.6875
12:35:18.150,6.4375,-6.3125
12:35:18.160,5.4375,-7.5
12:35:18.170,5.6875,-6.875
12:35:18.185,5.5,-8.375
12:35:18.190,5.8125,-7.625
12:35:18.200,5.8125,-8.5
12:35:18.210,6.125,-8.875
12:35:18.220,7.6875,-8.1875
12:35:18.233,8.3125,-7.5625
12:35:18.240,8.75,-6.9375
12:35:18.275,9.375,-6.875
12:35:18.277,10,-7.3125
12:35:18.279,10.3125,-6.3125
12:35:18.281,10.4375,-7.75
12:35:18.316,11,-6.375
12:35:18.319,11.125,-7.875
12:35:18.319,10.875,-7
12:35:18.325,10.375,-9.4375
12:35:18.362,9.25,-9.3125
12:35:18.362,8,-9.75
12:35:18.365,7.5625,-12.375
12:35:18.368,6.375,-13.3126
12:35:18.370,6.3125,-12.625
12:35:18.397,6.375,-13.5626
12:35:18.400,6.125,-13.1876
12:35:18.402,6.375,-12.875
12:35:18.413,7.0625,-11.375
12:35:18.421,8.6875,-6.9375
12:35:18.430,11.25,-0.3125
12:35:18.440,14.0626,5.4375
12:35:18.450,15.4376,10.9375
12:35:18.461,17.4376,15.6251
12:35:18.470,19.5626,18.9376
12:35:18.480,19.8126,21.6876
12:35:18.490,20.4376,23.1876
12:35:18.500,19.9376,22.3126
12:35:18.510,19.0626,21.7501
12:35:18.520,18.4376,22.3126
12:35:18.530,18.5001,20.2501
12:35:18.542,18.2501,20.2501
12:35:18.551,17.6876,20.2501
12:35:18.560,17.3751,19.1251
12:35:18.570,16.4376,18.6251
12:35:18.580,15.6876,17.9376
12:35:18.590,14.0001,16.9376
12:35:18.600,13.0625,17.6251
12:35:18.610,13,17.0001
12:35:18.620,13.5001,16.6876
12:35:18.630,14.0626,18.4376
12:35:18.640,14.5001,18.4376
12:35:18.650,13.3751,17.5626
12:35:18.660,11.75,15.2501
12:35:18.669,9.875,14.6876
12:35:18.680,5.875,9.25
12:35:18.690,1.3125,5.4375
12:35:18.700,-1.1875,1.8125
12:35:18.710,-4.625,-1.9375
12:35:18.720,-7.0625,-4.5
12:35:18.730,-7.4375,-4.1875
12:35:18.740,-9.125,-5.75
12:35:18.750,-11.4375,-8.6875
12:35:18.760,-12.625,-9.5625
12:35:18.770,-13.4376,-9.75
12:35:18.781,-12.5,-9.25
12:35:18.790,-13,-10
12:35:18.800,-14.1876,-10.125
12:35:18.810,-13.9376,-9.625
12:35:18.819,-14.4376,-11.0625
12:35:18.830,-15.0626,-11
12:35:18.840,-15.7501,-11.6875
12:35:18.850,-16.5626,-12.8125
12:35:18.860,-17.8751,-14.6251
12:35:18.870,-18.1876,-14.7501
12:35:18.880,-18.1876,-15.2501
12:35:18.890,-19.0626,-16.7501
12:35:18.901,-18.3751,-16.9376
12:35:18.936,-18.3126,-17.1251
12:35:18.937,-17.8751,-17.8751
12:35:18.940,-18.0001,-17.5626
12:35:18.942,-18.2501,-18.3751
12:35:18.974,-19.4376,-19.7501
12:35:18.977,-19.8126,-20.7501
12:35:18.979,-20.4376,-21.5001
12:35:18.981,-21.3751,-22.5626
12:35:19.023,-22.1251,-22.8126
12:35:19.025,-20.9376,-23.3126
12:35:19.029,-21.5001,-22.9376
12:35:19.034,-20.7501,-23.2501
12:35:19.035,-22.6251,-24.7501
12:35:19.044,-24.0001,-25.1876
12:35:19.078,-25.6251,-27.4376
12:35:19.080,-27.8126,-28.7501
12:35:19.084,-29.7501,-30.7501
12:35:19.085,-29.6876,-31.3751
12:35:19.103,-30.5626,-32.0001
12:35:19.105,-30.7501,-31.8751
12:35:19.121,-29.5626,-32.5001
12:35:19.126,-29.3751,-31.0001
12:35:19.130,-29.3751,-32.5626
12:35:19.140,-28.8751,-33.0626
12:35:19.150,-29.3126,-33.5626
12:35:19.160,-30.2501,-34.8126
12:35:19.170,-29.6876,-33.6876
12:35:19.180,-28.6251,-34.2501
12:35:19.190,-28.6876,-34.5626
12:35:19.200,-28.0001,-34.6251
12:35:19.228,-29.9376,-35.8126
12:35:19.231,-31.5001,-36.5001
12:35:19.232,-32.4376,-38.2501
12:35:19.243,-33.3126,-39.4377
12:35:19.250,-33.8751,-37.6251
12:35:19.260,-31.3751,-35.4376
12:35:19.270,-27.3751,-28.2501
12:35:19.280,-23.3751,-21.6251
12:35:19.290,-19.1876,-14.9376
12:35:19.300,-17.2501,-8.5625
12:35:19.309,-14.0001,-5
12:35:19.320,-12.9375,-2.3125
12:35:19.330,-12.125,0.5
12:35:19.340,-11.9375,-0.5
12:35:19.350,-13.5626,-1.0625
12:35:19.360,-13.9376,-3.1875
12:35:19.370,-13.3751,-1.1875
12:35:19.380,-12.75,-1.875
12:35:19.390,-11.8125,-1.0625
12:35:19.400,-10.375,0.5
12:35:19.409,-9.625,0.9375
12:35:19.420,-8.9375,1.875
12:35:19.430,-9.3125,2.1875
12:35:19.440,-8,3.25
12:35:19.450,-7.75,3
12:35:19.460,-8,3.625
12:35:19.476,-8.625,3.125
12:35:19.482,-8.6875,2
12:35:19.490,-8.75,2.375
12:35:19.501,-8.375,2.1875
12:35:19.510,-8.375,1.5625
12:35:19.520,-8.375,0.75
12:35:19.530,-9,-0.75
12:35:19.540,-9.75,-2.8125
12:35:19.550,-10.8125,-3.125
12:35:19.560,-10.5,-3.8125
12:35:19.570,-10.5,-5.0625
12:35:19.580,-11.25,-4.375
12:35:19.590,-10.3125,-4.25
12:35:19.600,-10.75,-5.5625
12:35:19.610,-10.125,-4.125
12:35:19.620,-10.3125,-4.875
12:35:19.630,-10.625,-5.25
12:35:19.640,-10.1875,-5.25
12:35:19.650,-11.125,-5.6875
12:35:19.685,-11.8125,-5.25
12:35:19.687,-11,-6.9375
12:35:19.690,-11.125,-7.4375
12:35:19.692,-11.1875,-6.9375
12:35:19.724,-10.9375,-8.25
12:35:19.725,-9.9375,-7.0625
12:35:19.728,-9.3125,-8
12:35:19.733,-9.1875,-7.5
12:35:19.761,-9.1875,-8.25
12:35:19.764,-9.625,-8.6875
12:35:19.767,-9.75,-10.3125
12:35:19.806,-10.0625,-10.25
12:35:19.806,-10,-11.3125
12:35:19.808,-10.1875,-11.375
12:35:19.815,-10.1875,-12.625
12:35:19.816,-9.875,-12.125
12:35:19.824,-9.8125,-11.5
12:35:19.840,-9.75,-12.125
12:35:19.842,-10.125,-13.5001
12:35:19.852,-10.625,-12.875
12:35:19.865,-9.75,-13.0625
12:35:19.870,-9,-13.0625
12:35:19.880,-8,-13.8126
12:35:19.890,-8,-13.3751
12:35:19.900,-7.75,-13.8751
12:35:19.910,-7.5,-12.6875
12:35:19.920,-6.6875,-14.0626
12:35:19.930,-6.8125,-14.1251
12:35:19.940,-7.0625,-14.6251
12:35:19.950,-7.3125,-15.6251
12:35:19.965,-7.5625,-15.8751
12:35:19.975,-8.5,-17.0001
12:35:19.985,-9.5625,-17.1876
12:35:19.995,-9.75,-19.1251
12:35:20.005,-9.875,-19.3126
12:35:20.015,-9.375,-18.0001
12:35:20.024,-9.1875,-19.1876
12:35:20.035,-8.875,-19.6251
12:35:20.045,-9.3125,-19.4376
12:35:20.055,-8.5,-19.3126
12:35:20.065,-7.5625,-19.7501
12:35:20.075,-8,-18.8751
12:35:20.085,-7.75,-19.6876
12:35:20.095,-8,-18.1251
12:35:20.105,-6.125,-17.0001
12:35:20.115,-3.5625,-13.5626
12:35:20.125,2.3125,-3.5625
12:35:20.134,5.6875,2.9375
12:35:20.145,9.75,9.9375
12:35:20.155,11.4375,14.8751
12:35:20.165,13.8751,19.5001
12:35:20.175,14.2501,21.3751
12:35:20.185,15.5001,22.8751
12:35:20.195,14.3126,22.6876
12:35:20.205,14.2501,21.7501
12:35:20.215,13.2501,21.2501
12:35:20.225,14.3126,21.5626
12:35:20.240,14.3126,21.7501
12:35:20.245,14.5001,21.9376
12:35:20.255,14.8126,22.3751
12:35:20.265,15.4376,22.1876
12:35:20.275,14.8751,22.4376
12:35:20.285,14.3126,22.8751
12:35:20.294,15.0626,23.6876
12:35:20.306,15.3751,24.9376
12:35:20.315,15.5001,24.5001
12:35:20.325,15.7501,24.8751
12:35:20.335,15.9376,26.3751
12:35:20.357,17.0626,25.9376
12:35:20.368,16.1876,25.3126
12:35:20.411,14.3751,24.6251
12:35:20.473,13.125,21.8126
12:35:20.509,12.4375,19.0001
12:35:20.560,10.625,19.6251
12:35:20.560,11.1875,17.4376
12:35:20.560,9.875,15.8126
12:35:20.560,9.375,16.0001
12:35:20.562,9.5625,14.7501
12:35:20.570,9.0625,13.8751
12:35:20.570,9.3125,14.6251
12:35:20.570,9.5625,14.6251
12:35:20.578,9.5,13
12:35:20.585,8.8125,13.1251
12:35:20.595,8.125,13.5001
12:35:20.605,9,13.3126
12:35:20.615,8.5,12.5
12:35:20.626,8,11.875
12:35:20.636,7.75,12.5625
12:35:20.645,7.6875,11.8125
12:35:20.655,7.5,11.1875
12:35:20.665,7.8125,11.5625
12:35:20.675,8,10.5
12:35:20.685,9.875,9.375
12:35:20.696,9.25,8.625
12:35:20.705,9.3125,7.3125
12:35:20.715,8.375,7.3125
12:35:20.726,7.75,5.5
12:35:20.735,10.1875,3.4375
12:35:20.745,9.125,4.8125
12:35:20.755,8.9375,3.1875
12:35:20.765,8.4375,1.875
12:35:20.775,7.9375,1.375
12:35:20.785,6.9375,1.4375
12:35:20.796,7.25,-0.1875
12:35:20.806,7,-0.8125
12:35:20.815,7.1875,-0.625
12:35:20.825,7.875,-1.1875
12:35:20.835,6.9375,-1.5625
12:35:20.846,5.625,-1.625
12:35:20.855,5.5625,-3.1875
12:35:20.865,4.75,-4.1875
12:35:20.874,4.5625,-5.0625
12:35:20.885,4.4375,-5.125
12:35:20.894,4.1875,-6.25
12:35:20.906,4.25,-6.8125
12:35:20.915,3.8125,-6.6875
12:35:20.925,2.875,-7.4375
12:35:20.936,2.75,-8.625
12:35:20.945,1.875,-10.5
12:35:20.955,0.875,-10.875
12:35:20.966,1.1875,-10.625
12:35:20.975,1.8125,-11.75
12:35:20.990,2.375,-9.0625
12:35:20.995,4.5,-7.5
12:35:21.005,6.5625,-4.5625
12:35:21.015,9.625,1.375
12:35:21.026,12.875,7.625
12:35:21.035,14.0626,13.5626
12:35:21.045,16.5001,17.3126
12:35:21.055,16.8751,21.2501
12:35:21.066,18.2501,24.2501
12:35:21.075,19.2501,24.8751
12:35:21.086,18.7501,26.8126
12:35:21.095,19.2501,26.6251
12:35:21.105,19.0001,25.0626
12:35:21.115,17.8126,24.2501
12:35:21.124,17.1876,24.3126
12:35:21.135,17.8751,23.0626
12:35:21.146,16.5001,23.2501
12:35:21.156,16.0626,22.5626
12:35:21.165,15.9376,22.3126
12:35:21.176,15.0001,21.9376
12:35:21.200,15.0001,22.8751
12:35:21.204,13.9376,21.8751
12:35:21.206,14.2501,21.6876
12:35:21.241,14.0001,22.9376
12:35:21.243,14.3126,23.0626
12:35:21.245,14.5626,22.3126
12:35:21.248,13.1876,21.4376
12:35:21.281,11.75,20.5001
12:35:21.282,11.25,18.3751
12:35:21.286,9.75,15.8126
12:35:21.291,7.875,13.5626
12:35:21.295,6.5,12.5625
12:35:21.325,5.3125,10.9375
12:35:21.326,5.3125,9.9375
12:35:21.329,4.5625,8.5625
12:35:21.336,3.375,9
12:35:21.363,3.625,7.875
12:35:21.367,3.125,7.375
12:35:21.370,2.25,7.125
12:35:21.375,2.1875,6.125
12:35:21.386,1.3125,7
12:35:21.398,1.625,6.875
12:35:21.406,2.5,6.75
12:35:21.415,2,4.9375
12:35:21.426,1.8125,5.125
12:35:21.437,0.5625,5.25
12:35:21.445,-0.75,4
12:35:21.455,1.0625,2.9375
12:35:21.466,-1.3125,0.875
12:35:21.477,-3.1875,-0.125
12:35:21.486,-4.1875,-2.375
12:35:21.499,-5,-4.5625
12:35:21.508,-6.0625,-5.3125
12:35:21.516,-7,-5.875
12:35:21.526,-8.25,-6.3125
12:35:21.536,-8.4375,-7.75
12:35:21.546,-9.3125,-9.5625
12:35:21.556,-9.5,-9.6875
12:35:21.567,-9.9375,-9.75
12:35:21.576,-10.3125,-10.6875
12:35:21.585,-10.4375,-12.0625
12:35:21.597,-11.0625,-10.875
12:35:21.605,-9.5,-12.3125
12:35:21.616,-9.9375,-13.1876
12:35:21.626,-10.0625,-11.4375
12:35:21.636,-9.6875,-12.625
12:35:21.646,-9.8125,-13.8126
12:35:21.656,-8.3125,-12.3125
12:35:21.666,-6.9375,-12.8125
12:35:21.677,-5.4375,-11.0625
12:35:21.692,-4.0625,-10.375
12:35:21.707,-3.375,-8.8125
12:35:21.712,-2.8125,-9.875
12:35:21.719,-2.625,-8.875
12:35:21.727,-2.625,-10.3125
12:35:21.735,-2.1875,-9.625
12:35:21.747,-3.625,-11.375
12:35:21.784,-4.5625,-12.875
12:35:21.787,-4.875,-12.5625
12:35:21.789,-5.875,-14.9376
12:35:21.791,-6,-13.6876
12:35:21.797,-6.5625,-14.7501
12:35:21.806,-6.25,-15.6251
12:35:21.825,-6.25,-14.5001
12:35:21.828,-5.3125,-14.2501
12:35:21.842,-3.4375,-9.1875
12:35:21.851,0,-4.25
12:35:21.856,3.8125,1.9375
12:35:21.866,7.3125,8.3125
12:35:21.876,9.6875,14.6876
12:35:21.886,11.375,17.8751
12:35:21.905,12.0625,19.5626
12:35:21.907,11.6875,21.8751
12:35:21.940,12,20.6251
12:35:21.942,11.125,21.0626
12:35:21.945,12,20.6876
12:35:21.948,11.75,20.5001
12:35:21.979,11.875,20.4376
12:35:21.981,11.875,19.6251
12:35:21.984,11.625,20.9376
12:35:21.988,11.25,19.7501
12:35:22.023,9.75,19.4376
12:35:22.025,8.4375,19.6251
12:35:22.030,9.1875,19.0001
12:35:22.032,8.6875,21.1251
12:35:22.040,9.875,21.0001
12:35:22.070,10,20.6251
12:35:22.072,9.375,21.6876
12:35:22.076,9.5,21.3126
12:35:22.080,8.125,19.1251
12:35:22.087,6.3125,18.6251
12:35:22.096,4.9375,15.5626
12:35:22.106,3.6875,12.5
12:35:22.116,1.9375,11.875
12:35:22.126,2.875,9.4375
12:35:22.136,2,8.625
12:35:22.146,1.0625,7.3125
12:35:22.156,1.25,8.3125
12:35:22.167,1,7.8125
12:35:22.176,2.0625,7.9375
12:35:22.185,1.125,7.375
12:35:22.196,0.375,6.6875
12:35:22.206,1.25,6.3125
12:35:22.216,1.375,6.125
12:35:22.226,1.25,6.3125
12:35:22.236,1.375,6.6875
12:35:22.246,1.0625,5.875
12:35:22.256,0.125,4.25
12:35:22.266,-0.5625,4.1875
12:35:22.276,-1.125,3
12:35:22.286,-1.75,1.6875
12:35:22.296,-1.6875,0.75
12:35:22.306,-2,0.125
12:35:22.316,-1.0625,1.8125
12:35:22.326,-0.1875,0.3125
12:35:22.336,-1.25,-0.1875
12:35:22.346,-0.4375,-0.625
12:35:22.356,-0.75,-1.4375
12:35:22.366,-1.1875,-1.875
12:35:22.376,-1.3125,-0.875
12:35:22.386,-0.6875,-2.3125
12:35:22.396,-0.5,-3.0625
12:35:22.406,-0.625,-3.9375
12:35:22.416,-1.625,-4.0625
12:35:22.426,-1.5625,-5.0625
12:35:22.436,-1.8125,-5.4375
12:35:22.446,-2.3125,-6.0625
12:35:22.456,-3,-6.875
12:35:22.471,-2.625,-7.375
12:35:22.477,-3.4375,-8.0625
12:35:22.486,-3.1875,-8.4375
12:35:22.496,-4.1875,-9.25
12:35:22.513,-4,-9.8125
12:35:22.516,-5.0625,-11.125
12:35:22.526,-4.6875,-11.25
12:35:22.537,-5.125,-11.3125
12:35:22.547,-4.4375,-12.375
12:35:22.556,-4,-12.5
12:35:22.566,-3.375,-12
12:35:22.576,-3.8125,-12.375
12:35:22.586,-2.6875,-12.125
12:35:22.596,-4.3125,-13
12:35:22.606,-4.4375,-14.1251
12:35:22.625,-5.125,-14.8751
12:35:22.627,-4.875,-15.0001
12:35:22.656,-4.75,-15.5001
12:35:22.659,-4.5,-15.5001
12:35:22.661,-4.5625,-16.8126
12:35:22.668,-4.75,-15.6876
12:35:22.705,-4.625,-17.1251
12:35:22.708,-5.125,-18.0001
12:35:22.710,-5.1875,-18.3126
12:35:22.716,-4.625,-18.5626
12:35:22.716,-4.4375,-18.6876
12:35:22.763,-4.8125,-18.8751
12:35:22.764,-4.6875,-19.6251
12:35:22.766,-3.9375,-19.3126
12:35:22.769,-3.5625,-17.9376
12:35:22.771,-1.125,-16.0001
12:35:22.799,0.3125,-12.4375
12:35:22.801,4.125,-5.875
12:35:22.803,7,0.625
12:35:22.809,10,6.875
12:35:22.818,13.1876,12.75
12:35:22.826,15.2501,17.1251
12:35:22.836,17.0626,20.5001
12:35:22.846,18.1876,22.4376
12:35:22.858,18.9376,22.6251
12:35:22.866,18.1251,22.7501
12:35:22.876,17.5001,22.6251
12:35:22.887,16.7501,20.4376
12:35:22.896,16.6876,20.4376
12:35:22.907,16.1251,19.0001
12:35:22.916,17.0626,20.4376
12:35:22.926,16.6251,20.4376
12:35:22.936,16.0626,21.0626
12:35:22.946,17.3751,20.9376
12:35:22.956,16.3126,20.9376
12:35:22.966,15.5626,20.8751
12:35:22.976,15.1876,21.2501
12:35:22.994,14.6876,20.1876
12:35:23.000,14.0626,20.5626
12:35:23.006,13.3751,20.6251
12:35:23.021,13,19.4376
12:35:23.030,12.25,17.6876
12:35:23.036,10.875,16.0626
12:35:23.064,10,15.3751
12:35:23.068,10.0625,13.1876
12:35:23.069,8.5625,10.5625
12:35:23.076,8,10.625
12:35:23.087,8.8125,10.5625
12:35:23.096,8.375,9.375
12:35:23.106,8.8125,10.25
12:35:23.129,9.5,11.125
12:35:23.132,10.5625,11.125
12:35:23.145,10.9375,11.25
12:35:23.147,11.0625,12.375
12:35:23.163,11.1875,11.9375
12:35:23.166,11.5625,11.5625
12:35:23.176,11.5625,11.0625
12:35:23.186,11.625,11.5625
12:35:23.196,12.25,11.1875
12:35:23.206,12.8125,10.75
12:35:23.216,13,10.75
12:35:23.226,12.3125,10.3125
12:35:23.236,12.875,9.875
12:35:23.246,12.5,9.875
12:35:23.260,13.1876,8.125
12:35:23.266,12.6875,6.625
12:35:23.279,12.25,6.875
12:35:23.286,11.9375,7.1875
12:35:23.297,13.125,5.375
12:35:23.306,14.1876,6.0625
12:35:23.321,14.8751,6.75
12:35:23.327,14.5001,6
12:35:23.356,14.8126,5.6875
12:35:23.358,14.4376,5.625
12:35:23.361,13.8751,4.125
12:35:23.366,13.0625,3.4375
12:35:23.395,13.6876,4.375
12:35:23.398,13.3751,3.125
12:35:23.400,13.4376,2.5625
12:35:23.407,13.2501,3.5625
12:35:23.445,13.8751,2.5
12:35:23.446,13.1876,1.5625
12:35:23.450,13.0625,1.5
12:35:23.478,13.2501,1.9375
12:35:23.479,13.8751,1.25
12:35:23.481,12.5,-0.5
12:35:23.482,12.4375,-0.5625
12:35:23.487,11.8125,-0.875
12:35:23.496,12.0625,-2.1875
12:35:23.506,11,-3.625
12:35:23.516,9.875,-4.125
12:35:23.526,10.125,-4.8125
12:35:23.536,8.8125,-6.3125
12:35:23.547,7.5625,-8.125
12:35:23.556,6.625,-7.75
12:35:23.566,5.5625,-9.375
12:35:23.576,4.3125,-10.6875
12:35:23.586,3.9375,-11.875
12:35:23.596,1.6875,-13.6876
12:35:23.606,0.5,-14.8751
12:35:23.616,-0.0625,-14.7501
12:35:23.626,-0.4375,-15.3751
12:35:23.639,0.0625,-13.2501
12:35:23.647,2,-8.875
12:35:23.657,4.5625,-4.6875
12:35:23.666,6.1875,2.4375
12:35:23.676,9.25,6.8125
12:35:23.686,11.375,10.6875
12:35:23.697,12.625,15.1876
12:35:23.706,12.75,15.5626
12:35:23.716,12.5,16.1876
12:35:23.726,12.125,16.4376
12:35:23.737,10.4375,15.2501
12:35:23.747,9.625,13.8126
12:35:23.756,8.375,12.25
12:35:23.766,6.9375,12.625
12:35:23.777,6.5,11
12:35:23.788,5.9375,9.3125
12:35:23.797,5.75,10.6875
12:35:23.806,4.9375,10.5
12:35:23.816,5.125,9.5
12:35:23.827,4.0625,9.25
12:35:23.836,3.4375,10.1875
12:35:23.846,3.8125,9.125
12:35:23.856,3.1875,8.625
12:35:23.866,2.8125,10.375
12:35:23.877,3.375,9.1875
12:35:23.886,2.625,7.75
12:35:23.896,0.75,5.625
12:35:23.906,-1.6875,3.9375
12:35:23.916,-3,1.0625
12:35:23.926,-5.125,-1.6875
12:35:23.936,-6,-2.8125
12:35:23.946,-6.0625,-2.75
12:35:23.956,-5.5,-3.0625
12:35:23.966,-6.25,-4.625
12:35:23.976,-5.9375,-3.25
12:35:23.987,-5.9375,-3.5625
12:35:23.996,-5.875,-4.5625
12:35:24.012,-7.4375,-5.0625
12:35:24.016,-8.5625,-5.5625
12:35:24.026,-9.0625,-5.1875
12:35:24.036,-8.8125,-6.8125
12:35:24.046,-8.9375,-7.4375
12:35:24.056,-9,-7.125
12:35:24.098,-8.625,-7.9375
12:35:24.100,-10.5625,-9.5
12:35:24.102,-11.375,-10.25
12:35:24.135,-12.4375,-11.6875
12:35:24.136,-12.8125,-12.4375
12:35:24.138,-12.0625,-13.2501
12:35:24.143,-10.5625,-12.375
12:35:24.146,-9.875,-12.375
12:35:24.156,-8.125,-11.75
12:35:24.162,-8.375,-11.5625
12:35:24.196,-7.125,-11.625
12:35:24.199,-8.125,-11.5625
12:35:24.202,-8.6875,-13.3126
12:35:24.206,-9.3125,-14.4376
12:35:24.238,-9.5,-14.5626
12:35:24.241,-9.9375,-16.1251
12:35:24.243,-8.875,-14.3751
12:35:24.246,-7.9375,-16.2501
12:35:24.274,-8.3125,-14.1251
12:35:24.275,-8.5625,-14.9376
12:35:24.277,-8.6875,-16.5001
12:35:24.282,-9.5625,-17.2501
12:35:24.291,-9.25,-17.0001
12:35:24.301,-9.25,-17.8751
12:35:24.317,-10.625,-18.1251
12:35:24.344,-10.5625,-19.3751
12:35:24.346,-11.625,-19.3126
12:35:24.361,-11.8125,-21.1876
12:35:24.365,-12.625,-22.4376
12:35:24.378,-13.9376,-22.8126
12:35:24.379,-14.0626,-24.3126
12:35:24.383,-15.7501,-25.9376
12:35:24.395,-16.5626,-26.5001
12:35:24.401,-14.0626,-24.9376
12:35:24.411,-14.0001,-23.6876
12:35:24.431,-14.0001,-25.2501
12:35:24.434,-13.125,-21.9376
12:35:24.446,-11.3125,-21.6251
12:35:24.451,-9.625,-21.5626
12:35:24.466,-11.5,-21.8126
12:35:24.473,-14.3126,-23.8751
12:35:24.481,-22.1876,-29.1251
12:35:24.491,-31.6876,-37.1251
12:35:24.501,-39.3127,-40.1877
12:35:24.512,-46.3752,-42.6252
12:35:24.521,-56.5627,-47.5002
12:35:24.531,-62.3752,-47.3127
12:35:24.542,-63.1252,-45.8752
12:35:24.552,-65.6252,-46.3127
12:35:24.561,-71.8128,-47.3752
12:35:24.571,-79.3753,-51.4377
12:35:24.581,-88.2503,-58.6252
12:35:24.591,-95.5004,-63.6877
12:35:24.601,-100.0004,-66.5628
12:35:24.612,-105.2504,-71.5628
12:35:24.621,-111.3129,-75.6253
12:35:24.631,-117.438,-81.0628
12:35:24.641,-118.688,-83.0628
12:35:24.651,-117.313,-80.5628
12:35:24.662,-116.0004,-78.6253
12:35:24.671,-113.5629,-77.4378
12:35:24.681,-112.1879,-74.9378
12:35:24.691,-110.1254,-71.5628
12:35:24.702,-109.3129,-71.5628
12:35:24.711,-111.4379,-71.1253
12:35:24.721,-112.9379,-73.7503
12:35:24.732,-112.3129,-73.3128
12:35:24.741,-108.5629,-70.0628
12:35:24.752,-105.7504,-68.5003
12:35:24.761,-104.6879,-67.2503
12:35:24.777,-105.0629,-69.0003
12:35:24.782,-105.2504,-69.6253
12:35:24.791,-105.5004,-71.5003
12:35:24.801,-105.7504,-74.2503
12:35:24.812,-105.5629,-75.9378
12:35:24.823,-104.5004,-77.1253
12:35:24.831,-102.2504,-76.3753
12:35:24.841,-100.2504,-76.5628
12:35:24.858,-96.0629,-74.2503
12:35:24.861,-93.6879,-71.4378
12:35:24.888,-91.3129,-71.2503
12:35:24.892,-89.1253,-70.1253
12:35:24.894,-87.5003,-69.4378
12:35:24.932,-85.1253,-69.1878
12:35:24.933,-83.8128,-68.8753
12:35:24.937,-82.8128,-67.8753
12:35:24.940,-81.8128,-67.6878
12:35:24.945,-79.4378,-67.1878
12:35:24.951,-78.0003,-66.4378
12:35:24.984,-77.4378,-64.7502
12:35:24.987,-76.8128,-66.8128
12:35:24.989,-76.1253,-65.3128
12:35:24.991,-74.5003,-66.5003
12:35:25.024,-72.2503,-65.7503
12:35:25.026,-70.8128,-66.3128
12:35:25.030,-66.9378,-64.6877
12:35:25.032,-64.5627,-62.6252
12:35:25.043,-62.8127,-61.9377
12:35:25.053,-61.1252,-61.5627
12:35:25.062,-60.7502,-61.6877
12:35:25.071,-59.7502,-61.1877
12:35:25.082,-59.0627,-62.3127
12:35:25.092,-57.8752,-61.9377
12:35:25.102,-57.1252,-60.5002
12:35:25.111,-57.0002,-62.2502
12:35:25.121,-55.8127,-60.4377
12:35:25.133,-55.0627,-60.3127
12:35:25.142,-55.9377,-60.8752
12:35:25.151,-55.6877,-60.1252
12:35:25.161,-54.8752,-60.7502
12:35:25.172,-55.6252,-59.6252
12:35:25.181,-55.6252,-60.7502
12:35:25.193,-56.1877,-62.0002
12:35:25.201,-57.1877,-62.0002
12:35:25.211,-57.9377,-63.8752
12:35:25.221,-59.0627,-63.9377
12:35:25.232,-59.9377,-65.3127
12:35:25.243,-59.5627,-64.5627
12:35:25.253,-59.7502,-65.3752
12:35:25.262,-59.1877,-64.7502
12:35:25.272,-59.1877,-64.3127
12:35:25.281,-59.3127,-64.7502
12:35:25.293,-58.4377,-64.5002
12:35:25.301,-58.4377,-64.1877
12:35:25.311,-58.0627,-64.1877
12:35:25.321,-58.5002,-64.4377
12:35:25.332,-57.6252,-64.4377
12:35:25.343,-57.6252,-65.3128
12:35:25.352,-57.1877,-65.1878
12:35:25.366,-56.7502,-65.5627
12:35:25.373,-55.3752,-63.5627
12:35:25.381,-55.5627,-63.3127
12:35:25.393,-55.3752,-64.3127
12:35:25.401,-56.2502,-64.0627
12:35:25.411,-57.1877,-64.3127
12:35:25.421,-57.9377,-64.0627
12:35:25.431,-57.6252,-64.0627
12:35:25.442,-57.0627,-62.6877
12:35:25.451,-55.5002,-59.5627
12:35:25.462,-51.3127,-54.3752
12:35:25.471,-46.6877,-47.6877
12:35:25.482,-41.7502,-39.6877
12:35:25.491,-37.0626,-31.6251
12:35:25.502,-35.6251,-26.3126
12:35:25.511,-37.3751,-23.1251
12:35:25.524,-37.0001,-21.3751
12:35:25.536,-38.3751,-21.1251
12:35:25.543,-38.2501,-20.8751
12:35:25.551,-39.6252,-19.8126
12:35:25.561,-39.4377,-19.6251
12:35:25.590,-40.3752,-19.6876
12:35:25.592,-40.0002,-19.8126
12:35:25.595,-40.7502,-19.6876
12:35:25.626,-39.3751,-19.5001
12:35:25.628,-39.3752,-18.3126
12:35:25.630,-38.2501,-17.1876
12:35:25.675,-37.0626,-15.1876
12:35:25.676,-35.0626,-13.0625
12:35:25.705,-33.5001,-12.75
12:35:25.709,-32.9376,-11.1875
12:35:25.710,-33.5626,-13.0625
12:35:25.710,-34.3751,-12.5625
12:35:25.710,-33.9376,-13.4376
12:35:25.717,-33.8126,-12.5
12:35:25.752,-33.0626,-13.1251
12:35:25.768,-31.7501,-14.5001
12:35:25.771,-31.3126,-13.8751
12:35:25.785,-28.6876,-14.5001
12:35:25.787,-27.4376,-13.3751
12:35:25.791,-25.0626,-14.4376
12:35:25.791,-22.7501,-13.4376
12:35:25.798,-20.4376,-13.5626
12:35:25.806,-18.4376,-12.3125
12:35:25.818,-16.5626,-11.6875
12:35:25.827,-15.6251,-11.125
12:35:25.836,-13.3751,-10.875
12:35:25.847,-12.8125,-11.3125
12:35:25.856,-12.1875,-11
12:35:25.868,-10.875,-11.3125
12:35:25.876,-8.75,-11
12:35:25.888,-7.75,-11.375
12:35:25.903,-8.4375,-12.3125
12:35:25.906,-8.375,-13.125
12:35:25.918,-7.375,-14.7501
12:35:25.927,-6.625,-14.6251
12:35:25.937,-4.4375,-14.2501
12:35:25.946,-3.375,-14.8751
12:35:25.958,-3.3125,-15.1251
12:35:25.966,-3.1875,-15.8126
12:35:25.977,-4.4375,-15.7501
12:35:25.986,-4.75,-17.0626
12:35:25.996,-5.0625,-17.8126
12:35:26.008,-5.9375,-18.5001
12:35:26.016,-6,-19.3126
12:35:26.027,-7.125,-19.8126
12:35:26.037,-8.0625,-21.9376
12:35:26.047,-9.6875,-21.5001
12:35:26.057,-11.4375,-24.1251
12:35:26.066,-12.6875,-25.8751
12:35:26.078,-14.2501,-26.6876
12:35:26.086,-15.8126,-26.6876
12:35:26.097,-16.1876,-28.0626
12:35:26.106,-17.3751,-29.3126
12:35:26.117,-18.4376,-29.4376
12:35:26.126,-20.3751,-31.5001
12:35:26.138,-21.6251,-32.3126
12:35:26.146,-23.3751,-34.1876
12:35:26.157,-25.3751,-35.1251
12:35:26.166,-26.4376,-36.2501
12:35:26.177,-26.3751,-36.6251
12:35:26.186,-26.2501,-35.1876
12:35:26.197,-25.3751,-36.1876
12:35:26.206,-25.1876,-35.5001
12:35:26.218,-26.4376,-36.8126
12:35:26.226,-26.1876,-38.4376
12:35:26.237,-26.1876,-37.5626
12:35:26.246,-27.5001,-39.6877
12:35:26.281,-27.4376,-39.6252
12:35:26.282,-27.1876,-40.5627
12:35:26.285,-25.0001,-38.8126
12:35:26.287,-23.4376,-38.6251
12:35:26.317,-23.0001,-38.3751
12:35:26.319,-21.0001,-38.0626
12:35:26.324,-22.2501,-37.6251
12:35:26.327,-23.0626,-38.3126
12:35:26.353,-23.8751,-38.6251
12:35:26.355,-24.1876,-37.6876
12:35:26.358,-26.4376,-38.0001
12:35:26.385,-26.9376,-37.8126
12:35:26.387,-25.7501,-35.4376
12:35:26.389,-23.1251,-29.5001
12:35:26.425,-18.5001,-21.0001
12:35:26.426,-13.6251,-12.4375
12:35:26.429,-8.5625,-4.25
12:35:26.436,-4.8125,1.4375
12:35:26.438,-3.875,7
12:35:26.452,-4.875,8.1875
12:35:26.457,-7.4375,5.375
12:35:26.467,-10.5625,4.5
12:35:26.476,-12.5,2.6875
12:35:26.487,-13.9376,1.75
12:35:26.497,-14.3126,0
12:35:26.506,-14.4376,1.375
12:35:26.520,-14.4376,1.125
12:35:26.529,-14.6251,0.375
12:35:26.538,-15.3751,-0.125
12:35:26.547,-15.7501,-0.9375
12:35:26.557,-15.2501,1.125
12:35:26.567,-14.4376,-0.0625
12:35:26.577,-12.9375,2
12:35:26.587,-11.375,3.125
12:35:26.597,-10.5,4.375
12:35:26.606,-7.625,5.75
12:35:26.617,-6.9375,7.1875
12:35:26.626,-7.125,7.25
12:35:26.638,-8.125,4.875
12:35:26.646,-8.75,2.625
12:35:26.656,-9.5,1.75
12:35:26.667,-9.625,-1.25
12:35:26.678,-9.0625,-2.0625
12:35:26.687,-8.0625,-1.625
12:35:26.696,-6.125,-2.875
12:35:26.707,-4,-0.8125
12:35:26.716,-1.4375,-1
12:35:26.729,-0.5625,-0.8125
12:35:26.738,0.4375,0.1875
12:35:26.747,1.5625,-0.25
12:35:26.757,2.9375,1.0625
12:35:26.767,4.625,0.75
12:35:26.777,5.375,1.375
12:35:26.787,6.375,1.25
12:35:26.797,7.5,1.625
12:35:26.806,9.9375,1.6875
12:35:26.819,11.25,2.3125
12:35:26.830,12.4375,4.4375
12:35:26.839,14.6876,3.8125
12:35:26.846,15.0001,5.0625
12:35:26.857,16.2501,3.0625
12:35:26.867,15.6251,4
12:35:26.876,16.1251,2.375
12:35:26.905,15.7501,2.75
12:35:26.906,14.8751,0.9375
12:35:26.909,14.7501,-0.25
12:35:26.917,14.0001,-0.0625
12:35:26.927,14.1876,-1.5625
12:35:26.937,11,-4
12:35:26.958,8.5,-5.8125
12:35:26.961,6,-7.375
12:35:26.968,4.4375,-9.8125
12:35:26.996,0.5,-13.125
12:35:26.998,-1.8125,-14.8751
12:35:27.026,-3.8125,-15.2501
12:35:27.067,-5.375,-16.9376
12:35:27.067,-8.5625,-19.3126
12:35:27.067,-10.625,-18.8751
12:35:27.070,-12.3125,-21.7501
12:35:27.070,-14.1251,-22.8751
12:35:27.137,-15.4376,-23.1876
12:35:27.138,-16.2501,-22.3751
12:35:27.138,-15.7501,-23.6876
12:35:27.140,-17.6876,-24.2501
12:35:27.144,-17.5001,-24.3751
12:35:27.150,-17.0001,-25.6251
12:35:27.150,-17.3126,-24.9376
12:35:27.150,-18.0626,-26.0001
12:35:27.157,-17.7501,-26.5626
12:35:27.169,-17.8126,-27.1876
12:35:27.178,-17.3126,-26.6876
12:35:27.187,-17.4376,-27.6251
12:35:27.202,-16.9376,-28.5626
12:35:27.207,-16.5626,-29.0001
12:35:27.217,-14.3126,-27.8126
12:35:27.227,-10.6875,-25.3751
12:35:27.237,-8.0625,-24.1876
12:35:27.247,-4.75,-21.6876
12:35:27.257,0.0625,-16.3751
12:35:27.267,9.5625,7.5
12:35:27.277,10.75,16.4376
12:35:27.287,12.1875,24.0001
12:35:27.297,12.125,26.8751
12:35:27.307,12.25,24.5001
12:35:27.319,12.4375,24.2501
12:35:27.327,11.625,25.5001
12:35:27.337,10.3125,24.5001
12:35:27.347,8.75,23.3126
12:35:27.358,7.1875,19.8126
12:35:27.367,7.1875,20.4376
12:35:27.377,8.375,21.0626
12:35:27.387,8.5,24.4376
12:35:27.399,8.5625,23.3126
12:35:27.407,8.75,23.9376
12:35:27.418,9.375,23.2501
12:35:27.427,9.4375,23.6251
12:35:27.437,9.6875,23.1251
12:35:27.447,11.5,22.3751
12:35:27.457,13.4376,22.8126
12:35:27.467,16.3126,25.5626
12:35:27.477,18.9376,26.4376
12:35:27.487,20.4376,26.0626
12:35:27.498,22.0626,26.0001
12:35:27.509,23.6876,26.1251
12:35:27.518,23.8751,24.5001
12:35:27.527,24.8751,25.4376
12:35:27.538,25.2501,24.3751
12:35:27.547,27.0626,23.6251
12:35:27.557,28.5626,25.1876
12:35:27.567,32.4376,26.6876
12:35:27.581,35.1876,27.7501
12:35:27.587,36.7501,27.6876
12:35:27.597,38.5626,29.8751
12:35:27.608,39.3127,29.2501
12:35:27.617,38.5001,28.1251
12:35:27.627,37.6251,27.6251
12:35:27.637,37.5626,25.8751
12:35:27.648,37.8126,24.3751
12:35:27.657,37.5001,25.7501
12:35:27.670,37.2501,24.6251
12:35:27.679,36.4376,23.3751
12:35:27.687,34.1251,22.5001
12:35:27.726,31.8126,19.6876
12:35:27.728,28.0001,16.7501
12:35:27.732,24.4376,14.5626
12:35:27.733,21.2501,11.4375
12:35:27.738,17.3126,8.0625
12:35:27.774,14.3751,7.5
12:35:27.777,10.375,4.4375
12:35:27.779,5.8125,-0.375
12:35:27.808,1.375,-4.1875
12:35:27.808,-3.125,-7
12:35:27.810,-6.125,-9.9375
12:35:27.819,-9.0625,-12.3125
12:35:27.819,-11.75,-14.8126
12:35:27.833,-13.6251,-14.2501
12:35:27.837,-15.1876,-16.5626
12:35:27.872,-16.4376,-18.2501
12:35:27.874,-19.6251,-20.3126
12:35:27.878,-22.0626,-20.8751
12:35:27.883,-24.0626,-23.7501
12:35:27.888,-27.1251,-26.6251
12:35:27.897,-28.1876,-29.5626
12:35:27.908,-29.3751,-30.3126
12:35:27.917,-28.5626,-32.1876
12:35:27.928,-27.5626,-33.3126
12:35:27.937,-26.6876,-32.9376
12:35:27.947,-24.9376,-33.3126
12:35:27.957,-24.4376,-34.3751
12:35:27.969,-23.7501,-35.3126
12:35:27.977,-21.8126,-36.5001
12:35:27.987,-20.5001,-36.6251
12:35:27.997,-17.8126,-36.2501
12:35:28.007,-14.6251,-33.5001
12:35:28.017,-10.625,-32.3126
12:35:28.027,-7.4375,-28.6876
12:35:28.037,-5.25,-28.4376
12:35:28.047,-1.1875,-26.8126
12:35:28.057,2.5,-25.5001
12:35:28.069,3.5,-25.2501
12:35:28.078,4.3125,-25.5001
12:35:28.087,2.75,-25.1251
12:35:28.097,0.5,-26.5626
12:35:28.112,-0.125,-26.9376
12:35:28.122,-1.5625,-27.3751
12:35:28.134,-4.125,-25.8751
12:35:28.143,-6.875,-24.5001
12:35:28.152,-9.5,-25.7501
12:35:28.185,-12.3125,-25.8126
12:35:28.186,-16.5626,-27.3126
12:35:28.189,-18.8751,-27.2501
12:35:28.192,-20.6251,-27.4376
12:35:28.204,-19.6876,-23.3751
12:35:28.212,-17.6876,-19.0626
12:35:28.224,-14.0626,-10.75
12:35:28.234,-9.1875,-3.1875
12:35:28.243,-6.625,2.75
12:35:28.252,-3.875,9.8125
12:35:28.262,-0.25,12.375
12:35:28.280,1.8125,15.1251
12:35:28.286,1.1875,13.9376
12:35:28.301,1.125,14.0001
12:35:28.303,2.1875,12.625
12:35:28.318,1.875,13.7501
12:35:28.323,3.4375,11.9375
12:35:28.334,3.4375,11.625
12:35:28.343,4.625,12.5
12:35:28.352,6.375,12
12:35:28.362,8.375,14.5001
12:35:28.380,10.875,14.3126
12:35:28.382,13.3751,15.9376
12:35:28.397,15.3126,18.0001
12:35:28.429,17.3126,18.8126
12:35:28.431,19.0626,19.1251
12:35:28.435,21.2501,20.7501
12:35:28.436,23.0626,20.3126
12:35:28.465,23.5001,20.5001
12:35:28.468,23.8751,19.1251
12:35:28.470,25.1876,18.4376
12:35:28.473,25.1876,16.0001
12:35:28.512,26.0626,14.1876
12:35:28.513,25.3126,12.75
12:35:28.516,26.1251,13
12:35:28.517,24.7501,10.4375
12:35:28.548,24.7501,10.8125
12:35:28.551,24.2501,10.875
12:35:28.554,23.4376,9.25
12:35:28.559,22.2501,8.25
12:35:28.562,20.0001,7.4375
12:35:28.584,18.8751,6.0625
12:35:28.586,16.8126,3.9375
12:35:28.592,12.6875,1.6875
12:35:28.602,9.0625,-0.375
12:35:28.612,6.125,-3
12:35:28.622,2.125,-5.75
12:35:28.632,-0.875,-8.1875
12:35:28.644,-4.5,-9.1875
12:35:28.654,-6.1875,-11.5625
12:35:28.662,-9.4375,-14.2501
12:35:28.673,-12.9375,-15.3126
12:35:28.685,-14.7501,-18.2501
12:35:28.692,-18.2501,-21.6251
12:35:28.706,-19.4376,-21.0626
12:35:28.712,-21.5001,-23.5001
12:35:28.722,-22.6876,-23.8751
12:35:28.732,-23.0626,-25.0626
12:35:28.742,-24.3751,-26.5626
12:35:28.752,-25.4376,-27.8126
12:35:28.764,-26.0626,-26.6876
12:35:28.772,-26.3751,-28.3126
12:35:28.782,-27.3126,-29.0001
12:35:28.796,-27.4376,-29.8751
12:35:28.802,-26.7501,-29.4376
12:35:28.812,-25.8751,-30.5626
12:35:28.822,-23.5626,-29.9376
12:35:28.832,-21.9376,-30.3751
12:35:28.842,-20.2501,-29.1876
12:35:28.853,-18.5626,-29.5001
12:35:28.862,-17.4376,-27.8751
12:35:28.875,-15.2501,-28.5001
12:35:28.882,-13.6251,-25.5001
12:35:28.893,-10.6875,-25.3126
12:35:28.902,-7.125,-23.3751
12:35:28.912,-6.6875,-25.2501
12:35:28.922,-5.5,-25.6876
12:35:28.933,-6.0625,-25.6251
12:35:28.945,-8.5625,-27.1876
12:35:28.953,-9.1875,-26.1251
12:35:28.963,-11.625,-25.5626
12:35:28.974,-13.0625,-23.8751
12:35:28.983,-14.9376,-22.2501
12:35:28.992,-15.8751,-22.3751
12:35:29.002,-18.8126,-22.7501
12:35:29.012,-19.5626,-24.3126
12:35:29.022,-20.5001,-25.7501
12:35:29.033,-22.3126,-25.7501
12:35:29.042,-23.8751,-24.3126
12:35:29.053,-25.8751,-25.6251
12:35:29.062,-28.4376,-27.7501
12:35:29.073,-28.8126,-28.9376
12:35:29.087,-28.6876,-30.4376
12:35:29.094,-29.5001,-29.8751
12:35:29.103,-28.8751,-31.5001
12:35:29.115,-29.1876,-31.8751
12:35:29.125,-28.8126,-32.0001
12:35:29.132,-28.1251,-30.8126
12:35:29.146,-25.8751,-30.1876
12:35:29.152,-22.1251,-25.3751
12:35:29.162,-16.4376,-19.0626
12:35:29.174,-11.3125,-10.75
12:35:29.184,-5.375,-4.75
12:35:29.195,-1.1875,2.5625
12:35:29.202,3.4375,6.625
12:35:29.225,6.4375,10.75
12:35:29.230,9.1875,11.9375
12:35:29.261,10.5625,12.1875
12:35:29.264,11.125,12.0625
12:35:29.266,12.1875,11.5
12:35:29.268,13.2501,11.875
12:35:29.274,13.8126,10.25
12:35:29.305,15.8751,11.75
12:35:29.308,17.9376,11.5
12:35:29.340,20.2501,13.8126
12:35:29.343,22.6251,14.5001
12:35:29.344,25.5626,15.9376
12:35:29.347,27.0626,18.0001
12:35:29.350,28.0001,18.9376
12:35:29.375,29.3751,19.4376
12:35:29.377,29.0001,19.1876
12:35:29.380,28.1876,19.9376
12:35:29.397,25.8126,17.5001
12:35:29.398,25.1876,15.3751
12:35:29.403,22.1251,12.6875
12:35:29.412,20.0001,10.875
12:35:29.422,18.0626,8.75
12:35:29.433,16.2501,5.9375
12:35:29.463,12.4375,2
12:35:29.466,9.125,1.5625
12:35:29.469,6.6875,-0.3125
12:35:29.473,3.9375,-2.625
12:35:29.486,0.9375,-5.0625
12:35:29.495,0,-6.125
12:35:29.503,-2.9375,-5.5625
12:35:29.512,-3.625,-6.9375
12:35:29.522,-7.25,-8.9375
12:35:29.532,-10.375,-10.625
12:35:29.542,-12.3125,-12.1875
12:35:29.552,-13.7501,-14.3751
12:35:29.562,-16.5626,-16.7501
12:35:29.574,-18.6251,-16.5001
12:35:29.588,-19.6251,-19.6876
12:35:29.603,-21.4376,-22.5001
12:35:29.606,-22.0626,-22.2501
12:35:29.614,-21.3126,-23.3751
12:35:29.623,-21.6251,-24.1876
12:35:29.633,-22.3126,-24.2501
12:35:29.645,-21.8751,-26.4376
12:35:29.655,-21.6251,-27.8751
12:35:29.664,-21.6251,-28.0626
12:35:29.682,-21.8751,-30.2501
12:35:29.683,-19.8751,-30.2501
12:35:29.698,-18.6251,-31.0001
12:35:29.715,-17.0001,-30.3751
12:35:29.720,-15.1251,-29.8126
12:35:29.723,-12.125,-27.1876
12:35:29.733,-9,-25.2501
12:35:29.743,-4.8125,-22.1251
12:35:29.753,0.5,-19.4376
12:35:29.763,1.8125,-19.0626
12:35:29.773,3.4375,-15.8126
12:35:29.784,3.875,-17.6251
12:35:29.796,2.5625,-18.5001
12:35:29.802,0.25,-17.7501
12:35:29.812,-2.5,-18.6876
12:35:29.823,-5.25,-20.1876
12:35:29.832,-7.5625,-20.6876
12:35:29.844,-8.1875,-19.6251
12:35:29.853,-9.875,-19.1876
12:35:29.867,-11.125,-18.0626
12:35:29.872,-13.1876,-18.1876
12:35:29.884,-15.5626,-20.7501
12:35:29.894,-17.7501,-23.0001
12:35:29.902,-19.6876,-24.6251
12:35:29.912,-20.7501,-25.8751
12:35:29.922,-20.6251,-25.6251
12:35:29.940,-20.6251,-25.6251
12:35:29.942,-20.0626,-25.9376
12:35:29.980,-19.1876,-24.5626
12:35:29.982,-19.6251,-25.4376
12:35:29.985,-19.4376,-25.5626
12:35:29.987,-18.9376,-26.6251
12:35:29.992,-18.8126,-26.5626
12:35:30.025,-17.0626,-27.2501
12:35:30.027,-15.4376,-24.7501
12:35:30.028,-12.125,-23.3751
12:35:30.035,-7.9375,-18.6251
12:35:30.043,-2.6875,-12.9375
12:35:30.074,2,-5.5
12:35:30.077,7.125,1
12:35:30.078,12.125,8.875
12:35:30.084,16.4376,13.5001
12:35:30.114,18.7501,17.5626
12:35:30.116,20.8126,19.1251
12:35:30.118,22.0626,20.8751
12:35:30.124,23.0001,21.3126
12:35:30.133,24.0001,22.7501
12:35:30.145,26.1876,21.9376
12:35:30.152,27.6251,21.7501
12:35:30.163,29.0001,21.5001
12:35:30.172,29.4376,22.8126
12:35:30.183,31.2501,23.0001
12:35:30.192,32.3126,22.6876
12:35:30.203,32.9376,24.5001
12:35:30.212,32.5626,23.3126
12:35:30.223,31.5626,22.7501
12:35:30.233,30.1251,23.2501
12:35:30.244,28.9376,23.0001
12:35:30.254,26.8751,20.7501
12:35:30.262,24.1251,17.7501
12:35:30.272,21.3126,15.5001
12:35:30.282,18.3751,13.5001
12:35:30.293,16.0626,9.875
12:35:30.302,13.1876,7.3125
12:35:30.313,10.0625,5.0625
12:35:30.322,8.625,2.875
12:35:30.333,5.0625,-1.0625
12:35:30.344,2.75,-1.75
12:35:30.354,2,-3.1875
12:35:30.362,-0.25,-4.5625
12:35:30.373,-3.25,-6.4375
12:35:30.383,-4.8125,-6.8125
12:35:30.392,-6.1875,-8.9375
12:35:30.402,-7.625,-10.8125
12:35:30.412,-9.6875,-10.25
12:35:30.422,-9.8125,-13.125
12:35:30.433,-10.6875,-13.2501
12:35:30.444,-9.375,-12.875
12:35:30.452,-10.1875,-15.5626
12:35:30.462,-10.75,-15.6876
12:35:30.473,-11.5625,-18.0626
12:35:30.482,-11.0625,-19.4376
12:35:30.492,-10.625,-18.8126
12:35:30.502,-8.625,-20.5001
12:35:30.513,-8.125,-22.1876
12:35:30.522,-6.875,-20.9376
12:35:30.533,-3.625,-21.8126
12:35:30.542,-3.625,-21.7501
12:35:30.554,-2.625,-23.0626
12:35:30.564,-2.625,-23.9376
12:35:30.573,-3.6875,-22.5626
12:35:30.584,-3.875,-22.0001
12:35:30.594,-6.375,-19.5626
12:35:30.605,-9.5625,-20.7501
12:35:30.616,-13.0625,-19.5001
12:35:30.654,-15.5001,-19.4376
12:35:30.656,-16.6251,-18.3126
12:35:30.659,-17.0001,-18.3126
12:35:30.661,-17.8751,-17.6876
12:35:30.663,-17.7501,-19.2501
12:35:30.672,-18.6876,-19.4376
12:35:30.703,-19.8126,-21.8126
12:35:30.706,-19.0626,-21.1251
12:35:30.709,-19.4376,-22.0001
12:35:30.714,-19.5626,-20.0001
12:35:30.747,-21.0626,-22.0626
12:35:30.749,-23.6876,-23.9376
12:35:30.750,-23.5626,-24.0001
12:35:30.754,-25.0001,-26.0626
12:35:30.784,-25.8751,-26.1251
12:35:30.785,-27.6876,-27.3751
12:35:30.788,-27.8751,-27.8126
12:35:30.807,-25.9376,-28.3126
12:35:30.807,-22.3126,-25.6876
12:35:30.813,-18.1876,-22.3751
12:35:30.823,-17.4376,-19.8751
12:35:30.836,-16.1876,-19.5626
12:35:30.842,-16.7501,-19.6251
12:35:30.852,-18.1876,-22.1876
12:35:30.862,-20.1251,-22.8126
12:35:30.872,-20.0001,-23.4376
12:35:30.891,-19.9376,-24.0626
12:35:30.896,-19.8751,-23.0626
12:35:30.911,-18.0626,-23.7501
12:35:30.913,-17.6876,-23.1251
12:35:30.928,-17.2501,-23.3126
12:35:30.935,-19.1251,-23.2501
12:35:30.942,-20.9376,-26.9376
12:35:30.954,-23.0001,-29.8126
12:35:30.962,-23.3751,-30.5001
12:35:30.973,-23.6876,-31.7501
12:35:30.987,-22.1876,-29.7501
12:35:31.003,-19.5001,-26.8126
12:35:31.020,-15.2501,-20.5001
12:35:31.024,-9.8125,-14.1251
12:35:31.024,-5.9375,-5.9375
12:35:31.033,-1.4375,4.375
12:35:31.043,2.1875,16.6251
12:35:31.052,7.375,22.5001
12:35:31.062,9.5625,26.5626
12:35:31.073,11.0625,28.3126
12:35:31.083,12.125,27.5626
12:35:31.092,13.5626,28.5626
12:35:31.104,15.3751,29.7501
12:35:31.113,15.3126,28.8126
12:35:31.122,15.8126,30.5001
12:35:31.132,15.8751,29.3751
12:35:31.142,17.0001,30.9376
12:35:31.153,18.3751,30.7501
12:35:31.164,20.4376,31.9376
12:35:31.172,21.4376,34.0626
12:35:31.182,23.0626,34.8751
12:35:31.194,23.5626,37.3751
12:35:31.203,24.9376,36.7501
12:35:31.212,26.3751,36.8126
12:35:31.224,26.1876,37.0626
12:35:31.234,25.0626,37.5001
12:35:31.242,25.5626,37.0626
12:35:31.253,25.3751,35.7501
12:35:31.262,24.3126,33.5626
12:35:31.272,24.0001,32.6876
12:35:31.283,23.1251,30.1251
12:35:31.293,23.9376,29.6876
12:35:31.304,23.2501,28.6876
12:35:31.315,23.3751,29.1876
12:35:31.322,23.1251,28.1876
12:35:31.332,22.7501,27.1251
12:35:31.342,22.8751,26.3751
12:35:31.374,22.8751,26.8126
12:35:31.382,24.2501,28.5626
12:35:31.382,28.4376,29.6876
12:35:31.383,36.3751,36.1251
12:35:31.409,41.8127,41.0002
12:35:31.411,44.0627,45.1877
12:35:31.414,48.2502,47.3127
12:35:31.446,54.0627,50.5002
12:35:31.449,59.3127,54.9377
12:35:31.452,62.7502,57.5002
12:35:31.453,65.5627,59.9377
12:35:31.486,67.5628,61.8752
12:35:31.489,68.8753,62.3752
12:35:31.491,68.7503,60.9377
12:35:31.527,67.8128,60.6252
12:35:31.528,66.8128,59.3127
12:35:31.530,68.3753,58.2502
12:35:31.537,70.6253,60.1252
12:35:31.538,72.6253,62.8127
12:35:31.545,75.3753,64.0002
12:35:31.560,77.8753,65.0627
12:35:31.562,79.3753,66.2503
12:35:31.573,79.3128,67.3753
12:35:31.584,80.4378,66.6253
12:35:31.593,80.6253,65.7503
12:35:31.602,81.3753,66.4378
12:35:31.612,82.4378,67.5628
12:35:31.622,83.6878,66.8753
12:35:31.633,83.9378,67.2503
12:35:31.644,84.8128,68.2503
12:35:31.652,85.6253,69.6253
12:35:31.662,87.5628,70.5003
12:35:31.674,88.7503,70.1253
12:35:31.682,88.3753,70.5003
12:35:31.693,88.9378,69.6878
12:35:31.703,88.6878,70.1878
12:35:31.712,88.8128,69.5003
12:35:31.723,89.0003,69.0628
12:35:31.733,89.1878,67.8753
12:35:31.743,89.2503,68.5003
12:35:31.752,90.8754,68.6878
12:35:31.762,91.3754,69.6253
12:35:31.774,92.8754,69.7503
12:35:31.785,92.9379,69.8128
12:35:31.793,93.2504,69.4378
12:35:31.802,92.7504,69.7503
12:35:31.813,92.9379,67.9378
12:35:31.823,92.8754,67.9378
12:35:31.835,93.1254,69.0628
12:35:31.844,94.5629,68.8128
12:35:31.853,94.8754,68.5003
12:35:31.862,95.6254,69.5003
12:35:31.873,96.1879,69.0628
12:35:31.885,95.8754,68.6253
12:35:31.894,94.6879,68.1253
12:35:31.903,94.6879,67.1253
12:35:31.915,94.5004,66.0003
12:35:31.922,93.6879,65.0627
12:35:31.935,93.3129,65.8128
12:35:31.945,93.0629,64.7502
12:35:31.953,92.6254,63.3127
12:35:31.964,92.0004,63.3127
12:35:31.972,91.4379,65.7503
12:35:31.982,93.1879,67.4378
12:35:31.994,95.6879,72.3128
12:35:32.026,99.3129,80.0628
12:35:32.031,102.0629,84.6253
12:35:32.033,103.4379,90.3753
12:35:32.035,104.2504,94.0629
12:35:32.043,105.7504,94.5004
12:35:32.054,105.6879,95.9379
12:35:32.062,105.2504,96.4379
12:35:32.073,104.1254,94.0629
12:35:32.083,102.1879,93.0004
12:35:32.095,101.0004,91.3754
12:35:32.103,99.8129,89.3128
12:35:32.121,98.5004,87.7503
12:35:32.129,97.9379,88.8753
12:35:32.138,97.1254,86.6878
12:35:32.150,96.3754,86.6878
12:35:32.182,95.8754,86.3753
12:35:32.185,95.2504,85.0003
12:35:32.219,93.1879,83.0628
12:35:32.221,93.6254,83.1253
12:35:32.224,91.8754,83.0003
12:35:32.231,91.6254,82.2503
12:35:32.231,89.3128,81.0628
12:35:32.231,88.0003,78.7503
12:35:32.269,85.3753,76.0628
12:35:32.270,84.6253,74.1253
12:35:32.274,83.5003,72.0003
12:35:32.310,80.6878,69.6878
12:35:32.312,79.8128,68.1878
12:35:32.314,78.8128,67.1878
12:35:32.315,78.2503,64.6877
12:35:32.315,76.3753,63.7502
12:35:32.320,75.1253,62.3127
12:35:32.336,74.1878,60.6877
12:35:32.338,73.6878,59.6877
12:35:32.348,72.5003,58.6252
12:35:32.358,70.6878,57.7502
12:35:32.368,69.7503,56.4377
12:35:32.378,69.0003,55.4377
12:35:32.387,67.7503,54.1252
12:35:32.399,67.0628,53.4377
12:35:32.409,65.4378,52.0627
12:35:32.418,63.8127,51.5002
12:35:32.427,62.7502,48.0627
12:35:32.439,61.3752,47.3127
12:35:32.447,61.0002,45.9377
12:35:32.458,60.1877,45.8127
12:35:32.467,57.5002,43.0002
12:35:32.478,56.3752,42.0627
12:35:32.487,55.2502,40.3127
12:35:32.498,54.3127,38.2501
12:35:32.508,53.0002,37.6876
12:35:32.520,51.4377,36.1251
12:35:32.527,50.9377,35.1876
12:35:32.539,49.3752,33.1251
12:35:32.549,49.1877,31.8751
12:35:32.558,47.7502,31.1876
12:35:32.568,48.1252,30.0001
12:35:32.579,47.2502,30.8751
12:35:32.588,47.7502,29.6876
12:35:32.598,46.5627,29.6251
12:35:32.608,46.9377,29.2501
12:35:32.620,46.0002,28.0626
12:35:32.627,45.7502,27.6251
12:35:32.639,45.2502,26.4376
12:35:32.647,45.3752,26.4376
12:35:32.659,44.8127,26.5001
12:35:32.668,44.9377,25.3751
12:35:32.680,43.6877,25.4376
12:35:32.688,43.0627,24.6876
12:35:32.698,42.6252,22.6876
12:35:32.714,41.9377,22.2501
12:35:32.719,41.2502,21.1876
12:35:32.729,40.9377,20.8751
12:35:32.738,40.8127,21.0626
12:35:32.749,40.6252,19.5001
12:35:32.757,40.1252,18.8126
12:35:32.768,38.5001,17.4376
12:35:32.778,37.2501,15.8126
12:35:32.788,35.8126,14.8126
12:35:32.798,33.5626,13.3126
12:35:32.809,32.5626,12.375
12:35:32.820,32.1251,10.75
12:35:32.828,31.5626,11.375
12:35:32.839,31.7501,10.125
12:35:32.855,31.5626,9.8125
12:35:32.857,31.3126,9.4375
12:35:32.893,31.0626,8.9375
12:35:32.895,31.5626,10.625
12:35:32.897,32.3751,12
12:35:32.900,34.3751,16.3126
12:35:32.942,35.8126,21.0001
12:35:32.945,38.0001,26.0001
12:35:32.945,40.6252,31.3126
12:35:32.951,40.8127,35.5626
12:35:32.953,41.5627,38.0626
12:35:32.959,42.6252,38.8126
12:35:32.991,42.1252,40.5627
12:35:32.993,42.5002,40.3127
12:35:32.995,41.7502,40.5002
12:35:32.999,41.6877,39.1876
12:35:33.029,41.0627,38.8126
12:35:33.032,40.5002,36.4376
12:35:33.033,39.1251,35.5001
12:35:33.039,37.8751,35.0626
12:35:33.050,38.0626,34.6876
12:35:33.058,36.6251,33.8751
12:35:33.069,35.3751,33.7501
12:35:33.078,35.7501,33.1251
12:35:33.090,34.7501,33.1251
12:35:33.100,34.1251,32.6876
12:35:33.108,34.5001,32.5626
12:35:33.118,32.7501,31.7501
12:35:33.128,32.1251,31.7501
12:35:33.140,31.3751,30.3751
12:35:33.148,30.8751,29.0626
12:35:33.158,29.5626,26.8126
12:35:33.168,28.0001,24.6251
12:35:33.179,27.3126,23.5626
12:35:33.189,26.5001,21.3126
12:35:33.198,25.8126,19.6251
12:35:33.208,23.8126,18.1876
12:35:33.219,23.0001,18.3126
12:35:33.229,23.4376,17.0001
12:35:33.238,23.0626,16.3751
12:35:33.249,22.8126,17.0001
12:35:33.259,23.5626,16.6251
12:35:33.268,22.8126,15.3751
12:35:33.278,22.0001,16.2501
12:35:33.304,22.3751,15.9376
12:35:33.306,21.6876,14.6876
12:35:33.308,21.1876,14.3751
12:35:33.320,20.8751,14.3751
12:35:33.329,20.6251,13.6251
12:35:33.338,19.1251,10.9375
12:35:33.350,17.6251,10.3125
12:35:33.362,18.2501,9.5
12:35:33.369,17.2501,7.9375
12:35:33.378,16.3126,7.375
12:35:33.389,15.6876,7.0625
12:35:33.401,15.3751,5.4375
12:35:33.408,14.4376,4
12:35:33.418,13.5626,4.5625
12:35:33.428,13.3751,3
12:35:33.439,12.1875,1.25
12:35:33.450,12,1.8125
12:35:33.465,12.25,0.5
12:35:33.469,11.5625,0.125
12:35:33.480,11.3125,0.1875
12:35:33.495,10.9375,-1.125
12:35:33.510,10.25,-2.3125
12:35:33.514,9.8125,-1.6875
12:35:33.519,10.0625,-2.9375
12:35:33.529,9.75,-3.1875
12:35:33.538,9.0625,-4.1875
12:35:33.549,8.8125,-3.875
12:35:33.559,8.25,-4.9375
12:35:33.569,7.8125,-5.1875
12:35:33.583,8.6875,-5.3125
12:35:33.618,8,-6.75
12:35:33.620,7.9375,-7.25
12:35:33.624,7.1875,-5.5
12:35:33.625,7.5625,-7.4375
12:35:33.628,7.1875,-8.25
12:35:33.665,6,-9.3125
12:35:33.666,5.4375,-8.8125
12:35:33.672,5.1875,-9.1875
12:35:33.672,5.8125,-10.375
12:35:33.706,5.5,-11.4375
12:35:33.710,5.0625,-10.375
12:35:33.711,5.8125,-10.5625
12:35:33.720,5.375,-10.3125
12:35:33.720,7.125,-10.1875
12:35:33.760,5.9375,-11.0625
12:35:33.760,5.125,-11.375
12:35:33.763,5.3125,-11.6875
12:35:33.765,5.3125,-12
12:35:33.770,5.3125,-12.6875
12:35:33.780,5.375,-12.875
12:35:33.789,4.9375,-13.2501
12:35:33.799,5.4375,-13
12:35:33.809,4.5625,-13.0625
12:35:33.819,4.75,-13
12:35:33.828,4.9375,-14.4376
12:35:33.840,4.5625,-13.2501
12:35:33.848,4.5,-14.1251
12:35:33.858,4.625,-14.6876
12:35:33.869,5.4375,-11.375
12:35:33.880,8.25,-8.9375
12:35:33.889,10.75,-4.4375
12:35:33.899,15.0626,3.5625
12:35:33.909,19.0001,10.0625
12:35:33.920,21.5626,15.1876
12:35:33.929,24.1876,22.1876
12:35:33.938,25.0001,24.1876
12:35:33.948,26.0001,26.5626
12:35:33.959,25.7501,26.6876
12:35:33.969,25.3126,26.8126
12:35:33.978,25.0626,26.1251
12:35:33.989,23.1251,23.9376
12:35:34.000,22.0001,23.5626
12:35:34.008,22.1251,22.6251
12:35:34.018,22.6876,23.6876
12:35:34.028,22.8126,23.1876
12:35:34.038,22.5001,22.3751
12:35:34.050,22.7501,22.3126
12:35:34.059,22.0626,23.6251
12:35:34.068,23.1251,23.4376
12:35:34.079,22.6251,23.0626
12:35:34.090,22.0001,23.7501
12:35:34.099,23.1251,24.9376
12:35:34.108,23.7501,24.2501
12:35:34.119,23.5001,25.8126
12:35:34.129,23.9376,24.8126
12:35:34.138,22.6251,23.5001
12:35:34.150,21.8751,21.5001
12:35:34.159,20.8751,20.7501
12:35:34.169,20.5001,19.5626
12:35:34.179,19.6876,18.0001
12:35:34.189,19.5626,15.6876
12:35:34.199,18.1251,14.9376
12:35:34.215,18.1251,15.9376
12:35:34.219,19.2501,14.8126
12:35:34.229,18.2501,14.4376
12:35:34.240,17.4376,14.3126
12:35:34.249,17.0001,14.1251
12:35:34.260,16.8126,13
12:35:34.269,16.0001,12.4375
12:35:34.279,15.8126,12.1875
12:35:34.288,15.5626,12.0625
12:35:34.298,14.8126,11.1875
12:35:34.309,14.1251,9.625
12:35:34.325,13.6876,8.5
12:35:34.330,14.2501,9
12:35:34.367,14.2501,8.8125
12:35:34.369,13.1251,7.25
12:35:34.371,13.3126,6.6875
12:35:34.374,12.75,7.625
12:35:34.380,12.9375,6.125
12:35:34.409,11.5,4.25
12:35:34.415,10.3125,4.5625
12:35:34.417,10.9375,3.5625
12:35:34.421,10.4375,2.375
12:35:34.434,9.9375,2
12:35:34.440,10.875,1.875
12:35:34.468,10.125,0.875
12:35:34.469,9.875,0.4375
12:35:34.471,9.6875,1.125
12:35:34.498,9.6875,0.5625
12:35:34.501,8.8125,-1.6875
12:35:34.502,8.1875,-0.6875
12:35:34.509,7.5625,-1.375
12:35:34.519,8.5625,-1.875
12:35:34.529,8,-2.6875
12:35:34.539,6.1875,-4.4375
12:35:34.549,5.4375,-4.375
12:35:34.560,4.8125,-4.9375
12:35:34.584,4.625,-6.9375
12:35:34.586,4.25,-7.375
12:35:34.589,3.375,-8
12:35:34.598,2.5625,-8.5
12:35:34.610,2.875,-9.25
12:35:34.618,2.375,-9.8125
12:35:34.628,1.4375,-10.375
12:35:34.640,0.5625,-11.1875
12:35:34.648,0.9375,-11.9375
12:35:34.660,0.3125,-12.75
12:35:34.668,0.75,-12.5625
12:35:34.680,0.3125,-13.3751
12:35:34.688,-0.5625,-14.2501
12:35:34.698,-1.625,-14.0626
12:35:34.710,-1.5,-15.1251
12:35:34.718,-1.5,-15.6251
12:35:34.729,-1,-14.6251
12:35:34.739,-1.4375,-16.1876
12:35:34.749,-1.5,-16.1251
12:35:34.758,-1.6875,-15.8751
12:35:34.768,-1.125,-16.5626
12:35:34.790,-1.375,-14.6251
12:35:34.794,-0.0625,-13.8751
12:35:34.809,2.625,-10.0625
12:35:34.811,5.6875,-2.875
12:35:34.820,10.125,2.375
12:35:34.829,12.1875,8.75
12:35:34.839,15.1251,13.3751
12:35:34.850,16.4376,17.5626
12:35:34.858,17.5626,20.0626
12:35:34.881,17.6251,20.6251
12:35:34.884,17.6876,21.1251
12:35:34.900,16.4376,20.1876
12:35:34.901,16.2501,19.2501
12:35:34.909,15.9376,17.6876
12:35:34.920,16.3126,17.7501
12:35:34.928,15.0626,17.3126
12:35:34.939,15.3751,16.1876
12:35:34.950,15.0001,17.6876
12:35:34.958,14.4376,17.5626
12:35:34.982,14.1251,17.2501
12:35:34.984,14.1251,16.0001
12:35:35.019,13.6251,16.4376
12:35:35.020,14.4376,16.8126
12:35:35.024,14.6876,16.3751
12:35:35.026,13.5626,15.8126
12:35:35.030,13.8751,16.2501
12:35:35.060,14.5001,16.1251
12:35:35.063,13.125,14.3751
12:35:35.066,12,12.0625
12:35:35.070,11.0625,11.4375
12:35:35.103,11.3125,10.0625
12:35:35.107,10.0625,7.9375
12:35:35.109,8.5625,8.5
12:35:35.136,8.9375,7.1875
12:35:35.137,8.8125,6.375
12:35:35.140,9.4375,8.25
12:35:35.145,10.0625,7.75
12:35:35.154,9.875,6.9375
12:35:35.159,9.1875,6.8125
12:35:35.169,8.8125,7.1875
12:35:35.178,8.5,8.125
12:35:35.189,8.6875,6.6875
12:35:35.198,7.5625,5.4375
12:35:35.209,8.3125,5.4375
12:35:35.219,7.9375,4.625
12:35:35.230,7.9375,4.3125
12:35:35.239,7.4375,4.1875
12:35:35.248,7.25,3.875
12:35:35.259,7.9375,2.6875
12:35:35.269,6.8125,1.9375
12:35:35.278,6.4375,1.1875
12:35:35.289,6.25,1.6875
12:35:35.301,6.5,0.5625
12:35:35.308,6.125,-0.3125
12:35:35.318,5.875,1.125
12:35:35.330,6.875,0.4375
12:35:35.339,6.875,-0.5
12:35:35.348,6.1875,-0.3125
12:35:35.359,7,-0.625
12:35:35.370,6.4375,-1.75
12:35:35.379,6.625,-2.25
12:35:35.388,6.9375,-0.5
12:35:35.399,6.875,-1.75
12:35:35.409,6.1875,-2.5625
12:35:35.419,5.875,-1.8125
12:35:35.428,6.375,-3.0625
12:35:35.440,5.5625,-3.875
12:35:35.449,6.125,-3.125
12:35:35.458,6.125,-3.875
12:35:35.468,5.1875,-3.875
12:35:35.481,6.25,-4.25
12:35:35.488,5,-5.25
12:35:35.499,4.25,-4.25
12:35:35.510,4.5625,-6.4375
12:35:35.519,4.75,-6.75
12:35:35.529,4.1875,-6.4375
12:35:35.539,4.625,-7.125
12:35:35.548,3.5625,-8.75
12:35:35.559,2.8125,-7.1875
12:35:35.569,2.8125,-9.5
12:35:35.578,2.4375,-10.4375
12:35:35.589,2.4375,-9.5
12:35:35.600,1.8125,-11.125
12:35:35.608,1.6875,-10.4375
12:35:35.619,2.25,-11.125
12:35:35.630,1.375,-11.125
12:35:35.639,1.5625,-11.9375
12:35:35.649,0.875,-13.1251
12:35:35.659,0,-12.375
12:35:35.671,0.3125,-13.7501
12:35:35.678,0.0625,-15.3126
12:35:35.688,0.875,-13.4376
12:35:35.699,0.8125,-13.7501
12:35:35.708,0,-13.8126
12:35:35.722,0.5,-14.4376
12:35:35.730,0.8125,-14.2501
12:35:35.739,1.375,-11.875
12:35:35.749,4.3125,-8
12:35:35.758,8,-2.8125
12:35:35.771,11.3125,4.375
12:35:35.784,14.5626,11.375
12:35:35.789,17.9376,17.2501
12:35:35.819,19.1251,20.6876
12:35:35.821,20.1876,23.8751
12:35:35.824,21.0626,25.1876
12:35:35.830,21.3126,25.1876
12:35:35.866,20.1876,25.8751
12:35:35.868,19.9376,24.6876
12:35:35.871,19.0626,22.5001
12:35:35.874,19.3126,24.0626
12:35:35.880,19.5001,22.5001
12:35:35.911,19.1876,22.6876
12:35:35.914,18.1876,23.3126
12:35:35.916,19.0626,22.5001
12:35:35.920,18.6876,21.6251
12:35:35.958,18.2501,22.8126
12:35:35.959,19.3126,23.6876
12:35:35.962,19.3126,23.7501
12:35:35.965,19.1251,23.4376
12:35:35.971,19.0001,24.5626
12:35:35.979,18.8751,24.8126
12:35:35.991,19.1876,25.0626
12:35:35.998,18.8126,23.3126
12:35:36.010,17.4376,21.8126
12:35:36.021,16.1251,21.0001
12:35:36.028,15.5626,18.6876
12:35:36.039,14.6251,16.3126
12:35:36.050,12.75,14.8751
12:35:36.058,11.8125,13.125
12:35:36.069,11.5625,11.9375
12:35:36.086,10.5625,10.4375
12:35:36.109,9.625,10.6875
12:35:36.114,9.4375,10.875
12:35:36.114,10.1875,10.0625
12:35:36.124,9.9375,10.1875
12:35:36.134,10.125,9.6875
12:35:36.144,9.25,10.8125
12:35:36.155,10,9.4375
12:35:36.164,9.6875,9.0625
12:35:36.178,9.0625,9.1875
12:35:36.193,8.625,9.9375
12:35:36.196,8.875,7.625
12:35:36.203,7.75,5.875
12:35:36.215,8.25,7
12:35:36.223,8.25,6.5
12:35:36.234,7,4.625
12:35:36.245,7.1875,4.3125
12:35:36.254,6.4375,4.0625
12:35:36.264,6.3125,3.6875
12:35:36.274,5.5625,2.6875
12:35:36.287,5.5625,0.5625
12:35:36.295,5.0625,0.625
12:35:36.304,4.8125,0.0625
12:35:36.316,3.75,-1.625
12:35:36.323,3.5625,-2.5625
12:35:36.333,2.5625,-1.8125
12:35:36.345,3.0625,-2.9375
12:35:36.353,2.3125,-4
12:35:36.364,1.625,-5.25
12:35:36.375,1.4375,-4.1875
12:35:36.385,1.625,-5.375
12:35:36.395,1.125,-5.6875
12:35:36.405,0.625,-5.9375
12:35:36.415,0.75,-6
12:35:36.424,0.375,-7.375
12:35:36.434,-0.1875,-8.1875
12:35:36.445,-0.375,-7.1875
12:35:36.453,-0.5625,-9.3125
12:35:36.464,-1.125,-9.5
12:35:36.474,-1.1875,-10
12:35:36.505,-0.8125,-11.125
12:35:36.508,-1.875,-10.75
12:35:36.510,-2.125,-10.5
12:35:36.515,-2.25,-12.6875
12:35:36.554,-2.4375,-12.75
12:35:36.554,-2.125,-12.5
12:35:36.556,-2.5625,-13.5001
12:35:36.563,-2.3125,-13.5001
12:35:36.565,-3.0625,-13.4376
12:35:36.594,-3.8125,-14.8126
12:35:36.598,-3.375,-15.3126
12:35:36.598,-4.375,-15.5626
12:35:36.605,-4.8125,-15.7501
12:35:36.633,-4.5625,-17.1251
12:35:36.635,-5.25,-16.6251
12:35:36.637,-4.6875,-18.2501
12:35:36.658,-5.25,-17.3126
12:35:36.663,-4.5,-18.3126
12:35:36.665,-5.4375,-18.3751
12:35:36.675,-5.9375,-18.3126
12:35:36.686,-6.125,-21.1251
12:35:36.695,-6.5,-19.5001
12:35:36.705,-6.4375,-21.2501
12:35:36.715,-7.25,-21.3126
12:35:36.725,-7.4375,-20.7501
12:35:36.733,-6.4375,-19.0001
12:35:36.745,-3.625,-15.2501
12:35:36.758,0.375,-10.1875
12:35:36.763,3.6875,-2.25
12:35:36.774,7.625,4.1875
12:35:36.784,10.5625,11.1875
12:35:36.794,13.125,15.8751
12:35:36.805,14.8126,18.5626
12:35:36.815,15.3751,19.9376
12:35:36.823,15.5001,20.4376
12:35:36.833,14.5001,19.8126
12:35:36.850,13.8126,18.5626
12:35:36.855,11.4375,17.0001
12:35:36.864,10.6875,16.1876
12:35:36.875,10.375,14.2501
12:35:36.885,9.625,15.3126
12:35:36.895,10.4375,14.3126
12:35:36.905,10.375,15.5001
12:35:36.914,10.625,16.0001
12:35:36.925,10.9375,15.6251
12:35:36.935,11.125,16.4376
12:35:36.946,11.8125,16.6876
12:35:36.954,12.1875,17.3751
12:35:36.966,12.25,19.0626
12:35:36.976,13.5001,20.1251
12:35:36.984,14.5001,19.1876
12:35:36.994,14.1876,18.5001
12:35:37.005,13.4376,17.1251
12:35:37.015,12.25,16.3751
12:35:37.025,12.1875,15.1251
12:35:37.034,11.5,13.3751
12:35:37.045,10.4375,13.1251
12:35:37.054,11,12.9375
12:35:37.065,10.3125,11.5625
12:35:37.076,10.625,11.5
12:35:37.083,11.1875,13.6251
12:35:37.093,12.6875,13
12:35:37.106,13.1876,13.1876
12:35:37.115,12.625,13.0625
12:35:37.145,12.625,13.1876
12:35:37.149,12.9375,14.0001
12:35:37.151,13.2501,12.9375
12:35:37.156,12.3125,12.4375
12:35:37.164,12.125,13.3126
12:35:37.185,13.125,12.375
12:35:37.187,12.4375,11.875
12:35:37.217,12.5,11.375
12:35:37.219,12.25,11.875
12:35:37.221,12.125,11
12:35:37.225,11.375,8.75
12:35:37.258,10.8125,9.125
12:35:37.261,12.1875,8.8125
12:35:37.262,11.875,7.5625
12:35:37.299,11.375,7.1875
12:35:37.299,11.3125,7.8125
12:35:37.303,12.1875,6.875
12:35:37.306,11.6875,6.5
12:35:37.307,11.25,5.8125
12:35:37.315,11.125,6.75
12:35:37.342,11.5,5.5625
12:35:37.345,10.75,4.4375
12:35:37.348,10.25,3.4375
12:35:37.361,10.125,3.6875
12:35:37.363,10,4.125
12:35:37.375,9.75,2.9375
12:35:37.389,9.6875,2.375
12:35:37.398,8.9375,2.375
12:35:37.405,9.25,2
12:35:37.420,8.8125,1.0625
12:35:37.428,8.5,-0.4375
12:35:37.435,7.4375,0
12:35:37.444,6.875,-0.8125
12:35:37.456,7.125,-1.5
12:35:37.472,7.25,-1.875
12:35:37.474,6.4375,-2.4375
12:35:37.490,6.5625,-2.5
12:35:37.496,6.8125,-3.25
12:35:37.511,5.75,-4.25
12:35:37.515,5,-4.9375
12:35:37.531,4.5,-4.8125
12:35:37.534,3.75,-7.25
12:35:37.545,3.125,-7.0625
12:35:37.555,2.5625,-7.5
12:35:37.565,3.125,-8.5
12:35:37.575,1.8125,-9.5
12:35:37.585,1.3125,-10.6875
12:35:37.594,0.75,-10.4375
12:35:37.606,0.125,-12.125
12:35:37.615,-0.875,-12.625
12:35:37.625,-1.5,-13.0625
12:35:37.635,-0.5625,-12.4375
12:35:37.645,0.5,-10.75
12:35:37.655,3.625,-5.875
12:35:37.665,6.75,-1
12:35:37.675,8.75,4.4375
12:35:37.685,11.125,10.375
12:35:37.695,13.5626,15.1251
12:35:37.705,14.4376,18.1251
12:35:37.715,14.6876,20.8126
12:35:37.725,15.4376,21.4376
12:35:37.741,14.8751,21.8126
12:35:37.745,15.2501,21.6251
12:35:37.755,14.8751,20.0626
12:35:37.767,13.3126,20.2501
12:35:37.774,12.1875,18.0001
12:35:37.784,11.5625,16.3751
12:35:37.797,11.4375,17.0001
12:35:37.804,10.375,15.4376
12:35:37.815,10.625,15.6251
12:35:37.826,10.875,15.8751
12:35:37.836,10.875,15.9376
12:35:37.845,10.1875,18.0001
12:35:37.855,10.625,16.7501
12:35:37.865,10.5625,16.1876
12:35:37.875,9.8125,17.3751
12:35:37.885,9.875,16.5001
12:35:37.895,9.375,14.4376
12:35:37.905,8,12.5
12:35:37.915,7.5,12.5625
12:35:37.925,6.5625,10.125
12:35:37.935,6.3125,9.625
12:35:37.967,5.5625,8.875
12:35:37.970,6,7.8125
12:35:37.972,5.125,6.875
12:35:37.975,3.75,6.3125
12:35:38.006,3.6875,6.875
12:35:38.009,4.5,6.6875
12:35:38.010,4.8125,5.9375
12:35:38.016,4.625,6.375
12:35:38.046,4.4375,6.3125
12:35:38.048,3.8125,4.75
12:35:38.050,2.25,4.4375
12:35:38.056,2,4.5625
12:35:38.083,1.5,2.625
12:35:38.085,0.9375,2
12:35:38.087,1.1875,2.125
12:35:38.117,2,2.3125
12:35:38.120,2.875,2.5
12:35:38.124,2.3125,1.5625
12:35:38.129,1.625,1.9375
12:35:38.140,1.625,1.1875
12:35:38.145,0.8125,-0.625
12:35:38.156,0.6875,-1.25
12:35:38.165,0,-1.1875
12:35:38.175,0.0625,-2.5
12:35:38.185,-0.625,-3.9375
12:35:38.195,-1.4375,-4.125
12:35:38.205,-2.3125,-4.3125
12:35:38.215,-2.5,-5.875
12:35:38.225,-2.6875,-6.8125
12:35:38.235,-3.1875,-7.3125
12:35:38.245,-4.4375,-8
12:35:38.255,-4.3125,-8.6875
12:35:38.265,-4.125,-9.1875
12:35:38.277,-4.1875,-9
12:35:38.285,-4.1875,-8.6875
12:35:38.295,-4.5625,-10.8125
12:35:38.305,-5.625,-9.625
12:35:38.315,-6.25,-12.125
12:35:38.326,-7.125,-13.8751
12:35:38.335,-8.1875,-13.7501
12:35:38.345,-9.5,-15.3126
12:35:38.355,-10.1875,-16.5626
12:35:38.365,-11.0625,-18.0626
12:35:38.375,-11.6875,-17.9376
12:35:38.385,-11.6875,-19.5001
12:35:38.395,-11.625,-18.8751
12:35:38.424,-11.875,-19.8126
12:35:38.426,-12.125,-21.0626
12:35:38.430,-12.5,-21.0626
12:35:38.434,-13.5626,-21.7501
12:35:38.446,-13.5626,-21.9376
12:35:38.455,-14.0626,-23.1251
12:35:38.465,-13.125,-22.8751
12:35:38.477,-13.1876,-22.8751
12:35:38.485,-12.625,-21.8751
12:35:38.496,-12.1875,-21.6251
12:35:38.505,-11.125,-20.4376
12:35:38.515,-9.1875,-19.5626
12:35:38.525,-5.4375,-13.9376
12:35:38.535,-2.375,-8.1875
12:35:38.545,1.4375,-1.3125
12:35:38.556,5.1875,4.75
12:35:38.565,7.75,11.6875
12:35:38.575,10.0625,15.2501
12:35:38.586,11.8125,18.4376
12:35:38.595,12.5,21.0001
12:35:38.605,13.3751,21.1251
12:35:38.617,13.8126,22.0001
12:35:38.634,13.4376,19.8751
12:35:38.637,13.125,21.5001
12:35:38.645,13,19.4376
12:35:38.674,12.25,19.9376
12:35:38.679,11.6875,18.3751
12:35:38.680,12.25,19.5001
12:35:38.686,12.3125,18.9376
12:35:38.717,13.3751,21.5626
12:35:38.763,14.5626,22.2501
12:35:38.764,14.7501,22.5001
12:35:38.811,15.3126,25.3126
12:35:38.813,15.8126,25.2501
12:35:38.813,15.8126,24.4376
12:35:38.827,15.5001,25.1876
12:35:38.829,15.5001,26.0001
12:35:38.844,16.0001,24.7501
12:35:38.859,15.6251,23.3751
12:35:38.859,15.3126,23.4376
12:35:38.860,15.6251,22.1251
12:35:38.862,14.1876,21.0626
12:35:38.868,13.3751,20.2501
12:35:38.869,13.6876,18.6876
12:35:38.875,12.625,17.7501
12:35:38.890,12.0625,17.6876
12:35:38.895,11.5625,18.1251
12:35:38.904,13.125,18.0001
12:35:38.915,13.2501,16.8751
12:35:38.925,13.8126,18.0001
12:35:38.936,13.1876,17.7501
12:35:38.945,12.25,16.8126
12:35:38.955,10.9375,16.1876
12:35:38.967,9.9375,14.7501
12:35:38.975,10.375,15.0001
12:35:38.985,9.875,13.7501
12:35:38.995,10.4375,14.8126
12:35:39.005,8.1875,11.625
12:35:39.015,7.3125,9.9375
12:35:39.025,6.6875,9.0625
12:35:39.040,6.5625,8.125
12:35:39.050,5.625,7.1875
12:35:39.061,5.625,7.125
12:35:39.070,5.875,7
12:35:39.080,5.9375,5.625
12:35:39.091,5.4375,5.8125
12:35:39.100,4.9375,5.25
12:35:39.111,5.125,4.625
12:35:39.120,5.5625,3.9375
12:35:39.130,4.875,3
12:35:39.140,3.625,1.5
12:35:39.150,3.1875,2.5
12:35:39.160,3.75,0.875
12:35:39.170,3.5625,0.4375
12:35:39.180,4.125,0.375
12:35:39.191,3.625,1.5
12:35:39.200,4.375,0.8125
12:35:39.209,4.25,0.4375
12:35:39.222,3.8125,-0.875
12:35:39.230,3.25,-0.0625
12:35:39.240,2.4375,-1.125
12:35:39.250,2.5,-2.125
12:35:39.262,1.3125,-4.1875
12:35:39.272,0.875,-3.5
12:35:39.281,0.5625,-4.375
12:35:39.291,0.3125,-5.4375
12:35:39.300,0.375,-3.9375
12:35:39.310,1.5,-4.8125
12:35:39.320,1.5,-5.1875
12:35:39.330,2,-4.9375
12:35:39.339,1.5625,-4.875
12:35:39.351,1.875,-6.1875
12:35:39.360,1.1875,-7.5625
12:35:39.369,0.375,-7.5625
12:35:39.383,0.8125,-8.375
12:35:39.390,-1.0625,-9.3125
12:35:39.401,-2.3125,-8.9375
12:35:39.410,-1.625,-9.5
12:35:39.423,-0.1875,-8.375
12:35:39.463,1.875,-3.375
12:35:39.465,4.875,1.8125
12:35:39.468,7.25,8.75
12:35:39.470,9.8125,14.7501
12:35:39.473,12.875,18.7501
12:35:39.506,14.1251,21.3751
12:35:39.508,14.8126,24.5001
12:35:39.511,16.2501,25.6876
12:35:39.539,15.4376,25.2501
12:35:39.542,14.1251,25.5626
12:35:39.543,13.2501,22.8751
12:35:39.549,11.625,20.7501
12:35:39.550,10.1875,19.7501
12:35:39.565,9.1875,18.3126
12:35:39.570,8.1875,17.6251
12:35:39.600,7.4375,16.9376
12:35:39.603,7,17.3751
12:35:39.605,7.5,18.3751
12:35:39.610,9.0625,18.5001
12:35:39.620,8.6875,18.9376
12:35:39.630,7.75,20.1251
12:35:39.640,7.125,19.3751
12:35:39.650,4.0625,16.5626
12:35:39.660,-3,10.8125
12:35:39.672,-13.4376,3
12:35:39.680,-24.6876,-4.4375
12:35:39.705,-36.0626,-15.4376
12:35:39.707,-49.8127,-27.9376
12:35:39.709,-66.2503,-40.8127
12:35:39.720,-85.9378,-57.3127
12:35:39.730,-107.3754,-77.1253
12:35:39.741,-124.438,-92.8754
12:35:39.749,-132.063,-99.0004
12:35:39.759,-138.438,-103.7504
12:35:39.770,-140.1255,-105.4379
12:35:39.780,-140.188,-105.7504
12:35:39.792,-140.3755,-106.0004
12:35:39.800,-140.813,-107.0629
12:35:39.810,-140.938,-106.0629
12:35:39.820,-140.188,-105.1879
12:35:39.830,-141.563,-107.2504
12:35:39.842,-142.7505,-109.1254
12:35:39.850,-140.188,-106.8754
12:35:39.860,-136.313,-104.1254
12:35:39.870,-133.813,-102.4379
12:35:39.880,-131.2505,-101.0004
12:35:39.890,-130.3755,-99.2504
12:35:39.900,-128.063,-98.9379
12:35:39.910,-124.813,-94.1254
12:35:39.920,-120.8755,-93.0004
12:35:39.930,-116.6254,-89.4378
12:35:39.940,-114.0629,-86.5628
12:35:39.953,-110.0004,-85.2503
12:35:39.960,-107.1879,-81.4378
12:35:39.970,-105.5004,-81.8753
12:35:39.980,-104.2504,-80.1878
12:35:39.990,-103.9379,-80.9378
12:35:40.001,-103.3129,-81.1878
12:35:40.017,-103.6254,-79.6878
12:35:40.022,-100.9379,-79.4378
12:35:40.033,-98.6254,-77.5003
12:35:40.045,-98.8129,-77.4378
12:35:40.064,-101.6879,-81.4378
12:35:40.070,-105.8129,-86.1253
12:35:40.072,-114.1254,-94.4379
12:35:40.104,-123.563,-104.0629
12:35:40.106,-134.563,-115.0004
12:35:40.107,-142.2505,-122.3755
12:35:40.109,-148.2506,-129.688
12:35:40.139,-150.3131,-133.3755
12:35:40.142,-154.4381,-135.7505
12:35:40.177,-155.8131,-139.1255
12:35:40.213,-157.0631,-142.1255
12:35:40.243,-158.7506,-143.938
12:35:40.246,-159.6881,-145.563
12:35:40.247,-164.6881,-148.3131
12:35:40.247,-167.7506,-154.0006
12:35:40.252,-163.2506,-150.6256
12:35:40.266,-153.6256,-141.1255
12:35:40.266,-136.313,-126.813
12:35:40.269,-119.2505,-111.2504
12:35:40.270,-106.3129,-98.6254
12:35:40.280,-96.1879,-89.2503
12:35:40.290,-90.7504,-83.0003
12:35:40.300,-85.8753,-78.0003
12:35:40.310,-82.1253,-73.5628
12:35:40.323,-76.8128,-68.4378
12:35:40.330,-74.0003,-65.0002
12:35:40.340,-69.5628,-61.2502
12:35:40.350,-65.4377,-57.0627
12:35:40.360,-62.7502,-53.3752
12:35:40.370,-58.5627,-48.7502
12:35:40.380,-52.6877,-40.7502
12:35:40.390,-41.7502,-27.6876
12:35:40.400,-32.0626,-17.5001
12:35:40.410,-30.1876,-11.8125
12:35:40.420,-64.8127,-38.6251
12:35:40.430,-82.2503,-55.3752
12:35:40.441,-98.7504,-69.8753
12:35:40.450,-103.7504,-78.3753
12:35:40.460,-100.6254,-77.3753
12:35:40.472,-96.0004,-72.5003
12:35:40.480,-93.5629,-70.5003
12:35:40.490,-93.4379,-69.5628
12:35:40.500,-93.3129,-70.3753
12:35:40.510,-94.1879,-69.7503
12:35:40.523,-94.8129,-71.8128
12:35:40.530,-95.0629,-71.0003
12:35:40.540,-92.6254,-66.8128
12:35:40.550,-87.6253,-61.6252
12:35:40.560,-76.7503,-51.0627
12:35:40.573,-60.1877,-36.5001
12:35:40.580,-44.8127,-22.7501
12:35:40.590,-32.5001,-10.875
12:35:40.600,-22.9376,-1.0625
12:35:40.610,-19.5001,0.8125
12:35:40.622,-18.7501,1.9375
12:35:40.630,-20.0001,0.75
12:35:40.640,-19.2501,-0.4375
12:35:40.650,-19.9376,-0.4375
12:35:40.660,-18.3126,-1.125
12:35:40.672,-14.0001,3
12:35:40.679,-11.875,3.6875
12:35:40.690,-13.0625,3.25
12:35:40.700,-20.2501,-4.3125
12:35:40.710,-30.1251,-13.4376
12:35:40.721,-41.8127,-23.7501
12:35:40.730,-53.8752,-35.8751
12:35:40.740,-66.0003,-48.8752
12:35:40.750,-76.6253,-59.3127
12:35:40.766,-80.8753,-65.3127
12:35:40.773,-85.1878,-68.7503
12:35:40.779,-87.6253,-73.3753
12:35:40.790,-84.9378,-72.5003
12:35:40.800,-84.0003,-70.9378
12:35:40.810,-83.6253,-71.7503
12:35:40.823,-83.7503,-73.9378
12:35:40.853,-87.4378,-77.1253
12:35:40.856,-92.6879,-82.7503
12:35:40.858,-98.5004,-87.0628
12:35:40.861,-96.0629,-87.1878
12:35:40.893,-88.9378,-80.8128
12:35:40.896,-76.8128,-70.1878
12:35:40.897,-63.1252,-59.3127
12:35:40.900,-56.0002,-50.8127
12:35:40.941,-52.1877,-47.6252
12:35:40.943,-51.3752,-46.6252
12:35:40.945,-53.2502,-47.6252
12:35:40.950,-52.0627,-46.7502
12:35:40.952,-51.9377,-45.9377
12:35:40.985,-49.6252,-45.6877
12:35:40.987,-47.2502,-43.3752
12:35:40.990,-47.1877,-43.4377
12:35:40.993,-47.2502,-44.8127
12:35:41.000,-45.1252,-42.5002
12:35:41.010,-42.3127,-41.7502
12:35:41.020,-42.9377,-41.1877
12:35:41.030,-49.3752,-48.1252
12:35:41.042,-58.8752,-57.6877
12:35:41.050,-70.6253,-68.1878
12:35:41.060,-83.1878,-80.3753
12:35:41.070,-92.1879,-89.0628
12:35:41.080,-90.5004,-90.4379
12:35:41.090,-87.0628,-85.7503
12:35:41.100,-82.9378,-83.5003
12:35:41.111,-79.6253,-81.4378
12:35:41.120,-77.7503,-79.8753
12:35:41.130,-78.0003,-80.5628
12:35:41.145,-77.7503,-80.8753
12:35:41.150,-79.7503,-81.1878
12:35:41.160,-80.0003,-83.1253
12:35:41.170,-79.3128,-82.2503
12:35:41.180,-79.9378,-82.6878
12:35:41.190,-79.5003,-81.6878
12:35:41.200,-74.2503,-78.9378
12:35:41.210,-66.5003,-70.8753
12:35:41.220,-56.7502,-63.1252
12:35:41.230,-47.3127,-54.8752
12:35:41.240,-40.0002,-49.0002
12:35:41.250,-35.8126,-43.2502
12:35:41.261,-33.2501,-38.8751
12:35:41.270,-28.9376,-33.6251
12:35:41.280,-22.3751,-24.8751
12:35:41.291,-14.6251,-14.6251
12:35:41.302,-7.625,-4.5
12:35:41.310,-0.75,6.1875
12:35:41.320,3.25,10.625
12:35:41.330,7,15.8126
12:35:41.340,10.125,20.5626
12:35:41.355,10.1875,21.0626
12:35:41.364,5.8125,16.3126
12:35:41.370,-6.5625,5.5
12:35:41.387,-16.0001,-5.1875
12:35:41.392,-23.7501,-12.6875
12:35:41.403,-32.7501,-20.0001
12:35:41.410,-36.6251,-26.0626
12:35:41.420,-35.5626,-24.2501
12:35:41.430,-35.5001,-24.1876
12:35:41.440,-33.7501,-22.6876
12:35:41.450,-32.1251,-19.4376
12:35:41.460,-30.1251,-19.5626
12:35:41.472,-28.3751,-17.0626
12:35:41.480,-29.0001,-17.3126
12:35:41.495,-31.6876,-19.3751
12:35:41.505,-34.4376,-21.5626
12:35:41.510,-35.1876,-22.0626
12:35:41.527,-35.0626,-20.8751
12:35:41.543,-29.5001,-18.3751
12:35:41.544,-21.9376,-11.125
12:35:41.551,-12.625,-4.75
12:35:41.560,-2.125,4.5
12:35:41.570,5.625,11.5
12:35:41.580,9.875,15.0001
12:35:41.591,9.6875,15.7501
12:35:41.601,8.3125,14.6251
12:35:41.631,6.5,12.9375
12:35:41.636,5.6875,13.8126
12:35:41.637,5.4375,12.6875
12:35:41.640,6.9375,12.5625
12:35:41.671,6.75,13.1876
12:35:41.674,6.25,12.6875
12:35:41.676,6.1875,11.1875
12:35:41.681,5.125,9.4375
12:35:41.708,1.9375,6.25
12:35:41.712,-6.0625,-2.375
12:35:41.713,-14.5001,-10.0625
12:35:41.736,-22.5001,-18.9376
12:35:41.738,-28.6876,-25.5001
12:35:41.741,-35.0001,-31.5001
12:35:41.772,-39.5627,-37.1251
12:35:41.774,-45.1877,-42.5002
12:35:41.777,-47.3127,-44.9377
12:35:41.788,-52.4377,-50.1877
12:35:41.791,-57.0627,-55.7502
