timestamp,Red,IR
13:15:19.364,-10.6563,-9.0625
13:15:19.366,-11.0938,-10.6875
13:15:19.368,-12.3438,-13.3751
13:15:19.370,-12.625,-13.1876
13:15:19.373,-12,-13.5001
13:15:19.373,-11.4063,-13.6876
13:15:19.373,-10.9688,-14.5001
13:15:19.380,-10.9063,-14.6251
13:15:19.390,-10.7188,-14.8126
13:15:19.399,-10.9375,-14.6876
13:15:19.410,-9.8125,-15.7501
13:15:19.420,-9.7188,-16.6876
13:15:19.429,-10.25,-17.6251
13:15:19.439,-10.125,-18.5001
13:15:19.449,-10.0313,-16.9376
13:15:19.459,-9.25,-18.2501
13:15:19.471,-9.0313,-17.8751
13:15:19.481,-8.6875,-18.1876
13:15:19.491,-8.6875,-19.5001
13:15:19.499,-8.9688,-20.4376
13:15:19.510,-9.4063,-20.8751
13:15:19.520,-8.8438,-21.8751
13:15:19.530,-9.4375,-23.5626
13:15:19.538,-9.4688,-25.3126
13:15:19.551,-8.5,-24.0001
13:15:19.559,-6.8125,-23.2501
13:15:19.570,-5.75,-20.5001
13:15:19.580,-4.0938,-18.6251
13:15:19.592,-2.375,-15.3126
13:15:19.603,-0.2813,-12.5
13:15:19.619,0.9375,-9.1875
13:15:19.626,3.3438,-6.25
13:15:19.632,4.5,-1.6875
13:15:19.640,6.5,0.5
13:15:19.656,7.4375,4.3125
13:15:19.664,9.125,5.8125
13:15:19.671,9.9063,8.5
13:15:19.680,11.5625,9.9375
13:15:19.689,12.5,13
13:15:19.698,13.5626,14.0001
13:15:19.711,14.1251,16.8751
13:15:19.720,15.4688,17.9376
13:15:19.729,15.0313,19.3751
13:15:19.745,15.9688,19.5626
13:15:19.750,15.2813,20.3126
13:15:19.760,16.0001,20.0626
13:15:19.770,15.5313,19.3126
13:15:19.780,15.5626,20.6251
13:15:19.791,15.5001,19.1251
13:15:19.800,14.0938,18.9376
13:15:19.810,13.5938,18.8126
13:15:19.820,13.5626,17.3126
13:15:19.828,12.125,16.4376
13:15:19.838,11.4688,16.0001
13:15:19.850,11.2813,15.3751
13:15:19.860,11.0313,14.1251
13:15:19.871,10,13.5626
13:15:19.880,9.875,13.8751
13:15:19.891,9.625,13.3126
13:15:19.899,9.3125,13.0625
13:15:19.947,8.5938,12.75
13:15:19.949,7.6563,11.9375
13:15:19.951,7.2188,10.3125
13:15:19.980,5.8125,10.1875
13:15:19.980,5.75,8.75
13:15:19.981,4.7188,8.1875
13:15:19.983,3.9063,6.625
13:15:19.992,3.0938,5.625
13:15:20.007,2.5,4.4375
13:15:20.010,0.7813,3.5
13:15:20.036,0.4063,3.5
13:15:20.039,0.0625,1.75
13:15:20.041,-0.8438,0.0625
13:15:20.046,-1.875,-0.625
13:15:20.083,-3.0625,-0.4375
13:15:20.085,-3.4063,-3.4375
13:15:20.087,-4.875,-5.3125
13:15:20.100,-6.0625,-6.4375
13:15:20.101,-6.4688,-6.3125
13:15:20.105,-7.125,-8.625
13:15:20.118,-7.75,-9.75
13:15:20.125,-9.0938,-10.5625
13:15:20.135,-9.9688,-11.625
13:15:20.147,-10.4688,-12.75
13:15:20.154,-9.9688,-13.9376
13:15:20.165,-11.3125,-15.3751
13:15:20.175,-11.7813,-14.8751
13:15:20.185,-11.7813,-16.3751
13:15:20.195,-12.4375,-17.2501
13:15:20.205,-12.5313,-18.1876
13:15:20.215,-12.7813,-18.6876
13:15:20.225,-13.2188,-19.2501
13:15:20.236,-13.6251,-20.5001
13:15:20.245,-14.0938,-20.7501
13:15:20.255,-14.0626,-21.7501
13:15:20.265,-14.4063,-22.6251
13:15:20.274,-15.2188,-24.0001
13:15:20.285,-14.7813,-23.6251
13:15:20.295,-15.4688,-24.7501
13:15:20.305,-15.1563,-24.7501
13:15:20.315,-15.3438,-26.8751
13:15:20.326,-15.5313,-26.1876
13:15:20.335,-15.9063,-26.5626
13:15:20.345,-15.8126,-27.3126
13:15:20.355,-16.6876,-28.1251
13:15:20.365,-17.4376,-29.5001
13:15:20.375,-18.1251,-30.7501
13:15:20.385,-18.1251,-32.0001
13:15:20.395,-18.5938,-31.9376
13:15:20.405,-18.3126,-33.3751
13:15:20.416,-18.5938,-33.3751
13:15:20.425,-18.6251,-34.8126
13:15:20.441,-19.4688,-34.8126
13:15:20.444,-19.4063,-36.5001
13:15:20.455,-19.5313,-36.6876
13:15:20.465,-19.6563,-37.9376
13:15:20.496,-20.8751,-38.4376
13:15:20.499,-20.0938,-39.2501
13:15:20.501,-20.7501,-39.6877
13:15:20.509,-20.2501,-40.5002
13:15:20.518,-20.9376,-39.6252
13:15:20.527,-20.1876,-41.1877
13:15:20.535,-20.1876,-39.7502
13:15:20.545,-19.2813,-39.1876
13:15:20.555,-17.8751,-36.3751
13:15:20.565,-16.6251,-35.0626
13:15:20.576,-15.1251,-30.9376
13:15:20.585,-13.5626,-29.0626
13:15:20.596,-12.2813,-25.3126
13:15:20.605,-10.1875,-22.8751
13:15:20.621,-9.2813,-19.9376
13:15:20.628,-8.1563,-17.3751
13:15:20.635,-7.1875,-15.6251
13:15:20.666,-5.875,-13.0625
13:15:20.700,-4.5,-11.125
13:15:20.701,-3.125,-7.5625
13:15:20.704,-2.25,-6.875
13:15:20.710,-1.125,-3.8125
13:15:20.714,-0.0938,-2.75
13:15:20.714,-0.0625,-0.8125
13:15:20.754,0.125,-0.875
13:15:20.758,0.1875,0.5625
13:15:20.762,0.6563,1.9375
13:15:20.762,1.3125,2.0625
13:15:20.765,1.0313,3.125
13:15:20.801,1.0313,2.3125
13:15:20.802,0.625,1.75
13:15:20.803,0.7813,2
13:15:20.810,0.2813,1.125
13:15:20.812,-0.3438,1.5
13:15:20.825,-1.125,0.25
13:15:20.830,-2.375,-1.125
13:15:20.840,-2.4375,-1.1875
13:15:20.850,-2.8125,-2.25
13:15:20.860,-3.0313,-1.8125
13:15:20.870,-2.4375,-0.9375
13:15:20.880,-2.7188,0.0625
13:15:20.893,-2.125,-0.5
13:15:20.900,-3.0625,-1.25
13:15:20.910,-2.9688,-0.3125
13:15:20.921,-2.6563,-0.875
13:15:20.930,-3.5313,-1.6875
13:15:20.947,-4.375,-2
13:15:20.950,-4.1875,-1.8125
13:15:20.965,-4.5313,-2.4375
13:15:20.980,-4.5625,-3.375
13:15:20.983,-5.9688,-2.5
13:15:20.997,-5.7813,-4
13:15:21.000,-6.5625,-5.25
13:15:21.010,-6.8438,-5.9375
13:15:21.020,-7.3438,-5.5
13:15:21.030,-7.625,-7.125
13:15:21.040,-8.3125,-7.4375
13:15:21.051,-8.5938,-9.1875
13:15:21.060,-9.5,-8.625
13:15:21.070,-9.125,-10.375
13:15:21.082,-10.0938,-10.3125
13:15:21.090,-10.0625,-11.0625
13:15:21.100,-10.25,-12.8125
13:15:21.110,-10.5313,-12.5
13:15:21.120,-10.1875,-13.5626
13:15:21.130,-11.6875,-13.9376
13:15:21.140,-12.5313,-15.2501
13:15:21.150,-12.375,-16.4376
13:15:21.160,-13.125,-17.1876
13:15:21.170,-13.5626,-18.0626
13:15:21.180,-14.0938,-17.6876
13:15:21.190,-14.0938,-19.4376
13:15:21.201,-14.5313,-20.3126
13:15:21.209,-14.3126,-21.0001
13:15:21.220,-14.7813,-21.7501
13:15:21.230,-14.0313,-21.9376
13:15:21.240,-14.4688,-21.9376
13:15:21.250,-14.5626,-22.2501
13:15:21.261,-14.8438,-23.3126
13:15:21.277,-15.1563,-24.5001
13:15:21.280,-15.9063,-25.6251
13:15:21.290,-16.4063,-26.8126
13:15:21.300,-16.5001,-27.5626
13:15:21.310,-16.6251,-28.2501
13:15:21.325,-17.0626,-29.2501
13:15:21.330,-17.3438,-29.6251
13:15:21.361,-16.6563,-29.5001
13:15:21.364,-16.6876,-30.1876
13:15:21.366,-16.6563,-30.8126
13:15:21.370,-17.1876,-31.3126
13:15:21.407,-17.3126,-32.3126
13:15:21.409,-18.0626,-32.5626
13:15:21.411,-18.2188,-33.0626
13:15:21.420,-18.5001,-34.5626
13:15:21.424,-19.0938,-35.2501
13:15:21.460,-19.2813,-36.8751
13:15:21.462,-19.2188,-36.3126
13:15:21.464,-19.4063,-37.6876
13:15:21.466,-19.3126,-38.0626
13:15:21.472,-18.8438,-38.3126
13:15:21.501,-19.2813,-38.9376
13:15:21.503,-18.8438,-39.1251
13:15:21.505,-18.7813,-39.7502
13:15:21.514,-18.9376,-39.2502
13:15:21.520,-18.1251,-39.6252
13:15:21.530,-18.3751,-39.8752
13:15:21.540,-17.6563,-39.8752
13:15:21.550,-18.0626,-39.5627
13:15:21.560,-16.5001,-38.3751
13:15:21.570,-15.3126,-37.5001
13:15:21.580,-14.2501,-35.0001
13:15:21.590,-12.25,-32.4376
13:15:21.600,-10.9375,-28.6876
13:15:21.611,-9.375,-25.1251
13:15:21.620,-7.375,-22.1251
13:15:21.630,-5.9375,-19.3751
13:15:21.640,-4.5625,-15.8751
13:15:21.655,-3.5,-13.0625
13:15:21.660,-1.9688,-10.4375
13:15:21.673,-0.875,-8.3125
13:15:21.680,0.5313,-5.875
13:15:21.690,1.5625,-3.0625
13:15:21.701,3.0313,-1.4375
13:15:21.710,4.2188,0.125
13:15:21.720,4.1563,2.5
13:15:21.730,4.6875,3.0625
13:15:21.740,4.7188,4.5
13:15:21.751,4.9375,4.9375
13:15:21.777,4.8438,5.5625
13:15:21.779,4.8125,6.875
13:15:21.782,4.625,6.1875
13:15:21.790,4.7188,6.375
13:15:21.801,5,6.25
13:15:21.810,3.8438,6.3125
13:15:21.821,3.9375,5.25
13:15:21.830,2.2188,4.6875
13:15:21.840,1.7813,4.5625
13:15:21.850,1.25,3.375
13:15:21.860,1.5625,2.375
13:15:21.870,1.3438,3.8125
13:15:21.880,2.0625,4
13:15:21.889,2.9063,4.8125
13:15:21.901,2.625,5.4375
13:15:21.910,2.7188,6.4375
13:15:21.920,2.25,6.125
13:15:21.931,2.25,5.0625
13:15:21.949,1.3438,4.25
13:15:21.951,0.3438,3.9375
13:15:21.966,0.8125,4.375
13:15:21.982,0.9688,4.3125
13:15:21.984,0.25,3.5
13:15:21.998,0.75,5.25
13:15:22.000,0.8438,5.4375
13:15:22.010,1.1563,4.6875
13:15:22.019,0.2188,2.9375
13:15:22.030,-0.4688,3.625
13:15:22.040,-1,2.9375
13:15:22.050,-1.1563,1.75
13:15:22.061,-1.9375,0.25
13:15:22.070,-2.5313,0
13:15:22.080,-2.75,-0.4375
13:15:22.090,-3.2188,-1.75
13:15:22.101,-3.3438,-2.5
13:15:22.110,-3.5313,-3.125
13:15:22.127,-4.1563,-2.8125
13:15:22.131,-4.7813,-3.8125
13:15:22.158,-4.1875,-4.75
13:15:22.160,-5.5938,-5.9375
13:15:22.162,-6.0938,-7.6875
13:15:22.198,-7,-7.75
13:15:22.200,-7.3125,-7.75
13:15:22.204,-6.9688,-8.75
13:15:22.206,-6.9688,-9.625
13:15:22.212,-7.6875,-10.375
13:15:22.254,-8.375,-10.375
13:15:22.318,-8.5313,-12.5
13:15:22.322,-9.25,-12.375
13:15:22.336,-9.3438,-12.75
13:15:22.336,-9.2188,-13
13:15:22.336,-8.9375,-14.6251
13:15:22.336,-8.9375,-14.2501
13:15:22.341,-8.625,-14.7501
13:15:22.349,-8.5313,-14.9376
13:15:22.349,-8.4375,-15.2501
13:15:22.354,-8.0625,-15.3126
13:15:22.365,-8.3125,-15.9376
13:15:22.375,-7.4375,-16.1251
13:15:22.385,-7.3438,-15.4376
13:15:22.396,-6.5938,-15.8126
13:15:22.405,-6.6875,-14.9376
13:15:22.415,-6.1563,-15.6876
13:15:22.425,-6.0313,-15.7501
13:15:22.435,-6.3438,-16.3126
13:15:22.445,-6.0313,-16.5626
13:15:22.455,-5.9688,-17.5001
13:15:22.465,-6.1563,-17.9376
13:15:22.475,-6.0938,-20.1876
13:15:22.486,-5.6563,-20.5626
13:15:22.495,-5.3438,-21.0626
13:15:22.505,-5.1563,-21.4376
13:15:22.515,-5.2188,-22.3751
13:15:22.526,-4.875,-23.0001
13:15:22.535,-4.8438,-22.7501
13:15:22.545,-5.25,-22.6876
13:15:22.555,-4.5313,-22.9376
13:15:22.565,-4.5313,-22.2501
13:15:22.577,-4.0313,-22.8751
13:15:22.586,-4.2188,-22.6876
13:15:22.595,-3.3125,-22.9376
13:15:22.605,-2.6563,-21.8126
13:15:22.615,-1.5625,-21.1876
13:15:22.626,-0.4688,-18.3751
13:15:22.635,1.375,-16.1876
13:15:22.645,2.7813,-13.0625
13:15:22.655,4.9688,-9.8125
13:15:22.666,6.125,-6.75
13:15:22.675,7.9375,-2.8125
13:15:22.686,9.4688,1
13:15:22.695,12.4063,3.75
13:15:22.705,13.0938,7.0625
13:15:22.715,14.5626,9.25
13:15:22.725,16.2188,10.75
13:15:22.737,16.6876,14.4376
13:15:22.746,17.5626,15.1876
13:15:22.756,17.9688,17.2501
13:15:22.765,18.6563,17.3751
13:15:22.775,18.1251,18.7501
13:15:22.786,19.0626,19.8126
13:15:22.795,19.2501,20.6251
13:15:22.805,20.2501,23.1876
13:15:22.827,20.6251,22.8126
13:15:22.830,20.4376,23.2501
13:15:22.838,19.8126,22.6251
13:15:22.877,18.9376,22.6251
13:15:22.880,18.2188,21.1876
13:15:22.881,17.6876,20.1876
13:15:22.885,16.5938,18.6876
13:15:22.892,15.9063,18.8126
13:15:22.897,15.4688,17.6251
13:15:22.927,15.3438,16.8126
13:15:22.929,15.0313,16.0626
13:15:22.932,15.2188,17.1876
13:15:22.939,13.8438,17.9376
13:15:22.964,14.3438,17.0001
13:15:22.966,14.0313,16.5626
13:15:22.968,13.5313,16.5001
13:15:22.976,13.4376,17.6876
13:15:22.984,14.0938,17.4376
13:15:22.995,14.2501,17.1251
13:15:23.006,13.5938,16.8751
13:15:23.015,13.125,17.1251
13:15:23.026,13.125,15.6876
13:15:23.057,12.8125,15.0001
13:15:23.059,12.3438,14.5001
13:15:23.061,12.0625,15.7501
13:15:23.069,12.625,13.5626
13:15:23.076,11.125,13.1251
13:15:23.085,10.8125,11.9375
13:15:23.095,10.4063,12.125
13:15:23.106,10.2813,11.5625
13:15:23.116,9.4688,10.3125
13:15:23.125,8.875,9.1875
13:15:23.135,8.0938,9.25
13:15:23.145,8.0938,7.875
13:15:23.161,7.4063,6.625
13:15:23.168,7.3125,6.75
13:15:23.176,6.4688,5
13:15:23.185,6.4688,5.0625
13:15:23.195,6.5625,4.3125
13:15:23.206,5.625,3.1875
13:15:23.215,5.3125,2.875
13:15:23.225,4.7188,1.875
13:15:23.235,4.1875,2.4375
13:15:23.246,5.0938,1.4375
13:15:23.267,4.5313,0.9375
13:15:23.269,4.5625,-0.1875
13:15:23.277,4.125,0.75
13:15:23.285,4.25,-0.4375
13:15:23.300,4.5,-1.3125
13:15:23.309,3.375,-3.1875
13:15:23.316,2.2188,-2.9375
13:15:23.325,2.0313,-4.75
13:15:23.335,1.4375,-6.5625
13:15:23.345,0.75,-6.9375
13:15:23.355,0,-8.125
13:15:23.365,-0.375,-9.3125
13:15:23.375,-0.6875,-9.25
13:15:23.386,-1.3125,-10.125
13:15:23.395,-1.5313,-11.75
13:15:23.405,-2,-12.1875
13:15:23.415,-2.9688,-13.5001
13:15:23.426,-3.7813,-15.0001
13:15:23.435,-5.125,-16.9376
13:15:23.446,-5.5625,-18.5626
13:15:23.455,-6.125,-18.7501
13:15:23.465,-6.1875,-20.3126
13:15:23.476,-7.0625,-20.2501
13:15:23.485,-7,-21.5001
13:15:23.496,-6.4375,-21.3126
13:15:23.525,-6.5625,-22.2501
13:15:23.527,-7.0938,-23.2501
13:15:23.529,-7.3438,-23.0001
13:15:23.537,-7.3125,-24.3126
13:15:23.563,-8.125,-24.1251
13:15:23.566,-7.625,-25.4376
13:15:23.569,-7.7188,-24.8751
13:15:23.576,-8,-26.1251
13:15:23.645,-7.8125,-24.9376
13:15:23.647,-6.9063,-25.3751
13:15:23.661,-6.0313,-22.7501
13:15:23.662,-5,-21.5626
13:15:23.693,-3.3438,-18.0001
13:15:23.693,-2.2813,-16.3126
13:15:23.693,-0.9375,-13.1876
13:15:23.696,0.3125,-10.6875
13:15:23.696,1.5938,-7.5
13:15:23.703,3.1563,-5.125
13:15:23.704,4.4063,-1.9375
13:15:23.713,5.625,-0.3125
13:15:23.720,6.625,3.1875
13:15:23.731,7.2188,3.6875
13:15:23.740,7.9063,5.75
13:15:23.751,7.7813,5.9375
13:15:23.760,8.5938,8.0625
13:15:23.771,9,8.625
13:15:23.782,8.6563,9.375
13:15:23.790,9.0313,10.8125
13:15:23.801,9.6563,11.1875
13:15:23.810,9.6875,11.375
13:15:23.822,8.9375,11.0625
13:15:23.831,8.1875,12.1875
13:15:23.840,7.9688,9.9375
13:15:23.850,7,8.25
13:15:23.860,6.6563,8.125
13:15:23.870,6.0313,7.4375
13:15:23.881,5.8125,7.5625
13:15:23.891,5.5313,7.75
13:15:23.901,5.9688,7.6875
13:15:23.911,5.5938,6.75
13:15:23.920,4.125,7.375
13:15:23.930,3.4375,6.3125
13:15:23.940,3.5938,5.25
13:15:23.951,2.4375,4.6875
13:15:23.960,1.875,3.875
13:15:23.976,2.4063,3.75
13:15:23.986,1.625,3.625
13:15:23.995,1.25,3.4375
13:15:24.005,1.6875,2.4375
13:15:24.018,0.875,1.875
13:15:24.030,0.1875,2.25
13:15:24.035,-0.1563,0.625
13:15:24.045,-0.9688,-0.0625
13:15:24.056,-1.3438,0
13:15:24.066,-1.2813,-1.25
13:15:24.075,-1.4688,-1.9375
13:15:24.085,-2.4688,-1.625
13:15:24.096,-2.2188,-3.125
13:15:24.106,-3.3438,-4.1875
13:15:24.115,-4.3438,-4.4375
13:15:24.125,-4.5625,-6.6875
13:15:24.135,-5.25,-6.9375
13:15:24.146,-5.875,-7.6875
13:15:24.154,-5.5313,-8.875
13:15:24.166,-6.6563,-9.9375
13:15:24.175,-6.875,-9.9375
13:15:24.185,-7.1563,-10.625
13:15:24.197,-7.3438,-11.5625
13:15:24.205,-7.4375,-12.25
13:15:24.215,-7.6875,-12.75
13:15:24.226,-7.8125,-13.3126
13:15:24.252,-7.5938,-13.6876
13:15:24.254,-7.8125,-13.6876
13:15:24.256,-8.3125,-14.4376
13:15:24.287,-8.8438,-15.5626
13:15:24.289,-8.9375,-16.3126
13:15:24.291,-9.5313,-16.4376
13:15:24.298,-9.8125,-17.5626
13:15:24.339,-9.9063,-18.0626
13:15:24.342,-10.3438,-18.8751
13:15:24.343,-11.1563,-19.5001
13:15:24.351,-11.375,-20.3126
13:15:24.355,-11.75,-21.3126
13:15:24.358,-11.7813,-22.1251
13:15:24.389,-12.1875,-22.6876
13:15:24.390,-12.25,-23.3126
13:15:24.392,-13.0938,-24.0626
13:15:24.398,-12.6875,-24.5001
13:15:24.411,-13.2813,-24.8751
13:15:24.416,-13.1563,-24.9376
13:15:24.425,-13.0313,-25.9376
13:15:24.440,-13.5313,-26.9376
13:15:24.445,-13.8438,-27.1251
13:15:24.457,-13.8126,-27.8751
13:15:24.467,-14.2501,-28.3751
13:15:24.477,-14.3126,-29.3126
13:15:24.486,-14.7501,-29.7501
13:15:24.496,-14.5001,-30.5001
13:15:24.506,-13.6876,-30.6251
13:15:24.515,-14.0626,-30.1876
13:15:24.526,-14.5001,-32.1251
13:15:24.536,-15.0313,-31.8751
13:15:24.546,-14.8126,-32.9376
13:15:24.556,-15.2501,-33.0626
13:15:24.566,-14.7813,-34.0626
13:15:24.583,-15.1563,-33.6251
13:15:24.586,-13.6876,-32.8751
13:15:24.602,-12.7188,-30.6251
13:15:24.616,-10.9063,-28.5001
13:15:24.621,-10.4063,-24.8751
13:15:24.628,-8.125,-23.6251
13:15:24.637,-7.0938,-19.0626
13:15:24.646,-5.5938,-17.3126
13:15:24.656,-4.0938,-14.1876
13:15:24.667,-1.7188,-10
13:15:24.676,-0.625,-7.8125
13:15:24.687,0.0313,-6.125
13:15:24.695,0.375,-4.25
13:15:24.706,0.7813,-2.125
13:15:24.716,0.8438,-1.75
13:15:24.727,1.3125,0.3125
13:15:24.736,2.125,0.25
13:15:24.745,3.2813,3.4375
13:15:24.756,5.4375,5.5625
13:15:24.767,5.4375,7.25
13:15:24.777,7.25,8.6875
13:15:24.785,7.2188,10.5
13:15:24.797,8.5625,11.5625
13:15:24.806,8.25,11.4375
13:15:24.815,7.0938,10.625
13:15:24.826,5.9688,10.1875
13:15:24.836,5.0313,8.625
13:15:24.846,4.9688,8.875
13:15:24.855,5.1563,8.0625
13:15:24.866,4.4688,8.625
13:15:24.877,4.9688,8.5
13:15:24.885,4.2813,9.25
13:15:24.896,4.8125,8.8125
13:15:24.907,4.625,8.375
13:15:24.917,3.4063,7.25
13:15:24.927,3.5938,8.625
13:15:24.943,3.5313,8.625
13:15:24.949,3.8125,8.625
13:15:24.958,3.875,8.1875
13:15:24.966,3.1563,9.125
13:15:24.981,3.375,8
13:15:24.989,2.4688,6.9375
13:15:25.016,0.6875,5.6875
13:15:25.019,0.3438,5.4375
13:15:25.021,0.25,4.1875
13:15:25.026,-0.8125,3.3125
13:15:25.036,-1.9063,3.75
13:15:25.071,-1.2188,2.75
13:15:25.073,-1.375,1.8125
13:15:25.073,-1.5,2.8125
13:15:25.099,-1.2188,1.9375
13:15:25.101,-2,1.4375
13:15:25.104,-2.4688,0.75
13:15:25.107,-2.9688,0
13:15:25.134,-3.3125,-0.4375
13:15:25.136,-3.3438,-0.4375
13:15:25.139,-3.4063,-2.0625
13:15:25.173,-3.8125,-2.3125
13:15:25.175,-4.1875,-1.9375
13:15:25.177,-3.5938,-2.4375
13:15:25.184,-3.8438,-3.1875
13:15:25.190,-4.4063,-3.3125
13:15:25.196,-3.8125,-3.9375
13:15:25.207,-4.5313,-4.5
13:15:25.217,-4.6875,-4.3125
13:15:25.226,-4.9375,-5.25
13:15:25.238,-5.375,-6.875
13:15:25.247,-5.5,-6.9375
13:15:25.256,-6.3438,-8.375
13:15:25.266,-6.875,-9.625
13:15:25.276,-7.5625,-9.75
13:15:25.286,-7.5625,-10.375
13:15:25.296,-7.125,-10.25
13:15:25.306,-7.5938,-11.375
13:15:25.317,-8.25,-12.25
13:15:25.326,-8,-12.0625
13:15:25.336,-8.1563,-12.875
13:15:25.348,-7.5625,-12.875
13:15:25.358,-7.8125,-13.3751
13:15:25.366,-7.6875,-13.5001
13:15:25.378,-7.75,-13.8751
13:15:25.387,-7.8125,-14.1876
13:15:25.396,-8.1875,-15.3751
13:15:25.407,-8.6563,-15.4376
13:15:25.416,-8.2188,-16.0626
13:15:25.427,-8.9375,-17.5001
13:15:25.436,-8.5938,-17.4376
13:15:25.448,-9.5625,-17.8126
13:15:25.456,-8.75,-18.1876
13:15:25.466,-9.0625,-18.5001
13:15:25.476,-8.3438,-18.6251
13:15:25.486,-7.75,-17.9376
13:15:25.496,-7.5,-19.0001
13:15:25.506,-7.2813,-19.5626
13:15:25.516,-7.625,-19.8751
13:15:25.526,-7.6563,-20.0626
13:15:25.537,-8.3125,-21.3126
13:15:25.546,-8.4688,-21.5626
13:15:25.556,-7.7813,-21.6251
13:15:25.567,-7.9375,-22.1251
13:15:25.576,-7.5,-21.9376
13:15:25.586,-6.75,-19.8751
13:15:25.617,-5.0938,-17.6251
13:15:25.619,-3.9688,-15.5001
13:15:25.622,-1.6563,-12.6875
13:15:25.629,-0.5,-9.5
13:15:25.636,1.8125,-6.0625
13:15:25.649,3.75,-1.625
13:15:25.657,5.7813,2.1875
13:15:25.666,7.125,5.1875
13:15:25.676,8.7813,7.625
13:15:25.687,9.75,10.75
13:15:25.696,11.7188,13.4376
13:15:25.726,12.8438,15.5626
13:15:25.728,14.0313,18.3126
13:15:25.730,14.5626,20.0001
13:15:25.738,16.2501,21.8751
13:15:25.777,16.7501,24.3126
13:15:25.778,17.1563,25.0001
13:15:25.781,18.0313,26.8751
13:15:25.790,18.6563,27.3126
13:15:25.790,19.0313,29.3751
13:15:25.807,19.0001,29.3126
13:15:25.810,19.9688,30.3126
13:15:25.842,19.3751,29.2501
13:15:25.844,18.0001,29.1876
13:15:25.846,17.6251,27.9376
13:15:25.853,17.5626,27.1876
13:15:25.861,15.7813,25.3751
13:15:25.886,15.7188,26.1251
13:15:25.888,16.5626,26.0626
13:15:25.903,16.1563,25.4376
13:15:25.910,16.2501,27.0001
13:15:25.912,16.5938,27.0626
13:15:25.926,16.4063,26.7501
13:15:25.944,16.0001,26.0001
13:15:25.947,15.5313,26.1251
13:15:25.951,15.1563,26.3751
13:15:25.957,15.5313,26.1251
13:15:25.966,14.5313,24.7501
13:15:25.976,14.4376,25.3126
13:15:25.986,14.6876,25.6876
13:15:25.997,14.4688,25.2501
13:15:26.007,14.0626,24.0626
13:15:26.016,13.0313,24.3751
13:15:26.026,12.6563,22.5626
13:15:26.036,12.5,21.8751
13:15:26.046,11.0938,20.4376
13:15:26.056,10.2813,20.0626
13:15:26.066,9.625,18.8126
13:15:26.076,9.4688,17.1876
13:15:26.087,8.7813,15.7501
13:15:26.096,8.0938,16.1876
13:15:26.107,8.125,15.7501
13:15:26.116,8.1875,14.4376
13:15:26.126,7.5938,14.2501
13:15:26.137,7.0938,13.3126
13:15:26.146,7.2188,12.625
13:15:26.156,6.6563,11.5
13:15:26.166,5.875,11.125
13:15:26.176,4.9375,9.875
13:15:26.186,4.8438,8.6875
13:15:26.196,4.3125,7.5
13:15:26.206,4.0625,7.0625
13:15:26.216,3.9688,6.8125
13:15:26.226,3.8125,7.375
13:15:26.237,4.4688,6.25
13:15:26.247,3,4.8125
13:15:26.267,2.6563,4.625
13:15:26.274,2.7813,3.375
13:15:26.288,2.75,2.875
13:15:26.290,1.7188,1.8125
13:15:26.296,1.5313,2
13:15:26.306,1.625,0.8125
13:15:26.317,1.8438,0.0625
13:15:26.329,0.5625,-1.4375
13:15:26.337,-0.375,-2.375
13:15:26.347,-0.9688,-2.9375
13:15:26.356,-1.5938,-5.3125
13:15:26.367,-2.875,-7.125
13:15:26.376,-3.5313,-7.375
13:15:26.386,-3.625,-8.6875
13:15:26.396,-3.6875,-9.9375
13:15:26.406,-4.4688,-11.125
13:15:26.416,-5.1563,-12.0625
13:15:26.426,-5.125,-11.875
13:15:26.436,-5.5625,-12.1875
13:15:26.446,-5.0625,-13.4376
13:15:26.457,-5.9688,-14.6876
13:15:26.466,-6.9063,-16.2501
13:15:26.509,-7.2188,-16.0626
13:15:26.511,-7.5625,-17.8126
13:15:26.513,-8.1875,-19.2501
13:15:26.521,-8.3125,-20.1876
13:15:26.521,-8.4063,-20.0001
13:15:26.534,-8.1875,-20.3751
13:15:26.536,-8.125,-20.3126
13:15:26.573,-8.0313,-20.0626
13:15:26.577,-7.25,-19.6876
13:15:26.579,-6.5938,-18.8126
13:15:26.590,-5.7188,-16.9376
13:15:26.592,-5.3438,-15.5001
13:15:26.627,-3.9375,-12.875
13:15:26.628,-2.875,-9.9375
13:15:26.635,-1.5,-7.375
13:15:26.635,-0.4375,-4.3125
13:15:26.636,1.75,-1.4375
13:15:26.661,3.125,1.4375
13:15:26.665,4.3125,4
13:15:26.669,5.625,6.25
13:15:26.676,6.4063,7.6875
13:15:26.686,7.3438,10.5625
13:15:26.701,8.0625,11.6875
13:15:26.708,8.5625,12.9375
13:15:26.716,8.7188,13.4376
13:15:26.727,9.375,14.3126
13:15:26.737,10.75,16.0626
13:15:26.746,10.125,16.7501
13:15:26.756,10.5625,17.0626
13:15:26.766,9.7813,17.2501
13:15:26.776,9.3438,16.1251
13:15:26.788,8.2188,15.5001
13:15:26.797,7.3125,14.0001
13:15:26.806,7.0938,12.6875
13:15:26.816,6.9688,12.0625
13:15:26.826,6.4375,12.9375
13:15:26.836,7.0625,12.5625
13:15:26.846,6.4688,12
13:15:26.857,6.125,11.8125
13:15:26.866,5.4688,10.8125
13:15:26.897,4.75,12
13:15:26.898,4.9688,10.8125
13:15:26.902,4.2813,10.25
13:15:26.908,4.0625,9.9375
13:15:26.919,4.1563,11.1875
13:15:26.928,4.3438,10.25
13:15:26.936,3.8438,9.8125
13:15:26.946,3.0938,9.1875
13:15:26.956,2.9063,10.1875
13:15:26.966,2.9688,8.25
13:15:26.976,2,7.6875
13:15:26.987,1.4063,7.125
13:15:26.996,0.875,5.75
13:15:27.006,0.5313,5.75
13:15:27.016,0.7813,4.9375
13:15:27.027,0.0938,4.375
13:15:27.036,-0.4375,4.5
13:15:27.046,-0.3125,3.8125
13:15:27.056,-0.3125,2.75
13:15:27.066,-1.4688,1.1875
13:15:27.076,-2.375,1.8125
13:15:27.087,-2,0.125
13:15:27.097,-2.5,-1.0625
13:15:27.106,-3.3125,-2.25
13:15:27.117,-3.6563,-2.6875
13:15:27.127,-2.9063,-1.9375
13:15:27.136,-2.6875,-1.875
13:15:27.167,-3.6563,-3.625
13:15:27.169,-3.7813,-2.875
13:15:27.171,-3.7813,-4.5625
13:15:27.178,-4.6875,-5.6875
13:15:27.210,-4.9063,-6.3125
13:15:27.211,-5.4063,-6.0625
13:15:27.246,-4.8438,-7.1875
13:15:27.250,-5.2188,-8.75
13:15:27.283,-5.625,-7.8125
13:15:27.283,-5.375,-8.25
13:15:27.283,-6.25,-8.9375
13:15:27.284,-5.8125,-9.75
13:15:27.286,-6.6875,-10.125
13:15:27.327,-6.4688,-11
13:15:27.329,-6.9375,-11.375
13:15:27.329,-6.1875,-12
13:15:27.329,-6.7813,-12.4375
13:15:27.331,-6.2813,-12.6875
13:15:27.339,-6.5625,-14.1251
13:15:27.342,-7.6875,-13.8751
13:15:27.346,-7.2188,-14.9376
13:15:27.356,-8.125,-14.6876
13:15:27.366,-8.0625,-17.2501
13:15:27.376,-9.0625,-17.1876
13:15:27.386,-9.375,-18.6251
13:15:27.396,-9.375,-19.0626
13:15:27.407,-9.4063,-20.1251
13:15:27.416,-9.0313,-19.6876
13:15:27.427,-9.125,-21.0001
13:15:27.437,-8.9688,-21.0001
13:15:27.450,-9.0313,-21.6251
13:15:27.457,-8.75,-22.4376
13:15:27.467,-9.2813,-21.6251
13:15:27.476,-9.4688,-23.8751
13:15:27.486,-10.8125,-24.4376
13:15:27.496,-10.375,-23.8126
13:15:27.506,-10.4063,-25.1251
13:15:27.516,-10.1875,-24.1251
13:15:27.527,-9.1563,-23.5626
13:15:27.536,-8.1875,-21.5626
13:15:27.547,-6.1875,-18.6876
13:15:27.568,-4.3438,-15.6251
13:15:27.575,-2.4063,-12.0625
13:15:27.589,-0.5625,-8.8125
13:15:27.590,1.2813,-5.4375
13:15:27.597,2.875,-1.6875
13:15:27.606,4.75,2.4375
13:15:27.617,6.5625,4.5625
13:15:27.626,7.1875,6.5625
13:15:27.636,9.0938,9.0625
13:15:27.646,9.4688,11.4375
13:15:27.657,10.5625,13.1876
13:15:27.666,10.8438,14.6876
13:15:27.677,11.875,15.9376
13:15:27.687,12.4063,17.5001
13:15:27.696,13,18.6876
13:15:27.706,13.5938,20.1251
13:15:27.717,13.8438,20.5626
13:15:27.726,14.3751,21.0001
13:15:27.737,13.7188,21.2501
13:15:27.746,14.0001,21.7501
13:15:27.756,12.9688,19.6876
13:15:27.766,12.0625,19.4376
13:15:27.776,11.25,17.7501
13:15:27.786,10.4063,17.6251
13:15:27.796,9.375,17.5001
13:15:27.806,10.5,16.8751
13:15:27.817,9.3438,16.0001
13:15:27.827,9.2188,16.6251
13:15:27.836,9.1563,17.6876
13:15:27.846,10,17.3126
13:15:27.856,9.375,17.1876
13:15:27.866,9.3125,17.7501
13:15:27.877,9.1563,17.4376
13:15:27.886,8.5625,16.5001
13:15:27.896,7.625,16.1251
13:15:27.906,7.3438,15.9376
13:15:27.917,7,14.7501
13:15:27.926,6.0625,13.9376
13:15:27.969,5.875,14.1876
13:15:27.971,6.9063,15.2501
13:15:27.973,7.3438,14.3126
13:15:27.977,6.7813,14.6251
13:15:27.983,5.4688,13.6251
13:15:28.014,4.875,12.8125
13:15:28.015,4.4375,11.5
13:15:28.018,3.5313,10.5625
13:15:28.044,2.9063,9.25
13:15:28.046,2.4063,9.5625
13:15:28.047,2.7813,8.375
13:15:28.054,1.8438,7.5
13:15:28.078,1.8438,8.4375
13:15:28.081,1.6563,7.375
13:15:28.083,0.4375,5.125
13:15:28.109,0,5.0625
13:15:28.112,-0.4688,4.5625
13:15:28.115,-0.2188,3
13:15:28.125,-0.6875,2.8125
13:15:28.132,-0.4063,2
13:15:28.141,-0.2188,4.1875
13:15:28.151,-0.25,1.625
13:15:28.179,-1.0938,1.1875
13:15:28.182,-1.5,1
13:15:28.184,-1.1875,-0.625
13:15:28.193,-2.625,-2.125
13:15:28.206,-3.25,-3.0625
13:15:28.211,-3.125,-3.125
13:15:28.222,-3,-3.375
13:15:28.231,-2.9375,-3.625
13:15:28.241,-2.9375,-3.125
13:15:28.252,-3.2813,-4.9375
13:15:28.262,-3.875,-5.625
13:15:28.272,-4.8125,-6.8125
13:15:28.281,-5.4375,-7.9375
13:15:28.291,-5.0625,-8.9375
13:15:28.301,-5.5938,-8.375
13:15:28.311,-5.5313,-10.5625
13:15:28.321,-5.3125,-11.125
13:15:28.332,-5.4063,-11.125
13:15:28.341,-5.875,-11.875
13:15:28.351,-5.7813,-12.6875
13:15:28.361,-6.8125,-14.0626
13:15:28.371,-6.8125,-14.5626
13:15:28.382,-7.1563,-15.3751
13:15:28.392,-6.8438,-14.9376
13:15:28.401,-6.2813,-16.0626
13:15:28.411,-6.0313,-15.6876
13:15:28.421,-5.8438,-15.9376
13:15:28.431,-5.8125,-15.7501
13:15:28.441,-5.4063,-16.1251
13:15:28.451,-5.4375,-16.3751
13:15:28.464,-5.4063,-17.0001
13:15:28.471,-5.2813,-17.0626
13:15:28.481,-4.7188,-16.5001
13:15:28.491,-3.9688,-16.0001
13:15:28.502,-3.0313,-15.0001
13:15:28.522,-1.0938,-12.5625
13:15:28.526,0.2188,-10.875
13:15:28.539,1.9688,-6.6875
13:15:28.548,4.125,-3.5
13:15:28.552,6.5,0.125
13:15:28.563,7.4063,2.875
13:15:28.574,10.0625,7.875
13:15:28.581,11.625,10.8125
13:15:28.591,13.5001,14.6876
13:15:28.601,14.9376,17.3126
13:15:28.612,16.4688,20.0001
13:15:28.621,17.3438,21.9376
13:15:28.632,17.2813,23.4376
13:15:28.642,19.0938,26.2501
13:15:28.651,20.5001,28.5626
13:15:28.662,21.5001,30.8126
13:15:28.671,22.8126,34.1876
13:15:28.706,23.6876,35.6876
13:15:28.708,23.1876,36.7501
13:15:28.710,22.4063,37.5001
13:15:28.712,22.4376,39.1252
13:15:28.743,23.9688,42.8127
13:15:28.745,26.7814,49.7502
13:15:28.747,30.4376,58.0002
13:15:28.755,36.1564,66.3128
13:15:28.777,43.1252,79.6253
13:15:28.780,54.844,95.5629
13:15:28.785,64.9377,110.9379
13:15:28.809,73.7503,123.938
13:15:28.814,80.0941,133.688
13:15:28.815,88.5941,143.063
13:15:28.852,100.0316,158.0006
13:15:28.854,111.2192,173.0007
13:15:28.871,119.1255,183.5007
13:15:28.877,126.5005,193.7507
13:15:28.890,132.7193,200.5008
13:15:28.890,138.0005,208.3758
13:15:28.892,143.313,213.2508
13:15:28.893,147.8443,220.0634
13:15:28.901,153.9693,226.8759
13:15:28.911,157.6256,232.1259
13:15:28.922,160.5944,236.3134
13:15:28.931,162.7194,237.3759
13:15:28.942,164.7194,239.0009
13:15:28.951,164.3444,238.5634
13:15:28.961,164.2194,238.1259
13:15:28.971,164.1569,237.1884
13:15:28.981,161.3444,233.6259
13:15:28.992,160.6569,231.0009
13:15:29.001,160.9694,232.0009
13:15:29.011,162.3756,233.1259
13:15:29.021,159.4381,229.1884
13:15:29.032,156.7818,224.1259
13:15:29.041,154.7506,221.2509
13:15:29.051,154.0318,219.8758
13:15:29.061,152.2818,217.0008
13:15:29.071,151.3131,215.1258
13:15:29.081,149.4693,212.1883
13:15:29.092,148.1568,209.8133
13:15:29.101,145.1568,206.3758
13:15:29.111,144.0005,203.8133
13:15:29.121,141.938,201.0633
13:15:29.131,140.5943,198.6258
13:15:29.141,139.9693,197.5633
13:15:29.152,138.9693,196.3757
13:15:29.161,138.0318,194.0632
13:15:29.171,136.6568,191.1257
13:15:29.181,135.1568,189.6257
13:15:29.191,133.7505,186.6882
13:15:29.202,131.9693,184.0007
13:15:29.212,129.8442,180.9382
13:15:29.221,128.688,178.9382
13:15:29.231,127.1255,176.0007
13:15:29.242,125.1567,173.1882
13:15:29.251,124.0942,171.1882
13:15:29.261,123.1567,169.8756
13:15:29.272,122.9692,168.2506
13:15:29.281,121.938,167.1881
13:15:29.291,121.0942,164.5631
13:15:29.303,120.4692,164.0006
13:15:29.311,118.8442,159.8756
13:15:29.326,117.3442,158.9381
13:15:29.331,116.0317,156.0631
13:15:29.342,114.1879,154.1256
13:15:29.351,113.0317,151.3756
13:15:29.362,109.9067,148.3131
13:15:29.372,106.8129,142.5005
13:15:29.381,103.4691,139.5005
13:15:29.393,100.0941,133.5005
13:15:29.401,96.0316,129.0005
13:15:29.412,93.6254,124.3755
13:15:29.461,93.0629,123.2505
13:15:29.461,91.0316,120.938
13:15:29.463,90.7503,119.938
13:15:29.465,90.8754,119.6255
13:15:29.469,90.3441,119.438
13:15:29.496,90.9379,119.813
13:15:29.499,90.2503,120.2505
13:15:29.501,91.1879,120.688
13:15:29.507,91.1254,122.3755
13:15:29.512,92.1254,124.7505
13:15:29.548,93.5629,126.063
13:15:29.551,93.3754,128.688
13:15:29.553,94.0941,130.313
13:15:29.555,94.7191,131.2505
13:15:29.562,95.5004,133.563
13:15:29.596,95.5004,134.313
13:15:29.598,96.2191,136.1255
13:15:29.600,96.8754,137.5005
13:15:29.602,96.9691,139.0005
13:15:29.613,96.9379,139.938
13:15:29.622,96.1879,139.7505
13:15:29.632,96.1566,140.0005
13:15:29.641,95.2816,140.688
13:15:29.651,94.7504,140.3755
13:15:29.661,94.3754,139.3755
13:15:29.671,93.0004,139.3755
13:15:29.681,92.5941,137.8755
13:15:29.692,91.9066,136.813
13:15:29.702,90.3754,134.8755
13:15:29.711,88.5316,132.0005
13:15:29.721,87.5941,130.7505
13:15:29.731,85.9691,129.2505
13:15:29.741,84.9691,127.688
13:15:29.753,83.9378,126.188
13:15:29.761,83.5003,125.1255
13:15:29.771,82.3441,124.6255
13:15:29.781,81.1878,122.7505
13:15:29.791,80.6253,121.5005
13:15:29.803,80.2191,121.8755
13:15:29.812,78.9378,119.813
13:15:29.828,78.2191,118.063
13:15:29.841,77.3128,116.6879
13:15:29.844,75.469,115.1879
13:15:29.853,74.7815,113.5629
13:15:29.861,72.8128,110.4379
13:15:29.872,71.9065,109.3129
13:15:29.881,71.0315,107.6254
13:15:29.893,69.2815,105.5629
13:15:29.901,67.5003,103.5629
13:15:29.912,66.844,101.4379
13:15:29.921,65.844,100.1879
13:15:29.932,65.5003,99.5004
13:15:29.941,65.594,98.4379
13:15:29.952,65.219,97.7504
13:15:29.962,63.6252,95.6879
13:15:29.972,63.3752,93.9379
13:15:29.981,61.3127,91.6879
13:15:29.991,59.8127,89.4378
13:15:30.002,58.6565,87.3753
13:15:30.012,57.594,84.8128
13:15:30.022,56.5627,83.3753
13:15:30.032,56.1252,82.0628
13:15:30.041,55.4065,79.8753
13:15:30.053,54.1565,78.3128
13:15:30.063,52.844,77.1878
13:15:30.075,51.8439,74.6878
13:15:30.083,51.0627,73.4378
13:15:30.093,50.4377,71.5003
13:15:30.101,49.0314,69.3128
13:15:30.112,47.6252,66.9378
13:15:30.143,46.3127,64.5627
13:15:30.147,44.5627,62.4377
13:15:30.147,43.3127,59.9377
13:15:30.182,42.5939,58.1877
13:15:30.184,40.9377,56.3752
13:15:30.214,39.6877,55.3752
13:15:30.214,39.2189,53.6252
13:15:30.214,38.6564,53.0627
13:15:30.217,37.9376,51.0627
13:15:30.222,36.6251,48.8127
13:15:30.224,35.8751,47.1877
13:15:30.264,33.8439,44.5627
13:15:30.267,32.7189,42.8752
13:15:30.267,32.0626,41.1877
13:15:30.273,30.4064,38.9376
13:15:30.273,30.1564,37.2501
13:15:30.282,28.7189,36.1251
13:15:30.302,29.0314,34.8126
13:15:30.305,27.0626,33.1251
13:15:30.313,26.8439,31.1876
13:15:30.322,25.3126,30.0626
13:15:30.331,24.5001,28.1251
13:15:30.346,24.7188,27.3751
13:15:30.354,24.5626,26.3126
13:15:30.362,23.1563,25.5626
13:15:30.372,23.8126,25.5001
13:15:30.383,23.0938,23.6251
13:15:30.393,22.2813,22.7501
13:15:30.403,22.2188,22.1251
13:15:30.413,22.1563,21.0001
13:15:30.423,22.5938,21.6876
13:15:30.435,23.3438,22.6251
13:15:30.442,24.8751,24.6876
13:15:30.453,26.9689,27.5001
13:15:30.462,28.3439,31.0001
13:15:30.474,31.2501,34.5626
13:15:30.483,32.2501,38.8126
13:15:30.493,34.8126,41.6252
13:15:30.503,36.1876,45.1877
13:15:30.512,38.0314,49.1252
13:15:30.522,39.0626,51.0627
13:15:30.533,40.5314,54.1252
13:15:30.542,41.1877,56.6877
13:15:30.552,41.9064,57.6877
13:15:30.562,42.2814,59.4377
13:15:30.573,43.3752,62.0002
13:15:30.583,43.2189,62.1877
13:15:30.593,44.2814,64.5002
13:15:30.602,44.4377,66.3128
13:15:30.612,45.1877,66.6878
13:15:30.622,44.5939,66.9378
13:15:30.633,44.2189,67.3128
13:15:30.642,43.4689,66.5003
13:15:30.653,43.1564,65.5003
13:15:30.663,41.4377,64.0627
13:15:30.672,40.7189,62.5627
13:15:30.682,39.2814,61.6252
13:15:30.693,39.8439,61.0002
13:15:30.702,38.4376,60.3127
13:15:30.712,38.2189,60.1877
13:15:30.737,38.2501,59.5002
13:15:30.741,37.4376,59.1877
13:15:30.742,37.5001,58.7502
13:15:30.756,37.4689,58.0627
13:15:30.764,36.7501,57.8752
13:15:30.773,37.9689,58.5002
13:15:30.782,36.4064,57.0002
13:15:30.797,35.2189,55.9377
13:15:30.802,35.0626,54.0627
13:15:30.841,33.9376,54.3752
13:15:30.843,34.6564,52.7502
13:15:30.845,32.8751,51.6877
13:15:30.847,31.6564,48.8752
13:15:30.855,29.6564,47.5002
13:15:30.897,28.7501,45.8127
13:15:30.899,28.7501,43.6877
13:15:30.900,28.3439,43.3752
13:15:30.936,26.7814,41.6252
13:15:30.936,26.3439,40.1252
13:15:30.936,25.3751,39.3127
13:15:30.938,24.5001,37.0626
13:15:30.947,23.3126,36.1251
13:15:30.948,23.1563,34.4376
13:15:30.956,22.0938,32.7501
13:15:30.976,21.4688,32.3126
13:15:30.978,21.2188,30.6251
13:15:30.985,19.9063,29.8751
13:15:30.992,20.1563,29.3751
13:15:31.002,20.4376,27.5001
13:15:31.013,19.3438,27.6251
13:15:31.022,19.3126,26.1251
13:15:31.033,19.0001,25.6876
13:15:31.042,18.5938,25.2501
13:15:31.052,18.5938,23.8751
13:15:31.062,17.5001,22.6251
13:15:31.073,16.4376,21.3751
13:15:31.083,15.5313,19.9376
13:15:31.095,15.3751,17.8751
13:15:31.104,14.5001,17.0001
13:15:31.121,13.9376,16.0001
13:15:31.124,13.7501,15.3751
13:15:31.142,13.5313,13.9376
13:15:31.144,13.4063,13.8126
13:15:31.152,12.4375,11.4375
13:15:31.162,11.625,10.0625
13:15:31.172,10.8438,8.9375
13:15:31.182,10.1875,8.6875
13:15:31.192,9.5938,7.3125
13:15:31.203,8.9063,5.375
13:15:31.213,8.8125,4.5
13:15:31.222,8.4688,3.3125
13:15:31.233,7.0625,1.6875
13:15:31.242,6.625,0.375
13:15:31.253,6.0313,-0.75
13:15:31.263,4.8125,-1.875
13:15:31.273,4.9688,-3
13:15:31.283,4.4688,-4.3125
13:15:31.292,4.0938,-4.375
13:15:31.303,2.8438,-6.25
13:15:31.312,2.5313,-7.5
13:15:31.322,0.875,-8.375
13:15:31.333,0.7188,-9.8125
13:15:31.343,0.9063,-10.375
13:15:31.351,0.3125,-10.875
13:15:31.363,0.9375,-11.1875
13:15:31.372,1.1875,-10.5625
13:15:31.382,2.5,-7.9375
13:15:31.393,4.5313,-5
13:15:31.402,6.3438,-3.1875
13:15:31.413,8.0938,0.0625
13:15:31.422,10.5313,3.9375
13:15:31.432,12.75,8.6875
13:15:31.442,15.4376,12.875
13:15:31.462,17.9688,16.7501
13:15:31.467,20.4688,21.5001
13:15:31.485,22.1251,24.5626
13:15:31.487,24.0313,28.1876
13:15:31.496,25.2188,30.6251
13:15:31.503,25.7501,32.9376
13:15:31.512,27.0314,35.7501
13:15:31.523,27.7189,38.1251
13:15:31.556,29.5939,39.7502
13:15:31.558,30.2501,41.1252
13:15:31.561,30.5626,43.1252
13:15:31.562,31.6564,44.1877
13:15:31.600,30.3439,44.3127
13:15:31.601,30.3751,45.0002
13:15:31.603,30.1876,45.3752
13:15:31.606,30.0001,44.3752
13:15:31.613,28.6251,42.6877
13:15:31.644,27.5939,42.1252
13:15:31.646,26.8126,41.2502
13:15:31.649,26.0313,40.4377
13:15:31.654,25.9688,39.5627
13:15:31.690,24.9688,38.4376
13:15:31.691,24.8751,37.2501
13:15:31.694,24.0938,36.2501
13:15:31.696,24.0626,36.1251
13:15:31.702,23.1876,34.1251
13:15:31.716,21.5938,32.5626
13:15:31.729,21.0626,31.6876
13:15:31.733,20.6251,30.3751
13:15:31.742,20.0001,29.6876
13:15:31.752,19.0001,28.3751
13:15:31.763,18.3126,27.3751
13:15:31.772,18.1251,26.5001
13:15:31.782,17.6876,25.4376
13:15:31.792,17.0938,25.0626
13:15:31.802,17.4063,24.9376
13:15:31.813,17.2501,25.0626
13:15:31.823,17.1876,24.0626
13:15:31.832,17.0626,23.0626
13:15:31.843,17.0313,22.4376
13:15:31.852,15.9063,22.0626
13:15:31.862,16.7188,20.6251
13:15:31.873,15.8438,19.6876
13:15:31.882,16.1251,19.6876
13:15:31.892,16.0313,19.3126
13:15:31.902,15.1876,17.8126
13:15:31.913,14.7813,16.3126
13:15:31.922,14.1563,14.7501
13:15:31.933,13.4688,13.7501
13:15:31.943,13.0625,13.3126
13:15:31.953,12.7188,11.4375
13:15:31.962,11.625,9.0625
13:15:31.973,10.125,8.6875
13:15:31.987,9.5,6.6875
13:15:32.017,8.875,4.75
13:15:32.021,8.6563,4.5
13:15:32.021,8.0313,4.4375
13:15:32.028,7.75,3
13:15:32.039,7.5,1.9375
13:15:32.047,6.75,1.25
13:15:32.057,6.5,1.3125
13:15:32.067,7.25,0.5
13:15:32.078,7.1563,0.125
13:15:32.087,7.125,-0.4375
13:15:32.098,7,-0.125
13:15:32.112,7.0625,-0.0625
13:15:32.118,7.1563,-2.0625
13:15:32.127,6.0938,-3
13:15:32.137,5.9375,-3.3125
13:15:32.147,4.8438,-5.3125
13:15:32.157,4.4063,-6.375
13:15:32.167,3.25,-7.4375
13:15:32.178,2.4688,-8.8125
13:15:32.189,1.5625,-9
13:15:32.197,1.9688,-10.375
13:15:32.208,2.0938,-11.125
13:15:32.218,1.4688,-11.6875
13:15:32.227,1.4063,-12.125
13:15:32.237,1.2188,-11.375
13:15:32.247,1.2188,-12
13:15:32.257,1.25,-12.8125
13:15:32.267,0.4063,-14.1876
13:15:32.278,0.4375,-13.3751
13:15:32.287,1.5313,-13.1251
13:15:32.297,1.1563,-14.1251
13:15:32.317,1.375,-12.375
13:15:32.319,2.25,-12.125
13:15:32.358,2.875,-11.1875
13:15:32.359,4.4063,-9.0625
13:15:32.361,6.4063,-5
13:15:32.363,9.1563,-1.875
13:15:32.369,11.5,1.5
13:15:32.380,13.3751,6.125
13:15:32.389,15.5001,9.875
13:15:32.421,18.2813,13.1876
13:15:32.422,19.8438,16.6876
13:15:32.438,21.1251,20.5001
13:15:32.468,22.7813,22.6876
13:15:32.490,23.5626,24.6251
13:15:32.504,24.6251,27.7501
13:15:32.510,25.7813,29.3751
13:15:32.510,26.7814,31.4376
13:15:32.514,27.0001,33.8751
13:15:32.514,28.8439,36.0626
13:15:32.517,29.3751,36.5001
13:15:32.522,29.0939,37.8126
13:15:32.532,27.9689,37.6876
13:15:32.543,26.9376,37.6876
13:15:32.553,26.4064,36.2501
13:15:32.563,25.1876,35.0001
13:15:32.572,24.4688,35.1251
13:15:32.583,24.5313,34.9376
13:15:32.593,23.4376,34.6876
13:15:32.603,23.4376,34.2501
13:15:32.612,22.6876,33.0001
13:15:32.624,22.4063,31.7501
13:15:32.632,22.4376,31.6876
13:15:32.643,21.9376,32.0001
13:15:32.654,21.5626,31.8126
13:15:32.662,21.5001,31.6251
13:15:32.672,20.1563,31.1876
13:15:32.682,19.9063,30.7501
13:15:32.694,20.0313,30.0626
13:15:32.702,19.8438,29.6251
13:15:32.712,19.8751,29.3126
13:15:32.724,19.6251,29.1251
13:15:32.732,19.0001,29.0001
13:15:32.742,19.1251,27.6251
13:15:32.763,18.3751,26.1251
13:15:32.771,17.2188,24.8126
13:15:32.784,16.6251,24.3126
13:15:32.786,16.7501,23.7501
13:15:32.796,16.6563,22.3126
13:15:32.803,15.2813,20.3751
13:15:32.812,14.2188,20.0626
13:15:32.823,13.4688,19.5626
13:15:32.833,12.875,17.3126
13:15:32.842,12.4375,15.5626
13:15:32.853,11.5625,14.0001
13:15:32.864,10.4063,14.2501
13:15:32.872,10.2188,11.1875
13:15:32.883,9.4688,10
13:15:32.893,9.3125,9.0625
13:15:32.902,8.3125,8.1875
13:15:32.912,7.875,7.1875
13:15:32.922,7.6563,5
13:15:32.933,6.5625,3.625
13:15:32.943,4.8438,0.8125
13:15:32.953,3.75,-0.25
13:15:32.962,3.5625,-2.5625
13:15:32.973,2.5625,-4
13:15:32.983,1.625,-5.125
13:15:32.992,0.75,-5.9375
13:15:33.002,0.4688,-6.5625
13:15:33.013,0.2813,-8.125
13:15:33.022,0.4063,-8.75
13:15:33.032,-0.6875,-10.1875
13:15:33.042,-1.2188,-11.3125
13:15:33.076,-1.8438,-11.75
13:15:33.078,-2.125,-13.1251
13:15:33.080,-3.2813,-14.4376
13:15:33.083,-4.2188,-16.3751
13:15:33.119,-4.6875,-17.5001
13:15:33.120,-4.75,-17.1251
13:15:33.123,-3.4063,-17.5626
13:15:33.126,-3.4375,-17.3126
13:15:33.168,-2.8438,-16.5001
13:15:33.169,-2.8438,-17.3126
13:15:33.172,-2.75,-16.8126
13:15:33.177,-2.2188,-17.3751
13:15:33.177,-2.875,-18.5001
13:15:33.184,-3.7188,-19.5626
13:15:33.212,-3.3438,-19.0626
13:15:33.214,-3.5,-19.7501
13:15:33.216,-3.75,-19.6251
13:15:33.224,-3.7188,-19.8751
13:15:33.238,-3.3125,-20.1876
13:15:33.244,-2,-18.5626
13:15:33.253,-2.0938,-18.3126
13:15:33.262,-2.75,-17.9376
13:15:33.272,-1.7813,-18.1876
13:15:33.299,-0.125,-16.6251
13:15:33.302,2.6563,-14.6876
13:15:33.307,4.4063,-9.9375
13:15:33.315,7.6563,-6.3125
13:15:33.322,10.7813,-2.0625
13:15:33.333,13.6251,3.875
13:15:33.342,17.2188,8.5625
13:15:33.352,19.1876,12.125
13:15:33.362,19.9376,16.3751
13:15:33.373,21.5626,18.3126
13:15:33.383,22.3126,21.5001
13:15:33.392,24.8751,24.3126
13:15:33.403,25.8438,26.8751
13:15:33.412,27.5939,30.6876
13:15:33.422,29.9689,33.7501
13:15:33.433,30.3439,35.6876
13:15:33.443,31.5626,39.0627
13:15:33.453,32.9376,40.6252
13:15:33.463,32.5001,41.2502
13:15:33.473,32.6876,42.8127
13:15:33.482,33.3126,44.0627
13:15:33.493,33.8439,45.1252
13:15:33.502,33.7814,45.8127
13:15:33.513,33.0939,47.4377
13:15:33.522,33.9064,47.0627
13:15:33.533,33.2814,46.5002
13:15:33.543,33.4064,46.0627
13:15:33.552,32.1564,45.2502
13:15:33.563,30.6251,44.9377
13:15:33.572,30.9689,43.1877
13:15:33.583,29.0001,41.2502
13:15:33.592,28.4689,40.9377
13:15:33.602,27.7814,39.3126
13:15:33.612,26.1563,37.6876
13:15:33.622,25.3438,37.7501
13:15:33.633,25.1251,37.5001
13:15:33.642,25.2188,36.5001
13:15:33.652,24.5313,35.5001
13:15:33.662,23.5313,34.7501
13:15:33.673,23.2188,34.6876
13:15:33.682,22.6251,33.0626
13:15:33.692,21.8438,32.0001
13:15:33.703,21.3438,31.8126
13:15:33.712,20.7501,29.8751
13:15:33.737,19.2813,27.8126
13:15:33.740,17.0938,25.6251
13:15:33.754,15.9376,23.8751
13:15:33.755,15.1563,21.2501
13:15:33.790,13.2188,18.8751
13:15:33.791,12.4688,18.6876
13:15:33.856,13.1876,17.2501
13:15:33.888,12.2188,15.9376
13:15:33.888,11.1563,15.9376
13:15:33.888,11.2188,14.7501
13:15:33.890,10.625,13.6876
13:15:33.905,10.0938,13.0625
13:15:33.906,10.8438,12.25
13:15:33.915,9.4688,11.0625
13:15:33.915,8.75,9.875
13:15:33.915,8.375,10.25
13:15:33.923,8.25,9.125
13:15:33.933,8.375,8.625
13:15:33.942,7.6563,9.375
13:15:33.953,8.0313,8.1875
13:15:33.962,7.9688,7.6875
13:15:33.972,8.2813,8.375
13:15:33.989,8.4063,8.5625
13:15:33.994,8.3125,7.375
13:15:34.003,7.7813,6.5625
13:15:34.012,6.4375,3.9375
13:15:34.022,4.6563,0.1875
13:15:34.033,3.3438,-1.375
13:15:34.042,2.125,-2.0625
13:15:34.056,1.1563,-4.75
13:15:34.063,0.3438,-5.5625
13:15:34.079,-3.125,-11.5
13:15:34.086,-3.5938,-13.9376
13:15:34.094,-5.0313,-16.3751
13:15:34.110,-7.0938,-18.8751
13:15:34.118,-8.375,-21.1876
13:15:34.123,-10.0938,-23.7501
13:15:34.132,-10.8438,-26.1251
13:15:34.143,-12.0313,-28.0626
13:15:34.152,-12.2188,-28.6876
13:15:34.163,-12.6563,-30.3126
13:15:34.173,-14.0313,-32.6876
13:15:34.183,-15.2501,-32.8751
13:15:34.192,-15.9376,-35.0626
13:15:34.202,-16.1563,-36.3126
13:15:34.212,-16.3438,-36.6876
13:15:34.222,-15.8438,-36.4376
13:15:34.233,-15.0313,-35.8126
13:15:34.243,-15.2813,-36.7501
13:15:34.256,-14.2813,-35.6251
13:15:34.263,-13.2813,-34.0626
13:15:34.272,-10.8125,-31.3126
13:15:34.282,-7.75,-27.0001
13:15:34.293,-4.0625,-21.1876
13:15:34.303,-0.8438,-15.6876
13:15:34.314,0.9375,-10.4375
13:15:34.323,3.9375,-7.125
13:15:34.333,5.5938,-2.9375
13:15:34.344,8.0938,1.0625
13:15:34.352,9.9063,4.0625
13:15:34.362,12.6875,7.8125
13:15:34.373,13.0313,11.1875
13:15:34.383,14.8438,13.1876
13:15:34.394,16.4688,15.5626
13:15:34.402,16.6563,17.5001
13:15:34.412,17.9063,20.3751
13:15:34.423,19.0313,21.8126
13:15:34.432,20.5001,24.0626
13:15:34.442,21.6876,26.5626
13:15:34.453,22.5626,28.8126
13:15:34.463,23.2188,30.1251
13:15:34.473,23.0001,31.1251
13:15:34.486,23.1876,30.6251
13:15:34.516,22.4376,29.6876
13:15:34.519,21.9376,30.1876
13:15:34.521,21.0313,28.8751
13:15:34.534,20.0626,27.1876
13:15:34.537,19.7813,26.3751
13:15:34.567,19.0001,27.6251
13:15:34.568,18.9376,26.4376
13:15:34.572,18.3438,25.6876
13:15:34.586,18.2501,26.3126
13:15:34.587,18.8126,25.9376
13:15:34.592,18.2501,26.5001
13:15:34.621,17.7501,26.3126
13:15:34.624,17.4376,25.1251
13:15:34.625,15.4376,22.6876
13:15:34.654,11.875,19.1251
13:15:34.657,8.0625,15.2501
13:15:34.658,6.0313,11.3125
13:15:34.665,3.3438,8.5625
13:15:34.674,0.4688,6.125
13:15:34.683,-0.3125,3.75
13:15:34.692,-2.1875,2.1875
13:15:34.704,-3.25,1.0625
13:15:34.713,-3.5,0.3125
13:15:34.724,-4.25,-1.9375
13:15:34.733,-6.25,-4
13:15:34.745,-8.0313,-6.5
13:15:34.752,-10.8125,-10.6875
13:15:34.764,-15.4688,-16.3126
13:15:34.772,-21.4063,-22.4376
13:15:34.783,-26.9064,-30.2501
13:15:34.792,-33.5314,-38.5626
13:15:34.805,-39.4689,-45.8127
13:15:34.813,-36.5626,-43.3127
13:15:34.823,-38.5001,-46.1252
13:15:34.832,-40.4689,-50.3127
13:15:34.844,-39.4689,-50.3752
13:15:34.854,-39.4377,-51.5002
13:15:34.862,-40.9064,-54.8127
13:15:34.874,-42.3439,-58.8752
13:15:34.884,-44.2502,-62.0002
13:15:34.893,-45.2189,-66.2503
13:15:34.902,-45.7502,-66.9378
13:15:34.914,-45.4689,-69.5628
13:15:34.923,-44.9064,-68.8128
13:15:34.932,-46.2502,-71.2503
13:15:34.944,-46.7189,-72.6878
13:15:34.954,-47.0627,-75.6878
13:15:34.962,-48.8752,-77.8128
13:15:34.974,-48.8439,-80.4378
13:15:34.984,-50.8752,-81.7503
13:15:34.994,-52.2814,-86.1878
13:15:35.004,-56.5627,-92.2504
13:15:35.012,-60.8127,-99.0629
13:15:35.023,-64.2502,-105.6254
13:15:35.033,-67.8753,-111.5004
13:15:35.042,-72.8128,-118.688
13:15:35.054,-77.969,-125.5005
13:15:35.063,-83.0941,-132.6255
13:15:35.073,-88.0316,-139.563
13:15:35.082,-91.0316,-145.6255
13:15:35.094,-92.4379,-148.4381
13:15:35.103,-95.7504,-153.7506
13:15:35.118,-96.4379,-156.0006
13:15:35.123,-96.6879,-157.7506
13:15:35.132,-97.1566,-159.1256
13:15:35.143,-96.8129,-159.3131
13:15:35.153,-97.2816,-159.9381
13:15:35.173,-97.5316,-162.0006
13:15:35.209,-97.3441,-162.4381
13:15:35.213,-97.6566,-162.2506
13:15:35.229,-96.5004,-161.8756
13:15:35.230,-95.1566,-159.5631
13:15:35.256,-94.0941,-155.9381
13:15:35.256,-91.5629,-153.5631
13:15:35.258,-88.9066,-149.6256
13:15:35.259,-86.1566,-144.938
13:15:35.290,-83.6566,-140.313
13:15:35.291,-81.0003,-136.8755
13:15:35.295,-79.2503,-131.6255
13:15:35.300,-76.8753,-129.3755
13:15:35.301,-73.7815,-125.0005
13:15:35.315,-71.7503,-121.063
13:15:35.320,-69.6565,-118.313
13:15:35.351,-67.1878,-113.5629
13:15:35.353,-64.2502,-110.4379
13:15:35.358,-61.969,-106.6879
13:15:35.362,-60.3127,-104.5004
13:15:35.370,-59.0627,-101.5629
13:15:35.379,-58.2502,-100.8754
13:15:35.388,-57.9065,-100.3129
13:15:35.404,-57.5627,-99.9379
13:15:35.411,-57.7502,-100.6254
13:15:35.419,-56.469,-99.7504
13:15:35.434,-56.469,-99.0004
13:15:35.444,-55.5002,-99.1254
13:15:35.449,-54.3127,-97.7504
13:15:35.459,-53.969,-97.1879
13:15:35.469,-52.969,-96.8129
13:15:35.479,-53.5002,-95.5004
13:15:35.495,-52.5939,-95.2504
13:15:35.498,-51.4064,-94.0629
13:15:35.509,-50.8127,-92.6879
13:15:35.519,-49.8439,-92.5629
13:15:35.529,-50.0002,-92.2504
13:15:35.538,-50.0002,-92.8129
13:15:35.549,-48.8439,-91.4379
13:15:35.559,-48.4377,-90.5629
13:15:35.570,-47.5939,-89.9378
13:15:35.579,-47.9064,-88.0628
13:15:35.588,-46.3127,-88.5628
13:15:35.598,-46.0002,-87.6878
13:15:35.608,-46.2814,-87.6253
13:15:35.618,-45.1564,-87.3753
13:15:35.631,-43.7189,-85.7503
13:15:35.638,-43.4377,-84.7503
13:15:35.648,-42.8127,-85.1253
13:15:35.659,-43.1564,-84.1878
13:15:35.669,-42.5002,-84.1253
13:15:35.678,-42.0627,-84.1253
13:15:35.688,-42.5002,-84.3753
13:15:35.699,-42.7814,-84.9378
13:15:35.710,-42.7189,-85.0003
13:15:35.719,-43.1564,-84.7503
13:15:35.729,-42.1252,-85.5628
13:15:35.738,-41.9377,-83.1253
13:15:35.748,-40.5314,-82.9378
13:15:35.759,-38.9064,-82.1878
13:15:35.769,-39.7502,-81.3753
13:15:35.779,-38.5939,-81.8128
13:15:35.788,-37.7189,-80.6253
13:15:35.800,-38.5626,-80.0628
13:15:35.809,-38.4064,-80.6878
13:15:35.820,-37.1564,-79.9378
13:15:35.830,-36.8439,-79.5003
13:15:35.858,-35.8126,-78.0003
13:15:35.859,-34.7814,-76.8128
13:15:35.862,-34.6876,-77.7503
13:15:35.877,-34.1876,-76.9378
13:15:35.879,-34.7501,-75.6253
13:15:35.888,-34.1564,-76.8128
13:15:35.899,-33.5939,-76.0628
13:15:35.909,-33.6251,-75.7503
13:15:35.919,-33.6564,-76.0628
13:15:35.929,-33.0001,-74.5628
13:15:35.938,-33.4689,-75.7503
13:15:35.965,-33.4064,-74.8128
13:15:35.968,-33.1564,-75.8128
13:15:35.971,-32.5001,-75.1878
13:15:36.009,-33.1251,-73.8753
13:15:36.010,-32.6876,-75.6878
13:15:36.012,-32.1564,-74.8128
13:15:36.015,-32.5626,-75.0003
13:15:36.021,-32.0001,-75.0628
13:15:36.028,-32.0939,-74.3128
13:15:36.072,-31.8126,-75.6253
13:15:36.074,-30.7814,-74.3128
13:15:36.076,-31.2501,-73.2503
13:15:36.079,-29.8751,-73.3753
13:15:36.085,-30.0314,-71.8753
13:15:36.119,-29.1251,-71.9378
13:15:36.121,-28.1564,-70.8753
13:15:36.122,-28.7189,-70.5003
13:15:36.125,-27.5001,-70.4378
13:15:36.134,-27.6564,-69.9378
13:15:36.144,-26.5626,-69.3753
13:15:36.153,-26.2813,-67.4378
13:15:36.163,-23.6251,-64.3752
13:15:36.174,-22.0938,-61.2502
13:15:36.183,-19.5626,-57.3127
13:15:36.194,-17.2188,-53.0627
13:15:36.204,-15.0626,-49.3752
13:15:36.213,-12.4063,-42.8127
13:15:36.224,-10.6563,-38.1251
13:15:36.234,-8.2813,-34.7501
13:15:36.250,-6.1875,-30.6876
13:15:36.253,-3.7813,-26.4376
13:15:36.264,-2.4375,-23.1251
13:15:36.274,-0.4063,-19.5001
13:15:36.284,0.4375,-16.6876
13:15:36.294,1.3438,-14.3126
13:15:36.303,1.2188,-13
13:15:36.314,2.1563,-9.8125
13:15:36.324,2.875,-8.5
13:15:36.333,4.3125,-7.1875
13:15:36.343,4.8125,-4.625
13:15:36.354,5.1875,-4.375
13:15:36.364,5.9063,-2.625
13:15:36.374,5.1875,-2.625
13:15:36.383,4.4375,-3.375
13:15:36.393,3.0313,-4.8125
13:15:36.403,2.4375,-4.75
13:15:36.414,2.5313,-6.1875
13:15:36.424,2.7813,-5.25
13:15:36.433,3.4375,-4.875
13:15:36.444,3.9688,-3.1875
13:15:36.454,4.125,-4.1875
13:15:36.464,3.5313,-3.75
13:15:36.474,3.5625,-4.0625
13:15:36.495,2.7813,-4.875
13:15:36.497,1.7813,-4.5625
13:15:36.507,1.2813,-6.75
13:15:36.513,0.2188,-5.9375
13:15:36.528,0.4063,-7.625
13:15:36.538,0.1875,-6.75
13:15:36.544,-0.3125,-7.875
13:15:36.554,-0.7188,-8.8125
13:15:36.564,-0.9688,-8.625
13:15:36.574,-0.8125,-9.25
13:15:36.584,-2.8438,-10.625
13:15:36.593,-2.8438,-10.125
13:15:36.603,-2.875,-11.75
13:15:36.614,-3.5625,-13.3751
13:15:36.624,-3.4688,-12.75
13:15:36.634,-4.25,-14.3126
13:15:36.643,-4.4063,-14.6251
13:15:36.653,-3.875,-14.1876
13:15:36.664,-4,-15.0626
13:15:36.697,-4.875,-14.2501
13:15:36.699,-5.0938,-16.3126
13:15:36.701,-5.8125,-17.3751
13:15:36.704,-7.0625,-18.3126
13:15:36.742,-6.9688,-19.3751
13:15:36.743,-7.5313,-19.1876
13:15:36.818,-6.8125,-19.3751
13:15:36.818,-5.9063,-19.1876
13:15:36.824,-5.9375,-19.0626
13:15:36.824,-6.0313,-18.6251
13:15:36.831,-5.6563,-18.4376
13:15:36.850,-6.25,-18.6251
13:15:36.852,-5.25,-19.0001
13:15:36.858,-6.3125,-19.5001
13:15:36.868,-6.125,-20.2501
13:15:36.878,-7.875,-20.3126
13:15:36.888,-6.9063,-22.0001
13:15:36.899,-7.7188,-21.9376
13:15:36.908,-7.5,-21.9376
13:15:36.918,-7.7813,-22.7501
13:15:36.929,-7.875,-23.1876
13:15:36.939,-7.625,-23.5001
13:15:36.948,-8.6563,-23.6251
13:15:36.959,-9.5938,-25.9376
13:15:36.968,-9.7188,-26.8126
13:15:36.979,-9.8125,-26.9376
13:15:36.989,-12.3125,-32.0001
13:15:37.000,-11.75,-33.1876
13:15:37.009,-12.9688,-33.5626
13:15:37.018,-13.4376,-35.0001
13:15:37.029,-14.5313,-35.0001
13:15:37.039,-15.2188,-37.1251
13:15:37.048,-15.7813,-38.1251
13:15:37.059,-15.8126,-38.5626
13:15:37.068,-13.0938,-36.6251
13:15:37.078,-12.8125,-34.9376
13:15:37.089,-11.8438,-34.9376
13:15:37.098,-12,-34.6876
13:15:37.109,-11.7813,-35.3126
13:15:37.137,-11.7813,-35.0001
13:15:37.139,-11.7813,-35.0001
13:15:37.142,-9.75,-33.3126
13:15:37.149,-8.9375,-30.9376
13:15:37.161,-7.0313,-26.8751
13:15:37.169,-5.0313,-24.4376
13:15:37.178,-3.75,-21.3751
13:15:37.188,-0.7813,-17.0626
13:15:37.198,-0.0313,-12.3125
13:15:37.209,2.0313,-9
13:15:37.218,4.3438,-5.5625
13:15:37.229,5.3125,-1.3125
13:15:37.240,6.2813,0.875
13:15:37.248,6.8125,2.875
13:15:37.259,7.8125,4
13:15:37.269,7.875,6.625
13:15:37.278,8.8438,7.1875
13:15:37.288,8.625,8.3125
13:15:37.299,9.4688,10.875
13:15:37.310,10.2188,11.3125
13:15:37.318,11.125,14.0001
13:15:37.329,11.5,14.0626
13:15:37.338,11.2813,14.6251
13:15:37.348,11.1563,14.1876
13:15:37.374,10.625,14.5626
13:15:37.375,9.6875,13.3751
13:15:37.407,9.125,11.9375
13:15:37.410,8.4063,10.5625
13:15:37.412,8.4375,11.125
13:15:37.415,7.5,9.375
13:15:37.420,7.5,9.375
13:15:37.461,7.125,9.1875
13:15:37.461,8.3125,9.5625
13:15:37.462,8.125,9.75
13:15:37.465,8.4375,9.75
13:15:37.471,8.2813,10.875
13:15:37.511,8.9688,10.3125
13:15:37.514,8.4063,9
13:15:37.515,7.875,8.3125
13:15:37.519,7.0625,8.5
13:15:37.526,7.4375,8.25
13:15:37.531,7.6563,8.75
13:15:37.543,7.8438,7.6875
13:15:37.548,7.7813,7.375
13:15:37.559,8.125,8.1875
13:15:37.569,7.75,7.25
13:15:37.578,7.1875,6.5625
13:15:37.589,7.2813,6.5625
13:15:37.598,6.8438,4.8125
13:15:37.608,6.0625,3.3125
13:15:37.618,5.8125,2.75
13:15:37.628,5.0313,2.6875
13:15:37.639,5.1563,1.25
13:15:37.648,5.1563,0.875
13:15:37.659,4.9688,0.25
13:15:37.669,4.4063,0.1875
13:15:37.678,3.4688,-0.8125
13:15:37.689,3.5,-3.0625
13:15:37.699,2.7188,-3.9375
13:15:37.709,2.1875,-4.4375
13:15:37.718,2.1875,-4.875
13:15:37.729,2.2813,-5.5625
13:15:37.739,1.7188,-6.4375
13:15:37.749,1.25,-5.6875
13:15:37.758,1.3438,-7.5
13:15:37.768,0.4688,-8.1875
13:15:37.779,-0.125,-9.1875
13:15:37.789,-0.0313,-10.125
13:15:37.799,-0.5938,-10.5625
13:15:37.814,-1,-11.9375
13:15:37.831,-1.4688,-11.375
13:15:37.833,-1,-12.5625
13:15:37.841,-2.0625,-14.1876
13:15:37.848,-2.7813,-13.9376
13:15:37.858,-2.9688,-15.0001
13:15:37.869,-3.125,-15.8126
13:15:37.879,-3.25,-16.8126
13:15:37.889,-3.9063,-18.0626
13:15:37.899,-4.2188,-17.6251
13:15:37.908,-3.3125,-18.1251
13:15:37.923,-3.1875,-18.0626
13:15:37.928,-3.75,-18.5626
13:15:37.939,-3.5313,-19.5626
13:15:37.948,-4.8125,-20.1251
13:15:37.959,-4.5625,-20.6876
13:15:37.970,-4.875,-21.7501
13:15:37.978,-5.3438,-21.7501
13:15:37.991,-4.9375,-22.6251
13:15:37.998,-4.6875,-22.6876
13:15:38.009,-5.2188,-22.6251
13:15:38.019,-5.4063,-23.5626
13:15:38.028,-5.4688,-22.8126
13:15:38.039,-5.5625,-24.1876
13:15:38.048,-4.9375,-23.5626
13:15:38.059,-4.875,-23.8751
13:15:38.069,-4.5625,-23.3751
13:15:38.083,-4.2188,-23.5001
13:15:38.100,-4.625,-24.2501
13:15:38.106,-4.6563,-23.8751
13:15:38.109,-4.25,-24.4376
13:15:38.137,-3.75,-22.9376
13:15:38.140,-1.6875,-20.6876
13:15:38.141,-0.5625,-18.0001
13:15:38.149,2.4063,-13.5001
13:15:38.164,3.6563,-9.25
13:15:38.170,6,-5.3125
13:15:38.204,7.6563,-1.875
13:15:38.207,8.9688,1.0625
13:15:38.208,10.0938,4
13:15:38.217,10.5938,6.25
13:15:38.219,11.25,7.875
13:15:38.253,11.875,9.9375
13:15:38.255,12.4375,10.5625
13:15:38.260,12.9063,12.8125
13:15:38.260,13.4688,14.1876
13:15:38.291,13.7813,15.1876
13:15:38.293,14.0938,15.9376
13:15:38.295,14.1563,16.1876
13:15:38.301,12.9063,16.0001
13:15:38.313,13.125,15.6876
13:15:38.319,11.5313,15.3126
13:15:38.329,10.8125,14.7501
13:15:38.339,9.6875,11.75
13:15:38.350,8.9375,10.1875
13:15:38.359,8.3438,9.8125
13:15:38.368,7.2188,9.5625
13:15:38.379,7.25,8.4375
13:15:38.389,6.625,6.0625
13:15:38.419,5.5313,5.4375
13:15:38.421,4.875,5.25
13:15:38.423,4.5625,4.75
13:15:38.431,4.75,3.875
13:15:38.438,4.0938,3.25
13:15:38.449,3.7188,2.75
13:15:38.459,3.25,3.5625
13:15:38.469,3.5,2.375
13:15:38.478,2.2188,1.0625
13:15:38.488,1.375,-0.8125
13:15:38.499,-0.4375,-1.6875
13:15:38.509,-1.2813,-3.625
13:15:38.519,-2.2188,-6
13:15:38.529,-3.1563,-7.5625
13:15:38.538,-4.3125,-9
13:15:38.549,-5.0625,-9
13:15:38.559,-4.7813,-10.125
13:15:38.573,-5.0938,-10.625
13:15:38.583,-5,-11.4375
13:15:38.593,-5.8125,-11.625
13:15:38.604,-5.9375,-13.1251
13:15:38.614,-6.3438,-14.3751
13:15:38.624,-6.9688,-15.0626
13:15:38.634,-8.25,-15.1876
13:15:38.644,-7.5313,-16.9376
13:15:38.654,-8.0938,-17.7501
13:15:38.664,-7.9375,-18.0001
13:15:38.674,-8.75,-19.1876
13:15:38.691,-8.9063,-19.6251
13:15:38.693,-8.7188,-19.6251
13:15:38.704,-9.4375,-20.0626
13:15:38.714,-9.0625,-20.8126
13:15:38.723,-9,-20.8126
13:15:38.734,-9.1563,-22.1251
13:15:38.744,-8.5625,-21.0626
13:15:38.753,-8.2813,-21.8126
13:15:38.763,-8.8125,-22.3751
13:15:38.774,-9.0938,-23.3126
13:15:38.783,-9.1563,-23.5001
13:15:38.793,-8.5313,-23.0001
13:15:38.805,-8.6563,-22.7501
13:15:38.814,-7.8438,-22.5001
13:15:38.824,-8.0313,-22.0626
13:15:38.834,-8,-23.0001
13:15:38.844,-8.8438,-24.3751
13:15:38.853,-9.4375,-24.1251
13:15:38.868,-9.3125,-25.5626
13:15:38.909,-9.7188,-25.6251
13:15:38.910,-9.3438,-26.6251
13:15:38.914,-10.0625,-26.6876
13:15:38.915,-9.6563,-28.0001
13:15:38.918,-10.25,-27.5001
13:15:38.951,-10.4375,-29.0626
13:15:38.951,-10.8438,-29.6251
13:15:38.951,-11.3125,-30.8751
13:15:38.957,-11.3125,-31.5626
13:15:38.965,-12.0938,-32.5626
13:15:38.992,-12.25,-33.0626
13:15:38.994,-12.8438,-33.9376
13:15:38.997,-13.125,-34.5001
13:15:39.006,-14.0313,-35.2501
13:15:39.035,-14.6563,-35.8126
13:15:39.037,-14.5313,-37.1251
13:15:39.040,-15.4376,-37.1251
13:15:39.046,-15.1876,-37.9376
13:15:39.054,-15.8751,-38.8751
13:15:39.068,-15.5313,-37.8126
13:15:39.081,-15.0626,-37.5001
13:15:39.085,-13.8438,-36.1251
13:15:39.093,-12.1563,-32.8751
13:15:39.104,-11.375,-29.8751
13:15:39.123,-9.3125,-25.9376
13:15:39.126,-7.2188,-22.6876
13:15:39.137,-5.5,-18.1876
13:15:39.143,-4.0313,-16.0626
13:15:39.158,-2.8125,-12.375
13:15:39.167,-1.7813,-11.1875
13:15:39.173,-1.0313,-7.9375
13:15:39.183,-0.0625,-6.4375
13:15:39.193,0.4063,-5.25
13:15:39.204,0.3125,-3.5625
13:15:39.213,0.6563,-3.3125
13:15:39.225,1.0313,-1.5625
13:15:39.233,1.1563,-1.9375
13:15:39.243,1.375,-0.625
13:15:39.253,1.7813,0.5625
13:15:39.264,2.4063,1.875
13:15:39.274,2.6875,2.5625
13:15:39.284,2.875,1.875
13:15:39.293,2.3438,2.375
13:15:39.303,1.875,0.6875
13:15:39.313,1.0313,0.3125
13:15:39.325,0.4063,-0.5625
13:15:39.333,0.4063,-1.75
13:15:39.344,0.75,-1.5
13:15:39.354,0.9375,-1.75
13:15:39.363,1.125,-1.3125
13:15:39.375,1.5,-1.3125
13:15:39.391,1.3438,-1.0625
13:15:39.398,2.2188,-0.8125
13:15:39.412,1.9688,-0.8125
13:15:39.415,1.4688,0.25
13:15:39.430,1.9063,-0.8125
13:15:39.435,1.7188,-1.5625
13:15:39.443,2.125,-1.0625
13:15:39.455,2,-1.5625
13:15:39.464,1.5313,-3
13:15:39.475,0.7188,-3.875
13:15:39.483,0.3125,-4
13:15:39.494,0.4063,-4.625
13:15:39.504,-0.625,-5.125
13:15:39.515,-0.3125,-5.75
13:15:39.524,-1.0313,-7.25
13:15:39.534,-2.0313,-7.625
13:15:39.544,-1.375,-8.8125
13:15:39.553,-1.75,-9.875
13:15:39.564,-1.7813,-9.1875
13:15:39.573,-2.0313,-10.5
13:15:39.584,-2.25,-11.5
13:15:39.593,-3.2188,-12.25
13:15:39.617,-2.875,-12.0625
13:15:39.617,-3.0625,-12.8125
13:15:39.644,-3.7813,-13.1876
13:15:39.647,-4.5,-14.7501
13:15:39.648,-4.5625,-16.3751
13:15:39.653,-6.125,-16.8126
13:15:39.688,-6.875,-18.3126
13:15:39.690,-7.2188,-18.6251
13:15:39.692,-6.875,-19.6876
13:15:39.719,-6.9375,-19.5001
13:15:39.722,-6.9688,-20.8126
13:15:39.722,-7.3438,-20.5626
13:15:39.727,-7.1563,-21.8126
13:15:39.735,-8.625,-22.1251
13:15:39.763,-8.6875,-23.5626
13:15:39.767,-9.375,-24.0001
13:15:39.771,-9.0938,-24.7501
13:15:39.775,-9.6563,-24.3751
13:15:39.784,-9,-24.8751
13:15:39.794,-8.875,-24.6251
13:15:39.805,-8.25,-25.6251
13:15:39.819,-8.875,-25.9376
13:15:39.823,-9.375,-27.0626
13:15:39.834,-10.6875,-27.6876
13:15:39.844,-11.1875,-29.2501
13:15:39.854,-11.4688,-30.0626
13:15:39.863,-11.5,-30.9376
13:15:39.873,-11.5938,-30.5626
13:15:39.884,-11.625,-31.5626
13:15:39.893,-12.1563,-31.6876
13:15:39.904,-11.5313,-32.6251
13:15:39.914,-11.7813,-32.0626
13:15:39.923,-11.9063,-33.6251
13:15:39.934,-12.6563,-34.2501
13:15:39.944,-12.6563,-34.6251
13:15:39.954,-12.7813,-35.6876
13:15:39.964,-13.0625,-35.9376
13:15:39.974,-12.9688,-35.7501
13:15:39.983,-13.2813,-36.9376
13:15:39.997,-13.2813,-36.6251
13:15:40.004,-13.125,-37.4376
13:15:40.014,-13.2501,-36.8751
13:15:40.023,-13.1875,-37.5001
13:15:40.034,-12.4063,-36.6251
13:15:40.044,-11.3125,-35.5626
13:15:40.054,-10.5938,-33.6251
13:15:40.064,-9.0625,-30.1251
13:15:40.073,-7.1875,-27.6876
13:15:40.085,-5.5938,-24.8126
13:15:40.093,-3.7813,-20.4376
13:15:40.104,-2,-16.8126
13:15:40.119,1.125,-12.8125
13:15:40.131,2.4688,-8.6875
13:15:40.139,3.8125,-6.0625
13:15:40.148,5.625,-2.375
13:15:40.159,6.3438,-0.875
13:15:40.170,7.7188,2.1875
13:15:40.180,7.9688,3.25
13:15:40.191,8.5625,5.3125
13:15:40.201,8.375,5.9375
13:15:40.209,8.9063,7.8125
13:15:40.219,9.0938,7.4375
13:15:40.230,9,9.1875
13:15:40.238,8.9688,8.8125
13:15:40.249,8.7813,9.0625
13:15:40.259,7.9375,8.75
13:15:40.269,7.5625,7.6875
13:15:40.278,6.875,7.375
13:15:40.290,5.3438,4.9375
13:15:40.311,4.7188,5.25
13:15:40.313,4.3125,4.0625
13:15:40.341,3.5313,2.125
13:15:40.344,3.75,3.0625
13:15:40.346,3.25,2
13:15:40.350,2.6875,2
13:15:40.380,3.0625,1.4375
13:15:40.383,2.5938,0.3125
13:15:40.383,2.625,0.0625
13:15:40.390,2.8125,1.1875
13:15:40.415,2.1875,0.3125
13:15:40.417,2.2813,0.375
13:15:40.420,2.9063,-0.125
13:15:40.446,2.4063,0
13:15:40.480,1.3438,0.25
13:15:40.481,1.5313,-1.5625
13:15:40.500,1.5938,-1.8125
13:15:40.500,2.125,-1.6875
13:15:40.500,1.75,-1.125
13:15:40.501,2.1563,-1.9375
13:15:40.503,1.5938,-2.9375
13:15:40.510,1.625,-2.6875
13:15:40.520,1.6563,-4.25
13:15:40.529,0.6563,-4.3125
13:15:40.540,-0.1875,-5.1875
13:15:40.550,0.4688,-5.625
13:15:40.559,0.0625,-6.75
13:15:40.569,0.4688,-6
13:15:40.578,0.375,-6.875
13:15:40.590,-0.4688,-7.5625
13:15:40.599,-0.1875,-7.3125
13:15:40.610,0.125,-7.8125
13:15:40.620,0,-8.1875
13:15:40.630,-0.4063,-9.25
13:15:40.638,-1.0938,-10.125
13:15:40.650,-0.9688,-10.0625
13:15:40.659,-0.875,-10.625
13:15:40.670,-1.375,-10.5625
13:15:40.680,-1.4375,-10.9375
13:15:40.700,-2.1875,-12.8125
13:15:40.705,-2.3125,-12
13:15:40.721,-2.1563,-13.125
13:15:40.722,-2.75,-14.1876
13:15:40.733,-3.1875,-14.5001
13:15:40.740,-3.375,-15.9376
13:15:40.750,-3.9375,-16.3126
13:15:40.759,-3.875,-17.0626
13:15:40.770,-4.125,-17.0001
13:15:40.780,-4.0938,-18.1251
13:15:40.790,-4.8438,-17.5626
13:15:40.800,-5.0625,-19.2501
13:15:40.810,-5.0313,-19.4376
13:15:40.819,-5.5938,-20.4376
13:15:40.830,-5.5625,-20.4376
13:15:40.838,-6.25,-21.2501
13:15:40.850,-6.0313,-21.5001
13:15:40.859,-6.4375,-22.3751
13:15:40.869,-5.75,-22.7501
13:15:40.880,-6.625,-23.6251
13:15:40.888,-6.7188,-22.8126
13:15:40.900,-6.25,-22.7501
13:15:40.910,-5.9063,-23.3751
13:15:40.920,-6.1563,-23.2501
13:15:40.930,-6.0313,-23.5626
13:15:40.944,-6.2188,-23.9376
13:15:40.949,-6.0625,-24.2501
13:15:40.976,-6.2813,-23.8751
13:15:40.978,-5.8438,-24.6251
13:15:40.981,-5.375,-24.3126
13:15:40.990,-5,-23.5001
13:15:41.000,-4.4375,-23.3751
13:15:41.009,-3.2813,-20.5626
13:15:41.041,-2.125,-20.2501
13:15:41.043,-0.7188,-16.6251
13:15:41.046,1.2188,-13.8126
13:15:41.049,2.9688,-10.8125
13:15:41.089,4.2188,-6.5625
13:15:41.091,5.9375,-3.5625
13:15:41.095,7.4063,-0.1875
13:15:41.099,8.5938,2.8125
13:15:41.100,10.6875,5.6875
13:15:41.110,12.6875,9.4375
13:15:41.145,14.0313,11.3125
13:15:41.147,15.1876,15.0001
13:15:41.150,16.0001,15.6251
13:15:41.152,16.6251,18.1251
13:15:41.159,17.0626,19.6251
13:15:41.196,18.1876,20.5626
13:15:41.197,17.9376,22.5001
13:15:41.199,18.3751,22.6251
13:15:41.201,18.3126,23.7501
13:15:41.210,18.4063,22.8126
13:15:41.219,18.0626,23.6251
13:15:41.230,18.3751,23.0626
13:15:41.239,17.6876,21.9376
13:15:41.249,17.4376,20.6251
13:15:41.260,15.5938,21.0626
13:15:41.272,15.2501,18.6251
13:15:41.279,14.4688,17.1876
13:15:41.290,14.3126,17.8126
13:15:41.299,14.3751,17.7501
13:15:41.310,15.1876,18.6251
13:15:41.320,16.3751,18.4376
13:15:41.329,16.0001,19.2501
13:15:41.340,16.8438,19.6876
13:15:41.350,16.9376,18.9376
13:15:41.360,16.2501,18.3126
13:15:41.370,15.4376,18.4376
13:15:41.379,15.3438,17.1876
13:15:41.389,14.6876,16.3126
13:15:41.400,13.9376,15.5001
13:15:41.410,13.8126,14.8751
13:15:41.420,13.6876,15.0001
13:15:41.429,13.3126,14.6251
13:15:41.440,13.1875,13.5626
13:15:41.450,12.6563,12.9375
13:15:41.460,11.375,11.6875
13:15:41.470,10.4688,10.9375
13:15:41.479,10.8125,9.0625
13:15:41.490,9.3125,7.8125
13:15:41.499,8.5,7
13:15:41.508,8.25,5.9375
13:15:41.520,7.5,3.9375
13:15:41.531,6.75,4.1875
13:15:41.539,6.4688,2.5
13:15:41.549,5.2188,1.25
13:15:41.560,4.25,-0.5625
13:15:41.570,2.875,-0.9375
13:15:41.580,2.6563,-3.0625
13:15:41.590,1.7188,-4.375
13:15:41.599,1.0313,-3.875
13:15:41.610,1.5625,-5.625
13:15:41.619,0.5,-6.4375
13:15:41.630,0.5,-5.875
13:15:41.640,0.4063,-7.375
13:15:41.649,-0.7813,-7.8125
13:15:41.660,-1.1563,-9
13:15:41.669,-1.4688,-9.875
13:15:41.681,-2.6563,-11
13:15:41.697,-2.9375,-11.125
13:15:41.701,-2.9063,-12.5625
13:15:41.710,-3.625,-13.3126
13:15:41.720,-4.2813,-14.6251
13:15:41.730,-4.6875,-14.4376
13:15:41.740,-5.125,-16.1876
13:15:41.750,-5.25,-15.8751
13:15:41.765,-5.5,-17.1876
13:15:41.780,-6.5938,-17.5626
13:15:41.782,-6.625,-19.0001
13:15:41.793,-7.875,-19.6251
13:15:41.800,-8.0938,-20.0626
13:15:41.810,-7.9063,-21.4376
13:15:41.820,-8.4688,-20.9376
13:15:41.834,-9.0938,-23.0626
13:15:41.868,-9.9063,-23.1251
13:15:41.871,-10.7188,-24.1876
13:15:41.873,-11.375,-25.4376
13:15:41.875,-11.125,-26.2501
13:15:41.881,-12.125,-26.9376
13:15:41.908,-11.9688,-26.6876
13:15:41.911,-12.2813,-28.2501
13:15:41.913,-12.125,-27.2501
13:15:41.955,-12.8125,-28.8751
13:15:41.955,-12.125,-28.5626
13:15:41.958,-11.3125,-27.1876
13:15:41.966,-10.4688,-24.6251
13:15:41.967,-8.4375,-22.0001
13:15:41.980,-6.5625,-19.8126
13:15:41.981,-4.9063,-15.0626
13:15:42.006,-2.7813,-12.75
13:15:42.009,-1.375,-8.9375
13:15:42.024,0.5625,-4.9375
13:15:42.026,2.1563,-1.75
13:15:42.042,3.375,1.3125
13:15:42.043,4.625,3.75
13:15:42.050,5.1563,5.9375
13:15:42.060,5.9063,8.1875
13:15:42.075,7.125,9.75
13:15:42.079,7.6875,10.3125
13:15:42.092,8.0625,12.3125
13:15:42.100,7.9063,12.875
13:15:42.110,8.25,13.6876
13:15:42.121,8.3125,14.5001
13:15:42.130,8.8125,14.5001
13:15:42.140,8.0938,14.0626
13:15:42.150,7.9688,15.3126
13:15:42.160,7.5313,13.4376
13:15:42.170,6.1875,12
13:15:42.180,5.4375,11.125
13:15:42.190,4.125,10.5
13:15:42.200,3.5938,9.5
13:15:42.210,2.875,7.9375
13:15:42.220,2.1563,6.9375
13:15:42.230,2.2188,6.1875
13:15:42.256,2.2188,8
13:15:42.259,1.9063,6.875
13:15:42.261,2.4063,6.6875
13:15:42.271,2.625,7.75
13:15:42.280,2.625,8.375
13:15:42.290,3.7813,8.4375
13:15:42.300,3.6875,8.5625
13:15:42.310,3.625,8.375
13:15:42.320,3.2188,9.625
13:15:42.330,3.625,8.625
13:15:42.340,3.4688,8.25
13:15:42.350,3.5938,7.9375
13:15:42.361,4.0313,9.375
13:15:42.369,3.8125,8.4375
13:15:42.380,4.2813,7.5625
13:15:42.390,3.75,7.4375
13:15:42.400,3.375,7.5625
13:15:42.410,3.9063,6.9375
13:15:42.420,3.4688,5.6875
13:15:42.430,3.2813,5.5625
13:15:42.439,1.875,5.25
13:15:42.450,2.2813,4.375
13:15:42.460,1.9375,3.125
13:15:42.470,0.875,1.875
13:15:42.480,0.875,1.5
13:15:42.490,0.7188,0.4375
13:15:42.500,-0.25,-0.125
13:15:42.510,0,-0.6875
13:15:42.519,0.5,-0.9375
13:15:42.546,0.1875,-1.5625
13:15:42.549,0,-1.8125
13:15:42.551,-0.0313,-1.5
13:15:42.584,-0.4688,-1.6875
13:15:42.586,-0.4375,-2.5
13:15:42.588,-0.3125,-3.3125
13:15:42.592,-0.625,-3.25
13:15:42.620,-1,-2.5
13:15:42.623,-1.3438,-4.0625
13:15:42.625,-1.9688,-5.875
13:15:42.659,-2.0938,-5.4375
13:15:42.660,-2.7813,-5.875
13:15:42.662,-2.375,-7
13:15:42.669,-2.5938,-8.375
13:15:42.671,-3.3438,-8.4375
13:15:42.709,-2.7188,-8.625
13:15:42.711,-3.25,-8.625
13:15:42.712,-4.2188,-9.5
13:15:42.715,-4.4688,-10.8125
13:15:42.723,-4.5,-10.9375
13:15:42.732,-4.4063,-11.8125
13:15:42.740,-5.2188,-12.625
13:15:42.750,-5.5313,-12.6875
13:15:42.760,-6.5313,-15.3126
13:15:42.770,-6.875,-15.5001
13:15:42.780,-7.1875,-16.8126
13:15:42.790,-7.1875,-16.7501
13:15:42.801,-7.6563,-16.9376
13:15:42.810,-7.8125,-16.8751
13:15:42.826,-7.8438,-18.6876
13:15:42.830,-8.1563,-19.0626
13:15:42.841,-8.6563,-19.0001
13:15:42.850,-8.75,-19.1876
13:15:42.861,-9.4063,-20.6251
13:15:42.870,-9.4063,-21.3126
13:15:42.881,-9.6875,-21.3126
13:15:42.889,-9,-20.4376
13:15:42.899,-8.6875,-19.9376
13:15:42.910,-7.8125,-17.8126
13:15:42.920,-6.4375,-15.8126
13:15:42.930,-4.5625,-11.875
13:15:42.939,-3,-8.9375
13:15:42.950,-0.6875,-4.625
13:15:42.961,1.25,-1.125
13:15:42.970,2.4063,2.75
13:15:42.980,4.4063,6.1875
13:15:42.989,5.6563,7.8125
13:15:43.000,5.5938,11.4375
13:15:43.010,7,12.75
13:15:43.020,7.1875,14.6876
13:15:43.029,8.25,15.3126
13:15:43.039,8.375,17.7501
13:15:43.050,8.1875,17.5626
13:15:43.066,8.5313,18.3126
13:15:43.069,9,18.8751
13:15:43.087,8.7813,19.9376
13:15:43.093,8.9688,19.4376
13:15:43.101,8.5625,20.3126
13:15:43.112,8.5,19.8751
13:15:43.120,8.2188,19.8126
13:15:43.130,7.9688,19.0001
13:15:43.140,7.3125,17.6251
13:15:43.150,6.125,15.8126
13:15:43.160,5.2188,14.6876
13:15:43.170,4.4063,14.8751
13:15:43.180,3.875,13.7501
13:15:43.190,3.0625,12.125
13:15:43.205,3.125,13
13:15:43.210,3.9063,13.3751
13:15:43.220,4.4063,13.125
13:15:43.258,5,14.0001
13:15:43.261,3.9063,13
13:15:43.262,4.5938,13.2501
13:15:43.266,3.3438,13.2501
13:15:43.271,3,12.0625
13:15:43.310,3.1875,11.1875
13:15:43.311,2.3125,10.25
13:15:43.350,1.9063,10.625
13:15:43.351,1.5938,11.25
13:15:43.380,1.5938,9.375
13:15:43.380,0.9063,7.6875
13:15:43.382,-0.0313,6.5
13:15:43.382,-0.3438,6.3125
13:15:43.412,-0.2813,5.5
13:15:43.414,-1.0938,4.3125
13:15:43.416,-1.7813,3.4375
13:15:43.418,-1.625,4.3125
13:15:43.424,-0.9063,3.1875
13:15:43.431,-1.625,2.25
13:15:43.440,-2.9375,1.375
13:15:43.449,-3.4375,0.875
13:15:43.460,-4.0625,-0.875
13:15:43.470,-4.75,-1.3125
13:15:43.480,-5.25,-2.5625
13:15:43.490,-5.9375,-3.1875
13:15:43.500,-6.125,-4.3125
13:15:43.510,-6.4375,-5.875
13:15:43.537,-6.4063,-7.0625
13:15:43.539,-6.3438,-6.1875
13:15:43.541,-6,-6.8125
13:15:43.550,-7.0938,-7.375
13:15:43.561,-7.0938,-7.9375
13:15:43.570,-7.5938,-9.625
13:15:43.580,-7.6875,-10.5
13:15:43.590,-8.5,-11
13:15:43.601,-9.4063,-13
13:15:43.610,-10.1875,-13.4376
13:15:43.620,-10.25,-14.0001
13:15:43.630,-10.9375,-14.8751
13:15:43.640,-10.75,-16.0626
13:15:43.650,-11.6875,-16.1251
13:15:43.660,-11.1875,-17.1876
13:15:43.670,-11.7188,-17.5001
13:15:43.680,-11.375,-18.0001
13:15:43.689,-12.3125,-18.6251
13:15:43.699,-12.4688,-19.0001
13:15:43.710,-12.8125,-19.6876
13:15:43.720,-13.3438,-20.6251
13:15:43.730,-13.0313,-20.5001
13:15:43.739,-12.75,-19.8126
13:15:43.750,-11.2813,-17.3126
13:15:43.760,-8.9063,-11.6875
13:15:43.770,-6.5,-6.1875
13:15:43.780,-2.7188,1.125
13:15:43.790,-0.625,6.375
13:15:43.800,4.6563,14.4376
13:15:43.810,11.9063,25.1876
13:15:43.820,18.4376,33.6876
13:15:43.830,25.1876,40.5002
13:15:43.840,31.2189,50.1252
13:15:43.850,35.9064,55.5627
13:15:43.859,40.7189,63.1252
13:15:43.870,45.1877,69.2503
13:15:43.879,49.7189,75.8753
13:15:43.890,53.6252,82.7503
13:15:43.900,57.9377,89.2503
13:15:43.910,62.6252,95.9379
13:15:43.920,64.0315,100.2504
13:15:43.930,64.3752,101.0629
13:15:43.940,64.9065,102.5629
13:15:43.955,66.0003,104.4379
13:15:43.960,66.1565,106.6254
13:15:43.971,66.8128,107.3754
13:15:43.981,68.0628,109.1254
13:15:43.990,69.3753,111.6879
13:15:44.000,70.9065,113.9379
13:15:44.010,70.969,114.9379
13:15:44.041,71.8128,116.6254
13:15:44.043,73.4378,119.6255
13:15:44.046,73.969,120.938
13:15:44.051,74.8753,121.7505
13:15:44.088,74.4378,122.5005
13:15:44.091,74.3128,120.6255
13:15:44.091,73.0628,119.063
13:15:44.094,72.344,118.3755
13:15:44.136,72.5315,118.0005
13:15:44.138,72.6253,118.813
13:15:44.141,72.6565,117.938
13:15:44.146,72.4378,117.688
13:15:44.146,72.6253,118.1255
13:15:44.176,72.0003,116.6879
13:15:44.181,72.3128,117.6254
13:15:44.182,71.969,116.0629
13:15:44.186,71.9065,116.5004
13:15:44.202,72.469,117.1879
13:15:44.205,73.1565,117.3129
13:15:44.215,74.5003,117.938
13:15:44.225,75.1565,118.3755
13:15:44.235,75.5628,118.7505
13:15:44.245,75.594,119.063
13:15:44.255,74.5003,118.1255
13:15:44.266,72.5628,114.7504
13:15:44.275,70.5315,113.0004
13:15:44.284,69.844,110.7504
13:15:44.294,69.719,109.9379
13:15:44.306,69.2503,109.7504
13:15:44.315,68.0628,107.0629
13:15:44.328,67.0628,104.8754
13:15:44.338,66.0315,103.0629
13:15:44.345,64.969,102.3754
13:15:44.356,63.969,100.1879
13:15:44.373,62.844,98.5004
13:15:44.386,61.6252,95.3754
13:15:44.388,60.8127,94.8129
13:15:44.395,59.5627,93.5629
13:15:44.405,59.1565,91.3129
13:15:44.415,57.594,89.2503
13:15:44.425,55.8752,87.2503
13:15:44.435,55.0627,84.7503
13:15:44.446,53.3752,83.1878
13:15:44.455,52.2502,80.9378
13:15:44.467,51.4689,79.8753
13:15:44.475,50.1877,77.5003
13:15:44.486,49.6564,76.7503
13:15:44.495,48.2502,74.9378
13:15:44.505,47.6564,73.5628
13:15:44.515,47.5314,72.8128
13:15:44.525,46.3127,71.6253
13:15:44.536,44.4377,70.3128
13:15:44.546,43.3752,68.2503
13:15:44.556,42.0939,66.6253
13:15:44.565,40.5627,62.5627
13:15:44.575,38.3439,60.8127
13:15:44.586,37.0626,57.8752
13:15:44.604,34.3751,55.5627
13:15:44.611,32.9689,52.0002
13:15:44.626,29.3439,49.9377
13:15:44.629,27.1564,45.1252
13:15:44.635,20.6251,38.2501
13:15:44.648,14.4688,30.4376
13:15:44.655,9.5,23.6876
13:15:44.665,6.2813,19.5626
13:15:44.709,2.7188,15.1876
13:15:44.709,1.2188,13.5001
13:15:44.711,1.5313,12.125
13:15:44.713,4.2813,15.0001
13:15:44.717,6.8438,17.0001
13:15:44.745,9.1875,19.8126
13:15:44.749,10.8438,20.5626
13:15:44.750,12.75,23.8126
13:15:44.758,12.875,24.1251
13:15:44.766,14.0626,25.5001
13:15:44.806,15.2188,27.1251
13:15:44.808,15.7188,29.2501
13:15:44.811,17.0938,32.2501
13:15:44.825,18.8438,34.5626
13:15:44.828,20.7813,38.5001
13:15:44.855,23.1876,41.6252
13:15:44.855,24.2188,44.5002
13:15:44.857,25.5313,48.1877
13:15:44.868,26.6564,49.6252
13:15:44.869,28.0001,51.8752
13:15:44.876,28.5939,53.7502
13:15:44.885,29.3126,55.5002
13:15:44.896,29.3126,56.8752
13:15:44.905,29.5939,58.3127
13:15:44.915,30.4376,58.5627
13:15:44.926,30.8126,60.1252
13:15:44.937,31.4376,60.6877
13:15:44.944,31.7501,61.8752
13:15:44.955,31.6251,61.5002
13:15:44.966,30.5314,61.3752
13:15:44.975,29.8439,59.8127
13:15:44.986,28.3751,58.8127
13:15:44.995,27.6564,58.8127
13:15:45.004,27.6876,57.0627
13:15:45.015,28.0001,57.1252
13:15:45.025,27.6564,57.3752
13:15:45.034,28.3439,57.4377
13:15:45.044,28.2189,56.9377
13:15:45.055,27.9376,56.9377
13:15:45.065,27.8126,56.3127
13:15:45.076,27.1564,55.8127
13:15:45.085,27.6251,55.7502
13:15:45.094,27.5939,55.8127
13:15:45.105,28.4376,55.0627
13:15:45.115,27.7189,55.6877
13:15:45.125,28.1251,54.4377
13:15:45.135,28.2814,55.0627
13:15:45.146,28.2501,53.5002
13:15:45.155,26.7501,52.6877
13:15:45.167,25.8126,50.4377
13:15:45.175,24.3126,48.0627
13:15:45.185,22.5313,45.2502
13:15:45.195,20.8751,42.6252
13:15:45.205,19.2188,41.0627
13:15:45.216,18.0313,37.1251
13:15:45.225,16.7813,36.7501
13:15:45.236,15.2813,33.8751
13:15:45.250,13.8438,31.5001
13:15:45.256,11.9063,28.1251
13:15:45.266,11.3438,26.9376
13:15:45.275,10.8438,25.9376
13:15:45.285,10.75,25.1251
13:15:45.295,10.8438,24.6251
13:15:45.305,10.0313,23.2501
13:15:45.314,10,22.9376
13:15:45.325,8.6875,21.5001
13:15:45.335,8.25,20.3126
13:15:45.346,8.125,20.3751
13:15:45.355,6.875,18.8126
13:15:45.367,6.5625,17.9376
13:15:45.375,6.4063,16.4376
13:15:45.386,5.6563,15.9376
13:15:45.395,5.3125,14.3751
13:15:45.420,4.875,14.5626
13:15:45.422,4.4375,12.0625
13:15:45.454,2.8125,11.4375
13:15:45.456,1.3438,8.4375
13:15:45.459,0.1563,7.5
13:15:45.461,-1.25,4.75
13:15:45.469,-1,5.3125
13:15:45.498,-0.875,4.3125
13:15:45.500,-0.7188,4.1875
13:15:45.503,-0.8125,3.75
13:15:45.507,-0.9063,3.875
13:15:45.515,-0.1875,3.6875
13:15:45.547,-0.9688,3.8125
13:15:45.549,-2.0313,2.125
13:15:45.553,-3.6875,-0.0625
13:15:45.557,-4.875,-2.25
13:15:45.580,-6.6563,-5
13:15:45.583,-8.875,-7.1875
13:15:45.585,-10.75,-8.875
13:15:45.595,-13.3751,-13.5626
13:15:45.605,-15.0313,-15.6876
13:15:45.616,-15.2188,-16.3751
13:15:45.625,-14.3126,-15.3126
13:15:45.637,-13.1876,-15.6251
13:15:45.644,-11.2188,-12.5625
13:15:45.665,-8.7188,-10.375
13:15:45.667,-6.6875,-6.75
13:15:45.682,-4.5938,-3.8125
13:15:45.686,-3,-0.75
13:15:45.697,-1.5313,1.875
13:15:45.706,0.3125,5.625
13:15:45.714,1.5,7.6875
13:15:45.725,3.8125,10.5
13:15:45.735,4.8438,15.1876
13:15:45.746,6.5938,17.8126
13:15:45.755,8.0625,20.2501
13:15:45.766,9.7188,24.3126
13:15:45.776,11.3438,26.1876
13:15:45.786,12.2813,28.8126
13:15:45.796,12.625,30.9376
13:15:45.806,14.0001,32.6251
13:15:45.815,15.2813,34.7501
13:15:45.825,15.5001,36.1876
13:15:45.836,15.4063,37.6251
13:15:45.844,15.8751,37.6251
13:15:45.855,15.7501,37.7501
13:15:45.867,15.3438,38.6876
13:15:45.876,15.8751,38.0626
13:15:45.886,15.7813,39.3127
13:15:45.906,16.1251,38.2501
13:15:45.911,15.5626,38.5001
13:15:45.927,15.9063,38.0626
13:15:45.928,14.6563,36.5626
13:15:45.936,13.7501,35.5626
13:15:45.945,13.6251,35.1251
13:15:45.955,12.7188,32.6876
13:15:45.966,12.0938,33.3751
13:15:45.976,12.3125,31.5001
13:15:45.986,11.2813,31.2501
13:15:46.002,11.125,30.9376
13:15:46.004,11.5313,30.5626
13:15:46.018,10.0625,29.2501
13:15:46.025,8.9375,27.7501
13:15:46.035,8.1875,26.6251
13:15:46.046,7.3438,23.6251
13:15:46.054,5.4688,21.6251
13:15:46.066,4.125,19.6876
13:15:46.096,3.5,18.8751
13:15:46.098,2.875,16.9376
13:15:46.101,1.7813,14.7501
13:15:46.109,0.6563,12.75
13:15:46.117,0.2813,12.875
13:15:46.126,-0.1875,11
13:15:46.136,-1.3438,9.1875
13:15:46.146,-2.3125,8.6875
13:15:46.156,-2.5,7.3125
13:15:46.166,-2.9375,4.8125
13:15:46.176,-4.5938,3.8125
13:15:46.186,-4.5938,2.6875
13:15:46.218,-5.9063,1.8125
13:15:46.221,-6.5313,0.75
13:15:46.221,-6.8125,-1.5
13:15:46.226,-7.5625,-2.9375
13:15:46.258,-7.8438,-3.25
13:15:46.260,-7.4688,-2.4375
13:15:46.263,-6.8125,-2.75
13:15:46.290,-5.2188,-2.25
13:15:46.291,-5.3438,-2.25
13:15:46.292,-4.2188,-0.375
13:15:46.299,-3.0938,0.5625
13:15:46.314,-2.5313,0.4375
13:15:46.317,-2.4375,1.3125
13:15:46.325,-3.375,-0.875
13:15:46.336,-2.4375,-0.3125
13:15:46.368,-3.2813,-1.0625
13:15:46.369,-2.125,-0.5
13:15:46.372,-2.375,-1.75
13:15:46.377,-2.5,-1.0625
13:15:46.387,-2.0313,-1.625
13:15:46.396,-2.1563,-1.625
13:15:46.404,-2.4063,-2.75
13:15:46.417,-2.125,-2.1875
13:15:46.426,-2.2813,-1.25
13:15:46.436,-2,-2.6875
13:15:46.445,-2.0313,-2.125
13:15:46.456,-2.0313,-2.75
13:15:46.465,-1.7188,-2.125
13:15:46.476,-1.4063,-2
13:15:46.486,-2.2813,-3.9375
13:15:46.496,-4.125,-5.625
13:15:46.506,-10.5938,-12.1875
13:15:46.517,-15.0938,-18.3126
13:15:46.526,-18.6876,-23.1876
13:15:46.537,-19.2188,-24.5626
13:15:46.546,-16.4063,-21.5001
13:15:46.556,-12.3125,-17.1251
13:15:46.564,-9.5938,-15.1251
13:15:46.576,-7,-12.5625
13:15:46.586,-4.625,-9.3125
13:15:46.596,-4.4375,-8.625
13:15:46.606,-4.4688,-8.5
13:15:46.618,-3.1563,-6.625
13:15:46.626,-2.0313,-3.625
13:15:46.636,-0.0313,-0.1875
13:15:46.645,2.4375,3.6875
13:15:46.656,5.0313,8.1875
13:15:46.667,6.9688,11.875
13:15:46.676,9.9688,16.8751
13:15:46.686,11.5313,20.1251
13:15:46.696,12.9688,23.5001
13:15:46.705,15.2501,26.3126
13:15:46.716,16.2813,29.7501
13:15:46.726,17.9688,32.4376
13:15:46.736,18.6563,34.6251
13:15:46.746,19.7813,36.2501
13:15:46.757,20.1876,38.1876
13:15:46.769,21.1251,39.9377
13:15:46.776,22.2813,41.6252
13:15:46.786,22.6563,42.6252
13:15:46.796,22.0626,43.3752
13:15:46.805,22.7501,43.9377
13:15:46.816,20.0313,41.0002
13:15:46.826,17.7813,40.1252
13:15:46.836,17.3751,37.3751
13:15:46.846,16.3438,35.8126
13:15:46.857,15.6876,36.1251
13:15:46.866,15.7501,34.6251
13:15:46.876,14.6251,33.0001
13:15:46.907,14.3751,34.5001
13:15:46.910,15.3126,33.8126
13:15:46.912,15.2813,33.3751
13:15:46.916,15.5626,34.1876
13:15:46.966,15.3438,34.8126
13:15:46.966,15.2501,33.3126
13:15:46.998,14.2813,31.6251
13:15:47.000,13.5938,31.1251
13:15:47.035,13.3438,30.1251
13:15:47.035,12.25,28.3751
13:15:47.038,11,28.1876
13:15:47.038,9.9375,25.3126
13:15:47.061,6.875,21.4376
13:15:47.062,4.0938,18.4376
13:15:47.063,2.25,16.6876
13:15:47.065,2.4375,14.7501
13:15:47.067,1.9688,13.5626
13:15:47.076,1.3125,13.3126
13:15:47.086,1.0625,13.125
13:15:47.096,0.375,10.375
13:15:47.106,-0.3125,9.4375
13:15:47.116,-0.2813,9
13:15:47.126,-0.6563,8.125
13:15:47.136,-0.0625,7.6875
13:15:47.152,-0.2188,7
13:15:47.156,-0.6563,6.125
13:15:47.166,-1.5313,4
13:15:47.176,-1.7188,3.0625
13:15:47.186,-1.9063,2.6875
13:15:47.206,-1.0625,3.5625
13:15:47.213,-0.0625,5
13:15:47.227,0.5938,4.5625
13:15:47.231,1.2813,4.625
13:15:47.237,1.0313,5.375
13:15:47.246,1.3438,5.1875
13:15:47.256,1.5,4.125
13:15:47.266,-0.2813,2.4375
13:15:47.276,-0.4375,1.75
13:15:47.286,0.875,2.625
13:15:47.296,1.9375,5.0625
13:15:47.306,3.9688,6.125
13:15:47.316,3.9375,6.5
13:15:47.328,3.4375,5.3125
13:15:47.336,3.0625,5.0625
13:15:47.346,1.625,2.625
13:15:47.377,-0.2188,0.125
13:15:47.379,-2.1875,-2.8125
13:15:47.381,-4.0313,-4.8125
13:15:47.387,-4.9688,-5.5625
13:15:47.396,-5.5,-7.5625
13:15:47.406,-6.4375,-8.8125
13:15:47.416,-7.8125,-10.375
13:15:47.426,-10.7813,-14.1251
13:15:47.436,-17.9688,-22.3751
13:15:47.446,-23.5626,-29.0001
13:15:47.456,-26.3751,-33.3751
13:15:47.466,-28.0314,-36.5626
13:15:47.476,-26.4376,-35.1876
13:15:47.486,-22.2501,-30.2501
13:15:47.496,-19.0001,-26.9376
13:15:47.509,-16.4376,-25.1876
13:15:47.516,-16.2188,-23.3126
13:15:47.528,-16.0626,-22.1251
13:15:47.536,-14.8438,-22.1251
13:15:47.546,-13.5626,-18.1251
13:15:47.556,-10.7813,-16.1251
13:15:47.566,-9.5625,-11.75
13:15:47.576,-7.3438,-9.25
13:15:47.589,-6.6875,-5.75
13:15:47.596,-5.0938,-3.5
13:15:47.606,-3.0938,-0.5625
13:15:47.617,-1.6563,2.9375
13:15:47.628,0.3125,6.0625
13:15:47.636,1.4063,8.8125
13:15:47.646,2.5938,10.875
13:15:47.656,4.75,14.0001
13:15:47.678,6.0625,15.8751
13:15:47.682,5.875,17.9376
13:15:47.686,7.4688,18.6876
13:15:47.717,7.25,20.5001
13:15:47.720,7.9688,21.8751
13:15:47.722,7.5938,21.1251
13:15:47.728,7.375,21.5001
13:15:47.752,7.5,21.5626
13:15:47.755,8,21.0626
13:15:47.757,6.1563,19.7501
13:15:47.789,3.8125,16.0001
13:15:47.793,1.75,14.6251
13:15:47.794,1.5625,12.5625
13:15:47.799,0,10.5625
13:15:47.809,-1.125,8.8125
13:15:47.842,-2.25,8.5625
13:15:47.845,-2.25,6.4375
13:15:47.847,-2.9688,5.3125
13:15:47.849,-3.5625,5.6875
13:15:47.857,-3.9375,5.6875
13:15:47.866,-3.9063,3.9375
13:15:47.876,-4.875,2.75
13:15:47.886,-6.2188,0.5
13:15:47.898,-8.6875,-1.5
13:15:47.910,-10.25,-4.6875
13:15:47.918,-11.9063,-6.5
13:15:47.927,-12.6875,-7.9375
13:15:47.936,-13.0938,-7.8125
13:15:47.947,-13.125,-8.625
13:15:47.957,-12.75,-10
13:15:47.967,-13.5938,-10.875
13:15:47.976,-14.1251,-11.1875
13:15:47.986,-14.5313,-12.5
13:15:47.996,-15.3751,-14.4376
13:15:48.006,-16.5313,-14.7501
13:15:48.016,-16.6563,-17.6251
13:15:48.026,-17.3126,-18.5001
13:15:48.036,-16.5001,-16.8751
13:15:48.046,-15.6563,-17.3126
13:15:48.057,-16.5313,-17.6251
13:15:48.067,-16.2501,-18.6876
13:15:48.077,-17.2813,-19.3126
13:15:48.087,-17.5938,-21.0626
13:15:48.097,-17.6251,-22.2501
13:15:48.106,-17.9063,-22.0001
13:15:48.117,-19.2813,-23.5626
13:15:48.126,-20.6876,-25.5001
13:15:48.136,-22.4063,-27.3751
13:15:48.146,-23.5626,-30.3126
13:15:48.156,-25.7188,-32.5001
13:15:48.171,-26.7501,-33.8751
13:15:48.182,-27.9376,-34.7501
13:15:48.192,-26.8126,-35.0001
13:15:48.201,-26.2501,-34.2501
13:15:48.211,-24.8751,-33.8126
13:15:48.221,-24.0626,-32.3126
13:15:48.231,-23.2501,-31.4376
13:15:48.241,-23.7501,-31.6876
13:15:48.257,-23.9376,-33.1251
13:15:48.273,-25.4063,-34.4376
13:15:48.276,-26.0938,-36.3126
13:15:48.285,-27.2189,-38.0001
13:15:48.292,-27.5001,-37.5001
13:15:48.301,-28.2501,-39.5002
13:15:48.311,-29.0314,-41.6877
13:15:48.321,-29.7501,-41.8127
13:15:48.331,-30.5314,-43.1877
13:15:48.341,-31.0626,-43.5002
13:15:48.351,-35.6251,-48.1252
13:15:48.361,-38.5939,-52.3127
13:15:48.371,-37.5939,-52.8127
13:15:48.381,-34.0626,-49.4377
13:15:48.406,-30.7189,-45.0627
13:15:48.408,-28.8439,-44.3127
13:15:48.411,-30.2189,-45.9377
13:15:48.448,-31.2814,-46.7502
13:15:48.450,-31.5001,-47.5627
13:15:48.452,-30.5001,-46.3127
13:15:48.455,-28.9064,-45.0627
13:15:48.485,-26.4376,-41.3752
13:15:48.487,-23.8438,-36.8751
13:15:48.489,-21.0938,-31.8751
13:15:48.531,-17.8438,-26.8126
13:15:48.532,-15.0626,-21.8751
13:15:48.534,-12.25,-16.8126
13:15:48.541,-9.8438,-13.0625
13:15:48.541,-6.7813,-7.1875
13:15:48.557,-4.2188,-3.875
13:15:48.557,-1.8438,0.25
13:15:48.570,0.625,3.5625
13:15:48.572,3.2813,7.875
13:15:48.581,5.8438,13.1876
13:15:48.591,8.2813,16.1251
13:15:48.602,10.9375,20.3126
13:15:48.611,12,21.8126
13:15:48.621,12.3125,23.3751
13:15:48.631,13.5313,25.3751
13:15:48.656,13.8438,26.6251
13:15:48.658,14.9376,27.5626
13:15:48.663,14.5001,27.3751
13:15:48.677,14.4376,27.7501
13:15:48.682,14.6876,28.0001
13:15:48.691,14.5938,27.0001
13:15:48.702,13.9063,26.5626
13:15:48.713,14.4063,26.1251
13:15:48.724,14.3438,26.9376
13:15:48.731,15.1876,27.0001
13:15:48.741,15.6876,27.2501
13:15:48.751,14.9688,27.0001
13:15:48.761,14.0626,25.3751
13:15:48.771,10.5625,21.5001
13:15:48.781,8.3438,18.8751
13:15:48.793,6.5313,16.2501
13:15:48.803,4.125,12.75
13:15:48.811,1.875,10.125
13:15:48.821,-0.25,6.875
13:15:48.831,-0.9063,5
13:15:48.841,-1.8125,4.1875
13:15:48.851,-3.0313,2.125
13:15:48.861,-4.375,-0.0625
13:15:48.871,-4.7188,-1.1875
13:15:48.881,-6,-3.25
13:15:48.891,-6.875,-4.0625
13:15:48.901,-7.875,-5.875
13:15:48.912,-8.375,-6.8125
13:15:48.921,-9.3438,-8.75
13:15:48.931,-9.6875,-10.25
13:15:48.945,-9.6875,-10.875
13:15:48.953,-9.8438,-10.8125
13:15:48.961,-10.0938,-11.375
13:15:48.971,-11,-12.5625
13:15:48.981,-11.3438,-14.8126
13:15:48.991,-12.5625,-15.1876
13:15:49.001,-12.1875,-16.2501
13:15:49.011,-13.0313,-17.1876
13:15:49.021,-12.7188,-18.4376
13:15:49.031,-14.0313,-18.8751
13:15:49.041,-12.875,-18.8126
13:15:49.051,-11.9063,-17.3126
13:15:49.061,-11.6875,-16.4376
13:15:49.071,-11.3125,-16.6876
13:15:49.081,-9.9688,-16.1251
13:15:49.091,-9.6875,-14.3751
13:15:49.101,-9.0625,-15.4376
13:15:49.126,-8.9375,-15.6251
13:15:49.128,-9.375,-14.3126
13:15:49.131,-8.7813,-14.9376
13:15:49.170,-7.2813,-14.3751
13:15:49.177,-7.2188,-12.875
13:15:49.177,-7.1875,-13.6876
13:15:49.178,-7.5938,-13.1251
13:15:49.184,-8.2813,-14.3751
13:15:49.193,-8.125,-16.0001
13:15:49.235,-8.1563,-16.0001
13:15:49.236,-9.1875,-17.0626
13:15:49.239,-9.625,-18.3126
13:15:49.241,-10.2813,-18.8126
13:15:49.248,-11.5,-20.3751
13:15:49.253,-12.5,-21.8126
13:15:49.287,-13.6251,-21.6876
13:15:49.289,-14.1563,-23.1251
13:15:49.290,-14.1563,-23.6876
13:15:49.292,-13.8751,-23.5626
13:15:49.301,-14.0938,-24.7501
13:15:49.311,-13.9376,-23.3751
13:15:49.321,-14.8126,-25.6251
13:15:49.331,-14.4688,-24.6876
13:15:49.341,-13.5313,-23.6876
13:15:49.351,-13.7813,-24.6876
13:15:49.361,-15.6876,-27.6251
13:15:49.371,-17.4376,-29.0001
13:15:49.381,-18.1876,-30.8126
13:15:49.391,-18.4376,-30.9376
13:15:49.402,-17.2188,-29.9376
13:15:49.411,-16.0001,-27.5626
13:15:49.426,-14.6876,-26.1251
13:15:49.432,-12.9688,-21.8751
13:15:49.442,-10.375,-18.1251
13:15:49.453,-7.625,-14.4376
13:15:49.461,-4.875,-8.9375
13:15:49.471,-2.4063,-5.8125
13:15:49.481,-0.5625,-0.3125
13:15:49.491,1.1563,2.25
13:15:49.501,3.0313,5.6875
13:15:49.511,4.5313,9
13:15:49.521,6.1563,11.0625
13:15:49.531,6.7813,13.9376
13:15:49.541,8.5625,15.6876
13:15:49.556,9.9688,18.3126
13:15:49.563,12.2813,21.2501
13:15:49.571,14.9688,26.1251
13:15:49.586,17.0001,29.3126
13:15:49.603,17.5001,30.3751
13:15:49.604,16.8126,30.1251
13:15:49.611,16.0313,28.9376
13:15:49.623,14.4376,28.1251
13:15:49.632,13.6251,27.1876
13:15:49.641,12.8125,26.4376
13:15:49.651,12.5,25.4376
13:15:49.661,11,24.4376
13:15:49.671,10.125,23.6876
13:15:49.681,9.6875,22.4376
13:15:49.691,8.6563,21.7501
13:15:49.702,9.125,22.9376
13:15:49.711,9.125,23.0001
13:15:49.721,9.25,22.9376
13:15:49.731,8.7813,22.6876
13:15:49.743,8.75,24.1876
13:15:49.751,9.0938,24.5626
13:15:49.761,9.8125,25.1251
13:15:49.771,10.0938,25.0001
13:15:49.781,10.0625,25.4376
13:15:49.791,9.5625,25.6251
13:15:49.823,9.3125,24.1876
13:15:49.838,7.9063,21.8126
13:15:49.840,5.5625,19.5001
13:15:49.847,-0.5938,12.0625
13:15:49.847,-9.0625,1.8125
13:15:49.851,-14.5938,-4.8125
13:15:49.893,-19.9688,-13.0625
13:15:49.896,-27.9064,-22.0626
13:15:49.897,-33.8439,-29.8751
13:15:49.900,-39.4377,-37.6876
13:15:49.905,-44.8752,-44.3127
13:15:49.912,-48.7189,-49.7502
13:15:49.940,-50.6564,-54.0627
13:15:49.943,-53.9377,-59.1252
13:15:49.945,-57.0627,-63.3752
13:15:49.953,-61.7815,-70.0628
13:15:49.978,-70.4065,-80.4378
13:15:49.980,-80.4691,-92.7504
13:15:49.983,-92.8129,-107.9379
13:15:50.010,-98.4379,-115.8754
13:15:50.011,-104.9691,-131.438
13:15:50.013,-106.3442,-136.188
13:15:50.039,-110.0942,-141.938
13:15:50.041,-114.5629,-150.1881
13:15:50.044,-115.9067,-156.5006
13:15:50.051,-118.2192,-160.3131
13:15:50.061,-122.8442,-168.0631
13:15:50.071,-127.1255,-175.1882
13:15:50.082,-131.2818,-182.8132
13:15:50.092,-134.8755,-188.8132
13:15:50.101,-137.3443,-194.2507
13:15:50.111,-139.8755,-199.0008
13:15:50.121,-142.0943,-203.3758
13:15:50.131,-143.7505,-206.7508
13:15:50.143,-146.2193,-210.5008
13:15:50.151,-148.5943,-215.3758
13:15:50.161,-152.7506,-219.8758
13:15:50.171,-156.7506,-227.5009
13:15:50.183,-161.5631,-232.2509
13:15:50.193,-164.5631,-237.6884
13:15:50.203,-166.5006,-239.0634
13:15:50.211,-167.6569,-243.0009
13:15:50.222,-169.3444,-244.0009
13:15:50.231,-170.0006,-246.8134
13:15:50.241,-171.3132,-248.8759
13:15:50.251,-172.3132,-250.0634
13:15:50.261,-171.2194,-249.8759
13:15:50.272,-170.5007,-249.6884
13:15:50.281,-170.9382,-248.8759
13:15:50.292,-170.5632,-250.4385
13:15:50.301,-169.9694,-248.8134
13:15:50.312,-169.3444,-249.0634
13:15:50.324,-168.9069,-247.6259
13:15:50.332,-167.4694,-246.9384
13:15:50.341,-165.0631,-244.6884
13:15:50.351,-164.0006,-242.7509
13:15:50.361,-162.4069,-241.2509
13:15:50.371,-159.7819,-237.8134
13:15:50.382,-158.4381,-233.8759
13:15:50.391,-155.8756,-231.1884
13:15:50.401,-153.2193,-225.6259
13:15:50.413,-150.5631,-221.3759
13:15:50.422,-147.1881,-216.6258
13:15:50.434,-145.313,-211.6258
13:15:50.441,-142.188,-207.1258
13:15:50.451,-138.7193,-200.3133
13:15:50.461,-135.5943,-195.9382
13:15:50.471,-131.063,-189.5007
13:15:50.481,-127.7817,-183.6882
13:15:50.491,-123.563,-178.0632
13:15:50.501,-120.438,-172.1882
13:15:50.528,-117.5004,-167.8756
13:15:50.530,-114.5942,-163.5006
13:15:50.532,-111.2504,-160.2506
13:15:50.567,-108.7504,-155.6256
13:15:50.569,-105.7504,-152.0006
13:15:50.571,-103.0316,-149.4381
13:15:50.573,-102.4379,-147.2506
13:15:50.607,-100.7816,-145.2505
13:15:50.610,-99.3441,-143.6255
13:15:50.610,-98.6879,-142.7505
13:15:50.645,-97.3754,-141.1255
13:15:50.648,-96.7816,-139.2505
13:15:50.649,-95.8129,-139.3755
13:15:50.658,-94.3129,-137.438
13:15:50.658,-93.9691,-136.8755
13:15:50.671,-92.5004,-135.563
13:15:50.674,-91.5004,-133.563
13:15:50.697,-88.7191,-130.813
13:15:50.701,-88.0316,-128.813
13:15:50.702,-86.3753,-127.5005
13:15:50.712,-85.2191,-124.938
13:15:50.721,-84.1878,-124.0005
13:15:50.731,-83.0628,-122.2505
13:15:50.742,-82.6566,-121.063
13:15:50.753,-81.4066,-120.188
13:15:50.761,-81.0316,-118.563
13:15:50.772,-80.0003,-118.688
13:15:50.781,-78.7816,-116.8754
13:15:50.791,-78.5316,-115.8754
13:15:50.801,-77.719,-115.2504
13:15:50.811,-77.344,-115.5004
13:15:50.822,-76.219,-114.5004
13:15:50.831,-75.844,-113.7504
13:15:50.845,-74.844,-113.4379
13:15:50.854,-74.8753,-112.4379
13:15:50.871,-72.5315,-111.5629
13:15:50.873,-72.7503,-110.3754
13:15:50.889,-71.6253,-109.7504
13:15:50.904,-71.1878,-109.2504
13:15:50.906,-70.5315,-108.1254
13:15:50.914,-69.6878,-108.2504
13:15:50.924,-68.4065,-107.0629
13:15:50.931,-67.7815,-105.6879
13:15:50.943,-66.6253,-104.7504
13:15:50.953,-65.3753,-102.6879
13:15:50.962,-65.0315,-102.5004
13:15:50.972,-63.4377,-101.6254
13:15:50.981,-63.3127,-100.4379
13:15:50.992,-63.6877,-100.7504
13:15:51.003,-62.6565,-100.6879
13:15:51.011,-62.344,-99.8754
13:15:51.022,-62.4065,-100.1254
13:15:51.032,-62.094,-98.7504
13:15:51.041,-61.3127,-98.4379
13:15:51.052,-61.2815,-97.5004
13:15:51.062,-60.719,-98.4379
13:15:51.072,-59.6565,-97.0629
13:15:51.082,-59.1252,-96.8129
13:15:51.093,-58.2815,-95.4379
13:15:51.104,-57.7815,-94.5629
13:15:51.121,-58.0627,-94.9379
13:15:51.127,-57.6565,-94.1254
13:15:51.139,-56.7502,-93.8129
13:15:51.141,-55.9377,-92.9379
13:15:51.160,-55.3752,-92.0629
13:15:51.165,-55.1252,-92.5004
13:15:51.175,-54.4065,-91.5629
13:15:51.182,-54.9377,-91.1254
13:15:51.191,-54.094,-91.6879
13:15:51.218,-53.719,-91.5004
13:15:51.220,-55.0002,-92.0629
13:15:51.223,-56.1252,-94.0004
13:15:51.231,-55.844,-93.7504
13:15:51.261,-55.6252,-93.1879
13:15:51.262,-54.1565,-92.1254
13:15:51.265,-53.3127,-89.8753
13:15:51.273,-52.4377,-89.3753
13:15:51.306,-51.2814,-87.8128
13:15:51.309,-51.1564,-85.9378
13:15:51.312,-49.6877,-84.1253
13:15:51.314,-49.1252,-81.8753
13:15:51.349,-48.7814,-79.1878
13:15:51.353,-47.1252,-75.1253
13:15:51.354,-45.3752,-72.1878
13:15:51.378,-43.1877,-68.0628
13:15:51.379,-42.7189,-63.5002
13:15:51.383,-41.1564,-61.9377
13:15:51.386,-39.5314,-58.1877
13:15:51.392,-39.0001,-55.5002
13:15:51.425,-38.0001,-53.6877
13:15:51.427,-36.5626,-50.6252
13:15:51.430,-36.3126,-49.4377
13:15:51.432,-35.5001,-47.0627
13:15:51.447,-35.0626,-45.5002
13:15:51.454,-34.8751,-44.2502
13:15:51.463,-33.8751,-43.5002
13:15:51.472,-34.4064,-41.9377
13:15:51.483,-34.2189,-41.8127
13:15:51.491,-34.0001,-41.0627
13:15:51.501,-34.5626,-41.6877
13:15:51.513,-34.6251,-40.8127
13:15:51.523,-34.4689,-39.8752
13:15:51.531,-31.7189,-38.0626
13:15:51.542,-31.4376,-37.5001
13:15:51.551,-31.3439,-36.7501
13:15:51.562,-31.3751,-36.4376
13:15:51.571,-31.2814,-35.8126
13:15:51.582,-31.0626,-35.1251
13:15:51.591,-30.0001,-33.8751
13:15:51.602,-29.5626,-33.6251
13:15:51.612,-28.7189,-32.5001
13:15:51.621,-29.4064,-31.3126
13:15:51.631,-29.1251,-31.3126
13:15:51.642,-29.5939,-30.8126
13:15:51.652,-28.7501,-30.8751
13:15:51.663,-29.6876,-31.3751
13:15:51.673,-29.0626,-29.9376
13:15:51.681,-29.0001,-30.3751
13:15:51.691,-28.8439,-29.6251
13:15:51.701,-29.1251,-29.3126
13:15:51.713,-29.0626,-30.0001
13:15:51.723,-29.9689,-30.5001
13:15:51.733,-28.6251,-29.8751
13:15:51.741,-28.5001,-29.2501
13:15:51.752,-28.1564,-28.9376
13:15:51.761,-28.3751,-28.3126
13:15:51.772,-28.1564,-28.3126
13:15:51.782,-28.5939,-27.8126
13:15:51.793,-28.3439,-28.6251
13:15:51.801,-29.1564,-29.1876
13:15:51.812,-28.0626,-28.9376
13:15:51.822,-28.7189,-29.1876
13:15:51.832,-28.4376,-29.6876
13:15:51.843,-29.4064,-29.8751
13:15:51.853,-28.4376,-29.9376
13:15:51.864,-29.5939,-30.1251
13:15:51.872,-29.7189,-30.6876
13:15:51.882,-30.5939,-31.1251
13:15:51.892,-31.0001,-32.1251
13:15:51.902,-31.0314,-33.5001
13:15:51.912,-31.4376,-33.0001
13:15:51.923,-31.0314,-33.5626
13:15:51.933,-31.6251,-33.2501
13:15:51.942,-31.7189,-34.1876
13:15:51.952,-31.8126,-34.0001
13:15:51.967,-31.5939,-35.9376
13:15:51.977,-32.3126,-34.6251
13:15:51.987,-32.5314,-35.6876
13:15:51.997,-33.1876,-36.7501
13:15:52.007,-33.5314,-37.1251
13:15:52.018,-34.1876,-39.1251
13:15:52.029,-34.4064,-38.5001
13:15:52.051,-34.8439,-40.1877
13:15:52.054,-35.3439,-39.6252
13:15:52.058,-34.7814,-41.2502
13:15:52.091,-34.7501,-40.3752
13:15:52.093,-34.0001,-40.8127
13:15:52.095,-32.9689,-39.3752
13:15:52.098,-32.9689,-40.1877
13:15:52.133,-33.6251,-39.9377
13:15:52.137,-32.4689,-39.8752
13:15:52.140,-32.1876,-39.8752
13:15:52.145,-32.3126,-39.8752
13:15:52.156,-32.4376,-40.3752
13:15:52.158,-32.9689,-42.1877
13:15:52.166,-32.9376,-43.0627
13:15:52.203,-32.0001,-42.0002
13:15:52.205,-31.6876,-41.7502
13:15:52.226,-31.2189,-40.4377
13:15:52.241,-30.5939,-41.0002
13:15:52.244,-30.0939,-38.9376
13:15:52.258,-29.3126,-37.8126
13:15:52.260,-29.2501,-35.1251
13:15:52.261,-27.8751,-33.5626
13:15:52.264,-26.3439,-29.6876
13:15:52.272,-23.5313,-25.3751
13:15:52.282,-22.0001,-20.7501
13:15:52.293,-19.8126,-17.8751
13:15:52.302,-18.0626,-12.9375
13:15:52.313,-16.7501,-10
13:15:52.322,-14.9688,-6.6875
13:15:52.332,-13.4063,-4.875
13:15:52.342,-12,-0.625
13:15:52.352,-11.8438,0.9375
13:15:52.363,-11.0313,2.1875
13:15:52.372,-10.5625,3.9375
13:15:52.382,-9.5313,4.8125
13:15:52.392,-9.1875,6.5625
13:15:52.402,-8.375,7.5
13:15:52.412,-7.9375,7.125
13:15:52.425,-8.0625,9.25
13:15:52.433,-7.1563,8.4375
13:15:52.449,-8.5313,8.5625
13:15:52.456,-8.4063,7.375
13:15:52.465,-8.9688,7.5
13:15:52.472,-9.2813,7.0625
13:15:52.501,-9.2813,7.125
13:15:52.516,-8.9063,7.3125
13:15:52.518,-9.2188,6.875
13:15:52.523,-8.8125,7.25
13:15:52.523,-8.9688,7.6875
13:15:52.534,-9.0625,8.25
13:15:52.542,-9.5,6.9375
13:15:52.552,-9.7188,7.5
13:15:52.562,-10.0313,6.75
13:15:52.573,-10.4063,7
13:15:52.583,-10.0625,6.5625
13:15:52.597,-10.7188,7.125
13:15:52.602,-11.5313,6.625
13:15:52.612,-10.9375,6
13:15:52.622,-11.5313,6.125
13:15:52.632,-11.0625,5.875
13:15:52.642,-10.75,6.125
13:15:52.653,-10.9063,6.375
13:15:52.662,-11,6.9375
13:15:52.672,-10.6875,5.8125
13:15:52.682,-11,5
13:15:52.692,-11.8125,4.8125
13:15:52.703,-11.5625,4.4375
13:15:52.713,-12.5625,2.9375
13:15:52.722,-12.7813,2.5
13:15:52.732,-12.6875,1.5625
13:15:52.742,-13.3438,1.25
13:15:52.761,-13.2188,1.125
13:15:52.769,-13.4376,-0.125
13:15:52.781,-14.4688,-0.6875
13:15:52.783,-15.2188,-2.3125
13:15:52.818,-15.5626,-3.0625
13:15:52.819,-16.1251,-4.125
13:15:52.822,-15.9063,-3.6875
13:15:52.850,-15.3438,-4.25
13:15:52.851,-14.6876,-3.75
13:15:52.854,-14.3751,-1.8125
13:15:52.859,-13.6563,-2.4375
13:15:52.864,-13.5938,-4.125
13:15:52.899,-13.2813,-2.9375
13:15:52.902,-14.1563,-4.625
13:15:52.904,-14.9688,-5.3125
13:15:52.908,-16.5938,-8.375
13:15:52.913,-18.1563,-10.125
13:15:52.930,-19.7501,-12.625
13:15:52.932,-21.3126,-14.6876
13:15:52.942,-22.2501,-16.3126
13:15:52.952,-23.2188,-17.5626
13:15:52.962,-24.1251,-19.0001
13:15:52.974,-24.4063,-20.7501
13:15:52.982,-25.9376,-22.3751
13:15:52.992,-26.0626,-24.0001
13:15:53.002,-27.7501,-24.8126
13:15:53.012,-28.5314,-27.4376
13:15:53.023,-29.3439,-28.6251
13:15:53.032,-29.5001,-29.6251
13:15:53.042,-29.8126,-29.6251
13:15:53.052,-28.9689,-30.5626
13:15:53.063,-28.2189,-29.0001
13:15:53.074,-27.2501,-29.1876
13:15:53.085,-26.5939,-27.7501
13:15:53.092,-24.9688,-28.1876
13:15:53.102,-24.3751,-26.1876
13:15:53.112,-23.2188,-25.7501
13:15:53.122,-22.4376,-25.8751
13:15:53.134,-22.6563,-25.2501
13:15:53.143,-22.0938,-26.0626
13:15:53.153,-22.3438,-26.5626
13:15:53.163,-22.2813,-26.8751
13:15:53.172,-21.5626,-25.8126
13:15:53.183,-20.2813,-25.5001
13:15:53.192,-20.0626,-23.5001
13:15:53.204,-18.6563,-20.9376
13:15:53.212,-17.6876,-18.4376
13:15:53.222,-16.8438,-15.1876
13:15:53.233,-14.8751,-11.875
13:15:53.246,-13.3751,-8.375
13:15:53.253,-11.5938,-4.875
13:15:53.262,-9.9375,-0.5
13:15:53.272,-7.9063,2.625
13:15:53.282,-6.0938,6.0625
13:15:53.295,-4.0938,9.6875
13:15:53.302,-2.875,12.375
13:15:53.312,-1.9688,14.6876
13:15:53.322,-1.2813,16.0626
13:15:53.332,-1.1563,17.5626
13:15:53.347,-1.0625,18.3126
13:15:53.356,-1.5938,19.0626
13:15:53.362,-1.3438,19.3126
13:15:53.372,-1.1875,20.2501
13:15:53.382,-1.7813,19.2501
13:15:53.392,-2.625,18.8126
13:15:53.405,-2.7188,17.7501
13:15:53.412,-4.25,17.0001
13:15:53.422,-5.5,15.2501
13:15:53.432,-6.3438,14.1876
13:15:53.442,-4.4688,15.1876
13:15:53.453,-4.8438,16.0001
13:15:53.462,-4.2188,15.5001
13:15:53.472,-4.625,14.7501
13:15:53.482,-5.125,15.6251
13:15:53.497,-4.5,15.6251
13:15:53.503,-4.5,15.3126
13:15:53.533,-3.5938,16.5626
13:15:53.537,-4.1563,16.4376
13:15:53.564,-3.9063,16.7501
13:15:53.566,-3.125,17.0626
13:15:53.607,-3.8438,17.3751
13:15:53.607,-3.8125,18.1876
13:15:53.607,-3.6875,17.0001
13:15:53.641,-4.2188,18.3751
13:15:53.672,-3.7813,17.7501
13:15:53.672,-3.4063,16.8126
13:15:53.672,-2.6875,16.8751
13:15:53.673,-2.1875,17.4376
13:15:53.675,-2.25,18.3126
13:15:53.683,-2.4063,17.0626
13:15:53.683,-2.875,16.3751
13:15:53.694,-3.5313,15.1251
13:15:53.702,-4.9375,13.7501
13:15:53.712,-5.5625,12.1875
13:15:53.727,-7.7813,10.375
13:15:53.735,-8.5,9.25
13:15:53.743,-9.2813,7.5625
13:15:53.752,-9.3125,6.0625
13:15:53.778,-6.4375,9.5625
13:15:53.793,-10.5625,4.6875
13:15:53.808,-10.5313,3.8125
13:15:53.810,-10.2813,4.625
13:15:53.826,-10.375,3.625
13:15:53.826,-10.3125,2.5
13:15:53.826,-10.4375,2.875
13:15:53.841,-9,3.25
13:15:53.844,-8.75,3.6875
13:15:53.852,-7.3438,2.75
13:15:53.862,-8.2188,3
13:15:53.872,-8.125,3
13:15:53.885,-8.0625,1.625
13:15:53.892,-8.7188,0.4375
13:15:53.903,-9.2188,0.25
13:15:53.912,-9.0313,-0.6875
13:15:53.922,-9.875,-1.5625
13:15:53.934,-9.25,-2
13:15:53.942,-9.7813,-3.375
13:15:53.952,-9.2813,-2.5625
13:15:53.962,-9.25,-3.1875
13:15:53.973,-9.0313,-4.1875
13:15:53.983,-8.625,-4.625
13:15:53.992,-9.0313,-6.125
13:15:54.002,-9.125,-6.625
13:15:54.013,-10.0625,-7.625
13:15:54.022,-10.8438,-8.4375
13:15:54.032,-10.2188,-9.1875
13:15:54.042,-11.5938,-10.5625
13:15:54.052,-11.4375,-10.0625
13:15:54.063,-11.875,-12.5625
13:15:54.076,-12.625,-14.0001
13:15:54.082,-13.6251,-14.7501
13:15:54.092,-13.7501,-16.5001
13:15:54.103,-14.0626,-16.8126
13:15:54.113,-14.8751,-18.8126
13:15:54.123,-15.5313,-19.6876
13:15:54.132,-15.9688,-19.7501
13:15:54.143,-15.3751,-19.6876
13:15:54.152,-14.5313,-18.8126
13:15:54.162,-13,-16.6876
13:15:54.173,-11.3438,-14.1251
13:15:54.182,-9.4688,-10
13:15:54.195,-7.25,-6.5625
13:15:54.202,-5.6563,-3
13:15:54.212,-4,0.375
13:15:54.222,-2.5313,3.875
13:15:54.241,-1.2188,7.375
13:15:54.243,0.375,9.625
13:15:54.274,1.2188,13.1251
13:15:54.277,2.0938,14.8751
13:15:54.278,3.125,17.2501
13:15:54.282,4.5,19.1876
13:15:54.323,5.1875,20.6876
13:15:54.328,5.2188,22.3126
13:15:54.330,5.875,23.0001
13:15:54.333,5.4375,23.5626
13:15:54.336,6.1875,24.8751
13:15:54.369,6.8125,25.3126
13:15:54.371,5.875,25.3126
13:15:54.373,6.5625,25.3751
13:15:54.378,6.1563,25.3751
13:15:54.383,5.875,24.4376
13:15:54.414,5.3438,25.5001
13:15:54.417,5.4063,24.4376
13:15:54.419,4.5625,22.5626
13:15:54.426,3.9688,22.3751
13:15:54.434,3.2188,21.8751
13:15:54.442,3.2188,20.5626
13:15:54.452,2.9063,19.8126
13:15:54.463,2.3438,20.3751
13:15:54.477,2.5938,20.8126
13:15:54.482,3,20.8751
13:15:54.492,3.4688,21.2501
13:15:54.502,3.5313,21.9376
13:15:54.515,3.2813,20.8751
13:15:54.522,3.2813,20.8751
13:15:54.532,3.0938,19.7501
13:15:54.542,2.0625,19.8751
13:15:54.553,1.6875,19.8126
13:15:54.562,1.9375,19.3126
13:15:54.572,1.5625,18.0001
13:15:54.582,0.9375,17.0626
13:15:54.593,-0.0313,16.1876
13:15:54.602,-0.3438,15.8751
13:15:54.612,-0.4375,14.0001
13:15:54.622,-1.7813,12.875
13:15:54.633,-2.1563,11.75
13:15:54.642,-1.9375,12.3125
13:15:54.652,-1.9375,11.4375
13:15:54.662,-2,10.5
13:15:54.673,-3.1563,9.4375
13:15:54.682,-3.875,8.8125
13:15:54.692,-3.5313,7.75
13:15:54.702,-4.375,6.6875
13:15:54.712,-5.0625,6.8125
13:15:54.723,-5.0313,5.875
13:15:54.732,-5.2813,4.8125
13:15:54.742,-4.9063,4.5
13:15:54.753,-5.0938,5.3125
13:15:54.762,-4.375,4.375
13:15:54.773,-4.6875,3.4375
13:15:54.782,-4.75,3.25
13:15:54.793,-4.8438,2.5
13:15:54.802,-5.7188,2.3125
13:15:54.812,-6.3438,0.75
13:15:54.822,-6.9063,-1
13:15:54.834,-7.7188,-1.375
13:15:54.842,-7.2813,-2.9375
13:15:54.852,-7.6875,-4.25
13:15:54.862,-7.8438,-3.8125
13:15:54.873,-8.5313,-5.9375
13:15:54.882,-9.375,-6.875
13:15:54.892,-10.0938,-6.8125
13:15:54.902,-9.7813,-8.875
13:15:54.923,-10.5,-9.3125
13:15:54.927,-10.4688,-10.3125
13:15:54.935,-10.375,-10.4375
13:15:54.966,-9.875,-10.5625
13:15:54.967,-10.0313,-9.9375
13:15:54.996,-9.2813,-11.4375
13:15:55.025,-9.5625,-12.1875
13:15:55.027,-8.9063,-11.5625
13:15:55.030,-9.8125,-13.2501
13:15:55.057,-9.1875,-13.5626
13:15:55.058,-8.7188,-13.1876
13:15:55.058,-9.0938,-13
13:15:55.060,-8.0938,-13.3126
13:15:55.063,-7.875,-13.4376
13:15:55.068,-7.2813,-13.125
13:15:55.072,-7.375,-12.9375
13:15:55.105,-6.5938,-13.7501
13:15:55.107,-6.1875,-14.1876
13:15:55.122,-6.625,-14.0001
13:15:55.137,-6.375,-14.7501
13:15:55.139,-7,-16.3751
13:15:55.154,-6.2188,-14.7501
13:15:55.154,-5.2188,-14.5001
13:15:55.156,-3.3438,-12.1875
13:15:55.171,-2.1563,-10.5625
13:15:55.173,-0.5938,-7.3125
13:15:55.183,1.0313,-3.3125
13:15:55.193,2.5938,-0.3125
13:15:55.202,6.8125,7.0625
13:15:55.212,7.2188,9.6875
13:15:55.227,8.0313,12.625
13:15:55.234,9.375,14.5626
13:15:55.242,10.0313,17.9376
13:15:55.252,11.4375,19.4376
13:15:55.262,11.8438,21.8126
13:15:55.274,13.2813,22.8751
13:15:55.282,13.6563,24.6251
13:15:55.292,14.1251,26.7501
13:15:55.302,14.8751,27.6251
13:15:55.312,15.5001,28.8126
13:15:55.322,15.9376,31.1251
13:15:55.332,16.9376,31.1876
13:15:55.344,17.2501,32.1876
13:15:55.352,16.6251,31.8751
13:15:55.362,16.1563,30.1876
13:15:55.373,15.2501,29.8126
13:15:55.383,15.6563,29.1251
13:15:55.392,15.4063,28.6876
13:15:55.402,14.9376,27.6251
13:15:55.412,15.4688,28.6251
13:15:55.422,15.5001,28.4376
13:15:55.432,15.3751,28.1876
13:15:55.442,15.3751,29.5626
13:15:55.454,15.7813,27.8751
13:15:55.464,15.4376,27.6876
13:15:55.473,14.9063,28.1876
13:15:55.482,15.0001,28.4376
13:15:55.493,15.1876,27.9376
13:15:55.505,14.9376,27.4376
13:15:55.513,14.5313,27.6876
13:15:55.522,14.8438,27.6876
13:15:55.533,14.8438,27.6251
13:15:55.542,14.1876,26.2501
13:15:55.553,13.2188,26.0001
13:15:55.562,13.2813,24.6251
13:15:55.573,11.9063,23.2501
13:15:55.582,10.8125,22.6251
13:15:55.592,10.5313,22.3126
13:15:55.607,10.4688,20.9376
13:15:55.613,9.25,19.6876
13:15:55.624,8.75,19.8751
13:15:55.633,8.7188,18.8126
13:15:55.643,8.6875,17.7501
13:15:55.672,7.6563,16.9376
13:15:55.675,7.0313,16.2501
13:15:55.677,6.7813,14.8126
13:15:55.684,6,13.5001
13:15:55.718,6.0938,14.0001
13:15:55.721,5.375,12.4375
13:15:55.724,4.8125,11.9375
13:15:55.751,4.9688,12
13:15:55.753,4.5625,10.6875
13:15:55.755,4.1563,10.125
13:15:55.760,3.875,9.5625
13:15:55.763,3.5625,8.125
13:15:55.798,2.9063,8.25
13:15:55.800,3.5313,7.25
13:15:55.803,2.2188,5.8125
13:15:55.806,1.3438,5.375
13:15:55.834,0.5938,4.5
13:15:55.835,0,2.625
13:15:55.838,-1.2813,1
13:15:55.843,-1.4688,1.5
13:15:55.854,-1.5313,-0.125
13:15:55.862,-1.2813,-0.875
13:15:55.872,-2.0625,-1.3125
13:15:55.882,-2.4375,-1.375
13:15:55.892,-2.3438,-3.8125
13:15:55.902,-3.4688,-4.9375
13:15:55.913,-4.3125,-6.1875
13:15:55.923,-4.6875,-6.6875
13:15:55.932,-5.6875,-8.125
13:15:55.942,-5.8438,-8.5
13:15:55.952,-6.2813,-9.4375
13:15:55.963,-6.0938,-10.4375
13:15:55.981,-6.875,-11
13:15:55.983,-6.9063,-11.125
13:15:55.993,-7.1563,-12.5
13:15:56.003,-7.6875,-13.8751
13:15:56.013,-8.5625,-14.4376
13:15:56.022,-8.5,-15.0626
13:15:56.032,-9.1563,-16.1876
13:15:56.042,-8.5938,-16.1876
13:15:56.054,-9.8125,-17.6251
13:15:56.062,-10.875,-18.3751
13:15:56.072,-10.5625,-19.6876
13:15:56.083,-10.0938,-18.0626
13:15:56.092,-9.2188,-17.5001
13:15:56.102,-7.9063,-14.9376
13:15:56.112,-6.25,-12.4375
13:15:56.122,-4.9375,-8.375
13:15:56.133,-3.375,-5.375
13:15:56.142,-1.5,-2.375
13:15:56.154,-0.5,0.875
13:15:56.163,0.2813,3.5
13:15:56.172,1.0625,5.625
13:15:56.183,2.0625,7.9375
13:15:56.193,2.25,9.0625
13:15:56.202,2.8125,10.6875
13:15:56.212,3.5625,12.4375
13:15:56.227,3.6563,13.6251
13:15:56.238,4.1875,14.2501
13:15:56.247,4.375,15.2501
13:15:56.258,4.4688,15.1876
13:15:56.279,3.7813,16.1876
13:15:56.281,4.2188,16.0001
13:15:56.289,3.1875,15.7501
13:15:56.297,3.3438,14.7501
13:15:56.313,2.6563,14.7501
13:15:56.327,2.4688,13.8751
13:15:56.344,2.1563,13.3751
13:15:56.347,2.5313,13.2501
13:15:56.352,2.0313,12.6875
13:15:56.357,1.2188,11.5
13:15:56.368,0.625,11.0625
13:15:56.399,0.2813,9.375
13:15:56.402,-0.5313,9.6875
13:15:56.404,-0.3125,9.6875
13:15:56.408,-0.875,8.8125
13:15:56.482,-0.6563,9.875
13:15:56.484,0.4063,9.8125
13:15:56.496,0.0313,9.75
13:15:56.498,-0.4688,9.875
13:15:56.546,-1,9.75
13:15:56.546,-1,9.875
13:15:56.546,-1.1563,8.9375
13:15:56.547,-1.4688,8.6875
13:15:56.549,-1.6875,7.75
13:15:56.554,-2.125,8.5
13:15:56.557,-1.5938,7.6875
13:15:56.557,-1.875,6.9375
13:15:56.563,-2.25,7.8125
13:15:56.572,-2.125,6.75
13:15:56.582,-2.8438,5.625
13:15:56.593,-2.5938,5.75
13:15:56.602,-2.9063,4.5
13:15:56.613,-3.125,4.25
13:15:56.623,-4.2813,3.625
13:15:56.632,-4.0313,2.3125
13:15:56.642,-4.5938,1.3125
13:15:56.652,-5.7188,0.0625
13:15:56.662,-5.5938,-0.375
13:15:56.672,-5.1875,-0.4375
13:15:56.684,-5.125,-0.625
13:15:56.693,-4.5938,-1.5
13:15:56.702,-5.1563,-1.8125
13:15:56.715,-5.9375,-2.9375
13:15:56.729,-6.4375,-3.375
13:15:56.733,-6.25,-3.875
13:15:56.743,-7.625,-5.125
13:15:56.752,-7.3438,-5.5625
13:15:56.762,-8.4375,-7.1875
13:15:56.775,-8.8438,-7.0625
13:15:56.784,-9.0313,-8.3125
13:15:56.792,-9.375,-9.125
13:15:56.804,-8.7813,-8.8125
13:15:56.813,-9.2813,-10.9375
13:15:56.822,-8.9375,-10.5625
13:15:56.835,-9.9063,-11.9375
13:15:56.842,-9.9375,-12.25
13:15:56.852,-10.4063,-14.5626
13:15:56.863,-11.9688,-15.1251
13:15:56.872,-12.4063,-16.3126
13:15:56.882,-12.5938,-16.8126
13:15:56.894,-13.1563,-18.4376
13:15:56.904,-13.0938,-18.8751
13:15:56.912,-13.6876,-19.9376
13:15:56.923,-13.7501,-20.1251
13:15:56.935,-13.9376,-21.5626
13:15:56.943,-13.9688,-21.1251
13:15:56.952,-14.5938,-21.9376
13:15:56.964,-14.8438,-22.4376
13:15:56.972,-14.6251,-23.7501
13:15:56.983,-14.7813,-23.3126
13:15:56.993,-15.0001,-25.0001
13:15:57.002,-15.7501,-26.4376
13:15:57.012,-16.2188,-27.1876
13:15:57.022,-15.8751,-26.6876
13:15:57.036,-15.1251,-25.8751
13:15:57.042,-14.2188,-23.5001
13:15:57.052,-12.375,-21.4376
13:15:57.064,-11.1563,-17.1876
13:15:57.095,-9.1875,-14.0626
13:15:57.097,-7.4375,-9.375
13:15:57.099,-6.1563,-6.6875
13:15:57.127,-4.2188,-3.125
13:15:57.127,-2.6563,0.1875
13:15:57.131,-1,4.1875
13:15:57.136,0.8438,6.5625
13:15:57.164,2.2188,9.5
13:15:57.167,3.3125,11.8125
13:15:57.168,4.0938,13.4376
13:15:57.196,4.4375,15.0626
13:15:57.200,5.3438,16.8751
13:15:57.200,6.0938,18.1251
13:15:57.203,6.5313,19.6251
13:15:57.212,6.875,20.7501
13:15:57.252,6.3438,21.4376
13:15:57.252,6.9063,20.8126
13:15:57.254,6.0938,20.6876
13:15:57.258,6.1563,19.7501
13:15:57.263,5.5,18.6251
13:15:57.277,5.3125,18.8751
13:15:57.282,4.7188,18.1876
13:15:57.293,4.25,17.3126
13:15:57.303,4.5625,16.8126
13:15:57.313,4.125,16.8126
13:15:57.323,4.2188,16.1251
13:15:57.332,4.0313,17.6876
13:15:57.342,4.25,16.8751
13:15:57.354,4.125,16.5001
13:15:57.363,3.1875,16.5626
13:15:57.372,3.9688,16.3126
13:15:57.383,3.1563,15.5626
13:15:57.392,2.25,15.2501
13:15:57.402,2.1563,15.1251
13:15:57.413,2.3438,14.8751
13:15:57.422,2.3438,15.0001
13:15:57.436,1.875,14.1251
13:15:57.443,1.4375,14.1876
13:15:57.452,1.0313,13.8126
13:15:57.464,1.2188,12.75
13:15:57.473,0.5938,11.625
13:15:57.483,0.0625,11.5625
13:15:57.493,0.125,10.625
13:15:57.502,-0.4688,10.25
13:15:57.514,-0.9063,9.875
13:15:57.524,-0.375,8.9375
13:15:57.534,-0.9688,7.5625
13:15:57.542,-1.9375,7.625
13:15:57.554,-2.625,6.0625
13:15:57.564,-3.4688,5.25
13:15:57.572,-3.4688,5.25
13:15:57.582,-3.8125,3.5
13:15:57.618,-4.3438,2.25
13:15:57.620,-4.5313,2.3125
13:15:57.635,-4.0938,1.3125
13:15:57.639,-4.8125,0.9375
13:15:57.651,-5.1563,1.5
13:15:57.655,-5.5313,-0.6875
13:15:57.669,-5.6875,-1.375
13:15:57.671,-6.3438,-1.625
13:15:57.677,-6.5,-2.1875
13:15:57.684,-6.5313,-3.625
13:15:57.693,-7.0313,-3.3125
13:15:57.703,-6.7813,-4.9375
13:15:57.716,-7.9688,-4.6875
13:15:57.724,-8.5313,-6
13:15:57.734,-8.8125,-7.875
13:15:57.745,-9.4688,-8.0625
13:15:57.752,-9.0625,-9.0625
13:15:57.763,-9.2188,-9.9375
13:15:57.780,-9.875,-9.5625
13:15:57.782,-9.7188,-11
13:15:57.797,-10.2188,-11.625
13:15:57.812,-11.0625,-13.5001
13:15:57.813,-12.0625,-13.9376
13:15:57.828,-12.8125,-15.8126
13:15:57.835,-13.4688,-17.0001
13:15:57.842,-13.0938,-16.6876
13:15:57.853,-12.6875,-17.5626
13:15:57.863,-12.2188,-16.5626
13:15:57.873,-12.125,-17.6251
13:15:57.891,-11.4063,-17.2501
13:15:57.895,-12.0625,-18.7501
13:15:57.911,-11.5,-18.4376
13:15:57.914,-11.875,-19.6251
13:15:57.946,-12.1563,-20.3126
13:15:57.947,-12.4688,-20.8126
13:15:57.950,-12.9063,-21.5626
13:15:57.988,-12.6563,-22.9376
13:15:57.989,-13.9063,-23.1876
13:15:57.991,-12.7188,-23.0001
13:15:57.997,-12.1875,-21.6251
13:15:57.998,-10.625,-19.6251
13:15:58.003,-8.875,-16.4376
13:15:58.031,-6.9688,-13.6876
13:15:58.033,-4.4375,-9.0625
13:15:58.036,-2.8125,-4.6875
13:15:58.068,-0.4688,-1.8125
13:15:58.070,0.2188,3.25
13:15:58.074,2.0313,5.5
13:15:58.075,2.7188,9.625
13:15:58.084,4.25,11.5
13:15:58.096,5.1875,14.0001
13:15:58.103,6.5938,16.6876
13:15:58.114,7,18.3751
13:15:58.126,7.75,20.3751
13:15:58.132,8.5625,21.8751
13:15:58.142,9.4063,23.5626
13:15:58.154,9.6563,24.6251
13:15:58.163,9.6563,25.7501
13:15:58.172,10.5,26.5626
13:15:58.183,10.125,26.8126
13:15:58.194,10.2188,27.0001
13:15:58.202,9.3438,27.2501
13:15:58.215,9,26.8751
13:15:58.223,8.1563,24.7501
13:15:58.232,7.4063,23.0001
13:15:58.245,6.75,22.8126
13:15:58.254,6.3125,20.7501
13:15:58.263,4.9688,19.4376
13:15:58.272,3.5938,18.3751
13:15:58.282,3.8438,19.0626
13:15:58.294,3.5313,18.5001
13:15:58.304,3.6563,18.0626
13:15:58.313,3.375,17.7501
13:15:58.325,3.125,19.3751
13:15:58.333,3.9688,18.6251
13:15:58.344,2.4375,17.8751
13:15:58.354,2.1875,18.3126
13:15:58.364,2.1875,17.2501
13:15:58.373,1.7813,17.0001
13:15:58.382,1.9063,16.9376
13:15:58.397,1.9063,16.3751
13:15:58.403,1.9063,15.8126
13:15:58.413,1.2188,15.2501
13:15:58.423,1.1875,14.8126
13:15:58.435,0.6875,13.7501
13:15:58.443,-0.1875,12.75
13:15:58.453,-1.0313,11.5625
13:15:58.464,-0.4375,12.125
13:15:58.473,-0.625,10.875
13:15:58.483,-0.9063,11
13:15:58.495,-1.7188,10.625
13:15:58.503,-1.5,9.1875
13:15:58.514,-2,7.875
13:15:58.536,-2.5938,7.25
13:15:58.540,-3.4063,7.125
13:15:58.543,-3.4375,5.5
13:15:58.576,-4.25,4.375
13:15:58.579,-4.25,4.6875
13:15:58.581,-4.5625,4.25
13:15:58.583,-4.125,3.0625
13:15:58.620,-4.2813,1.875
13:15:58.622,-4.4688,2.125
13:15:58.626,-3.875,2.5625
13:15:58.630,-4.0625,1.5625
13:15:58.634,-4.0313,1.1875
13:15:58.666,-4.8125,0.3125
13:15:58.668,-4.7813,-0.5625
13:15:58.671,-6.0313,-1.8125
13:15:58.673,-6.4688,-2.75
13:15:58.705,-7.1875,-4.125
13:15:58.707,-7.375,-4.6875
13:15:58.710,-7.3438,-6.0625
13:15:58.714,-8.2813,-6.1875
13:15:58.724,-8.75,-7.4375
13:15:58.734,-9.0313,-9.3125
13:15:58.743,-9.4688,-9.5
13:15:58.754,-9.9688,-11.125
13:15:58.764,-10.4375,-12.0625
13:15:58.775,-10.625,-12.125
13:15:58.783,-11.875,-14.1251
13:15:58.795,-11.9688,-15.1251
13:15:58.803,-12.2188,-16.0001
13:15:58.817,-12.8125,-15.5626
13:15:58.825,-12.7188,-17.1876
13:15:58.833,-12.2188,-16.6251
13:15:58.843,-11.1875,-16.8751
13:15:58.854,-11.1563,-16.6876
13:15:58.863,-11.4688,-17.1876
13:15:58.896,-13.2501,-19.6876
13:15:58.898,-15.0313,-21.6876
13:15:58.901,-16.6876,-24.7501
13:15:58.903,-15.8751,-23.5001
13:15:58.913,-12.6875,-21.3751
13:15:58.923,-7.5313,-15.5626
13:15:58.934,-0.5313,-7.5625
13:15:58.953,6.5,0.25
13:15:58.954,7.7813,3.375
13:15:58.971,8.0313,4.9375
13:15:58.985,10.5625,8.375
13:15:59.000,13.4063,13.8751
13:15:59.004,16.5313,18.5001
13:15:59.005,19.3438,24.1876
13:15:59.014,22.6251,29.0001
13:15:59.023,25.0001,33.6251
13:15:59.037,27.0626,39.0626
13:15:59.043,29.6876,41.8752
13:15:59.053,32.0626,46.6252
13:15:59.064,34.4376,50.0627
13:15:59.073,35.9376,53.9377
13:15:59.083,37.1251,57.2502
13:15:59.100,37.7189,59.1877
13:15:59.106,38.1876,62.7502
13:15:59.114,39.9689,67.1878
13:15:59.130,43.0002,72.4378
13:15:59.133,44.7189,76.7503
13:15:59.149,50.6564,84.2503
13:15:59.153,57.6877,97.3754
13:15:59.163,65.5315,107.3129
13:15:59.174,74.344,119.0005
13:15:59.183,86.4378,134.6255
13:15:59.194,98.1566,150.3756
13:15:59.205,111.1254,166.3756
13:15:59.213,120.4067,177.7507
13:15:59.223,132.688,192.6882
13:15:59.234,142.438,204.1883
13:15:59.243,147.0006,210.6883
13:15:59.254,150.5631,215.0633
13:15:59.264,154.4068,219.9383
13:15:59.273,156.7818,224.1259
13:15:59.285,160.3444,228.4384
13:15:59.293,164.2819,233.6259
13:15:59.304,166.6256,237.1884
13:15:59.335,168.8131,239.6259
13:15:59.337,170.2819,240.9384
13:15:59.340,172.4069,243.0634
13:15:59.345,172.4382,243.6884
13:15:59.381,171.5944,243.8134
13:15:59.383,172.6257,243.4384
13:15:59.387,170.5632,242.0634
13:15:59.412,170.8132,241.6259
13:15:59.413,170.1569,240.5009
13:15:59.417,170.7819,240.4384
13:15:59.418,169.9381,239.7509
13:15:59.423,169.8131,239.2509
13:15:59.464,168.0006,236.7509
13:15:59.467,166.4069,234.0009
13:15:59.469,165.2194,232.5009
13:15:59.471,163.3131,229.5634
13:15:59.474,161.9694,227.3134
13:15:59.495,160.7506,224.1884
13:15:59.497,159.7194,221.6259
13:15:59.504,156.9381,218.1258
13:15:59.514,150.0943,210.0633
13:15:59.525,143.8443,201.3133
13:15:59.534,135.563,190.7507
13:15:59.544,116.2192,171.5007
13:15:59.554,89.0941,142.063
13:15:59.570,65.594,112.5629
13:15:59.573,49.3752,91.9379
13:15:59.585,36.9689,75.6253
13:15:59.594,20.3438,57.0002
13:15:59.604,2.6875,33.1251
13:15:59.614,-7.8438,18.0626
13:15:59.623,-10.75,10.5625
13:15:59.634,-7.6875,12
13:15:59.643,-6.4063,11
13:15:59.654,-11.4375,5.75
13:15:59.664,-21.2813,-6.3125
13:15:59.674,-33.3751,-22.0626
13:15:59.683,-43.7502,-35.3751
13:15:59.693,-52.4377,-47.7502
13:15:59.704,-58.094,-56.0002
13:15:59.713,-62.594,-62.6877
13:15:59.724,-62.2502,-65.1252
13:15:59.733,-47.3752,-52.8127
13:15:59.743,-25.0313,-25.7501
13:15:59.754,6.9063,12.375
13:15:59.764,54.4377,68.5628
13:15:59.774,104.3441,129.5005
13:15:59.784,118.438,152.1256
13:15:59.794,113.2504,144.6255
13:15:59.805,125.2817,158.4381
13:15:59.813,129.813,166.0631
13:15:59.823,123.938,159.8131
13:15:59.835,119.1255,154.3756
13:15:59.844,120.2505,153.7506
13:15:59.853,119.2505,153.8756
13:15:59.866,116.8129,150.3756
13:15:59.874,117.5317,149.0631
13:15:59.883,119.813,152.1881
13:15:59.893,122.938,154.3756
13:15:59.904,124.5942,155.9381
13:15:59.914,123.3442,156.1256
13:15:59.924,123.0942,156.2506
13:15:59.934,122.0317,155.6256
13:15:59.949,122.5942,156.3756
13:15:59.953,123.5317,159.8756
13:15:59.964,128.1255,165.3131
13:15:59.976,131.6568,169.5631
13:15:59.983,126.0317,166.3756
13:15:59.994,113.0942,153.0631
13:16:00.006,96.3129,135.188
13:16:00.013,74.844,112.6879
13:16:00.024,54.094,91.3129
13:16:00.034,18.2813,52.0002
13:16:00.043,-16.1563,10.125
13:16:00.054,-44.0627,-25.0626
13:16:00.065,-63.1565,-52.8752
13:16:00.074,-72.094,-66.2503
13:16:00.092,-76.1878,-73.0628
13:16:00.094,-78.1878,-77.0003
13:16:00.128,-78.469,-78.0628
13:16:00.131,-76.0628,-75.9378
13:16:00.133,-72.719,-72.7503
13:16:00.136,-72.9378,-74.5628
13:16:00.178,-69.7815,-72.0003
13:16:00.181,-57.9377,-59.3127
13:16:00.183,-33.0314,-30.2501
13:16:00.209,-1.3125,10.125
13:16:00.209,24.2813,43.8127
13:16:00.210,41.4689,67.1878
13:16:00.213,50.3127,80.0628
13:16:00.218,57.719,90.2503
13:16:00.250,67.9378,102.9379
13:16:00.252,76.844,114.8754
13:16:00.255,82.1566,122.313
13:16:00.271,86.7191,126.563
13:16:00.275,91.0941,134.188
13:16:00.291,96.4379,138.313
13:16:00.306,99.4379,143.6255
13:16:00.307,101.6254,145.313
13:16:00.326,101.9379,145.0005
13:16:00.328,99.6566,142.7505
13:16:00.331,97.6879,139.438
13:16:00.339,94.8441,136.188
13:16:00.348,91.8129,132.188
13:16:00.359,89.6878,127.938
13:16:00.369,86.6253,124.1255
13:16:00.378,84.3753,119.2505
13:16:00.388,83.5941,118.1255
13:16:00.401,84.4691,117.438
13:16:00.418,83.2816,115.4379
13:16:00.422,82.1566,114.5004
13:16:00.438,80.0003,111.0004
13:16:00.439,74.4378,103.4379
13:16:00.450,62.3127,89.8128
13:16:00.459,48.8752,72.8128
13:16:00.469,31.4376,53.1252
13:16:00.479,8.9375,27.9376
13:16:00.488,-16.2188,-1.8125
13:16:00.499,-41.4377,-34.0001
13:16:00.509,-66.1253,-64.1877
13:16:00.519,-87.7191,-95.3129
13:16:00.531,-105.5316,-119.7505
13:16:00.538,-119.2817,-140.063
13:16:00.548,-129.1255,-154.6256
13:16:00.559,-132.3443,-161.5631
13:16:00.569,-135.563,-167.4381
13:16:00.579,-139.6568,-173.0632
13:16:00.589,-144.4693,-180.6257
13:16:00.598,-145.1568,-184.4382
13:16:00.609,-143.938,-183.2507
13:16:00.619,-142.813,-184.2507
13:16:00.629,-141.1255,-182.6257
13:16:00.639,-136.063,-179.1882
13:16:00.648,-124.2505,-165.6881
13:16:00.659,-107.0629,-145.438
13:16:00.668,-87.0316,-117.188
13:16:00.679,-68.8128,-93.7504
13:16:00.689,-50.5314,-70.0628
13:16:00.703,-37.6251,-51.6877
13:16:00.711,-23.4063,-33.6876
13:16:00.718,-2.0938,-9.1875
13:16:00.729,14.8126,10.625
13:16:00.739,24.5938,25.3126
13:16:00.748,32.0314,33.2501
13:16:00.760,40.6564,44.1252
13:16:00.769,48.3752,53.3127
13:16:00.778,56.4377,61.8127
13:16:00.789,60.5002,68.4378
13:16:00.799,63.6565,72.1253
13:16:00.816,66.1878,74.6253
13:16:00.818,66.9378,76.3753
13:16:00.849,66.969,77.8128
13:16:00.851,69.1878,79.9378
13:16:00.854,70.719,83.6253
13:16:00.860,72.4065,86.8128
13:16:00.897,75.0003,90.2504
13:16:00.901,75.0003,92.4379
13:16:00.903,75.344,92.9379
13:16:00.905,76.2503,94.7504
13:16:00.910,76.0628,95.6879
13:16:00.942,74.469,94.7504
13:16:00.945,68.5628,89.6878
13:16:00.947,59.5315,79.9378
13:16:00.950,50.9689,70.3128
13:16:00.980,40.4064,59.9377
13:16:00.982,32.0001,48.6877
13:16:00.985,18.5626,35.8126
13:16:00.991,-0.5,14.1876
13:16:00.999,-25.7813,-15.6251
13:16:01.008,-53.3127,-50.1252
13:16:01.021,-80.0941,-84.5628
13:16:01.030,-103.5316,-117.0629
13:16:01.039,-121.313,-143.813
13:16:01.049,-133.563,-161.7506
13:16:01.059,-140.2818,-173.1882
13:16:01.071,-138.9068,-176.1882
13:16:01.082,-135.2505,-173.2507
13:16:01.088,-131.7193,-171.4382
13:16:01.099,-129.0942,-168.9381
13:16:01.109,-126.9067,-167.9381
13:16:01.122,-122.6255,-165.1256
13:16:01.128,-116.1567,-159.0631
13:16:01.139,-105.7191,-148.5006
13:16:01.148,-91.8441,-132.2505
13:16:01.158,-75.0315,-112.5004
13:16:01.171,-57.4377,-88.6253
13:16:01.178,-39.5002,-64.1877
13:16:01.188,-24.0313,-41.4377
13:16:01.198,-11.9063,-21.8126
13:16:01.208,0.75,-4.625
13:16:01.221,12.0938,10.75
13:16:01.228,22.6251,26.6251
13:16:01.238,34.9064,41.0002
13:16:01.248,42.7502,52.0627
13:16:01.258,48.2502,60.0627
13:16:01.270,53.4377,66.5628
13:16:01.278,56.969,71.8128
13:16:01.288,58.844,74.4378
13:16:01.299,60.0002,75.6253
13:16:01.309,62.6252,78.3128
13:16:01.320,63.344,80.3128
13:16:01.328,65.5315,82.0628
13:16:01.338,66.469,84.1253
13:16:01.349,66.844,83.2503
13:16:01.359,66.844,83.0628
13:16:01.369,68.3753,83.7503
13:16:01.378,68.594,84.6878
13:16:01.388,69.2503,84.7503
13:16:01.399,67.2815,82.1878
13:16:01.408,63.969,79.3128
13:16:01.419,61.3752,74.6253
13:16:01.429,58.594,70.5003
13:16:01.456,54.3752,65.5628
13:16:01.459,47.5939,57.3752
13:16:01.464,35.7189,44.3752
13:16:01.468,23.4376,28.1251
13:16:01.483,9.5938,11.625
