timestamp,Red,IR
11:51:11.516,4.0625,12.0625
11:51:11.525,3.4375,11.8125
11:51:11.534,3.125,12.3125
11:51:11.547,3.9375,13.1876
11:51:11.555,3.125,12.1875
11:51:11.564,2.9375,13.6251
11:51:11.575,3.4375,13.3751
11:51:11.585,3.5,12.1875
11:51:11.596,3.3125,11.6875
11:51:11.605,2.8125,11.75
11:51:11.615,2.9375,10.3125
11:51:11.624,1.9375,9.0625
11:51:11.636,1.5,7.9375
11:51:11.646,1.5,7.5
11:51:11.655,0.5,6.9375
11:51:11.665,1.125,6.0625
11:51:11.675,0.6875,5.625
11:51:11.684,1.375,5.8125
11:51:11.696,0.8125,4.75
11:51:11.705,0.1875,4.75
11:51:11.715,0.0625,5.0625
11:51:11.726,0.625,3.625
11:51:11.737,-0.6875,2.875
11:51:11.745,-0.75,4
11:51:11.754,-0.8125,2.3125
11:51:11.768,-0.8125,1.25
11:51:11.776,-1.0625,1.8125
11:51:11.786,-1.4375,0.625
11:51:11.795,-1.5,0.375
11:51:11.805,-0.5,0.5
11:51:11.816,-0.9375,-0.5625
11:51:11.825,-1.625,-1.875
11:51:11.836,-1.5,-1.1875
11:51:11.846,-1.9375,-2.3125
11:51:11.855,-2.125,-3.75
11:51:11.867,-2.8125,-3.375
11:51:11.877,-3.875,-5.3125
11:51:11.919,-4.8125,-6.875
11:51:11.921,-5.0625,-8.0625
11:51:11.963,-3.6875,-8.3125
11:51:11.963,-4,-9
11:51:11.963,-4.5,-9.6875
11:51:12.005,-3.875,-9.0625
11:51:12.007,-3.9375,-10.8125
11:51:12.010,-3.375,-9.6875
11:51:12.010,-3.5,-11.0625
11:51:12.010,-3.625,-11.125
11:51:12.039,-4.375,-12.375
11:51:12.042,-4,-12.1875
11:51:12.044,-4.625,-13.8126
11:51:12.047,-4.6875,-13.125
11:51:12.079,-4.9375,-14.3126
11:51:12.082,-5.75,-15.5626
11:51:12.089,-5.8125,-16.0001
11:51:12.090,-6.25,-16.3126
11:51:12.097,-6.5,-18.1876
11:51:12.105,-7.1875,-19.0001
11:51:12.116,-7.9375,-19.7501
11:51:12.127,-7.4375,-20.3126
11:51:12.139,-7.0625,-19.8126
11:51:12.145,-5.6875,-19.8751
11:51:12.154,-5.5,-20.1251
11:51:12.165,-5.6875,-21.0626
11:51:12.193,-8.125,-24.4376
11:51:12.195,-9.25,-25.8751
11:51:12.199,-8.8125,-25.7501
11:51:12.205,-8.875,-26.5626
11:51:12.215,-9.5,-27.6876
11:51:12.226,-10.75,-29.4376
11:51:12.237,-10.875,-29.0001
11:51:12.246,-10.8125,-30.4376
11:51:12.255,-11.9375,-31.0626
11:51:12.266,-11.625,-31.7501
11:51:12.276,-11.3125,-32.0626
11:51:12.286,-11.75,-31.4376
11:51:12.295,-9.8125,-29.9376
11:51:12.306,-7.9375,-27.2501
11:51:12.315,-5.5625,-21.9376
11:51:12.326,-3.6875,-16.3126
11:51:12.336,-0.25,-10.875
11:51:12.345,1.9375,-4.9375
11:51:12.356,4.25,0.4375
11:51:12.365,5.625,3.125
11:51:12.376,5.875,6.3125
11:51:12.386,6.75,6.9375
11:51:12.396,6.5625,8.5
11:51:12.406,6.625,8.5
11:51:12.415,6.25,9.6875
11:51:12.426,6.625,9.75
11:51:12.435,6.5625,10.6875
11:51:12.445,7.0625,10.375
11:51:12.455,7.75,11.8125
11:51:12.465,8.875,12.5625
11:51:12.478,9.875,13.8751
11:51:12.485,9.75,14.1876
11:51:12.495,11.0625,14.6251
11:51:12.506,10.4375,14.4376
11:51:12.516,10.75,16.0626
11:51:12.526,10.375,14.5626
11:51:12.536,10.0625,13.1876
11:51:12.546,9.125,12.5
11:51:12.555,8.6875,10.625
11:51:12.566,6.9375,8.875
11:51:12.575,6,8.3125
11:51:12.586,5.8125,6.6875
11:51:12.596,5.25,5.25
11:51:12.606,5.5625,4.75
11:51:12.615,6.5625,5.625
11:51:12.626,6.375,5.5625
11:51:12.635,7.0625,7.375
11:51:12.646,8.625,7
11:51:12.656,8.625,6.75
11:51:12.679,8.875,6.875
11:51:12.681,9.3125,7.25
11:51:12.686,10.0625,7.0625
11:51:12.721,8.625,4.75
11:51:12.727,8.375,5.6875
11:51:12.731,8.75,4
11:51:12.731,7,2.8125
11:51:12.759,5.6875,2.3125
11:51:12.763,5.5625,1.3125
11:51:12.765,4.25,-0.4375
11:51:12.772,3.75,-2.3125
11:51:12.775,3.5625,-2.1875
11:51:12.809,4.25,-1.875
11:51:12.812,4.875,-2.5625
11:51:12.820,4.4375,-2.4375
11:51:12.821,5.5625,-2.5
11:51:12.846,5.3125,-3.3125
11:51:12.852,5.375,-4.375
11:51:12.855,5.5,-3.9375
11:51:12.857,4.5625,-4.125
11:51:12.867,5,-6.25
11:51:12.876,3.375,-8.375
11:51:12.889,3.0625,-8.25
11:51:12.896,2.4375,-9.625
11:51:12.905,0.5,-11.1875
11:51:12.916,-0.0625,-11.125
11:51:12.926,-0.3125,-13
11:51:12.936,-0.875,-14.3751
11:51:12.945,-0.75,-14.2501
11:51:12.955,-0.8125,-15.1876
11:51:12.965,-0.25,-15.5001
11:51:12.975,0.4375,-14.8751
11:51:12.985,0.875,-14.1251
11:51:12.996,1.9375,-14.3751
11:51:13.005,1.375,-15.5626
11:51:13.016,0.75,-15.6876
11:51:13.025,-0.1875,-16.5001
11:51:13.036,-2.375,-19.5001
11:51:13.046,-3.1875,-20.3751
11:51:13.056,-4.3125,-22.0001
11:51:13.066,-4.9375,-22.4376
11:51:13.076,-5.625,-23.6251
11:51:13.085,-5.6875,-24.3751
11:51:13.096,-5.625,-25.1251
11:51:13.107,-6.125,-25.5001
11:51:13.115,-5.875,-25.5626
11:51:13.125,-6,-25.5626
11:51:13.136,-5.625,-26.7501
11:51:13.146,-5.0625,-25.5001
11:51:13.158,-4.125,-26.0001
11:51:13.167,-5.125,-26.8126
11:51:13.175,-6.0625,-26.7501
11:51:13.197,-6.25,-28.6251
11:51:13.200,-7.625,-28.8126
11:51:13.208,-7.875,-30.2501
11:51:13.216,-8.0625,-28.8751
11:51:13.233,-7.1875,-27.6876
11:51:13.247,-6.25,-24.0626
11:51:13.250,-3.6875,-19.6876
11:51:13.280,-1.875,-13.3126
11:51:13.282,0.8125,-9
11:51:13.297,2.9375,-4.1875
11:51:13.313,4.9375,0.0625
11:51:13.313,6.6875,2.125
11:51:13.316,7.3125,5.375
11:51:13.320,8.5625,5.4375
11:51:13.325,8.3125,7.875
11:51:13.336,8.1875,6.875
11:51:13.345,7.875,7.4375
11:51:13.356,7.75,7.125
11:51:13.366,6.75,6.4375
11:51:13.387,6.8125,5.6875
11:51:13.391,5.75,5.875
11:51:13.415,5.625,4.6875
11:51:13.418,4.9375,5.25
11:51:13.425,4.75,5.25
11:51:13.427,5.125,4.6875
11:51:13.462,5.4375,4.625
11:51:13.465,5,3.875
11:51:13.467,4.1875,3.375
11:51:13.481,5.4375,2.5
11:51:13.483,5.9375,2.1875
11:51:13.486,4.9375,1.4375
11:51:13.514,5.0625,0.6875
11:51:13.517,3.6875,-0.75
11:51:13.520,2.8125,-0.625
11:51:13.526,2.0625,-2.375
11:51:13.561,0.9375,-4
11:51:13.563,0.6875,-3.5
11:51:13.566,1.1875,-3.4375
11:51:13.569,1.75,-3.875
11:51:13.576,2,-4.0625
11:51:13.586,2.0625,-3.375
11:51:13.596,1.9375,-2.4375
11:51:13.606,2,-3.5
11:51:13.615,2.125,-4.375
11:51:13.626,2,-4.9375
11:51:13.641,0.9375,-4.625
11:51:13.647,0.5625,-7.125
11:51:13.656,-0.75,-7.875
11:51:13.665,-1.4375,-9.125
11:51:13.676,-2.0625,-10.8125
11:51:13.685,-3.625,-12
11:51:13.696,-4.25,-12
11:51:13.706,-4.5,-13.1876
11:51:13.716,-4.4375,-14.6251
11:51:13.726,-4.5,-14.3751
11:51:13.736,-4.375,-15.3126
11:51:13.746,-4.75,-15.3126
11:51:13.755,-4.1875,-15.0626
11:51:13.766,-4.1875,-15.8126
11:51:13.776,-5.625,-17.5626
11:51:13.785,-6.1875,-17.8126
11:51:13.796,-6.5625,-19.6251
11:51:13.806,-7.375,-20.0626
11:51:13.816,-7.125,-20.7501
11:51:13.825,-7,-20.5001
11:51:13.835,-7.6875,-22.0626
11:51:13.845,-7.9375,-22.4376
11:51:13.856,-8.625,-23.4376
11:51:13.865,-8.5,-23.3126
11:51:13.876,-9.375,-24.3126
11:51:13.886,-9.6875,-24.4376
11:51:13.896,-9.875,-25.5001
11:51:13.905,-9.625,-24.7501
11:51:13.915,-9.875,-26.1251
11:51:13.926,-9.6875,-25.7501
11:51:13.936,-9.375,-26.5626
11:51:13.946,-9.0625,-25.0626
11:51:13.956,-9,-27.3126
11:51:13.965,-9.5625,-26.7501
11:51:13.976,-9.5,-27.5626
11:51:13.986,-9.625,-27.7501
11:51:13.997,-11.125,-29.5626
11:51:14.006,-11.75,-29.3751
11:51:14.021,-11.6875,-31.3751
11:51:14.026,-11.9375,-31.5626
11:51:14.036,-11.8125,-31.0001
11:51:14.046,-11.125,-28.8751
11:51:14.056,-8.6875,-25.8751
11:51:14.066,-7,-21.3751
11:51:14.075,-3.8125,-15.8126
11:51:14.086,-2.0625,-11.25
11:51:14.097,-0.5,-7
11:51:14.129,0.625,-2.3125
11:51:14.132,2.1875,-0.3125
11:51:14.134,2.5625,2.0625
11:51:14.137,3.3125,3.4375
11:51:14.168,2.875,4.6875
11:51:14.170,3.5,5.625
11:51:14.172,2.9375,5.75
11:51:14.178,2.5625,5.875
11:51:14.204,2.5625,5.8125
11:51:14.207,1.3125,5.75
11:51:14.211,0.9375,5.375
11:51:14.245,0.75,4.5
11:51:14.247,0.0625,4.0625
11:51:14.250,-0.875,3.625
11:51:14.255,-1.1875,3.3125
11:51:14.257,-1.0625,4.5
11:51:14.272,-1.0625,3.0625
11:51:14.275,-1.4375,1.5
11:51:14.288,-2.25,1.375
11:51:14.296,-3.8125,0.25
11:51:14.306,-4.125,-1.8125
11:51:14.316,-5.0625,-3.625
11:51:14.326,-5.875,-3.875
11:51:14.337,-5.8125,-4.5625
11:51:14.345,-5.5625,-5.1875
11:51:14.356,-5.4375,-5.75
11:51:14.366,-5.5,-5
11:51:14.375,-5.5,-4.9375
11:51:14.386,-4.5,-4.5625
11:51:14.396,-4.625,-5.5
11:51:14.406,-4.75,-4.75
11:51:14.415,-4.25,-4.8125
11:51:14.426,-3.875,-5.4375
11:51:14.437,-4.5625,-4.5
11:51:14.445,-5,-5.75
11:51:14.456,-5.6875,-7.25
11:51:14.469,-5.3125,-7.75
11:51:14.482,-4.9375,-7.8125
11:51:14.486,-5.25,-7.8125
11:51:14.495,-5.25,-9.0625
11:51:14.514,-5.5625,-9.25
11:51:14.521,-5.875,-9.4375
11:51:14.530,-5.8125,-11.375
11:51:14.552,-7.1875,-10.9375
11:51:14.554,-6.75,-12.25
11:51:14.563,-6.6875,-12.875
11:51:14.572,-7,-13
11:51:14.586,-7.25,-13.3751
11:51:14.594,-7,-14.5626
11:51:14.604,-7.875,-14.3751
11:51:14.618,-8.75,-16.6251
11:51:14.635,-8.9375,-16.7501
11:51:14.637,-10,-18.0626
11:51:14.641,-10.1875,-19.8751
11:51:14.651,-10.3125,-19.0626
11:51:14.660,-10.25,-20.5001
11:51:14.673,-10.1875,-19.6251
11:51:14.681,-9.375,-21.2501
11:51:14.691,-10.4375,-21.6251
11:51:14.701,-10.8125,-21.3751
11:51:14.710,-10.3125,-22.6876
11:51:14.721,-11.375,-22.1876
11:51:14.753,-11.625,-23.3751
11:51:14.755,-12.125,-25.0001
11:51:14.757,-12.5,-25.6251
11:51:14.764,-12.8125,-25.5001
11:51:14.777,-13.8126,-26.3126
11:51:14.781,-13.0625,-26.8751
11:51:14.790,-13.8126,-27.6876
11:51:14.832,-14.8126,-27.8751
11:51:14.833,-14.5626,-28.7501
11:51:14.836,-14.7501,-28.8751
11:51:14.840,-14.3751,-29.6876
11:51:14.844,-14.3126,-28.2501
11:51:14.853,-13.5626,-29.0626
11:51:14.884,-13.0625,-29.3751
11:51:14.886,-11.4375,-26.3751
11:51:14.889,-9.4375,-24.5001
11:51:14.891,-7.5,-19.5001
11:51:14.922,-4.75,-14.3126
11:51:14.924,-3.125,-8.6875
11:51:14.926,-1.125,-4.125
11:51:14.932,0.1875,0.25
11:51:14.966,1.9375,3.3125
11:51:14.968,3.0625,6.6875
11:51:14.971,4.125,9.125
11:51:14.978,5.0625,11.25
11:51:14.981,6.3125,13.0625
11:51:14.990,6.75,14.0626
11:51:15.001,7.25,15.3751
11:51:15.010,7.875,16.6876
11:51:15.021,9,17.9376
11:51:15.032,9.625,17.8751
11:51:15.042,9.25,19.4376
11:51:15.050,10.4375,19.2501
11:51:15.062,10.25,21.3751
11:51:15.071,10.375,20.2501
11:51:15.080,10.75,20.3751
11:51:15.091,11.625,22.4376
11:51:15.101,13.0625,22.0001
11:51:15.112,11.875,21.3126
11:51:15.122,11.9375,22.0626
11:51:15.130,11.75,21.5001
11:51:15.141,11.8125,19.1251
11:51:15.151,11,18.2501
11:51:15.163,9.9375,17.5001
11:51:15.171,9.375,16.4376
11:51:15.181,9.0625,15.2501
11:51:15.192,8.3125,13.8126
11:51:15.201,8.5625,13.8126
11:51:15.212,8.5625,13.9376
11:51:15.222,8.125,14.3126
11:51:15.231,8.375,12.9375
11:51:15.241,8.4375,12.9375
11:51:15.250,9.3125,12.75
11:51:15.261,8.875,13.3751
11:51:15.271,8.875,13.0625
11:51:15.281,9.3125,12.375
11:51:15.290,9,11.9375
11:51:15.303,8.0625,11.0625
11:51:15.311,6.9375,10
11:51:15.321,6.5,8.3125
11:51:15.332,5.3125,7.9375
11:51:15.342,4.5,6
11:51:15.352,3.6875,4.75
11:51:15.361,2.8125,3.1875
11:51:15.371,2.3125,2.5
11:51:15.381,2,2.625
11:51:15.392,1.4375,2.25
11:51:15.400,1.25,0.5
11:51:15.410,0.6875,-0.75
11:51:15.420,-0.1875,-2.5
11:51:15.431,-0.375,-2.8125
11:51:15.442,-1.25,-2.8125
11:51:15.452,-1.0625,-5.1875
11:51:15.461,-1.3125,-3.875
11:51:15.470,-1.3125,-4.8125
11:51:15.482,-1.4375,-6.0625
11:51:15.491,-2.6875,-6.875
11:51:15.500,-3.125,-6.8125
11:51:15.510,-2.9375,-8
11:51:15.524,-4.1875,-8.9375
11:51:15.533,-4.625,-10.9375
11:51:15.541,-5.1875,-10.125
11:51:15.551,-4.5625,-11
11:51:15.560,-4.8125,-12.0625
11:51:15.573,-5.4375,-12.1875
11:51:15.581,-4.8125,-12.5625
11:51:15.618,-5.3125,-13
11:51:15.623,-5.375,-13.6251
11:51:15.625,-4.8125,-14.0626
11:51:15.625,-5.5,-15.0626
11:51:15.663,-5.125,-14.3126
11:51:15.664,-4.9375,-15.6251
11:51:15.668,-4.3125,-14.1876
11:51:15.668,-5.0625,-15.6876
11:51:15.674,-5.3125,-16.4376
11:51:15.691,-6.625,-18.4376
11:51:15.693,-7.75,-18.5001
11:51:15.730,-8.125,-20.5001
11:51:15.733,-9.0625,-20.8751
11:51:15.735,-10.3125,-22.5001
11:51:15.740,-10.4375,-23.1876
11:51:15.742,-10.25,-23.2501
11:51:15.770,-11,-23.3126
11:51:15.773,-10.625,-24.1251
11:51:15.776,-9.4375,-23.7501
11:51:15.781,-8.8125,-21.8751
11:51:15.790,-7.125,-19.1251
11:51:15.800,-4.875,-14.7501
11:51:15.810,-2.875,-8.9375
11:51:15.822,-1.125,-4.5625
11:51:15.837,-0.125,-0.0625
11:51:15.843,1.875,4.125
11:51:15.852,1.75,6.9375
11:51:15.860,2.75,9.5
11:51:15.876,2.8125,12.25
11:51:15.885,3.75,13.5001
11:51:15.890,4.75,14.9376
11:51:15.909,5.8125,16.2501
11:51:15.916,6.4375,18.6251
11:51:15.921,7.25,19.1251
11:51:15.941,6.875,20.3126
11:51:15.942,7.625,21.8126
11:51:15.957,8,20.8126
11:51:15.961,6.8125,22.1251
11:51:15.971,7.25,22.1876
11:51:15.980,6.8125,21.9376
11:51:15.990,7.8125,23.0001
11:51:16.001,8.4375,23.3126
11:51:16.034,8.1875,23.0626
11:51:16.036,8.3125,23.3126
11:51:16.038,8.0625,23.6876
11:51:16.044,7.5625,23.0001
11:51:16.053,7.1875,20.8126
11:51:16.062,7.25,19.8126
11:51:16.071,7,18.8751
11:51:16.081,6.6875,19.1251
11:51:16.090,6.875,18.5001
11:51:16.101,7.5625,18.0626
11:51:16.112,7.625,17.3751
11:51:16.121,7.375,16.8751
11:51:16.131,7,17.6876
11:51:16.141,6.9375,17.4376
11:51:16.150,7.3125,16.8126
11:51:16.161,6.5625,16.0626
11:51:16.171,6.9375,15.1876
11:51:16.181,6.875,16.0001
11:51:16.190,6.625,15.3126
11:51:16.203,7.3125,14.6251
11:51:16.211,6.4375,13.5626
11:51:16.221,5.9375,13.6876
11:51:16.231,6.125,13.0625
11:51:16.240,6.4375,12.0625
11:51:16.250,5.625,10.9375
11:51:16.262,5,10.75
11:51:16.276,5.125,9.4375
11:51:16.281,6.5,9.3125
11:51:16.292,6.1875,8.4375
11:51:16.326,5.6875,8.0625
11:51:16.329,5.5625,8.0625
11:51:16.331,5.75,6.875
11:51:16.333,5.125,5.875
11:51:16.362,4.1875,3.9375
11:51:16.365,2.5625,4
11:51:16.367,2.5,1.6875
11:51:16.372,2.3125,1.125
11:51:16.403,2.0625,1
11:51:16.406,2.5,0.4375
11:51:16.409,2.3125,0.9375
11:51:16.435,2.0625,0.0625
11:51:16.436,3.0625,-1
11:51:16.438,1.1875,-1.875
11:51:16.447,1,-2.9375
11:51:16.460,1,-2.875
11:51:16.463,0.9375,-4.5625
11:51:16.483,0.125,-5.3125
11:51:16.486,-0.3125,-6.625
11:51:16.492,-0.4375,-7
11:51:16.500,-0.0625,-6.5625
11:51:16.510,0.125,-7.4375
11:51:16.521,0.125,-8.0625
11:51:16.531,0.0625,-8.5
11:51:16.541,0,-8.625
11:51:16.551,0.125,-8.3125
11:51:16.563,0.0625,-7.9375
11:51:16.571,0.625,-8.8125
11:51:16.580,0,-10.5
11:51:16.590,-0.5625,-10.75
11:51:16.601,-1.3125,-10.875
11:51:16.612,-1.4375,-12.8125
11:51:16.621,-1.5,-13.6876
11:51:16.632,-1.25,-13.1876
11:51:16.640,-1.25,-14.8751
11:51:16.653,-1.75,-14.8126
11:51:16.660,-1.875,-15.8751
11:51:16.670,-1.3125,-15.3751
11:51:16.681,-2,-16.0001
11:51:16.690,-1.4375,-17.0001
11:51:16.701,-2.3125,-16.0626
11:51:16.711,-1.5625,-16.8126
11:51:16.720,-0.6875,-16.0626
11:51:16.730,0.625,-12.4375
11:51:16.742,3.8125,-8.9375
11:51:16.751,5.5625,-2.75
11:51:16.761,7.6875,1.9375
11:51:16.771,9.375,7.1875
11:51:16.780,10.875,11.5
11:51:16.791,12.5,13.4376
11:51:16.800,13.3126,16.7501
11:51:16.811,13.6876,18.9376
11:51:16.821,14.3126,19.4376
11:51:16.832,14.5001,20.8126
11:51:16.841,14.7501,20.8126
11:51:16.851,15.1251,21.8751
11:51:16.861,15.0626,22.1876
11:51:16.871,15.5001,22.6876
11:51:16.880,15.4376,22.7501
11:51:16.891,15.7501,23.4376
11:51:16.901,15.5626,23.6876
11:51:16.910,14.6876,22.8751
11:51:16.922,13.8751,23.0626
11:51:16.931,13.8126,22.8751
11:51:16.941,14.3126,21.1251
11:51:16.951,13.9376,22.5001
11:51:16.961,13.6251,21.4376
11:51:16.970,13.2501,20.3751
11:51:16.981,12.8125,18.5626
11:51:17.014,12.1875,18.0626
11:51:17.015,11.75,16.8751
11:51:17.018,10.8125,15.4376
11:51:17.024,10.1875,14.0001
11:51:17.058,9.375,14.3751
11:51:17.060,9.8125,14.1876
11:51:17.062,10.1875,13.4376
11:51:17.066,10.5625,13
11:51:17.102,10.125,13.6876
11:51:17.103,11.25,14.2501
11:51:17.106,11.3125,12.875
11:51:17.109,10.625,12.4375
11:51:17.114,9.9375,12.6875
11:51:17.120,10.25,11.9375
11:51:17.154,9.125,10.625
11:51:17.177,8.125,10.625
11:51:17.192,8.3125,9.4375
11:51:17.207,8.5625,8.75
11:51:17.222,8.75,8.5
11:51:17.225,8.75,8
11:51:17.225,8.1875,7.5
11:51:17.225,9.5625,7.8125
11:51:17.239,8.1875,5.75
11:51:17.254,7.25,4.1875
11:51:17.257,6.25,4.0625
11:51:17.272,5.5,3.25
11:51:17.287,5.75,2.3125
11:51:17.289,5.5625,1.4375
11:51:17.312,5.25,0.125
11:51:17.317,4.5625,-1.25
11:51:17.318,4,-1.0625
11:51:17.321,4.0625,-1.8125
11:51:17.327,4.5,-1.6875
11:51:17.337,4.625,-3.6875
11:51:17.346,3.6875,-3.8125
11:51:17.356,3,-4.6875
11:51:17.366,1.875,-6.125
11:51:17.376,1.8125,-8.75
11:51:17.385,0.9375,-8.875
11:51:17.396,0.5625,-9.8125
11:51:17.406,-1.125,-10.8125
11:51:17.416,-1.8125,-11.25
11:51:17.426,-2.8125,-12.625
11:51:17.436,-1.9375,-13.3126
11:51:17.446,-2.875,-14.3751
11:51:17.456,-3.75,-15.8751
11:51:17.465,-3.75,-16.5626
11:51:17.476,-4.0625,-17.8751
11:51:17.485,-4.3125,-16.3751
11:51:17.495,-4.375,-18.7501
11:51:17.506,-5.1875,-20.0626
11:51:17.516,-5.75,-18.9376
11:51:17.525,-6.375,-20.0001
11:51:17.535,-6.125,-21.2501
11:51:17.552,-5.8125,-20.3751
11:51:17.557,-4.875,-20.0001
11:51:17.566,-3.25,-16.6251
11:51:17.576,-1.375,-13.5626
11:51:17.585,0.5,-8.9375
11:51:17.596,2.125,-3.3125
11:51:17.606,2.9375,0.1875
11:51:17.616,5.125,4.5
11:51:17.625,5.4375,7.1875
11:51:17.636,6.1875,9.25
11:51:17.645,6.25,11.0625
11:51:17.656,7.375,13.5626
11:51:17.666,8.375,14.0626
11:51:17.677,8.5625,15.8126
11:51:17.685,8.9375,15.8126
11:51:17.695,8.25,16.7501
11:51:17.713,8.9375,16.1876
11:51:17.716,8.6875,17.6876
11:51:17.755,7.625,17.0001
11:51:17.758,7.75,16.5001
11:51:17.760,7.375,16.9376
11:51:17.763,6.625,16.5626
11:51:17.769,6.125,15.1876
11:51:17.798,5,16.3126
11:51:17.799,4.8125,14.5626
11:51:17.802,3.6875,13.1876
11:51:17.808,3.1875,12.6875
11:51:17.836,3.3125,11.1875
11:51:17.838,1.5625,9.5
11:51:17.839,0.8125,9.3125
11:51:17.881,0.5,7.125
11:51:17.881,-0.1875,5.8125
11:51:17.881,-0.6875,5.6875
11:51:17.883,-1.3125,5.875
11:51:17.890,-0.4375,4.875
11:51:17.896,-0.8125,6.375
11:51:17.906,-0.625,5.1875
11:51:17.915,-0.875,3.6875
11:51:17.927,-1.625,3.1875
11:51:17.936,-2.0625,3.1875
11:51:17.946,-1.75,3.25
11:51:17.956,-1.875,1.75
11:51:17.966,-2.5625,0.875
11:51:17.977,-2.5,2.0625
11:51:17.985,-1.8125,0.875
11:51:17.996,-1.875,0.6875
11:51:18.007,-0.75,-0.1875
11:51:18.016,-1.25,0.25
11:51:18.025,-0.8125,0.1875
11:51:18.035,-0.75,-0.5625
11:51:18.048,-1,-1.625
11:51:18.057,-1.5,-2.625
11:51:18.066,-1.375,-4
11:51:18.076,-1.9375,-2.8125
11:51:18.087,-1.875,-4.8125
11:51:18.096,-1.5,-5.0625
11:51:18.106,-2.25,-5.25
11:51:18.115,-1.6875,-6.0625
11:51:18.127,-2.1875,-6.625
11:51:18.136,-1.75,-7.1875
11:51:18.146,-2.625,-8.4375
11:51:18.157,-3.5625,-8.75
11:51:18.165,-3.9375,-9.75
11:51:18.177,-4.25,-9.25
11:51:18.186,-4.125,-11.875
11:51:18.196,-5.25,-10.875
11:51:18.206,-5,-13.2501
11:51:18.217,-5.0625,-12.875
11:51:18.226,-6.625,-14.5001
11:51:18.237,-7,-15.5626
11:51:18.246,-7.25,-16.0001
11:51:18.256,-7.6875,-18.1876
11:51:18.266,-7.6875,-17.0001
11:51:18.277,-8.5,-17.5626
11:51:18.286,-8.1875,-19.1876
11:51:18.300,-7.9375,-18.8126
11:51:18.307,-7.25,-18.4376
11:51:18.317,-6.5,-19.1876
11:51:18.325,-7.4375,-18.5626
11:51:18.336,-6.375,-19.7501
11:51:18.347,-6.125,-18.4376
11:51:18.358,-4.5625,-17.7501
11:51:18.365,-2.3125,-14.8126
11:51:18.376,-0.3125,-11.1875
11:51:18.385,3.3125,-6.4375
11:51:18.396,5.625,-0.125
11:51:18.407,9.6875,5.625
11:51:18.415,11,10.6875
11:51:18.425,13.4376,13.8126
11:51:18.436,14.6251,18.5001
11:51:18.446,15.8751,20.0626
11:51:18.474,16.0001,22.1251
11:51:18.478,17.1876,22.9376
11:51:18.493,17.8126,24.7501
11:51:18.497,19.1876,25.7501
11:51:18.557,19.6251,27.5626
11:51:18.558,20.4376,28.5001
11:51:18.561,21.0001,30.2501
11:51:18.568,21.8126,30.0001
11:51:18.568,22.2501,31.5001
11:51:18.568,23.5001,32.3751
11:51:18.626,24.7501,33.4376
11:51:18.638,25.6251,35.3751
11:51:18.642,26.7501,36.0626
11:51:18.655,27.9376,36.5001
11:51:18.655,29.4376,37.6251
11:51:18.656,30.2501,37.4376
11:51:18.677,30.0001,37.8751
11:51:18.680,29.4376,37.1251
11:51:18.683,29.3126,34.8751
11:51:18.683,28.3751,33.9376
11:51:18.687,27.4376,31.4376
11:51:18.696,24.8751,28.9376
11:51:18.705,22.4376,25.9376
11:51:18.715,19.9376,23.9376
11:51:18.727,17.0626,21.1251
11:51:18.737,13.9376,18.0626
11:51:18.747,8,12.4375
11:51:18.755,6.125,11
11:51:18.767,6.125,10.9375
11:51:18.777,5.6875,11.0625
11:51:18.786,5.0625,9.375
11:51:18.797,5.25,8.5
11:51:18.806,4.6875,6.75
11:51:18.815,4,6.1875
11:51:18.827,3.625,5.25
11:51:18.837,3.875,4.5625
11:51:18.846,3.9375,5
11:51:18.857,4.25,4.875
11:51:18.865,5.3125,4.1875
11:51:18.876,4.1875,3
11:51:18.887,4.6875,3.3125
11:51:18.897,4.5625,2.75
11:51:18.905,5.25,1.6875
11:51:18.917,3.9375,1.625
11:51:18.927,4.125,0.375
11:51:18.936,4.375,0.8125
11:51:18.947,3.8125,-1.1875
11:51:18.957,3.75,-1.1875
11:51:18.965,4.625,-1.125
11:51:18.977,5.5625,-1.1875
11:51:18.987,6.875,0.3125
11:51:18.997,9.125,0.875
11:51:19.005,9.875,0.8125
11:51:19.015,9.625,1.1875
11:51:19.029,11.0625,0.6875
11:51:19.037,9.375,-0.3125
11:51:19.047,7.6875,-1.5
11:51:19.057,6.8125,-2.1875
11:51:19.066,5.4375,-4.6875
11:51:19.078,3.6875,-6.625
11:51:19.087,3.3125,-7.625
11:51:19.097,3.125,-8.8125
11:51:19.107,1.1875,-10.9375
11:51:19.118,0.0625,-11.375
11:51:19.127,-2.25,-14.5626
11:51:19.138,-4.6875,-15.7501
11:51:19.147,-5.9375,-18.0001
11:51:19.157,-8,-19.3751
11:51:19.166,-7.9375,-20.0626
11:51:19.177,-8.9375,-22.1876
11:51:19.185,-9.9375,-21.9376
11:51:19.197,-10.25,-22.4376
11:51:19.207,-10.875,-24.3126
11:51:19.217,-11.25,-25.1876
11:51:19.230,-12.1875,-26.0626
11:51:19.258,-13.125,-26.6876
11:51:19.262,-12.75,-26.3751
11:51:19.266,-10.5,-22.5626
11:51:19.267,-9,-17.3751
11:51:19.306,-6.0625,-13.5626
11:51:19.308,-3.5,-8.5625
11:51:19.311,-0.25,-1.75
11:51:19.313,0.875,1.6875
11:51:19.318,2.875,6.6875
11:51:19.334,4.25,8
11:51:19.340,5.1875,10.75
11:51:19.379,5.6875,12.25
11:51:19.381,6.0625,13.9376
11:51:19.383,7.3125,15.4376
11:51:19.391,8.1875,18.0001
11:51:19.392,8.8125,17.5626
11:51:19.401,9.1875,19.7501
11:51:19.408,9.3125,20.1876
11:51:19.417,9.625,20.6876
11:51:19.433,9.375,20.7501
11:51:19.436,9.625,22.6251
11:51:19.447,9.9375,22.6251
11:51:19.457,9.9375,22.6251
11:51:19.467,10.1875,23.2501
11:51:19.478,9.9375,23.0001
11:51:19.487,9.1875,23.6876
11:51:19.497,8.9375,22.5626
11:51:19.507,8,20.2501
11:51:19.517,7.3125,19.8126
11:51:19.527,6.1875,18.4376
11:51:19.537,4.4375,15.5001
11:51:19.547,3.0625,14.3751
11:51:19.557,1.3125,11.3125
11:51:19.567,-0.125,10.1875
11:51:19.577,-0.25,9.75
11:51:19.587,0.4375,8.75
11:51:19.597,-0.25,8.0625
11:51:19.607,-0.3125,9.6875
11:51:19.617,0,9
11:51:19.626,0.0625,7.5625
11:51:19.637,-0.625,8.3125
11:51:19.647,-0.125,6.8125
11:51:19.657,-0.8125,6.8125
11:51:19.667,-0.625,7.3125
11:51:19.677,0.625,6.75
11:51:19.686,1.5,7
11:51:19.697,1.5,6.6875
11:51:19.707,2.6875,6.25
11:51:19.718,1.75,4.9375
11:51:19.727,0.4375,5.125
11:51:19.737,0.8125,3.1875
11:51:19.745,0.125,3.0625
11:51:19.757,0.25,2.3125
11:51:19.767,-0.25,0.4375
11:51:19.776,-0.125,0.375
11:51:19.787,-0.25,0.0625
11:51:19.797,0.375,-0.6875
11:51:19.806,0.625,-0.9375
11:51:19.817,1.4375,-0.0625
11:51:19.827,2.3125,-1.6875
11:51:19.842,2.25,-1
11:51:19.873,2.75,-1.75
11:51:19.875,1.625,-1.9375
11:51:19.891,1.8125,-2.8125
11:51:19.896,1,-4.9375
11:51:19.901,0,-6.3125
11:51:19.911,-0.3125,-6.1875
11:51:19.914,-0.75,-7
11:51:19.919,-1.625,-8.5625
11:51:19.938,-2.5,-8.8125
11:51:19.941,-2.9375,-10.625
11:51:19.950,-3.625,-11.4375
11:51:19.957,-3.875,-11.75
11:51:19.991,-3.75,-13.125
11:51:19.993,-5,-14.1251
11:51:19.996,-4.5,-15.0001
11:51:19.998,-5.125,-15.2501
11:51:20.029,-5.25,-15.1251
11:51:20.031,-4.8125,-16.3126
11:51:20.033,-4.875,-17.2501
11:51:20.069,-6.25,-19.1876
11:51:20.070,-7.375,-18.9376
11:51:20.073,-7.8125,-20.1251
11:51:20.081,-8.5,-22.0001
11:51:20.081,-8.5,-22.5626
11:51:20.094,-8.875,-23.1876
11:51:20.098,-8.8125,-23.0001
11:51:20.131,-8.9375,-23.5001
11:51:20.134,-9.5625,-24.1251
11:51:20.136,-8.9375,-24.6876
11:51:20.141,-9.375,-25.1876
11:51:20.148,-9.125,-24.8751
11:51:20.157,-9.1875,-25.5626
11:51:20.167,-8.625,-27.1251
11:51:20.183,-9.6875,-26.5626
11:51:20.187,-9.5625,-27.1251
11:51:20.197,-9.6875,-28.1251
11:51:20.207,-9.5625,-28.1251
11:51:20.217,-8.9375,-28.2501
11:51:20.227,-9.4375,-28.1251
11:51:20.237,-9.0625,-28.1876
11:51:20.247,-9.75,-29.0626
11:51:20.257,-8.3125,-26.8751
11:51:20.267,-6.6875,-23.3751
11:51:20.277,-3.9375,-17.9376
11:51:20.287,-1.3125,-13.4376
11:51:20.297,1.8125,-8.25
11:51:20.307,4.25,-1.5625
11:51:20.317,5.75,1.375
11:51:20.327,6.625,5.625
11:51:20.337,7.375,6
11:51:20.347,7.1875,8.5625
11:51:20.357,7.625,8.6875
11:51:20.367,6.125,9.375
11:51:20.377,6.1875,8.4375
11:51:20.387,5.4375,8.5
11:51:20.397,6.125,10.6875
11:51:20.407,6.25,10.375
11:51:20.417,6.625,11.5625
11:51:20.427,7.4375,11.9375
11:51:20.437,7.6875,13.125
11:51:20.447,9.125,14.5626
11:51:20.457,8.9375,14.8126
11:51:20.467,8.9375,16.1876
11:51:20.477,10.3125,15.5626
11:51:20.487,9.5,14.6876
11:51:20.497,9.75,15.8751
11:51:20.507,10,14.5626
11:51:20.517,9.75,12.875
11:51:20.527,8.4375,12.9375
11:51:20.537,8.1875,11.375
11:51:20.547,7.625,10.125
11:51:20.559,6.9375,8.6875
11:51:20.567,6.875,8.875
11:51:20.578,7.5,7.75
11:51:20.587,7.5625,7.875
11:51:20.597,8.0625,8.5
11:51:20.607,9.0625,9.0625
11:51:20.617,8.8125,9.0625
11:51:20.627,9,9.0625
11:51:20.637,9.4375,8.375
11:51:20.647,8.4375,7.75
11:51:20.657,8,7.5625
11:51:20.667,7.8125,6.625
11:51:20.686,6.8125,5.4375
11:51:20.688,5.9375,3.625
11:51:20.717,5.375,3.4375
11:51:20.720,5.3125,2.6875
11:51:20.721,4.9375,1.375
11:51:20.728,4.4375,2.375
11:51:20.757,4.8125,1
11:51:20.760,4.0625,-0.0625
11:51:20.761,4.5625,-1.375
11:51:20.769,4.125,0.0625
11:51:20.807,4.8125,-1.3125
11:51:20.809,4.8125,-2.1875
11:51:20.814,4.75,-1.5
11:51:20.838,5.9375,-2.375
11:51:20.838,5.5,-3.25
11:51:20.840,4.8125,-4.3125
11:51:20.842,4.1875,-4.75
11:51:20.847,3.5625,-5.0625
11:51:20.858,3.4375,-7.125
11:51:20.867,3,-8.3125
11:51:20.882,1.8125,-9.125
11:51:20.892,2,-9.9375
11:51:20.902,1.25,-11.4375
11:51:20.912,1.875,-9.5625
11:51:20.922,2.5,-10.3125
11:51:20.934,2.9375,-11.1875
11:51:20.943,2.625,-11.4375
11:51:20.952,2.5,-10.9375
11:51:20.962,3.4375,-11.3125
11:51:20.972,2.9375,-12.125
11:51:20.982,2.5,-13
11:51:20.992,2.6875,-13.3751
11:51:21.002,1.5,-13.9376
11:51:21.012,2.0625,-14.0626
11:51:21.022,2.125,-15.0001
11:51:21.032,1.625,-13.9376
11:51:21.042,1.875,-16.3126
11:51:21.052,1.1875,-15.2501
11:51:21.062,1.5,-16.5001
11:51:21.072,1.375,-17.8751
11:51:21.082,1.75,-17.3126
11:51:21.093,1.875,-17.6876
11:51:21.102,2.3125,-17.7501
11:51:21.112,1.6875,-17.2501
11:51:21.122,2.375,-18.7501
11:51:21.153,2.1875,-20.0001
11:51:21.155,2.125,-18.7501
11:51:21.160,1.5625,-20.8751
11:51:21.164,0.6875,-20.4376
11:51:21.181,1.375,-21.3751
11:51:21.183,1.1875,-20.6251
11:51:21.198,2,-20.0626
11:51:21.203,3.4375,-18.9376
11:51:21.212,4.625,-14.8751
11:51:21.222,7.5,-10.5
11:51:21.232,9.9375,-5.8125
11:51:21.250,12.0625,-0.5625
11:51:21.253,13,3.1875
11:51:21.268,14.2501,6.5
11:51:21.272,14.5001,8.75
11:51:21.282,15.0626,10.875
11:51:21.292,14.8126,10.8125
11:51:21.305,14.0001,11.3125
11:51:21.312,13.9376,12
11:51:21.323,14.7501,12.1875
11:51:21.332,14.3751,12.375
11:51:21.342,14.5001,13.2501
11:51:21.352,13.8126,14.1876
11:51:21.362,13.5626,13.2501
11:51:21.408,13.5001,12.25
11:51:21.409,13.9376,13.7501
11:51:21.411,13.3126,11.6875
11:51:21.413,12.4375,13.0625
11:51:21.416,12.1875,13.4376
11:51:21.446,12.375,12.0625
11:51:21.448,11.875,10.3125
11:51:21.450,10.625,8.6875
11:51:21.456,8.875,7.375
11:51:21.472,7.6875,6.75
11:51:21.476,8.125,4.9375
11:51:21.505,6.4375,3.5
11:51:21.506,6.375,2.875
11:51:21.507,5.9375,3.3125
11:51:21.512,6.3125,2.375
11:51:21.554,6.1875,1.875
11:51:21.556,5.875,0.875
11:51:21.558,5.125,1.3125
11:51:21.562,4.875,1.375
11:51:21.563,5.1875,0.125
11:51:21.573,5.375,0.25
11:51:21.583,4.75,-0.0625
11:51:21.592,4.6875,-0.25
11:51:21.602,4.5,-0.4375
11:51:21.613,4.875,-1.5
11:51:21.622,4.0625,-2.6875
11:51:21.634,3.75,-2.6875
11:51:21.642,3.625,-3.3125
11:51:21.652,3.1875,-3.375
11:51:21.662,2.875,-4.1875
11:51:21.672,3,-5.375
11:51:21.684,2,-6.9375
11:51:21.694,1.25,-7.125
11:51:21.702,0.5,-7.625
11:51:21.712,1,-9.0625
11:51:21.722,0.4375,-10.375
11:51:21.733,-0.375,-11.625
11:51:21.742,-1.1875,-12.4375
11:51:21.752,-1.125,-12.8125
11:51:21.762,-1.625,-13.4376
11:51:21.772,-2.625,-12.8125
11:51:21.782,-2.3125,-15.5001
11:51:21.792,-3.1875,-15.3751
11:51:21.803,-3.1875,-15.8751
11:51:21.813,-4.4375,-17.8126
11:51:21.822,-4.9375,-18.1876
11:51:21.832,-4.25,-18.3126
11:51:21.842,-5.375,-19.3751
11:51:21.852,-4.875,-18.8126
11:51:21.862,-5.1875,-20.6251
11:51:21.872,-6,-20.6876
11:51:21.882,-6.3125,-21.6876
11:51:21.892,-6.75,-23.3126
11:51:21.902,-7.5,-22.3751
11:51:21.912,-7.625,-24.7501
11:51:21.922,-7.5625,-23.6876
11:51:21.932,-7.8125,-25.0001
11:51:21.942,-8.125,-25.3751
11:51:21.952,-8.5,-25.7501
11:51:21.962,-9.4375,-27.0001
11:51:21.972,-9.4375,-28.0626
11:51:21.982,-9.8125,-28.0626
11:51:21.992,-9.625,-28.0001
11:51:22.002,-9.875,-28.6251
11:51:22.012,-9.25,-27.9376
11:51:22.022,-9.5,-28.8751
11:51:22.033,-9.8125,-29.2501
11:51:22.042,-9.875,-30.5001
11:51:22.056,-10.75,-30.0001
11:51:22.062,-11.125,-31.6251
11:51:22.073,-11.5625,-31.1251
11:51:22.098,-11.8125,-32.6251
11:51:22.100,-11.9375,-33.4376
11:51:22.103,-11.75,-32.5001
11:51:22.143,-10.8125,-32.7501
11:51:22.152,-9.6875,-29.2501
11:51:22.152,-7.6875,-26.3126
11:51:22.156,-5.375,-20.8126
11:51:22.157,-3.25,-16.3126
11:51:22.162,-1.9375,-10.9375
11:51:22.202,0.0625,-5.5
11:51:22.204,1.9375,-3.4375
11:51:22.207,2.8125,0.125
11:51:22.209,3.5625,1.625
11:51:22.244,3.6875,3.75
11:51:22.245,4.3125,4.6875
11:51:22.247,4.6875,4.6875
11:51:22.249,4.625,6.3125
11:51:22.256,4.4375,5.6875
11:51:22.263,4.6875,7.375
11:51:22.272,4.4375,6.625
11:51:22.282,4.4375,8.625
11:51:22.292,4.625,8.4375
11:51:22.302,3.625,8.25
11:51:22.312,3.75,9.3125
11:51:22.323,4.25,9.0625
11:51:22.333,3.9375,9.8125
11:51:22.343,4.6875,9.4375
11:51:22.352,4.625,9.1875
11:51:22.362,4.375,8.75
11:51:22.372,3.3125,8.9375
11:51:22.382,3.25,7.3125
11:51:22.392,3,5.6875
11:51:22.402,2.3125,4.1875
11:51:22.433,2,3.4375
11:51:22.438,2.375,4.5
11:51:22.439,4.1875,4.375
11:51:22.445,4.9375,4.5625
11:51:22.457,4.9375,4.25
11:51:22.462,5.75,5.375
11:51:22.477,5.875,5.125
11:51:22.492,5.0625,4.3125
11:51:22.494,4,3.375
11:51:22.502,3.25,3.625
11:51:22.512,3.25,2.4375
11:51:22.522,2.125,1.125
11:51:22.533,1.75,1.0625
11:51:22.548,1.8125,0.625
11:51:22.564,1.9375,-0.6875
11:51:22.564,2.0625,-0.25
11:51:22.573,1.6875,-0.6875
11:51:22.582,0.6875,-2.5625
11:51:22.597,-0.5625,-3.8125
11:51:22.608,-0.875,-3.6875
11:51:22.617,-1.0625,-5.1875
11:51:22.627,-2,-6.3125
11:51:22.639,-2.4375,-7.375
11:51:22.647,-2.625,-7.5
11:51:22.657,-3.1875,-7.9375
11:51:22.667,-2.9375,-8.75
11:51:22.677,-2.9375,-10.125
11:51:22.687,-3.625,-10.375
11:51:22.697,-4.625,-11.3125
11:51:22.707,-3.8125,-11.625
11:51:22.717,-4.625,-12.875
11:51:22.727,-5.3125,-13.125
11:51:22.737,-6,-13.5626
11:51:22.747,-5.625,-14.8126
11:51:22.757,-6.125,-15.5001
11:51:22.767,-5.6875,-15.8751
11:51:22.777,-5.5,-16.1876
11:51:22.787,-4.875,-16.1876
11:51:22.797,-4.375,-16.0626
11:51:22.807,-5.3125,-16.7501
11:51:22.817,-5.25,-16.5626
11:51:22.832,-5.875,-17.6876
11:51:22.848,-6.0625,-18.8126
11:51:22.853,-6.8125,-19.1251
11:51:22.862,-7.5625,-20.6876
11:51:22.867,-8.5625,-21.0001
11:51:22.897,-8.6875,-22.3126
11:51:22.898,-8.8125,-22.7501
11:51:22.903,-9.25,-23.6251
11:51:22.907,-9.3125,-24.0626
11:51:22.920,-8.6875,-24.1876
11:51:22.953,-8.8125,-23.9376
11:51:22.955,-8.5,-24.4376
11:51:22.957,-8.4375,-24.3126
11:51:22.960,-8.6875,-24.8751
11:51:22.993,-8.625,-25.1251
11:51:22.995,-9.0625,-26.1251
11:51:22.997,-9.5,-26.3751
11:51:23.021,-10.375,-27.6876
11:51:23.022,-10.5625,-27.8126
11:51:23.025,-10.625,-28.3751
11:51:23.029,-11.125,-28.8751
11:51:23.037,-10.875,-29.6876
11:51:23.047,-11.3125,-30.0001
11:51:23.057,-11.8125,-30.1876
11:51:23.068,-12.5625,-30.3126
11:51:23.077,-12.0625,-30.7501
11:51:23.087,-12.1875,-31.3126
11:51:23.098,-11.9375,-31.5626
11:51:23.107,-13.1251,-31.6876
11:51:23.117,-11.9375,-31.5626
11:51:23.127,-11.0625,-29.3751
11:51:23.137,-9,-26.0626
11:51:23.147,-7.0625,-21.8751
11:51:23.159,-4.6875,-16.9376
11:51:23.167,-2.75,-10.875
11:51:23.177,-1.3125,-7.1875
11:51:23.188,0.4375,-3.4375
11:51:23.198,0.5625,-0.75
11:51:23.207,-0.75,0.625
11:51:23.218,-3.9375,-0.8125
11:51:23.227,-9.3125,-3.1875
11:51:23.238,-18.9376,-9.625
11:51:23.247,-30.9376,-16.8126
11:51:23.257,-41.5002,-23.6251
11:51:23.267,-49.0627,-26.5001
11:51:23.277,-50.3127,-24.2501
11:51:23.287,-47.5002,-19.1876
11:51:23.297,-40.8127,-12.375
11:51:23.307,-29.5626,-0.4375
11:51:23.318,-15.5001,12.125
11:51:23.327,-2.5,24.8126
11:51:23.337,8.625,34.0001
11:51:23.348,17.9376,43.7502
11:51:23.358,26.9376,51.2502
11:51:23.368,36.1251,59.0627
11:51:23.377,43.3127,63.5627
11:51:23.387,48.6877,67.5628
11:51:23.397,51.7502,69.5628
11:51:23.407,52.0627,67.8753
11:51:23.417,49.8752,63.8127
11:51:23.427,48.6877,60.8127
11:51:23.437,49.0627,59.4377
11:51:23.447,50.3127,58.9377
11:51:23.458,49.3752,57.0002
11:51:23.467,47.3127,53.9377
11:51:23.477,46.5627,51.6877
11:51:23.487,46.8752,51.0627
11:51:23.497,47.6252,51.5002
11:51:23.507,48.0002,50.1252
11:51:23.518,46.5002,48.8127
11:51:23.528,46.3752,48.1252
11:51:23.538,45.0627,45.8127
11:51:23.547,45.0002,43.6252
11:51:23.557,42.8752,41.4377
11:51:23.579,40.3752,37.8751
11:51:23.583,38.1876,34.1876
11:51:23.588,36.6251,32.3751
11:51:23.624,34.1876,28.6876
11:51:23.627,31.0001,23.9376
11:51:23.630,27.8751,21.6251
11:51:23.631,25.1251,16.3751
11:51:23.663,21.3126,11.375
11:51:23.666,18.5626,8.125
11:51:23.668,17.3751,5.1875
11:51:23.677,15.4376,2.4375
11:51:23.677,13.8751,1.1875
11:51:23.687,13.3751,-1.375
11:51:23.714,11.75,-4
11:51:23.716,10.25,-6.125
11:51:23.718,9.9375,-7.1875
11:51:23.752,8.75,-9.8125
11:51:23.754,7.5625,-10
11:51:23.756,7.4375,-12.5625
11:51:23.763,6.25,-14.8126
11:51:23.778,5.75,-14.6251
11:51:23.780,5.1875,-16.5626
11:51:23.794,4.8125,-17.8126
11:51:23.799,4.1875,-17.0626
11:51:23.807,4.6875,-18.5001
11:51:23.818,4.3125,-20.5626
11:51:23.827,3.5,-21.0626
11:51:23.844,2.875,-20.6876
11:51:23.859,2.875,-21.8126
11:51:23.861,2.625,-22.3126
11:51:23.867,2.4375,-23.5626
11:51:23.878,2.5625,-24.2501
11:51:23.887,2.3125,-23.5001
11:51:23.898,2.5,-24.4376
11:51:23.908,1.9375,-25.2501
11:51:23.918,2.375,-23.6251
11:51:23.927,2,-23.8751
11:51:23.937,3.1875,-25.1876
11:51:23.948,2.625,-24.3751
11:51:23.957,2.9375,-24.6251
11:51:23.967,3.4375,-25.1251
11:51:23.978,4,-24.0001
11:51:23.987,3.5,-25.0626
11:51:23.998,3.8125,-24.6876
11:51:24.007,3.9375,-24.8751
11:51:24.017,3.5,-24.7501
11:51:24.028,3.875,-24.7501
11:51:24.039,4.125,-24.2501
11:51:24.047,5.625,-23.3751
11:51:24.057,6.9375,-22.4376
11:51:24.067,8.1875,-21.0001
11:51:24.077,9.0625,-19.4376
11:51:24.087,11.6875,-18.0001
11:51:24.098,12.625,-16.8126
11:51:24.107,15.6876,-14.0626
11:51:24.118,17.0626,-11.6875
11:51:24.127,21.6251,-7.4375
11:51:24.138,24.6251,-3
11:51:24.148,28.8126,2.6875
11:51:24.159,32.1876,9.6875
11:51:24.168,37.1876,17.3751
11:51:24.177,41.9377,25.8751
11:51:24.187,45.9377,32.7501
11:51:24.198,49.8127,39.5002
11:51:24.207,53.6252,45.3127
11:51:24.218,55.2502,49.8752
11:51:24.227,58.3752,53.0002
11:51:24.237,59.6877,55.4377
11:51:24.248,61.7502,58.1252
11:51:24.257,62.0627,59.6252
11:51:24.267,63.5002,61.2502
11:51:24.278,64.6252,62.5627
11:51:24.288,65.4378,63.5002
11:51:24.298,65.1252,64.0627
11:51:24.309,65.5628,64.0002
11:51:24.318,63.9377,64.3752
11:51:24.327,62.9377,63.5627
11:51:24.338,61.5627,61.7502
11:51:24.347,61.1252,61.3752
11:51:24.358,59.0627,59.6877
11:51:24.393,58.4377,57.8127
11:51:24.394,55.8127,55.0627
11:51:24.397,54.4377,52.9377
11:51:24.400,51.2502,49.0002
11:51:24.427,49.9377,47.4377
11:51:24.430,47.4377,43.7502
11:51:24.432,45.2502,41.1252
11:51:24.439,43.0002,39.3752
11:51:24.472,42.0002,36.8126
11:51:24.476,39.3127,34.3751
11:51:24.477,38.0626,32.6251
11:51:24.506,35.6251,29.6876
11:51:24.507,33.8751,27.7501
11:51:24.509,31.9376,26.7501
11:51:24.514,30.5626,23.1251
11:51:24.521,27.8751,21.6876
11:51:24.551,25.5626,19.3126
11:51:24.552,22.3751,14.8751
11:51:24.555,19.6876,11.4375
11:51:24.560,15.9376,9.0625
11:51:24.567,12.5,4
11:51:24.578,8.6875,-0.875
11:51:24.588,3.4375,-4.8125
11:51:24.597,-0.625,-11.125
11:51:24.609,-6,-16.8751
11:51:24.617,-10.3125,-21.0001
11:51:24.627,-12.5,-25.3126
11:51:24.638,-16.0001,-28.6876
11:51:24.649,-18.7501,-31.9376
11:51:24.658,-21.0001,-36.1251
11:51:24.668,-24.5626,-40.3752
11:51:24.677,-30.1251,-47.0627
11:51:24.688,-33.6251,-49.6877
11:51:24.698,-36.8751,-54.5627
11:51:24.708,-39.0627,-58.1877
11:51:24.719,-40.4377,-58.3752
11:51:24.729,-40.1252,-59.6252
11:51:24.737,-40.2502,-60.3127
11:51:24.748,-39.6877,-59.0627
11:51:24.758,-39.3127,-60.4377
11:51:24.769,-39.4377,-59.5002
11:51:24.778,-39.3752,-60.3127
11:51:24.788,-39.3127,-61.2502
11:51:24.797,-38.8751,-60.6877
11:51:24.808,-38.4376,-59.2502
11:51:24.818,-38.1251,-60.0002
11:51:24.828,-37.3751,-59.5627
11:51:24.838,-36.4376,-58.8752
11:51:24.847,-35.8126,-58.3127
11:51:24.858,-34.3126,-56.9377
11:51:24.867,-34.5626,-55.8752
11:51:24.878,-33.1251,-55.5002
11:51:24.888,-32.3126,-55.1252
11:51:24.897,-31.3126,-53.6877
11:51:24.908,-30.3751,-53.6252
11:51:24.918,-29.4376,-52.1877
11:51:24.927,-29.0001,-51.0627
11:51:24.938,-27.8751,-50.1877
11:51:24.947,-26.6251,-49.2502
11:51:24.959,-26.3126,-47.8752
11:51:24.968,-26.0626,-47.9377
11:51:24.994,-24.5626,-46.9377
11:51:24.996,-24.0001,-44.4377
11:51:24.998,-21.6876,-43.5002
11:51:25.008,-19.1876,-41.3752
11:51:25.017,-17.5626,-38.5626
11:51:25.028,-14.5626,-35.7501
11:51:25.038,-11.5625,-33.0001
11:51:25.048,-9.5,-29.1876
11:51:25.058,-5.8125,-27.7501
11:51:25.074,-3.875,-23.6251
11:51:25.109,0.5,-20.4376
11:51:25.111,5.4375,-14.2501
11:51:25.113,9.75,-7.3125
11:51:25.120,15.4376,0.125
11:51:25.121,20.5626,9.3125
11:51:25.140,27.3751,18.9376
11:51:25.142,32.6251,27.7501
11:51:25.173,37.8126,35.5001
11:51:25.176,41.3752,41.1877
11:51:25.178,45.0002,47.4377
11:51:25.185,47.8752,50.3752
11:51:25.198,49.3127,53.9377
11:51:25.202,50.8127,55.8127
11:51:25.241,51.4377,58.1252
11:51:25.244,53.1252,60.3752
11:51:25.246,53.6252,61.9377
11:51:25.252,54.6252,63.6252
11:51:25.252,56.0002,64.0627
11:51:25.259,56.8127,64.6877
11:51:25.269,57.2502,65.8753
11:51:25.277,57.1877,66.5628
11:51:25.288,57.6252,66.6253
11:51:25.302,57.4377,65.7503
11:51:25.309,56.4377,65.3127
11:51:25.318,55.3127,63.3127
11:51:25.328,53.6252,62.6252
11:51:25.337,52.6877,61.0627
11:51:25.348,51.1252,58.5627
11:51:25.357,48.0002,55.7502
11:51:25.369,46.7502,52.8752
11:51:25.378,43.5002,50.1252
11:51:25.389,42.6877,48.3752
11:51:25.398,40.9377,45.1877
11:51:25.408,39.3752,42.2502
11:51:25.418,37.9376,41.5002
11:51:25.428,36.4376,38.3751
11:51:25.438,35.0626,37.4376
11:51:25.448,32.3751,34.6876
11:51:25.457,31.0626,32.6876
11:51:25.468,28.6876,30.5001
11:51:25.478,27.1251,28.0626
11:51:25.489,24.8126,26.0001
11:51:25.498,23.2501,23.1251
11:51:25.507,20.2501,20.6251
11:51:25.518,18.2501,17.3751
11:51:25.528,15.3751,14.4376
11:51:25.538,12.875,11.9375
11:51:25.549,10.3125,7.625
11:51:25.558,7.0625,4.25
11:51:25.569,3.9375,0
11:51:25.578,0.25,-3.75
11:51:25.588,-2.6875,-7.875
11:51:25.598,-5.5625,-11.8125
11:51:25.608,-8.875,-16.5001
11:51:25.618,-12.9375,-20.1876
11:51:25.627,-15.8126,-23.9376
11:51:25.638,-18.6251,-27.3751
11:51:25.648,-21.1251,-30.8751
11:51:25.658,-24.0626,-34.3126
11:51:25.668,-26.0626,-36.9376
11:51:25.678,-27.6251,-39.5627
11:51:25.687,-31.2501,-41.6252
11:51:25.698,-31.8126,-44.7502
11:51:25.708,-33.8126,-46.4377
11:51:25.718,-34.8751,-48.8752
11:51:25.729,-36.1251,-49.8127
11:51:25.738,-37.0001,-51.3752
11:51:25.748,-37.8751,-52.9377
11:51:25.758,-38.7501,-54.0002
11:51:25.768,-38.6876,-55.1877
11:51:25.778,-37.0001,-54.6877
11:51:25.788,-37.6251,-54.2502
11:51:25.798,-38.1251,-54.7502
11:51:25.823,-37.3751,-56.0002
11:51:25.825,-37.5626,-55.5627
11:51:25.830,-38.2501,-55.3752
11:51:25.871,-36.8126,-55.5627
11:51:25.873,-35.8751,-54.6252
11:51:25.874,-36.1251,-54.6252
11:51:25.877,-35.0626,-54.8127
11:51:25.884,-34.1876,-53.4377
11:51:25.893,-33.2501,-53.4377
11:51:25.922,-32.6251,-52.1877
11:51:25.925,-32.6251,-53.0627
11:51:25.927,-31.1251,-51.8752
11:51:25.930,-31.1876,-50.6252
11:51:25.965,-30.7501,-50.2502
11:51:25.966,-29.3126,-50.4377
11:51:25.968,-28.7501,-48.8127
11:51:25.976,-26.8751,-48.5002
11:51:25.983,-25.8751,-47.6877
11:51:25.988,-24.6876,-44.8127
11:51:25.998,-23.0626,-44.5002
11:51:26.008,-22.5001,-43.3127
11:51:26.018,-20.3751,-41.8127
11:51:26.028,-20.0001,-41.3127
11:51:26.038,-18.6876,-39.4377
11:51:26.053,-17.1251,-37.9376
11:51:26.058,-15.8126,-36.0001
11:51:26.068,-13.6251,-34.5001
11:51:26.078,-11.4375,-31.6876
11:51:26.089,-7.875,-26.5626
11:51:26.098,-3.625,-21.4376
11:51:26.108,1.6875,-13.3126
11:51:26.118,6.6875,-6.3125
11:51:26.128,12.3125,3.6875
11:51:26.138,17.3751,11.1875
11:51:26.148,21.5001,18.2501
11:51:26.158,25.5626,24.7501
11:51:26.168,28.8751,30.7501
11:51:26.178,32.3751,35.2501
11:51:26.189,34.0001,39.3752
11:51:26.198,36.6876,42.4377
11:51:26.208,38.0001,44.8752
11:51:26.218,40.7502,47.3752
11:51:26.228,42.0627,49.8752
11:51:26.238,43.5002,52.5627
11:51:26.248,44.1877,52.9377
11:51:26.273,44.6877,55.3127
11:51:26.276,44.8127,54.7502
11:51:26.280,44.6877,54.3752
11:51:26.290,44.6877,56.5002
11:51:26.298,44.2502,54.8752
11:51:26.308,43.2502,55.1877
11:51:26.318,42.3127,55.0627
11:51:26.328,42.1877,54.0627
11:51:26.338,41.2502,52.6252
11:51:26.348,39.8127,51.5002
11:51:26.369,38.8751,49.3752
11:51:26.376,36.8126,46.8127
11:51:26.390,34.9376,44.3752
11:51:26.393,33.6251,41.6252
11:51:26.408,32.3126,40.3127
11:51:26.411,31.5001,39.0001
11:51:26.418,30.5626,36.5626
11:51:26.438,28.8126,35.6876
11:51:26.440,28.2501,34.4376
11:51:26.455,27.3751,33.0626
11:51:26.473,25.6251,30.8751
11:51:26.476,24.1251,29.8751
11:51:26.479,21.8126,27.0626
11:51:26.507,20.8126,25.7501
11:51:26.510,19.3126,23.2501
11:51:26.512,17.2501,22.3126
11:51:26.520,15.1251,19.3751
11:51:26.543,14.2501,16.5001
11:51:26.546,11.5,13.9376
11:51:26.549,8.75,11.0625
11:51:26.574,5.9375,7.8125
11:51:26.577,2.625,3.25
11:51:26.578,-0.5625,-0.4375
11:51:26.612,-3.8125,-5.375
11:51:26.615,-8.25,-8.9375
11:51:26.618,-12.3125,-13.6251
11:51:26.644,-16.0001,-19.5001
11:51:26.646,-19.8751,-23.7501
11:51:26.648,-22.5626,-26.7501
11:51:26.656,-24.8126,-30.8751
11:51:26.665,-27.3126,-33.3751
11:51:26.674,-30.0001,-35.5001
11:51:26.684,-32.0626,-40.3752
11:51:26.693,-35.0626,-43.7502
11:51:26.703,-37.6251,-46.5002
11:51:26.713,-40.3752,-49.8127
11:51:26.724,-43.5002,-53.8127
11:51:26.733,-46.0002,-56.6252
11:51:26.743,-46.8127,-57.5627
11:51:26.753,-47.3752,-59.1252
11:51:26.763,-48.4377,-61.2502
11:51:26.773,-48.6252,-62.0627
11:51:26.783,-47.0627,-61.1252
11:51:26.793,-46.7502,-61.2502
11:51:26.804,-45.5627,-61.4377
11:51:26.814,-45.5002,-60.5627
11:51:26.823,-44.3752,-60.3752
11:51:26.833,-43.8752,-60.4377
11:51:26.844,-43.2502,-58.9377
11:51:26.853,-41.9377,-59.4377
11:51:26.864,-41.1877,-57.8127
11:51:26.873,-41.0002,-58.1252
11:51:26.883,-39.9377,-57.4377
11:51:26.893,-39.0626,-56.8752
11:51:26.903,-38.4376,-57.3752
11:51:26.913,-37.8751,-55.3752
11:51:26.923,-35.9376,-54.8752
11:51:26.934,-34.5001,-53.9377
11:51:26.943,-33.3126,-52.0627
11:51:26.953,-31.6251,-49.3127
11:51:26.963,-30.2501,-49.5002
11:51:26.974,-29.1251,-47.8752
11:51:26.983,-26.5626,-46.2502
11:51:26.993,-25.8751,-45.0002
11:51:27.003,-24.3126,-43.5627
11:51:27.014,-23.0001,-42.7502
11:51:27.023,-22.3751,-42.4377
11:51:27.033,-21.0001,-39.6252
11:51:27.043,-19.3126,-38.8126
11:51:27.053,-16.7501,-35.9376
11:51:27.063,-13.9376,-33.3126
11:51:27.073,-11.125,-28.6876
11:51:27.083,-6.5,-23.1251
11:51:27.093,-1.5,-16.0626
11:51:27.103,4.375,-7
11:51:27.113,10.0625,2.0625
11:51:27.123,15.5626,11.3125
11:51:27.133,21.5626,20.2501
11:51:27.143,26.1251,27.0626
11:51:27.153,30.0001,32.8751
11:51:27.163,34.0626,38.4376
11:51:27.178,37.6876,44.3752
11:51:27.185,41.1877,48.1252
11:51:27.194,44.7502,52.8752
11:51:27.204,47.9377,56.4377
11:51:27.213,50.2502,60.1252
11:51:27.223,52.6252,63.3127
11:51:27.258,54.6252,65.8753
11:51:27.261,55.6877,67.8128
11:51:27.265,57.9377,69.0628
11:51:27.269,59.0627,70.8128
11:51:27.274,59.8127,72.7503
11:51:27.308,60.8127,72.8128
11:51:27.310,60.6252,72.1878
11:51:27.312,60.6252,71.3753
11:51:27.318,60.0627,71.1878
11:51:27.330,58.8127,69.9378
11:51:27.334,56.6877,68.6253
11:51:27.373,55.8127,65.0627
11:51:27.376,54.1877,63.8127
11:51:27.378,53.0002,62.0002
11:51:27.385,51.6877,59.1877
11:51:27.386,50.5627,57.1877
11:51:27.398,48.8752,56.3127
11:51:27.413,47.3752,53.9377
11:51:27.415,46.1877,51.6877
11:51:27.423,44.5002,50.4377
11:51:27.434,42.5002,47.0627
11:51:27.443,40.8752,46.0627
11:51:27.454,39.6877,44.3127
11:51:27.463,37.0001,42.2502
11:51:27.473,35.1251,40.0002
11:51:27.484,34.0001,37.2501
11:51:27.493,30.6251,34.3751
11:51:27.504,28.3751,30.9376
11:51:27.513,25.3751,26.9376
11:51:27.523,22.6251,23.1876
11:51:27.554,18.5626,19.8126
11:51:27.556,14.1876,14.6251
11:51:27.559,10.375,9.6875
11:51:27.563,5.875,4.5625
11:51:27.573,0.4375,-0.375
11:51:27.583,-4.1875,-7.6875
11:51:27.593,-9.5,-13.5626
11:51:27.603,-14.8126,-19.8751
11:51:27.614,-19.6876,-24.3126
11:51:27.624,-23.1876,-29.5626
11:51:27.633,-26.8751,-34.1251
11:51:27.644,-29.7501,-37.3751
11:51:27.653,-32.0626,-40.8127
11:51:27.665,-35.2501,-44.6877
11:51:27.682,-39.6252,-49.8752
11:51:27.688,-44.0002,-54.5002
11:51:27.698,-46.7502,-58.3127
11:51:27.703,-48.6877,-61.7502
11:51:27.719,-50.6877,-63.8752
11:51:27.725,-52.0627,-66.6878
11:51:27.736,-52.1252,-66.4378
11:51:27.743,-52.4377,-67.8128
11:51:27.758,-52.2502,-67.3128
11:51:27.765,-52.7502,-68.3753
11:51:27.773,-52.4377,-68.6253
11:51:27.788,-51.7502,-67.9378
11:51:27.797,-51.1252,-66.6253
11:51:27.803,-50.3127,-67.0003
11:51:27.813,-49.6877,-66.3128
11:51:27.824,-49.3752,-66.8128
11:51:27.833,-48.3127,-66.3128
11:51:27.843,-48.0002,-66.8753
11:51:27.853,-48.1877,-65.0002
11:51:27.863,-47.3752,-65.9378
11:51:27.873,-47.6252,-64.5627
11:51:27.883,-46.3752,-65.6252
11:51:27.894,-45.1877,-64.4377
11:51:27.903,-44.9377,-64.1877
11:51:27.913,-43.9377,-62.7502
11:51:27.923,-42.9377,-62.7502
11:51:27.933,-41.6252,-61.7502
11:51:27.949,-41.6252,-61.8127
11:51:27.953,-41.7502,-62.1877
11:51:27.963,-40.9377,-61.6877
11:51:27.974,-40.6252,-61.4377
11:51:27.983,-39.3752,-60.8752
11:51:27.993,-39.4377,-61.1252
11:51:28.024,-38.8751,-60.8752
11:51:28.026,-39.5627,-59.1252
11:51:28.029,-38.6251,-60.7502
11:51:28.036,-39.0001,-58.8127
11:51:28.061,-37.0001,-59.4377
11:51:28.067,-35.8126,-55.2502
11:51:28.067,-33.5001,-52.3127
11:51:28.100,-30.3751,-47.2502
11:51:28.102,-29.0626,-41.5627
11:51:28.105,-25.6251,-36.0001
11:51:28.109,-23.9376,-31.1251
11:51:28.113,1.125,-3.25
11:51:28.146,-3.375,-6.125
11:51:28.149,-1.0625,-4.3125
11:51:28.151,7.4375,5.4375
11:51:28.153,12.875,8.5
11:51:28.170,16.0626,11.1875
11:51:28.173,17.0001,13.5001
11:51:28.183,16.6251,11.75
11:51:28.193,15.3751,13.3751
11:51:28.203,14.3751,10
11:51:28.214,11.75,9.9375
11:51:28.223,9.875,7.75
11:51:28.233,7.875,6.625
11:51:28.244,6.0625,4.125
11:51:28.253,4.0625,2.25
11:51:28.265,0.3125,-0.625
11:51:28.273,-2.375,-3.5625
11:51:28.283,-4.8125,-4.875
11:51:28.293,-7.4375,-8
11:51:28.304,-9.75,-9.8125
11:51:28.313,-12.4375,-12.125
11:51:28.324,-15.6876,-14.7501
11:51:28.333,-16.2501,-16.0001
11:51:28.343,-17.5626,-16.6876
11:51:28.353,-18.0626,-17.8126
11:51:28.363,-17.6876,-18.6876
11:51:28.373,-17.8126,-18.8126
11:51:28.383,-17.5001,-18.3126
11:51:28.393,-17.1876,-18.9376
11:51:28.403,-17.3126,-17.8126
11:51:28.413,-17.6876,-19.1251
11:51:28.423,-17.2501,-18.3126
11:51:28.433,-17.1876,-18.5001
11:51:28.443,-17.3751,-17.6876
11:51:28.453,-16.1251,-17.1251
11:51:28.464,-15.2501,-16.5626
11:51:28.473,-14.1876,-15.9376
11:51:28.483,-13.9376,-16.1876
11:51:28.493,-13.8751,-15.2501
11:51:28.504,-13.6251,-15.8751
11:51:28.514,-13.5626,-16.0626
11:51:28.523,-13.5001,-16.1876
11:51:28.533,-15.1251,-17.1251
11:51:28.543,-15.8751,-17.6251
11:51:28.553,-16.2501,-19.1876
11:51:28.563,-16.4376,-18.6251
11:51:28.573,-16.1876,-20.6251
11:51:28.584,-16.3751,-18.9376
11:51:28.593,-14.7501,-19.3126
11:51:28.603,-14.8751,-18.1876
11:51:28.613,-13.8126,-19.2501
11:51:28.623,-14.1876,-19.5001
11:51:28.633,-14.5001,-19.1876
11:51:28.643,-14.5001,-20.7501
11:51:28.654,-14.7501,-21.5626
11:51:28.663,-14.6876,-20.9376
11:51:28.674,-14.1876,-22.3126
11:51:28.687,-14.5626,-21.9376
11:51:28.725,-14.2501,-22.0626
11:51:28.725,-14.1251,-21.9376
11:51:28.728,-13.5001,-22.2501
11:51:28.731,-13.3126,-21.6876
11:51:28.734,-12.25,-21.9376
11:51:28.781,-12.0625,-21.0626
11:51:28.781,-11.0625,-21.6251
11:51:28.782,-10.3125,-20.5626
11:51:28.789,-9.375,-21.2501
11:51:28.791,-9.0625,-20.4376
11:51:28.796,-9,-22.3126
11:51:28.834,-9.1875,-20.8126
11:51:28.836,-7.3125,-21.3751
11:51:28.839,-8.1875,-21.3126
11:51:28.841,-6.8125,-21.9376
11:51:28.847,-7.375,-21.4376
11:51:28.855,-6.875,-22.1876
11:51:28.868,-7,-22.3126
11:51:28.873,-7,-23.2501
11:51:28.883,-7.3125,-23.1251
11:51:28.893,-7,-22.9376
11:51:28.904,-7.3125,-23.2501
11:51:28.913,-7.5,-24.5001
11:51:28.923,-8.3125,-25.5626
11:51:28.933,-8.1875,-25.1876
11:51:28.943,-8.3125,-26.1876
11:51:28.953,-9,-27.3126
11:51:28.963,-9.5625,-28.1251
11:51:28.973,-10,-28.9376
11:51:28.983,-9.75,-28.4376
11:51:28.993,-10,-28.6876
11:51:29.003,-9.5,-29.6251
11:51:29.018,-9.8125,-29.1876
11:51:29.027,-10.1875,-30.0626
11:51:29.033,-11.4375,-30.5001
11:51:29.050,-10.875,-31.4376
11:51:29.058,-11.75,-32.1251
11:51:29.063,-10.875,-30.1876
11:51:29.080,-10.375,-27.8126
11:51:29.083,-7.875,-24.0626
11:51:29.098,-6.25,-18.3751
11:51:29.113,-2.8125,-13.1876
11:51:29.116,-1,-6.875
11:51:29.125,1.25,-2.875
11:51:29.133,2.75,1.625
11:51:29.143,3.4375,5.3125
11:51:29.153,5.25,7.25
11:51:29.164,6.125,10.5625
11:51:29.173,7.5625,11.6875
11:51:29.183,7.375,14.5001
11:51:29.193,7.75,14.6251
11:51:29.203,8.1875,16.2501
11:51:29.213,8.3125,16.8126
11:51:29.223,8.5,17.7501
11:51:29.233,9.4375,18.5626
11:51:29.243,9.4375,20.1251
11:51:29.254,10.3125,21.1251
11:51:29.263,10.9375,21.6876
11:51:29.273,10.9375,23.3751
11:51:29.283,12.1875,23.6876
11:51:29.293,12.375,24.0001
11:51:29.303,12.125,23.9376
11:51:29.313,13.125,25.5001
11:51:29.324,13.5001,24.5001
11:51:29.333,13.5626,24.0626
11:51:29.343,13.6876,24.2501
11:51:29.353,13.8751,23.3751
11:51:29.363,13.6251,21.8126
11:51:29.373,13,20.5001
11:51:29.383,12.625,20.0626
11:51:29.393,11.5,18.0626
11:51:29.404,10.1875,17.1251
11:51:29.413,9.875,17.0001
11:51:29.423,9.4375,16.8126
11:51:29.433,9.0625,16.2501
11:51:29.443,9.25,15.3751
11:51:29.473,10.0625,16.3751
11:51:29.477,10.3125,15.4376
11:51:29.479,10.5,16.5001
11:51:29.486,10.9375,16.5001
11:51:29.512,10.6875,14.8126
11:51:29.516,10.5625,14.6251
11:51:29.519,10.625,14.7501
11:51:29.548,10.625,13.8751
11:51:29.550,10,12.375
11:51:29.552,8.375,12.4375
11:51:29.558,8.25,11.4375
11:51:29.564,8.375,10.3125
11:51:29.595,7.875,10.125
11:51:29.597,8.3125,9.5
11:51:29.601,7.9375,8
11:51:29.605,7.3125,8
11:51:29.632,7.375,7.875
11:51:29.636,7.125,6.8125
11:51:29.638,6.875,6.4375
11:51:29.651,7.875,6.5625
11:51:29.653,8.875,6.625
11:51:29.663,9.75,6.5
11:51:29.673,9.8125,7.3125
11:51:29.683,10.5625,7.25
11:51:29.693,11.6875,7
11:51:29.704,11.8125,6.6875
11:51:29.713,12.25,8.625
11:51:29.723,14.2501,7.4375
11:51:29.733,13.1251,7.5
11:51:29.743,12.625,7.6875
11:51:29.753,13.4376,7
11:51:29.763,13.8126,5.875
11:51:29.774,13.7501,6.25
11:51:29.783,14.5001,5.8125
11:51:29.793,13.7501,4.875
11:51:29.803,13.1251,5.125
11:51:29.813,13,3.6875
11:51:29.823,12.5625,2
11:51:29.834,13.1251,3
11:51:29.843,12.4375,1.75
11:51:29.853,12.125,1.125
11:51:29.863,12.5625,0
11:51:29.873,11.75,-0.5
11:51:29.883,11.3125,-0.5
11:51:29.894,11.1875,-1.125
11:51:29.903,11.875,-1.5
11:51:29.913,10.75,-3.5625
11:51:29.924,9.9375,-4.6875
11:51:29.933,8.875,-5
11:51:29.944,8.8125,-6.125
11:51:29.953,7.5,-6.75
11:51:29.964,7.25,-7.625
11:51:29.974,6.9375,-8.8125
11:51:29.983,6.5,-7.9375
11:51:29.993,7.1875,-4.5625
11:51:30.004,8.375,-1.4375
11:51:30.013,9.875,2.125
11:51:30.025,11.25,6.5
11:51:30.033,12.5,12
11:51:30.044,15.5626,16.6251
11:51:30.054,16.1876,20.6876
11:51:30.063,18.6251,24.1876
11:51:30.074,19.4376,26.8126
11:51:30.083,20.6876,28.3751
11:51:30.112,20.6876,29.6876
11:51:30.115,20.6251,31.6876
11:51:30.117,21.0001,31.5001
11:51:30.124,20.2501,32.5001
11:51:30.134,20.6876,32.6251
11:51:30.143,20.3751,33.3126
11:51:30.158,21.0626,34.2501
11:51:30.164,21.8126,35.2501
11:51:30.197,22.0626,36.0001
11:51:30.200,22.1251,37.8126
11:51:30.202,23.3126,37.5626
11:51:30.204,23.3126,37.9376
11:51:30.243,22.9376,38.2501
11:51:30.244,22.1251,37.1251
11:51:30.247,20.4376,36.3751
11:51:30.252,20.6251,35.3126
11:51:30.254,19.6876,33.2501
11:51:30.285,18.8126,33.4376
11:51:30.287,18.5001,30.7501
11:51:30.290,16.8751,29.0626
11:51:30.294,16.5626,28.1251
11:51:30.322,16.2501,27.3126
11:51:30.331,15.0001,26.5001
11:51:30.344,14.4376,26.3751
11:51:30.345,14.3126,25.0626
11:51:30.361,14.5626,24.7501
11:51:30.362,14.2501,25.7501
11:51:30.377,14.2501,25.1251
11:51:30.392,13.7501,23.3126
11:51:30.394,13.3751,23.5626
11:51:30.410,12.875,22.8126
11:51:30.425,12.125,22.2501
11:51:30.427,11.75,20.6876
11:51:30.440,10.875,19.5001
11:51:30.443,9.75,18.9376
11:51:30.458,10,17.9376
11:51:30.461,7.75,16.0626
11:51:30.463,6.1875,15.0001
11:51:30.475,5.875,13.4376
11:51:30.483,5.0625,11.625
11:51:30.493,3.75,11.125
11:51:30.504,3.9375,10
11:51:30.514,4.375,9.5
11:51:30.523,4.125,9
11:51:30.533,3.9375,7.5625
11:51:30.545,3.4375,8.3125
11:51:30.555,3.25,7.75
11:51:30.564,3.3125,6.75
11:51:30.576,2.9375,4.875
11:51:30.583,3.3125,4.5625
11:51:30.594,2.375,4.0625
11:51:30.610,2.75,5.1875
11:51:30.620,3.25,3.25
11:51:30.629,2.625,1.8125
11:51:30.639,1.375,2.125
11:51:30.650,2.6875,1.5
11:51:30.659,2.25,0.5
11:51:30.669,1,0.1875
11:51:30.680,1.8125,-0.25
11:51:30.689,0.9375,-2.0625
11:51:30.699,1.125,-1.75
11:51:30.709,0.5,-1.4375
11:51:30.718,0.3125,-3.8125
11:51:30.729,-0.9375,-4.5625
11:51:30.738,-1.6875,-6.5
11:51:30.749,-1.75,-6.1875
11:51:30.760,-2,-7.8125
11:51:30.770,-2.5,-8.25
11:51:30.782,-2.5,-9
11:51:30.792,-2.4375,-8
11:51:30.799,-1.9375,-9.25
11:51:30.810,-3,-9.625
11:51:30.820,-2.6875,-9.875
11:51:30.829,-3.1875,-11.625
11:51:30.844,-3.25,-11.25
11:51:30.849,-2.4375,-9.4375
11:51:30.860,-0.8125,-7.25
11:51:30.870,1.25,-2.5625
11:51:30.879,4.4375,1.8125
11:51:30.888,5.5625,8.4375
11:51:30.905,8.5,12.1875
11:51:30.909,10,17.5001
11:51:30.936,11.9375,21.8126
11:51:30.938,13,23.8751
11:51:30.941,13.0625,27.3751
11:51:30.971,13.8751,28.8126
11:51:30.973,14.6876,30.6876
11:51:30.976,15.3751,32.3751
11:51:30.980,16.3751,34.8126
11:51:31.008,16.3126,35.8126
11:51:31.011,17.4376,38.6876
11:51:31.013,17.5626,38.9376
11:51:31.019,18.1876,40.6877
11:51:31.052,18.5001,41.1252
11:51:31.056,17.9376,42.4377
11:51:31.057,19.5626,43.9377
11:51:31.080,18.8751,44.0627
11:51:31.081,18.3751,43.8127
11:51:31.083,18.6876,45.2502
11:51:31.089,18.9376,45.6877
11:51:31.099,18.3751,44.6252
11:51:31.108,17.8751,43.5002
11:51:31.120,16.3751,42.5627
11:51:31.129,16.3126,40.6252
11:51:31.139,14.7501,38.5001
11:51:31.149,13.4376,38.8751
11:51:31.159,13.5626,36.2501
11:51:31.169,12.25,34.9376
11:51:31.179,11.9375,34.6251
11:51:31.190,12.375,34.5626
11:51:31.200,12.5,33.7501
11:51:31.209,11.3125,33.1876
11:51:31.220,10.75,32.2501
11:51:31.229,11.5625,33.2501
11:51:31.239,12,33.2501
11:51:31.249,11.8125,32.5626
11:51:31.259,11.5,32.5001
11:51:31.269,12.0625,31.8751
11:51:31.280,10.875,30.4376
11:51:31.289,9.0625,28.3126
11:51:31.300,8.875,28.6251
11:51:31.310,9.5625,28.4376
11:51:31.319,8.875,26.1251
11:51:31.329,8.4375,25.8126
11:51:31.339,8.75,25.1251
11:51:31.349,8.75,24.4376
11:51:31.360,8.375,23.3126
11:51:31.392,7.8125,23.4376
11:51:31.395,8.0625,22.6251
11:51:31.397,8.9375,21.8126
11:51:31.402,7.5625,20.0001
11:51:31.410,7.4375,20.3751
11:51:31.420,7.125,18.5626
11:51:31.430,6.875,18.5001
11:51:31.439,6.875,18.0001
11:51:31.450,7.4375,16.5626
11:51:31.460,7.125,14.8126
11:51:31.469,7.875,15.7501
11:51:31.480,7.3125,15.9376
11:51:31.490,6.9375,14.8751
11:51:31.500,7.0625,12.5
11:51:31.510,6.125,11.375
11:51:31.519,6.875,12
11:51:31.534,6.375,10.375
11:51:31.539,6.125,10.0625
11:51:31.549,6.3125,10.5625
11:51:31.559,6.125,9.375
11:51:31.569,6,7.3125
11:51:31.579,5.875,8.0625
11:51:31.589,6.6875,7.0625
11:51:31.619,5.75,6.125
11:51:31.622,5.25,6.25
11:51:31.624,5.4375,4.5
11:51:31.630,4.6875,3.4375
11:51:31.665,4.75,4.125
11:51:31.733,4.5,3.1875
11:51:31.779,4.125,2.125
11:51:31.782,3.9375,1
11:51:31.782,3.5,0.5625
11:51:31.782,2.625,0.0625
11:51:31.784,3.5,-1.5
11:51:31.786,2.25,-1.6875
11:51:31.791,2.1875,-3.0625
11:51:31.794,2,-4.125
11:51:31.794,1.1875,-4.8125
11:51:31.801,1.125,-4.8125
11:51:31.809,1.5625,-6
11:51:31.819,1.625,-5.8125
11:51:31.830,2.3125,-3.6875
11:51:31.839,3.5625,-0.5
11:51:31.849,6.5625,3.0625
11:51:31.859,9.5,9.1875
11:51:31.869,12.375,14.6876
11:51:31.879,13.9376,20.6876
11:51:31.889,15.8126,23.8751
11:51:31.899,17.2501,28.6876
11:51:31.909,25.8126,46.1877
11:51:31.920,26.4376,48.6877
11:51:31.930,26.5626,50.3752
11:51:31.939,27.5001,51.7502
11:51:31.949,27.5626,53.2502
11:51:31.960,28.6876,57.3752
11:51:31.969,29.2501,58.1877
11:51:31.979,29.2501,60.5002
11:51:31.989,29.7501,60.5002
11:51:31.999,30.3751,61.1252
11:51:32.009,30.0626,62.6252
11:51:32.019,30.2501,63.3127
11:51:32.029,30.5626,62.3127
11:51:32.040,29.8126,61.3127
11:51:32.050,28.8751,60.4377
11:51:32.059,28.5001,59.5002
11:51:32.069,27.8126,57.7502
11:51:32.080,25.8751,54.5627
11:51:32.089,24.6251,54.2502
11:51:32.099,24.1251,52.6252
11:51:32.109,23.1251,51.4377
11:51:32.119,23.2501,49.5627
11:51:32.129,22.8751,50.0627
11:51:32.139,21.8751,49.6877
11:51:32.149,21.9376,48.3127
11:51:32.159,20.6876,46.4377
11:51:32.169,20.3126,46.8127
11:51:32.180,20.6876,45.8752
11:51:32.189,18.6251,44.3127
11:51:32.199,18.5001,43.1252
11:51:32.210,17.0626,43.2502
11:51:32.220,16.8751,41.3127
11:51:32.229,15.6876,38.6251
11:51:32.240,14.1876,36.9376
11:51:32.249,14.3126,36.7501
11:51:32.259,13.3751,36.2501
11:51:32.269,13.6876,34.5001
11:51:32.286,13,32.8751
11:51:32.290,12.1875,30.4376
11:51:32.301,11.25,29.0001
11:51:32.309,10.3125,28.4376
11:51:32.320,9.625,27.8751
11:51:32.333,9.25,25.7501
11:51:32.362,8.6875,24.3126
11:51:32.365,8.25,23.6251
11:51:32.367,8.8125,23.0626
11:51:32.369,8.375,21.3751
11:51:32.399,7.875,20.0626
11:51:32.404,8.125,20.4376
11:51:32.406,8.3125,19.0626
11:51:32.409,8.0625,18.4376
11:51:32.439,6.75,16.5626
11:51:32.441,6.1875,16.5626
11:51:32.444,5.875,15.0626
11:51:32.450,6.125,13.9376
11:51:32.464,6.375,13.4376
11:51:32.470,6.625,13
11:51:32.504,6.0625,13
11:51:32.506,6.4375,11.3125
11:51:32.508,5.4375,9.75
11:51:32.511,4.75,9.1875
11:51:32.523,4.25,8.4375
11:51:32.530,3.8125,6.9375
11:51:32.543,3.25,5.4375
11:51:32.550,2.8125,4.5625
11:51:32.559,2.25,3.3125
11:51:32.569,2.1875,1.75
11:51:32.579,1.25,1.25
11:51:32.591,0.625,0.4375
11:51:32.600,1,-0.8125
11:51:32.609,0.25,-2.0625
11:51:32.619,-1,-2.875
11:51:32.629,-1.5,-3
11:51:32.639,-1.75,-4.5
11:51:32.674,-2.0625,-5.9375
11:51:32.674,-3.125,-7.0625
11:51:32.678,-3.9375,-9.25
11:51:32.680,-4.8125,-8.375
11:51:32.693,-5.125,-10.4375
11:51:32.700,-6.125,-11.875
11:51:32.709,-6.9375,-13.3751
11:51:32.720,-7.375,-12.8125
11:51:32.729,-6.1875,-12.75
11:51:32.739,-5.75,-13.5626
11:51:32.749,-6.375,-14.7501
11:51:32.759,-5.5,-13.5626
11:51:32.769,-5.0625,-12.9375
11:51:32.780,-4.875,-14.3751
11:51:32.790,-3.875,-13.3126
11:51:32.799,-3.125,-12.5
11:51:32.809,-1.875,-9
11:51:32.819,0.8125,-4.375
11:51:32.829,2.3125,1.125
11:51:32.839,4.3125,7.375
11:51:32.849,6.6875,11.875
11:51:32.860,8.5,17.6251
11:51:32.869,11,20.8751
11:51:32.879,12.625,24.5626
11:51:32.889,14.0626,28.1251
11:51:32.899,15.0001,29.8126
11:51:32.909,16.0001,32.8126
11:51:32.921,16.1251,33.8126
11:51:32.929,15.8126,34.4376
11:51:32.939,16.8126,35.6251
11:51:32.949,17.0001,37.6251
11:51:32.960,17.8751,38.5626
11:51:32.975,18.5001,40.0002
11:51:32.982,19.0626,41.0627
11:51:32.997,19.6251,41.0627
11:51:33.003,18.4376,41.6877
11:51:33.012,18.5001,41.6877
11:51:33.019,18.0626,43.1252
11:51:33.029,17.5626,42.0627
11:51:33.049,17.3126,41.5002
11:51:33.085,16.1876,40.3752
11:51:33.086,16.3126,40.1252
11:51:33.117,16.6876,39.2502
11:51:33.117,15.5626,37.3751
11:51:33.117,15.5001,37.1876
11:51:33.118,16.2501,36.4376
11:51:33.122,15.8126,35.5001
11:51:33.129,15.3126,35.9376
11:51:33.129,15.4376,35.3126
11:51:33.160,15.3751,34.8751
11:51:33.162,15.6876,34.1251
11:51:33.165,16.3751,34.0626
11:51:33.170,16.0001,33.0626
11:51:33.204,16.3126,32.9376
11:51:33.206,16.2501,34.0626
11:51:33.208,16.5001,33.3751
11:51:33.212,15.9376,32.0626
11:51:33.225,14.7501,30.6876
11:51:33.230,14.3126,29.7501
11:51:33.239,13.5626,28.5001
11:51:33.250,11.75,26.0626
11:51:33.259,11.375,24.6876
11:51:33.269,10.1875,24.1876
11:51:33.279,9.375,24.0001
11:51:33.289,9.3125,21.2501
11:51:33.299,8.125,19.5001
11:51:33.310,6.5625,18.4376
11:51:33.319,5.1875,16.1876
11:51:33.329,4.6875,15.1251
11:51:33.339,3.6875,12.9375
11:51:33.349,2.625,11.6875
11:51:33.359,2.75,11.125
11:51:33.369,2,10.4375
11:51:33.379,2,10.1875
11:51:33.389,2.125,7.9375
11:51:33.400,1.3125,7.0625
11:51:33.409,1.5,6.9375
11:51:33.420,1.4375,5.875
11:51:33.429,0.75,4.8125
11:51:33.439,0,3.3125
11:51:33.450,-0.375,3.125
11:51:33.459,-1.1875,2.3125
11:51:33.469,-1.3125,0.5625
11:51:33.480,-2.25,-0.875
11:51:33.489,-2.25,-0.8125
11:51:33.500,-1.3125,-0.75
11:51:33.509,-1.25,-2
11:51:33.519,-1.9375,-2.875
11:51:33.529,-2.0625,-2.4375
11:51:33.540,-1.5,-3.875
11:51:33.549,-2.25,-4.5
11:51:33.559,-3.0625,-4.9375
11:51:33.569,-3.1875,-6.125
11:51:33.579,-3.8125,-6.5
11:51:33.589,-3.375,-8
11:51:33.599,-5.0625,-9
11:51:33.609,-5.0625,-9.0625
11:51:33.619,-5,-10.5
11:51:33.629,-6.6875,-11.375
11:51:33.639,-7.25,-12.4375
11:51:33.649,-8.3125,-14.1251
11:51:33.660,-9.5,-15.1251
11:51:33.669,-10,-17.5001
11:51:33.679,-11.0625,-17.3126
11:51:33.689,-10.9375,-18.4376
11:51:33.699,-10.125,-17.8126
11:51:33.709,-11,-18.1876
11:51:33.719,-10.75,-19.5626
11:51:33.729,-10.8125,-18.0001
11:51:33.740,-10,-17.9376
11:51:33.749,-8.9375,-16.6251
11:51:33.759,-7.25,-12.25
11:51:33.769,-5.25,-7.5625
11:51:33.779,-2.125,-2
11:51:33.790,-0.0625,4.3125
11:51:33.799,3.0625,9
11:51:33.809,4.25,13.2501
11:51:33.819,6.1875,16.3751
11:51:33.845,6.75,18.3126
11:51:33.846,7.3125,19.8126
11:51:33.873,6.9375,21.7501
11:51:33.875,7.375,22.0001
11:51:33.877,6.6875,22.9376
11:51:33.911,7.1875,23.3126
11:51:33.914,7.3125,24.8126
11:51:33.917,7.6875,25.1251
11:51:33.919,7.3125,26.0626
11:51:33.924,7.6875,26.5626
11:51:33.956,6.875,26.8126
11:51:33.957,7.6875,27.3751
11:51:33.959,7.3125,27.6876
11:51:33.984,7,28.5626
11:51:33.985,7.625,27.5626
11:51:33.987,6.5625,27.4376
11:51:34.011,5.625,27.4376
11:51:34.013,5.625,26.0001
11:51:34.016,5.9375,24.6251
11:51:34.019,5.125,22.9376
11:51:34.030,4.625,23.1251
11:51:34.039,4.25,21.6876
11:51:34.049,4.5625,20.5626
11:51:34.059,3.6875,20.4376
11:51:34.071,4.25,19.8126
11:51:34.080,4.5625,19.5626
11:51:34.090,4,18.3751
11:51:34.100,3.125,18.8751
11:51:34.109,3.6875,18.1876
11:51:34.120,3.8125,16.9376
11:51:34.129,3.6875,16.7501
11:51:34.139,3.4375,15.8126
11:51:34.149,3.25,15.3126
11:51:34.159,2.3125,14.1251
11:51:34.169,2.125,15.0001
11:51:34.179,2.0625,12.875
11:51:34.192,1.125,12.0625
11:51:34.200,-0.6875,10
11:51:34.209,-0.5625,10
11:51:34.219,-0.875,8.6875
11:51:34.230,-1.8125,7.25
11:51:34.239,-2,7.875
11:51:34.249,-2.375,5.8125
11:51:34.259,-1.6875,4.875
11:51:34.270,-1.9375,4.625
11:51:34.288,-2.1875,3.75
11:51:34.294,-3.0625,2.0625
11:51:34.309,-4.125,2
11:51:34.312,-4.3125,0.875
11:51:34.327,-4.375,-0.625
11:51:34.330,-5.1875,-1.875
11:51:34.341,-5.3125,-2.5
11:51:34.350,-5.5,-2.25
11:51:34.368,-5.4375,-4.4375
11:51:34.370,-6.25,-4.625
11:51:34.388,-6.75,-5.8125
11:51:34.403,-7.0625,-6.8125
11:51:34.404,-6.625,-7.125
11:51:34.409,-7.625,-8.3125
11:51:34.419,-7.3125,-8.5
11:51:34.429,-6.875,-9.3125
11:51:34.440,-6.375,-9.375
11:51:34.449,-6.0625,-8.6875
11:51:34.459,-6,-10.0625
11:51:34.472,-6.5,-11
11:51:34.480,-7.5625,-11.375
11:51:34.489,-8.5625,-13.3751
11:51:34.499,-9.5,-14.0001
11:51:34.509,-9.625,-16.0626
11:51:34.526,-11,-15.7501
11:51:34.530,-11.375,-18.2501
11:51:34.561,-11.1875,-19.6251
11:51:34.564,-11.25,-18.8751
11:51:34.566,-11.4375,-20.1251
11:51:34.570,-11.625,-20.5001
11:51:34.607,-11.8125,-20.6876
11:51:34.609,-12.25,-21.4376
11:51:34.611,-12.8125,-22.5626
11:51:34.613,-12.75,-22.6876
11:51:34.621,-13.4376,-23.6876
11:51:34.654,-13.3126,-23.8751
11:51:34.655,-13.3126,-24.3126
11:51:34.657,-13.5001,-24.6251
11:51:34.665,-13.9376,-25.8751
11:51:34.696,-14.3751,-26.4376
11:51:34.699,-15.2501,-27.5626
11:51:34.702,-15.6876,-28.1876
11:51:34.708,-15.8751,-28.0626
11:51:34.716,-15.0001,-27.5626
11:51:34.725,-13.9376,-24.6251
11:51:34.735,-12.25,-20.5626
11:51:34.745,-10.8125,-17.1251
11:51:34.761,-8.8125,-10.9375
11:51:34.765,-6.9375,-7
11:51:34.775,-5.375,-1.625
11:51:34.785,-3.8125,1.0625
11:51:34.795,-2.125,4.875
11:51:34.804,-1.1875,7.625
11:51:34.815,-0.875,8.9375
11:51:34.824,-0.3125,11.75
11:51:34.834,-0.125,13.2501
11:51:34.846,-0.3125,14.3126
11:51:34.855,-0.1875,14.9376
11:51:34.866,-0.3125,16.5626
11:51:34.874,0.5,17.3126
11:51:34.884,1.25,18.8751
11:51:34.896,2.5,20.5001
11:51:34.904,2.6875,20.6876
11:51:34.915,3.4375,23.1876
11:51:34.925,4.875,23.7501
11:51:34.936,4.625,25.0626
11:51:34.944,4.625,24.7501
11:51:34.956,4.625,24.8126
11:51:34.966,3.8125,23.8126
11:51:34.974,3.0625,22.8751
11:51:34.986,2.5,21.3126
11:51:34.996,2.0625,20.5001
11:51:35.005,1.8125,20.0001
11:51:35.014,1.625,19.1251
11:51:35.025,2.0625,20.1251
11:51:35.034,2.9375,19.2501
11:51:35.045,3.25,19.1876
11:51:35.055,3.375,19.7501
11:51:35.064,2.4375,18.3126
11:51:35.074,2.8125,18.0001
11:51:35.086,1.5625,16.6876
11:51:35.096,1,15.9376
11:51:35.104,0.875,15.3751
11:51:35.116,-0.3125,15.3751
11:51:35.124,-1.5,14.4376
11:51:35.135,-1.1875,12.4375
11:51:35.145,-1.25,12.3125
11:51:35.155,-0.6875,13.1876
11:51:35.164,-0.75,11.5
11:51:35.176,-1.25,10.75
11:51:35.185,-1.25,11.5625
11:51:35.195,-1.1875,9.75
11:51:35.205,-2.5,8.1875
11:51:35.232,-3.0625,8.1875
11:51:35.234,-3.4375,7.0625
11:51:35.237,-3.9375,4.75
11:51:35.247,-4.25,5.75
11:51:35.256,-4.25,4.25
11:51:35.266,-4.125,3.1875
11:51:35.276,-3.4375,3.875
11:51:35.286,-4.5625,2
11:51:35.315,-3.3125,3
11:51:35.318,-3.625,0.8125
11:51:35.322,-3.375,1.3125
11:51:35.325,-4.5,-0.5
11:51:35.365,-4.875,-0.875
11:51:35.368,-5.8125,-2.125
11:51:35.373,-6,-2.375
11:51:35.373,-5.75,-2.9375
11:51:35.380,-5.0625,-3.4375
11:51:35.385,-4.375,-1.8125
11:51:35.425,-2.3125,-2.625
11:51:35.426,-1.75,-0.5
11:51:35.428,-1.125,-1.25
11:51:35.431,-0.8125,-3.0625
11:51:35.436,-1.125,-2.1875
11:51:35.446,-1.125,-3.8125
11:51:35.474,-1.3125,-4.6875
11:51:35.477,-1,-4.375
11:51:35.479,-2.4375,-5.375
11:51:35.486,-2.125,-6.8125
11:51:35.496,-2.9375,-7.8125
11:51:35.512,-3.1875,-8.25
11:51:35.516,-3.5625,-8.875
11:51:35.526,-3.3125,-9.625
11:51:35.536,-3.9375,-9.8125
11:51:35.545,-3.9375,-11.125
11:51:35.556,-5.8125,-12.75
11:51:35.566,-6.1875,-14.0001
11:51:35.576,-7.6875,-15.6876
11:51:35.596,-8.3125,-17.0001
11:51:35.603,-10.1875,-18.4376
11:51:35.617,-10.75,-20.3126
11:51:35.620,-12.375,-21.5626
11:51:35.628,-14.0626,-22.8751
11:51:35.635,-15.1251,-25.0626
11:51:35.645,-15.8126,-25.4376
11:51:35.655,-16.6251,-26.2501
11:51:35.670,-16.5626,-26.3751
11:51:35.687,-16.2501,-27.5001
11:51:35.689,-15.6876,-27.6876
11:51:35.698,-15.4376,-27.0626
11:51:35.704,-15.4376,-29.1876
11:51:35.716,-15.9376,-28.3126
11:51:35.726,-16.0001,-29.4376
11:51:35.736,-15.4376,-27.7501
11:51:35.744,-13.2501,-25.3751
11:51:35.756,-11.125,-20.9376
11:51:35.766,-7.8125,-14.1876
11:51:35.776,-4.0625,-8.6875
11:51:35.785,-2.375,-1.9375
11:51:35.795,1.25,2.625
11:51:35.806,2.5625,7.875
11:51:35.814,4.25,9.5
11:51:35.826,5.375,13.5626
11:51:35.835,6.625,15.3126
11:51:35.844,6.875,16.5001
11:51:35.856,7.0625,17.4376
11:51:35.864,8.4375,19.1876
11:51:35.875,8.3125,19.5626
11:51:35.887,8.6875,21.3751
11:51:35.896,9.25,22.8751
11:51:35.906,9.6875,24.0001
11:51:35.916,8.9375,24.1251
11:51:35.925,8.75,23.8751
11:51:35.936,8.0625,23.5001
11:51:35.945,6.875,23.2501
11:51:35.956,5.5625,24.3126
11:51:35.965,6.1875,24.5001
11:51:35.976,6.875,24.2501
11:51:35.985,6.6875,23.6251
11:51:36.025,5.6875,23.9376
11:51:36.028,5.4375,22.1876
11:51:36.030,5.25,21.3751
11:51:36.033,4.4375,20.2501
11:51:36.036,2.1875,18.6251
11:51:36.080,2.125,17.0626
11:51:36.081,1.0625,15.1251
11:51:36.085,1.5625,16.6251
11:51:36.116,2.25,16.3126
11:51:36.116,3.125,16.2501
11:51:36.117,2.6875,15.6876
11:51:36.119,3,17.3126
11:51:36.126,3.75,17.8126
11:51:36.127,4.25,16.7501
11:51:36.142,4.125,15.6251
11:51:36.146,4.125,17.0001
11:51:36.173,3.25,16.1251
11:51:36.176,2.8125,14.5001
11:51:36.178,2.625,14.9376
11:51:36.186,2.4375,13.5626
11:51:36.196,1.625,12.8125
11:51:36.206,0.875,10.875
11:51:36.215,0.625,10.6875
11:51:36.225,0.6875,11.1875
11:51:36.234,0.6875,10.375
11:51:36.245,1.3125,10.625
11:51:36.256,1.8125,9.5625
11:51:36.269,1.375,7.875
11:51:36.275,1,7.9375
11:51:36.285,0.625,8.0625
11:51:36.295,0.625,6.25
11:51:36.306,-0.125,4
11:51:36.315,-0.0625,4.625
11:51:36.325,0.5625,4.5625
11:51:36.335,0.5625,2.875
11:51:36.346,0.0625,3.4375
11:51:36.356,0.0625,2.1875
11:51:36.366,-0.875,0.4375
11:51:36.376,-1.5625,-1.1875
11:51:36.385,-1.9375,-1.25
11:51:36.395,-1.8125,-2.5625
11:51:36.407,-2.125,-2.9375
11:51:36.415,-2,-3.125
11:51:36.427,-1.8125,-4.125
11:51:36.436,-1.3125,-4.75
11:51:36.446,-1.75,-5.25
11:51:36.457,-2.375,-4.875
11:51:36.466,-1.8125,-5.875
11:51:36.480,-2.6875,-7.1875
11:51:36.485,-3.75,-7.5
11:51:36.513,-4.3125,-8.875
11:51:36.514,-5.1875,-11
11:51:36.517,-7.0625,-12
11:51:36.526,-8.25,-13.6876
11:51:36.536,-8.0625,-14.8126
11:51:36.546,-8.625,-14.1251
11:51:36.557,-8.4375,-16.1876
11:51:36.565,-8.875,-15.4376
11:51:36.576,-9.125,-17.1251
11:51:36.585,-8.75,-17.3126
11:51:36.595,-9.0625,-17.2501
11:51:36.605,-9.375,-18.5626
11:51:36.616,-9.875,-18.5626
11:51:36.625,-9.75,-19.8126
11:51:36.636,-9.625,-20.6251
11:51:36.644,-9.5625,-20.3751
11:51:36.655,-10.3125,-21.0626
11:51:36.666,-9.6875,-21.7501
11:51:36.676,-9.6875,-22.0001
11:51:36.685,-9.6875,-22.9376
11:51:36.696,-11.3125,-23.9376
11:51:36.707,-11.125,-24.5001
11:51:36.715,-11.1875,-23.5001
11:51:36.725,-9.5625,-21.3126
11:51:36.736,-7.375,-17.3126
11:51:36.745,-5.1875,-11.8125
11:51:36.756,-3.25,-7.625
11:51:36.775,-0.5625,-3.3125
11:51:36.777,0.9375,2.3125
11:51:36.812,2.5,5.625
11:51:36.813,3.3125,8.625
11:51:36.816,3.875,10.875
11:51:36.818,3.6875,12.5
11:51:36.853,4.125,13.7501
11:51:36.854,4.5625,14.4376
11:51:36.857,4,15.8751
11:51:36.885,4.5625,15.5001
11:51:36.885,4.25,17.5001
11:51:36.887,5.5625,18.3751
11:51:36.960,5.5625,19.8126
11:51:36.963,5.625,19.5626
11:51:36.963,5.375,19.8751
11:51:36.978,5.5625,19.9376
11:51:36.994,5.375,20.5626
11:51:36.994,6.1875,22.1251
11:51:36.994,6.6875,22.6876
11:51:36.994,7.3125,23.6876
11:51:37.009,8.25,22.6251
11:51:37.024,7.8125,21.9376
11:51:37.027,7.5625,20.8751
11:51:37.030,7.25,21.3126
11:51:37.037,6.25,19.5626
11:51:37.047,6.0625,18.0626
11:51:37.056,4.75,16.8126
11:51:37.066,4.1875,16.6251
11:51:37.076,4.5625,16.4376
11:51:37.085,5.6875,16.4376
11:51:37.096,6.0625,16.8126
11:51:37.106,6.9375,17.0001
11:51:37.115,7.3125,17.0001
11:51:37.126,7.9375,17.3751
11:51:37.137,7.4375,16.8751
11:51:37.146,7.4375,16.4376
11:51:37.155,6.5,15.8126
11:51:37.165,6.625,16.3126
11:51:37.175,8.125,15.6876
11:51:37.185,7.75,14.5001
11:51:37.196,6.5,13.125
11:51:37.205,5.6875,13.0625
11:51:37.216,5.375,11.625
11:51:37.225,3.625,9.6875
11:51:37.235,2.4375,7.375
11:51:37.245,1.8125,7.0625
11:51:37.256,0.25,5.0625
11:51:37.266,-0.9375,3.25
11:51:37.275,-1.6875,3.1875
11:51:37.286,-1,2.0625
11:51:37.296,-0.625,1.1875
11:51:37.305,-0.1875,1.25
11:51:37.315,-0.0625,2.75
11:51:37.325,0.8125,1.8125
11:51:37.336,0.5,-0.0625
11:51:37.346,-0.8125,-0.375
11:51:37.355,-2,-2.8125
11:51:37.365,-3.1875,-4.75
11:51:37.375,-5.0625,-6.75
11:51:37.385,-6.1875,-7.875
11:51:37.396,-7.125,-9.0625
11:51:37.410,-7.5625,-10.1875
11:51:37.421,-8.375,-11.6875
11:51:37.430,-8.3125,-11.8125
11:51:37.461,-8.3125,-12
11:51:37.463,-7.875,-12.3125
11:51:37.466,-8.25,-11.75
11:51:37.471,-8.25,-13.3126
11:51:37.500,-9,-15.4376
11:51:37.503,-10.6875,-15.4376
11:51:37.505,-13.6876,-19.2501
11:51:37.513,-16.5626,-21.5626
11:51:37.545,-18.3126,-24.0626
11:51:37.547,-19.8126,-26.0001
11:51:37.550,-20.6251,-26.1876
11:51:37.552,-22.3751,-28.6876
11:51:37.590,-25.1876,-29.8126
11:51:37.591,-31.0626,-34.8751
11:51:37.594,-39.8752,-40.5627
11:51:37.624,-44.9377,-44.7502
11:51:37.625,-52.2502,-49.0627
11:51:37.626,-61.2502,-55.2502
11:51:37.628,-68.6878,-59.9377
11:51:37.634,-71.1878,-60.6877
11:51:37.642,-65.1878,-55.8127
11:51:37.651,-54.1877,-44.5002
11:51:37.661,-40.2502,-31.0626
11:51:37.670,-29.1876,-18.8126
11:51:37.680,-19.1876,-6.5
11:51:37.692,-13.0625,2
11:51:37.701,-6.4375,11.625
11:51:37.712,-0.6875,18.1251
11:51:37.720,2.625,24.1876
11:51:37.731,4.1875,25.7501
11:51:37.740,5.8125,30.1876
11:51:37.753,10.75,33.9376
11:51:37.760,15.1251,37.5626
11:51:37.792,18.4376,42.3127
11:51:37.795,20.6251,43.7502
11:51:37.797,22.5626,45.1877
11:51:37.804,24.3751,47.0002
11:51:37.811,25.0001,48.5002
11:51:37.822,25.4376,48.5002
11:51:37.830,25.5626,49.3752
11:51:37.841,26.6876,50.1252
11:51:37.852,26.1251,49.9377
11:51:37.860,25.4376,48.6252
11:51:37.870,25.0001,49.2502
11:51:37.881,24.5001,48.6252
11:51:37.892,23.6876,47.0627
11:51:37.902,22.8751,46.1877
11:51:37.910,23.3751,44.9377
11:51:37.921,22.5001,42.7502
11:51:37.930,21.5001,41.2502
11:51:37.941,20.7501,38.8126
11:51:37.950,20.1251,36.6251
11:51:37.960,19.4376,34.5626
11:51:37.970,18.4376,33.4376
11:51:37.983,17.1876,31.0001
11:51:37.990,16.3126,29.7501
11:51:38.001,15.0001,28.4376
11:51:38.010,14.3126,26.9376
11:51:38.021,11.875,25.3126
11:51:38.030,10.625,23.5626
11:51:38.041,9.9375,20.6251
11:51:38.051,8.25,19.8126
11:51:38.061,7.125,17.1876
11:51:38.072,5.4375,16.1876
11:51:38.081,5.1875,14.0001
11:51:38.090,3.5625,11.375
11:51:38.101,0.375,8.5625
11:51:38.110,-1.375,6.75
11:51:38.120,-3.875,3.875
11:51:38.130,-4.3125,1.625
11:51:38.144,-6.1875,-0.875
11:51:38.176,-7.375,-1.75
11:51:38.177,-6.875,-2.125
11:51:38.179,-5.9375,-3.625
11:51:38.182,-6,-4.8125
11:51:38.254,-5.25,-2.9375
11:51:38.255,-4.5625,-3.5625
11:51:38.258,-4.25,-4.4375
11:51:38.259,-4.875,-6.6875
11:51:38.263,-5.25,-5.375
11:51:38.295,-3.6875,-6.0625
11:51:38.295,-2.9375,-6.8125
11:51:38.295,-3,-8.5625
11:51:38.298,-2.125,-8
11:51:38.326,-2,-8.875
11:51:38.335,-1.75,-9.8125
11:51:38.335,-1.5625,-9.9375
11:51:38.335,-1.8125,-11.125
11:51:38.336,-2.4375,-11.875
11:51:38.346,-3.25,-13.3751
11:51:38.420,-3.625,-14.5001
11:51:38.424,-4.125,-16.2501
11:51:38.424,-4.875,-15.6251
11:51:38.429,-4.9375,-17.0001
11:51:38.433,-4.75,-18.2501
11:51:38.433,-3.6875,-17.8751
11:51:38.435,-4.1875,-18.1876
11:51:38.446,-3.75,-18.2501
11:51:38.457,-4.4375,-18.9376
11:51:38.466,-4.5625,-19.5001
11:51:38.475,-4.875,-19.5626
11:51:38.485,-4.75,-20.6876
11:51:38.497,-4.6875,-21.8126
11:51:38.505,-5.1875,-22.6251
11:51:38.517,-4.6875,-23.6876
11:51:38.531,-5.375,-24.2501
11:51:38.535,-4.8125,-24.7501
11:51:38.548,-4.9375,-24.9376
11:51:38.555,-4.6875,-25.6876
11:51:38.568,-5.125,-24.8751
11:51:38.577,-4.9375,-25.1251
11:51:38.585,-4.5625,-26.1251
11:51:38.595,-2.25,-25.6876
11:51:38.605,-1,-24.9376
11:51:38.617,1.125,-23.8126
11:51:38.626,2.9375,-20.8126
11:51:38.636,5.9375,-18.8126
11:51:38.645,8.3125,-14.3751
11:51:38.655,11.625,-9.75
11:51:38.665,14.3126,-3.5625
11:51:38.676,17.6876,1.625
11:51:38.686,18.1876,6.1875
11:51:38.695,19.5626,8.8125
11:51:38.706,18.6251,11
11:51:38.717,18.5001,11.8125
11:51:38.726,17.5626,12.375
11:51:38.741,16.8751,13.6251
11:51:38.751,16.5001,13.125
11:51:38.760,15.3751,13
11:51:38.770,13.7501,12.1875
11:51:38.781,11.6875,12.25
11:51:38.792,10.9375,10.75
11:51:38.802,9.4375,9.3125
11:51:38.811,8.375,9.875
11:51:38.821,7.3125,8
11:51:38.833,5.25,7.75
11:51:38.840,4.625,7.875
11:51:38.850,4.0625,7.0625
11:51:38.861,3.25,5.8125
11:51:38.871,2.5625,5.9375
11:51:38.882,1.1875,6.125
11:51:38.894,1.125,5.3125
11:51:38.900,0.1875,4.25
11:51:38.910,-0.75,2.0625
11:51:38.957,-1.3125,1.75
11:51:38.959,-1.375,-0.5
11:51:38.962,-0.75,0.625
11:51:38.991,0.1875,0.5
11:51:38.991,1.3125,-0.0625
11:51:38.992,1.6875,0.6875
11:51:38.997,1.375,1.8125
11:51:38.999,1.5625,0.875
11:51:39.002,0.5625,-0.5625
11:51:39.036,-0.25,0
11:51:39.045,-0.4375,-1.25
11:51:39.045,-2.875,-2.9375
11:51:39.045,-4.25,-2.6875
11:51:39.073,-4.8125,-4.125
11:51:39.074,-4.8125,-4.875
11:51:39.077,-5.6875,-6.75
11:51:39.103,-6.125,-5.8125
11:51:39.106,-6.25,-7.375
11:51:39.108,-6.9375,-7.75
11:51:39.111,-6.9375,-7.625
11:51:39.120,-7.5,-8.3125
11:51:39.130,-7.625,-10
11:51:39.140,-8.5625,-11.6875
11:51:39.154,-8.8125,-11.4375
11:51:39.160,-8.5,-11.3125
11:51:39.173,-8.375,-12.9375
11:51:39.180,-9.4375,-12
11:51:39.190,-9.75,-14.5626
11:51:39.200,-9.9375,-14.5001
11:51:39.211,-9.75,-15.0626
11:51:39.221,-9.4375,-16.4376
11:51:39.230,-8.75,-14.9376
11:51:39.242,-8.25,-15.1251
11:51:39.251,-8.5,-15.8751
11:51:39.261,-8.25,-16.4376
11:51:39.272,-8.625,-16.4376
11:51:39.280,-8.5625,-17.3751
11:51:39.290,-8.9375,-17.1876
11:51:39.301,-8.75,-18.9376
11:51:39.310,-8.875,-18.1876
11:51:39.320,-8.75,-19.6876
11:51:39.332,-9.4375,-20.1251
11:51:39.372,-9.5,-20.1876
11:51:39.374,-9.125,-21.0001
11:51:39.377,-9.875,-20.6876
11:51:39.383,-9.6875,-22.4376
11:51:39.384,-10.125,-22.3126
11:51:39.390,-9.3125,-24.1251
11:51:39.400,-9.4375,-22.8126
11:51:39.410,-8.625,-24.2501
11:51:39.422,-8.5,-22.5626
11:51:39.430,-7.375,-24.1876
11:51:39.440,-8.125,-22.7501
11:51:39.451,-6.5625,-23.8126
11:51:39.461,-6.1875,-22.8751
11:51:39.470,-5.25,-23.6251
11:51:39.481,-5.4375,-22.8751
11:51:39.490,-5.5,-23.8126
11:51:39.500,-4.625,-23.9376
11:51:39.513,-4.6875,-23.8126
11:51:39.526,-4.875,-24.5626
11:51:39.540,-5.0625,-26.0001
11:51:39.543,-6,-27.6251
11:51:39.550,-7.5625,-29.0626
11:51:39.563,-8.875,-30.7501
11:51:39.571,-10.5,-33.1876
11:51:39.590,-12.0625,-36.0626
11:51:39.592,-14.4376,-37.8751
11:51:39.607,-17.1876,-41.6877
11:51:39.612,-19.7501,-42.5002
11:51:39.622,-20.6251,-44.7502
11:51:39.630,-23.1251,-46.2502
11:51:39.645,-24.0001,-48.0627
11:51:39.651,-25.8126,-49.9377
11:51:39.661,-26.7501,-48.8752
11:51:39.670,-26.2501,-50.1252
11:51:39.693,-25.7501,-49.0002
11:51:39.696,-24.2501,-43.8127
11:51:39.734,-22.3751,-40.3127
11:51:39.734,-19.6876,-34.0626
11:51:39.737,-17.6251,-28.2501
11:51:39.740,-15.6251,-23.5001
11:51:39.742,-14.8751,-19.3751
11:51:39.773,-14.2501,-15.5001
11:51:39.775,-12.625,-13.6251
11:51:39.779,-12.625,-12
11:51:39.782,-11.4375,-8.6875
11:51:39.820,-10.625,-6.1875
11:51:39.822,-8.3125,-4.3125
11:51:39.824,-6.5625,-1.75
11:51:39.851,-4.1875,0.5
11:51:39.852,-4,1.8125
11:51:39.853,-4.5,3.3125
11:51:39.856,-5.3125,2.625
11:51:39.862,-6.8125,2
11:51:39.873,-6.625,3.125
11:51:39.883,-7,2.125
11:51:39.893,-6.1875,4.625
11:51:39.901,-5.25,5.25
11:51:39.912,-5.25,4.625
11:51:39.921,-5.125,5.625
11:51:39.930,-5.875,5.5
11:51:39.940,-5.5,4.1875
11:51:39.952,-5.625,4.125
11:51:39.962,-5.75,2.75
11:51:39.974,-6.9375,2.25
11:51:39.981,-6.8125,2.5625
11:51:39.993,-6.75,1.125
11:51:40.000,-6.125,0.5625
11:51:40.010,-6.4375,1.4375
11:51:40.025,-5,0.625
11:51:40.031,-4.8125,1.75
11:51:40.041,-5.125,1.625
11:51:40.053,-4.75,2.3125
11:51:40.062,-3.8125,2
11:51:40.071,-4.4375,2.6875
11:51:40.081,-3.875,2.1875
11:51:40.091,-4.1875,2.875
11:51:40.100,-3.6875,2.25
11:51:40.110,-3.625,2.125
11:51:40.120,-4.3125,1.125
11:51:40.133,-3.4375,0.5625
11:51:40.142,-4.3125,0
11:51:40.153,-3.6875,0.75
11:51:40.188,-3.6875,-0.5
11:51:40.189,-3,-0.4375
11:51:40.193,-2.875,-1.4375
11:51:40.197,-3,-1.4375
11:51:40.201,-3.0625,-2.6875
11:51:40.213,-4.25,-3.6875
11:51:40.222,-3.75,-4.375
11:51:40.233,-3.0625,-4.5
11:51:40.240,-0.875,-3.75
11:51:40.250,-0.4375,-3.875
11:51:40.260,2.0625,-2.875
11:51:40.272,3.6875,-1.1875
11:51:40.281,6.375,0.125
11:51:40.292,7,-0.125
11:51:40.300,6.75,-0.5
11:51:40.310,7.25,-1.25
11:51:40.323,6.8125,-0.375
11:51:40.352,6.75,-2.625
11:51:40.354,6.1875,-2.9375
11:51:40.357,4.3125,-5.5
11:51:40.362,1.875,-8
11:51:40.372,0.125,-11.25
11:51:40.415,-2.125,-12.375
11:51:40.417,-4.5625,-15.6876
11:51:40.419,-7.3125,-19.5626
11:51:40.424,-9.8125,-22.3126
11:51:40.424,-12.5,-24.1251
11:51:40.436,-14.4376,-26.0626
11:51:40.473,-15.5626,-28.1876
11:51:40.476,-17.6251,-30.9376
11:51:40.478,-19.1251,-32.1876
11:51:40.481,-20.0626,-34.6876
11:51:40.486,-22.2501,-35.2501
11:51:40.492,-23.3126,-38.6251
11:51:40.521,-25.3751,-40.9377
11:51:40.525,-27.5626,-43.1877
11:51:40.526,-28.9376,-45.1252
11:51:40.532,-29.7501,-45.3752
11:51:40.559,-29.5626,-46.5002
11:51:40.562,-30.3751,-46.8752
11:51:40.565,-29.5626,-47.2502
11:51:40.570,-29.9376,-47.8752
11:51:40.607,-30.6251,-48.3127
11:51:40.609,-29.5626,-48.1877
11:51:40.612,-29.5626,-48.0627
11:51:40.614,-27.9376,-48.1877
11:51:40.621,-27.0626,-46.4377
11:51:40.631,-25.6251,-45.3752
11:51:40.642,-24.4376,-42.6252
11:51:40.651,-21.8751,-40.8752
11:51:40.660,-20.0001,-36.0626
11:51:40.671,-18.8751,-32.1251
11:51:40.682,-18.6251,-26.9376
11:51:40.692,-16.0001,-21.4376
11:51:40.702,-14.0626,-15.3126
11:51:40.710,-11.0625,-11.5
11:51:40.720,-10.9375,-6.1875
11:51:40.731,-9.0625,-4.375
11:51:40.741,-7.9375,-0.1875
11:51:40.752,-5.9375,1.9375
11:51:40.762,-5.5625,4.25
11:51:40.776,-5.25,5.375
11:51:40.781,-5.375,6.8125
11:51:40.793,-4.375,7.625
11:51:40.802,-4.25,9.0625
11:51:40.820,-2.5,10
11:51:40.825,-2.25,13.5001
11:51:40.840,-2.0625,12.5625
11:51:40.843,-0.8125,14.3751
11:51:40.852,0.25,15.1876
11:51:40.863,0.8125,16.4376
11:51:40.872,1.1875,16.1876
11:51:40.887,0.5,17.3126
11:51:40.902,1.375,16.4376
11:51:40.905,0.875,16.7501
11:51:40.912,0.5625,15.5001
11:51:40.922,0.4375,14.1251
11:51:40.932,0.6875,14.8126
11:51:40.941,0.6875,13.5626
11:51:40.952,0.4375,13.6876
11:51:40.960,-0.0625,12.0625
11:51:40.972,0.1875,11.6875
11:51:40.981,-0.0625,12.4375
11:51:40.990,0.6875,12.8125
11:51:41.000,1.0625,11.5
11:51:41.012,2,12.5
11:51:41.022,1.6875,13.2501
11:51:41.032,3.3125,12.375
11:51:41.042,3.125,11.6875
11:51:41.052,3.4375,11.1875
11:51:41.061,3.375,11.5625
11:51:41.072,3.25,11.0625
11:51:41.098,2.75,10.875
11:51:41.101,4.1875,11.3125
11:51:41.104,4.9375,11
11:51:41.132,5.8125,11.9375
11:51:41.138,6.875,11.4375
11:51:41.140,8.1875,12.4375
11:51:41.143,10.25,12.3125
11:51:41.180,10.3125,13.1251
11:51:41.182,12.25,13.1251
11:51:41.186,12.4375,12.625
11:51:41.191,12.5,13.2501
11:51:41.192,13,12
11:51:41.222,12,9.75
11:51:41.225,11.125,9.0625
11:51:41.227,9.875,6.6875
11:51:41.232,7.625,4.875
11:51:41.262,6.1875,3.8125
11:51:41.264,4.875,0.75
11:51:41.267,3.125,-2.1875
11:51:41.273,1.0625,-4.0625
11:51:41.282,-0.625,-6.3125
11:51:41.292,-3.25,-9.875
11:51:41.302,-5.9375,-12.8125
11:51:41.313,-8.1875,-15.4376
11:51:41.322,-10.5625,-19.0626
11:51:41.332,-13.1876,-21.3126
11:51:41.342,-15.1876,-23.3126
11:51:41.352,-16.8751,-26.1251
11:51:41.363,-18.3751,-28.8126
11:51:41.373,-19.9376,-29.6876
11:51:41.382,-20.3751,-31.5001
11:51:41.392,-21.6251,-33.3126
11:51:41.402,-22.5001,-34.5001
11:51:41.412,-22.0001,-34.9376
11:51:41.425,-22.9376,-36.5001
11:51:41.432,-23.1876,-36.3751
11:51:41.442,-23.5626,-38.2501
11:51:41.452,-24.3751,-39.1877
11:51:41.462,-24.6876,-40.1252
11:51:41.472,-24.1251,-40.5627
11:51:41.482,-23.9376,-41.1252
11:51:41.492,-23.4376,-39.4377
11:51:41.502,-22.3126,-40.1877
11:51:41.512,-21.4376,-38.5626
11:51:41.522,-20.1876,-38.4376
11:51:41.532,-18.6876,-37.2501
11:51:41.542,-16.9376,-35.9376
11:51:41.552,-15.5001,-34.8126
11:51:41.562,-14.1251,-34.8751
11:51:41.572,-13.3751,-33.3751
11:51:41.582,-12.75,-33.6876
11:51:41.592,-12.125,-33.1251
11:51:41.604,-13.9376,-35.2501
11:51:41.632,-15.8751,-35.9376
11:51:41.635,-18.1251,-38.2501
11:51:41.637,-19.7501,-39.4377
11:51:41.642,-20.9376,-40.4377
11:51:41.653,-21.0626,-39.3127
11:51:41.662,-20.3126,-37.6876
11:51:41.672,-18.3751,-32.8751
11:51:41.682,-15.0001,-27.6251
11:51:41.691,-12.4375,-20.7501
11:51:41.703,-9,-15.5626
11:51:41.712,-7.125,-8.625
11:51:41.720,-5,-5
11:51:41.732,-3.125,-0.25
11:51:41.742,-1.875,2.5625
11:51:41.752,-1,4.3125
11:51:41.762,-0.3125,7.1875
11:51:41.772,-0.5,9.25
11:51:41.784,0.4375,11.125
11:51:41.790,1.375,11.625
11:51:41.803,2.0625,14.2501
11:51:41.812,3,15.1876
11:51:41.822,3.0625,17.2501
11:51:41.832,3.9375,17.8126
11:51:41.841,4.6875,20.0001
11:51:41.863,5.25,20.8126
11:51:41.865,6.6875,22.1876
11:51:41.896,6.25,23.0001
11:51:41.898,7.75,23.2501
11:51:41.901,7.5,24.3751
11:51:41.903,7,24.1251
11:51:41.937,7.25,24.6251
11:51:41.940,7.9375,24.5001
11:51:41.943,7.375,23.6251
11:51:41.948,7.375,23.5001
11:51:41.950,8,22.1251
11:51:41.981,7.125,20.8751
11:51:41.984,7.1875,21.1251
11:51:41.986,7.5,20.0626
11:51:41.993,7.5625,20.7501
11:51:42.025,7.75,20.8126
11:51:42.028,8.875,20.3751
11:51:42.030,8.8125,20.2501
11:51:42.033,9.375,20.6876
11:51:42.050,10.375,21.1251
11:51:42.052,10.25,20.3751
11:51:42.062,10.75,20.7501
11:51:42.072,11.6875,21.4376
11:51:42.084,12.25,20.7501
11:51:42.092,13.1876,22.0626
11:51:42.102,14.5001,21.8126
11:51:42.122,15.0001,22.1876
11:51:42.129,15.3751,22.3751
11:51:42.143,16.2501,22.1876
11:51:42.145,16.9376,22.1251
11:51:42.152,16.8751,20.8751
11:51:42.162,15.8751,20.8751
11:51:42.183,15.8126,18.6251
11:51:42.186,14.7501,16.9376
11:51:42.200,13.5626,15.5626
11:51:42.202,13.3126,13.5626
11:51:42.212,11.625,11.3125
11:51:42.222,9.4375,8.5625
11:51:42.232,6.6875,6.125
11:51:42.242,5.0625,3.9375
11:51:42.252,3.25,0.6875
11:51:42.262,0.75,-1.625
11:51:42.272,-1.1875,-3.625
11:51:42.282,-2.6875,-6.5625
11:51:42.293,-4.1875,-8.4375
11:51:42.302,-5.625,-10.6875
11:51:42.312,-7.5,-11.875
11:51:42.322,-8.6875,-12.8125
11:51:42.332,-8.875,-15.5001
11:51:42.342,-10.0625,-16.9376
11:51:42.352,-11.3125,-18.6251
11:51:42.362,-12.0625,-20.4376
11:51:42.372,-12.5625,-20.7501
11:51:42.382,-12.25,-21.8126
11:51:42.392,-13.3126,-22.9376
11:51:42.403,-13.3751,-24.2501
11:51:42.414,-13.8751,-24.1251
11:51:42.422,-13.1876,-24.5626
11:51:42.432,-13.9376,-25.1876
11:51:42.442,-13.125,-25.8751
11:51:42.452,-12.5625,-25.3126
11:51:42.462,-10.875,-25.4376
11:51:42.472,-11,-24.1876
11:51:42.482,-10.375,-25.5626
11:51:42.492,-10.625,-26.0626
11:51:42.502,-10.5,-27.5001
11:51:42.512,-11.5,-27.8751
11:51:42.524,-12.8125,-29.4376
11:51:42.533,-14.8126,-30.2501
11:51:42.542,-16.5626,-32.8126
11:51:42.552,-17.8751,-34.1251
11:51:42.562,-19.3126,-36.1876
11:51:42.572,-20.3126,-36.5626
11:51:42.582,-21.3126,-38.1251
11:51:42.592,-20.7501,-37.5626
11:51:42.614,-21.1251,-38.4376
11:51:42.618,-20.3126,-38.1251
11:51:42.649,-20.5626,-38.3126
11:51:42.651,-19.8751,-37.6251
11:51:42.653,-19.3751,-37.8126
11:51:42.656,-18.2501,-36.8126
11:51:42.663,-18.4376,-36.0001
11:51:42.694,-16.7501,-33.3126
11:51:42.699,-15.0001,-29.6876
11:51:42.699,-11.4375,-23.8126
11:51:42.735,-7.5625,-17.3126
11:51:42.736,-3.6875,-9.4375
11:51:42.738,0.6875,-2.5625
11:51:42.745,3.4375,3.5
11:51:42.747,5.875,7.625
11:51:42.780,6.9375,10.4375
11:51:42.782,6.5,13
11:51:42.784,6.9375,13.1876
11:51:42.787,7.3125,15.1251
11:51:42.800,7.25,17.1876
11:51:42.807,8,17.6876
11:51:42.817,10.875,21.9376
11:51:42.827,29.0001,40.7502
11:51:42.837,34.1251,44.9377
11:51:42.849,39.1252,48.0627
11:51:42.857,44.5002,53.5627
11:51:42.867,46.5627,55.8127
11:51:42.877,49.0627,57.6252
11:51:42.887,51.3752,60.2502
11:51:42.912,52.4377,61.6252
11:51:42.914,54.3127,64.2502
11:51:42.917,54.3127,62.9377
11:51:42.927,53.5627,61.0002
11:51:42.937,50.8752,57.8127
11:51:42.947,48.4377,56.1252
11:51:42.957,46.0002,53.6877
11:51:42.967,43.8127,51.1877
11:51:42.977,41.4377,48.9377
11:51:42.987,39.7502,46.1252
11:51:42.997,38.2501,44.6252
11:51:43.007,37.9376,43.7502
11:51:43.018,38.1251,45.3752
11:51:43.027,38.6876,46.2502
11:51:43.038,39.2501,45.6252
11:51:43.047,40.5627,45.5627
11:51:43.058,41.4377,46.5002
11:51:43.068,42.6252,48.1252
11:51:43.079,43.6252,48.6252
11:51:43.087,43.1877,47.1252
11:51:43.097,42.2502,45.3752
11:51:43.107,40.5002,44.8127
11:51:43.117,37.9376,42.1877
11:51:43.127,35.9376,39.2502
11:51:43.137,33.4376,36.2501
11:51:43.148,30.9376,34.6876
11:51:43.157,29.0626,32.3751
11:51:43.167,28.8126,30.6876
11:51:43.181,27.8126,28.6251
11:51:43.187,27.3126,28.5626
11:51:43.197,26.3751,27.5626
11:51:43.207,25.2501,25.7501
11:51:43.217,24.8126,23.3751
11:51:43.228,25.6876,24.3126
11:51:43.239,26.0001,25.0001
11:51:43.247,27.1251,24.2501
11:51:43.278,27.3126,23.4376
11:51:43.281,26.7501,22.6876
11:51:43.283,25.5001,22.5626
11:51:43.316,23.6876,19.2501
11:51:43.317,22.4376,17.2501
11:51:43.320,22.0001,17.0001
11:51:43.325,21.9376,16.7501
11:51:43.328,22.0001,15.8751
11:51:43.357,21.1876,14.1876
11:51:43.360,21.1251,13.2501
11:51:43.362,20.2501,12.75
11:51:43.368,19.8751,11.0625
11:51:43.394,19.6876,10.4375
11:51:43.396,19.3751,10.4375
11:51:43.398,20.0626,10.625
11:51:43.440,20.8126,9.9375
11:51:43.442,20.2501,9.625
11:51:43.444,21.1251,8.625
11:51:43.447,20.3126,7.25
11:51:43.453,18.5626,5.9375
11:51:43.458,17.4376,5.5
11:51:43.478,16.0626,2.5625
11:51:43.481,14.5001,0.6875
11:51:43.495,11.9375,-1.375
11:51:43.498,10.6875,-1.625
11:51:43.507,10.6875,-2.8125
11:51:43.518,9.125,-4.6875
11:51:43.528,8.3125,-5.875
11:51:43.540,7.5625,-4.8125
11:51:43.547,7.3125,-6.875
11:51:43.557,6.5,-9
11:51:43.567,4.5,-10.0625
11:51:43.578,3.875,-10.25
11:51:43.588,3.5,-10.625
11:51:43.597,3.5625,-12.4375
11:51:43.607,2.9375,-13.2501
11:51:43.617,1.875,-14.1876
11:51:43.627,2.625,-14.4376
11:51:43.637,2.3125,-14.6876
11:51:43.648,2.3125,-13.9376
11:51:43.659,3,-11.0625
11:51:43.667,5.5,-7.8125
11:51:43.677,6.8125,-3.0625
11:51:43.687,9.375,3.375
11:51:43.697,12.125,8.125
11:51:43.707,14.0001,13.125
11:51:43.718,16.3751,19.1251
11:51:43.727,17.3751,21.6251
11:51:43.737,17.9376,24.8126
11:51:43.747,18.5626,26.6876
11:51:43.757,19.4376,28.4376
11:51:43.767,19.0626,29.5001
11:51:43.778,19.6251,31.7501
11:51:43.789,20.2501,32.5001
11:51:43.797,20.7501,35.0001
11:51:43.807,22.5001,36.7501
11:51:43.817,23.5001,38.2501
11:51:43.827,25.2501,41.5002
11:51:43.837,25.7501,42.6252
11:51:43.849,26.7501,43.5002
11:51:43.857,27.2501,45.6252
11:51:43.867,28.0626,45.8752
11:51:43.877,27.8751,46.3127
11:51:43.887,28.0626,46.1877
11:51:43.897,29.0001,47.3127
11:51:43.907,29.7501,47.8752
11:51:43.919,31.7501,49.6877
11:51:43.932,33.0626,50.5627
11:51:43.938,32.8751,49.5002
11:51:43.947,32.3751,47.7502
11:51:43.957,32.5626,47.3127
11:51:43.967,32.2501,46.4377
11:51:43.977,32.5626,47.1877
11:51:43.989,34.0626,47.6877
11:51:43.997,34.4376,47.3127
11:51:44.007,34.0626,47.7502
11:51:44.017,34.0001,46.8752
11:51:44.027,32.9376,46.0002
11:51:44.037,31.6876,43.8752
11:51:44.063,30.2501,43.3752
11:51:44.063,29.8751,42.3752
11:51:44.067,28.8126,40.8127
11:51:44.101,27.8126,39.6877
11:51:44.104,26.4376,39.0626
11:51:44.107,25.0001,37.3126
11:51:44.109,24.8751,35.8751
11:51:44.142,23.3751,33.8126
11:51:44.144,22.2501,32.6876
11:51:44.147,20.7501,31.6876
11:51:44.183,20.2501,29.8126
11:51:44.184,19.6251,28.6876
11:51:44.187,18.2501,27.8751
11:51:44.200,18.4376,27.0626
11:51:44.202,18.3126,25.5626
11:51:44.203,16.6251,23.6876
11:51:44.223,16.4376,22.9376
11:51:44.226,14.2501,21.3126
11:51:44.227,13.6251,19.6251
11:51:44.237,12.3125,17.6251
11:51:44.247,11.9375,17.0626
11:51:44.258,11.3125,16.8126
11:51:44.268,11.375,14.9376
11:51:44.277,10.125,13.5626
11:51:44.288,8.4375,11.1875
11:51:44.297,5.8125,10
11:51:44.307,3.8125,8.25
11:51:44.317,3.25,5.625
11:51:44.327,3.0625,5.1875
11:51:44.337,2.75,4.375
11:51:44.348,2.3125,3.875
11:51:44.358,1.4375,2
11:51:44.368,0.75,1.25
11:51:44.382,0.9375,0.75
11:51:44.392,-0.8125,-0.75
11:51:44.402,-1.4375,-2.375
11:51:44.412,-2.0625,-2.0625
11:51:44.422,-2.0625,-2.75
11:51:44.432,-0.875,-3.4375
11:51:44.442,-0.6875,-3.5
11:51:44.452,-0.625,-2.375
11:51:44.462,0.1875,-3.875
11:51:44.472,0,-4.5625
11:51:44.484,-1.25,-5.5
11:51:44.493,-2.0625,-6.75
11:51:44.509,-2.75,-7.5625
11:51:44.515,-2.75,-8.5625
11:51:44.526,-2.9375,-8.5
11:51:44.533,-2.3125,-9.1875
11:51:44.542,-2.4375,-10.5
11:51:44.552,-3.5,-11.0625
11:51:44.562,-3.375,-12.75
11:51:44.578,-3.9375,-11.5625
11:51:44.582,-4.4375,-13.5626
11:51:44.592,-4.4375,-14.1876
11:51:44.603,-3.5625,-14.0626
11:51:44.615,-4.1875,-14.3126
11:51:44.624,-4.25,-15.6251
11:51:44.633,-5.5,-17.4376
11:51:44.642,-5.6875,-17.5626
11:51:44.653,-7,-19.2501
11:51:44.662,-7.9375,-19.9376
11:51:44.680,-8.1875,-21.4376
11:51:44.683,-9.1875,-21.7501
11:51:44.692,-9.25,-21.6251
11:51:44.702,-9.375,-22.5001
11:51:44.723,-8.3125,-20.5001
11:51:44.733,-7,-18.1251
11:51:44.768,-5.75,-12.6875
11:51:44.770,-3.4375,-7.9375
11:51:44.782,-1.125,-2.5625
11:51:44.814,0.875,3.8125
11:51:44.845,3.5,8.0625
11:51:44.879,5.5625,13.5626
11:51:44.879,6.8125,16.6876
11:51:44.881,8.375,20.3751
11:51:44.895,10,22.6251
11:51:44.909,10.3125,24.6251
11:51:44.916,10.9375,25.7501
11:51:44.916,10.375,27.4376
11:51:44.916,10.3125,27.8751
11:51:44.919,9.25,28.6876
11:51:44.927,9.375,28.7501
11:51:44.951,9.625,29.2501
11:51:44.954,9.4375,31.9376
11:51:44.958,10.8125,32.4376
11:51:44.967,11.9375,34.2501
11:51:44.977,14.0001,36.4376
11:51:44.987,15.0001,37.4376
11:51:44.998,15.3126,39.0001
11:51:45.008,15.2501,38.3126
11:51:45.019,12.8125,38.1876
11:51:45.027,11.625,35.7501
11:51:45.037,11.5,35.4376
11:51:45.056,11.5625,34.9376
11:51:45.057,11.625,34.6251
11:51:45.069,11.5,34.1251
11:51:45.078,11.375,34.2501
11:51:45.087,10.75,32.6876
11:51:45.099,10.125,34.1876
11:51:45.108,11.0625,33.6251
11:51:45.117,11.3125,32.3751
11:51:45.128,10.9375,32.0626
11:51:45.138,11.625,33.2501
11:51:45.148,11.5,31.8751
11:51:45.163,10.5625,30.7501
11:51:45.168,9.75,31.0626
11:51:45.180,8.6875,28.2501
11:51:45.194,7.4375,26.0001
11:51:45.199,7.3125,25.9376
11:51:45.210,6.5,25.0626
11:51:45.219,7.25,23.6876
11:51:45.229,7.25,23.1876
11:51:45.237,7.1875,23.0626
11:51:45.251,8.875,22.8126
11:51:45.257,9,22.3751
11:51:45.268,8.75,22.9376
11:51:45.302,9.6875,20.9376
11:51:45.303,9.125,19.7501
11:51:45.305,9.5,20.5001
11:51:45.330,9.4375,19.3126
11:51:45.338,8.3125,17.5626
11:51:45.338,8.25,17.3126
11:51:45.370,7.9375,15.3751
11:51:45.370,7.3125,14.5001
11:51:45.370,6,12.5625
11:51:45.370,5,12
11:51:45.381,4.4375,10.6875
11:51:45.388,3.8125,8.875
11:51:45.402,2.9375,7.625
11:51:45.407,2.8125,8.25
11:51:45.417,3.25,6.125
11:51:45.432,3.6875,5.875
11:51:45.473,3.3125,5.625
11:51:45.474,3.1875,6
11:51:45.474,3.75,4.375
11:51:45.481,3.9375,3.6875
11:51:45.522,2.875,2.75
11:51:45.528,3.0625,1.5
11:51:45.528,2.9375,0.9375
11:51:45.528,2.3125,-0.5
11:51:45.552,2.625,-0.4375
11:51:45.552,2.625,-2
11:51:45.559,2.25,-1.375
11:51:45.559,2.625,-1.6875
11:51:45.615,3.8125,-2.125
11:51:45.615,3.5,-2.5
11:51:45.615,3.125,-3.0625
11:51:45.615,3.625,-3.9375
11:51:45.615,3.1875,-5.9375
11:51:45.627,2.625,-5.625
11:51:45.629,2.75,-5.875
11:51:45.629,2.9375,-7.0625
11:51:45.637,2.1875,-8.3125
11:51:45.650,1.125,-9.75
11:51:45.658,1.0625,-9.6875
11:51:45.667,0.6875,-11.375
11:51:45.678,0.1875,-12.125
11:51:45.687,-0.375,-13
11:51:45.697,-1.5,-13.5001
11:51:45.707,-1.6875,-14.1251
11:51:45.717,-1.5625,-13.8126
11:51:45.759,-1.25,-12.625
11:51:45.759,-0.8125,-9.5625
11:51:45.786,1.875,-3.6875
11:51:45.787,3.1875,1.5625
11:51:45.787,4.75,6.75
11:51:45.789,6.3125,10.5625
11:51:45.792,6.875,13.7501
11:51:45.797,9.125,18.1251
11:51:45.820,9.4375,20.7501
11:51:45.820,9.6875,23.0001
11:51:45.827,10,24.1876
11:51:45.837,11.1875,26.8126
11:51:45.847,10.625,26.3751
11:51:45.857,11.125,28.9376
11:51:45.869,11.25,28.8126
11:51:45.877,12.25,30.0626
11:51:45.887,11.5,29.8126
11:51:45.898,11.75,32.3751
11:51:45.909,12.625,31.7501
11:51:45.919,11.8125,31.9376
11:51:45.927,11.9375,32.3751
11:51:45.937,12.1875,34.1876
11:51:45.949,13.5001,34.6876
11:51:45.957,13.1251,34.5626
11:51:45.967,13.1251,35.6876
11:51:45.977,13.4376,34.2501
11:51:45.988,12.625,32.8126
11:51:45.997,11.5625,31.8126
11:51:46.008,10.625,30.2501
11:51:46.029,9.75,28.7501
11:51:46.036,8.625,27.5001
11:51:46.037,8.1875,26.6251
11:51:46.047,6.6875,24.6876
11:51:46.059,5.4375,23.8126
11:51:46.068,3.6875,23.1876
11:51:46.083,2.6875,20.6876
11:51:46.093,1.375,19.4376
11:51:46.100,0.3125,19.8126
11:51:46.112,0.1875,18.1251
11:51:46.117,-0.3125,18.0001
11:51:46.136,-0.5625,17.8126
11:51:46.140,0.4375,17.5001
11:51:46.157,-0.125,16.6876
11:51:46.171,0.375,17.7501
11:51:46.178,0.8125,16.7501
11:51:46.180,0.375,15.1876
11:51:46.213,-0.8125,14.7501
11:51:46.216,-0.5,13.9376
11:51:46.289,-0.75,13.0625
11:51:46.291,-1.75,12.3125
11:51:46.291,-0.8125,12
11:51:46.291,-0.5,11.5625
11:51:46.292,-0.875,9.875
11:51:46.295,-0.4375,9.5
11:51:46.300,-0.9375,10.125
11:51:46.300,-0.25,8.0625
11:51:46.300,-1.125,7.0625
11:51:46.333,-1.25,7
11:51:46.335,-2.1875,4.5625
11:51:46.337,-2.8125,4.75
11:51:46.340,-2.6875,2.625
11:51:46.357,-3.5625,1.6875
11:51:46.360,-4.6875,1.0625
11:51:46.368,-4.5,0.4375
11:51:46.377,-3.5625,0.125
11:51:46.388,-4.125,-1.4375
11:51:46.397,-4.1875,-1.875
11:51:46.407,-5.1875,-3.375
11:51:46.417,-6.5,-4.875
11:51:46.428,-7.1875,-6.0625
11:51:46.437,-8,-6.5625
11:51:46.447,-8.625,-7.1875
11:51:46.457,-7.875,-8.875
11:51:46.467,-8.4375,-9.875
11:51:46.478,-9,-9.9375
11:51:46.490,-9.5625,-11.375
11:51:46.497,-9.4375,-12.25
11:51:46.507,-8.25,-12.375
11:51:46.517,-8.9375,-12.125
11:51:46.529,-8.5,-13.0625
11:51:46.537,-8.625,-14.7501
11:51:46.548,-8.625,-13.9376
11:51:46.557,-9.1875,-16.0626
11:51:46.567,-10.5,-16.8751
11:51:46.580,-11.5,-19.2501
11:51:46.587,-11.5625,-18.6876
11:51:46.598,-12.875,-19.8126
11:51:46.608,-12.1875,-20.3126
11:51:46.617,-13.3126,-22.0001
11:51:46.627,-13,-21.5001
11:51:46.637,-12.9375,-22.0001
11:51:46.648,-11.5,-19.1251
11:51:46.657,-10.0625,-16.2501
11:51:46.668,-8.3125,-11.625
11:51:46.678,-5.375,-6.5
11:51:46.687,-2.4375,0.25
11:51:46.697,0.4375,5.625
11:51:46.708,2.125,11.0625
11:51:46.717,4.1875,15.1251
11:51:46.752,5.375,18.5001
11:51:46.754,5.4375,20.4376
11:51:46.757,4.8125,22.3751
11:51:46.760,5.3125,22.3126
11:51:46.769,4.5625,23.5626
11:51:46.777,4.4375,23.6251
11:51:46.787,4.8125,25.5001
11:51:46.798,4.875,26.9376
11:51:46.808,5.9375,28.3751
11:51:46.822,6.125,28.7501
11:51:46.834,6.6875,31.1251
11:51:46.842,6.9375,31.5626
11:51:46.853,6.5625,32.5626
11:51:46.863,6.875,33.5626
11:51:46.873,7.0625,32.9376
11:51:46.882,6.75,32.8126
11:51:46.892,6.375,34.5626
11:51:46.903,7.0625,33.9376
11:51:46.923,6.3125,32.5626
11:51:46.925,6,33.3751
11:51:46.933,6.5625,32.0626
11:51:46.942,6.125,31.1251
11:51:46.960,4.625,29.1251
11:51:46.967,4.5,28.3126
11:51:46.993,4,27.6251
11:51:46.996,3.6875,26.6876
11:51:46.998,3.9375,27.3751
11:51:47.003,4.4375,26.9376
11:51:47.042,4.4375,25.9376
11:51:47.044,4.625,27.2501
11:51:47.047,5.625,26.7501
11:51:47.049,5.8125,26.3751
11:51:47.054,5.5,26.6876
11:51:47.068,6,25.9376
11:51:47.072,4.1875,25.0001
11:51:47.115,3.375,24.3126
11:51:47.118,2.875,22.9376
11:51:47.121,2.875,21.1876
11:51:47.124,1.875,19.6876
11:51:47.127,0.8125,18.5001
11:51:47.143,0.75,18.5001
11:51:47.144,1.5,17.4376
11:51:47.153,0.75,16.0626
11:51:47.163,0.0625,15.8751
11:51:47.173,0.3125,13.6251
11:51:47.183,-0.875,12.1875
11:51:47.192,-1.4375,11.3125
11:51:47.202,-2.3125,11
11:51:47.214,-1.8125,9.0625
11:51:47.223,-2.625,8.0625
11:51:47.233,-2.3125,7.5
11:51:47.243,-1.875,6.0625
11:51:47.253,-2.6875,5.625
11:51:47.263,-3.0625,5.25
11:51:47.272,-3.125,5.375
11:51:47.283,-4.25,3.5625
11:51:47.295,-4.25,1.625
11:51:47.303,-4.5,0.4375
11:51:47.313,-5.1875,0
11:51:47.323,-6.3125,-2.0625
11:51:47.333,-6.9375,-3.25
11:51:47.343,-7.125,-3.5625
11:51:47.353,-7.6875,-4.25
11:51:47.363,-7.0625,-5.125
11:51:47.374,-8.5625,-6.6875
11:51:47.383,-7.75,-7.0625
11:51:47.393,-8.0625,-7.375
11:51:47.403,-7.8125,-7.9375
11:51:47.418,-7.9375,-9.125
11:51:47.426,-8.875,-8.8125
11:51:47.432,-8.375,-11.375
11:51:47.448,-9.4375,-12.0625
11:51:47.465,-9.5,-12.625
11:51:47.468,-10.375,-14.7501
11:51:47.474,-10.125,-13.9376
11:51:47.483,-10.25,-15.6876
11:51:47.493,-11.1875,-15.3751
11:51:47.503,-11.0625,-17.5001
11:51:47.518,-10.6875,-16.1251
11:51:47.533,-11.6875,-18.7501
11:51:47.536,-12.25,-18.2501
11:51:47.550,-12.625,-20.8751
11:51:47.567,-12.875,-20.3126
11:51:47.568,-13.3751,-21.8751
11:51:47.583,-13.0625,-21.6876
11:51:47.589,-12.4375,-21.1251
11:51:47.595,-12.125,-19.1876
11:51:47.603,-9.625,-15.8751
11:51:47.613,-7.8125,-11.5
11:51:47.624,-5.9375,-4.875
11:51:47.643,-3.1875,-0.1875
11:51:47.645,-1.1875,4.75
11:51:47.680,1.25,10.1875
11:51:47.683,3.125,14.3751
11:51:47.685,5.25,18.5626
11:51:47.688,6.25,21.1876
11:51:47.694,6.3125,23.7501
11:51:47.722,7.6875,25.5626
11:51:47.724,7.75,27.1876
11:51:47.727,8.375,29.7501
11:51:47.733,8.5,30.5001
11:51:47.762,8.875,31.4376
11:51:47.765,9.125,33.7501
11:51:47.767,9.3125,34.6251
11:51:47.795,10.125,36.1876
11:51:47.796,10.8125,38.8751
11:51:47.798,11,39.3127
11:51:47.804,11.5625,41.4377
11:51:47.814,12.875,42.0002
11:51:47.823,13.125,42.6252
11:51:47.833,13.125,42.7502
11:51:47.843,13.0625,42.5627
11:51:47.852,13.2501,43.0002
11:51:47.863,13.5626,42.5627
11:51:47.873,13,41.1252
11:51:47.882,12.8125,40.6877
11:51:47.895,14.3751,41.5627
11:51:47.903,15.6251,41.5002
11:51:47.913,18.3126,44.3127
11:51:47.923,19.7501,45.5627
11:51:47.933,21.6251,45.5002
11:51:47.943,22.7501,46.1252
11:51:47.952,23.5001,47.3752
11:51:47.963,25.0626,47.8127
11:51:47.974,24.1251,47.5627
11:51:47.982,23.9376,47.3752
11:51:47.993,23.3126,45.3127
11:51:48.003,21.9376,45.0002
11:51:48.032,22.4376,43.4377
11:51:48.034,22.1876,41.5627
11:51:48.037,21.9376,42.5627
11:51:48.043,23.1876,42.6877
11:51:48.053,23.7501,41.6877
11:51:48.065,23.2501,41.5627
11:51:48.073,23.5626,40.5627
11:51:48.083,23.3126,38.8126
11:51:48.094,21.8751,38.3126
11:51:48.103,20.8751,36.5001
11:51:48.113,20.5626,34.1251
11:51:48.123,18.9376,31.8751
11:51:48.133,18.5001,31.0626
11:51:48.144,18.5001,30.1251
11:51:48.153,16.8126,28.5001
11:51:48.163,16.3126,28.3126
11:51:48.173,15.7501,25.7501
11:51:48.182,14.5001,23.1876
11:51:48.192,13.5001,21.9376
11:51:48.203,12.4375,22.5626
11:51:48.213,12.5,19.7501
11:51:48.223,11.4375,18.0001
11:51:48.233,10.3125,16.5626
11:51:48.244,9.5625,14.8751
11:51:48.253,8.125,13.1876
11:51:48.268,7.375,12.3125
11:51:48.275,6.625,11.1875
11:51:48.283,5.75,8.375
11:51:48.294,4.625,8.0625
11:51:48.303,3.75,6.875
11:51:48.313,3.375,4.375
11:51:48.323,2.0625,3
11:51:48.333,1.25,1.9375
11:51:48.343,1.375,1.375
11:51:48.353,1.125,0.125
11:51:48.364,0.375,-0.75
11:51:48.373,0.5,-1.125
11:51:48.383,-0.1875,-1.75
11:51:48.393,0.1875,-3.4375
11:51:48.404,-0.375,-4.5
11:51:48.413,-0.75,-3.9375
11:51:48.425,-0.75,-5.5625
11:51:48.433,-1.1875,-5.6875
11:51:48.468,-1.5625,-5.9375
11:51:48.471,-1.625,-7.375
11:51:48.473,-1.0625,-8.25
11:51:48.475,-0.4375,-7.8125
11:51:48.513,-1.125,-9.3125
11:51:48.516,-1.125,-9.5
11:51:48.518,-1.625,-9.375
11:51:48.520,-1.25,-11
11:51:48.525,-1.4375,-11.75
11:51:48.533,-1.6875,-12.375
11:51:48.564,-1.625,-13
11:51:48.566,-2.5625,-13.7501
11:51:48.568,-1.375,-14.0626
11:51:48.574,-1.1875,-13.9376
11:51:48.602,-0.75,-13.5001
11:51:48.605,-0.25,-14.2501
11:51:48.607,0.1875,-14.0001
11:51:48.613,0.3125,-13.1876
11:51:48.623,2,-10.5
11:51:48.633,3.5,-5.625
11:51:48.645,5.6875,-1.0625
11:51:48.653,7.625,4.75
11:51:48.663,9.4375,10.0625
11:51:48.673,11.5625,13.9376
11:51:48.684,12.75,19.0001
11:51:48.693,14.0626,21.2501
11:51:48.704,14.5626,25.2501
11:51:48.713,15.8751,26.1251
11:51:48.733,15.3126,28.6876
11:51:48.739,15.6251,30.0626
11:51:48.747,16.1876,31.2501
11:51:48.754,17.0001,33.4376
11:51:48.772,17.4376,34.3751
11:51:48.777,19.0626,37.2501
11:51:48.785,20.4376,38.6876
11:51:48.793,20.3751,40.6252
11:51:48.805,20.6251,41.8752
11:51:48.813,21.4376,42.6877
11:51:48.823,20.8126,43.1252
11:51:48.833,20.5626,44.4377
11:51:48.849,20.8751,43.7502
11:51:48.853,20.0001,43.2502
11:51:48.868,19.5001,43.3752
11:51:48.883,19.6251,43.3127
11:51:48.885,19.5626,41.6877
11:51:48.904,19.3126,42.1252
11:51:48.904,18.6251,41.1877
11:51:48.913,18.5001,39.5002
11:51:48.923,18.1251,38.4376
11:51:48.935,17.5626,37.0626
11:51:48.943,16.8126,35.8126
11:51:48.953,16.1876,35.6876
11:51:48.963,16.6251,35.5626
11:51:48.975,15.3751,34.6251
11:51:48.983,15.3751,35.6876
11:51:48.993,15.9376,35.0626
11:51:49.004,15.8751,34.2501
11:51:49.016,16.0626,33.9376
11:51:49.025,16.3126,33.9376
11:51:49.034,15.2501,34.3126
11:51:49.043,15.0626,33.1251
11:51:49.053,15.6876,31.3126
11:51:49.063,15.2501,30.3126
11:51:49.073,13.6876,28.3751
11:51:49.083,12.625,28.5626
11:51:49.093,12.375,26.5001
11:51:49.104,12.0625,24.5626
11:51:49.113,11.25,23.8751
11:51:49.123,11.0625,22.3751
11:51:49.133,9.375,20.3126
11:51:49.162,8.625,19.5626
11:51:49.164,7.75,18.2501
11:51:49.168,5.3125,14.6876
11:51:49.173,4.1875,13.3751
11:51:49.202,4.875,12.5625
11:51:49.204,3.4375,10.25
11:51:49.207,2.9375,10.4375
11:51:49.213,4.0625,10.5
11:51:49.242,4.4375,9.5625
11:51:49.244,4.25,8.3125
11:51:49.247,4.8125,9.4375
11:51:49.253,4.9375,8.125
11:51:49.265,4.4375,7.0625
11:51:49.302,4.8125,6.6875
11:51:49.305,4.625,5.3125
11:51:49.307,4.5625,4.8125
11:51:49.322,3.8125,3.25
11:51:49.327,3.1875,2.5625
11:51:49.328,3.8125,3.125
11:51:49.334,4,2.5
11:51:49.343,3.875,0.875
11:51:49.354,3.625,0.5625
11:51:49.364,2.625,-0.25
11:51:49.374,1.75,-1.9375
11:51:49.384,1.25,-3.6875
11:51:49.398,0.8125,-4.375
11:51:49.403,0.1875,-5
11:51:49.413,0.1875,-6.4375
11:51:49.425,-0.125,-7.9375
11:51:49.433,-1,-7.125
11:51:49.443,-0.8125,-8.5
11:51:49.453,-1.75,-10.4375
11:51:49.463,-2.9375,-12.375
11:51:49.473,-3.375,-13.5626
11:51:49.483,-3.9375,-14.3126
11:51:49.495,-4.6875,-14.4376
11:51:49.503,-4.5625,-15.1251
11:51:49.514,-4.625,-16.3126
11:51:49.524,-5.125,-16.8751
11:51:49.533,-5.75,-17.1251
11:51:49.543,-5.375,-18.7501
11:51:49.553,-5.3125,-17.8751
11:51:49.564,-4.875,-18.5001
11:51:49.573,-5.75,-19.5626
11:51:49.583,-5.625,-19.7501
11:51:49.593,-6.1875,-19.7501
11:51:49.605,-5.5625,-18.3751
11:51:49.613,-3.875,-15.2501
11:51:49.623,-2.375,-11.1875
11:51:49.633,-0.375,-7.25
11:51:49.643,0.9375,-2.0625
11:51:49.653,3,2.3125
11:51:49.663,4.625,7.75
11:51:49.675,6.875,12.8125
11:51:49.683,8.5,14.7501
11:51:49.693,10.5625,19.2501
11:51:49.703,11,20.9376
11:51:49.713,12.875,24.4376
11:51:49.724,14.0626,25.8751
11:51:49.733,14.8751,28.0001
11:51:49.744,15.8126,28.8751
11:51:49.753,16.9376,30.8126
11:51:49.768,16.6876,31.3751
11:51:49.773,17.1251,32.6251
11:51:49.783,16.9376,33.5001
11:51:49.793,16.3751,34.0001
11:51:49.803,15.5001,34.3126
11:51:49.815,14.1251,32.2501
11:51:49.823,13.2501,31.6876
11:51:49.833,12.3125,31.8751
11:51:49.843,11.6875,31.6251
11:51:49.853,11.875,31.1251
11:51:49.863,10.5625,29.0001
11:51:49.873,9.4375,27.0001
11:51:49.884,8.4375,26.2501
11:51:49.893,8.125,25.2501
11:51:49.903,8.125,23.5001
11:51:49.928,7.125,22.5001
11:51:49.930,7.6875,22.1876
11:51:49.933,7.625,22.5001
11:51:49.964,8.0625,23.6876
11:51:49.967,8.4375,22.1251
11:51:49.969,8.1875,22.1251
11:51:49.974,7.6875,22.3751
11:51:50.000,7.875,21.9376
11:51:50.002,7.75,21.3751
11:51:50.005,6.8125,21.2501
11:51:50.036,6.5,20.0626
11:51:50.040,6.5,18.2501
11:51:50.041,6.5,19.0626
11:51:50.045,6.6875,18.5626
11:51:50.090,7.3125,18.5626
11:51:50.092,7.6875,17.7501
11:51:50.107,8.0625,17.3126
11:51:50.108,7.4375,16.0626
11:51:50.108,6.25,14.9376
11:51:50.109,6.1875,13.7501
11:51:50.124,5.125,11.875
11:51:50.128,4.75,10.5625
11:51:50.133,3.5625,9.875
11:51:50.147,3.5625,8.0625
11:51:50.156,1.1875,5.6875
11:51:50.169,-0.1875,5.1875
11:51:50.177,-1.1875,3.375
11:51:50.183,-2.6875,0.3125
11:51:50.199,-3.75,-1.75
11:51:50.215,-4.75,-1.375
11:51:50.218,-5.3125,-3.0625
11:51:50.223,-5.4375,-4.25
11:51:50.233,-5.875,-5.75
11:51:50.243,-6.875,-6.625
11:51:50.255,-7.6875,-7.75
11:51:50.263,-8.0625,-7.75
11:51:50.273,-9,-9.5
11:51:50.284,-9.375,-11.0625
11:51:50.293,-10.5625,-12.5625
11:51:50.303,-10.9375,-12.5
11:51:50.313,-10.1875,-13.1876
11:51:50.323,-9.6875,-13.3751
11:51:50.333,-9.4375,-13
11:51:50.343,-8.5,-13
11:51:50.355,-7.25,-13.5001
11:51:50.363,-7.0625,-13.0625
11:51:50.373,-7.0625,-13.5626
11:51:50.384,-8.125,-15.3126
11:51:50.393,-9.0625,-16.3126
11:51:50.403,-9.9375,-17.7501
11:51:50.416,-12.375,-19.3126
11:51:50.423,-12.625,-21.3126
11:51:50.433,-14.2501,-23.5001
11:51:50.445,-15.1876,-23.8751
11:51:50.453,-16.0001,-26.0001
11:51:50.463,-17.1876,-26.9376
11:51:50.474,-17.4376,-27.3751
11:51:50.483,-17.9376,-29.3751
11:51:50.493,-17.7501,-28.5626
11:51:50.503,-16.6876,-26.4376
11:51:50.515,-15.1876,-22.0626
11:51:50.523,-12.9375,-17.9376
11:51:50.533,-10.8125,-12.125
11:51:50.544,-7.9375,-6.9375
11:51:50.553,-6.125,-1.75
11:51:50.563,-4.3125,2.8125
11:51:50.595,-3.25,6.5625
11:51:50.598,-2.0625,9.8125
11:51:50.601,-0.3125,11.6875
11:51:50.606,0.125,14.5001
11:51:50.644,0.875,15.8126
11:51:50.647,2.0625,18.5001
11:51:50.649,2,20.0626
11:51:50.652,2.875,21.3751
11:51:50.654,2.625,21.8126
11:51:50.663,2.5625,23.8126
11:51:50.708,3.375,23.8126
11:51:50.712,3.4375,25.5626
11:51:50.712,3.125,26.1876
11:51:50.714,3.5,27.0626
11:51:50.716,4.125,27.5626
11:51:50.745,3.4375,28.5001
11:51:50.747,3.75,27.9376
11:51:50.749,3.3125,27.1251
11:51:50.754,3.0625,27.6251
11:51:50.763,3.0625,27.0626
11:51:50.773,2.9375,25.7501
11:51:50.783,0.75,23.1876
11:51:50.793,0.625,22.1251
11:51:50.803,-0.625,22.5001
11:51:50.813,-0.9375,21.6251
11:51:50.828,-1,19.9376
11:51:50.838,-1.25,20.1876
11:51:50.848,-0.0625,20.1876
11:51:50.858,-0.4375,19.6876
11:51:50.868,-0.125,19.5001
11:51:50.878,-0.75,19.5001
11:51:50.888,-1.375,18.6251
11:51:50.902,-1.375,17.6876
11:51:50.908,-2.3125,16.5001
11:51:50.919,-3.0625,16.3751
11:51:50.928,-3.0625,15.5001
11:51:50.938,-3.6875,14.0626
11:51:50.949,-4.375,13.9376
11:51:50.958,-4.3125,12.8125
11:51:50.968,-4.125,11.9375
11:51:50.979,-4.3125,10.1875
11:51:50.988,-5.3125,8.875
11:51:50.998,-5.625,8.9375
11:51:51.008,-5.4375,6.5625
11:51:51.018,-5.125,7.3125
11:51:51.028,-6.6875,5.1875
11:51:51.038,-7.1875,4.125
11:51:51.048,-7.3125,3.25
11:51:51.058,-8.125,1.375
11:51:51.070,-7.6875,1.0625
11:51:51.078,-6.625,1.8125
11:51:51.088,-7.125,-0.375
11:51:51.100,-6.75,0.1875
11:51:51.108,-7,-1.4375
11:51:51.118,-7.875,-1.75
11:51:51.129,-6.875,-2.4375
11:51:51.138,-7.875,-4.3125
11:51:51.148,-8.9375,-4.5625
11:51:51.160,-8.8125,-6.5625
11:51:51.168,-9.4375,-7.0625
11:51:51.178,-8.75,-7.625
11:51:51.188,-9.1875,-6.8125
11:51:51.198,-8.875,-9.75
11:51:51.208,-9.625,-8.5625
11:51:51.220,-8.875,-10.8125
11:51:51.228,-9.9375,-11.5
11:51:51.238,-9.875,-13.0625
11:51:51.252,-11.125,-12.875
11:51:51.259,-10.6875,-14.3751
11:51:51.268,-11.0625,-14.1251
11:51:51.280,-11.625,-15.4376
11:51:51.289,-11.6875,-16.8126
11:51:51.325,-12.625,-18.2501
11:51:51.328,-12.75,-18.7501
11:51:51.329,-13.5626,-19.8126
11:51:51.332,-13.8751,-20.3126
11:51:51.364,-14.6251,-21.4376
11:51:51.368,-14.8126,-22.8751
11:51:51.369,-15.9376,-23.5626
11:51:51.372,-15.9376,-24.5001
11:51:51.379,-16.9376,-24.3751
11:51:51.422,-15.9376,-23.9376
11:51:51.466,-15.5626,-20.6251
11:51:51.471,-12.4375,-16.8126
11:51:51.471,-9.8125,-10.375
11:51:51.471,-7.125,-4.625
11:51:51.473,-4.5625,0.3125
11:51:51.488,-2.375,6.9375
11:51:51.502,-0.125,10.625
11:51:51.502,1.625,15.0001
11:51:51.503,3.5625,17.7501
11:51:51.518,4.125,22.1876
11:51:51.523,5.0625,22.7501
11:51:51.528,4.625,25.5001
11:51:51.539,4.375,25.2501
11:51:51.548,4.8125,27.8126
11:51:51.558,4.875,27.8126
11:51:51.568,4.8125,30.5626
11:51:51.578,5.5625,31.3751
11:51:51.591,6.5,32.6251
11:51:51.620,7.8125,34.7501
11:51:51.620,9,37.7501
11:51:51.621,10.1875,38.8751
11:51:51.640,11.125,39.8752
11:51:51.657,12.125,41.8127
11:51:51.657,12.125,42.3127
11:51:51.675,11.1875,43.2502
11:51:51.676,11.125,41.3752
11:51:51.680,10.5625,40.2502
11:51:51.697,10.4375,38.5626
11:51:51.716,10.1875,37.5626
11:51:51.716,9.75,37.1251
11:51:51.736,9.0625,35.7501
11:51:51.736,8,34.6251
11:51:51.756,7.8125,33.8751
11:51:51.756,7.6875,34.3126
11:51:51.772,8.625,33.3751
11:51:51.772,7.8125,32.7501
11:51:51.789,7.4375,33.0626
11:51:51.789,7.5,31.7501
11:51:51.807,7.125,30.7501
11:51:51.824,5.625,30.1876
11:51:51.824,5.1875,28.6876
11:51:51.842,3.9375,26.5001
11:51:51.842,3.25,25.7501
11:51:51.857,2.0625,24.1876
11:51:51.875,0.9375,21.5001
11:51:51.877,-0.0625,21.0626
11:51:51.891,-0.25,19.9376
11:51:51.891,-0.8125,17.9376
11:51:51.899,-1.5625,16.0001
11:51:51.910,-1.875,16.3751
11:51:51.937,-1.625,15.1876
11:51:51.939,-2.375,13.3751
11:51:51.939,-3,12.8125
11:51:51.950,-3.3125,10.625
11:51:51.959,-4.125,9.375
11:51:51.968,-5.125,8.0625
11:51:51.979,-5.125,7
11:51:51.988,-5.375,5.875
11:51:52.001,-5.875,3.8125
11:51:52.008,-7.1875,3.9375
11:51:52.019,-7.4375,2.25
11:51:52.029,-7.625,0.5
11:51:52.039,-8.125,-0.375
11:51:52.048,-7.75,-0.8125
11:51:52.060,-8.9375,-2
11:51:52.068,-9.0625,-2.75
11:51:52.078,-8.5625,-4.25
11:51:52.091,-9.4375,-3
11:51:52.099,-9,-5.25
11:51:52.137,-8.75,-4.1875
11:51:52.139,-8.375,-6.5625
11:51:52.142,-9.1875,-7.625
11:51:52.149,-9.8125,-8.3125
11:51:52.151,-10.9375,-10.125
11:51:52.187,-11.875,-11.8125
11:51:52.192,-12.4375,-13.7501
11:51:52.192,-13.7501,-15.0626
11:51:52.198,-14.6876,-15.6251
11:51:52.199,-14.5001,-16.6876
11:51:52.235,-14.4376,-17.6251
11:51:52.238,-14.8126,-18.2501
11:51:52.241,-14.5001,-18.5001
11:51:52.245,-14.9376,-19.4376
11:51:52.250,-15.0001,-19.7501
11:51:52.280,-14.9376,-20.5626
11:51:52.283,-14.5626,-21.1251
11:51:52.285,-15.2501,-22.3751
11:51:52.290,-15.9376,-23.2501
11:51:52.299,-17.0001,-25.1876
11:51:52.308,-18.2501,-27.1251
11:51:52.319,-18.8126,-27.1876
11:51:52.328,-20.0001,-28.9376
11:51:52.339,-20.5626,-28.8751
11:51:52.348,-21.2501,-31.4376
11:51:52.360,-21.7501,-31.6251
11:51:52.370,-21.6876,-32.1876
11:51:52.378,-21.0626,-32.0626
11:51:52.390,-20.6251,-33.1876
11:51:52.404,-21.1876,-33.1876
11:51:52.412,-19.8751,-32.3751
11:51:52.419,-19.9376,-30.4376
11:51:52.428,-17.4376,-28.0001
11:51:52.438,-15.3126,-24.1251
11:51:52.448,-13.5626,-18.6876
11:51:52.458,-11.125,-12
11:51:52.470,-9.25,-6.8125
11:51:52.478,-8.5,-2.625
11:51:52.488,-8.375,-0.375
11:51:52.498,-8.75,3
11:51:52.509,-8.25,5.0625
11:51:52.518,-8,8.125
11:51:52.528,-7.0625,10.25
11:51:52.538,-6.6875,13.6251
11:51:52.548,-7.0625,14.6876
11:51:52.558,-8.875,15.5001
11:51:52.569,-9.125,16.8126
11:51:52.578,-9.375,19.3126
11:51:52.590,-8.5625,20.9376
11:51:52.601,-8.375,23.0001
11:51:52.610,-6.5625,26.5001
11:51:52.619,-3.125,30.4376
11:51:52.628,-0.6875,33.4376
11:51:52.638,0.25,35.6251
11:51:52.649,-1,36.7501
11:51:52.659,-3.75,35.5626
11:51:52.668,-8,34.5001
11:51:52.678,-11.4375,30.6251
11:51:52.691,-14.0626,28.2501
11:51:52.698,-12.25,30.0001
11:51:52.708,-8.4375,32.3751
11:51:52.718,-5.625,35.3751
11:51:52.736,-3.3125,36.1876
11:51:52.742,-3,35.8126
11:51:52.750,-3.8125,36.1876
11:51:52.767,-2.6875,34.8126
11:51:52.768,-2.1875,36.2501
11:51:52.783,0,35.8751
11:51:52.790,0.5625,37.7501
11:51:52.804,1.6875,36.0001
11:51:52.820,1.375,34.1876
11:51:52.822,1.5,34.5626
11:51:52.856,1.1875,32.3751
11:51:52.890,1.875,32.1251
11:51:52.890,1.625,30.3126
11:51:52.890,0.5,29.0001
11:51:52.892,-0.0625,26.7501
11:51:52.894,-2.5,24.5001
11:51:52.900,-5.4375,19.6876
11:51:52.900,-10.375,14.2501
11:51:52.936,-15.9376,9.25
11:51:52.939,-21.6876,0.875
11:51:52.941,-29.8126,-7.25
11:51:52.944,-37.5626,-14.8126
11:51:52.950,-46.6877,-24.8126
11:51:52.976,-56.3752,-34.8751
11:51:52.978,-66.3753,-45.5627
11:51:52.981,-76.8128,-56.0627
11:51:53.005,-86.7503,-68.1878
11:51:53.007,-95.4379,-78.7503
11:51:53.011,-103.1254,-88.0003
11:51:53.019,-110.0004,-97.2504
11:51:53.028,-115.6879,-104.9379
11:51:53.039,-120.0005,-107.0004
11:51:53.048,-123.438,-110.1254
11:51:53.060,-125.5005,-109.5004
11:51:53.069,-126.5005,-110.0629
11:51:53.079,-128.1255,-113.0629
11:51:53.092,-129.0005,-115.7504
11:51:53.099,-129.2505,-116.1254
11:51:53.110,-129.7505,-118.2505
11:51:53.118,-130.8755,-119.1255
11:51:53.152,-133.1255,-121.938
11:51:53.154,-136.3755,-124.563
11:51:53.157,-141.6255,-129.063
11:51:53.160,-143.563,-130.188
11:51:53.173,-141.7505,-124.813
11:51:53.180,-133.0005,-117.438
11:51:53.189,-118.6255,-105.1879
11:51:53.199,-106.1879,-93.2504
11:51:53.208,-90.8754,-81.5628
11:51:53.219,-76.2503,-67.8753
11:51:53.228,-60.5627,-56.6252
11:51:53.238,-46.5627,-43.8127
11:51:53.250,-37.0001,-37.5001
11:51:53.258,-33.3126,-34.7501
11:51:53.269,-33.4376,-37.1251
11:51:53.278,-39.4377,-42.5627
11:51:53.290,-49.1877,-50.8752
11:51:53.300,-56.6252,-58.4377
11:51:53.310,-65.7503,-64.5627
11:51:53.320,-74.6253,-73.1253
11:51:53.328,-82.3128,-78.8128
11:51:53.340,-87.6253,-84.4378
11:51:53.348,-90.5004,-87.3753
11:51:53.360,-93.7504,-91.5004
11:51:53.370,-96.7504,-96.4379
11:51:53.379,-98.9379,-99.4379
11:51:53.390,-97.3129,-102.3754
11:51:53.398,-96.6254,-103.0004
11:51:53.410,-96.4379,-102.6254
11:51:53.418,-94.4379,-101.3129
11:51:53.434,-88.5628,-95.8129
11:51:53.438,-80.0003,-89.4378
11:51:53.450,-74.1253,-83.0628
11:51:53.460,-71.1878,-78.2503
11:51:53.472,-69.3753,-77.6253
11:51:53.482,-68.0003,-75.5003
11:51:53.517,-65.8753,-73.0003
11:51:53.520,-63.0002,-67.3128
11:51:53.522,-57.6877,-60.5627
11:51:53.526,-53.6877,-53.8127
11:51:53.532,-48.0627,-45.5002
11:51:53.569,-40.1877,-35.6251
11:51:53.570,-32.8751,-26.9376
11:51:53.575,-31.0001,-23.0001
11:51:53.578,-32.8751,-22.3126
11:51:53.580,-36.9376,-24.3751
11:51:53.611,-41.3127,-25.6876
11:51:53.613,-44.5627,-26.8126
11:51:53.617,-48.5002,-27.5626
11:51:53.618,-51.0002,-28.0001
11:51:53.650,-54.0002,-27.5001
11:51:53.652,-56.6252,-27.8751
11:51:53.653,-58.1877,-28.5626
11:51:53.659,-57.5002,-28.3751
11:51:53.670,-56.6877,-25.8751
11:51:53.680,-55.9377,-25.1876
11:51:53.690,-53.8752,-22.8126
11:51:53.700,-50.8752,-18.9376
11:51:53.709,-47.9377,-14.8751
11:51:53.719,-44.1877,-11.25
11:51:53.730,-42.0002,-6.1875
11:51:53.742,-37.8751,-3.25
11:51:53.749,-33.6251,1.125
11:51:53.760,-27.3126,6.1875
11:51:53.771,-22.3751,11.125
11:51:53.780,-16.0001,15.9376
11:51:53.789,-7,23.0626
11:51:53.800,3.0625,30.3126
11:51:53.810,8.875,34.5626
11:51:53.820,6.375,33.9376
11:51:53.831,2.25,27.5001
11:51:53.840,-1.8125,22.7501
11:51:53.850,-11.0625,16.1876
11:51:53.859,-16.5626,10.5
11:51:53.870,-20.0001,8.0625
11:51:53.878,-22.0001,6.4375
11:51:53.891,-24.8126,5.25
11:51:53.901,-26.9376,2.4375
11:51:53.909,-28.8751,1.125
11:51:53.919,-30.7501,-3.25
11:51:53.930,-33.2501,-5.25
11:51:53.940,-33.6251,-7.625
11:51:53.948,-33.1251,-6.1875
11:51:53.960,-30.8126,-5.9375
11:51:53.970,-25.8126,-1.625
11:51:53.979,-20.6251,1.25
11:51:53.988,-18.3126,2.75
11:51:54.002,-17.8126,3.0625
11:51:54.009,-16.1251,3.75
11:51:54.018,-14.3126,4.4375
11:51:54.029,-12.375,6.5625
11:51:54.044,-5.6875,10.6875
11:51:54.059,3,17.0001
11:51:54.074,7.6875,19.9376
11:51:54.077,0.625,13.9376
11:51:54.093,-8.3125,3.4375
11:51:54.107,-16.7501,-6.0625
11:51:54.109,-21.8751,-13.1876
11:51:54.112,-24.2501,-14.0001
11:51:54.119,-25.6876,-15.6251
11:51:54.138,-27.8751,-16.5626
11:51:54.141,-28.6876,-19.3126
11:51:54.156,-31.3126,-20.9376
11:51:54.171,-33.9376,-25.2501
11:51:54.173,-37.0001,-28.0001
11:51:54.183,-39.0627,-31.0001
11:51:54.189,-40.6877,-32.6876
11:51:54.220,-39.3752,-33.4376
11:51:54.226,-38.1251,-32.5001
11:51:54.226,-36.5626,-31.6876
11:51:54.229,-33.5626,-30.6876
11:51:54.270,-30.4376,-28.7501
11:51:54.273,-30.0001,-27.8126
11:51:54.275,-30.6876,-29.1251
11:51:54.301,-32.2501,-30.8126
11:51:54.301,-33.3751,-31.3751
11:51:54.302,-32.1876,-31.0001
11:51:54.304,-29.2501,-27.9376
11:51:54.310,-21.8751,-22.3126
11:51:54.342,-13.3751,-16.6876
11:51:54.345,-9.6875,-14.5001
11:51:54.347,-11.4375,-15.3751
11:51:54.349,-17.6876,-23.1251
11:51:54.379,-23.5626,-28.4376
11:51:54.384,-27.4376,-32.3126
11:51:54.384,-32.4376,-35.8126
11:51:54.389,-38.7501,-40.8127
11:51:54.400,-41.8752,-44.6877
11:51:54.432,-43.5002,-46.0627
11:51:54.434,-43.9377,-46.6877
11:51:54.437,-44.8752,-49.3752
11:51:54.439,-45.8127,-51.4377
11:51:54.455,-45.7502,-52.1877
11:51:54.459,-44.5627,-50.8752
11:51:54.470,-41.7502,-48.3752
11:51:54.479,-37.3126,-43.4377
11:51:54.488,-31.5626,-37.3751
11:51:54.500,-26.5001,-30.0001
11:51:54.511,-23.1876,-23.5001
11:51:54.519,-22.5626,-17.9376
11:51:54.530,-22.4376,-14.4376
11:51:54.540,-21.6251,-9.375
11:51:54.549,-18.8751,-4.5
11:51:54.560,-14.5626,1.6875
11:51:54.571,-8.6875,8.5625
11:51:54.580,-0.9375,17.0001
11:51:54.589,8.875,27.0626
11:51:54.601,11.8125,30.9376
11:51:54.610,9.3125,29.8126
11:51:54.619,3.25,26.1876
11:51:54.629,-3.375,20.9376
11:51:54.639,-8.1875,19.6876
11:51:54.652,-11.6875,17.5001
11:51:54.659,-15.2501,16.8751
11:51:54.669,-16.6251,17.0001
11:51:54.680,-17.0001,18.0001
11:51:54.691,-16.6876,18.3751
11:51:54.702,-16.0626,19.1251
11:51:54.709,-15.8751,19.5626
11:51:54.719,-16.1876,19.3126
11:51:54.729,-14.6876,20.5626
11:51:54.739,-11.875,21.4376
11:51:54.751,-9.4375,24.5001
11:51:54.759,-6.1875,25.7501
11:51:54.769,-4.8125,26.1876
11:51:54.779,-5.5625,27.6251
11:51:54.789,-5.375,25.9376
11:51:54.800,-6.6875,26.2501
11:51:54.810,-6.1875,23.7501
