timestamp,Red,IR
11:31:01.056,-1.25,-16.5626
11:31:01.066,-0.6563,-16.6251
11:31:01.075,0.9063,-13.9376
11:31:01.085,3.25,-12.125
11:31:01.101,3.9063,-9.5625
11:31:01.110,5.2813,-7.5
11:31:01.121,6.5,-4.875
11:31:01.130,6.3438,-3.6875
11:31:01.140,7.3125,-1.5
11:31:01.150,8.125,-0.5625
11:31:01.160,8.2813,0.125
11:31:01.170,8.5625,0.0625
11:31:01.181,7.9375,-0.375
11:31:01.190,7.0625,-1.875
11:31:01.201,5.9375,-2.625
11:31:01.210,4.0625,-7
11:31:01.221,2.6563,-9.0625
11:31:01.230,0.0938,-12.75
11:31:01.240,-1.9688,-17.0626
11:31:01.250,-4.4688,-20.1876
11:31:01.262,-8.25,-24.8751
11:31:01.270,-10,-28.8751
11:31:01.280,-11.8438,-33.5001
11:31:01.291,-13.6876,-36.3126
11:31:01.301,-15.6876,-38.6876
11:31:01.331,-16.7188,-42.6877
11:31:01.336,-18.1563,-45.1252
11:31:01.336,-19.2813,-47.3127
11:31:01.342,-20.9063,-49.8127
11:31:01.355,-21.8126,-51.7502
11:31:01.361,-23.0938,-54.5002
11:31:01.371,-25.2813,-57.8752
11:31:01.380,-27.0001,-60.3752
11:31:01.391,-28.7501,-63.6877
11:31:01.400,-30.0939,-65.5628
11:31:01.410,-32.0939,-68.1253
11:31:01.420,-32.8751,-69.6878
11:31:01.431,-33.3126,-72.0003
11:31:01.440,-34.3439,-73.2503
11:31:01.456,-34.8751,-75.6253
11:31:01.493,-36.7189,-76.4378
11:31:01.495,-36.8439,-78.6878
11:31:01.496,-38.5939,-81.1878
11:31:01.499,-39.7189,-83.1878
11:31:01.502,-40.5939,-83.2503
11:31:01.546,-40.3752,-85.1878
11:31:01.547,-40.0627,-83.6878
11:31:01.549,-36.8126,-80.6878
11:31:01.568,-31.0314,-71.9378
11:31:01.568,-22.6251,-59.6252
11:31:01.568,-12.5313,-43.7502
11:31:01.576,0.2188,-23.1876
11:31:01.619,13.6563,-2.3125
11:31:01.621,26.9064,20.1251
11:31:01.623,38.3439,39.3127
11:31:01.626,46.5627,56.0002
11:31:01.632,54.6252,69.1878
11:31:01.635,58.8752,78.3128
11:31:01.646,61.4377,85.3753
11:31:01.657,62.6877,87.8128
11:31:01.665,61.1565,87.5628
11:31:01.675,59.5315,84.5003
11:31:01.686,57.719,81.1253
11:31:01.697,54.0627,74.0628
11:31:01.708,50.4689,68.6253
11:31:01.717,46.2814,61.6877
11:31:01.725,41.4064,54.2502
11:31:01.735,36.0001,44.1252
11:31:01.746,31.9376,36.9376
11:31:01.756,28.2501,29.9376
11:31:01.766,23.9063,23.2501
11:31:01.775,20.5001,16.9376
11:31:01.786,16.3751,9.75
11:31:01.795,12.9375,4.8125
11:31:01.805,10.3125,-1.875
11:31:01.816,7.9375,-5.625
11:31:01.825,6.5,-9.625
11:31:01.837,4.375,-12.1875
11:31:01.845,3.8438,-14.1876
11:31:01.856,3.4063,-13.8126
11:31:01.866,4.375,-12.625
11:31:01.877,6.4063,-11.1875
11:31:01.885,8.5938,-8.25
11:31:01.896,10.4063,-5.25
11:31:01.905,12.7188,-1.25
11:31:01.915,14.2501,1.3125
11:31:01.927,15.5001,3.4375
11:31:01.936,16.4376,4.875
11:31:01.945,15.6251,5.5625
11:31:01.955,15.6876,5.4375
11:31:01.966,14.4063,4
11:31:01.976,12.4375,2.125
11:31:01.990,10.9375,-1.125
11:31:02.000,8.5938,-3
11:31:02.010,6.8438,-6.875
11:31:02.020,4.625,-9.375
11:31:02.031,3.2188,-13.0625
11:31:02.040,1.0313,-15.8751
11:31:02.052,-0.4688,-19.6251
11:31:02.061,-2.5313,-22.3126
11:31:02.071,-4.5938,-26.9376
11:31:02.084,-7.2188,-30.9376
11:31:02.090,-9.7813,-34.8126
11:31:02.101,-11.5625,-38.5001
11:31:02.110,-13.5626,-40.8127
11:31:02.120,-14.7188,-44.5627
11:31:02.131,-16.5938,-48.0002
11:31:02.140,-17.5313,-49.8127
11:31:02.151,-20.0001,-52.9377
11:31:02.160,-21.1876,-56.9377
11:31:02.181,-22.3438,-58.0002
11:31:02.183,-23.5938,-61.3752
11:31:02.221,-24.0938,-62.6252
11:31:02.225,-24.9376,-65.1877
11:31:02.249,-26.9064,-68.1253
11:31:02.249,-29.0939,-70.9378
11:31:02.250,-30.6251,-73.3753
11:31:02.253,-31.2814,-75.6253
11:31:02.287,-33.2189,-77.4378
11:31:02.289,-33.2814,-78.7503
11:31:02.292,-34.2501,-79.5628
11:31:02.297,-34.3126,-80.5003
11:31:02.298,-35.0001,-82.8753
11:31:02.311,-34.8751,-82.2503
11:31:02.314,-33.7814,-81.3753
11:31:02.348,-31.0001,-76.4378
11:31:02.350,-24.9063,-67.3128
11:31:02.352,-15.6876,-54.1877
11:31:02.356,-5.3125,-37.0001
11:31:02.373,7.2813,-17.1876
11:31:02.378,20.0001,2.6875
11:31:02.384,31.4689,22.5626
11:31:02.390,42.0314,41.1877
11:31:02.400,50.8127,55.9377
11:31:02.410,56.0315,67.0003
11:31:02.422,60.0315,74.7503
11:31:02.430,61.719,79.1253
11:31:02.441,61.0627,80.2503
11:31:02.458,59.7502,78.6253
11:31:02.460,56.5002,75.3753
11:31:02.470,53.0627,69.0003
11:31:02.482,49.1564,63.0002
11:31:02.490,44.8439,56.1877
11:31:02.501,40.4064,48.5627
11:31:02.512,36.1564,41.3752
11:31:02.522,32.0939,33.4376
11:31:02.530,27.6876,27.8126
11:31:02.542,23.4688,18.7501
11:31:02.550,18.2501,11.9375
11:31:02.562,14.7501,4.9375
11:31:02.572,11.3438,-0.875
11:31:02.596,7.7813,-7.5625
11:31:02.599,5.7188,-12.625
11:31:02.602,3.3125,-16.1876
11:31:02.614,2.0625,-18.6876
11:31:02.623,1.3438,-20.0626
11:31:02.632,1.375,-21.0001
11:31:02.641,2.3125,-19.5626
11:31:02.653,3.625,-17.3751
11:31:02.663,6,-14.6876
11:31:02.671,7.7813,-12
11:31:02.682,9.125,-9.0625
11:31:02.691,10.9063,-5.625
11:31:02.701,12.4688,-2.75
11:31:02.710,13.2501,0.25
11:31:02.721,13.8438,0.25
11:31:02.730,13.9688,0.875
11:31:02.740,13.8126,1
11:31:02.751,13.7813,0.0625
11:31:02.772,12.5625,0
11:31:02.778,11.9375,-3
11:31:02.793,9.8438,-4.4375
11:31:02.795,8.75,-7.75
11:31:02.802,6.5938,-10.0625
11:31:02.811,4.7188,-14.3126
11:31:02.820,1.25,-17.4376
11:31:02.833,-1.0625,-23.2501
11:31:02.842,-4.2813,-25.8751
11:31:02.850,-5.7813,-30.6876
11:31:02.861,-9,-34.4376
11:31:02.871,-10.9063,-37.8126
11:31:02.882,-12.9375,-42.5002
11:31:02.891,-14.6876,-45.5002
11:31:02.924,-16.4376,-48.0627
11:31:02.926,-17.9063,-50.9377
11:31:02.928,-19.8126,-53.3127
11:31:02.931,-21.0001,-57.0627
11:31:02.965,-22.7501,-60.0627
11:31:02.966,-24.9376,-63.1877
11:31:02.970,-26.7814,-66.5003
11:31:02.973,-27.9376,-68.8753
11:31:03.003,-30.0001,-70.5628
11:31:03.006,-30.3751,-72.7503
11:31:03.009,-30.0314,-73.5003
11:31:03.014,-31.0314,-74.6253
11:31:03.045,-29.2189,-73.1253
11:31:03.049,-26.3438,-69.2503
11:31:03.050,-21.0313,-61.5627
11:31:03.076,-12.4375,-49.6877
11:31:03.076,-4.2188,-34.6251
11:31:03.079,6.6563,-17.9376
11:31:03.085,18.2501,0.4375
11:31:03.091,28.5001,18.1876
11:31:03.101,38.3439,35.8751
11:31:03.112,46.4064,50.3127
11:31:03.121,52.8439,61.9377
11:31:03.133,56.6252,69.5003
11:31:03.142,58.219,73.8128
11:31:03.151,58.1252,74.6878
11:31:03.162,56.719,73.9378
11:31:03.170,53.9065,69.7503
11:31:03.181,50.8752,64.0627
11:31:03.192,46.0627,58.5627
11:31:03.200,42.0002,50.8752
11:31:03.211,37.7814,44.6877
11:31:03.222,34.5939,37.0001
11:31:03.231,29.9689,30.1251
11:31:03.241,26.4063,23.3126
11:31:03.251,22.1563,15.6876
11:31:03.262,17.4063,8.25
11:31:03.272,13.6563,0.625
11:31:03.281,9.9375,-5.5625
11:31:03.290,6.75,-12.375
11:31:03.301,3.75,-16.6876
11:31:03.311,2.2188,-20.1876
11:31:03.322,0.8438,-24.2501
11:31:03.332,0.2188,-26.2501
11:31:03.341,0.2188,-27.3126
11:31:03.350,-0.5,-27.1251
11:31:03.361,0.875,-25.3751
11:31:03.370,2.7188,-22.5626
11:31:03.381,4.1563,-19.3126
11:31:03.392,6.25,-16.7501
11:31:03.403,7.9063,-13.8751
11:31:03.411,8.8125,-10.9375
11:31:03.421,9.9688,-9.5625
11:31:03.432,10.6875,-8.5625
11:31:03.441,10.125,-8.9375
11:31:03.453,9.7813,-7.9375
11:31:03.462,7.8438,-10.625
11:31:03.477,7,-11.1875
11:31:03.493,5.0313,-14.3751
11:31:03.495,3.4688,-16.7501
11:31:03.502,1.5313,-19.4376
11:31:03.511,-0.0313,-20.7501
11:31:03.521,-1.7188,-24.0001
11:31:03.532,-3.3125,-26.3751
11:31:03.541,-4.9688,-29.3126
11:31:03.551,-7,-32.0626
11:31:03.562,-9.1563,-35.4376
11:31:03.571,-10.875,-38.0001
11:31:03.583,-12.9688,-41.8752
11:31:03.592,-14.3751,-44.0002
11:31:03.602,-16.6876,-48.0627
11:31:03.612,-18.5001,-50.5002
11:31:03.621,-20.6251,-53.9377
11:31:03.632,-22.0626,-57.4377
11:31:03.641,-24.4376,-61.3752
11:31:03.657,-26.7814,-64.3752
11:31:03.663,-27.8439,-66.8753
11:31:03.685,-29.8751,-69.4378
11:31:03.689,-31.0001,-72.0003
11:31:03.701,-32.6251,-73.2503
11:31:03.702,-33.0001,-75.2503
11:31:03.738,-33.9064,-75.5628
11:31:03.742,-34.0001,-76.8128
11:31:03.743,-34.0939,-78.1878
11:31:03.750,-32.0314,-75.4378
11:31:03.752,-28.1876,-72.1253
11:31:03.782,-21.4376,-62.0627
11:31:03.784,-13.125,-49.6877
11:31:03.786,-2.2813,-32.3126
11:31:03.791,9.2813,-14.2501
11:31:03.828,20.7501,6.3125
11:31:03.833,32.5939,25.8751
11:31:03.833,43.0939,43.8127
11:31:03.835,51.3439,61.3752
11:31:03.845,58.1877,73.1253
11:31:03.852,62.6877,80.5628
11:31:03.879,64.3127,86.5003
11:31:03.880,64.6877,87.3128
11:31:03.883,63.094,85.8753
11:31:03.892,61.0002,82.5003
11:31:03.903,56.9377,77.6878
11:31:03.912,53.0627,72.0628
11:31:03.921,48.9689,65.3127
11:31:03.932,44.5002,57.8127
11:31:03.942,39.8439,50.0002
11:31:03.957,35.5626,44.1252
11:31:03.962,31.5314,36.6876
11:31:03.971,27.6876,28.9376
11:31:03.981,22.5626,21.3751
11:31:03.994,17.6563,13.9376
11:31:04.001,13.3126,6.5
11:31:04.011,10.0625,1.125
11:31:04.021,7.4688,-4.0625
11:31:04.031,4.8125,-7.9375
11:31:04.041,3.2188,-11.5625
11:31:04.051,3.125,-13.2501
11:31:04.072,3.5313,-12.625
11:31:04.075,3.9688,-11.8125
11:31:04.090,4.9688,-11.6875
11:31:04.093,7.9688,-7.75
11:31:04.101,10.0625,-4.625
11:31:04.111,11.375,-0.9375
11:31:04.121,13.2188,0.9375
11:31:04.132,14.0001,3.6875
11:31:04.141,14.8126,4.5625
11:31:04.151,15.3126,6.125
11:31:04.162,15.5001,6.3125
11:31:04.171,14.4688,6.25
11:31:04.181,13.5313,5.125
11:31:04.192,12.7188,2.875
11:31:04.202,11.2188,1.6875
11:31:04.212,10.3438,-0.6875
11:31:04.221,8.6563,-4.125
11:31:04.231,7.1563,-5.8125
11:31:04.241,6,-8.75
11:31:04.252,3.0625,-11.375
11:31:04.261,2.3125,-15.1251
11:31:04.272,-0.5313,-18.3751
11:31:04.281,-1.7813,-22.1876
11:31:04.291,-3.8125,-24.9376
11:31:04.302,-5.8438,-28.4376
11:31:04.311,-7.4063,-32.1251
11:31:04.321,-9.6563,-35.7501
11:31:04.336,-11.8438,-39.7502
11:31:04.342,-14.1251,-43.5627
11:31:04.352,-16.7501,-47.0627
11:31:04.361,-18.0313,-49.8752
11:31:04.389,-19.6563,-53.8127
11:31:04.392,-22.2813,-56.0627
11:31:04.394,-23.0626,-59.2502
11:31:04.402,-25.6876,-61.8752
11:31:04.440,-27.0939,-65.7503
11:31:04.442,-29.0314,-67.6878
11:31:04.444,-29.5626,-70.0003
11:31:04.454,-30.8126,-71.2503
11:31:04.454,-31.0001,-72.8753
11:31:04.466,-31.0001,-71.7503
11:31:04.472,-28.6251,-71.1878
11:31:04.508,-23.8126,-64.0627
11:31:04.510,-16.1563,-54.0002
11:31:04.515,-5.875,-37.7501
11:31:04.518,5.375,-19.5001
11:31:04.522,18.0938,0.5
11:31:04.553,30.5001,22.5626
11:31:04.556,43.6252,42.3127
11:31:04.558,53.844,60.7502
11:31:04.563,62.094,76.4378
11:31:04.572,66.844,86.3128
11:31:04.581,69.469,93.5004
11:31:04.592,70.9065,96.6879
11:31:04.601,69.5003,96.4379
11:31:04.611,67.3128,95.1254
11:31:04.622,64.969,90.2504
11:31:04.633,60.5627,85.0003
11:31:04.642,56.8127,79.3753
11:31:04.652,53.1565,72.4378
11:31:04.661,48.0627,65.3127
11:31:04.671,43.5002,58.3127
11:31:04.682,39.1564,50.2502
11:31:04.692,34.8751,42.9377
11:31:04.702,30.0939,36.0001
11:31:04.711,25.6563,28.4376
11:31:04.721,20.5313,19.7501
11:31:04.731,15.7813,13.0625
11:31:04.741,12.2188,5.875
11:31:04.751,9.4375,1.375
11:31:04.773,7.0625,-2.4375
11:31:04.776,6.5938,-4.875
11:31:04.784,6.0625,-6.4375
11:31:04.792,6.75,-5.6875
11:31:04.808,7.9688,-4.9375
11:31:04.823,9.5938,-3.1875
11:31:04.825,11.7813,-0.0625
11:31:04.832,13.2813,3.0625
11:31:04.841,14.4688,5.8125
11:31:04.852,16.6251,8.125
11:31:04.861,17.7813,10
11:31:04.871,18.0626,11.8125
11:31:04.881,18.8438,12.625
11:31:04.893,18.1876,12.0625
11:31:04.902,16.9688,12
11:31:04.911,15.9376,11.0625
11:31:04.922,14.6563,7.5
11:31:04.933,12.75,6
11:31:04.942,11.5313,3.9375
11:31:04.951,9.6563,1.875
11:31:04.961,8.625,-0.9375
11:31:04.973,5.9688,-4.125
11:31:04.982,4,-6.75
11:31:04.991,2.5938,-11.0625
11:31:05.001,-0.2188,-14.2501
11:31:05.012,-1.875,-18.2501
11:31:05.021,-3.4688,-20.9376
11:31:05.031,-5.125,-25.3126
11:31:05.042,-6.7813,-28.1876
11:31:05.052,-9.4375,-31.1251
11:31:05.061,-11.2813,-34.2501
11:31:05.089,-12.5313,-38.6251
11:31:05.091,-15.1876,-42.8127
11:31:05.093,-17.0313,-45.8752
11:31:05.110,-19.2501,-49.5627
11:31:05.148,-22.0001,-52.8752
11:31:05.150,-24.1563,-56.1252
11:31:05.151,-25.9063,-59.5002
11:31:05.170,-26.8126,-62.1877
11:31:05.172,-28.0939,-63.5002
11:31:05.172,-28.9689,-65.6878
11:31:05.186,-29.2501,-66.5003
11:31:05.189,-30.7501,-69.3753
11:31:05.217,-31.6251,-69.4378
11:31:05.218,-31.0001,-70.2503
11:31:05.221,-28.9064,-66.5628
11:31:05.246,-23.0626,-58.6252
11:31:05.252,-14.4688,-46.3127
11:31:05.253,-3.3438,-28.5001
11:31:05.258,9.8125,-9.3125
11:31:05.272,22.6876,11.875
11:31:05.277,41.5314,43.8752
11:31:05.287,51.6564,62.6877
11:31:05.296,60.0627,77.5003
11:31:05.307,66.469,88.6253
11:31:05.316,69.594,96.1879
11:31:05.326,70.5315,99.3754
11:31:05.337,69.1565,99.6879
11:31:05.346,67.594,98.3129
11:31:05.357,64.3127,92.7504
11:31:05.371,60.0627,87.3753
11:31:05.379,55.3752,80.6253
11:31:05.386,50.8439,73.7503
11:31:05.401,46.4689,65.3752
11:31:05.412,41.8439,58.4377
11:31:05.419,36.6876,51.6252
11:31:05.426,32.8439,43.0627
11:31:05.436,27.9376,35.0001
11:31:05.446,22.7188,27.4376
11:31:05.456,18.7501,19.5001
11:31:05.466,14.1563,12.75
11:31:05.476,10.625,5.875
11:31:05.486,8.6875,1.625
11:31:05.496,5.9688,-1.75
11:31:05.506,5.0313,-3.3125
11:31:05.516,5,-5.375
11:31:05.526,6.4063,-4.5
11:31:05.536,7.7813,-3.5
11:31:05.547,9.3125,-0.3125
11:31:05.560,11.625,2.75
11:31:05.567,12.625,6.5625
11:31:05.576,14.0626,8.625
11:31:05.587,15.8126,11.375
11:31:05.596,17.2188,13.9376
11:31:05.606,17.9063,16.1876
11:31:05.616,18.1876,16.9376
11:31:05.626,18.5001,17.9376
11:31:05.636,18.1876,17.3126
11:31:05.648,17.5626,17.2501
11:31:05.656,16.4063,15.6251
11:31:05.666,14.7813,14.2501
11:31:05.676,13.9688,10.8125
11:31:05.686,11.3125,8.625
11:31:05.697,9.8438,4.4375
11:31:05.706,7.3125,2.5
11:31:05.716,5.2188,-2.0625
11:31:05.726,2.6875,-6.8125
11:31:05.738,-0.5,-10.9375
11:31:05.748,-2.9688,-14.8751
11:31:05.756,-5.6875,-19.6251
11:31:05.769,-8.9063,-23.5001
11:31:05.802,-11.5,-27.2501
11:31:05.803,-12.9375,-31.9376
11:31:05.805,-15.6251,-35.4376
11:31:05.808,-17.2501,-38.5001
11:31:05.843,-19.2813,-42.1877
11:31:05.844,-21.1563,-45.0002
11:31:05.849,-22.4688,-48.3752
11:31:05.850,-23.7188,-50.8752
11:31:05.887,-25.0626,-52.3127
11:31:05.888,-26.8439,-54.9377
11:31:05.892,-28.6876,-57.6877
11:31:05.893,-29.3126,-59.3752
11:31:05.901,-29.6251,-61.2502
11:31:05.908,-29.9064,-61.0002
11:31:05.938,-28.4064,-60.1877
11:31:05.940,-24.2813,-53.9377
11:31:05.943,-17.8751,-45.1877
11:31:05.948,-8.875,-31.4376
11:31:05.958,2.2188,-15.3751
11:31:05.966,13.5938,4.3125
11:31:05.976,24.3751,21.5001
11:31:05.987,34.0314,40.3752
11:31:05.997,44.0627,55.7502
11:31:06.009,50.0627,70.2503
11:31:06.023,55.1252,78.9378
11:31:06.028,58.0002,85.9378
11:31:06.037,58.8127,87.1878
11:31:06.046,57.594,88.7503
11:31:06.057,55.844,84.8753
11:31:06.067,52.0939,81.3753
11:31:06.078,48.9064,75.0628
11:31:06.092,44.5627,68.2503
11:31:06.101,39.1564,60.1252
11:31:06.106,34.9376,52.9377
11:31:06.123,29.6564,44.6877
11:31:06.133,25.4063,37.9376
11:31:06.138,21.0938,30.0626
11:31:06.146,16.5001,22.1876
11:31:06.156,11.9375,13.6876
11:31:06.166,8.25,7.1875
11:31:06.176,4.1563,-0.625
11:31:06.186,0.4375,-6.9375
11:31:06.196,-2.4375,-12.5625
11:31:06.206,-4.875,-15.1876
11:31:06.216,-6.2813,-18.5001
11:31:06.226,-6.5938,-18.3126
11:31:06.238,-5.2813,-17.1251
11:31:06.246,-3.8125,-15.5001
11:31:06.256,-1.4063,-12.3125
11:31:06.267,1,-8.9375
11:31:06.276,2.7188,-4.8125
11:31:06.287,4.8125,-1.6875
11:31:06.297,6.9375,0.5
11:31:06.307,7.3125,3.375
11:31:06.317,8.2813,4.1875
11:31:06.326,8.4688,4.6875
11:31:06.336,8.7188,5
11:31:06.346,7.375,3.5625
11:31:06.356,6.3125,2.375
11:31:06.367,5.4375,0.125
11:31:06.376,4.4688,-1.75
11:31:06.387,2.5313,-4.5625
11:31:06.402,1,-7
11:31:06.407,-0.7188,-10.5625
11:31:06.438,-3.25,-14.2501
11:31:06.442,-4.4063,-17.2501
11:31:06.444,-7.5,-21.0626
11:31:06.451,-10.0625,-25.3751
11:31:06.457,-13.4063,-30.0001
11:31:06.467,-15.9688,-34.6251
11:31:06.477,-19.2188,-39.0001
11:31:06.486,-20.9063,-42.5627
11:31:06.497,-23.7188,-46.7502
11:31:06.519,-25.3438,-49.7502
11:31:06.521,-27.2501,-52.9377
11:31:06.554,-29.0626,-54.8752
11:31:06.555,-30.0001,-58.2502
11:31:06.561,-31.9689,-60.3752
11:31:06.561,-33.2189,-62.4377
11:31:06.566,-33.5314,-64.9377
11:31:06.596,-34.1564,-65.3752
11:31:06.598,-34.6876,-68.1878
11:31:06.600,-34.8439,-68.1878
11:31:06.610,-34.6564,-67.9378
11:31:06.649,-31.8126,-65.8128
11:31:06.649,-27.6876,-58.6877
11:31:06.652,-20.0938,-48.7502
11:31:06.655,-10.7188,-32.3126
11:31:06.657,1.2813,-15.2501
11:31:06.686,13.125,5.8125
11:31:06.704,25.7813,24.8751
11:31:06.717,36.1564,45.0002
11:31:06.719,45.8439,60.3752
11:31:06.733,52.0002,74.6253
11:31:06.733,57.5315,82.0003
11:31:06.734,59.0002,87.3753
11:31:06.749,59.969,88.5003
11:31:06.750,58.1252,89.1253
11:31:06.757,56.219,84.8753
11:31:06.766,52.0939,80.0628
11:31:06.777,47.6252,73.1878
11:31:06.787,43.2814,65.9378
11:31:06.796,37.8751,57.3127
11:31:06.806,34.5626,50.4377
11:31:06.818,28.5939,42.3752
11:31:06.826,24.7813,35.0626
11:31:06.837,19.5626,28.1251
11:31:06.848,14.9376,19.9376
11:31:06.856,11.2188,12.25
11:31:06.867,6.8438,5.125
11:31:06.877,3,-2.0625
11:31:06.888,-0.25,-7.6875
11:31:06.897,-2.6875,-10.875
11:31:06.906,-4.3125,-14.1251
11:31:06.916,-5.1563,-15.3751
11:31:06.927,-4.3125,-15.8126
11:31:06.937,-3.375,-14.8126
11:31:06.946,-3.2813,-13.0625
11:31:06.956,-1.2188,-11.125
11:31:06.968,0.125,-8.0625
11:31:06.977,1.75,-5
11:31:06.987,4.1563,-2.5625
11:31:06.997,5.2813,0.3125
11:31:07.006,7,2.5625
11:31:07.016,7.0625,4.6875
11:31:07.027,7.3438,5.1875
11:31:07.037,8.375,4.625
11:31:07.047,6.8125,4.6875
11:31:07.058,6.1563,1.375
11:31:07.066,3.875,-0.5
11:31:07.077,3,-4
11:31:07.086,0,-6.5
11:31:07.097,-2.1875,-10.875
11:31:07.108,-3.5625,-13.0625
11:31:07.118,-6.0313,-16.4376
11:31:07.127,-7.0938,-20.1251
11:31:07.138,-9.875,-24.0001
11:31:07.152,-11.0938,-26.6876
11:31:07.159,-14.2501,-30.4376
11:31:07.167,-15.6251,-33.8751
11:31:07.176,-18.0001,-38.1876
11:31:07.187,-21.0313,-41.3127
11:31:07.196,-22.5938,-43.8127
11:31:07.206,-24.3126,-48.8752
11:31:07.217,-26.7814,-51.6877
11:31:07.227,-28.5001,-55.9377
11:31:07.237,-30.4064,-58.9377
11:31:07.246,-32.4064,-61.3127
11:31:07.258,-33.7189,-64.9377
11:31:07.266,-34.9689,-66.0628
11:31:07.277,-37.0314,-68.7503
11:31:07.287,-37.8439,-71.1253
11:31:07.297,-38.5626,-72.6878
11:31:07.307,-39.1251,-74.0003
11:31:07.317,-38.1251,-73.0003
11:31:07.349,-36.1876,-71.0628
11:31:07.353,-30.9376,-63.6877
11:31:07.355,-23.6876,-52.8127
11:31:07.357,-13.5001,-36.7501
11:31:07.396,-1.3438,-17.2501
11:31:07.431,11.5625,2.9375
11:31:07.459,23.7501,24.9376
11:31:07.488,35.5001,43.8127
11:31:07.488,46.2189,62.1877
11:31:07.488,53.3127,75.8128
11:31:07.509,58.8127,85.7503
11:31:07.510,61.4377,92.1879
11:31:07.513,61.5315,92.9379
11:31:07.514,60.6252,93.0004
11:31:07.514,57.4065,89.4378
11:31:07.520,53.7815,84.5628
11:31:07.529,49.2814,79.0628
11:31:07.537,45.8752,71.6253
11:31:07.547,41.2189,64.0002
11:31:07.557,36.9689,58.1252
11:31:07.566,31.4064,49.6252
11:31:07.578,27.0626,41.1252
11:31:07.588,21.1563,33.5001
11:31:07.596,16.9063,25.3751
11:31:07.607,12.5938,18.9376
11:31:07.617,8.875,12
11:31:07.628,1.4375,-1.3125
11:31:07.636,-1.125,-4.3125
11:31:07.648,-2.1563,-7.3125
11:31:07.657,-2.375,-8.9375
11:31:07.667,-2.25,-8.3125
11:31:07.676,3.8125,0.3125
11:31:07.687,5.9688,2.6875
11:31:07.718,6.625,5.4375
11:31:07.719,7.5,7.5625
11:31:07.721,8.1875,9
11:31:07.729,8.5938,9.9375
11:31:07.737,8.875,11.0625
11:31:07.748,8.9688,10
11:31:07.756,8,9
11:31:07.767,7.1563,7.1875
11:31:07.777,5.4375,6.1875
11:31:07.788,4.3438,3.25
11:31:07.798,2.0625,-0.375
11:31:07.807,0.2188,-2.9375
11:31:07.817,-2.5313,-7.75
11:31:07.826,-4.3125,-10.875
11:31:07.837,-6.3125,-14.5001
11:31:07.847,-8.8125,-19.0001
11:31:07.858,-10.9063,-22.5626
11:31:07.866,-13.4063,-24.6251
11:31:07.877,-15.3751,-28.7501
11:31:07.887,-17.5938,-32.3126
11:31:07.897,-19.5001,-36.2501
11:31:07.910,-21.1563,-38.3126
11:31:07.918,-22.8751,-42.1252
11:31:07.928,-23.9688,-44.4377
11:31:07.938,-25.5313,-46.8752
11:31:07.968,-26.7501,-48.8752
11:31:07.970,-27.6564,-51.8752
11:31:07.974,-29.6564,-54.5627
11:31:07.978,-31.4064,-56.1252
11:31:08.015,-31.6564,-58.9377
11:31:08.016,-33.5314,-60.3752
11:31:08.120,-34.9689,-63.6877
11:31:08.122,-37.2814,-66.1253
11:31:08.124,-38.7501,-69.5628
11:31:08.124,-39.5314,-71.2503
11:31:08.124,-40.5627,-72.3753
11:31:08.125,-40.6877,-74.0003
11:31:08.128,-42.1877,-74.5003
11:31:08.140,-42.1252,-76.0628
11:31:08.140,-41.4377,-75.0628
11:31:08.140,-39.4689,-73.5628
11:31:08.141,-35.1564,-68.5628
11:31:08.147,-29.0939,-58.8752
11:31:08.157,-19.9376,-45.0627
11:31:08.168,-8.7188,-26.8751
11:31:08.177,3.6563,-5.5625
11:31:08.188,16.9376,15.8751
11:31:08.198,29.0314,37.7501
11:31:08.208,40.8752,57.2502
11:31:08.218,49.2189,73.7503
11:31:08.226,56.1565,85.6878
11:31:08.236,60.3752,94.0629
11:31:08.247,61.9377,98.9379
11:31:08.257,61.8127,99.3754
11:31:08.269,59.8127,97.5629
11:31:08.277,56.5002,93.5004
11:31:08.288,52.9065,87.6253
11:31:08.297,37.6564,63.5002
11:31:08.308,34.4376,56.2502
11:31:08.318,30.0626,47.7502
11:31:08.327,26.3438,40.6877
11:31:08.338,20.1876,33.5626
11:31:08.348,15.9063,25.4376
11:31:08.358,11.8438,19.6251
11:31:08.369,7.5938,11
11:31:08.378,4.5,5
11:31:08.388,2.1875,1.5625
11:31:08.396,1.2188,-0.625
11:31:08.408,0.0313,-1.5625
11:31:08.417,1.3438,-1.625
11:31:08.428,1.625,0.3125
11:31:08.438,3.1875,2.625
11:31:08.448,5.3125,6.25
11:31:08.457,7.75,10.25
11:31:08.467,10.9063,13.6251
11:31:08.478,11.5938,17.8126
11:31:08.486,14.0626,19.6876
11:31:08.498,15.9063,22.4376
11:31:08.508,19.5938,26.1251
11:31:08.518,23.0626,29.6876
11:31:08.528,22.4688,28.1251
11:31:08.538,20.6876,26.6876
11:31:08.548,18.5626,23.9376
11:31:08.558,17.2501,20.7501
11:31:08.567,14.4688,16.6251
11:31:08.577,12.5625,13.1876
11:31:08.588,9.0625,9.0625
11:31:08.598,6.7188,5.4375
11:31:08.608,3.7188,0.4375
11:31:08.618,1.25,-3.5625
11:31:08.626,-1.4688,-7.0625
11:31:08.638,-3.8438,-12.4375
11:31:08.654,-6.4375,-16.5626
11:31:08.657,-9.4063,-20.8751
11:31:08.667,-11.75,-25.3751
11:31:08.677,-14.6563,-28.6251
11:31:08.699,-16.0626,-32.0626
11:31:08.701,-18.3438,-36.1876
11:31:08.741,-20.8438,-39.0626
11:31:08.743,-22.1876,-42.1877
11:31:08.745,-24.9063,-45.6877
11:31:08.748,-27.0626,-48.5627
11:31:08.751,-28.5314,-50.7502
11:31:08.792,-29.1251,-52.8127
11:31:08.792,-29.9376,-54.3752
11:31:08.878,-30.8751,-55.8127
11:31:08.878,-31.0001,-56.9377
11:31:08.878,-32.0001,-57.1877
11:31:08.878,-31.0001,-57.4377
11:31:08.879,-29.8439,-55.9377
11:31:08.881,-25.6876,-50.5002
11:31:08.888,-19.8751,-41.3752
11:31:08.888,-10.6875,-26.7501
11:31:08.888,0.4375,-10.4375
11:31:08.893,12,8.6875
11:31:08.905,23.5626,28.7501
11:31:08.914,34.4064,47.2502
11:31:08.922,44.0627,64.7502
11:31:08.932,51.8127,78.1253
11:31:08.944,56.6565,88.9378
11:31:08.953,59.469,94.3754
11:31:08.963,60.2502,97.4379
11:31:08.973,58.9065,97.2504
11:31:08.998,56.1877,94.0004
11:31:09.001,52.1252,87.6878
11:31:09.005,41.5627,71.7503
11:31:09.012,36.7501,65.5628
11:31:09.029,32.1876,56.5002
11:31:09.032,26.7814,48.9377
11:31:09.043,22.0626,40.4377
11:31:09.053,13.0625,25.0626
11:31:09.062,7.9063,18.0626
11:31:09.074,3.9688,11.25
11:31:09.083,0.8438,4.0625
11:31:09.093,-2.4375,0.375
11:31:09.102,-3.7188,-4.1875
11:31:09.113,-4.3125,-5.6875
11:31:09.122,-3.7813,-6.625
11:31:09.132,-3.625,-5.4375
11:31:09.143,-2.375,-3.125
11:31:09.153,-0.5313,-1.25
11:31:09.162,1.6563,1.4375
11:31:09.173,4.0938,5.3125
11:31:09.182,5.75,8.5
11:31:09.193,6.5938,11.25
11:31:09.203,8,14.3126
11:31:09.218,9.2188,15.7501
11:31:09.228,9.4688,16.6251
11:31:09.238,9.2813,16.6876
11:31:09.248,8.875,15.6876
11:31:09.257,8.5625,14.8751
11:31:09.266,7.1875,12.8125
11:31:09.278,4.875,11.25
11:31:09.287,3.5,7.5
11:31:09.298,1.4688,4.8125
11:31:09.309,0,2.125
11:31:09.319,-2.2813,-2.4375
11:31:09.328,-4.5,-5.1875
11:31:09.337,-7.0625,-9.5
11:31:09.349,-9.6875,-13.6251
11:31:09.358,-12.0313,-17.2501
11:31:09.368,-13.7188,-21.3751
11:31:09.385,-17.6876,-27.7501
11:31:09.390,-19.4688,-30.6251
11:31:09.401,-21.8751,-34.1251
11:31:09.407,-23.0626,-36.9376
11:31:09.423,-24.4063,-40.1252
11:31:09.432,-26.1251,-41.8752
11:31:09.438,-27.5001,-46.0002
11:31:09.468,-28.3439,-48.4377
11:31:09.470,-29.2189,-50.3127
11:31:09.473,-30.1564,-52.8752
11:31:09.479,-31.6251,-54.5002
11:31:09.511,-32.5314,-56.3127
11:31:09.512,-33.0001,-57.6252
11:31:09.515,-33.0314,-57.8127
11:31:09.523,-31.2814,-56.5002
11:31:09.530,-26.9689,-49.7502
11:31:09.564,-20.4376,-40.5627
11:31:09.568,-10.625,-26.4376
11:31:09.568,0.375,-8.75
11:31:09.571,12.0938,11.125
11:31:09.578,24.3126,30.8751
11:31:09.610,34.5939,49.0627
11:31:09.612,43.3752,66.2503
11:31:09.614,50.0002,78.0003
11:31:09.618,54.1252,87.7503
11:31:09.629,56.3752,92.5629
11:31:09.637,56.1877,93.5629
11:31:09.647,54.7815,92.9379
11:31:09.658,52.1252,89.4378
11:31:09.668,48.1877,83.7503
11:31:09.678,44.0627,78.2503
11:31:09.687,39.4064,70.5628
11:31:09.697,34.7501,62.5002
11:31:09.708,29.9689,54.0627
11:31:09.718,24.8438,47.3127
11:31:09.727,19.6876,38.8126
11:31:09.738,15.7813,30.1876
11:31:09.748,10.0625,22.5626
11:31:09.758,5.75,14.9376
11:31:09.768,1.375,7.875
11:31:09.780,-2.4375,1.875
11:31:09.788,-5.5313,-3.9375
11:31:09.799,-7.2188,-7.5625
11:31:09.808,-7.625,-9.5
11:31:09.817,-8.0625,-10.25
11:31:09.827,-7.6563,-10.1875
11:31:09.837,-5.625,-8.1875
11:31:09.848,-3.5625,-5.4375
11:31:09.858,-1.875,-2.625
11:31:09.868,0.2813,1.0625
11:31:09.877,1.1563,3.625
11:31:09.888,2.0938,6.5
11:31:09.898,3.25,8.5
11:31:09.907,3.5938,11.6875
11:31:09.917,4.4063,12.1875
11:31:09.927,4.4063,12.125
11:31:09.939,3.5625,11.375
11:31:09.949,2.5938,9.9375
11:31:09.958,-1.1563,7.0625
11:31:09.967,-5.1563,2.6875
11:31:09.977,-9.4063,-1.6875
11:31:09.988,-14.6563,-7.0625
11:31:09.998,-16.6876,-9.75
11:31:10.007,-19.2188,-12.1875
11:31:10.017,-19.2188,-12
11:31:10.033,-20.5001,-13.4376
11:31:10.043,-24.3438,-16.8126
11:31:10.053,-25.4063,-17.2501
11:31:10.062,-24.7188,-16.3126
11:31:10.073,-25.3751,-15.9376
11:31:10.082,-26.1251,-16.0001
11:31:10.094,-27.0314,-17.1876
11:31:10.102,-28.1251,-17.5001
11:31:10.112,-26.9376,-16.6251
11:31:10.130,-28.2501,-16.6876
11:31:10.132,-28.2501,-17.0626
11:31:10.155,-28.2814,-16.4376
11:31:10.157,-28.0939,-17.3751
11:31:10.171,-27.3751,-16.8751
11:31:10.186,-28.2501,-19.1251
11:31:10.189,-30.2501,-21.6876
11:31:10.195,-34.4376,-26.9376
11:31:10.231,-35.9376,-32.1251
11:31:10.234,-37.9064,-35.1876
11:31:10.238,-39.6252,-39.8752
11:31:10.244,-39.9377,-42.1252
11:31:10.244,-39.0939,-41.8752
11:31:10.279,-35.2189,-36.1876
11:31:10.284,-28.0314,-26.1251
11:31:10.284,-20.4063,-14.9376
11:31:10.288,-12.3438,-1.4375
11:31:10.316,-0.6875,15.8126
11:31:10.318,8.0938,31.8126
11:31:10.320,16.0938,46.1877
11:31:10.323,20.9376,56.0002
11:31:10.353,23.9063,63.3752
11:31:10.356,24.0626,66.3753
11:31:10.358,20.1563,65.0002
11:31:10.364,13.0938,59.3127
11:31:10.381,6.4063,53.0627
11:31:10.384,0.8438,46.5002
11:31:10.392,-6.4688,39.9377
11:31:10.403,-13.5938,32.1251
11:31:10.413,-19.8438,23.8126
11:31:10.422,-26.6564,16.8751
11:31:10.433,-31.0939,9.75
11:31:10.443,-33.8126,4.625
11:31:10.452,-35.4064,0.5
11:31:10.463,-36.9376,-5.3125
11:31:10.473,-41.0314,-13.9376
11:31:10.483,-47.5002,-23.7501
11:31:10.493,-51.6564,-32.3751
11:31:10.503,-56.5002,-39.8752
11:31:10.513,-60.844,-46.7502
11:31:10.526,-63.844,-53.1252
11:31:10.533,-67.4065,-58.8752
11:31:10.544,-69.719,-63.3127
11:31:10.552,-70.719,-65.7503
11:31:10.563,-71.6253,-67.4378
11:31:10.574,-69.2503,-66.6878
11:31:10.583,-67.469,-65.0627
11:31:10.593,-63.3127,-61.6252
11:31:10.602,-58.3752,-58.5627
11:31:10.614,-51.9377,-53.0627
11:31:10.622,-43.5627,-48.5002
11:31:10.632,-34.3126,-42.0627
11:31:10.642,-26.8439,-36.3126
11:31:10.653,-17.9376,-30.9376
11:31:10.663,-14.7813,-28.0001
11:31:10.673,-10.25,-25.3126
11:31:10.682,-8.4688,-24.0626
11:31:10.693,-5.125,-22.3751
11:31:10.708,-1.75,-20.0626
11:31:10.716,2.0313,-19.1251
11:31:10.722,3.2813,-18.2501
11:31:10.739,5.9688,-17.6251
11:31:10.746,7.1563,-17.5626
11:31:10.755,8.625,-18.2501
11:31:10.762,8.875,-19.8126
11:31:10.773,9.8125,-20.3751
11:31:10.782,8.75,-21.8126
11:31:10.792,9.8125,-21.8751
11:31:10.803,9.0625,-22.2501
11:31:10.812,8.1563,-23.0626
11:31:10.823,6.75,-24.5626
11:31:10.833,6.6875,-25.8126
11:31:10.842,4.2188,-28.0626
11:31:10.853,2.0625,-31.0626
11:31:10.863,-1.7813,-35.4376
11:31:10.873,-5.9063,-40.3752
11:31:10.883,-10.375,-45.7502
11:31:10.893,-13.5313,-51.0002
11:31:10.904,-16.0938,-56.0627
11:31:10.912,-19.3438,-59.4377
11:31:10.922,-21.2501,-64.2502
11:31:10.932,-23.2813,-66.6878
11:31:10.942,-23.7188,-69.6253
11:31:10.952,-25.1876,-72.1878
11:31:10.974,-25.0938,-73.5628
11:31:10.976,-25.4063,-75.2503
11:31:10.983,-25.6563,-76.5003
11:31:11.010,-25.2188,-76.2503
11:31:11.013,-23.5626,-75.5003
11:31:11.015,-20.7501,-71.1253
11:31:11.053,-14.0938,-60.6877
11:31:11.057,-3.7188,-46.6252
11:31:11.058,7.4375,-28.8751
11:31:11.060,18.7501,-8.25
11:31:11.067,30.1564,10.5625
11:31:11.074,40.3752,29.5001
11:31:11.106,50.6252,47.6877
11:31:11.108,58.3127,62.7502
11:31:11.110,64.1252,74.5628
11:31:11.114,67.0003,81.8128
11:31:11.143,68.1565,86.8128
11:31:11.144,65.8127,84.9378
11:31:11.146,60.6877,79.3753
11:31:11.153,53.4377,72.1878
11:31:11.164,43.8127,61.1252
11:31:11.173,30.8439,47.7502
11:31:11.184,17.3126,34.1251
11:31:11.192,4.1563,19.7501
11:31:11.202,-9.7188,6.6875
11:31:11.212,-23.3126,-6.625
11:31:11.222,-34.3439,-18.7501
11:31:11.233,-44.0314,-29.3126
11:31:11.242,-51.4377,-38.1876
11:31:11.252,-57.1565,-46.0627
11:31:11.265,-62.0002,-51.8752
11:31:11.277,-63.594,-56.4377
11:31:11.284,-63.5315,-58.3752
11:31:11.294,-63.1252,-59.5002
11:31:11.302,-62.594,-58.6252
11:31:11.313,-60.6565,-58.1252
11:31:11.322,-58.1565,-55.0627
11:31:11.333,-55.8127,-51.7502
11:31:11.345,-53.719,-49.0002
11:31:11.353,-52.1252,-46.8752
11:31:11.362,-51.3127,-44.9377
11:31:11.373,-50.1877,-44.1877
11:31:11.382,-49.5627,-42.2502
11:31:11.393,-48.2814,-41.1877
11:31:11.404,-45.5314,-37.8751
11:31:11.413,-42.6564,-36.3751
11:31:11.423,-39.1251,-34.1876
11:31:11.435,-34.5626,-30.9376
11:31:11.454,-27.4064,-26.2501
11:31:11.457,-21.7501,-24.0001
11:31:11.467,-17.6563,-22.0626
11:31:11.473,-14.3438,-21.6876
11:31:11.487,-10.3125,-18.5001
11:31:11.496,-6.5625,-18.9376
11:31:11.503,-2.5938,-16.3126
11:31:11.512,-0.5,-17.2501
11:31:11.523,1.4063,-16.8751
11:31:11.533,2.1875,-19.0626
11:31:11.558,3.3125,-19.5001
11:31:11.561,3.6563,-21.8751
11:31:11.563,4.5313,-21.9376
11:31:11.573,4.1563,-24.1876
11:31:11.582,2.4063,-25.3751
11:31:11.593,-0.6563,-29.7501
11:31:11.610,-4.25,-32.6876
11:31:11.615,-7.9688,-37.2501
11:31:11.643,-10.6563,-39.8127
11:31:11.647,-14.7188,-44.1877
11:31:11.649,-17.8751,-48.2502
11:31:11.654,-20.0938,-51.9377
11:31:11.685,-21.4688,-53.7502
11:31:11.688,-21.4688,-55.6252
11:31:11.690,-22.3438,-57.4377
11:31:11.700,-22.7813,-59.5002
11:31:11.723,-22.4688,-60.0627
11:31:11.727,-21.4063,-59.5002
11:31:11.727,-18.6251,-57.6252
11:31:11.762,-14.5938,-51.1877
11:31:11.763,-8.25,-42.9377
11:31:11.763,-0.7188,-30.1251
11:31:11.770,9.3125,-15.3751
11:31:11.772,19.8126,2.625
11:31:11.787,31.9376,21.1251
11:31:11.793,42.0002,39.9377
11:31:11.802,49.5939,55.0002
11:31:11.812,55.469,66.9378
11:31:11.823,60.0315,74.7503
11:31:11.833,61.1252,78.6253
11:31:11.842,60.0627,81.7503
11:31:11.853,56.5627,79.0628
11:31:11.862,49.7814,72.6253
11:31:11.873,39.5314,62.5002
11:31:11.884,25.8751,51.0002
11:31:11.894,11.5625,36.6876
11:31:11.902,-6.5938,20.3126
11:31:11.913,-24.5626,4.25
11:31:11.922,-37.0001,-8.4375
11:31:11.933,-49.5002,-20.6876
11:31:11.943,-64.1252,-32.6876
11:31:11.953,-79.4378,-46.1252
11:31:11.962,-93.0629,-59.2502
11:31:11.973,-101.1254,-67.6253
11:31:11.983,-104.5004,-72.8753
11:31:11.993,-104.6254,-75.9378
11:31:12.003,-104.4379,-77.1878
11:31:12.012,-102.7504,-76.3753
11:31:12.029,-100.2191,-76.0628
11:31:12.035,-97.3754,-74.8753
11:31:12.053,-96.1254,-73.6878
11:31:12.059,-94.4066,-71.9378
11:31:12.066,-92.7191,-69.1253
11:31:12.072,-90.4066,-67.4378
11:31:12.082,-88.8753,-66.3128
11:31:12.092,-86.9378,-62.5002
11:31:12.103,-83.0941,-60.4377
11:31:12.113,-78.9066,-56.1252
11:31:12.122,-74.0628,-52.1877
11:31:12.133,-69.219,-48.5002
11:31:12.142,-65.969,-45.6252
11:31:12.153,-62.7502,-44.3127
11:31:12.163,-60.2502,-43.2502
11:31:12.173,-57.8752,-41.8127
11:31:12.183,-53.344,-41.7502
11:31:12.193,-47.7502,-40.0627
11:31:12.202,-37.6564,-35.5001
11:31:12.213,-27.0939,-31.5001
11:31:12.223,-16.8438,-26.6876
11:31:12.232,-8.0313,-23.2501
11:31:12.242,-1.7188,-19.6876
11:31:12.252,3.375,-20.1251
11:31:12.263,6.875,-19.6251
11:31:12.273,9.75,-20.9376
11:31:12.283,11.3438,-22.4376
11:31:12.293,11.4688,-24.6251
11:31:12.303,12.6563,-27.0001
11:31:12.313,12.9063,-27.9376
11:31:12.323,13.8126,-29.9376
11:31:12.333,15.0626,-30.0626
11:31:12.343,15.3438,-30.3751
11:31:12.353,12.6875,-33.5626
11:31:12.362,9.4063,-35.8751
11:31:12.374,3.75,-40.0002
11:31:12.383,-3.625,-47.6252
11:31:12.412,-9.9063,-53.4377
11:31:12.413,-16.2501,-59.8752
11:31:12.415,-20.6563,-63.2502
11:31:12.446,-21.7188,-64.0627
11:31:12.450,-19.6251,-60.1252
11:31:12.450,-13.5001,-51.7502
11:31:12.455,-5.3438,-38.8751
11:31:12.486,5.0313,-22.5626
11:31:12.488,16.4376,-3.6875
11:31:12.489,28.8439,14.5626
11:31:12.516,39.6877,34.6251
11:31:12.516,51.3439,51.1877
11:31:12.519,58.4377,66.3128
11:31:12.525,63.969,75.1878
11:31:12.541,67.5315,82.3128
11:31:12.548,69.0315,85.8128
11:31:12.571,68.844,88.0003
11:31:12.574,68.3753,84.8753
11:31:12.576,65.2815,81.4378
11:31:12.583,59.8127,72.4378
11:31:12.593,53.6565,61.8752
11:31:12.602,47.5314,51.7502
11:31:12.613,41.1564,41.8752
11:31:12.622,34.8751,31.1251
11:31:12.633,27.8751,20.4376
11:31:12.642,21.0938,10
11:31:12.655,13.125,0.1875
11:31:12.662,2.125,-12.6875
11:31:12.672,-10.8438,-27.4376
11:31:12.683,-25.8438,-41.1877
11:31:12.694,-42.0939,-54.3127
11:31:12.702,-61.594,-68.5003
11:31:12.713,-73.3753,-77.1253
11:31:12.722,-81.8441,-83.0003
11:31:12.733,-91.5004,-88.1878
11:31:12.743,-99.6879,-91.1879
11:31:12.752,-105.6254,-92.4379
11:31:12.772,-106.1254,-89.8753
11:31:12.774,-102.7504,-84.0628
11:31:12.789,-98.5316,-77.0003
11:31:12.804,-94.3441,-71.0628
11:31:12.807,-89.1878,-65.6253
11:31:12.839,-85.4691,-61.4377
11:31:12.840,-82.6253,-57.0627
11:31:12.844,-81.4378,-56.7502
11:31:12.844,-80.2191,-55.2502
11:31:12.857,-79.5941,-56.0002
11:31:12.863,-78.6253,-55.4377
11:31:12.873,-78.1565,-57.4377
11:31:12.884,-77.594,-57.4377
11:31:12.892,-77.094,-59.5002
11:31:12.903,-75.344,-59.5002
11:31:12.913,-74.5003,-61.7502
11:31:12.923,-73.0003,-62.0002
11:31:12.933,-71.719,-63.0002
11:31:12.943,-70.719,-64.9377
11:31:12.953,-68.8753,-66.0003
11:31:12.968,-65.7502,-66.9378
11:31:12.973,-60.1877,-66.1878
11:31:12.982,-50.1877,-64.1252
11:31:12.993,-39.0001,-60.3127
11:31:13.002,-28.5626,-54.4377
11:31:13.013,-19.7501,-51.4377
11:31:13.022,-13.3751,-48.9377
11:31:13.032,-8.0938,-46.2502
11:31:13.042,-1.4688,-44.6252
11:31:13.053,2.4375,-42.7502
11:31:13.062,6.9688,-41.8127
11:31:13.073,9.9375,-40.1252
11:31:13.084,13.3126,-39.7502
11:31:13.092,14.7501,-38.8126
11:31:13.102,17.1563,-38.1251
11:31:13.112,16.9376,-35.4376
11:31:13.122,18.8751,-33.3751
11:31:13.153,19.6251,-26.3751
11:31:13.157,20.3126,-21.3751
11:31:13.158,22.7188,-11.4375
11:31:13.164,26.0001,0.75
11:31:13.206,31.5939,15.8126
11:31:13.208,40.4377,32.7501
11:31:13.212,49.1564,50.6252
11:31:13.215,58.844,66.3753
11:31:13.218,65.844,80.8753
11:31:13.249,71.6878,91.5629
11:31:13.251,75.6565,99.3129
11:31:13.253,77.9065,103.2504
11:31:13.259,78.2815,104.8129
11:31:13.269,76.6878,103.1879
11:31:13.299,74.4065,99.8129
11:31:13.300,70.8128,95.3754
11:31:13.303,67.219,89.3753
11:31:13.311,63.969,84.6878
11:31:13.317,61.094,78.6253
11:31:13.329,56.844,72.0003
11:31:13.345,53.2815,65.2503
11:31:13.351,47.7502,56.0627
11:31:13.358,42.0314,47.4377
11:31:13.376,36.0626,36.6876
11:31:13.381,32.0314,27.9376
11:31:13.390,27.9376,18.9376
11:31:13.398,25.3126,12.1875
11:31:13.409,22.2188,6.5625
11:31:13.417,18.3438,0.3125
11:31:13.429,12.7813,-6.3125
11:31:13.437,4.1563,-14.0626
11:31:13.448,-6.9688,-21.6251
11:31:13.458,-19.2501,-30.4376
11:31:13.468,-31.8751,-35.9376
11:31:13.477,-45.5939,-42.8752
11:31:13.488,-54.5627,-45.2502
11:31:13.497,-63.219,-47.0002
11:31:13.508,-74.6253,-51.8752
11:31:13.518,-84.3753,-56.6252
11:31:13.528,-87.5628,-56.3752
11:31:13.537,-86.3441,-53.9377
11:31:13.548,-85.1253,-51.2502
11:31:13.558,-83.5316,-49.2502
11:31:13.569,-81.8128,-48.3127
11:31:13.578,-80.0628,-47.2502
11:31:13.588,-78.5315,-45.5002
11:31:13.598,-77.1253,-46.3752
11:31:13.609,-76.4378,-46.6252
11:31:13.617,-77.094,-47.9377
11:31:13.627,-76.0003,-50.6252
11:31:13.638,-77.469,-52.0002
11:31:13.648,-77.2815,-56.2502
11:31:13.657,-77.6565,-58.3127
11:31:13.667,-78.719,-61.7502
11:31:13.678,-77.969,-64.8752
11:31:13.688,-78.469,-68.0628
11:31:13.698,-78.094,-71.3753
11:31:13.708,-77.5315,-73.1878
11:31:13.722,-76.3753,-76.3128
11:31:13.728,-74.219,-76.7503
11:31:13.738,-69.8753,-78.8128
11:31:13.748,-63.6252,-77.0003
11:31:13.757,-54.4065,-74.2503
11:31:13.768,-44.8127,-71.8128
11:31:13.777,-34.0314,-66.8753
11:31:13.787,-24.0313,-61.0002
11:31:13.798,-15.0938,-56.6252
11:31:13.808,-6.5625,-50.8752
11:31:13.818,3.0625,-44.3127
11:31:13.843,12.1875,-35.8126
11:31:13.845,21.6251,-26.1251
11:31:13.875,33.2189,-11.5625
11:31:13.878,46.1877,4.4375
11:31:13.879,58.5315,23.9376
11:31:13.883,70.5315,43.5627
11:31:13.912,81.9691,63.3752
11:31:13.913,90.8129,83.3128
11:31:13.917,99.0004,98.6879
11:31:13.920,103.6254,112.6254
11:31:13.948,105.9692,121.688
11:31:13.950,106.5004,127.938
11:31:13.952,105.3441,131.688
11:31:13.981,104.5316,131.938
11:31:13.981,102.5941,131.7505
11:31:13.985,100.4691,127.3755
11:31:13.991,95.8129,122.813
11:31:13.998,91.1254,115.6879
11:31:14.008,85.6566,106.6879
11:31:14.018,80.7191,98.2504
11:31:14.027,75.8128,89.9378
11:31:14.038,70.5315,82.5628
11:31:14.048,64.9065,74.0003
11:31:14.057,59.4377,66.5628
11:31:14.068,54.3127,57.8752
11:31:14.089,50.4377,51.1252
11:31:14.091,46.4377,45.6252
11:31:14.119,42.5627,38.4376
11:31:14.121,37.2501,31.5001
11:31:14.136,33.8126,24.0626
11:31:14.139,28.9376,18.3126
11:31:14.151,25.2188,12.75
11:31:14.154,22.6563,8.1875
11:31:14.159,20.0313,5.75
11:31:14.167,17.0001,3.625
11:31:14.177,10.9375,0.1875
11:31:14.188,1.5313,-4.3125
11:31:14.198,-11.3438,-11.375
11:31:14.208,-26.0938,-16.6876
11:31:14.217,-43.4689,-25.8126
11:31:14.229,-55.3127,-31.1876
11:31:14.238,-73.2815,-40.5627
11:31:14.248,-87.3753,-48.3127
11:31:14.258,-90.5003,-50.1877
11:31:14.267,-91.5629,-52.5002
11:31:14.278,-93.4066,-53.0002
11:31:14.289,-92.8441,-53.7502
11:31:14.298,-93.1254,-53.4377
11:31:14.308,-93.0004,-54.5627
11:31:14.317,-92.5316,-56.8127
11:31:14.329,-93.1254,-57.3752
11:31:14.337,-92.7191,-59.0627
11:31:14.350,-92.4379,-59.5627
11:31:14.358,-91.5629,-60.8752
11:31:14.369,-90.8753,-61.5627
11:31:14.377,-91.5004,-64.3127
11:31:14.389,-92.3129,-67.1253
11:31:14.399,-91.4379,-69.3128
11:31:14.409,-91.9379,-71.9378
11:31:14.417,-92.5941,-75.4378
11:31:14.429,-93.0004,-79.0628
11:31:14.438,-93.3441,-82.6253
11:31:14.449,-93.1254,-85.3753
11:31:14.458,-93.5941,-89.0628
11:31:14.469,-93.1879,-90.0629
11:31:14.477,-91.7816,-92.1254
11:31:14.489,-89.7503,-91.6254
11:31:14.497,-85.0003,-89.8753
11:31:14.509,-78.6878,-86.5628
11:31:14.518,-68.844,-83.5628
11:31:14.527,-56.1565,-76.8753
11:31:14.539,-43.1252,-69.1253
11:31:14.548,-29.9064,-58.7502
11:31:14.559,-13.4688,-44.7502
11:31:14.568,6.4063,-26.2501
11:31:14.577,25.0626,-5.8125
11:31:14.589,46.1564,18.7501
11:31:14.599,68.5628,44.6252
11:31:14.609,88.6878,71.3753
11:31:14.645,107.8754,97.1879
11:31:14.648,120.5942,118.563
11:31:14.654,125.9067,133.2505
11:31:14.654,126.4067,140.7505
11:31:14.698,123.5317,144.063
11:31:14.772,116.0317,141.7505
11:31:14.772,107.4379,134.813
11:31:14.772,100.4691,129.1255
11:31:14.775,93.7816,124.063
11:31:14.775,87.6253,115.2504
11:31:14.782,79.6253,106.5004
11:31:14.782,72.2503,97.0004
11:31:14.782,65.3753,87.3753
11:31:14.794,58.6877,78.5628
11:31:14.803,53.719,69.0628
11:31:14.810,46.7502,59.7502
11:31:14.818,40.4064,50.4377
11:31:14.829,34.7814,39.5002
11:31:14.840,28.7189,30.1876
11:31:14.848,23.3438,20.8751
11:31:14.859,18.6251,12.625
11:31:14.868,14.0938,5.875
11:31:14.884,9.5938,-1.125
11:31:14.888,6.9375,-5.75
11:31:14.899,5.375,-9.4375
11:31:14.909,7.4375,-6.8125
11:31:14.917,10.3438,-2.375
11:31:14.929,12.8125,0.5
11:31:14.937,14.5626,2.75
11:31:14.949,35.6876,19.7501
11:31:14.957,37.1876,18.5626
11:31:14.969,34.6251,16.1876
11:31:14.979,30.2189,10.9375
11:31:14.993,22.3751,3.4375
11:31:15.002,13.0938,-4.75
11:31:15.009,2.3125,-13.8751
11:31:15.019,-10.9375,-25.0001
11:31:15.029,-22.9688,-34.3126
11:31:15.038,-36.4376,-46.0002
11:31:15.049,-49.4689,-57.3127
11:31:15.059,-58.2815,-66.4378
11:31:15.069,-65.1565,-73.8128
11:31:15.078,-71.4065,-80.6253
11:31:15.089,-76.4065,-87.4378
11:31:15.099,-80.6253,-92.5004
11:31:15.107,-84.6566,-98.2504
11:31:15.119,-88.1566,-104.4379
11:31:15.129,-91.7191,-110.6879
11:31:15.139,-95.0941,-116.0629
11:31:15.148,-97.6254,-120.688
11:31:15.159,-100.1566,-126.0005
11:31:15.168,-102.1254,-130.1255
11:31:15.180,-104.7191,-131.7505
11:31:15.189,-105.9379,-136.313
11:31:15.200,-106.2817,-137.813
11:31:15.208,-106.8754,-138.438
11:31:15.220,-106.4692,-138.938
11:31:15.228,-102.7816,-136.313
11:31:15.239,-95.8129,-129.2505
11:31:15.250,-89.8753,-118.3755
11:31:15.259,-78.3753,-103.1879
11:31:15.268,-65.5315,-83.0628
11:31:15.300,-49.9064,-61.0627
11:31:15.301,-34.0314,-37.3126
11:31:15.304,-20.0626,-14.0001
11:31:15.309,-6.2813,8.375
11:31:15.336,5.9063,28.2501
11:31:15.339,15.4376,45.4377
11:31:15.341,22.6563,59.5627
11:31:15.376,29.2501,70.8753
11:31:15.379,32.9376,78.0628
11:31:15.380,35.7189,83.8128
11:31:15.406,37.6876,86.6878
11:31:15.441,38.8126,89.0628
11:31:15.441,37.7189,86.9378
11:31:15.441,36.3751,85.0628
11:31:15.441,33.4376,81.1878
11:31:15.456,32.0939,77.9378
11:31:15.472,28.7814,73.2503
11:31:15.476,27.1564,68.8753
11:31:15.476,23.8126,64.9377
11:31:15.476,20.5001,57.8752
11:31:15.489,16.4063,51.7502
11:31:15.491,12.8125,44.9377
11:31:15.499,10.0313,39.8752
11:31:15.508,7.2813,35.5001
11:31:15.518,6.5313,31.5626
11:31:15.529,6.0625,30.0626
11:31:15.538,5.6875,28.7501
11:31:15.549,6.4063,29.8126
11:31:15.559,7.625,29.9376
11:31:15.569,9,31.1876
11:31:15.579,9.9688,32.0001
11:31:15.589,11.5,33.7501
11:31:15.599,12.25,36.0626
11:31:15.609,14.4688,37.6876
11:31:15.619,14.4688,36.6876
11:31:15.634,13.5938,36.6251
11:31:15.640,11.8438,35.2501
11:31:15.649,11.6563,34.1876
11:31:15.658,10.9375,32.6876
11:31:15.671,8.9063,30.1251
11:31:15.679,7.2188,28.1251
11:31:15.687,4.9063,25.8126
11:31:15.698,3.625,22.4376
11:31:15.709,1.8125,19.9376
11:31:15.719,0.25,17.1251
11:31:15.729,-0.9688,14.3751
11:31:15.740,-2.2813,12
11:31:15.749,-3.4375,9.4375
11:31:15.758,-4.6875,6.125
11:31:15.771,-6.7813,3.375
11:31:15.779,-8.2188,-0.25
11:31:15.789,-10.625,-4
11:31:15.799,-13.0938,-8.375
11:31:15.809,-15.4688,-13.3126
11:31:15.820,-17.8438,-16.8126
11:31:15.829,-18.3751,-19.0001
11:31:15.839,-20.0626,-22.1251
11:31:15.849,-21.7501,-25.6876
11:31:15.859,-23.8751,-29.8751
11:31:15.869,-25.7501,-33.5626
11:31:15.879,-27.2501,-34.6876
11:31:15.889,-27.9064,-37.5001
11:31:15.899,-28.9376,-38.4376
11:31:15.909,-29.6876,-39.8127
11:31:15.919,-28.2814,-39.2501
11:31:15.929,-26.3438,-37.5626
11:31:15.939,-21.5001,-30.1251
11:31:15.949,-13.9063,-19.3751
11:31:15.960,-3.0625,-4.3125
11:31:15.969,7.3125,12.5625
11:31:15.979,19.8438,32.4376
11:31:15.989,32.9064,53.0627
11:31:16.010,43.7814,71.9378
11:31:16.016,52.844,89.6253
11:31:16.056,61.8127,102.9379
11:31:16.060,66.1878,114.3129
11:31:16.086,71.0315,121.3755
11:31:16.086,72.8128,124.938
11:31:16.086,73.4065,127.8755
11:31:16.086,71.7815,125.2505
11:31:16.089,68.1565,122.2505
11:31:16.116,65.0002,116.9379
11:31:16.118,60.844,111.8129
11:31:16.120,57.594,105.9379
11:31:16.125,54.344,100.8129
11:31:16.129,51.4064,94.8129
11:31:16.170,47.6877,89.0628
11:31:16.172,44.0939,82.1253
11:31:16.178,40.2814,76.0628
11:31:16.178,35.8439,68.6878
11:31:16.184,32.5939,61.4377
11:31:16.190,28.7501,55.5002
11:31:16.206,25.5001,49.1877
11:31:16.209,23.0313,44.5002
11:31:16.218,21.2188,40.6252
11:31:16.229,19.4688,38.0001
11:31:16.238,18.8751,35.6876
11:31:16.249,18.5938,34.8126
11:31:16.259,19.0938,34.6251
11:31:16.269,20.6251,36.0626
11:31:16.279,21.9376,36.8751
11:31:16.289,22.8126,38.1251
11:31:16.299,24.0626,39.2502
11:31:16.309,24.0938,40.6877
11:31:16.319,24.3751,41.6252
11:31:16.329,24.1251,41.5002
11:31:16.339,24.3751,41.7502
11:31:16.348,24.1563,40.8752
11:31:16.359,23.0313,39.9377
11:31:16.370,22.0938,38.2501
11:31:16.384,21.0313,34.4376
11:31:16.389,19.2501,32.4376
11:31:16.399,17.3126,28.5001
11:31:16.409,15.0001,24.5001
11:31:16.419,12.5625,20.0626
11:31:16.429,9.9688,17.0626
11:31:16.439,6.4688,12
11:31:16.449,4.625,6.75
11:31:16.461,2.2813,3.1875
11:31:16.469,0.5625,-0.0625
11:31:16.478,-0.5313,-3.625
11:31:16.489,-2.125,-7.125
11:31:16.500,-2.7188,-10
11:31:16.509,-4.5,-13.5626
11:31:16.519,-6.1563,-17.7501
11:31:16.529,-7.9063,-22.1251
11:31:16.539,-9.8125,-25.4376
11:31:16.549,-11.9375,-29.8751
11:31:16.560,-13.5001,-34.2501
11:31:16.569,-15.7501,-37.8126
11:31:16.579,-16.1251,-40.6252
11:31:16.589,-16.5626,-43.3752
11:31:16.599,-17.7188,-45.8127
11:31:16.609,-17.6876,-48.1877
11:31:16.620,-18.2813,-50.9377
11:31:16.629,-18.9376,-52.4377
11:31:16.639,-19.2188,-55.3127
11:31:16.649,-17.9376,-53.6877
11:31:16.677,-14.8438,-50.1877
11:31:16.679,-9.125,-41.7502
11:31:16.681,-0.3125,-29.9376
11:31:16.689,10,-14.1876
11:31:16.699,21.5313,4.875
11:31:16.709,33.4376,22.8126
11:31:16.723,43.5627,41.3127
11:31:16.729,53.7502,57.0627
11:31:16.763,61.5002,71.8753
11:31:16.764,67.219,80.9378
11:31:16.799,70.1565,88.7503
11:31:16.801,72.094,91.3129
11:31:16.804,70.1565,90.8754
11:31:16.805,66.719,86.3128
11:31:16.805,61.5002,81.7503
11:31:16.810,57.6252,74.1878
11:31:16.851,52.2814,67.8753
11:31:16.853,48.4377,60.5627
11:31:16.860,43.5002,54.8752
11:31:16.860,39.4064,47.9377
11:31:16.865,35.4064,41.5002
11:31:16.869,31.6876,35.0626
11:31:16.900,27.5939,27.3751
11:31:16.904,23.1251,19.9376
11:31:16.905,19.7188,13.7501
11:31:16.910,16.3126,8.1875
11:31:16.919,13.3126,2.5
11:31:16.929,11.75,-2.1875
11:31:16.939,10.0625,-5.4375
11:31:16.950,9.2188,-8.25
11:31:16.959,8.3125,-9.9375
11:31:16.970,8.9375,-10.375
11:31:16.979,8.7188,-10.0625
11:31:16.989,9,-9.0625
11:31:17.000,9.125,-9.4375
11:31:17.009,9.375,-7.5
11:31:17.019,10.0313,-5
11:31:17.029,11.3438,-3.6875
11:31:17.040,11.3438,-1
11:31:17.050,12.0625,-0.25
11:31:17.059,12.5,-0.0625
11:31:17.069,12.3438,0.25
11:31:17.079,12.0938,-0.125
11:31:17.089,10.625,-1
11:31:17.099,9.5625,-2.4375
11:31:17.109,8.5313,-5.125
11:31:17.119,7.1563,-6.75
11:31:17.129,5.25,-10.3125
11:31:17.139,2.375,-13.4376
11:31:17.149,0.0938,-17.7501
11:31:17.159,-2.25,-22.4376
11:31:17.169,-5.8438,-26.7501
11:31:17.178,-9.0938,-32.2501
11:31:17.189,-11.75,-35.0626
11:31:17.199,-14.5938,-39.6877
11:31:17.209,-16.4688,-42.5002
11:31:17.219,-17.8126,-46.4377
11:31:17.229,-20.6251,-49.0627
11:31:17.239,-23.4063,-53.3127
11:31:17.249,-25.4688,-57.0627
11:31:17.260,-27.7814,-61.6877
11:31:17.277,-29.4064,-64.3127
11:31:17.284,-31.1876,-67.5003
11:31:17.294,-33.2814,-69.7503
11:31:17.311,-33.3751,-71.8128
11:31:17.326,-34.7814,-73.5003
11:31:17.329,-35.8439,-76.2503
11:31:17.335,-36.7501,-78.4378
11:31:17.344,-39.7189,-80.3128
11:31:17.354,-40.4064,-82.3753
11:31:17.364,-39.4377,-82.3753
11:31:17.374,-38.2501,-80.0628
11:31:17.384,-33.4376,-74.2503
11:31:17.394,-26.9376,-63.5002
11:31:17.405,-16.0938,-48.5627
11:31:17.414,-5.8438,-31.9376
11:31:17.424,5.7188,-13.3751
11:31:17.434,21.5313,14.7501
11:31:17.444,31.4064,32.5001
11:31:17.455,39.6252,45.8127
11:31:17.464,44.9689,57.0002
11:31:17.474,48.0939,65.3128
11:31:17.484,50.0002,69.7503
11:31:17.493,50.8439,71.2503
11:31:17.504,49.4064,71.0628
11:31:17.514,47.1564,68.8128
11:31:17.524,44.2189,64.7502
11:31:17.534,40.0002,58.1252
11:31:17.573,34.7501,51.1252
11:31:17.575,30.0001,44.0002
11:31:17.578,25.3751,36.4376
11:31:17.580,20.8126,29.6876
11:31:17.587,17.3751,23.6876
11:31:17.610,12.7188,17.3126
11:31:17.612,8.5,9.25
11:31:17.615,3.2188,2.375
11:31:17.653,-0.4063,-3.4375
11:31:17.654,-3.8125,-10.0625
11:31:17.655,-6.75,-14.6251
11:31:17.663,-9.0625,-18.3751
11:31:17.664,-9.7188,-20.7501
11:31:17.693,-8.9063,-20.7501
11:31:17.695,-7.8438,-19.6876
11:31:17.698,-6.6563,-17.1876
11:31:17.705,-4.9688,-15.0001
11:31:17.726,-2.5,-12.4375
11:31:17.729,-1.1875,-10.125
11:31:17.735,-0.0938,-6.5625
11:31:17.744,0.125,-4.6875
11:31:17.754,1.5938,-3.4375
11:31:17.764,1.625,-2.0625
11:31:17.774,2.0938,-1.3125
11:31:17.784,1.875,-1.75
11:31:17.793,1.4375,-1.625
11:31:17.804,0.4063,-2.3125
11:31:17.814,0,-3.5
11:31:17.824,-1.375,-5.9375
11:31:17.834,-3.4688,-8.25
11:31:17.844,-5.4063,-11.5625
11:31:17.854,-7.0625,-13.2501
11:31:17.864,-9,-17.6251
11:31:17.874,-10.6875,-20.2501
11:31:17.884,-13.2813,-23.5001
11:31:17.894,-14.2813,-26.7501
11:31:17.904,-16.3751,-29.6251
11:31:17.914,-18.4688,-33.2501
11:31:17.924,-20.0938,-37.6251
11:31:17.961,-22.5626,-39.8752
11:31:17.961,-24.2188,-44.3752
11:31:17.963,-26.5939,-47.5002
11:31:17.970,-28.1564,-52.0002
11:31:17.975,-30.3439,-54.5002
11:31:17.984,-33.5001,-59.2502
11:31:17.994,-35.9376,-61.6877
11:31:18.004,-37.4689,-65.6252
11:31:18.014,-38.4064,-66.6253
11:31:18.024,-39.2501,-69.5628
11:31:18.034,-40.0627,-70.6878
11:31:18.044,-41.1252,-71.0003
11:31:18.060,-40.6877,-72.5628
11:31:18.075,-40.1564,-71.1253
11:31:18.077,-37.5939,-68.7503
11:31:18.084,-33.4064,-62.0002
11:31:18.094,-25.0938,-51.7502
11:31:18.104,-17.0626,-36.4376
11:31:18.114,-5.375,-19.5626
11:31:18.124,5.5625,-0.3125
11:31:18.134,17.5626,19.0001
11:31:18.144,28.4064,38.1876
11:31:18.154,36.5314,53.2502
11:31:18.164,44.7502,66.5003
11:31:18.174,49.1252,76.3128
11:31:18.184,52.5314,82.1253
11:31:18.194,52.9377,85.3128
11:31:18.205,52.7502,85.5003
11:31:18.213,50.8127,82.6253
11:31:18.224,47.0939,79.3753
11:31:18.242,44.1252,73.0003
11:31:18.245,39.3127,67.6253
11:31:18.274,35.8126,60.3127
11:31:18.277,31.8439,54.7502
11:31:18.279,28.1564,47.7502
11:31:18.285,23.5001,40.5002
11:31:18.318,18.9688,34.0001
11:31:18.320,15.5938,26.4376
11:31:18.322,11.5,19.5626
11:31:18.326,8.3125,12.875
11:31:18.358,4.2188,6.5
11:31:18.359,1.375,0.8125
11:31:18.361,-3.2188,-4.3125
11:31:18.393,-6.5625,-8.9375
11:31:18.397,-8,-12.4375
11:31:18.399,-9.1563,-12.625
11:31:18.403,-7.8438,-12.375
11:31:18.405,-6.8125,-10.1875
11:31:18.417,-5.125,-7
11:31:18.424,-2.25,-4.375
11:31:18.438,-0.1875,-0.8125
11:31:18.445,1.2188,1.9375
11:31:18.454,2.5313,4.9375
11:31:18.464,2.8125,5.6875
11:31:18.480,2.9375,6.1875
11:31:18.486,3.25,5.8125
11:31:18.494,3.4063,6.875
11:31:18.504,3.4063,6.125
11:31:18.513,2.5313,4.75
11:31:18.524,1.7813,2.25
11:31:18.535,-0.4063,0.375
11:31:18.544,-1.9375,-3.75
11:31:18.554,-2.8125,-6
11:31:18.564,-4.5625,-9.6875
11:31:18.574,-7.1875,-11.9375
11:31:18.584,-9.3125,-17.0626
11:31:18.607,-11.375,-20.6251
11:31:18.613,-14.1251,-24.1251
11:31:18.626,-16.5626,-27.5001
11:31:18.629,-19.0626,-32.8751
11:31:18.634,-21.6563,-36.3126
11:31:18.643,-23.1876,-39.1877
11:31:18.654,-25.0938,-43.5002
11:31:18.664,-27.7814,-46.1877
11:31:18.674,-29.4689,-49.6252
11:31:18.684,-30.8439,-53.1877
11:31:18.694,-32.4689,-55.0627
11:31:18.704,-34.4689,-57.9377
11:31:18.714,-34.5939,-61.1252
11:31:18.725,-36.3126,-62.2502
11:31:18.734,-36.8126,-64.9377
11:31:18.744,-36.8439,-67.0003
11:31:18.754,-38.0939,-68.5003
11:31:18.765,-38.3751,-69.0628
11:31:18.774,-38.5939,-70.7503
11:31:18.784,-37.9376,-69.4378
11:31:18.794,-34.9376,-66.6253
11:31:18.804,-29.0939,-58.0002
11:31:18.815,-22.0313,-47.0002
11:31:18.824,-11.8125,-31.1251
11:31:18.834,0.1875,-11.75
11:31:18.844,11.9375,7.3125
11:31:18.855,24.1251,27.5626
11:31:18.865,34.0001,46.4377
11:31:18.874,43.7189,61.7502
11:31:18.884,50.2814,75.3753
11:31:18.894,54.6565,83.1253
11:31:18.904,57.3752,87.8128
11:31:18.914,56.7815,89.4378
11:31:18.924,55.0627,87.8128
11:31:18.934,51.4064,84.1878
11:31:18.944,47.7814,78.8753
11:31:18.955,43.6877,73.0628
11:31:18.964,39.8752,67.0628
11:31:18.974,36.0001,61.0627
11:31:18.986,32.2189,53.7502
11:31:19.021,28.0314,47.8127
11:31:19.024,24.0626,41.5627
11:31:19.024,20.6563,34.8126
11:31:19.027,16.0313,28.1251
11:31:19.059,12.5313,21.6251
11:31:19.064,8.75,15.0626
11:31:19.064,5.5313,9.75
11:31:19.069,3.3438,4.0625
11:31:19.109,0.5625,-0.1875
11:31:19.110,-0.3438,-3.4375
11:31:19.113,-0.8125,-4.6875
11:31:19.118,-0.7188,-5
11:31:19.124,0.5313,-4.1875
11:31:19.131,1.6563,-3.0625
11:31:19.137,3.2813,0.0625
11:31:19.169,5.125,2.5
11:31:19.170,6.8125,5.75
11:31:19.173,8.4063,8.6875
11:31:19.175,10.1875,10.0625
11:31:19.185,11.5625,11.4375
11:31:19.193,11.3438,11.625
11:31:19.205,11.3125,11.6875
11:31:19.237,9.2813,10.25
11:31:19.239,7.9375,8.5
11:31:19.241,6.375,5.6875
11:31:19.253,5,4.1875
11:31:19.255,3.4375,1.25
11:31:19.264,1.0313,-0.9375
11:31:19.274,0.375,-4.5625
11:31:19.285,-0.6563,-7.25
11:31:19.294,-3.5,-10.8125
11:31:19.305,-5.5313,-13.6251
11:31:19.315,-7.0313,-18.3126
11:31:19.324,-8.9375,-20.8126
11:31:19.334,-10.7188,-23.7501
11:31:19.356,-12.2188,-27.0001
11:31:19.358,-13.8438,-30.7501
11:31:19.372,-16.8126,-34.6876
11:31:19.375,-19.2813,-38.5001
11:31:19.384,-21.3751,-42.4377
11:31:19.396,-23.5938,-45.0002
11:31:19.404,-25.7188,-47.8752
11:31:19.414,-26.6876,-50.8127
11:31:19.423,-27.8751,-52.4377
11:31:19.434,-28.9689,-55.5002
11:31:19.444,-31.0001,-56.3752
11:31:19.453,-31.8126,-59.9377
11:31:19.465,-32.4689,-61.4377
11:31:19.473,-34.7189,-63.7502
11:31:19.485,-35.3751,-66.0628
11:31:19.495,-35.7814,-66.8128
11:31:19.505,-37.5001,-69.2503
11:31:19.514,-38.6876,-71.5003
11:31:19.525,-39.1564,-73.0003
11:31:19.534,-40.8127,-74.6878
11:31:19.544,-40.9064,-75.5003
11:31:19.557,-40.4689,-75.3753
11:31:19.563,-38.0626,-72.5003
11:31:19.575,-32.3751,-65.1878
11:31:19.585,-25.6251,-53.6877
11:31:19.594,-15.0001,-38.7501
11:31:19.604,-4.1875,-21.1876
11:31:19.614,7.5938,-0.3125
11:31:19.626,19.7813,19.5626
11:31:19.635,31.4376,38.8751
11:31:19.644,40.8127,58.6252
11:31:19.656,49.1564,72.3753
11:31:19.664,54.719,84.5003
11:31:19.675,58.6565,90.9379
11:31:19.685,60.094,95.8129
11:31:19.694,60.1565,96.1254
11:31:19.725,59.0627,94.5004
11:31:19.726,55.1565,90.5003
11:31:19.729,52.2502,85.0628
11:31:19.734,47.3439,77.8753
11:31:19.771,42.8752,70.6253
11:31:19.771,38.5314,64.5002
11:31:19.774,33.9376,57.0002
11:31:19.777,30.4376,50.6252
11:31:19.820,27.0001,43.4377
11:31:19.820,22.0001,36.7501
11:31:19.823,19.4376,29.6251
11:31:19.830,13.9688,22.8751
11:31:19.830,10.6563,16.0001
11:31:19.837,7.5313,9.75
11:31:19.868,4.4375,4.875
11:31:19.869,2.3125,1.3125
11:31:19.873,1.5,-1.25
11:31:19.875,1.375,-1.125
11:31:19.884,2.1875,-1.75
11:31:19.897,3.8438,0.0625
11:31:19.914,5.1563,2.5
11:31:19.920,6.8438,6.3125
11:31:19.935,9.5938,10.1875
11:31:19.938,10.2188,12.8125
11:31:19.945,11.9063,15.1876
11:31:19.955,13.2188,17.9376
11:31:19.964,13.6876,20.0626
11:31:19.975,14.1251,20.3751
11:31:19.985,13.5313,19.6876
11:31:20.000,12.8125,18.6251
11:31:20.005,11.1875,16.5001
11:31:20.016,9.9375,15.3751
11:31:20.025,8,13.3126
11:31:20.035,6.5313,9.5625
11:31:20.044,4.4375,7.375
11:31:20.055,2.9063,3.6875
11:31:20.064,0.8438,1
11:31:20.075,-0.4688,-3.1875
11:31:20.084,-2.1875,-6.75
11:31:20.095,-5.2813,-10.3125
11:31:20.106,-8.75,-14.7501
11:31:20.114,-10.7813,-19.5626
11:31:20.124,-13.2188,-22.9376
11:31:20.134,-15.3126,-27.3126
11:31:20.147,-17.0626,-30.5626
11:31:20.156,-18.9688,-34.1876
11:31:20.164,-21.2501,-38.3751
11:31:20.175,-23.0313,-40.2502
11:31:20.184,-24.1876,-44.6252
11:31:20.196,-26.2188,-47.8752
11:31:20.204,-27.8439,-50.0627
11:31:20.215,-29.4376,-52.3127
11:31:20.225,-31.2814,-54.9377
11:31:20.234,-32.2814,-57.8127
11:31:20.244,-32.3439,-58.8752
11:31:20.254,-34.7501,-60.6877
11:31:20.264,-34.3126,-61.5002
11:31:20.274,-32.8126,-59.2502
11:31:20.286,-28.9689,-55.4377
11:31:20.294,-23.0001,-45.4377
11:31:20.304,-15.0626,-33.8126
11:31:20.315,-4.8438,-17.3751
11:31:20.324,6.2813,0.75
11:31:20.334,16.6876,19.0001
11:31:20.345,27.7189,36.7501
11:31:20.354,35.4064,52.1877
11:31:20.364,43.6877,65.3127
11:31:20.379,47.9377,75.1253
11:31:20.386,50.9377,81.3753
11:31:20.395,51.9064,84.6878
11:31:20.405,51.1877,84.5628
11:31:20.414,48.9377,82.4378
11:31:20.425,46.2502,77.8753
11:31:20.459,42.0002,72.8753
11:31:20.461,38.0626,66.0003
11:31:20.463,33.9689,59.1877
11:31:20.466,29.4376,52.5002
11:31:20.509,24.4688,45.2502
11:31:20.510,20.7501,37.6876
11:31:20.512,16.1251,30.5626
11:31:20.525,11.7188,22.9376
11:31:20.533,6.7188,15.1876
11:31:20.533,3.4688,8.5
11:31:20.535,-0.1875,1.9375
11:31:20.574,-3.5938,-2.8125
11:31:20.576,-5.9688,-8.4375
11:31:20.577,-7.5,-11.6875
11:31:20.580,-8.6563,-13.6251
11:31:20.585,-8.5,-14.8126
11:31:20.612,-7.7813,-14.0626
11:31:20.614,-6.5313,-11.875
11:31:20.617,-4.9063,-9.9375
11:31:20.626,-3.6563,-6.5625
11:31:20.635,-0.8438,-4.0625
11:31:20.652,0.1875,-0.4375
11:31:20.655,1.8125,2.0625
11:31:20.671,2.5938,2.8125
11:31:20.675,3,3.875
11:31:20.686,3.5313,3.9375
11:31:20.695,2.5938,4.625
11:31:20.704,2.75,2.9375
11:31:20.715,1.0625,2.6875
11:31:20.725,-0.125,-0.25
11:31:20.736,-1.9688,-3.25
11:31:20.745,-3.4375,-4.8125
11:31:20.753,-4.9688,-7.8125
11:31:20.765,-6.8125,-10.5
11:31:20.775,-8.1563,-13.8751
11:31:20.786,-10,-17.0001
11:31:20.795,-11.875,-19.8751
11:31:20.805,-13.8126,-22.4376
11:31:20.815,-15.7501,-26.1251
11:31:20.826,-17.7813,-30.3126
11:31:20.835,-19.4688,-34.1876
11:31:20.845,-21.7813,-37.4376
11:31:20.854,-23.6876,-39.8752
11:31:20.865,-24.7188,-44.1877
11:31:20.881,-27.3439,-47.5627
11:31:20.886,-29.2501,-50.2502
11:31:20.895,-31.7814,-55.0002
11:31:20.905,-33.3751,-57.4377
11:31:20.917,-35.4064,-60.8127
11:31:20.930,-36.8439,-63.3127
11:31:20.935,-37.9689,-65.6253
11:31:20.944,-39.0001,-66.9378
11:31:20.956,-39.5939,-68.9378
11:31:20.965,-40.0627,-69.1253
11:31:20.974,-39.2814,-69.3128
11:31:20.985,-37.8439,-67.8128
11:31:20.995,-34.5314,-64.1252
11:31:21.006,-29.2189,-55.3752
11:31:21.015,-20.5938,-41.8752
11:31:21.025,-10.7188,-27.2501
11:31:21.036,0.8125,-8.75
11:31:21.045,11.6875,11.5
11:31:21.055,23.1251,29.3126
11:31:21.065,31.9376,47.1877
11:31:21.076,40.0002,60.2502
11:31:21.085,45.3127,72.6878
11:31:21.094,49.7189,79.2503
11:31:21.105,51.7189,84.0628
11:31:21.116,50.8127,85.3753
11:31:21.128,49.1564,83.3128
11:31:21.135,46.5939,79.9378
11:31:21.145,42.9689,74.3753
11:31:21.156,39.0001,69.1253
11:31:21.165,34.8439,62.3752
11:31:21.186,31.5626,55.6877
11:31:21.189,26.3751,49.6877
11:31:21.195,22.8751,41.0627
11:31:21.265,18.0626,34.6876
11:31:21.267,13.5626,27.5001
11:31:21.269,9.5,19.0001
11:31:21.273,5.5625,13.3126
11:31:21.278,2.0938,5.5
11:31:21.279,-1.1563,-0.125
11:31:21.279,-3.0938,-4.5
11:31:21.323,-6,-8.4375
11:31:21.325,-7.0313,-10.75
11:31:21.327,-7.3125,-13
11:31:21.329,-7.125,-12.5
11:31:21.336,-5.9063,-10.9375
11:31:21.354,-3.8438,-9.5
11:31:21.356,-2.1875,-6.3125
11:31:21.366,0.375,-2.8125
11:31:21.375,1.9375,0.75
11:31:21.385,3,2.625
11:31:21.395,4.5938,4.0625
11:31:21.405,4.9375,6.1875
11:31:21.415,5.0313,6.5
11:31:21.425,4.5625,6.0625
11:31:21.435,3.7813,5.25
11:31:21.445,2.5625,3.375
11:31:21.456,-0.75,-2.9375
11:31:21.465,-2.6563,-4.5625
11:31:21.475,-4.1563,-8.3125
11:31:21.485,-6.5625,-10.75
11:31:21.495,-8.4375,-15.7501
11:31:21.506,-10.6563,-18.9376
11:31:21.516,-13.8438,-23.1876
11:31:21.525,-15.8126,-26.4376
11:31:21.535,-17.4376,-30.5626
11:31:21.546,-19.8126,-33.4376
11:31:21.555,-21.6251,-37.6876
11:31:21.566,-24.0001,-40.3127
11:31:21.575,-26.0001,-43.9377
11:31:21.585,-27.5626,-48.0002
11:31:21.595,-29.7501,-51.1252
11:31:21.605,-31.8439,-54.9377
11:31:21.615,-34.4376,-58.3127
11:31:21.625,-35.4689,-61.1877
11:31:21.636,-37.2814,-63.0002
11:31:21.645,-38.1251,-66.4378
11:31:21.655,-38.9064,-67.0628
11:31:21.665,-39.6252,-69.2503
11:31:21.675,-40.6877,-69.2503
11:31:21.685,-40.1877,-71.4378
11:31:21.695,-39.9689,-72.0628
11:31:21.705,-37.7814,-67.8753
11:31:21.715,-33.4064,-62.3127
11:31:21.726,-26.2501,-49.8752
11:31:21.735,-15.9688,-35.2501
11:31:21.746,-4.7188,-16.3126
11:31:21.755,7.4375,4.1875
11:31:21.766,19.9063,24.6251
11:31:21.798,31.1251,42.2502
11:31:21.799,40.7189,59.7502
11:31:21.801,47.1564,71.2503
11:31:21.805,51.0002,80.7503
11:31:21.817,54.2815,86.8128
11:31:21.825,55.0315,89.1878
11:31:21.836,54.2815,89.0003
11:31:21.856,51.4689,86.1878
11:31:21.858,48.8127,81.6253
11:31:21.865,44.1564,75.8128
11:31:21.900,40.6252,69.7503
11:31:21.901,36.8126,62.1877
11:31:21.904,32.2189,55.4377
11:31:21.906,28.1251,49.1877
11:31:21.981,24.0626,41.3752
11:31:21.984,18.9376,34.3751
11:31:21.984,14.3751,26.8126
11:31:21.990,10.6875,18.6251
11:31:21.992,5.625,12.4375
11:31:21.992,3.1875,6.6875
11:31:22.025,0.5938,1.6875
11:31:22.026,-2.1563,-2.5
11:31:22.030,-3.0625,-5.5
11:31:22.032,-2.8125,-7.875
11:31:22.046,-3.7188,-7.4375
11:31:22.050,-2.4375,-6.75
11:31:22.061,-1.6875,-4.625
11:31:22.070,-0.5,-3.25
11:31:22.081,2,-0.4375
11:31:22.090,4.1875,4
11:31:22.100,5.6563,7.125
11:31:22.111,7.125,10
11:31:22.120,7.4063,10.625
11:31:22.130,8.4688,11.75
11:31:22.140,7.9063,12.875
11:31:22.150,7.9375,11.5625
11:31:22.160,5.5938,8.1875
11:31:22.171,4.2813,6.5625
11:31:22.180,2.4063,3.0625
11:31:22.190,0.4375,0.625
11:31:22.200,-1.2813,-2.375
11:31:22.210,-2.4688,-6
11:31:22.220,-5.0313,-9.0625
11:31:22.230,-7,-13.5626
11:31:22.240,-9.8125,-16.9376
11:31:22.250,-12.4063,-21.1876
11:31:22.261,-15.3126,-26.5001
11:31:22.270,-17.3438,-29.4376
11:31:22.280,-19.1251,-32.3751
11:31:22.290,-20.4688,-37.0001
11:31:22.300,-22.2188,-40.0627
11:31:22.310,-23.4688,-42.0627
11:31:22.321,-25.3126,-45.5627
11:31:22.330,-27.5939,-49.3127
11:31:22.340,-28.3751,-50.7502
11:31:22.350,-29.9064,-54.0627
11:31:22.360,-31.4064,-56.5002
11:31:22.370,-32.5314,-58.1252
11:31:22.380,-32.9064,-59.3752
11:31:22.390,-33.2501,-61.6252
11:31:22.400,-33.2189,-61.1877
11:31:22.410,-31.2189,-59.1252
11:31:22.423,-27.6564,-54.5002
11:31:22.430,-21.6563,-45.5627
11:31:22.440,-12.8125,-31.7501
11:31:22.450,-2.4688,-16.2501
11:31:22.461,9.1563,1.625
11:31:22.471,20.3751,22.6251
11:31:22.480,30.8439,40.0627
11:31:22.490,40.7189,56.1877
11:31:22.500,47.1252,69.0003
11:31:22.516,52.0939,80.0003
11:31:22.531,55.1565,85.6253
11:31:22.534,55.094,87.3128
11:31:22.540,54.2815,89.3753
11:31:22.555,52.3439,86.0003
11:31:22.560,49.5939,81.1878
11:31:22.570,45.4689,76.6253
11:31:22.580,40.9689,69.5628
11:31:22.590,36.6251,62.8752
11:31:22.601,31.0001,54.9377
11:31:22.610,27.1251,46.6877
11:31:22.628,22.1563,38.6251
11:31:22.630,17.6876,31.5001
11:31:22.664,13.7188,24.5626
11:31:22.667,8.9688,17.0001
11:31:22.670,5.3438,9.875
11:31:22.671,2.0938,3.875
11:31:22.702,-0.9688,-1
11:31:22.704,-3.9375,-5.375
11:31:22.708,-4.9063,-8.625
11:31:22.710,-5.3438,-10.5
11:31:22.742,-5.5625,-9.75
11:31:22.744,-3.6875,-9.125
11:31:22.746,-1.9688,-6.0625
11:31:22.753,-0.5313,-2.875
11:31:22.791,2.125,-0.25
11:31:22.794,4.3125,3.125
11:31:22.794,5.75,6.125
11:31:22.797,7,8.6875
11:31:22.804,8.6875,11.4375
11:31:22.813,8.4375,11.875
11:31:22.825,9.25,12.0625
11:31:22.830,9.1875,12.5
11:31:22.840,8.125,11.9375
11:31:22.851,7.5313,10.4375
11:31:22.861,5.5313,8.0625
11:31:22.870,4.6875,5.375
11:31:22.880,2.0938,1.9375
11:31:22.890,0.125,-1.125
11:31:22.900,-2.125,-5.1875
11:31:22.911,-4.2188,-7.6875
11:31:22.920,-6.7188,-11.8125
11:31:22.930,-8.5313,-15.1251
11:31:22.940,-11.2188,-19.6251
11:31:22.950,-13.125,-24.4376
11:31:22.960,-15.4063,-27.7501
11:31:22.970,-17.2188,-32.1251
11:31:22.980,-19.3438,-35.4376
11:31:22.990,-21.9376,-39.1877
11:31:23.000,-23.6251,-42.5002
11:31:23.010,-24.9063,-45.6877
11:31:23.020,-26.4064,-48.5627
11:31:23.030,-28.0626,-50.8127
11:31:23.040,-29.5939,-54.1877
11:31:23.050,-31.5939,-57.0002
11:31:23.079,-32.6876,-59.1252
11:31:23.082,-34.0001,-61.8752
11:31:23.084,-34.1876,-62.5002
11:31:23.090,-33.3126,-62.3127
11:31:23.100,-31.7189,-59.8752
11:31:23.110,-27.0939,-53.3752
11:31:23.120,-19.3438,-43.5002
11:31:23.130,-10.0938,-29.5001
11:31:23.140,-0.0938,-10.75
11:31:23.150,12.3125,7.125
11:31:23.160,23.4688,26.0001
11:31:23.170,34.5314,45.6877
11:31:23.180,43.3439,61.3752
11:31:23.190,50.1252,74.3753
11:31:23.204,54.2502,83.5628
11:31:23.210,56.969,87.8128
11:31:23.220,57.2815,91.5629
11:31:23.230,56.5315,90.0003
11:31:23.249,54.3752,87.1253
11:31:23.251,51.3439,82.3753
11:31:23.268,48.0627,76.6878
11:31:23.275,43.7502,69.9378
11:31:23.280,39.4064,63.9377
11:31:23.324,34.9689,54.6877
11:31:23.325,30.0626,47.6877
11:31:23.329,24.2813,39.3752
11:31:23.330,19.9063,30.4376
11:31:23.336,14.2813,21.8126
11:31:23.370,9.3125,13.8751
11:31:23.372,4.9375,6.6875
11:31:23.374,0.375,-0.0625
11:31:23.378,-2.9063,-5.0625
11:31:23.381,-3.5313,-9.0625
11:31:23.413,-4.9375,-11.9375
11:31:23.414,-5.3125,-13.4376
11:31:23.416,-5.5625,-13.125
11:31:23.421,-4.1563,-11.1875
11:31:23.448,-2.75,-8.9375
11:31:23.450,-0.625,-6
11:31:23.452,0.6563,-3.375
11:31:23.465,2.9688,0.625
11:31:23.470,4.625,3.4375
11:31:23.480,6.125,6.625
11:31:23.490,7.3125,7.75
11:31:23.501,8.4375,9.25
11:31:23.511,8.5938,10
11:31:23.520,8.3438,10.25
11:31:23.530,6.9375,8.375
11:31:23.540,5.5625,6.4375
11:31:23.550,2.9375,4.9375
11:31:23.560,2,1.1875
11:31:23.570,-0.4063,-0.25
11:31:23.580,-1.4063,-4.4375
11:31:23.590,-3.1875,-5.8125
11:31:23.600,-5,-10.3125
11:31:23.610,-7.3438,-12.9375
11:31:23.620,-9.375,-17.3751
11:31:23.630,-11.0938,-20.6876
11:31:23.641,-12.7813,-23.8126
11:31:23.650,-15.0313,-27.1251
11:31:23.661,-17.1251,-31.3751
11:31:23.670,-19.9376,-34.5626
11:31:23.680,-22.1251,-38.4376
11:31:23.691,-24.2188,-42.3752
11:31:23.700,-26.3438,-45.6252
11:31:23.710,-27.6564,-48.3127
11:31:23.720,-29.3439,-51.4377
11:31:23.730,-30.5626,-53.4377
11:31:23.741,-31.3126,-54.9377
11:31:23.750,-32.3751,-58.0002
11:31:23.760,-33.4376,-58.8752
11:31:23.770,-33.6876,-59.8752
11:31:23.781,-33.5626,-60.5627
11:31:23.791,-32.3751,-57.6252
11:31:23.800,-27.4064,-52.0002
11:31:23.810,-19.3126,-40.1877
11:31:23.826,-10.25,-24.7501
11:31:23.841,2.125,-5.6875
11:31:23.844,14.4376,14.3751
11:31:23.859,26.8126,36.1876
11:31:23.862,38.3751,55.8752
11:31:23.870,48.8439,73.6253
11:31:23.881,55.7502,87.5628
11:31:23.890,60.9065,97.4379
11:31:23.900,62.969,103.1879
11:31:23.910,63.4065,106.1879
11:31:23.920,63.0002,105.7504
11:31:23.932,61.4065,103.5629
11:31:23.941,57.7502,98.8754
11:31:23.954,54.219,93.3129
11:31:23.960,49.3439,86.0003
11:31:23.970,44.9064,79.0003
11:31:23.980,40.4064,71.1878
11:31:23.990,35.9689,63.5002
11:31:24.000,31.3439,56.7502
11:31:24.010,26.6251,49.3752
11:31:24.020,22.1563,42.4377
11:31:24.030,18.5001,34.8751
11:31:24.061,14.3751,28.9376
11:31:24.063,11,22.0626
11:31:24.067,9.0313,17.1251
11:31:24.071,6.375,12.5
11:31:24.107,4.5,10.1875
11:31:24.109,4.8125,8.5625
11:31:24.112,3.8125,9.0625
11:31:24.140,5.0938,9.625
11:31:24.142,6.1875,10.875
11:31:24.144,8.3438,14.1876
11:31:24.149,10.125,17.6876
11:31:24.150,12.25,19.8126
11:31:24.183,14.2188,23.0001
11:31:24.185,15.1876,25.1251
11:31:24.188,16.0313,26.6251
11:31:24.193,15.8126,27.1876
11:31:24.218,15.3438,26.4376
11:31:24.221,13.8751,24.8751
11:31:24.224,13.1876,23.8751
11:31:24.230,12.3125,20.4376
11:31:24.241,11.1563,18.8126
11:31:24.250,9.375,16.0626
11:31:24.260,6.75,13.3126
11:31:24.270,4.4688,8.8125
11:31:24.281,2.3438,4.375
11:31:24.290,-0.25,1.1875
11:31:24.300,-1.9063,-2.6875
11:31:24.310,-4.0313,-6.4375
11:31:24.321,-5.8125,-9.75
11:31:24.331,-7.0938,-13.0625
11:31:24.356,-9.0625,-15.3126
11:31:24.359,-10.625,-17.8751
11:31:24.366,-12.4688,-22.7501
11:31:24.373,-14.3438,-25.7501
11:31:24.381,-15.6251,-28.9376
11:31:24.395,-17.8126,-32.1251
11:31:24.406,-19.7188,-34.5626
11:31:24.415,-20.9376,-36.7501
11:31:24.426,-21.8751,-39.0001
11:31:24.436,-23.4688,-41.6877
11:31:24.445,-24.9376,-44.3127
11:31:24.455,-26.9064,-47.0002
11:31:24.465,-27.9064,-49.1252
11:31:24.476,-29.5939,-51.8127
11:31:24.486,-30.3439,-54.1877
11:31:24.496,-32.1564,-55.1877
11:31:24.505,-32.6251,-58.8127
11:31:24.516,-33.6251,-58.8127
11:31:24.526,-33.5314,-61.0002
11:31:24.535,-34.6251,-61.1252
11:31:24.546,-34.4376,-62.1252
11:31:24.560,-30.9064,-58.6877
11:31:24.571,-25.6251,-50.2502
11:31:24.575,-17.0001,-38.1876
11:31:24.591,-5.125,-20.5626
11:31:24.600,7.3438,0.0625
11:31:24.606,21.1876,21.4376
11:31:24.617,33.4689,43.6877
11:31:24.625,45.9689,63.1877
11:31:24.635,54.594,80.0628
11:31:24.645,61.469,92.3754
11:31:24.655,64.9065,101.8129
11:31:24.665,67.219,105.4379
11:31:24.676,66.5315,107.3754
11:31:24.685,64.7502,105.2504
11:31:24.696,62.5315,101.5004
11:31:24.710,58.2815,96.4379
11:31:24.715,54.5002,89.3128
11:31:24.725,50.5314,82.3128
11:31:24.736,45.2189,74.4378
11:31:24.763,40.8752,66.5628
11:31:24.767,36.4376,58.2502
11:31:24.768,31.2814,50.2502
11:31:24.812,27.1251,44.1252
11:31:24.813,22.4688,36.4376
11:31:24.814,18.1563,28.7501
11:31:24.818,14.2188,21.0626
11:31:24.823,9.375,14.4376
11:31:24.825,6.25,8.5
11:31:24.855,3.5313,4.875
11:31:24.858,1.6875,2.5
11:31:24.860,1.5938,-0.125
11:31:24.867,1.9063,0.8125
11:31:24.895,4.0625,2.375
11:31:24.898,4.6563,5.8125
11:31:24.900,6.3438,8.4375
11:31:24.906,8.875,11.125
11:31:24.929,10.75,14.4376
11:31:24.931,11.7188,17.6251
11:31:24.937,13.0625,18.3751
11:31:24.946,13.3438,20.5626
11:31:24.956,13.8751,19.5001
11:31:24.966,12.7813,19.3126
11:31:24.975,12.1563,18.6251
11:31:24.985,10.5625,16.1251
11:31:24.995,9.3438,13.4376
11:31:25.006,7.125,10.375
11:31:25.015,4.1875,7.375
11:31:25.026,2.3438,2.625
11:31:25.036,-1.1875,-1.4375
11:31:25.047,-4.125,-6
11:31:25.056,-9.4063,-12.875
11:31:25.066,-15.8126,-19.4376
11:31:25.075,-25.2501,-28.5626
11:31:25.091,-38.0001,-40.0627
11:31:25.096,-43.0939,-45.5627
11:31:25.106,-42.8127,-43.2502
11:31:25.126,-43.1877,-42.3752
11:31:25.133,-42.0002,-40.3752
11:31:25.149,-42.6252,-39.6877
11:31:25.150,-42.1564,-38.3751
11:31:25.161,-38.6251,-34.3126
11:31:25.168,-38.7501,-31.9376
11:31:25.177,-34.6251,-26.3751
11:31:25.189,-32.0001,-20.3126
11:31:25.195,-28.0626,-12.875
11:31:25.206,-21.8126,-4.625
11:31:25.217,-14.9376,3.125
11:31:25.225,-10.3125,10.125
11:31:25.236,-5,13.5626
11:31:25.245,-1.6563,16.3751
11:31:25.256,-0.875,14.6876
11:31:25.265,1.5625,15.0001
11:31:25.275,5.3438,19.4376
11:31:25.286,11.75,24.9376
11:31:25.297,20.1251,36.0001
11:31:25.306,31.0939,47.2502
11:31:25.317,41.1564,60.4377
11:31:25.332,52.2502,73.3128
11:31:25.342,61.3127,86.3128
11:31:25.352,68.8753,93.8129
11:31:25.361,74.1565,99.4379
11:31:25.370,76.0628,101.1879
11:31:25.381,78.6565,100.7504
11:31:25.390,77.7503,97.7504
11:31:25.402,73.9065,88.6878
11:31:25.410,68.5628,78.4378
11:31:25.421,61.8752,64.2502
11:31:25.430,52.6252,48.8127
11:31:25.441,42.5314,32.0001
11:31:25.451,31.4376,14.8126
11:31:25.462,21.0938,-2.1875
11:31:25.472,11.4063,-19.3751
11:31:25.480,1.875,-36.0626
11:31:25.492,-14.1251,-60.6252
11:31:25.502,-25.8438,-79.1253
11:31:25.511,-36.7189,-96.5629
11:31:25.520,-48.0314,-112.5004
11:31:25.552,-57.0002,-126.313
11:31:25.554,-63.9377,-138.6255
11:31:25.556,-70.344,-147.3756
11:31:25.561,-75.6565,-154.3756
11:31:25.591,-79.5628,-159.2506
11:31:25.594,-84.2503,-164.1881
11:31:25.596,-87.3441,-166.5006
11:31:25.607,-87.9066,-165.4381
11:31:25.639,-86.7816,-160.9381
11:31:25.642,-80.5628,-153.7506
11:31:25.642,-73.6565,-144.3755
11:31:25.649,-70.3128,-137.938
11:31:25.657,-68.5315,-132.1255
11:31:25.663,-65.719,-127.2505
11:31:25.688,-64.0002,-121.8755
11:31:25.689,-61.4065,-116.3129
11:31:25.691,-58.594,-109.0629
11:31:25.712,-56.5002,-103.7504
11:31:25.715,-53.6252,-96.3754
11:31:25.721,-50.6252,-90.8754
11:31:25.732,-44.2189,-81.7503
11:31:25.742,-38.7814,-72.1878
11:31:25.751,-31.9064,-67.8753
11:31:25.761,-35.6564,-67.1878
11:31:25.772,-43.5002,-74.1878
11:31:25.781,-50.1877,-79.2503
11:31:25.792,-54.5315,-80.5628
11:31:25.802,-55.2815,-79.6253
11:31:25.811,-56.5002,-77.8128
11:31:25.821,-55.219,-76.6253
11:31:25.831,-50.9064,-69.6878
11:31:25.841,-47.1252,-65.2502
11:31:25.851,-42.7814,-59.0002
11:31:25.862,-36.9064,-53.0627
11:31:25.871,-31.3751,-47.2502
11:31:25.886,-25.0001,-43.3127
11:31:25.894,-20.3126,-39.3127
11:31:25.901,-17.6563,-37.6251
11:31:25.917,-15.0001,-38.5626
11:31:25.925,-15.0313,-39.3752
11:31:25.934,-15.1563,-42.2502
11:31:25.941,-14.9063,-44.1877
11:31:25.951,-13.6563,-46.3127
11:31:25.961,-13.8438,-47.6252
11:31:25.971,-12.9063,-50.1877
11:31:25.982,-12.6563,-51.5627
11:31:25.992,-9.8125,-52.5627
11:31:26.001,-5.9375,-48.8127
11:31:26.011,0.3438,-44.6252
11:31:26.022,5.875,-37.9376
11:31:26.032,13.7501,-28.7501
11:31:26.041,21.5001,-19.5626
11:31:26.051,28.4064,-9.1875
11:31:26.061,33.7501,-1.625
11:31:26.071,38.3439,6.5
11:31:26.081,40.7189,10.4375
11:31:26.091,41.3439,13.2501
11:31:26.101,39.8752,12.125
11:31:26.110,38.4376,9.25
11:31:26.121,33.5314,4.875
11:31:26.131,28.0939,-4.1875
11:31:26.141,20.2501,-14.1251
11:31:26.151,11.7188,-25.6251
11:31:26.161,2.1563,-36.3126
11:31:26.172,-6.2813,-49.1252
11:31:26.182,-13.1876,-59.7502
11:31:26.191,-20.9376,-69.6878
11:31:26.207,-29.3439,-82.1878
11:31:26.211,-38.6564,-94.5004
11:31:26.245,-48.8439,-105.3754
11:31:26.246,-55.969,-114.6879
11:31:26.249,-61.094,-122.8755
11:31:26.252,-63.8752,-127.438
11:31:26.282,-65.7815,-130.3755
11:31:26.285,-67.1565,-132.813
11:31:26.286,-66.9378,-132.188
11:31:26.319,-67.219,-131.938
11:31:26.319,-65.0002,-129.7505
11:31:26.321,-61.0627,-125.2505
11:31:26.328,-58.2815,-120.438
11:31:26.337,-54.5315,-114.6254
11:31:26.342,-51.1564,-107.7504
11:31:26.368,-48.8439,-101.0629
11:31:26.371,-46.3439,-93.5004
11:31:26.373,-42.4064,-84.1878
11:31:26.390,-36.8751,-76.3128
11:31:26.393,-31.5314,-67.1253
11:31:26.401,-28.7189,-59.8752
11:31:26.412,-21.6251,-53.1877
11:31:26.423,-18.1251,-48.0627
11:31:26.441,-19.0001,-47.9377
11:31:26.448,-33.0314,-57.0002
11:31:26.457,-40.9689,-64.9377
11:31:26.461,-48.0314,-67.5628
11:31:26.479,-54.0002,-71.6878
11:31:26.485,-56.5002,-71.5003
11:31:26.492,-56.5627,-71.6253
11:31:26.501,-55.6565,-70.0628
11:31:26.511,-55.6565,-68.9378
11:31:26.521,-53.9065,-66.4378
11:31:26.532,-51.0627,-63.0627
11:31:26.541,-46.6877,-59.1877
11:31:26.551,-43.9689,-53.4377
11:31:26.561,-40.3127,-50.0627
11:31:26.572,-36.3439,-43.5627
11:31:26.582,-32.5939,-39.4377
11:31:26.591,-29.2189,-35.4376
11:31:26.601,-25.4376,-33.2501
11:31:26.612,-22.8751,-30.1251
11:31:26.624,-20.4376,-29.5626
11:31:26.636,-17.6251,-25.5001
11:31:26.641,-14.5626,-24.3751
11:31:26.651,-11.0938,-22.0001
11:31:26.661,-9.625,-22.0626
11:31:26.672,-9.3125,-22.5626
11:31:26.681,-8.5625,-23.6876
11:31:26.691,-8.5,-27.7501
11:31:26.701,-8.625,-29.6876
11:31:26.711,-6.75,-32.6251
11:31:26.722,-4.3438,-30.8751
11:31:26.731,1.1563,-28.4376
11:31:26.741,6.8125,-21.9376
11:31:26.751,13.7188,-14.1876
11:31:26.766,21.4376,-3.8125
11:31:26.772,29.0626,7.375
11:31:26.781,37.5939,19.2501
11:31:26.791,44.0939,29.7501
11:31:26.802,49.2502,37.9376
11:31:26.811,51.6877,43.3127
11:31:26.821,50.7814,44.6252
11:31:26.831,47.0939,42.3127
11:31:26.841,42.3752,37.3126
11:31:26.851,34.5939,30.5001
11:31:26.861,27.4376,21.6251
11:31:26.871,20.2813,13.4376
11:31:26.881,12.8438,3
11:31:26.891,5.4375,-6.5
11:31:26.916,-1.5,-17.0626
11:31:26.919,-8.5938,-27.1251
11:31:26.921,-17.0626,-38.8126
11:31:26.934,-25.2813,-49.1877
11:31:26.942,-32.6251,-59.2502
11:31:26.952,-40.5314,-69.4378
11:31:26.962,-47.5002,-78.4378
11:31:26.971,-55.094,-86.1878
11:31:26.997,-60.969,-93.9379
11:31:27.000,-59.8752,-96.1879
11:31:27.002,-58.6877,-96.7504
11:31:27.036,-59.9065,-97.8129
11:31:27.039,-59.7815,-97.6254
11:31:27.041,-58.6565,-94.9379
11:31:27.044,-55.8127,-90.8754
11:31:27.074,-52.0314,-86.1253
11:31:27.077,-47.5627,-78.3753
11:31:27.079,-42.5627,-70.7503
11:31:27.106,-38.1251,-61.3127
11:31:27.107,-32.3751,-53.1252
11:31:27.109,-26.4064,-43.3752
11:31:27.115,-19.6876,-33.9376
11:31:27.126,-10.5,-21.7501
11:31:27.133,-2.75,-12.875
11:31:27.163,-1.0625,-8.875
11:31:27.166,-12.9063,-16.6251
11:31:27.169,-20.0001,-21.8751
11:31:27.173,-26.3126,-25.7501
11:31:27.182,-31.5626,-28.9376
11:31:27.194,-36.0001,-31.1251
11:31:27.210,-36.8126,-30.0001
11:31:27.212,-34.8439,-28.7501
11:31:27.228,-32.0001,-23.2501
11:31:27.242,-27.7501,-19.5001
11:31:27.245,-24.2188,-14.1876
11:31:27.254,-19.2501,-9.25
11:31:27.263,-15.5938,-4.3125
11:31:27.271,-12,-2.0625
11:31:27.281,-9.2813,0.375
11:31:27.292,-7.3125,1.875
11:31:27.302,-4.9375,2.25
11:31:27.311,-4.2188,1.5625
11:31:27.322,-4.8125,0
11:31:27.331,-6.6563,-3.9375
11:31:27.341,-8.0313,-7.5625
11:31:27.353,-11.0313,-10.5
11:31:27.361,-10.625,-11.9375
11:31:27.371,-9.4063,-13
11:31:27.381,-7.0625,-13.8751
11:31:27.391,-7.375,-15.6251
11:31:27.401,-6.6563,-18.0001
11:31:27.411,-6.6563,-20.8751
11:31:27.422,-6.8438,-23.5001
11:31:27.431,-8.5313,-28.8126
11:31:27.441,-8.4688,-31.8126
11:31:27.452,-7.8125,-33.7501
11:31:27.461,-5.375,-33.4376
11:31:27.472,-2.9063,-30.0626
11:31:27.481,1.5313,-23.7501
11:31:27.491,7.4375,-16.3751
11:31:27.501,13.8126,-5.875
11:31:27.511,20.0626,4.875
11:31:27.522,26.5626,15.2501
11:31:27.531,30.4064,23.1876
11:31:27.541,33.9689,30.5001
11:31:27.551,34.3439,33.9376
11:31:27.561,33.6876,35.6876
11:31:27.571,30.7501,35.2501
11:31:27.582,25.7813,29.3751
11:31:27.591,20.0626,23.6876
11:31:27.602,12.0625,14.9376
11:31:27.611,4.5,6.3125
11:31:27.622,-4,-4.875
11:31:27.632,-10.4688,-13.1876
11:31:27.641,-18.2188,-23.9376
11:31:27.651,-24.4376,-31.0626
11:31:27.662,-29.4689,-39.0626
11:31:27.671,-34.5314,-45.5002
11:31:27.681,-37.9064,-51.6252
11:31:27.691,-41.8752,-56.8127
11:31:27.702,-44.1252,-62.5002
11:31:27.712,-46.9377,-66.3753
11:31:27.721,-49.4064,-71.5628
11:31:27.731,-51.5939,-75.0628
11:31:27.741,-53.1877,-77.7503
11:31:27.753,-55.6252,-80.2503
11:31:27.829,-56.0002,-79.6253
11:31:27.830,-53.9377,-74.7503
11:31:27.865,-49.0939,-69.0003
11:31:27.868,-42.8439,-58.9377
11:31:27.870,-35.2189,-50.0002
11:31:27.876,-28.0939,-38.6876
11:31:27.876,-22.0626,-29.8126
11:31:27.876,-13.4376,-19.6876
11:31:27.885,-7.125,-10.9375
11:31:27.909,-2.6563,-5
11:31:27.911,-13.0625,-11.375
11:31:27.914,-19.9063,-16.6876
11:31:27.945,-25.5626,-17.6876
11:31:27.946,-27.7501,-18.1876
11:31:27.949,-30.0001,-17.2501
11:31:27.952,-30.1876,-16.6251
11:31:27.962,-28.4064,-13.2501
11:31:27.972,-25.5001,-10.3125
11:31:27.981,-24.0313,-6.625
11:31:27.991,-21.2501,-5.4375
11:31:28.001,-20.0001,-2.25
11:31:28.012,-16.7501,1.1875
11:31:28.022,-12.3438,4.625
11:31:28.031,-8.6875,9
11:31:28.041,5.5313,14.6876
11:31:28.052,3.875,11.25
11:31:28.061,2.4063,7
11:31:28.071,-0.125,3.0625
11:31:28.081,-1.25,-0.625
11:31:28.091,-1.6875,-4
11:31:28.101,-1.875,-6.875
11:31:28.112,-2.75,-10.6875
11:31:28.122,-3.875,-15.0001
11:31:28.131,-4.9688,-19.3126
11:31:28.142,-7.0625,-25.8126
11:31:28.152,-8.1563,-30.0001
11:31:28.164,-9.2813,-34.3751
11:31:28.171,-8.875,-36.3751
11:31:28.197,-6.0625,-34.5001
11:31:28.199,-2.4375,-30.3751
11:31:28.201,2.1563,-22.8126
11:31:28.213,7.6563,-14.9376
11:31:28.222,13,-5.375
11:31:28.232,18.1876,5.5
11:31:28.241,23.1251,13.9376
11:31:28.251,26.6876,22.5001
11:31:28.261,28.5939,28.2501
11:31:28.271,28.9689,31.7501
11:31:28.282,26.6564,31.7501
11:31:28.292,23.1251,30.0626
11:31:28.301,19.0938,26.0626
11:31:28.315,14.1876,19.6876
11:31:28.321,6.5,13.6876
11:31:28.331,0.2813,4.375
11:31:28.341,-6.3125,-2.4375
11:31:28.351,-10.8438,-10.8125
11:31:28.361,-15.7501,-16.5626
11:31:28.374,-19.0626,-23.6251
11:31:28.381,-24.3751,-29.1876
11:31:28.391,-27.6876,-35.2501
11:31:28.401,-31.5626,-41.1252
11:31:28.411,-35.7189,-47.5627
11:31:28.421,-39.0626,-52.8127
11:31:28.431,-42.1252,-57.5627
11:31:28.441,-44.3752,-60.8752
11:31:28.451,-45.7502,-62.4377
11:31:28.461,-45.6564,-63.3752
11:31:28.476,-45.0939,-62.2502
11:31:28.483,-43.3439,-58.8127
11:31:28.515,-39.8752,-53.6252
11:31:28.517,-36.6251,-46.9377
11:31:28.523,-30.5939,-40.6252
11:31:28.552,-26.0938,-31.9376
11:31:28.620,-20.7813,-25.6251
11:31:28.620,-13.6563,-15.0001
11:31:28.620,-5.5313,-6
11:31:28.636,-0.4688,0.6875
11:31:28.638,-8.8438,-3.625
11:31:28.652,-19.2501,-10.3125
11:31:28.652,-23.2813,-12.875
11:31:28.652,-27.6876,-14.1876
11:31:28.654,-30.7189,-15.2501
11:31:28.656,-33.4064,-17.2501
11:31:28.666,-33.3751,-16.0001
11:31:28.676,-32.4376,-13.8126
11:31:28.686,-30.0314,-11.625
11:31:28.696,-26.3751,-5.75
11:31:28.706,-21.5626,0.1875
11:31:28.716,-15.4063,6.9375
11:31:28.726,-8.625,14.6876
11:31:28.738,-1.4063,21.8126
11:31:28.747,4.625,26.6876
11:31:28.756,9.0625,29.7501
11:31:28.766,11.5625,30.6251
11:31:28.776,12.875,29.3751
11:31:28.787,11.6563,27.0626
11:31:28.797,9.3438,23.1251
11:31:28.806,5.3438,7.1875
11:31:28.816,4.125,2.8125
11:31:28.826,2.9063,-1.8125
11:31:28.837,1.1563,-8.875
11:31:28.846,-1.3125,-13.8126
11:31:28.859,-3.5625,-21.3126
11:31:28.867,-5.7813,-27.0001
11:31:28.876,-6.9063,-31.6876
11:31:28.886,-7.0313,-35.1876
11:31:28.896,-7.0625,-37.3126
11:31:28.906,-4.7813,-36.9376
11:31:28.916,-2.25,-34.6876
11:31:28.926,1.9063,-29.3751
11:31:28.936,6.8438,-20.0001
11:31:28.947,12.625,-9.8125
11:31:28.956,19.0001,0.1875
11:31:28.966,23.3438,10.375
11:31:28.976,28.1251,19.8126
11:31:28.986,31.0939,27.8751
11:31:28.998,32.3751,34.6876
11:31:29.006,32.1564,36.6876
11:31:29.016,30.0939,36.6251
11:31:29.026,27.2189,33.8751
11:31:29.036,20.2501,27.9376
11:31:29.046,13.5626,22.6876
11:31:29.056,9.25,15.8126
11:31:29.073,2.875,8.0625
11:31:29.077,0.0625,4.0625
11:31:29.086,-2.2813,-0.3125
11:31:29.096,-4.7188,-3.75
11:31:29.112,-6.5313,-6.6875
11:31:29.119,-9.8125,-11.4375
11:31:29.135,-13.0625,-17.8751
11:31:29.141,-17.7501,-24.2501
11:31:29.149,-22.9376,-30.9376
11:31:29.185,-27.0314,-36.0626
11:31:29.189,-30.8126,-40.1252
11:31:29.189,-31.9376,-43.5627
11:31:29.195,-32.1251,-44.4377
11:31:29.197,-30.1251,-42.1877
11:31:29.228,-27.1564,-36.9376
11:31:29.229,-22.6876,-32.6251
11:31:29.232,-16.2813,-25.0626
11:31:29.240,-8.0625,-13.8751
11:31:29.266,-0.2188,-2.875
11:31:29.269,2.9375,3.0625
11:31:29.272,-6.7813,-3.3125
11:31:29.276,-9.5625,-3.125
11:31:29.305,-9.9375,-1.5
11:31:29.306,-10.1563,1.875
11:31:29.309,-11.625,4.0625
11:31:29.316,-10.0938,7.5
11:31:29.327,-8.4688,10.375
11:31:29.337,-5.4063,15.5626
11:31:29.346,-1.9063,20.1876
11:31:29.359,0.8438,25.5001
11:31:29.367,4.4063,28.4376
11:31:29.376,7.5,33.7501
11:31:29.386,11.75,36.1876
11:31:29.398,15.2813,40.8127
11:31:29.433,19.9063,43.3127
11:31:29.435,22.6251,45.0002
11:31:29.438,24.5313,44.6252
11:31:29.449,25.5001,44.6877
11:31:29.453,24.6563,42.6877
11:31:29.479,26.0001,40.9377
11:31:29.480,25.3126,37.9376
11:31:29.483,23.5626,34.3751
11:31:29.491,22.7813,30.2501
11:31:29.502,21.3751,26.1251
11:31:29.513,20.8438,22.0626
11:31:29.521,17.9376,15.8126
11:31:29.531,16.6876,10.3125
11:31:29.541,14.2813,4.8125
11:31:29.551,11.7813,-1.3125
11:31:29.561,8.9375,-9.1875
11:31:29.571,2.2813,-22.6876
11:31:29.581,-3.2188,-32.7501
11:31:29.591,-9.5625,-43.5002
11:31:29.602,-17.5001,-55.7502
11:31:29.611,-26.0313,-67.9378
11:31:29.621,-34.8439,-80.8753
11:31:29.631,-43.4377,-93.9379
11:31:29.641,-51.6877,-106.6254
11:31:29.651,-59.9377,-117.4379
11:31:29.661,-66.594,-127.813
11:31:29.671,-73.219,-136.1255
11:31:29.681,-77.8128,-142.6255
11:31:29.692,-80.9378,-148.1881
11:31:29.702,-82.3128,-150.5006
11:31:29.711,-80.7816,-144.938
11:31:29.724,-75.5315,-138.0005
11:31:29.733,-68.969,-125.563
11:31:29.741,-60.719,-108.7504
11:31:29.751,-49.7189,-89.5628
11:31:29.761,-40.3439,-70.0003
11:31:29.771,-29.7501,-48.8752
11:31:29.781,-19.0938,-27.5001
11:31:29.792,-9.0313,-9.375
11:31:29.801,1.8438,9.1875
11:31:29.811,6.8125,20.8751
11:31:29.826,12.1875,31.1251
11:31:29.831,15.2813,38.7501
11:31:29.841,19.5313,44.6877
11:31:29.851,21.8126,49.8752
11:31:29.871,23.5001,51.8127
11:31:29.875,23.6251,54.1877
11:31:29.912,22.7813,53.1877
11:31:29.914,22.9376,53.6252
11:31:29.921,21.1251,53.2502
11:31:29.953,21.9688,52.0627
11:31:29.957,22.0938,52.3127
11:31:29.990,15.9688,45.9377
11:31:29.990,3.0938,34.1251
11:31:29.990,-2.9375,27.6876
11:31:29.991,-7.4688,22.7501
11:31:29.993,-8.8438,19.9376
11:31:30.026,-10.0625,18.5626
11:31:30.027,-11.75,17.8751
11:31:30.028,-12.5313,16.5001
11:31:30.030,-9.6875,20.8126
11:31:30.036,-4.5313,28.6251
11:31:30.038,-1.1563,35.0626
11:31:30.046,3.6875,41.0002
11:31:30.057,8.1875,48.8752
11:31:30.066,13.2188,57.5627
11:31:30.076,18.0938,64.1252
11:31:30.086,22.7501,70.5628
11:31:30.096,25.8126,75.0003
11:31:30.106,28.1564,77.9378
11:31:30.116,30.0314,79.4378
11:31:30.126,29.4064,79.6878
11:31:30.136,28.5001,78.1253
11:31:30.146,27.7814,75.5003
11:31:30.157,26.8126,72.9378
11:31:30.169,25.7188,69.7503
11:31:30.176,22.5626,65.1253
11:31:30.186,19.0938,59.9377
11:31:30.201,13.4063,52.7502
11:31:30.206,8.5938,47.1877
11:31:30.216,4.9688,41.5627
11:31:30.226,1.4063,36.5626
11:31:30.236,-0.625,31.6251
11:31:30.246,-4,27.8751
11:31:30.256,-4.6875,24.1876
11:31:30.266,-6.8438,20.7501
11:31:30.276,-8.6875,16.7501
11:31:30.288,-10.875,11.5625
11:31:30.296,-13.6563,7.0625
11:31:30.307,-16.5313,1.375
11:31:30.317,-19.6563,-2.4375
11:31:30.328,-22.1876,-7.875
11:31:30.336,-22.9063,-10.5625
11:31:30.346,-24.9376,-13.8126
11:31:30.356,-28.2501,-17.8751
11:31:30.366,-31.1251,-20.6876
11:31:30.376,-31.5314,-24.1876
11:31:30.386,-31.5001,-24.0001
11:31:30.396,-30.9689,-24.8751
11:31:30.406,-29.1564,-22.3751
11:31:30.425,-24.6876,-16.4376
11:31:30.432,-16.4688,-4.875
11:31:30.446,-5.5625,10.125
11:31:30.448,6.8125,27.7501
11:31:30.459,18.5626,48.6877
11:31:30.466,34.3126,71.5628
11:31:30.476,50.9689,91.8754
11:31:30.486,63.2815,112.9379
11:31:30.496,73.7815,127.813
11:31:30.506,83.8753,142.813
11:31:30.516,91.8754,152.2506
11:31:30.526,98.5316,160.3756
11:31:30.536,101.2816,163.8756
11:31:30.546,103.0316,164.7506
11:31:30.556,102.9379,162.1256
11:31:30.566,98.9066,156.0006
11:31:30.576,95.3441,149.0006
11:31:30.586,89.2191,140.813
11:31:30.596,82.8128,132.813
11:31:30.606,78.5316,122.6255
11:31:30.618,73.2815,113.5629
11:31:30.626,68.1253,104.9379
11:31:30.636,62.6565,95.5004
11:31:30.646,58.969,87.4378
11:31:30.671,53.5002,78.8128
11:31:30.674,46.4377,68.8128
11:31:30.689,40.7189,59.2502
11:31:30.691,36.2814,52.6252
11:31:30.719,33.2814,47.8752
11:31:30.725,30.9689,42.8752
11:31:30.726,29.5314,40.5627
11:31:30.729,29.5939,39.1252
11:31:30.757,28.8751,39.5627
11:31:30.760,29.4689,40.4377
11:31:30.761,30.4064,42.3752
11:31:30.788,30.3751,44.5002
11:31:30.790,31.6564,45.6877
11:31:30.793,32.1876,47.4377
11:31:30.830,32.5001,48.8752
11:31:30.833,32.3751,48.7502
11:31:30.833,32.0626,48.3752
11:31:30.839,31.0939,47.5627
11:31:30.840,30.0001,46.6252
11:31:30.846,28.8751,44.7502
11:31:30.856,27.6251,42.8127
11:31:30.866,25.9376,40.8127
11:31:30.877,24.4376,37.1876
11:31:30.886,21.7188,35.1251
11:31:30.898,20.3751,30.4376
11:31:30.906,19.1563,27.3751
11:31:30.918,17.1876,23.1251
11:31:30.926,13.8438,18.4376
11:31:30.937,9.0625,12.625
11:31:30.951,5.6875,7.25
11:31:30.957,3.0625,3.1875
11:31:30.968,-0.9375,-1.3125
11:31:30.976,-2.9063,-6.625
11:31:30.987,-6.25,-10.4375
11:31:30.998,-7.0313,-14.5626
11:31:31.006,-8.7188,-18.3126
11:31:31.017,-10.9688,-21.8126
11:31:31.027,-11.9063,-24.8126
11:31:31.037,-14.5626,-28.6251
11:31:31.048,-15.6251,-31.4376
11:31:31.058,-17.4688,-34.9376
11:31:31.066,-17.4688,-36.8751
11:31:31.077,-18.7501,-38.5001
11:31:31.087,-17.5938,-38.6876
11:31:31.097,-15.7188,-36.8126
11:31:31.106,-13.1876,-32.3126
11:31:31.117,-6.8125,-24.2501
11:31:31.128,1.625,-9.6875
11:31:31.137,12.625,6.5
11:31:31.148,24.8126,27.7501
11:31:31.156,37.4689,49.1252
11:31:31.166,49.9689,70.5003
11:31:31.176,61.719,91.4379
11:31:31.186,71.1878,107.4379
11:31:31.197,78.9378,121.7505
11:31:31.207,83.6253,133.6255
11:31:31.217,86.5628,138.063
11:31:31.239,88.7503,142.0005
11:31:31.241,86.7503,142.563
11:31:31.257,85.0941,140.0005
11:31:31.260,82.9691,137.0005
11:31:31.274,79.3753,131.1255
11:31:31.277,76.469,125.8755
11:31:31.287,71.8753,119.6255
11:31:31.297,68.0315,112.0629
11:31:31.307,63.5627,105.0004
11:31:31.316,58.8752,96.6254
11:31:31.328,53.8752,87.9378
11:31:31.339,49.5002,79.8128
11:31:31.346,44.8752,71.8753
11:31:31.357,40.5314,65.2503
11:31:31.390,35.8126,57.6252
11:31:31.392,32.9376,50.6877
11:31:31.395,29.5939,45.5627
11:31:31.397,27.5939,41.0002
11:31:31.429,26.3438,38.2501
11:31:31.431,25.7813,36.8126
11:31:31.434,25.8751,37.0626
11:31:31.439,26.6251,36.8751
11:31:31.462,27.2189,39.6877
11:31:31.465,29.0626,41.3752
11:31:31.467,30.6251,44.2502
11:31:31.497,32.0939,45.8127
11:31:31.499,32.3751,46.9377
11:31:31.501,32.5314,48.2502
11:31:31.507,32.1876,48.3127
11:31:31.532,32.3126,48.1877
11:31:31.538,31.1876,46.5002
11:31:31.541,29.2189,45.0002
11:31:31.548,27.7189,42.0002
11:31:31.557,25.8751,40.3752
11:31:31.566,24.3438,37.0001
11:31:31.577,21.1251,32.9376
11:31:31.587,18.8438,29.3751
11:31:31.596,15.9376,25.1251
11:31:31.607,13.5626,21.1876
11:31:31.616,11.2188,17.0626
11:31:31.626,8.9063,13.6251
11:31:31.636,6.125,8.375
11:31:31.651,3.375,4.125
11:31:31.657,0.0313,-0.875
11:31:31.667,-3.4063,-6.0625
11:31:31.679,-5.9688,-10.4375
11:31:31.688,-9.1875,-15.3126
11:31:31.696,-11.5938,-18.8751
11:31:31.711,-13.1875,-22.9376
11:31:31.716,-15.5938,-26.2501
11:31:31.732,-17.1251,-30.0626
11:31:31.749,-19.5313,-34.6251
11:31:31.751,-21.9688,-37.0001
11:31:31.760,-23.9063,-40.7502
11:31:31.767,-26.1563,-44.8752
11:31:31.776,-27.8751,-47.1877
11:31:31.787,-29.7189,-49.8127
11:31:31.796,-29.5314,-51.0002
11:31:31.808,-28.0314,-50.2502
11:31:31.817,-25.1251,-44.7502
11:31:31.826,-18.3126,-35.5626
11:31:31.838,-9.8438,-22.3126
11:31:31.847,2,-4.9375
11:31:31.857,14.3126,16.5001
11:31:31.869,27.4689,37.5001
11:31:31.879,39.5002,59.6877
11:31:31.889,50.8439,79.2503
11:31:31.896,60.094,96.7504
11:31:31.907,66.3128,109.7504
11:31:31.916,71.969,121.6255
11:31:31.927,74.9378,127.5005
11:31:31.937,76.0628,131.313
11:31:31.947,75.6565,131.8755
11:31:31.957,74.469,130.313
11:31:31.966,70.3753,126.813
11:31:31.978,66.5628,120.563
11:31:31.988,61.844,113.4379
11:31:31.997,57.594,106.3754
11:31:32.007,52.7815,98.1879
11:31:32.037,48.3127,91.8129
11:31:32.040,44.1564,83.6253
11:31:32.042,39.2814,76.4378
11:31:32.049,33.9376,67.1878
11:31:32.058,28.8751,59.5627
11:31:32.069,24.4376,50.9377
11:31:32.077,20.4063,45.0627
11:31:32.087,17.0938,38.6876
11:31:32.098,14.6251,33.4376
11:31:32.108,12.5938,29.0001
11:31:32.117,11.25,27.5001
11:31:32.127,12,27.0001
11:31:32.152,12.2813,26.8126
11:31:32.155,12.9375,28.3751
11:31:32.157,15.0001,29.7501
11:31:32.192,16.5626,32.6876
11:31:32.196,18.0313,35.4376
11:31:32.196,19.2501,37.1251
11:31:32.199,20.9376,39.1252
11:31:32.229,21.5626,40.6877
11:31:32.231,21.5313,41.6877
11:31:32.234,22.2188,41.6252
11:31:32.262,20.3126,39.8752
11:31:32.262,18.8126,38.4376
11:31:32.265,17.7188,34.8751
11:31:32.270,15.4376,32.3126
11:31:32.277,14.1251,29.3126
11:31:32.304,12.4688,26.0626
11:31:32.306,9.7188,22.4376
11:31:32.309,7.5625,18.6876
11:31:32.317,5.5938,14.2501
11:31:32.328,3.0938,10.375
11:31:32.338,0.5,6.125
11:31:32.347,-1.625,0.1875
11:31:32.356,-4.7813,-3.625
11:31:32.368,-7,-8.3125
11:31:32.376,-9.8438,-13.3126
11:31:32.388,-12.3438,-17.6251
11:31:32.398,-14.6563,-22.3751
11:31:32.409,-17.7813,-27.2501
11:31:32.419,-19.6876,-31.6876
11:31:32.429,-21.3751,-35.2501
11:31:32.436,-24.1876,-38.8126
11:31:32.447,-26.0001,-42.5627
11:31:32.464,-28.2189,-47.0002
11:31:32.467,-30.1251,-49.3127
11:31:32.477,-31.5939,-52.0627
11:31:32.487,-32.0939,-55.3127
11:31:32.499,-32.6876,-56.3752
11:31:32.510,-33.6876,-59.0002
11:31:32.517,-34.4064,-59.8752
11:31:32.528,-34.0001,-59.9377
11:31:32.542,-30.1564,-55.3752
11:31:32.557,-24.5001,-48.1252
11:31:32.564,-15.7813,-35.0626
11:31:32.570,-4.875,-19.3751
11:31:32.577,7,0.0625
11:31:32.588,18.4376,19.3126
11:31:32.597,29.8751,39.3126
11:31:32.608,40.3127,56.7502
11:31:32.618,48.6877,73.0628
11:31:32.629,54.969,85.0628
11:31:32.638,59.594,93.5004
11:31:32.647,61.844,99.1254
11:31:32.657,62.219,101.8754
11:31:32.667,61.2502,100.9379
11:31:32.677,59.8127,98.2504
11:31:32.687,55.844,94.5629
11:31:32.698,51.6877,87.6878
11:31:32.707,47.2814,80.5628
11:31:32.718,43.7814,72.8753
11:31:32.728,38.8126,66.4378
11:31:32.740,34.2501,57.3752
11:31:32.747,29.4689,49.5002
11:31:32.758,25.5313,41.5002
11:31:32.768,20.7188,33.0626
11:31:32.778,15.0001,24.8751
11:31:32.788,10.4688,15.6251
11:31:32.797,5,8.125
11:31:32.807,1.4375,2
11:31:32.818,-1.0938,-3.625
11:31:32.827,-2.5938,-6.125
11:31:32.859,-2.5625,-7.6875
11:31:32.861,-1.875,-7.875
11:31:32.864,-0.875,-6.4375
11:31:32.869,1,-4.6875
11:31:32.896,3,-2
11:31:32.899,4.25,0.3125
11:31:32.902,6.0313,2.25
11:31:32.929,7,4.5
11:31:32.931,8.0625,5.6875
11:31:32.934,8.625,7.8125
11:31:32.937,8.8125,8.9375
11:31:32.974,8.5313,8.125
11:31:32.978,7.6875,7.9375
11:31:32.979,7.4063,5.375
11:31:32.983,6.3438,4.4375
11:31:32.988,4.375,0.375
11:31:33.022,2.8438,-1.6875
11:31:33.023,0.5625,-6.5
11:31:33.038,-1.3438,-9.375
11:31:33.052,-4.375,-13.9376
11:31:33.054,-7.6563,-18.6251
11:31:33.055,-11.6875,-24.9376
11:31:33.070,-16.0001,-29.8751
11:31:33.072,-19.6563,-35.1251
11:31:33.076,-23.0626,-40.6877
11:31:33.088,-25.8438,-45.3752
11:31:33.098,-27.6876,-48.6877
11:31:33.108,-30.0626,-52.9377
11:31:33.119,-31.5001,-56.0002
11:31:33.130,-33.5939,-59.8127
11:31:33.140,-35.3439,-63.1877
11:31:33.147,-37.2814,-66.2503
11:31:33.157,-38.7814,-68.5003
11:31:33.168,-39.4064,-71.6878
11:31:33.178,-41.4064,-73.7503
11:31:33.188,-41.9377,-76.0628
11:31:33.197,-42.6252,-78.3128
11:31:33.216,-43.8127,-79.1253
11:31:33.219,-43.9064,-81.2503
11:31:33.227,-43.6252,-79.5003
11:31:33.237,-40.0627,-74.6253
11:31:33.247,-33.4689,-65.5628
11:31:33.257,-24.0313,-51.6252
11:31:33.268,-13.6563,-34.9376
11:31:33.278,-2.0625,-15.5001
11:31:33.290,9.3125,3.0625
11:31:33.316,20.5938,21.8751
11:31:33.319,29.9064,38.5001
11:31:33.321,37.6564,52.0002
11:31:33.327,43.0002,62.9377
11:31:33.337,46.8439,69.7503
11:31:33.348,47.5002,73.6253
11:31:33.357,47.0314,73.6878
11:31:33.368,44.9064,71.8128
11:31:33.379,42.2814,68.5628
11:31:33.387,39.2189,63.3752
11:31:33.397,35.4376,58.8752
11:31:33.407,32.0001,52.1252
11:31:33.422,27.7501,45.1877
11:31:33.433,23.6876,37.6251
11:31:33.442,18.9688,31.6251
11:31:33.453,14.6251,22.8126
11:31:33.462,10.3438,15.5001
11:31:33.472,6.0938,8.0625
11:31:33.484,0.9375,0.4375
11:31:33.494,-2.875,-7.125
11:31:33.503,-6.2813,-13.5626
11:31:33.512,-9,-18.2501
11:31:33.522,-10.4688,-21.5001
11:31:33.532,-11.4063,-23.8751
11:31:33.542,-10.6875,-24.4376
11:31:33.553,-10.0938,-23.6876
11:31:33.565,-9.2188,-21.8751
11:31:33.572,-7.3438,-20.0001
11:31:33.589,-5.1875,-16.0626
11:31:33.601,-4.1563,-14.3126
11:31:33.602,-2.6875,-11.75
11:31:33.640,-2.125,-10.125
11:31:33.641,-1.4375,-7.875
11:31:33.644,-1.625,-6.8125
11:31:33.646,-1.7813,-6.8125
11:31:33.654,-1.8125,-7.6875
11:31:33.697,-2.6563,-10.0625
11:31:33.699,-3.875,-10.5625
11:31:33.701,-5.5938,-14.0001
11:31:33.704,-6.9375,-15.5001
11:31:33.706,-8.9688,-18.6876
11:31:33.712,-10.2813,-21.7501
11:31:33.752,-11.5938,-25.1251
11:31:33.752,-14.0938,-28.1876
11:31:33.757,-16.7188,-31.6876
11:31:33.757,-18.6876,-35.6251
11:31:33.765,-20.8438,-39.4377
11:31:33.777,-22.5313,-43.0627
11:31:33.783,-24.5938,-47.0627
11:31:33.793,-26.9689,-50.4377
11:31:33.802,-28.9064,-54.1877
11:31:33.813,-31.7189,-57.9377
11:31:33.823,-33.9689,-61.4377
11:31:33.844,-35.7189,-65.4377
11:31:33.846,-37.3751,-69.0628
11:31:33.862,-38.4376,-70.5003
11:31:33.864,-39.6252,-73.6878
11:31:33.876,-40.4064,-75.9378
11:31:33.882,-41.3127,-77.8128
11:31:33.892,-42.7814,-79.0003
11:31:33.902,-42.6564,-80.8753
11:31:33.912,-43.4064,-80.6878
11:31:33.923,-41.3752,-80.5628
11:31:33.933,-38.7814,-74.8128
11:31:33.943,-31.5626,-67.8753
11:31:33.953,-23.4063,-53.6252
11:31:33.970,-12.875,-38.5001
11:31:33.974,-1,-19.2501
11:31:33.983,10.8125,0.5
11:31:33.993,22.6563,20.5626
11:31:34.003,33.5626,37.6251
11:31:34.012,41.6564,53.9377
11:31:34.023,48.1877,65.0627
11:31:34.032,50.5939,74.3128
11:31:34.042,53.2815,78.1878
11:31:34.053,52.3752,80.4378
11:31:34.063,52.5627,80.7503
11:31:34.074,49.7189,78.8128
11:31:34.082,47.7814,73.7503
11:31:34.092,43.9064,69.1878
11:31:34.102,40.1252,64.1252
11:31:34.112,36.5626,57.3752
11:31:34.122,33.3751,51.4377
11:31:34.132,29.0314,44.9377
11:31:34.144,24.6563,38.0001
11:31:34.156,19.9688,30.3126
11:31:34.162,16.0626,24.0626
11:31:34.172,12.0313,15.8126
11:31:34.182,8.4688,9.1875
11:31:34.193,5.125,3.0625
11:31:34.203,2.4063,-1.375
11:31:34.212,0.25,-5.3125
11:31:34.223,-0.4375,-7.6875
11:31:34.232,-1.9063,-9.1875
11:31:34.242,-1.2188,-10.4375
11:31:34.252,-1.125,-9.125
11:31:34.263,0.8125,-8
11:31:34.272,1.875,-5.3125
11:31:34.282,3.6563,-1.6875
11:31:34.313,5.0938,0.4375
11:31:34.316,6.4063,2.5
11:31:34.318,7.3125,4.75
11:31:34.324,8.7813,6
11:31:34.356,8.5625,7.25
11:31:34.359,8.4063,6.5
11:31:34.361,7.6875,5.9375
11:31:34.363,6.6563,4.5
11:31:34.401,5.9375,3.4375
11:31:34.404,3.9688,1.1875
11:31:34.406,3.5,-1.3125
11:31:34.414,1.8125,-4.125
11:31:34.414,0.2813,-6.3125
11:31:34.445,-2.5313,-9.75
11:31:34.447,-3.7813,-13.9376
11:31:34.450,-6.6563,-16.9376
11:31:34.452,-8.8438,-20.9376
11:31:34.481,-11.6563,-24.7501
11:31:34.483,-14.1251,-28.6876
11:31:34.485,-16.2813,-33.7501
11:31:34.493,-18.6876,-37.3126
11:31:34.502,-20.6876,-40.8127
11:31:34.514,-22.5313,-43.3127
11:31:34.523,-24.4376,-47.7502
11:31:34.532,-26.0626,-50.8127
11:31:34.542,-28.0314,-54.0627
11:31:34.552,-30.1876,-57.8752
11:31:34.563,-31.6251,-61.0627
11:31:34.574,-32.4064,-63.0627
11:31:34.600,-34.6251,-65.2502
11:31:34.602,-34.7189,-68.1878
11:31:34.605,-36.3751,-69.5628
11:31:34.612,-36.7814,-71.0003
11:31:34.622,-36.3126,-71.6878
11:31:34.633,-34.9376,-69.9378
11:31:34.642,-30.8126,-64.0002
11:31:34.654,-24.6876,-54.2502
11:31:34.662,-15.2813,-40.9377
11:31:34.672,-4.0938,-22.6251
11:31:34.682,7.6563,-3.3125
11:31:34.692,20.2188,16.9376
11:31:34.704,30.8751,37.5626
11:31:34.712,41.9377,55.3127
11:31:34.724,50.2502,70.6878
11:31:34.732,56.2502,82.8128
11:31:34.743,59.8127,90.6253
11:31:34.753,62.0002,95.6879
11:31:34.765,62.344,97.9379
11:31:34.772,60.3127,96.8754
11:31:34.783,58.719,94.0004
11:31:34.792,55.0627,89.6253
11:31:34.803,51.7189,85.1253
11:31:34.815,48.5314,79.0628
11:31:34.822,44.0314,72.1253
11:31:34.833,40.3752,66.6878
11:31:34.843,36.3439,58.7502
11:31:34.856,31.9689,52.3127
11:31:34.865,28.9689,45.5627
11:31:34.872,23.6876,38.0001
11:31:34.882,19.8751,30.8126
11:31:34.892,16.1251,23.5001
11:31:34.903,13.2501,17.2501
11:31:34.915,10.375,13.3126
11:31:34.922,7.9063,9.125
11:31:34.933,6.9375,6.1875
11:31:34.942,6.0625,4.5
11:31:34.953,5.9063,5.375
11:31:34.965,7.5938,6.1875
11:31:34.995,8.5,8.1875
11:31:34.998,10.4063,11.0625
11:31:35.002,12.375,13.8126
11:31:35.004,14.2188,16.3751
11:31:35.030,15.6563,19.4376
11:31:35.032,16.4688,21.6251
11:31:35.035,17.5626,23.5001
11:31:35.069,18.4376,24.2501
11:31:35.072,17.7188,23.3751
11:31:35.074,17.1251,22.5001
11:31:35.076,16.1251,21.6251
11:31:35.083,14.5938,18.7501
11:31:35.117,13.1875,15.8751
11:31:35.119,11.5,13.4376
11:31:35.123,9.9063,9.4375
11:31:35.124,8.0313,6.9375
11:31:35.157,6.5313,3.1875
11:31:35.159,3.4688,-0.5625
11:31:35.161,2.2813,-4.125
11:31:35.166,-0.6563,-8.625
11:31:35.173,-3.3125,-12.375
11:31:35.183,-5.5938,-17.3751
11:31:35.192,-8.9063,-22.0001
11:31:35.202,-11.5938,-25.7501
11:31:35.212,-14.0626,-30.8126
11:31:35.223,-16.1563,-35.2501
11:31:35.233,-18.1563,-39.2501
11:31:35.242,-20.7813,-42.2502
11:31:35.253,-22.4376,-45.1252
11:31:35.263,-23.0626,-48.2502
11:31:35.273,-24.4688,-51.0627
11:31:35.285,-25.8126,-53.4377
11:31:35.293,-27.8439,-56.2502
11:31:35.302,-29.9064,-59.3752
11:31:35.312,-31.3751,-60.8127
11:31:35.323,-31.8439,-62.6877
11:31:35.334,-32.6876,-64.1877
11:31:35.343,-31.6251,-63.6252
11:31:35.352,-29.4064,-61.3752
11:31:35.363,-24.8438,-53.4377
11:31:35.374,-16.6563,-41.6877
11:31:35.382,-6.9063,-27.6251
11:31:35.394,4.9375,-9.0625
11:31:35.402,16.0001,10.375
11:31:35.413,28.6251,31.1876
11:31:35.424,39.5314,50.9377
11:31:35.433,48.2502,67.8753
11:31:35.442,55.594,81.1253
11:31:35.452,60.5315,92.3129
11:31:35.463,63.8752,99.0629
11:31:35.476,64.5002,102.6254
11:31:35.484,64.2502,103.2504
11:31:35.492,62.8127,102.0629
11:31:35.502,59.344,98.2504
11:31:35.513,56.469,93.2504
11:31:35.525,51.6877,87.5628
11:31:35.532,46.9689,79.0628
11:31:35.543,43.3127,72.3753
11:31:35.552,37.8751,66.4378
11:31:35.563,34.0001,58.5002
11:31:35.573,29.5314,50.1877
11:31:35.584,25.5313,42.5002
11:31:35.592,20.1876,35.3126
11:31:35.609,16.3126,27.8126
11:31:35.615,12.6563,21.3751
11:31:35.634,9.5938,15.3126
11:31:35.640,7.4375,11
11:31:35.655,6.2188,8
11:31:35.656,4.5938,5.1875
11:31:35.665,5.5313,5.75
11:31:35.674,6.0313,6.875
11:31:35.682,8.1563,8.9375
11:31:35.693,9.875,11.875
11:31:35.703,11.1563,15.3126
11:31:35.741,14.6251,19.2501
11:31:35.742,15.9063,22.3126
11:31:35.745,17.7813,25.1251
11:31:35.748,18.6563,28.1251
11:31:35.754,18.4688,28.4376
11:31:35.786,19.1876,28.5626
11:31:35.788,17.8438,29.0001
11:31:35.791,17.8438,26.2501
11:31:35.793,16.2813,24.7501
11:31:35.824,14.9376,23.0001
11:31:35.826,13.5001,20.5626
11:31:35.829,11.1875,17.2501
11:31:35.834,8.875,14.3751
11:31:35.868,6.9063,9.6875
11:31:35.872,4.1563,5.5625
11:31:35.873,1.6875,1.875
11:31:35.889,-0.5,-2.5
11:31:35.889,-3.1875,-6.875
11:31:35.894,-6.125,-11.0625
11:31:35.903,-8.0938,-15.5626
11:31:35.914,-10.5938,-18.6251
11:31:35.923,-12.75,-23.8751
11:31:35.934,-15.3751,-28.0001
11:31:35.942,-17.0938,-30.8751
11:31:35.952,-18.8751,-35.0001
11:31:35.964,-20.7188,-38.5626
11:31:35.972,-22.9688,-41.6877
11:31:35.988,-24.8751,-45.5002
11:31:35.994,-26.2188,-47.3752
11:31:36.004,-28.1564,-51.1877
11:31:36.013,-29.3751,-53.0002
11:31:36.023,-30.2501,-54.5627
11:31:36.033,-30.0001,-55.4377
11:31:36.044,-29.8439,-56.3127
11:31:36.053,-27.0939,-51.8127
11:31:36.064,-22.3126,-44.9377
11:31:36.073,-14.6876,-33.5626
11:31:36.082,-5,-19.0001
11:31:36.094,6.5,-0.25
11:31:36.103,17.8126,19.3126
11:31:36.113,29.0626,39.8127
11:31:36.123,40.0627,57.8752
11:31:36.133,49.2189,73.5003
11:31:36.143,55.719,87.5628
11:31:36.153,60.469,96.0629
11:31:36.165,62.5002,100.8754
11:31:36.173,62.5002,103.2504
11:31:36.184,62.6877,102.6254
11:31:36.192,59.344,99.7504
11:31:36.204,55.5627,95.8754
11:31:36.212,52.3127,88.9378
11:31:36.223,47.1564,83.4378
11:31:36.234,43.3439,74.6253
11:31:36.244,38.2814,68.6253
11:31:36.254,33.5939,60.0627
11:31:36.262,28.9689,51.9377
11:31:36.273,23.9376,44.6252
11:31:36.282,20.3751,36.1876
11:31:36.293,14.9063,28.3751
11:31:36.302,10.75,21.1251
11:31:36.313,6.7188,13.4376
11:31:36.323,3.8125,8.25
11:31:36.334,1.875,4.1875
11:31:36.343,0.125,1.75
11:31:36.352,0.375,-0.375
11:31:36.368,-0.2188,-0.1875
11:31:36.373,0.7188,0.625
11:31:36.383,2.5,2.25
11:31:36.394,3.7188,4.9375
11:31:36.402,5.9375,8.3125
11:31:36.413,7.375,11.4375
11:31:36.424,9.4688,14.0001
11:31:36.438,10.5313,16.7501
11:31:36.453,11.1563,17.8751
11:31:36.455,10.7188,17.8751
11:31:36.464,10.3438,17.9376
11:31:36.473,9.5625,16.5001
11:31:36.483,9.1563,15.3126
11:31:36.513,6.875,12.625
11:31:36.516,6.3125,11.0625
11:31:36.518,3.9375,7.875
11:31:36.524,2.3438,5
11:31:36.554,0.0313,0.8125
11:31:36.557,-2.375,-2.375
11:31:36.559,-4.7813,-6.625
11:31:36.565,-6.75,-10.3125
11:31:36.592,-9.2813,-14.8126
11:31:36.594,-10.7813,-18.0626
11:31:36.624,-13.3438,-20.9376
11:31:36.627,-15.6251,-26.1876
11:31:36.630,-17.9063,-30.0001
11:31:36.632,-20.0938,-34.0001
11:31:36.669,-23.0938,-38.6251
11:31:36.669,-25.1563,-42.6877
11:31:36.671,-27.7189,-47.0002
11:31:36.680,-29.8126,-50.0627
11:31:36.680,-31.5001,-52.2502
11:31:36.689,-32.6564,-56.3127
11:31:36.699,-34.8126,-58.4377
11:31:36.709,-35.6251,-61.0002
11:31:36.719,-37.1251,-64.1252
11:31:36.728,-37.8751,-66.0628
11:31:36.740,-39.1251,-66.0628
11:31:36.750,-37.8439,-67.2503
11:31:36.761,-34.3439,-63.1252
11:31:36.767,-27.2501,-53.0627
11:31:36.778,-17.9688,-39.2502
11:31:36.789,-7.3438,-22.0001
11:31:36.798,4.9375,-1.8125
11:31:36.808,17.3751,18.6876
11:31:36.819,29.4689,39.3127
11:31:36.829,39.7189,57.8127
11:31:36.840,48.1564,73.8753
11:31:36.849,54.1565,85.3128
11:31:36.859,58.219,94.5004
11:31:36.869,59.844,98.6879
11:31:36.879,59.9065,101.2504
11:31:36.887,59.1877,99.3754
11:31:36.899,56.7815,97.5629
11:31:36.909,53.4377,91.6254
11:31:36.917,49.2189,85.0628
11:31:36.940,45.1877,78.8753
11:31:36.942,40.1564,71.4378
11:31:36.957,35.5314,63.4377
11:31:36.960,31.3439,55.6877
11:31:36.969,26.3751,48.1877
11:31:36.980,21.4376,40.4377
11:31:36.989,17.5313,32.6251
11:31:36.998,12.1563,23.8126
11:31:37.009,8.4063,16.2501
11:31:37.020,4,9.8125
11:31:37.029,0.6875,4.4375
11:31:37.039,-1.6875,-0.0625
11:31:37.049,-2.8438,-3
11:31:37.062,-3.4688,-4.9375
11:31:37.068,-3.0625,-5.4375
11:31:37.079,-2.0313,-4.25
11:31:37.089,-1.6563,-2.25
11:31:37.098,0.0938,0
11:31:37.109,2.1563,2.5
11:31:37.120,4.0313,5.5625
11:31:37.130,5.3438,8.9375
11:31:37.156,6.7188,10.125
11:31:37.160,7.25,11.1875
11:31:37.161,7.875,12.0625
11:31:37.168,6.9375,12.375
11:31:37.179,6.9375,11.625
11:31:37.190,5.875,9.6875
11:31:37.199,3.7188,7.6875
11:31:37.209,2.75,3.8125
11:31:37.229,-0.0625,1.375
11:31:37.232,-2.4375,-2.75
11:31:37.262,-3.7813,-6.8125
11:31:37.264,-7.2813,-11
11:31:37.266,-9.2188,-14.6251
11:31:37.269,-11.875,-19.0626
11:31:37.310,-13.125,-22.1251
11:31:37.312,-15.5001,-26.9376
11:31:37.314,-17.5001,-30.1876
11:31:37.320,-19.7188,-33.2501
11:31:37.321,-21.8126,-38.0626
11:31:37.357,-23.6876,-41.1877
11:31:37.359,-25.6563,-44.4377
11:31:37.363,-27.3126,-47.6252
11:31:37.368,-28.9064,-51.1877
11:31:37.370,-30.9376,-54.2502
11:31:37.398,-31.5939,-56.4377
11:31:37.399,-33.9689,-59.6877
11:31:37.403,-35.2189,-62.5002
11:31:37.409,-37.1564,-65.8752
11:31:37.419,-38.7814,-68.4378
11:31:37.434,-40.5627,-70.0628
11:31:37.444,-42.0002,-74.1878
11:31:37.454,-43.4064,-75.9378
11:31:37.463,-44.4377,-79.2503
11:31:37.474,-45.7502,-80.4378
11:31:37.485,-46.8127,-83.1878
11:31:37.494,-46.7502,-84.5003
11:31:37.504,-47.7814,-83.8128
11:31:37.514,-46.7502,-84.6253
11:31:37.524,-44.7502,-81.0628
11:31:37.534,-39.6877,-75.1878
11:31:37.544,-32.2189,-62.5002
11:31:37.554,-21.2188,-47.5002
11:31:37.563,-9.9375,-26.8751
11:31:37.574,3.3438,-6.0625
11:31:37.584,16.0626,15.6251
11:31:37.594,33.6876,47.9377
11:31:37.604,43.6252,65.5003
11:31:37.616,51.8752,80.0628
11:31:37.624,56.6877,90.5628
11:31:37.634,59.219,97.0629
11:31:37.644,60.3752,99.2504
11:31:37.654,59.8127,99.1254
11:31:37.665,56.8127,97.1879
11:31:37.674,53.6565,91.5004
11:31:37.684,49.2814,86.3753
11:31:37.694,45.6564,78.5003
11:31:37.704,40.3439,71.5628
11:31:37.714,36.0314,63.1877
11:31:37.733,31.0626,56.5002
11:31:37.735,27.0626,47.9377
11:31:37.750,21.6876,39.5627
11:31:37.755,17.4376,32.1251
11:31:37.764,13.1875,23.6251
11:31:37.774,8,16.0001
11:31:37.785,4.3438,9.625
11:31:37.797,1.2813,4.0625
11:31:37.804,-0.9688,-0.125
11:31:37.814,-2.5938,-4.5
11:31:37.825,-3.7813,-7.125
11:31:37.833,-3.5625,-6.375
11:31:37.843,-2.4063,-6.25
11:31:37.854,-1.3125,-4.75
11:31:37.869,0.5313,-1.625
11:31:37.873,2.2813,2.1875
11:31:37.883,3.8438,5.25
11:31:37.895,6.2813,8.6875
11:31:37.904,7.9688,10.8125
11:31:37.914,8.4063,13.1251
11:31:37.925,9.125,14.5001
11:31:37.937,8.8125,14.5001
11:31:37.943,8.2188,13.7501
11:31:37.954,7.375,13.1251
11:31:37.986,6.5938,11.1875
11:31:37.989,5.7188,9.4375
11:31:37.992,3.6875,7.5625
11:31:37.994,1.9688,4.25
11:31:38.029,-0.2188,0
11:31:38.030,-2.5625,-3.4375
11:31:38.033,-5.2813,-7.375
11:31:38.035,-7.5,-11.0625
11:31:38.066,-9.8125,-16.4376
11:31:38.068,-12.6563,-19.9376
11:31:38.070,-14.7188,-24.3751
11:31:38.075,-17.4688,-29.0626
11:31:38.104,-19.5313,-32.4376
11:31:38.107,-21.2501,-37.2501
11:31:38.109,-23.5938,-40.9377
11:31:38.146,-25.5001,-44.4377
11:31:38.149,-28.3439,-48.3127
11:31:38.150,-30.6564,-51.6877
11:31:38.157,-32.1251,-56.5002
11:31:38.158,-34.5939,-60.0627
11:31:38.164,-35.7814,-62.2502
11:31:38.174,-37.2814,-64.6877
11:31:38.187,-38.3126,-66.8128
11:31:38.193,-38.9689,-68.7503
11:31:38.204,-39.3752,-69.8753
11:31:38.217,-40.0939,-71.5628
11:31:38.224,-40.1252,-72.0628
11:31:38.256,-38.7814,-70.3753
11:31:38.258,-34.3126,-64.2502
11:31:38.261,-27.9064,-54.5002
11:31:38.264,-18.6563,-40.1252
11:31:38.274,-8.25,-23.1876
11:31:38.284,3.5313,-3.5
11:31:38.295,15.4688,16.3126
11:31:38.304,26.5314,36.2501
11:31:38.314,36.2814,53.1877
11:31:38.324,43.8439,66.8753
11:31:38.334,48.5627,77.6253
11:31:38.344,52.4377,84.6253
11:31:38.354,53.0002,88.2503
11:31:38.365,52.0627,88.2503
11:31:38.374,49.9377,86.3128
11:31:38.384,47.4689,81.4378
11:31:38.394,43.4689,76.4378
11:31:38.405,39.0626,68.8128
11:31:38.437,33.8126,60.8752
11:31:38.440,29.5314,54.2502
11:31:38.444,24.5001,45.1877
11:31:38.444,20.0938,38.1251
11:31:38.455,14.9688,30.4376
11:31:38.464,10.6563,21.2501
11:31:38.475,5.5938,12.5
11:31:38.484,1.625,5.375
11:31:38.495,-2.6875,-2.375
11:31:38.504,-6,-9.4375
11:31:38.514,-8.4063,-14.2501
11:31:38.524,-9.8438,-17.1876
11:31:38.534,-10.7188,-18.7501
11:31:38.544,-10.2188,-19.2501
11:31:38.556,-9.0938,-18.2501
11:31:38.563,-7.125,-16.9376
11:31:38.574,-4.4063,-13.5626
11:31:38.583,-2.4063,-9.8125
11:31:38.594,-1.125,-6.9375
11:31:38.604,0.5,-4.75
11:31:38.614,1.3438,-2.4375
11:31:38.625,1.6875,-0.5625
11:31:38.636,2.2813,0.8125
11:31:38.644,2.6875,1.75
11:31:38.654,3.0938,0.875
11:31:38.664,1.125,0.625
11:31:38.704,0.7813,-1.625
11:31:38.705,-0.8125,-2.375
11:31:38.708,-1.4375,-6.125
11:31:38.710,-3.7813,-7.8125
11:31:38.714,-5.1875,-12.1875
11:31:38.749,-7.5313,-14.5001
11:31:38.751,-8.8125,-19.3751
11:31:38.755,-11.75,-22.1251
11:31:38.757,-14.0313,-28.0626
11:31:38.771,-17.5938,-32.5001
11:31:38.774,-20.8126,-37.1876
11:31:38.804,-22.6563,-41.9377
11:31:38.806,-24.6251,-45.8752
11:31:38.809,-27.4689,-50.2502
11:31:38.814,-29.6251,-53.7502
11:31:38.849,-32.5939,-57.2502
11:31:38.852,-34.0939,-61.6877
11:31:38.854,-36.7189,-65.3752
11:31:38.857,-38.3439,-67.8753
11:31:38.864,-39.5627,-72.1253
11:31:38.874,-41.2189,-74.1878
11:31:38.885,-42.5314,-76.1253
11:31:38.894,-43.4064,-78.3128
11:31:38.905,-43.8439,-80.8753
11:31:38.914,-43.8752,-80.0003
11:31:38.924,-42.1564,-77.9378
11:31:38.934,-37.1876,-71.8753
11:31:38.946,-30.2189,-61.5002
11:31:38.954,-20.5001,-46.2502
11:31:38.964,-9.1563,-28.8126
11:31:38.975,2.875,-7.625
11:31:38.984,14.4688,12.3125
11:31:38.998,26.1251,32.5626
11:31:39.008,35.4376,49.5627
11:31:39.014,43.0939,65.4377
11:31:39.030,47.7189,75.8753
11:31:39.045,52.1877,82.3753
11:31:39.047,54.0002,87.6253
11:31:39.054,53.4065,87.9378
11:31:39.067,51.9064,85.8753
11:31:39.073,48.0627,81.9378
11:31:39.084,45.4377,75.9378
11:31:39.094,40.9064,69.5003
11:31:39.104,36.2501,61.1877
11:31:39.114,30.7189,54.5627
11:31:39.126,25.8126,45.5627
11:31:39.134,21.4688,39.0001
11:31:39.144,16.6563,29.5626
11:31:39.155,11.75,21.3126
11:31:39.164,7.4063,13.8126
11:31:39.173,2.7813,5.5625
11:31:39.184,-1.1563,-1.75
11:31:39.194,-3.4375,-7.5625
11:31:39.204,-5.5313,-12
11:31:39.214,-7.9375,-16.1251
11:31:39.224,-8.5313,-17.0626
11:31:39.234,-8.2188,-18.5626
11:31:39.244,-7.0625,-18.1876
11:31:39.254,-6,-16.1876
11:31:39.264,-4.7813,-13.125
11:31:39.275,-2.1563,-10.9375
11:31:39.284,-0.5625,-6.875
11:31:39.293,1.7813,-4.0625
11:31:39.305,3.2813,-1.75
11:31:39.314,4.2188,0.0625
11:31:39.324,4.75,1.375
11:31:39.336,4.5,2.5
11:31:39.344,4.2188,2.375
11:31:39.366,3.8438,0.8125
11:31:39.369,3.1875,-0.5
11:31:39.402,0.7813,-2.25
11:31:39.404,0.375,-5.25
11:31:39.405,-2,-8.125
11:31:39.406,-3.4375,-11.4375
11:31:39.414,-5.9375,-15.5001
11:31:39.453,-7.875,-18.5626
11:31:39.458,-10.3438,-21.8751
11:31:39.459,-13.2501,-27.3126
11:31:39.460,-15.7188,-30.1251
11:31:39.466,-18.4376,-35.5626
11:31:39.509,-20.6563,-38.6876
11:31:39.511,-22.9376,-43.0002
11:31:39.513,-24.5001,-46.1877
11:31:39.515,-27.0001,-49.8752
11:31:39.518,-28.9064,-54.3127
11:31:39.549,-32.0314,-57.8752
11:31:39.552,-33.0626,-61.9377
11:31:39.556,-35.9376,-65.3128
11:31:39.561,-37.0314,-69.1253
11:31:39.564,-38.9064,-70.9378
11:31:39.574,-40.1252,-74.1878
11:31:39.584,-41.5314,-75.8753
11:31:39.595,-42.5314,-78.0628
11:31:39.604,-42.3439,-78.4378
11:31:39.614,-40.9064,-76.6253
11:31:39.627,-36.3126,-71.3128
11:31:39.634,-30.8439,-62.5627
11:31:39.644,-21.1251,-48.3127
11:31:39.654,-9.6875,-28.8126
11:31:39.664,3.9063,-7.875
11:31:39.674,17.2188,15.2501
11:31:39.684,29.8439,37.0626
11:31:39.717,41.3439,57.7502
11:31:39.719,50.8752,74.8753
11:31:39.721,57.5002,87.1878
11:31:39.726,61.4065,96.8754
11:31:39.734,63.2815,101.8129
11:31:39.745,63.5315,104.2504
11:31:39.757,62.094,102.9379
11:31:39.764,59.8127,100.4379
11:31:39.774,56.1252,94.5004
11:31:39.784,52.1877,88.6878
11:31:39.794,47.8752,81.5628
11:31:39.804,43.9377,74.3128
11:31:39.816,39.0001,66.3128
11:31:39.824,35.5939,58.3752
11:31:39.836,30.2814,50.6252
11:31:39.845,25.2188,42.8752
11:31:39.854,21.1563,34.0001
11:31:39.864,15.4376,25.6251
11:31:39.874,11.5938,17.8126
11:31:39.884,7.5938,9.875
11:31:39.894,4.75,4.1875
11:31:39.904,2.2813,-0.3125
11:31:39.916,0.7188,-3.375
11:31:39.924,0.625,-5.0625
11:31:39.934,0.25,-5.25
11:31:39.944,1.4375,-4.6875
11:31:39.954,2.0938,-3.5
11:31:39.967,2.6563,-1.4375
11:31:39.974,3.1563,-0.8125
11:31:39.984,0.4063,-0.625
11:31:39.994,-3.25,-2.4375
11:31:40.004,-10.7813,-6.25
11:31:40.014,-23.9376,-16.3751
11:31:40.024,-33.5626,-23.8126
11:31:40.033,-37.1876,-23.3126
11:31:40.044,-33.9064,-15.0001
11:31:40.054,-28.8439,-7.375
11:31:40.064,-25.4688,0.8125
11:31:40.080,-20.3751,8.875
11:31:40.086,-14.4063,17.5001
11:31:40.118,-9.2813,23.5626
11:31:40.120,-6.5313,29.1251
11:31:40.122,-6.7813,28.0001
11:31:40.125,-10.625,24.7501
11:31:40.158,-10.4688,23.9376
11:31:40.160,-10.9375,20.8751
11:31:40.162,-12.875,18.1251
11:31:40.168,-16.7813,11.0625
11:31:40.199,-21.3751,2.1875
11:31:40.200,-26.7501,-6.1875
11:31:40.202,-30.7814,-14.6876
11:31:40.205,-36.9064,-22.6876
11:31:40.241,-40.8127,-31.3751
11:31:40.245,-45.7502,-38.7501
11:31:40.246,-51.3439,-48.8752
11:31:40.248,-58.5627,-58.3752
11:31:40.254,-64.1252,-68.2503
11:31:40.266,-68.469,-75.8753
11:31:40.275,-70.719,-81.0003
11:31:40.284,-73.3128,-86.7503
11:31:40.295,-75.594,-91.0629
11:31:40.303,-76.6878,-95.5629
11:31:40.326,-77.219,-98.6879
11:31:40.329,-76.6253,-101.9379
11:31:40.337,-80.0003,-108.3129
11:31:40.344,-80.0003,-112.0629
11:31:40.359,-73.094,-103.1879
11:31:40.368,-60.1877,-86.2503
11:31:40.374,-42.3127,-60.6877
11:31:40.384,-21.2188,-29.3126
11:31:40.395,5.1563,6.0625
11:31:40.404,30.0939,44.3752
11:31:40.414,49.8127,74.1878
11:31:40.424,64.719,97.5004
11:31:40.434,74.7503,114.5004
11:31:40.444,81.4066,126.2505
11:31:40.455,83.3128,131.3755
11:31:40.464,83.2191,132.1255
11:31:40.475,80.4066,130.563
11:31:40.484,74.0628,123.813
11:31:40.494,64.1252,115.0004
11:31:40.504,53.3752,102.5629
11:31:40.514,42.8752,92.5004
11:31:40.524,35.9376,81.4378
11:31:40.535,29.7189,70.8128
11:31:40.544,21.7188,55.8752
11:31:40.554,10.9375,39.5002
11:31:40.565,-2.6875,18.6876
11:31:40.575,-17.9688,-3.0625
11:31:40.584,-32.0939,-26.8751
11:31:40.594,-43.3752,-46.5627
11:31:40.605,-51.2189,-61.0627
11:31:40.616,-57.594,-73.8753
11:31:40.625,-61.8127,-83.4378
11:31:40.634,-65.3127,-90.0628
11:31:40.645,-67.1878,-94.8754
11:31:40.654,-68.1878,-97.9379
11:31:40.669,-67.7503,-97.7504
11:31:40.674,-63.719,-96.1254
11:31:40.684,-60.969,-94.0629
11:31:40.695,-63.1877,-99.0004
11:31:40.704,-67.5628,-105.4379
11:31:40.716,-70.2503,-108.6254
11:31:40.725,-70.219,-107.8129
11:31:40.735,-65.469,-101.0004
11:31:40.744,-51.8752,-85.1878
11:31:40.754,-32.4689,-60.8127
11:31:40.764,-14.1563,-37.4376
11:31:40.774,-0.2813,-18.1876
11:31:40.786,7.375,-5
11:31:40.794,14.3126,4.0625
11:31:40.805,15.8126,8.3125
11:31:40.814,9.5938,2.25
11:31:40.829,6.7813,-0.75
11:31:40.848,1.6563,-6
11:31:40.854,-3.6563,-10.1875
11:31:40.856,-11.4688,-15.1876
11:31:40.871,-15.4376,-18.1876
11:31:40.874,-19.1563,-21.5001
11:31:40.885,-22.7813,-26.4376
11:31:40.913,-25.6563,-31.8126
11:31:40.917,-26.6251,-38.0001
11:31:40.918,-29.4689,-44.7502
11:31:40.956,-36.1564,-57.0627
11:31:40.957,-43.7814,-70.5628
11:31:40.960,-54.2815,-87.1253
11:31:40.965,-65.2815,-103.0629
11:31:40.965,-74.0315,-117.5004
11:31:40.998,-81.5941,-129.063
11:31:41.000,-87.2816,-138.188
11:31:41.002,-92.2816,-146.438
11:31:41.005,-93.7816,-150.0631
11:31:41.036,-93.2816,-151.9381
11:31:41.038,-90.5316,-148.7506
11:31:41.041,-84.8753,-143.3755
11:31:41.045,-76.469,-131.563
11:31:41.075,-64.9065,-118.0005
11:31:41.077,-55.9377,-103.0004
11:31:41.080,-50.1877,-95.0629
11:31:41.087,-44.0627,-83.6878
11:31:41.101,-38.7814,-69.1878
11:31:41.103,-30.2501,-51.8127
11:31:41.115,-19.0626,-30.0626
11:31:41.125,-2.2188,-4.3125
11:31:41.135,19.1876,26.1876
11:31:41.146,44.6877,58.8752
11:31:41.155,68.5003,89.8753
11:31:41.167,87.8128,115.6254
11:31:41.174,98.7816,133.313
11:31:41.185,96.1254,132.938
11:31:41.195,91.4691,130.188
11:31:41.203,84.8753,121.563
11:31:41.215,76.7815,111.6879
11:31:41.225,64.844,99.3754
11:31:41.234,52.1252,86.4378
11:31:41.246,38.9376,73.5628
11:31:41.253,30.4376,60.7502
11:31:41.264,21.1876,49.5627
11:31:41.276,11.8438,33.6251
11:31:41.285,2.3438,19.5001
11:31:41.295,-4.8125,4.875
11:31:41.305,-12.2188,-8.8125
11:31:41.315,-18.9063,-22.3126
11:31:41.328,-25.6876,-35.8126
11:31:41.335,-33.8439,-49.0627
11:31:41.346,-42.5314,-61.0002
11:31:41.355,-49.0314,-69.6253
11:31:41.365,-50.4064,-73.3753
11:31:41.377,-49.5314,-73.1253
11:31:41.385,-47.2502,-70.3753
11:31:41.395,-43.4377,-65.5003
11:31:41.405,-40.4377,-62.8752
11:31:41.415,-37.4376,-59.9377
11:31:41.425,-33.7189,-56.5627
11:31:41.441,-29.7189,-52.6252
11:31:41.451,-25.9063,-50.8127
11:31:41.461,-26.2188,-57.0002
11:31:41.476,-32.2814,-67.3753
11:31:41.480,-37.4376,-73.9378
11:31:41.490,-38.6876,-72.9378
11:31:41.500,-34.0939,-68.4378
11:31:41.509,-16.3438,-47.7502
11:31:41.521,18.4063,-10.1875
11:31:41.530,42.5627,23.3126
11:31:41.539,53.344,39.8127
11:31:41.550,40.1877,34.7501
11:31:41.561,27.9064,21.5626
11:31:41.570,17.5313,11.0625
11:31:41.581,8.375,-0.4375
11:31:41.589,-3.5625,-13.5001
11:31:41.603,-21.6876,-31.3126
11:31:41.610,-24.2501,-35.5626
11:31:41.654,-23.2188,-34.8126
11:31:41.723,-27.8126,-41.1252
11:31:41.777,-30.5626,-48.6252
11:31:41.781,-32.8126,-55.3752
11:31:41.782,-37.7501,-62.9377
11:31:41.784,-42.6564,-74.5628
11:31:41.784,-51.1564,-85.8753
11:31:41.790,-61.5315,-101.6254
11:31:41.801,-75.2815,-119.0005
11:31:41.810,-86.3128,-132.688
11:31:41.820,-91.2504,-140.063
11:31:41.830,-88.4691,-138.313
11:31:41.841,-80.3753,-127.688
11:31:41.857,-67.2503,-110.5004
11:31:41.860,-55.4377,-91.2504
11:31:41.872,-41.8752,-69.8128
11:31:41.880,-29.5939,-47.3752
11:31:41.890,-14.9688,-23.0626
11:31:41.899,-0.375,0.6875
11:31:41.910,13.7813,22.2501
11:31:41.919,22.5313,35.1876
11:31:41.929,26.8126,43.3752
11:31:41.940,29.5001,48.7502
11:31:41.950,88.3128,131.2505
11:31:41.960,81.6878,119.8755
11:31:41.970,73.2815,108.0629
11:31:41.978,63.9377,97.0004
11:31:41.990,54.4065,85.1878
11:31:42.000,44.5627,74.8128
11:31:42.011,36.4064,64.8128
11:31:42.018,30.0626,57.9377
11:31:42.030,29.5314,54.5002
11:31:42.039,29.6251,52.3127
11:31:42.050,29.4689,49.5002
11:31:42.060,28.6564,46.5002
11:31:42.071,26.0001,41.6252
11:31:42.080,20.7188,34.0001
11:31:42.090,14.0313,26.3126
11:31:42.099,7.7188,18.7501
11:31:42.109,0.4688,11.625
11:31:42.120,-5.9375,2.875
11:31:42.138,-11.0938,-3.6875
11:31:42.144,-14.4688,-9.0625
11:31:42.152,-16.7501,-13.5626
11:31:42.160,-18.9688,-18.7501
11:31:42.175,-23.1876,-24.7501
11:31:42.191,-27.3751,-32.8751
11:31:42.193,-31.9376,-39.3127
11:31:42.200,-36.4689,-46.0002
11:31:42.210,-38.6564,-49.2502
11:31:42.222,-38.6876,-52.0627
11:31:42.230,-36.6251,-52.8752
11:31:42.240,-36.7189,-59.6252
11:31:42.252,-40.0627,-69.0628
11:31:42.276,-44.8439,-76.6878
11:31:42.278,-46.2502,-78.1253
11:31:42.281,-43.9377,-74.0003
11:31:42.309,-34.2189,-64.0627
11:31:42.311,-14.6563,-42.4377
11:31:42.314,4.3438,-20.0626
11:31:42.320,17.1251,-0.625
11:31:42.354,7.9375,-2.125
11:31:42.356,-8.3125,-13.6251
11:31:42.359,-22.7501,-29.1876
11:31:42.361,-33.8751,-42.4377
11:31:42.400,-40.5939,-52.5627
11:31:42.403,-44.4689,-61.9377
11:31:42.405,-46.0314,-67.3753
11:31:42.408,-46.2502,-71.8753
11:31:42.413,-49.5627,-75.3128
11:31:42.420,-52.2502,-78.3128
11:31:42.446,-50.2502,-73.7503
11:31:42.449,-43.7189,-61.6877
11:31:42.451,-31.5939,-40.5627
11:31:42.460,-14.9063,-15.2501
11:31:42.470,3.375,13.5626
11:31:42.480,21.8438,40.1252
11:31:42.490,36.9064,65.6253
11:31:42.501,51.5002,85.6253
11:31:42.510,63.1252,103.8129
11:31:42.521,70.3128,111.5629
11:31:42.530,71.6253,115.5004
11:31:42.540,70.7815,116.5629
11:31:42.550,69.219,116.8754
11:31:42.560,74.719,124.3755
11:31:42.571,85.2503,133.6255
11:31:42.580,102.8129,151.0006
11:31:42.590,119.4692,170.1256
11:31:42.606,128.438,181.0632
11:31:42.610,131.2193,186.0632
11:31:42.621,128.4692,182.7507
