timestamp,Red,IR
14:21:19.886,19.0001,38.8126
14:21:19.897,19.1876,37.8126
14:21:19.905,19.0001,36.1251
14:21:19.915,18.0626,33.5626
14:21:19.925,18.0626,30.9376
14:21:19.935,17.0001,27.2501
14:21:19.945,15.8126,24.6876
14:21:19.961,14.6876,22.5626
14:21:19.966,13.9376,19.3751
14:21:19.975,13.3751,18.2501
14:21:19.985,12.5625,15.8126
14:21:19.996,11.5625,14.5001
14:21:20.006,10.75,12.625
14:21:20.015,10.3125,9.1875
14:21:20.025,9.375,6.8125
14:21:20.035,8.5,5.0625
14:21:20.045,7.75,3.9375
14:21:20.056,7.4375,2.3125
14:21:20.069,6.75,2.625
14:21:20.077,7,1.625
14:21:20.086,7.125,0.5625
14:21:20.099,6.125,0.25
14:21:20.105,5.625,1.75
14:21:20.115,6.75,2.1875
14:21:20.125,6.3125,1.8125
14:21:20.135,6.375,1.5625
14:21:20.145,5.6875,1.5
14:21:20.155,6,1.625
14:21:20.165,5.1875,-0.75
14:21:20.175,4.75,-0.125
14:21:20.185,5.3125,-1.8125
14:21:20.196,4.0625,-3.5625
14:21:20.207,3.375,-5
14:21:20.215,3.5625,-5.375
14:21:20.256,3.8125,-7
14:21:20.259,2.8125,-9.75
14:21:20.274,1.9375,-11.75
14:21:20.279,1.6875,-10.75
14:21:20.292,1.875,-13.0625
14:21:20.294,2.375,-13.6876
14:21:20.297,1.9375,-15.5626
14:21:20.299,1.875,-16.1876
14:21:20.305,1.1875,-17.5626
14:21:20.315,1.5,-18.4376
14:21:20.325,1.25,-16.8126
14:21:20.335,2.25,-19.3126
14:21:20.375,1.375,-19.8751
14:21:20.377,1.5625,-19.6876
14:21:20.380,2.5,-19.5001
14:21:20.383,2.0625,-20.0626
14:21:20.387,2.0625,-20.8126
14:21:20.415,1.5625,-20.6251
14:21:20.418,1.25,-19.5626
14:21:20.421,2.1875,-20.5626
14:21:20.427,2,-21.0626
14:21:20.451,1.6875,-22.6251
14:21:20.453,1.25,-21.6876
14:21:20.456,1.9375,-21.4376
14:21:20.484,0.875,-22.6251
14:21:20.487,0.6875,-21.8751
14:21:20.489,1.0625,-22.3751
14:21:20.496,1.25,-20.6251
14:21:20.527,2.5,-13.6251
14:21:20.529,5.125,-3.75
14:21:20.532,8.875,6.4375
14:21:20.538,11.625,15.4376
14:21:20.545,12.875,24.2501
14:21:20.555,15.2501,28.8126
14:21:20.565,16.0626,31.3126
14:21:20.575,15.9376,32.6251
14:21:20.586,16.0001,33.2501
14:21:20.595,16.0001,31.0626
14:21:20.605,14.8751,29.0626
14:21:20.616,14.0626,28.5626
14:21:20.626,14.1876,25.2501
14:21:20.635,12.8125,21.5626
14:21:20.645,11.875,21.5001
14:21:20.655,12.0625,17.5626
14:21:20.666,10.375,15.5626
14:21:20.676,10.375,12.625
14:21:20.685,8.9375,8.875
14:21:20.695,8.0625,6.875
14:21:20.706,7.875,5.125
14:21:20.719,7.5,2.0625
14:21:20.725,6.375,-0.4375
14:21:20.735,6.125,-1.375
14:21:20.745,4.875,-2.25
14:21:20.756,5.25,-3.3125
14:21:20.765,4.75,-5.25
14:21:20.777,4.5,-4.5625
14:21:20.786,4.0625,-3.8125
14:21:20.796,4.9375,-3.6875
14:21:20.805,4.6875,-3.5625
14:21:20.815,4.625,-3.6875
14:21:20.826,4.25,-2.75
14:21:20.835,4.625,-1.0625
14:21:20.846,5.4375,-1.6875
14:21:20.855,4.8125,-2.5
14:21:20.865,4.5625,-3.375
14:21:20.876,4.4375,-2.5625
14:21:20.885,4.125,-3.0625
14:21:20.895,4.125,-5
14:21:20.906,4,-6.5
14:21:20.915,3.3125,-7.75
14:21:20.926,3.5625,-9.25
14:21:20.936,2.9375,-10.4375
14:21:20.945,3.375,-11.9375
14:21:20.955,2.375,-13
14:21:20.986,2.375,-14.3126
14:21:20.989,2.5,-15.5626
14:21:20.990,1.4375,-16.0626
14:21:20.996,1.75,-17.3126
14:21:21.005,2.0625,-17.6251
14:21:21.016,1.75,-18.0001
14:21:21.025,1.6875,-18.4376
14:21:21.035,1.125,-20.2501
14:21:21.070,-0.375,-19.9376
14:21:21.072,0.0625,-21.1251
14:21:21.074,-0.3125,-23.1251
14:21:21.077,0.125,-21.7501
14:21:21.115,0.1875,-23.7501
14:21:21.115,-1,-23.3751
14:21:21.119,-0.25,-23.3751
14:21:21.121,-1.3125,-25.3126
14:21:21.127,-1.6875,-23.8751
14:21:21.138,-1.375,-22.3751
14:21:21.168,-0.5625,-18.8126
14:21:21.171,1.875,-9.5
14:21:21.173,4.4375,0.5625
14:21:21.176,8.0625,9.4375
14:21:21.215,10.875,17.6876
14:21:21.217,12.9375,26.0001
14:21:21.219,14.0001,29.0001
14:21:21.236,15.0626,31.8126
14:21:21.236,15.6876,32.6251
14:21:21.237,15.0001,31.8751
14:21:21.245,15.5626,30.4376
14:21:21.256,14.7501,29.2501
14:21:21.265,13.8751,26.8126
14:21:21.275,13.9376,25.0001
14:21:21.285,13.3126,22.8126
14:21:21.298,12.625,20.2501
14:21:21.306,12.0625,17.8126
14:21:21.316,11.0625,15.8751
14:21:21.325,10.625,13.9376
14:21:21.335,10.5625,11.4375
14:21:21.347,9.625,7.75
14:21:21.356,8.9375,6.125
14:21:21.365,8.8125,4.6875
14:21:21.376,8.9375,3.0625
14:21:21.386,7.9375,0.75
14:21:21.397,7.0625,0.8125
14:21:21.406,7.625,0.25
14:21:21.416,7.375,-0.8125
14:21:21.425,6.8125,-0.125
14:21:21.435,7.25,0.375
14:21:21.445,7.5625,0.4375
14:21:21.455,7.5,2.9375
14:21:21.466,8.3125,3.8125
14:21:21.475,8.4375,4.3125
14:21:21.486,8.4375,2.875
14:21:21.495,8,4.25
14:21:21.505,9.125,4.375
14:21:21.516,7.625,3
14:21:21.528,7.375,3.375
14:21:21.560,8.125,1
14:21:21.567,7.3125,-0.6875
14:21:21.570,6.625,-0.9375
14:21:21.583,6.6875,-3.0625
14:21:21.584,6.5625,-5.1875
14:21:21.599,5.5,-4.8125
14:21:21.615,5.5,-7.5
14:21:21.617,5.1875,-8.8125
14:21:21.631,4.1875,-10.875
14:21:21.633,4.125,-10
14:21:21.637,4.6875,-13
14:21:21.645,3.625,-13.8751
14:21:21.655,3.375,-14.4376
14:21:21.667,3.125,-15.9376
14:21:21.676,3.1875,-17.5001
14:21:21.685,2.3125,-17.1876
14:21:21.696,2.5625,-18.1251
14:21:21.705,2.4375,-18.8751
14:21:21.715,2.0625,-20.0626
14:21:21.725,1.875,-19.1876
14:21:21.735,2.25,-20.8751
14:21:21.745,1.5,-20.6876
14:21:21.756,1.875,-16.9376
14:21:21.766,3.875,-9
14:21:21.775,6.8125,0.5625
14:21:21.786,9.75,10.125
14:21:21.795,12.3125,21.8751
14:21:21.807,15.7501,30.0001
14:21:21.814,17.3751,35.0626
14:21:21.825,18.4376,41.1877
14:21:21.846,19.6251,41.4377
14:21:21.849,19.8751,41.8127
14:21:21.880,20.3126,43.3752
14:21:21.883,20.4376,41.2502
14:21:21.884,19.7501,40.8752
14:21:21.887,19.7501,39.1252
14:21:21.914,18.5626,35.9376
14:21:21.916,17.8751,35.9376
14:21:21.918,18.4376,32.3126
14:21:21.926,17.6251,31.5001
14:21:21.956,17.6251,29.3751
14:21:21.958,16.8126,26.8126
14:21:21.961,16.1876,24.5001
14:21:21.965,15.2501,23.1251
14:21:21.999,15.3751,20.3751
14:21:22.001,14.5001,19.1251
14:21:22.004,14.2501,16.3126
14:21:22.005,14.1251,15.0001
14:21:22.023,13.5001,13.7501
14:21:22.025,13.0625,14.4376
14:21:22.035,13.0625,13.1876
14:21:22.047,12.8125,12.5625
14:21:22.054,12.5625,13.8126
14:21:22.066,12.0625,14.5001
14:21:22.075,13.2501,14.7501
14:21:22.085,13.5626,14.0001
14:21:22.095,12.9375,16.0001
14:21:22.105,13,15.4376
14:21:22.115,13.5626,14.8126
14:21:22.125,13,14.0001
14:21:22.135,12.75,14.1251
14:21:22.146,13.4376,12.8125
14:21:22.155,12.75,10.9375
14:21:22.164,11.6875,9.625
14:21:22.174,11.0625,8.375
14:21:22.186,11.25,6.1875
14:21:22.196,10.625,4.75
14:21:22.205,9.75,3.5
14:21:22.215,10.1875,1.25
14:21:22.225,8.6875,-1.125
14:21:22.234,8.3125,-2.125
14:21:22.266,8.875,-4.3125
14:21:22.267,7.9375,-6.1875
14:21:22.269,6.9375,-7.375
14:21:22.276,7.5625,-8.375
14:21:22.284,7.5,-9.5625
14:21:22.294,6.4375,-11.5
14:21:22.305,6.125,-12.5625
14:21:22.314,6.0625,-12.0625
14:21:22.325,6.875,-13.2501
14:21:22.335,5.625,-15.5001
14:21:22.344,5.0625,-15.0626
14:21:22.355,5.375,-15.5626
14:21:22.366,5.5,-17.5626
14:21:22.374,4.5625,-18.5626
14:21:22.385,3.625,-18.9376
14:21:22.402,3.375,-19.7501
14:21:22.404,3.25,-20.1876
14:21:22.414,4.1875,-15.8126
14:21:22.425,6.0625,-9.5
14:21:22.434,9.5,1.125
14:21:22.446,13.2501,12.875
14:21:22.456,16.1251,24.2501
14:21:22.464,18.2501,33.9376
14:21:22.474,20.8751,38.5626
14:21:22.508,21.5001,41.9377
14:21:22.510,22.6251,45.3752
14:21:22.512,23.4376,45.2502
14:21:22.517,23.2501,45.3752
14:21:22.545,22.6876,45.2502
14:21:22.546,22.3126,42.4377
14:21:22.548,21.3751,40.2502
14:21:22.557,21.1251,39.0626
14:21:22.589,20.8751,36.5626
14:21:22.590,19.6876,35.3126
14:21:22.593,19.7501,32.8126
14:21:22.599,18.6876,30.5626
14:21:22.612,18.0001,29.4376
14:21:22.616,18.1251,27.8126
14:21:22.643,17.1251,25.0626
14:21:22.647,16.3751,23.0626
14:21:22.648,14.6876,21.6251
14:21:22.655,15.5001,19.1876
14:21:22.668,14.6251,17.8751
14:21:22.675,13.6251,17.1876
14:21:22.684,14.3126,15.5001
14:21:22.694,13.8751,15.1876
14:21:22.704,13.8126,14.2501
14:21:22.714,12.8125,14.7501
14:21:22.726,13.8751,14.9376
14:21:22.734,13.1876,13.5626
14:21:22.745,12.6875,13.6876
14:21:22.754,12.5,14.7501
14:21:22.766,12.5,13.7501
14:21:22.777,12.1875,13.4376
14:21:22.785,11.5625,12.5
14:21:22.794,11.75,12.0625
14:21:22.804,11.125,10.3125
14:21:22.814,10.25,9
14:21:22.825,9.375,7.5
14:21:22.845,9.5625,4.8125
14:21:22.848,8.5,2.875
14:21:22.858,7.5625,1.3125
14:21:22.864,7.8125,-0.375
14:21:22.879,7.4375,-2.8125
14:21:22.888,6.3125,-5.5625
14:21:22.894,5.375,-5.8125
14:21:22.911,6.3125,-8.1875
14:21:22.914,4.5625,-10.4375
14:21:22.929,4,-11.125
14:21:22.944,3.8125,-13.6876
14:21:22.947,2.625,-15.5626
14:21:22.962,2.5625,-16.6876
14:21:22.964,2.3125,-16.6876
14:21:22.976,2.5625,-18.7501
14:21:22.984,1.9375,-20.5626
14:21:22.994,0.9375,-21.6251
14:21:23.004,0.375,-22.6876
14:21:23.014,0.4375,-22.2501
14:21:23.026,0.625,-24.0626
14:21:23.035,0.5,-25.1876
14:21:23.045,0,-24.5001
14:21:23.054,0.125,-25.5626
14:21:23.064,-0.0625,-26.1876
14:21:23.074,0.6875,-25.3751
14:21:23.084,0.8125,-27.4376
14:21:23.094,0.0625,-27.9376
14:21:23.104,0.125,-28.1876
14:21:23.114,-0.375,-26.8126
14:21:23.124,0.4375,-27.7501
14:21:23.134,-0.125,-29.4376
14:21:23.144,-0.6875,-29.0626
14:21:23.156,-0.5625,-28.6251
14:21:23.164,-1.0625,-29.0626
14:21:23.174,-1,-30.2501
14:21:23.185,-1.25,-29.9376
14:21:23.194,-0.75,-30.1251
14:21:23.204,-1.6875,-28.6251
14:21:23.214,-0.8125,-29.5001
14:21:23.224,-0.9375,-30.1876
14:21:23.235,-1.25,-29.6876
14:21:23.244,-0.6875,-29.8751
14:21:23.254,-0.8125,-30.1876
14:21:23.264,-1.0625,-28.8751
14:21:23.274,-0.5625,-30.5626
14:21:23.284,-1.3125,-29.2501
14:21:23.295,-1.625,-29.9376
14:21:23.311,-1.625,-31.8751
14:21:23.315,-2.5625,-30.5626
14:21:23.342,-1.375,-31.0001
14:21:23.345,-2.5,-31.3751
14:21:23.347,-1.8125,-27.3751
14:21:23.375,0.5,-17.6876
14:21:23.377,4.5,-3.5
14:21:23.381,8.125,9.5
14:21:23.409,12.3125,21.3126
14:21:23.412,14.1251,31.1251
14:21:23.415,16.4376,37.7501
14:21:23.420,17.3126,41.4377
14:21:23.447,18.1251,42.4377
14:21:23.450,17.6251,41.8127
14:21:23.452,17.9376,42.0002
14:21:23.461,17.4376,39.7502
14:21:23.485,16.5626,38.2501
14:21:23.487,17.0626,35.5001
14:21:23.490,16.0626,34.0626
14:21:23.499,15.7501,31.4376
14:21:23.509,15.3126,29.3751
14:21:23.519,14.8126,29.6251
14:21:23.550,14.5001,26.5626
14:21:23.552,14.0001,25.1251
14:21:23.553,13.2501,24.3751
14:21:23.560,13.2501,22.2501
14:21:23.569,13.5001,20.0626
14:21:23.579,12,18.2501
14:21:23.589,11.75,17.0001
14:21:23.600,11.625,16.2501
14:21:23.609,11.8125,15.0626
14:21:23.619,10.4375,13.6251
14:21:23.629,10.1875,13.5001
14:21:23.639,10.9375,13.3751
14:21:23.649,10.625,12.75
14:21:23.659,9.875,14.2501
14:21:23.669,10.75,12.4375
14:21:23.679,9.9375,12.25
14:21:23.689,9.8125,11.25
14:21:23.699,8.9375,12.5625
14:21:23.709,9.0625,12.4375
14:21:23.719,9.6875,11
14:21:23.729,8.875,8.9375
14:21:23.739,9.125,8.5
14:21:23.750,9,7.0625
14:21:23.759,8.25,5.6875
14:21:23.769,7.0625,3.5625
14:21:23.779,6.6875,2
14:21:23.789,7.0625,-0.5625
14:21:23.800,5.625,-3.5
14:21:23.809,4.4375,-2.875
14:21:23.819,4.9375,-5.75
14:21:23.831,3.6875,-8.5
14:21:23.839,3.9375,-9.1875
14:21:23.849,2.9375,-9.9375
14:21:23.859,3.375,-12.625
14:21:23.869,2.5,-14.5626
14:21:23.879,1.625,-14.6251
14:21:23.889,2.5,-16.8126
14:21:23.899,1.375,-18.6251
14:21:23.910,1.3125,-19.0001
14:21:23.919,1.375,-19.0626
14:21:23.929,2.0625,-19.8751
14:21:23.939,1.0625,-21.4376
14:21:23.949,0.8125,-20.6251
14:21:23.959,0.9375,-21.8126
14:21:23.969,0.625,-24.0001
14:21:23.995,0.5,-23.5626
14:21:23.997,0.5,-24.3126
14:21:24.000,0.375,-23.6251
14:21:24.037,0.5625,-23.3751
14:21:24.039,1,-24.3751
14:21:24.041,-0.25,-26.3126
14:21:24.043,-0.1875,-25.9376
14:21:24.050,-0.4375,-26.5626
14:21:24.079,-0.625,-25.5001
14:21:24.080,-0.5625,-25.5001
14:21:24.083,-0.125,-27.0626
14:21:24.112,-0.625,-27.8751
14:21:24.114,-0.0625,-26.2501
14:21:24.116,-0.3125,-27.1876
14:21:24.125,0.25,-26.0001
14:21:24.133,0.125,-27.1251
14:21:24.164,-0.25,-26.9376
14:21:24.167,-0.5,-26.8126
14:21:24.185,0,-27.3126
14:21:24.185,-0.1875,-26.7501
14:21:24.200,-0.5,-26.8751
14:21:24.202,0,-27.0001
14:21:24.204,-0.5625,-27.0626
14:21:24.209,-0.1875,-27.6876
14:21:24.229,-0.6875,-27.6251
14:21:24.232,-2,-27.4376
14:21:24.247,-2.125,-29.0001
14:21:24.250,-2.1875,-27.7501
14:21:24.266,-0.5625,-22.1251
14:21:24.274,1.3125,-11.375
14:21:24.280,5.5625,0.5
14:21:24.289,8.4375,13.7501
14:21:24.299,12.125,23.6251
14:21:24.309,14.2501,31.2501
14:21:24.319,15.9376,37.0001
14:21:24.329,16.8126,38.7501
14:21:24.339,16.7501,38.1876
14:21:24.349,16.5626,39.8752
14:21:24.359,16.1876,37.7501
14:21:24.369,15.4376,34.9376
14:21:24.380,14.6876,32.6876
14:21:24.393,14.8126,29.6876
14:21:24.399,13.8126,28.6876
14:21:24.409,13.8126,26.2501
14:21:24.419,12.375,24.0001
14:21:24.429,11.9375,23.6876
14:21:24.439,11.9375,20.4376
14:21:24.449,10.875,17.9376
14:21:24.459,9.5625,16.7501
14:21:24.469,10.125,14.8751
14:21:24.479,10.0625,12.5625
14:21:24.489,9.375,10.625
14:21:24.499,8.625,9.3125
14:21:24.510,7.9375,9.625
14:21:24.519,8.125,8.4375
14:21:24.529,8.125,6.3125
14:21:24.539,7.375,7.3125
14:21:24.549,7.9375,7.0625
14:21:24.559,8.0625,7.125
14:21:24.569,7.9375,7.5
14:21:24.581,8.0625,8.125
14:21:24.589,8.5625,8.5625
14:21:24.599,8.375,8.6875
14:21:24.609,7.5625,7.8125
14:21:24.619,7.9375,7.375
14:21:24.629,7.9375,6.6875
14:21:24.639,7.375,6.4375
14:21:24.652,6.5,5.875
14:21:24.659,6.9375,4
14:21:24.669,6.5,2.125
14:21:24.680,5.8125,0.375
14:21:24.689,5.5,-0.5625
14:21:24.699,4.625,-3.5
14:21:24.711,4.1875,-5.125
14:21:24.719,4.0625,-6
14:21:24.731,3.5625,-7.3125
14:21:24.739,4.25,-9.5
14:21:24.750,2.5625,-12.4375
14:21:24.781,2.25,-12.4375
14:21:24.785,3.125,-13.9376
14:21:24.785,2.1875,-16.1876
14:21:24.790,1.25,-18.0001
14:21:24.826,1.375,-17.5001
14:21:24.827,0.9375,-19.3126
14:21:24.829,0.8125,-20.1251
14:21:24.832,0.3125,-21.3126
14:21:24.863,0.625,-20.3751
14:21:24.864,0.3125,-22.3751
14:21:24.867,-0.1875,-21.8126
14:21:24.872,0.75,-22.3126
14:21:24.899,0.4375,-23.8126
14:21:24.902,-0.5,-23.0001
14:21:24.904,-0.1875,-23.8751
14:21:24.929,-0.3125,-24.7501
14:21:24.930,-0.5,-24.3751
14:21:24.932,-0.125,-24.9376
14:21:24.939,0.1875,-25.6876
14:21:24.949,-0.5,-23.8126
14:21:24.959,0.125,-24.7501
14:21:24.969,-0.3125,-25.0626
14:21:24.979,-0.4375,-26.2501
14:21:24.989,-0.5,-24.6876
14:21:24.999,-0.125,-25.8126
14:21:25.009,-0.75,-23.7501
14:21:25.022,0.4375,-25.6251
14:21:25.030,-0.0625,-26.0626
14:21:25.039,-0.375,-24.6876
14:21:25.049,-0.0625,-24.4376
14:21:25.060,-0.125,-24.8751
14:21:25.069,-0.0625,-24.3126
14:21:25.079,-0.0625,-25.3751
14:21:25.089,-0.3125,-25.8126
14:21:25.099,-0.9375,-25.4376
14:21:25.109,-1.5,-26.3126
14:21:25.119,-1.25,-23.8751
14:21:25.130,-0.0625,-18.8751
14:21:25.140,2.625,-9
14:21:25.149,5.6875,2.9375
14:21:25.159,9.1875,13
14:21:25.169,12.125,24.2501
14:21:25.179,13.5001,29.5001
14:21:25.189,14.8751,33.9376
14:21:25.199,15.0626,36.4376
14:21:25.210,15.5001,37.1251
14:21:25.219,15.5001,35.5001
14:21:25.229,15.0626,33.7501
14:21:25.239,14.6876,31.8126
14:21:25.250,13.5626,28.1876
14:21:25.259,14.1251,26.7501
14:21:25.268,12.5625,23.6876
14:21:25.279,11.875,21.4376
14:21:25.289,12.125,19.4376
14:21:25.298,10.625,16.3751
14:21:25.310,10.4375,14.6876
14:21:25.320,9.5,13.3751
14:21:25.328,10.5,10.375
14:21:25.338,9.125,8.25
14:21:25.349,7.5,7
14:21:25.361,8.0625,5.125
14:21:25.369,7.375,3.3125
14:21:25.379,6.6875,2.25
14:21:25.389,6.75,2.6875
14:21:25.404,6.5,1.25
14:21:25.410,6.1875,0.75
14:21:25.420,6.4375,2.1875
14:21:25.429,7.875,2.1875
14:21:25.468,6.875,3.3125
14:21:25.469,6.5,4.125
14:21:25.537,6.9375,3.5
14:21:25.603,6.8125,3.8125
14:21:25.605,6.625,4.125
14:21:25.607,7.5625,3.625
14:21:25.607,6.25,2.25
14:21:25.607,5.75,1.3125
14:21:25.608,5.125,0.875
14:21:25.611,6.0625,-1.1875
14:21:25.622,5.0625,-3.125
14:21:25.626,4.0625,-4.6875
14:21:25.626,3.5625,-5.25
14:21:25.626,3.5,-6.875
14:21:25.633,3.5625,-9.0625
14:21:25.645,4.125,-10.625
14:21:25.653,2.3125,-12.4375
14:21:25.664,2.375,-13.7501
14:21:25.676,2.1875,-14.1251
14:21:25.684,1.9375,-14.5001
14:21:25.693,2.0625,-16.1876
14:21:25.704,1.9375,-17.4376
14:21:25.713,0.9375,-18.1876
14:21:25.724,0.8125,-19.3126
14:21:25.735,0,-25.6876
14:21:25.743,-0.0625,-25.1251
14:21:25.754,0,-24.1251
14:21:25.763,1,-24.7501
14:21:25.778,1,-25.1876
14:21:25.785,0.8125,-24.6876
14:21:25.793,1,-25.3751
14:21:25.803,0.125,-24.0001
14:21:25.814,0.875,-25.0626
14:21:25.823,1.125,-25.6251
14:21:25.834,0.8125,-24.9376
14:21:25.844,1.4375,-25.2501
14:21:25.854,0,-25.0001
14:21:25.863,0.25,-24.6251
14:21:25.874,1.375,-25.0001
14:21:25.883,0.3125,-23.9376
14:21:25.893,1.0625,-24.4376
14:21:25.904,0.125,-25.4376
14:21:25.913,-0.25,-25.5001
14:21:25.925,0.625,-25.8126
14:21:25.933,-0.5,-25.5001
14:21:25.943,-0.9375,-22.0626
14:21:25.954,0.9375,-16.0626
14:21:25.963,3.875,-6.5
14:21:25.974,7.75,5.6875
14:21:25.984,10.6875,15.6876
14:21:25.993,12.1875,24.4376
14:21:26.003,13.6876,29.5626
14:21:26.013,15.3126,31.4376
14:21:26.023,15.6251,32.6876
14:21:26.033,15.3126,33.1876
14:21:26.043,14.6251,30.2501
14:21:26.054,13.5626,29.5626
14:21:26.063,12.9375,26.9376
14:21:26.073,13.1876,23.0626
14:21:26.106,11.8125,22.1876
14:21:26.108,11.6875,17.6876
14:21:26.109,9.9375,15.5626
14:21:26.114,10.25,13.5626
14:21:26.123,9.875,10.8125
14:21:26.133,8.8125,9.9375
14:21:26.143,9.4375,7
14:21:26.154,7.3125,4.1875
14:21:26.163,7.4375,2.125
14:21:26.173,7.1875,1.8125
14:21:26.199,7.0625,-0.9375
14:21:26.202,5.8125,-2.5625
14:21:26.205,5.0625,-2.125
14:21:26.229,6.0625,-2.8125
14:21:26.232,6,-3.1875
14:21:26.234,5.75,-2.4375
14:21:26.243,6.25,-2
14:21:26.276,5.625,-1.4375
14:21:26.278,6.25,-0.6875
14:21:26.281,6.6875,0.1875
14:21:26.305,6.75,0.75
14:21:26.306,6.25,0.5
14:21:26.307,6.125,0.5625
14:21:26.315,6.0625,-0.1875
14:21:26.347,5.5625,-0.125
14:21:26.347,5.375,-1.8125
14:21:26.349,4.75,-2.25
14:21:26.365,4.25,-3.6875
14:21:26.366,4.3125,-6.3125
14:21:26.373,4.5625,-6.3125
14:21:26.383,4.0625,-8.625
14:21:26.393,3.1875,-10.375
14:21:26.405,1.375,-11.9375
14:21:26.413,1.875,-13.5001
14:21:26.423,2.4375,-15.0001
14:21:26.434,2.1875,-15.6251
14:21:26.444,1.5625,-15.9376
14:21:26.453,1.375,-17.9376
14:21:26.468,1.625,-19.3751
14:21:26.478,1.25,-18.7501
14:21:26.488,1.5625,-20.5626
14:21:26.498,1.375,-20.1251
14:21:26.508,1.6875,-20.6251
14:21:26.518,1.4375,-20.8126
14:21:26.528,2.125,-21.2501
14:21:26.538,1.0625,-21.7501
14:21:26.548,0.625,-21.8126
14:21:26.559,1,-22.6251
14:21:26.568,0.6875,-22.6876
14:21:26.578,1,-22.5001
14:21:26.588,0.75,-23.6876
14:21:26.598,0.9375,-22.1876
14:21:26.609,1.5,-22.5626
14:21:26.619,0.75,-22.1251
14:21:26.628,0.9375,-23.0001
14:21:26.638,1.375,-23.0001
14:21:26.648,0.5625,-24.6876
14:21:26.658,0.625,-23.3126
14:21:26.669,1.1875,-23.5626
14:21:26.678,0.8125,-23.3751
14:21:26.688,1.1875,-23.1251
14:21:26.698,0.375,-24.5001
14:21:26.708,-0.8125,-23.6251
14:21:26.718,0.375,-23.8126
14:21:26.728,-0.375,-23.7501
14:21:26.738,1.1875,-17.7501
14:21:26.748,2.6875,-8.5625
14:21:26.758,6.125,2.625
14:21:26.768,9.0625,12.125
14:21:26.785,11.625,21.8126
14:21:26.800,13.1876,28.3751
14:21:26.800,14.2501,31.0626
14:21:26.810,14.4376,33.8126
14:21:26.818,14.5626,32.4376
14:21:26.828,14.2501,30.9376
14:21:26.847,14.0626,29.1876
14:21:26.849,12.875,26.6251
14:21:26.864,12.25,24.3751
14:21:26.873,12.375,21.6251
14:21:26.878,10.9375,19.1876
14:21:26.888,11,16.7501
14:21:26.903,9.8125,14.7501
14:21:26.909,9.75,11.8125
14:21:26.918,8.625,10.25
14:21:26.928,8.625,7.75
14:21:26.939,7.75,5.375
14:21:26.949,7.3125,3.0625
14:21:26.975,7.0625,1.4375
14:21:26.979,6.5625,0.4375
14:21:26.980,6.3125,-0.125
14:21:26.994,6.0625,-0.875
14:21:27.000,5.6875,-1.5
14:21:27.028,5.4375,-1.875
14:21:27.031,6.25,-0.6875
14:21:27.033,6.4375,0.9375
14:21:27.040,6.8125,1.3125
14:21:27.064,6.375,1.125
14:21:27.067,6.5625,3
14:21:27.070,7.25,3.0625
14:21:27.094,7.1875,2.375
14:21:27.104,6.625,3.4375
14:21:27.106,6.375,2.5625
14:21:27.114,6.4375,1.625
14:21:27.119,6.5,1.8125
14:21:27.143,6.0625,1.125
14:21:27.146,6.0625,0.1875
14:21:27.149,6.375,-2.25
14:21:27.159,5.5,-4.0625
14:21:27.171,4.625,-5.6875
14:21:27.179,4.9375,-6.75
14:21:27.188,4.5625,-8.5625
14:21:27.198,3.1875,-11.125
14:21:27.208,2.9375,-12.375
14:21:27.218,2.0625,-12.9375
14:21:27.228,1.875,-13.7501
14:21:27.239,2.375,-15.0626
14:21:27.248,1.9375,-16.6251
14:21:27.258,1.4375,-17.6876
14:21:27.268,1.4375,-17.6876
14:21:27.278,1.5625,-19.0626
14:21:27.288,0.8125,-20.4376
14:21:27.298,0.8125,-21.5001
14:21:27.308,0.75,-21.9376
14:21:27.318,0.5,-21.5626
14:21:27.328,0.5625,-23.1876
14:21:27.338,0.25,-22.9376
14:21:27.348,0.1875,-23.1876
14:21:27.359,0.625,-23.9376
14:21:27.386,0.0625,-23.4376
14:21:27.389,0.8125,-23.3126
14:21:27.390,1,-24.0626
14:21:27.402,0.4375,-23.3751
14:21:27.409,0.125,-22.5626
14:21:27.418,0.375,-24.5001
14:21:27.433,0.4375,-25.0001
14:21:27.443,0.1875,-24.0626
14:21:27.453,0.25,-25.0001
14:21:27.463,-0.125,-24.6251
14:21:27.473,-0.1875,-23.3751
14:21:27.483,0.6875,-24.5626
14:21:27.493,-0.3125,-23.6251
14:21:27.503,-0.125,-24.6251
14:21:27.513,-0.4375,-23.7501
14:21:27.523,0,-18.6251
14:21:27.533,3.0625,-10.4375
14:21:27.543,6.875,0.9375
14:21:27.553,9.375,12.25
14:21:27.564,12.375,22.4376
14:21:27.573,14.7501,28.6251
14:21:27.583,15.5626,31.9376
14:21:27.593,15.8126,34.1876
14:21:27.619,15.7501,34.5626
14:21:27.622,16.0626,33.0001
14:21:27.624,14.7501,30.8751
14:21:27.658,14.1251,28.5001
14:21:27.659,13.9376,25.0001
14:21:27.661,12.875,22.6251
14:21:27.665,12.1875,20.1876
14:21:27.697,11.9375,18.1876
14:21:27.700,11.5625,15.5626
14:21:27.702,10.5,12.75
14:21:27.707,9.875,10.625
14:21:27.723,8.875,9
14:21:27.725,8.5,7.75
14:21:27.762,9,5.3125
14:21:27.763,7.5625,3.0625
14:21:27.770,7.75,1.9375
14:21:27.775,6.8125,1.375
14:21:27.776,7,1.9375
14:21:27.783,7.25,1.3125
14:21:27.797,6.5,0.125
14:21:27.803,7,0.8125
14:21:27.813,6.9375,3.3125
14:21:27.824,7.4375,4.4375
14:21:27.835,7.625,4.375
14:21:27.843,7.3125,4.3125
14:21:27.853,7,6.5
14:21:27.863,7.5625,5.5
14:21:27.873,7.5,4.6875
14:21:27.883,6.9375,4.5
14:21:27.893,7.6875,3.125
14:21:27.903,6.6875,1.4375
14:21:27.914,6,-0.0625
14:21:27.923,5.5,-1.5625
14:21:27.933,5.3125,-3
14:21:27.943,5.1875,-3.375
14:21:27.953,5.4375,-5.375
14:21:27.963,4.5625,-7.375
14:21:27.973,3.9375,-8.8125
14:21:27.983,3.375,-9.875
14:21:27.993,3.0625,-11
14:21:28.003,2.875,-13.1251
14:21:28.013,2.375,-14.2501
14:21:28.023,2.1875,-14.9376
14:21:28.033,2,-16.7501
14:21:28.043,1.5625,-18.0626
14:21:28.053,1.5625,-17.9376
14:21:28.063,1.9375,-19.0626
14:21:28.085,1.4375,-20.6876
14:21:28.087,1,-21.1251
14:21:28.102,1.5,-21.6876
14:21:28.105,0.375,-22.6876
14:21:28.113,0.125,-22.9376
14:21:28.123,0.25,-23.6876
14:21:28.133,0.0625,-23.6876
14:21:28.149,0.5625,-23.5626
14:21:28.153,0.8125,-24.1876
14:21:28.169,0,-25.0626
14:21:28.179,-0.5,-24.0001
14:21:28.183,0.0625,-25.0626
14:21:28.193,0,-25.8751
14:21:28.203,0.1875,-24.1876
14:21:28.214,0.6875,-25.1876
14:21:28.223,-0.0625,-26.1251
14:21:28.233,-0.6875,-24.6876
14:21:28.243,0.125,-25.5626
14:21:28.253,0.6875,-26.1876
14:21:28.263,-0.375,-26.1251
14:21:28.273,0.0625,-26.2501
14:21:28.283,-0.3125,-26.1876
14:21:28.293,-1.1875,-24.7501
14:21:28.303,-0.5625,-24.5626
14:21:28.313,0.9375,-20.0001
14:21:28.323,3.0625,-10.9375
14:21:28.333,5.75,0.25
14:21:28.343,9.375,12.125
14:21:28.353,12.5,21.5001
14:21:28.363,13.6251,27.6876
14:21:28.373,14.3751,32.0001
14:21:28.384,15.2501,32.8751
14:21:28.393,15.5626,33.0001
14:21:28.403,15.3126,31.1876
14:21:28.413,14.1251,29.0001
14:21:28.432,13.7501,26.8126
14:21:28.436,12.875,24.1251
14:21:28.443,12,21.6876
14:21:28.471,11.75,18.5626
14:21:28.475,11.6875,16.9376
14:21:28.475,10.875,14.5001
14:21:28.483,9.875,12.25
14:21:28.514,9.1875,11.125
14:21:28.517,9.6875,8.625
14:21:28.519,8.5,6.3125
14:21:28.547,7.4375,4.625
14:21:28.548,6.9375,3.9375
14:21:28.551,7.5,1.25
14:21:28.555,6.4375,0.625
14:21:28.572,6.8125,0.4375
14:21:28.574,6.6875,-0.1875
14:21:28.606,6.625,0.0625
14:21:28.607,5.6875,1
14:21:28.610,6.75,1.25
14:21:28.614,6.75,1.4375
14:21:28.627,7,4.25
14:21:28.635,7.875,3.8125
14:21:28.664,7.3125,4.0625
14:21:28.667,7.375,5.125
14:21:28.671,7.25,4.125
14:21:28.674,6.875,2.6875
14:21:28.683,6.5,2.75
14:21:28.694,7.25,2.125
14:21:28.703,6.3125,0.5625
14:21:28.712,6.0625,-0.3125
14:21:28.725,5.5,-1.4375
14:21:28.733,5.75,-3.375
14:21:28.743,4.875,-5.5625
14:21:28.753,4.5625,-5.875
14:21:28.763,3.75,-7.5
14:21:28.773,4.3125,-9.5
14:21:28.783,3.5,-11.6875
14:21:28.793,2.5,-12.375
14:21:28.805,3.375,-14.1251
14:21:28.813,2.6875,-15.4376
14:21:28.823,1.875,-16.3126
14:21:28.832,1.9375,-16.1876
14:21:28.845,2.0625,-18.6876
14:21:28.853,1.8125,-19.8751
14:21:28.863,1.3125,-19.5001
14:21:28.873,1.25,-20.8751
14:21:28.883,1.125,-21.6876
14:21:28.894,0.3125,-22.3751
14:21:28.903,0.5625,-22.8126
14:21:28.911,0.875,-22.0001
14:21:28.923,1,-23.9376
14:21:28.933,0.3125,-24.8126
14:21:28.943,0.75,-24.1251
14:21:28.954,0.75,-25.6251
14:21:28.962,0.25,-24.8126
14:21:28.973,1,-24.8126
14:21:28.983,0.6875,-24.9376
14:21:28.993,0.6875,-24.8126
14:21:29.003,0.75,-26.0626
14:21:29.011,0,-25.2501
14:21:29.023,0.6875,-25.2501
14:21:29.033,0.375,-26.3126
14:21:29.042,0.75,-25.0001
14:21:29.053,1.0625,-25.9376
14:21:29.063,-0.0625,-26.6876
14:21:29.074,0.875,-25.6876
14:21:29.083,-0.25,-26.2501
14:21:29.093,-1.1875,-25.6251
14:21:29.103,0,-25.5626
14:21:29.112,-0.125,-21.1251
14:21:29.123,2.5,-13.2501
14:21:29.159,5.6875,-2.6875
14:21:29.164,8.4375,9.6875
14:21:29.165,11.5,19.1876
14:21:29.189,13.2501,26.3126
14:21:29.190,14.6251,30.2501
14:21:29.193,15.1251,31.8126
14:21:29.198,14.4376,32.1876
14:21:29.203,15.4376,31.1251
14:21:29.238,14.1251,28.6876
14:21:29.239,13.6251,26.6876
14:21:29.242,12.75,23.7501
14:21:29.244,12.75,20.7501
14:21:29.278,11.5,17.8126
14:21:29.279,10.5625,15.8126
14:21:29.282,10.875,14.3126
14:21:29.289,9.875,12.0625
14:21:29.295,10.3125,10.0625
14:21:29.317,9.375,8.1875
14:21:29.319,8,7.25
14:21:29.323,8.3125,4.375
14:21:29.332,7.875,2.8125
14:21:29.341,7,1.125
14:21:29.354,6.625,1.25
14:21:29.362,6.625,-0.875
14:21:29.381,5.875,-1.625
14:21:29.386,6.5625,-0.375
14:21:29.402,6.6875,-0.375
14:21:29.404,6.5625,0.0625
14:21:29.413,6.5,2.5625
14:21:29.422,6.6875,1.875
14:21:29.432,7.1875,2.0625
14:21:29.448,7.4375,3.4375
14:21:29.462,8.125,4.125
14:21:29.465,7.5625,4.125
14:21:29.472,8.0625,4.5
14:21:29.483,8,3.8125
14:21:29.492,7.4375,2.25
14:21:29.502,7.25,2.1875
14:21:29.512,6.5,1.25
14:21:29.523,6.8125,-1
14:21:29.532,5.875,-2.625
14:21:29.541,5.8125,-3.875
14:21:29.553,5.4375,-5.9375
14:21:29.562,4.5625,-7
14:21:29.573,4.4375,-8.8125
14:21:29.582,4.1875,-10.5625
14:21:29.592,3.25,-12.1875
14:21:29.603,2.6875,-13.4376
14:21:29.612,2.375,-14.2501
14:21:29.623,2.75,-16.0001
14:21:29.632,2.875,-17.5001
14:21:29.641,2.375,-17.8751
14:21:29.652,2.9375,-19.2501
14:21:29.663,1.5625,-21.0001
14:21:29.673,0.8125,-21.8751
14:21:29.681,1.5625,-21.0001
14:21:29.692,1.25,-22.5626
14:21:29.702,0.4375,-23.3751
14:21:29.712,0.3125,-23.1876
14:21:29.722,0.625,-24.1251
14:21:29.731,0.125,-23.6251
14:21:29.742,0.4375,-24.8751
14:21:29.758,-0.25,-24.9376
14:21:29.763,-0.4375,-25.5001
14:21:29.772,-0.5625,-26.3126
14:21:29.783,0.0625,-24.9376
14:21:29.792,0.125,-26.3751
14:21:29.801,0.0625,-25.9376
14:21:29.813,0.8125,-26.2501
14:21:29.822,-0.125,-26.3126
14:21:29.832,-0.625,-25.6876
14:21:29.843,0.625,-26.8126
14:21:29.851,-0.25,-26.1876
14:21:29.861,-0.125,-25.6251
14:21:29.873,-0.375,-26.3751
14:21:29.899,-0.25,-25.3751
14:21:29.902,1,-26.5001
14:21:29.904,0.5,-26.6876
14:21:29.912,0.4375,-25.5626
14:21:29.951,0.4375,-25.9376
14:21:29.955,-0.3125,-26.4376
14:21:29.955,-0.6875,-25.2501
14:21:29.962,0.25,-26.3126
14:21:29.963,-0.875,-25.8126
14:21:29.995,-0.25,-17.9376
14:21:29.998,3.6875,-8.75
14:21:30.000,7,3.8125
14:21:30.003,10.0625,14.3751
14:21:30.037,12.1875,25.1876
14:21:30.037,14.5626,30.8126
14:21:30.040,15.4376,33.5001
14:21:30.043,15.9376,35.8126
14:21:30.055,16.0626,34.8751
14:21:30.061,15.2501,33.1251
14:21:30.073,14.1251,31.5001
14:21:30.083,14.5626,28.8126
14:21:30.091,13.3751,26.3126
14:21:30.102,13.1876,23.8751
14:21:30.113,12.75,20.5626
14:21:30.121,11.625,20.0001
14:21:30.132,11.625,17.0001
14:21:30.142,11,15.0001
14:21:30.152,9.75,13.5001
14:21:30.162,9.125,11.9375
14:21:30.172,9.3125,9.625
14:21:30.182,8.8125,7.3125
14:21:30.191,8.6875,6.0625
14:21:30.203,8.25,4.75
14:21:30.212,8.375,4.0625
14:21:30.223,7.875,3.8125
14:21:30.231,7.8125,3.8125
14:21:30.241,7.6875,3.125
14:21:30.252,7.625,4.0625
14:21:30.262,7.9375,4.6875
14:21:30.271,8.5,6.0625
14:21:30.281,8.875,6.5625
14:21:30.293,8.4375,5.875
14:21:30.301,8.625,7.5625
14:21:30.312,9.625,7.5
14:21:30.322,8.8125,6.9375
14:21:30.332,8.6875,6.9375
14:21:30.342,8.375,6.5625
14:21:30.352,8.125,5
14:21:30.362,8.125,5.125
14:21:30.372,8.625,3.6875
14:21:30.383,7.5625,1.3125
14:21:30.392,6.8125,1.1875
14:21:30.401,6.4375,-0.375
14:21:30.412,6.625,-3
14:21:30.421,5.6875,-4.875
14:21:30.432,4.5625,-5.5625
14:21:30.442,4.625,-7.75
14:21:30.452,4.1875,-10.5
14:21:30.462,3.5625,-12.375
14:21:30.473,2.625,-12.4375
14:21:30.481,2.625,-14.7501
14:21:30.492,1.875,-16.6876
14:21:30.508,1.3125,-19.0626
14:21:30.515,0.625,-19.3126
14:21:30.522,0.1875,-20.4376
14:21:30.533,0.75,-21.7501
14:21:30.543,0.125,-22.1876
14:21:30.552,0.8125,-23.4376
14:21:30.563,-0.3125,-23.0626
14:21:30.572,-1,-23.8751
14:21:30.581,0.125,-24.6251
14:21:30.598,-0.8125,-25.6251
14:21:30.603,-1.125,-25.8126
14:21:30.617,-1,-26.6876
14:21:30.623,-0.875,-25.8126
14:21:30.654,-0.875,-26.0626
14:21:30.656,-1.0625,-26.7501
14:21:30.658,-0.3125,-25.7501
14:21:30.663,-0.625,-26.5626
14:21:30.725,-0.9375,-25.6876
14:21:30.727,0.3125,-25.3126
14:21:30.727,0.1875,-25.8126
14:21:30.762,0.0625,-25.7501
14:21:30.762,0.875,-25.2501
14:21:30.762,0.3125,-25.3126
14:21:30.763,0.6875,-24.1251
14:21:30.766,0.25,-25.6251
14:21:30.778,0.0625,-24.3751
14:21:30.778,0.875,-25.3126
14:21:30.781,0.6875,-25.3751
14:21:30.794,0.0625,-24.1251
14:21:30.802,0.75,-25.0626
14:21:30.811,0.5625,-25.0001
14:21:30.821,-0.4375,-24.9376
14:21:30.833,-0.75,-24.4376
14:21:30.843,-0.6875,-20.9376
14:21:30.852,1.375,-14.1876
14:21:30.862,5.375,-3.5
14:21:30.873,8.3125,8.4375
14:21:30.883,11.3125,18.6876
14:21:30.892,13.7501,25.6251
14:21:30.902,16.0001,32.7501
14:21:30.912,15.2501,33.6251
14:21:30.923,15.3751,32.9376
14:21:30.932,14.5001,29.8751
14:21:30.941,13.1876,29.7501
14:21:30.952,13.1876,24.8751
14:21:30.961,11.875,22.3126
14:21:30.972,11.375,20.6251
14:21:30.982,10.875,17.8126
14:21:30.992,10.3125,15.5001
14:21:31.002,10.6875,12.9375
14:21:31.013,9.1875,9.9375
14:21:31.022,8.5625,9.875
14:21:31.032,8.75,6.5625
14:21:31.042,8.25,4.3125
14:21:31.052,7.3125,2.875
14:21:31.062,7.5625,2
14:21:31.072,6.875,0.125
14:21:31.082,6.6875,-0.875
14:21:31.092,5.6875,-0.6875
14:21:31.103,6.25,-0.9375
14:21:31.112,6.125,-0.6875
14:21:31.121,6.875,-0.125
14:21:31.132,6.5,0.4375
14:21:31.141,6.4375,2.25
14:21:31.151,7.8125,1.9375
14:21:31.162,7.3125,2.5
14:21:31.172,7.125,5
14:21:31.181,7.625,4.3125
14:21:31.193,7.5625,3.8125
14:21:31.224,7.4375,2.8125
14:21:31.227,6.5625,1.9375
14:21:31.231,6.375,2
14:21:31.232,6.0625,1.0625
14:21:31.241,5.375,-1.5
14:21:31.258,5.0625,-3.25
14:21:31.262,4.3125,-3.125
14:21:31.272,4.75,-5.625
14:21:31.283,4.4375,-5.4375
14:21:31.293,4.375,-8.8125
14:21:31.317,3.375,-9.3125
14:21:31.319,3.375,-11.0625
14:21:31.322,3.625,-12.5
14:21:31.332,3.625,-13.4376
14:21:31.365,3.1875,-15.4376
14:21:31.368,2.75,-16.6251
14:21:31.371,1.8125,-15.9376
14:21:31.376,2.625,-16.8751
14:21:31.393,3.0625,-18.5626
14:21:31.395,2.0625,-19.8126
14:21:31.427,1.625,-18.6876
14:21:31.430,1.9375,-19.4376
14:21:31.430,1.9375,-20.8126
14:21:31.436,1.4375,-21.4376
14:21:31.454,1.5,-20.8126
14:21:31.457,1.75,-22.3126
14:21:31.467,0.9375,-21.1251
14:21:31.477,1.5,-22.0626
14:21:31.487,1.875,-22.7501
14:21:31.497,2.0625,-22.8751
14:21:31.507,2.0625,-22.3751
14:21:31.517,1.5625,-21.4376
14:21:31.527,1.75,-20.6251
14:21:31.536,1.9375,-21.8751
14:21:31.547,1.75,-23.3126
14:21:31.556,2.5625,-22.1251
14:21:31.567,2.1875,-22.5001
14:21:31.576,1.375,-21.5001
14:21:31.586,2.0625,-21.3126
14:21:31.597,1.6875,-22.8126
14:21:31.606,2.125,-22.5001
14:21:31.617,1.875,-22.2501
14:21:31.633,2.3125,-21.4376
14:21:31.636,2,-23.0001
14:21:31.647,1.625,-22.1251
14:21:31.657,0.9375,-22.7501
14:21:31.666,0.9375,-22.0001
14:21:31.677,0.4375,-21.7501
14:21:31.686,1.25,-17.5001
14:21:31.697,4.1875,-10.6875
14:21:31.708,6.25,0.375
14:21:31.717,9.125,12
14:21:31.727,12.3125,21.0626
14:21:31.737,13.6251,26.0001
14:21:31.747,14.2501,30.1876
14:21:31.757,14.0001,31.1251
14:21:31.767,14.1876,31.5001
14:21:31.776,14.4376,29.6251
14:21:31.787,13.1876,28.6251
14:21:31.797,13.4376,26.0001
14:21:31.806,12.4375,22.6876
14:21:31.817,11.3125,19.9376
14:21:31.827,11.5,17.4376
14:21:31.838,10.8125,14.0626
14:21:31.846,9.9375,12.0625
14:21:31.857,9.375,9.1875
14:21:31.866,7.8125,6.375
14:21:31.877,7.8125,4.6875
14:21:31.888,7.1875,1.375
14:21:31.896,7,-0.8125
14:21:31.908,6.5625,-1.875
14:21:31.916,6.125,-4.375
14:21:31.927,5.25,-4
14:21:31.937,5.75,-4.625
14:21:31.946,5.5625,-6.3125
14:21:31.957,4.9375,-5.625
14:21:31.967,4.875,-3.4375
14:21:31.981,5.4375,-4
14:21:32.014,5.5,-3.125
14:21:32.017,5.6875,-1.5
14:21:32.041,6.875,0
14:21:32.042,6.5625,0.6875
14:21:32.078,6.375,1.5625
14:21:32.081,6.8125,2.6875
14:21:32.083,7.125,1.375
14:21:32.084,6.8125,0.875
14:21:32.084,6.375,2
14:21:32.113,7,0.75
14:21:32.116,6.625,0.375
14:21:32.118,6.6875,-1.1875
14:21:32.122,6.5,-2.25
14:21:32.149,7.625,-1.5625
14:21:32.152,9,-2.4375
14:21:32.154,9.75,-2.5
14:21:32.163,11.9375,0.5625
14:21:32.175,13.3751,2.1875
14:21:32.183,14.7501,2.8125
14:21:32.190,15.3751,4.375
14:21:32.201,14.1876,3.875
14:21:32.211,12.0625,1.4375
14:21:32.220,10.625,0.875
14:21:32.230,9.4375,0
14:21:32.241,8.5,-1.5625
14:21:32.251,4.125,-5.0625
14:21:32.260,0.3125,-8.625
14:21:32.273,-1.5,-10.9375
14:21:32.280,-3.5,-13.8751
14:21:32.293,-5.75,-15.0626
14:21:32.301,-6.25,-16.2501
14:21:32.312,-8.125,-17.3126
14:21:32.320,-8.375,-18.7501
14:21:32.331,-9.5,-20.3751
14:21:32.340,-12.5625,-21.4376
14:21:32.353,-13,-24.1251
14:21:32.363,-15.1876,-26.5626
14:21:32.372,-16.6251,-26.1876
14:21:32.380,-17.4376,-28.2501
14:21:32.392,-18.6251,-29.8126
14:21:32.400,-20.8751,-32.5001
14:21:32.411,-24.2501,-34.1876
14:21:32.420,-27.6876,-38.5001
14:21:32.431,-32.1251,-43.7502
14:21:32.441,-35.8126,-48.5627
14:21:32.453,-40.4377,-53.4377
14:21:32.461,-43.6877,-57.9377
14:21:32.470,-47.5002,-61.2502
14:21:32.505,-50.1877,-65.3127
14:21:32.507,-54.5627,-70.5003
14:21:32.512,-57.8752,-74.2503
14:21:32.512,-61.5002,-77.8753
14:21:32.524,-63.5627,-79.6878
14:21:32.530,-63.3127,-78.0003
14:21:32.542,-61.5002,-73.8753
14:21:32.552,-60.6252,-69.2503
14:21:32.561,-59.6252,-66.0003
14:21:32.572,-58.4377,-62.7502
14:21:32.580,-56.5002,-60.5627
14:21:32.592,-54.8127,-58.8752
14:21:32.601,-51.6877,-56.3752
14:21:32.612,-50.3752,-55.1252
14:21:32.620,-49.0627,-52.8127
14:21:32.633,-47.1252,-53.0002
14:21:32.642,-46.2502,-52.1252
14:21:32.652,-45.1877,-52.1877
14:21:32.662,-45.0002,-51.0627
14:21:32.670,-44.1252,-51.0002
14:21:32.682,-43.1252,-50.1252
14:21:32.690,-41.8752,-49.6877
14:21:32.701,-41.2502,-48.3127
14:21:32.711,-40.1877,-48.1877
14:21:32.723,-39.1876,-46.3752
14:21:32.730,-38.0626,-45.6877
14:21:32.766,-37.0001,-45.7502
14:21:32.769,-34.5626,-42.9377
14:21:32.770,-34.3751,-43.3752
14:21:32.772,-32.9376,-40.7502
14:21:32.805,-31.8751,-40.8127
14:21:32.808,-31.3751,-38.6251
14:21:32.810,-30.1876,-39.1876
14:21:32.817,-29.9376,-38.0626
14:21:32.821,-28.2501,-37.5626
14:21:32.848,-28.2501,-36.3751
14:21:32.851,-27.7501,-36.2501
14:21:32.853,-27.0626,-36.6251
14:21:32.885,-27.6876,-34.8126
14:21:32.888,-27.8126,-36.5001
14:21:32.891,-28.6251,-36.5626
14:21:32.893,-28.4376,-38.0001
14:21:32.911,-28.8126,-37.6251
14:21:32.914,-28.5626,-37.9376
14:21:32.928,-28.1251,-37.1876
14:21:32.930,-26.8126,-36.6251
14:21:32.941,-25.5001,-34.6876
14:21:32.950,-25.0001,-35.3751
14:21:32.962,-25.5626,-34.0001
14:21:32.970,-25.1251,-34.6876
14:21:32.980,-25.6876,-34.5001
14:21:32.993,-25.0626,-36.1251
14:21:33.001,-25.7501,-36.5626
14:21:33.010,-25.5626,-36.3751
14:21:33.020,-25.0626,-36.9376
14:21:33.031,-24.2501,-35.3126
14:21:33.041,-23.5626,-35.6876
14:21:33.050,-23.6251,-34.4376
14:21:33.062,-23.1876,-34.4376
14:21:33.070,-23.2501,-34.7501
14:21:33.080,-23.4376,-34.0001
14:21:33.090,-22.7501,-34.9376
14:21:33.102,-22.7501,-33.6876
14:21:33.110,-23.2501,-33.9376
14:21:33.120,-22.3126,-33.6876
14:21:33.130,-21.6251,-34.0626
14:21:33.141,-21.1251,-33.3126
14:21:33.150,-21.4376,-32.5001
14:21:33.162,-20.8126,-32.8126
14:21:33.170,-19.5001,-30.5001
14:21:33.181,-19.6251,-31.3751
14:21:33.191,-18.8126,-30.8751
14:21:33.200,-18.0626,-30.0626
14:21:33.210,-18.5001,-29.3126
14:21:33.220,-17.4376,-29.3751
14:21:33.230,-17.5001,-29.3751
14:21:33.241,-17.8751,-29.9376
14:21:33.250,-19.5626,-31.1251
14:21:33.260,-21.1876,-32.5001
14:21:33.278,-21.3751,-32.5626
14:21:33.284,-21.5626,-33.5001
14:21:33.303,-22.1876,-35.0001
14:21:33.306,-22.3751,-34.1251
14:21:33.312,-22.6876,-31.8126
14:21:33.321,-21.5001,-28.3751
14:21:33.335,-21.0626,-24.3751
14:21:33.350,-19.6251,-22.3126
14:21:33.354,-21.3751,-21.5001
14:21:33.360,-21.8126,-23.0626
14:21:33.370,-23.0001,-23.5001
14:21:33.381,-22.1876,-24.6251
14:21:33.390,-22.7501,-26.0626
14:21:33.400,-21.9376,-27.1876
14:21:33.410,-22.9376,-27.4376
14:21:33.420,-22.0001,-28.2501
14:21:33.430,-21.6876,-27.5626
14:21:33.441,-20.1876,-26.8126
14:21:33.451,-19.8751,-26.5001
14:21:33.460,-20.2501,-25.6876
14:21:33.470,-19.6876,-27.2501
14:21:33.480,-19.7501,-26.6876
14:21:33.491,-19.3126,-27.2501
14:21:33.509,-19.1876,-28.1251
14:21:33.513,-19.1251,-27.8126
14:21:33.520,-18.9376,-28.2501
14:21:33.551,-17.6876,-26.5626
14:21:33.553,-16.6876,-26.0626
14:21:33.556,-15.5626,-24.2501
14:21:33.563,-15.2501,-25.3126
14:21:33.599,-14.2501,-23.1876
14:21:33.601,-13.6251,-23.1251
14:21:33.604,-14.0001,-22.6251
14:21:33.608,-14.1251,-23.3751
14:21:33.614,-14.8751,-23.1251
14:21:33.644,-14.9376,-25.0001
14:21:33.647,-14.8751,-23.5001
14:21:33.649,-14.9376,-24.3751
14:21:33.652,-14.5626,-23.3126
14:21:33.683,-14.6251,-24.7501
14:21:33.685,-13.9376,-22.9376
14:21:33.687,-14.5001,-24.3751
14:21:33.694,-15.1876,-25.6876
14:21:33.703,-16.8126,-26.6876
14:21:33.713,-19.0001,-28.8126
14:21:33.720,-18.6251,-29.5001
14:21:33.731,-19.5626,-29.1876
14:21:33.740,-18.5001,-29.0626
14:21:33.750,-17.9376,-29.3126
14:21:33.760,-18.5626,-28.9376
14:21:33.786,-18.5001,-29.2501
14:21:33.788,-18.6876,-28.1876
14:21:33.792,-17.5001,-28.9376
14:21:33.801,-17.6876,-29.1876
14:21:33.811,-17.6251,-28.7501
14:21:33.820,-18.1876,-29.5626
14:21:33.830,-18.0001,-29.0626
14:21:33.840,-18.8751,-31.5626
14:21:33.850,-19.7501,-31.1876
14:21:33.861,-20.7501,-32.5001
14:21:33.870,-20.1876,-31.8751
14:21:33.880,-19.8126,-32.3126
14:21:33.890,-19.2501,-31.0001
14:21:33.900,-17.6251,-30.6876
14:21:33.911,-17.3751,-28.8751
14:21:33.921,-15.3751,-26.7501
14:21:33.930,-13.8751,-26.3126
14:21:33.940,-13.125,-26.6876
14:21:33.950,-12.5,-24.5001
14:21:33.960,-12.6875,-25.5626
14:21:33.971,-11.4375,-23.3751
14:21:33.980,-10.9375,-23.5626
14:21:33.990,-9.5,-22.1876
14:21:34.000,-10,-22.2501
14:21:34.010,-9.8125,-22.0626
14:21:34.021,-8.75,-21.7501
14:21:34.030,-8.3125,-20.1251
14:21:34.041,-6.6875,-19.7501
14:21:34.050,-5.9375,-16.7501
14:21:34.060,-3.6875,-12.875
14:21:34.070,-1,-4.9375
14:21:34.082,1.375,-0.125
14:21:34.090,3.8125,4.5625
14:21:34.101,4.3125,7.1875
14:21:34.110,4.375,7.1875
14:21:34.120,4.1875,7.1875
14:21:34.131,2.4375,5.875
14:21:34.140,2.5625,3.75
14:21:34.150,1.5625,2.375
14:21:34.160,1.5,0.6875
14:21:34.171,1.25,-1.0625
14:21:34.180,1.3125,-0.8125
14:21:34.190,1.8125,-2.625
14:21:34.201,2,-3.4375
14:21:34.210,2.4375,-2.5625
14:21:34.220,3.6875,-2.6875
14:21:34.230,5.9375,-0.1875
14:21:34.240,7.375,0.4375
14:21:34.250,9.6875,2.8125
14:21:34.260,12.1875,6.875
14:21:34.285,14.8751,8.1875
14:21:34.288,16.5001,8.625
14:21:34.290,17.4376,9.9375
14:21:34.322,18.0001,11.625
14:21:34.324,19.3126,11.1875
14:21:34.329,19.8751,11.875
14:21:34.331,20.8126,14.2501
14:21:34.366,22.1251,14.6251
14:21:34.369,22.3751,16.2501
14:21:34.371,23.2501,16.8751
14:21:34.377,23.6251,16.5626
14:21:34.384,23.4376,17.8751
14:21:34.410,23.7501,18.1876
14:21:34.413,24.5626,18.4376
14:21:34.415,24.6876,17.6251
14:21:34.422,24.5001,18.5626
14:21:34.446,25.5001,20.1251
14:21:34.449,26.2501,19.1876
14:21:34.453,25.8126,18.8126
14:21:34.465,25.6251,19.9376
14:21:34.470,26.1251,18.9376
14:21:34.480,26.0626,17.3751
14:21:34.491,25.6876,17.1251
14:21:34.501,25.1251,18.2501
14:21:34.510,25.0001,16.2501
14:21:34.520,24.2501,15.0001
14:21:34.530,23.1251,13.6251
14:21:34.541,22.2501,14.3751
14:21:34.551,22.0001,12.5
14:21:34.560,22.0001,11.375
14:21:34.580,22.0001,12.6875
14:21:34.587,21.6251,12.625
14:21:34.603,22.1251,13.0625
14:21:34.605,22.7501,12.375
14:21:34.620,21.8751,11.25
14:21:34.634,20.0626,11.875
14:21:34.638,19.5626,9.5625
14:21:34.652,17.9376,9.3125
14:21:34.667,17.6251,7.1875
14:21:34.669,17.0001,6
14:21:34.684,15.9376,4.375
14:21:34.699,15.1251,5.25
14:21:34.703,14.6251,5.0625
14:21:34.706,15.0001,3.25
14:21:34.711,13.6251,2.5625
14:21:34.720,12,1.125
14:21:34.730,11.625,1.25
14:21:34.740,11.9375,1.8125
14:21:34.750,11.4375,1.75
14:21:34.760,11.4375,1.3125
14:21:34.770,13.0625,1.125
14:21:34.780,12.6875,1.6875
14:21:34.790,13.0625,4.5625
14:21:34.800,14.6251,10.25
14:21:34.810,16.1876,17.1876
14:21:34.820,17.0001,24.2501
14:21:34.830,17.0626,29.3126
14:21:34.840,18.0626,31.9376
14:21:34.850,18.7501,32.6251
14:21:34.861,18.6251,32.3126
14:21:34.870,18.1251,31.5626
14:21:34.881,17.8126,32.6876
14:21:34.891,18.1876,30.9376
14:21:34.901,17.8751,28.9376
14:21:34.911,16.8126,25.9376
14:21:34.952,15.8751,24.3126
14:21:34.953,15.7501,22.9376
14:21:34.956,16.1251,20.9376
14:21:34.958,14.8751,18.6251
14:21:34.960,14.3751,16.6876
14:21:34.999,13.7501,16.4376
14:21:35.001,13.3126,15.7501
14:21:35.003,13.3126,12.75
14:21:35.011,12.75,11.5625
14:21:35.012,11.875,10.3125
14:21:35.020,10.875,10.6875
14:21:35.055,11.5625,9.0625
14:21:35.057,11.4375,7.3125
14:21:35.059,11.375,7.625
14:21:35.074,10.8125,7.1875
14:21:35.081,10.875,7.1875
14:21:35.081,10.6875,6.1875
14:21:35.099,10.4375,6.625
14:21:35.102,10.8125,8.875
14:21:35.110,12.1875,9.625
14:21:35.120,13.5001,9.875
14:21:35.130,13,10.125
14:21:35.140,13.3126,10.1875
14:21:35.150,13.5001,11.875
14:21:35.160,13.2501,11
14:21:35.171,12.6875,10.75
14:21:35.180,13.6251,10
14:21:35.192,13.0625,8.75
14:21:35.200,13.3126,8
14:21:35.215,13.6876,8.875
14:21:35.221,14.1251,9.3125
14:21:35.230,16.7501,9.625
14:21:35.240,18.3126,9.75
14:21:35.250,18.9376,11.125
14:21:35.260,19.8751,10.9375
14:21:35.270,19.1876,11.875
14:21:35.280,21.2501,11.5
14:21:35.290,21.3126,10.9375
14:21:35.300,21.1251,10.1875
14:21:35.310,21.3751,11.0625
14:21:35.320,21.5001,10.5625
14:21:35.330,21.1876,9.625
14:21:35.340,20.1876,9.3125
14:21:35.351,19.5626,9.5
14:21:35.361,19.2501,7.8125
14:21:35.370,19.0001,6.875
14:21:35.380,18.5001,6
14:21:35.390,17.6251,5.75
14:21:35.400,17.4376,5.8125
14:21:35.417,18.1876,4.3125
14:21:35.420,17.2501,3.875
14:21:35.430,17.1876,5.125
14:21:35.440,17.3126,4
14:21:35.450,17.2501,4.25
14:21:35.466,17.0626,4.1875
14:21:35.475,17.1876,4.125
14:21:35.485,16.3751,2.875
14:21:35.495,15.3126,2.3125
14:21:35.505,14.4376,1.9375
14:21:35.515,14.2501,0.25
14:21:35.525,13.5001,-1.5625
14:21:35.536,12.625,0.1875
14:21:35.545,12.625,-1.375
14:21:35.555,11.5625,-2.25
14:21:35.566,11.3125,-1.5
14:21:35.575,11.6875,0.625
14:21:35.592,13.6251,5.75
14:21:35.595,15.5001,13.1251
14:21:35.605,18.0001,23.3751
14:21:35.618,19.3126,29.8126
14:21:35.625,22.0001,38.5626
14:21:35.635,23.4376,41.6252
14:21:35.645,23.5001,42.5002
14:21:35.655,23.0001,41.8127
14:21:35.691,22.5001,42.6877
14:21:35.695,23.0001,40.6877
14:21:35.697,23.3751,39.5627
14:21:35.699,22.6876,37.3126
14:21:35.706,21.8126,38.2501
14:21:35.740,22.6251,35.0626
14:21:35.742,21.5626,33.1876
14:21:35.746,20.9376,31.6876
14:21:35.747,20.3751,30.2501
14:21:35.777,19.8751,29.8126
14:21:35.779,20.0626,27.3126
14:21:35.783,18.3126,25.0626
14:21:35.787,17.8751,23.0001
14:21:35.822,17.2501,22.8126
14:21:35.825,16.6876,20.7501
14:21:35.827,16.7501,18.7501
14:21:35.830,15.8126,17.5001
14:21:35.835,15.5001,17.8126
14:21:35.849,16.1251,17.0626
14:21:35.855,15.3126,16.1876
14:21:35.866,14.2501,15.5626
14:21:35.876,13.7501,15.7501
14:21:35.885,12.8125,13.8126
14:21:35.901,13,13.3751
14:21:35.908,11.9375,11.625
14:21:35.917,11.0625,12.3125
14:21:35.925,10.5,11
14:21:35.940,9.5625,10.375
14:21:35.949,9.625,9.375
14:21:35.955,8.6875,9.4375
14:21:35.973,9.625,8.1875
14:21:35.975,9.375,7.4375
14:21:35.991,8.5625,6.5625
14:21:36.005,8.875,6.5625
14:21:36.008,8.6875,4.875
14:21:36.023,7.9375,2.75
14:21:36.025,6.9375,1.25
14:21:36.035,7.1875,1
14:21:36.045,6.5625,-1.8125
14:21:36.055,5.5,-2
14:21:36.064,4.4375,-4.375
14:21:36.074,4,-5.625
14:21:36.085,2.9375,-7.6875
14:21:36.094,1.625,-10.0625
14:21:36.105,0.6875,-12.375
14:21:36.115,1.3125,-11.5625
14:21:36.125,0.4375,-13.7501
14:21:36.135,-0.4375,-13.9376
14:21:36.145,-0.8125,-15.3751
14:21:36.155,-2,-16.0626
14:21:36.165,-3.3125,-17.6251
14:21:36.174,-4.9375,-17.6876
14:21:36.185,-5.375,-18.6876
14:21:36.194,-5.4375,-20.0626
14:21:36.206,-5.5625,-21.3751
14:21:36.215,-6.125,-20.3126
14:21:36.225,-5.25,-20.2501
14:21:36.235,-5.9375,-20.5001
14:21:36.246,-6.625,-19.1251
14:21:36.256,-7.25,-21.5626
14:21:36.266,-7.375,-23.3126
14:21:36.274,-7.75,-21.7501
14:21:36.285,-8.125,-22.5626
14:21:36.295,-8.1875,-22.6876
14:21:36.305,-8.1875,-23.4376
14:21:36.316,-8.1875,-23.3126
14:21:36.345,-9.25,-22.6251
14:21:36.349,-8.75,-23.8126
14:21:36.350,-10.625,-23.8751
14:21:36.356,-10.6875,-26.6251
14:21:36.365,-12.25,-27.4376
14:21:36.394,-12.75,-27.2501
14:21:36.396,-12.5,-24.5001
14:21:36.398,-10.8125,-22.1251
14:21:36.406,-10.3125,-15.6251
14:21:36.428,-8.0625,-9.25
14:21:36.430,-7.1875,-2.125
14:21:36.457,-5.0625,2
14:21:36.462,-3.6875,5
14:21:36.463,-3.4375,6.75
14:21:36.466,-3.5625,5.8125
14:21:36.492,-4.5,5.4375
14:21:36.495,-5.0625,4.125
14:21:36.497,-5.4375,2.9375
14:21:36.504,-5.6875,-0.8125
14:21:36.538,-6,-1
14:21:36.542,-6.25,-2.9375
14:21:36.543,-6,-2.4375
14:21:36.562,-5.4375,-4.9375
14:21:36.562,-5.875,-4.5625
14:21:36.565,-4.75,-6
14:21:36.575,-4.5625,-6.5
14:21:36.584,-4.3125,-6.8125
14:21:36.595,-4.0625,-7
14:21:36.604,-3.8125,-6.625
14:21:36.616,-2.9375,-8
14:21:36.624,-3.6875,-6.375
14:21:36.634,-2.9375,-7.4375
14:21:36.644,-2.5,-7.1875
14:21:36.654,-2.125,-5.125
14:21:36.664,-1.4375,-5.3125
14:21:36.676,-1.0625,-2.75
14:21:36.684,-0.125,-3.125
14:21:36.694,0.125,-2.625
14:21:36.704,1.4375,-1.25
14:21:36.714,1.875,-0.9375
14:21:36.725,2.75,0.1875
14:21:36.734,3.0625,0.9375
14:21:36.749,2.9375,-0.375
14:21:36.755,3.25,-0.125
14:21:36.764,2.5,-1.75
14:21:36.774,3.0625,-0.375
14:21:36.785,3.625,-0.875
14:21:36.794,5.25,0.4375
14:21:36.804,5.75,-0.1875
14:21:36.814,7.4375,1.3125
14:21:36.824,7.0625,-0.5625
14:21:36.834,7,0.4375
14:21:36.844,6.9375,-0.75
14:21:36.854,7.25,-1.1875
14:21:36.864,7.8125,-2
14:21:36.874,7.125,-2.375
14:21:36.884,8.0625,-2.5625
14:21:36.894,7.6875,-3.0625
14:21:36.904,7.375,-2.25
14:21:36.914,8.125,-3.6875
14:21:36.924,7.625,-4.5
14:21:36.935,7.75,-3.0625
14:21:36.945,8.25,-4.9375
14:21:36.954,7.0625,-5.125
14:21:36.964,7.5625,-5.4375
14:21:36.974,8.125,-5.6875
14:21:36.984,8.125,-5.1875
14:21:36.994,9.4375,-3.6875
14:21:37.004,9.0625,-4.75
14:21:37.014,10,-3.5
14:21:37.024,10.8125,-3.25
14:21:37.034,10.625,-2.625
14:21:37.044,11.5625,-3.0625
14:21:37.055,10,-4.1875
14:21:37.064,10.6875,-3.875
14:21:37.074,9.625,-4.4375
14:21:37.084,10.5,-3.875
14:21:37.094,10.25,-3.1875
14:21:37.104,11.4375,-3.375
14:21:37.118,11.75,-3.875
14:21:37.125,11.0625,-2.375
14:21:37.158,12.375,-1
14:21:37.161,13.125,4.8125
14:21:37.163,15.0626,9.4375
14:21:37.166,17.2501,17.1251
14:21:37.198,19.5626,26.5001
14:21:37.201,21.0001,32.3751
14:21:37.203,22.1251,37.0001
14:21:37.208,24.0001,40.0002
14:21:37.238,24.3126,42.1252
14:21:37.239,25.0001,42.1877
14:21:37.241,24.2501,42.6252
14:21:37.271,23.1251,43.1877
14:21:37.273,23.3126,39.6877
14:21:37.275,23.1251,38.0626
14:21:37.302,22.0001,36.8126
14:21:37.304,22.0626,34.6251
14:21:37.319,20.8126,33.3126
14:21:37.322,20.0001,32.5001
14:21:37.334,20.6251,30.3751
14:21:37.336,19.9376,28.7501
14:21:37.337,19.6251,28.3126
14:21:37.352,19.1251,27.8126
14:21:37.354,19.0001,25.5001
14:21:37.364,19.0001,23.9376
14:21:37.374,18.6876,24.1876
14:21:37.384,18.5626,24.0626
14:21:37.394,19.0626,22.8751
14:21:37.404,19.3126,22.5001
14:21:37.414,18.7501,21.8751
14:21:37.424,18.3126,23.0001
14:21:37.434,18.4376,23.1876
14:21:37.444,19.0001,23.8751
14:21:37.454,19.1251,23.8126
14:21:37.464,19.1876,24.2501
14:21:37.475,19.3126,24.1251
14:21:37.485,19.3751,23.4376
14:21:37.494,19.0001,24.3751
14:21:37.504,19.7501,23.3751
14:21:37.514,18.6876,22.1876
14:21:37.524,17.3751,20.0626
14:21:37.534,16.5626,19.4376
14:21:37.544,16.6876,18.6876
14:21:37.554,16.0001,16.3126
14:21:37.564,14.2501,14.1251
14:21:37.574,13.5001,13
14:21:37.584,12.9375,10.25
14:21:37.594,11.9375,8.5
14:21:37.625,11.3125,6.3125
14:21:37.627,10.625,6.0625
14:21:37.629,9.8125,4.9375
14:21:37.634,9.8125,2.3125
14:21:37.644,8.5,0.875
14:21:37.654,8.25,-0.3125
14:21:37.664,7.625,-1.375
14:21:37.674,7.125,-3.375
14:21:37.684,5.625,-4.5
14:21:37.694,5.4375,-5.375
14:21:37.704,4.8125,-7.0625
14:21:37.714,4.4375,-7.4375
14:21:37.725,3.375,-8.25
14:21:37.734,3.9375,-9.125
14:21:37.744,3.9375,-9.5
14:21:37.754,3.3125,-11.375
14:21:37.764,2.1875,-12
14:21:37.775,1.625,-11.5625
14:21:37.784,1.625,-11.8125
14:21:37.794,2.9375,-12.125
14:21:37.804,2.8125,-13.2501
14:21:37.814,2.5625,-13
14:21:37.824,2.6875,-13.1876
14:21:37.834,1.875,-15.0001
14:21:37.845,1.0625,-14.3751
14:21:37.854,1.6875,-15.0001
14:21:37.864,1.5625,-15.6876
14:21:37.874,1.25,-14.7501
14:21:37.884,1.125,-14.5001
14:21:37.894,1.625,-15.5001
14:21:37.908,1.75,-16.1251
14:21:37.937,1.625,-14.6251
14:21:37.941,2.375,-13.6876
14:21:37.943,3,-9.875
14:21:37.945,4.375,-0.9375
14:21:37.975,8.4375,7.125
14:21:37.978,10.125,15.5001
14:21:37.980,11.4375,22.6876
14:21:38.009,12.6875,27.4376
14:21:38.010,14.2501,30.4376
14:21:38.010,14.2501,32.2501
14:21:38.023,14.1876,34.2501
14:21:38.036,14.0001,33.0001
14:21:38.037,13.7501,32.5626
14:21:38.063,14.0001,32.8126
14:21:38.066,15.0001,31.8126
14:21:38.068,14.5001,30.5626
14:21:38.075,14.2501,30.9376
14:21:38.090,14.8126,29.3751
14:21:38.094,14.6251,29.0626
14:21:38.104,15.0626,28.8126
14:21:38.114,15.4376,29.2501
14:21:38.125,15.4376,28.0626
14:21:38.134,15.2501,26.6876
14:21:38.144,15.0001,25.9376
14:21:38.154,15.6876,25.9376
14:21:38.164,16.2501,25.3126
14:21:38.174,14.8126,23.3751
14:21:38.184,14.8126,24.2501
14:21:38.194,15.5626,23.4376
14:21:38.204,15.6251,21.5626
14:21:38.214,15.0001,22.0001
14:21:38.224,14.8126,21.8126
14:21:38.234,15.3751,23.3751
14:21:38.246,15.4376,23.8126
14:21:38.254,15.9376,23.2501
14:21:38.264,15.8751,24.0001
14:21:38.274,15.6251,24.3751
14:21:38.284,16.0626,23.8126
14:21:38.294,16.1876,23.0001
14:21:38.304,16.1876,21.5001
14:21:38.315,15.6251,23.0626
14:21:38.324,16.1876,22.9376
14:21:38.335,17.1251,21.6876
14:21:38.344,17.2501,21.2501
14:21:38.354,18.3751,22.4376
14:21:38.364,18.6251,22.1251
14:21:38.374,19.1251,21.3751
14:21:38.384,19.5001,20.8126
14:21:38.394,20.1251,21.1876
14:21:38.404,21.6876,23.2501
14:21:38.415,23.6251,24.0001
14:21:38.424,24.3751,24.2501
14:21:38.434,26.6876,26.9376
14:21:38.444,25.0001,26.0001
14:21:38.454,26.6876,24.3126
14:21:38.464,25.2501,21.6251
14:21:38.474,22.9376,19.1876
14:21:38.484,21.8751,18.5626
14:21:38.494,22.0001,16.0626
14:21:38.506,22.5626,14.2501
14:21:38.514,21.0001,12.1875
14:21:38.524,19.9376,10.25
14:21:38.534,19.8751,10
14:21:38.545,21.3751,10.0625
14:21:38.554,20.8126,8.4375
14:21:38.564,20.8751,8.3125
14:21:38.586,20.5626,8.625
14:21:38.593,22.3751,8.0625
14:21:38.632,21.6251,7.1875
14:21:38.633,21.8126,9.1875
14:21:38.665,22.3126,8.4375
14:21:38.667,22.7501,7
14:21:38.667,22.9376,8.8125
14:21:38.668,24.1876,9.3125
14:21:38.671,25.0001,8.9375
14:21:38.741,24.9376,9.25
14:21:38.741,25.1251,10.125
14:21:38.757,25.5001,9.3125
14:21:38.769,25.5626,8.8125
14:21:38.772,26.1251,8.9375
14:21:38.773,25.5626,9
14:21:38.773,25.0001,7.75
14:21:38.774,25.0001,6.9375
14:21:38.777,25.6251,6.625
14:21:38.784,25.3751,5.875
14:21:38.794,24.8126,5.375
14:21:38.804,25.5001,8.25
14:21:38.814,26.9376,13.0625
14:21:38.825,28.7501,19.8751
14:21:38.840,31.6876,28.7501
14:21:38.844,33.5626,38.5001
14:21:38.854,36.1251,47.4377
14:21:38.865,37.8751,52.4377
14:21:38.874,39.5627,56.8752
14:21:38.906,40.4377,60.8127
14:21:38.907,40.7502,63.5002
14:21:38.910,40.8752,63.1877
14:21:38.914,41.4377,63.4377
14:21:38.924,43.9377,65.3753
14:21:38.934,43.7502,63.9377
14:21:38.944,43.0002,62.4377
14:21:38.954,42.5002,62.5002
14:21:38.964,42.7502,61.2502
14:21:38.974,42.0002,59.6877
14:21:38.984,41.0002,57.9377
14:21:38.994,40.3127,58.1252
14:21:39.004,39.9377,55.9377
14:21:39.014,40.4377,53.5002
14:21:39.024,38.2501,51.3752
14:21:39.034,37.3126,49.7502
14:21:39.044,36.7501,48.7502
14:21:39.054,36.2501,46.1877
14:21:39.064,36.0626,46.0002
14:21:39.074,36.0001,44.9377
14:21:39.084,34.9376,45.3127
14:21:39.094,34.5626,45.3752
14:21:39.104,34.5001,43.5002
14:21:39.114,33.5001,42.6877
14:21:39.124,33.4376,42.8127
14:21:39.135,33.0626,41.6877
14:21:39.145,32.6251,42.1877
14:21:39.154,32.8126,41.5627
14:21:39.164,32.6251,40.1252
14:21:39.174,31.5626,39.7502
14:21:39.184,31.6251,38.1251
14:21:39.194,30.3751,36.6876
14:21:39.204,29.7501,35.6251
14:21:39.219,30.1251,34.0626
14:21:39.225,28.8126,33.1251
14:21:39.234,28.6251,31.6876
14:21:39.245,28.1251,29.8751
14:21:39.254,27.0001,27.0001
14:21:39.264,26.5001,26.4376
14:21:39.274,26.8751,25.0001
14:21:39.284,25.4376,22.6876
14:21:39.295,24.3751,22.0001
14:21:39.305,24.8126,19.9376
14:21:39.341,23.8751,18.2501
14:21:39.343,23.3126,17.9376
14:21:39.346,24.0001,16.6876
14:21:39.348,22.8751,15.1251
14:21:39.355,21.7501,15.5001
14:21:39.384,22.1251,13.1876
14:21:39.387,21.0626,12.875
14:21:39.389,21.0626,11.6875
14:21:39.394,21.0626,10.5625
14:21:39.421,20.0626,9.5625
14:21:39.423,20.6876,9.5625
14:21:39.426,20.0001,8.125
14:21:39.465,19.1251,7.9375
14:21:39.468,19.6251,7.9375
14:21:39.469,18.4376,6.1875
14:21:39.473,18.4376,6
14:21:39.483,18.5001,4.5625
14:21:39.484,17.4376,3.8125
14:21:39.499,17.4376,5.3125
14:21:39.509,17.6251,4.0625
14:21:39.520,16.8751,1.8125
14:21:39.529,17.1876,2.625
14:21:39.538,17.3751,1.8125
14:21:39.549,16.7501,0.5625
14:21:39.560,16.3751,-1
14:21:39.568,16.5001,-0.3125
14:21:39.579,16.5626,-2.0625
14:21:39.594,15.8126,-2.9375
14:21:39.600,15.0626,-4.6875
14:21:39.609,14.2501,-3.5
14:21:39.619,13.7501,-5.5
14:21:39.629,14.1876,-7
14:21:39.639,13.5001,-7.25
14:21:39.650,13.2501,-5.6875
14:21:39.659,15.3751,1.6875
14:21:39.668,17.7501,8.1875
14:21:39.679,19.9376,17.3126
14:21:39.690,22.6251,28.5001
14:21:39.699,25.6876,36.7501
14:21:39.709,27.9376,42.6252
14:21:39.719,28.1876,48.4377
14:21:39.729,30.1251,50.5002
14:21:39.739,30.2501,51.8752
14:21:39.749,30.3126,53.2502
14:21:39.758,30.1251,51.4377
14:21:39.769,30.3126,51.6877
14:21:39.780,29.6876,49.6877
14:21:39.788,28.5001,48.6252
14:21:39.799,28.7501,47.1877
14:21:39.810,28.6876,46.1877
14:21:39.818,27.7501,46.3127
14:21:39.829,28.6251,44.1877
14:21:39.839,27.4376,43.3127
14:21:39.848,26.8126,43.2502
14:21:39.859,27.4376,41.9377
14:21:39.869,26.5626,39.6252
14:21:39.878,26.5626,39.8127
14:21:39.890,25.7501,37.6251
14:21:39.899,25.2501,36.0001
14:21:39.908,25.5001,36.1876
14:21:39.919,25.0626,33.6876
14:21:39.929,24.9376,32.6876
14:21:39.938,24.2501,34.6251
14:21:39.948,24.6251,33.1251
14:21:39.969,24.4376,31.9376
14:21:39.978,24.1251,32.8751
14:21:39.994,24.8751,32.7501
14:21:40.010,23.7501,32.0001
14:21:40.144,23.8751,33.4376
14:21:40.146,23.8751,33.1876
14:21:40.177,23.3751,30.8751
14:21:40.198,23.3126,31.9376
14:21:40.198,22.8751,30.1876
14:21:40.198,22.3126,29.8751
14:21:40.198,22.1251,29.5626
14:21:40.199,21.8751,27.4376
14:21:40.209,21.6251,25.4376
14:21:40.218,20.8751,25.5626
14:21:40.229,21.0626,23.7501
14:21:40.238,20.1251,21.3126
14:21:40.249,19.0001,20.1876
14:21:40.258,19.3751,18.4376
14:21:40.268,18.6251,17.0626
14:21:40.278,18.1876,15.6876
14:21:40.288,16.8751,12.9375
14:21:40.298,16.3751,11.8125
14:21:40.308,16.0626,12
14:21:40.318,15.3751,11
14:21:40.328,15.3751,9.4375
14:21:40.344,15.2501,8.0625
14:21:40.349,14.8126,-1.375
14:21:40.358,14.5001,-1.1875
14:21:40.368,15.4376,-2.125
14:21:40.378,14.6251,-3.5
14:21:40.388,13.3126,-3
14:21:40.398,13.6876,-4.25
14:21:40.409,13.0625,-6.1875
14:21:40.418,12.5625,-5.8125
14:21:40.428,13.1251,-7.3125
14:21:40.438,11.9375,-9
14:21:40.448,10.9375,-9.25
14:21:40.458,10.375,-10.375
14:21:40.469,10.9375,-12.1875
14:21:40.478,10.5,-13
14:21:40.489,9.5,-11.9375
14:21:40.498,10.5,-10.0625
14:21:40.508,12.125,-5.875
14:21:40.518,13.5626,2.625
14:21:40.528,16.3126,11.25
14:21:40.538,18.6251,21.0626
14:21:40.548,21.1876,29.1876
14:21:40.558,22.5001,34.8126
14:21:40.568,23.5626,40.7502
14:21:40.578,25.5626,42.9377
14:21:40.588,25.3751,44.7502
14:21:40.598,25.6251,46.4377
14:21:40.608,26.1876,45.0002
14:21:40.618,25.2501,44.0002
14:21:40.628,25.4376,43.1877
14:21:40.638,24.8126,40.6877
14:21:40.648,23.7501,40.3752
14:21:40.658,24.0626,39.0627
14:21:40.668,23.5001,36.5626
14:21:40.678,22.7501,34.5626
14:21:40.688,22.3126,34.3751
14:21:40.699,22.5001,34.1251
14:21:40.708,22.5001,32.1251
14:21:40.719,21.8126,29.8751
14:21:40.733,21.0001,29.8126
14:21:40.740,20.9376,27.5001
14:21:40.774,20.4376,26.3751
14:21:40.777,20.3126,26.5001
14:21:40.780,19.5001,25.1251
14:21:40.790,19.3751,24.2501
14:21:40.811,19.3751,25.1251
14:21:40.813,19.8126,24.6876
14:21:40.815,19.8126,25.0001
14:21:40.819,19.8126,26.0001
14:21:40.862,20.7501,25.7501
14:21:40.863,19.9376,25.1876
14:21:40.865,19.3751,27.0626
14:21:40.890,19.9376,26.2501
14:21:40.890,19.5001,24.7501
14:21:40.890,18.8751,23.8751
14:21:40.893,18.8751,22.7501
14:21:40.899,18.8126,23.4376
14:21:40.911,19.1251,21.9376
14:21:40.918,18.0626,19.5001
14:21:40.928,17.8126,18.8126
14:21:40.938,16.8751,18.0001
14:21:40.948,17.3751,16.1251
14:21:40.958,16.0626,14.1876
14:21:40.968,15.7501,12.5625
14:21:40.978,15.0001,12
14:21:40.988,15.4376,10.25
14:21:40.998,14.1876,7.9375
14:21:41.008,12.9375,6
14:21:41.018,12.5625,5.6875
14:21:41.028,12.125,5.25
14:21:41.038,12.125,3.5
14:21:41.048,12.5,2.0625
14:21:41.058,11.75,0.75
14:21:41.068,10.8125,0
14:21:41.079,11,-0.8125
14:21:41.088,10.8125,-2.375
14:21:41.101,10,-3.5625
14:21:41.108,9.5,-3.5
14:21:41.118,8.9375,-4.75
14:21:41.128,8.6875,-6.0625
14:21:41.138,8.3125,-6.6875
14:21:41.148,8.0625,-6.5
14:21:41.158,8.9375,-7.625
14:21:41.168,8.25,-8.625
14:21:41.178,7.625,-8.8125
14:21:41.188,7.8125,-9.25
14:21:41.198,7.4375,-10.3125
14:21:41.208,7.625,-11.25
14:21:41.218,7.0625,-11.625
14:21:41.228,6.4375,-10.75
14:21:41.238,6.6875,-13.5626
14:21:41.248,5.75,-14.6251
14:21:41.258,6.4375,-14.0626
14:21:41.268,6.875,-15.0001
14:21:41.278,5.5625,-16.6876
14:21:41.293,4.8125,-17.0001
14:21:41.302,4.8125,-17.6876
14:21:41.308,4.375,-19.5001
14:21:41.324,4.625,-18.8751
14:21:41.330,4.4375,-19.1876
14:21:41.339,4.6875,-17.0626
14:21:41.348,6.3125,-11.1875
14:21:41.358,8.1875,-3.25
14:21:41.369,11.1875,6.875
14:21:41.378,13.6876,17.0001
14:21:41.388,16.2501,25.8751
14:21:41.398,18.6876,34.2501
14:21:41.408,20.4376,38.2501
14:21:41.426,20.8751,42.6877
14:21:41.428,22.6876,44.4377
14:21:41.480,22.4376,44.5002
14:21:41.495,22.2501,44.3752
14:21:41.498,22.9376,44.8752
14:21:41.499,22.5626,43.0627
14:21:41.506,22.0001,41.6252
14:21:41.506,21.1876,40.8127
14:21:41.506,21.5626,39.5002
14:21:41.513,21.1251,37.6251
14:21:41.523,20.8126,37.0001
14:21:41.538,21.1876,35.9376
14:21:41.543,20.1876,34.3126
14:21:41.571,19.5626,34.9376
14:21:41.573,19.6876,33.1251
14:21:41.575,19.1251,31.0001
14:21:41.605,18.5626,30.1251
14:21:41.608,17.8751,29.5001
14:21:41.611,18.0626,27.7501
14:21:41.613,18.1876,26.8751
14:21:41.646,17.0001,25.4376
14:21:41.647,17.0001,26.3126
14:21:41.649,16.6876,25.7501
14:21:41.655,17.6251,26.1251
14:21:41.684,17.4376,25.3751
14:21:41.684,17.8126,25.9376
14:21:41.687,17.1251,25.2501
14:21:41.713,16.7501,27.2501
14:21:41.715,17.4376,26.4376
14:21:41.719,17.8751,25.6876
14:21:41.724,16.4376,24.6876
14:21:41.734,16.4376,25.0001
14:21:41.743,16.9376,22.9376
14:21:41.753,16.1876,21.6876
14:21:41.763,15.5001,21.1251
14:21:41.773,15.8751,19.3126
14:21:41.783,14.9376,16.9376
14:21:41.793,14.5001,16.5626
14:21:41.803,14.6251,16.0001
14:21:41.813,14.0626,13.4376
14:21:41.823,13.3751,11.3125
14:21:41.833,11.875,9.9375
14:21:41.843,11.8125,9.125
14:21:41.857,11.6875,6.625
14:21:41.863,10.5625,5.1875
14:21:41.873,10.4375,4.375
14:21:41.883,10.0625,2.0625
14:21:41.893,9.4375,1.0625
14:21:41.903,10.0625,0.25
14:21:41.913,9.75,-0.5625
14:21:41.923,8.5625,-2.8125
14:21:41.933,8.0625,-3.4375
14:21:41.944,7.5,-3.9375
14:21:41.953,8.0625,-5.375
14:21:41.963,7.1875,-6.75
14:21:41.973,6.8125,-6.25
14:21:41.983,6.5625,-7.6875
14:21:41.994,6.5625,-8.625
14:21:42.003,5.875,-8.875
14:21:42.014,5.5,-8.5
14:21:42.023,5.625,-10.6875
14:21:42.033,5.125,-11.5
14:21:42.043,4.8125,-10.875
14:21:42.053,5,-11.1875
14:21:42.063,5.3125,-12.5625
14:21:42.073,4.8125,-14.0001
14:21:42.083,3.875,-14.0626
14:21:42.093,5.0625,-15.0626
14:21:42.103,3.75,-15.6251
14:21:42.113,4.25,-15.8751
14:21:42.123,4.125,-18.0001
14:21:42.133,3.125,-17.3751
14:21:42.143,3.6875,-19.1876
14:21:42.153,2.5625,-20.6251
14:21:42.163,1.9375,-21.5001
14:21:42.173,1.75,-22.1251
14:21:42.183,1.875,-22.5001
14:21:42.193,2.1875,-21.3751
14:21:42.215,2.875,-16.3126
14:21:42.218,5.375,-8.1875
14:21:42.244,8.1875,1.25
14:21:42.247,10.6875,12.25
14:21:42.251,13.9376,23.8751
14:21:42.253,16.8126,31.1876
14:21:42.280,18.5626,37.2501
14:21:42.282,19.4376,42.4377
14:21:42.284,20.1251,44.0002
14:21:42.318,21.2501,44.6877
14:21:42.321,21.2501,45.6252
14:21:42.324,21.8126,45.1252
14:21:42.325,21.0001,43.1877
14:21:42.332,20.1251,42.3752
14:21:42.368,20.1876,40.3127
14:21:42.370,20.0001,40.0627
14:21:42.373,20.3751,38.7501
14:21:42.375,19.5001,36.5001
14:21:42.388,19.1876,36.1876
14:21:42.393,19.7501,35.6251
14:21:42.403,19.1251,34.3126
14:21:42.413,18.1251,33.3126
14:21:42.423,17.8751,32.0001
14:21:42.433,17.3126,30.0001
14:21:42.443,16.8126,28.5626
14:21:42.453,16.0001,28.9376
14:21:42.463,16.2501,27.0626
14:21:42.473,16.5001,26.1876
14:21:42.484,15.2501,25.1876
14:21:42.493,15.4376,25.6251
14:21:42.503,16.0001,24.8126
14:21:42.513,15.8126,24.4376
14:21:42.523,16.1251,25.0626
14:21:42.533,16.5626,25.2501
14:21:42.543,15.7501,25.0626
14:21:42.553,15.5626,25.1251
14:21:42.563,16.0001,26.1876
14:21:42.573,15.4376,23.8126
14:21:42.583,15.6251,23.4376
14:21:42.593,14.7501,23.8751
14:21:42.614,15.1251,22.5626
14:21:42.617,14.5001,20.2501
14:21:42.626,13.8126,19.5001
14:21:42.633,13.3126,18.8126
14:21:42.648,13.4376,17.5626
14:21:42.657,12.75,15.1876
14:21:42.663,11.6875,14.1876
14:21:42.673,12.125,11.75
14:21:42.683,10.875,9.3125
14:21:42.695,10.375,9.5625
14:21:42.703,9.875,6.625
14:21:42.713,9.6875,5.125
14:21:42.746,8.6875,2.75
14:21:42.747,7.75,2.875
14:21:42.749,8.4375,1.0625
14:21:42.765,7.6875,-1.3125
14:21:42.779,6.75,-2.125
14:21:42.782,6.6875,-3.0625
14:21:42.797,6.5,-4.6875
14:21:42.811,5.75,-5.875
14:21:42.815,5.375,-7.125
14:21:42.816,5.25,-7.8125
14:21:42.824,4.8125,-8.0625
14:21:42.833,5.75,-9.25
14:21:42.843,4.625,-9.9375
14:21:42.853,3.9375,-8.9375
14:21:42.863,4.625,-10.6875
14:21:42.873,3.8125,-12.625
14:21:42.883,3.5,-11
14:21:42.893,5.1875,-12.0625
14:21:42.903,3.6875,-13.5001
14:21:42.913,3.375,-13.3751
14:21:42.923,3.8125,-14.9376
14:21:42.932,3.25,-15.6251
14:21:42.943,3.25,-16.0626
14:21:42.953,2.9375,-16.5626
14:21:42.973,2.8125,-17.8751
14:21:42.975,1.75,-19.8751
14:21:43.011,1.5625,-19.1876
14:21:43.013,1.1875,-21.0626
14:21:43.016,0.75,-21.8751
14:21:43.018,1.125,-23.2501
14:21:43.023,0.5625,-24.4376
14:21:43.057,0.1875,-21.7501
14:21:43.059,1.3125,-19.3751
14:21:43.062,2.875,-14.0626
14:21:43.066,5.1875,-4.375
14:21:43.098,8.375,5.3125
14:21:43.100,10.5,16.4376
14:21:43.103,14.1876,25.8751
14:21:43.105,16.3126,32.6251
14:21:43.144,17.0626,37.1251
14:21:43.146,18.2501,40.8127
14:21:43.148,20.0001,42.3752
14:21:43.152,19.1876,43.0002
14:21:43.154,18.5626,43.0002
14:21:43.169,19.2501,41.6877
14:21:43.173,19.3126,39.1251
14:21:43.183,18.0626,37.5626
14:21:43.193,17.4376,35.8751
14:21:43.203,17.5626,34.3751
14:21:43.212,16.9376,31.7501
14:21:43.222,16.5626,30.8751
14:21:43.231,16.3751,29.7501
14:21:43.246,15.8751,28.6251
14:21:43.255,15.2501,27.5626
14:21:43.262,14.5626,25.6251
14:21:43.273,14.5626,23.1251
14:21:43.283,13.5626,22.9376
14:21:43.292,13.5626,22.6251
14:21:43.301,12.6875,21.9376
14:21:43.313,14.5001,21.0001
14:21:43.323,13.0625,19.1876
14:21:43.333,12.8125,20.4376
14:21:43.343,13.6876,21.5626
14:21:43.352,13.1251,20.8751
14:21:43.361,13.2501,22.2501
14:21:43.372,14.1251,22.1251
14:21:43.383,13.9376,22.6876
14:21:43.393,13.7501,22.3126
14:21:43.403,13.3751,23.6251
14:21:43.413,14.1251,22.5626
14:21:43.423,14.0626,20.7501
14:21:43.433,13.2501,20.0626
14:21:43.443,13.1251,19.1876
14:21:43.454,12.75,18.6876
14:21:43.463,12.0625,16.5626
14:21:43.472,11.625,16.1876
14:21:43.481,11.5,14.3126
14:21:43.493,10.875,12.0625
14:21:43.502,10,10.75
14:21:43.512,11,9
14:21:43.523,9.625,6.1875
14:21:43.532,8.625,4.6875
14:21:43.543,7.9375,4.25
14:21:43.552,8.6875,3.25
14:21:43.563,8.125,1.0625
14:21:43.572,7.3125,-1
14:21:43.582,7,-0.9375
14:21:43.592,7.0625,-2.5
14:21:43.603,5.8125,-3.8125
14:21:43.613,5.8125,-4.3125
14:21:43.621,6.1875,-5.875
14:21:43.638,5.625,-7
14:21:43.647,5,-7.125
14:21:43.656,4.5,-7.0625
14:21:43.668,5,-8.9375
14:21:43.677,4.1875,-10.8125
14:21:43.688,3.875,-10.0625
14:21:43.697,4.75,-10.8125
14:21:43.714,4.1875,-11.5625
14:21:43.717,4.125,-12.0625
14:21:43.750,3.75,-11.75
14:21:43.752,3.9375,-13.3751
14:21:43.754,3.0625,-13.7501
14:21:43.756,4.4375,-14.0001
14:21:43.767,2.6875,-16.2501
14:21:43.796,2.4375,-16.6251
14:21:43.799,2.0625,-18.3126
14:21:43.802,1.625,-17.9376
14:21:43.808,1.875,-18.1876
14:21:43.836,2.0625,-17.0001
14:21:43.838,4,-9.75
14:21:43.840,5.4375,-3.6875
14:21:43.847,8.125,7.25
14:21:43.882,12.1875,17.1876
14:21:43.886,13.6876,25.1251
14:21:43.886,15.7501,33.5001
14:21:43.892,17.1251,37.4376
14:21:43.896,18.3126,40.4377
14:21:43.906,19.2501,42.2502
14:21:43.919,19.0001,44.4377
14:21:43.933,19.8751,41.7502
14:21:43.940,20.0001,42.3752
14:21:43.946,18.9376,40.5627
14:21:43.964,18.1876,38.7501
14:21:43.970,17.6876,35.8751
14:21:43.978,17.6251,35.5001
14:21:43.987,17.3126,34.0626
14:21:43.996,16.3126,31.9376
14:21:44.025,16.5626,31.0626
14:21:44.027,16.8751,29.8126
14:21:44.029,16.3126,27.3751
14:21:44.037,15.0001,26.0626
14:21:44.047,14.6251,25.0626
14:21:44.056,15.7501,23.9376
14:21:44.067,13.9376,22.1251
14:21:44.082,12.9375,22.4376
14:21:44.089,13.6876,21.5626
14:21:44.098,13.3751,21.2501
14:21:44.113,12.875,21.4376
14:21:44.122,13.5001,20.8751
14:21:44.129,13.9376,20.7501
14:21:44.137,13.1251,21.2501
14:21:44.146,13.3126,22.8126
14:21:44.156,14.4376,23.1251
14:21:44.167,13.2501,22.1251
14:21:44.177,13.5001,22.1251
14:21:44.186,12.4375,22.0001
14:21:44.196,13.4376,21.0626
14:21:44.207,12.3125,19.8126
14:21:44.217,11.625,19.6876
14:21:44.228,12.375,17.3126
14:21:44.236,11,15.8126
14:21:44.246,10.5,14.9376
14:21:44.257,10.25,14.0001
14:21:44.267,10.3125,11.375
14:21:44.277,10.1875,9.4375
14:21:44.293,9,7.3125
14:21:44.298,8.375,7
14:21:44.306,8.75,4.9375
14:21:44.316,8,2.3125
14:21:44.327,7.1875,1.875
14:21:44.337,6.1875,-0.3125
14:21:44.347,5.75,-1.25
14:21:44.357,6.5625,-2.375
14:21:44.366,5.5625,-5.25
14:21:44.377,4.8125,-4.6875
14:21:44.386,5.0625,-6.625
14:21:44.396,3.9375,-7.625
14:21:44.407,4.4375,-8.3125
14:21:44.417,3.5625,-10.1875
14:21:44.427,3.75,-10.4375
14:21:44.437,3.625,-11.125
14:21:44.474,2.6875,-11.4375
14:21:44.477,2.5625,-11.375
14:21:44.479,2.625,-13.2501
14:21:44.481,3,-13.9376
14:21:44.487,2.375,-14.3126
14:21:44.510,2.875,-14.5001
14:21:44.513,2.125,-15.5001
14:21:44.541,1.875,-15.0626
14:21:44.548,2.75,-16.5001
14:21:44.548,1.625,-18.8126
14:21:44.548,1.125,-17.1251
14:21:44.583,2,-18.9376
14:21:44.587,0.5625,-20.1251
14:21:44.588,1.0625,-20.5001
14:21:44.592,0.6875,-19.8126
14:21:44.621,1.4375,-17.6876
14:21:44.625,2.75,-13
14:21:44.627,5.25,-5.4375
14:21:44.630,7.1875,3.9375
14:21:44.638,10.3125,16.8751
14:21:44.648,13.5001,25.8126
14:21:44.657,15.6876,32.5001
14:21:44.668,17.3126,40.0002
14:21:44.678,19.1876,43.6877
14:21:44.686,18.9376,45.1252
14:21:44.696,19.5626,46.8127
14:21:44.707,20.2501,47.8127
14:21:44.717,20.1876,45.5627
14:21:44.726,19.9376,45.4377
14:21:44.737,20.1251,44.1252
14:21:44.747,19.3751,42.5002
14:21:44.758,19.3126,41.1877
14:21:44.766,18.7501,39.0001
14:21:44.776,18.0626,39.4377
14:21:44.787,17.8751,38.3751
14:21:44.797,17.8751,37.4376
14:21:44.807,17.6251,35.6876
14:21:44.817,17.3126,35.6251
14:21:44.826,17.5001,33.4376
14:21:44.836,16.7501,32.8126
14:21:44.846,16.3126,31.6876
14:21:44.857,15.8126,29.7501
14:21:44.867,15.5626,29.5626
14:21:44.876,16.6251,28.6876
14:21:44.887,15.3751,27.3126
14:21:44.896,14.8126,28.6876
14:21:44.907,15.4376,27.8126
14:21:44.917,15.0001,27.0626
14:21:44.926,15.1251,28.1251
14:21:44.937,16.0626,29.0626
14:21:44.947,15.3126,28.5626
14:21:44.958,15.1251,28.0001
14:21:44.966,14.8751,28.5001
14:21:44.976,15.0001,26.8751
14:21:44.986,14.2501,27.3751
14:21:44.996,13.8126,27.5001
14:21:45.007,14.6251,25.1876
14:21:45.016,14.0626,23.7501
14:21:45.026,13.6876,21.5626
14:21:45.043,12.6875,20.3126
14:21:45.048,11.9375,20.0626
14:21:45.057,12.4375,17.8126
14:21:45.066,11.5625,15.4376
14:21:45.076,10.5625,14.3751
14:21:45.086,10.3125,13.5626
14:21:45.096,10.25,11.375
14:21:45.107,9.5,9.1875
14:21:45.137,8.75,6.6875
14:21:45.139,8.25,7.0625
14:21:45.143,8.6875,4.5625
14:21:45.146,7.375,3.0625
14:21:45.176,6.875,2.1875
14:21:45.179,6.75,0.625
14:21:45.180,6.8125,-0.0625
14:21:45.186,5.8125,-1.875
14:21:45.214,5.625,-2.5
14:21:45.216,5.3125,-2.75
14:21:45.218,6.4375,-4.0625
14:21:45.247,5.0625,-5.5625
14:21:45.250,4.4375,-4.625
14:21:45.278,4.5625,-6.4375
14:21:45.320,4.75,-7.625
14:21:45.320,3.6875,-8.6875
14:21:45.320,3.4375,-8.6875
14:21:45.329,3.625,-8.8125
14:21:45.329,4,-10.3125
14:21:45.343,3.4375,-10.75
14:21:45.343,2.875,-12.6875
14:21:45.343,3,-12.125
14:21:45.344,3.5,-13.0625
14:21:45.346,2.3125,-14.6251
14:21:45.357,2,-14.3126
14:21:45.366,1.5625,-16.0626
14:21:45.377,2.125,-17.4376
14:21:45.397,1.0625,-18.3751
14:21:45.399,0.5625,-18.0626
14:21:45.409,2.4375,-15.3751
14:21:45.417,3.375,-10.3125
14:21:45.447,5.1875,-1.375
14:21:45.449,7.75,7.8125
14:21:45.452,11,18.7501
14:21:45.457,14.1251,28.2501
14:21:45.467,16.2501,36.6876
14:21:45.477,18.1251,41.7502
14:21:45.487,19.5626,45.1252
14:21:45.497,20.1251,48.9377
14:21:45.507,21.0626,50.5627
14:21:45.517,21.5001,49.5627
14:21:45.526,21.1251,50.2502
14:21:45.537,21.5001,48.6252
14:21:45.547,20.9376,46.8752
14:21:45.556,20.1876,45.5002
14:21:45.566,20.0626,45.3127
14:21:45.576,20.5626,43.8127
14:21:45.586,19.5626,43.0002
14:21:45.597,18.8126,41.5002
14:21:45.606,19.3126,41.3127
14:21:45.617,19.3751,42.4377
14:21:45.626,18.8751,39.6877
14:21:45.636,17.8126,39.1877
14:21:45.647,17.5626,37.5001
14:21:45.656,17.9376,36.2501
14:21:45.666,16.8751,33.6251
14:21:45.677,16.6251,34.9376
14:21:45.687,16.2501,33.2501
14:21:45.697,16.0626,32.1876
14:21:45.706,15.9376,32.0001
14:21:45.716,16.6251,32.1251
14:21:45.727,16.8126,32.0626
14:21:45.738,15.9376,31.7501
14:21:45.747,15.6251,32.3126
14:21:45.756,15.5626,33.5001
14:21:45.766,15.3751,31.5626
14:21:45.776,14.9376,30.7501
14:21:45.789,14.9376,30.7501
14:21:45.798,14.3751,30.0626
14:21:45.806,14.5001,29.2501
14:21:45.817,14.6251,27.2501
14:21:45.827,13.5001,26.3126
14:21:45.837,12.375,24.8751
14:21:45.848,12.5,23.0626
14:21:45.857,12.25,20.9376
14:21:45.867,11.5,18.2501
14:21:45.900,10.75,17.0626
14:21:45.905,10,16.9376
14:21:45.905,10,14.6251
14:21:45.909,9.125,12.125
14:21:45.939,8.25,10.3125
14:21:45.941,8.25,10.875
14:21:45.944,7.875,8
14:21:45.947,7.1875,5.5625
14:21:45.978,6.75,5.625
14:21:45.981,6.5625,4.625
14:21:45.983,6.3125,1.875
14:21:45.989,5.1875,1
14:21:45.998,4.9375,1.6875
14:21:46.027,5.3125,-0.75
14:21:46.029,4.75,-2.3125
14:21:46.032,5,-1.8125
14:21:46.038,4.5,-3.25
14:21:46.061,4.1875,-4.5
14:21:46.063,3.8125,-2.75
14:21:46.067,3.75,-4.8125
14:21:46.078,3.75,-6.5625
14:21:46.086,3.4375,-5.6875
14:21:46.100,3.9375,-7.125
14:21:46.106,3.3125,-7.875
14:21:46.116,3.25,-8.625
14:21:46.126,2.625,-7.875
14:21:46.137,2.875,-10
14:21:46.147,2.125,-11.875
14:21:46.157,1.3125,-11.4375
14:21:46.166,1.625,-13.6251
14:21:46.182,0.875,-15.1251
14:21:46.187,0.1875,-15.4376
14:21:46.198,0.5,-17.0001
14:21:46.207,-0.25,-16.5001
14:21:46.216,-0.25,-14.5001
14:21:46.228,1,-12.5
14:21:46.237,1.75,-5.625
14:21:46.246,5,3.4375
14:21:46.257,7.875,14.1876
14:21:46.266,10.75,22.5001
14:21:46.277,13,30.7501
14:21:46.286,14.8126,38.3751
14:21:46.296,16.6251,41.6877
14:21:46.307,18.0001,44.4377
14:21:46.316,17.6251,47.3752
14:21:46.328,18.6876,46.6252
14:21:46.336,18.0001,45.5627
14:21:46.346,17.6876,46.0002
14:21:46.357,17.8751,44.2502
14:21:46.367,17.0001,42.5002
14:21:46.378,16.8751,41.0002
14:21:46.386,15.8751,39.4377
14:21:46.396,15.6876,40.0627
14:21:46.407,15.5001,38.5001
14:21:46.416,17.3126,37.5001
14:21:46.427,15.5001,35.6876
14:21:46.436,15.0001,36.0001
14:21:46.447,15.3126,34.6251
14:21:46.457,16.5001,33.2501
14:21:46.467,16.1876,32.3751
14:21:46.477,15.8126,33.6876
14:21:46.487,16.0626,33.6876
14:21:46.497,18.0626,33.7501
14:21:46.509,19.5626,37.2501
14:21:46.518,22.0001,40.3127
14:21:46.527,25.1251,44.8127
14:21:46.535,26.3751,47.0627
14:21:46.546,28.8126,51.3127
14:21:46.557,30.3126,54.3752
14:21:46.587,29.6876,54.5002
14:21:46.589,29.3751,56.3752
14:21:46.592,29.6876,58.2502
14:21:46.619,29.8126,57.4377
14:21:46.620,30.4376,58.9377
14:21:46.648,31.9376,61.1877
14:21:46.650,32.8126,61.6877
14:21:46.674,32.5001,62.3127
14:21:46.674,32.6251,63.0002
14:21:46.677,33.5001,63.5002
14:21:46.677,34.6251,63.1252
14:21:46.748,34.1876,63.3127
14:21:46.751,33.3751,63.0627
14:21:46.751,32.9376,60.5627
14:21:46.758,31.8126,58.6252
14:21:46.759,31.6876,57.3752
14:21:46.759,31.5001,56.9377
14:21:46.766,30.3126,55.5002
14:21:46.776,29.6876,53.0002
14:21:46.787,28.0001,50.6877
14:21:46.795,26.8751,49.6252
14:21:46.806,25.1876,48.0002
14:21:46.815,24.6876,44.3752
14:21:46.827,23.0626,42.5627
14:21:46.836,21.1876,39.3127
14:21:46.847,20.1251,36.6876
14:21:46.857,19.2501,36.4376
14:21:46.867,17.3126,33.6876
14:21:46.875,16.3126,32.6251
14:21:46.886,15.3751,30.8751
14:21:46.896,15.0001,28.6251
14:21:46.905,13.6876,27.1876
14:21:46.918,11.4375,24.8126
14:21:46.931,10.1875,18.8751
14:21:46.937,9.1875,16.0626
14:21:46.947,6.375,12.8125
14:21:46.956,4.375,7.9375
14:21:46.966,0.6875,3.3125
14:21:46.976,-2.4375,-1.375
14:21:46.985,-7.0625,-6.75
14:21:46.996,-9.5625,-12.375
14:21:47.005,-14.5001,-17.5001
14:21:47.019,-17.4376,-22.4376
14:21:47.026,-22.3751,-26.9376
14:21:47.036,-25.1876,-31.1876
14:21:47.047,-27.8751,-32.5001
14:21:47.056,-29.2501,-30.4376
14:21:47.065,-28.5626,-27.0626
14:21:47.076,-27.3126,-20.3751
14:21:47.087,-25.8751,-12.8125
14:21:47.097,-23.0626,-6.6875
14:21:47.106,-21.0626,-2.5625
14:21:47.117,-18.6876,2.625
14:21:47.127,-16.3126,4.75
14:21:47.137,-16.6251,6.1875
14:21:47.146,-14.7501,6.875
14:21:47.156,-13.2501,8.0625
14:21:47.165,-13.1876,7.375
14:21:47.178,-13.2501,6.8125
14:21:47.186,-14.0626,4.3125
14:21:47.195,-13.2501,4.4375
14:21:47.205,-13.1876,3
14:21:47.216,-12,3.0625
14:21:47.227,-11.5,2.125
14:21:47.235,-11.6875,2.125
14:21:47.245,-10.9375,0.4375
14:21:47.256,-10.5,0.4375
14:21:47.267,-9.8125,-0.5625
14:21:47.277,-9.1875,-1.125
14:21:47.287,-9.125,-2.25
14:21:47.297,-7.8125,-1.375
14:21:47.307,-7.375,-2.3125
14:21:47.316,-6.5625,-1.0625
14:21:47.325,-7,-1.5
14:21:47.339,-7.3125,-1.0625
14:21:47.347,-6.3125,-0.625
14:21:47.356,-8.0625,0.75
14:21:47.366,-6.5,0.3125
14:21:47.397,-8.5,-0.125
14:21:47.401,-9.3125,0
14:21:47.402,-10,-1.0625
14:21:47.408,-12.25,-2.6875
14:21:47.441,-13.3126,-4.25
14:21:47.445,-14.9376,-5.8125
14:21:47.446,-15.9376,-6.6875
14:21:47.448,-16.1251,-7.625
14:21:47.455,-16.8126,-8.625
14:21:47.487,-17.4376,-11.9375
14:21:47.489,-19.2501,-12.375
14:21:47.492,-21.5626,-16.1876
14:21:47.496,-22.5001,-16.9376
14:21:47.532,-22.5001,-19.7501
14:21:47.533,-23.0001,-20.4376
14:21:47.537,-23.3126,-22.0626
14:21:47.540,-23.5001,-22.2501
14:21:47.560,-23.1876,-23.6876
14:21:47.563,-23.0626,-24.3126
14:21:47.568,-23.0001,-25.1251
14:21:47.577,-23.3751,-25.5001
14:21:47.586,-24.6251,-27.5001
14:21:47.596,-24.9376,-28.2501
14:21:47.605,-24.7501,-29.0626
14:21:47.617,-24.0001,-30.0001
14:21:47.625,-23.8751,-30.4376
14:21:47.636,-25.0626,-31.1251
14:21:47.646,-24.9376,-31.7501
14:21:47.655,-25.3126,-32.3126
14:21:47.670,-24.7501,-33.8751
14:21:47.682,-25.3126,-34.6251
14:21:47.691,-25.8751,-36.1876
14:21:47.700,-26.9376,-36.8126
14:21:47.710,-26.0001,-37.9376
14:21:47.720,-26.3751,-39.0001
14:21:47.730,-25.5626,-38.8126
14:21:47.740,-25.8126,-38.6251
14:21:47.751,-24.5001,-39.6252
14:21:47.760,-23.6251,-39.2501
14:21:47.771,-23.1251,-39.7502
14:21:47.780,-23.5626,-39.6252
14:21:47.790,-23.3126,-39.7502
14:21:47.800,-22.6876,-40.1252
14:21:47.812,-22.5001,-39.3126
14:21:47.821,-22.2501,-39.8752
14:21:47.831,-21.5001,-38.8126
14:21:47.840,-19.6876,-37.3751
14:21:47.867,-18.9376,-36.5001
14:21:47.870,-17.6251,-35.5626
14:21:47.872,-17.3126,-35.7501
14:21:47.881,-18.3126,-36.6876
14:21:47.890,-18.5001,-34.5001
14:21:47.911,-17.5001,-31.0001
14:21:47.918,-15.6876,-23.6876
14:21:47.933,-14.0001,-15.8751
14:21:47.935,-11.8125,-8.25
14:21:47.942,-10.0625,-2.0625
14:21:47.951,-7.8125,2.5625
14:21:47.961,-7.125,5.5
14:21:47.970,-6,6.5
14:21:47.980,-5.625,7.875
14:21:47.990,-4.875,6.6875
14:21:48.000,-4.8125,6.75
14:21:48.018,-4.6875,6.5
14:21:48.033,-4.5,4.375
14:21:48.034,-4.5,3.75
14:21:48.059,-4.0625,2.375
14:21:48.061,-4.75,1.125
14:21:48.063,-5.25,0.0625
14:21:48.089,-5.4375,-1.9375
14:21:48.090,-6.0625,-3.3125
14:21:48.093,-6.375,-4.0625
14:21:48.127,-6.75,-5
14:21:48.131,-5.6875,-5.6875
14:21:48.131,-6.125,-5.5
14:21:48.133,-6.8125,-4.9375
14:21:48.161,-5.6875,-6.625
14:21:48.162,-5.125,-5.375
14:21:48.164,-4.375,-4.6875
14:21:48.173,-3.5,-4.0625
14:21:48.203,-2.875,-2.125
14:21:48.205,-3.0625,-0.1875
14:21:48.208,-1.8125,0.25
14:21:48.211,-1.1875,0.6875
14:21:48.228,-1.4375,1.625
14:21:48.230,-1.4375,2.625
14:21:48.240,-1.5625,2.8125
14:21:48.251,-1.9375,4.125
14:21:48.260,-1.1875,2.6875
14:21:48.270,-1.6875,2.375
14:21:48.280,-1.875,2.875
14:21:48.290,-1.875,1.9375
14:21:48.302,-1.125,2.625
14:21:48.310,-0.875,1.0625
14:21:48.320,-0.5,1.5625
14:21:48.331,-0.875,0.1875
14:21:48.340,-0.625,0.1875
14:21:48.350,-1.5,-1.875
14:21:48.360,-1.875,-2.8125
14:21:48.370,-1.6875,-2.8125
14:21:48.380,-2.375,-4.25
14:21:48.390,-2.5625,-5.25
14:21:48.400,-2.5,-6.375
14:21:48.410,-2.875,-6.5625
14:21:48.422,-3.0625,-8.0625
14:21:48.430,-2.75,-9
14:21:48.440,-3.25,-8.625
14:21:48.450,-2.6875,-9.875
14:21:48.460,-2.75,-9.4375
14:21:48.470,-2.375,-10.1875
14:21:48.480,-3.8125,-11.0625
14:21:48.490,-4.25,-11.3125
14:21:48.500,-4.4375,-13.6876
14:21:48.511,-5.125,-12.875
14:21:48.520,-5.0625,-15.1876
14:21:48.530,-7,-15.5626
14:21:48.540,-6.8125,-17.9376
14:21:48.550,-7.25,-18.0001
14:21:48.560,-6.875,-19.1876
14:21:48.570,-6.875,-20.3751
14:21:48.580,-6.9375,-20.6876
14:21:48.590,-7.25,-20.8126
14:21:48.604,-6.25,-21.6251
14:21:48.610,-5.4375,-22.1251
14:21:48.623,-5,-20.8126
14:21:48.630,-5.0625,-22.8751
14:21:48.640,-5.375,-21.6876
14:21:48.651,-5.625,-23.8126
14:21:48.662,-5.0625,-22.6251
14:21:48.670,-5.25,-23.8751
14:21:48.680,-5.0625,-22.6251
14:21:48.690,-5.75,-23.9376
14:21:48.700,-5.4375,-23.6876
14:21:48.710,-4.6875,-23.5001
14:21:48.721,-6,-24.3126
14:21:48.730,-5.375,-21.1876
14:21:48.743,-3.4375,-17.0626
14:21:48.750,-1.875,-9.3125
14:21:48.760,1.8125,-1.125
14:21:48.773,2.9375,8.5625
14:21:48.780,5.6875,13.9376
14:21:48.790,6.875,20.4376
14:21:48.810,8.8125,23.3126
14:21:48.813,10,24.9376
14:21:48.846,10.125,26.3126
14:21:48.847,9.75,24.8126
14:21:48.850,10.0625,24.6251
14:21:48.852,10.0625,22.9376
14:21:48.882,9.8125,22.0626
14:21:48.885,9.875,21.0626
14:21:48.887,9.5625,19.5626
14:21:48.893,9.375,18.7501
14:21:48.919,9.625,18.0001
14:21:48.922,9,16.1251
14:21:48.925,8.875,16.4376
14:21:48.951,8,13.5626
14:21:48.954,7.1875,11.5625
14:21:48.957,6.1875,11.25
14:21:48.961,6.5,9
14:21:48.978,6.5,8.1875
14:21:48.981,6,8.125
14:21:48.994,5.9375,8.3125
14:21:49.001,6,7.8125
14:21:49.010,6.375,7.6875
14:21:49.020,6.625,9.125
14:21:49.030,6.5625,9.875
14:21:49.040,7.4375,10.5625
14:21:49.050,7.4375,11.125
14:21:49.063,7.1875,12.5
14:21:49.070,7.75,13.1251
14:21:49.080,7.25,12.625
14:21:49.090,6.375,12.375
14:21:49.100,6.0625,12.25
14:21:49.110,6.25,11.1875
14:21:49.120,5.5625,11.1875
14:21:49.145,5.125,10.5625
14:21:49.148,5.25,8.9375
14:21:49.152,4.8125,7.4375
14:21:49.162,3.8125,7.5
14:21:49.172,3.3125,6.5625
14:21:49.181,3.125,4.625
14:21:49.192,2.4375,3.125
14:21:49.201,2.0625,2.875
14:21:49.220,1.625,0.375
14:21:49.226,0.5625,-1.0625
14:21:49.242,0,-0.8125
14:21:49.245,1.1875,-0.3125
14:21:49.253,0.6875,-1.375
14:21:49.260,0.875,-0.875
14:21:49.270,0.4375,-1.125
14:21:49.280,1.0625,-1.1875
14:21:49.290,1.5625,-0.75
14:21:49.301,1,-1.9375
14:21:49.320,0.6875,-2.1875
14:21:49.324,0.5625,-2.125
14:21:49.338,0.875,-3.125
14:21:49.340,0.125,-4.375
14:21:49.350,-0.375,-4.25
14:21:49.360,-1,-3.9375
14:21:49.371,-1.375,-6.4375
14:21:49.380,-1.4375,-8.25
14:21:49.390,-1.875,-9.5
14:21:49.400,-2.3125,-11.25
14:21:49.411,-2.6875,-10.625
14:21:49.420,-2.875,-12.625
14:21:49.430,-3.75,-15.7501
14:21:49.440,-3.8125,-16.1251
14:21:49.450,-4.4375,-18.1876
14:21:49.460,-5.125,-18.5626
14:21:49.470,-4.375,-19.6251
14:21:49.480,-4.4375,-20.7501
14:21:49.490,-5.375,-20.7501
14:21:49.500,-4.625,-20.1876
14:21:49.510,-4.625,-21.6876
14:21:49.544,-4.6875,-20.8126
14:21:49.545,-5.625,-22.8126
14:21:49.548,-5.125,-19.0001
14:21:49.581,-4.625,-14.8751
14:21:49.582,-2.3125,-8
14:21:49.584,-0.9375,-0.75
14:21:49.591,1.6875,7.1875
14:21:49.592,3.75,13.6251
14:21:49.605,3.875,17.8751
14:21:49.611,5.375,20.1876
14:21:49.643,4.75,20.7501
14:21:49.646,4.9375,19.5626
14:21:49.648,3.6875,19.0626
14:21:49.653,3.8125,17.6876
14:21:49.688,2.8125,16.6251
14:21:49.691,2.875,14.3126
14:21:49.693,1.625,13.2501
14:21:49.695,0.625,10.5
14:21:49.701,-0.0625,8.5625
14:21:49.710,-2.1875,6.8125
14:21:49.722,-2.375,3.4375
14:21:49.731,-4.6875,0.8125
14:21:49.741,-5.75,0.375
14:21:49.752,-6,-2.3125
14:21:49.762,-6.375,-4.125
14:21:49.771,-8.9375,-7.9375
14:21:49.782,-12.8125,-10.6875
14:21:49.792,-15.0001,-15.3126
14:21:49.802,-17.6251,-19.0626
14:21:49.810,-20.0626,-19.3751
14:21:49.820,-20.4376,-22.3126
14:21:49.831,-20.8126,-22.3126
14:21:49.840,-20.8126,-21.6251
14:21:49.850,-20.6251,-20.1251
14:21:49.860,-19.2501,-20.2501
14:21:49.870,-19.9376,-18.6876
14:21:49.880,-20.9376,-19.8126
14:21:49.890,-22.2501,-20.3126
14:21:49.900,-23.4376,-22.9376
14:21:49.910,-24.1876,-23.8751
14:21:49.920,-24.0626,-23.4376
14:21:49.931,-24.1251,-24.8126
14:21:49.940,-23.6876,-23.8126
14:21:49.951,-23.4376,-24.5626
14:21:49.960,-22.8751,-24.2501
14:21:49.970,-23.1251,-26.3751
14:21:49.980,-23.1876,-26.0001
14:21:49.990,-23.1876,-27.6251
14:21:50.000,-23.1251,-27.7501
14:21:50.010,-22.6251,-28.2501
14:21:50.020,-22.5626,-27.8751
14:21:50.030,-22.7501,-29.1876
14:21:50.040,-22.2501,-28.8126
14:21:50.050,-23.0001,-30.5001
14:21:50.061,-23.1876,-29.8126
14:21:50.070,-22.8126,-31.0626
14:21:50.080,-22.9376,-30.9376
14:21:50.090,-22.9376,-32.6251
14:21:50.100,-23.0626,-31.6876
14:21:50.110,-23.2501,-33.3126
14:21:50.121,-23.1876,-32.8751
14:21:50.130,-23.0001,-34.3126
14:21:50.140,-22.5626,-32.6251
14:21:50.150,-22.1251,-31.8126
14:21:50.161,-21.1251,-32.7501
14:21:50.172,-20.5626,-31.1876
14:21:50.180,-19.8126,-31.5001
14:21:50.191,-19.3751,-31.1876
14:21:50.200,-18.9376,-32.2501
14:21:50.213,-19.1876,-30.8751
14:21:50.223,-18.5626,-31.5626
14:21:50.257,-18.8751,-31.3126
14:21:50.259,-17.5626,-32.0001
14:21:50.262,-17.5001,-30.1876
14:21:50.264,-16.4376,-30.7501
14:21:50.270,-16.1876,-29.5626
14:21:50.305,-15.3126,-29.9376
14:21:50.308,-15.0001,-29.6251
14:21:50.310,-14.1876,-28.6251
14:21:50.315,-12.8125,-27.5001
14:21:50.353,-12.4375,-27.2501
14:21:50.354,-12.125,-26.7501
14:21:50.357,-11.1875,-26.5626
14:21:50.359,-10.875,-27.0001
14:21:50.365,-10.9375,-24.5001
14:21:50.397,-9.8125,-22.1876
14:21:50.402,-8.5625,-15.6251
14:21:50.402,-6.3125,-9.5625
14:21:50.427,-4.125,-1.0625
14:21:50.428,-2.75,5.0625
14:21:50.430,-1.5625,9
14:21:50.436,-1.3125,11.1875
14:21:50.444,-0.0625,12.4375
14:21:50.455,-0.8125,13
14:21:50.465,-0.1875,12.125
14:21:50.476,-0.4375,10.75
14:21:50.485,-0.8125,9.375
14:21:50.494,-1.25,9.0625
14:21:50.506,-2.125,6.25
14:21:50.515,-3.1875,5.25
14:21:50.530,-4.375,1.875
14:21:50.546,-4.3125,0.5625
14:21:50.548,-5.0625,-0.8125
14:21:50.555,-5.625,-1.625
14:21:50.565,-6.5625,-3.625
14:21:50.576,-7.1875,-4.625
14:21:50.587,-7.1875,-6.5625
14:21:50.597,-7.8125,-6.375
14:21:50.617,-7.25,-8.375
14:21:50.621,-8.125,-8.4375
14:21:50.635,-8.875,-10.0625
14:21:50.637,-9.625,-12.1875
14:21:50.645,-10.0625,-11.625
14:21:50.655,-10.0625,-12.875
14:21:50.665,-10.375,-12.4375
14:21:50.676,-10,-12.1875
14:21:50.687,-10.875,-13
14:21:50.697,-11.4375,-13.1876
14:21:50.704,-11.4375,-11.6875
14:21:50.716,-11.125,-12.75
14:21:50.725,-10.625,-10.6875
14:21:50.735,-10.125,-10.375
14:21:50.744,-9.5625,-8.9375
14:21:50.756,-9.125,-9.9375
14:21:50.766,-9.1875,-8.8125
14:21:50.775,-8.8125,-9.4375
14:21:50.785,-9.1875,-11.3125
14:21:50.795,-9.5625,-11.875
14:21:50.804,-10,-11.75
14:21:50.815,-9.75,-12.9375
14:21:50.825,-10.0625,-12.9375
14:21:50.836,-9.625,-14.3751
14:21:50.846,-10.0625,-14.4376
14:21:50.857,-9.8125,-14.8126
14:21:50.870,-9.375,-15.1876
14:21:50.875,-9.375,-15.1876
14:21:50.884,-9,-16.6251
14:21:50.895,-10.0625,-15.8126
14:21:50.905,-9.4375,-18.0001
14:21:50.915,-10,-18.2501
14:21:50.924,-10.125,-18.3126
14:21:50.936,-10.875,-17.6876
14:21:50.944,-10.125,-19.2501
14:21:50.955,-10.125,-17.5626
14:21:50.965,-9.5625,-19.6876
14:21:50.977,-10,-18.3751
14:21:50.987,-9,-20.2501
14:21:50.995,-9.1875,-18.5626
14:21:51.015,-8.4375,-19.5001
14:21:51.020,-9.3125,-19.1251
14:21:51.025,-9.125,-20.5626
14:21:51.055,-9.3125,-20.8126
14:21:51.058,-8.625,-21.1876
14:21:51.060,-8.75,-20.6876
14:21:51.066,-7.6875,-20.5626
14:21:51.094,-7.5625,-20.3126
14:21:51.097,-7.125,-20.6876
14:21:51.100,-6.8125,-19.8126
14:21:51.105,-5.375,-20.0001
14:21:51.135,-5.6875,-18.5626
14:21:51.138,-4.625,-19.3751
14:21:51.141,-4.875,-18.1251
14:21:51.147,-4.5,-19.0626
14:21:51.173,-4.8125,-18.2501
14:21:51.175,-3.375,-18.6876
14:21:51.178,-4.125,-17.4376
14:21:51.184,-3.8125,-17.8126
14:21:51.194,-3.25,-17.5001
14:21:51.204,-2.125,-12.8125
14:21:51.215,-0.875,-8.25
14:21:51.224,1,-1.5625
14:21:51.235,2.75,5.5625
14:21:51.246,4.0625,11.125
14:21:51.255,4.875,15.6876
14:21:51.265,6.5,17.5001
14:21:51.274,6.375,18.7501
14:21:51.284,6.6875,20.5001
14:21:51.295,6,18.1876
14:21:51.305,5.625,18.8751
14:21:51.314,5.4375,15.6251
14:21:51.324,5.25,15.5001
14:21:51.336,4.75,12.375
14:21:51.344,3.5,11.25
14:21:51.356,3.25,9.875
14:21:51.366,2.875,8.75
14:21:51.374,2.1875,7.5
14:21:51.384,2.0625,4.9375
14:21:51.394,0.8125,4.25
14:21:51.404,0.875,2.75
14:21:51.414,1.1875,1.3125
14:21:51.424,0.125,0.25
14:21:51.435,0.5625,-0.875
14:21:51.445,-0.8125,-2.625
14:21:51.454,-1.125,-2.8125
14:21:51.465,-1.1875,-3.125
14:21:51.476,-1.1875,-3.8125
14:21:51.484,-1.9375,-3.875
14:21:51.495,-2.6875,-2.625
14:21:51.505,-2.125,-2.8125
14:21:51.515,-2.6875,-2.75
14:21:51.524,-2.75,-1.25
14:21:51.535,-2.8125,-2.1875
14:21:51.544,-2.6875,-2.0625
14:21:51.555,-3.375,-2.25
14:21:51.569,-3.125,-1
14:21:51.575,-2,-0.625
14:21:51.584,-2.375,-1.625
14:21:51.594,-2.125,0.125
14:21:51.604,-1.5625,-0.625
14:21:51.620,-1.1875,-1.5625
14:21:51.625,-1.875,-1.375
14:21:51.634,-2.75,-2.25
14:21:51.644,-3,-4.5625
14:21:51.654,-3.4375,-3.9375
14:21:51.664,-2.8125,-5.375
14:21:51.680,-3.625,-5.75
14:21:51.706,-2.9375,-8.1875
14:21:51.708,-3,-6.8125
14:21:51.711,-2.5,-7.75
14:21:51.719,-2.25,-8.125
14:21:51.734,-2.1875,-9.375
14:21:51.741,-2.625,-10.0625
14:21:51.770,-2.75,-10
14:21:51.773,-2.1875,-11.25
14:21:51.775,-1.8125,-11.5
14:21:51.782,-1.3125,-11.5625
14:21:51.815,-2.625,-11.75
14:21:51.818,-2.3125,-12.375
14:21:51.849,-3.375,-12.875
14:21:51.880,-2.25,-13.2501
14:21:51.881,-2.4375,-14.2501
14:21:51.883,-2.25,-14.1251
14:21:51.888,-2.375,-14.0001
14:21:51.889,-1.1875,-13.9376
14:21:51.889,-1.875,-13.6876
14:21:51.894,-0.6875,-14.1251
14:21:51.913,-1.125,-13.9376
14:21:51.915,-0.75,-13.6876
14:21:51.930,-0.4375,-13.7501
14:21:51.939,-0.625,-12.625
14:21:51.944,-0.0625,-14.3126
14:21:51.954,0.0625,-13.4376
14:21:51.964,-0.4375,-14.0626
14:21:51.974,-0.5,-15.0001
14:21:51.984,-0.6875,-12.625
14:21:51.995,-0.3125,-7.9375
14:21:52.007,2.5,-1.375
14:21:52.014,4.1875,8.6875
14:21:52.024,8.0625,18.0001
14:21:52.034,11.625,26.4376
14:21:52.044,13,32.0626
14:21:52.054,16.8751,42.3127
14:21:52.064,17.3126,42.8127
14:21:52.075,16.9376,42.6252
14:21:52.086,15.9376,40.7502
14:21:52.095,15.8126,40.7502
14:21:52.105,16.0001,38.1876
14:21:52.114,15.6876,38.6251
14:21:52.124,15.0001,36.0626
14:21:52.134,15.0626,36.6876
14:21:52.144,15.2501,33.5001
14:21:52.155,14.2501,34.3751
14:21:52.164,15.0626,32.1251
14:21:52.174,14.1251,31.2501
14:21:52.184,13.8751,30.0626
14:21:52.194,13.3126,28.1251
14:21:52.204,13.0625,26.2501
14:21:52.215,12.9375,25.0001
14:21:52.224,13.1876,26.5001
14:21:52.237,13.4376,25.3751
14:21:52.244,13,24.8126
14:21:52.254,13,26.5626
14:21:52.264,14.3751,27.0001
14:21:52.274,14.9376,28.4376
14:21:52.284,15.3126,29.3751
14:21:52.294,15.5626,31.2501
14:21:52.305,16.6876,31.0001
14:21:52.316,16.8126,30.6876
14:21:52.324,16.4376,31.5001
14:21:52.334,16.5626,30.8751
14:21:52.344,16.0626,28.8126
14:21:52.354,14.5001,26.4376
14:21:52.370,13.3751,24.5001
14:21:52.377,12.5,22.1251
14:21:52.384,9.9375,18.6876
14:21:52.394,9.0625,15.4376
14:21:52.404,7.375,11.125
14:21:52.414,5.3125,7.125
14:21:52.424,4.375,5.625
14:21:52.434,4.5,3.4375
14:21:52.445,5.1875,1.3125
14:21:52.456,5.125,0.3125
14:21:52.464,6.25,0.875
14:21:52.474,6.3125,-0.5625
14:21:52.484,6.5625,-1.5
14:21:52.518,6.875,-1.8125
14:21:52.519,7.625,-3.1875
14:21:52.522,7.1875,-5.25
14:21:52.524,6.75,-5.4375
14:21:52.554,7.5,-5
14:21:52.558,8.125,-6.5
14:21:52.559,8,-7.3125
14:21:52.565,7.9375,-7.375
14:21:52.592,8.5,-8.75
14:21:52.595,8.5,-9.6875
14:21:52.596,8.1875,-10.875
14:21:52.625,8.5625,-10.375
14:21:52.627,8.8125,-11.0625
14:21:52.629,8.8125,-11.5625
14:21:52.635,8.4375,-13.125
14:21:52.651,8.875,-12.375
14:21:52.656,8.875,-13.4376
14:21:52.673,8.5625,-14.1876
14:21:52.676,8.5,-14.8751
14:21:52.684,7.875,-16.2501
14:21:52.694,6.875,-15.8751
14:21:52.706,7.5,-17.3751
14:21:52.716,7.1875,-18.6876
14:21:52.724,7.0625,-18.6251
14:21:52.734,8,-18.5001
14:21:52.745,7.75,-16.6876
14:21:52.754,8.4375,-13.4376
14:21:52.765,10.6875,-6.6875
14:21:52.776,13.2501,2.1875
14:21:52.784,15.2501,10.75
14:21:52.794,17.3126,22.6876
14:21:52.804,20.0626,30.0001
14:21:52.814,22.2501,36.7501
14:21:52.825,24.6251,43.6877
14:21:52.834,25.5626,45.7502
14:21:52.844,25.8126,47.0627
14:21:52.854,25.8126,50.0002
14:21:52.864,26.9376,48.6252
14:21:52.874,26.3126,47.8127
14:21:52.885,25.7501,47.2502
14:21:52.895,26.5001,46.0002
14:21:52.904,26.5001,45.0002
14:21:52.916,25.8126,45.2502
14:21:52.924,25.9376,43.3752
14:21:52.934,25.8126,42.3127
14:21:52.945,25.6251,40.7502
14:21:52.954,24.3751,40.1252
14:21:52.984,24.5626,38.6876
14:21:52.987,24.3126,37.0001
14:21:52.989,24.3751,35.6876
14:21:52.995,23.0626,33.3126
14:21:53.004,22.2501,32.4376
14:21:53.014,21.6876,32.6251
14:21:53.024,21.5001,31.3126
14:21:53.036,21.6251,29.8126
14:21:53.046,21.0626,30.2501
14:21:53.054,21.4376,30.6251
14:21:53.064,22.0001,30.4376
14:21:53.074,21.1876,30.5001
14:21:53.084,21.3751,31.6876
14:21:53.096,21.8751,31.5626
14:21:53.104,21.4376,31.1251
14:21:53.122,21.1251,30.6876
14:21:53.124,21.6876,31.3751
14:21:53.140,22.2501,30.0001
14:21:53.146,21.0626,28.8126
14:21:53.156,20.5001,27.5626
14:21:53.223,19.9376,27.0626
14:21:53.249,20.6876,26.1251
14:21:53.285,19.1251,23.3751
14:21:53.313,18.3751,22.0626
14:21:53.314,18.0626,21.7501
14:21:53.347,18.1251,19.4376
14:21:53.347,17.6876,18.3126
14:21:53.347,16.9376,15.2501
14:21:53.348,15.7501,14.0626
14:21:53.351,15.3751,13.1251
14:21:53.356,15.3751,11.1875
14:21:53.358,14.7501,9.125
14:21:53.364,14.0626,7.625
14:21:53.374,13.5626,6.625
14:21:53.384,13.8126,5.75
14:21:53.394,13.5001,4.125
14:21:53.404,12.9375,2.5625
14:21:53.414,12.25,1.4375
14:21:53.425,11.8125,0.75
14:21:53.434,11.1875,1.3125
14:21:53.444,11.6875,-0.6875
14:21:53.456,11.125,-1.25
14:21:53.464,11.5,-2.6875
14:21:53.474,10.6875,-4.0625
14:21:53.486,9.25,-13.3751
14:21:53.495,8.5,-13.5626
14:21:53.505,8.125,-13.5001
14:21:53.514,7.375,-15.6876
14:21:53.524,7.1875,-17.0001
14:21:53.534,6.625,-16.8126
14:21:53.547,6.5,-13.3751
14:21:53.554,8.75,-8.9375
14:21:53.564,10.25,-1.1875
14:21:53.574,12.5,8.75
14:21:53.585,14.6251,19.8751
14:21:53.596,16.8126,29.1251
14:21:53.604,19.5001,36.1251
14:21:53.614,20.8126,40.5627
14:21:53.624,21.6876,44.5627
14:21:53.634,23.0001,46.4377
14:21:53.645,23.0626,47.5627
14:21:53.656,22.5001,48.8752
14:21:53.664,23.6251,47.2502
14:21:53.674,22.7501,47.6252
14:21:53.684,22.6251,46.2502
14:21:53.694,21.4376,43.8752
14:21:53.704,21.2501,44.5002
14:21:53.714,21.1251,42.4377
14:21:53.725,20.1251,41.8752
14:21:53.734,19.9376,41.3127
14:21:53.744,20.1876,39.5002
14:21:53.756,19.0001,38.1251
14:21:53.764,18.6251,36.3126
14:21:53.774,17.9376,36.2501
14:21:53.784,17.3751,34.6251
14:21:53.794,16.4376,31.8751
14:21:53.805,16.1876,30.8751
14:21:53.814,15.5001,30.6251
14:21:53.825,15.7501,29.4376
14:21:53.834,15.1876,28.0626
14:21:53.846,14.8126,29.8126
14:21:53.855,15.5001,28.8126
14:21:53.870,14.6876,28.5001
14:21:53.881,14.6876,29.5626
14:21:53.884,14.8751,30.0626
14:21:53.917,14.3751,29.1876
14:21:53.919,13.9376,28.6876
14:21:53.922,13.4376,29.7501
14:21:53.926,14.0626,28.3751
14:21:53.960,13.4376,26.5001
14:21:53.962,12.5625,25.8126
14:21:53.965,12.9375,24.8126
14:21:53.994,12.6875,23.1876
14:21:53.996,12.3125,21.6876
14:21:53.997,11.25,20.8751
14:21:54.003,10.625,19.5626
14:21:54.004,10.625,18.0001
14:21:54.018,10.0625,15.1251
14:21:54.027,9.3125,14.6251
14:21:54.053,9.3125,12.1875
14:21:54.056,8.5625,10.125
14:21:54.058,7.6875,9.75
14:21:54.064,7.875,8.0625
14:21:54.074,7.25,6.25
14:21:54.084,6.375,3.8125
14:21:54.094,5.3125,2.6875
14:21:54.104,5.8125,2.375
14:21:54.113,6.0625,0.625
14:21:54.124,4.9375,-0.625
14:21:54.134,4.0625,-0.8125
14:21:54.146,4.1875,-3.125
14:21:54.154,3.8125,-4.25
14:21:54.164,3.5,-5.75
14:21:54.174,2.375,-6.4375
14:21:54.185,2.0625,-7.125
14:21:54.194,1,-7.9375
14:21:54.204,1.75,-8.8125
14:21:54.214,1.125,-10.0625
14:21:54.224,1.25,-9.875
14:21:54.234,1.1875,-11.4375
14:21:54.265,1,-12.125
14:21:54.268,0.5,-12.9375
14:21:54.271,0,-12.9375
14:21:54.274,-0.0625,-13.5626
14:21:54.284,-0.0625,-14.8126
14:21:54.294,-0.5625,-15.8126
14:21:54.304,-0.625,-16.7501
14:21:54.314,-0.125,-17.2501
14:21:54.323,-1.5625,-16.5626
14:21:54.334,-0.0625,-13.5626
14:21:54.344,0.0625,-9.875
14:21:54.354,1.5,-0.5625
14:21:54.364,4.875,7.625
14:21:54.374,7.125,17.2501
14:21:54.384,9.3125,25.7501
14:21:54.394,12.125,32.7501
14:21:54.406,12.625,38.5626
14:21:54.414,14.1876,43.0627
14:21:54.424,14.6251,44.6252
14:21:54.433,15.1251,45.7502
14:21:54.444,15.4376,45.0627
14:21:54.456,15.3126,45.6877
14:21:54.471,15.2501,43.7502
14:21:54.485,13.9376,41.8752
14:21:54.488,14.1251,40.7502
14:21:54.497,13.3751,39.1251
14:21:54.504,13.3751,38.8751
14:21:54.514,13.3126,36.3751
14:21:54.523,12.6875,37.4376
14:21:54.535,13.3126,35.3751
14:21:54.544,12.3125,33.6876
14:21:54.553,11.4375,32.8126
14:21:54.564,11.8125,31.6251
14:21:54.574,11.5625,30.1876
14:21:54.586,11,29.7501
14:21:54.603,11.3125,29.0001
14:21:54.605,11.125,27.9376
14:21:54.621,11,27.9376
14:21:54.656,11,29.0626
14:21:54.658,11.1875,29.0626
14:21:54.692,11.5625,29.3751
14:21:54.692,11.375,28.9376
14:21:54.693,11.5625,30.3751
14:21:54.697,11.8125,31.0001
14:21:54.702,12,29.6876
14:21:54.703,11.3125,30.3126
14:21:54.704,11.6875,30.2501
14:21:54.731,11.875,28.1876
14:21:54.734,11.1875,27.1251
14:21:54.737,10.1875,27.6876
14:21:54.744,10.375,25.7501
14:21:54.773,10.0625,23.6876
14:21:54.775,10,21.6251
14:21:54.778,8.75,20.3126
14:21:54.784,8.1875,19.6251
14:21:54.807,8.375,17.4376
14:21:54.809,7.9375,15.8126
14:21:54.815,7.5,14.6251
14:21:54.826,7,12.9375
14:21:54.834,6.25,10.625
14:21:54.844,5.375,8.75
14:21:54.854,5.0625,7.625
14:21:54.863,4.3125,6.9375
14:21:54.874,4.0625,4.875
14:21:54.884,3.6875,2.4375
14:21:54.895,2.3125,1.0625
14:21:54.904,2.1875,1.375
14:21:54.913,1.9375,-0.9375
14:21:54.924,1.375,-1.75
14:21:54.933,0.6875,-3.4375
14:21:54.943,0.125,-3.5
14:21:54.954,0.75,-4.4375
14:21:54.963,-0.1875,-6.125
14:21:54.973,-0.5,-4.5
14:21:54.986,-0.5,-6.4375
14:21:54.997,-1,-8.9375
14:21:55.003,-1.3125,-8.1875
14:21:55.013,-0.9375,-10.4375
14:21:55.024,-2.1875,-11.375
14:21:55.033,-2.6875,-11.375
14:21:55.044,-2.8125,-12
14:21:55.053,-2.8125,-14.6251
14:21:55.063,-3.3125,-13.9376
14:21:55.073,-2.6875,-14.8751
14:21:55.085,-3.125,-14.8751
14:21:55.094,-2.125,-11.5
14:21:55.105,-1.4375,-6.3125
14:21:55.113,0.9375,0.75
14:21:55.123,3.3125,9.9375
14:21:55.133,5.875,18.3751
14:21:55.145,8.1875,27.1876
14:21:55.154,10.5,34.5001
14:21:55.164,11.75,39.5627
14:21:55.173,13.9376,42.8752
14:21:55.183,15.1876,46.2502
14:21:55.194,15.0001,46.8752
14:21:55.204,15.1251,47.9377
14:21:55.213,15.5001,47.1877
14:21:55.224,15.6876,46.6877
14:21:55.233,14.5001,44.5627
14:21:55.243,14.0626,44.0627
14:21:55.253,13.9376,42.2502
14:21:55.263,13.5626,42.8127
14:21:55.274,13.4376,41.0627
14:21:55.283,12.625,41.0002
14:21:55.293,12.875,38.3751
14:21:55.303,11.625,37.1251
14:21:55.313,11.0625,36.5001
14:21:55.323,10.875,34.1251
14:21:55.333,9.875,31.8126
14:21:55.345,9.3125,31.5626
14:21:55.353,9.1875,31.5626
14:21:55.362,8.9375,29.1251
14:21:55.373,8.5,28.3126
14:21:55.385,8.8125,29.7501
14:21:55.393,8.5,28.4376
14:21:55.404,8.25,29.2501
14:21:55.413,9.125,29.5626
14:21:55.424,8.5,29.3751
14:21:55.441,8.125,30.3751
14:21:55.444,8.8125,29.5626
14:21:55.478,8.6875,28.8126
14:21:55.481,7.8125,28.6876
14:21:55.483,7.875,28.3751
14:21:55.485,8.1875,26.7501
14:21:55.493,6.4375,26.8751
14:21:55.535,7.0625,25.1251
14:21:55.537,6.6875,22.6876
14:21:55.541,5.6875,22.0001
14:21:55.553,5.5,20.3751
14:21:55.555,5.3125,18.1251
14:21:55.558,4.375,17.8751
14:21:55.586,4.125,16.0001
14:21:55.587,3.875,13.2501
14:21:55.611,3,12.3125
14:21:55.613,3.8125,11.5625
14:21:55.614,2.9375,8.9375
14:21:55.617,2.1875,8.375
14:21:55.623,1.9375,6.1875
14:21:55.635,1.25,4.1875
14:21:55.643,0.8125,3.5
14:21:55.653,0.5625,1.6875
14:21:55.663,0.625,1.625
14:21:55.673,0.75,0.1875
14:21:55.683,0.0625,-1.375
14:21:55.693,-1.125,-1.1875
14:21:55.703,-0.8125,-2.875
14:21:55.713,-0.5625,-4.3125
14:21:55.725,-1.875,-5.25
14:21:55.733,-2.125,-5.5625
14:21:55.743,-1.625,-6.1875
14:21:55.753,-2,-7.8125
14:21:55.773,-2.4375,-8.8125
14:21:55.779,-3,-9.4375
14:21:55.794,-3,-9.4375
14:21:55.810,-2.6875,-11.5625
14:21:55.811,-3.6875,-12.0625
14:21:55.819,-4.25,-12.125
14:21:55.829,-3.6875,-13.1876
14:21:55.838,-5.0625,-15.3751
14:21:55.848,-4.875,-16.1876
14:21:55.859,-5.5,-16.8126
14:21:55.868,-5.6875,-17.5001
14:21:55.878,-5.4375,-18.3751
14:21:55.888,-5.5625,-18.7501
14:21:55.899,-5.8125,-18.8751
14:21:55.908,-5.25,-14.6251
14:21:55.918,-4.1875,-10.75
14:21:55.928,-2.3125,-1.8125
14:21:55.948,1.8125,12.9375
14:21:55.950,4.6875,22.6876
14:21:55.960,7.0625,30.2501
14:21:55.968,9.375,37.3751
14:21:55.983,11.4375,42.1252
14:21:55.992,12,45.5627
14:21:55.998,12.5625,47.3752
14:21:56.010,13.3751,48.0002
14:21:56.018,13.4376,49.4377
14:21:56.028,13.7501,48.4377
14:21:56.038,12.9375,48.4377
14:21:56.051,13.4376,46.4377
14:21:56.058,12.4375,47.1877
14:21:56.071,13.2501,45.1252
14:21:56.100,13,45.6252
14:21:56.103,13.0625,44.2502
14:21:56.105,11.625,43.3752
14:21:56.110,11.8125,43.5627
14:21:56.146,12.4375,41.7502
14:21:56.148,10.9375,39.5002
14:21:56.151,10.3125,38.1876
14:21:56.155,9.9375,37.8126
14:21:56.159,9.5,36.7501
14:21:56.188,9.25,34.6876
14:21:56.190,8.3125,32.7501
14:21:56.193,8.1875,33.8751
14:21:56.199,8.875,32.5626
14:21:56.225,8.375,32.1251
14:21:56.227,7.875,30.8751
14:21:56.229,7.375,31.8126
14:21:56.251,8.125,32.4376
14:21:56.253,8.0625,31.6876
14:21:56.258,7.375,31.0001
14:21:56.268,7.4375,31.7501
14:21:56.278,6.75,30.5626
14:21:56.288,6.4375,29.0626
14:21:56.298,5.75,29.2501
14:21:56.308,5.625,28.3751
14:21:56.318,5.8125,25.5626
14:21:56.329,4.875,23.8126
14:21:56.338,3.4375,23.8126
14:21:56.348,3.8125,21.2501
14:21:56.358,3.25,19.0626
14:21:56.370,2.4375,16.9376
14:21:56.378,1,15.1876
14:21:56.389,0.9375,14.6876
14:21:56.398,0.8125,11.75
14:21:56.408,-0.375,10.0625
14:21:56.418,-0.5625,7.625
14:21:56.428,-0.875,6.9375
14:21:56.439,-1.125,5.1875
14:21:56.448,-1.75,3.75
14:21:56.458,-2.4375,2
14:21:56.468,-2.5625,-0.375
14:21:56.478,-3.4375,0.625
14:21:56.488,-3.4375,-2.125
14:21:56.498,-3.8125,-3.625
14:21:56.508,-4.625,-4.25
14:21:56.518,-3.375,-5.125
14:21:56.528,-4.625,-6.5625
14:21:56.539,-4.6875,-7.625
14:21:56.548,-5.1875,-7.4375
14:21:56.557,-5.75,-7.875
14:21:56.568,-4.75,-9.25
14:21:56.578,-5.625,-11.3125
14:21:56.588,-5.5625,-10.625
14:21:56.598,-6.3125,-12.125
14:21:56.608,-6.5,-13
14:21:56.617,-5.75,-14.0001
14:21:56.630,-6.75,-15.3751
14:21:56.640,-6.375,-15.3126
14:21:56.648,-6.8125,-17.5001
14:21:56.658,-7.75,-16.8751
14:21:56.668,-6.8125,-18.7501
14:21:56.678,-7.75,-18.8751
14:21:56.688,-7.875,-20.1876
14:21:56.698,-8.3125,-22.6876
14:21:56.708,-8.1875,-23.0001
14:21:56.718,-7.875,-23.8751
14:21:56.728,-9.3125,-24.3751
14:21:56.740,-8.125,-23.7501
14:21:56.748,-8.0625,-21.0626
14:21:56.758,-7.5625,-14.1251
14:21:56.770,-4.4375,-7.75
14:21:56.778,-2.625,2.3125
14:21:56.788,1.3125,14.1251
14:21:56.798,3.8125,23.8751
14:21:56.825,5.6875,31.5626
14:21:56.827,7.6875,36.3751
14:21:56.858,8.8125,40.7502
14:21:56.859,9.875,44.1877
14:21:56.862,10.875,44.3127
14:21:56.886,10.625,43.6252
14:21:56.889,11.125,44.0627
14:21:56.889,10.4375,42.8752
14:21:56.892,10.9375,42.3127
14:21:56.898,10.125,40.6252
14:21:56.913,9.4375,39.6877
14:21:56.922,9.6875,39.4377
14:21:56.950,8.625,38.2501
14:21:56.953,8.375,38.4376
14:21:56.954,7.6875,36.6251
14:21:56.957,8,34.6876
14:21:56.988,7.5,33.3126
14:21:56.990,6.5,31.1251
14:21:56.993,6.375,31.0001
14:21:57.020,6.75,29.3126
14:21:57.021,6.25,28.3126
14:21:57.024,6.25,27.2501
14:21:57.028,5.5,27.3126
14:21:57.040,5,27.3751
14:21:57.048,5.375,27.2501
14:21:57.058,5.625,26.5626
14:21:57.068,5.4375,26.1251
14:21:57.080,4.75,28.2501
14:21:57.098,5.25,27.5001
14:21:57.104,5.5625,26.8126
14:21:57.113,5.4375,26.6876
14:21:57.120,4.25,25.7501
14:21:57.135,4.6875,25.2501
14:21:57.142,4.5,24.7501
14:21:57.149,3.8125,23.0001
14:21:57.159,3.25,21.8751
14:21:57.168,3.0625,21.4376
14:21:57.179,2.5,19.8126
14:21:57.188,2.5625,16.8126
14:21:57.198,1.5,16.5001
14:21:57.208,0.875,14.4376
14:21:57.218,0.9375,11.9375
14:21:57.228,0.0625,10.125
14:21:57.238,-0.25,9.875
14:21:57.249,-0.5625,8.1875
14:21:57.268,-0.875,6.125
14:21:57.270,-0.75,4.4375
14:21:57.280,-1.6875,2.25
14:21:57.288,-2.1875,0.5625
14:21:57.303,-2.625,0
14:21:57.310,-3.125,-0.75
14:21:57.321,-3.0625,-2.6875
14:21:57.328,-4.125,-5
14:21:57.338,-4.375,-4.25
14:21:57.348,-4.25,-5.5
14:21:57.358,-4,-6.9375
14:21:57.368,-4.625,-8.125
14:21:57.378,-5.4375,-8.1875
14:21:57.391,-5.3125,-9.25
14:21:57.400,-5.125,-10.4375
14:21:57.408,-5.875,-11.4375
14:21:57.418,-5.9375,-11.3125
14:21:57.428,-5.625,-12.75
14:21:57.438,-5.6875,-13.6251
14:21:57.448,-6.625,-13.8751
14:21:57.458,-6.75,-14.1251
14:21:57.468,-6.5,-16.6251
14:21:57.482,-7,-16.3751
14:21:57.488,-7.25,-17.7501
14:21:57.498,-7.125,-19.2501
14:21:57.508,-7.5,-19.7501
14:21:57.517,-7.5,-21.4376
14:21:57.528,-8.5625,-22.1251
14:21:57.540,-7.875,-22.6876
14:21:57.547,-7.5,-20.4376
14:21:57.571,-6.9375,-18.2501
14:21:57.571,-5.625,-11.75
14:21:57.578,-3.6875,-4.75
14:21:57.609,-1.125,6.125
14:21:57.612,1.375,14.8126
14:21:57.614,4.0625,23.7501
14:21:57.618,6.0625,29.0626
14:21:57.646,8.0625,34.8126
14:21:57.649,8.625,36.9376
14:21:57.653,9.875,40.1877
14:21:57.658,9.5,39.7502
14:21:57.686,10.0625,39.3127
14:21:57.689,9.3125,38.4376
14:21:57.691,9.75,38.1251
14:21:57.698,9.125,35.7501
14:21:57.734,8.8125,34.9376
14:21:57.735,8.3125,32.7501
14:21:57.738,7.6875,31.2501
14:21:57.741,7.3125,29.6876
14:21:57.748,6.625,28.5001
14:21:57.760,7.4375,27.5001
14:21:57.768,6.1875,24.8751
14:21:57.778,4.625,22.5626
14:21:57.788,4.9375,22.4376
14:21:57.798,4.5625,20.0626
14:21:57.808,3.75,19.6251
14:21:57.819,3.5625,19.1876
14:21:57.828,3.875,17.9376
14:21:57.838,4,18.0001
14:21:57.848,3.125,19.2501
14:21:57.858,4.0625,18.8751
14:21:57.868,4.125,20.3126
14:21:57.878,3.3125,21.6251
14:21:57.888,3.875,20.8126
14:21:57.898,3.6875,19.9376
14:21:57.908,3.4375,21.4376
14:21:57.918,4.25,20.2501
14:21:57.928,3.375,19.0626
14:21:57.938,3.375,17.9376
14:21:57.949,2.9375,18.1251
14:21:57.958,2.4375,16.0001
14:21:57.968,1.8125,13.5626
14:21:57.981,0.75,13.3751
14:21:57.988,1.0625,11.25
14:21:57.998,0.75,9.25
14:21:58.010,-0.4375,8
14:21:58.018,0.125,6.3125
14:21:58.028,-0.125,4
14:21:58.039,-1.125,2.375
14:21:58.048,-1.875,1.5
14:21:58.058,-1.9375,-0.25
14:21:58.070,-2.1875,-2.5625
14:21:58.078,-2.875,-3.0625
14:21:58.103,-2.9375,-4.3125
14:21:58.105,-3.4375,-7
14:21:58.111,-4.1875,-8.1875
14:21:58.117,-4.3125,-7.625
14:21:58.128,-4.25,-10.125
14:21:58.141,-4.625,-10.1875
14:21:58.150,-4.75,-10.3125
14:21:58.158,-4.4375,-11.5625
14:21:58.166,-4.375,-12.9375
14:21:58.178,-5.625,-12.6875
14:21:58.188,-5.875,-14.5626
14:21:58.198,-5.625,-16.0001
14:21:58.208,-5.75,-15.9376
14:21:58.218,-6.0625,-17.8126
14:21:58.228,-6.375,-17.5626
14:21:58.238,-6.5625,-19.0626
14:21:58.248,-6.75,-17.9376
14:21:58.263,-6.0625,-17.6876
14:21:58.266,-5.4375,-12.5
14:21:58.298,-3.9375,-8
14:21:58.300,-1.4375,0.25
14:21:58.303,0.375,8.375
14:21:58.310,2.6875,17.7501
14:21:58.336,4.875,25.6876
14:21:58.338,7.5,30.7501
14:21:58.341,8.25,34.9376
14:21:58.371,9.0625,37.2501
14:21:58.373,8.8125,39.6252
14:21:58.375,9.8125,38.6251
14:21:58.378,9.875,38.7501
14:21:58.409,9.625,37.8126
14:21:58.410,9.125,36.7501
14:21:58.413,8.8125,34.8126
14:21:58.436,8,33.6876
14:21:58.450,8,30.4376
14:21:58.452,7.125,30.1251
14:21:58.473,6.5625,26.9376
14:21:58.476,5.625,25.6251
14:21:58.477,5.6875,23.3751
14:21:58.483,4.9375,20.5626
14:21:58.488,4.8125,18.5626
14:21:58.519,3.0625,16.8126
14:21:58.521,3,16.5626
14:21:58.524,2.8125,14.6876
14:21:58.526,2.1875,14.8126
14:21:58.556,3.375,14.0001
14:21:58.558,1.9375,14.5626
14:21:58.560,1.8125,16.1251
14:21:58.566,2.8125,16.5001
14:21:58.606,2.5625,16.4376
14:21:58.610,2.6875,16.8126
14:21:58.644,2.25,18.3126
14:21:58.659,2,18.5626
14:21:58.661,3.25,17.4376
14:21:58.662,2,15.8126
14:21:58.664,1.4375,14.8751
14:21:58.664,1.4375,15.2501
14:21:58.668,1,12.9375
14:21:58.676,0.5625,12
14:21:58.688,0.875,10.375
14:21:58.700,0.25,8.375
14:21:58.707,-0.9375,7.6875
14:21:58.718,-1.125,5.5625
14:21:58.730,-1.25,3.9375
14:21:58.737,-2.4375,2.0625
14:21:58.747,-2.875,0.875
14:21:58.760,-3.0625,-0.75
14:21:58.768,-2.6875,-2.1875
14:21:58.776,-3.3125,-4.125
14:21:58.788,-3.625,-6.625
14:21:58.796,-3.9375,-7.4375
14:21:58.808,-4.5,-8.8125
14:21:58.816,-5.125,-10.3125
14:21:58.828,-5.3125,-12.375
14:21:58.837,-5.8125,-13.7501
14:21:58.848,-6.6875,-14.5001
14:21:58.857,-6.6875,-15.6876
14:21:58.868,-6.75,-17.4376
14:21:58.876,-7.5,-16.7501
14:21:58.888,-6.4375,-16.5001
14:21:58.898,-6.375,-12.875
14:21:58.906,-4.25,-7.5625
14:21:58.918,-3.25,-0.375
14:21:58.926,-0.9375,8.625
14:21:58.938,2.5625,17.1876
14:21:58.947,4.5,26.8126
14:21:58.956,7.375,32.7501
14:21:58.968,8.4375,39.3127
14:21:58.978,10.3125,41.3752
14:21:58.987,10.625,45.3127
14:21:58.996,11.4375,44.9377
14:21:59.008,11.125,47.2502
14:21:59.017,11.1875,44.7502
14:21:59.026,10.5,44.7502
14:21:59.037,10.75,42.3752
14:21:59.046,9.375,41.3752
14:21:59.056,9.25,40.3752
14:21:59.068,8.6875,38.3751
14:21:59.077,9,39.3127
14:21:59.087,8.5625,36.8126
14:21:59.098,7.25,36.2501
14:21:59.107,7.9375,34.1876
14:21:59.117,6.25,31.7501
14:21:59.129,5.5625,30.6251
14:21:59.138,5.625,29.0001
14:21:59.146,5.125,27.2501
14:21:59.157,3.9375,26.0001
14:21:59.167,3.375,25.9376
14:21:59.177,3.875,24.3126
14:21:59.186,3.8125,23.6251
14:21:59.196,2.75,24.0626
14:21:59.209,3.4375,24.3126
14:21:59.218,3.1875,23.6251
14:21:59.226,2.75,25.1876
14:21:59.237,3.5,24.8126
14:21:59.247,3.25,24.0626
14:21:59.274,2.25,24.6876
14:21:59.275,3.1875,23.9376
14:21:59.278,2.9375,22.3126
14:21:59.306,1.875,22.6876
14:21:59.308,2.1875,20.7501
14:21:59.310,2.25,19.6251
14:21:59.340,1.25,17.9376
14:21:59.343,0.375,15.2501
14:21:59.346,0.0625,15.1251
14:21:59.348,0.1875,13
14:21:59.384,-1.125,11.0625
14:21:59.387,-2.125,10.625
14:21:59.390,-2.3125,7.4375
14:21:59.415,-2.3125,5.1875
14:21:59.416,-3.125,4.4375
14:21:59.420,-2.6875,2.875
14:21:59.422,-3.75,1
14:21:59.427,-5.0625,0.0625
14:21:59.448,-4.5625,-1.75
14:21:59.451,-4.6875,-2.875
14:21:59.457,-5.0625,-4.4375
14:21:59.467,-5.875,-5.75
14:21:59.476,-5.6875,-6.9375
14:21:59.486,-6.25,-8.8125
14:21:59.497,-6.6875,-9.9375
14:21:59.506,-7.375,-8.875
14:21:59.518,-6.9375,-11.625
14:21:59.527,-7.6875,-12.8125
14:21:59.536,-7.5625,-10.6875
14:21:59.546,-6.8125,-7.0625
14:21:59.556,-4.875,-1.25
14:21:59.566,-2.625,7.9375
14:21:59.579,0.4375,16.3751
14:21:59.587,3.0625,24.0626
14:21:59.597,5.5625,33.5626
14:21:59.607,7.75,40.2502
14:21:59.618,9.625,46.1252
14:21:59.627,10.875,49.0627
14:21:59.637,11.875,51.8752
14:21:59.646,11.5625,53.1252
14:21:59.658,11.875,54.8752
14:21:59.666,11.5,54.0002
14:21:59.677,11.0625,53.1252
14:21:59.686,11,51.7502
14:21:59.697,10.625,52.4377
14:21:59.707,10.5625,51.4377
14:21:59.717,9.75,51.5627
14:21:59.738,10,49.5002
14:21:59.738,10.3125,51.2502
14:21:59.753,9.75,49.6877
14:21:59.761,9,48.0002
14:21:59.766,8.0625,47.5627
14:21:59.776,7.8125,45.0002
14:21:59.791,7.125,43.0002
14:21:59.803,6.375,41.2502
14:21:59.813,5.4375,41.6252
14:21:59.823,5.5,38.6876
14:21:59.834,4.875,36.6876
14:21:59.842,4.625,37.3751
14:21:59.852,4.625,36.4376
14:21:59.864,3.6875,35.8751
14:21:59.872,3.6875,37.2501
14:21:59.881,4.125,36.1251
14:21:59.892,4,35.8751
14:21:59.903,3,35.5001
14:21:59.912,3.25,36.1876
14:21:59.927,3.4375,34.8751
14:21:59.953,2.125,32.7501
14:21:59.985,1.875,31.6876
14:21:59.987,1,30.7501
14:21:59.989,0.8125,28.3126
14:21:59.996,0.125,29.0001
14:21:59.996,-0.25,25.8751
14:21:59.996,-0.375,23.7501
14:22:00.005,-1.8125,21.2501
14:22:00.014,-2.6875,20.6251
14:22:00.044,-2.75,17.3126
14:22:00.046,-3.5625,14.7501
14:22:00.050,-4.8125,13.4376
14:22:00.054,-5.125,12.375
14:22:00.083,-5.75,9.8125
14:22:00.085,-6.125,7.6875
14:22:00.088,-6.4375,5.3125
14:22:00.093,-7.4375,3.625
14:22:00.122,-7.5,3.6875
14:22:00.124,-8.125,2.25
14:22:00.127,-7.8125,1.0625
14:22:00.133,-8.1875,-0.75
14:22:00.144,-8.875,-2.1875
14:22:00.152,-9.25,-3.875
14:22:00.161,-9.5,-4.25
14:22:00.173,-8.9375,-4.875
14:22:00.182,-9.6875,-7.125
14:22:00.196,-9.875,-7.25
14:22:00.202,-10.125,-7.375
14:22:00.211,-10.125,-9.75
14:22:00.222,-10.9375,-10.8125
14:22:00.232,-11,-11.3125
14:22:00.241,-11.375,-13.5001
14:22:00.253,-11.75,-13.3751
14:22:00.263,-11.0625,-12
14:22:00.271,-10.375,-9.5
14:22:00.284,-8.875,-2.8125
14:22:00.292,-5.9375,6.875
14:22:00.301,-3.3125,16.3126
14:22:00.311,-1.125,26.1876
14:22:00.322,2.1875,34.6251
14:22:00.332,4.625,42.2502
14:22:00.342,6.75,47.5002
14:22:00.353,7.8125,53.0627
14:22:00.361,8.5625,54.2502
14:22:00.372,8.5625,57.3127
14:22:00.382,9.375,57.3752
14:22:00.392,8.75,56.8127
14:22:00.401,8.875,57.1252
14:22:00.413,8.875,55.1877
14:22:00.422,8.1875,56.3752
14:22:00.432,7.9375,54.4377
14:22:00.443,8.125,55.6252
14:22:00.452,7.75,54.7502
14:22:00.461,7.3125,54.8127
14:22:00.471,7.1875,54.8752
14:22:00.483,6.25,52.2502
14:22:00.491,5.5,50.3752
14:22:00.501,5,50.0627
14:22:00.512,4.6875,48.0002
14:22:00.521,3.625,45.5002
14:22:00.533,2.75,44.0627
14:22:00.541,1.6875,43.2502
14:22:00.551,1.625,41.4377
14:22:00.562,0.375,39.9377
14:22:00.571,0,39.8752
14:22:00.582,0.1875,38.5626
14:22:00.591,-0.4375,38.1251
14:22:00.601,0.1875,38.8751
14:22:00.611,-0.6875,39.1877
14:22:00.623,0.125,38.5001
14:22:00.631,-0.5,37.1251
14:22:00.664,-1.1875,36.8751
14:22:00.666,-0.6875,36.2501
14:22:00.669,-2.4375,34.2501
14:22:00.672,-2.75,34.1251
14:22:00.682,-3.1875,31.3751
14:22:00.692,-3.75,29.0626
14:22:00.704,-4.3125,28.6251
14:22:00.713,-4.9375,27.1876
14:22:00.726,-4.375,24.6876
14:22:00.732,-5.625,21.5626
14:22:00.763,-6.3125,20.3751
14:22:00.769,-6.5,19.3126
14:22:00.769,-7.0625,16.1251
14:22:00.771,-8.25,15.5626
14:22:00.803,-8.4375,12.25
14:22:00.805,-9,9.8125
14:22:00.808,-9.5,9.4375
14:22:00.813,-9.5,7.0625
14:22:00.846,-10.3125,5.375
14:22:00.849,-10.0625,3.6875
14:22:00.851,-11.25,2.0625
14:22:00.885,-11.0625,0.75
14:22:00.886,-11.9375,-1.125
14:22:00.890,-12.9375,-1.4375
14:22:00.893,-12.5625,-4.125
14:22:00.894,-13.5626,-6.125
14:22:00.901,-13.3751,-5.625
14:22:00.911,-14.0626,-8.0625
14:22:00.922,-14.7501,-8.4375
14:22:00.931,-14.2501,-10.125
14:22:00.947,-15.0626,-10.8125
14:22:00.951,-15.5001,-11.5625
14:22:00.961,-15.4376,-12.75
14:22:00.973,-15.6251,-14.6251
14:22:00.983,-15.3126,-14.3126
14:22:00.991,-15.8751,-16.1876
14:22:01.001,-16.2501,-17.2501
14:22:01.012,-15.8126,-17.6251
14:22:01.023,-16.2501,-18.6251
14:22:01.038,-16.0001,-21.0626
14:22:01.044,-16.5626,-22.2501
14:22:01.059,-17.3126,-22.6251
14:22:01.063,-16.8126,-23.9376
14:22:01.077,-15.7501,-24.0001
14:22:01.081,-15.7501,-23.1251
14:22:01.091,-14.5626,-18.8751
14:22:01.102,-12.4375,-13.5626
14:22:01.112,-10.3125,-2.75
14:22:01.122,-6.4375,7.375
14:22:01.131,-4.0625,18.9376
14:22:01.141,-0.625,27.6251
14:22:01.152,2.0625,36.8126
14:22:01.163,3.75,42.0627
14:22:01.171,5.3125,47.2502
14:22:01.184,6.5,49.0627
14:22:01.191,6.0625,51.2502
14:22:01.201,7.125,51.6252
14:22:01.212,7.0625,51.5002
14:22:01.221,7.5,51.3752
14:22:01.243,7.1875,49.5627
14:22:01.245,7.6875,50.3752
14:22:01.254,7.5,50.3127
14:22:01.264,7.9375,50.5002
14:22:01.277,8.6875,52.3127
14:22:01.285,10.9375,53.5627
14:22:01.293,10.5625,54.2502
14:22:01.302,10.6875,53.8752
14:22:01.314,10.6875,52.2502
14:22:01.325,10.1875,52.6252
14:22:01.331,9.1875,51.7502
14:22:01.344,9.0625,50.8752
14:22:01.351,8,50.4377
14:22:01.362,7.3125,51.8127
14:22:01.372,5.0625,51.3127
14:22:01.382,1.375,49.2502
14:22:01.393,-4,44.0002
14:22:01.401,-10.1875,38.9376
14:22:01.411,-16.3126,32.8126
14:22:01.422,-23.0001,25.4376
14:22:01.433,-30.8751,16.5001
14:22:01.463,-38.0626,9.6875
14:22:01.466,-43.8752,3.4375
14:22:01.468,-48.5627,-3.625
14:22:01.473,-53.2502,-10.3125
14:22:01.501,-57.7502,-15.6251
14:22:01.503,-62.6252,-22.8126
14:22:01.505,-69.1253,-31.3751
14:22:01.512,-75.6878,-40.5627
14:22:01.545,-81.1878,-47.4377
14:22:01.549,-85.6253,-54.3127
14:22:01.550,-89.9378,-61.4377
14:22:01.553,-94.3754,-65.8128
14:22:01.583,-98.8129,-73.3128
14:22:01.585,-103.6254,-80.6878
14:22:01.588,-107.7504,-85.1878
14:22:01.610,-110.5004,-89.7503
14:22:01.612,-114.0629,-94.0629
14:22:01.615,-116.0629,-97.3129
14:22:01.622,-117.688,-100.5629
14:22:01.633,-118.7505,-101.8129
14:22:01.641,-118.5005,-103.8754
14:22:01.650,-117.4379,-103.0629
14:22:01.662,-117.1254,-103.8754
14:22:01.671,-115.3129,-104.1254
14:22:01.683,-112.1879,-101.6254
14:22:01.697,-104.2504,-95.9379
14:22:01.703,-89.8128,-82.6878
14:22:01.710,-66.7503,-59.6877
14:22:01.721,-34.1251,-28.1876
14:22:01.730,-2.4375,4.25
14:22:01.741,23.0626,30.0001
14:22:01.753,43.1252,53.5002
14:22:01.761,58.5627,70.5628
14:22:01.770,70.7503,84.5628
14:22:01.781,76.1253,91.5629
14:22:01.791,81.2503,98.0004
14:22:01.804,90.5003,107.4379
14:22:01.812,96.7504,116.4379
14:22:01.821,99.9379,118.688
14:22:01.830,100.6879,119.1255
14:22:01.840,99.1879,118.8755
14:22:01.853,99.7504,118.2505
14:22:01.860,102.2504,122.2505
14:22:01.872,105.7504,130.188
14:22:01.880,111.5004,138.188
14:22:01.892,117.0629,150.8131
14:22:01.901,121.8755,160.3756
14:22:01.912,124.1255,168.7506
14:22:01.945,119.563,169.8756
14:22:01.949,108.3754,161.1881
14:22:01.949,86.1878,141.8755
14:22:01.951,49.0627,104.6254
14:22:01.963,5.125,57.3752
14:22:01.973,-28.3751,19.0626
14:22:01.980,-39.0627,2.625
14:22:01.992,-18.9376,21.2501
14:22:02.002,18.4376,61.6877
14:22:02.010,51.5002,100.7504
14:22:02.020,75.3753,129.563
14:22:02.033,86.9378,143.813
14:22:02.040,93.2504,150.5631
14:22:02.051,97.8129,155.8756
14:22:02.063,101.3754,160.1256
14:22:02.071,104.8754,161.9381
14:22:02.081,107.6254,163.8131
14:22:02.090,107.7504,164.0631
14:22:02.101,107.3754,161.5631
14:22:02.110,108.5004,161.5006
14:22:02.121,112.0629,165.0006
14:22:02.130,112.2504,164.5006
14:22:02.140,106.1254,158.7506
14:22:02.153,88.2503,140.563
14:22:02.161,52.4377,102.5004
14:22:02.171,-6.6875,38.7501
14:22:02.180,-54.4377,-17.8751
14:22:02.192,-67.4378,-37.1251
14:22:02.201,-44.8127,-17.1251
14:22:02.210,1.3125,32.5001
14:22:02.220,38.6876,77.5003
14:22:02.239,59.6252,104.6254
14:22:02.242,70.6253,118.438
14:22:02.273,76.0003,125.2505
14:22:02.276,78.4378,128.188
14:22:02.278,79.6253,128.813
14:22:02.283,80.1253,127.3755
14:22:02.309,82.6878,129.1255
14:22:02.311,85.0628,131.563
14:22:02.314,83.6253,130.063
14:22:02.347,83.1878,126.3755
14:22:02.349,82.8128,125.063
14:22:02.413,83.5003,123.688
14:22:02.416,80.6878,120.3755
14:22:02.416,73.2503,110.7504
14:22:02.416,55.1877,91.3754
14:22:02.416,35.3751,65.0627
14:22:02.418,27.9376,53.2502
14:22:02.423,33.6251,58.0627
14:22:02.424,46.0627,73.0628
14:22:02.432,53.3752,82.6253
14:22:02.446,55.6877,82.6878
14:22:02.452,57.7502,87.1253
14:22:02.462,58.7502,87.4378
14:22:02.474,56.3127,85.3753
14:22:02.480,58.6877,85.3128
14:22:02.492,58.0002,85.4378
14:22:02.500,54.3752,80.0628
14:22:02.510,52.3127,75.4378
14:22:02.521,54.3127,77.3753
14:22:02.530,57.6877,79.8128
14:22:02.542,61.1877,82.1878
14:22:02.562,67.4378,88.0003
14:22:02.564,65.2502,85.3128
14:22:02.579,59.9377,78.6878
14:22:02.581,40.6877,55.8752
14:22:02.596,8,19.8751
14:22:02.603,-12.0625,-6.4375
14:22:02.611,-13.2501,-9.5625
14:22:02.620,-5.375,-4.125
14:22:02.631,-0.25,2.375
14:22:02.641,7.5625,11
14:22:02.650,22.0001,29.1251
14:22:02.661,39.0626,53.0002
14:22:02.672,49.3127,71.0628
14:22:02.680,54.7502,84.5003
14:22:02.690,57.1252,93.4379
14:22:02.701,56.3127,97.4379
14:22:02.712,56.2502,103.1254
14:22:02.720,60.1252,109.7504
14:22:02.730,62.8752,114.2504
14:22:02.740,65.6252,120.8755
14:22:02.750,68.0628,125.6255
14:22:02.761,69.4378,127.5005
14:22:02.770,71.2503,129.688
14:22:02.782,66.9378,125.5005
14:22:02.791,56.3127,113.5004
14:22:02.800,33.1876,89.6878
14:22:02.810,1.1875,53.6877
14:22:02.822,-42.7502,6.1875
14:22:02.830,-80.3753,-38.4376
14:22:02.840,-97.2504,-62.1252
14:22:02.853,-89.5628,-57.9377
14:22:02.861,-59.1252,-26.9376
14:22:02.871,-21.9376,13.4376
14:22:02.880,6.8125,48.0002
14:22:02.890,25.5626,70.1878
14:22:02.903,35.8751,83.5628
14:22:02.910,38.9376,87.1878
14:22:02.920,39.6877,87.4378
14:22:02.950,39.4377,86.2503
14:22:02.954,41.5002,88.0003
14:22:02.955,43.7502,90.0003
14:22:02.963,46.3752,92.3754
14:22:03.001,48.4377,94.5004
14:22:03.003,47.8127,94.8754
14:22:03.004,44.9377,91.5629
14:22:03.011,37.0001,84.4378
14:22:03.013,22.9376,68.8128
14:22:03.020,-2.875,41.1877
14:22:03.053,-39.7502,-1.875
14:22:03.056,-66.5628,-34.0001
14:22:03.059,-74.6878,-47.0002
14:22:03.062,-65.8128,-40.0002
14:22:03.092,-44.9377,-18.7501
14:22:03.094,-20.4376,7.3125
14:22:03.098,3.75,36.1251
14:22:03.102,23.6876,60.5002
14:22:03.112,34.6876,72.4378
14:22:03.121,38.0001,75.8753
14:22:03.130,37.6876,73.7503
14:22:03.140,37.1251,72.9378
14:22:03.150,37.0001,71.5628
14:22:03.160,36.3751,68.9378
14:22:03.172,37.3126,67.5003
14:22:03.180,39.8127,69.1253
14:22:03.197,41.9377,68.9378
14:22:03.224,40.1252,68.2503
14:22:03.227,31.4376,56.9377
14:22:03.229,8.3125,31.1876
14:22:03.233,-33.5626,-13.3126
14:22:03.241,-81.3753,-65.3127
14:22:03.250,-130.8755,-118.7505
14:22:03.260,-167.8756,-161.0006
14:22:03.271,-181.0632,-176.1257
14:22:03.281,-169.8131,-168.6881
14:22:03.290,-132.2505,-131.938
14:22:03.301,-82.3128,-80.5628
14:22:03.310,-40.5002,-36.8126
14:22:03.320,-12.4375,-4.875
14:22:03.332,4.125,13.3751
14:22:03.340,15.8126,27.7501
14:22:03.350,21.5626,33.4376
