timestamp,Red,IR
11:25:52.195,1.625,7.25
11:25:52.206,0.5,4.1875
11:25:52.215,0.3125,1.625
11:25:52.228,0.125,1.9375
11:25:52.236,0.625,2.75
11:25:52.258,1.375,4.3125
11:25:52.261,1.5,8.375
11:25:52.291,2.0625,12.9375
11:25:52.293,3.25,16.8751
11:25:52.295,3.9375,19.7501
11:25:52.298,4.1875,22.8126
11:25:52.339,4.5,23.7501
11:25:52.339,4.25,22.3126
11:25:52.340,3.625,22.3751
11:25:52.355,4.6875,21.8126
11:25:52.361,4,20.1251
11:25:52.361,3.5625,19.0626
11:25:52.368,2.75,17.6251
11:25:52.395,2.375,15.4376
11:25:52.398,1.9375,12.5
11:25:52.399,1.125,11.375
11:25:52.407,0.5,9.0625
11:25:52.430,0.3125,5.875
11:25:52.438,0.125,3.1875
11:25:52.440,-0.25,1.4375
11:25:52.445,-0.5,0.375
11:25:52.455,-1.3125,-0.875
11:25:52.469,-1.75,-4.4375
11:25:52.483,-1.875,-6.1875
11:25:52.490,-2.0625,-6
11:25:52.497,-1.3125,-6.875
11:25:52.515,-1.0625,-8.4375
11:25:52.522,-1.625,-9.75
11:25:52.530,-1.75,-10.875
11:25:52.537,-1.9375,-12.3125
11:25:52.546,-1.8125,-13.5626
11:25:52.556,-1.4375,-13.6876
11:25:52.573,-1.4375,-14.0001
11:25:52.589,-1.6875,-15.2501
11:25:52.592,-1.75,-14.6876
11:25:52.606,-1.0625,-16.0001
11:25:52.610,-0.9375,-17.5001
11:25:52.626,-1.375,-16.2501
11:25:52.629,-1.8125,-17.4376
11:25:52.636,-1.5,-19.4376
11:25:52.646,-1.375,-19.0626
11:25:52.655,-1.4375,-19.9376
11:25:52.667,-1.9375,-21.5001
11:25:52.677,-2.375,-21.1251
11:25:52.685,-1.8125,-22.2501
11:25:52.695,-1.75,-24.4376
11:25:52.705,-2.0625,-24.6876
11:25:52.715,-1.8125,-25.8751
11:25:52.725,-2.625,-26.3751
11:25:52.737,-2.75,-27.4376
11:25:52.745,-1.9375,-28.6876
11:25:52.756,-2.75,-30.1251
11:25:52.768,-2.625,-30.5626
11:25:52.776,-2.5,-31.5001
11:25:52.786,-2.75,-32.1251
11:25:52.796,-2.5,-31.5626
11:25:52.806,-2,-32.5001
11:25:52.816,-1.625,-29.1876
11:25:52.826,0.3125,-21.8751
11:25:52.840,2.9375,-9.625
11:25:52.845,6.625,6.5
11:25:52.857,10.5,23.1876
11:25:52.868,12.8125,36.3751
11:25:52.876,14.6876,44.4377
11:25:52.885,15.0626,49.7502
11:25:52.897,16.3751,51.6252
11:25:52.905,15.9376,50.3752
11:25:52.916,14.8751,48.8127
11:25:52.927,13.6876,45.0627
11:25:52.937,12.8125,40.1877
11:25:52.958,11.1875,34.6876
11:25:52.961,9.5,29.4376
11:25:52.989,8,22.8126
11:25:52.990,6.5,17.4376
11:25:52.992,5.0625,10.9375
11:25:53.019,5.125,6.5625
11:25:53.022,3.4375,1.5
11:25:53.024,2.125,-2
11:25:53.029,1.8125,-5.1875
11:25:53.060,2.1875,-7.9375
11:25:53.064,2.1875,-8.1875
11:25:53.064,2.25,-6.5
11:25:53.069,2.625,-6.4375
11:25:53.097,3.5,-3.1875
11:25:53.100,4.5625,0.4375
11:25:53.102,5.0625,4.875
11:25:53.109,6,8.25
11:25:53.129,5.4375,10.25
11:25:53.131,6.4375,11.5625
11:25:53.136,5.625,12.0625
11:25:53.146,5.625,12.1875
11:25:53.157,6,11.8125
11:25:53.167,5.4375,11.125
11:25:53.177,4.5625,11.5
11:25:53.186,3.9375,10.625
11:25:53.196,4.75,7.3125
11:25:53.207,3.6875,7.4375
11:25:53.217,4.0625,5.0625
11:25:53.226,2.1875,4.375
11:25:53.238,3.375,1.125
11:25:53.245,2.125,-0.0625
11:25:53.257,1.8125,-2.3125
11:25:53.267,1.5,-5.5
11:25:53.276,1.25,-5.3125
11:25:53.286,1.6875,-7.5
11:25:53.296,1.25,-9.0625
11:25:53.307,0.4375,-11.75
11:25:53.316,-0.6875,-13.3751
11:25:53.326,-0.5,-14.6876
11:25:53.335,-1.125,-15.5626
11:25:53.347,-1,-16.8126
11:25:53.356,-1.25,-19.0626
11:25:53.367,-2.5,-20.0626
11:25:53.378,-2.5625,-20.9376
11:25:53.386,-2.875,-22.4376
11:25:53.402,-2.6875,-22.4376
11:25:53.410,-2.3125,-23.2501
11:25:53.422,-2.875,-23.9376
11:25:53.430,-2.875,-25.0001
11:25:53.441,-3.625,-25.3751
11:25:53.452,-3,-26.3751
11:25:53.462,-3.375,-26.2501
11:25:53.472,-3.8125,-28.1876
11:25:53.482,-3.9375,-27.8751
11:25:53.493,-4.4375,-30.6876
11:25:53.501,-3.6875,-30.0001
11:25:53.512,-4.3125,-31.6876
11:25:53.522,-4,-31.2501
11:25:53.533,-4.25,-32.4376
11:25:53.542,-3.5625,-32.2501
11:25:53.552,-4.0625,-33.5626
11:25:53.560,-4.25,-32.8751
11:25:53.572,-3.375,-30.6251
11:25:53.582,-1.6875,-21.1876
11:25:53.594,1.6875,-8.375
11:25:53.601,4.3125,5.375
11:25:53.611,7.3125,20.5626
11:25:53.622,9.25,31.5626
11:25:53.632,11.1875,40.0627
11:25:53.641,12.625,43.7502
11:25:53.651,12.125,45.1252
11:25:53.662,11.75,44.8752
11:25:53.673,10.6875,41.8752
11:25:53.682,9.9375,40.8127
11:25:53.691,9.6875,36.3126
11:25:53.701,8.375,30.6876
11:25:53.712,7.4375,27.0626
11:25:53.737,4.9375,19.9376
11:25:53.739,4.5625,15.4376
11:25:53.742,3.75,10.3125
11:25:53.772,2.5,6.0625
11:25:53.775,2.75,1.25
11:25:53.779,0.375,-3.9375
11:25:53.781,-0.375,-6.125
11:25:53.819,-0.5625,-8.125
11:25:53.821,-0.1875,-9.25
11:25:53.850,-0.75,-9.375
11:25:53.879,-0.375,-6.625
11:25:53.881,0.25,-3.6875
11:25:53.881,1.25,-0.9375
11:25:53.881,1.8125,1.8125
11:25:53.883,2.25,4.6875
11:25:53.926,2.1875,7.5625
11:25:53.926,2.25,9.4375
11:25:53.926,3,10.25
11:25:53.929,3.8125,10.3125
11:25:53.936,2.625,10.1875
11:25:53.942,2.375,9.125
11:25:53.952,1.875,9.375
11:25:53.960,2.9375,8.6875
11:25:53.970,2.25,7.125
11:25:53.982,2.0625,6.4375
11:25:53.990,1.4375,3.5625
11:25:54.001,0.6875,1.4375
11:25:54.012,0.4375,-0.3125
11:25:54.022,0.625,-1.3125
11:25:54.030,0.1875,-4.1875
11:25:54.042,0.0625,-5.875
11:25:54.052,-0.375,-7.9375
11:25:54.060,-0.75,-10
11:25:54.072,-0.75,-11.6875
11:25:54.080,-1.5,-14.4376
11:25:54.091,-1.5,-15.2501
11:25:54.104,-1.6875,-14.7501
11:25:54.111,-0.625,-16.1251
11:25:54.122,-1.625,-17.3751
11:25:54.131,-1.1875,-18.3751
11:25:54.141,-1.1875,-18.2501
11:25:54.152,-1,-18.4376
11:25:54.166,-1.625,-20.0626
11:25:54.175,-2.0625,-19.9376
11:25:54.185,-1.3125,-19.8126
11:25:54.197,-1.625,-21.1251
11:25:54.207,-1.8125,-20.5001
11:25:54.218,-1.625,-22.2501
11:25:54.227,-2,-24.0626
11:25:54.237,-1.875,-23.6876
11:25:54.245,-1.3125,-24.8751
11:25:54.257,-1.5,-25.0626
11:25:54.266,-1.75,-25.4376
11:25:54.301,-1.875,-25.0001
11:25:54.303,-1.1875,-19.0001
11:25:54.305,1.3125,-10.4375
11:25:54.315,4.875,2.9375
11:25:54.317,8,19.6876
11:25:54.326,11.5625,35.8751
11:25:54.336,13.6251,46.6877
11:25:54.348,14.0626,51.4377
11:25:54.357,14.5001,53.1877
11:25:54.367,14.3126,53.2502
11:25:54.377,14.1251,51.1252
11:25:54.387,12.25,48.5627
11:25:54.403,12.6875,45.6877
11:25:54.407,10.75,40.8752
11:25:54.431,9.3125,36.4376
11:25:54.433,8.3125,30.5001
11:25:54.437,6.625,24.1876
11:25:54.468,5.25,19.7501
11:25:54.469,4.75,13.2501
11:25:54.471,2.5625,7.0625
11:25:54.478,1.875,3.75
11:25:54.505,1.75,1.0625
11:25:54.507,1.0625,-1.625
11:25:54.510,1.125,-1.8125
11:25:54.547,0.5,-0.25
11:25:54.547,1.625,0.3125
11:25:54.550,1.4375,2.8125
11:25:54.558,2,7.625
11:25:54.558,3.625,10.8125
11:25:54.567,3.5625,13.8751
11:25:54.577,4.5625,15.7501
11:25:54.587,4.125,18.1251
11:25:54.597,4.5625,19.7501
11:25:54.605,4.875,18.6876
11:25:54.616,5.125,18.4376
11:25:54.626,4.625,17.3751
11:25:54.637,3.625,16.6251
11:25:54.647,4.0625,15.3751
11:25:54.657,4.0625,13.8126
11:25:54.666,3.375,11.5
11:25:54.675,3.3125,11.25
11:25:54.688,3.125,8.75
11:25:54.697,2.5625,6.3125
11:25:54.706,2.25,4.5625
11:25:54.717,1.3125,2.375
11:25:54.727,1.9375,0.375
11:25:54.737,0.6875,-2.5
11:25:54.747,-0.125,-5
11:25:54.757,-0.75,-7.3125
11:25:54.767,-1.0625,-9.6875
11:25:54.777,-1.125,-10.3125
11:25:54.788,-1.4375,-12.375
11:25:54.798,-1.375,-13.6251
11:25:54.805,-1.5,-13.4376
11:25:54.817,-1.8125,-14.4376
11:25:54.826,-0.5,-15.5626
11:25:54.837,-1.3125,-16.7501
11:25:54.847,-1.625,-18.3751
11:25:54.857,-1.75,-17.4376
11:25:54.867,-0.875,-18.9376
11:25:54.877,-1.5625,-20.1251
11:25:54.887,-1.75,-20.7501
11:25:54.898,-1.5625,-21.0626
11:25:54.907,-0.75,-23.1251
11:25:54.917,-2.0625,-23.6251
11:25:54.927,-2.125,-24.7501
11:25:54.938,-2.625,-25.9376
11:25:54.947,-2.5625,-28.3751
11:25:54.955,-2.5,-26.2501
11:25:54.967,-1.625,-22.8751
11:25:54.977,-0.25,-11.8125
11:25:54.986,2.9375,2.5625
11:25:54.997,5.9375,16.8751
11:25:55.005,9.25,30.6251
11:25:55.017,10.5,39.2502
11:25:55.027,11.875,45.9377
11:25:55.036,12.1875,48.6252
11:25:55.047,12.4375,48.0627
11:25:55.058,12.625,48.6877
11:25:55.066,12.375,45.8127
11:25:55.075,11.125,43.5002
11:25:55.087,10.5625,38.8126
11:25:55.097,8.8125,34.1251
11:25:55.107,7.4375,29.3126
11:25:55.118,6.75,22.8126
11:25:55.129,5.125,17.3126
11:25:55.137,3.8125,12
11:25:55.146,3.375,7.1875
11:25:55.155,2.5,1.75
11:25:55.204,1.4375,-1.3125
11:25:55.206,1,-3.375
11:25:55.271,0.875,-3.3125
11:25:55.274,2.3125,-4
11:25:55.274,1.4375,-4.125
11:25:55.274,1.125,-0.6875
11:25:55.277,2.75,2
11:25:55.285,3.4375,5.125
11:25:55.287,3.5,6.875
11:25:55.287,3.75,10.3125
11:25:55.291,4.4375,11.8125
11:25:55.323,4.75,12.875
11:25:55.356,4.1875,13.3751
11:25:55.359,4.125,13.6876
11:25:55.373,4.5,13.8126
11:25:55.378,4.375,13.1251
11:25:55.380,3.625,11.4375
11:25:55.380,3.375,12.6875
11:25:55.383,4,10.8125
11:25:55.390,4.5625,9.4375
11:25:55.402,3.6875,8.25
11:25:55.412,3.3125,6.125
11:25:55.420,2.25,4.9375
11:25:55.430,2.1875,3.6875
11:25:55.442,2.3125,1.1875
11:25:55.453,1.875,-1.875
11:25:55.462,1.1875,-5.375
11:25:55.472,0.9375,-7.375
11:25:55.482,0.75,-8.4375
11:25:55.491,0.125,-10.5625
11:25:55.502,-0.3125,-12.4375
11:25:55.512,-0.9375,-14.6251
11:25:55.522,-0.8125,-16.0626
11:25:55.532,-1.125,-17.0001
11:25:55.541,-1.75,-18.0001
11:25:55.553,-1.4375,-20.0001
11:25:55.578,-2,-22.0626
11:25:55.581,-2.5625,-22.8126
11:25:55.583,-2.5,-22.8126
11:25:55.592,-2.375,-23.5001
11:25:55.601,-2.5,-23.5001
11:25:55.612,-1.75,-22.5626
11:25:55.621,-1.25,-17.0626
11:25:55.631,1.375,-8.6875
11:25:55.642,4.5,4.9375
11:25:55.653,8.1875,21.3126
11:25:55.663,10.5625,32.3751
11:25:55.673,12.0625,42.6252
11:25:55.682,13.0625,47.0002
11:25:55.692,13.8751,50.5002
11:25:55.702,14.6876,51.2502
11:25:55.712,13.5001,50.1252
11:25:55.722,13.125,48.1252
11:25:55.732,11.8125,44.4377
11:25:55.742,11.25,40.3127
11:25:55.752,8.125,35.1876
11:25:55.762,7.8125,29.7501
11:25:55.772,5.6875,24.9376
11:25:55.781,5.0625,19.2501
11:25:55.793,3.375,13.3751
11:25:55.802,1.75,8.8125
11:25:55.811,2,5
11:25:55.822,0.75,0.75
11:25:55.832,0.3125,-0.75
11:25:55.845,-0.375,-0.5
11:25:55.853,0.3125,-1.125
11:25:55.862,0.125,-0.5
11:25:55.872,0.25,1.125
11:25:55.882,0.75,4.9375
11:25:55.914,1.9375,9.125
11:25:55.915,1.8125,10.1875
11:25:55.918,2.1875,12
11:25:55.923,2.25,14.4376
11:25:55.949,2.5625,15.3126
11:25:55.951,2.8125,14.7501
11:25:55.955,1.8125,12.875
11:25:55.964,0.9375,13.5001
11:25:55.997,1,11.8125
11:25:55.999,0.5,10.4375
11:25:56.000,0.5,9.1875
11:25:56.002,-0.1875,8.1875
11:25:56.012,-0.5625,4.75
11:25:56.021,-1.3125,5.1875
11:25:56.055,-1.75,2.8125
11:25:56.056,-2,0.4375
11:25:56.059,-2.5625,-1.6875
11:25:56.063,-2.6875,-1.75
11:25:56.079,-2.8125,-3.75
11:25:56.082,-2.8125,-5
11:25:56.092,-3.5625,-7.6875
11:25:56.102,-3.375,-8.4375
11:25:56.111,-4.25,-8.5625
11:25:56.120,-4.25,-10.9375
11:25:56.132,-3.8125,-11.5625
11:25:56.142,-3.8125,-12.0625
11:25:56.153,-4.125,-13.6876
11:25:56.162,-4.6875,-14.7501
11:25:56.172,-4.5,-14.9376
11:25:56.181,-4.5,-15.5626
11:25:56.193,-4.625,-16.0626
11:25:56.202,-5.1875,-15.7501
11:25:56.211,-4.625,-17.9376
11:25:56.222,-5.25,-19.1251
11:25:56.232,-4.75,-18.4376
11:25:56.242,-4.875,-18.0001
11:25:56.252,-4.4375,-15.5001
11:25:56.262,-2.4375,-9.1875
11:25:56.271,-0.5,2.6875
11:25:56.282,3.8125,17.6251
11:25:56.292,6.1875,30.6876
11:25:56.302,8,40.8127
11:25:56.312,9.1875,46.8127
11:25:56.322,9.5,48.6252
11:25:56.332,9.6875,50.7502
11:25:56.342,10.0625,50.9377
11:25:56.351,8.8125,49.0627
11:25:56.360,8.375,46.8752
11:25:56.370,7.3125,42.5627
11:25:56.382,6.125,39.1251
11:25:56.392,6.0625,33.5001
11:25:56.403,3.8125,28.5626
11:25:56.412,3.5,23.5001
11:25:56.421,2.0625,17.3126
11:25:56.433,1,12.875
11:25:56.442,-0.5,8.375
11:25:56.451,-1.0625,4.8125
11:25:56.462,-1.625,2.75
11:25:56.472,-2.5,1.8125
11:25:56.482,-1.375,3.1875
11:25:56.493,-1.25,4.3125
11:25:56.501,-1,6.8125
11:25:56.513,-0.8125,12
11:25:56.522,0.625,14.6251
11:25:56.532,1.6875,17.6251
11:25:56.540,1.8125,20.2501
11:25:56.552,1.75,21.8126
11:25:56.562,2.375,21.1876
11:25:56.578,0.875,19.8126
11:25:56.611,1,20.0001
11:25:56.612,0.8125,19.6876
11:25:56.615,0.1875,18.0001
11:25:56.651,0,15.9376
11:25:56.679,-0.875,14.1876
11:25:56.683,-0.9375,13.125
11:25:56.686,-0.875,11
11:25:56.687,-1.5,9.8125
11:25:56.687,-0.875,8.6875
11:25:56.692,-1.375,7.1875
11:25:56.725,-1.6875,5.1875
11:25:56.727,-1.875,5.25
11:25:56.730,-1.6875,3.8125
11:25:56.735,-2,1.625
11:25:56.763,-2.375,0.25
11:25:56.765,-2.0625,0.8125
11:25:56.767,-2.8125,-0.3125
11:25:56.772,-3.1875,-2
11:25:56.784,-2.875,-3.125
11:25:56.792,-3.125,-4.125
11:25:56.802,-3.875,-5.75
11:25:56.812,-3.9375,-6.1875
11:25:56.822,-4.0625,-6.9375
11:25:56.832,-4.625,-7
11:25:56.859,-4.875,-9.375
11:25:56.861,-4.5,-11.0625
11:25:56.863,-4.1875,-10.625
11:25:56.873,-3.5625,-12.0625
11:25:56.882,-3.9375,-11.9375
11:25:56.892,-3.1875,-8.5
11:25:56.902,-1.3125,-1.4375
11:25:56.911,1.5,11
11:25:56.922,4,26.5001
11:25:56.932,7.0625,37.2501
11:25:56.942,9.25,45.0002
11:25:56.952,9.625,50.5627
11:25:56.962,10.0625,52.1877
11:25:56.972,9.25,52.3752
11:25:56.982,8.75,51.5627
11:25:56.993,8.8125,48.6877
11:25:57.002,7.25,46.2502
11:25:57.012,6.25,40.4377
11:25:57.022,4.875,34.6251
11:25:57.032,3.875,30.8126
11:25:57.042,3.3125,25.4376
11:25:57.053,2,19.8751
11:25:57.062,1,14.8751
11:25:57.072,-0.875,9.9375
11:25:57.082,-1.9375,6.5
11:25:57.092,-2.1875,4.75
11:25:57.102,-2.0625,2.875
11:25:57.113,-2.875,2.375
11:25:57.122,-2.5,5.6875
11:25:57.132,-0.875,9.125
11:25:57.142,-0.5,11.75
11:25:57.158,0.25,15.5001
11:25:57.162,0.8125,19.8751
11:25:57.172,1,22.0001
11:25:57.182,1.875,22.1251
11:25:57.191,2.0625,21.5626
11:25:57.202,1.8125,21.3126
11:25:57.212,1.5625,20.5001
11:25:57.222,1.0625,19.8126
11:25:57.232,0.6875,19.7501
11:25:57.242,1.6875,17.5626
11:25:57.252,0.6875,14.9376
11:25:57.263,-0.1875,14.1876
11:25:57.272,-0.0625,13
11:25:57.283,0,10.8125
11:25:57.292,-0.6875,8.75
11:25:57.302,-1.4375,8
11:25:57.312,-1.25,5.8125
11:25:57.322,-1.5625,3.5625
11:25:57.332,-1.875,2.125
11:25:57.341,-2.3125,1.6875
11:25:57.352,-2.375,0.5
11:25:57.362,-2,-0.5625
11:25:57.372,-2.5,-2.1875
11:25:57.382,-2.625,-3.125
11:25:57.412,-3.1875,-2.5625
11:25:57.415,-2.9375,-4.3125
11:25:57.418,-3,-5.6875
11:25:57.423,-3.5,-6.75
11:25:57.451,-3.3125,-5.9375
11:25:57.453,-3.1875,-7.0625
11:25:57.454,-3.3125,-8.0625
11:25:57.462,-3.875,-7.4375
11:25:57.497,-3.4375,-8.25
11:25:57.498,-3.375,-9.5625
11:25:57.503,-3.125,-9.8125
11:25:57.535,-3.0625,-11.6875
11:25:57.537,-3.75,-12.75
11:25:57.540,-3,-12.5
11:25:57.548,-3.0625,-13.9376
11:25:57.549,-3.6875,-13.1876
11:25:57.580,-2.6875,-15.1876
11:25:57.582,-3.0625,-14.0626
11:25:57.585,-1.625,-7.3125
11:25:57.587,1.5625,5.1875
11:25:57.597,4.5,19.0001
11:25:57.609,7.125,30.7501
11:25:57.617,8.6875,38.5626
11:25:57.627,9.125,44.4377
11:25:57.637,9.875,45.6877
11:25:57.647,10.0625,46.8752
11:25:57.657,9.625,44.8127
11:25:57.667,8.8125,41.7502
11:25:57.677,8.3125,37.8126
11:25:57.687,7.4375,32.7501
11:25:57.698,5.9375,27.3126
11:25:57.706,4.5625,23.6876
11:25:57.716,4.25,17.7501
11:25:57.728,2.75,12.25
11:25:57.737,2,8.125
11:25:57.747,1.0625,4.375
11:25:57.758,0.1875,0.6875
11:25:57.767,-0.3125,-1.25
11:25:57.777,-0.8125,-0.8125
11:25:57.789,-0.4375,0.3125
11:25:57.797,0.1875,2.5
11:25:57.807,0.9375,5.4375
11:25:57.817,2.125,9.3125
11:25:57.827,2.4375,14.7501
11:25:57.837,4.3125,17.1251
11:25:57.847,3.125,17.3751
11:25:57.857,2.9375,18.2501
11:25:57.873,3.0625,17.7501
11:25:57.877,3.8125,17.7501
11:25:57.893,3.5625,16.3126
11:25:57.897,3.375,16.1876
11:25:57.907,2.8125,14.5001
11:25:57.917,2.6875,12.875
11:25:57.927,1.6875,10.375
11:25:57.943,1.875,9.9375
11:25:57.963,1.1875,7.0625
11:25:57.965,0.25,5.4375
11:25:57.969,0.4375,3.375
11:25:57.977,0.0625,2.5
11:25:57.987,0.4375,0.5
11:25:57.997,-0.375,0.9375
11:25:58.009,-0.4375,-1.8125
11:25:58.017,-1.0625,-3.25
11:25:58.027,-1.9375,-3.6875
11:25:58.037,-1.1875,-4
11:25:58.047,-1.625,-4.875
11:25:58.057,-2.125,-6.5
11:25:58.067,-2.25,-7.8125
11:25:58.079,-2.25,-7.375
11:25:58.095,-2.375,-8.1875
11:25:58.097,-2.4375,-8.4375
11:25:58.128,-2.75,-9.125
11:25:58.131,-3.125,-8.9375
11:25:58.133,-3.1875,-10.625
11:25:58.147,-2.1875,-11.4375
11:25:58.153,-3.4375,-12.3125
11:25:58.157,-3.875,-12.9375
11:25:58.185,-3.5625,-13.2501
11:25:58.187,-3.0625,-14.3126
11:25:58.191,-3.4375,-14.9376
11:25:58.197,-3.5625,-14.8126
11:25:58.230,-4,-16.8751
11:25:58.231,-3.9375,-17.3751
11:25:58.233,-3,-17.8751
11:25:58.241,-3.5,-19.5001
11:25:58.250,-4.3125,-18.8751
11:25:58.257,-4.375,-19.0001
11:25:58.269,-3.5625,-16.3751
11:25:58.279,-1.5625,-6.6875
11:25:58.287,1.8125,4.8125
11:25:58.297,5.0625,16.7501
11:25:58.307,6.6875,27.3751
11:25:58.317,7.875,32.9376
11:25:58.327,9.0625,35.6876
11:25:58.342,9.0625,37.3126
11:25:58.347,9.3125,36.5626
11:25:58.357,7.875,34.3751
11:25:58.367,7.8125,31.5001
11:25:58.378,7.0625,27.0626
11:25:58.387,5.6875,22.0001
11:25:58.397,5.25,17.5001
11:25:58.408,3.5,13.4376
11:25:58.417,2.8125,7.625
11:25:58.427,1.125,2.75
11:25:58.437,0.5625,-0.875
11:25:58.447,-0.25,-6.3125
11:25:58.489,-1.5,-7.5
11:25:58.491,-1.125,-8.6875
11:25:58.492,-1.125,-9.8125
11:25:58.495,-1.25,-8.6875
11:25:58.497,-0.75,-4.875
11:25:58.538,-0.375,-0.25
11:25:58.541,0.9375,2.6875
11:25:58.543,1.5,5.375
11:25:58.548,1.625,7.875
11:25:58.549,1.875,10
11:25:58.557,2.5,9.125
11:25:58.587,2.1875,9.0625
11:25:58.589,2.375,8.8125
11:25:58.592,2.1875,9.0625
11:25:58.599,2.5625,7.4375
11:25:58.631,2,5.1875
11:25:58.632,0.8125,4.25
11:25:58.634,1.0625,3
11:25:58.644,1.125,0.875
11:25:58.651,0.8125,-0.125
11:25:58.659,0.125,-1.6875
11:25:58.667,-0.1875,-3.9375
11:25:58.677,-0.125,-3.5625
11:25:58.688,0.0625,-5.5
11:25:58.697,-0.375,-7.125
11:25:58.706,-0.6875,-8.75
11:25:58.717,-1.1875,-8.1875
11:25:58.727,-1.8125,-9.9375
11:25:58.737,-1.3125,-11.1875
11:25:58.747,-1,-12.5
11:25:58.757,-1.0625,-11.9375
11:25:58.767,-1.125,-12.625
11:25:58.778,-1.625,-13
11:25:58.787,-1.4375,-14.6251
11:25:58.796,-1.6875,-14.6251
11:25:58.807,-1.9375,-13.7501
11:25:58.817,-1.625,-14.4376
11:25:58.827,-1.6875,-15.7501
11:25:58.836,-1.875,-15.8126
11:25:58.847,-2.0625,-16.9376
11:25:58.857,-1.6875,-16.0001
11:25:58.867,-2.0625,-16.4376
11:25:58.877,-1.9375,-17.2501
11:25:58.887,-2.875,-17.4376
11:25:58.898,-2,-18.3751
11:25:58.906,-2.375,-19.4376
11:25:58.917,-2.25,-18.3751
11:25:58.928,-2.1875,-20.6251
11:25:58.938,-2.5,-20.4376
11:25:58.946,-1.9375,-21.8751
11:25:58.957,-2.375,-23.0626
11:25:58.967,-2.9375,-22.1251
11:25:58.978,-2.4375,-23.6876
11:25:58.987,-2.4375,-24.3126
11:25:58.998,-1.625,-22.5626
11:25:59.007,-1.6875,-19.6876
11:25:59.017,0.125,-10
11:25:59.027,4.75,3.3125
11:25:59.037,6.625,13.5626
11:25:59.047,8.1875,23.5626
11:25:59.058,9.1875,27.9376
11:25:59.067,9.5,29.7501
11:25:59.077,10.6875,31.6251
11:25:59.089,10.25,29.1876
11:25:59.099,10,27.5626
11:25:59.107,9.5,24.1876
11:25:59.117,7.6875,21.3126
11:25:59.127,7.5,17.0626
11:25:59.137,6.375,10.625
11:25:59.147,5.125,6.8125
11:25:59.157,3.6875,1.25
11:25:59.177,3.4375,-3.0625
11:25:59.183,2.1875,-8
11:25:59.222,0.8125,-10.625
11:25:59.223,0.625,-12.4375
11:25:59.226,-0.125,-13.8751
11:25:59.263,-0.25,-13.8126
11:25:59.263,1.0625,-12.3125
11:25:59.265,1.1875,-9
11:25:59.267,2.25,-5.75
11:25:59.272,2.8125,-0.125
11:25:59.273,3.5625,3.75
11:25:59.278,4.5,5.0625
11:25:59.308,4.625,5.875
11:25:59.309,4.75,5.25
11:25:59.312,4.375,5.75
11:25:59.320,4,5.5625
11:25:59.350,4.625,3.25
11:25:59.352,4.625,2.25
11:25:59.355,3.9375,0.125
11:25:59.361,3.1875,0.3125
11:25:59.367,2.625,-1.4375
11:25:59.377,3.0625,-2.5
11:25:59.387,2.5,-4.6875
11:25:59.419,2.1875,-6.8125
11:25:59.421,1.75,-6.3125
11:25:59.423,1.6875,-7.3125
11:25:59.427,1.875,-8.5625
11:25:59.438,2.3125,-9.1875
11:25:59.447,2.25,-10.6875
11:25:59.457,1.75,-12.3125
11:25:59.467,1.5,-13.125
11:25:59.477,1.9375,-13.0625
11:25:59.487,1.5,-13.2501
11:25:59.497,1.8125,-14.2501
11:25:59.507,1.1875,-14.3751
11:25:59.517,1.4375,-15.4376
11:25:59.527,1.5,-13.6876
11:25:59.537,1.625,-15.4376
11:25:59.547,1.8125,-16.0001
11:25:59.558,1.4375,-15.1251
11:25:59.568,2.9375,-15.6876
11:25:59.576,2.625,-16.0626
11:25:59.587,1.8125,-15.5626
11:25:59.597,2.625,-16.6876
11:25:59.607,2.0625,-17.1876
11:25:59.617,2.1875,-17.3751
11:25:59.628,2.875,-17.6876
11:25:59.637,2.3125,-19.4376
11:25:59.647,1.9375,-19.3751
11:25:59.659,2.3125,-18.8126
11:25:59.667,2.8125,-19.7501
11:25:59.677,2.25,-21.5626
11:25:59.687,1.5625,-21.3126
11:25:59.697,2.125,-21.5001
11:25:59.707,2.375,-22.2501
11:25:59.717,2.25,-23.1876
11:25:59.727,2.625,-21.8126
11:25:59.737,2.3125,-23.0001
11:25:59.747,3,-24.4376
11:25:59.757,1.625,-25.3126
11:25:59.767,2.1875,-24.0001
11:25:59.778,2.1875,-25.9376
11:25:59.787,2.1875,-26.3126
11:25:59.797,2.5625,-23.9376
11:25:59.807,3.625,-15.3126
11:25:59.817,6.5,-4.875
11:25:59.826,9.375,4.9375
11:25:59.843,10.5625,12.8125
11:25:59.849,11.5,19.3751
11:25:59.857,12,22.3751
11:25:59.867,13.1876,22.5001
11:25:59.877,12.5625,21.3126
11:25:59.887,11.9375,21.7501
11:25:59.897,11.9375,18.2501
11:25:59.907,11.5,14.6251
11:25:59.917,10.375,11.375
11:25:59.927,10.1875,8
11:25:59.937,9.625,2.3125
11:25:59.947,7.9375,-2.25
11:25:59.965,7.0625,-5.25
11:25:59.968,6.9375,-9.4375
11:25:59.995,6.0625,-12.9375
11:25:59.997,4.875,-15.3751
11:26:00.002,4.5625,-16.3751
11:26:00.009,4.25,-17.2501
11:26:00.038,4.1875,-17.6876
11:26:00.040,4.875,-15.1876
11:26:00.042,5.3125,-13.5001
11:26:00.049,6.125,-8.5625
11:26:00.077,7.0625,-5.375
11:26:00.080,8.3125,-1.5625
11:26:00.082,8.25,-0.9375
11:26:00.116,7.6875,0
11:26:00.116,8.125,1
11:26:00.118,8.0625,-0.4375
11:26:00.125,8.4375,-1.5
11:26:00.133,7.375,-2.0625
11:26:00.140,7.375,-2.8125
11:26:00.147,7.5,-4.625
11:26:00.157,6.6875,-5.4375
11:26:00.167,6.6875,-6.625
11:26:00.177,6.4375,-8
11:26:00.187,6.0625,-10.0625
11:26:00.198,5.5,-10.3125
11:26:00.206,5.875,-12
11:26:00.221,4.75,-13.125
11:26:00.227,4.3125,-12.875
11:26:00.237,4.4375,-14.0626
11:26:00.247,4.5625,-15.1876
11:26:00.257,4.4375,-16.1876
11:26:00.267,4,-17.1251
11:26:00.277,4.6875,-15.5626
11:26:00.287,4.9375,-16.9376
11:26:00.298,5,-17.6251
11:26:00.307,4.25,-16.2501
11:26:00.317,4.5625,-17.2501
11:26:00.327,4.75,-17.9376
11:26:00.337,5.25,-17.6876
11:26:00.348,4.9375,-17.2501
11:26:00.357,4.875,-18.8751
11:26:00.367,4.5,-19.3126
11:26:00.377,4.5625,-18.8126
11:26:00.387,4.3125,-17.7501
11:26:00.397,4.8125,-18.0001
11:26:00.407,4.5625,-19.1251
11:26:00.418,4.125,-18.8751
11:26:00.426,4.5625,-17.7501
11:26:00.437,4.6875,-19.5626
11:26:00.447,4.375,-20.8126
11:26:00.457,4.3125,-20.5001
11:26:00.479,4.8125,-20.5626
11:26:00.485,4.375,-21.9376
11:26:00.488,4.25,-22.1251
11:26:00.502,5.1875,-20.2501
11:26:00.508,4.75,-22.6876
11:26:00.518,4.25,-21.8126
11:26:00.528,4.5625,-22.3751
11:26:00.543,5.4375,-22.6876
11:26:00.560,5.25,-22.9376
11:26:00.560,4.4375,-23.5001
11:26:00.567,4.5625,-19.8751
11:26:00.578,5.9375,-14.3126
11:26:00.587,8.125,-7.6875
11:26:00.597,10.625,1.375
11:26:00.607,11.375,7.75
11:26:00.617,12.625,13.7501
11:26:00.627,12.75,17.1876
11:26:00.638,13.0625,17.8751
11:26:00.647,13,18.1251
11:26:00.662,13.0625,15.5626
11:26:00.673,13.4376,14.1251
11:26:00.700,12.4375,10.5625
11:26:00.703,11.1875,8.125
11:26:00.707,10.5,4.375
11:26:00.712,10.3125,0.375
11:26:00.722,9.1875,-2.75
11:26:00.745,8.5625,-5.3125
11:26:00.747,8.0625,-9.1875
11:26:00.778,7,-12.8125
11:26:00.779,6.75,-15.1251
11:26:00.784,5.875,-15.1251
11:26:00.784,6.0625,-16.2501
11:26:00.815,6.0625,-16.9376
11:26:00.821,5.5625,-15.6876
11:26:00.823,5.3125,-12.375
11:26:00.823,6.1875,-10.375
11:26:00.862,7.0625,-7.1875
11:26:00.862,7.375,-6.25
11:26:00.865,7,-6.125
11:26:00.893,6.75,-4.3125
11:26:00.895,8,-4.6875
11:26:00.896,7.875,-5.125
11:26:00.898,6.9375,-6.5
11:26:00.903,6.75,-6.9375
11:26:00.912,6.875,-6.875
11:26:00.922,7.1875,-8.75
11:26:00.931,6.5,-9.3125
11:26:00.941,6.375,-10.875
11:26:00.952,5.6875,-10
11:26:00.962,6.1875,-11.5
11:26:00.971,5.75,-13.1876
11:26:00.982,5.5,-14.1876
11:26:00.991,4.5,-14.3751
11:26:01.002,4.9375,-15.9376
11:26:01.012,4.4375,-17.1876
11:26:01.021,4.4375,-18.4376
11:26:01.032,4,-18.1251
11:26:01.042,3.9375,-19.0001
11:26:01.052,4.625,-19.2501
11:26:01.062,4.5,-18.6251
11:26:01.073,4.25,-20.1876
11:26:01.082,3.9375,-20.5626
11:26:01.092,3.25,-21.3751
11:26:01.102,3.5625,-21.0626
11:26:01.112,3.625,-20.5626
11:26:01.122,4.3125,-21.5001
11:26:01.131,3.625,-22.0001
11:26:01.142,3.5,-21.3751
11:26:01.152,3.75,-21.6876
11:26:01.162,4.125,-21.3751
11:26:01.172,3.625,-20.6251
11:26:01.181,3.375,-22.6251
11:26:01.192,3.6875,-23.0001
11:26:01.202,3.125,-23.1876
11:26:01.212,3.125,-22.8126
11:26:01.221,2.9375,-25.0626
11:26:01.232,2.3125,-24.6251
11:26:01.242,2.25,-26.1251
11:26:01.252,2.4375,-26.8126
11:26:01.261,1.8125,-26.7501
11:26:01.271,3.0625,-26.5626
11:26:01.281,3.1875,-27.0626
11:26:01.292,2.375,-26.0626
11:26:01.302,3.1875,-25.1876
11:26:01.311,3.75,-22.3751
11:26:01.321,5.9375,-14.5001
11:26:01.332,7.8125,-6.8125
11:26:01.345,8.9375,0.75
11:26:01.352,10.8125,8.1875
11:26:01.362,11.5,12
11:26:01.371,12.6875,13.125
11:26:01.382,12.125,13.5001
11:26:01.392,12.625,14.0001
11:26:01.402,12.0625,11.75
11:26:01.412,11.5,10.75
11:26:01.421,11.75,6.875
11:26:01.431,10.5625,4.125
11:26:01.459,9.375,-0.875
11:26:01.462,8,-2.9375
11:26:01.464,8.0625,-6.875
11:26:01.495,7.5,-10.9375
11:26:01.499,6.5,-13.2501
11:26:01.502,5.75,-15.8126
11:26:01.529,5.375,-18.1251
11:26:01.535,4.6875,-19.5626
11:26:01.536,4.6875,-19.9376
11:26:01.537,4.6875,-18.5626
11:26:01.567,4.5625,-16.6876
11:26:01.571,5.625,-14.6876
11:26:01.572,5.6875,-12.375
11:26:01.601,6.0625,-10.5625
11:26:01.602,5.5,-9.0625
11:26:01.604,5.3125,-8.3125
11:26:01.609,6.375,-6.625
11:26:01.621,6.9375,-7
11:26:01.628,6.625,-7.9375
11:26:01.636,6.5,-7.75
11:26:01.647,5.75,-9.3125
11:26:01.656,6.25,-9.0625
11:26:01.667,6.4375,-10.75
11:26:01.677,6.0625,-11.6875
11:26:01.686,5.625,-11.875
11:26:01.696,6.625,-12.875
11:26:01.707,6.125,-13.6251
11:26:01.723,6.25,-14.3751
11:26:01.728,5.6875,-13.8126
11:26:01.736,6,-14.7501
11:26:01.747,6,-15.8751
11:26:01.756,5.1875,-17.6876
11:26:01.779,5.875,-16.4376
11:26:01.785,5.5625,-18.3751
11:26:01.788,4.6875,-18.1251
11:26:01.801,4.0625,-18.5626
11:26:01.810,4.9375,-19.5001
11:26:01.818,4.375,-20.5001
11:26:01.838,4.8125,-19.2501
11:26:01.843,5.5,-20.1251
11:26:01.857,4.6875,-20.2501
11:26:01.871,4.25,-21.3126
11:26:01.875,5.375,-19.2501
11:26:01.878,5.875,-20.1876
11:26:01.886,4.9375,-20.2501
11:26:01.897,4.9375,-19.1876
11:26:01.907,4.75,-20.3126
11:26:01.917,5.625,-21.2501
11:26:01.926,5.125,-21.8751
11:26:01.937,5.25,-21.6251
11:26:01.947,5.8125,-19.8751
11:26:01.978,5.625,-20.6876
11:26:01.980,5.6875,-20.7501
11:26:01.984,5.6875,-22.1876
11:26:01.991,5.5,-22.0001
11:26:01.997,4.75,-21.5626
11:26:02.007,5.8125,-22.5001
11:26:02.017,5.6875,-22.0001
11:26:02.027,6.125,-21.7501
11:26:02.036,6.3125,-19.8751
11:26:02.046,6.875,-17.5001
11:26:02.057,8.1875,-11.5625
11:26:02.067,9.9375,-2.5
11:26:02.077,12.0625,4.375
11:26:02.086,12.25,7.9375
11:26:02.100,13.125,10.625
11:26:02.107,13.2501,13.7501
11:26:02.117,13.6876,13.2501
11:26:02.126,13.5001,12.25
11:26:02.136,13.2501,10.75
11:26:02.146,12.6875,9
11:26:02.182,12.5,6.5
11:26:02.185,12.3125,3.0625
11:26:02.187,11.9375,0.125
11:26:02.189,10.5625,-2.125
11:26:02.224,10.5,-4.9375
11:26:02.227,10.1875,-7.5
11:26:02.229,9,-10.875
11:26:02.232,9.375,-12.0625
11:26:02.236,8.625,-13.6876
11:26:02.268,8.375,-14.3126
11:26:02.271,7.75,-15.0626
11:26:02.273,7.8125,-13.2501
11:26:02.278,8.5,-12.0625
11:26:02.302,8.875,-10.75
11:26:02.304,8.5625,-7.75
11:26:02.309,8.875,-5.125
11:26:02.317,10.625,-4.6875
11:26:02.339,10.3125,-3.5
11:26:02.341,10,-3.25
11:26:02.348,9.9375,-4.25
11:26:02.357,9.875,-2.9375
11:26:02.366,9.8125,-3.75
11:26:02.377,9.875,-5.1875
11:26:02.387,9.375,-5.1875
11:26:02.398,9.625,-5.8125
11:26:02.407,8.625,-6.5625
11:26:02.416,8.6875,-7.0625
11:26:02.427,8.875,-8
11:26:02.437,8.625,-9.5
11:26:02.447,8.3125,-9.1875
11:26:02.459,8.3125,-9.5625
11:26:02.467,8.5625,-10.875
11:26:02.477,8.0625,-11.6875
11:26:02.491,8.1875,-10.75
11:26:02.499,8.375,-12.75
11:26:02.507,7.6875,-12.8125
11:26:02.517,7.375,-12.5625
11:26:02.529,7.75,-13.9376
11:26:02.537,7.6875,-14.4376
11:26:02.547,7.625,-13.7501
11:26:02.557,7.4375,-14.7501
11:26:02.566,7.5,-15.2501
11:26:02.576,7.1875,-15.9376
11:26:02.586,7.3125,-14.6251
11:26:02.597,6.375,-16.5001
11:26:02.608,6.125,-15.8751
11:26:02.617,6.5,-16.7501
11:26:02.627,6.75,-17.7501
11:26:02.637,6.4375,-18.0626
11:26:02.646,5.875,-17.2501
11:26:02.656,5.6875,-17.3751
11:26:02.668,6.5625,-18.0626
11:26:02.676,6.0625,-18.9376
11:26:02.686,5.5625,-18.6876
11:26:02.696,6,-18.9376
11:26:02.707,6.0625,-20.0001
11:26:02.717,5.5,-20.7501
11:26:02.726,5.6875,-19.6876
11:26:02.736,5.625,-19.3751
11:26:02.746,6.5625,-18.6876
11:26:02.757,6.0625,-15.3126
11:26:02.766,7.75,-9.125
11:26:02.781,8.875,-3.75
11:26:02.787,10.1875,3.125
11:26:02.797,11.0625,7.8125
11:26:02.807,11.6875,11.125
11:26:02.817,12.375,10.9375
11:26:02.826,12.0625,11.9375
11:26:02.837,11.8125,11.6875
11:26:02.849,12.3125,10.6875
11:26:02.882,11.9375,8.625
11:26:02.885,11.1875,6.9375
11:26:02.887,11.625,3.625
11:26:02.890,10.5625,0.5
11:26:02.919,9.375,-2.75
11:26:02.922,9.5,-3.75
11:26:02.924,9.125,-7.625
11:26:02.929,8.1875,-9.9375
11:26:02.960,8.4375,-12
11:26:02.963,7.9375,-12.5625
11:26:02.965,7.25,-13.3126
11:26:02.969,6.5,-13.9376
11:26:02.997,7.125,-12.6875
11:26:02.999,7.3125,-11.1875
11:26:03.002,8.375,-9.375
11:26:03.028,8.4375,-7.125
11:26:03.031,8.625,-5.1875
11:26:03.033,8.6875,-3.5
11:26:03.038,9,-1.5
11:26:03.047,10.125,-1.25
11:26:03.056,9.75,-2.375
11:26:03.066,10.3125,-1.3125
11:26:03.086,10.5625,-2.75
11:26:03.093,9.25,-3.875
11:26:03.109,9.25,-2.75
11:26:03.111,8.9375,-4
11:26:03.119,8.5,-5.625
11:26:03.127,8.75,-5.8125
11:26:03.142,8.875,-6.625
11:26:03.149,9.375,-6.875
11:26:03.156,8.5,-7.6875
11:26:03.173,8.875,-8.5
11:26:03.189,9.125,-9.4375
11:26:03.191,8.125,-9.875
11:26:03.197,7.9375,-9.1875
11:26:03.206,7.8125,-10.5
11:26:03.216,8.25,-10.9375
11:26:03.226,8.5625,-10.4375
11:26:03.258,8.3125,-11.25
11:26:03.261,8.4375,-11.6875
11:26:03.263,7.6875,-11.875
11:26:03.268,7.9375,-11.0625
11:26:03.276,8.8125,-11.875
11:26:03.286,7.8125,-12
11:26:03.297,7.6875,-11.6875
11:26:03.306,8.6875,-11.75
11:26:03.316,8.125,-13.1251
11:26:03.326,8.125,-12
11:26:03.336,8.5625,-12.375
11:26:03.347,8.875,-12.25
11:26:03.357,8.125,-11.875
11:26:03.366,9.125,-10.375
11:26:03.376,9.6875,-10.9375
11:26:03.387,9.625,-10.0625
11:26:03.403,11.0625,-9.6875
11:26:03.408,11.5,-8.4375
11:26:03.416,12.25,-8.1875
11:26:03.427,12.1875,-6.5625
11:26:03.437,13.5626,-4.5
11:26:03.447,16.0626,-1.3125
11:26:03.457,17.0001,0.3125
11:26:03.466,19.4376,7.6875
11:26:03.477,22.3126,15.3126
11:26:03.487,25.3751,26.3751
11:26:03.497,29.0001,37.0001
11:26:03.506,25.0001,39.6877
11:26:03.516,29.4376,44.6877
11:26:03.527,31.6251,50.6252
11:26:03.537,32.1876,54.7502
11:26:03.547,32.0626,52.1252
11:26:03.556,30.1251,48.8127
11:26:03.566,25.3751,42.1252
11:26:03.577,20.9376,31.5626
11:26:03.588,16.6251,23.7501
11:26:03.596,15.3126,17.9376
11:26:03.609,12.75,11.8125
11:26:03.643,12.125,10.4375
11:26:03.645,14.4376,10.75
11:26:03.648,16.3126,12.875
11:26:03.651,18.1251,14.5001
11:26:03.657,20.0001,15.6876
11:26:03.685,22.5001,20.3751
11:26:03.688,28.5001,28.4376
11:26:03.690,35.1251,40.0002
11:26:03.697,42.6252,55.3127
11:26:03.737,47.4377,63.3752
11:26:03.740,54.3127,75.5628
11:26:03.742,58.6252,85.8128
11:26:03.769,60.6252,89.7503
11:26:03.772,61.6252,91.7504
11:26:03.774,62.2502,93.3754
11:26:03.776,63.3752,96.1879
11:26:03.779,65.0627,96.6879
11:26:03.787,65.7503,98.0629
11:26:03.799,67.3753,99.4379
11:26:03.806,68.6878,101.9379
11:26:03.816,70.7503,104.4379
11:26:03.828,71.1253,104.3754
11:26:03.838,71.1253,104.8754
11:26:03.849,73.0628,107.2504
11:26:03.857,73.8753,109.8754
11:26:03.867,73.3753,107.6879
11:26:03.877,69.0003,100.0629
11:26:03.886,62.5002,89.4378
11:26:03.896,56.3752,78.2503
11:26:03.906,51.5627,69.3128
11:26:03.917,49.0002,64.8753
11:26:03.927,46.8752,61.6877
11:26:03.937,41.5002,50.2502
11:26:03.947,41.0627,50.4377
11:26:03.957,46.8752,58.1877
11:26:03.967,57.1877,74.5003
11:26:03.977,65.9378,91.2504
11:26:03.987,62.0002,86.0003
11:26:03.997,53.9377,73.3128
11:26:04.006,46.0002,60.7502
11:26:04.017,39.9377,48.9377
11:26:04.028,34.5626,41.1877
11:26:04.037,30.1251,33.5626
11:26:04.047,26.7501,27.8126
11:26:04.056,23.5001,22.4376
11:26:04.067,22.0626,19.1251
11:26:04.077,19.0001,14.3126
11:26:04.087,16.6876,10.8125
11:26:04.096,15.4376,7.8125
11:26:04.106,13.4376,4.25
11:26:04.117,12.0625,2.625
11:26:04.128,11.125,0
11:26:04.137,10.625,-2.0625
11:26:04.147,9.625,-4.125
11:26:04.157,8.4375,-5.875
11:26:04.167,7.5,-7.9375
11:26:04.180,5.875,-10.25
11:26:04.188,5.5,-10.25
11:26:04.199,5.8125,-8.875
11:26:04.208,5.875,-3.8125
11:26:04.218,5.125,-1.4375
11:26:04.227,2.75,-1.0625
11:26:04.238,0.5,-1.8125
11:26:04.247,-1.1875,-3.5625
11:26:04.262,-7,-12.6875
11:26:04.268,-15.2501,-25.7501
11:26:04.287,-26.1876,-42.9377
11:26:04.290,-35.1876,-58.8752
11:26:04.313,-46.1252,-78.5003
11:26:04.314,-60.8752,-103.1879
11:26:04.321,-77.7503,-133.188
11:26:04.327,-91.0629,-158.8131
11:26:04.337,-97.1254,-171.6882
11:26:04.347,-101.8754,-182.0007
11:26:04.357,-104.3754,-189.2507
11:26:04.367,-105.5004,-192.5632
11:26:04.377,-104.8129,-193.5007
11:26:04.394,-103.2504,-191.3757
11:26:04.423,-100.1879,-189.0632
11:26:04.425,-97.2504,-183.2507
11:26:04.487,-92.6879,-176.8757
11:26:04.487,-89.3753,-169.2506
11:26:04.519,-84.5003,-161.6256
11:26:04.522,-80.1878,-151.6881
11:26:04.550,-73.5628,-140.6255
11:26:04.573,-66.8753,-127.1255
11:26:04.573,-61.6252,-118.2505
11:26:04.574,-57.0627,-110.6879
11:26:04.577,-53.9377,-105.0629
11:26:04.582,-53.6252,-104.5004
11:26:04.584,-53.8752,-104.6879
11:26:04.584,-56.3752,-108.6879
11:26:04.587,-58.0627,-112.6254
11:26:04.597,-60.5627,-115.8754
11:26:04.606,-61.3127,-120.3755
11:26:04.618,-63.0627,-121.563
11:26:04.627,-62.0002,-123.5005
11:26:04.636,-62.2502,-123.3755
11:26:04.648,-61.8752,-122.8755
11:26:04.657,-61.0627,-122.7505
11:26:04.666,-58.8127,-119.813
11:26:04.679,-57.5627,-116.3129
11:26:04.687,-55.3127,-114.8129
11:26:04.698,-51.6877,-112.0004
11:26:04.707,-50.1252,-109.1254
11:26:04.718,-49.5627,-109.8129
11:26:04.727,-49.1877,-107.8129
11:26:04.736,-48.2502,-107.2504
11:26:04.746,-46.8127,-104.9379
11:26:04.757,-46.1877,-103.1254
11:26:04.767,-44.1877,-101.1879
11:26:04.777,-43.5002,-98.1254
11:26:04.786,-40.9377,-95.8129
11:26:04.797,-37.0626,-90.3129
11:26:04.807,-33.1251,-83.1878
11:26:04.817,-23.9376,-69.2503
11:26:04.827,-12.125,-50.7502
11:26:04.836,-0.75,-32.2501
11:26:04.847,9.5625,-15.6251
11:26:04.857,19.3126,2.5
11:26:04.867,31.8751,20.8751
11:26:04.876,44.1877,42.3127
11:26:04.888,56.9377,62.8127
11:26:04.898,68.5628,82.2503
11:26:04.907,77.4378,99.1879
11:26:04.917,84.4378,110.7504
11:26:04.926,92.0004,126.188
11:26:04.937,98.0004,143.938
11:26:04.946,104.7504,159.0006
11:26:04.957,112.0004,175.4382
11:26:04.966,116.6254,187.7507
11:26:04.976,121.688,197.3758
11:26:04.986,125.063,206.5008
11:26:04.999,129.6255,213.7508
11:26:05.008,130.813,216.1258
11:26:05.018,130.1255,214.3133
11:26:05.026,129.813,212.7508
11:26:05.058,128.938,209.8133
11:26:05.061,128.0005,206.9383
11:26:05.063,126.438,203.8133
11:26:05.090,125.8755,199.6883
11:26:05.092,124.2505,195.5632
11:26:05.094,122.7505,193.1882
11:26:05.096,122.938,188.6257
11:26:05.108,121.563,186.2507
11:26:05.134,119.438,181.1257
11:26:05.137,118.0005,177.4382
11:26:05.139,116.5629,175.1257
11:26:05.148,115.3129,173.2507
11:26:05.177,113.5629,171.6882
11:26:05.180,112.6254,170.1881
11:26:05.182,111.1254,169.0631
11:26:05.187,110.2504,167.0631
11:26:05.214,108.2504,165.5006
11:26:05.219,107.6879,164.0006
11:26:05.219,106.5004,160.6881
11:26:05.228,104.5629,159.5631
11:26:05.237,102.8129,155.4381
11:26:05.247,101.5004,153.8756
11:26:05.259,99.1879,150.5631
11:26:05.267,97.5004,146.3755
11:26:05.276,89.9378,134.7505
11:26:05.287,85.5628,128.0005
11:26:05.300,81.1253,118.6255
11:26:05.307,78.7503,114.3129
11:26:05.318,73.7503,105.8754
11:26:05.328,68.6878,97.6879
11:26:05.336,63.6877,89.5628
11:26:05.347,59.8127,81.8128
11:26:05.358,56.6252,76.2503
11:26:05.367,53.7502,70.0003
11:26:05.376,50.8127,65.3128
11:26:05.387,49.0002,60.5627
11:26:05.397,47.6252,57.6877
11:26:05.407,45.5002,54.9377
11:26:05.416,43.8127,52.5627
11:26:05.426,42.8752,48.6252
11:26:05.437,42.3127,46.6877
11:26:05.447,41.2502,45.5627
11:26:05.457,40.0002,43.3752
11:26:05.468,38.8751,41.0627
11:26:05.477,38.1251,39.4377
11:26:05.488,37.6876,38.5626
11:26:05.496,37.3751,38.5001
11:26:05.508,38.0626,37.8126
11:26:05.518,35.1876,35.3126
11:26:05.526,31.9376,28.0626
11:26:05.538,25.0001,18.0001
11:26:05.553,20.0001,8.875
11:26:05.563,13.5626,-3.25
11:26:05.573,7.3125,-13.5001
11:26:05.583,0.5,-24.9376
11:26:05.591,-6.5625,-37.4376
11:26:05.603,-13.5001,-49.4377
11:26:05.613,-22.4376,-62.8752
11:26:05.621,-34.8751,-78.1878
11:26:05.633,-48.8752,-96.5004
11:26:05.641,-65.0003,-118.1255
11:26:05.651,-79.6878,-139.438
11:26:05.663,-84.0003,-145.5005
11:26:05.672,-85.2503,-148.0006
11:26:05.683,-86.6253,-149.1881
11:26:05.698,-86.2503,-150.1256
11:26:05.713,-85.5003,-150.1881
11:26:05.715,-84.5628,-149.8756
11:26:05.726,-81.5003,-148.3131
11:26:05.733,-79.7503,-145.563
11:26:05.748,-77.3753,-143.188
11:26:05.763,-74.6253,-141.563
11:26:05.765,-72.4378,-137.6255
11:26:05.772,-70.2503,-136.563
11:26:05.808,-67.0628,-134.0005
11:26:05.811,-65.1877,-131.313
11:26:05.813,-62.6252,-128.3755
11:26:05.834,-61.0627,-125.188
11:26:05.838,-59.2502,-121.7505
11:26:05.905,-57.0627,-118.938
11:26:05.906,-55.6252,-114.0004
11:26:05.907,-53.5002,-111.6254
11:26:05.910,-52.6252,-107.0629
11:26:05.916,-51.4377,-106.0629
11:26:05.916,-51.2502,-103.5004
11:26:05.916,-50.5627,-103.6879
11:26:05.949,-50.9377,-101.6254
11:26:05.950,-50.2502,-101.8754
11:26:05.953,-50.4377,-102.0004
11:26:05.955,-50.8752,-100.7504
11:26:05.964,-50.2502,-101.3754
11:26:05.972,-50.1877,-100.8754
11:26:05.983,-49.8127,-102.0629
11:26:05.992,-48.9377,-100.7504
11:26:06.003,-49.1252,-100.6879
11:26:06.013,-47.3752,-98.9379
11:26:06.023,-46.4377,-98.6879
11:26:06.032,-45.2502,-95.9379
11:26:06.042,-44.6877,-96.3129
11:26:06.053,-43.5627,-94.4379
11:26:06.062,-42.1252,-92.8129
11:26:06.075,-41.5002,-91.7504
11:26:06.082,-39.0001,-88.9378
11:26:06.091,-35.5001,-85.0003
11:26:06.103,-32.5001,-80.7503
11:26:06.112,-26.8126,-71.2503
11:26:06.123,-16.1251,-54.8127
11:26:06.133,-1.6875,-31.1876
11:26:06.143,11.25,-8.375
11:26:06.153,25.2501,12.75
11:26:06.164,39.5002,39.5002
11:26:06.172,56.1877,66.3753
11:26:06.181,72.5003,97.1879
11:26:06.193,87.6253,121.438
11:26:06.201,100.1879,143.938
11:26:06.212,111.5629,164.8131
11:26:06.223,123.938,184.5007
11:26:06.231,128.8755,197.5008
11:26:06.241,128.5005,197.0632
11:26:06.252,128.438,199.5008
11:26:06.262,128.0005,201.0633
11:26:06.273,128.313,207.4383
11:26:06.282,129.563,212.8133
11:26:06.293,130.8755,218.3758
11:26:06.304,130.063,221.2509
11:26:06.313,129.063,220.5008
11:26:06.322,126.813,218.8758
11:26:06.333,123.6255,215.3758
11:26:06.342,122.188,210.3133
11:26:06.353,120.313,206.5633
11:26:06.363,118.313,201.6258
11:26:06.372,116.0629,195.8757
11:26:06.383,114.3129,191.8132
11:26:06.392,112.8754,187.3132
11:26:06.402,111.7504,181.7507
11:26:06.413,110.5629,178.1882
11:26:06.422,108.5004,173.3132
11:26:06.433,105.6879,169.0006
11:26:06.443,104.1879,164.0631
11:26:06.453,102.0629,160.3756
11:26:06.463,100.0629,156.6256
11:26:06.473,98.5004,154.0631
11:26:06.481,96.2504,152.2506
11:26:06.492,95.7504,151.1881
11:26:06.503,95.2504,151.0631
11:26:06.512,93.3754,150.0006
11:26:06.522,91.5629,147.6256
11:26:06.531,89.5003,145.6255
11:26:06.542,87.1253,141.6255
11:26:06.553,81.6878,131.0005
11:26:06.562,73.2503,117.563
11:26:06.573,62.7502,101.3129
11:26:06.585,52.8127,84.4378
11:26:06.614,44.9377,69.0003
11:26:06.618,37.1251,56.1877
11:26:06.620,29.0626,41.4377
11:26:06.625,19.4376,25.1876
11:26:06.650,6.9375,5.6875
11:26:06.653,-6.5,-17.7501
11:26:06.656,-23.8126,-47.7502
11:26:06.662,-51.0002,-91.8754
11:26:06.700,-77.2503,-140.3755
11:26:06.701,-83.8753,-154.8131
11:26:06.703,-86.5003,-162.3131
11:26:06.733,-87.5628,-166.0631
11:26:06.736,-88.3128,-167.1881
11:26:06.736,-87.8128,-167.0631
11:26:06.740,-85.2503,-165.3131
11:26:06.742,-81.0628,-159.3131
11:26:06.762,-77.1878,-153.5006
11:26:06.764,-74.3128,-149.1881
11:26:06.773,-70.2503,-141.938
11:26:06.783,-65.9378,-134.563
11:26:06.792,-61.5627,-125.7505
11:26:06.803,-52.1252,-113.2504
11:26:06.812,-36.2501,-88.9378
11:26:06.825,-20.2501,-60.9377
11:26:06.832,-9.3125,-41.1877
11:26:06.843,-1.8125,-28.8126
11:26:06.853,0.25,-24.2501
11:26:06.863,-1.125,-27.0626
11:26:06.873,-7.25,-35.6876
11:26:06.884,-18.2501,-53.3752
11:26:06.892,-32.2501,-76.0628
11:26:06.903,-47.3127,-103.5629
11:26:06.913,-52.6877,-111.7504
11:26:06.923,-53.0002,-112.2504
11:26:06.933,-53.5627,-108.5629
11:26:06.943,-51.3127,-101.4379
11:26:06.953,-47.6252,-90.8754
11:26:06.963,-44.4377,-80.5628
11:26:06.973,-41.3127,-71.5628
11:26:06.983,-37.2501,-64.5627
11:26:06.992,-28.3126,-49.2502
11:26:07.004,-11.4375,-22.9376
11:26:07.013,6.4375,6.4375
11:26:07.033,19.9376,28.9376
11:26:07.040,33.3751,50.8127
11:26:07.047,45.6877,70.1878
11:26:07.054,57.3127,88.1878
11:26:07.070,67.0628,103.4379
11:26:07.101,76.8753,119.563
11:26:07.103,85.3128,132.438
11:26:07.105,93.0004,145.563
11:26:07.110,98.6254,154.7506
11:26:07.113,102.3129,160.3131
11:26:07.123,105.1254,164.9381
11:26:07.134,104.6879,167.5631
11:26:07.143,104.1254,166.7506
11:26:07.156,103.1254,167.0006
11:26:07.164,102.1254,165.3756
11:26:07.171,101.0629,166.8131
11:26:07.188,99.7504,166.0006
11:26:07.204,99.2504,166.4381
11:26:07.207,98.8754,165.6256
11:26:07.213,98.0629,164.1256
11:26:07.223,97.1879,162.7506
11:26:07.233,96.0629,161.2506
11:26:07.243,95.1254,157.9381
11:26:07.253,93.5004,155.5006
11:26:07.261,90.7504,151.1881
11:26:07.277,89.1878,148.1256
11:26:07.283,87.2503,144.0005
11:26:07.292,85.6878,140.563
11:26:07.303,85.3753,137.813
11:26:07.332,83.3753,135.3755
11:26:07.334,81.5003,132.688
11:26:07.337,80.1878,129.813
11:26:07.343,79.1253,126.188
11:26:07.375,78.3753,124.438
11:26:07.378,76.7503,121.313
11:26:07.381,75.5628,118.688
11:26:07.390,74.3753,115.9379
11:26:07.400,73.0003,113.0629
11:26:07.403,72.4378,111.1254
11:26:07.431,71.0628,109.5004
11:26:07.434,69.9378,107.7504
11:26:07.437,68.5003,104.6879
11:26:07.443,68.0628,102.3129
11:26:07.454,67.3753,100.6879
11:26:07.481,65.1252,97.7504
11:26:07.484,62.6252,93.2504
11:26:07.487,60.5627,89.6253
11:26:07.493,57.7502,83.8128
11:26:07.503,54.8127,77.0628
11:26:07.513,50.8127,70.1253
11:26:07.523,45.2502,61.1877
11:26:07.533,40.2502,52.9377
11:26:07.543,35.2501,43.3127
11:26:07.553,27.2501,31.3126
11:26:07.564,19.6251,16.6251
11:26:07.575,10.8125,-0.0625
11:26:07.583,0.25,-15.8126
11:26:07.593,-10.125,-36.1876
11:26:07.603,-19.4376,-54.3127
11:26:07.613,-29.2501,-71.0003
11:26:07.623,-37.6876,-87.3128
11:26:07.633,-49.4377,-106.3129
11:26:07.643,-65.6253,-132.188
11:26:07.653,-86.3128,-168.1881
11:26:07.663,-96.2504,-183.6257
11:26:07.673,-93.2504,-174.8132
11:26:07.684,-89.0628,-162.6881
11:26:07.695,-83.5628,-150.3756
11:26:07.703,-78.4378,-138.938
11:26:07.714,-74.3128,-129.6255
11:26:07.723,-68.6878,-119.1255
11:26:07.733,-62.0002,-108.3129
11:26:07.743,-50.8752,-91.8754
11:26:07.753,-33.3126,-65.1878
11:26:07.763,-14.6876,-32.8751
11:26:07.773,1.75,-8.375
11:26:07.783,12.75,11.75
11:26:07.793,18.1876,18.5626
11:26:07.803,18.6251,19.2501
11:26:07.816,18.5626,16.5001
11:26:07.823,16.0626,13.5626
11:26:07.833,14.3126,7.125
11:26:07.843,12.4375,1.375
11:26:07.853,8.3125,-4.1875
11:26:07.863,7.25,-7.875
11:26:07.874,5.9375,-8.9375
11:26:07.883,6.4375,-7.5
11:26:07.894,7.1875,-4.625
11:26:07.903,8.875,-1.1875
11:26:07.913,10.5625,3.9375
11:26:07.923,12.9375,8.3125
11:26:07.933,17.0626,15.9376
11:26:07.943,26.8126,31.7501
11:26:07.953,40.7502,56.5002
11:26:07.963,52.1252,75.8753
11:26:07.973,63.0627,94.0629
11:26:07.983,71.7503,110.3754
11:26:07.994,73.3128,114.1879
11:26:08.003,73.6253,115.5629
11:26:08.013,73.8128,115.6254
11:26:08.023,72.7503,115.1879
11:26:08.033,72.2503,114.5629
11:26:08.043,72.0628,113.8754
11:26:08.053,71.7503,112.0629
11:26:08.087,70.6878,110.5004
11:26:08.090,69.4378,108.0004
11:26:08.092,68.0003,105.1254
11:26:08.094,67.0003,103.6254
11:26:08.124,67.0003,101.5629
11:26:08.126,65.4378,99.6254
11:26:08.128,64.9377,97.6254
11:26:08.133,63.8752,94.6879
11:26:08.149,62.7502,93.2504
11:26:08.154,62.0002,91.5629
11:26:08.191,60.5002,87.5628
11:26:08.193,58.9377,84.4378
11:26:08.198,57.5627,82.4378
11:26:08.200,55.3127,79.6878
11:26:08.229,54.8127,78.5003
11:26:08.231,54.3752,77.3128
11:26:08.235,53.0627,76.9378
11:26:08.239,52.0002,75.1253
11:26:08.248,51.0627,72.1253
11:26:08.259,50.5627,71.5003
11:26:08.270,49.5627,69.9378
11:26:08.279,47.7502,67.7503
11:26:08.288,45.6877,64.6252
11:26:08.300,43.8752,61.8127
11:26:08.308,42.1877,56.9377
11:26:08.318,41.1252,54.4377
11:26:08.332,40.9377,54.3752
11:26:08.340,40.2502,53.0002
11:26:08.350,40.1877,50.6252
11:26:08.378,39.0001,48.8127
11:26:08.381,38.3126,45.2502
11:26:08.396,36.0001,41.9377
11:26:08.398,33.8126,38.0626
11:26:08.414,31.3126,33.3751
11:26:08.415,27.6876,27.5001
11:26:08.419,25.0001,23.1251
11:26:08.428,21.6876,18.0626
11:26:08.439,18.3126,17.1876
11:26:08.448,16.8126,17.5001
11:26:08.458,13.6251,17.5001
11:26:08.474,9.75,14.5626
11:26:08.478,4.6875,9.5625
11:26:08.493,-2.4375,0.3125
11:26:08.502,-10.75,-12.4375
11:26:08.509,-18.2501,-28.6251
11:26:08.519,-28.1251,-44.6877
11:26:08.528,-37.8751,-63.6252
11:26:08.545,-46.0627,-81.1878
11:26:08.550,-55.3127,-99.2504
11:26:08.559,-68.8128,-124.2505
11:26:08.568,-82.0628,-149.7506
11:26:08.579,-97.1254,-179.3132
11:26:08.589,-96.4379,-182.3132
11:26:08.600,-94.8754,-179.2507
11:26:08.610,-89.6878,-174.2507
11:26:08.618,-84.0003,-165.8756
11:26:08.629,-75.8753,-153.9381
11:26:08.638,-66.6878,-138.813
11:26:08.648,-52.5627,-115.0629
11:26:08.659,-32.1251,-81.6253
11:26:08.668,-7.375,-37.9376
11:26:08.678,14.1876,2.9375
11:26:08.689,26.1876,26.4376
11:26:08.698,33.6251,41.6877
11:26:08.730,36.2501,47.1877
11:26:08.733,34.7501,46.8127
11:26:08.735,33.6876,44.5627
11:26:08.738,33.0001,44.6252
11:26:08.768,34.1876,45.8752
11:26:08.770,34.2501,45.3127
11:26:08.773,35.9376,46.0627
11:26:08.799,35.4376,46.7502
11:26:08.801,36.3126,48.5627
11:26:08.803,38.0626,50.9377
11:26:08.809,39.7502,52.8752
11:26:08.840,40.8752,55.2502
11:26:08.843,42.8752,57.3127
11:26:08.845,43.4377,59.0627
11:26:08.848,44.1877,61.3752
11:26:08.888,44.8127,62.0002
11:26:08.891,46.0002,62.6877
11:26:08.893,46.1252,63.5002
11:26:08.896,47.8127,65.6878
11:26:08.902,50.3127,69.0003
11:26:08.909,52.4377,72.0003
11:26:08.918,52.1877,73.0003
11:26:08.932,51.5002,72.9378
11:26:08.939,51.1877,72.5628
11:26:08.949,51.0627,71.2503
11:26:08.958,50.1252,71.3753
11:26:08.970,49.5627,69.6253
11:26:08.978,49.1877,68.5628
11:26:08.988,47.9377,67.5003
11:26:08.999,46.8752,65.0627
11:26:09.009,45.6877,64.1252
11:26:09.020,45.1877,62.9377
11:26:09.029,43.9377,59.8127
11:26:09.038,43.0627,57.1252
11:26:09.048,42.0002,55.4377
11:26:09.058,41.5627,52.8752
11:26:09.069,41.1252,53.5002
11:26:09.081,40.7502,52.6252
11:26:09.091,40.0002,51.0627
11:26:09.099,39.5627,48.6877
11:26:09.108,38.5001,48.1877
11:26:09.118,37.7501,46.7502
11:26:09.128,36.3751,43.1877
11:26:09.143,35.8751,41.1877
11:26:09.148,35.1251,41.1252
11:26:09.158,34.0001,39.6252
11:26:09.168,33.0626,37.1251
11:26:09.178,30.0001,33.6251
11:26:09.189,27.8126,33.3126
11:26:09.198,25.3751,34.5001
11:26:09.208,22.6876,35.2501
11:26:09.218,21.1251,36.3751
11:26:09.229,17.6876,34.2501
11:26:09.240,15.0626,32.3751
11:26:09.248,12.4063,29.7501
11:26:09.258,10.5625,26.6876
11:26:09.268,9.7813,22.6251
11:26:09.278,8.5938,19.4376
11:26:09.288,7.8125,16.2501
11:26:09.298,7.3125,15.0001
11:26:09.308,6.8438,10.9375
11:26:09.318,6.5938,8.4375
11:26:09.328,7.2188,6.5
11:26:09.338,7.2188,4.75
11:26:09.348,8.0313,4.125
11:26:09.358,7.8438,3.625
11:26:09.368,7.8438,2.0625
11:26:09.378,7.1875,0.5625
11:26:09.388,6.25,-0.25
11:26:09.398,6,0.125
11:26:09.408,6.2813,-0.4375
11:26:09.445,6.5938,0.5
11:26:09.448,6.375,1.9375
11:26:09.451,6.4063,3.5625
11:26:09.453,7.2188,7
11:26:09.461,8.4063,8.5
11:26:09.490,9.5625,9.8125
11:26:09.493,9.0625,11.5625
11:26:09.495,9.8125,13.5626
11:26:09.499,10.5,14.0626
11:26:09.526,10.7188,13.6876
11:26:09.528,10.7188,12.5625
11:26:09.530,10.0938,11.125
11:26:09.559,9.2813,11
11:26:09.562,10.0625,9.4375
11:26:09.565,9.5938,8.3125
11:26:09.568,9.75,8.3125
11:26:09.597,9.0625,7.8125
11:26:09.598,9.7813,6.4375
11:26:09.610,10.7188,5.75
11:26:09.614,10.5,6.0625
11:26:09.623,10.4063,5.1875
11:26:09.633,10.6563,5.6875
11:26:09.658,10.75,6.75
11:26:09.660,11.0313,6.3125
11:26:09.663,12.1563,5.3125
11:26:09.680,11.3125,4.75
11:26:09.683,11.2188,4.25
11:26:09.698,11.1875,4.625
11:26:09.708,11.4688,5
11:26:09.713,11.4063,5.9375
11:26:09.723,12.0313,5.125
11:26:09.733,11.7813,4.625
11:26:09.743,11.1563,5
11:26:09.753,10.625,2.5625
11:26:09.764,10.125,0.5
11:26:09.784,8.75,-2.0625
11:26:09.786,9.1563,-3.125
11:26:09.795,8.7188,-2.625
11:26:09.803,8.5625,-3.8125
11:26:09.818,8.125,-5.0625
11:26:09.827,8.125,-6.0625
11:26:09.833,7.875,-8.0625
11:26:09.843,7.2813,-8.5
11:26:09.853,8,-8.5625
11:26:09.863,8.2813,-9.25
11:26:09.873,8.0625,-8.0625
11:26:09.883,8.375,-9.25
11:26:09.893,7.5,-10
11:26:09.903,7.4688,-9.4375
11:26:09.913,7.7188,-10.1875
11:26:09.923,7.6875,-7.375
11:26:09.933,8.9375,-2
11:26:09.943,9.9063,6.6875
11:26:09.953,11.5313,14.4376
11:26:09.963,13.3751,20.5001
11:26:09.973,13.3438,24.2501
11:26:09.984,14.0313,27.6251
11:26:09.993,13.6251,30.0626
11:26:10.003,14.3126,28.5626
11:26:10.013,13.2501,26.8126
11:26:10.023,12.2813,24.9376
11:26:10.033,11.8438,21.3126
11:26:10.043,10.7188,16.7501
11:26:10.053,10.2188,14.0001
11:26:10.064,9.3438,11.375
11:26:10.073,8.6875,7.5625
11:26:10.083,8.125,2.375
11:26:10.093,7.5938,0.0625
11:26:10.103,7.0938,-3.1875
11:26:10.113,6.6875,-5.9375
11:26:10.123,5.75,-8.1875
11:26:10.133,5.2188,-8.3125
11:26:10.143,4.4375,-7.625
11:26:10.153,4.8438,-8
11:26:10.163,3.1875,-8.5625
11:26:10.173,2.7813,-7.4375
11:26:10.183,1.6875,-6.5625
11:26:10.193,1.1563,-5.1875
11:26:10.223,2.0938,-5.125
11:26:10.227,2.1875,-5.125
11:26:10.229,2,-3.5
11:26:10.234,2.25,-3.0625
11:26:10.261,2.9063,-2.375
11:26:10.263,3.9375,-3.25
11:26:10.267,4.125,-4.4375
11:26:10.293,4.0938,-4.1875
11:26:10.295,3.9688,-6.375
11:26:10.298,2.5625,-7.875
11:26:10.303,1.3438,-8.875
11:26:10.334,1.125,-11.5
11:26:10.337,1.125,-13.0625
11:26:10.339,1.7188,-12.5
11:26:10.346,2.0313,-12.625
11:26:10.374,2.375,-12.75
11:26:10.377,2.8125,-12
11:26:10.379,3.125,-13
11:26:10.384,4.2188,-13.4376
11:26:10.395,3.8125,-14.0626
11:26:10.403,3.9063,-14.0001
11:26:10.413,5.1875,-14.9376
11:26:10.423,4.4375,-15.7501
11:26:10.433,5.9375,-14.3126
11:26:10.443,6.0938,-14.0626
11:26:10.453,6.5625,-13.8126
11:26:10.463,7.5,-14.4376
11:26:10.473,6.7188,-15.4376
11:26:10.483,6.6563,-14.5626
11:26:10.493,6.8125,-15.3126
11:26:10.506,7.3438,-15.7501
11:26:10.513,6.75,-16.8751
11:26:10.523,6.0625,-16.3126
11:26:10.533,6.3125,-17.4376
11:26:10.543,6.4063,-17.2501
11:26:10.553,6.0938,-17.0001
11:26:10.563,6.0938,-17.6251
11:26:10.574,6.3125,-18.5626
11:26:10.583,6.4688,-18.8126
11:26:10.593,6.3438,-18.3126
11:26:10.603,6.8125,-18.4376
11:26:10.613,7.4375,-19.7501
11:26:10.623,6.5313,-20.7501
11:26:10.633,6.6563,-19.3126
11:26:10.643,7.2813,-20.3751
11:26:10.653,6.875,-21.5626
11:26:10.663,7,-22.7501
11:26:10.673,6.1875,-21.1876
11:26:10.683,6.9063,-17.1251
11:26:10.693,7.5,-11.4375
11:26:10.703,9,-2.5625
11:26:10.714,10.3438,6.1875
11:26:10.723,12.0938,12.125
11:26:10.733,13.1876,16.8126
11:26:10.743,13.5001,19.8126
11:26:10.753,14.0626,21.8751
11:26:10.763,14.0626,21.5626
11:26:10.773,14.4688,19.3126
11:26:10.783,14.0938,18.0626
11:26:10.793,13.4376,16.6876
11:26:10.803,13.4063,14.6876
11:26:10.814,13.8438,11.375
11:26:10.823,12.4375,8.5625
11:26:10.833,11.5,5
11:26:10.844,10.9063,1.5
11:26:10.853,9.7813,-1.25
11:26:10.863,9.3438,-3.9375
11:26:10.873,9.1563,-6.6875
11:26:10.883,8.7188,-7.75
11:26:10.893,8.25,-8.25
11:26:10.938,9.4375,-9.125
11:26:10.942,8.625,-9.6875
11:26:10.943,8.125,-7.3125
11:26:10.971,8.6563,-6.875
11:26:10.971,8.4688,-5.375
11:26:10.976,8.9063,-3.9375
11:26:10.979,9.2188,-3.8125
11:26:11.080,9.4688,-2.625
11:26:11.083,9.2813,-0.8125
11:26:11.085,9.7813,-0.125
11:26:11.091,9.9063,0
11:26:11.101,9.9688,-0.125
11:26:11.101,10.2813,-0.125
11:26:11.101,10.125,-0.6875
11:26:11.113,10.0625,-0.3125
11:26:11.120,9.9063,0.1875
11:26:11.128,10.0625,-1.8125
11:26:11.146,9.125,-1.8125
11:26:11.166,9.0313,-1.9375
11:26:11.169,9.0938,-2.25
11:26:11.169,8.8125,-3.625
11:26:11.178,8.6563,-4.9375
11:26:11.188,8.2188,-5.0625
11:26:11.199,7.9375,-5.6875
11:26:11.208,7.75,-7
11:26:11.218,7.4688,-7.9375
11:26:11.228,6.8125,-9.4375
11:26:11.238,6.9063,-10.9375
11:26:11.248,7.5625,-11
11:26:11.258,6.6875,-16.5001
11:26:11.269,6.4688,-16.3126
11:26:11.278,5.9688,-18.1876
11:26:11.288,6.4375,-18.6876
11:26:11.298,6.125,-19.5626
11:26:11.308,5.75,-19.5626
11:26:11.318,5.5,-20.2501
11:26:11.328,5.6563,-21.9376
11:26:11.338,4.9375,-21.8126
11:26:11.348,5.1563,-20.5626
11:26:11.358,5.625,-21.6876
11:26:11.368,5.7188,-22.1251
11:26:11.378,5.3438,-20.8751
11:26:11.388,6.125,-17.1251
11:26:11.398,7.875,-10.625
11:26:11.408,8.9063,-2.75
11:26:11.418,11.0938,7.8125
11:26:11.428,12.5313,14.1251
11:26:11.438,13.3126,19.4376
11:26:11.448,13.8126,22.1251
11:26:11.458,14.0626,25.0001
11:26:11.468,14.9376,24.8126
11:26:11.478,13.8751,23.4376
11:26:11.488,14.3751,24.0001
11:26:11.498,14.2501,21.9376
11:26:11.508,14.5001,19.3751
11:26:11.524,13.7501,16.0001
11:26:11.529,12.5,12.9375
11:26:11.538,11.9063,10.3125
11:26:11.548,11.5625,7
11:26:11.558,10.3125,3.375
11:26:11.569,8.875,-1.1875
11:26:11.578,8.1563,-2
11:26:11.589,8.5,-4
11:26:11.598,7.625,-4.6875
11:26:11.609,6.7188,-5.625
11:26:11.618,7.625,-5.3125
11:26:11.628,7.125,-2.9375
11:26:11.638,7.5625,-1.0625
11:26:11.648,9.0625,0.5625
11:26:11.659,9,2
11:26:11.668,8.625,2.6875
11:26:11.699,9.3438,4.0625
11:26:11.702,9.4063,5.5625
11:26:11.706,9.6563,6.5
11:26:11.708,10.4063,5.9375
11:26:11.738,10.0938,5.75
11:26:11.742,9.7813,6.5
11:26:11.743,9.6875,5.6875
11:26:11.749,9.5,4.375
11:26:11.773,9.7188,3.875
11:26:11.775,9.5938,3.625
11:26:11.778,9.4063,2.5625
11:26:11.808,9.25,1.5
11:26:11.815,9.25,0.625
11:26:11.816,8.8438,0.625
11:26:11.820,8.9063,0
11:26:11.845,8.375,-1.4375
11:26:11.848,8.5938,-2.5625
11:26:11.850,8.5625,-3.25
11:26:11.860,8.25,-2.75
11:26:11.869,8.6875,-3.4375
11:26:11.878,8.7813,-4.875
11:26:11.891,7.6563,-5.875
11:26:11.904,8.1875,-5.5
11:26:11.909,8.6875,-5.8125
11:26:11.918,7.6563,-7.4375
11:26:11.932,7.0313,-8.75
11:26:11.938,6.7813,-8.3125
11:26:11.950,6.9688,-8.6875
11:26:11.958,6.875,-9.5
11:26:11.969,6.6563,-10.625
11:26:11.978,6.4063,-11.3125
11:26:11.988,6.0625,-10.3125
11:26:11.998,6.0313,-12.25
11:26:12.009,6.375,-13.1876
11:26:12.018,6.5313,-12.375
11:26:12.028,5.9375,-13.3126
11:26:12.039,6.0313,-12.9375
11:26:12.048,6.0313,-9.5625
11:26:12.059,6.625,-5
11:26:12.069,8.8438,2.5
11:26:12.078,10.0625,12.8125
11:26:12.089,11.4688,20.6251
11:26:12.098,13.3438,27.4376
11:26:12.108,13.6876,30.8126
11:26:12.118,14.0626,33.1876
11:26:12.128,14.0001,35.1876
11:26:12.138,15.1876,34.8126
11:26:12.150,15.0938,32.8126
11:26:12.158,14.5001,31.8751
11:26:12.170,14.5313,28.4376
11:26:12.179,12.9688,24.8126
11:26:12.188,11.5938,22.1876
11:26:12.218,10.625,16.0626
11:26:12.221,8.7188,11.75
11:26:12.223,8.4063,8.625
11:26:12.231,7.875,5.3125
11:26:12.238,6.7813,2.6875
11:26:12.249,6.9375,2.25
11:26:12.258,6.6875,1.375
11:26:12.268,7.5938,1.3125
11:26:12.279,7.9688,2.5625
11:26:12.288,8.375,4.0625
11:26:12.299,8.5,7.5
11:26:12.308,9.9063,9.1875
11:26:12.318,10.375,10.8125
11:26:12.328,9.625,10.8125
11:26:12.347,10,13.6876
11:26:12.357,10.4375,14.8751
11:26:12.369,10.4688,13.9376
11:26:12.371,10.2813,13.8126
11:26:12.382,10.1875,12.625
11:26:12.388,9.6563,14.9376
11:26:12.448,10.2813,13.0625
11:26:12.452,9.9375,11.9375
11:26:12.492,10.2188,11.0625
11:26:12.519,10.125,10.75
11:26:12.519,9.8438,10
11:26:12.519,9.8438,9.25
11:26:12.520,9.0313,7.75
11:26:12.523,8.4375,6.875
11:26:12.531,8.2813,4.4375
11:26:12.534,7.625,3.0625
11:26:12.534,6.75,3
11:26:12.545,6.2813,1.625
11:26:12.548,6.3125,0.125
11:26:12.564,6.75,-0.625
11:26:12.568,6.5313,-1.5625
11:26:12.574,6.625,-1.625
11:26:12.583,6.375,-2.5
11:26:12.593,7.375,-2.1875
11:26:12.603,7.125,-2.1875
11:26:12.614,8.0625,-1.875
11:26:12.623,7.5313,-3.375
11:26:12.634,7.2813,-4.125
11:26:12.644,7.1563,-3.3125
11:26:12.658,7.4063,-3.8125
11:26:12.663,7.5,-4.625
11:26:12.673,7.3125,-4.75
11:26:12.685,6.9375,-5.9375
11:26:12.693,6.9375,-8.5
11:26:12.704,6.5625,-7.625
11:26:12.713,7,-8.25
11:26:12.723,6.8125,-7.25
11:26:12.733,7.5,-0.625
11:26:12.749,8.6563,6.5
11:26:12.753,10.9688,15.9376
11:26:12.763,12.5625,25.4376
11:26:12.773,13.7188,32.4376
11:26:12.786,14.4063,37.5001
11:26:12.793,16.1251,40.5627
11:26:12.803,16.1876,41.1252
11:26:12.813,15.9376,40.5627
11:26:12.823,15.6563,40.2502
11:26:12.833,15.6563,37.6876
11:26:12.843,15.3126,35.0001
11:26:12.853,14.1876,31.0001
11:26:12.864,13.4063,28.1876
11:26:12.873,12.4375,24.9376
11:26:12.883,12.1875,20.3126
11:26:12.894,11.25,17.1876
11:26:12.903,11.0313,14.8126
11:26:12.913,10.2813,11.3125
11:26:12.924,9.5,9.1875
11:26:12.934,8.75,9.6875
11:26:12.944,9.375,8.5
11:26:12.953,9.5625,9.125
11:26:12.963,9.1563,9.375
11:26:12.973,8.9688,12.875
11:26:12.985,9.875,15.1876
11:26:12.994,10.9375,17.3126
11:26:13.003,10.9063,18.9376
11:26:13.013,10.2188,18.9376
11:26:13.023,10.2813,20.7501
11:26:13.034,10.875,19.9376
11:26:13.043,10.6563,18.8126
11:26:13.053,10.8438,19.9376
11:26:13.064,10.75,19.3126
11:26:13.073,10.9063,17.8126
11:26:13.083,9.7813,16.2501
11:26:13.093,9.7188,15.6876
11:26:13.103,9.7188,15.2501
11:26:13.114,9.3438,12.75
11:26:13.126,9.125,11.75
11:26:13.133,8.4375,12
11:26:13.171,8.5938,9.5
11:26:13.174,8.5625,7.8125
11:26:13.177,7.4063,5.875
11:26:13.181,6.875,4.5625
11:26:13.184,6.9063,4.5625
11:26:13.206,6.3125,3.125
11:26:13.208,6.5,1.5
11:26:13.244,6.0625,1.125
11:26:13.246,5.9375,0.0625
11:26:13.252,6.7813,-0.9375
11:26:13.277,5.8125,-1.8125
11:26:13.280,5.6875,-2.875
11:26:13.281,5.5938,-1.625
11:26:13.283,5.875,-2.375
11:26:13.290,5.7813,-3.875
11:26:13.302,5.8438,-4.6875
11:26:13.305,5.875,-5.6875
11:26:13.314,5.25,-5.625
11:26:13.325,5.4375,-5.8125
11:26:13.334,5.6875,-6.5625
11:26:13.345,5.5,-7.125
11:26:13.353,5.2188,-8.25
11:26:13.363,4.6875,-8.5
11:26:13.373,4.8438,-8.875
11:26:13.383,4.4688,-10.375
11:26:13.394,3.9688,-12.6875
11:26:13.406,3.8438,-12
11:26:13.414,3.6563,-13.3751
11:26:13.423,3.7188,-14.6251
11:26:13.433,2.8438,-14.3126
11:26:13.444,2.75,-12.5
11:26:13.454,4.75,-8.125
11:26:13.463,6.3438,0.75
11:26:13.474,7.3438,12.75
11:26:13.500,10.4375,21.1876
11:26:13.502,11.1563,29.0001
11:26:13.505,12.1563,35.3126
11:26:13.513,12.6563,36.8126
11:26:13.523,12.7188,38.1876
11:26:13.533,13.6876,38.4376
11:26:13.544,12.4063,37.0626
11:26:13.555,11.8125,36.0626
11:26:13.565,11.4688,31.5626
11:26:13.573,10.9688,28.2501
11:26:13.585,9.9375,25.6251
11:26:13.595,9.625,21.6876
11:26:13.604,9.125,16.5626
11:26:13.615,8,13.4376
11:26:13.627,7.1875,10.875
11:26:13.636,7.5313,7.625
11:26:13.654,6.9688,5.125
11:26:13.658,6.0313,2.6875
11:26:13.671,5.5313,2.8125
11:26:13.679,5.9063,2.625
11:26:13.688,5.9063,3.3125
11:26:13.698,5.6875,4.75
11:26:13.708,5.9688,8.5625
11:26:13.718,7.2813,10.6875
11:26:13.728,6.8125,11.875
11:26:13.739,6.6563,13.8126
11:26:13.749,7,15.3751
11:26:13.762,7.8125,15.2501
11:26:13.779,7.7813,14.9376
11:26:13.796,6.875,14.3126
11:26:13.799,7.125,15.3126
11:26:13.802,7.1563,14.8126
11:26:13.808,7.75,13.3126
11:26:13.818,7.7188,12.5625
11:26:13.829,6.5313,10.9375
11:26:13.839,6.375,11.5
11:26:13.878,7.0625,9.375
11:26:13.881,6.375,7.4375
11:26:13.883,5.9688,7.125
11:26:13.886,6,6.25
11:26:13.890,5.9375,5.4375
11:26:13.917,5.0938,4.25
11:26:13.920,5.3125,3.8125
11:26:13.922,5.3125,2
11:26:13.929,5.0313,0.875
11:26:13.952,5.25,0.3125
11:26:13.955,4.125,-1.1875
11:26:13.983,3.8438,-2.875
11:26:13.985,3.8125,-2.5625
11:26:13.987,3.5938,-3.25
11:26:13.991,4.3125,-4.3125
11:26:14.019,3.7813,-5.25
11:26:14.022,4.0625,-5.5625
11:26:14.026,3.125,-5.5
11:26:14.031,3.8438,-6.125
11:26:14.039,4.125,-6.6875
11:26:14.048,3.9063,-7.3125
11:26:14.059,3.3438,-8.6875
11:26:14.068,3.25,-7.8125
11:26:14.078,2.75,-8.5625
11:26:14.091,3.4063,-9.875
11:26:14.099,3.4688,-10.1875
11:26:14.110,2.9375,-10.25
11:26:14.118,3.6563,-11
11:26:14.128,2.6875,-12.875
11:26:14.138,3.3125,-12.5
11:26:14.148,3.125,-12.5625
11:26:14.162,2.7813,-14.9376
11:26:14.170,2.4375,-15.0626
11:26:14.181,2.125,-15.4376
11:26:14.188,2.375,-16.7501
11:26:14.198,2.125,-17.0626
11:26:14.209,1.5938,-14.6876
11:26:14.219,3.5313,-9.375
11:26:14.229,4.25,-0.6875
11:26:14.238,5.8438,11.3125
11:26:14.248,8.4375,21.2501
11:26:14.259,10.1563,27.8751
11:26:14.268,10.8125,33.6876
11:26:14.278,12.125,37.0001
11:26:14.291,11.8125,37.3751
11:26:14.298,11.7813,38.8751
11:26:14.309,11.9375,36.1251
11:26:14.319,10.9063,33.7501
11:26:14.330,9.7813,31.1251
11:26:14.338,9.7813,28.1876
11:26:14.348,9,23.6251
11:26:14.358,7.625,19.1876
11:26:14.368,7.5313,16.4376
11:26:14.378,6.7188,11.6875
11:26:14.388,6.1875,9.125
11:26:14.398,5.625,5.8125
11:26:14.408,5.375,3.1875
11:26:14.419,4.4375,1.375
11:26:14.432,4.0313,1.0625
11:26:14.439,3.6563,1
11:26:14.448,4.2813,2.4375
11:26:14.458,4.8125,4.25
11:26:14.468,4.4063,6.8125
11:26:14.478,4.8125,8.8125
11:26:14.488,5.1875,12.3125
11:26:14.498,5.3438,14.3126
11:26:14.508,6.0938,14.0001
11:26:14.527,5.8125,14.3126
11:26:14.529,5.8438,15.4376
11:26:14.558,6.3125,14.9376
11:26:14.561,6.2813,14.2501
11:26:14.563,5.8438,12.1875
11:26:14.571,5.6563,14.1876
11:26:14.598,5.875,12
11:26:14.601,5.6875,10.6875
11:26:14.603,5.0938,9.25
11:26:14.609,4.6563,8.75
11:26:14.637,4.9063,7.625
11:26:14.639,4.5313,5.4375
11:26:14.642,3.5625,3.6875
11:26:14.667,3.5313,3.5625
11:26:14.669,4.1563,2.1875
11:26:14.672,3.125,0.375
11:26:14.680,3.2813,-0.5625
11:26:14.689,3.2188,-1.4375
11:26:14.708,2.7813,-2
11:26:14.712,3.0625,-3.375
11:26:14.721,2.4063,-4.5625
11:26:14.728,2.5625,-4.5
11:26:14.738,2.5313,-5.6875
11:26:14.748,2.1875,-6.375
11:26:14.778,2.125,-7.8125
11:26:14.780,2.125,-7.1875
11:26:14.783,2.4375,-7.9375
11:26:14.789,2.3125,-9.0625
11:26:14.798,1.875,-10.3125
11:26:14.810,1.625,-10.3125
11:26:14.818,1.5625,-9.9375
11:26:14.828,1.9688,-10.75
11:26:14.839,2.4688,-11.5
11:26:14.848,1.5938,-12.1875
11:26:14.858,1.4063,-11.9375
11:26:14.868,1.4375,-12.75
11:26:14.879,1.5938,-13.3126
11:26:14.888,1.3125,-13.2501
11:26:14.898,1.9688,-14.9376
11:26:14.908,1.0938,-15.8126
11:26:14.918,0.9063,-16.0626
11:26:14.928,1.1875,-16.5626
11:26:14.938,0.7188,-17.3126
11:26:14.953,1.3438,-16.9376
11:26:14.968,0.8125,-18.7501
11:26:14.970,0.5938,-18.8751
11:26:14.978,0.5625,-18.6251
11:26:14.988,0.5938,-20.1251
11:26:14.999,0.8438,-21.7501
11:26:15.009,0.125,-21.3126
11:26:15.018,1.1875,-21.5001
11:26:15.029,0.6875,-20.4376
11:26:15.038,0.6563,-14.2501
11:26:15.048,3.25,-5.3125
11:26:15.058,4.7813,7.75
11:26:15.073,7.2813,17.2501
11:26:15.090,8.125,26.6251
11:26:15.094,9.3438,32.2501
11:26:15.099,9.8125,34.0001
11:26:15.108,10.125,36.8751
11:26:15.118,10.375,37.1876
11:26:15.128,9.5938,34.9376
11:26:15.139,9,32.1876
11:26:15.149,8.375,30.7501
11:26:15.158,8.9063,27.3126
11:26:15.169,7.375,22.7501
11:26:15.178,6.75,19.6876
11:26:15.188,6.5625,15.0001
11:26:15.198,5.375,10.5
11:26:15.208,4.9063,7.875
11:26:15.219,4.125,4.4375
11:26:15.228,3.25,1
11:26:15.239,2.9688,-1.0625
11:26:15.248,2,-0.9375
11:26:15.258,2.4063,-1.5
11:26:15.268,1.875,-1.9375
11:26:15.278,1.625,1
11:26:15.288,2.4063,2.5
11:26:15.298,3.2188,5.5
11:26:15.308,3.1875,7.5
11:26:15.319,3.9375,10.9375
11:26:15.348,4.3125,11.625
11:26:15.350,4.25,12.1875
11:26:15.353,4.0625,12.25
11:26:15.360,4.0938,12.5
11:26:15.388,4.4688,11.8125
11:26:15.391,5.25,11.4375
11:26:15.393,4.2188,9.875
11:26:15.399,3.6563,9.5
11:26:15.426,4.0938,8.625
11:26:15.429,3.7813,6.625
11:26:15.431,3.125,5
11:26:15.459,2.75,5.4375
11:26:15.462,3.1875,3.0625
11:26:15.464,2.7188,1.1875
11:26:15.469,1.9688,-0.875
11:26:15.497,1.75,-0.8125
11:26:15.501,2.3125,-2.6875
11:26:15.502,1.5625,-4.25
11:26:15.509,1.4375,-5.6875
11:26:15.519,1.125,-5.5
11:26:15.528,1.0938,-7.1875
11:26:15.540,0.8125,-9.625
11:26:15.553,0.9063,-10.8125
11:26:15.564,-0.1875,-10.3125
11:26:15.576,0.4375,-12.125
11:26:15.583,0.0938,-14.0626
11:26:15.593,0.0625,-13.1251
11:26:15.603,0.6875,-14.5001
11:26:15.613,-0.1875,-15.6876
11:26:15.623,-0.3125,-16.9376
11:26:15.633,-0.5,-18.3126
11:26:15.643,-0.4375,-17.8751
11:26:15.653,-0.5,-19.5001
11:26:15.663,-0.5,-18.5001
11:26:15.673,-0.4688,-18.7501
11:26:15.683,-0.4688,-19.6876
11:26:15.693,-0.4375,-19.5626
11:26:15.703,-0.7813,-20.3126
11:26:15.714,-0.3125,-21.7501
11:26:15.724,-0.8438,-22.3126
11:26:15.734,-0.2813,-22.5626
11:26:15.743,-1.3125,-23.0626
11:26:15.753,-0.8438,-24.3751
11:26:15.763,-0.8438,-25.9376
11:26:15.773,-0.9375,-25.3126
11:26:15.784,-1.0938,-26.3751
11:26:15.793,-1.4063,-27.2501
11:26:15.803,-0.9688,-28.1251
11:26:15.814,-1.4688,-28.9376
11:26:15.824,-1.2813,-29.3751
11:26:15.833,-1.25,-30.5001
11:26:15.843,-1.75,-29.8126
11:26:15.853,-0.75,-31.8126
11:26:15.863,-1.5625,-31.3126
11:26:15.873,-1.7813,-31.4376
11:26:15.884,-1.2188,-27.6876
11:26:15.893,0.1563,-18.7501
11:26:15.903,1.5938,-8.3125
11:26:15.914,3.5938,4.9375
11:26:15.924,6.25,16.2501
11:26:15.933,7.2188,23.6251
11:26:15.943,8.4688,28.6251
11:26:15.953,8.9375,30.5001
11:26:15.963,8.5625,32.0001
11:26:15.973,9.0938,30.4376
11:26:15.984,8.625,30.1876
11:26:15.994,8.6875,26.6251
11:26:16.003,8.0313,24.7501
11:26:16.013,8.125,20.3126
11:26:16.025,6.3125,17.0626
11:26:16.034,6.625,13
11:26:16.058,5.5313,9.8125
11:26:16.060,4.3125,5.375
11:26:16.064,3.9688,1.8125
11:26:16.101,3.2813,-0.625
11:26:16.102,3.6563,-3.9375
11:26:16.105,2.9375,-6.125
11:26:16.107,2,-7.1875
11:26:16.138,1.9063,-6.625
11:26:16.139,2.0313,-6.5625
11:26:16.142,1.8438,-6.0625
11:26:16.179,2.0313,-2.9375
11:26:16.181,2.5,-1.25
11:26:16.183,2.7188,0.3125
11:26:16.190,2.9375,4.0625
11:26:16.191,3.5625,5.875
11:26:16.205,4,5.5
11:26:16.205,4.0938,5.75
11:26:16.235,3.875,6.5
11:26:16.267,3.9375,6.9375
11:26:16.268,3.6563,6.8125
11:26:16.270,3.6875,6.125
11:26:16.277,3.5938,5.1875
11:26:16.277,3.125,3.75
11:26:16.277,2.8438,2.625
11:26:16.283,3.2813,2.3125
11:26:16.298,2.9688,0.9375
11:26:16.304,2.2188,-1.125
11:26:16.314,2.0625,-2.1875
11:26:16.325,1.9688,-2.8125
11:26:16.333,1.9688,-3.875
11:26:16.344,1.875,-4.9375
11:26:16.355,1.4688,-7.5
11:26:16.369,0.5938,-7.8125
11:26:16.384,0.6875,-10.0625
11:26:16.386,0.2188,-10.375
11:26:16.395,0.4688,-10.8125
11:26:16.403,0.5,-12.5
11:26:16.413,0.5,-13.4376
11:26:16.424,-0.3125,-13.5001
11:26:16.434,-0.125,-15.3126
11:26:16.443,0.1875,-16.3751
11:26:16.453,-0.2813,-16.5626
11:26:16.465,-0.1875,-16.8126
11:26:16.474,-0.0313,-17.5001
11:26:16.483,-0.625,-17.8751
11:26:16.494,-0.2813,-18.5626
11:26:16.503,-0.9063,-18.8126
11:26:16.513,0,-18.7501
11:26:16.524,-0.3438,-19.6251
11:26:16.535,-0.6875,-20.3126
11:26:16.543,-0.375,-19.1251
11:26:16.556,0.3125,-20.6251
11:26:16.563,-0.4375,-21.9376
11:26:16.573,-0.2188,-21.5626
11:26:16.583,-0.3438,-22.1876
11:26:16.593,-0.5625,-22.9376
11:26:16.603,-0.2813,-23.8751
11:26:16.614,-0.875,-24.2501
11:26:16.623,-0.4063,-23.8751
11:26:16.634,-0.75,-22.9376
11:26:16.646,-0.2813,-18.1251
11:26:16.653,0.6563,-10.3125
11:26:16.663,1.6875,1.8125
11:26:16.678,5,13.3751
11:26:16.683,5.75,22.5001
11:26:16.693,7.0938,29.3751
11:26:16.704,7.9688,33.5001
11:26:16.713,8.4063,35.6251
11:26:16.723,8.625,35.0626
11:26:16.752,8.5938,34.5626
11:26:16.754,7.75,32.0001
11:26:16.757,7.25,29.6876
11:26:16.763,5.9063,27.7501
11:26:16.797,5.9375,23.1251
11:26:16.799,4.875,19.7501
11:26:16.802,4.5938,15.6876
11:26:16.805,4.3125,12.625
11:26:16.845,2.875,7.9375
11:26:16.847,2.5625,3.625
11:26:16.849,2.4688,2.5625
11:26:16.854,2.4063,-0.625
11:26:16.859,1.875,-2.875
11:26:16.867,0.7813,-4.6875
11:26:16.873,0.8125,-3.125
11:26:16.904,1.375,-2.4375
11:26:16.907,1.0938,-1.3125
11:26:16.909,1.7813,1.125
11:26:16.914,2,4.5
11:26:16.923,2.5625,6.0625
11:26:16.933,2.625,7.625
11:26:16.943,3.5,9.125
11:26:16.954,3.0625,9.4375
11:26:16.963,2.125,11.4375
11:26:16.973,3.125,11.125
11:26:16.984,3.4375,10.125
11:26:16.994,3.1563,9.6875
11:26:17.005,3.2813,8.6875
11:26:17.020,2.5938,8.3125
11:26:17.028,2.125,8
11:26:17.040,2.25,6.4375
11:26:17.049,2.1563,5.6875
11:26:17.059,1.375,4.0625
11:26:17.069,0.8438,1.6875
11:26:17.078,0.6563,0.4375
11:26:17.089,1.2188,-1.25
11:26:17.099,1.0625,-3.3125
11:26:17.109,0.0938,-4.0625
11:26:17.119,-0.4688,-4.875
11:26:17.129,0.1563,-7.125
11:26:17.190,-0.0938,-7.75
11:26:17.192,-0.0938,-9.5625
11:26:17.194,-0.6875,-9.8125
11:26:17.199,-0.3438,-10.4375
11:26:17.199,-0.1563,-12.25
11:26:17.199,-0.1875,-12.1875
11:26:17.206,-0.4375,-12.5
11:26:17.213,-0.8125,-14.4376
11:26:17.223,-1.4688,-15.0626
11:26:17.233,-1.4063,-13.8126
11:26:17.243,-0.0938,-16.0001
11:26:17.254,-1.25,-16.6876
11:26:17.263,-1.0938,-16.1876
11:26:17.274,-1.2813,-17.6251
11:26:17.283,-1.1563,-17.0626
11:26:17.294,-1.2188,-18.0001
11:26:17.303,-0.8438,-18.5626
11:26:17.314,-1.5625,-18.8751
11:26:17.339,-0.9063,-19.8126
11:26:17.342,-0.9688,-20.6876
11:26:17.346,-0.8125,-21.0001
11:26:17.356,-0.9375,-20.7501
11:26:17.363,-1.25,-20.7501
11:26:17.373,-1,-17.8126
11:26:17.387,0.1563,-9.8125
11:26:17.394,2.625,2.625
11:26:17.429,3.2813,14.2501
11:26:17.431,5.3125,24.2501
11:26:17.433,6.2188,31.7501
11:26:17.438,7.2813,37.3126
11:26:17.447,8.0938,38.3126
11:26:17.453,8.3438,39.3752
11:26:17.465,7.0625,37.8751
11:26:17.496,6.2813,37.8126
11:26:17.499,6.2188,33.6251
11:26:17.502,5.4688,30.8751
11:26:17.504,4.4063,27.7501
11:26:17.543,3.8125,24.2501
11:26:17.546,3.7813,18.6876
11:26:17.575,2.9063,16.0626
11:26:17.578,2.4375,12.25
11:26:17.580,1.5,7.9375
11:26:17.582,0.7188,4.25
11:26:17.582,-0.375,3.5
11:26:17.611,-0.125,0.875
11:26:17.613,0,0
11:26:17.615,-0.75,-0.375
11:26:17.620,-0.875,0.875
11:26:17.665,-0.1875,2.3125
11:26:17.667,-0.1563,4.625
11:26:17.682,0.6563,7.5
11:26:17.684,-0.0313,10
11:26:17.687,0.3438,11.5625
11:26:17.688,0.9688,12.125
11:26:17.691,1.1875,13.4376
11:26:17.703,1.875,14.0001
11:26:17.714,1.4688,14.5626
11:26:17.724,1.5,12.6875
11:26:17.734,1.2188,11.6875
11:26:17.744,0.4063,10.5
11:26:17.754,0.8438,9.5625
11:26:17.764,0.8125,7.8125
11:26:17.773,0.0938,6.25
11:26:17.783,-0.6875,6.5
11:26:17.794,0.0313,4.625
11:26:17.804,-0.5938,3.75
11:26:17.813,-0.6563,1.625
11:26:17.828,-0.6563,0.6875
11:26:17.834,-0.9375,-1.6875
11:26:17.845,-0.5625,-2.0625
11:26:17.854,-0.875,-3.3125
11:26:17.863,-1.625,-5.1875
11:26:17.873,-1.0625,-6.8125
11:26:17.883,-1.3438,-7.125
11:26:17.893,-0.9063,-8
11:26:17.904,-1.4688,-9.5
11:26:17.913,-1.9375,-11.375
11:26:17.925,-2.2188,-10.375
11:26:17.934,-1.5938,-11.5
11:26:17.943,-1.75,-12.0625
11:26:17.953,-1.7188,-12.375
11:26:17.963,-2.5625,-12.5
11:26:17.975,-2.0625,-14.3126
11:26:17.985,-2.3438,-15.5001
11:26:17.993,-1.9063,-16.0001
11:26:18.004,-2.1563,-16.3751
11:26:18.015,-2.9688,-17.2501
11:26:18.025,-2.375,-17.8751
11:26:18.035,-2.7188,-17.5001
11:26:18.043,-1.2813,-18.8126
11:26:18.054,-2.1875,-19.1876
11:26:18.063,-2.8125,-20.1251
11:26:18.073,-2.3125,-21.1876
11:26:18.083,-2.2813,-21.6251
11:26:18.094,-2.4375,-20.7501
11:26:18.103,-2.1875,-18.1876
11:26:18.114,-1.9375,-10.1875
11:26:18.123,0.5,0.375
11:26:18.133,2.5938,13.0625
11:26:18.144,5.0313,23.6251
11:26:18.154,5.7188,30.8126
11:26:18.164,6,36.2501
11:26:18.173,6.625,37.8126
11:26:18.207,7,39.1876
11:26:18.209,6.4688,37.7501
11:26:18.212,6.2188,35.9376
11:26:18.215,5.3438,34.6876
11:26:18.249,4.7813,30.2501
11:26:18.251,4.25,27.5626
11:26:18.253,3.6875,23.6251
11:26:18.255,2.7813,19.6876
11:26:18.293,1.8438,16.0626
11:26:18.296,0.6875,11.5
11:26:18.297,0.7813,8.6875
11:26:18.329,-0.25,5.1875
11:26:18.329,-1,2.1875
11:26:18.332,-2,1.125
11:26:18.338,-2.0313,0.3125
11:26:18.339,-1.7813,0.375
11:26:18.348,-2.125,1
11:26:18.355,-2.0625,3.25
11:26:18.368,-2.1875,6.1875
11:26:18.374,-1.3438,8.3125
11:26:18.383,-0.875,8.875
11:26:18.393,-0.7813,10.9375
11:26:18.403,-0.9375,12.375
11:26:18.414,-0.9375,12.8125
11:26:18.424,-0.7188,11.125
11:26:18.434,0.0313,13.8126
11:26:18.443,1.1875,15.0626
11:26:18.453,2.5625,17.1876
11:26:18.464,4.75,19.8751
11:26:18.474,7.0313,24.5001
11:26:18.484,8.125,26.1251
11:26:18.494,10.125,29.3751
11:26:18.504,12.0938,35.3751
11:26:18.514,14.3126,40.3127
11:26:18.523,14.4063,40.6252
11:26:18.534,11.625,37.1876
11:26:18.544,9.5938,33.1251
11:26:18.553,7,29.3126
11:26:18.563,3.4375,24.1876
11:26:18.575,-2.3438,15.5626
11:26:18.584,-8.9063,6.6875
11:26:18.594,-20.0001,-12.8125
11:26:18.619,-31.6564,-34.8126
11:26:18.622,-41.0002,-52.5627
11:26:18.625,-50.1252,-67.9378
11:26:18.636,-69.6565,-99.6254
11:26:18.644,-107.5629,-164.9381
11:26:18.654,-133.9068,-215.7508
11:26:18.664,-139.8443,-226.2509
11:26:18.673,-137.313,-226.1259
11:26:18.689,-132.9068,-219.8758
11:26:18.698,-127.4067,-210.7508
11:26:18.709,-119.813,-198.3133
11:26:18.718,-102.0629,-172.1882
11:26:18.729,-76.4065,-129.063
11:26:18.746,-65.0002,-107.4379
11:26:18.748,-60.9377,-98.6254
11:26:18.759,-60.8752,-99.5629
11:26:18.769,-47.0939,-77.5628
11:26:18.778,-41.2189,-63.1877
11:26:18.789,-61.844,-93.6879
11:26:18.800,-70.3753,-108.8129
11:26:18.808,-75.9378,-117.8755
11:26:18.819,-79.6253,-119.563
11:26:18.839,-79.5628,-117.2504
11:26:18.845,-75.969,-106.4379
11:26:18.851,-70.0315,-85.7503
11:26:18.863,-64.6565,-71.6253
11:26:18.869,-60.2815,-59.8127
11:26:18.881,-56.6252,-49.8752
11:26:18.889,-53.4377,-43.5002
11:26:18.901,-51.2502,-41.3752
11:26:18.910,-49.3752,-38.5001
11:26:18.918,-48.3127,-36.1251
11:26:18.929,-47.4377,-37.3126
11:26:18.938,-45.7502,-38.9376
11:26:18.978,-46.2814,-42.3752
11:26:18.980,-46.0314,-45.9377
11:26:19.016,-45.8127,-49.9377
11:26:19.018,-47.1877,-54.5002
11:26:19.020,-48.3752,-59.5627
11:26:19.030,-49.7502,-66.2503
11:26:19.030,-51.7814,-72.1878
11:26:19.030,-53.9065,-78.3128
11:26:19.035,-46.1252,-66.3128
11:26:19.061,-38.9689,-55.0002
11:26:19.063,-34.8126,-47.3752
11:26:19.066,-32.0314,-40.3127
11:26:19.097,-27.5314,-33.3751
11:26:19.099,-24.0938,-23.9376
11:26:19.102,-21.4376,-19.4376
11:26:19.104,-19.0001,-15.0001
11:26:19.134,-15.2813,-8.0625
11:26:19.137,-12.1875,-1.9375
11:26:19.139,-10.8438,0.5625
11:26:19.144,-9.7188,3.5625
11:26:19.154,-9.0313,2.375
11:26:19.163,-9.5,1.3125
11:26:19.174,-9.9688,0.4375
11:26:19.186,-9.2813,-0.0625
11:26:19.194,-10.2813,-2.3125
11:26:19.204,-11.5938,-7.1875
11:26:19.215,-12.7813,-9.0625
11:26:19.224,-14.4376,-14.1251
11:26:19.235,-15.9063,-18.9376
11:26:19.243,-18.7501,-22.1876
11:26:19.254,-20.2813,-29.6876
11:26:19.263,-24.4376,-35.1876
11:26:19.274,-27.4689,-42.4377
11:26:19.284,-33.1876,-53.1252
11:26:19.293,-44.5627,-73.2503
11:26:19.304,-51.1564,-87.3753
11:26:19.315,-60.1565,-102.2504
11:26:19.324,-66.4065,-116.1254
11:26:19.334,-70.1253,-123.563
11:26:19.343,-69.1878,-123.688
11:26:19.359,-65.9378,-119.2505
11:26:19.370,-61.6565,-112.0629
11:26:19.378,-56.4377,-102.5004
11:26:19.389,-51.5627,-94.5004
11:26:19.401,-47.5939,-88.8128
11:26:19.410,-44.7502,-83.3753
11:26:19.419,-42.6252,-80.6253
11:26:19.429,-40.7189,-77.6253
11:26:19.441,-40.6252,-77.3753
11:26:19.450,-40.6877,-78.0003
11:26:19.459,-40.5939,-77.0628
11:26:19.468,-40.0314,-77.3753
11:26:19.479,-39.0626,-76.5628
11:26:19.488,-37.5314,-73.9378
11:26:19.499,-35.6876,-71.6253
11:26:19.509,-33.9689,-68.4378
11:26:19.519,-31.3439,-59.0627
11:26:19.528,-26.8439,-44.7502
11:26:19.542,-21.9688,-27.5001
11:26:19.550,-18.0001,-13.9376
11:26:19.559,-14.8126,-1.1875
11:26:19.569,-12.5625,8.4375
11:26:19.578,-11.1563,12.25
11:26:19.589,-11.7813,14.6876
11:26:19.599,-12.0625,12.4375
11:26:19.611,-13.9688,10.75
11:26:19.619,-15.5626,4.125
11:26:19.629,-7.75,15.1251
11:26:19.639,0.6875,26.6876
11:26:19.648,6.5938,33.5626
11:26:19.662,3.0938,26.7501
11:26:19.669,4.0938,24.1251
11:26:19.680,2.9375,22.4376
11:26:19.689,2.3438,17.2501
11:26:19.700,-0.4063,10.3125
11:26:19.719,0.6563,9
11:26:19.722,0.7188,10
11:26:19.749,1.875,10.875
11:26:19.751,2.6563,13.5001
11:26:19.754,2.6875,14.2501
11:26:19.759,3.2188,16.4376
11:26:19.790,2.7813,17.8751
11:26:19.792,3.4688,21.2501
11:26:19.794,4.9063,23.1251
11:26:19.799,5.2813,25.3126
11:26:19.827,6.4688,26.6876
11:26:19.830,6.9063,28.2501
11:26:19.832,6.5313,28.1251
11:26:19.869,6.9375,26.3126
11:26:19.871,6.1563,25.8126
11:26:19.873,5.375,23.4376
11:26:19.898,2.7813,18.8126
11:26:19.900,-0.9375,11.5
11:26:19.900,-5.7813,2.375
11:26:19.903,-12.5,-8.9375
11:26:19.909,-19.5313,-19.7501
11:26:19.919,-23.9688,-30.8751
11:26:19.929,-28.9376,-38.6876
11:26:19.939,-33.2814,-49.0627
11:26:19.948,-36.6251,-57.5002
11:26:19.959,-38.2189,-61.2502
11:26:19.968,-36.9689,-61.3127
11:26:19.981,-35.4376,-58.5002
11:26:19.989,-32.4376,-54.1252
11:26:19.999,-29.1251,-50.8127
11:26:20.010,-28.0939,-48.6252
11:26:20.019,-26.8751,-48.1252
11:26:20.028,-27.8751,-51.0002
11:26:20.040,-29.8126,-53.4377
11:26:20.048,-32.4376,-60.3752
11:26:20.059,-34.8126,-65.6253
11:26:20.070,-36.6251,-70.1253
11:26:20.078,-38.2501,-72.5628
11:26:20.092,-39.6877,-77.4378
11:26:20.100,-40.8127,-80.6253
11:26:20.109,-42.8127,-84.1878
11:26:20.119,-43.8752,-87.6878
11:26:20.141,-44.1252,-89.2503
11:26:20.147,-43.7502,-90.1879
11:26:20.149,-42.4377,-89.6878
11:26:20.167,-40.0627,-87.3753
11:26:20.180,-38.1251,-82.6878
11:26:20.183,-35.2501,-80.7503
11:26:20.189,-33.1251,-75.0003
11:26:20.199,-30.2501,-66.9378
11:26:20.209,-25.9376,-53.8127
11:26:20.219,-21.9376,-37.3126
11:26:20.228,-17.0001,-20.6251
11:26:20.240,-13.1876,-6.1875
11:26:20.249,-10.625,2
11:26:20.260,-8.4375,9.6875
11:26:20.278,-7.4375,14.1876
11:26:20.280,-6.8125,13.3126
11:26:20.298,-6,14.8751
11:26:20.313,-5.4375,12.6875
11:26:20.329,-5.9375,12.5625
11:26:20.332,-4.8125,9.8125
11:26:20.333,-5.4375,7.5625
11:26:20.338,-5.625,4.6875
11:26:20.349,-6.625,0.25
11:26:20.359,-2.375,2.5
11:26:20.368,3.5625,12.5625
11:26:20.398,10.5,22.0001
11:26:20.400,14.9376,28.5626
11:26:20.402,17.9376,34.5626
11:26:20.409,20.8751,39.5002
11:26:20.450,23.6876,45.9377
11:26:20.451,30.3126,58.0002
11:26:20.453,36.3751,69.8753
11:26:20.457,39.3752,78.8128
11:26:20.461,41.3127,83.6878
11:26:20.469,41.2502,83.7503
11:26:20.507,39.5002,81.1253
11:26:20.508,40.1877,80.3753
11:26:20.511,38.8751,79.5628
11:26:20.513,39.2502,79.5003
11:26:20.519,38.8751,79.1253
11:26:20.553,38.6251,78.2503
11:26:20.559,37.4376,75.2503
11:26:20.559,35.6251,70.5628
11:26:20.569,33.5001,67.1253
11:26:20.569,31.6251,62.3752
11:26:20.579,28.7501,57.0627
11:26:20.590,25.0001,50.3752
11:26:20.600,20.1251,41.5627
11:26:20.608,14.4376,32.8126
11:26:20.619,5.875,17.3126
11:26:20.630,-2,4.125
11:26:20.640,-9.1875,-9.375
11:26:20.650,-16.8751,-21.9376
11:26:20.659,-23.7501,-35.2501
11:26:20.671,-29.5001,-46.9377
11:26:20.681,-33.5001,-56.0627
11:26:20.689,-35.0626,-61.3752
11:26:20.699,-34.8751,-60.9377
11:26:20.709,-32.3126,-58.8752
11:26:20.718,-28.6876,-52.8752
11:26:20.729,-24.1876,-45.6877
11:26:20.739,-21.1876,-40.6877
11:26:20.750,-18.8751,-37.2501
11:26:20.759,-17.7501,-34.8126
11:26:20.769,-17.5626,-33.2501
11:26:20.780,-17.8751,-35.5001
11:26:20.790,-18.9376,-36.3126
11:26:20.799,-19.5626,-39.8752
11:26:20.810,-20.8751,-40.3752
11:26:20.820,-20.1876,-42.8127
11:26:20.829,-20.3751,-43.6252
11:26:20.839,-20.4376,-43.8127
11:26:20.850,-20.1876,-45.0002
11:26:20.859,-20.1251,-45.0002
11:26:20.869,-19.1876,-43.5002
11:26:20.879,-16.8126,-39.5627
11:26:20.889,-14.5001,-32.0626
11:26:20.900,-10.9375,-19.8126
11:26:20.908,-8.6875,-7
11:26:20.921,-4.375,7.6875
11:26:20.930,-1.375,17.0001
11:26:20.939,1.375,25.7501
11:26:20.949,1.75,31.4376
11:26:20.959,2.4375,32.1876
11:26:20.969,2.625,33.0001
11:26:20.979,1.4375,30.8126
11:26:20.988,0.625,27.0626
11:26:20.999,-0.0625,23.4376
11:26:21.009,-1.625,17.8751
11:26:21.019,-1.3125,16.3751
11:26:21.029,3.5,20.8751
11:26:21.039,10.3125,29.5001
11:26:21.049,13.125,34.6251
11:26:21.058,17.1876,38.3126
11:26:21.070,17.4376,38.9376
11:26:21.079,15.9376,36.3751
11:26:21.089,16.0001,36.3751
11:26:21.099,14.8751,36.0626
11:26:21.109,15.0001,36.2501
11:26:21.119,15.2501,38.0001
11:26:21.129,15.3751,40.5002
11:26:21.153,15.0626,42.0627
11:26:21.155,14.8126,41.6252
11:26:21.159,15.5626,43.7502
11:26:21.184,15.5626,44.1877
11:26:21.188,14.6876,42.6252
11:26:21.215,13.5001,40.1252
11:26:21.219,11.625,37.6876
11:26:21.219,10.625,36.1251
11:26:21.254,9.8125,33.1876
11:26:21.255,8.625,29.2501
11:26:21.259,6.4375,25.3126
11:26:21.265,4.375,22.2501
11:26:21.265,2.125,16.9376
11:26:21.269,-0.75,11.3125
11:26:21.308,-3,7.375
11:26:21.309,-5.625,4
11:26:21.314,-8.4375,-2
11:26:21.314,-12.625,-9.875
11:26:21.322,-17.0626,-17.0001
11:26:21.330,-20.0001,-22.6876
11:26:21.339,-22.8751,-29.6251
11:26:21.351,-27.2501,-36.5626
11:26:21.361,-28.9376,-42.5002
11:26:21.369,-29.5626,-43.4377
11:26:21.379,-28.7501,-41.7502
11:26:21.390,-24.9376,-38.2501
11:26:21.399,-22.3126,-33.8751
11:26:21.409,-18.6876,-26.6876
11:26:21.424,-16.4376,-22.3126
11:26:21.429,-13.3751,-19.0626
11:26:21.439,-12.3125,-17.3751
11:26:21.449,-11.9375,-15.8751
11:26:21.466,-13,-18.8126
11:26:21.473,-14.3126,-20.8126
11:26:21.479,-16.2501,-24.3751
11:26:21.496,-17.6251,-25.8126
11:26:21.500,-18.5001,-29.4376
11:26:21.515,-19.1876,-30.8751
11:26:21.521,-19.5626,-33.1876
11:26:21.531,-19.5626,-33.9376
11:26:21.541,-19.2501,-33.8126
11:26:21.551,-19.7501,-34.1876
11:26:21.561,-19.5626,-30.3751
11:26:21.571,-18.0001,-24.0001
11:26:21.580,-15.1876,-11.9375
11:26:21.596,-12.3125,0.125
11:26:21.599,-9.4375,12.0625
11:26:21.614,-7.5,20.6251
11:26:21.630,-5.4375,27.4376
11:26:21.632,-3.75,29.8126
11:26:21.646,-3.0625,33.3751
11:26:21.649,-3.125,31.9376
11:26:21.661,-3.375,30.5001
11:26:21.670,-4.125,26.3751
11:26:21.679,-5,22.8126
11:26:21.689,-5.1875,18.5626
11:26:21.699,-5.875,15.3751
11:26:21.709,-7.625,9.375
11:26:21.725,-8.5625,5.375
11:26:21.734,-10,2.0625
11:26:21.744,-9.875,-1.5
11:26:21.754,-4.25,7.125
11:26:21.765,1.1875,15.5001
11:26:21.774,6.125,27.1251
11:26:21.785,10.375,35.7501
11:26:21.799,14.5626,43.3752
11:26:21.805,17.1251,51.0002
11:26:21.814,20.5001,58.0002
11:26:21.824,25.8126,68.1878
11:26:21.834,29.0626,74.3128
11:26:21.844,31.2501,78.8753
11:26:21.871,32.7501,80.9378
11:26:21.874,31.7501,79.6253
11:26:21.876,30.6876,77.1878
11:26:21.902,29.5626,75.1253
11:26:21.904,29.8751,74.7503
11:26:21.907,29.7501,74.3753
11:26:21.937,28.0001,70.5003
11:26:21.942,27.5626,69.1878
11:26:21.942,26.4376,65.8128
11:26:21.946,24.3126,63.0002
11:26:21.975,22.1251,58.5002
11:26:21.977,18.3126,51.8752
11:26:21.981,16.1876,46.0002
11:26:21.986,12.5,38.8126
11:26:22.018,7.625,31.1876
11:26:22.019,2.0625,21.2501
11:26:22.023,-5.3125,7.6875
11:26:22.024,-10.3125,-0.0625
11:26:22.034,-14.9376,-8.875
11:26:22.044,-19.8751,-18.5626
11:26:22.054,-23.0626,-26.6876
11:26:22.064,-29.3126,-36.0626
11:26:22.075,-32.6876,-44.3127
11:26:22.084,-35.6876,-49.3752
11:26:22.094,-36.7501,-52.9377
11:26:22.105,-35.1876,-51.3752
11:26:22.114,-32.3126,-48.8752
11:26:22.124,-28.6251,-41.8127
11:26:22.134,-25.1251,-35.7501
11:26:22.144,-22.1876,-31.8126
11:26:22.155,-20.3751,-30.0001
11:26:22.165,-20.0001,-28.2501
11:26:22.178,-19.0001,-28.4376
11:26:22.184,-20.5001,-30.0626
11:26:22.194,-22.0001,-33.5001
11:26:22.205,-23.1876,-35.7501
11:26:22.214,-24.1876,-39.3126
11:26:22.225,-24.3751,-39.3752
11:26:22.235,-24.6251,-42.0002
11:26:22.244,-24.5001,-42.6877
11:26:22.254,-24.5001,-44.9377
11:26:22.264,-24.4376,-45.5627
11:26:22.274,-24.3751,-44.5627
11:26:22.284,-22.8751,-45.5627
11:26:22.295,-21.5626,-43.6252
11:26:22.304,-20.8126,-38.7501
11:26:22.314,-17.6251,-29.6876
11:26:22.324,-14.5626,-16.0626
11:26:22.335,-10.5625,-1.5
11:26:22.344,-7.875,10.0625
11:26:22.354,-4.8125,20.0001
11:26:22.364,-3.0625,26.6876
11:26:22.374,-1.5625,30.8126
11:26:22.385,-0.375,32.4376
11:26:22.394,-0.5625,31.4376
11:26:22.404,0.0625,30.6876
11:26:22.414,-1,28.5626
11:26:22.424,-1,24.8751
11:26:22.434,-2.125,21.6251
11:26:22.459,-3,16.8751
11:26:22.462,-4.8125,11.875
11:26:22.467,1.0625,16.5626
11:26:22.477,7.25,26.0626
11:26:22.486,12.75,34.1876
11:26:22.496,16.1876,38.7501
11:26:22.506,19.1876,43.5627
11:26:22.515,22.3126,49.1252
11:26:22.525,26.6876,59.0002
11:26:22.536,31.6251,68.6878
11:26:22.547,33.6251,75.3753
11:26:22.553,35.6251,79.7503
11:26:22.566,34.4376,80.0628
11:26:22.575,34.0626,80.0628
11:26:22.584,32.0001,77.6253
11:26:22.594,30.6876,75.5628
11:26:22.605,29.3126,71.6878
11:26:22.614,26.3126,67.3128
11:26:22.643,23.4376,61.4377
11:26:22.646,20.8126,54.9377
11:26:22.648,16.8751,46.8752
11:26:22.654,13.5626,39.7502
11:26:22.690,8,31.5001
11:26:22.693,0.1875,19.1876
11:26:22.695,-5.25,7.375
11:26:22.698,-10.75,-1.125
11:26:22.704,-15.8126,-11.5
11:26:22.737,-21.3751,-21.3751
11:26:22.739,-26.6251,-30.3126
11:26:22.742,-30.6876,-40.1877
11:26:22.744,-34.3126,-48.1252
11:26:22.770,-36.3126,-52.8127
11:26:22.773,-36.1876,-53.3127
11:26:22.801,-32.3751,-49.1252
11:26:22.804,-30.0001,-43.5627
11:26:22.818,-25.0626,-36.4376
11:26:22.819,-20.8751,-31.0001
11:26:22.833,-19.3126,-27.6251
11:26:22.838,-16.8751,-24.8751
11:26:22.850,-15.3751,-23.2501
11:26:22.853,-15.7501,-23.2501
11:26:22.855,-15.5001,-24.1876
11:26:22.864,-17.1876,-26.3126
11:26:22.874,-17.8126,-29.3751
11:26:22.884,-17.8751,-29.5626
11:26:22.894,-18.4376,-30.8751
11:26:22.914,-18.5001,-30.5001
11:26:22.916,-18.1876,-31.3126
11:26:22.938,-16.8126,-29.6251
11:26:22.953,-16.3751,-29.3751
11:26:22.955,-15.3126,-27.6251
11:26:22.970,-14.3126,-27.0001
11:26:22.973,-13.6251,-24.6876
11:26:22.975,-11.4375,-24.3751
11:26:22.984,-10.75,-22.5626
11:26:22.994,-8.125,-20.0626
11:26:23.004,-6.6875,-18.6876
11:26:23.014,-6.8125,-16.9376
11:26:23.024,-5.5625,-16.4376
11:26:23.034,-4.875,-16.6251
11:26:23.044,-4.6875,-16.6876
11:26:23.054,-5,-18.9376
11:26:23.064,-5.5,-19.8126
11:26:23.074,-6.125,-20.8751
11:26:23.084,-6.5625,-22.1876
11:26:23.094,-5.5625,-22.0001
11:26:23.104,0.125,-10.3125
11:26:23.114,6.1875,2.6875
11:26:23.124,11.9375,19.6876
11:26:23.135,18.3751,36.1876
11:26:23.145,23.1876,53.1252
11:26:23.156,27.1251,64.3127
11:26:23.164,31.3126,75.6878
11:26:23.174,35.5001,84.8753
11:26:23.184,39.0626,92.6254
11:26:23.194,38.1876,93.1254
11:26:23.204,37.3126,87.5003
11:26:23.214,37.3126,87.8128
11:26:23.224,108.4379,198.5008
11:26:23.235,107.1879,190.8757
11:26:23.244,103.6254,181.3757
11:26:23.254,107.8129,186.1257
11:26:23.264,110.6879,193.6882
11:26:23.274,110.9379,194.6882
11:26:23.284,108.0004,189.1257
11:26:23.294,103.4379,180.9382
11:26:23.319,98.6254,173.0632
11:26:23.321,94.4379,165.5006
11:26:23.324,90.6254,160.6881
11:26:23.355,89.7191,158.3131
11:26:23.358,88.8441,161.0006
11:26:23.360,87.8753,153.3756
11:26:23.364,83.4066,149.1256
11:26:23.394,82.5003,149.5006
11:26:23.397,83.5316,151.8131
11:26:23.399,83.9691,153.6256
11:26:23.404,84.9066,154.3131
11:26:23.432,82.7191,153.4381
11:26:23.434,82.1566,151.0631
11:26:23.437,80.0941,148.7506
11:26:23.444,78.719,147.1881
11:26:23.479,77.7815,145.5005
11:26:23.482,76.344,142.8755
11:26:23.484,75.5315,140.188
11:26:23.487,74.0315,138.063
11:26:23.500,72.2815,134.813
11:26:23.504,70.0315,131.7505
11:26:23.514,67.4378,127.1255
11:26:23.524,65.6565,122.1255
11:26:23.534,63.2815,118.2505
11:26:23.544,61.3127,114.8754
11:26:23.554,60.4377,110.1879
11:26:23.564,58.5627,107.0004
11:26:23.574,57.6877,104.0004
11:26:23.584,56.4377,100.8754
11:26:23.594,55.0627,97.7504
11:26:23.604,52.7815,94.4379
11:26:23.614,52.0627,91.1879
11:26:23.626,50.1564,88.3753
11:26:23.635,47.9689,85.2503
11:26:23.646,46.4689,80.2503
11:26:23.654,44.5627,77.5003
11:26:23.664,42.9689,74.7503
11:26:23.674,41.8127,71.6878
11:26:23.684,41.6564,69.0003
11:26:23.694,40.5002,66.9378
11:26:23.704,39.5939,65.6253
11:26:23.714,39.0001,63.7502
11:26:23.740,38.7501,62.6252
11:26:23.743,38.4689,61.5627
11:26:23.745,36.4064,58.8752
11:26:23.755,35.4689,56.1252
11:26:23.766,33.5626,52.6252
11:26:23.775,32.0001,48.6877
11:26:23.784,30.7814,45.7502
11:26:23.794,29.3439,42.5627
11:26:23.804,27.9376,40.3127
11:26:23.814,26.2188,36.3751
11:26:23.824,24.6876,34.1251
11:26:23.834,23.5626,29.9376
11:26:23.844,22.1251,27.1251
11:26:23.854,20.6251,24.6251
11:26:23.865,18.8126,21.6876
11:26:23.875,17.4063,22.6876
11:26:23.885,17.7501,26.9376
11:26:23.896,17.6563,33.5001
11:26:23.906,18.0938,39.5627
11:26:23.914,18.6251,45.1877
11:26:23.924,18.9688,50.4377
11:26:23.934,18.8126,51.3127
11:26:23.944,17.2813,50.7502
11:26:23.954,16.0001,49.9377
11:26:23.964,15.1563,45.7502
11:26:23.974,13.5938,43.8127
11:26:23.984,12.1875,38.6251
11:26:23.994,11.0313,33.3126
11:26:24.005,9.3438,28.5626
11:26:24.014,8.0938,24.0001
11:26:24.025,6.3438,19.6876
11:26:24.035,5.0625,15.1251
11:26:24.046,3.3438,10.25
11:26:24.054,2.25,6.0625
11:26:24.068,1.5,3
11:26:24.074,0.5,1.25
11:26:24.109,-0.5625,0.5625
11:26:24.211,-1.0625,0.5
11:26:24.213,-1.125,0.875
11:26:24.216,-2.4375,1.375
11:26:24.223,-2.25,1.9375
11:26:24.224,-2.9063,4
11:26:24.224,-3.0313,4
11:26:24.268,-3.1875,3.5
11:26:24.283,-4.1563,3.6875
11:26:24.285,-3.875,2.5
11:26:24.300,-4.2188,2.4375
11:26:24.303,-4.2188,2.3125
11:26:24.305,-4.4375,0.5625
11:26:24.309,-4.8125,-0.75
11:26:24.309,-5.6563,-1.75
11:26:24.310,-5.9375,-3.5
11:26:24.319,-6.4063,-5.3125
11:26:24.329,-7.8438,-6.4375
11:26:24.339,-7.5,-9.5
11:26:24.349,-8.625,-10.1875
11:26:24.359,-8.125,-11.625
11:26:24.370,-8.5938,-12
11:26:24.381,-9.0938,-14.4376
11:26:24.391,-12.7813,-22.3751
11:26:24.399,-12.1563,-23.7501
11:26:24.409,-12.4375,-23.3126
11:26:24.419,-12.2188,-22.6251
11:26:24.429,-11.75,-24.5626
11:26:24.439,-12.4063,-24.8126
11:26:24.449,-12.3125,-25.1876
11:26:24.459,-12.4063,-25.5626
11:26:24.470,-12.1563,-25.7501
11:26:24.482,-11.8125,-26.5001
11:26:24.489,-11.8438,-25.4376
11:26:24.499,-11.25,-25.6876
11:26:24.509,-10.5625,-26.5001
11:26:24.519,-11.625,-27.3126
11:26:24.529,-11.9688,-28.8751
11:26:24.539,-12.4375,-28.9376
11:26:24.549,-11.9688,-31.1251
11:26:24.559,-12.1563,-31.6251
11:26:24.571,-12.5313,-31.0626
11:26:24.582,-11.9688,-32.7501
11:26:24.589,-12.4063,-33.0001
11:26:24.599,-12.2188,-33.0001
11:26:24.609,-12,-33.3751
11:26:24.619,-11.0938,-30.2501
11:26:24.629,-10.5938,-24.6876
11:26:24.639,-8.5,-15.1876
11:26:24.651,-6.875,-6
11:26:24.661,-5.3125,2.3125
11:26:24.672,-4.9375,8.1875
11:26:24.679,-4.3125,12.125
11:26:24.689,-4.5313,14.8751
11:26:24.699,-4.2813,15.1876
11:26:24.709,-4.2188,14.9376
11:26:24.719,-4.5938,14.5626
11:26:24.730,-4.3125,11.6875
11:26:24.740,-4.75,9.625
11:26:24.751,-4.9375,7.125
11:26:24.759,-5.2188,3.5625
11:26:24.769,-5.9375,-0.1875
11:26:24.779,-6.75,-4
11:26:24.789,-7.2188,-6.5625
11:26:24.799,-7.2813,-8.8125
11:26:24.809,-8.125,-11.5
11:26:24.837,-8.2188,-12.625
11:26:24.839,-9.0625,-13.6251
11:26:24.842,-8.75,-12.75
11:26:24.870,-9.0938,-12.4375
11:26:24.873,-8.4063,-9.8125
11:26:24.875,-7.4375,-7.5625
11:26:24.901,-7.9063,-5.75
11:26:24.902,-6.8438,-3.625
11:26:24.904,-7.875,-2.8125
11:26:24.909,-6.875,-2.625
11:26:24.935,-7.8438,-3.0625
11:26:24.938,-7.375,-3.375
11:26:24.940,-7.625,-3.625
11:26:24.973,-7.2188,-3.75
11:26:24.976,-7.0625,-2.5
11:26:24.978,-7.5625,-5.0625
11:26:24.981,-7.5313,-5.5625
11:26:25.021,-7.5,-6.6875
11:26:25.022,-7.7813,-7.375
11:26:25.025,-8.5938,-6.9375
11:26:25.027,-7.5938,-9
11:26:25.034,-8.375,-9.0625
11:26:25.041,-8.375,-11.1875
11:26:25.054,-8.1875,-11.75
11:26:25.059,-8.4688,-12.125
11:26:25.071,-8.4375,-13.7501
11:26:25.079,-8.4375,-14.6876
11:26:25.089,-9,-15.3126
11:26:25.099,-9.125,-16.3126
11:26:25.110,-10.0313,-18.4376
11:26:25.122,-9.4688,-18.4376
11:26:25.132,-10.0938,-18.6251
11:26:25.139,-9.6563,-19.3751
11:26:25.149,-9.9063,-19.0001
11:26:25.159,-9.875,-21.3751
11:26:25.169,-10.375,-19.7501
11:26:25.179,-9.75,-21.5001
11:26:25.191,-9.7813,-21.0001
11:26:25.199,-9.5625,-20.6251
11:26:25.209,-9.1875,-21.6251
11:26:25.219,-8.7813,-21.8126
11:26:25.229,-9.7188,-20.3751
11:26:25.239,-9.4688,-21.7501
11:26:25.249,-9.1563,-22.5626
11:26:25.261,-9.0625,-21.8126
11:26:25.269,-8.7813,-22.8751
11:26:25.281,-8.9688,-23.0001
11:26:25.289,-9.125,-24.5626
11:26:25.299,-9.0938,-24.8126
11:26:25.309,-9.7188,-27.3126
11:26:25.322,-9.6563,-26.4376
11:26:25.329,-9.875,-27.2501
11:26:25.339,-9.8125,-25.9376
11:26:25.349,-8.9375,-26.9376
11:26:25.359,-8.8125,-22.4376
11:26:25.370,-7.0938,-16.6251
11:26:25.382,-5.25,-8.8125
11:26:25.389,-2.5313,2.4375
11:26:25.400,-1.8438,8
11:26:25.409,-1.625,13.3751
11:26:25.419,-0.4063,17.4376
11:26:25.433,-1.1563,18.7501
11:26:25.441,-1.2813,18.8751
11:26:25.449,-0.9375,17.0626
11:26:25.460,-2.5625,16.6876
11:26:25.478,-1.7813,13.2501
11:26:25.484,-2.9375,9.625
11:26:25.493,-2.8438,7.8125
11:26:25.502,-3.6563,3.875
11:26:25.515,-4.0938,1.75
11:26:25.525,-4.5,-2.5625
11:26:25.530,-5.4375,-4.75
11:26:25.539,-5.4063,-7.625
11:26:25.549,-5.6563,-8.375
11:26:25.569,-5.875,-9.125
11:26:25.603,-5.6875,-10.125
11:26:25.605,-5.8125,-10.625
11:26:25.634,-5.9375,-9
11:26:25.672,-5.6563,-6.5625
11:26:25.674,-5.3125,-5.875
11:26:25.674,-4.875,-4
11:26:25.674,-4.7813,-1.3125
11:26:25.677,-4.6563,0.375
11:26:25.680,-4.1563,0.4375
11:26:25.682,-3.7813,-1
11:26:25.686,-4.75,0.125
11:26:25.718,-4.25,-0.1875
11:26:25.722,-4.1563,-1.3125
11:26:25.723,-4.4063,-0.0625
11:26:25.725,-4.5938,-2.25
11:26:25.743,-3.8125,-3.125
11:26:25.747,-3.9688,-3.3125
11:26:25.754,-3.6875,-3.5
11:26:25.764,-4.625,-5.0625
11:26:25.774,-4.125,-4.9375
11:26:25.786,-4.5313,-5.5625
11:26:25.794,-4.9063,-7.1875
11:26:25.810,-5.5625,-10.75
11:26:25.822,-6.1563,-12.0625
11:26:25.830,-6.125,-12.8125
11:26:25.844,-6.1563,-11.125
11:26:25.850,-5.2813,-13.3751
11:26:25.859,-6,-12.3125
11:26:25.869,-5.5938,-13.8751
11:26:25.880,-5,-13.7501
11:26:25.889,-5.1563,-13.6251
11:26:25.899,-5.0625,-13.8751
11:26:25.909,-4.5625,-13.8126
11:26:25.919,-5,-15.6876
11:26:25.930,-4.375,-14.1876
11:26:25.939,-4.875,-15.0001
11:26:25.949,-5.5938,-15.6251
11:26:25.959,-5.0938,-16.8751
11:26:25.970,-6.3125,-18.8751
11:26:25.980,-6.4688,-19.5626
11:26:25.989,-6.125,-19.8751
11:26:25.999,-6.375,-20.5626
11:26:26.009,-6.5625,-20.8126
11:26:26.019,-6.2813,-19.6251
11:26:26.029,-6.2813,-20.8126
11:26:26.039,-5.5625,-21.4376
11:26:26.049,-5.4375,-20.2501
11:26:26.060,-4.4375,-18.9376
11:26:26.069,-4.0313,-13.3751
11:26:26.081,-2.4688,-5.375
11:26:26.089,-0.4688,2.8125
11:26:26.099,0.5,11.875
11:26:26.109,1.4375,16.7501
11:26:26.119,2.25,20.1876
11:26:26.131,2.4688,23.8126
11:26:26.139,2.375,23.8126
11:26:26.149,2.4375,23.2501
11:26:26.159,1.9063,21.6876
11:26:26.169,1.25,19.5626
11:26:26.184,0.875,16.5626
11:26:26.189,-0.0625,13.7501
11:26:26.200,-0.5,11.125
11:26:26.209,-0.5,6.875
11:26:26.219,-1.5,3.1875
11:26:26.230,-1.4688,1.4375
11:26:26.242,-1.9375,-1.9375
11:26:26.249,-2.5,-3.5625
11:26:26.289,-2.9063,-4.8125
11:26:26.290,-2.5938,-5.375
11:26:26.293,-2.9688,-5.1875
11:26:26.307,-3.3438,-4.25
11:26:26.310,-3.0625,-1.625
11:26:26.311,-2.5,0.0625
11:26:26.344,-0.8125,2.625
11:26:26.346,-1.5938,3.5625
11:26:26.369,-1.75,4.6875
11:26:26.371,-1.5625,5
11:26:26.372,-1.9375,4.0625
11:26:26.374,-1.5,4.6875
11:26:26.379,-2.375,3
11:26:26.410,-2.0313,3.3125
11:26:26.412,-1.8438,2.25
11:26:26.414,-2.5625,1
11:26:26.421,-3.125,2
11:26:26.441,-2.5625,-0.625
11:26:26.445,-2.625,-1.375
11:26:26.449,-2.6563,-1.625
11:26:26.459,-3.0938,-3.0625
11:26:26.469,-2.8438,-4.1875
11:26:26.479,-3.4688,-3.9375
11:26:26.489,-3.6563,-4.625
11:26:26.499,-3.1875,-6.5625
11:26:26.510,-3.6563,-6.8125
11:26:26.521,-3.5938,-8.625
11:26:26.529,-4.125,-9.125
11:26:26.540,-4.4688,-10.375
11:26:26.549,-4.375,-11.375
11:26:26.560,-4.7813,-12.9375
11:26:26.570,-5.2813,-14.6251
11:26:26.579,-5.8125,-13.5001
11:26:26.589,-5.7813,-14.9376
11:26:26.599,-5.9375,-16.5626
11:26:26.610,-5.3438,-16.0001
11:26:26.621,-5.6563,-16.9376
11:26:26.629,-5.875,-16.0626
11:26:26.639,-5.2188,-15.8751
11:26:26.650,-5.4375,-17.7501
11:26:26.659,-5.5625,-16.0001
11:26:26.670,-5.0938,-17.1876
11:26:26.679,-4.9375,-18.7501
11:26:26.689,-4.6563,-18.6876
11:26:26.699,-4.9063,-19.8126
11:26:26.709,-5.7813,-21.0626
11:26:26.720,-5.9688,-21.6876
11:26:26.729,-5.9063,-21.8126
11:26:26.739,-5.5313,-22.7501
11:26:26.749,-6.1563,-23.1876
11:26:26.759,-6.1563,-23.8751
11:26:26.770,-6.4063,-26.0626
11:26:26.779,-6.9375,-25.5626
11:26:26.789,-6.75,-26.2501
11:26:26.805,-5.9688,-27.9376
11:26:26.812,-6.1563,-27.0626
11:26:26.820,-5.5,-26.4376
11:26:26.829,-5.375,-24.5626
11:26:26.844,-4.5625,-19.0001
11:26:26.852,-2.9375,-9.75
11:26:26.859,-1.75,-1.8125
11:26:26.869,-0.375,5.625
11:26:26.879,0.75,10.625
11:26:26.891,0.6563,14.0626
11:26:26.899,1.625,15.2501
11:26:26.915,0.9688,16.4376
11:26:26.932,1.3125,14.5001
11:26:26.934,0.3438,13.3126
11:26:26.963,-0.0625,12.1875
11:26:26.994,-0.1563,7.375
11:26:26.997,-0.8125,3.875
11:26:26.999,-1.0313,1.8125
11:26:27.002,-1.1875,-1.1875
11:26:27.031,-2.1875,-4
11:26:27.032,-2.625,-7.3125
11:26:27.032,-3.0313,-9.9375
11:26:27.034,-3,-13.6251
11:26:27.036,-3.625,-13.1876
11:26:27.042,-3.375,-14.6251
11:26:27.051,-4.3438,-15.6251
11:26:27.079,-4.5313,-14.3751
11:26:27.081,-4.5313,-12.1875
11:26:27.084,-4.6563,-10.6875
11:26:27.091,-4.2188,-8.9375
11:26:27.118,-2.7188,-7.375
11:26:27.120,-2.875,-5.8125
11:26:27.123,-2.625,-5.125
11:26:27.129,-2.0625,-3.875
11:26:27.140,-1.8125,-3.5
11:26:27.149,-2.3125,-4.75
11:26:27.159,-2.6875,-3
11:26:27.169,-2.5313,-4.6875
11:26:27.179,-2.5313,-4.875
11:26:27.189,-2.125,-5.125
11:26:27.199,-1.9688,-7.125
11:26:27.209,-2.9688,-7.5625
11:26:27.219,-2.4063,-7.6875
11:26:27.232,-2.5,-8.125
11:26:27.239,-3.1563,-8.9375
11:26:27.249,-3.3438,-10.9375
11:26:27.259,-3.3438,-12.5
11:26:27.272,-3.8125,-12.8125
11:26:27.279,-3.9688,-13.5626
11:26:27.289,-3.625,-14.0001
11:26:27.299,-4.1875,-14.5626
11:26:27.310,-4,-16.5626
11:26:27.324,-4.375,-17.6251
11:26:27.329,-4.4063,-16.8751
11:26:27.339,-4.3438,-18.6876
11:26:27.350,-4.9063,-18.8126
11:26:27.359,-3.5313,-18.5001
11:26:27.369,-4.625,-18.6876
11:26:27.379,-3.9688,-18.1251
11:26:27.391,-3.6563,-18.9376
11:26:27.399,-3.6875,-17.8751
11:26:27.409,-2.7813,-18.6876
11:26:27.419,-3.6563,-18.4376
11:26:27.430,-3.4688,-18.5626
11:26:27.439,-3.0938,-19.8751
11:26:27.450,-3.2188,-19.2501
11:26:27.459,-3.125,-20.3751
11:26:27.470,-3.625,-19.1876
11:26:27.480,-2.5625,-19.5626
11:26:27.489,-2.8438,-19.3126
11:26:27.499,-3.0625,-20.1251
11:26:27.509,-2.9063,-21.0626
11:26:27.519,-3,-19.6251
11:26:27.529,-2.9375,-21.1876
11:26:27.539,-3.0938,-23.2501
11:26:27.549,-3.1563,-22.7501
11:26:27.578,-2.5,-23.7501
11:26:27.580,-3.5,-23.8751
11:26:27.583,-2.875,-23.5626
11:26:27.592,-3.2813,-23.6251
11:26:27.599,-2.75,-20.0001
11:26:27.612,-1.4375,-14.9376
11:26:27.620,0.0938,-6.8125
11:26:27.629,1.5625,0.0625
11:26:27.639,2.1563,6.3125
11:26:27.678,2.7188,10.9375
11:26:27.679,3.8125,14.0001
11:26:27.682,3.25,15.0626
11:26:27.684,3.1875,15.5626
11:26:27.690,3.3125,13.7501
11:26:27.719,2.4063,12.0625
11:26:27.722,2.7188,11.0625
11:26:27.725,2.4688,8.0625
11:26:27.729,1.9375,7.0625
11:26:27.739,2.75,4.375
11:26:27.769,1.6563,0.125
11:26:27.771,0.75,-1.75
11:26:27.774,0.625,-4.125
11:26:27.781,0.2188,-7.625
11:26:27.810,-0.3125,-8
11:26:27.812,-0.1875,-9.375
11:26:27.814,-0.1563,-10.25
11:26:27.820,-0.9375,-10.375
11:26:27.841,-1.625,-11
11:26:27.845,-1.375,-9.5
11:26:27.849,-1.3438,-7.5625
11:26:27.859,-1.1875,-6.3125
11:26:27.870,-0.7813,-5.5625
11:26:27.879,-0.1875,-4.4375
11:26:27.889,-0.5,-4.25
11:26:27.901,-0.4063,-3.1875
11:26:27.909,-1.0313,-2.5
11:26:27.919,-0.4375,-4
11:26:27.930,-0.5313,-4.125
11:26:27.942,-1.0625,-4.625
11:26:27.951,-0.9688,-4.9375
11:26:27.959,-1,-5.5625
11:26:27.970,-1.3438,-6.125
11:26:27.979,-1.1563,-5.75
11:26:27.989,-0.4688,-6.6875
11:26:27.999,-1.0938,-6.8125
11:26:28.010,-0.7188,-7.3125
11:26:28.020,-0.9688,-7.1875
11:26:28.029,-0.875,-8.875
11:26:28.039,-1.3125,-8.875
11:26:28.052,-1.7188,-11
11:26:28.059,-1.7188,-12.9375
11:26:28.069,-1.5625,-12.6875
11:26:28.080,-1.2188,-12.6875
11:26:28.092,-1.4063,-12.5625
11:26:28.099,-1.6875,-12.6875
11:26:28.109,-1.4063,-13.9376
11:26:28.129,-1.5313,-13.3126
11:26:28.134,-1.6563,-14.5001
11:26:28.143,-2.0938,-15.1251
11:26:28.149,-2.375,-15.9376
11:26:28.165,-2.2188,-17.5001
11:26:28.172,-2.4688,-16.5001
11:26:28.184,-2.375,-18.0626
11:26:28.189,-2.5625,-18.3751
11:26:28.201,-2.1563,-18.8751
11:26:28.215,-3.0938,-19.3126
11:26:28.219,-2.8438,-17.6876
11:26:28.231,-2.4063,-18.7501
11:26:28.246,-2.2813,-19.1876
11:26:28.262,-2,-18.8126
11:26:28.263,-1.0625,-19.0626
11:26:28.278,-1.2188,-18.2501
11:26:28.281,-1.5,-15.8126
11:26:28.298,0.3438,-10.25
11:26:28.300,1.0625,-4.0625
11:26:28.310,1.6875,4.6875
11:26:28.319,4.2188,11.125
11:26:28.330,4.7188,16.3751
11:26:28.340,5.1563,18.9376
11:26:28.349,5.3438,21.8126
11:26:28.359,5.5,22.5626
11:26:28.371,5.125,22.8751
11:26:28.379,4.8438,21.6876
11:26:28.389,4.7813,18.6876
11:26:28.399,3.8125,17.0001
11:26:28.409,3.6875,14.6876
11:26:28.419,3.5,11.5
11:26:28.429,2.9375,9.5
11:26:28.440,2.875,6.8125
11:26:28.466,2.7813,3.1875
11:26:28.467,2.1875,1.375
11:26:28.469,2.375,1.625
11:26:28.503,2,-0.1875
11:26:28.505,1.3125,-1.5625
11:26:28.507,1.2188,-2.125
11:26:28.509,0.6875,0
11:26:28.537,1.4063,1.6875
11:26:28.539,1.4375,2.3125
11:26:28.542,1.5,4.375
11:26:28.566,1.625,4.875
11:26:28.569,1.4375,6.875
11:26:28.572,2.0938,6.5
11:26:28.602,2.1563,6.625
11:26:28.604,2.1563,6.9375
11:26:28.607,1.6875,7.9375
11:26:28.611,2.1563,7.1875
11:26:28.631,2.3125,6.875
11:26:28.634,2.2188,6.0625
11:26:28.639,1.25,4.125
11:26:28.649,1.25,4.6875
11:26:28.661,1.9375,3.75
11:26:28.669,1.2813,2.9375
11:26:28.679,1.4375,3.4375
11:26:28.689,1.2188,2.4375
11:26:28.701,1.4063,-0.0625
11:26:28.709,0.4688,-0.8125
11:26:28.719,0.1563,-1.8125
11:26:28.729,-0.375,-1
11:26:28.741,0.3125,-2.5625
11:26:28.752,0,-4.0625
11:26:28.759,-0.1563,-5.4375
11:26:28.774,-0.7188,-5.625
11:26:28.786,-0.4063,-4.5
11:26:28.794,0,-5.625
11:26:28.804,0.3438,-6.4375
11:26:28.814,-0.625,-7.5
11:26:28.824,-0.5625,-6.5
11:26:28.834,0.0938,-6.25
11:26:28.862,0.5625,-7.5
11:26:28.865,-0.4688,-9.0625
11:26:28.871,-1.5313,-11.1875
11:26:28.879,-2.125,-11.25
11:26:28.889,-2.25,-12.8125
11:26:28.899,-2.5313,-13.5626
11:26:28.909,-2.4688,-15.1251
11:26:28.920,-3.25,-16.1876
11:26:28.929,-2.75,-15.0001
11:26:28.939,-2.625,-16.0001
11:26:28.949,-2.2813,-15.8126
11:26:28.962,-1.875,-17.1251
11:26:28.969,-2.375,-15.6251
11:26:28.979,-1.5625,-15.8126
11:26:28.991,-1.0313,-14.3126
11:26:29.006,-0.375,-8.9375
11:26:29.010,0.9688,-2.5625
11:26:29.019,1.8125,6.1875
11:26:29.031,3.0625,14.5626
11:26:29.039,3.3125,21.0001
11:26:29.049,3.9063,22.7501
11:26:29.059,4.375,24.2501
11:26:29.069,3.0625,25.0001
11:26:29.079,2.3125,23.3751
11:26:29.089,2.125,20.5001
11:26:29.099,2.0625,19.1876
11:26:29.109,2.0313,16.5626
11:26:29.119,1.0625,13.6251
11:26:29.129,0.4688,11.6875
11:26:29.141,0.7813,8.125
11:26:29.149,-0.25,6.3125
11:26:29.161,-0.3125,1.9375
11:26:29.169,-0.6563,-0.3125
11:26:29.179,-1.0625,-0.375
11:26:29.190,-0.5313,-2.125
11:26:29.199,-1.125,-3.625
11:26:29.234,-2.1563,-4.1875
11:26:29.237,-2.0625,-2.375
11:26:29.239,-1.8438,-1.6875
11:26:29.242,-2.125,-0.5625
11:26:29.271,-2.6875,-0.25
11:26:29.273,-2.25,2.3125
11:26:29.275,-1.9688,2.6875
11:26:29.280,-2.5,2.9375
11:26:29.314,-2.3438,3.375
11:26:29.317,-2.4063,4.4375
11:26:29.319,-1.5625,4
11:26:29.353,-1.8125,3.3125
11:26:29.355,-2.3125,2.75
11:26:29.356,-1.75,3.25
11:26:29.363,-1.9688,1.0625
11:26:29.364,-3.0313,0.4375
11:26:29.397,-2.1563,-0.25
11:26:29.399,-3.5313,-1.125
11:26:29.402,-3.4688,-1.3125
11:26:29.405,-3.1563,-3.6875
11:26:29.414,-3.5313,-3.25
11:26:29.424,-3.2188,-3.9375
11:26:29.434,-2.4688,-4.9375
11:26:29.450,-2.875,-6.5625
11:26:29.457,-3.1875,-6.1875
11:26:29.466,-3.4063,-7.5625
11:26:29.475,-3.6563,-7.9375
11:26:29.489,-4.0938,-9.3125
11:26:29.498,-4.0938,-9.0625
11:26:29.504,-3.7188,-9.9375
11:26:29.517,-3.5625,-10.5
11:26:29.525,-4.2813,-10.875
11:26:29.534,-4.3125,-10.4375
11:26:29.547,-3.9688,-11.875
11:26:29.563,-3.5313,-12.1875
11:26:29.565,-4.1563,-11.375
11:26:29.580,-4.2813,-13.2501
11:26:29.595,-3.9063,-13.3751
11:26:29.598,-4.1563,-14.4376
11:26:29.607,-4.1875,-14.6876
11:26:29.615,-4.3125,-15.0626
11:26:29.624,-3.8125,-15.8126
11:26:29.634,-4.3125,-15.1251
11:26:29.644,-3.5938,-14.8751
11:26:29.654,-3,-15.4376
11:26:29.664,-3.4375,-14.6251
11:26:29.675,-2.7188,-15.1251
11:26:29.684,-2.3125,-15.3126
11:26:29.694,-2.2188,-14.5626
11:26:29.704,-1.5313,-15.1251
11:26:29.714,-1.5313,-13.4376
11:26:29.725,-0.9688,-7.25
11:26:29.734,0.375,1
11:26:29.747,1.4063,8.125
11:26:29.754,2.4063,14.4376
11:26:29.764,3.3438,21.3751
11:26:29.775,4.4688,25.1251
11:26:29.784,4.2813,27.1251
11:26:29.794,4.5313,29.0626
11:26:29.804,4.9063,28.0626
11:26:29.815,4.375,27.8751
11:26:29.826,4.5938,26.8751
11:26:29.839,4.9375,25.1876
11:26:29.849,4.3125,23.5001
11:26:29.860,4.0938,20.0626
11:26:29.892,3.25,17.1876
11:26:29.894,3.0938,16.4376
11:26:29.897,3.0938,12
11:26:29.899,2.0625,9.875
11:26:29.928,1.8125,7.625
11:26:29.931,1.1563,5.625
11:26:29.933,0.5625,4.4375
11:26:29.939,0.4063,4.5625
11:26:29.971,0.0625,4.6875
11:26:29.973,-0.2188,4.4375
11:26:29.976,-0.0313,6
11:26:30.003,0.1563,7.875
11:26:30.005,0.8438,10.75
11:26:30.007,0.6563,11.75
11:26:30.011,1.3125,13.6251
11:26:30.040,1.625,14.0626
11:26:30.043,1.375,14.5001
11:26:30.045,1,14.5626
11:26:30.051,1,14.1251
11:26:30.059,1.875,12.9375
11:26:30.069,0.5938,12
11:26:30.079,0.5625,11.125
11:26:30.090,0.1563,10.6875
11:26:30.101,0.0625,11
11:26:30.109,1.125,8
11:26:30.140,0.0938,7.4375
11:26:30.142,-0.1875,8.0625
11:26:30.144,-0.0313,6.8125
11:26:30.149,-0.0313,4.6875
11:26:30.164,-0.9063,3.875
11:26:30.169,-0.875,3.25
11:26:30.179,-1.2813,2.5625
11:26:30.189,-1,2.125
11:26:30.199,-0.6563,1.3125
11:26:30.210,-1,-0.0625
11:26:30.219,-1.5,0.4375
11:26:30.229,-0.9688,-0.0625
11:26:30.240,-0.5313,-0.5
11:26:30.249,-0.9063,-1.1875
11:26:30.259,-1.5313,-2.3125
11:26:30.269,-1.5625,-1.9375
11:26:30.282,-1.875,-3.25
11:26:30.289,-1.2188,-3.75
11:26:30.299,-2.5,-5.125
11:26:30.311,-2.8438,-5.75
11:26:30.319,-2.3125,-6.8125
11:26:30.329,-2.1563,-6.5
11:26:30.341,-2.2188,-7.5
11:26:30.349,-2.4688,-6.4375
11:26:30.359,-1.875,-7.25
11:26:30.371,-2.1875,-8
11:26:30.379,-2.4375,-7.3125
11:26:30.389,-1.9375,-7.9375
11:26:30.401,-2.4063,-7.8125
11:26:30.409,-1.3438,-4.5
11:26:30.419,-1,1.375
11:26:30.431,0.25,8.8125
11:26:30.439,1.4688,16.2501
11:26:30.449,2.1563,23.6251
11:26:30.460,3,28.5626
11:26:30.469,3.125,33.1876
11:26:30.479,4.0938,34.5001
11:26:30.489,3.9375,35.9376
11:26:30.499,3.0625,35.0001
11:26:30.509,2.8125,33.1251
11:26:30.519,2.2813,31.7501
11:26:30.532,2.1563,28.6251
11:26:30.539,0.8438,27.3751
11:26:30.549,1.25,23.0626
11:26:30.560,0.5625,20.6876
11:26:30.569,0.4063,19.1251
11:26:30.579,-0.0313,15.7501
11:26:30.592,-0.25,14.5626
11:26:30.606,-0.2188,12.3125
11:26:30.609,-0.7813,10.625
11:26:30.641,-1.4063,9.125
11:26:30.644,-2.3125,10.4375
11:26:30.647,-2.2813,10.875
11:26:30.653,-1.5625,11.375
11:26:30.682,-2.0938,12.1875
11:26:30.684,-1.9688,14.9376
11:26:30.685,-1.9063,16.9376
11:26:30.692,-1.375,17.3751
11:26:30.718,-1.4688,17.4376
11:26:30.720,-1.625,17.8126
11:26:30.723,-1.3438,19.0001
11:26:30.760,-0.6563,18.3126
11:26:30.791,-1.0313,18.0626
11:26:30.794,-0.875,19.1251
11:26:30.799,-0.5625,18.0626
11:26:30.799,-1.25,17.5626
11:26:30.799,-1.5313,17.0626
11:26:30.805,-1.1875,15.2501
11:26:30.815,-1.9063,13.5001
11:26:30.824,-2.2813,13.4376
11:26:30.834,-1.6875,12.375
11:26:30.846,-2.4375,11.9375
11:26:30.854,-3.125,10.8125
11:26:30.864,-2.625,10.4375
11:26:30.881,-2.5938,8.8125
11:26:30.884,-3.25,6.8125
11:26:30.899,-4.4375,5.4375
11:26:30.905,-4.0938,6.1875
11:26:30.914,-3.75,4.75
11:26:30.924,-4.375,3.5625
11:26:30.934,-4.5,2.5625
11:26:30.945,-4.9063,2
11:26:30.954,-4.7813,1
11:26:30.965,-5.6875,-0.625
11:26:30.974,-6,-0.375
11:26:30.984,-6.125,-1.8125
11:26:30.994,-6.25,-3.6875
11:26:31.004,-5.8438,-2.6875
11:26:31.015,-5.9063,-3.1875
11:26:31.024,-5.8438,-3.625
11:26:31.034,-6.3125,-4.0625
11:26:31.045,-6.3438,-4.6875
11:26:31.054,-5.8125,-5.9375
11:26:31.064,-5.7188,-6.3125
11:26:31.074,-6.5,-6.9375
11:26:31.084,-5.75,-5.75
11:26:31.094,-5.2188,-5.1875
11:26:31.104,-5.0938,-3.5625
11:26:31.114,-4.5938,4.6875
11:26:31.124,-2.75,12.8125
11:26:31.137,-1.9688,20.3751
11:26:31.144,-1.375,27.9376
11:26:31.154,-0.1875,33.3126
11:26:31.164,-0.5938,36.3126
11:26:31.174,-1.1875,39.7502
11:26:31.184,-1.0938,37.8751
11:26:31.194,-2.2813,36.2501
11:26:31.205,-2.7813,34.8751
11:26:31.214,-3.4375,32.6251
11:26:31.224,-4.4688,29.9376
11:26:31.234,-4.125,26.2501
11:26:31.245,-5.6875,23.1876
11:26:31.254,-5.9688,20.2501
11:26:31.264,-6.375,15.6251
11:26:31.274,-7.0313,12.625
11:26:31.290,-7.8438,11.25
11:26:31.295,-7.5313,8.625
11:26:31.304,-8.5313,6.5625
11:26:31.315,-8.9688,7.25
11:26:31.333,-8.9375,6.625
11:26:31.335,-8.4375,6.8125
11:26:31.364,-8.9688,9.3125
11:26:31.366,-7.6875,11.5
11:26:31.371,-8.1875,14.5001
11:26:31.377,-8.375,15.3126
11:26:31.409,-8.0625,16.8751
11:26:31.411,-7.2188,16.4376
11:26:31.413,-7.5,16.0626
11:26:31.427,-8,17.1251
11:26:31.431,-7.9063,16.9376
11:26:31.447,-7.9063,15.3751
11:26:31.447,-8.4688,14.7501
11:26:31.454,-7.7813,14.1251
11:26:31.486,-8.7188,12.875
11:26:31.489,-9.2188,13.0625
11:26:31.491,-8.3438,11.625
11:26:31.498,-8.25,9.875
11:26:31.505,-8.875,7.875
11:26:31.514,-9.4063,7
11:26:31.524,-9.7813,7
11:26:31.534,-9.5938,4.875
11:26:31.544,-10.6563,2.375
11:26:31.554,-11.0313,2.9375
11:26:31.564,-11.4375,2.3125
11:26:31.575,-11.125,-0.125
11:26:31.584,-11.1563,-1.875
11:26:31.594,-11.8438,-3.5625
11:26:31.606,-11.1563,-2.75
11:26:31.614,-11.8438,-4.375
11:26:31.624,-12.0313,-4.5625
11:26:31.636,-11.5,-4.625
11:26:31.644,-11.9063,-6.0625
11:26:31.654,-11.4375,-7.25
11:26:31.664,-11.6875,-6.0625
11:26:31.674,-11.0938,-7
11:26:31.684,-11.625,-7.625
11:26:31.694,-12.2188,-8
11:26:31.704,-11.7813,-9.25
11:26:31.714,-12.0938,-11.4375
11:26:31.724,-13.0938,-10.9375
11:26:31.734,-12.3438,-12.375
11:26:31.745,-12.875,-12.625
11:26:31.755,-12.5313,-14.0001
11:26:31.764,-12.7188,-15.3751
11:26:31.776,-13.0313,-14.3751
11:26:31.785,-12.5,-15.9376
11:26:31.794,-12.75,-15.9376
11:26:31.806,-12.7813,-17.5001
11:26:31.814,-12.5938,-18.3751
11:26:31.824,-12.8125,-17.6251
11:26:31.836,-12.0938,-17.8751
11:26:31.844,-11.7188,-16.5626
11:26:31.854,-10.2813,-11.8125
11:26:31.865,-9.8438,-3.625
11:26:31.875,-7.6563,6.125
11:26:31.884,-6.7813,13.5001
11:26:31.896,-6.7188,20.9376
11:26:31.904,-5.9063,25.4376
11:26:31.914,-6.1563,27.6876
11:26:31.924,-6.2813,29.6876
11:26:31.934,-6.25,30.3126
11:26:31.944,-6.4063,28.5001
11:26:31.954,-6.625,28.7501
11:26:31.964,-6.5,26.2501
11:26:31.975,-7.125,24.1876
11:26:31.984,-6.625,21.1251
11:26:31.994,-6.9063,17.8126
11:26:32.007,-7.625,15.5626
11:26:32.016,-8.0625,12.375
11:26:32.024,-8.6563,9.875
11:26:32.039,-7.6563,7.375
11:26:32.044,-8.875,5.5625
11:26:32.054,-9.3125,6.1875
11:26:32.071,-10.3125,4.5625
11:26:32.086,-9.5938,4.3125
11:26:32.089,-9.5625,6.625
11:26:32.097,-9.25,7.75
11:26:32.104,-9.5313,9.625
11:26:32.114,-9.5625,12.1875
11:26:32.124,-9.0938,13.6251
11:26:32.151,-8.7813,14.1251
11:26:32.154,-8.8438,15.0626
11:26:32.157,-7.75,15.8126
11:26:32.228,-8.5,16.1876
11:26:32.232,-8.0938,17.7501
11:26:32.236,-7.4063,16.6251
11:26:32.236,-7.75,15.8751
11:26:32.239,-7.25,16.2501
11:26:32.266,-7.7813,13.9376
11:26:32.266,-7.7813,14.6251
11:26:32.266,-8.25,13.4376
11:26:32.271,-8.1875,11.875
11:26:32.298,-8.5313,9.875
11:26:32.300,-8.8438,10.125
11:26:32.305,-8.4688,8.625
11:26:32.308,-8.5938,7.4375
11:26:32.309,-9.2813,7.1875
11:26:32.320,-9.375,6.1875
11:26:32.329,-9.7188,3.875
11:26:32.339,-10.5,3.125
11:26:32.352,-10.625,1.75
11:26:32.359,-10.5938,0.625
11:26:32.369,-10.2813,-0.8125
11:26:32.379,-10.7813,-1.1875
11:26:32.389,-10.9375,-2.25
11:26:32.400,-11.375,-3.125
11:26:32.416,-11.1563,-3.5625
11:26:32.419,-11.4063,-3.5625
11:26:32.431,-10.9063,-4.3125
11:26:32.439,-10.9063,-5.375
11:26:32.449,-11.0938,-6.5
11:26:32.460,-11.4375,-5.875
11:26:32.469,-12.1563,-6
11:26:32.482,-11.7188,-8.5625
11:26:32.490,-12.0625,-9.375
11:26:32.499,-11.3125,-8.625
11:26:32.509,-11.4688,-9.8125
11:26:32.519,-11.3438,-10.25
11:26:32.529,-11.0625,-9.8125
11:26:32.539,-10.625,-11
11:26:32.549,-10.8125,-11
11:26:32.561,-10.8125,-11.75
11:26:32.569,-10.875,-11.25
11:26:32.579,-10.75,-11.1875
11:26:32.589,-10.875,-9.625
11:26:32.599,-10.25,-6.8125
11:26:32.610,-9.875,1.1875
11:26:32.619,-8.5,10.3125
11:26:32.629,-6.0625,19.5626
11:26:32.642,-4.5625,27.5626
11:26:32.649,-3.625,31.6251
11:26:32.659,-4.9375,34.7501
11:26:32.669,-4.1875,36.3751
11:26:32.699,-5.3125,36.3126
11:26:32.701,-5.4375,36.4376
11:26:32.703,-5.5625,32.8126
11:26:32.710,-6.375,29.8751
11:26:32.721,-6.625,28.8751
11:26:32.730,-6.6875,24.8751
11:26:32.739,-6.875,21.5626
11:26:32.749,-6.8125,19.2501
11:26:32.759,-8.1875,15.6876
11:26:32.770,-8.9375,13.3751
11:26:32.791,-8.75,10.125
11:26:32.794,-9.875,7.4375
11:26:32.825,-10.375,7.5
11:26:32.826,-10.5625,6.375
11:26:32.828,-10.75,7.125
11:26:32.832,-10,7.9375
11:26:32.871,-10.1875,9.4375
11:26:32.872,-9.875,11.4375
11:26:32.874,-10.0625,14.1876
11:26:32.877,-9.625,16.0626
11:26:32.882,-8.4375,17.0001
11:26:32.907,-8.4375,20.1251
11:26:32.912,-6.875,20.3751
11:26:32.913,-7.125,20.3751
11:26:32.941,-7.0625,21.5001
11:26:32.944,-6.625,21.8751
11:26:32.945,-6.875,20.1251
11:26:32.950,-7.4375,19.0001
11:26:32.960,-7.375,18.6876
11:26:32.969,-6.875,17.6876
11:26:32.982,-7,17.3751
11:26:32.990,-6.375,16.8751
11:26:32.999,-5.5625,17.5626
11:26:33.009,-5.1875,18.3126
11:26:33.019,-3.6875,20.9376
11:26:33.030,-1.8125,24.3126
11:26:33.039,1.6875,29.0626
11:26:33.050,4.875,34.2501
11:26:33.060,8.5,41.1877
11:26:33.069,10.875,48.6252
11:26:33.082,11.5625,50.1252
11:26:33.090,11.4375,49.5002
11:26:33.099,10.9375,50.1877
11:26:33.112,9.9375,48.6252
11:26:33.119,9.125,46.8752
11:26:33.130,8.4375,47.6252
11:26:33.140,9.125,46.8752
11:26:33.149,8.0625,45.6877
11:26:33.160,5.5,42.3127
11:26:33.169,3.4375,40.7502
11:26:33.180,0.0625,37.1251
11:26:33.190,-3,30.6251
11:26:33.199,-8.1875,23.0626
11:26:33.210,-14.3751,17.1876
11:26:33.219,-19.3126,10.25
11:26:33.229,-25.2501,3.4375
11:26:33.241,-30.3751,-4.125
11:26:33.249,-36.5001,-10.4375
11:26:33.259,-41.7502,-18.6251
11:26:33.269,-46.4377,-25.6876
11:26:33.279,-51.0627,-31.0626
11:26:33.290,-54.0002,-35.6876
11:26:33.299,-57.2502,-40.7502
11:26:33.309,-58.5627,-43.6877
11:26:33.319,-61.3127,-45.8127
11:26:33.337,-64.3752,-45.4377
11:26:33.341,-65.3753,-43.5627
11:26:33.350,-66.1253,-40.1877
11:26:33.366,-67.9378,-35.3126
11:26:33.369,-68.5003,-28.3126
11:26:33.384,-69.5003,-24.8751
11:26:33.390,-69.8753,-21.5001
11:26:33.400,-70.8753,-21.2501
11:26:33.410,-75.1253,-24.1251
11:26:33.421,-81.3128,-30.5001
11:26:33.429,-90.3128,-41.6877
11:26:33.439,-101.3129,-55.1252
11:26:33.450,-116.5004,-76.3128
11:26:33.459,-134.7505,-103.7504
11:26:33.479,-151.4381,-130.6255
11:26:33.482,-169.3131,-158.5631
11:26:33.497,-184.0632,-184.3132
11:26:33.503,-198.4383,-211.3133
11:26:33.511,-212.4383,-234.7509
11:26:33.519,-224.7509,-257.6885
11:26:33.529,-237.8759,-278.9386
11:26:33.539,-249.1884,-299.0637
11:26:33.550,-258.9385,-316.2512
11:26:33.559,-266.4385,-328.8138
11:26:33.569,-271.9385,-336.2513
11:26:33.607,-275.8135,-341.5638
11:26:33.609,-275.751,-342.0013
11:26:33.613,-272.9385,-335.3138
11:26:33.614,-268.9385,-325.8137
11:26:33.621,-262.3135,-314.6887
11:26:33.655,-258.3135,-304.0637
11:26:33.658,-254.876,-297.5636
11:26:33.660,-251.751,-293.5011
11:26:33.687,-250.6259,-287.4386
11:26:33.688,-245.5009,-280.8136
11:26:33.691,-240.8134,-267.8135
11:26:33.696,-235.5009,-254.9385
11:26:33.701,-234.7509,-250.1884
11:26:33.733,-220.6258,-235.0634
11:26:33.735,-211.3758,-226.4384
11:26:33.738,-211.3133,-232.9384
11:26:33.740,-215.7508,-244.3759
11:26:33.762,-217.1258,-253.8135
11:26:33.765,-212.3758,-248.2509
11:26:33.770,-203.3758,-239.9384
11:26:33.779,-193.2507,-223.3134
11:26:33.791,-179.8132,-207.7508
11:26:33.800,-164.9381,-187.3132
11:26:33.811,-147.8131,-161.5006
11:26:33.820,-128.813,-130.1255
11:26:33.830,-112.5629,-103.5004
11:26:33.839,-106.5629,-89.1253
11:26:33.849,-107.6254,-87.8128
11:26:33.860,-112.6879,-90.6253
11:26:33.876,-121.563,-101.8754
11:26:33.885,-132.8755,-116.8754
11:26:33.894,-137.438,-124.313
11:26:33.904,-140.813,-127.438
11:26:33.914,-144.813,-132.3755
11:26:33.924,-145.313,-133.188
11:26:33.935,-145.5005,-132.5005
11:26:33.945,-142.2505,-127.5005
11:26:33.954,-136.313,-118.6255
11:26:33.980,-126.688,-104.2504
11:26:33.982,-120.2505,-92.0004
11:26:33.987,-116.4379,-83.6878
11:26:33.994,-117.5005,-83.7503
11:26:34.005,-121.188,-90.5004
11:26:34.015,-125.063,-97.8129
11:26:34.024,-137.2505,-120.5005
11:26:34.035,-166.1256,-175.8757
11:26:34.044,-175.3757,-199.8133
11:26:34.054,-179.6882,-212.3758
11:26:34.067,-180.2507,-218.9383
11:26:34.074,-177.1882,-215.6258
11:26:34.084,-168.6256,-207.6258
11:26:34.094,-158.6881,-193.1257
11:26:34.105,-142.563,-167.4381
11:26:34.116,-119.6255,-123.313
11:26:34.125,-89.1878,-65.8753
11:26:34.137,-60.6252,-8.9375
11:26:34.144,-46.7502,25.0626
11:26:34.155,-43.8127,40.0002
11:26:34.165,-47.3752,43.3752
11:26:34.174,-52.7502,39.3751
11:26:34.184,-55.3752,38.0001
11:26:34.194,-62.1877,29.3126
11:26:34.204,-67.0003,21.6876
11:26:34.217,-73.4378,12.6875
11:26:34.224,-80.3753,2.125
11:26:34.234,-84.0628,-7.5
11:26:34.244,-88.8128,-14.1876
11:26:34.254,-89.0003,-19.3126
11:26:34.266,-90.4379,-19.9376
11:26:34.285,-90.0628,-21.8751
11:26:34.288,-88.5628,-18.8751
11:26:34.315,-89.5003,-20.6251
11:26:34.318,-89.3753,-19.1876
11:26:34.321,-84.8128,-12.4375
11:26:34.327,-79.0628,-3.0625
11:26:34.359,-77.9378,-1.5
11:26:34.361,-79.2503,-6
11:26:34.363,-80.2503,-9.6875
11:26:34.368,-82.9378,-16.5001
11:26:34.396,-85.0003,-20.7501
11:26:34.399,-84.8128,-25.6251
11:26:34.400,-83.5628,-24.7501
11:26:34.405,-80.5628,-22.9376
11:26:34.433,-77.4378,-21.0626
11:26:34.438,-76.4378,-17.7501
11:26:34.438,-73.3128,-18.9376
11:26:34.444,-65.2502,-7.9375
11:26:34.459,-49.7502,14.1251
11:26:34.464,-38.2501,34.8126
11:26:34.475,-34.4376,44.5627
11:26:34.484,-34.7501,44.6252
11:26:34.495,-39.5627,42.0002
11:26:34.506,-51.9377,22.3126
11:26:34.515,-67.4378,0.5
11:26:34.525,-75.4378,-13.6876
11:26:34.535,-82.3128,-25.0626
11:26:34.544,-86.6878,-30.3751
11:26:34.554,-89.5003,-36.6876
11:26:34.566,-91.1254,-39.3127
11:26:34.575,-91.3129,-38.6251
11:26:34.585,-88.5003,-35.2501
11:26:34.594,-85.0003,-30.6251
11:26:34.605,-77.6253,-20.0001
11:26:34.617,-72.4378,-11.25
11:26:34.627,-71.3128,-8.375
11:26:34.636,-72.3753,-9.875
11:26:34.645,-72.0628,-9.9375
11:26:34.664,-67.3128,-5.375
11:26:34.670,-60.6252,3.8125
11:26:34.685,-63.1877,-1.5
11:26:34.688,-68.9378,-16.0001
11:26:34.696,-75.3753,-31.0001
11:26:34.704,-81.2503,-44.8752
11:26:34.714,-85.2503,-54.7502
11:26:34.725,-87.9378,-60.8752
11:26:34.735,-86.4378,-65.8128
11:26:34.744,-84.9378,-63.8127
11:26:34.754,-79.3128,-61.4377
11:26:34.776,-76.8128,-57.1877
11:26:34.779,-73.9378,-56.0627
11:26:34.793,-69.5628,-52.1252
11:26:34.799,-59.8127,-37.7501
11:26:34.805,-40.2502,-6
11:26:34.816,-21.5626,34.2501
11:26:34.824,-7.8125,67.8128
11:26:34.835,-0.1875,89.7503
11:26:34.845,-5.875,92.7504
11:26:34.854,-21.0001,76.1878
11:26:34.866,-39.7502,50.5627
11:26:34.874,-47.5627,38.6251
11:26:34.887,-47.3752,40.6877
11:26:34.897,-46.3127,44.9377
11:26:34.905,-47.0002,43.7502
11:26:34.914,-49.8127,40.7502
11:26:34.925,-50.5002,38.7501
11:26:34.936,-47.6252,42.6877
11:26:34.945,-42.0002,47.4377
11:26:34.955,-37.0626,53.7502
11:26:34.964,-31.1251,62.3752
11:26:34.974,-24.2501,71.2503
11:26:34.986,-15.1876,84.3128
11:26:34.994,-10.375,89.5003
11:26:35.009,-14.2501,84.3753
11:26:35.041,-14.3126,82.6253
11:26:35.043,-9.9375,90.1253
11:26:35.045,-7.125,92.4379
11:26:35.048,-9.625,88.5003
11:26:35.054,-13.8126,79.6253
11:26:35.093,-18.6876,73.1878
11:26:35.095,-23.1251,63.3752
11:26:35.098,-26.8126,55.8752
11:26:35.125,-30.1251,48.8127
11:26:35.127,-32.7501,41.6877
11:26:35.129,-36.0001,35.0001
11:26:35.133,-37.6251,28.5001
11:26:35.135,-29.0001,37.4376
11:26:35.171,-15.9376,55.9377
11:26:35.173,-0.5,80.7503
11:26:35.176,10.125,100.9379
11:26:35.178,16.0001,114.0629
11:26:35.185,14.6251,114.2504
11:26:35.198,6.8125,104.8129
11:26:35.205,-3.375,88.6253
11:26:35.215,-15.6876,69.8753
11:26:35.226,-23.7501,56.8752
11:26:35.258,-29.0001,49.6877
11:26:35.260,-34.5001,41.0627
11:26:35.263,-39.0001,33.6876
11:26:35.265,-41.1877,28.5626
11:26:35.279,-40.0627,30.1876
