timestamp,Red,IR
11:21:18.698,-0.9375,-14.5626
11:21:18.706,-1.3438,-14.3751
11:21:18.717,-1.4375,-14.7501
11:21:18.727,-1.75,-15.8751
11:21:18.739,-2.0313,-16.4376
11:21:18.748,-2.3438,-16.9376
11:21:18.758,-2.9063,-17.0626
11:21:18.767,-3.25,-16.8126
11:21:18.777,-3,-17.6251
11:21:18.786,-3.125,-18.1251
11:21:18.798,-4.1563,-18.6251
11:21:18.807,-4.1875,-18.5626
11:21:18.817,-4.25,-20.1876
11:21:18.827,-4.1563,-19.7501
11:21:18.837,-4.75,-19.8126
11:21:18.846,-4.75,-20.5626
11:21:18.862,-5.0313,-22.3751
11:21:18.867,-5.4375,-21.5626
11:21:18.878,-5.4063,-22.8751
11:21:18.887,-5.5625,-22.6251
11:21:18.897,-6.3125,-23.6876
11:21:18.907,-6.5313,-23.1876
11:21:18.917,-6.1875,-23.6876
11:21:18.927,-5.5,-21.0001
11:21:18.936,-2.625,-16.6876
11:21:18.947,0.375,-9.8125
11:21:18.957,3.7188,-2.875
11:21:18.967,6.25,3.375
11:21:18.978,8.8125,8.4375
11:21:18.987,10.125,12.5
11:21:18.996,11.4688,14.3126
11:21:19.007,11.9688,16.7501
11:21:19.023,12.7813,17.3751
11:21:19.037,12.4375,18.2501
11:21:19.041,12.125,16.4376
11:21:19.055,11.9063,15.8126
11:21:19.070,10.9063,15.4376
11:21:19.074,10.6563,13.2501
11:21:19.079,10.4375,11.8125
11:21:19.090,9.9688,11.3125
11:21:19.098,9,10.6875
11:21:19.106,9.3125,8.8125
11:21:19.133,9.25,7.625
11:21:19.136,9.1563,8.625
11:21:19.139,9.1563,8
11:21:19.146,8.875,6.5625
11:21:19.156,7.2813,6.5625
11:21:19.179,7.625,5.0625
11:21:19.181,7.9375,4.1875
11:21:19.209,6.5,2.5
11:21:19.211,6.625,1.375
11:21:19.214,6.4375,2
11:21:19.227,6.625,2.75
11:21:19.234,6.9688,3.3125
11:21:19.238,7.0938,2.625
11:21:19.269,7.875,3.9375
11:21:19.271,8,3.4375
11:21:19.274,7.75,3.75
11:21:19.278,8.0313,4.3125
11:21:19.307,8.0313,4.1875
11:21:19.310,8.2813,3.8125
11:21:19.312,6.9063,3.4375
11:21:19.319,6.5313,3.75
11:21:19.344,6.4063,3.25
11:21:19.347,6.0625,2.125
11:21:19.349,5.7813,0.625
11:21:19.359,4.75,1
11:21:19.368,4.375,0.125
11:21:19.378,4.5938,-1.75
11:21:19.388,3.4688,-2.6875
11:21:19.398,4.2813,-4.125
11:21:19.407,2.6875,-4.8125
11:21:19.417,2.7188,-6.0625
11:21:19.426,2.625,-6.25
11:21:19.438,2.5625,-7.1875
11:21:19.447,2.3438,-8.375
11:21:19.456,1.625,-7.4375
11:21:19.466,2.25,-8.4375
11:21:19.479,1.6563,-8.9375
11:21:19.487,1.7188,-9.5
11:21:19.497,1.5625,-10.4375
11:21:19.507,1.625,-9.5625
11:21:19.517,1.1875,-10.4375
11:21:19.527,0.625,-10.25
11:21:19.537,1.0313,-10.5625
11:21:19.547,1.3438,-11.25
11:21:19.558,0.9688,-11.1875
11:21:19.566,0.9688,-10.4375
11:21:19.578,0.9375,-10.3125
11:21:19.587,0.625,-11
11:21:19.597,1.3438,-10.8125
11:21:19.609,-0.1563,-11.8125
11:21:19.620,0.1875,-12.25
11:21:19.627,-0.5938,-12.25
11:21:19.638,-0.0313,-12.0625
11:21:19.647,-0.25,-12.875
11:21:19.658,-0.3125,-12.5625
11:21:19.667,0.0313,-13.7501
11:21:19.678,-0.9063,-12.875
11:21:19.687,-0.6875,-13.8126
11:21:19.698,-0.9688,-14.8126
11:21:19.707,-1.7188,-15.5001
11:21:19.718,-1.625,-15.8126
11:21:19.728,-2.5,-16.0001
11:21:19.737,-2.1563,-16.5626
11:21:19.747,-2.625,-17.0626
11:21:19.757,-3.125,-17.0001
11:21:19.767,-3.3125,-17.3126
11:21:19.778,-4.8125,-18.5001
11:21:19.786,-3.5938,-18.2501
11:21:19.797,-4.4375,-19.7501
11:21:19.809,-4.4375,-19.3126
11:21:19.817,-5.1563,-20.4376
11:21:19.828,-4.9688,-20.2501
11:21:19.837,-5.3125,-20.3126
11:21:19.847,-3.7813,-17.7501
11:21:19.857,-2,-13.4376
11:21:19.867,0.8125,-7.3125
11:21:19.877,4.375,-0.0625
11:21:19.888,6.875,5.9375
11:21:19.915,9.375,10.6875
11:21:19.918,10.4375,14.1876
11:21:19.920,11.6875,17.8751
11:21:19.959,12.3438,19.1251
11:21:19.961,12.5,19.5626
11:21:19.962,11.8125,19.8751
11:21:19.966,11.8125,19.3126
11:21:19.972,11.375,18.1876
11:21:19.978,11,17.1251
11:21:20.011,9.3438,15.6251
11:21:20.013,9.4375,13.4376
11:21:20.015,9.125,12.4375
11:21:20.019,9,10.5
11:21:20.045,7.6563,9.8125
11:21:20.047,8,9.9375
11:21:20.050,8.125,7.6875
11:21:20.079,7.2813,6.375
11:21:20.081,7.125,5.4375
11:21:20.084,6.3125,6.25
11:21:20.089,6.1563,3.75
11:21:20.102,6.2188,2.75
11:21:20.108,5.8438,3.0625
11:21:20.117,5.5313,2.75
11:21:20.128,6.2813,3
11:21:20.138,6.5313,3
11:21:20.148,6.2813,4.25
11:21:20.158,6.6875,4.3125
11:21:20.167,6.7188,5.125
11:21:20.177,7.375,5.5
11:21:20.187,7.3438,6.6875
11:21:20.197,7.375,7.5
11:21:20.207,7.4688,6.1875
11:21:20.218,6.4375,5.4375
11:21:20.227,5.9063,6.5625
11:21:20.237,6.1563,5.625
11:21:20.253,6.375,4.625
11:21:20.263,5.6563,3.375
11:21:20.273,4.4688,3.375
11:21:20.283,4.6563,2.0625
11:21:20.292,4.8125,0.75
11:21:20.302,3.5938,-0.75
11:21:20.312,3.2188,-1.5
11:21:20.333,2.1875,-1.4375
11:21:20.339,2.8438,-3.25
11:21:20.346,2.3438,-3.875
11:21:20.391,1.7188,-5.75
11:21:20.392,1.4688,-5.8125
11:21:20.399,0.8125,-6
11:21:20.399,0.5938,-7.4375
11:21:20.399,0.5313,-8.0625
11:21:20.403,0.2813,-7.8125
11:21:20.412,-0.375,-8.375
11:21:20.423,-0.375,-9.3125
11:21:20.432,-0.7188,-9.125
11:21:20.442,-0.0313,-9.4375
11:21:20.452,-0.25,-9.8125
11:21:20.463,-0.75,-9
11:21:20.475,-0.5938,-9.3125
11:21:20.483,-0.2813,-9.3125
11:21:20.493,-0.2188,-9.75
11:21:20.502,-0.25,-10.25
11:21:20.512,-0.875,-10.9375
11:21:20.523,-0.9063,-11.3125
11:21:20.533,-1.3125,-11.1875
11:21:20.544,-1.1875,-11.125
11:21:20.552,-1.25,-11.6875
11:21:20.562,-1.9063,-11.5
11:21:20.573,-1.1563,-11.875
11:21:20.582,-1.9688,-12.5625
11:21:20.593,-1.6875,-12.0625
11:21:20.603,-1.9375,-13.4376
11:21:20.612,-2.3438,-14.1251
11:21:20.622,-2.0625,-13.5626
11:21:20.632,-2.5938,-15.0626
11:21:20.663,-2.9375,-14.1251
11:21:20.667,-3.0938,-15.0001
11:21:20.668,-3.7188,-15.9376
11:21:20.675,-3.1875,-16.3126
11:21:20.702,-4.0313,-17.3126
11:21:20.704,-4.25,-17.8126
11:21:20.706,-4.4688,-19.8126
11:21:20.713,-4.7188,-18.6876
11:21:20.740,-4.5625,-19.8126
11:21:20.743,-3.6875,-17.8751
11:21:20.744,-1.9688,-15.1251
11:21:20.778,1.2188,-9.375
11:21:20.780,4.5,-1.125
11:21:20.783,7.5625,5.3125
11:21:20.788,10.0938,11.9375
11:21:20.793,13,16.0626
11:21:20.821,13.7813,20.3126
11:21:20.824,14.7813,22.5001
11:21:20.825,15.3438,22.6251
11:21:20.834,15.2813,23.5626
11:21:20.843,15.9688,23.6876
11:21:20.854,14.8126,22.5001
11:21:20.862,14.8751,22.3126
11:21:20.872,13.6563,20.6251
11:21:20.883,13.9376,19.4376
11:21:20.892,12.9688,18.5001
11:21:20.902,12.75,18.1251
11:21:20.914,12.7813,15.8751
11:21:20.923,11.625,16.2501
11:21:20.932,11.3125,15.6876
11:21:20.942,11.4375,14.1251
11:21:20.953,10.9063,13.1876
11:21:20.962,10.5313,13.6876
11:21:20.973,10.5625,13.0625
11:21:20.983,10.2813,10.875
11:21:20.992,10.2188,10.4375
11:21:21.002,9.125,10
11:21:21.013,9.2188,10
11:21:21.023,8.9063,9.75
11:21:21.032,8.9688,9.1875
11:21:21.042,8.7188,9.0625
11:21:21.052,9.2188,10.875
11:21:21.062,9.5313,10.75
11:21:21.072,9.7188,10.75
11:21:21.083,9.1875,11.8125
11:21:21.093,9.4375,11.8125
11:21:21.102,9.4688,10.875
11:21:21.114,8.8438,11
11:21:21.122,8.75,10.5625
11:21:21.133,7.625,10.6875
11:21:21.142,8.1563,9.0625
11:21:21.152,7.7813,8.375
11:21:21.162,6.8125,6.8125
11:21:21.173,6.4063,5.4375
11:21:21.184,5.6875,5.75
11:21:21.192,5,5.125
11:21:21.202,5.5938,3.5
11:21:21.213,4.9688,1.75
11:21:21.229,3.75,1.5
11:21:21.233,3.125,0.375
11:21:21.243,3.0938,-0.1875
11:21:21.253,3.2188,-1.9375
11:21:21.262,2.7813,-3
11:21:21.273,2.5938,-4.0625
11:21:21.282,1.9375,-3
11:21:21.293,2,-3.3125
11:21:21.303,2.5625,-4.5625
11:21:21.312,1.75,-5.0625
11:21:21.322,1.3438,-4.4375
11:21:21.333,0.875,-5.1875
11:21:21.342,1.9375,-5.6875
11:21:21.353,1.6563,-5.6875
11:21:21.362,1.0625,-6.1875
11:21:21.392,0.875,-5.8125
11:21:21.393,1.5625,-6.4375
11:21:21.395,1.1875,-6.6875
11:21:21.403,0.6563,-6.8125
11:21:21.437,0.2188,-6.625
11:21:21.439,0.6875,-7.75
11:21:21.441,-0.0625,-8.0625
11:21:21.443,0.375,-8
11:21:21.475,-0.0313,-8.375
11:21:21.477,-0.7188,-8.3125
11:21:21.480,-0.5,-9.75
11:21:21.486,-0.9375,-9.8125
11:21:21.494,-1.25,-10.5
11:21:21.526,-0.875,-10.5
11:21:21.528,-1.5,-12
11:21:21.530,-1.5938,-11.875
11:21:21.532,-1.9375,-12.375
11:21:21.558,-2.0625,-13.2501
11:21:21.559,-2.4375,-12.8125
11:21:21.563,-2.6875,-14.5626
11:21:21.574,-3.5313,-15.1876
11:21:21.582,-3.6875,-15.7501
11:21:21.593,-4.2188,-15.5001
11:21:21.603,-3.9375,-16.4376
11:21:21.612,-4.5,-18.1251
11:21:21.622,-4.9375,-17.6251
11:21:21.632,-5.2813,-18.7501
11:21:21.659,-5.6563,-19.4376
11:21:21.662,-5.6563,-19.4376
11:21:21.665,-5.875,-21.3126
11:21:21.711,-5.625,-20.8751
11:21:21.713,-4.5,-19.0001
11:21:21.726,-2.375,-15.3751
11:21:21.733,0.8125,-7.1875
11:21:21.733,5.6563,0.25
11:21:21.733,7.625,7.1875
11:21:21.740,9.8438,13.6876
11:21:21.748,12.4063,17.6251
11:21:21.757,13.8438,21.4376
11:21:21.767,15.2501,23.5001
11:21:21.777,15.3126,24.6251
11:21:21.788,15.2501,25.8126
11:21:21.797,15.2813,25.5001
11:21:21.808,14.5938,24.2501
11:21:21.817,13.8751,24.6251
11:21:21.827,13.5313,21.5626
11:21:21.838,12.5938,20.6251
11:21:21.847,11.9688,20.3126
11:21:21.857,12.3125,19.2501
11:21:21.868,11.75,18.1251
11:21:21.878,10.6875,17.5626
11:21:21.887,10.5313,15.8751
11:21:21.897,10.1875,16.3751
11:21:21.907,9.5,15.6876
11:21:21.917,9.2813,14.9376
11:21:21.928,9.625,12.875
11:21:21.937,8.5313,11.875
11:21:21.948,7.9688,13
11:21:21.957,8.3438,11.9375
11:21:21.968,8.5313,11.6875
11:21:21.982,8.2188,10.3125
11:21:21.987,7.875,11.0625
11:21:21.998,8.375,11.875
11:21:22.007,8.8125,11.625
11:21:22.018,8.1875,11.625
11:21:22.028,8.3125,12.0625
11:21:22.038,9.25,12.1875
11:21:22.048,8.5313,12.375
11:21:22.057,8.3438,11.875
11:21:22.067,7.5313,12.625
11:21:22.078,7.9688,11.1875
11:21:22.088,7.2188,10.625
11:21:22.099,6.875,10.125
11:21:22.107,6.6563,9.4375
11:21:22.119,6.1563,8.6875
11:21:22.127,6.0313,6.9375
11:21:22.138,5.2813,5.375
11:21:22.155,5.0938,4.8125
11:21:22.159,4.75,4.0625
11:21:22.192,4.0938,2.75
11:21:22.195,3.4375,2
11:21:22.197,3.1875,0.75
11:21:22.199,2.5313,0.0625
11:21:22.229,2.5313,-1.125
11:21:22.230,2.25,-1.875
11:21:22.233,2.3438,-1.5
11:21:22.238,1.7813,-2.0625
11:21:22.271,1.3438,-3.125
11:21:22.273,1.3438,-3.125
11:21:22.275,1.2188,-4.25
11:21:22.279,1.4063,-4.875
11:21:22.312,0.9375,-5.4375
11:21:22.312,0.5938,-5.1875
11:21:22.314,0.5313,-4.8125
11:21:22.319,-0.0313,-4.9375
11:21:22.329,0.8125,-6
11:21:22.338,0.7188,-6.3125
11:21:22.353,0.3125,-5.875
11:21:22.359,0.3438,-6.625
11:21:22.367,0.6563,-7
11:21:22.377,0.0625,-7.375
11:21:22.388,-0.875,-8
11:21:22.397,-0.4688,-7.5
11:21:22.407,-0.125,-9.0625
11:21:22.418,-1.0313,-7.8125
11:21:22.428,-0.8438,-9.5625
11:21:22.437,-0.9063,-10.1875
11:21:22.448,-1.3438,-9.6875
11:21:22.457,-0.9375,-10.3125
11:21:22.467,-1.6875,-10.625
11:21:22.477,-1.0625,-11.4375
11:21:22.487,-2.5625,-11.8125
11:21:22.498,-2.125,-12.4375
11:21:22.508,-2.625,-13.2501
11:21:22.517,-3.2813,-13.6876
11:21:22.527,-3.7188,-14.3126
11:21:22.537,-3.5313,-15.9376
11:21:22.547,-3.7813,-14.5001
11:21:22.558,-4.4063,-16.5626
11:21:22.568,-3.6875,-17.6251
11:21:22.578,-5.25,-17.5001
11:21:22.587,-5.6563,-18.7501
11:21:22.598,-5.5,-18.4376
11:21:22.608,-5.4063,-17.3751
11:21:22.617,-3.7188,-16.0001
11:21:22.627,-0.5625,-10.0625
11:21:22.637,2.8125,-3.0625
11:21:22.647,5.7188,4.4375
11:21:22.658,9.125,11.375
11:21:22.667,11.1563,15.5626
11:21:22.678,12.6875,21.0626
11:21:22.688,13.8751,23.0626
11:21:22.697,14.1876,25.3126
11:21:22.708,14.9688,25.8126
11:21:22.718,14.1876,26.6251
11:21:22.732,14.5938,25.3751
11:21:22.737,13.6563,25.0001
11:21:22.747,13.5001,23.5626
11:21:22.757,13.4063,23.0626
11:21:22.768,13.0625,20.5626
11:21:22.777,12.0938,20.5626
11:21:22.788,11.7188,18.4376
11:21:22.798,10.9375,17.6251
11:21:22.807,10.8438,16.3751
11:21:22.818,10.4375,15.0626
11:21:22.828,9.5938,14.2501
11:21:22.837,8.4063,13.9376
11:21:22.848,8.375,11.875
11:21:22.870,7.9688,10.4375
11:21:22.871,7.7188,10.125
11:21:22.899,7.6563,9.6875
11:21:22.900,6.9375,8.6875
11:21:22.902,7.25,9.3125
11:21:22.941,7.4375,10.8125
11:21:22.944,7.5938,10.125
11:21:22.945,7.5938,10.875
11:21:22.972,6.875,11.4375
11:21:22.973,7.9063,12.4375
11:21:22.974,8.0938,13.0625
11:21:23.001,8,12.875
11:21:23.035,7.7188,13.3751
11:21:23.035,7.3125,12.8125
11:21:23.049,7.1563,12.4375
11:21:23.052,6.9375,12.3125
11:21:23.066,7.25,11.375
11:21:23.066,5.6875,9.9375
11:21:23.066,5.5,8.8125
11:21:23.082,4.75,7.875
11:21:23.082,5,7.4375
11:21:23.098,4.4375,5.625
11:21:23.100,3.625,3.9375
11:21:23.115,2.5,2.5625
11:21:23.120,2.5313,1.75
11:21:23.128,2.3125,1.25
11:21:23.137,2.0938,0.375
11:21:23.148,2.0938,-0.25
11:21:23.157,1.5938,-1.8125
11:21:23.167,1.2813,-2.1875
11:21:23.177,1,-3.125
11:21:23.188,0.5938,-4.0625
11:21:23.198,0.3125,-4.125
11:21:23.208,-0.125,-5.3125
11:21:23.219,-0.5,-5.0625
11:21:23.228,0.0625,-5.75
11:21:23.237,-0.1875,-5.5
11:21:23.247,-0.7188,-6.8125
11:21:23.257,-0.8125,-7
11:21:23.267,-0.5625,-6.4375
11:21:23.278,-0.3125,-7.5
11:21:23.287,-0.9063,-7.875
11:21:23.297,-1.5313,-8.125
11:21:23.308,-1.25,-7.25
11:21:23.318,-1.1875,-8.375
11:21:23.327,-1.5,-8.375
11:21:23.339,-1.2813,-9.25
11:21:23.347,-1.9063,-8.8125
11:21:23.358,-1.3438,-9.375
11:21:23.367,-2.0313,-9.625
11:21:23.378,-2.1563,-10.8125
11:21:23.388,-2.7813,-11.375
11:21:23.398,-2.8438,-12.3125
11:21:23.408,-3.0625,-12.5
11:21:23.417,-3.2188,-13.1251
11:21:23.429,-3.375,-14.2501
11:21:23.437,-4.0938,-14.6251
11:21:23.448,-4.0625,-15.3126
11:21:23.458,-3.875,-16.0626
11:21:23.467,-4.0625,-17.1251
11:21:23.485,-4.1875,-16.4376
11:21:23.489,-4.125,-15.4376
11:21:23.497,-2.5,-12.25
11:21:23.507,0.4063,-7.5625
11:21:23.517,3.7188,-0.875
11:21:23.529,6.375,7.1875
11:21:23.538,9.5313,13
11:21:23.547,11.9063,19.3126
11:21:23.557,13.7501,22.8751
11:21:23.567,14.6251,24.3751
11:21:23.577,15.2501,28.2501
11:21:23.619,15.6876,27.6251
11:21:23.620,14.9688,27.6876
11:21:23.625,15.1563,27.6876
11:21:23.625,15.1251,26.5001
11:21:23.628,13.7501,26.1876
11:21:23.659,13.8126,24.6251
11:21:23.661,12.625,22.8751
11:21:23.662,12.75,22.6251
11:21:23.671,11.9688,20.8126
11:21:23.679,11.5938,21.3751
11:21:23.712,12.2188,19.6876
11:21:23.715,11.4063,18.3751
11:21:23.717,10.9063,18.8751
11:21:23.719,11.125,17.2501
11:21:23.751,9.5625,16.2501
11:21:23.753,8.9063,15.3126
11:21:23.755,8.9375,13.4376
11:21:23.761,8.375,12.875
11:21:23.768,8.5625,13.4376
11:21:23.778,9.3125,13.4376
11:21:23.789,8.75,12.6875
11:21:23.799,8.3125,14.1251
11:21:23.809,8.625,14.3751
11:21:23.819,8.75,13.8751
11:21:23.828,8.625,14.8126
11:21:23.837,9.5938,14.6876
11:21:23.848,9.2813,14.7501
11:21:23.861,8.6563,15.1876
11:21:23.869,8.1563,13.9376
11:21:23.877,7.6563,14.7501
11:21:23.887,8,13
11:21:23.898,6.9063,12.1875
11:21:23.907,6.7813,11.875
11:21:23.919,7.0938,10.5
11:21:23.927,5.875,8.75
11:21:23.938,5.375,8.5625
11:21:23.947,5.3125,6.5
11:21:23.957,4.6875,5.625
11:21:23.968,4.6563,4.3125
11:21:23.978,4.8125,4
11:21:23.987,3.8125,2.875
11:21:23.999,3.5938,2.3125
11:21:24.009,2.9688,1.1875
11:21:24.018,2.625,1.9375
11:21:24.027,2.875,0.375
11:21:24.039,2.25,-0.9375
11:21:24.047,2.0938,-0.3125
11:21:24.059,2.7813,-1.125
11:21:24.069,1.75,-1.9375
11:21:24.078,1.625,-1.625
11:21:24.089,1.5625,-2.625
11:21:24.098,1.0625,-3.4375
11:21:24.109,1,-2.0625
11:21:24.118,1.8125,-3.3125
11:21:24.128,1.4688,-3.625
11:21:24.138,1.0938,-3.875
11:21:24.149,1.0625,-5
11:21:24.157,0.7813,-4.875
11:21:24.169,0.6563,-4.6875
11:21:24.179,0.8125,-5.875
11:21:24.188,-0.125,-6.9375
11:21:24.219,-0.6563,-5.5625
11:21:24.221,-0.2813,-7.375
11:21:24.224,-0.4688,-7.25
11:21:24.229,-0.0938,-7.8125
11:21:24.242,-1,-8.875
11:21:24.248,-1.3125,-8.125
11:21:24.259,-1.0938,-9.5625
11:21:24.267,-1.7188,-10.5625
11:21:24.303,-1.1875,-10.1875
11:21:24.305,-2.2813,-11.3125
11:21:24.308,-2.5938,-11.0625
11:21:24.335,-2.2188,-12.375
11:21:24.337,-2.5,-13.3126
11:21:24.369,-2.4688,-13.1251
11:21:24.402,-2.4688,-14.4376
11:21:24.402,-3.75,-15.0626
11:21:24.402,-3.0938,-15.1251
11:21:24.427,-3.5,-16.2501
11:21:24.459,-4.25,-15.4376
11:21:24.462,-4.1875,-17.1876
11:21:24.462,-4.7813,-18.1251
11:21:24.462,-5.6563,-18.0001
11:21:24.476,-6.125,-18.2501
11:21:24.491,-5.75,-19.7501
11:21:24.494,-6.2188,-20.1251
11:21:24.495,-6.3125,-19.9376
11:21:24.495,-5.2188,-18.3126
11:21:24.497,-3.4063,-14.7501
11:21:24.500,-0.1875,-8.0625
11:21:24.509,3.75,-0.375
11:21:24.519,6.25,7.5
11:21:24.528,9.7188,14.0626
11:21:24.538,11.875,18.2501
11:21:24.548,13.7501,23.6876
11:21:24.559,15.1876,26.5001
11:21:24.568,15.0938,27.1876
11:21:24.578,14.9376,26.8751
11:21:24.588,15.0626,26.0626
11:21:24.598,13.7188,25.3751
11:21:24.609,13.3438,24.5626
11:21:24.618,12.8438,24.3126
11:21:24.629,13.1875,22.3126
11:21:24.639,12.2813,20.3751
11:21:24.648,11.4063,20.3751
11:21:24.659,11.5,20.0001
11:21:24.669,10.6875,18.8751
11:21:24.678,10.7813,17.9376
11:21:24.689,10.4063,16.9376
11:21:24.698,9.5,17.4376
11:21:24.709,9.6563,15.6876
11:21:24.718,8.9688,14.5626
11:21:24.729,8.4063,14.0626
11:21:24.739,8.6563,14.0626
11:21:24.750,7.6875,13.2501
11:21:24.759,7.4063,14.2501
11:21:24.769,7.9688,14.3126
11:21:24.778,8,13.6876
11:21:24.789,7.9375,13.4376
11:21:24.797,7.5,15.1876
11:21:24.809,8.2188,15.0001
11:21:24.818,7.4688,14.4376
11:21:24.829,8,15.0626
11:21:24.838,7.5938,14.3126
11:21:24.849,6.5938,13.7501
11:21:24.859,6.125,13.8751
11:21:24.869,5.875,13
11:21:24.879,5.5938,11.75
11:21:24.889,5.5313,11.125
11:21:24.899,5.5,9.9375
11:21:24.909,4.5625,8.625
11:21:24.917,4.0625,8.4375
11:21:24.927,3.75,6.125
11:21:24.938,3.4063,5.0625
11:21:24.949,2.9063,4.9375
11:21:24.959,3.2188,3.1875
11:21:24.969,2.3125,2.3125
11:21:24.979,2.1875,0.8125
11:21:24.989,1.5625,1
11:21:24.999,1.0938,-0.4375
11:21:25.009,1.375,-1.0625
11:21:25.018,0.5938,-1.375
11:21:25.029,0.875,-1.625
11:21:25.058,0.9375,-2
11:21:25.061,0.5,-2.25
11:21:25.063,-0.125,-3
11:21:25.069,-0.3438,-1.9375
11:21:25.096,0.125,-3.5
11:21:25.098,-0.5313,-4.75
11:21:25.100,-1.0313,-3.3125
11:21:25.137,-0.1875,-4
11:21:25.138,-0.4688,-4.3125
11:21:25.142,-0.9688,-4.1875
11:21:25.147,0.0938,-4.8125
11:21:25.149,-1.3125,-6
11:21:25.179,-1.6563,-5.4375
11:21:25.180,-1.4375,-5.8125
11:21:25.184,-1.4688,-6.125
11:21:25.190,-0.875,-7.375
11:21:25.220,-2,-7.5625
11:21:25.223,-1.9063,-8
11:21:25.224,-2.2188,-8.75
11:21:25.230,-2.0625,-9.1875
11:21:25.241,-2.2813,-9.25
11:21:25.250,-2.4688,-10.375
11:21:25.258,-3,-10.8125
11:21:25.269,-3.25,-11.8125
11:21:25.278,-3.3125,-11.4375
11:21:25.288,-3.0625,-12.6875
11:21:25.299,-3.625,-13.5001
11:21:25.308,-3.8438,-13.1876
11:21:25.319,-4.5313,-14.6876
11:21:25.329,-4.0938,-14.9376
11:21:25.338,-4.625,-16.0001
11:21:25.350,-4.75,-15.7501
11:21:25.358,-5.3125,-17.0626
11:21:25.369,-5.75,-17.2501
11:21:25.380,-5.8438,-17.9376
11:21:25.389,-5.875,-17.9376
11:21:25.399,-5.875,-18.1876
11:21:25.409,-5.4375,-15.9376
11:21:25.418,-3.0625,-12.9375
11:21:25.429,0.0625,-7.0625
11:21:25.439,3.6875,1.25
11:21:25.449,6.3438,7.75
11:21:25.458,9.2813,13.125
11:21:25.469,10.4063,18.1251
11:21:25.499,12.2813,21.3126
11:21:25.501,12.875,22.9376
11:21:25.504,13.5001,24.9376
11:21:25.510,13.1563,25.7501
11:21:25.518,13.6563,25.6251
11:21:25.529,13.125,24.1876
11:21:25.539,13.1876,23.4376
11:21:25.549,12.2188,21.8751
11:21:25.560,12.3125,20.6876
11:21:25.569,11.4688,19.5001
11:21:25.578,11.375,17.8751
11:21:25.589,10.625,16.9376
11:21:25.599,10.625,16.4376
11:21:25.609,10.125,15.3751
11:21:25.619,9.25,13.5001
11:21:25.629,9.5938,14.0001
11:21:25.641,9.2188,12
11:21:25.649,8.1875,10.5
11:21:25.658,7,10.4375
11:21:25.669,7.1875,9.6875
11:21:25.679,7.4063,9.0625
11:21:25.689,7.2813,8.8125
11:21:25.710,7.75,9.8125
11:21:25.714,7.4063,10.0625
11:21:25.721,7.6875,9.5625
11:21:25.730,8.0938,11.25
11:21:25.745,8.125,10.6875
11:21:25.760,7.9688,10.4375
11:21:25.763,7.875,10.9375
11:21:25.777,8.0625,11.9375
11:21:25.792,8.125,11.3125
11:21:25.795,7.9375,10.8125
11:21:25.855,6.8125,10
11:21:25.857,6.5313,10.75
11:21:25.859,6.625,8.6875
11:21:25.859,6.125,7.9375
11:21:25.861,5.2188,8.125
11:21:25.864,5.0938,5.4375
11:21:25.868,4.625,4.125
11:21:25.868,3.9375,2.6875
11:21:25.900,3.9688,3.375
11:21:25.903,3.3438,1.75
11:21:25.905,3.25,0.3125
11:21:25.909,1.9688,-0.5
11:21:25.939,1.9375,-0.6875
11:21:25.941,1.5938,-0.875
11:21:25.945,1.5,-1.8125
11:21:25.950,1.2813,-1.9375
11:21:25.976,0.75,-3.125
11:21:25.979,0.75,-3.1875
11:21:25.981,0.6563,-3.5625
11:21:25.989,0.9375,-3.5625
11:21:25.999,0.3125,-4.5
11:21:26.009,-0.1875,-4.6875
11:21:26.018,0.1563,-4.25
11:21:26.028,0.125,-4.4375
11:21:26.039,0.0313,-6
11:21:26.050,-0.0938,-5.3125
11:21:26.058,0.2813,-5.8125
11:21:26.069,0.2188,-5.875
11:21:26.079,-0.75,-6.75
11:21:26.089,-0.4688,-6.25
11:21:26.098,-0.25,-6.625
11:21:26.109,-1.2188,-6.875
11:21:26.119,-0.9063,-7.25
11:21:26.128,-1.2188,-8.25
11:21:26.139,-1.0938,-7.875
11:21:26.149,-1.0313,-8.75
11:21:26.158,-1.75,-9.75
11:21:26.169,-1.9063,-9.75
11:21:26.180,-1.5,-10.3125
11:21:26.189,-2.3438,-10.75
11:21:26.198,-3.1563,-10.6875
11:21:26.208,-2.5,-12.375
11:21:26.219,-3.3438,-12.375
11:21:26.229,-3.5625,-13.0625
11:21:26.239,-3.875,-14.5626
11:21:26.249,-3.875,-15.0001
11:21:26.258,-4.2188,-16.1251
11:21:26.269,-4.75,-15.3126
11:21:26.279,-4.5625,-16.4376
11:21:26.288,-4.2813,-14.6876
11:21:26.299,-2.1563,-12.0625
11:21:26.309,1.25,-5.375
11:21:26.318,3.7188,1.0625
11:21:26.329,7.0313,8
11:21:26.339,9.5938,13.6876
11:21:26.348,11.2188,18.5626
11:21:26.359,12.8438,22.2501
11:21:26.368,13.8751,24.6251
11:21:26.378,14.1563,26.8751
11:21:26.389,14.6251,26.5626
11:21:26.398,13.9688,27.0001
11:21:26.409,14.0626,26.5001
11:21:26.418,13.5626,24.8126
11:21:26.429,12.9063,25.1876
11:21:26.439,12.9063,22.6251
11:21:26.448,12.5625,21.8751
11:21:26.459,12.5313,21.2501
11:21:26.468,11.4063,20.3126
11:21:26.479,11.1875,20.4376
11:21:26.491,11.4688,19.5001
11:21:26.499,11.0625,18.4376
11:21:26.509,10.5938,18.3751
11:21:26.529,10.5,17.2501
11:21:26.531,10.3125,16.1876
11:21:26.540,9.6875,16.4376
11:21:26.572,9.5625,15.0001
11:21:26.573,9.6563,14.5626
11:21:26.575,8.375,14.6251
11:21:26.580,8.5313,14.8751
11:21:26.607,9.125,14.8751
11:21:26.610,8.7188,14.1876
11:21:26.613,9.1875,15.6251
11:21:26.618,8.8125,15.9376
11:21:26.635,9.75,16.3751
11:21:26.638,9.5938,16.4376
11:21:26.665,9.2813,16.3751
11:21:26.672,8.8125,16.6251
11:21:26.672,9.2188,16.1251
11:21:26.702,8.5313,15.5626
11:21:26.706,8.3438,14.6251
11:21:26.707,7.5938,14.5626
11:21:26.713,7.5938,12.625
11:21:26.718,7.3125,11.75
11:21:26.729,6.0625,10.6875
11:21:26.738,6.125,10.6875
11:21:26.749,5.6563,9.3125
11:21:26.778,5.1563,7.3125
11:21:26.781,4.9375,6.375
11:21:26.784,4.1875,6.9375
11:21:26.790,4.4688,5.8125
11:21:26.799,4.0625,4.25
11:21:26.809,3.6875,4.125
11:21:26.818,4.3438,3.0625
11:21:26.829,3.8438,2.1875
11:21:26.839,2.9688,3.5625
11:21:26.848,3.2188,1.375
11:21:26.859,2.8438,1.375
11:21:26.869,2.7188,0.6875
11:21:26.879,2.5625,-0.0625
11:21:26.888,1.9688,0.3125
11:21:26.899,2.6875,-0.25
11:21:26.909,1.75,-1.25
11:21:26.919,2.0313,-1.125
11:21:26.929,1.9375,-0.5
11:21:26.939,2.1875,-1.3125
11:21:26.948,1.4688,-2.8125
11:21:26.958,1.375,-1.5
11:21:26.970,1.8125,-1.6875
11:21:26.979,1.3125,-2.8125
11:21:26.988,0.8125,-3.125
11:21:26.998,1.25,-3.25
11:21:27.009,1.0313,-3.75
11:21:27.027,0.3125,-5.1875
11:21:27.034,0.0313,-4.6875
11:21:27.042,0.9375,-5.6875
11:21:27.048,-0.2813,-6.5625
11:21:27.066,-0.0938,-6.5
11:21:27.069,-0.2813,-7.75
11:21:27.084,-0.2813,-8.3125
11:21:27.089,-0.3125,-8.8125
11:21:27.106,-0.1875,-9.125
11:21:27.121,-1.0625,-10
11:21:27.122,-1.0938,-9.4375
11:21:27.137,-1,-10.3125
11:21:27.140,-1.2813,-11
11:21:27.155,-2.1875,-11.8125
11:21:27.158,-2.0938,-12.5
11:21:27.169,-2.0313,-12.4375
11:21:27.179,-2.6875,-13.125
11:21:27.189,-2.5625,-13.0625
11:21:27.198,-2.875,-13.0625
11:21:27.208,-2.9688,-13.8751
11:21:27.229,-3.0313,-15.1251
11:21:27.231,-3.4375,-15.6876
11:21:27.258,-2.5313,-15.4376
11:21:27.259,-3.7188,-15.5001
11:21:27.262,-3.625,-14.5001
11:21:27.269,-2.6875,-13.0625
11:21:27.301,-0.1875,-9.5
11:21:27.304,2.7188,-2.25
11:21:27.306,6,5
11:21:27.308,9.2188,11.125
11:21:27.344,11.5313,16.7501
11:21:27.346,13.4376,22.0001
11:21:27.348,15.3751,25.0001
11:21:27.375,15.4688,27.8126
11:21:27.375,16.5938,28.5001
11:21:27.376,16.1251,29.5626
11:21:27.384,16.0626,29.8751
11:21:27.394,16.6251,28.9376
11:21:27.398,15.6563,29.1876
11:21:27.408,15.5938,27.1251
11:21:27.419,15.0313,26.1876
11:21:27.429,14.5626,26.6251
11:21:27.439,14.4688,25.0001
11:21:27.448,13.8438,24.6876
11:21:27.458,14.3751,23.8751
11:21:27.469,13.6251,23.3751
11:21:27.480,13.0625,23.5626
11:21:27.488,13.125,23.9376
11:21:27.498,12.5938,22.7501
11:21:27.509,12.6875,21.1876
11:21:27.519,12.3125,20.0626
11:21:27.529,11.5938,20.0626
11:21:27.539,11.25,19.5626
11:21:27.549,11.375,19.6876
11:21:27.558,11.1875,18.7501
11:21:27.569,10.875,18.8751
11:21:27.579,10.5313,20.5626
11:21:27.590,11.1875,20.4376
11:21:27.599,10.9688,19.6251
11:21:27.608,11.0313,19.3751
11:21:27.619,10.8125,20.3751
11:21:27.628,11.0938,21.0001
11:21:27.638,10.8125,20.0626
11:21:27.648,10.2813,19.6876
11:21:27.659,9.5,19.9376
11:21:27.669,9.5313,18.6876
11:21:27.679,9.5938,18.0001
11:21:27.689,8.8438,16.2501
11:21:27.699,8.2188,16.6251
11:21:27.710,8.2813,14.5626
11:21:27.720,7.1563,12.75
11:21:27.729,7.1563,12.375
11:21:27.738,6.6563,11.8125
11:21:27.748,6.8125,9.875
11:21:27.759,5.9063,8.5625
11:21:27.769,4.6563,8.125
11:21:27.787,4.9063,7.625
11:21:27.791,5.0313,6.8125
11:21:27.798,4.125,5.75
11:21:27.809,4.125,5.6875
11:21:27.819,3.9063,5.375
11:21:27.829,3.9688,4.4375
11:21:27.839,3.4063,3.25
11:21:27.848,3.2188,2.625
11:21:27.859,2.7188,2.625
11:21:27.869,2.0938,1.5
11:21:27.878,1.7813,2.75
11:21:27.888,2.5625,2.375
11:21:27.898,2.5,1.3125
11:21:27.909,1.875,1.1875
11:21:27.919,1.3125,1.8125
11:21:27.928,1.4063,1.4375
11:21:27.939,1.9375,0.6875
11:21:27.949,1.4063,0.0625
11:21:27.958,0.9375,-0.1875
11:21:27.968,0.4375,0.0625
11:21:27.978,0.9063,-0.875
11:21:27.989,0.6875,-1.4375
11:21:28.013,-0.2188,-2.125
11:21:28.016,0.125,-2.375
11:21:28.026,-0.5,-2.125
11:21:28.031,-0.3438,-4.0625
11:21:28.061,-1.125,-4.25
11:21:28.064,-1.0625,-3.9375
11:21:28.065,-0.9375,-5.25
11:21:28.071,-2.0313,-6.75
11:21:28.098,-2,-6.625
11:21:28.106,-2.2813,-6.8125
11:21:28.112,-2.0625,-8.5
11:21:28.132,-2.4688,-9.5
11:21:28.136,-3,-9
11:21:28.137,-3.0313,-10.6875
11:21:28.141,-2.9688,-10
11:21:28.167,-2.25,-11.1875
11:21:28.170,-3.2188,-11.8125
11:21:28.173,-3.5938,-11.625
11:21:28.182,-2.9375,-12.9375
11:21:28.189,-2.5938,-12.6875
11:21:28.198,-3.6563,-13.5626
11:21:28.208,-3.3438,-14.3751
11:21:28.218,-4.0938,-14.7501
11:21:28.228,-4.0313,-15.0001
11:21:28.239,-3.9063,-16.0001
11:21:28.248,-4.9375,-16.1251
11:21:28.258,-4.4688,-16.7501
11:21:28.269,-4.6563,-16.6251
11:21:28.278,-3.9063,-13.9376
11:21:28.289,-2.25,-10.875
11:21:28.304,1.0625,-4.8125
11:21:28.315,4.1563,2
11:21:28.324,6.8438,9.9375
11:21:28.334,9.9063,15.3126
11:21:28.350,11.4688,21.1251
11:21:28.366,13.5313,25.0626
11:21:28.369,14.2188,27.1251
11:21:28.383,14.5313,28.5001
11:21:28.386,15.1563,30.8751
11:21:28.401,15.0938,30.0001
11:21:28.403,14.6251,30.3751
11:21:28.422,14.5626,29.5001
11:21:28.425,13.4376,27.7501
11:21:28.440,13.4063,27.3126
11:21:28.455,12.75,26.6876
11:21:28.458,12.125,24.7501
11:21:28.466,11.1563,23.5626
11:21:28.475,11.6875,24.0001
11:21:28.484,11.5313,24.1251
11:21:28.493,10.8125,22.2501
11:21:28.503,9.9375,22.4376
11:21:28.513,10,21.5626
11:21:28.523,9.4375,20.5001
11:21:28.534,9.375,18.8751
11:21:28.543,8.9688,18.3751
11:21:28.558,7.9375,18.1876
11:21:28.563,7.875,19.4376
11:21:28.573,7.9375,17.6876
11:21:28.584,8,18.0001
11:21:28.594,8.25,18.1251
11:21:28.604,7.8125,18.9376
11:21:28.613,8.3125,19.3126
11:21:28.624,8.625,19.5626
11:21:28.633,8.7188,19.6876
11:21:28.643,8.2188,19.4376
11:21:28.654,8.3125,20.0001
11:21:28.664,8.0313,19.2501
11:21:28.695,7,18.8751
11:21:28.696,7.125,18.1251
11:21:28.699,6.75,16.9376
11:21:28.705,5.0938,15.6251
11:21:28.740,5.25,15.5626
11:21:28.742,4.75,13.6876
11:21:28.745,3.9688,12.6875
11:21:28.747,3.3125,12.125
11:21:28.754,3.4063,11.25
11:21:28.788,2.9688,9.5
11:21:28.792,2.3438,8.875
11:21:28.794,2.2813,7.5625
11:21:28.797,2.25,6.25
11:21:28.804,1.2813,6.25
11:21:28.839,0.5938,6.1875
11:21:28.841,0.1875,5.125
11:21:28.843,-0.5625,4.5
11:21:28.860,-1.0625,5.375
11:21:28.860,-1.25,4.0625
11:21:28.865,-2.4688,2.8125
11:21:28.873,-3.7188,4.4375
11:21:28.883,-5,3.1875
11:21:28.894,-7.2813,3.25
11:21:28.904,-8.4063,2.8125
11:21:28.914,-9.8438,3
11:21:28.924,-11.0625,2.125
11:21:28.933,-12.3125,2.375
11:21:28.944,-13.6563,3.125
11:21:28.954,-13.9063,2.0625
11:21:28.965,-15.5938,1.125
11:21:28.975,-17.3438,1.75
11:21:28.984,-18.2813,0.3125
11:21:28.994,-20.4063,-0.5
11:21:29.004,-21.9063,-0.75
11:21:29.015,-22.6876,0.8125
11:21:29.024,-24.1563,-0.1875
11:21:29.035,-25.8438,-0.375
11:21:29.043,-26.8126,-0.5
11:21:29.054,-31.0001,-1.125
11:21:29.066,-34.7501,-0.8125
11:21:29.075,-38.1564,-0.5625
11:21:29.084,-41.5627,0.3125
11:21:29.094,-45.1564,0.6875
11:21:29.103,-48.9377,2.875
11:21:29.113,-52.1564,2.1875
11:21:29.124,-55.719,2.8125
11:21:29.133,-57.4065,3.875
11:21:29.143,-58.0315,3.5625
11:21:29.153,-57.6565,5.1875
11:21:29.164,-57.4377,4.5625
11:21:29.174,-56.6252,4.75
11:21:29.183,-55.6877,5.6875
11:21:29.193,-55.6565,7.4375
11:21:29.203,-54.3752,9.8125
11:21:29.214,-51.7189,14.6876
11:21:29.225,-48.7502,20.0001
11:21:29.233,-45.8127,25.1876
11:21:29.245,-43.1877,29.4376
11:21:29.254,-41.2189,33.8126
11:21:29.265,-39.8752,36.3126
11:21:29.274,-38.8751,39.9377
11:21:29.285,-37.9064,41.2502
11:21:29.295,-37.2814,43.0627
11:21:29.305,-35.9376,42.8752
11:21:29.316,-36.9376,42.8752
11:21:29.341,-35.8126,42.8752
11:21:29.345,-36.5939,42.4377
11:21:29.350,-35.8126,41.1252
11:21:29.354,-36.4064,40.9377
11:21:29.365,-36.1251,40.0002
11:21:29.375,-36.5001,40.0002
11:21:29.384,-36.3126,39.2501
11:21:29.395,-36.5626,38.3126
11:21:29.404,-36.6876,38.0001
11:21:29.415,-36.9376,37.1251
11:21:29.448,-37.8126,36.7501
11:21:29.452,-37.6251,35.3126
11:21:29.454,-38.4689,35.5001
11:21:29.479,-38.5626,34.5001
11:21:29.481,-39.5939,33.6876
11:21:29.483,-39.1877,33.9376
11:21:29.491,-39.6564,33.4376
11:21:29.505,-39.5939,34.6251
11:21:29.506,-38.8751,34.7501
11:21:29.535,-39.2502,35.2501
11:21:29.540,-39.0001,35.3751
11:21:29.541,-38.8126,35.7501
11:21:29.545,-39.1564,35.6876
11:21:29.575,-39.1564,36.0626
11:21:29.578,-39.4689,35.2501
11:21:29.584,-39.6252,35.5626
11:21:29.588,-40.4377,34.1876
11:21:29.607,-40.9689,34.6251
11:21:29.610,-41.7814,33.1251
11:21:29.615,-41.9689,31.6876
11:21:29.625,-41.5314,31.1251
11:21:29.635,-42.6564,30.3751
11:21:29.644,-42.8752,29.3126
11:21:29.654,-43.3439,28.0001
11:21:29.669,-43.3127,27.3751
11:21:29.676,-43.9689,26.8751
11:21:29.690,-44.6252,26.5001
11:21:29.706,-44.0002,25.1876
11:21:29.708,-44.9064,24.0001
11:21:29.717,-45.0939,23.6876
11:21:29.725,-45.3439,22.0001
11:21:29.739,-45.7189,22.3126
11:21:29.757,-45.4064,21.4376
11:21:29.759,-45.5627,20.0626
11:21:29.773,-45.5939,21.1876
11:21:29.776,-44.7502,19.7501
11:21:29.791,-44.4377,19.1876
11:21:29.795,-43.4689,19.4376
11:21:29.805,-42.0314,18.4376
11:21:29.815,-42.2189,18.1251
11:21:29.825,-41.2189,17.9376
11:21:29.835,-40.8439,16.8126
11:21:29.845,-40.4689,16.1876
11:21:29.855,-39.4689,16.2501
11:21:29.863,-39.7814,15.5001
11:21:29.874,-39.2502,15.4376
11:21:29.885,-39.1564,14.8751
11:21:29.895,-37.9064,13.6876
11:21:29.903,-37.4064,12.75
11:21:29.915,-37.0626,13.0625
11:21:29.923,-35.3439,12.25
11:21:29.933,-35.7814,12
11:21:29.945,-35.7189,11.6875
11:21:29.957,-34.5626,10.75
11:21:29.965,-34.1564,10.5
11:21:29.975,-33.3439,9.9375
11:21:29.985,-32.9689,9.625
11:21:29.995,-32.7501,8.4375
11:21:30.005,-31.6251,8.8125
11:21:30.015,-31.2501,8.1875
11:21:30.024,-30.2501,7.6875
11:21:30.035,-29.8439,8.125
11:21:30.045,-29.1876,7.25
11:21:30.053,-28.5626,7.5625
11:21:30.071,-27.5001,6.9375
11:21:30.075,-27.2189,6.5
11:21:30.085,-26.2814,6.125
11:21:30.095,-25.8438,5.25
11:21:30.105,-25.7188,6.5625
11:21:30.115,-24.7501,5
11:21:30.126,-24.5938,5.3125
11:21:30.135,-23.6563,5.9375
11:21:30.143,-22.1563,5.8125
11:21:30.155,-19.6563,9.375
11:21:30.165,-17.3751,14.1251
11:21:30.173,-14.9063,19.8751
11:21:30.210,-12.0625,25.5001
11:21:30.211,-9.9375,32.1876
11:21:30.213,-7.4375,36.7501
11:21:30.215,-5.5625,40.8752
11:21:30.250,-4.6875,45.6252
11:21:30.254,-3.1875,47.4377
11:21:30.254,-2.875,48.8127
11:21:30.256,-1.9688,50.8127
11:21:30.287,-1.4063,49.4377
11:21:30.289,-1.4375,50.8752
11:21:30.291,-1.6875,50.0627
11:21:30.296,-2.3125,50.3127
11:21:30.324,-1.6875,49.4377
11:21:30.328,-2.375,49.5002
11:21:30.330,-2.5313,49.2502
11:21:30.358,-2.0938,48.3127
11:21:30.361,-2.5938,49.5002
11:21:30.363,-2.625,47.8127
11:21:30.368,-2.2813,46.8127
11:21:30.375,-3.0625,47.6252
11:21:30.385,-3.75,45.8127
11:21:30.395,-3.875,46.1877
11:21:30.405,-3.625,44.3752
11:21:30.415,-5.1875,44.1252
11:21:30.425,-4.5,42.8752
11:21:30.435,-5.0313,42.8127
11:21:30.446,-5.4063,42.6877
11:21:30.455,-4.8125,43.6877
11:21:30.465,-4.625,42.8752
11:21:30.475,-5.0313,43.3752
11:21:30.485,-5.0313,43.3127
11:21:30.495,-5.0313,44.6877
11:21:30.505,-5.0625,44.2502
11:21:30.515,-4.5,43.6252
11:21:30.525,-4.8125,43.5002
11:21:30.535,-5.375,43.6252
11:21:30.545,-6.2813,42.5002
11:21:30.555,-6.375,42.1877
11:21:30.566,-6.6875,41.0002
11:21:30.575,-7.5938,39.9377
11:21:30.585,-8.0625,38.6251
11:21:30.595,-7.6875,37.2501
11:21:30.622,-8.9063,37.9376
11:21:30.624,-8.4375,36.3126
11:21:30.626,-8.8438,34.3126
11:21:30.635,-8.2813,34.5001
11:21:30.645,-8.875,32.6876
11:21:30.655,-8.5938,32.5001
11:21:30.665,-8.9063,31.2501
11:21:30.675,-9.5313,31.6251
11:21:30.685,-9.1875,29.9376
11:21:30.697,-9.7813,29.6876
11:21:30.705,-9.5625,29.1251
11:21:30.715,-9.0625,27.9376
11:21:30.725,-9.1875,28.0001
11:21:30.735,-9.0313,26.8751
11:21:30.745,-8.625,26.4376
11:21:30.755,-8.3438,26.2501
11:21:30.765,-8.9688,24.8126
11:21:30.774,-8.5313,25.5001
11:21:30.785,-8.75,24.3751
11:21:30.795,-8.6563,24.1876
11:21:30.805,-8,23.3126
11:21:30.819,-8.1875,23.5001
11:21:30.825,-7.8125,22.8126
11:21:30.836,-7.5313,22.3751
11:21:30.845,-8.2813,22.1251
11:21:30.855,-7.0625,20.7501
11:21:30.865,-7.5,20.1876
11:21:30.875,-6.9375,20.9376
11:21:30.885,-7.0313,19.6876
11:21:30.895,-6.5938,20.6251
11:21:30.905,-6.3438,19.4376
11:21:30.915,-6.6875,18.4376
11:21:30.926,-7.0313,19.1876
11:21:30.938,-5.9063,17.5626
11:21:30.945,-6.25,17.1876
11:21:30.983,-6.3125,16.9376
11:21:30.984,-6.625,16.4376
11:21:30.999,-6.2813,16.8126
11:21:31.005,-5.5313,16.3126
11:21:31.034,-5.9688,15.6876
11:21:31.036,-5.7188,16.2501
11:21:31.038,-5.1875,15.4376
11:21:31.040,-5.6875,16.1876
11:21:31.045,-5.5313,13.8126
11:21:31.045,-4.8438,13.3126
11:21:31.082,-5.25,13.3751
11:21:31.084,-4.625,12.625
11:21:31.086,-4.625,11.625
11:21:31.088,-5.625,11.75
11:21:31.115,-5.2188,10.3125
11:21:31.118,-5.5625,10.4375
11:21:31.120,-4.4063,11.25
11:21:31.126,-4.5625,11.0625
11:21:31.135,-3.75,13.1251
11:21:31.145,-1.9063,17.1876
11:21:31.155,0.5625,22.1251
11:21:31.165,3.25,28.4376
11:21:31.175,5.25,33.6251
11:21:31.186,6.9688,39.6252
11:21:31.197,8.8438,43.0002
11:21:31.205,9.8125,45.8752
11:21:31.215,10.6563,49.3752
11:21:31.225,12.4688,50.2502
11:21:31.235,12.375,51.3127
11:21:31.245,11.9063,52.1252
11:21:31.255,10.9063,51.3752
11:21:31.265,11.0625,51.9377
11:21:31.275,10.6875,51.4377
11:21:31.285,9.8438,51.6252
11:21:31.295,9.9063,50.5002
11:21:31.305,9.0313,49.9377
11:21:31.315,9.3125,49.8752
11:21:31.325,8.5,49.1877
11:21:31.335,7.5313,48.4377
11:21:31.345,7.3125,48.6252
11:21:31.355,7.1875,47.8752
11:21:31.365,6.4063,46.8127
11:21:31.375,6.0938,46.6252
11:21:31.385,5.0313,45.5627
11:21:31.395,5.0313,45.1877
11:21:31.405,4.5938,44.0627
11:21:31.415,4.4688,43.8752
11:21:31.425,4.125,45.1252
11:21:31.435,3.8125,44.6252
11:21:31.446,3.4688,44.4377
11:21:31.455,3.4688,44.4377
11:21:31.465,3.4375,46.0002
11:21:31.475,4.0625,45.9377
11:21:31.485,4.3125,45.7502
11:21:31.495,3.7188,46.1252
11:21:31.505,2.75,47.0002
11:21:31.515,2.9688,45.8127
11:21:31.525,2.125,44.5002
11:21:31.535,1.75,43.9377
11:21:31.545,0.6875,44.0627
11:21:31.555,1.0625,43.8127
11:21:31.565,0.375,42.4377
11:21:31.579,-0.3125,40.8752
11:21:31.585,-0.9375,39.8752
11:21:31.595,-1.2188,39.8752
11:21:31.605,-1.5938,39.1251
11:21:31.615,-1.625,37.6876
11:21:31.625,-1.2813,36.6876
11:21:31.636,-1.6563,35.8126
11:21:31.645,-1.8438,35.2501
11:21:31.655,-1.8438,35.4376
11:21:31.665,-1.9063,34.3126
11:21:31.697,-1.875,33.3751
11:21:31.700,-2.625,32.3751
11:21:31.702,-2.6563,32.3751
11:21:31.705,-1.5938,31.4376
11:21:31.738,-2.4375,30.8126
11:21:31.741,-1.9375,30.4376
11:21:31.744,-1.9688,30.2501
11:21:31.747,-1.875,29.5001
11:21:31.756,-1.75,29.4376
11:21:31.781,-1.8438,28.9376
11:21:31.784,-1.7188,27.8751
11:21:31.786,-2.0313,28.6876
11:21:31.817,-2.0625,27.2501
11:21:31.820,-1.9063,26.8126
11:21:31.823,-2.4375,25.5626
11:21:31.825,-2.7813,24.4376
11:21:31.852,-2.6563,24.1251
11:21:31.855,-2.6875,23.1251
11:21:31.859,-2.75,22.3751
11:21:31.865,-2.4688,22.3751
11:21:31.875,-3.0938,22.4376
11:21:31.900,-2.8125,21.6251
11:21:31.902,-2.2813,21.0626
11:21:31.909,-2.9063,21.0626
11:21:31.916,-3.4063,20.2501
11:21:31.925,-3.7813,19.0001
11:21:31.935,-3.0938,19.5001
11:21:31.945,-3.9063,18.1876
11:21:31.956,-4.0625,17.4376
11:21:31.965,-3.2813,16.8126
11:21:31.975,-3.75,15.7501
11:21:31.985,-4.1563,16.0626
11:21:31.995,-3.8125,14.7501
11:21:32.005,-4.4375,14.6876
11:21:32.017,-3.625,16.1251
11:21:32.026,-2.7188,17.4376
11:21:32.035,-1.3125,21.7501
11:21:32.045,1.625,27.0001
11:21:32.055,2.8438,31.1251
11:21:32.065,4.5625,35.9376
11:21:32.075,7.3438,39.9377
11:21:32.085,7.875,44.3127
11:21:32.095,8.9375,46.4377
11:21:32.105,9.5,48.2502
11:21:32.117,9.2813,49.4377
11:21:32.126,9,50.5627
11:21:32.135,8.375,51.1252
11:21:32.145,7.6563,50.0627
11:21:32.155,7,50.0002
11:21:32.165,6.8125,48.8127
11:21:32.175,6.2813,48.5002
11:21:32.185,4.8125,47.5002
11:21:32.195,4.1875,47.9377
11:21:32.205,3.375,47.0627
11:21:32.215,2.8438,47.3752
11:21:32.225,3.0625,47.1877
11:21:32.235,2.6563,45.1252
11:21:32.245,2.1563,44.3127
11:21:32.255,1.3438,42.8127
11:21:32.265,0.9375,42.5627
11:21:32.276,1,42.0627
11:21:32.293,0.6875,41.3127
11:21:32.300,-0.3438,40.4377
11:21:32.344,-0.9063,39.7502
11:21:32.374,-0.9375,40.5002
11:21:32.376,-0.3438,40.5627
11:21:32.377,-0.375,40.0002
11:21:32.379,-1.2813,39.5627
11:21:32.381,-1.5625,40.2502
11:21:32.412,-1.9375,40.8752
11:21:32.412,-1.75,39.9377
11:21:32.413,-2.2813,39.1876
11:21:32.417,-2.7813,39.2502
11:21:32.421,-3.4688,39.0001
11:21:32.422,-3.4688,38.3126
11:21:32.456,-3.6563,37.4376
11:21:32.459,-3.9375,36.8751
11:21:32.461,-4.9063,36.0626
11:21:32.463,-5.25,35.7501
11:21:32.470,-5.75,34.0001
11:21:32.497,-5.3125,34.1876
11:21:32.500,-5.2188,32.1251
11:21:32.502,-5.9375,31.4376
11:21:32.513,-6.2188,30.0001
11:21:32.520,-5.7813,30.3751
11:21:32.530,-5.9063,29.9376
11:21:32.540,-6.1875,28.2501
11:21:32.550,-6.8438,26.4376
11:21:32.560,-6.2188,26.7501
11:21:32.570,-5.9063,25.7501
11:21:32.580,-6.6563,25.0001
11:21:32.590,-7.0938,24.1876
11:21:32.600,-6.9375,23.0001
11:21:32.610,-7.9063,22.1876
11:21:32.620,-7.4063,22.5001
11:21:32.630,-6.6563,20.6251
11:21:32.640,-7.25,20.1876
11:21:32.650,-7.1875,20.3126
11:21:32.660,-6.75,19.6251
11:21:32.670,-7.4063,17.8126
11:21:32.680,-7.375,18.4376
11:21:32.690,-7.5938,17.0626
11:21:32.700,-7.8438,17.1876
11:21:32.710,-8.1875,16.3126
11:21:32.721,-8.2813,16.4376
11:21:32.730,-8.3125,15.6251
11:21:32.740,-9.125,16.0001
11:21:32.750,-8.25,15.0001
11:21:32.760,-9.0313,14.5626
11:21:32.770,-9.0625,14.9376
11:21:32.780,-9.0625,13.3751
11:21:32.790,-9.1563,12.25
11:21:32.800,-9.4688,12.5
11:21:32.810,-9.0313,11.6875
11:21:32.820,-10.375,10.625
11:21:32.830,-10.6563,11.25
11:21:32.840,-9.75,9.6875
11:21:32.850,-10.5938,9.5
11:21:32.860,-10.5938,8.625
11:21:32.875,-10.3438,7.9375
11:21:32.880,-10.25,7.5625
11:21:32.890,-9.9688,6.25
11:21:32.900,-10.3438,6.25
11:21:32.910,-10.125,5.1875
11:21:32.920,-10.125,3.8125
11:21:32.930,-10.6563,4.4375
11:21:32.940,-10.1875,2.1875
11:21:32.950,-11.5,2.125
11:21:32.960,-11.2813,1.125
11:21:32.970,-11.4063,0.0625
11:21:32.980,-11.0313,0.3125
11:21:32.990,-10.5938,1.3125
11:21:33.000,-9.3438,3.5
11:21:33.010,-8.0938,5.75
11:21:33.020,-5.75,9.8125
11:21:33.030,-3.25,14.5001
11:21:33.040,-1.4063,19.7501
11:21:33.067,-1.125,22.8126
11:21:33.071,-0.4375,26.4376
11:21:33.073,0.8125,27.9376
11:21:33.103,0.9063,29.7501
11:21:33.105,1.6563,30.6876
11:21:33.107,0.7188,30.5001
11:21:33.113,0.125,31.2501
11:21:33.144,0,30.9376
11:21:33.145,-0.9063,29.5626
11:21:33.147,-1.9688,30.3126
11:21:33.154,-2.125,28.6251
11:21:33.180,-2.75,28.6251
11:21:33.181,-3.375,28.9376
11:21:33.183,-3.875,27.3126
11:21:33.191,-4.0313,27.8751
11:21:33.214,-3.9688,27.3126
11:21:33.216,-5.0625,25.7501
11:21:33.226,-5.3125,27.0001
11:21:33.231,-5.7813,25.6876
11:21:33.240,-5.625,25.1876
11:21:33.250,-5.9063,25.2501
11:21:33.260,-6.1875,23.7501
11:21:33.270,-5.9688,22.7501
11:21:33.280,-6.4688,23.1251
11:21:33.291,-5.625,23.6876
11:21:33.300,-6.1563,23.0001
11:21:33.310,-6.125,22.3126
11:21:33.320,-5.4375,23.1876
11:21:33.330,-5.2188,23.0626
11:21:33.340,-4.5938,24.6251
11:21:33.350,-4.4063,23.3751
11:21:33.360,-4.5,23.7501
11:21:33.370,-4.0313,23.5001
11:21:33.380,-4.5,23.3751
11:21:33.390,-3.1875,22.3751
11:21:33.400,-4,22.5626
11:21:33.411,-4.1875,21.5001
11:21:33.420,-4.0625,20.1251
11:21:33.430,-5.0313,21.0001
11:21:33.440,-4.5625,19.1251
11:21:33.450,-4.7188,18.6876
11:21:33.460,-4.4688,17.3751
11:21:33.470,-4.9688,16.3126
11:21:33.480,-4.875,16.3126
11:21:33.490,-5.1875,14.2501
11:21:33.500,-5.5625,14.2501
11:21:33.511,-5.7188,13.5001
11:21:33.521,-5.375,13.8751
11:21:33.530,-6.0313,12.8125
11:21:33.540,-5.8125,13.125
11:21:33.550,-6.5313,11.5625
11:21:33.561,-7.0313,11.4375
11:21:33.570,-7.0938,10.625
11:21:33.580,-6.125,11.1875
11:21:33.597,-6.125,10.6875
11:21:33.611,-6.6875,9.625
11:21:33.614,-5.75,9.3125
11:21:33.625,-6.25,9.0625
11:21:33.631,-6.2188,8.4375
11:21:33.651,-6.3438,8.25
11:21:33.654,-5.7813,7.8125
11:21:33.668,-6.0313,7.875
11:21:33.672,-6.0313,7.125
11:21:33.680,-5.6875,6.125
11:21:33.690,-6,5.75
11:21:33.700,-6.0938,4.375
11:21:33.710,-5.9375,4.4375
11:21:33.720,-5.5,4.1875
11:21:33.730,-5.6563,3.5625
11:21:33.740,-5.9063,2.5
11:21:33.750,-6.125,1.5625
11:21:33.760,-6.0625,0.1875
11:21:33.770,-6.5313,-1.125
11:21:33.780,-6.9375,-0.9375
11:21:33.792,-6.7188,-2.75
11:21:33.800,-7.0313,-3.4375
11:21:33.833,-7.7813,-3.625
11:21:33.837,-7.8125,-4.375
11:21:33.838,-8.5625,-4.6875
11:21:33.864,-9.1563,-5.1875
11:21:33.865,-9.0625,-6.5
11:21:33.868,-8.8438,-5.875
11:21:33.872,-8.8438,-7.0625
11:21:33.901,-9.625,-7.625
11:21:33.902,-9,-8.3125
11:21:33.907,-9.8125,-8.4375
11:21:33.928,-9.5313,-9.1875
11:21:33.935,-10.1875,-9.5625
11:21:33.937,-10.5938,-8.75
11:21:33.942,-10.0625,-9.75
11:21:33.973,-10.0313,-9.3125
11:21:33.975,-10.2813,-8.5625
11:21:33.977,-8.4063,-6.0625
11:21:33.982,-6.9063,-3
11:21:34.000,-5.25,1.0625
11:21:34.003,-3.5,4.125
11:21:34.012,-2.3438,6.75
11:21:34.020,-0.7188,10.75
11:21:34.030,0.1563,12.0625
11:21:34.041,0.625,13.3126
11:21:34.050,1.125,14.5626
11:21:34.060,0.2813,14.4376
11:21:34.071,0.75,15.5001
11:21:34.081,0.375,13.5001
11:21:34.090,0.2188,14.5001
11:21:34.101,0.3125,13.3751
11:21:34.111,0.5625,12.6875
11:21:34.120,0.625,12
11:21:34.131,0.3438,12.6875
11:21:34.141,1,11.0625
11:21:34.151,1.0938,11.375
11:21:34.161,1.6563,10.625
11:21:34.170,0.875,10.625
11:21:34.180,0.5625,8.9375
11:21:34.192,-0.5,8.875
11:21:34.200,-0.5938,7.875
11:21:34.210,-0.1875,6.9375
11:21:34.221,-0.9688,6.5625
11:21:34.230,-0.9688,6.4375
11:21:34.241,-0.4063,6.75
11:21:34.250,-0.125,6.4375
11:21:34.260,-0.1875,6.625
11:21:34.271,0.25,7.375
11:21:34.281,-0.1875,7.6875
11:21:34.290,-1,8.4375
11:21:34.302,-0.3438,8.625
11:21:34.310,-0.5,7.5625
11:21:34.320,-0.9688,7.625
11:21:34.330,-0.3438,7.75
11:21:34.340,-0.8438,7
11:21:34.351,-0.6563,7.9375
11:21:34.360,-0.6875,6.125
11:21:34.375,-1.75,6.9375
11:21:34.381,-0.8125,5.6875
11:21:34.390,-1.25,4.3125
11:21:34.401,-0.9375,3.625
11:21:34.410,-1.5,2.25
11:21:34.420,-2.5313,2.25
11:21:34.431,-2.5,2.0625
11:21:34.459,-2.5,0.5
11:21:34.463,-3.1563,-0.1875
11:21:34.465,-2.75,-0.9375
11:21:34.471,-3.7813,-2.125
11:21:34.480,-3.375,-2.75
11:21:34.491,-3.2188,-3.5
11:21:34.503,-4,-3.9375
11:21:34.510,-3.8125,-4.3125
11:21:34.521,-3.8125,-5.25
11:21:34.546,-5.0938,-4.5625
11:21:34.547,-4.5,-5.25
11:21:34.550,-4.25,-5.5625
11:21:34.583,-4.2813,-5.375
11:21:34.584,-4.9375,-6.875
11:21:34.586,-4.8125,-6.5
11:21:34.591,-5,-6.8125
11:21:34.629,-5.0938,-7.8125
11:21:34.632,-6.125,-7.3125
11:21:34.636,-7,-8.4375
11:21:34.658,-7.1875,-8
11:21:34.659,-7.25,-9.1875
11:21:34.662,-8.1875,-9.125
11:21:34.667,-8,-9.375
11:21:34.671,-8.4688,-10.375
11:21:34.704,-8.6875,-9.8125
11:21:34.706,-8.1875,-10.5625
11:21:34.708,-8.5,-10.625
11:21:34.710,-8.5938,-11.0625
11:21:34.721,-9.75,-11.25
11:21:34.734,-10.2188,-11.1875
11:21:34.741,-10.375,-11.8125
11:21:34.751,-10.9688,-11.4375
11:21:34.762,-10.6875,-12.6875
11:21:34.770,-11.1875,-12.125
11:21:34.782,-10.875,-13.3126
11:21:34.791,2.4688,-11.8125
11:21:34.800,4.2188,-12.25
11:21:34.810,8.7813,-13.2501
11:21:34.822,12.6875,-13.1876
11:21:34.832,15.1876,-15.6876
11:21:34.841,17.8751,-15.8751
11:21:34.851,20.3751,-17.5626
11:21:34.861,22.9063,-17.8751
11:21:34.870,24.3126,-18.4376
11:21:34.893,25.5626,-18.3126
11:21:34.900,28.5939,-14.8751
11:21:34.901,31.6564,-12.9375
11:21:34.917,35.1876,-9.75
11:21:34.922,38.8751,-6
11:21:34.930,42.0002,-4.5
11:21:34.947,45.5627,-2.6875
11:21:34.964,47.9689,-2.8125
11:21:34.969,49.3127,-3.75
11:21:34.971,50.7814,-5.5
11:21:34.981,50.7502,-7.9375
11:21:34.990,50.1877,-8.4375
11:21:35.001,49.7502,-12.0625
11:21:35.012,49.3127,-14.8126
11:21:35.021,47.6252,-16.5626
11:21:35.031,47.3439,-18.6876
11:21:35.041,46.4689,-19.7501
11:21:35.051,45.6564,-19.9376
11:21:35.061,45.5314,-21.8126
11:21:35.071,44.5314,-22.6876
11:21:35.082,43.7502,-23.5001
11:21:35.093,42.9064,-24.5626
11:21:35.101,42.0627,-25.0626
11:21:35.111,41.6252,-25.1251
11:21:35.122,41.7189,-25.5626
11:21:35.132,40.6252,-27.7501
11:21:35.140,40.5002,-27.1876
11:21:35.152,39.8439,-28.7501
11:21:35.161,38.9689,-30.1876
11:21:35.171,38.8439,-29.9376
11:21:35.181,38.0626,-31.1251
11:21:35.191,37.7501,-31.1876
11:21:35.201,38.0626,-31.6876
11:21:35.210,37.6876,-32.5626
11:21:35.222,36.9064,-32.3751
11:21:35.232,36.6876,-32.7501
11:21:35.241,35.7189,-32.1251
11:21:35.273,35.7189,-32.2501
11:21:35.276,35.0001,-33.3126
11:21:35.278,34.8126,-32.9376
11:21:35.282,34.5314,-34.6251
11:21:35.309,33.5626,-33.8126
11:21:35.311,34.3126,-35.1876
11:21:35.314,33.2501,-36.3126
11:21:35.322,33.3439,-35.8751
11:21:35.359,32.8751,-37.6876
11:21:35.360,31.6564,-37.6876
11:21:35.363,31.8126,-38.8751
11:21:35.395,31.0001,-39.8752
11:21:35.396,30.6876,-40.3752
11:21:35.398,29.8126,-41.8752
11:21:35.408,29.1876,-41.0627
11:21:35.408,28.6876,-43.3752
11:21:35.411,27.4689,-42.4377
11:21:35.431,27.6251,-43.7502
11:21:35.432,26.8126,-45.6252
11:21:35.442,26.3438,-45.0627
11:21:35.452,25.8126,-46.2502
11:21:35.462,24.2188,-46.6252
11:21:35.471,24.0001,-46.5627
11:21:35.481,23.3438,-47.0627
11:21:35.491,22.6251,-47.2502
11:21:35.501,21.9688,-47.6877
11:21:35.511,21.7501,-48.8127
11:21:35.522,20.9688,-48.5002
11:21:35.531,20.7501,-49.1877
11:21:35.541,19.9063,-49.1877
11:21:35.553,19.1563,-49.2502
11:21:35.561,19.2188,-49.8752
11:21:35.571,18.7188,-50.7502
11:21:35.581,17.6876,-50.3127
11:21:35.592,17.4063,-50.5627
11:21:35.601,17.1251,-51.3752
11:21:35.611,15.9063,-52.3127
11:21:35.621,15.0938,-51.3127
11:21:35.633,14.5313,-52.2502
11:21:35.642,13.5313,-52.5002
11:21:35.651,13.2501,-52.3752
11:21:35.662,12.875,-52.8752
11:21:35.673,12.0625,-54.0627
11:21:35.682,11.875,-53.1877
11:21:35.691,11.2188,-53.5627
11:21:35.702,10.3125,-53.9377
11:21:35.712,10.1563,-54.6252
11:21:35.741,9.0313,-55.3127
11:21:35.743,8.4375,-55.0002
11:21:35.745,8.2813,-56.2502
11:21:35.752,7.5938,-54.9377
11:21:35.762,7.2188,-56.0627
11:21:35.772,7.4375,-56.8752
11:21:35.781,5.8438,-56.5627
11:21:35.792,5.875,-56.7502
11:21:35.802,5.5938,-57.0002
11:21:35.811,4.25,-58.1252
11:21:35.821,4.6563,-57.0627
11:21:35.831,3.9063,-58.8127
11:21:35.841,3.0938,-58.3127
11:21:35.852,3.1563,-58.3127
11:21:35.861,2.875,-58.6877
11:21:35.875,1.5938,-58.5627
11:21:35.881,1.4063,-57.6252
11:21:35.892,2.0625,-56.6252
11:21:35.901,3.3125,-53.0002
11:21:35.912,6.5,-46.6877
11:21:35.921,8.6875,-41.0002
11:21:35.931,10.75,-32.5626
11:21:35.941,13.0938,-28.0626
11:21:35.952,14.2188,-24.4376
11:21:35.962,15.0938,-21.5626
11:21:35.971,16.1251,-19.1876
11:21:35.984,15.5313,-18.5626
11:21:36.014,14.8438,-16.7501
11:21:36.016,14.9376,-17.3751
11:21:36.019,14.1563,-18.4376
11:21:36.021,13.5626,-19.1876
11:21:36.053,12.9375,-20.3126
11:21:36.055,12.5938,-20.1876
11:21:36.057,12.4688,-21.2501
11:21:36.062,12.0313,-22.2501
11:21:36.088,11.25,-22.8126
11:21:36.091,10.4375,-22.6876
11:21:36.093,9.8125,-23.5001
11:21:36.115,9.3125,-23.5001
11:21:36.117,8.9688,-24.2501
11:21:36.147,9.2813,-24.9376
11:21:36.151,8.25,-25.8126
11:21:36.151,7.625,-26.0626
11:21:36.154,7.5938,-27.1251
11:21:36.160,7.8125,-27.0001
11:21:36.171,7.4063,-28.1876
11:21:36.194,6.7188,-27.7501
11:21:36.200,7,-28.2501
11:21:36.215,6.2188,-27.0626
11:21:36.217,7.1875,-26.0001
11:21:36.227,7.0313,-26.4376
11:21:36.261,6.6875,-26.4376
11:21:36.263,6.6563,-25.9376
11:21:36.266,5.875,-25.4376
11:21:36.270,6.1875,-26.4376
11:21:36.276,5.7188,-25.5001
11:21:36.287,5.2813,-26.7501
11:21:36.296,5.3125,-27.9376
11:21:36.306,4.5625,-27.5001
11:21:36.321,4.0313,-27.8751
11:21:36.331,4.0938,-28.5626
11:21:36.341,3.0625,-28.1251
11:21:36.351,3.0938,-30.0626
11:21:36.361,2.5938,-31.5001
11:21:36.372,2.5938,-30.6876
11:21:36.381,2.0313,-31.1251
11:21:36.391,1.8438,-31.7501
11:21:36.402,1.6875,-33.0001
11:21:36.412,1,-32.1876
11:21:36.421,0.5625,-32.1251
11:21:36.431,0.9375,-32.6876
11:21:36.441,-0.3125,-32.4376
11:21:36.451,-0.25,-33.5626
11:21:36.461,0.3438,-34.2501
11:21:36.471,-0.2813,-34.1251
11:21:36.481,-0.5938,-33.9376
11:21:36.491,-0.5938,-34.2501
11:21:36.502,-0.5313,-33.6251
11:21:36.512,-0.875,-33.6876
11:21:36.521,-1.2813,-33.6251
11:21:36.531,-1.0625,-34.5626
11:21:36.541,-1.5313,-32.8126
11:21:36.551,-1.0625,-33.0626
11:21:36.561,-1.4063,-34.4376
11:21:36.571,-1.8438,-34.0626
11:21:36.581,-2.0625,-33.1876
11:21:36.591,-1.9063,-33.7501
11:21:36.601,-2.6563,-33.7501
11:21:36.611,-2.4688,-33.7501
11:21:36.623,-2.8125,-34.7501
11:21:36.634,-2.5,-34.3126
11:21:36.641,-3.0313,-34.8751
11:21:36.652,-3.0938,-34.3751
11:21:36.661,-3.4375,-34.4376
11:21:36.671,-3.7188,-35.1876
11:21:36.682,-4.3125,-35.4376
11:21:36.691,-4.5625,-35.1876
11:21:36.701,-4.25,-35.2501
11:21:36.718,-4.625,-35.3751
11:21:36.721,-5.0625,-35.4376
11:21:36.752,-5.125,-36.3751
11:21:36.754,-6.2188,-35.6876
11:21:36.756,-5.5313,-36.7501
11:21:36.763,-6.4688,-37.5001
11:21:36.796,-6.4688,-37.1876
11:21:36.797,-7.1875,-38.1876
11:21:36.801,-6.875,-37.1876
11:21:36.830,-6.5,-37.1251
11:21:36.831,-5,-34.1876
11:21:36.836,-3.375,-30.0001
11:21:36.842,-1.0938,-25.5626
11:21:36.843,0.7813,-19.4376
11:21:36.882,3.0313,-15.4376
11:21:36.884,4.9688,-11.8125
11:21:36.886,5.75,-8.1875
11:21:36.888,6.2813,-7.25
11:21:36.892,6.75,-5.4375
11:21:36.901,7.0313,-5.75
11:21:36.911,7.9063,-5.4375
11:21:36.921,6.5,-5.75
11:21:36.931,6.4375,-6.8125
11:21:36.941,6.3125,-7.5625
11:21:36.951,5.9063,-8.0625
11:21:36.961,5.6875,-9.1875
11:21:36.972,4.625,-9.4375
11:21:36.981,5.0938,-10.75
11:21:36.991,4.8125,-11.3125
11:21:37.021,3.6563,-11.875
11:21:37.022,4.2813,-12.625
11:21:37.031,3.4063,-13
11:21:37.031,3.0938,-12.875
11:21:37.042,2.9375,-14.1876
11:21:37.053,2.3125,-15.1251
11:21:37.061,2.5313,-15.8126
11:21:37.071,1.75,-16.0001
11:21:37.081,2.0625,-15.9376
11:21:37.091,1.375,-15.7501
11:21:37.101,2.0938,-15.6876
11:21:37.112,2,-15.8751
11:21:37.122,1.4688,-14.4376
11:21:37.131,2.0625,-15.3126
11:21:37.142,2.0938,-14.6876
11:21:37.152,2.1563,-13.8751
11:21:37.161,2.75,-14.0626
11:21:37.171,2.375,-14.3751
11:21:37.182,1.8125,-15.2501
11:21:37.191,1.4375,-14.6251
11:21:37.202,1.375,-14.8126
11:21:37.211,0.9375,-15.2501
11:21:37.221,0.5938,-15.6251
11:21:37.231,0.6875,-17.3126
11:21:37.241,-0.1875,-17.5001
11:21:37.252,-0.3125,-17.6251
11:21:37.261,-0.75,-19.1876
11:21:37.271,-0.9688,-19.3126
11:21:37.281,-1.2188,-20.1251
11:21:37.291,-1.5313,-21.5626
11:21:37.301,-1.7813,-20.1876
11:21:37.311,-1.6875,-22.0626
11:21:37.321,-2,-22.1251
11:21:37.331,-2.25,-22.1251
11:21:37.341,-1.9375,-22.8751
11:21:37.351,-2.8125,-23.0626
11:21:37.361,-2.625,-22.5626
11:21:37.375,-2.875,-22.7501
11:21:37.381,-2.5,-24.1251
11:21:37.391,-2.8438,-23.3126
11:21:37.401,-2.3438,-23.8126
11:21:37.411,-2.9063,-23.8751
11:21:37.421,-2.4688,-23.8751
11:21:37.432,-3,-23.5001
11:21:37.441,-2.5,-23.7501
11:21:37.474,-2.625,-24.1876
11:21:37.475,-2.7813,-23.8751
11:21:37.478,-2.5938,-24.5626
11:21:37.511,-3.0313,-23.6251
11:21:37.553,-2.75,-24.8751
11:21:37.555,-3.3125,-24.1251
11:21:37.555,-3.875,-25.3126
11:21:37.557,-4,-25.0626
11:21:37.633,-3.5313,-26.0001
11:21:37.646,-4.125,-25.4376
11:21:37.646,-3.8438,-25.9376
11:21:37.646,-4.1875,-25.7501
11:21:37.663,-4.4375,-26.4376
11:21:37.664,-4.3438,-26.0626
11:21:37.667,-4.3438,-27.3751
11:21:37.667,-4.6563,-26.5001
11:21:37.667,-4.6563,-27.1876
11:21:37.671,-5.0625,-26.5001
11:21:37.681,-5.0313,-28.3751
11:21:37.691,-5.125,-27.8126
11:21:37.701,-4.9375,-28.1876
11:21:37.711,-5.1563,-29.3126
11:21:37.721,-5.0625,-29.0001
11:21:37.731,-5.3125,-28.7501
11:21:37.742,-5.6875,-29.5001
11:21:37.751,-5.9688,-28.5001
11:21:37.761,-5.7813,-29.8126
11:21:37.771,-5.6563,-30.0626
11:21:37.781,-7,-33.3751
11:21:37.791,-7.2813,-33.4376
11:21:37.801,-7.3125,-32.0626
11:21:37.811,-6.625,-31.0626
11:21:37.821,-4.5,-28.2501
11:21:37.831,2.6563,-11.75
11:21:37.841,4.7188,-7.5
11:21:37.851,6.2813,-3.6875
11:21:37.861,7.875,-0.4375
11:21:37.871,8.8125,0.8125
11:21:37.882,8.9688,2.3125
11:21:37.891,9.125,2.375
11:21:37.901,8.8438,2.125
11:21:37.911,9.2813,2
11:21:37.921,8.1875,1
11:21:37.931,7.8438,-0.6875
11:21:37.941,6.9375,-2
11:21:37.951,7.7188,-2.6875
11:21:37.961,6.4688,-2.9375
11:21:37.972,6.9375,-3.4375
11:21:37.981,6.4688,-4.8125
11:21:37.992,5.6875,-4
11:21:38.001,6.0938,-5.6875
11:21:38.012,5.25,-5.0625
11:21:38.022,5.7188,-6.8125
11:21:38.031,5,-6.5
11:21:38.041,5.0938,-8.5625
11:21:38.051,4.5625,-8.875
11:21:38.061,4,-9.9375
11:21:38.071,3.5313,-8.125
11:21:38.081,4.3125,-8.8125
11:21:38.091,4.5938,-9.25
11:21:38.101,3.8125,-9.125
11:21:38.111,3.875,-8.6875
11:21:38.122,4.1875,-8.5
11:21:38.131,3.625,-7.375
11:21:38.141,4.6875,-7.6875
11:21:38.151,3.5625,-6.4375
11:21:38.161,4.25,-7.875
11:21:38.171,3.4063,-6.5
11:21:38.181,3.4688,-7.4375
11:21:38.191,2.875,-7.8125
11:21:38.202,2.4688,-8.5
11:21:38.230,2.3438,-9.75
11:21:38.232,2.125,-10.0625
11:21:38.235,2.0938,-10.9375
11:21:38.243,0.8125,-11.875
11:21:38.273,0.3438,-11.375
11:21:38.275,0.5313,-13.2501
11:21:38.277,-0.375,-12.8125
11:21:38.303,-0.3125,-14.7501
11:21:38.307,-1.2813,-14.7501
11:21:38.309,-0.75,-15.8751
11:21:38.313,-1.5,-15.1876
11:21:38.353,-1.2188,-16.7501
11:21:38.353,-1.7813,-16.9376
11:21:38.355,-1.25,-17.8751
11:21:38.359,-1.9375,-18.0626
11:21:38.365,-2.0938,-17.5626
11:21:38.391,-2,-17.8126
11:21:38.394,-2,-18.8126
11:21:38.397,-2.5313,-18.1876
11:21:38.405,-1.875,-18.5626
11:21:38.411,-2.0313,-18.6876
11:21:38.421,-1.4375,-17.5626
11:21:38.432,-1.9063,-19.5001
11:21:38.441,-3,-18.9376
11:21:38.452,-2.5,-19.3751
11:21:38.462,-2.625,-18.5626
11:21:38.471,-2.25,-19.0001
11:21:38.481,-2.5938,-19.6876
11:21:38.491,-3.3438,-19.0626
11:21:38.506,-2.5313,-20.0001
11:21:38.511,-2.875,-20.0001
11:21:38.521,-2.8438,-20.5001
11:21:38.531,-3.2813,-20.3751
11:21:38.541,-3.1875,-20.8751
11:21:38.551,-3.0938,-21.9376
11:21:38.561,-3.1563,-21.0626
11:21:38.573,-3,-22.1876
11:21:38.581,-2.9375,-21.4376
11:21:38.592,-3.5625,-22.9376
11:21:38.601,-3.75,-22.4376
11:21:38.611,-3.625,-23.0626
11:21:38.623,-3.5625,-23.3751
11:21:38.631,-4,-24.3751
11:21:38.641,-3.8125,-24.1251
11:21:38.651,-3.75,-24.3751
11:21:38.661,-4.1563,-24.2501
11:21:38.672,-4.5938,-24.3751
11:21:38.682,-4.8125,-24.6251
11:21:38.691,-4.8438,-25.8126
11:21:38.701,-4.8125,-25.6251
11:21:38.711,-5.5938,-26.3751
11:21:38.721,-5.3125,-26.6876
11:21:38.731,-5.2813,-27.8126
11:21:38.741,-5.8125,-26.9376
11:21:38.752,-5.8438,-27.6251
11:21:38.761,-6.0313,-26.6876
11:21:38.772,-5.1875,-26.0626
11:21:38.781,-3.4375,-22.8126
11:21:38.791,-1.5,-18.5001
11:21:38.801,1.875,-11.625
11:21:38.811,3.6875,-6.8125
11:21:38.822,6.4063,-0.875
11:21:38.838,8,1.875
11:21:38.846,9.0313,5.8125
11:21:38.860,10.0625,7.9375
11:21:38.867,9.8125,8.125
11:21:38.874,10.8125,8.5625
11:21:38.889,10.0625,7.875
11:21:38.891,10.125,6.875
11:21:38.901,9.3438,6.5
11:21:38.923,8.875,5.4375
11:21:38.926,8.3438,4.375
11:21:38.954,8.2188,3.375
11:21:38.957,6.6875,1.9375
11:21:38.993,7.5,0.5
11:21:39.006,6.0938,0.8125
11:21:39.008,6.4375,-0.6875
11:21:39.039,6.0313,-1.1875
11:21:39.041,5.5,-1.3125
11:21:39.041,5.1875,-2.5625
11:21:39.041,4.3438,-3.8125
11:21:39.045,3.9063,-4.875
11:21:39.050,3.8438,-5.875
11:21:39.050,3.5313,-5.375
11:21:39.057,3.6563,-6
11:21:39.087,3.1563,-6.125
11:21:39.089,2.9375,-4.4375
11:21:39.091,3.7813,-4.1875
11:21:39.098,3.9688,-4.375
11:21:39.107,3.625,-4.3125
11:21:39.117,3.6875,-3.4375
11:21:39.128,4,-2.625
11:21:39.137,3.9063,-2.875
11:21:39.147,4.0313,-2.8125
11:21:39.156,3.75,-3.5
11:21:39.166,3,-3.375
11:21:39.178,3.125,-4.5625
11:21:39.186,2.7813,-4.5
11:21:39.197,2,-5.375
11:21:39.207,1.3438,-6.5
11:21:39.217,1.0625,-7.9375
11:21:39.227,0.8125,-7.875
11:21:39.238,0.5,-9
11:21:39.247,0.0313,-8.625
11:21:39.264,-0.0313,-9.75
11:21:39.266,-0.5313,-11.125
11:21:39.277,-0.8125,-10.6875
11:21:39.286,-0.75,-11.3125
11:21:39.296,-0.875,-12.625
11:21:39.307,-1.3125,-11.75
11:21:39.317,-0.9063,-13
11:21:39.327,-1.2188,-13.6251
11:21:39.338,-1.875,-12.375
11:21:39.346,-1.1875,-13.6876
11:21:39.356,-1.7813,-13.5001
11:21:39.367,-1.8438,-14.3126
11:21:39.377,-1.7813,-14.6876
11:21:39.386,-1.6563,-13.8751
11:21:39.397,-2.3125,-14.6251
11:21:39.406,-2.25,-14.3126
11:21:39.418,-1.9688,-14.2501
11:21:39.428,-2.1563,-14.5001
11:21:39.437,-1.625,-14.9376
11:21:39.446,-2.125,-14.9376
11:21:39.456,-1.6875,-14.6876
11:21:39.466,-2.1875,-15.4376
11:21:39.478,-1.9063,-15.2501
11:21:39.487,-2.5,-15.6876
11:21:39.496,-2.5313,-15.8751
11:21:39.508,-2.8125,-16.6876
11:21:39.517,-2.5,-17.0001
11:21:39.528,-2.9063,-16.9376
11:21:39.536,-2.7188,-17.5626
11:21:39.547,-3.8125,-18.3751
11:21:39.579,-3.375,-18.5001
11:21:39.581,-4.5313,-18.8126
11:21:39.584,-3.4375,-19.6251
11:21:39.589,-4.2813,-19.8126
11:21:39.629,-4.3438,-20.3126
11:21:39.632,-5,-20.1876
11:21:39.632,-3.25,-18.8751
11:21:39.657,-2.2813,-15.8751
11:21:39.657,0.2188,-13.2501
11:21:39.659,1.4375,-8.6875
11:21:39.662,4.9375,-2.6875
11:21:39.668,6.125,1.75
11:21:39.708,8.3125,5.75
11:21:39.710,9.5313,8.625
11:21:39.711,10.3438,10.5625
11:21:39.715,10.5625,12
11:21:39.719,11.375,12.75
11:21:39.741,10.8125,12.125
11:21:39.743,10.5625,11.875
11:21:39.746,9.7813,11.1875
11:21:39.773,9.1563,9.875
11:21:39.776,9.0625,8.75
11:21:39.778,8.5313,7.875
11:21:39.793,8.6563,6.5625
11:21:39.797,7.625,6
11:21:39.808,7.4063,5.5
11:21:39.818,7.625,4.25
11:21:39.827,7.7813,4.625
11:21:39.836,7.0625,3
11:21:39.846,6.0313,2.9375
11:21:39.858,6.4375,1.75
11:21:39.867,6.5,0.5625
11:21:39.877,5.9375,-0.5625
11:21:39.887,5.8438,0.625
11:21:39.898,5.7813,-0.3125
11:21:39.907,5.2188,-1.125
11:21:39.917,5.5938,0.6875
11:21:39.926,6.2813,0
11:21:39.937,6.1875,0.0625
11:21:39.947,6.5313,0.9375
11:21:39.958,6.6875,0.8125
11:21:39.967,6.7813,1.1875
11:21:39.977,6.8125,1.1875
11:21:39.988,6.5,2.25
11:21:39.996,6.4063,1.1875
11:21:40.008,5.9063,0.4375
11:21:40.018,5.9063,0.1875
11:21:40.028,6.0625,-0.5625
11:21:40.038,5.0938,-1.25
11:21:40.047,4.4688,-1.4375
11:21:40.057,4.1563,-3.125
11:21:40.068,3.6563,-2.625
11:21:40.076,4.3438,-4.3125
11:21:40.087,4,-4.5
11:21:40.098,2.875,-6.125
11:21:40.107,2.6875,-5.75
11:21:40.118,2.2188,-5.375
11:21:40.127,2.3125,-7.625
11:21:40.137,1.5313,-8.9375
11:21:40.154,1.3125,-8.3125
11:21:40.169,1.9375,-8.8125
11:21:40.171,1.2813,-9.8125
11:21:40.187,0.7813,-9
11:21:40.188,1.0625,-9.25
11:21:40.198,0.9688,-9.875
11:21:40.208,0.5938,-10.1875
11:21:40.217,0.75,-10.1875
11:21:40.227,0.875,-10.6875
11:21:40.237,1.1875,-10.5625
11:21:40.248,0.5938,-11.5
11:21:40.258,-0.125,-9.8125
11:21:40.268,0.7188,-11.6875
11:21:40.280,0.375,-10.625
11:21:40.296,0.4063,-12.375
11:21:40.298,-0.1875,-10.8125
11:21:40.314,0.5,-11.75
11:21:40.320,0,-12.4375
11:21:40.335,-0.3125,-12.125
11:21:40.337,0.125,-12.25
11:21:40.352,-0.3438,-13.1876
11:21:40.357,-0.9063,-13.2501
11:21:40.367,-0.9063,-12.6875
11:21:40.382,-1.0938,-14.2501
11:21:40.394,-1.125,-13.4376
11:21:40.423,-1.5,-14.4376
11:21:40.425,-1.375,-14.2501
11:21:40.427,-1.125,-14.6876
11:21:40.455,-1.5313,-14.6251
11:21:40.457,-2.0313,-15.9376
11:21:40.459,-2.2813,-16.5626
11:21:40.464,-2.6563,-16.8751
11:21:40.494,-2.4688,-16.0626
11:21:40.495,-2.5313,-17.4376
11:21:40.499,-3.2813,-17.8126
11:21:40.528,-3.4375,-17.2501
11:21:40.533,-3.2188,-19.0001
11:21:40.534,-3.9063,-18.8751
11:21:40.537,-3.0313,-19.0001
11:21:40.547,-3,-17.1876
11:21:40.555,-1.5,-14.3126
11:21:40.583,0.625,-9.875
11:21:40.585,3.625,-3.4375
11:21:40.587,5.8125,2.0625
11:21:40.594,9.0313,7.125
11:21:40.604,9.9063,12.0625
11:21:40.612,11.4063,14.5001
11:21:40.623,11.9688,17.1876
11:21:40.633,12.8125,17.5001
11:21:40.642,12.7188,17.4376
11:21:40.653,13.1563,18.0001
11:21:40.662,12.0625,16.5001
11:21:40.672,12.1875,16.7501
11:21:40.682,12.2188,15.3751
11:21:40.692,11.1875,14.8751
11:21:40.703,10.9375,13.5001
11:21:40.713,10.75,12.9375
11:21:40.722,10.7188,12.8125
11:21:40.734,10.1875,12.5
11:21:40.742,9.75,11.3125
11:21:40.753,9.7188,10.9375
11:21:40.763,9.0938,9.5
11:21:40.773,9.3438,8.9375
11:21:40.783,8.7813,9.8125
11:21:40.793,8.75,8.875
11:21:40.802,8,7.375
11:21:40.812,7.875,7.5625
11:21:40.822,7.5313,8.125
11:21:40.833,7.8125,7.1875
11:21:40.862,7.5313,6.4375
11:21:40.862,7.7813,7.375
11:21:40.866,7.9375,7.75
11:21:40.871,7.9375,7.875
11:21:40.882,8.0938,7.75
11:21:40.893,8,8.125
11:21:40.903,7.375,8.5
11:21:40.913,7.6563,7.75
11:21:40.923,7.2813,7.5
11:21:40.932,6.9688,7.8125
11:21:40.942,6.5938,6.625
11:21:40.952,5.9375,5.5625
11:21:40.963,5.3438,5.3125
11:21:40.979,4.9375,4.75
11:21:40.982,4.5,3.6875
11:21:40.994,4.4688,2.125
11:21:41.002,3.5,2.375
11:21:41.012,3.9063,1.1875
11:21:41.023,3.4688,0.3125
11:21:41.033,2.8125,-0.5625
11:21:41.042,2.375,-0.5625
11:21:41.052,2.875,-1.25
11:21:41.062,2.4375,-2.375
11:21:41.073,1.9063,-2.875
11:21:41.091,1.1563,-2.0625
11:21:41.096,1.3125,-3.625
11:21:41.122,1.0313,-4.375
11:21:41.124,0.625,-4.5625
11:21:41.126,1.0625,-3.625
11:21:41.133,1.4063,-4.875
11:21:41.164,0.4375,-5.75
11:21:41.167,0.125,-6.1875
11:21:41.169,-0.125,-4.875
11:21:41.195,0.3125,-5.625
11:21:41.198,0.25,-6.75
11:21:41.199,-0.1875,-6.1875
11:21:41.204,0.0625,-6.5
11:21:41.230,-0.5,-7.25
11:21:41.231,-0.375,-5.8125
11:21:41.234,-0.0313,-7
11:21:41.260,-0.375,-8.4375
11:21:41.262,-0.4688,-7.8125
11:21:41.265,-0.5938,-8.1875
11:21:41.273,-1.2813,-8.3125
11:21:41.282,-1.0938,-7.9375
11:21:41.293,-0.625,-9.5625
11:21:41.303,-1.3125,-10
11:21:41.313,-1.25,-10
11:21:41.323,-1.125,-11.125
11:21:41.333,-1.1563,-11.125
11:21:41.343,-1.5313,-11.875
11:21:41.354,-1.7813,-11.1875
11:21:41.363,-1.9063,-12.375
11:21:41.372,-2.125,-12.8125
11:21:41.382,-2.5,-11.875
11:21:41.392,-2.6563,-13.8751
11:21:41.402,-3.3125,-13.3126
11:21:41.413,-3.1563,-14.6876
11:21:41.423,-2.8438,-14.6876
11:21:41.432,-3.0625,-14.5001
11:21:41.454,-3.75,-14.1876
11:21:41.460,-3.6563,-15.8126
11:21:41.464,-4.2813,-15.2501
11:21:41.477,-4.3438,-17.1251
11:21:41.485,-4.625,-16.6251
11:21:41.494,-4.9688,-17.4376
11:21:41.503,-4.1875,-17.1876
11:21:41.513,-3.9063,-15.8126
11:21:41.523,-2.6875,-13.9376
11:21:41.533,0.0313,-7.9375
11:21:41.543,2.75,-3.1875
11:21:41.553,5.1563,3.5625
11:21:41.563,7.8438,8.4375
11:21:41.573,9.4375,13.1876
11:21:41.582,11.4375,16.9376
11:21:41.592,11.7188,19.8126
11:21:41.603,13.0625,21.5626
11:21:41.621,12.8125,21.7501
11:21:41.623,12.0938,22.3751
11:21:41.639,11.8125,21.0626
11:21:41.646,11.3438,20.6251
11:21:41.654,11.125,20.0626
11:21:41.663,10.8438,19.4376
11:21:41.672,9.7188,18.0001
11:21:41.682,9.875,16.2501
11:21:41.692,9.5313,16.1876
11:21:41.702,9.5313,15.6251
11:21:41.713,8.6563,14.8126
11:21:41.729,8.0313,15.3751
11:21:41.733,8.6875,14.2501
11:21:41.742,7.4375,12.3125
11:21:41.752,7.125,12.375
11:21:41.763,6.375,11.9375
11:21:41.772,7.3438,11.125
11:21:41.783,6.9375,10.75
11:21:41.792,6.1875,9.75
11:21:41.802,5.875,10.375
11:21:41.813,6.1875,11.1875
11:21:41.849,6.4688,10.375
11:21:41.850,6.75,11.0625
11:21:41.853,6.6875,12.1875
11:21:41.856,7.375,11.9375
11:21:41.885,7.0938,11.75
11:21:41.889,6.2188,12.875
11:21:41.890,6.4063,12.3125
11:21:41.894,6.1875,12.0625
11:21:41.924,6.125,10.875
11:21:41.927,5.375,9.9375
11:21:41.929,5,10
11:21:41.962,5.1875,8.75
11:21:41.962,4.75,7.6875
11:21:41.962,4.1875,5.9375
11:21:41.969,3.4688,5.4375
11:21:41.977,3.2188,5.375
11:21:42.007,3,4.25
11:21:42.009,2.5,2.875
11:21:42.012,2.4688,2.1875
11:21:42.014,1.7813,1.375
11:21:42.023,1.2813,1.875
11:21:42.033,1.4063,0.6875
11:21:42.042,0.9688,-0.0625
11:21:42.054,0.7813,-0.4375
11:21:42.063,0.625,-1.0625
11:21:42.074,0.7188,-1.375
11:21:42.083,0.3125,-1.5
11:21:42.092,-0.8438,-1.3125
11:21:42.103,-0.5938,-1.4375
11:21:42.114,0.0313,-1.75
11:21:42.141,-0.375,-1.9375
11:21:42.142,-0.0938,-2.125
11:21:42.146,0.5625,-1.6875
11:21:42.154,-0.4375,-3.0625
11:21:42.163,-0.5313,-2.3125
11:21:42.172,-1.0938,-2.125
11:21:42.183,-0.5313,-2.5625
11:21:42.192,-0.7188,-3.0625
11:21:42.203,-1.5,-3.875
11:21:42.212,-1.9063,-4.125
11:21:42.222,-1.5313,-4.875
11:21:42.232,-0.9375,-4.3125
11:21:42.245,-1.5,-5.125
11:21:42.253,-1.7813,-5.375
11:21:42.262,-1.8125,-5.8125
11:21:42.272,-2.25,-6.3125
11:21:42.282,-2.625,-6.4375
11:21:42.293,-2.5313,-7
11:21:42.303,-3.0938,-7.4375
11:21:42.313,-3.5,-8.1875
11:21:42.322,-3.8125,-8.625
11:21:42.332,-3.75,-9.25
11:21:42.342,-3.9063,-10
11:21:42.353,-4.3125,-10.8125
11:21:42.362,-4.7188,-11.0625
11:21:42.374,-4.5625,-12.125
11:21:42.382,-4.4375,-11.4375
11:21:42.392,-5.25,-12.125
11:21:42.402,-4.625,-11.0625
11:21:42.413,-3.25,-9.0625
11:21:42.423,-2.1875,-5.6875
11:21:42.432,0.9063,-1.1875
11:21:42.442,2.6563,5
11:21:42.453,5.25,9.25
11:21:42.463,6.375,13.4376
11:21:42.481,8.2188,16.1251
11:21:42.482,9.0313,19.7501
11:21:42.494,9.7813,20.3751
11:21:42.503,10.0625,21.0001
11:21:42.512,9.9063,21.0626
11:21:42.523,9.0938,21.9376
11:21:42.532,9.0938,19.5626
11:21:42.542,7.9063,20.0001
11:21:42.553,8,17.6876
11:21:42.563,7.0625,17.3751
11:21:42.573,6.7188,16.0626
11:21:42.582,6.4375,15.6876
11:21:42.592,6.5625,14.1876
11:21:42.607,5.7813,12.9375
11:21:42.634,5.0313,12.5625
11:21:42.636,4.8125,12.4375
11:21:42.638,4.5313,10.625
11:21:42.651,3.7813,9.0625
11:21:42.657,3.4063,8.6875
11:21:42.687,3.5625,8.875
11:21:42.688,3.4688,7.875
11:21:42.692,3.0313,8.4375
11:21:42.698,3.0625,8.75
11:21:42.705,4.3125,9.5
11:21:42.734,4.0625,9.6875
11:21:42.737,3.2188,9.75
11:21:42.739,3.9063,10.6875
11:21:42.744,4.4688,10.9375
11:21:42.774,4.375,10.875
11:21:42.777,4,11.875
11:21:42.791,4.625,11.375
11:21:42.794,4.4375,10.625
11:21:42.802,4.125,10.875
11:21:42.804,3.6563,11.625
11:21:42.812,3.1875,9.75
11:21:42.825,2.4375,8.0625
11:21:42.833,2.0625,7.0625
11:21:42.843,1.625,7.25
11:21:42.853,0.8125,6.0625
11:21:42.862,0.7188,4.6875
11:21:42.872,0.6563,3.4375
11:21:42.883,-0.125,2.8125
11:21:42.893,-0.4375,3.125
11:21:42.903,-0.2813,2
11:21:42.925,-1.1563,1.0625
11:21:42.928,-1.5938,-0.1875
11:21:42.942,-1.7813,-0.25
11:21:42.959,-0.9688,-0.125
11:21:42.959,-1.7813,-1.0625
11:21:42.964,-2.0625,-0.625
11:21:42.973,-1.5625,-1.25
11:21:42.982,-2.1563,-1.5
11:21:42.994,-2.4063,-2.4375
11:21:43.003,-2.1875,-1.5
11:21:43.013,-2.7188,-2.25
11:21:43.022,-2.875,-3.4375
11:21:43.032,-2.5313,-2.625
11:21:43.044,-2.1563,-3.625
11:21:43.052,-3.0938,-3.5625
11:21:43.062,-2.9688,-4.1875
11:21:43.072,-3.375,-4.5
11:21:43.082,-3.4688,-3.875
11:21:43.093,-2.7813,-5.9375
11:21:43.103,-3.4375,-5
11:21:43.112,-3.7188,-6.1875
11:21:43.122,-3.75,-6.625
11:21:43.132,-3.5313,-6.5625
11:21:43.142,-3.1563,-7.4375
11:21:43.153,-3.5313,-7
11:21:43.162,-3.875,-8.375
11:21:43.172,-3.8125,-7.6875
11:21:43.183,-3.7813,-8.6875
11:21:43.193,-3.75,-8.6875
11:21:43.203,-3.9688,-9.8125
11:21:43.212,-3.9063,-9.75
11:21:43.228,-4.1875,-10.875
11:21:43.234,-4.6563,-10.5
11:21:43.246,-4.5625,-11.4375
11:21:43.252,-4.0938,-11.125
11:21:43.262,-4.5,-11.875
11:21:43.272,-4.75,-12.0625
11:21:43.283,-4.2813,-12.5625
11:21:43.293,-4,-12.375
11:21:43.303,-4.75,-13.2501
11:21:43.316,-4.625,-13.5001
11:21:43.323,-4.9063,-14.3126
11:21:43.344,-4.3125,-13.1251
11:21:43.346,-3.375,-12.5
11:21:43.377,-2.0938,-9
11:21:43.379,0.4375,-4.75
11:21:43.381,2.5938,1.5
11:21:43.422,5.2813,8
11:21:43.422,7.7188,12
11:21:43.424,8.9063,17.5626
11:21:43.431,10.4688,19.5001
11:21:43.431,10.875,22.3751
11:21:43.441,11.5,23.0001
11:21:43.442,11.6875,24.2501
11:21:43.476,11.75,23.4376
11:21:43.478,10.6563,23.1251
11:21:43.480,10.75,22.5626
11:21:43.484,10.125,21.1876
11:21:43.514,10.4375,21.5626
11:21:43.514,9.5,18.9376
11:21:43.517,9.0938,18.6876
11:21:43.524,9.5938,18.6876
11:21:43.533,8.8125,18.1251
11:21:43.543,8.4375,18.1876
11:21:43.552,7.8438,17.1251
11:21:43.563,8.25,16.1876
11:21:43.575,7.75,16.0626
11:21:43.582,7.7188,15.6876
11:21:43.593,7.3125,13.8126
11:21:43.603,7.5625,13.2501
11:21:43.614,5.9375,13
11:21:43.622,6.5313,13.3126
11:21:43.633,6.2188,13.5626
11:21:43.644,6.6563,13.1876
11:21:43.652,6.5625,13.7501
11:21:43.662,6.2188,14.1251
11:21:43.673,6.8125,13.8126
11:21:43.684,6.8125,13.9376
11:21:43.693,6.875,14.5626
11:21:43.703,7.5625,14.0001
11:21:43.712,6.7188,13.8751
11:21:43.723,6.4688,14.1251
11:21:43.733,6.5313,13.4376
11:21:43.742,6.2813,12.375
11:21:43.752,5.9688,11.875
11:21:43.764,4.9375,11.875
11:21:43.774,4.4375,10.5625
11:21:43.784,4.25,9.375
11:21:43.792,3.8125,8.5
11:21:43.804,2.5,8.4375
11:21:43.812,2.5938,7.5
11:21:43.824,2.5938,6.9375
11:21:43.834,1.9063,6.5625
11:21:43.842,1.7813,6.3125
11:21:43.852,2.25,4.5625
11:21:43.864,1.75,2.875
11:21:43.874,1.625,2.875
11:21:43.883,1.25,3.0625
11:21:43.894,1.4688,1.75
11:21:43.904,1.6563,1.3125
11:21:43.914,1.8125,0.75
11:21:43.923,1.1875,1.625
11:21:43.934,1.0625,0.875
11:21:43.943,0.9688,-0.3125
11:21:43.953,1.0625,-0.75
11:21:43.963,0.5,0.1875
11:21:43.976,0.625,-1.8125
11:21:43.986,0.3125,-1.9375
11:21:43.992,0.4375,-1.3125
11:21:44.003,0.4688,-1.9375
11:21:44.014,0.0625,-3.0625
11:21:44.023,-0.1563,-2.6875
11:21:44.034,-0.5,-2.5
11:21:44.042,-0.3125,-3.8125
11:21:44.062,-0.625,-4.25
11:21:44.069,-1.0938,-4.3125
11:21:44.205,-0.5,-5
11:21:44.205,-0.9063,-5.375
11:21:44.205,-1.4688,-5.875
11:21:44.237,-1.4063,-5.75
11:21:44.237,-1.4688,-7.5625
11:21:44.238,-2.2813,-8.0625
11:21:44.252,-1.9688,-7.4375
11:21:44.266,-2,-8.625
11:21:44.268,-2.2188,-9.1875
11:21:44.268,-3.125,-8.5
11:21:44.269,-2.75,-9.6875
11:21:44.274,-2.7813,-10.5625
11:21:44.284,-2.8125,-10.125
11:21:44.294,-3.0625,-10.5
11:21:44.302,-2.875,-10.9375
11:21:44.314,-3.0625,-11.8125
11:21:44.324,-2.5625,-11.625
11:21:44.333,-2.9375,-12.125
11:21:44.344,-2.9063,-12.5625
11:21:44.353,-3.7813,-13.2501
11:21:44.365,-3.4375,-13.6251
11:21:44.373,-5.375,-18.1876
11:21:44.384,-4.2188,-17.4376
11:21:44.393,-3.1875,-15.7501
11:21:44.403,-1.4063,-10.375
11:21:44.412,0.9688,-4.625
11:21:44.425,5.125,3.75
11:21:44.434,6.125,8.8125
11:21:44.444,7.6875,13.0625
11:21:44.452,8.75,17.0001
11:21:44.464,8.875,17.4376
11:21:44.479,8.4063,18.3126
11:21:44.490,8.2813,19.5001
11:21:44.498,6.6563,18.7501
11:21:44.509,6,18.6876
11:21:44.519,3.8125,18.2501
11:21:44.528,2,16.8126
11:21:44.540,2.0625,15.8751
11:21:44.549,1.0625,16.0001
11:21:44.559,1.8125,15.0626
11:21:44.569,1.2188,14.9376
11:21:44.579,0.7813,14.6876
11:21:44.590,0.25,14.6251
11:21:44.599,-1.2813,14.6251
11:21:44.609,-2.7188,14.6251
11:21:44.618,-6.75,13.125
11:21:44.629,-11.0313,11.0625
11:21:44.637,-18.5938,10.4375
11:21:44.649,-23.1563,9.625
11:21:44.659,-28.6564,8.625
11:21:44.668,-36.7814,9.5625
11:21:44.700,-45.9377,12.4375
11:21:44.703,-55.9377,17.2501
11:21:44.704,-61.594,21.1876
11:21:44.710,-64.6565,23.9376
11:21:44.719,-63.9377,25.8126
11:21:44.735,-62.7815,27.6876
11:21:44.738,-60.969,27.2501
11:21:44.750,-61.0315,27.0626
11:21:44.758,-62.219,29.3126
11:21:44.789,-61.8752,28.9376
11:21:44.792,-61.8127,28.9376
11:21:44.794,-61.5002,29.6251
11:21:44.800,-60.1877,30.1876
11:21:44.830,-60.6252,29.3126
11:21:44.832,-60.7815,30.8126
11:21:44.834,-60.5315,29.1251
11:21:44.862,-60.3752,30.3751
11:21:44.862,-59.9377,28.5001
11:21:44.864,-59.3752,26.7501
11:21:44.869,-58.594,26.9376
11:21:44.897,-58.094,25.6876
11:21:44.899,-57.4377,25.0626
11:21:44.901,-55.6252,24.3751
11:21:44.908,-54.9377,23.8751
11:21:44.941,-54.0002,23.8126
11:21:44.945,-52.3752,22.5001
11:21:44.946,-52.2814,21.6251
11:21:44.951,-51.0002,22.0626
11:21:44.962,-50.5939,20.3126
11:21:44.970,-50.3752,19.6876
11:21:44.979,-49.9064,19.6876
11:21:44.988,-49.0627,19.8751
11:21:44.999,-48.1564,20.5001
11:21:45.009,-47.5939,19.4376
11:21:45.019,-47.6252,18.8126
11:21:45.030,-47.5002,19.3751
11:21:45.038,-46.8439,17.6251
11:21:45.049,-45.6877,17.6251
11:21:45.059,-45.3752,16.9376
11:21:45.068,-45.1877,16.2501
11:21:45.078,-44.4377,15.0626
11:21:45.090,-43.9689,14.8126
11:21:45.099,-43.6877,15.4376
11:21:45.110,-42.5314,14.2501
11:21:45.118,-41.9064,12.5625
11:21:45.129,-40.7814,12.4375
11:21:45.139,-40.0939,12.625
11:21:45.149,-40.0002,11.8125
11:21:45.158,-38.8751,11.5
11:21:45.168,-37.3126,10.375
11:21:45.179,-37.1564,9.75
11:21:45.190,-36.0626,9.5
11:21:45.200,-34.7814,8.375
11:21:45.209,-33.7814,8.8125
11:21:45.219,-32.4064,7.75
11:21:45.228,-31.9376,6.9375
11:21:45.239,-30.0001,6.8125
11:21:45.250,-30.1876,5.8125
11:21:45.258,-29.3439,5.75
11:21:45.269,-28.0314,4.375
11:21:45.280,-28.1876,3.625
11:21:45.289,-27.8751,4
11:21:45.299,-27.1564,3.25
11:21:45.309,-25.8126,4.4375
11:21:45.318,-24.2501,5.3125
11:21:45.328,-22.1251,7.75
11:21:45.339,-20.0313,12.25
11:21:45.350,-16.6251,16.3751
11:21:45.358,-15.0626,20.4376
11:21:45.369,-13.3751,24.8751
11:21:45.379,-11.6875,26.9376
11:21:45.389,-11.1563,29.8751
11:21:45.399,-10.4063,31.8751
11:21:45.409,-9.4688,31.3126
11:21:45.419,-9.2813,32.3126
11:21:45.440,-8.6875,33.0001
11:21:45.442,-8.5625,31.9376
11:21:45.457,-8.0938,32.1876
11:21:45.460,-7.9063,31.3751
11:21:45.476,-7.7813,31.0001
11:21:45.478,-7.3125,30.5626
11:21:45.494,-6.9688,29.5001
11:21:45.501,-7.9063,29.7501
11:21:45.509,-7.7813,29.3126
11:21:45.518,-7.125,28.6876
11:21:45.534,-7.2813,28.5001
11:21:45.538,-7.4375,27.3751
11:21:45.609,-6.9063,27.3126
11:21:45.610,-6.625,26.5001
11:21:45.614,-7.375,26.1251
11:21:45.614,-7.5938,25.8751
11:21:45.615,-7,25.4376
11:21:45.616,-6.7813,25.0001
11:21:45.654,-6.8125,26.0626
11:21:45.654,-6.9375,26.6876
11:21:45.654,-6.2188,26.2501
11:21:45.657,-6.0625,26.9376
11:21:45.663,-5.0313,27.6876
11:21:45.663,-4.5625,28.0626
11:21:45.673,-4.8438,28.5626
11:21:45.679,-4.6563,29.3126
11:21:45.708,-4.375,28.3751
11:21:45.711,-4.2188,28.0626
11:21:45.713,-4.25,28.4376
11:21:45.719,-4,28.6876
11:21:45.729,-4.6563,28.4376
11:21:45.739,-4.1563,27.3126
11:21:45.749,-3.875,26.9376
11:21:45.759,-3.8438,25.6876
11:21:45.769,-4.2188,25.4376
11:21:45.779,-4.5313,25.5001
11:21:45.791,-3.5938,23.8751
11:21:45.799,-3.625,24.6876
11:21:45.809,-2.875,23.0001
11:21:45.820,-1.7188,22.1251
11:21:45.829,-1.5313,21.6876
11:21:45.839,-1.0938,21.4376
11:21:45.849,-1.125,20.7501
11:21:45.859,-0.75,21.0626
11:21:45.869,0.2813,19.2501
11:21:45.879,0.0625,18.6876
11:21:45.889,0.1875,19.4376
11:21:45.901,0.125,17.9376
11:21:45.909,0.4688,18.2501
11:21:45.919,0.625,17.7501
11:21:45.929,0.2813,17.2501
11:21:45.938,-0.5625,16.2501
11:21:45.949,0.0625,17.3751
11:21:45.979,-0.1563,15.2501
11:21:45.982,0.375,15.3126
11:21:45.984,0.1875,15.0626
11:21:45.990,-0.6563,14.2501
11:21:46.000,-1.3125,14.8126
11:21:46.009,-1.2813,13.0625
11:21:46.019,-1.625,12.125
11:21:46.029,-2.1563,11.9375
11:21:46.038,-2.75,10.5625
11:21:46.049,-3.5625,10.125
11:21:46.059,-4.125,10.8125
11:21:46.070,-4.5,10
11:21:46.079,-5.0625,8.5625
11:21:46.089,-5,7.9375
11:21:46.098,-5.0625,7.125
11:21:46.109,-4.9063,7.375
11:21:46.121,-3.75,6.625
11:21:46.129,-3.5625,6
11:21:46.139,-2.8438,5.5625
11:21:46.149,-1.9688,5.25
11:21:46.158,-0.6563,4.5625
11:21:46.169,-1.0938,3.8125
11:21:46.180,-1.2188,4.4375
11:21:46.189,-0.6875,2.75
11:21:46.199,-0.0625,1.875
11:21:46.208,-0.5625,0.5
11:21:46.218,0,0.3125
11:21:46.236,-0.6875,-0.9375
11:21:46.240,-0.4063,-1.75
11:21:46.268,-0.7188,-2.75
11:21:46.270,-0.875,-4.6875
11:21:46.274,-0.75,-3.375
11:21:46.280,-0.7813,-3.9375
11:21:46.311,0.3438,-2.3125
11:21:46.314,1.25,1.3125
11:21:46.316,3.5,5.75
11:21:46.319,5.0938,12.25
11:21:46.348,7.4688,15.9376
11:21:46.350,8.875,20.0626
11:21:46.352,10.375,24.9376
11:21:46.383,12.125,28.3126
11:21:46.384,12.625,29.8126
11:21:46.387,12.1875,32.1251
11:21:46.393,12.6875,33.6876
11:21:46.399,12.9688,33.9376
11:21:46.416,13.5626,34.7501
11:21:46.420,13.6251,34.0001
11:21:46.430,13.0313,34.3126
11:21:46.439,13.8126,33.6876
11:21:46.449,13.1563,33.6876
11:21:46.458,13.1563,33.1876
11:21:46.469,13.0938,34.2501
11:21:46.479,13.6876,33.0626
11:21:46.491,14.0938,33.1251
11:21:46.499,13.4063,31.8751
11:21:46.510,13.1563,32.0001
11:21:46.519,13.2813,31.5001
11:21:46.529,12.8438,30.5626
11:21:46.539,12.2813,29.8126
11:21:46.549,11.9688,30.7501
11:21:46.559,12.6875,30.3126
11:21:46.568,11.875,29.9376
11:21:46.582,11.7188,29.8126
11:21:46.590,12.4063,31.8126
11:21:46.599,12.8125,31.8126
11:21:46.610,12.5,31.2501
11:21:46.619,12.9063,33.3126
11:21:46.629,13.3438,32.8751
11:21:46.639,13,33.2501
11:21:46.649,13.1563,34.3751
11:21:46.659,13.3751,34.6251
11:21:46.668,13.5313,34.3751
11:21:46.679,13.1875,33.6876
11:21:46.690,12.625,34.3126
11:21:46.699,13.6251,34.1876
11:21:46.710,12.8125,33.1876
11:21:46.718,12.1875,34.5001
11:21:46.729,12.25,31.8126
11:21:46.744,12.5938,31.1876
11:21:46.759,13.125,31.9376
11:21:46.762,13.4376,30.2501
11:21:46.771,13.9688,28.8126
11:21:46.778,13.7813,28.5626
11:21:46.788,14.4376,28.7501
11:21:46.800,15.2501,27.7501
11:21:46.809,15.8126,26.8126
11:21:46.818,15.9063,25.8126
11:21:46.828,15.4063,25.8126
11:21:46.839,15.6563,25.1251
11:21:46.856,14.2813,24.0001
11:21:46.859,13.6251,23.6876
11:21:46.873,13.6251,22.7501
11:21:46.882,12.8125,21.3751
11:21:46.889,12.0313,21.1251
11:21:46.899,11.9375,21.8751
11:21:46.910,12.0938,20.1251
11:21:46.919,12.0938,19.6251
11:21:46.929,11,19.1876
11:21:46.939,9.7188,19.1251
11:21:46.948,9.2813,18.2501
11:21:46.959,9,17.1876
11:21:46.974,8.3125,17.9376
11:21:46.979,7.0313,16.5626
11:21:47.006,6.5313,14.8126
11:21:47.010,5.0313,14.8126
11:21:47.011,4.6563,13.2501
11:21:47.042,4.3438,13.1876
11:21:47.043,3.5,11.8125
11:21:47.046,2.4063,11.5
11:21:47.050,2.4375,10.875
11:21:47.081,2.7188,9.6875
11:21:47.083,2.875,8.4375
11:21:47.085,3,9.375
11:21:47.091,3.7813,7.1875
11:21:47.117,3.9375,6.125
11:21:47.118,4.7188,5.9375
11:21:47.121,4.9375,4.625
11:21:47.151,5.0313,3.875
11:21:47.152,5.2813,2.8125
11:21:47.155,4.9063,1.375
11:21:47.159,4.4375,1.125
11:21:47.172,4.7813,0.75
11:21:47.181,4.7188,-0.1875
11:21:47.189,3.9688,-1.25
11:21:47.198,4.6563,0.625
11:21:47.209,5.9375,2.6875
11:21:47.218,8.1563,6.4375
11:21:47.229,9.375,10.0625
11:21:47.262,11.1563,15.8126
11:21:47.263,13.2188,20.5626
11:21:47.265,14.8438,23.9376
11:21:47.271,15.8751,27.1251
11:21:47.279,16.0626,28.3751
11:21:47.290,16.7188,31.4376
11:21:47.299,17.1876,32.5001
11:21:47.309,17.5938,32.3751
11:21:47.319,17.7188,32.4376
11:21:47.329,16.7813,32.2501
11:21:47.339,15.7813,32.0626
11:21:47.349,15.8751,31.5626
11:21:47.359,16.2813,31.6251
11:21:47.368,15.2188,30.4376
11:21:47.379,15.0001,30.2501
11:21:47.389,14.7501,30.7501
11:21:47.398,15.0001,29.8751
11:21:47.409,14.1251,28.6876
11:21:47.418,13.5626,28.6251
11:21:47.428,12.9063,27.8126
11:21:47.439,12.8125,27.2501
11:21:47.449,12,26.3126
11:21:47.458,11.5313,26.2501
11:21:47.469,11.9375,26.6876
11:21:47.479,12.3125,26.3126
11:21:47.488,12.125,25.5626
11:21:47.499,11.875,25.8751
11:21:47.508,12.125,27.5001
11:21:47.519,13.2188,27.1876
11:21:47.528,12.2813,27.1251
11:21:47.538,12.0938,28.2501
11:21:47.549,12.0625,29.0001
11:21:47.561,12.4063,28.8126
11:21:47.572,11.375,28.3126
11:21:47.579,11.5,28.3126
11:21:47.588,11.0313,27.7501
11:21:47.599,10.4063,27.0626
11:21:47.609,9.5313,27.0626
11:21:47.619,9.8438,26.8126
11:21:47.629,9.5625,25.8751
11:21:47.638,8.3125,24.8751
11:21:47.649,7.5938,25.5626
11:21:47.659,8,23.9376
11:21:47.668,6.6563,23.3751
11:21:47.679,6.75,22.8126
11:21:47.689,6.5,22.3751
11:21:47.700,5.7188,22.0001
11:21:47.728,5.5313,22.2501
11:21:47.730,5.875,20.8751
11:21:47.732,5.25,19.7501
11:21:47.738,5.25,19.9376
11:21:47.771,5.8438,19.0626
11:21:47.774,5.3438,18.3751
11:21:47.776,5.3125,18.0001
11:21:47.806,6,17.1251
11:21:47.806,5.875,16.8126
11:21:47.809,5.2813,16.5626
11:21:47.815,5.3438,15.9376
11:21:47.825,5.6563,14.8126
11:21:47.830,5.25,14.0001
11:21:47.866,5.875,13.8751
11:21:47.868,5.0625,13.5001
11:21:47.869,4.2188,14.3751
11:21:47.876,4.3438,13.3751
11:21:47.878,4.5938,11.3125
11:21:47.888,3.4063,10.375
11:21:47.898,3.1563,10.6875
11:21:47.908,2.8125,10.375
11:21:47.924,3.4063,8.5
11:21:47.929,3.0938,7.5
11:21:47.939,2.375,7.5625
11:21:47.949,2.375,7.1875
11:21:47.959,2.375,5.875
11:21:47.969,2.125,5.3125
11:21:47.978,1.0625,5.6875
11:21:47.988,1.2813,3.6875
11:21:47.999,0.4063,2.4375
11:21:48.008,-0.6563,2.3125
11:21:48.018,-0.125,1.5
11:21:48.028,-1,-0.1875
11:21:48.046,-1.375,-0.5625
11:21:48.051,-1.0313,-0.25
11:21:48.066,-1.1563,-0.4375
11:21:48.071,-0.5625,-1.6875
11:21:48.080,-1.3438,-3.4375
11:21:48.089,-1.5625,-2.5
11:21:48.099,0.0313,-1.5625
11:21:48.109,1.0625,0.5
11:21:48.120,2.7188,5.375
11:21:48.129,6.125,9.1875
11:21:48.139,7.8125,13.125
11:21:48.159,9.1875,17.3126
11:21:48.161,10.6875,21.8126
11:21:48.176,12.7813,24.7501
11:21:48.181,13.8751,25.8126
11:21:48.189,13.5313,27.1251
11:21:48.199,13.0938,28.3126
11:21:48.209,13.5001,27.7501
11:21:48.219,13.8126,27.5626
11:21:48.229,13.8126,27.5626
11:21:48.239,12.9063,25.8751
11:21:48.249,12.3125,26.3126
11:21:48.259,11.7813,25.1876
11:21:48.269,11,25.1251
11:21:48.278,11.625,23.9376
11:21:48.288,10.6875,23.3751
11:21:48.299,10.1563,23.6876
11:21:48.308,9.875,24.3751
11:21:48.319,9.75,23.7501
11:21:48.329,10.3125,22.3751
11:21:48.338,9.6563,21.3751
11:21:48.349,8.5625,20.9376
11:21:48.365,7.9375,21.2501
11:21:48.370,8.2188,20.5626
11:21:48.395,7.9375,19.5001
11:21:48.398,7.1563,19.1251
11:21:48.401,7.0938,20.0626
11:21:48.417,7.5,20.0626
11:21:48.419,7.5938,19.2501
11:21:48.446,7.7813,19.8751
11:21:48.449,7.9688,20.3126
11:21:48.452,6.8125,19.9376
11:21:48.459,7.4688,20.8126
11:21:48.490,7.0625,20.8751
11:21:48.493,7.8438,19.9376
11:21:48.495,6.5625,19.6876
11:21:48.508,6.375,20.3751
11:21:48.514,6,19.5001
11:21:48.540,6.9063,18.7501
11:21:48.542,6.25,17.6876
11:21:48.545,5.5625,16.6876
11:21:48.555,5.5313,16.8126
11:21:48.565,5.8125,16.3126
11:21:48.575,6.4688,15.6251
11:21:48.585,5.9375,14.6251
11:21:48.596,4.8438,13.9376
11:21:48.605,4.625,14.5626
11:21:48.615,4.4375,13.5001
11:21:48.625,4.2188,12
11:21:48.635,3.8438,12.0625
11:21:48.645,3.125,11.75
11:21:48.654,3.0625,10.9375
11:21:48.664,3.25,10.9375
11:21:48.674,2.8438,10.8125
11:21:48.686,2.1875,11.0625
11:21:48.695,2.0938,10.4375
11:21:48.703,1.8438,9.625
11:21:48.713,1.625,10.6875
11:21:48.723,1.4688,10.3125
11:21:48.734,1.5625,9.1875
11:21:48.744,0.6563,8.4375
11:21:48.753,0.3438,8.875
11:21:48.763,-0.7188,8.625
11:21:48.774,0.0313,7.875
11:21:48.784,-0.6563,7.25
11:21:48.794,-1.3438,6.5625
11:21:48.803,-1.0625,7.4375
11:21:48.814,-1.5625,7.1875
11:21:48.823,-0.625,6.375
11:21:48.834,-1.5,6.25
11:21:48.844,-1.9063,6.6875
11:21:48.853,-1.5313,6.3125
11:21:48.864,-1.25,5.5625
11:21:48.874,-1.6563,4.5625
11:21:48.884,-2,5.25
11:21:48.893,-1.75,3.8125
11:21:48.903,-1.625,2.3125
11:21:48.913,-1.125,2.6875
11:21:48.924,-0.7813,1.6875
11:21:48.934,-0.125,0.6875
11:21:48.943,-0.6563,-0.375
11:21:48.953,-0.6875,-0.4375
11:21:48.964,0.5938,-1.6875
11:21:48.975,0.0313,-2.0625
11:21:48.985,-0.0313,-2.0625
11:21:48.994,-0.6875,-4.375
11:21:49.006,-1.5313,-3.5
11:21:49.017,-0.7188,-5.1875
11:21:49.023,-1.6563,-6.5
11:21:49.034,-2.125,-6.875
11:21:49.047,-1.8438,-7.1875
11:21:49.057,-2.1563,-8
11:21:49.064,-2.6875,-7.5625
11:21:49.073,-1.875,-9.5625
11:21:49.084,-2.125,-9.75
11:21:49.094,-2.0313,-8.1875
11:21:49.107,-0.4375,-6.0625
11:21:49.115,1.5938,-2.0625
11:21:49.150,3.1563,1.9375
11:21:49.153,4.0938,6.3125
11:21:49.154,6.5625,10.3125
11:21:49.156,7.4688,14.3751
11:21:49.194,8.2813,17.7501
11:21:49.197,9.2813,19.0001
11:21:49.199,9.7188,20.1876
11:21:49.227,10,21.3126
11:21:49.227,10.25,21.0626
11:21:49.227,11.1563,22.3126
11:21:49.230,10.7813,21.0626
11:21:49.236,10.8438,20.6251
11:21:49.250,10.4375,19.1876
11:21:49.255,10,19.6876
11:21:49.277,10.75,18.5626
11:21:49.280,9.7188,18.1876
11:21:49.286,8.9375,18.1876
11:21:49.296,8.6875,17.3751
11:21:49.305,9.0625,16.3126
11:21:49.313,8.1875,15.8126
11:21:49.326,7.2188,16.5001
11:21:49.346,6.9688,14.3751
11:21:49.348,6.5625,13.2501
11:21:49.365,5.9375,12.0625
11:21:49.366,5.5,12
11:21:49.375,6,11.75
11:21:49.383,6.125,10.8125
11:21:49.394,5.5,10.4375
11:21:49.405,4.9063,11.0625
11:21:49.415,5.5625,11
11:21:49.424,5.3438,9.625
11:21:49.437,5.1563,10.875
11:21:49.455,4.9063,11.3125
11:21:49.457,4.9688,10.75
11:21:49.473,4.75,10.875
11:21:49.477,3.9688,10.1875
11:21:49.487,4.25,11.5
11:21:49.495,3.7813,10.625
11:21:49.503,4.4375,9
11:21:49.514,3.5625,9.125
11:21:49.525,3.4688,7.9375
11:21:49.534,3,8.6875
11:21:49.543,2.9688,7.3125
11:21:49.554,1.6875,6.25
11:21:49.564,1.625,6.5
11:21:49.574,2.75,5.25
11:21:49.584,2.5,4.1875
11:21:49.595,2.4063,3.75
11:21:49.606,3.4688,3.875
11:21:49.616,2.8125,3.25
11:21:49.624,1.7188,2.9375
11:21:49.633,1.8125,3
11:21:49.644,1.0313,2.625
11:21:49.654,0.5938,1.8125
11:21:49.665,0.0625,1.3125
11:21:49.675,-0.3438,1.4375
11:21:49.684,-1.4063,1.625
11:21:49.696,-0.5625,0.625
11:21:49.707,-1.2188,-0.3125
11:21:49.713,-1,0.625
11:21:49.725,-0.8125,0.25
11:21:49.735,-0.6875,-0.25
11:21:49.745,-1.4063,-0.5
11:21:49.755,-1.7188,-0.6875
11:21:49.765,-1.8438,0
11:21:49.775,-1,-0.6875
11:21:49.784,-1.375,-1.25
11:21:49.795,-2.0625,-1.25
11:21:49.820,-1.6563,-1.625
11:21:49.822,-2.0313,-1.5
11:21:49.832,-1.75,-2.125
11:21:49.833,-2.0625,-1.625
11:21:49.844,-2.4375,-2.5
11:21:49.853,-3.3438,-2.5625
11:21:49.866,-2.9063,-2.4375
11:21:49.896,-3.1563,-3.625
11:21:49.897,-3.375,-2.875
11:21:49.901,-4.0625,-4.25
11:21:49.907,-4.1563,-4.8125
11:21:49.939,-3.7813,-4.4375
11:21:49.941,-4.0625,-6.5625
11:21:49.943,-3.875,-5.4375
11:21:49.948,-4.0938,-7.125
11:21:49.980,-3.4063,-7.4375
11:21:49.981,-3.2813,-7.875
11:21:49.984,-3.4063,-8.875
11:21:49.989,-3,-9.3125
11:21:50.015,-3.5313,-10.625
11:21:50.017,-3.0313,-11.0625
11:21:50.019,-4.3125,-11.1875
11:21:50.026,-4.1563,-12.5625
11:21:50.057,-4.3125,-13
11:21:50.059,-4.0625,-12.125
11:21:50.061,-3.9375,-12.625
11:21:50.066,-3.1875,-10.8125
11:21:50.075,-1.375,-7.9375
11:21:50.085,-0.3125,-4.5625
11:21:50.095,1.3438,0.4375
11:21:50.105,2.4688,2.6875
11:21:50.115,3.625,5.875
11:21:50.125,5,8.5
11:21:50.135,4.5,10.4375
11:21:50.145,5,11
11:21:50.154,5.1563,11.125
11:21:50.165,4.7188,12.0625
11:21:50.175,5.0625,10.875
11:21:50.183,4.4688,11.125
11:21:50.195,4.6563,9.5625
11:21:50.209,3.5,9.4375
11:21:50.215,3.4063,8
11:21:50.225,2.5313,7.8125
11:21:50.236,3.3438,7.625
11:21:50.245,2.9688,5.9375
11:21:50.256,2.6563,6.1875
11:21:50.265,2.9063,5.5625
11:21:50.276,2.75,4.3125
11:21:50.285,2.5625,3.875
11:21:50.295,2.5313,3.875
11:21:50.305,3.375,3.0625
11:21:50.315,2.625,2
11:21:50.325,2.3125,1.5625
11:21:50.335,2.5313,1.5625
11:21:50.345,3.0938,1.1875
11:21:50.356,2.0938,0.3125
11:21:50.366,1.8438,1.8125
11:21:50.377,2.3125,1.3125
11:21:50.385,2.0313,0.6875
11:21:50.394,1.9375,0.3125
11:21:50.405,1.8125,1.3125
11:21:50.415,1.6563,1.3125
11:21:50.425,2.4375,0.875
11:21:50.438,1.4063,0
11:21:50.445,1.3125,-0.5625
11:21:50.455,0.625,-0.625
11:21:50.465,0.5,-1.75
11:21:50.476,-0.4375,-2.375
11:21:50.485,-0.75,-1.875
11:21:50.495,-1.375,-3.875
11:21:50.505,-2.4375,-4.8125
11:21:50.515,-3.8125,-6.5625
11:21:50.527,-4.6563,-5.6875
11:21:50.535,-5.0938,-7.625
11:21:50.544,-5.7188,-9.375
11:21:50.562,-6.1875,-8.625
11:21:50.565,-6.6875,-8.5625
11:21:50.592,-6.9688,-10.0625
11:21:50.595,-7,-11
11:21:50.597,-6.8438,-10
11:21:50.670,-6.5625,-10.5625
11:21:50.672,-5.7813,-11.5625
11:21:50.672,-5.875,-10.875
11:21:50.676,-5.7188,-10.25
11:21:50.679,-5.8125,-11.9375
11:21:50.679,-5.9688,-12.0625
11:21:50.679,-6.7813,-11.625
11:21:50.687,-6.5938,-11.0625
11:21:50.719,-6.8438,-11.125
11:21:50.721,-7.4688,-11.0625
11:21:50.724,-7.9375,-11.25
11:21:50.726,-8.875,-11.25
11:21:50.751,-9.0625,-10.625
11:21:50.753,-9.1563,-11.9375
11:21:50.768,-9.8438,-10.6875
11:21:50.773,-10.2188,-11.8125
11:21:50.776,-10.3125,-11.8125
11:21:50.785,-10.2188,-11.5625
11:21:50.796,-10.2813,-12.9375
11:21:50.808,-10.4063,-11.9375
11:21:50.815,-9.7813,-12.3125
11:21:50.825,-8.75,-11.875
11:21:50.835,-8.25,-12
11:21:50.845,-7.8125,-11.8125
11:21:50.855,10.6563,-10.5625
11:21:50.865,13.1563,-8.6875
11:21:50.875,18.8751,-10.25
11:21:50.887,23.1251,-11.1875
11:21:50.895,27.3126,-13.9376
11:21:50.905,29.3751,-16.1251
11:21:50.915,30.9376,-17.5626
11:21:50.925,33.0626,-20.5626
11:21:50.934,34.1876,-23.2501
11:21:50.945,35.2501,-25.6251
11:21:50.957,36.0626,-28.1876
11:21:50.965,35.9376,-28.7501
11:21:50.975,35.8439,-31.0001
11:21:50.986,36.6564,-30.0001
11:21:50.995,38.1251,-31.3126
11:21:51.005,40.1564,-29.8751
11:21:51.015,41.9689,-28.9376
11:21:51.026,44.7502,-25.6876
11:21:51.038,47.2814,-22.1876
11:21:51.045,48.5314,-18.6251
11:21:51.055,50.5939,-14.8126
11:21:51.065,51.1564,-12.6875
11:21:51.075,52.1564,-10.125
11:21:51.100,53.219,-8.875
11:21:51.102,53.8127,-10
11:21:51.106,53.6565,-9.625
11:21:51.115,53.6565,-9.5
11:21:51.125,53.3127,-11.25
11:21:51.135,52.9065,-12.625
11:21:51.145,52.5002,-13.1876
11:21:51.155,52.2814,-15.3751
11:21:51.165,51.0627,-16.5626
11:21:51.177,50.9064,-17.6876
11:21:51.185,50.9689,-18.3126
11:21:51.195,51.2814,-20.3126
11:21:51.205,50.9689,-20.4376
11:21:51.215,51.6877,-21.7501
11:21:51.226,51.4377,-22.5626
11:21:51.235,51.4377,-22.5626
11:21:51.247,51.2814,-24.1251
11:21:51.255,51.1252,-26.1876
11:21:51.265,49.8127,-26.3126
11:21:51.275,50.0627,-26.9376
11:21:51.285,49.4689,-28.1876
11:21:51.313,49.1564,-29.0001
11:21:51.315,48.5314,-28.3751
11:21:51.317,49.0314,-28.3751
11:21:51.325,47.5002,-27.6876
11:21:51.359,47.4064,-28.1876
11:21:51.361,46.0314,-28.9376
11:21:51.364,45.1564,-27.5001
11:21:51.366,44.7189,-28.8751
11:21:51.401,43.7189,-29.1876
11:21:51.404,42.5627,-28.0001
11:21:51.406,42.4377,-28.9376
11:21:51.411,40.5627,-29.3126
11:21:51.415,40.1877,-29.5001
11:21:51.448,39.4377,-30.1876
11:21:51.450,38.4064,-29.4376
11:21:51.454,37.6251,-31.6876
11:21:51.457,36.2814,-33.0001
11:21:51.471,35.1564,-32.9376
11:21:51.474,35.0001,-33.3751
11:21:51.491,34.0001,-34.1876
11:21:51.495,32.4689,-34.5001
11:21:51.505,31.3126,-35.5001
11:21:51.515,30.3439,-36.1876
11:21:51.528,29.4376,-35.9376
11:21:51.535,29.3439,-36.3751
11:21:51.546,27.9376,-37.3126
11:21:51.555,27.3439,-37.8126
11:21:51.565,27.0939,-38.0001
11:21:51.575,25.6251,-38.0626
11:21:51.586,24.6563,-38.3126
11:21:51.597,23.9063,-39.0001
11:21:51.607,22.9688,-38.8751
11:21:51.615,22.3751,-38.6876
11:21:51.625,21.9688,-39.1876
11:21:51.635,21.4376,-40.0002
11:21:51.645,20.9376,-39.1252
11:21:51.655,20.3751,-39.5002
11:21:51.666,19.8751,-38.7501
11:21:51.675,19.5626,-38.6251
11:21:51.685,18.1251,-39.1877
11:21:51.695,17.3438,-39.2502
11:21:51.705,17.3126,-39.5002
11:21:51.715,16.1563,-40.0002
11:21:51.726,15.7188,-40.0002
11:21:51.737,15.2501,-40.5002
11:21:51.744,14.3126,-40.6252
11:21:51.755,14.4376,-41.5002
11:21:51.765,13.4376,-42.4377
11:21:51.775,12.6875,-41.8127
11:21:51.785,12.3125,-42.4377
11:21:51.798,10.875,-43.3752
11:21:51.805,10.3438,-42.8752
11:21:51.815,11.3125,-43.1252
11:21:51.825,9.9063,-44.0002
11:21:51.835,8.5625,-43.8127
11:21:51.845,9.5,-45.2502
11:21:51.857,8.0625,-45.0627
11:21:51.870,8.0313,-45.5002
11:21:51.875,7.5,-46.8127
11:21:51.885,6.4375,-45.4377
11:21:51.895,6.6875,-46.0627
11:21:51.906,5.0625,-47.1877
11:21:51.917,5.0625,-46.6252
11:21:51.924,4.75,-47.5627
11:21:51.943,4.0625,-47.1252
11:21:51.956,3.6563,-47.5002
11:21:51.959,2.9688,-48.5002
11:21:51.966,2.4063,-47.4377
11:21:51.976,2.4375,-48.3127
11:21:51.987,1.4688,-49.0627
11:21:51.995,1.0625,-48.4377
11:21:52.005,0.8125,-47.5627
11:21:52.015,1.3125,-47.6252
11:21:52.025,2.5313,-43.8752
11:21:52.036,5.4375,-37.8126
11:21:52.050,7.8125,-31.0626
11:21:52.065,9.5625,-24.6251
11:21:52.067,12,-20.3751
11:21:52.075,13.0938,-17.1251
11:21:52.086,14.3126,-12.875
11:21:52.098,15.0626,-11.4375
11:21:52.108,14.9688,-11.0625
11:21:52.139,14.1251,-11.125
11:21:52.140,14.1563,-10.4375
11:21:52.143,13.6876,-11.5
11:21:52.168,13.6876,-11.6875
11:21:52.170,12.5938,-12.75
11:21:52.172,11.875,-13.0625
11:21:52.199,11.6563,-14.0626
11:21:52.200,11.2813,-15.0626
11:21:52.202,10.8125,-15.5626
11:21:52.207,10.375,-15.5626
11:21:52.235,10.8125,-16.3751
11:21:52.237,9.4063,-17.2501
11:21:52.240,8.9688,-16.0001
11:21:52.267,9,-18.1251
11:21:52.268,8.1875,-18.0626
11:21:52.270,7.7813,-19.5626
11:21:52.275,7.2188,-20.9376
11:21:52.285,7.125,-20.0626
11:21:52.300,6.8125,-20.7501
11:21:52.305,5.7188,-21.0626
11:21:52.316,6.125,-21.6251
11:21:52.325,6.0625,-21.8126
11:21:52.335,5.2813,-20.7501
11:21:52.346,5.7813,-21.3126
11:21:52.355,5.5313,-21.0626
11:21:52.381,5.1875,-20.5001
11:21:52.382,5.2813,-21.1251
11:21:52.387,5.4688,-20.1251
11:21:52.395,5.6875,-20.5626
11:21:52.405,4.875,-20.5626
11:21:52.415,4.75,-20.2501
11:21:52.426,4.2188,-22.2501
11:21:52.437,3.6875,-22.5626
11:21:52.445,3.5938,-22.8751
11:21:52.455,3.4063,-24.1876
11:21:52.465,3.5625,-24.5001
11:21:52.475,2.5625,-25.8751
11:21:52.486,2.3438,-26.3126
11:21:52.500,2.4688,-27.4376
11:21:52.511,1.4688,-28.7501
11:21:52.520,0.8125,-29.1251
11:21:52.530,0.6563,-29.5001
11:21:52.540,0.4688,-31.1876
11:21:52.551,-0.5625,-30.6251
11:21:52.560,-0.625,-30.6876
11:21:52.570,-0.5938,-31.8751
11:21:52.580,-1.0938,-30.6876
11:21:52.590,-1.1875,-32.0001
11:21:52.600,-1.125,-32.3126
11:21:52.612,-1.4063,-31.3126
11:21:52.620,-0.9688,-31.6251
11:21:52.630,-1.9063,-31.5626
11:21:52.640,-1.0625,-31.6876
11:21:52.650,-1.9063,-32.5001
11:21:52.662,-1.5938,-31.6876
11:21:52.675,-1.6875,-32.3751
11:21:52.680,-2.4375,-32.5001
11:21:52.690,-2.125,-32.6251
11:21:52.701,-2.0938,-32.5001
11:21:52.710,-2.3438,-32.8126
11:21:52.720,-2.5938,-32.6876
11:21:52.730,-3.0938,-32.6251
11:21:52.740,-2.75,-32.9376
11:21:52.751,-3.0625,-32.8751
11:21:52.761,-3.25,-33.5001
11:21:52.770,-4,-33.7501
11:21:52.803,-3.4063,-33.2501
11:21:52.808,-3.9375,-33.4376
11:21:52.808,-4.0938,-34.1251
11:21:52.810,-4.625,-34.3751
11:21:52.844,-3.9688,-34.8751
11:21:52.845,-4.8438,-35.7501
11:21:52.851,-5.5313,-34.8126
11:21:52.851,-5.5313,-35.9376
11:21:52.877,-5.5313,-35.5001
11:21:52.880,-6.2188,-36.2501
11:21:52.881,-5.7813,-36.9376
11:21:52.910,-6.5,-36.8751
11:21:52.911,-6.3438,-38.3126
11:21:52.914,-6.8438,-38.0001
11:21:52.921,-6.6875,-38.3751
11:21:52.945,-6.625,-36.3751
11:21:52.948,-5.4063,-35.5001
11:21:52.951,-3.2188,-31.9376
11:21:52.960,-0.3438,-26.0001
11:21:52.970,2.3125,-20.6251
11:21:52.980,4.375,-14.3126
11:21:52.991,5.9688,-10.4375
11:21:53.000,7.75,-7.75
11:21:53.010,9.1563,-4.4375
11:21:53.020,8.5,-3.8125
11:21:53.031,9.3125,-2.75
11:21:53.040,8.7813,-2.875
11:21:53.050,9.2813,-2.4375
11:21:53.060,8.4063,-3.3125
11:21:53.071,8.3125,-3.9375
11:21:53.082,7.9063,-5
11:21:53.090,7.0625,-5.75
11:21:53.100,6.9688,-6.1875
11:21:53.110,7.2188,-7.25
11:21:53.121,6.5313,-7.6875
11:21:53.130,5.625,-8.375
11:21:53.140,5.5,-8.3125
11:21:53.150,5.75,-9.5
11:21:53.160,4.9375,-10.4375
11:21:53.170,4.125,-11.1875
11:21:53.180,3.4063,-11.75
11:21:53.190,3.1563,-12.875
11:21:53.200,3.0625,-12.625
11:21:53.211,2.9063,-13.9376
11:21:53.220,2.4375,-13.8126
11:21:53.235,2.4688,-13.9376
11:21:53.251,2.1875,-12.5
11:21:53.256,2.9375,-12.8125
11:21:53.260,3.0625,-12.375
11:21:53.270,3.2188,-12.8125
11:21:53.282,2.75,-12.875
11:21:53.290,3.2813,-12.25
11:21:53.300,3.4063,-12.1875
11:21:53.310,3.3125,-11.1875
11:21:53.320,2.8125,-11.875
11:21:53.333,1.7813,-11.8125
11:21:53.345,2.2813,-12.1875
11:21:53.362,1.8125,-13.2501
11:21:53.362,1.9375,-13.6251
11:21:53.371,1.4688,-14.7501
11:21:53.380,1.25,-15.5626
11:21:53.390,0.3438,-16.8751
11:21:53.400,0,-16.1251
11:21:53.410,0.1563,-17.6251
11:21:53.425,-1.0313,-19.2501
11:21:53.436,-0.7813,-19.4376
11:21:53.445,-0.3438,-19.5626
11:21:53.455,-1.1875,-20.0626
11:21:53.465,-1.5313,-20.8751
11:21:53.476,-1.5,-21.4376
11:21:53.485,-1.75,-21.5626
11:21:53.495,-2.1875,-21.5001
11:21:53.506,-2.5,-21.7501
11:21:53.533,-2.6875,-22.2501
11:21:53.535,-2.875,-22.5001
11:21:53.537,-3.1563,-23.0626
11:21:53.569,-3.1875,-22.7501
11:21:53.572,-3.625,-22.8751
11:21:53.573,-2.9688,-22.9376
11:21:53.577,-3.6563,-23.9376
11:21:53.609,-4.2813,-22.5626
11:21:53.611,-4.1875,-24.0001
11:21:53.613,-4.0625,-23.8751
11:21:53.616,-3.9375,-25.0626
11:21:53.648,-4.5938,-23.0001
11:21:53.651,-4.6875,-24.3751
11:21:53.654,-5.2188,-23.9376
11:21:53.684,-5.4688,-25.3751
11:21:53.685,-6.375,-24.9376
11:21:53.687,-6.3125,-25.3126
11:21:53.694,-6.0938,-26.5626
11:21:53.696,-6,-24.9376
11:21:53.706,-6.125,-26.5001
11:21:53.718,-6.5625,-26.0626
11:21:53.725,-6.4375,-26.8751
11:21:53.735,-6.4688,-26.8751
11:21:53.746,-7,-27.8126
11:21:53.755,-7.3125,-27.6251
11:21:53.765,-7.4688,-28.6876
11:21:53.775,-7.6563,-28.9376
11:21:53.785,-8.0313,-29.1876
11:21:53.800,-8.125,-28.8751
11:21:53.806,-8.2813,-29.5001
11:21:53.815,-7.7188,-30.3751
11:21:53.827,-8.7813,-30.0626
11:21:53.835,-8.7188,-31.4376
11:21:53.845,-8.7813,-32.0626
11:21:53.856,-9.4688,-32.1251
11:21:53.868,-9.25,-33.1876
11:21:53.876,-9.3438,-32.6251
11:21:53.886,-9.6563,-33.8751
11:21:53.895,-10.3438,-33.7501
11:21:53.908,-10.3438,-34.1251
11:21:53.915,-10.1875,-33.1251
11:21:53.925,-8.6563,-31.2501
11:21:53.937,-7.5,-27.2501
11:21:53.950,-3.2813,-21.0626
11:21:53.955,-1.0625,-14.3126
11:21:53.967,2.3125,-6.4375
11:21:53.976,3.9688,-2.5625
11:21:53.988,5.6563,2.5625
11:21:53.995,6.9375,4.75
11:21:54.010,7.8125,7.75
11:21:54.020,8.7188,7.5625
11:21:54.031,8.6563,9
11:21:54.044,8.2188,7.875
11:21:54.050,7.875,7.375
11:21:54.060,8.125,6.5
11:21:54.071,7.375,5.8125
11:21:54.080,7.3125,4.125
11:21:54.090,6.0313,3.25
11:21:54.100,5.9375,2.5625
11:21:54.111,5.8125,1.375
11:21:54.123,6,0.9375
11:21:54.131,5.4375,1.3125
11:21:54.141,5.6563,-0.5625
11:21:54.151,4.5,-1.5
11:21:54.161,4.25,-1.875
11:21:54.175,4.5,-3.75
11:21:54.181,3.2813,-5.4375
11:21:54.191,2.8438,-5.1875
11:21:54.200,3.2813,-5.6875
11:21:54.211,3.5938,-5.125
11:21:54.221,3.0625,-6.25
11:21:54.233,2.9063,-6.25
11:21:54.241,3.3125,-4.5
11:21:54.251,4,-4.6875
11:21:54.261,3.7813,-4.125
11:21:54.273,3.75,-2.6875
11:21:54.281,3.8438,-3.25
11:21:54.291,3.5,-4
11:21:54.301,3.5938,-2.8125
11:21:54.336,2.8125,-4.25
11:21:54.337,3.125,-4
11:21:54.340,2.3438,-4.9375
11:21:54.342,1.8125,-4.875
11:21:54.373,2.3125,-5.6875
11:21:54.376,1.5313,-7
11:21:54.377,0.4375,-6.4375
11:21:54.380,0.2188,-9.1875
11:21:54.417,0.0313,-9.5625
11:21:54.420,-0.5938,-10.5625
11:21:54.422,-0.75,-12.1875
11:21:54.450,-0.6563,-11.6875
11:21:54.450,-0.625,-12.8125
11:21:54.452,-1.6875,-13.5626
11:21:54.457,-2.25,-13.8751
11:21:54.462,-1.6875,-15.1876
11:21:54.485,-2.6875,-14.1876
11:21:54.488,-2.5938,-16.5001
11:21:54.491,-3.4688,-16.8126
11:21:54.501,-3.0938,-16.5626
11:21:54.511,-3.1875,-16.9376
11:21:54.532,-3.7188,-17.0626
11:21:54.538,-3.9375,-16.2501
11:21:54.554,-3.5625,-17.6876
11:21:54.556,-4.0313,-16.7501
11:21:54.571,-4.0625,-17.1876
11:21:54.586,-3.6563,-18.0626
11:21:54.588,-3.9375,-17.9376
11:21:54.592,-4,-17.9376
11:21:54.601,-4.0313,-18.4376
11:21:54.611,-4.0938,-18.3126
11:21:54.621,-4.4375,-19.0001
11:21:54.640,-3.6563,-19.1251
11:21:54.642,-4.4688,-18.3751
11:21:54.658,-4.375,-19.3126
11:21:54.674,-4.4375,-19.3126
11:21:54.677,-4.7188,-19.6876
11:21:54.683,-4.0938,-20.6876
11:21:54.692,-4.9688,-20.6876
11:21:54.701,-4.8125,-20.3751
11:21:54.711,-5.0625,-20.9376
11:21:54.724,-5.0313,-21.2501
11:21:54.731,-6.0313,-20.4376
11:21:54.741,-5.5938,-22.0626
11:21:54.751,-5.8438,-22.2501
11:21:54.761,-6.5625,-22.6251
11:21:54.770,-6.75,-22.7501
11:21:54.781,-6.1875,-24.0001
11:21:54.791,-7.0313,-24.9376
11:21:54.801,-7.0313,-24.7501
11:21:54.810,-7.375,-26.1876
11:21:54.822,-7.4375,-26.7501
11:21:54.831,-7.4375,-27.0626
11:21:54.840,-7.8125,-26.2501
11:21:54.851,-7.125,-26.2501
11:21:54.860,-5.6563,-23.8751
11:21:54.871,-3.5625,-19.3751
11:21:54.881,-0.8438,-13.3751
11:21:54.893,2.5625,-6.625
11:21:54.901,4.4375,-0.5625
11:21:54.911,6.9688,3.9375
11:21:54.939,8.3438,8
11:21:54.941,9.7188,9.9375
11:21:54.944,9.1563,12.3125
11:21:54.951,10.375,12.375
11:21:54.987,9.9063,12.9375
11:21:54.990,10.4063,12.75
11:21:54.991,9.7188,11.5625
11:21:54.998,8.4063,11.1875
11:21:55.010,8.5313,9.4375
11:21:55.013,7.4375,9.5625
11:21:55.047,7.0625,8.3125
11:21:55.049,7,6.6875
11:21:55.051,6.125,5.6875
11:21:55.057,5.5,4.625
11:21:55.061,5.4375,4.8125
11:21:55.094,5.0313,2.8125
11:21:55.096,4.375,1.6875
11:21:55.099,3.9063,1.4375
11:21:55.102,3.3438,0.5625
11:21:55.132,2.8438,-1.125
11:21:55.134,2.625,-0.875
11:21:55.136,2.9375,-0.8125
11:21:55.142,3.1563,-1.5625
11:21:55.154,2.75,-1.0625
11:21:55.161,2.9688,-0.3125
11:21:55.171,2.9063,-0.1875
11:21:55.181,3.75,0.125
11:21:55.193,3.4688,0.5
11:21:55.201,4,1.9375
11:21:55.211,3.6563,2.375
11:21:55.221,4.0938,1
11:21:55.231,3.8438,0.1875
11:21:55.241,3.2188,1
11:21:55.251,3.625,0.0625
11:21:55.263,3.5938,-1
11:21:55.271,2.7813,-1.25
11:21:55.281,2.9063,-2.3125
11:21:55.292,2.5313,-3.5625
11:21:55.301,1.9063,-4.875
11:21:55.311,1.75,-5.25
11:21:55.321,0.9375,-6.25
11:21:55.334,0.625,-6.5625
11:21:55.341,0.6563,-7.6875
11:21:55.351,-0.1563,-9.25
11:21:55.363,-0.0938,-8.9375
11:21:55.371,0.1875,-10.5
11:21:55.381,-0.9063,-10.8125
11:21:55.391,-1.1563,-10.4375
11:21:55.404,-1.7813,-11.625
11:21:55.411,-1.5313,-12.125
11:21:55.423,-2.2188,-12.4375
11:21:55.433,-2.4063,-12.1875
11:21:55.441,-2.4063,-12.8125
11:21:55.451,-2.6563,-12.9375
11:21:55.461,-2.5,-14.1876
11:21:55.474,-2.6563,-14.6251
11:21:55.481,-2.75,-13.8126
11:21:55.491,-2,-14.5001
11:21:55.502,-2.7813,-14.0001
11:21:55.511,-3.125,-14.0626
11:21:55.530,-2.9375,-14.3751
11:21:55.531,-2.9375,-15.4376
11:21:55.542,-3.0938,-14.9376
11:21:55.551,-2.7813,-16.1251
11:21:55.561,-2.9375,-16.3751
11:21:55.571,-2.9688,-17.3751
11:21:55.581,-2.5938,-16.1251
11:21:55.592,-3.1875,-17.2501
11:21:55.601,-3.1875,-16.9376
11:21:55.611,-2.9688,-17.2501
11:21:55.622,-3.5938,-18.2501
11:21:55.632,-3.9688,-18.6876
11:21:55.641,-3.9375,-19.0001
11:21:55.652,-4.7188,-20.0001
11:21:55.662,-4.1875,-19.9376
11:21:55.694,-4.6563,-20.1876
11:21:55.695,-4.75,-21.1251
11:21:55.698,-4.7813,-21.1876
11:21:55.701,-4.8125,-19.8751
11:21:55.731,-4.75,-19.6876
11:21:55.734,-3.1563,-16.3751
11:21:55.736,-0.75,-12.1875
11:21:55.742,2.2813,-5.9375
11:21:55.769,4.875,0.625
11:21:55.771,6.7188,5.875
11:21:55.774,9.4063,10.4375
11:21:55.809,10.2813,13.0625
11:21:55.811,11.5313,15.6251
11:21:55.814,11.8438,16.1876
11:21:55.821,11.5938,16.6251
11:21:55.823,11.875,16.0001
11:21:55.852,11.125,16.6251
11:21:55.868,10.7813,14.8751
11:21:55.871,10.4688,13.5001
11:21:55.885,10,13.4376
11:21:55.891,9.875,12.4375
11:21:55.907,9.4063,11.5
11:21:55.908,9.0938,10.5
11:21:55.922,8.6563,9.4375
11:21:55.925,7.7813,9.6875
11:21:55.929,8.0938,8.625
11:21:55.929,8.1875,6.9375
11:21:55.942,6.9375,5.125
11:21:55.957,6.3125,4.4375
11:21:55.966,6.4688,3.6875
11:21:55.971,6.5313,3.6875
11:21:55.990,6.25,2.875
11:21:55.994,5.625,3.1875
11:21:56.009,5.4375,3
11:21:56.011,6.5313,3.1875
11:21:56.022,6,3.0625
11:21:56.031,6.2813,3.5
11:21:56.041,6.5,4.125
11:21:56.053,6.5625,3.875
11:21:56.061,7.0313,5.75
11:21:56.071,6.5,6.0625
11:21:56.081,6.4688,6.125
11:21:56.091,6.9375,5
11:21:56.101,6.125,4.25
11:21:56.111,5.5938,4.875
11:21:56.123,4.9375,3.6875
11:21:56.131,5.4375,2.375
11:21:56.141,4.1875,1.1875
11:21:56.152,3.5938,0.375
11:21:56.161,4.1563,0.0625
11:21:56.171,4.375,-0.5625
11:21:56.184,2.8125,-1.75
11:21:56.191,2.375,-2.5625
11:21:56.219,2.3438,-3.5
11:21:56.221,1.8125,-4.875
11:21:56.224,1.875,-5.75
11:21:56.232,1.5313,-5.1875
11:21:56.243,1.375,-6.5625
11:21:56.251,0.8125,-7.625
11:21:56.261,0.9063,-6.875
11:21:56.277,0.3438,-7.8125
11:21:56.281,-0.1875,-8.625
11:21:56.291,-0.25,-9.75
11:21:56.302,-0.8125,-9.375
11:21:56.313,-0.9375,-9.3125
11:21:56.321,-0.5313,-10.1875
11:21:56.331,-1.0938,-10.75
11:21:56.341,-1.125,-10.25
11:21:56.351,-1.2813,-10.5625
11:21:56.361,-1.4063,-10.75
11:21:56.372,-1.1875,-11.1875
11:21:56.381,-1.4063,-11.625
11:21:56.413,-1.5313,-11.625
11:21:56.415,-1.6563,-10.9375
11:21:56.418,-1.8125,-11.25
11:21:56.421,-2.3125,-11.5
11:21:56.454,-1.375,-11.875
11:21:56.456,-1.7813,-13.1251
11:21:56.459,-1.8125,-12.375
11:21:56.461,-2.4375,-12.5
11:21:56.491,-2.5,-13.0625
11:21:56.494,-2.8125,-12.9375
11:21:56.496,-2.6875,-14.2501
11:21:56.523,-3.4688,-14.5001
11:21:56.525,-3.5313,-14.8126
11:21:56.527,-4.25,-15.8126
11:21:56.562,-4.4063,-16.1876
11:21:56.565,-4.8438,-16.6876
11:21:56.566,-4.9375,-17.0626
11:21:56.575,-5.7813,-17.1876
11:21:56.578,-5.5938,-18.0626
11:21:56.588,-5.6563,-17.5626
11:21:56.596,-5.5938,-17.5001
11:21:56.607,-4.875,-15.1251
11:21:56.619,-2.125,-11.25
11:21:56.626,0.1875,-6.375
11:21:56.636,2.875,0.875
11:21:56.653,5.3438,5.6875
11:21:56.656,7.4063,9.5625
11:21:56.666,8.3438,14.0001
11:21:56.679,10.2813,17.6876
11:21:56.686,11.875,20.0626
11:21:56.698,11.4063,20.1251
11:21:56.707,11.0313,20.7501
11:21:56.716,11.5938,20.3126
11:21:56.726,10.75,20.6876
11:21:56.738,10.4063,19.1251
11:21:56.746,9.9063,18.3126
11:21:56.756,9.5625,17.6251
11:21:56.768,8.75,16.6876
11:21:56.776,8.625,16.3751
11:21:56.788,8.9375,14.7501
11:21:56.797,7.8125,13.6251
11:21:56.806,7.2188,13.4376
11:21:56.816,7.5625,12.75
11:21:56.827,6.5,11.3125
11:21:56.836,6.375,10.1875
11:21:56.846,6.0625,10.1875
11:21:56.857,5.9375,9.5
11:21:56.866,5.7813,8.6875
11:21:56.877,5.75,8.875
11:21:56.887,5.4375,9.625
11:21:56.896,6.125,9.625
11:21:56.906,6.0313,9.3125
11:21:56.916,5.875,10.4375
11:21:56.926,6.0938,11.625
11:21:56.937,7.0938,10.8125
11:21:56.947,6.0938,11.1875
11:21:56.956,5.9375,12.0625
11:21:56.967,6.2813,11.3125
11:21:56.976,5.625,11.0625
11:21:56.988,5.1875,9.9375
11:21:56.996,4.6563,10.3125
11:21:57.006,4.625,8.8125
11:21:57.016,4.5,8.0625
11:21:57.027,3.625,7.375
11:21:57.037,3.1563,6.25
11:21:57.046,3.3438,5.25
11:21:57.058,2.5,3.875
11:21:57.066,2.6563,3.625
11:21:57.076,1.8438,3.375
11:21:57.086,1.7813,1.75
11:21:57.097,1.6875,0.5625
11:21:57.106,0.6563,0.4375
11:21:57.116,0.5313,-0.125
11:21:57.148,0.25,-1.625
11:21:57.150,0.4375,-2
11:21:57.153,-0.1563,-1.5625
11:21:57.157,0.4688,-2.9375
11:21:57.185,-0.6875,-3.5
11:21:57.260,-0.5625,-3.1875
11:21:57.273,-0.2188,-3.25
11:21:57.274,-0.3438,-3.75
11:21:57.308,-0.7188,-4.1875
11:21:57.308,-1.5,-4.6875
11:21:57.308,-1.5313,-4.1875
11:21:57.322,-0.4063,-4.9375
11:21:57.324,-1.2188,-5.25
11:21:57.340,-1.6563,-5.5
11:21:57.340,-1.5313,-5.4375
11:21:57.340,-1.5,-6
11:21:57.341,-1.25,-5.9375
11:21:57.356,-0.9063,-6.6875
11:21:57.358,-1.8125,-6.6875
11:21:57.365,-1.5313,-6.75
11:21:57.371,-2.1563,-7.125
11:21:57.382,-1.5938,-7.5625
11:21:57.392,-1.9688,-8.125
11:21:57.407,-2.7813,-8.3125
11:21:57.411,-2.6875,-9.3125
11:21:57.422,-2.9063,-9.875
11:21:57.431,-2.8125,-10.3125
11:21:57.441,-4.4063,-14.2501
11:21:57.451,-4.25,-14.1876
11:21:57.463,-4.0313,-13.5626
11:21:57.472,-2.625,-11.125
11:21:57.500,-0.7188,-6.5625
11:21:57.502,1.9688,0.375
11:21:57.504,4.5625,5.5625
11:21:57.512,6.3125,10
11:21:57.521,7.875,14.4376
11:21:57.531,8.7813,17.1876
11:21:57.541,9.75,19.1251
11:21:57.551,10.375,21.1876
11:21:57.561,10.7813,21.5001
11:21:57.571,10.4688,21.4376
11:21:57.581,10.1875,21.5001
11:21:57.591,9.1875,21.2501
11:21:57.601,9.125,19.5001
11:21:57.612,8.7813,19.1251
11:21:57.621,8.8438,18.3126
11:21:57.631,7.625,17.5626
11:21:57.641,6.9375,16.4376
11:21:57.652,6.5938,15.2501
11:21:57.661,6.25,13.8751
11:21:57.672,6.0313,13.3751
11:21:57.681,5.0938,13.9376
11:21:57.692,5.2813,11.8125
11:21:57.702,4.8438,10.8125
11:21:57.711,4.0938,10.4375
11:21:57.721,4.4688,10.1875
11:21:57.732,4.0938,8.875
11:21:57.741,3.75,10.8125
11:21:57.751,4,9.625
11:21:57.762,4.2813,9.75
11:21:57.771,4.3125,10.875
11:21:57.781,4.1563,11.8125
11:21:57.792,4.6875,12.125
11:21:57.801,4.875,12.1875
11:21:57.811,4.3438,12.5625
11:21:57.821,4.75,13.0625
11:21:57.831,4.125,12.75
11:21:57.842,3.875,11.875
11:21:57.879,3.5,12.375
11:21:57.880,3.5,10.875
11:21:57.883,2.8438,9.8125
11:21:57.887,2.125,9.5
11:21:57.911,1.9375,9.125
11:21:57.913,2.875,7.9375
11:21:57.918,1.3438,6.125
11:21:57.921,0.8125,6.4375
11:21:57.960,0.6875,5.125
11:21:57.962,0.5625,3.75
11:21:57.963,-0.125,3.4375
11:21:57.969,-0.8438,3.0625
11:21:57.971,-0.4063,1.9375
11:21:58.004,-0.7188,1.125
11:21:58.006,-0.7813,0.375
11:21:58.009,-0.8438,1
11:21:58.011,-1.0313,-0.0625
11:21:58.036,-0.5,-0.375
11:21:58.038,-1,-1.1875
11:21:58.044,-1.5625,-1.75
11:21:58.051,-1.5,-1.3125
11:21:58.061,-1.9063,-1.5
11:21:58.071,-1.9063,-1.875
11:21:58.082,-1.875,-2.875
11:21:58.091,-1.8438,-1.8125
11:21:58.101,-1.9375,-2.4375
11:21:58.113,-1.7813,-3
11:21:58.122,-2.6563,-3.375
11:21:58.132,-2.6563,-3.1875
11:21:58.141,-2.125,-4.3125
11:21:58.157,-2.6875,-3.875
11:21:58.163,-1.8438,-4
11:21:58.172,-3.25,-4.75
11:21:58.183,-2.9688,-5.25
11:21:58.193,-2.875,-5.5625
11:21:58.201,-2.8125,-6.4375
11:21:58.214,-3.0625,-7.125
11:21:58.221,-3.4063,-7.9375
11:21:58.232,-4.1563,-8.125
11:21:58.241,-3.8438,-8.9375
11:21:58.252,-3.9063,-9.6875
11:21:58.261,-3.875,-8.5
11:21:58.273,-3.625,-8.8125
11:21:58.281,-2.375,-6.9375
11:21:58.293,-0.375,-3.125
11:21:58.302,2.25,2.5625
11:21:58.312,4.1875,7.0625
11:21:58.322,6.0313,11.5
11:21:58.332,8.1563,16.1876
11:21:58.342,9.1563,19.4376
11:21:58.351,10.625,22.5626
11:21:58.363,10.625,23.7501
11:21:58.372,10.6563,24.8751
11:21:58.381,10.3438,24.8126
11:21:58.391,11.0313,24.6251
11:21:58.402,10.8438,23.3751
11:21:58.413,10.3125,23.9376
11:21:58.422,10,22.0626
11:21:58.433,9.375,22.4376
11:21:58.441,9.0625,22.0626
11:21:58.454,8.8438,21.4376
11:21:58.463,8,20.5001
11:21:58.472,7.75,20.5001
11:21:58.481,7.8125,19.1876
11:21:58.493,7.2188,18.8751
11:21:58.502,6.875,19.5001
11:21:58.513,7.2188,17.6876
11:21:58.523,5.7813,16.3751
11:21:58.539,5.4375,16.1251
11:21:58.546,5.0938,14.7501
11:21:58.554,5.1563,13.9376
11:21:58.561,4.4688,15.1876
11:21:58.579,5.4688,14.5001
11:21:58.585,5.5625,14.1251
11:21:58.593,5.4688,15.1251
11:21:58.602,6.4375,16.0626
11:21:58.631,6.4688,16.5626
11:21:58.666,5.875,15.8751
11:21:58.703,5.7813,16.8751
11:21:58.732,5.8438,16.0626
11:21:58.735,4.9688,15.0001
11:21:58.737,4.6563,15.7501
11:21:58.737,4.875,14.5626
11:21:58.737,3.5625,13
11:21:58.742,3.6875,12.6875
11:21:58.781,2.4063,11.25
11:21:58.784,2.9688,10.875
11:21:58.785,2.4688,9.9375
11:21:58.787,1.8438,8.125
11:21:58.793,1.2188,7.5
11:21:58.801,0.9375,7
11:21:58.811,1.0313,6.8125
11:21:58.825,0.125,4.875
11:21:58.833,0.1875,4.3125
11:21:58.841,-0.4375,4.25
11:21:58.852,-0.3438,3.9375
11:21:58.863,-0.75,4.125
11:21:58.874,-0.7813,3.25
11:21:58.882,-1.1875,3
11:21:58.892,-1.625,2.0625
11:21:58.907,-3.75,2.3125
11:21:58.912,-5.1875,2.9375
11:21:58.922,-5.5625,2.5
11:21:58.935,-6.7188,1.8125
11:21:58.941,-7.4688,2.0625
11:21:58.952,-8.9688,2.125
11:21:58.961,-9,2.125
11:21:58.972,-10.1563,1
11:21:58.984,-10.7813,0.8125
11:21:58.991,-11.2813,0.9375
11:21:59.003,-12.3125,0.75
11:21:59.015,-12.4063,1.125
11:21:59.022,-13.7188,0.3125
11:21:59.033,-14.6251,0.9375
11:21:59.042,-15.0626,-0.3125
11:21:59.052,-14.9688,-1.9375
11:21:59.063,-15.2813,-1.8125
11:21:59.073,-14.9688,-3.9375
11:21:59.082,-15.9688,-4
11:21:59.093,-15.5626,-4.4375
11:21:59.102,-16.3126,-6
11:21:59.114,-16.8438,-5.1875
11:21:59.123,-16.7501,-6.5625
11:21:59.133,-17.9063,-7
11:21:59.143,-18.1251,-5.5625
11:21:59.153,-17.4376,-2.9375
11:21:59.162,-17.3126,0.25
11:21:59.172,-16.5938,2.9375
11:21:59.182,-17.6251,6.5625
11:21:59.193,-21.2501,12.6875
11:21:59.202,-26.3126,17.6876
11:21:59.213,-31.9689,24.0626
11:21:59.225,-38.8751,28.3126
11:21:59.232,-45.4689,35.5001
11:21:59.242,-50.6877,42.1252
11:21:59.252,-54.9065,47.7502
11:21:59.263,-55.4377,51.4377
11:21:59.272,-54.8752,51.6252
11:21:59.287,-54.6565,52.2502
11:21:59.293,-53.5627,51.5002
11:21:59.304,-54.3127,51.7502
11:21:59.313,-54.9065,51.4377
11:21:59.331,-54.6565,51.6252
11:21:59.336,-55.344,51.5627
11:21:59.342,-56.1565,52.1877
11:21:59.370,-56.4377,51.9377
11:21:59.371,-57.7815,50.9377
11:21:59.373,-59.5315,50.8127
11:21:59.409,-60.094,49.7502
11:21:59.411,-61.5627,50.8752
11:21:59.413,-61.844,49.3752
11:21:59.416,-62.8752,47.8752
11:21:59.422,-63.4377,47.3752
11:21:59.454,-63.3127,47.1252
11:21:59.456,-63.4065,46.1252
11:21:59.459,-64.0627,46.9377
11:21:59.463,-63.1877,43.8127
11:21:59.498,-63.2815,41.1252
11:21:59.501,-62.7502,42.2502
11:21:59.504,-61.3752,40.6252
11:21:59.506,-59.7502,39.8127
11:21:59.513,-57.2502,39.5002
11:21:59.524,-54.844,38.8126
11:21:59.532,-52.0314,39.6877
11:21:59.542,-47.6564,38.1876
11:21:59.554,-44.0314,38.9376
11:21:59.562,-40.1564,38.3751
11:21:59.573,-36.5939,37.8126
11:21:59.582,-34.0626,38.1876
11:21:59.592,-31.8751,36.5626
11:21:59.605,-28.9689,36.5626
11:21:59.612,-27.5314,36.0626
11:21:59.623,-26.5626,35.2501
11:21:59.633,-25.1563,34.3126
11:21:59.643,-24.9063,34.0626
11:21:59.655,-24.9063,34.6251
11:21:59.662,-23.8751,33.5626
11:21:59.672,-23.4063,32.5626
11:21:59.682,-23.4376,32.0001
11:21:59.692,-22.7501,31.3751
11:21:59.704,-21.7813,32.7501
11:21:59.713,-21.3438,30.8126
11:21:59.722,-21.2188,30.4376
11:21:59.733,-21.2813,29.6251
11:21:59.742,-21.8751,28.5001
11:21:59.754,-24.0313,29.0626
11:21:59.763,-25.1563,26.7501
11:21:59.772,-28.1876,26.4376
11:21:59.782,-32.9376,24.9376
11:21:59.793,-37.3751,23.9376
11:21:59.802,-41.8752,22.2501
11:21:59.812,-45.5314,18.5001
11:21:59.823,-51.6252,17.8751
11:21:59.834,-56.844,13.5001
11:21:59.843,-61.719,11.3125
11:21:59.861,-65.1252,7.625
11:21:59.867,-67.5628,5
11:21:59.876,-69.844,2.4375
11:21:59.882,-72.3128,-0.8125
11:21:59.899,-74.3128,-2.0625
11:21:59.903,-74.469,-4.375
11:21:59.917,-73.8128,-6
11:21:59.923,-72.5628,-6.4375
11:21:59.933,-68.4378,-5.875
11:21:59.943,-63.1252,-3.4375
11:21:59.952,-55.8127,0.8125
11:21:59.965,-47.7502,4.375
11:21:59.984,-41.5627,6.625
11:21:59.986,-36.1251,9
11:21:59.997,-31.3439,11.4375
11:22:00.009,-25.6251,15.1876
11:22:00.017,-20.3751,18.6251
11:22:00.030,-16.0626,22.8126
11:22:00.032,-13.0938,28.1251
11:22:00.059,-9.8438,31.1251
11:22:00.063,-8.2813,35.8126
11:22:00.064,-6.8125,38.5001
11:22:00.079,-6.75,40.8752
11:22:00.082,-6.375,43.1252
11:22:00.095,-7.625,42.9377
11:22:00.103,-9.9063,43.8752
11:22:00.117,-13.9063,42.8127
11:22:00.122,-17.7501,42.3752
11:22:00.150,-20.3126,40.5002
11:22:00.153,-23.4688,38.1876
11:22:00.155,-25.8438,36.1876
11:22:00.184,-27.1251,34.9376
11:22:00.186,-29.6251,32.5001
11:22:00.188,-32.7814,29.9376
11:22:00.192,-35.3439,26.1876
11:22:00.219,-38.9689,23.9376
11:22:00.222,-40.7189,21.5626
11:22:00.225,-41.5314,19.5001
11:22:00.249,-42.4064,17.8126
11:22:00.251,-42.0627,16.9376
11:22:00.253,-42.0314,15.6876
11:22:00.288,-40.5314,16.0626
11:22:00.290,-38.4064,15.8751
11:22:00.292,-35.5939,17.1876
11:22:00.298,-29.9064,18.6251
11:22:00.302,-22.2188,22.3751
11:22:00.313,-14.6563,26.3751
11:22:00.322,-8.8438,29.8751
11:22:00.332,-2.9375,32.6251
11:22:00.343,1.4688,34.1876
11:22:00.353,4.3438,34.1876
11:22:00.364,6.9688,36.2501
11:22:00.373,8.625,35.6251
11:22:00.382,10.25,37.3126
11:22:00.393,12.6875,37.8751
11:22:00.403,12.625,38.2501
11:22:00.413,13.1875,38.8126
11:22:00.423,14.5626,38.3126
11:22:00.432,13.6563,38.5626
11:22:00.442,13.8751,36.5001
11:22:00.458,13.5626,35.4376
11:22:00.463,12.7813,34.8751
11:22:00.473,12.5313,34.5001
11:22:00.482,10.5625,33.3126
11:22:00.492,9.1563,32.0001
11:22:00.502,5.7188,30.3751
11:22:00.513,2.0938,30.0001
11:22:00.523,-1.9688,29.6876
11:22:00.532,-6.3125,27.5001
11:22:00.542,-10.2188,26.1251
11:22:00.552,-14.0938,24.7501
11:22:00.563,-15.3438,22.9376
11:22:00.573,-18.1251,19.5626
11:22:00.582,-20.1563,17.6876
11:22:00.592,-22.5313,17.8126
11:22:00.602,-25.1876,15.3751
11:22:00.618,-27.7814,13.5626
11:22:00.629,-29.5001,12.375
11:22:00.638,-30.2814,11.5
11:22:00.647,-29.7189,10.625
11:22:00.658,-29.5314,9.4375
11:22:00.667,-28.4689,8.9375
11:22:00.680,-28.2189,9.4375
11:22:00.688,-26.0313,8.9375
11:22:00.698,-21.8438,9.0625
11:22:00.708,-15.8438,12.5
11:22:00.717,-7.3438,15.1251
11:22:00.727,0.0313,18.0626
11:22:00.737,5.6563,19.0001
11:22:00.748,8.7188,19.3751
11:22:00.757,10.5313,21.1251
11:22:00.767,12.4063,20.6876
11:22:00.778,14.2813,20.6876
11:22:00.787,14.1251,19.5001
11:22:00.798,13.8438,19.1876
11:22:00.807,14.6563,18.1251
11:22:00.818,14.5626,16.6251
11:22:00.837,15.8126,18.7501
11:22:00.839,16.2813,19.8751
11:22:00.870,17.5313,23.1251
11:22:00.871,19.9376,27.9376
11:22:00.875,20.9063,31.7501
11:22:00.877,21.1876,36.3126
11:22:00.904,19.9376,38.8126
11:22:00.906,16.2501,40.1877
11:22:00.909,11.7188,42.5627
11:22:00.939,7.1563,42.5002
11:22:00.941,2.5313,41.9377
11:22:00.945,-2.3125,38.5626
11:22:00.947,-5.9688,38.0001
11:22:00.978,-8.5938,35.6876
11:22:00.978,-13.2813,33.0001
11:22:00.984,-17.3126,31.6251
11:22:00.987,-20.7813,28.4376
11:22:01.004,-23.4688,25.8751
11:22:01.009,-24.6563,24.7501
11:22:01.020,-25.1876,24.1876
11:22:01.028,-25.0313,23.0626
11:22:01.038,-24.3438,21.9376
11:22:01.048,-23.4688,20.9376
11:22:01.058,-19.8438,22.0626
11:22:01.067,-13.6876,24.8751
11:22:01.078,-4.5,29.0626
11:22:01.087,4.6875,32.5626
11:22:01.098,11.5313,35.4376
11:22:01.108,15.0313,36.6876
11:22:01.117,19.0001,38.2501
11:22:01.130,20.9063,40.3752
11:22:01.137,22.6251,40.5627
11:22:01.148,24.2188,42.0627
11:22:01.158,26.3438,42.8127
11:22:01.167,25.5001,42.0002
11:22:01.183,25.4688,42.1252
11:22:01.190,25.6563,41.6252
11:22:01.200,25.5626,40.9377
11:22:01.210,24.7501,41.3752
11:22:01.222,25.1563,41.6252
11:22:01.231,24.9063,41.6877
11:22:01.237,23.9063,41.0002
11:22:01.247,21.3438,40.1877
11:22:01.257,17.8438,39.1877
11:22:01.267,12.7188,39.3126
11:22:01.278,6.9063,37.9376
11:22:01.288,1.1875,34.8751
11:22:01.303,-4.0938,31.1251
11:22:01.312,-9.1563,28.1876
11:22:01.339,-12.125,25.3751
11:22:01.354,-13.6251,21.6251
11:22:01.356,-16.7813,18.7501
11:22:01.371,-21.2813,15.7501
11:22:01.378,-25.5626,14.3751
11:22:01.378,-28.2501,12.375
11:22:01.379,-28.4376,11.25
11:22:01.388,-29.1876,9.875
11:22:01.397,-30.2501,8.9375
11:22:01.408,-30.6564,7.5
11:22:01.417,-30.2189,6.625
11:22:01.429,-25.6251,7.875
11:22:01.438,-17.7813,13.125
11:22:01.447,-6.8438,18.8751
11:22:01.457,3.3125,23.2501
11:22:01.467,10.1875,26.3126
11:22:01.481,15.1251,29.1251
11:22:01.488,19.3438,28.6876
11:22:01.498,21.2813,29.0626
11:22:01.507,22.7188,30.1251
11:22:01.517,23.9688,29.3751
11:22:01.528,24.5001,29.0626
11:22:01.537,25.1563,28.3126
11:22:01.567,24.8438,28.1251
11:22:01.568,25.0626,27.3751
11:22:01.571,24.5626,26.1876
11:22:01.577,24.1251,26.0626
11:22:01.608,23.4063,24.7501
11:22:01.610,21.9688,25.4376
11:22:01.612,21.1563,23.6251
11:22:01.637,18.1876,22.6251
11:22:01.640,14.9063,22.7501
11:22:01.642,11.2188,20.7501
11:22:01.649,6.5,18.8751
11:22:01.682,1.2813,17.0001
11:22:01.684,-3.7188,14.3751
11:22:01.686,-8.5313,11.0625
11:22:01.690,-15.5001,7.3125
11:22:01.719,-19.7813,5.125
11:22:01.722,-22.2188,5.875
11:22:01.723,-19.9063,6.125
11:22:01.729,-17.7501,6.6875
11:22:01.741,-15.9688,7.8125
11:22:01.747,-14.2813,11.9375
11:22:01.758,-12.375,15.3126
11:22:01.768,-10.25,19.1876
11:22:01.778,-7.6875,23.3751
11:22:01.788,-4.4375,28.1251
11:22:01.798,-0.1875,31.4376
11:22:01.808,7.2813,35.7501
11:22:01.817,15.8751,41.2502
11:22:01.827,24.0626,46.1252
11:22:01.837,29.2501,49.2502
11:22:01.847,32.5939,49.9377
11:22:01.859,34.4064,50.8127
11:22:01.867,37.1876,50.5002
11:22:01.878,38.1251,51.0002
11:22:01.888,38.4689,51.1252
11:22:01.898,38.5001,50.4377
11:22:01.907,38.0939,49.8127
11:22:01.918,38.3126,49.1877
11:22:01.930,38.5314,49.4377
11:22:01.938,38.1564,48.5002
11:22:01.947,37.5314,48.2502
11:22:01.958,37.6876,47.6877
11:22:01.967,36.8751,46.5002
11:22:01.978,36.6876,47.1252
11:22:01.987,37.0001,46.5627
11:22:01.998,35.9376,45.5627
11:22:02.007,34.9064,45.7502
11:22:02.017,32.9689,44.9377
11:22:02.027,31.8126,44.5627
11:22:02.038,27.9689,43.4377
11:22:02.048,23.5001,43.8752
