timestamp,Red,IR
12:55:38.192,12.4375,35.5001
12:55:38.194,13.0625,38.8126
12:55:38.203,13.0938,40.0002
12:55:38.213,13.4063,40.5002
12:55:38.224,13.2501,42.1252
12:55:38.233,13.3126,42.1877
12:55:38.243,13.2501,40.6252
12:55:38.253,11.4688,39.0002
12:55:38.264,11,38.0001
12:55:38.273,10.8125,34.5626
12:55:38.285,9.6875,32.0001
12:55:38.294,8.3438,28.9376
12:55:38.303,7.9063,27.4376
12:55:38.313,7.7813,25.5001
12:55:38.324,7.1875,23.8751
12:55:38.333,6.7188,23.0626
12:55:38.345,6.75,22.6251
12:55:38.354,6.0313,24.0001
12:55:38.363,6,22.1876
12:55:38.373,6.2188,22.3126
12:55:38.383,6.3438,21.5626
12:55:38.393,6.0625,20.7501
12:55:38.403,5.5625,20.6876
12:55:38.413,5.9375,20.5626
12:55:38.423,5.7188,18.1251
12:55:38.433,5.4063,19.0001
12:55:38.444,4.625,18.6251
12:55:38.453,5.0938,16.7501
12:55:38.463,4.6563,15.2501
12:55:38.473,4.0938,15.2501
12:55:38.483,4.4063,13.8751
12:55:38.493,4.2188,13.2501
12:55:38.503,3.9688,11.625
12:55:38.522,3.6875,11.6875
12:55:38.529,4.375,10.5
12:55:38.544,3.25,8.75
12:55:38.547,2.5,9.1875
12:55:38.561,2.9688,8.4375
12:55:38.565,3.3125,7.4375
12:55:38.573,2.5,5.8125
12:55:38.583,1.875,4.875
12:55:38.593,1.75,5.1875
12:55:38.613,2.2188,4.375
12:55:38.615,1.4375,3
12:55:38.646,1.1875,1.75
12:55:38.647,0.5938,2.1875
12:55:38.649,1.375,1.625
12:55:38.665,0.8125,0.0625
12:55:38.668,0.2188,-0.625
12:55:38.694,0.1563,-0.75
12:55:38.697,0.0313,-1.25
12:55:38.699,0.1875,-1.625
12:55:38.732,-0.0313,-2.5625
12:55:38.733,0.375,-3.9375
12:55:38.736,-0.0625,-4.75
12:55:38.741,-0.8438,-5.6875
12:55:38.758,-1.3438,-5.5
12:55:38.758,-0.6563,-6.0625
12:55:38.763,-0.6563,-7.875
12:55:38.791,-1,-9
12:55:38.793,-1.9063,-7.9375
12:55:38.795,-1.6875,-9.125
12:55:38.804,-1.1563,-9.9375
12:55:38.813,-1.75,-10.875
12:55:38.823,-1.6875,-11.875
12:55:38.833,-1.625,-10.9375
12:55:38.843,-1.1563,-12.1875
12:55:38.853,-1.5938,-12.875
12:55:38.868,-2.4688,-12.75
12:55:38.878,-2.4063,-14.0626
12:55:38.888,-2.7188,-14.9376
12:55:38.898,-3.25,-15.3751
12:55:38.908,-2.625,-15.5001
12:55:38.918,-2.7813,-16.6251
12:55:38.934,-3.7188,-16.0626
12:55:38.943,-3.1875,-17.1876
12:55:38.953,-3.4063,-18.1876
12:55:38.964,-3.4375,-17.4376
12:55:38.974,-3.375,-18.5001
12:55:38.983,-3.6563,-18.6251
12:55:38.993,-3.5938,-19.5001
12:55:39.004,-3.9375,-19.8126
12:55:39.013,-3.4375,-20.3751
12:55:39.024,-3.8125,-19.7501
12:55:39.033,-3.5625,-20.7501
12:55:39.043,-3.625,-21.6876
12:55:39.054,-4.0313,-20.5626
12:55:39.063,-3.6875,-21.0001
12:55:39.073,-3.5625,-22.2501
12:55:39.086,-3.4063,-21.3126
12:55:39.094,-3.9063,-22.7501
12:55:39.103,-4.125,-22.6251
12:55:39.113,-3.3438,-22.8751
12:55:39.123,-4.2813,-24.0001
12:55:39.133,-5.0313,-23.0626
12:55:39.143,-4.6563,-24.3751
12:55:39.153,-4.2813,-25.3126
12:55:39.166,-4.5625,-25.1876
12:55:39.173,-4.5313,-26.3751
12:55:39.183,-4.875,-25.6876
12:55:39.193,-3.5938,-24.5626
12:55:39.203,-3.5313,-23.1251
12:55:39.213,-2.5,-19.0626
12:55:39.241,-0.6875,-13.5626
12:55:39.244,1.1875,-8.6875
12:55:39.244,3.375,-0.3125
12:55:39.254,5.5313,5.9375
12:55:39.264,6.1563,11.375
12:55:39.273,6.875,15.6876
12:55:39.283,8.1875,18.6876
12:55:39.293,8.7813,21.3751
12:55:39.304,9.25,23.8751
12:55:39.313,9.6563,23.6876
12:55:39.324,10.0938,26.8751
12:55:39.333,10.8438,27.4376
12:55:39.343,10.5625,29.4376
12:55:39.353,10.7188,32.0001
12:55:39.392,11.625,32.0626
12:55:39.397,11.8438,34.8751
12:55:39.398,12.5313,36.1876
12:55:39.399,12.6875,37.3126
12:55:39.405,13.2501,39.9377
12:55:39.473,14.5001,41.7502
12:55:39.476,14.0938,42.6252
12:55:39.543,14.0626,43.2502
12:55:39.547,14.6251,45.9377
12:55:39.547,14.5313,45.7502
12:55:39.547,14.5001,45.5627
12:55:39.547,13.3438,46.1877
12:55:39.548,13.4063,43.5002
12:55:39.557,12.5625,41.5627
12:55:39.557,11.8438,39.0626
12:55:39.569,10.4688,37.9376
12:55:39.573,10.3438,34.2501
12:55:39.584,9.6563,31.8126
12:55:39.593,8.75,29.2501
12:55:39.603,8.375,28.2501
12:55:39.613,8.1875,27.8126
12:55:39.623,7.8438,26.7501
12:55:39.633,7.25,26.0626
12:55:39.643,7.1563,27.1251
12:55:39.653,7,27.1876
12:55:39.663,7.2188,25.1876
12:55:39.673,6.9375,24.8751
12:55:39.683,5.5938,23.0001
12:55:39.693,6.0313,21.6876
12:55:39.703,5.5625,20.1876
12:55:39.714,5.5313,18.8126
12:55:39.723,5.125,17.5001
12:55:39.734,4.6563,16.1251
12:55:39.744,4.1875,17.2501
12:55:39.753,4.5,15.3751
12:55:39.763,4.3125,14.3126
12:55:39.774,3.9688,12.25
12:55:39.784,2.9375,12.75
12:55:39.794,2.9688,11.0625
12:55:39.803,3.75,10.25
12:55:39.814,2.625,8.6875
12:55:39.830,1.9063,8.4375
12:55:39.837,2.25,6.75
12:55:39.851,1.9375,6
12:55:39.853,1.7188,5.875
12:55:39.869,1.0938,4.6875
12:55:39.873,1.9375,3.75
12:55:39.883,1.375,2.4375
12:55:39.893,0.9063,2.625
12:55:39.903,0.5,2.375
12:55:39.913,1.2188,0.875
12:55:39.923,0.4688,-0.5625
12:55:39.933,-0.0313,0.0625
12:55:39.945,-0.0313,-0.625
12:55:39.954,-0.2188,-1.5625
12:55:39.963,0.125,-2.625
12:55:39.974,-0.25,-3.4375
12:55:39.984,-0.5,-4.9375
12:55:39.993,-0.75,-5.5
12:55:40.004,-1.0313,-5.9375
12:55:40.013,-1.3438,-5.9375
12:55:40.023,-0.875,-6.6875
12:55:40.033,-1.6563,-8.1875
12:55:40.064,-2.0625,-8.8125
12:55:40.066,-1.9688,-8.625
12:55:40.069,-1.75,-9.1875
12:55:40.073,-1.0625,-9.5625
12:55:40.083,-1.625,-11.25
12:55:40.112,-1.5938,-10.25
12:55:40.116,-2.375,-11.875
12:55:40.116,-2.3125,-12.375
12:55:40.144,-2.5313,-13.7501
12:55:40.148,-2.375,-14.3126
12:55:40.153,-2.7188,-14.1251
12:55:40.157,-2.9063,-14.4376
12:55:40.165,-2.4688,-14.8126
12:55:40.194,-2.5313,-15.9376
12:55:40.198,-3.4063,-15.5001
12:55:40.203,-3.5313,-17.2501
12:55:40.203,-3.8438,-16.8751
12:55:40.224,-4.125,-17.3751
12:55:40.226,-3.75,-19.1251
12:55:40.233,-3.9688,-19.0001
12:55:40.244,-4.5,-19.7501
12:55:40.255,-4.25,-19.5626
12:55:40.264,-4.375,-21.1876
12:55:40.274,-4.375,-21.1876
12:55:40.283,-4.2188,-21.5626
12:55:40.293,-4.5,-21.5626
12:55:40.303,-4.7188,-21.3751
12:55:40.320,-4.4688,-22.3751
12:55:40.323,-4.5313,-22.8751
12:55:40.333,-4.8438,-23.0001
12:55:40.343,-4.1875,-23.0626
12:55:40.354,-5,-23.0001
12:55:40.363,-4.4688,-23.6251
12:55:40.373,-5.3438,-24.9376
12:55:40.385,-5.9375,-25.1876
12:55:40.395,-5.7188,-24.7501
12:55:40.403,-5.4688,-26.4376
12:55:40.413,-5.7813,-25.4376
12:55:40.423,-5.9688,-26.8126
12:55:40.434,-5.7188,-26.6876
12:55:40.443,-5.5,-26.8126
12:55:40.456,-5.625,-25.8126
12:55:40.463,-4.8438,-23.3126
12:55:40.473,-3.0313,-20.6876
12:55:40.483,-2.2188,-15.5001
12:55:40.494,-0.375,-8.75
12:55:40.522,1.375,-2.6875
12:55:40.524,3.4688,4.6875
12:55:40.526,5.0938,9.375
12:55:40.533,5.8125,13.5001
12:55:40.543,6.9688,17.3751
12:55:40.553,7.7813,19.2501
12:55:40.563,7.8438,22.1876
12:55:40.573,8.125,23.4376
12:55:40.583,8.8125,23.8751
12:55:40.594,8.6563,26.1876
12:55:40.603,8.8125,27.2501
12:55:40.614,9.75,27.8751
12:55:40.623,9.5625,30.6251
12:55:40.633,9.9688,31.3126
12:55:40.643,10.625,32.6876
12:55:40.653,10.9375,34.8751
12:55:40.665,11.8438,36.4376
12:55:40.673,12.3125,37.8751
12:55:40.683,11.9063,38.5001
12:55:40.695,11.875,40.3752
12:55:40.703,12.4375,41.8127
12:55:40.713,12.8125,41.3752
12:55:40.723,12.2188,40.9377
12:55:40.733,11.2813,39.4377
12:55:40.743,10.5313,39.9377
12:55:40.755,10.2813,36.7501
12:55:40.763,9.0938,33.5001
12:55:40.773,8.3438,31.0626
12:55:40.825,7.25,29.5626
12:55:40.836,7.0313,28.0626
12:55:40.839,6.5938,25.2501
12:55:40.871,6.0938,23.3751
12:55:40.873,5.8125,22.5626
12:55:40.873,5.4063,22.3126
12:55:40.873,5.3125,23.0001
12:55:40.875,5.4688,22.1251
12:55:40.883,5.4375,21.5001
12:55:40.885,4.9688,20.3751
12:55:40.889,4.75,19.7501
12:55:40.919,4.6875,20.0626
12:55:40.922,4.9688,18.6876
12:55:40.924,4.3438,17.9376
12:55:40.927,3.6563,16.8751
12:55:40.961,3.625,17.1251
12:55:40.962,3.875,15.8126
12:55:40.964,3.625,14.9376
12:55:40.973,2.9063,13.1876
12:55:40.979,2.8438,12.4375
12:55:40.991,2.5313,11.6875
12:55:40.998,1.875,10.125
12:55:41.008,0.9688,9.4375
12:55:41.018,0.8125,9.3125
12:55:41.028,0.9063,7.75
12:55:41.038,1.1875,6.0625
12:55:41.048,0.6563,4.75
12:55:41.058,0.5938,4
12:55:41.074,-0.2188,3.9375
12:55:41.078,-0.25,3.0625
12:55:41.088,0.0313,1.625
12:55:41.098,-0.6875,0.9375
12:55:41.108,-1,0.4375
12:55:41.118,-0.875,-0.1875
12:55:41.138,-0.2813,-1.4375
12:55:41.144,-1.3125,-2.3125
12:55:41.160,-1.3438,-3.1875
12:55:41.166,-1.7188,-3
12:55:41.177,-1.1563,-4.625
12:55:41.180,-2,-5.6875
12:55:41.189,-2.2813,-4.875
12:55:41.198,-1.4063,-5.75
12:55:41.209,-2.3125,-7.0625
12:55:41.218,-2.5313,-8.1875
12:55:41.228,-3.0313,-8.5625
12:55:41.238,-2.7813,-8.3125
12:55:41.249,-2.9375,-10.625
12:55:41.258,-3.6875,-10.4375
12:55:41.268,-3.5938,-11.375
12:55:41.279,-3.8125,-11.875
12:55:41.289,-4.0313,-11.5
12:55:41.299,-3.8125,-13.4376
12:55:41.308,-4.4375,-14.4376
12:55:41.318,-4.25,-14.5626
12:55:41.328,-4.5313,-15.4376
12:55:41.338,-4.9063,-16.1876
12:55:41.348,-4.4375,-16.8751
12:55:41.358,-4.75,-17.8751
12:55:41.368,-5.0938,-16.5626
12:55:41.379,-5.1875,-18.1876
12:55:41.388,-5.1563,-19.3126
12:55:41.398,-5.0313,-19.0626
12:55:41.409,-5.4375,-20.4376
12:55:41.418,-5.7813,-20.4376
12:55:41.428,-5.1875,-21.0626
12:55:41.438,-5.875,-22.0626
12:55:41.448,-5.8125,-21.0001
12:55:41.458,-5.6875,-22.3126
12:55:41.468,-6.0625,-23.7501
12:55:41.478,-5.9375,-22.6876
12:55:41.489,-6.5313,-24.4376
12:55:41.498,-6.125,-24.4376
12:55:41.508,-6,-24.8126
12:55:41.519,-6.75,-26.0626
12:55:41.529,-7.25,-25.6251
12:55:41.555,-6.5938,-26.3751
12:55:41.557,-7,-27.5626
12:55:41.559,-6.75,-26.8126
12:55:41.589,-6.5313,-27.8751
12:55:41.591,-7.4688,-28.5001
12:55:41.593,-7.7188,-27.3751
12:55:41.601,-6.8438,-28.5626
12:55:41.626,-7.4063,-29.8751
12:55:41.629,-7.75,-29.3751
12:55:41.630,-7.2188,-30.5626
12:55:41.659,-7.2188,-29.3126
12:55:41.663,-7.0313,-30.1251
12:55:41.663,-7.8125,-29.5626
12:55:41.668,-7.4688,-30.6251
12:55:41.678,-7.3125,-31.4376
12:55:41.708,-7.9063,-30.8126
12:55:41.711,-7.2188,-31.1876
12:55:41.713,-7.4688,-31.8126
12:55:41.720,-8.1563,-32.0001
12:55:41.728,-7.3438,-32.5626
12:55:41.738,-7.9688,-33.0001
12:55:41.748,-7.9688,-32.2501
12:55:41.758,-7.4688,-33.1251
12:55:41.769,-7.9688,-31.5001
12:55:41.800,-7.625,-31.3751
12:55:41.803,-6.1563,-29.1251
12:55:41.804,-4.5,-23.5001
12:55:41.808,-2.8125,-18.1876
12:55:41.825,-0.8125,-10.75
12:55:41.828,1.6875,-4.4375
12:55:41.839,2.3438,2.6875
12:55:41.849,4.4688,6.625
12:55:41.858,5.3438,11.8125
12:55:41.868,5.6875,14.3751
12:55:41.879,6.5938,16.2501
12:55:41.888,6.9063,18.0626
12:55:41.899,7.0313,19.6251
12:55:41.909,8.125,21.5001
12:55:41.918,7.4375,22.4376
12:55:41.928,7.6563,24.0001
12:55:41.938,8.3438,24.5626
12:55:41.948,8.2813,27.1876
12:55:41.958,8.9375,27.9376
12:55:41.969,8.7188,29.1876
12:55:41.978,9.3438,30.9376
12:55:41.988,10.3125,32.1876
12:55:41.998,10.1563,34.1876
12:55:42.008,10.2188,36.0626
12:55:42.018,11.1875,36.7501
12:55:42.029,11.25,36.8751
12:55:42.038,10.8438,36.2501
12:55:42.048,10.1875,36.4376
12:55:42.058,10.1875,35.8751
12:55:42.069,9.6875,33.5001
12:55:42.078,8.7188,31.0626
12:55:42.088,7.5938,28.3126
12:55:42.098,6.8125,26.9376
12:55:42.108,6.4375,24.4376
12:55:42.123,5.8438,22.4376
12:55:42.138,5.2813,20.0626
12:55:42.140,4.8438,19.0001
12:55:42.148,4.625,19.6251
12:55:42.158,4.8125,18.7501
12:55:42.168,4.6563,17.8126
12:55:42.178,4.0625,16.5626
12:55:42.188,4.0938,17.1876
12:55:42.198,4.5,17.3751
12:55:42.210,4.5313,16.0001
12:55:42.218,3.625,14.5001
12:55:42.229,3.1563,14.2501
12:55:42.238,3.4063,14.4376
12:55:42.271,3.1875,13.4376
12:55:42.272,3.9688,13.1251
12:55:42.274,3.7188,12.0625
12:55:42.279,2.6563,10.625
12:55:42.309,2.3438,9.5625
12:55:42.311,1.9375,8.5625
12:55:42.313,1.7188,8.5
12:55:42.319,1.6563,7.375
12:55:42.346,1.8438,5.9375
12:55:42.349,1.4063,4.9375
12:55:42.350,1.0938,3.625
12:55:42.358,0.7813,3.8125
12:55:42.391,0.75,2.375
12:55:42.393,0.25,0.9375
12:55:42.395,0.4375,0.3125
12:55:42.399,-0.2188,-1
12:55:42.431,-0.5,-0.9375
12:55:42.432,-0.5313,-1.375
12:55:42.453,-1.25,-3.3125
12:55:42.462,-1.1563,-3.5
12:55:42.465,-0.6563,-3.875
12:55:42.468,-0.8438,-5.25
12:55:42.470,-1.2813,-6.3125
12:55:42.478,-1.9688,-5.3125
12:55:42.488,-1.7813,-5.5625
12:55:42.498,-1.4688,-6.75
12:55:42.508,-1.4375,-7.625
12:55:42.519,-2.0313,-8.5
12:55:42.528,-2.875,-8.5625
12:55:42.538,-2.0938,-9.5
12:55:42.548,-2,-10.4375
12:55:42.558,-2.5,-11.625
12:55:42.574,-3.2188,-10.875
12:55:42.578,-3.125,-12.5625
12:55:42.588,-3.2188,-13.6251
12:55:42.598,-3.0313,-13.5001
12:55:42.608,-3.0938,-14.8751
12:55:42.618,-3.5313,-14.8751
12:55:42.630,-4.0938,-16.0626
12:55:42.638,-3.9375,-16.5626
12:55:42.648,-4.0625,-17.5001
12:55:42.659,-4.3125,-17.3751
12:55:42.669,-4.5938,-18.5626
12:55:42.681,-4.4375,-18.6876
12:55:42.688,-4.1875,-19.3751
12:55:42.698,-5,-20.1251
12:55:42.708,-5.1563,-19.9376
12:55:42.719,-4.9688,-21.5626
12:55:42.728,-5.9375,-21.1251
12:55:42.738,-5.2188,-22.3126
12:55:42.748,-5.5625,-23.4376
12:55:42.758,-5.6875,-22.8751
12:55:42.769,-5.8125,-24.2501
12:55:42.778,-6.1875,-24.4376
12:55:42.788,-5.9063,-25.6876
12:55:42.798,-6.1875,-25.3751
12:55:42.809,-5.6563,-26.3126
12:55:42.818,-6.4688,-26.2501
12:55:42.828,-6.7813,-26.0001
12:55:42.839,-5.9063,-27.3751
12:55:42.848,-6.5938,-26.8126
12:55:42.861,-6.4375,-27.9376
12:55:42.868,-6.4375,-28.6251
12:55:42.878,-6.4375,-27.4376
12:55:42.888,-5.9063,-28.7501
12:55:42.898,-6.375,-28.9376
12:55:42.908,-6.2813,-28.6251
12:55:42.918,-6.125,-29.5001
12:55:42.933,-7.0313,-28.3126
12:55:42.948,-6.25,-29.5001
12:55:42.953,-6.7188,-29.3126
12:55:42.963,-6.5625,-30.1251
12:55:42.973,-6.9063,-31.0001
12:55:42.983,-7.1875,-29.9376
12:55:43.023,-6.6563,-31.8126
12:55:43.026,-7.1563,-30.9376
12:55:43.027,-6.0313,-31.6876
12:55:43.029,-6.5625,-32.1251
12:55:43.033,-7,-31.7501
12:55:43.072,-7.4375,-32.2501
12:55:43.073,-7.2188,-33.5001
12:55:43.079,-7.0938,-32.8126
12:55:43.091,-6.2813,-31.1251
12:55:43.093,-6.1875,-29.6251
12:55:43.095,-3.9063,-23.5626
12:55:43.133,-2.4688,-17.1876
12:55:43.134,-0.4688,-10.9375
12:55:43.139,1.5,-3.9375
12:55:43.143,3.0625,2.5625
12:55:43.145,4.3438,6.625
12:55:43.156,5.0625,12.0625
12:55:43.177,5.8125,13.3126
12:55:43.180,6.2188,15.6876
12:55:43.184,6.5938,18.4376
12:55:43.193,7.125,18.5626
12:55:43.203,7.2188,19.0626
12:55:43.213,7.5,20.5626
12:55:43.223,7.5938,21.6876
12:55:43.233,7.875,23.0001
12:55:43.243,8.1563,24.5626
12:55:43.253,8.5,24.2501
12:55:43.263,8.7813,27.1251
12:55:43.274,9.5,28.1876
12:55:43.283,9.1563,28.9376
12:55:43.293,9.5625,30.4376
12:55:43.303,9.7813,31.3126
12:55:43.315,9.7188,32.6251
12:55:43.323,9.9688,32.1251
12:55:43.338,9.4688,31.9376
12:55:43.348,9.3125,30.7501
12:55:43.358,8.6875,30.4376
12:55:43.368,8.125,27.4376
12:55:43.378,7.4688,25.3751
12:55:43.388,6.6875,23.5001
12:55:43.398,5.8438,21.6251
12:55:43.417,5.25,19.6251
12:55:43.419,4.6875,17.1876
12:55:43.434,4.4375,16.2501
12:55:43.438,4.375,15.6876
12:55:43.448,4,16.0001
12:55:43.458,3.6563,14.8126
12:55:43.468,4.1563,14.1251
12:55:43.478,3.875,14.3126
12:55:43.488,3.6563,13.8126
12:55:43.498,3.9063,13
12:55:43.508,3.75,11.25
12:55:43.518,2.9063,10.8125
12:55:43.528,2.9375,11.25
12:55:43.538,3.4688,10.125
12:55:43.548,2.6563,8.4375
12:55:43.558,2.4063,7.75
12:55:43.568,2.0625,7.4375
12:55:43.578,2.125,6.5
12:55:43.588,2.4688,6.375
12:55:43.598,2.5,5
12:55:43.609,1.4375,3.4375
12:55:43.618,1.0938,2.125
12:55:43.628,0.5313,2.375
12:55:43.638,0.8125,1
12:55:43.648,0.4063,-0.375
12:55:43.658,0.0313,-0.4375
12:55:43.668,0.0313,-0.9375
12:55:43.678,0.375,-2.25
12:55:43.688,-0.125,-2.5625
12:55:43.702,-0.5313,-3.5
12:55:43.708,-0.6563,-3.625
12:55:43.718,-0.7813,-5.4375
12:55:43.760,-0.8125,-5.9375
12:55:43.762,-1.125,-5.8125
12:55:43.764,-1.0625,-6.8125
12:55:43.767,-1.1563,-7.875
12:55:43.769,-1.75,-8.5
12:55:43.802,-1.1563,-9.0625
12:55:43.804,-1.4688,-9.5625
12:55:43.807,-2.3438,-11.6875
12:55:43.811,-2.3438,-10.9375
12:55:43.818,-1.8438,-11.5
12:55:43.855,-2.5,-12.625
12:55:43.857,-2.1875,-12.9375
12:55:43.859,-2.8125,-13.5001
12:55:43.862,-2.5313,-13.4376
12:55:43.868,-3.0313,-15.0001
12:55:43.903,-2.5313,-14.8126
12:55:43.904,-2.8125,-16.1876
12:55:43.907,-3.4063,-15.0001
12:55:43.909,-3.8438,-16.7501
12:55:43.919,-3.3438,-18.0626
12:55:43.928,-4.0313,-17.9376
12:55:43.938,-3.625,-19.3751
12:55:43.950,-4.625,-19.1251
12:55:43.958,-3.8125,-19.8751
12:55:43.968,-4.125,-21.0001
12:55:43.978,-4.5313,-21.0001
12:55:43.988,-4.375,-21.3751
12:55:43.998,-4.875,-22.5001
12:55:44.009,-4.875,-22.4376
12:55:44.018,-4.5625,-23.0626
12:55:44.028,-5,-23.0626
12:55:44.038,-4.8125,-23.8751
12:55:44.048,-5.0625,-25.2501
12:55:44.058,-5.5938,-24.2501
12:55:44.073,-5.6563,-26.1876
12:55:44.080,-5.75,-26.1251
12:55:44.091,-5.875,-26.2501
12:55:44.098,-6.0313,-27.0626
12:55:44.108,-5.9688,-26.6876
12:55:44.118,-5.875,-27.9376
12:55:44.128,-5.6563,-26.6251
12:55:44.139,-5.4063,-27.8126
12:55:44.148,-6.1875,-28.2501
12:55:44.158,-5.125,-28.0626
12:55:44.168,-6.4063,-29.1251
12:55:44.178,-6.5938,-28.0001
12:55:44.188,-6.3438,-29.5626
12:55:44.198,-6.375,-30.6251
12:55:44.208,-6.375,-29.8751
12:55:44.218,-6.875,-30.6251
12:55:44.229,-6.75,-31.1251
12:55:44.239,-6.2813,-31.0626
12:55:44.249,-6.875,-31.0001
12:55:44.258,-6.2188,-31.1876
12:55:44.268,-7,-32.8126
12:55:44.278,-7.5,-32.2501
12:55:44.289,-7.2813,-32.4376
12:55:44.298,-7.125,-33.6251
12:55:44.308,-7.1563,-33.0001
12:55:44.319,-7.0938,-33.0001
12:55:44.330,-6.625,-30.5001
12:55:44.360,-5.3438,-28.5626
12:55:44.362,-4.75,-23.9376
12:55:44.364,-1.5625,-17.8751
12:55:44.368,-0.6875,-11.3125
12:55:44.378,0.7813,-3.5625
12:55:44.388,3.1875,1.4375
12:55:44.398,4.4375,6.8125
12:55:44.408,5.3438,12.0625
12:55:44.439,5.9375,13.9376
12:55:44.442,6.6875,17.9376
12:55:44.443,7.9063,19.3751
12:55:44.449,8.0938,20.1876
12:55:44.475,8.2188,22.0001
12:55:44.477,8.5938,23.6876
12:55:44.479,8.8125,24.9376
12:55:44.490,9.25,26.3751
12:55:44.522,9.8438,27.5001
12:55:44.528,9.9688,29.8751
12:55:44.529,10.5313,30.6251
12:55:44.535,10.375,32.9376
12:55:44.540,11.5,34.2501
12:55:44.569,11.4375,34.3751
12:55:44.570,11.75,37.0001
12:55:44.573,12.0938,37.6876
12:55:44.581,11.5313,37.3751
12:55:44.602,11.5938,38.3126
12:55:44.605,11.8438,38.4376
12:55:44.608,11.4375,37.5001
12:55:44.624,11.2813,35.4376
12:55:44.629,9.75,33.0626
12:55:44.639,9.2188,32.4376
12:55:44.648,9.375,29.3126
12:55:44.658,8.4688,26.8751
12:55:44.668,7.9063,25.2501
12:55:44.678,7.1875,25.3126
12:55:44.688,7.3125,23.6876
12:55:44.698,7.5,22.1251
12:55:44.713,6.7813,22.1876
12:55:44.731,6.3438,22.2501
12:55:44.732,6.9375,22.0001
12:55:44.738,6.9375,20.6251
12:55:44.748,6.2188,19.7501
12:55:44.758,5.9063,20.0001
12:55:44.768,6.125,19.0626
12:55:44.778,5.7188,17.8751
12:55:44.790,5.4688,16.8126
12:55:44.798,5.1563,15.5626
12:55:44.808,4.9375,15.8751
12:55:44.818,5,14.3751
12:55:44.828,4.5,13.5001
12:55:44.839,4.3125,11.9375
12:55:44.848,4,11.0625
12:55:44.858,3.4063,10.75
12:55:44.868,3.2188,10.3125
12:55:44.878,3.4375,9.25
12:55:44.889,3.125,7.8125
12:55:44.898,2.9063,6
12:55:44.908,2.2813,6.875
12:55:44.919,2.5313,5.1875
12:55:44.929,2.25,4.3125
12:55:44.938,1.75,2.9375
12:55:44.948,1.2813,1.875
12:55:44.959,1.4688,1.5625
12:55:44.972,0.9063,1.4375
12:55:44.978,0.7813,0.375
12:55:44.988,0.9063,-0.9375
12:55:45.003,0.4375,-2
12:55:45.008,0.5,-2.625
12:55:45.018,-0.125,-2.9375
12:55:45.037,-0.0313,-2.375
12:55:45.044,0.4063,-3.625
12:55:45.058,0.375,-4.5625
12:55:45.060,-0.1563,-5.6875
12:55:45.068,-0.5938,-6.75
12:55:45.079,-1.2813,-7.5625
12:55:45.089,-1.625,-7.0625
12:55:45.098,-1.6875,-8
12:55:45.108,-1.0625,-8.6875
12:55:45.119,-1.125,-9.75
12:55:45.128,-1.9063,-9.9375
12:55:45.139,-2.0625,-10.6875
12:55:45.148,-1.9063,-10.5625
12:55:45.159,-1.625,-11.25
12:55:45.168,-2.1563,-12.875
12:55:45.178,-2.7188,-12
12:55:45.188,-2.9063,-13.7501
12:55:45.198,-3.1875,-15.1251
12:55:45.208,-3.2813,-14.6876
12:55:45.219,-2.6563,-15.3126
12:55:45.229,-3.0625,-16.0626
12:55:45.267,-3.375,-15.6251
12:55:45.268,-3.0938,-17.1251
12:55:45.272,-3.2188,-17.0001
12:55:45.273,-3.375,-17.3126
12:55:45.280,-2.8438,-18.4376
12:55:45.308,-3.875,-19.1876
12:55:45.310,-4.3125,-19.0626
12:55:45.313,-3.875,-20.4376
12:55:45.319,-3.9688,-20.5626
12:55:45.328,-3.875,-20.0626
12:55:45.360,-3.8438,-21.5001
12:55:45.362,-4.8125,-21.7501
12:55:45.364,-4.5,-22.1251
12:55:45.369,-4.25,-23.1876
12:55:45.405,-4.4688,-22.9376
12:55:45.405,-5,-23.1251
12:55:45.409,-5.25,-25.2501
12:55:45.419,-5.0625,-23.5626
12:55:45.419,-4.875,-24.9376
12:55:45.429,-5.4375,-24.4376
12:55:45.438,-4.8125,-25.0001
12:55:45.449,-5.5938,-25.1876
12:55:45.458,-5.6875,-26.1251
12:55:45.469,-5.5313,-26.1876
12:55:45.478,-5.1563,-25.3751
12:55:45.488,-5.9688,-26.3126
12:55:45.499,-5.875,-25.8751
12:55:45.508,-6.0313,-27.0626
12:55:45.518,-5.75,-27.8751
12:55:45.530,-5.4375,-28.3751
12:55:45.538,-6.0625,-28.8126
12:55:45.548,-6.0625,-28.5001
12:55:45.558,-5.375,-28.5626
12:55:45.568,-5.875,-29.1251
12:55:45.578,-6.1875,-28.0626
12:55:45.588,-5.8438,-28.1251
12:55:45.600,-5.0938,-27.0626
12:55:45.608,-4.3125,-22.9376
12:55:45.639,-1.6563,-17.8751
12:55:45.641,-0.5313,-10.75
12:55:45.644,2.0938,-4.375
12:55:45.650,3.6875,2.5625
12:55:45.658,4.625,9.5625
12:55:45.668,6.3125,13.3126
12:55:45.679,7.5938,16.6876
12:55:45.689,7.8125,20.8751
12:55:45.698,8.7813,22.0626
12:55:45.708,9.0313,24.0626
12:55:45.718,9.25,26.1876
12:55:45.729,9.9688,26.6876
12:55:45.738,10.125,27.8751
12:55:45.748,10.5313,29.8126
12:55:45.758,10.7813,30.6876
12:55:45.769,11,32.3126
12:55:45.779,11.3125,35.6251
12:55:45.794,12.3125,36.0626
12:55:45.798,12.25,36.8751
12:55:45.808,12.5,38.6876
12:55:45.818,13.2188,40.8127
12:55:45.828,13.6251,42.0002
12:55:45.838,13.7813,42.6877
12:55:45.849,13.4376,42.0627
12:55:45.858,12.5938,43.5002
12:55:45.870,12.5938,42.3752
12:55:45.878,12.4688,40.5627
12:55:45.909,11.5313,39.3752
12:55:45.912,10.4688,37.6876
12:55:45.913,9.8125,34.7501
12:55:45.921,9.5938,32.3126
12:55:45.947,9.1875,30.1876
12:55:45.948,8.0625,29.1251
12:55:45.976,7.6563,28.8751
12:55:45.978,7.2813,27.8126
12:55:45.980,7.9375,27.0626
12:55:45.995,7.9063,26.4376
12:55:46.027,7.3125,26.1251
12:55:46.029,7.2188,25.5001
12:55:46.031,7.2813,25.0001
12:55:46.034,7.5625,24.5001
12:55:46.040,7.0625,23.7501
12:55:46.047,6.4688,23.5626
12:55:46.072,6.7188,22.8126
12:55:46.074,6.75,21.8751
12:55:46.075,5.875,19.9376
12:55:46.084,5.4063,20.1251
12:55:46.093,5.2813,19.8751
12:55:46.103,5.125,18.2501
12:55:46.114,4.375,16.1251
12:55:46.123,4.125,16.0626
12:55:46.133,3.875,15.8126
12:55:46.144,4.1563,14.4376
12:55:46.153,3.5938,12.9375
12:55:46.168,3.25,11.3125
12:55:46.174,2.8438,10.6875
12:55:46.183,3.25,10.125
12:55:46.193,2.7188,9.1875
12:55:46.203,2.6875,8.5
12:55:46.213,1.9063,7.3125
12:55:46.223,1.6875,5.8125
12:55:46.233,1.625,5.875
12:55:46.243,1.4375,4.8125
12:55:46.253,0.8438,3.875
12:55:46.263,0.7188,3.125
12:55:46.274,0.6563,2.375
12:55:46.284,0.3125,2.4375
12:55:46.293,0.4375,2.3125
12:55:46.303,0,0.4375
12:55:46.313,-0.3438,-0.5625
12:55:46.325,-0.2813,0.0625
12:55:46.340,-0.3125,-1.4375
12:55:46.354,-0.2813,-2.5
12:55:46.359,-0.7813,-2.875
12:55:46.363,-1.3438,-3
12:55:46.373,-1.3438,-3.8125
12:55:46.384,-1.125,-4.9375
12:55:46.393,-1.1563,-6.3125
12:55:46.403,-1.9375,-5.4375
12:55:46.413,-1.75,-6.75
12:55:46.423,-1.7188,-7.4375
12:55:46.433,-1.6563,-8.625
12:55:46.443,-2.2813,-8.5
12:55:46.453,-2.2813,-8.9375
12:55:46.464,-2.2188,-10.3125
12:55:46.474,-2.6875,-11.5
12:55:46.484,-3.1563,-12
12:55:46.493,-2.6563,-11.9375
12:55:46.504,-3.125,-12.6875
12:55:46.514,-3.4063,-14.4376
12:55:46.524,-3.4063,-13.125
12:55:46.534,-2.9375,-14.4376
12:55:46.547,-3.2813,-15.5626
12:55:46.553,-3.375,-15.4376
12:55:46.564,-4.1563,-16.1251
12:55:46.573,-4.0938,-16.6876
12:55:46.583,-3.75,-17.3126
12:55:46.593,-4.1875,-17.5626
12:55:46.603,-5.2188,-18.0626
12:55:46.615,-4.2813,-19.3751
12:55:46.643,-4.9688,-19.2501
12:55:46.644,-4.5938,-19.4376
12:55:46.644,-4.8125,-21.0001
12:55:46.655,-4.7188,-20.5626
12:55:46.680,-5.125,-21.1251
12:55:46.682,-5.125,-21.5626
12:55:46.685,-4.5938,-21.3751
12:55:46.719,-5.4063,-22.5626
12:55:46.723,-5.75,-22.4376
12:55:46.723,-5.9688,-23.5626
12:55:46.727,-6.25,-22.7501
12:55:46.760,-5.6875,-24.1251
12:55:46.760,-5.7813,-24.8751
12:55:46.762,-6.1563,-23.6251
12:55:46.789,-6.375,-25.0001
12:55:46.789,-6.2813,-25.6876
12:55:46.793,-6.1563,-26.0001
12:55:46.798,-6.4688,-26.0626
12:55:46.806,-7.0938,-26.4376
12:55:46.815,-7.0938,-26.0626
12:55:46.823,-6.375,-25.9376
12:55:46.833,-4.9688,-22.6251
12:55:46.843,-3.5,-18.6876
12:55:46.854,-2.0938,-11.8125
12:55:46.865,0.2188,-5.8125
12:55:46.873,1.9063,1.125
12:55:46.883,3.1563,8.125
12:55:46.893,5.0938,12.5
12:55:46.922,5.9063,16.2501
12:55:46.923,6.6875,20.7501
12:55:46.926,7.625,22.4376
12:55:46.940,7.75,23.8751
12:55:46.948,7.8125,26.4376
12:55:46.958,8.25,27.3751
12:55:46.968,8.8438,29.0001
12:55:46.979,8.8125,30.8751
12:55:46.988,9.5625,31.4376
12:55:46.998,10.125,33.0626
12:55:47.008,10.5625,35.2501
12:55:47.018,10.5938,37.5626
12:55:47.028,11.5313,39.1877
12:55:47.039,11.9688,40.1252
12:55:47.050,12.2188,41.2502
12:55:47.058,11.9688,42.5627
12:55:47.068,12.3125,44.8752
12:55:47.078,12.7813,46.1877
12:55:47.088,13.0313,46.3752
12:55:47.098,12.375,44.9377
12:55:47.108,12.0938,44.8127
12:55:47.118,11.3125,42.9377
12:55:47.128,10.9375,40.2502
12:55:47.138,9.1563,37.2501
12:55:47.149,8.1875,34.8751
12:55:47.158,7.9063,33.8126
12:55:47.168,7.7188,32.0001
12:55:47.179,7.0313,30.1876
12:55:47.189,6.4688,28.6251
12:55:47.199,6.0625,27.9376
12:55:47.208,5.4063,28.0001
12:55:47.218,5.4375,28.0001
12:55:47.228,6.1563,27.2501
12:55:47.238,5.6563,26.0001
12:55:47.249,5.2813,25.8126
12:55:47.258,5.0313,25.3751
12:55:47.268,5.4063,24.8751
12:55:47.279,4.9063,24.2501
12:55:47.288,4.8125,23.0001
12:55:47.307,4,21.6876
12:55:47.313,3.6875,20.8126
12:55:47.323,3.3125,21.2501
12:55:47.328,3.6875,19.7501
12:55:47.360,3.5938,18.1876
12:55:47.392,3.125,17.3126
12:55:47.395,2.4375,16.8126
12:55:47.397,2.4375,16.3751
12:55:47.398,2.4375,14.4376
12:55:47.398,2.4688,13.0625
12:55:47.403,1.7813,12.875
12:55:47.433,1.2813,11.25
12:55:47.434,1.1875,12.25
12:55:47.435,1.8438,10.0625
12:55:47.443,1.1563,8.625
12:55:47.473,0.3438,8.1875
12:55:47.474,0.5,8.125
12:55:47.476,-0.1875,7.8125
12:55:47.486,0.125,6.3125
12:55:47.517,0.6875,5.375
12:55:47.519,-0.1875,4.25
12:55:47.524,0.1875,3.5625
12:55:47.530,-0.3125,3.1875
12:55:47.534,0.1563,2.5
12:55:47.543,-0.2188,1.875
12:55:47.554,-1.25,0.8125
12:55:47.563,-0.875,1
12:55:47.573,-0.9375,-0.8125
12:55:47.583,-1.4063,-1.8125
12:55:47.593,-1.4375,-2.75
12:55:47.604,-1.9688,-2.375
12:55:47.613,-1.8438,-3.3125
12:55:47.635,-2.0938,-4.4375
12:55:47.638,-2.0625,-5.125
12:55:47.647,-2.6563,-6.75
12:55:47.653,-3.5625,-5.75
12:55:47.670,-2.8438,-6.375
12:55:47.685,-2.4688,-7.9375
12:55:47.687,-2.8438,-8.5
12:55:47.694,-3.125,-10.1875
12:55:47.710,-3.3125,-9.5625
12:55:47.713,-2.375,-10.1875
12:55:47.723,-3.0313,-10.5
12:55:47.733,-3.8438,-11.0625
12:55:47.743,-3.3125,-12.25
12:55:47.753,-3.7813,-12.9375
12:55:47.763,-4.25,-13.6251
12:55:47.773,-4.0625,-15.0001
12:55:47.783,-3.9063,-14.8751
12:55:47.793,-3.8438,-15.4376
12:55:47.805,-5.125,-15.7501
12:55:47.813,-5.375,-15.5001
12:55:47.823,-5,-16.8126
12:55:47.834,-5.25,-18.5626
12:55:47.843,-5.125,-18.1251
12:55:47.855,-5.2188,-18.4376
12:55:47.863,-5.6875,-19.3126
12:55:47.873,-5,-19.5626
12:55:47.883,-5.6563,-19.7501
12:55:47.894,-4.8438,-20.6251
12:55:47.905,-5.9063,-21.4376
12:55:47.913,-5.625,-19.6876
12:55:47.923,-5.4688,-21.3751
12:55:47.933,-5.8125,-20.9376
12:55:47.943,-5.9688,-22.3751
12:55:47.954,-6.0625,-23.0001
12:55:47.963,-5.9063,-22.4376
12:55:47.973,-5.7813,-23.1876
12:55:47.983,-6.5,-24.1251
12:55:47.993,-6.7188,-23.0001
12:55:48.003,-5.9688,-25.0001
12:55:48.013,-6.375,-25.3126
12:55:48.024,-6.4375,-24.5626
12:55:48.033,-6.5313,-25.8126
12:55:48.043,-6.8438,-26.4376
12:55:48.053,-6.625,-26.7501
12:55:48.063,-7.3125,-27.4376
12:55:48.073,-7.3438,-25.8751
12:55:48.083,-6.625,-26.0001
12:55:48.094,-5.875,-24.8126
12:55:48.103,-4.9375,-20.1251
12:55:48.132,-2.3438,-14.3751
12:55:48.135,-0.8125,-8.5
12:55:48.137,0.4375,0.1875
12:55:48.143,2.9375,5.875
12:55:48.169,4.375,10.9375
12:55:48.171,5.375,16.1876
12:55:48.174,7.125,19.4376
12:55:48.200,6.6875,21.4376
12:55:48.203,7.2188,24.1876
12:55:48.206,8.125,25.7501
12:55:48.240,8.1563,27.1876
12:55:48.240,8.625,28.9376
12:55:48.243,9.875,30.2501
12:55:48.249,9.3125,30.8751
12:55:48.254,9.5,32.8751
12:55:48.287,10.4375,34.8751
12:55:48.288,10.7813,36.0001
12:55:48.291,10.9063,37.6876
12:55:48.296,12.0938,39.9377
12:55:48.304,12.375,41.5627
12:55:48.313,12.0625,42.8127
12:55:48.323,12.4375,44.7502
12:55:48.333,12.5313,46.6252
12:55:48.343,12.75,45.7502
12:55:48.353,12.3125,45.4377
12:55:48.364,11.75,43.8752
12:55:48.373,10.875,44.0002
12:55:48.383,9.9375,41.2502
12:55:48.394,9.75,38.6876
12:55:48.403,8.5625,36.0626
12:55:48.414,7.9688,35.0001
12:55:48.424,7.5313,33.6251
12:55:48.434,7.4063,32.0001
12:55:48.444,6.9063,30.3126
12:55:48.456,6.3438,29.3751
12:55:48.466,5.7188,29.4376
12:55:48.473,5.9063,29.0001
12:55:48.484,6.0625,27.5626
12:55:48.493,5.6875,26.7501
12:55:48.503,5.7813,27.0001
12:55:48.513,5.9063,26.6251
12:55:48.523,5.0625,25.5626
12:55:48.533,4.5625,24.5626
12:55:48.543,4.2188,23.1251
12:55:48.553,4.0313,22.0626
12:55:48.563,3.5,21.5001
12:55:48.573,3.2188,22.1876
12:55:48.583,3.8125,19.8751
12:55:48.594,3.0313,18.3751
12:55:48.603,2.6563,17.6251
12:55:48.613,2.3125,18.1876
12:55:48.623,2.3438,16.9376
12:55:48.644,2.5938,15.3126
12:55:48.645,1.5,13.6876
12:55:48.661,1.0938,12.75
12:55:48.676,0.9063,14.1251
12:55:48.678,1.8438,12.9375
12:55:48.693,0.875,11.125
12:55:48.695,0.0938,9.625
12:55:48.703,-0.4063,9.4375
12:55:48.713,0.0313,9
12:55:48.723,0.3438,7.75
12:55:48.733,-0.375,6.75
12:55:48.743,-0.3438,5.625
12:55:48.753,-1.375,4.875
12:55:48.763,-1.5625,4.4375
12:55:48.773,-1.3438,5
12:55:48.784,-1.375,2.875
12:55:48.793,-1.4375,1.875
12:55:48.803,-1.875,0.625
12:55:48.813,-2.1563,0.375
12:55:48.825,-2.2813,-0.125
12:55:48.835,-2.5938,-0.8125
12:55:48.871,-3.0938,-1.625
12:55:48.874,-3.2813,-2.25
12:55:48.876,-2.6563,-3.1875
12:55:48.878,-3.1563,-4.375
12:55:48.885,-3.4688,-5.4375
12:55:48.920,-3.9063,-4.75
12:55:48.922,-3.6563,-5.6875
12:55:48.923,-2.9375,-6.75
12:55:49.036,-3.5625,-7.625
12:55:49.036,-4.2813,-8.75
12:55:49.048,-4.1875,-8.6875
12:55:49.051,-3.8438,-9.75
12:55:49.055,-4.4688,-10.6875
12:55:49.055,-4.8438,-11.3125
12:55:49.064,-4.625,-11.5
12:55:49.070,-4.125,-12.0625
12:55:49.079,-5.5938,-13.5001
12:55:49.088,-5.125,-13.3126
12:55:49.098,-5.2188,-14.2501
12:55:49.108,-5.5,-14.3751
12:55:49.119,-5.375,-15.6251
12:55:49.129,-6.75,-15.5626
12:55:49.138,-5.9063,-16.3126
12:55:49.148,-6.2813,-18.0001
12:55:49.158,-6.4063,-17.4376
12:55:49.168,-6.1563,-18.1876
12:55:49.178,-6.375,-19.0001
12:55:49.188,-6.9063,-19.6876
12:55:49.198,-6.9688,-20.1251
12:55:49.214,-6.9063,-20.5626
12:55:49.219,-8.2188,-27.1876
12:55:49.228,-8.5,-25.8751
12:55:49.238,-8.1875,-27.1251
12:55:49.248,-8.1563,-26.6876
12:55:49.258,-7.2188,-25.3126
12:55:49.268,-6.0938,-22.9376
12:55:49.278,-3.25,-16.2501
12:55:49.288,0.1875,-9.75
12:55:49.298,3.5938,-0.875
12:55:49.308,7.0625,10.5625
12:55:49.320,11.7188,18.9376
12:55:49.328,15.2813,27.9376
12:55:49.338,17.8438,34.6876
12:55:49.348,20.2188,40.2502
12:55:49.358,21.6251,44.6877
12:55:49.368,23.0313,48.2502
12:55:49.378,25.5001,53.6252
12:55:49.389,27.4064,57.3127
12:55:49.398,29.4064,62.6252
12:55:49.408,32.1876,68.6878
12:55:49.418,34.8126,73.3128
12:55:49.428,34.9064,75.3128
12:55:49.438,34.0314,77.8753
12:55:49.448,33.9064,79.3128
12:55:49.480,34.2189,82.2503
12:55:49.484,35.1876,83.5628
12:55:49.489,34.9376,85.8753
12:55:49.489,34.6564,86.8753
12:55:49.499,34.6876,89.0628
12:55:49.508,35.7814,90.4379
12:55:49.518,34.6251,90.0628
12:55:49.528,33.8126,89.8128
12:55:49.538,32.5314,89.0628
12:55:49.548,32.2189,88.1253
12:55:49.558,31.2814,85.5628
12:55:49.572,29.6564,84.2503
12:55:49.578,28.8439,80.5003
12:55:49.610,27.9376,79.0003
12:55:49.612,27.6564,77.1878
12:55:49.614,26.6876,76.3753
12:55:49.620,26.2814,74.7503
12:55:49.649,26.3126,73.3128
12:55:49.652,24.8751,72.0003
12:55:49.652,24.6251,71.2503
12:55:49.678,24.0626,69.7503
12:55:49.680,23.9063,69.6253
12:55:49.684,23.5001,68.0628
12:55:49.690,22.6876,67.0003
12:55:49.721,23.0938,66.2503
12:55:49.723,22.3438,66.3753
12:55:49.725,22.1876,65.0627
12:55:49.729,22.0626,63.7502
12:55:49.751,21.0313,62.7502
12:55:49.753,20.7501,61.3127
12:55:49.758,20.6876,59.6877
12:55:49.768,20.1563,57.8752
12:55:49.778,19.9688,56.6252
12:55:49.789,18.8126,55.3127
12:55:49.798,18.9063,54.2502
12:55:49.809,18.6563,53.6252
12:55:49.819,17.7188,52.9377
12:55:49.828,17.8438,50.9377
12:55:49.838,17.2188,50.2502
12:55:49.848,17.0938,49.5627
12:55:49.858,17.0938,49.0627
12:55:49.868,16.8438,46.8127
12:55:49.878,16.0313,47.3752
12:55:49.889,15.7188,45.3127
12:55:49.898,15.7501,45.2502
12:55:49.908,15.3751,42.8752
12:55:49.918,14.8438,41.7502
12:55:49.928,14.5938,40.6877
12:55:49.938,14.1876,40.2502
12:55:49.959,14.8438,39.5002
12:55:49.962,14.4063,38.5626
12:55:49.971,13.7813,37.3751
12:55:49.979,13.9376,36.8126
12:55:49.993,13.1563,36.0001
12:55:50.008,13,35.2501
12:55:50.009,13,34.8751
12:55:50.018,12.5,33.5626
12:55:50.029,12.5,31.7501
12:55:50.038,11.2813,31.0001
12:55:50.048,12,30.6251
12:55:50.058,11.7813,29.3751
12:55:50.068,11.7188,27.8751
12:55:50.078,11.75,27.8751
12:55:50.089,10.6563,26.5626
12:55:50.098,10.7813,26.5626
12:55:50.108,10.3438,26.0001
12:55:50.118,10,23.5626
12:55:50.129,9.6563,23.0626
12:55:50.138,9.5938,21.6251
12:55:50.148,9.75,21.1876
12:55:50.158,9.5625,21.0001
12:55:50.168,9.5,20.0626
12:55:50.178,9,18.8126
12:55:50.188,8.75,17.6876
12:55:50.198,8.8125,17.1876
12:55:50.208,8.4375,16.6876
12:55:50.218,8.625,16.1251
12:55:50.228,8.0938,15.3126
12:55:50.238,7.5625,14.9376
12:55:50.248,8.1563,13.6251
12:55:50.258,7.2813,13.6876
12:55:50.268,7.6563,12.0625
12:55:50.278,7.5625,11.375
12:55:50.288,7.0938,10.75
12:55:50.298,7.5625,10.5
12:55:50.315,7.3125,10.1875
12:55:50.360,6.8125,9.1875
12:55:50.361,7.4688,8.0625
12:55:50.367,6.375,8.1875
12:55:50.367,6.5313,7.375
12:55:50.367,6.4063,7.3125
12:55:50.409,6.4375,5.875
12:55:50.410,6.1875,4.875
12:55:50.412,5.0938,4.625
12:55:50.414,5.5625,4.5625
12:55:50.417,5.8125,3.75
12:55:50.447,5.7188,3.3125
12:55:50.449,5.375,2.3125
12:55:50.451,4.7188,1.6875
12:55:50.453,5.375,0.625
12:55:50.491,5.125,0.875
12:55:50.493,5.2813,0.5
12:55:50.494,5.4688,0.375
12:55:50.508,5.7813,2.0625
12:55:50.510,6.7813,4
12:55:50.518,8.9063,8.4375
12:55:50.523,10.4375,13.7501
12:55:50.534,13.4063,23.8126
12:55:50.543,14.4063,29.6251
12:55:50.553,16.5313,35.4376
12:55:50.563,17.9376,39.3126
12:55:50.573,18.5626,42.7502
12:55:50.583,19.4063,45.5627
12:55:50.593,19.5626,48.2502
12:55:50.603,20.5938,50.6252
12:55:50.613,21.4688,52.9377
12:55:50.623,21.1563,55.3752
12:55:50.633,22.1251,55.9377
12:55:50.643,22.1563,58.0627
12:55:50.653,23.3438,61.0627
12:55:50.663,24.3751,63.7502
12:55:50.673,24.6563,65.4378
12:55:50.683,25.2501,68.8128
12:55:50.693,25.8751,70.0628
12:55:50.703,26.3751,72.5003
12:55:50.713,26.7189,76.0003
12:55:50.723,27.6564,76.1878
12:55:50.733,26.7501,76.8128
12:55:50.760,26.8439,78.4378
12:55:50.763,26.9376,77.5003
12:55:50.764,26.6876,77.3753
12:55:50.773,25.1876,75.6878
12:55:50.783,24.8126,74.8753
12:55:50.794,23.2501,73.8753
12:55:50.804,23.2813,69.8128
12:55:50.813,22.3751,68.0003
12:55:50.823,20.9376,66.1878
12:55:50.833,20.5626,64.3752
12:55:50.844,20.3751,62.6877
12:55:50.854,19.9376,61.5627
12:55:50.863,20.0626,61.3752
12:55:50.873,19.0001,61.3752
12:55:50.883,19.4376,60.8752
12:55:50.893,19.4063,60.0002
12:55:50.903,19.0313,59.0002
12:55:50.913,18.8751,58.0627
12:55:50.924,18.5001,58.5002
12:55:50.933,18.2501,57.5002
12:55:50.943,18.4688,56.5002
12:55:50.954,17.7501,54.7502
12:55:50.963,17.7188,55.6877
12:55:50.973,17.3126,54.0627
12:55:50.983,16.8751,52.4377
12:55:50.993,17.0626,51.3752
12:55:51.003,16.3751,49.9377
12:55:51.014,16.0001,49.9377
12:55:51.048,15.8751,49.5002
12:55:51.049,15.0938,47.0002
12:55:51.052,14.6563,46.0002
12:55:51.060,14.5001,44.7502
12:55:51.086,13.8751,44.0627
12:55:51.088,13.1876,43.0627
12:55:51.090,13.1563,41.4377
12:55:51.100,13.0625,40.3752
12:55:51.129,12.5625,38.7501
12:55:51.131,12.4063,38.5001
12:55:51.133,12.25,36.6876
12:55:51.139,11.5313,37.5626
12:55:51.163,11.625,36.3126
12:55:51.166,11.625,35.2501
12:55:51.194,12.375,34.7501
12:55:51.195,11.2813,33.3126
12:55:51.197,10.9375,31.3751
12:55:51.201,10.9688,32.1876
12:55:51.209,9.9688,30.4376
12:55:51.218,10.2188,29.3126
12:55:51.229,9.6563,28.6251
12:55:51.238,9.6875,27.0001
12:55:51.248,9.625,25.6251
12:55:51.258,8.9375,24.6251
12:55:51.277,8.4063,24.2501
12:55:51.279,8.2813,23.6251
12:55:51.294,8.1563,22.3751
12:55:51.309,7.9375,21.5626
12:55:51.312,7.7188,21.3126
12:55:51.322,7.8125,20.1876
12:55:51.328,7.2188,18.8751
12:55:51.339,7.2188,17.3126
12:55:51.348,7.4375,16.8751
12:55:51.358,6.7813,16.3126
12:55:51.369,6.6563,15.0001
12:55:51.378,6.0313,14.8751
12:55:51.388,6.7188,13.8126
12:55:51.398,6.5,12.125
12:55:51.408,6.3438,12.1875
12:55:51.418,6.4063,11.75
12:55:51.428,5.9688,11.3125
12:55:51.438,5.875,9.9375
12:55:51.448,6.4063,9.5
12:55:51.459,5.5313,8.625
12:55:51.468,5.625,8
12:55:51.478,4.75,8.4375
12:55:51.488,5.6563,7.3125
12:55:51.498,4.9688,5.75
12:55:51.508,4.875,5.3125
12:55:51.519,5,5.625
12:55:51.528,5.0313,5
12:55:51.538,4.4688,3.75
12:55:51.548,4.9375,3.625
12:55:51.558,5.1563,4.25
12:55:51.568,6.0313,3.625
12:55:51.578,5.1563,2.9375
12:55:51.588,4.8125,2.0625
12:55:51.598,4.6875,3
12:55:51.608,5.0313,2.375
12:55:51.629,4.8438,0.9375
12:55:51.639,5.0625,0.75
12:55:51.641,5,1.25
12:55:51.656,5.3438,1.125
12:55:51.672,5.4375,0.75
12:55:51.674,5.7188,0.3125
12:55:51.690,5.4063,0.125
12:55:51.693,5.8438,2.4375
12:55:51.698,7.0625,4.3125
12:55:51.709,8.6563,8.3125
12:55:51.718,10.5313,12.75
12:55:51.729,11.5938,20.5626
12:55:51.738,13.8126,26.1876
12:55:51.748,15.8751,31.3126
12:55:51.758,16.4688,36.1876
12:55:51.768,17.4376,39.2501
12:55:51.778,18.2188,42.3127
12:55:51.788,18.7188,43.9377
12:55:51.814,19.3751,46.5002
12:55:51.816,19.1251,49.8752
12:55:51.819,19.5313,50.6877
12:55:51.853,19.9688,52.0002
12:55:51.857,20.3751,53.7502
12:55:51.859,20.8126,54.8127
12:55:51.860,21.0313,56.1252
12:55:51.899,21.5001,57.3752
12:55:51.901,21.3751,60.1252
12:55:51.904,22.0626,61.5002
12:55:51.910,22.9688,63.5002
12:55:51.911,22.1876,64.8127
12:55:51.950,22.5626,66.5628
12:55:51.951,23.1251,68.5003
12:55:51.955,22.5626,67.6253
12:55:51.956,21.7501,67.0003
12:55:51.958,21.0626,66.1878
12:55:51.976,20.6563,65.6878
12:55:51.979,19.5626,63.1877
12:55:51.988,18.7501,60.1877
12:55:51.998,17.5313,57.6252
12:55:52.013,16.4688,57.1252
12:55:52.042,16.0626,54.3752
12:55:52.042,14.8751,52.2502
12:55:52.044,14.5313,51.1252
12:55:52.048,14.0313,50.6877
12:55:52.059,14.4063,50.1252
12:55:52.068,14.0313,48.4377
12:55:52.078,13.9376,47.3752
12:55:52.089,12.75,46.8752
12:55:52.099,12.8125,47.2502
12:55:52.110,12.2813,45.3752
12:55:52.118,12.2813,43.8752
12:55:52.128,11.8125,43.6252
12:55:52.138,10.8438,43.0002
12:55:52.148,11,41.3752
12:55:52.158,10.4063,39.5002
12:55:52.168,10.1563,39.8752
12:55:52.178,9.4063,37.8126
12:55:52.189,9.4375,36.3751
12:55:52.198,8.8125,35.5001
12:55:52.208,9,33.6876
12:55:52.218,8.5313,33.3126
12:55:52.228,8.125,32.6251
12:55:52.239,8.5,31.0626
12:55:52.248,7.2813,29.2501
12:55:52.259,7.4063,29.0626
12:55:52.268,7.4375,27.9376
12:55:52.278,7.25,26.0001
12:55:52.288,6.7188,25.8126
12:55:52.298,6.5938,25.4376
12:55:52.308,7.375,24.6251
12:55:52.319,7,23.3751
12:55:52.328,6.5625,23.6876
12:55:52.338,6.5938,23.2501
12:55:52.349,6.7813,22.1876
12:55:52.359,6.8125,21.2501
12:55:52.368,6.9375,21.5626
12:55:52.379,6.7813,21.0001
12:55:52.389,6.8438,20.4376
12:55:52.398,6.3125,18.9376
12:55:52.408,6.2188,19.7501
12:55:52.418,6.25,18.9376
12:55:52.428,6.5,17.1251
12:55:52.438,6,16.3751
12:55:52.459,5.4375,17.3751
12:55:52.460,6.0625,16.1251
12:55:52.469,5.75,14.2501
12:55:52.500,5.5938,14.0626
12:55:52.503,4.7813,14.4376
12:55:52.505,4.625,13.5001
12:55:52.508,5.2188,12.6875
12:55:52.542,4.5938,11.4375
12:55:52.544,4.4375,10.3125
12:55:52.545,3.9688,11.25
12:55:52.558,4.1875,10.1875
12:55:52.563,4.0625,9.25
12:55:52.569,3.5938,7.4375
12:55:52.607,3.25,6.625
12:55:52.644,3.2813,7.0625
12:55:52.647,3.25,6
12:55:52.661,3.625,5.9375
12:55:52.675,3.375,4.75
12:55:52.677,2.6563,3.4375
12:55:52.677,1.9063,3.0625
12:55:52.678,1.5625,2.6875
12:55:52.680,1.2188,2.875
12:55:52.690,1.4688,0.6875
12:55:52.699,1.7813,-0.625
12:55:52.708,0.8438,-1.0625
12:55:52.718,0.0625,-0.9375
12:55:52.728,0.5,-2.5
12:55:52.738,1.2188,-3.1875
12:55:52.748,0.4063,-4.4375
12:55:52.765,-0.1563,-4.625
12:55:52.770,-0.2188,-4.4375
12:55:52.778,-0.5,-5.375
12:55:52.788,0.0313,-6.5625
12:55:52.799,-0.1563,-7.25
12:55:52.808,-1.0938,-7.75
12:55:52.819,-0.9063,-9.4375
12:55:52.828,-1.5938,-12.375
12:55:52.839,-1.4375,-13.125
12:55:52.849,-1.875,-12.3125
12:55:52.858,-1.5625,-13.5626
12:55:52.868,-2.2188,-14.3126
12:55:52.878,-1.5625,-14.8751
12:55:52.888,-1.375,-15.6876
12:55:52.898,-2.125,-14.6251
12:55:52.908,-1.625,-13.5001
12:55:52.918,-0.9375,-11.9375
12:55:52.928,0.5625,-7.3125
12:55:52.938,2.7188,-2.0625
12:55:52.956,3.9688,4.625
12:55:52.962,6.7188,11.0625
12:55:52.969,8.2813,16.5001
12:55:52.979,9.6875,21.5001
12:55:52.993,11.125,25.0001
12:55:53.002,11.3125,29.2501
12:55:53.013,12.4688,30.7501
12:55:53.023,12.5,34.1876
12:55:53.033,13.6563,35.2501
12:55:53.043,13.6251,37.2501
12:55:53.053,13.8126,39.9377
12:55:53.063,15.3126,41.7502
12:55:53.073,14.8751,43.4377
12:55:53.083,16.2813,45.3752
12:55:53.093,16.6876,47.3752
12:55:53.103,16.4063,49.5002
12:55:53.113,17.1876,52.2502
12:55:53.123,17.8751,54.5627
12:55:53.140,18.7813,56.1877
12:55:53.145,18.9376,57.7502
12:55:53.153,18.3126,58.5002
12:55:53.165,18.5938,60.3752
12:55:53.185,18.8126,60.0627
12:55:53.189,18.3438,60.5002
12:55:53.221,17.0938,60.6877
12:55:53.224,16.2501,58.0627
12:55:53.226,15.3438,55.3127
12:55:53.228,14.3438,51.6877
12:55:53.234,13.1876,50.8127
12:55:53.266,12.625,48.4377
12:55:53.268,11.8125,46.0627
12:55:53.269,11.5625,44.1252
12:55:53.301,10.6875,43.7502
12:55:53.301,10.3438,42.3752
12:55:53.304,10.625,41.6252
12:55:53.332,10.2813,40.7502
12:55:53.333,9.875,39.3752
12:55:53.333,9.6875,39.6877
12:55:53.352,9.4688,38.6251
12:55:53.352,8.9375,37.3751
12:55:53.358,8.2188,36.4376
12:55:53.368,7.5313,35.2501
12:55:53.378,7.1875,34.7501
12:55:53.388,6.4063,33.9376
12:55:53.398,6.8438,31.9376
12:55:53.408,6.0313,30.8126
12:55:53.418,5.9688,29.2501
12:55:53.428,5.7188,28.7501
12:55:53.438,5.4063,28.2501
12:55:53.448,5.1563,25.4376
12:55:53.459,4.3125,24.0001
12:55:53.468,4.2188,23.2501
12:55:53.478,4.2813,22.8751
12:55:53.489,3.5938,20.6251
12:55:53.498,3.0625,19.3751
12:55:53.508,3.4063,19.5001
12:55:53.521,3.4063,17.5626
12:55:53.529,3.75,16.4376
12:55:53.539,2.5938,14.8126
12:55:53.548,1.7188,13.5626
12:55:53.558,2,13.7501
12:55:53.568,1.4375,12.4375
12:55:53.578,1.9375,10.8125
12:55:53.588,1.2813,9.75
12:55:53.599,0.6875,9.4375
12:55:53.608,0.7813,9.4375
12:55:53.618,0.7813,8.6875
12:55:53.628,1.5625,6.875
12:55:53.639,1,6.8125
12:55:53.648,-0.0625,7.8125
12:55:53.658,0.6563,5.5
12:55:53.669,0.5313,4.5
12:55:53.683,0.3438,3
12:55:53.693,0.0625,4.25
12:55:53.704,0.125,3.8125
12:55:53.718,0.0625,2.625
12:55:53.728,-0.625,2.5625
12:55:53.739,-0.4063,1.5
12:55:53.748,-0.4063,1
12:55:53.758,-0.6563,0.8125
12:55:53.768,-0.625,0.3125
12:55:53.778,0.1875,-0.5625
12:55:53.789,-0.0625,-1.6875
12:55:53.800,-1.125,-0.4375
12:55:53.809,-1.0938,-1.5
12:55:53.818,-0.9375,-2.625
12:55:53.831,-1.3125,-3.4375
12:55:53.838,-1.4063,-3.5
12:55:53.849,-1.4063,-4.75
12:55:53.858,-2.125,-5.375
12:55:53.869,-1.9063,-4.9375
12:55:53.879,-1.4063,-6.6875
12:55:53.889,-2.3125,-7.375
12:55:53.898,-2.6563,-6.0625
12:55:53.908,-2.0625,-8.4375
12:55:53.918,-2.625,-8.375
12:55:53.928,-2.5313,-9.875
12:55:53.944,-2.6875,-10.5625
12:55:53.985,-3.4375,-10.0625
12:55:53.986,-3.3438,-12.0625
12:55:53.988,-3.4063,-11.4375
12:55:54.055,-3.6875,-13.5626
12:55:54.055,-3.3438,-12.875
12:55:54.055,-4.1563,-13.7501
12:55:54.059,-3.8438,-13.6876
12:55:54.065,-4.2188,-15.3751
12:55:54.067,-4.0938,-15.5001
12:55:54.067,-4.625,-16.1876
12:55:54.097,-4.7188,-15.6876
12:55:54.098,-5.125,-17.0626
12:55:54.100,-4.8438,-17.6251
12:55:54.103,-4.5313,-17.8751
12:55:54.118,-5.3125,-18.4376
12:55:54.123,-5.2813,-19.4376
12:55:54.133,-5.0938,-20.4376
12:55:54.143,-5.75,-22.0626
12:55:54.153,-6.0625,-22.1251
12:55:54.163,-6.1875,-22.0001
12:55:54.173,-6.6563,-22.9376
12:55:54.184,-6.2188,-23.1251
12:55:54.193,-5.2813,-20.1876
12:55:54.203,-4.1563,-17.8126
12:55:54.213,-2.7813,-13.8126
12:55:54.223,-1.4688,-8.5625
12:55:54.234,3.7188,9.625
12:55:54.243,4.5313,12.9375
12:55:54.253,5.5313,14.9376
12:55:54.263,5.6563,17.0001
12:55:54.284,6.1563,18.8126
12:55:54.290,6.4375,19.5001
12:55:54.305,6.4063,21.3751
12:55:54.306,7.5938,22.8751
12:55:54.321,7.2813,24.3126
12:55:54.324,8.5938,26.2501
12:55:54.339,8.2813,27.6251
12:55:54.344,8.9063,30.6251
12:55:54.353,9.5313,31.8126
12:55:54.363,10.9063,33.6251
12:55:54.373,10.875,34.5626
12:55:54.385,10.5,37.4376
12:55:54.395,11.3438,39.0626
12:55:54.404,12.1875,40.3127
12:55:54.413,12.0625,40.1877
12:55:54.423,11.4375,41.7502
12:55:54.433,11.0625,40.2502
12:55:54.443,10.9688,38.6876
12:55:54.453,9.8125,37.1251
12:55:54.464,9.0938,34.8751
12:55:54.473,8.0938,32.5001
12:55:54.483,7.6875,30.8126
12:55:54.493,7.2188,31.0001
12:55:54.503,6.2188,29.5626
12:55:54.513,7.0625,28.1251
12:55:54.523,6.0313,26.5626
12:55:54.533,5.9375,26.2501
12:55:54.543,5.7188,27.3126
12:55:54.554,5.75,26.4376
12:55:54.563,5.5938,24.5001
12:55:54.573,5.5,23.9376
12:55:54.601,4.3125,23.6876
12:55:54.603,4.7188,23.0001
12:55:54.605,4.9063,22.1876
12:55:54.613,4.2813,20.9376
12:55:54.623,3.4688,20.8751
12:55:54.634,3.0938,18.9376
12:55:54.644,2.75,17.1876
12:55:54.654,2,16.9376
12:55:54.663,2.3438,15.5001
12:55:54.673,1.875,13.7501
12:55:54.683,0.9063,12.5625
12:55:54.693,1.1563,11.625
12:55:54.703,0.3438,11.625
12:55:54.713,1.2188,10.625
12:55:54.723,0.3438,9
12:55:54.738,-0.1563,8.0625
12:55:54.743,-0.5938,6.625
12:55:54.769,-0.5313,5.625
12:55:54.771,-0.625,4.4375
12:55:54.773,-1.4375,3.25
12:55:54.806,-2.25,2
12:55:54.811,-1.7188,1.5625
12:55:54.811,-2,0.125
12:55:54.813,-2.3438,-1.125
12:55:54.849,-2.9688,-1.625
12:55:54.851,-2.8438,-1.75
12:55:54.855,-2.5938,-2.75
12:55:54.860,-2.6875,-4.1875
12:55:54.874,-3.5625,-5.375
12:55:54.877,-4.1563,-6.3125
12:55:54.905,-4.5,-6.25
12:55:54.909,-4.2188,-7.875
12:55:54.912,-4.375,-9.25
12:55:54.918,-4.75,-8.3125
12:55:54.924,-4.6563,-9.5
12:55:54.934,-4.5625,-10.3125
12:55:54.943,-4.7188,-11.6875
12:55:54.953,-4.9375,-11.125
12:55:54.964,-4.3438,-11.75
12:55:54.972,-4.6875,-12.625
12:55:54.983,-5.4063,-12.375
12:55:54.994,-4.6875,-13.6251
12:55:55.004,-5.0938,-14.4376
12:55:55.013,-4.9688,-13.2501
12:55:55.023,-5,-15.1251
12:55:55.033,-5.2813,-15.7501
12:55:55.044,-4.5625,-15.5001
12:55:55.053,-5.25,-15.7501
12:55:55.063,-4.625,-15.9376
12:55:55.073,-4.625,-16.5001
12:55:55.083,-5.0313,-16.1251
12:55:55.093,-4.2813,-16.8126
12:55:55.108,-4.9063,-15.1251
12:55:55.119,-4.1875,-17.1251
12:55:55.128,-5.0313,-18.2501
12:55:55.138,-4.75,-18.3126
12:55:55.150,-5.125,-18.5001
12:55:55.158,-5.375,-18.4376
12:55:55.169,-4.9688,-18.8751
12:55:55.178,-6,-19.7501
12:55:55.188,-6.2813,-19.5626
12:55:55.199,-5.5625,-20.1251
12:55:55.208,-5.9688,-19.0001
12:55:55.218,-5.0625,-19.8751
12:55:55.229,-5.6875,-19.5626
12:55:55.238,-5.2813,-21.1251
12:55:55.250,-5.5938,-19.6876
12:55:55.258,-4.8125,-21.5626
12:55:55.270,-4.875,-20.3126
12:55:55.278,-4.9063,-20.8126
12:55:55.299,-5,-22.1876
12:55:55.303,-5.2813,-20.9376
12:55:55.311,-4.2813,-20.8751
12:55:55.318,-4.75,-22.1251
12:55:55.334,-5.4375,-21.5626
12:55:55.341,-5.1875,-23.0626
12:55:55.349,-5.4375,-23.3751
12:55:55.359,-5.1563,-22.9376
12:55:55.368,-5.5313,-24.1876
12:55:55.379,-5.6563,-23.3751
12:55:55.388,-4.9688,-23.2501
12:55:55.403,-4.3125,-20.2501
12:55:55.408,-2.5938,-15.9376
12:55:55.418,-1.2813,-12.1875
12:55:55.447,0.3438,-4.875
12:55:55.450,2.375,-0.75
12:55:55.452,2.9688,5.3125
12:55:55.462,4.5625,8.625
12:55:55.492,6,11.5625
12:55:55.494,5.9375,13.8751
12:55:55.498,6,16.8751
12:55:55.503,6.5625,17.8126
12:55:55.508,6.9688,18.7501
12:55:55.538,7.375,20.7501
12:55:55.541,7.7813,21.8126
12:55:55.543,7.8438,23.3751
12:55:55.549,8.4375,24.8126
12:55:55.578,9.5,27.3751
12:55:55.582,9,27.8751
12:55:55.584,10.0313,30.5626
12:55:55.590,13.0625,35.5626
12:55:55.606,14.4063,38.6251
12:55:55.613,13.2813,39.1251
12:55:55.622,13.6876,41.1252
12:55:55.628,16.8126,49.1877
12:55:55.644,20.0626,52.7502
12:55:55.660,18.9376,52.5627
12:55:55.663,16.5001,49.4377
12:55:55.668,13.8126,46.8127
12:55:55.678,12.1875,43.0627
12:55:55.690,10.7813,41.7502
12:55:55.698,10.0313,40.0002
12:55:55.708,8,38.4376
12:55:55.718,6.4375,33.4376
12:55:55.728,4.625,29.6876
12:55:55.738,2.3438,26.0626
12:55:55.748,-0.9375,21.8126
12:55:55.759,-3.0938,18.5626
12:55:55.768,-5.0625,15.6876
12:55:55.779,-6.4688,12.625
12:55:55.789,-8.5313,9.4375
12:55:55.799,-10.1563,8.75
12:55:55.808,-12.1563,5.125
12:55:55.819,-13.8438,1.8125
12:55:55.829,-15.2501,-1
12:55:55.838,-17.4688,-4.5625
12:55:55.849,-19.8751,-8.0625
12:55:55.880,-20.9376,-11.0625
12:55:55.882,-23.0001,-14.4376
12:55:55.884,-24.4376,-16.5001
12:55:55.889,-25.4688,-18.9376
12:55:55.898,-25.9376,-20.6251
12:55:55.908,-27.0626,-23.1876
12:55:55.918,-27.8439,-24.7501
12:55:55.929,-28.9064,-26.6876
12:55:55.938,-29.8439,-29.0626
12:55:55.949,-31.0001,-29.7501
12:55:55.958,-31.9689,-32.5626
12:55:55.969,-32.8751,-35.8126
12:55:55.978,-34.1251,-36.1876
12:55:55.989,-34.4376,-38.8751
12:55:55.999,-36.0314,-40.8752
12:55:56.008,-36.9376,-42.7502
12:55:56.019,-37.6876,-45.1877
12:55:56.028,-38.4376,-46.8127
12:55:56.039,-39.1877,-48.6877
12:55:56.049,-40.1252,-50.1252
12:55:56.058,-41.2189,-51.8752
12:55:56.068,-41.3439,-53.7502
12:55:56.079,-42.5627,-54.1877
12:55:56.088,-42.5314,-56.1252
12:55:56.098,-43.3127,-57.9377
12:55:56.109,-43.9377,-57.7502
12:55:56.118,-43.8439,-59.3752
12:55:56.128,-44.5939,-59.0002
12:55:56.138,-44.5939,-61.0627
12:55:56.154,-45.4377,-61.4377
12:55:56.159,-45.3752,-62.8127
12:55:56.168,-45.7189,-64.6252
12:55:56.178,-45.7189,-64.6877
12:55:56.200,-46.4064,-66.8753
12:55:56.202,-46.4377,-66.2503
12:55:56.209,-46.5002,-68.0628
12:55:56.246,-47.1877,-68.5628
12:55:56.246,-46.7189,-69.5628
12:55:56.248,-47.2814,-70.1253
12:55:56.252,-47.1564,-70.9378
12:55:56.258,-48.0627,-71.5003
12:55:56.294,-47.6564,-72.3753
12:55:56.295,-48.0939,-73.7503
12:55:56.298,-48.8439,-73.8753
12:55:56.299,-48.8752,-74.8128
12:55:56.328,-49.3439,-75.3128
12:55:56.331,-49.0627,-76.3128
12:55:56.334,-49.6877,-75.6253
12:55:56.342,-48.8439,-76.8753
12:55:56.367,-48.9064,-76.5628
12:55:56.371,-48.4064,-77.2503
12:55:56.372,-49.0002,-76.3753
12:55:56.379,-48.2189,-77.9378
12:55:56.388,-48.6252,-77.6253
12:55:56.399,-48.0314,-77.2503
12:55:56.408,-48.1564,-77.9378
12:55:56.418,-47.7189,-78.7503
12:55:56.428,-48.3127,-77.5003
12:55:56.438,-47.3752,-78.3128
12:55:56.448,-47.3439,-78.5003
12:55:56.459,-47.1564,-77.9378
12:55:56.468,-47.1877,-78.3128
12:55:56.478,-47.4689,-79.1253
12:55:56.488,-46.7189,-78.6878
12:55:56.498,-46.5939,-79.0003
12:55:56.509,-47.0627,-77.5003
12:55:56.518,-45.9689,-79.0628
12:55:56.530,-46.5939,-78.4378
12:55:56.539,-45.7502,-78.7503
12:55:56.548,-46.0939,-78.6878
12:55:56.559,-45.8439,-78.8128
12:55:56.569,-46.0627,-79.3753
12:55:56.578,-45.4064,-78.8128
12:55:56.588,-45.3439,-79.0003
12:55:56.598,-45.0939,-79.2503
12:55:56.615,-44.6564,-78.7503
12:55:56.619,-44.3127,-76.6253
12:55:56.634,-43.8752,-75.0003
12:55:56.649,-42.0314,-71.0628
12:55:56.652,-39.5314,-65.9378
12:55:56.668,-38.3751,-59.5627
12:55:56.670,-36.0626,-53.2502
12:55:56.678,-34.5939,-47.5627
12:55:56.689,-32.7814,-40.5627
12:55:56.698,-31.0939,-36.9376
12:55:56.708,-30.2189,-34.0001
12:55:56.719,-29.0626,-31.3126
12:55:56.728,-29.0626,-29.7501
12:55:56.738,-28.2814,-27.1251
12:55:56.748,-27.2814,-25.6876
12:55:56.760,-26.5626,-23.3751
12:55:56.768,-26.3126,-22.6251
12:55:56.778,-26.0001,-20.6876
12:55:56.788,-25.0626,-18.6251
12:55:56.798,-24.0313,-17.1251
12:55:56.808,-23.8751,-16.2501
12:55:56.818,-22.4688,-13
12:55:56.828,-22.5626,-12.1875
12:55:56.838,-21.9376,-9.75
12:55:56.849,-21.5938,-8.6875
12:55:56.858,-20.5938,-8.25
12:55:56.872,-21.0938,-7.625
12:55:56.879,-20.8751,-6.1875
12:55:56.910,-20.5313,-7.875
12:55:56.913,-20.5313,-8.0625
12:55:56.915,-21.0938,-9.5625
12:55:57.046,-21.9063,-11.625
12:55:57.046,-22.8751,-13.7501
12:55:57.069,-22.7813,-15.1876
12:55:57.069,-23.0938,-17.0001
12:55:57.070,-23.7501,-18.0626
12:55:57.071,-23.6563,-19.5001
12:55:57.082,-24.0313,-20.0001
12:55:57.082,-23.3126,-20.5626
12:55:57.090,-23.9063,-20.8126
12:55:57.098,-22.9063,-21.1876
12:55:57.108,-23.6251,-22.1251
12:55:57.118,-24.1876,-21.8126
12:55:57.128,-23.5313,-23.1876
12:55:57.161,-24.0313,-22.5001
12:55:57.163,-23.7813,-23.0001
12:55:57.165,-23.6563,-24.9376
12:55:57.171,-24.1563,-24.2501
12:55:57.179,-23.3126,-25.0626
12:55:57.188,-23.4688,-25.6876
12:55:57.198,-23.9063,-26.4376
12:55:57.210,-28.3751,-39.5627
12:55:57.219,-28.8126,-40.0002
12:55:57.229,-29.2814,-39.5627
12:55:57.238,-28.1251,-40.8127
12:55:57.250,-28.6251,-40.5627
12:55:57.258,-28.0314,-41.5002
12:55:57.268,-28.5626,-40.8127
12:55:57.278,-27.7189,-41.7502
12:55:57.288,-28.4376,-42.5002
12:55:57.298,-27.7189,-42.3127
12:55:57.309,-27.6251,-43.2502
12:55:57.318,-27.5939,-42.3127
12:55:57.328,-27.2501,-43.6877
12:55:57.338,-27.7814,-42.9377
12:55:57.348,-27.5314,-44.1877
12:55:57.358,-27.1564,-43.8752
12:55:57.368,-27.0626,-44.6877
12:55:57.379,-27.3126,-44.9377
12:55:57.388,-26.9064,-45.0002
12:55:57.399,-26.6876,-46.3752
12:55:57.408,-26.5314,-45.3127
12:55:57.420,-26.8751,-46.8752
12:55:57.429,-26.3126,-46.1877
12:55:57.445,-26.5626,-47.1252
12:55:57.448,-25.6251,-47.1252
12:55:57.458,-25.4688,-47.8127
12:55:57.469,-25.8126,-48.1877
12:55:57.478,-25.3438,-48.3127
12:55:57.489,-26.3439,-48.1877
12:55:57.499,-24.8438,-48.0627
12:55:57.508,-25.2813,-48.3127
12:55:57.518,-24.7501,-49.1877
12:55:57.528,-25.0938,-49.5002
12:55:57.538,-24.7501,-49.3752
12:55:57.548,-24.9376,-50.1252
12:55:57.558,-24.5313,-50.3127
12:55:57.569,-24.6251,-50.3752
12:55:57.578,-24.7188,-49.8752
12:55:57.588,-25.0001,-51.4377
12:55:57.599,-24.8438,-50.6877
12:55:57.609,-23.5001,-51.8752
12:55:57.637,-24.4376,-51.8752
12:55:57.642,-23.8751,-52.0627
12:55:57.642,-23.9376,-52.9377
12:55:57.650,-22.9688,-52.1252
12:55:57.675,-23.4376,-54.0002
12:55:57.676,-23.0938,-52.4377
12:55:57.678,-22.5626,-53.1252
12:55:57.721,-23.1251,-53.4377
12:55:57.722,-22.5626,-54.0002
12:55:57.727,-22.2501,-53.8127
12:55:57.757,-22.0313,-54.1252
12:55:57.757,-22.5313,-54.1877
12:55:57.758,-21.8438,-54.1877
12:55:57.760,-22.0001,-54.0627
12:55:57.765,-21.6563,-54.7502
12:55:57.771,-21.5626,-55.4377
12:55:57.785,-21.8126,-54.3127
12:55:57.789,-21.5938,-54.5627
12:55:57.798,-21.3438,-55.5627
12:55:57.808,-20.8126,-55.0627
12:55:57.820,-21.2501,-56.6877
12:55:57.829,-20.9376,-56.5627
12:55:57.838,-20.6876,-56.2502
12:55:57.848,-20.6876,-55.7502
12:55:57.858,-19.4063,-54.8752
12:55:57.868,-19.1876,-52.6877
12:55:57.878,-18.2501,-48.5002
12:55:57.888,-16.4063,-43.8127
12:55:57.898,-13.9688,-37.8126
12:55:57.908,-11.875,-30.4376
12:55:57.918,-10.125,-24.6251
12:55:57.935,-8.4063,-19.0001
12:55:57.942,-7.375,-14.6876
12:55:57.949,-6.1875,-11.875
12:55:57.965,-4.8438,-9.125
12:55:57.969,-4.875,-6.9375
12:55:57.984,-3.6875,-5.1875
12:55:57.990,-3.4375,-3.1875
12:55:57.998,-3.1563,-2.125
12:55:58.010,-2.1563,-0.8125
12:55:58.019,-2.125,1.375
12:55:58.030,-0.9688,3.625
12:55:58.038,0.0313,5.75
12:55:58.048,-0.125,7.375
12:55:58.058,1,8.875
12:55:58.069,1.0313,10.8125
12:55:58.078,2.3125,12.25
12:55:58.088,2.0313,13.4376
12:55:58.098,2.375,14.4376
12:55:58.108,2.5,14.9376
12:55:58.120,1.875,16.2501
12:55:58.129,1.9063,15.1876
12:55:58.139,1.5,13.7501
12:55:58.148,1.1563,12.875
12:55:58.160,0.8438,10.125
12:55:58.169,-0.1875,9.1875
12:55:58.178,-0.8438,5.625
12:55:58.188,-1.2188,5.1875
12:55:58.201,-1.5938,2.3125
12:55:58.208,-2.25,0.5
12:55:58.219,-3.3125,0.25
12:55:58.229,-3.0625,-0.6875
12:55:58.238,-3.0625,-2.0625
12:55:58.249,-3.1563,-2
12:55:58.259,-2.625,-1.9375
12:55:58.269,-3.8125,-4.3125
12:55:58.284,-3.5625,-2.5625
12:55:58.317,-3.3438,-3.5625
12:55:58.349,-3.1563,-4.75
12:55:58.352,-3.7813,-5.9375
12:55:58.354,-4.1875,-4.625
12:55:58.357,-3.8125,-5.8125
12:55:58.362,-4.125,-6.875
12:55:58.362,-4.0313,-7
12:55:58.362,-3.7813,-8.25
12:55:58.393,-4.5938,-10
12:55:58.394,-5.0313,-9.375
12:55:58.397,-5.25,-10.9375
12:55:58.399,-5.0938,-12.25
12:55:58.442,-5.3438,-12.4375
12:55:58.443,-5.9688,-14.3126
12:55:58.445,-6.0313,-14.8751
12:55:58.450,-6.0313,-16.2501
12:55:58.455,-6.5,-16.2501
12:55:58.460,-5.9063,-17.3751
12:55:58.473,-6.75,-18.5001
12:55:58.478,-7.2813,-17.6251
12:55:58.489,-7.0313,-19.4376
12:55:58.498,-6.6563,-19.8751
12:55:58.509,-6.8125,-20.7501
12:55:58.518,-7.5313,-20.8126
12:55:58.528,-6.9375,-21.4376
12:55:58.538,-7.5938,-20.0626
12:55:58.550,-7.4063,-21.8126
12:55:58.558,-7.7813,-23.1251
12:55:58.568,-7.875,-23.9376
12:55:58.579,-7.8125,-24.0626
12:55:58.589,-7.5313,-24.2501
12:55:58.599,-7.6563,-25.1876
12:55:58.609,-7.375,-24.9376
12:55:58.618,-7.8438,-26.6251
12:55:58.629,-7.6875,-26.5626
12:55:58.638,-8,-27.7501
12:55:58.649,-8.4063,-27.3126
12:55:58.658,-8.4688,-28.7501
12:55:58.669,-8.9375,-28.8751
12:55:58.678,-8.5313,-30.2501
12:55:58.688,-8.4688,-30.1876
12:55:58.698,-8.75,-30.6876
12:55:58.708,-8.6563,-31.5001
12:55:58.718,-8.9688,-31.9376
12:55:58.729,-8.9688,-32.7501
12:55:58.738,-9.1563,-32.0001
12:55:58.748,-8.9688,-32.8126
12:55:58.758,-9.2813,-33.8751
12:55:58.767,-9.4688,-33.6251
12:55:58.778,-9.4063,-35.1876
12:55:58.789,-9.0938,-34.0626
12:55:58.799,-9.3438,-35.6251
12:55:58.808,-9.5625,-35.0626
12:55:58.819,-9.875,-37.0001
12:55:58.828,-9.875,-35.8126
12:55:58.838,-9.625,-37.2501
12:55:58.848,-9.6563,-36.1876
12:55:58.858,-9.5938,-37.6251
12:55:58.868,-9.7188,-37.5626
12:55:58.880,-9.6875,-37.5626
12:55:58.888,-8.9688,-38.5626
12:55:58.899,-8.625,-37.8126
12:55:58.908,-9.1563,-38.5626
12:55:58.919,-8.8438,-38.6876
12:55:58.928,-9.375,-38.2501
12:55:58.939,-8.8438,-39.0001
12:55:58.948,-8.875,-39.3126
12:55:58.966,-9.25,-39.8752
12:55:58.969,-8.9688,-40.0627
12:55:58.979,-8.7813,-40.0002
12:55:58.989,-9.375,-40.8752
12:55:58.998,-8.6563,-40.9377
12:55:59.009,-9.2813,-40.6877
12:55:59.018,-8.6875,-41.6252
12:55:59.028,-9.4688,-40.9377
12:55:59.060,-9.4375,-42.2502
12:55:59.061,-9.1875,-42.5002
12:55:59.064,-9.375,-41.4377
12:55:59.070,-8.9375,-41.9377
12:55:59.100,-7.8438,-39.0001
12:55:59.102,-6.9688,-36.4376
12:55:59.104,-5.5625,-30.4376
12:55:59.110,-2.9688,-25.2501
12:55:59.140,-1.6875,-17.3751
12:55:59.145,1.0313,-12.25
12:55:59.145,1.9688,-7.5
12:55:59.151,3,-2.1875
12:55:59.159,4.2188,-0.8125
12:55:59.195,4.875,2.9375
12:55:59.198,5.1875,3.8125
12:55:59.200,5.4063,4.875
12:55:59.206,6.0625,6.875
12:55:59.219,6.0938,7.25
12:55:59.224,7.0313,9.0625
12:55:59.233,7.4063,10
12:55:59.251,7.2813,12.25
12:55:59.254,8.1563,13.9376
12:55:59.269,8.125,13.8126
12:55:59.274,8.4063,15.3751
12:55:59.284,9.0625,16.2501
12:55:59.294,9.1563,18.8751
12:55:59.303,9.2188,20.3126
12:55:59.313,9.7813,20.1251
12:55:59.323,9.4063,21.5001
12:55:59.341,9.5625,21.1251
12:55:59.343,9.25,20.3126
12:55:59.353,8.6875,18.6876
12:55:59.363,8.6563,16.7501
12:55:59.374,7.0313,14.6251
12:55:59.383,6.75,12
12:55:59.393,5.4688,10.5625
12:55:59.405,4.8438,9.5
12:55:59.414,5.0938,7.4375
12:55:59.423,5.0313,5.875
12:55:59.433,4.4375,5.3125
12:55:59.443,4,5.4375
12:55:59.453,4.0938,4.4375
12:55:59.463,3.8125,3.875
12:55:59.473,3.6875,2.875
12:55:59.483,3.2188,2.25
12:55:59.493,3.2813,2.9375
12:55:59.505,3.0938,1.875
12:55:59.514,3.1563,0.6875
12:55:59.523,2.9063,-0.1875
12:55:59.533,2.1563,-0.0625
12:55:59.544,2.0313,-1.375
12:55:59.553,2,-2.4375
12:55:59.564,1.5313,-4.0625
12:55:59.574,1.1563,-3.4375
12:55:59.584,1.375,-5.1875
12:55:59.600,1.375,-5.9375
12:55:59.615,0.9063,-7.3125
12:55:59.618,0.2188,-7.25
12:55:59.624,0.25,-8.1875
12:55:59.633,0,-9.375
12:55:59.645,-0.0313,-10.375
12:55:59.653,-0.625,-11.8125
12:55:59.664,-0.5,-11.5
12:55:59.674,-0.5313,-12
12:55:59.684,-1.0625,-12.9375
12:55:59.695,-1.6563,-13.5001
12:55:59.719,-0.7813,-14.6251
12:55:59.721,-1.6563,-15.7501
12:55:59.724,-2,-15.0001
12:55:59.735,-1.7188,-16.9376
12:55:59.743,-2.1875,-16.3751
12:55:59.753,-2.125,-17.7501
12:55:59.768,-2.3438,-18.4376
12:55:59.775,-2.25,-18.4376
12:55:59.809,-1.5938,-18.9376
12:55:59.810,-2.6563,-20.5626
12:55:59.812,-3,-19.7501
12:55:59.814,-2.6875,-21.1251
12:55:59.851,-3,-20.9376
12:55:59.853,-2.875,-22.0626
12:55:59.857,-3.3438,-23.0626
12:55:59.862,-3.6563,-22.8751
12:55:59.866,-3.4375,-24.1876
12:55:59.894,-3.375,-24.5626
12:55:59.896,-3.3438,-25.1251
12:55:59.899,-4.2188,-25.0626
12:55:59.904,-3.375,-25.6876
12:55:59.935,-4.4375,-26.4376
12:55:59.937,-3.4375,-26.8751
12:55:59.940,-4.0625,-28.0001
12:55:59.946,-4.2813,-27.3126
12:55:59.954,-4.125,-29.0001
12:55:59.964,-4.9063,-29.8126
12:55:59.973,-4.875,-29.7501
12:55:59.984,-4.25,-30.9376
12:55:59.993,-4.5313,-30.0626
12:56:00.005,-4.4688,-30.8751
12:56:00.015,-4.875,-31.7501
12:56:00.024,-4.875,-30.6876
12:56:00.034,-4.1563,-32.4376
12:56:00.044,-4.75,-32.3751
12:56:00.058,-4.5,-33.3751
12:56:00.068,-5.2188,-32.5626
12:56:00.079,-4.625,-33.2501
12:56:00.088,-4.8438,-34.0626
12:56:00.098,-4.5313,-34.6876
12:56:00.111,-5.0938,-35.1876
12:56:00.119,-5.9375,-35.1876
12:56:00.129,-4.8438,-35.1251
12:56:00.138,-5.0625,-35.9376
12:56:00.149,-5.4063,-34.8126
12:56:00.159,-4.6875,-36.8751
12:56:00.169,-5.75,-35.8126
12:56:00.179,-5.25,-36.7501
12:56:00.188,-5.5938,-36.7501
12:56:00.200,-5.625,-37.3126
12:56:00.208,-5.75,-37.0626
12:56:00.218,-6,-38.5626
12:56:00.229,-5.4688,-39.1252
12:56:00.238,-5.0313,-38.1251
12:56:00.248,-5.5313,-39.0626
12:56:00.259,-5.9688,-39.3127
12:56:00.268,-5.25,-39.5627
12:56:00.278,-5.75,-39.6877
12:56:00.289,-5.4688,-39.8127
12:56:00.298,-5.5313,-40.6877
12:56:00.308,-5.8438,-38.7501
12:56:00.319,-4.9375,-38.0001
12:56:00.329,-3.7813,-35.6251
12:56:00.339,-2.125,-30.8126
12:56:00.350,-0.4063,-25.2501
12:56:00.359,1.6875,-17.1876
12:56:00.368,3.1563,-11.4375
12:56:00.379,4.5,-5.125
12:56:00.389,6.9063,-0.5
12:56:00.399,7.6875,4.0625
12:56:00.408,9,6.875
12:56:00.418,8.6875,9.1875
12:56:00.429,9.7813,10.125
12:56:00.439,10.2188,12.125
12:56:00.448,9.9375,14.0626
12:56:00.458,10.8438,14.4376
12:56:00.469,10.5313,16.8751
12:56:00.489,11.0625,16.9376
12:56:00.491,11.9375,18.7501
12:56:00.507,12.375,20.5001
12:56:00.510,12.3125,21.6251
12:56:00.575,12.7813,24.0001
12:56:00.575,13.8126,25.0626
12:56:00.578,14.3126,26.0626
12:56:00.584,13.5001,26.8751
12:56:00.584,13.7188,28.1876
12:56:00.584,14.0313,28.3751
12:56:00.598,13.6251,28.3751
12:56:00.600,13.5313,28.0001
12:56:00.628,12.9375,26.6251
12:56:00.630,11.9063,24.6251
12:56:00.634,10.8125,21.8751
12:56:00.639,9.8125,20.0626
12:56:00.655,9.9688,18.5626
12:56:00.659,8.75,16.4376
12:56:00.674,8.4375,13.7501
12:56:00.679,7.3125,11.625
12:56:00.688,7.3125,11.75
12:56:00.699,7.25,11.25
12:56:00.708,6.7188,10.75
12:56:00.718,6.4063,9.75
12:56:00.728,6.0313,9.4375
12:56:00.738,6.2188,8.5625
12:56:00.749,5.9063,8.5
12:56:00.759,5.4688,7.8125
12:56:00.770,5.4375,5.9375
12:56:00.779,4.9688,4.875
12:56:00.788,4.3438,4.8125
12:56:00.800,4.6875,3.8125
12:56:00.810,4.0625,2.75
12:56:00.818,3.5313,3.25
12:56:00.828,3.75,1.375
12:56:00.838,3.5625,0.375
12:56:00.848,2.9063,-0.9375
12:56:00.858,1.9375,-1.0625
12:56:00.868,2.0938,-2.9375
12:56:00.878,2,-3.8125
12:56:00.895,1.75,-4.5
12:56:00.912,1.5313,-5.125
12:56:00.913,1.5625,-5.5625
12:56:00.918,0.5625,-7.1875
12:56:00.929,0.1875,-7.5
12:56:00.938,-0.0313,-8
12:56:00.948,0.5625,-9.8125
12:56:00.959,-0.25,-11
12:56:00.968,-0.625,-9.5625
12:56:01.000,0.1563,-11.1875
12:56:01.002,-0.5625,-12.6875
12:56:01.004,-0.6875,-13.4376
12:56:01.010,-1.3438,-13.125
12:56:01.020,-1.7188,-13.8126
12:56:01.029,-1.4375,-14.2501
12:56:01.037,-1.625,-15.6876
12:56:01.051,-1.7813,-15.2501
12:56:01.058,-1.3438,-15.5001
12:56:01.069,-2.3438,-16.6876
12:56:01.080,-2.3438,-18.0001
12:56:01.089,-1.9063,-16.8751
12:56:01.098,-2.0313,-18.6876
12:56:01.109,-3.2188,-19.1876
12:56:01.118,-3.4375,-17.6876
12:56:01.128,-2.5313,-20.2501
12:56:01.138,-3.2188,-21.1876
12:56:01.149,-3.3438,-20.6876
12:56:01.159,-3.75,-22.2501
12:56:01.169,-3.9375,-22.4376
12:56:01.179,-4.0625,-23.3751
12:56:01.189,-4.25,-22.9376
12:56:01.199,-4.1563,-24.3126
12:56:01.209,-4.3438,-24.5626
12:56:01.218,-4.7188,-24.6251
12:56:01.229,-4.625,-25.3126
12:56:01.256,-4.3438,-25.1876
12:56:01.258,-4.2188,-26.1251
12:56:01.260,-4.5,-26.1876
12:56:01.294,-5.125,-26.4376
12:56:01.295,-4.9688,-26.8751
12:56:01.300,-4.9688,-26.8126
12:56:01.302,-4.1875,-27.4376
12:56:01.342,-5.3125,-28.7501
12:56:01.343,-5.9375,-27.3126
12:56:01.345,-5.2188,-29.0626
12:56:01.351,-5.4375,-29.5001
12:56:01.351,-5.4063,-28.6251
12:56:01.377,-5.5625,-28.9376
12:56:01.380,-5.2813,-28.8751
12:56:01.382,-5.25,-30.0001
12:56:01.390,-5.9063,-30.0626
12:56:01.414,-5.1563,-30.5001
12:56:01.417,-5.7188,-30.3126
12:56:01.419,-5.9063,-30.3126
12:56:01.434,-5.7188,-30.7501
12:56:01.440,-6.0938,-31.1251
12:56:01.448,-5.4688,-31.9376
12:56:01.458,-6,-32.1876
12:56:01.469,-6.2188,-32.3126
12:56:01.480,-6.0938,-32.5001
12:56:01.490,-6.3438,-32.8126
12:56:01.498,-6.625,-34.6251
12:56:01.509,-6.0938,-33.7501
12:56:01.518,-6.8125,-34.7501
12:56:01.528,-6.4063,-34.4376
12:56:01.538,-7.2188,-35.0001
12:56:01.548,-6.25,-34.8751
12:56:01.557,-6.375,-32.0001
12:56:01.569,-5.0313,-29.2501
12:56:01.579,-3.2813,-25.6876
12:56:01.589,-1.5625,-19.0001
12:56:01.599,0.4375,-13.1251
12:56:01.608,2.125,-5.875
12:56:01.619,3.7813,-0.875
12:56:01.629,5.375,4.625
12:56:01.640,6.2188,7.3125
12:56:01.649,6.6563,10.1875
12:56:01.658,7.2813,12.0625
12:56:01.668,6.9375,13.5001
12:56:01.679,8.1875,14.8751
12:56:01.689,7.6875,15.1876
12:56:01.699,8.1875,16.5001
12:56:01.709,8.4375,17.3126
12:56:01.719,8.75,18.0626
12:56:01.728,9.6563,19.5626
12:56:01.738,9.4063,21.0626
12:56:01.749,9.875,22.2501
12:56:01.757,9.9375,23.6251
12:56:01.768,10.25,24.7501
12:56:01.779,10.4063,26.5626
12:56:01.789,11.0313,26.8126
12:56:01.798,10.875,28.3126
12:56:01.809,11.1563,28.0001
12:56:01.818,10.8438,26.4376
12:56:01.829,10.1563,24.6876
12:56:01.849,9.125,24.2501
12:56:01.851,8.125,21.8751
12:56:01.867,7.3438,18.5626
12:56:01.869,6.4688,18.4376
12:56:01.880,6.3125,15.8751
12:56:01.889,5.9063,14.2501
12:56:01.899,5.1563,13.1251
12:56:01.908,4.6563,12
12:56:01.918,4.625,11.8125
12:56:01.929,4.5938,11.5625
12:56:01.938,4.75,10.1875
12:56:01.947,3.8438,10.3125
12:56:01.959,4.375,9.75
12:56:01.968,4.0625,9.375
12:56:01.979,3.5625,8.125
12:56:01.988,3,7.875
12:56:02.009,2.8438,7.1875
12:56:02.012,2.5313,5.75
12:56:02.044,2.5625,5.25
12:56:02.047,2.4063,4.125
12:56:02.048,1.7188,3.0625
12:56:02.050,1.7813,2.875
12:56:02.080,1.7188,1.9375
12:56:02.083,1.0938,0.6875
12:56:02.084,1.3438,0.25
12:56:02.090,0.5313,-0.3125
12:56:02.118,0.125,-1
12:56:02.121,0.4063,-2.625
12:56:02.123,0.375,-2.625
12:56:02.130,0.0625,-3.625
12:56:02.158,-0.3438,-4.6875
12:56:02.161,-0.6875,-6
12:56:02.163,-1.0313,-6.1875
12:56:02.193,-0.8125,-5.8125
12:56:02.195,-0.9688,-7
12:56:02.211,-1.2813,-8.5625
12:56:02.215,-1.625,-8.3125
12:56:02.215,-1.4375,-9.125
12:56:02.219,-1.9688,-10.125
12:56:02.227,-1.8438,-10.8125
12:56:02.239,-2.2813,-10.5
12:56:02.249,-2.375,-12.1875
12:56:02.279,-2.8438,-13.125
12:56:02.282,-2.5938,-12.375
12:56:02.284,-2.0625,-13.5626
12:56:02.288,-3.0938,-14.2501
12:56:02.299,-2.9688,-14.8126
12:56:02.309,-3.8438,-16.4376
12:56:02.320,-3.6875,-16.1251
12:56:02.329,-3.625,-16.5626
12:56:02.339,-3.7188,-17.8751
12:56:02.348,-3.75,-18.6876
12:56:02.359,-4.25,-19.8751
12:56:02.369,-4.5,-19.6876
12:56:02.380,-3.9063,-20.0001
12:56:02.388,-4.8125,-20.5001
12:56:02.399,-5.4375,-20.4376
12:56:02.409,-5.1563,-22.9376
12:56:02.418,-5.375,-21.4376
12:56:02.429,-5.25,-23.0626
12:56:02.439,-5.3438,-24.0001
12:56:02.447,-5.1563,-23.8751
12:56:02.459,-6.1875,-24.6251
12:56:02.469,-6.0938,-25.0626
12:56:02.478,-5.9688,-25.1876
12:56:02.489,-6.0625,-26.1876
12:56:02.498,-5.9063,-26.1876
12:56:02.508,-6.125,-26.8751
12:56:02.519,-6.625,-26.4376
12:56:02.528,-6.125,-27.8751
12:56:02.540,-6.5938,-27.3751
12:56:02.549,-6.5313,-28.1251
12:56:02.564,-6.4063,-29.5626
12:56:02.569,-6.25,-29.4376
12:56:02.579,-6.0625,-29.4376
12:56:02.589,-7.0625,-30.1251
12:56:02.597,-6.8438,-29.3126
12:56:02.609,-6.75,-30.5001
12:56:02.618,-7.1563,-29.5626
12:56:02.629,-6.8438,-30.1251
12:56:02.639,-6.5313,-31.5626
12:56:02.648,-6.75,-31.0626
12:56:02.658,-6.4688,-31.6251
12:56:02.668,-6.9688,-31.8126
12:56:02.679,-7.5,-31.1876
12:56:02.689,-6.8125,-32.6876
12:56:02.700,-7.2813,-32.6876
12:56:02.710,-7.0938,-32.2501
12:56:02.723,-7.6875,-33.3126
12:56:02.728,-7.1563,-33.3751
12:56:02.756,-7.7813,-34.3126
12:56:02.759,-7.7188,-33.3751
12:56:02.761,-7.5938,-34.8126
12:56:02.792,-7.1875,-33.5001
12:56:02.793,-7.4063,-34.0001
12:56:02.795,-7,-31.5626
12:56:02.799,-5.2188,-29.0001
12:56:02.829,-4.375,-23.8751
12:56:02.831,-1.7188,-17.3126
12:56:02.834,0.1563,-10.25
12:56:02.840,1.875,-4.5
12:56:02.870,3.9063,2.9375
12:56:02.872,5.3125,7.1875
12:56:02.874,5.5625,11.25
12:56:02.880,7.2813,14.3751
12:56:02.897,7.6563,15.9376
12:56:02.899,7.8438,19.1876
12:56:02.910,8.1563,19.0626
12:56:02.919,8.6875,20.1251
12:56:02.929,9.6875,22.8126
12:56:02.939,10.0313,23.6251
12:56:02.948,9.9063,25.2501
12:56:02.960,10.4063,26.6876
12:56:02.970,11.5313,28.1876
12:56:02.979,11.5,31.1251
12:56:02.988,12.0313,32.0626
12:56:02.998,12.625,32.6876
12:56:03.009,12.625,34.8751
12:56:03.018,12.7188,35.8126
12:56:03.028,13.6563,37.0626
12:56:03.038,13.2188,36.3751
12:56:03.048,13.0313,38.0626
12:56:03.061,13.3751,36.8751
12:56:03.069,12.5938,35.5626
12:56:03.078,11.4375,33.7501
12:56:03.088,10.9375,32.6876
12:56:03.100,10.2813,29.9376
12:56:03.109,9.2813,26.9376
12:56:03.119,8.1875,24.5626
12:56:03.128,7.4063,24.3751
12:56:03.145,7.7813,21.6251
12:56:03.148,7.625,20.8126
12:56:03.163,7.0313,20.0626
12:56:03.169,6.8125,20.5001
12:56:03.178,6.75,19.5626
12:56:03.189,6.0313,18.5626
12:56:03.199,6.125,18.5001
12:56:03.210,5.5,16.7501
12:56:03.224,5.0938,17.1876
12:56:03.233,5.625,17.0626
12:56:03.244,5.2813,15.3126
12:56:03.254,4.625,14.8126
12:56:03.263,4.375,15.0001
12:56:03.273,4.9688,13.5001
12:56:03.284,3.9688,12.625
12:56:03.294,3.8125,11.4375
12:56:03.303,3.25,10
12:56:03.318,3.375,9.0625
12:56:03.323,2.8438,8.9375
12:56:03.334,2.625,8.5
12:56:03.343,2.25,6.4375
12:56:03.353,1.8438,5.3125
12:56:03.364,1.9063,6
12:56:03.374,1.25,4.1875
12:56:03.383,1.25,3.375
12:56:03.393,0.9375,1.8125
12:56:03.404,0.625,-0.0625
12:56:03.413,0.3438,0.4375
12:56:03.423,0.7813,-0.5625
12:56:03.434,-0.0625,-1.8125
12:56:03.443,-0.75,-3.375
12:56:03.454,-1.125,-2.5
12:56:03.464,-0.3438,-3.875
12:56:03.473,-0.5313,-4.8125
12:56:03.536,-1.2188,-5.875
12:56:03.537,-1.4375,-5.625
12:56:03.540,-0.9688,-6.4375
12:56:03.568,-1.4688,-6.9375
12:56:03.568,-1.5938,-7.75
12:56:03.568,-2.3438,-7.5
12:56:03.569,-1.5625,-8.5
12:56:03.571,-1.9063,-9.25
12:56:03.578,-2.4688,-9.1875
12:56:03.586,-2.3125,-10.75
12:56:03.613,-2.8125,-11.5625
12:56:03.616,-3.0313,-11.6875
12:56:03.618,-3.375,-13.2501
12:56:03.624,-2.875,-14.0626
12:56:03.651,-2.5938,-14.3751
12:56:03.653,-3.9375,-14.6876
12:56:03.656,-3.8125,-15.3126
12:56:03.669,-3.7813,-16.1876
12:56:03.673,-4.1563,-17.0626
12:56:03.684,-4.375,-17.0001
12:56:03.694,-4.6875,-17.3751
12:56:03.704,-4.875,-18.7501
12:56:03.714,-5,-19.2501
12:56:03.725,-4.8438,-20.0626
12:56:03.734,-5,-20.3126
12:56:03.743,-5.6563,-21.5001
12:56:03.754,-5.5938,-20.6876
12:56:03.764,-5.4063,-21.6251
12:56:03.776,-5.1563,-23.0626
12:56:03.784,-5.875,-22.6876
12:56:03.793,-5.9063,-24.5626
12:56:03.804,-5.7188,-23.9376
12:56:03.816,-5.9688,-25.0001
12:56:03.823,-5.9375,-24.7501
12:56:03.834,-6.0313,-25.9376
12:56:03.843,-6.5313,-25.8126
12:56:03.854,-6.5625,-27.0626
12:56:03.868,-6.7813,-27.4376
12:56:03.873,-6.6563,-27.6251
12:56:03.883,-7,-27.5626
12:56:03.894,-6.7813,-27.4376
12:56:03.903,-6.0938,-28.0626
12:56:03.914,-6.4063,-28.0001
12:56:03.924,-6.1875,-27.8126
12:56:03.934,-5.8438,-28.0626
12:56:03.944,-5.4688,-26.3126
12:56:03.954,-4.625,-26.1876
12:56:03.964,-3.5,-24.6251
12:56:03.973,-1.0938,-22.6876
12:56:03.985,0.4688,-20.0626
12:56:03.994,1.875,-15.4376
12:56:04.004,3.9063,-15.3126
12:56:04.014,4.9063,-12.8125
12:56:04.024,6.9063,-10.9375
12:56:04.034,8.0938,-9.5
12:56:04.045,8.875,-6.875
12:56:04.054,10.3438,-4.5625
12:56:04.066,13.5001,-1
12:56:04.075,16.1251,6.5625
12:56:04.083,18.1876,9.5
12:56:04.094,17.9063,13.1251
12:56:04.104,19.5313,19.8126
12:56:04.115,21.5001,24.8126
12:56:04.123,23.3751,32.1876
12:56:04.134,25.7501,38.4376
12:56:04.144,26.0626,43.8752
12:56:04.153,27.2189,48.3752
12:56:04.192,28.6564,51.5002
12:56:04.192,29.2814,53.8127
12:56:04.195,30.3751,55.2502
12:56:04.196,30.3751,58.7502
12:56:04.228,31.1564,59.4377
12:56:04.231,31.6876,60.4377
12:56:04.232,32.0939,62.7502
12:56:04.234,33.0001,63.1877
12:56:04.266,32.8126,65.0002
12:56:04.268,33.0001,66.7503
12:56:04.271,34.3439,69.1253
12:56:04.298,34.8751,70.5628
12:56:04.300,34.9064,71.3753
12:56:04.300,34.9064,72.9378
12:56:04.308,35.2814,75.8753
12:56:04.314,36.5314,76.4378
12:56:04.339,36.0001,76.0628
12:56:04.341,36.1876,76.4378
12:56:04.344,35.4064,77.3128
12:56:04.354,34.6564,76.7503
12:56:04.364,34.5626,74.2503
12:56:04.376,34.0314,72.1253
12:56:04.383,33.6876,69.6878
12:56:04.393,31.5314,67.3753
12:56:04.404,31.0001,66.0628
12:56:04.415,30.8751,63.8127
12:56:04.424,29.7189,61.2502
12:56:04.444,29.5314,59.5002
12:56:04.459,29.7501,59.2502
12:56:04.461,28.0001,59.0627
12:56:04.476,28.0314,57.0002
12:56:04.479,27.4064,56.8127
12:56:04.484,27.4064,55.0627
12:56:04.493,26.7501,54.6877
12:56:04.503,26.0001,54.5627
12:56:04.514,26.7501,52.7502
12:56:04.523,25.5938,52.6877
12:56:04.533,25.6876,51.7502
12:56:04.544,24.8438,49.9377
12:56:04.556,25.0938,49.9377
12:56:04.565,25.3126,48.6877
12:56:04.574,24.4376,47.4377
12:56:04.584,23.8126,46.6877
12:56:04.594,23.4063,46.5627
12:56:04.605,23.1876,44.8752
12:56:04.614,22.7188,44.4377
12:56:04.625,22.4376,43.1877
12:56:04.633,22.9063,42.8752
12:56:04.644,22.2813,42.3127
12:56:04.655,22.2188,41.6877
12:56:04.664,22.0938,41.1252
12:56:04.675,21.1876,39.9377
12:56:04.684,20.8751,38.6876
12:56:04.693,20.0313,37.0626
12:56:04.704,20.1876,36.5626
12:56:04.714,20.1876,36.1876
12:56:04.724,19.5313,34.2501
12:56:04.734,19.5001,34.2501
12:56:04.744,19.5938,33.7501
12:56:04.754,18.8126,33.1251
12:56:04.764,18.8126,32.8126
12:56:04.784,18.5938,31.4376
12:56:04.790,19.0001,30.2501
12:56:04.805,18.3751,29.8126
12:56:04.809,18.2501,29.4376
12:56:04.843,17.2501,28.4376
12:56:04.845,16.7188,27.6251
12:56:04.848,16.8438,26.3126
12:56:04.855,15.6876,25.1876
12:56:04.857,15.7188,24.2501
12:56:04.864,15.8126,23.9376
12:56:04.874,14.6876,23.0626
12:56:04.886,14.6876,22.1876
12:56:04.921,13.9063,20.3126
12:56:04.923,14.0313,19.7501
12:56:04.924,13.8438,19.6876
12:56:04.954,13.7188,18.6876
12:56:04.955,13.8751,18.1251
12:56:04.958,13.9063,18.4376
12:56:04.964,13.5313,16.4376
12:56:04.965,12.625,16.6251
12:56:04.974,12.6875,15.2501
12:56:05.003,13.0313,14.5001
12:56:05.005,11.625,14.2501
12:56:05.008,11.3438,13.3751
12:56:05.015,12.4063,12.75
12:56:05.044,11.5625,11.1875
12:56:05.048,11.2188,10.875
12:56:05.049,11.2813,11.0625
12:56:05.055,11.2188,9.75
12:56:05.066,11.3438,8.75
12:56:05.074,10.25,7.9375
12:56:05.084,10.5938,7
12:56:05.093,9.75,8.125
12:56:05.103,10.0938,6.6875
12:56:05.114,10.2813,5.8125
12:56:05.123,9.6875,4.9375
12:56:05.134,9.5,4.125
12:56:05.143,8.7813,4.3125
12:56:05.155,9.0625,3.875
12:56:05.164,9.75,3.9375
12:56:05.175,9.3125,2.625
12:56:05.184,8.6563,3.875
12:56:05.194,9.125,3.3125
12:56:05.203,9.125,2.9375
12:56:05.214,10.0625,2.6875
12:56:05.224,9.875,2.0625
12:56:05.233,10.1875,2.8125
12:56:05.243,10.0625,2.75
12:56:05.255,10.625,2.6875
12:56:05.264,10.25,1.5625
12:56:05.274,10.0938,1.5
12:56:05.284,10.375,1.375
12:56:05.295,10,2.125
12:56:05.304,10.9063,1.5625
12:56:05.314,10.625,1.0625
12:56:05.324,10.3125,1.1875
12:56:05.333,10.1875,3.5
12:56:05.344,11.625,5.6875
12:56:05.354,13.2188,9.5625
12:56:05.364,14.5001,14.8126
12:56:05.374,15.9063,20.5626
12:56:05.383,17.6876,27.8751
12:56:05.395,19.5938,32.1876
12:56:05.404,20.5938,36.3126
12:56:05.414,21.5938,39.8127
12:56:05.423,22.1876,42.5627
12:56:05.434,22.3751,45.0627
12:56:05.443,22.9376,47.0627
12:56:05.455,22.9688,47.9377
12:56:05.464,23.6251,49.1252
12:56:05.473,22.7813,50.8127
12:56:05.483,23.8126,52.5627
12:56:05.495,24.0001,52.6252
12:56:05.504,23.7188,53.8127
12:56:05.514,23.9688,55.5002
12:56:05.523,24.1563,57.8752
12:56:05.534,24.3751,59.8752
12:56:05.545,24.7501,59.8752
12:56:05.554,24.6563,61.0627
12:56:05.568,25.1251,62.7502
12:56:05.574,24.6251,63.8752
12:56:05.584,25.5001,63.0627
12:56:05.592,24.5938,62.4377
12:56:05.603,23.2813,61.1877
12:56:05.614,22.4376,61.5002
12:56:05.624,21.7813,58.1877
12:56:05.633,20.5938,55.6877
12:56:05.644,19.4688,52.2502
12:56:05.654,18.8126,50.4377
12:56:05.673,18.0001,49.3752
12:56:05.675,17.1563,47.6877
12:56:05.709,17.3126,45.8752
12:56:05.711,16.2188,45.0002
12:56:05.713,16.4063,44.3127
12:56:05.716,16.1251,44.2502
12:56:05.752,15.5313,44.1252
12:56:05.755,15.5001,43.1877
12:56:05.789,15.3751,42.5627
12:56:05.825,15.9376,41.7502
12:56:05.826,15.4063,40.4377
12:56:05.826,14.7501,39.3752
12:56:05.848,14.7188,39.4377
12:56:05.863,14.7813,37.7501
12:56:05.865,13.7188,36.8126
12:56:05.868,13.7501,36.6251
12:56:05.868,12.9688,36.4376
12:56:05.868,12.9375,35.2501
12:56:05.870,12.5938,34.1251
12:56:05.879,12.4688,32.5626
12:56:05.889,12.75,32.0001
12:56:05.898,12.4688,30.6876
12:56:05.908,12.375,30.3751
12:56:05.920,12.25,29.7501
12:56:05.929,12.2188,30.1876
12:56:05.941,12.0938,29.1251
12:56:05.949,11.625,29.0001
12:56:05.959,11.5938,28.0001
12:56:05.971,12.3125,27.8751
12:56:05.980,12.1563,26.6251
12:56:05.989,11.9375,27.0001
12:56:05.999,11.4063,26.4376
12:56:06.009,11.6875,24.6251
12:56:06.018,11.9688,24.5626
12:56:06.029,11.5938,23.3751
12:56:06.039,11.0938,22.8751
12:56:06.049,11.3125,23.3751
12:56:06.058,11.7813,22.0626
12:56:06.069,10.4688,20.8126
12:56:06.081,9.9688,19.8751
12:56:06.126,9.4063,20.2501
12:56:06.127,9.75,18.8751
12:56:06.141,9.1563,17.1251
12:56:06.145,8.5938,17.5626
12:56:06.152,8.5625,16.0001
12:56:06.152,8.5625,14.8751
12:56:06.153,7.3438,13.4376
12:56:06.164,7.6563,13.5001
12:56:06.176,7.4688,14.0001
12:56:06.184,7.4688,11.75
12:56:06.193,6.9375,10.6875
12:56:06.203,6.4063,10.3125
12:56:06.214,6.8125,10
12:56:06.224,5.875,8.4375
12:56:06.234,5.375,7.5
12:56:06.244,5.3125,7.6875
12:56:06.253,5.9375,7.125
12:56:06.265,6.2813,5.875
12:56:06.274,5.25,4.9375
12:56:06.284,4.7813,3.4375
12:56:06.294,4.7188,3.125
12:56:06.304,4.2813,2.5
12:56:06.318,4.5,2
12:56:06.324,3.9375,0.375
12:56:06.357,3.5313,0.5625
12:56:06.358,3.7188,0.1875
12:56:06.360,4.5313,-0.375
12:56:06.365,4,-1.1875
12:56:06.397,3.3438,-3
12:56:06.397,3.125,-2.6875
12:56:06.400,2.7188,-2.375
12:56:06.405,3.4063,-3.5625
12:56:06.433,3.2813,-4.25
12:56:06.434,2.4688,-5.9375
12:56:06.435,2.4375,-5.75
12:56:06.464,2.1875,-5.4375
12:56:06.465,3.125,-6.25
12:56:06.468,2.75,-7
12:56:06.474,2.2188,-8.375
12:56:06.512,1.8438,-7.5
12:56:06.514,2.4688,-6.875
12:56:06.517,2.4375,-7.25
12:56:06.519,2.1563,-7.5
12:56:06.526,1.9063,-8.9375
12:56:06.533,2.4375,-9.0625
12:56:06.544,2.75,-7.0625
12:56:06.554,4.2813,-6.4375
12:56:06.563,4.6563,-6.9375
12:56:06.574,4.1875,-6
12:56:06.584,4.5,-6.875
12:56:06.594,4.3438,-7.3125
12:56:06.606,4.375,-6.5
12:56:06.614,4.25,-7.4375
12:56:06.623,4.7188,-7.5625
12:56:06.634,3.8438,-8.25
12:56:06.644,4.1875,-6.75
12:56:06.654,4.4063,-7.25
12:56:06.664,5.0938,-6.5
12:56:06.673,5.9063,-3.8125
12:56:06.684,6.125,2.125
12:56:06.693,9.2813,6.875
12:56:06.703,10.4688,12.4375
12:56:06.714,12,20.2501
12:56:06.724,14.0313,24.6251
12:56:06.735,14.5626,28.7501
12:56:06.744,15.3751,33.5626
12:56:06.753,16.7813,36.1251
12:56:06.764,17.1876,37.5626
12:56:06.776,17.3751,40.7502
12:56:06.783,17.8438,41.1252
12:56:06.794,18.0626,42.1877
12:56:06.804,18.2813,42.6877
12:56:06.814,18.0313,45.3127
12:56:06.823,19.0001,46.5002
12:56:06.833,18.8751,47.3127
12:56:06.844,19.0001,49.0627
12:56:06.855,19.0626,51.9377
12:56:06.863,20.5938,52.5002
12:56:06.873,20.0313,53.6252
12:56:06.884,20.3126,55.0002
12:56:06.895,20.2813,56.4377
12:56:06.904,20.4688,58.3127
12:56:06.914,20.9376,57.6252
12:56:06.923,19.9063,57.5002
12:56:06.933,19.8126,57.6252
12:56:06.945,19.7188,55.6252
12:56:06.954,18.8126,53.1877
12:56:06.964,17.4063,51.0002
12:56:06.976,16.5626,49.5627
12:56:06.984,16.5313,47.3752
12:56:06.993,15.0313,44.7502
12:56:07.004,14.0938,42.3127
12:56:07.014,14.1876,41.7502
12:56:07.024,14.5001,40.8752
12:56:07.034,13.4376,40.1877
12:56:07.044,12.8125,38.8126
12:56:07.056,12.5,38.1251
12:56:07.070,12.5938,38.3126
12:56:07.075,12.5313,37.8751
12:56:07.084,13.1563,36.9376
12:56:07.093,12.6563,36.5626
12:56:07.104,12.0625,35.5001
12:56:07.114,12.3125,35.0626
12:56:07.128,11.9688,35.3126
12:56:07.152,11.375,34.2501
12:56:07.216,11.3438,33.3751
12:56:07.248,10.5313,31.3126
12:56:07.249,10.1563,30.3126
12:56:07.254,10.0938,29.7501
12:56:07.254,10.4063,30.9376
12:56:07.254,10.5,30.5626
12:56:07.259,10.6875,29.0626
12:56:07.290,10.625,28.5001
12:56:07.293,10.5625,29.0626
12:56:07.296,11.0938,27.8751
12:56:07.299,10.6563,27.2501
12:56:07.310,10.875,25.8751
12:56:07.324,10.5,25.0001
12:56:07.335,10.1563,23.9376
12:56:07.344,9.625,23.6251
12:56:07.354,8.4375,23.5626
12:56:07.364,8.8125,22.3751
12:56:07.373,9.0313,21.3126
12:56:07.400,8.8125,20.7501
12:56:07.402,8.4688,19.6876
12:56:07.404,7.9688,19.4376
12:56:07.418,7.2813,17.7501
12:56:07.433,6.2813,13.5626
12:56:07.436,5.3438,12.4375
12:56:07.453,5.75,11.4375
12:56:07.466,5.8125,10.5625
12:56:07.469,4.9375,10
12:56:07.477,4.875,9.6875
12:56:07.484,5.0625,9.5625
12:56:07.494,4.5,8.75
12:56:07.504,4.7188,7.4375
12:56:07.514,4.5625,5.625
12:56:07.524,3.7813,6.6875
12:56:07.534,4.9063,5.6875
12:56:07.544,3.7813,5
12:56:07.554,3.6875,3.4375
12:56:07.564,3.75,2.1875
12:56:07.574,3.9375,3.25
12:56:07.584,3.5938,1.9375
12:56:07.594,3.1875,1
12:56:07.603,3.1875,0.0625
12:56:07.614,3.5,-0.4375
12:56:07.624,3,-0.5
12:56:07.634,2.9688,-1
12:56:07.643,2.125,-0.8125
12:56:07.654,2.9375,-3
12:56:07.664,2.7188,-4.4375
12:56:07.676,2,-4.75
12:56:07.687,2.0625,-5.625
12:56:07.694,1.375,-5.3125
12:56:07.704,1.1563,-6.125
12:56:07.714,1.6875,-7.375
12:56:07.724,1.375,-8.1875
12:56:07.734,1.25,-8.1875
12:56:07.744,1.2813,-8.4375
12:56:07.754,1.6875,-7.8125
12:56:07.768,2.3438,-8.75
12:56:07.774,1.0938,-9.4375
12:56:07.784,1.5313,-9.8125
12:56:07.794,0.9688,-9.0625
12:56:07.804,1.9063,-10.4375
12:56:07.820,1.4375,-11.1875
12:56:07.824,1,-10
12:56:07.854,1.5313,-10.3125
12:56:07.857,0.5938,-11.8125
12:56:07.859,0.3125,-12.4375
12:56:07.865,0.8438,-11.9375
12:56:07.893,1,-12.5625
12:56:07.896,1.1875,-12.5
12:56:07.898,1.9688,-10.875
12:56:07.904,2.0625,-11.75
12:56:07.931,1.9688,-11.75
12:56:07.933,2.5313,-10.625
12:56:07.935,2.6563,-10.125
12:56:07.969,3.125,-6.9375
12:56:07.972,5.1563,-2.3125
12:56:07.974,6.9688,2.8125
12:56:07.977,8.4375,9.875
12:56:07.983,10.5938,16.3751
12:56:08.009,12.0625,21.8126
12:56:08.011,13.6876,25.5001
12:56:08.014,14.1876,29.8126
12:56:08.024,15.3438,32.8126
12:56:08.034,15.6876,34.5626
12:56:08.044,15.3751,37.5001
12:56:08.054,16.0313,37.9376
12:56:08.064,16.4376,38.2501
12:56:08.074,16.1876,39.8127
12:56:08.084,16.9063,40.8752
12:56:08.094,16.5313,42.3127
12:56:08.103,16.8751,42.3127
12:56:08.114,16.5626,44.2502
12:56:08.124,16.7501,45.3127
12:56:08.134,16.9376,46.5002
12:56:08.144,17.2501,46.6252
12:56:08.153,18.1251,49.8752
12:56:08.167,18.2813,50.1877
12:56:08.176,17.5938,50.4377
12:56:08.183,17.3751,50.0002
12:56:08.195,17.4376,51.1252
12:56:08.204,17.0626,49.8127
12:56:08.214,16.5626,48.2502
12:56:08.224,15.1876,47.6252
12:56:08.234,15.0313,44.9377
12:56:08.244,14.1876,42.5002
12:56:08.254,13.4688,40.8752
12:56:08.264,13.0313,38.3126
12:56:08.274,12.5,36.1876
12:56:08.284,12.2813,34.4376
12:56:08.294,11.4688,34.3126
12:56:08.304,11.8438,33.0001
12:56:08.314,11.4375,32.2501
12:56:08.324,11.1875,31.1251
12:56:08.335,10.6563,30.9376
12:56:08.343,10.5625,30.1876
12:56:08.355,10.625,29.1251
12:56:08.364,9.9688,28.4376
12:56:08.374,9.7813,26.8126
12:56:08.384,9.5313,27.4376
12:56:08.394,9.875,27.0626
12:56:08.404,9.75,25.5001
12:56:08.414,9.1563,24.8126
12:56:08.425,8.7813,24.7501
12:56:08.435,8.625,23.5001
12:56:08.444,8.875,22.6876
12:56:08.454,8.2188,21.2501
12:56:08.465,7.625,21.0626
12:56:08.475,7.8125,19.6876
12:56:08.485,7.75,18.0626
12:56:08.529,6.5938,17.9376
12:56:08.563,6.625,16.9376
12:56:08.632,6.75,15.3751
12:56:08.637,6.7813,15.5001
12:56:08.637,7,15.1251
12:56:08.637,6.6563,15.7501
12:56:08.638,7.75,15.4376
12:56:08.638,7.0625,14.3751
12:56:08.671,6.6875,13.5626
12:56:08.672,6.6563,13.5626
12:56:08.672,6.75,12.6875
12:56:08.673,6.8125,11.5625
12:56:08.675,6.0313,12.125
12:56:08.693,6.5938,10.875
12:56:08.694,6.0313,9.875
12:56:08.694,6.0625,9.3125
12:56:08.706,5.3125,8.75
12:56:08.714,4.9375,7.4375
12:56:08.724,4.6875,7.1875
12:56:08.735,4.4063,5.8125
12:56:08.753,4.3438,5.25
12:56:08.759,3.75,4.25
12:56:08.769,2.9375,1.1875
12:56:08.776,2.1875,0.4375
12:56:08.790,2.4688,0.5
12:56:08.796,1.8438,-0.5625
12:56:08.808,2,-1.75
12:56:08.816,1.4063,-4.1875
12:56:08.827,0.9688,-5.375
12:56:08.833,0.875,-5.1875
12:56:08.843,0.4063,-5.75
12:56:08.858,0.8125,-5.9375
12:56:08.864,0.5,-7.5625
12:56:08.873,0.125,-7.875
12:56:08.886,0.0313,-7.6875
12:56:08.895,0.1875,-8.625
12:56:08.904,0.0625,-10.0625
12:56:08.914,0.3125,-10.375
12:56:08.924,0.0313,-11.6875
12:56:08.934,-0.4063,-12.25
12:56:08.944,-0.75,-11.0625
12:56:08.954,-0.8125,-11.4375
12:56:08.966,-0.375,-13.125
12:56:08.975,-0.6563,-13.8751
12:56:08.984,-1.1563,-14.1876
12:56:08.993,-0.625,-15.3126
12:56:09.004,-1.0938,-15.8126
12:56:09.014,-1.4688,-17.0001
12:56:09.024,-1.4063,-17.3126
12:56:09.034,-1.6563,-16.8751
12:56:09.044,-1.4375,-18.1251
12:56:09.055,-1.5625,-16.9376
12:56:09.064,-1.4063,-17.7501
12:56:09.078,-1.8438,-19.3751
12:56:09.084,-1.375,-17.7501
12:56:09.094,-1.0625,-19.1876
12:56:09.105,-1.4375,-18.6876
12:56:09.116,-2.1563,-19.0626
12:56:09.126,-1.6875,-20.0626
12:56:09.134,-2.375,-21.3126
12:56:09.144,-2.5,-21.0626
12:56:09.154,-1.6875,-20.8751
12:56:09.164,-1.7188,-21.3751
12:56:09.174,-1.7188,-21.7501
12:56:09.184,-1.0625,-19.6876
12:56:09.194,-0.1875,-19.8126
12:56:09.204,0.0938,-17.8751
12:56:09.216,1.2188,-16.0001
12:56:09.225,2.5313,-12.9375
12:56:09.234,4.1563,-7.5
12:56:09.244,6.25,-2.1875
12:56:09.254,8.0625,6
12:56:09.264,9.9688,11.625
12:56:09.274,11.6875,17.0001
12:56:09.285,13.0625,23.2501
12:56:09.294,14.2813,25.7501
12:56:09.329,14.6251,29.0001
12:56:09.332,15.0313,30.2501
12:56:09.334,15.5001,33.0001
12:56:09.336,16.0938,33.6876
12:56:09.367,16.5313,35.2501
12:56:09.369,17.0313,36.5001
12:56:09.372,16.8126,37.4376
12:56:09.374,17.1563,39.4377
12:56:09.410,17.7188,40.9377
12:56:09.412,18.4688,42.1877
12:56:09.414,18.6563,44.0627
12:56:09.420,18.6251,46.6252
12:56:09.451,19.8751,48.1252
12:56:09.453,20.2188,48.8752
12:56:09.455,19.9063,49.7502
12:56:09.458,19.7188,50.1252
12:56:09.464,19.2188,51.2502
12:56:09.490,18.9376,51.3127
12:56:09.493,18.7188,50.0627
12:56:09.495,18.1876,47.8127
12:56:09.504,16.8126,46.6252
12:56:09.514,16.1251,45.6877
12:56:09.524,17.0626,43.5627
12:56:09.534,18.9688,45.0002
12:56:09.545,20.2813,46.4377
12:56:09.554,22.6251,48.7502
12:56:09.564,20.8126,45.3127
12:56:09.574,19.5938,43.3127
12:56:09.584,19.0313,42.3127
12:56:09.594,20.9063,44.1252
12:56:09.605,21.6876,44.6252
12:56:09.614,20.4376,43.6877
12:56:09.623,19.0313,41.8127
12:56:09.634,17.2501,39.9377
12:56:09.644,15.3126,34.8751
12:56:09.654,12.5313,30.8751
12:56:09.665,11,27.9376
12:56:09.675,9.2813,26.2501
12:56:09.685,7.8438,23.3126
12:56:09.697,6.8438,19.7501
12:56:09.705,5.2188,17.1251
12:56:09.714,2.9375,13.3751
12:56:09.724,1.0625,11.875
12:56:09.734,-0.4375,8.0625
12:56:09.744,-1.5313,4.375
12:56:09.754,-3.7188,1
12:56:09.765,-5.0313,-1.4375
12:56:09.774,-6.0625,-3.125
12:56:09.784,-6.9063,-5.9375
12:56:09.794,-7.75,-9.0625
12:56:09.804,-9.9063,-10.75
12:56:09.814,-11.0625,-13.9376
12:56:09.824,-12.125,-16.3751
12:56:09.834,-13.3126,-19.4376
12:56:09.846,-14.8751,-21.3126
12:56:09.854,-16.1563,-23.3751
12:56:09.874,-17.0938,-26.0626
12:56:09.876,-17.6251,-28.7501
12:56:09.892,-18.9063,-31.0626
12:56:09.894,-20.0626,-33.0001
12:56:09.909,-21.1876,-34.2501
12:56:09.915,-21.9688,-37.8126
12:56:09.924,-22.7501,-39.0001
12:56:09.937,-22.9376,-40.1877
12:56:09.960,-23.8751,-41.3752
12:56:09.963,-24.7188,-41.3127
12:56:09.965,-25.0626,-44.1252
12:56:09.975,-26.0001,-46.1877
12:56:10.014,-26.7814,-47.0627
12:56:10.016,-26.3126,-48.1252
12:56:10.020,-27.5939,-50.0002
12:56:10.020,-28.4064,-50.0627
12:56:10.024,-28.6251,-52.3752
12:56:10.058,-29.5939,-54.3752
12:56:10.061,-29.3751,-54.2502
12:56:10.063,-30.1251,-56.3752
12:56:10.097,-31.5626,-57.0627
12:56:10.098,-31.8126,-57.9377
12:56:10.162,-31.5314,-59.6252
12:56:10.163,-32.0626,-60.5002
12:56:10.166,-33.0001,-60.9377
12:56:10.166,-33.1876,-63.0002
12:56:10.170,-33.6876,-63.8752
12:56:10.179,-33.7501,-64.6877
12:56:10.189,-34.0314,-65.6878
12:56:10.202,-34.7501,-66.5003
12:56:10.210,-35.0314,-67.2503
12:56:10.219,-35.0626,-68.6878
12:56:10.229,-35.0314,-68.1878
12:56:10.239,-35.0001,-69.3128
12:56:10.249,-35.7189,-70.1253
12:56:10.259,-36.3126,-70.9378
12:56:10.270,-35.4689,-71.5628
12:56:10.279,-36.4064,-72.3753
12:56:10.289,-35.9376,-72.2503
12:56:10.299,-35.9376,-72.9378
12:56:10.309,-36.5939,-73.2503
12:56:10.319,-36.8439,-74.3753
12:56:10.329,-40.6252,-81.9378
12:56:10.339,-40.8127,-83.1253
12:56:10.351,-40.3752,-82.2503
12:56:10.359,-40.6564,-82.8753
12:56:10.370,-40.5002,-82.5628
12:56:10.380,-40.5314,-82.8128
12:56:10.389,-40.4064,-83.0003
12:56:10.399,-39.7189,-82.2503
12:56:10.409,-40.0002,-82.8128
12:56:10.421,-39.9377,-82.8128
12:56:10.429,-39.8439,-82.3753
12:56:10.439,-39.3751,-83.1253
12:56:10.449,-38.9376,-81.5628
12:56:10.459,-38.4064,-80.8128
12:56:10.469,-38.1251,-78.9378
12:56:10.480,-36.3439,-75.3753
12:56:10.491,-35.4064,-70.7503
12:56:10.500,-33.0001,-63.4377
12:56:10.509,-31.3751,-55.8127
12:56:10.519,-28.7814,-51.5627
12:56:10.529,-27.3439,-45.8127
12:56:10.539,-26.5001,-41.0627
12:56:10.550,-24.7501,-37.8126
12:56:10.560,-24.2188,-34.5001
12:56:10.569,-23.8126,-32.9376
12:56:10.579,-23.2501,-29.8126
12:56:10.589,-22.6876,-29.4376
12:56:10.599,-22.6563,-27.9376
12:56:10.611,-21.9063,-26.1251
12:56:10.621,-21.3126,-23.9376
12:56:10.629,-21.5001,-23.0626
12:56:10.639,-20.3751,-20.7501
12:56:10.651,-19.9376,-20.0001
12:56:10.660,-19.7813,-17.4376
12:56:10.669,-19.1251,-16.8751
12:56:10.679,-18.5626,-13.7501
12:56:10.689,-18.2188,-13.3751
12:56:10.700,-17.5938,-12.1875
12:56:10.711,-18.0001,-11.4375
12:56:10.719,-17.4688,-10.5
12:56:10.733,-17.8751,-10.625
12:56:10.762,-17.9376,-10.0625
12:56:10.764,-18.3126,-12.375
12:56:10.767,-18.8438,-14.1876
12:56:10.769,-19.7188,-14.2501
12:56:10.810,-20.1563,-17.5626
12:56:10.810,-20.5313,-19.7501
12:56:10.815,-21.0313,-20.6251
12:56:10.815,-20.9688,-22.1251
12:56:10.821,-21.8126,-21.4376
12:56:10.829,-21.2188,-23.5001
12:56:10.862,-21.5001,-23.2501
12:56:10.864,-21.9376,-23.8126
12:56:10.867,-22.0001,-24.5626
12:56:10.869,-21.1876,-24.2501
12:56:10.898,-22.0001,-23.5626
12:56:10.901,-21.9063,-25.0001
12:56:10.904,-21.3438,-26.0001
12:56:10.909,-21.7188,-25.3126
12:56:10.919,-21.5938,-26.8126
12:56:10.929,-22.2188,-26.1876
12:56:10.939,-21.8126,-27.8751
12:56:10.950,-21.7813,-28.0626
12:56:10.961,-22.1563,-28.5001
12:56:10.969,-22.6876,-28.1251
12:56:10.979,-22.7188,-28.5626
12:56:10.989,-22.0938,-30.1876
12:56:10.999,-22.4376,-29.5001
12:56:11.009,-22.7813,-30.9376
12:56:11.019,-22.6563,-31.8751
12:56:11.030,-22.2813,-31.6876
12:56:11.039,-22.2188,-32.6251
12:56:11.049,-22.7501,-32.5001
12:56:11.059,-22.6876,-33.5626
12:56:11.069,-22.5313,-34.0626
12:56:11.079,-23.5001,-33.7501
12:56:11.089,-22.8438,-35.5001
12:56:11.101,-22.9688,-35.6876
12:56:11.109,-22.5626,-35.3126
12:56:11.119,-22.9376,-36.7501
12:56:11.129,-22.7501,-35.8126
12:56:11.139,-22.6876,-37.4376
12:56:11.150,-22.4688,-36.8751
12:56:11.161,-23.2188,-38.1251
12:56:11.177,-22.8438,-37.9376
12:56:11.179,-22.6251,-38.4376
12:56:11.194,-22.6876,-38.6876
12:56:11.200,-22.3751,-39.1876
12:56:11.211,-23.2501,-40.1877
12:56:11.239,-23.7501,-38.7501
12:56:11.242,-23.2188,-40.0627
12:56:11.244,-23.3438,-40.9377
12:56:11.249,-22.5938,-40.9377
12:56:11.260,-23.3126,-41.6252
12:56:11.269,-22.3751,-41.1877
12:56:11.279,-22.6563,-41.4377
12:56:11.289,-22.6563,-42.4377
12:56:11.299,-23.2188,-42.9377
12:56:11.309,-23.3126,-42.8127
12:56:11.319,-22.6876,-43.1252
12:56:11.330,-23.6251,-43.9377
12:56:11.341,-22.9063,-43.6877
12:56:11.349,-23.0626,-44.6252
12:56:11.362,-23.3126,-44.5627
12:56:11.372,-23.2501,-44.0002
12:56:11.380,-23.4063,-45.5627
12:56:11.391,-22.8438,-45.8752
12:56:11.409,-23.2188,-46.0002
12:56:11.417,-23.7188,-46.4377
12:56:11.430,-22.4063,-46.3127
12:56:11.434,-22.9376,-46.5002
12:56:11.449,-23.0938,-45.7502
12:56:11.454,-22.8751,-46.8127
12:56:11.464,-23.2813,-47.0627
12:56:11.477,-23.1876,-47.1877
12:56:11.485,-22.7501,-48.0002
12:56:11.494,-22.4688,-47.5002
12:56:11.504,-23.0313,-48.7502
12:56:11.517,-23.2188,-48.1877
12:56:11.546,-22.6876,-48.4377
12:56:11.550,-23.2813,-48.3127
12:56:11.551,-22.9688,-47.8127
12:56:11.555,-22.5313,-48.6877
12:56:11.586,-23.2813,-48.4377
12:56:11.588,-22.9376,-49.1252
12:56:11.590,-22.7501,-49.3127
12:56:11.595,-23.0313,-49.0627
12:56:11.623,-23.0001,-49.6252
12:56:11.625,-22.6251,-50.0002
12:56:11.628,-22.4688,-50.3752
12:56:11.634,-22.5001,-50.3752
12:56:11.672,-21.7813,-49.6877
12:56:11.674,-22.1251,-50.5002
12:56:11.678,-22.5313,-49.5002
12:56:11.679,-22.6251,-51.3752
12:56:11.685,-22.3438,-50.1877
12:56:11.694,-22.1251,-51.3127
12:56:11.704,-22.3751,-50.1877
12:56:11.714,-22.4688,-51.4377
12:56:11.724,-22.4063,-51.6252
12:56:11.741,-21.4063,-49.7502
12:56:11.745,-21.6876,-49.9377
12:56:11.757,-20.7813,-46.5002
12:56:11.765,-19.1251,-42.6252
12:56:11.774,-17.3126,-35.8126
12:56:11.784,-15.0001,-30.2501
12:56:11.794,-13.3751,-22.7501
12:56:11.806,-11.5313,-16.7501
12:56:11.814,-9.9688,-13
12:56:11.824,-9.0938,-9.375
12:56:11.834,-8.3125,-5.625
12:56:11.846,-7.875,-5.0625
12:56:11.854,-6.9063,-1.5625
12:56:11.864,-6.5625,-0.9375
12:56:11.874,-6.0625,1.0625
12:56:11.884,-5.6875,1.75
12:56:11.894,-5.9063,3.9375
12:56:11.904,-5.375,5.0625
12:56:11.914,-4.625,5.875
12:56:11.924,-4.4688,8.625
12:56:11.934,-3,9.875
12:56:11.944,-3.3125,11.3125
12:56:11.956,-2.8125,12.6875
12:56:11.964,-2.4375,13.3126
12:56:11.974,-2.5313,15.1876
12:56:11.984,-1.375,15.7501
12:56:11.994,-1.6875,16.9376
12:56:12.004,-1.3125,16.3751
12:56:12.014,-1.5313,16.7501
12:56:12.024,-1.9063,14.8126
12:56:12.035,-1.9375,14.8126
12:56:12.045,-2.9063,12.375
12:56:12.055,-3.7188,10.1875
12:56:12.064,-4.7813,8.625
12:56:12.074,-4.5,5.875
12:56:12.084,-5.25,4.25
12:56:12.094,-6.0625,3.375
12:56:12.104,-5.5313,2.8125
12:56:12.114,-5.875,1.75
12:56:12.124,-6.4375,3
12:56:12.134,-5.625,1.9375
12:56:12.145,-6.5313,1.125
12:56:12.154,-6.1563,1.25
12:56:12.164,-6.375,0.0625
12:56:12.178,-6.7188,0.25
12:56:12.184,-5.5625,0.125
12:56:12.224,-6.6563,-1.375
12:56:12.225,-6.5625,-1.8125
12:56:12.228,-6.6875,-1.5625
12:56:12.230,-6.4688,-2.875
12:56:12.236,-7.0938,-3.5625
12:56:12.263,-7.125,-4
12:56:12.265,-7.0313,-3.9375
12:56:12.267,-7.0313,-5.5625
12:56:12.295,-6.9375,-5.5
12:56:12.298,-6.9063,-6.5625
12:56:12.300,-7.2813,-7.625
12:56:12.306,-8.0625,-7.625
12:56:12.336,-7.5625,-8.6875
12:56:12.338,-7.5,-9.6875
12:56:12.340,-7.9063,-9.6875
12:56:12.344,-7.9375,-10.75
12:56:12.355,-8.6875,-11.3125
12:56:12.364,-8.5938,-11.625
12:56:12.375,-7.8438,-12.875
12:56:12.384,-8.2813,-13.0625
12:56:12.394,-8.625,-14.1876
12:56:12.406,-8.9688,-14.7501
12:56:12.414,-8.4688,-14.5626
12:56:12.424,-8.4375,-15.1251
12:56:12.434,-8.6563,-16.0001
12:56:12.446,-9.0313,-16.6251
12:56:12.456,-9.3125,-17.0001
12:56:12.464,-8.75,-17.3126
12:56:12.485,-9.25,-17.2501
12:56:12.488,-9.5,-18.3126
12:56:12.521,-9.7188,-18.1876
12:56:12.524,-9.5,-19.1251
12:56:12.539,-9.5938,-19.7501
12:56:12.541,-9.4688,-20.5626
12:56:12.541,-10,-20.2501
12:56:12.545,-9.5625,-21.2501
12:56:12.554,-10.5313,-21.0626
12:56:12.564,-9.7813,-22.1251
12:56:12.574,-9.9063,-23.0626
12:56:12.585,-10.6563,-21.6251
12:56:12.594,-10.0313,-23.7501
12:56:12.604,-11.0625,-24.1876
12:56:12.614,-10.6875,-24.3126
12:56:12.624,-10.5625,-25.0626
12:56:12.636,-10.4688,-25.5626
12:56:12.644,-10.5938,-25.9376
12:56:12.654,-11.4688,-26.3126
12:56:12.664,-11.0313,-26.1876
12:56:12.674,-10.75,-27.2501
12:56:12.684,-10.75,-28.3751
12:56:12.694,-10.9688,-27.5626
12:56:12.704,-10.6563,-28.2501
12:56:12.725,-11.2188,-29.0001
12:56:12.731,-10.2188,-28.8126
12:56:12.738,-10.9688,-29.8751
12:56:12.745,-11.4375,-29.0626
12:56:12.761,-11.875,-29.5001
12:56:12.770,-11.625,-31.1876
12:56:12.775,-11,-30.6251
12:56:12.784,-11.375,-31.5626
12:56:12.796,-10.8125,-30.6876
12:56:12.804,-10.7188,-31.6876
12:56:12.814,-11.0938,-31.6251
12:56:12.824,-10.6875,-31.8126
12:56:12.834,-10.8438,-32.3751
12:56:12.846,-11.3125,-32.0626
12:56:12.854,-11.0625,-33.3751
12:56:12.864,-11.9688,-33.7501
12:56:12.874,-11.5625,-33.5001
12:56:12.885,-11.4063,-34.4376
12:56:12.895,-11.5,-34.0001
12:56:12.904,-10.7813,-33.8126
12:56:12.941,-11.875,-34.0626
12:56:12.945,-11.1875,-34.2501
12:56:12.945,-11.0313,-35.3126
12:56:12.952,-11.125,-34.3126
12:56:12.954,-11.3125,-35.6251
12:56:12.983,-11.5625,-33.7501
12:56:12.986,-10.8125,-34.5626
12:56:12.988,-10.3438,-33.0626
12:56:12.994,-9.0313,-29.7501
12:56:13.023,-7.9688,-25.8126
12:56:13.025,-6.0938,-19.7501
12:56:13.028,-3.375,-13.4376
12:56:13.034,-2.3438,-7.5
12:56:13.064,-0.1875,-2.4375
12:56:13.067,-0.375,1.25
12:56:13.069,0.375,5.125
12:56:13.102,1.6563,6.6875
12:56:13.105,2.1875,7.9375
12:56:13.105,2.125,9.6875
12:56:13.112,2.7188,10.125
12:56:13.114,2.3438,11.0625
12:56:13.124,3.5938,12.125
12:56:13.134,3.1563,12.6875
12:56:13.144,3.25,14.8126
12:56:13.156,4.3125,16.1251
12:56:13.164,4,18.2501
12:56:13.176,5.1563,18.4376
12:56:13.184,5.4375,19.1876
12:56:13.195,5.625,21.5001
12:56:13.204,5.875,21.8126
12:56:13.215,5.9688,23.0626
12:56:13.224,6.7188,23.4376
12:56:13.234,6.3125,22.3126
12:56:13.249,5.4688,22.0001
12:56:13.254,5.1563,21.6876
12:56:13.264,4.1563,20.1876
12:56:13.274,4.1875,17.6876
12:56:13.285,3.2188,14.8126
12:56:13.294,2.1875,13.7501
12:56:13.304,2.375,12.0625
12:56:13.314,2,10.5625
12:56:13.325,1.5938,8.875
12:56:13.334,1.2813,8.75
12:56:13.344,1.7813,8
12:56:13.354,1.4063,7.5
12:56:13.364,0.5938,7.1875
12:56:13.374,1,7.4375
12:56:13.384,0.7813,6.5
12:56:13.394,0.0938,5.5
12:56:13.405,-0.125,5.625
12:56:13.414,-0.25,5.6875
12:56:13.424,-0.4063,4.875
12:56:13.435,0.125,4
12:56:13.444,0.0625,3.0625
12:56:13.454,-0.4688,2.1875
12:56:13.464,-1,3.1875
12:56:13.474,-0.8438,2.3125
12:56:13.484,-0.3438,0.6875
12:56:13.494,-1.4063,-0.6875
12:56:13.504,-1.5938,-1.1875
12:56:13.514,-2.125,-1.4375
12:56:13.524,-2.2813,-1.5
12:56:13.534,-1.8438,-3.125
12:56:13.544,-1.6563,-4.125
12:56:13.554,-2.1875,-4.8125
12:56:13.565,-2.375,-5.6875
12:56:13.574,-2.3125,-5.875
12:56:13.584,-2.0625,-6.6875
12:56:13.594,-2.9375,-7.5
12:56:13.604,-3.125,-8.4375
12:56:13.614,-3.375,-7.6875
12:56:13.624,-2.3438,-8.3125
12:56:13.634,-3.0313,-9.625
12:56:13.645,-3.3438,-10.4375
12:56:13.654,-3,-10.8125
12:56:13.664,-3.75,-11.375
12:56:13.674,-3.6563,-11.875
12:56:13.684,-4.0938,-12.125
12:56:13.696,-4.0938,-12.9375
12:56:13.704,-3.625,-13
12:56:13.744,-4.2188,-14.0626
12:56:13.747,-4.2188,-12.75
12:56:13.749,-4.4688,-15.1251
12:56:13.752,-4.625,-16.3751
12:56:13.754,-4.3125,-15.7501
12:56:13.789,-4.4375,-16.3751
12:56:13.793,-4.8438,-16.2501
12:56:13.794,-4.25,-17.1251
12:56:13.864,-5.625,-18.4376
12:56:13.875,-5.5625,-18.3751
12:56:13.878,-5.4688,-19.0626
12:56:13.908,-5.5313,-19.8751
12:56:13.909,-5.7188,-20.1251
12:56:13.909,-5.125,-20.4376
12:56:13.912,-5.75,-21.5626
12:56:13.913,-5.7813,-20.5626
12:56:13.918,-5.5,-21.5626
12:56:13.919,-6.0313,-23.5001
12:56:13.931,-5.9375,-22.8126
12:56:13.939,-6.5625,-23.8126
12:56:13.949,-6.5,-24.3126
12:56:13.960,-5.75,-23.9376
12:56:13.969,-6.4375,-25.3751
12:56:13.980,-7.0313,-24.3751
12:56:13.989,-6.375,-25.6876
12:56:13.999,-6.875,-24.7501
12:56:14.009,-6.9688,-25.6876
12:56:14.019,-6.1563,-26.7501
12:56:14.029,-6.625,-27.0001
12:56:14.039,-7.1875,-27.7501
12:56:14.054,-8.0313,-31.0626
12:56:14.069,-8.125,-29.7501
12:56:14.071,-7.9688,-30.3751
12:56:14.081,-7.8438,-31.5001
12:56:14.089,-7.6563,-30.6876
12:56:14.099,-7.625,-32.2501
12:56:14.109,-7.5313,-30.8126
12:56:14.121,-7.7813,-31.6876
12:56:14.129,-8.0938,-31.7501
12:56:14.139,-8.0938,-31.8126
12:56:14.149,-7.9688,-33.2501
12:56:14.159,-8,-32.1251
12:56:14.169,-7.4688,-32.0001
12:56:14.179,-8.1563,-34.1251
12:56:14.191,-7.75,-33.1876
12:56:14.199,-7.9375,-34.6251
12:56:14.209,-8.1875,-33.9376
12:56:14.219,-7.2188,-34.3126
12:56:14.229,-8.0313,-34.8126
12:56:14.239,-8,-35.3751
12:56:14.249,-7.5625,-33.3126
12:56:14.259,-7.6563,-33.4376
12:56:14.273,-6.8438,-30.6876
12:56:14.279,-4.875,-27.0001
12:56:14.289,-3.6875,-21.8126
12:56:14.299,-2.2813,-14.4376
12:56:14.309,-0.0313,-8.9375
12:56:14.319,0.7813,-3.8125
12:56:14.329,2.5625,2.125
12:56:14.341,3.5938,4.8125
12:56:14.349,4.1875,9.125
12:56:14.359,4.6563,10.5
12:56:14.374,5.625,13.1876
12:56:14.379,5.5,13.6876
12:56:14.410,5.6563,15.6876
12:56:14.412,6.4375,17.0626
12:56:14.415,7.4063,18.4376
12:56:14.419,7.125,19.0626
12:56:14.449,8.1875,21.8751
12:56:14.451,7.9375,22.4376
12:56:14.454,8.4063,24.3751
12:56:14.459,9.2188,25.8126
12:56:14.469,9.0625,27.8126
12:56:14.501,9.9063,28.6876
12:56:14.503,9.75,29.9376
12:56:14.505,10.3125,30.6251
12:56:14.510,10.4375,32.3751
12:56:14.546,10.5625,32.0626
12:56:14.548,9.7813,31.5626
12:56:14.551,9,29.8126
12:56:14.555,8.5,29.7501
12:56:14.566,8.5313,27.1876
12:56:14.575,7.0313,24.8751
12:56:14.579,6.125,21.6251
12:56:14.590,5.0938,20.1876
12:56:14.599,5.5313,18.2501
12:56:14.609,4.6875,16.5001
12:56:14.619,3.7188,14.9376
12:56:14.630,3.875,15.3751
12:56:14.639,4.25,15.1251
12:56:14.649,4.25,14.0001
12:56:14.659,3.9688,13.3751
12:56:14.672,3.4063,13.8126
12:56:14.679,4.2813,12.875
12:56:14.689,3.0625,12.1875
12:56:14.699,3.0313,11.4375
12:56:14.709,2.625,10.5
12:56:14.719,2.2813,11.125
12:56:14.729,2.2813,9.375
12:56:14.739,1.5625,8.375
12:56:14.751,1.6563,8.6875
12:56:14.759,1.7188,7.125
12:56:14.769,1.6563,6.125
12:56:14.779,0.8125,6.875
12:56:14.789,1.25,5.1875
12:56:14.799,0.5938,3.4375
12:56:14.809,0.4063,2.6875
12:56:14.820,-0.0938,2.4375
12:56:14.829,0.1875,1.8125
12:56:14.839,-1.0625,-0.3125
12:56:14.849,-0.9375,-1.4375
12:56:14.861,-1.4375,-1
12:56:14.869,-1.0313,-2.125
12:56:14.879,-1.2188,-3.5625
12:56:14.889,-1.8438,-3.9375
12:56:14.899,-2.375,-3.5
12:56:14.909,-2.1563,-4.625
12:56:14.919,-1.3125,-5.75
12:56:14.930,-2.3438,-6.6875
12:56:14.939,-2.6875,-7.125
12:56:14.953,-2.9375,-7.0625
12:56:14.959,-1.75,-7.9375
12:56:14.969,-2.9375,-9.5625
12:56:14.979,-3.5,-8.6875
12:56:14.989,-2.875,-9.375
12:56:15.000,-3.7188,-10.625
12:56:15.009,-3.6875,-11.375
12:56:15.019,-2.875,-11.375
12:56:15.030,-4.1563,-12.5625
12:56:15.042,-4.1563,-12.4375
12:56:15.049,-3.9063,-13.8126
12:56:15.083,-4.9688,-14.3751
12:56:15.084,-4.3125,-15.5626
12:56:15.087,-5.125,-15.8126
12:56:15.091,-4.7188,-15.7501
12:56:15.099,-5.3125,-17.0001
12:56:15.109,-5.4688,-17.5001
12:56:15.120,-4.7188,-18.0626
12:56:15.129,-5.9375,-18.7501
12:56:15.139,-5.7813,-18.0001
12:56:15.149,-6.125,-19.5626
12:56:15.183,-6.3438,-19.3126
12:56:15.185,-6,-20.8126
12:56:15.214,-6.2813,-19.9376
12:56:15.216,-6.2813,-21.3751
12:56:15.244,-7.0625,-21.9376
12:56:15.247,-6.4375,-21.6251
12:56:15.248,-6.1875,-22.9376
12:56:15.248,-6.8438,-23.1251
12:56:15.254,-6.5938,-23.3751
12:56:15.281,-6.3125,-23.8126
12:56:15.282,-6.6875,-22.9376
12:56:15.285,-6.9688,-24.5001
12:56:15.316,-6.7188,-25.2501
12:56:15.318,-6.75,-25.1876
12:56:15.320,-7.3438,-25.7501
12:56:15.324,-7.0938,-25.6876
12:56:15.341,-7.1875,-26.5626
12:56:15.358,-7.5313,-26.3751
12:56:15.373,-7.5625,-26.8751
12:56:15.375,-7.0938,-27.3126
12:56:15.392,-7.4375,-28.1876
12:56:15.395,-7.5625,-27.6251
12:56:15.398,-7.875,-27.5626
12:56:15.405,-7.625,-28.2501
12:56:15.414,-7.1563,-28.9376
12:56:15.424,-7.9063,-29.8126
12:56:15.434,-8.1563,-29.5001
12:56:15.444,-7.875,-30.5001
12:56:15.456,-8.125,-30.1876
12:56:15.464,-7.9063,-31.1876
12:56:15.479,-8.1875,-30.6876
12:56:15.489,-8,-31.5001
12:56:15.499,-8.3438,-32.3751
12:56:15.512,-7.7188,-31.5626
12:56:15.519,-7.7813,-31.8751
12:56:15.529,-8.3438,-31.6251
12:56:15.541,-7.9375,-30.0626
12:56:15.549,-7.3438,-28.3126
12:56:15.560,-5.3438,-24.4376
12:56:15.570,-4.1563,-18.3751
12:56:15.579,-1.75,-12.375
12:56:15.589,-0.5313,-5.9375
12:56:15.599,1,-0.3125
12:56:15.611,2.4063,5.125
12:56:15.619,3.25,7.5
12:56:15.629,3.5938,9.9375
12:56:15.640,4.8438,13.4376
12:56:15.649,4.9063,14.0626
12:56:15.659,4.9063,16.5626
12:56:15.670,5.375,15.8751
12:56:15.679,5.1563,18.0001
12:56:15.689,6.0313,18.0001
12:56:15.699,5.5313,19.8126
12:56:15.715,5.8125,20.3751
12:56:15.720,6.4375,20.3751
12:56:15.729,6.5938,22.9376
12:56:15.739,7,23.2501
12:56:15.749,7.5938,25.5001
12:56:15.759,8.0625,26.9376
12:56:15.769,7.9375,26.9376
12:56:15.780,7.875,28.4376
12:56:15.789,7.9063,28.4376
12:56:15.799,8.4063,27.6876
12:56:15.810,7.1875,25.3126
12:56:15.819,6.4688,24.5626
12:56:15.856,5.9688,22.6251
12:56:15.858,4.9375,20.0001
12:56:15.863,4.4063,17.5001
12:56:15.864,3.9688,16.3126
12:56:15.890,3.4375,14.6876
12:56:15.892,3,14.0001
12:56:15.894,3.2188,12.75
12:56:15.900,2.8125,11.375
12:56:15.931,2.5313,12.75
12:56:15.933,2.0313,12.1875
12:56:15.936,2,11
12:56:15.941,2.125,10.75
12:56:15.970,1.7188,10.0625
12:56:15.972,1.1875,9.1875
12:56:15.974,1.3438,8.9375
12:56:15.979,2.2188,8
12:56:16.007,1.375,6.9375
12:56:16.009,0.8125,6
12:56:16.012,0.6875,6.125
12:56:16.020,1.0938,4.6875
12:56:16.029,0.4688,3.3125
12:56:16.041,0.1563,2.875
12:56:16.049,0,2.875
12:56:16.059,-0.3438,2.625
12:56:16.069,0.375,1.3125
12:56:16.079,0.0313,0.0625
12:56:16.090,-0.7188,0.625
12:56:16.099,-0.6875,-1.0625
12:56:16.112,-1.6875,-3.25
12:56:16.119,-1.6563,-2.8125
12:56:16.129,-1.625,-3.375
12:56:16.141,-1.6875,-4.8125
12:56:16.149,-1.625,-5.9375
12:56:16.159,-2.125,-5.75
12:56:16.171,-2.25,-5.875
12:56:16.179,-2.125,-7.25
12:56:16.189,-2.8125,-8.375
12:56:16.200,-3,-9.4375
12:56:16.209,-3.0625,-9
12:56:16.219,-2.3125,-9.125
12:56:16.230,-2.625,-10.5625
12:56:16.239,-3.625,-10.4375
12:56:16.250,-3.4688,-10.75
12:56:16.259,-3.5313,-12.4375
12:56:16.269,-3.5625,-13.3126
12:56:16.279,-3.9063,-13.9376
12:56:16.289,-4.5938,-14.0001
12:56:16.299,-4.0313,-14.4376
12:56:16.309,-5.125,-15.3126
12:56:16.319,-4.5938,-15.6876
12:56:16.331,-4.8125,-16.1876
12:56:16.359,-4.8438,-15.8751
12:56:16.362,-4.7813,-16.9376
12:56:16.364,-5.1563,-18.4376
12:56:16.370,-4.875,-17.9376
12:56:16.379,-5.125,-19.1251
12:56:16.390,-5.5625,-19.6251
12:56:16.399,-4.9063,-19.8126
12:56:16.409,-5.75,-20.8751
12:56:16.420,-5.9063,-20.9376
12:56:16.429,-6,-20.7501
12:56:16.439,-5.875,-22.6251
12:56:16.449,-5.75,-23.1251
12:56:16.465,-6,-23.0001
12:56:16.471,-6.5938,-23.1876
12:56:16.479,-5.9375,-23.6876
12:56:16.498,-6.4063,-23.8751
12:56:16.500,-6.5938,-24.4376
12:56:16.515,-6.75,-25.5001
12:56:16.521,-7.5625,-25.6876
12:56:16.529,-7.5313,-26.0626
12:56:16.539,-7.5938,-27.0001
12:56:16.553,-6.7188,-26.1251
12:56:16.559,-7.2813,-27.3126
12:56:16.594,-7.25,-27.9376
12:56:16.595,-6.7813,-28.4376
12:56:16.599,-7.5938,-28.6876
12:56:16.600,-7.9375,-28.0001
12:56:16.643,-7.4063,-29.0626
12:56:16.646,-7.9688,-30.1876
12:56:16.675,-7.875,-29.1876
12:56:16.680,-7.8438,-30.0626
12:56:16.705,-8.2813,-31.3126
12:56:16.705,-7.8438,-30.8126
12:56:16.705,-8.2813,-31.6876
12:56:16.708,-8.8438,-31.8126
12:56:16.728,-8.625,-31.0001
12:56:16.730,-8.2188,-32.3126
12:56:16.733,-8.7188,-32.4376
12:56:16.741,-7.9688,-32.2501
12:56:16.749,-8.5938,-33.6876
12:56:16.759,-8.9688,-32.3126
12:56:16.769,-8.625,-33.3751
12:56:16.779,-9.125,-34.7501
12:56:16.789,-9.0938,-34.1251
12:56:16.799,-8.25,-34.7501
12:56:16.809,-8.8438,-34.1876
12:56:16.819,-8.4063,-31.3751
12:56:16.829,-7.125,-29.3751
12:56:16.839,-5.9375,-25.8751
12:56:16.853,-0.7188,-6.9375
12:56:16.862,0.625,-0.5625
12:56:16.869,1.625,3.8125
12:56:16.879,2.5938,6.1875
12:56:16.889,3.625,10.375
12:56:16.899,4.125,11.375
12:56:16.909,4.8125,13.5001
12:56:16.919,4.4688,14.3751
12:56:16.929,4.875,16.0001
12:56:16.939,5.6563,17.3751
12:56:16.949,5.5938,19.1251
12:56:16.959,6.4063,20.4376
12:56:16.969,6.0625,20.7501
12:56:16.982,6.3125,23.7501
12:56:16.989,7.0313,24.0626
12:56:16.999,7.5625,24.8751
12:56:17.009,8.0938,28.2501
12:56:17.019,8,27.9376
12:56:17.029,8.1875,29.0001
12:56:17.041,8.3438,30.7501
12:56:17.049,8.9063,30.5001
12:56:17.059,8.75,30.0001
12:56:17.069,7.9063,29.6251
12:56:17.080,7.5,29.8126
12:56:17.089,7.2813,27.3751
12:56:17.101,6.9688,25.2501
12:56:17.109,5.8125,22.3126
12:56:17.119,4.4063,19.8751
12:56:17.129,3.5,18.4376
12:56:17.139,3.1875,16.9376
12:56:17.149,3.4375,14.7501
12:56:17.159,2.7813,13.7501
12:56:17.169,2.375,12.625
12:56:17.179,2.0313,14.0626
12:56:17.189,2.5,12.6875
12:56:17.199,2.4688,11.75
12:56:17.209,2.4688,10.875
12:56:17.219,1.9375,10.875
12:56:17.227,0.9688,10.9375
12:56:17.239,2.0625,10.0625
12:56:17.249,1.8438,8.25
12:56:17.259,1.2813,6.75
12:56:17.269,0.7813,7.125
12:56:17.285,0.875,6.5625
12:56:17.289,0.4375,4.625
12:56:17.319,0.1875,3.9375
12:56:17.322,0.4063,2.8125
12:56:17.325,-0.5625,3.25
12:56:17.330,-0.3125,3.125
12:56:17.356,-0.125,1.8125
12:56:17.358,-0.8125,0.3125
12:56:17.361,-1.125,-0.5625
12:56:17.386,-1.8438,-0.1875
12:56:17.391,-1.6563,-1.4375
12:56:17.391,-1.3438,-2.6875
12:56:17.421,-2.125,-2.6875
12:56:17.424,-1.9375,-3.875
12:56:17.426,-2.0625,-5.125
12:56:17.430,-2.4063,-5.8125
12:56:17.461,-2.6875,-6.875
12:56:17.465,-3.25,-7.25
12:56:17.467,-2.9063,-7.9375
12:56:17.471,-3.0625,-9
12:56:17.479,-3.3438,-10
12:56:17.489,-3.75,-9.5625
12:56:17.499,-3.6875,-11.75
12:56:17.509,-4.4688,-12.4375
12:56:17.519,-4.9688,-11.25
12:56:17.530,-4.4688,-12.9375
12:56:17.539,-4.5313,-13.8751
12:56:17.549,-4.9375,-14.1251
12:56:17.559,-4.9688,-15.5001
12:56:17.569,-5.3438,-15.0626
12:56:17.579,-4.9063,-15.3126
12:56:17.589,-5.9063,-16.3751
12:56:17.603,-4.5938,-16.4376
12:56:17.609,-5.5625,-17.6876
12:56:17.639,-6,-16.5001
12:56:17.644,-5.4375,-17.9376
12:56:17.644,-5.5,-17.5626
12:56:17.650,-5.7813,-19.1251
12:56:17.659,-5.8125,-18.6251
12:56:17.669,-6.0625,-20.5001
12:56:17.679,-5.6875,-20.8751
12:56:17.690,-5.5,-19.8751
12:56:17.699,-6,-21.7501
12:56:17.709,-5.625,-21.0001
12:56:17.722,-6,-23.2501
12:56:17.729,-5.6563,-22.0626
12:56:17.739,-5.7188,-23.2501
12:56:17.749,-5.9688,-23.1251
12:56:17.759,-5.6563,-24.0001
12:56:17.770,-6.2188,-24.6251
12:56:17.779,-6.2188,-24.7501
12:56:17.794,-6.375,-24.8751
12:56:17.810,-6.6563,-24.5626
12:56:17.815,-6.1875,-25.9376
12:56:17.824,-7,-25.5001
12:56:17.834,-6.5625,-26.0001
12:56:17.846,-6,-27.6251
12:56:17.854,-6.5625,-26.6251
12:56:17.864,-6.875,-28.0001
12:56:17.874,-7.125,-28.0626
12:56:17.884,-6.5,-27.4376
12:56:17.894,-6.75,-28.3126
12:56:17.904,-7.4688,-27.8126
12:56:17.914,-6.875,-28.7501
12:56:17.924,-6.9688,-29.5626
12:56:17.934,-6.9063,-29.0001
12:56:17.954,-6.2813,-28.7501
12:56:17.960,-6.8125,-30.2501
12:56:17.978,-7.4063,-29.6876
12:56:17.980,-7.4063,-31.3751
12:56:17.987,-8.125,-30.0626
12:56:18.011,-7.1563,-31.0001
12:56:18.014,-7.9688,-31.6876
12:56:18.019,-8.0313,-31.6876
12:56:18.045,-7.9688,-33.4376
12:56:18.050,-7.4063,-32.7501
12:56:18.051,-7.5938,-33.7501
12:56:18.057,-7.625,-32.5001
12:56:18.085,-6.875,-32.3126
12:56:18.086,-7,-32.1876
12:56:18.090,-6.8125,-29.1876
12:56:18.117,-4.8125,-26.5626
12:56:18.120,-4.0625,-20.6251
12:56:18.122,-2.1563,-14.5626
12:56:18.125,-0.125,-8.0625
12:56:18.134,1.4688,-1.375
12:56:18.170,3.3125,4.125
12:56:18.173,4.3125,7
12:56:18.177,4.4375,12.125
12:56:18.179,5.8438,13.125
12:56:18.185,5.8125,16.0626
12:56:18.197,6.875,16.8126
12:56:18.204,6.5938,17.3126
12:56:18.214,6.5625,18.1876
12:56:18.224,7.2813,18.5001
12:56:18.234,7.2813,20.3126
12:56:18.246,8.0938,21.5626
12:56:18.254,7.75,22.6251
12:56:18.264,8.125,24.2501
12:56:18.274,8.875,25.3751
12:56:18.284,8.6875,26.1876
12:56:18.296,9.1563,27.6251
12:56:18.304,9.8125,28.0001
12:56:18.314,10,28.8126
12:56:18.324,9.6563,29.5001
12:56:18.334,9.5625,29.3751
12:56:18.344,9.5625,29.8751
12:56:18.354,9.2813,27.8751
12:56:18.364,8.8125,26.6251
12:56:18.374,7.9063,24.3126
12:56:18.385,6.6563,24.1876
12:56:18.395,6.5,20.8126
12:56:18.405,6.4688,18.3751
12:56:18.414,5.5,16.9376
12:56:18.425,5.25,15.8751
12:56:18.434,5.25,16.3751
12:56:18.444,5.5,15.0626
12:56:18.454,4.9688,14.3126
12:56:18.464,4.0625,14.9376
12:56:18.474,4.7813,13.5626
12:56:18.484,4.5313,12.1875
12:56:18.494,4.0625,12.875
12:56:18.504,4.4063,11.75
12:56:18.516,4.3125,11.0625
12:56:18.524,3.8438,10.375
12:56:18.534,4.375,11.75
12:56:18.547,5,12.4375
12:56:18.554,6.5625,12.1875
12:56:18.564,7.3125,12.8125
12:56:18.574,8.0625,14.4376
12:56:18.584,9.0625,15.4376
12:56:18.594,10.0938,15.4376
12:56:18.604,10.4063,15.8751
12:56:18.614,12.2813,17.3126
12:56:18.624,13.5313,19.6876
12:56:18.634,15.0938,22.0001
12:56:18.644,16.8751,24.1251
12:56:18.656,19.5313,25.9376
12:56:18.664,21.2188,29.5001
12:56:18.674,22.7813,31.4376
12:56:18.684,22.9688,32.6251
12:56:18.694,21.4063,31.7501
12:56:18.704,19.8751,30.5001
12:56:18.714,19.6251,28.6876
12:56:18.729,19.1563,27.3126
12:56:18.734,18.1876,25.8126
12:56:18.771,17.1563,25.7501
12:56:18.773,17.1876,23.6876
12:56:18.775,16.6251,22.8751
12:56:18.778,16.7813,21.6251
12:56:18.808,16.5001,20.9376
12:56:18.810,15.5626,21.3126
12:56:18.814,15.5313,19.9376
12:56:18.817,15.9376,18.8126
12:56:18.833,16.0313,17.8126
12:56:18.835,15.7188,17.5001
12:56:18.870,15.1876,17.1251
12:56:18.873,15.2501,16.7501
12:56:18.875,15.5938,15.3126
12:56:18.881,15.4376,15.0001
12:56:18.884,15.3126,14.8751
12:56:18.921,14.7188,14.3751
12:56:18.930,16.1251,12.875
12:56:18.932,15.9688,12.6875
12:56:18.934,16.0938,12
12:56:18.938,16.8751,11
12:56:18.944,16.7813,12.9375
12:56:18.954,16.7813,11.375
12:56:18.964,17.2188,10.8125
12:56:18.975,17.0313,9.8125
12:56:18.985,15.7813,6.6875
12:56:18.996,13.7813,0.625
12:56:19.004,9.9375,-7.4375
12:56:19.014,6.6875,-14.3126
12:56:19.026,3.5625,-21.1876
12:56:19.034,1.3438,-28.1876
12:56:19.044,-2.25,-34.8126
12:56:19.054,-5.9688,-41.5002
12:56:19.064,-9.6875,-47.1877
12:56:19.074,-12.9688,-53.9377
12:56:19.090,-14.1251,-57.6252
12:56:19.094,-14.5938,-58.5627
12:56:19.109,-14.1251,-55.5627
12:56:19.114,-12.875,-51.9377
12:56:19.124,-10.125,-47.6877
12:56:19.134,-9.875,-44.8752
12:56:19.144,-9.3438,-42.0002
12:56:19.157,-8.4688,-37.8126
12:56:19.164,-6.9063,-36.0001
12:56:19.174,-5.1875,-33.7501
12:56:19.184,-4,-32.2501
12:56:19.194,-2.6875,-29.4376
12:56:19.204,-0.3438,-26.8126
12:56:19.214,1.5,-24.1876
12:56:19.224,2.9688,-21.4376
12:56:19.236,3.875,-19.3751
12:56:19.256,4.8438,-19.4376
12:56:19.257,3.9688,-19.8751
12:56:19.272,2.3125,-25.0001
12:56:19.275,-1.5,-32.0001
12:56:19.285,-5.8125,-42.8752
12:56:19.294,-8.0313,-47.0002
12:56:19.304,-12.0313,-56.0002
12:56:19.314,-25.1251,-76.0003
12:56:19.324,-41.5314,-105.0004
12:56:19.334,-59.7502,-137.188
12:56:19.344,-77.2815,-169.8756
12:56:19.354,-95.3441,-197.8133
12:56:19.366,-110.7817,-225.6884
12:56:19.375,-124.3442,-245.7509
12:56:19.384,-133.688,-261.3135
12:56:19.394,-140.438,-268.4385
12:56:19.404,-143.2818,-269.251
12:56:19.415,-143.8443,-264.251
12:56:19.424,-142.5005,-257.876
12:56:19.434,-140.4068,-249.4384
12:56:19.446,-135.7818,-237.5009
12:56:19.454,-130.3442,-223.0009
12:56:19.464,-122.438,-209.1258
12:56:19.474,-113.1254,-191.6882
12:56:19.484,-102.0941,-174.8757
12:56:19.495,-91.5941,-154.5631
12:56:19.509,-81.2191,-138.7505
12:56:19.519,-74.0315,-123.438
12:56:19.531,-66.0315,-111.8754
12:56:19.539,-60.2502,-99.0629
12:56:19.573,-53.9377,-91.3129
12:56:19.576,-49.6564,-80.2503
12:56:19.578,-44.8127,-72.8128
12:56:19.605,-40.0002,-64.2502
12:56:19.606,-35.8439,-57.4377
12:56:19.611,-31.3439,-50.5002
12:56:19.612,-27.6251,-43.9377
12:56:19.619,-25.2813,-37.3126
12:56:19.650,-21.3438,-32.4376
12:56:19.653,-18.9376,-27.6876
12:56:19.655,-17.4063,-26.0626
12:56:19.659,-16.8126,-23.8126
12:56:19.700,-15.7813,-22.0001
12:56:19.703,-14.9063,-21.3126
12:56:19.705,-13.5001,-21.5626
12:56:19.711,-13.1563,-19.1876
12:56:19.711,-11.3438,-18.2501
12:56:19.733,-11.2188,-15.7501
12:56:19.736,-9.3438,-15.1876
12:56:19.739,-8.4063,-12.4375
12:56:19.749,-7.7188,-10.5
12:56:19.760,-6.5625,-8.5625
12:56:19.769,-5.9375,-8.25
12:56:19.780,-3.9688,-6.1875
12:56:19.789,-4.2813,-4.875
12:56:19.799,-2.4688,-2.9375
12:56:19.809,-2.2188,-1.125
12:56:19.819,-0.5938,0.875
12:56:19.830,-0.8438,0.6875
12:56:19.839,0.7188,0.9375
12:56:19.849,-0.2813,0.4375
12:56:19.860,1.7188,1.4375
12:56:19.869,1.7188,1.6875
12:56:19.879,2.5625,1.0625
12:56:19.889,3.0313,1.375
12:56:19.899,4.25,1.875
12:56:19.909,2.75,-0.6875
12:56:19.919,0.1875,-3.9375
12:56:19.929,-2.8438,-9.5625
12:56:19.940,-6.5625,-15.7501
12:56:19.949,-9.1875,-19.0001
12:56:19.959,-10.1875,-22.3751
12:56:19.969,-10.6563,-22.0626
12:56:19.979,-10.125,-23.0626
12:56:19.989,-9.5625,-20.8751
12:56:19.999,-8.2188,-19.6876
12:56:20.009,-6.0313,-15.4376
12:56:20.019,-5.0313,-14.1876
12:56:20.029,-3.5625,-12.125
12:56:20.042,-3.4375,-11.3125
12:56:20.055,-2.7813,-10.625
12:56:20.060,-2.7188,-9.375
12:56:20.069,-1.75,-8.3125
12:56:20.079,-0.0625,-7.625
12:56:20.089,1.0313,-5.25
12:56:20.099,1.25,-2.6875
12:56:20.110,2.9063,-2.625
12:56:20.119,2.5938,-0.9375
12:56:20.129,3.5938,-1.5625
12:56:20.141,4.25,-0.125
12:56:20.149,5.4688,-1.125
12:56:20.159,5.5313,0.1875
12:56:20.169,5.8125,-0.9375
12:56:20.197,8.4375,0.625
12:56:20.204,8.375,1.625
12:56:20.207,7.875,0.4375
12:56:20.209,6.7813,-1.25
12:56:20.219,4.0938,-7.125
12:56:20.229,1.4688,-9.8125
12:56:20.240,-0.625,-15.0626
12:56:20.271,-2.4063,-15.8751
12:56:20.273,-2.5313,-17.6876
12:56:20.275,-2.625,-17.0001
12:56:20.280,-1.625,-17.6876
12:56:20.314,-0.9063,-15.2501
12:56:20.316,0.1563,-14.5001
12:56:20.319,1.7188,-12
12:56:20.354,2.125,-10.0625
12:56:20.355,2.4063,-8.9375
12:56:20.358,2.7188,-8.625
12:56:20.363,3.1563,-8.0625
12:56:20.364,3.4688,-7.375
12:56:20.389,3.9375,-6.4375
12:56:20.392,4.2813,-6.9375
12:56:20.419,4.4063,-5.1875
12:56:20.421,4.0625,-6.625
12:56:20.430,4.0625,-6
12:56:20.432,4.0625,-6.625
12:56:20.436,4.6875,-5.8125
12:56:20.440,5.0625,-6
12:56:20.449,4.9688,-4.625
12:56:20.460,5.3438,-5.375
12:56:20.469,5.5313,-5.25
12:56:20.479,6.4063,-4.125
12:56:20.489,5.2188,-5.1875
12:56:20.499,5.625,-6.1875
12:56:20.511,5.375,-6
12:56:20.519,6.5625,-4
12:56:20.529,9.75,-1.5
12:56:20.539,11.4375,1.75
12:56:20.554,12.2813,2.75
12:56:20.569,13.1563,1.6875
12:56:20.571,11.75,-0.5625
12:56:20.579,11.4063,-2.125
12:56:20.589,9.5,-4.0625
12:56:20.599,9,-5.8125
12:56:20.609,7.4063,-7.625
12:56:20.619,7.4688,-8.5625
12:56:20.629,6.75,-8.875
12:56:20.641,6.625,-9.75
12:56:20.649,6.5938,-8.625
12:56:20.659,7.3125,-7.75
12:56:20.669,7.625,-7.8125
12:56:20.679,7.4688,-6.0625
12:56:20.689,7.2188,-7.5
12:56:20.699,7.0938,-6.5625
12:56:20.710,7.6563,-5.875
12:56:20.720,9.0625,-2.875
12:56:20.729,10.25,1.125
12:56:20.740,11.75,6.9375
12:56:20.749,12.5313,12.625
12:56:20.761,14.4376,18.9376
12:56:20.769,15.8751,24.8751
12:56:20.779,18.2188,30.0626
12:56:20.789,18.4688,34.7501
12:56:20.804,19.5626,39.0626
12:56:20.811,20.3126,42.7502
12:56:20.819,21.9376,45.0627
12:56:20.829,22.0313,47.9377
12:56:20.839,23.3751,50.0002
12:56:20.849,22.8751,50.9377
12:56:20.861,24.7188,53.9377
12:56:20.869,25.6251,56.0627
12:56:20.879,27.5314,59.3127
12:56:20.889,28.2189,61.5627
12:56:20.899,29.4376,64.3752
12:56:20.909,29.7814,66.4378
12:56:20.919,30.8126,67.1253
12:56:20.959,30.7814,68.7503
12:56:20.961,30.9376,70.9378
12:56:20.965,30.8439,71.5628
12:56:20.967,31.2814,71.9378
12:56:20.970,30.9064,72.4378
12:56:21.000,30.4064,72.0003
12:56:21.002,30.0626,71.5003
12:56:21.004,29.3751,70.8753
12:56:21.009,29.6251,69.7503
12:56:21.038,28.7189,67.9378
12:56:21.041,28.1251,66.0628
12:56:21.042,26.8126,65.1252
12:56:21.051,26.0313,63.1877
12:56:21.077,25.2501,60.8127
12:56:21.078,24.2813,58.9377
