timestamp,Red,IR
12:50:42.405,-16.9376,-48.1877
12:50:42.413,-16.3751,-50.5002
12:50:42.422,-17.3751,-51.1252
12:50:42.432,-17.3126,-52.3752
12:50:42.442,-17.1563,-54.8752
12:50:42.452,-18.0938,-55.5002
12:50:42.463,-17.5313,-56.3752
12:50:42.472,-18.0001,-57.6877
12:50:42.483,-17.7813,-59.0002
12:50:42.493,-18.3126,-59.5002
12:50:42.504,-18.6563,-59.4377
12:50:42.512,-18.5313,-61.1877
12:50:42.523,-19.5313,-62.6877
12:50:42.532,-19.4688,-63.5002
12:50:42.543,-19.2188,-64.7502
12:50:42.552,-19.9376,-64.9377
12:50:42.563,-19.8126,-65.8128
12:50:42.572,-19.9688,-65.4378
12:50:42.583,-19.5626,-65.8753
12:50:42.592,-20.5313,-66.9378
12:50:42.603,-19.6563,-67.1253
12:50:42.612,-20.3126,-67.3753
12:50:42.623,-20.1251,-67.2503
12:50:42.633,-19.9688,-68.4378
12:50:42.643,-20.5313,-67.2503
12:50:42.663,-19.9376,-67.5003
12:50:42.666,-20.1876,-64.3127
12:50:42.676,-18.4063,-58.8127
12:50:42.683,-15.0313,-43.3752
12:50:42.699,-8.125,-20.6251
12:50:42.706,-2.0938,4.875
12:50:42.714,5.3438,26.6251
12:50:42.725,9.8438,46.0627
12:50:42.732,14.1251,57.8752
12:50:42.744,16.8438,68.1878
12:50:42.752,18.6251,73.9378
12:50:42.762,19.7188,79.8128
12:50:42.773,21.4688,83.2503
12:50:42.783,21.8751,87.3753
12:50:42.793,22.7501,89.4378
12:50:42.804,23.4688,91.0004
12:50:42.813,24.6563,93.8129
12:50:42.827,25.1563,96.8129
12:50:42.856,25.2188,99.0629
12:50:42.859,26.9689,101.1879
12:50:42.861,25.9063,102.0629
12:50:42.864,26.3751,104.3754
12:50:42.893,26.8126,104.4379
12:50:42.896,26.3438,103.3129
12:50:42.898,26.2501,102.4379
12:50:42.903,24.8438,99.5004
12:50:42.932,23.6251,95.4379
12:50:42.935,21.8751,89.3753
12:50:42.937,18.9376,83.6253
12:50:42.944,18.0626,76.8128
12:50:42.954,15.6251,71.5003
12:50:42.983,14.5626,65.7503
12:50:42.986,12.7188,61.8752
12:50:42.988,11.375,57.8127
12:50:42.995,10.2813,53.3752
12:50:43.009,9.4063,51.0002
12:50:43.013,9.125,48.0002
12:50:43.022,7.4375,46.3127
12:50:43.032,6.8125,42.1252
12:50:43.043,5.875,39.5627
12:50:43.052,5.5313,36.9376
12:50:43.068,4,33.8126
12:50:43.077,3.875,31.2501
12:50:43.087,1.9063,27.8751
12:50:43.097,1.5,24.5001
12:50:43.109,0.4688,21.3751
12:50:43.118,0.5,18.4376
12:50:43.127,-0.9688,15.1251
12:50:43.138,-2,12.0625
12:50:43.149,-3.1875,8.125
12:50:43.160,-3.875,4.4375
12:50:43.167,-4.5625,1.4375
12:50:43.177,-5.75,-2.5
12:50:43.188,-6.625,-6.6875
12:50:43.197,-7.3125,-9.625
12:50:43.208,-9.0625,-12.8125
12:50:43.217,-8.875,-16.2501
12:50:43.228,-10.7188,-20.5001
12:50:43.239,-11,-24.2501
12:50:43.248,-11.8438,-27.3751
12:50:43.257,-13.0313,-30.8126
12:50:43.268,-13.9063,-32.5626
12:50:43.277,-14.1251,-34.6251
12:50:43.288,-15.2188,-38.3751
12:50:43.297,-15.7501,-40.1252
12:50:43.309,-16.0001,-42.8752
12:50:43.318,-17.0313,-45.0627
12:50:43.328,-16.6876,-46.8752
12:50:43.337,-17.9063,-49.3127
12:50:43.350,-18.7813,-50.3127
12:50:43.358,-18.2501,-53.1252
12:50:43.368,-19.0001,-53.6877
12:50:43.381,-19.2813,-56.3127
12:50:43.391,-19.9688,-56.0002
12:50:43.398,-19.9376,-58.4377
12:50:43.407,-20.5001,-58.6877
12:50:43.418,-20.0313,-61.2502
12:50:43.439,-20.5001,-60.3752
12:50:43.442,-20.1876,-62.5627
12:50:43.458,-20.9376,-62.4377
12:50:43.459,-19.8751,-63.5002
12:50:43.474,-20.8438,-63.6877
12:50:43.478,-21.0001,-65.4377
12:50:43.488,-20.6876,-65.7503
12:50:43.497,-20.5313,-66.6253
12:50:43.508,-21.3438,-67.2503
12:50:43.518,-21.2501,-67.8753
12:50:43.527,-21.6251,-68.4378
12:50:43.559,-21.5001,-68.8753
12:50:43.564,-21.1251,-68.0628
12:50:43.566,-21.3126,-66.1253
12:50:43.569,-20.6251,-62.8752
12:50:43.596,-18.2501,-52.5627
12:50:43.599,-12.8125,-33.0001
12:50:43.601,-6.7188,-9.8125
12:50:43.639,0.7188,13.3126
12:50:43.642,5.3125,34.7501
12:50:43.646,10.2813,49.0002
12:50:43.647,14.3438,60.9377
12:50:43.653,15.9688,68.8753
12:50:43.661,18.5626,74.5628
12:50:43.689,19.4376,80.4378
12:50:43.692,20.2813,82.5628
12:50:43.694,21.5313,86.2503
12:50:43.702,21.9063,90.3129
12:50:43.730,22.9376,91.0629
12:50:43.734,23.3438,94.1879
12:50:43.736,24.2188,96.5004
12:50:43.740,24.5313,98.5004
12:50:43.748,25.0938,101.5004
12:50:43.763,25.2188,100.5629
12:50:43.768,25.6876,101.9379
12:50:43.778,24.9376,101.7504
12:50:43.789,24.6251,101.1879
12:50:43.799,23.8126,97.8129
12:50:43.808,22.4376,94.5004
12:50:43.818,20.5626,89.3128
12:50:43.828,18.1876,83.5003
12:50:43.840,16.3438,78.8753
12:50:43.848,15.3126,72.3128
12:50:43.858,13.3126,68.3128
12:50:43.869,11.875,62.2502
12:50:43.878,10.5313,58.4377
12:50:43.887,9.7813,55.0002
12:50:43.898,8.3438,50.0627
12:50:43.908,7.3125,48.6252
12:50:43.918,5.9375,44.0627
12:50:43.928,5.0313,41.8127
12:50:43.937,4.2188,38.5626
12:50:43.948,4.0313,35.6251
12:50:43.959,2.375,33.5001
12:50:43.967,2.1563,29.6876
12:50:43.988,0.4688,27.0626
12:50:43.995,-0.3438,23.3751
12:50:44.003,-1.2188,20.8751
12:50:44.008,-1.8125,15.3751
12:50:44.026,-3.375,13.8751
12:50:44.032,-4.0313,9.375
12:50:44.040,-5.4063,6.1875
12:50:44.049,-5.4375,2.1875
12:50:44.058,-6.3438,-1.1875
12:50:44.068,-8.0313,-4.5
12:50:44.078,-8.7813,-7
12:50:44.089,-10.3125,-10.5625
12:50:44.099,-9.7188,-14.6251
12:50:44.109,-10.7188,-18.6876
12:50:44.118,-12.5,-20.8751
12:50:44.127,-12.5938,-24.1876
12:50:44.139,-14.0001,-28.0001
12:50:44.148,-14.7501,-31.0626
12:50:44.157,-14.9376,-32.8126
12:50:44.169,-15.7501,-36.1251
12:50:44.178,-16.3438,-37.7501
12:50:44.189,-16.9063,-40.0627
12:50:44.199,-16.9688,-43.0627
12:50:44.208,-18.0001,-43.9377
12:50:44.219,-18.3126,-47.6877
12:50:44.230,-18.9063,-49.6252
12:50:44.240,-19.2501,-50.2502
12:50:44.247,-19.5313,-53.0002
12:50:44.279,-19.9688,-54.5627
12:50:44.282,-20.5626,-55.9377
12:50:44.284,-20.7501,-58.4377
12:50:44.312,-20.6876,-58.6877
12:50:44.313,-21.0001,-58.3127
12:50:44.316,-20.8126,-61.0627
12:50:44.324,-20.4376,-61.3127
12:50:44.333,-21.2501,-62.0002
12:50:44.338,-21.2501,-63.5002
12:50:44.370,-21.2813,-63.8752
12:50:44.373,-21.6876,-64.7502
12:50:44.373,-21.4688,-65.8128
12:50:44.381,-21.6563,-65.6878
12:50:44.404,-22.0313,-66.2503
12:50:44.406,-21.3751,-67.4378
12:50:44.411,-21.0938,-67.0628
12:50:44.438,-22.1876,-68.0003
12:50:44.441,-21.3751,-68.3128
12:50:44.444,-22.2188,-68.1878
12:50:44.448,-21.4688,-70.0628
12:50:44.459,-21.4376,-68.5003
12:50:44.467,-21.3438,-67.8753
12:50:44.480,-21.4688,-66.6253
12:50:44.489,-20.9688,-62.7502
12:50:44.498,-17.8438,-51.8127
12:50:44.512,-11.4063,-29.5626
12:50:44.521,-5.75,-4.8125
12:50:44.528,1.25,18.0626
12:50:44.538,6.8125,39.6877
12:50:44.549,11.3438,53.6877
12:50:44.558,14.9376,64.2502
12:50:44.568,15.7813,73.1253
12:50:44.579,18.7188,78.7503
12:50:44.589,20.0001,83.3753
12:50:44.597,21.1251,87.8753
12:50:44.609,21.9688,90.3753
12:50:44.617,22.8751,93.3754
12:50:44.627,23.4688,96.7504
12:50:44.638,23.8438,97.8129
12:50:44.647,24.6251,99.9379
12:50:44.657,24.6251,103.3754
12:50:44.668,25.7188,104.0629
12:50:44.678,25.4688,106.8754
12:50:44.689,25.7188,106.7504
12:50:44.699,25.0001,107.1254
12:50:44.709,25.1563,104.6254
12:50:44.721,23.0001,101.9379
12:50:44.729,21.8126,99.2504
12:50:44.748,20.0313,93.9379
12:50:44.751,18.5626,88.0628
12:50:44.761,17.2188,81.3753
12:50:44.768,13.8751,76.1878
12:50:44.783,12.8125,70.0003
12:50:44.799,10.9063,65.4378
12:50:44.801,9.1875,59.7502
12:50:44.808,8.3438,55.5627
12:50:44.840,6.7813,52.4377
12:50:44.842,4.875,48.6252
12:50:44.845,4.25,46.0002
12:50:44.849,3.7188,42.7502
12:50:44.859,2.0938,39.3127
12:50:44.869,1.1563,35.8751
12:50:44.877,0.2188,31.7501
12:50:44.893,-0.875,30.2501
12:50:44.898,-1.4688,25.2501
12:50:44.908,-2.7813,23.1251
12:50:44.917,-3.2813,19.1876
12:50:44.929,-4.5938,14.8126
12:50:44.937,-6.0625,11.375
12:50:44.948,-7.1875,7.625
12:50:44.957,-7.9688,2.375
12:50:44.968,-8.9063,-0.875
12:50:44.979,-9.5313,-4.375
12:50:44.989,-11.0625,-9.125
12:50:44.999,-11.625,-12.3125
12:50:45.008,-13.1563,-15.9376
12:50:45.041,-13.6251,-20.5001
12:50:45.041,-15.1876,-24.2501
12:50:45.045,-15.9063,-27.0626
12:50:45.050,-17.0626,-30.9376
12:50:45.081,-17.2501,-34.1251
12:50:45.083,-18.8438,-37.4376
12:50:45.085,-18.7188,-40.7502
12:50:45.093,-20.3751,-43.1252
12:50:45.101,-19.9688,-46.0627
12:50:45.129,-20.9063,-47.9377
12:50:45.131,-20.8438,-50.0002
12:50:45.134,-22.0001,-51.7502
12:50:45.139,-21.8751,-53.6252
12:50:45.167,-22.3751,-55.0627
12:50:45.169,-22.3751,-57.6252
12:50:45.172,-22.9688,-58.9377
12:50:45.179,-22.5938,-59.1877
12:50:45.189,-23.7813,-60.3752
12:50:45.198,-23.5313,-62.3127
12:50:45.208,-23.7501,-63.1252
12:50:45.219,-24.0313,-64.6252
12:50:45.229,-23.5626,-64.6877
12:50:45.238,-24.3126,-64.1877
12:50:45.249,-23.7501,-66.1253
12:50:45.257,-23.1563,-67.1253
12:50:45.268,-24.4688,-67.1253
12:50:45.279,-23.7501,-68.0628
12:50:45.288,-24.4376,-68.0003
12:50:45.299,-24.0313,-69.9378
12:50:45.320,-23.4688,-69.7503
12:50:45.325,-24.5001,-69.0628
12:50:45.327,-24.0938,-71.6253
12:50:45.341,-23.8126,-70.6253
12:50:45.356,-24.5938,-70.5628
12:50:45.362,-24.3126,-72.0003
12:50:45.370,-24.3438,-71.0628
12:50:45.377,-24.7501,-69.2503
12:50:45.388,-23.7813,-67.0003
12:50:45.400,-21.5001,-57.4377
12:50:45.407,-16.0313,-39.1251
12:50:45.419,-9.4063,-15.1251
12:50:45.429,-3.4375,9.1875
12:50:45.440,2.1875,29.3126
12:50:45.448,7.6875,46.8752
12:50:45.458,10.4688,58.0002
12:50:45.469,13.1563,66.7503
12:50:45.504,15.2188,74.5628
12:50:45.508,16.5626,78.0628
12:50:45.509,17.2188,84.3128
12:50:45.517,19.1876,86.1253
12:50:45.528,19.4063,90.7504
12:50:45.532,20.6563,91.8754
12:50:45.544,21.5001,95.3129
12:50:45.552,21.9688,96.9379
12:50:45.564,22.4063,99.0004
12:50:45.574,22.7501,101.6879
12:50:45.583,22.7188,102.5629
12:50:45.594,23.2501,103.3129
12:50:45.603,22.5001,104.0004
12:50:45.613,22.7813,101.0004
12:50:45.622,20.8126,99.2504
12:50:45.634,19.6563,94.8129
12:50:45.643,17.3126,87.8753
12:50:45.653,15.4376,80.8753
12:50:45.664,13.3126,75.0003
12:50:45.673,11.375,69.6253
12:50:45.685,10.0313,64.4377
12:50:45.694,8.25,60.1252
12:50:45.703,6.8125,55.0002
12:50:45.728,6.0625,50.8752
12:50:45.734,4.5313,47.7502
12:50:45.734,4.1563,45.3752
12:50:45.771,3.1875,42.3752
12:50:45.773,2.125,39.2501
12:50:45.775,1.8125,36.2501
12:50:45.778,0.4063,33.1876
12:50:45.784,0.0625,31.2501
12:50:45.815,-1.5,27.3751
12:50:45.817,-1.625,24.3751
12:50:45.819,-3.4688,19.8751
12:50:45.824,-3.7188,17.1876
12:50:45.862,-5.0313,14.8751
12:50:45.862,-5.9375,11.5625
12:50:45.867,-7.0313,7.375
12:50:45.867,-7.1563,3.3125
12:50:45.873,-8.375,0.375
12:50:45.889,-9.25,-3.375
12:50:45.895,-10.25,-7.9375
12:50:45.903,-10.9688,-11.375
12:50:45.912,-12.0625,-14.6876
12:50:45.924,-13.4063,-18.0001
12:50:45.934,-13.6876,-22.5001
12:50:45.943,-14.6563,-25.6251
12:50:45.953,-15.8126,-28.6251
12:50:45.963,-15.9376,-32.5626
12:50:45.972,-17.0001,-33.7501
12:50:45.983,-17.5626,-37.1251
12:50:45.993,-18.0938,-39.3126
12:50:46.003,-18.9063,-42.6252
12:50:46.018,-19.3751,-43.4377
12:50:46.024,-19.8126,-46.6877
12:50:46.034,-19.4688,-47.9377
12:50:46.043,-20.2813,-48.8127
12:50:46.054,-20.3751,-52.1252
12:50:46.075,-20.4688,-53.3752
12:50:46.079,-21.3438,-54.2502
12:50:46.087,-21.2501,-57.0002
12:50:46.096,-21.3438,-57.7502
12:50:46.122,-22.4063,-58.5002
12:50:46.137,-22.6876,-61.3752
12:50:46.140,-22.4063,-62.1252
12:50:46.141,-22.3751,-61.6252
12:50:46.144,-22.5313,-64.1252
12:50:46.153,-22.5313,-64.3127
12:50:46.166,-22.7813,-65.1252
12:50:46.174,-22.4376,-65.7503
12:50:46.183,-22.6251,-65.4378
12:50:46.193,-22.2813,-66.8753
12:50:46.202,-22.5313,-66.8753
12:50:46.213,-22.6876,-66.3128
12:50:46.224,-22.0938,-63.5627
12:50:46.234,-19.9376,-55.4377
12:50:46.242,-14.7813,-38.4376
12:50:46.253,-9.7188,-16.3126
12:50:46.263,-2.2188,7.375
12:50:46.273,3.1563,29.0626
12:50:46.283,8.9063,47.1877
12:50:46.293,12.5,59.5627
12:50:46.303,15.3438,69.8128
12:50:46.314,17.3438,76.0628
12:50:46.324,18.6251,81.1878
12:50:46.333,20.4376,86.1878
12:50:46.343,21.2501,90.1878
12:50:46.353,22.2813,92.8129
12:50:46.365,23.0938,96.8754
12:50:46.373,24.0313,99.6254
12:50:46.383,24.3438,104.0004
12:50:46.395,25.0001,106.1879
12:50:46.403,26.3126,109.3129
12:50:46.414,26.4689,110.6254
12:50:46.425,27.0939,113.1254
12:50:46.433,26.5001,114.6254
12:50:46.443,27.2189,114.6254
12:50:46.453,26.0313,112.5004
12:50:46.464,24.1876,108.1879
12:50:46.474,22.2501,105.4379
12:50:46.483,20.9063,98.3754
12:50:46.493,18.5313,92.5004
12:50:46.503,16.9063,86.0003
12:50:46.516,14.7813,80.1878
12:50:46.548,13.5313,75.5003
12:50:46.550,11.625,71.7503
12:50:46.552,10.2188,67.6253
12:50:46.555,9.1875,63.1252
12:50:46.589,8.3125,58.7502
12:50:46.593,6.9375,56.8127
12:50:46.595,6.2188,53.2502
12:50:46.598,5.4375,51.0627
12:50:46.631,4.2813,46.2502
12:50:46.633,3.1563,42.8127
12:50:46.704,2.2813,40.0002
12:50:46.706,0.8125,36.8126
12:50:46.719,0.5,33.3751
12:50:46.719,-0.625,30.2501
12:50:46.724,-2,26.5626
12:50:46.729,-2.3125,22.2501
12:50:46.734,-4.2813,20.0001
12:50:46.734,-4.3438,14.5001
12:50:46.734,-6.2813,11.125
12:50:46.738,-6.625,6.1875
12:50:46.750,-8.1563,3.875
12:50:46.759,-9.375,-1.375
12:50:46.768,-10.0938,-5.125
12:50:46.779,-11.0625,-9
12:50:46.789,-11.5,-12.625
12:50:46.798,-12.8438,-15.4376
12:50:46.808,-14.0938,-19.1876
12:50:46.818,-14.4688,-21.8751
12:50:46.829,-15.5001,-26.1251
12:50:46.840,-16.1563,-29.8751
12:50:46.849,-18.4063,-33.3126
12:50:46.859,-18.2501,-36.8751
12:50:46.869,-18.7501,-39.0627
12:50:46.879,-19.7188,-42.1252
12:50:46.889,-20.1251,-45.2502
12:50:46.899,-22.0626,-52.0627
12:50:46.910,-22.8438,-55.0627
12:50:46.918,-22.7813,-55.1877
12:50:46.928,-23.1251,-57.6252
12:50:46.938,-23.5001,-58.4377
12:50:46.948,-24.0313,-61.5627
12:50:46.958,-23.4376,-61.7502
12:50:46.968,-24.5626,-62.0627
12:50:46.979,-24.3751,-64.5002
12:50:46.989,-23.9376,-65.1252
12:50:46.998,-24.2813,-65.9378
12:50:47.008,-24.5001,-68.6878
12:50:47.018,-24.3126,-68.8753
12:50:47.029,-25.2813,-68.8128
12:50:47.039,-24.8751,-70.8128
12:50:47.049,-23.8751,-69.8753
12:50:47.058,-24.5313,-67.9378
12:50:47.069,-22.4688,-61.1877
12:50:47.079,-17.6563,-44.9377
12:50:47.088,-12.6875,-25.1251
12:50:47.103,-5.625,-0.5
12:50:47.114,1.0625,22.6251
12:50:47.124,6.25,41.3752
12:50:47.133,10.4375,57.0627
12:50:47.149,13.7501,66.5003
12:50:47.154,16.4688,75.0628
12:50:47.165,18.0938,81.0628
12:50:47.173,19.6251,86.6878
12:50:47.184,20.5001,91.7504
12:50:47.194,22.6251,96.6879
12:50:47.228,23.0001,100.3129
12:50:47.230,24.1251,104.0629
12:50:47.232,25.1251,108.8129
12:50:47.236,25.8438,111.4379
12:50:47.266,27.1251,115.8129
12:50:47.267,27.1251,118.563
12:50:47.268,27.1876,124.3755
12:50:47.274,28.1564,124.563
12:50:47.291,27.4064,124.438
12:50:47.293,26.9376,123.7505
12:50:47.331,25.5938,119.313
12:50:47.332,24.6876,114.8129
12:50:47.332,21.3751,109.3754
12:50:47.335,20.9688,103.1254
12:50:47.362,17.6251,97.3754
12:50:47.366,16.0626,91.6254
12:50:47.368,13.6251,85.9378
12:50:47.408,11.9375,81.0003
12:50:47.410,11.4063,76.5003
12:50:47.446,10.0313,72.8753
12:50:47.474,9.4063,69.3128
12:50:47.474,7.8125,66.1878
12:50:47.474,7.2813,63.2502
12:50:47.476,6.4375,58.6877
12:50:47.477,5.1563,56.6877
12:50:47.484,4.0938,52.4377
12:50:47.484,3.0313,49.1877
12:50:47.494,1.9688,45.2502
12:50:47.504,1.2813,42.0002
12:50:47.514,0.3438,38.2501
12:50:47.528,-1,34.0626
12:50:47.535,-2.2188,30.1251
12:50:47.544,-3.3125,26.5626
12:50:47.553,-4.2813,23.9376
12:50:47.563,-5.4688,18.8751
12:50:47.573,-6.5625,14.0626
12:50:47.585,-7.5,11
12:50:47.593,-8.5938,6.375
12:50:47.604,-9.2188,1.9375
12:50:47.614,-12.9063,-10.375
12:50:47.624,-14.0001,-13.3751
12:50:47.633,-14.8438,-16.0001
12:50:47.644,-14.8126,-19.0001
12:50:47.654,-16.2188,-23.3126
12:50:47.663,-17.2188,-26.9376
12:50:47.673,-17.8126,-29.6876
12:50:47.683,-18.4376,-31.7501
12:50:47.694,-18.9376,-34.5001
12:50:47.704,-19.4063,-36.6251
12:50:47.714,-19.9376,-40.1877
12:50:47.723,-20.8126,-41.3127
12:50:47.733,-21.0626,-45.0002
12:50:47.744,-21.5626,-45.6877
12:50:47.754,-22.2188,-49.1252
12:50:47.764,-22.4688,-50.7502
12:50:47.773,-22.9063,-51.0627
12:50:47.783,-22.8438,-54.8752
12:50:47.793,-22.5938,-56.0002
12:50:47.803,-24.0001,-57.3752
12:50:47.813,-24.0626,-60.1877
12:50:47.823,-24.2501,-61.0627
12:50:47.834,-24.5938,-64.2502
12:50:47.844,-25.0938,-64.6252
12:50:47.854,-25.3751,-67.7503
12:50:47.865,-25.5626,-68.4378
12:50:47.875,-24.9688,-68.6878
12:50:47.883,-26.5314,-69.6878
12:50:47.893,-25.9063,-69.0628
12:50:47.904,-24.9688,-66.3128
12:50:47.914,-22.1251,-56.0002
12:50:47.924,-17.9376,-40.8752
12:50:47.933,-10.9688,-19.3751
12:50:47.944,-5.5938,3.6875
12:50:47.954,0.4688,24.3751
12:50:47.964,5.4688,41.6877
12:50:47.974,9.0938,55.5002
12:50:47.995,12.3125,63.9377
12:50:48.000,14.8438,72.2503
12:50:48.009,16.1251,79.0003
12:50:48.015,17.6563,82.6878
12:50:48.031,18.8438,88.1253
12:50:48.037,20.0938,92.5629
12:50:48.046,21.3126,96.0629
12:50:48.053,22.6876,101.2504
12:50:48.063,22.8126,104.5629
12:50:48.088,23.8438,107.6879
12:50:48.091,25.0313,111.6879
12:50:48.094,25.8126,113.9379
12:50:48.134,26.5001,116.5004
12:50:48.136,25.8126,117.438
12:50:48.138,25.3126,119.063
12:50:48.141,25.0626,116.5629
12:50:48.148,24.1563,115.1254
12:50:48.154,22.0938,109.8754
12:50:48.184,19.7188,104.9379
12:50:48.187,17.5313,99.0004
12:50:48.190,15.5626,92.4379
12:50:48.196,13.7188,85.1878
12:50:48.230,12.125,79.3128
12:50:48.232,10.4063,74.6253
12:50:48.234,8.875,70.0628
12:50:48.241,7.4375,67.0628
12:50:48.250,6.75,62.6877
12:50:48.254,5.1563,60.5002
12:50:48.264,4.875,56.3127
12:50:48.281,3.1875,52.8752
12:50:48.283,3.1875,49.6877
12:50:48.295,1.2188,47.1877
12:50:48.303,0.375,43.0627
12:50:48.313,-0.5313,39.1252
12:50:48.324,-1.625,35.8126
12:50:48.334,-2.2188,32.0626
12:50:48.344,-3.125,28.6251
12:50:48.353,-4.625,23.3751
12:50:48.364,-5.875,20.8126
12:50:48.373,-6.5313,15.4376
12:50:48.384,-7.5625,11.625
12:50:48.393,-8.625,8.25
12:50:48.404,-10.3125,3.4375
12:50:48.413,-10.5625,-0.5
12:50:48.423,-12.375,-4.1875
12:50:48.434,-12.875,-7.875
12:50:48.443,-14.1251,-11.5
12:50:48.453,-14.9063,-14.6251
12:50:48.464,-15.7501,-19.1876
12:50:48.474,-17.0938,-21.3126
12:50:48.484,-17.6251,-25.6251
12:50:48.493,-18.0626,-28.7501
12:50:48.505,-19.6563,-32.3126
12:50:48.513,-19.5313,-34.8126
12:50:48.524,-21.1563,-38.1876
12:50:48.534,-21.0001,-40.8752
12:50:48.544,-21.7813,-43.1877
12:50:48.553,-22.3126,-45.4377
12:50:48.563,-22.6876,-46.8752
12:50:48.573,-23.0313,-50.0002
12:50:48.584,-23.3751,-51.6877
12:50:48.594,-24.3751,-53.0627
12:50:48.603,-24.7813,-56.7502
12:50:48.613,-24.3751,-58.0002
12:50:48.624,-25.7813,-60.1252
12:50:48.634,-25.4688,-61.9377
12:50:48.643,-25.3126,-62.0002
12:50:48.653,-25.6876,-65.1253
12:50:48.680,-26.2501,-66.1878
12:50:48.683,-26.7501,-67.1253
12:50:48.685,-26.5626,-69.6253
12:50:48.695,-26.5626,-70.7503
12:50:48.704,-27.1564,-72.5628
12:50:48.713,-26.4064,-73.2503
12:50:48.735,-27.7501,-74.2503
12:50:48.737,-27.4376,-75.3753
12:50:48.746,-27.0626,-73.8753
12:50:48.754,-26.7501,-71.3128
12:50:48.768,-23.1251,-60.6252
12:50:48.777,-19.7813,-44.3127
12:50:48.785,-13.5938,-24.1876
12:50:48.793,-5.5938,0.5625
12:50:48.804,-0.4063,21.7501
12:50:48.814,4.875,37.6251
12:50:48.856,8.5313,50.8127
12:50:48.857,11.25,59.3752
12:50:48.858,13.3438,68.2503
12:50:48.862,14.5938,73.2503
12:50:48.864,16.9376,78.8128
12:50:48.895,17.5938,83.1878
12:50:48.896,19.1251,87.0628
12:50:48.900,20.0938,92.0004
12:50:48.925,21.2188,95.4379
12:50:48.926,22.0001,98.6879
12:50:48.929,23.6876,103.1879
12:50:48.936,24.0938,107.1254
12:50:48.971,24.9376,110.6254
12:50:48.971,25.4376,112.5629
12:50:48.973,25.5313,114.8129
12:50:48.976,25.8126,115.6254
12:50:49.007,25.0313,114.6254
12:50:49.009,24.2813,112.3754
12:50:49.014,22.8751,108.8129
12:50:49.015,20.0001,103.9379
12:50:49.030,18.6251,96.4379
12:50:49.033,15.9688,91.1879
12:50:49.043,14.3751,84.8753
12:50:49.053,12.5,78.0628
12:50:49.064,11.1563,73.6253
12:50:49.073,10.0625,68.8753
12:50:49.084,8.625,64.8752
12:50:49.094,7.9063,61.3127
12:50:49.104,6.2813,57.9377
12:50:49.117,6.4063,55.5627
12:50:49.123,4.6563,52.4377
12:50:49.133,3.7188,49.9377
12:50:49.148,2.7188,45.6252
12:50:49.153,1.2188,42.3752
12:50:49.164,0.7188,38.5001
12:50:49.173,-0.8438,35.4376
12:50:49.184,-1.9688,30.9376
12:50:49.193,-2.9688,26.8751
12:50:49.203,-3.8125,23.1876
12:50:49.214,-4.7813,18.8751
12:50:49.224,-6.4375,15.7501
12:50:49.233,-7.3125,10.625
12:50:49.243,-8.25,6.25
12:50:49.254,-9.7188,2.375
12:50:49.264,-10.3125,-1.25
12:50:49.273,-11.5313,-4.9375
12:50:49.284,-12.4688,-8.3125
12:50:49.293,-13.3438,-12.9375
12:50:49.304,-14.2188,-16.1876
12:50:49.322,-16.0313,-19.0626
12:50:49.329,-15.7813,-23.3751
12:50:49.344,-17.3751,-25.4376
12:50:49.346,-17.2188,-30.0626
12:50:49.356,-18.6876,-31.8126
12:50:49.364,-19.0001,-35.5626
12:50:49.373,-19.0313,-38.3751
12:50:49.384,-20.9688,-40.8752
12:50:49.393,-20.5938,-43.8127
12:50:49.408,-22.0626,-45.8752
12:50:49.414,-21.5313,-48.3127
12:50:49.424,-23.0001,-50.1252
12:50:49.434,-23.2188,-53.1252
12:50:49.443,-23.0626,-54.1252
12:50:49.453,-23.9063,-57.4377
12:50:49.464,-23.6251,-59.2502
12:50:49.473,-24.6563,-59.6252
12:50:49.484,-25.6563,-62.5627
12:50:49.494,-24.8126,-64.0627
12:50:49.503,-25.9688,-66.0003
12:50:49.514,-25.8751,-67.5628
12:50:49.523,-26.3126,-69.6253
12:50:49.533,-26.7501,-72.0628
12:50:49.543,-27.0001,-73.0628
12:50:49.553,-27.3439,-75.6253
12:50:49.564,-27.1564,-76.0003
12:50:49.574,-28.2814,-76.0628
12:50:49.585,-27.8126,-77.1878
12:50:49.612,-27.0314,-75.5003
12:50:49.614,-25.9063,-69.8753
12:50:49.615,-22.1563,-57.7502
12:50:49.647,-17.7813,-40.6252
12:50:49.649,-11.0625,-17.3126
12:50:49.651,-4.7188,5.9375
12:50:49.653,0.6875,23.1251
12:50:49.685,4.9063,38.7501
12:50:49.687,7.9063,48.0002
12:50:49.690,10.25,56.5002
12:50:49.719,11.9375,63.5002
12:50:49.721,13.4688,68.1253
12:50:49.722,14.9688,73.4378
12:50:49.731,16.0313,76.9378
12:50:49.739,17.0938,81.5003
12:50:49.745,18.1251,84.6253
12:50:49.760,19.0001,88.6878
12:50:49.763,19.7813,91.6879
12:50:49.773,21.0626,95.6879
12:50:49.782,21.4376,98.3754
12:50:49.794,22.0001,101.2504
12:50:49.803,22.4688,103.1879
12:50:49.813,22.2188,105.2504
12:50:49.823,22.3438,104.8754
12:50:49.833,20.9376,104.0629
12:50:49.843,19.6563,100.6879
12:50:49.854,18.2813,96.3754
12:50:49.865,16.7188,90.9379
12:50:49.873,14.3126,84.8128
12:50:49.883,12.9375,79.5628
12:50:49.894,10.9375,72.0003
12:50:49.905,9.25,68.0628
12:50:49.913,7.4688,62.6252
12:50:49.924,6.75,59.6877
12:50:49.933,5.2188,55.1877
12:50:49.961,4.625,52.7502
12:50:49.963,3.875,49.3752
12:50:49.966,2.9375,46.2502
12:50:49.974,2.625,43.9377
12:50:49.984,1.4375,40.9377
12:50:49.994,0.5938,38.3126
12:50:50.004,-0.5938,35.0001
12:50:50.019,-1.4063,32.1251
12:50:50.031,-2.4375,27.8751
12:50:50.039,-3.6563,25.0626
12:50:50.053,-4.4375,20.7501
12:50:50.070,-5.4375,16.5626
12:50:50.073,-6.7813,13.5001
12:50:50.081,-7.2188,8.875
12:50:50.088,-8.7188,5.8125
12:50:50.098,-9.3438,1.1875
12:50:50.108,-10.7813,-2.5625
12:50:50.119,-11.6875,-6.125
12:50:50.129,-13.1251,-10.375
12:50:50.138,-13.125,-13.7501
12:50:50.148,-15.1876,-17.6251
12:50:50.159,-15.3126,-20.8751
12:50:50.169,-16.6251,-24.8126
12:50:50.179,-17.5938,-28.7501
12:50:50.189,-18.8751,-32.6251
12:50:50.198,-19.2501,-35.4376
12:50:50.209,-20.0938,-38.1251
12:50:50.218,-19.8438,-40.5627
12:50:50.250,-20.8126,-43.0627
12:50:50.253,-21.5001,-45.5002
12:50:50.255,-22.0626,-48.2502
12:50:50.258,-21.9063,-49.8752
12:50:50.289,-23.0313,-52.5627
12:50:50.292,-23.3126,-55.0002
12:50:50.293,-23.1876,-56.2502
12:50:50.301,-24.0938,-58.8127
12:50:50.326,-24.4376,-60.3752
12:50:50.328,-25.0938,-60.6252
12:50:50.331,-25.3438,-64.2502
12:50:50.361,-24.8126,-66.0003
12:50:50.363,-25.9376,-66.8753
12:50:50.366,-25.7501,-68.6878
12:50:50.372,-26.1563,-69.1878
12:50:50.386,-25.9376,-72.1253
12:50:50.389,-25.8126,-72.7503
12:50:50.407,-26.3751,-72.3753
12:50:50.410,-26.3439,-75.0003
12:50:50.421,-26.4376,-75.6253
12:50:50.429,-26.2501,-76.8753
12:50:50.438,-25.8126,-77.8753
12:50:50.449,-25.4376,-77.3753
12:50:50.458,-25.8126,-78.2503
12:50:50.468,-25.0313,-75.1253
12:50:50.478,-22.9063,-65.8753
12:50:50.488,-18.7501,-55.0002
12:50:50.498,-13.2188,-35.6251
12:50:50.509,-7.0938,-10
12:50:50.519,0.25,11.5
12:50:50.528,4.7813,29.8751
12:50:50.538,9.4063,43.1252
12:50:50.548,12.3438,55.3752
12:50:50.558,14.8751,62.9377
12:50:50.569,16.5626,69.9378
12:50:50.578,18.9063,75.8128
12:50:50.588,20.4063,82.1253
12:50:50.598,21.4063,86.0003
12:50:50.609,22.6876,90.6254
12:50:50.630,23.3751,94.4379
12:50:50.636,24.6251,98.0629
12:50:50.639,25.5001,101.8129
12:50:50.654,26.5626,105.3129
12:50:50.661,26.6876,109.5629
12:50:50.668,27.8126,112.0629
12:50:50.678,27.9064,114.7504
12:50:50.688,28.1251,116.4379
12:50:50.699,27.3439,117.438
12:50:50.710,26.3439,115.8754
12:50:50.719,25.3438,111.6879
12:50:50.730,23.9063,108.1254
12:50:50.739,22.6251,103.5629
12:50:50.749,19.9688,97.9379
12:50:50.759,18.2813,91.6879
12:50:50.769,16.3438,86.8753
12:50:50.779,15.0938,81.3128
12:50:50.788,13.3438,76.6878
12:50:50.798,11.6875,72.6878
12:50:50.808,10.25,68.1878
12:50:50.818,9.5938,65.1877
12:50:50.828,8.9375,62.6877
12:50:50.838,8.1563,59.3752
12:50:50.848,6.9063,56.3127
12:50:50.858,6.125,52.9377
12:50:50.869,4.5,50.5002
12:50:50.879,4.4688,46.1252
12:50:50.888,2.9375,42.3752
12:50:50.898,1.8438,39.1876
12:50:50.911,1.0625,35.0626
12:50:50.921,-1,31.5626
12:50:50.928,-2.0625,27.1251
12:50:50.938,-3.1875,22.7501
12:50:50.948,-4.3438,18.5626
12:50:50.958,-6.125,13.7501
12:50:50.968,-6.8438,9.375
12:50:50.978,-8.25,5.125
12:50:50.988,-9.7813,1.5
12:50:51.006,-10.0313,-3.4375
12:50:51.009,-11.4063,-7.25
12:50:51.038,-12.5625,-11.375
12:50:51.040,-13.5626,-14.8751
12:50:51.043,-14.6876,-18.5626
12:50:51.049,-16.1251,-21.9376
12:50:51.081,-16.6563,-25.4376
12:50:51.082,-17.6563,-29.1876
12:50:51.085,-19.3126,-31.7501
12:50:51.090,-19.4376,-35.8126
12:50:51.119,-20.4063,-37.9376
12:50:51.123,-21.1876,-41.5002
12:50:51.124,-21.8126,-44.1877
12:50:51.150,-22.6251,-46.8127
12:50:51.152,-22.9688,-50.0627
12:50:51.155,-24.0626,-52.1252
12:50:51.164,-24.3126,-55.0002
12:50:51.177,-25.1563,-56.6252
12:50:51.184,-25.1251,-60.4377
12:50:51.194,-25.9376,-61.7502
12:50:51.204,-26.5314,-63.1877
12:50:51.213,-26.8751,-66.3753
12:50:51.240,-26.9376,-66.7503
12:50:51.242,-28.1876,-70.4378
12:50:51.245,-28.0314,-71.7503
12:50:51.254,-28.6564,-73.3753
12:50:51.264,-29.4376,-75.5628
12:50:51.273,-29.7189,-76.3128
12:50:51.288,-29.6564,-79.1878
12:50:51.293,-30.4376,-81.8128
12:50:51.303,-31.1564,-83.2503
12:50:51.314,-31.1251,-85.8128
12:50:51.324,-31.6251,-86.5003
12:50:51.333,-31.2501,-87.7503
12:50:51.344,-31.3439,-88.9378
12:50:51.358,-31.8751,-90.6253
12:50:51.373,-31.4376,-88.8128
12:50:51.376,-30.8439,-86.6878
12:50:51.391,-27.9064,-77.1253
12:50:51.393,-24.1251,-63.9377
12:50:51.403,-18.1876,-43.0002
12:50:51.413,-11.4063,-18.3126
12:50:51.424,-4.5625,4.6875
12:50:51.433,0.1563,20.8751
12:50:51.444,3.7188,33.8751
12:50:51.453,6.2813,43.8752
12:50:51.463,8.375,50.8127
12:50:51.473,9.625,57.7502
12:50:51.484,12.4688,62.1877
12:50:51.494,12.6875,67.3753
12:50:51.504,14.8438,71.8128
12:50:51.514,15.0626,75.9378
12:50:51.523,16.4376,80.4378
12:50:51.534,17.3751,84.6878
12:50:51.544,18.4376,88.0003
12:50:51.553,18.4688,92.1879
12:50:51.564,19.2813,95.0004
12:50:51.574,20.3126,98.6879
12:50:51.584,20.3438,100.4379
12:50:51.593,20.0313,101.1254
12:50:51.603,20.0313,100.6879
12:50:51.613,18.6876,98.8754
12:50:51.624,18.0938,96.0004
12:50:51.633,15.8126,90.9379
12:50:51.644,13.7813,84.9378
12:50:51.654,11.3125,78.1878
12:50:51.663,9.8438,72.0003
12:50:51.675,7.75,67.6878
12:50:51.683,6.5625,62.6252
12:50:51.693,5.0313,57.7502
12:50:51.704,4.25,54.8752
12:50:51.714,2.8438,52.0002
12:50:51.723,1.7188,49.1252
12:50:51.733,1.5313,44.8752
12:50:51.744,0.1563,42.3127
12:50:51.754,-0.5625,39.1877
12:50:51.770,-1.8438,36.1251
12:50:51.773,-2.5,32.4376
12:50:51.803,-3.3438,28.7501
12:50:51.804,-4.8125,25.3751
12:50:51.806,-5.6563,22.1876
12:50:51.840,-6.9375,18.6251
12:50:51.841,-8,15.4376
12:50:51.843,-8.4688,10.9375
12:50:51.847,-10.4375,7.4375
12:50:51.878,-10.9688,2.625
12:50:51.880,-12.5313,0.125
12:50:51.882,-13.0938,-4.4375
12:50:51.908,-14.1251,-8.5625
12:50:51.909,-14.8751,-13.2501
12:50:51.912,-16.7813,-17.3126
12:50:51.917,-17.5001,-20.5626
12:50:51.925,-18.5001,-24.8751
12:50:51.956,-19.6251,-29.0001
12:50:51.958,-20.7501,-33.2501
12:50:51.961,-21.6251,-35.1876
12:50:51.965,-22.9063,-39.5627
12:50:51.974,-23.5938,-41.3127
12:50:51.984,-24.0001,-45.3752
12:50:51.994,-24.7813,-47.7502
12:50:52.005,-25.4063,-51.1877
12:50:52.013,-26.1876,-52.7502
12:50:52.024,-26.4689,-55.8127
12:50:52.039,-27.2814,-57.3752
12:50:52.043,-27.8439,-61.0002
12:50:52.054,-28.1564,-62.8752
12:50:52.063,-28.2501,-65.6252
12:50:52.073,-28.6564,-66.5628
12:50:52.083,-29.3126,-68.0003
12:50:52.093,-29.5939,-70.7503
12:50:52.103,-29.6251,-72.8753
12:50:52.114,-30.2189,-75.2503
12:50:52.123,-30.5939,-75.5003
12:50:52.134,-30.7814,-78.1878
12:50:52.143,-30.8439,-79.1253
12:50:52.153,-31.1251,-81.6878
12:50:52.164,-30.9689,-81.1878
12:50:52.173,-31.1564,-83.9378
12:50:52.183,-31.7814,-84.5628
12:50:52.193,-32.0939,-86.5003
12:50:52.203,-31.5001,-86.4378
12:50:52.214,-31.8126,-88.5628
12:50:52.223,-31.6564,-89.3128
12:50:52.233,-31.9689,-90.2504
12:50:52.243,-31.4376,-90.0003
12:50:52.254,-32.0626,-90.5628
12:50:52.264,-30.5626,-85.3753
12:50:52.273,-27.8439,-77.0003
12:50:52.283,-23.7813,-61.6877
12:50:52.294,-17.3751,-40.6252
12:50:52.303,-10.9375,-15.4376
12:50:52.313,-4.3438,6.5625
12:50:52.323,0.125,23.2501
12:50:52.333,4.125,35.0001
12:50:52.344,6.1563,45.3752
12:50:52.353,8.4688,51.6252
12:50:52.364,10.7188,57.8127
12:50:52.374,11.875,63.4377
12:50:52.383,13.4376,67.5003
12:50:52.393,14.4688,72.6253
12:50:52.404,15.1251,74.8753
12:50:52.414,16.3751,78.5003
12:50:52.425,16.9688,83.8753
12:50:52.434,17.7501,86.3128
12:50:52.443,18.7501,89.7503
12:50:52.454,18.0626,92.0629
12:50:52.464,19.0938,94.3754
12:50:52.473,19.5001,97.0004
12:50:52.483,19.8751,96.9379
12:50:52.493,19.1876,96.6254
12:50:52.522,18.2813,95.0629
12:50:52.526,16.7188,91.1879
12:50:52.528,15.2501,86.5003
12:50:52.534,13.1563,80.9378
12:50:52.566,11.3125,74.5003
12:50:52.568,9.2188,67.3753
12:50:52.569,7.0938,63.2502
12:50:52.575,6.0625,57.4377
12:50:52.600,4.3438,54.3127
12:50:52.602,3.8438,49.4377
12:50:52.603,2.0938,46.7502
12:50:52.629,2.0938,43.7502
12:50:52.633,0.1563,42.2502
12:50:52.635,0.0625,38.1251
12:50:52.675,-0.6563,34.0001
12:50:52.678,-1.5625,31.0626
12:50:52.681,-3.0625,28.1876
12:50:52.697,-3.625,25.0626
12:50:52.697,-4.875,20.8126
12:50:52.697,-5.7813,17.9376
12:50:52.706,-6.9375,13.4376
12:50:52.713,-8,10.5
12:50:52.723,-8.8125,6.375
12:50:52.734,-10.375,2.75
12:50:52.743,-10.9688,-1
12:50:52.754,-12.5,-5.125
12:50:52.763,-12.7188,-8.4375
12:50:52.773,-14.3438,-12.8125
12:50:52.789,-15.3438,-16.4376
12:50:52.793,-16.2501,-19.9376
12:50:52.804,-17.4376,-24.5001
12:50:52.813,-17.9688,-27.5626
12:50:52.825,-18.5313,-30.1251
12:50:52.834,-19.2501,-32.6876
12:50:52.843,-20.9688,-35.7501
12:50:52.853,-20.5938,-40.0627
12:50:52.864,-21.7501,-41.1877
12:50:52.873,-22.3438,-45.6877
12:50:52.883,-23.2813,-46.7502
12:50:52.893,-23.3438,-51.0627
12:50:52.904,-24.5626,-52.2502
12:50:52.913,-25.0313,-55.6877
12:50:52.924,-25.5001,-58.5627
12:50:52.933,-25.6876,-59.4377
12:50:52.944,-26.3751,-63.8752
12:50:52.953,-26.6876,-64.6252
12:50:52.964,-27.0939,-67.8753
12:50:52.973,-28.4689,-69.1878
12:50:52.984,-29.0001,-73.3753
12:50:52.994,-30.3439,-74.4378
12:50:53.003,-30.6564,-77.9378
12:50:53.014,-31.8439,-79.3128
12:50:53.023,-31.7814,-82.1878
12:50:53.033,-31.8751,-82.8753
12:50:53.043,-31.7501,-85.2503
12:50:53.053,-32.0314,-84.9378
12:50:53.064,-31.6251,-86.8128
12:50:53.074,-31.6564,-86.1253
12:50:53.085,-30.0314,-86.9378
12:50:53.094,-29.1564,-85.5003
12:50:53.104,-25.6563,-83.1253
12:50:53.113,-21.1876,-76.5003
12:50:53.123,-17.2188,-70.2503
12:50:53.133,-14.5313,-68.0003
12:50:53.144,-12.5,-63.8127
12:50:53.154,-10.3125,-62.1877
12:50:53.164,-8.8125,-57.5002
12:50:53.173,-7.5313,-53.3752
12:50:53.184,-4.3438,-44.6877
12:50:53.194,-1.375,-31.1876
12:50:53.203,4.5,-12.75
12:50:53.233,11,12.8125
12:50:53.236,18.3751,35.4376
12:50:53.267,24.0626,57.5002
12:50:53.270,27.9064,71.1253
12:50:53.272,31.3439,84.8753
12:50:53.274,34.1251,96.1879
12:50:53.274,36.8126,104.4379
12:50:53.308,37.3439,112.0629
12:50:53.310,39.6564,117.313
12:50:53.312,41.6252,124.063
12:50:53.317,41.8127,129.563
12:50:53.348,43.4377,134.2505
12:50:53.350,44.0002,139.438
12:50:53.351,44.9064,143.438
12:50:53.355,46.8752,149.1881
12:50:53.387,46.9689,155.3131
12:50:53.389,47.8752,157.0631
12:50:53.391,47.4377,160.0631
12:50:53.397,47.3752,162.3756
12:50:53.404,47.4377,164.1881
12:50:53.416,45.7189,163.7506
12:50:53.424,45.1252,161.5006
12:50:53.433,43.4377,160.0006
12:50:53.443,41.1564,154.5631
12:50:53.453,38.9064,151.3131
12:50:53.463,37.2501,144.688
12:50:53.474,34.8439,138.938
12:50:53.484,32.6251,133.438
12:50:53.493,31.0939,128.8755
12:50:53.504,29.3751,125.188
12:50:53.513,27.3126,121.0005
12:50:53.523,26.8439,117.1879
12:50:53.538,25.3751,114.6254
12:50:53.545,23.8751,111.7504
12:50:53.553,23.5313,108.2504
12:50:53.563,21.5626,105.8129
12:50:53.573,20.3126,100.7504
12:50:53.583,18.9063,95.8129
12:50:53.593,17.4063,92.1879
12:50:53.603,16.1251,87.5628
12:50:53.614,14.3751,84.5628
12:50:53.624,13.4376,78.9378
12:50:53.634,11.75,75.3753
12:50:53.644,10.3125,70.0628
12:50:53.654,9.0938,64.8127
12:50:53.664,7.0625,60.9377
12:50:53.675,6.3125,55.6877
12:50:53.684,4.5,51.2502
12:50:53.694,2.4375,46.6877
12:50:53.703,1.2188,40.8752
12:50:53.713,0.375,36.4376
12:50:53.724,-1.4688,31.1251
12:50:53.734,-1.8125,27.7501
12:50:53.743,-3.0938,23.4376
12:50:53.754,-4.6563,18.9376
12:50:53.764,-5.875,15.3126
12:50:53.773,-6.7813,10.8125
12:50:53.800,-8.4063,6.875
12:50:53.807,-9.4063,2.25
12:50:53.807,-10.5313,-1.25
12:50:53.813,-10.6563,-4.4375
12:50:53.823,-11.7813,-7.9375
12:50:53.833,-12.9688,-10.9375
12:50:53.843,-13.5313,-14.4376
12:50:53.855,-14.5001,-17.1251
12:50:53.864,-14.2813,-20.6876
12:50:53.878,-15.9063,-23.2501
12:50:53.883,-15.9376,-26.2501
12:50:53.909,-17.2813,-29.3126
12:50:53.913,-17.4063,-32.5626
12:50:53.915,-18.4688,-34.8751
12:50:53.981,-18.5626,-38.0001
12:50:53.981,-19.8126,-41.3752
12:50:53.984,-19.5001,-43.7502
12:50:53.985,-21.2188,-46.5002
12:50:53.991,-20.5001,-49.6252
12:50:53.995,-21.9688,-51.7502
12:50:53.995,-22.3126,-54.4377
12:50:53.999,-22.6876,-55.4377
12:50:54.029,-23.5313,-59.1877
12:50:54.031,-23.2188,-60.5002
12:50:54.033,-24.3438,-61.6877
12:50:54.040,-24.4376,-64.7502
12:50:54.059,-23.7813,-66.6878
12:50:54.061,-25.1251,-67.7503
12:50:54.069,-25.8751,-71.5628
12:50:54.078,-25.6563,-72.7503
12:50:54.089,-26.2501,-74.3128
12:50:54.099,-26.8751,-75.5003
12:50:54.108,-26.2501,-76.0628
12:50:54.119,-25.8438,-75.2503
12:50:54.128,-24.1876,-70.6878
12:50:54.138,-21.7188,-62.5627
12:50:54.148,-19.0626,-50.0002
12:50:54.158,-11.4063,-23.1876
12:50:54.168,-5.4688,-2.9375
12:50:54.178,-0.5938,13.8751
12:50:54.188,4.5625,29.2501
12:50:54.199,6.875,41.3752
12:50:54.209,10.7813,51.5002
12:50:54.218,12.4688,60.0002
12:50:54.229,14.9376,67.3128
12:50:54.238,16.1876,74.4378
12:50:54.249,18.0626,79.5003
12:50:54.258,19.4688,86.6253
12:50:54.268,20.4688,90.4379
12:50:54.279,21.9376,96.4379
12:50:54.288,22.1876,101.7504
12:50:54.300,23.1876,105.1879
12:50:54.310,25.0313,110.6879
12:50:54.318,25.0938,114.3754
12:50:54.328,26.0938,117.5629
12:50:54.339,25.8438,121.2505
12:50:54.348,25.8126,121.2505
12:50:54.358,24.3126,121.0005
12:50:54.369,24.0938,119.188
12:50:54.379,21.8126,116.0004
12:50:54.388,20.3438,111.6254
12:50:54.399,18.5626,106.1879
12:50:54.409,16.3751,101.3754
12:50:54.419,14.2813,95.6879
12:50:54.432,13.1563,90.3129
12:50:54.439,11.0938,85.3128
12:50:54.449,9.9375,81.4378
12:50:54.458,8.6875,77.5003
12:50:54.468,7.5938,73.8128
12:50:54.478,5.8438,70.3128
12:50:54.490,5.3438,66.7503
12:50:54.500,3.9688,63.9377
12:50:54.508,3.3125,61.1252
12:50:54.530,2.7813,57.0002
12:50:54.533,1.3125,53.6877
12:50:54.548,-0.5313,49.5002
12:50:54.549,-1.3125,44.7502
12:50:54.559,-2.6563,41.2502
12:50:54.568,-4.0938,37.1251
12:50:54.578,-4.625,33.0626
12:50:54.589,-6.625,28.8126
12:50:54.598,-7.6875,24.4376
12:50:54.609,-8.875,20.3126
12:50:54.620,-9.625,15.8751
12:50:54.628,-10.5313,11.0625
12:50:54.638,-11.5313,7.5625
12:50:54.649,-12.7188,3.6875
12:50:54.683,-13.9063,-0.5625
12:50:54.684,-15.0001,-5.3125
12:50:54.686,-17.0626,-9.3125
12:50:54.688,-17.9063,-13
12:50:54.718,-18.2501,-17.1251
12:50:54.720,-19.4688,-20.4376
12:50:54.722,-20.1251,-23.9376
12:50:54.759,-20.7813,-27.7501
12:50:54.761,-21.5938,-30.8126
12:50:54.763,-22.4688,-33.5626
12:50:54.768,-23.4376,-36.8751
12:50:54.771,-23.8438,-40.3752
12:50:54.780,-24.1563,-43.5002
12:50:54.809,-25.0313,-45.5627
12:50:54.811,-25.4688,-49.1877
12:50:54.813,-26.7814,-50.5627
12:50:54.820,-26.9689,-55.1877
12:50:54.850,-26.9064,-57.9377
12:50:54.851,-28.5001,-60.0002
12:50:54.853,-28.5314,-63.0002
12:50:54.861,-29.0314,-64.4377
12:50:54.871,-30.0314,-66.8753
12:50:54.879,-29.7501,-69.9378
12:50:54.889,-30.0314,-70.3128
12:50:54.898,-30.6564,-72.9378
12:50:54.908,-31.0939,-75.2503
12:50:54.919,-31.2501,-76.5003
12:50:54.928,-31.3126,-80.1253
12:50:54.939,-31.5626,-80.5003
12:50:54.949,-32.5001,-81.4378
12:50:54.958,-32.6564,-84.7503
12:50:54.969,-33.0001,-85.1878
12:50:54.979,-33.0626,-89.0003
12:50:54.989,-33.6251,-90.8129
12:50:54.999,-33.9689,-91.6879
12:50:55.009,-33.7814,-93.1254
12:50:55.018,-34.1876,-94.1879
12:50:55.028,-33.4689,-94.6879
12:50:55.038,-34.7189,-94.8754
12:50:55.049,-32.8439,-92.3754
12:50:55.080,-31.0939,-85.1253
12:50:55.083,-27.7501,-75.0003
12:50:55.088,-22.3438,-57.3127
12:50:55.094,-16.6251,-37.3126
12:50:55.104,-10.5,-15.8126
12:50:55.114,-5.5,0.9375
12:50:55.124,-0.75,16.3751
12:50:55.134,2.8438,27.5001
12:50:55.149,6.4375,39.3751
12:50:55.159,8.4688,47.5002
12:50:55.168,11.2813,55.7502
12:50:55.179,12.75,62.3127
12:50:55.188,14.6251,67.5003
12:50:55.198,15.3438,73.3753
12:50:55.208,16.7501,78.1878
12:50:55.225,18.2188,83.5003
12:50:55.228,19.1563,88.0003
12:50:55.240,20.4063,92.7504
12:50:55.253,21.5938,99.6879
12:50:55.260,22.3751,102.8754
12:50:55.276,22.8438,106.3754
12:50:55.278,22.8751,108.3129
12:50:55.288,23.2188,108.5004
12:50:55.299,21.2813,107.5629
12:50:55.309,19.5938,104.5004
12:50:55.319,18.1563,100.1879
12:50:55.329,16.5001,94.1254
12:50:55.339,14.5626,88.8128
12:50:55.361,12.875,84.8128
12:50:55.366,11.25,79.6253
12:50:55.378,9.8125,74.1878
12:50:55.381,8.5,70.4378
12:50:55.405,6.9688,67.4378
12:50:55.407,6.5625,64.1252
12:50:55.409,4.9375,61.5002
12:50:55.438,3.875,58.3127
12:50:55.440,3.0313,53.8127
12:50:55.442,1.7813,50.4377
12:50:55.450,0.7813,47.9377
12:50:55.483,-0.4375,43.7502
12:50:55.486,-1.25,40.3127
12:50:55.488,-2.3125,36.3126
12:50:55.491,-3.9063,33.1876
12:50:55.523,-4.8125,29.3751
12:50:55.525,-6.125,25.0001
12:50:55.527,-7.2813,21.3126
12:50:55.529,-8.3438,17.3126
12:50:55.544,-9.875,12.4375
12:50:55.550,-10,8.375
12:50:55.560,-11.4375,4.6875
12:50:55.569,-12.3438,1.375
12:50:55.578,-13.7813,-2.6875
12:50:55.589,-14.7501,-7.375
12:50:55.599,-16.4688,-10.875
12:50:55.609,-17.3126,-15.3751
12:50:55.618,-18.3751,-17.3751
12:50:55.629,-18.6563,-22.9376
12:50:55.639,-19.8438,-25.6876
12:50:55.649,-20.3751,-28.7501
12:50:55.658,-21.8751,-31.3751
12:50:55.669,-21.5313,-35.6251
12:50:55.679,-22.3751,-39.0002
12:50:55.689,-23.1563,-41.6252
12:50:55.698,-24.1876,-43.3127
12:50:55.709,-25.0001,-46.9377
12:50:55.719,-25.3751,-51.0002
12:50:55.728,-25.4688,-52.6877
12:50:55.738,-26.5626,-56.7502
12:50:55.748,-26.5001,-58.3752
12:50:55.759,-27.7189,-59.4377
12:50:55.768,-27.7189,-63.3752
12:50:55.778,-27.8751,-65.4378
12:50:55.789,-29.2189,-67.6878
12:50:55.799,-28.8751,-70.1878
12:50:55.809,-29.5626,-72.1253
12:50:55.826,-29.8126,-74.9378
12:50:55.834,-30.5001,-76.1878
12:50:55.848,-31.2814,-79.6253
12:50:55.852,-31.2501,-81.0628
12:50:55.858,-32.2189,-81.4378
12:50:55.868,-32.3751,-84.8128
12:50:55.879,-32.0939,-86.5003
12:50:55.888,-33.1251,-88.3753
12:50:55.899,-32.8126,-89.8128
12:50:55.909,-33.7501,-90.8753
12:50:55.919,-33.6564,-93.6254
12:50:55.928,-33.5001,-95.1879
12:50:55.939,-34.8439,-94.8129
12:50:55.949,-34.5626,-98.5004
12:50:55.958,-33.9689,-98.2504
12:50:55.973,-34.3126,-97.8754
12:50:55.980,-32.5626,-95.8754
12:50:55.989,-31.1251,-88.6878
12:50:55.998,-27.1564,-78.3128
12:50:56.008,-23.0313,-61.0002
12:50:56.019,-15.8751,-39.9377
12:50:56.028,-10.9063,-19.2501
12:50:56.039,-5.625,-3.8125
12:50:56.049,-0.5313,11.375
12:50:56.059,2.625,22.4376
12:50:56.068,5.9375,32.5001
12:50:56.078,7.6875,40.6877
12:50:56.088,9.75,46.3127
12:50:56.098,11.9688,54.0627
12:50:56.110,13.7188,59.1252
12:50:56.118,15.2813,63.1252
12:50:56.129,16.0001,67.3753
12:50:56.144,16.9688,71.0003
12:50:56.150,17.5001,75.6253
12:50:56.182,18.4688,77.8753
12:50:56.184,19.4376,82.3753
12:50:56.187,19.8126,83.8753
12:50:56.189,20.5938,87.3128
12:50:56.223,20.4376,89.0003
12:50:56.225,20.6251,89.5003
12:50:56.226,20.0001,88.2503
12:50:56.251,19.3438,87.2503
12:50:56.252,17.5313,83.1878
12:50:56.255,15.5001,79.1253
12:50:56.261,13.9376,73.8753
12:50:56.287,13.0938,67.8753
12:50:56.290,10.0313,62.8752
12:50:56.292,8.6875,59.0002
12:50:56.317,7.6875,54.0002
12:50:56.320,6.375,50.5002
12:50:56.322,5.6875,47.8752
12:50:56.329,4.4063,44.8127
12:50:56.361,3.25,41.7502
12:50:56.362,2.75,38.9376
12:50:56.367,2.4063,37.0626
12:50:56.372,0.9063,34.5626
12:50:56.383,-0.125,31.5001
12:50:56.391,-1.1563,27.5001
12:50:56.398,-2.3125,24.1876
12:50:56.409,-3.0625,21.7501
12:50:56.418,-4.0625,18.0626
12:50:56.428,-4.9688,14.0001
12:50:56.438,-5.5625,10.6875
12:50:56.449,-7.125,8.4375
12:50:56.459,-8.125,5
12:50:56.470,-9,0.8125
12:50:56.479,-9.9063,-3
12:50:56.489,-11.5625,-5.875
12:50:56.499,-11.9063,-9.5625
12:50:56.508,-13,-13
12:50:56.524,-13.6563,-16.2501
12:50:56.533,-14.6563,-20.3751
12:50:56.553,-15.1251,-23.3126
12:50:56.556,-16.5626,-26.0626
12:50:56.572,-17.2813,-29.3751
12:50:56.574,-17.7188,-32.2501
12:50:56.584,-18.8126,-36.0626
12:50:56.593,-20.0626,-39.3126
12:50:56.604,-20.7188,-41.5002
12:50:56.614,-21.0938,-44.3752
12:50:56.624,-21.5313,-46.9377
12:50:56.633,-22.3751,-49.0002
12:50:56.644,-22.5938,-51.3752
12:50:56.654,-23.2188,-53.5627
12:50:56.664,-24.0313,-57.3127
12:50:56.674,-24.5313,-58.6252
12:50:56.683,-25.8126,-61.7502
12:50:56.693,-25.2813,-65.2503
12:50:56.703,-26.4064,-65.6253
12:50:56.713,-26.2188,-68.8753
12:50:56.723,-27.3751,-70.2503
12:50:56.733,-27.7814,-72.8128
12:50:56.745,-27.3439,-74.3128
12:50:56.756,-28.3439,-76.0003
12:50:56.764,-28.6251,-77.8753
12:50:56.774,-28.8439,-79.1253
12:50:56.784,-29.6251,-81.5003
12:50:56.793,-29.4064,-82.5003
12:50:56.804,-29.9064,-84.7503
12:50:56.829,-29.9376,-85.8128
12:50:56.831,-30.5626,-86.6878
12:50:56.834,-30.4376,-88.5003
12:50:56.863,-30.7501,-90.6253
12:50:56.867,-31.0939,-90.3753
12:50:56.868,-31.5626,-93.3754
12:50:56.873,-31.7501,-95.0004
12:50:56.903,-32.8439,-94.9379
12:50:56.905,-31.6876,-96.5629
12:50:56.907,-31.7814,-94.3129
12:50:56.914,-30.2814,-91.8754
12:50:56.946,-27.5939,-84.3753
12:50:56.949,-24.5001,-70.3753
12:50:56.951,-18.0001,-52.8127
12:50:56.953,-12.1563,-31.9376
12:50:56.987,-6.0625,-12.875
12:50:56.988,-0.5,4.875
12:50:56.989,3.3125,16.6876
12:50:56.993,6.875,28.6876
12:50:57.005,9.5938,35.8751
12:50:57.014,11.8125,43.9377
12:50:57.024,13.0938,48.7502
12:50:57.033,14.8438,54.5002
12:50:57.044,16.0001,60.0627
12:50:57.053,17.0001,63.0627
12:50:57.063,17.9063,68.1878
12:50:57.074,19.2501,69.5003
12:50:57.084,20.0313,73.8753
12:50:57.094,20.5626,77.0628
12:50:57.103,22.0938,80.3128
12:50:57.113,22.0313,83.5003
12:50:57.129,22.5001,85.2503
12:50:57.146,22.9688,86.7503
12:50:57.148,22.4376,86.4378
12:50:57.153,21.9376,85.8753
12:50:57.163,20.6876,82.6878
12:50:57.173,19.2813,78.6878
12:50:57.183,17.6876,74.0003
12:50:57.193,16.3126,69.1253
12:50:57.204,14.4376,64.3752
12:50:57.214,13.125,59.7502
12:50:57.224,11.5625,55.0627
12:50:57.234,9.6875,51.2502
12:50:57.244,9.5313,47.9377
12:50:57.253,7.8125,44.8127
12:50:57.264,6.9375,42.2502
12:50:57.274,6.0313,38.1876
12:50:57.283,4.8125,35.8126
12:50:57.293,4.25,33.3126
12:50:57.305,4.5,31.4376
12:50:57.314,2.5938,28.6876
12:50:57.324,2.125,25.1876
12:50:57.333,0.5313,22.1251
12:50:57.344,-0.0938,20.6251
12:50:57.354,-0.1875,15.7501
12:50:57.364,-2.4063,12.5
12:50:57.374,-2.8438,9.5
12:50:57.383,-3.7188,5.875
12:50:57.393,-4.2813,3.3125
12:50:57.404,-5.375,0
12:50:57.414,-6.625,-3.4375
12:50:57.425,-7.4063,-6.1875
12:50:57.433,-8.3438,-9.8125
12:50:57.444,-10,-12.4375
12:50:57.453,-9.7188,-16.8126
12:50:57.464,-11.8438,-18.9376
12:50:57.473,-12.1563,-22.3751
12:50:57.483,-13.2501,-26.6251
12:50:57.493,-13.6563,-27.7501
12:50:57.504,-14.2501,-32.3126
12:50:57.513,-15.2813,-33.2501
12:50:57.523,-15.8438,-36.8126
12:50:57.533,-16.5313,-38.9376
12:50:57.543,-16.9063,-41.6252
12:50:57.553,-17.4376,-43.5002
12:50:57.563,-18.4063,-46.6252
12:50:57.573,-18.9376,-48.2502
12:50:57.585,-19.7501,-50.9377
12:50:57.605,-20.0313,-53.1252
12:50:57.607,-20.7813,-53.6877
12:50:57.639,-21.1563,-57.4377
12:50:57.641,-21.0938,-59.2502
12:50:57.642,-22.5938,-61.0002
12:50:57.645,-22.5938,-63.7502
12:50:57.656,-22.4063,-65.0002
12:50:57.687,-23.7188,-66.3128
12:50:57.689,-24.0626,-68.8753
12:50:57.691,-24.0001,-69.8753
12:50:57.693,-25.1876,-71.6878
12:50:57.724,-25.1876,-74.5628
12:50:57.727,-25.6563,-74.7503
12:50:57.730,-26.4689,-77.8128
12:50:57.759,-26.6251,-79.2503
12:50:57.759,-27.2814,-80.1878
12:50:57.760,-27.2189,-82.0628
12:50:57.767,-27.8126,-83.8128
12:50:57.779,-28.5001,-85.7503
12:50:57.784,-29.0626,-86.6253
12:50:57.793,-29.2189,-88.0628
12:50:57.803,-29.4689,-90.0628
12:50:57.813,-29.8126,-89.8128
12:50:57.825,-29.2501,-92.1879
12:50:57.833,-29.9064,-92.6879
12:50:57.850,-29.0626,-90.8753
12:50:57.866,-27.6564,-88.6253
12:50:57.868,-25.3751,-81.5003
12:50:57.876,-21.6563,-71.1253
12:50:57.888,-16.2813,-52.0627
12:50:57.894,-8.6563,-29.1876
12:50:57.903,-2.3438,-10.0625
12:50:57.913,3.0313,9.5625
12:50:57.923,6.9688,22.8751
12:50:57.933,3.3438,23.0001
12:50:57.943,10.6563,40.2502
12:50:57.953,14.8126,50.3127
12:50:57.963,18.4688,58.8752
12:50:57.973,20.0626,66.1253
12:50:57.984,22.1251,71.1878
12:50:57.993,23.9688,76.3753
12:50:58.004,24.8126,81.6878
12:50:58.014,26.2813,83.8753
12:50:58.024,26.1876,88.9378
12:50:58.034,26.6251,90.3128
12:50:58.043,27.4064,93.6254
12:50:58.053,27.9376,96.7504
12:50:58.063,26.0001,95.1879
12:50:58.075,28.5939,100.5629
12:50:58.084,28.2501,101.7504
12:50:58.094,26.8751,100.1879
12:50:58.103,25.3751,98.1254
12:50:58.114,24.0626,93.7504
12:50:58.123,21.6876,89.5628
12:50:58.134,19.7813,83.3753
12:50:58.144,18.0626,77.5003
12:50:58.153,16.2188,72.1253
12:50:58.163,15.0938,68.0628
12:50:58.173,13.4688,63.4377
12:50:58.183,13.0625,60.6252
12:50:58.194,10.9063,57.0627
12:50:58.204,9.6875,53.6252
12:50:58.214,8.5313,49.0002
12:50:58.224,6.625,46.5002
12:50:58.233,5.1875,41.1252
12:50:58.244,3.5,37.0626
12:50:58.254,1.875,32.6251
12:50:58.270,0.0313,27.3751
12:50:58.275,-1.7188,22.6876
12:50:58.284,-3.9375,18.3126
12:50:58.314,-6,13.8126
12:50:58.316,-7.4063,9
12:50:58.318,-9.3125,3.1875
12:50:58.325,-11.1875,-1.875
12:50:58.355,-12.9688,-7.1875
12:50:58.358,-14.5313,-12.375
12:50:58.361,-16.5938,-17.8751
12:50:58.363,-18.0626,-23.3126
12:50:58.400,-20.7501,-29.0001
12:50:58.401,-22.4688,-33.9376
12:50:58.407,-23.2188,-39.1252
12:50:58.409,-24.5626,-43.6877
12:50:58.489,-26.0001,-47.5627
12:50:58.489,-27.7189,-53.0627
12:50:58.499,-29.1251,-57.3127
12:50:58.501,-30.6251,-61.3752
12:50:58.501,-31.7501,-66.1253
12:50:58.502,-32.9064,-69.8753
12:50:58.503,-34.4064,-73.5003
12:50:58.514,-35.2189,-76.8753
12:50:58.524,-35.8126,-79.8753
12:50:58.534,-36.2501,-83.6878
12:50:58.544,-36.9064,-85.1253
12:50:58.555,-37.4376,-89.5628
12:50:58.564,-37.9064,-90.6253
12:50:58.574,-38.3751,-92.8129
12:50:58.583,-39.1876,-94.5629
12:50:58.593,-39.4689,-96.8129
12:50:58.604,-40.0314,-98.5004
12:50:58.613,-40.5314,-100.5629
12:50:58.623,-40.2189,-102.9379
12:50:58.634,-40.2814,-104.3754
12:50:58.645,-40.5939,-106.4379
12:50:58.654,-43.1252,-116.5004
12:50:58.663,-43.4689,-117.3129
12:50:58.673,-42.8752,-118.1255
12:50:58.684,-43.8127,-117.938
12:50:58.694,-43.0939,-118.938
12:50:58.704,-43.6252,-118.5005
12:50:58.714,-43.4377,-118.563
12:50:58.724,-42.8439,-120.063
12:50:58.734,-42.3127,-119.7505
12:50:58.743,-42.0939,-119.563
12:50:58.753,-42.0314,-119.938
12:50:58.764,-41.8127,-119.3755
12:50:58.773,-41.7814,-119.313
12:50:58.783,-41.7502,-118.8755
12:50:58.793,-41.6877,-115.8129
12:50:58.804,-40.1252,-112.8129
12:50:58.813,-36.5314,-104.4379
12:50:58.824,-32.8126,-89.1253
12:50:58.833,-27.0626,-71.7503
12:50:58.844,-19.3751,-47.1252
12:50:58.853,-12.5938,-26.1876
12:50:58.864,-6.7188,-7.1875
12:50:58.873,-3.125,6
12:50:58.884,0.25,15.3751
12:50:58.894,1.75,24.2501
12:50:58.921,4.5313,29.0001
12:50:58.924,6.75,34.1251
12:50:58.927,7.1563,38.1251
12:50:58.933,8.5625,41.3127
12:50:58.943,9.5625,46.1252
12:50:58.953,10.7813,47.7502
12:50:58.964,11.5,51.0627
12:50:58.973,11.9688,54.0627
12:50:58.983,12.75,55.1877
12:50:58.993,13.9688,57.3127
12:50:59.003,13.4376,58.3752
12:50:59.018,14.1876,57.9377
12:50:59.024,13.9063,58.0627
12:50:59.034,12.9688,56.6877
12:50:59.045,11.875,52.8752
12:50:59.053,10.5313,48.2502
12:50:59.068,9.2813,43.5627
12:50:59.073,7.0938,38.1876
12:50:59.110,5.0625,33.0626
12:50:59.112,3.7188,28.1876
12:50:59.115,2.3438,24.2501
12:50:59.117,1.375,20.7501
12:50:59.147,0.0938,17.1251
12:50:59.254,-1.0938,13.7501
12:50:59.254,-2.4063,10.625
12:50:59.264,-3.125,8.375
12:50:59.266,-4,5.375
12:50:59.266,-4.5938,2.5625
12:50:59.282,-5.8125,-0.4375
12:50:59.290,-6.6875,-2.6875
12:50:59.299,-7.5938,-5.75
12:50:59.309,-7.9375,-8.75
12:50:59.318,-9.3125,-12
12:50:59.328,-10.125,-14.6251
12:50:59.339,-11.625,-17.8126
12:50:59.349,-11.9688,-21.1251
12:50:59.359,-12.6875,-25.2501
12:50:59.369,-14.0938,-27.6251
12:50:59.378,-14.8751,-31.9376
12:50:59.391,-16.4063,-34.8751
12:50:59.402,-16.8438,-38.5001
12:50:59.409,-18.0313,-41.0002
12:50:59.418,-19.0001,-45.1252
12:50:59.428,-20.3438,-48.5627
12:50:59.439,-32.3126,-87.4378
12:50:59.448,-32.8126,-88.8753
12:50:59.459,-32.9689,-92.1254
12:50:59.469,-32.5001,-92.9379
12:50:59.479,-33.8126,-94.4379
12:50:59.488,-33.7189,-96.4379
12:50:59.499,-33.4376,-95.8129
12:50:59.509,-34.2814,-97.6879
12:50:59.519,-33.8126,-98.7504
12:50:59.529,-34.5001,-100.5004
12:50:59.538,-34.8439,-100.3129
12:50:59.549,-34.3751,-102.5004
12:50:59.559,-34.4689,-101.5004
12:50:59.569,-34.3439,-103.7504
12:50:59.578,-34.9064,-102.8129
12:50:59.588,-34.2189,-104.1879
12:50:59.599,-34.8439,-104.6254
12:50:59.609,-34.4376,-104.1879
12:50:59.618,-34.8439,-104.4379
12:50:59.629,-34.1876,-106.1254
12:50:59.639,-33.9376,-104.6254
12:50:59.649,-34.3751,-104.5004
12:50:59.658,-34.0939,-106.3129
12:50:59.669,-33.1876,-105.3754
12:50:59.679,-34.0626,-105.0004
12:50:59.688,-32.7501,-104.1254
12:50:59.698,-32.8126,-101.5004
12:50:59.709,-30.9064,-96.3129
12:50:59.719,-27.6876,-85.1878
12:50:59.728,-22.5313,-69.1878
12:50:59.752,-16.4063,-49.3752
12:50:59.783,-8.9063,-24.3126
12:50:59.826,-2,-3.875
12:50:59.856,2.625,13.4376
12:50:59.859,6.7813,24.9376
12:50:59.859,10.625,33.8126
12:50:59.859,11.5938,39.5002
12:50:59.860,13.2188,45.2502
12:50:59.861,14.4688,49.6877
12:50:59.894,15.9063,53.6877
12:50:59.894,17.7813,58.1877
12:50:59.895,18.7188,60.6877
12:50:59.897,19.8751,64.5627
12:50:59.904,21.0938,67.9378
12:50:59.905,22.4688,71.0003
12:50:59.913,22.4688,74.7503
12:50:59.927,23.5938,75.1253
12:50:59.933,24.4063,76.8128
12:50:59.944,23.7813,77.0628
12:50:59.953,24.0001,77.0628
12:50:59.963,22.9688,74.9378
12:50:59.973,21.5001,71.1253
12:50:59.983,20.2188,65.5002
12:50:59.993,15.3751,51.1877
12:51:00.003,13.7813,46.8127
12:51:00.015,12.75,42.6252
12:51:00.024,11.4688,39.1877
12:51:00.033,10.5,35.4376
12:51:00.044,8.8125,33.0001
12:51:00.053,8.4375,30.4376
12:51:00.064,7.375,27.7501
12:51:00.073,6.3438,25.4376
12:51:00.083,5.375,22.1251
12:51:00.093,4.7188,19.0626
12:51:00.104,3.2813,16.1876
12:51:00.114,3,13.1876
12:51:00.123,1.3438,9.625
12:51:00.133,-0.0313,6.5625
12:51:00.144,-0.9688,2.5
12:51:00.154,-2.2188,-1.1875
12:51:00.164,-2.5938,-5.375
12:51:00.174,-4.6875,-8.375
12:51:00.201,-4.9688,-11.8125
12:51:00.202,-6.2188,-15.3126
12:51:00.204,-7.0938,-18.5001
12:51:00.215,-8.2813,-23.1251
12:51:00.225,-9.4688,-26.2501
12:51:00.233,-10.5,-29.1876
12:51:00.244,-10.7188,-32.8126
12:51:00.253,-12.5625,-34.6251
12:51:00.264,-12.6563,-39.0001
12:51:00.273,-14.0938,-42.2502
12:51:00.284,-14.5001,-45.4377
12:51:00.293,-16.1876,-46.8752
12:51:00.305,-16.5938,-50.8127
12:51:00.313,-17.2813,-52.8127
12:51:00.323,-18.2188,-55.5002
12:51:00.333,-18.4376,-57.8127
12:51:00.344,-19.0938,-59.6877
12:51:00.354,-19.5938,-62.0627
12:51:00.363,-20.4063,-64.4377
12:51:00.374,-20.9376,-66.2503
12:51:00.384,-21.4063,-68.3753
12:51:00.393,-21.3126,-69.5003
12:51:00.404,-21.1251,-70.8753
12:51:00.413,-22.5938,-72.4378
12:51:00.423,-22.8438,-74.0003
12:51:00.433,-22.9063,-75.0003
12:51:00.443,-23.1251,-76.1878
12:51:00.454,-23.0938,-77.1253
12:51:00.463,-23.0313,-78.1878
12:51:00.490,-23.4688,-79.2503
12:51:00.493,-23.6563,-79.6878
12:51:00.495,-23.5001,-81.1878
12:51:00.527,-23.5626,-80.8753
12:51:00.529,-24.2813,-82.1253
12:51:00.560,-23.9688,-83.0628
12:51:00.626,-24.5001,-83.0003
12:51:00.628,-24.6251,-84.3128
12:51:00.628,-23.0626,-84.6253
12:51:00.628,-24.5626,-85.3753
12:51:00.628,-24.1563,-84.8753
12:51:00.632,-23.9688,-83.0003
12:51:00.638,-23.3751,-81.1253
12:51:00.638,-20.4063,-73.0628
12:51:00.638,-15.1251,-57.3752
12:51:00.651,-10.1875,-39.1876
12:51:00.654,-1.625,-14.6251
12:51:00.664,5.25,9.375
12:51:00.678,11.375,27.5001
12:51:00.684,16.4063,42.6877
12:51:00.693,19.3126,51.5627
12:51:00.703,21.8438,60.0627
12:51:00.714,24.1876,65.7503
12:51:00.723,25.8126,71.3753
12:51:00.733,27.6876,76.7503
12:51:00.743,29.4064,80.2503
12:51:00.753,30.6251,86.2503
12:51:00.764,32.2501,89.3753
12:51:00.774,33.3439,93.2504
12:51:00.784,34.0314,96.5004
12:51:00.794,35.7501,100.0004
12:51:00.804,39.4064,112.3129
12:51:00.814,38.9376,112.1254
12:51:00.823,38.5314,111.0004
12:51:00.834,37.0001,109.0629
12:51:00.844,36.0939,105.1254
12:51:00.854,33.8126,101.4379
12:51:00.864,32.6251,94.6254
12:51:00.873,29.5939,89.5003
12:51:00.884,28.2501,83.2503
12:51:00.893,25.7813,79.0003
12:51:00.904,24.7813,73.3128
12:51:00.913,22.5938,69.2503
12:51:00.923,21.7813,65.4377
12:51:00.933,19.8438,62.0627
12:51:00.943,19.3751,58.6252
12:51:00.953,18.2188,56.8752
12:51:00.964,17.5626,52.7502
12:51:00.973,16.0001,50.2502
12:51:00.983,15.1876,46.7502
12:51:00.994,14.1876,43.8752
12:51:01.004,13.1563,40.5002
12:51:01.013,11.7188,36.3126
12:51:01.023,10.5938,33.0626
12:51:01.034,9.1875,29.3751
12:51:01.043,8.1875,25.6876
12:51:01.054,6.5938,21.6251
12:51:01.063,5.3438,17.5626
12:51:01.073,3.5625,13.2501
12:51:01.083,2.8438,9.6875
12:51:01.094,1.8125,6.5625
12:51:01.108,0.875,2.0625
12:51:01.128,-1,-1.8125
12:51:01.133,-2.0938,-4.0625
12:51:01.137,-2.625,-8.25
12:51:01.151,-4.4375,-12.875
12:51:01.153,-5.8125,-15.4376
12:51:01.163,-6.3438,-19.6251
12:51:01.174,-7.5313,-22.2501
12:51:01.183,-8.5938,-24.6876
12:51:01.193,-8.9375,-28.4376
12:51:01.210,-10.0625,-30.3126
12:51:01.216,-10.7188,-33.7501
12:51:01.251,-11.7813,-37.3751
12:51:01.253,-12.4063,-38.3751
12:51:01.256,-12.5,-41.6252
12:51:01.257,-13.9063,-44.1877
12:51:01.289,-14.6876,-45.6252
12:51:01.290,-15.5626,-49.0627
12:51:01.291,-16.1563,-49.6252
12:51:01.307,-16.7813,-52.8127
12:51:01.311,-17.2501,-53.8127
12:51:01.315,-17.6251,-55.8752
12:51:01.340,-18.0001,-58.3752
12:51:01.342,-18.2813,-59.3752
12:51:01.346,-18.8751,-62.1877
12:51:01.359,-18.8126,-63.5002
12:51:01.364,-20.4688,-65.5628
12:51:01.385,-20.8126,-67.6878
12:51:01.387,-20.5626,-68.1878
12:51:01.393,-21.5001,-70.1253
12:51:01.403,-21.6251,-70.6253
12:51:01.414,-21.8438,-71.8128
12:51:01.428,-22.1563,-73.5628
12:51:01.435,-22.5001,-73.0628
12:51:01.444,-22.3751,-75.7503
12:51:01.454,-21.9063,-75.5628
12:51:01.480,-23.2501,-77.1878
12:51:01.482,-22.9376,-78.1878
12:51:01.485,-22.8438,-77.4378
12:51:01.494,-22.8438,-77.1878
12:51:01.503,-21.4376,-73.8753
12:51:01.514,-18.8438,-64.5002
12:51:01.524,-13.7188,-51.5002
12:51:01.533,-7.3125,-31.1876
12:51:01.544,0.7813,-4.625
12:51:01.553,8.875,17.7501
12:51:01.563,14.8751,36.3751
12:51:01.573,19.3751,50.4377
12:51:01.583,23.6251,60.8752
12:51:01.594,24.7188,69.4378
12:51:01.603,27.0626,74.8128
12:51:01.613,29.1876,79.2503
12:51:01.624,31.3126,84.6878
12:51:01.633,32.3439,89.1253
12:51:01.643,34.4376,93.9379
12:51:01.654,35.0939,99.0629
12:51:01.663,36.9689,102.1254
12:51:01.674,38.3126,106.3129
12:51:01.684,39.3127,111.1879
12:51:01.694,39.8439,113.5629
12:51:01.703,41.8127,116.9379
12:51:01.714,41.6564,119.1255
12:51:01.723,42.9064,120.313
12:51:01.734,42.2502,120.688
12:51:01.744,41.5314,119.3755
12:51:01.753,40.2189,116.1254
12:51:01.763,38.5001,111.4379
12:51:01.773,36.5314,106.1879
12:51:01.783,34.2501,100.9379
12:51:01.794,31.8126,93.9379
12:51:01.805,30.0001,89.1253
12:51:01.813,28.4689,83.5003
12:51:01.824,27.3439,79.6253
12:51:01.834,25.3126,75.2503
12:51:01.845,23.9688,71.6878
12:51:01.853,22.9688,68.6253
12:51:01.869,22.0313,66.1878
12:51:01.878,21.1876,61.9377
12:51:01.884,19.8438,60.5627
12:51:01.901,18.6251,55.2502
12:51:01.903,17.4688,53.1877
12:51:01.922,16.3751,48.7502
12:51:01.926,14.9376,45.8752
12:51:01.935,13.5313,41.2502
12:51:01.944,12.375,39.0001
12:51:01.954,10.9688,33.6251
12:51:01.964,10.25,30.2501
12:51:01.987,8.5938,26.5001
12:51:01.989,6.875,22.1876
12:51:02.013,6.5,18.5626
12:51:02.016,4.375,14.1876
12:51:02.018,3.3438,10
12:51:02.025,1.5313,5.6875
12:51:02.058,1.0938,2.5
12:51:02.060,-0.3125,-1.75
12:51:02.063,-1.2813,-5.5625
12:51:02.064,-2.6563,-9
12:51:02.095,-4.0938,-13
12:51:02.098,-5.125,-16.5001
12:51:02.099,-6.5625,-19.6251
12:51:02.124,-7.2813,-22.3126
12:51:02.126,-8.3125,-26.1251
12:51:02.128,-8.8125,-27.8126
12:51:02.134,-9.7188,-31.5626
12:51:02.157,-10.0313,-33.8126
12:51:02.158,-11.5938,-36.6251
12:51:02.165,-12.5,-39.4377
12:51:02.178,-12.8125,-41.3752
12:51:02.185,-14.3751,-43.8127
12:51:02.195,-14.5001,-45.3752
12:51:02.205,-15.4376,-49.1252
12:51:02.214,-16.6251,-50.2502
12:51:02.224,-17.0626,-54.4377
12:51:02.233,-17.8438,-56.1877
12:51:02.243,-17.5626,-57.1252
12:51:02.254,-18.7188,-60.2502
12:51:02.263,-18.9376,-61.3752
12:51:02.274,-20.0626,-62.1252
12:51:02.283,-20.5626,-65.2502
12:51:02.293,-20.7188,-67.6253
12:51:02.303,-20.9063,-68.2503
12:51:02.313,-21.8751,-71.0628
12:51:02.324,-21.5313,-71.9378
12:51:02.335,-22.8126,-71.8128
12:51:02.344,-22.3438,-75.1253
12:51:02.354,-22.3126,-75.6253
12:51:02.365,-23.9688,-77.0628
12:51:02.373,-24.0626,-79.0628
12:51:02.384,-23.8126,-79.8128
12:51:02.395,-24.4688,-80.3128
12:51:02.403,-24.6876,-81.4378
12:51:02.419,-24.3438,-81.9378
12:51:02.426,-24.4688,-80.8753
12:51:02.434,-23.9376,-75.8128
12:51:02.449,-20.0938,-68.1878
12:51:02.458,-15.7188,-55.0002
12:51:02.464,-9.0313,-34.3126
12:51:02.473,-1.0938,-8.625
12:51:02.483,7.125,12.75
12:51:02.493,12.3438,32.3126
12:51:02.504,17.1876,44.8127
12:51:02.513,21.6251,55.5002
12:51:02.523,23.4688,63.5627
12:51:02.533,26.1876,70.4378
12:51:02.543,29.0001,76.7503
12:51:02.554,29.8439,83.1878
12:51:02.564,31.6564,86.3753
12:51:02.574,33.7501,92.1254
12:51:02.584,35.0314,97.4379
12:51:02.593,37.1876,101.3129
12:51:02.603,38.9064,106.5629
12:51:02.616,39.8127,111.5629
12:51:02.624,42.1252,115.3129
12:51:02.635,43.8439,119.688
12:51:02.643,44.2189,122.563
12:51:02.654,44.7502,124.1255
12:51:02.663,44.2502,125.313
12:51:02.692,43.9064,123.8755
12:51:02.695,43.2189,122.438
12:51:02.697,41.9064,117.938
12:51:02.704,39.4377,112.4379
12:51:02.733,37.3126,106.7504
12:51:02.734,34.6564,101.3754
12:51:02.736,32.9689,95.6879
12:51:02.765,31.7501,89.9378
12:51:02.765,29.6251,86.0628
12:51:02.765,28.2189,81.3128
12:51:02.793,26.1251,77.8753
12:51:02.796,25.9688,73.6253
12:51:02.800,23.8126,71.1253
12:51:02.804,23.3751,67.3753
12:51:02.834,21.5626,64.3127
12:51:02.836,20.5626,61.0002
12:51:02.840,19.3751,57.8127
12:51:02.845,18.5938,53.5627
12:51:02.853,16.5313,50.3752
12:51:02.864,15.9688,45.0627
12:51:02.873,13.3751,42.4377
12:51:02.885,12.5,37.3126
12:51:02.893,10.875,33.8751
12:51:02.905,9.5938,29.1251
12:51:02.913,7.7813,25.5001
12:51:02.927,6.2188,20.7501
12:51:02.935,5.4688,16.3751
12:51:02.943,4.5625,12.4375
12:51:02.955,3.25,8.875
12:51:02.963,1.6563,4.75
12:51:02.974,0.0938,-0.125
12:51:02.984,-1.3438,-3.5625
12:51:02.994,-1.9688,-7.125
12:51:03.004,-4.0313,-11.5625
12:51:03.013,-4.625,-14.8751
12:51:03.024,-6,-18.9376
12:51:03.033,-6.625,-21.0626
12:51:03.043,-7.7188,-24.2501
12:51:03.053,-8.0625,-26.6251
12:51:03.065,-9.9688,-29.8751
12:51:03.074,-9.875,-32.8751
12:51:03.085,-11.875,-34.6876
12:51:03.094,-12.375,-38.0001
12:51:03.105,-12.7813,-40.5002
12:51:03.113,-14.0938,-42.7502
12:51:03.123,-14.9063,-45.3127
12:51:03.135,-15.3126,-49.0002
12:51:03.144,-15.0313,-50.4377
12:51:03.153,-16.7501,-51.5002
12:51:03.166,-17.6876,-55.5002
12:51:03.174,-17.5001,-56.6252
12:51:03.189,-18.4063,-58.4377
12:51:03.203,-18.8438,-61.6252
12:51:03.219,-19.5001,-63.0002
12:51:03.220,-19.7501,-64.6252
12:51:03.230,-21.3126,-67.1253
12:51:03.240,-21.5313,-68.8753
12:51:03.249,-21.4376,-69.6878
12:51:03.260,-21.3751,-70.3753
12:51:03.270,-22.4376,-72.4378
12:51:03.279,-22.7813,-74.0628
12:51:03.290,-23.1876,-74.8128
12:51:03.305,-24.4063,-77.1253
12:51:03.308,-24.5626,-79.0003
12:51:03.318,-24.5626,-80.0628
12:51:03.335,-25.5001,-81.3128
12:51:03.343,-25.2813,-82.3128
12:51:03.353,-25.3751,-82.5003
12:51:03.365,-25.2813,-83.6253
12:51:03.375,-23.9376,-79.4378
12:51:03.385,-21.3438,-71.6253
12:51:03.399,-16.6876,-57.8752
12:51:03.404,-9.9688,-38.2501
12:51:03.435,-1.4063,-13
12:51:03.437,5.4375,9.625
12:51:03.438,11.4375,26.7501
12:51:03.445,16.9376,41.0002
12:51:03.472,20.2501,51.9377
12:51:03.474,23.9376,60.5627
12:51:03.477,26.6251,69.2503
12:51:03.506,28.8751,74.5003
12:51:03.509,31.6251,84.1253
12:51:03.511,34.2189,89.3753
12:51:03.518,35.9376,94.6879
12:51:03.550,37.2189,99.0004
12:51:03.551,39.1564,103.8754
12:51:03.554,40.9689,110.1879
12:51:03.573,42.6252,113.4379
12:51:03.573,43.6877,119.188
12:51:03.576,44.8752,122.2505
12:51:03.586,46.7189,125.188
12:51:03.593,46.4064,127.0005
12:51:03.606,46.5002,126.5005
12:51:03.614,45.5002,125.3755
12:51:03.624,43.8752,121.563
12:51:03.634,42.2814,115.7504
12:51:03.643,39.1252,110.5629
12:51:03.654,37.9376,103.4379
12:51:03.664,34.6564,97.0004
12:51:03.677,33.5314,92.0004
12:51:03.687,31.2814,87.8753
12:51:03.694,29.5001,82.3128
12:51:03.703,27.7501,77.9378
12:51:03.713,26.2188,74.6878
12:51:03.735,24.7188,70.3128
12:51:03.741,24.0626,67.5003
12:51:03.743,22.4063,64.0627
12:51:03.755,21.8126,59.8127
12:51:03.772,19.6876,55.8752
12:51:03.778,18.5626,52.9377
12:51:03.786,16.9376,47.7502
12:51:03.794,15.1563,44.9377
12:51:03.805,14.1251,39.6877
12:51:03.813,12.4688,35.7501
12:51:03.825,10.8438,31.5001
12:51:03.833,9.625,27.8751
12:51:03.844,7.8438,22.3751
12:51:03.853,7.2813,19.1876
12:51:03.864,5.4063,14.0001
12:51:03.874,3.9688,10.9375
12:51:03.883,2.5625,5.75
12:51:03.895,1.125,1.6875
12:51:03.904,-0.1563,-2.25
12:51:03.914,-1.9063,-6.375
12:51:03.925,-3.0625,-9.9375
12:51:03.933,-4.5,-14.1876
12:51:03.944,-5.7813,-18.7501
12:51:03.954,-6.4688,-22.1251
12:51:03.963,-8,-25.8126
12:51:03.975,-9.5,-28.6251
12:51:03.984,-10.3438,-32.1876
12:51:03.993,-10.9688,-34.9376
12:51:04.004,-11.7813,-38.6876
12:51:04.014,-13,-41.1877
12:51:04.042,-14.5313,-44.5627
12:51:04.047,-15.0001,-47.0002
12:51:04.049,-15.5313,-49.5627
12:51:04.056,-17.4063,-52.1877
12:51:04.067,-17.4063,-54.9377
12:51:04.075,-19.0001,-57.5627
12:51:04.085,-19.1563,-60.0627
12:51:04.104,-19.9063,-62.0002
12:51:04.106,-21.0626,-66.1253
12:51:04.141,-21.6563,-67.5003
12:51:04.146,-22.2813,-68.9378
12:51:04.146,-22.6251,-71.0003
12:51:04.149,-23.5938,-73.6878
12:51:04.155,-23.5626,-74.6253
12:51:04.192,-24.8126,-75.0003
12:51:04.192,-25.3751,-77.6878
12:51:04.195,-25.1876,-79.8128
12:51:04.222,-26.1251,-80.8753
12:51:04.222,-26.2813,-83.1253
12:51:04.225,-26.5626,-84.0628
12:51:04.231,-27.5626,-84.3753
12:51:04.233,-27.0626,-86.9378
12:51:04.269,-28.1876,-88.1253
12:51:04.272,-27.7814,-89.1253
12:51:04.274,-28.7814,-88.8753
12:51:04.276,-28.5626,-91.0629
12:51:04.285,-27.6876,-91.0004
12:51:04.294,-28.7501,-90.8129
12:51:04.305,-27.3439,-88.2503
12:51:04.315,-23.9376,-79.3753
12:51:04.325,-19.6876,-66.0003
12:51:04.334,-13.1563,-47.5627
12:51:04.345,-4.6875,-22.5626
12:51:04.354,2.9063,2.125
12:51:04.364,10.4688,20.6876
12:51:04.373,16.0001,36.1251
12:51:04.385,19.3751,48.8127
12:51:04.393,23.0313,57.0627
12:51:04.405,25.9063,65.1253
12:51:04.413,27.6251,71.8128
12:51:04.425,30.2501,78.4378
12:51:04.433,32.0314,84.1253
12:51:04.445,33.9064,88.2503
12:51:04.454,36.2501,93.9379
12:51:04.464,37.4376,100.1879
12:51:04.475,39.6564,103.8129
12:51:04.483,41.4377,109.0629
12:51:04.503,42.6564,113.3129
12:51:04.506,44.1252,117.3129
12:51:04.521,44.9689,121.8755
12:51:04.536,45.6877,123.563
12:51:04.538,46.1877,125.8755
12:51:04.547,45.5002,123.1255
12:51:04.555,44.0002,122.0005
12:51:04.564,42.0314,116.0004
12:51:04.573,40.3752,111.7504
12:51:04.583,37.7501,104.5004
12:51:04.594,35.4376,98.4379
12:51:04.603,32.8126,91.2504
12:51:04.614,31.0001,85.8753
12:51:04.623,28.8439,81.0003
12:51:04.634,26.6564,76.2503
12:51:04.644,25.8751,72.2503
12:51:04.655,23.4688,68.7503
12:51:04.663,22.2501,65.2502
12:51:04.674,21.4063,61.2502
12:51:04.683,20.0313,57.3127
12:51:04.694,18.9688,54.5002
12:51:04.705,17.1563,49.3752
12:51:04.716,15.5313,45.4377
12:51:04.725,14.9063,41.9377
12:51:04.735,13.3126,37.6876
12:51:04.744,12.2188,33.7501
12:51:04.757,10.5313,30.0626
12:51:04.766,9.375,25.8751
12:51:04.775,7.125,21.6251
12:51:04.785,6.7188,17.0001
12:51:04.794,4.1563,12.5625
12:51:04.805,3.6563,9
12:51:04.818,0.875,4.25
12:51:04.825,0.8438,0.1875
12:51:04.835,-1.0938,-3.1875
12:51:04.844,-2.75,-8.125
12:51:04.854,-3.75,-11.6875
12:51:04.870,-5.8125,-15.5626
12:51:04.874,-6.0313,-20.0001
12:51:04.903,-7.9063,-22.5626
12:51:04.906,-8.5625,-26.9376
12:51:04.906,-10.3125,-30.1251
12:51:04.940,-10.6875,-33.8751
12:51:04.942,-12.5,-36.3126
12:51:04.946,-12.7188,-39.5002
12:51:04.948,-14.3126,-42.8127
12:51:04.978,-14.5938,-45.5627
12:51:04.980,-16.5626,-48.3127
12:51:04.984,-16.6563,-51.3752
12:51:05.009,-17.6563,-54.2502
12:51:05.010,-18.2813,-56.9377
12:51:05.012,-19.7813,-58.1252
12:51:05.020,-20.1563,-61.6877
12:51:05.027,-20.6563,-64.5627
12:51:05.044,-21.3438,-65.3753
12:51:05.045,-22.4063,-68.0628
12:51:05.062,-22.6876,-70.1253
12:51:05.068,-22.9376,-71.5628
12:51:05.076,-24.1251,-74.1878
12:51:05.085,-24.5001,-76.9378
12:51:05.099,-24.8438,-77.4378
12:51:05.116,-25.0938,-80.5003
12:51:05.118,-26.1563,-81.8128
12:51:05.126,-26.5314,-82.3753
12:51:05.136,-26.8751,-85.2503
12:51:05.144,-27.2814,-85.6253
12:51:05.154,-27.9376,-87.7503
12:51:05.165,-27.9064,-88.6253
12:51:05.174,-28.8439,-90.6254
12:51:05.184,-29.3439,-91.0629
12:51:05.193,-29.5314,-92.5004
12:51:05.203,-29.6564,-94.0004
12:51:05.215,-30.1251,-94.0004
12:51:05.225,-29.7501,-95.0004
12:51:05.234,-30.0001,-93.8754
12:51:05.244,-28.4376,-90.1253
12:51:05.255,-25.6563,-82.8753
12:51:05.265,-20.9688,-68.6253
12:51:05.275,-13.4688,-47.5627
12:51:05.284,-5.625,-21.0626
12:51:05.294,2.5938,1.0625
12:51:05.320,10.0938,20.7501
12:51:05.322,14.2813,35.5001
12:51:05.327,19.2501,48.1252
12:51:05.335,23.6876,58.3127
12:51:05.345,25.7188,67.8128
12:51:05.354,28.6564,72.8128
12:51:05.364,30.8126,80.0628
12:51:05.375,32.8439,85.0628
12:51:05.385,35.7189,90.8754
12:51:05.393,36.3439,97.0629
12:51:05.403,38.5939,101.6879
12:51:05.413,40.5939,107.8754
12:51:05.425,41.4689,113.6879
12:51:05.435,44.4064,117.3754
12:51:05.444,44.7502,122.8755
12:51:05.455,45.8127,126.438
12:51:05.463,46.7502,128.188
12:51:05.474,47.1877,128.813
12:51:05.484,46.0314,128.438
12:51:05.494,45.2814,124.8755
12:51:05.505,43.1252,120.813
12:51:05.515,40.8127,114.5004
12:51:05.525,37.9689,109.3754
12:51:05.533,35.9064,102.3129
12:51:05.545,33.6564,95.4379
12:51:05.553,31.6876,90.9379
12:51:05.569,29.8126,84.8753
12:51:05.574,28.1564,81.3128
12:51:05.584,26.7501,77.3128
12:51:05.594,24.7813,73.4378
12:51:05.604,24.2813,70.1253
12:51:05.637,22.0001,65.8752
12:51:05.639,21.1876,62.4377
12:51:05.641,20.0313,58.3127
12:51:05.644,17.9688,54.8127
12:51:05.677,17.1876,49.9377
12:51:05.679,15.0626,46.6252
12:51:05.681,13.5313,41.8752
12:51:05.686,11.9375,38.5001
12:51:05.717,10.0938,33.5001
12:51:05.718,8.6563,28.2501
12:51:05.719,7.2188,25.0001
12:51:05.756,5.25,18.9376
12:51:05.757,3.9688,15.9376
12:51:05.760,2.0313,10.125
12:51:05.765,1.0625,5.5625
12:51:05.766,-0.25,1.625
12:51:05.797,-1.9688,-3.0625
12:51:05.800,-2.9688,-6.5
12:51:05.803,-4.625,-10.3125
12:51:05.805,-6.125,-13.6876
12:51:05.821,-6.8438,-18.3751
12:51:05.824,-8.625,-21.6876
12:51:05.844,-9.3438,-25.3126
12:51:05.855,-11,-29.5626
12:51:05.858,-11.9063,-33.0001
12:51:05.865,-13.3751,-37.1251
12:51:05.875,-14.0313,-39.3127
12:51:05.887,-15.2188,-42.6877
12:51:05.895,-15.5938,-44.8127
12:51:05.903,-17.0313,-48.8127
12:51:05.915,-17.8751,-51.4377
12:51:05.924,-18.0001,-53.5627
12:51:05.935,-19.1251,-55.4377
12:51:05.943,-19.5626,-59.2502
12:51:05.955,-20.6251,-60.5002
12:51:05.963,-21.5001,-63.8752
12:51:05.975,-22.1251,-64.8752
12:51:05.985,-23.0626,-67.8753
12:51:05.994,-23.8751,-71.3753
12:51:06.005,-23.6251,-72.1878
12:51:06.015,-24.8751,-74.6253
12:51:06.024,-25.3751,-76.9378
12:51:06.035,-26.1563,-79.1878
12:51:06.044,-26.8126,-79.8753
12:51:06.055,-27.0001,-80.5628
12:51:06.064,-27.2189,-83.1878
12:51:06.075,-27.7814,-83.6878
12:51:06.084,-27.8751,-86.8128
12:51:06.093,-29.0001,-86.4378
12:51:06.106,-29.4689,-89.3753
12:51:06.113,-29.6564,-89.8753
12:51:06.124,-29.7189,-91.7504
12:51:06.134,-30.3439,-92.0629
12:51:06.145,-30.7501,-94.3754
12:51:06.155,-30.3751,-95.0004
12:51:06.165,-30.9064,-94.1254
12:51:06.174,-31.1564,-96.0629
12:51:06.184,-30.5314,-94.3129
12:51:06.196,-28.0314,-89.0003
12:51:06.205,-24.6876,-77.3128
12:51:06.214,-19.8438,-63.8752
12:51:06.224,-11.3438,-39.1251
12:51:06.234,-3.1563,-13.8751
12:51:06.245,4.6875,7.6875
12:51:06.255,10.5938,26.6876
12:51:06.265,15.2813,38.2501
12:51:06.274,19.2501,49.8127
12:51:06.284,22.0313,58.6252
12:51:06.295,25.1251,66.0628
12:51:06.306,27.2189,74.1253
12:51:06.338,29.7814,78.7503
12:51:06.341,32.1251,85.9378
12:51:06.342,33.0314,90.7504
12:51:06.345,35.9064,95.7504
12:51:06.375,37.6876,101.8754
12:51:06.379,39.6877,106.9379
12:51:06.392,41.2502,112.8754
12:51:06.395,42.0939,117.8755
12:51:06.441,44.3127,120.8755
12:51:06.441,44.5002,125.438
12:51:06.473,45.7502,127.188
12:51:06.476,45.3752,128.2505
12:51:06.479,44.9064,127.6255
12:51:06.479,43.6252,123.313
12:51:06.479,42.0627,120.0005
12:51:06.484,39.6877,114.0629
12:51:06.501,36.9689,108.2504
12:51:06.506,35.0001,101.1879
12:51:06.514,32.7189,95.5629
12:51:06.525,30.4376,88.9378
12:51:06.536,28.3126,85.3128
12:51:06.546,26.6251,79.9378
12:51:06.555,25.2813,76.1878
12:51:06.564,24.0001,72.5003
12:51:06.574,21.9688,69.0003
12:51:06.600,20.6563,65.0627
12:51:06.604,19.5938,61.9377
12:51:06.605,18.2813,57.0002
12:51:06.615,17.0313,53.8752
12:51:06.625,15.5001,49.1252
12:51:06.635,13.8126,44.1877
12:51:06.644,8.6563,33.0001
12:51:06.655,7.6875,28.5001
12:51:06.665,6.1875,22.8751
12:51:06.674,4.625,19.0001
12:51:06.685,2.9688,14.5001
12:51:06.694,1.5938,9.9375
12:51:06.703,-0.2188,5.5625
12:51:06.715,-1.7813,1.4375
12:51:06.724,-2.9063,-2.6875
12:51:06.735,-3.4688,-7.5625
12:51:06.746,-5.6563,-12.625
12:51:06.754,-7.0625,-15.5001
12:51:06.765,-8.2188,-19.1876
12:51:06.775,-8.8125,-23.2501
12:51:06.786,-10.6875,-27.0626
12:51:06.795,-11.6875,-30.3751
12:51:06.804,-12.5938,-34.1251
12:51:06.814,-13.3126,-37.4376
12:51:06.824,-14.1563,-38.4376
12:51:06.834,-14.2501,-42.5627
12:51:06.844,-16.5313,-45.8752
12:51:06.855,-17.7501,-48.2502
12:51:06.864,-18.1251,-52.2502
12:51:06.874,-19.1251,-55.6877
12:51:06.885,-20.1563,-56.7502
12:51:06.895,-20.2501,-60.4377
12:51:06.905,-21.6251,-62.6252
12:51:06.914,-22.0001,-64.4377
12:51:06.923,-22.9376,-66.4378
12:51:06.935,-23.2813,-69.2503
12:51:06.945,-23.7813,-71.3128
12:51:06.955,-24.9688,-72.8128
12:51:06.965,-25.3438,-75.8753
12:51:06.975,-25.4688,-77.3128
12:51:06.985,-26.9689,-77.7503
12:51:06.995,-27.3126,-81.3753
12:51:07.005,-27.3439,-83.3128
12:51:07.024,-28.1876,-84.1253
12:51:07.028,-28.4376,-86.8128
12:51:07.054,-28.6876,-88.0003
12:51:07.058,-30.0939,-90.0628
12:51:07.060,-29.8126,-91.5629
12:51:07.064,-30.4689,-91.7504
12:51:07.093,-30.5001,-93.6254
12:51:07.096,-30.7189,-94.3129
12:51:07.099,-31.3126,-96.2504
12:51:07.106,-31.4376,-96.3129
12:51:07.143,-31.0001,-95.1254
12:51:07.145,-29.9064,-92.5629
12:51:07.173,-27.0314,-84.8128
12:51:07.203,-23.1876,-71.6253
12:51:07.203,-16.3438,-52.8752
12:51:07.203,-8.5938,-26.9376
12:51:07.218,-0.7188,-4.75
12:51:07.221,6.0313,13.3751
12:51:07.234,11.1875,27.9376
12:51:07.234,14.3751,40.7502
12:51:07.234,18.0938,47.8127
12:51:07.237,21.8126,56.3127
12:51:07.243,23.3438,63.8127
12:51:07.258,25.5938,68.9378
12:51:07.264,27.7814,75.6878
12:51:07.275,29.5939,79.3753
12:51:07.285,31.6564,85.1878
12:51:07.295,33.7814,91.8754
12:51:07.304,34.7814,96.3754
12:51:07.315,36.9064,101.8754
12:51:07.323,38.5001,106.1879
12:51:07.334,39.8752,110.3129
12:51:07.344,42.7814,118.688
12:51:07.355,43.0314,120.813
12:51:07.369,42.5627,120.6255
12:51:07.380,42.1877,117.7505
12:51:07.389,40.7814,114.8129
12:51:07.401,39.0939,109.1254
12:51:07.409,36.6251,103.5629
12:51:07.420,35.0626,98.5629
12:51:07.428,33.5626,93.9379
12:51:07.439,31.6876,88.3753
12:51:07.450,29.7189,84.1878
12:51:07.461,27.5314,79.3128
12:51:07.469,26.5626,75.5003
12:51:07.479,24.5001,70.6253
12:51:07.488,22.5001,67.0003
12:51:07.499,22.3438,64.8752
12:51:07.510,22.4376,63.5002
12:51:07.520,22.3126,60.5002
12:51:07.531,24.1251,61.9377
12:51:07.538,25.8751,62.5627
12:51:07.549,27.6251,64.0627
12:51:07.560,30.4376,66.5003
12:51:07.571,32.2501,69.5003
12:51:07.580,34.2501,70.0628
12:51:07.590,34.4376,69.0628
12:51:07.600,33.4064,67.0628
12:51:07.610,32.8439,65.0627
12:51:07.620,32.3751,62.5002
12:51:07.635,30.4376,58.8127
12:51:07.639,29.2501,56.1252
12:51:07.650,27.2814,52.1877
12:51:07.660,26.7189,49.5627
12:51:07.668,25.4688,46.9377
12:51:07.680,23.9376,42.3127
12:51:07.690,23.1563,39.4377
12:51:07.700,22.0001,37.1251
12:51:07.721,20.5938,34.2501
12:51:07.723,19.5313,30.0626
12:51:07.732,18.6563,26.4376
12:51:07.739,16.7501,23.8126
12:51:07.755,15.8751,20.4376
12:51:07.771,15.0313,17.9376
12:51:07.777,13.9376,14.6251
12:51:07.805,11.8438,9.4375
12:51:07.806,10.875,5.8125
12:51:07.810,9.8125,2.6875
12:51:07.812,7.5,-0.875
12:51:07.845,5.875,-5.3125
12:51:07.848,3.625,-10
12:51:07.849,3.25,-13.9376
12:51:07.851,1.125,-17.7501
12:51:07.881,0.4375,-20.8751
12:51:07.884,-1.8125,-25.4376
12:51:07.886,-3.375,-30.0001
12:51:07.915,-5.75,-34.2501
12:51:07.916,-7.0625,-37.3126
12:51:07.918,-7.5,-42.1252
12:51:07.924,-9.0313,-44.9377
12:51:07.931,-9.9688,-49.1252
12:51:07.947,-11.375,-52.6877
12:51:07.949,-12.8438,-55.4377
12:51:07.960,-13.4688,-58.6252
12:51:07.969,-14.5938,-61.6877
12:51:07.980,-15.5313,-64.8127
12:51:07.991,-15.9688,-66.5003
12:51:07.999,-17.7813,-70.8128
12:51:08.010,-19.0938,-72.8128
12:51:08.020,-20.2188,-77.1878
12:51:08.030,-21.1251,-78.6253
12:51:08.039,-21.5938,-82.1878
12:51:08.050,-21.7501,-83.4378
12:51:08.059,-22.9376,-84.4378
12:51:08.069,-23.0001,-86.1253
12:51:08.080,-23.0626,-86.9378
12:51:08.092,-23.2501,-84.8128
12:51:08.100,-21.8438,-80.9378
12:51:08.110,-18.2813,-71.3128
12:51:08.119,-12.75,-53.2502
12:51:08.130,-5.7813,-32.8126
12:51:08.141,3.1875,-10.0625
12:51:08.149,8.4688,10.4375
12:51:08.159,14.2813,26.0001
12:51:08.169,18.8126,39.8752
12:51:08.180,22.9688,50.8752
12:51:08.190,26.6564,61.0627
12:51:08.199,30.3439,71.2503
12:51:08.209,32.6876,80.3128
12:51:08.220,35.4689,86.8128
12:51:08.229,38.5314,94.4379
12:51:08.240,40.4689,102.8754
12:51:08.250,42.3439,108.1879
12:51:08.261,44.6877,115.7504
12:51:08.270,45.5314,121.5005
12:51:08.280,47.7189,127.2505
12:51:08.290,49.6564,133.813
12:51:08.300,51.5002,137.6255
12:51:08.310,52.7815,142.813
12:51:08.320,53.5627,145.0005
12:51:08.330,53.7815,146.6881
12:51:08.339,53.0315,146.2506
12:51:08.350,51.9689,145.5005
12:51:08.359,50.8127,141.8755
12:51:08.369,48.3752,135.7505
12:51:08.386,46.0627,131.6255
12:51:08.389,44.9689,125.438
12:51:08.399,43.2189,121.688
12:51:08.409,41.0939,118.313
12:51:08.420,39.5939,113.8754
12:51:08.429,38.9689,110.1879
12:51:08.439,37.4064,107.1879
12:51:08.449,36.5001,103.8129
12:51:08.459,35.6564,100.6254
12:51:08.470,34.2501,97.8754
12:51:08.480,32.5626,93.3754
12:51:08.500,31.3439,90.3753
12:51:08.502,29.8751,85.6878
12:51:08.513,28.6251,81.8753
12:51:08.519,26.9376,76.9378
12:51:08.534,25.1563,72.8753
12:51:08.542,24.1876,68.7503
12:51:08.568,22.0626,64.4377
12:51:08.571,20.6876,60.6877
12:51:08.573,19.0938,55.2502
12:51:08.579,17.1876,49.5627
12:51:08.606,15.0938,44.6252
12:51:08.610,13.0625,40.0627
12:51:08.612,11.1875,34.8126
12:51:08.620,9.6563,29.6251
12:51:08.651,7.3438,24.3751
12:51:08.654,6.5313,19.1876
12:51:08.656,3.75,14.3126
12:51:08.659,1.5313,9.1875
12:51:08.689,0.25,3.3125
12:51:08.692,-1.8438,-1.5625
12:51:08.694,-3.1875,-7.0625
12:51:08.701,-4.875,-12.125
12:51:08.731,-6.7813,-16.3751
12:51:08.732,-7.5938,-21.1876
12:51:08.736,-9.9063,-25.1251
12:51:08.742,-10.375,-30.1876
12:51:08.751,-12.4688,-34.1876
12:51:08.761,-14.3751,-38.5001
12:51:08.769,-15.3751,-43.4377
12:51:08.782,-17.0626,-47.7502
12:51:08.790,-18.1563,-51.8752
12:51:08.800,-19.4688,-56.0002
12:51:08.809,-20.7501,-59.6877
12:51:08.819,-21.3751,-63.9377
12:51:08.830,-23.9376,-68.9378
12:51:08.839,-24.5001,-73.1253
12:51:08.850,-26.5001,-77.0003
12:51:08.859,-27.8751,-81.7503
12:51:08.871,-28.7189,-84.7503
12:51:08.881,-30.4376,-86.4378
12:51:08.889,-30.7501,-90.8754
12:51:08.903,-31.3439,-92.1879
12:51:08.910,-32.4064,-95.0629
12:51:08.921,-32.8751,-98.5004
12:51:08.929,-33.3126,-99.7504
12:51:08.940,-34.0626,-103.1254
12:51:08.950,-34.2814,-104.5629
12:51:08.960,-35.5939,-104.9379
12:51:08.970,-35.5001,-107.8754
12:51:08.980,-35.6564,-108.5629
12:51:08.990,-36.1251,-110.3754
12:51:09.000,-36.4376,-111.6254
12:51:09.010,-36.8439,-112.5004
12:51:09.020,-36.5626,-112.8129
12:51:09.038,-37.0626,-112.0629
12:51:09.045,-34.8439,-110.4379
12:51:09.054,-32.8126,-102.9379
12:51:09.060,-29.3126,-91.1879
12:51:09.076,-23.0938,-73.7503
12:51:09.082,-14.9376,-48.7502
12:51:09.091,-6.0625,-23.1876
12:51:09.100,0.4063,-0.625
12:51:09.110,6.4063,15.5626
12:51:09.119,11.8125,30.3126
12:51:09.135,16.0313,43.4377
12:51:09.162,18.2501,53.9377
12:51:09.164,21.0313,60.7502
12:51:09.171,24.7813,70.3128
12:51:09.172,27.9376,79.8753
12:51:09.180,30.3439,86.3128
12:51:09.189,32.7189,94.4379
12:51:09.200,34.7501,100.6879
12:51:09.210,36.8439,108.5004
12:51:09.221,39.0001,113.5629
12:51:09.229,41.1564,120.813
12:51:09.240,43.0002,125.813
12:51:09.249,44.7814,132.188
12:51:09.259,45.7814,136.1255
12:51:09.269,46.1252,139.2505
12:51:09.280,46.2502,139.813
12:51:09.292,46.5314,139.3755
12:51:09.304,45.5627,138.063
12:51:09.309,43.2814,134.2505
12:51:09.341,42.2189,130.438
12:51:09.344,40.6877,124.438
12:51:09.346,37.6251,119.563
12:51:09.352,35.8439,113.3129
12:51:09.360,33.8126,109.2504
12:51:09.389,32.5939,104.6254
12:51:09.392,31.0314,99.2504
12:51:09.393,30.0001,95.6879
12:51:09.400,28.3751,92.3129
12:51:09.426,26.2501,88.1878
12:51:09.429,25.9063,84.4378
12:51:09.431,23.5313,80.0003
12:51:09.461,23.1876,75.7503
12:51:09.463,20.5626,72.5003
12:51:09.466,19.6251,67.3128
12:51:09.471,17.2501,62.7502
12:51:09.480,15.6563,57.3127
12:51:09.490,13.9063,52.3752
12:51:09.500,11.8125,47.6877
12:51:09.511,9.7813,41.6252
12:51:09.519,8.0625,35.7501
12:51:09.529,5.6563,30.1876
12:51:09.540,4.3125,24.2501
12:51:09.550,1.6875,19.0001
12:51:09.560,-0.3438,13.7501
12:51:09.569,-2.1563,7.75
12:51:09.579,-3.5,2.75
12:51:09.589,-5.5625,-2.5625
12:51:09.600,-8.25,-7.9375
12:51:09.610,-9.8438,-13.6876
12:51:09.620,-11.9063,-18.8126
12:51:09.630,-13.2188,-23.0626
12:51:09.639,-14.6563,-29.3126
12:51:09.649,-16.5938,-33.0626
12:51:09.660,-18.0313,-38.4376
12:51:09.670,-18.4688,-42.8127
12:51:09.681,-20.1251,-47.0627
12:51:09.689,-20.9376,-51.5627
12:51:09.700,-21.8438,-55.3752
12:51:09.710,-23.4063,-60.1877
12:51:09.719,-24.5001,-62.8752
12:51:09.730,-26.8439,-67.7503
12:51:09.740,-27.6251,-72.5003
12:51:09.751,-29.5939,-76.3753
12:51:09.760,-30.4689,-79.8753
12:51:09.770,-31.2189,-82.4378
12:51:09.780,-32.5626,-85.1878
12:51:09.790,-32.6251,-89.6878
12:51:09.800,-34.2189,-91.6879
12:51:09.818,-35.4689,-96.1254
12:51:09.821,-34.5001,-97.8754
12:51:09.836,-36.8751,-101.1254
12:51:09.839,-36.6251,-103.4379
12:51:09.852,-37.4689,-104.6879
12:51:09.860,-38.7189,-108.8754
12:51:09.869,-38.3439,-109.7504
12:51:09.886,-38.7814,-112.2504
12:51:09.890,-38.7189,-113.3129
12:51:09.901,-40.3127,-113.8754
12:51:09.909,-40.0002,-117.0005
12:51:09.919,-40.0002,-117.7505
12:51:09.930,-41.2189,-119.8755
12:51:09.939,-40.7189,-120.8755
12:51:09.949,-41.1564,-120.8755
12:51:09.962,-41.4064,-122.6255
12:51:09.970,-40.6252,-120.1255
12:51:09.979,-40.0939,-118.813
12:51:09.989,-37.1564,-110.0004
12:51:10.001,-33.2501,-98.9379
12:51:10.010,-27.1564,-79.8128
12:51:10.025,-18.5001,-52.2502
12:51:10.030,-10.0313,-28.6251
12:51:10.071,-2.4063,-6
12:51:10.071,1.5938,10.5625
12:51:10.073,6.1875,22.8126
12:51:10.076,10.2813,35.8751
12:51:10.081,14.0001,45.1252
12:51:10.089,18.3438,55.3127
12:51:10.122,20.3126,65.6878
12:51:10.124,22.8438,72.3128
12:51:10.126,26.2813,79.9378
12:51:10.131,27.1876,86.1878
12:51:10.166,29.9064,92.1254
12:51:10.168,31.4376,99.9379
12:51:10.171,33.6564,104.7504
12:51:10.178,35.9064,112.0004
12:51:10.180,36.6876,117.3754
12:51:10.201,38.5314,121.188
12:51:10.204,39.8439,126.1255
12:51:10.210,40.3752,129.3755
12:51:10.220,40.4377,130.563
12:51:10.229,39.5314,128.813
12:51:10.240,38.3751,124.438
12:51:10.251,36.4689,121.7505
12:51:10.261,34.0626,115.7504
12:51:10.269,32.4376,110.8754
12:51:10.280,30.2501,104.6254
12:51:10.290,28.0001,99.7504
12:51:10.300,26.5626,94.8754
12:51:10.310,25.0938,91.6254
12:51:10.320,24.5626,87.8753
12:51:10.330,21.9063,83.7503
12:51:10.339,21.2188,80.5003
12:51:10.350,20.2501,76.8128
12:51:10.367,18.2188,73.8128
12:51:10.373,17.0001,69.7503
12:51:10.389,15.1876,64.3752
12:51:10.392,14.6251,61.1252
12:51:10.400,12.5938,56.2502
12:51:10.409,11.1563,52.0627
12:51:10.441,10.5,48.0627
12:51:10.444,8.1563,43.8752
12:51:10.447,6.8125,39.0626
12:51:10.451,5.1875,34.0626
12:51:10.461,2.9375,30.0001
12:51:10.471,1.6875,23.4376
12:51:10.480,-0.4688,18.2501
12:51:10.490,-1.625,14.1251
12:51:10.500,-3.4375,8.5
12:51:10.509,-5.3438,3.3125
12:51:10.519,-6.2813,-1.125
12:51:10.530,-8.5313,-6.3125
12:51:10.541,-10.4063,-11.25
12:51:10.549,-11.7813,-15.9376
12:51:10.560,-13.3126,-21.6876
12:51:10.570,-14.5938,-26.0626
12:51:10.579,-16.3751,-30.5626
12:51:10.589,-17.5938,-34.9376
12:51:10.601,-19.9063,-39.9377
12:51:10.610,-21.3751,-44.9377
12:51:10.619,-21.9376,-49.0627
12:51:10.633,-23.3126,-53.0002
12:51:10.639,-23.5938,-56.4377
12:51:10.651,-25.6251,-61.3127
12:51:10.660,-25.6563,-64.5002
12:51:10.669,-27.8126,-68.3128
12:51:10.679,-28.9689,-72.8128
12:51:10.690,-30.2501,-75.4378
12:51:10.699,-30.7501,-80.9378
12:51:10.712,-31.9064,-83.2503
12:51:10.723,-33.1876,-88.1253
12:51:10.731,-34.0314,-90.8754
12:51:10.765,-35.6564,-94.2504
12:51:10.768,-36.7814,-98.8129
12:51:10.769,-37.3126,-100.6254
12:51:10.772,-38.2189,-105.0629
12:51:10.780,-39.2502,-106.9379
12:51:10.816,-39.7814,-110.8129
12:51:10.818,-40.1564,-111.5629
12:51:10.821,-41.1877,-114.7504
12:51:10.823,-40.7502,-115.3754
12:51:10.829,-41.1877,-117.8754
12:51:10.858,-42.0002,-119.2505
12:51:10.861,-42.2189,-121.2505
12:51:10.863,-42.4377,-122.0005
12:51:10.869,-42.5627,-122.8755
12:51:10.897,-42.8127,-126.063
12:51:10.900,-42.9689,-126.438
12:51:10.902,-43.8752,-127.938
12:51:10.909,-43.4377,-127.5005
12:51:10.920,-43.5002,-127.938
12:51:10.929,-43.0627,-126.1255
12:51:10.939,-41.6252,-122.063
12:51:10.950,-39.1252,-113.5004
12:51:10.960,-33.3126,-97.6879
12:51:10.970,-26.8439,-76.6878
12:51:10.979,-18.3438,-49.0002
12:51:10.990,-9.6875,-23.3126
12:51:11.000,-3.4688,-3.5
12:51:11.014,1.9688,11.875
12:51:11.020,5.5625,25.6251
12:51:11.031,9.0938,34.2501
12:51:11.040,11.9375,44.3752
12:51:11.049,15.3126,51.4377
12:51:11.060,17.1251,60.0627
12:51:11.070,19.6563,65.9378
12:51:11.079,21.6251,71.2503
12:51:11.090,22.2813,77.6878
12:51:11.099,24.2188,82.2503
12:51:11.116,26.0313,90.0003
12:51:11.131,28.2814,94.3129
12:51:11.134,30.0001,100.5629
12:51:11.140,30.5314,105.0629
12:51:11.149,31.9689,108.0629
12:51:11.160,32.3439,111.1254
12:51:11.170,32.4689,112.6879
12:51:11.180,32.3439,110.5004
12:51:11.190,31.7501,109.6254
12:51:11.203,30.1876,105.1879
12:51:11.211,28.2189,100.6879
12:51:11.219,26.9376,96.1879
12:51:11.233,24.4063,91.3754
12:51:11.242,23.4376,87.1878
12:51:11.249,22.2813,83.0003
12:51:11.260,21.2188,80.1878
12:51:11.269,20.1251,76.5003
12:51:11.279,18.2813,73.5003
12:51:11.290,17.7501,69.7503
12:51:11.302,15.9376,66.9378
12:51:11.311,15.4063,63.2502
12:51:11.320,14.4063,60.5002
12:51:11.331,13.4376,57.8127
12:51:11.340,12.4375,54.7502
12:51:11.349,10.5625,50.8127
12:51:11.360,10.375,47.3127
12:51:11.375,8.2188,43.2502
12:51:11.389,7.25,38.5626
12:51:11.394,5.4063,35.3751
12:51:11.405,4.875,31.4376
12:51:11.415,2.9063,27.5626
12:51:11.425,3.4063,24.3751
12:51:11.454,0.5313,19.7501
12:51:11.457,-0.875,14.8126
12:51:11.460,-2.2188,10.5625
12:51:11.466,-4.0313,6.1875
12:51:11.490,-4.5938,2.125
12:51:11.493,-6.3125,-2.625
12:51:11.495,-7.25,-5.6875
12:51:11.526,-8.8438,-11.125
12:51:11.528,-9.9375,-14.1876
12:51:11.531,-10.9688,-19.1251
12:51:11.537,-13.7188,-25.6876
12:51:11.571,-14.6876,-29.5001
12:51:11.572,-16.2501,-33.1876
12:51:11.573,-17.7188,-36.0626
12:51:11.581,-17.5938,-40.3752
12:51:11.584,-19.9376,-46.1252
12:51:11.618,-21.9688,-49.6877
12:51:11.618,-22.7188,-52.9377
12:51:11.622,-23.6251,-58.0002
12:51:11.628,-25.5313,-61.3127
12:51:11.635,-25.9688,-65.5627
12:51:11.644,-27.7501,-69.2503
12:51:11.655,-28.5314,-72.9378
12:51:11.673,-29.6876,-76.8753
12:51:11.686,-30.3751,-80.3753
12:51:11.688,-31.7189,-83.5628
12:51:11.696,-32.3126,-87.0628
12:51:11.719,-33.1876,-90.6254
12:51:11.722,-33.6876,-93.5004
12:51:11.724,-35.0314,-95.8754
12:51:11.737,-35.0314,-98.9379
12:51:11.745,-36.5626,-100.5004
12:51:11.755,-37.1251,-104.5629
12:51:11.765,-37.6251,-105.8129
12:51:11.775,-37.5626,-109.3129
12:51:11.785,-39.1252,-110.0629
12:51:11.795,-40.0314,-113.6254
12:51:11.806,-40.2502,-115.3129
12:51:11.816,-40.8439,-117.0629
12:51:11.826,-40.9377,-119.1255
12:51:11.836,-41.7189,-120.313
12:51:11.845,-41.2502,-121.8755
12:51:11.857,-41.1877,-121.6255
12:51:11.866,-41.5939,-123.438
12:51:11.877,-40.7189,-121.8755
12:51:11.886,-40.1877,-118.938
12:51:11.895,-37.6876,-111.4379
12:51:11.906,-33.4376,-96.2504
12:51:11.915,-27.2501,-78.0003
12:51:11.925,-18.5938,-52.1252
12:51:11.934,-11.0625,-27.8126
12:51:11.945,-3.8125,-7.5
12:51:11.955,0.2188,8.5
12:51:11.965,4.5,21.0001
12:51:11.975,7.7813,32.1251
12:51:11.984,11,38.8126
12:51:11.995,13.5626,46.8127
12:51:12.005,15.4688,54.5627
12:51:12.017,17.8438,59.8127
12:51:12.026,19.8751,66.9378
12:51:12.036,21.5938,71.9378
12:51:12.045,23.7188,77.8128
12:51:12.056,24.7188,84.3128
12:51:12.067,26.7814,88.5003
12:51:12.077,28.1876,94.3129
12:51:12.087,29.0314,96.7504
12:51:12.097,29.2189,100.7504
12:51:12.107,29.1564,101.1879
12:51:12.116,29.1251,103.8129
12:51:12.125,28.9064,102.6254
12:51:12.140,28.2814,101.4379
12:51:12.145,27.7501,98.1879
12:51:12.155,25.2813,94.5004
12:51:12.187,23.8126,89.2503
12:51:12.192,21.9376,83.8128
12:51:12.192,19.8751,79.3753
12:51:12.195,18.5626,74.5628
12:51:12.230,17.4376,70.6878
12:51:12.234,16.8751,68.0003
12:51:12.235,15.6876,65.0627
12:51:12.237,14.4376,62.6252
12:51:12.272,13.5313,59.2502
12:51:12.272,12.1563,57.1877
12:51:12.274,11.7813,53.7502
12:51:12.306,11.1563,51.5002
12:51:12.308,9.75,48.5002
12:51:12.309,8.7813,44.5002
12:51:12.313,7.5625,41.9377
12:51:12.317,6.8125,38.6251
12:51:12.331,5.5,34.3751
12:51:12.337,4.1875,32.1251
12:51:12.347,2.5625,27.5626
12:51:12.355,1.8438,24.1251
12:51:12.365,1.0313,20.4376
12:51:12.374,-0.5938,17.0626
12:51:12.385,-1.125,13.125
12:51:12.394,-3.1563,9.8125
12:51:12.416,-4.0938,5.75
12:51:12.418,-5.0938,2.125
12:51:12.434,-6.375,-1.875
12:51:12.437,-7.4375,-5.6875
12:51:12.445,-8.6875,-9.9375
12:51:12.455,-10.1875,-13
12:51:12.465,-10.75,-15.9376
12:51:12.474,-11.5938,-18.9376
12:51:12.485,-12.8125,-22.1876
12:51:12.495,-13.2188,-25.8751
12:51:12.504,-14.7188,-27.6251
12:51:12.515,-15.4063,-32.1251
12:51:12.524,-16.7813,-34.1251
12:51:12.535,-16.7501,-37.0626
12:51:12.545,-17.8126,-38.9376
12:51:12.554,-18.1876,-41.5002
12:51:12.564,-18.9688,-42.9377
12:51:12.575,-19.7501,-46.3127
12:51:12.584,-19.7501,-49.3752
12:51:12.595,-20.0626,-50.1252
12:51:12.604,-21.1251,-53.7502
12:51:12.615,-21.4688,-55.8127
12:51:12.625,-22.6251,-55.9377
12:51:12.635,-23.0938,-58.8127
12:51:12.645,-22.6876,-60.5002
12:51:12.656,-23.7813,-61.6877
12:51:12.667,-25.1876,-65.9378
12:51:12.676,-28.6564,-71.4378
12:51:12.686,-28.4064,-70.1878
12:51:12.695,-30.5001,-76.9378
12:51:12.705,-32.8439,-79.1878
12:51:12.715,-33.8439,-84.5003
12:51:12.724,-35.5626,-87.1253
12:51:12.735,-36.7501,-91.3129
12:51:12.744,-37.8439,-94.8129
12:51:12.755,-39.1251,-97.6254
12:51:12.765,-39.9064,-100.5629
12:51:12.775,-39.4689,-100.4379
12:51:12.785,-39.5314,-101.8129
12:51:12.798,-39.0001,-98.1879
12:51:12.807,-37.2189,-91.7504
12:51:12.818,-33.1251,-79.3128
12:51:12.825,-28.2501,-62.2502
12:51:12.834,-21.7188,-43.7502
12:51:12.845,-16.7188,-25.1876
12:51:12.854,-11.625,-10.375
12:51:12.864,-7.0938,1.5
12:51:12.874,-5.0625,11.5
12:51:12.887,-1.6875,18.8126
12:51:12.897,-1.0625,24.8126
12:51:12.905,0.9375,30.5001
12:51:12.915,1.8125,35.8751
12:51:12.925,4.1563,41.3752
12:51:12.935,5.4375,47.0002
12:51:12.945,7.75,51.7502
12:51:13.007,9.6875,59.1252
12:51:13.008,10.7188,62.3752
12:51:13.009,12.8438,68.5628
12:51:13.012,14.1876,71.6253
12:51:13.013,15.4376,75.8753
12:51:13.040,16.2188,78.1253
12:51:13.042,17.0626,80.9378
12:51:13.042,18.5001,82.3128
12:51:13.046,18.6876,84.0003
12:51:13.051,18.0938,81.0628
12:51:13.054,17.6251,79.8128
12:51:13.087,16.2501,74.0003
12:51:13.090,15.2813,71.3753
12:51:13.092,14.3438,66.0628
12:51:13.095,13.9688,62.7502
12:51:13.124,13.4063,60.6877
12:51:13.126,12.25,57.8127
12:51:13.128,12.0938,56.1252
12:51:13.135,11.8438,52.9377
12:51:13.145,10.125,51.1252
12:51:13.154,9.1563,48.1252
12:51:13.165,8.2813,45.0002
12:51:13.174,8.0625,42.3752
12:51:13.184,7.4375,39.3751
12:51:13.194,6.5938,37.3126
12:51:13.205,5.9375,35.1876
12:51:13.214,5.3125,32.5001
12:51:13.225,4.4063,30.4376
12:51:13.234,3.8438,27.9376
12:51:13.245,2.6563,24.5001
12:51:13.254,0.6875,21.0001
12:51:13.268,0.2188,17.8126
12:51:13.275,-0.9063,14.5001
12:51:13.285,-1.125,11.8125
12:51:13.295,-3.4063,6.8125
12:51:13.304,-5.25,2.375
12:51:13.315,-7.4063,-2.5
12:51:13.325,-8.7188,-7.0625
12:51:13.335,-10.7813,-11.4375
12:51:13.345,-12.8125,-15.8751
12:51:13.357,-13.0313,-20.4376
12:51:13.365,-14.8126,-24.2501
12:51:13.376,-14.9063,-27.0626
12:51:13.384,-16.7501,-30.5626
12:51:13.394,-17.4376,-35.1251
12:51:13.404,-18.8438,-39.0626
12:51:13.415,-20.4376,-42.0627
12:51:13.425,-21.4688,-46.7502
12:51:13.435,-22.5001,-49.6252
12:51:13.445,-23.0313,-53.0002
12:51:13.455,-23.3751,-54.2502
12:51:13.465,-23.9688,-57.6877
12:51:13.475,-24.4376,-59.8127
12:51:13.487,-25.0001,-62.8127
12:51:13.495,-25.7813,-64.6252
12:51:13.504,-27.7501,-68.8128
12:51:13.514,-28.6876,-72.3128
12:51:13.524,-31.4064,-75.3128
12:51:13.535,-32.1564,-80.5003
12:51:13.545,-33.1251,-83.2503
12:51:13.556,-35.0939,-86.7503
12:51:13.565,-35.3751,-89.8128
12:51:13.576,-37.5939,-92.8129
12:51:13.585,-38.6564,-97.1879
12:51:13.595,-39.4689,-99.2504
12:51:13.605,-40.6877,-102.2504
12:51:13.615,-41.4064,-105.6879
12:51:13.625,-42.5002,-108.5004
12:51:13.635,-44.6252,-111.9379
12:51:13.645,-45.1877,-115.4379
12:51:13.654,-47.2814,-117.938
12:51:13.667,-47.2189,-122.0005
12:51:13.675,-48.5002,-122.6255
12:51:13.713,-49.6877,-126.188
12:51:13.716,-49.3439,-126.813
12:51:13.746,-50.0314,-125.3755
12:51:13.752,-48.5627,-123.188
12:51:13.752,-45.8752,-114.2504
12:51:13.757,-42.8752,-102.2504
12:51:13.760,-37.1564,-85.3753
12:51:13.760,-29.7501,-61.7502
12:51:13.764,-23.3126,-42.0627
12:51:13.796,-18.2188,-24.3126
12:51:13.798,-13.7188,-12
12:51:13.801,-10.9063,-2
12:51:13.805,-8.5938,4.375
12:51:13.834,-5.9688,12.875
12:51:13.836,-4.2813,18.2501
12:51:13.839,-2.2188,24.7501
12:51:13.844,-0.7813,28.5626
12:51:13.860,1.125,33.8126
12:51:13.865,2.5625,37.5626
12:51:13.876,3.8125,42.3752
12:51:13.885,5.1563,46.1877
12:51:13.895,6,49.9377
12:51:13.906,6.5625,53.0002
12:51:13.917,7.4063,54.3127
12:51:13.924,8.4688,57.7502
12:51:13.934,8.1563,57.8752
12:51:13.944,8.0938,55.6877
12:51:13.955,7.125,53.6877
12:51:13.964,5.9375,50.1877
12:51:13.974,4.875,45.3127
12:51:13.984,1.9375,40.3752
12:51:13.994,0.4375,35.3126
12:51:14.004,-1.125,28.5001
12:51:14.019,-3,23.5626
12:51:14.025,-4.125,19.1251
12:51:14.036,-5.9375,13.5626
12:51:14.047,-7.8125,8.5
12:51:14.055,-9.1875,6.1875
12:51:14.064,-9.9063,1.0625
12:51:14.075,-11.5625,-2.25
12:51:14.085,-12.0313,-5.6875
12:51:14.095,-13.5001,-8.875
12:51:14.105,-14.4376,-11.8125
12:51:14.117,-15.1563,-16.8751
12:51:14.125,-16.6563,-19.8751
12:51:14.135,-17.7501,-23.5001
12:51:14.145,-18.8751,-28.0626
12:51:14.155,-20.1876,-31.4376
12:51:14.165,-20.3438,-33.6876
12:51:14.175,-22.1563,-38.3126
12:51:14.187,-22.0938,-41.7502
12:51:14.194,-24.3126,-45.2502
12:51:14.205,-24.5313,-49.4377
12:51:14.215,-26.2501,-53.3127
12:51:14.225,-26.9376,-57.2502
12:51:14.234,-28.5939,-61.5002
12:51:14.245,-29.0626,-65.1877
12:51:14.285,-30.6876,-68.4378
12:51:14.290,-30.7189,-72.0003
12:51:14.292,-32.0626,-75.1878
12:51:14.293,-32.6564,-78.5628
12:51:14.296,-32.8439,-80.3128
12:51:14.305,-34.4689,-82.6253
12:51:14.314,-34.1251,-86.4378
12:51:14.324,-34.6251,-88.8128
12:51:14.335,-36.0939,-91.5004
12:51:14.345,-35.8439,-93.8754
12:51:14.357,-37.3126,-95.5004
12:51:14.364,-37.1564,-98.1254
12:51:14.374,-37.7189,-99.3754
12:51:14.396,-37.8439,-102.5004
12:51:14.399,-37.8751,-103.3129
12:51:14.425,-38.9376,-103.4379
12:51:14.426,-38.3439,-106.6254
12:51:14.428,-38.9689,-107.9379
12:51:14.436,-38.8751,-108.2504
12:51:14.461,-39.5627,-110.1254
12:51:14.463,-38.9376,-110.2504
12:51:14.465,-39.1877,-110.3754
12:51:14.496,-38.8751,-112.8129
12:51:14.499,-39.7502,-113.1879
12:51:14.501,-39.6564,-114.3754
12:51:14.506,-39.1251,-114.3129
12:51:14.536,-39.6252,-116.0004
12:51:14.538,-39.4377,-116.6879
12:51:14.541,-40.1252,-116.3129
12:51:14.565,-39.8752,-118.063
12:51:14.567,-39.8439,-118.0005
12:51:14.569,-39.0626,-118.313
12:51:14.575,-39.1564,-116.3129
12:51:14.589,-38.7501,-115.1254
12:51:14.596,-36.7814,-109.1254
12:51:14.607,-33.7814,-99.0629
12:51:14.615,-27.5939,-80.8128
12:51:14.624,-21.5626,-61.1877
12:51:14.635,-13.4063,-34.6251
12:51:14.645,-5.25,-10.625
12:51:14.655,0.9063,8.625
12:51:14.665,5.625,22.4376
12:51:14.675,9.0938,33.0626
12:51:14.684,11.0625,39.5627
12:51:14.694,13.2188,46.7502
12:51:14.705,14.7188,52.6252
12:51:14.715,16.8438,57.1252
12:51:14.725,17.5313,62.1877
12:51:14.735,19.2501,65.3127
12:51:14.745,20.4688,70.3753
12:51:14.755,21.5938,73.4378
12:51:14.765,23.9063,77.2503
12:51:14.775,23.9063,80.3128
12:51:14.786,25.0938,82.3128
12:51:14.795,25.7188,86.0003
12:51:14.805,25.4376,85.3753
12:51:14.815,25.5001,86.1253
12:51:14.825,24.9376,83.8753
12:51:14.835,23.7501,81.3128
12:51:14.846,22.7501,77.0003
12:51:14.854,19.7813,71.0628
12:51:14.864,18.4376,66.0628
12:51:14.874,16.9063,59.3127
12:51:14.885,14.6251,55.2502
12:51:14.894,12.9688,49.3752
12:51:14.905,11.4375,46.1877
12:51:14.915,10.4688,41.1877
12:51:14.927,9.4688,36.8126
12:51:14.934,8.0313,34.0001
12:51:14.945,7.0938,30.3126
12:51:14.960,5.4063,27.6251
12:51:14.965,4.3125,24.6876
12:51:14.975,3.6563,20.3751
12:51:14.985,1.8125,17.5001
12:51:14.995,1,14.2501
12:51:15.011,-0.1875,9.75
12:51:15.025,-1.0313,5.9375
12:51:15.029,-1.7813,2.375
12:51:15.035,-3.75,-1.5
12:51:15.045,-4.2813,-4.9375
12:51:15.054,-6.0313,-8.3125
12:51:15.065,-6.5,-11.75
12:51:15.076,-7.7188,-16.0001
12:51:15.085,-9.75,-19.8126
12:51:15.094,-10.7188,-23.8751
12:51:15.105,-11.0938,-27.9376
12:51:15.115,-12.4688,-31.2501
12:51:15.124,-13.2501,-34.6876
12:51:15.157,-14.4376,-38.8751
12:51:15.160,-15.9688,-41.1877
12:51:15.163,-17.2813,-45.5627
12:51:15.164,-18.1251,-49.9377
12:51:15.198,-18.8438,-51.3127
12:51:15.201,-19.8751,-56.2502
12:51:15.203,-21.4063,-57.0627
12:51:15.206,-21.6563,-61.7502
12:51:15.235,-22.2501,-63.3752
12:51:15.237,-23.0313,-66.1878
12:51:15.239,-23.4688,-68.7503
12:51:15.272,-24.4688,-69.4378
12:51:15.274,-24.6251,-73.5628
12:51:15.277,-24.9063,-74.6253
12:51:15.280,-26.1876,-76.7503
12:51:15.285,-26.5001,-79.5003
12:51:15.313,-26.4064,-81.0003
12:51:15.316,-27.1251,-82.0628
12:51:15.318,-26.9376,-83.5003
12:51:15.329,-28.0626,-85.8128
12:51:15.336,-28.2814,-87.5003
12:51:15.345,-29.0939,-87.7503
12:51:15.355,-29.2814,-90.4379
12:51:15.365,-28.7189,-90.6254
12:51:15.380,-29.7189,-92.5629
12:51:15.389,-29.5314,-94.0629
12:51:15.400,-30.1876,-95.0004
12:51:15.411,-30.2501,-96.6879
12:51:15.420,-30.5001,-96.4379
12:51:15.430,-30.3126,-97.1254
12:51:15.439,-30.0314,-94.3754
12:51:15.450,-28.1564,-89.1253
12:51:15.461,-24.1876,-76.5003
12:51:15.470,-18.7188,-60.5627
12:51:15.479,-12.4375,-38.3126
12:51:15.490,-3.7813,-12.75
12:51:15.500,2.7188,8.3125
12:51:15.512,8.4063,25.3126
12:51:15.520,12.0625,37.3126
12:51:15.529,15.0626,45.6877
12:51:15.562,16.7813,56.1877
12:51:15.563,19.4376,61.6252
12:51:15.578,21.5313,65.5003
12:51:15.593,22.4376,71.2503
12:51:15.596,23.9688,73.6253
12:51:15.611,24.7188,78.9378
12:51:15.613,26.4376,82.0628
12:51:15.628,28.2814,85.9378
12:51:15.628,28.7501,89.5628
12:51:15.632,29.9689,92.3129
12:51:15.639,30.3751,96.0004
12:51:15.650,31.5626,97.1879
12:51:15.659,31.7189,99.1254
12:51:15.669,31.4064,97.0004
12:51:15.680,29.9064,94.9379
12:51:15.689,29.3126,92.1254
12:51:15.700,27.0314,88.0628
12:51:15.709,26.4064,82.6253
12:51:15.720,23.6563,77.2503
12:51:15.730,21.1563,71.3753
12:51:15.739,20.2501,65.5002
12:51:15.750,18.2813,60.8127
12:51:15.760,16.8126,56.0627
12:51:15.770,15.9376,53.0627
12:51:15.779,14.3126,48.8752
12:51:15.791,13.4376,45.3752
12:51:15.799,11.9688,43.3752
12:51:15.810,11.1563,38.5001
12:51:15.821,9.875,35.7501
12:51:15.849,9.5313,32.5001
12:51:15.851,7.4688,29.3126
12:51:15.854,5.875,25.8126
12:51:15.860,5.6563,21.9376
12:51:15.886,3.8438,18.3126
12:51:15.888,2.1875,13
12:51:15.890,1.125,8.9375
12:51:15.921,-0.2188,6.4375
12:51:15.923,-1.3438,1.0625
12:51:15.925,-2.2813,-2.1875
12:51:15.930,-3.7188,-6.9375
12:51:15.962,-4.4688,-10.6875
12:51:15.965,-6.0313,-13.6876
12:51:15.969,-6.875,-17.9376
12:51:15.993,-8.875,-21.1251
12:51:15.994,-9.75,-25.9376
12:51:15.998,-10.9688,-30.3126
12:51:16.004,-12.0625,-33.1876
12:51:16.011,-12.625,-36.4376
12:51:16.019,-14.3751,-39.2502
12:51:16.029,-15.0626,-42.4377
12:51:16.040,-15.6563,-45.5627
12:51:16.049,-16.9376,-48.5002
12:51:16.060,-17.5626,-50.3752
12:51:16.069,-18.0626,-54.5002
12:51:16.084,-18.7813,-55.8127
12:51:16.090,-19.5001,-59.8752
12:51:16.100,-20.3126,-61.6252
12:51:16.109,-21.5001,-63.6252
12:51:16.119,-21.6251,-66.6878
12:51:16.130,-22.6563,-67.5003
12:51:16.141,-22.6563,-70.2503
12:51:16.150,-23.6876,-71.0003
12:51:16.159,-23.6251,-74.2503
12:51:16.169,-23.7188,-75.6253
12:51:16.179,-25.3751,-76.4378
12:51:16.190,-25.0313,-78.9378
12:51:16.202,-25.4063,-79.6878
12:51:16.210,-25.3126,-82.1878
12:51:16.219,-25.8751,-82.8753
12:51:16.230,-26.7501,-85.7503
12:51:16.240,-27.1251,-86.3128
12:51:16.250,-27.6251,-88.8128
12:51:16.259,-27.4376,-89.2503
12:51:16.270,-28.2814,-90.0628
12:51:16.280,-28.4064,-91.3754
12:51:16.290,-28.5001,-90.2504
12:51:16.306,-27.3439,-87.8753
12:51:16.321,-24.5626,-81.1253
12:51:16.326,-21.3438,-68.6253
12:51:16.333,-15.5313,-51.2502
12:51:16.340,-7.5938,-25.0001
12:51:16.351,0.25,-0.5
12:51:16.359,5.9688,18.3751
12:51:16.370,10.6875,32.1251
12:51:16.380,14.0626,42.5002
12:51:16.390,15.7188,51.8752
12:51:16.402,18.0626,58.0627
12:51:16.410,20.9376,62.8127
12:51:16.419,21.2501,67.1878
12:51:16.429,23.0313,71.2503
12:51:16.439,24.3438,76.5628
12:51:16.450,26.0938,79.3753
12:51:16.464,27.5001,84.6253
12:51:16.471,28.5626,87.1253
12:51:16.480,29.8126,92.8129
12:51:16.491,30.7814,95.8754
12:51:16.499,32.0626,98.4379
12:51:16.509,32.2501,101.8754
12:51:16.520,32.7814,102.2504
12:51:16.530,32.7814,102.3754
12:51:16.542,32.2501,100.9379
12:51:16.549,31.4689,98.3754
12:51:16.560,29.7501,94.3754
12:51:16.570,28.0314,89.2503
12:51:16.579,25.8438,83.1253
12:51:16.591,23.2188,77.5003
12:51:16.603,21.9376,70.8128
12:51:16.635,19.6876,65.8753
12:51:16.636,17.9688,60.8127
12:51:16.638,16.6251,56.6252
12:51:16.641,15.8126,54.0627
12:51:16.678,14.4063,49.3752
12:51:16.681,13.7188,46.1252
12:51:16.684,12.75,43.0627
12:51:16.686,10.875,40.0627
12:51:16.691,10.3125,36.5001
12:51:16.720,8.5313,32.6251
12:51:16.722,7.4063,29.8751
12:51:16.724,6.6563,24.8126
12:51:16.729,4.4688,20.9376
12:51:16.760,3.7188,17.0626
12:51:16.763,2.25,13.125
12:51:16.765,1.9063,9
12:51:16.771,0.125,5.3125
12:51:16.780,-1.2188,1.75
12:51:16.790,-2.6875,-2.3125
12:51:16.800,-3.5313,-5.4375
12:51:16.810,-4.9688,-10.5
12:51:16.840,-5.9063,-14.3126
12:51:16.842,-6.8438,-18.1876
12:51:16.844,-8.2813,-22.0001
12:51:16.854,-10.2188,-25.4376
12:51:16.861,-10.25,-29.7501
12:51:16.872,-11.9063,-32.6876
12:51:16.880,-12.6875,-35.5626
12:51:16.896,-13.3751,-39.6252
12:51:16.913,-14.5938,-42.3752
12:51:16.915,-15.1876,-45.3752
12:51:16.930,-16.1563,-47.6252
12:51:16.932,-16.9063,-49.9377
12:51:16.941,-17.4376,-54.1877
12:51:16.949,-17.6876,-55.7502
12:51:16.960,-19.2501,-57.8752
12:51:16.969,-19.0313,-60.6877
12:51:16.980,-20.5626,-62.8752
12:51:16.989,-20.6876,-65.3752
12:51:17.000,-21.5938,-66.9378
12:51:17.010,-22.1876,-70.8753
12:51:17.020,-22.5001,-71.1878
12:51:17.030,-23.0001,-74.1253
12:51:17.039,-23.5938,-74.9378
12:51:17.049,-24.5938,-77.6253
12:51:17.060,-24.2501,-78.0003
12:51:17.069,-24.7188,-80.3128
12:51:17.079,-25.4688,-81.1253
12:51:17.089,-25.9376,-83.8753
12:51:17.099,-25.7813,-85.3753
12:51:17.112,-26.8751,-85.6878
12:51:17.120,-26.9376,-87.3128
12:51:17.130,-26.5314,-88.8753
12:51:17.140,-27.6251,-90.1878
12:51:17.150,-28.0626,-91.6254
12:51:17.161,-26.8439,-91.1879
12:51:17.170,-27.7501,-90.3754
12:51:17.181,-25.3751,-86.2503
12:51:17.189,-22.7813,-76.3128
12:51:17.200,-17.8751,-61.4377
12:51:17.209,-11.5938,-40.1877
12:51:17.220,-3.2188,-13.4376
12:51:17.233,4,8.375
12:51:17.240,9.4375,26.3751
12:51:17.250,12.6563,38.2501
12:51:17.260,16.3126,47.2502
12:51:17.269,18.0938,55.4377
12:51:17.289,20.0001,59.9377
12:51:17.291,22.2813,66.0003
12:51:17.322,23.0938,70.7503
12:51:17.326,24.7501,74.1253
12:51:17.326,26.3751,79.5003
12:51:17.333,27.4689,83.5628
12:51:17.358,29.7189,88.8128
12:51:17.361,30.4689,93.9379
12:51:17.363,32.1876,97.1879
12:51:17.370,33.9689,101.4379
12:51:17.382,33.9376,104.5629
12:51:17.410,35.8751,107.1879
12:51:17.412,35.1876,108.7504
12:51:17.415,35.0314,110.0004
12:51:17.421,35.0001,106.8754
12:51:17.445,33.5001,105.2504
12:51:17.447,32.5001,99.8754
12:51:17.449,30.5314,93.8754
12:51:17.461,28.5626,89.6878
12:51:17.469,26.7501,83.0628
12:51:17.479,24.2188,77.4378
12:51:17.491,23.4063,72.7503
12:51:17.500,21.7501,68.3753
12:51:17.510,20.0626,63.7502
12:51:17.520,19.1563,60.4377
12:51:17.532,17.7188,57.1877
12:51:17.540,17.0001,54.3752
12:51:17.550,15.6563,50.7502
12:51:17.560,14.8438,47.6252
12:51:17.570,13.5938,44.3127
12:51:17.582,12.375,40.6877
12:51:17.590,11.5313,37.0001
12:51:17.604,9.2188,33.6876
12:51:17.621,8.6563,30.0001
12:51:17.622,7.3438,25.8751
12:51:17.637,5.375,22.3126
12:51:17.653,4.8125,17.4376
12:51:17.655,2.875,14.3126
12:51:17.663,2.4375,9.9375
12:51:17.672,0.5313,5.375
12:51:17.680,-0.6875,1.8125
12:51:17.689,-1.9063,-3.125
12:51:17.700,-3,-7
12:51:17.712,-4.2813,-11.125
12:51:17.720,-5.7188,-14.5001
12:51:17.729,-6.4375,-17.8126
12:51:17.739,-8.0938,-21.4376
12:51:17.751,-9.1875,-24.3751
12:51:17.760,-10.0313,-28.7501
12:51:17.770,-11.1875,-32.6251
12:51:17.780,-11.9688,-35.5626
12:51:17.792,-12.375,-38.4376
12:51:17.799,-13.7813,-41.0002
12:51:17.809,-15.0626,-44.1252
12:51:17.820,-15.7501,-47.3752
12:51:17.830,-16.8126,-50.4377
12:51:17.839,-17.2813,-52.6252
12:51:17.849,-18.2813,-53.6252
12:51:17.860,-18.6251,-58.5002
12:51:17.872,-19.7188,-59.0002
12:51:17.880,-19.7188,-62.3127
12:51:17.889,-20.1251,-64.4377
12:51:17.900,-21.1251,-65.8752
12:51:17.912,-21.3751,-69.3753
12:51:17.920,-21.4688,-70.0628
12:51:17.929,-22.3126,-70.7503
12:51:17.940,-22.6876,-73.2503
12:51:17.952,-23.0313,-76.0003
12:51:17.959,-23.9376,-76.1878
12:51:17.969,-23.5626,-79.6253
12:51:17.981,-24.4688,-79.9378
12:51:18.013,-24.4688,-82.5003
12:51:18.015,-25.8438,-83.1253
12:51:18.017,-25.0938,-85.3753
12:51:18.021,-26.2188,-85.5003
12:51:18.052,-25.4063,-87.2503
12:51:18.054,-25.8126,-85.1878
12:51:18.056,-24.1251,-82.8753
12:51:18.063,-21.9376,-73.1878
12:51:18.096,-17.6563,-60.7502
12:51:18.098,-11.8125,-39.8752
12:51:18.100,-3.0625,-15.2501
12:51:18.129,3.875,8.375
12:51:18.130,9.625,25.1251
12:51:18.130,13.4688,39.3127
12:51:18.141,16.9376,49.0002
12:51:18.146,19.4063,57.8752
12:51:18.171,22.1876,63.0002
12:51:18.176,22.8438,68.6878
12:51:18.176,25.1251,73.6253
12:51:18.188,26.6564,79.1253
12:51:18.204,28.3751,84.0628
12:51:18.209,30.0939,88.0003
12:51:18.218,30.6564,94.1879
12:51:18.228,32.4689,96.5629
12:51:18.242,33.7189,101.6254
12:51:18.248,34.9064,105.2504
12:51:18.257,36.6876,109.5004
12:51:18.268,36.9689,112.4379
12:51:18.275,37.7189,114.0629
12:51:18.284,37.7501,113.8754
12:51:18.296,36.9689,114.1879
12:51:18.305,35.4689,108.3754
12:51:18.314,33.5939,103.9379
12:51:18.325,30.9376,98.1879
12:51:18.335,29.3439,91.1254
12:51:18.345,27.5314,86.4378
12:51:18.358,25.2813,79.9378
12:51:18.365,23.1563,75.3128
12:51:18.377,22.8751,71.1878
12:51:18.385,21.0626,67.0003
12:51:18.394,19.6251,64.1877
12:51:18.404,18.4688,60.8752
12:51:18.415,17.5001,56.0627
12:51:18.425,15.8126,53.8752
12:51:18.435,15.9688,50.6877
12:51:18.445,14.3438,46.3752
12:51:18.454,12.4688,43.1252
12:51:18.464,10.9375,38.3751
12:51:18.474,9.875,35.3751
12:51:18.485,8.4688,31.1876
12:51:18.494,7.1875,24.9376
12:51:18.506,5.625,21.7501
12:51:18.518,4.3438,17.1251
12:51:18.526,2.4688,13
12:51:18.535,1.4688,8.9375
12:51:18.545,0.0938,4.875
12:51:18.555,-1.6563,1
12:51:18.565,-2.6875,-3.375
12:51:18.576,-3.8438,-7.4375
12:51:18.585,-4.8125,-11.1875
12:51:18.597,-6.4375,-15.5626
12:51:18.608,-7.625,-18.8751
12:51:18.615,-9.1563,-23.4376
12:51:18.625,-9.7813,-27.1876
12:51:18.637,-10.5,-30.5626
12:51:18.646,-11.6563,-33.6251
12:51:18.654,-13.0938,-37.3751
12:51:18.667,-14.0313,-39.5627
12:51:18.675,-14.9688,-42.3752
12:51:18.684,-15.9376,-45.2502
12:51:18.695,-16.2501,-48.1252
12:51:18.713,-16.8438,-51.4377
12:51:18.715,-18.1563,-54.4377
12:51:18.745,-18.7813,-55.9377
12:51:18.746,-19.6563,-57.4377
12:51:18.748,-19.7188,-61.2502
12:51:18.756,-20.7501,-62.5627
12:51:18.785,-21.7813,-65.4378
12:51:18.789,-22.1563,-67.7503
12:51:18.791,-22.3126,-69.8128
12:51:18.797,-22.9376,-71.8753
12:51:18.829,-23.7501,-73.0628
12:51:18.832,-23.7501,-75.5003
12:51:18.836,-24.2813,-76.6878
12:51:18.839,-25.4376,-78.5003
12:51:18.844,-25.1251,-80.5003
12:51:18.879,-26.0001,-81.6878
12:51:18.882,-26.3751,-83.3753
12:51:18.884,-26.5939,-85.0628
12:51:18.887,-27.2189,-86.5003
12:51:18.900,-27.4064,-88.8128
12:51:18.905,-28.2189,-88.6878
12:51:18.917,-27.7501,-90.5629
12:51:18.926,-28.1876,-89.1253
12:51:18.948,-27.1564,-88.6253
12:51:18.949,-25.1251,-82.9378
12:51:18.961,-21.8126,-71.0003
12:51:18.965,-16.7188,-55.2502
12:51:18.981,-8.75,-30.2501
12:51:18.988,-1.0313,-4.875
12:51:18.998,5.8438,16.0626
12:51:19.005,10.9063,31.1876
12:51:19.015,14.5938,43.6877
12:51:19.025,17.3126,53.3127
12:51:19.035,20.2813,61.0627
12:51:19.044,21.6876,68.0628
12:51:19.054,23.8438,73.2503
12:51:19.067,25.5938,78.5003
12:51:19.074,27.6876,83.8753
12:51:19.085,28.6251,88.7503
12:51:19.096,30.4376,93.3754
12:51:19.104,31.8439,98.1879
12:51:19.114,33.5626,102.8129
12:51:19.126,34.4689,107.6254
12:51:19.136,36.0939,111.7504
12:51:19.146,37.1876,116.3129
12:51:19.155,37.9376,117.8755
12:51:19.164,38.5626,119.563
12:51:19.175,37.9376,119.7505
12:51:19.185,37.3439,117.6879
12:51:19.197,35.6251,114.3129
12:51:19.205,34.3751,109.0004
12:51:19.216,32.4064,103.8129
12:51:19.225,29.6876,97.0629
12:51:19.236,28.0314,92.1879
12:51:19.244,26.1876,86.0003
12:51:19.254,25.0001,81.5628
12:51:19.266,22.1876,76.9378
12:51:19.281,21.7813,72.7503
12:51:19.284,19.8751,68.6878
12:51:19.296,18.3438,65.0002
12:51:19.305,17.0938,59.9377
12:51:19.315,15.9063,56.2502
12:51:19.325,14.0626,52.6877
12:51:19.335,12.7188,48.6252
12:51:19.345,11.6563,44.3752
12:51:19.354,10.375,40.0627
12:51:19.367,9.0625,36.0001
12:51:19.375,7.25,32.2501
12:51:19.399,5.7188,27.1876
12:51:19.402,4.125,22.8751
12:51:19.409,3.0625,18.5001
12:51:19.419,1.2188,13.7501
12:51:19.434,0,9.375
12:51:19.445,-1.625,5.1875
12:51:19.457,-2.625,0.9375
12:51:19.466,-3.875,-3.5625
12:51:19.474,-5.7188,-8
12:51:19.486,-6.7188,-13.1251
12:51:19.498,-8.125,-15.5626
12:51:19.520,-9.2813,-20.6876
12:51:19.528,-10.25,-24.6251
12:51:19.630,-11.75,-28.9376
12:51:19.631,-12.3438,-32.0626
12:51:19.634,-14.3438,-35.7501
12:51:19.634,-16.5001,-40.6252
12:51:19.634,-16.9688,-44.8752
12:51:19.647,-18.0626,-48.5627
12:51:19.652,-19.4376,-50.6252
12:51:19.677,-19.5001,-54.5002
12:51:19.679,-20.9688,-59.0627
12:51:19.682,-21.7501,-59.8127
12:51:19.689,-22.1563,-63.3127
12:51:19.705,-22.9063,-65.9378
12:51:19.711,-23.8438,-68.6878
12:51:19.721,-24.4376,-70.1253
12:51:19.731,-25.2501,-73.2503
12:51:19.742,-25.4376,-75.1253
12:51:19.749,-26.2813,-77.3128
12:51:19.759,-26.9689,-80.1253
12:51:19.772,-27.2814,-82.5628
12:51:19.781,-28.2501,-84.3128
12:51:19.790,-28.6251,-85.9378
12:51:19.801,-34.5626,-108.5629
12:51:19.810,-35.6564,-108.8754
12:51:19.820,-35.3751,-110.9379
12:51:19.832,-35.5626,-110.3129
12:51:19.840,-35.3126,-111.1254
12:51:19.850,-35.1564,-109.9379
12:51:19.861,-34.0939,-106.7504
12:51:19.870,-32.0939,-100.5004
12:51:19.881,-27.8751,-86.8128
12:51:19.891,-21.7188,-67.2503
12:51:19.900,-13.6563,-41.4377
12:51:19.911,-5.0938,-15.3751
12:51:19.921,1.9688,5.75
12:51:19.932,6.0313,22.9376
12:51:19.940,10.0313,34.0001
12:51:19.951,14.1563,43.1877
12:51:19.959,15.6563,51.5627
12:51:19.969,18.1251,57.6252
12:51:19.979,19.8751,64.0627
12:51:19.993,21.9376,70.9378
12:51:19.999,23.5938,74.6253
12:51:20.009,25.7813,80.0628
12:51:20.021,26.6564,85.3753
12:51:20.029,28.3751,90.0629
12:51:20.041,30.0001,95.5004
12:51:20.050,31.5001,99.5629
12:51:20.061,32.6251,104.5004
12:51:20.071,33.6251,107.1879
12:51:20.080,34.3126,109.0629
12:51:20.091,34.3126,111.3129
12:51:20.101,34.0939,110.8129
12:51:20.111,32.9064,106.8754
12:51:20.120,31.5314,104.0004
12:51:20.131,29.3751,97.9379
12:51:20.139,28.0626,93.3754
12:51:20.151,25.5626,86.5003
12:51:20.161,23.7813,80.6878
12:51:20.169,22.5938,76.1253
12:51:20.181,20.4063,71.3128
12:51:20.189,19.4688,66.4378
12:51:20.201,17.1876,63.0627
12:51:20.211,16.8751,60.0627
12:51:20.242,14.9063,55.7502
12:51:20.247,13.1875,52.8752
12:51:20.247,12.7188,47.4377
12:51:20.251,11.0625,44.0627
12:51:20.260,9.875,40.4377
12:51:20.322,8,36.0626
12:51:20.324,7.5625,33.1876
12:51:20.339,5.9688,27.1251
12:51:20.372,4.6563,23.4376
12:51:20.372,3.5625,19.3126
12:51:20.372,1.625,15.1876
12:51:20.373,0.9063,10.75
12:51:20.376,-0.8125,7.8125
12:51:20.381,-1.8438,2.625
12:51:20.382,-3.375,-1.5625
12:51:20.404,-4.6563,-5.625
12:51:20.408,-5.8125,-9.375
12:51:20.411,-7.5938,-13.6251
12:51:20.421,-8.8438,-18.3751
12:51:20.429,-10.0938,-22.2501
12:51:20.441,-11.1563,-25.8126
12:51:20.455,-12.5,-30.0001
12:51:20.461,-13.5626,-33.0001
12:51:20.470,-14.3751,-36.4376
12:51:20.481,-15.6251,-40.6252
12:51:20.491,-16.4063,-44.1252
12:51:20.499,-17.6563,-47.4377
12:51:20.512,-20.6563,-58.0627
12:51:20.521,-21.0626,-61.5627
12:51:20.531,-22.5626,-64.1252
12:51:20.541,-22.8438,-65.0627
12:51:20.550,-23.5001,-69.1253
12:51:20.560,-24.3751,-70.1878
12:51:20.571,-24.9688,-72.0003
12:51:20.580,-25.7188,-73.8128
12:51:20.591,-25.0001,-76.7503
12:51:20.602,-26.3751,-78.6253
12:51:20.610,-26.5939,-80.8753
12:51:20.620,-27.8126,-82.2503
12:51:20.632,-27.9376,-84.5003
12:51:20.640,-28.9064,-85.1878
12:51:20.651,-29.2501,-88.5003
12:51:20.678,-29.2189,-89.6253
12:51:20.684,-29.9689,-90.2503
12:51:20.687,-29.8126,-92.8754
12:51:20.689,-30.4689,-93.6254
12:51:20.700,-31.0626,-95.7504
12:51:20.711,-31.1564,-96.9379
12:51:20.724,-31.1251,-98.0004
12:51:20.731,-31.6251,-98.9379
12:51:20.741,-30.9376,-97.8129
12:51:20.754,-30.5626,-93.5629
12:51:20.761,-27.3751,-86.3128
12:51:20.771,-22.5313,-72.3753
12:51:20.784,-16.5313,-52.1877
12:51:20.790,-8.5938,-27.5626
12:51:20.801,-1.0313,-2.75
12:51:20.811,4.5625,15.0001
12:51:20.821,9.7188,29.5626
12:51:20.831,13.4376,42.3127
12:51:20.841,15.6876,49.7502
12:51:20.849,18.1251,56.5002
12:51:20.861,20.0626,62.8752
12:51:20.873,21.4376,69.7503
12:51:20.881,24.1563,73.1253
12:51:20.891,24.9688,79.3753
12:51:20.906,27.1564,83.6878
12:51:20.920,28.0001,89.3128
12:51:20.923,29.9689,92.7504
12:51:20.938,31.2189,98.6879
12:51:20.969,32.6251,101.7504
12:51:20.971,34.4689,105.6879
12:51:20.973,34.2501,108.9379
12:51:20.976,34.9064,110.3754
12:51:20.981,34.8126,111.1254
12:51:21.013,34.5001,110.1254
12:51:21.014,33.1251,106.5004
12:51:21.017,31.3751,102.0004
12:51:21.020,29.4689,95.8129
12:51:21.050,27.1876,91.0004
12:51:21.052,25.9376,84.1878
12:51:21.054,23.1876,78.8128
12:51:21.061,21.1563,73.5628
12:51:21.089,20.0626,68.0003
12:51:21.091,18.5313,64.3127
12:51:21.093,17.2501,60.1252
12:51:21.099,15.3438,56.1252
12:51:21.120,14.2188,52.2502
12:51:21.122,13,48.5002
12:51:21.131,11.7813,44.6877
12:51:21.141,10.3438,41.3752
12:51:21.154,8.875,36.2501
12:51:21.161,7.5,32.8751
12:51:21.170,6.0625,27.0626
12:51:21.180,4.8125,23.9376
12:51:21.190,2.7813,18.6876
12:51:21.207,1.5938,14.8751
12:51:21.212,-0.0313,10.125
12:51:21.221,-1.125,5.6875
12:51:21.231,-3.0313,1.1875
12:51:21.242,-4.5,-3
12:51:21.251,-5.3438,-7.375
12:51:21.261,-6.4063,-11.4375
12:51:21.272,-8,-16.1251
12:51:21.281,-9.2813,-19.1876
12:51:21.291,-10.125,-23.8751
12:51:21.301,-11.2813,-27.8751
12:51:21.311,-12.5313,-31.6876
12:51:21.321,-13.5626,-33.9376
12:51:21.331,-14.0001,-38.4376
12:51:21.340,-15.2501,-41.6877
12:51:21.351,-16.2813,-45.6877
12:51:21.361,-17.7188,-47.8127
12:51:21.371,-18.2188,-51.2502
12:51:21.381,-18.9688,-55.0627
12:51:21.393,-19.5313,-56.8127
12:51:21.401,-20.8751,-60.4377
12:51:21.411,-21.0938,-62.6252
12:51:21.422,-22.0938,-65.0627
12:51:21.431,-22.7188,-67.1878
12:51:21.440,-23.7501,-70.6878
12:51:21.453,-24.4688,-73.3128
12:51:21.461,-24.6563,-74.7503
12:51:21.471,-26.0938,-76.5003
12:51:21.483,-26.5626,-79.6878
12:51:21.490,-27.0939,-81.6878
12:51:21.501,-27.8751,-82.8753
12:51:21.511,-27.7501,-85.3753
12:51:21.519,-28.3126,-86.4378
12:51:21.531,-29.3126,-87.4378
12:51:21.541,-29.0626,-90.3754
12:51:21.551,-30.2501,-91.2504
12:51:21.561,-30.5314,-93.2504
12:51:21.570,-30.2189,-94.6879
12:51:21.582,-31.1251,-96.1254
12:51:21.593,-31.3439,-98.2504
12:51:21.600,-31.5626,-98.8129
12:51:21.623,-32.4064,-100.5629
12:51:21.626,-31.7189,-100.4379
12:51:21.639,-32.1876,-99.5004
12:51:21.644,-31.4376,-99.8129
12:51:21.651,-29.4689,-93.3129
12:51:21.661,-26.2501,-82.1878
12:51:21.670,-20.7813,-66.4378
12:51:21.681,-13.2813,-43.1877
12:51:21.692,-5.375,-17.6876
12:51:21.701,1.9688,6.125
12:51:21.733,7.1563,23.5001
12:51:21.735,11.4063,36.1251
12:51:21.737,14.7501,46.7502
12:51:21.741,17.3751,54.9377
12:51:21.774,19.8126,61.3752
12:51:21.774,21.6876,68.6878
12:51:21.778,23.8751,73.8128
12:51:21.783,26.1563,80.6878
12:51:21.808,27.2814,84.1253
12:51:21.811,29.2189,90.3753
12:51:21.813,30.9064,94.8129
12:51:21.840,32.2189,99.6879
12:51:21.843,33.8751,105.1254
12:51:21.845,34.5939,109.0004
12:51:21.851,36.2189,112.2504
12:51:21.880,36.5939,115.3754
12:51:21.883,37.5626,116.6254
12:51:21.885,36.6564,116.0629
12:51:21.891,35.8439,114.3754
12:51:21.901,34.3751,110.1879
12:51:21.911,33.1564,105.3754
12:51:21.921,30.6251,99.2504
12:51:21.933,28.3126,94.2504
12:51:21.962,26.8751,86.9378
12:51:21.963,23.9688,82.6253
12:51:21.966,22.8438,76.1878
12:51:21.972,20.8438,71.6878
12:51:21.987,19.6563,67.0003
12:51:21.989,18.2188,62.1877
12:51:22.002,16.7813,59.8127
12:51:22.011,15.8438,55.2502
12:51:22.021,14.8126,51.0002
12:51:22.032,13.3438,47.6252
12:51:22.041,11.25,43.3752
12:51:22.051,10.5,39.3126
12:51:22.061,8.625,35.1251
12:51:22.070,7.875,30.6876
12:51:22.081,6.0313,26.4376
12:51:22.092,4.7188,22.0001
12:51:22.101,3.25,17.6876
12:51:22.111,1.9688,13.5626
12:51:22.123,0.4375,9
12:51:22.131,-0.6563,4.875
12:51:22.141,-2.0625,0.3125
12:51:22.153,-3.125,-3.5
12:51:22.161,-5.5625,-8.6875
12:51:22.171,-5.9063,-12.625
12:51:22.181,-8.125,-17.0001
12:51:22.190,-8.625,-21.2501
12:51:22.201,-10.625,-25.8126
12:51:22.222,-11.2813,-29.4376
12:51:22.224,-12.9063,-32.9376
12:51:22.239,-14.3126,-36.4376
12:51:22.242,-14.5001,-40.8127
12:51:22.257,-16.6251,-43.0627
12:51:22.261,-17.0938,-48.3127
12:51:22.271,-17.9688,-50.5002
12:51:22.281,-18.5001,-53.8752
12:51:22.291,-19.5938,-56.4377
12:51:22.301,-20.7188,-59.5627
12:51:22.312,-21.2813,-62.4377
12:51:22.321,-22.2188,-64.5002
12:51:22.331,-23.0938,-68.0003
12:51:22.341,-23.3438,-69.8753
12:51:22.351,-24.0313,-71.8753
12:51:22.362,-24.6563,-74.1253
12:51:22.371,-25.0313,-76.3753
12:51:22.381,-25.6251,-78.3128
12:51:22.392,-25.6876,-79.9378
12:51:22.400,-27.1876,-82.3128
12:51:22.411,-27.0939,-84.1253
12:51:22.424,-27.8751,-85.0628
12:51:22.434,-28.0001,-88.2503
12:51:22.467,-28.0001,-89.3753
12:51:22.468,-29.6876,-90.0628
12:51:22.471,-29.7501,-92.5629
12:51:22.473,-28.9689,-93.3754
12:51:22.481,-30.5314,-95.3754
12:51:22.512,-30.5626,-96.6879
12:51:22.515,-30.6251,-97.5004
12:51:22.517,-31.4376,-99.4379
12:51:22.542,-30.9376,-99.2504
12:51:22.543,-31.5314,-97.4379
12:51:22.547,-29.9689,-95.8129
12:51:22.551,-26.7814,-87.7503
12:51:22.590,-22.9688,-73.8753
12:51:22.592,-16.3126,-55.6252
12:51:22.597,-7.6875,-28.1876
12:51:22.598,-0.1563,-3.8125
12:51:22.600,7.375,17.6251
12:51:22.616,11.75,34.4376
12:51:22.620,15.6563,44.9377
12:51:22.631,18.6563,55.8752
12:51:22.641,21.0626,63.1252
12:51:22.651,23.4688,69.0003
12:51:22.661,25.6251,76.2503
12:51:22.671,27.6564,80.7503
12:51:22.681,29.5626,87.5628
12:51:22.691,32.0001,93.0629
12:51:22.701,33.1251,98.1879
12:51:22.711,35.6564,104.2504
12:51:22.721,38.0001,110.3129
12:51:22.737,40.7814,118.1255
12:51:22.740,43.5002,123.188
12:51:22.751,46.5314,129.063
12:51:22.762,47.9377,134.188
12:51:22.771,50.9377,138.3755
12:51:22.781,53.6877,143.5005
12:51:22.793,55.9065,145.7505
12:51:22.800,57.0002,148.1256
12:51:22.811,57.5002,146.4381
12:51:22.821,58.219,145.938
12:51:22.831,56.9065,143.438
12:51:22.842,56.0002,140.0005
12:51:22.851,55.1252,137.563
12:51:22.861,53.094,133.813
12:51:22.873,52.9377,130.938
12:51:22.881,51.1252,128.6255
12:51:22.891,50.3127,124.3755
12:51:22.904,47.8439,122.063
12:51:22.911,46.4377,118.8755
12:51:22.932,45.6252,114.3129
12:51:22.936,43.1877,111.5004
12:51:22.943,41.8439,106.3129
12:51:22.952,40.6252,103.5004
12:51:22.968,39.5627,99.0629
12:51:22.975,37.5001,95.7504
12:51:22.983,36.2189,89.9378
12:51:22.991,33.6876,86.8128
12:51:23.001,32.6876,81.1878
12:51:23.011,31.0314,77.6878
12:51:23.021,29.5939,71.9378
12:51:23.032,27.8126,67.8753
12:51:23.041,25.6876,62.6877
12:51:23.051,23.5001,56.8752
12:51:23.063,22.1563,52.2502
12:51:23.071,20.4063,46.1252
12:51:23.081,17.7813,42.0627
12:51:23.091,15.2188,36.6251
12:51:23.101,13.6251,30.0626
12:51:23.114,11.375,26.2501
12:51:23.121,10.3125,19.1876
12:51:23.131,7.6563,14.3126
12:51:23.141,6.6563,10.1875
12:51:23.151,5.1563,4.9375
12:51:23.164,3.25,1.3125
12:51:23.171,1.5,-3.9375
12:51:23.198,0.4063,-7.125
12:51:23.201,-0.875,-10.9375
12:51:23.203,-2.0938,-13.5001
12:51:23.242,-2.0625,-15.6876
12:51:23.244,-3.25,-18.4376
12:51:23.247,-3.5313,-20.3751
12:51:23.251,-4.4063,-21.8126
12:51:23.252,-4.5313,-22.8126
12:51:23.284,-4.5938,-24.6876
12:51:23.286,-3.75,-24.4376
12:51:23.288,-2.5313,-24.4376
12:51:23.291,-2.4375,-25.9376
12:51:23.321,-2.3125,-25.6251
12:51:23.325,-2.625,-27.5626
12:51:23.326,-3.5,-30.8751
12:51:23.331,-3.3125,-32.5001
