timestamp,Red,IR
11:32:29.444,-8.3125,-17.3751
11:32:29.453,-10,-19.6876
11:32:29.463,-12.5,-20.3751
11:32:29.477,-13.1251,-22.5626
11:32:29.483,-14.8126,-24.4376
11:32:29.495,-14.8751,-25.0001
11:32:29.503,-13.8751,-23.9376
11:32:29.515,-13.3751,-23.5001
11:32:29.524,-11.625,-23.4376
11:32:29.537,-11.625,-23.5001
11:32:29.544,-11.6875,-23.7501
11:32:29.555,-12,-24.5626
11:32:29.563,-14.0001,-26.4376
11:32:29.574,-14.8751,-27.5001
11:32:29.585,-15.5626,-29.7501
11:32:29.595,-15.5626,-30.1876
11:32:29.603,-16.2501,-30.1876
11:32:29.615,-15.1876,-30.5001
11:32:29.625,-14.7501,-30.3751
11:32:29.637,-14.7501,-30.0001
11:32:29.646,-14.0626,-30.4376
11:32:29.654,-15.0001,-30.5001
11:32:29.663,-15.8751,-32.3751
11:32:29.675,-17.4376,-34.3126
11:32:29.684,-19.6251,-36.6251
11:32:29.695,-20.9376,-38.4376
11:32:29.704,-22.5626,-40.3127
11:32:29.715,-24.1251,-41.5002
11:32:29.724,-24.7501,-43.1252
11:32:29.734,-23.3126,-42.0002
11:32:29.744,-21.5001,-40.6877
11:32:29.756,-19.8126,-38.6876
11:32:29.775,-16.6876,-36.0626
11:32:29.787,-13.5626,-31.6251
11:32:29.790,-11.5625,-27.0626
11:32:29.821,-8.1875,-21.5001
11:32:29.823,-5.5625,-15.6876
11:32:29.826,-2.5,-9.5625
11:32:29.833,-0.125,-4.4375
11:32:29.840,2.5625,0.75
11:32:29.870,4.5,4.75
11:32:29.872,7.5625,10.5625
11:32:29.876,10.5,13.0625
11:32:29.879,11.5625,15.9376
11:32:29.913,12.6875,17.7501
11:32:29.916,12.5,18.1251
11:32:29.918,11.3125,17.5001
11:32:29.924,9.875,19.3126
11:32:29.931,9.3125,17.8126
11:32:29.959,9.125,17.5626
11:32:29.961,9.5,19.0626
11:32:29.964,11.375,21.2501
11:32:29.970,12.875,22.6876
11:32:29.979,14.1251,25.0001
11:32:29.989,14.1876,26.5001
11:32:30.006,13.125,27.1876
11:32:30.009,12.75,25.8126
11:32:30.018,10.4375,24.0626
11:32:30.030,9,22.8751
11:32:30.038,8.6875,21.5001
11:32:30.049,7.4375,20.4376
11:32:30.060,7.6875,20.6251
11:32:30.070,9.3125,20.6876
11:32:30.079,10.25,21.3751
11:32:30.090,11.875,23.0626
11:32:30.098,12,23.5001
11:32:30.108,11.875,22.8126
11:32:30.120,10.6875,23.1251
11:32:30.130,9.9375,21.7501
11:32:30.139,8.9375,20.5001
11:32:30.150,8,20.4376
11:32:30.160,7.375,19.3126
11:32:30.171,8.4375,19.7501
11:32:30.179,8.75,19.1251
11:32:30.189,9.125,20.3751
11:32:30.201,9.5625,19.6251
11:32:30.209,8.1875,18.6251
11:32:30.219,6.75,17.7501
11:32:30.230,6.25,15.5626
11:32:30.238,4.0625,13
11:32:30.248,3.0625,12.4375
11:32:30.260,4.25,11.5
11:32:30.271,4.75,11.5625
11:32:30.278,5.75,11.6875
11:32:30.289,7.625,13.6876
11:32:30.299,8.5625,13
11:32:30.309,7.5625,11.9375
11:32:30.320,5.0625,10.75
11:32:30.329,2.625,6.875
11:32:30.340,-0.625,3.25
11:32:30.350,-3.25,0.125
11:32:30.359,-4.9375,-1.375
11:32:30.370,-6.375,-3.5625
11:32:30.383,-6.9375,-4.9375
11:32:30.390,-6.8125,-4.5625
11:32:30.399,-4.875,-4.3125
11:32:30.410,-4.0625,-4.5
11:32:30.419,-3.125,-3.625
11:32:30.431,-0.75,-2.1875
11:32:30.440,-0.625,-2.375
11:32:30.450,-0.625,-3.875
11:32:30.461,-1.625,-4.875
11:32:30.470,-2.875,-6
11:32:30.480,-3.8125,-6.25
11:32:30.489,-3.625,-7.8125
11:32:30.500,-4.5,-9.3125
11:32:30.509,-5.25,-10.25
11:32:30.520,-5.75,-11.375
11:32:30.531,-7.5625,-13.5001
11:32:30.559,-9.4375,-15.0626
11:32:30.560,-11.5625,-17.6251
11:32:30.588,-12.3125,-18.6251
11:32:30.590,-12.25,-19.6876
11:32:30.616,-10.9375,-19.6876
11:32:30.618,-9,-18.1251
11:32:30.647,-7.3125,-17.4376
11:32:30.647,-6.1875,-15.8751
11:32:30.649,-5.875,-17.0001
11:32:30.650,-6.125,-17.2501
11:32:30.659,-7.3125,-18.6876
11:32:30.662,-8.5,-21.8126
11:32:30.694,-11.3125,-22.3126
11:32:30.696,-12.25,-24.8126
11:32:30.698,-13.7501,-25.9376
11:32:30.701,-13.3126,-26.7501
11:32:30.709,-12.8125,-26.5626
11:32:30.720,-12.375,-27.3126
11:32:30.731,-12.125,-26.0626
11:32:30.740,-12.375,-28.1251
11:32:30.749,-13.3126,-28.6876
11:32:30.760,-13.3126,-28.8126
11:32:30.769,-13.8126,-29.9376
11:32:30.781,-14.1251,-30.3751
11:32:30.788,-9.5,-21.8751
11:32:30.800,-4.3125,-14.8126
11:32:30.809,0.6875,-7.0625
11:32:30.820,4.0625,1.125
11:32:30.830,8.5625,7.3125
11:32:30.840,11.0625,13.6251
11:32:30.849,13.5626,17.6876
11:32:30.859,15.1251,22.2501
11:32:30.868,16.9376,24.9376
11:32:30.880,17.5626,27.7501
11:32:30.890,20.0001,30.8751
11:32:30.900,20.6251,33.1251
11:32:30.910,21.9376,34.2501
11:32:30.920,21.6876,35.1876
11:32:30.930,21.9376,35.6876
11:32:30.942,20.9376,36.1251
11:32:30.950,21.0626,36.2501
11:32:30.959,20.7501,37.0001
11:32:30.970,22.2501,38.8751
11:32:30.979,23.0626,40.3127
11:32:30.990,25.2501,44.0627
11:32:31.001,27.2501,45.8127
11:32:31.011,27.7501,47.3127
11:32:31.022,27.9376,48.3127
11:32:31.030,27.6876,47.8127
11:32:31.040,25.0001,45.1877
11:32:31.050,22.6876,43.5627
11:32:31.071,21.4376,41.5627
11:32:31.074,20.5001,40.0002
11:32:31.103,21.0001,40.3752
11:32:31.117,21.0626,39.9377
11:32:31.120,20.8126,39.7502
11:32:31.139,21.6251,40.3127
11:32:31.139,20.8751,39.1251
11:32:31.139,20.5001,40.4377
11:32:31.141,20.0001,38.3126
11:32:31.151,19.3751,37.6251
11:32:31.159,19.8751,38.9376
11:32:31.170,20.8751,38.8751
11:32:31.180,20.8751,38.5626
11:32:31.190,21.1251,39.6252
11:32:31.201,21.1251,38.7501
11:32:31.210,20.9376,38.1251
11:32:31.220,19.1876,37.0001
11:32:31.230,17.8751,35.3751
11:32:31.239,16.5001,33.0001
11:32:31.254,14.5626,30.5001
11:32:31.259,12.875,29.5626
11:32:31.297,12.125,28.2501
11:32:31.297,11.9375,26.8126
11:32:31.301,10.9375,24.8126
11:32:31.303,9.875,23.2501
11:32:31.330,8.1875,22.7501
11:32:31.333,7.5625,20.2501
11:32:31.335,7.0625,18.6251
11:32:31.364,5.5,17.8126
11:32:31.365,5.6875,15.6876
11:32:31.367,4.125,14.7501
11:32:31.374,4.375,14.4376
11:32:31.384,3.875,12.4375
11:32:31.391,3,13.1876
11:32:31.422,1.75,10.5
11:32:31.424,0.8125,8.0625
11:32:31.426,-0.5,7.0625
11:32:31.433,-1.5625,5.125
11:32:31.441,-2.375,3.8125
11:32:31.450,-2.75,4.375
11:32:31.462,-2.3125,2.9375
11:32:31.470,-2.625,1.75
11:32:31.480,-2,1.9375
11:32:31.491,-2.9375,0.6875
11:32:31.500,-3.9375,-0.3125
11:32:31.510,-5.125,-1.0625
11:32:31.521,-4.75,-2.6875
11:32:31.530,-5.8125,-5.25
11:32:31.541,-6.4375,-5.1875
11:32:31.550,-5.4375,-6.1875
11:32:31.560,-4.8125,-6.0625
11:32:31.570,-4.625,-5.4375
11:32:31.581,-3.9375,-5.375
11:32:31.591,-4,-7.4375
11:32:31.599,-5.4375,-7.9375
11:32:31.610,-6.5625,-10.6875
11:32:31.620,-7.9375,-10.875
11:32:31.630,-8.5625,-12.6875
11:32:31.639,-9.4375,-14.0001
11:32:31.649,-10.125,-15.0001
11:32:31.660,-10.5625,-16.1251
11:32:31.671,-10.875,-16.1251
11:32:31.680,-10.125,-18.0626
11:32:31.689,-9.6875,-17.5001
11:32:31.700,-10.4375,-18.3751
11:32:31.710,-10.25,-19.1876
11:32:31.721,-10.75,-20.2501
11:32:31.730,-11.75,-21.8751
11:32:31.740,-12.3125,-22.3126
11:32:31.750,-13.3126,-23.3126
11:32:31.761,-13.6251,-24.8126
11:32:31.770,-13.5001,-24.8751
11:32:31.780,-13.5626,-25.0626
11:32:31.791,-14.3126,-26.3751
11:32:31.800,-15.0001,-27.4376
11:32:31.810,-16.0626,-28.5626
11:32:31.820,-16.1251,-30.4376
11:32:31.830,-17.1251,-29.6876
11:32:31.840,-15.8126,-28.5001
11:32:31.849,-12.25,-23.6876
11:32:31.860,-7.4375,-16.4376
11:32:31.870,-2,-8.8125
11:32:31.882,4.3125,0.1875
11:32:31.899,9.5625,7.6875
11:32:31.903,12.875,15.4376
11:32:31.912,16.0626,21.4376
11:32:31.933,17.0626,26.0001
11:32:31.935,18.6251,29.2501
11:32:31.946,19.7501,32.6251
11:32:31.950,21.2501,35.1876
11:32:31.960,22.5001,37.6251
11:32:31.970,23.7501,39.3127
11:32:31.980,24.0001,41.0002
11:32:31.990,24.1876,41.2502
11:32:32.007,23.4376,42.4377
11:32:32.011,22.8751,41.8752
11:32:32.042,22.1251,42.7502
11:32:32.044,21.5626,43.1877
11:32:32.046,21.5626,44.0002
11:32:32.051,21.5001,44.4377
11:32:32.080,22.6876,46.0627
11:32:32.081,23.8126,48.7502
11:32:32.085,26.3751,50.8752
11:32:32.091,28.0626,53.0002
11:32:32.123,28.8126,53.0627
11:32:32.125,28.2501,52.0627
11:32:32.127,26.7501,51.6877
11:32:32.130,25.2501,48.8127
11:32:32.160,23.1251,47.4377
11:32:32.162,21.6251,45.8752
11:32:32.166,20.6876,44.3752
11:32:32.173,20.0626,44.3127
11:32:32.185,20.3126,44.4377
11:32:32.190,21.3126,44.6252
11:32:32.200,22.3126,46.4377
11:32:32.210,24.6251,47.6877
11:32:32.219,23.8126,47.1877
11:32:32.231,23.1251,48.2502
11:32:32.240,22.5001,47.1252
11:32:32.250,20.7501,44.8127
11:32:32.261,18.8126,43.1252
11:32:32.270,17.6251,41.6252
11:32:32.280,17.5001,41.2502
11:32:32.290,17.5626,40.4377
11:32:32.300,18.0626,40.0002
11:32:32.310,19.5001,41.3127
11:32:32.320,19.6251,40.5002
11:32:32.331,19.3126,40.1877
11:32:32.341,19.0001,38.3751
11:32:32.350,17.8751,36.8751
11:32:32.379,16.4376,35.2501
11:32:32.382,14.6251,33.5001
11:32:32.384,13.0625,30.8751
11:32:32.401,13.1876,30.8751
11:32:32.403,13,29.1876
11:32:32.413,12.625,29.1251
11:32:32.420,13,28.0001
11:32:32.435,12,26.5001
11:32:32.444,10.875,25.4376
11:32:32.450,10.75,23.9376
11:32:32.460,9,22.2501
11:32:32.470,6.8125,20.6876
11:32:32.480,6.8125,19.2501
11:32:32.489,5.5625,16.7501
11:32:32.501,6.0625,17.1876
11:32:32.510,6.375,16.2501
11:32:32.520,5.6875,15.2501
11:32:32.530,5.5,15.3126
11:32:32.539,5.3125,13.9376
11:32:32.550,4.5625,11.5
11:32:32.560,2.875,10.5625
11:32:32.570,1.3125,9.0625
11:32:32.580,-0.5,6.375
11:32:32.590,-3.125,2.8125
11:32:32.600,-5.375,1.0625
11:32:32.610,-6.1875,-0.375
11:32:32.619,-5.8125,-1.625
11:32:32.637,-5.75,-0.125
11:32:32.642,-3.875,-0.875
11:32:32.650,-3.9375,-2.125
11:32:32.663,-4.5625,-1.4375
11:32:32.671,-4.75,-3.625
11:32:32.680,-6.8125,-5.9375
11:32:32.690,-8.3125,-8.625
11:32:32.700,-10.4375,-9.375
11:32:32.710,-11.1875,-11.875
11:32:32.720,-12.5625,-14.0001
11:32:32.730,-12.4375,-13.3126
11:32:32.757,-11.6875,-14.1251
11:32:32.759,-11.25,-14.9376
11:32:32.761,-10.125,-13.4376
11:32:32.800,-10,-15.0001
11:32:32.802,-10.75,-15.5001
11:32:32.805,-11.25,-16.7501
11:32:32.809,-12.9375,-19.2501
11:32:32.814,-14.8751,-21.5626
11:32:32.821,-16.3126,-22.4376
11:32:32.856,-16.6251,-23.0626
11:32:32.857,-15.6251,-20.6251
11:32:32.861,-11.625,-17.0001
11:32:32.862,-6.5,-8.9375
11:32:32.891,-1.125,-0.8125
11:32:32.894,4.6875,6.3125
11:32:32.896,8,14.2501
11:32:32.903,11.4375,19.9376
11:32:32.914,13.8751,25.3751
11:32:32.922,14.7501,27.8126
11:32:32.930,13.8126,30.6251
11:32:32.940,13.6251,31.2501
11:32:32.950,12.625,32.8751
11:32:32.959,13.2501,33.3751
11:32:32.970,13.6251,36.0001
11:32:32.981,15.1876,36.6876
11:32:32.990,14.8126,37.8751
11:32:33.000,14.9376,37.3126
11:32:33.011,14.0626,38.7501
11:32:33.020,13.7501,37.8751
11:32:33.029,13.2501,38.1251
11:32:33.040,12.5,39.1252
11:32:33.050,12.75,38.8751
11:32:33.060,12.375,39.3126
11:32:33.071,12.875,41.0002
11:32:33.079,14.0626,41.1252
11:32:33.090,14.1876,41.1252
11:32:33.101,14.8126,41.1877
11:32:33.112,13.5001,40.6252
11:32:33.120,12.625,38.8126
11:32:33.130,11.8125,36.8126
11:32:33.141,9.8125,35.0001
11:32:33.151,8.625,34.5001
11:32:33.159,9.125,34.1876
11:32:33.170,9.75,33.8751
11:32:33.179,11.5625,35.7501
11:32:33.191,13.125,38.5001
11:32:33.200,14.7501,39.1877
11:32:33.218,15.7501,39.5627
11:32:33.220,16.0626,39.8127
11:32:33.236,15.1251,39.9377
11:32:33.250,14.0001,38.0626
11:32:33.253,12.3125,35.3751
11:32:33.264,10.625,34.4376
11:32:33.270,9.75,32.6876
11:32:33.280,9.8125,32.1876
11:32:33.290,9.875,32.2501
11:32:33.301,10.75,31.3126
11:32:33.310,10.875,30.8751
11:32:33.319,10.5625,30.0626
11:32:33.330,8.8125,28.8126
11:32:33.340,8.1875,26.8751
11:32:33.350,6.1875,23.3751
11:32:33.360,4.375,21.8126
11:32:33.370,3.0625,19.8126
11:32:33.386,1.0625,16.7501
11:32:33.392,0.0625,15.1876
11:32:33.400,-0.1875,14.1876
11:32:33.410,1.125,14.1251
11:32:33.420,1.125,15.3126
11:32:33.430,2.25,14.3751
11:32:33.440,1.3125,13
11:32:33.450,0.0625,11.5
11:32:33.460,-0.9375,10.5
11:32:33.472,-2.3125,7.5
11:32:33.502,-4.125,5.375
11:32:33.502,-5.3125,4.0625
11:32:33.505,-5.4375,3.25
11:32:33.535,-5.4375,2.3125
11:32:33.537,-5.5625,1.5
11:32:33.541,-5.625,1.3125
11:32:33.569,-5.625,-0.6875
11:32:33.570,-6.3125,-2.0625
11:32:33.573,-7.0625,-2.3125
11:32:33.580,-7.6875,-5.25
11:32:33.580,-9.4375,-5.6875
11:32:33.615,-10.25,-6.8125
11:32:33.617,-10.5625,-8.5
11:32:33.620,-11.25,-10.0625
11:32:33.622,-11.375,-11.125
11:32:33.630,-10.75,-10.125
11:32:33.658,-9.8125,-10.25
11:32:33.660,-9.5,-11.625
11:32:33.663,-9.875,-11.5
11:32:33.670,-10.25,-12.375
11:32:33.680,-11.8125,-14.3126
11:32:33.691,-14.0626,-16.5001
11:32:33.700,-15.1876,-18.5001
11:32:33.718,-15.7501,-21.2501
11:32:33.726,-15.6876,-20.5001
11:32:33.734,-15.3126,-20.9376
11:32:33.741,-14.9376,-21.3126
11:32:33.762,-14.5001,-21.8751
11:32:33.765,-13.9376,-21.3126
11:32:33.773,-14.4376,-22.8751
11:32:33.781,-14.8751,-23.1876
11:32:33.790,-16.5626,-25.5001
11:32:33.800,-17.9376,-26.3751
11:32:33.810,-18.3126,-28.0001
11:32:33.822,-17.0626,-27.2501
11:32:33.830,-13.8751,-23.8126
11:32:33.840,-10,-17.3126
11:32:33.874,-3.875,-9.4375
11:32:33.878,1.0625,-1.25
11:32:33.879,5.9375,7.3125
11:32:33.885,11.125,13.8751
11:32:33.897,13.9376,22.4376
11:32:33.905,16.2501,26.3751
11:32:33.915,17.5001,31.0626
11:32:33.925,18.3751,33.8751
11:32:33.937,18.0001,34.6251
11:32:33.946,19.2501,38.8126
11:32:33.956,20.3126,39.8127
11:32:33.965,21.2501,42.3127
11:32:33.975,22.1876,43.1877
11:32:33.986,22.8126,45.3127
11:32:33.995,23.5001,45.6252
11:32:34.005,22.6876,47.5002
11:32:34.015,21.6251,47.6252
11:32:34.025,21.3126,48.5002
11:32:34.035,21.2501,48.9377
11:32:34.045,21.6251,51.0002
11:32:34.055,23.0001,52.1252
11:32:34.065,23.5626,53.3752
11:32:34.076,24.2501,55.8127
11:32:34.086,24.9376,56.0627
11:32:34.095,24.4376,54.8127
11:32:34.105,23.1876,52.5627
11:32:34.115,21.4376,52.4377
11:32:34.125,19.8126,49.3752
11:32:34.140,17.6251,46.4377
11:32:34.145,15.9376,45.3752
11:32:34.162,16.6876,44.2502
11:32:34.167,16.4376,44.1877
11:32:34.199,17.2501,44.3752
11:32:34.200,18.8751,46.5627
11:32:34.202,19.0001,47.6877
11:32:34.205,20.5001,47.7502
11:32:34.236,21.1251,48.0627
11:32:34.239,20.1251,46.5627
11:32:34.241,18.9376,46.1877
11:32:34.269,17.6251,44.6252
11:32:34.270,16.3751,41.8752
11:32:34.273,14.5001,40.6877
11:32:34.279,14.1876,41.1252
11:32:34.288,14.6876,39.5627
11:32:34.319,15.1876,38.7501
11:32:34.321,15.5001,37.5626
11:32:34.323,15.5626,38.7501
11:32:34.326,15.5626,38.3751
11:32:34.338,14.8126,35.4376
11:32:34.347,13.5626,33.6251
11:32:34.355,11.5,30.5626
11:32:34.365,9.4375,28.0001
11:32:34.380,9,26.5001
11:32:34.391,7.75,24.6876
11:32:34.400,7.5625,23.3751
11:32:34.411,7.5625,23.3751
11:32:34.422,8.875,22.8751
11:32:34.430,8.5,22.0001
11:32:34.440,8.125,20.8751
11:32:34.450,7.3125,19.8751
11:32:34.459,6.375,17.8126
11:32:34.470,4,15.3126
11:32:34.480,1.8125,11.9375
11:32:34.490,-0.125,10.25
11:32:34.500,-1.8125,8.5
11:32:34.515,-2,6.0625
11:32:34.521,-1.75,6.375
11:32:34.534,-1.0625,6.25
11:32:34.551,0.375,5.8125
11:32:34.553,-0.1875,3.75
11:32:34.567,-0.5625,2.875
11:32:34.570,-1.75,2.25
11:32:34.585,-2.25,0.125
11:32:34.591,-4.875,-2.5
11:32:34.600,-6.6875,-4.125
11:32:34.609,-8.3125,-5.875
11:32:34.620,-7.6875,-7.375
11:32:34.630,-6.5,-7.3125
11:32:34.639,-5.0625,-6.9375
11:32:34.650,-4.0625,-6.3125
11:32:34.660,-3.0625,-5.4375
11:32:34.670,-1.9375,-5.9375
11:32:34.680,-3.25,-7.9375
11:32:34.691,-3.625,-8.5
11:32:34.700,-5.25,-9.625
11:32:34.711,-5.6875,-11.625
11:32:34.720,-6.5625,-13.6876
11:32:34.730,-7.125,-15.8751
11:32:34.741,-7.0625,-16.0001
11:32:34.750,-6.75,-16.0001
11:32:34.760,-6.0625,-16.4376
11:32:34.770,-6.3125,-17.1876
11:32:34.779,-7.4375,-17.1251
11:32:34.790,-8.6875,-19.7501
11:32:34.800,-10.125,-21.2501
11:32:34.810,-11.5625,-22.8126
11:32:34.821,-13.5001,-26.0626
11:32:34.830,-15.6876,-27.7501
11:32:34.840,-17.0626,-30.7501
11:32:34.849,-17.7501,-30.8751
11:32:34.860,-17.8751,-32.4376
11:32:34.870,-18.6251,-33.1876
11:32:34.880,-18.3751,-33.3126
11:32:34.890,-18.8126,-33.7501
11:32:34.900,-18.1876,-34.3126
11:32:34.911,-17.1876,-32.7501
11:32:34.937,-15.7501,-30.0626
11:32:34.940,-12.6875,-24.4376
11:32:34.943,-8.8125,-17.6251
11:32:34.975,-5.8125,-11.25
11:32:34.977,-2.4375,-3.25
11:32:34.978,2.625,3.4375
11:32:34.986,6.1875,11.6875
11:32:34.997,10.9375,18.0001
11:32:35.002,13.3126,23.8751
11:32:35.032,15.9376,27.0626
11:32:35.034,15.6876,30.6876
11:32:35.062,15.8751,31.5626
11:32:35.092,14.5626,31.4376
11:32:35.113,13.1876,31.3751
11:32:35.113,12.4375,31.0001
11:32:35.115,12.25,32.3126
11:32:35.123,12.9375,32.6876
11:32:35.126,14.3126,35.6251
11:32:35.129,16.5626,39.3127
11:32:35.129,18.8126,41.3127
11:32:35.136,20.3751,44.0002
11:32:35.145,20.3126,44.3752
11:32:35.156,19.7501,45.4377
11:32:35.166,18.2501,46.0002
11:32:35.174,17.7501,44.0002
11:32:35.186,14.6876,42.0627
11:32:35.195,14.0001,41.3127
11:32:35.205,13.3751,40.5002
11:32:35.215,12.8125,39.7502
11:32:35.226,13.7501,39.4377
11:32:35.235,13.5626,38.5001
11:32:35.246,13.3126,38.2501
11:32:35.255,13.3751,37.1251
11:32:35.269,11.375,35.6876
11:32:35.275,9.75,34.1251
11:32:35.285,7.5,32.3126
11:32:35.295,7,30.8751
11:32:35.304,7.8125,32.0626
11:32:35.315,9.125,34.5001
11:32:35.326,10.375,34.1251
11:32:35.338,10.9375,33.8126
11:32:35.345,10.1875,33.6876
11:32:35.355,9.5625,31.5001
11:32:35.364,7.1875,29.9376
11:32:35.375,5.8125,26.6251
11:32:35.385,3.375,25.0001
11:32:35.394,3.125,22.6251
11:32:35.405,2.75,22.3126
11:32:35.414,3.1875,21.0001
11:32:35.427,2.875,20.6876
11:32:35.435,3.25,19.2501
11:32:35.445,2.75,18.5626
11:32:35.457,2.5,18.1251
11:32:35.465,1.5,15.5001
11:32:35.475,0.8125,13.8751
11:32:35.485,-0.875,12.1875
11:32:35.496,-2.3125,9.75
11:32:35.505,-3.625,7.875
11:32:35.518,-4.4375,6.6875
11:32:35.526,-4.1875,6.3125
11:32:35.535,-3.3125,4.9375
11:32:35.545,-3.125,5.75
11:32:35.557,-3,4.5625
11:32:35.566,-3.1875,3.5625
11:32:35.575,-4,1.375
11:32:35.585,-7.125,-0.375
11:32:35.595,-8.6875,-3.5
11:32:35.606,-10.1875,-4.75
11:32:35.620,-10.875,-7.125
11:32:35.648,-11.1875,-7.1875
11:32:35.651,-8.3125,-7.1875
11:32:35.653,-8.875,-5.9375
11:32:35.656,-7.1875,-6.9375
11:32:35.686,-7.1875,-6.4375
11:32:35.689,-7,-8.6875
11:32:35.691,-8.3125,-9.5
11:32:35.697,-9.25,-12.125
11:32:35.726,-11.6875,-12.875
11:32:35.727,-13.1876,-16.7501
11:32:35.731,-15.8751,-18.0626
11:32:35.736,-15.6876,-20.5001
11:32:35.752,-16.8126,-20.3126
11:32:35.756,-16.1251,-21.7501
11:32:35.781,-13.8126,-21.5001
11:32:35.784,-13.5001,-20.6251
11:32:35.786,-13.4376,-21.5001
11:32:35.800,-13.4376,-21.7501
11:32:35.805,-14.5626,-23.8751
11:32:35.814,-15.9376,-25.1251
11:32:35.825,-17.1876,-27.2501
11:32:35.835,-17.7501,-27.8751
11:32:35.852,-17.9376,-29.1876
11:32:35.855,-18.3126,-30.4376
11:32:35.870,-17.9376,-30.0001
11:32:35.884,-18.2501,-31.4376
11:32:35.887,-17.8126,-30.9376
11:32:35.897,-18.0001,-33.0626
11:32:35.906,-18.9376,-33.2501
11:32:35.915,-20.3751,-35.6876
11:32:35.925,-21.1876,-37.0001
11:32:35.935,-22.8751,-38.2501
11:32:35.945,-24.5001,-39.7502
11:32:35.956,-25.1876,-41.4377
11:32:35.966,-24.4376,-41.5002
11:32:35.975,-24.1251,-41.7502
11:32:35.985,-23.4376,-41.0002
11:32:35.995,-23.0626,-42.1877
11:32:36.005,-22.6251,-41.1877
11:32:36.015,-23.1876,-43.4377
11:32:36.025,-24.5001,-43.7502
11:32:36.035,-24.5001,-44.3752
11:32:36.045,-23.6876,-43.8752
11:32:36.056,-22.0001,-40.2502
11:32:36.065,-18.3126,-33.3126
11:32:36.075,-14.8126,-27.8126
11:32:36.085,-9.875,-19.5001
11:32:36.094,-4.125,-11.5625
11:32:36.105,1.4375,-2.125
11:32:36.116,5.6875,4.6875
11:32:36.125,9.6875,12.25
11:32:36.134,12.75,16.7501
11:32:36.146,13.8751,20.2501
11:32:36.155,14.7501,22.3751
11:32:36.165,13.8126,23.3126
11:32:36.175,12.6875,22.5626
11:32:36.185,11.625,22.9376
11:32:36.219,11.5,23.2501
11:32:36.220,12,24.4376
11:32:36.225,12.4375,25.2501
11:32:36.226,13.8751,28.0626
11:32:36.236,15.0001,29.9376
11:32:36.244,15.7501,31.1876
11:32:36.254,15.1251,31.1251
11:32:36.265,15.5626,33.5001
11:32:36.275,14.6876,33.1251
11:32:36.284,14.3126,34.1876
11:32:36.296,14.5001,33.2501
11:32:36.304,12.25,31.6251
11:32:36.315,11.8125,30.8126
11:32:36.326,11.8125,30.6876
11:32:36.336,12.75,29.8126
11:32:36.345,12.6875,29.8126
11:32:36.355,12.5,30.4376
11:32:36.384,12.5,29.0626
11:32:36.488,11.0625,27.7501
11:32:36.488,10.0625,27.9376
11:32:36.493,9.5625,25.9376
11:32:36.497,7.125,24.6251
11:32:36.499,6.1875,24.6876
11:32:36.499,6.375,24.5001
11:32:36.499,7.375,23.7501
11:32:36.509,7.875,25.3751
11:32:36.534,8.625,25.6251
11:32:36.536,8.4375,24.2501
11:32:36.539,7.875,24.6876
11:32:36.546,7.6875,23.5001
11:32:36.555,6.1875,21.6251
11:32:36.565,4.8125,20.8751
11:32:36.574,3.875,18.1876
11:32:36.584,2.5,16.3126
11:32:36.596,2.0625,15.0001
11:32:36.604,1.0625,14.0626
11:32:36.615,0.8125,13.6251
11:32:36.625,0.5625,12.3125
11:32:36.634,0.125,11.875
11:32:36.646,-0.0625,12
11:32:36.655,-1.25,8.5625
11:32:36.665,-9.25,-2.8125
11:32:36.674,-8.75,-2.0625
11:32:36.686,-8,-2.875
11:32:36.695,-7.3125,-4.1875
11:32:36.705,-7.5625,-4.75
11:32:36.715,-8.25,-6.25
11:32:36.725,-9.4375,-6.25
11:32:36.734,-9.4375,-8.1875
11:32:36.745,-11.125,-10.75
11:32:36.756,-12.6875,-12.625
11:32:36.765,-13.8126,-13.0625
11:32:36.776,-14.2501,-14.9376
11:32:36.785,-14.3126,-15.9376
11:32:36.794,-14.5626,-17.1876
11:32:36.806,-14.5001,-16.8126
11:32:36.815,-13.7501,-18.0626
11:32:36.825,-15.3126,-18.8126
11:32:36.835,-15.3751,-20.5001
11:32:36.845,-16.5001,-21.9376
11:32:36.855,-17.6251,-22.8126
11:32:36.866,-17.6876,-24.3751
11:32:36.875,-17.3126,-24.8751
11:32:36.884,-17.9376,-25.9376
11:32:36.894,-17.8751,-25.5626
11:32:36.906,-17.2501,-26.5001
11:32:36.915,-17.1251,-26.6251
11:32:36.930,-16.9376,-26.8751
11:32:36.935,-17.6251,-28.1876
11:32:36.945,-18.2501,-29.4376
11:32:36.956,-19.1876,-30.8751
11:32:36.965,-20.3751,-32.0001
11:32:36.974,-20.7501,-33.8751
11:32:36.985,-20.9376,-34.4376
11:32:36.996,-20.8751,-34.8751
11:32:37.005,-19.9376,-34.1251
11:32:37.016,-19.5001,-34.7501
11:32:37.025,-19.2501,-34.1876
11:32:37.036,-18.8751,-34.1876
11:32:37.061,-19.9376,-36.3126
11:32:37.063,-21.3751,-37.8126
11:32:37.066,-23.0626,-39.9377
11:32:37.095,-25.0626,-42.5627
11:32:37.098,-25.8751,-42.8127
11:32:37.100,-25.4376,-43.5627
11:32:37.108,-24.8126,-43.5002
11:32:37.130,-23.0001,-42.7502
11:32:37.132,-21.5001,-40.6252
11:32:37.137,-17.8751,-37.0626
11:32:37.161,-15.3126,-32.0001
11:32:37.164,-11.6875,-26.6876
11:32:37.228,-9.375,-21.0626
11:32:37.242,-6.875,-15.5626
11:32:37.247,-4.8125,-10.625
11:32:37.247,-2.5625,-3.4375
11:32:37.257,1.5625,2.25
11:32:37.260,4.3125,7.875
11:32:37.265,7.5,13.2501
11:32:37.265,9.5,17.8126
11:32:37.265,11.125,19.5001
11:32:37.271,11,22.8126
11:32:37.280,11.3125,22.7501
11:32:37.290,10.8125,23.8126
11:32:37.307,10.0625,23.9376
11:32:37.310,9.9375,24.0001
11:32:37.321,10.375,25.0626
11:32:37.331,10.875,27.1876
11:32:37.342,12.875,29.3126
11:32:37.349,14.5626,31.1876
11:32:37.361,15.2501,33.0626
11:32:37.369,16.0626,34.1251
11:32:37.380,15.3126,35.3126
11:32:37.391,13.5626,33.8126
11:32:37.399,11.8125,32.7501
11:32:37.411,10,31.0001
11:32:37.422,8.5,29.0626
11:32:37.430,7.625,29.3126
11:32:37.439,9.75,29.2501
11:32:37.451,10.1875,29.0001
11:32:37.461,12.375,31.6251
11:32:37.470,13.1876,31.2501
11:32:37.500,12.4375,31.0001
11:32:37.507,11.5625,31.5626
11:32:37.507,11,30.8751
11:32:37.511,9.5,28.5001
11:32:37.521,8.5625,27.8751
11:32:37.531,8.1875,27.1251
11:32:37.539,7.1875,25.9376
11:32:37.551,6.4375,26.8751
11:32:37.561,7.375,25.6876
11:32:37.570,7.5,26.1251
11:32:37.580,7.5,24.8751
11:32:37.592,7.375,24.3751
11:32:37.601,5.9375,21.9376
11:32:37.609,3.875,21.0001
11:32:37.621,3.1875,18.3126
11:32:37.630,1.375,15.6876
11:32:37.640,-0.125,14.6876
11:32:37.652,-0.9375,13.3751
11:32:37.661,-0.6875,12.1875
11:32:37.670,-1.3125,10
11:32:37.683,-1,10.8125
11:32:37.691,-0.375,9.375
11:32:37.699,-1.125,8.25
11:32:37.711,-2.3125,8
11:32:37.720,-3.3125,5.8125
11:32:37.731,-4.625,3.375
11:32:37.751,-7.1875,0.875
11:32:37.757,-9.1875,-1.375
11:32:37.766,-9.1875,-2.5
11:32:37.771,-8.4375,-3.3125
11:32:37.842,-7.375,-2.625
11:32:37.842,-5.0625,-1.5
11:32:37.846,-4.25,-1.875
11:32:37.847,-4.3125,-2.6875
11:32:37.850,-4.5625,-2.875
11:32:37.879,-7,-5.75
11:32:37.880,-10.3125,-8.5625
11:32:37.880,-11.875,-11.125
11:32:37.881,-15.0626,-13.8751
11:32:37.883,-16.1876,-15.5626
11:32:37.892,-16.3126,-17.7501
11:32:37.899,-17.1876,-17.1876
11:32:37.905,-16.0001,-18.2501
11:32:37.940,-15.7501,-18.8126
11:32:37.943,-15.5001,-18.5626
11:32:37.943,-14.6251,-19.8126
11:32:37.948,-15.3751,-19.0626
11:32:37.967,-16.5001,-21.6251
11:32:37.971,-17.8751,-22.8126
11:32:37.981,-17.9376,-24.1876
11:32:37.991,-18.0001,-25.1876
11:32:37.999,-17.7501,-24.0001
11:32:38.011,-16.8126,-24.7501
11:32:38.021,-16.6251,-25.5001
11:32:38.031,-16.0626,-25.1251
11:32:38.040,-15.9376,-26.4376
11:32:38.057,-16.9376,-27.8126
11:32:38.060,-19.2501,-29.3751
11:32:38.071,-20.9376,-32.3751
11:32:38.082,-22.7501,-34.5001
11:32:38.092,-23.6876,-36.5626
11:32:38.100,-25.0626,-36.7501
11:32:38.111,-23.7501,-38.3126
11:32:38.120,-24.0626,-38.7501
11:32:38.131,-23.3751,-38.0001
11:32:38.141,-23.0001,-39.0626
11:32:38.151,-23.5626,-38.7501
11:32:38.160,-24.8126,-40.6252
11:32:38.171,-25.4376,-42.2502
11:32:38.180,-26.4376,-42.9377
11:32:38.191,-27.3751,-44.0002
11:32:38.202,-27.5001,-45.6252
11:32:38.212,-26.4376,-45.1877
11:32:38.220,-25.8126,-44.0627
11:32:38.231,-24.0626,-42.3127
11:32:38.239,-21.5626,-40.1877
11:32:38.249,-18.5001,-35.0626
11:32:38.261,-14.7501,-29.8751
11:32:38.270,-11.0625,-23.3751
11:32:38.281,-8.5,-17.1251
11:32:38.291,-5.625,-10.5625
11:32:38.301,-2.9375,-4.9375
11:32:38.310,0.125,1.6875
11:32:38.321,2.75,7.875
11:32:38.331,6.25,13.6876
11:32:38.341,10.3125,19.6876
11:32:38.351,12.4375,24.0626
11:32:38.362,15.5001,27.9376
11:32:38.371,16.3751,30.9376
11:32:38.382,17.8751,32.4376
11:32:38.391,17.6251,34.8751
11:32:38.399,18.0001,35.3751
11:32:38.411,17.2501,36.7501
11:32:38.421,17.3751,36.7501
11:32:38.432,17.3751,38.0626
11:32:38.440,19.1876,40.8127
11:32:38.451,20.8751,42.5002
11:32:38.460,22.2501,46.3752
11:32:38.470,23.7501,47.4377
11:32:38.481,24.0626,48.6252
11:32:38.490,23.7501,50.2502
11:32:38.502,23.7501,49.5627
11:32:38.510,21.7501,47.6877
11:32:38.526,19.8126,46.1252
11:32:38.533,18.9376,45.4377
11:32:38.541,18.5626,43.4377
11:32:38.557,19.0626,44.1252
11:32:38.561,19.8126,44.1877
11:32:38.579,20.8126,44.7502
11:32:38.581,21.0001,44.8127
11:32:38.594,21.0001,44.3127
11:32:38.601,20.6876,44.3752
11:32:38.641,20.0001,43.4377
11:32:38.644,18.6251,42.5627
11:32:38.646,18.7501,41.7502
11:32:38.650,16.8751,41.5002
11:32:38.653,16.9376,40.1877
11:32:38.661,17.7501,40.7502
11:32:38.699,18.8126,41.5002
11:32:38.701,19.6876,41.3752
11:32:38.704,20.0626,41.7502
11:32:38.706,20.4376,41.1877
11:32:38.713,19.6876,39.6877
11:32:38.744,18.5001,38.1251
11:32:38.746,16.8126,35.5626
11:32:38.748,13.5626,32.2501
11:32:38.780,10.5625,30.0001
11:32:38.781,8.5625,25.6876
11:32:38.784,6.125,24.0626
11:32:38.791,5.375,22.2501
11:32:38.792,4.875,20.4376
11:32:38.807,6.1875,20.6876
11:32:38.812,7.0625,20.7501
11:32:38.821,7.25,19.9376
11:32:38.831,6.5625,19.0626
11:32:38.841,5.3125,17.4376
11:32:38.851,4.4375,16.3751
11:32:38.861,2.9375,13.125
11:32:38.871,0.1875,10.4375
11:32:38.881,-1.8125,8.1875
11:32:38.891,-2,6.4375
11:32:38.902,-1.5625,6
11:32:38.911,-1.5,5.6875
11:32:38.921,-0.6875,5.6875
11:32:38.931,-0.875,5.625
11:32:38.941,-0.75,4.6875
11:32:38.951,-1.9375,2.5625
11:32:38.961,-4,1
11:32:38.971,-5.1875,-1.5625
11:32:38.981,-6.875,-3.875
11:32:38.991,-7.875,-5.0625
11:32:39.002,-9.0625,-7
11:32:39.011,-9.5,-8.125
11:32:39.021,-10.5,-9.125
11:32:39.032,-9.75,-9.625
11:32:39.041,-8.875,-10.6875
11:32:39.051,-8.25,-10.25
11:32:39.061,-7.875,-10.625
11:32:39.071,-8.625,-11.25
11:32:39.086,-8.75,-12.75
11:32:39.103,-10.375,-14.7501
11:32:39.105,-11.9375,-15.3751
11:32:39.120,-12.9375,-18.0001
11:32:39.122,-14.0001,-19.6876
11:32:39.137,-14.9376,-20.6251
11:32:39.142,-15.3751,-22.3126
11:32:39.151,-16.2501,-22.8751
11:32:39.161,-16.8751,-24.6251
11:32:39.171,-17.5001,-25.0626
11:32:39.182,-18.5001,-28.2501
11:32:39.191,-19.0626,-27.4376
11:32:39.201,-18.5626,-28.0001
11:32:39.211,-18.6251,-29.1876
11:32:39.222,-17.8126,-28.6251
11:32:39.231,-18.0626,-29.7501
11:32:39.241,-18.6251,-30.8126
11:32:39.257,-19.0001,-31.7501
11:32:39.261,-20.5626,-34.3751
11:32:39.291,-21.5626,-34.9376
11:32:39.294,-23.1876,-37.2501
11:32:39.298,-24.3751,-38.6251
11:32:39.303,-24.3126,-39.1876
11:32:39.330,-23.1876,-39.2502
11:32:39.333,-23.2501,-39.1252
11:32:39.335,-22.8751,-39.5627
11:32:39.361,-23.7501,-40.8752
11:32:39.366,-25.1876,-41.5002
11:32:39.366,-27.0001,-42.9377
11:32:39.373,-27.6876,-45.5627
11:32:39.386,-28.9376,-46.3752
11:32:39.391,-30.4376,-48.0002
11:32:39.422,-29.6876,-48.1252
11:32:39.424,-28.3751,-45.8752
11:32:39.426,-24.0626,-42.1877
11:32:39.433,-19.6876,-36.8126
11:32:39.441,-15.1251,-29.4376
11:32:39.451,-10.1875,-21.5626
11:32:39.461,-5.4375,-13.9376
11:32:39.471,-0.75,-4.75
11:32:39.481,2.6875,1.875
11:32:39.491,6.4375,10.125
11:32:39.501,9.8125,15.0001
11:32:39.511,12.1875,21.3751
11:32:39.521,15.3126,25.2501
11:32:39.531,17.1876,29.0626
11:32:39.541,18.7501,32.6251
11:32:39.558,19.1876,35.4376
11:32:39.562,19.3126,36.0001
11:32:39.571,19.2501,37.5626
11:32:39.581,18.6251,37.3751
11:32:39.591,18.2501,38.6251
11:32:39.601,18.9376,40.3127
11:32:39.611,20.9376,43.5002
11:32:39.621,22.7501,45.8752
11:32:39.632,24.6251,48.8127
11:32:39.641,26.5001,51.6252
11:32:39.651,28.0001,55.1877
11:32:39.661,29.2501,55.7502
11:32:39.671,28.0626,55.8752
11:32:39.682,27.4376,54.8127
11:32:39.691,25.6251,55.0002
11:32:39.701,24.5626,52.4377
11:32:39.711,22.5626,50.1252
11:32:39.722,21.1876,49.5627
11:32:39.731,21.0626,48.5002
11:32:39.741,21.3126,48.1877
11:32:39.751,21.7501,48.7502
11:32:39.761,24.5001,50.5627
11:32:39.771,25.6251,51.3127
11:32:39.782,25.8751,51.6252
11:32:39.791,26.3751,53.2502
11:32:39.801,26.2501,52.1252
11:32:39.811,25.0626,51.4377
11:32:39.822,23.6876,50.3127
11:32:39.843,21.3126,47.3752
11:32:39.846,18.7501,45.4377
11:32:39.861,16.7501,42.6877
11:32:39.863,14.6876,39.9377
11:32:39.871,13.1876,39.2501
11:32:39.881,10.6875,36.0001
11:32:39.892,7,32.6876
11:32:39.901,3.4375,29.8126
11:32:39.911,-2.875,23.4376
11:32:39.922,-7.8125,17.1876
11:32:39.936,-10.0625,15.9376
11:32:39.941,-15.6251,10.6875
11:32:39.951,-28.0626,-0.1875
11:32:39.961,-40.1252,-11.875
11:32:39.971,-53.8752,-23.5626
11:32:39.981,-64.0002,-33.7501
11:32:39.991,-78.3128,-45.6877
11:32:40.002,-90.6254,-57.0627
11:32:40.011,-100.8129,-67.4378
11:32:40.021,-107.3754,-74.2503
11:32:40.031,-113.5629,-79.3128
11:32:40.057,-116.3129,-81.8753
11:32:40.060,-121.1255,-85.9378
11:32:40.062,-127.1255,-92.0004
11:32:40.095,-133.7505,-98.2504
11:32:40.095,-138.2505,-104.5004
11:32:40.098,-139.6255,-105.7504
11:32:40.103,-139.1255,-106.8754
11:32:40.111,-138.438,-106.5004
11:32:40.141,-137.188,-106.6879
11:32:40.143,-135.813,-105.1879
11:32:40.145,-134.6255,-104.3129
11:32:40.151,-134.188,-103.0004
11:32:40.180,-132.7505,-102.8129
11:32:40.184,-131.438,-102.4379
11:32:40.186,-130.438,-101.8129
11:32:40.193,-129.688,-99.8754
11:32:40.202,-128.0005,-99.5629
11:32:40.221,-128.2505,-100.0629
11:32:40.223,-128.2505,-99.6254
11:32:40.231,-129.063,-100.5004
11:32:40.242,-126.813,-98.3754
11:32:40.251,-124.5005,-97.2504
11:32:40.261,-122.938,-95.6879
11:32:40.271,-124.1255,-95.5004
11:32:40.282,-125.938,-99.0629
11:32:40.296,-125.438,-98.8754
11:32:40.311,-125.313,-99.0629
11:32:40.316,-124.7505,-100.0629
11:32:40.326,-121.7505,-98.7504
11:32:40.336,-121.6255,-97.8754
11:32:40.346,-120.1255,-98.6254
11:32:40.356,-120.938,-98.0629
11:32:40.367,-119.6255,-100.1254
11:32:40.376,-118.063,-99.1254
11:32:40.386,-116.6254,-97.9379
11:32:40.405,-116.8754,-99.6254
11:32:40.412,-116.2504,-100.0629
11:32:40.426,-115.8129,-101.3129
11:32:40.429,-115.0629,-102.1254
11:32:40.437,-115.0629,-101.6254
11:32:40.446,-114.1254,-103.0629
11:32:40.456,-114.1879,-104.7504
11:32:40.466,-115.3754,-106.6254
11:32:40.476,-114.3129,-107.3754
11:32:40.491,-114.1254,-107.7504
11:32:40.501,-113.0004,-108.1254
11:32:40.511,-111.3129,-107.8129
11:32:40.521,-109.6254,-106.8754
11:32:40.531,-106.0629,-103.1254
11:32:40.542,-102.1254,-96.6879
11:32:40.551,-96.1254,-90.9379
11:32:40.561,-89.8753,-82.3128
11:32:40.571,-84.2503,-72.8128
11:32:40.581,-77.3753,-64.0002
11:32:40.591,-72.4378,-55.5627
11:32:40.601,-67.1878,-48.4377
11:32:40.611,-63.0627,-41.6252
11:32:40.621,-60.3752,-37.3751
11:32:40.631,-57.2502,-32.5626
11:32:40.641,-56.5627,-28.5001
11:32:40.651,-52.6252,-24.3751
11:32:40.662,-51.0002,-22.3126
11:32:40.671,-48.0627,-19.7501
11:32:40.684,-46.5002,-15.7501
11:32:40.694,-44.4377,-14.8751
11:32:40.701,-43.4377,-11.625
11:32:40.711,-41.0002,-10.3125
11:32:40.722,-39.6252,-6.8125
11:32:40.731,-37.8126,-6.625
11:32:40.745,-37.3126,-4.6875
11:32:40.751,-35.7501,-3.6875
11:32:40.793,-34.5001,-2.0625
11:32:40.795,-34.3126,-2.125
11:32:40.797,-34.6876,-4.25
11:32:40.800,-34.7501,-4.5
11:32:40.807,-35.3126,-4.375
11:32:40.811,-34.3126,-6.8125
11:32:40.837,-34.7501,-7.375
11:32:40.839,-35.0626,-8
11:32:40.841,-35.0626,-8.5625
11:32:40.851,-35.0001,-8.3125
11:32:40.881,-34.5626,-9.875
11:32:40.884,-34.8751,-9.5625
11:32:40.885,-35.1876,-8.9375
11:32:40.891,-35.2501,-11.25
11:32:40.902,-36.0001,-10.5625
11:32:40.922,-36.1876,-13.2501
11:32:40.925,-37.2501,-13.5626
11:32:40.931,-38.0626,-15.5626
11:32:40.941,-38.8126,-15.4376
11:32:40.952,-38.7501,-17.9376
11:32:40.961,-40.1877,-18.2501
11:32:40.972,-41.3752,-21.5001
11:32:40.982,-41.5627,-22.8751
11:32:40.991,-43.5002,-23.8126
11:32:41.001,-44.7502,-26.6251
11:32:41.011,-46.3127,-27.6876
11:32:41.021,-47.2502,-30.5001
11:32:41.031,-48.1877,-31.5626
11:32:41.041,-49.6877,-33.8126
11:32:41.051,-50.0002,-35.0626
11:32:41.061,-50.6252,-35.6251
11:32:41.071,-50.3127,-36.3751
11:32:41.081,-49.6877,-37.0626
11:32:41.091,-50.3127,-38.0626
11:32:41.102,-50.6877,-38.8751
11:32:41.111,-50.9377,-39.9377
11:32:41.123,-50.3752,-41.1877
11:32:41.141,-50.5002,-41.9377
11:32:41.143,-51.4377,-41.9377
11:32:41.157,-51.9377,-43.7502
11:32:41.162,-52.3752,-44.6252
11:32:41.171,-52.3752,-45.1877
11:32:41.181,-52.8752,-46.8752
11:32:41.191,-53.8127,-47.5002
11:32:41.202,-53.1877,-49.6877
11:32:41.211,-53.3752,-49.6252
11:32:41.221,-53.5002,-49.1877
11:32:41.231,-53.4377,-50.7502
11:32:41.241,-53.5627,-51.6877
11:32:41.251,-54.5627,-53.0627
11:32:41.261,-53.2502,-53.6877
11:32:41.271,-54.1252,-53.9377
11:32:41.281,-55.0002,-56.3127
11:32:41.291,-55.4377,-57.3127
11:32:41.301,-56.6877,-58.8127
11:32:41.312,-56.3127,-59.1252
11:32:41.338,-57.0002,-61.2502
11:32:41.340,-57.6252,-61.0002
11:32:41.342,-56.7502,-62.7502
11:32:41.351,-57.0627,-63.5002
11:32:41.361,-56.5627,-63.7502
11:32:41.371,-57.8752,-65.3753
11:32:41.382,-58.6252,-66.3753
11:32:41.391,-58.8127,-67.7503
11:32:41.401,-58.8752,-68.2503
11:32:41.411,-59.0002,-70.0003
11:32:41.421,-60.0627,-71.2503
11:32:41.437,-61.1252,-74.0003
11:32:41.441,-61.5627,-74.5003
11:32:41.451,-61.5627,-76.0003
11:32:41.461,-61.1877,-76.5628
11:32:41.471,-61.1252,-77.1253
11:32:41.481,-61.1877,-77.6878
11:32:41.501,-61.6252,-78.8753
11:32:41.502,-63.0002,-81.2503
11:32:41.535,-62.5002,-82.1878
11:32:41.536,-63.0002,-83.0003
11:32:41.539,-62.8752,-83.8753
11:32:41.541,-63.5627,-84.2503
11:32:41.574,-62.1877,-84.6253
11:32:41.575,-60.8752,-81.9378
11:32:41.577,-57.1877,-78.3753
11:32:41.584,-53.1877,-72.7503
11:32:41.617,-48.0627,-65.5628
11:32:41.620,-43.3127,-56.8127
11:32:41.623,-36.8751,-48.3127
11:32:41.629,-32.0001,-38.5626
11:32:41.635,-27.1876,-29.0626
11:32:41.663,-22.4376,-21.9376
11:32:41.665,-18.3126,-14.0001
11:32:41.667,-15.6876,-7.8125
11:32:41.671,-13.1876,-1.4375
11:32:41.681,-10.4375,1.4375
11:32:41.691,-7.5625,6.375
11:32:41.708,-6.0625,9.4375
11:32:41.722,-5.375,11.5
11:32:41.726,-4.8125,15.3126
11:32:41.733,-2.75,16.5626
11:32:41.742,-1.6875,20.4376
11:32:41.751,-0.125,22.8751
11:32:41.761,2.0625,25.3126
11:32:41.771,2.75,28.3751
11:32:41.781,4.125,31.0001
11:32:41.792,4.9375,33.0001
11:32:41.801,6.0625,34.6876
11:32:41.812,6.375,36.6876
11:32:41.821,6.25,37.1251
11:32:41.831,5.5625,37.6251
11:32:41.841,4.8125,35.1251
11:32:41.851,3.5,34.6876
11:32:41.861,3.25,33.2501
11:32:41.871,2.5625,32.5001
11:32:41.882,3.375,32.0626
11:32:41.891,2.25,31.3751
11:32:41.901,2.6875,30.7501
11:32:41.911,2.4375,31.4376
11:32:41.923,3.3125,31.0626
11:32:41.931,2.9375,31.0626
11:32:41.941,3.75,31.5001
11:32:41.951,2.1875,31.3751
11:32:41.961,1.875,30.8751
11:32:41.977,2,29.3751
11:32:41.986,1,28.9376
11:32:41.996,0.375,27.7501
11:32:42.006,0.1875,25.4376
11:32:42.016,-0.125,25.0626
11:32:42.026,0,24.2501
11:32:42.036,-1.6875,22.6876
11:32:42.046,-2.125,21.6251
11:32:42.056,-3.9375,19.3126
11:32:42.066,-4.8125,17.6251
11:32:42.076,-6.8125,15.3751
11:32:42.086,-8.5625,13.8126
11:32:42.096,-9.8125,11.0625
11:32:42.106,-11.0625,9.875
11:32:42.116,-11.1875,7.5
11:32:42.126,-12.5625,5.625
11:32:42.136,-14.0626,3.125
11:32:42.146,-15.3751,0.375
11:32:42.156,-17.1251,0.0625
11:32:42.166,-18.4376,-3.375
11:32:42.176,-20.2501,-7
11:32:42.208,-22.2501,-7.875
11:32:42.210,-23.7501,-10.6875
11:32:42.214,-25.5626,-12.75
11:32:42.218,-25.8751,-14.3751
11:32:42.248,-26.8751,-15.4376
11:32:42.250,-28.0626,-16.8126
11:32:42.253,-28.4376,-18.8751
11:32:42.257,-30.0001,-18.8751
11:32:42.286,-30.0001,-21.5001
11:32:42.287,-31.0001,-23.4376
11:32:42.290,-31.6251,-23.9376
11:32:42.317,-32.0001,-25.6251
11:32:42.321,-33.6251,-26.1251
11:32:42.322,-33.3751,-28.7501
11:32:42.329,-34.5001,-30.1876
11:32:42.337,-35.6251,-31.1251
11:32:42.365,-35.9376,-33.5626
11:32:42.368,-37.8126,-34.1876
11:32:42.370,-38.7501,-37.2501
11:32:42.377,-38.6251,-39.5002
11:32:42.386,-39.5002,-39.4377
11:32:42.396,-40.2502,-42.2502
11:32:42.406,-41.0002,-43.0002
11:32:42.416,-41.5002,-44.9377
11:32:42.436,-41.8127,-45.4377
11:32:42.438,-42.5002,-47.6877
11:32:42.454,-43.2502,-48.5002
11:32:42.458,-43.7502,-50.0627
11:32:42.466,-44.0627,-51.3127
11:32:42.476,-43.6877,-52.5002
11:32:42.487,-47.1252,-55.2502
11:32:42.496,-47.9377,-57.6877
11:32:42.506,-48.1877,-59.4377
11:32:42.516,-47.8752,-59.6877
11:32:42.526,-46.8752,-59.1877
11:32:42.536,-45.6252,-59.1877
11:32:42.546,-44.8752,-59.5002
11:32:42.556,-44.3127,-59.5002
11:32:42.566,-44.3127,-59.9377
11:32:42.576,-44.0627,-60.3127
11:32:42.587,-44.3127,-61.1877
11:32:42.617,-44.3752,-61.2502
11:32:42.620,-44.0002,-62.5002
11:32:42.628,-43.8752,-63.5627
11:32:42.630,-42.4377,-61.5627
11:32:42.636,-41.0627,-59.8127
11:32:42.646,-37.6251,-55.6252
11:32:42.656,-33.7501,-48.5002
11:32:42.666,-29.1251,-42.5627
11:32:42.676,-23.7501,-32.9376
11:32:42.686,-18.5626,-23.8751
11:32:42.697,-12.5625,-15.0001
11:32:42.706,-8.1875,-4.375
11:32:42.716,-3.5625,2.25
11:32:42.726,-0.8125,9.4375
11:32:42.736,2.875,14.8126
11:32:42.746,5.9375,20.5626
11:32:42.756,7.0625,23.8126
11:32:42.767,8.0625,26.3751
11:32:42.776,8,28.5001
11:32:42.786,8.625,31.0001
11:32:42.797,11.0625,34.8126
11:32:42.806,12.375,36.5626
11:32:42.816,12.875,38.6876
11:32:42.826,13.0625,41.7502
11:32:42.836,14.2501,43.0002
11:32:42.846,15.3126,46.3752
11:32:42.856,16.1251,48.8127
11:32:42.866,17.8751,49.8752
11:32:42.876,18.1251,51.5627
11:32:42.886,18.3751,52.0002
11:32:42.896,18.3126,52.2502
11:32:42.906,17.5626,51.6252
11:32:42.917,16.3126,50.8127
11:32:42.926,16.1251,49.0002
11:32:42.941,15.0001,48.2502
11:32:42.948,15.1876,46.2502
11:32:42.956,13.5001,44.3752
11:32:42.966,13.1876,43.6252
11:32:43.003,12.6875,41.7502
11:32:43.005,12.0625,41.1877
11:32:43.037,11.375,41.6877
11:32:43.043,10.6875,40.0002
11:32:43.043,10.125,38.6876
11:32:43.043,9.5,37.2501
11:32:43.047,8.8125,37.4376
11:32:43.073,7.5625,35.1251
11:32:43.076,5.875,32.0626
11:32:43.079,5.125,30.5001
11:32:43.109,3.625,29.9376
11:32:43.111,2.9375,27.4376
11:32:43.113,1.4375,25.0626
11:32:43.117,1.4375,25.0001
11:32:43.148,1.125,22.8751
11:32:43.149,-0.625,20.5001
11:32:43.151,-3.0625,18.4376
11:32:43.158,-4.75,15.6251
11:32:43.166,-6.5625,13
11:32:43.176,-8.6875,10.375
11:32:43.186,-11.125,7.625
11:32:43.196,-13,4.5625
11:32:43.206,-14.3751,1.4375
11:32:43.217,-14.7501,1.625
11:32:43.226,-14.6876,-0.5
11:32:43.236,-15.7501,-2.3125
11:32:43.246,-17.5626,-3.375
11:32:43.256,-18.3751,-5.5625
11:32:43.266,-18.7501,-7.25
11:32:43.276,-20.4376,-9.375
11:32:43.286,-21.5626,-10.3125
11:32:43.297,-22.4376,-12.4375
11:32:43.307,-23.6876,-15.7501
11:32:43.316,-25.4376,-18.0626
11:32:43.326,-26.3126,-21.0626
11:32:43.336,-28.2501,-22.6876
11:32:43.347,-28.9376,-25.0001
11:32:43.356,-30.2501,-27.3751
11:32:43.367,-31.1251,-28.0001
11:32:43.376,-30.6876,-29.6251
11:32:43.386,-30.8126,-31.6251
11:32:43.396,-30.3751,-32.0001
11:32:43.406,-30.8751,-33.3751
11:32:43.416,-30.9376,-33.3126
11:32:43.426,-30.8126,-35.7501
11:32:43.437,-32.2501,-36.8751
11:32:43.446,-34.2501,-40.0002
11:32:43.456,-35.0001,-41.8127
11:32:43.466,-35.5001,-43.8752
11:32:43.476,-35.8751,-45.2502
11:32:43.486,-36.1876,-47.1252
11:32:43.496,-37.3126,-48.8127
11:32:43.506,-37.6251,-50.3127
11:32:43.516,-38.7501,-51.4377
11:32:43.526,-39.1251,-53.0002
11:32:43.536,-39.8752,-55.9377
11:32:43.547,-41.9377,-58.1252
11:32:43.556,-44.0627,-59.6252
11:32:43.566,-44.5002,-62.1877
11:32:43.577,-43.8127,-62.5627
11:32:43.586,-44.0627,-63.3127
11:32:43.596,-44.9377,-65.3127
11:32:43.606,-45.6252,-66.9378
11:32:43.616,-46.1252,-68.0003
11:32:43.628,-47.1252,-70.1253
11:32:43.637,-48.1877,-71.3128
11:32:43.647,-49.1877,-73.2503
11:32:43.656,-50.8127,-74.4378
11:32:43.686,-51.6252,-76.8128
11:32:43.688,-51.5627,-76.8753
11:32:43.690,-51.6252,-78.8753
11:32:43.734,-51.3752,-79.7503
11:32:43.735,-51.8127,-79.8128
11:32:43.765,-52.0627,-82.0003
11:32:43.767,-52.0627,-82.9378
11:32:43.795,-53.3752,-84.0628
11:32:43.795,-55.5002,-86.0003
11:32:43.795,-55.5002,-87.5628
11:32:43.796,-56.0002,-88.6253
11:32:43.801,-55.8752,-88.4378
11:32:43.834,-54.3127,-87.2503
11:32:43.835,-51.7502,-83.8128
11:32:43.837,-47.1877,-78.0003
11:32:43.842,-42.6877,-71.5003
11:32:43.843,-38.0626,-62.6877
11:32:43.847,-32.8751,-55.2502
11:32:43.861,-27.5626,-45.7502
11:32:43.867,-23.0001,-38.7501
11:32:43.900,-20.8126,-31.7501
11:32:43.903,-18.0001,-25.5626
11:32:43.906,-16.3126,-22.3751
11:32:43.907,-15.0626,-17.5001
11:32:43.917,-12.4375,-14.1876
11:32:43.927,-10.3125,-12
11:32:43.936,-6.75,-3.75
11:32:43.946,-4.5,-1.5
11:32:43.957,-3.0625,1
11:32:43.966,-1.5,3.9375
11:32:43.977,-0.6875,7.25
11:32:43.986,0.4375,8.0625
11:32:43.996,1.4375,10.75
11:32:44.006,2.0625,12.0625
11:32:44.016,3.6875,14.8751
11:32:44.027,4.6875,17.3126
11:32:44.036,5,17.7501
11:32:44.046,5.25,17.5001
11:32:44.056,3.3125,16.6251
11:32:44.066,2.375,15.1251
11:32:44.076,0.5625,13.3126
11:32:44.087,-1.75,10.25
11:32:44.097,-1.6875,9
11:32:44.106,-1.3125,8.9375
11:32:44.118,-2.5625,7.6875
11:32:44.126,-1.125,8.5
11:32:44.136,-1.625,8.25
11:32:44.146,-1.3125,8
11:32:44.156,-1.6875,8.125
11:32:44.166,-2.125,8
11:32:44.176,-2.5,7.3125
11:32:44.187,-3.5,6.0625
11:32:44.196,-4.75,4.9375
11:32:44.206,-6.0625,3.625
11:32:44.216,-6.9375,2.3125
11:32:44.226,-8,0.6875
11:32:44.236,-9.4375,-0.0625
11:32:44.246,-10.3125,-1.9375
11:32:44.256,-12.0625,-2.5625
11:32:44.267,-11.875,-4.375
11:32:44.277,-14.3126,-6.5
11:32:44.298,-14.9376,-7.25
11:32:44.306,-16.1251,-9.375
11:32:44.310,-16.8751,-10.375
11:32:44.322,-17.9376,-11.4375
11:32:44.327,-18.8751,-13.6251
11:32:44.336,-19.1251,-14.6251
11:32:44.347,-19.1876,-16.1876
11:32:44.356,-20.0626,-16.0626
11:32:44.367,-19.6876,-18.4376
11:32:44.386,-20.1251,-18.6251
11:32:44.389,-20.5001,-20.3751
11:32:44.396,-21.0001,-21.5001
11:32:44.426,-23.1251,-22.8126
11:32:44.429,-23.2501,-25.8126
11:32:44.431,-24.5001,-26.8751
11:32:44.438,-26.7501,-30.1876
11:32:44.466,-26.5626,-31.9376
11:32:44.468,-27.4376,-32.4376
11:32:44.470,-27.0001,-33.3751
11:32:44.506,-27.4376,-34.2501
11:32:44.509,-27.1876,-35.3126
11:32:44.511,-27.8751,-36.6876
11:32:44.518,-28.3126,-38.8751
11:32:44.518,-27.9376,-39.0001
11:32:44.530,-28.4376,-39.6252
11:32:44.556,-29.7501,-41.3752
11:32:44.559,-30.1876,-43.6877
11:32:44.561,-30.5001,-44.5002
11:32:44.567,-30.2501,-45.3127
11:32:44.577,-30.6876,-47.0002
11:32:44.587,-31.7501,-48.0002
11:32:44.597,-31.8126,-49.2502
11:32:44.609,-32.4376,-51.0627
11:32:44.620,-32.5626,-52.7502
11:32:44.627,-34.0001,-54.0002
11:32:44.637,-35.9376,-55.8752
11:32:44.647,-36.1876,-58.3752
11:32:44.657,-37.5626,-60.6252
11:32:44.667,-37.8751,-60.7502
11:32:44.677,-38.7501,-62.7502
11:32:44.687,-38.5626,-63.8127
11:32:44.696,-39.3127,-64.3127
11:32:44.707,-40.0627,-66.6878
11:32:44.717,-40.9377,-67.6878
11:32:44.727,-41.8752,-68.5003
11:32:44.738,-42.6252,-70.8753
11:32:44.746,-43.6877,-72.0628
11:32:44.758,-44.1877,-74.3128
11:32:44.767,-45.0627,-74.0628
11:32:44.777,-45.6252,-76.1878
11:32:44.787,-46.5002,-76.3128
11:32:44.797,-46.6252,-78.3128
11:32:44.806,-47.8752,-78.9378
11:32:44.817,-48.6877,-80.8753
11:32:44.827,-49.8127,-81.1878
11:32:44.838,-50.3752,-83.1878
11:32:44.847,-51.1877,-83.6253
11:32:44.856,-50.8127,-83.5628
11:32:44.867,-48.0002,-81.0003
11:32:44.876,-44.1877,-76.7503
11:32:44.888,-40.0002,-69.6878
11:32:44.897,-35.5626,-63.5002
11:32:44.908,-30.5626,-55.8752
11:32:44.917,-26.1251,-46.4377
11:32:44.927,-20.8751,-39.3752
11:32:44.936,-18.1876,-32.2501
11:32:44.947,-15.3126,-26.1876
11:32:44.959,-13.6876,-20.9376
11:32:44.966,-11.0625,-17.1251
11:32:44.977,-9.4375,-13.9376
11:32:44.986,-7.375,-9.6875
11:32:44.997,-6.125,-7.6875
11:32:45.007,-3.875,-4.25
11:32:45.029,-1.9375,-0.1875
11:32:45.033,-0.1875,2.0625
11:32:45.047,0.625,3.75
11:32:45.049,0.5,6.9375
11:32:45.057,1.75,8.4375
11:32:45.099,3.75,11.4375
11:32:45.101,3.375,13.5626
11:32:45.104,5.375,15.4376
11:32:45.107,6.6875,18.3751
11:32:45.109,7.1875,21.0626
11:32:45.118,8.3125,21.0001
11:32:45.127,9.0625,21.7501
11:32:45.155,7.375,21.3751
11:32:45.168,6.9375,19.8751
11:32:45.170,5.4375,18.8126
11:32:45.185,4.9375,16.6876
11:32:45.190,4,16.5626
11:32:45.190,3.8125,15.0626
11:32:45.197,4.0625,15.4376
11:32:45.232,4.375,15.4376
11:32:45.235,4.25,15.6251
11:32:45.237,4.8125,16.9376
11:32:45.240,5.0625,15.8126
11:32:45.247,4.75,17.2501
11:32:45.257,4.125,15.7501
11:32:45.267,4.3125,15.0626
11:32:45.277,3.3125,14.9376
11:32:45.287,2.4375,13.0625
11:32:45.297,0.8125,12.4375
11:32:45.307,-0.75,9.375
11:32:45.317,-1.3125,8.4375
11:32:45.327,-2.125,7.3125
11:32:45.338,-3.9375,6.5
11:32:45.348,-5.5625,3.0625
11:32:45.362,-6.5625,2.625
11:32:45.367,-7.9375,0.625
11:32:45.377,-8.875,-0.5625
11:32:45.388,-9.1875,-1.3125
11:32:45.397,-10.1875,-3.6875
11:32:45.408,-11.375,-4.25
11:32:45.416,-12.1875,-5.8125
11:32:45.427,-12.625,-6.4375
11:32:45.437,-13,-7.625
11:32:45.447,-13.6876,-10.0625
11:32:45.457,-14.2501,-10.1875
11:32:45.467,-15.6251,-13.2501
11:32:45.478,-16.2501,-14.0001
11:32:45.487,-16.8751,-16.2501
11:32:45.497,-17.8751,-17.0626
11:32:45.506,-18.5626,-19.1251
11:32:45.518,-19.0001,-19.6876
11:32:45.527,-19.5001,-21.3126
11:32:45.537,-19.3126,-22.8126
11:32:45.547,-20.3751,-22.3126
11:32:45.557,-20.7501,-25.4376
11:32:45.567,-21.6876,-25.8751
11:32:45.577,-21.9376,-28.0001
11:32:45.599,-22.6876,-29.3126
11:32:45.602,-24.0626,-31.1876
11:32:45.617,-25.0001,-32.7501
11:32:45.620,-25.1876,-34.0626
11:32:45.634,-25.5001,-35.5626
11:32:45.637,-25.9376,-36.8126
11:32:45.647,-26.9376,-39.2502
11:32:45.657,-27.5626,-39.7502
11:32:45.667,-27.9376,-41.5627
11:32:45.677,-28.8126,-42.9377
11:32:45.687,-29.5626,-45.1252
11:32:45.698,-29.9376,-46.1252
11:32:45.707,-30.8126,-48.8752
11:32:45.718,-31.5626,-48.8752
11:32:45.727,-31.3126,-50.6252
11:32:45.737,-31.8751,-51.0627
11:32:45.747,-32.3126,-53.3127
11:32:45.757,-33.2501,-54.0627
11:32:45.767,-33.4376,-55.6252
11:32:45.777,-34.1876,-57.3752
11:32:45.787,-34.9376,-58.8127
11:32:45.797,-35.6876,-60.6252
11:32:45.807,-36.5626,-62.3752
11:32:45.817,-36.8126,-63.4377
11:32:45.827,-37.7501,-64.3752
11:32:45.838,-37.8751,-65.4378
11:32:45.847,-38.6251,-65.8128
11:32:45.857,-39.7502,-67.1253
11:32:45.867,-39.8127,-69.0003
11:32:45.878,-40.8752,-69.3128
11:32:45.887,-41.5627,-71.0003
11:32:45.908,-42.3752,-72.2503
11:32:45.911,-42.5002,-73.1878
11:32:45.919,-43.6877,-73.8128
11:32:45.943,-43.6877,-75.6878
11:32:45.946,-43.9377,-74.8753
11:32:45.948,-42.6877,-74.6878
11:32:45.978,-41.5627,-73.3753
11:32:45.981,-41.0627,-73.6878
11:32:45.982,-41.0627,-72.3753
11:32:45.987,-40.8752,-74.1878
11:32:46.016,-41.6877,-74.6253
11:32:46.019,-43.1252,-73.6878
11:32:46.022,-43.4377,-76.3128
11:32:46.062,-43.8752,-76.5003
11:32:46.064,-42.6252,-76.9378
11:32:46.066,-40.9377,-75.3753
11:32:46.073,-38.1876,-71.6878
11:32:46.074,-33.0626,-66.3128
11:32:46.083,-26.9376,-58.1877
11:32:46.092,-20.1876,-50.0002
11:32:46.102,-13.5626,-39.7502
11:32:46.118,-7,-29.8126
11:32:46.122,-0.625,-20.3126
11:32:46.133,6.5625,-8.8125
11:32:46.143,13.5001,0.6875
11:32:46.152,20.7501,11.25
11:32:46.162,26.4376,23.1251
11:32:46.172,28.8751,27.6876
11:32:46.182,30.6876,31.8126
11:32:46.192,32.0001,35.4376
11:32:46.204,31.8751,37.1251
11:32:46.212,32.8126,41.0627
11:32:46.222,35.0001,43.4377
11:32:46.232,37.8126,48.7502
11:32:46.242,40.6877,53.5627
11:32:46.253,44.4377,59.6877
11:32:46.262,47.6252,63.9377
11:32:46.272,50.3752,68.9378
11:32:46.282,51.6252,72.0628
11:32:46.292,52.8127,75.3753
11:32:46.302,55.7502,78.6253
11:32:46.316,57.1877,81.6878
11:32:46.331,58.0627,84.1878
11:32:46.333,58.2502,85.0003
11:32:46.350,59.5627,86.4378
11:32:46.364,60.3127,86.5628
11:32:46.367,60.5002,86.9378
11:32:46.375,61.8127,87.6253
11:32:46.382,60.9377,86.5628
11:32:46.392,61.6252,86.1253
11:32:46.402,63.0002,87.8128
11:32:46.412,63.9377,88.8128
11:32:46.422,64.6252,89.6253
11:32:46.432,63.5002,89.6253
11:32:46.458,63.1252,88.5003
11:32:46.460,61.8127,87.4378
11:32:46.462,62.0002,87.2503
11:32:46.472,61.3127,86.8128
11:32:46.482,61.1252,85.5628
11:32:46.493,60.1877,84.0628
11:32:46.503,59.0627,82.9378
11:32:46.512,58.0627,81.6253
11:32:46.522,57.2502,80.3128
11:32:46.532,56.0002,79.2503
11:32:46.543,56.3752,78.5628
11:32:46.552,56.0627,78.8753
11:32:46.562,57.0627,77.3753
11:32:46.572,56.3127,77.8753
11:32:46.583,54.0002,72.8128
11:32:46.592,51.8752,71.5628
11:32:46.622,48.1877,67.3128
11:32:46.624,46.8752,63.7502
11:32:46.626,46.6252,63.1877
11:32:46.632,45.5002,61.1252
11:32:46.659,44.1252,58.5002
11:32:46.661,43.1252,56.8127
11:32:46.663,41.3127,55.8752
11:32:46.700,42.6877,55.3752
11:32:46.701,41.7502,54.3127
11:32:46.705,40.1252,52.2502
11:32:46.706,37.6876,49.5002
11:32:46.713,43.9377,54.7502
11:32:46.744,47.3127,57.0627
11:32:46.746,50.5627,59.5002
11:32:46.748,58.5627,67.7503
11:32:46.752,66.4378,73.9378
11:32:46.785,74.5003,80.4378
11:32:46.788,84.5628,89.0003
11:32:46.790,95.6879,99.1254
11:32:46.793,106.6879,109.0004
11:32:46.803,118.0005,117.3755
11:32:46.812,125.313,124.0005
11:32:46.823,126.5005,125.0005
11:32:46.832,125.0005,121.8755
11:32:46.842,122.438,119.2505
11:32:46.853,122.0005,117.438
11:32:46.868,121.438,116.6254
11:32:46.872,118.5005,113.7504
11:32:46.882,120.938,113.5004
11:32:46.903,126.8755,117.2504
11:32:46.911,134.1255,122.8755
11:32:46.923,141.813,127.8755
11:32:46.928,144.813,131.8755
11:32:46.934,145.0005,130.5005
11:32:46.942,146.1881,131.0005
11:32:46.952,146.8756,130.063
11:32:46.962,147.7506,129.938
11:32:46.973,148.2506,130.2505
11:32:46.983,151.6256,131.313
11:32:46.992,158.3131,135.6255
11:32:47.002,159.0631,136.8755
11:32:47.013,155.5631,132.7505
11:32:47.023,153.7506,130.5005
11:32:47.032,152.1256,127.813
11:32:47.043,151.4381,126.1255
11:32:47.052,151.1256,125.8755
11:32:47.062,148.6881,121.7505
11:32:47.072,146.8756,118.563
11:32:47.082,144.438,115.5004
11:32:47.093,143.7505,113.3129
11:32:47.102,141.6255,111.3754
11:32:47.112,141.1255,110.1254
11:32:47.122,137.8755,106.6254
11:32:47.132,133.813,101.8129
11:32:47.142,131.5005,99.5629
11:32:47.152,129.2505,97.5004
11:32:47.162,125.313,92.5629
11:32:47.172,120.563,87.0628
11:32:47.182,116.1879,83.7503
11:32:47.192,113.1254,78.6878
11:32:47.202,112.6879,77.9378
11:32:47.212,113.1254,77.5628
11:32:47.222,112.0629,75.6878
11:32:47.232,111.1879,74.7503
11:32:47.243,108.3129,71.7503
11:32:47.252,105.5004,68.0628
11:32:47.262,99.7504,63.8127
11:32:47.272,97.2504,60.1877
11:32:47.283,95.0629,59.3127
11:32:47.292,96.9379,62.3127
11:32:47.302,100.2504,68.3753
11:32:47.312,104.1879,75.1878
11:32:47.322,107.5629,81.0003
11:32:47.349,108.7504,87.2503
11:32:47.352,109.9379,91.2504
11:32:47.354,110.2504,94.1254
11:32:47.394,110.8754,97.5004
11:32:47.398,112.1254,101.0629
11:32:47.402,113.8129,105.4379
11:32:47.403,117.5629,109.1254
11:32:47.408,119.3755,113.3129
11:32:47.416,122.6255,117.4379
11:32:47.443,123.313,119.813
11:32:47.446,122.313,120.688
11:32:47.449,121.188,119.563
11:32:47.453,118.8755,119.0005
11:32:47.480,117.2505,118.0005
11:32:47.483,115.8129,118.6255
11:32:47.488,117.0629,119.0005
11:32:47.494,118.0005,121.938
11:32:47.509,117.8755,122.1255
11:32:47.512,117.5005,122.563
11:32:47.522,117.1254,123.188
11:32:47.532,116.6879,123.438
11:32:47.542,113.8129,121.5005
11:32:47.553,109.3129,118.188
11:32:47.562,105.0004,113.2504
11:32:47.572,100.9379,109.6254
11:32:47.582,100.8754,107.5004
11:32:47.592,100.2504,106.6879
11:32:47.603,99.8754,105.9379
11:32:47.616,98.8754,105.2504
11:32:47.622,97.3129,103.0629
11:32:47.633,95.0629,100.5004
11:32:47.642,91.9379,97.5629
11:32:47.657,89.3128,94.6254
11:32:47.668,85.3128,91.8754
11:32:47.674,82.8753,89.2503
11:32:47.688,80.2503,85.8753
11:32:47.705,77.3128,84.4378
11:32:47.707,77.8753,83.2503
11:32:47.712,78.1878,82.6878
11:32:47.739,77.1253,82.1878
11:32:47.742,75.5628,79.5628
11:32:47.743,72.8753,76.6878
11:32:47.752,68.6878,71.5628
11:32:47.762,64.8127,68.0003
11:32:47.772,61.5002,63.8127
11:32:47.782,59.3127,61.5627
11:32:47.792,58.9377,59.4377
11:32:47.802,57.0002,57.3127
11:32:47.812,56.1252,56.2502
11:32:47.822,53.9377,52.8752
11:32:47.832,50.4377,48.6252
11:32:47.842,47.8752,46.1252
11:32:47.853,44.6252,41.4377
11:32:47.863,41.7502,39.1876
11:32:47.872,40.1252,36.8126
11:32:47.882,38.6251,35.1876
11:32:47.892,39.3752,34.3751
11:32:47.902,41.2502,34.2501
11:32:47.912,42.5002,35.1251
11:32:47.922,42.6877,34.3751
11:32:47.932,40.4377,33.3126
11:32:47.942,39.0001,29.3751
11:32:47.952,34.5001,26.1251
11:32:47.963,30.5626,20.7501
11:32:47.972,27.6251,17.4376
11:32:47.982,26.4376,16.0626
11:32:47.993,26.8751,14.6251
11:32:48.002,27.8126,14.5626
11:32:48.035,29.1876,15.1251
11:32:48.036,29.0626,14.8126
11:32:48.038,27.3126,13.0625
11:32:48.066,24.8126,10.1875
11:32:48.067,20.3126,6.375
11:32:48.070,16.3126,1.25
11:32:48.098,15.3126,-0.9375
11:32:48.101,15.3751,-1.375
11:32:48.101,16.8751,-0.25
11:32:48.106,18.1251,0.125
11:32:48.112,17.3126,-1.5
11:32:48.150,16.7501,-2.625
11:32:48.159,14.7501,-4.9375
11:32:48.159,11.75,-8.625
11:32:48.159,8.875,-10.8125
11:32:48.166,7.9375,-12.3125
11:32:48.191,7.25,-14.0626
11:32:48.194,8.1875,-13.7501
11:32:48.196,9,-12.625
11:32:48.212,9.375,-13.0625
11:32:48.227,8.6875,-14.2501
11:32:48.230,8.1875,-15.1876
11:32:48.246,7.1875,-17.4376
11:32:48.247,6.0625,-18.2501
11:32:48.252,5,-20.6251
11:32:48.262,3.3125,-22.1876
11:32:48.272,2.4375,-23.5001
11:32:48.282,1,-24.5626
11:32:48.292,0.6875,-25.8126
11:32:48.302,0,-26.8751
11:32:48.312,-0.125,-26.6251
11:32:48.322,0,-27.4376
11:32:48.332,0.625,-26.5626
11:32:48.343,2.5625,-25.3126
11:32:48.352,4.5625,-21.9376
11:32:48.368,7.1875,-18.3751
11:32:48.373,8.3125,-13.3751
11:32:48.382,10.6875,-8.5625
11:32:48.392,12.9375,-4.0625
11:32:48.402,16.5001,3.125
11:32:48.412,20.5001,9.9375
11:32:48.422,26.5001,18.8751
11:32:48.432,30.8126,25.0001
11:32:48.442,34.1876,31.5626
11:32:48.452,35.8126,34.5626
11:32:48.462,35.1251,35.9376
11:32:48.472,34.1251,36.4376
11:32:48.482,31.2501,35.0626
11:32:48.492,29.1876,33.7501
11:32:48.502,27.5001,33.1876
11:32:48.512,28.4376,34.3126
11:32:48.522,28.0001,36.0001
11:32:48.532,28.8751,37.1876
11:32:48.542,29.1251,38.8126
11:32:48.552,30.8126,40.3752
11:32:48.562,31.4376,43.3752
11:32:48.572,33.2501,45.8127
11:32:48.582,35.5626,47.9377
11:32:48.592,36.1251,49.8752
11:32:48.603,36.6251,49.9377
11:32:48.612,35.3126,48.5002
11:32:48.622,32.5001,45.3127
11:32:48.632,29.0626,42.9377
11:32:48.642,26.5001,40.2502
11:32:48.652,26.0001,37.8751
11:32:48.662,24.5626,36.7501
11:32:48.672,25.5001,38.0626
11:32:48.682,26.3751,38.0001
11:32:48.693,27.4376,37.6251
11:32:48.702,26.7501,37.8751
11:32:48.712,26.1876,37.8126
11:32:48.722,25.9376,37.0001
11:32:48.733,23.8751,35.0626
11:32:48.744,24.5001,36.4376
11:32:48.752,26.3751,36.6251
11:32:48.782,28.5001,38.1251
11:32:48.784,29.8751,39.6252
11:32:48.786,30.9376,40.5627
11:32:48.793,31.8126,40.1877
11:32:48.828,30.5001,38.4376
11:32:48.828,27.8751,36.1251
11:32:48.831,25.3751,32.5626
11:32:48.837,21.5001,28.6251
11:32:48.842,18.0001,25.1876
11:32:48.872,16.3751,22.5001
11:32:48.876,15.4376,21.0001
11:32:48.878,16.6876,21.1251
11:32:48.884,16.8126,20.8751
11:32:48.908,17.3126,21.0001
11:32:48.911,16.5001,19.3751
11:32:48.915,15.3751,17.7501
11:32:48.930,13,14.6251
11:32:48.933,9.875,11.9375
11:32:48.942,7.4375,9.25
11:32:48.952,6.125,6.3125
11:32:48.962,5.8125,6.375
11:32:48.982,6.875,7.1875
11:32:48.985,9.4375,7.75
11:32:49.019,11.125,7.875
11:32:49.021,10.6875,7.1875
11:32:49.036,10.1875,6.875
11:32:49.053,8.375,4.0625
11:32:49.054,5.375,0.875
11:32:49.054,2.125,-2.3125
11:32:49.056,-0.1875,-5.1875
11:32:49.062,-2.3125,-7.625
11:32:49.072,-1.1875,-7.5
11:32:49.082,0.5625,-5.875
11:32:49.093,2.5,-4.25
11:32:49.103,4,-3.5625
11:32:49.118,4,-5.0625
11:32:49.123,2.0625,-7
11:32:49.134,-0.625,-9.125
11:32:49.142,-4.25,-12.0625
11:32:49.153,-7.1875,-16.5626
11:32:49.162,-8.9375,-19.7501
11:32:49.172,-10.625,-21.8126
11:32:49.182,-10.375,-22.0001
11:32:49.193,-8.5625,-21.1251
11:32:49.202,-7.0625,-19.8126
11:32:49.212,-4.625,-18.3751
11:32:49.223,-4.6875,-18.6876
11:32:49.233,-4.75,-19.3751
11:32:49.242,-6.9375,-21.4376
11:32:49.253,-8.9375,-23.2501
11:32:49.263,-10.5625,-26.0001
11:32:49.274,-12.375,-28.0626
11:32:49.283,-12.6875,-28.0626
11:32:49.292,-10.6875,-27.5001
11:32:49.302,-9.875,-27.1251
11:32:49.312,-8.625,-25.8126
11:32:49.322,-8.0625,-25.4376
11:32:49.333,-7.75,-26.9376
11:32:49.342,-9.625,-27.8751
11:32:49.353,-11.5625,-30.6876
11:32:49.362,-13.5001,-33.1876
11:32:49.373,-13.5626,-32.0001
11:32:49.382,-12.4375,-30.7501
11:32:49.392,-9.0625,-26.6251
11:32:49.403,-4.75,-20.0626
11:32:49.412,-0.0625,-12.5625
11:32:49.422,6,-4
11:32:49.433,10.5625,4.375
11:32:49.442,14.6251,12.75
11:32:49.453,17.1876,19.1251
11:32:49.463,20.6876,24.4376
11:32:49.472,21.3751,28.0626
11:32:49.500,24.0001,32.3126
11:32:49.508,26.4376,36.7501
11:32:49.536,29.1876,40.5002
11:32:49.614,30.2501,44.0627
11:32:49.614,30.6876,44.8752
11:32:49.614,29.3751,45.9377
11:32:49.614,29.0626,46.5002
11:32:49.615,28.3126,47.4377
11:32:49.622,28.2501,48.6877
11:32:49.622,28.3751,50.0627
11:32:49.622,28.7501,52.1252
11:32:49.630,29.9376,53.7502
11:32:49.656,31.0626,55.1252
11:32:49.659,31.5626,57.9377
11:32:49.662,32.9376,59.9377
11:32:49.669,32.8751,60.3127
11:32:49.683,32.1876,59.2502
11:32:49.687,30.6876,58.8752
11:32:49.697,28.9376,56.8752
11:32:49.707,27.9376,54.5627
11:32:49.719,26.0626,52.5627
11:32:49.727,25.1251,51.1877
11:32:49.737,25.0001,50.0627
11:32:49.747,25.7501,51.2502
11:32:49.757,26.5001,51.8127
11:32:49.767,27.2501,51.9377
11:32:49.778,26.3126,50.7502
11:32:49.787,20.7501,48.3127
11:32:49.797,19.9376,46.6252
11:32:49.807,19.1876,44.8127
11:32:49.817,18.1251,42.5627
11:32:49.827,16.1876,41.0002
11:32:49.837,15.3126,39.5002
11:32:49.847,15.1876,38.2501
11:32:49.857,15.8751,37.7501
11:32:49.868,15.6876,37.2501
11:32:49.879,15.0001,36.1251
11:32:49.887,15.0626,35.0001
11:32:49.897,14.4376,34.4376
11:32:49.907,12.5625,31.3126
11:32:49.918,11.125,28.4376
11:32:49.927,7.8125,25.8751
11:32:49.938,6,22.9376
11:32:49.948,5.4375,21.1251
11:32:49.957,5.125,20.1251
11:32:49.967,6.375,20.7501
11:32:49.977,6.875,20.3751
11:32:49.987,7.5625,20.6251
11:32:49.997,8,19.4376
11:32:50.007,5.9375,17.4376
11:32:50.018,4.0625,14.6251
11:32:50.028,2.875,13.1251
11:32:50.043,1.375,11.0625
11:32:50.057,1.75,10.8125
11:32:50.063,3.1875,10.875
11:32:50.072,4.875,10.75
11:32:50.083,5.75,11.4375
11:32:50.093,6.1875,12.125
11:32:50.102,5.0625,9.875
11:32:50.114,3.8125,7.9375
11:32:50.123,0.6875,4.375
11:32:50.134,-2.0625,1.625
11:32:50.143,-3.8125,-1.875
11:32:50.153,-5.875,-2.875
11:32:50.163,-5.6875,-4.6875
11:32:50.172,-4.875,-4.5
11:32:50.182,-4.625,-5.5625
11:32:50.215,-5.3125,-6.3125
11:32:50.218,-7.875,-9.3125
11:32:50.220,-8.875,-12
11:32:50.224,-11.875,-15.0001
11:32:50.253,-12.8125,-16.4376
11:32:50.255,-14.6876,-19.0001
11:32:50.257,-16.0001,-20.4376
11:32:50.264,-15.3126,-21.6251
11:32:50.299,-15.8751,-21.7501
11:32:50.300,-15.1251,-22.8751
11:32:50.304,-13.9376,-21.1251
11:32:50.328,-11.9375,-21.7501
11:32:50.328,-11.875,-20.6251
11:32:50.358,-11.75,-22.5001
11:32:50.381,-12,-23.5626
11:32:50.386,-14.0626,-24.3126
11:32:50.386,-15.5626,-28.0626
11:32:50.386,-17.3751,-29.3126
11:32:50.387,-19.2501,-32.0626
11:32:50.394,-21.1251,-34.0001
11:32:50.399,-21.6876,-35.3126
11:32:50.407,-22.7501,-35.8751
11:32:50.418,-22.0626,-37.3126
11:32:50.433,-22.1876,-37.6876
11:32:50.439,-22.9376,-39.0001
11:32:50.447,-23.0626,-39.7502
11:32:50.458,-22.0001,-37.5626
11:32:50.467,-19.7501,-35.0626
11:32:50.479,-17.3126,-30.1876
11:32:50.489,-13.3751,-23.7501
11:32:50.498,-7.8125,-16.6876
11:32:50.507,-2.5625,-8.3125
11:32:50.518,3.875,0.75
11:32:50.527,12.75,15.5001
11:32:50.537,16.5001,22.1251
11:32:50.548,19.5001,27.6876
11:32:50.558,20.6876,30.6251
11:32:50.567,21.1251,32.5001
11:32:50.580,20.4376,33.8126
11:32:50.587,20.5001,35.1251
11:32:50.597,19.5626,35.6876
11:32:50.608,21.1251,38.0001
11:32:50.618,23.6251,41.1877
11:32:50.627,26.1251,44.8127
11:32:50.638,28.7501,47.5002
11:32:50.649,30.2501,50.5627
11:32:50.658,32.1876,52.5002
11:32:50.667,32.3751,54.5627
11:32:50.679,31.7501,55.6252
11:32:50.688,32.1876,56.0627
11:32:50.699,30.7501,55.8752
11:32:50.709,29.8751,56.3752
11:32:50.719,31.2501,56.3127
11:32:50.730,32.4376,56.8127
11:32:50.738,34.0001,59.2502
11:32:50.747,35.2501,59.4377
11:32:50.759,36.3126,58.3127
11:32:50.768,35.6251,57.6877
11:32:50.777,34.0001,56.0002
11:32:50.788,31.6251,53.1877
11:32:50.799,28.6876,50.5627
11:32:50.808,26.4376,47.1877
11:32:50.817,23.2501,44.5002
11:32:50.827,23.1251,43.6877
11:32:50.837,24.6251,46.0627
11:32:50.849,27.8126,47.1877
11:32:50.858,29.2501,49.0002
11:32:50.877,31.0001,49.1252
11:32:50.883,30.1251,48.2502
11:32:50.892,28.9376,46.5002
11:32:50.898,27.1251,44.3752
11:32:50.915,24.5626,41.1877
11:32:50.921,20.7501,36.8751
11:32:50.930,17.6251,34.1251
11:32:50.938,16.4376,30.5626
11:32:50.947,15.2501,29.9376
11:32:50.957,15.6251,28.8126
11:32:50.969,16.7501,28.6251
11:32:50.998,18.5001,29.1876
11:32:51.000,18.5001,28.2501
11:32:51.002,18.0001,26.9376
11:32:51.008,16.3751,24.2501
11:32:51.039,14.1251,21.7501
11:32:51.041,11.3125,19.6876
11:32:51.043,9.75,16.1251
11:32:51.050,8.375,13.6876
11:32:51.087,9.3125,13.6876
11:32:51.089,9.5,14.0626
11:32:51.091,10.6875,13.1876
11:32:51.096,10.375,12.125
11:32:51.102,9.1875,10.4375
11:32:51.129,8.1875,7.6875
11:32:51.133,4.8125,4.8125
11:32:51.134,2.3125,0.4375
11:32:51.139,-0.125,-1.25
11:32:51.156,-0.9375,-3.5625
11:32:51.159,-2.5,-5.75
11:32:51.168,-2.5,-5.75
11:32:51.183,-1.6875,-6.0625
11:32:51.189,-2.1875,-8.625
11:32:51.199,-3.5,-9.875
11:32:51.207,-4.75,-10.625
11:32:51.218,-6.0625,-13.3751
11:32:51.229,-7.1875,-15.6876
11:32:51.239,-8.875,-17.6251
11:32:51.248,-9.8125,-19.0626
11:32:51.258,-9.125,-19.5001
11:32:51.269,-9.5,-20.3751
11:32:51.278,-9.125,-21.5626
11:32:51.289,-9.9375,-20.8751
11:32:51.298,-10.0625,-23.5001
11:32:51.308,-10,-23.0001
11:32:51.318,-10.6875,-25.1876
11:32:51.327,-12.25,-26.5001
11:32:51.339,-13.8126,-28.6876
11:32:51.348,-15.5626,-30.4376
11:32:51.359,-16.6251,-33.0001
11:32:51.369,-17.8126,-35.1251
11:32:51.379,-19.1876,-36.8751
11:32:51.388,-18.6876,-37.5626
11:32:51.398,-17.7501,-37.1876
11:32:51.409,-16.2501,-36.5001
11:32:51.418,-14.9376,-35.5001
11:32:51.428,-13.3751,-34.0001
11:32:51.439,-12,-30.6876
11:32:51.448,-8.4375,-26.4376
11:32:51.458,-5.75,-21.1251
11:32:51.469,-1.5,-15.3751
11:32:51.478,2.3125,-8.1875
11:32:51.489,8.6875,-0.125
11:32:51.499,13.2501,7.6875
11:32:51.509,18.6876,14.1876
11:32:51.518,22.0626,20.8126
11:32:51.529,24.4376,24.1251
11:32:51.539,24.3126,26.8751
11:32:51.552,23.3126,25.1251
11:32:51.579,21.9376,24.6251
11:32:51.581,18.1876,23.0626
11:32:51.590,16.2501,21.2501
11:32:51.591,16.9376,23.3751
11:32:51.599,18.6251,24.6251
11:32:51.607,22.2501,27.8751
11:32:51.618,23.8126,32.0001
11:32:51.628,25.6251,32.5001
11:32:51.642,26.5626,34.0626
11:32:51.674,24.6251,34.0626
11:32:51.709,22.8126,33.0626
11:32:51.710,21.0626,30.9376
11:32:51.711,17.6251,28.0001
11:32:51.711,16.9376,26.5001
11:32:51.711,16.3126,25.3126
11:32:51.742,18.0001,25.8126
11:32:51.743,19.9376,27.0626
11:32:51.744,21.3126,27.9376
11:32:51.746,22.0001,27.3751
11:32:51.752,20.0626,25.5626
11:32:51.758,18.0001,23.6251
11:32:51.791,14.5001,20.2501
11:32:51.794,12.125,18.4376
11:32:51.796,10.75,16.2501
11:32:51.799,10.8125,16.0626
11:32:51.830,12.125,17.1876
11:32:51.831,13.6251,19.0626
11:32:51.833,16.8126,20.3126
11:32:51.840,18.3751,21.7501
11:32:51.848,18.3751,20.3751
11:32:51.859,16.9376,20.1876
11:32:51.869,14.8751,17.1876
11:32:51.880,11.5625,13.8751
11:32:51.888,8,9.375
11:32:51.898,5.1875,6.75
11:32:51.909,4.875,5.1875
11:32:51.918,5.1875,5
11:32:51.934,6,4.0625
11:32:51.938,6.4375,4.4375
11:32:51.948,6.75,3.75
11:32:51.958,5.125,1.8125
11:32:51.970,3.4375,0.5625
11:32:51.978,1.6875,-2.375
11:32:51.989,0.0625,-5
11:32:51.998,-1.9375,-6.75
11:32:52.009,-2.9375,-8.5
11:32:52.018,-3.8125,-11
11:32:52.028,-3.625,-10
11:32:52.038,-2.6875,-10.9375
11:32:52.049,-2.875,-12.0625
11:32:52.058,-4.375,-13.0625
11:32:52.068,-4.5625,-14.8126
11:32:52.079,-7,-17.8126
11:32:52.088,-9.875,-18.6251
11:32:52.098,-10.8125,-21.7501
11:32:52.109,-11.25,-23.1251
11:32:52.118,-11.5625,-22.8126
11:32:52.128,-8.75,-22.6251
11:32:52.139,-8.9375,-22.8126
11:32:52.148,-8.4375,-21.3751
11:32:52.159,-8.0625,-22.8126
11:32:52.168,-9.1875,-24.3126
11:32:52.179,-10.3125,-25.7501
11:32:52.189,-12.0625,-26.8126
11:32:52.206,-13.5626,-30.2501
11:32:52.213,-15.8126,-31.1251
11:32:52.227,-16.1876,-33.5001
11:32:52.231,-18.4376,-34.4376
11:32:52.245,-17.7501,-36.0626
11:32:52.248,-17.0001,-34.4376
11:32:52.258,-15.4376,-34.9376
11:32:52.269,-13.1876,-32.7501
11:32:52.278,-11.1875,-32.3751
11:32:52.288,-11.0625,-31.4376
11:32:52.299,-10.375,-33.1876
11:32:52.312,-11.5625,-32.8751
11:32:52.320,-12.8125,-35.6251
11:32:52.328,-14.8126,-36.1876
11:32:52.339,-15.5001,-36.9376
11:32:52.348,-14.6876,-35.0626
11:32:52.359,-13,-31.7501
11:32:52.369,-9.25,-26.3751
11:32:52.378,-3.4375,-17.6251
11:32:52.388,2.0625,-10.75
11:32:52.398,6.875,-2.4375
11:32:52.408,11.5,4.5625
11:32:52.422,14.6251,9.9375
11:32:52.428,16.5626,13.2501
11:32:52.463,15.2501,14.8126
11:32:52.471,14.1876,15.3126
11:32:52.471,11.875,14.8126
11:32:52.471,11.625,14.8126
11:32:52.480,12.8125,16.7501
11:32:52.507,15.9376,19.5001
11:32:52.510,17.1876,22.9376
11:32:52.512,19.7501,25.0626
11:32:52.521,19.6251,27.1251
11:32:52.549,18.8126,27.3751
11:32:52.551,17.0001,25.8126
11:32:52.554,15.1876,25.2501
11:32:52.560,12.8125,24.0626
11:32:52.583,12.5,24.5001
11:32:52.586,12.1875,23.8751
11:32:52.588,12.75,23.9376
11:32:52.597,14.0626,26.1876
11:32:52.610,14.8126,25.3751
11:32:52.618,14.6251,25.1251
11:32:52.628,15.2501,24.5001
11:32:52.638,14.4376,22.8126
11:32:52.649,12.5,22.2501
11:32:52.658,11.3125,20.0626
11:32:52.669,10.6875,18.4376
11:32:52.678,10.125,18.6251
11:32:52.687,11.8125,19.6251
11:32:52.701,13.6876,20.1251
11:32:52.708,15.0626,21.8126
11:32:52.718,16.7501,23.5626
11:32:52.728,17.2501,23.0001
11:32:52.738,15.8126,22.4376
11:32:52.749,13.4376,20.6251
11:32:52.759,11.625,16.9376
11:32:52.768,8.5,13.6251
11:32:52.779,6.875,12.75
11:32:52.788,6.3125,10.4375
11:32:52.798,5.625,10.1875
11:32:52.808,6.125,9.5625
11:32:52.819,7.125,8.8125
11:32:52.828,7.125,9.8125
11:32:52.859,7.5,8.125
11:32:52.862,6.75,6.625
11:32:52.862,4.9375,4
11:32:52.870,2.1875,3.0625
11:32:52.878,0.625,-0.4375
11:32:52.888,-1.3125,-2.75
11:32:52.898,-3.125,-4.8125
11:32:52.909,-4.0625,-5.8125
11:32:52.919,-4.125,-7.3125
11:32:52.928,-4.25,-8.75
11:32:52.938,-4.375,-8.75
11:32:52.956,-5.1875,-10
11:32:52.958,-5.8125,-11.4375
11:32:52.973,-6.4375,-12.875
11:32:52.983,-7.8125,-13.3751
11:32:52.988,-8.8125,-16.1251
11:32:52.999,-9.5625,-16.9376
11:32:53.010,-9.5625,-16.8751
11:32:53.018,-8.25,-17.2501
11:32:53.028,-7.1875,-18.0001
11:32:53.038,-7.25,-17.0001
11:32:53.049,-8.5,-19.7501
11:32:53.064,-8.75,-20.5001
11:32:53.069,-10.4375,-22.4376
11:32:53.078,-11.25,-23.0001
11:32:53.089,-12.5,-25.2501
11:32:53.098,-13.0625,-25.6251
11:32:53.112,-13.8751,-27.8751
11:32:53.118,-14.3751,-28.3751
11:32:53.153,-13.9376,-28.9376
11:32:53.157,-13.8751,-29.3751
11:32:53.158,-12.75,-29.0001
11:32:53.162,-11.875,-29.0001
11:32:53.187,-11.625,-28.4376
11:32:53.190,-12.125,-29.3751
11:32:53.193,-12.8125,-30.5626
11:32:53.199,-15.5001,-32.6876
11:32:53.234,-16.1876,-34.5001
11:32:53.235,-17.8751,-35.5626
11:32:53.237,-18.6876,-37.4376
11:32:53.240,-19.7501,-39.3127
11:32:53.272,-20.0001,-38.7501
11:32:53.273,-19.6251,-40.2502
11:32:53.276,-19.0001,-38.9376
11:32:53.278,-17.5626,-40.1252
11:32:53.289,-18.1251,-39.0626
11:32:53.298,-17.1876,-39.2502
11:32:53.309,-17.0626,-37.2501
11:32:53.318,-14.9376,-35.1876
11:32:53.329,-12.0625,-30.3751
11:32:53.339,-7.1875,-24.0001
11:32:53.349,-3,-17.3126
11:32:53.358,1.875,-9.4375
11:32:53.368,6.8125,-3.0625
11:32:53.378,9.9375,3.3125
11:32:53.389,12.9375,9.25
11:32:53.399,14.0001,12.9375
11:32:53.409,15.8126,16.2501
11:32:53.418,17.1876,19.7501
11:32:53.428,18.8126,23.5626
11:32:53.438,21.0001,25.3751
11:32:53.448,22.6251,28.1251
11:32:53.458,24.2501,31.0001
11:32:53.468,26.2501,33.0626
11:32:53.478,26.5001,35.0001
11:32:53.489,26.4376,35.7501
11:32:53.498,26.5626,36.5001
11:32:53.514,26.6876,38.0001
11:32:53.530,26.5626,40.1252
11:32:53.533,28.7501,42.2502
11:32:53.541,28.3126,42.8752
11:32:53.548,29.1251,44.5627
11:32:53.558,28.8751,45.8127
11:32:53.568,27.5626,43.1877
11:32:53.579,25.5626,41.8127
11:32:53.588,24.4376,39.2502
11:32:53.599,22.1876,37.0001
11:32:53.608,21.7501,36.7501
11:32:53.618,23.1876,36.1876
11:32:53.628,24.6876,36.0626
11:32:53.639,25.5626,37.0001
11:32:53.649,25.7501,37.6251
11:32:53.659,25.9376,37.3751
11:32:53.668,25.6251,36.2501
11:32:53.678,24.1876,35.2501
11:32:53.689,22.2501,32.7501
11:32:53.698,21.8126,32.0626
11:32:53.708,21.6251,32.1251
11:32:53.718,21.8751,32.4376
11:32:53.728,23.0001,32.8126
11:32:53.739,24.9376,32.6251
11:32:53.749,24.5626,32.4376
11:32:53.759,23.6251,31.4376
11:32:53.768,22.5626,28.1251
11:32:53.778,19.2501,26.3126
11:32:53.789,16.8751,22.0001
11:32:53.799,14.2501,19.8126
11:32:53.811,12.9375,18.0001
11:32:53.821,11.875,15.3126
11:32:53.829,11.5,14.0626
11:32:53.838,12.625,14.0001
11:32:53.870,12.9375,14.8126
11:32:53.872,13.3126,14.1251
11:32:53.876,13.1251,12.875
11:32:53.879,11.9375,12.0625
11:32:53.910,11.6875,9.25
11:32:53.912,9.875,7.8125
11:32:53.914,7.8125,5.125
11:32:53.921,6.875,2.4375
11:32:53.947,5.625,1.5
11:32:53.949,5.8125,0.25
11:32:53.951,5.9375,0.3125
11:32:53.989,7.25,0.4375
11:32:53.992,6.8125,0.0625
11:32:53.993,6.375,-1
11:32:54.000,6.8125,-2.625
11:32:54.001,5.3125,-2.5
11:32:54.014,3.625,-5.9375
11:32:54.019,1.9375,-8.5
11:32:54.029,0.5,-10.6875
11:32:54.038,-1.5,-12.6875
11:32:54.056,-2.375,-13.5626
11:32:54.064,-1.875,-14.2501
11:32:54.076,-1,-14.6251
11:32:54.084,-0.875,-14.5626
11:32:54.094,-0.6875,-15.1251
11:32:54.104,-0.9375,-16.5001
11:32:54.113,-1.75,-17.5001
11:32:54.139,-3.3125,-20.0626
11:32:54.141,-6.5625,-22.2501
11:32:54.143,-9.25,-25.7501
11:32:54.154,-11.1875,-28.9376
11:32:54.164,-13.125,-30.9376
11:32:54.174,-14.7501,-33.0626
11:32:54.186,-15.3126,-34.3126
11:32:54.196,-16.2501,-35.2501
11:32:54.203,-15.5626,-35.5001
11:32:54.215,-15.3126,-35.5001
11:32:54.223,-13.4376,-35.5001
11:32:54.233,-14.4376,-36.5001
11:32:54.243,-15.0001,-37.7501
11:32:54.259,-16.8126,-39.8127
11:32:54.275,-19.0001,-42.2502
11:32:54.277,-20.5001,-44.4377
11:32:54.286,-21.2501,-46.3127
11:32:54.293,-21.8126,-46.3752
11:32:54.303,-21.7501,-47.1877
11:32:54.314,-21.3751,-46.3127
11:32:54.323,-21.9376,-48.1252
11:32:54.334,-23.2501,-48.3127
11:32:54.343,-22.6251,-49.3752
11:32:54.354,-24.2501,-50.1877
11:32:54.364,-24.1251,-51.1877
11:32:54.373,-23.9376,-51.9377
11:32:54.384,-23.5626,-51.5627
11:32:54.393,-23.5001,-52.4377
11:32:54.403,-23.5626,-52.5002
11:32:54.413,-23.4376,-53.3127
11:32:54.424,-24.0626,-53.0627
11:32:54.433,-24.4376,-54.3127
11:32:54.443,-25.7501,-56.3752
11:32:54.454,-27.5626,-57.2502
11:32:54.464,-27.2501,-58.3127
11:32:54.473,-27.6251,-57.3752
11:32:54.484,-26.1251,-55.4377
11:32:54.494,-23.5626,-49.8752
11:32:54.504,-17.8751,-44.0627
11:32:54.514,-11.75,-34.0626
11:32:54.523,-4.5625,-26.1876
11:32:54.534,0.9375,-16.9376
11:32:54.543,6,-10.75
11:32:54.553,8.1875,-4.9375
11:32:54.567,9.625,-2.25
11:32:54.574,9.375,-0.0625
11:32:54.584,8.6875,-0.1875
11:32:54.593,7.4375,0.5625
11:32:54.605,7.5625,1.6875
11:32:54.614,7.5625,3.125
11:32:54.642,9,4.25
11:32:54.645,10.25,7.3125
11:32:54.647,12.25,8.9375
11:32:54.655,13.5001,12.125
11:32:54.678,14.2501,12.9375
11:32:54.681,14.6251,15.6251
11:32:54.684,15.0626,15.6876
11:32:54.714,15.2501,18.2501
11:32:54.717,16.9376,20.0626
11:32:54.719,17.6876,20.3751
11:32:54.726,17.3751,21.0626
11:32:54.749,16.7501,22.1251
11:32:54.752,16.0626,19.5001
11:32:54.753,14.1876,17.1876
11:32:54.778,12.0625,15.7501
11:32:54.780,10,12.25
11:32:54.790,8.6875,10.5
11:32:54.795,7.5,8.9375
11:32:54.803,6.0625,8.375
11:32:54.823,5.0625,7.0625
11:32:54.829,3.75,5.25
11:32:54.845,1.4375,3.4375
11:32:54.846,-0.1875,1.5
11:32:54.862,-2.375,-0.8125
11:32:54.867,-3.75,-0.9375
11:32:54.876,-2.9375,-1.75
11:32:54.886,-4.25,-2.875
11:32:54.894,-7,-5.0625
11:32:54.903,-10.5625,-8.5625
11:32:54.914,-14.6876,-12.375
11:32:54.923,-18.8126,-17.5001
11:32:54.933,-23.5626,-21.9376
11:32:54.950,-29.3126,-27.6251
11:32:54.956,-36.7501,-33.6251
11:32:54.963,-43.8127,-40.4377
11:32:54.975,-49.3752,-47.1877
11:32:54.983,-55.8752,-52.9377
11:32:54.993,-63.5627,-60.5627
11:32:55.005,-73.8753,-70.6253
11:32:55.013,-87.6878,-83.3753
11:32:55.023,-97.7504,-93.8129
11:32:55.035,-109.9379,-104.3754
11:32:55.044,-124.063,-119.5005
11:32:55.053,-138.5005,-133.563
11:32:55.064,-150.3756,-145.2505
11:32:55.073,-156.5631,-153.5006
11:32:55.083,-161.0006,-158.6256
11:32:55.093,-166.1256,-163.5006
11:32:55.103,-171.8132,-170.6256
11:32:55.113,-178.0632,-175.4382
11:32:55.123,-188.9382,-185.8757
11:32:55.133,-197.0007,-195.1882
11:32:55.144,-196.8757,-196.3757
11:32:55.153,-193.9382,-192.1882
11:32:55.163,-190.5007,-190.8132
11:32:55.174,-190.0007,-189.4382
11:32:55.184,-189.7507,-189.6257
11:32:55.194,-189.8132,-188.5632
11:32:55.203,-188.6257,-190.1257
11:32:55.213,-184.5007,-186.0007
11:32:55.223,-182.7507,-183.5632
11:32:55.235,-180.6882,-182.3757
11:32:55.244,-176.0007,-178.3757
11:32:55.253,-173.1882,-174.6257
11:32:55.263,-171.9382,-174.7507
11:32:55.273,-170.5007,-173.0632
11:32:55.283,-170.1256,-171.1257
11:32:55.293,-168.3756,-172.6257
11:32:55.303,-165.7506,-168.4381
11:32:55.313,-161.1881,-165.8131
11:32:55.325,-159.0631,-163.6256
11:32:55.333,-155.0631,-160.9381
11:32:55.344,-151.5006,-157.5006
11:32:55.354,-148.1256,-155.1881
11:32:55.363,-145.1255,-153.1881
11:32:55.397,-143.063,-150.5006
11:32:55.399,-140.5005,-150.0006
11:32:55.401,-137.688,-147.8131
11:32:55.426,-135.938,-145.188
11:32:55.428,-133.313,-144.563
11:32:55.453,-130.0005,-142.2505
11:32:55.455,-128.2505,-141.313
11:32:55.457,-126.188,-140.438
11:32:55.458,-124.0005,-138.313
11:32:55.484,-120.5005,-136.5005
11:32:55.486,-117.0004,-134.0005
11:32:55.488,-113.7504,-130.2505
11:32:55.494,-110.6254,-128.688
11:32:55.523,-107.0004,-126.7505
11:32:55.525,-103.6879,-124.188
11:32:55.528,-100.8129,-121.8755
11:32:55.533,-98.0629,-121.188
11:32:55.563,-97.0004,-119.438
11:32:55.566,-94.9379,-120.063
11:32:55.580,-93.6879,-119.813
11:32:55.594,-94.3129,-120.188
11:32:55.597,-93.1254,-120.688
11:32:55.599,-92.5629,-121.0005
11:32:55.604,-91.5004,-120.438
11:32:55.613,-90.0628,-120.2505
11:32:55.624,-87.6253,-118.6255
11:32:55.634,-84.5003,-113.6879
11:32:55.643,-80.6253,-110.2504
11:32:55.654,-75.6878,-103.2504
11:32:55.663,-70.8753,-97.8129
11:32:55.673,-66.8128,-90.7503
11:32:55.684,-61.7502,-85.7503
11:32:55.701,-58.1877,-79.6253
11:32:55.704,-54.6877,-73.9378
11:32:55.713,-50.3752,-70.3128
11:32:55.723,-48.3752,-65.7503
11:32:55.735,-46.0002,-63.9377
11:32:55.743,-45.4377,-60.8127
11:32:55.753,-44.0627,-61.3752
11:32:55.763,-42.2502,-59.5002
11:32:55.776,-42.9377,-59.0002
11:32:55.784,-42.8752,-58.9377
11:32:55.793,-42.8127,-57.9377
11:32:55.804,-42.8127,-58.3127
11:32:55.813,-42.0002,-56.8752
11:32:55.823,-41.1877,-54.8127
11:32:55.833,-39.1877,-54.0627
11:32:55.846,-39.5002,-53.1877
11:32:55.853,-39.0001,-52.0627
11:32:55.863,-38.8751,-51.7502
11:32:55.873,-39.5002,-52.1877
11:32:55.885,-41.0002,-54.7502
11:32:55.893,-43.3752,-56.2502
11:32:55.904,-47.3752,-59.0002
11:32:55.913,-49.6877,-64.1877
11:32:55.923,-52.6252,-66.4378
11:32:55.935,-55.3752,-69.5003
11:32:55.943,-57.0627,-72.1878
11:32:55.954,-58.0002,-72.2503
11:32:55.963,-58.6877,-74.9378
11:32:55.973,-58.5627,-75.1878
11:32:55.983,-59.6877,-74.3128
11:32:55.993,-60.4377,-76.0628
11:32:56.003,-60.3127,-76.2503
11:32:56.014,-60.5002,-76.4378
11:32:56.047,-59.6252,-76.1878
11:32:56.048,-59.6877,-75.3128
11:32:56.051,-59.5627,-74.7503
11:32:56.077,-58.0627,-75.0628
11:32:56.078,-58.7502,-74.6253
11:32:56.081,-58.9377,-75.1253
11:32:56.086,-59.1877,-76.4378
11:32:56.113,-59.0002,-75.0003
11:32:56.115,-58.6252,-75.8753
11:32:56.118,-57.8752,-74.8753
11:32:56.215,-61.9377,-77.5003
11:32:56.218,-64.9377,-81.5003
11:32:56.219,-67.4378,-82.1253
11:32:56.233,-67.5628,-82.9378
11:32:56.233,-68.4378,-84.0003
11:32:56.233,-69.6253,-83.7503
11:32:56.240,-69.5003,-84.7503
11:32:56.248,-69.3753,-84.4378
11:32:56.258,-70.1878,-82.3753
11:32:56.268,-69.5628,-83.6253
11:32:56.278,-68.8753,-82.9378
11:32:56.290,-69.5003,-82.8128
11:32:56.299,-68.8128,-82.8753
11:32:56.308,-68.9378,-82.1878
11:32:56.319,-68.0003,-81.8753
11:32:56.330,-66.5003,-80.7503
11:32:56.338,-66.0003,-78.3128
11:32:56.348,-65.1252,-79.1253
11:32:56.358,-64.9377,-78.5003
11:32:56.370,-64.0627,-78.7503
11:32:56.378,-63.4377,-78.5003
11:32:56.388,-63.0002,-78.1878
11:32:56.400,-56.6877,-76.5628
11:32:56.409,-54.5627,-74.3128
11:32:56.418,-52.5002,-73.0628
11:32:56.428,-50.6252,-71.5628
11:32:56.438,-49.3127,-71.5628
11:32:56.450,-47.1877,-70.0003
11:32:56.459,-44.3127,-68.3753
11:32:56.469,-40.8752,-65.9378
11:32:56.478,-38.0001,-63.4377
11:32:56.489,-36.1251,-61.9377
11:32:56.498,-34.6251,-61.6877
11:32:56.508,-33.8751,-61.3752
11:32:56.519,-34.7501,-63.6252
11:32:56.529,-35.7501,-64.6252
11:32:56.540,-36.3126,-66.5003
11:32:56.548,-37.3126,-67.0628
11:32:56.558,-38.2501,-68.1878
11:32:56.568,-38.5001,-70.0003
11:32:56.578,-38.0626,-70.6253
11:32:56.588,-38.7501,-71.1878
11:32:56.603,-38.3751,-72.9378
11:32:56.608,-37.8751,-72.3753
11:32:56.618,-37.4376,-71.0003
11:32:56.629,-36.2501,-72.3753
11:32:56.638,-34.6876,-71.0003
11:32:56.650,-33.2501,-70.6253
11:32:56.658,-32.5001,-71.6253
11:32:56.669,-30.9376,-70.2503
11:32:56.697,-29.4376,-69.5628
11:32:56.700,-28.5001,-69.6253
11:32:56.702,-27.2501,-69.0003
11:32:56.709,-25.4376,-68.6253
11:32:56.719,-25.0626,-68.1878
11:32:56.729,-24.2501,-67.5628
11:32:56.739,-24.8751,-66.9378
11:32:56.773,-23.5001,-65.1877
11:32:56.775,-20.6876,-62.0627
11:32:56.779,-18.1251,-57.7502
11:32:56.780,-15.1876,-52.5002
11:32:56.810,-11.9375,-47.6877
11:32:56.811,-10.0625,-43.2502
11:32:56.814,-7.5625,-39.2502
11:32:56.820,-7.25,-36.8751
11:32:56.891,-7.0625,-36.0001
11:32:56.892,-7.875,-36.3751
11:32:56.892,-10.1875,-36.2501
11:32:56.900,-12.5625,-38.3126
11:32:56.900,-15.2501,-40.3127
11:32:56.900,-18.2501,-41.6877
11:32:56.911,-20.7501,-44.0627
11:32:56.928,-23.5001,-45.5627
11:32:56.931,-25.9376,-46.8752
11:32:56.940,-28.0001,-47.3752
11:32:56.949,-29.5626,-49.2502
11:32:56.959,-31.0626,-48.8752
11:32:56.968,-32.2501,-49.1877
11:32:56.983,-33.2501,-48.9377
11:32:56.988,-33.5626,-47.6877
11:32:57.002,-34.3126,-46.8752
11:32:57.010,-34.8751,-45.5627
11:32:57.020,-34.6876,-46.1252
11:32:57.031,-35.2501,-45.5627
11:32:57.040,-35.0626,-45.8752
11:32:57.048,-34.5626,-45.6252
11:32:57.058,-34.5001,-46.0627
11:32:57.068,-36.3751,-47.6877
11:32:57.080,-34.0001,-44.6877
11:32:57.088,-32.7501,-43.0002
11:32:57.100,-31.7501,-42.1252
11:32:57.109,-36.7501,-44.9377
11:32:57.119,-39.4377,-46.3752
11:32:57.131,-39.6877,-46.4377
11:32:57.139,-39.0001,-43.5627
11:32:57.150,-39.5627,-43.9377
11:32:57.160,-39.3126,-41.5002
11:32:57.168,-40.4377,-43.1877
11:32:57.180,-40.0002,-42.4377
11:32:57.189,-39.8127,-41.8752
11:32:57.199,-38.8751,-40.0627
11:32:57.208,-39.3752,-40.0002
11:32:57.219,-39.0001,-40.1877
11:32:57.229,-38.9376,-39.8127
11:32:57.240,-39.0001,-38.6876
11:32:57.248,-38.0001,-38.6876
11:32:57.259,-37.7501,-37.5626
11:32:57.268,-36.4376,-36.6251
11:32:57.281,-37.0001,-36.3126
11:32:57.291,-37.2501,-37.3751
11:32:57.300,-36.6251,-37.7501
11:32:57.310,-36.4376,-35.8751
11:32:57.319,-36.1876,-36.6251
11:32:57.328,-36.1251,-37.3126
11:32:57.339,-35.9376,-36.4376
11:32:57.348,-35.7501,-37.8751
11:32:57.358,-34.4376,-36.6251
11:32:57.369,-32.6251,-35.8751
11:32:57.381,-30.4376,-33.1876
11:32:57.389,-25.9376,-30.2501
11:32:57.399,-20.8751,-26.3126
11:32:57.409,-17.8126,-23.7501
11:32:57.418,-15.0626,-21.0001
11:32:57.429,-13.3126,-21.3126
11:32:57.440,-11.5625,-18.7501
11:32:57.448,-8.9375,-17.8126
11:32:57.460,-5.1875,-14.8751
11:32:57.470,-2.5,-13.5001
11:32:57.484,0.375,-11.3125
11:32:57.517,3.4375,-9.75
11:32:57.519,4.875,-8.6875
11:32:57.545,4.8125,-10.1875
11:32:57.545,4.4375,-10.875
11:32:57.546,3.5,-12.8125
11:32:57.549,1.8125,-13.6251
11:32:57.577,1.3125,-14.0626
11:32:57.579,1.5625,-16.5626
11:32:57.582,-0.1875,-17.4376
11:32:57.588,-0.375,-18.3751
11:32:57.588,0,-20.1876
11:32:57.623,0.375,-20.3751
11:32:57.626,0.25,-21.1251
11:32:57.627,0.5,-20.5626
11:32:57.631,1.0625,-21.7501
11:32:57.656,2.4375,-20.5001
11:32:57.658,4.4375,-18.9376
11:32:57.661,6.75,-18.5626
11:32:57.669,8.125,-18.3751
11:32:57.682,8.9375,-19.1251
11:32:57.690,8.6875,-18.3126
11:32:57.700,8.5,-20.8751
11:32:57.709,7.5625,-23.0001
11:32:57.719,5.375,-24.5001
11:32:57.733,2.1875,-28.6251
11:32:57.740,-1.8125,-32.2501
11:32:57.748,-5.0625,-36.9376
11:32:57.759,-8.5625,-40.2502
11:32:57.768,-11.125,-42.8752
11:32:57.779,-13,-46.6252
11:32:57.788,-14.8751,-47.7502
11:32:57.800,-15.3751,-49.9377
11:32:57.809,-15.5626,-47.7502
11:32:57.819,-15.5626,-46.8752
11:32:57.828,-14.3126,-45.1252
11:32:57.841,-13.5001,-40.4377
11:32:57.849,-12.6875,-38.3126
11:32:57.860,-11.75,-34.6876
11:32:57.869,-10.25,-30.8751
11:32:57.880,-10.9375,-29.3126
11:32:57.892,-10.125,-27.2501
11:32:57.900,-12.375,-26.8751
11:32:57.909,-13.0625,-26.0626
11:32:57.919,-14.0626,-26.2501
11:32:57.930,-15.5001,-26.0626
11:32:57.938,-15.8126,-26.0001
11:32:57.951,-16.1876,-25.8126
11:32:57.977,-16.4376,-24.1251
11:32:57.979,-15.5626,-22.4376
11:32:57.982,-14.3751,-20.7501
11:32:57.990,-14.4376,-19.1251
11:32:57.998,-13.7501,-17.0001
11:32:58.012,-13.3126,-15.2501
11:32:58.019,-12.0625,-12.375
11:32:58.029,-10.875,-11.1875
11:32:58.039,-10.5,-8.6875
11:32:58.050,-9.5625,-7.8125
11:32:58.058,-9.0625,-5.875
11:32:58.070,-8.6875,-5.125
11:32:58.080,-14.0001,-9.875
11:32:58.090,-17.5626,-11.4375
11:32:58.100,-17.5001,-11.5625
11:32:58.110,-18.2501,-10.1875
11:32:58.121,-17.6251,-10.1875
11:32:58.135,-18.1251,-9.4375
11:32:58.145,-18.8751,-9.8125
11:32:58.161,-18.2501,-8.3125
11:32:58.176,-17.5626,-6.9375
11:32:58.178,-17.1876,-5.6875
11:32:58.185,-17.1251,-3.75
11:32:58.195,-17.1876,-3.1875
11:32:58.205,-16.9376,-2.4375
11:32:58.214,-17.2501,-0.75
11:32:58.226,-16.2501,-0.875
11:32:58.235,-16.5001,0.8125
11:32:58.244,-15.0626,-0.1875
11:32:58.255,-14.7501,1.375
11:32:58.297,-14.1251,1
11:32:58.300,-13.8751,2.75
11:32:58.302,-13.4376,2.0625
11:32:58.305,-13,3.3125
11:32:58.307,-11.4375,2.3125
11:32:58.336,-12.4375,1.375
11:32:58.338,-12.5625,1
11:32:58.341,-12.1875,1.875
11:32:58.347,-10.25,2.6875
11:32:58.376,-9.3125,3.125
11:32:58.378,-7.75,3.375
11:32:58.381,-6.8125,4.25
11:32:58.415,-3.6875,5.75
11:32:58.416,0.125,8.625
11:32:58.418,2.8125,10.1875
11:32:58.426,4.0625,10.75
11:32:58.427,5.3125,10.625
11:32:58.438,7.6875,11.5
11:32:58.450,9.0625,13.0625
11:32:58.454,11.9375,14.9376
11:32:58.466,14.6876,15.3751
11:32:58.476,16.1251,17.4376
11:32:58.483,17.8126,16.5001
11:32:58.497,17.3126,15.2501
11:32:58.506,16.5626,14.1251
11:32:58.515,14.9376,11.3125
11:32:58.525,13.4376,8.5625
11:32:58.534,12.1875,6.375
11:32:58.544,10.625,4.0625
11:32:58.556,9.1875,3.5
11:32:58.563,9.375,1.1875
11:32:58.577,8.625,0
11:32:58.584,8.1875,-0.9375
11:32:58.595,8.5625,-2.375
11:32:58.605,7.75,-4.375
11:32:58.615,7.8125,-3.625
11:32:58.624,9.1875,-4
11:32:58.635,10.0625,-4.8125
11:32:58.646,11,-5.25
11:32:58.654,12.625,-4
11:32:58.666,13.6251,-5.375
11:32:58.677,13.2501,-6.3125
11:32:58.685,13.6876,-7.25
11:32:58.694,13,-9.4375
11:32:58.705,12.9375,-10.8125
11:32:58.715,11.625,-11.1875
11:32:58.726,10.75,-12.9375
11:32:58.736,10.875,-13.6251
11:32:58.744,11.5625,-12.875
11:32:58.754,12.6875,-11.4375
11:32:58.766,14.8751,-7.25
11:32:58.779,18.5001,-3.6875
11:32:58.795,19.8126,0.1875
11:32:58.797,21.6251,3.625
11:32:58.805,22.2501,5.875
11:32:58.814,22.3751,7.3125
11:32:58.826,21.3751,8.5
11:32:58.834,20.8126,8.3125
11:32:58.844,17.6876,7.875
11:32:58.858,16.3751,6.625
11:32:58.864,13.8126,5.1875
11:32:58.876,10.3125,4.4375
11:32:58.886,8.625,1.5
11:32:58.894,5.3125,0.25
11:32:58.905,2.6875,-1.8125
11:32:58.916,1,-2.6875
11:32:58.924,-0.625,-3.3125
11:32:58.934,-1.6875,-2.125
11:32:58.945,-2,-2.5
11:32:58.955,-2.375,-2.375
11:32:58.965,-3.625,-2.5
11:32:58.975,-4.4375,-0.9375
11:32:58.985,-4.8125,-0.8125
11:32:58.994,-5.0625,-1.625
11:32:59.006,-6.5625,-3.0625
11:32:59.014,-8.3125,-3.125
11:32:59.024,-9,-4
11:32:59.053,-9.0625,-5.875
11:32:59.055,-10.4375,-7.0625
11:32:59.059,-10.5,-7.5
11:32:59.066,-10.3125,-6.0625
11:32:59.096,-8.1875,-5.0625
11:32:59.101,-7.75,-3.375
11:32:59.101,-8.8125,-4.3125
11:32:59.106,-13.3126,-7.4375
11:32:59.138,-16.0001,-8.8125
11:32:59.140,-17.6876,-8.5
11:32:59.142,-18.0001,-8.125
11:32:59.147,-17.3126,-7.375
11:32:59.176,-16.8751,-7.5
11:32:59.180,-17.9376,-7.625
11:32:59.181,-16.8126,-6.25
11:32:59.206,-17.0001,-6.1875
11:32:59.207,-17.8126,-6.3125
11:32:59.210,-19.3126,-6.3125
11:32:59.215,-19.2501,-6.8125
11:32:59.228,-20.8751,-7.375
11:32:59.258,-20.5001,-7.6875
11:32:59.262,-21.0626,-7.75
11:32:59.264,-19.8126,-7.25
11:32:59.266,-20.5626,-7.3125
11:32:59.276,-19.7501,-7.9375
11:32:59.284,-20.3751,-7.875
11:32:59.294,-20.5001,-8.375
11:32:59.305,-20.7501,-8.875
11:32:59.314,-20.9376,-10.375
11:32:59.324,-21.9376,-10.8125
11:32:59.334,-21.8751,-12
11:32:59.344,-21.9376,-12.0625
11:32:59.354,-22.1876,-12.375
11:32:59.366,-20.1876,-12.4375
11:32:59.374,-19.2501,-12
11:32:59.385,-16.8126,-9.5
11:32:59.394,-12.875,-8.5625
11:32:59.404,-10.1875,-5.25
11:32:59.414,-7.5,-5.5
11:32:59.424,-5.75,-3.125
11:32:59.434,-4.3125,-3.9375
11:32:59.456,-1.875,-2.625
11:32:59.458,0.8125,-1.5
11:32:59.473,3.8125,1.125
11:32:59.478,6.875,2.1875
11:32:59.485,8.6875,3.4375
11:32:59.494,10.8125,3.6875
11:32:59.504,10.25,2
11:32:59.514,9.5625,0.1875
11:32:59.525,6.25,-2.5
11:32:59.535,5.25,-5.8125
11:32:59.546,4.1875,-7.5
11:32:59.555,4.125,-8.5625
11:32:59.565,3.4375,-9.375
11:32:59.576,3.625,-10.75
11:32:59.585,3.375,-12.4375
11:32:59.596,2.8125,-13.4376
11:32:59.611,2.375,-14.1251
11:32:59.614,3.1875,-15.0626
11:32:59.624,3.1875,-15.8751
11:32:59.637,4.625,-16.5001
11:32:59.646,6.9375,-14.8751
11:32:59.654,8.9375,-14.5626
11:32:59.665,10.625,-13.7501
11:32:59.674,11.6875,-13.1251
11:32:59.684,13.2501,-14.0001
11:32:59.694,13.0625,-14.4376
11:32:59.704,14.4376,-12.875
11:32:59.714,16.2501,-11.375
11:32:59.726,17.8126,-7.9375
11:32:59.735,19.9376,-2.8125
11:32:59.745,21.9376,0.5
11:32:59.755,24.6251,4.0625
11:32:59.787,26.3126,8.625
11:32:59.789,26.7501,10.9375
11:32:59.791,27.1876,12.75
11:32:59.795,26.0001,12.375
11:32:59.827,23.9376,12.0625
11:32:59.829,21.9376,10.625
11:32:59.831,19.1251,9.125
11:32:59.836,16.1876,8.1875
11:32:59.866,13.4376,4.75
11:32:59.868,10.4375,3.5
11:32:59.871,7.625,1.0625
11:32:59.877,5.75,-0.25
11:32:59.888,3.875,-0.875
11:32:59.917,3,-1.375
11:32:59.919,2.0625,-1.625
11:32:59.921,0.625,-0.25
11:32:59.925,-1.1875,-1.4375
11:32:59.945,-3.75,-3.125
11:32:59.948,-5.5625,-3.25
11:32:59.955,-6.75,-3.5625
11:32:59.964,-7.3125,-4.5
11:32:59.975,-8.75,-5.375
11:32:59.986,-9.3125,-5.3125
11:32:59.996,-9.5625,-6.5
11:33:00.004,-9.3125,-7.5625
11:33:00.017,-10.875,-8.9375
11:33:00.024,-12.375,-9.625
11:33:00.034,-12.9375,-8.3125
11:33:00.045,-12.625,-9.5625
11:33:00.054,-12.1875,-9.6875
11:33:00.065,-11.75,-7.75
11:33:00.079,-11.375,-7.9375
11:33:00.094,-9.25,-6.8125
11:33:00.098,-11.9375,-7.75
11:33:00.104,-16.1251,-11
11:33:00.114,-18.7501,-13.125
11:33:00.125,-19.2501,-11.5
11:33:00.135,-20.0626,-12.625
11:33:00.144,-20.6251,-11.75
11:33:00.155,-20.1251,-13.125
11:33:00.164,-21.2501,-12.4375
11:33:00.176,-21.9376,-13.0625
11:33:00.185,-21.1876,-12.4375
11:33:00.194,-22.2501,-13
11:33:00.204,-22.1251,-12.5
11:33:00.214,-23.3751,-13.2501
11:33:00.224,-23.2501,-13
11:33:00.234,-23.5001,-13.6876
11:33:00.244,-24.9376,-14.4376
11:33:00.254,-24.8126,-14.2501
11:33:00.266,-24.5001,-14.4376
11:33:00.275,-23.9376,-14.1876
11:33:00.286,-23.7501,-14.7501
11:33:00.297,-24.2501,-13.9376
11:33:00.305,-23.6251,-14.6876
11:33:00.315,-24.5001,-14.0001
11:33:00.324,-24.4376,-15.3751
11:33:00.334,-23.9376,-15.7501
11:33:00.344,-23.1251,-14.9376
11:33:00.363,-23.1251,-16.7501
11:33:00.366,-22.2501,-15.4376
11:33:00.374,-19.9376,-14.8751
11:33:00.384,-17.0001,-12.625
11:33:00.420,-14.8751,-11
11:33:00.422,-11.8125,-9.25
11:33:00.424,-10,-8.1875
11:33:00.427,-9,-7.875
11:33:00.461,-8.0625,-8.3125
11:33:00.464,-7.3125,-7.625
11:33:00.465,-5.4375,-7.9375
11:33:00.469,-4.5625,-7.5
11:33:00.502,-3.1875,-7.25
11:33:00.503,-1,-7.375
11:33:00.507,-0.0625,-6.0625
11:33:00.512,0.9375,-7.25
11:33:00.539,0.9375,-8.1875
11:33:00.541,0.6875,-8.5625
11:33:00.543,-0.6875,-11.6875
11:33:00.574,-2.6875,-13.6876
11:33:00.575,-4.125,-15.9376
11:33:00.578,-6.125,-18.6876
11:33:00.585,-6.8125,-20.0626
11:33:00.587,-8.6875,-21.2501
11:33:00.595,-10.0625,-23.9376
11:33:00.605,-11,-25.6876
11:33:00.615,-12.0625,-26.9376
11:33:00.627,-13.7501,-29.0001
11:33:00.636,-14.5626,-30.8126
11:33:00.645,-15.6876,-32.4376
11:33:00.655,-16.2501,-33.6251
11:33:00.664,-17.2501,-35.0001
11:33:00.675,-17.7501,-34.3126
11:33:00.684,-16.2501,-34.0626
11:33:00.694,-13.6876,-30.6251
11:33:00.705,-10.6875,-25.8126
11:33:00.716,-7.875,-20.0626
11:33:00.726,-4.75,-14.5001
11:33:00.737,-1.8125,-7.8125
11:33:00.752,1.9375,-2.9375
11:33:00.755,5.125,2.875
11:33:00.770,7.4375,6.5625
11:33:00.776,7.8125,10.9375
11:33:00.784,6.625,9.75
11:33:00.794,4.3125,10.625
11:33:00.806,3.875,11.8125
11:33:00.814,4.0625,14.0626
11:33:00.825,4.9375,15.6876
11:33:00.834,6.125,18.4376
11:33:00.844,7.6875,20.0626
11:33:00.854,6.6875,22.0626
11:33:00.865,7.875,23.9376
11:33:00.875,8.25,26.3751
11:33:00.887,9.5,28.1876
11:33:00.897,9,29.5001
11:33:00.904,10.125,31.3126
11:33:00.915,12.5625,33.8751
11:33:00.925,11.375,34.5626
11:33:00.934,11.6875,34.8126
11:33:00.944,12.5625,36.0001
11:33:00.955,13.6876,36.8751
11:33:00.964,14.9376,37.1251
11:33:00.974,15.3751,40.0627
11:33:00.986,17.1876,39.8127
11:33:00.994,18.9376,41.0002
11:33:01.005,21.1876,44.0627
11:33:01.016,24.3751,46.1252
11:33:01.027,25.8126,48.5002
11:33:01.034,27.3126,51.5627
11:33:01.046,30.6251,54.8127
11:33:01.055,33.3751,56.6877
11:33:01.064,33.6876,57.4377
11:33:01.076,33.0626,58.6252
11:33:01.086,33.1251,57.1252
11:33:01.097,34.5001,57.4377
11:33:01.111,36.6251,59.0627
11:33:01.119,37.1876,60.3127
11:33:01.125,37.8751,61.0002
11:33:01.135,38.0001,60.0627
11:33:01.144,40.0627,61.0627
11:33:01.154,41.9377,61.9377
11:33:01.166,44.8752,65.0002
11:33:01.175,44.2502,65.0002
11:33:01.186,43.3752,63.0002
11:33:01.194,41.8127,60.5627
11:33:01.225,40.6252,60.0627
11:33:01.227,39.1876,58.4377
11:33:01.230,36.1251,56.0627
11:33:01.236,34.1251,53.6877
11:33:01.267,32.1251,51.7502
11:33:01.270,32.2501,49.1877
11:33:01.272,32.0001,49.5002
11:33:01.275,32.3751,48.3752
11:33:01.305,30.1251,46.6252
11:33:01.307,27.5626,43.6252
11:33:01.310,25.0626,39.4377
11:33:01.336,23.0001,37.0001
11:33:01.338,20.6251,35.2501
11:33:01.341,80.5628,91.5629
11:33:01.347,110.1254,115.0629
11:33:01.355,111.5004,117.813
11:33:01.381,117.938,123.438
11:33:01.397,131.813,134.3755
11:33:01.399,138.938,140.188
11:33:01.400,143.2505,144.313
11:33:01.406,142.813,143.8755
11:33:01.415,140.7505,141.3755
11:33:01.426,139.2505,139.563
11:33:01.436,140.938,140.938
11:33:01.445,141.313,139.7505
11:33:01.454,140.8755,138.7505
11:33:01.464,140.2505,137.563
11:33:01.474,137.7505,135.7505
11:33:01.490,132.8755,131.188
11:33:01.494,126.313,124.563
11:33:01.505,121.3755,120.688
11:33:01.516,120.3755,118.688
11:33:01.528,119.813,117.3755
11:33:01.535,118.938,115.5629
11:33:01.544,116.8754,113.5004
11:33:01.554,115.1254,111.1254
11:33:01.564,114.0004,109.7504
11:33:01.574,113.1879,109.0004
11:33:01.584,114.8754,110.0004
11:33:01.594,114.7504,110.5629
11:33:01.607,117.563,114.2504
11:33:01.618,120.438,119.063
11:33:01.625,122.7505,124.813
11:33:01.635,125.438,129.563
11:33:01.644,130.938,136.938
11:33:01.654,138.063,145.563
11:33:01.665,141.313,152.1256
11:33:01.675,144.0005,156.1881
11:33:01.687,145.688,159.3131
11:33:01.695,145.188,161.1881
11:33:01.706,146.0631,162.6881
11:33:01.714,144.438,163.0006
11:33:01.725,145.5005,165.3756
11:33:01.734,148.6256,168.0631
11:33:01.745,152.5631,173.0632
11:33:01.755,156.7506,177.0007
11:33:01.765,159.5006,181.5632
11:33:01.774,162.9381,184.9382
11:33:01.784,165.7506,187.6257
11:33:01.817,166.4381,190.6257
11:33:01.820,167.0006,190.8132
11:33:01.822,166.6256,192.1257
11:33:01.826,167.6256,192.2507
11:33:01.835,168.8756,193.4382
11:33:01.844,169.8131,193.8757
11:33:01.855,169.2506,193.6257
11:33:01.888,172.8757,195.4382
11:33:01.889,175.0632,196.5007
11:33:01.891,174.3757,195.4382
11:33:01.896,174.6257,194.2507
11:33:01.932,173.7507,193.8757
11:33:01.934,172.0007,191.6257
11:33:01.936,169.1256,190.0007
11:33:01.938,166.7506,186.0632
11:33:01.968,164.3131,184.8132
11:33:01.973,162.3756,181.9382
11:33:01.974,158.0631,178.4382
11:33:01.981,154.6881,173.6882
11:33:01.986,151.8756,169.8756
11:33:02.019,149.6881,167.1256
11:33:02.021,147.1881,164.1881
11:33:02.024,143.8755,160.9381
11:33:02.026,140.2505,156.1881
11:33:02.048,135.438,152.3131
11:33:02.053,130.8755,147.6881
11:33:02.067,127.438,142.7505
11:33:02.069,124.1255,139.063
11:33:02.075,121.063,134.313
11:33:02.086,116.8129,128.8755
11:33:02.094,112.8129,124.688
11:33:02.104,109.8129,120.188
11:33:02.114,104.8129,115.4379
11:33:02.124,100.6879,109.6254
11:33:02.157,95.1879,103.9379
11:33:02.160,89.3753,99.1254
11:33:02.162,87.3128,93.8129
11:33:02.170,83.5628,90.8753
11:33:02.179,80.4378,87.2503
11:33:02.190,78.1878,83.3128
11:33:02.201,75.8128,80.2503
11:33:02.212,71.3753,75.6253
11:33:02.220,67.5003,70.3753
11:33:02.230,62.3127,65.5003
11:33:02.239,59.8752,61.0002
11:33:02.250,58.6252,59.7502
11:33:02.259,57.6877,57.0627
11:33:02.271,56.6252,56.3127
11:33:02.279,57.3752,54.7502
11:33:02.289,56.0002,53.6252
11:33:02.299,54.6877,50.7502
11:33:02.309,52.3127,47.2502
11:33:02.320,48.0002,43.1252
11:33:02.330,44.3752,39.1252
11:33:02.339,41.6252,35.1876
11:33:02.349,39.6877,33.1251
11:33:02.359,37.3126,29.5001
11:33:02.369,34.5626,27.5626
11:33:02.379,32.4376,22.6251
11:33:02.390,28.3751,19.6251
11:33:02.403,25.3126,15.0626
11:33:02.409,22.4376,12.5625
11:33:02.423,20.6251,9.125
11:33:02.429,18.5001,7.3125
11:33:02.440,18.9376,6.25
11:33:02.451,18.6876,5.625
11:33:02.460,18.0626,4.5625
11:33:02.469,16.8126,1.875
11:33:02.481,14.3751,-0.6875
11:33:02.490,10.9375,-4
11:33:02.499,6.375,-8.75
11:33:02.510,1.125,-14.2501
11:33:02.521,-3.6875,-19.4376
11:33:02.530,-8.0625,-23.6876
11:33:02.539,-10.1875,-26.1876
11:33:02.549,-11.375,-27.8126
11:33:02.560,-11.0625,-28.3126
11:33:02.569,-10,-26.6876
11:33:02.579,-7.0625,-22.1251
11:33:02.590,-3.875,-18.9376
11:33:02.599,0.25,-11.9375
11:33:02.610,4,-6.1875
11:33:02.619,5.5625,-0.75
11:33:02.629,8.375,4.1875
11:33:02.640,12.25,8.8125
11:33:02.649,15.1251,14.6876
11:33:02.659,18.5626,19.1876
11:33:02.735,20.3126,22.6876
11:33:02.735,21.8126,24.9376
11:33:02.769,21.4376,26.9376
11:33:02.771,21.0626,26.8126
11:33:02.774,19.5001,27.3751
11:33:02.778,18.1251,26.2501
11:33:02.778,17.6251,26.0001
11:33:02.778,14.6876,24.6876
11:33:02.786,12.75,23.1251
11:33:02.815,11.25,23.2501
11:33:02.817,11.8125,24.1876
11:33:02.820,12.4375,25.5001
11:33:02.824,13.8751,27.3126
11:33:02.857,14.0626,29.0626
11:33:02.861,14.9376,30.3126
11:33:02.864,14.3751,29.5001
11:33:02.866,13.4376,28.3751
11:33:02.877,12.0625,26.4376
11:33:02.885,9.375,23.9376
11:33:02.894,8.25,21.8751
11:33:02.905,8.5625,21.5626
11:33:02.917,10.0625,22.0626
11:33:02.924,11.5,23.5001
11:33:02.935,12.1875,24.1251
11:33:02.944,8.5625,20.7501
11:33:02.954,6.875,18.2501
11:33:02.966,4.75,16.4376
11:33:02.978,5.5,17.1251
11:33:02.985,7.1875,17.3751
11:33:02.995,9.375,18.3126
11:33:03.004,10.9375,19.0001
11:33:03.016,10.75,19.1876
11:33:03.028,10.0625,18.3751
11:33:03.035,10.0625,16.8126
11:33:03.045,7.5625,15.5626
11:33:03.056,5.625,12.1875
11:33:03.065,2.6875,9.6875
11:33:03.097,1.25,7
11:33:03.100,-0.5,4.0625
11:33:03.102,-0.3125,4
11:33:03.107,1,3.125
11:33:03.114,1.9375,3.375
11:33:03.124,4.8125,4.9375
11:33:03.135,6.25,6.3125
11:33:03.146,7.5625,7.0625
11:33:03.154,7.0625,6.5
11:33:03.164,6.4375,5.5625
11:33:03.175,4.875,2.6875
11:33:03.185,2.5625,0.375
11:33:03.195,0,-2.1875
11:33:03.206,-1.8125,-5.1875
11:33:03.215,-2.8125,-7.0625
11:33:03.224,-4,-9
11:33:03.236,-5.4375,-10.6875
11:33:03.245,-5.4375,-11.5
11:33:03.257,-5.6875,-11.375
11:33:03.264,-5.0625,-11.8125
11:33:03.275,-4.875,-12.5625
11:33:03.284,-4.6875,-12.75
11:33:03.296,-4.25,-12.875
11:33:03.308,-4.75,-14.2501
11:33:03.339,-6,-14.6251
11:33:03.379,-6.3125,-16.0001
11:33:03.421,-5.625,-16.5001
11:33:03.423,-4.75,-16.4376
11:33:03.455,-4.5625,-16.5001
11:33:03.482,-4.3125,-16.9376
11:33:03.482,-5,-17.7501
11:33:03.482,-5.375,-18.5001
11:33:03.483,-5.3125,-18.6876
11:33:03.486,-7,-20.7501
11:33:03.491,-7.75,-22.3126
11:33:03.500,-9.3125,-24.3751
11:33:03.506,-10.6875,-25.2501
11:33:03.516,-11.625,-28.1251
11:33:03.525,-13.2501,-27.6876
11:33:03.535,-13.4376,-29.6876
11:33:03.544,-13.8751,-30.2501
11:33:03.556,-12.25,-29.3751
11:33:03.564,-10.1875,-29.1251
11:33:03.575,-8.5,-26.6251
11:33:03.586,-8,-26.8126
11:33:03.596,-8.8125,-28.1876
11:33:03.607,-9.875,-29.4376
11:33:03.616,-11.6875,-31.7501
11:33:03.625,1.6875,-7
11:33:03.636,7.625,-0.0625
11:33:03.644,12.125,6.3125
11:33:03.655,16.1251,13.125
11:33:03.666,18.1876,17.4376
11:33:03.674,20.1251,21.2501
11:33:03.686,21.3126,22.6876
11:33:03.694,22.0626,24.9376
11:33:03.704,20.6251,24.8751
11:33:03.717,19.2501,25.6251
11:33:03.724,19.8126,26.7501
11:33:03.734,18.6876,26.7501
11:33:03.745,20.2501,28.2501
11:33:03.754,21.9376,31.0001
11:33:03.765,22.5626,33.5001
11:33:03.776,24.8126,35.1251
11:33:03.785,26.0001,38.1876
11:33:03.795,25.8751,39.1877
11:33:03.804,25.8126,39.4377
11:33:03.815,24.7501,39.4377
11:33:03.828,24.2501,38.8126
11:33:03.835,24.9376,38.0001
11:33:03.844,24.6251,37.7501
11:33:03.854,24.7501,38.8126
11:33:03.866,25.5626,37.9376
11:33:03.874,25.0626,37.0626
11:33:03.885,24.2501,36.8751
11:33:03.895,23.6876,36.6251
11:33:03.905,22.6876,35.1876
11:33:03.915,21.6251,34.1251
11:33:03.925,21.2501,34.1876
11:33:03.934,21.1251,34.5626
11:33:03.944,22.1251,33.7501
11:33:03.956,20.8751,33.3126
11:33:03.965,20.5626,32.1876
11:33:03.974,19.3751,32.4376
11:33:03.984,17.7501,31.2501
11:33:03.994,17.5001,29.6876
11:33:04.005,16.0001,27.3751
11:33:04.019,13.6251,26.1251
11:33:04.029,13.7501,24.6876
11:33:04.034,13.4376,23.2501
11:33:04.049,13.5626,23.0626
11:33:04.059,13.8751,24.5626
11:33:04.066,15.2501,24.1251
11:33:04.075,14.6251,23.2501
11:33:04.097,13.5001,22.5626
11:33:04.099,12.375,21.3751
11:33:04.131,10.9375,18.3751
11:33:04.133,7.375,14.4376
11:33:04.136,4.9375,12.375
11:33:04.139,3.5625,10.625
11:33:04.146,3.4375,8.1875
11:33:04.175,1.25,6.6875
11:33:04.177,1.0625,6.4375
11:33:04.179,0.4375,5.6875
11:33:04.186,1.1875,4.5
11:33:04.212,1.125,3.9375
11:33:04.215,1.375,3.3125
11:33:04.217,1.3125,2.1875
11:33:04.248,1.375,1.5
11:33:04.251,0.25,0.0625
11:33:04.253,-1.5625,-1
11:33:04.258,-2.8125,-2.25
11:33:04.269,-3.125,-5.0625
11:33:04.276,-4.4375,-5.625
11:33:04.286,-4.1875,-6.8125
11:33:04.295,-3.9375,-6.5625
11:33:04.308,-3.25,-6.1875
11:33:04.316,-3,-5.625
11:33:04.326,-3.0625,-7
11:33:04.336,-5.25,-8.875
11:33:04.347,-7.4375,-11.0625
11:33:04.382,-9.0625,-12.4375
11:33:04.385,-9.625,-14.5001
11:33:04.387,-9.25,-15.1876
11:33:04.388,-9.3125,-15.6251
11:33:04.395,-7.8125,-15.4376
11:33:04.406,-6.25,-12.875
11:33:04.415,-5,-12.8125
11:33:04.426,-4.0625,-12.4375
11:33:04.434,-3.875,-12.625
11:33:04.447,-4.875,-12.625
11:33:04.455,-5.5625,-14.4376
11:33:04.465,-5.875,-13.5001
11:33:04.475,-5.125,-12.25
11:33:04.486,-4,-7.625
11:33:04.496,-0.5,-3.6875
11:33:04.506,3.0625,3.625
11:33:04.516,8.9375,9.875
11:33:04.525,14.3751,19.5001
11:33:04.537,18.7501,25.2501
11:33:04.545,21.6251,30.1876
11:33:04.555,23.3751,33.4376
11:33:04.566,24.2501,36.4376
11:33:04.577,23.5001,37.3751
11:33:04.586,23.3126,37.1876
11:33:04.596,22.6876,37.6251
11:33:04.605,22.5626,38.4376
11:33:04.615,21.7501,38.5626
11:33:04.627,22.7501,39.5002
11:33:04.636,22.5626,39.8127
11:33:04.646,24.0001,43.0627
11:33:04.655,25.3751,44.1252
11:33:04.666,25.5626,46.1877
11:33:04.676,25.7501,47.6252
11:33:04.686,26.6251,47.3752
11:33:04.696,25.8751,47.7502
11:33:04.705,26.1876,48.1252
11:33:04.718,24.9376,46.5627
11:33:04.724,22.6876,45.6252
11:33:04.739,20.9376,42.6877
11:33:04.748,19.7501,39.5627
11:33:04.755,18.0626,38.6251
11:33:04.772,18.8126,38.6251
11:33:04.787,20.8751,39.5627
11:33:04.789,22.0001,40.6877
11:33:04.795,23.6876,42.8752
11:33:04.807,25.3126,43.3752
11:33:04.833,26.1876,43.8752
11:33:04.836,26.8751,44.5002
11:33:04.837,25.5626,43.3127
11:33:04.868,23.5626,42.2502
11:33:04.870,22.3126,40.8127
11:33:04.873,22.4376,39.5002
11:33:04.876,21.4376,38.5626
11:33:04.905,22.8751,38.7501
11:33:04.907,23.5626,38.6251
11:33:04.910,24.0626,38.6251
11:33:04.915,23.9376,38.3751
11:33:04.931,23.6876,38.3751
11:33:04.937,23.8126,37.2501
11:33:04.969,22.6876,34.6876
11:33:04.971,20.1251,32.1876
11:33:04.973,17.8126,31.0001
11:33:04.978,16.3126,27.0001
11:33:04.994,14.3126,24.6251
11:33:04.997,12.75,23.0001
11:33:05.005,13.3751,21.8751
11:33:05.016,13.5626,21.3126
11:33:05.024,14.0001,22.1876
11:33:05.036,14.6251,21.2501
11:33:05.045,14.4376,20.1876
11:33:05.054,13.3126,19.0001
11:33:05.066,12.4375,17.2501
11:33:05.076,10.375,15.5001
11:33:05.084,8.75,13.6876
11:33:05.094,8.4375,11
11:33:05.106,6.875,9.5625
11:33:05.114,6.8125,8.6875
11:33:05.127,6.9375,8.125
11:33:05.136,6.1875,7.125
11:33:05.144,6.3125,7.25
11:33:05.155,6.1875,6
11:33:05.166,4.3125,3.5
11:33:05.174,3.375,2.8125
11:33:05.186,1.75,0.625
11:33:05.196,-0.125,-2.25
11:33:05.206,-0.9375,-3
11:33:05.216,-2.625,-5.9375
11:33:05.226,-3.25,-6.375
11:33:05.236,-3.625,-6.9375
11:33:05.246,-4.125,-8.3125
11:33:05.256,-5.5625,-10.375
11:33:05.266,-7.125,-11
11:33:05.276,-7.5625,-13.4376
11:33:05.286,-8.8125,-14.6876
11:33:05.296,-8.625,-13.5626
11:33:05.306,-7.625,-12.625
11:33:05.316,-6.625,-9.75
11:33:05.335,-4,-3.8125
11:33:05.342,0.1875,1.5
11:33:05.349,2.9375,6.5
11:33:05.356,6.3125,13.5001
11:33:05.372,9.6875,18.3751
11:33:05.378,11.9375,24.1251
11:33:05.387,14.1251,26.6876
11:33:05.396,15.3126,31.5626
11:33:05.406,16.0001,32.0001
11:33:05.416,16.3126,34.6251
11:33:05.424,16.2501,34.6876
11:33:05.437,16.5626,36.9376
11:33:05.445,18.2501,38.5001
11:33:05.454,19.7501,40.9377
11:33:05.466,20.8751,42.8752
11:33:05.477,22.3126,45.4377
11:33:05.486,23.1251,46.1252
11:33:05.496,24.3126,48.6877
11:33:05.505,24.6876,51.1252
11:33:05.518,25.6251,51.9377
11:33:05.527,25.5001,51.6252
11:33:05.536,24.6251,51.5627
11:33:05.546,24.4376,52.3752
11:33:05.558,24.3126,51.5002
11:33:05.566,24.0001,49.9377
11:33:05.576,24.0626,50.4377
11:33:05.586,24.1876,48.6252
11:33:05.617,23.5001,48.3127
11:33:05.619,23.5626,47.1252
11:33:05.621,21.9376,45.3127
11:33:05.627,21.0626,45.5627
11:33:05.658,20.8126,43.5627
11:33:05.661,19.9376,42.5627
11:33:05.665,19.2501,43.1252
11:33:05.667,20.8126,42.9377
11:33:05.678,20.0626,42.8752
11:33:05.703,20.6251,43.1252
11:33:05.706,20.2501,42.6252
11:33:05.708,20.6251,41.7502
11:33:05.744,19.6251,40.5002
11:33:05.746,18.1251,39.9377
11:33:05.749,17.2501,36.5626
11:33:05.751,15.0001,34.0001
11:33:05.756,12.75,32.3751
11:33:05.779,12.25,30.9376
11:33:05.781,12.375,29.3126
11:33:05.786,12.375,30.2501
11:33:05.796,13.125,28.6251
11:33:05.806,11.875,26.9376
11:33:05.816,10.6875,25.6876
11:33:05.824,10.4375,24.1251
11:33:05.837,9.125,21.3751
11:33:05.846,7.8125,21.3126
11:33:05.856,6.1875,17.8751
11:33:05.866,5.375,16.5626
11:33:05.876,4.125,15.1251
11:33:05.886,3.9375,12.875
11:33:05.896,3.8125,11.9375
11:33:05.905,3.6875,11.25
11:33:05.916,3.9375,11.125
11:33:05.926,3.25,9.8125
11:33:05.936,1.875,7.6875
11:33:05.945,0.3125,6.625
11:33:05.954,-1.25,4.3125
11:33:05.966,-1.8125,2.1875
11:33:05.977,-3.4375,1
11:33:05.986,-2.4375,0.5
11:33:05.996,-3.625,-1.1875
11:33:06.005,-3.3125,-0.125
11:33:06.017,-2.75,-1.625
11:33:06.026,-2.625,-2.0625
11:33:06.036,-3.125,-3.125
11:33:06.055,-4.0625,-3.75
11:33:06.057,-4.9375,-5.875
11:33:06.074,-6.25,-7.75
11:33:06.088,-9,-10.3125
11:33:06.090,-9.3125,-10.3125
11:33:06.099,-8.1875,-9.3125
11:33:06.106,-4.6875,-6.375
11:33:06.116,-1,-1
11:33:06.126,3.875,5
11:33:06.137,8.875,13.4376
11:33:06.146,13.6251,19.7501
11:33:06.155,16.8126,25.9376
11:33:06.166,19.6251,31.1251
11:33:06.176,20.7501,35.0626
11:33:06.186,21.5001,37.4376
11:33:06.196,22.1251,40.8127
11:33:06.206,22.0001,41.8752
11:33:06.215,23.5001,44.2502
11:33:06.226,23.8126,44.6252
11:33:06.236,25.0001,46.4377
11:33:06.251,26.6876,48.8752
11:33:06.263,27.3126,50.7502
11:33:06.284,29.0626,53.1252
11:33:06.287,30.5001,54.6252
11:33:06.291,31.2501,56.5627
11:33:06.321,30.2501,57.4377
11:33:06.323,30.0626,58.5002
11:33:06.326,29.0626,57.6877
11:33:06.331,28.1876,56.5627
11:33:06.364,26.8751,56.8127
11:33:06.366,26.6251,55.5002
11:33:06.372,25.8751,54.0627
11:33:06.377,26.1251,53.0627
11:33:06.386,25.2501,51.5002
11:33:06.391,23.6251,50.3127
11:33:06.418,22.7501,48.4377
11:33:06.421,21.3751,47.5627
11:33:06.423,22.4376,45.4377
11:33:06.452,21.5626,44.8127
11:33:06.454,21.3751,44.9377
11:33:06.457,21.0001,44.1252
11:33:06.462,21.1876,44.2502
11:33:06.473,21.1876,43.3752
11:33:06.481,20.3126,42.6877
11:33:06.491,19.8751,42.0627
11:33:06.500,19.0001,39.9377
11:33:06.511,17.2501,39.6877
11:33:06.521,17.1876,37.1876
11:33:06.531,16.3751,35.3751
11:33:06.541,16.2501,34.8751
11:33:06.551,15.5626,32.9376
11:33:06.563,14.0001,31.5626
11:33:06.571,13.3751,29.6251
11:33:06.581,13.8751,28.1251
11:33:06.591,12.5625,28.0626
11:33:06.601,11.8125,25.3126
11:33:06.611,11.5625,23.6876
11:33:06.621,10,22.4376
11:33:06.634,8.6875,20.0001
11:33:06.644,7.5,18.3126
11:33:06.662,7.25,16.4376
11:33:06.664,6.125,15.2501
11:33:06.676,6.3125,13.3751
11:33:06.681,6.625,14.0001
11:33:06.696,6.4375,12
11:33:06.704,6.5,12.0625
11:33:06.711,6.75,9.8125
11:33:06.721,5.1875,9.25
11:33:06.732,4.5,7.125
11:33:06.741,3.5,4.875
11:33:06.751,2.25,3.1875
11:33:06.761,0.75,1.375
11:33:06.771,1.3125,0.4375
11:33:06.781,0,-1.5
11:33:06.791,-0.375,-1.375
11:33:06.801,-0.6875,-3.25
11:33:06.811,-1.4375,-4.8125
11:33:06.821,-2.9375,-6.5625
11:33:06.831,-4.4375,-7.75
11:33:06.841,-5.75,-10.8125
11:33:06.851,-7.875,-13.8751
11:33:06.862,-9.375,-14.6876
11:33:06.871,-10.9375,-16.6251
11:33:06.881,-10.1875,-18.0001
11:33:06.891,-10.25,-18.9376
11:33:06.901,-10.1875,-18.8751
11:33:06.911,-10.1875,-20.1251
11:33:06.939,-11,-21.7501
11:33:06.941,-11.6875,-21.5626
11:33:06.944,-12.75,-23.7501
11:33:06.951,-12.9375,-25.1251
11:33:06.961,-13.5626,-25.6876
11:33:06.973,-14.1251,-26.6876
11:33:06.981,-14.3126,-28.1876
11:33:06.991,-14.3751,-27.1876
11:33:07.003,-11.8125,-26.4376
11:33:07.011,-10.125,-22.7501
11:33:07.026,-7.125,-19.0626
11:33:07.031,-2.8125,-11.625
11:33:07.047,1.625,-5
11:33:07.051,5.875,2.8125
11:33:07.075,10.1875,8.6875
11:33:07.077,12.8125,15.1251
11:33:07.107,15.9376,19.8126
11:33:07.110,17.3126,24.3751
11:33:07.111,18.2501,26.6876
11:33:07.113,20.1251,29.4376
11:33:07.152,21.8751,31.7501
11:33:07.154,22.0626,34.3751
11:33:07.156,24.8751,37.1876
11:33:07.158,26.9376,40.6252
11:33:07.163,28.5626,44.2502
11:33:07.194,29.7501,44.8127
11:33:07.198,29.3126,47.3127
11:33:07.201,29.4376,46.1877
11:33:07.202,29.1876,46.3127
11:33:07.225,27.4376,47.3127
11:33:07.229,26.8126,47.0627
11:33:07.230,26.6876,47.0002
11:33:07.243,27.1876,48.2502
11:33:07.251,27.1876,48.5002
11:33:07.261,27.1251,47.1252
11:33:07.272,26.6251,45.9377
11:33:07.281,25.8126,44.0627
11:33:07.291,25.1251,42.4377
11:33:07.303,24.1876,41.0627
11:33:07.311,22.8751,39.0627
11:33:07.321,21.8751,38.1876
11:33:07.331,21.0001,36.4376
11:33:07.341,20.1251,35.6251
11:33:07.351,19.6251,34.4376
11:33:07.372,18.8751,33.6251
11:33:07.376,19.8751,33.6876
11:33:07.398,19.0626,33.3751
11:33:07.412,19.1876,32.4376
11:33:07.414,19.2501,32.8126
11:33:07.421,18.6876,31.0001
11:33:07.422,16.1876,28.3751
11:33:07.434,13.5626,27.3126
11:33:07.441,11.5,23.1251
11:33:07.451,9.375,19.4376
11:33:07.462,7.875,18.1251
11:33:07.471,6.5625,15.5001
11:33:07.481,4.6875,12.875
11:33:07.491,4.125,12.25
11:33:07.501,4.6875,10.875
11:33:07.511,3.9375,8.9375
11:33:07.522,3.5625,8.5
11:33:07.531,3.4375,6.5
11:33:07.541,2.0625,4.5625
11:33:07.551,0.625,2.125
11:33:07.561,-1.0625,0.8125
11:33:07.571,-2.1875,-1.25
11:33:07.581,-2.5,-2.5625
11:33:07.591,-3,-4.875
11:33:07.601,-3.5,-5.625
11:33:07.611,-3.5625,-7.125
11:33:07.624,-4.125,-8.0625
11:33:07.631,-4.75,-8
11:33:07.641,-5.125,-9.75
11:33:07.653,-6,-11.6875
11:33:07.661,-6.625,-12.8125
11:33:07.671,-6.3125,-14.1251
11:33:07.681,-7.125,-14.8126
11:33:07.691,-7.0625,-15.8126
11:33:07.701,-7.5625,-17.5001
11:33:07.711,-8.9375,-20.0001
11:33:07.721,-9.125,-19.9376
11:33:07.731,-10.375,-21.3751
11:33:07.742,-11.1875,-22.6251
11:33:07.750,-11.5625,-24.1876
11:33:07.776,-12.6875,-25.8126
11:33:07.778,-13.4376,-26.4376
11:33:07.781,-13.1876,-28.0626
11:33:07.813,-12.875,-28.4376
11:33:07.816,-13.0625,-29.0626
11:33:07.818,-13.0625,-29.8126
11:33:07.821,-13.1876,-31.1876
11:33:07.849,-13.8126,-31.3751
11:33:07.854,-14.1876,-32.9376
11:33:07.855,-15.3126,-33.7501
11:33:07.861,-17.3126,-36.0626
11:33:07.891,-17.9376,-38.6251
11:33:07.894,-20.0001,-40.1252
11:33:07.896,-21.5001,-41.9377
11:33:07.901,-21.7501,-43.3752
11:33:07.927,-22.6876,-43.5002
11:33:07.932,-21.8126,-44.6252
11:33:07.932,-22.1876,-44.1252
11:33:07.946,-21.1251,-45.0627
11:33:07.951,-20.0001,-43.8127
11:33:07.961,-19.6876,-43.8752
11:33:07.979,-19.5001,-45.3752
11:33:07.986,-21.3751,-46.5002
11:33:07.994,-22.6876,-49.0002
11:33:08.001,-24.5001,-50.1877
11:33:08.017,-25.3751,-52.3752
11:33:08.023,-25.2501,-51.5002
11:33:08.032,-22.6876,-48.1877
11:33:08.041,-17.8751,-43.6877
11:33:08.051,-13.8126,-36.5001
11:33:08.061,-8.4375,-30.2501
11:33:08.071,-4.75,-22.2501
11:33:08.081,-0.875,-16.0001
11:33:08.091,2.875,-9.5
11:33:08.101,5.6875,-4.5
11:33:08.111,8.625,1.0625
11:33:08.121,10.8125,4.375
11:33:08.131,11.375,7.3125
11:33:08.141,11.8125,9.125
11:33:08.151,13.1876,10.75
11:33:08.161,13.1251,12.5
11:33:08.171,13.6876,13
11:33:08.181,13,13.5001
11:33:08.191,12.75,14.5626
11:33:08.217,12.8125,14.6876
11:33:08.220,12.3125,15.8126
11:33:08.223,12.25,15.8126
11:33:08.231,12.375,17.6251
11:33:08.241,13.125,19.0626
11:33:08.254,15.0001,21.4376
11:33:08.260,16.6251,22.3126
11:33:08.271,16.3126,22.4376
11:33:08.283,16.3126,23.1251
11:33:08.291,14.6251,20.3126
11:33:08.303,12.875,18.8126
11:33:08.312,11.375,17.1876
11:33:08.326,10.4375,15.1876
11:33:08.331,9.0625,13.3126
11:33:08.341,8.1875,12.5
11:33:08.351,8.75,13.4376
11:33:08.361,10.375,13.125
11:33:08.371,11.5625,13.9376
11:33:08.381,12.75,15.9376
11:33:08.391,13.4376,15.9376
11:33:08.403,12.5625,16.3126
11:33:08.411,12.625,15.5001
11:33:08.421,11.0625,13.2501
11:33:08.431,8.875,11.875
11:33:08.441,7.875,10.8125
11:33:08.451,6.375,8.125
11:33:08.461,4.0625,6.75
11:33:08.471,3.25,5
11:33:08.481,3.1875,4.25
11:33:08.491,2.3125,1.625
11:33:08.501,2.5625,1.9375
11:33:08.528,1.75,1.6875
11:33:08.529,1.5625,-0.3125
11:33:08.532,0.125,-2.4375
11:33:08.568,-1.0625,-3.375
11:33:08.571,-2.3125,-5.6875
11:33:08.574,-3.4375,-6.875
11:33:08.576,-4.9375,-8.6875
11:33:08.582,-5.8125,-11
11:33:08.611,-6.75,-12.875
11:33:08.613,-7.0625,-12.75
11:33:08.616,-6.9375,-14.3126
11:33:08.649,-8.375,-16.0001
11:33:08.650,-9.75,-17.1251
11:33:08.652,-10.375,-18.9376
11:33:08.658,-12.0625,-21.1876
11:33:08.661,-13.2501,-21.9376
11:33:08.684,-13.8751,-23.6876
11:33:08.698,-14.0626,-25.0626
11:33:08.713,-14.3751,-24.6251
11:33:08.715,-14.1251,-25.5626
11:33:08.731,-13.0625,-26.0001
11:33:08.746,-12.625,-25.3126
11:33:08.749,-13.1876,-25.5626
11:33:08.751,-13.4376,-26.1876
11:33:08.752,-14.7501,-29.2501
11:33:08.761,-16.3126,-30.0626
11:33:08.771,-17.1251,-32.1876
11:33:08.781,-19.0626,-34.0626
11:33:08.791,-19.5001,-35.0626
11:33:08.801,-19.3751,-35.7501
11:33:08.812,-19.2501,-35.0626
11:33:08.821,-17.8126,-34.8126
11:33:08.831,-17.1876,-34.8751
11:33:08.843,-17.3126,-35.3751
11:33:08.852,-17.7501,-36.0626
11:33:08.861,-18.0001,-37.3751
11:33:08.871,-19.2501,-37.9376
11:33:08.881,-20.2501,-39.4377
11:33:08.891,-21.1251,-41.7502
11:33:08.901,-21.2501,-41.3752
11:33:08.911,-20.9376,-42.5002
11:33:08.921,-20.4376,-41.4377
11:33:08.931,-20.1876,-42.2502
11:33:08.941,-21.1251,-42.8752
11:33:08.951,-20.8751,-44.0627
11:33:08.961,-20.8751,-43.5627
11:33:08.971,-19.8751,-41.5002
11:33:08.981,-17.3751,-37.7501
11:33:08.991,-13.6251,-32.7501
11:33:09.003,-9.125,-27.3751
11:33:09.011,-5.6875,-20.3126
11:33:09.021,-1.25,-14.0001
11:33:09.034,2.375,-8.8125
11:33:09.040,5.875,-2.25
11:33:09.051,7.5625,1.5
11:33:09.062,9.3125,5.5
11:33:09.076,9.5,6.5625
11:33:09.081,9.875,8.5
11:33:09.091,8.75,8.1875
11:33:09.101,7.625,7.5625
11:33:09.112,7.625,8.5
11:33:09.121,8.25,9.9375
11:33:09.131,8.5625,10.125
11:33:09.142,9.5,12.1875
11:33:09.151,10.25,12.875
11:33:09.184,11.125,14.6876
11:33:09.186,12.5625,16.5626
11:33:09.188,12.5,16.8126
11:33:09.191,12.75,18.0001
11:33:09.222,12.125,18.8751
11:33:09.225,11.375,17.3126
11:33:09.227,10.8125,15.6251
11:33:09.231,8.625,13.6876
11:33:09.261,7.6875,12.75
11:33:09.263,6.8125,11.3125
11:33:09.267,7.8125,10.5
11:33:09.271,7.9375,11.375
11:33:09.281,8.6875,12.3125
11:33:09.306,9.3125,11.8125
11:33:09.352,8.9375,11.1875
11:33:09.353,8.4375,11.9375
11:33:09.368,8.25,10.5625
11:33:09.384,7.75,10.0625
11:33:09.386,7.5,10.25
11:33:09.386,6.9375,10.125
11:33:09.386,8.25,10.25
11:33:09.387,8.9375,9.6875
11:33:09.396,10,11.1875
11:33:09.405,10.5625,10.75
11:33:09.417,10.3125,9.375
11:33:09.426,8.9375,8.1875
11:33:09.436,7.5,6.1875
11:33:09.452,5.5625,3.9375
11:33:09.457,3.625,2
11:33:09.466,3.0625,-0.8125
11:33:09.497,1.1875,-2.1875
11:33:09.500,0.625,-2.6875
11:33:09.502,0.9375,-2.5
11:33:09.506,1.375,-3.125
11:33:09.516,0.0625,-4.3125
11:33:09.526,-1.0625,-6.75
11:33:09.536,-5.0625,-12.5625
11:33:09.546,-7.125,-13.7501
11:33:09.556,-7.5625,-16.6876
11:33:09.567,-8.75,-17.9376
11:33:09.576,-8.75,-17.9376
11:33:09.586,-7.9375,-17.8751
11:33:09.596,-6.3125,-17.6876
11:33:09.606,-6.3125,-18.1251
11:33:09.616,-6.125,-18.9376
11:33:09.626,-7.1875,-19.4376
11:33:09.636,-8.5,-21.1876
11:33:09.647,-10.25,-23.8126
11:33:09.656,-11.9375,-25.2501
11:33:09.666,-12.875,-27.2501
11:33:09.678,-15.2501,-29.0626
11:33:09.686,-15.2501,-30.3126
11:33:09.696,-15.5626,-31.3751
11:33:09.706,-15.1251,-30.4376
11:33:09.716,-14.0001,-31.2501
11:33:09.726,-13.4376,-29.7501
11:33:09.736,-12.9375,-31.3751
11:33:09.746,-13.6251,-30.7501
11:33:09.757,-13.8126,-32.5626
11:33:09.766,-15.1876,-33.3126
11:33:09.776,-16.0001,-34.9376
11:33:09.786,-16.9376,-37.0001
11:33:09.796,-17.8126,-37.1876
11:33:09.806,-17.6876,-38.8126
11:33:09.816,-17.7501,-38.5626
11:33:09.829,-16.9376,-38.8751
11:33:09.837,-16.3126,-38.1876
11:33:09.846,-16.4376,-39.3752
11:33:09.856,-17.3126,-39.5002
11:33:09.866,-17.8751,-41.0627
11:33:09.876,-19.9376,-42.8127
11:33:09.887,-21.4376,-45.2502
11:33:09.896,-23.3751,-46.5002
11:33:09.928,-23.0626,-47.5002
11:33:09.930,-24.2501,-48.6877
11:33:09.932,-24.4376,-49.5002
11:33:09.938,-25.5001,-50.3752
11:33:09.973,-25.5626,-50.3752
11:33:09.974,-27.1251,-50.8752
11:33:09.977,-28.8751,-51.3752
11:33:10.014,-30.4376,-50.1877
11:33:10.041,-29.4376,-47.5002
11:33:10.070,-27.6251,-43.4377
11:33:10.084,-24.0001,-36.1876
11:33:10.086,-21.0626,-31.1876
11:33:10.086,-19.1251,-27.1251
11:33:10.100,-17.2501,-21.6251
11:33:10.103,-17.9376,-21.0001
11:33:10.108,-21.8126,-21.1251
11:33:10.108,-32.1876,-29.1876
11:33:10.108,-43.6877,-37.9376
11:33:10.112,-53.3127,-45.1877
11:33:10.124,-62.3127,-52.8127
11:33:10.131,-73.9378,-61.8127
11:33:10.142,-82.8128,-69.1878
11:33:10.151,-82.0003,-68.3753
11:33:10.161,-80.9378,-66.6878
11:33:10.174,-84.1878,-68.1878
11:33:10.181,-87.2503,-70.8128
11:33:10.191,-95.3129,-77.0003
11:33:10.201,-107.1254,-85.2503
11:33:10.211,-123.063,-97.7504
11:33:10.226,-167.4381,-141.3755
11:33:10.237,-166.6881,-140.8755
11:33:10.246,-165.8131,-140.188
11:33:10.256,-160.5631,-135.0005
11:33:10.270,-155.4381,-130.6255
11:33:10.276,-153.0631,-128.2505
11:33:10.288,-152.5006,-128.0005
11:33:10.320,-153.8131,-128.313
11:33:10.322,-155.1881,-129.813
11:33:10.325,-153.1256,-126.6255
11:33:10.331,-150.2506,-125.063
11:33:10.341,-147.1255,-123.438
11:33:10.351,-142.438,-118.438
11:33:10.361,-137.563,-113.8754
11:33:10.373,-132.438,-108.7504
11:33:10.381,-127.313,-105.0004
11:33:10.392,-123.313,-101.0004
11:33:10.401,-119.8755,-98.7504
11:33:10.411,-115.5629,-96.1254
11:33:10.424,-111.8129,-92.9379
11:33:10.431,-108.0004,-90.6878
11:33:10.441,-103.1254,-87.9378
11:33:10.451,-99.5629,-85.2503
11:33:10.461,-92.2504,-81.1253
11:33:10.471,-87.3128,-78.5003
11:33:10.481,-82.5003,-75.1253
11:33:10.491,-79.9378,-72.6253
11:33:10.501,-78.0003,-73.5628
11:33:10.511,-75.3128,-72.1878
11:33:10.523,-73.8753,-71.5628
11:33:10.531,-72.1253,-71.9378
11:33:10.541,-73.0003,-73.2503
11:33:10.551,-72.5628,-74.7503
11:33:10.561,-72.1253,-74.7503
11:33:10.573,-71.2503,-76.5003
11:33:10.583,-71.0003,-76.5628
11:33:10.591,-70.0003,-76.5003
11:33:10.601,-69.5628,-77.0628
11:33:10.611,-70.3128,-76.5628
11:33:10.622,-69.8128,-78.2503
11:33:10.631,-69.1878,-77.4378
11:33:10.649,-69.7503,-77.6253
11:33:10.656,-69.3753,-78.4378
11:33:10.665,-72.1253,-80.0628
11:33:10.672,-73.1253,-81.3753
11:33:10.701,-74.3128,-81.3128
11:33:10.702,-76.0628,-82.8128
11:33:10.733,-77.5003,-85.5003
11:33:10.736,-78.7503,-86.5628
11:33:10.738,-81.8128,-89.2503
11:33:10.740,-84.2503,-91.9379
11:33:10.742,-84.8128,-92.6254
11:33:10.779,-86.7503,-94.5004
11:33:10.781,-86.3128,-95.5004
11:33:10.783,-85.3128,-94.5629
11:33:10.786,-87.6253,-96.3129
11:33:10.791,-87.8753,-98.1254
11:33:10.821,-88.3753,-98.9379
11:33:10.824,-88.6253,-100.0629
11:33:10.826,-89.3753,-101.8129
11:33:10.831,-91.3129,-102.5004
11:33:10.858,-92.1254,-104.1879
11:33:10.861,-93.8129,-105.0004
11:33:10.863,-93.6254,-106.9379
11:33:10.871,-93.5004,-106.5004
11:33:10.882,-92.9379,-107.9379
11:33:10.891,-92.4379,-107.7504
11:33:10.901,-92.1879,-109.4379
11:33:10.911,-92.5004,-109.7504
11:33:10.921,-92.5629,-110.6879
11:33:10.931,-93.5004,-111.7504
11:33:10.941,-94.3754,-114.0629
11:33:10.951,-96.1254,-115.3754
11:33:10.962,-97.3754,-118.688
11:33:10.971,-100.0004,-120.1255
11:33:10.981,-101.8129,-124.813
11:33:10.991,-102.8754,-127.063
11:33:11.001,-101.5004,-129.813
11:33:11.015,-95.1879,-127.813
11:33:11.022,-86.8753,-120.6255
11:33:11.031,-77.9378,-112.7504
11:33:11.041,-71.9378,-104.2504
11:33:11.051,-69.9378,-101.3129
11:33:11.061,-67.8128,-97.8129
11:33:11.071,-63.7502,-91.3129
11:33:11.081,-57.3127,-83.8753
11:33:11.091,-49.7502,-75.1878
11:33:11.101,-43.3127,-66.8753
11:33:11.113,-38.1876,-61.3127
11:33:11.121,-35.8751,-57.1252
11:33:11.131,-32.5001,-53.6877
11:33:11.141,-29.3751,-49.4377
11:33:11.151,-27.0626,-46.6252
11:33:11.162,-24.0626,-42.2502
11:33:11.171,-21.5001,-37.9376
11:33:11.181,-18.6876,-35.3126
11:33:11.191,-16.8126,-31.2501
11:33:11.201,-16.3126,-30.1251
11:33:11.211,-15.5626,-27.3751
11:33:11.221,-15.6876,-25.1251
11:33:11.231,-13.1876,-21.3751
11:33:11.241,-12.5625,-17.3126
11:33:11.251,-10.625,-14.2501
