timestamp,Red,IR
13:16:31.713,-11.5625,-27.8751
13:16:31.723,-7.3125,-18.2501
13:16:31.733,-3.5625,-7.8125
13:16:31.745,-0.0625,1.125
13:16:31.753,3.375,11.625
13:16:31.782,7,19.5626
13:16:31.784,9.25,25.6251
13:16:31.786,11.25,30.9376
13:16:31.793,13.3751,36.2501
13:16:31.823,15.2501,41.8752
13:16:31.825,17.1251,44.6877
13:16:31.827,18.0626,47.4377
13:16:31.834,19.6251,50.5627
13:16:31.846,20.4376,54.0002
13:16:31.876,21.0001,54.7502
13:16:31.876,21.0001,56.3127
13:16:31.880,21.7501,55.7502
13:16:31.883,20.7501,57.0627
13:16:31.917,20.3126,55.2502
13:16:31.919,20.3751,53.7502
13:16:31.920,19.7501,53.5002
13:16:31.930,19.1251,50.9377
13:16:31.933,18.5001,49.5002
13:16:31.944,17.5001,46.7502
13:16:31.954,17.7501,45.5627
13:16:31.964,15.9376,43.1252
13:16:31.973,15.7501,41.0627
13:16:31.983,14.4376,39.6252
13:16:31.993,14.4376,38.3751
13:16:32.003,12.5,36.3126
13:16:32.013,12.625,35.3751
13:16:32.025,12,34.3751
13:16:32.033,10.875,33.1876
13:16:32.043,10.625,31.1876
13:16:32.053,9.75,31.2501
13:16:32.063,10.125,28.8751
13:16:32.074,8.1875,28.1251
13:16:32.083,7.6875,24.9376
13:16:32.095,7.25,23.4376
13:16:32.103,6.4375,20.3126
13:16:32.113,4.75,18.1876
13:16:32.123,3.5625,15.4376
13:16:32.133,2.375,11.0625
13:16:32.144,1.75,8.875
13:16:32.154,-0.1875,5.8125
13:16:32.169,-1.5,3.3125
13:16:32.175,-2.1875,-0.5
13:16:32.183,-3.6875,-2.625
13:16:32.198,-4.5625,-5.25
13:16:32.217,-5.75,-8.9375
13:16:32.217,-6.875,-10.4375
13:16:32.224,-8.0625,-14.1251
13:16:32.233,-8.9375,-16.6251
13:16:32.243,-8.8125,-18.1876
13:16:32.253,-9.6875,-21.0001
13:16:32.263,-11.1875,-22.2501
13:16:32.273,-11.5625,-25.2501
13:16:32.283,-12.75,-27.3751
13:16:32.293,-13.7501,-29.5001
13:16:32.303,-14.1876,-31.5001
13:16:32.314,-14.8751,-32.3126
13:16:32.323,-15.4376,-33.8751
13:16:32.333,-15.3751,-36.6876
13:16:32.366,-16.0001,-37.6876
13:16:32.383,-17.3126,-39.9377
13:16:32.401,-17.4376,-41.7502
13:16:32.408,-18.6251,-44.2502
13:16:32.409,-18.9376,-45.8127
13:16:32.409,-20.3751,-46.8127
13:16:32.424,-20.5626,-50.0002
13:16:32.428,-21.1251,-51.3127
13:16:32.433,-22.5626,-53.1252
13:16:32.444,-22.5001,-54.8752
13:16:32.469,-22.8126,-56.1252
13:16:32.471,-22.4376,-56.2502
13:16:32.474,-22.5626,-55.2502
13:16:32.488,-19.8751,-51.0627
13:16:32.495,-17.6876,-44.5002
13:16:32.526,-14.3751,-36.5001
13:16:32.527,-11.25,-26.6876
13:16:32.529,-7.4375,-17.7501
13:16:32.533,-4.375,-7.6875
13:16:32.563,-0.125,1.875
13:16:32.566,3.375,10.8125
13:16:32.569,6.25,18.1876
13:16:32.574,11.9375,32.1251
13:16:32.597,14.2501,37.3126
13:16:32.600,15.9376,42.0002
13:16:32.603,17.6251,44.0002
13:16:32.632,18.0001,45.8127
13:16:32.634,18.5626,49.0627
13:16:32.635,19.5626,49.8127
13:16:32.644,20.8126,52.3752
13:16:32.653,20.2501,51.6877
13:16:32.664,20.3751,53.3127
13:16:32.673,20.5626,52.6252
13:16:32.684,19.5001,53.0002
13:16:32.694,19.8126,51.3752
13:16:32.703,18.4376,49.7502
13:16:32.713,17.5626,48.2502
13:16:32.723,18.5001,46.8127
13:16:32.734,17.9376,45.1252
13:16:32.743,17.1876,43.4377
13:16:32.753,16.6251,42.8127
13:16:32.763,16.2501,40.5002
13:16:32.774,15.6251,38.5626
13:16:32.783,15.5626,38.5626
13:16:32.793,14.4376,37.9376
13:16:32.804,13.8126,37.1251
13:16:32.815,14.0001,35.4376
13:16:32.824,13.125,33.6876
13:16:32.833,12.75,33.0626
13:16:32.844,11.625,31.0001
13:16:32.854,10.375,29.1876
13:16:32.863,9.1875,27.3126
13:16:32.874,8.5625,25.2501
13:16:32.884,7.375,22.2501
13:16:32.893,6.5,19.4376
13:16:32.903,5,16.6876
13:16:32.913,4,14.3751
13:16:32.923,2.625,11.5
13:16:32.933,1.5,9.375
13:16:32.944,0.875,6.25
13:16:32.953,-0.25,3.5
13:16:32.964,-1.5625,-0.0625
13:16:32.973,-2.5,-2.9375
13:16:32.983,-3.9375,-5.25
13:16:32.993,-4.625,-7.25
13:16:33.004,-5,-9.1875
13:16:33.013,-6.4375,-11
13:16:33.024,-7.6875,-13.6251
13:16:33.033,-8.1875,-16.4376
13:16:33.043,-9.3125,-17.6876
13:16:33.053,-9.375,-21.1876
13:16:33.063,-10.125,-21.9376
13:16:33.073,-10.75,-24.8126
13:16:33.083,-11.5,-25.8126
13:16:33.093,-12.3125,-27.9376
13:16:33.106,-13.125,-29.8126
13:16:33.113,-13.4376,-31.8751
13:16:33.123,-13.9376,-32.8751
13:16:33.133,-14.8126,-34.5626
13:16:33.150,-15.3751,-37.4376
13:16:33.154,-16.6251,-38.9376
13:16:33.163,-17.4376,-41.2502
13:16:33.173,-18.3126,-42.4377
13:16:33.183,-19.0626,-45.4377
13:16:33.193,-19.0001,-45.7502
13:16:33.205,-20.5626,-47.9377
13:16:33.214,-20.5001,-50.1252
13:16:33.223,-21.6876,-51.8127
13:16:33.233,-21.8126,-52.8752
13:16:33.243,-21.5001,-54.1877
13:16:33.253,-21.3126,-54.2502
13:16:33.276,-21.1876,-51.3752
13:16:33.279,-18.8751,-49.9377
13:16:33.286,-16.0001,-42.4377
13:16:33.318,-12.8125,-35.2501
13:16:33.319,-8.875,-26.0001
13:16:33.324,-6.4375,-16.4376
13:16:33.324,-2.9375,-7.6875
13:16:33.357,0.3125,2.875
13:16:33.361,3.875,11.4375
13:16:33.362,6.875,18.5001
13:16:33.370,9.375,25.3751
13:16:33.376,11.6875,30.2501
13:16:33.404,13.0625,34.8751
13:16:33.406,14.4376,39.9377
13:16:33.408,16.4376,41.7502
13:16:33.414,16.8751,44.0627
13:16:33.439,17.6876,46.6252
13:16:33.440,19.0001,47.5002
13:16:33.443,19.3751,49.1877
13:16:33.453,20.1876,50.3127
13:16:33.464,20.0001,51.4377
13:16:33.486,20.1251,50.8752
13:16:33.488,20.0001,49.6252
13:16:33.504,18.4376,50.1252
13:16:33.505,18.2501,46.5627
13:16:33.513,17.3751,44.3127
13:16:33.524,16.5001,42.5627
13:16:33.534,15.3751,42.8127
13:16:33.543,15.8751,39.5627
13:16:33.554,14.8751,38.5001
13:16:33.563,14.3751,38.3751
13:16:33.573,14.1876,36.3126
13:16:33.585,12.875,36.0001
13:16:33.593,12.6875,34.9376
13:16:33.603,12.25,32.5001
13:16:33.613,12.0625,32.9376
13:16:33.638,11.25,30.8751
13:16:33.640,11.3125,31.3126
13:16:33.648,11.1875,29.6876
13:16:33.653,9.75,28.8126
13:16:33.664,8.6875,26.9376
13:16:33.673,8.3125,24.1251
13:16:33.693,6.5625,22.8751
13:16:33.696,6.1875,20.6251
13:16:33.710,5.0625,16.9376
13:16:33.715,4.6875,15.2501
13:16:33.723,3.0625,12.3125
13:16:33.733,2.0625,10.125
13:16:33.743,1.5,8.125
13:16:33.753,0.5625,5.6875
13:16:33.763,-0.375,2.875
13:16:33.773,-1.5625,0.3125
13:16:33.785,-1.375,-1.3125
13:16:33.794,-2.75,-2.5
13:16:33.804,-4,-5.125
13:16:33.813,-4.375,-8.5625
13:16:33.824,-5.5,-10.25
13:16:33.834,-6.0625,-12.9375
13:16:33.844,-7.375,-13.7501
13:16:33.853,-8.5,-17.5626
13:16:33.864,-9.0625,-19.0001
13:16:33.874,-9.5,-21.5001
13:16:33.884,-10.3125,-23.0001
13:16:33.900,-11,-25.0001
13:16:33.905,-10.4375,-25.8751
13:16:33.913,-12.375,-27.0626
13:16:33.924,-11.875,-29.1876
13:16:33.933,-13.2501,-30.5001
13:16:33.943,-13.4376,-32.8751
13:16:33.981,-14.5626,-34.2501
13:16:33.981,-14.8126,-36.6876
13:16:33.985,-15.5001,-37.8126
13:16:33.990,-16.1876,-38.5626
13:16:34.018,-16.8126,-41.1877
13:16:34.019,-16.4376,-42.8752
13:16:34.022,-18.3126,-44.3127
13:16:34.030,-18.5626,-46.7502
13:16:34.063,-18.5626,-46.4377
13:16:34.064,-17.9376,-46.6252
13:16:34.067,-16.0626,-43.3127
13:16:34.069,-14.8751,-36.5001
13:16:34.104,-12.1875,-31.3126
13:16:34.104,-8.25,-22.1251
13:16:34.107,-4.9375,-11.8125
13:16:34.134,-1.4375,-3.25
13:16:34.134,2.3125,5.8125
13:16:34.138,4.75,14.3751
13:16:34.142,10.1875,27.0626
13:16:34.149,12.6875,33.4376
13:16:34.159,15.0626,39.0627
13:16:34.169,16.7501,42.5627
13:16:34.178,18.2501,45.5627
13:16:34.188,20.0626,49.6252
13:16:34.198,20.7501,51.5002
13:16:34.208,21.1251,53.1252
13:16:34.218,21.3126,54.8752
13:16:34.228,22.6876,55.1877
13:16:34.238,21.9376,55.5002
13:16:34.249,22.0001,56.3127
13:16:34.259,21.1876,53.8752
13:16:34.270,20.1251,52.6877
13:16:34.282,20.1251,51.0627
13:16:34.288,19.2501,48.5002
13:16:34.298,17.4376,46.6877
13:16:34.308,16.5001,45.6877
13:16:34.318,17.1876,44.3752
13:16:34.328,15.6251,43.6252
13:16:34.339,15.7501,42.3127
13:16:34.348,15.5001,42.3752
13:16:34.358,15.3751,41.0627
13:16:34.368,15.2501,40.4377
13:16:34.378,15.3751,39.8752
13:16:34.388,14.1876,39.1251
13:16:34.398,13.8126,37.6251
13:16:34.408,13.1876,37.1251
13:16:34.418,12.3125,34.4376
13:16:34.428,11.625,33.4376
13:16:34.438,11,31.9376
13:16:34.450,10.1875,29.3751
13:16:34.458,8.75,28.6251
13:16:34.468,7.875,24.5001
13:16:34.478,7.25,23.8126
13:16:34.488,6.0625,19.6251
13:16:34.498,5.0625,18.5626
13:16:34.508,4,14.0001
13:16:34.519,2.625,12.0625
13:16:34.528,1.125,9.5625
13:16:34.538,1.0625,7.125
13:16:34.548,0.125,4.875
13:16:34.558,-0.5625,2.75
13:16:34.569,-1.3125,-0.0625
13:16:34.578,-2.9375,-2.1875
13:16:34.588,-3.125,-4.25
13:16:34.599,-5.125,-7.125
13:16:34.608,-5.6875,-8.5625
13:16:34.618,-6.75,-11.125
13:16:34.656,-6.25,-12.4375
13:16:34.657,-7.6875,-14.2501
13:16:34.660,-7.3125,-16.2501
13:16:34.683,-9.125,-17.5001
13:16:34.684,-9.9375,-20.1251
13:16:34.687,-10.0625,-21.9376
13:16:34.691,-11.625,-23.0626
13:16:34.698,-11.4375,-26.0626
13:16:34.727,-13,-27.5001
13:16:34.728,-13.1876,-30.2501
13:16:34.733,-15.3126,-30.8751
13:16:34.740,-15.9376,-33.6251
13:16:34.768,-16.4376,-36.2501
13:16:34.801,-17.1251,-38.0001
13:16:34.804,-18.4376,-38.7501
13:16:34.806,-18.1876,-42.1252
13:16:34.813,-18.7501,-42.3127
13:16:34.813,-18.3751,-43.0002
13:16:34.813,-16.6876,-41.6877
13:16:34.819,-15.9376,-38.6251
13:16:34.833,-14.0001,-33.7501
13:16:34.840,-10.75,-25.8751
13:16:34.848,-7.75,-18.9376
13:16:34.858,-3.625,-9
13:16:34.868,-1.3125,1.5625
13:16:34.880,2.5,8.875
13:16:34.888,4.8125,17.0001
13:16:34.918,7.75,24.1876
13:16:34.920,10.9375,30.1876
13:16:34.922,12.125,35.6876
13:16:34.930,14.2501,39.4377
13:16:34.938,15.3126,43.6877
13:16:34.948,16.1876,45.8127
13:16:34.960,17.5626,47.6252
13:16:34.969,17.6251,49.1252
13:16:34.990,18.6876,51.5627
13:16:34.992,18.5001,52.6252
13:16:35.006,19.5626,53.3127
13:16:35.011,18.6876,53.9377
13:16:35.018,19.0626,53.0627
13:16:35.028,18.5626,51.5627
13:16:35.038,17.5001,51.1877
13:16:35.049,17.1251,48.9377
13:16:35.060,16.3126,46.5002
13:16:35.068,15.9376,45.5002
13:16:35.078,14.9376,44.6877
13:16:35.089,14.9376,42.2502
13:16:35.098,14.1876,40.4377
13:16:35.109,14.0626,39.1877
13:16:35.120,12.125,38.0001
13:16:35.129,13.2501,37.3126
13:16:35.139,11.6875,36.4376
13:16:35.149,10.75,35.4376
13:16:35.158,10.875,33.2501
13:16:35.168,9.625,32.5001
13:16:35.179,9.3125,32.1251
13:16:35.188,8.75,30.3126
13:16:35.198,8.25,30.1251
13:16:35.210,7.75,26.8126
13:16:35.221,6.1875,25.5626
13:16:35.228,5.8125,23.1876
13:16:35.239,4.25,20.8751
13:16:35.248,3,19.0001
13:16:35.260,3.0625,15.6876
13:16:35.268,1.1875,13.3126
13:16:35.279,0.75,10.125
13:16:35.289,-0.5625,8.3125
13:16:35.298,-1.8125,5
13:16:35.309,-2.6875,2.6875
13:16:35.319,-3.6875,0.625
13:16:35.330,-4.75,-3
13:16:35.339,-5.9375,-5.25
13:16:35.348,-6,-7.25
13:16:35.361,-6.875,-9.125
13:16:35.390,-7.8125,-11.625
13:16:35.392,-8.5,-13.0625
13:16:35.394,-8.5,-15.3751
13:16:35.400,-9.4375,-16.4376
13:16:35.436,-9.8125,-19.1876
13:16:35.437,-11.1875,-20.0001
13:16:35.440,-11.9375,-21.9376
13:16:35.442,-12.0625,-24.7501
13:16:35.469,-14.1251,-25.8126
13:16:35.472,-13.9376,-29.1251
13:16:35.474,-14.5001,-29.1251
13:16:35.500,-15.1251,-31.9376
13:16:35.500,-16.7501,-33.8126
13:16:35.503,-17.5001,-36.6251
13:16:35.511,-17.4376,-38.1876
13:16:35.536,-18.6251,-39.3127
13:16:35.537,-18.6251,-40.5627
13:16:35.539,-17.9376,-40.8127
13:16:35.550,-17.8126,-41.4377
13:16:35.562,-16.3751,-38.2501
13:16:35.568,-15.5001,-32.8751
13:16:35.583,-11.625,-27.0626
13:16:35.591,-9.375,-17.8126
13:16:35.598,-5.25,-10.25
13:16:35.612,-1.5,-0.875
13:16:35.618,1.0625,8.25
13:16:35.628,5.625,16.7501
13:16:35.639,8.125,24.3126
13:16:35.649,10.4375,29.8751
13:16:35.659,12.4375,36.1251
13:16:35.669,13.8751,38.8751
13:16:35.679,15.3751,42.0627
13:16:35.689,16.1876,45.4377
13:16:35.700,17.0001,46.6877
13:16:35.709,16.7501,48.8127
13:16:35.721,17.1876,48.2502
13:16:35.730,17.5626,49.5002
13:16:35.738,18.1251,50.2502
13:16:35.750,18.1251,49.5627
13:16:35.758,16.7501,47.8752
13:16:35.768,16.2501,47.0627
13:16:35.779,15.5001,45.3127
13:16:35.788,14.2501,41.5002
13:16:35.799,13.0625,39.2501
13:16:35.809,11.9375,38.2501
13:16:35.820,12.375,36.1876
13:16:35.829,11.25,34.3751
13:16:35.840,10.5625,35.3751
13:16:35.850,10.9375,34.0626
13:16:35.858,10.625,32.9376
13:16:35.870,9.6875,32.3126
13:16:35.878,10.375,32.8751
13:16:35.889,9.5625,30.5001
13:16:35.898,8.625,30.8126
13:16:35.909,8.25,27.6876
13:16:35.920,7.6875,26.7501
13:16:35.929,6.875,25.3126
13:16:35.939,5.6875,23.3751
13:16:35.949,5.4375,21.6251
13:16:35.958,4.125,19.1876
13:16:35.971,2.9375,17.8751
13:16:35.980,2.5625,14.6876
13:16:35.989,0.4375,12.5
13:16:36.000,0.25,9.6875
13:16:36.009,-1.5,6.625
13:16:36.018,-2.4375,4.0625
13:16:36.030,-3.5,1.5625
13:16:36.039,-4,-0.8125
13:16:36.049,-5,-3.75
13:16:36.060,-5.75,-6.0625
13:16:36.077,-6.3125,-7.875
13:16:36.082,-7.75,-9.9375
13:16:36.097,-7.5625,-12.0625
13:16:36.100,-8.6875,-13.5001
13:16:36.109,-8.3125,-15.3126
13:16:36.119,-10.0625,-17.3751
13:16:36.130,-10.1875,-18.7501
13:16:36.138,-11.0625,-21.1251
13:16:36.156,-12.4375,-22.9376
13:16:36.158,-13.4376,-25.3751
13:16:36.201,-14.2501,-28.3126
13:16:36.203,-14.6876,-28.8126
13:16:36.205,-15.7501,-32.1251
13:16:36.208,-16.6251,-32.6876
13:16:36.213,-17.3751,-35.9376
13:16:36.227,-17.0626,-36.8751
13:16:36.229,-18.3126,-36.8126
13:16:36.262,-17.7501,-40.0627
13:16:36.264,-18.4376,-39.4377
13:16:36.267,-18.6251,-41.6252
13:16:36.273,-17.0001,-39.1251
13:16:36.305,-16.1876,-36.1251
13:16:36.307,-14.0001,-30.8126
13:16:36.313,-10.5625,-21.8751
13:16:36.313,-6.9375,-14.7501
13:16:36.329,-3.75,-4.25
13:16:36.331,0,5.75
13:16:36.346,3.8125,12.9375
13:16:36.349,6.625,21.4376
13:16:36.359,9.5,27.8751
13:16:36.369,11.25,33.7501
13:16:36.380,13.3126,37.5001
13:16:36.391,15.2501,41.4377
13:16:36.399,15.2501,44.5627
13:16:36.410,16.4376,46.3127
13:16:36.420,16.6876,48.0002
13:16:36.429,18.2501,49.8127
13:16:36.439,18.0001,51.5002
13:16:36.449,18.1876,51.4377
13:16:36.461,17.9376,51.6252
13:16:36.469,17.0626,51.8752
13:16:36.480,16.6876,49.5627
13:16:36.489,16.0626,48.3752
13:16:36.499,15.3126,45.8127
13:16:36.509,14.0001,44.0002
13:16:36.519,14.0001,42.3127
13:16:36.529,12.875,40.8752
13:16:36.539,12.625,39.8127
13:16:36.549,11.5625,38.1876
13:16:36.559,12.125,37.0001
13:16:36.569,12,35.8126
13:16:36.579,11.625,35.1876
13:16:36.589,10.8125,35.0626
13:16:36.599,10.375,34.8751
13:16:36.609,10.0625,33.0001
13:16:36.619,9.5,31.1251
13:16:36.630,8.625,31.0001
13:16:36.640,8.5625,28.9376
13:16:36.649,7.6875,27.1876
13:16:36.660,6.4375,25.1876
13:16:36.671,5.9375,24.0626
13:16:36.681,4.8125,20.9376
13:16:36.690,3.25,18.6251
13:16:36.699,3.4375,16.4376
13:16:36.709,1.4375,12.8125
13:16:36.720,-0.4375,11.5625
13:16:36.730,-0.5625,8.25
13:16:36.740,-1.6875,5.1875
13:16:36.749,-2.75,2.5625
13:16:36.759,-3.8125,1
13:16:36.770,-5.125,-2.5625
13:16:36.779,-5.9375,-5.125
13:16:36.790,-6.5625,-7.25
13:16:36.799,-7.3125,-9.25
13:16:36.809,-8.25,-12.3125
13:16:36.820,-9.4375,-13.6876
13:16:36.830,-9.625,-15.0001
13:16:36.839,-10.3125,-18.1876
13:16:36.856,-11.4375,-18.8751
13:16:36.859,-12,-21.6251
13:16:36.888,-13.1876,-23.4376
13:16:36.892,-14.1876,-25.8751
13:16:36.896,-15.0626,-28.0001
13:16:36.928,-14.8126,-29.3751
13:16:36.931,-16.5001,-32.0626
13:16:36.933,-17.1876,-32.9376
13:16:36.935,-17.0626,-35.0001
13:16:36.967,-17.6251,-36.5001
13:16:36.967,-18.1251,-37.8126
13:16:36.969,-17.8751,-37.8751
13:16:36.976,-17.6251,-37.3126
13:16:37.009,-15.6876,-34.4376
13:16:37.009,-13.5626,-29.3751
13:16:37.009,-10.9375,-22.8126
13:16:37.037,-7.9375,-14.0626
13:16:37.037,-3.875,-3.5625
13:16:37.037,2.4375,10.5625
13:16:37.044,6.0625,20.9376
13:16:37.054,10.0625,28.6251
13:16:37.065,12.6875,36.9376
13:16:37.074,15.9376,44.0002
13:16:37.086,17.9376,49.0627
13:16:37.096,19.8751,53.4377
13:16:37.104,20.8751,57.0002
13:16:37.114,21.8751,58.6877
13:16:37.124,23.0001,62.1877
13:16:37.134,23.7501,62.9377
13:16:37.145,23.5001,65.0627
13:16:37.154,24.2501,66.0003
13:16:37.164,24.5001,66.6253
13:16:37.175,23.8751,67.3753
13:16:37.184,24.3751,66.3128
13:16:37.194,23.2501,65.3127
13:16:37.204,22.3751,62.3752
13:16:37.214,20.7501,60.8752
13:16:37.224,20.0626,58.1877
13:16:37.235,18.3751,56.3127
13:16:37.245,18.3751,54.0002
13:16:37.254,17.5001,52.0002
13:16:37.266,16.7501,51.0627
13:16:37.274,16.8126,49.6252
13:16:37.284,16.0001,49.0002
13:16:37.295,16.1876,48.0002
13:16:37.305,15.3751,46.3752
13:16:37.314,14.2501,45.3127
13:16:37.324,13.4376,43.0002
13:16:37.334,12.75,42.0627
13:16:37.346,11.9375,39.7502
13:16:37.356,11.0625,37.6876
13:16:37.376,9.1875,35.1876
13:16:37.383,8.625,32.0001
13:16:37.385,7.5,31.1251
13:16:37.400,6.5,28.1876
13:16:37.406,5,24.5626
13:16:37.416,3.75,21.7501
13:16:37.424,2.25,19.6251
13:16:37.434,1.875,17.6251
13:16:37.445,1.5625,14.3751
13:16:37.478,-0.5,10.25
13:16:37.480,-1.9375,7.0625
13:16:37.484,-3.125,5.6875
13:16:37.485,-3.9375,2.25
13:16:37.498,-5.375,-1.0625
13:16:37.504,-6.6875,-4.375
13:16:37.515,-7.8125,-5.875
13:16:37.526,-8.3125,-8
13:16:37.536,-9.0625,-10.9375
13:16:37.545,-9.875,-13.3751
13:16:37.554,-10.1875,-15.6876
13:16:37.564,-11.5625,-15.6251
13:16:37.582,-12.25,-18.7501
13:16:37.584,-12.3125,-20.4376
13:16:37.599,-13.3126,-23.5626
13:16:37.604,-14.7501,-26.3751
13:16:37.614,-15.5626,-26.7501
13:16:37.626,-16.1876,-30.0626
13:16:37.635,-17.2501,-31.8126
13:16:37.660,-18.1876,-32.6876
13:16:37.662,-18.2501,-36.6251
13:16:37.667,-19.9376,-36.9376
13:16:37.691,-20.2501,-40.3127
13:16:37.694,-20.8751,-41.1252
13:16:37.697,-20.6876,-41.5002
13:16:37.728,-20.0001,-41.0002
13:16:37.730,-18.3126,-37.0001
13:16:37.733,-16.0001,-31.6251
13:16:37.735,-12.5,-24.2501
13:16:37.763,-8.5,-13.3751
13:16:37.765,-4.375,-4.5
13:16:37.768,0.4375,7.9375
13:16:37.774,3.5625,18.5001
13:16:37.806,8.3125,26.8126
13:16:37.808,12.375,35.4376
13:16:37.811,14.5001,43.0002
13:16:37.828,17.6251,50.0002
13:16:37.829,19.6251,55.9377
13:16:37.834,21.7501,59.9377
13:16:37.844,22.9376,64.8127
13:16:37.855,24.4376,66.8128
13:16:37.864,25.8126,70.6253
13:16:37.874,26.0626,74.4378
13:16:37.885,27.6251,75.0003
13:16:37.896,27.5001,77.9378
13:16:37.904,28.1876,77.3753
13:16:37.914,28.6251,79.0003
13:16:37.924,27.5626,78.1253
13:16:37.935,27.1251,76.8128
13:16:37.945,25.6876,73.9378
13:16:37.954,24.2501,72.4378
13:16:37.966,23.5626,68.7503
13:16:37.974,22.3126,67.1253
13:16:37.992,21.5626,64.5002
13:16:37.999,20.3751,61.1877
13:16:38.009,19.1876,59.2502
13:16:38.019,18.0001,56.7502
13:16:38.031,18.0001,55.3127
13:16:38.039,17.4376,54.4377
13:16:38.049,16.5001,52.5627
13:16:38.060,15.5001,51.6252
13:16:38.069,15.3751,49.8752
13:16:38.079,14.3751,48.8127
13:16:38.089,13.9376,45.7502
13:16:38.099,12.25,43.6877
13:16:38.109,11.1875,40.8752
13:16:38.119,9.5,38.4376
13:16:38.130,8,34.8126
13:16:38.139,6.875,31.5626
13:16:38.149,4.25,27.1251
13:16:38.160,2.5625,23.1251
13:16:38.170,1.4375,19.3751
13:16:38.180,0,15.8751
13:16:38.189,-1.625,14.0626
13:16:38.200,-2.4375,9.9375
13:16:38.209,-3.8125,6.0625
13:16:38.220,-5.375,3.875
13:16:38.230,-6.6875,2.125
13:16:38.240,-6.4375,-1.75
13:16:38.249,-8.375,-5.125
13:16:38.259,-9.8125,-8
13:16:38.270,-11.1875,-9.625
13:16:38.280,-11.125,-12.5
13:16:38.290,-11.9375,-15.5626
13:16:38.300,-13.4376,-17.6876
13:16:38.311,-13.5626,-19.8751
13:16:38.341,-14.7501,-22.0001
13:16:38.343,-15.8126,-22.6876
13:16:38.346,-15.6876,-26.3751
13:16:38.353,-17.5626,-28.5626
13:16:38.377,-18.0626,-29.5001
13:16:38.379,-18.6876,-33.0626
13:16:38.381,-19.1251,-33.7501
13:16:38.408,-20.0001,-36.6876
13:16:38.411,-20.3126,-38.2501
13:16:38.413,-21.3126,-40.7502
13:16:38.421,-23.1251,-42.6252
13:16:38.450,-22.8126,-44.5627
13:16:38.451,-24.1876,-48.1877
13:16:38.453,-25.8751,-49.1877
13:16:38.483,-26.5626,-52.6877
13:16:38.484,-26.5001,-54.0627
13:16:38.487,-26.5001,-52.7502
13:16:38.494,-24.7501,-51.5627
13:16:38.499,-23.3126,-44.8127
13:16:38.509,-20.1876,-39.3127
13:16:38.519,-15.6251,-29.5001
13:16:38.529,-11.5,-18.9376
13:16:38.539,-6.4375,-7.9375
13:16:38.549,-1.8125,3.75
13:16:38.559,1.75,13
13:16:38.570,6.0625,23.6251
13:16:38.579,9.4375,33.0626
13:16:38.592,12.5,38.9376
13:16:38.600,14.7501,46.0002
13:16:38.609,17.0001,49.8127
13:16:38.625,18.9376,55.5627
13:16:38.629,20.0626,58.6877
13:16:38.641,22.0626,61.8752
13:16:38.651,22.5626,64.5627
13:16:38.659,23.6251,66.6878
13:16:38.678,24.0626,69.5003
13:16:38.684,24.6251,69.3128
13:16:38.699,25.4376,70.6253
13:16:38.702,24.5001,71.5003
13:16:38.710,24.0001,68.5003
13:16:38.719,22.6251,67.3753
13:16:38.729,21.6876,64.6877
13:16:38.757,20.8126,62.3752
13:16:38.760,19.5001,59.8127
13:16:38.763,17.6876,56.7502
13:16:38.770,17.7501,54.3127
13:16:38.780,15.8751,53.3127
13:16:38.789,15.8126,50.3127
13:16:38.804,15.0626,48.2502
13:16:38.815,13.6251,48.0002
13:16:38.826,13.2501,45.2502
13:16:38.835,13,45.3127
13:16:38.844,12.75,42.6252
13:16:38.855,11.375,40.6877
13:16:38.865,11.0625,39.0001
13:16:38.880,8.625,36.0626
13:16:38.894,8.625,34.0001
13:16:38.897,7.1875,32.3751
13:16:38.904,5.75,29.0626
13:16:38.914,4.1875,25.5001
13:16:38.924,2.875,22.1876
13:16:38.934,1.625,18.9376
13:16:38.944,0.125,15.5001
13:16:38.955,-1.0625,12.6875
13:16:38.965,-3.0625,8.1875
13:16:38.976,-4.75,3.8125
13:16:38.984,-5.625,2.125
13:16:39.000,-6.5,-1.625
13:16:39.007,-8.25,-5.5
13:16:39.016,-10.1875,-8.0625
13:16:39.049,-10.5625,-10.25
13:16:39.050,-11.375,-13.4376
13:16:39.055,-12.3125,-16.9376
13:16:39.056,-13.9376,-20.0001
13:16:39.088,-15.6251,-21.5626
13:16:39.089,-15.7501,-24.2501
13:16:39.093,-17.0001,-27.2501
13:16:39.097,-18.5001,-28.1251
13:16:39.126,-19.6251,-32.1876
13:16:39.129,-20.1876,-34.3751
13:16:39.131,-20.3751,-35.6251
13:16:39.157,-21.0001,-38.0001
13:16:39.158,-22.3751,-40.4377
13:16:39.161,-23.4376,-41.0627
13:16:39.167,-23.8126,-43.6877
13:16:39.193,-24.6876,-43.7502
13:16:39.195,-24.1876,-46.5002
13:16:39.198,-25.6876,-47.7502
13:16:39.208,-26.3126,-50.2502
13:16:39.217,-27.4376,-53.7502
13:16:39.224,-28.3751,-55.7502
13:16:39.234,-28.6876,-57.3752
13:16:39.245,-29.5626,-59.8127
13:16:39.255,-30.3751,-62.1877
13:16:39.265,-30.7501,-63.6252
13:16:39.274,-31.3126,-65.1877
13:16:39.284,-30.7501,-66.1878
13:16:39.294,-31.6876,-65.6253
13:16:39.306,-29.5001,-64.3127
13:16:39.314,-27.3751,-58.1877
13:16:39.324,-23.8751,-51.6252
13:16:39.336,-19.5626,-40.8127
13:16:39.344,-15.5626,-31.3126
13:16:39.355,-10.4375,-18.9376
13:16:39.364,-6.375,-8.5
13:16:39.380,-2,1.1875
13:16:39.384,1.6875,11.75
13:16:39.394,5.3125,19.5001
13:16:39.404,9.3125,27.0001
13:16:39.414,11.3125,33.3751
13:16:39.425,13.6251,38.5626
13:16:39.435,15.6251,43.2502
13:16:39.445,16.0626,45.7502
13:16:39.455,18.6251,48.6252
13:16:39.464,17.8126,51.7502
13:16:39.474,19.0626,52.1252
13:16:39.484,20.3126,54.3752
13:16:39.495,19.6876,55.0002
13:16:39.505,19.8126,54.9377
13:16:39.515,19.7501,55.1252
13:16:39.524,18.7501,52.8752
13:16:39.535,18.3751,52.4377
13:16:39.544,17.0626,49.2502
13:16:39.555,16.0001,46.8752
13:16:39.564,14.4376,44.1877
13:16:39.576,13.5001,42.4377
13:16:39.584,13.6876,40.3127
13:16:39.596,12,39.3127
13:16:39.605,11,37.5626
13:16:39.614,10.5625,36.2501
13:16:39.624,10.1875,34.8751
13:16:39.635,9.8125,34.1876
13:16:39.644,9.9375,33.0626
13:16:39.656,9.0625,30.9376
13:16:39.666,8.3125,30.0001
13:16:39.674,7.6875,28.7501
13:16:39.685,6.5625,26.0626
13:16:39.695,6.3125,24.5626
13:16:39.706,4.375,21.2501
13:16:39.716,3.3125,18.6251
13:16:39.725,2.375,15.5626
13:16:39.751,1.25,13.125
13:16:39.753,0.375,10.125
13:16:39.756,-1.375,6.6875
13:16:39.786,-2.625,4
13:16:39.788,-4.8125,0.125
13:16:39.790,-6.0625,-1.3125
13:16:39.796,-6.3125,-4.9375
13:16:39.824,-8.8125,-9.375
13:16:39.826,-10.1875,-11.4375
13:16:39.828,-11.1875,-13.8126
13:16:39.836,-11.0625,-17.0626
13:16:39.868,-13.1876,-20.0626
13:16:39.869,-14.3126,-22.1876
13:16:39.872,-14.9376,-25.3751
13:16:39.876,-16.2501,-27.1876
13:16:39.908,-16.7501,-29.3126
13:16:39.909,-18.2501,-33.1251
13:16:39.912,-19.6876,-35.4376
13:16:39.918,-20.6876,-37.0626
13:16:39.929,-20.9376,-40.3752
13:16:39.937,-22.0001,-40.7502
13:16:39.946,-22.1251,-42.7502
13:16:39.955,-22.8126,-45.3752
13:16:39.965,-23.6251,-46.2502
13:16:39.980,-23.6876,-47.9377
13:16:39.990,-24.4376,-49.6877
13:16:39.996,-24.4376,-51.0002
13:16:40.012,-25.8126,-52.7502
13:16:40.042,-25.5626,-53.6877
13:16:40.045,-26.5001,-56.6877
13:16:40.047,-27.0001,-58.3752
13:16:40.049,-28.1251,-60.5627
13:16:40.057,-29.3126,-61.8127
13:16:40.065,-30.6876,-64.5627
13:16:40.076,-31.3751,-67.1253
13:16:40.084,-31.6876,-69.8128
13:16:40.095,-32.0626,-71.2503
13:16:40.106,-32.5626,-72.6878
13:16:40.114,-32.3126,-71.8753
13:16:40.126,-31.8126,-70.1878
13:16:40.134,-28.4376,-66.0628
13:16:40.145,-26.8751,-58.6252
13:16:40.155,-22.7501,-51.7502
13:16:40.174,-19.5626,-40.6877
13:16:40.177,-14.0001,-30.8751
13:16:40.192,-10.6875,-19.8751
13:16:40.207,-5.625,-10.0625
13:16:40.209,-2.6875,0.0625
13:16:40.218,1.4375,7.875
13:16:40.225,4.75,16.5626
13:16:40.236,6.9375,21.9376
13:16:40.244,9.5,27.0001
13:16:40.257,11.3125,32.0626
13:16:40.266,12.375,33.4376
13:16:40.275,14.3751,37.4376
13:16:40.286,14.9376,38.9376
13:16:40.294,15.6251,40.6252
13:16:40.304,15.3751,41.6877
13:16:40.315,15.5001,42.1877
13:16:40.326,15.4376,41.8127
13:16:40.336,15.8126,42.3127
13:16:40.345,14.4376,40.3752
13:16:40.357,14.0001,38.6251
13:16:40.365,12.3125,35.9376
13:16:40.376,11.25,34.3126
13:16:40.386,10.3125,31.3751
13:16:40.396,9.25,29.2501
13:16:40.405,9.1875,28.1251
13:16:40.416,9.0625,26.7501
13:16:40.426,8,27.1251
13:16:40.435,7.6875,25.2501
13:16:40.445,7.125,23.8126
13:16:40.456,6.9375,22.8751
13:16:40.466,6.625,22.1251
13:16:40.476,6.6875,21.3126
13:16:40.486,5.5,20.0626
13:16:40.494,5,18.6876
13:16:40.505,4,16.1251
13:16:40.516,2.8125,13.4376
13:16:40.526,1.75,11.625
13:16:40.535,0.625,9.875
13:16:40.547,0,6.75
13:16:40.580,-1.375,3.8125
13:16:40.582,-2.5625,0.9375
13:16:40.584,-4.75,-0.5
13:16:40.587,-5.0625,-3.9375
13:16:40.617,-6.1875,-7.9375
13:16:40.618,-8.0625,-10.875
13:16:40.622,-9.375,-11.75
13:16:40.628,-10,-15.5001
13:16:40.651,-10.75,-18.8126
13:16:40.653,-11.6875,-20.6251
13:16:40.656,-13.0625,-24.1251
13:16:40.681,-14.3126,-26.7501
13:16:40.683,-15.3751,-29.8126
13:16:40.687,-16.6251,-31.5626
13:16:40.714,-16.6251,-32.9376
13:16:40.717,-17.6876,-36.8751
13:16:40.719,-19.3751,-39.2502
13:16:40.726,-19.5626,-40.0627
13:16:40.736,-20.3751,-43.0002
13:16:40.747,-20.8751,-44.4377
13:16:40.755,-22.1251,-47.1252
13:16:40.765,-22.4376,-48.1877
13:16:40.776,-22.7501,-50.1252
13:16:40.786,-24.0001,-51.7502
13:16:40.795,-24.2501,-53.0002
13:16:40.805,-25.5001,-54.9377
13:16:40.817,-26.4376,-55.6877
13:16:40.825,-26.1251,-58.7502
13:16:40.836,-27.1251,-59.8127
13:16:40.845,-28.1251,-61.6877
13:16:40.855,-29.0626,-63.0002
13:16:40.865,-29.4376,-65.3752
13:16:40.876,-30.1251,-68.1878
13:16:40.885,-30.5626,-68.3128
13:16:40.896,-31.1251,-71.0003
13:16:40.906,-30.9376,-72.0003
13:16:40.916,-31.1876,-73.2503
13:16:40.926,-31.0001,-71.5628
13:16:40.936,-28.0626,-68.8128
13:16:40.945,-26.1251,-62.3127
13:16:40.956,-22.8126,-55.0002
13:16:40.965,-19.9376,-45.1252
13:16:40.976,-15.0001,-36.0001
13:16:40.986,-10.75,-24.0001
13:16:40.996,-6.6875,-15.6876
13:16:41.006,-1.9375,-6.1875
13:16:41.016,-0.5,1.125
13:16:41.026,3.3125,8.0625
13:16:41.036,5.1875,12.8125
13:16:41.046,7.125,16.6251
13:16:41.056,7.6875,19.9376
13:16:41.067,9.125,21.3751
13:16:41.075,9.6875,23.9376
13:16:41.085,10.375,24.6876
13:16:41.095,10.5,25.6251
13:16:41.106,9.75,26.9376
13:16:41.120,9.5625,25.1876
13:16:41.126,10.5625,25.3126
13:16:41.138,9.4375,25.2501
13:16:41.145,10.0625,23.5626
13:16:41.156,8.5625,23.1251
13:16:41.166,7.375,19.3751
13:16:41.176,7.8125,18.8126
13:16:41.186,6.375,15.4376
13:16:41.195,4.8125,14.1251
13:16:41.205,4.8125,12.8125
13:16:41.216,4.8125,11.5
13:16:41.226,3.875,11.375
13:16:41.235,3.8125,10.1875
13:16:41.246,3.125,9.25
13:16:41.256,3.5625,9.0625
13:16:41.266,2.875,8.125
13:16:41.276,2.75,7.5
13:16:41.308,3.4375,7.25
13:16:41.310,1.4375,5.875
13:16:41.434,1.5625,4.125
13:16:41.434,0.625,3.5625
13:16:41.443,-0.625,1.1875
13:16:41.444,-1,-0.5
13:16:41.444,-2.4375,-3.875
13:16:41.450,-3.0625,-6.75
13:16:41.467,-3.875,-8.3125
13:16:41.472,-5,-10.125
13:16:41.498,-5.75,-12.8125
13:16:41.500,-6.75,-15.8126
13:16:41.516,-8.375,-18.2501
13:16:41.519,-9.8125,-20.6876
13:16:41.533,-10.25,-23.3751
13:16:41.541,-11.125,-24.7501
13:16:41.542,-12.0625,-27.6876
13:16:41.550,-12.8125,-30.0626
13:16:41.561,-13.6876,-31.9376
13:16:41.571,-14.9376,-35.3126
13:16:41.581,-15.8751,-36.9376
13:16:41.591,-16.7501,-39.6877
13:16:41.601,-17.6251,-41.5627
13:16:41.610,-27.2501,-67.0003
13:16:41.621,-28.3126,-67.8753
13:16:41.632,-28.5001,-69.6878
13:16:41.641,-28.0001,-71.3753
13:16:41.650,-29.1251,-70.5628
13:16:41.661,-29.0001,-72.7503
13:16:41.670,-28.7501,-72.4378
13:16:41.682,-27.4376,-69.9378
13:16:41.690,-25.4376,-65.8128
13:16:41.701,-23.1251,-59.6877
13:16:41.710,-19.8751,-50.1877
13:16:41.721,-15.6251,-41.8127
13:16:41.733,-12.125,-31.0001
13:16:41.740,-8.1875,-21.5626
13:16:41.750,-4.375,-13.7501
13:16:41.760,-0.625,-4
13:16:41.770,2.25,1.8125
13:16:41.781,4.4375,8.5
13:16:41.791,6.5625,12.0625
13:16:41.801,8.1875,16.1251
13:16:41.810,9.5,20.0001
13:16:41.821,10.125,20.6251
13:16:41.832,11.1875,23.5626
13:16:41.842,12.0625,23.5626
13:16:41.850,12.5,25.2501
13:16:41.861,12.25,26.8126
13:16:41.870,12.5625,25.2501
13:16:41.881,13,25.3751
13:16:41.890,11.75,24.0626
13:16:41.901,11.0625,22.1251
13:16:41.910,10.3125,21.1876
13:16:41.921,9.125,17.6251
13:16:41.931,8.25,16.6251
13:16:41.941,7.625,14.6251
13:16:41.951,7.25,13.2501
13:16:41.961,7.125,12.5
13:16:41.971,6.5625,12.5
13:16:41.980,6.1875,11.625
13:16:41.991,5.4375,10.5
13:16:42.001,5.8125,10.375
13:16:42.011,6.0625,9.9375
13:16:42.021,5.9375,10.5
13:16:42.049,3.75,9.125
13:16:42.051,-2.4375,1.875
13:16:42.053,-7.75,-4.1875
13:16:42.061,-15.3751,-12.4375
13:16:42.094,-19.8126,-20.5626
13:16:42.099,-24.2501,-24.8126
13:16:42.099,-28.8751,-30.8126
13:16:42.131,-33.5001,-36.0001
13:16:42.135,-37.8126,-40.1877
13:16:42.136,-39.0001,-43.3127
13:16:42.140,-39.6252,-47.1252
13:16:42.172,-40.8752,-47.5627
13:16:42.174,-43.5627,-50.4377
13:16:42.179,-46.3127,-55.3752
13:16:42.204,-49.6877,-59.6877
13:16:42.204,-50.5002,-61.9377
13:16:42.207,-53.0627,-65.6877
13:16:42.213,-54.6252,-66.8753
13:16:42.217,-54.5002,-70.0628
13:16:42.225,-55.3752,-70.5628
13:16:42.236,-54.9377,-72.3753
13:16:42.246,-53.6877,-73.8753
13:16:42.257,-54.0002,-75.3753
13:16:42.266,-52.6877,-74.6878
13:16:42.275,-51.0627,-74.3753
13:16:42.286,-49.9377,-74.3128
13:16:42.295,-50.1877,-73.5003
13:16:42.306,-48.6252,-75.1253
13:16:42.315,-48.8752,-74.5003
13:16:42.325,-48.5002,-76.0628
13:16:42.335,-48.8752,-77.5628
13:16:42.345,-49.1877,-78.3128
13:16:42.356,-49.6252,-81.2503
13:16:42.365,-50.2502,-82.3753
13:16:42.376,-49.7502,-83.0628
13:16:42.386,-49.7502,-83.5628
13:16:42.396,-49.5627,-82.1253
13:16:42.406,-47.3127,-80.7503
13:16:42.417,-45.1877,-75.3753
13:16:42.426,-41.7502,-67.0628
13:16:42.436,-37.6251,-58.6252
13:16:42.445,-34.6876,-49.0002
13:16:42.456,-31.4376,-42.3127
13:16:42.466,-29.3751,-34.2501
13:16:42.475,-25.6876,-28.1876
13:16:42.486,-24.6251,-22.3751
13:16:42.495,-23.9376,-19.3126
13:16:42.506,-23.8126,-15.9376
13:16:42.516,-22.6876,-14.2501
13:16:42.525,-22.3751,-13.2501
13:16:42.536,-20.6876,-11.5
13:16:42.546,-20.8751,-9.375
13:16:42.556,-20.0626,-9.375
13:16:42.565,-20.0626,-9.5625
13:16:42.599,-22.3126,-11.75
13:16:42.600,-23.1251,-13.8751
13:16:42.603,-24.6251,-15.3126
13:16:42.608,-25.8126,-18.6876
13:16:42.617,-25.7501,-19.3751
13:16:42.626,-28.2501,-21.8126
13:16:42.636,-29.5626,-26.6251
13:16:42.646,-31.0001,-30.0001
13:16:42.656,-32.6876,-32.6876
13:16:42.677,-33.6251,-36.9376
13:16:42.683,-34.4376,-38.6251
13:16:42.700,-35.3126,-40.4377
13:16:42.700,-35.6876,-42.5002
13:16:42.714,-36.1251,-42.7502
13:16:42.716,-36.0001,-43.8127
13:16:42.732,-35.5001,-44.3752
13:16:42.737,-36.1251,-43.8752
13:16:42.745,-35.7501,-45.0002
13:16:42.774,-35.1876,-43.6252
13:16:42.778,-35.1251,-44.6877
13:16:42.779,-34.7501,-45.1252
13:16:42.786,-34.5626,-44.0002
13:16:42.808,-34.4376,-45.7502
13:16:42.873,-34.1876,-47.2502
13:16:42.874,-35.5626,-48.3752
13:16:42.901,-35.5001,-51.0627
13:16:42.902,-35.6251,-51.3752
13:16:42.927,-36.1251,-53.8752
13:16:42.930,-36.1876,-54.6252
13:16:42.932,-37.3126,-57.5002
13:16:42.933,-37.1251,-60.1877
13:16:42.933,-38.5626,-61.2502
13:16:42.941,-38.5001,-64.5002
13:16:42.950,-38.6876,-66.0628
13:16:42.962,-39.8127,-67.4378
13:16:42.973,-39.5002,-69.1878
13:16:42.981,-39.6877,-69.2503
13:16:42.991,-39.3752,-70.8753
13:16:43.004,-38.9376,-71.1878
13:16:43.010,-39.0001,-72.0003
13:16:43.021,-38.9376,-72.0628
13:16:43.031,-39.9377,-74.1878
13:16:43.040,-41.6252,-76.7503
13:16:43.051,-42.6252,-79.5628
13:16:43.061,-44.6252,-81.8128
13:16:43.072,-45.5002,-84.6253
13:16:43.081,-46.6252,-87.2503
13:16:43.091,-47.8127,-89.4378
13:16:43.100,-54.5002,-111.4379
13:16:43.111,-54.2502,-111.5004
13:16:43.121,-52.8752,-110.0629
13:16:43.130,-49.4377,-103.1879
13:16:43.142,-42.7502,-90.9379
13:16:43.151,-34.5626,-74.1253
13:16:43.161,-26.3751,-56.8127
13:16:43.170,-19.4376,-41.7502
13:16:43.181,-14.0001,-27.3126
13:16:43.191,-8.375,-17.6876
13:16:43.201,-5.6875,-8.1875
13:16:43.211,-3.625,-3.75
13:16:43.221,-2.1875,-0.125
13:16:43.230,-1.875,2.625
13:16:43.241,-0.125,5.5625
13:16:43.251,-0.125,8.8125
13:16:43.261,1.0625,9.75
13:16:43.271,0.625,12.1875
13:16:43.280,2.0625,13.2501
13:16:43.290,3.25,14.5626
13:16:43.300,3.5625,15.3751
13:16:43.310,4.4375,15.1876
13:16:43.322,3.375,14.4376
13:16:43.333,3.5625,13.4376
13:16:43.340,3.875,13.5626
13:16:43.350,3.5,11.0625
13:16:43.361,3.875,10.625
13:16:43.376,3.5625,10.5
13:16:43.381,3.875,8.75
13:16:43.392,3.125,8.6875
13:16:43.401,3.1875,6.9375
13:16:43.411,2,7.1875
13:16:43.421,2.4375,5.375
13:16:43.431,2.1875,5.625
13:16:43.442,1.5,4.375
13:16:43.451,1.375,2.9375
13:16:43.461,1.6875,1.625
13:16:43.472,0.5,1.125
13:16:43.491,0.75,-0.6875
13:16:43.493,-0.4375,-1.125
13:16:43.521,-1.125,-4.4375
13:16:43.523,-2.625,-6.0625
13:16:43.526,-3.8125,-9.6875
13:16:43.532,-4.875,-10.25
13:16:43.558,-4.8125,-13.1251
13:16:43.565,-6.1875,-15.1876
13:16:43.565,-7,-17.8126
13:16:43.572,-8.375,-21.6251
13:16:43.586,-9.0625,-23.8751
13:16:43.591,-11.3125,-28.8751
13:16:43.617,-12.1875,-30.9376
13:16:43.620,-13.5626,-35.2501
13:16:43.622,-15.6251,-38.6876
13:16:43.655,-17.3751,-43.1252
13:16:43.656,-18.9376,-46.9377
13:16:43.660,-21.1876,-51.5002
13:16:43.664,-22.2501,-54.0002
13:16:43.673,-23.6251,-57.2502
13:16:43.682,-23.3751,-59.1877
13:16:43.691,-25.5001,-61.0627
13:16:43.700,-26.8751,-65.5628
13:16:43.712,-27.3751,-68.0628
13:16:43.720,-29.9376,-70.9378
13:16:43.730,-30.5626,-73.7503
13:16:43.742,-32.4376,-76.6878
13:16:43.752,-34.0626,-78.7503
13:16:43.761,-34.2501,-81.5628
13:16:43.774,-36.2501,-82.0003
13:16:43.782,-36.1251,-85.6878
13:16:43.791,-36.3126,-86.6878
13:16:43.801,-37.1876,-87.1253
13:16:43.811,-36.6251,-88.8128
13:16:43.820,-36.1251,-87.0628
13:16:43.832,-33.5001,-83.9378
13:16:43.841,-29.4376,-75.3753
13:16:43.852,-23.3751,-62.5002
13:16:43.878,-16.1876,-47.3752
13:16:43.880,-9.0625,-29.6251
13:16:43.882,-1.625,-15.3126
13:16:43.892,4.25,-3.0625
13:16:43.901,8.875,7.3125
13:16:43.911,12.3125,15.6876
13:16:43.922,14.2501,21.0626
13:16:43.930,16.5626,26.6876
13:16:43.941,17.1876,29.9376
13:16:43.951,18.5626,32.8126
13:16:43.964,20.0001,35.7501
13:16:43.970,19.8751,37.8126
13:16:43.982,21.6876,39.8127
13:16:43.999,21.6876,42.8127
13:16:44.006,23.1251,42.8752
13:16:44.015,24.0001,44.6877
13:16:44.020,23.7501,45.1252
13:16:44.036,24.4376,45.5627
13:16:44.053,23.6251,45.3127
13:16:44.055,23.1876,43.0002
13:16:44.062,22.8126,41.1252
13:16:44.071,22.3751,39.2502
13:16:44.082,21.5626,38.6251
13:16:44.092,21.6251,36.7501
13:16:44.100,20.1876,34.1251
13:16:44.113,19.6876,33.1251
13:16:44.126,18.1251,30.9376
13:16:44.131,18.0626,30.1876
13:16:44.140,18.0001,30.0626
13:16:44.158,17.9376,29.9376
13:16:44.161,17.0626,28.5001
13:16:44.190,16.8751,27.5001
13:16:44.223,17.0626,28.2501
13:16:44.252,16.9376,28.0626
13:16:44.253,16.9376,27.1251
13:16:44.307,17.4376,27.1876
13:16:44.309,16.6251,25.9376
13:16:44.309,18.0626,25.3126
13:16:44.309,17.8126,25.8751
13:16:44.310,19.0001,26.0626
13:16:44.312,19.9376,24.8126
13:16:44.330,19.4376,24.4376
13:16:44.330,19.2501,23.3751
13:16:44.330,17.6251,20.5001
13:16:44.337,16.5001,17.6251
13:16:44.346,15.0626,14.8126
13:16:44.358,13.3751,12.375
13:16:44.366,13.0625,10.0625
13:16:44.376,10.9375,7.0625
13:16:44.387,10.1875,4.8125
13:16:44.397,9.3125,1.375
13:16:44.407,7.8125,-1.375
13:16:44.417,6.9375,-3.9375
13:16:44.427,5.375,-7
13:16:44.437,4.125,-9.75
13:16:44.447,-1.5625,-23.2501
13:16:44.457,-2.875,-26.0001
13:16:44.465,-4.375,-27.6251
13:16:44.478,-4.875,-30.6876
13:16:44.487,-5.6875,-32.7501
13:16:44.501,-6.875,-34.3751
13:16:44.507,-7.5625,-37.3751
13:16:44.517,-9.5625,-38.8126
13:16:44.527,-11,-41.0627
13:16:44.537,-10.4375,-42.6877
13:16:44.546,-10.6875,-41.5627
13:16:44.558,-8.6875,-40.0627
13:16:44.565,-6.3125,-32.6876
13:16:44.577,-1.5,-25.1251
13:16:44.585,2.9375,-12.3125
13:16:44.597,8.375,-2.625
13:16:44.606,10.75,7.875
13:16:44.617,13.5626,13.9376
13:16:44.628,16.8126,20.7501
13:16:44.637,19.1251,28.1251
13:16:44.647,21.1876,32.9376
13:16:44.656,23.4376,38.8126
13:16:44.667,25.5626,42.9377
13:16:44.675,26.5626,45.7502
13:16:44.686,26.9376,48.8127
13:16:44.697,28.3751,50.8127
13:16:44.706,30.4376,52.9377
13:16:44.717,30.2501,55.5002
13:16:44.727,31.3126,56.5627
13:16:44.735,31.4376,57.7502
13:16:44.748,32.5626,58.5627
13:16:44.756,32.5626,59.4377
13:16:44.768,33.4376,58.5627
13:16:44.775,33.3751,57.1252
13:16:44.787,33.2501,57.3752
13:16:44.797,33.0001,56.8752
13:16:44.805,32.9376,54.8127
13:16:44.817,32.1251,52.9377
13:16:44.827,31.6251,51.4377
13:16:44.836,32.1876,50.7502
13:16:44.848,31.1876,49.1877
13:16:44.855,30.5001,49.2502
13:16:44.868,30.5626,48.0627
13:16:44.877,30.0626,48.5002
13:16:44.887,29.5626,48.0627
13:16:44.897,30.3751,48.9377
13:16:44.907,30.1876,47.6877
13:16:44.930,30.2501,47.5002
13:16:44.934,29.6251,45.4377
13:16:44.962,29.5626,45.1252
13:16:44.963,29.5001,44.3752
13:16:44.967,27.7501,41.9377
13:16:44.990,27.0001,40.6252
13:16:44.992,25.5001,36.9376
13:16:44.993,24.6876,35.2501
13:16:44.998,23.7501,33.5001
13:16:45.023,22.4376,30.8751
13:16:45.027,21.5626,29.1251
13:16:45.028,20.3126,24.0626
13:16:45.061,19.5001,23.0001
13:16:45.062,18.1251,20.3126
13:16:45.064,15.9376,17.1251
13:16:45.070,15.3751,14.3751
13:16:45.078,14.9376,12.0625
13:16:45.097,13.0625,10.4375
13:16:45.100,12.8125,8.3125
13:16:45.108,12.25,6
13:16:45.115,10.5625,3.9375
13:16:45.127,8.5625,1.625
13:16:45.157,8.5,-1.1875
13:16:45.160,6.8125,-1.5625
13:16:45.162,5.9375,-5.1875
13:16:45.168,4.6875,-7
13:16:45.176,2.8125,-9.6875
13:16:45.186,2.0625,-13
13:16:45.197,1.75,-14.6876
13:16:45.206,0.8125,-18.2501
13:16:45.217,0,-19.4376
13:16:45.227,-0.5625,-21.8126
13:16:45.237,-1.125,-23.1876
13:16:45.248,-3.75,-26.5626
13:16:45.258,-4.125,-28.7501
13:16:45.266,-4.3125,-30.6876
13:16:45.277,-4.875,-31.6876
13:16:45.287,-5,-31.6876
13:16:45.296,-3.3125,-28.7501
13:16:45.305,-1.5,-24.6876
13:16:45.321,0.6875,-18.4376
13:16:45.338,4,-11.25
13:16:45.340,6.875,-3
13:16:45.355,10.5,5.4375
13:16:45.358,11.875,13
13:16:45.373,16.1876,20.3126
13:16:45.377,18.1251,27.3126
13:16:45.387,21.6251,33.5001
13:16:45.397,23.6251,39.3127
13:16:45.406,26.0001,44.5002
13:16:45.417,28.6876,50.5002
13:16:45.428,30.6251,53.6877
13:16:45.437,32.2501,57.6252
13:16:45.446,33.6876,61.7502
13:16:45.455,34.8126,62.8752
13:16:45.467,35.6251,64.8752
13:16:45.476,35.7501,64.6877
13:16:45.488,35.6876,65.1252
13:16:45.496,36.5001,66.3128
13:16:45.508,36.1251,63.7502
13:16:45.517,34.7501,63.1252
13:16:45.528,32.7501,59.9377
13:16:45.537,31.0001,56.8127
13:16:45.557,30.6251,54.5627
13:16:45.560,29.2501,50.8752
13:16:45.569,28.0626,47.8752
13:16:45.576,26.3126,45.6877
13:16:45.593,25.7501,43.3127
13:16:45.599,24.6876,40.5002
13:16:45.632,23.4376,38.6876
13:16:45.632,22.8126,36.2501
13:16:45.636,21.0626,33.0001
13:16:45.642,19.7501,31.8126
13:16:45.651,19.6251,29.0626
13:16:45.682,18.2501,26.5626
13:16:45.684,17.4376,25.3751
13:16:45.687,16.1876,22.6251
13:16:45.689,14.8751,20.3126
13:16:45.723,14.3126,20.3126
13:16:45.726,13.7501,17.7501
13:16:45.728,14.1251,16.0001
13:16:45.732,12.5,14.3126
13:16:45.736,11.875,12.375
13:16:45.747,10.9375,12.0625
13:16:45.773,9.875,9.6875
13:16:45.776,9.0625,6.9375
13:16:45.778,7.3125,3.875
13:16:45.795,6.625,0.6875
13:16:45.798,5.75,-0.5625
13:16:45.808,4.9375,-1.5
13:16:45.817,4.5625,-3.9375
13:16:45.827,3.8125,-4.625
13:16:45.837,3.1875,-4.5625
13:16:45.847,2.9375,-5.9375
13:16:45.857,3.0625,-7.3125
13:16:45.867,2.4375,-8.25
13:16:45.877,2.3125,-7.9375
13:16:45.887,1.3125,-9.5625
13:16:45.897,1.875,-11.8125
13:16:45.907,-0.1875,-14.0001
13:16:45.917,-0.6875,-14.8751
13:16:45.927,-0.875,-16.9376
13:16:45.936,-1.375,-18.6251
13:16:45.947,-2.8125,-20.6876
13:16:45.957,-3.8125,-23.2501
13:16:45.967,-4.3125,-24.3126
13:16:45.977,-5.5,-27.3751
13:16:45.988,-6.8125,-29.5001
13:16:45.996,-6.5,-31.0626
13:16:46.007,-7.9375,-32.6251
13:16:46.017,-8.4375,-33.3751
13:16:46.028,-8.1875,-33.8751
13:16:46.038,-6.625,-31.5626
13:16:46.047,-3.9375,-25.6251
13:16:46.057,-1.375,-19.6251
13:16:46.067,0.4375,-13
13:16:46.077,4.0625,-5.125
13:16:46.087,6.75,4.375
13:16:46.097,10.625,10.375
13:16:46.106,12.6875,18.3751
13:16:46.117,16.4376,23.8751
13:16:46.127,18.2501,30.6251
13:16:46.137,21.1251,34.3126
13:16:46.147,23.5001,39.5627
13:16:46.157,24.8126,42.2502
13:16:46.169,26.6876,45.0002
13:16:46.182,26.5001,46.3127
13:16:46.192,27.3126,47.8127
13:16:46.202,28.3126,50.3127
13:16:46.212,28.4376,50.1252
13:16:46.222,28.3751,51.5627
13:16:46.232,28.5626,50.0002
13:16:46.243,28.5001,50.0002
13:16:46.251,27.7501,47.4377
13:16:46.263,26.5001,45.3127
13:16:46.272,26.0001,43.5002
13:16:46.281,24.2501,41.0627
13:16:46.292,23.4376,39.0626
13:16:46.317,23.4376,37.8751
13:16:46.320,22.7501,37.3126
13:16:46.322,22.5001,37.3751
13:16:46.332,21.8126,36.1876
13:16:46.375,21.6251,37.2501
13:16:46.377,22.2501,37.0001
13:16:46.378,22.4376,38.8126
13:16:46.381,23.1876,38.7501
13:16:46.385,24.0001,38.1876
13:16:46.411,23.3751,38.3751
13:16:46.414,23.7501,37.7501
13:16:46.414,22.4376,34.5001
13:16:46.445,20.5001,31.8751
13:16:46.446,19.3126,30.7501
13:16:46.446,17.3751,28.1876
13:16:46.481,15.6251,24.3751
13:16:46.486,14.2501,20.4376
13:16:46.487,12.6875,18.4376
13:16:46.488,11.375,17.6251
13:16:46.493,10.5625,13.9376
13:16:46.502,8.75,10
13:16:46.512,6.4375,6.1875
13:16:46.522,4,4.0625
13:16:46.532,3.0625,0.5
13:16:46.547,1.25,-3.25
13:16:46.553,-0.3125,-6.0625
13:16:46.563,-2.5,-7.625
13:16:46.573,-3.125,-11.75
13:16:46.581,-5.25,-14.9376
13:16:46.591,-6.75,-18.5001
13:16:46.602,-8.5625,-21.8751
13:16:46.612,-9.125,-24.1876
13:16:46.621,-11.0625,-28.2501
13:16:46.639,-12.125,-31.1876
13:16:46.646,-13.4376,-32.5001
13:16:46.653,-13,-35.7501
13:16:46.662,-14.2501,-39.6252
13:16:46.677,-15.6876,-41.5002
13:16:46.686,-17.0626,-44.5627
13:16:46.691,-17.2501,-48.5627
13:16:46.702,-18.1876,-51.7502
13:16:46.712,-19.0001,-53.9377
13:16:46.721,-19.8126,-55.7502
13:16:46.732,-20.1876,-56.2502
13:16:46.741,-20.3751,-55.6252
13:16:46.752,-19.0001,-52.3752
13:16:46.761,-15.1876,-46.7502
13:16:46.772,-10.875,-36.9376
13:16:46.782,-4.6875,-25.1251
13:16:46.791,-0.875,-13.7501
13:16:46.802,3.25,-4.4375
13:16:46.812,5.8125,4.25
13:16:46.822,8.8125,11
13:16:46.832,10.875,18.8126
13:16:46.841,14.5626,24.1876
13:16:46.852,17.1251,31.7501
13:16:46.861,19.4376,36.0001
13:16:46.881,22.5626,39.9377
13:16:46.885,23.0626,43.4377
13:16:46.892,24.8126,47.2502
13:16:46.913,25.8126,50.3752
13:16:46.922,27.1251,51.2502
13:16:46.939,27.8126,52.9377
13:16:46.939,28.1876,55.3752
13:16:46.941,28.6876,54.5002
13:16:46.952,29.6876,55.4377
13:16:46.962,28.3751,54.6252
13:16:46.972,28.3751,53.1252
13:16:46.981,26.3126,50.4377
13:16:46.992,23.3751,46.9377
13:16:47.002,22.8126,42.6252
13:16:47.012,20.4376,39.8127
13:16:47.023,19.8126,36.0626
13:16:47.032,17.3126,33.7501
13:16:47.041,16.3126,30.8751
13:16:47.051,15.1876,27.5626
13:16:47.062,14.5001,25.3751
13:16:47.072,12.75,24.1251
13:16:47.082,11.5625,21.4376
13:16:47.108,9.375,19.2501
13:16:47.111,9.1875,16.9376
13:16:47.112,7.625,15.3126
13:16:47.146,5.4375,13.1251
13:16:47.146,5.25,11.6875
13:16:47.150,3.1875,10.25
13:16:47.153,3.1875,8.625
13:16:47.188,2,5.5625
13:16:47.193,1.4375,4.3125
13:16:47.202,1.9375,2.6875
13:16:47.202,2.5,1.375
13:16:47.204,3,1
13:16:47.233,3.75,0.5625
13:16:47.236,4.4375,1.3125
13:16:47.238,6.4375,0.75
13:16:47.243,7,-0.375
13:16:47.271,6.625,-0.1875
13:16:47.272,6.375,-0.875
13:16:47.274,6.5,-2.875
13:16:47.282,6.625,-3.6875
13:16:47.292,4.8125,-5.6875
13:16:47.301,4.125,-7
13:16:47.312,4.125,-8.8125
13:16:47.322,2.6875,-11.8125
13:16:47.332,2.3125,-12.6875
13:16:47.341,1,-13.0625
13:16:47.352,-0.1875,-15.9376
13:16:47.362,-1.625,-19.3751
13:16:47.372,-5.375,-23.6876
13:16:47.382,-8,-26.7501
13:16:47.392,-9.6875,-28.3126
13:16:47.401,-10.625,-31.5626
13:16:47.412,-29.3751,-46.7502
13:16:47.422,-16.3126,-41.6877
13:16:47.432,-17.3751,-43.8752
13:16:47.442,-17.3751,-43.3752
13:16:47.452,-18.3126,-45.2502
13:16:47.461,-19.5626,-48.4377
13:16:47.472,-21.1876,-48.6252
13:16:47.482,-20.0001,-45.2502
13:16:47.491,-17.9376,-41.0627
13:16:47.502,-14.5001,-31.5626
13:16:47.512,-10.3125,-25.0001
13:16:47.522,-7.625,-15.5626
13:16:47.532,-3.1875,-9.25
13:16:47.543,-0.25,0
13:16:47.552,4.6875,5.8125
13:16:47.561,8.0625,14.0626
13:16:47.572,12.375,19.0001
13:16:47.582,15.8751,24.7501
13:16:47.592,17.5626,29.8126
13:16:47.601,20.1876,31.6876
13:16:47.612,21.3126,35.3751
13:16:47.622,23.6876,36.7501
13:16:47.633,25.1251,40.3752
13:16:47.642,26.7501,41.6877
13:16:47.651,27.0001,43.5627
13:16:47.662,27.0001,41.6252
13:16:47.676,26.6876,40.6252
13:16:47.683,25.1876,38.5626
13:16:47.692,24.8751,36.5626
13:16:47.717,25.0626,34.7501
13:16:47.719,25.1876,32.7501
13:16:47.723,24.7501,31.6876
13:16:47.732,25.5001,30.3751
13:16:47.743,24.8751,30.3126
13:16:47.752,26.3126,29.1876
13:16:47.762,25.1251,27.8751
13:16:47.772,24.3126,26.6876
13:16:47.782,24.6251,25.1251
13:16:47.792,23.4376,24.9376
13:16:47.802,23.7501,21.9376
13:16:47.812,21.6251,20.6876
13:16:47.830,22.1251,19.2501
13:16:47.832,22.1251,19.3751
13:16:47.867,22.5626,17.8751
13:16:47.869,22.8126,18.0626
13:16:47.870,22.8751,16.1251
13:16:47.875,23.5001,14.6876
13:16:47.903,24.2501,14.5001
13:16:47.906,25.3126,15.4376
13:16:47.911,27.4376,15.6251
13:16:47.915,28.1876,14.2501
13:16:47.922,28.4376,14.4376
13:16:47.957,30.0001,15.0626
13:16:48.016,28.5626,13.2501
13:16:48.020,28.8751,11.5
13:16:48.033,27.7501,9.125
13:16:48.034,26.9376,7.5
13:16:48.036,26.4376,5.0625
13:16:48.036,25.1251,2.5625
13:16:48.043,23.5001,0.375
13:16:48.053,23.4376,-0.8125
13:16:48.062,22.8126,-3.875
13:16:48.072,21.6876,-5.875
13:16:48.082,19.6876,-8.4375
13:16:48.093,18.5626,-9.3125
13:16:48.102,17.3751,-12.75
13:16:48.112,17.3751,-15.3751
13:16:48.122,15.3126,-17.7501
13:16:48.132,13.8126,-20.5001
13:16:48.142,12.125,-24.0626
13:16:48.152,10.625,-27.1876
13:16:48.163,9.875,-29.0626
13:16:48.171,9.4375,-29.9376
13:16:48.182,9.3125,-32.0626
13:16:48.192,7.9375,-35.3126
13:16:48.207,10.0625,-33.3751
13:16:48.214,12.875,-28.4376
13:16:48.222,15.7501,-20.7501
13:16:48.236,18.5626,-12.75
13:16:48.246,22.3126,-4.625
13:16:48.252,24.1876,2.6875
13:16:48.262,26.0626,8.125
13:16:48.272,28.3751,12.6875
13:16:48.282,29.5001,16.8751
13:16:48.292,30.0626,20.5626
13:16:48.302,31.0626,22.3126
13:16:48.312,31.6251,23.9376
13:16:48.322,32.8751,25.9376
13:16:48.332,31.6876,26.2501
13:16:48.342,31.1876,27.6876
13:16:48.352,31.1251,26.5001
13:16:48.362,29.6876,24.8126
13:16:48.371,28.2501,24.6251
13:16:48.382,26.6251,23.3126
13:16:48.391,25.0001,20.3751
13:16:48.402,23.5001,17.8126
13:16:48.412,21.1251,13.5001
13:16:48.429,19.3751,11.375
13:16:48.432,17.9376,7.0625
13:16:48.441,16.0626,5.8125
13:16:48.452,15.6876,3.25
13:16:48.462,14.6876,1.3125
13:16:48.472,13.5001,-0.25
13:16:48.482,13.3126,0.375
13:16:48.492,13,-0.1875
13:16:48.529,13,-1.75
13:16:48.532,13.125,-1
13:16:48.534,12.875,-1.5
13:16:48.536,12.1875,-2.3125
13:16:48.542,11.0625,-2.8125
13:16:48.566,11.9375,-2.5
13:16:48.569,11.5,-4
13:16:48.601,10.375,-4.6875
13:16:48.601,11,-5.375
13:16:48.602,10.5,-6.375
13:16:48.604,8.875,-7.6875
13:16:48.644,8.9375,-10.375
13:16:48.647,7.6875,-12.5625
13:16:48.647,6.0625,-14.0626
13:16:48.654,5.1875,-15.5626
13:16:48.655,4.3125,-18.8751
13:16:48.667,3.3125,-21.2501
13:16:48.672,2.625,-22.6251
13:16:48.684,2,-24.4376
13:16:48.692,0.875,-25.6251
13:16:48.706,0.9375,-27.1876
13:16:48.717,0.3125,-29.1876
13:16:48.728,-0.6875,-29.6876
13:16:48.737,-0.375,-29.6251
13:16:48.746,-1.625,-31.4376
13:16:48.757,-1.6875,-32.6876
13:16:48.767,-3.375,-34.0626
13:16:48.778,-3.8125,-36.3126
13:16:48.788,-5.375,-38.3751
13:16:48.803,-6.4375,-39.0626
13:16:48.808,-7,-41.7502
13:16:48.818,-8.125,-44.3127
13:16:48.827,-10.1875,-46.6252
13:16:48.837,-11.5,-47.7502
13:16:48.847,-12.3125,-50.8127
13:16:48.856,-13.1876,-52.0002
13:16:48.867,-13.2501,-54.1877
13:16:48.877,-13.7501,-55.9377
13:16:48.887,-13.7501,-54.3752
13:16:48.897,-12.4375,-52.3127
13:16:48.907,-10.75,-48.3752
13:16:48.918,-8.125,-42.1877
13:16:48.927,-4.6875,-34.1876
13:16:48.937,-1.625,-26.5626
13:16:48.946,2.0625,-17.7501
13:16:48.956,4.9375,-11.25
13:16:48.967,7.625,-3.4375
13:16:48.997,10.125,1.8125
13:16:49.002,11.3125,7.5625
13:16:49.002,13.6251,10.375
13:16:49.008,13.9376,14.1251
13:16:49.016,15.7501,14.1876
13:16:49.028,15.1251,17.8126
13:16:49.037,16.0626,18.3126
13:16:49.047,16.9376,19.8126
13:16:49.058,16.7501,20.1251
13:16:49.067,17.1876,20.0626
13:16:49.079,16.3126,19.8126
13:16:49.087,15.7501,18.6251
13:16:49.096,15.3751,19.0626
13:16:49.107,15.1251,16.8126
13:16:49.117,14.2501,16.0001
13:16:49.126,13.5001,13.7501
13:16:49.138,13.1876,11.375
13:16:49.147,12.0625,8.9375
13:16:49.157,11.5625,8.25
13:16:49.166,10.875,8.25
13:16:49.178,11.4375,6.9375
13:16:49.187,10.6875,6
13:16:49.199,11,6.1875
13:16:49.209,10.6875,7.375
13:16:49.217,11.5625,5.875
13:16:49.227,10.1875,4.0625
13:16:49.237,9.625,5
13:16:49.247,9.875,3.4375
13:16:49.257,9.375,1.5625
13:16:49.268,8.3125,-0.1875
13:16:49.277,7.375,0.0625
13:16:49.298,7.5625,-1.3125
13:16:49.305,6.625,-3.6875
13:16:49.307,5.3125,-6.375
13:16:49.351,4.75,-7.8125
13:16:49.385,4.1875,-9.1875
13:16:49.387,2.9375,-10.9375
13:16:49.389,1.875,-13.3126
13:16:49.394,1.6875,-13.6876
13:16:49.394,1.75,-15.8126
13:16:49.394,0.375,-17.5626
13:16:49.403,-0.4375,-17.7501
13:16:49.436,-0.3125,-19.1876
13:16:49.438,-0.875,-21.3751
13:16:49.440,-2,-23.4376
13:16:49.443,-2.5,-23.3751
13:16:49.479,-2.625,-25.8126
13:16:49.482,-3.6875,-28.1251
13:16:49.484,-4.375,-28.1876
13:16:49.507,-3.9375,-30.3751
13:16:49.508,-5.0625,-31.7501
13:16:49.523,-6.1875,-33.8126
13:16:49.526,-6.6875,-34.8126
13:16:49.533,-7.5,-36.2501
13:16:49.535,-8.1875,-38.3126
13:16:49.554,-8.8125,-39.0001
13:16:49.557,-9.4375,-40.0627
13:16:49.565,-8.25,-42.1877
13:16:49.573,-7.25,-38.0001
13:16:49.582,-4.8125,-34.7501
13:16:49.593,-2.375,-27.9376
13:16:49.603,1.375,-20.2501
13:16:49.612,4.125,-13.4376
13:16:49.625,6.9375,-5.9375
13:16:49.632,9.8125,1.1875
13:16:49.641,11.6875,8.125
13:16:49.656,14.1876,13.3126
13:16:49.662,16.5001,16.4376
13:16:49.674,17.1876,18.8126
13:16:49.684,18.1876,22.3126
13:16:49.692,18.3751,24.6876
13:16:49.702,18.9376,25.1876
13:16:49.713,19.8126,26.1251
13:16:49.725,19.8751,26.3751
13:16:49.734,18.8751,26.5001
13:16:49.743,18.8126,26.4376
13:16:49.756,18.3751,25.3751
13:16:49.763,18.1251,24.4376
13:16:49.772,17.1251,23.2501
13:16:49.784,16.0001,23.3126
13:16:49.798,16.3751,20.8751
13:16:49.801,14.1876,17.5001
13:16:49.812,13.1876,15.1876
13:16:49.825,12.5,13.1251
13:16:49.833,11.3125,10.25
13:16:49.845,9.6875,8.5
13:16:49.853,9.0625,8
13:16:49.861,9.9375,6.3125
13:16:49.873,9.1875,5.9375
13:16:49.884,8.1875,5
13:16:49.894,8.125,5.3125
13:16:49.902,7.625,3.8125
13:16:49.911,7.5,2.875
13:16:49.929,6.8125,3.0625
13:16:49.933,7.625,1.25
13:16:49.944,6.625,0.5625
13:16:49.953,6.125,0.8125
13:16:49.962,6.125,-2.0625
13:16:49.972,5.625,-3.125
13:16:49.983,4.375,-5.75
13:16:49.993,2.5,-7.9375
13:16:50.002,1.125,-9.625
13:16:50.012,0.5,-12.9375
13:16:50.023,0.0625,-15.0626
13:16:50.041,-1.3125,-17.3751
13:16:50.045,-2.4375,-18.0626
13:16:50.075,-2.375,-20.3751
13:16:50.078,-2.5625,-22.6251
13:16:50.081,-3.8125,-24.2501
13:16:50.083,-4.5625,-25.5001
13:16:50.119,-5.4375,-27.0001
13:16:50.120,-6.75,-30.3126
13:16:50.122,-8.0625,-32.1251
13:16:50.125,-8.6875,-33.6251
13:16:50.155,-9.3125,-36.1876
13:16:50.159,-10.5,-37.1876
13:16:50.160,-10.125,-38.5626
13:16:50.188,-10.9375,-41.0002
13:16:50.190,-12.5,-42.3127
13:16:50.192,-13.4376,-44.3127
13:16:50.197,-14.4376,-46.7502
13:16:50.205,-15.5001,-48.0002
13:16:50.214,-16.2501,-50.7502
13:16:50.223,-17.1251,-50.9377
13:16:50.233,-16.5001,-53.0627
13:16:50.247,-16.0001,-50.3752
13:16:50.278,-13.5001,-47.1877
13:16:50.280,-10.9375,-39.8127
13:16:50.282,-7.0625,-32.6251
13:16:50.288,-2.8125,-22.5626
13:16:50.304,-0.125,-14.6876
13:16:50.308,3.6875,-6.9375
13:16:50.317,7.375,-0.25
13:16:50.328,8.375,5.4375
13:16:50.338,10.8125,9.75
13:16:50.348,11.625,14.3126
13:16:50.359,12.8125,18.5001
13:16:50.368,15.0626,19.9376
13:16:50.376,15.1876,21.8126
13:16:50.388,16.1251,23.3126
13:16:50.398,16.4376,24.3751
13:16:50.409,17.3751,26.2501
13:16:50.418,17.6251,27.1251
13:16:50.428,17.8751,27.5001
13:16:50.438,16.8751,27.5626
13:16:50.447,17.4376,26.8126
13:16:50.458,16.5001,25.8126
13:16:50.468,15.6876,24.0001
13:16:50.477,15.8751,21.8126
13:16:50.488,14.0001,20.0001
13:16:50.498,13.8751,19.0626
13:16:50.508,12.1875,15.5001
13:16:50.518,12.25,14.4376
13:16:50.528,11.4375,14.5626
13:16:50.538,10.6875,11.75
13:16:50.553,10.5625,10.125
13:16:50.565,10.625,10.375
13:16:50.571,9.8125,8.5625
13:16:50.583,9.625,8.5625
13:16:50.593,8.875,8.1875
13:16:50.603,8.1875,5.625
13:16:50.613,8.6875,4
13:16:50.634,8.1875,3.5625
13:16:50.642,6.4375,2.5
13:16:50.643,6.5,2.375
13:16:50.659,6.5625,-0.1875
13:16:50.662,5.5,-1.1875
13:16:50.681,5.125,-2.9375
13:16:50.683,3.9375,-5.8125
13:16:50.693,3.5625,-6.125
13:16:50.703,2.4375,-9
13:16:50.713,1.625,-12
13:16:50.723,0.375,-15.1251
13:16:50.754,-0.4375,-17.3751
13:16:50.757,-1,-18.5626
13:16:50.760,-1.8125,-21.1251
13:16:50.763,-1.875,-22.8126
13:16:50.794,-3.3125,-23.3126
13:16:50.796,-3.875,-24.9376
13:16:50.798,-4.9375,-27.3751
13:16:50.804,-4.9375,-29.5001
13:16:50.831,-6.125,-31.3751
13:16:50.868,-6.1875,-32.8126
13:16:50.869,-7.75,-34.0626
13:16:50.872,-8.875,-35.5001
13:16:50.899,-9,-38.8126
13:16:50.899,-9.8125,-39.5002
13:16:50.901,-10.25,-41.5002
13:16:50.901,-11.6875,-42.0002
13:16:50.912,-11.8125,-44.1252
13:16:50.913,-11.6875,-45.5627
13:16:50.918,-12.625,-47.1877
13:16:50.928,-12,-47.7502
13:16:50.938,-12.8125,-48.0627
13:16:50.949,-12.375,-49.5627
13:16:50.958,-11.1875,-46.5002
13:16:50.968,-8.875,-43.5627
13:16:50.978,-5.8125,-37.2501
13:16:50.988,-3.3125,-28.1251
13:16:50.998,0.8125,-21.0626
13:16:51.010,4.0625,-12.375
13:16:51.018,7.8125,-4.625
13:16:51.028,10.4375,2.0625
13:16:51.038,14.3126,12.8125
13:16:51.054,17.2501,17.1251
13:16:51.058,17.4376,20.5626
13:16:51.069,18.9376,23.1251
13:16:51.078,19.3751,25.3751
13:16:51.088,20.1876,26.6251
13:16:51.099,19.3126,26.8126
13:16:51.108,19.5626,26.5001
13:16:51.118,19.4376,27.8751
13:16:51.131,19.5626,27.2501
13:16:51.139,19.5001,27.9376
13:16:51.148,18.8126,29.1251
13:16:51.158,19.6251,27.6251
13:16:51.168,19.0001,27.3751
13:16:51.178,18.2501,25.6876
13:16:51.188,17.0001,23.8751
13:16:51.198,17.2501,22.6251
13:16:51.208,16.0626,20.1876
13:16:51.218,15.6251,17.4376
13:16:51.228,14.3126,15.0626
13:16:51.238,13.8126,13.6876
13:16:51.248,12.875,13.125
13:16:51.258,12.5625,11.3125
13:16:51.268,12.75,10.3125
13:16:51.278,11.75,9.0625
13:16:51.288,11.875,9.75
13:16:51.298,12.25,8.4375
13:16:51.308,11.8125,7.5625
13:16:51.318,11.1875,6.4375
13:16:51.328,10.9375,5.875
13:16:51.338,12.25,5.75
13:16:51.348,11.125,4.25
13:16:51.358,10.25,2.3125
13:16:51.368,9.9375,2.5625
13:16:51.378,10.625,-0.1875
13:16:51.388,8.875,-1.875
13:16:51.398,8.5625,-2.25
13:16:51.408,7.9375,-4.5625
13:16:51.419,6.8125,-7.5625
13:16:51.434,5.8125,-8.8125
13:16:51.438,5.3125,-8.9375
13:16:51.448,6.1875,-11.25
13:16:51.458,5.25,-13.3751
13:16:51.483,4.6875,-14.6876
13:16:51.487,3.5,-14.7501
13:16:51.489,3.4375,-16.4376
13:16:51.520,3.625,-18.6251
13:16:51.522,3.1875,-20.2501
13:16:51.525,2.625,-19.3751
13:16:51.530,2.6875,-20.9376
13:16:51.557,2.8125,-22.5626
13:16:51.559,2.1875,-22.8751
13:16:51.569,2.375,-24.6876
13:16:51.576,1.0625,-27.5626
13:16:51.584,-0.25,-27.0626
13:16:51.588,-0.5,-30.8126
13:16:51.621,-2.25,-32.3126
13:16:51.622,-2.8125,-34.1876
13:16:51.624,-4.25,-36.9376
13:16:51.631,-4.875,-38.1876
13:16:51.648,-6.25,-41.4377
13:16:51.650,-7.25,-42.6877
13:16:51.658,-7.0625,-44.8127
13:16:51.669,-8.1875,-46.0627
13:16:51.678,-8.75,-45.7502
13:16:51.688,-7.6875,-45.8752
13:16:51.698,-6.4375,-43.6252
13:16:51.708,-3.6875,-37.8751
13:16:51.718,0.1875,-30.2501
13:16:51.728,4.875,-20.0001
13:16:51.738,9,-10
13:16:51.748,13.3751,-0.3125
13:16:51.758,17.0001,8.625
13:16:51.768,21.0001,16.3751
13:16:51.778,22.8751,22.4376
13:16:51.788,25.3751,27.2501
13:16:51.798,27.5001,31.8751
13:16:51.809,28.6876,34.8126
13:16:51.818,29.0626,37.5001
13:16:51.828,30.0626,38.8126
13:16:51.838,29.6251,41.1252
13:16:51.848,31.1251,41.2502
13:16:51.858,31.4376,42.4377
13:16:51.868,32.0001,43.0627
13:16:51.878,31.6251,42.3127
13:16:51.888,31.6876,43.0627
13:16:51.898,31.1251,42.2502
13:16:51.908,30.3126,40.0627
13:16:51.918,29.6876,39.8127
13:16:51.937,29.5626,38.6251
13:16:51.942,28.8126,36.5001
13:16:51.957,28.3751,35.0001
13:16:51.959,27.7501,32.8751
13:16:51.969,26.6251,32.2501
13:16:51.979,25.9376,30.1876
13:16:51.988,25.2501,29.9376
13:16:51.998,25.2501,28.1251
13:16:52.008,24.6876,27.2501
13:16:52.018,24.0001,26.5626
13:16:52.028,23.8751,25.8126
13:16:52.038,23.1251,24.6876
13:16:52.048,23.2501,23.5001
13:16:52.058,22.8751,21.5001
13:16:52.069,22.1251,21.5001
13:16:52.078,20.5001,19.6251
13:16:52.088,19.8751,17.7501
13:16:52.098,19.5626,15.8751
13:16:52.108,18.5001,13
13:16:52.118,17.1251,11
13:16:52.128,15.4376,9.1875
13:16:52.146,15.0626,7.25
13:16:52.159,14.8751,4.4375
13:16:52.162,13.7501,1.6875
13:16:52.169,12.0625,1
13:16:52.184,11.375,-1.3125
13:16:52.189,11.5625,-3.5
13:16:52.198,9.875,-5.3125
13:16:52.208,9.625,-7.75
13:16:52.218,8.125,-10.125
13:16:52.240,6.8125,-11
13:16:52.243,7.4375,-13.0625
13:16:52.272,6.1875,-14.8751
13:16:52.275,5.75,-16.5001
13:16:52.277,3.75,-18.8751
13:16:52.279,2.875,-19.3126
13:16:52.312,3.0625,-21.0001
13:16:52.314,3.0625,-22.5626
13:16:52.317,2.375,-24.7501
13:16:52.319,1.5,-25.7501
13:16:52.345,0,-27.2501
13:16:52.348,0.1875,-28.4376
13:16:52.349,-0.6875,-29.7501
13:16:52.377,-0.8125,-32.2501
13:16:52.380,-2.3125,-33.3126
13:16:52.382,-2.375,-35.6251
13:16:52.390,-3.5625,-37.5001
13:16:52.408,-4,-38.0001
13:16:52.410,-4.25,-38.9376
13:16:52.419,-4.5625,-40.3752
13:16:52.428,-4.1875,-40.0002
13:16:52.438,-3.125,-38.9376
13:16:52.448,-0.625,-33.1876
13:16:52.458,2.875,-27.9376
13:16:52.469,5.875,-18.8751
13:16:52.478,9.1875,-9.0625
13:16:52.488,13.8751,-1.1875
13:16:52.498,16.8126,7.0625
13:16:52.508,20.1876,14.9376
13:16:52.518,23.0001,20.6876
13:16:52.528,24.3751,26.1251
13:16:52.538,26.3126,29.6876
13:16:52.548,27.2501,32.5001
13:16:52.563,28.7501,34.6876
13:16:52.569,27.9376,36.8751
13:16:52.578,28.0001,36.3126
13:16:52.588,28.5001,37.3751
13:16:52.598,28.8126,37.1251
13:16:52.608,27.2501,37.1876
13:16:52.618,26.8126,35.3126
13:16:52.628,24.7501,34.4376
13:16:52.638,24.4376,32.8751
13:16:52.648,23.4376,30.6876
13:16:52.659,22.3126,29.1876
13:16:52.668,20.9376,25.6876
13:16:52.678,19.6876,24.7501
13:16:52.688,18.3751,21.3751
13:16:52.698,17.7501,20.9376
13:16:52.708,18.1876,18.6251
13:16:52.718,17.8126,18.3751
13:16:52.728,17.3751,17.1876
13:16:52.738,17.0626,16.4376
13:16:52.748,16.8126,16.1251
13:16:52.758,17.2501,15.4376
13:16:52.768,17.0626,16.5001
13:16:52.778,16.3126,14.9376
13:16:52.788,17.1251,14.8126
13:16:52.798,15.8751,14.3751
13:16:52.808,16.3751,12.9375
13:16:52.838,14.0626,11.1875
13:16:52.841,14.0626,9.25
13:16:52.842,12.0625,6.9375
13:16:52.848,11.75,6.5
13:16:52.861,11.25,3.125
13:16:52.868,9.375,1.0625
13:16:52.878,8.0625,-0.25
13:16:52.907,7.4375,-3.125
13:16:52.909,6.75,-5.3125
13:16:52.912,5.5,-7.625
13:16:52.920,4.3125,-9.0625
13:16:52.943,3.8125,-11.6875
13:16:52.945,2.3125,-14.3126
13:16:52.949,1.5625,-16.0001
13:16:52.979,1.25,-18.0001
13:16:52.981,0.1875,-20.3751
13:16:52.983,-1.25,-23.0626
13:16:52.989,-2.3125,-23.9376
13:16:53.027,-1.9375,-25.3126
13:16:53.029,-2.4375,-27.0001
13:16:53.032,-3.375,-27.8751
13:16:53.037,-3.625,-30.0626
13:16:53.038,-4.5625,-32.1251
13:16:53.072,-5.3125,-32.5001
13:16:53.075,-6.0625,-35.0001
13:16:53.078,-6.6875,-35.8126
13:16:53.079,-6.6875,-37.1876
13:16:53.088,-8.25,-39.3126
13:16:53.098,-9.125,-38.5001
13:16:53.108,-9.5625,-41.4377
13:16:53.118,-9.8125,-43.2502
13:16:53.128,-10.875,-44.0627
13:16:53.138,-11.1875,-46.4377
13:16:53.149,-11.5,-46.7502
13:16:53.158,-11.875,-48.6252
13:16:53.168,-11.625,-47.6877
13:16:53.178,-11.0625,-47.6877
13:16:53.188,-10,-44.5002
13:16:53.198,-6.3125,-38.3751
13:16:53.208,-3.3125,-29.9376
13:16:53.218,1.5625,-19.8751
13:16:53.236,5.0625,-9.875
13:16:53.239,9.25,-0.5625
13:16:53.255,13.5001,7.5
13:16:53.259,17.1876,14.8751
13:16:53.269,19.0626,20.8126
13:16:53.278,21.1251,24.4376
13:16:53.289,22.1251,27.4376
13:16:53.299,22.6251,28.9376
13:16:53.308,22.9376,29.2501
13:16:53.318,22.3751,30.1251
13:16:53.328,21.8751,29.2501
13:16:53.338,21.5001,29.7501
13:16:53.348,21.8126,28.6251
13:16:53.358,21.1251,29.1251
13:16:53.368,20.8126,27.1251
13:16:53.378,19.5001,26.5001
13:16:53.388,18.6876,23.8126
13:16:53.398,17.5626,21.2501
13:16:53.408,16.6251,18.3126
13:16:53.418,15.2501,16.1876
13:16:53.438,14.7501,14.4376
13:16:53.440,14.2501,13
13:16:53.455,13.5626,11.8125
13:16:53.459,13,11.375
13:16:53.468,12.625,11.5
13:16:53.478,13.6251,10.4375
13:16:53.488,12.1875,9.625
13:16:53.499,12,11.25
13:16:53.508,12.6875,9.4375
13:16:53.518,12.375,8.875
13:16:53.529,12.0625,9.1875
13:16:53.539,12.625,8.75
13:16:53.548,11.75,7.25
13:16:53.558,10.4375,7.5
13:16:53.568,10.6875,4.875
13:16:53.578,9.5,2.875
13:16:53.588,8.375,0.4375
13:16:53.598,7.625,-0.5
13:16:53.608,6.375,-1.8125
13:16:53.618,6,-3.5625
13:16:53.628,5.3125,-6.5
13:16:53.649,4.125,-7.1875
13:16:53.650,3.8125,-9.3125
13:16:53.677,3.125,-11.75
13:16:53.681,2.25,-12.875
13:16:53.682,1.375,-14.6876
13:16:53.689,0.4375,-17.2501
13:16:53.717,-0.3125,-19.4376
13:16:53.721,-1.125,-20.8751
13:16:53.722,-1.75,-20.5626
13:16:53.730,-1.5,-23.3126
13:16:53.762,-2.75,-25.3126
13:16:53.763,-3.6875,-25.8126
13:16:53.766,-3.4375,-27.5626
13:16:53.771,-4.6875,-28.9376
13:16:53.796,-4.8125,-30.4376
13:16:53.800,-6.4375,-32.0626
13:16:53.801,-5.25,-33.2501
13:16:53.825,-7.0625,-35.0001
13:16:53.829,-7.375,-34.1251
13:16:53.830,-8.0625,-37.1876
13:16:53.839,-7.9375,-38.6251
13:16:53.848,-7.5,-38.3751
13:16:53.858,-7.25,-38.5626
13:16:53.868,-6.25,-35.8126
13:16:53.878,-3.1875,-30.6876
13:16:53.889,-0.75,-23.1876
13:16:53.898,4,-14.1251
13:16:53.908,7.125,-4.875
13:16:53.918,10.9375,3.4375
13:16:53.928,14.1251,10.9375
13:16:53.940,16.8126,17.0001
13:16:53.948,18.6251,23.1876
13:16:53.958,20.8126,27.1876
13:16:53.968,21.5626,30.4376
13:16:53.978,22.1876,32.0626
13:16:53.988,22.1876,32.7501
13:16:53.998,22.0626,34.1251
13:16:54.008,22.6251,33.8751
13:16:54.018,22.7501,34.1251
13:16:54.028,22.5626,34.3126
13:16:54.038,21.6251,32.6251
13:16:54.048,21.6876,32.8751
13:16:54.058,21.0626,31.3751
13:16:54.068,19.8751,30.3126
13:16:54.078,19.3751,27.3126
13:16:54.088,17.8126,25.5001
13:16:54.118,17.1876,23.1251
13:16:54.122,15.9376,20.6251
13:16:54.123,15.0626,20.2501
13:16:54.129,15.6251,18.0626
13:16:54.138,14.3751,16.3126
13:16:54.148,14.6876,17.2501
13:16:54.158,14.8751,16.6876
13:16:54.168,14.1251,16.1876
13:16:54.178,14.3751,16.5626
13:16:54.188,14.5626,15.4376
13:16:54.198,13.8751,15.4376
13:16:54.208,13.7501,15.6876
13:16:54.218,13.9376,14.8126
13:16:54.228,12.5625,12.25
13:16:54.239,11.25,12.375
13:16:54.248,11.6875,9.5625
13:16:54.285,9.8125,7.4375
13:16:54.289,9.625,6.75
13:16:54.291,8.375,4.8125
13:16:54.295,7.625,1.9375
13:16:54.304,7.5,1.8125
13:16:54.313,6.6875,-0.5
13:16:54.323,5.8125,-3.1875
13:16:54.333,4.75,-5
13:16:54.343,3.8125,-6.875
13:16:54.353,2.9375,-9.25
13:16:54.363,2.125,-11.625
13:16:54.373,1.375,-12.3125
13:16:54.394,0.9375,-14.0626
13:16:54.395,-0.25,-16.7501
13:16:54.424,-1.375,-17.3751
13:16:54.429,-1.8125,-19.3751
13:16:54.429,-3.125,-22.6251
13:16:54.433,-3.4375,-24.6251
13:16:54.469,-4.5625,-25.7501
13:16:54.470,-4.8125,-26.8126
13:16:54.473,-5.25,-29.7501
13:16:54.480,-6.3125,-29.8126
13:16:54.495,-5.9375,-31.3751
13:16:54.496,-6.875,-33.0001
13:16:54.523,-6.125,-31.6876
13:16:54.526,-4.4375,-30.1876
13:16:54.560,-2.5625,-26.4376
13:16:54.562,-0.5625,-19.5001
13:16:54.568,4.1875,-11.125
13:16:54.568,8.3125,-1.25
13:16:54.568,13.3751,9.75
13:16:54.578,17.2501,18.3126
13:16:54.590,20.3126,27.1251
13:16:54.598,23.4376,33.4376
13:16:54.608,26.3126,38.5001
13:16:54.618,27.0001,41.7502
13:16:54.628,27.5001,45.2502
13:16:54.638,28.1876,47.7502
13:16:54.648,28.0626,47.9377
13:16:54.659,29.7501,49.6877
13:16:54.668,28.1251,48.5002
13:16:54.679,28.1251,50.3752
13:16:54.689,28.6876,49.2502
13:16:54.698,27.7501,48.1252
13:16:54.708,26.6251,47.5627
13:16:54.718,26.1251,46.3127
13:16:54.734,25.6251,43.9377
13:16:54.750,24.2501,43.2502
13:16:54.753,23.7501,41.8127
13:16:54.761,23.3126,39.3752
13:16:54.769,22.9376,38.1251
13:16:54.779,22.2501,37.6876
13:16:54.790,22.3126,36.0626
13:16:54.798,21.9376,34.9376
13:16:54.808,21.0626,34.7501
13:16:54.818,21.1251,33.7501
13:16:54.828,21.6251,33.7501
13:16:54.838,21.0626,32.5626
13:16:54.848,20.5626,32.6251
13:16:54.858,21.0001,32.1251
13:16:54.868,19.7501,32.6251
13:16:54.879,19.8126,31.3126
13:16:54.888,18.9376,29.7501
13:16:54.898,18.1251,29.1251
13:16:54.908,17.1251,26.4376
13:16:54.918,16.3126,23.6876
13:16:54.929,15.8126,21.3751
13:16:54.938,14.6251,19.6876
13:16:54.951,14.3126,17.8751
13:16:54.960,13.3751,16.3751
13:16:54.969,11.8125,15.1251
13:16:54.979,11.625,12.5625
13:16:54.988,10.3125,10.1875
13:16:54.998,8.9375,8.3125
13:16:55.008,7.8125,5.9375
13:16:55.019,7.4375,3.6875
13:16:55.028,6.4375,2.25
13:16:55.038,5.625,-0.625
13:16:55.048,4.9375,-2.125
13:16:55.059,3.875,-5
13:16:55.068,2.9375,-6.875
13:16:55.078,2.1875,-9.1875
13:16:55.088,0.1875,-12.0625
13:16:55.099,0.375,-13.3126
13:16:55.109,-1,-14.9376
13:16:55.120,-1.1875,-15.6251
13:16:55.128,-1.5625,-18.2501
13:16:55.143,-1.4375,-17.5001
13:16:55.149,0.0625,-15.7501
13:16:55.180,1.8125,-11.4375
13:16:55.182,4.5625,-5
13:16:55.185,7.6875,1.625
13:16:55.191,11.5,11
13:16:55.218,15.5001,19.9376
13:16:55.221,19.4376,30.1876
13:16:55.223,22.7501,37.2501
13:16:55.231,25.6876,44.3127
13:16:55.260,27.6876,50.2502
13:16:55.263,29.8126,54.5627
13:16:55.267,30.5626,59.5002
13:16:55.295,32.1876,61.0627
13:16:55.296,32.5626,64.0627
13:16:55.298,32.8126,63.7502
13:16:55.304,33.8126,66.3128
13:16:55.309,33.7501,67.0628
13:16:55.317,34.6251,66.9378
13:16:55.329,33.3751,66.7503
13:16:55.338,33.0626,66.0628
13:16:55.350,32.2501,63.8752
13:16:55.358,30.6251,63.5627
13:16:55.369,29.3126,61.3752
13:16:55.399,28.8751,58.5002
13:16:55.401,27.8126,54.6877
13:16:55.402,26.9376,54.2502
13:16:55.409,26.5001,51.5002
13:16:55.421,25.9376,50.4377
13:16:55.428,25.1876,48.3127
13:16:55.438,24.8751,48.5627
13:16:55.449,25.0626,47.5627
13:16:55.459,23.9376,47.5627
13:16:55.468,23.7501,46.3127
13:16:55.479,23.3751,45.5627
13:16:55.490,22.9376,44.7502
13:16:55.499,22.6876,43.3752
13:16:55.508,20.9376,41.6877
13:16:55.519,20.5001,40.3127
13:16:55.528,20.1876,37.8126
13:16:55.538,18.1251,36.9376
13:16:55.550,17.3751,34.5001
13:16:55.559,16.3751,30.6251
13:16:55.569,15.3751,29.0626
13:16:55.579,14.1251,24.8751
13:16:55.588,13.3751,23.5001
13:16:55.599,12.625,21.3126
13:16:55.609,10.875,19.0001
13:16:55.618,9.4375,17.6251
13:16:55.628,8.5,12.6875
13:16:55.639,7.625,11
13:16:55.648,6.5625,9.3125
13:16:55.659,5.875,6.6875
13:16:55.669,4.8125,5
13:16:55.678,3.9375,1.4375
13:16:55.689,3.25,-0.4375
13:16:55.705,2.625,-2.1875
13:16:55.709,0.875,-3.9375
13:16:55.720,1,-6.75
13:16:55.729,-0.5,-9.6875
13:16:55.738,-1.75,-11.1875
13:16:55.749,-2.125,-13.125
13:16:55.760,-3.25,-15.2501
13:16:55.769,-3.125,-15.6876
13:16:55.778,-3.5,-17.5626
13:16:55.789,-2.9375,-16.9376
13:16:55.798,-1.0625,-13.7501
13:16:55.808,0.5625,-8.375
13:16:55.878,5.125,-0.125
13:16:55.878,8.375,9.5
13:16:55.879,12.75,18.7501
13:16:55.882,16.6876,27.3126
13:16:55.884,20.0626,38.9376
13:16:55.919,24.5001,46.1252
13:16:55.920,27.0626,54.3127
13:16:55.920,29.9376,59.6252
13:16:55.921,32.4376,65.3752
13:16:55.923,33.1876,70.0628
13:16:55.930,35.0626,72.3128
13:16:55.931,36.1876,75.0628
13:16:55.939,36.5001,78.2503
13:16:55.972,36.9376,79.7503
13:16:55.973,36.9376,80.6253
13:16:55.975,37.4376,82.0628
13:16:55.979,37.3751,81.5003
13:16:56.002,36.5626,80.5003
13:16:56.005,35.1251,79.8753
13:16:56.011,34.2501,77.0003
13:16:56.032,32.5626,74.0628
13:16:56.034,32.1876,71.5003
13:16:56.048,30.8126,69.1878
13:16:56.053,29.6876,66.3753
13:16:56.060,28.0626,65.6878
13:16:56.069,27.5626,63.2502
13:16:56.082,27.0626,61.1877
13:16:56.089,25.9376,59.4377
13:16:56.099,24.5626,58.6877
13:16:56.109,23.9376,58.3752
13:16:56.118,24.5626,57.0627
13:16:56.129,23.8751,55.5627
13:16:56.139,22.8751,54.6252
13:16:56.150,22.7501,53.0627
13:16:56.159,21.0001,52.2502
13:16:56.170,20.6876,51.0002
13:16:56.179,19.3126,47.4377
13:16:56.189,17.6876,45.0627
13:16:56.198,16.8751,43.2502
13:16:56.210,15.0001,39.8752
13:16:56.219,13.3751,36.6876
13:16:56.229,12.5625,34.0626
13:16:56.240,11.375,30.5626
13:16:56.249,9.9375,27.9376
13:16:56.259,9.4375,25.6251
13:16:56.268,7.625,22.6251
13:16:56.280,6.5625,20.4376
13:16:56.288,5.375,17.6876
13:16:56.299,3.9375,15.6251
13:16:56.309,3.1875,12.0625
13:16:56.319,2.3125,9.375
13:16:56.329,1.375,7.75
13:16:56.339,0.4375,4.4375
13:16:56.349,-0.6875,2.0625
13:16:56.359,-1.8125,-0.1875
13:16:56.369,-3.375,-2.625
13:16:56.379,-3.8125,-4.5625
13:16:56.391,-4.8125,-7.625
13:16:56.399,-6.375,-9.75
13:16:56.409,-7.125,-11.8125
13:16:56.419,-7.375,-14.3751
13:16:56.429,-7.5625,-15.0626
13:16:56.440,-7.375,-16.0626
13:16:56.449,-6.4375,-14.6251
13:16:56.463,-4.3125,-10.5625
13:16:56.469,-2.3125,-5.375
13:16:56.479,1.25,3
13:16:56.489,4.625,12.375
13:16:56.499,8.6875,21.5001
13:16:56.509,13,31.6251
13:16:56.520,17.0626,40.7502
13:16:56.529,21.6251,51.4377
13:16:56.541,25.7501,59.1877
13:16:56.572,28.9376,67.1253
13:16:56.574,31.6876,73.8128
13:16:56.577,33.9376,78.3128
13:16:56.579,34.7501,82.9378
13:16:56.613,35.3126,83.5628
13:16:56.617,35.9376,86.1878
13:16:56.618,35.6251,87.5003
13:16:56.621,36.7501,87.7503
13:16:56.650,36.5001,89.1878
13:16:56.653,35.2501,89.0628
13:16:56.657,34.8126,88.2503
13:16:56.683,33.7501,86.5628
13:16:56.683,33.3751,84.3753
13:16:56.686,31.6251,81.3753
13:16:56.692,30.6251,77.8753
13:16:56.700,28.5001,75.4378
13:16:56.725,27.1876,73.1878
13:16:56.728,27.3126,70.8753
13:16:56.730,26.1876,69.1253
13:16:56.740,24.9376,67.6253
13:16:56.751,24.1876,65.9378
13:16:56.760,23.6876,65.1252
13:16:56.769,23.1876,62.3752
13:16:56.779,21.9376,61.3127
13:16:56.789,21.3126,59.6877
13:16:56.799,20.3126,57.9377
13:16:56.809,19.8126,55.9377
13:16:56.819,19.5626,54.5627
13:16:56.829,18.6251,52.2502
13:16:56.838,17.4376,50.1252
13:16:56.849,15.5001,48.0002
13:16:56.860,15.6251,44.8752
13:16:56.869,13.5626,42.0627
13:16:56.880,11.625,38.5001
13:16:56.889,10.25,35.1251
13:16:56.900,8.4375,30.9376
13:16:56.909,7.4375,28.8751
13:16:56.920,6.5,25.1876
13:16:56.929,6,22.9376
13:16:56.939,5,19.9376
13:16:56.949,3,18.0001
13:16:56.959,2.8125,15.1251
13:16:56.969,1.5625,12.875
13:16:56.979,0.0625,10.75
13:16:56.989,-1.1875,6.75
13:16:56.999,-3.0625,4.625
13:16:57.009,-3.4375,2.5
13:16:57.019,-3.5,-0.6875
13:16:57.030,-4.75,-2.75
13:16:57.039,-4.875,-4.625
13:16:57.049,-7.25,-7.25
13:16:57.059,-8.5,-9.4375
13:16:57.069,-8.5,-13.1251
13:16:57.080,-11,-15.5626
13:16:57.089,-10.5625,-17.3126
13:16:57.099,-10.9375,-17.4376
13:16:57.109,-9.375,-15.9376
13:16:57.119,-7.8125,-14.4376
13:16:57.135,-7.9375,-11.4375
13:16:57.139,-6.0625,-6.5625
13:16:57.156,-3.5,-0.8125
13:16:57.171,-0.75,7.3125
13:16:57.172,4.1875,16.4376
13:16:57.180,10.25,29.0626
13:16:57.189,16.8126,41.5002
13:16:57.199,20.8126,54.3752
13:16:57.216,27.6876,64.6877
13:16:57.219,32.6876,75.1878
13:16:57.229,32.5001,81.5003
13:16:57.239,30.7501,84.4378
13:16:57.249,25.6876,84.6253
13:16:57.259,21.6876,83.0003
13:16:57.270,18.3126,82.5628
13:16:57.280,16.0001,80.4378
13:16:57.290,14.0626,79.7503
13:16:57.300,11.4375,76.7503
13:16:57.309,7.25,70.8753
13:16:57.327,1.6875,64.0002
13:16:57.329,-2.375,57.8752
13:16:57.394,-6,51.3752
13:16:57.395,-8.25,45.6877
13:16:57.399,-10.875,41.6252
13:16:57.399,-10.9375,37.8751
13:16:57.401,-12.8125,36.1251
13:16:57.437,-12.3125,33.3751
13:16:57.438,-12.25,33.7501
13:16:57.438,-10.5625,32.3126
13:16:57.440,-10,33.3126
13:16:57.442,-8,33.5001
13:16:57.448,-6.125,33.3751
13:16:57.451,-5.125,34.6876
13:16:57.484,-5.4375,33.6251
13:16:57.486,-5.8125,33.2501
13:16:57.488,-5.25,33.1876
13:16:57.490,-5.5625,30.8126
13:16:57.504,-6.25,28.7501
13:16:57.510,-7.375,25.2501
13:16:57.521,-9.75,21.4376
13:16:57.529,-12.4375,15.2501
13:16:57.539,-16.3751,9.875
13:16:57.549,-19.2501,2.875
13:16:57.559,-21.7501,-4.3125
13:16:57.569,-24.7501,-9.4375
13:16:57.579,-27.4376,-17.0001
13:16:57.590,-31.1876,-23.5001
13:16:57.599,-34.3126,-30.8751
13:16:57.609,-37.8751,-37.3751
13:16:57.621,-39.4377,-43.3752
13:16:57.629,-42.4377,-49.0627
13:16:57.640,-43.6877,-54.3127
13:16:57.649,-46.0002,-59.0002
13:16:57.660,-47.1877,-65.1877
13:16:57.669,-47.1877,-68.0628
13:16:57.679,-46.1877,-68.8128
13:16:57.689,-45.1252,-69.8753
13:16:57.699,-44.3127,-69.3753
13:16:57.711,-43.0627,-67.6878
13:16:57.720,-40.6877,-66.0003
13:16:57.731,-39.9377,-66.7503
13:16:57.740,-39.7502,-65.6252
13:16:57.750,-38.3751,-63.2502
13:16:57.759,-39.5627,-64.1877
13:16:57.769,-41.9377,-66.6253
13:16:57.779,-44.7502,-71.0628
13:16:57.790,-47.2502,-73.9378
13:16:57.799,-48.6877,-78.3128
13:16:57.810,-50.5627,-80.1878
13:16:57.820,-52.1877,-83.0003
13:16:57.830,-52.9377,-83.6253
13:16:57.839,-54.3127,-82.6878
13:16:57.849,-53.8752,-81.1253
13:16:57.859,-53.0627,-74.1878
13:16:57.870,-48.6877,-66.8753
13:16:57.879,-44.3127,-55.4377
13:16:57.889,-40.5002,-45.5002
13:16:57.899,-36.0626,-36.6876
13:16:57.909,-33.9376,-29.2501
13:16:57.919,-31.1251,-23.8126
13:16:57.930,-27.5001,-15.7501
13:16:57.957,-24.6876,-10.0625
13:16:57.960,-20.8751,-2.5625
13:16:57.962,-17.1876,3.25
13:16:57.969,-14.3126,9.25
13:16:57.983,-12.625,13.8126
13:16:57.989,-10.5,15.8751
13:16:57.999,-8.0625,19.8126
13:16:58.010,-6.8125,22.7501
13:16:58.019,-5.0625,26.1876
13:16:58.029,-3.6875,26.5626
13:16:58.039,-3.75,28.9376
13:16:58.049,-3.4375,28.8751
13:16:58.059,-3.625,28.8126
13:16:58.071,-3.375,27.5001
13:16:58.085,-2.4375,27.2501
13:16:58.089,-3.0625,25.9376
13:16:58.121,-2.4375,26.0626
13:16:58.122,-3.75,24.5001
13:16:58.125,-2.625,23.8751
13:16:58.131,-2.4375,23.9376
13:16:58.157,-1.25,24.3751
13:16:58.160,-1.625,25.1251
13:16:58.162,-1.125,24.3126
13:16:58.193,-1.875,24.6876
13:16:58.194,-1.25,24.3126
13:16:58.197,-2.75,22.9376
13:16:58.202,-1.125,23.5626
13:16:58.211,-2.625,21.7501
13:16:58.236,-2.0625,20.0001
13:16:58.238,-3.25,18.6251
13:16:58.241,-3.3125,15.6251
13:16:58.256,-4.875,13.5001
13:16:58.260,-6.4375,10.6875
13:16:58.274,-8.0625,6.3125
13:16:58.285,-9.75,3.3125
13:16:58.295,-11.5,-0.625
13:16:58.304,-13.3751,-2.8125
13:16:58.315,-14.8126,-7.4375
13:16:58.326,-16.7501,-9.875
13:16:58.334,-18.1876,-15.0001
13:16:58.344,-20.1251,-17.8126
13:16:58.358,-21.5626,-22.9376
13:16:58.364,-23.8751,-28.2501
13:16:58.374,-25.2501,-31.5626
13:16:58.386,-26.8126,-33.1251
13:16:58.394,-27.5626,-36.5001
13:16:58.404,-28.0001,-38.5001
13:16:58.415,-29.3126,-39.7502
13:16:58.425,-30.7501,-43.4377
13:16:58.440,-34.0626,-48.9377
13:16:58.455,-35.6251,-54.4377
13:16:58.458,-38.3751,-59.1252
13:16:58.465,-39.3127,-63.5627
13:16:58.474,-41.0002,-65.8753
13:16:58.484,-42.3752,-70.6253
13:16:58.495,-43.0627,-72.6878
13:16:58.506,-43.9377,-74.8128
13:16:58.514,-44.6252,-76.3753
13:16:58.524,-45.8127,-79.9378
13:16:58.534,-46.9377,-81.1878
13:16:58.544,-47.2502,-86.1878
13:16:58.554,-49.6252,-88.6878
13:16:58.564,-50.7502,-92.8754
13:16:58.574,-52.4377,-97.3754
13:16:58.585,-53.3752,-99.1254
13:16:58.596,-53.7502,-102.3129
13:16:58.604,-52.3127,-99.7504
13:16:58.614,-49.0627,-92.3754
13:16:58.624,-42.4377,-82.4378
13:16:58.642,-34.1876,-65.1252
13:16:58.644,-25.0626,-49.4377
13:16:58.662,-19.3126,-33.4376
13:16:58.668,-14.6251,-23.8751
13:16:58.676,-11.25,-15.1251
13:16:58.686,-8.8125,-7.625
13:16:58.694,-5.0625,-3.1875
13:16:58.704,-0.6875,3.6875
13:16:58.714,2.5625,10.1875
13:16:58.724,5.625,15.2501
13:16:58.734,7.25,19.3126
13:16:58.744,9.125,22.5626
13:16:58.755,9.8125,25.0626
13:16:58.764,11.6875,27.6251
13:16:58.775,12.75,29.6876
13:16:58.808,14.5001,31.5001
13:16:58.810,16.3126,31.8126
13:16:58.813,15.6876,33.8126
13:16:58.815,17.2501,33.5001
13:16:58.843,17.2501,36.1251
13:16:58.850,18.1251,35.3126
13:16:58.850,18.9376,35.1251
13:16:58.855,17.0001,33.3126
13:16:58.866,16.8126,31.5626
13:16:58.896,14.3751,29.8751
13:16:58.899,13.6251,27.7501
13:16:58.900,13.0625,25.5001
13:16:58.907,12.375,25.5001
13:16:58.932,13,25.8126
13:16:58.934,11.875,24.7501
13:16:58.937,11.5,23.9376
13:16:58.952,11.5625,22.8126
13:16:58.956,9.8125,21.6251
13:16:58.966,8.625,21.8751
13:16:58.974,7.625,19.6251
13:16:58.984,6.375,17.7501
13:16:58.994,6.5,15.8751
13:16:59.004,5.75,14.5626
13:16:59.014,3.8125,11.8125
13:16:59.024,2.5625,9.4375
13:16:59.034,3,6.9375
13:16:59.046,1.75,4.8125
13:16:59.055,0.75,3.1875
13:16:59.065,-0.375,-0.625
13:16:59.074,-1.8125,-1.6875
13:16:59.084,-3.0625,-6.125
13:16:59.094,-5.1875,-10.125
13:16:59.111,-6.8125,-13.5001
13:16:59.115,-8,-16.6876
13:16:59.124,-9,-19.0626
13:16:59.136,-9.875,-21.8126
13:16:59.144,-11.25,-25.0626
13:16:59.154,-13.6876,-29.3126
13:16:59.165,-15.0626,-32.8751
13:16:59.174,-18.2501,-36.3126
13:16:59.185,-19.8751,-41.7502
13:16:59.194,-22.1876,-45.7502
13:16:59.204,-23.3126,-48.7502
13:16:59.237,-24.9376,-51.3127
13:16:59.240,-25.3751,-53.3127
13:16:59.242,-26.7501,-56.8752
13:16:59.244,-27.4376,-59.5002
13:16:59.255,-27.6251,-61.3127
13:16:59.266,-29.3751,-63.1252
13:16:59.275,-29.2501,-65.5002
13:16:59.284,-28.9376,-66.7503
13:16:59.294,-30.1251,-68.6253
13:16:59.304,-30.8126,-71.0628
13:16:59.315,-31.5626,-73.6253
13:16:59.328,-32.0626,-73.6253
13:16:59.335,-31.9376,-74.5003
13:16:59.344,-30.0626,-70.7503
13:16:59.354,-25.6251,-64.3127
13:16:59.364,-19.1251,-52.9377
13:16:59.376,-12.9375,-39.5627
13:16:59.385,-6.625,-26.5001
13:16:59.394,-2.1875,-16.1876
13:16:59.405,-0.6875,-10.75
13:16:59.415,0.0625,-6.375
13:16:59.424,1.0625,-1.1875
13:16:59.434,3.75,4.1875
13:16:59.445,4.375,8.4375
13:16:59.455,6.4375,11.75
13:16:59.464,6.875,15.0001
13:16:59.474,7.9375,18.0626
13:16:59.485,8.3125,19.6876
13:16:59.502,8.25,20.5001
13:16:59.504,7.75,20.4376
13:16:59.533,8.0625,20.4376
13:16:59.537,7.75,21.6876
13:16:59.538,8.5,21.1876
13:16:59.545,8.625,20.0626
13:16:59.574,9.125,19.5001
13:16:59.576,8.3125,18.8126
13:16:59.578,8.6875,18.3751
13:16:59.587,7.75,16.5001
13:16:59.615,7.125,15.8751
13:16:59.616,6.6875,14.1876
13:16:59.618,6,12.75
13:16:59.650,5.75,13
13:16:59.652,5.5625,12.75
13:16:59.654,5.5,12.75
13:16:59.677,5.1875,12.5625
13:16:59.678,4.75,10.6875
13:16:59.681,4.6875,9.625
13:16:59.686,5.0625,10.375
13:16:59.695,4.0625,9.875
13:16:59.705,4.8125,9.75
13:16:59.715,3.3125,9.5
13:16:59.725,2.875,8.5625
13:16:59.742,3.375,7
13:16:59.757,2.3125,5.5625
13:16:59.758,1.9375,4.8125
13:16:59.767,1.125,2.1875
13:16:59.775,1.125,-0.4375
13:16:59.784,0.75,-2.125
13:16:59.794,-0.75,-4.625
13:16:59.804,-2.125,-7.1875
13:16:59.814,-3,-9.8125
13:16:59.825,-4.625,-13.1251
13:16:59.834,-6.0625,-15.5626
13:16:59.844,-6.25,-17.6876
13:16:59.861,-8.5,-20.0001
13:16:59.864,-10.875,-22.4376
13:16:59.874,-10.9375,-26.2501
13:16:59.884,-12.75,-28.5001
13:16:59.894,-13.5626,-32.8126
13:16:59.904,-14.5001,-35.3751
13:16:59.916,-16.5001,-37.5626
13:16:59.924,-18.1251,-40.2502
13:16:59.945,-18.4376,-42.2502
13:16:59.948,-19.8126,-46.5002
13:16:59.963,-21.3126,-48.3752
13:16:59.978,-23.2501,-51.6877
13:16:59.983,-23.5001,-54.2502
13:16:59.985,-25.1251,-56.6252
13:16:59.994,-25.6251,-58.9377
13:17:00.006,-27.0001,-61.1252
13:17:00.015,-28.1251,-64.1877
13:17:00.024,-29.6876,-65.4378
13:17:00.037,-30.5001,-68.7503
13:17:00.045,-31.8751,-72.1253
13:17:00.056,-32.9376,-72.1253
13:17:00.064,-32.5626,-73.2503
13:17:00.076,-30.8751,-69.0003
13:17:00.084,-27.3126,-64.9377
13:17:00.095,-24.0626,-54.9377
13:17:00.105,-18.6251,-45.4377
13:17:00.116,-14.0001,-35.0001
13:17:00.126,-8.875,-25.4376
13:17:00.135,-3.9375,-15.6876
13:17:00.145,-0.0625,-5.5
13:17:00.155,4.9375,2.0625
13:17:00.166,6.8125,9.0625
13:17:00.174,8.6875,13.4376
13:17:00.185,8.4375,17.1251
13:17:00.194,8.9375,19.1251
13:17:00.208,9.5,20.8126
13:17:00.217,9.8125,24.4376
13:17:00.240,11.6875,25.3751
13:17:00.243,12.625,29.2501
13:17:00.245,14.5626,29.3751
13:17:00.256,14.5001,31.5001
13:17:00.293,14.8751,30.8126
13:17:00.297,14.6251,32.1876
13:17:00.298,14.7501,30.2501
13:17:00.299,13.5626,29.9376
13:17:00.307,14.2501,27.8126
13:17:00.315,12.6875,27.4376
13:17:00.347,13.5626,25.6876
13:17:00.349,13.4376,24.1251
13:17:00.351,12.5,23.6251
13:17:00.355,12.8125,22.3751
13:17:00.386,11.9375,23.0001
13:17:00.388,12.4375,22.5001
13:17:00.391,11.4375,23.5626
13:17:00.397,11.0625,22.8126
13:17:00.408,10.8125,21.3126
13:17:00.415,11.0625,22.9376
13:17:00.425,11,21.1876
13:17:00.435,10.375,20.3751
13:17:00.444,10.625,19.6251
13:17:00.455,9.625,20.0001
13:17:00.464,8.4375,19.8126
13:17:00.475,8.75,18.6876
13:17:00.485,8.5,16.8751
13:17:00.518,7.9375,15.0001
13:17:00.520,6.9375,11.9375
13:17:00.522,5.375,10.125
13:17:00.528,4,7.375
13:17:00.534,2.4375,2.75
13:17:00.548,0.9375,0.3125
13:17:00.558,0.125,-2.75
13:17:00.565,-1.5625,-6.3125
13:17:00.576,-2.9375,-9.625
13:17:00.585,-4.875,-13.8751
13:17:00.597,-6.6875,-17.5001
13:17:00.604,-7.9375,-21.5626
13:17:00.616,-10.25,-25.0626
13:17:00.625,-11.625,-28.6251
13:17:00.634,-11.625,-32.0001
13:17:00.645,-13.9376,-34.5626
13:17:00.655,-16.2501,-39.3752
13:17:00.665,-18.3126,-44.6877
13:17:00.674,-20.5626,-48.6252
13:17:00.687,-22.0001,-52.4377
13:17:00.696,-23.3126,-55.1877
13:17:00.705,-23.5001,-57.7502
13:17:00.714,-25.4376,-60.0002
13:17:00.725,-26.0001,-62.4377
13:17:00.735,-26.5626,-63.7502
13:17:00.744,-28.2501,-66.0003
13:17:00.756,-29.2501,-70.2503
13:17:00.765,-29.5626,-72.2503
13:17:00.776,-31.6876,-74.6253
13:17:00.785,-31.0001,-76.2503
13:17:00.795,-30.8751,-76.1878
13:17:00.806,-31.2501,-78.3128
13:17:00.815,-30.3126,-76.5003
13:17:00.824,-28.8126,-73.1878
13:17:00.836,-25.5626,-66.0003
13:17:00.845,-18.9376,-55.0002
13:17:00.855,-14.1876,-43.1252
13:17:00.864,-9.875,-32.8751
13:17:00.875,-5.1875,-23.9376
13:17:00.884,-1.875,-14.2501
13:17:00.895,2.75,-6.375
13:17:00.906,5.0625,0.6875
13:17:00.914,7.875,6.8125
13:17:00.924,9.625,11.9375
13:17:00.935,12.375,16.9376
13:17:00.946,14.3126,20.5626
13:17:00.979,14.9376,25.2501
13:17:00.980,17.1876,27.7501
13:17:00.983,18.3751,31.0001
13:17:01.016,20.8751,33.8126
13:17:01.016,21.8751,38.1251
13:17:01.018,23.0001,39.0002
13:17:01.027,23.8126,41.7502
13:17:01.027,24.5001,41.8127
13:17:01.069,23.6876,42.9377
13:17:01.072,24.2501,40.6252
13:17:01.105,22.8126,40.0002
13:17:01.105,21.6876,38.5001
13:17:01.105,21.6876,36.1876
13:17:01.107,20.8751,34.0626
13:17:01.109,20.0001,34.0001
13:17:01.113,19.3751,31.3751
13:17:01.117,19.3751,30.7501
13:17:01.139,19.3751,30.9376
13:17:01.144,19.2501,31.8126
13:17:01.144,19.5001,32.5626
13:17:01.158,19.4376,31.0626
13:17:01.166,18.7501,31.3751
13:17:01.175,18.4376,30.0626
13:17:01.185,18.0001,29.3126
13:17:01.195,18.0001,29.0001
13:17:01.205,16.8751,26.5001
13:17:01.215,16.1251,25.0001
13:17:01.226,15.3126,23.8126
13:17:01.238,14.7501,20.8751
13:17:01.254,13.8751,19.6251
13:17:01.256,12.375,17.2501
13:17:01.272,11.1875,14.3126
13:17:01.287,9.5,12.0625
13:17:01.289,9,9.4375
13:17:01.298,7.25,7.0625
13:17:01.305,6.5625,3.75
13:17:01.315,4.4375,0.6875
13:17:01.325,3.125,-2.9375
13:17:01.335,1.3125,-6.375
13:17:01.346,0.25,-9.5
13:17:01.355,-2.3125,-12.8125
13:17:01.365,-3.8125,-16.7501
13:17:01.375,-6.4375,-20.5626
13:17:01.385,-7.3125,-24.7501
13:17:01.395,-9.9375,-29.5626
13:17:01.405,-12.375,-33.4376
13:17:01.416,-14.4376,-38.3751
13:17:01.425,-16.4376,-43.1252
13:17:01.435,-18.2501,-47.0627
13:17:01.445,-20.1251,-50.5627
13:17:01.455,-22.3751,-54.2502
13:17:01.466,-23.5001,-57.3127
13:17:01.476,-25.1876,-61.2502
13:17:01.486,-26.8126,-66.0003
13:17:01.496,-28.1251,-68.6253
13:17:01.505,-30.5626,-74.4378
13:17:01.516,-31.6251,-77.6253
13:17:01.525,-33.2501,-78.9378
13:17:01.536,-33.2501,-83.1253
13:17:01.546,-34.1251,-84.5003
13:17:01.557,-34.0001,-86.6253
13:17:01.568,-34.0626,-87.8128
13:17:01.577,-35.3126,-89.5628
13:17:01.585,-35.0626,-91.3129
13:17:01.596,-35.0626,-91.1879
13:17:01.606,-34.7501,-91.9379
13:17:01.617,-32.5001,-88.6878
13:17:01.627,-29.1251,-83.1878
13:17:01.638,-23.3126,-71.7503
13:17:01.647,-16.8126,-57.6877
13:17:01.656,-10.125,-43.8752
13:17:01.665,-2.3125,-27.4376
13:17:01.675,3.0625,-15.4376
13:17:01.686,8.0625,-3.3125
13:17:01.716,11.0625,4.4375
13:17:01.718,12.625,10.125
13:17:01.721,13.9376,14.3751
13:17:01.726,15.6251,18.5001
13:17:01.757,16.8126,24.2501
13:17:01.759,19.1251,27.1876
13:17:01.762,20.3751,30.0626
13:17:01.766,22.0626,33.0626
13:17:01.798,23.0001,35.8126
13:17:01.800,25.0626,38.5001
13:17:01.803,25.1251,40.2502
13:17:01.808,26.2501,41.9377
13:17:01.836,26.8126,42.1877
13:17:01.838,26.6876,41.1877
13:17:01.840,26.5626,42.3127
13:17:01.845,25.9376,39.8127
13:17:01.877,26.4376,39.1252
13:17:01.882,25.8126,38.1876
13:17:01.882,25.1876,38.3751
13:17:01.886,24.9376,37.8751
13:17:01.897,25.8751,36.9376
13:17:01.907,25.3751,38.3751
13:17:01.916,26.0626,38.8751
13:17:01.926,25.0626,37.7501
13:17:01.935,24.9376,38.6876
13:17:01.945,24.0001,37.3751
13:17:01.955,22.6251,36.0001
13:17:01.966,22.1251,35.0626
13:17:01.976,21.9376,34.1876
13:17:01.985,20.8126,33.8751
13:17:01.995,20.9376,32.0001
13:17:02.005,19.6251,30.8126
13:17:02.015,19.3126,27.7501
13:17:02.025,17.3126,26.1251
13:17:02.036,16.0626,24.2501
13:17:02.045,15.2501,20.2501
13:17:02.055,13.9376,17.3751
13:17:02.065,11.8125,13.7501
13:17:02.075,10.4375,11.375
13:17:02.086,9.625,8.8125
13:17:02.096,7.25,5.5
13:17:02.105,5.875,2.6875
13:17:02.116,5.25,-1.75
13:17:02.126,2.6875,-4.25
13:17:02.138,1.5,-9.0625
13:17:02.148,-0.6875,-12.25
13:17:02.157,-2.8125,-17.1876
13:17:02.167,-5,-22.6876
13:17:02.175,-7.6875,-27.5626
13:17:02.185,-9.9375,-33.5626
13:17:02.195,-12.75,-37.7501
13:17:02.206,-14.1251,-42.5627
13:17:02.216,-16.8126,-45.6877
13:17:02.225,-18.1876,-48.8127
13:17:02.235,-19.9376,-52.5627
13:17:02.245,-20.6251,-55.6252
13:17:02.256,-22.0626,-57.0002
13:17:02.266,-22.6251,-61.1252
13:17:02.280,-24.5626,-62.8752
13:17:02.290,-25.3751,-67.5003
13:17:02.300,-25.8126,-68.9378
13:17:02.310,-26.7501,-72.2503
13:17:02.321,-27.1876,-73.8753
13:17:02.330,-27.3126,-75.4378
13:17:02.340,-27.1251,-75.4378
13:17:02.355,-28.1251,-78.6253
13:17:02.418,-29.0626,-79.6878
13:17:02.423,-30.9376,-82.3753
13:17:02.425,-32.1876,-86.6253
13:17:02.427,-33.0626,-89.1253
13:17:02.428,-34.0626,-91.5629
13:17:02.466,-32.6876,-90.8754
13:17:02.466,-30.5001,-86.5628
13:17:02.466,-27.7501,-81.8753
13:17:02.469,-21.0001,-64.3127
13:17:02.470,-14.4376,-50.1877
13:17:02.476,-7.4375,-36.3126
13:17:02.476,-1.25,-21.7501
13:17:02.481,2.8125,-11.5625
13:17:02.516,6.6875,-1.125
13:17:02.520,9.375,4.375
13:17:02.521,11.5625,10.4375
13:17:02.523,13.9376,15.0001
13:17:02.546,15.2501,19.0001
13:17:02.549,16.0626,23.6251
13:17:02.552,17.3126,24.1876
13:17:02.561,18.8751,27.0626
13:17:02.580,19.8126,28.0626
13:17:02.583,21.2501,30.6251
13:17:02.593,22.0001,33.0626
13:17:02.600,23.3126,34.0001
13:17:02.615,24.9376,35.6876
13:17:02.624,23.7501,36.4376
13:17:02.631,23.1876,35.5626
13:17:02.641,23.3126,35.1251
13:17:02.651,23.9376,34.1251
13:17:02.663,22.3751,32.0001
13:17:02.673,20.6876,29.5001
13:17:02.684,21.0001,27.8751
13:17:02.693,19.8126,27.7501
13:17:02.701,19.6251,26.6251
13:17:02.710,19.7501,25.6251
13:17:02.720,20.1251,26.5626
13:17:02.730,20.0001,26.1876
13:17:02.740,20.5626,26.6876
13:17:02.750,20.0626,25.7501
13:17:02.760,19.3126,25.8126
13:17:02.771,18.3126,24.5001
13:17:02.780,18.3126,23.4376
13:17:02.791,17.2501,21.5626
13:17:02.802,17.4376,21.6876
13:17:02.812,16.9376,19.2501
13:17:02.820,15.4376,17.5626
13:17:02.831,15.6251,15.9376
13:17:02.840,14.1251,14.4376
13:17:02.850,14.4376,12.6875
13:17:02.860,14.9376,11.875
13:17:02.871,13.2501,9.4375
13:17:02.880,12.6875,7.5625
13:17:02.890,11.625,4.8125
13:17:02.900,11.5625,4.1875
13:17:02.910,10.625,1.25
13:17:02.920,10.5,0.375
13:17:02.931,9.5,-2.625
13:17:02.942,9.125,-3.3125
13:17:02.950,9,-4.5625
13:17:02.961,8.3125,-5.9375
13:17:02.970,8.125,-7.6875
13:17:02.981,7.0625,-9.25
13:17:02.991,7.5,-9.0625
13:17:03.000,10.375,-8.0625
13:17:03.010,12.375,-7.9375
13:17:03.020,11.4375,-8.375
13:17:03.031,12.625,-9.3125
13:17:03.041,13.1876,-8.5625
13:17:03.052,13.125,-10.5625
13:17:03.077,11.125,-12.3125
13:17:03.079,10.6875,-15.1876
13:17:03.084,8.5625,-17.0626
13:17:03.090,8.625,-18.9376
13:17:03.100,7.3125,-19.8126
13:17:03.110,6.6875,-23.7501
13:17:03.120,4.0625,-25.6876
13:17:03.130,3.375,-28.8751
13:17:03.142,1.6875,-30.3126
13:17:03.153,2.875,-28.5001
13:17:03.172,3.625,-25.4376
13:17:03.175,5.8125,-21.9376
13:17:03.204,8.5,-14.1251
13:17:03.205,11.9375,-4.9375
13:17:03.208,16.5626,2.625
13:17:03.211,21.6876,12.4375
13:17:03.245,27.9376,23.6876
13:17:03.248,34.5001,33.6876
13:17:03.250,40.2502,43.0627
13:17:03.253,46.0627,51.8127
13:17:03.282,49.0002,58.1877
13:17:03.284,51.7502,62.8752
13:17:03.286,52.0002,66.2503
13:17:03.292,53.4377,68.7503
13:17:03.320,54.1252,69.6878
13:17:03.322,53.4377,71.3128
13:17:03.325,53.2502,71.6253
13:17:03.341,53.3752,71.3128
13:17:03.344,53.0002,71.5628
13:17:03.350,53.5002,71.5003
13:17:03.360,51.7502,69.0628
13:17:03.370,50.0627,65.5628
13:17:03.380,48.1877,64.6877
13:17:03.390,47.0627,60.8752
13:17:03.401,45.4377,57.8127
13:17:03.416,43.6877,56.0627
13:17:03.422,43.9377,53.6252
13:17:03.431,41.4377,52.4377
13:17:03.440,40.3127,50.2502
13:17:03.450,38.5626,47.5002
13:17:03.460,36.9376,44.8127
13:17:03.471,35.4376,42.7502
13:17:03.482,32.8751,40.6877
13:17:03.492,32.2501,38.7501
13:17:03.502,31.2501,37.6251
13:17:03.510,31.3126,37.1251
13:17:03.520,30.0626,36.1251
13:17:03.530,29.0001,35.3126
13:17:03.540,28.1876,32.1251
13:17:03.550,25.8751,28.8751
13:17:03.561,24.1876,25.7501
13:17:03.571,22.4376,21.6251
13:17:03.582,20.6251,19.1251
13:17:03.590,19.3751,15.5626
13:17:03.603,18.3126,13.3126
13:17:03.611,16.5626,9.9375
13:17:03.620,15.1251,7.1875
13:17:03.631,14.0001,4.375
13:17:03.641,11.6875,1.25
13:17:03.652,10.9375,-1.25
13:17:03.670,8,-4.625
13:17:03.677,6.5,-8.0625
13:17:03.692,5.0625,-11.25
13:17:03.694,3.4375,-13.1876
13:17:03.703,2.625,-16.0626
13:17:03.710,1.5,-18.3126
13:17:03.720,0.25,-19.7501
13:17:03.733,-0.8125,-23.1876
13:17:03.740,-2.375,-25.2501
13:17:03.750,-2.9375,-26.0626
13:17:03.761,-2.625,-28.7501
13:17:03.771,-4.25,-29.4376
13:17:03.782,-4.25,-32.1876
13:17:03.794,-6.375,-34.0001
13:17:03.800,-6.0625,-36.1876
13:17:03.811,-7.1875,-36.6251
13:17:03.820,-7.5,-39.5627
13:17:03.831,-8.875,-40.8752
13:17:03.840,-9.9375,-42.3752
13:17:03.850,-9.375,-42.5002
13:17:03.862,-7.25,-38.8126
13:17:03.928,-5.375,-33.9376
13:17:03.930,-1.875,-26.0001
13:17:03.942,2,-17.3126
13:17:03.969,6.125,-6.5
13:17:03.970,9.6875,1.375
13:17:03.970,14.1876,10.25
13:17:03.971,16.8751,19.4376
13:17:03.975,20.0001,24.5001
13:17:03.978,21.6876,32.5626
13:17:03.982,24.5001,35.9376
13:17:04.013,25.1876,41.3752
13:17:04.014,27.5001,44.0002
13:17:04.017,28.4376,48.0002
13:17:04.024,29.5626,50.3127
13:17:04.051,30.9376,52.6877
13:17:04.054,30.5626,53.9377
13:17:04.056,31.2501,55.4377
13:17:04.060,30.5626,55.6252
13:17:04.073,29.8126,54.6252
13:17:04.080,28.8751,53.7502
13:17:04.090,28.1251,52.2502
13:17:04.100,26.9376,50.1252
13:17:04.110,24.4376,46.6252
13:17:04.120,23.5626,45.1877
13:17:04.130,22.9376,44.4377
13:17:04.141,22.7501,43.1877
13:17:04.151,21.4376,42.1252
13:17:04.160,20.2501,40.5627
13:17:04.176,19.3751,38.5626
13:17:04.180,18.5626,39.3126
13:17:04.190,17.1876,36.1251
13:17:04.201,16.5626,34.8751
13:17:04.211,16.1251,34.2501
13:17:04.220,14.8751,33.3126
13:17:04.230,14.0001,32.8126
13:17:04.240,13.3751,29.7501
13:17:04.250,11.6875,27.8751
13:17:04.261,11,26.3751
13:17:04.271,9.3125,22.2501
13:17:04.283,7.9375,20.5626
13:17:04.294,6.5,16.5001
13:17:04.300,5.1875,15.1876
13:17:04.310,5.0625,12.4375
13:17:04.320,3.125,10.5625
13:17:04.334,2.375,7.625
13:17:04.358,1.25,5.1875
13:17:04.360,0.625,3.125
13:17:04.363,-0.875,0.9375
13:17:04.371,-2.5,-1.25
13:17:04.380,-2.8125,-4.375
13:17:04.390,-5.0625,-6.3125
13:17:04.401,-6.0625,-8
13:17:04.415,-6.4375,-11.625
13:17:04.421,-7.5625,-14.0626
13:17:04.430,-8.4375,-15.8126
13:17:04.440,-9.9375,-17.0626
13:17:04.451,-11,-18.1876
13:17:04.460,-11.375,-21.5626
13:17:04.470,-12.75,-23.0001
13:17:04.480,-12.875,-25.1876
13:17:04.490,-14.5626,-27.9376
13:17:04.501,-14.8126,-29.1251
13:17:04.511,-15.7501,-29.9376
13:17:04.523,-15.6876,-30.6876
13:17:04.531,-14.6251,-29.3751
13:17:04.540,-12.6875,-26.0001
13:17:04.550,-10.875,-20.6251
13:17:04.561,-7.375,-13.9376
13:17:04.572,-4.125,-4.0625
13:17:04.580,-0.25,3.4375
13:17:04.590,3.75,13.8126
13:17:04.600,7.5,23.3751
13:17:04.610,12.5,32.6876
13:17:04.620,14.6251,40.1252
13:17:04.646,18.4376,47.1877
13:17:04.648,20.0626,53.8752
13:17:04.651,22.5001,58.9377
13:17:04.686,24.5626,64.6252
13:17:04.688,25.5626,68.7503
13:17:04.690,27.8126,72.5628
13:17:04.693,29.1876,77.6253
13:17:04.726,30.4376,80.6253
13:17:04.728,32.4376,83.6878
13:17:04.729,31.3751,85.1878
13:17:04.740,32.6876,86.1878
13:17:04.742,31.3751,86.2503
13:17:04.778,30.9376,85.8128
13:17:04.780,30.3126,83.4378
13:17:04.782,27.7501,81.2503
13:17:04.784,26.8751,78.1878
13:17:04.809,24.6876,75.8128
13:17:04.812,23.6876,73.9378
13:17:04.814,22.5001,72.3128
13:17:04.821,21.8751,69.6878
13:17:04.830,20.8126,69.2503
13:17:04.841,20.0626,66.5628
13:17:04.853,18.6876,65.2502
13:17:04.865,18.5001,63.8752
13:17:04.872,17.8751,62.5002
13:17:04.880,16.8126,60.1877
13:17:04.891,15.8751,59.1252
13:17:04.903,14.5001,58.7502
13:17:04.911,14.5001,56.3752
13:17:04.926,12.75,53.7502
13:17:04.930,11.1875,52.1877
13:17:04.941,10.625,48.8127
13:17:04.951,8.6875,47.8752
13:17:04.962,7.3125,44.3127
13:17:04.978,5.9375,40.7502
13:17:04.985,5.4375,38.0001
13:17:05.000,4.5625,36.0626
13:17:05.004,2.375,33.1876
13:17:05.018,0.5,30.0626
13:17:05.020,-0.625,25.8751
13:17:05.032,-2.375,22.1876
13:17:05.042,-4.125,20.1251
13:17:05.052,-5.25,17.1251
13:17:05.060,-6.1875,14.1251
13:17:05.072,-6.875,11.75
13:17:05.080,-8.3125,8.875
13:17:05.092,-9.375,6.6875
13:17:05.102,-11.125,4.75
13:17:05.110,-11.375,2.0625
13:17:05.122,-13,-0.5625
13:17:05.130,-14.5001,-3.0625
13:17:05.141,-15.4376,-4.9375
13:17:05.153,-16.6876,-8.375
13:17:05.164,-17.6876,-10.125
13:17:05.170,-18.1251,-11.3125
13:17:05.182,-18.6876,-14.9376
13:17:05.190,-19.9376,-14.5001
13:17:05.201,-20.3126,-18.3751
13:17:05.210,-21.8126,-19.7501
13:17:05.227,-22.2501,-23.0001
13:17:05.245,-23.7501,-24.0001
13:17:05.246,-24.1876,-26.3751
13:17:05.255,-24.5001,-26.2501
13:17:05.262,-23.2501,-27.4376
13:17:05.271,-21.5001,-25.2501
13:17:05.282,-19.8126,-21.4376
13:17:05.310,-17.1251,-14.8751
13:17:05.313,-13.6251,-6.5
13:17:05.315,-10.25,4
13:17:05.322,-6,12.25
13:17:05.358,-1.125,22.3751
13:17:05.360,2.1875,32.1251
13:17:05.361,6.3125,41.6877
13:17:05.364,10,50.8127
13:17:05.370,13.1251,57.5002
13:17:05.402,16.1876,65.3128
13:17:05.404,18.0001,69.7503
13:17:05.406,19.9376,76.1878
13:17:05.412,21.3751,79.7503
13:17:05.448,22.6876,82.5003
13:17:05.450,24.7501,87.0003
13:17:05.452,24.0001,89.0003
13:17:05.455,24.6251,91.1254
13:17:05.479,25.1251,92.7504
13:17:05.481,24.4376,91.7504
13:17:05.484,23.6251,91.3129
13:17:05.492,21.3751,89.1253
13:17:05.502,19.4376,87.3128
13:17:05.512,17.6251,82.8753
13:17:05.521,16.0626,81.2503
13:17:05.532,14.6251,77.5003
13:17:05.540,13,74.8753
13:17:05.551,11.375,72.0003
13:17:05.561,10.125,70.0628
13:17:05.575,9.75,67.8128
13:17:05.581,8.0625,66.5628
13:17:05.592,7.3125,64.3752
13:17:05.600,6.25,62.5627
13:17:05.612,5,61.6252
13:17:05.637,4.6875,58.8752
13:17:05.639,2.8125,56.3752
13:17:05.644,1.875,54.3752
13:17:05.652,-0.9375,49.9377
13:17:05.662,-1.875,48.2502
13:17:05.670,-3.875,44.3752
13:17:05.682,-5.875,41.7502
13:17:05.695,-7.1875,37.2501
13:17:05.700,-9.5625,34.6251
13:17:05.710,-10.5625,29.6876
13:17:05.722,-12.5,27.1251
13:17:05.733,-13.8751,23.3751
13:17:05.741,-15.5001,20.7501
13:17:05.752,-17.0626,16.5626
13:17:05.760,-17.6876,14.1876
13:17:05.771,-18.8751,10.6875
13:17:05.783,-20.5001,7.5625
13:17:05.790,-21.9376,4.375
13:17:05.801,-23.2501,1.5625
13:17:05.811,-23.0626,-0.125
13:17:05.820,-25.7501,-3.9375
13:17:05.832,-25.8126,-6.5
13:17:05.842,-27.5626,-9.625
13:17:05.853,-28.6876,-12.5
13:17:05.862,-29.0626,-13.6876
13:17:05.872,-29.3126,-15.8751
13:17:05.882,-30.3751,-18.0001
13:17:05.895,-31.1876,-19.6876
13:17:05.901,-31.2501,-21.5001
13:17:05.910,-31.7501,-23.3126
13:17:05.922,-32.0001,-25.0626
13:17:05.932,-33.0626,-26.7501
13:17:05.943,-34.1876,-29.3751
13:17:05.951,-34.1251,-30.8126
13:17:05.961,-35.5626,-33.2501
13:17:05.973,-35.8751,-35.8751
13:17:05.981,-36.8751,-37.2501
13:17:05.992,-37.8126,-40.3127
13:17:06.002,-39.0626,-42.3127
13:17:06.011,-39.6877,-45.1252
13:17:06.022,-39.7502,-46.6877
13:17:06.032,-41.6252,-47.5627
13:17:06.041,-41.6877,-50.8127
13:17:06.052,-41.6252,-50.3752
13:17:06.084,-41.3127,-50.7502
13:17:06.086,-38.7501,-48.1877
13:17:06.088,-37.6251,-43.4377
13:17:06.090,-34.7501,-36.6251
13:17:06.125,-31.0626,-28.1251
13:17:06.129,-25.6251,-17.1251
13:17:06.130,-21.3126,-7.375
13:17:06.157,-17.2501,2.5
13:17:06.160,-13,13
13:17:06.160,-9.875,21.8126
13:17:06.167,-5.1875,29.3126
13:17:06.181,-0.75,37.8751
13:17:06.183,-0.0625,43.4377
13:17:06.211,2,47.6877
13:17:06.213,3,52.0627
13:17:06.215,3.5625,54.8127
13:17:06.222,5.4375,57.5627
13:17:06.232,4.9375,62.2502
13:17:06.243,5.0625,61.4377
13:17:06.252,6.375,63.8752
13:17:06.262,5.4375,64.8752
13:17:06.272,5.5,64.3752
13:17:06.287,5.1875,64.6252
13:17:06.302,3.6875,62.6877
13:17:06.318,3.3125,61.4377
13:17:06.320,1.9375,59.1877
13:17:06.326,1,57.3752
13:17:06.337,-0.625,53.8752
13:17:06.347,-1.5625,52.1252
13:17:06.359,-2.4375,49.0002
13:17:06.366,-3.3125,49.0002
13:17:06.377,-4.125,46.6252
13:17:06.386,-5.5625,45.0627
13:17:06.398,-6.0625,43.6252
13:17:06.406,-5.875,42.0002
13:17:06.416,-6.9375,41.3127
13:17:06.426,-7.9375,39.6252
13:17:06.436,-8.4375,38.1876
13:17:06.449,-10.0625,36.0626
13:17:06.457,-10.5625,33.5001
13:17:06.466,-12.5625,30.6876
13:17:06.476,-13.2501,28.3751
13:17:06.488,-14.6876,25.0626
13:17:06.497,-16.5001,23.3126
13:17:06.506,-17.3751,18.4376
13:17:06.516,-18.4376,16.8751
13:17:06.537,-19.8126,13.3126
13:17:06.540,-21.6251,9.875
13:17:06.549,-22.3751,7.6875
13:17:06.556,-24.0001,3.5
13:17:06.571,-24.7501,2.0625
13:17:06.579,-25.5626,-2.0625
13:17:06.587,-27.5626,-5.1875
13:17:06.597,-28.0626,-7.5625
13:17:06.606,-29.7501,-10.625
13:17:06.618,-30.8126,-13.5001
13:17:06.629,-31.3751,-15.2501
13:17:06.637,-32.5001,-19.0001
13:17:06.647,-33.7501,-21.2501
13:17:06.657,-34.5626,-23.6251
13:17:06.667,-35.6251,-27.2501
13:17:06.677,-37.0626,-29.1876
13:17:06.687,-37.8126,-32.0626
13:17:06.696,-38.5001,-34.4376
13:17:06.708,-39.5002,-35.1251
13:17:06.717,-39.5002,-38.5626
13:17:06.727,-40.5627,-39.6252
13:17:06.737,-41.2502,-41.7502
13:17:06.748,-41.3752,-44.6252
13:17:06.757,-42.7502,-45.8127
13:17:06.767,-42.5627,-46.8752
13:17:06.777,-42.3127,-49.8127
13:17:06.788,-43.5627,-50.8127
13:17:06.797,-43.7502,-53.0627
13:17:06.807,-43.6252,-55.1877
13:17:06.817,-45.0627,-56.6252
13:17:06.827,-44.8752,-59.3127
13:17:06.838,-46.5002,-60.2502
13:17:06.865,-45.8752,-63.1877
13:17:06.866,-45.9377,-64.5002
13:17:06.870,-46.8752,-65.5627
13:17:06.876,-46.6252,-65.8753
13:17:06.907,-45.6877,-64.6877
13:17:06.909,-43.8127,-61.8127
13:17:06.912,-41.3752,-57.0002
13:17:06.926,-39.0626,-48.4377
13:17:06.929,-34.5001,-40.4377
13:17:06.965,-31.2501,-30.2501
13:17:06.967,-26.6876,-21.8751
13:17:06.969,-21.8751,-12.625
13:17:06.972,-18.5626,-3.1875
13:17:06.977,-14.6876,5
13:17:07.006,-12.0625,12
13:17:07.009,-9.5625,17.1876
13:17:07.011,-7.6875,22.3126
13:17:07.017,-6,25.7501
13:17:07.034,-3.4375,29.9376
13:17:07.036,-4,33.5001
13:17:07.046,-2.875,34.1251
13:17:07.056,-1.875,36.3751
13:17:07.069,-1.9375,38.3126
13:17:07.076,-1,39.5002
13:17:07.086,-1.5625,40.4377
13:17:07.096,-1.6875,38.6251
13:17:07.107,-2,38.6251
13:17:07.117,-3.6875,36.3751
13:17:07.127,-4.0625,34.3126
13:17:07.140,-4.875,32.1876
13:17:07.146,-6.4375,30.0001
13:17:07.157,-6.5,28.6876
13:17:07.167,-7.0625,27.6251
13:17:07.177,-7.6875,26.2501
13:17:07.187,-8.25,25.4376
13:17:07.196,-8.375,23.6251
13:17:07.207,-8.6875,23.5001
13:17:07.218,-9.875,23.0626
13:17:07.226,-9.375,22.0001
13:17:07.237,-10.4375,20.6876
13:17:07.247,-9.5625,19.6251
13:17:07.260,-10.9375,19.3126
13:17:07.267,-11.9375,16.0001
13:17:07.277,-12.25,15.0001
13:17:07.287,-13.6251,12.4375
13:17:07.296,-13.7501,11.75
13:17:07.307,-14.6876,8.0625
13:17:07.316,-15.9376,6.5
13:17:07.328,-15.7501,4.125
13:17:07.337,-16.6251,1.875
13:17:07.346,-18.4376,-1.25
13:17:07.356,-19.5626,-3.8125
13:17:07.368,-21.1251,-7.3125
13:17:07.376,-21.6251,-8.9375
13:17:07.387,-21.7501,-11
13:17:07.398,-23.0626,-13.6876
13:17:07.413,-24.3751,-16.0001
13:17:07.416,-24.0626,-18.3126
13:17:07.426,-25.3751,-20.9376
13:17:07.437,-25.9376,-21.6876
13:17:07.446,-26.1876,-25.5626
13:17:07.456,-27.0626,-25.7501
13:17:07.466,-27.5626,-28.3126
13:17:07.479,-27.6251,-29.3751
13:17:07.486,-28.4376,-30.9376
13:17:07.497,-29.0001,-31.3751
13:17:07.507,-28.4376,-33.4376
13:17:07.517,-30.0626,-34.8751
13:17:07.526,-29.8751,-36.0626
13:17:07.550,-30.3751,-37.6251
13:17:07.553,-30.5626,-39.0001
13:17:07.562,-31.0001,-40.5627
13:17:07.569,-31.6876,-41.9377
13:17:07.596,-31.8751,-44.1877
13:17:07.633,-33.1251,-44.8752
13:17:07.636,-32.6251,-47.6252
13:17:07.640,-33.9376,-49.0002
13:17:07.642,-34.5626,-50.5627
13:17:07.642,-34.9376,-52.8752
13:17:07.649,-35.6251,-54.3752
13:17:07.676,-35.5626,-56.4377
13:17:07.681,-36.3751,-57.3127
13:17:07.682,-36.5626,-57.4377
13:17:07.686,-36.0001,-58.6252
13:17:07.713,-35.2501,-56.1252
13:17:07.715,-32.9376,-52.8127
13:17:07.718,-30.8751,-46.2502
13:17:07.727,-27.4376,-38.7501
13:17:07.736,-23.0001,-30.8126
13:17:07.748,-19.5626,-20.4376
13:17:07.757,-15.7501,-11.625
13:17:07.767,-10.875,-2.8125
13:17:07.776,-8.25,5.6875
13:17:07.788,-5.8125,11.8125
13:17:07.797,-2.8125,17.0626
13:17:07.806,-0.25,27.5626
13:17:07.817,1.75,31.1251
13:17:07.829,2.6875,32.0626
13:17:07.837,4.0625,35.7501
13:17:07.856,4.5,38.0001
13:17:07.858,5.0625,38.9376
13:17:07.874,5.5625,40.8127
13:17:07.877,5.375,40.5002
13:17:07.887,5.125,39.7502
13:17:07.899,4.8125,39.6252
13:17:07.907,3.6875,37.2501
13:17:07.917,3.3125,36.4376
13:17:07.926,1.5,34.5626
13:17:07.937,1.625,32.6876
13:17:07.948,1,30.6876
13:17:07.957,-0.3125,28.8126
13:17:07.967,-0.0625,27.3751
13:17:07.977,-1.3125,26.3126
13:17:07.987,-1.875,25.5626
13:17:07.997,-1.5625,24.9376
13:17:08.006,-1.6875,24.5001
13:17:08.018,-2.5625,24.2501
13:17:08.027,-3.0625,23.2501
13:17:08.037,-3.4375,21.2501
13:17:08.047,-4.1875,20.0626
13:17:08.057,-5.25,18.0001
13:17:08.067,-5.875,16.3126
13:17:08.077,-6.75,14.7501
13:17:08.087,-7.9375,12.125
13:17:08.097,-9,9.0625
13:17:08.107,-10.1875,7.5
13:17:08.117,-10.4375,5.125
13:17:08.127,-12.25,2.625
13:17:08.136,-12.875,0.25
13:17:08.146,-13.6876,-2.9375
13:17:08.163,-15.1876,-4.9375
13:17:08.167,-16.1876,-6.4375
13:17:08.197,-16.3126,-10.0625
13:17:08.201,-17.3751,-10.5625
13:17:08.202,-18.4376,-14.3126
13:17:08.207,-19.1251,-15.4376
13:17:08.216,-19.5626,-17.3126
13:17:08.227,-20.3126,-19.7501
13:17:08.236,-21.6251,-20.8126
13:17:08.249,-21.3126,-22.7501
13:17:08.257,-22.0626,-24.8751
13:17:08.267,-22.7501,-25.9376
13:17:08.277,-22.7501,-27.2501
13:17:08.312,-23.6251,-28.8751
13:17:08.316,-23.8126,-30.6876
13:17:08.318,-24.6876,-32.3126
13:17:08.320,-26.0626,-33.4376
13:17:08.327,-25.6251,-36.0626
13:17:08.363,-26.8751,-37.0626
13:17:08.365,-26.9376,-38.5626
13:17:08.367,-27.0001,-40.8752
13:17:08.369,-28.0626,-40.8752
13:17:08.408,-28.5626,-43.1252
13:17:08.408,-27.7501,-44.0002
13:17:08.412,-27.8751,-44.8752
13:17:08.413,-27.9376,-43.4377
13:17:08.420,-26.3751,-42.3127
13:17:08.456,-23.8126,-36.7501
13:17:08.457,-21.1251,-31.3751
13:17:08.459,-18.6876,-23.1251
13:17:08.462,-15.1251,-15.0001
13:17:08.468,-11.75,-5.875
13:17:08.477,-7.75,3.1875
13:17:08.487,-3.6875,11
13:17:08.497,-0.5,19.5001
13:17:08.507,1.625,25.2501
13:17:08.519,3.25,31.3126
13:17:08.526,4.9375,34.6251
13:17:08.541,6.75,38.8126
13:17:08.547,8,40.9377
13:17:08.557,8.125,43.1877
13:17:08.567,9.25,44.8752
13:17:08.576,10.25,47.5002
13:17:08.587,10.375,48.1252
13:17:08.597,10.5,48.0627
13:17:08.606,9.375,47.7502
13:17:08.616,9.3125,47.0627
13:17:08.626,8.1875,45.8752
13:17:08.636,8,42.3127
13:17:08.648,5.4375,40.8127
13:17:08.656,4.9375,36.1876
13:17:08.667,3.6875,35.6876
13:17:08.677,3.125,32.8126
13:17:08.689,1.875,31.6251
13:17:08.697,1.875,29.8126
13:17:08.707,0.875,29.7501
13:17:08.717,0.6875,28.3751
13:17:08.727,0.125,28.5001
13:17:08.737,0.75,26.3126
13:17:08.746,-0.3125,26.5626
13:17:08.759,-0.875,25.2501
13:17:08.767,-1.25,24.0626
13:17:08.777,-1.75,23.1251
13:17:08.786,-2.3125,20.6251
13:17:08.797,-3.3125,19.4376
13:17:08.806,-4.25,16.3126
13:17:08.816,-4.8125,14.4376
13:17:08.827,-5.6875,11.75
13:17:08.837,-7.625,8.875
13:17:08.846,-8.4375,6.75
13:17:08.857,-9.6875,3.4375
13:17:08.866,-10.5625,1.375
13:17:08.889,-11.125,-0.8125
13:17:08.894,-11.375,-2.1875
13:17:08.909,-11.125,-5.4375
13:17:08.917,-13.0625,-8.5
13:17:08.921,-14.5001,-10.5625
13:17:08.928,-14.7501,-11.3125
13:17:08.937,-15.3126,-14.1876
13:17:08.949,-16.6876,-15.5626
13:17:08.956,-16.8126,-18.1876
13:17:08.966,-18.0626,-21.0001
13:17:08.977,-19.0626,-20.0626
13:17:09.009,-19.0001,-24.0626
13:17:09.010,-20.0001,-25.6251
13:17:09.013,-20.1876,-25.8126
13:17:09.018,-21.0626,-29.2501
13:17:09.047,-22.0001,-31.1876
13:17:09.049,-23.2501,-31.8126
13:17:09.051,-23.0626,-34.5001
13:17:09.058,-23.5001,-36.5001
13:17:09.084,-23.5001,-36.9376
13:17:09.087,-23.8126,-38.4376
13:17:09.089,-23.8751,-38.8751
13:17:09.120,-23.1251,-38.0626
13:17:09.123,-21.5626,-33.8751
13:17:09.126,-19.6251,-29.1876
13:17:09.128,-16.0626,-20.1876
13:17:09.170,-11.9375,-12.125
13:17:09.173,-8.3125,-2.3125
13:17:09.175,-3.75,7.5
13:17:09.180,-0.75,18.0626
13:17:09.180,4.0625,27.0001
13:17:09.187,6.8125,34.5626
13:17:09.199,9.5625,42.4377
13:17:09.207,12.5,47.2502
13:17:09.218,14.1876,52.6877
13:17:09.227,16.1251,56.6877
13:17:09.236,16.9376,60.6877
13:17:09.248,18.4376,62.6252
13:17:09.257,18.3751,65.4378
13:17:09.267,18.8126,65.6253
13:17:09.276,18.6251,67.3128
13:17:09.291,18.7501,67.6253
13:17:09.297,18.5001,66.8753
13:17:09.306,17.5626,66.0003
13:17:09.317,16.1251,64.2502
13:17:09.327,14.6251,62.0627
13:17:09.337,14.6876,59.0627
13:17:09.348,12.375,55.9377
13:17:09.356,10.875,54.4377
13:17:09.367,9.375,50.6877
13:17:09.376,9.0625,48.8127
13:17:09.389,8,46.9377
13:17:09.397,7.75,46.1877
13:17:09.406,7.3125,45.6877
13:17:09.418,6.75,44.7502
13:17:09.427,5.375,43.8127
13:17:09.437,4.8125,41.6877
13:17:09.448,4.4375,40.6252
13:17:09.477,4.25,39.8752
13:17:09.479,2.875,36.6251
13:17:09.481,1.875,34.5001
13:17:09.488,1.25,31.7501
13:17:09.497,-0.25,30.0626
13:17:09.506,-1.8125,26.6876
13:17:09.517,-2.5,23.0626
13:17:09.529,-4.5625,20.8126
13:17:09.536,-5.125,17.6876
13:17:09.546,-6.375,15.7501
13:17:09.558,-7.1875,11.1875
13:17:09.567,-9.0625,8.5
13:17:09.577,-9.8125,6.0625
13:17:09.588,-10.5,2.75
13:17:09.597,-11.375,0.25
13:17:09.607,-12.4375,-1.8125
13:17:09.616,-13.7501,-3.875
13:17:09.627,-14.3126,-6.75
13:17:09.637,-15.0626,-8
13:17:09.647,-15.3751,-10.625
13:17:09.657,-16.4376,-11.625
13:17:09.668,-17.8126,-15.6251
13:17:09.698,-18.0626,-16.3751
13:17:09.700,-19.6876,-19.0001
13:17:09.703,-19.3126,-21.4376
13:17:09.708,-20.8126,-23.9376
13:17:09.733,-21.5001,-25.4376
13:17:09.737,-21.7501,-28.2501
13:17:09.739,-23.1876,-28.8126
13:17:09.750,-23.6251,-31.9376
13:17:09.776,-23.7501,-33.9376
13:17:09.778,-23.7501,-34.0001
13:17:09.781,-23.9376,-35.5001
13:17:09.809,-23.6876,-33.0626
13:17:09.812,-21.8126,-31.3126
13:17:09.816,-19.6251,-25.7501
13:17:09.818,-15.6251,-17.2501
13:17:09.847,-11.5,-7.125
13:17:09.849,-7.9375,3.0625
13:17:09.851,-3.3125,13.8751
13:17:09.863,1.1875,24.4376
13:17:09.871,4.4375,34.1251
13:17:09.877,9.125,43.1252
13:17:09.887,11.5,50.3127
13:17:09.900,14.3751,58.5002
13:17:09.906,17.0001,62.4377
13:17:09.916,17.6876,68.3753
13:17:09.927,19.8751,71.4378
13:17:09.936,20.3126,74.6253
13:17:09.947,21.4376,77.3753
13:17:09.959,22.1876,79.3128
13:17:09.967,22.1876,81.6878
13:17:09.977,22.5626,83.4378
13:17:09.988,21.8751,83.6878
13:17:09.996,20.1876,83.5003
13:17:10.006,19.6251,79.9378
13:17:10.020,18.1251,76.8753
13:17:10.027,16.8751,74.9378
13:17:10.039,15.8751,71.8128
13:17:10.049,13.8751,68.3128
13:17:10.057,12.625,66.1253
13:17:10.067,11.3125,62.8752
13:17:10.078,9.875,61.5002
13:17:10.087,9.0625,58.6877
13:17:10.098,8.625,58.0627
13:17:10.108,7.8125,54.8127
13:17:10.118,6.4375,54.2502
13:17:10.127,5.8125,51.2502
13:17:10.138,4.8125,50.9377
13:17:10.147,4.0625,47.6877
13:17:10.158,3.1875,46.2502
13:17:10.169,1.75,43.0627
13:17:10.189,1.3125,41.5627
13:17:10.192,-0.3125,38.0626
13:17:10.206,-2.3125,35.3126
13:17:10.209,-2.9375,31.0001
13:17:10.217,-4.75,27.9376
13:17:10.228,-6,25.1251
13:17:10.237,-7.9375,22.1251
13:17:10.248,-8.5,18.2501
13:17:10.260,-10.3125,15.1251
13:17:10.268,-10.1875,11.8125
13:17:10.277,-12.8125,9.9375
13:17:10.286,-13.1251,5.875
13:17:10.298,-15.4376,3.25
13:17:10.306,-15.1251,0.25
13:17:10.323,-17.3751,-2.6875
13:17:10.334,-17.5626,-5.1875
13:17:10.342,-19.0626,-7.625
13:17:10.353,-20.1876,-9.8125
13:17:10.363,-20.2501,-12.9375
13:17:10.372,-21.3126,-15.8126
13:17:10.382,-22.1251,-16.9376
13:17:10.396,-23.5001,-19.4376
13:17:10.402,-24.1251,-21.8751
13:17:10.416,-25.0626,-24.3126
13:17:10.426,-24.8751,-26.3126
13:17:10.433,-26.6251,-28.0626
13:17:10.465,-26.7501,-30.6876
13:17:10.469,-27.3751,-31.1876
13:17:10.494,-28.0626,-34.5626
13:17:10.496,-28.7501,-36.4376
13:17:10.496,-30.4376,-39.3127
13:17:10.499,-30.7501,-41.5627
13:17:10.528,-30.6876,-43.8752
13:17:10.529,-31.3751,-43.6252
13:17:10.532,-31.1876,-46.0002
13:17:10.538,-29.3751,-44.1252
13:17:10.542,-28.7501,-40.7502
13:17:10.570,-26.0001,-36.0626
13:17:10.573,-22.0626,-26.0626
13:17:10.576,-18.1251,-16.8126
13:17:10.604,-13.8126,-4.875
13:17:10.605,-8.4375,8.375
13:17:10.609,-3.25,18.4376
13:17:10.613,0.375,30.8751
13:17:10.628,4.625,42.0627
13:17:10.633,8.625,50.5627
13:17:10.643,12.0625,59.8752
13:17:10.653,15.3126,66.2503
13:17:10.663,16.7501,71.3753
13:17:10.675,18.1876,76.6253
13:17:10.683,19.5001,80.7503
13:17:10.693,20.5001,85.0628
13:17:10.705,21.8751,87.3753
13:17:10.713,22.1251,89.7503
13:17:10.723,23.0626,91.5629
13:17:10.735,22.1876,92.3754
13:17:10.757,21.9376,92.2504
13:17:10.760,21.0626,90.5629
13:17:10.764,19.1876,89.2503
13:17:10.773,18.0626,85.0003
13:17:10.783,16.3126,81.3128
13:17:10.793,14.4376,79.0003
13:17:10.803,13.1251,74.5003
13:17:10.813,10.8125,71.1878
13:17:10.825,9.3125,68.2503
13:17:10.833,7.75,66.0628
13:17:10.843,7.25,62.8127
13:17:10.853,6.25,61.7502
13:17:10.863,5.3125,59.3752
13:17:10.873,4.6875,57.3752
13:17:10.883,3.5,54.7502
13:17:10.893,2.375,53.6252
13:17:10.903,1.8125,50.3752
13:17:10.913,0.125,48.0627
13:17:10.923,-1.25,45.1877
13:17:10.933,-2.8125,41.5627
13:17:10.942,-4.0625,38.5626
13:17:10.953,-5.125,35.4376
13:17:10.963,-6.75,32.3751
13:17:10.973,-9.0625,28.6876
13:17:10.983,-9.8125,23.8126
13:17:10.995,-11.8125,20.5001
13:17:11.003,-13.3751,16.3126
13:17:11.012,-14.7501,12.3125
13:17:11.025,-16.7501,8.5625
13:17:11.033,-18.0626,4.8125
13:17:11.043,-19.1876,2.375
13:17:11.053,-20.1251,-2.0625
13:17:11.063,-21.2501,-5.25
13:17:11.073,-22.1251,-7.875
13:17:11.083,-24.3126,-11
13:17:11.093,-24.6876,-14.2501
13:17:11.104,-26.0626,-16.3126
13:17:11.113,-26.6876,-19.3751
13:17:11.123,-27.6251,-21.8126
13:17:11.135,-28.5001,-24.9376
13:17:11.143,-29.1251,-26.3751
13:17:11.153,-29.6876,-29.3751
13:17:11.168,-30.1251,-30.5001
13:17:11.173,-30.9376,-34.3126
13:17:11.183,-32.3126,-35.6251
13:17:11.193,-32.4376,-38.0626
13:17:11.203,-33.6251,-38.7501
13:17:11.228,-33.4376,-41.6877
13:17:11.232,-34.1876,-43.7502
13:17:11.233,-35.6251,-44.8752
13:17:11.264,-35.0001,-47.6252
13:17:11.267,-36.7501,-48.6252
13:17:11.269,-36.4376,-51.8752
13:17:11.273,-36.8751,-53.1877
13:17:11.299,-38.2501,-55.6252
13:17:11.303,-38.3751,-58.0002
13:17:11.304,-39.6877,-60.3127
13:17:11.335,-39.8752,-61.9377
13:17:11.337,-40.7502,-64.1877
13:17:11.339,-40.5627,-65.4378
13:17:11.345,-40.0627,-66.0628
13:17:11.353,-38.3126,-63.0002
13:17:11.385,-36.1876,-59.8127
13:17:11.388,-33.6876,-51.5002
13:17:11.392,-29.1251,-42.5002
13:17:11.393,-23.8126,-30.1251
13:17:11.403,-18.2501,-17.6251
13:17:11.413,-12.75,-3.375
13:17:11.425,-7,10.5
13:17:11.433,-2.125,21.6251
13:17:11.443,2.625,33.1251
13:17:11.453,6.8125,42.7502
13:17:11.463,9.875,52.8127
13:17:11.487,13.0625,59.4377
13:17:11.491,15.0626,65.7503
13:17:11.494,17.3751,71.9378
13:17:11.512,19.4376,75.0628
13:17:11.514,20.0626,79.8753
13:17:11.523,21.0001,82.4378
13:17:11.533,21.6251,86.3753
13:17:11.544,22.2501,87.7503
13:17:11.553,22.2501,89.3753
13:17:11.564,21.6251,88.7503
13:17:11.576,20.7501,88.5628
13:17:11.583,19.0001,85.6878
13:17:11.593,17.5001,83.2503
13:17:11.603,15.8126,79.4378
13:17:11.613,13.8751,76.5003
13:17:11.623,12.3125,71.8128
13:17:11.633,10.0625,68.6253
13:17:11.643,9.25,64.8752
13:17:11.654,7.375,61.8752
13:17:11.663,5.875,59.7502
13:17:11.673,4.125,57.3752
13:17:11.685,3.9375,54.6252
13:17:11.693,2.6875,53.6877
13:17:11.703,2.625,50.7502
13:17:11.716,1.4375,49.9377
13:17:11.723,0.75,47.6252
13:17:11.745,-0.375,45.8127
13:17:11.748,-0.1875,43.8127
13:17:11.762,-1.5,41.7502
13:17:11.765,-2.6875,39.3127
13:17:11.773,-4.0625,35.0001
13:17:11.784,-9.1875,29.0626
13:17:11.793,-12.125,23.6251
13:17:11.803,-19.3126,15.2501
13:17:11.816,-26.1876,4.4375
13:17:11.823,-36.0626,-8.75
13:17:11.833,-45.5002,-23.2501
13:17:11.843,-57.7502,-38.0001
13:17:11.853,-67.4378,-51.0627
13:17:11.863,-73.5628,-62.3127
13:17:11.873,-77.8753,-66.5628
13:17:11.883,-80.4378,-70.5003
13:17:11.893,-83.0003,-77.0003
13:17:11.903,-84.7503,-78.8753
13:17:11.920,-86.4378,-82.8128
13:17:11.923,-87.3753,-86.3128
13:17:11.958,-87.8753,-89.6253
13:17:11.961,-88.2503,-91.8129
13:17:11.965,-89.0003,-94.8754
13:17:11.965,-88.4378,-95.8754
13:17:12.000,-89.6878,-100.6254
13:17:12.003,-90.9379,-102.6254
13:17:12.005,-91.7504,-107.2504
13:17:12.010,-93.9379,-109.6879
13:17:12.013,-97.1254,-115.8129
13:17:12.037,-98.8754,-120.938
13:17:12.041,-101.5004,-123.6255
13:17:12.044,-104.6254,-130.7505
13:17:12.078,-110.0629,-135.938
13:17:12.080,-114.0629,-145.1255
13:17:12.084,-118.2505,-151.1256
13:17:12.085,-115.8129,-152.6256
13:17:12.113,-115.7504,-154.8131
13:17:12.116,-118.5005,-159.1256
13:17:12.117,-117.438,-162.3756
13:17:12.124,-118.0005,-165.8131
13:17:12.133,-117.938,-168.4381
13:17:12.143,-117.813,-170.8132
13:17:12.153,-118.2505,-174.8132
13:17:12.163,-118.063,-177.0007
13:17:12.173,-119.188,-178.8132
13:17:12.184,-118.8755,-182.1257
13:17:12.193,-118.438,-183.0007
13:17:12.206,-119.2505,-182.0632
13:17:12.214,-116.6879,-179.8757
13:17:12.224,-111.1254,-169.3131
13:17:12.233,-106.3754,-158.5631
13:17:12.243,-100.8129,-145.7505
13:17:12.256,-97.5629,-134.3755
13:17:12.263,-93.9379,-127.063
13:17:12.273,-92.7504,-120.5005
13:17:12.283,-92.3754,-118.313
13:17:12.294,-93.1879,-116.1879
13:17:12.305,-94.1879,-116.8129
13:17:12.313,-93.5629,-115.1879
13:17:12.323,-92.9379,-113.7504
13:17:12.333,-90.7504,-111.5004
13:17:12.343,-87.0003,-107.3129
13:17:12.353,-75.7503,-97.2504
13:17:12.363,-40.6252,-61.5002
13:17:12.373,30.6251,18.0626
13:17:12.384,116.2504,124.5005
13:17:12.393,160.5631,188.9382
13:17:12.403,172.6882,207.8758
13:17:12.413,169.3131,193.8757
13:17:12.423,149.2506,153.0006
13:17:12.433,119.3755,104.0004
13:17:12.443,83.8128,51.7502
13:17:12.453,51.3127,4.0625
13:17:12.463,30.1876,-25.6876
13:17:12.473,20.2501,-39.4377
13:17:12.483,17.7501,-39.0626
13:17:12.493,17.8751,-31.6876
13:17:12.503,19.6876,-23.9376
13:17:12.513,14.1251,-20.3126
13:17:12.523,-9,-38.6251
13:17:12.533,-39.1252,-74.6878
13:17:12.543,-60.6877,-101.5004
13:17:12.553,-76.7503,-120.063
13:17:12.563,-93.0629,-138.0005
13:17:12.576,-110.3754,-155.9381
13:17:12.583,-125.063,-167.3131
13:17:12.593,-135.313,-174.1257
13:17:12.603,-137.0005,-175.3132
13:17:12.613,-129.7505,-168.5631
13:17:12.623,-104.7504,-146.438
13:17:12.633,-38.1876,-73.3753
13:17:12.644,47.5627,35.3751
13:17:12.676,104.5004,113.6879
13:17:12.678,117.6879,138.188
13:17:12.680,114.8129,124.7505
13:17:12.683,97.6254,92.5004
13:17:12.713,77.1253,57.9377
13:17:12.717,65.9378,44.7502
13:17:12.719,61.4377,45.7502
13:17:12.726,49.8127,41.8752
13:17:12.752,21.3126,11.125
13:17:12.754,-8.125,-26.2501
13:17:12.757,-28.7501,-55.0002
13:17:12.763,-46.9377,-76.3753
13:17:12.789,-66.5628,-97.7504
13:17:12.829,-85.5003,-119.7505
13:17:12.831,-104.8754,-137.6255
13:17:12.842,-113.5004,-148.9381
13:17:12.842,-109.6254,-146.313
13:17:12.842,-103.5004,-138.188
13:17:12.842,-93.5004,-127.188
13:17:12.849,-74.0003,-105.8129
13:17:12.858,-22.3126,-49.4377
13:17:12.868,60.2502,50.0002
13:17:12.878,114.1879,122.563
13:17:12.888,124.8755,145.7505
13:17:12.898,123.063,142.063
13:17:12.908,115.5004,125.8755
13:17:12.918,107.1254,113.9379
13:17:12.928,98.0629,105.6254
13:17:12.939,83.3753,90.5629
13:17:12.948,58.8752,61.3752
13:17:12.958,34.0626,27.6876
13:17:12.968,6.3125,-7
13:17:12.978,-20.6251,-38.2501
13:17:12.988,-44.8127,-67.0628
13:17:12.998,-77.1878,-99.5629
13:17:13.008,-96.2504,-114.6254
13:17:13.018,-115.3129,-133.2505
13:17:13.028,-123.313,-138.063
13:17:13.043,-117.3754,-126.0005
13:17:13.058,-100.3129,-100.8129
13:17:13.060,-79.0628,-68.6878
13:17:13.071,-49.3752,-31.3126
13:17:13.079,-2.4375,27.1876
13:17:13.089,75.9378,122.7505
13:17:13.098,143.188,215.9383
13:17:13.108,179.5007,269.501
13:17:13.120,186.9382,290.1886
13:17:13.128,187.0632,296.6886
13:17:13.138,183.8132,298.4386
13:17:13.148,173.2507,294.2511
13:17:13.158,151.6881,274.751
13:17:13.168,125.688,247.3759
13:17:13.178,103.5004,226.3134
13:17:13.188,88.7503,211.1883
13:17:13.198,78.5003,201.0633
13:17:13.207,71.2503,195.6882
13:17:13.219,63.6877,188.8132
13:17:13.228,55.3127,179.8132
13:17:13.238,46.5627,169.0006
13:17:13.248,44.5627,165.0006
13:17:13.258,44.3127,164.3131
13:17:13.270,49.5002,169.8756
13:17:13.278,62.5627,184.2507
13:17:13.289,79.1878,205.0008
13:17:13.317,105.0004,236.1259
13:17:13.320,137.188,274.1885
13:17:13.322,157.6256,302.9387
13:17:13.328,164.7506,313.7512
13:17:13.338,163.8131,313.0012
13:17:13.348,163.1881,312.8137
13:17:13.358,161.8756,312.5012
13:17:13.370,155.4381,305.6262
13:17:13.390,149.0631,297.2511
13:17:13.393,141.1255,289.5011
13:17:13.419,125.1255,271.126
13:17:13.419,87.6878,228.5634
13:17:13.423,48.1877,178.6882
13:17:13.428,15.6251,135.8755
13:17:13.459,-3,108.0629
13:17:13.461,-6.3125,98.2504
13:17:13.464,2.3125,102.5004
13:17:13.471,26.4376,126.8755
13:17:13.496,55.6252,161.8756
13:17:13.498,87.0628,198.8133
13:17:13.500,128.1255,247.3759
13:17:13.532,152.2506,278.1885
13:17:13.537,156.4381,287.1886
13:17:13.538,154.8131,283.3761
13:17:13.540,150.1881,276.251
13:17:13.558,144.063,266.751
13:17:13.560,140.6255,258.251
13:17:13.570,138.063,253.626
13:17:13.578,132.563,246.0634
13:17:13.593,112.3754,222.5009
13:17:13.598,74.3128,176.5632
13:17:13.609,15.0001,106.8129
13:17:13.618,-45.6252,32.9376
13:17:13.628,-85.8128,-19.8126
13:17:13.638,-114.3129,-56.6877
13:17:13.648,-125.1255,-77.0003
13:17:13.658,-123.0005,-83.1253
13:17:13.668,-101.1254,-67.9378
13:17:13.679,-45.6252,-11.8125
13:17:13.688,38.7501,87.2503
13:17:13.699,97.0629,160.3131
13:17:13.708,122.813,196.0632
13:17:13.718,126.063,202.8133
13:17:13.728,121.1255,197.2508
13:17:13.738,116.6254,190.6882
13:17:13.749,109.6254,183.1257
13:17:13.758,100.0629,171.0007
