timestamp,Red,IR
13:11:26.709,-34.0001,-85.3753
13:11:26.723,-35.8439,-91.1254
13:11:26.733,-37.4689,-96.1879
13:11:26.743,-39.8439,-100.9379
13:11:26.754,-42.0939,-106.4379
13:11:26.764,-44.0939,-110.7504
13:11:26.774,-45.8439,-116.5629
13:11:26.784,-47.6564,-120.6255
13:11:26.794,-48.9064,-125.063
13:11:26.804,-50.9689,-129.2505
13:11:26.814,-53.3127,-132.7505
13:11:26.824,-54.5627,-138.188
13:11:26.833,-56.2815,-140.5005
13:11:26.844,-56.8127,-145.688
13:11:26.853,-59.2502,-148.0006
13:11:26.865,-60.5002,-153.1256
13:11:26.874,-61.594,-156.3756
13:11:26.884,-64.6565,-162.3131
13:11:26.895,-64.6565,-164.0631
13:11:26.904,-63.7815,-162.3756
13:11:26.914,-61.6565,-155.0006
13:11:26.923,-54.8127,-138.938
13:11:26.933,-43.0002,-111.0004
13:11:26.945,-32.0939,-79.4378
13:11:26.954,-20.3126,-50.4377
13:11:26.963,-8.9375,-20.8751
13:11:26.974,1.8438,4.625
13:11:26.984,12.3125,29.6251
13:11:26.994,19.8126,52.0002
13:11:27.009,27.8126,68.6253
13:11:27.015,33.8751,85.5628
13:11:27.025,39.0627,99.1879
13:11:27.034,44.5314,110.5004
13:11:27.087,48.1877,121.2505
13:11:27.088,51.9377,129.7505
13:11:27.115,54.6252,137.688
13:11:27.117,57.969,144.2505
13:11:27.120,60.094,150.5006
13:11:27.120,62.344,154.8131
13:11:27.120,63.344,159.0006
13:11:27.129,63.469,159.1256
13:11:27.161,63.8752,159.7506
13:11:27.195,62.6252,157.7506
13:11:27.198,61.8127,155.1256
13:11:27.201,60.0002,149.9381
13:11:27.204,57.8752,145.7505
13:11:27.208,56.1877,140.938
13:11:27.208,54.1565,136.938
13:11:27.227,51.4689,132.313
13:11:27.228,50.5002,127.7505
13:11:27.234,48.5314,124.2505
13:11:27.243,47.6877,122.0005
13:11:27.254,47.1877,119.688
13:11:27.264,45.3752,117.7505
13:11:27.273,45.0002,115.3129
13:11:27.284,43.3127,113.0004
13:11:27.294,44.3752,111.3129
13:11:27.303,39.9689,105.5629
13:11:27.314,38.7501,102.0004
13:11:27.324,36.2189,96.0629
13:11:27.334,34.2814,90.7504
13:11:27.343,32.4376,85.8128
13:11:27.354,29.1876,78.8753
13:11:27.364,26.8439,71.9378
13:11:27.374,21.4688,61.2502
13:11:27.384,19.0313,53.5002
13:11:27.393,15.8438,47.1252
13:11:27.404,13.6251,39.1251
13:11:27.414,10,32.4376
13:11:27.424,7.375,25.1251
13:11:27.433,4.9375,17.3751
13:11:27.444,1.75,10.3125
13:11:27.454,-0.8438,2.875
13:11:27.463,-4.1875,-4.5625
13:11:27.474,-6.5313,-11.125
13:11:27.484,-9.0313,-17.3751
13:11:27.494,-11.0313,-23.3751
13:11:27.504,-13.7188,-29.3751
13:11:27.515,-16.2501,-35.3126
13:11:27.524,-17.9063,-41.4377
13:11:27.534,-20.3751,-47.1877
13:11:27.544,-22.5938,-52.6252
13:11:27.553,-24.4688,-58.0627
13:11:27.564,-26.4063,-62.6877
13:11:27.573,-27.6564,-68.6878
13:11:27.583,-29.6564,-72.8128
13:11:27.594,-30.8751,-77.4378
13:11:27.604,-33.0626,-82.3128
13:11:27.614,-35.7501,-86.9378
13:11:27.624,-37.0939,-93.1254
13:11:27.634,-39.6252,-96.7504
13:11:27.643,-41.6564,-102.6879
13:11:27.654,-42.6877,-107.9379
13:11:27.664,-45.7189,-113.1879
13:11:27.674,-47.3439,-118.3755
13:11:27.684,-48.9064,-122.3755
13:11:27.694,-50.7814,-127.7505
13:11:27.718,-52.0002,-131.938
13:11:27.721,-54.1565,-136.6255
13:11:27.725,-55.5315,-141.1255
13:11:27.733,-56.8127,-144.938
13:11:27.744,-58.6877,-148.5006
13:11:27.757,-59.6565,-151.3756
13:11:27.768,-61.0002,-155.0631
13:11:27.774,-62.219,-159.1881
13:11:27.784,-63.5627,-162.5631
13:11:27.793,-65.4065,-164.1256
13:11:27.804,-66.2815,-168.1881
13:11:27.814,-67.6878,-171.1882
13:11:27.825,-68.5003,-174.3757
13:11:27.859,-68.219,-173.4382
13:11:27.860,-67.2503,-169.5631
13:11:27.864,-63.219,-160.5631
13:11:27.865,-54.719,-137.6255
13:11:27.896,-42.8127,-107.1254
13:11:27.898,-29.6251,-75.3128
13:11:27.900,-19.0626,-43.8752
13:11:27.907,-7.375,-17.3751
13:11:27.933,3,10.1875
13:11:27.936,13.1563,33.3126
13:11:27.942,21.1563,54.3752
13:11:27.944,28.4064,72.0003
13:11:27.961,34.8751,85.8128
13:11:27.965,39.5627,100.0629
13:11:27.995,44.2189,109.5004
13:11:27.997,48.5314,119.688
13:11:28.000,51.2814,128.2505
13:11:28.005,54.5002,133.7505
13:11:28.015,55.9065,141.3755
13:11:28.023,58.469,145.063
13:11:28.036,59.8752,149.1256
13:11:28.044,60.344,150.5006
13:11:28.053,60.9377,150.5631
13:11:28.064,59.4065,149.5631
13:11:28.074,58.6877,145.813
13:11:28.083,57.1565,142.2505
13:11:28.094,55.4377,138.063
13:11:28.104,52.5627,132.188
13:11:28.114,50.8752,127.313
13:11:28.124,49.0002,123.3755
13:11:28.134,47.4064,118.688
13:11:28.144,46.0939,114.7504
13:11:28.154,44.0939,111.5629
13:11:28.163,42.9377,109.5629
13:11:28.174,42.2502,106.2504
13:11:28.183,41.3752,104.6879
13:11:28.193,40.4689,102.0004
13:11:28.204,39.5627,99.5629
13:11:28.215,38.0001,96.5004
13:11:28.225,36.8751,93.5004
13:11:28.234,35.4064,89.5003
13:11:28.244,33.6876,84.6878
13:11:28.253,31.5314,80.1878
13:11:28.263,29.2189,75.5003
13:11:28.273,27.8126,69.1878
13:11:28.285,24.8438,63.3127
13:11:28.293,22.0626,58.0627
13:11:28.304,19.8438,50.6252
13:11:28.314,16.2188,44.6252
13:11:28.323,14.5626,36.6876
13:11:28.334,11.6563,30.8126
13:11:28.344,9.0625,23.0001
13:11:28.355,6,16.0626
13:11:28.364,3.9688,8.6875
13:11:28.374,0.7813,2.0625
13:11:28.383,-1.75,-4.5625
13:11:28.405,-4.1875,-10.5
13:11:28.410,-6.8125,-18.1876
13:11:28.419,-9.625,-24.2501
13:11:28.424,-11.5625,-30.2501
13:11:28.453,-13.6876,-36.3126
13:11:28.455,-16.2188,-42.6877
13:11:28.471,-18.5626,-48.8127
13:11:28.473,-20.8126,-54.6252
13:11:28.488,-22.9688,-60.8127
13:11:28.506,-24.7813,-65.9378
13:11:28.508,-26.7814,-71.4378
13:11:28.511,-28.8751,-77.3128
13:11:28.516,-31.2814,-82.4378
13:11:28.552,-33.6876,-86.9378
13:11:28.554,-34.6876,-92.6254
13:11:28.557,-37.0939,-98.2504
13:11:28.562,-39.1564,-103.0004
13:11:28.569,-41.4377,-108.4379
13:11:28.599,-42.5627,-112.4379
13:11:28.601,-44.4689,-117.5629
13:11:28.603,-46.1252,-122.0005
13:11:28.606,-47.7502,-126.8755
13:11:28.645,-50.1252,-131.6255
13:11:28.645,-51.9064,-134.5005
13:11:28.647,-52.9065,-139.7505
13:11:28.650,-54.094,-143.0005
13:11:28.658,-56.2815,-147.313
13:11:28.666,-57.2502,-151.8756
13:11:28.694,-58.3752,-154.8131
13:11:28.698,-60.0002,-157.8131
13:11:28.700,-60.8752,-161.5006
13:11:28.706,-62.2815,-164.5631
13:11:28.714,-62.5627,-167.3756
13:11:28.723,-64.6565,-169.3756
13:11:28.733,-65.344,-172.8757
13:11:28.744,-66.969,-175.5007
13:11:28.754,-68.0003,-178.8757
13:11:28.763,-69.6565,-181.1257
13:11:28.773,-70.1565,-183.8757
13:11:28.785,-69.8128,-184.0632
13:11:28.794,-69.6878,-182.0632
13:11:28.803,-66.7503,-176.0632
13:11:28.813,-61.844,-162.5631
13:11:28.823,-53.1877,-138.438
13:11:28.834,-40.2189,-106.4379
13:11:28.844,-28.5001,-74.9378
13:11:28.854,-17.2501,-46.7502
13:11:28.863,-7.5313,-20.7501
13:11:28.876,1.9063,0.75
13:11:28.885,10.125,20.9376
13:11:28.894,16.4376,39.3751
13:11:28.904,22.5313,52.1877
13:11:28.914,27.0314,64.3752
13:11:28.923,31.6876,73.5628
13:11:28.933,35.4376,82.0003
13:11:28.945,37.5626,89.1878
13:11:28.953,40.3752,94.3754
13:11:28.964,41.7814,100.1254
13:11:28.975,44.1252,103.6879
13:11:28.999,46.0002,108.1254
13:11:29.003,45.6564,111.4379
13:11:29.005,46.2189,110.3129
13:11:29.017,46.6252,109.5004
13:11:29.024,45.2502,107.5004
13:11:29.036,44.8127,104.9379
13:11:29.044,43.5939,102.1254
13:11:29.054,42.3127,98.8129
13:11:29.064,40.4689,95.8754
13:11:29.074,40.3127,94.2504
13:11:29.084,39.2189,92.8129
13:11:29.095,38.7814,91.2504
13:11:29.104,38.2501,90.8129
13:11:29.113,38.1876,89.3128
13:11:29.124,37.5314,89.3753
13:11:29.133,37.9064,89.5003
13:11:29.144,38.0939,88.4378
13:11:29.155,36.9064,88.1253
13:11:29.164,36.8439,86.6878
13:11:29.174,35.5626,85.0628
13:11:29.183,35.5001,82.5628
13:11:29.194,33.3439,79.7503
13:11:29.205,32.3439,75.3128
13:11:29.213,30.2501,72.1253
13:11:29.225,28.9064,67.1253
13:11:29.234,26.4689,62.1877
13:11:29.246,24.1876,56.3127
13:11:29.260,22.0626,51.1877
13:11:29.269,20.0626,44.8127
13:11:29.275,17.1563,39.0001
13:11:29.305,15.5001,33.3126
13:11:29.308,13.0938,27.5001
13:11:29.310,10.5313,21.0001
13:11:29.315,7.25,15.9376
13:11:29.325,6,9
13:11:29.357,3.25,3.25
13:11:29.357,0.875,-2.0625
13:11:29.361,-1.3438,-8.625
13:11:29.366,-3.7813,-14.6251
13:11:29.395,-5.875,-21.0001
13:11:29.399,-8.4063,-26.4376
13:11:29.399,-10.2813,-32.5626
13:11:29.405,-13.2501,-38.3126
13:11:29.438,-15.1563,-44.1877
13:11:29.440,-17.6876,-49.6252
13:11:29.442,-18.5313,-54.6877
13:11:29.450,-21.2813,-60.0002
13:11:29.456,-24.1563,-65.0002
13:11:29.465,-25.4376,-71.3128
13:11:29.476,-28.1564,-76.0628
13:11:29.485,-29.3751,-81.3753
13:11:29.493,-31.6564,-85.8128
13:11:29.504,-32.8126,-90.7504
13:11:29.516,-35.6564,-94.5004
13:11:29.524,-36.3751,-99.5629
13:11:29.534,-37.7501,-104.0004
13:11:29.545,-39.9064,-108.0004
13:11:29.554,-41.3439,-113.0004
13:11:29.564,-42.7814,-116.8129
13:11:29.575,-44.6564,-120.063
13:11:29.586,-46.0002,-124.438
13:11:29.593,-46.8439,-128.2505
13:11:29.605,-49.0002,-131.563
13:11:29.614,-50.5002,-135.6255
13:11:29.624,-51.1564,-139.0005
13:11:29.635,-51.3752,-141.063
13:11:29.643,-53.6252,-144.5005
13:11:29.654,-55.094,-148.3131
13:11:29.665,-55.6877,-150.3756
13:11:29.673,-57.344,-152.3756
13:11:29.684,-58.0315,-154.1881
13:11:29.695,-57.2502,-154.1881
13:11:29.704,-55.219,-148.6256
13:11:29.721,-50.7502,-136.5005
13:11:29.728,-40.3439,-111.8129
13:11:29.736,-29.0314,-79.0003
13:11:29.745,-17.2813,-49.5002
13:11:29.759,-5.125,-21.0001
13:11:29.768,4.0313,4.5
13:11:29.774,13.9376,27.1876
13:11:29.791,22.0313,47.5627
13:11:29.808,28.9689,63.7502
13:11:29.811,34.5314,78.3128
13:11:29.826,38.8439,90.5629
13:11:29.841,42.5314,99.6879
13:11:29.843,46.4377,106.8129
13:11:29.847,49.0627,114.5629
13:11:29.855,51.2814,118.7505
13:11:29.864,53.1565,124.5005
13:11:29.874,55.2502,128.3755
13:11:29.884,56.344,132.0005
13:11:29.894,57.5002,133.563
13:11:29.903,56.8752,133.8755
13:11:29.917,56.6252,132.438
13:11:29.924,55.5002,130.3755
13:11:29.934,55.219,127.563
13:11:29.945,53.0315,124.2505
13:11:29.953,50.9689,120.188
13:11:29.965,50.1252,116.7504
13:11:29.974,48.7189,113.1254
13:11:29.985,47.6252,111.1879
13:11:29.993,46.7189,107.9379
13:11:30.012,45.5002,106.2504
13:11:30.015,45.3127,104.5629
13:11:30.049,44.6252,102.9379
13:11:30.051,44.4689,102.2504
13:11:30.054,43.8752,101.0629
13:11:30.056,42.9377,99.8129
13:11:30.117,42.2189,98.3754
13:11:30.119,41.3439,95.9379
13:11:30.120,40.3127,93.6254
13:11:30.126,39.1876,90.5004
13:11:30.126,36.9064,86.1878
13:11:30.126,35.3126,82.1878
13:11:30.156,32.9376,77.5003
13:11:30.159,31.5001,72.1878
13:11:30.161,28.5626,66.8753
13:11:30.166,26.8439,60.2502
13:11:30.192,23.4063,54.4377
13:11:30.195,20.5938,47.4377
13:11:30.199,18.5313,40.6252
13:11:30.206,15.3438,34.5001
13:11:30.215,12.5625,27.8126
13:11:30.229,10,19.7501
13:11:30.234,7.25,13.6876
13:11:30.279,4.8125,7.4375
13:11:30.280,2.1875,1
13:11:30.282,-0.0313,-6.6875
13:11:30.294,-3.2188,-11.875
13:11:30.295,-5.7813,-19.0001
13:11:30.295,-10.4688,-32.5626
13:11:30.305,-13.9063,-38.3751
13:11:30.316,-15.5001,-44.8752
13:11:30.324,-18.5001,-50.2502
13:11:30.333,-19.8126,-56.3752
13:11:30.344,-22.8751,-61.5002
13:11:30.356,-24.1563,-67.4378
13:11:30.366,-26.7814,-73.0003
13:11:30.376,-28.2814,-78.3128
13:11:30.386,-30.5001,-83.2503
13:11:30.397,-32.0001,-87.0003
13:11:30.404,-34.1564,-93.3754
13:11:30.415,-36.3439,-98.5629
13:11:30.425,-37.5626,-103.1254
13:11:30.435,-39.8752,-108.1879
13:11:30.446,-41.6252,-112.6254
13:11:30.456,-43.6877,-116.4379
13:11:30.466,-45.6564,-120.6255
13:11:30.475,-46.8127,-126.0005
13:11:30.485,-47.8752,-129.6255
13:11:30.495,-50.1252,-133.313
13:11:30.504,-51.5939,-138.188
13:11:30.515,-53.1252,-141.3755
13:11:30.525,-54.719,-144.0005
13:11:30.535,-55.1565,-148.1881
13:11:30.546,-56.7815,-150.0006
13:11:30.555,-57.6565,-154.6256
13:11:30.565,-58.6565,-157.0006
13:11:30.575,-60.1565,-159.6881
13:11:30.585,-61.094,-162.8131
13:11:30.596,-61.6565,-165.0631
13:11:30.605,-63.0315,-166.1881
13:11:30.615,-63.9065,-169.5631
13:11:30.625,-63.4377,-168.6881
13:11:30.637,-62.344,-164.3756
13:11:30.645,-58.719,-156.5006
13:11:30.656,-51.7189,-139.563
13:11:30.665,-40.7502,-109.1254
13:11:30.675,-27.6251,-75.0628
13:11:30.685,-14.1251,-42.1877
13:11:30.695,-3.0938,-13.4376
13:11:30.705,7.4063,12.25
13:11:30.715,17.3751,36.3751
13:11:30.726,25.0626,57.4377
13:11:30.735,33.0939,75.5003
13:11:30.745,39.5627,90.9379
13:11:30.774,44.0627,103.2504
13:11:30.777,48.6564,114.1254
13:11:30.781,53.219,124.438
13:11:30.817,56.6877,133.313
13:11:30.819,59.6565,140.3755
13:11:30.822,62.7502,147.063
13:11:30.824,63.594,152.1881
13:11:30.830,66.344,155.3756
13:11:30.860,67.6878,159.1256
13:11:30.862,67.2503,161.5631
13:11:30.865,66.9378,159.3131
13:11:30.894,66.344,158.3756
13:11:30.895,65.0627,155.2506
13:11:30.896,63.6877,152.1256
13:11:30.903,62.4377,147.6881
13:11:30.932,60.1877,144.3755
13:11:30.934,58.4377,140.688
13:11:30.935,57.2815,137.5005
13:11:30.941,56.5315,134.6255
13:11:30.950,54.9065,133.063
13:11:30.960,54.344,130.438
13:11:30.970,53.594,129.3755
13:11:30.980,53.1565,128.3755
13:11:30.990,52.4064,125.3755
13:11:31.000,51.5314,124.563
13:11:31.009,50.4064,121.813
13:11:31.020,49.5002,119.0005
13:11:31.029,48.2189,115.7504
13:11:31.046,46.6877,111.7504
13:11:31.062,45.2502,107.5004
13:11:31.065,42.4064,103.1879
13:11:31.070,40.2189,97.1254
13:11:31.080,37.7814,91.3129
13:11:31.089,34.9376,85.3128
13:11:31.111,32.8126,78.1878
13:11:31.112,29.5626,71.5628
13:11:31.127,26.6251,64.8127
13:11:31.137,23.9063,57.5002
13:11:31.140,21.2188,50.8752
13:11:31.150,17.7501,42.6877
13:11:31.160,15.0313,35.3126
13:11:31.170,12.5,28.0626
13:11:31.180,9.1563,21.5001
13:11:31.190,6.8125,14.0001
13:11:31.200,3.5313,7
13:11:31.210,0.4375,0.3125
13:11:31.220,-2.6875,-6.375
13:11:31.230,-4.6875,-14.1251
13:11:31.240,-7.125,-19.6876
13:11:31.250,-9.5313,-27.1876
13:11:31.260,-12.2813,-32.8126
13:11:31.271,-14.2501,-39.1251
13:11:31.280,-16.7813,-44.7502
13:11:31.290,-18.8438,-50.2502
13:11:31.300,-21.1876,-56.1877
13:11:31.311,-23.8751,-61.6252
13:11:31.321,-25.7188,-67.8753
13:11:31.329,-27.4689,-73.5628
13:11:31.340,-29.1564,-78.6878
13:11:31.349,-30.9376,-83.5003
13:11:31.360,-33.4064,-88.7503
13:11:31.370,-34.9376,-93.9379
13:11:31.380,-37.5939,-98.6879
13:11:31.389,-39.1564,-104.2504
13:11:31.399,-40.9064,-108.1879
13:11:31.410,-43.6564,-114.3754
13:11:31.421,-44.5627,-118.188
13:11:31.430,-46.6877,-122.0005
13:11:31.447,-48.0002,-127.8755
13:11:31.450,-50.1252,-131.313
13:11:31.481,-51.9377,-135.563
13:11:31.484,-53.094,-139.8755
13:11:31.487,-54.219,-143.1255
13:11:31.490,-55.219,-147.3131
13:11:31.520,-57.0315,-150.2506
13:11:31.521,-58.844,-152.5631
13:11:31.524,-59.469,-157.0631
13:11:31.531,-60.1252,-159.3756
13:11:31.559,-61.6565,-162.1881
13:11:31.561,-62.469,-164.8131
13:11:31.563,-63.3127,-167.0006
13:11:31.593,-64.7502,-169.8131
13:11:31.593,-64.5315,-170.9382
13:11:31.620,-65.594,-170.4382
13:11:31.622,-64.1565,-168.3131
13:11:31.624,-61.4377,-159.1256
13:11:31.626,-54.844,-144.0005
13:11:31.632,-43.9377,-113.8129
13:11:31.640,-29.9689,-79.3128
13:11:31.649,-17.5626,-44.8127
13:11:31.660,-5.0625,-15.7501
13:11:31.670,6.5938,14.2501
13:11:31.680,16.6251,38.0626
13:11:31.690,26.1876,59.5002
13:11:31.700,34.4064,80.2503
13:11:31.710,40.6252,95.3129
13:11:31.721,46.5002,109.6879
13:11:31.730,51.3439,121.3755
13:11:31.740,56.0627,132.2505
13:11:31.750,59.2502,140.2505
13:11:31.760,62.6877,148.5631
13:11:31.770,64.8127,154.8756
13:11:31.780,67.6253,161.0006
13:11:31.789,69.0315,165.5631
13:11:31.800,70.5628,167.1881
13:11:31.810,71.094,168.4381
13:11:31.819,69.7815,167.8131
13:11:31.830,69.5628,165.8131
13:11:31.840,68.1565,162.9381
13:11:31.850,66.3128,159.8131
13:11:31.860,64.8752,154.8756
13:11:31.870,63.1252,150.8131
13:11:31.880,61.844,147.5006
13:11:31.890,60.0315,144.063
13:11:31.900,58.8127,141.813
13:11:31.910,57.9065,139.813
13:11:31.921,57.7502,138.188
13:11:31.930,56.4377,136.8755
13:11:31.939,56.2502,135.7505
13:11:31.950,55.594,133.813
13:11:31.959,54.9377,132.063
13:11:31.969,54.2815,130.3755
13:11:31.979,53.3752,128.813
13:11:31.990,52.3439,125.7505
13:11:32.000,50.3439,121.2505
13:11:32.016,48.5939,117.3755
13:11:32.020,46.5314,112.7504
13:11:32.030,44.5002,106.8754
13:11:32.040,41.5939,101.1254
13:11:32.050,39.7502,95.3129
13:11:32.060,36.6564,88.9378
13:11:32.069,33.1251,83.0003
13:11:32.080,31.1251,75.1253
13:11:32.090,27.6564,68.0628
13:11:32.100,24.8438,60.7502
13:11:32.109,21.3126,52.5002
13:11:32.120,18.4688,45.0627
13:11:32.130,15.5313,37.5626
13:11:32.140,12.6875,30.9376
13:11:32.150,9.4688,24.5001
13:11:32.160,7.0625,16.7501
13:11:32.170,3.625,9.6875
13:11:32.180,1.2188,2.6875
13:11:32.203,-1.4063,-4.5
13:11:32.205,-4.0938,-11.4375
13:11:32.213,-6.5,-18.0626
13:11:32.220,-9.3125,-25.0001
13:11:32.248,-11.5625,-30.3126
13:11:32.250,-13.3126,-36.4376
13:11:32.252,-16.2813,-41.5627
13:11:32.285,-18.4688,-48.5002
13:11:32.287,-20.6251,-53.4377
13:11:32.290,-22.7501,-58.5002
13:11:32.296,-24.0938,-64.2502
13:11:32.300,-25.3751,-68.8128
13:11:32.327,-27.1876,-73.1253
13:11:32.360,-29.3751,-77.6253
13:11:32.363,-31.0314,-82.1878
13:11:32.365,-32.0939,-87.1253
13:11:32.371,-34.5314,-90.6879
13:11:32.374,-36.1564,-96.4379
13:11:32.374,-37.2189,-100.5004
13:11:32.380,-40.3439,-104.7504
13:11:32.391,-41.1252,-110.9379
13:11:32.407,-42.9064,-114.3129
13:11:32.422,-44.8439,-119.7505
13:11:32.425,-46.1252,-123.7505
13:11:32.430,-48.0627,-127.3755
13:11:32.441,-49.1252,-131.313
13:11:32.450,-51.2189,-135.188
13:11:32.461,-52.5627,-139.2505
13:11:32.470,-54.4377,-142.6255
13:11:32.480,-54.7502,-146.6881
13:11:32.491,-57.1252,-149.4381
13:11:32.500,-58.594,-154.1881
13:11:32.510,-60.8127,-158.2506
13:11:32.520,-61.8127,-160.8756
13:11:32.530,-61.9065,-161.5006
13:11:32.545,-60.5627,-157.0631
13:11:32.550,-56.8752,-148.1256
13:11:32.560,-50.0627,-128.1255
13:11:32.569,-37.7189,-95.3129
13:11:32.580,-24.0626,-62.0627
13:11:32.590,-11.875,-29.9376
13:11:32.601,-0.3438,-2.1875
13:11:32.610,11.0625,24.6876
13:11:32.620,20.5626,47.7502
13:11:32.630,28.8126,67.6253
13:11:32.640,35.9064,84.5003
13:11:32.650,41.0627,97.2504
13:11:32.660,46.0314,108.6879
13:11:32.670,49.4064,118.3755
13:11:32.680,52.6877,125.563
13:11:32.690,56.344,132.5005
13:11:32.700,57.469,139.2505
13:11:32.710,59.5315,142.7505
13:11:32.720,61.7502,147.3131
13:11:32.730,62.2815,150.3131
13:11:32.740,63.219,151.0631
13:11:32.749,62.9065,150.9381
13:11:32.766,61.4377,148.6256
13:11:32.772,60.594,145.063
13:11:32.780,59.2815,142.0005
13:11:32.790,57.719,137.938
13:11:32.800,55.7502,134.563
13:11:32.810,54.5315,131.813
13:11:32.837,52.7502,129.063
13:11:32.840,52.2814,126.688
13:11:32.842,51.5314,125.5005
13:11:32.851,50.4377,125.063
13:11:32.860,50.5314,123.063
13:11:32.870,49.0939,123.188
13:11:32.881,49.9689,121.8755
13:11:32.891,48.8752,120.438
13:11:32.900,48.2189,119.2505
13:11:32.910,47.0314,115.8754
13:11:32.920,46.1252,113.4379
13:11:32.930,44.5627,109.5004
13:11:32.940,42.6252,105.5004
13:11:32.950,39.9689,99.5004
13:11:32.961,37.7189,94.3129
13:11:32.970,34.7501,88.1878
13:11:32.982,32.9689,82.2503
13:11:33.011,29.9376,75.8128
13:11:33.014,26.7814,69.5628
13:11:33.016,23.9063,62.5002
13:11:33.022,20.6876,55.8752
13:11:33.055,18.0626,48.4377
13:11:33.058,15.3751,41.6252
13:11:33.060,11.9688,35.2501
13:11:33.062,9.8125,27.6251
13:11:33.072,6.5313,20.7501
13:11:33.082,4.25,13.3126
13:11:33.112,1.5313,7.6875
13:11:33.115,-1,1.25
13:11:33.117,-4.4063,-5.3125
13:11:33.121,-6.2813,-11.5625
13:11:33.153,-9,-17.5001
13:11:33.155,-10.2188,-23.2501
13:11:33.159,-12.6875,-28.8126
13:11:33.173,-15.1251,-33.5001
13:11:33.175,-17.0313,-40.0627
13:11:33.181,-18.8751,-44.3127
13:11:33.190,-19.9376,-49.5002
13:11:33.200,-22.2501,-54.8127
13:11:33.210,-24.7188,-59.4377
13:11:33.219,-26.3438,-64.5002
13:11:33.230,-27.8439,-68.5003
13:11:33.240,-29.5626,-73.0628
13:11:33.251,-31.4064,-77.4378
13:11:33.260,-33.1251,-82.4378
13:11:33.270,-34.6876,-86.5003
13:11:33.280,-36.5626,-91.3129
13:11:33.290,-37.5939,-95.8129
13:11:33.300,-39.1564,-99.5004
13:11:33.311,-41.1877,-103.8754
13:11:33.320,-42.4064,-106.8129
13:11:33.330,-43.6877,-111.7504
13:11:33.340,-44.8752,-116.0004
13:11:33.351,-46.5002,-119.438
13:11:33.360,-48.2189,-123.938
13:11:33.369,-49.2502,-127.063
13:11:33.381,-50.9064,-131.1255
13:11:33.391,-52.2814,-134.938
13:11:33.399,-53.1565,-137.6255
13:11:33.412,-54.8752,-140.313
13:11:33.420,-54.3752,-139.438
13:11:33.430,-51.0627,-131.7505
13:11:33.440,-44.0939,-111.6879
13:11:33.450,-32.9376,-83.2503
13:11:33.460,-22.2188,-53.7502
13:11:33.471,-10.4375,-25.6876
13:11:33.480,-0.1875,1.625
13:11:33.490,9.7188,25.3751
13:11:33.502,18.6563,47.4377
13:11:33.509,26.7814,66.2503
13:11:33.520,32.4376,82.3128
13:11:33.530,38.1564,94.7504
13:11:33.545,42.9689,105.6879
13:11:33.549,45.9377,115.3754
13:11:33.561,48.7502,120.813
13:11:33.570,51.9377,127.0005
13:11:33.580,53.3752,132.5005
13:11:33.590,55.4377,136.188
13:11:33.600,57.0315,140.938
13:11:33.610,57.1877,144.188
13:11:33.631,58.1877,144.3755
13:11:33.635,58.8127,145.3755
13:11:33.665,57.344,143.2505
13:11:33.727,57.0002,141.2505
13:11:33.727,54.094,136.2505
13:11:33.729,52.4689,131.3755
13:11:33.729,49.7189,126.688
13:11:33.730,48.6252,121.438
13:11:33.765,45.7502,117.0629
13:11:33.765,43.6252,113.5004
13:11:33.765,42.3752,109.3129
13:11:33.767,41.5002,106.5629
13:11:33.767,40.2189,104.1254
13:11:33.774,39.3439,101.8754
13:11:33.775,38.4064,100.0629
13:11:33.786,37.0001,98.0629
13:11:33.797,36.0001,96.0004
13:11:33.805,35.4689,92.2504
13:11:33.815,33.7189,89.4378
13:11:33.825,32.2814,86.0003
13:11:33.835,30.7814,81.2503
13:11:33.845,28.9064,76.3753
13:11:33.855,26.0313,70.9378
13:11:33.865,23.6563,66.0003
13:11:33.879,20.8126,59.4377
13:11:33.886,18.2501,52.7502
13:11:33.895,15.3126,45.1877
13:11:33.904,8.7188,29.8126
13:11:33.920,5.875,22.0626
13:11:33.925,3,14.5626
13:11:33.935,0.1563,8.3125
13:11:33.945,-2.375,0.9375
13:11:33.955,-5.125,-5.9375
13:11:33.966,-8.125,-12.625
13:11:33.975,-10.3125,-19.1876
13:11:33.986,-12.7813,-25.6251
13:11:33.997,-15.7501,-31.9376
13:11:34.006,-17.5001,-38.1251
13:11:34.015,-20.1563,-43.8752
13:11:34.027,-22.0001,-49.6252
13:11:34.035,-23.9688,-54.3752
13:11:34.046,-26.5001,-59.6877
13:11:34.056,-28.8126,-65.2502
13:11:34.064,-30.9376,-70.9378
13:11:34.076,-32.2501,-75.0003
13:11:34.086,-34.1876,-80.8128
13:11:34.119,-36.1251,-84.1253
13:11:34.120,-37.8439,-89.3753
13:11:34.122,-39.5627,-94.1254
13:11:34.126,-41.5002,-99.0629
13:11:34.135,-42.6877,-102.8129
13:11:34.146,-45.2502,-107.0004
13:11:34.156,-47.1252,-111.8129
13:11:34.165,-48.6877,-116.5629
13:11:34.174,-50.5939,-121.0005
13:11:34.186,-52.0314,-126.313
13:11:34.195,-53.5315,-130.7505
13:11:34.206,-55.3127,-134.8755
13:11:34.216,-57.4065,-138.2505
13:11:34.225,-57.9377,-143.3755
13:11:34.237,-59.719,-146.1255
13:11:34.245,-61.0627,-151.1881
13:11:34.255,-63.1877,-154.0631
13:11:34.265,-64.9065,-159.0631
13:11:34.275,-65.1252,-161.6881
13:11:34.285,-66.8128,-165.6256
13:11:34.295,-67.719,-168.8131
13:11:34.306,-69.4065,-170.5007
13:11:34.316,-70.5315,-174.3757
13:11:34.326,-71.3128,-177.3757
13:11:34.336,-71.7503,-179.4382
13:11:34.345,-73.0315,-181.3757
13:11:34.355,-73.094,-183.3132
13:11:34.366,-73.3753,-180.3132
13:11:34.376,-69.969,-173.5632
13:11:34.386,-61.9377,-153.4381
13:11:34.395,-51.9064,-124.5005
13:11:34.404,-41.4064,-96.5629
13:11:34.416,-30.5939,-68.3753
13:11:34.450,-20.8751,-44.1252
13:11:34.450,-10.8125,-19.5626
13:11:34.453,-2.3438,1.25
13:11:34.455,6.0625,20.6251
13:11:34.484,11.6563,38.2501
13:11:34.486,17.7188,51.4377
13:11:34.490,23.2188,63.4377
13:11:34.517,26.8751,74.6878
13:11:34.519,30.3439,82.3753
13:11:34.521,33.7501,90.5628
13:11:34.527,36.3439,98.6879
13:11:34.557,38.9689,103.4379
13:11:34.559,40.7189,108.1879
13:11:34.562,42.6252,112.4379
13:11:34.596,43.0627,115.1254
13:11:34.596,44.1564,116.6254
13:11:34.597,43.2502,117.938
13:11:34.603,42.6564,114.1879
13:11:34.610,40.4689,111.0629
13:11:34.617,38.2814,105.0004
13:11:34.626,35.9064,99.8754
13:11:34.637,33.0939,93.6879
13:11:34.646,31.4376,88.1253
13:11:34.655,28.3439,82.9378
13:11:34.670,26.1563,78.6878
13:11:34.675,24.3126,74.4378
13:11:34.687,22.7813,71.5003
13:11:34.695,21.7813,68.0003
13:11:34.704,20.2188,65.3752
13:11:34.715,19.1876,62.6877
13:11:34.727,17.9688,60.0627
13:11:34.735,16.9376,57.2502
13:11:34.746,16.0938,53.5627
13:11:34.755,14.4688,50.1877
13:11:34.765,12.4063,45.5627
13:11:34.781,11.0313,41.0627
13:11:34.792,8.7188,36.2501
13:11:34.803,6.5938,30.6251
13:11:34.810,3.375,25.0001
13:11:34.821,1.4688,18.5001
13:11:34.831,-0.8438,12
13:11:34.839,-2.9688,6.375
13:11:34.852,-5.8125,-0.3125
13:11:34.860,-8.375,-6.125
13:11:34.871,-11.4063,-14.1876
13:11:34.881,-13.7188,-20.2501
13:11:34.891,-15.8438,-27.6876
13:11:34.902,-18.3438,-33.2501
13:11:34.910,-20.8126,-40.4377
13:11:34.921,-23.8438,-45.6877
13:11:34.941,-25.8126,-52.8752
13:11:34.947,-29.6251,-60.5627
13:11:34.966,-31.2814,-66.4378
13:11:34.967,-33.5314,-71.1253
13:11:34.971,-34.8126,-76.3753
13:11:34.983,-36.9064,-82.1878
13:11:34.999,-38.2501,-85.6253
13:11:35.001,-40.0627,-91.0004
13:11:35.016,-41.9377,-94.8754
13:11:35.021,-43.4064,-99.5004
13:11:35.032,-44.0314,-102.8754
13:11:35.047,-46.4064,-107.4379
13:11:35.052,-47.5002,-110.7504
13:11:35.062,-49.0314,-114.1254
13:11:35.071,-50.4064,-118.5005
13:11:35.079,-51.7502,-121.313
13:11:35.092,-52.844,-126.2505
13:11:35.101,-53.8127,-128.438
13:11:35.133,-55.1877,-132.3755
13:11:35.136,-56.0002,-135.1255
13:11:35.139,-57.6877,-136.6255
13:11:35.143,-58.3127,-141.563
13:11:35.172,-59.3127,-144.188
13:11:35.174,-60.594,-146.8755
13:11:35.176,-61.1252,-150.0631
13:11:35.202,-62.0002,-151.8131
13:11:35.205,-62.6877,-154.7506
13:11:35.207,-63.3127,-156.7506
13:11:35.211,-63.8127,-159.0631
13:11:35.226,-64.969,-160.3131
13:11:35.231,-65.594,-163.1256
13:11:35.262,-65.594,-165.0631
13:11:35.265,-66.6565,-165.6256
13:11:35.266,-66.844,-168.5006
13:11:35.274,-67.2815,-170.1882
13:11:35.296,-68.4378,-171.3132
13:11:35.299,-68.2815,-173.6257
13:11:35.302,-68.1253,-175.0632
13:11:35.311,-70.1565,-175.5632
13:11:35.321,-69.9065,-177.3132
13:11:35.331,-69.469,-175.0007
13:11:35.341,-66.719,-169.3756
13:11:35.351,-59.844,-152.5631
13:11:35.360,-51.1252,-124.688
13:11:35.371,-39.8752,-96.2504
13:11:35.399,-29.4376,-68.9378
13:11:35.400,-20.4063,-44.9377
13:11:35.407,-12.4063,-25.3126
13:11:35.415,-4.6563,-6.4375
13:11:35.425,1.0938,9.3125
13:11:35.431,7,22.3751
13:11:35.442,12.4688,34.3751
13:11:35.452,15.5626,44.3127
13:11:35.461,18.2501,51.1252
13:11:35.471,21.6563,57.6877
13:11:35.481,23.7188,63.6252
13:11:35.492,25.6251,67.4378
13:11:35.501,27.4064,72.5003
13:11:35.511,29.0314,76.3128
13:11:35.521,29.1876,79.8128
13:11:35.531,30.0939,81.5628
13:11:35.542,31.1876,83.6878
13:11:35.551,30.9064,83.3753
13:11:35.561,30.2501,82.5628
13:11:35.572,28.9064,81.0003
13:11:35.580,28.1876,77.2503
13:11:35.591,26.2188,73.6253
13:11:35.601,25.2501,69.3753
13:11:35.611,22.9688,66.3753
13:11:35.621,22.2188,63.5627
13:11:35.631,20.5313,61.0627
13:11:35.641,20.3126,59.8752
13:11:35.651,19.4063,57.9377
13:11:35.661,19.1563,58.0627
13:11:35.672,19.2188,57.3752
13:11:35.681,19.2501,57.5002
13:11:35.691,19.3751,56.5627
13:11:35.701,18.8751,56.7502
13:11:35.711,17.8126,54.8752
13:11:35.721,17.6251,53.2502
13:11:35.732,17.0938,51.3752
13:11:35.741,15.6251,47.3752
13:11:35.751,13.9688,43.8752
13:11:35.761,12.2188,40.5627
13:11:35.771,9.9688,35.7501
13:11:35.780,8.7813,32.3126
13:11:35.792,7,27.0001
13:11:35.801,5.375,22.4376
13:11:35.811,2.75,16.5626
13:11:35.821,1.2188,11.9375
13:11:35.831,-0.75,7.0625
13:11:35.840,-2.375,1.5625
13:11:35.852,-3.5625,-2.6875
13:11:35.861,-6.7188,-7.8125
13:11:35.871,-7.6875,-13
13:11:35.883,-9.9063,-17.6251
13:11:35.892,-10.9063,-22.5001
13:11:35.908,-13.4376,-26.8751
13:11:35.911,-14.3438,-31.1251
13:11:35.921,-16.1563,-36.0626
13:11:35.948,-17.2501,-39.0626
13:11:35.950,-18.7813,-43.1252
13:11:35.952,-19.5938,-46.5627
13:11:35.985,-21.5001,-50.0627
13:11:35.988,-22.1563,-53.7502
13:11:35.990,-24.0938,-57.0002
13:11:35.993,-24.0001,-60.2502
13:11:36.032,-26.0001,-63.2502
13:11:36.033,-27.0001,-66.9378
13:11:36.038,-27.9064,-68.7503
13:11:36.045,-29.5001,-72.2503
13:11:36.045,-29.8126,-75.5628
13:11:36.052,-30.9376,-77.5003
13:11:36.080,-32.0626,-80.9378
13:11:36.081,-33.2501,-83.3753
13:11:36.083,-33.8126,-87.0628
13:11:36.092,-34.2501,-89.8128
13:11:36.101,-35.8439,-92.0004
13:11:36.111,-36.7189,-94.4379
13:11:36.121,-36.8751,-96.7504
13:11:36.131,-37.6876,-98.1254
13:11:36.141,-38.3751,-101.5004
13:11:36.151,-39.0314,-103.5629
13:11:36.161,-39.5314,-105.7504
13:11:36.177,-39.7189,-107.5004
13:11:36.182,-40.8127,-109.5004
13:11:36.192,-41.2814,-112.0004
13:11:36.201,-42.3127,-113.8129
13:11:36.212,-42.4689,-116.6254
13:11:36.221,-42.5939,-116.1879
13:11:36.242,-42.3439,-112.6879
13:11:36.251,-37.5626,-105.4379
13:11:36.253,-31.4689,-84.8128
13:11:36.268,-21.9376,-60.6252
13:11:36.273,-12.0313,-35.5001
13:11:36.281,-3.1563,-10.75
13:11:36.296,5.2188,9.625
13:11:36.307,12.4688,29.3751
13:11:36.311,18.2188,46.3752
13:11:36.328,24.6251,59.3752
13:11:36.331,29.5314,72.1253
13:11:36.347,33.0626,82.0003
13:11:36.351,37.1251,89.7503
13:11:36.361,38.3751,96.1879
13:11:36.371,41.0939,101.2504
13:11:36.381,42.2189,105.9379
13:11:36.391,43.6877,109.3754
13:11:36.401,44.3752,112.5004
13:11:36.411,45.7814,115.6879
13:11:36.421,46.4689,118.563
13:11:36.432,47.8439,120.438
13:11:36.441,48.7814,121.6255
13:11:36.451,47.9377,121.313
13:11:36.461,47.4377,119.938
13:11:36.472,46.5627,117.188
13:11:36.481,46.2189,116.5629
13:11:36.492,46.6252,117.438
13:11:36.501,47.2502,117.6255
13:11:36.511,48.3439,118.688
13:11:36.521,50.7189,122.688
13:11:36.531,54.094,127.8755
13:11:36.542,58.6565,135.938
13:11:36.551,65.9065,148.0006
13:11:36.586,72.4065,162.7506
13:11:36.588,79.2191,179.1257
13:11:36.590,88.5628,195.7507
13:11:36.594,97.7504,215.2508
13:11:36.623,106.9692,233.5634
13:11:36.625,113.9692,248.3134
13:11:36.628,118.9067,260.251
13:11:36.632,122.2817,267.6885
13:11:36.668,122.5317,270.0635
13:11:36.669,122.688,269.876
13:11:36.673,119.3442,267.251
13:11:36.690,117.4067,263.3135
13:11:36.693,115.8129,257.9385
13:11:36.694,113.4067,253.501
13:11:36.725,111.0629,248.1259
13:11:36.727,108.3754,242.3134
13:11:36.729,105.1566,237.0634
13:11:36.737,102.7816,230.8134
13:11:36.742,98.8754,222.7509
13:11:36.751,95.8754,214.8758
13:11:36.761,91.9691,207.6258
13:11:36.771,88.4066,199.9383
13:11:36.781,85.3441,192.1257
13:11:36.792,82.3753,185.3132
13:11:36.801,79.8128,179.6257
13:11:36.811,77.094,173.6882
13:11:36.821,75.2503,167.5631
13:11:36.832,72.1253,161.5006
13:11:36.841,68.9378,154.4381
13:11:36.851,66.2815,147.188
13:11:36.861,62.2815,140.1255
13:11:36.871,59.5627,134.1255
13:11:36.881,57.219,126.1255
13:11:36.891,54.4377,120.2505
13:11:36.901,52.3127,114.0629
13:11:36.911,49.5002,107.3754
13:11:36.928,46.8439,101.8129
13:11:36.932,45.2814,96.7504
13:11:36.941,43.4064,92.5629
13:11:36.951,41.2189,87.6253
13:11:36.961,39.3439,84.3753
13:11:36.971,37.6251,79.1878
13:11:36.981,36.3751,75.0003
13:11:36.991,34.9064,71.5003
13:11:37.001,32.5314,66.3128
13:11:37.012,31.2814,62.2502
13:11:37.021,28.1251,58.6252
13:11:37.031,26.3751,53.5627
13:11:37.041,24.6563,48.3752
13:11:37.051,22.7501,43.8752
13:11:37.062,21.3126,40.0627
13:11:37.071,19.7813,36.3126
13:11:37.083,18.2501,33.1876
13:11:37.092,16.4376,30.6876
13:11:37.101,15.5001,26.4376
13:11:37.111,13.6876,23.8126
13:11:37.121,11.9063,20.9376
13:11:37.131,10.2813,16.0626
13:11:37.141,8.8438,12.875
13:11:37.151,7.5,9.8125
13:11:37.161,6.875,10.5625
13:11:37.172,8.4375,15.7501
13:11:37.181,12.5313,25.1251
13:11:37.192,19.0938,40.8127
13:11:37.201,27.5314,61.6252
13:11:37.211,36.2189,83.6878
13:11:37.221,45.9064,107.7504
13:11:37.231,55.844,131.188
13:11:37.241,63.719,152.6256
13:11:37.251,71.0315,171.1257
13:11:37.262,77.5003,188.3757
13:11:37.271,83.0941,202.5008
13:11:37.308,88.1878,215.2508
13:11:37.310,91.8441,224.8759
13:11:37.314,95.0629,233.6884
13:11:37.315,97.7816,239.8759
13:11:37.353,99.8129,246.1259
13:11:37.354,102.2191,251.1885
13:11:37.356,103.5629,255.626
13:11:37.361,104.8129,258.8135
13:11:37.365,105.6254,261.626
13:11:37.372,106.5629,262.9385
13:11:37.405,106.2504,263.626
13:11:37.406,105.2816,262.3135
13:11:37.408,104.3754,258.5635
13:11:37.411,101.3754,253.6885
13:11:37.442,99.5004,248.0009
13:11:37.444,97.4066,242.4384
13:11:37.450,95.0629,236.6259
13:11:37.456,93.0629,230.9384
13:11:37.464,90.3754,225.9384
13:11:37.473,88.5941,220.9384
13:11:37.484,87.2503,217.4383
13:11:37.492,86.0316,213.6883
13:11:37.501,84.7503,211.5008
13:11:37.511,83.2816,209.1258
13:11:37.521,82.2191,205.0633
13:11:37.531,81.0003,201.4383
13:11:37.550,79.0941,197.8758
13:11:37.556,78.3128,194.5007
13:11:37.572,76.2815,190.9382
13:11:37.574,73.7503,186.5007
13:11:37.584,72.0003,180.4382
13:11:37.591,69.719,174.4382
13:11:37.601,68.0315,169.1256
13:11:37.618,64.6565,162.6256
13:11:37.632,62.1252,156.5631
13:11:37.635,60.094,149.8756
13:11:37.651,56.4377,143.6255
13:11:37.652,54.1565,136.5005
13:11:37.661,50.8752,129.1255
13:11:37.671,47.7502,120.938
13:11:37.682,45.1877,113.8129
13:11:37.692,42.2189,106.8754
13:11:37.702,39.1564,99.9379
13:11:37.711,35.5314,92.6879
13:11:37.721,32.5001,85.3753
13:11:37.732,30.0001,78.0628
13:11:37.741,26.8751,70.6878
13:11:37.751,24.6876,63.6252
13:11:37.762,21.0626,57.3127
13:11:37.771,17.8751,49.5627
13:11:37.781,15.6563,42.6252
13:11:37.791,12.5938,36.2501
13:11:37.801,10.2188,30.6876
13:11:37.811,7.875,25.2501
13:11:37.821,5.8125,18.8126
13:11:37.831,3.375,14.0001
13:11:37.843,1.375,7.4375
13:11:37.852,-0.4063,2.1875
13:11:37.861,-2.9375,-3.3125
13:11:37.871,-5.4688,-8.375
13:11:37.881,-7.8438,-14.3751
13:11:37.891,-9.4063,-20.2501
13:11:37.902,-11.2813,-25.2501
13:11:37.912,-14.0626,-29.5626
13:11:37.921,-15.7813,-33.5626
13:11:37.931,-16.9688,-38.1251
13:11:37.957,-18.1563,-40.8752
13:11:37.960,-19.3126,-44.1877
13:11:37.964,-21.0001,-47.7502
13:11:37.972,-22.9063,-51.5627
13:11:37.981,-23.9376,-54.8127
13:11:37.991,-25.6563,-58.2502
13:11:38.001,-26.7501,-62.3752
13:11:38.011,-28.4689,-65.6253
13:11:38.021,-31.1564,-69.5628
13:11:38.031,-31.6251,-72.8753
13:11:38.041,-34.4689,-77.0003
13:11:38.052,-34.7189,-80.1878
13:11:38.061,-37.2189,-82.6253
13:11:38.071,-38.3126,-86.3753
13:11:38.099,-38.8439,-87.7503
13:11:38.100,-38.9064,-89.1253
13:11:38.102,-37.4064,-86.0628
13:11:38.134,-34.1251,-77.6253
13:11:38.137,-27.5314,-62.6252
13:11:38.139,-18.4063,-42.4377
13:11:38.142,-8,-17.6251
13:11:38.173,2.8125,8.3125
13:11:38.177,13.8751,35.9376
13:11:38.179,24.6251,61.2502
13:11:38.181,35.1564,85.4378
13:11:38.193,42.5939,107.4379
13:11:38.225,50.3439,124.438
13:11:38.229,55.469,140.438
13:11:38.230,60.6877,151.1881
13:11:38.233,64.8752,162.5006
13:11:38.263,67.6878,169.3756
13:11:38.266,70.2815,176.5632
13:11:38.267,72.7503,181.5007
13:11:38.271,54.1252,188.2507
13:11:38.281,36.5001,191.5007
13:11:38.291,38.0626,196.1257
13:11:38.301,40.3439,197.8133
13:11:38.312,41.6877,200.5008
13:11:38.322,42.3439,200.5008
13:11:38.331,41.8439,198.5633
13:11:38.341,41.3752,196.2507
13:11:38.351,40.0627,191.1257
13:11:38.361,38.6564,187.0007
13:11:38.372,36.8439,181.4382
13:11:38.383,34.8126,176.0632
13:11:38.391,33.2814,171.5007
13:11:38.401,32.0001,166.3131
13:11:38.411,30.4376,161.0631
13:11:38.421,29.6251,158.2506
13:11:38.433,29.5939,155.8756
13:11:38.441,28.5001,153.3131
13:11:38.451,28.8751,151.3131
13:11:38.461,28.0626,150.2506
13:11:38.472,27.5939,148.8756
13:11:38.481,27.5001,146.3756
13:11:38.491,26.6564,142.938
13:11:38.502,26.2813,139.438
13:11:38.512,25.0938,135.563
13:11:38.523,23.2188,131.563
13:11:38.533,21.7501,126.6255
13:11:38.541,20.0626,121.063
13:11:38.551,18.0313,115.3754
13:11:38.561,15.6876,110.0004
13:11:38.571,13.6563,103.0004
13:11:38.581,11.9063,96.6254
13:11:38.591,9.4375,90.2504
13:11:38.602,6.9063,83.6253
13:11:38.611,4,76.8128
13:11:38.621,1.5938,69.0628
13:11:38.636,-0.5625,61.3752
13:11:38.641,-3.2813,54.6877
13:11:38.651,-4.6875,47.8127
13:11:38.661,-8.1563,40.8127
13:11:38.671,-9.9688,34.7501
13:11:38.681,-11.7188,28.0626
13:11:38.691,-14.1876,21.6251
13:11:38.701,-15.5938,15.9376
13:11:38.711,-17.0626,10.5625
13:11:38.721,-18.9376,6.5
13:11:38.749,-20.5313,1.9375
13:11:38.752,-21.8751,-3.625
13:11:38.754,-23.3438,-8.5
13:11:38.786,-24.9376,-13
13:11:38.788,-26.2188,-18.0001
13:11:38.789,-28.3439,-22.3126
13:11:38.815,-29.9376,-27.4376
13:11:38.819,-31.5314,-31.4376
13:11:38.820,-32.4376,-35.9376
13:11:38.827,-34.3126,-40.0627
13:11:38.853,-35.0001,-44.0002
13:11:38.856,-37.4064,-49.0627
13:11:38.910,-38.1876,-54.1877
13:11:38.912,-40.7189,-58.7502
13:11:38.913,-41.6252,-63.2502
13:11:38.913,-44.1252,-67.6253
13:11:38.927,-44.6877,-72.0003
13:11:38.942,-46.7814,-76.9378
13:11:38.946,-48.8439,-80.7503
13:11:38.946,-50.4377,-85.9378
13:11:38.958,-51.3127,-90.7504
13:11:38.961,-55.344,-98.1879
13:11:38.976,-56.8752,-102.3129
13:11:38.992,-57.344,-107.0004
13:11:38.993,-58.0315,-108.4379
13:11:39.014,-56.7815,-108.1879
13:11:39.014,-53.9377,-101.1254
13:11:39.015,-47.5939,-88.8753
13:11:39.019,-38.4689,-68.6253
13:11:39.028,-27.8439,-43.3752
13:11:39.037,-15.2501,-16.6251
13:11:39.046,-3.4688,11.9375
13:11:39.056,8.0625,38.4376
13:11:39.066,18.4688,63.2502
13:11:39.076,27.4689,85.6253
13:11:39.086,35.8439,104.3754
13:11:39.096,41.7814,119.6255
13:11:39.106,47.7189,134.063
13:11:39.116,52.4064,145.7505
13:11:39.128,56.2815,156.0006
13:11:39.136,59.4065,163.7506
13:11:39.146,62.0002,172.0632
13:11:39.156,64.594,177.5007
13:11:39.166,67.3753,183.9382
13:11:39.176,68.4065,187.6257
13:11:39.187,70.1565,191.6882
13:11:39.197,70.8753,193.6882
13:11:39.206,71.5315,196.4382
13:11:39.238,71.5628,195.6257
13:11:39.240,70.7815,194.0632
13:11:39.242,69.719,191.6257
13:11:39.247,66.8753,187.9382
13:11:39.256,64.8752,182.8757
13:11:39.266,62.6877,178.3132
13:11:39.276,60.344,173.9382
13:11:39.286,59.1565,169.6881
13:11:39.296,57.1877,165.8756
13:11:39.306,56.0002,163.1256
13:11:39.316,54.9377,159.8131
13:11:39.327,53.6877,158.0631
13:11:39.337,52.7814,155.0006
13:11:39.346,51.4377,152.2506
13:11:39.357,50.3439,149.4381
13:11:39.366,49.0002,145.438
13:11:39.376,46.5939,141.2505
13:11:39.386,44.2502,136.563
13:11:39.396,42.0002,130.3755
13:11:39.406,38.7501,123.6255
13:11:39.416,36.1564,117.7505
13:11:39.426,32.8126,110.1254
13:11:39.436,30.1564,104.0629
13:11:39.446,27.6564,96.4379
13:11:39.457,23.6563,89.9378
13:11:39.466,21.4376,81.5003
13:11:39.486,18.1563,74.1253
13:11:39.490,15.4063,67.3128
13:11:39.520,12.5625,58.6252
13:11:39.521,9.125,51.1877
13:11:39.523,7.375,44.6252
13:11:39.529,3.6875,38.0626
13:11:39.558,1.0938,31.6876
13:11:39.560,-1.5313,24.0001
13:11:39.562,-4.2813,17.2501
13:11:39.568,-6.0938,11.5625
13:11:39.600,-9,4.25
13:11:39.602,-10.9063,-0.625
13:11:39.604,-13.5626,-8.6875
13:11:39.612,-16.0313,-14.5001
13:11:39.622,-19.0313,-21.7501
13:11:39.651,-20.9688,-28.3751
13:11:39.653,-24.0001,-35.0626
13:11:39.655,-26.6876,-41.2502
13:11:39.658,-28.7189,-47.7502
13:11:39.667,-31.3751,-53.8127
13:11:39.677,-32.9064,-58.6877
13:11:39.686,-35.8126,-64.3127
13:11:39.697,-37.6564,-70.5628
13:11:39.707,-40.5939,-77.0628
13:11:39.716,-42.0314,-82.6253
13:11:39.727,-44.5939,-88.0003
13:11:39.737,-46.7189,-93.6254
13:11:39.746,-49.5627,-98.8129
13:11:39.760,-51.2502,-103.8754
13:11:39.769,-51.6252,-107.8754
13:11:39.776,-54.219,-110.2504
13:11:39.786,-55.1877,-115.0629
13:11:39.797,-56.6565,-119.5005
13:11:39.806,-58.8127,-123.6255
13:11:39.816,-59.7502,-128.188
13:11:39.826,-60.844,-131.6255
13:11:39.836,-62.969,-134.188
13:11:39.846,-64.1565,-139.5005
13:11:39.856,-66.2815,-144.188
13:11:39.867,-67.344,-147.2506
13:11:39.876,-68.4065,-150.8131
13:11:39.886,-67.344,-150.0631
13:11:39.896,-65.6252,-145.438
13:11:39.906,-60.8752,-135.3755
13:11:39.917,-52.6565,-118.688
13:11:39.926,-42.9689,-96.3129
13:11:39.938,-31.7814,-70.9378
13:11:39.948,-19.8751,-43.7502
13:11:39.958,-9.25,-16.6251
13:11:39.966,1.3125,8.125
13:11:39.976,10.9688,30.5626
13:11:39.986,18.7813,50.6877
13:11:39.996,26.0001,67.1253
13:11:40.006,30.6564,81.5628
13:11:40.017,36.4064,93.8754
13:11:40.026,40.2502,104.8754
13:11:40.038,43.5314,113.6254
13:11:40.046,46.0939,121.6255
13:11:40.056,48.6877,127.313
13:11:40.068,51.5939,134.313
13:11:40.076,53.1565,141.3755
13:11:40.087,55.4065,145.3755
13:11:40.096,56.4065,150.3131
13:11:40.106,56.7815,151.7506
13:11:40.116,57.3752,151.6256
13:11:40.128,56.0315,150.3131
13:11:40.136,54.6877,147.3131
13:11:40.147,52.844,144.0005
13:11:40.157,50.4064,139.063
13:11:40.166,48.8439,135.063
13:11:40.176,46.3127,129.5005
13:11:40.212,44.3439,125.5005
13:11:40.214,42.3127,120.938
13:11:40.245,40.1877,117.1879
13:11:40.273,40.1877,115.2504
13:11:40.306,38.1564,112.8754
13:11:40.349,37.9064,111.0004
13:11:40.350,36.7189,109.0004
13:11:40.350,36.4376,107.0629
13:11:40.371,34.5626,105.2504
13:11:40.374,34.4376,102.0629
13:11:40.388,32.3439,99.5004
13:11:40.391,31.0939,95.3754
13:11:40.391,28.2501,90.3753
13:11:40.391,25.3751,85.8128
13:11:40.392,23.8438,79.1253
13:11:40.403,20.6563,73.8128
13:11:40.411,18.0313,66.9378
13:11:40.422,14.8751,58.7502
13:11:40.431,11.8438,51.5627
13:11:40.441,9.125,44.3127
13:11:40.452,5.9063,36.7501
13:11:40.461,3.0938,29.6876
13:11:40.473,-0.4063,22.2501
13:11:40.482,-3.3125,14.5626
13:11:40.491,-10.2813,-2.875
13:11:40.520,-13.0938,-9.8125
13:11:40.520,-16.0938,-17.6251
13:11:40.522,-18.2501,-23.6876
13:11:40.537,-20.5938,-30.0626
13:11:40.543,-36.0314,-68.6878
13:11:40.551,-37.6564,-74.1253
13:11:40.562,-40.0939,-77.1878
13:11:40.572,-40.9377,-81.6253
13:11:40.583,-42.4377,-84.9378
13:11:40.592,-43.2814,-88.5003
13:11:40.601,-44.8127,-92.7504
13:11:40.612,-46.3127,-96.7504
13:11:40.621,-47.3752,-100.1879
13:11:40.632,-48.6252,-102.9379
13:11:40.641,-50.3127,-108.1254
13:11:40.651,-51.9064,-111.4379
13:11:40.663,-53.7815,-116.6254
13:11:40.672,-54.9065,-119.688
13:11:40.682,-55.6252,-122.8755
13:11:40.692,-57.594,-127.3755
13:11:40.702,-58.594,-130.8755
13:11:40.712,-60.5315,-134.563
13:11:40.723,-61.8127,-137.938
13:11:40.731,-63.0315,-141.438
13:11:40.743,-64.969,-145.313
13:11:40.753,-66.6878,-149.6881
13:11:40.761,-68.0315,-154.2506
13:11:40.773,-70.0628,-157.7506
13:11:40.782,-70.969,-161.2506
13:11:40.791,-71.3753,-162.6256
13:11:40.801,-71.1253,-163.0631
13:11:40.811,-68.0628,-158.0006
13:11:40.822,-63.5627,-145.438
13:11:40.833,-55.0002,-128.1255
13:11:40.843,-44.4064,-105.6254
13:11:40.853,-34.2189,-80.0003
13:11:40.861,-22.4063,-54.2502
13:11:40.873,-11.1563,-27.1251
13:11:40.882,-1.5938,-3.4375
13:11:40.891,6.9063,17.1251
13:11:40.902,13.6251,36.3126
13:11:40.911,19.8438,49.7502
13:11:40.922,25.5938,63.0002
13:11:40.931,28.9064,73.5628
13:11:40.941,32.5939,81.8128
13:11:40.951,35.4376,90.3753
13:11:40.963,36.9689,95.3129
13:11:40.971,39.7189,101.8129
13:11:40.981,40.7502,107.6254
13:11:40.991,42.3127,109.3754
13:11:41.001,43.2814,112.8754
13:11:41.016,43.6877,114.7504
13:11:41.046,44.3752,115.4379
13:11:41.048,42.9377,114.2504
13:11:41.050,41.7502,111.6254
13:11:41.052,39.4377,108.4379
13:11:41.091,37.5626,103.3754
13:11:41.092,35.5939,99.4379
13:11:41.095,33.4689,93.8754
13:11:41.097,31.1876,90.0628
13:11:41.104,29.2501,85.4378
13:11:41.130,27.9689,82.0628
13:11:41.133,26.5626,79.3128
13:11:41.135,25.7813,77.4378
13:11:41.162,24.8438,75.1253
13:11:41.166,24.3126,74.5003
13:11:41.168,23.1563,72.9378
13:11:41.175,23.5626,72.6253
13:11:41.186,23.0313,71.6878
13:11:41.192,22.4063,70.4378
13:11:41.202,22.2501,69.0003
13:11:41.212,20.1251,66.0628
13:11:41.222,19.8126,63.1252
13:11:41.231,18.2501,58.6252
13:11:41.242,15.5626,55.3752
13:11:41.252,13.8438,51.3127
13:11:41.262,12.5313,45.7502
13:11:41.271,10.5313,42.1252
13:11:41.287,8.7188,37.0001
13:11:41.293,5.9063,31.3751
13:11:41.302,4.0313,25.1876
13:11:41.311,0.7188,18.8126
13:11:41.323,-2.1875,12.0625
13:11:41.332,-4.3125,4.5
13:11:41.342,-7.2188,-2.375
13:11:41.351,-9.1563,-8.125
13:11:41.362,-11.5,-13.8751
13:11:41.372,-13.0313,-18.8126
13:11:41.383,-15.3751,-23.6251
13:11:41.391,-17.6563,-28.6251
13:11:41.403,-19.5001,-34.8126
13:11:41.412,-21.9063,-40.3752
13:11:41.422,-24.3438,-45.1252
13:11:41.432,-25.5313,-51.0002
13:11:41.442,-28.3751,-57.6252
13:11:41.452,-30.5314,-63.4377
13:11:41.462,-32.3439,-67.5628
13:11:41.472,-34.0939,-72.8753
13:11:41.482,-36.2814,-76.1878
13:11:41.493,-37.1876,-81.0003
13:11:41.502,-39.0314,-85.0628
13:11:41.512,-40.2814,-89.7503
13:11:41.523,-41.9689,-93.3129
13:11:41.533,-42.5939,-96.7504
13:11:41.542,-44.5002,-100.9379
13:11:41.553,-45.3439,-103.8129
13:11:41.562,-47.2502,-107.0004
13:11:41.573,-48.5002,-111.1879
13:11:41.582,-48.5627,-114.4379
13:11:41.598,-51.3439,-117.8754
13:11:41.605,-52.3439,-122.063
13:11:41.613,-53.5315,-124.7505
13:11:41.633,-55.1252,-129.1255
13:11:41.636,-55.9377,-132.063
13:11:41.644,-57.8752,-135.438
13:11:41.651,-59.8127,-139.3755
13:11:41.669,-60.3752,-142.7505
13:11:41.694,-59.8752,-141.1255
13:11:41.756,-57.5315,-137.563
13:11:41.757,-52.4064,-126.563
13:11:41.758,-45.0939,-109.5004
13:11:41.759,-35.5314,-88.8753
13:11:41.799,-25.0626,-63.0002
13:11:41.799,-13.9063,-38.4376
13:11:41.799,-3.2813,-13.5001
13:11:41.800,5.8438,10.25
13:11:41.804,15.1251,31.0001
13:11:41.811,21.8438,49.7502
13:11:41.811,29.2501,66.0003
13:11:41.837,34.3751,79.5003
13:11:41.840,39.2814,91.6879
13:11:41.840,43.0314,101.5629
13:11:41.870,46.5002,109.7504
13:11:41.872,49.1564,117.5005
13:11:41.873,51.1877,122.813
13:11:41.880,52.8439,128.1255
13:11:41.888,54.469,131.6255
13:11:41.897,55.2815,135.188
13:11:41.907,56.6565,136.8755
13:11:41.917,56.2815,137.7505
13:11:41.928,54.719,135.813
13:11:41.937,50.4064,127.2505
13:11:41.947,47.4064,120.563
13:11:41.956,44.4377,113.5629
13:11:41.968,41.8127,107.5004
13:11:41.977,40.0939,101.8754
13:11:41.988,38.9689,98.0004
13:11:41.997,36.5314,94.3129
13:11:42.007,34.9689,90.5004
13:11:42.017,33.9376,88.8753
13:11:42.027,32.8751,86.0628
13:11:42.036,31.9689,83.1878
13:11:42.047,29.8751,81.1878
13:11:42.057,29.1876,77.6253
13:11:42.067,27.6251,75.4378
13:11:42.077,26.8751,71.5628
13:11:42.087,24.9376,67.1878
13:11:42.097,22.7813,63.3752
13:11:42.107,20.4688,57.7502
13:11:42.117,18.7188,52.8752
13:11:42.128,16.5313,47.0002
13:11:42.137,14.2501,41.0627
13:11:42.148,11.625,35.2501
13:11:42.158,8.5938,28.7501
13:11:42.167,6.0313,23.1251
13:11:42.177,3.75,16.4376
13:11:42.188,1.7813,9.9375
13:11:42.197,-1.0313,5
13:11:42.208,-3.125,-1.3125
13:11:42.218,-5.3438,-6.3125
13:11:42.227,-6.7813,-12.625
13:11:42.237,-9.0313,-18.0626
13:11:42.247,-11.875,-24.0626
13:11:42.257,-14.3126,-28.6876
13:11:42.267,-15.5313,-33.6251
13:11:42.277,-17.3438,-39.3127
13:11:42.287,-18.9376,-43.6877
13:11:42.298,-21.2501,-49.2502
13:11:42.307,-23.5626,-54.4377
13:11:42.317,-24.8751,-58.4377
13:11:42.328,-26.7814,-62.8752
13:11:42.337,-27.8751,-68.1253
13:11:42.347,-30.4376,-73.3753
13:11:42.358,-32.6564,-76.8753
13:11:42.368,-33.5001,-81.6253
13:11:42.377,-35.5314,-85.5628
13:11:42.388,-37.3126,-91.4379
13:11:42.398,-39.7814,-96.2504
13:11:42.412,-42.0627,-103.1879
13:11:42.417,-44.4064,-107.9379
13:11:42.427,-46.7189,-114.1879
13:11:42.437,-49.3127,-119.813
13:11:42.447,-51.9377,-125.938
13:11:42.457,-52.8127,-130.8755
13:11:42.468,-54.9065,-134.188
13:11:42.494,-56.4377,-138.688
13:11:42.494,-57.3752,-142.6255
13:11:42.498,-59.0627,-145.063
13:11:42.529,-59.2815,-148.5631
13:11:42.532,-59.3752,-149.9381
13:11:42.534,-60.719,-151.8131
13:11:42.539,-61.5627,-155.0631
13:11:42.565,-61.9377,-156.7506
13:11:42.569,-62.1877,-157.1256
13:11:42.569,-62.1877,-157.3756
13:11:42.597,-58.844,-152.7506
13:11:42.599,-55.969,-143.0005
13:11:42.601,-48.9689,-128.7505
13:11:42.609,-40.3127,-107.3754
13:11:42.623,-29.2814,-83.4378
13:11:42.627,-18.0313,-54.7502
13:11:42.656,-5.8125,-27.4376
13:11:42.660,5.7813,0.6875
13:11:42.660,16.3751,27.1876
13:11:42.670,26.7501,50.4377
13:11:42.677,35.8126,72.5003
13:11:42.687,43.4064,91.7504
13:11:42.698,49.9689,108.3754
13:11:42.709,54.7815,122.8755
13:11:42.717,59.5315,133.313
13:11:42.728,63.4065,143.688
13:11:42.738,66.594,151.7506
13:11:42.748,70.1878,159.0006
13:11:42.757,71.3128,164.8756
13:11:42.767,73.5315,169.9381
13:11:42.777,75.2503,175.1882
13:11:42.789,76.344,180.1882
13:11:42.797,77.5315,181.6882
13:11:42.807,77.2503,184.5632
13:11:42.817,77.9065,184.7507
13:11:42.827,77.0628,184.5007
13:11:42.837,76.0315,179.9382
13:11:42.848,73.3128,175.1257
13:11:42.857,70.4065,170.5007
13:11:42.868,69.6878,167.2506
13:11:42.882,70.0628,165.3131
13:11:42.892,69.0315,164.8756
13:11:42.903,68.469,162.6881
13:11:42.920,67.2503,159.8756
13:11:42.926,64.9377,156.6881
13:11:42.941,63.5002,152.1256
13:11:42.944,61.219,146.688
13:11:42.958,57.844,141.063
13:11:42.962,54.4377,134.938
13:11:42.972,51.7502,128.1255
13:11:42.982,49.1252,122.1255
13:11:43.005,46.0314,114.4379
13:11:43.009,42.9064,106.1254
13:11:43.021,39.7189,98.1254
13:11:43.027,35.6564,88.7503
13:11:43.039,31.4064,77.5628
13:11:43.042,24.5001,60.844
13:11:43.052,20.0001,48.1252
13:11:43.080,14.6876,35.9064
13:11:43.082,9.75,23.7501
13:11:43.084,4.8438,11.7813
13:11:43.092,0.5625,1.25
13:11:43.103,-3.2188,-8.625
13:11:43.113,-6.5,-18.5313
13:11:43.123,-11.1563,-26.8126
13:11:43.133,-13.9688,-36.2814
13:11:43.142,-17.2188,-44.9689
13:11:43.152,-20.0626,-51.0002
13:11:43.185,-22.0626,-57.0627
13:11:43.187,-23.9376,-62.5627
13:11:43.189,-25.5313,-67.3128
13:11:43.195,-27.1876,-71.8753
13:11:43.219,-28.6876,-76.7503
13:11:43.222,-31.2501,-81.7503
13:11:43.224,-32.5939,-87.0628
13:11:43.254,-34.8126,-91.6254
13:11:43.258,-35.4064,-95.8754
13:11:43.259,-37.5626,-101.1254
13:11:43.264,-38.9064,-104.5004
13:11:43.293,-41.3127,-108.4379
13:11:43.293,-42.9064,-114.6879
13:11:43.297,-44.1564,-118.188
13:11:43.323,-46.3439,-122.2505
13:11:43.324,-47.5627,-126.438
13:11:43.329,-48.6564,-128.1255
13:11:43.334,-49.6252,-132.313
13:11:43.350,-50.1877,-134.188
13:11:43.352,-52.0314,-135.563
13:11:43.362,-52.8752,-140.688
13:11:43.372,-54.3752,-144.1255
13:11:43.383,-56.9065,-148.0631
13:11:43.392,-58.3127,-152.4381
13:11:43.402,-59.5002,-155.1256
13:11:43.412,-61.2815,-159.4381
13:11:43.422,-62.219,-161.5631
13:11:43.432,-64.0627,-164.3131
13:11:43.443,-65.094,-168.6881
13:11:43.452,-67.344,-171.1257
13:11:43.462,-69.0003,-176.5007
13:11:43.472,-71.0003,-178.8132
13:11:43.482,-72.1253,-183.9382
13:11:43.492,-74.094,-186.3132
13:11:43.502,-74.8753,-189.6257
13:11:43.513,-76.5628,-190.5007
13:11:43.523,-76.8753,-192.3757
13:11:43.538,-75.344,-189.3757
13:11:43.547,-72.9378,-180.5007
13:11:43.558,-66.1253,-165.8131
13:11:43.567,-58.4377,-145.8755
13:11:43.577,-47.8127,-121.5005
13:11:43.587,-38.5001,-96.5004
13:11:43.597,-27.2501,-72.2503
13:11:43.607,-18.0626,-48.6252
13:11:43.618,-9.4063,-28.8751
13:11:43.628,-2.2813,-10
13:11:43.637,4.3125,4.9375
13:11:43.647,10.3125,18.8126
13:11:43.657,14.8438,29.6876
13:11:43.668,19.3751,39.5627
13:11:43.678,22.7188,48.7502
13:11:43.687,25.7813,54.7502
13:11:43.698,28.8751,62.5627
13:11:43.707,30.8439,68.3128
13:11:43.724,32.5939,72.4378
13:11:43.728,32.5314,74.3128
13:11:43.738,32.8751,75.1878
13:11:43.747,33.0626,76.1253
13:11:43.757,31.5001,73.5628
13:11:43.767,30.4376,71.8753
13:11:43.777,27.9376,68.3128
13:11:43.787,25.7813,62.3752
13:11:43.797,22.7813,57.6252
13:11:43.808,20.3126,51.1252
13:11:43.817,17.4063,45.7502
13:11:43.828,14.2813,39.5002
13:11:43.837,11.875,34.5001
13:11:43.847,9.6875,30.5001
13:11:43.857,7.625,26.5626
13:11:43.867,5.875,23.8751
13:11:43.877,4.6875,20.3751
13:11:43.887,3.1875,17.4376
13:11:43.897,1.3125,14.1251
13:11:43.907,-0.5625,12.125
13:11:43.917,-2.0313,7.625
13:11:43.954,-3.9063,2.8125
13:11:43.958,-6.3125,-2.3125
13:11:43.959,-8.8125,-7.5
13:11:43.963,-11.4375,-13.6251
13:11:43.968,-12.875,-19.8126
13:11:43.999,-16.5001,-27.3126
13:11:44.001,-19.8751,-33.7501
13:11:44.004,-23.2501,-40.8752
13:11:44.029,-25.7501,-48.4377
13:11:44.029,-28.6876,-55.8752
13:11:44.032,-32.9376,-64.6252
13:11:44.038,-36.0001,-71.5628
13:11:44.048,-38.6876,-80.0003
13:11:44.073,-42.8439,-88.4378
13:11:44.076,-46.5939,-96.2504
13:11:44.081,-49.3439,-102.9379
13:11:44.109,-52.2502,-110.7504
13:11:44.111,-55.344,-118.5005
13:11:44.113,-58.8752,-125.063
13:11:44.119,-61.1565,-132.313
13:11:44.130,-64.9377,-139.188
13:11:44.137,-67.094,-146.688
13:11:44.147,-69.1253,-152.1881
13:11:44.158,-71.844,-158.6881
13:11:44.167,-73.7815,-164.0631
13:11:44.177,-76.469,-169.8131
13:11:44.188,-79.0003,-176.6257
13:11:44.197,-82.0628,-182.4382
13:11:44.207,-84.5941,-189.3132
13:11:44.229,-87.4691,-196.2507
13:11:44.236,-90.7816,-202.5633
13:11:44.249,-93.3754,-208.9383
13:11:44.251,-96.1879,-214.6258
13:11:44.260,-99.1879,-222.1884
13:11:44.268,-102.1879,-227.7509
13:11:44.277,-105.1566,-235.5009
13:11:44.287,-107.6879,-241.0634
13:11:44.306,-111.0317,-246.1884
13:11:44.309,-113.9067,-254.0635
13:11:44.323,-117.3129,-259.3135
13:11:44.331,-120.2505,-266.876
13:11:44.358,-122.0942,-272.251
13:11:44.362,-125.8755,-278.1886
13:11:44.363,-128.7505,-284.3136
13:11:44.369,-131.0317,-288.4386
13:11:44.378,-133.563,-295.2511
13:11:44.387,-135.8755,-299.0012
13:11:44.397,-138.2505,-304.6262
13:11:44.407,-140.063,-307.7512
13:11:44.417,-142.4068,-310.6887
13:11:44.428,-143.313,-314.0012
13:11:44.437,-143.7193,-315.2512
13:11:44.447,-144.0005,-314.5637
13:11:44.457,-140.938,-307.8137
13:11:44.468,-137.188,-294.9386
13:11:44.478,-127.813,-273.0635
13:11:44.487,-116.8754,-243.4384
13:11:44.497,-105.5629,-216.0008
13:11:44.507,-95.3754,-190.6257
13:11:44.517,-86.8128,-170.0006
13:11:44.527,-78.6253,-151.9381
13:11:44.543,-72.6253,-135.063
13:11:44.553,-66.4378,-123.5005
13:11:44.562,-61.0315,-112.6254
13:11:44.586,-57.469,-102.8129
13:11:44.588,-53.594,-95.2504
13:11:44.596,-51.4689,-88.0628
13:11:44.627,-48.5002,-82.3128
13:11:44.630,-46.4689,-76.6253
13:11:44.632,-45.0939,-70.6878
13:11:44.635,-43.4064,-68.6253
13:11:44.664,-41.5314,-64.8752
13:11:44.666,-41.7189,-63.6877
13:11:44.668,-41.6877,-63.6877
13:11:44.677,-42.2189,-64.4377
13:11:44.683,-43.1877,-67.7503
13:11:44.709,-44.3127,-70.3753
13:11:44.711,-46.4377,-74.8753
13:11:44.715,-48.9377,-79.4378
13:11:44.744,-50.2814,-84.2503
13:11:44.746,-51.4689,-87.1878
13:11:44.749,-52.8752,-90.4379
13:11:44.754,-53.719,-93.3129
13:11:44.764,-55.094,-94.8129
13:11:44.773,-56.2502,-97.2504
13:11:44.782,-56.0002,-98.0004
13:11:44.792,-57.1565,-99.2504
13:11:44.803,-57.3127,-100.6254
13:11:44.812,-57.344,-100.5004
13:11:44.822,-57.969,-103.1254
13:11:44.832,-58.4377,-104.1879
13:11:44.842,-59.4377,-107.1254
13:11:44.852,-60.094,-109.4379
13:11:44.862,-60.6877,-112.0004
13:11:44.872,-62.5315,-115.1254
13:11:44.884,-63.7815,-119.188
13:11:44.892,-65.7815,-123.3755
13:11:44.902,-67.1878,-128.188
13:11:44.912,-69.0315,-131.813
13:11:44.923,-70.7503,-137.2505
13:11:44.932,-72.6253,-142.313
13:11:44.942,-73.969,-146.5005
13:11:44.952,-75.8128,-150.6256
13:11:44.962,-77.5003,-156.1256
13:11:44.972,-78.9378,-159.5006
13:11:44.982,-80.0941,-163.0631
13:11:44.992,-82.1253,-167.5006
13:11:45.003,-82.7503,-172.2507
13:11:45.012,-84.1878,-174.5632
13:11:45.023,-85.5316,-178.6882
13:11:45.033,-85.9066,-181.0632
13:11:45.043,-86.2816,-183.3132
13:11:45.052,-88.0628,-186.3757
13:11:45.063,-88.9378,-189.6882
13:11:45.072,-89.4066,-192.0007
13:11:45.082,-91.0316,-193.6257
13:11:45.092,-92.0629,-197.7508
13:11:45.102,-92.1254,-199.3758
13:11:45.112,-92.6879,-201.0008
13:11:45.122,-93.4691,-203.1883
13:11:45.133,-93.4379,-204.0633
13:11:45.142,-93.2504,-204.9383
13:11:45.152,-93.9066,-205.9383
13:11:45.162,-93.7504,-207.9383
13:11:45.172,-94.0941,-207.9383
13:11:45.182,-94.0004,-208.7508
13:11:45.192,-95.1566,-210.0008
13:11:45.202,-94.5941,-210.6258
13:11:45.213,-94.6254,-211.3133
13:11:45.223,-95.5004,-213.4383
13:11:45.233,-94.5004,-213.5008
13:11:45.242,-95.0004,-213.0633
13:11:45.252,-95.0941,-214.4383
13:11:45.262,-94.9379,-215.5633
13:11:45.272,-94.6566,-214.8758
13:11:45.283,-93.8129,-214.2508
13:11:45.292,-94.0629,-214.1258
13:11:45.302,-93.5004,-214.0008
13:11:45.312,-92.5629,-213.1258
13:11:45.322,-92.6254,-211.6258
13:11:45.333,-91.8441,-212.1883
13:11:45.342,-91.7504,-210.9383
13:11:45.352,-91.1879,-211.3758
13:11:45.377,-89.4378,-209.6258
13:11:45.379,-88.9066,-206.4383
13:11:45.386,-86.0941,-200.6258
13:11:45.412,-80.7503,-187.4382
13:11:45.416,-74.344,-169.1881
13:11:45.418,-64.4377,-146.8131
13:11:45.423,-51.5002,-113.1879
13:11:45.451,-39.8752,-82.5003
13:11:45.451,-30.3439,-59.5627
13:11:45.453,-21.7188,-39.2502
13:11:45.484,-15.3751,-22.5626
13:11:45.487,-9.9688,-10.125
13:11:45.489,-5.25,0.5625
13:11:45.516,-1.1875,10.25
13:11:45.517,2.1563,18.1876
13:11:45.518,5.0625,24.8126
13:11:45.547,7.0313,31.6251
13:11:45.549,9.9375,35.3751
13:11:45.568,12.9688,40.6877
13:11:45.579,14.2813,45.6252
13:11:45.581,15.8438,48.6252
13:11:45.582,17.6876,52.1877
13:11:45.585,18.0938,52.8127
13:11:45.593,18.1251,52.8752
13:11:45.609,17.5626,51.2502
13:11:45.612,16.3438,48.8127
13:11:45.640,14.8751,45.6877
13:11:45.655,13.9688,41.8127
13:11:45.662,11.9688,38.0001
13:11:45.663,10.625,34.4376
13:11:45.663,9.0625,30.3126
13:11:45.673,8.2188,28.3126
13:11:45.682,7.4688,25.4376
13:11:45.692,6.4063,24.3751
13:11:45.702,5.6563,22.9376
13:11:45.712,5.5625,21.4376
13:11:45.722,5.125,20.0626
13:11:45.732,4.7813,19.0626
13:11:45.742,3.7188,18.1876
13:11:45.753,3.4375,15.5001
13:11:45.762,2.2813,13.7501
13:11:45.772,1.4688,11.125
13:11:45.783,0.375,7.6875
13:11:45.792,-0.3438,4.625
13:11:45.802,-2.1563,0.9375
13:11:45.812,-3.2813,-2.9375
13:11:45.824,-5.6563,-7.5
13:11:45.833,-8,-12.5625
13:11:45.842,-9.0938,-17.8751
13:11:45.852,-12.1875,-23.1251
13:11:45.862,-13.7501,-28.8751
13:11:45.873,-15.7813,-34.0626
13:11:45.882,-18.6563,-39.1877
13:11:45.892,-20.2813,-44.9377
13:11:45.902,-22.6251,-49.6877
13:11:45.912,-24.2188,-55.9377
13:11:45.922,-27.1876,-60.7502
13:11:45.933,-27.8439,-65.8753
13:11:45.943,-30.5314,-70.1253
13:11:45.953,-31.9376,-75.0628
13:11:45.963,-34.3439,-78.5628
13:11:45.973,-35.3751,-83.5003
13:11:45.983,-37.2814,-86.9378
13:11:45.993,-38.6251,-91.3754
13:11:46.002,-39.7814,-95.1879
13:11:46.014,-40.7502,-97.6879
13:11:46.024,-42.5002,-99.9379
13:11:46.060,-43.0939,-104.1879
13:11:46.062,-44.0002,-107.4379
13:11:46.064,-44.6877,-109.4379
13:11:46.066,-45.5002,-112.6254
13:11:46.074,-45.7502,-114.3754
13:11:46.105,-47.3752,-116.1879
13:11:46.107,-47.4064,-118.813
13:11:46.109,-47.5314,-119.813
13:11:46.141,-48.2189,-121.2505
13:11:46.142,-49.0002,-123.188
13:11:46.143,-49.0939,-124.188
13:11:46.150,-49.9689,-126.188
13:11:46.152,-50.2814,-128.313
13:11:46.184,-50.2814,-129.938
13:11:46.186,-51.7189,-131.063
13:11:46.189,-51.6877,-132.813
13:11:46.194,-52.0002,-134.1255
13:11:46.218,-52.4689,-135.313
13:11:46.221,-52.6564,-136.6255
13:11:46.223,-52.4689,-137.5005
13:11:46.233,-53.6565,-138.313
13:11:46.242,-53.7502,-139.313
13:11:46.253,-53.1252,-139.8755
13:11:46.262,-53.5315,-138.938
13:11:46.272,-53.3752,-140.8755
13:11:46.284,-53.1877,-141.3755
13:11:46.292,-53.8127,-142.5005
13:11:46.304,-53.7502,-143.188
13:11:46.314,-54.0627,-144.1255
13:11:46.322,-54.0002,-144.938
13:11:46.333,-53.3752,-144.188
13:11:46.342,-51.9377,-140.6255
13:11:46.353,-49.1564,-132.438
13:11:46.362,-44.0314,-120.7505
13:11:46.372,-37.2814,-102.5629
13:11:46.382,-28.9689,-79.3753
13:11:46.392,-16.7813,-49.9377
13:11:46.406,-5.2813,-21.1876
13:11:46.414,2.5625,1
13:11:46.423,9.6563,17.0001
13:11:46.433,15.4063,31.1251
13:11:46.443,19.3438,40.3752
13:11:46.452,22.6876,48.2502
13:11:46.463,25.8126,55.0627
13:11:46.472,27.3126,60.6252
13:11:46.484,29.4064,65.5628
13:11:46.494,30.8439,69.0003
13:11:46.503,32.7814,72.0003
13:11:46.513,33.4064,75.0628
13:11:46.523,35.0939,77.2503
13:11:46.537,35.5001,79.4378
13:11:46.543,34.9376,78.4378
13:11:46.553,34.6564,77.4378
13:11:46.564,33.2189,75.7503
13:11:46.572,32.4376,70.9378
13:11:46.584,30.3126,67.5003
13:11:46.592,28.8126,62.2502
13:11:46.603,26.1563,58.0627
13:11:46.614,24.7501,53.8127
13:11:46.622,22.3751,49.3127
13:11:46.632,20.8126,44.8752
13:11:46.643,18.7188,39.8127
13:11:46.652,17.3126,37.0626
13:11:46.662,15.9376,33.0626
13:11:46.672,14.2813,30.5001
13:11:46.682,12.8125,27.2501
13:11:46.692,11.7188,24.2501
13:11:46.703,9.6875,20.2501
13:11:46.713,8.4063,17.1876
13:11:46.723,6.4063,13.125
13:11:46.733,4.0938,8.3125
13:11:46.744,2.2813,3
13:11:46.752,0.4375,-2.125
13:11:46.763,-1.1563,-6.5625
13:11:46.772,-3.75,-11.3125
13:11:46.782,-5.5625,-16.7501
13:11:46.793,-7.0938,-21.6251
13:11:46.804,-9.5,-26.1876
13:11:46.813,-11.375,-31.1251
13:11:46.822,-13.0313,-35.1251
13:11:46.833,-14.9688,-40.3752
13:11:46.850,-16.5001,-45.0627
13:11:46.928,-18.6563,-49.9377
13:11:46.992,-20.2188,-54.1877
13:11:46.992,-22.5938,-57.8127
13:11:46.992,-24.2188,-62.3127
13:11:46.992,-25.8751,-66.9378
13:11:46.994,-27.6251,-71.0003
13:11:47.001,-28.3751,-74.0003
13:11:47.001,-30.0626,-78.1253
13:11:47.001,-30.6251,-80.5628
13:11:47.033,-32.1564,-82.8753
13:11:47.036,-32.3751,-86.6878
13:11:47.037,-33.9064,-88.3753
13:11:47.040,-34.4064,-91.5004
13:11:47.050,-34.1564,-93.1254
13:11:47.058,-35.5314,-94.8754
13:11:47.069,-35.4064,-96.8129
13:11:47.079,-36.3126,-99.3754
13:11:47.088,-36.0314,-100.3754
13:11:47.098,-37.2189,-101.6879
13:11:47.109,-38.1876,-103.8754
13:11:47.119,-38.7189,-106.1879
13:11:47.128,-39.0939,-106.7504
13:11:47.139,-39.2501,-108.0629
13:11:47.147,-40.0002,-109.8754
13:11:47.161,-40.5314,-111.1879
13:11:47.169,-47.8127,-132.5005
13:11:47.178,-47.0314,-134.063
13:11:47.189,-47.7814,-132.3755
13:11:47.198,-47.4064,-134.7505
13:11:47.210,-46.9689,-134.8755
13:11:47.219,-48.2814,-135.188
13:11:47.228,-48.4064,-136.813
13:11:47.239,-48.7502,-137.0005
13:11:47.248,-49.1564,-137.813
13:11:47.259,-48.2814,-136.3755
13:11:47.269,-47.7189,-132.6255
13:11:47.278,-43.7189,-125.188
13:11:47.289,-39.6252,-111.2504
13:11:47.297,-33.9376,-98.0004
13:11:47.309,-25.0938,-77.2503
13:11:47.319,-16.2501,-51.9377
13:11:47.334,-5.4063,-25.0626
13:11:47.344,2.7813,-1.8125
13:11:47.352,9.125,14.0626
13:11:47.363,15.3751,27.7501
13:11:47.374,18.9376,38.0626
13:11:47.384,22.5938,44.9377
13:11:47.394,24.3126,52.0002
13:11:47.403,26.6251,56.3127
13:11:47.413,29.0626,60.3127
13:11:47.423,29.5314,64.5002
13:11:47.434,31.2501,67.0628
13:11:47.444,32.3439,70.6253
13:11:47.453,33.0626,72.2503
13:11:47.463,33.8126,74.5628
13:11:47.475,33.7189,72.8753
13:11:47.484,34.2501,72.5003
13:11:47.493,32.1876,70.1878
13:11:47.504,31.5626,65.8128
13:11:47.514,30.5001,63.3752
13:11:47.524,29.2814,59.2502
13:11:47.536,27.4689,55.6252
13:11:47.544,25.6876,52.0002
13:11:47.553,24.7813,48.8127
13:11:47.563,24.1251,46.7502
13:11:47.597,23.2501,44.6877
13:11:47.598,22.5001,42.8752
13:11:47.602,22.5626,42.0627
13:11:47.626,21.1563,40.8752
13:11:47.628,21.9376,39.7502
13:11:47.630,21.0001,38.3126
13:11:47.635,20.1563,37.0001
13:11:47.665,19.6251,34.6876
13:11:47.668,18.7501,32.3751
13:11:47.669,17.9376,30.2501
13:11:47.703,17.0938,27.1251
13:11:47.704,15.2188,24.2501
13:11:47.706,14.0001,20.1251
13:11:47.713,11.4063,16.0626
13:11:47.714,9.9375,10.9375
13:11:47.725,8.375,6.625
13:11:47.752,6.0313,1.75
13:11:47.753,4.2813,-2.25
13:11:47.756,2.1563,-7.9375
13:11:47.764,0.5313,-12.0625
13:11:47.773,-0.9063,-16.8126
13:11:47.784,-3.5,-20.8751
13:11:47.794,-5.1563,-25.2501
13:11:47.803,-6.5938,-29.5626
13:11:47.813,-8.6875,-34.0001
13:11:47.824,-9.7188,-36.7501
13:11:47.835,-10.9688,-41.3752
13:11:47.843,-12.8125,-44.0627
13:11:47.853,-13.8751,-47.8127
13:11:47.864,-14.8438,-51.3127
13:11:47.873,-15.1251,-54.0002
13:11:47.885,-16.8126,-56.5627
13:11:47.893,-17.4376,-59.1252
13:11:47.903,-18.5313,-61.0627
13:11:47.913,-19.5938,-62.8752
13:11:47.924,-20.1876,-66.6253
13:11:47.934,-20.3126,-69.0628
13:11:47.943,-21.9688,-70.8128
13:11:47.953,-22.7188,-73.6253
13:11:47.963,-23.5938,-74.8128
13:11:47.974,-23.3438,-77.1253
13:11:47.984,-24.5313,-78.3128
13:11:47.993,-25.3126,-81.4378
13:11:48.003,-26.8751,-83.6253
13:11:48.013,-27.3439,-86.5628
13:11:48.024,-28.7501,-88.5628
13:11:48.034,-29.1876,-90.5004
13:11:48.044,-30.5001,-92.3129
13:11:48.054,-31.1564,-94.2504
13:11:48.063,-32.0314,-96.8754
13:11:48.074,-32.6564,-99.0004
13:11:48.084,-33.4064,-100.3754
13:11:48.093,-34.1564,-102.0629
13:11:48.103,-34.5314,-103.3754
13:11:48.114,-34.4689,-103.7504
13:11:48.123,-34.5001,-104.6254
13:11:48.134,-34.1876,-105.0004
13:11:48.144,-34.2189,-106.4379
13:11:48.163,-34.8126,-106.0629
13:11:48.169,-34.6564,-107.6879
13:11:48.198,-34.3751,-108.0004
13:11:48.200,-35.6251,-108.8754
13:11:48.202,-34.7814,-108.5629
13:11:48.205,-35.0626,-106.5004
13:11:48.214,-31.9376,-101.1879
13:11:48.239,-28.9376,-89.6253
13:11:48.241,-24.4688,-76.9378
13:11:48.273,-17.3126,-57.6877
13:11:48.277,-8.0313,-33.0626
13:11:48.280,2.7188,-4
13:11:48.282,12.125,21.2501
13:11:48.284,19.7188,41.1877
13:11:48.314,26.1251,55.7502
13:11:48.316,31.5314,68.4378
13:11:48.318,35.0314,79.1878
13:11:48.325,39.0314,86.2503
13:11:48.353,41.1564,93.0004
13:11:48.359,43.5939,98.6879
13:11:48.359,45.0627,102.3754
13:11:48.364,46.8439,107.6254
13:11:48.373,48.7189,109.8129
13:11:48.400,49.7814,113.3129
13:11:48.401,50.5002,114.4379
13:11:48.404,50.5939,115.1879
13:11:48.415,50.0627,113.6879
13:11:48.425,49.1564,111.6254
13:11:48.434,47.9377,108.7504
13:11:48.443,46.8752,105.0629
13:11:48.453,45.0314,100.8754
13:11:48.464,43.4377,95.5629
13:11:48.474,41.4064,92.5629
13:11:48.483,39.7814,87.8753
13:11:48.494,38.5001,82.9378
13:11:48.503,36.4689,79.3128
13:11:48.513,36.0939,76.3753
13:11:48.523,34.5626,74.1878
13:11:48.533,33.5001,72.1253
13:11:48.544,33.4064,68.8753
13:11:48.555,31.7501,67.5628
13:11:48.564,31.3126,65.0002
13:11:48.573,30.1251,61.8752
13:11:48.583,28.7189,59.1877
13:11:48.593,27.6564,55.2502
13:11:48.604,25.9063,51.5627
13:11:48.614,24.4688,47.5627
13:11:48.624,22.8751,43.8752
13:11:48.633,20.8438,40.2502
13:11:48.643,19.6563,34.6876
13:11:48.653,16.7813,30.3126
13:11:48.664,14.9063,24.6251
13:11:48.675,13,19.8751
13:11:48.683,10.6875,14.5001
13:11:48.694,8.75,9.5625
13:11:48.704,6.9063,5.3125
13:11:48.714,4.8438,-1.1875
13:11:48.723,2.8438,-6.8125
13:11:48.733,0.3438,-11.8125
13:11:48.743,-1.8125,-16.5626
13:11:48.755,-3.5625,-20.6876
13:11:48.764,-5,-25.9376
13:11:48.774,-6.9688,-31.0626
13:11:48.788,-8.375,-34.5001
13:11:48.794,-10,-37.7501
13:11:48.803,-10.4688,-41.1252
13:11:48.813,-12.0313,-45.1252
13:11:48.823,-13.3126,-48.1877
13:11:48.834,-14.0313,-50.7502
13:11:48.844,-15.6251,-52.0627
13:11:48.854,-16.1251,-55.3127
13:11:48.864,-16.9688,-58.5002
13:11:48.873,-18.0626,-60.8127
13:11:48.884,-19.1251,-63.5627
13:11:48.893,-20.0626,-66.9378
13:11:48.903,-21.7188,-69.1878
13:11:48.914,-22.8126,-72.4378
13:11:48.924,-23.7813,-75.1253
13:11:48.933,-25.1563,-77.5003
13:11:48.944,-25.9063,-80.6253
13:11:48.954,-26.7189,-81.9378
13:11:48.965,-27.6564,-84.5003
13:11:48.974,-27.7501,-86.1878
13:11:48.983,-29.0314,-88.3753
13:11:48.993,-29.7814,-91.3754
13:11:49.004,-30.8126,-92.5004
13:11:49.013,-31.3439,-94.8754
13:11:49.024,-31.8751,-95.7504
13:11:49.033,-32.6251,-97.5004
13:11:49.066,-32.5939,-98.5629
13:11:49.069,-33.4689,-99.3754
13:11:49.071,-33.3126,-101.5629
13:11:49.073,-33.2189,-101.0004
13:11:49.103,-33.5001,-102.5629
13:11:49.104,-32.8126,-103.2504
13:11:49.106,-34.3126,-103.8754
13:11:49.114,-33.6564,-105.4379
13:11:49.152,-33.5626,-105.1254
13:11:49.154,-33.8751,-105.9379
13:11:49.156,-34.0626,-107.0629
13:11:49.188,-33.5314,-106.3754
13:11:49.189,-34.0001,-104.4379
13:11:49.191,-31.1251,-97.5004
13:11:49.200,-26.4064,-84.3753
13:11:49.200,-22.0001,-70.0628
13:11:49.207,-14.8126,-50.2502
13:11:49.213,-3.8125,-23.6251
13:11:49.227,6.2188,5.4375
13:11:49.235,16.2501,30.0626
13:11:49.244,22.9688,48.9377
13:11:49.253,29.0314,63.7502
13:11:49.264,34.5001,76.6253
13:11:49.273,38.8126,85.7503
13:11:49.283,41.9064,93.6254
13:11:49.299,44.4064,100.6879
13:11:49.308,47.1877,106.0004
13:11:49.319,48.5627,110.1879
13:11:49.328,50.5627,113.5629
13:11:49.338,51.0314,118.063
13:11:49.348,52.1564,118.7505
13:11:49.358,52.2814,119.438
13:11:49.369,52.8752,120.3755
13:11:49.379,52.3439,120.563
13:11:49.394,52.0939,117.3755
13:11:49.404,50.3439,114.7504
13:11:49.413,49.3752,110.8129
13:11:49.424,47.9377,107.8129
13:11:49.435,46.7502,102.6879
13:11:49.443,44.4689,98.8754
13:11:49.484,42.8127,94.5004
13:11:49.486,40.5002,90.1254
13:11:49.488,39.7814,86.7503
13:11:49.494,38.6876,84.1253
13:11:49.494,38.4376,81.2503
13:11:49.504,36.9376,80.2503
13:11:49.513,36.8439,77.8753
13:11:49.536,36.0626,76.3128
13:11:49.539,35.6564,73.3753
13:11:49.553,34.2814,71.1253
13:11:49.556,31.6876,66.6878
13:11:49.563,31.1876,62.6252
13:11:49.573,28.8751,58.4377
13:11:49.584,27.5001,53.8752
13:11:49.593,24.3126,48.6877
13:11:49.608,22.2813,43.5627
13:11:49.613,20.0626,37.4376
13:11:49.623,17.8438,32.3126
13:11:49.634,15.5938,26.4376
13:11:49.644,13.1563,21.2501
13:11:49.653,10.8125,15.5626
13:11:49.664,9.2188,9.875
13:11:49.673,7.0625,4.9375
13:11:49.685,4.375,0.875
13:11:49.693,2.8438,-4.75
13:11:49.703,0.5313,-10.3125
13:11:49.714,-1.3125,-15.5626
13:11:49.723,-2.6875,-19.8126
13:11:49.733,-4.8438,-23.8751
13:11:49.744,-6.2188,-28.9376
13:11:49.759,-8.1563,-32.4376
13:11:49.780,-8.4063,-36.0626
13:11:49.782,-10.9063,-39.1876
13:11:49.818,-11.75,-43.1877
13:11:49.820,-13.6251,-47.0002
13:11:49.822,-14.8751,-50.3127
13:11:49.825,-15.6876,-53.2502
13:11:49.831,-15.9688,-55.5002
13:11:49.861,-17.6251,-58.3127
13:11:49.863,-18.4063,-61.4377
13:11:49.865,-19.5313,-62.9377
13:11:49.870,-18.7813,-65.5003
13:11:49.897,-20.4376,-67.1253
13:11:49.899,-21.0001,-70.3128
13:11:49.903,-21.5001,-71.8753
13:11:49.928,-23.5313,-73.1253
13:11:49.930,-24.3126,-78.4378
13:11:49.934,-25.5001,-79.8753
13:11:49.938,-26.1563,-82.8128
13:11:49.953,-26.3438,-84.2503
13:11:49.959,-27.3126,-85.4378
13:11:49.968,-27.6251,-87.8128
13:11:49.984,-27.5939,-89.1253
13:11:49.990,-28.6876,-89.5003
13:11:49.998,-29.4689,-92.1879
13:11:50.009,-29.4064,-93.8129
13:11:50.019,-30.5001,-95.5004
13:11:50.028,-30.5001,-97.5004
13:11:50.039,-30.5626,-97.5004
13:11:50.049,-31.7501,-98.5004
13:11:50.061,-31.8439,-100.6254
13:11:50.069,-32.5626,-101.3754
13:11:50.079,-33.3751,-103.5629
13:11:50.088,-33.5626,-104.3754
13:11:50.098,-34.6876,-105.6254
13:11:50.108,-34.5626,-106.6254
13:11:50.120,-34.4376,-105.0629
13:11:50.128,-33.5626,-104.1254
13:11:50.138,-31.0001,-96.4379
13:11:50.149,-27.5939,-85.0003
13:11:50.158,-23.2188,-72.5628
13:11:50.169,-15.6563,-53.1252
13:11:50.178,-7.5,-28.0626
13:11:50.188,2.5,-2.375
13:11:50.199,11.5938,20.9376
13:11:50.209,17.6251,39.6877
13:11:50.218,23.0313,51.5002
13:11:50.229,27.2501,61.1252
13:11:50.238,29.5939,68.9378
13:11:50.249,31.3126,73.5628
13:11:50.259,33.8439,77.8753
13:11:50.269,35.0001,82.5003
13:11:50.278,36.6876,84.6253
13:11:50.288,37.9064,86.9378
13:11:50.299,37.5939,88.8128
13:11:50.309,38.8439,89.7503
13:11:50.318,38.3439,89.5628
13:11:50.328,37.5626,88.3753
13:11:50.338,36.8751,85.4378
13:11:50.348,35.5314,81.6878
13:11:50.359,35.0001,78.3753
13:11:50.371,33.1876,74.0628
13:11:50.378,31.1876,68.7503
13:11:50.388,30.3751,65.2502
13:11:50.398,27.4376,61.1252
13:11:50.409,27.4376,57.7502
13:11:50.419,25.7188,55.0002
13:11:50.428,25.0626,52.8127
13:11:50.450,24.9688,50.6252
13:11:50.452,23.9063,50.1252
13:11:50.479,24.5626,48.0627
13:11:50.480,22.6563,47.3752
13:11:50.482,22.9376,44.6252
13:11:50.489,21.3126,43.1877
13:11:50.517,20.6563,40.0002
13:11:50.519,19.2813,37.2501
13:11:50.521,18.0313,33.6876
13:11:50.529,16.3751,30.3751
13:11:50.561,14.9376,26.0626
13:11:50.563,11.9063,21.3126
13:11:50.567,10.8438,15.7501
13:11:50.573,8.25,10.625
13:11:50.580,6.7188,5.3125
13:11:50.610,3.6563,0.125
13:11:50.612,2.3438,-5.125
13:11:50.616,-0.5625,-9.1875
13:11:50.620,-0.75,-13.7501
13:11:50.631,-2.0313,-16.6251
13:11:50.640,-3.1563,-19.9376
13:11:50.650,-4.3438,-24.0626
13:11:50.659,-5.0313,-26.9376
13:11:50.669,-5.8125,-29.8751
13:11:50.680,-6.6563,-32.1876
13:11:50.688,-6.9688,-34.7501
13:11:50.699,-8.625,-37.7501
13:11:50.710,-9.2813,-40.3752
13:11:50.718,-10.1875,-43.0627
13:11:50.733,-11.1563,-46.9377
13:11:50.766,-12.4063,-49.0002
13:11:50.782,-14.0938,-52.3127
13:11:50.783,-14.7813,-55.5002
13:11:50.786,-16.6563,-58.3752
13:11:50.792,-17.0001,-60.5627
13:11:50.793,-19.0313,-63.3127
13:11:50.800,-20.1563,-67.1253
13:11:50.808,-21.6876,-69.7503
13:11:50.820,-23.0938,-74.1253
13:11:50.834,-23.7813,-76.5628
13:11:50.849,-25.4688,-79.3128
13:11:50.851,-26.5001,-82.0003
13:11:50.860,-27.3126,-83.7503
13:11:50.869,-27.9376,-85.6253
13:11:50.879,-27.4689,-86.4378
13:11:50.889,-29.0314,-87.0003
13:11:50.900,-28.8439,-89.4378
13:11:50.909,-28.9376,-90.2503
13:11:50.918,-29.0001,-90.7504
13:11:50.930,-28.3439,-91.3754
13:11:50.938,-28.7189,-91.9379
13:11:50.950,-28.3126,-92.5629
13:11:50.959,-28.1564,-92.9379
13:11:50.968,-29.0626,-95.6254
13:11:50.984,-29.5001,-96.6254
13:11:50.995,-30.7189,-97.8129
13:11:51.004,-31.2814,-99.4379
13:11:51.015,-32.2189,-100.8129
13:11:51.024,-32.1251,-100.8129
13:11:51.035,-32.1564,-100.3754
13:11:51.045,-30.9064,-96.4379
13:11:51.055,-27.2814,-86.0628
13:11:51.066,-24.7501,-74.9378
13:11:51.073,-19.0001,-59.4377
13:11:51.085,-11.4688,-37.0626
13:11:51.094,-2.0625,-12.3125
13:11:51.109,7.75,14.1876
13:11:51.113,16.5938,36.9376
13:11:51.124,24.9688,54.8127
13:11:51.134,32.8126,71.0003
13:11:51.144,43.3127,94.4379
13:11:51.153,51.0627,111.0629
13:11:51.165,60.094,126.0005
13:11:51.174,69.8753,144.438
13:11:51.184,80.5316,163.3756
13:11:51.195,91.6566,184.8757
13:11:51.204,102.8441,207.8133
13:11:51.215,115.7817,232.0634
13:11:51.226,128.563,259.251
13:11:51.255,143.6255,287.3136
13:11:51.257,154.6881,313.7512
13:11:51.260,165.5631,337.8138
13:11:51.265,175.2819,360.8139
13:11:51.293,185.0007,381.564
13:11:51.295,191.8445,399.3765
13:11:51.298,199.0633,415.7516
13:11:51.327,204.3758,430.1891
13:11:51.329,210.0008,443.6267
13:11:51.331,215.8758,457.1267
13:11:51.337,220.1571,469.3768
13:11:51.368,225.1571,482.0643
13:11:51.372,229.1259,493.3769
13:11:51.372,232.9384,503.8144
13:11:51.395,236.7197,512.4395
13:11:51.396,239.5009,519.6895
13:11:51.399,241.1884,525.127
13:11:51.405,242.3759,529.5645
13:11:51.415,242.2822,530.752
13:11:51.427,242.3759,531.127
13:11:51.433,241.9072,530.1895
13:11:51.445,241.0322,529.3145
13:11:51.453,239.2822,526.1895
13:11:51.465,236.7822,522.8145
13:11:51.475,234.2509,517.752
13:11:51.484,232.2821,510.9395
13:11:51.493,229.0009,505.0644
13:11:51.505,226.0634,498.7519
13:11:51.515,222.6884,490.8769
13:11:51.524,218.7821,483.1268
13:11:51.535,215.2196,473.6268
13:11:51.544,209.6883,462.6893
13:11:51.555,204.7195,451.3767
13:11:51.565,197.4695,438.7516
13:11:51.576,192.2507,425.8141
13:11:51.585,185.657,412.0016
13:11:51.594,180.7507,398.814
13:11:51.603,173.8132,385.3765
13:11:51.615,167.9381,372.6889
13:11:51.625,162.7819,360.1264
13:11:51.633,157.8444,347.0638
13:11:51.646,151.0631,333.6888
13:11:51.655,146.1255,321.5637
13:11:51.664,139.4693,308.9387
13:11:51.674,134.2505,296.3761
13:11:51.685,129.3442,283.3761
13:11:51.696,123.2192,272.001
13:11:51.704,118.5317,259.1885
13:11:51.715,113.0629,248.1884
13:11:51.724,108.5629,236.1884
13:11:51.733,103.8441,225.2509
13:11:51.744,99.0629,213.9383
13:11:51.755,94.0004,203.1883
13:11:51.764,89.3753,192.1882
13:11:51.774,85.2503,181.3757
13:11:51.786,79.1878,168.8756
13:11:51.795,74.4378,157.0006
13:11:51.805,68.594,145.313
13:11:51.815,63.5627,133.6255
13:11:51.824,58.3752,121.563
13:11:51.833,53.844,109.1879
13:11:51.845,48.5002,99.3754
13:11:51.858,43.7189,87.8753
13:11:51.865,39.4689,77.4378
13:11:51.876,35.3751,66.9378
13:11:51.885,30.7814,57.7502
13:11:51.895,28.2189,51.8752
13:11:51.906,27.2501,50.1877
13:11:51.915,30.8126,58.0627
13:11:51.927,38.6564,75.8128
13:11:51.959,49.0314,100.6254
13:11:51.963,59.0315,127.7505
13:11:51.964,70.969,155.8756
13:11:51.967,81.8753,182.3757
13:11:51.997,92.1254,205.8758
13:11:51.999,100.9691,227.6884
13:11:52.001,108.4379,246.7509
13:11:52.005,113.2817,261.8135
13:11:52.039,118.8755,274.8135
13:11:52.041,123.2505,286.3761
13:11:52.044,127.0317,296.4386
13:11:52.107,130.1567,304.1262
13:11:52.107,133.2505,311.9387
13:11:52.107,134.9068,317.4387
13:11:52.115,137.4068,322.1887
13:11:52.130,138.7505,325.6888
13:11:52.130,140.1568,328.1888
13:11:52.132,141.0318,330.6263
13:11:52.146,141.2818,331.8763
13:11:52.149,141.5005,331.3138
13:11:52.156,141.9068,330.3763
13:11:52.164,140.688,329.0013
13:11:52.174,138.5005,326.0013
13:11:52.185,136.6568,322.8762
13:11:52.195,135.1255,319.0012
13:11:52.205,133.7818,315.1262
13:11:52.215,132.188,311.1887
13:11:52.224,130.438,308.0012
13:11:52.233,129.063,305.3762
13:11:52.245,127.6567,303.1262
13:11:52.255,126.2192,300.1262
13:11:52.265,125.0942,297.6261
13:11:52.275,123.2505,294.7511
13:11:52.285,122.5942,294.0636
13:11:52.297,119.8442,287.8761
13:11:52.305,116.7504,282.8136
13:11:52.315,113.0004,276.001
13:11:52.326,109.8754,267.876
13:11:52.334,106.2817,259.751
13:11:52.345,102.4691,250.8134
13:11:52.355,99.0316,242.6259
13:11:52.365,94.5316,233.5009
13:11:52.374,90.9066,224.0009
13:11:52.385,86.7503,214.6883
13:11:52.395,82.2816,205.8133
13:11:52.405,78.2815,196.6883
13:11:52.416,73.3128,185.5632
13:11:52.425,69.5315,175.1882
13:11:52.435,65.5002,164.5631
13:11:52.445,60.5002,155.2506
13:11:52.455,55.8127,145.063
13:11:52.465,51.7502,135.563
13:11:52.474,47.8439,124.563
13:11:52.484,43.6564,114.8754
13:11:52.495,39.7814,105.3754
13:11:52.506,35.4689,96.3754
13:11:52.515,31.7189,87.3128
13:11:52.525,28.0001,77.9378
13:11:52.535,24.6563,69.2503
13:11:52.546,20.7813,59.6877
13:11:52.555,16.7813,51.1877
13:11:52.565,12.8125,41.4377
13:11:52.574,9.25,32.1876
13:11:52.585,6.0313,22.7501
13:11:52.596,1.7188,13.3126
13:11:52.611,-1.1875,4.8125
13:11:52.615,-4.9063,-3.125
13:11:52.625,-7.7813,-11.375
13:11:52.635,-11.3438,-19.8751
13:11:52.647,-14.5001,-28.5626
13:11:52.656,-17.6251,-36.7501
13:11:52.687,-20.5626,-44.5627
13:11:52.690,-23.2501,-52.7502
13:11:52.691,-26.7189,-60.7502
13:11:52.695,-30.8439,-68.7503
13:11:52.729,-33.5939,-76.5003
13:11:52.730,-36.1876,-84.3128
13:11:52.732,-39.2189,-91.4379
13:11:52.735,-41.7502,-98.9379
13:11:52.766,-44.9689,-105.7504
13:11:52.767,-47.8752,-112.3754
13:11:52.770,-49.7814,-119.563
13:11:52.777,-52.5002,-124.1255
13:11:52.785,-53.0315,-129.6255
13:11:52.810,-54.094,-130.0005
13:11:52.812,-50.8127,-122.5005
13:11:52.815,-42.0627,-102.5629
13:11:52.831,-31.3126,-75.6878
13:11:52.835,-17.8438,-46.6877
13:11:52.845,-6.4375,-15.6876
13:11:52.855,6.9688,14.1251
13:11:52.867,17.6251,41.8127
13:11:52.875,28.9064,66.6253
13:11:52.885,36.9376,88.8128
13:11:52.896,44.8127,108.0629
13:11:52.904,51.2814,125.313
13:11:52.915,56.6565,138.7505
13:11:52.924,61.9377,152.8756
13:11:52.935,67.1253,163.5006
13:11:52.945,70.8128,174.7507
13:11:52.956,74.3753,183.1882
13:11:52.964,77.969,191.1257
13:11:52.974,79.8753,197.5633
13:11:52.988,82.9691,202.7508
13:11:52.995,84.9066,207.5633
13:11:53.006,85.7191,211.6258
13:11:53.017,86.1566,212.0633
13:11:53.025,86.5628,212.2821
13:11:53.035,86.8753,211.3758
13:11:53.046,85.5941,210.9696
13:11:53.057,84.9378,210.1883
13:11:53.065,84.9691,208.3758
13:11:53.075,83.7191,206.3758
13:11:53.085,83.2816,204.532
13:11:53.095,82.3753,202.4695
13:11:53.105,82.3128,202.0008
13:11:53.115,81.9691,200.7195
13:11:53.125,80.9378,200.0008
13:11:53.136,79.9066,198.407
13:11:53.145,78.8128,195.657
13:11:53.155,77.6253,173.1882
13:11:53.165,75.7815,170.8444
13:11:53.175,74.4378,166.0944
13:11:53.185,72.5628,162.9069
13:11:53.195,69.844,157.7194
13:11:53.205,67.0003,152.4381
13:11:53.215,63.469,147.4068
13:11:53.226,60.844,139.5943
13:11:53.235,57.594,132.7505
13:11:53.245,53.6877,126.0317
13:11:53.255,50.7189,118.0005
13:11:53.265,47.6564,111.1567
13:11:53.275,43.8752,103.3441
13:11:53.286,40.2502,96.0941
13:11:53.318,35.8751,88.9066
13:11:53.321,32.5626,79.3441
13:11:53.323,27.8439,70.219
13:11:53.329,24.5313,61.594
13:11:53.337,20.5313,52.0314
13:11:53.397,16.6251,43.2189
13:11:53.397,12.2813,34.6876
13:11:53.433,7.7188,25.7501
13:11:53.463,3.875,17.0001
13:11:53.528,0.4375,6.5
13:11:53.528,-4.0938,-2.0625
13:11:53.528,-7.4688,-10.4688
13:11:53.543,-11.0313,-20.0313
13:11:53.550,-14.7188,-28.5001
13:11:53.550,-17.5626,-36.6251
13:11:53.550,-20.7501,-44.9377
13:11:53.550,-24.6876,-52.6877
13:11:53.555,-27.5314,-60.719
13:11:53.565,-30.0626,-68.219
13:11:53.577,-33.2814,-75.969
13:11:53.586,-36.4689,-83.9691
13:11:53.595,-39.6877,-90.6253
13:11:53.604,-42.8439,-97.5941
13:11:53.615,-44.3439,-104.2191
13:11:53.624,-46.6564,-111.9379
13:11:53.634,-49.3439,-117.688
13:11:53.646,-52.0314,-123.9692
13:11:53.655,-54.7502,-131.938
13:11:53.665,-70.5628,-171.2819
13:11:53.677,-73.5003,-177.8132
13:11:53.684,-75.9378,-185.5632
13:11:53.695,-78.8753,-191.657
13:11:53.704,-82.3128,-198.5945
13:11:53.715,-104.9691,-256.0322
13:11:53.724,-100.6566,-248.7509
13:11:53.740,-92.1254,-226.1259
13:11:53.745,-80.2816,-197.6883
13:11:53.754,-66.344,-165.2506
13:11:53.766,-53.7815,-132.4068
13:11:53.776,-40.5002,-103.4066
13:11:53.785,-28.4689,-74.3128
13:11:53.795,-18.4063,-49.1877
13:11:53.805,-9.125,-27.2501
13:11:53.815,-1.9688,-8
13:11:53.825,5.0938,8.5313
13:11:53.836,11.4375,24.7501
13:11:53.845,16.5626,38.5001
13:11:53.856,22.3751,51.7502
13:11:53.864,25.8438,63.969
13:11:53.876,31.3126,75.0315
13:11:53.885,35.0001,86.4691
13:11:53.895,38.5001,95.0316
13:11:53.905,41.8127,103.1879
13:11:53.915,42.7502,108.0942
13:11:53.925,43.9377,110.2504
13:11:53.935,44.2189,112.1567
13:11:53.946,43.1252,112.1879
13:11:53.955,42.9064,110.3129
13:11:53.965,40.9377,109.0004
13:11:53.974,40.5002,105.7816
13:11:53.985,40.2502,104.2816
13:11:53.995,38.7189,102.8129
13:11:54.005,38.7189,102.3129
13:11:54.015,39.0314,102.3754
13:11:54.026,39.8752,103.3129
13:11:54.036,41.0627,105.1879
13:11:54.045,40.7189,106.1879
13:11:54.055,41.5627,108.1254
13:11:54.065,41.7502,108.9067
13:11:54.076,42.6877,110.1254
13:11:54.085,42.6252,110.9379
13:11:54.095,42.3439,110.9379
13:11:54.105,41.6877,110.3754
13:11:54.115,40.5627,107.9379
13:11:54.126,39.0939,106.2817
13:11:54.135,37.5939,103.0316
13:11:54.145,36.4376,98.5941
13:11:54.176,34.1876,94.5316
13:11:54.177,32.6564,90.5004
13:11:54.180,29.9376,85.5316
13:11:54.186,27.2189,80.2816
13:11:54.216,24.8438,73.469
13:11:54.218,21.4063,67.2815
13:11:54.221,18.4376,61.2502
13:11:54.226,15.5938,53.844
13:11:54.256,12.8438,47.1564
13:11:54.259,9.9063,40.3127
13:11:54.261,7.0313,34.5626
13:11:54.285,4.8438,28.8126
13:11:54.287,2.3125,23.0626
13:11:54.289,-0.9063,17.0001
13:11:54.322,-3.125,10.625
13:11:54.324,-5.5313,4.9063
13:11:54.326,-8.25,-1.7813
13:11:54.335,-10.5938,-8.5938
13:11:54.340,-13.0625,-15.4688
13:11:54.350,-15.8438,-22.0313
13:11:54.360,-19.9063,-30.5001
13:11:54.370,-22.5938,-37.3126
13:11:54.381,-25.3126,-45.5627
13:11:54.389,-28.6876,-53.0315
13:11:54.400,-32.3751,-60.7502
13:11:54.410,-34.8126,-68.6253
13:11:54.420,-38.1564,-77.1253
13:11:54.430,-41.8439,-87.1253
13:11:54.440,-44.5627,-93.8754
13:11:54.449,-47.1877,-99.9691
13:11:54.461,-49.5002,-107.4692
13:11:54.470,-51.8752,-112.2192
13:11:54.480,-53.844,-120.0317
13:11:54.495,-55.594,-125.1255
13:11:54.499,-57.6252,-131.063
13:11:54.510,-58.8127,-136.313
13:11:54.520,-61.0002,-142.2505
13:11:54.530,-62.969,-147.9693
13:11:54.539,-64.844,-153.3443
13:11:54.550,-67.6878,-158.5319
13:11:54.559,-69.094,-164.4694
13:11:54.572,-71.1565,-169.4069
13:11:54.598,-71.6253,-172.3444
13:11:54.601,-71.0315,-171.2194
13:11:54.605,-67.3128,-162.5944
13:11:54.610,-60.5002,-145.7193
13:11:54.620,-51.0314,-122.7817
13:11:54.630,-38.8126,-96.3129
13:11:54.639,-28.6564,-69.7815
13:11:54.649,-17.8126,-44.9689
13:11:54.659,-8.5938,-21.2501
13:11:54.680,-0.4063,-1.625
13:11:54.686,6.75,16.1876
13:11:54.695,12.2813,30.9064
13:11:54.700,16.7501,43.4377
13:11:54.717,21.4688,54.0002
13:11:54.723,24.7501,63.1877
13:11:54.734,27.8126,70.719
13:11:54.741,30.7501,78.5003
13:11:54.752,32.6876,85.2191
13:11:54.760,35.3439,89.9378
13:11:54.772,37.5001,95.4379
13:11:54.780,37.2501,98.2504
13:11:54.791,38.3751,100.4379
13:11:54.807,38.4376,103.0941
13:11:54.829,37.8751,100.9066
13:11:54.831,37.5001,99.3129
13:11:54.833,35.0626,96.3754
13:11:54.850,33.5626,91.4379
13:11:54.876,30.8751,86.9066
13:11:54.878,29.2814,80.9691
13:11:54.881,26.8751,76.844
13:11:54.883,24.6251,72.6878
13:11:54.920,23.4376,68.719
13:11:54.921,22.7813,67.8128
13:11:54.925,22.4376,66.594
13:11:54.948,22.7188,66.1878
13:11:54.950,22.0938,66.6565
13:11:54.951,22.9063,67.4378
13:11:54.953,23.0001,68.0628
13:11:54.960,23.3126,69.0628
13:11:54.971,22.5626,68.8128
13:11:55.001,22.1251,67.2503
13:11:55.005,21.9063,66.0628
13:11:55.006,20.7501,64.6877
13:11:55.013,20.2501,63.2815
13:11:55.022,20.2501,60.7502
13:11:55.030,19.1563,59.1252
13:11:55.040,18.6876,58.3752
13:11:55.050,18.2813,55.5002
13:11:55.059,17.9063,53.844
13:11:55.070,16.6563,50.8752
13:11:55.080,14.8126,47.7189
13:11:55.091,13.6251,45.0002
13:11:55.107,12.375,40.6877
13:11:55.116,10.8125,37.0001
13:11:55.125,9.9063,33.3126
13:11:55.134,6.8125,28.6564
13:11:55.145,5.125,24.3751
13:11:55.154,3.4375,19.1251
13:11:55.165,2,15.7188
13:11:55.176,-0.4375,10.625
13:11:55.186,-2.375,5.5313
13:11:55.195,-5,0.4375
13:11:55.206,-7.0313,-4.6875
13:11:55.216,-9.1563,-10.1875
13:11:55.224,-11.0313,-14.3751
13:11:55.235,-13.1563,-20.1563
13:11:55.245,-14.7813,-24.1563
13:11:55.254,-17.6876,-30.1251
13:11:55.265,-21.5313,-38.7501
13:11:55.275,-23.5626,-44.9689
13:11:55.285,-26.6876,-51.1877
13:11:55.296,-29.2501,-58.9377
13:11:55.306,-32.2189,-65.8753
13:11:55.314,-34.9689,-72.969
13:11:55.326,-36.6564,-79.1253
13:11:55.334,-40.2189,-86.4066
13:11:55.344,-43.1252,-92.9691
13:11:55.354,-45.2502,-100.6566
13:11:55.365,-48.3752,-107.5317
13:11:55.376,-51.0314,-114.5317
13:11:55.386,-53.6252,-120.8442
13:11:55.398,-56.3127,-128.5317
13:11:55.406,-58.844,-133.9068
13:11:55.415,-61.0002,-141.0005
13:11:55.426,-62.4065,-145.688
13:11:55.434,-64.469,-151.6568
13:11:55.444,-65.1565,-156.5631
13:11:55.455,-66.719,-158.8444
13:11:55.465,-67.094,-162.0944
13:11:55.476,-66.0315,-162.4069
13:11:55.485,-64.844,-159.2194
13:11:55.496,-60.5627,-149.6881
13:11:55.504,-52.4064,-130.6255
13:11:55.516,-43.3439,-106.4067
13:11:55.525,-31.4064,-81.1878
13:11:55.557,-21.1563,-53.5627
13:11:55.558,-10.5625,-28.8126
13:11:55.561,-0.5625,-5.4375
13:11:55.567,6.1563,13.6563
13:11:55.601,13.2501,31.4064
13:11:55.603,18.1563,44.9689
13:11:55.605,22.4688,56.0002
13:11:55.610,26.8126,66.8753
13:11:55.615,29.4689,74.469
13:11:55.643,32.3439,81.3753
13:11:55.645,33.6251,86.3441
13:11:55.647,34.6876,88.5628
13:11:55.678,35.0939,92.0629
13:11:55.679,35.8126,92.7191
13:11:55.681,35.7501,95.0629
13:11:55.686,35.4376,93.7816
13:11:55.718,35.4376,93.3441
13:11:55.721,33.9064,91.8754
13:11:55.722,32.9064,87.2503
13:11:55.730,30.3751,82.6566
13:11:55.736,28.0939,77.1878
13:11:55.746,25.0626,71.4378
13:11:55.756,22.2188,65.7503
13:11:55.764,20.0626,59.1252
13:11:55.776,17.6251,53.2815
13:11:55.785,16.1876,48.5002
13:11:55.795,14.1563,44.5939
13:11:55.805,12.375,42.2189
13:11:55.815,12.375,39.9689
13:11:55.826,11.4063,39.5939
13:11:55.836,11.2813,39.2814
13:11:55.845,11.125,39.0626
13:11:55.878,11.875,39.5002
13:11:55.880,11.4063,39.5314
13:11:55.883,11.0938,40.5627
13:11:55.887,10.6875,38.3439
13:11:55.897,9.75,37.3751
13:11:55.905,9.5625,35.0626
13:11:55.916,8.5313,33.7501
13:11:55.927,8.0938,31.7814
13:11:55.936,6.7188,28.2501
13:11:55.945,6.25,26.9064
13:11:55.956,5.875,25.0313
13:11:55.965,5.4688,23.0626
13:11:55.975,5.4688,21.7813
13:11:55.986,5.5,19.9376
13:11:56.008,4,18.9688
13:11:56.009,4.125,17.2501
13:11:56.018,2.5625,15.0001
13:11:56.026,2.0313,12.8125
13:11:56.041,1.5,9.4063
13:11:56.050,0.5625,7.875
13:11:56.055,-0.0313,5.4688
13:11:56.066,-0.7188,3.5938
13:11:56.075,-1.9063,1.5625
13:11:56.086,-2.6563,-1.0625
13:11:56.096,-3.5,-4.4063
13:11:56.106,-4.875,-8.125
13:11:56.116,-6.9063,-10.25
13:11:56.131,-7.5938,-14.1876
13:11:56.151,-9.5313,-18.6876
13:11:56.166,-12.0313,-22.3751
13:11:56.182,-13.3438,-26.3751
13:11:56.183,-15.0626,-31.3751
13:11:56.186,-16.8751,-35.7189
13:11:56.191,-19.4688,-41.7502
13:11:56.197,-21.4688,-45.6564
13:11:56.208,-23.6563,-50.5002
13:11:56.217,-25.1563,-56.3127
13:11:56.228,-28.1564,-61.3127
13:11:56.238,-30.0314,-68.219
13:11:56.248,-32.9064,-74.7503
13:11:56.255,-35.6876,-80.5003
13:11:56.268,-38.5001,-87.7816
13:11:56.275,-41.5002,-95.0004
13:11:56.286,-44.5627,-103.3754
13:11:56.314,-47.8752,-110.4379
13:11:56.317,-50.4064,-117.813
13:11:56.319,-53.3752,-124.8755
13:11:56.349,-55.1252,-130.938
13:11:56.350,-58.4065,-137.6568
13:11:56.352,-61.094,-144.313
13:11:56.357,-62.8127,-150.4068
13:11:56.393,-65.219,-157.1569
13:11:56.396,-67.4065,-162.0944
13:11:56.397,-68.469,-166.7819
13:11:56.404,-68.719,-166.6256
13:11:56.407,-64.844,-160.8444
13:11:56.446,-58.1877,-147.0943
13:11:56.450,-49.3439,-124.5942
13:11:56.450,-37.5314,-97.6566
13:11:56.453,-25.6876,-68.219
13:11:56.457,-14.1251,-39.5314
13:11:56.466,-3.6563,-12.4375
13:11:56.476,6.0938,11.8438
13:11:56.486,14.7501,32.4376
13:11:56.497,20.5626,51.4064
13:11:56.506,27.3751,66.9378
13:11:56.516,31.7501,81.4378
13:11:56.526,36.3439,92.1254
13:11:56.536,40.7189,102.0316
13:11:56.546,43.0314,110.1879
13:11:56.557,46.6564,118.313
13:11:56.566,48.0314,125.3442
13:11:56.575,50.1252,129.5005
13:11:56.586,51.9689,134.188
13:11:56.596,51.9064,135.8443
13:11:56.606,52.7814,137.7818
13:11:56.616,51.2189,137.8755
13:11:56.626,50.3439,134.563
13:11:56.636,49.1564,130.9068
13:11:56.646,46.1564,126.2192
13:11:56.656,43.8752,122.7192
13:11:56.667,42.3127,117.0942
13:11:56.675,41.5939,114.4379
13:11:56.691,40.8127,111.4379
13:11:56.701,40.5314,109.5317
13:11:56.711,40.0939,109.1254
13:11:56.721,41.4689,109.7504
13:11:56.731,41.8752,111.7817
13:11:56.741,42.8127,113.4692
13:11:56.751,43.5939,115.3442
13:11:56.761,44.0627,118.188
13:11:56.771,45.3127,119.3755
13:11:56.781,45.7189,121.563
13:11:56.791,45.4377,121.313
13:11:56.801,44.4064,120.2192
13:11:56.811,43.9689,119.1255
13:11:56.821,43.6877,116.9067
13:11:56.831,42.9064,116.0629
13:11:56.841,42.9689,114.9379
13:11:56.851,43.8439,119.1567
13:11:56.860,45.6877,120.8442
13:11:56.871,43.9064,117.9692
13:11:56.881,42.3439,113.2817
13:11:56.891,39.2501,107.7504
13:11:56.906,34.9376,99.8441
13:11:56.911,31.5001,91.0941
13:11:56.922,28.7814,85.0316
13:11:56.931,26.5626,78.8128
13:11:56.941,25.6563,74.0628
13:11:56.951,23.9376,71.3753
13:11:56.961,24.0313,69.4378
13:11:56.971,21.9063,65.1565
13:11:56.981,19.5313,59.594
13:11:56.991,17.1563,53.469
13:11:57.001,13.8751,44.2502
13:11:57.011,9.8125,35.3439
13:11:57.021,5,23.9063
13:11:57.031,0.5313,12.125
13:11:57.041,-3.9063,1.2813
13:11:57.052,-7.9688,-10.4688
13:11:57.061,-13,-21.5626
13:11:57.082,-17.4376,-32.6564
13:11:57.084,-22.9063,-44.2502
13:11:57.118,-27.9064,-54.9065
13:11:57.121,-32.5314,-66.8128
13:11:57.123,-37.3126,-76.969
13:11:57.127,-41.7502,-88.8441
13:11:57.131,-46.9377,-100.4379
13:11:57.158,-52.0939,-112.2817
13:11:57.161,-57.8752,-123.813
13:11:57.164,-62.2815,-134.813
13:11:57.171,-67.0628,-147.5943
13:11:57.209,-72.8128,-157.9694
13:11:57.211,-77.3128,-171.6257
13:11:57.215,-83.3128,-184.907
13:11:57.217,-88.0003,-197.0945
13:11:57.223,-93.4691,-209.407
13:11:57.253,-98.4379,-222.4071
13:11:57.256,-102.5004,-234.9697
13:11:57.258,-108.2192,-246.5009
13:11:57.261,-112.8129,-259.3447
13:11:57.271,-116.5317,-268.126
13:11:57.282,-120.688,-279.0636
13:11:57.291,-123.313,-286.7198
13:11:57.301,-125.9692,-292.2823
13:11:57.311,-126.6255,-296.2511
13:11:57.327,-125.0942,-292.0011
13:11:57.334,-119.1255,-279.1573
13:11:57.342,-109.3129,-255.5635
13:11:57.357,-99.3129,-228.8759
13:11:57.365,-87.8753,-202.5945
13:11:57.373,-79.0941,-178.8444
13:11:57.381,-71.1878,-159.7819
13:11:57.391,-64.9377,-141.8443
13:11:57.401,-59.9065,-129.3755
13:11:57.411,-55.6252,-117.6567
13:11:57.421,-52.8127,-111.0317
13:11:57.431,-50.5627,-104.8754
13:11:57.448,-49.3752,-98.9066
13:11:57.452,-48.5627,-96.7191
13:11:57.466,-47.1252,-93.5004
13:11:57.482,-47.8127,-91.5004
13:11:57.485,-47.7502,-90.9379
13:11:57.493,-48.2502,-90.3129
13:11:57.501,-49.6252,-92.8129
13:11:57.512,-51.0939,-94.6879
13:11:57.524,-52.6252,-99.5004
13:11:57.531,-55.469,-104.1879
13:11:57.541,-58.7815,-111.3754
13:11:57.551,-62.094,-119.438
13:11:57.561,-66.4065,-126.313
13:11:57.571,-68.844,-134.5005
13:11:57.581,-73.2503,-141.5005
13:11:57.591,-76.0003,-149.4381
13:11:57.601,-78.2503,-155.1881
13:11:57.611,-81.4691,-159.9381
13:11:57.621,-82.6878,-164.2506
13:11:57.631,-85.3128,-169.0631
13:11:57.642,-86.6878,-171.5007
13:11:57.657,-88.3441,-175.9382
13:11:57.663,-89.2503,-178.3757
13:11:57.671,-90.7816,-181.5007
13:11:57.682,-92.1566,-185.7507
13:11:57.691,-93.6566,-189.6257
13:11:57.701,-96.5629,-194.8757
13:11:57.711,-98.7191,-200.0008
13:11:57.721,-100.8754,-205.8133
13:11:57.736,-103.4066,-211.7508
13:11:57.741,-105.9379,-218.3758
13:11:57.772,-107.8129,-223.9384
13:11:57.773,-111.1254,-229.6259
13:11:57.776,-113.1879,-236.8759
13:11:57.782,-116.1254,-243.1884
13:11:57.811,-118.3755,-250.3759
13:11:57.813,-120.938,-255.9385
13:11:57.817,-122.7505,-261.8135
13:11:57.821,-124.2505,-266.8135
13:11:57.831,-126.5005,-272.5635
13:11:57.864,-128.7192,-277.8761
13:11:57.866,-130.3443,-282.4386
13:11:57.868,-132.9693,-286.3136
13:11:57.872,-134.438,-292.0011
13:11:57.903,-135.2505,-296.6886
13:11:57.906,-137.813,-300.9387
13:11:57.909,-138.9068,-305.0012
13:11:57.912,-140.0943,-307.3762
13:11:57.921,-141.7505,-312.5012
13:11:57.931,-142.8755,-315.0637
13:11:57.941,-144.4068,-317.5012
13:11:57.952,-145.8443,-321.8137
13:11:57.961,-146.0318,-323.3137
13:11:57.972,-147.7193,-325.5638
13:11:57.982,-148.1256,-328.8138
13:11:57.991,-149.5943,-330.1888
13:11:58.001,-150.3443,-333.3138
13:11:58.011,-150.8131,-334.1888
13:11:58.021,-151.5318,-334.6888
13:11:58.032,-152.0943,-337.3763
13:11:58.041,-151.9068,-337.9388
13:11:58.052,-153.4693,-339.2513
13:11:58.063,-153.8443,-340.4388
13:11:58.072,-154.1256,-340.6888
13:11:58.081,-154.6256,-341.8138
13:11:58.091,-154.5943,-342.6888
13:11:58.101,-153.9381,-342.5013
13:11:58.111,-154.8756,-341.9388
13:11:58.121,-153.4693,-342.1263
13:11:58.131,-154.0631,-341.5638
13:11:58.141,-153.2506,-340.9388
13:11:58.151,-152.9381,-339.1888
13:11:58.167,-151.9381,-338.5638
13:11:58.176,-150.8131,-336.5013
13:11:58.186,-150.1568,-336.0013
13:11:58.196,-149.5318,-333.8138
13:11:58.206,-148.9068,-332.9388
13:11:58.216,-147.8756,-330.6888
13:11:58.227,-147.4381,-329.9388
13:11:58.236,-145.938,-327.8763
13:11:58.248,-145.2193,-323.3762
13:11:58.256,-141.813,-318.0637
13:11:58.266,-138.4693,-304.0637
13:11:58.276,-131.813,-290.4386
13:11:58.286,-124.188,-269.626
13:11:58.296,-113.2192,-239.5009
13:11:58.306,-99.9379,-206.5633
13:11:58.316,-87.2191,-174.0632
13:11:58.327,-71.8753,-136.813
13:11:58.337,-62.969,-115.6879
13:11:58.347,-54.344,-97.6879
13:11:58.356,-48.3752,-81.1253
13:11:58.366,-42.2189,-67.7503
13:11:58.376,-36.2814,-53.3127
13:11:58.386,-31.6564,-42.8752
13:11:58.396,-26.8439,-31.3126
13:11:58.407,-22.5938,-21.1251
13:11:58.437,-18.0313,-12.8125
13:11:58.440,-14.9063,-4.25
13:11:58.443,-12.875,1.25
13:11:58.447,-10.625,5
13:11:58.459,-9.5938,7.6875
13:11:58.466,-9.3125,7.75
13:11:58.476,-9.3438,6.8125
13:11:58.486,-10.75,4.125
13:11:58.496,-11.9375,-0.0625
13:11:58.506,-13.1876,-3.625
13:11:58.516,-15.8126,-8.5
13:11:58.527,-17.1251,-12.8125
13:11:58.555,-18.4688,-16.4376
13:11:58.557,-20.1563,-20.7501
13:11:58.560,-21.1563,-22.6251
13:11:58.567,-22.4376,-24.9376
13:11:58.596,-23.2813,-28.1876
13:11:58.598,-23.2188,-28.9376
13:11:58.601,-24.0313,-32.0001
13:11:58.607,-24.1876,-33.5626
13:11:58.638,-25.8126,-35.8751
13:11:58.642,-26.0001,-38.2501
13:11:58.668,-27.0001,-41.0627
13:11:58.670,-28.5626,-44.8752
13:11:58.683,-29.5626,-47.4377
13:11:58.686,-31.1564,-53.0002
13:11:58.728,-32.4064,-56.6877
13:11:58.729,-35.0001,-60.1252
13:11:58.732,-36.6876,-66.8128
13:11:58.733,-38.7189,-71.8753
13:11:58.736,-40.9064,-77.2503
13:11:58.740,-42.4377,-83.4378
13:11:58.740,-44.9689,-88.9378
13:11:58.748,-46.7189,-95.1879
13:11:58.766,-48.7189,-99.8129
13:11:58.771,-50.6877,-106.5004
13:11:58.778,-52.3752,-111.5629
13:11:58.789,-53.3752,-116.1254
13:11:58.806,-55.969,-120.688
13:11:58.809,-57.1252,-125.1255
13:11:58.823,-58.9065,-130.313
13:11:58.826,-59.6565,-133.688
13:11:58.839,-61.4377,-137.938
13:11:58.846,-62.6877,-141.563
13:11:58.856,-63.844,-145.813
13:11:58.866,-64.8752,-148.8756
13:11:58.876,-65.8753,-152.1881
13:11:58.887,-67.0315,-155.0631
13:11:58.898,-67.6878,-158.7506
13:11:58.906,-68.469,-160.9381
13:11:58.916,-69.8753,-163.6881
13:11:58.926,-69.3128,-166.2506
13:11:58.936,-71.0003,-168.0631
13:11:58.946,-71.9065,-171.3132
13:11:58.956,-71.7815,-171.9382
13:11:58.966,-72.344,-174.8132
13:11:58.976,-72.7503,-175.4382
13:11:58.986,-73.5628,-178.1882
13:11:58.996,-73.2503,-180.0007
13:11:59.006,-74.094,-179.4382
13:11:59.016,-74.4065,-182.3757
13:11:59.027,-74.1565,-182.7507
13:11:59.036,-75.0628,-183.5632
13:11:59.046,-75.1565,-185.2507
13:11:59.056,-74.6253,-184.8132
13:11:59.066,-75.5628,-185.0632
13:11:59.077,-75.0003,-186.6257
13:11:59.086,-74.6253,-186.4382
13:11:59.098,-75.1565,-187.0632
13:11:59.106,-74.344,-187.7507
13:11:59.122,-74.469,-187.3132
13:11:59.133,-74.5315,-187.6257
13:11:59.141,-74.3128,-178.1882
13:11:59.151,-73.8753,-167.5631
13:11:59.163,-74.0315,-167.8131
13:11:59.171,-73.3128,-167.8131
13:11:59.181,-72.7815,-166.4381
13:11:59.192,-71.469,-164.4381
13:11:59.201,-67.8128,-155.8131
13:11:59.211,-64.0002,-142.438
13:11:59.221,-58.5002,-130.313
13:11:59.231,-51.1877,-111.5629
13:11:59.241,-43.1252,-87.3753
13:11:59.253,-32.3439,-60.4377
13:11:59.284,-22.5626,-34.8126
13:11:59.286,-14.5313,-14.3751
13:11:59.288,-5.0938,9.5
13:11:59.317,0.6563,21.0001
13:11:59.319,4.625,31.5626
13:11:59.321,8.4375,38.8126
13:11:59.326,11.5,47.1252
13:11:59.354,14.1876,52.3127
13:11:59.357,16.7501,57.6877
13:11:59.359,19.6563,62.6877
13:11:59.362,20.5313,67.5003
13:11:59.391,21.9688,70.1878
13:11:59.393,23.6876,71.3128
13:11:59.397,23.0001,72.0628
13:11:59.402,23.2813,69.1253
13:11:59.437,22.4063,67.5003
13:11:59.438,21.1563,64.0627
13:11:59.441,19.8126,60.5627
13:11:59.444,18.1563,56.4377
13:11:59.451,17.0313,52.9377
13:11:59.461,15.3438,49.0002
13:11:59.471,14.9376,46.0002
13:11:59.481,13.6563,43.1252
13:11:59.493,11.9063,40.5002
13:11:59.501,12.0625,37.8126
13:11:59.511,10.625,36.4376
13:11:59.521,10.4063,34.4376
13:11:59.531,9.9063,31.5001
13:11:59.542,9.625,30.8126
13:11:59.551,8.3438,27.5626
13:11:59.562,7.2188,26.4376
13:11:59.571,6.3125,22.5626
13:11:59.581,5.125,19.1251
13:11:59.591,4.4375,15.6876
13:11:59.601,2.2813,11.6875
13:11:59.611,0.7813,8
13:11:59.621,-0.6875,2.5
13:11:59.632,-3.1875,-1.25
13:11:59.641,-4.125,-6.8125
13:11:59.651,-6.5313,-11.25
13:11:59.661,-8,-16.8751
13:11:59.671,-9.4688,-20.8126
13:11:59.681,-11.5938,-25.8126
13:11:59.692,-13.2813,-30.4376
13:11:59.718,-14.3126,-36.3126
13:11:59.721,-17.2813,-40.0002
13:11:59.723,-18.4063,-45.5627
13:11:59.731,-20.3438,-49.9377
13:11:59.741,-21.3438,-53.8752
13:11:59.751,-23.3751,-58.1252
13:11:59.762,-24.2188,-62.5627
13:11:59.773,-25.8438,-65.5627
13:11:59.781,-26.9689,-69.8128
13:11:59.791,-28.1876,-72.1253
13:11:59.801,-29.0001,-76.8128
13:11:59.811,-29.7501,-79.1878
13:11:59.821,-30.9376,-82.3753
13:11:59.832,-32.2814,-85.8128
13:11:59.842,-32.2189,-88.5628
13:11:59.851,-33.8439,-90.8754
13:11:59.861,-34.7501,-94.0629
13:11:59.871,-34.8126,-95.8754
13:11:59.881,-36.0626,-98.6254
13:11:59.891,-36.5626,-101.1879
13:11:59.902,-37.0939,-102.9379
13:11:59.911,-38.4376,-103.6254
13:11:59.921,-38.6564,-107.0629
13:11:59.931,-39.1252,-108.6879
13:11:59.941,-40.0939,-111.1254
13:11:59.952,-40.6877,-113.3754
13:11:59.963,-40.9377,-115.1254
13:11:59.975,-40.9064,-116.0629
13:12:00.009,-41.8439,-117.5629
13:12:00.011,-41.6252,-119.313
13:12:00.041,-42.2189,-120.313
13:12:00.042,-43.1877,-120.938
13:12:00.069,-42.7189,-122.2505
13:12:00.142,-43.1252,-123.313
13:12:00.142,-43.6877,-124.7505
13:12:00.142,-43.5627,-125.938
13:12:00.142,-42.8439,-126.313
13:12:00.164,-43.4689,-125.313
13:12:00.166,-42.6252,-126.063
13:12:00.182,-41.7502,-121.0005
13:12:00.182,-38.1876,-113.2504
13:12:00.183,-34.8126,-102.0004
13:12:00.185,-30.2501,-87.0628
13:12:00.191,-22.3751,-67.8753
13:12:00.191,-12.875,-39.5627
13:12:00.203,-3.5313,-14.3126
13:12:00.211,5.7188,10.25
13:12:00.221,12.5,27.7501
13:12:00.231,18.3438,43.0002
13:12:00.241,23.5938,54.4377
13:12:00.251,27.3751,64.7502
13:12:00.265,30.6876,72.8753
13:12:00.271,0.25,-10.125
13:12:00.281,39.8439,98.0004
13:12:00.291,41.2189,101.1879
13:12:00.302,42.4064,103.9379
13:12:00.311,42.9689,105.7504
13:12:00.321,42.6252,103.3129
13:12:00.331,40.6564,99.1879
13:12:00.341,38.9689,94.2504
13:12:00.351,36.3439,89.7503
13:12:00.362,34.5314,84.7503
13:12:00.371,33.1876,80.1253
13:12:00.381,31.5626,75.4378
13:12:00.392,30.1876,72.3128
13:12:00.401,28.8751,68.1253
13:12:00.411,27.4376,66.1878
13:12:00.421,26.0938,62.6252
13:12:00.431,25.1876,59.5627
13:12:00.441,24.5938,56.5002
13:12:00.451,22.6876,54.1252
13:12:00.461,22.0626,50.0627
13:12:00.472,21.1876,47.4377
13:12:00.481,19.2501,42.0002
13:12:00.491,18.0001,38.5001
13:12:00.501,15.1563,32.5626
13:12:00.513,13.7501,29.0001
13:12:00.521,11.5625,23.1876
13:12:00.531,10.3438,18.1876
13:12:00.541,8.3438,12.6875
13:12:00.551,5.8438,7.125
13:12:00.561,3.7813,2.125
13:12:00.572,1.9688,-3.625
13:12:00.581,-0.6875,-8.8125
13:12:00.591,-2.375,-13.5626
13:12:00.601,-4.5938,-19.6251
13:12:00.611,-6.5313,-23.7501
13:12:00.622,-8.2813,-29.0626
13:12:00.647,-10.25,-33.8126
13:12:00.649,-12.4063,-39.3752
13:12:00.652,-14.0001,-43.5627
13:12:00.678,-15.8438,-48.4377
13:12:00.681,-17.3751,-52.5002
13:12:00.683,-18.5938,-57.2502
13:12:00.719,-19.7813,-59.8752
13:12:00.721,-21.3751,-64.1252
13:12:00.723,-21.9063,-67.1253
13:12:00.727,-22.9376,-70.3128
13:12:00.733,-23.6876,-72.6878
13:12:00.764,-24.7188,-76.1878
13:12:00.766,-25.3438,-78.1878
13:12:00.768,-26.8751,-81.3753
13:12:00.772,-26.9689,-83.2503
13:12:00.808,-28.3126,-84.7503
13:12:00.811,-27.8439,-88.2503
13:12:00.813,-29.8439,-89.5628
13:12:00.816,-29.8126,-92.5629
13:12:00.821,-29.9376,-94.3129
13:12:00.833,-31.7501,-96.3754
13:12:00.841,-32.2189,-99.1254
13:12:00.851,-32.4376,-100.8129
13:12:00.862,-33.7189,-102.1879
13:12:00.872,-34.0001,-104.3754
13:12:00.884,-35.3751,-105.8129
13:12:00.892,-35.9376,-109.3754
13:12:00.901,-36.0001,-110.0004
13:12:00.912,-36.9689,-111.8129
13:12:00.922,-36.7814,-113.1254
13:12:00.931,-38.1251,-114.1879
13:12:00.942,-38.2501,-117.0004
13:12:00.952,-39.1251,-117.438
13:12:00.963,-40.0627,-118.438
13:12:00.974,-39.4689,-120.2505
13:12:00.997,-40.1877,-121.1255
13:12:01.001,-40.6877,-121.563
13:12:01.003,-39.9377,-121.1255
13:12:01.012,-37.9689,-116.2504
13:12:01.022,-35.4376,-105.9379
13:12:01.032,-31.5626,-95.8129
13:12:01.043,-26.3126,-80.1253
13:12:01.052,-18.9688,-60.1877
13:12:01.062,-8.4375,-31.0626
13:12:01.072,1.0938,-2.875
13:12:01.083,10.9688,21.9376
13:12:01.091,19.3751,42.2502
13:12:01.101,25.0001,58.1252
13:12:01.111,30.8439,71.2503
13:12:01.121,35.2189,83.2503
13:12:01.134,39.0626,92.0004
13:12:01.141,42.9064,99.8129
13:12:01.152,44.2502,106.3129
13:12:01.161,46.8752,111.6879
13:12:01.172,48.8752,116.8129
13:12:01.181,50.4689,120.688
13:12:01.192,51.7189,124.5005
13:12:01.208,52.6565,125.313
13:12:01.212,52.969,126.8755
13:12:01.223,52.0627,126.938
13:12:01.232,51.3439,122.7505
13:12:01.242,49.7189,120.313
13:12:01.253,47.5002,115.5004
13:12:01.263,45.7502,110.7504
13:12:01.271,44.2502,106.0004
13:12:01.282,41.9689,101.5004
13:12:01.292,40.1252,96.8754
13:12:01.301,39.0001,92.1254
13:12:01.312,36.0626,88.3128
13:12:01.321,35.4376,83.8128
13:12:01.333,33.5001,79.8128
13:12:01.351,32.3751,76.1253
13:12:01.357,30.3126,72.8753
13:12:01.365,29.5314,69.8128
13:12:01.372,28.1564,66.8128
13:12:01.389,26.0313,62.6877
13:12:01.417,24.8751,58.2502
13:12:01.419,23.4376,54.3127
13:12:01.422,21.4063,49.5627
13:12:01.423,20.1251,44.7502
13:12:01.460,17.8126,40.1877
13:12:01.487,16.0313,34.0001
13:12:01.582,13.3751,28.0001
13:12:01.586,11.7813,22.3126
13:12:01.588,9,17.1251
13:12:01.588,6.8125,10.9375
13:12:01.588,4.1563,4.5
13:12:01.588,2.0938,-1.375
13:12:01.590,0.0313,-7
13:12:01.598,-1.5938,-11.8125
13:12:01.598,-3.75,-17.4376
13:12:01.598,-5.9063,-22.2501
13:12:01.607,-8.1563,-27.8126
13:12:01.617,-9.8125,-32.8126
13:12:01.627,-11.8438,-37.5626
13:12:01.638,-13.1563,-42.7502
13:12:01.647,-15.1876,-47.8127
13:12:01.657,-17.0626,-51.6252
13:12:01.667,-18.8126,-56.6877
13:12:01.678,-19.9376,-60.7502
13:12:01.686,-21.4376,-64.3752
13:12:01.697,-23.1563,-68.2503
13:12:01.707,-24.9063,-72.5003
13:12:01.719,-30.2814,-86.8753
13:12:01.727,-30.6251,-90.3128
13:12:01.737,-31.5314,-92.5004
13:12:01.747,-32.1251,-95.1879
13:12:01.759,-32.7814,-97.0629
13:12:01.767,-36.6876,-110.7504
13:12:01.776,-37.6876,-112.9379
13:12:01.787,-38.3126,-114.2504
13:12:01.797,-38.2501,-115.8754
13:12:01.809,-38.6876,-117.1879
13:12:01.817,-38.7814,-118.688
13:12:01.827,-39.0939,-119.5005
13:12:01.838,-39.6877,-120.938
13:12:01.849,-39.5314,-121.938
13:12:01.857,-39.9377,-122.5005
13:12:01.867,-39.5314,-122.688
13:12:01.878,-40.4377,-123.8755
13:12:01.888,-40.0939,-124.7505
13:12:01.897,-41.2502,-125.0005
13:12:01.907,-41.3439,-126.8755
13:12:01.918,-40.9689,-126.438
13:12:01.927,-40.0939,-125.7505
13:12:01.937,-39.1251,-121.688
13:12:01.948,-36.0001,-112.5004
13:12:01.960,-31.9064,-100.3754
13:12:01.967,-28.0626,-86.3128
13:12:01.977,-20.6563,-67.0003
13:12:01.988,-11.0938,-40.1877
13:12:01.999,-2.1563,-13.5626
13:12:02.007,6.5313,9.8125
13:12:02.017,13.4063,28.9376
13:12:02.027,18.7501,41.9377
13:12:02.038,23.8126,53.3127
13:12:02.047,26.6564,62.2502
13:12:02.057,30.0626,69.8128
13:12:02.067,32.8439,76.6878
13:12:02.079,34.6251,81.5003
13:12:02.087,36.4064,86.8128
13:12:02.097,37.7189,88.9378
13:12:02.107,39.5314,94.1879
13:12:02.118,40.1252,95.0629
13:12:02.128,41.2502,97.7504
13:12:02.137,40.6252,95.7504
13:12:02.147,40.5002,94.8754
13:12:02.158,39.6252,93.0004
13:12:02.169,38.6564,89.7503
13:12:02.200,36.6876,86.3128
13:12:02.202,35.8751,81.8753
13:12:02.205,33.6564,78.9378
13:12:02.207,32.7189,76.0628
13:12:02.241,31.6251,71.9378
13:12:02.244,30.7501,70.3128
13:12:02.246,30.6876,68.6253
13:12:02.249,29.8439,67.0003
13:12:02.278,29.0001,66.2503
13:12:02.280,28.2814,64.5002
13:12:02.282,28.1251,63.0627
13:12:02.311,27.5314,62.6877
13:12:02.314,27.0939,60.2502
13:12:02.317,26.9689,58.2502
13:12:02.321,25.7501,55.5002
13:12:02.336,24.2188,52.5002
13:12:02.338,22.5938,48.3127
13:12:02.351,21.0313,44.3752
13:12:02.358,19.8126,40.5002
13:12:02.367,17.8126,34.7501
13:12:02.377,15.7813,30.8126
13:12:02.388,13.6876,24.7501
13:12:02.397,11.125,18.1876
13:12:02.407,9.1563,14.0626
13:12:02.417,7.3125,7.3125
13:12:02.428,5.0625,3
13:12:02.437,2.8125,-3.9375
13:12:02.447,0.5,-8.5
13:12:02.457,-1.375,-14.4376
13:12:02.467,-3.6563,-18.1251
13:12:02.477,-4.4063,-23.8751
13:12:02.487,-7,-28.1251
13:12:02.497,-8.5625,-33.0001
13:12:02.509,-10.5625,-37.1876
13:12:02.517,-11.8438,-41.3752
13:12:02.527,-13.1563,-45.2502
13:12:02.537,-15.2501,-48.8127
13:12:02.547,-16.2188,-52.9377
13:12:02.557,-17.4376,-56.5627
13:12:02.567,-18.3126,-60.4377
13:12:02.578,-19.2501,-62.6877
13:12:02.587,-21.0938,-65.8753
13:12:02.597,-21.4063,-69.7503
13:12:02.607,-23.1876,-71.9378
13:12:02.619,-23.9063,-75.2503
13:12:02.627,-25.1563,-77.3753
13:12:02.637,-26.0626,-79.6878
13:12:02.648,-26.5939,-83.2503
13:12:02.657,-26.8751,-84.6253
13:12:02.667,-27.9376,-87.1253
13:12:02.683,-28.5314,-89.3128
13:12:02.689,-29.2189,-90.7504
13:12:02.701,-29.2189,-92.9379
13:12:02.707,-29.9064,-94.4379
13:12:02.729,-30.4689,-95.7504
13:12:02.731,-30.3126,-96.8754
13:12:02.747,-30.8751,-98.5004
13:12:02.751,-31.0939,-100.3129
13:12:02.757,-32.3751,-101.2504
13:12:02.767,-32.3751,-103.0629
13:12:02.778,-33.2189,-103.8129
13:12:02.787,-32.4376,-104.9379
13:12:02.797,-31.9376,-103.7504
13:12:02.808,-31.3126,-98.3754
13:12:02.820,-27.5314,-88.5628
13:12:02.856,-23.6876,-75.5003
13:12:02.928,-16.3751,-56.0002
13:12:02.943,-6.7813,-26.6876
13:12:02.944,4.6875,3.375
13:12:02.947,12.625,28.3751
13:12:02.947,20.8751,48.7502
13:12:02.975,26.3751,63.5627
13:12:02.976,32.0314,76.4378
13:12:02.979,35.1876,86.3128
13:12:03.010,38.0939,93.7504
13:12:03.010,40.5314,100.4379
13:12:03.014,42.4689,105.0629
13:12:03.018,43.6877,110.1254
13:12:03.023,45.0939,113.1254
13:12:03.033,46.6877,116.6254
13:12:03.042,47.6877,119.688
13:12:03.053,48.7502,122.1255
13:12:03.062,48.4377,121.5005
13:12:03.072,48.0627,121.2505
13:12:03.082,46.8439,118.688
13:12:03.093,45.6564,115.5004
13:12:03.102,44.5314,110.1879
13:12:03.112,40.3127,98.0004
13:12:03.122,40.1877,96.5629
13:12:03.132,39.0314,94.8129
13:12:03.142,37.9689,93.7504
13:12:03.152,37.5939,90.9379
13:12:03.163,36.2189,90.1253
13:12:03.172,35.5314,87.0003
13:12:03.182,34.3439,84.5003
13:12:03.192,33.0314,81.3128
13:12:03.202,31.1251,76.0628
13:12:03.212,29.5314,72.1253
13:12:03.222,27.9689,66.8753
13:12:03.236,26.2501,61.8752
13:12:03.242,24.4063,56.6877
13:12:03.254,21.4376,50.6877
13:12:03.262,19.9376,45.3127
13:12:03.272,16.7501,39.6877
13:12:03.282,15.1563,33.5001
13:12:03.297,12.5313,27.5626
13:12:03.307,11.0625,21.2501
13:12:03.318,7.7813,15.7501
13:12:03.327,6.7188,9.75
13:12:03.337,3.5938,3.6875
13:12:03.348,2.4375,-2
13:12:03.357,-0.2813,-7.8125
13:12:03.367,-1.6875,-12.3125
13:12:03.377,-4.1875,-17.2501
13:12:03.389,-5.3438,-22.4376
13:12:03.397,-7.625,-27.1251
13:12:03.407,-8.5313,-32.3126
13:12:03.418,-10.9688,-36.5001
13:12:03.427,-12.6875,-39.8752
13:12:03.437,-13.8126,-44.8127
13:12:03.447,-15.1876,-49.3127
13:12:03.460,-17.8751,-54.7502
13:12:03.467,-19.0001,-58.3752
13:12:03.478,-20.6876,-62.9377
13:12:03.487,-21.4376,-65.8128
13:12:03.498,-22.2813,-69.2503
13:12:03.507,-23.7813,-72.7503
13:12:03.517,-25.1563,-75.0628
13:12:03.529,-25.8126,-78.7503
13:12:03.557,-27.0001,-81.1253
13:12:03.560,-28.0314,-84.1878
13:12:03.562,-29.1564,-85.6878
13:12:03.590,-29.3126,-88.9378
13:12:03.592,-29.9689,-89.5003
13:12:03.595,-30.7814,-93.0004
13:12:03.600,-31.6876,-93.6254
13:12:03.608,-31.6876,-96.7504
13:12:03.644,-32.2189,-98.0629
13:12:03.645,-32.6876,-99.1254
13:12:03.649,-32.2501,-101.1254
13:12:03.650,-33.6876,-101.7504
13:12:03.680,-33.5314,-104.5004
13:12:03.682,-33.8126,-105.6254
13:12:03.685,-34.4064,-105.3129
13:12:03.690,-34.1876,-105.9379
13:12:03.720,-31.9376,-100.5004
13:12:03.722,-29.0314,-88.7503
13:12:03.724,-23.1251,-73.6878
13:12:03.727,-15.2188,-48.6252
13:12:03.746,-3.5,-15.9376
13:12:03.748,7.8125,16.3751
13:12:03.758,17.0626,41.6252
13:12:03.767,24.9063,61.9377
13:12:03.777,31.2189,79.0003
13:12:03.790,36.8439,92.6254
13:12:03.797,41.5314,104.3754
13:12:03.807,45.1252,113.1254
13:12:03.818,48.2189,121.7505
13:12:03.827,50.4377,129.3755
13:12:03.837,52.4377,133.8755
13:12:03.852,54.6565,138.938
13:12:03.859,55.219,143.8755
13:12:03.867,57.4065,146.6881
13:12:03.878,57.8127,149.8131
13:12:03.887,58.6565,150.6881
13:12:03.897,58.7502,150.8756
13:12:03.908,57.9065,149.1881
13:12:03.917,56.8127,146.8131
13:12:03.927,55.6565,142.6255
13:12:03.938,53.5002,138.6255
13:12:03.948,51.6877,133.0005
13:12:03.957,49.9377,129.2505
13:12:03.968,48.1252,123.313
13:12:03.977,46.5002,120.688
13:12:03.988,45.0627,116.0629
13:12:03.997,43.7189,113.7504
13:12:04.012,42.8439,110.7504
13:12:04.031,41.9064,109.0004
13:12:04.037,41.5002,106.2504
13:12:04.039,40.7502,105.1879
13:12:04.054,39.5939,103.1879
13:12:04.058,38.5314,101.1879
13:12:04.067,37.5939,97.3754
13:12:04.077,36.7189,94.3129
13:12:04.087,35.1564,90.3754
13:12:04.097,33.3751,85.9378
13:12:04.107,31.9689,81.4378
13:12:04.117,29.0314,75.7503
13:12:04.127,27.8751,70.7503
13:12:04.137,24.5626,64.5002
13:12:04.149,22.3438,58.5002
13:12:04.157,19.7813,51.2502
13:12:04.167,17.0001,45.3127
13:12:04.178,14.7188,37.7501
13:12:04.188,12.25,31.0001
13:12:04.208,9.6875,24.5001
13:12:04.209,6.9063,17.3751
13:12:04.227,4.75,10.875
13:12:04.242,2.1563,4.625
13:12:04.244,-0.2813,-2.0625
13:12:04.258,-2.5313,-7.875
13:12:04.260,-4.3438,-13.3751
13:12:04.269,-6.1563,-18.5626
13:12:04.277,-8.375,-23.8751
13:12:04.287,-10.0313,-29.4376
13:12:04.300,-12.4688,-35.5001
13:12:04.308,-13.8438,-39.4377
13:12:04.335,-15.4063,-45.0002
13:12:04.337,-16.5001,-49.1877
13:12:04.339,-18.1563,-53.3752
13:12:04.369,-19.3126,-57.2502
13:12:04.372,-20.7501,-61.4377
13:12:04.375,-22.5626,-65.5003
13:12:04.379,-22.8438,-68.6253
13:12:04.409,-24.0626,-72.1878
13:12:04.411,-25.2813,-75.0628
13:12:04.413,-26.0626,-77.9378
13:12:04.419,-27.2501,-80.8128
13:12:04.447,-28.7814,-83.6253
13:12:04.450,-29.6564,-87.3128
13:12:04.451,-30.6876,-89.5003
13:12:04.484,-31.2814,-92.0004
13:12:04.486,-31.3751,-95.2504
13:12:04.489,-33.3126,-98.6879
13:12:04.495,-34.0001,-101.1879
13:12:04.499,-35.0001,-103.2504
13:12:04.507,-35.5939,-105.6879
13:12:04.517,-35.4064,-107.1254
13:12:04.527,-36.3751,-107.3754
13:12:04.540,-36.5314,-110.3129
13:12:04.547,-36.5626,-111.6879
13:12:04.557,-37.6564,-112.6879
13:12:04.567,-37.6876,-114.9379
13:12:04.577,-37.7189,-114.6879
13:12:04.587,-38.5939,-117.813
13:12:04.601,-38.3751,-118.188
13:12:04.608,-39.1564,-118.2505
13:12:04.617,-38.8751,-118.688
13:12:04.628,-36.7501,-115.0629
13:12:04.639,-34.1876,-105.6254
13:12:04.647,-29.5001,-91.5629
13:12:04.658,-22.1876,-70.1253
13:12:04.668,-9.75,-36.3126
13:12:04.677,2.4375,-0.25
13:12:04.688,12.9688,27.8126
13:12:04.698,21.7188,52.1252
13:12:04.707,29.1251,73.0628
13:12:04.717,36.1251,88.8128
13:12:04.730,41.4377,102.5629
13:12:04.739,44.7502,113.4379
13:12:04.748,48.7502,122.438
13:12:04.758,51.5627,131.313
13:12:04.767,54.219,137.063
13:12:04.777,57.0315,144.3755
13:12:04.787,58.4065,150.5006
13:12:04.797,60.4065,154.5006
13:12:04.807,62.594,158.8131
13:12:04.840,63.5315,162.3131
13:12:04.843,64.3752,163.4381
13:12:04.845,64.0315,164.2506
13:12:04.847,63.094,160.8756
13:12:04.857,61.9377,159.0631
13:12:04.867,60.1565,153.8131
13:12:04.877,58.3752,150.1881
13:12:04.887,56.3752,144.313
13:12:04.897,54.6877,140.063
13:12:04.909,52.8127,135.3755
13:12:04.917,51.0627,132.1255
13:12:04.927,50.2189,128.313
13:12:04.937,49.3439,126.2505
13:12:04.948,48.0627,122.7505
13:12:04.958,47.5939,121.7505
13:12:04.967,46.4377,119.5005
13:12:04.977,46.2502,117.8129
13:12:04.987,45.3752,115.1879
13:12:04.997,43.8127,112.8129
13:12:05.009,42.8439,110.4379
13:12:05.017,41.3439,106.6254
13:12:05.027,39.7502,102.6254
13:12:05.039,38.0314,97.8754
13:12:05.065,35.5626,92.4379
13:12:05.070,33.5939,87.5003
13:12:05.070,30.3751,80.7503
13:12:05.077,28.5001,74.0628
13:12:05.112,25.1251,66.6878
13:12:05.115,22.1876,59.8127
13:12:05.116,19.5313,51.4377
13:12:05.120,16.7501,44.6252
13:12:05.146,13.6563,36.6251
13:12:05.151,11.125,29.0626
13:12:05.151,7.75,21.6876
13:12:05.176,5.25,13.7501
13:12:05.179,3.0938,7
13:12:05.181,0.0625,-0.3125
13:12:05.188,-2.0313,-7.3125
13:12:05.219,-4.875,-13.6876
13:12:05.221,-6.8438,-20.3751
13:12:05.223,-9.5625,-26.6251
13:12:05.228,-11.1563,-32.5626
13:12:05.238,-13.7188,-39.0001
13:12:05.247,-15.9063,-45.1877
13:12:05.257,-18.0626,-50.4377
13:12:05.267,-19.5001,-56.1252
13:12:05.278,-22.2188,-61.4377
13:12:05.288,-23.9688,-66.6878
13:12:05.298,-26.0938,-71.5003
13:12:05.307,-27.3439,-75.0003
13:12:05.323,-28.5626,-80.2503
13:12:05.339,-29.7189,-83.6253
13:12:05.341,-30.7814,-86.8753
13:12:05.352,-31.9064,-91.0629
13:12:05.357,-32.4376,-93.5629
13:12:05.369,-34.0314,-95.5004
13:12:05.378,-34.4064,-100.0629
13:12:05.387,-35.1251,-101.3129
13:12:05.399,-36.8126,-104.6254
13:12:05.408,-37.0939,-107.3129
13:12:05.418,-37.7501,-109.1879
13:12:05.428,-38.7501,-111.8129
13:12:05.439,-39.2189,-114.7504
13:12:05.449,-39.7189,-117.0629
13:12:05.457,-41.5627,-119.188
13:12:05.469,-42.1564,-121.813
13:12:05.477,-42.4377,-122.8755
13:12:05.487,-43.4689,-126.1255
13:12:05.499,-43.8127,-127.1255
13:12:05.507,-44.3127,-129.563
13:12:05.526,-44.4689,-130.563
13:12:05.531,-44.9689,-131.188
13:12:05.545,-45.2189,-133.5005
13:12:05.549,-45.6877,-135.438
13:12:05.559,-46.6252,-136.563
13:12:05.567,-47.0939,-138.0005
13:12:05.577,-46.4689,-137.438
13:12:05.590,-46.1252,-133.313
13:12:05.597,-42.1564,-125.063
13:12:05.609,-38.5314,-110.0004
13:12:05.619,-30.9064,-91.0004
13:12:05.627,-19.4688,-59.6252
13:12:05.638,-7.8125,-25.5001
13:12:05.648,2.5938,3.8125
13:12:05.659,11.5313,28.0001
13:12:05.667,19.6876,46.5002
13:12:05.679,25.3751,61.6252
13:12:05.689,31.2501,74.0628
13:12:05.697,33.6876,83.3753
13:12:05.709,37.5626,92.6879
13:12:05.717,39.6252,99.5004
13:12:05.727,42.3439,104.2504
13:12:05.739,44.4377,109.8129
13:12:05.748,45.8127,114.8754
13:12:05.758,48.5314,119.063
13:12:05.769,49.2189,123.313
13:12:05.777,50.6877,124.813
13:12:05.787,52.0627,126.3755
13:12:05.798,51.6564,126.2505
13:12:05.823,52.969,126.8755
13:12:05.828,53.594,127.438
13:12:05.829,55.9377,129.688
13:12:05.859,59.0002,133.3755
13:12:05.862,61.3752,137.1255
13:12:05.864,65.7502,143.188
13:12:05.870,68.2503,149.0631
13:12:05.894,71.3753,155.0631
13:12:05.897,74.5003,161.0631
13:12:05.898,77.0315,166.5631
13:12:05.930,78.6878,171.8132
13:12:05.930,80.7191,176.3757
13:12:05.932,82.8441,180.8132
13:12:05.937,85.0628,185.5007
13:12:05.977,88.1566,190.0632
13:12:05.979,91.8441,196.3132
13:12:05.981,95.4379,203.3133
13:12:05.983,98.9379,210.3758
13:12:05.990,102.8441,217.6258
13:12:05.999,105.5941,223.8759
13:12:06.008,109.1879,231.0634
13:12:06.018,111.3129,235.6884
13:12:06.031,116.3754,242.6884
13:12:06.039,122.0005,252.876
13:12:06.049,127.1567,264.5635
13:12:06.057,132.7505,275.8135
13:12:06.068,137.2193,287.8136
13:12:06.078,143.1568,298.8137
13:12:06.087,148.0631,309.9387
13:12:06.119,152.0006,321.1887
13:12:06.121,154.8756,328.6888
13:12:06.123,156.6256,334.9388
13:12:06.130,157.9068,338.1263
13:12:06.138,157.6569,340.0638
13:12:06.148,157.4068,341.6888
13:12:06.159,157.5944,342.6263
13:12:06.168,156.7193,342.0013
13:12:06.178,155.5318,338.8138
13:12:06.188,152.0318,335.0013
13:12:06.197,149.4068,328.4388
13:12:06.208,146.2193,322.1262
13:12:06.219,143.438,316.9387
13:12:06.228,141.063,310.5637
13:12:06.238,138.7505,305.5637
13:12:06.249,135.3755,298.3762
13:12:06.259,132.4068,292.1886
13:12:06.269,130.6255,285.4386
13:12:06.279,129.188,281.5636
13:12:06.287,126.5317,278.2511
13:12:06.298,126.1255,273.751
13:12:06.308,124.5942,271.0635
13:12:06.318,123.938,267.501
13:12:06.329,121.9692,265.626
13:12:06.338,121.313,261.5635
13:12:06.349,119.1255,259.3135
13:12:06.359,117.5942,256.126
13:12:06.369,116.5004,251.0635
13:12:06.377,115.2504,248.8759
13:12:06.389,112.6879,242.6259
13:12:06.397,108.1567,234.1259
13:12:06.408,100.0941,217.4383
13:12:06.420,88.1566,192.5007
13:12:06.428,73.2815,161.0006
13:12:06.438,55.1252,125.2505
13:12:06.449,39.5002,90.8754
13:12:06.457,28.5314,62.7502
13:12:06.469,20.2188,42.5002
13:12:06.478,15.3438,26.1876
13:12:06.487,9.75,14.6876
13:12:06.516,8.2813,9
13:12:06.518,8.625,9.6875
13:12:06.521,11.125,17.1251
13:12:06.553,15.2501,29.0626
13:12:06.556,22.5938,47.5002
13:12:06.558,32.6876,72.4378
13:12:06.561,43.1252,98.3129
13:12:06.591,55.1877,126.688
13:12:06.593,65.219,153.7506
13:12:06.597,74.4065,177.1257
13:12:06.599,83.2191,197.8133
13:12:06.660,90.9379,216.8133
13:12:06.660,99.5629,234.0009
13:12:06.661,108.4379,252.1885
13:12:06.669,117.2817,272.626
13:12:06.669,128.0005,295.1886
13:12:06.669,137.2193,317.1887
13:12:06.675,143.563,333.5638
13:12:06.685,146.6256,343.9388
13:12:06.693,148.0631,348.5638
13:12:06.705,149.9381,353.3763
13:12:06.714,152.4068,358.7514
13:12:06.722,156.7193,366.0639
13:12:06.734,160.9694,375.7514
13:12:06.742,165.2819,383.8765
13:12:06.753,170.5631,392.1265
13:12:06.764,173.7507,399.5015
13:12:06.772,172.9069,400.0015
13:12:06.784,169.7194,396.7515
13:12:06.793,166.1256,390.314
13:12:06.803,165.1569,385.5015
13:12:06.823,166.6256,387.6265
13:12:06.825,167.8131,391.189
13:12:06.839,167.5944,395.5015
13:12:06.844,165.0944,389.7515
13:12:06.853,160.9694,382.1265
13:12:06.864,156.8756,373.1889
13:12:06.874,153.0943,363.6264
13:12:06.883,150.2506,355.1263
13:12:06.893,148.2506,348.3763
13:12:06.905,146.0005,343.1263
13:12:06.913,145.438,340.1263
13:12:06.924,144.1255,335.8138
13:12:06.935,142.0318,331.9388
13:12:06.943,139.3755,324.6262
13:12:06.954,135.2193,315.3137
13:12:06.967,131.6255,305.3137
13:12:06.974,129.7505,297.6261
13:12:06.984,129.4067,294.1261
13:12:06.994,130.1567,293.2511
13:12:07.003,129.3442,292.0636
13:12:07.013,129.0942,270.0635
13:12:07.024,127.4067,264.9385
13:12:07.034,122.813,257.001
13:12:07.045,117.8755,247.8134
13:12:07.052,113.5317,237.1884
13:12:07.063,109.5004,228.9384
13:12:07.074,105.6879,219.0633
13:12:07.083,100.4066,209.8758
13:12:07.094,95.0941,198.0008
13:12:07.103,88.7503,185.3757
13:12:07.114,83.2191,172.3132
13:12:07.124,78.219,161.6881
13:12:07.133,72.8128,149.7818
13:12:07.143,67.7815,139.8443
