timestamp,Red,IR
12:48:28.321,12.3125,18.3751
12:48:28.332,12,17.3126
12:48:28.341,10.9375,16.5001
12:48:28.352,10.9375,14.6876
12:48:28.361,10.75,15.1251
12:48:28.372,10.6875,12.75
12:48:28.383,11.0625,12.8125
12:48:28.391,10.6875,11.375
12:48:28.402,10.5625,13.3751
12:48:28.411,10.9375,12
12:48:28.421,10.5625,11.25
12:48:28.430,10.8125,11.375
12:48:28.441,10.125,10.5
12:48:28.451,9.375,8.8125
12:48:28.461,8.75,7.6875
12:48:28.472,9.3125,7
12:48:28.482,8.6875,5.8125
12:48:28.492,8.625,6.875
12:48:28.502,8.4375,7
12:48:28.535,8.625,5.1875
12:48:28.536,8.375,4.875
12:48:28.539,8.3125,5.875
12:48:28.542,8.5,5.625
12:48:28.574,8.875,6.125
12:48:28.575,7.875,5.6875
12:48:28.577,9.0625,5.125
12:48:28.582,8.4375,5.1875
12:48:28.616,8.75,5.375
12:48:28.619,8.8125,5.4375
12:48:28.621,8.4375,3.4375
12:48:28.644,7.5625,3.0625
12:48:28.646,8.5625,2.625
12:48:28.648,7.8125,0.75
12:48:28.656,6.875,0.25
12:48:28.668,6.6875,-0.625
12:48:28.673,6.6875,-2
12:48:28.690,6.75,-3
12:48:28.693,5.5625,-2.8125
12:48:28.701,6.625,-3.875
12:48:28.712,5.8125,-5.5625
12:48:28.720,5.1875,-6.875
12:48:28.731,5.0625,-5.375
12:48:28.741,5.4375,-6.0625
12:48:28.750,4.625,-7.25
12:48:28.771,5,-8.625
12:48:28.772,4.6875,-8.25
12:48:28.789,5,-9.125
12:48:28.807,4.5,-8.625
12:48:28.807,4.1875,-9.625
12:48:28.820,3.875,-11
12:48:28.823,3.8125,-10.75
12:48:28.831,4.1875,-11
12:48:28.841,3.8125,-12.25
12:48:28.851,3.25,-12.125
12:48:28.862,3.625,-12.5
12:48:28.871,2.875,-13.7501
12:48:28.881,2.8125,-13.1251
12:48:28.891,3.25,-14.0626
12:48:28.900,2.75,-14.1251
12:48:28.911,2.4375,-13.8751
12:48:28.920,2.3125,-14.8126
12:48:28.930,2.1875,-16.4376
12:48:28.941,2.3125,-16.2501
12:48:28.952,2.0625,-16.5626
12:48:28.960,1.6875,-17.4376
12:48:28.971,1.375,-17.5001
12:48:28.980,1.3125,-17.3751
12:48:28.991,1.6875,-18.5001
12:48:29.000,1.125,-18.5001
12:48:29.011,1.6875,-19.6876
12:48:29.020,0.75,-20.8751
12:48:29.031,1.0625,-20.3126
12:48:29.040,0.8125,-21.1251
12:48:29.050,0.125,-22.2501
12:48:29.062,-0.5,-21.7501
12:48:29.072,0.3125,-23.6876
12:48:29.081,-0.5625,-23.5626
12:48:29.091,0.125,-23.5001
12:48:29.100,0.875,-20.4376
12:48:29.110,2.875,-16.0626
12:48:29.122,4.8125,-9.5625
12:48:29.135,6.9375,-2.8125
12:48:29.141,8.875,4.25
12:48:29.153,11.1875,10.9375
12:48:29.161,12.5625,14.6876
12:48:29.171,12.5625,17.6251
12:48:29.181,13.0625,20.4376
12:48:29.191,13.5626,20.6876
12:48:29.201,13.5626,21.7501
12:48:29.233,13.9376,21.1251
12:48:29.234,13.3126,19.6876
12:48:29.236,13.125,19.8751
12:48:29.242,13,17.9376
12:48:29.252,12.6875,16.6876
12:48:29.283,11.5625,15.6876
12:48:29.284,11.5,14.2501
12:48:29.288,11.375,13.2501
12:48:29.293,10.5,12.875
12:48:29.318,10.8125,12.875
12:48:29.323,11.25,12.4375
12:48:29.325,11.25,11.5625
12:48:29.352,10.5,11.25
12:48:29.354,9.75,11.1875
12:48:29.358,10.375,10.4375
12:48:29.363,9.5625,9.0625
12:48:29.390,9.3125,8.6875
12:48:29.393,9.3125,8.3125
12:48:29.396,8.6875,5.5625
12:48:29.415,8.875,6.0625
12:48:29.418,8.5,5.125
12:48:29.422,8.3125,4.5
12:48:29.430,8.125,5.75
12:48:29.441,8.4375,5.125
12:48:29.452,8.75,4.9375
12:48:29.460,8.6875,5.125
12:48:29.472,8.875,5.75
12:48:29.480,9,5.75
12:48:29.490,8.3125,5.5
12:48:29.500,8.8125,6.625
12:48:29.511,8.8125,5.0625
12:48:29.520,8.0625,4.0625
12:48:29.531,8.75,4.375
12:48:29.540,8,2.625
12:48:29.550,7.6875,2.0625
12:48:29.561,7.5,1.3125
12:48:29.570,7.0625,-0.25
12:48:29.582,6.75,-1.0625
12:48:29.591,6.9375,-1.625
12:48:29.600,6.9375,-2.9375
12:48:29.610,6.9375,-3.125
12:48:29.621,6.4375,-4.75
12:48:29.630,5.5625,-5.5
12:48:29.641,5.4375,-5.3125
12:48:29.652,6,-6.3125
12:48:29.661,5.375,-7.125
12:48:29.670,4.375,-7.375
12:48:29.680,5.125,-7.375
12:48:29.690,4.5,-9.1875
12:48:29.702,4.4375,-9.0625
12:48:29.711,5,-9.5
12:48:29.720,4.625,-10.5
12:48:29.730,4.6875,-9.5625
12:48:29.741,4.625,-10.25
12:48:29.751,3.9375,-10.25
12:48:29.760,4.0625,-10.3125
12:48:29.770,3.625,-11.25
12:48:29.780,4.125,-11.625
12:48:29.791,3.625,-11.9375
12:48:29.800,3.6875,-11.9375
12:48:29.811,3.5,-12.6875
12:48:29.821,3.4375,-13.2501
12:48:29.830,3.3125,-14.8126
12:48:29.840,3.3125,-13.3126
12:48:29.851,3.125,-14.6251
12:48:29.860,2.4375,-15.6251
12:48:29.870,2.6875,-15.7501
12:48:29.883,2.6875,-16.0626
12:48:29.890,2.4375,-15.5626
12:48:29.900,3.125,-16.5626
12:48:29.910,1.875,-17.3126
12:48:29.920,1.5625,-17.5626
12:48:29.930,1.875,-19.6876
12:48:29.940,1.375,-19.8126
12:48:29.950,1.5,-19.9376
12:48:29.960,1.3125,-21.0001
12:48:29.971,0.3125,-20.0001
12:48:29.980,1.75,-18.5001
12:48:29.990,2.625,-14.8751
12:48:30.012,5,-8.9375
12:48:30.014,7.375,-3.5625
12:48:30.039,9.0625,2.6875
12:48:30.042,11.0625,8.6875
12:48:30.043,11.5,12.125
12:48:30.050,12.5,16.4376
12:48:30.083,13.3751,17.2501
12:48:30.086,12.875,18.5626
12:48:30.116,13.2501,19.8751
12:48:30.119,12.8125,18.4376
12:48:30.121,12.5,17.0001
12:48:30.123,13.1876,16.2501
12:48:30.123,12.5,15.3751
12:48:30.154,11.625,13.8126
12:48:30.155,11.25,13.3126
12:48:30.157,12.5625,11.625
12:48:30.162,11.6875,10.5625
12:48:30.183,10.4375,10.375
12:48:30.185,10.75,8.8125
12:48:30.190,10.25,9.25
12:48:30.202,10.875,8.625
12:48:30.210,10.4375,6.75
12:48:30.222,10.6875,7.1875
12:48:30.231,10.6875,6.125
12:48:30.240,9.0625,5.0625
12:48:30.250,9.4375,3.3125
12:48:30.267,9.375,3.1875
12:48:30.271,8.75,3.375
12:48:30.280,8.625,3.125
12:48:30.290,9.3125,3.1875
12:48:30.301,9.6875,3.625
12:48:30.311,9.0625,3.5
12:48:30.322,8.875,3.8125
12:48:30.330,9.75,3.5
12:48:30.340,9.25,4
12:48:30.350,9.3125,4.25
12:48:30.362,10,4.0625
12:48:30.370,8.9375,3.625
12:48:30.385,8.9375,3.5625
12:48:30.395,9.125,4
12:48:30.405,9.375,2.1875
12:48:30.415,8.5,1.875
12:48:30.442,8.4375,0.875
12:48:30.444,8,-0.6875
12:48:30.446,7.6875,-1.3125
12:48:30.456,6.75,-2.6875
12:48:30.465,6.9375,-3.3125
12:48:30.475,6.6875,-5.625
12:48:30.486,5.875,-5.8125
12:48:30.495,5.5,-7.25
12:48:30.505,4.875,-7.3125
12:48:30.515,5.5625,-8.6875
12:48:30.525,5.125,-9.6875
12:48:30.535,5.3125,-8.8125
12:48:30.545,4.875,-10.5
12:48:30.555,4.5,-10.5
12:48:30.564,5,-10.875
12:48:30.577,4.375,-11.8125
12:48:30.587,3.5625,-11.125
12:48:30.596,4.4375,-12.4375
12:48:30.606,3.6875,-13.1876
12:48:30.616,4.1875,-12.9375
12:48:30.626,3.6875,-14.3751
12:48:30.641,3.8125,-13.3126
12:48:30.647,3.5625,-14.5001
12:48:30.656,3.6875,-15.3126
12:48:30.665,3.0625,-14.6876
12:48:30.675,3.5,-15.5001
12:48:30.685,3.0625,-16.7501
12:48:30.697,2.25,-15.9376
12:48:30.713,3.75,-16.7501
12:48:30.715,2.8125,-17.0626
12:48:30.744,2.125,-17.3751
12:48:30.746,2.4375,-18.1876
12:48:30.748,1.8125,-19.1251
12:48:30.755,2.5,-19.1251
12:48:30.789,2.3125,-20.0626
12:48:30.789,1.4375,-20.3751
12:48:30.792,2,-20.9376
12:48:30.801,1.375,-21.2501
12:48:30.814,1.1875,-22.5001
12:48:30.817,1.0625,-22.9376
12:48:30.843,0.9375,-23.1251
12:48:30.845,0.9375,-23.5626
12:48:30.848,0.4375,-23.3126
12:48:30.879,1.8125,-19.9376
12:48:30.881,4.625,-15.5626
12:48:30.882,5.625,-8.75
12:48:30.886,8.4375,-1.6875
12:48:30.895,9.625,6.3125
12:48:30.907,12.125,11.5
12:48:30.915,13.4376,15.5626
12:48:30.925,13.6251,18.9376
12:48:30.935,13.9376,20.6251
12:48:30.945,14.9376,21.8126
12:48:30.955,14.6876,21.0626
12:48:30.965,14.0001,19.6876
12:48:30.975,13.3751,19.6876
12:48:30.987,13.2501,18.2501
12:48:30.997,13.3751,16.8126
12:48:31.005,11.875,17.2501
12:48:31.016,12.75,14.3751
12:48:31.025,11.8125,13.7501
12:48:31.036,11.625,13.6251
12:48:31.045,11.875,12.125
12:48:31.055,11.3125,11.375
12:48:31.065,11.375,10.125
12:48:31.075,10.4375,11.0625
12:48:31.085,11.25,10.75
12:48:31.095,11.1875,9.3125
12:48:31.105,11.1875,8.4375
12:48:31.115,10.25,8
12:48:31.125,9.8125,7.8125
12:48:31.135,10.5,6.3125
12:48:31.145,9.4375,4.8125
12:48:31.155,8.9375,4.375
12:48:31.165,8.9375,4.625
12:48:31.175,9.25,4.25
12:48:31.185,8.5625,3.25
12:48:31.196,9,4.9375
12:48:31.205,9.5625,4.4375
12:48:31.215,9.625,4.125
12:48:31.225,9.1875,4.125
12:48:31.235,8.8125,4.5
12:48:31.245,8.4375,4.0625
12:48:31.256,8.8125,4.875
12:48:31.265,8.6875,2.8125
12:48:31.275,8.25,1.875
12:48:31.285,7.9375,3.4375
12:48:31.295,7.875,2
12:48:31.305,8.3125,0.3125
12:48:31.315,7.5,-1.25
12:48:31.325,6.6875,-1.5
12:48:31.336,6.875,-2.125
12:48:31.345,7.3125,-3.5
12:48:31.363,6.8125,-4.625
12:48:31.366,6.8125,-5.625
12:48:31.380,5.625,-5.125
12:48:31.397,6.25,-6.5625
12:48:31.398,5.75,-7.8125
12:48:31.414,5.625,-9
12:48:31.417,4.9375,-9.5625
12:48:31.425,4.4375,-8.8125
12:48:31.456,4.875,-9.75
12:48:31.458,4.5625,-11.25
12:48:31.493,4.0625,-11
12:48:31.496,4.125,-12.0625
12:48:31.496,4.4375,-13.1876
12:48:31.499,3.6875,-13.5626
12:48:31.506,4.25,-12.8125
12:48:31.506,4.375,-13.5626
12:48:31.534,3.3125,-14.8126
12:48:31.539,3.0625,-14.0001
12:48:31.541,3,-14.2501
12:48:31.544,3.25,-15.6876
12:48:31.584,2.9375,-15.8751
12:48:31.586,2.4375,-15.1876
12:48:31.588,2.4375,-16.3751
12:48:31.590,1.8125,-17.9376
12:48:31.597,1.6875,-18.3751
12:48:31.607,2.125,-18.3751
12:48:31.616,1.75,-19.7501
12:48:31.625,1.5625,-18.5001
12:48:31.635,1.25,-20.6251
12:48:31.645,0.5625,-21.3126
12:48:31.656,0.9375,-20.5001
12:48:31.665,0.6875,-22.6251
12:48:31.675,0.0625,-21.8751
12:48:31.686,0.0625,-22.8751
12:48:31.695,-0.5625,-24.8126
12:48:31.721,-0.9375,-23.6251
12:48:31.723,-0.375,-25.3126
12:48:31.725,-0.5,-25.8126
12:48:31.736,0,-22.9376
12:48:31.746,1.375,-20.2501
12:48:31.755,3.4375,-13.3126
12:48:31.768,5.3125,-6.3125
12:48:31.775,7.75,-0.25
12:48:31.785,9.125,5.0625
12:48:31.796,11.5625,11.6875
12:48:31.805,11.5625,14.8126
12:48:31.815,12.3125,17.3126
12:48:31.825,13.1876,18.8751
12:48:31.836,12.875,19.0626
12:48:31.845,13.3126,19.2501
12:48:31.855,12.75,18.3126
12:48:31.865,12.3125,16.5001
12:48:31.875,11.1875,15.5626
12:48:31.885,10.5,15.6251
12:48:31.895,11.125,13.6876
12:48:31.905,10.8125,11.0625
12:48:31.915,10.1875,11.3125
12:48:31.925,9.4375,11.3125
12:48:31.935,9.75,10.5625
12:48:31.945,9.9375,9
12:48:31.955,9.75,8.4375
12:48:31.965,9.25,8
12:48:31.976,9.0625,8.25
12:48:31.987,8.6875,7.9375
12:48:31.995,9.0625,6.5
12:48:32.005,9,5.5625
12:48:32.015,8.625,4.8125
12:48:32.025,7.75,4.5625
12:48:32.035,7.125,2.875
12:48:32.045,7.75,1.875
12:48:32.056,7.75,2.25
12:48:32.065,7.9375,2.875
12:48:32.075,8.25,2.125
12:48:32.085,8.375,2.4375
12:48:32.095,7.75,2.8125
12:48:32.105,8,3.8125
12:48:32.115,8.625,3.6875
12:48:32.125,8.1875,2.0625
12:48:32.139,8,3.5
12:48:32.145,8.25,3.1875
12:48:32.178,8.1875,2.3125
12:48:32.180,8.125,0.9375
12:48:32.182,7.1875,0.9375
12:48:32.187,7.875,0.625
12:48:32.217,7.75,-1.1875
12:48:32.220,7.0625,-0.25
12:48:32.221,6.75,-2.3125
12:48:32.226,7.3125,-3.4375
12:48:32.267,6.5625,-4.625
12:48:32.268,6.0625,-5.5625
12:48:32.271,5.625,-5.5
12:48:32.272,5.625,-6.1875
12:48:32.277,5.875,-8.375
12:48:32.301,5.0625,-8.75
12:48:32.304,4.625,-9.6875
12:48:32.306,4.6875,-8.9375
12:48:32.325,4.5625,-10.5625
12:48:32.327,4.1875,-10.625
12:48:32.335,4.875,-10.5
12:48:32.345,4.375,-12.0625
12:48:32.355,4.375,-11.125
12:48:32.365,4.1875,-12.625
12:48:32.375,4.125,-13
12:48:32.385,3.875,-13.0625
12:48:32.395,3.375,-13.1876
12:48:32.405,4.4375,-13.0625
12:48:32.415,3.25,-12.9375
12:48:32.425,2.875,-13.4376
12:48:32.435,3.625,-14.3126
12:48:32.445,3.125,-13.2501
12:48:32.456,3.5625,-15.5626
12:48:32.465,2.6875,-14.3751
12:48:32.475,2.375,-17.3751
12:48:32.486,2.4375,-17.8751
12:48:32.495,2.9375,-16.6251
12:48:32.505,2.25,-18.4376
12:48:32.515,1.75,-18.6876
12:48:32.524,2.1875,-20.3126
12:48:32.535,1.5625,-19.0001
12:48:32.545,2.125,-20.6876
12:48:32.555,2.0625,-18.7501
12:48:32.565,3.4375,-16.6876
12:48:32.575,3.375,-12.9375
12:48:32.585,5.9375,-6.875
12:48:32.595,7.875,-1.9375
12:48:32.605,9.375,2.875
12:48:32.615,10.25,8.75
12:48:32.626,11.0625,11
12:48:32.635,11.4375,13.6876
12:48:32.646,12.1875,14.7501
12:48:32.666,11.875,15.6251
12:48:32.672,12.1875,15.5001
12:48:32.687,10.6875,13.8751
12:48:32.689,10.125,14.1251
12:48:32.698,10.8125,11.5
12:48:32.712,9.9375,11.6875
12:48:32.715,9.8125,8.75
12:48:32.724,8.625,7.125
12:48:32.742,8.5,6.25
12:48:32.745,8.375,4.625
12:48:32.760,8.5625,5.0625
12:48:32.769,9.3125,4.25
12:48:32.775,8.25,2.625
12:48:32.785,7.5625,1.6875
12:48:32.795,7.3125,1.8125
12:48:32.805,6.9375,1.9375
12:48:32.816,7.5,0.6875
12:48:32.828,6.5,-2
12:48:32.836,6,-1.25
12:48:32.867,6.1875,-1.5625
12:48:32.870,6.6875,-1.9375
12:48:32.872,6.8125,-2.375
12:48:32.875,6,-2.3125
12:48:32.906,6.3125,-2.625
12:48:32.909,5.75,-1.5
12:48:32.911,7.125,-1.25
12:48:32.919,6.25,-1.8125
12:48:32.926,5.9375,-2.375
12:48:32.959,6.1875,-0.625
12:48:32.961,6.125,-1.8125
12:48:32.964,6.4375,-1.4375
12:48:32.966,6.9375,-1.9375
12:48:33.004,5.75,-2.5625
12:48:33.004,6,-1.6875
12:48:33.008,5.875,-3.5625
12:48:33.014,5.5625,-2.8125
12:48:33.015,5.125,-4.5625
12:48:33.025,5.125,-7
12:48:33.035,4.5625,-5.9375
12:48:33.045,4.75,-8.1875
12:48:33.054,5,-8.4375
12:48:33.065,5.625,-9.625
12:48:33.077,3.875,-10.5
12:48:33.089,3.8125,-10.875
12:48:33.095,3.875,-12.0625
12:48:33.104,3.75,-11.0625
12:48:33.115,3.9375,-12.4375
12:48:33.125,3.5625,-13.8751
12:48:33.135,3.375,-13
12:48:33.146,2.5,-13.7501
12:48:33.155,3.125,-15.4376
12:48:33.164,2.875,-14.6876
12:48:33.175,2.75,-16.0001
12:48:33.186,2.3125,-16.3751
12:48:33.194,2.375,-15.9376
12:48:33.205,2.125,-17.5626
12:48:33.215,1.5625,-18.0001
12:48:33.224,2.3125,-17.7501
12:48:33.235,1.375,-19.1251
12:48:33.244,0.9375,-17.2501
12:48:33.255,0.8125,-18.6251
12:48:33.265,0.4375,-19.6876
12:48:33.274,1.125,-18.7501
12:48:33.285,0.875,-19.9376
12:48:33.295,0.0625,-21.3126
12:48:33.304,0,-21.3751
12:48:33.314,0.5,-22.3751
12:48:33.325,-0.4375,-23.0626
12:48:33.334,0.4375,-22.0001
12:48:33.345,-0.5625,-23.7501
12:48:33.353,-0.625,-23.7501
12:48:33.365,0,-23.6251
12:48:33.375,-0.125,-23.2501
12:48:33.384,0.8125,-18.3126
12:48:33.395,3,-14.6876
12:48:33.405,4.1875,-9.4375
12:48:33.413,6.375,-0.875
12:48:33.426,8.5,3.375
12:48:33.436,9.875,7.8125
12:48:33.444,10.75,12.4375
12:48:33.453,10.9375,14.3126
12:48:33.465,11.4375,16.7501
12:48:33.474,11.9375,16.0001
12:48:33.484,11.5,15.5626
12:48:33.495,12,15.3751
12:48:33.504,11.125,14.3751
12:48:33.513,10,13.3126
12:48:33.525,10.25,11.5625
12:48:33.535,10.1875,10
12:48:33.543,9.25,10.5625
12:48:33.553,9,8.75
12:48:33.565,9.0625,6.875
12:48:33.575,8.5625,7.625
12:48:33.584,9.375,6.4375
12:48:33.593,8.25,4.9375
12:48:33.627,7.8125,4.9375
12:48:33.631,7.8125,5.3125
12:48:33.633,8.4375,3.625
12:48:33.634,7.625,2.5
12:48:33.670,6.5625,2.25
12:48:33.672,7.25,2.25
12:48:33.674,7.1875,0.9375
12:48:33.681,6.75,-0.25
12:48:33.687,6.3125,-0.0625
12:48:33.714,6.25,0.375
12:48:33.716,7.25,0.0625
12:48:33.719,7.0625,-0.8125
12:48:33.729,6.75,0.25
12:48:33.760,7.0625,1.3125
12:48:33.762,7.5,1.125
12:48:33.765,7.4375,0.8125
12:48:33.771,6.75,0.0625
12:48:33.791,6.8125,0.8125
12:48:33.792,6.9375,-0.625
12:48:33.799,6.375,-0.625
12:48:33.811,6.125,-0.0625
12:48:33.819,6.4375,-2.25
12:48:33.828,5.5,-3
12:48:33.844,6.0625,-3.5
12:48:33.849,5.6875,-3.5
12:48:33.859,6.1875,-4.875
12:48:33.868,5.5625,-6
12:48:33.879,5,-7.625
12:48:33.890,4.625,-6.875
12:48:33.900,4.625,-8.0625
12:48:33.910,4.0625,-9.6875
12:48:33.920,3.9375,-10.8125
12:48:33.929,3.8125,-10.25
12:48:33.940,4.25,-11.1875
12:48:33.949,3,-12.1875
12:48:33.960,2.125,-12.1875
12:48:33.975,3.4375,-12.75
12:48:33.990,2.375,-14.5626
12:48:33.992,2.75,-13
12:48:34.007,2.0625,-14.5626
12:48:34.010,1.875,-14.0001
12:48:34.019,2.0625,-14.1251
12:48:34.028,1.9375,-16.1251
12:48:34.046,2.1875,-15.1251
12:48:34.063,2.125,-16.2501
12:48:34.064,1.6875,-16.7501
12:48:34.073,2.125,-15.8751
12:48:34.080,2.1875,-17.0001
12:48:34.089,1.5,-17.0626
12:48:34.099,1.25,-16.8126
12:48:34.110,1.3125,-17.5626
12:48:34.118,1.375,-18.1876
12:48:34.129,1.25,-17.6876
12:48:34.139,0.875,-16.8751
12:48:34.149,1,-19.4376
12:48:34.158,0.9375,-20.5001
12:48:34.168,0.4375,-18.8751
12:48:34.178,-0.0625,-19.9376
12:48:34.190,0.9375,-21.2501
12:48:34.199,0.25,-22.0626
12:48:34.210,0.6875,-21.2501
12:48:34.218,1.1875,-19.8751
12:48:34.229,1.6875,-16.4376
12:48:34.241,3.9375,-12.125
12:48:34.250,5,-6.6875
12:48:34.284,7.0625,0.625
12:48:34.286,9.125,4.1875
12:48:34.288,9.4375,8.4375
12:48:34.294,10.6875,11.8125
12:48:34.299,10.75,13.3751
12:48:34.309,10.8125,15.6251
12:48:34.334,11.125,16.0001
12:48:34.336,10.875,15.1251
12:48:34.340,10.375,14.7501
12:48:34.371,9.875,12.1875
12:48:34.373,9.5625,11.5
12:48:34.377,10.5,10.4375
12:48:34.381,9.0625,8.4375
12:48:34.409,8.5,8.875
12:48:34.412,7.5625,6.8125
12:48:34.427,8.4375,6.125
12:48:34.432,8.5,6.1875
12:48:34.435,7.1875,4.9375
12:48:34.474,7.375,5
12:48:34.474,7.75,4.0625
12:48:34.477,8,3.4375
12:48:34.478,7.3125,3.25
12:48:34.485,6.125,1.6875
12:48:34.495,7.375,1.5625
12:48:34.505,6.6875,0.25
12:48:34.514,5.875,-1.3125
12:48:34.524,6.9375,-0.1875
12:48:34.533,5.8125,-0.9375
12:48:34.544,5.6875,-0.375
12:48:34.553,5.9375,-0.3125
12:48:34.564,7.1875,-0.5
12:48:34.573,6.4375,-1.125
12:48:34.585,5.6875,-1
12:48:34.593,5.875,0.375
12:48:34.603,5.5625,0.1875
12:48:34.614,6.8125,-0.6875
12:48:34.624,6.1875,-0.0625
12:48:34.633,6.125,0.3125
12:48:34.644,6.6875,-0.875
12:48:34.654,5.8125,-2.1875
12:48:34.665,5.625,-1.6875
12:48:34.674,6.125,-2.1875
12:48:34.684,5.625,-4.3125
12:48:34.693,5.4375,-4.1875
12:48:34.704,5,-5.5625
12:48:34.714,4.4375,-5.75
12:48:34.723,6,-6.25
12:48:34.733,4.9375,-7.75
12:48:34.744,4.25,-7.125
12:48:34.755,4.5625,-8.25
12:48:34.764,4.1875,-9.3125
12:48:34.774,3.6875,-9.625
12:48:34.783,4.4375,-9.625
12:48:34.793,3.5625,-9.9375
12:48:34.804,4.5,-11.25
12:48:34.815,3.4375,-11
12:48:34.824,3.6875,-11.0625
12:48:34.834,3.375,-11.6875
12:48:34.843,3.0625,-13
12:48:34.853,2.9375,-12.5
12:48:34.864,3.3125,-13.3751
12:48:34.873,3.75,-12.375
12:48:34.884,3.3125,-13.8126
12:48:34.893,2.5625,-13.6876
12:48:34.904,3.6875,-14.1251
12:48:34.913,3.25,-14.5001
12:48:34.924,2.625,-13.1251
12:48:34.933,3.3125,-14.9376
12:48:34.944,2.625,-14.0626
12:48:34.954,2.6875,-15.3751
12:48:34.969,2.375,-16.8751
12:48:34.973,2.8125,-16.3751
12:48:34.984,2.9375,-17.0626
12:48:34.993,2.25,-17.6251
12:48:35.004,1.5,-16.9376
12:48:35.013,2.375,-18.1876
12:48:35.023,1.875,-17.2501
12:48:35.034,1.875,-17.6251
12:48:35.044,2.375,-16.1876
12:48:35.054,3.9375,-11.4375
12:48:35.064,5.375,-8
12:48:35.074,6.75,-1.8125
12:48:35.103,9.75,3.75
12:48:35.107,9.5,6.75
12:48:35.108,9.9375,11
12:48:35.114,11.25,11.9375
12:48:35.144,10.625,13.1251
12:48:35.146,10.75,13.8126
12:48:35.149,11.1875,12.6875
12:48:35.157,10.5,12.875
12:48:35.185,11.0625,11.8125
12:48:35.187,10.4375,9.5625
12:48:35.188,9,8.4375
12:48:35.199,9.1875,7.6875
12:48:35.214,9.0625,6.0625
12:48:35.217,8.25,5.375
12:48:35.248,7.8125,5.8125
12:48:35.250,8.1875,4.0625
12:48:35.252,8.3125,2.0625
12:48:35.259,7.625,3.25
12:48:35.267,7.25,3.125
12:48:35.283,7.6875,1.5625
12:48:35.290,7.375,-0.0625
12:48:35.297,7.25,-0.5625
12:48:35.303,6.625,0.3125
12:48:35.321,6.6875,-1.75
12:48:35.327,6.6875,-2.3125
12:48:35.335,6.25,-1.875
12:48:35.350,6.25,-2.375
12:48:35.358,6.8125,-2.5625
12:48:35.365,6,-2.4375
12:48:35.375,6.125,-2.125
12:48:35.385,5.9375,-0.5
12:48:35.399,6.6875,-2.125
12:48:35.406,6.5,-2.0625
12:48:35.414,6,-0.6875
12:48:35.424,6.3125,-0.625
12:48:35.434,6.5625,-0.8125
12:48:35.443,6.6875,-2.4375
12:48:35.453,6.1875,-2.25
12:48:35.463,6.4375,-2.125
12:48:35.473,6.375,-3.4375
12:48:35.484,5.6875,-4.0625
12:48:35.494,5.1875,-5
12:48:35.504,5.625,-6.25
12:48:35.514,5.125,-6.1875
12:48:35.523,5.3125,-6.6875
12:48:35.533,5,-8.25
12:48:35.561,4.0625,-7.875
12:48:35.562,4.9375,-9.875
12:48:35.566,4.25,-10.3125
12:48:35.573,4.3125,-9.9375
12:48:35.584,5.25,-10.125
12:48:35.594,4.5,-11.5
12:48:35.603,4.0625,-10.5
12:48:35.614,4.625,-12
12:48:35.624,3.875,-12.875
12:48:35.634,3.5,-12.4375
12:48:35.644,3.8125,-13.9376
12:48:35.654,2.75,-13.8751
12:48:35.664,3.4375,-13.5001
12:48:35.674,3.1875,-14.0626
12:48:35.684,2.4375,-14.5001
12:48:35.694,3.375,-15.1251
12:48:35.704,2.75,-15.0626
12:48:35.716,2.6875,-15.1251
12:48:35.727,2.6875,-16.3126
12:48:35.733,2.6875,-16.6251
12:48:35.745,3.3125,-16.9376
12:48:35.754,2.0625,-16.4376
12:48:35.764,2.0625,-16.5626
12:48:35.773,2.4375,-18.5626
12:48:35.785,2.125,-18.3751
12:48:35.795,1.9375,-18.2501
12:48:35.803,1.5625,-18.8751
12:48:35.822,1,-20.0626
12:48:35.826,1,-18.7501
12:48:35.856,1.125,-18.8751
12:48:35.857,1.9375,-18.3126
12:48:35.860,2.75,-14.5626
12:48:35.867,4.6875,-9.5625
12:48:35.896,6.5,-4.9375
12:48:35.899,7.75,2.3125
12:48:35.900,10.0625,7.0625
12:48:35.931,10.625,10.3125
12:48:35.932,11.0625,14.4376
12:48:35.937,12.125,15.3751
12:48:35.942,11.9375,17.0001
12:48:35.946,12.0625,17.1251
12:48:35.974,12.375,16.0626
12:48:35.976,11.5625,15.5001
12:48:35.978,11.75,14.6251
12:48:35.986,10.875,12.5625
12:48:35.996,10.5,11.5625
12:48:36.005,10.3125,10
12:48:36.013,9.8125,9.1875
12:48:36.025,9.4375,8.625
12:48:36.034,9.1875,7.9375
12:48:36.044,9.5,6.5625
12:48:36.054,8.9375,6.3125
12:48:36.064,8.75,6.625
12:48:36.073,9.0625,6.4375
12:48:36.084,8.6875,4.6875
12:48:36.094,8.5625,4
12:48:36.104,8.25,4.6875
12:48:36.113,7.75,3
12:48:36.124,7.3125,1.5
12:48:36.134,7.375,1.375
12:48:36.144,7,1.625
12:48:36.154,7.9375,0.875
12:48:36.164,7.25,0.5625
12:48:36.174,7.3125,1.25
12:48:36.184,8.125,1.4375
12:48:36.193,7.625,0.5
12:48:36.203,7.25,1.75
12:48:36.213,6.9375,1.75
12:48:36.224,8.3125,1.25
12:48:36.234,7.6875,1.0625
12:48:36.243,6.625,-0.0625
12:48:36.254,7.25,0.75
12:48:36.264,7.4375,0
12:48:36.273,6.75,-1.3125
12:48:36.284,6.4375,-1.8125
12:48:36.293,6.125,-1.875
12:48:36.304,6.8125,-2.5625
12:48:36.314,6.1875,-3.75
12:48:36.324,6,-4.4375
12:48:36.334,5.8125,-4.3125
12:48:36.344,6,-5.5625
12:48:36.353,4.6875,-7.3125
12:48:36.363,4.5,-8.25
12:48:36.374,5.25,-7.25
12:48:36.384,4.8125,-9.375
12:48:36.393,4.5625,-8.5625
12:48:36.404,4.875,-9.375
12:48:36.414,4.5,-10.5625
12:48:36.424,4.125,-9.5625
12:48:36.433,4.6875,-11.3125
12:48:36.443,4.25,-12.3125
12:48:36.453,3.625,-11.375
12:48:36.484,4.625,-11.375
12:48:36.486,4.0625,-12.125
12:48:36.489,3.4375,-11.8125
12:48:36.495,3.4375,-12.8125
12:48:36.528,3.375,-14.0001
12:48:36.529,3.375,-13.6876
12:48:36.531,2.9375,-14.2501
12:48:36.534,3.1875,-13.8751
12:48:36.570,3.5625,-15.2501
12:48:36.573,2.6875,-15.5001
12:48:36.575,2.9375,-15.2501
12:48:36.585,2.25,-15.6876
12:48:36.585,2.875,-15.8126
12:48:36.619,2.5625,-15.7501
12:48:36.622,1.75,-15.6876
12:48:36.661,2.3125,-16.6876
12:48:36.662,1.75,-18.8126
12:48:36.678,2.25,-17.6251
12:48:36.691,2.125,-18.4376
12:48:36.692,1.125,-19.4376
12:48:36.692,0.875,-18.8751
12:48:36.693,1.0625,-20.3126
12:48:36.710,0.9375,-19.0001
12:48:36.724,1.3125,-18.1251
12:48:36.726,2.5,-16.8126
12:48:36.741,3.9375,-12.75
12:48:36.756,5.75,-6.25
12:48:36.758,7.375,-1.5625
12:48:36.761,8.9375,4.1875
12:48:36.768,9.625,8.875
12:48:36.779,11.375,12.9375
12:48:36.789,12,15.2501
12:48:36.799,12.375,16.2501
12:48:36.808,12.1875,16.9376
12:48:36.843,11.625,15.8751
12:48:36.843,11.8125,15.2501
12:48:36.845,11.75,15.2501
12:48:36.850,11.3125,14.9376
12:48:36.861,10.6875,13.5001
12:48:36.869,11.1875,11.5625
12:48:36.879,10.25,9.8125
12:48:36.889,10.0625,10.4375
12:48:36.899,10,9.375
12:48:36.909,10.0625,7.5625
12:48:36.918,9.1875,6.75
12:48:36.928,9.5625,7.1875
12:48:36.939,9.375,6.4375
12:48:36.949,9,6.1875
12:48:36.959,7.9375,5.5625
12:48:36.969,8.3125,3.375
12:48:36.979,8.0625,3.0625
12:48:36.988,7.5,3.9375
12:48:36.999,8.125,2.6875
12:48:37.009,7.125,0.8125
12:48:37.018,6.875,0.625
12:48:37.029,7.3125,0.375
12:48:37.040,7.1875,0.8125
12:48:37.049,7.25,0.125
12:48:37.059,6.8125,0.9375
12:48:37.069,7.125,0.75
12:48:37.080,7.4375,0.9375
12:48:37.089,6.875,2.375
12:48:37.099,7.6875,2.0625
12:48:37.109,7.25,1
12:48:37.119,6.875,0.9375
12:48:37.129,7.3125,1.125
12:48:37.139,6.5625,1.1875
12:48:37.149,7.4375,-0.3125
12:48:37.159,6.5,-1.375
12:48:37.169,5.75,-1.4375
12:48:37.179,6.125,-1.75
12:48:37.188,6.125,-3.75
12:48:37.199,6,-5.5
12:48:37.209,5.3125,-4
12:48:37.218,5.125,-5.5
12:48:37.228,4.8125,-7.3125
12:48:37.240,4.6875,-7.625
12:48:37.273,5.125,-7.6875
12:48:37.275,4.4375,-8
12:48:37.278,4.0625,-10
12:48:37.284,4.3125,-10.25
12:48:37.289,4.5625,-9.6875
12:48:37.318,4.5625,-10.5625
12:48:37.320,3.5,-11.5625
12:48:37.322,2.8125,-10.375
12:48:37.331,3.375,-11.8125
12:48:37.360,2.5,-12.75
12:48:37.361,3,-11.9375
12:48:37.364,3.6875,-12.4375
12:48:37.371,2.625,-14.0001
12:48:37.403,2.8125,-13.8126
12:48:37.405,3.1875,-13.8126
12:48:37.408,2.6875,-13.8751
12:48:37.414,2.375,-13
12:48:37.420,2.9375,-14.3751
12:48:37.434,1.8125,-15.5626
12:48:37.439,1.9375,-14.6251
12:48:37.449,1.8125,-16.8751
12:48:37.459,1.875,-16.6251
12:48:37.469,1.6875,-16.3126
12:48:37.479,2,-17.3126
12:48:37.490,1.375,-18.4376
12:48:37.499,1.25,-17.5626
12:48:37.508,1.8125,-18.2501
12:48:37.518,1.125,-19.0001
12:48:37.529,1.3125,-17.8126
12:48:37.539,2.125,-17.5001
12:48:37.549,2.9375,-16.0001
12:48:37.558,4.125,-10.6875
12:48:37.569,6,-6
12:48:37.579,7.75,-0.1875
12:48:37.589,9,5.25
12:48:37.598,9.8125,8.625
12:48:37.611,10.8125,13.5626
12:48:37.618,11.9375,14.5626
12:48:37.629,11.375,15.2501
12:48:37.639,11.4375,16.6876
12:48:37.650,11.875,14.9376
12:48:37.659,11.25,14.1876
12:48:37.669,10.5,14.5626
12:48:37.679,10.5,13.1876
12:48:37.688,10,10.8125
12:48:37.699,9,9.75
12:48:37.712,9.5,8.75
12:48:37.719,8.9375,7.3125
12:48:37.729,8.125,6.5
12:48:37.739,8.125,6.3125
12:48:37.749,8.875,5.125
12:48:37.759,8.4375,4.25
12:48:37.768,7.6875,4
12:48:37.779,7.3125,3.875
12:48:37.788,7.625,2.3125
12:48:37.798,7.1875,0.8125
12:48:37.808,7.0625,1.0625
12:48:37.818,6.6875,0.4375
12:48:37.829,6.4375,-1.25
12:48:37.838,6.1875,-0.75
12:48:37.849,6.8125,-1.0625
12:48:37.858,7.5,-0.5
12:48:37.868,6.625,-0.6875
12:48:37.879,6.4375,0.4375
12:48:37.889,7.375,0.125
12:48:37.898,7.1875,0
12:48:37.908,6.75,0.0625
12:48:37.918,7.125,1
12:48:37.929,6.9375,-0.3125
12:48:37.937,7.125,-0.4375
12:48:37.961,6.25,-0.375
12:48:37.963,7.25,-0.1875
12:48:38.029,6.5625,-1.5625
12:48:38.030,6,-2.75
12:48:38.064,6.375,-3
12:48:38.064,6.0625,-4.3125
12:48:38.064,5.5,-4.875
12:48:38.091,5.5625,-5.75
12:48:38.095,5.0625,-7.25
12:48:38.133,4.875,-7.6875
12:48:38.133,5.1875,-8.375
12:48:38.133,5.1875,-8.5
12:48:38.137,4.0625,-9.5
12:48:38.147,3.875,-10.1875
12:48:38.147,3.875,-11.5625
12:48:38.148,4.0625,-11.375
12:48:38.155,3.875,-10.75
12:48:38.164,4.25,-11.9375
12:48:38.174,3.5625,-12.6875
12:48:38.184,3.9375,-12.25
12:48:38.193,2.75,-14.5001
12:48:38.204,2.8125,-14.1251
12:48:38.214,2.6875,-16.0626
12:48:38.224,2.3125,-15.6251
12:48:38.235,2.375,-15.6251
12:48:38.244,1.9375,-16.0626
12:48:38.253,1.75,-17.0626
12:48:38.265,1.1875,-18.1251
12:48:38.274,1.375,-18.2501
12:48:38.284,1.625,-18.3126
12:48:38.292,1.4375,-19.4376
12:48:38.303,0.5,-19.5001
12:48:38.314,1.5,-19.4376
12:48:38.322,0.6875,-20.2501
12:48:38.333,-0.125,-19.6876
12:48:38.344,-0.0625,-21.2501
12:48:38.354,-0.25,-22.0626
12:48:38.364,-0.125,-21.5626
12:48:38.373,-0.25,-22.7501
12:48:38.384,-0.375,-23.0626
12:48:38.395,-0.6875,-23.1876
12:48:38.405,-0.1875,-23.4376
12:48:38.412,0.1875,-20.5626
12:48:38.423,1.5625,-16.8126
12:48:38.434,2.625,-12.875
12:48:38.442,4.4375,-5.125
12:48:38.458,7.8125,1.125
12:48:38.469,8.1875,6.5625
12:48:38.478,8.8125,11.8125
12:48:38.487,10.8125,13.5626
12:48:38.498,10.25,16.7501
12:48:38.507,10.5625,17.9376
12:48:38.521,11.0625,16.1876
12:48:38.528,11.25,17.6876
12:48:38.537,10.8125,16.1876
12:48:38.549,10.0625,15.6876
12:48:38.559,10.625,14.4376
12:48:38.569,9.25,12.625
12:48:38.578,9.4375,12
12:48:38.588,9.3125,10
12:48:38.599,8,10.125
12:48:38.608,8.0625,7.75
12:48:38.619,9,8.5625
12:48:38.627,7.5625,7.375
12:48:38.638,7.8125,7.125
12:48:38.648,7.5,6.25
12:48:38.658,7.375,5.8125
12:48:38.669,7.375,4.0625
12:48:38.680,6.625,4.875
12:48:38.689,7.1875,3.375
12:48:38.697,6.625,2.75
12:48:38.707,6.3125,1.4375
12:48:38.730,6.5625,2.75
12:48:38.733,6.5,1.75
12:48:38.766,6.4375,0.9375
12:48:38.767,6.1875,0.6875
12:48:38.771,6.1875,1.3125
12:48:38.773,6.75,2.5
12:48:38.778,7,1.9375
12:48:38.815,6.6875,1.3125
12:48:38.815,5.875,2.4375
12:48:38.818,6.75,1.75
12:48:38.821,6,0.75
12:48:38.849,5.6875,0.25
12:48:38.850,5.0625,0.4375
12:48:38.852,5.0625,-0.125
12:48:38.859,5.25,-1.3125
12:48:38.886,5.125,-2.75
12:48:38.890,4.8125,-3
12:48:38.891,5,-3.9375
12:48:38.899,4.3125,-5.6875
12:48:38.910,3.4375,-6.0625
12:48:38.919,3.9375,-5.5625
12:48:38.927,4.25,-6.5
12:48:38.938,3.75,-8.3125
12:48:38.949,3.3125,-8.75
12:48:38.957,2.625,-8.4375
12:48:38.968,3.375,-9.9375
12:48:38.977,2.875,-10.75
12:48:38.987,2.9375,-11.3125
12:48:38.997,2.75,-10.9375
12:48:39.009,2.6875,-11.8125
12:48:39.018,2.625,-13.0625
12:48:39.028,2.75,-13.0625
12:48:39.039,2.375,-14.2501
12:48:39.049,1.6875,-14.1251
12:48:39.058,2.0625,-13.9376
12:48:39.069,1.6875,-14.5626
12:48:39.077,1.375,-14.2501
12:48:39.087,1.875,-16.8751
12:48:39.098,0.625,-15.2501
12:48:39.109,1.3125,-16.3126
12:48:39.117,0.5625,-17.5001
12:48:39.129,1.1875,-16.3126
12:48:39.137,0.4375,-18.5626
12:48:39.149,0,-17.5626
12:48:39.159,0.375,-17.9376
12:48:39.169,0.0625,-18.2501
12:48:39.177,-0.125,-18.1876
12:48:39.187,0.5,-19.4376
12:48:39.198,-0.5625,-18.8751
12:48:39.208,0.3125,-18.9376
12:48:39.218,-0.25,-20.5001
12:48:39.228,-0.875,-20.9376
12:48:39.237,0.5625,-21.1876
12:48:39.248,0,-22.0626
12:48:39.259,-1.25,-20.8751
12:48:39.276,-0.4375,-22.3126
12:48:39.281,-1.1875,-24.1251
12:48:39.297,-0.625,-23.0001
12:48:39.299,0,-22.6876
12:48:39.314,-0.1875,-19.8126
12:48:39.319,1.5625,-13.7501
12:48:39.327,4.0625,-8.8125
12:48:39.346,6.3125,-2.5625
12:48:39.349,8.0625,5.125
12:48:39.363,9.125,9.75
12:48:39.371,10.625,14.7501
12:48:39.403,11.5625,16.5001
12:48:39.404,11.6875,18.6251
12:48:39.406,12.25,19.8751
12:48:39.409,11.4375,21.0001
12:48:39.420,11.875,19.2501
12:48:39.427,12.125,18.0001
12:48:39.438,11.4375,17.6876
12:48:39.447,11.3125,16.8751
12:48:39.472,11.125,15.6876
12:48:39.474,10.4375,14.6876
12:48:39.479,10.6875,13.3751
12:48:39.512,10.625,11.25
12:48:39.512,9.625,11.875
12:48:39.516,9.5625,11.1875
12:48:39.520,10.1875,9.4375
12:48:39.546,9.25,8.1875
12:48:39.549,9.375,8.9375
12:48:39.551,9.25,8.375
12:48:39.559,9.125,6.6875
12:48:39.592,8.5,5.8125
12:48:39.593,8.5,6.4375
12:48:39.595,9,5
12:48:39.599,9.75,5.125
12:48:39.630,10.1875,6.75
12:48:39.632,11.0625,7.0625
12:48:39.634,11.625,6.75
12:48:39.640,10.25,6.375
12:48:39.648,10.3125,7.5625
12:48:39.658,9.5,6.75
12:48:39.669,7.1875,4.125
12:48:39.677,1.875,0.375
12:48:39.688,-2.875,-5.8125
12:48:39.698,-6.1875,-11
12:48:39.708,-8.6875,-14.9376
12:48:39.718,-11.75,-17.0626
12:48:39.729,-12.5,-19.8126
12:48:39.738,-12.6875,-22.3126
12:48:39.748,-12.4375,-22.3126
12:48:39.759,-11.625,-21.7501
12:48:39.768,-11.3125,-21.3126
12:48:39.777,-11.5,-22.9376
12:48:39.788,-13.2501,-25.5001
12:48:39.797,-14.8751,-27.8126
12:48:39.809,-14.8126,-27.5001
12:48:39.817,-14.3751,-29.4376
12:48:39.827,-14.8751,-28.3751
12:48:39.837,-14.8751,-30.0626
12:48:39.849,-16.3126,-31.1876
12:48:39.857,-16.2501,-32.3126
12:48:39.867,-16.0001,-33.3751
12:48:39.878,-16.7501,-34.6876
12:48:39.887,-17.8126,-35.0626
12:48:39.897,-18.3126,-36.3126
12:48:39.908,-18.7501,-37.8126
12:48:39.918,-19.3126,-37.8126
12:48:39.927,-19.0001,-38.8126
12:48:39.939,-18.9376,-39.8752
12:48:39.948,-18.0001,-38.9376
12:48:39.958,-18.1251,-37.8126
12:48:39.968,-18.0626,-39.8127
12:48:39.978,-18.6251,-41.1877
12:48:39.987,-19.5001,-41.9377
12:48:39.998,-19.6251,-43.8752
12:48:40.009,-20.0001,-45.0627
12:48:40.017,-19.9376,-45.6252
12:48:40.034,-19.5001,-46.5002
12:48:40.040,-20.5001,-46.9377
12:48:40.050,-20.3126,-49.1252
12:48:40.058,-20.6876,-49.4377
12:48:40.068,-19.5626,-49.7502
12:48:40.078,-19.6251,-50.6877
12:48:40.088,-19.5001,-51.0627
12:48:40.098,-19.4376,-50.9377
12:48:40.107,-19.2501,-52.5002
12:48:40.118,-19.2501,-52.1252
12:48:40.128,-18.6251,-52.9377
12:48:40.138,-18.5001,-53.4377
12:48:40.147,-18.3751,-54.1252
12:48:40.158,-18.0626,-52.6252
12:48:40.168,-16.8126,-49.3752
12:48:40.200,-15.1251,-42.2502
12:48:40.200,-11.375,-34.1251
12:48:40.202,-9.125,-24.6251
12:48:40.209,-6.125,-16.4376
12:48:40.238,-4.25,-7.9375
12:48:40.238,-2.6875,-5
12:48:40.240,-2.5,-0.0625
12:48:40.248,-1.5,1.1875
12:48:40.277,-1.5625,4.0625
12:48:40.280,0,4.0625
12:48:40.282,-0.0625,3.4375
12:48:40.288,-0.375,3.4375
12:48:40.299,-0.4375,1.875
12:48:40.330,-1,0.9375
12:48:40.334,-1.25,-1.3125
12:48:40.335,-1,-1.5625
12:48:40.339,-1.6875,-3.75
12:48:40.361,-1.625,-4.0625
12:48:40.364,-1,-3.875
12:48:40.369,-1.125,-4.0625
12:48:40.378,0.375,-5
12:48:40.388,-0.6875,-4.6875
12:48:40.398,-0.125,-4.75
12:48:40.408,-0.5625,-6.625
12:48:40.417,-0.625,-6.1875
12:48:40.428,-0.625,-8.9375
12:48:40.438,-0.875,-9.875
12:48:40.448,-1.5,-9.375
12:48:40.458,-1.4375,-10.6875
12:48:40.469,-1.4375,-10.5625
12:48:40.479,-0.125,-10.375
12:48:40.489,-0.4375,-9.625
12:48:40.497,0.0625,-9.5
12:48:40.508,0.0625,-8.0625
12:48:40.518,0.875,-7.5625
12:48:40.528,1,-8
12:48:40.538,1,-6.9375
12:48:40.548,1.5,-7.1875
12:48:40.557,2.125,-5.875
12:48:40.569,2.75,-6.4375
12:48:40.589,3.6875,-6.1875
12:48:40.595,4.375,-4.4375
12:48:40.610,3.8125,-5.5625
12:48:40.612,4.3125,-6.75
12:48:40.628,4.8125,-7
12:48:40.631,4.0625,-6.875
12:48:40.645,4.125,-9.0625
12:48:40.683,3.25,-9.875
12:48:40.697,3.625,-11
12:48:40.711,2.9375,-13.6251
12:48:40.714,2.25,-13.1876
12:48:40.729,2.1875,-15.8126
12:48:40.729,1.75,-16.3126
12:48:40.729,1.625,-18.2501
12:48:40.730,1.6875,-20.0626
12:48:40.733,1.5625,-19.5626
12:48:40.743,1.125,-22.3126
12:48:40.753,0.1875,-24.0626
12:48:40.762,-1,-24.9376
12:48:40.772,-0.875,-25.6876
12:48:40.786,-1.3125,-27.1251
12:48:40.794,-1.375,-27.0001
12:48:40.803,-1.1875,-27.5626
12:48:40.812,-0.6875,-28.3126
12:48:40.822,-1.0625,-29.0001
12:48:40.832,-0.4375,-28.8751
12:48:40.844,-0.5625,-29.0626
12:48:40.852,-0.25,-29.8126
12:48:40.862,-0.625,-30.2501
12:48:40.875,-0.8125,-30.6251
12:48:40.907,-0.75,-30.9376
12:48:40.910,-1.0625,-32.2501
12:48:40.911,-1.25,-30.5626
12:48:40.913,-0.875,-33.0001
12:48:40.944,-1.75,-31.8126
12:48:40.946,-2.625,-33.7501
12:48:40.949,-2.1875,-35.4376
12:48:40.955,-2.5625,-33.9376
12:48:40.980,-2.9375,-35.5626
12:48:40.983,-2.625,-35.9376
12:48:40.985,-2.8125,-36.4376
12:48:41.019,-1.875,-36.5001
12:48:41.022,-1.25,-33.4376
12:48:41.024,0.1875,-30.5626
12:48:41.031,3,-21.5626
12:48:41.036,6.4375,-10.1875
12:48:41.042,10.5,1.375
12:48:41.054,13.8126,12.875
12:48:41.062,16.3126,19.7501
12:48:41.072,18.2501,26.2501
12:48:41.082,19.3751,29.7501
12:48:41.092,19.8751,31.8751
12:48:41.103,20.0626,33.5626
12:48:41.112,20.0001,33.8751
12:48:41.122,19.5626,33.0001
12:48:41.132,19.6876,33.1876
12:48:41.143,18.6251,31.9376
12:48:41.153,19.2501,29.3126
12:48:41.162,17.0001,27.3126
12:48:41.172,16.5626,26.0001
12:48:41.182,16.6876,23.6251
12:48:41.192,14.5626,22.1251
12:48:41.203,14.4376,20.6251
12:48:41.212,14.3751,19.1876
12:48:41.222,13.6251,18.1876
12:48:41.232,12.625,17.6251
12:48:41.243,12.0625,15.6251
12:48:41.252,11.75,13.9376
12:48:41.263,10.1875,11.5625
12:48:41.272,9.6875,10.125
12:48:41.282,8.8125,10.625
12:48:41.293,9.0625,7.75
12:48:41.303,7.8125,6.375
12:48:41.312,7.75,5.8125
12:48:41.323,8.375,6.1875
12:48:41.332,8.6875,6.125
12:48:41.343,8.6875,6.0625
12:48:41.352,8,6.5
12:48:41.363,7.25,6.375
12:48:41.372,7.9375,6.75
12:48:41.382,8.5,6.625
12:48:41.393,8.0625,5.8125
12:48:41.402,8.25,7.3125
12:48:41.413,8.5,6.25
12:48:41.422,8.5,5.4375
12:48:41.432,9,5.25
12:48:41.443,8.875,4.3125
12:48:41.452,8.625,2.75
12:48:41.463,7.1875,1
12:48:41.473,6.6875,-0.0625
12:48:41.482,6.375,-0.625
12:48:41.492,6.1875,-2.6875
12:48:41.533,6.125,-4.875
12:48:41.534,5.0625,-7.875
12:48:41.536,4.375,-8.8125
12:48:41.543,4.375,-8.75
12:48:41.552,3.4375,-10.1875
12:48:41.561,3.6875,-12.6875
12:48:41.568,3,-15.0626
12:48:41.577,2.375,-16.4376
12:48:41.607,1.9375,-17.2501
12:48:41.609,1.1875,-18.6876
12:48:41.613,1.375,-20.7501
12:48:41.618,0.875,-22.7501
12:48:41.645,0.25,-22.6876
12:48:41.646,0.875,-23.3751
12:48:41.651,-0.0625,-25.7501
12:48:41.680,0,-26.0626
12:48:41.683,-0.1875,-28.0001
12:48:41.685,-0.8125,-28.5001
12:48:41.691,-1.1875,-29.6876
12:48:41.706,-1.0625,-30.3126
12:48:41.708,-1.75,-32.6251
12:48:41.737,-1.0625,-31.8751
12:48:41.740,-2,-34.0001
12:48:41.742,-1.9375,-34.6876
12:48:41.750,-3,-36.0626
12:48:41.770,-2.875,-37.3126
12:48:41.771,-3.5625,-37.6251
12:48:41.777,-3,-39.4377
12:48:41.788,-3.75,-41.3127
12:48:41.797,-4.1875,-41.0627
12:48:41.808,-4.1875,-41.5002
12:48:41.818,-3.5625,-42.9377
12:48:41.828,-4.125,-41.2502
12:48:41.837,-3.4375,-43.0002
12:48:41.848,-3.4375,-39.9377
12:48:41.857,-1.5,-37.8126
12:48:41.867,0.875,-28.4376
12:48:41.877,5.125,-17.7501
12:48:41.888,9,-3.4375
12:48:41.897,12.875,8.25
12:48:41.913,15.4376,17.3126
12:48:41.932,18.3126,25.1251
12:48:41.935,19.1251,29.5626
12:48:41.960,20.0626,32.8751
12:48:41.963,21.0001,34.6876
12:48:41.964,20.3751,35.2501
12:48:41.969,20.8751,35.5001
12:48:41.977,19.9376,34.9376
12:48:41.996,20.8751,34.2501
12:48:41.999,19.5001,32.0001
12:48:42.014,18.6876,32.3751
12:48:42.022,18.9376,29.9376
12:48:42.028,18.1251,30.8751
12:48:42.039,18.6876,28.8126
12:48:42.048,18.1876,26.6251
12:48:42.057,17.2501,26.1251
12:48:42.068,17.4376,25.9376
12:48:42.078,17.1251,25.9376
12:48:42.087,17.4376,23.8126
12:48:42.099,16.6251,22.4376
12:48:42.108,16.0001,20.8751
12:48:42.117,15.6251,19.0626
12:48:42.128,14.6251,20.0626
12:48:42.137,14.8751,18.2501
12:48:42.147,15.0001,16.9376
12:48:42.158,14.4376,15.8126
12:48:42.167,14.5001,15.4376
12:48:42.177,13.9376,15.6251
12:48:42.188,14.5001,16.3126
12:48:42.197,15.3126,16.8126
12:48:42.208,14.8751,16.0001
12:48:42.218,14.8126,17.4376
12:48:42.228,14.8751,17.4376
12:48:42.240,15.8751,17.3126
12:48:42.249,15.6876,16.6251
12:48:42.257,15.4376,17.4376
12:48:42.268,15.3751,17.5001
12:48:42.280,15.5001,16.0001
12:48:42.289,15.8751,14.5626
12:48:42.297,15.8126,15.1876
12:48:42.308,15.3126,13.6251
12:48:42.317,14.3751,11.625
12:48:42.327,13.2501,10.8125
12:48:42.337,13.3126,9.9375
12:48:42.347,13.0625,7.5625
12:48:42.357,11.9375,5.75
12:48:42.371,12.4375,5.3125
12:48:42.405,11.9375,3.4375
12:48:42.408,11.125,1.625
12:48:42.410,10.5,1.375
12:48:42.412,9.6875,0.4375
12:48:42.419,9.6875,-2
12:48:42.452,8.375,-3.3125
12:48:42.453,7.5625,-5.125
12:48:42.455,6.875,-6
12:48:42.462,5.875,-8.0625
12:48:42.496,5.9375,-9.75
12:48:42.499,4.625,-10.75
12:48:42.501,4.375,-11.375
12:48:42.503,4.375,-13.1251
12:48:42.542,3.5,-15.0001
12:48:42.543,2.625,-15.0001
12:48:42.545,1.625,-16.6876
12:48:42.549,1.8125,-18.8126
12:48:42.555,1.25,-21.1876
12:48:42.565,-0.0625,-21.9376
12:48:42.572,-0.6875,-20.7501
12:48:42.582,-1,-23.4376
12:48:42.593,-1,-25.1251
12:48:42.603,-2.0625,-26.6251
12:48:42.612,-2.6875,-26.8126
12:48:42.623,-2.9375,-29.7501
12:48:42.632,-2.8125,-31.2501
12:48:42.642,-4.0625,-32.9376
12:48:42.652,-4.8125,-34.1251
12:48:42.663,-4.4375,-35.1251
12:48:42.672,-5.25,-32.6251
12:48:42.682,-3.25,-30.4376
12:48:42.693,-1.5,-24.2501
12:48:42.703,1.25,-15.0001
12:48:42.713,4.25,-6.0625
12:48:42.722,6.875,2.875
12:48:42.733,9,9.4375
12:48:42.743,10.6875,16.6876
12:48:42.752,11.375,18.0626
12:48:42.762,11.5625,20.3126
12:48:42.773,11.5,20.0626
12:48:42.782,11.3125,20.6876
12:48:42.793,11.5625,19.9376
12:48:42.802,11,19.6251
12:48:42.812,10.5625,18.5001
12:48:42.823,9.9375,17.1251
12:48:42.833,10.0625,16.6251
12:48:42.843,9.875,15.0001
12:48:42.852,9.5,13.6251
12:48:42.863,9.375,11.375
12:48:42.873,8.125,11.875
12:48:42.882,9.25,9.625
12:48:42.892,8.3125,7.6875
12:48:42.903,7.625,7.625
12:48:42.913,8.125,6.9375
12:48:42.923,7.75,5.875
12:48:42.933,7.0625,5.125
12:48:42.941,7.25,3.875
12:48:42.952,7.4375,1.6875
12:48:42.962,6.5625,1.0625
12:48:42.973,6.4375,1.3125
12:48:42.986,6.8125,0.3125
12:48:42.992,6.3125,-1.1875
12:48:43.002,6.6875,0.4375
12:48:43.013,7.5,0.125
12:48:43.023,6.5625,0.1875
12:48:43.031,7,2.0625
12:48:43.041,7.875,2.1875
12:48:43.057,8.1875,1.5
12:48:43.062,7.9375,3.5625
12:48:43.072,8.25,2.875
12:48:43.082,7.8125,2.1875
12:48:43.092,7.4375,2.25
12:48:43.103,8.3125,0.8125
12:48:43.113,7.875,-0.25
12:48:43.132,7.75,1.0625
12:48:43.135,7.3125,-0.75
12:48:43.163,7.5,-1.6875
12:48:43.165,7.4375,-3.3125
12:48:43.167,7.375,-4.5625
12:48:43.173,6.8125,-5.625
12:48:43.203,6.625,-5.625
12:48:43.204,6.6875,-7.1875
12:48:43.206,6.125,-9
12:48:43.244,5.4375,-9.625
12:48:43.269,5.5625,-10.375
12:48:43.269,5.0625,-12.6875
12:48:43.269,4.4375,-13.8751
12:48:43.270,4.0625,-13.9376
12:48:43.272,3.75,-13.9376
12:48:43.303,3,-16.0626
12:48:43.320,2.8125,-15.5626
12:48:43.323,2.875,-16.6876
12:48:43.326,2.3125,-17.6876
12:48:43.327,2.125,-19.0001
12:48:43.327,0.5625,-19.8126
12:48:43.335,1.1875,-21.1251
12:48:43.343,0.875,-20.5626
12:48:43.351,2.0625,-21.2501
12:48:43.362,2.3125,-22.2501
12:48:43.372,1.25,-20.4376
12:48:43.383,2.1875,-21.1251
12:48:43.391,2,-22.0001
12:48:43.403,1.8125,-22.6251
12:48:43.413,1.3125,-23.2501
12:48:43.424,2.6875,-22.2501
12:48:43.432,3.625,-22.3751
12:48:43.442,3.625,-21.4376
12:48:43.452,5.9375,-16.8751
12:48:43.463,9,-9.5
12:48:43.472,13.3126,1.25
12:48:43.481,18.0001,13.5626
12:48:43.493,23.6251,24.6251
12:48:43.503,28.1876,35.5001
12:48:43.513,31.3126,42.7502
12:48:43.523,32.1251,48.3752
12:48:43.532,33.2501,49.7502
12:48:43.542,31.8751,49.6252
12:48:43.553,30.6876,48.7502
12:48:43.563,29.4376,46.9377
12:48:43.572,28.0626,44.0002
12:48:43.581,27.8126,43.5002
12:48:43.592,25.7501,38.8126
12:48:43.603,22.6251,34.9376
12:48:43.612,20.3751,30.8751
12:48:43.623,18.5001,28.3126
12:48:43.632,17.1876,25.0001
12:48:43.641,15.3126,21.8751
12:48:43.652,12.8125,17.9376
12:48:43.663,11.75,17.2501
12:48:43.671,11.4375,15.7501
12:48:43.682,10.625,14.0626
12:48:43.692,10.0625,14.0626
12:48:43.701,10.1875,12.25
12:48:43.711,9.125,10.125
12:48:43.723,7.5,7.9375
12:48:43.733,7,6.5
12:48:43.741,7.125,4.1875
12:48:43.753,5.4375,3
12:48:43.762,5.75,3
12:48:43.771,5.625,2.25
12:48:43.781,5.375,2.25
12:48:43.792,6.375,2.625
12:48:43.808,6.375,2.5
12:48:43.813,5.3125,2
12:48:43.821,5.3125,3.3125
12:48:43.832,5.75,2.5
12:48:43.854,5.375,1.75
12:48:43.857,4.25,1.875
12:48:43.888,4.375,0.4375
12:48:43.891,4.8125,0.1875
12:48:43.892,3.125,-1.25
12:48:43.895,2.9375,-2.0625
12:48:43.901,2.3125,-4.25
12:48:43.913,1.5625,-7.125
12:48:43.945,1,-7.25
12:48:43.947,1.125,-9.0625
12:48:43.949,0.5,-10.875
12:48:43.951,-0.5,-13.0625
12:48:43.983,-1.5625,-13.8126
12:48:43.985,-1.5,-15.5626
12:48:43.991,-0.6875,-16.7501
12:48:44.016,-1,-17.5626
12:48:44.018,-1,-17.6876
12:48:44.022,-1.375,-19.6251
12:48:44.028,-1.625,-19.8126
12:48:44.033,-1.5,-19.5626
12:48:44.041,-0.875,-21.3751
12:48:44.053,-1.5,-23.3126
12:48:44.061,-1.875,-23.2501
12:48:44.075,-2.5625,-24.5626
12:48:44.081,-3,-26.8751
12:48:44.092,-3.125,-27.6251
12:48:44.101,-3.25,-28.0626
12:48:44.113,-4.1875,-29.2501
12:48:44.122,-4.375,-31.1876
12:48:44.132,-4.125,-30.5626
12:48:44.141,-4.5625,-31.7501
12:48:44.152,-4.1875,-33.0626
12:48:44.161,-4.75,-33.8126
12:48:44.173,-5.0625,-34.4376
12:48:44.186,-4.8125,-35.9376
12:48:44.191,-5.625,-36.6876
12:48:44.202,-6.4375,-38.3126
12:48:44.211,-6.8125,-39.4377
12:48:44.222,-6.5625,-41.1877
12:48:44.231,-7.1875,-40.0627
12:48:44.243,-6.0625,-41.1877
12:48:44.251,-5.5625,-37.1876
12:48:44.262,-4.0625,-35.0626
12:48:44.273,-1.8125,-25.6251
12:48:44.283,2.0625,-16.1251
12:48:44.291,5.4375,-3.8125
12:48:44.302,9.375,5.8125
12:48:44.312,11.1875,14.6876
12:48:44.321,13.6876,19.8126
12:48:44.331,14.6251,25.5626
12:48:44.341,15.8751,27.4376
12:48:44.351,15.7501,29.1876
12:48:44.363,16.3126,28.8751
12:48:44.371,16.3126,28.8751
12:48:44.385,15.6251,29.5626
12:48:44.392,15.8751,26.6251
12:48:44.402,15.0001,26.9376
12:48:44.411,14.5001,25.0626
12:48:44.421,14.6251,23.6251
12:48:44.432,14.2501,22.2501
12:48:44.441,14.3126,22.2501
12:48:44.451,13.7501,20.8751
12:48:44.461,13.3751,19.9376
12:48:44.471,13.9376,19.6876
12:48:44.481,13.8126,19.5001
12:48:44.491,13.7501,18.0626
12:48:44.554,13.3751,17.7501
12:48:44.554,12.0625,17.6251
12:48:44.556,12.375,14.9376
12:48:44.560,12,14.5001
12:48:44.565,11.375,12.625
12:48:44.565,11.125,13.9376
12:48:44.565,11.0625,11.75
12:48:44.573,10.9375,10
12:48:44.636,10.875,10.6875
12:48:44.636,11.0625,12
12:48:44.640,11.8125,11.8125
12:48:44.640,11.5,11.125
12:48:44.645,11.4375,12
12:48:44.646,11.25,13.0625
12:48:44.646,12.6875,12.4375
12:48:44.679,12.5625,12.125
12:48:44.681,12.5,12.5625
12:48:44.682,12.0625,12.8125
12:48:44.687,13.2501,12.4375
12:48:44.695,13.3751,11.25
12:48:44.706,13,10.8125
12:48:44.712,12.1875,10
12:48:44.722,11.9375,7.0625
12:48:44.731,12.0625,7.5625
12:48:44.741,12.8125,7.1875
12:48:44.751,12.3125,6.1875
12:48:44.761,11.8125,4.3125
12:48:44.772,11.3125,2.5
12:48:44.781,10.5625,1.25
12:48:44.792,10,0.0625
12:48:44.802,10.375,-1.8125
12:48:44.811,9.125,-2.75
12:48:44.821,9.4375,-2.4375
12:48:44.831,9.875,-3.4375
12:48:44.841,9.4375,-4.25
12:48:44.851,9.1875,-5.25
12:48:44.861,8.375,-4.75
12:48:44.871,7.125,-6.25
12:48:44.881,6.75,-8.6875
12:48:44.891,6.3125,-9.8125
12:48:44.901,5.875,-10.4375
12:48:44.911,5.5,-12.125
12:48:44.922,4.75,-13.1876
12:48:44.931,3.9375,-12.625
12:48:44.941,4.375,-15.1251
12:48:44.951,3.8125,-16.1251
12:48:44.961,3.375,-16.2501
12:48:44.971,2.9375,-18.3126
12:48:44.981,2.1875,-19.2501
12:48:44.991,2.125,-21.0001
12:48:45.001,0.625,-22.1876
12:48:45.011,-0.8125,-23.4376
12:48:45.021,-1.1875,-25.6876
12:48:45.032,-1.3125,-27.8751
12:48:45.041,-1.5625,-27.3126
12:48:45.052,-1.5625,-28.5001
12:48:45.061,-2.625,-30.8126
12:48:45.071,-3.8125,-30.6251
12:48:45.086,-3.875,-32.9376
12:48:45.092,-4,-34.0001
12:48:45.102,-4.5625,-33.1251
12:48:45.111,-3,-32.0626
12:48:45.121,-2.875,-27.5001
12:48:45.132,0.0625,-19.9376
12:48:45.142,4.1875,-9.75
12:48:45.152,6.25,1.25
12:48:45.161,9.3125,9.75
12:48:45.171,10.5625,15.3126
12:48:45.181,12.25,21.4376
12:48:45.191,13.125,23.6876
12:48:45.201,13.3751,25.3126
12:48:45.211,13.4376,26.4376
12:48:45.221,13.7501,25.0001
12:48:45.231,13.2501,26.3126
12:48:45.241,13.1876,23.8751
12:48:45.252,12.5,24.1251
12:48:45.262,12.625,22.0626
12:48:45.271,12,21.7501
12:48:45.281,12.25,20.0001
12:48:45.297,11.6875,20.1251
12:48:45.301,13,20.0001
12:48:45.333,12.5625,18.3751
12:48:45.335,11.75,17.8751
12:48:45.340,12.75,18.1251
12:48:45.345,11.75,16.1876
12:48:45.360,11.5625,16.2501
12:48:45.364,11.25,15.1876
12:48:45.391,12,13.4376
12:48:45.393,10.875,12.1875
12:48:45.395,10.25,12.125
12:48:45.402,10.0625,10.25
12:48:45.416,10,8.75
12:48:45.421,9.5625,7.1875
12:48:45.455,8.8125,7.25
12:48:45.458,8.8125,5.25
12:48:45.460,9.3125,6.25
12:48:45.475,9,5.4375
12:48:45.477,8.5,7.0625
12:48:45.484,9.1875,7.0625
12:48:45.492,9.6875,6.875
12:48:45.502,10.25,7
12:48:45.511,9.5,8.4375
12:48:45.522,9.5,7.8125
12:48:45.531,9.1875,6.4375
12:48:45.542,8.9375,5.625
12:48:45.551,8.1875,5.6875
12:48:45.561,8.25,2.875
12:48:45.572,7.75,1.375
12:48:45.581,7.25,0.75
12:48:45.591,6.6875,-0.1875
12:48:45.601,7.25,-0.625
12:48:45.611,7.625,-2
12:48:45.621,7.4375,-2.8125
12:48:45.632,7.25,-3.9375
12:48:45.641,6.625,-4.3125
12:48:45.652,6.75,-4.8125
12:48:45.661,6.125,-6.8125
12:48:45.671,4.6875,-10
12:48:45.681,3.9375,-10.4375
12:48:45.692,2.9375,-12.9375
12:48:45.701,2.1875,-14.1876
12:48:45.711,2.375,-16.0001
12:48:45.721,1.625,-16.7501
12:48:45.731,0.625,-18.0001
12:48:45.741,0.875,-17.5001
12:48:45.752,0.3125,-19.3751
12:48:45.761,-0.5625,-20.6876
12:48:45.771,-1.4375,-21.7501
12:48:45.812,-2.25,-23.1876
12:48:45.813,-2.125,-24.0001
12:48:45.829,-2.5,-25.3126
12:48:45.831,-3.875,-25.2501
12:48:45.833,-4,-27.6876
12:48:45.838,-5.1875,-27.5626
12:48:45.842,-5.0625,-29.3126
12:48:45.854,-6.25,-29.4376
12:48:45.861,-7.6875,-32.8126
12:48:45.871,-10.0625,-36.6876
12:48:45.891,-11.4375,-37.3751
12:48:45.893,-10.875,-38.0626
12:48:45.908,-10.625,-38.5626
12:48:45.913,-11.25,-38.3751
12:48:45.921,-11.375,-38.8126
12:48:45.931,-11.3125,-40.5002
12:48:45.941,-11.8125,-39.6877
12:48:45.951,-11.375,-41.3752
12:48:45.961,-11.0625,-39.8127
12:48:45.972,-9.8125,-39.1251
12:48:45.981,-8.5,-37.0626
12:48:45.992,-7.125,-32.0626
12:48:46.001,-2.6875,-27.0001
12:48:46.012,0.3125,-15.9376
12:48:46.054,4.5,-5.375
12:48:46.056,7.5625,5.25
12:48:46.060,10.75,14.7501
12:48:46.061,13.8751,21.3126
12:48:46.064,15.1251,27.0626
12:48:46.096,16.5626,31.8751
12:48:46.098,18.2501,34.0001
12:48:46.102,17.6876,36.3126
12:48:46.103,18.8751,35.3751
12:48:46.135,18.3126,36.3751
12:48:46.136,18.6251,35.6876
12:48:46.139,18.8751,35.5001
12:48:46.144,19.3751,35.7501
12:48:46.176,19.2501,35.1876
12:48:46.179,19.6251,34.6251
12:48:46.181,19.3751,33.5001
12:48:46.200,19.2501,33.5001
12:48:46.201,19.7501,32.4376
12:48:46.202,18.7501,30.9376
12:48:46.212,17.8126,29.5001
12:48:46.221,17.3126,30.0626
12:48:46.232,17.9376,28.6876
12:48:46.241,16.5626,26.8751
12:48:46.251,16.8126,26.3751
12:48:46.261,16.5001,25.7501
12:48:46.271,16.8751,24.8751
12:48:46.282,16.2501,23.1876
12:48:46.291,15.3126,22.5626
12:48:46.301,16.2501,23.5626
12:48:46.311,16.0626,21.1876
12:48:46.321,15.8751,22.3126
12:48:46.331,15.9376,23.3126
12:48:46.342,16.0001,23.0001
12:48:46.352,16.1251,21.5626
12:48:46.362,15.5001,20.7501
12:48:46.373,15.1876,21.4376
12:48:46.382,15.8126,20.4376
12:48:46.391,14.4376,19.5626
12:48:46.401,14.0626,18.8126
12:48:46.412,14.0626,19.4376
12:48:46.421,14.1251,18.2501
12:48:46.431,14.3751,18.1251
12:48:46.442,14.0001,17.2501
12:48:46.451,13.8126,17.6876
12:48:46.462,13.7501,16.0001
12:48:46.476,13.6251,14.3126
12:48:46.486,13.0625,13.8126
12:48:46.497,12.625,14.1876
12:48:46.506,12.9375,13.3126
12:48:46.516,13,10.625
12:48:46.526,12.8125,10.125
12:48:46.536,12.4375,10.25
12:48:46.546,12.4375,10.4375
12:48:46.557,13.7501,9.375
12:48:46.567,12.8125,8.125
12:48:46.576,12.3125,8.625
12:48:46.586,13.1876,8.75
12:48:46.596,13,8
12:48:46.606,12.5,7.25
12:48:46.616,12.125,8.1875
12:48:46.626,11.9375,6.125
12:48:46.636,11.0625,5.25
12:48:46.646,11.5625,4.5625
12:48:46.658,11,3.375
12:48:46.672,10.9375,2.875
12:48:46.681,10.75,2.125
12:48:46.692,10.125,0.9375
12:48:46.701,9.5625,1.375
12:48:46.712,9.3125,0.9375
12:48:46.744,8.375,-1.6875
12:48:46.748,5.6875,-5.125
12:48:46.749,5.375,-4.8125
12:48:46.752,5.875,-5.625
12:48:46.779,5.8125,-6.875
12:48:46.784,6.1875,-6.125
12:48:46.785,6.125,-6.875
12:48:46.793,4.75,-7.3125
12:48:46.829,5.625,-8.4375
12:48:46.829,4.9375,-10.3125
12:48:46.831,4.5,-10.625
12:48:46.838,4.125,-12.875
12:48:46.844,3,-14.9376
12:48:46.880,2.0625,-15.3126
12:48:46.882,2.875,-15.3751
12:48:46.884,2.9375,-13.8751
12:48:46.886,5.125,-9.3125
12:48:46.893,6.5625,-3.5
12:48:46.905,7.75,3.4375
12:48:46.911,9.625,6.625
12:48:46.921,10.25,10.125
12:48:46.931,11.375,14.6876
12:48:46.941,11.9375,16.6876
12:48:46.951,11.9375,17.6876
12:48:46.961,12.125,18.8751
12:48:46.971,11.875,18.5626
12:48:46.981,12.25,17.1876
12:48:46.991,12.1875,17.3751
12:48:47.001,12.0625,18.0001
12:48:47.011,12.4375,15.5626
12:48:47.021,11.5625,14.3751
12:48:47.031,11.625,15.1876
12:48:47.041,11.875,13.5626
12:48:47.051,10.5625,12
12:48:47.081,10.5625,12.4375
12:48:47.082,10.625,10.625
12:48:47.085,10.875,9.5
12:48:47.091,10.75,10.875
12:48:47.108,11.375,9.1875
12:48:47.124,10.875,9
12:48:47.128,10.5625,9.25
12:48:47.131,11.625,8.875
12:48:47.142,11.625,7.75
12:48:47.151,11,7.0625
12:48:47.162,12,7.0625
12:48:47.171,12.1875,6.9375
12:48:47.188,11.5625,5.875
12:48:47.204,11.0625,6.5
12:48:47.209,11.5625,6.875
12:48:47.212,11.6875,6.1875
12:48:47.221,11,5.875
12:48:47.232,11.1875,7.6875
12:48:47.241,11.3125,6.6875
12:48:47.251,11.0625,6.375
12:48:47.261,10.5,7.3125
12:48:47.271,10.6875,5.75
12:48:47.281,11.3125,4.9375
12:48:47.291,10.6875,4.25
12:48:47.301,10.25,5.125
12:48:47.312,10.375,3.4375
12:48:47.321,10.4375,2.6875
12:48:47.331,9.875,2.375
12:48:47.342,9.5,2.3125
12:48:47.351,9.1875,1
12:48:47.361,9.4375,-0.125
12:48:47.371,9.4375,-1.6875
12:48:47.381,9.0625,-2.8125
12:48:47.392,8.4375,-3.625
12:48:47.401,8.1875,-2.5625
12:48:47.411,8.25,-4.25
12:48:47.421,8.5,-5.6875
12:48:47.431,8,-5.5
12:48:47.445,7.0625,-5.9375
12:48:47.484,7.6875,-6.875
12:48:47.485,7.875,-7.5
12:48:47.487,7.5,-7.5
12:48:47.490,7.4375,-7.4375
12:48:47.493,8.25,-7.875
12:48:47.521,8.3125,-8.5
12:48:47.524,7.5625,-9
12:48:47.526,7.3125,-10.1875
12:48:47.532,6.75,-10.5
12:48:47.557,6.3125,-11.4375
12:48:47.559,6,-12.625
12:48:47.562,6.5625,-12.6875
12:48:47.590,5.625,-13.5626
12:48:47.592,5.4375,-14.0001
12:48:47.595,5.875,-14.6251
12:48:47.603,5.3125,-12.8125
12:48:47.612,6.1875,-13.8751
12:48:47.621,5.875,-15.1251
12:48:47.631,5.9375,-14.5626
12:48:47.642,6,-13.2501
12:48:47.651,6.3125,-14.4376
12:48:47.661,6.5,-16.2501
12:48:47.671,5.875,-15.6876
12:48:47.681,5.9375,-16.9376
12:48:47.692,5.75,-18.2501
12:48:47.702,5.4375,-17.9376
12:48:47.711,5.0625,-17.2501
12:48:47.721,5.6875,-18.5001
12:48:47.731,5.5625,-16.5001
12:48:47.741,7.5625,-11.9375
12:48:47.752,9.5,-6.25
12:48:47.761,11.0625,2.375
12:48:47.771,13.8751,8.625
12:48:47.781,14.3751,13.6876
12:48:47.792,16.1251,19.8126
12:48:47.801,17.4376,23.8751
12:48:47.811,17.9376,26.1876
12:48:47.821,18.0001,28.0001
12:48:47.832,17.9376,27.8126
12:48:47.841,18.4376,28.6251
12:48:47.851,18.1876,27.9376
12:48:47.861,16.6876,28.4376
12:48:47.871,16.8126,26.6876
12:48:47.881,16.2501,24.3126
12:48:47.892,16.0626,24.2501
12:48:47.901,15.5001,22.0626
12:48:47.911,14.8126,21.1251
12:48:47.922,14.8126,20.3126
12:48:47.932,14.1251,19.1876
12:48:47.941,13.7501,17.8751
12:48:47.951,13.6876,18.4376
12:48:47.962,14.1251,17.3126
12:48:47.971,13.7501,15.9376
12:48:47.981,12.4375,16.3751
12:48:47.991,12.875,15.2501
12:48:48.002,12.5625,13.9376
12:48:48.011,12.0625,13
12:48:48.021,11.375,12.3125
12:48:48.031,12,11.75
12:48:48.041,12.1875,10.4375
12:48:48.052,11.25,10
12:48:48.061,10.625,9.8125
12:48:48.071,11.875,9.3125
12:48:48.081,10.6875,8.9375
12:48:48.091,10.375,9
12:48:48.104,11.4375,9
12:48:48.111,10.4375,8.1875
12:48:48.121,10.875,7.5625
12:48:48.131,9.9375,9.3125
12:48:48.141,11.125,8.5625
12:48:48.151,10.75,7.6875
12:48:48.175,10.25,6.625
12:48:48.177,10.0625,6.75
12:48:48.202,10.0625,5.5625
12:48:48.205,9.4375,4.0625
12:48:48.207,9.4375,3.75
12:48:48.212,9.25,3.625
12:48:48.240,9.75,1.9375
12:48:48.243,8.3125,0.5625
12:48:48.245,8.75,-0.625
12:48:48.254,8.5625,-0.0625
12:48:48.280,7.875,-1.375
12:48:48.282,7.9375,-3.375
12:48:48.285,6.9375,-4.3125
12:48:48.310,7.5,-4.25
12:48:48.312,8.5,-5.5
12:48:48.315,6.5625,-6.5
12:48:48.321,6.125,-6.6875
12:48:48.364,5.875,-7.6875
12:48:48.364,5.3125,-9.3125
12:48:48.366,5.0625,-9.625
12:48:48.369,4.6875,-10.5625
12:48:48.373,4.4375,-11.8125
12:48:48.381,3.75,-11.375
12:48:48.391,3.8125,-12.875
12:48:48.406,4.125,-14.0626
12:48:48.414,3.3125,-14.3751
12:48:48.421,4.4375,-15.1251
12:48:48.436,3.0625,-16.0001
12:48:48.445,2.8125,-16.0626
12:48:48.451,3.375,-16.3751
12:48:48.461,3.0625,-17.8126
12:48:48.471,3.125,-17.6876
12:48:48.492,2.4375,-18.0626
12:48:48.508,2.5625,-18.5626
12:48:48.510,2.5625,-19.2501
12:48:48.524,2.1875,-19.8751
12:48:48.541,1.375,-20.1876
12:48:48.542,1.9375,-21.9376
12:48:48.545,0.875,-21.3751
12:48:48.552,1.625,-23.0626
12:48:48.561,1,-24.2501
12:48:48.572,0.1875,-25.0626
12:48:48.581,-0.25,-26.0001
12:48:48.591,-0.5,-27.3126
12:48:48.601,-0.4375,-26.3126
12:48:48.611,-0.0625,-27.3751
12:48:48.622,0.5,-27.2501
12:48:48.631,1.3125,-23.0626
12:48:48.643,3.125,-18.2501
12:48:48.651,5.5,-11.1875
12:48:48.661,7.9375,-3.0625
12:48:48.672,10,4.875
12:48:48.682,12.8125,11.6875
12:48:48.691,13.5001,16.7501
12:48:48.700,14.4376,21.3126
12:48:48.711,16.3126,22.8751
12:48:48.721,15.9376,26.2501
12:48:48.731,16.5626,25.0626
12:48:48.741,16.1876,24.8126
12:48:48.751,16.1876,25.7501
12:48:48.761,15.5001,24.0001
12:48:48.771,15.3126,23.7501
12:48:48.781,14.9376,22.1251
12:48:48.791,14.6876,20.8751
12:48:48.801,15.3126,20.3751
12:48:48.811,14.4376,19.3126
12:48:48.821,13.2501,19.4376
12:48:48.831,14.0626,17.3126
12:48:48.841,13.6876,15.5626
12:48:48.851,13.1876,16.7501
12:48:48.861,12.625,15.6251
12:48:48.871,13.2501,14.1251
12:48:48.881,12.1875,12.75
12:48:48.891,11.875,12.6875
12:48:48.901,12.125,11.0625
12:48:48.910,11,9.25
12:48:48.921,10.5,10
12:48:48.961,11.5625,8.9375
12:48:48.964,10.8125,7.8125
12:48:48.966,10.3125,8.5
12:48:48.968,10.6875,7.25
12:48:48.972,10.25,7.5625
12:48:49.007,10.6875,7.4375
12:48:49.008,10.25,7
12:48:49.009,11,7.625
12:48:49.041,10.9375,9.0625
12:48:49.043,10.75,8.875
12:48:49.045,10.125,8.25
12:48:49.051,11.25,7.625
12:48:49.052,10.4375,7.5625
12:48:49.067,10.4375,7.125
12:48:49.071,10.25,5.9375
12:48:49.103,9.75,4.1875
12:48:49.104,9.125,3.625
12:48:49.106,8.5,4.5
12:48:49.112,8.4375,3.0625
12:48:49.121,8.75,1.1875
12:48:49.131,7.9375,-0.5625
12:48:49.142,7.25,-0.125
12:48:49.151,7.5625,-1.4375
12:48:49.161,7.75,-2.9375
12:48:49.171,7.6875,-4.1875
12:48:49.182,7.0625,-4.5625
12:48:49.192,6.6875,-5.4375
12:48:49.201,6.375,-6
12:48:49.211,6.125,-6.375
12:48:49.221,6,-8.5
12:48:49.234,5.5625,-8.5625
12:48:49.244,4.875,-8.1875
12:48:49.251,5.5625,-9.375
12:48:49.262,5.5625,-10.3125
12:48:49.271,5,-11.4375
12:48:49.281,4.1875,-12.4375
12:48:49.291,4.25,-12.5
12:48:49.301,4.5,-13.3751
12:48:49.311,3.9375,-12.875
12:48:49.321,3.1875,-13.4376
12:48:49.331,4,-14.6251
12:48:49.341,3.8125,-16.0001
12:48:49.350,3.1875,-15.5001
12:48:49.361,3.8125,-15.8751
12:48:49.371,3,-17.6876
12:48:49.380,2.5,-18.3751
12:48:49.391,2,-18.0001
12:48:49.401,2.25,-19.1876
12:48:49.410,1.5625,-20.0626
12:48:49.421,1.1875,-20.3126
12:48:49.431,1.5,-21.3126
12:48:49.440,1.1875,-23.0626
12:48:49.451,0.9375,-21.0001
12:48:49.461,1.875,-17.5626
12:48:49.470,3.125,-15.4376
12:48:49.481,5.25,-9.3125
12:48:49.491,6.8125,-2.625
12:48:49.501,9.6875,4.9375
12:48:49.511,11.625,10.4375
12:48:49.522,12.375,14.7501
12:48:49.532,13.8126,19.6251
12:48:49.541,14.3126,21.6876
12:48:49.550,14.1251,22.8126
12:48:49.561,14.0001,24.3126
12:48:49.571,14.2501,22.8751
12:48:49.580,13.9376,22.0626
12:48:49.590,13.5001,22.8126
12:48:49.601,13.4376,21.2501
12:48:49.612,12.4375,20.5626
12:48:49.641,11.8125,19.1251
12:48:49.643,12.0625,17.6876
12:48:49.647,12.1875,16.3751
12:48:49.651,11.5,16.1251
12:48:49.681,11.25,14.8751
12:48:49.683,10.9375,13.1251
12:48:49.685,10.625,11.875
12:48:49.691,9.875,12.25
12:48:49.735,10.3125,10.5
12:48:49.737,9.6875,9.5
12:48:49.751,8.9375,8.1875
12:48:49.754,8.6875,8
12:48:49.817,8.9375,6.375
12:48:49.817,8.5,5.75
12:48:49.829,8.0625,4.4375
12:48:49.831,7.4375,5
12:48:49.847,7,5.4375
12:48:49.848,7.625,4.5625
12:48:49.848,7.875,4.0625
12:48:49.861,8.3125,5.5
12:48:49.868,8.125,6.25
12:48:49.868,9.25,6.625
12:48:49.873,8.4375,5.625
12:48:49.880,8.125,6.0625
12:48:49.891,8.6875,5.625
12:48:49.901,7.9375,4.625
12:48:49.910,8.4375,4.0625
12:48:49.920,8.0625,3.6875
12:48:49.931,7.4375,2.8125
12:48:49.941,7.3125,1.6875
12:48:49.951,6.625,0.75
12:48:49.960,6.5625,0.25
12:48:49.970,6.375,-0.6875
12:48:49.986,5.375,-1.1875
12:48:49.991,5.625,-3.875
12:48:50.001,5.25,-7.25
12:48:50.011,4.8125,-7.3125
12:48:50.021,4.3125,-8.375
12:48:50.031,5.3125,-9.125
12:48:50.040,3.75,-11.125
12:48:50.051,3.6875,-9.6875
12:48:50.061,4.0625,-10.75
12:48:50.070,3.5625,-12.3125
12:48:50.081,3.4375,-13.2501
12:48:50.091,2.9375,-15.2501
12:48:50.100,2.375,-14.3126
12:48:50.111,1.875,-14.3751
12:48:50.120,2.5625,-16.0001
12:48:50.131,1.9375,-17.6251
12:48:50.142,2,-17.0626
12:48:50.150,1.5,-18.5626
12:48:50.161,1.1875,-18.1251
12:48:50.170,1.75,-18.9376
12:48:50.180,1.375,-18.9376
12:48:50.191,0.9375,-19.7501
12:48:50.199,0.8125,-20.9376
12:48:50.211,0.75,-21.9376
12:48:50.219,0.1875,-21.9376
12:48:50.231,0.375,-23.0001
12:48:50.241,-0.875,-23.5626
12:48:50.249,-0.9375,-23.5001
12:48:50.261,-0.4375,-25.6876
12:48:50.270,-1.1875,-25.1251
12:48:50.281,-0.0625,-25.4376
12:48:50.290,0,-23.6876
12:48:50.300,1.6875,-19.0626
12:48:50.310,3.375,-13.6251
12:48:50.320,5.5625,-4.5625
12:48:50.331,9.1875,2.4375
12:48:50.343,10.1875,10.125
12:48:50.373,12.5,15.6876
12:48:50.375,13.4376,19.6251
12:48:50.380,14.1251,24.6876
12:48:50.381,15.1251,24.9376
12:48:50.415,14.5001,27.8126
12:48:50.417,15.0001,26.8751
12:48:50.420,15.3751,25.4376
12:48:50.422,14.8126,26.1251
12:48:50.450,14.4376,24.5626
12:48:50.453,14.4376,24.6251
12:48:50.455,13.6876,22.5626
12:48:50.463,13.2501,22.5626
12:48:50.470,12.8125,21.0001
12:48:50.505,12.375,19.3751
12:48:50.506,11.4375,18.9376
12:48:50.509,11.1875,18.0626
12:48:50.517,12.1875,16.8751
12:48:50.531,10.5,14.9376
12:48:50.536,10.125,13.9376
12:48:50.545,9.4375,14.1876
12:48:50.555,8.9375,13
12:48:50.566,9.5,11.8125
12:48:50.575,9.0625,10.0625
12:48:50.585,8.1875,9.125
12:48:50.595,7.875,10.4375
12:48:50.605,8.25,8.5625
12:48:50.616,8.125,7.625
12:48:50.626,7.5625,8.0625
12:48:50.635,8.1875,7.5
12:48:50.645,7.5,7.0625
12:48:50.656,7.5625,8.5625
12:48:50.666,7.875,7.3125
12:48:50.675,7.5625,7.4375
12:48:50.685,7.6875,7.6875
12:48:50.695,8.25,8.375
12:48:50.704,7.8125,7.1875
12:48:50.715,7.25,6.9375
12:48:50.726,7.25,7.25
12:48:50.735,7,4.8125
12:48:50.745,6.375,4.3125
12:48:50.756,7.125,3.5
12:48:50.766,6.4375,2.625
12:48:50.775,5.5625,1.25
12:48:50.784,5.3125,0.5625
12:48:50.796,6.1875,-0.75
12:48:50.806,4.875,-1.8125
12:48:50.815,4.5,-2.6875
12:48:50.826,4.75,-2.6875
12:48:50.835,4.125,-4.625
12:48:50.846,3.9375,-4.5
12:48:50.856,4.4375,-6
12:48:50.865,4,-6.9375
12:48:50.876,3.75,-7.5625
12:48:50.885,3.25,-7.125
12:48:50.896,3.9375,-8.5
12:48:50.922,2.8125,-9.625
12:48:50.926,2.5,-9.1875
12:48:50.936,2.875,-10.875
12:48:50.938,1.875,-12.1875
12:48:50.946,2.1875,-12.8125
12:48:50.955,1.75,-11.5
12:48:50.966,2,-12.8125
12:48:50.975,1.9375,-13.9376
12:48:50.985,2.125,-13.4376
12:48:50.996,2.5625,-14.2501
12:48:51.005,1.0625,-15.4376
12:48:51.015,0.875,-15.2501
12:48:51.026,1.25,-15.8751
12:48:51.035,0.5,-15.8751
12:48:51.045,0.75,-16.6251
12:48:51.063,0.875,-17.8126
12:48:51.070,0.375,-17.0626
12:48:51.079,-0.3125,-17.8751
12:48:51.086,-0.25,-19.0001
12:48:51.101,-0.125,-21.0001
12:48:51.118,-0.25,-19.6876
12:48:51.120,-0.4375,-21.8126
12:48:51.135,-0.4375,-21.6876
12:48:51.137,0.5625,-20.2501
12:48:51.222,0.625,-17.3126
12:48:51.223,2.0625,-11.6875
12:48:51.225,4.1875,-6.75
12:48:51.226,6.5625,-0.6875
12:48:51.226,8.6875,7.8125
12:48:51.229,10.5,13.1876
12:48:51.231,11.125,17.7501
12:48:51.259,12.1875,21.5001
12:48:51.259,13.5001,23.1876
12:48:51.260,12.9375,23.3126
12:48:51.263,13.1251,25.0001
12:48:51.269,12.9375,23.9376
12:48:51.271,13.3751,23.5001
12:48:51.301,13.4376,23.2501
12:48:51.304,12.125,22.1876
12:48:51.306,11.8125,22.4376
12:48:51.312,11.9375,20.1876
12:48:51.330,11.125,18.2501
12:48:51.332,11.25,18.6876
12:48:51.340,10.75,17.2501
12:48:51.350,10.3125,15.5626
12:48:51.361,10.25,16.6251
12:48:51.371,10.0625,15.2501
12:48:51.380,10.125,15.1876
12:48:51.390,10.25,13.6876
12:48:51.401,9.5625,12.25
12:48:51.409,9.3125,12.0625
12:48:51.420,8.875,11.625
12:48:51.429,8.875,10.375
12:48:51.440,8,7.875
12:48:51.450,8.125,9
12:48:51.461,8.8125,8.5625
12:48:51.470,7.875,8.625
12:48:51.480,7.9375,8.8125
12:48:51.490,8.5625,7.625
12:48:51.501,8.1875,8.125
12:48:51.510,8.5,9.375
12:48:51.521,8.375,8.375
12:48:51.530,8.25,9.25
12:48:51.540,8.75,8.3125
12:48:51.549,8.125,7.9375
12:48:51.560,7.9375,8.625
12:48:51.570,8.3125,7.125
12:48:51.579,7.625,6.1875
12:48:51.590,7.25,6.6875
12:48:51.601,7.625,5.3125
12:48:51.610,7.6875,3.875
12:48:51.619,6.5625,3.5625
12:48:51.630,6.875,2.25
12:48:51.640,6,1.0625
12:48:51.650,6,0.8125
12:48:51.660,6.25,-0.25
12:48:51.669,4.8125,-2.25
12:48:51.681,4.75,-2.0625
12:48:51.690,5.125,-3.25
12:48:51.705,5.1875,-4.5625
12:48:51.712,4.9375,-4.6875
12:48:51.720,3.875,-4.4375
12:48:51.729,4.5625,-6.125
12:48:51.740,3.625,-7.8125
12:48:51.750,3,-7.125
12:48:51.760,4.125,-8.25
12:48:51.770,2.875,-9.625
12:48:51.780,3.3125,-9.3125
12:48:51.790,3.25,-10.0625
12:48:51.800,2.5625,-10.8125
12:48:51.810,2.6875,-10
12:48:51.823,3.125,-10.625
12:48:51.830,2.0625,-11.25
12:48:51.843,2.4375,-12.1875
12:48:51.877,2.5,-12.8125
12:48:51.878,2.125,-11.5625
12:48:51.881,1.75,-13.6251
12:48:51.883,1.5,-14.0626
12:48:51.890,1.6875,-14.0001
12:48:51.925,0.9375,-15.1876
12:48:51.926,1.75,-14.4376
12:48:51.928,1.625,-14.8126
12:48:51.932,2.25,-11.375
12:48:51.964,3.8125,-7.875
12:48:51.965,5.4375,-3.125
12:48:51.970,7.375,2.75
12:48:51.997,8.375,7.6875
12:48:51.998,10.4375,11.8125
12:48:52.000,10.8125,15.0001
12:48:52.005,10.4375,18.9376
12:48:52.012,11.8125,19.2501
12:48:52.023,11.625,19.0626
12:48:52.030,11.3125,19.8126
12:48:52.042,12.4375,20.1876
12:48:52.050,11.3125,18.8126
12:48:52.060,10.625,19.3126
12:48:52.070,10.875,17.1876
12:48:52.084,10.8125,15.1251
12:48:52.090,10.3125,14.4376
12:48:52.100,10.0625,13.8751
12:48:52.110,9.9375,13.5001
12:48:52.120,9.625,12.6875
12:48:52.130,10,11.625
12:48:52.140,9.125,10.125
12:48:52.151,8.6875,10.125
12:48:52.160,9.0625,9.25
12:48:52.170,8.4375,7.4375
12:48:52.202,7.75,7.5625
12:48:52.206,8.3125,6.5625
12:48:52.207,7.5625,4.9375
12:48:52.212,7.625,4
12:48:52.222,7.1875,5
12:48:52.230,8.8125,4.8125
12:48:52.240,7.5625,3.8125
12:48:52.250,7.1875,4.6875
12:48:52.260,7.5,4.9375
12:48:52.270,7.4375,4.6875
12:48:52.280,8.125,4.0625
12:48:52.290,8.25,5.75
12:48:52.300,8.1875,5.8125
12:48:52.310,8.1875,5.125
12:48:52.320,8.5,4.5625
12:48:52.330,7.9375,5.3125
12:48:52.340,9.125,4.75
12:48:52.349,7.6875,3.625
12:48:52.361,7.375,3.8125
12:48:52.370,7.0625,2.5
12:48:52.386,7.1875,0.125
12:48:52.392,7,1.1875
12:48:52.410,6.5625,-0.375
12:48:52.416,6.375,-0.5625
12:48:52.431,6.125,-1.1875
12:48:52.433,6.125,-2.25
12:48:52.440,5.875,-3.75
12:48:52.450,5.3125,-4.25
12:48:52.470,6.25,-4.6875
12:48:52.473,5.1875,-6.625
12:48:52.484,4.5,-7.25
12:48:52.491,5,-6.6875
12:48:52.505,5,-7.75
12:48:52.515,4.6875,-9.25
12:48:52.519,3.5625,-8.4375
12:48:52.530,4.75,-9.9375
12:48:52.542,4,-10.4375
12:48:52.550,3.6875,-10.75
12:48:52.560,3.75,-10.1875
12:48:52.570,4.1875,-10.5
12:48:52.597,4,-11.875
12:48:52.599,3.25,-12.125
12:48:52.601,3.3125,-11.25
12:48:52.616,3.4375,-13.3751
12:48:52.622,2.75,-13.9376
12:48:52.630,3.3125,-13.8126
12:48:52.662,3.3125,-15.0626
12:48:52.663,2.625,-16.3126
12:48:52.665,2.375,-15.6876
12:48:52.673,3.5625,-13.0625
12:48:52.697,5.0625,-11.3125
12:48:52.700,6.0625,-5.9375
12:48:52.704,7.375,0.625
12:48:52.742,10.375,6.125
12:48:52.744,11.3125,11.6875
12:48:52.747,13,15.6251
12:48:52.749,13.8751,18.8126
12:48:52.754,14.0626,22.8126
12:48:52.762,15.5626,24.2501
12:48:52.770,14.6251,24.0001
12:48:52.779,14.8751,25.6251
12:48:52.791,15.3126,24.0626
12:48:52.800,13.7501,25.0001
12:48:52.810,14.3751,23.4376
12:48:52.820,14.0001,21.6876
12:48:52.835,14.1876,21.2501
12:48:52.839,13.5626,20.2501
12:48:52.850,12.9375,18.7501
12:48:52.860,12.625,19.0001
12:48:52.871,12.8125,17.8126
12:48:52.880,12.5,15.8126
12:48:52.892,11.875,16.2501
12:48:52.900,11.5,16.3126
12:48:52.910,12.0625,14.3751
12:48:52.921,11.125,13.3126
12:48:52.930,11.4375,13.8751
12:48:52.940,11.0625,12.1875
12:48:52.950,10.6875,11.125
12:48:52.960,10,11.125
12:48:52.970,10.75,10.125
12:48:52.980,10.125,8.5625
12:48:52.990,10.1875,10.375
12:48:52.999,10.625,10.5
12:48:53.010,10.75,9.4375
12:48:53.021,10.1875,11
12:48:53.030,10.5,10.3125
12:48:53.040,10.5625,9.6875
12:48:53.050,9.9375,10.1875
12:48:53.060,9.9375,9.625
12:48:53.070,10.5,10.625
12:48:53.080,10.5625,9.8125
12:48:53.090,10.5,9.625
12:48:53.099,9.875,9.25
12:48:53.110,9.6875,7.9375
12:48:53.120,9.4375,8.75
12:48:53.130,9.1875,6.5625
12:48:53.140,9.75,5.625
12:48:53.149,8.625,4.1875
12:48:53.160,8.4375,3
12:48:53.170,7.875,3
12:48:53.180,8.75,2.0625
12:48:53.190,7.75,0.625
12:48:53.200,6.8125,-1.125
12:48:53.214,6.75,-0.625
12:48:53.222,6.6875,-1.625
12:48:53.231,6.6875,-3.3125
12:48:53.240,6,-4.125
12:48:53.249,5.75,-3.625
12:48:53.260,6.4375,-4.1875
12:48:53.270,6.1875,-5.25
12:48:53.280,5.75,-5.8125
12:48:53.304,5.375,-6.3125
12:48:53.306,5.0625,-5.25
12:48:53.310,5.5625,-6.6875
12:48:53.344,6.0625,-7.125
12:48:53.345,5.5625,-8.125
12:48:53.348,4.8125,-7.5
12:48:53.352,4.9375,-8.1875
12:48:53.386,5.0625,-7.875
12:48:53.386,5.4375,-9.4375
12:48:53.387,5.0625,-8.9375
12:48:53.415,4.75,-9.3125
12:48:53.416,4.3125,-10.375
12:48:53.419,4.1875,-10.5
12:48:53.424,4.25,-10.9375
12:48:53.431,4.1875,-12.625
12:48:53.471,4.125,-11.5
12:48:53.473,5,-7.25
12:48:53.476,7.125,-4.3125
12:48:53.490,8.0625,0.4375
12:48:53.493,10,5.5
12:48:53.495,11,12
12:48:53.499,12.8125,16.0001
12:48:53.510,13.1876,19.6251
12:48:53.520,14.6251,22.6251
12:48:53.530,15.0001,23.6251
12:48:53.540,14.6251,24.5626
12:48:53.550,14.5626,25.6251
12:48:53.560,15.1876,25.5001
12:48:53.570,15.0626,24.8751
12:48:53.583,14.8751,23.5626
12:48:53.594,14.5626,24.1876
12:48:53.600,14.0626,22.3751
12:48:53.610,13.5626,21.6876
12:48:53.620,13.3126,21.2501
12:48:53.631,13.9376,19.7501
12:48:53.640,12.9375,18.9376
12:48:53.650,12.8125,18.8126
12:48:53.662,12.0625,19.6251
12:48:53.670,12.4375,18.2501
12:48:53.680,12.4375,16.5626
12:48:53.700,12.0625,16.5001
12:48:53.706,11.3125,16.6251
12:48:53.722,12.25,15.4376
12:48:53.725,11.0625,13.3126
12:48:53.740,11.125,12.9375
12:48:53.755,11.75,13.1876
12:48:53.757,10.1875,11.3125
12:48:53.759,9.9375,11.375
12:48:53.771,10.3125,11.9375
12:48:53.787,10.8125,11.3125
12:48:53.790,10.5625,10.8125
12:48:53.807,10.25,12.9375
12:48:53.820,10.3125,12.125
12:48:53.822,10.9375,11.8125
12:48:53.832,10.75,11.375
12:48:53.839,11.25,11.5
12:48:53.850,10.0625,11.1875
12:48:53.861,10.0625,10.75
12:48:53.870,10.25,9.875
12:48:53.880,10.1875,8.625
12:48:53.890,9.9375,9.5625
12:48:53.900,9.3125,10.0625
12:48:53.910,9.4375,8.125
12:48:53.920,9.6875,6.375
12:48:53.930,9.375,6.3125
12:48:53.940,8.5,6.8125
12:48:53.950,8.4375,5.1875
12:48:53.963,8.5,3.875
12:48:53.970,8.5,2.5625
12:48:53.980,8.1875,1.5625
12:48:53.990,7.6875,1.375
12:48:54.000,7.1875,2
12:48:54.012,7.875,1.3125
12:48:54.045,8.125,-0.25
12:48:54.047,6.9375,-1.625
12:48:54.050,6.4375,-2.5625
12:48:54.052,6,-1.9375
12:48:54.084,6.8125,-2.875
12:48:54.085,6.5625,-3.75
12:48:54.088,5.875,-4.8125
12:48:54.091,6.125,-4
12:48:54.127,5.625,-3.0625
12:48:54.127,5.8125,-3.375
12:48:54.129,6.4375,-4.5625
12:48:54.137,6.3125,-5.625
12:48:54.142,5.75,-6.8125
12:48:54.173,4.6875,-6.9375
12:48:54.176,5.125,-6.4375
12:48:54.177,5.4375,-6.5625
12:48:54.180,5.6875,-8.0625
12:48:54.195,4.4375,-8.125
12:48:54.200,4.5625,-7.875
12:48:54.210,4.25,-8.8125
12:48:54.220,4.5625,-10.25
12:48:54.231,4.25,-10.6875
12:48:54.241,3.75,-9.875
12:48:54.250,4.0625,-10.1875
12:48:54.260,4.4375,-8.75
12:48:54.269,5.8125,-5.1875
12:48:54.279,7.8125,-2.5
12:48:54.290,8.875,2.9375
12:48:54.299,9.5625,10.0625
12:48:54.310,11.75,13
12:48:54.320,12.1875,16.4376
12:48:54.338,14.0001,20.5626
12:48:54.340,15.0001,22.6876
12:48:54.352,15.0626,23.7501
12:48:54.360,15.3751,24.0626
12:48:54.370,15.0626,26.0001
12:48:54.380,15.7501,26.0626
12:48:54.390,16.8126,26.3751
12:48:54.400,17.1876,26.0626
12:48:54.409,17.2501,26.4376
12:48:54.424,17.8751,27.6251
12:48:54.435,18.1876,25.6876
12:48:54.445,19.0001,26.3751
12:48:54.455,19.7501,28.7501
12:48:54.465,19.8126,26.6876
12:48:54.475,20.1876,26.7501
12:48:54.486,19.7501,26.3126
12:48:54.495,18.8751,25.6251
12:48:54.505,19.3126,23.6251
12:48:54.514,17.6251,21.1251
12:48:54.530,16.3126,19.9376
12:48:54.540,15.9376,19.2501
12:48:54.551,13.6876,15.6251
12:48:54.560,9.125,11.3125
12:48:54.570,3.6875,4.6875
12:48:54.579,0,0.5
12:48:54.589,0.8125,-0.9375
12:48:54.600,3.0625,1.5
12:48:54.611,3.375,3.3125
12:48:54.620,3.625,4.9375
12:48:54.630,5.0625,5.125
12:48:54.640,5.4375,4.875
12:48:54.651,5.25,4.5
12:48:54.660,5.0625,4.125
12:48:54.670,5.25,4.3125
12:48:54.680,5.8125,4.6875
12:48:54.690,6.125,5
12:48:54.700,7,4.875
12:48:54.710,6.8125,3.9375
12:48:54.722,6.25,4.5
12:48:54.731,6.3125,3.9375
12:48:54.761,5.8125,2.5625
12:48:54.762,5.625,0.5625
12:48:54.765,5.375,-0.375
12:48:54.772,4.6875,-2.375
12:48:54.780,4.125,-2
12:48:54.790,3.5625,-3.4375
12:48:54.802,3.125,-5.5
12:48:54.817,3.1875,-7
12:48:54.820,2.5625,-8.75
12:48:54.853,1.5,-10.375
12:48:54.855,1.625,-9.75
12:48:54.856,2.4375,-10.8125
12:48:54.861,1.75,-12.8125
12:48:54.895,1.5625,-12.25
12:48:54.897,2.5,-12.75
12:48:54.899,2.875,-13.2501
12:48:54.904,2.375,-13.4376
12:48:54.935,2.125,-14.6251
12:48:54.936,2.5,-14.7501
12:48:54.937,2.9375,-15.8751
12:48:54.941,2.3125,-15.6876
12:48:54.974,1.875,-15.4376
12:48:54.976,2.5,-16.7501
12:48:54.979,2.4375,-18.2501
12:48:54.981,2.625,-19.1251
12:48:54.994,2.75,-19.8126
12:48:55.000,1.8125,-21.1876
12:48:55.010,2.1875,-21.4376
12:48:55.024,1.8125,-24.6251
12:48:55.032,1.25,-25.6876
12:48:55.040,1.0625,-26.6876
12:48:55.055,0.25,-28.6876
12:48:55.064,0.375,-29.1251
12:48:55.071,1.25,-25.5626
12:48:55.085,3.6875,-20.6876
12:48:55.090,5.6875,-13.5001
12:48:55.104,8.5,-2.9375
12:48:55.121,12.375,5.75
12:48:55.123,15.7501,13.1876
12:48:55.139,17.5001,19.6876
12:48:55.141,19.6876,26.1876
12:48:55.156,23.3126,31.7501
12:48:55.160,26.0626,35.8126
12:48:55.170,28.7501,42.8752
12:48:55.180,33.0001,46.5627
12:48:55.189,34.8126,49.3127
12:48:55.199,33.0626,48.6877
12:48:55.212,30.1876,44.9377
12:48:55.220,27.7501,39.8752
12:48:55.230,24.5626,35.1876
12:48:55.241,22.6251,32.0626
12:48:55.250,22.0001,30.6251
12:48:55.260,20.4376,26.8126
12:48:55.270,17.0626,21.2501
12:48:55.280,15.0626,18.5001
12:48:55.291,13,15.1876
12:48:55.300,11.3125,12.625
12:48:55.310,10.25,9.4375
12:48:55.319,9.0625,6.625
12:48:55.330,8.625,3.625
12:48:55.340,8.5,3.4375
12:48:55.350,7.8125,1.8125
12:48:55.360,7.25,-0.4375
12:48:55.371,6.625,-1.25
12:48:55.380,6.375,-0.625
12:48:55.390,6.625,-0.5
12:48:55.401,6.1875,-0.3125
12:48:55.411,5.4375,0.375
12:48:55.420,6.5,-0.5
12:48:55.430,5.6875,-1.375
12:48:55.440,5.75,-0.125
12:48:55.450,6.375,-0.25
12:48:55.465,6.4375,-0.5625
12:48:55.470,5.375,-1.8125
12:48:55.480,5.4375,-1.6875
12:48:55.510,5.3125,-0.875
12:48:55.512,6.125,-1.3125
12:48:55.515,5.8125,-2.75
12:48:55.520,5.6875,-2.625
12:48:55.550,5.4375,-2.625
12:48:55.553,5.9375,-4.375
12:48:55.555,5.25,-4.9375
12:48:55.561,5,-5.125
12:48:55.590,4.75,-6
12:48:55.593,4.5,-6.375
12:48:55.595,4.0625,-5.6875
12:48:55.602,3.5625,-7.6875
12:48:55.610,3.25,-8.875
12:48:55.636,3.375,-9.3125
12:48:55.639,3.0625,-10
12:48:55.641,4.25,-9.5625
12:48:55.666,3.1875,-10
12:48:55.668,4.1875,-9.0625
12:48:55.672,3.875,-10.625
12:48:55.680,3.5,-10.125
12:48:55.690,4.125,-10.6875
12:48:55.700,3.5,-10.625
12:48:55.711,1.5625,-12.4375
12:48:55.720,0.875,-13.5001
12:48:55.730,1.25,-15.1251
12:48:55.740,1.0625,-13.1876
12:48:55.750,1.9375,-13.2501
12:48:55.765,1.0625,-14.5001
12:48:55.776,0.5625,-13.4376
12:48:55.785,0.4375,-15.8751
12:48:55.795,0.3125,-15.6876
12:48:55.804,0.4375,-15.1251
12:48:55.815,0.4375,-15.6876
12:48:55.825,0.875,-15.5626
12:48:55.840,2.1875,-14.1876
12:48:55.846,2.25,-14.5001
12:48:55.855,2.5625,-13.9376
12:48:55.866,3.25,-12.8125
12:48:55.875,3.3125,-14.3126
12:48:55.885,3.0625,-13.7501
12:48:55.895,4.1875,-13
12:48:55.905,3.4375,-11.6875
12:48:55.914,4.375,-8
12:48:55.924,7.5625,-2.125
12:48:55.935,9.5,6.875
12:48:55.945,12.125,12.625
12:48:55.955,13.7501,17.0001
12:48:55.965,14.3751,22.1876
12:48:55.975,16.3126,25.1251
12:48:55.985,15.6876,26.8126
12:48:55.995,17.1251,29.1251
12:48:56.006,16.9376,29.7501
12:48:56.015,16.4376,30.5001
12:48:56.041,17.0001,29.3751
12:48:56.043,16.2501,27.4376
12:48:56.045,16.5001,27.9376
12:48:56.056,16.5626,27.2501
12:48:56.065,16.3126,26.9376
12:48:56.076,17.1251,26.0001
12:48:56.085,16.2501,24.9376
12:48:56.095,15.8126,24.1876
12:48:56.106,16.3126,24.8751
12:48:56.115,16.5001,23.7501
12:48:56.125,16.3751,23.0626
12:48:56.135,15.8751,23.6251
12:48:56.145,16.3126,22.9376
12:48:56.155,16.0001,21.6251
12:48:56.165,15.8126,20.6251
12:48:56.176,16.4376,19.5001
12:48:56.185,15.4376,18.1876
12:48:56.195,15.2501,18.1876
12:48:56.205,15.1876,18.1876
12:48:56.241,15.8126,16.6876
12:48:56.244,15.9376,16.0626
12:48:56.245,15.7501,17.3126
12:48:56.247,15.8751,17.1876
12:48:56.278,16.1251,16.3751
12:48:56.280,15.8126,17.0626
12:48:56.282,16.2501,16.2501
12:48:56.285,15.8751,15.6251
12:48:56.315,15.2501,16.1251
12:48:56.319,15.4376,15.8751
12:48:56.323,15.3126,14.4376
12:48:56.325,15.1876,14.6251
12:48:56.356,15.4376,13.4376
12:48:56.385,14.8126,12.5
12:48:56.416,13.9376,12.6875
12:48:56.418,14.1251,10.5625
12:48:56.432,13.6876,8.5625
12:48:56.447,12.75,7.5625
12:48:56.449,12.4375,7.75
12:48:56.449,12.5,5.5
12:48:56.450,12.3125,3.0625
12:48:56.465,11.4375,1.5625
12:48:56.480,10.5625,0.875
12:48:56.482,10.3125,-1.1875
12:48:56.485,9.125,-5.3125
12:48:56.497,7.9375,-6.4375
12:48:56.505,7,-7.5625
12:48:56.515,7.6875,-10.25
12:48:56.524,6.0625,-10
12:48:56.535,7.1875,-10.6875
12:48:56.544,6.8125,-12.4375
12:48:56.554,5.875,-14.0626
12:48:56.564,5.3125,-13.7501
12:48:56.575,4.8125,-14.6251
12:48:56.585,5.1875,-15.1251
12:48:56.595,4.5,-16.1251
12:48:56.604,1.0625,-21.5626
12:48:56.617,0.4375,-22.0626
12:48:56.626,-0.375,-23.7501
12:48:56.635,-0.625,-25.0626
12:48:56.644,-1.75,-25.8751
12:48:56.656,-1.5,-24.6876
12:48:56.665,-1.8125,-26.6251
12:48:56.675,-1.5625,-25.4376
12:48:56.684,-2.625,-27.2501
12:48:56.694,-3.0625,-27.6251
12:48:56.705,-2.8125,-28.1876
12:48:56.718,-3.375,-28.1876
12:48:56.723,-2.625,-28.6251
12:48:56.736,-3.5625,-28.0001
12:48:56.746,-2.625,-25.2501
12:48:56.755,-1.9375,-26.0001
12:48:56.764,-3.4375,-27.6876
12:48:56.774,-5.3125,-29.9376
12:48:56.785,-6.0625,-32.1251
12:48:56.794,-5.6875,-29.0001
12:48:56.803,-3.1875,-21.6251
12:48:56.815,0.25,-15.0001
12:48:56.825,2.9375,-7.0625
12:48:56.834,5.3125,1.375
12:48:56.845,7,7.4375
12:48:56.856,8.875,13.7501
12:48:56.864,10.5,17.6251
12:48:56.875,11.3125,21.5001
12:48:56.885,13.0625,24.0626
12:48:56.895,12.9375,26.1251
12:48:56.905,14.5626,27.5626
12:48:56.915,15.0001,28.8751
12:48:56.928,15.8751,29.0001
12:48:56.936,15.6876,29.3751
12:48:56.945,16.6251,28.8751
12:48:56.957,16.3126,29.0626
12:48:56.965,17.1876,28.3751
12:48:56.990,16.3751,27.3751
12:48:56.994,16.0001,27.5626
12:48:56.995,16.3751,26.2501
12:48:57.027,16.1876,24.8751
12:48:57.030,15.4376,25.7501
12:48:57.032,15.9376,24.1251
12:48:57.035,14.3126,21.8126
12:48:57.073,13.4376,22.0001
12:48:57.075,13.3751,19.0626
12:48:57.077,13.6251,17.3126
12:48:57.084,12.875,15.4376
12:48:57.084,12.1875,14.3126
12:48:57.120,12.4375,15.1876
12:48:57.122,12.5,13.5001
12:48:57.125,12.5,13.8126
12:48:57.129,12.4375,14.3751
12:48:57.135,12.625,13.5626
12:48:57.150,13,13.1876
12:48:57.154,13,13.6876
12:48:57.164,14.3751,14.5001
12:48:57.175,14.3751,13.8126
12:48:57.183,13.9376,14.7501
12:48:57.193,14.1876,14.6876
12:48:57.205,14.2501,12.9375
12:48:57.215,14.4376,12.9375
12:48:57.224,13.5626,11.75
12:48:57.235,13.6251,10.0625
12:48:57.244,13.3751,8.4375
12:48:57.253,12.1875,7.3125
12:48:57.264,12.5,6.4375
12:48:57.275,13.3126,5.75
12:48:57.285,12.5625,3.625
12:48:57.295,11.5,3.0625
12:48:57.322,10.9375,1.875
12:48:57.324,11.1875,-0.1875
12:48:57.328,10.5,-2.9375
12:48:57.334,9.6875,-2.625
12:48:57.343,10.1875,-4
12:48:57.356,9.0625,-6.5
12:48:57.363,8.8125,-7.6875
12:48:57.374,8.4375,-9.125
12:48:57.385,7.5,-11.3125
12:48:57.395,6.8125,-11.9375
12:48:57.405,6.875,-13.5001
12:48:57.415,5.9375,-15.1876
12:48:57.424,5,-15.0626
12:48:57.435,5,-16.5001
12:48:57.443,4.25,-17.8126
12:48:57.454,4.1875,-17.8126
12:48:57.464,3.8125,-18.1876
12:48:57.477,4.375,-18.9376
12:48:57.483,3.1875,-20.7501
12:48:57.495,3.125,-19.9376
12:48:57.505,3.1875,-21.3751
12:48:57.514,2.25,-21.5001
12:48:57.529,2.25,-22.5626
12:48:57.533,1.0625,-23.1251
12:48:57.545,1,-21.7501
12:48:57.554,1.5,-23.6251
12:48:57.565,0.75,-24.8126
12:48:57.575,0.6875,-25.1876
12:48:57.585,0,-26.7501
12:48:57.594,-0.9375,-25.8751
12:48:57.605,-0.6875,-26.6876
12:48:57.614,-1.25,-27.8126
12:48:57.625,-1.9375,-27.0626
12:48:57.635,-1.375,-28.5001
12:48:57.666,-1.625,-28.7501
12:48:57.670,-0.5,-25.3751
12:48:57.699,1.1875,-21.5001
12:48:57.728,2.75,-13.8751
12:48:57.728,3.875,-5.75
12:48:57.730,4.3125,-1.3125
12:48:57.730,5,6
12:48:57.730,7.5,9.625
12:48:57.735,8.375,17.0626
12:48:57.761,9.875,19.2501
12:48:57.792,9.0625,21.5626
12:48:57.836,9.5,22.1876
12:48:57.837,9.375,22.3751
12:48:57.844,10.3125,22.8126
12:48:57.845,10.3125,23.5626
12:48:57.845,10.9375,23.5626
12:48:57.849,12,23.4376
12:48:57.858,13.6876,26.8126
12:48:57.870,14.0001,26.3751
12:48:57.878,15.3751,28.0001
12:48:57.892,16.6251,28.6251
12:48:57.904,17.7501,29.3126
12:48:57.912,17.0001,30.6876
12:48:57.918,17.9376,30.1876
12:48:57.931,16.9376,29.9376
12:48:57.942,17.6876,30.6251
12:48:57.950,17.9376,28.7501
12:48:57.960,17.8126,27.5001
12:48:57.969,16.5626,25.0001
12:48:57.980,15.9376,23.8751
12:48:57.993,15.1876,23.0626
12:48:57.999,15.1876,20.7501
12:48:58.008,13.9376,18.6251
12:48:58.019,13.8751,18.1876
12:48:58.028,13.7501,19.0001
12:48:58.038,14.5626,17.7501
12:48:58.048,14.1251,17.7501
12:48:58.064,13.9376,18.1251
12:48:58.072,14.7501,16.7501
12:48:58.079,14.2501,16.3126
12:48:58.090,13.8751,16.6876
12:48:58.099,14.0626,13.8751
12:48:58.108,13.8126,14.8126
12:48:58.118,14.1251,12.25
12:48:58.128,13.6251,10.75
12:48:58.139,13.4376,10
12:48:58.149,14.0626,9.875
12:48:58.159,14.3751,8.4375
12:48:58.169,14.2501,6.875
12:48:58.179,13.5626,5.625
12:48:58.189,13.2501,4.75
12:48:58.199,13.8751,3.0625
12:48:58.209,12.8125,2
12:48:58.221,13.9376,1.9375
12:48:58.229,14.0626,1
12:48:58.239,14.1251,1.625
12:48:58.249,14.8751,3.125
12:48:58.259,16.6876,2.8125
12:48:58.269,16.9376,3.1875
12:48:58.283,17.3751,3.9375
12:48:58.288,16.0626,0.9375
12:48:58.301,14.7501,-0.8125
12:48:58.310,13.125,-3.75
12:48:58.319,10.9375,-8.9375
12:48:58.329,8.125,-12.25
12:48:58.339,6.6875,-16.2501
12:48:58.349,4.9375,-20.1876
12:48:58.358,3.4375,-22.1251
12:48:58.369,3.0625,-24.8126
12:48:58.379,0.9375,-28.5626
12:48:58.389,-1,-30.4376
12:48:58.399,-1.375,-33.0626
12:48:58.410,-2.6875,-35.1251
12:48:58.419,-3.1875,-37.0001
12:48:58.430,-4,-38.1251
12:48:58.440,-4.1875,-40.1877
12:48:58.450,-4.8125,-41.7502
12:48:58.466,-4.5,-41.3127
12:48:58.471,-5.3125,-42.8127
12:48:58.480,-6.1875,-43.6877
12:48:58.512,-6.5,-44.2502
12:48:58.514,-6.875,-45.5627
12:48:58.516,-7.375,-45.2502
12:48:58.545,-7.1875,-45.3127
12:48:58.546,-6.625,-44.6877
12:48:58.550,-5.875,-40.4377
12:48:58.552,-3.1875,-34.0626
12:48:58.561,-0.25,-24.3126
12:48:58.572,3.0625,-12.0625
12:48:58.603,7.1875,-0.5625
12:48:58.605,9.25,10.0625
12:48:58.607,12.4375,18.1251
12:48:58.614,13.7501,24.7501
12:48:58.623,15.1876,28.6251
12:48:58.637,15.8751,30.9376
12:48:58.643,16.3751,33.4376
12:48:58.659,17.0626,34.3126
12:48:58.664,17.6251,36.3126
12:48:58.675,17.8751,34.4376
12:48:58.684,14.5001,32.3126
12:48:58.696,12.875,27.9376
12:48:58.707,11.6875,24.6876
12:48:58.713,11.25,24.6251
12:48:58.724,12.75,23.9376
12:48:58.733,11.3125,24.8126
12:48:58.744,11.4375,23.1251
12:48:58.753,11.5625,22.0001
12:48:58.763,11.0625,21.3751
12:48:58.773,11.625,21.6876
12:48:58.783,11.4375,21.1251
12:48:58.793,11.0625,21.9376
12:48:58.804,11.5,20.5001
12:48:58.813,11.5625,19.7501
12:48:58.823,12.75,21.1251
12:48:58.833,13.7501,21.5001
12:48:58.844,13.9376,21.6251
12:48:58.853,13.9376,22.8751
12:48:58.863,14.6876,23.1876
12:48:58.873,15.5001,23.6876
12:48:58.883,15.9376,23.1251
12:48:58.894,15.4376,24.4376
12:48:58.903,16.3751,25.3751
12:48:58.914,16.6876,26.1251
12:48:58.923,17.6251,25.8751
12:48:58.934,17.1876,25.5001
12:48:58.943,16.8126,26.3751
12:48:58.954,17.8126,25.0626
12:48:58.964,16.5001,24.1251
12:48:58.974,15.8126,23.1876
12:48:58.984,15.1876,21.7501
12:48:58.995,14.8126,18.8751
12:48:59.004,12.9375,16.6251
12:48:59.014,12.125,15.6876
12:48:59.029,11.9375,12.5625
12:48:59.044,10.9375,10.9375
12:48:59.047,9.75,10.125
12:48:59.056,10.125,8.625
12:48:59.063,9.625,6.1875
12:48:59.078,9,5.1875
12:48:59.086,9.125,4.875
12:48:59.094,9.4375,2.9375
12:48:59.110,9,1.75
12:48:59.119,9.0625,1.5625
12:48:59.123,9.4375,1.625
12:48:59.142,10.3125,0.625
12:48:59.144,9.375,-0.0625
12:48:59.181,9.875,0.1875
12:48:59.184,10.625,-0.375
12:48:59.186,9.75,-2.3125
12:48:59.188,9.8125,-2.125
12:48:59.194,9.6875,-2.3125
12:48:59.231,10.3125,-3.1875
12:48:59.233,11.25,-4.3125
12:48:59.235,10.9375,-5.3125
12:48:59.238,11.3125,-6.25
12:48:59.245,11.3125,-5.8125
12:48:59.276,12.6875,-5
12:48:59.279,14.3126,-1.8125
12:48:59.281,15.7501,0.6875
12:48:59.283,17.5001,2
12:48:59.322,18.7501,2.25
12:48:59.323,17.2501,1.5625
12:48:59.325,16.0626,-0.5
12:48:59.344,13.1251,-5.75
12:48:59.345,10.625,-10.5
12:48:59.347,9.125,-12.875
12:48:59.353,7.625,-17.9376
12:48:59.363,4.375,-22.3126
12:48:59.374,3.125,-25.8126
12:48:59.383,0.5625,-29.9376
12:48:59.394,-0.9375,-28.5001
12:48:59.404,0.8125,-23.9376
12:48:59.416,3,-16.4376
12:48:59.424,5.25,-7
12:48:59.433,7.6875,1.4375
12:48:59.443,10,8.125
12:48:59.453,11,12.3125
12:48:59.464,12.5625,18.0001
12:48:59.473,12.5,20.7501
12:48:59.484,13,21.2501
12:48:59.494,12.5625,20.5626
12:48:59.504,12.625,20.4376
12:48:59.514,12.75,20.9376
12:48:59.524,12.0625,19.6251
12:48:59.534,12.25,18.4376
12:48:59.544,11.6875,17.6251
12:48:59.553,12.0625,18.1876
12:48:59.563,11.875,17.5626
12:48:59.574,11.125,17.6251
12:48:59.584,11.3125,15.5626
12:48:59.594,10.625,14.3126
12:48:59.604,11,15.0626
12:48:59.614,11.0625,14.3751
12:48:59.623,10.5,13.4376
12:48:59.634,9.8125,13.9376
12:48:59.643,9.875,12.5625
12:48:59.653,10.6875,11
12:48:59.669,9.875,11.5
12:48:59.679,9.875,11.0625
12:48:59.691,9.8125,10.0625
12:48:59.700,7.1875,7.375
12:48:59.709,6.1875,5.375
12:48:59.718,4.625,3
12:48:59.729,4.875,2.75
12:48:59.738,5.3125,4.8125
12:48:59.748,5.8125,4.6875
12:48:59.759,6.75,4.9375
12:48:59.769,7,6.375
12:48:59.779,6.625,5.625
12:48:59.791,7.125,4.9375
12:48:59.798,6.5625,4.8125
12:48:59.809,7.0625,5.375
12:48:59.818,7.25,6.875
12:48:59.829,7.5625,5
12:48:59.839,7.375,4.5625
12:48:59.849,7.6875,5.375
12:48:59.880,8.25,4.8125
12:48:59.884,8.625,4.3125
12:48:59.885,8.6875,4.125
12:48:59.890,8.0625,5.1875
12:48:59.900,10,4.9375
12:48:59.920,9.5625,4.375
12:48:59.923,9.375,5.1875
12:48:59.950,10.0625,5.9375
12:48:59.953,10.4375,5.125
12:48:59.955,10.25,4.5625
12:48:59.960,10,3.75
12:48:59.988,10,4.3125
12:48:59.992,10.25,3
12:48:59.994,9.25,1.8125
12:49:00.032,8.8125,1.5625
12:49:00.034,9.0625,1.25
12:49:00.036,8.6875,-1
12:49:00.044,7.5,-2.0625
12:49:00.047,7.1875,-3.25
12:49:00.048,6.4375,-4.1875
12:49:00.078,6.125,-4.375
12:49:00.078,6.25,-6.8125
12:49:00.082,5.3125,-8.125
12:49:00.089,4.5,-8.6875
12:49:00.099,4.875,-9.9375
12:49:00.112,4.8125,-10.9375
12:49:00.118,4.75,-12.9375
12:49:00.129,4.125,-12.0625
12:49:00.138,4,-12.75
12:49:00.154,4.1875,-14.6876
12:49:00.160,3.6875,-14.9376
12:49:00.169,4.6875,-15.1876
12:49:00.180,4.9375,-17.1876
12:49:00.188,3.9375,-18.8751
12:49:00.198,3.5,-20.1876
12:49:00.209,3.5625,-20.3126
12:49:00.219,3.6875,-22.8126
12:49:00.228,3.1875,-23.1251
12:49:00.239,4.125,-23.1251
12:49:00.249,4.0625,-20.1251
12:49:00.260,6.25,-15.4376
12:49:00.268,8.375,-8.4375
12:49:00.278,10.375,1.375
12:49:00.289,12.75,7.3125
12:49:00.299,14.1251,13.2501
12:49:00.309,16.3751,20.1876
12:49:00.318,17.2501,22.0001
12:49:00.329,17.3126,25.1876
12:49:00.339,16.9376,26.6876
12:49:00.352,18.1251,26.3126
12:49:00.364,17.7501,26.6876
12:49:00.380,18.3126,26.7501
12:49:00.382,17.6876,24.7501
12:49:00.389,16.3126,23.3751
12:49:00.399,15.7501,22.5626
12:49:00.410,15.6251,19.9376
12:49:00.427,14.7501,19.7501
12:49:00.429,14.4376,16.8126
12:49:00.445,14.0001,15.1876
12:49:00.449,13.125,16.0626
12:49:00.458,14.1876,15.3751
12:49:00.469,13.1876,13.8751
12:49:00.480,12.5,12.5
12:49:00.488,12.5625,13.1251
12:49:00.498,12.125,11.625
12:49:00.509,11.6875,10.5625
12:49:00.519,11.5,9.625
12:49:00.531,11.1875,9.3125
12:49:00.538,10.25,8
12:49:00.548,11.125,7.875
12:49:00.558,10.75,7.1875
12:49:00.568,11.3125,6
12:49:00.579,10,6.875
12:49:00.590,9.75,6.9375
12:49:00.624,10.375,7.5625
12:49:00.626,10.6875,7.6875
12:49:00.627,10.8125,7.3125
12:49:00.630,10.875,8.25
12:49:00.663,10.5,8.4375
12:49:00.667,10.875,7.625
12:49:00.667,10.875,8.0625
12:49:00.668,10.375,8.375
12:49:00.700,10.875,7.3125
12:49:00.703,9.1875,5.5625
12:49:00.705,8.6875,4.9375
12:49:00.711,8.375,5.125
12:49:00.738,8.9375,3.4375
12:49:00.741,8.25,2.1875
12:49:00.743,6.3125,-0.5
12:49:00.768,4.375,-2.9375
12:49:00.770,3.625,-5.875
12:49:00.772,1.8125,-9.3125
12:49:00.779,0.8125,-10.5
12:49:00.789,0.8125,-10.4375
12:49:00.800,2.25,-9.8125
12:49:00.809,1.5,-10.8125
12:49:00.818,1.0625,-12.3125
12:49:00.829,0.5625,-11.25
12:49:00.839,0.1875,-13
12:49:00.849,-0.0625,-13.6876
12:49:00.860,-0.1875,-13
12:49:00.869,0.5625,-13.9376
12:49:00.879,0.6875,-14.9376
12:49:00.889,1.1875,-13.0625
12:49:00.904,0.875,-11.8125
12:49:00.909,1.1875,-12.875
12:49:00.921,1.8125,-12.9375
12:49:00.928,1.8125,-11.625
12:49:00.939,1.6875,-12.75
12:49:00.949,1.6875,-11.8125
12:49:00.959,2.1875,-12.125
12:49:00.969,1.9375,-11.5
12:49:00.981,2.1875,-11.125
12:49:00.989,2.4375,-10.5625
12:49:00.998,2.875,-10.4375
12:49:01.009,2.875,-10.75
12:49:01.019,3.1875,-10.5625
12:49:01.030,3.6875,-10
12:49:01.040,3.6875,-10.375
12:49:01.049,4.125,-9.375
12:49:01.058,4.1875,-9.875
12:49:01.069,3.625,-9.6875
12:49:01.079,3,-10.5625
12:49:01.089,2.125,-12.1875
12:49:01.100,1.125,-11.9375
12:49:01.108,1.5,-12.5625
12:49:01.119,1.875,-14.5626
12:49:01.129,1.0625,-14.2501
12:49:01.160,0.9375,-14.8751
12:49:01.164,1.0625,-16.1251
12:49:01.165,0.4375,-13.6876
12:49:01.170,2,-12.875
12:49:01.179,2.5625,-8.1875
12:49:01.189,3.875,-2
12:49:01.200,5.375,2.375
12:49:01.212,6.9375,9.0625
12:49:01.219,9.125,13.3751
12:49:01.228,9.25,13.6251
12:49:01.238,8.6875,18.0626
12:49:01.249,9.125,17.0001
12:49:01.260,9,17.4376
12:49:01.269,10.0625,19.3126
12:49:01.279,10.125,17.9376
12:49:01.288,9.375,18.4376
12:49:01.298,10.6875,17.9376
12:49:01.309,9.6875,16.3126
12:49:01.321,9.375,16.3126
12:49:01.328,9.25,14.0001
12:49:01.338,8.1875,13.3751
12:49:01.349,8.5,11.875
12:49:01.382,8.125,10.3125
12:49:01.385,8.5625,11.4375
12:49:01.388,7.875,10.625
12:49:01.388,7,9.25
12:49:01.420,6.8125,9.875
12:49:01.422,6.3125,7.75
12:49:01.425,6.0625,6.125
12:49:01.430,5.0625,4.875
12:49:01.457,4.4375,5
12:49:01.459,4,2.6875
12:49:01.463,4.625,2
12:49:01.494,3.8125,1.6875
12:49:01.497,3.125,0.625
12:49:01.499,2.1875,-1.375
12:49:01.505,1.75,-1.875
12:49:01.511,1.625,-1.125
12:49:01.538,1.4375,-1.75
12:49:01.542,1.6875,-2.375
12:49:01.543,0.875,-1.6875
12:49:01.550,0.75,-3.375
12:49:01.559,1.3125,-3.25
12:49:01.568,0.9375,-4.625
12:49:01.579,0.0625,-3.3125
12:49:01.590,-0.0625,-5
12:49:01.598,-0.4375,-6.375
12:49:01.609,-1.5,-7.6875
12:49:01.619,-2.125,-8.1875
12:49:01.629,-2.0625,-10.125
12:49:01.640,-3.0625,-12.3125
12:49:01.659,-3.4375,-12.375
12:49:01.665,-3.8125,-13.1876
12:49:01.680,-3.5,-15.3126
12:49:01.682,-4,-15.5626
12:49:01.689,-4.375,-17.5001
12:49:01.700,-5.5625,-16.9376
12:49:01.709,-4.875,-18.2501
12:49:01.725,-4.9375,-19.5626
12:49:01.740,-4.8125,-18.6876
12:49:01.742,-5.3125,-20.3751
12:49:01.750,-5.3125,-20.1876
12:49:01.759,-4.625,-20.5001
12:49:01.768,-5,-21.1251
12:49:01.779,-5.125,-20.8751
12:49:01.789,-5,-22.3126
12:49:01.799,-5.9375,-21.3751
12:49:01.809,-5.375,-23.0001
12:49:01.818,-5.0625,-23.9376
12:49:01.829,-6,-23.8126
12:49:01.841,-5.5,-24.3126
12:49:01.849,-6.125,-23.8126
12:49:01.858,-5,-24.3126
12:49:01.868,-4.6875,-24.8751
12:49:01.878,-4,-24.1251
12:49:01.888,-5.25,-25.1251
12:49:01.899,-5.875,-24.1251
12:49:01.908,-5.1875,-26.1251
12:49:01.918,-5.875,-26.2501
12:49:01.928,-5.5,-26.3126
12:49:01.939,-6.1875,-27.5626
12:49:01.951,-6.6875,-28.0001
12:49:01.959,-6.25,-28.1251
12:49:01.968,-6.875,-29.0001
12:49:01.979,-7.25,-30.2501
12:49:01.989,-8.4375,-30.8751
12:49:02.001,-7.75,-31.7501
12:49:02.009,-8.875,-32.2501
12:49:02.028,-8.5625,-33.4376
12:49:02.028,-8.875,-34.0001
12:49:02.061,-9.5,-35.3751
12:49:02.064,-9,-34.6876
12:49:02.066,-9.125,-35.5626
12:49:02.068,-9.3125,-36.8126
12:49:02.101,-10.4375,-37.8126
12:49:02.103,-10.25,-37.1251
12:49:02.105,-11.3125,-37.6251
12:49:02.133,-9.9375,-34.8751
12:49:02.133,-8.375,-28.8126
12:49:02.137,-6.9375,-21.6251
12:49:02.142,-4.125,-14.6251
12:49:02.150,-2.5,-7.4375
12:49:02.178,-1.1875,-2
12:49:02.180,-0.625,2
12:49:02.182,0.3125,4.25
12:49:02.190,-0.625,5.6875
12:49:02.206,0.125,7
12:49:02.208,0.125,7.5625
12:49:02.219,0.75,8.25
12:49:02.228,0.125,7.625
12:49:02.239,0.1875,6.8125
12:49:02.249,-0.4375,6.75
12:49:02.259,-0.125,6.25
12:49:02.268,-0.4375,4.875
12:49:02.279,-0.625,4.375
12:49:02.291,-1.25,3.625
12:49:02.299,-0.75,2.625
12:49:02.309,-1.3125,2.25
12:49:02.318,-1.25,0.8125
12:49:02.330,-1.75,0.9375
12:49:02.338,-1.125,0.9375
12:49:02.348,-1.8125,-0.25
12:49:02.358,-1.9375,-0.5625
12:49:02.368,-1.3125,-0.375
12:49:02.378,-1.6875,-1.4375
12:49:02.389,-2.0625,-1.5625
12:49:02.398,-2.3125,-2.0625
12:49:02.409,-1.75,-2.9375
12:49:02.442,-2.0625,-1.375
12:49:02.444,-1.75,-2.4375
12:49:02.446,-2.1875,-3.4375
12:49:02.452,-1.75,-2.125
12:49:02.459,-1.875,-2.8125
12:49:02.469,-1.9375,-1.6875
12:49:02.480,-1.1875,-1.75
12:49:02.488,-3,-2.5
12:49:02.499,-1.625,-1.9375
12:49:02.508,-2.125,-2.6875
12:49:02.519,-2.375,-1.3125
12:49:02.531,-2.5625,-2.8125
12:49:02.539,-2.9375,-3.125
12:49:02.548,-2.1875,-4.0625
12:49:02.559,-2.6875,-3.9375
12:49:02.569,-2.25,-5.0625
12:49:02.585,-2.8125,-6.4375
12:49:02.588,-3.8125,-6.6875
12:49:02.599,-3.3125,-7.375
12:49:02.608,-3.6875,-8.5
12:49:02.624,-3.5625,-10.125
12:49:02.634,-3.875,-11.4375
12:49:02.646,-4.5625,-12
12:49:02.654,-4.6875,-12.5625
12:49:02.663,-4.3125,-13.0625
12:49:02.674,-4.75,-14.6876
12:49:02.685,-5.1875,-15.5001
12:49:02.693,-5.625,-15.7501
12:49:02.704,-5.6875,-16.8751
12:49:02.714,-5.4375,-17.1876
12:49:02.724,-5.1875,-18.0001
12:49:02.736,-5.875,-18.2501
12:49:02.743,-5.75,-18.8126
12:49:02.753,-5.25,-18.8126
12:49:02.763,-6,-19.4376
12:49:02.775,-6.0625,-19.4376
12:49:02.783,-6.375,-20.4376
12:49:02.793,-6.5,-20.8751
12:49:02.804,-6.25,-21.2501
12:49:02.827,-6.875,-22.0001
12:49:02.830,-6.625,-21.8751
12:49:02.833,-6.9375,-22.1251
12:49:02.869,-6.8125,-22.2501
12:49:02.871,-6.9375,-22.9376
12:49:02.873,-6,-23.0001
12:49:02.878,-6.9375,-23.4376
12:49:02.915,-5.6875,-23.7501
12:49:02.917,-6.625,-23.7501
12:49:02.920,-6.0625,-24.4376
12:49:02.925,-5.3125,-24.1251
12:49:02.925,-6.125,-25.3126
12:49:02.987,-5.625,-25.9376
12:49:02.989,-6.375,-26.1876
12:49:02.992,-5.875,-26.1876
12:49:02.996,-6.5,-27.4376
12:49:02.999,-6.375,-26.6876
12:49:02.999,-5.875,-26.0001
12:49:03.005,-5.125,-24.0626
12:49:03.021,-3.625,-19.4376
12:49:03.025,-1.75,-13.4376
12:49:03.038,-0.3125,-6.125
12:49:03.043,1.75,-0.25
12:49:03.054,2.875,5
12:49:03.065,4.6875,10.0625
12:49:03.074,5.6875,12.4375
12:49:03.084,6.5625,15.3126
12:49:03.093,6.75,16.5626
12:49:03.104,6.3125,17.1876
12:49:03.114,7,17.2501
12:49:03.123,6.4375,16.8126
12:49:03.133,6.375,18.1876
12:49:03.144,6.25,16.8751
12:49:03.156,6.4375,15.3126
12:49:03.164,6.625,14.3126
12:49:03.172,5.625,14.3126
12:49:03.183,6.3125,12.1875
12:49:03.196,5.8125,11.4375
12:49:03.204,5.9375,12.1875
12:49:03.213,5.75,10.375
12:49:03.224,5.6875,10.75
12:49:03.234,5.6875,9.5625
12:49:03.243,5.25,8.5625
12:49:03.254,5.0625,9.6875
12:49:03.264,4.875,7.875
12:49:03.273,4.25,5.625
12:49:03.282,3.5,4.25
12:49:03.293,3.6875,3.6875
12:49:03.304,3.6875,3.0625
12:49:03.314,2.75,2.8125
12:49:03.324,3.0625,3.25
12:49:03.333,4,2.875
12:49:03.342,2.75,1.875
12:49:03.354,3.25,2.0625
12:49:03.366,3.625,3.5625
12:49:03.372,3.5625,2.3125
12:49:03.382,3.5,2.0625
12:49:03.394,3.375,3.0625
12:49:03.403,3.9375,3.875
12:49:03.414,4.0625,2.25
12:49:03.423,3.5625,2
12:49:03.434,4.3125,1.1875
12:49:03.443,3.1875,0.25
12:49:03.454,3.0625,0.0625
12:49:03.463,3.4375,-0.125
12:49:03.473,2.75,-2.3125
12:49:03.486,2.375,-1.8125
12:49:03.492,2.8125,-3.0625
12:49:03.502,2.9375,-4.9375
12:49:03.514,2.4375,-5.5
12:49:03.522,2.375,-5.1875
12:49:03.534,1.9375,-6.75
12:49:03.544,1.1875,-8.125
12:49:03.556,1.0625,-6.75
12:49:03.563,1.875,-8.0625
12:49:03.594,1.375,-9.625
12:49:03.596,0.375,-9.9375
12:49:03.599,0.0625,-9.625
12:49:03.604,0.625,-11.1875
12:49:03.614,0.4375,-12.4375
12:49:03.641,0.125,-12.375
12:49:03.642,0.1875,-12.625
12:49:03.645,-0.5,-12.9375
12:49:03.672,0.4375,-13.8126
12:49:03.673,-0.25,-14.1251
12:49:03.676,0.375,-14.5626
12:49:03.683,-0.5,-15.8126
12:49:03.720,-1.25,-15.3126
12:49:03.722,-1.25,-16.7501
12:49:03.725,-1.25,-15.6876
12:49:03.727,-1.3125,-16.9376
12:49:03.757,-1.5,-18.6251
12:49:03.760,-1.875,-17.1251
12:49:03.763,-1.875,-19.6876
12:49:03.765,-1.5,-18.0001
12:49:03.775,-2.1875,-20.6251
12:49:03.782,-2.625,-20.0626
12:49:03.796,-2.4375,-21.7501
12:49:03.803,-2.4375,-20.8751
12:49:03.813,-2.0625,-21.6876
12:49:03.823,-2.8125,-23.1876
12:49:03.834,-3.8125,-23.0001
12:49:03.843,-4.125,-24.7501
12:49:03.852,-3.875,-23.3126
12:49:03.864,-2.625,-23.3126
12:49:03.874,-2.1875,-20.0001
12:49:03.883,-1.1875,-17.8126
12:49:03.893,-0.5625,-11.5
12:49:03.906,2.25,-6.875
12:49:03.914,3.5625,-1
12:49:03.922,5,5.125
12:49:03.935,5.125,8
12:49:03.947,5.9375,10.875
12:49:03.953,6.5625,14.1251
12:49:03.962,7.0625,15.1876
12:49:03.974,6.5625,15.5001
12:49:03.987,7.1875,15.0626
12:49:03.993,6.8125,14.9376
12:49:04.002,6.625,14.7501
12:49:04.013,7,13.3126
12:49:04.024,6,12.125
12:49:04.032,6.75,12.375
12:49:04.042,5.4375,11.6875
12:49:04.054,5.625,10.375
12:49:04.064,5.4375,10.25
12:49:04.073,4.3125,9.625
12:49:04.083,4.625,7.6875
12:49:04.095,3.875,6
12:49:04.102,3.8125,6.1875
12:49:04.113,4.1875,6.75
12:49:04.124,4.125,4.5625
12:49:04.134,3.375,3.125
12:49:04.143,2.6875,3.125
12:49:04.153,3.5,2.4375
12:49:04.163,3.4375,1.5625
12:49:04.174,2.75,0.625
12:49:04.182,2.9375,1.25
12:49:04.193,3.4375,0.5
12:49:04.203,2.4375,-0.625
12:49:04.213,2.375,1.75
12:49:04.223,2.9375,0.875
12:49:04.233,2.9375,0.75
12:49:04.243,2.375,2.375
12:49:04.258,3.75,1.3125
12:49:04.288,3.4375,1.125
12:49:04.291,2.6875,0.5
12:49:04.293,3.1875,1.625
12:49:04.295,2.25,-0.3125
12:49:04.324,2.375,-0.3125
12:49:04.355,1.9375,0.125
12:49:04.356,2.5625,-1.5625
12:49:04.359,2.5,-2.625
12:49:04.361,1.9375,-3.5625
12:49:04.366,1.4375,-3.125
12:49:04.367,2.0625,-4.6875
12:49:04.374,1.8125,-6.125
12:49:04.406,1,-5.875
12:49:04.410,0.9375,-6.5625
12:49:04.413,1.1875,-8.1875
12:49:04.413,1.375,-9.3125
12:49:04.444,0.625,-9.625
12:49:04.446,0.75,-9.5625
12:49:04.448,-0.0625,-9.375
12:49:04.454,0.8125,-11
12:49:04.464,0.375,-12.5625
12:49:04.477,0.1875,-12.1875
12:49:04.483,-0.3125,-13.125
12:49:04.492,0.75,-13.0625
12:49:04.509,-0.125,-14.1251
12:49:04.512,0,-14.1876
12:49:04.522,0.4375,-13.2501
12:49:04.536,-0.25,-14.9376
12:49:04.542,-0.25,-14.5001
12:49:04.554,0.625,-14.8751
12:49:04.562,-0.125,-15.8751
12:49:04.576,-0.8125,-15.8126
12:49:04.582,-1,-16.8751
12:49:04.593,-1.5625,-16.8126
12:49:04.603,-1.6875,-18.1876
12:49:04.614,-1.3125,-18.6251
12:49:04.622,-1.0625,-18.0626
12:49:04.633,-1.125,-19.6876
12:49:04.642,-1.8125,-19.3751
12:49:04.653,-0.625,-18.6876
12:49:04.662,-1,-17.4376
12:49:04.675,0.375,-14.9376
12:49:04.683,1.125,-11.625
12:49:04.693,2.125,-4.6875
12:49:04.704,4.5625,-0.6875
12:49:04.712,5.4375,5.1875
12:49:04.722,6.875,7.875
12:49:04.734,6.625,11.4375
12:49:04.746,7.8125,12.5
12:49:04.752,8.1875,14.7501
12:49:04.763,8.625,14.5626
12:49:04.774,8.125,15.7501
12:49:04.782,8.5625,14.4376
12:49:04.792,7.625,15.0001
12:49:04.803,8.1875,12.875
12:49:04.813,7.9375,13.0625
12:49:04.822,7.6875,11.375
12:49:04.832,7,11.625
12:49:04.843,7.25,9.5
12:49:04.854,6.5,9.875
12:49:04.862,6.9375,9.375
12:49:04.872,6.4375,7.375
12:49:04.884,6.625,7.875
12:49:04.893,5.75,8.5
12:49:04.904,6.1875,5.9375
12:49:04.912,5.75,4.1875
12:49:04.923,5.125,4.8125
12:49:04.932,5.875,4.125
12:49:04.945,4.875,2.75
12:49:04.953,4.75,3.6875
12:49:04.962,5.5625,2.0625
12:49:04.974,4.8125,2.0625
12:49:05.000,3.875,2
12:49:05.003,5.125,1.4375
12:49:05.008,4.125,1.5625
12:49:05.012,4.5,3
12:49:05.022,4.875,2
12:49:05.049,4.4375,1.3125
12:49:05.051,3.875,2.9375
12:49:05.053,4.875,2.125
12:49:05.081,4.5625,1.9375
12:49:05.083,4.4375,3.0625
12:49:05.087,4.6875,1.6875
12:49:05.117,4.1875,-0.375
12:49:05.120,4.25,0.625
12:49:05.122,5.25,-0.6875
12:49:05.124,3.75,-2.5
12:49:05.154,3.3125,-2.125
12:49:05.156,3.8125,-1.875
12:49:05.158,3.75,-3.5
12:49:05.186,3.625,-4.1875
12:49:05.187,3.4375,-6.0625
12:49:05.190,2.8125,-5.8125
12:49:05.195,2.625,-6.25
12:49:05.213,3.4375,-7
12:49:05.214,2.4375,-8.125
12:49:05.223,2.625,-7.9375
12:49:05.233,2.6875,-9.3125
12:49:05.242,2.125,-9.625
12:49:05.259,1.6875,-9.25
12:49:05.264,2.0625,-10
12:49:05.272,2.0625,-11.5625
12:49:05.283,2.125,-11.125
12:49:05.293,2.625,-11.375
12:49:05.302,2.25,-11.375
12:49:05.312,1.375,-11.3125
12:49:05.324,1.8125,-11.9375
12:49:05.333,1.5,-13
12:49:05.343,0.6875,-12.4375
12:49:05.354,1.875,-13.5001
12:49:05.362,0.9375,-13.1876
12:49:05.372,0.8125,-12.9375
12:49:05.383,1.25,-14.8126
12:49:05.393,0.375,-14.6251
12:49:05.402,1.6875,-15.7501
12:49:05.413,0.4375,-14.8126
12:49:05.423,0.75,-15.5001
12:49:05.432,0.25,-16.9376
12:49:05.445,0.5625,-15.8126
12:49:05.452,0.75,-16.1251
12:49:05.462,1.9375,-13.6876
12:49:05.474,2.375,-9.5
12:49:05.482,3.5,-4.875
12:49:05.492,5.875,0.1875
12:49:05.503,6.5625,5.3125
12:49:05.513,8.75,9.9375
12:49:05.523,8.625,12.875
12:49:05.533,8.9375,15.0626
12:49:05.552,9.8125,16.3751
12:49:05.559,9.5625,18.5626
12:49:05.573,10.0625,17.6251
12:49:05.576,9.6875,17.7501
12:49:05.586,9.9375,17.6876
12:49:05.592,9.8125,16.5626
12:49:05.602,9.5,16.8751
12:49:05.619,10.25,15.8751
12:49:05.636,9.125,14.7501
12:49:05.651,9.625,14.4376
12:49:05.653,8.9375,14.1251
12:49:05.658,8.5,13.9376
12:49:05.663,9.3125,13.2501
12:49:05.673,8.9375,13
12:49:05.682,8.8125,12.875
12:49:05.692,9.0625,12.25
12:49:05.703,8.375,10.4375
12:49:05.715,8.125,10.875
12:49:05.722,8.25,11.125
12:49:05.732,9,9.1875
12:49:05.744,8.1875,8.8125
12:49:05.774,7.8125,7.875
12:49:05.776,8,9
12:49:05.779,7.6875,8.9375
12:49:05.784,7.4375,7.6875
12:49:05.810,7.4375,6.9375
12:49:05.813,7.6875,7.75
12:49:05.815,7.75,7.8125
12:49:05.850,8.25,8.375
12:49:05.852,8.3125,6.75
12:49:05.853,7.4375,7.4375
12:49:05.857,8.25,7.625
12:49:05.862,7.375,5.6875
12:49:05.889,7.125,7.5625
12:49:05.891,7.5625,6
12:49:05.894,6.6875,5
12:49:05.925,7.125,6
12:49:05.927,7.5,3.9375
12:49:05.930,7.1875,3.9375
12:49:05.935,6.5,3.9375
12:49:05.945,6.8125,2.125
12:49:05.952,6.5625,2.875
12:49:05.965,6.9375,1.5625
12:49:05.974,7.25,1.0625
12:49:05.982,6.6875,-0.0625
12:49:05.992,6.1875,0.4375
12:49:06.003,6.75,-0.8125
12:49:06.013,6.6875,-1.875
12:49:06.022,6.3125,-1.375
12:49:06.033,5.875,-1.5
12:49:06.045,6.1875,-2.375
12:49:06.052,6.3125,-3
12:49:06.062,5.375,-2.75
12:49:06.074,6.4375,-3
12:49:06.082,6.0625,-4.1875
12:49:06.092,6.0625,-4.5
12:49:06.104,5.5625,-3.6875
12:49:06.113,6.8125,-4
12:49:06.122,6.0625,-4.625
12:49:06.135,5.8125,-3.5625
12:49:06.142,5.875,-4.625
12:49:06.152,5.9375,-5.3125
12:49:06.163,5.1875,-5.3125
12:49:06.172,5.4375,-6.1875
12:49:06.182,5.125,-6.4375
12:49:06.193,4.6875,-6.375
12:49:06.202,5.5625,-7.8125
12:49:06.212,5.1875,-6.4375
12:49:06.224,5.3125,-7.625
12:49:06.232,5.5,-7.1875
12:49:06.242,6.25,-3.8125
12:49:06.252,8.125,-1.125
12:49:06.282,8.6875,3.6875
12:49:06.284,9.5625,9.6875
12:49:06.285,10.25,11.8125
12:49:06.292,11.6875,15.1251
12:49:06.302,11.625,18.0626
12:49:06.312,12.625,19.7501
12:49:06.323,12.0625,20.5626
12:49:06.333,12.0625,22.0626
12:49:06.342,12.625,21.3126
12:49:06.352,11.625,21.8126
12:49:06.362,11.5625,20.4376
12:49:06.372,11.625,18.8751
12:49:06.384,11.375,18.8751
12:49:06.394,11.125,18.0626
12:49:06.403,11,17.6251
12:49:06.413,11.4375,17.7501
12:49:06.422,11.625,16.6876
12:49:06.432,10.625,17.7501
12:49:06.443,11.375,17.4376
12:49:06.453,11.5625,16.2501
12:49:06.462,10.8125,17.0626
12:49:06.476,11.4375,16.0626
12:49:06.482,11.0625,14.3126
12:49:06.522,10.5625,13.5626
12:49:06.524,10.5,13.7501
12:49:06.526,10.875,13.3751
12:49:06.529,10.5,12.0625
12:49:06.533,9.9375,11.1875
12:49:06.559,9.9375,12.25
12:49:06.562,10.125,10.9375
12:49:06.563,9,10.5625
12:49:06.599,9,11.5625
12:49:06.602,9.3125,10.6875
12:49:06.604,9.125,10.1875
12:49:06.609,8.6875,10.1875
12:49:06.612,8.9375,10.9375
12:49:06.645,8.4375,9.875
12:49:06.648,8.625,8.6875
12:49:06.651,8.1875,9
12:49:06.658,7.9375,9.25
12:49:06.668,7.8125,8.875
12:49:06.680,8,7.8125
12:49:06.687,7.5,6.5
12:49:06.697,7.5,7.75
12:49:06.708,6.8125,5.6875
12:49:06.717,7.3125,4.9375
12:49:06.727,7.4375,4.5
12:49:06.737,6.625,3.1875
12:49:06.748,6.8125,2.375
12:49:06.765,6.6875,1.5
12:49:06.768,6.3125,1.75
12:49:06.779,6.875,1.6875
12:49:06.788,6.4375,0.375
12:49:06.798,6.625,-0.0625
12:49:06.807,6.0625,-1.375
12:49:06.817,5.6875,-0.875
12:49:06.828,6.5,-1.5
12:49:06.837,5.25,-2.4375
12:49:06.850,5.5625,-1.3125
12:49:06.866,5.8125,-2.8125
12:49:06.873,5.625,-2.5625
12:49:06.881,4.9375,-4.125
12:49:06.888,5.125,-3.5625
12:49:06.905,4.6875,-4.8125
12:49:06.920,4.6875,-4.875
12:49:06.921,4.125,-5.6875
12:49:06.936,4,-5.5625
12:49:06.939,4.125,-5.6875
12:49:06.954,3.9375,-6.125
12:49:06.970,4.6875,-5.25
12:49:06.972,4.625,-2.625
12:49:06.987,6.5625,1.125
12:49:06.990,7.25,3.9375
12:49:06.997,8.1875,7.9375
12:49:07.008,9.3125,12.6875
12:49:07.017,10.125,15.2501
12:49:07.028,10.6875,17.6876
12:49:07.037,10.9375,21.0001
12:49:07.047,11.5,21.3751
12:49:07.057,11.75,21.1251
12:49:07.068,11.875,22.9376
12:49:07.077,12.5625,22.5001
12:49:07.087,12.0625,21.5001
12:49:07.097,11.875,20.0001
12:49:07.108,11.3125,20.8751
12:49:07.118,11.5,19.6251
12:49:07.129,11.25,19.5626
12:49:07.159,10.9375,19.8126
12:49:07.161,11.0625,19.5001
12:49:07.163,11.3125,18.1251
12:49:07.168,11.5,18.1251
12:49:07.197,11.125,17.3126
12:49:07.198,10.625,17.5626
12:49:07.201,10.25,16.8751
12:49:07.209,10.3125,15.7501
12:49:07.235,8.9375,13.5001
12:49:07.237,9.1875,14.2501
12:49:07.240,9.1875,12.875
12:49:07.270,8.0625,11.3125
12:49:07.273,7.9375,12.875
12:49:07.275,8.25,11.25
12:49:07.281,8,10.8125
12:49:07.310,7.4375,10.25
12:49:07.312,7.125,12.5625
12:49:07.315,6.9375,11.6875
12:49:07.317,7.375,10.8125
12:49:07.331,7.3125,10.125
12:49:07.337,6.3125,11.75
12:49:07.348,6.9375,10.5625
12:49:07.358,6.875,10.4375
12:49:07.367,6.75,9.375
12:49:07.377,6.5625,10.4375
12:49:07.388,6.625,10.25
12:49:07.397,6.625,8.5625
12:49:07.407,5.6875,6.5625
12:49:07.418,5.4375,6.875
12:49:07.427,6.125,7.1875
12:49:07.437,6.25,5.5
12:49:07.447,5.625,4.8125
12:49:07.458,4.8125,5.375
12:49:07.468,5.0625,3.375
12:49:07.481,5.125,2.625
12:49:07.487,4.6875,2.4375
12:49:07.498,5.5625,2.0625
12:49:07.508,5.0625,1.0625
12:49:07.518,4.4375,0.5
12:49:07.528,4.375,0.0625
12:49:07.560,4.0625,-0.125
12:49:07.562,3.6875,-0.6875
12:49:07.565,4.125,-0.9375
12:49:07.568,4.125,-2.25
12:49:07.577,4,-2.375
12:49:07.588,3.875,-3.25
12:49:07.597,2.625,-1.5625
12:49:07.607,3,-2.5625
12:49:07.618,4.125,-2.75
12:49:07.627,3.375,-2.5625
12:49:07.637,3.6875,0.0625
12:49:07.647,4.4375,2.375
12:49:07.659,5.9375,5.375
12:49:07.671,6.375,8.3125
12:49:07.677,7.375,12.125
12:49:07.687,7.875,15.6251
12:49:07.697,9.3125,18.7501
12:49:07.707,9.4375,19.1876
12:49:07.717,9.0625,21.6876
12:49:07.729,10,21.4376
12:49:07.739,9.9375,21.5626
12:49:07.749,9.3125,21.1251
12:49:07.757,10.125,20.8751
12:49:07.767,9.9375,19.3126
12:49:07.780,9.25,18.4376
12:49:07.787,8.375,18.6251
12:49:07.803,8.75,17.8126
12:49:07.810,8.875,16.8751
12:49:07.818,8.4375,15.5626
12:49:07.828,8,16.4376
12:49:07.839,7.75,15.7501
12:49:07.848,8.125,13.6876
12:49:07.857,7.1875,12.5
12:49:07.868,7.4375,11.875
12:49:07.878,7.125,11.6875
12:49:07.888,7.0625,10.0625
12:49:07.916,6,8.5
12:49:07.920,6.125,9.4375
12:49:07.921,6.125,8.375
12:49:07.929,6.375,7.9375
12:49:07.953,6.125,8.4375
12:49:07.956,5.625,9
12:49:07.959,5.25,10.4375
12:49:07.992,6.3125,10.0625
12:49:07.995,7.125,9.9375
12:49:07.995,6.3125,9.75
12:49:07.997,5.5,11.375
12:49:08.026,6.625,9.3125
12:49:08.029,5.875,8.8125
12:49:08.031,6.125,10
12:49:08.063,5.5625,9.5
12:49:08.063,6.125,7.9375
12:49:08.063,5.5625,6.875
12:49:08.069,5.1875,7.125
12:49:08.084,5.1875,7.75
12:49:08.087,5.375,4.5
12:49:08.097,5,4.5625
12:49:08.109,4.75,4.5
12:49:08.118,5.5,3.1875
12:49:08.129,5.0625,2.25
12:49:08.137,4.6875,2.25
12:49:08.147,4.4375,1.8125
12:49:08.157,4.9375,0.8125
12:49:08.167,4.3125,-0.3125
12:49:08.180,4.25,-0.875
12:49:08.196,3.8125,-0.3125
12:49:08.202,3.9375,-1.125
12:49:08.209,4.5625,-1.5625
12:49:08.217,3.75,-2.4375
12:49:08.232,3.875,-2.75
12:49:08.241,4.125,-3.125
12:49:08.248,3.1875,-4.0625
12:49:08.265,3.1875,-4
12:49:08.267,2.875,-3.5
12:49:08.282,2.875,-5.375
12:49:08.297,2.9375,-6.5
12:49:08.300,2.125,-6.1875
12:49:08.310,2.375,-4.5
12:49:08.320,2.5625,-3.125
12:49:08.327,3.9375,-1.875
12:49:08.337,4.9375,1.375
12:49:08.347,6.3125,7.6875
12:49:08.357,7.75,11.25
12:49:08.368,8.25,13.8126
12:49:08.378,8.9375,19.3126
12:49:08.387,10,21.2501
12:49:08.398,11.0625,22.8751
12:49:08.407,10.8125,23.0001
12:49:08.417,9.9375,24.6876
12:49:08.427,10.75,24.2501
12:49:08.438,10.875,22.8126
12:49:08.447,10.5,22.1251
12:49:08.461,10.125,21.0001
12:49:08.468,9.5,22.1251
12:49:08.479,10.5625,20.3751
12:49:08.488,9.75,19.5001
12:49:08.498,9.125,19.2501
12:49:08.507,9.625,19.5001
12:49:08.517,10,18.8126
12:49:08.527,9.875,18.3751
12:49:08.537,9.25,17.1251
12:49:08.548,8.9375,17.5001
12:49:08.559,8.75,17.0001
12:49:08.568,8.5625,16.8751
12:49:08.578,9.6875,15.3126
12:49:08.587,8.3125,13.3126
12:49:08.609,7.8125,13.3126
12:49:08.611,8.0625,13.8126
12:49:08.638,7.0625,13.3126
12:49:08.641,7.625,12.75
12:49:08.642,7.75,11.625
12:49:08.649,7.5625,12.6875
12:49:08.681,7.1875,13.3126
12:49:08.684,8,13.1251
12:49:08.686,7.75,12.625
12:49:08.688,7.8125,12.5625
12:49:08.725,7.25,13.5001
12:49:08.728,7.5,13.0625
12:49:08.730,7.5,11.75
12:49:08.736,6.875,10.5
12:49:08.738,6.5625,10.75
12:49:08.769,6.9375,11.1875
12:49:08.771,7.375,9.625
12:49:08.774,6.4375,8.9375
12:49:08.778,5.9375,9.25
12:49:08.787,6.625,7.0625
12:49:08.798,5.9375,5.4375
12:49:08.808,5.75,5.625
12:49:08.843,6.1875,5.1875
12:49:08.845,5.875,3.625
12:49:08.849,5.4375,2.5625
12:49:08.850,4.625,3.3125
12:49:08.864,5.875,2.5
12:49:08.870,5.125,1.5625
12:49:08.878,4.75,0.9375
12:49:08.888,4.25,-0.125
12:49:08.897,4.8125,1
12:49:08.907,4.1875,-0.5
12:49:08.919,3.375,-0.9375
12:49:08.927,3.5625,-1.625
12:49:08.937,3.4375,-2.5
12:49:08.948,3.1875,-3.375
12:49:08.958,3,-3.5
12:49:08.968,2.75,-2.4375
12:49:08.978,3.5,-3.8125
12:49:08.988,2.6875,-5.4375
12:49:08.998,2.4375,-5.375
12:49:09.009,2.3125,-4.4375
12:49:09.017,2.6875,-5
12:49:09.027,2.75,-6.25
12:49:09.037,2.1875,-7.875
12:49:09.049,1.875,-6.8125
12:49:09.058,2.0625,-8.25
12:49:09.068,1.5625,-7.8125
12:49:09.078,1.8125,-9.5
12:49:09.088,1.5625,-9.625
12:49:09.098,2.0625,-9.625
12:49:09.108,1.0625,-9.75
12:49:09.117,1.0625,-9.0625
12:49:09.128,1.875,-8.75
12:49:09.138,3.25,-6
12:49:09.148,4.125,-0.375
12:49:09.157,5.5625,3.9375
12:49:09.168,6.625,10.1875
12:49:09.177,8.6875,13.4376
12:49:09.189,9.0625,16.9376
12:49:09.197,8.9375,21.0001
12:49:09.210,10.375,22.6251
12:49:09.217,10.125,23.5626
12:49:09.227,10.5,25.1876
12:49:09.241,10.9375,24.6876
12:49:09.247,10.9375,24.0001
12:49:09.258,10.625,23.0626
12:49:09.268,10.5,24.1251
12:49:09.279,10,22.6251
12:49:09.289,10.375,22.5001
12:49:09.297,10.5,21.5001
12:49:09.307,9.1875,21.3751
12:49:09.317,9.125,21.5626
12:49:09.327,9.875,20.5001
12:49:09.338,9.6875,19.5001
12:49:09.348,9.8125,19.7501
12:49:09.357,9.125,21.3126
12:49:09.369,9.375,19.3751
12:49:09.378,9.0625,18.3126
12:49:09.387,8.3125,17.0626
12:49:09.398,8.4375,17.0626
12:49:09.407,8.5,15.6876
12:49:09.418,7.5,14.8751
12:49:09.429,7.3125,14.3126
12:49:09.458,7.4375,15.1876
12:49:09.461,8,13.8126
12:49:09.464,7.8125,13.2501
12:49:09.467,7.1875,14.2501
12:49:09.501,8.0625,14.5001
12:49:09.503,8.25,14.5626
12:49:09.506,8.125,14.5001
12:49:09.558,8,14.1251
12:49:09.593,7.625,14.7501
12:49:09.595,7.875,13.6876
12:49:09.598,8.25,13.0625
12:49:09.630,7.5,12.875
12:49:09.630,7.75,12.25
12:49:09.630,6.5625,10.875
12:49:09.631,6.4375,11.25
12:49:09.645,7.1875,10.8125
12:49:09.660,7.3125,9.3125
12:49:09.661,6.5,8.4375
12:49:09.661,6.0625,7.5625
12:49:09.662,6.375,8.0625
12:49:09.677,6.1875,6.5
12:49:09.679,5.9375,5.5625
12:49:09.687,5.8125,4.625
12:49:09.697,5.5625,4.125
12:49:09.708,5.4375,5
12:49:09.719,5.625,4.1875
12:49:09.729,5.5,2.875
12:49:09.737,5.4375,1.8125
12:49:09.747,5.1875,1.4375
12:49:09.757,4.5,0.625
12:49:09.768,5.25,-0.1875
12:49:09.777,5.1875,-0.4375
12:49:09.787,5.625,-0.4375
12:49:09.798,5.5625,-0.625
12:49:09.807,5.3125,-1.75
12:49:09.819,4.6875,-2.375
12:49:09.828,4.25,-1.6875
12:49:09.837,4.25,-1.625
12:49:09.847,5.125,-2.875
12:49:09.858,4.4375,-2.875
12:49:09.867,4.3125,-2.4375
12:49:09.878,5.0625,-2.875
12:49:09.887,4.5625,-4.0625
12:49:09.897,5.0625,-3.125
12:49:09.909,5.5625,-3.375
12:49:09.919,6,-3.3125
12:49:09.927,6.4375,-2.0625
12:49:09.937,7.4375,-0.375
12:49:09.948,8.75,-0.8125
12:49:09.957,10.5625,3.375
12:49:09.969,12,5.6875
12:49:09.978,13.6876,10.375
12:49:09.991,16.6876,15.5001
12:49:09.998,18.1876,21.0001
12:49:10.007,21.6251,27.0626
12:49:10.018,23.0001,33.6876
12:49:10.028,26.3126,37.7501
12:49:10.037,26.9376,41.4377
12:49:10.047,27.8126,45.4377
12:49:10.057,28.8751,46.6877
12:49:10.078,28.7501,45.6877
12:49:10.082,27.8751,45.9377
12:49:10.121,26.5001,43.1252
12:49:10.122,22.8751,39.2501
12:49:10.124,19.8126,35.9376
12:49:10.126,13.1876,27.3126
12:49:10.131,5.6875,18.6876
12:49:10.166,-0.125,10.125
12:49:10.168,-3.875,2.5625
12:49:10.170,-4.5625,2.5625
12:49:10.200,-3.1875,3.1875
12:49:10.200,-1.875,3.0625
12:49:10.201,-0.4375,2.625
12:49:10.204,-0.8125,2.9375
12:49:10.210,-1.9375,0.4375
12:49:10.241,-5.0625,-4
12:49:10.244,-7.875,-6.875
12:49:10.246,-11.25,-14.1876
12:49:10.248,-18.5001,-24.6876
12:49:10.257,-27.2501,-35.3751
12:49:10.268,-38.1876,-49.0627
12:49:10.278,-52.8752,-69.3128
12:49:10.287,-70.7503,-93.6879
12:49:10.300,-89.5628,-119.438
12:49:10.308,-104.2504,-141.313
12:49:10.317,-116.3754,-157.6881
12:49:10.328,-124.7505,-170.2506
12:49:10.337,-133.313,-181.5632
12:49:10.348,-142.688,-194.2507
12:49:10.359,-149.5631,-202.8758
12:49:10.372,-151.1256,-206.3758
12:49:10.378,-147.3755,-203.1258
12:49:10.387,-132.063,-186.8132
12:49:10.397,-110.4379,-160.2506
12:49:10.407,-76.1253,-114.7504
12:49:10.416,-28.3751,-50.1252
12:49:10.427,9.6875,7.1875
12:49:10.436,38.6251,52.1252
12:49:10.449,58.6877,79.4378
12:49:10.457,73.3128,101.2504
12:49:10.470,80.1878,113.6254
12:49:10.478,82.5003,116.1879
12:49:10.487,82.1253,116.2504
12:49:10.497,79.6878,114.6254
12:49:10.507,76.6253,109.2504
12:49:10.520,74.7503,106.3754
12:49:10.527,72.1253,102.6254
12:49:10.539,70.5628,100.3129
12:49:10.547,68.6253,97.7504
12:49:10.557,66.6878,98.4379
12:49:10.566,65.3128,95.0004
12:49:10.577,61.6877,91.2504
12:49:10.588,57.1252,85.5628
12:49:10.597,50.6877,75.9378
12:49:10.608,42.3752,62.5627
12:49:10.617,31.9376,48.6252
12:49:10.628,21.6876,31.2501
12:49:10.638,8.8125,11.1875
12:49:10.647,-7.125,-11.4375
12:49:10.657,-24.0626,-33.5626
12:49:10.672,-36.3126,-53.5627
12:49:10.682,-47.3752,-68.7503
12:49:10.692,-54.0627,-81.5003
12:49:10.702,-60.5627,-90.0628
12:49:10.713,-63.6877,-95.6254
12:49:10.724,-65.5003,-100.8129
12:49:10.733,-65.6878,-101.3129
12:49:10.747,-65.6878,-102.7504
12:49:10.752,-63.8127,-101.9379
12:49:10.762,-55.6252,-94.2504
12:49:10.775,-34.1876,-67.2503
12:49:10.782,-2.3125,-22.9376
12:49:10.793,27.6876,24.6251
12:49:10.802,48.5002,57.0002
12:49:10.824,56.5627,76.1878
12:49:10.828,60.8127,85.0003
12:49:10.832,62.9377,95.8129
12:49:10.862,63.9377,98.1879
12:49:10.864,63.3127,100.6254
12:49:10.866,61.8752,100.8129
12:49:10.872,59.1877,97.8754
12:49:10.900,56.5627,93.8129
12:49:10.902,55.2502,91.5629
12:49:10.929,55.5627,93.0004
12:49:10.932,60.2502,97.4379
12:49:11.007,64.0002,102.2504
12:49:11.007,65.6878,106.6879
12:49:11.022,66.1253,107.3754
12:49:11.022,61.8127,103.0004
12:49:11.022,51.4377,86.0003
12:49:11.023,38.1251,63.6877
12:49:11.036,23.0626,40.2502
12:49:11.038,9.5625,19.3751
12:49:11.040,-0.875,2.625
12:49:11.040,-4.125,-5.125
12:49:11.047,-6.8125,-9
12:49:11.058,-6.6875,-9.6875
12:49:11.067,-5.6875,-8.6875
12:49:11.080,-5.875,-7.5625
12:49:11.087,-4.625,-5.875
12:49:11.097,-0.4375,-2.5625
12:49:11.108,6.5625,7.6875
12:49:11.122,16.9376,21.6876
12:49:11.127,31.3126,41.1252
12:49:11.137,48.3127,66.8128
12:49:11.147,60.9377,87.3753
12:49:11.156,68.4378,99.6254
12:49:11.169,71.8753,107.3129
12:49:11.176,73.1253,109.5004
12:49:11.186,72.1878,106.8129
12:49:11.197,70.4378,105.6879
12:49:11.207,69.1253,104.5004
12:49:11.218,68.3128,100.1879
12:49:11.227,67.6878,97.4379
12:49:11.239,67.7503,98.5004
12:49:11.246,67.8128,97.1879
12:49:11.258,69.8128,99.8129
12:49:11.267,72.3753,105.0004
12:49:11.277,73.4378,105.9379
12:49:11.286,67.5628,98.3754
12:49:11.298,56.5627,80.3753
12:49:11.310,40.2502,56.4377
12:49:11.317,23.6251,29.2501
12:49:11.328,8.75,5.375
12:49:11.336,-4.375,-13.5001
12:49:11.349,-13.5001,-28.1876
12:49:11.357,-19.3751,-36.3126
12:49:11.367,-23.0626,-43.2502
12:49:11.400,-25.9376,-47.2502
12:49:11.402,-26.6876,-49.6877
12:49:11.405,-24.6251,-47.3752
12:49:11.410,-16.8751,-38.0626
12:49:11.417,-2.625,-18.0001
12:49:11.427,14.4376,8.375
12:49:11.436,29.6876,30.5626
12:49:11.447,41.8752,50.9377
12:49:11.458,52.4377,65.2503
12:49:11.466,60.0627,77.5628
12:49:11.477,67.5628,86.4378
12:49:11.486,69.6878,92.1254
12:49:11.497,71.1878,93.4379
12:49:11.507,69.1878,93.4379
12:49:11.516,68.0003,88.9378
12:49:11.528,67.4378,90.0628
12:49:11.536,67.3128,89.5003
12:49:11.546,67.1253,87.6253
12:49:11.556,66.5628,87.2503
12:49:11.566,64.9377,83.9378
12:49:11.580,67.0628,86.4378
12:49:11.586,69.4378,90.8128
12:49:11.619,70.1253,92.2504
12:49:11.621,71.0628,93.5629
12:49:11.623,67.2503,89.1253
12:49:11.627,58.4377,76.1878
12:49:11.658,42.4377,54.5627
12:49:11.662,18.1251,20.5001
12:49:11.664,-9.625,-16.9376
12:49:11.667,-39.0626,-55.6252
12:49:11.697,-58.6252,-81.1253
12:49:11.699,-69.9378,-96.4379
12:49:11.701,-77.1253,-103.0629
12:49:11.709,-78.7503,-105.5004
12:49:11.718,-76.1878,-101.0629
12:49:11.746,-70.7503,-93.3754
12:49:11.749,-64.1252,-84.0628
12:49:11.753,-50.0627,-67.5003
12:49:11.758,-25.6876,-34.7501
12:49:11.779,11.5,16.3126
12:49:11.781,47.2502,67.8753
12:49:11.789,70.2503,105.7504
12:49:11.796,85.9378,128.1255
12:49:11.808,96.3754,143.6255
12:49:11.818,101.7504,152.5006
12:49:11.828,101.1254,153.6881
12:49:11.836,99.8754,149.0631
12:49:11.848,99.6879,147.6256
12:49:11.858,99.6254,147.5006
12:49:11.874,100.0629,146.6881
12:49:11.877,99.2504,145.063
12:49:11.890,96.8129,141.0005
12:49:11.896,95.6254,137.3755
12:49:11.908,94.9379,136.2505
12:49:11.917,95.7504,137.063
12:49:11.926,100.2504,141.938
12:49:11.936,105.0629,148.8131
12:49:11.946,108.0629,155.3756
12:49:11.957,110.0004,157.8756
12:49:11.966,105.8754,153.1881
12:49:11.979,99.9379,143.0005
12:49:11.988,90.3128,130.688
12:49:11.998,78.1878,111.9379
12:49:12.007,63.6877,91.2504
12:49:12.016,47.0627,67.6878
12:49:12.027,31.9376,46.6252
12:49:12.036,18.6251,27.6251
12:49:12.050,7.6875,11.3125
12:49:12.057,3.875,4
12:49:12.068,4.375,3.5625
12:49:12.076,7.375,7.625
12:49:12.086,10.3125,10.75
12:49:12.097,13.7501,15.6876
12:49:12.106,17.0626,19.8126
12:49:12.116,20.0001,25.0001
12:49:12.126,26.4376,32.4376
12:49:12.136,39.1252,50.7502
12:49:12.148,54.4377,76.0003
12:49:12.159,67.1878,95.5004
12:49:12.166,75.6878,108.0629
12:49:12.176,83.8753,117.938
12:49:12.186,88.0003,126.1255
12:49:12.196,89.3753,125.938
12:49:12.209,86.6878,123.6255
12:49:12.217,86.5003,120.438
12:49:12.236,84.1253,116.4379
12:49:12.308,80.0628,109.3754
12:49:12.309,75.5628,100.6254
12:49:12.343,72.9378,95.4379
12:49:12.370,71.6878,92.3754
12:49:12.370,73.1253,93.1879
12:49:12.370,76.5628,98.0629
12:49:12.371,82.2503,106.5004
12:49:12.373,86.1253,112.0629
12:49:12.379,90.1879,120.063
12:49:12.382,91.8129,123.2505
12:49:12.413,86.3128,116.5629
12:49:12.415,78.5628,105.0629
12:49:12.421,67.2503,87.1878
12:49:12.423,51.4377,66.1253
12:49:12.441,33.3751,39.1251
12:49:12.442,15.1876,12.9375
12:49:12.453,-2.3125,-14.1876
12:49:12.461,-15.2501,-34.0626
12:49:12.472,-21.6251,-44.6877
12:49:12.482,-24.3751,-47.8127
12:49:12.491,-25.7501,-49.9377
12:49:12.501,-25.7501,-50.3127
12:49:12.511,81.3753,110.6879
12:49:12.523,84.0003,117.688
12:49:12.531,85.0003,120.6255
12:49:12.541,84.5003,121.7505
12:49:12.551,85.6878,123.6255
12:49:12.561,86.0628,125.438
12:49:12.572,85.6253,126.1255
12:49:12.581,82.4378,123.1255
12:49:12.594,79.3128,117.0629
12:49:12.601,77.6878,114.5004
12:49:12.612,78.8128,114.2504
12:49:12.621,80.4378,116.1879
12:49:12.631,83.4378,121.5005
12:49:12.641,88.5003,127.8755
12:49:12.651,90.1878,132.0005
12:49:12.680,91.3129,135.813
12:49:12.686,92.1254,136.938
12:49:12.686,88.5628,133.2505
12:49:12.693,80.4378,122.1255
12:49:12.702,68.1878,101.6879
12:49:12.711,53.2502,80.4378
12:49:12.724,41.5627,61.7502
12:49:12.731,29.9376,46.2502
12:49:12.741,19.1876,29.3751
12:49:12.751,12,18.1876
12:49:12.761,6,10.1875
12:49:12.771,-0.6875,0.5625
12:49:12.782,-8.0625,-8.4375
12:49:12.792,-13.6251,-18.4376
12:49:12.801,-18.1876,-25.5626
12:49:12.812,-15.8126,-22.1876
12:49:12.821,-4.25,-6
12:49:12.831,18.9376,27.6251
12:49:12.841,47.8127,69.8128
12:49:12.851,68.3128,103.4379
12:49:12.861,78.1878,118.7505
12:49:12.871,81.0003,123.813
