timestamp,Red,IR
12:58:04.867,10.375,10.125
12:58:04.877,12.625,18.5001
12:58:04.887,14.3751,24.5626
12:58:04.897,15.5001,29.1251
12:58:04.908,15.5626,31.5626
12:58:04.916,16.3126,33.6876
12:58:04.926,15.7501,32.6876
12:58:04.938,15.6251,32.6251
12:58:04.947,14.5001,32.3126
12:58:04.956,14.1876,30.8126
12:58:04.966,14.1876,29.1251
12:58:04.976,13.5626,28.0001
12:58:04.987,12.5625,26.5626
12:58:04.997,11.875,26.4376
12:58:05.005,11.625,24.1876
12:58:05.016,10.9375,22.5001
12:58:05.027,11.0625,22.5001
12:58:05.037,10.4375,19.7501
12:58:05.045,9.625,18.2501
12:58:05.056,8.6875,16.5626
12:58:05.066,7.6875,14.9376
12:58:05.075,8.125,13.0625
12:58:05.086,7.125,11.375
12:58:05.098,6.9375,10.4375
12:58:05.107,6.8125,10.125
12:58:05.115,6.4375,8.6875
12:58:05.127,6.25,7.625
12:58:05.138,5.6875,6.25
12:58:05.163,5.5,6.75
12:58:05.166,5.125,5.3125
12:58:05.168,5.1875,4.375
12:58:05.176,4.1875,2.8125
12:58:05.187,3.4375,2.8125
12:58:05.210,3.5,1.4375
12:58:05.217,3.75,-0.0625
12:58:05.219,2.8125,-1.5
12:58:05.233,2.25,-1.75
12:58:05.248,2.5,-3.4375
12:58:05.249,2.1875,-4.9375
12:58:05.257,1.625,-7.3125
12:58:05.266,0.5,-7.3125
12:58:05.277,0.75,-9.375
12:58:05.285,-0.3125,-11.375
12:58:05.297,-0.3125,-12.1875
12:58:05.310,-1.3125,-13.5001
12:58:05.318,-1.9375,-14.8751
12:58:05.327,-1.125,-16.3751
12:58:05.336,-2.5,-17.6251
12:58:05.346,-2.125,-19.0001
12:58:05.355,-2.0625,-20.5001
12:58:05.366,-2.875,-22.1251
12:58:05.388,-3.5625,-23.4376
12:58:05.391,-4,-22.2501
12:58:05.397,-3.375,-23.3126
12:58:05.427,-3.3125,-24.5001
12:58:05.430,-3.8125,-24.8751
12:58:05.432,-3.6875,-24.3751
12:58:05.440,-4,-24.4376
12:58:05.471,-2.9375,-24.3751
12:58:05.473,-3.25,-22.4376
12:58:05.476,-1.125,-17.5001
12:58:05.481,3,-9.25
12:58:05.488,6.625,2.125
12:58:05.517,10.25,12.1875
12:58:05.519,12.625,20.7501
12:58:05.521,14.7501,26.5001
12:58:05.528,15.5626,30.8126
12:58:05.557,15.4376,33.7501
12:58:05.559,15.9376,33.9376
12:58:05.559,15.6876,34.8751
12:58:05.572,16.2501,33.7501
12:58:05.576,15.1251,32.6876
12:58:05.589,14.6251,32.5001
12:58:05.597,13.9376,30.7501
12:58:05.606,13.3751,30.3126
12:58:05.616,13.0625,28.3751
12:58:05.637,12.8125,28.7501
12:58:05.641,12.0625,27.3751
12:58:05.654,11.6875,26.3126
12:58:05.658,11.4375,25.3751
12:58:05.667,11.0625,23.2501
12:58:05.676,10.6875,21.7501
12:58:05.686,9.4375,19.5626
12:58:05.697,8.3125,20.1876
12:58:05.706,8.4375,17.1876
12:58:05.715,8.6875,15.1251
12:58:05.725,7.1875,13.5626
12:58:05.737,6.5625,13.5001
12:58:05.747,6.5625,11.375
12:58:05.756,6.375,10
12:58:05.768,6.0625,10
12:58:05.776,5.375,10.5625
12:58:05.786,6.3125,8.9375
12:58:05.797,5.6875,7.75
12:58:05.806,5.3125,6.625
12:58:05.817,4.125,5.625
12:58:05.825,3.8125,4.8125
12:58:05.836,4.1875,3.1875
12:58:05.847,3.5625,1.375
12:58:05.858,2.375,-1.1875
12:58:05.867,1.6875,-1.75
12:58:05.877,2.125,-2.75
12:58:05.892,1.1875,-3.9375
12:58:05.896,0.625,-6.125
12:58:05.905,0.0625,-8.75
12:58:05.916,-0.375,-8.9375
12:58:05.927,-0.8125,-10.6875
12:58:05.937,-1.0625,-12.1875
12:58:05.947,-2.0625,-14.2501
12:58:05.956,-2.1875,-16.8126
12:58:05.967,-3.0625,-16.0626
12:58:05.978,-3.8125,-17.7501
12:58:05.987,-3.6875,-19.6251
12:58:05.996,-4.3125,-21.6251
12:58:06.007,-4.25,-22.3126
12:58:06.016,-5,-21.9376
12:58:06.027,-4.8125,-24.0626
12:58:06.037,-4.9375,-25.3751
12:58:06.047,-5.375,-24.6876
12:58:06.056,-4.5,-26.0001
12:58:06.067,-4.6875,-26.5626
12:58:06.088,-5.875,-25.4376
12:58:06.090,-5.125,-26.8126
12:58:06.127,-5.125,-26.7501
12:58:06.130,-4.6875,-25.6251
12:58:06.132,-3.75,-23.1251
12:58:06.134,0.25,-13.6876
12:58:06.137,3.1875,-5.375
12:58:06.176,7.1875,7.0625
12:58:06.176,10.125,15.5626
12:58:06.179,12.6875,21.8751
12:58:06.207,13.2501,27.9376
12:58:06.208,14.1251,30.7501
12:58:06.208,14.5001,30.8126
12:58:06.210,14.5626,33.2501
12:58:06.220,14.6876,31.7501
12:58:06.228,13.5001,32.0626
12:58:06.258,13.125,31.7501
12:58:06.259,13.3126,30.0001
12:58:06.262,12.375,28.8126
12:58:06.267,12.1875,29.0626
12:58:06.278,11.3125,26.1251
12:58:06.286,10.5625,26.6251
12:58:06.297,10.625,25.2501
12:58:06.308,10.5,23.6251
12:58:06.316,9.5625,22.3126
12:58:06.327,8.375,21.8751
12:58:06.337,7.875,18.8126
12:58:06.346,7.5,17.3751
12:58:06.357,6.8125,14.9376
12:58:06.365,6,13.2501
12:58:06.376,6.5625,12.9375
12:58:06.386,5.9375,11.625
12:58:06.395,5.5625,9.875
12:58:06.405,5.3125,10.5625
12:58:06.439,5.6875,9.25
12:58:06.442,5.3125,7.875
12:58:06.444,4.375,9.125
12:58:06.446,5,7.75
12:58:06.456,4.5625,5.875
12:58:06.466,3.375,3.875
12:58:06.478,2.625,3.75
12:58:06.488,3.0625,3.25
12:58:06.497,2.375,0.6875
12:58:06.518,2.0625,-0.1875
12:58:06.523,1,-0.6875
12:58:06.538,1.3125,-3.9375
12:58:06.542,0.625,-5.5
12:58:06.547,0.1875,-5.5
12:58:06.557,-0.0625,-7.125
12:58:06.567,0.0625,-9
12:58:06.578,-0.6875,-11.4375
12:58:06.586,-1.5625,-13.0625
12:58:06.596,-1.875,-14.4376
12:58:06.606,-2.4375,-14.6251
12:58:06.616,-2.1875,-16.3751
12:58:06.626,-2.4375,-18.0626
12:58:06.635,-3.25,-19.9376
12:58:06.653,-3.3125,-19.8751
12:58:06.657,-3.875,-20.0001
12:58:06.665,-3.875,-22.5626
12:58:06.676,-4.25,-23.6876
12:58:06.687,-4.3125,-23.1251
12:58:06.697,-3.6875,-24.1251
12:58:06.708,-3.6875,-25.2501
12:58:06.716,-4.8125,-24.4376
12:58:06.726,-4.375,-26.0001
12:58:06.736,-4.875,-26.0626
12:58:06.746,-4.3125,-26.1876
12:58:06.761,-4.4375,-27.4376
12:58:06.772,-4,-26.8126
12:58:06.782,-4,-27.4376
12:58:06.791,-3.8125,-26.7501
12:58:06.803,-3.25,-26.4376
12:58:06.811,-3.625,-25.3126
12:58:06.837,-3,-22.7501
12:58:06.838,-0.75,-17.1876
12:58:06.849,2.9375,-7.0625
12:58:06.852,7.0625,3.5625
12:58:06.877,10,13
12:58:06.881,12.25,20.2501
12:58:06.882,13.8126,25.8751
12:58:06.913,14.4376,28.6876
12:58:06.916,14.7501,31.3751
12:58:06.918,14.8751,30.8751
12:58:06.955,14.1251,32.3126
12:58:06.956,13.8126,30.0001
12:58:06.959,13.4376,30.6251
12:58:06.960,12.9375,28.2501
12:58:06.967,12.0625,26.5626
12:58:06.977,11.125,25.9376
12:58:06.984,11.1875,24.0001
12:58:06.999,10.5625,23.5626
12:58:07.002,10.625,22.0626
12:58:07.014,8.9375,19.5626
12:58:07.029,7.8125,19.5001
12:58:07.032,7.8125,16.9376
12:58:07.041,7.4375,14.6251
12:58:07.052,6.5,12.5625
12:58:07.062,6.3125,11.9375
12:58:07.072,5.25,10.75
12:58:07.084,5.625,9.375
12:58:07.091,5.25,8.0625
12:58:07.101,5.125,6.9375
12:58:07.111,4.5625,6.3125
12:58:07.123,4.1875,5.5625
12:58:07.131,3.625,6
12:58:07.141,4.4375,4.8125
12:58:07.151,3.75,3.125
12:58:07.162,3.0625,2.25
12:58:07.171,2.3125,1.375
12:58:07.182,2.1875,1.125
12:58:07.192,1.9375,-0.4375
12:58:07.201,1.75,-2.625
12:58:07.211,0.875,-3.625
12:58:07.221,0.125,-4.3125
12:58:07.232,0.625,-6.4375
12:58:07.242,0.375,-8
12:58:07.252,-0.1875,-9.9375
12:58:07.262,-0.9375,-11.5
12:58:07.273,-1.25,-11.8125
12:58:07.282,-2.25,-13.2501
12:58:07.292,-1.9375,-15.3751
12:58:07.301,-2,-17.0001
12:58:07.312,-2.9375,-19.0001
12:58:07.322,-3.3125,-18.3126
12:58:07.332,-3.25,-20.1251
12:58:07.341,-2.375,-21.0001
12:58:07.352,-3.25,-21.9376
12:58:07.362,-3.4375,-21.7501
12:58:07.371,-3.5,-22.6876
12:58:07.381,-3.1875,-23.8751
12:58:07.391,-3.5,-23.2501
12:58:07.403,-2.5,-23.7501
12:58:07.412,-3.3125,-24.3126
12:58:07.421,-4.0625,-24.3751
12:58:07.432,-3.5,-25.0626
12:58:07.441,-2.6875,-25.7501
12:58:07.452,-3,-24.8751
12:58:07.462,-2.75,-25.6251
12:58:07.473,-2.4375,-24.1251
12:58:07.482,-1.75,-24.5626
12:58:07.491,-2.1875,-24.1251
12:58:07.501,-2.375,-22.8751
12:58:07.511,-1.1875,-22.9376
12:58:07.522,-0.8125,-18.8751
12:58:07.533,2.6875,-12
12:58:07.542,5.625,-2.1875
12:58:07.552,9.125,7.5625
12:58:07.562,12.25,15.1876
12:58:07.572,13.3126,21.6876
12:58:07.581,15.2501,25.5626
12:58:07.591,14.9376,28.1251
12:58:07.624,15.8751,29.7501
12:58:07.628,14.6251,29.0626
12:58:07.631,15.0626,28.3126
12:58:07.634,13.8751,28.3126
12:58:07.659,14.0626,27.1251
12:58:07.661,12.5,24.6251
12:58:07.663,12.4375,22.8126
12:58:07.696,11.125,21.1876
12:58:07.699,10.125,21.7501
12:58:07.701,9.75,19.0001
12:58:07.726,9.9375,16.4376
12:58:07.731,8.4375,16.5626
12:58:07.733,8.25,13.4376
12:58:07.733,7.875,11.8125
12:58:07.765,6.875,9.125
12:58:07.768,6.0625,8.0625
12:58:07.770,5.375,7.0625
12:58:07.773,5.125,5.875
12:58:07.787,5.9375,4.875
12:58:07.791,4.9375,3.0625
12:58:07.801,4.3125,4.0625
12:58:07.818,4.4375,3.625
12:58:07.823,5,2.25
12:58:07.838,4.25,1.0625
12:58:07.841,3.75,1.125
12:58:07.852,3.5625,0.5625
12:58:07.863,3.625,-0.9375
12:58:07.871,2.625,-2.5625
12:58:07.882,2.75,-3.25
12:58:07.891,2.3125,-4.125
12:58:07.901,1.625,-5.0625
12:58:07.912,1.1875,-5.625
12:58:07.921,1.8125,-7.625
12:58:07.931,0.875,-9.9375
12:58:07.941,0.125,-9.5
12:58:07.951,0,-11.25
12:58:07.962,0.0625,-13.3751
12:58:07.971,-0.25,-14.9376
12:58:07.981,-0.9375,-16.1876
12:58:07.993,-1.625,-17.6251
12:58:08.001,-1.9375,-19.3126
12:58:08.012,-2.125,-19.4376
12:58:08.021,-2.4375,-19.0626
12:58:08.031,-1.5625,-20.9376
12:58:08.042,-2.25,-22.5626
12:58:08.051,-2.1875,-21.4376
12:58:08.062,-2.375,-22.8126
12:58:08.071,-2.125,-21.6876
12:58:08.081,-1.5,-23.2501
12:58:08.092,-2.625,-23.0001
12:58:08.101,-1.6875,-23.2501
12:58:08.112,-2.625,-23.6251
12:58:08.121,-2.5625,-21.8126
12:58:08.131,-1.5625,-22.0626
12:58:08.141,-1.5625,-19.2501
12:58:08.152,0.9375,-15.1876
12:58:08.165,3.75,-7.75
12:58:08.172,6.6875,1.9375
12:58:08.181,10.1875,9.8125
12:58:08.193,11.375,15.1876
12:58:08.203,11.8125,20.2501
12:58:08.211,12.375,21.9376
12:58:08.230,12.625,21.5001
12:58:08.232,12.1875,23.0001
12:58:08.248,11.8125,21.8126
12:58:08.253,11.5,21.5626
12:58:08.261,11.125,18.9376
12:58:08.273,9.875,18.5626
12:58:08.282,9.3125,16.1876
12:58:08.292,8.5,15.0001
12:58:08.303,8.375,13.5001
12:58:08.311,7.125,10.75
12:58:08.340,6.4375,9.25
12:58:08.344,5.6875,7.25
12:58:08.345,5.625,4.875
12:58:08.352,4.6875,2.375
12:58:08.390,3.5,1.25
12:58:08.393,3.1875,-0.125
12:58:08.395,3.875,-1.8125
12:58:08.402,3.0625,-2.625
12:58:08.402,2.5,-3.6875
12:58:08.418,2.3125,-4.1875
12:58:08.421,2.75,-3.6875
12:58:08.453,2.75,-4.25
12:58:08.454,2.1875,-5.375
12:58:08.458,2,-4.1875
12:58:08.464,2.75,-5.0625
12:58:08.494,2.125,-6.1875
12:58:08.495,1.625,-6.5
12:58:08.499,2.25,-6.0625
12:58:08.504,2.125,-7.625
12:58:08.512,1.9375,-9.1875
12:58:08.521,1.3125,-10.125
12:58:08.536,0.625,-10.625
12:58:08.542,0.9375,-11.375
12:58:08.553,0.8125,-12.75
12:58:08.561,0.625,-14.1876
12:58:08.571,0.0625,-14.4376
12:58:08.581,0.125,-15.5001
12:58:08.592,-0.875,-17.3126
12:58:08.602,-0.75,-17.0001
12:58:08.611,-0.875,-17.1876
12:58:08.621,-0.9375,-19.5626
12:58:08.632,-0.875,-19.0626
12:58:08.642,0.0625,-18.5626
12:58:08.651,-0.875,-20.3751
12:58:08.661,-0.875,-19.9376
12:58:08.671,-0.4375,-20.6251
12:58:08.682,-0.9375,-21.1876
12:58:08.691,-0.125,-19.4376
12:58:08.701,0.125,-20.5626
12:58:08.711,-0.8125,-20.5626
12:58:08.721,-0.6875,-19.0626
12:58:08.731,-0.8125,-18.1876
12:58:08.742,1.0625,-16.0626
12:58:08.752,3.125,-8.625
12:58:08.768,7.125,-0.75
12:58:08.776,9,6.875
12:58:08.787,11.6875,15.0001
12:58:08.796,12.625,19.1876
12:58:08.807,12.5625,22.0001
12:58:08.817,13.3751,22.6251
12:58:08.828,12.5,23.0626
12:58:08.837,12.75,22.8751
12:58:08.848,11.875,21.2501
12:58:08.857,11.0625,19.1251
12:58:08.867,10.5,18.5001
12:58:08.876,10.375,16.8126
12:58:08.886,8.6875,14.4376
12:58:08.896,7.5,12.5625
12:58:08.912,7.3125,10.75
12:58:08.919,6.8125,7.6875
12:58:08.928,5.25,5
12:58:08.937,4,2.3125
12:58:08.948,3.8125,-0.0625
12:58:08.957,2.6875,-2.625
12:58:08.967,1.875,-4.8125
12:58:09.000,1.5,-5.125
12:58:09.003,0.5625,-5.625
12:58:09.004,0.9375,-8.0625
12:58:09.010,0.1875,-9
12:58:09.016,-0.125,-8.5
12:58:09.043,0.4375,-8.4375
12:58:09.046,0.4375,-9.625
12:58:09.048,0.1875,-10.5
12:58:09.082,0.1875,-11.0625
12:58:09.082,-0.8125,-10.4375
12:58:09.084,-0.4375,-10.8125
12:58:09.088,-0.5625,-12.4375
12:58:09.120,-0.6875,-13.5001
12:58:09.148,-1.3125,-14.3126
12:58:09.152,-1.4375,-14.3126
12:58:09.158,-0.875,-15.6251
12:58:09.158,-1.6875,-16.9376
12:58:09.158,-2.125,-16.1876
12:58:09.168,-2.5,-18.0626
12:58:09.172,-2.25,-18.9376
12:58:09.182,-2.0625,-20.3751
12:58:09.191,-3.0625,-19.8126
12:58:09.201,-2.25,-21.1251
12:58:09.212,-2.375,-22.5626
12:58:09.221,-2.5625,-21.1876
12:58:09.232,-2.25,-22.7501
12:58:09.242,-2.875,-22.0001
12:58:09.253,-3.0625,-22.0001
12:58:09.262,-2.5625,-22.3751
12:58:09.274,-2.75,-22.0626
12:58:09.287,-2.6875,-22.9376
12:58:09.292,-1.8125,-23.5001
12:58:09.301,-2.1875,-22.7501
12:58:09.311,-2.25,-22.9376
12:58:09.322,-2.25,-20.3751
12:58:09.333,-0.3125,-16.8126
12:58:09.341,2.375,-8.875
12:58:09.351,5.0625,0.875
12:58:09.362,8.5,8.625
12:58:09.374,10.9375,14.0626
12:58:09.381,10.875,19.0626
12:58:09.393,12.25,20.6251
12:58:09.401,11.8125,21.8126
12:58:09.412,11.625,22.6251
12:58:09.421,10.9375,20.9376
12:58:09.432,9.5,20.5001
12:58:09.443,9.4375,18.0001
12:58:09.451,8.0625,17.5001
12:58:09.461,7.9375,14.8126
12:58:09.472,7,14.3126
12:58:09.483,6.5625,11.375
12:58:09.491,5.6875,9
12:58:09.502,4.8125,8.75
12:58:09.512,4.25,4.8125
12:58:09.533,3.5625,2.8125
12:58:09.536,2.6875,1.625
12:58:09.551,2,-0.0625
12:58:09.552,2.0625,-2.6875
12:58:09.561,1.125,-4.625
12:58:09.571,0.0625,-5.9375
12:58:09.582,-0.125,-6.6875
12:58:09.592,0.3125,-7.4375
12:58:09.601,-0.375,-8.75
12:58:09.613,-0.5625,-9.3125
12:58:09.622,-0.6875,-8.5
12:58:09.633,-1,-8.875
12:58:09.641,-0.75,-10.125
12:58:09.652,-0.8125,-10.6875
12:58:09.662,-1.0625,-12.375
12:58:09.672,-1.5,-12.1875
12:58:09.682,-1.625,-12.0625
12:58:09.714,-2,-13.2501
12:58:09.719,-2.3125,-14.3751
12:58:09.719,-2.25,-16.3751
12:58:09.727,-2.6875,-17.1251
12:58:09.736,-2.3125,-18.5626
12:58:09.741,-3.0625,-19.1876
12:58:09.772,-3.5625,-19.0001
12:58:09.774,-3.5,-20.3126
12:58:09.777,-3.3125,-22.0001
12:58:09.782,-3.125,-20.9376
12:58:09.791,-3.4375,-22.6251
12:58:09.821,-3.5,-21.4376
12:58:09.823,-2.5625,-22.5626
12:58:09.825,-3.6875,-22.8751
12:58:09.834,-3.4375,-22.4376
12:58:09.858,-2.4375,-23.3126
12:58:09.861,-3.4375,-23.0001
12:58:09.863,-3.3125,-22.6876
12:58:09.878,-3.25,-24.1251
12:58:09.882,-3.3125,-23.1876
12:58:09.891,-3,-24.1251
12:58:09.901,-2.8125,-22.9376
12:58:09.912,-3.1875,-23.1876
12:58:09.922,-2.625,-23.3126
12:58:09.931,-3.0625,-21.0626
12:58:09.942,-2.125,-19.7501
12:58:09.951,0.375,-14.6251
12:58:09.961,3.6875,-5.4375
12:58:09.972,6.75,2.8125
12:58:09.981,8.875,11.0625
12:58:09.993,10.75,17.8751
12:58:10.001,11.125,20.1251
12:58:10.013,11.375,23.4376
12:58:10.021,11.375,23.2501
12:58:10.037,10.9375,22.5001
12:58:10.043,10.75,22.9376
12:58:10.053,9.75,20.5001
12:58:10.061,9.25,20.5001
12:58:10.072,9.75,18.3126
12:58:10.083,7.8125,16.4376
12:58:10.091,7.375,14.6876
12:58:10.101,6.4375,12.3125
12:58:10.112,5.625,12.0625
12:58:10.122,4.9375,8.625
12:58:10.132,4.3125,7.5
12:58:10.141,3.625,5.125
12:58:10.152,2.5,4
12:58:10.164,2.5625,1
12:58:10.172,2.125,-1.375
12:58:10.181,1,-1.9375
12:58:10.191,0.4375,-3.6875
12:58:10.202,0.8125,-3.8125
12:58:10.211,0.9375,-5.1875
12:58:10.221,0.75,-6.5625
12:58:10.232,0.25,-6.875
12:58:10.241,0.25,-6
12:58:10.251,-0.0625,-6.8125
12:58:10.281,-0.1875,-8.0625
12:58:10.284,-0.1875,-8.9375
12:58:10.286,-0.3125,-9.8125
12:58:10.292,-0.8125,-9.8125
12:58:10.302,-0.25,-9.25
12:58:10.312,0.25,-11.375
12:58:10.321,-0.4375,-12.6875
12:58:10.331,-0.9375,-12.125
12:58:10.341,-1.4375,-14.1876
12:58:10.352,-1,-15.5001
12:58:10.362,-1.4375,-15.2501
12:58:10.372,-0.6875,-16.8126
12:58:10.381,-1.875,-18.1251
12:58:10.392,-2.375,-16.5626
12:58:10.412,-1.8125,-18.6876
12:58:10.459,-1.875,-19.5001
12:58:10.459,-1.3125,-18.3126
12:58:10.462,-1.4375,-19.8751
12:58:10.469,-1.3125,-19.8126
12:58:10.469,-0.625,-19.9376
12:58:10.474,-1.25,-19.8126
12:58:10.477,-0.375,-19.6876
12:58:10.482,-1.0625,-19.8126
12:58:10.511,-1.4375,-18.3126
12:58:10.513,-0.4375,-19.0626
12:58:10.515,-0.625,-20.5001
12:58:10.524,-0.875,-18.2501
12:58:10.550,0.3125,-16.6251
12:58:10.552,2.125,-11.0625
12:58:10.554,5.5,-2.75
12:58:10.580,8.0625,5.4375
12:58:10.583,10.375,14.3751
12:58:10.586,12.5,19.2501
12:58:10.592,12.3125,21.6251
12:58:10.602,12.3125,23.8126
12:58:10.612,12.5,24.7501
12:58:10.621,12.125,23.9376
12:58:10.632,11.625,22.9376
12:58:10.644,11.1875,22.4376
12:58:10.652,10.625,19.4376
12:58:10.661,10.3125,18.6251
12:58:10.672,9.4375,16.7501
12:58:10.682,7.8125,14.8751
12:58:10.692,7.8125,13.5626
12:58:10.702,6.875,10.6875
12:58:10.711,5.6875,9.75
12:58:10.722,5.3125,7.4375
12:58:10.732,4.875,4.25
12:58:10.742,3.3125,3.125
12:58:10.752,3.875,1.1875
12:58:10.762,2.375,-1.875
12:58:10.772,2.375,-2.6875
12:58:10.787,1.5625,-2.875
12:58:10.792,2.125,-4.875
12:58:10.802,1.3125,-5.6875
12:58:10.812,1.3125,-6.25
12:58:10.829,0.625,-6.375
12:58:10.832,0.875,-7.3125
12:58:10.847,0.625,-8.75
12:58:10.852,0.1875,-8.9375
12:58:10.862,0.125,-8.375
12:58:10.871,1.0625,-9.75
12:58:10.882,0.4375,-11.125
12:58:10.892,-0.5,-11.625
12:58:10.902,-0.25,-11.5625
12:58:10.912,0.125,-13.0625
12:58:10.922,-0.875,-14.0001
12:58:10.931,-1.5625,-14.3126
12:58:10.941,-0.625,-16.0001
12:58:10.953,-1.1875,-17.0626
12:58:10.962,-1.25,-16.2501
12:58:10.972,-0.6875,-17.6876
12:58:10.981,-1.125,-18.3126
12:58:10.992,-1.125,-18.0626
12:58:11.003,-0.0625,-17.1876
12:58:11.013,-0.75,-18.2501
12:58:11.021,-1.0625,-18.0001
12:58:11.031,0.5625,-18.0626
12:58:11.041,-0.5625,-18.8126
12:58:11.051,-0.5625,-18.6251
12:58:11.061,0.125,-19.3751
12:58:11.071,-0.5625,-18.1876
12:58:11.082,0.3125,-18.3126
12:58:11.091,-0.0625,-19.8126
12:58:11.101,-0.4375,-19.3126
12:58:11.111,0.3125,-19.0001
12:58:11.122,-0.0625,-19.3751
12:58:11.132,0.3125,-18.4376
12:58:11.142,0,-19.2501
12:58:11.151,0.625,-18.5626
12:58:11.163,-0.25,-19.1876
12:58:11.171,0.375,-18.8751
12:58:11.182,0,-19.4376
12:58:11.191,0.0625,-17.6251
12:58:11.201,0.4375,-17.3126
12:58:11.211,0.9375,-16.3751
12:58:11.246,2.25,-10.25
12:58:11.248,5.9375,-2.5625
12:58:11.252,8.5,6.5625
12:58:11.278,11.1875,14.5626
12:58:11.281,12.75,20.3126
12:58:11.282,13.3126,23.7501
12:58:11.288,14.0001,24.3751
12:58:11.300,13.3126,24.8751
12:58:11.302,12.375,25.3126
12:58:11.335,12.875,23.8126
12:58:11.336,11.6875,22.3126
12:58:11.339,11,21.9376
12:58:11.348,10.625,20.1876
12:58:11.356,10.375,18.0626
12:58:11.381,9,15.6251
12:58:11.384,7.75,14.8751
12:58:11.387,7.6875,13.2501
12:58:11.392,7.125,10
12:58:11.405,5.9375,7.75
12:58:11.411,5.4375,5.5625
12:58:11.421,4.9375,5.25
12:58:11.431,4.4375,2.5
12:58:11.442,4.125,0.5
12:58:11.452,3.25,-2.125
12:58:11.461,2.75,-1.8125
12:58:11.471,3.5,-2.0625
12:58:11.483,3.125,-3.375
12:58:11.492,2.25,-4.375
12:58:11.501,2.0625,-5.5
12:58:11.512,2,-4.1875
12:58:11.522,2.4375,-5
12:58:11.561,2.125,-6.125
12:58:11.563,2,-6.8125
12:58:11.565,1.5,-7.8125
12:58:11.572,1.1875,-7.8125
12:58:11.572,0.875,-7.9375
12:58:11.582,1.1875,-10.125
12:58:11.592,0.6875,-9.9375
12:58:11.603,0.25,-11.125
12:58:11.612,0.125,-11.3125
12:58:11.622,0.125,-12.3125
12:58:11.632,0.3125,-14.6876
12:58:11.642,-0.125,-13.6876
12:58:11.652,-0.6875,-14.3126
12:58:11.661,0.25,-15.8126
12:58:11.672,0.5,-16.1251
12:58:11.682,-0.4375,-15.4376
12:58:11.692,1.0625,-16.0626
12:58:11.712,0.3125,-17.4376
12:58:11.719,-0.1875,-17.1251
12:58:11.734,0.25,-16.5626
12:58:11.736,-0.4375,-16.8751
12:58:11.744,1,-17.1876
12:58:11.752,0.1875,-18.3751
12:58:11.761,-0.375,-17.0001
12:58:11.772,0.375,-17.3751
12:58:11.782,0.1875,-18.3751
12:58:11.791,-0.8125,-18.3126
12:58:11.803,0,-17.7501
12:58:11.811,-0.4375,-18.7501
12:58:11.822,0.375,-17.5626
12:58:11.832,0,-18.0626
12:58:11.841,0.125,-18.3126
12:58:11.851,-0.125,-17.3751
12:58:11.862,0.25,-17.0001
12:58:11.877,0.9375,-15.8126
12:58:11.881,1.5,-12.375
12:58:11.914,4,-3.0625
12:58:11.917,7.25,3.625
12:58:11.919,10.5,11.0625
12:58:11.922,11.1875,17.1876
12:58:11.952,11.875,21.6251
12:58:11.954,12.8125,22.6251
12:58:11.956,12.125,22.1876
12:58:11.990,11.875,22.3126
12:58:11.993,11.4375,22.6876
12:58:11.995,10.75,20.9376
12:58:12.002,10.25,19.4376
12:58:12.004,9.4375,18.5626
12:58:12.035,9.125,16.0626
12:58:12.037,7.5,14.5001
12:58:12.039,7.5,13.5001
12:58:12.041,6.8125,10.9375
12:58:12.056,5.9375,9.1875
12:58:12.061,5.4375,8.3125
12:58:12.072,5.5,6.0625
12:58:12.082,5.125,4.0625
12:58:12.093,4.1875,1.375
12:58:12.101,3.1875,0.4375
12:58:12.112,2.6875,0.375
12:58:12.128,3.25,-0.875
12:58:12.142,3.25,-2.4375
12:58:12.145,2.875,-4.0625
12:58:12.160,2.6875,-4
12:58:12.163,1.875,-4.5
12:58:12.172,1.6875,-6.125
12:58:12.182,1.5,-5
12:58:12.191,1.75,-6.4375
12:58:12.202,1.0625,-7.5625
12:58:12.212,0.875,-8.3125
12:58:12.222,0.75,-9.9375
12:58:12.232,0.0625,-10
12:58:12.242,0.125,-10.4375
12:58:12.251,0.1875,-12
12:58:12.261,-0.3125,-13.2501
12:58:12.272,-0.5,-14.2501
12:58:12.282,-0.6875,-14.5001
12:58:12.292,-0.6875,-15.2501
12:58:12.302,-0.25,-16.3126
12:58:12.311,-1.1875,-16.8126
12:58:12.323,-1.1875,-16.6251
12:58:12.332,-0.3125,-17.0001
12:58:12.342,-0.5625,-18.1251
12:58:12.351,-1.375,-16.8751
12:58:12.362,-0.5,-17.8751
12:58:12.372,-0.625,-18.3751
12:58:12.381,-0.4375,-17.3751
12:58:12.392,0.6875,-17.5626
12:58:12.402,0.25,-17.5626
12:58:12.412,-0.6875,-16.8126
12:58:12.422,0,-17.1251
12:58:12.437,0.125,-18.1876
12:58:12.441,0.0625,-17.6251
12:58:12.451,0.5,-17.7501
12:58:12.463,-0.5625,-18.8751
12:58:12.472,-0.5,-16.6251
12:58:12.481,0,-17.5001
12:58:12.491,0.0625,-17.1876
12:58:12.501,0.8125,-12.875
12:58:12.512,4.0625,-7
12:58:12.522,6.5625,0.5
12:58:12.531,8.75,9.0625
12:58:12.541,10.9375,15.1251
12:58:12.551,12.4375,19.5626
12:58:12.562,12.9375,22.4376
12:58:12.572,12.875,24.1251
12:58:12.581,12.25,23.8751
12:58:12.591,12.4375,22.8751
12:58:12.603,11.4375,21.3751
12:58:12.612,10.6875,20.2501
12:58:12.621,10.6875,19.5626
12:58:12.631,9.875,17.5626
12:58:12.667,9,15.8126
12:58:12.669,8.125,13.8751
12:58:12.671,7.3125,11.3125
12:58:12.674,6.1875,9.125
12:58:12.704,6.0625,8.0625
12:58:12.705,5.8125,4.75
12:58:12.708,4.3125,2.25
12:58:12.715,3.25,0.75
12:58:12.747,2.5,-0.8125
12:58:12.748,2,-2.75
12:58:12.750,1.6875,-4.5625
12:58:12.758,1.625,-6.0625
12:58:12.773,1,-6.375
12:58:12.778,0.625,-6.3125
12:58:12.805,1.625,-7.5
12:58:12.809,1.1875,-8.1875
12:58:12.810,1.3125,-8.1875
12:58:12.839,0.75,-9.1875
12:58:12.841,1.0625,-8.8125
12:58:12.844,0.8125,-8.375
12:58:12.850,1.3125,-9.8125
12:58:12.859,0.625,-10.4375
12:58:12.867,0.125,-10.9375
12:58:12.878,0.25,-10.875
12:58:12.888,0.0625,-12.4375
12:58:12.897,0.5625,-14.0626
12:58:12.906,-0.375,-14.1251
12:58:12.917,-0.375,-14.5001
12:58:12.927,-0.375,-15.5626
12:58:12.937,0.0625,-14.9376
12:58:12.946,-0.25,-16.7501
12:58:12.956,-0.3125,-17.8126
12:58:12.968,-0.5,-16.3751
12:58:12.977,0.5,-17.0001
12:58:12.986,0.125,-16.6251
12:58:12.996,0,-17.1251
12:58:13.009,0.375,-17.3751
12:58:13.026,-0.0625,-16.5001
12:58:13.029,1.0625,-16.3751
12:58:13.043,0.5,-17.6251
12:58:13.058,0.3125,-17.7501
12:58:13.060,-0.1875,-16.3751
12:58:13.069,0.5625,-17.3126
12:58:13.079,0.75,-17.8126
12:58:13.086,0.6875,-16.3751
12:58:13.097,1.4375,-16.8751
12:58:13.106,1.0625,-17.3126
12:58:13.116,0.5,-14.9376
12:58:13.127,0.8125,-14.8751
12:58:13.136,2.75,-12.0625
12:58:13.148,4.9375,-3.0625
12:58:13.158,8.3125,3.875
12:58:13.167,9.9375,9.3125
12:58:13.176,11.25,16.1876
12:58:13.187,12.3125,19.8126
12:58:13.196,12.5,21.1251
12:58:13.206,12.3125,21.0626
12:58:13.217,11.8125,20.1251
12:58:13.227,11.625,19.6876
12:58:13.244,10.25,17.3126
12:58:13.247,9.5,15.5001
12:58:13.257,8.5,15.5001
12:58:13.267,9,12.4375
12:58:13.277,7.6875,10.25
12:58:13.287,7.0625,7.625
12:58:13.297,5.4375,6.875
12:58:13.308,5.5625,3
12:58:13.317,4.9375,0.375
12:58:13.327,3.5,-0.625
12:58:13.336,3.75,-2.4375
12:58:13.347,3.125,-4.25
12:58:13.372,2.3125,-6.4375
12:58:13.373,2.0625,-7.125
12:58:13.380,1.875,-6.25
12:58:13.413,2.6875,-7.1875
12:58:13.414,2.625,-7.9375
12:58:13.443,2.125,-9
12:58:13.474,2,-9.0625
12:58:13.474,1.5625,-8.875
12:58:13.505,1.9375,-8.5
12:58:13.505,2.5625,-9.75
12:58:13.508,1.5625,-10.4375
12:58:13.508,1.5,-9.5625
12:58:13.514,2.5,-9.625
12:58:13.514,1.75,-11.25
12:58:13.514,1.8125,-12
12:58:13.534,1.6875,-11.5
12:58:13.534,2.25,-12.4375
12:58:13.543,1.5,-12.9375
12:58:13.553,1.5,-13.4376
12:58:13.562,1.625,-12.625
12:58:13.573,1.9375,-13.3751
12:58:13.582,1.6875,-13.3126
12:58:13.592,1.75,-12.5
12:58:13.601,1.9375,-13.3126
12:58:13.615,1.875,-14.0626
12:58:13.626,2.375,-13.7501
12:58:13.632,1.75,-14.5626
12:58:13.642,1.75,-13.8751
12:58:13.652,1.625,-13.3751
12:58:13.661,2.0625,-13.7501
12:58:13.671,1.5625,-14.4376
12:58:13.681,2.1875,-14.9376
12:58:13.692,2.3125,-15.4376
12:58:13.701,1.5625,-14.9376
12:58:13.711,2,-12.375
12:58:13.721,3.375,-8.1875
12:58:13.732,7.5,-1.1875
12:58:13.742,8.8125,5.75
12:58:13.753,10.8125,13.3126
12:58:13.761,12.1875,16.9376
12:58:13.771,12.8125,20.8126
12:58:13.783,13.1251,22.1876
12:58:13.792,12.875,22.3751
12:58:13.801,12.25,21.2501
12:58:13.813,11.8125,20.6876
12:58:13.822,11.5,18.3751
12:58:13.832,10.125,16.3751
12:58:13.842,9.5625,16.1251
12:58:13.852,9.6875,12.4375
12:58:13.861,7.9375,9.6875
12:58:13.872,6.9375,9.0625
12:58:13.882,6.6875,6.4375
12:58:13.892,5.875,3.3125
12:58:13.901,4.375,0.6875
12:58:13.912,3.5625,0
12:58:13.921,3.75,-2.9375
12:58:13.931,3.125,-4.6875
12:58:13.941,2.5625,-5.125
12:58:13.951,3.125,-6.5
12:58:13.961,2.6875,-7
12:58:13.971,2.25,-7.9375
12:58:13.982,2.125,-8.9375
12:58:13.992,1.75,-8.4375
12:58:14.002,1.375,-7.375
12:58:14.011,1.3125,-8.5625
12:58:14.021,2.125,-9.25
12:58:14.033,1.375,-10.875
12:58:14.042,1.3125,-9.4375
12:58:14.052,2.0625,-10.3125
12:58:14.061,1.6875,-11.125
12:58:14.071,1,-12.1875
12:58:14.081,1.25,-11.9375
12:58:14.091,1.875,-12.1875
12:58:14.120,0.8125,-14.1876
12:58:14.122,0.625,-13.8126
12:58:14.124,0.6875,-14.0001
12:58:14.132,0.5,-15.1876
12:58:14.168,0.4375,-14.8751
12:58:14.169,1.3125,-14.9376
12:58:14.172,0.5,-16.2501
12:58:14.174,0.375,-16.0626
12:58:14.202,0.3125,-15.8126
12:58:14.205,1.25,-16.2501
12:58:14.206,0.5625,-16.9376
12:58:14.214,0.5625,-16.0626
12:58:14.250,0.375,-16.0001
12:58:14.253,0.875,-16.3751
12:58:14.253,0.6875,-17.3126
12:58:14.257,0.4375,-17.4376
12:58:14.290,0.5625,-16.8126
12:58:14.291,0.75,-17.2501
12:58:14.293,0.625,-17.5626
12:58:14.298,0.25,-14.8751
12:58:14.302,2.25,-12.0625
12:58:14.319,5,-4.375
12:58:14.321,7.375,5.3125
12:58:14.335,10.25,12.4375
12:58:14.352,12.0625,18.6251
12:58:14.357,12.625,22.3751
12:58:14.368,12.1875,25.3126
12:58:14.372,13.0625,24.9376
12:58:14.388,12.0625,23.8751
12:58:14.404,11.125,22.9376
12:58:14.407,10.875,22.5626
12:58:14.413,10.3125,19.8126
12:58:14.422,9,17.5001
12:58:14.431,8.4375,16.3751
12:58:14.442,7.9375,15.2501
12:58:14.451,7.375,12.6875
12:58:14.462,5.875,10.625
12:58:14.472,5.9375,8.4375
12:58:14.482,4.9375,5.875
12:58:14.492,4.125,3.625
12:58:14.501,3.25,2.4375
12:58:14.513,2.375,0.4375
12:58:14.521,2.4375,-1.375
12:58:14.532,2.5625,-2.6875
12:58:14.541,1.9375,-4
12:58:14.552,1.375,-4.4375
12:58:14.561,1.5625,-4.375
12:58:14.573,2,-5.125
12:58:14.584,1.875,-5.875
12:58:14.592,1.6875,-6.25
12:58:14.601,0.9375,-5.625
12:58:14.611,1.6875,-6.1875
12:58:14.622,1.625,-7.125
12:58:14.632,0.75,-8.375
12:58:14.642,0.6875,-7.5625
12:58:14.653,1.75,-9.25
12:58:14.662,0.4375,-10.125
12:58:14.672,0.5625,-11.75
12:58:14.681,-0.25,-11.375
12:58:14.692,0.375,-12.375
12:58:14.701,-0.375,-14.0001
12:58:14.712,-0.75,-14.1251
12:58:14.722,-0.25,-14.3126
12:58:14.732,-0.0625,-15.8126
12:58:14.744,-0.9375,-16.5001
12:58:14.761,-1.0625,-16.3126
12:58:14.764,-1.125,-16.8126
12:58:14.778,-1.1875,-17.5626
12:58:14.792,-0.9375,-17.8751
12:58:14.796,-1.125,-17.3126
12:58:14.804,-0.625,-18.8751
12:58:14.812,-1.625,-19.3126
12:58:14.821,-1.5625,-17.9376
12:58:14.832,-0.375,-18.1251
12:58:14.841,-1.0625,-19.1876
12:58:14.876,-1.6875,-17.8751
12:58:14.877,-0.9375,-18.7501
12:58:14.880,-1.0625,-18.1251
12:58:14.883,-0.1875,-16.4376
12:58:14.915,1.75,-11.3125
12:58:14.916,4.4375,-3.5
12:58:14.919,6.875,7.8125
12:58:14.925,9.8125,15.3751
12:58:14.957,11.875,20.3126
12:58:14.958,11.8125,24.6251
12:58:14.960,12.25,25.7501
12:58:14.964,13.0625,26.5626
12:58:14.995,12.6875,25.2501
12:58:14.999,11.5625,26.9376
12:58:15.000,11.75,24.4376
12:58:15.010,10.5,22.9376
12:58:15.014,10.1875,21.9376
12:58:15.032,9,20.3751
12:58:15.035,8.5625,19.1251
12:58:15.041,7.9375,16.3751
12:58:15.051,7.25,14.4376
12:58:15.061,6.0625,13.3751
12:58:15.071,5.5,11.25
12:58:15.081,5.25,9.125
12:58:15.091,5.125,6.9375
12:58:15.102,4.3125,4.3125
12:58:15.118,3,3.75
12:58:15.121,2.875,2.0625
12:58:15.132,2.3125,-0.75
12:58:15.142,1.5625,-1.8125
12:58:15.152,1.6875,-1.6875
12:58:15.162,1.1875,-1.6875
12:58:15.172,2.0625,-3.1875
12:58:15.181,1,-4.4375
12:58:15.191,1.125,-4.9375
12:58:15.201,1.5,-5.9375
12:58:15.212,0.5,-5.5625
12:58:15.222,0.5,-6.0625
12:58:15.231,0.875,-7
12:58:15.241,0.5,-8.1875
12:58:15.252,0.0625,-8.5625
12:58:15.262,-0.125,-9.125
12:58:15.272,0.3125,-10.1875
12:58:15.281,-0.4375,-11.3125
12:58:15.291,-0.5625,-12.5625
12:58:15.302,-1.0625,-13.2501
12:58:15.312,-0.5625,-14.5001
12:58:15.322,-1.0625,-15.9376
12:58:15.331,-1.5625,-15.4376
12:58:15.341,-1,-17.0626
12:58:15.352,-1.4375,-17.6251
12:58:15.362,-1.3125,-17.3751
12:58:15.371,-0.6875,-17.5626
12:58:15.399,-0.875,-18.6876
12:58:15.401,-1.25,-19.3751
12:58:15.404,-1.1875,-18.8126
12:58:15.413,-0.0625,-18.5626
12:58:15.422,-0.6875,-19.1251
12:58:15.431,-0.3125,-18.0001
12:58:15.441,0.75,-17.3751
12:58:15.451,2.0625,-16.8751
12:58:15.462,3.5,-14.6251
12:58:15.473,4,-15.0001
12:58:15.481,4.75,-14.0626
12:58:15.497,6.1875,-12.5625
12:58:15.502,6.3125,-12.3125
12:58:15.513,7.3125,-8.875
12:58:15.523,9.3125,-8.5625
12:58:15.531,10.1875,-4.8125
12:58:15.550,14.5001,3.375
12:58:15.553,19.1251,13.7501
12:58:15.579,22.5626,25.0001
12:58:15.581,26.5001,34.6251
12:58:15.583,27.3126,42.0002
12:58:15.616,29.9376,47.5002
12:58:15.617,30.4376,51.0627
12:58:15.619,30.9376,53.3127
12:58:15.621,30.7501,55.7502
12:58:15.653,30.8751,56.0002
12:58:15.655,30.5001,55.0002
12:58:15.656,30.5001,54.5002
12:58:15.661,29.8751,53.3127
12:58:15.700,29.4376,52.6252
12:58:15.726,28.5001,51.8127
12:58:15.741,27.7501,49.1877
12:58:15.745,26.9376,47.1877
12:58:15.745,25.5626,45.3127
12:58:15.760,25.0001,44.6252
12:58:15.761,23.8751,41.1877
12:58:15.763,23.1251,39.1251
12:58:15.763,21.4376,38.5001
12:58:15.767,21.5001,35.7501
12:58:15.776,20.4376,33.5001
12:58:15.787,18.8751,31.3126
12:58:15.797,18.0626,29.6876
12:58:15.806,17.2501,28.6251
12:58:15.817,16.6251,26.6876
12:58:15.826,15.5626,24.7501
12:58:15.836,14.5001,22.5001
12:58:15.848,13.125,21.0626
12:58:15.856,13,19.2501
12:58:15.872,10.9375,17.9376
12:58:15.880,10.25,16.5626
12:58:15.886,9.5,15.3126
12:58:15.897,8.5625,13.3126
12:58:15.906,7.375,11.25
12:58:15.917,6.1875,7.6875
12:58:15.926,4.25,3.8125
12:58:15.938,3.625,2.1875
12:58:15.947,1.875,-1.25
12:58:15.957,0.1875,-4.3125
12:58:15.967,-1.1875,-6.5
12:58:15.976,-2.25,-9.375
12:58:15.987,-3.375,-12.625
12:58:15.996,-4.6875,-15.5001
12:58:16.006,-5.125,-16.8126
12:58:16.016,-6.4375,-18.3126
12:58:16.028,-6.3125,-20.5626
12:58:16.037,-7,-22.6876
12:58:16.047,-7.875,-24.6876
12:58:16.057,-8.5,-23.8751
12:58:16.067,-8.9375,-25.0001
12:58:16.086,-8.5,-27.0626
12:58:16.089,-8.125,-28.1251
12:58:16.100,-9.1875,-29.6251
12:58:16.107,-10.4375,-29.8126
12:58:16.124,-10.0625,-30.8126
12:58:16.129,-10.9375,-32.1876
12:58:16.136,-11.6875,-33.0626
12:58:16.147,-12.25,-33.6251
12:58:16.157,-12.0625,-33.5001
12:58:16.167,-12.5,-32.3751
12:58:16.178,-11.1875,-29.0626
12:58:16.187,-8.3125,-20.6876
12:58:16.196,-5.125,-13.3126
12:58:16.208,-3.75,-4.6875
12:58:16.217,-0.9375,0.6875
12:58:16.227,0.25,5.8125
12:58:16.237,1.0625,11.8125
12:58:16.248,2.75,14.0001
12:58:16.257,3.375,15.4376
12:58:16.266,3.125,16.5626
12:58:16.277,3.125,18.0001
12:58:16.287,3.8125,16.6876
12:58:16.298,3.5625,14.6876
12:58:16.307,2.9375,15.6876
12:58:16.317,3.5,14.3751
12:58:16.340,3.5,13.6876
12:58:16.343,2.9375,14.1876
12:58:16.347,3.6875,11.8125
12:58:16.376,2.375,10.125
12:58:16.379,2.5,10.625
12:58:16.380,2.125,7.8125
12:58:16.389,1.625,6.875
12:58:16.412,1.875,5.75
12:58:16.414,0.625,5.125
12:58:16.416,0.8125,3.625
12:58:16.442,1.4375,2.5625
12:58:16.444,0.75,1.4375
12:58:16.447,1.4375,1.9375
12:58:16.480,1.1875,1.75
12:58:16.481,1.5,0.9375
12:58:16.483,1.25,0.9375
12:58:16.492,1.3125,2.125
12:58:16.498,2.375,2
12:58:16.512,2.0625,1.75
12:58:16.517,2.3125,0.9375
12:58:16.527,2.25,-0.3125
12:58:16.537,1.875,-0.1875
12:58:16.546,2.625,0
12:58:16.556,2.375,-0.5625
12:58:16.568,2.1875,-1.875
12:58:16.577,1.875,-3.375
12:58:16.586,1.5625,-4.25
12:58:16.597,1.1875,-6.5
12:58:16.607,1,-6.5
12:58:16.623,1.4375,-8.0625
12:58:16.628,0.625,-9.625
12:58:16.637,0.5625,-11.125
12:58:16.646,0,-12.8125
12:58:16.679,-0.875,-13.5626
12:58:16.684,-1,-13.6251
12:58:16.685,-0.1875,-15.6251
12:58:16.687,-0.0625,-16.4376
12:58:16.697,-0.8125,-17.8751
12:58:16.707,-1.3125,-17.8751
12:58:16.716,-1.875,-18.9376
12:58:16.726,-0.9375,-20.0001
12:58:16.737,-1.3125,-20.0001
12:58:16.749,-0.625,-19.5626
12:58:16.757,-1,-20.3126
12:58:16.766,-1.125,-21.3751
12:58:16.777,-1.4375,-21.3126
12:58:16.787,-1.625,-19.3751
12:58:16.803,-1.5,-21.0001
12:58:16.812,-1.5625,-19.1876
12:58:16.822,0,-14.7501
12:58:16.832,2.5625,-7.4375
12:58:16.842,5.0625,3
12:58:16.851,8.0625,10.4375
12:58:16.861,9.8125,15.8126
12:58:16.872,10.625,21.4376
12:58:16.881,11.5625,24.5001
12:58:16.892,11.3125,26.1251
12:58:16.902,10.625,28.0626
12:58:16.913,10.8125,26.0001
12:58:16.922,9.6875,25.7501
12:58:16.932,9.8125,24.3126
12:58:16.942,8.9375,23.1876
12:58:16.952,8.25,21.1876
12:58:16.961,7.4375,21.1251
12:58:16.971,6.6875,19.1251
12:58:16.981,6.0625,16.1251
12:58:16.998,5.5625,15.3126
12:58:17.003,5.5,13.3126
12:58:17.012,4.5,11.375
12:58:17.033,3.375,9.0625
12:58:17.039,2.5625,7.3125
12:58:17.044,2.3125,7.1875
12:58:17.056,2.625,6.4375
12:58:17.072,2.4375,4.4375
12:58:17.087,2.1875,3.5625
12:58:17.120,1.5,2.4375
12:58:17.121,1.6875,3.3125
12:58:17.124,2,3.0625
12:58:17.124,2.0625,2.375
12:58:17.124,2.0625,1.5
12:58:17.155,1.625,1
12:58:17.158,1.625,2.1875
12:58:17.160,1.75,2.125
12:58:17.163,2.25,0.1875
12:58:17.194,1.875,-0.25
12:58:17.196,1.125,-1.875
12:58:17.199,1.375,-2.8125
12:58:17.201,1.0625,-1.875
12:58:17.233,0.5,-2.875
12:58:17.234,1.1875,-4.125
12:58:17.239,0.5625,-6
12:58:17.244,0.625,-7.1875
12:58:17.261,0.625,-8.5625
12:58:17.263,0.1875,-9.8125
12:58:17.271,0.25,-10.625
12:58:17.281,-0.1875,-11.8125
12:58:17.291,-0.875,-12.6875
12:58:17.302,-0.6875,-13.2501
12:58:17.312,-0.25,-15.1876
12:58:17.321,-0.5625,-15.8751
12:58:17.332,-1.3125,-17.4376
12:58:17.342,-1.25,-17.1876
12:58:17.351,-1.5625,-18.1876
12:58:17.362,-0.875,-18.8751
12:58:17.373,-1.5625,-20.6876
12:58:17.382,-2,-20.8126
12:58:17.391,-2.4375,-21.3126
12:58:17.413,-2.1875,-21.6876
12:58:17.417,-2.9375,-23.2501
12:58:17.425,-3,-23.3751
12:58:17.433,-3.125,-22.5001
12:58:17.447,-2.5,-22.1251
12:58:17.455,-1.25,-17.4376
12:58:17.461,0.75,-10.0625
12:58:17.471,4.75,-3.5
12:58:17.482,6.3125,4.8125
12:58:17.491,8.6875,12.75
12:58:17.501,11,17.8126
12:58:17.511,12.0625,22.0626
12:58:17.521,13,25.0626
12:58:17.531,13,26.1251
12:58:17.543,13.125,27.0001
12:58:17.552,12.6875,26.3751
12:58:17.562,11.375,26.6251
12:58:17.571,11.0625,24.3126
12:58:17.581,10.25,23.0001
12:58:17.591,8.75,21.6251
12:58:17.601,7.75,20.0626
12:58:17.612,7.625,16.9376
12:58:17.622,5.9375,15.6251
12:58:17.631,5.0625,12.5625
12:58:17.642,3.4375,9.75
12:58:17.652,2.25,7.0625
12:58:17.662,0.8125,4.8125
12:58:17.672,0.3125,3.9375
12:58:17.682,-0.0625,1.1875
12:58:17.692,-0.6875,-0.8125
12:58:17.702,-1.125,-2
12:58:17.712,-1.3125,-2.625
12:58:17.722,-2.0625,-2.6875
12:58:17.732,-1.75,-2.0625
12:58:17.768,-1.0625,-2.6875
12:58:17.771,-0.875,-3.5
12:58:17.773,-1.5625,-4.0625
12:58:17.775,-1.6875,-4.375
12:58:17.785,-2.1875,-3.875
12:58:17.813,-2.8125,-3.75
12:58:17.815,-2.5,-4.625
12:58:17.817,-2,-5.5625
12:58:17.846,-1.9375,-7.1875
12:58:17.847,-2.0625,-8.25
12:58:17.849,-2.9375,-7.125
12:58:17.855,-2.3125,-9
12:58:17.866,-2.9375,-10.625
12:58:17.889,-2.4375,-10.625
12:58:17.891,-3.125,-12.1875
12:58:17.894,-3.4375,-13.5626
12:58:17.927,-3.4375,-12.875
12:58:17.928,-3.5625,-15.7501
12:58:17.930,-3.375,-17.6876
12:58:17.935,-3.625,-17.9376
12:58:17.960,-3.75,-18.2501
12:58:17.962,-4.625,-20.2501
12:58:17.964,-5.4375,-20.3126
12:58:17.973,-5.375,-22.5626
12:58:17.982,-5.8125,-23.8751
12:58:17.992,-5.125,-23.3126
12:58:18.002,-4.6875,-24.1876
12:58:18.011,-5.1875,-24.4376
12:58:18.022,-4.625,-24.3751
12:58:18.032,-4.6875,-23.0001
12:58:18.042,-3.75,-18.8126
12:58:18.052,-0.9375,-13.8751
12:58:18.062,1.6875,-7.125
12:58:18.071,5.3125,1.625
12:58:18.082,7.4375,8.1875
12:58:18.091,8.875,14.1876
12:58:18.102,11.0625,18.7501
12:58:18.112,10.9375,21.2501
12:58:18.123,11.1875,23.3126
12:58:18.132,11.5625,22.3126
12:58:18.141,10,22.4376
12:58:18.152,10.25,21.0001
12:58:18.162,9.3125,18.8126
12:58:18.172,9.4375,18.1251
12:58:18.181,8.9375,16.3751
12:58:18.191,7.75,15.0001
12:58:18.202,8.25,14.3126
12:58:18.212,6.9375,11.3125
12:58:18.221,6.1875,10.6875
12:58:18.232,6.4375,8.75
12:58:18.243,5.5,6.5625
12:58:18.251,5,4.5625
12:58:18.261,4.5625,2.9375
12:58:18.272,4.375,3.375
12:58:18.282,4.625,1.9375
12:58:18.292,3.375,0.25
12:58:18.301,2.9375,-0.375
12:58:18.312,2.8125,0.1875
12:58:18.322,3.375,-0.125
12:58:18.333,2.8125,-0.5
12:58:18.342,2.375,-0.5625
12:58:18.352,2.1875,-1.6875
12:58:18.370,1.4375,-1.4375
12:58:18.375,1.125,-1.8125
12:58:18.391,1.0625,-3.625
12:58:18.393,0.125,-4.0625
12:58:18.408,-0.4375,-6.1875
12:58:18.413,-1.6875,-8
12:58:18.421,-2.5625,-9.5625
12:58:18.432,-2.75,-10.4375
12:58:18.442,-2.75,-11.25
12:58:18.452,-3.4375,-13.0625
12:58:18.461,-4.25,-14.5001
12:58:18.471,-4.25,-14.6251
12:58:18.481,-4.25,-16.3751
12:58:18.498,-5.25,-17.6876
12:58:18.502,-5.375,-18.7501
12:58:18.512,-5.1875,-19.6876
12:58:18.521,-5.875,-21.5001
12:58:18.531,-6.4375,-22.8751
12:58:18.557,-7.0625,-21.4376
12:58:18.561,-6.1875,-23.0001
12:58:18.564,-6.0625,-24.7501
12:58:18.594,-6.5,-24.6876
12:58:18.596,-6.8125,-25.1251
12:58:18.598,-6.6875,-26.4376
12:58:18.601,-7.4375,-26.1251
12:58:18.632,-6.625,-28.0626
12:58:18.632,-7.125,-29.0001
12:58:18.637,-7,-27.8126
12:58:18.642,-7.125,-28.0626
12:58:18.656,-6.9375,-26.5626
12:58:18.663,-5.625,-22.0001
12:58:18.692,-2.625,-16.3751
12:58:18.695,-0.1875,-9.625
12:58:18.697,2.6875,0.4375
12:58:18.701,5.0625,7.375
12:58:18.717,6.125,13
12:58:18.724,7.3125,16.3751
12:58:18.733,7.875,18.3126
12:58:18.749,7.625,20.8751
12:58:18.763,8.25,21.1251
12:58:18.764,8.25,19.8126
12:58:18.780,7.875,19.1251
12:58:18.782,7.8125,18.5626
12:58:18.797,7.1875,16.9376
12:58:18.802,6.5625,17.0001
12:58:18.812,7,15.1251
12:58:18.821,5.5625,12.6875
12:58:18.832,4.6875,12.1875
12:58:18.841,4,9.625
12:58:18.852,3.5625,7.125
12:58:18.862,2.9375,6.5
12:58:18.878,2.5,3.8125
12:58:18.883,1.9375,1.125
12:58:18.892,1,0
12:58:18.901,1.25,-0.0625
12:58:18.911,1.5625,-0.875
12:58:18.921,1.5,-1.125
12:58:18.932,1.25,-0.4375
12:58:18.941,1.625,-0.9375
12:58:18.952,3,-1
12:58:18.962,1.9375,-1.625
12:58:18.972,2.0625,-2.5
12:58:18.981,1.6875,-0.5
12:58:18.991,1.8125,-1.5625
12:58:19.001,2.625,-2.4375
12:58:19.013,2.5,-2.9375
12:58:19.022,1.625,-3.1875
12:58:19.031,1.6875,-3.5625
12:58:19.041,0.75,-3.9375
12:58:19.051,1.375,-5.625
12:58:19.062,0.6875,-6.375
12:58:19.071,0.5625,-7.875
12:58:19.082,0,-7.3125
12:58:19.092,-0.125,-8.25
12:58:19.101,-0.4375,-10.125
12:58:19.111,-0.125,-10.1875
12:58:19.122,-0.1875,-11.5625
12:58:19.132,-1,-13.4376
12:58:19.142,-1.8125,-14.6251
12:58:19.152,-1.875,-14.3751
12:58:19.161,-2.625,-17.5001
12:58:19.172,-2.625,-18.6876
12:58:19.181,-3.8125,-18.1876
12:58:19.191,-3.6875,-19.8751
12:58:19.201,-3.9375,-21.1251
12:58:19.243,-4.375,-21.3126
12:58:19.245,-4.1875,-21.6876
12:58:19.245,-4.875,-22.6876
12:58:19.248,-4.125,-19.6251
12:58:19.254,-2.0625,-15.3126
12:58:19.280,0.1875,-9.3125
12:58:19.284,2.6875,-2.0625
12:58:19.285,3.9375,6.5625
12:58:19.293,6.375,11.25
12:58:19.306,7.125,17.5001
12:58:19.312,8.5625,20.2501
12:58:19.343,9.5625,21.7501
12:58:19.345,9.375,23.5626
12:58:19.347,9.75,24.1251
12:58:19.383,9.375,24.5626
12:58:19.383,9.5,23.3126
12:58:19.385,9,21.6876
12:58:19.393,8.4375,21.8126
12:58:19.394,8,20.7501
12:58:19.406,7.9375,18.8126
12:58:19.412,7.0625,17.2501
12:58:19.422,7.125,16.2501
12:58:19.432,6.5625,13.6251
12:58:19.441,5.4375,11.9375
12:58:19.452,5.0625,11
12:58:19.462,4.4375,9.3125
12:58:19.471,3.9375,7.4375
12:58:19.482,3.875,5.5625
12:58:19.491,3.1875,4.3125
12:58:19.501,3.0625,3.375
12:58:19.511,2.5,3.8125
12:58:19.522,3.25,2.9375
12:58:19.532,3.25,2.1875
12:58:19.541,2.875,1.3125
12:58:19.552,2.875,1.1875
12:58:19.561,2.5625,1.3125
12:58:19.572,2.6875,2.125
12:58:19.581,3.25,0.9375
12:58:19.591,2.875,-0.0625
12:58:19.601,2.25,-1.25
12:58:19.612,1.875,-1.75
12:58:19.621,2.5625,-2.875
12:58:19.631,1,-4.4375
12:58:19.641,0.4375,-5
12:58:19.652,0.6875,-5.9375
12:58:19.661,0.75,-8.3125
12:58:19.677,-0.0625,-9.5625
12:58:19.693,-1.125,-11.5625
12:58:19.699,-1.4375,-12.375
12:58:19.701,-2.375,-13.3751
12:58:19.718,-1.8125,-14.9376
12:58:19.724,-2.125,-16.5626
12:58:19.732,-2.8125,-18.5626
12:58:19.741,-3.375,-20.1876
12:58:19.751,-3.8125,-20.2501
12:58:19.762,-2.8125,-21.3126
12:58:19.777,-3.75,-22.2501
12:58:19.781,-4.875,-23.3126
12:58:19.792,-4.1875,-23.0001
12:58:19.801,-4.5625,-24.0626
12:58:19.814,-4.9375,-25.0626
12:58:19.821,-3.5625,-25.3751
12:58:19.831,-4.5,-25.6251
12:58:19.841,-5.3125,-26.8126
12:58:19.852,-5.0625,-25.1876
12:58:19.863,-3.75,-26.2501
12:58:19.871,-4.6875,-26.8751
12:58:19.882,-5.25,-25.1251
12:58:19.892,-4.6875,-24.4376
12:58:19.901,-3.25,-21.0626
12:58:19.912,-0.8125,-13.8126
12:58:19.921,2.125,-6.0625
12:58:19.932,4,1.6875
12:58:19.942,6.25,10.25
12:58:19.953,9,15.6251
12:58:19.979,9.5625,19.3751
12:58:19.982,10.9375,24.5001
12:58:19.984,10.75,24.5626
12:58:19.992,10.5625,25.8751
12:58:20.019,11.8125,26.1876
12:58:20.021,10.8125,25.1251
12:58:20.025,9.75,25.7501
12:58:20.051,9.4375,23.1876
12:58:20.056,8.9375,21.5001
12:58:20.059,8.5625,21.0626
12:58:20.088,9.3125,20.1251
12:58:20.117,7.8125,18.9376
12:58:20.131,7.25,17.3126
12:58:20.146,7.625,15.6251
12:58:20.146,6.5,13.9376
12:58:20.146,6,11.3125
12:58:20.147,5.0625,10.9375
12:58:20.150,5.1875,10.1875
12:58:20.155,5.5,8.8125
12:58:20.157,5.0625,7.4375
12:58:20.171,4.6875,6.125
12:58:20.177,4.1875,7.1875
12:58:20.187,4.25,6
12:58:20.196,3.75,4.5625
12:58:20.207,3.5,5.1875
12:58:20.217,3.4375,5.1875
12:58:20.226,4.1875,4.625
12:58:20.237,2.9375,3.125
12:58:20.246,3,3
12:58:20.258,2.9375,1.5625
12:58:20.267,2.8125,1.125
12:58:20.276,2.125,-0.25
12:58:20.286,1.5625,-0.625
12:58:20.297,1.875,-1.8125
12:58:20.306,2.0625,-3.1875
12:58:20.316,1.6875,-5.0625
12:58:20.327,1.5625,-5.9375
12:58:20.336,0.3125,-6
12:58:20.348,0.75,-8.1875
12:58:20.358,0.4375,-9.6875
12:58:20.367,-0.375,-11.1875
12:58:20.377,-0.625,-11.5625
12:58:20.386,-0.375,-13.5001
12:58:20.397,-1.4375,-15.1876
12:58:20.406,-1.9375,-17.4376
12:58:20.416,-2.375,-19.3126
12:58:20.427,-3,-20.0001
12:58:20.438,-2.1875,-19.5001
12:58:20.447,-2.4375,-21.0626
12:58:20.457,-2.9375,-21.3751
12:58:20.467,-3.1875,-19.9376
12:58:20.476,-1.125,-18.4376
12:58:20.486,-0.875,-15.3126
12:58:20.520,1.375,-8.875
12:58:20.521,3.875,-0.1875
12:58:20.526,6.875,6.9375
12:58:20.530,8.9375,12.3125
12:58:20.537,10.125,17.6876
12:58:20.547,11.6875,21.4376
12:58:20.557,11.875,22.8751
12:58:20.566,12,25.5626
12:58:20.576,11.6875,23.8126
12:58:20.586,10.625,23.9376
12:58:20.596,10.5625,23.8126
12:58:20.607,10.5,22.1876
12:58:20.618,9.9375,20.6251
12:58:20.626,8.375,17.5626
12:58:20.637,8.4375,17.4376
12:58:20.646,7.5625,14.1251
12:58:20.656,7.125,12.9375
12:58:20.672,6.75,12.8125
12:58:20.676,6.5,9.9375
12:58:20.704,6.5625,8.3125
12:58:20.705,5.5625,5.6875
12:58:20.708,5.875,5.5625
12:58:20.739,5.875,4.6875
12:58:20.742,6.625,4.25
12:58:20.744,6.4375,4.5
12:58:20.746,6.4375,3.5
12:58:20.777,6.1875,3.9375
12:58:20.780,6.75,5.75
12:58:20.782,7.375,6.0625
12:58:20.787,7.4375,5.4375
12:58:20.798,7.6875,5.8125
12:58:20.827,8,8.1875
12:58:20.828,9.1875,8.375
12:58:20.849,9.625,7.5
12:58:20.851,9.125,7
12:58:20.854,8.3125,5.875
12:58:20.861,7.75,6.75
12:58:20.872,7.8125,5.5625
12:58:20.881,7.625,4.125
12:58:20.892,7,2.375
12:58:20.902,6.5,2.0625
12:58:20.911,6.0625,2.125
12:58:20.927,6.875,0.375
12:58:20.937,5.625,-0.9375
12:58:20.947,5.3125,-2.0625
12:58:20.957,4.3125,-3.25
12:58:20.966,4.6875,-3.6875
12:58:20.984,4.125,-5.375
12:58:20.991,3.5,-7.375
12:58:21.005,2.4375,-9.1875
12:58:21.007,2.25,-10.125
12:58:21.023,1.6875,-11.3125
12:58:21.027,1.875,-11.875
12:58:21.036,1.625,-13.1251
12:58:21.046,1,-13.7501
12:58:21.056,1,-13.0625
12:58:21.067,1.5625,-10.9375
12:58:21.076,2.75,-5.3125
12:58:21.086,6.125,2
12:58:21.096,8.375,9.9375
12:58:21.107,10.5625,17.6876
12:58:21.117,12.75,22.3126
12:58:21.126,12.5625,24.5626
12:58:21.136,12.6875,26.6876
12:58:21.146,13,28.0626
12:58:21.158,13.8126,28.3751
12:58:21.167,13,27.4376
12:58:21.177,12.4375,27.0626
12:58:21.186,12.5,27.0626
12:58:21.197,12.5625,25.0626
12:58:21.206,11.9375,23.2501
12:58:21.217,11.3125,23.2501
12:58:21.227,11.125,21.0626
12:58:21.237,10.375,19.1251
12:58:21.248,10.3125,18.6876
12:58:21.256,10.875,17.3751
12:58:21.266,10.4375,15.9376
12:58:21.277,9.625,14.6251
12:58:21.287,10,15.3751
12:58:21.297,9.4375,13.3126
12:58:21.307,9.4375,12.125
12:58:21.316,9.25,14.1876
12:58:21.327,9.8125,13
12:58:21.338,9.6875,12.625
12:58:21.347,8.875,11.5
12:58:21.356,8.25,12.1875
12:58:21.372,9.125,12
12:58:21.382,8.8125,10.9375
12:58:21.392,8.5,10.625
12:58:21.428,8.0625,11.0625
12:58:21.431,8.375,10.3125
12:58:21.458,7.5,9.125
12:58:21.461,7.1875,7.8125
12:58:21.489,6.625,7.9375
12:58:21.489,7.125,7
12:58:21.489,7.1875,5.4375
12:58:21.490,6.4375,4.125
12:58:21.492,5.75,3.5
12:58:21.498,6.3125,1.5
12:58:21.508,5.4375,0.375
12:58:21.513,4.75,-1
12:58:21.545,5.3125,-1.3125
12:58:21.548,4.1875,-4.5
12:58:21.549,3.75,-4.25
12:58:21.551,4,-6.125
12:58:21.569,3.6875,-7.5
12:58:21.571,3.625,-8.125
12:58:21.582,3,-10
12:58:21.592,2.375,-11.125
12:58:21.602,2.625,-12.0625
12:58:21.612,2.625,-12.9375
12:58:21.621,1.875,-14.0001
12:58:21.632,1.375,-13.8751
12:58:21.642,1,-14.8126
12:58:21.651,1.6875,-14.9376
12:58:21.661,1.6875,-15.0626
12:58:21.671,2.5,-11.8125
12:58:21.681,4.25,-7.125
12:58:21.692,6.4375,-0.375
12:58:21.701,9.0625,8.9375
12:58:21.711,12.0625,17.5626
12:58:21.722,14.8126,24.0001
12:58:21.731,15.6251,30.5001
12:58:21.742,17.1251,34.6876
12:58:21.752,18.3751,36.4376
12:58:21.761,17.9376,37.0001
12:58:21.772,18.5626,38.8126
12:58:21.801,18.6251,38.6251
12:58:21.803,18.1251,37.2501
12:58:21.809,17.5626,37.4376
12:58:21.813,17.5001,36.8751
12:58:21.822,17.3126,34.8751
12:58:21.832,16.3751,33.8126
12:58:21.842,15.6251,33.2501
12:58:21.852,15.6251,31.6251
12:58:21.862,15.6251,30.2501
12:58:21.872,14.8751,29.0001
12:58:21.882,14.4376,26.6251
12:58:21.893,13.5626,26.6876
12:58:21.901,13.7501,24.4376
12:58:21.911,12.8125,22.7501
12:58:21.922,12.5625,22.6876
12:58:21.932,12.4375,20.6251
12:58:21.942,12.8125,20.0626
12:58:21.951,12.5625,19.8751
12:58:21.961,12.3125,19.0001
12:58:21.972,11.6875,18.5626
12:58:21.982,11.625,17.7501
12:58:21.991,11.25,18.5626
12:58:22.001,11.8125,17.8126
12:58:22.011,11.3125,16.3751
12:58:22.021,10.3125,17.2501
12:58:22.031,11.3125,15.3126
12:58:22.045,11,15.1876
12:58:22.052,10.5,13.5626
12:58:22.061,9.75,12.3125
12:58:22.072,9.75,11.9375
12:58:22.082,9.3125,10.1875
12:58:22.092,8.125,7.75
12:58:22.102,8,6.9375
12:58:22.111,7.1875,5.625
12:58:22.121,6.9375,4.3125
12:58:22.131,6.5,2.0625
12:58:22.141,5.6875,2.1875
12:58:22.151,6.0625,0.0625
12:58:22.161,5,-2.5
12:58:22.175,4.5625,-2.375
12:58:22.202,4.875,-4.8125
12:58:22.203,3.6875,-6.3125
12:58:22.206,3.125,-7.0625
12:58:22.212,3.125,-8.5
12:58:22.244,3,-10.1875
12:58:22.246,2.4375,-11.1875
12:58:22.249,1.9375,-10.125
12:58:22.253,3.3125,-9.75
12:58:22.293,3.9375,-6.4375
12:58:22.296,6.0625,1.125
12:58:22.325,9.1875,7.4375
12:58:22.351,11.5,14.9376
12:58:22.353,13.3126,22.3126
12:58:22.353,15.0626,28.0001
12:58:22.353,15.8751,33.3126
12:58:22.354,17.7501,34.8751
12:58:22.357,17.0626,37.1251
12:58:22.362,17.6251,38.0626
12:58:22.363,17.4376,37.0001
12:58:22.372,17.0001,36.3751
12:58:22.382,16.6251,36.9376
12:58:22.391,16.5626,35.0626
12:58:22.402,15.7501,33.4376
12:58:22.412,15.3751,32.5626
12:58:22.422,14.6876,31.6876
12:58:22.433,14.5626,29.7501
12:58:22.441,14.0001,27.5626
12:58:22.451,13.8751,26.3126
12:58:22.462,12.625,24.0626
12:58:22.473,12.75,23.1876
12:58:22.482,12.375,20.8126
12:58:22.491,11.375,20.3751
12:58:22.501,11.3125,18.6876
12:58:22.511,10.5625,17.1876
12:58:22.521,10.5,15.7501
12:58:22.531,10.25,15.6251
12:58:22.541,10.4375,15.0626
12:58:22.553,10.625,15.0001
12:58:22.562,10.3125,15.1251
12:58:22.571,10.9375,15.7501
12:58:22.583,11.5,15.8126
12:58:22.591,10.9375,14.9376
12:58:22.601,11.5,14.7501
12:58:22.613,10.875,14.5001
12:58:22.621,11.125,15.2501
12:58:22.632,11.875,14.1876
12:58:22.641,11.375,13.5626
12:58:22.651,11.125,12.375
12:58:22.661,10.125,12.6875
12:58:22.672,10.875,11.125
12:58:22.682,10.875,9.9375
12:58:22.691,-5.375,-15.0626
12:58:22.702,-9.9375,-13.7501
12:58:22.712,-12.375,-17.1876
12:58:22.722,-12.125,-19.3751
12:58:22.745,-11.3125,-20.9376
12:58:22.745,-9.4375,-17.6251
12:58:22.761,-9.5,-19.1876
12:58:22.765,-11.75,-22.6251
12:58:22.775,-13.8126,-26.5626
12:58:22.781,-16.5626,-28.6876
12:58:22.795,-17.4376,-30.1251
12:58:22.801,-17.1251,-31.0626
12:58:22.811,-17.4376,-31.0001
12:58:22.821,-17.1876,-31.5001
12:58:22.832,-17.0626,-30.6876
12:58:22.841,-16.1251,-29.0001
12:58:22.851,-14.4376,-28.6876
12:58:22.861,-14.6876,-28.0626
12:58:22.894,-13.6251,-27.6251
12:58:22.898,-13.4376,-27.5001
12:58:22.899,-13.5626,-26.3126
12:58:22.901,-12.8125,-26.2501
12:58:22.931,-13,-23.8751
12:58:22.934,-11.125,-19.3751
12:58:22.936,-8.6875,-15.0001
12:58:22.941,-7.4375,-10.1875
12:58:22.969,-5.6875,-6.875
12:58:22.972,-4.5625,-5.375
12:58:22.974,-3.375,-3.125
12:58:23.002,-2.8125,-2.125
12:58:23.005,-2.875,-2.1875
12:58:23.006,-2.1875,-2.0625
12:58:23.012,-2.6875,-2.4375
12:58:23.026,-2.625,-2.0625
12:58:23.059,-2,-5.0625
12:58:23.060,-3.4375,-5.8125
12:58:23.062,-3.25,-6.5
12:58:23.064,-3.6875,-8.75
12:58:23.088,-4.125,-10.0625
12:58:23.091,-3.4375,-10.9375
12:58:23.092,-4.5625,-12.625
12:58:23.102,-4.3125,-12
12:58:23.112,-5,-13.1251
12:58:23.121,-4,-13.8751
12:58:23.132,-4.5625,-14.6251
12:58:23.141,-4.375,-14.5626
12:58:23.152,-4.9375,-16.3126
12:58:23.162,-5.4375,-14.9376
12:58:23.171,-4.625,-16.8126
12:58:23.181,-5.3125,-15.6251
12:58:23.192,-4.5,-17.2501
12:58:23.203,-4.875,-18.0626
12:58:23.211,-4.9375,-16.8751
12:58:23.222,-4.75,-17.6876
12:58:23.232,-4.875,-17.6876
12:58:23.241,-5,-17.5001
12:58:23.252,-4.4375,-18.3751
12:58:23.261,-4.625,-17.5001
12:58:23.272,-4,-19.0001
12:58:23.281,-4.0625,-18.6251
12:58:23.291,-3.75,-18.8751
12:58:23.302,-3.625,-19.5626
12:58:23.311,-3.8125,-18.7501
12:58:23.321,-3.125,-19.0001
12:58:23.331,-3.625,-19.8751
12:58:23.341,-3.1875,-17.8751
12:58:23.352,-2.75,-20.0001
12:58:23.361,-3.125,-19.5001
12:58:23.371,-2.8125,-18.9376
12:58:23.381,-2.4375,-20.0626
12:58:23.392,-2.5,-18.8126
12:58:23.402,-2.5,-19.1251
12:58:23.411,-1.9375,-19.6251
12:58:23.421,-2.4375,-18.4376
12:58:23.431,-1.8125,-19.3751
12:58:23.441,-2.25,-20.1251
12:58:23.452,-2.625,-18.8751
12:58:23.462,-1.6875,-19.3126
12:58:23.471,-2.5,-19.1876
12:58:23.481,-1.875,-17.2501
12:58:23.491,-1.375,-14.5001
12:58:23.501,0.625,-8.875
12:58:23.511,3.75,-3.1875
12:58:23.521,4.875,1.5625
12:58:23.531,6.25,6.25
12:58:23.546,6.875,7.5625
12:58:23.553,6.6875,9.125
12:58:23.562,7.75,9.75
12:58:23.571,7.625,9.0625
12:58:23.593,6.9375,9
12:58:23.626,6.4375,8.625
12:58:23.628,6.375,6.4375
12:58:23.633,5.8125,6.1875
12:58:23.637,6,4.5
12:58:23.637,4.8125,3.3125
12:58:23.649,5.25,2.75
12:58:23.652,4.0625,0.5
12:58:23.680,3.125,-0.1875
12:58:23.681,3.3125,-2.1875
12:58:23.685,3,-3.625
12:58:23.715,2.6875,-4.9375
12:58:23.718,2,-4.625
12:58:23.720,2.5625,-5.625
12:58:23.726,2.75,-6.1875
12:58:23.754,1.9375,-7.8125
12:58:23.757,1.8125,-8.1875
12:58:23.760,2,-6.8125
12:58:23.767,2.125,-8.1875
12:58:23.772,1.9375,-8.6875
12:58:23.781,1.8125,-8.75
12:58:23.792,1.875,-10.625
12:58:23.802,1.5,-10.8125
12:58:23.811,1.5,-10
12:58:23.821,2.1875,-10.375
12:58:23.833,1.75,-11
12:58:23.841,1.5625,-9.9375
12:58:23.852,1.5,-11.8125
12:58:23.861,1.5,-12.5625
12:58:23.871,1.875,-11.5
12:58:23.881,1.875,-12.1875
12:58:23.892,1.25,-12.75
12:58:23.901,1.5,-12.75
12:58:23.911,1.625,-13.3751
12:58:23.921,1.25,-14.3126
12:58:23.931,2.0625,-12.75
12:58:23.941,1.8125,-13.8751
12:58:23.952,1.25,-13.4376
12:58:23.961,1.75,-14.0001
12:58:23.974,1.75,-14.7501
12:58:23.981,1.5,-13.1251
12:58:23.997,1.75,-13.9376
12:58:24.003,1.6875,-14.7501
12:58:24.011,1.8125,-14.6876
12:58:24.021,1.75,-13.5626
12:58:24.040,2.4375,-14.7501
12:58:24.041,1.8125,-15.6251
12:58:24.056,1.625,-15.5626
12:58:24.063,1.375,-16.2501
12:58:24.072,1.375,-15.7501
12:58:24.082,0.8125,-15.1876
12:58:24.092,0.875,-16.1876
12:58:24.102,0.5625,-16.1251
12:58:24.111,1.0625,-13.7501
12:58:24.121,2.875,-9.625
12:58:24.131,4.9375,-2.3125
12:58:24.142,7.0625,5.25
12:58:24.151,9.1875,10.5625
12:58:24.161,11.125,13.6251
12:58:24.171,11.3125,17.1876
12:58:24.183,12.3125,18.3751
12:58:24.192,12.3125,17.8751
12:58:24.201,11.1875,17.7501
12:58:24.211,11.25,17.4376
12:58:24.222,10.875,17.9376
12:58:24.261,10.3125,15.1876
12:58:24.263,9.75,13.7501
12:58:24.265,9.0625,12.9375
12:58:24.270,9,11.5625
12:58:24.272,8.5,10.75
12:58:24.281,7.8125,9.25
12:58:24.296,7.3125,6.8125
12:58:24.302,6.1875,5.1875
12:58:24.311,6.625,4.6875
12:58:24.321,6.0625,2.375
12:58:24.331,5.4375,1.375
12:58:24.360,4.5625,1.625
12:58:24.362,5.1875,0.1875
12:58:24.364,5.0625,-1.0625
12:58:24.389,4.4375,-2.5
12:58:24.392,3.875,-1.875
12:58:24.394,4.25,-2.75
12:58:24.401,4.125,-3.3125
12:58:24.425,3.75,-4.3125
12:58:24.428,3.9375,-5.25
12:58:24.456,3.1875,-5.125
12:58:24.458,4.1875,-5.5625
12:58:24.460,4,-6.25
12:58:24.463,3.125,-7.4375
12:58:24.489,2.9375,-7.625
12:58:24.492,2.75,-7.3125
12:58:24.494,3.25,-8.0625
12:58:24.512,3.4375,-8.5625
12:58:24.515,3.25,-9.25
12:58:24.523,2.5625,-10
12:58:24.533,2.9375,-9.875
12:58:24.541,2.9375,-10.5
12:58:24.551,2.25,-10.25
12:58:24.561,3.1875,-10
12:58:24.572,2.5625,-11.0625
12:58:24.582,2,-10
12:58:24.591,2.5625,-11
12:58:24.601,2.125,-11.625
12:58:24.611,2.75,-12.5625
12:58:24.621,2.3125,-11.5625
12:58:24.632,2.8125,-12.5625
12:58:24.642,1.8125,-13.1876
12:58:24.652,1.6875,-12.375
12:58:24.661,2.6875,-12.75
12:58:24.678,2.0625,-13.2501
12:58:24.682,1.5625,-13
12:58:24.692,1.5625,-12.25
12:58:24.701,2.5,-12.125
12:58:24.712,2.5,-9.5
12:58:24.722,5.3125,-3.625
12:58:24.731,7.125,2.125
12:58:24.742,7.75,7.375
12:58:24.752,9.625,10.5
12:58:24.763,10.3125,12.25
12:58:24.772,10.125,13.8126
12:58:24.782,10.875,13.5001
12:58:24.792,9.875,12.5625
12:58:24.801,9.6875,12.9375
12:58:24.812,9.4375,10.75
12:58:24.826,9,10.625
12:58:24.837,8.625,8.875
12:58:24.848,8.0625,6.875
12:58:24.857,7.8125,7
12:58:24.866,7.5625,5.125
12:58:24.876,6.4375,4.0625
12:58:24.886,6,2.875
12:58:24.902,6.9375,1.3125
12:58:24.908,6.375,-0.0625
12:58:24.923,5.3125,-1.625
12:58:24.928,5.1875,-1.1875
12:58:24.937,5.3125,-1.3125
12:58:24.946,5.8125,-2.4375
12:58:24.957,5.25,-3.375
12:58:24.966,4.375,-2.3125
12:58:24.976,4.75,-4.5
12:58:24.987,4.8125,-4.125
12:58:24.997,3.8125,-5.375
12:58:25.007,3.5,-5.5625
12:58:25.017,3.625,-6.5
12:58:25.048,3.75,-7.1875
12:58:25.050,4.125,-6.4375
12:58:25.053,5.0625,-6.875
12:58:25.058,3.9375,-8
12:58:25.086,3.8125,-8.5
12:58:25.090,3,-7.875
12:58:25.091,2.75,-7.6875
12:58:25.098,3.6875,-9.875
12:58:25.122,2.75,-10.6875
12:58:25.125,2.75,-9.4375
12:58:25.128,2.875,-10.25
12:58:25.156,2.5625,-10.75
12:58:25.159,3.5625,-10.9375
12:58:25.162,2.625,-11.375
12:58:25.167,2.375,-10.375
12:58:25.177,2.8125,-11.3125
12:58:25.203,2.5,-12.375
12:58:25.205,2.375,-12.4375
12:58:25.209,2.3125,-11.625
12:58:25.218,2.5,-12.75
12:58:25.226,1.875,-12.8125
12:58:25.237,2.8125,-12.4375
12:58:25.246,2.75,-13.5001
12:58:25.257,2.3125,-14.0001
12:58:25.266,1.75,-12.6875
12:58:25.277,2.0625,-14.1251
12:58:25.287,2,-13.4376
12:58:25.298,2.125,-11.375
12:58:25.306,3,-8.0625
12:58:25.317,5.1875,-2.5625
12:58:25.335,7.0625,1.375
12:58:25.338,8.25,6.4375
12:58:25.352,10.3125,9.375
12:58:25.358,10.125,10.375
12:58:25.366,10,11
12:58:25.376,9.6875,11.75
12:58:25.388,10.3125,11.0625
12:58:25.396,9.125,9.5
12:58:25.407,8.5625,9.6875
12:58:25.417,8.625,8.4375
12:58:25.426,8.9375,5.875
12:58:25.436,7.875,4.5625
12:58:25.447,6.4375,4.5625
12:58:25.457,7.25,2.875
12:58:25.466,6.5625,1.25
12:58:25.478,6.5,1.4375
12:58:25.487,6.375,-0.5
12:58:25.497,6.125,-1.25
12:58:25.507,5.5625,-1.5625
12:58:25.516,6.0625,-1.125
12:58:25.526,5.375,-2.625
12:58:25.537,4.75,-2.4375
12:58:25.547,5.5625,-3.5625
12:58:25.556,4.375,-4.8125
12:58:25.568,4.125,-3.9375
12:58:25.583,4.1875,-4.8125
12:58:25.588,4.4375,-5.5625
12:58:25.597,3.6875,-6.8125
12:58:25.608,3.5,-6.75
12:58:25.639,3.5,-6.875
12:58:25.641,3.75,-7.4375
12:58:25.644,3.125,-8.0625
12:58:25.648,3.4375,-8.375
12:58:25.658,3.0625,-9.9375
12:58:25.666,2.375,-8.4375
12:58:25.677,3.0625,-9.625
12:58:25.687,3.25,-9.9375
12:58:25.697,2.9375,-10
12:58:25.706,3.25,-10.8125
12:58:25.716,2.625,-10.75
12:58:25.728,2.6875,-10.4375
12:58:25.737,2.9375,-11.5
12:58:25.748,2.1875,-12.5
12:58:25.756,2.0625,-12
12:58:25.766,2.75,-11.875
12:58:25.777,2.75,-13.1876
12:58:25.786,1.8125,-13.7501
12:58:25.797,2.5,-13.1876
12:58:25.807,2.25,-14.0626
12:58:25.822,1.75,-13.5626
12:58:25.827,2.1875,-14.6251
12:58:25.858,1.6875,-15.0626
12:58:25.860,0.9375,-14.2501
12:58:25.863,1.4375,-14.5626
12:58:25.868,1.0625,-13.7501
12:58:25.893,1.5,-11.875
12:58:25.895,4.0625,-7.5
12:58:25.897,5.8125,-1.6875
12:58:25.928,7.875,5.3125
12:58:25.930,9.9375,9.25
12:58:25.933,10.125,11
12:58:25.938,11.0625,14.4376
12:58:25.969,11.5625,13.8751
12:58:25.976,10.625,13.5001
12:58:25.978,10.1875,14.3751
12:58:25.980,10.1875,13.3126
12:58:26.008,10.0625,11.1875
12:58:26.009,9.0625,9.5625
12:58:26.012,8.3125,9.5
12:58:26.019,7.9375,8.25
12:58:26.026,8.8125,6.4375
12:58:26.037,7.6875,5.125
12:58:26.046,7.3125,4.125
12:58:26.058,7.0625,3.5
12:58:26.066,6.4375,0.75
12:58:26.076,5.875,1
12:58:26.087,5.75,0.625
12:58:26.096,6.1875,-1.0625
12:58:26.108,5,-2.5625
12:58:26.116,5,-2.125
12:58:26.127,4.5,-1.625
12:58:26.137,4.4375,-2.1875
12:58:26.147,5.875,-3.25
12:58:26.156,4.625,-4.25
12:58:26.167,4.5,-5.3125
12:58:26.176,4.4375,-5.125
12:58:26.187,4.75,-5.5625
12:58:26.203,4.0625,-6.6875
12:58:26.219,2.9375,-7.0625
12:58:26.222,3.6875,-6.6875
12:58:26.226,3,-7.25
12:58:26.237,3.25,-7.8125
12:58:26.247,2.9375,-9.375
12:58:26.256,2.5,-8.375
12:58:26.266,2.4375,-9.125
12:58:26.276,3,-10.125
12:58:26.287,2.375,-9.375
12:58:26.296,2.75,-10.125
12:58:26.306,3,-11.125
12:58:26.317,2.375,-11.3125
12:58:26.326,2.75,-11.25
12:58:26.337,3,-11.9375
12:58:26.346,2.5,-11.25
12:58:26.356,2.1875,-12.0625
12:58:26.366,3.125,-12.3125
12:58:26.378,2,-12.875
12:58:26.389,1.5625,-11.6875
12:58:26.397,2.125,-13.0625
12:58:26.407,2,-13.9376
12:58:26.416,1.1875,-14.2501
12:58:26.426,2.1875,-12.75
12:58:26.436,1.625,-11.625
12:58:26.447,2.375,-7.875
12:58:26.456,5.8125,-1.125
12:58:26.468,8.4375,6.0625
12:58:26.476,11.1875,14.2501
12:58:26.504,13,17.6251
12:58:26.505,13.6876,21.1251
12:58:26.508,14.6876,23.0626
12:58:26.542,14.3751,22.9376
12:58:26.543,13.9376,24.6876
12:58:26.545,14.2501,24.4376
12:58:26.548,13.5626,22.0001
12:58:26.582,12.625,21.2501
12:58:26.583,11.6875,20.8751
12:58:26.585,11.625,18.8126
12:58:26.591,10.75,17.1876
12:58:26.606,10.4375,16.6251
12:58:26.609,9.9375,14.2501
12:58:26.662,9.3125,12.625
12:58:26.664,9.125,12.25
12:58:26.667,8.375,9.0625
12:58:26.671,7.6875,8.1875
12:58:26.673,7.4375,7.6875
12:58:26.673,6.9375,6.1875
12:58:26.678,6.125,4.0625
12:58:26.686,6.125,2.3125
12:58:26.696,5.5625,2.1875
12:58:26.707,5.375,2.4375
12:58:26.717,5.3125,1.25
12:58:26.726,5.625,1.125
12:58:26.738,5.25,-0.125
12:58:26.746,5.25,-1.1875
12:58:26.757,5.1875,-0.625
12:58:26.767,4.0625,-2.4375
12:58:26.776,3.5,-2.4375
12:58:26.786,3.75,-2.5625
12:58:26.796,3.875,-3.3125
12:58:26.807,3.8125,-4.125
12:58:26.816,3.1875,-4.375
12:58:26.827,3.125,-5.9375
12:58:26.836,3.4375,-6.75
12:58:26.846,2.8125,-6.1875
12:58:26.856,2.625,-7.75
12:58:26.866,3.875,-7.875
12:58:26.876,2.4375,-9.1875
12:58:26.887,2.25,-8.9375
12:58:26.922,3,-9.1875
12:58:26.926,2.125,-10.5
12:58:26.927,2.1875,-9.9375
12:58:26.931,1.4375,-9.625
12:58:26.937,2.1875,-11.375
12:58:26.946,1.9375,-11.9375
12:58:26.958,2.1875,-10.6875
12:58:26.966,2.8125,-11.75
12:58:26.976,1.4375,-11.25
12:58:26.986,2.25,-12.25
12:58:26.996,1.5,-12.3125
12:58:27.008,1.125,-10.875
12:58:27.017,2.1875,-9.5625
12:58:27.026,4.3125,-2.25
12:58:27.036,8.125,6.5625
12:58:27.046,11.3125,13.6251
12:58:27.057,12.375,19.6876
12:58:27.067,14.0626,25.5626
12:58:27.076,15.6251,27.5626
12:58:27.086,16.3126,28.8751
12:58:27.098,15.5001,28.3126
12:58:27.107,15.1251,30.0626
12:58:27.117,15.6876,28.1251
12:58:27.128,14.3751,27.0626
12:58:27.138,14.0001,26.0626
12:58:27.146,13.8126,24.1876
12:58:27.157,12.4375,23.6876
12:58:27.166,13,22.0001
12:58:27.176,11.5,19.9376
12:58:27.188,11,19.9376
12:58:27.196,10.4375,17.1876
12:58:27.207,9.625,15.1251
12:58:27.217,8.8125,13.5001
12:58:27.226,7.875,12.9375
12:58:27.236,8.3125,10.0625
12:58:27.247,7.375,8.875
12:58:27.279,7.3125,8.3125
12:58:27.283,7.6875,6.6875
12:58:27.284,5.4375,4.125
12:58:27.286,5.6875,4.1875
12:58:27.317,5.6875,4.375
12:58:27.319,6.3125,3.75
12:58:27.321,4.75,1.6875
12:58:27.328,4.6875,1.625
12:58:27.355,4.4375,0.875
12:58:27.358,5.4375,0.6875
12:58:27.360,3.8125,-1.4375
12:58:27.369,3.3125,-2.25
12:58:27.401,4,-3.125
12:58:27.402,3.1875,-4.3125
12:58:27.405,2.875,-5.125
12:58:27.435,2.8125,-5.625
12:58:27.436,2.875,-6.8125
12:58:27.439,2.3125,-8.125
12:58:27.443,2.1875,-8.75
12:58:27.448,2.6875,-7.875
12:58:27.459,2.6875,-9.0625
12:58:27.467,2.0625,-10.625
12:58:27.477,1.5,-10.1875
12:58:27.486,2.0625,-10.5
12:58:27.521,1.875,-11.5625
12:58:27.521,1.3125,-12.25
12:58:27.523,1,-12.4375
12:58:27.529,1.8125,-12.0625
12:58:27.536,1.5625,-12.5
12:58:27.548,1.1875,-12.5
12:58:27.557,1.75,-12.5625
12:58:27.566,1.5625,-14.0626
12:58:27.576,1,-14.5626
12:58:27.586,1.125,-14.1876
12:58:27.598,0.9375,-13.6876
12:58:27.606,0.8125,-14.6251
12:58:27.616,0.75,-15.1876
12:58:27.626,0.25,-14.1251
12:58:27.638,0.8125,-14.8126
12:58:27.647,0.5,-13.8751
12:58:27.657,1.875,-10.8125
12:58:27.666,4.875,-4.3125
12:58:27.677,8.25,4.1875
12:58:27.688,10.6875,12.9375
12:58:27.697,12.625,19.2501
12:58:27.706,14.4376,24.1876
12:58:27.716,14.5626,26.6876
12:58:27.728,15.6876,28.4376
12:58:27.736,15.7501,28.6876
12:58:27.746,14.8751,28.5001
12:58:27.757,15.0001,27.3751
12:58:27.766,13.8751,25.9376
12:58:27.776,12.8125,25.5001
12:58:27.786,13.6251,24.0001
12:58:27.797,12.25,21.4376
12:58:27.806,10.9375,20.8751
12:58:27.819,11,19.3126
12:58:27.826,9.9375,17.0001
12:58:27.837,9.4375,17.0001
12:58:27.847,8.875,15.4376
12:58:27.856,9.125,13.3126
12:58:27.866,8,11
12:58:27.883,7.25,11
12:58:27.887,7.75,8.9375
12:58:27.897,6.625,7
12:58:27.911,6.0625,6.625
12:58:27.928,5.3125,5.875
12:58:27.930,5.625,4.1875
12:58:27.946,5.75,4.25
12:58:27.947,5.4375,2.4375
12:58:27.966,4.5,3.0625
12:58:27.969,5.4375,1.625
12:58:27.997,4.8125,0.5
12:58:28.001,4.5625,-1.125
12:58:28.003,3.625,-0.0625
12:58:28.007,4.0625,-1.75
12:58:28.037,3.4375,-4
12:58:28.039,2.8125,-5.1875
12:58:28.040,2.125,-5.8125
12:58:28.047,1.8125,-5.5
12:58:28.078,2.875,-7.5
12:58:28.081,1.5,-8.9375
12:58:28.083,1.875,-7.9375
12:58:28.114,1.3125,-8.8125
12:58:28.114,2.125,-9.375
12:58:28.115,2,-10.375
12:58:28.123,1,-11.5
12:58:28.129,1.5,-11.75
12:58:28.142,1.8125,-11.4375
12:58:28.147,0.75,-11.25
12:58:28.156,1.625,-11.9375
12:58:28.166,1.3125,-13
12:58:28.201,0.9375,-13.1876
12:58:28.203,0.6875,-13
12:58:28.205,0.6875,-13.5001
12:58:28.212,1,-14.1876
12:58:28.217,0.3125,-13.4376
12:58:28.230,1.5625,-13.6251
12:58:28.237,1.4375,-14.1251
12:58:28.246,0.6875,-14.6251
12:58:28.258,0.875,-14.2501
12:58:28.268,1.375,-13.6251
12:58:28.277,0.875,-12.8125
12:58:28.286,1.375,-9.625
12:58:28.297,4.6875,-3.0625
12:58:28.306,7,4.25
12:58:28.316,9.5625,11.25
12:58:28.327,11.5,16.0001
12:58:28.336,12.25,19.5626
12:58:28.347,13.0625,22.6251
12:58:28.357,13.5001,24.1251
12:58:28.367,13.5626,22.5626
12:58:28.377,12.5625,22.1251
12:58:28.387,12.5625,21.0001
12:58:28.396,11.625,19.0001
12:58:28.406,10.6875,18.0626
12:58:28.417,10.5,17.1876
12:58:28.428,9.8125,15.0001
12:58:28.437,9.375,14.1876
12:58:28.448,9.875,12.875
12:58:28.456,8.3125,10.5625
12:58:28.466,7.9375,9.5625
12:58:28.476,7.3125,8.625
12:58:28.487,7.1875,6.5
12:58:28.496,6.4375,4
12:58:28.506,5.25,2.125
12:58:28.516,5.25,2.5625
12:58:28.526,5.6875,1
12:58:28.538,4.25,-0.625
12:58:28.546,4.1875,-1.25
12:58:28.557,3.6875,-1.1875
12:58:28.566,4.4375,-1.8125
12:58:28.577,3.625,-3.1875
12:58:28.587,3.25,-2.8125
12:58:28.596,3.5625,-4.0625
12:58:28.606,3.6875,-5
12:58:28.616,2.9375,-6.0625
12:58:28.627,2.5625,-7
12:58:28.641,2.3125,-6.8125
12:58:28.646,2.75,-6.9375
12:58:28.657,2.5625,-8.5
12:58:28.666,2.25,-9.375
12:58:28.690,1.8125,-9.375
12:58:28.692,1.875,-9.6875
12:58:28.697,2,-10.6875
12:58:28.724,2.0625,-11.625
12:58:28.726,1.6875,-10.75
12:58:28.729,2.5625,-11.375
12:58:28.762,1.5625,-11.6875
12:58:28.763,1.5,-11.4375
12:58:28.766,1.9375,-12.9375
12:58:28.768,1.375,-14.1876
12:58:28.834,1.1875,-12.6875
12:58:28.835,1.25,-13.8126
12:58:28.850,1.4375,-13.2501
12:58:28.865,2.375,-13.7501
12:58:28.870,2,-14.3126
12:58:28.870,1.375,-15.2501
12:58:28.870,1.75,-13.6876
12:58:28.873,1.9375,-14.8126
12:58:28.882,1.625,-14.6876
12:58:28.891,0.875,-12.75
12:58:28.903,1.875,-10.125
12:58:28.912,4.9375,-5.125
12:58:28.921,6.6875,2.875
12:58:28.932,9.1875,9.625
12:58:28.941,11.1875,14.1876
12:58:28.952,12,16.6251
12:58:28.961,12.875,20.0001
12:58:28.971,13.2501,20.5001
12:58:28.982,12.375,19.1876
12:58:28.992,12.25,19.1876
12:58:29.002,11.6875,18.0626
12:58:29.014,11.125,17.0626
12:58:29.024,9.5,12.9375
12:58:29.031,8.9375,11.4375
12:58:29.042,9.125,8.625
12:58:29.052,7.625,7.875
12:58:29.061,7,5.5
12:58:29.071,6.9375,3.9375
12:58:29.082,6.375,1.6875
12:58:29.092,5.0625,1.5625
12:58:29.103,5.375,-0.5625
12:58:29.111,4.625,-2.125
12:58:29.121,4.3125,-2
12:58:29.133,4.375,-2.375
12:58:29.143,4.3125,-3.375
12:58:29.152,3.875,-4.375
12:58:29.162,3.6875,-4
12:58:29.171,4.4375,-4.9375
12:58:29.181,3.4375,-6.125
12:58:29.191,3.4375,-7.125
12:58:29.201,3,-7.0625
12:58:29.211,3.1875,-7.375
12:58:29.227,2.875,-8.0625
12:58:29.235,2.875,-8.625
12:58:29.242,2.625,-9.5
12:58:29.259,2.0625,-8.75
12:58:29.266,2.8125,-9.6875
12:58:29.271,2.9375,-11
12:58:29.282,2.1875,-10.5625
12:58:29.292,2.25,-10.4375
12:58:29.301,2.6875,-12.25
12:58:29.312,1.8125,-11.75
12:58:29.323,2.0625,-11.8125
12:58:29.332,2.6875,-13.1876
12:58:29.343,1.5625,-12.9375
12:58:29.351,2.75,-13.0625
12:58:29.362,1.5625,-13.5626
12:58:29.371,1.1875,-13.6876
12:58:29.382,1.375,-13.5001
12:58:29.392,1.1875,-14.8751
12:58:29.403,1.625,-14.2501
12:58:29.435,1.0625,-15.3126
12:58:29.437,1.4375,-14.6251
12:58:29.440,1.4375,-15.6251
12:58:29.443,0.625,-16.2501
12:58:29.480,2,-14.1876
12:58:29.484,1.1875,-13.8751
12:58:29.486,2.875,-8.75
12:58:29.488,6.3125,-0.5
12:58:29.495,8.75,6.875
12:58:29.501,11.125,13.3751
12:58:29.530,12.8125,18.2501
12:58:29.534,13.5626,20.6876
12:58:29.535,13.5626,22.3126
12:58:29.543,13.3126,23.1876
12:58:29.570,13.3126,23.7501
12:58:29.573,13.3751,22.0626
12:58:29.575,13.3126,21.0001
12:58:29.581,12.5625,19.4376
12:58:29.593,11.5,17.1876
12:58:29.603,11.5625,17.3751
12:58:29.612,10.5,14.7501
12:58:29.622,9.375,13.1251
12:58:29.632,8.625,13.1876
12:58:29.641,8.5,10.25
12:58:29.652,7.4375,7.1875
12:58:29.661,6.4375,5.9375
12:58:29.671,6.1875,5
12:58:29.682,5.9375,3.25
12:58:29.692,6.3125,2.0625
12:58:29.701,5.0625,0.75
12:58:29.711,4.625,0.3125
12:58:29.722,4.8125,-0.3125
12:58:29.732,4.6875,-1.5
12:58:29.741,4.1875,-2.375
12:58:29.751,4,-2.875
12:58:29.767,3.6875,-2.75
12:58:29.772,4.1875,-3.5
12:58:29.781,3.8125,-4.625
12:58:29.792,3.0625,-5.8125
12:58:29.803,3.0625,-5.25
12:58:29.811,3.5,-6.5
12:58:29.821,2.9375,-7.4375
12:58:29.832,3.125,-7.625
12:58:29.843,2.4375,-8.5
12:58:29.852,2,-8.4375
12:58:29.862,1.9375,-8.6875
12:58:29.871,2.625,-9.375
12:58:29.881,2.75,-10.5625
12:58:29.892,2.375,-10.9375
12:58:29.903,2.875,-10.3125
12:58:29.911,3.4375,-11
12:58:29.922,1.9375,-11.875
12:58:29.932,2.1875,-10.25
12:58:29.941,2.4375,-11.9375
12:58:29.953,1.875,-11.75
12:58:29.961,2.25,-12.25
12:58:29.972,1.9375,-13.3126
12:58:29.983,2.125,-13.1876
12:58:29.992,1.6875,-12.4375
12:58:30.001,1.6875,-13.6251
12:58:30.011,1.8125,-14.3126
12:58:30.021,1.5625,-13.9376
12:58:30.031,2,-14.3751
12:58:30.041,1.625,-14.8126
12:58:30.051,1.5,-13.6876
12:58:30.063,1.9375,-14.4376
12:58:30.073,1.5,-15.3751
12:58:30.081,1.4375,-14.1876
12:58:30.092,2.1875,-13.3126
12:58:30.101,2.625,-11.75
12:58:30.111,4.3125,-6.3125
12:58:30.132,8.8125,2.875
12:58:30.144,12.875,11.6875
12:58:30.150,16.3126,21.1251
12:58:30.162,20.6876,29.5626
12:58:30.176,24.3126,35.5626
12:58:30.189,26.3126,40.3752
12:58:30.191,30.6876,46.6877
12:58:30.221,34.5626,51.5627
12:58:30.224,35.1251,54.1877
12:58:30.225,34.8126,55.8752
12:58:30.228,34.3126,55.6877
12:58:30.234,35.0001,53.6877
12:58:30.271,33.3126,52.0002
12:58:30.274,32.1251,52.1252
12:58:30.275,31.8126,50.2502
12:58:30.279,30.8751,48.2502
12:58:30.283,30.5001,48.5627
12:58:30.309,29.7501,47.1252
12:58:30.312,29.6876,45.3752
12:58:30.314,29.0626,42.8127
12:58:30.349,27.9376,40.7502
12:58:30.352,26.6251,38.1251
12:58:30.354,25.3126,36.1876
12:58:30.361,24.5001,35.5626
12:58:30.361,23.3126,34.5001
12:58:30.371,22.6876,32.2501
12:58:30.382,22.5626,31.4376
12:58:30.393,20.3126,28.3751
12:58:30.401,19.4376,27.1876
12:58:30.412,17.7501,23.1876
12:58:30.422,15.8751,20.0001
12:58:30.431,14.3126,19.6251
12:58:30.443,12.875,16.3126
12:58:30.451,12.375,12.375
12:58:30.463,10.1875,9.375
12:58:30.471,8.3125,7.125
12:58:30.482,7.625,3.5625
12:58:30.492,7,1.3125
12:58:30.501,6.4375,-1
12:58:30.514,5.4375,-3.4375
12:58:30.525,4.875,-4.875
12:58:30.541,4.4375,-7.9375
12:58:30.544,3.625,-9.625
12:58:30.558,3,-9.8125
12:58:30.574,2.875,-12.375
12:58:30.576,2.375,-14.0626
12:58:30.585,2.25,-13.6251
12:58:30.592,2.1875,-14.3751
12:58:30.604,3.0625,-14.5626
12:58:30.612,3,-15.6876
12:58:30.622,2.875,-15.3126
12:58:30.633,4.3125,-13.4376
12:58:30.641,4.4375,-11.625
12:58:30.651,4.75,-11.9375
12:58:30.663,5.5625,-12.5625
12:58:30.671,5.4375,-12.0625
12:58:30.681,6.4375,-10.625
12:58:30.692,6.6875,-10.5
12:58:30.705,6.8125,-10.6875
12:58:30.711,6.1875,-8.8125
12:58:30.722,6.4375,-9.6875
12:58:30.731,6.75,-10
12:58:30.760,5.5,-10.625
12:58:30.762,6.5625,-8.1875
12:58:30.766,9.8125,-1.0625
12:58:30.772,11.75,6.875
12:58:30.781,15.3751,16.7501
12:58:30.793,17.6876,24.5626
12:58:30.804,20.0001,30.1876
12:58:30.812,20.9376,35.3126
12:58:30.823,22.1251,40.6252
12:58:30.832,22.1876,41.3752
12:58:30.841,21.7501,41.9377
12:58:30.851,21.1876,42.3127
12:58:30.862,20.9376,41.3752
12:58:30.872,20.1251,39.7502
12:58:30.883,19.9376,40.3752
12:58:30.909,20.1876,39.1252
12:58:30.909,18.3751,35.5626
12:58:30.912,16.8751,33.0626
12:58:30.947,16.2501,31.6876
12:58:30.948,14.8751,28.3751
12:58:30.951,12.875,24.6251
12:58:30.953,10.875,23.1876
12:58:30.982,9.5625,19.5001
12:58:30.983,7.125,15.1251
12:58:30.986,5.375,12.3125
12:58:31.013,3.6875,9.25
12:58:31.015,2.9375,5.5625
12:58:31.018,0.875,2.5
12:58:31.022,-0.8125,-0.6875
12:58:31.046,-2.5625,-3.0625
12:58:31.049,-4.25,-6.5
12:58:31.074,-5.25,-10.4375
12:58:31.077,-6.75,-13.5001
12:58:31.079,-7.8125,-15.1876
12:58:31.086,-7.4375,-15.2501
12:58:31.093,-6.1875,-16.3126
12:58:31.102,-7.1875,-17.6876
12:58:31.112,-7.9375,-19.7501
12:58:31.122,-8.75,-19.8751
12:58:31.132,-8.4375,-22.1251
12:58:31.142,-9.9375,-24.3751
12:58:31.153,-11.375,-26.5626
12:58:31.161,-11.375,-28.6251
12:58:31.173,-11.1875,-28.8126
12:58:31.184,-11.4375,-28.1876
12:58:31.194,-10.5,-27.2501
12:58:31.203,-10.9375,-27.8126
12:58:31.211,-10.625,-27.4376
12:58:31.221,-10.25,-27.6251
12:58:31.231,-9.3125,-27.2501
12:58:31.241,-7.875,-24.0626
12:58:31.253,-6.25,-23.2501
12:58:31.266,-3.4375,-19.4376
12:58:31.271,-3.3125,-18.2501
12:58:31.283,-3.125,-17.2501
12:58:31.292,-2.1875,-17.3751
12:58:31.301,-2.875,-16.9376
12:58:31.314,-2.0625,-17.1876
12:58:31.321,-2.1875,-16.3751
12:58:31.333,-2.5,-14.4376
12:58:31.342,-1.1875,-14.3126
12:58:31.354,-0.375,-14.0001
12:58:31.363,2.3125,-11.25
12:58:31.371,2.25,-10.625
12:58:31.381,2.375,-9.0625
12:58:31.391,2.875,-9.125
12:58:31.403,2.1875,-10.6875
12:58:31.411,1.375,-9.5
12:58:31.422,1.625,-8.4375
12:58:31.433,3.4375,-4
12:58:31.441,6.75,5.375
12:58:31.452,9.1875,11.75
12:58:31.473,11.625,18.6876
12:58:31.479,13.3751,24.4376
12:58:31.481,14.0001,26.8126
12:58:31.491,14.0626,31.1251
12:58:31.510,15.1251,30.6251
12:58:31.516,15.4376,30.9376
12:58:31.524,14.5626,32.3751
12:58:31.532,15.3126,30.3751
12:58:31.543,13.8751,29.1251
12:58:31.551,12.9375,26.8126
12:58:31.561,13.2501,27.6251
12:58:31.572,13.0625,25.5001
12:58:31.582,11.9375,23.3751
12:58:31.591,11.0625,21.1251
12:58:31.601,9.375,16.5001
12:58:31.613,7.0625,11.1875
12:58:31.622,4.5,6.4375
12:58:31.631,3.1875,3.375
12:58:31.645,2.125,1.5625
12:58:31.651,2.375,-0.5
12:58:31.664,1.4375,-3.3125
12:58:31.705,1,-4.1875
12:58:31.706,1,-3.75
12:58:31.709,0.25,-5.375
12:58:31.711,0.25,-5.875
12:58:31.714,0.8125,-7.375
12:58:31.741,-0.125,-8.5
12:58:31.743,-0.125,-8.875
12:58:31.745,0.1875,-9.5
12:58:31.774,-0.125,-10.875
12:58:31.778,-0.4375,-12.5
12:58:31.780,-1.1875,-13.3126
12:58:31.784,-1.6875,-12.875
12:58:31.817,0.1875,-12.8125
12:58:31.819,0.5,-12.8125
12:58:31.820,0.8125,-12.25
12:58:31.842,0.875,-11.4375
12:58:31.843,1.8125,-11.125
12:58:31.846,0.75,-13
12:58:31.860,1,-13.3126
12:58:31.862,1.8125,-12.1875
12:58:31.877,2.75,-10.8125
12:58:31.892,3.25,-8.5
12:58:31.895,4.9375,-7.3125
12:58:31.910,4.8125,-7.625
12:58:31.912,3.25,-7.5625
12:58:31.923,2.5625,-8.8125
12:58:31.931,2.5625,-10.25
12:58:31.942,3.25,-9.3125
12:58:31.953,3.375,-9.5
12:58:31.962,3.4375,-9.125
12:58:31.973,4.875,-7.125
12:58:31.982,4.375,-6.625
12:58:31.991,5.375,-8.1875
12:58:32.004,5.3125,-8.3125
12:58:32.012,3.75,-7.5
12:58:32.040,4.5,-7.5
12:58:32.042,4.375,-7.625
12:58:32.044,3.6875,-7.5625
12:58:32.060,3.5625,-8
12:58:32.064,4.3125,-7.0625
12:58:32.073,4.6875,-5.8125
12:58:32.082,6.6875,0.0625
12:58:32.091,10.6875,8
12:58:32.101,13.5626,16.1876
12:58:32.112,15.6251,23.0626
12:58:32.122,16.0626,26.6251
12:58:32.131,15.8751,28.8126
12:58:32.141,16.5626,30.0001
12:58:32.153,16.7501,30.1251
12:58:32.163,16.5001,31.0626
12:58:32.171,16.5626,29.6251
12:58:32.183,15.1251,28.0001
12:58:32.193,13.3751,25.8126
12:58:32.203,12.1875,23.6251
12:58:32.212,11.125,22.0001
12:58:32.221,9.75,18.3751
12:58:32.231,8,14.0001
12:58:32.241,4.9375,11.0625
12:58:32.253,3.4375,4.875
12:58:32.263,1.0625,0.625
12:58:32.272,-0.875,-3.0625
12:58:32.283,-2.125,-4.75
12:58:32.293,-1.875,-7.3125
12:58:32.303,-3.625,-9.8125
12:58:32.311,-4.25,-10.9375
12:58:32.347,-4.5,-12.625
12:58:32.349,-4.3125,-13.5001
12:58:32.351,-4.125,-14.5626
12:58:32.354,-4,-14.4376
12:58:32.385,-4.125,-14.3126
12:58:32.387,-3.5,-14.6251
12:58:32.389,-3.9375,-15.1876
12:58:32.392,-3.5,-15.5626
12:58:32.421,-3.625,-16.5626
12:58:32.422,-4,-17.0001
12:58:32.425,-4,-16.7501
12:58:32.459,-3.125,-15.0001
12:58:32.462,-2.1875,-15.2501
12:58:32.465,-1.5,-14.6876
12:58:32.469,-1.8125,-14.3126
12:58:32.478,-1.6875,-15.7501
12:58:32.483,-1.125,-14.9376
12:58:32.513,0.6875,-13.6876
12:58:32.516,2.9375,-10.5625
12:58:32.518,4.375,-8.8125
12:58:32.522,3.625,-8.0625
12:58:32.533,3.5,-8.9375
12:58:32.541,2.5,-11.0625
12:58:32.553,1.4375,-11.8125
12:58:32.564,1.3125,-12.25
12:58:32.573,0.625,-12.9375
12:58:32.581,1,-12.4375
12:58:32.592,1.6875,-12.375
12:58:32.603,2.6875,-11.5625
12:58:32.611,3.5,-10.0625
12:58:32.622,4.625,-9.4375
12:58:32.633,3.875,-8.5
12:58:32.641,4,-9.4375
12:58:32.654,2.75,-10.5
12:58:32.663,2.3125,-9.8125
12:58:32.673,3.3125,-8.8125
12:58:32.683,4.3125,-3.75
12:58:32.692,7.125,3.4375
12:58:32.701,10.4375,9.6875
12:58:32.713,12.125,15.5001
12:58:32.722,14.2501,22.0626
12:58:32.731,17.1251,26.5001
12:58:32.741,18.0001,28.9376
12:58:32.753,17.3751,31.0001
12:58:32.762,16.3751,29.6251
12:58:32.773,14.1251,27.0001
12:58:32.783,11.5,24.3751
12:58:32.800,11,22.6251
12:58:32.806,11.1875,20.0001
12:58:32.814,10.125,19.5626
12:58:32.822,10.5,18.1251
12:58:32.837,9.1875,15.0001
12:58:32.854,8.75,12.9375
12:58:32.857,8.25,9.8125
12:58:32.866,6.125,5.875
12:58:32.877,3.375,0.0625
12:58:32.889,1.3125,-2.125
12:58:32.900,1.375,-5.8125
12:58:32.908,0.3125,-8.3125
12:58:32.917,-0.625,-10.3125
12:58:32.926,-0.9375,-9.3125
12:58:32.938,-0.9375,-10.875
12:58:32.949,0.9375,-11.125
12:58:32.958,0.9375,-11.6875
12:58:32.967,1.0625,-11.375
12:58:32.978,0.3125,-12.3125
12:58:32.987,0.3125,-12.9375
12:58:32.996,0.75,-11.5625
12:58:33.006,2.3125,-11.5625
12:58:33.019,3.8125,-9.125
12:58:33.027,4.5,-8.9375
12:58:33.039,5,-9
12:58:33.047,5.4375,-6.8125
12:58:33.056,7.125,-6.5
12:58:33.066,6.375,-6.125
12:58:33.096,6.75,-4.5
12:58:33.097,7.3125,-5.5625
12:58:33.100,7,-6.8125
12:58:33.107,6.875,-5.75
12:58:33.133,8.3125,-5.125
12:58:33.135,8.625,-4.6875
12:58:33.137,9.625,-3.25
12:58:33.168,9.625,-1.25
12:58:33.171,9.375,-2.5
12:58:33.197,7.8125,-3.875
12:58:33.226,6.25,-5.625
12:58:33.255,6,-5.75
12:58:33.257,5.5625,-6.9375
12:58:33.257,5.9375,-6.9375
12:58:33.271,6.9375,-4.875
12:58:33.273,8.375,-3.6875
12:58:33.277,7.9375,-4.1875
12:58:33.277,7.75,-3.625
12:58:33.279,7,-3.125
12:58:33.286,6,-5.1875
12:58:33.321,5.1875,-2.9375
12:58:33.324,8.0625,3.3125
12:58:33.326,11.9375,11.25
12:58:33.330,16.1876,20.5626
12:58:33.338,18.1251,26.4376
12:58:33.348,17.8126,29.9376
12:58:33.356,17.3751,33.1876
12:58:33.366,17.8126,33.1251
12:58:33.377,17.9376,33.3751
12:58:33.386,17.1251,32.8751
12:58:33.398,16.1251,31.8126
12:58:33.408,15.5626,29.6251
12:58:33.418,15.0626,28.8751
12:58:33.426,14.1876,26.6876
12:58:33.440,12.25,24.5626
12:58:33.448,11.3125,20.5626
12:58:33.457,9.125,16.8751
12:58:33.466,7.625,14.7501
12:58:33.477,6.0625,11.1875
12:58:33.487,5.3125,7.5625
12:58:33.498,4.4375,4
12:58:33.506,3.6875,3.3125
12:58:33.517,3.625,0.25
12:58:33.527,1.8125,-2.75
12:58:33.536,0.6875,-3.1875
12:58:33.548,1.125,-4.9375
12:58:33.558,0.75,-6.25
12:58:33.566,1.4375,-5.625
12:58:33.578,1.8125,-5.25
12:58:33.587,2.5625,-5.625
12:58:33.598,2.3125,-6.5
12:58:33.608,2.5,-7.375
12:58:33.617,2.6875,-5
12:58:33.626,3.75,-6.5625
12:58:33.639,4.0625,-6.5625
12:58:33.649,3.9375,-6.0625
12:58:33.656,4.0625,-5.4375
12:58:33.667,5.3125,-5.8125
12:58:33.677,4.3125,-7.4375
12:58:33.687,3.8125,-6.8125
12:58:33.698,5.1875,-6.25
12:58:33.707,4.75,-6.125
12:58:33.716,5.75,-6.1875
12:58:33.727,5,-7.5625
12:58:33.738,3.9375,-7.375
12:58:33.748,5.6875,-6.375
12:58:33.757,5.625,-6.3125
12:58:33.768,5.4375,-5.125
12:58:33.778,6.75,-5.4375
12:58:33.788,5.5625,-6.9375
12:58:33.797,4.25,-8.1875
12:58:33.829,3.6875,-7.5
12:58:33.834,3.9375,-9.3125
12:58:33.834,3.375,-9.875
12:58:33.838,3.5625,-7.75
12:58:33.871,5.625,-7.3125
12:58:33.873,5.8125,-6.5
12:58:33.875,6.625,-3.1875
12:58:33.883,8,1.5
12:58:33.899,7.9375,5.3125
12:58:33.905,10.0625,13.5001
12:58:33.926,12.375,17.9376
12:58:33.929,13.3126,23.0001
12:58:33.931,15.3751,27.5001
12:58:33.937,16.1251,29.7501
12:58:33.972,17.3126,32.7501
12:58:33.974,16.8751,33.5626
12:58:33.976,16.9376,32.6876
12:58:33.978,16.0626,30.5626
12:58:33.991,14.7501,30.5001
12:58:33.997,15.4376,29.0001
12:58:34.007,13.4376,26.5001
12:58:34.017,11.875,23.5626
12:58:34.028,10.125,21.3126
12:58:34.038,8.375,18.9376
12:58:34.046,8.25,15.0626
12:58:34.057,7,12.375
12:58:34.067,6.25,11.8125
12:58:34.076,5.875,9.125
12:58:34.086,5.3125,7.0625
12:58:34.098,3.4375,3.6875
12:58:34.107,1.5625,0.8125
12:58:34.123,0.125,-1.875
12:58:34.139,-0.375,-4.6875
12:58:34.141,-0.6875,-6.6875
12:58:34.156,-0.6875,-7.125
12:58:34.160,-0.75,-6.4375
12:58:34.173,0.5625,-7.3125
12:58:34.180,0.75,-8.25
12:58:34.190,0.9375,-8.0625
12:58:34.198,1.25,-6.5625
12:58:34.207,2.4375,-7.6875
12:58:34.221,2.5,-7.875
12:58:34.228,2.375,-7.1875
12:58:34.237,2.5,-7.75
12:58:34.247,3.625,-8
12:58:34.258,3.75,-8.4375
12:58:34.267,4.5,-6.5625
12:58:34.278,5.25,-6.1875
12:58:34.288,6.375,-5.8125
12:58:34.297,6.125,-6.125
12:58:34.308,6.25,-4.6875
12:58:34.318,6.75,-5
12:58:34.327,6.375,-5.8125
12:58:34.339,6.1875,-4.125
12:58:34.349,7.5,-4.6875
12:58:34.357,7.3125,-2.5625
12:58:34.369,8.6875,-1.6875
12:58:34.378,9.0625,-2.3125
12:58:34.389,8.0625,-2.25
12:58:34.400,7.9375,-3.125
12:58:34.408,8.1875,-3.5625
12:58:34.418,8.0625,-3.8125
12:58:34.428,8.125,-3
12:58:34.437,7.5625,-3.3125
12:58:34.448,7.3125,-4
12:58:34.457,6.375,-3.1875
12:58:34.466,5.1875,-6.875
12:58:34.477,4.4375,-6.5625
12:58:34.487,4.5625,-7.1875
12:58:34.496,4.875,-5.6875
12:58:34.508,6.625,-0.1875
12:58:34.547,10.1875,8.0625
12:58:34.549,12.1875,14.0626
12:58:34.577,12.75,20.8751
12:58:34.580,14.2501,23.5001
12:58:34.608,14.4376,27.5626
12:58:34.684,15.3126,29.4376
12:58:34.684,15.2501,29.4376
12:58:34.684,14.6251,30.1251
12:58:34.685,14.9376,30.5001
12:58:34.688,13.8126,28.6876
12:58:34.694,13.4376,28.9376
12:58:34.694,13.5001,25.8126
12:58:34.694,11,23.3126
12:58:34.704,10.0625,22.7501
12:58:34.716,10.5,20.0001
12:58:34.722,9.125,17.6876
12:58:34.733,7.5,16.3751
12:58:34.741,6.4375,13.8751
12:58:34.752,5.9375,11.75
12:58:34.768,4.875,7.5625
12:58:34.773,3.5625,3.8125
12:58:34.783,1.0625,-0.125
12:58:34.793,-0.5625,-3.9375
12:58:34.804,-2.5625,-6.75
12:58:34.814,-4.625,-9.875
12:58:34.823,-4.3125,-11.75
12:58:34.833,-3.25,-11.75
12:58:34.843,-2.5625,-11.4375
12:58:34.852,-2.0625,-12
12:58:34.863,-3.6875,-16.1251
12:58:34.872,-4.4375,-18.1251
12:58:34.883,-4.4375,-17.5626
12:58:34.892,-4.5625,-17.7501
12:58:34.902,-2.6875,-18.1251
12:58:34.913,-2.0625,-17.7501
12:58:34.922,-1.5,-16.3126
12:58:34.933,0.25,-15.2501
12:58:34.942,0.6875,-14.1251
12:58:34.952,0.5625,-12.625
12:58:34.962,0.625,-13.1251
12:58:34.972,0.1875,-13.6876
12:58:34.982,0.5,-13.9376
12:58:34.993,-0.375,-15.6876
12:58:35.003,-1.625,-17.1251
12:58:35.013,-0.6875,-17.7501
12:58:35.023,-0.5625,-17.2501
12:58:35.033,-0.5,-17.0626
12:58:35.042,0.625,-14.4376
12:58:35.053,2.125,-13.1876
12:58:35.063,2.625,-11.3125
12:58:35.072,2.9375,-9.9375
12:58:35.082,2.6875,-9.9375
12:58:35.092,2.6875,-6.125
12:58:35.102,4.375,-1.75
12:58:35.112,5.6875,3.3125
12:58:35.122,6.8125,7.8125
12:58:35.133,9.875,12.9375
12:58:35.143,11.25,16.8751
12:58:35.152,11.5625,19.7501
12:58:35.162,12.625,22.8126
12:58:35.173,11.9375,21.6876
12:58:35.183,11.75,21.0001
12:58:35.193,12,20.2501
12:58:35.203,10.9375,19.1876
12:58:35.213,10.625,19.8126
12:58:35.222,11.25,17.8751
12:58:35.233,11.125,16.6876
12:58:35.244,10.75,16.3751
12:58:35.253,10.1875,16.6251
12:58:35.285,10.625,14.8126
12:58:35.286,10.6875,13.4376
12:58:35.289,10.9375,12.9375
12:58:35.294,10.9375,13.6251
12:58:35.321,10.625,12.25
12:58:35.323,9.9375,10.875
12:58:35.325,9.75,9.75
12:58:35.354,9.0625,10
12:58:35.354,9.0625,9.9375
12:58:35.358,9.6875,9.625
12:58:35.364,9.375,9.0625
12:58:35.398,8.5625,8.125
12:58:35.399,8.375,7.375
12:58:35.403,7.625,7.6875
12:58:35.404,7.5,6.375
12:58:35.437,7,4.875
12:58:35.440,6.5,5.0625
12:58:35.454,6.6875,2.6875
12:58:35.456,5.5625,1.4375
12:58:35.473,4.25,-0.375
12:58:35.486,3.375,-1.1875
12:58:35.490,3.4375,-2.8125
12:58:35.503,-15.2501,-26.9376
12:58:35.506,-19.3751,-31.5001
12:58:35.507,-15.8751,-27.9376
12:58:35.519,-13.8751,-27.3751
12:58:35.523,-16.1876,-29.9376
12:58:35.533,-17.9376,-32.3751
12:58:35.544,-19.1251,-36.4376
12:58:35.553,-21.0626,-39.1251
12:58:35.562,-22.2501,-40.8127
12:58:35.573,-22.9376,-41.2502
12:58:35.583,-22.6876,-43.1877
12:58:35.592,-23.1251,-43.5002
12:58:35.603,-22.9376,-43.5627
12:58:35.613,-22.9376,-43.8752
12:58:35.623,-23.3751,-43.6252
12:58:35.634,-23.0626,-45.2502
12:58:35.645,-22.6251,-44.5002
12:58:35.656,-23.7501,-44.3752
12:58:35.662,-23.6251,-42.1877
12:58:35.673,-22.0001,-39.5002
12:58:35.683,-20.2501,-33.6876
12:58:35.692,-17.3751,-26.4376
12:58:35.703,-14.8751,-20.1876
12:58:35.712,-12.6875,-15.1251
12:58:35.722,-11.3125,-10.875
12:58:35.732,-8.6875,-7.625
12:58:35.743,-8.8125,-6.5
12:58:35.753,-8.375,-4.375
12:58:35.763,-7.9375,-4.9375
12:58:35.774,-7.75,-3.75
12:58:35.782,-7.375,-5.375
12:58:35.793,-7.8125,-4.8125
12:58:35.802,-7.375,-6.0625
12:58:35.813,-7.25,-6.5
12:58:35.823,-6.875,-8.1875
12:58:35.833,-7.125,-8.0625
12:58:35.843,-7.0625,-9.0625
12:58:35.853,-7.8125,-10.25
12:58:35.879,-6.875,-12.1875
12:58:35.881,-7.6875,-13.8751
12:58:35.887,-7.1875,-14.6876
12:58:35.892,-8,-16.3751
12:58:35.903,-7.9375,-17.0001
12:58:35.924,-8.125,-17.3751
12:58:35.926,-8.25,-18.1876
12:58:35.935,-8.125,-18.0626
12:58:35.942,-7.9375,-18.8751
12:58:35.957,-8.0625,-19.1876
12:58:35.966,-7.5,-19.6251
12:58:35.973,-7.625,-19.3126
12:58:36.008,-7.375,-19.7501
12:58:36.011,-7.5,-19.8751
12:58:36.012,-7.25,-19.9376
12:58:36.015,-7,-21.1876
12:58:36.048,-7.125,-20.8126
12:58:36.052,-6.6875,-22.3126
12:58:36.052,-6.9375,-22.0626
12:58:36.054,-6.4375,-22.5626
12:58:36.083,-6.625,-23.3751
12:58:36.085,-7.0625,-23.3751
12:58:36.089,-6.125,-23.5626
12:58:36.093,-6.6875,-24.4376
12:58:36.120,-6.25,-22.9376
12:58:36.122,-5.625,-23.8126
12:58:36.125,-6,-23.5626
12:58:36.134,-4.8125,-24.2501
12:58:36.165,-5.4375,-24.2501
12:58:36.167,-5.6875,-23.0001
12:58:36.169,-5.0625,-24.3126
12:58:36.173,-5.25,-24.7501
12:58:36.182,-4.8125,-24.1251
12:58:36.192,-4.6875,-24.7501
12:58:36.203,-4.8125,-24.6251
12:58:36.213,-4.4375,-24.6251
12:58:36.222,-4.5625,-24.0626
12:58:36.232,-4.0625,-24.6876
12:58:36.243,-4.875,-24.3751
12:58:36.254,-4.1875,-24.3751
12:58:36.269,-4.375,-24.1876
12:58:36.272,-4.375,-23.5001
12:58:36.282,-4.125,-21.9376
12:58:36.293,-2.25,-17.2501
12:58:36.302,0.1875,-9.9375
12:58:36.314,2.8125,-1.75
12:58:36.326,5.25,3.375
12:58:36.335,6.75,8.25
12:58:36.342,7.8125,11.6875
12:58:36.353,8.125,13.8126
12:58:36.363,9,14.5626
12:58:36.373,8.4375,16.6876
12:58:36.383,8.875,14.8126
12:58:36.393,8.5,14.0626
12:58:36.403,8.625,14.5001
12:58:36.416,7.9375,12.625
12:58:36.423,7.5625,11.25
12:58:36.433,7.5,10.375
12:58:36.442,6.9375,8.5625
12:58:36.452,5.5,8.4375
12:58:36.463,6.0625,5.75
12:58:36.475,4.375,4.5
12:58:36.482,5,2.75
12:58:36.492,4.875,1.6875
12:58:36.503,3.125,-0.3125
12:58:36.513,2.8125,-2.125
12:58:36.523,3.125,-1.8125
12:58:36.532,2.9375,-3.5
12:58:36.543,2.25,-4.6875
12:58:36.553,1.5625,-5.625
12:58:36.564,1.4375,-5.375
12:58:36.573,2.3125,-6.9375
12:58:36.582,1.6875,-7.75
12:58:36.592,0.625,-7.5625
12:58:36.602,1.125,-8.5625
12:58:36.613,0.75,-10.3125
12:58:36.623,0.5625,-10.1875
12:58:36.634,-0.0625,-9.875
12:58:36.649,0.3125,-11.0625
12:58:36.652,1,-11.9375
12:58:36.662,0.25,-13.0625
12:58:36.672,0,-12.125
12:58:36.682,-0.125,-13.1876
12:58:36.693,-0.125,-14.4376
12:58:36.724,-0.125,-14.1876
12:58:36.726,0.6875,-14.3751
12:58:36.729,0.4375,-15.6251
12:58:36.734,-0.625,-15.3751
12:58:36.760,0.1875,-15.1251
12:58:36.762,-0.125,-16.1251
12:58:36.794,-0.8125,-15.8751
12:58:36.878,0,-17.0001
12:58:36.882,-0.25,-17.2501
12:58:36.882,-1.1875,-17.6251
12:58:36.882,-0.75,-17.4376
12:58:36.882,-1.125,-18.5001
12:58:36.890,-0.875,-18.5626
12:58:36.892,-1.625,-17.9376
12:58:36.892,-1.25,-18.8751
12:58:36.898,-1.375,-17.7501
12:58:36.907,-0.9375,-17.3126
12:58:36.918,-0.0625,-15.1876
12:58:36.930,1.5,-9.1875
12:58:36.937,4.5625,-2.625
12:58:36.948,6,3.9375
12:58:36.958,8.3125,9.375
12:58:36.967,9.3125,12.5
12:58:36.983,10.0625,14.0626
12:58:36.993,10,15.8126
12:58:37.003,9.5,16.6251
12:58:37.012,10.5625,16.0001
12:58:37.026,9.6875,16.0001
12:58:37.033,10.125,15.1876
12:58:37.045,9.375,14.0626
12:58:37.052,8.75,12
12:58:37.063,6.375,4.125
12:58:37.073,6.125,2.5625
12:58:37.082,5.625,1.4375
12:58:37.093,4.75,0.25
12:58:37.103,4.5625,-0.0625
12:58:37.114,4.75,-1.8125
12:58:37.122,4.25,-3.0625
12:58:37.133,4.1875,-3
12:58:37.160,3.6875,-2.625
12:58:37.162,3.0625,-4.9375
12:58:37.167,3.25,-6.125
12:58:37.174,3.125,-5.5
12:58:37.183,4,-6.5
12:58:37.193,3.375,-7.3125
12:58:37.203,2.5625,-7.25
12:58:37.213,2.875,-8.0625
12:58:37.224,2.875,-9.5625
12:58:37.241,2.5625,-9.4375
12:58:37.244,3.375,-9.9375
12:58:37.259,2.5625,-11
12:58:37.274,2.0625,-8.8125
12:58:37.276,2.875,-11.125
12:58:37.285,2.1875,-12.5
12:58:37.293,2.25,-12
12:58:37.302,2.6875,-12.75
12:58:37.312,2.0625,-13.5626
12:58:37.322,1.9375,-14.1251
12:58:37.333,1.375,-13.1876
12:58:37.344,1.625,-14.7501
12:58:37.352,1.5625,-14.6251
12:58:37.362,1.1875,-13.6876
12:58:37.373,2.125,-15.5626
12:58:37.382,1.1875,-15.0001
12:58:37.392,1.375,-16.0001
12:58:37.408,1.5,-16.6876
12:58:37.417,1,-17.0001
12:58:37.428,1.3125,-15.4376
12:58:37.440,1.375,-16.1876
12:58:37.448,1,-15.9376
12:58:37.458,2.125,-12.4375
12:58:37.467,3.5,-8.5
12:58:37.477,6.125,-0.75
12:58:37.498,8.5,6.375
12:58:37.502,10.3125,11.3125
12:58:37.507,11.25,14.5001
12:58:37.536,11.625,17.6876
12:58:37.539,13.0625,19.3126
12:58:37.541,12.25,19.8751
12:58:37.547,11.375,18.4376
12:58:37.579,11.5625,18.7501
12:58:37.581,11.4375,17.6251
12:58:37.584,10.3125,15.6251
12:58:37.589,9.375,15.6251
12:58:37.616,9.1875,14.0001
12:58:37.619,8.9375,11.125
12:58:37.621,8.4375,11.1875
12:58:37.651,8.6875,8.875
12:58:37.654,7.1875,6.9375
12:58:37.659,6.4375,4.9375
12:58:37.661,6.125,4.9375
12:58:37.668,6.5625,3.0625
12:58:37.679,5.6875,1.375
12:58:37.688,4.6875,1.625
12:58:37.698,4.25,1
12:58:37.708,4.9375,-1
12:58:37.717,4.875,-1.75
12:58:37.727,3.625,-1.75
12:58:37.739,3.5,-2.1875
12:58:37.747,4.1875,-3
12:58:37.758,3.0625,-4.875
12:58:37.767,3.3125,-5.5
12:58:37.777,2.5625,-5.1875
12:58:37.787,3.625,-5.5625
12:58:37.799,3,-6.25
12:58:37.807,2.9375,-7.875
12:58:37.819,2.6875,-7.875
12:58:37.827,2.125,-8.0625
12:58:37.837,2.8125,-9.6875
12:58:37.848,2.1875,-10.125
12:58:37.858,1.875,-10.375
12:58:37.870,1.625,-10.1875
12:58:37.878,2.4375,-11.25
12:58:37.888,1.6875,-12.75
12:58:37.898,1.1875,-11.0625
12:58:37.908,2.125,-11.375
12:58:37.919,2.75,-13.0625
12:58:37.928,1.6875,-11.3125
12:58:37.937,2.125,-13.5626
12:58:37.948,1.125,-14.3126
12:58:37.957,2.1875,-13.6876
12:58:37.968,2.3125,-14.0626
12:58:37.978,1.3125,-14.6876
12:58:37.988,2.3125,-15.2501
12:58:37.999,0.5,-15.2501
12:58:38.007,2.125,-15.2501
12:58:38.018,1.5,-15.6251
12:58:38.027,1.125,-11.5
12:58:38.038,2.8125,-8.625
12:58:38.048,5.4375,-1.9375
12:58:38.061,8.8125,7.5
12:58:38.068,10.5,11.625
12:58:38.077,12.125,17.6876
12:58:38.088,14.1251,20.5001
12:58:38.097,13.5001,23.5626
12:58:38.109,13.6876,24.8126
12:58:38.120,14.4376,24.0626
12:58:38.133,13.7501,22.5626
12:58:38.140,12.9375,24.1251
12:58:38.154,13.0625,22.3751
12:58:38.158,12.375,21.4376
12:58:38.172,11.9375,20.3751
12:58:38.180,11.8125,19.0001
12:58:38.188,10.1875,15.3126
12:58:38.198,9.6875,15.3126
12:58:38.208,9.875,13.3751
12:58:38.217,8.6875,11.6875
12:58:38.234,7.9375,10.75
12:58:38.239,8,8.8125
12:58:38.267,7.375,6.8125
12:58:38.269,6.875,6.1875
12:58:38.272,6.25,4.9375
12:58:38.281,5.875,3.6875
12:58:38.311,6.125,2.0625
12:58:38.314,5.125,1
12:58:38.316,4.75,1.875
12:58:38.321,4.625,0.375
12:58:38.348,4.5625,-1.125
12:58:38.350,4.125,-2.5625
12:58:38.352,3.375,-3.75
12:58:38.359,3.25,-2.875
12:58:38.388,4.25,-4.25
12:58:38.390,2.875,-5.3125
12:58:38.393,2.1875,-5.75
12:58:38.397,2.75,-6.5
12:58:38.409,3.375,-7.5
12:58:38.443,3.3125,-8.125
12:58:38.445,2.6875,-9
12:58:38.447,2.125,-8.625
12:58:38.453,2.625,-9.75
12:58:38.457,2.25,-10.8125
12:58:38.468,1.5,-11.625
12:58:38.479,1.6875,-11.75
12:58:38.487,1.875,-11.625
12:58:38.498,2.125,-11.75
12:58:38.507,1,-13.3751
12:58:38.518,1.4375,-12.3125
12:58:38.529,1.1875,-14.1251
12:58:38.538,1.5625,-12.875
12:58:38.559,1.875,-14.1876
12:58:38.561,1,-15.1251
12:58:38.570,1.875,-14.5626
12:58:38.577,0.75,-15.8751
12:58:38.593,0.625,-15.2501
12:58:38.601,0.625,-14.6876
12:58:38.608,1.1875,-15.6876
12:58:38.617,0.9375,-16.6251
12:58:38.629,0.9375,-16.5626
12:58:38.637,0.0625,-16.6876
12:58:38.650,-0.0625,-15.3126
12:58:38.658,1.375,-13.6876
12:58:38.668,2.9375,-6.75
12:58:38.678,6.625,1.5
12:58:38.688,9.1875,9
12:58:38.698,10.625,15.8126
12:58:38.708,12.1875,20.7501
12:58:38.717,13.7501,23.6251
12:58:38.728,14.4376,24.9376
12:58:38.740,14.3751,26.7501
12:58:38.747,13.8751,27.6251
12:58:38.757,14.0626,27.0001
12:58:38.767,13.6251,25.9376
12:58:38.778,13.5001,25.7501
12:58:38.790,13.0625,23.2501
12:58:38.797,11.875,22.6251
12:58:38.808,12.25,21.8126
12:58:38.818,11.3125,20.0626
12:58:38.828,10.1875,18.8126
12:58:38.840,10.25,16.5626
12:58:38.847,9.125,14.8751
12:58:38.858,8.9375,13.2501
12:58:38.868,8.0625,12.5625
12:58:38.879,8,10
12:58:38.890,7.8125,8.75
12:58:38.901,6.625,7.125
12:58:38.910,5.5,6.0625
12:58:38.918,5.75,4.5
12:58:38.928,5.8125,3.375
12:58:38.961,4.75,3.5625
12:58:38.964,5.0625,2.375
12:58:38.966,4.5,0.8125
12:58:38.969,4.25,1.1875
12:58:39.001,4.3125,0.1875
12:58:39.003,4,-1.4375
12:58:39.005,3.75,-1.3125
12:58:39.007,4,-2.75
12:58:39.041,3.4375,-4.3125
12:58:39.044,3.25,-4.3125
12:58:39.047,3.3125,-5.1875
12:58:39.052,3,-6.8125
12:58:39.057,2.5625,-6.3125
12:58:39.088,3.0625,-7.6875
12:58:39.089,2.9375,-8.375
12:58:39.092,2.125,-10
12:58:39.098,2.5,-8.9375
12:58:39.117,3.0625,-10.25
12:58:39.120,2.125,-10.875
12:58:39.127,2.125,-11.9375
12:58:39.138,1.75,-11
12:58:39.148,2.4375,-12.25
12:58:39.158,1.8125,-12.5
12:58:39.168,1.875,-12.6875
12:58:39.177,2,-13.125
12:58:39.188,1.875,-14.1876
12:58:39.199,1.25,-13.7501
12:58:39.207,0.875,-14.1251
12:58:39.218,1.375,-14.7501
12:58:39.227,1.5625,-15.2501
12:58:39.238,0.9375,-16.1251
12:58:39.249,0.625,-15.6251
12:58:39.257,0.375,-15.4376
12:58:39.268,0.9375,-15.1876
12:58:39.278,0.875,-13.2501
12:58:39.288,2.375,-9.875
12:58:39.300,5.3125,-0.6875
12:58:39.308,8.25,7.5
12:58:39.318,10.3125,14.6251
12:58:39.327,12.875,19.5001
12:58:39.338,13.4376,22.3751
12:58:39.350,14.2501,24.1876
12:58:39.358,14.2501,27.0626
12:58:39.368,14.6251,26.5626
12:58:39.377,13.9376,26.5626
12:58:39.389,13.6251,25.0626
12:58:39.397,12.6875,22.9376
12:58:39.407,11.875,22.8751
12:58:39.418,11.3125,21.6251
12:58:39.428,11.75,19.4376
12:58:39.439,10.0625,17.3751
12:58:39.455,9.375,16.1251
12:58:39.461,9.25,15.3751
12:58:39.468,9.3125,13.5001
12:58:39.478,8.5,11.3125
12:58:39.492,6.6875,9.0625
12:58:39.509,5.8125,7.5625
12:58:39.511,5.875,6.4375
12:58:39.517,5.5625,5
12:58:39.529,5.25,2.5
12:58:39.537,4.625,3.1875
12:58:39.547,4.3125,2.375
12:58:39.558,4.0625,1.0625
12:58:39.568,4.25,-0.3125
12:58:39.578,3.5,-0.3125
12:58:39.588,3.0625,-1.125
12:58:39.598,3.375,-2.6875
12:58:39.608,3.375,-3.9375
12:58:39.619,2.625,-5.125
12:58:39.628,2.3125,-4.5
12:58:39.637,2.75,-6.0625
12:58:39.655,2.5,-7.25
12:58:39.660,2.375,-7.8125
12:58:39.668,1.9375,-7.3125
12:58:39.678,2.0625,-8.75
12:58:39.722,2.4375,-9.6875
12:58:39.723,2.0625,-10.3125
12:58:39.727,1.125,-10.5625
12:58:39.752,1.4375,-9.875
12:58:39.752,2.3125,-11.375
12:58:39.754,1.6875,-12.3125
12:58:39.756,1.25,-12.5
12:58:39.765,0.875,-12.875
12:58:39.768,1,-14.3126
12:58:39.800,0.5625,-14.0001
12:58:39.801,1.6875,-14.3751
12:58:39.806,0.5625,-15.3751
12:58:39.810,0.375,-14.3751
12:58:39.836,0.0625,-15.8751
12:58:39.838,0.375,-17.0626
12:58:39.840,0.1875,-16.3751
12:58:39.886,0,-17.1251
12:58:39.888,0.6875,-17.8751
12:58:39.900,-0.375,-17.4376
12:58:39.903,-0.4375,-17.5001
12:58:39.907,0.125,-18.6251
12:58:39.907,0.125,-19.3126
12:58:39.914,-0.375,-19.0001
12:58:39.923,-0.625,-17.8751
12:58:39.933,-0.75,-18.3126
12:58:39.942,-0.5,-15.7501
12:58:39.954,0.8125,-13.5001
12:58:39.963,3.375,-6
12:58:39.973,6.25,1.4375
12:58:39.982,8.875,9.8125
12:58:39.993,10.5625,14.1251
12:58:40.005,11.1875,18.3751
12:58:40.012,11.8125,20.4376
12:58:40.029,13,21.1876
12:58:40.032,12.75,21.1251
12:58:40.045,12,20.3751
12:58:40.053,11.3125,19.7501
12:58:40.063,10.8125,18.1251
12:58:40.072,10.3125,18.2501
12:58:40.084,10.5625,16.1876
12:58:40.093,10.0625,14.5001
12:58:40.102,9.6875,14.3751
12:58:40.112,8.1875,12.25
12:58:40.123,8,10.8125
12:58:40.132,8,9
12:58:40.142,6.875,6.9375
12:58:40.152,5.75,4.9375
12:58:40.163,5.75,4.875
12:58:40.175,4.8125,3.625
12:58:40.183,4.75,1.5
12:58:40.192,4.4375,0.375
12:58:40.203,4.375,-0.0625
12:58:40.213,3.5,-0.125
12:58:40.222,3.875,-1.875
12:58:40.233,3.25,-2.8125
12:58:40.245,2.375,-3.6875
12:58:40.252,2.125,-3
12:58:40.262,3.1875,-4.5
12:58:40.273,2.625,-5.8125
12:58:40.284,2.0625,-6.75
12:58:40.292,2.125,-5.8125
12:58:40.302,2.25,-7.3125
12:58:40.313,1.5625,-8.3125
12:58:40.325,2,-9.875
12:58:40.332,1.0625,-8.625
12:58:40.342,1.8125,-10
12:58:40.353,1.5625,-10.75
12:58:40.365,1,-10.75
12:58:40.373,1.8125,-11
12:58:40.398,1.0625,-12
12:58:40.400,0.625,-11.9375
12:58:40.402,1.4375,-12.4375
12:58:40.429,0.5625,-13.6876
12:58:40.431,0.875,-12.6875
12:58:40.435,0.25,-14.3751
12:58:40.467,0,-13.8751
12:58:40.469,0.25,-14.5001
12:58:40.472,0.5,-15.6251
12:58:40.474,0.3125,-16.4376
12:58:40.509,-0.125,-15.6251
12:58:40.510,1.125,-15.9376
12:58:40.512,0.6875,-16.2501
12:58:40.540,-0.0625,-16.7501
12:58:40.541,1,-16.5001
12:58:40.544,0.4375,-16.4376
12:58:40.549,0,-16.3126
12:58:40.552,-0.5,-16.6251
12:58:40.568,0.3125,-17.1876
12:58:40.575,-0.4375,-18.3126
12:58:40.582,0.125,-17.6876
12:58:40.592,-0.6875,-18.8126
12:58:40.603,-0.8125,-18.3751
12:58:40.613,-0.875,-17.3751
12:58:40.623,-0.3125,-16.1876
12:58:40.633,0.5625,-13.5626
12:58:40.643,3.5,-6.0625
12:58:40.653,6.6875,0.0625
12:58:40.663,7.4375,5.375
12:58:40.672,8.6875,10.3125
12:58:40.683,10.1875,11.875
12:58:40.693,9.6875,13.7501
12:58:40.702,9.6875,14.8751
12:58:40.712,10.0625,13.6876
12:58:40.723,9.375,13.3126
12:58:40.732,9.375,12.1875
12:58:40.743,8.5625,11.25
12:58:40.752,8.3125,10.8125
12:58:40.764,8.375,9.4375
12:58:40.779,7.6875,6.9375
12:58:40.795,7.0625,6.1875
12:58:40.796,7.0625,4.8125
12:58:40.804,6.4375,3.5625
12:58:40.813,5.4375,1.8125
12:58:40.822,5.5,1.875
12:58:40.832,5.5,0.3125
12:58:40.844,4.8125,-0.875
12:58:40.852,4.0625,-0.3125
12:58:40.862,4.5625,-1.5625
12:58:40.872,4.0625,-3.0625
12:58:40.883,3.5,-4.3125
12:58:40.893,3.3125,-3
12:58:40.902,3.75,-4.5
12:58:40.913,3.3125,-5.375
12:58:40.923,2.6875,-5.9375
12:58:40.933,2.375,-5.125
12:58:40.944,2.875,-7.0625
12:58:40.953,2.875,-7.1875
12:58:40.963,2.4375,-8.5625
12:58:40.973,2.0625,-8.0625
12:58:41.000,2.5,-8.5625
12:58:41.001,1.625,-9.5625
12:58:41.008,1.75,-10.125
12:58:41.018,1.0625,-8.9375
12:58:41.028,2,-11.0625
12:58:41.038,1.9375,-11.1875
12:58:41.048,1.625,-11.125
12:58:41.058,2.3125,-11.6875
12:58:41.068,1.125,-12.5625
12:58:41.077,1.3125,-11.9375
12:58:41.088,1.75,-12.9375
12:58:41.106,1.375,-13.8751
12:58:41.108,0.9375,-13.3751
12:58:41.137,1.875,-13.5001
12:58:41.140,1.625,-14.6251
12:58:41.143,1.125,-14.3751
12:58:41.149,0.4375,-15.4376
12:58:41.209,0.8125,-15.4376
12:58:41.209,0.625,-15.4376
12:58:41.210,0.375,-15.0626
12:58:41.218,1,-16.8751
12:58:41.219,0.125,-15.7501
12:58:41.219,1.125,-15.3126
12:58:41.228,0.75,-14.0626
12:58:41.233,1.625,-11.3125
12:58:41.257,2.6875,-5.125
12:58:41.263,5.8125,-0.5
12:58:41.264,7.25,4.0625
12:58:41.277,8.75,7.5625
12:58:41.282,8.9375,11.25
12:58:41.292,9.3125,11.625
12:58:41.303,9.75,11.9375
12:58:41.317,9.8125,11.5
12:58:41.326,10.125,10.9375
12:58:41.332,9.1875,8.5625
12:58:41.343,8.5,7.75
12:58:41.353,7.5625,6.625
12:58:41.363,7.6875,5.5625
12:58:41.373,7.125,3.875
12:58:41.384,6.3125,2.5
12:58:41.393,6,1.8125
12:58:41.402,5.6875,1.625
12:58:41.413,6.1875,1.3125
12:58:41.423,6.625,-0.8125
12:58:41.433,5.75,-1.3125
12:58:41.442,5.125,-2.5625
12:58:41.455,5.4375,-1.5
12:58:41.463,5.625,-3.25
12:58:41.473,5,-4.1875
12:58:41.483,4.1875,-3.3125
12:58:41.493,4.375,-4.375
12:58:41.502,4.9375,-4.875
12:58:41.513,4.125,-5.4375
12:58:41.524,4.875,-5.25
12:58:41.532,4.4375,-6.25
12:58:41.543,3.75,-7.1875
12:58:41.553,3.4375,-8
12:58:41.563,3.25,-6.875
12:58:41.572,3.625,-7.6875
12:58:41.583,3.5625,-8.3125
12:58:41.592,2.8125,-9.4375
12:58:41.602,2.875,-8.25
12:58:41.613,3.0625,-9.6875
12:58:41.624,3.375,-11.0625
12:58:41.633,2.375,-10.4375
12:58:41.642,2.5625,-11.75
12:58:41.653,1.875,-11.375
12:58:41.664,2.375,-11.8125
12:58:41.673,2.5625,-13
12:58:41.682,1.5,-13.1251
12:58:41.693,1.875,-13.1876
12:58:41.703,1.9375,-13.3126
12:58:41.713,2.25,-13.8126
12:58:41.723,1.625,-12.9375
12:58:41.733,1.875,-13.8126
12:58:41.742,1.5625,-14.6251
12:58:41.752,1.875,-13.3126
12:58:41.764,2.0625,-13.7501
12:58:41.772,1.8125,-14.4376
12:58:41.783,1.3125,-13.5626
12:58:41.792,1.375,-14.6251
12:58:41.803,1.1875,-13.9376
12:58:41.812,1.3125,-11.6875
12:58:41.823,3.625,-8.6875
12:58:41.833,5.375,-3
12:58:41.843,7.5625,7.125
12:58:41.853,10.625,11.5625
12:58:41.865,11.4375,14.8126
12:58:41.872,12.3125,18.4376
12:58:41.904,12.3125,17.8751
12:58:41.907,12.375,20.5626
12:58:41.909,13.0625,19.3751
12:58:41.914,12.0625,18.2501
12:58:41.939,11.6875,19.0626
12:58:41.943,11.4375,16.9376
12:58:41.944,10.4375,14.8126
12:58:41.970,9.875,12.8125
12:58:41.974,9.0625,12.9375
12:58:41.974,9.25,11.875
12:58:42.014,9.125,9.9375
12:58:42.017,7.6875,7.75
12:58:42.019,7.0625,8.375
12:58:42.024,7.5625,5.75
12:58:42.025,7,4.375
12:58:42.050,6.9375,4.75
12:58:42.053,6.875,3.375
12:58:42.054,6.625,2.3125
12:58:42.076,6.125,1.5
12:58:42.080,5.3125,0.5
12:58:42.083,4.9375,0
12:58:42.097,4.5,-0.1875
12:58:42.104,4.8125,-0.0625
12:58:42.112,4.9375,-0.875
12:58:42.123,5.5625,-1.6875
12:58:42.133,4.8125,-2.75
12:58:42.143,3.75,-3.875
12:58:42.153,3.9375,-2.5625
12:58:42.163,4.6875,-3.5
12:58:42.174,5.1875,-4.1875
12:58:42.183,3.75,-5.3125
12:58:42.192,2.9375,-5.625
12:58:42.202,3.125,-5.75
12:58:42.215,3.3125,-5.375
12:58:42.222,3.9375,-6.8125
12:58:42.233,3.6875,-7
12:58:42.245,2.6875,-7.6875
12:58:42.252,2.625,-8
12:58:42.279,2.875,-7.6875
12:58:42.282,3,-9.1875
12:58:42.284,2.6875,-8.625
12:58:42.292,2.25,-9.125
12:58:42.303,2.5,-10.75
12:58:42.312,2.75,-9.625
12:58:42.322,2.75,-10.8125
12:58:42.333,2.125,-11.375
12:58:42.342,2.0625,-10.25
12:58:42.354,2.375,-11.375
12:58:42.363,2.875,-12.0625
12:58:42.373,2.75,-10.9375
12:58:42.384,2.0625,-12.1875
12:58:42.393,1.1875,-12.375
12:58:42.403,2.0625,-12.1875
12:58:42.413,1.6875,-13.1251
12:58:42.423,1.5,-12.9375
12:58:42.432,1.1875,-10.8125
12:58:42.446,2.625,-8.625
12:58:42.453,4.5,-3.1875
12:58:42.462,7,6.4375
12:58:42.480,10.3125,11.6875
12:58:42.482,11.1875,17.1251
12:58:42.499,12.25,20.8126
12:58:42.503,13,21.8126
12:58:42.513,12.8125,23.1251
12:58:42.522,13.6876,23.9376
12:58:42.533,13.125,22.1251
12:58:42.543,11.875,22.6876
12:58:42.553,12,20.3751
12:58:42.562,11.125,19.0626
12:58:42.573,11.375,18.5626
12:58:42.582,10.5625,16.3751
12:58:42.607,9.5625,15.1876
12:58:42.609,9.6875,13.5626
12:58:42.636,8.4375,12.75
12:58:42.638,8.8125,10.8125
12:58:42.640,7.9375,8.6875
12:58:42.645,7.125,8.125
12:58:42.677,7.0625,6.625
12:58:42.679,6.5,6.6875
12:58:42.681,7.3125,5.875
12:58:42.685,6.0625,4.4375
12:58:42.719,5.3125,4.1875
12:58:42.721,6.0625,3.4375
12:58:42.724,5.375,1.8125
12:58:42.729,5.125,0.9375
12:58:42.754,4.4375,0.875
12:58:42.759,5.0625,-0.0625
12:58:42.760,4.6875,-0.75
12:58:42.762,3.9375,-0.9375
12:58:42.773,3.875,-1.25
12:58:42.783,4.8125,-2.1875
12:58:42.792,3.625,-2.875
12:58:42.802,3.3125,-3.625
12:58:42.813,3.25,-2.8125
12:58:42.828,3.1875,-3.375
12:58:42.833,3.1875,-4.75
12:58:42.843,3.4375,-5.5625
12:58:42.853,3,-6.5
12:58:42.863,2.25,-7.5
12:58:42.873,1.875,-6.5625
12:58:42.883,1.8125,-7.4375
12:58:42.894,2.5625,-8.0625
12:58:42.903,1.9375,-9.8125
12:58:42.912,2,-9.3125
12:58:42.923,2.25,-10.25
12:58:42.933,1.6875,-9.75
12:58:42.943,1.9375,-10.125
12:58:42.953,1.6875,-11.25
12:58:42.963,1.1875,-11
12:58:42.973,1.375,-11.5
12:58:42.984,0.875,-12.625
12:58:42.992,1.3125,-11.4375
12:58:43.003,1.5,-12.625
12:58:43.013,0.75,-12.5
12:58:43.023,0.8125,-12.9375
12:58:43.033,0.75,-13.0625
12:58:43.044,0.75,-12.75
12:58:43.052,1.1875,-13.1876
12:58:43.064,0.625,-13.8751
12:58:43.073,0.9375,-11.75
12:58:43.083,1.5,-9.625
12:58:43.093,2.75,-5.0625
12:58:43.103,5.5,3.75
12:58:43.113,8.0625,9.0625
12:58:43.123,9.75,15.8751
12:58:43.133,11.625,18.6251
12:58:43.142,12.0625,19.3751
12:58:43.152,11.5,21.8751
12:58:43.162,11.25,21.3126
12:58:43.173,11.625,20.2501
12:58:43.182,11.375,20.2501
12:58:43.193,10.9375,19.7501
12:58:43.203,10.25,17.6251
12:58:43.213,9.5625,16.4376
12:58:43.222,8.8125,15.5626
12:58:43.233,9.0625,13
12:58:43.243,7.5625,12.8125
12:58:43.253,8.5,10.875
12:58:43.263,7.5625,8.1875
12:58:43.273,6.4375,7.5
12:58:43.282,6.5,7.375
12:58:43.293,6.75,6.125
12:58:43.303,6.125,4.625
12:58:43.338,5.4375,4.3125
12:58:43.341,4.9375,4.125
12:58:43.343,5.375,2.875
12:58:43.345,4.5,1.75
12:58:43.382,4.6875,1.25
12:58:43.412,4.0625,0.75
12:58:43.415,4.375,-0.125
12:58:43.417,3.875,-0.75
12:58:43.424,4.25,-2.3125
12:58:43.424,3.375,-2.8125
12:58:43.424,3.875,-2.125
12:58:43.429,3.9375,-3.8125
12:58:43.458,3.125,-4.0625
12:58:43.460,3.0625,-3.125
12:58:43.464,3.75,-4.625
12:58:43.469,3.3125,-5.4375
12:58:43.496,2.5625,-6.5625
12:58:43.498,2.5,-5.8125
12:58:43.500,2.4375,-5.9375
12:58:43.509,1.8125,-6.9375
12:58:43.518,2.5,-8.5
12:58:43.528,1.75,-8.9375
12:58:43.559,2.0625,-9.75
12:58:43.565,2,-10.0625
12:58:43.565,2.25,-9.75
12:58:43.573,1.8125,-10.625
12:58:43.577,2,-10.625
12:58:43.594,0.875,-11.5
12:58:43.599,1.6875,-11.5
12:58:43.608,1.5,-12.375
12:58:43.617,1.5625,-12.0625
12:58:43.629,1.625,-12.375
12:58:43.638,1.5,-13.0625
12:58:43.647,1.125,-12.4375
12:58:43.659,0.875,-12.9375
12:58:43.667,1.5,-13.6876
12:58:43.678,1.375,-14.6876
12:58:43.688,0.3125,-12.8125
12:58:43.699,1,-14.4376
12:58:43.707,0.3125,-13.7501
12:58:43.718,0.4375,-12.375
12:58:43.728,1,-8.8125
12:58:43.738,4.6875,-3.4375
12:58:43.749,6.75,4.5
12:58:43.758,8.25,11.75
12:58:43.777,10.0625,16.5001
12:58:43.780,11.75,18.3126
12:58:43.794,11.4375,19.0626
12:58:43.799,12,21.3126
12:58:43.808,11.875,20.3751
12:58:43.818,10.6875,20.5626
12:58:43.828,11.5625,19.4376
12:58:43.838,10.375,18.2501
12:58:43.848,10.875,17.1876
12:58:43.858,8.8125,15.8751
12:58:43.867,8.5,14.7501
12:58:43.877,8.625,11.9375
12:58:43.888,7.9375,10.0625
12:58:43.898,7.5,9.8125
12:58:43.908,7.125,7.875
12:58:43.918,6.375,5.625
12:58:43.928,5.25,4.625
12:58:43.938,5,3.625
12:58:43.948,5.3125,4
12:58:43.957,5.0625,2.3125
12:58:43.969,4.9375,1
12:58:43.978,4.5,0.625
12:58:43.987,3.8125,0.6875
12:58:43.998,4.5,0
12:58:44.008,4.1875,-0.4375
12:58:44.018,3.875,-2.0625
12:58:44.030,3.8125,-3.375
12:58:44.041,3.5,-2.0625
12:58:44.066,4.1875,-3.5
12:58:44.069,3.25,-4.4375
12:58:44.072,2.25,-3.625
12:58:44.078,3.3125,-5.3125
12:58:44.116,2.9375,-6.5
12:58:44.118,2.6875,-5.625
12:58:44.120,3.5,-6.5
12:58:44.125,2.75,-7.5
12:58:44.129,2.1875,-6.6875
12:58:44.158,2.5,-7
12:58:44.161,2.875,-8.75
12:58:44.164,2.3125,-8.6875
12:58:44.169,1.75,-8
12:58:44.196,2.9375,-9.625
12:58:44.200,2,-10.1875
12:58:44.201,2.625,-10.125
12:58:44.208,2.25,-10.9375
12:58:44.217,1.9375,-11.625
12:58:44.228,2.0625,-10.9375
12:58:44.237,1.6875,-11.1875
12:58:44.248,2.375,-11.9375
12:58:44.258,1.5,-11.9375
12:58:44.268,1.875,-11.8125
12:58:44.280,1.75,-12.75
12:58:44.287,1.8125,-14.0626
12:58:44.297,1.8125,-13.3751
12:58:44.309,1.25,-12.9375
12:58:44.318,2.5625,-13.6251
12:58:44.328,2.75,-13.8751
12:58:44.343,1.6875,-14.1876
12:58:44.348,1.125,-14.8126
12:58:44.358,0.75,-13.4376
12:58:44.368,1.375,-11.9375
12:58:44.378,2.0625,-10.125
12:58:44.389,3.5,-2.6875
12:58:44.398,7.25,3.8125
12:58:44.407,8.8125,10.4375
12:58:44.420,10.3125,15.1876
12:58:44.427,11.625,17.9376
12:58:44.437,11.75,19.6876
12:58:44.448,12,21.6876
12:58:44.458,11.5,20.8126
12:58:44.469,12.0625,20.3751
12:58:44.479,11,18.9376
12:58:44.487,9.875,18.4376
12:58:44.500,9.75,16.5626
12:58:44.508,9.8125,14.1251
12:58:44.517,8.875,14.5626
12:58:44.530,9.25,11.8125
12:58:44.538,7.875,10.1875
12:58:44.547,7.0625,9.1875
12:58:44.558,7.125,7.4375
12:58:44.568,6.8125,6.125
12:58:44.577,6.125,6.5
12:58:44.587,5.4375,5.375
12:58:44.597,6.3125,3.8125
12:58:44.608,5.625,3.125
12:58:44.618,4.625,2.5625
12:58:44.628,4.5625,2.5
12:58:44.638,4.875,1.625
12:58:44.648,4.4375,0.0625
12:58:44.657,3.6875,-0.9375
12:58:44.675,3.8125,-1
12:58:44.677,4.5625,-1.0625
12:58:44.692,4,-2
12:58:44.700,3.625,-2.625
12:58:44.708,3.625,-3.3125
12:58:44.722,3.8125,-3.8125
12:58:44.728,3,-4.875
12:58:44.738,3,-4.625
12:58:44.748,3.4375,-4.875
12:58:44.776,2.6875,-6.625
12:58:44.781,2.25,-6.25
12:58:44.782,2.5,-5.8125
12:58:44.788,2.875,-7.1875
12:58:44.814,1.9375,-8.6875
12:58:44.816,1.875,-8.0625
12:58:44.820,2.3125,-7.875
12:58:44.846,2.9375,-8.8125
12:58:44.849,2.25,-9.5625
12:58:44.851,1.8125,-10.8125
12:58:44.858,1.9375,-10.375
12:58:44.873,2.0625,-10.5625
12:58:44.878,2.0625,-10.75
12:58:44.905,1.4375,-10.5625
12:58:44.906,1.6875,-12
12:58:44.909,1.25,-11.25
12:58:44.939,1.5625,-12
12:58:44.941,1.1875,-13.4376
12:58:44.944,0.875,-12.25
12:58:44.950,1.75,-13
12:58:44.958,0.5,-13.0625
12:58:44.968,0.375,-12.9375
12:58:44.979,0.9375,-13.6876
12:58:44.987,0.1875,-14.3751
12:58:44.997,-0.0625,-11.6875
12:58:45.013,1.75,-10
12:58:45.023,2.375,-6.1875
12:58:45.032,4.875,0.875
12:58:45.044,7.4375,6.4375
12:58:45.053,8.375,10.625
12:58:45.072,9.3125,14.6251
12:58:45.075,10.4375,16.4376
12:58:45.091,10.0625,15.7501
12:58:45.097,9.8125,15.3751
12:58:45.102,9.25,14.9376
12:58:45.113,8.75,13.7501
12:58:45.126,8.0625,12.25
12:58:45.133,7.375,11.5625
12:58:45.143,6.875,10.0625
12:58:45.154,7.5,8.5625
12:58:45.162,6.25,5.625
12:58:45.175,6.4375,5.4375
12:58:45.183,5.6875,4.5625
12:58:45.192,5.25,2.875
12:58:45.202,5.4375,2.625
12:58:45.213,4.875,1.125
12:58:45.223,4.625,1.8125
12:58:45.233,4.1875,1.1875
12:58:45.242,4.875,-0.125
12:58:45.255,4.625,-0.9375
12:58:45.263,4.375,-1.625
12:58:45.272,3.8125,-2.9375
12:58:45.283,4.0625,-1.8125
12:58:45.292,4,-3.375
12:58:45.302,3,-3.625
12:58:45.313,2.625,-4
12:58:45.322,3.125,-5.375
12:58:45.335,3.0625,-6.25
12:58:45.342,2.4375,-5.5625
12:58:45.353,2.8125,-5.25
12:58:45.363,3.1875,-6.5
12:58:45.373,2.625,-6.875
12:58:45.384,2.25,-7.25
12:58:45.393,2.5,-8.0625
12:58:45.402,2.1875,-9.375
12:58:45.412,1.3125,-8.5
12:58:45.422,2,-10
12:58:45.433,1.5625,-9.4375
12:58:45.443,1.5,-10
12:58:45.452,2.1875,-11.25
12:58:45.465,1.375,-12
12:58:45.475,1.4375,-11.75
12:58:45.484,1.9375,-12.25
12:58:45.510,1.25,-13
12:58:45.513,1.3125,-12
12:58:45.515,1.5,-12.9375
12:58:45.548,1.75,-13.9376
12:58:45.551,1.375,-13.9376
12:58:45.553,1.5625,-12.875
12:58:45.555,1.375,-14.3751
12:58:45.584,1,-13.9376
12:58:45.586,1,-14.6251
12:58:45.591,1.6875,-14.5626
12:58:45.595,1.1875,-13.8751
12:58:45.619,1,-10.125
12:58:45.621,4.0625,-5.875
12:58:45.626,6.3125,1.75
12:58:45.659,9,8.75
12:58:45.661,12.3125,14.6876
12:58:45.662,13.6876,19.1876
12:58:45.669,15.3126,23.5001
12:58:45.675,16.7501,26.1251
12:58:45.683,18.8751,28.5626
12:58:45.695,20.3126,29.7501
12:58:45.702,22.8751,34.3751
12:58:45.712,27.1876,39.5627
12:58:45.723,29.0001,42.0002
12:58:45.732,28.9376,42.3752
12:58:45.744,27.4376,39.9377
12:58:45.753,26.9376,36.9376
12:58:45.762,24.6876,33.8126
12:58:45.772,23.8751,32.5001
12:58:45.783,23.4376,32.0001
12:58:45.794,22.8126,29.3126
12:58:45.802,22.1876,27.6876
12:58:45.813,21.6876,26.5626
12:58:45.824,21.4376,26.5626
12:58:45.832,21.5626,25.8126
12:58:45.843,20.4376,24.0001
12:58:45.857,20.5001,23.0001
12:58:45.863,20.3751,23.7501
12:58:45.873,20.6251,24.6251
12:58:45.883,21.6251,25.8751
12:58:45.893,22.0001,25.4376
12:58:45.904,21.3751,25.6876
12:58:45.912,22.0626,25.0001
12:58:45.922,21.5001,23.5626
12:58:45.933,20.7501,23.8126
12:58:45.944,20.3751,23.5001
12:58:45.953,18.4376,21.6251
12:58:45.972,17.4376,18.7501
12:58:45.977,16.0001,16.8126
12:58:45.992,14.4376,16.8126
12:58:45.995,13.7501,16.7501
12:58:46.017,14.3751,14.5626
12:58:46.019,13.3751,12.9375
12:58:46.025,12.75,10.875
12:58:46.034,11.75,8.875
12:58:46.044,10.5625,5.8125
12:58:46.053,9.6875,2.25
12:58:46.062,6.75,-2
12:58:46.073,3.9375,-6.25
12:58:46.083,1.75,-9.75
12:58:46.093,0.375,-12.4375
12:58:46.119,-0.6875,-16.0001
12:58:46.121,-1.625,-19.5001
12:58:46.125,-2.625,-21.3751
12:58:46.134,-2.875,-21.9376
12:58:46.143,-3,-21.4376
12:58:46.153,-3.0625,-21.4376
12:58:46.164,-3.6875,-22.9376
12:58:46.173,-5.4375,-24.8751
12:58:46.182,-8,-27.6251
12:58:46.194,-10.875,-30.7501
12:58:46.203,-12.8125,-32.1251
12:58:46.213,-12.125,-32.3126
12:58:46.226,-10.4375,-32.6876
12:58:46.254,-9.1875,-31.5001
12:58:46.260,-8.9375,-27.5001
12:58:46.260,-7.3125,-25.3126
12:58:46.265,-6.125,-21.5001
12:58:46.305,-2.8125,-11.6875
12:58:46.309,0.1875,-2.5
12:58:46.309,3.625,5.6875
12:58:46.313,6.5625,12.9375
12:58:46.317,8.625,16.3751
12:58:46.324,9.5625,21.6251
12:58:46.348,11.9375,24.0001
12:58:46.352,9.375,23.5001
12:58:46.376,7.875,20.8751
12:58:46.379,4.875,17.8126
12:58:46.407,1.6875,12.25
12:58:46.410,-0.6875,9.5
12:58:46.423,-1,8.1875
12:58:46.425,-0.0625,6.6875
12:58:46.440,0.8125,5.6875
12:58:46.441,1.5625,6.5
12:58:46.455,1.5,3.5
12:58:46.457,2.0625,4.25
12:58:46.459,2.5625,2.375
12:58:46.464,2,1.3125
12:58:46.472,1.3125,-0.375
12:58:46.483,0.0625,-1.3125
12:58:46.492,-1.0625,-1.375
12:58:46.503,-1.5,-2.875
12:58:46.513,-0.875,-5.1875
12:58:46.523,-2.625,-6.75
12:58:46.536,-2.9375,-7.5
12:58:46.543,-3.625,-6.75
12:58:46.553,-3.25,-6.8125
12:58:46.563,-1.625,-7.4375
12:58:46.572,-1.6875,-7.125
12:58:46.584,-1.1875,-7.25
12:58:46.593,-1.8125,-7.6875
12:58:46.603,-2.5,-8.25
12:58:46.612,-2.5,-9.875
12:58:46.623,-3.8125,-10.375
12:58:46.635,-3.3125,-11.625
12:58:46.643,-4.125,-13.1876
12:58:46.654,-4.4375,-13.125
12:58:46.662,-4.8125,-15.5001
12:58:46.672,-5,-16.5626
12:58:46.683,-5.0625,-16.7501
12:58:46.693,-4.375,-17.6876
12:58:46.704,-4.4375,-19.6251
12:58:46.713,-4.3125,-21.0626
12:58:46.722,-4.1875,-21.6876
12:58:46.733,-4.6875,-21.8751
12:58:46.743,-5.5,-21.4376
12:58:46.753,-7.1875,-24.0626
12:58:46.763,-8.0625,-25.5626
12:58:46.772,-8.9375,-25.6876
12:58:46.783,-7.75,-26.4376
12:58:46.794,-7.5625,-26.4376
12:58:46.805,-7,-24.2501
12:58:46.812,-6.1875,-24.6876
12:58:46.823,-6.5,-23.5001
12:58:46.834,-5.1875,-21.9376
12:58:46.842,-5.3125,-19.2501
12:58:46.853,-3.4375,-11.0625
12:58:46.863,-0.1875,-3.75
12:58:46.873,2.6875,3.625
12:58:46.883,5.125,12.0625
12:58:46.894,8.0625,17.3751
12:58:46.903,7.875,20.3126
12:58:46.913,7.3125,21.1251
12:58:46.923,5.9375,19.0001
12:58:46.933,1.8125,15.8751
12:58:46.944,1.5625,14.5001
12:58:46.952,2,13.4376
12:58:46.962,1.75,12.9375
12:58:46.973,2,11.1875
12:58:46.983,0.625,9.1875
12:58:46.993,-0.1875,7.625
12:58:47.021,0.25,4.875
12:58:47.026,-0.6875,3.375
12:58:47.027,-1.625,1.125
12:58:47.050,-1.4375,-1.5
12:58:47.052,-3.25,-2.5
12:58:47.055,-3.75,-3.8125
12:58:47.084,-4.6875,-6.75
12:58:47.086,-5.5625,-9.1875
12:58:47.089,-7.5625,-12.5625
12:58:47.115,-8.1875,-12.875
12:58:47.116,-7.25,-13.2501
12:58:47.118,-5.8125,-13.2501
12:58:47.124,-5.75,-13.6876
12:58:47.162,-5.4375,-13.3751
12:58:47.164,-6.25,-12.375
12:58:47.166,-6.4375,-12.1875
12:58:47.169,-5.375,-11.9375
12:58:47.175,-5,-11.6875
12:58:47.191,-5,-13.0625
12:58:47.193,-5.0625,-11.125
12:58:47.203,-3.875,-11.375
12:58:47.212,-3.5,-12.25
12:58:47.224,-3.75,-12.5
12:58:47.233,-5.125,-13.6251
12:58:47.242,-5.875,-15.0001
12:58:47.253,-7.125,-18.1251
12:58:47.262,-7.75,-18.8751
12:58:47.285,-6.1875,-18.9376
12:58:47.293,-6.3125,-19.4376
12:58:47.294,-6.5625,-20.8751
12:58:47.309,-5.625,-21.8126
12:58:47.315,-6.3125,-23.3126
12:58:47.323,-7.1875,-23.7501
12:58:47.333,-7.625,-25.4376
12:58:47.346,-9.875,-26.8126
12:58:47.352,-10.25,-29.2501
12:58:47.363,-10.9375,-30.2501
12:58:47.373,-10.3125,-29.0626
12:58:47.400,-8.375,-27.4376
12:58:47.401,-8.5625,-25.1876
12:58:47.407,-7.3125,-24.9376
12:58:47.414,-6.9375,-24.6876
12:58:47.422,-7.375,-23.7501
12:58:47.433,-6.625,-23.7501
12:58:47.443,-6.3125,-23.8126
12:58:47.456,-6,-23.8126
12:58:47.464,-6.25,-24.5001
12:58:47.474,-5.8125,-24.7501
12:58:47.484,-6.375,-25.3126
12:58:47.492,-10.8125,-26.5001
12:58:47.502,-9.25,-23.2501
12:58:47.514,-5.3125,-14.9376
12:58:47.522,-1.8125,-5.4375
12:58:47.533,1.3125,5.375
12:58:47.543,3.75,9.1875
12:58:47.553,5.1875,12.75
12:58:47.562,6.6875,15.5626
12:58:47.577,7,18.2501
12:58:47.582,6.875,18.8751
12:58:47.594,6.5625,18.8751
12:58:47.603,3.375,17.8751
12:58:47.613,-0.0625,13.8126
12:58:47.623,-0.3125,9.9375
12:58:47.633,-1.3125,8.0625
12:58:47.646,-1.1875,5.9375
12:58:47.653,-1.5,4.5
12:58:47.681,-2.8125,3.25
12:58:47.684,-2.4375,2.625
12:58:47.687,-2.75,1.0625
12:58:47.693,-3.4375,0.9375
12:58:47.723,-2.4375,-0.25
12:58:47.763,-1.375,-0.4375
12:58:47.800,-0.5,0.5
12:58:47.841,0.6875,1.9375
12:58:47.845,-0.0625,0.25
12:58:47.845,-2.8125,-3.375
12:58:47.845,-5.5,-5.4375
12:58:47.847,-4.625,-4.1875
12:58:47.848,-2.5,-4.5
12:58:47.854,-2.125,-4.25
12:58:47.854,-1.875,-2.6875
12:58:47.854,-0.875,-3.5
12:58:47.858,-2.25,-4.625
12:58:47.868,-2.4375,-3.875
12:58:47.877,-2.875,-5.9375
12:58:47.888,-3.8125,-9.125
12:58:47.898,-4.75,-9.0625
12:58:47.910,-5.4375,-11.75
12:58:47.918,-6.625,-12.625
12:58:47.928,-6.9375,-14.0626
12:58:47.939,-8.1875,-15.2501
12:58:47.947,-8.6875,-17.3751
12:58:47.960,-8.1875,-18.6251
12:58:47.968,-12.4375,-27.9376
12:58:47.978,-13.1876,-30.9376
12:58:47.988,-11.8125,-30.3751
12:58:47.999,-10.6875,-29.9376
12:58:48.008,-10.375,-30.1876
12:58:48.017,-8,-29.0626
12:58:48.028,-7.8125,-29.5001
12:58:48.038,-7,-27.2501
12:58:48.049,-7.25,-28.5626
12:58:48.058,-6.8125,-27.9376
12:58:48.068,-6.5,-28.1876
12:58:48.078,-7.375,-28.4376
12:58:48.088,-7.5625,-28.0626
12:58:48.098,-7.4375,-29.5001
12:58:48.108,-8.25,-30.6251
12:58:48.119,-8.6875,-29.0626
12:58:48.128,-7.6875,-28.3751
12:58:48.138,-8.4375,-26.6876
12:58:48.148,-8.125,-21.6251
12:58:48.157,-3.625,-13.5626
12:58:48.169,0.0625,-4.8125
12:58:48.178,4.1875,5.4375
12:58:48.189,7.6875,12.8125
12:58:48.198,9.375,18.6251
12:58:48.209,10.0625,22.0001
12:58:48.219,9.9375,22.3126
12:58:48.228,9.125,23.2501
12:58:48.237,9.875,22.2501
12:58:48.249,8.9375,22.5626
12:58:48.260,9.25,20.1876
12:58:48.268,8.5625,19.8751
12:58:48.278,8.375,19.9376
12:58:48.288,7.0625,17.5001
12:58:48.298,4.9375,15.0001
12:58:48.308,3.625,10.5625
12:58:48.319,1.4375,8.25
12:58:48.327,0.6875,5.8125
12:58:48.339,1.75,3.1875
12:58:48.347,1.125,1.5625
12:58:48.357,1,-0.4375
12:58:48.369,0.5625,0.25
12:58:48.380,0.9375,0.375
12:58:48.389,1.0625,-1.0625
12:58:48.397,-0.625,-2.0625
12:58:48.408,-1.25,-1.5
12:58:48.419,-1.5,-1.6875
12:58:48.428,0,-1.6875
12:58:48.438,0.625,-0.5625
12:58:48.450,1.3125,0.9375
12:58:48.463,2.25,1.5
12:58:48.468,1.5,1.125
12:58:48.494,0.5,-0.375
12:58:48.496,-1.25,-1.8125
12:58:48.498,-2.875,-4.3125
12:58:48.529,-2.25,-5
12:58:48.532,-2.1875,-4.1875
12:58:48.533,-1.875,-5.625
12:58:48.562,-1.3125,-5.875
12:58:48.563,-1.25,-6.8125
12:58:48.565,-0.6875,-8.5625
12:58:48.570,-2.375,-7.9375
12:58:48.636,-1.75,-10.5625
12:58:48.638,-2.6875,-12.8125
12:58:48.650,-3.9375,-14.3126
12:58:48.681,-5.625,-15.6876
12:58:48.681,-5.75,-18.0626
12:58:48.681,-5,-19.0001
12:58:48.685,-5.3125,-18.3126
12:58:48.685,-5.4375,-19.0001
12:58:48.692,-4.75,-19.0626
12:58:48.697,-4.5,-18.8751
12:58:48.703,-4.25,-17.4376
12:58:48.714,-4.625,-18.0626
12:58:48.722,-5.4375,-19.4376
12:58:48.734,-5.9375,-19.6876
12:58:48.742,-6.375,-18.3751
12:58:48.753,-4.375,-16.4376
12:58:48.764,-2,-10
12:58:48.775,3,-0.5
12:58:48.782,6.625,8.9375
12:58:48.794,8.0625,15.7501
12:58:48.804,9.0625,20.0626
12:58:48.812,8.375,22.1251
12:58:48.823,6.5,21.6876
12:58:48.834,7.375,22.8126
12:58:48.846,9.25,22.5626
12:58:48.853,9.25,20.4376
12:58:48.863,8.75,19.6251
12:58:48.872,9.5625,19.0001
12:58:48.882,7.75,16.9376
12:58:48.893,5.25,14.8126
12:58:48.904,3.75,9.875
12:58:48.914,1,6.8125
12:58:48.923,-0.1875,2.875
12:58:48.936,-0.3125,0
12:58:48.944,0.1875,-0.25
12:58:48.954,0.0625,0.1875
12:58:48.963,1.375,-0.8125
12:58:48.972,0.6875,-1.5625
12:58:48.982,0.75,-2.25
12:58:48.994,0.125,-2.0625
12:58:49.005,0.1875,-3.4375
12:58:49.013,-0.8125,-4.625
12:58:49.023,-1.25,-4.1875
12:58:49.032,-0.25,-3.75
12:58:49.043,-0.3125,-4.25
12:58:49.053,-0.5625,-3.75
12:58:49.062,-0.375,-3.5625
12:58:49.079,0.4375,-3.9375
12:58:49.087,0.25,-3.875
12:58:49.111,0.5625,-2.5
12:58:49.115,1.3125,-3.375
12:58:49.128,0.9375,-4.0625
12:58:49.130,0.3125,-3.5
12:58:49.169,-0.1875,-5.875
12:58:49.195,-0.9375,-6.9375
12:58:49.195,-0.5,-7.4375
12:58:49.195,-0.4375,-9.5625
12:58:49.196,-1,-10.3125
12:58:49.199,-0.125,-9.5625
12:58:49.224,-1.125,-11.9375
12:58:49.226,-1.9375,-13.9376
12:58:49.229,-2.5625,-16.0626
12:58:49.233,-4.6875,-18.0001
12:58:49.239,-5.0625,-19.5001
12:58:49.269,-4.25,-20.1251
12:58:49.272,-4.8125,-19.0001
12:58:49.274,-4.1875,-18.3751
12:58:49.279,-3.125,-19.3126
12:58:49.308,-3.5,-19.5001
12:58:49.310,-4.3125,-19.6876
12:58:49.312,-5.4375,-17.5001
12:58:49.319,-5.4375,-15.5001
12:58:49.329,-3.9375,-11.375
12:58:49.339,0,-3.375
12:58:49.351,4.3125,6.3125
12:58:49.357,9.3125,17.0001
12:58:49.369,11.625,23.4376
12:58:49.379,13.0625,29.2501
