timestamp,Red,IR
13:27:34.718,38.0314,71.2503
13:27:34.728,35.2501,66.6878
13:27:34.738,33.5939,62.5627
13:27:34.750,32.2501,61.0002
13:27:34.758,31.1251,58.4377
13:27:34.768,30.4064,58.0002
13:27:34.778,30.3751,56.5627
13:27:34.789,28.4064,54.8752
13:27:34.799,26.4689,51.9377
13:27:34.808,24.4688,48.0627
13:27:34.817,22.4688,43.3752
13:27:34.828,20.7813,40.3752
13:27:34.837,19.8751,37.5626
13:27:34.848,18.2501,35.8751
13:27:34.858,18.4063,35.5626
13:27:34.869,19.2501,36.6876
13:27:34.878,20.3751,38.0001
13:27:34.887,22.0626,40.3127
13:27:34.898,23.3126,42.3127
13:27:34.908,23.9688,44.0627
13:27:34.918,25.4688,45.5627
13:27:34.934,24.2188,45.7502
13:27:34.943,23.5626,44.8127
13:27:34.953,22.7501,42.5002
13:27:34.965,21.0938,40.5002
13:27:34.973,18.9063,37.3751
13:27:34.984,17.0626,32.8126
13:27:34.992,14.5626,28.7501
13:27:35.002,12.3125,23.6876
13:27:35.013,9.4063,19.9376
13:27:35.023,7.6875,16.2501
13:27:35.033,4.9375,11
13:27:35.043,1.9063,6.8125
13:27:35.052,-0.2813,2.1875
13:27:35.063,-2.625,-2
13:27:35.074,-3.9688,-5.3125
13:27:35.083,-6.5625,-10.25
13:27:35.092,-9.5938,-15.3751
13:27:35.102,-11.0313,-18.4376
13:27:35.113,-12.625,-21.0626
13:27:35.123,-13.8126,-24.5001
13:27:35.138,-15.5938,-27.5626
13:27:35.152,-17.1563,-29.8126
13:27:35.158,-18.0001,-32.8126
13:27:35.188,-19.8751,-35.8751
13:27:35.193,-21.1251,-37.3126
13:27:35.194,-21.7501,-39.5002
13:27:35.197,-23.4688,-42.1252
13:27:35.233,-23.4063,-42.6252
13:27:35.240,-24.4688,-45.1877
13:27:35.240,-25.0938,-46.3127
13:27:35.245,-25.5626,-47.5627
13:27:35.247,-26.7814,-48.8127
13:27:35.254,-26.7189,-49.8127
13:27:35.283,-27.9064,-51.2502
13:27:35.284,-27.8126,-53.4377
13:27:35.287,-29.6251,-55.0627
13:27:35.293,-30.2189,-57.1877
13:27:35.326,-31.6251,-59.8127
13:27:35.327,-33.3126,-62.1877
13:27:35.347,-34.2189,-64.7502
13:27:35.349,-35.6876,-65.8753
13:27:35.353,-36.6251,-69.6878
13:27:35.353,-37.0939,-70.8128
13:27:35.363,-37.4064,-70.0003
13:27:35.395,-33.1876,-67.6878
13:27:35.399,-25.7501,-54.6877
13:27:35.401,-12.8438,-35.0626
13:27:35.403,1.7188,-10.0625
13:27:35.413,15.5001,14.1876
13:27:35.422,27.0626,37.2501
13:27:35.438,37.1876,54.8127
13:27:35.443,45.4064,71.0003
13:27:35.452,50.1564,82.4378
13:27:35.463,53.2502,88.9378
13:27:35.473,54.094,92.3754
13:27:35.483,53.594,91.5629
13:27:35.493,51.8439,89.7503
13:27:35.504,49.0002,85.8753
13:27:35.513,45.3752,80.7503
13:27:35.525,42.6564,75.8753
13:27:35.533,39.5002,70.7503
13:27:35.544,36.5001,64.8127
13:27:35.555,34.4376,62.4377
13:27:35.564,32.6876,58.1252
13:27:35.573,31.6251,57.3752
13:27:35.583,30.8439,54.6252
13:27:35.593,29.6876,53.3127
13:27:35.603,28.9064,51.3752
13:27:35.616,26.2501,48.0627
13:27:35.623,24.3751,43.2502
13:27:35.633,22.5626,38.9376
13:27:35.643,19.7188,36.1876
13:27:35.653,18.5313,33.1876
13:27:35.663,17.8751,30.5626
13:27:35.674,17.9376,30.5626
13:27:35.685,18.2501,30.1876
13:27:35.695,18.8751,31.8126
13:27:35.705,20.8126,33.6876
13:27:35.713,21.6251,37.0626
13:27:35.722,23.0001,38.8751
13:27:35.733,24.2188,39.7502
13:27:35.745,23.7813,40.7502
13:27:35.753,23.8751,40.3752
13:27:35.763,23.1563,38.3751
13:27:35.774,21.9688,35.9376
13:27:35.783,20.0626,33.3751
13:27:35.794,17.4063,30.1876
13:27:35.803,15.2188,26.2501
13:27:35.812,12.8125,21.0626
13:27:35.823,10.5938,17.1251
13:27:35.833,7.875,11.5625
13:27:35.844,5.0313,7.5625
13:27:35.869,3.0313,3.125
13:27:35.873,0.3438,-1.6875
13:27:35.875,-1.9063,-6.625
13:27:35.884,-3.8125,-11
13:27:35.917,-6.25,-14.4376
13:27:35.917,-8.3125,-18.0626
13:27:35.919,-10.6875,-21.7501
13:27:35.947,-11.5313,-25.6876
13:27:35.947,-13.7501,-29.4376
13:27:35.950,-15.3438,-31.5626
13:27:35.956,-15.7188,-34.5626
13:27:35.971,-17.8751,-37.5001
13:27:35.975,-19.1876,-38.8126
13:27:36.002,-19.7813,-41.3127
13:27:36.005,-21.5938,-44.7502
13:27:36.007,-22.8126,-46.8127
13:27:36.013,-24.0626,-48.2502
13:27:36.029,-24.4063,-50.4377
13:27:36.033,-24.9063,-52.5002
13:27:36.043,-25.9688,-54.0627
13:27:36.053,-26.6251,-55.6252
13:27:36.064,-27.3439,-56.0002
13:27:36.073,-27.8439,-58.0002
13:27:36.083,-28.7814,-59.0627
13:27:36.093,-29.1251,-60.8752
13:27:36.103,-30.5939,-62.4377
13:27:36.113,-30.8751,-64.3127
13:27:36.123,-31.7501,-65.4378
13:27:36.133,-33.1251,-68.3128
13:27:36.144,-34.1876,-70.0003
13:27:36.156,-35.1876,-72.4378
13:27:36.163,-36.3439,-74.5628
13:27:36.173,-37.4376,-76.6878
13:27:36.187,-37.0314,-77.2503
13:27:36.194,-35.3126,-73.8128
13:27:36.204,-26.5939,-62.0002
13:27:36.213,-13.1563,-39.3752
13:27:36.224,1.6563,-15.1876
13:27:36.233,15.4376,10.5
13:27:36.245,27.0314,31.5001
13:27:36.256,37.4064,51.3752
13:27:36.263,44.5627,67.4378
13:27:36.274,50.1564,77.8128
13:27:36.282,53.6565,84.8753
13:27:36.293,53.469,88.1253
13:27:36.303,52.3752,86.5003
13:27:36.314,50.5314,84.3753
13:27:36.326,46.5002,79.1253
13:27:36.334,43.5314,73.8753
13:27:36.343,38.6564,68.6878
13:27:36.353,35.1876,61.6877
13:27:36.363,31.8439,56.0002
13:27:36.373,28.7501,51.3752
13:27:36.382,26.3439,46.4377
13:27:36.393,24.8751,43.1877
13:27:36.402,22.9688,39.9377
13:27:36.413,20.7813,36.9376
13:27:36.424,19.1876,33.1876
13:27:36.434,16.4376,29.1876
13:27:36.454,14.1563,24.6251
13:27:36.459,12,21.5001
13:27:36.474,11.7813,19.1876
13:27:36.477,10.125,17.3751
13:27:36.484,11.25,18.1251
13:27:36.493,12.0625,19.5001
13:27:36.504,13.2501,22.5001
13:27:36.515,14.9376,23.9376
13:27:36.523,17.0001,27.8126
13:27:36.533,18.4063,30.3126
13:27:36.543,19.9063,32.4376
13:27:36.554,20.1251,34.1876
13:27:36.564,19.8751,33.6251
13:27:36.598,19.2501,33.1251
13:27:36.599,17.8438,31.0626
13:27:36.601,16.2813,28.5001
13:27:36.604,14.0938,25.4376
13:27:36.637,11.25,21.6876
13:27:36.639,9,17.5626
13:27:36.680,6.5313,13.5626
13:27:36.682,4.2813,8.125
13:27:36.683,1.9375,4.125
13:27:36.690,-1.0313,0.125
13:27:36.690,-3.25,-5.125
13:27:36.690,-6.4063,-9
13:27:36.702,-7.8125,-14.1876
13:27:36.725,-10.4063,-17.6876
13:27:36.728,-12.5938,-21.9376
13:27:36.731,-14.7188,-25.8126
13:27:36.754,-16.7188,-28.6876
13:27:36.754,-18.1563,-32.2501
13:27:36.758,-20.2501,-36.2501
13:27:36.770,-21.5626,-39.3752
13:27:36.778,-23.5001,-41.1252
13:27:36.789,-24.3126,-43.8752
13:27:36.798,-24.9376,-46.5002
13:27:36.808,-26.0001,-48.4377
13:27:36.819,-26.6564,-50.1877
13:27:36.829,-27.6564,-51.8127
13:27:36.838,-28.7501,-53.5002
13:27:36.849,-29.7189,-54.3752
13:27:36.858,-30.0626,-56.4377
13:27:36.868,-30.4376,-57.3752
13:27:36.879,-31.2501,-60.0627
13:27:36.889,-32.3126,-61.1877
13:27:36.898,-32.6564,-63.1252
13:27:36.908,-34.9689,-65.0627
13:27:36.918,-35.5001,-67.8753
13:27:36.929,-36.5314,-69.7503
13:27:36.938,-37.3126,-72.0628
13:27:36.948,-38.5314,-73.2503
13:27:36.958,-38.2189,-72.4378
13:27:36.968,-33.5314,-67.7503
13:27:36.978,-23.9688,-53.8127
13:27:36.988,-10.9688,-31.2501
13:27:36.998,4.0625,-6.25
13:27:37.009,16.9688,18.8751
13:27:37.018,29.7814,40.4377
13:27:37.028,39.3752,60.6252
13:27:37.038,47.7189,75.7503
13:27:37.048,53.5315,87.5003
13:27:37.058,56.3752,95.5629
13:27:37.068,57.1252,98.2504
13:27:37.078,57.219,99.5629
13:27:37.088,54.5315,96.3754
13:27:37.098,51.2814,93.1879
13:27:37.108,48.5002,87.1878
13:27:37.118,44.9064,82.2503
13:27:37.128,41.0939,75.5628
13:27:37.138,38.2189,71.0628
13:27:37.148,35.0939,67.1878
13:27:37.158,32.7814,61.6877
13:27:37.168,30.9376,59.6877
13:27:37.178,29.5939,55.6252
13:27:37.188,27.2814,54.3127
13:27:37.199,25.9688,50.0627
13:27:37.209,22.9376,46.7502
13:27:37.218,20.3126,40.4377
13:27:37.229,17.9688,36.6876
13:27:37.238,15.9063,33.8126
13:27:37.248,14.9376,30.3751
13:27:37.258,15.1251,30.1876
13:27:37.268,15.5938,29.3126
13:27:37.279,15.9376,30.6251
13:27:37.288,17.7501,32.5626
13:27:37.298,19.6251,35.9376
13:27:37.311,21.5001,39.8127
13:27:37.318,22.7501,42.3752
13:27:37.327,24.1563,44.3752
13:27:37.347,24.1563,45.1877
13:27:37.349,24.5001,44.6252
13:27:37.361,22.9063,43.5627
13:27:37.393,21.9688,41.5627
13:27:37.396,20.6251,38.0626
13:27:37.397,17.6563,34.3126
13:27:37.400,15.5001,30.0001
13:27:37.431,12.9063,25.6251
13:27:37.433,10.2813,21.3751
13:27:37.436,6.5,14.6251
13:27:37.441,3.375,10.6875
13:27:37.448,1.1563,4.875
13:27:37.478,-1.3125,0.4375
13:27:37.480,-3.6563,-3.375
13:27:37.482,-6,-7.9375
13:27:37.489,-7.375,-11.6875
13:27:37.512,-10.4063,-16.1251
13:27:37.515,-11.8438,-19.8126
13:27:37.519,-13.9063,-24.1876
13:27:37.529,-15.9063,-26.3751
13:27:37.538,-17.3751,-30.6876
13:27:37.548,-19.1876,-34.0001
13:27:37.558,-20.6563,-37.4376
13:27:37.569,-22.2501,-38.9376
13:27:37.579,-23.6251,-41.2502
13:27:37.588,-24.3751,-44.3752
13:27:37.598,-25.2501,-46.6877
13:27:37.608,-26.5626,-48.1877
13:27:37.618,-27.4064,-50.0002
13:27:37.628,-27.8126,-51.8127
13:27:37.638,-29.0314,-52.1252
13:27:37.648,-29.6564,-54.7502
13:27:37.658,-30.0314,-56.1877
13:27:37.667,-30.9064,-57.9377
13:27:37.678,-32.0626,-59.6877
13:27:37.693,-33.1876,-60.9377
13:27:37.703,-34.3126,-64.4377
13:27:37.714,-35.4376,-65.5627
13:27:37.724,-36.9376,-68.4378
13:27:37.732,-38.0001,-70.7503
13:27:37.754,-38.8126,-72.1253
13:27:37.757,-38.2501,-73.4378
13:27:37.767,-36.7189,-70.9378
13:27:37.774,-28.9689,-60.1252
13:27:37.791,-16.2188,-39.9377
13:27:37.804,-0.7813,-14.3126
13:27:37.807,14.9688,13.8751
13:27:37.814,28.1876,37.1251
13:27:37.823,40.3127,60.1252
13:27:37.833,49.2502,78.7503
13:27:37.844,57.094,93.4379
13:27:37.853,62.9065,109.0004
13:27:37.865,64.6877,111.5004
13:27:37.874,63.6252,113.0629
13:27:37.884,61.8127,110.1254
13:27:37.893,59.469,106.6254
13:27:37.903,55.6252,101.5629
13:27:37.913,52.9377,95.5629
13:27:37.924,48.3127,90.0628
13:27:37.958,45.7189,84.1878
13:27:37.961,42.5939,79.6253
13:27:37.976,40.6877,75.4378
13:27:37.991,38.8751,72.3753
13:27:37.991,37.1564,69.6253
13:27:37.993,35.4064,67.3128
13:27:38.007,33.6876,63.9377
13:27:38.008,31.3439,61.1252
13:27:38.013,28.6564,56.7502
13:27:38.023,26.6564,51.5002
13:27:38.033,24.2813,48.7502
13:27:38.044,23.5626,45.5002
13:27:38.053,22.8438,44.1252
13:27:38.064,22.9688,44.0627
13:27:38.077,22.9376,44.6877
13:27:38.084,24.6876,46.1252
13:27:38.117,26.5939,49.0002
13:27:38.118,27.0314,51.5002
13:27:38.121,28.5626,53.8752
13:27:38.123,29.2189,54.8752
13:27:38.154,29.6564,55.8752
13:27:38.156,28.9689,55.3127
13:27:38.158,27.5939,54.0627
13:27:38.185,26.3439,50.7502
13:27:38.186,24.0938,46.3752
13:27:38.188,21.7188,43.6252
13:27:38.195,19.2813,38.2501
13:27:38.218,16.3438,33.8126
13:27:38.220,13.6563,29.3751
13:27:38.226,11.3438,24.2501
13:27:38.252,8.2813,19.0001
13:27:38.254,5.2188,14.8126
13:27:38.255,2.9063,9.0625
13:27:38.266,0.3438,4.0625
13:27:38.274,-2.4375,0.1875
13:27:38.282,-4.4688,-4
13:27:38.293,-7.0625,-8.9375
13:27:38.303,-9.0313,-12.625
13:27:38.315,-11.3438,-16.7501
13:27:38.323,-13.3438,-19.2501
13:27:38.333,-14.7501,-23.8751
13:27:38.343,-16.0313,-27.6876
13:27:38.353,-18.4063,-30.6251
13:27:38.363,-19.6876,-33.5626
13:27:38.372,-21.2813,-35.5001
13:27:38.383,-21.7813,-38.2501
13:27:38.392,-23.5313,-41.2502
13:27:38.404,-24.9376,-43.0627
13:27:38.413,-25.8126,-44.3127
13:27:38.423,-26.4376,-46.8752
13:27:38.437,-27.0001,-48.6252
13:27:38.442,-28.4064,-49.3752
13:27:38.453,-29.0314,-52.4377
13:27:38.463,-30.0939,-53.3752
13:27:38.472,-30.5626,-55.4377
13:27:38.483,-31.9689,-56.8127
13:27:38.494,-32.8126,-59.9377
13:27:38.503,-34.4376,-61.7502
13:27:38.513,-35.9064,-65.6252
13:27:38.522,-37.5001,-67.5628
13:27:38.533,-39.1564,-70.7503
13:27:38.542,-40.2814,-72.9378
13:27:38.553,-40.9064,-75.5628
13:27:38.563,-39.6877,-73.6878
13:27:38.573,-34.0314,-66.5003
13:27:38.584,-22.2188,-47.8752
13:27:38.595,-7.0625,-21.7501
13:27:38.604,9.25,4.875
13:27:38.613,22.7188,31.1251
13:27:38.622,34.7501,51.8752
13:27:38.633,44.7814,70.3753
13:27:38.643,51.5314,85.3753
13:27:38.653,56.969,95.7504
13:27:38.663,59.0315,102.0004
13:27:38.674,59.3127,103.5004
13:27:38.683,58.1565,104.1879
13:27:38.693,55.0627,99.8129
13:27:38.704,52.4377,95.4379
13:27:38.714,47.9689,90.4379
13:27:38.723,44.4689,83.1878
13:27:38.732,41.3439,77.0628
13:27:38.744,38.0001,71.9378
13:27:38.754,34.8751,67.5003
13:27:38.764,33.4376,63.5002
13:27:38.773,31.3439,60.5627
13:27:38.783,30.1251,57.8752
13:27:38.794,28.5939,55.1877
13:27:38.806,25.7813,51.5002
13:27:38.813,24.4376,47.2502
13:27:38.853,21.1251,42.9377
13:27:38.855,19.1876,38.6251
13:27:38.857,17.7813,35.2501
13:27:38.859,16.5626,33.6876
13:27:38.866,16.3438,32.3751
13:27:38.898,16.7813,32.7501
13:27:38.900,17.6876,33.8126
13:27:38.901,19.6876,35.6251
13:27:38.931,20.5313,38.3126
13:27:38.933,21.5938,40.5627
13:27:38.934,22.7813,42.2502
13:27:38.940,23.4063,42.5002
13:27:38.978,23.5626,42.4377
13:27:38.980,23.4063,41.8752
13:27:38.982,21.0001,39.8752
13:27:38.993,19.1876,37.0001
13:27:38.995,17.2501,32.3126
13:27:38.999,14.5626,28.5626
13:27:39.008,12.3125,24.3126
13:27:39.018,9.2813,18.7501
13:27:39.029,6.5938,13.6251
13:27:39.038,4.0313,9.375
13:27:39.047,0.3438,4.875
13:27:39.057,-1.7813,-0.625
13:27:39.074,-4.2188,-6.0625
13:27:39.082,-7.375,-10.125
13:27:39.091,-9.125,-14.8126
13:27:39.104,-11.4688,-18.6876
13:27:39.110,-15.0938,-24.8751
13:27:39.120,-16.5626,-28.5001
13:27:39.128,-18.2501,-31.8751
13:27:39.137,-19.9376,-35.2501
13:27:39.148,-22.0313,-39.1251
13:27:39.159,-23.2188,-41.3127
13:27:39.169,-24.9688,-44.7502
13:27:39.179,-26.4063,-47.6877
13:27:39.188,-27.8126,-49.0002
13:27:39.198,-28.0314,-50.3752
13:27:39.207,-27.8751,-52.7502
13:27:39.238,-29.3439,-55.0627
13:27:39.239,-30.3439,-55.0002
13:27:39.242,-30.8439,-56.8752
13:27:39.250,-31.4689,-58.5627
13:27:39.258,-31.7814,-59.8127
13:27:39.274,-32.8439,-62.5002
13:27:39.291,-34.0314,-63.3127
13:27:39.291,-35.5001,-66.2503
13:27:39.306,-36.4689,-68.6253
13:27:39.309,-37.8751,-70.1253
13:27:39.326,-39.2502,-73.1253
13:27:39.330,-40.3439,-75.3128
13:27:39.338,-41.2502,-77.3753
13:27:39.348,-39.6252,-75.8753
13:27:39.358,-34.7189,-67.1253
13:27:39.368,-23.1876,-51.5002
13:27:39.378,-7.7188,-27.1251
13:27:39.388,5.7813,-1.375
13:27:39.398,19.0938,21.3126
13:27:39.409,29.4064,41.5627
13:27:39.418,38.1564,56.8752
13:27:39.429,44.7502,70.2503
13:27:39.438,48.0002,77.3753
13:27:39.449,49.7814,82.7503
13:27:39.458,49.3127,82.5628
13:27:39.476,46.6564,80.9378
13:27:39.479,44.1564,75.5003
13:27:39.506,40.0627,71.1253
13:27:39.509,36.4064,63.6877
13:27:39.511,32.1564,57.6252
13:27:39.518,27.7501,51.1877
13:27:39.545,24.7501,45.3752
13:27:39.551,21.5001,41.0627
13:27:39.551,19.9063,36.1876
13:27:39.563,17.5001,33.1251
13:27:39.569,15.8751,29.6251
13:27:39.600,13.3126,25.8126
13:27:39.602,10.6875,21.6876
13:27:39.605,8.375,16.5001
13:27:39.631,6.375,12.8125
13:27:39.633,4.5938,9
13:27:39.634,3.4688,7.9375
13:27:39.643,4.1563,7.375
13:27:39.649,4.75,8.375
13:27:39.658,6.2813,10.6875
13:27:39.668,8.125,13.7501
13:27:39.678,10.0938,16.9376
13:27:39.689,11.2813,19.8751
13:27:39.698,12.5938,22.6876
13:27:39.708,13.8751,22.5001
13:27:39.717,13.4376,24.0626
13:27:39.728,13.3126,22.7501
13:27:39.744,11.8125,21.2501
13:27:39.749,10.125,18.3751
13:27:39.758,8.4063,15.7501
13:27:39.768,6.0313,11.4375
13:27:39.778,3.0313,8.25
13:27:39.788,1.1875,2.625
13:27:39.798,-1.7813,-1.0625
13:27:39.811,-4.2188,-6.5
13:27:39.818,-7.5625,-10.6875
13:27:39.828,-9.5,-15.6876
13:27:39.838,-12.3438,-19.5001
13:27:39.848,-14.4063,-23.7501
13:27:39.858,-16.7813,-28.3751
13:27:39.868,-18.8438,-31.2501
13:27:39.877,-20.6563,-35.8751
13:27:39.887,-22.8126,-38.8751
13:27:39.898,-24.5001,-42.3752
13:27:39.908,-25.7501,-45.4377
13:27:39.918,-27.7814,-48.5002
13:27:39.928,-29.4376,-50.0002
13:27:39.938,-29.9064,-53.1252
13:27:39.948,-31.2814,-56.1877
13:27:39.958,-31.8126,-56.1877
13:27:39.969,-32.8126,-58.8752
13:27:39.978,-33.4376,-60.3127
13:27:39.987,-34.3439,-62.0002
13:27:39.998,-34.9689,-62.7502
13:27:40.008,-35.3751,-64.6877
13:27:40.017,-35.7814,-65.3127
13:27:40.029,-36.7814,-67.2503
13:27:40.037,-37.7189,-68.8753
13:27:40.048,-38.3751,-69.9378
13:27:40.058,-39.5627,-72.3128
13:27:40.068,-40.8439,-75.0628
13:27:40.078,-41.5627,-76.1253
13:27:40.090,-42.6252,-78.1878
13:27:40.098,-42.5002,-79.1253
13:27:40.108,-40.9377,-77.3128
13:27:40.119,-35.0626,-68.8128
13:27:40.128,-23.9376,-53.0002
13:27:40.137,-10.1875,-28.0001
13:27:40.148,4.9375,-2.6875
13:27:40.158,17.7501,19.8126
13:27:40.167,28.7814,40.5002
13:27:40.178,38.7814,57.8127
13:27:40.188,44.0939,70.8128
13:27:40.198,48.7502,79.6253
13:27:40.209,50.9377,84.5003
13:27:40.219,50.1564,86.6878
13:27:40.228,48.4689,84.0003
13:27:40.251,45.3752,81.0628
13:27:40.254,42.3752,75.0003
13:27:40.257,39.1876,69.8753
13:27:40.288,34.2814,63.6877
13:27:40.290,31.5001,57.3752
13:27:40.291,28.1251,52.8127
13:27:40.299,26.4064,48.1252
13:27:40.329,24.6876,46.0002
13:27:40.331,22.5001,42.6252
13:27:40.333,21.2813,41.3127
13:27:40.339,19.7813,37.7501
13:27:40.372,17.9376,35.1876
13:27:40.373,15.7501,30.3126
13:27:40.375,13.7501,26.5001
13:27:40.378,11.5938,23.0001
13:27:40.429,10.0938,20.3126
13:27:40.441,10.1875,19.3751
13:27:40.446,9.8125,19.4376
13:27:40.457,10.5313,19.6251
13:27:40.459,11.6563,20.6876
13:27:40.464,12.8125,23.2501
13:27:40.464,15.0313,26.2501
13:27:40.464,16.1251,28.6251
13:27:40.468,17.3751,30.4376
13:27:40.478,18.2813,31.9376
13:27:40.517,17.1563,32.0626
13:27:40.520,17.7813,31.0001
13:27:40.522,15.5001,28.6876
13:27:40.529,14.1251,26.3126
13:27:40.530,11.5313,21.6876
13:27:40.540,8.75,18.1876
13:27:40.548,6.875,13.5626
13:27:40.558,4.5938,9.3125
13:27:40.567,1.1563,5.3125
13:27:40.577,-1.1875,0.75
13:27:40.592,-4.0313,-4.3125
13:27:40.601,-5.6875,-9.25
13:27:40.608,-8.0625,-12.3125
13:27:40.625,-10.75,-16.4376
13:27:40.641,-13.0625,-20.6251
13:27:40.643,-14.8126,-24.2501
13:27:40.648,-16.7188,-27.6251
13:27:40.658,-17.9688,-30.6876
13:27:40.668,-19.8126,-33.6876
13:27:40.678,-21.5313,-36.8126
13:27:40.688,-22.6251,-39.5627
13:27:40.698,-24.5626,-42.4377
13:27:40.709,-25.3751,-44.2502
13:27:40.717,-26.0938,-46.0002
13:27:40.728,-26.6251,-48.5002
13:27:40.738,-27.7814,-50.6877
13:27:40.748,-28.5001,-51.8127
13:27:40.759,-29.2501,-53.0002
13:27:40.768,-30.0314,-54.8752
13:27:40.778,-30.5626,-56.0002
13:27:40.788,-30.8439,-57.2502
13:27:40.798,-31.5626,-57.6877
13:27:40.808,-31.7501,-59.2502
13:27:40.818,-32.6564,-60.6252
13:27:40.828,-33.1876,-62.3127
13:27:40.838,-35.3439,-64.2502
13:27:40.848,-35.7189,-66.7503
13:27:40.858,-37.2501,-69.2503
13:27:40.868,-39.0001,-70.8753
13:27:40.879,-39.5002,-74.0628
13:27:40.888,-40.1877,-73.3753
13:27:40.898,-38.9064,-73.6878
13:27:40.907,-34.0001,-66.6253
13:27:40.918,-23.7188,-51.0627
13:27:40.928,-9.6563,-27.8126
13:27:40.938,4.5938,-2.5625
13:27:40.948,18.3751,20.4376
13:27:40.959,30.4064,43.2502
13:27:40.968,39.7189,60.1877
13:27:40.977,47.2814,75.0628
13:27:40.988,51.8439,84.8128
13:27:40.999,54.5002,91.4379
13:27:41.026,54.6877,93.6254
13:27:41.028,53.1565,92.8754
13:27:41.030,51.2814,90.8754
13:27:41.062,47.7814,86.0003
13:27:41.064,45.2189,80.9378
13:27:41.066,41.0314,76.8753
13:27:41.069,38.3126,70.3753
13:27:41.101,35.2501,66.7503
13:27:41.103,32.7814,63.1252
13:27:41.105,31.4689,59.9377
13:27:41.135,30.5001,57.5627
13:27:41.135,30.4689,56.8127
13:27:41.136,28.7501,54.1877
13:27:41.143,26.2813,51.3752
13:27:41.152,24.1563,47.6877
13:27:41.158,21.9688,43.0627
13:27:41.173,19.7813,39.1876
13:27:41.178,18.0938,35.6251
13:27:41.189,17.3126,34.0626
13:27:41.197,16.7188,32.8751
13:27:41.207,17.2188,33.1876
13:27:41.217,18.5626,34.5001
13:27:41.228,18.5938,36.0626
13:27:41.244,20.3438,38.1251
13:27:41.249,21.4688,40.1252
13:27:41.257,22.5001,42.6877
13:27:41.267,23.1876,42.1877
13:27:41.278,22.0938,42.8752
13:27:41.288,22.0626,41.1252
13:27:41.297,20.2501,39.5002
13:27:41.309,19.3126,36.6876
13:27:41.318,16.2813,32.6876
13:27:41.328,14.4688,29.0001
13:27:41.338,11.3125,24.0001
13:27:41.348,8.4688,19.8751
13:27:41.359,6.1875,15.0626
13:27:41.368,3.6563,10.6875
13:27:41.378,1.125,5.9375
13:27:41.387,-1.4063,1.625
13:27:41.397,-3.9063,-3.875
13:27:41.408,-6.4375,-7.875
13:27:41.419,-7.625,-11.75
13:27:41.428,-11.3125,-15.9376
13:27:41.438,-12.5938,-19.8126
13:27:41.448,-15.4688,-24.4376
13:27:41.458,-16.2813,-27.1876
13:27:41.467,-18.8438,-31.1876
13:27:41.480,-20.1251,-34.7501
13:27:41.488,-22.7188,-37.8126
13:27:41.498,-24.2188,-40.5002
13:27:41.508,-24.9376,-44.5002
13:27:41.518,-27.0001,-46.5002
13:27:41.528,-28.1564,-49.5627
13:27:41.538,-29.6876,-52.1877
13:27:41.547,-30.4689,-53.0627
13:27:41.559,-30.9064,-55.6877
13:27:41.569,-31.8751,-57.3127
13:27:41.580,-32.3439,-59.1877
13:27:41.588,-34.0001,-61.3752
13:27:41.598,-34.6251,-62.5002
13:27:41.609,-35.3439,-64.5002
13:27:41.620,-36.3126,-66.2503
13:27:41.628,-37.3126,-69.3753
13:27:41.637,-38.3126,-70.2503
13:27:41.648,-39.4689,-73.3128
13:27:41.657,-40.1252,-75.0628
13:27:41.668,-41.0627,-77.5003
13:27:41.679,-42.0002,-79.0003
13:27:41.688,-43.2189,-81.3128
13:27:41.698,-43.4064,-82.1253
13:27:41.721,-40.2502,-78.8753
13:27:41.724,-33.6564,-69.6253
13:27:41.751,-21.8126,-50.9377
13:27:41.851,-8.8438,-28.4376
13:27:41.857,4.625,-5.1875
13:27:41.857,16.7188,15.8126
13:27:41.857,25.4376,33.2501
13:27:41.887,34.2189,48.0627
13:27:41.888,39.2502,59.0002
13:27:41.888,43.1564,66.8128
13:27:41.889,44.3127,70.5003
13:27:41.891,43.4689,70.0628
13:27:41.909,41.7814,68.5628
13:27:41.912,38.8751,66.3753
13:27:41.921,35.5939,60.7502
13:27:41.928,32.7501,55.1252
13:27:41.933,29.2501,50.0627
13:27:41.949,26.3126,45.3127
13:27:41.957,23.8751,42.2502
13:27:41.964,22.4688,38.1876
13:27:41.974,20.8438,36.2501
13:27:41.984,20.2188,34.5001
13:27:41.995,18.9063,32.5001
13:27:42.005,16.5313,30.0626
13:27:42.013,15.4063,25.9376
13:27:42.024,12.8438,21.7501
13:27:42.033,22.8126,35.1876
13:27:42.043,11.25,17.6876
13:27:42.053,13.0313,19.0626
13:27:42.063,13.9688,20.5001
13:27:42.073,15.0001,22.4376
13:27:42.083,13.6876,21.5001
13:27:42.094,13.7501,20.4376
13:27:42.104,12.8125,19.0001
13:27:42.113,10.75,16.2501
13:27:42.124,9.2813,12.9375
13:27:42.132,6.3125,9.3125
13:27:42.143,3.8438,5.5
13:27:42.154,1.7813,0.8125
13:27:42.163,-0.6875,-3.125
13:27:42.173,-2.75,-8.3125
13:27:42.184,-6.5313,-12.5625
13:27:42.196,-7.9063,-16.9376
13:27:42.204,-10.5313,-20.5001
13:27:42.214,-12.2813,-23.5001
13:27:42.223,-14.5626,-28.6251
13:27:42.234,-16.8126,-32.1251
13:27:42.243,-18.2813,-35.4376
13:27:42.255,-20.0938,-38.2501
13:27:42.263,-20.8438,-41.1252
13:27:42.274,-23.0001,-43.5627
13:27:42.283,-24.7501,-45.9377
13:27:42.294,-25.3126,-48.8127
13:27:42.303,-26.6876,-50.5627
13:27:42.314,-27.0626,-52.8127
13:27:42.323,-28.1564,-55.3127
13:27:42.334,-28.9064,-56.1252
13:27:42.346,-30.2814,-56.9377
13:27:42.353,-30.4064,-59.3752
13:27:42.371,-30.9064,-60.9377
13:27:42.374,-32.0001,-61.9377
13:27:42.385,-33.0626,-63.2502
13:27:42.393,-33.1876,-65.0627
13:27:42.402,-34.0626,-66.1253
13:27:42.412,-34.6251,-68.3753
13:27:42.428,-36.3751,-70.2503
13:27:42.436,-37.2501,-72.3128
13:27:42.466,-38.7189,-74.8753
13:27:42.468,-39.4377,-76.6253
13:27:42.470,-40.3439,-78.8753
13:27:42.477,-41.4689,-78.7503
13:27:42.506,-39.2502,-78.3128
13:27:42.507,-34.2814,-68.8753
13:27:42.510,-23.0938,-54.1252
13:27:42.539,-11.5,-33.3751
13:27:42.539,0.7813,-14.0626
13:27:42.541,11.125,4.6875
13:27:42.545,20.3751,22.1876
13:27:42.559,27.9376,35.3751
13:27:42.564,33.1251,45.7502
13:27:42.594,36.1564,52.8127
13:27:42.597,36.1251,55.9377
13:27:42.599,35.8439,55.5627
13:27:42.607,34.4064,53.3752
13:27:42.613,31.9689,49.3752
13:27:42.624,27.2814,44.5627
13:27:42.635,24.5001,39.1877
13:27:42.643,20.7501,33.8126
13:27:42.652,17.6876,29.7501
13:27:42.663,15.1563,23.6876
13:27:42.675,12.3125,19.8751
13:27:42.684,10.7813,16.2501
13:27:42.694,8.625,13.4376
13:27:42.704,6.5938,11
13:27:42.714,4.7188,6.625
13:27:42.726,2.25,2
13:27:42.735,-0.1563,-2.125
13:27:42.742,-2.3125,-4.875
13:27:42.754,-2.875,-7.625
13:27:42.763,-3.2188,-8.25
13:27:42.773,-2.7188,-7.5
13:27:42.784,-1.9688,-6.5
13:27:42.794,-0.8125,-3.9375
13:27:42.803,1.5938,-1.75
13:27:42.814,3.5313,1.8125
13:27:42.825,5.375,4.4375
13:27:42.834,6.0313,6.4375
13:27:42.844,7.5,7.6875
13:27:42.853,6.8125,8.5625
13:27:42.864,6.1563,7.5625
13:27:42.873,4.9063,5.0625
13:27:42.883,2.8125,3.1875
13:27:42.894,1.5,-0.5625
13:27:42.905,0.3438,-3.5
13:27:42.915,-2.4688,-7.1875
13:27:42.925,-5.0313,-12.0625
13:27:42.933,-7.125,-15.5001
13:27:42.946,-10.1875,-18.6251
13:27:42.953,-11.9063,-23.6251
13:27:42.964,-14.0313,-27.5001
13:27:42.975,-16.2501,-30.8126
13:27:42.984,-18.9688,-34.6876
13:27:42.994,-20.0938,-38.5001
13:27:43.003,-22.8438,-41.6252
13:27:43.020,-23.8126,-45.2502
13:27:43.028,-26.0001,-48.2502
13:27:43.039,-26.9689,-51.0002
13:27:43.049,-28.3126,-54.2502
13:27:43.075,-30.0939,-56.0627
13:27:43.081,-30.7189,-58.3127
13:27:43.098,-32.3751,-60.0002
13:27:43.100,-33.6251,-63.0002
13:27:43.132,-33.3439,-63.5002
13:27:43.133,-34.6564,-65.6253
13:27:43.149,-34.6251,-66.6253
13:27:43.150,-35.2501,-67.4378
13:27:43.154,-35.6564,-68.3128
13:27:43.154,-36.3126,-68.3753
13:27:43.159,-36.9376,-70.5003
13:27:43.169,-36.9689,-72.0003
13:27:43.179,-39.1564,-75.0003
13:27:43.189,-39.4689,-76.0628
13:27:43.214,-40.5939,-78.0628
13:27:43.216,-41.7502,-80.0003
13:27:43.221,-42.1877,-81.4378
13:27:43.253,-43.5002,-82.9378
13:27:43.255,-44.0627,-83.9378
13:27:43.289,-43.4377,-85.5003
13:27:43.289,-41.1252,-82.3753
13:27:43.291,-34.0314,-70.9378
13:27:43.319,-21.9376,-53.5627
13:27:43.349,-8.875,-30.6251
13:27:43.349,4.1875,-7
13:27:43.349,16.0626,12.8125
13:27:43.352,26.0938,31.0001
13:27:43.355,34.2189,47.1252
13:27:43.361,40.7189,58.9377
13:27:43.361,44.0939,66.7503
13:27:43.374,45.9689,71.3753
13:27:43.380,45.5627,71.7503
13:27:43.388,43.9689,70.9378
13:27:43.399,40.4377,67.1253
13:27:43.409,37.9376,62.5627
13:27:43.418,34.4376,57.0002
13:27:43.429,31.5001,52.4377
13:27:43.439,28.1876,48.2502
13:27:43.450,25.7188,43.0627
13:27:43.459,23.9688,40.7502
13:27:43.469,22.7501,38.2501
13:27:43.479,21.9376,35.8126
13:27:43.490,19.2501,32.0626
13:27:43.499,18.0313,30.0626
13:27:43.508,15.2813,25.5626
13:27:43.518,12.875,21.5001
13:27:43.528,11.0625,18.9376
13:27:43.538,10.3438,16.0626
13:27:43.548,9.5,15.4376
13:27:43.558,10.25,15.0626
13:27:43.571,10.2188,15.3751
13:27:43.578,12.125,17.0001
13:27:43.589,13.4063,20.3751
13:27:43.597,14.4376,23.1876
13:27:43.609,16.6563,25.0001
13:27:43.619,16.5938,27.1876
13:27:43.631,17.5001,26.8751
13:27:43.639,16.9688,26.8751
13:27:43.649,16.5313,26.1251
13:27:43.659,15.5001,23.6876
13:27:43.668,14.0001,21.3751
13:27:43.679,11.4375,17.9376
13:27:43.688,9.375,14.2501
13:27:43.698,7.125,10.0625
13:27:43.707,4.6875,6.0625
13:27:43.717,2.375,2.0625
13:27:43.729,-0.6875,-2
13:27:43.739,-3.0625,-6.5
13:27:43.748,-5.2813,-10.5
13:27:43.760,-7.0625,-14.1251
13:27:43.769,-9.1563,-18.1251
13:27:43.779,-12,-21.8126
13:27:43.789,-14.2813,-25.6251
13:27:43.798,-15.6876,-28.8751
13:27:43.810,-17.3438,-31.4376
13:27:43.818,-19.0313,-35.0001
13:27:43.828,-20.5313,-37.0626
13:27:43.839,-22.2501,-40.8752
13:27:43.848,-23.1251,-42.4377
13:27:43.859,-23.8751,-45.6252
13:27:43.887,-25.5626,-47.6877
13:27:43.889,-26.1251,-49.5002
13:27:43.891,-28.0001,-51.3752
13:27:43.900,-28.0001,-52.9377
13:27:43.929,-28.7814,-54.0002
13:27:43.931,-29.7814,-56.6252
13:27:43.935,-29.8751,-57.5002
13:27:43.960,-30.8751,-57.0627
13:27:43.960,-30.7814,-59.5627
13:27:43.964,-30.6876,-59.5627
13:27:43.992,-32.4064,-61.3127
13:27:43.994,-32.7814,-63.3127
13:27:43.996,-34.3751,-64.1877
13:27:44.003,-34.8439,-66.7503
13:27:44.009,-35.8751,-69.0628
13:27:44.047,-37.0314,-71.0628
13:27:44.048,-37.9064,-73.3753
13:27:44.050,-39.9689,-75.0003
13:27:44.053,-40.4377,-77.1253
13:27:44.060,-41.4064,-78.1878
13:27:44.078,-39.6564,-77.7503
13:27:44.080,-34.8751,-70.3753
13:27:44.089,-24.1563,-53.5002
13:27:44.099,-10.0313,-30.5626
13:27:44.109,4.0938,-5.875
13:27:44.120,17.6563,16.3126
13:27:44.129,28.1876,37.9376
13:27:44.138,38.3439,54.7502
13:27:44.149,45.0939,69.5003
13:27:44.164,50.9377,80.5003
13:27:44.174,52.7814,86.4378
13:27:44.184,53.6565,89.1878
13:27:44.195,52.0939,88.0628
13:27:44.204,50.1877,86.8753
13:27:44.214,47.3752,81.8753
13:27:44.224,44.1877,78.3753
13:27:44.234,40.6877,73.1878
13:27:44.245,37.7189,67.6253
13:27:44.254,34.9376,64.2502
13:27:44.264,33.8751,60.1252
13:27:44.273,31.7189,57.9377
13:27:44.284,31.5001,56.2502
13:27:44.293,30.1876,54.6252
13:27:44.303,29.7501,52.8752
13:27:44.314,27.9376,51.1877
13:27:44.324,25.7501,46.5002
13:27:44.358,22.5626,42.4377
13:27:44.362,20.4063,38.8751
13:27:44.364,19.3126,35.9376
13:27:44.365,18.4688,34.6251
13:27:44.374,18.3438,32.7501
13:27:44.384,18.0313,33.3126
13:27:44.393,19.0938,33.6876
13:27:44.415,20.0626,35.7501
13:27:44.420,21.7501,38.5626
13:27:44.428,22.5938,39.6252
13:27:44.434,23.3126,41.5627
13:27:44.454,23.7813,41.8752
13:27:44.456,23.4376,41.7502
13:27:44.470,23.0938,40.6877
13:27:44.474,21.2813,39.1251
13:27:44.484,19.2813,37.0001
13:27:44.493,17.8126,32.5001
13:27:44.504,14.2501,28.8126
13:27:44.514,12.5625,24.6876
13:27:44.524,10.0313,19.3751
13:27:44.534,7.2188,15.5626
13:27:44.545,4.625,10.625
13:27:44.553,2,6.75
13:27:44.564,-0.2188,1.375
13:27:44.574,-2.1875,-2.75
13:27:44.585,-5.125,-6.9375
13:27:44.601,-7.8125,-11
13:27:44.617,-9.3125,-14.9376
13:27:44.621,-11.5938,-17.8126
13:27:44.634,-13.8751,-21.2501
13:27:44.637,-15.4688,-25.3126
13:27:44.652,-17.0626,-28.8126
13:27:44.654,-18.9376,-31.8751
13:27:44.696,-20.3751,-35.6876
13:27:44.697,-21.5313,-37.1876
13:27:44.699,-23.0938,-40.1252
13:27:44.703,-24.0313,-42.0002
13:27:44.709,-25.2813,-44.4377
13:27:44.715,-25.5001,-46.3752
13:27:44.746,-26.9689,-48.1877
13:27:44.749,-27.8751,-49.3127
13:27:44.751,-28.1564,-51.1252
13:27:44.754,-29.0314,-52.1877
13:27:44.789,-29.9376,-54.3127
13:27:44.792,-30.8751,-55.3752
13:27:44.797,-32.4689,-58.6252
13:27:44.802,-32.6564,-58.9377
13:27:44.804,-34.0001,-60.5627
13:27:44.832,-34.9376,-63.3127
13:27:44.834,-35.7814,-65.6252
13:27:44.837,-37.5314,-66.6878
13:27:44.846,-38.9376,-69.7503
13:27:44.854,-40.3127,-71.5628
13:27:44.865,-40.9377,-74.0628
13:27:44.874,-41.9377,-74.8128
13:27:44.885,-40.6252,-75.5628
13:27:44.893,-35.9689,-67.8753
13:27:44.904,-25.5001,-52.9377
13:27:44.914,-11.75,-30.5626
13:27:44.923,2.9688,-6.125
13:27:44.934,15.4688,17.3126
13:27:44.946,26.9376,37.9376
13:27:44.954,36.8439,55.3127
13:27:44.964,44.4377,71.0628
13:27:44.974,49.3127,81.1253
13:27:44.984,52.0314,88.2503
13:27:44.994,51.9689,89.8753
13:27:45.004,51.6564,89.8753
13:27:45.014,48.8439,86.8128
13:27:45.024,46.5314,83.5628
13:27:45.035,43.0627,77.8753
13:27:45.044,39.1564,72.5003
13:27:45.054,36.4689,67.0003
13:27:45.065,32.5001,61.1252
13:27:45.074,29.7501,57.7502
13:27:45.084,27.5939,53.6252
13:27:45.094,26.0626,50.6877
13:27:45.106,25.0938,49.4377
13:27:45.114,24.0938,46.7502
13:27:45.125,21.5001,43.7502
13:27:45.134,20.1251,39.2501
13:27:45.144,17.1876,35.2501
13:27:45.154,15.0626,31.6876
13:27:45.164,13.5313,27.7501
13:27:45.174,12.5313,26.5626
13:27:45.184,12.1563,24.2501
13:27:45.194,12.2813,25.0626
13:27:45.209,13.2188,25.5626
13:27:45.214,14.9063,27.1876
13:27:45.224,16.3438,29.5001
13:27:45.234,16.6876,31.9376
13:27:45.244,17.8751,33.1251
13:27:45.255,18.8751,34.4376
13:27:45.266,18.3438,34.7501
13:27:45.274,18.4376,33.5001
13:27:45.285,16.2501,32.7501
13:27:45.295,15.0313,29.7501
13:27:45.305,13.0625,26.5001
13:27:45.314,10.9375,22.8126
13:27:45.324,8.1563,17.9376
13:27:45.334,5.1563,13.6876
13:27:45.344,2.25,8.25
13:27:45.354,-0.1563,3.875
13:27:45.366,-3.5938,-1.25
13:27:45.374,-7.3125,-6.1875
13:27:45.385,-10.0625,-11.4375
13:27:45.394,-14.4063,-16.3751
13:27:45.406,-17.9376,-22.0626
13:27:45.438,-22.3126,-26.6876
13:27:45.439,-26.1251,-32.0001
13:27:45.442,-30.5001,-38.0626
13:27:45.444,-35.9376,-43.7502
13:27:45.477,-40.6252,-49.1877
13:27:45.478,-45.6252,-55.3752
13:27:45.481,-49.6252,-59.7502
13:27:45.486,-53.6877,-64.5627
13:27:45.514,-59.0627,-69.6253
13:27:45.520,-62.1252,-73.5628
13:27:45.520,-65.0002,-75.8753
13:27:45.545,-68.8128,-79.1253
13:27:45.547,-73.3128,-82.8753
13:27:45.549,-76.0003,-86.0628
13:27:45.555,-78.7816,-87.1253
13:27:45.591,-81.1878,-90.6254
13:27:45.594,-83.6566,-91.6879
13:27:45.595,-86.3128,-94.6254
13:27:45.597,-88.1566,-95.7504
13:27:45.605,-91.7816,-98.1254
13:27:45.635,-94.5004,-101.3754
13:27:45.638,-96.6254,-101.7504
13:27:45.641,-100.5629,-105.5629
13:27:45.648,-104.5316,-108.5629
13:27:45.657,-107.5942,-111.8129
13:27:45.664,-110.8442,-115.0629
13:27:45.675,-115.0317,-116.8754
13:27:45.684,-117.5942,-119.3755
13:27:45.694,-118.5942,-119.7505
13:27:45.704,-117.2192,-117.6879
13:27:45.715,-111.9067,-110.2504
13:27:45.725,-104.4066,-95.1254
13:27:45.740,-94.7816,-78.0003
13:27:45.746,-83.7503,-57.0002
13:27:45.754,-73.1253,-34.4376
13:27:45.769,-62.5315,-14.0626
13:27:45.785,-51.3439,7.9375
13:27:45.788,-42.1877,27.1876
13:27:45.794,-34.4689,41.0627
13:27:45.804,-30.4064,52.5002
13:27:45.815,-27.6876,58.0627
13:27:45.824,-26.3126,60.7502
13:27:45.834,-27.7814,61.5627
13:27:45.844,-27.8439,60.8752
13:27:45.854,-29.2501,59.3752
13:27:45.864,-31.1876,54.3127
13:27:45.874,-34.3126,50.5627
13:27:45.884,-36.9376,45.7502
13:27:45.894,-38.5314,43.4377
13:27:45.905,-40.0002,38.7501
13:27:45.920,-41.0314,36.7501
13:27:45.926,-42.2189,32.7501
13:27:45.935,-43.3752,30.6251
13:27:45.951,-44.5627,27.5001
13:27:45.955,-46.3127,23.6876
13:27:45.971,-48.6564,18.0001
13:27:45.974,-49.8752,14.9376
13:27:45.984,-51.6564,11.375
13:27:45.994,-52.5002,9.6875
13:27:46.004,-51.5002,9.875
13:27:46.014,-49.5002,12.5625
13:27:46.024,-48.0939,13.4376
13:27:46.034,-46.6252,16.8126
13:27:46.044,-44.5002,19.1251
13:27:46.054,-42.2189,21.6251
13:27:46.064,-40.5627,23.5626
13:27:46.074,-39.4064,24.8751
13:27:46.084,-38.5001,25.7501
13:27:46.094,-39.2501,25.7501
13:27:46.104,-38.0626,24.9376
13:27:46.114,-39.5627,23.3126
13:27:46.123,-40.8127,20.8126
13:27:46.164,-42.3439,16.1876
13:27:46.165,-44.7814,13.3126
13:27:46.169,-46.5627,8.125
13:27:46.170,-49.1564,2.8125
13:27:46.175,-50.9377,-1.5625
13:27:46.203,-53.469,-5.25
13:27:46.205,-54.6252,-9.375
13:27:46.208,-56.5002,-13.8751
13:27:46.215,-57.344,-18.5001
13:27:46.248,-58.8752,-21.5001
13:27:46.249,-60.6877,-26.6251
13:27:46.251,-62.469,-29.8751
13:27:46.254,-63.8752,-33.6876
13:27:46.281,-64.8127,-37.6876
13:27:46.284,-66.3753,-41.2502
13:27:46.286,-67.6565,-43.9377
13:27:46.302,-68.3128,-46.1877
13:27:46.305,-68.6565,-49.0627
13:27:46.314,-69.0628,-51.1877
13:27:46.324,-67.7503,-52.4377
13:27:46.335,-68.344,-52.7502
13:27:46.346,-68.2503,-54.4377
13:27:46.356,-67.1878,-55.3127
13:27:46.364,-67.7503,-56.8127
13:27:46.374,-67.1565,-58.5627
13:27:46.384,-67.2815,-58.4377
13:27:46.394,-67.5315,-59.7502
13:27:46.404,-66.969,-62.1877
13:27:46.414,-68.1253,-62.8127
13:27:46.425,-67.8753,-65.3752
13:27:46.435,-69.1565,-66.3753
13:27:46.444,-69.844,-69.2503
13:27:46.455,-69.594,-69.8753
13:27:46.464,-69.1565,-71.1253
13:27:46.474,-66.5628,-68.8128
13:27:46.484,-61.8127,-63.8752
13:27:46.494,-53.2815,-50.6252
13:27:46.504,-41.0627,-32.6251
13:27:46.515,-28.0314,-10.5
13:27:46.524,-14.8438,11
13:27:46.535,-2.7188,33.5001
13:27:46.544,8.625,52.9377
13:27:46.554,17.9376,71.0628
13:27:46.564,25.4376,84.6253
13:27:46.574,29.9376,95.3754
13:27:46.585,32.5314,100.9379
13:27:46.594,32.6876,104.3129
13:27:46.604,31.5626,103.3754
13:27:46.615,29.7189,101.1254
13:27:46.625,27.4689,96.6879
13:27:46.634,24.5001,93.1254
13:27:46.644,21.1876,87.6253
13:27:46.654,18.7501,82.5628
13:27:46.664,15.4376,77.2503
13:27:46.674,12.8438,72.8753
13:27:46.684,11.125,68.5003
13:27:46.694,8.9063,64.4377
13:27:46.704,7.9375,61.5627
13:27:46.718,4.4375,57.1252
13:27:46.724,2.625,51.5627
13:27:46.734,-0.9688,46.5002
13:27:46.745,-2.9688,41.9377
13:27:46.754,-5.5313,37.5626
13:27:46.764,-6.4688,35.6876
13:27:46.774,-6.75,32.9376
13:27:46.784,-7.0313,33.3751
13:27:46.794,-6.8438,32.1876
13:27:46.805,-5.6563,33.3126
13:27:46.815,-4.1563,35.0626
13:27:46.825,-2.8125,37.1251
13:27:46.834,-1.75,39.3126
13:27:46.848,-0.9063,41.0002
13:27:46.875,-0.0938,41.1877
13:27:46.878,-0.0938,41.3127
13:27:46.880,-1.3438,39.6877
13:27:46.920,-2.7813,38.5001
13:27:46.920,-4.5625,35.1876
13:27:46.921,-6.125,31.9376
13:27:46.928,-8.6875,27.3126
13:27:46.932,-11.375,23.6876
13:27:46.943,-13.7501,18.4376
13:27:46.945,-17.3438,14.3126
13:27:46.978,-19.7501,8.25
13:27:46.980,-22.2813,4.875
13:27:46.982,-24.5001,-1
13:27:46.987,-26.5314,-4.5625
13:27:47.003,-28.6251,-9.9375
13:27:47.005,-31.0939,-13.5626
13:27:47.020,-32.7501,-18.8126
13:27:47.024,-35.5314,-22.5626
13:27:47.039,-37.7814,-27.6876
13:27:47.055,-39.4689,-31.5001
13:27:47.072,-40.7189,-35.1876
13:27:47.076,-42.5627,-39.0626
13:27:47.088,-44.2189,-41.5002
13:27:47.091,-45.1564,-45.0627
13:27:47.105,-45.9377,-46.9377
13:27:47.111,-46.9377,-49.1252
13:27:47.119,-47.0627,-52.0627
13:27:47.129,-48.3752,-53.3752
13:27:47.139,-48.3439,-55.2502
13:27:47.150,-48.9064,-55.4377
13:27:47.160,-48.5939,-57.8127
13:27:47.169,-48.7502,-58.9377
13:27:47.179,-49.0939,-59.7502
13:27:47.189,-49.5002,-60.8127
13:27:47.199,-51.1564,-62.2502
13:27:47.209,-51.1252,-64.7502
13:27:47.219,-50.7814,-65.8128
13:27:47.235,-50.8752,-66.4378
13:27:47.239,-51.4064,-67.6878
13:27:47.254,-52.0939,-70.2503
13:27:47.269,-52.719,-72.3128
13:27:47.271,-53.3752,-72.8753
13:27:47.288,-53.2815,-73.4378
13:27:47.289,-51.5939,-73.0628
13:27:47.300,-46.5002,-66.0003
13:27:47.309,-36.5001,-50.9377
13:27:47.320,-23.8438,-31.8126
13:27:47.330,-10.3438,-7.4375
13:27:47.339,3.1875,16.1251
13:27:47.349,16.2188,40.2502
13:27:47.359,28.0314,61.1252
13:27:47.369,38.3439,80.8128
13:27:47.379,45.8752,95.1254
13:27:47.389,50.7189,106.0629
13:27:47.399,51.9689,110.6254
13:27:47.411,51.7502,112.5004
13:27:47.422,49.9377,112.0004
13:27:47.429,47.4377,108.9379
13:27:47.440,44.9377,104.2504
13:27:47.449,42.1877,101.0004
13:27:47.459,39.3439,95.7504
13:27:47.475,36.9376,92.5629
13:27:47.479,33.6251,86.6878
13:27:47.489,30.8439,83.3128
13:27:47.499,28.8126,79.2503
13:27:47.510,26.9376,76.1878
13:27:47.519,26.0938,73.8753
13:27:47.529,23.5313,70.8128
13:27:47.539,21.2501,65.5627
13:27:47.549,18.0001,62.1252
13:27:47.562,16.3438,56.1877
13:27:47.595,13.8126,52.3127
13:27:47.598,12.75,48.8127
13:27:47.601,11.5,47.4377
13:27:47.603,11.7188,45.5002
13:27:47.611,12.1563,47.1252
13:27:47.639,13.4063,46.6877
13:27:47.641,14.1876,48.7502
13:27:47.644,15.8751,50.5002
13:27:47.650,16.8751,52.0627
13:27:47.674,18.4063,52.9377
13:27:47.676,18.2501,53.1877
13:27:47.679,17.7501,52.6252
13:27:47.706,17.0626,51.3127
13:27:47.708,14.2188,48.8752
13:27:47.710,12.8438,45.8127
13:27:47.738,11.4063,40.9377
13:27:47.740,7.25,36.6876
13:27:47.742,4.125,31.3126
13:27:47.753,1.1563,25.8126
13:27:47.759,-1.5625,20.7501
13:27:47.769,-4.6563,15.5001
13:27:47.779,-7.5313,10.5625
13:27:47.789,-10.4688,5.8125
13:27:47.800,-14.1251,1.0625
13:27:47.809,-16.7813,-3.5625
13:27:47.819,-18.5001,-8.875
13:27:47.829,-22.3438,-13.8751
13:27:47.839,-24.6251,-17.4376
13:27:47.855,-27.2189,-22.6251
13:27:47.859,-28.9064,-26.5626
13:27:47.869,-30.8126,-30.8751
13:27:47.879,-32.4689,-34.5001
13:27:47.890,-35.1251,-38.1876
13:27:47.899,-37.9689,-42.5627
13:27:47.909,-40.2502,-45.1877
13:27:47.919,-40.9377,-49.0002
13:27:47.929,-42.8439,-51.5002
13:27:47.939,-43.1877,-53.6252
13:27:47.949,-44.0314,-56.2502
13:27:47.959,-45.4064,-58.3127
13:27:47.969,-45.8439,-60.1252
13:27:47.980,-47.8752,-61.6877
13:27:47.989,-47.3439,-64.0002
13:27:47.999,-49.4689,-65.2502
13:27:48.010,-49.9689,-67.2503
13:27:48.019,-50.5002,-68.9378
13:27:48.029,-51.5627,-71.4378
13:27:48.039,-53.3752,-72.8128
13:27:48.049,-54.8752,-76.7503
13:27:48.059,-56.094,-78.5628
13:27:48.069,-57.6877,-81.4378
13:27:48.080,-59.094,-83.6253
13:27:48.089,-59.6565,-86.3753
13:27:48.099,-60.719,-87.9378
13:27:48.109,-61.1252,-89.6878
13:27:48.119,-58.719,-87.6878
13:27:48.129,-52.3127,-78.7503
13:27:48.140,-41.0627,-62.5002
13:27:48.150,-28.1564,-40.2502
13:27:48.159,-14.5313,-17.5001
13:27:48.169,-2.125,3.5
13:27:48.195,8.5625,23.2501
13:27:48.197,18.3438,41.2502
13:27:48.200,25.1563,54.5002
13:27:48.209,30.0314,65.3752
13:27:48.242,31.3751,69.3753
13:27:48.244,31.9376,72.2503
13:27:48.246,30.5939,71.3128
13:27:48.252,28.4376,68.5003
13:27:48.277,26.2188,64.5627
13:27:48.279,22.3751,58.9377
13:27:48.283,18.7813,54.0627
13:27:48.311,15.0001,47.3752
13:27:48.313,12.125,42.0002
13:27:48.316,9.0625,38.1251
13:27:48.320,7.0625,33.1251
13:27:48.353,6.0938,29.9376
13:27:48.355,4.6563,26.9376
13:27:48.357,2.625,23.5001
13:27:48.413,0.7188,19.6876
13:27:48.413,-1.4375,15.2501
13:27:48.414,-3.7813,10.6875
13:27:48.420,-5.7188,7.0625
13:27:48.425,-7.0625,5.0625
13:27:48.425,-6.7813,3.125
13:27:48.429,-5.5,3.625
13:27:48.440,-4.8125,4.875
13:27:48.449,-2.625,7.0625
13:27:48.459,0.125,9.6875
13:27:48.469,2.125,13.3751
13:27:48.479,4.4688,16.1876
13:27:48.489,5.375,17.3126
13:27:48.499,5.4688,19.0626
13:27:48.509,7.1875,19.3751
13:27:48.520,7.0313,20.0001
13:27:48.529,7.25,19.3751
13:27:48.539,6.875,17.6251
13:27:48.555,5.5313,15.2501
13:27:48.571,3.75,12.1875
13:27:48.575,1.2188,8.25
13:27:48.579,-1.4375,3.375
13:27:48.589,-7.4375,-6
13:27:48.599,-10.4063,-10.4375
13:27:48.609,-12.2813,-15.8126
13:27:48.619,-15.8126,-19.7501
13:27:48.629,-18.6876,-25.9376
13:27:48.640,-23.5313,-30.4376
13:27:48.649,-25.5938,-35.5001
13:27:48.659,-28.2814,-38.8751
13:27:48.669,-29.4064,-43.1877
13:27:48.680,-31.9064,-45.7502
13:27:48.689,-32.6251,-49.2502
13:27:48.699,-34.6876,-51.9377
13:27:48.709,-35.9064,-54.6252
13:27:48.719,-37.5626,-57.9377
13:27:48.729,-39.3752,-59.7502
13:27:48.739,-40.5939,-61.3127
13:27:48.750,-41.8439,-64.3127
13:27:48.759,-42.4064,-66.1878
13:27:48.769,-42.6564,-66.3128
13:27:48.783,-43.6564,-69.0628
13:27:48.792,-43.2502,-69.6253
13:27:48.799,-44.5002,-69.4378
13:27:48.809,-44.5002,-71.7503
13:27:48.819,-44.5627,-73.1253
13:27:48.829,-46.2814,-74.6878
13:27:48.839,-47.1252,-76.1253
13:27:48.849,-48.2814,-79.3128
13:27:48.859,-49.5939,-80.9378
13:27:48.869,-49.9064,-83.0628
13:27:48.879,-52.1564,-84.9378
13:27:48.889,-52.7814,-87.0003
13:27:48.900,-51.6252,-85.5628
13:27:48.909,-46.0939,-79.6878
13:27:48.919,-38.3439,-68.1253
13:27:48.929,-27.2189,-50.0627
13:27:48.939,-14.8126,-30.1251
13:27:48.949,-3.5625,-9.875
13:27:48.959,6.6875,7.8125
13:27:48.969,14.5938,23.5626
13:27:48.979,21.0626,35.9376
13:27:48.989,24.8126,45.0627
13:27:48.999,27.0001,50.1252
13:27:49.031,27.5939,51.4377
13:27:49.032,26.6876,52.2502
13:27:49.034,24.1251,48.7502
13:27:49.041,21.6563,45.5627
13:27:49.066,17.7188,40.8752
13:27:49.070,14.6563,34.6876
13:27:49.071,11.5938,29.9376
13:27:49.086,8.125,25.0626
13:27:49.089,6.7188,20.3751
13:27:49.118,4.625,17.3126
13:27:49.121,2.5938,13.6876
13:27:49.123,1.8438,10.25
13:27:49.129,-0.6875,7.5625
13:27:49.158,-2.25,3.6875
13:27:49.161,-4.9375,0.1875
13:27:49.163,-7.5,-4.125
13:27:49.171,-9.4688,-8.625
13:27:49.196,-10.8438,-11.0625
13:27:49.200,-11.3438,-12.0625
13:27:49.200,-11.8125,-14.3751
13:27:49.211,-11.4375,-14.0626
13:27:49.220,-10.9063,-14.6251
13:27:49.229,-10.4688,-13.125
13:27:49.240,-8.25,-10.5
13:27:49.249,-8.125,-8.375
13:27:49.259,-6.3125,-6.875
13:27:49.269,-5.75,-6.3125
13:27:49.279,-6.4688,-5.75
13:27:49.289,-6.0625,-6.4375
13:27:49.299,-7.5,-7
13:27:49.309,-8.2813,-10.0625
13:27:49.319,-11.1563,-11.6875
13:27:49.329,-12.3125,-15.8126
13:27:49.339,-14.0313,-18.5626
13:27:49.349,-15.8126,-22.1876
13:27:49.359,-17.7188,-24.7501
13:27:49.369,-20.3751,-29.2501
13:27:49.380,-22.6563,-33.6876
13:27:49.389,-24.1251,-36.5626
13:27:49.399,-26.5626,-40.8127
13:27:49.410,-28.3751,-44.7502
13:27:49.419,-31.2814,-48.2502
13:27:49.429,-33.2814,-52.3127
13:27:49.439,-34.2814,-55.0002
13:27:49.449,-36.6876,-59.0002
13:27:49.477,-37.7814,-62.4377
13:27:49.478,-38.8126,-64.6252
13:27:49.480,-40.4064,-68.4378
13:27:49.489,-41.1252,-70.5003
13:27:49.499,-43.4064,-72.6253
13:27:49.509,-43.8752,-75.9378
13:27:49.519,-44.6252,-76.9378
13:27:49.529,-45.3127,-78.8128
13:27:49.539,-45.3439,-80.0628
13:27:49.549,-45.9064,-81.1253
13:27:49.559,-45.3439,-81.8128
13:27:49.574,-45.1252,-82.1253
13:27:49.580,-46.3127,-82.1878
13:27:49.590,-46.3752,-83.9378
13:27:49.599,-46.5627,-85.0003
13:27:49.609,-47.8127,-85.4378
13:27:49.619,-47.7814,-85.7503
13:27:49.629,-47.7189,-85.6878
13:27:49.639,-47.7189,-87.0003
13:27:49.649,-48.2814,-86.1878
13:27:49.659,-48.4064,-87.7503
13:27:49.675,-48.5939,-88.1253
13:27:49.691,-49.2814,-90.0628
13:27:49.694,-49.3752,-90.0628
13:27:49.699,-50.2502,-92.9379
13:27:49.710,-51.5939,-93.2504
13:27:49.719,-52.2189,-94.7504
13:27:49.729,-50.7814,-93.6879
13:27:49.739,-45.5627,-85.2503
13:27:49.772,-34.9064,-71.5628
13:27:49.774,-20.5001,-49.5627
13:27:49.776,-8.5938,-27.1876
13:27:49.781,3.2813,-7.5625
13:27:49.810,13.6251,10.9375
13:27:49.814,20.8751,27.1251
13:27:49.816,26.8439,37.9376
13:27:49.820,30.1876,46.6877
13:27:49.856,33.0001,50.6877
13:27:49.858,32.8439,54.1252
13:27:49.889,32.2501,51.6877
13:27:49.892,29.6876,50.3127
13:27:49.924,27.1876,44.9377
13:27:49.924,23.8126,40.1252
13:27:49.925,20.0001,35.5001
13:27:49.927,16.2813,28.9376
13:27:49.932,13.6563,25.1876
13:27:49.934,11.125,22.1876
13:27:49.940,10.25,18.0001
13:27:49.951,8.0313,17.3126
13:27:49.960,7.7813,14.6251
13:27:49.969,6.7188,13.0625
13:27:49.979,5.1563,9.8125
13:27:49.990,2.9063,5.625
13:27:50.000,0.875,2.4375
13:27:50.009,-0.3438,-1.75
13:27:50.019,-1.1563,-3.75
13:27:50.029,-1.6563,-4.625
13:27:50.040,-1.8438,-4.5625
13:27:50.049,-1.0313,-4.9375
13:27:50.059,2.4063,-0.625
13:27:50.070,3.9063,2.3125
13:27:50.079,5.4375,4.3125
13:27:50.089,6.625,6
13:27:50.099,7.5313,7.0625
13:27:50.109,7.25,6.5625
13:27:50.119,6.7188,6.75
13:27:50.129,5.8125,4.1875
13:27:50.139,4.5,3.8125
13:27:50.149,2.9688,0.4375
13:27:50.159,2.1563,-0.5625
13:27:50.169,1.1563,-3.5625
13:27:50.179,-0.5313,-5.6875
13:27:50.189,-2.5,-8.75
13:27:50.199,-4.5938,-13.5626
13:27:50.209,-6.1563,-16.2501
13:27:50.219,-9.2188,-19.9376
13:27:50.229,-10.5938,-23.8126
13:27:50.239,-13.4688,-26.9376
13:27:50.249,-14.2501,-30.9376
13:27:50.259,-17.2188,-33.3126
13:27:50.269,-19.2813,-37.0626
13:27:50.279,-21.1563,-41.0002
13:27:50.289,-23.3751,-43.7502
13:27:50.299,-24.7813,-46.5002
13:27:50.309,-25.8751,-50.1252
13:27:50.319,-26.8751,-51.5627
13:27:50.328,-28.2814,-54.9377
13:27:50.339,-28.8439,-56.4377
13:27:50.349,-30.4064,-59.2502
13:27:50.360,-31.5314,-61.1252
13:27:50.369,-32.2814,-63.0627
13:27:50.379,-34.2189,-64.8127
13:27:50.389,-34.7189,-66.5003
13:27:50.399,-34.8439,-67.2503
13:27:50.409,-36.3126,-69.6878
13:27:50.420,-36.4064,-69.7503
13:27:50.429,-37.3126,-70.6878
13:27:50.439,-37.7814,-71.8753
13:27:50.449,-38.1876,-72.5003
13:27:50.476,-38.4689,-73.4378
13:27:50.479,-38.7814,-74.7503
13:27:50.480,-40.3752,-75.1253
13:27:50.495,-40.5314,-77.3753
13:27:50.501,-41.1564,-78.4378
13:27:50.526,-41.8752,-80.3753
13:27:50.529,-43.3127,-80.9378
13:27:50.530,-43.6252,-83.6878
13:27:50.567,-45.2189,-85.1253
13:27:50.569,-45.0939,-85.8753
13:27:50.570,-43.2502,-83.3128
13:27:50.577,-37.0314,-74.4378
13:27:50.580,-26.3751,-59.3127
13:27:50.613,-13.8438,-37.6876
13:27:50.613,-0.3438,-15.8751
13:27:50.617,11.5,4.9375
13:27:50.622,21.4376,22.7501
13:27:50.645,29.2501,38.4376
13:27:50.647,34.8751,49.4377
13:27:50.649,37.7501,56.5627
13:27:50.660,39.4064,61.4377
13:27:50.669,39.3127,61.0627
13:27:50.679,37.9689,61.4377
13:27:50.689,36.3439,58.1877
13:27:50.699,34.0626,55.1252
13:27:50.709,30.9689,49.4377
13:27:50.719,27.9064,44.9377
13:27:50.729,24.5626,39.6877
13:27:50.756,21.6563,34.3751
13:27:50.759,19.0001,30.4376
13:27:50.764,16.6876,27.3126
13:27:50.770,15.0938,23.6251
13:27:50.779,14.3126,21.5001
13:27:50.789,13.5001,18.7501
13:27:50.799,12.0938,16.6251
13:27:50.809,11.0938,13.5626
13:27:50.821,8.2813,9.5
13:27:50.829,6.0313,6.75
13:27:50.839,5.4375,3.6875
13:27:50.849,5.125,3.8125
13:27:50.859,6.5625,3.875
13:27:50.869,7.6563,5.3125
13:27:50.879,9.2813,8.25
13:27:50.889,11.25,10.5
13:27:50.899,13.6251,14.8751
13:27:50.909,15.3126,16.8751
13:27:50.919,16.2188,18.6251
13:27:50.929,17.6563,20.5626
13:27:50.939,17.8751,22.1251
13:27:50.949,19.0001,23.2501
13:27:50.970,18.5626,22.0001
13:27:50.975,17.5001,21.3126
13:27:50.989,16.0313,18.1876
13:27:50.995,13.7501,15.9376
13:27:51.000,12.7813,12.125
13:27:51.009,10.5938,9.625
13:27:51.019,8.7188,6.375
13:27:51.029,6.9375,2.5
13:27:51.039,5.0625,-0.0625
13:27:51.050,2.9063,-4.8125
13:27:51.064,0.1563,-8.5625
13:27:51.079,-2.0938,-12.4375
13:27:51.086,-4.2813,-15.8751
13:27:51.094,-6.7813,-20.5001
13:27:51.104,-9.875,-25.3751
13:27:51.115,-12.8125,-28.7501
13:27:51.124,-15.7188,-32.9376
13:27:51.134,-18.0001,-35.7501
13:27:51.153,-18.9376,-38.8126
13:27:51.155,-20.3126,-40.5627
13:27:51.171,-21.0313,-42.2502
13:27:51.175,-22.4688,-44.9377
13:27:51.204,-23.3751,-46.2502
13:27:51.207,-24.6876,-48.8127
13:27:51.209,-25.0938,-50.3752
13:27:51.216,-26.3126,-52.4377
13:27:51.242,-28.3126,-54.1252
13:27:51.244,-28.5314,-54.8752
13:27:51.246,-28.1251,-56.1877
13:27:51.275,-28.2189,-57.7502
13:27:51.277,-29.5314,-58.7502
13:27:51.279,-29.6876,-59.3752
13:27:51.286,-29.8751,-61.5002
13:27:51.312,-30.5314,-62.6252
13:27:51.313,-31.0939,-64.4377
13:27:51.316,-32.4064,-66.0628
13:27:51.327,-33.0626,-67.6253
13:27:51.335,-34.4376,-69.3753
13:27:51.356,-34.3439,-70.3128
13:27:51.359,-33.4689,-68.6253
13:27:51.364,-28.4064,-61.3752
13:27:51.374,-18.2813,-47.0627
13:27:51.384,-5.1563,-25.0001
13:27:51.394,8.7813,-3.0625
13:27:51.404,19.8751,18.0001
13:27:51.414,29.8126,35.3751
13:27:51.424,38.1564,50.1252
13:27:51.435,44.3752,62.3752
13:27:51.444,48.7502,70.7503
13:27:51.454,50.5627,75.8128
13:27:51.464,50.3439,77.5003
13:27:51.474,48.0002,77.0628
13:27:51.485,46.5314,74.1253
13:27:51.494,42.6564,69.9378
13:27:51.504,39.3126,64.8127
13:27:51.514,35.2501,59.0627
13:27:51.524,32.1251,53.4377
13:27:51.535,28.8126,48.6877
13:27:51.544,26.5001,44.1877
13:27:51.554,24.8438,40.1252
13:27:51.564,22.1251,37.0001
13:27:51.575,20.5938,32.9376
13:27:51.584,17.6251,29.1251
13:27:51.594,15.4688,25.2501
13:27:51.604,12.8438,20.5626
13:27:51.614,9.9688,16.6251
13:27:51.624,8.3125,13.0625
13:27:51.634,7.5938,10.6875
13:27:51.644,6.375,10.375
13:27:51.654,6.4063,8.9375
13:27:51.664,6.5,10.375
13:27:51.674,7.9688,11.625
13:27:51.684,10.375,14.9376
13:27:51.694,11.9688,18.0626
13:27:51.705,13.5313,21.6251
13:27:51.714,14.6251,22.9376
13:27:51.725,15.0626,25.2501
13:27:51.734,15.6251,24.7501
13:27:51.744,15.2188,25.9376
13:27:51.755,14.6563,24.0626
13:27:51.764,13.2501,22.8751
13:27:51.774,11.5938,19.6251
13:27:51.784,9.9688,17.6251
13:27:51.794,8.2188,13.4376
13:27:51.804,5.75,10.5
13:27:51.815,3.0313,5.1875
13:27:51.829,0.6875,2.1875
13:27:51.835,-0.875,-2
13:27:51.844,-3.5313,-5.75
13:27:51.854,-5.8125,-10.1875
13:27:51.864,-7.9375,-13.7501
13:27:51.875,-9.7188,-17.6251
13:27:51.884,-11.3125,-20.8751
13:27:51.894,-12.25,-24.1251
13:27:51.904,-14.1251,-26.9376
13:27:51.914,-16.1563,-31.9376
13:27:51.933,-18.0313,-34.0001
13:27:51.935,-19.7813,-37.9376
13:27:51.968,-20.6876,-40.1877
13:27:51.969,-22.8751,-43.9377
13:27:51.972,-24.1251,-46.6252
13:27:51.974,-25.2813,-48.6252
13:27:52.003,-26.6564,-51.5627
13:27:52.006,-27.4376,-53.3127
13:27:52.007,-28.5939,-54.5627
13:27:52.036,-29.7189,-57.5002
13:27:52.038,-30.0001,-58.1252
13:27:52.040,-29.7501,-58.9377
13:27:52.047,-29.7189,-59.5627
13:27:52.076,-29.8751,-61.4377
13:27:52.078,-30.1251,-61.6252
13:27:52.080,-30.7814,-62.7502
13:27:52.086,-32.2189,-63.8127
13:27:52.107,-32.3751,-65.1252
13:27:52.111,-33.0626,-66.3128
13:27:52.118,-33.4376,-68.1878
13:27:52.124,-33.8439,-68.5628
13:27:52.134,-33.6564,-70.0628
13:27:52.144,-33.2814,-69.0003
13:27:52.154,-32.5001,-69.7503
13:27:52.164,-29.5001,-65.8128
13:27:52.174,-21.4688,-52.6252
13:27:52.184,-9.7188,-33.3751
13:27:52.195,3.7188,-9.125
13:27:52.205,17.2188,14.0001
13:27:52.215,29.1251,35.0001
13:27:52.224,40.7814,54.7502
13:27:52.234,49.9064,71.7503
13:27:52.244,55.7502,83.4378
13:27:52.254,57.6877,91.3754
13:27:52.264,57.9065,95.0004
13:27:52.279,57.594,95.3129
13:27:52.294,56.3752,96.5629
13:27:52.297,55.2815,92.3129
13:27:52.305,51.7502,89.0003
13:27:52.314,48.5314,83.2503
13:27:52.326,45.1564,78.3128
13:27:52.334,41.6252,72.9378
13:27:52.344,38.6251,66.6253
13:27:52.354,35.0626,63.3752
13:27:52.364,33.0001,58.6252
13:27:52.374,31.1876,55.3752
13:27:52.384,30.0001,52.8752
13:27:52.394,28.7189,50.3752
13:27:52.405,26.9064,47.5627
13:27:52.414,25.1563,42.8752
13:27:52.424,23.1876,39.3127
13:27:52.434,22.3438,36.5001
13:27:52.450,22.1251,34.6876
13:27:52.465,21.9376,35.2501
13:27:52.468,23.2813,36.1876
13:27:52.474,25.4688,37.8751
13:27:52.484,27.8439,40.8127
13:27:52.494,30.4376,43.3127
13:27:52.504,32.4376,47.5002
13:27:52.514,34.5001,49.3752
13:27:52.524,36.9064,52.8752
13:27:52.534,38.1876,54.1877
13:27:52.544,38.9376,55.8127
13:27:52.554,39.7502,56.1252
13:27:52.564,38.5626,55.8127
13:27:52.577,39.1876,54.5627
13:27:52.587,37.2501,52.2502
13:27:52.594,36.4689,49.4377
13:27:52.605,34.4376,46.6877
13:27:52.640,32.0626,43.9377
13:27:52.642,30.1564,39.1877
13:27:52.646,27.8439,34.8751
13:27:52.647,25.6563,30.6876
13:27:52.684,22.7813,25.8751
13:27:52.686,20.2501,22.2501
13:27:52.688,18.3438,18.0001
13:27:52.692,15.7501,13.9376
13:27:52.698,14.0938,10.75
13:27:52.724,10.9375,6.625
13:27:52.728,10.25,4
13:27:52.729,7.9688,1.25
13:27:52.734,5.8125,-2.125
13:27:52.773,4.0625,-5.8125
13:27:52.775,2.1875,-8.375
13:27:52.778,0.875,-11.5625
13:27:52.781,-0.6563,-14.2501
13:27:52.786,-2.8438,-15.6251
13:27:52.795,-3.8125,-17.0626
13:27:52.805,-3.75,-19.5626
13:27:52.814,-4.7813,-20.0626
13:27:52.825,-5.0313,-21.4376
13:27:52.835,-5.1875,-21.0626
13:27:52.845,-5.25,-22.7501
13:27:52.854,-5.6875,-24.0626
13:27:52.864,-5.9063,-23.1251
13:27:52.874,-5.75,-24.2501
13:27:52.886,-4.5625,-25.3751
13:27:52.894,-5.0938,-25.3126
13:27:52.905,-5.0938,-27.0001
13:27:52.914,-7.125,-29.5626
13:27:52.925,-8.5625,-31.0626
13:27:52.934,-9.4688,-33.1876
13:27:52.946,-9.9063,-34.3126
13:27:52.954,-10.4375,-36.3126
13:27:52.965,-10.625,-35.8751
13:27:52.975,-7.5313,-32.6876
13:27:52.984,-0.3125,-20.8751
13:27:52.994,10.3125,-2.875
13:27:53.005,22.0938,19.4376
13:27:53.014,34.7189,41.1877
13:27:53.024,46.0314,63.4377
13:27:53.034,56.969,83.3753
13:27:53.045,65.8128,101.9379
13:27:53.054,72.9065,115.5004
13:27:53.064,77.5315,127.063
13:27:53.074,79.9691,133.313
13:27:53.085,79.7503,137.313
13:27:53.095,79.3753,137.3755
13:27:53.104,76.969,136.438
13:27:53.114,74.1878,132.313
13:27:53.124,70.5315,129.188
13:27:53.134,68.0003,124.0005
13:27:53.145,72.0003,119.188
13:27:53.154,80.6566,129.5005
13:27:53.164,75.0003,124.2505
13:27:53.175,73.719,119.313
13:27:53.184,75.4378,118.438
13:27:53.195,77.1253,118.813
13:27:53.204,80.0316,117.688
13:27:53.214,81.8753,117.063
13:27:53.224,83.8753,115.0004
13:27:53.234,86.3753,113.7504
13:27:53.245,87.1566,112.0629
13:27:53.254,88.8128,109.5629
13:27:53.265,89.0316,108.0629
13:27:53.274,90.1878,107.0629
13:27:53.285,93.0629,107.8754
13:27:53.316,96.5941,110.5629
13:27:53.318,99.1566,113.7504
13:27:53.320,102.5316,116.5629
13:27:53.328,105.0629,118.8755
13:27:53.336,105.5004,119.8755
13:27:53.344,104.2191,118.688
13:27:53.355,100.9379,115.0004
13:27:53.364,96.7504,111.1879
13:27:53.374,93.6254,107.0629
13:27:53.384,91.2816,103.8129
13:27:53.398,89.5003,100.5004
13:27:53.404,87.5941,97.3754
13:27:53.443,85.9378,92.6254
13:27:53.447,80.5941,86.6253
13:27:53.448,74.6253,79.0003
13:27:53.450,67.4378,69.1878
13:27:53.458,59.6877,61.3752
13:27:53.485,54.219,52.4377
13:27:53.488,47.6564,46.1252
13:27:53.489,42.7189,38.6876
13:27:53.514,37.0001,31.8751
13:27:53.519,30.8751,24.8751
13:27:53.520,24.3126,15.8751
13:27:53.527,17.4688,7.9375
13:27:53.564,10.6875,0.3125
13:27:53.565,0.75,-8.5625
13:27:53.582,-12.1875,-20.6251
13:27:53.584,-24.9063,-33.1876
13:27:53.596,-35.8439,-44.0002
13:27:53.599,-42.3439,-49.8752
13:27:53.602,-46.1564,-53.2502
13:27:53.605,-46.1564,-52.5627
13:27:53.614,-45.6252,-51.9377
13:27:53.626,-45.5939,-53.5627
13:27:53.636,-46.8752,-53.5627
13:27:53.645,-47.9064,-55.8752
13:27:53.655,-48.9689,-57.3127
13:27:53.664,-49.5314,-56.0002
13:27:53.675,-49.7189,-57.4377
13:27:53.684,-47.4377,-55.5002
13:27:53.695,-44.8752,-54.5627
13:27:53.704,-42.7814,-52.8752
13:27:53.715,-37.3751,-49.3127
13:27:53.725,-32.4376,-45.6877
13:27:53.746,-25.6251,-41.2502
13:27:53.748,-20.6251,-37.8126
13:27:53.763,-20.6563,-37.8751
13:27:53.765,-23.3751,-42.4377
13:27:53.776,-20.3438,-39.8127
13:27:53.786,-12.1875,-28.1251
13:27:53.795,0.375,-10.0625
13:27:53.805,14.2813,13.3126
13:27:53.815,27.3439,35.3126
13:27:53.826,39.9377,58.0627
13:27:53.836,51.5627,78.1253
13:27:53.845,61.219,96.1879
13:27:53.855,68.2815,111.0629
13:27:53.865,73.719,121.313
13:27:53.875,76.4065,129.6255
13:27:53.884,78.5628,132.2505
13:27:53.894,79.2191,133.188
13:27:53.905,77.969,132.813
13:27:53.914,77.2503,129.3755
13:27:53.925,75.1253,126.938
13:27:53.935,74.7503,121.438
13:27:53.945,72.0315,116.7504
13:27:53.955,66.6565,109.9379
13:27:53.966,62.1877,101.5629
13:27:53.975,58.469,96.8754
13:27:53.985,57.1877,91.7504
13:27:53.995,56.0002,88.5003
13:27:54.005,54.9377,85.2503
13:27:54.016,53.594,80.1878
13:27:54.024,52.6564,76.7503
13:27:54.035,52.6877,72.6253
13:27:54.044,53.7502,70.6253
13:27:54.054,54.9065,69.3128
13:27:54.066,55.844,69.6878
13:27:54.074,60.3127,71.5628
13:27:54.084,63.969,74.9378
13:27:54.095,69.1565,78.5003
13:27:54.104,73.2503,83.0003
13:27:54.115,76.6878,86.5003
13:27:54.125,78.7503,89.3128
13:27:54.154,80.5003,90.2503
13:27:54.161,81.5941,90.7504
13:27:54.161,81.9691,91.7504
13:27:54.165,82.7816,91.5629
13:27:54.199,82.6878,89.1878
13:27:54.201,82.0003,87.1253
13:27:54.205,81.1878,84.0628
13:27:54.228,79.0941,80.4378
13:27:54.229,77.0315,75.7503
13:27:54.232,74.0628,70.0003
13:27:54.238,71.9065,65.1252
13:27:54.255,69.094,59.1877
13:27:54.259,67.1878,54.8127
13:27:54.286,64.969,49.7502
13:27:54.288,63.469,44.3752
13:27:54.290,61.5002,39.2502
13:27:54.297,59.2502,34.0001
13:27:54.317,56.6252,28.6876
13:27:54.319,54.594,23.8126
13:27:54.326,52.6252,18.6876
13:27:54.336,50.5939,13.9376
13:27:54.345,48.8439,8.5625
13:27:54.356,46.5314,4.25
13:27:54.366,44.4377,-1.125
13:27:54.375,42.0314,-5.625
13:27:54.385,39.4689,-10.125
13:27:54.395,37.4376,-15.2501
13:27:54.406,34.6564,-20.0001
13:27:54.414,31.8126,-24.6251
13:27:54.425,28.6251,-29.8126
13:27:54.435,24.8751,-35.7501
13:27:54.445,21.6563,-41.0002
13:27:54.461,17.4376,-46.6877
13:27:54.465,13.3751,-51.9377
13:27:54.475,9.5,-55.2502
13:27:54.485,5.7813,-60.1252
13:27:54.495,2.0313,-64.5002
13:27:54.505,-0.625,-67.6878
13:27:54.515,-2.9063,-69.7503
13:27:54.525,-7.2188,-72.0628
13:27:54.535,-10.4063,-75.5003
13:27:54.546,-14.9688,-79.0628
13:27:54.555,-19.4063,-80.1253
13:27:54.565,-16.3751,-74.3128
13:27:54.595,-6.8438,-57.1877
13:27:54.598,6.3125,-32.1251
13:27:54.600,22.5626,-3.4375
13:27:54.605,36.5939,22.4376
13:27:54.615,48.5627,46.9377
13:27:54.625,59.3752,66.4378
13:27:54.635,67.1253,84.1878
13:27:54.645,73.5003,96.6254
13:27:54.654,76.219,106.4379
13:27:54.665,77.969,109.6254
13:27:54.675,77.3128,112.1254
13:27:54.685,75.594,110.8754
13:27:54.695,73.0628,107.8129
13:27:54.705,69.1253,103.1879
13:27:54.715,65.9378,96.9379
13:27:54.725,61.6252,91.6254
13:27:54.735,58.0627,84.6253
13:27:54.745,54.8127,80.6253
13:27:54.756,50.9377,75.0003
13:27:54.765,47.9377,70.5628
13:27:54.775,45.2502,66.1878
13:27:54.785,42.2502,62.0627
13:27:54.796,39.0001,57.1252
13:27:54.805,35.0001,52.0002
13:27:54.815,31.6251,47.3127
13:27:54.825,28.9689,41.7502
13:27:54.837,25.8751,38.4376
13:27:54.844,24.8751,35.6251
13:27:54.856,23.9063,33.3751
13:27:54.887,23.6251,33.9376
13:27:54.953,23.8751,33.8126
13:27:54.956,24.3751,34.9376
13:27:54.956,26.6564,37.9376
13:27:54.964,28.3439,40.7502
13:27:54.965,29.5626,43.6252
13:27:54.965,30.6564,45.8752
13:27:54.971,31.7501,46.8127
13:27:54.996,30.9689,47.5627
13:27:54.999,30.5314,46.6252
13:27:55.001,29.7814,43.4377
13:27:55.038,27.5314,41.5002
13:27:55.039,25.9376,38.3126
13:27:55.055,24.2188,33.7501
13:27:55.071,21.5313,29.4376
13:27:55.073,19.0938,24.7501
13:27:55.087,16.0001,21.0001
13:27:55.088,13.5938,16.5626
13:27:55.103,11.75,11.8125
13:27:55.105,9.125,6.625
13:27:55.109,6.4063,2.25
13:27:55.115,2.5,-3.0625
13:27:55.125,-0.0313,-8.875
13:27:55.136,-13.2501,-30.5001
13:27:55.146,-15.0001,-34.5626
13:27:55.156,-18.0938,-38.5626
13:27:55.165,-19.8751,-41.8127
13:27:55.175,-21.9376,-45.9377
13:27:55.185,-23.1251,-48.8127
13:27:55.195,-24.8438,-51.4377
13:27:55.212,-27.5626,-54.2502
13:27:55.215,-29.3751,-57.5627
13:27:55.226,-31.0939,-59.3752
13:27:55.235,-32.3439,-62.0627
13:27:55.246,-34.4376,-63.9377
13:27:55.256,-36.1564,-66.3128
13:27:55.266,-38.4689,-69.8753
13:27:55.275,-38.8126,-71.9378
13:27:55.286,-40.0939,-73.3753
13:27:55.296,-40.9377,-74.7503
13:27:55.305,-41.8752,-76.5003
13:27:55.315,-43.9689,-78.1253
13:27:55.325,-44.9064,-80.5003
13:27:55.336,-45.5002,-82.7503
13:27:55.345,-45.2502,-83.0003
13:27:55.355,-40.1252,-75.7503
13:27:55.365,-30.4689,-61.1877
13:27:55.376,-16.0001,-36.6251
13:27:55.385,-1,-11.4375
13:27:55.397,13.2188,13.8751
13:27:55.405,25.4688,35.8751
13:27:55.415,35.0939,55.5627
13:27:55.426,43.0002,71.0003
13:27:55.436,48.2502,83.1253
13:27:55.445,51.7814,90.9379
13:27:55.456,52.8752,95.1254
13:27:55.465,52.719,95.6879
13:27:55.475,50.7502,94.6254
13:27:55.485,48.1252,91.1254
13:27:55.496,45.7502,86.8128
13:27:55.505,42.9064,82.6253
13:27:55.515,39.5002,76.1878
13:27:55.525,36.5939,71.2503
13:27:55.535,32.6251,66.8753
13:27:55.560,30.4689,60.7502
13:27:55.562,28.0001,57.6877
13:27:55.566,26.1876,53.0627
13:27:55.595,23.6876,50.0002
13:27:55.596,21.0626,45.1877
13:27:55.599,18.5938,39.5002
13:27:55.606,15.8751,35.2501
13:27:55.633,14.0938,30.0001
13:27:55.637,12.375,26.7501
13:27:55.637,11.5,24.6251
13:27:55.648,10.5938,23.6251
13:27:55.680,11.0313,23.5001
13:27:55.684,12.125,23.9376
13:27:55.686,13.2501,27.0001
13:27:55.689,15.4063,28.9376
13:27:55.695,17.1876,32.5626
13:27:55.726,18.8751,35.0001
13:27:55.729,19.6563,36.3126
13:27:55.730,20.6876,38.1251
13:27:55.739,20.4063,38.0001
13:27:55.748,20.0313,37.7501
13:27:55.760,19.6251,35.3751
13:27:55.765,17.1563,32.5626
13:27:55.777,15.8438,28.9376
13:27:55.785,13.2188,25.1251
13:27:55.796,11.25,21.3751
13:27:55.805,8.875,17.1251
13:27:55.815,5.5625,12.25
13:27:55.825,3.0313,7.5
13:27:55.835,0.4375,1.8125
13:27:55.845,-2.0625,-1.4375
13:27:55.876,-4.1563,-7.375
13:27:55.879,-6.875,-11.875
13:27:55.881,-9.25,-16.2501
13:27:55.886,-11.9375,-20.6876
13:27:55.899,-14.0626,-24.6251
13:27:55.905,-15.8126,-27.8751
13:27:55.915,-17.5626,-32.0001
13:27:55.925,-19.2501,-35.3751
13:27:55.936,-22.0001,-39.0001
13:27:55.945,-23.2188,-42.6877
13:27:55.955,-24.6251,-45.5002
13:27:55.965,-26.0938,-47.7502
13:27:55.975,-27.2189,-50.1877
13:27:55.986,-28.4064,-52.1877
13:27:55.996,-28.5001,-53.6877
13:27:56.005,-29.1876,-55.9377
13:27:56.015,-30.1251,-57.5627
13:27:56.026,-31.2814,-59.6252
13:27:56.036,-32.1251,-61.3752
13:27:56.045,-33.2501,-63.1877
13:27:56.055,-34.6251,-66.1878
13:27:56.065,-35.1251,-67.8753
13:27:56.076,-36.0314,-69.1253
13:27:56.085,-36.8439,-71.6878
13:27:56.095,-37.0939,-71.5003
13:27:56.106,-36.3126,-72.5628
13:27:56.116,-32.2189,-66.3128
13:27:56.125,-22.2501,-51.9377
13:27:56.135,-9.5938,-29.7501
13:27:56.145,5.1875,-4.9375
13:27:56.155,17.6563,18.3751
13:27:56.165,29.4689,39.1876
13:27:56.176,38.2814,57.5002
13:27:56.185,46.3439,73.0628
13:27:56.202,51.6252,84.6253
13:27:56.217,54.8127,91.5004
13:27:56.219,55.5627,95.2504
13:27:56.226,54.7815,96.5629
13:27:56.235,52.5939,93.6254
13:27:56.245,50.1564,89.5003
13:27:56.256,46.9377,85.5628
13:27:56.265,43.6877,79.6253
13:27:56.275,39.3127,73.9378
13:27:56.285,36.5314,68.6253
13:27:56.295,32.7814,62.6877
13:27:56.305,30.1564,58.0002
13:27:56.316,28.0314,53.5002
13:27:56.325,25.3126,48.5627
13:27:56.335,23.0313,45.3127
13:27:56.367,20.3126,40.9377
13:27:56.369,17.1563,35.8751
13:27:56.406,14.7813,29.8126
13:27:56.438,12.4375,25.7501
13:27:56.440,10.2188,22.5626
13:27:56.469,10.125,20.3751
13:27:56.502,8.9688,19.1251
13:27:56.502,9.1875,19.5001
13:27:56.503,10.4063,19.6251
13:27:56.505,11.375,21.7501
13:27:56.511,13.4688,25.1876
13:27:56.511,15.0626,27.0001
13:27:56.511,17.0001,30.0001
13:27:56.534,17.9688,32.1251
13:27:56.536,17.8438,32.6251
13:27:56.540,18.4376,32.8751
13:27:56.552,17.0938,32.0626
13:27:56.560,16.7188,29.7501
13:27:56.570,14.1876,27.4376
13:27:56.580,12.6563,24.3126
13:27:56.592,10.4688,19.6876
13:27:56.601,7.75,15.5626
13:27:56.610,5.0313,10.25
13:27:56.620,2.3125,6.125
13:27:56.631,-7.75,-10.5625
13:27:56.641,-9.6875,-14.1876
13:27:56.650,-10.8438,-18.0001
13:27:56.661,-12.5625,-21.9376
13:27:56.670,-14.5626,-26.3126
13:27:56.680,-21.5313,-37.9376
13:27:56.690,-22.8438,-40.8752
13:27:56.701,-24.1563,-45.1252
13:27:56.710,-25.0313,-47.1252
13:27:56.720,-26.1876,-49.5002
13:27:56.730,-27.7501,-51.6252
13:27:56.742,-28.4064,-54.3127
13:27:56.750,-29.1564,-56.3127
13:27:56.760,-29.3439,-57.6252
13:27:56.770,-30.8126,-58.6252
13:27:56.780,-32.0001,-60.2502
13:27:56.790,-32.2189,-62.6252
13:27:56.800,-32.2814,-63.3127
13:27:56.810,-33.2814,-65.1877
13:27:56.820,-33.8751,-67.0628
13:27:56.830,-35.1564,-68.3128
13:27:56.840,-35.8751,-70.6878
13:27:56.853,-36.5001,-71.5003
13:27:56.860,-37.2189,-73.5003
13:27:56.870,-36.3751,-74.1878
13:27:56.880,-34.5314,-68.8128
13:27:56.890,-26.5626,-58.3752
13:27:56.900,-12.5625,-38.1251
13:27:56.917,1.3125,-12.375
13:27:56.922,15.5626,12.4375
13:27:56.932,28.1251,36.5626
13:27:56.940,39.4064,56.0627
13:27:56.951,47.8752,75.0628
13:27:56.960,54.5315,87.4378
13:27:56.970,58.2502,98.3129
13:27:56.980,61.2502,103.0004
13:27:56.990,60.8127,106.7504
13:27:57.000,60.2502,104.6879
13:27:57.010,57.8752,103.6254
13:27:57.020,55.3752,99.0004
13:27:57.031,52.4064,95.5004
13:27:57.040,50.3752,89.4378
13:27:57.050,46.5314,85.5003
13:27:57.082,43.6564,78.6878
13:27:57.084,41.0314,73.9378
13:27:57.086,39.0314,71.6253
13:27:57.092,37.7501,67.7503
13:27:57.122,35.5626,64.5627
13:27:57.124,34.0001,61.0627
13:27:57.126,31.5314,55.8752
13:27:57.132,29.0939,51.5627
13:27:57.156,26.9064,47.0627
13:27:57.159,24.6876,43.6877
13:27:57.162,24.1563,40.8127
13:27:57.193,22.5938,38.9376
13:27:57.195,22.8751,37.8126
13:27:57.198,23.1251,38.4376
13:27:57.200,23.5938,40.4377
13:27:57.232,25.4063,42.2502
13:27:57.234,27.0314,44.5627
13:27:57.236,29.1251,47.7502
13:27:57.247,30.0939,50.6252
13:27:57.250,31.2189,51.5002
13:27:57.260,31.3439,51.3127
13:27:57.270,30.7189,49.9377
13:27:57.281,29.1564,49.5627
13:27:57.291,27.5939,46.0002
13:27:57.300,25.4376,43.4377
13:27:57.311,24.4063,38.8126
13:27:57.320,21.2501,35.5626
13:27:57.331,18.5626,30.1876
13:27:57.341,16.1251,26.1876
13:27:57.350,13.6876,21.5626
13:27:57.360,11.0313,15.9376
13:27:57.370,8.25,11.625
13:27:57.380,5.875,7
13:27:57.390,3.1875,3.125
13:27:57.401,1.1875,-1.0625
13:27:57.410,-1.9063,-6.25
13:27:57.422,-3.5,-10.875
13:27:57.430,-6.0625,-14.6251
13:27:57.440,-8.6563,-17.5626
13:27:57.450,-10.25,-22.1876
13:27:57.460,-12.5,-24.9376
13:27:57.471,-13.3751,-29.0001
13:27:57.480,-15.7501,-30.5626
13:27:57.493,-16.3438,-34.7501
13:27:57.509,-18.1563,-35.8126
13:27:57.516,-18.6876,-39.4377
13:27:57.523,-20.4688,-40.6252
13:27:57.530,-20.5001,-43.0627
13:27:57.546,-21.9063,-43.7502
13:27:57.552,-21.5938,-46.0002
13:27:57.562,-22.7813,-46.2502
13:27:57.571,-23.3438,-49.0627
13:27:57.581,-23.5313,-50.8127
13:27:57.590,-25.2813,-52.0002
13:27:57.600,-26.0938,-54.5627
13:27:57.610,-26.9376,-56.7502
13:27:57.621,-29.1251,-58.3752
13:27:57.630,-29.6564,-61.3127
13:27:57.640,-29.7814,-62.6252
13:27:57.650,-30.1251,-62.7502
13:27:57.664,-26.4376,-59.1877
13:27:57.670,-18.9376,-47.5002
13:27:57.682,-5.8125,-25.3126
13:27:57.690,8.6875,-0.5
13:27:57.700,23.1251,24.6876
13:27:57.722,35.4376,48.1252
13:27:57.724,46.3439,69.5003
13:27:57.730,55.8752,87.0003
13:27:57.766,61.594,100.3754
13:27:57.768,65.219,109.9379
13:27:57.827,67.6565,115.1879
13:27:57.831,67.5628,117.5004
13:27:57.831,66.4065,116.6879
13:27:57.833,63.5002,114.5004
13:27:57.833,60.9377,110.1254
13:27:57.837,57.4377,103.9379
13:27:57.847,53.4377,98.8754
13:27:57.872,50.4377,93.1879
13:27:57.874,47.9377,89.0628
13:27:57.876,45.5314,84.1253
13:27:57.897,44.0002,81.2503
13:27:57.900,41.8439,77.4378
13:27:57.906,40.4689,74.6878
13:27:57.915,37.6564,70.2503
13:27:57.925,35.2189,66.1253
13:27:57.936,33.0626,60.6252
13:27:57.945,30.0314,56.6877
13:27:57.956,28.1251,53.1252
13:27:57.965,27.2189,49.6877
13:27:57.975,26.4689,48.5627
13:27:57.985,25.9063,47.9377
13:27:57.995,39.0626,69.5628
13:27:58.006,32.7189,59.0627
13:27:58.015,33.8751,61.0002
13:27:58.025,34.5001,61.5627
13:27:58.042,34.6251,63.0002
13:27:58.047,34.2501,62.5627
13:27:58.055,33.9376,60.6252
13:27:58.065,32.2501,59.0002
13:27:58.075,30.1876,55.3127
13:27:58.085,27.8751,51.5002
13:27:58.097,25.6251,47.3752
13:27:58.105,23.0001,42.8127
13:27:58.115,20.3126,38.0001
13:27:58.125,17.2188,32.3751
13:27:58.136,14.9688,28.5001
13:27:58.146,13.5626,23.6251
13:27:58.156,10.75,19.7501
13:27:58.165,8.0938,13.6251
13:27:58.175,5.5625,9.9375
13:27:58.185,3.1875,4.5625
13:27:58.196,1,1.1875
13:27:58.205,-0.4688,-3.8125
13:27:58.215,-3.0938,-8.0625
13:27:58.225,-5.1875,-11.25
13:27:58.236,-7.0313,-15.4376
13:27:58.245,-8.5625,-18.1251
13:27:58.255,-9.9688,-21.7501
13:27:58.267,-10.9063,-24.0626
13:27:58.275,-12.2188,-26.0001
13:27:58.287,-13.5001,-27.6876
13:27:58.295,-14.0938,-30.0001
13:27:58.305,-14.8126,-31.7501
13:27:58.315,-15.5938,-33.9376
13:27:58.325,-16.3751,-34.5626
13:27:58.335,-17.5001,-37.2501
13:27:58.345,-18.5626,-38.7501
13:27:58.355,-19.5001,-41.3752
13:27:58.365,-20.9688,-42.8752
13:27:58.375,-22.2501,-45.9377
13:27:58.385,-23.3126,-47.4377
13:27:58.395,-24.4688,-49.1877
13:27:58.405,-25.4063,-51.5627
13:27:58.437,-25.4063,-53.6877
13:27:58.439,-23.5626,-52.0627
13:27:58.441,-19.0938,-44.0002
13:27:58.447,-8.4375,-28.1251
13:27:58.455,5.3438,-5
13:27:58.465,18.4063,19.5001
13:27:58.475,31.3439,42.5627
13:27:58.485,42.6877,64.6252
13:27:58.495,51.5314,82.8128
13:27:58.505,58.969,98.5004
13:27:58.515,63.9377,110.2504
13:27:58.525,66.2815,116.0629
13:27:58.554,67.2503,119.688
13:27:58.556,65.6253,119.438
13:27:58.559,63.094,116.6879
13:27:58.566,60.2502,112.6879
13:27:58.592,56.8752,106.9379
13:27:58.594,53.1252,102.4379
13:27:58.596,49.6564,96.0004
13:27:58.626,46.2189,90.1253
13:27:58.628,43.2189,84.0628
13:27:58.630,41.1877,80.6253
13:27:58.638,38.4376,75.7503
13:27:58.664,35.4376,71.5628
13:27:58.666,32.8751,64.9377
13:27:58.669,29.1564,60.5002
13:27:58.693,25.9376,54.0627
13:27:58.695,22.9376,49.3752
13:27:58.698,21.5626,45.8127
13:27:58.714,20.0001,41.8127
13:27:58.716,19.6876,41.0627
13:27:58.726,19.8751,40.5002
13:27:58.736,21.1876,42.6252
13:27:58.745,23.0001,44.8127
13:27:58.756,24.0001,48.0002
13:27:58.766,26.9064,51.1252
13:27:58.775,27.3439,54.0002
13:27:58.791,27.6876,56.0627
13:27:58.797,28.9064,56.1877
13:27:58.805,27.9689,55.6877
13:27:58.815,27.0939,54.2502
13:27:58.825,25.1876,51.7502
13:27:58.845,23.4063,49.0002
13:27:58.853,21.2813,44.6877
13:27:58.863,19.1563,40.6877
13:27:58.865,16.1251,36.1876
13:27:58.883,13.125,30.8751
13:27:58.889,10.8438,26.0001
13:27:58.899,7.2813,21.1251
13:27:58.905,4.6875,15.8751
13:27:58.915,1.5313,10.9375
13:27:58.926,-0.75,5.8125
13:27:58.935,-3.6875,1.0625
13:27:58.946,-5.375,-3.5
13:27:58.955,-8.3125,-7.625
13:27:58.965,-9.9375,-12.625
13:27:58.976,-12.625,-16.3751
13:27:58.985,-14.0001,-20.3751
13:27:58.995,-15.7813,-24.4376
13:27:59.005,-17.6876,-27.6876
13:27:59.015,-19.7501,-31.1251
13:27:59.026,-21.0626,-34.5626
13:27:59.036,-22.4688,-36.9376
13:27:59.045,-22.9376,-39.5002
13:27:59.056,-24.5626,-41.7502
13:27:59.065,-25.4688,-43.4377
13:27:59.087,-25.2188,-45.8752
13:27:59.089,-26.7501,-46.1877
13:27:59.098,-26.5314,-48.8127
13:27:59.105,-27.7814,-49.3127
13:27:59.120,-27.7814,-51.6877
13:27:59.130,-29.5939,-52.2502
13:27:59.136,-30.3126,-55.3127
13:27:59.145,-30.4064,-57.1877
13:27:59.155,-32.2189,-59.5627
13:27:59.169,-33.0939,-61.8752
13:27:59.182,-33.9376,-63.2502
13:27:59.213,-34.7814,-65.6878
13:27:59.216,-34.7501,-67.1253
13:27:59.218,-32.9376,-65.6252
13:27:59.224,-28.0939,-58.1877
13:27:59.262,-16.8751,-40.8752
13:27:59.263,-1.875,-16.3751
13:27:59.265,12.6563,9.5625
13:27:59.301,26.8126,35.1251
13:27:59.301,38.3126,59.0002
13:27:59.302,49.8127,79.1253
13:27:59.303,57.344,97.4379
13:27:59.309,63.0627,108.8129
13:27:59.311,66.7503,117.0629
13:27:59.347,66.7815,121.063
13:27:59.347,66.3128,120.8755
13:27:59.349,63.344,118.7505
13:27:59.351,60.7815,114.6254
13:27:59.373,57.1877,108.8129
13:27:59.378,53.2502,104.0004
13:27:59.382,50.4377,97.8754
13:27:59.390,47.5627,94.1254
13:27:59.401,45.7189,89.8128
13:27:59.411,43.9064,85.6253
13:27:59.420,41.6564,82.7503
13:27:59.431,39.8752,79.1253
13:27:59.441,38.1251,75.5628
13:27:59.451,34.6876,71.3753
13:27:59.461,32.1251,65.3127
13:27:59.470,29.3126,60.2502
13:27:59.480,26.9064,56.5002
13:27:59.490,25.4688,52.8127
13:27:59.500,24.6563,51.4377
13:27:59.510,24.5313,50.0627
13:27:59.520,24.8126,50.8127
13:27:59.530,25.8438,51.2502
13:27:59.546,27.4064,53.1252
13:27:59.550,28.4689,56.0627
13:27:59.560,30.0314,58.0002
13:27:59.571,30.4064,58.3127
13:27:59.580,30.4064,59.7502
13:27:59.591,30.0001,58.9377
13:27:59.600,29.0001,57.5627
13:27:59.610,27.5001,54.4377
13:27:59.620,25.3126,51.8752
13:27:59.630,23.0001,47.0002
13:27:59.641,20.8438,43.6252
13:27:59.650,17.2501,38.1876
13:27:59.660,14.7188,33.3126
13:27:59.671,12.0625,26.9376
13:27:59.680,9.1875,22.7501
13:27:59.691,6.0625,16.0626
13:27:59.715,3.7188,11
13:27:59.718,0.7188,5.8125
13:27:59.723,-2.1875,0.5625
13:27:59.730,-4.6563,-4
13:27:59.742,-7.0313,-8.625
13:27:59.751,-10.0313,-13.7501
13:27:59.760,-11.7813,-17.5001
13:27:59.770,-14.4688,-22.3751
13:27:59.780,-16.0938,-25.5626
13:27:59.791,-18.2188,-29.9376
13:27:59.800,-19.7188,-33.2501
13:27:59.810,-21.4063,-36.9376
13:27:59.821,-23.0313,-39.8127
13:27:59.831,-24.1251,-42.3752
13:27:59.841,-25.1876,-45.1877
13:27:59.850,-26.0938,-47.6252
13:27:59.860,-27.2189,-49.1252
13:27:59.872,-27.9064,-50.6877
13:27:59.880,-29.0939,-53.0627
13:27:59.891,-28.6251,-53.6252
13:27:59.900,-30.1876,-54.9377
13:27:59.910,-30.2501,-56.5627
13:27:59.945,-30.5939,-57.1877
13:27:59.945,-31.2501,-58.1877
13:27:59.948,-31.1251,-59.6252
13:27:59.952,-32.8751,-60.5002
13:27:59.988,-33.5001,-63.1252
13:27:59.990,-34.4064,-65.4378
13:27:59.991,-36.5001,-67.6253
13:27:59.996,-38.0001,-71.3753
13:28:00.002,-39.6877,-73.1878
13:28:00.031,-41.1252,-77.4378
13:28:00.035,-42.1564,-79.3753
13:28:00.037,-43.6564,-80.3753
13:28:00.041,-42.7502,-81.3753
13:28:00.070,-38.0626,-76.1253
13:28:00.075,-29.1876,-60.8752
13:28:00.075,-14.9688,-38.4376
13:28:00.081,1.8438,-8.8125
13:28:00.105,16.3438,19.5626
13:28:00.108,29.5314,43.2502
13:28:00.112,41.3752,66.1878
13:28:00.120,49.9064,84.8128
13:28:00.131,57.3752,99.3754
13:28:00.140,60.1877,109.0629
13:28:00.150,62.4065,113.8129
13:28:00.161,61.6877,116.1254
13:28:00.181,60.7502,114.1254
13:28:00.188,57.6877,112.3754
13:28:00.202,54.844,107.5004
13:28:00.205,51.1564,101.2504
13:28:00.221,47.5002,94.3754
13:28:00.235,44.0939,89.3128
13:28:00.238,41.2814,84.0628
13:28:00.242,39.0001,80.3753
13:28:00.250,36.5001,75.7503
13:28:00.261,34.5001,73.3753
13:28:00.271,32.5939,68.8128
13:28:00.281,30.3126,64.3752
13:28:00.290,27.7189,59.1252
13:28:00.301,24.3438,53.8127
13:28:00.311,22.3751,49.6252
13:28:00.321,20.2501,45.5002
13:28:00.332,20.2188,44.1877
13:28:00.340,19.0313,42.8752
13:28:00.350,19.1563,43.0002
13:28:00.360,20.1251,44.9377
13:28:00.371,21.7501,45.8752
13:28:00.380,24.0626,49.6252
13:28:00.390,25.9688,52.7502
13:28:00.405,26.8439,54.1252
13:28:00.422,27.5939,56.1252
13:28:00.427,27.0626,55.8752
13:28:00.432,26.1563,55.8127
13:28:00.442,25.3126,54.3752
13:28:00.451,23.3751,51.1877
13:28:00.460,21.6876,48.3127
13:28:00.470,18.8126,44.0627
13:28:00.481,15.9063,38.4376
13:28:00.490,13.2501,33.1876
13:28:00.501,10.3438,28.1876
13:28:00.510,6.9063,22.0001
13:28:00.522,3.9063,16.1251
13:28:00.531,1.4063,11.5625
13:28:00.541,-1.9688,5.9375
13:28:00.551,-4.0625,1.5
13:28:00.560,-7.3125,-4.125
13:28:00.571,-9.1875,-8.9375
13:28:00.581,-12.2813,-13.0625
13:28:00.590,-15.0313,-17.1251
13:28:00.600,-17.1563,-22.5001
13:28:00.612,-19.5938,-25.9376
13:28:00.621,-21.3751,-30.1876
13:28:00.631,-23.2501,-34.3126
13:28:00.641,-24.4063,-36.8126
13:28:00.650,-26.2501,-40.5002
13:28:00.662,-27.6251,-43.5627
13:28:00.671,-28.4689,-45.8127
13:28:00.695,-29.9376,-47.5002
13:28:00.698,-31.3126,-50.3127
13:28:00.700,-32.2814,-53.1252
13:28:00.730,-33.2501,-54.2502
13:28:00.730,-33.7814,-56.7502
13:28:00.733,-34.9376,-56.8752
13:28:00.764,-34.8126,-59.3127
13:28:00.765,-35.2501,-60.0002
13:28:00.768,-36.0001,-60.6252
13:28:00.770,-36.6876,-63.3127
13:28:00.800,-36.9064,-64.1252
13:28:00.802,-37.9689,-65.8753
13:28:00.804,-39.0939,-67.6878
13:28:00.832,-39.7814,-69.8753
13:28:00.834,-41.6564,-72.6253
13:28:00.837,-42.7189,-75.3128
13:28:00.842,-43.7502,-77.3753
13:28:00.852,-45.7189,-81.7503
13:28:00.864,-47.4689,-83.9378
13:28:00.871,-49.3752,-86.8753
13:28:00.881,-50.1877,-90.0628
13:28:00.892,-51.2814,-91.4379
13:28:00.902,-50.8439,-92.5004
13:28:00.912,-45.1252,-86.0003
13:28:00.921,-34.8439,-69.3128
13:28:00.930,-18.3438,-43.2502
13:28:00.941,-1,-12.375
13:28:00.950,14.6876,16.7501
13:28:00.962,28.8126,42.6252
13:28:00.970,40.8752,65.7503
13:28:00.997,49.9689,85.1253
13:28:01.000,56.844,100.8129
13:28:01.004,62.4377,111.7504
13:28:01.011,63.5002,117.8755
13:28:01.022,63.5627,119.563
13:28:01.030,62.0315,119.438
13:28:01.041,59.719,115.1254
13:28:01.052,56.094,111.0004
13:28:01.061,52.844,104.6254
13:28:01.072,50.0627,99.0629
13:28:01.081,45.9689,92.9379
13:28:01.092,44.4377,88.5628
13:28:01.102,41.2814,84.3753
13:28:01.112,39.3752,80.6253
13:28:01.121,37.5939,77.8753
13:28:01.132,35.8751,74.6878
13:28:01.140,33.5939,70.0003
13:28:01.151,30.0939,65.2502
13:28:01.162,27.4689,59.3752
13:28:01.171,25.4376,54.6877
13:28:01.180,23.2188,51.2502
13:28:01.191,22.1563,48.1252
13:28:01.200,20.8751,46.1877
13:28:01.210,20.4063,45.6252
13:28:01.221,21.7813,45.8127
13:28:01.230,22.5626,48.0002
13:28:01.240,24.7813,49.5627
13:28:01.250,25.4376,53.2502
13:28:01.261,26.6251,54.5627
13:28:01.271,27.4689,57.0627
13:28:01.281,27.3751,57.4377
13:28:01.291,26.8126,56.3752
13:28:01.302,25.8126,55.7502
13:28:01.312,24.0938,52.2502
13:28:01.321,22.0626,49.8752
13:28:01.331,18.7501,44.1252
13:28:01.340,12.75,37.6251
13:28:01.353,3.25,26.7501
13:28:01.362,-9.4688,14.2501
13:28:01.371,-24.1876,0.25
13:28:01.381,-40.8127,-14.4376
13:28:01.392,-57.9377,-29.8751
13:28:01.400,-75.219,-43.7502
13:28:01.411,-90.5629,-57.6877
13:28:01.420,-97.9691,-63.4377
13:28:01.436,-102.0004,-67.1253
13:28:01.466,-105.3754,-69.1878
13:28:01.469,-108.5942,-73.2503
13:28:01.471,-113.0629,-76.0628
13:28:01.474,-114.8754,-78.7503
13:28:01.505,-115.2817,-77.8128
13:28:01.508,-117.3129,-80.1878
13:28:01.551,-120.8442,-82.1253
13:28:01.553,-120.7192,-82.1253
13:28:01.558,-119.7505,-81.2503
13:28:01.558,-117.2504,-80.2503
13:28:01.558,-117.9692,-80.0003
13:28:01.572,-118.1255,-81.6878
13:28:01.575,-119.4692,-82.2503
13:28:01.602,-120.3755,-84.8753
13:28:01.604,-120.9067,-85.9378
13:28:01.607,-122.5317,-89.0003
13:28:01.614,-123.5317,-92.0629
13:28:01.624,-126.2817,-93.7504
13:28:01.632,-127.1255,-97.6254
13:28:01.644,-127.0317,-98.9379
13:28:01.652,-128.0317,-100.7504
13:28:01.661,-127.2505,-103.0004
13:28:01.671,-125.2817,-102.5004
13:28:01.681,-124.5005,-104.4379
13:28:01.691,-123.9067,-106.1879
13:28:01.707,-123.7505,-108.0629
13:28:01.711,-124.8442,-111.6254
13:28:01.727,-127.2505,-120.063
13:28:01.734,-128.313,-122.063
13:28:01.744,-128.7505,-125.5005
13:28:01.752,-130.0317,-129.813
13:28:01.760,-132.7818,-135.313
13:28:01.772,-134.563,-140.7505
13:28:01.781,-137.2193,-144.3755
13:28:01.790,-137.063,-147.0006
13:28:01.802,-133.3443,-141.1255
13:28:01.810,-124.438,-127.563
13:28:01.821,-114.9692,-106.3129
13:28:01.830,-109.8442,-90.1253
13:28:01.842,-128.7192,-92.8754
13:28:01.852,-156.5943,-120.0005
13:28:01.861,-161.0319,-123.8755
13:28:01.871,-145.7193,-102.4379
13:28:01.880,-119.9067,-69.3753
13:28:01.891,-95.9691,-41.9377
13:28:01.901,-85.7191,-25.9376
13:28:01.910,-81.9378,-19.5001
13:28:01.922,-70.0315,-9.5625
13:28:01.931,-58.2502,-0.75
13:28:01.943,-47.6252,3.8125
13:28:01.951,-41.6564,5.5625
13:28:01.963,-38.0314,2.375
13:28:01.971,-36.1564,0.8125
13:28:01.981,-35.1251,-2.0625
13:28:01.998,-33.7814,-3
13:28:02.000,-34.4064,-3.8125
13:28:02.012,-34.7814,-6.5
13:28:02.022,-36.5001,-8.25
13:28:02.030,-39.3127,-12.5625
13:28:02.041,-41.8752,-18.0626
13:28:02.052,-47.3439,-24.6876
13:28:02.062,-52.9377,-32.0626
13:28:02.072,-58.3127,-37.9376
13:28:02.083,-62.8127,-44.2502
13:28:02.104,-65.5315,-47.1877
13:28:02.106,-60.4377,-43.0627
13:28:02.137,-55.2502,-37.1251
13:28:02.138,-52.8127,-32.7501
13:28:02.140,-52.6877,-31.3751
13:28:02.143,-54.9065,-29.0001
13:28:02.172,-56.4065,-29.8751
13:28:02.175,-57.469,-28.6876
13:28:02.176,-58.219,-27.0626
13:28:02.182,-56.094,-25.3751
13:28:02.214,-53.6877,-23.1251
13:28:02.216,-53.3127,-24.9376
13:28:02.219,-53.4377,-27.1876
13:28:02.243,-55.9377,-31.6251
13:28:02.244,-57.7502,-37.3751
13:28:02.247,-61.4065,-42.0627
13:28:02.251,-63.5627,-48.1252
13:28:02.278,-64.594,-54.0627
13:28:02.281,-66.9065,-60.5627
13:28:02.287,-68.7503,-66.5628
13:28:02.291,-69.8753,-71.4378
13:28:02.302,-71.3753,-77.6878
13:28:02.311,-73.844,-82.6878
13:28:02.321,-76.2815,-86.3128
13:28:02.331,-77.6878,-91.9379
13:28:02.341,-77.969,-94.5629
13:28:02.351,-78.4066,-95.5004
13:28:02.361,-78.094,-97.6254
13:28:02.373,-76.2503,-97.0629
13:28:02.382,-75.5628,-97.2504
13:28:02.392,-73.6253,-98.5629
13:28:02.402,-73.1253,-97.6879
13:28:02.411,-72.7503,-99.0004
13:28:02.421,-71.8128,-98.8129
13:28:02.431,-71.5003,-97.5629
13:28:02.441,-71.1253,-96.6879
13:28:02.451,-71.344,-94.2504
13:28:02.461,-71.094,-91.9379
13:28:02.471,-68.9065,-87.3128
13:28:02.483,-67.1253,-82.8753
13:28:02.491,-64.0315,-79.8753
13:28:02.502,-61.3752,-75.6878
13:28:02.511,-58.7502,-72.0003
13:28:02.521,-56.8127,-68.6253
13:28:02.532,-55.9065,-67.6878
13:28:02.541,-57.6565,-66.0003
13:28:02.552,-58.5315,-66.1878
13:28:02.562,-58.2502,-66.4378
13:28:02.572,-60.469,-66.9378
13:28:02.581,-60.344,-68.4378
13:28:02.591,-61.1877,-69.9378
13:28:02.601,-60.1252,-69.3128
13:28:02.611,-62.5627,-71.1878
13:28:02.622,-66.0003,-74.8753
13:28:02.631,-70.5315,-79.0628
13:28:02.641,-74.1565,-83.5003
13:28:02.651,-73.1253,-81.2503
13:28:02.661,-66.9065,-74.0003
13:28:02.671,-55.719,-56.3127
13:28:02.681,-40.2502,-33.6251
13:28:02.693,-23.6251,-7.6875
13:28:02.701,-7.3125,20.8126
13:28:02.711,7.625,44.3752
13:28:02.721,19.5938,66.8753
13:28:02.733,29.5626,85.0003
13:28:02.748,38.4689,99.3129
13:28:02.751,44.3439,111.2504
13:28:02.761,47.8127,116.5004
13:28:02.771,47.5939,118.938
13:28:02.782,47.0627,117.1879
13:28:02.791,45.4689,114.1254
13:28:02.801,43.9064,110.6879
13:28:02.819,42.8752,105.0629
13:28:02.826,41.6877,100.5004
13:28:02.899,38.2814,94.3129
13:28:02.901,35.6251,86.3128
13:28:02.902,32.3126,80.2503
13:28:02.923,27.3751,71.4378
13:28:02.923,23.0313,64.3752
13:28:02.924,18.0938,56.3127
13:28:02.927,13.2501,47.8752
13:28:02.953,8.9063,39.4377
13:28:02.954,2.7188,30.8126
13:28:02.956,-2.0625,23.1876
13:28:02.962,-4.375,16.6251
13:28:02.994,-6.3125,12.8125
13:28:02.996,-6.5938,10.75
13:28:02.998,-6.375,9.0625
13:28:03.038,-5.2188,9.375
13:28:03.038,-3.3438,11.125
13:28:03.038,-2.1563,13.125
13:28:03.039,-1.0313,14.6251
13:28:03.056,0.7813,15.7501
13:28:03.059,1.4688,17.3751
13:28:03.073,1.625,16.2501
13:28:03.087,-1.9688,7.75
13:28:03.090,-3.5625,3.6875
13:28:03.093,-5.8438,-2.5625
13:28:03.102,-8.5313,-6.375
13:28:03.111,-11.3438,-12.8125
13:28:03.122,-14.6251,-17.1876
13:28:03.131,-17.8751,-23.8751
13:28:03.141,-21.9376,-29.7501
13:28:03.151,-24.4688,-35.0626
13:28:03.161,-27.5001,-39.1252
13:28:03.171,-30.4376,-43.0002
13:28:03.181,-32.4689,-48.1252
13:28:03.194,-35.2189,-50.5002
13:28:03.202,-38.0001,-55.3752
13:28:03.214,-39.5002,-59.0627
13:28:03.226,-40.6564,-60.3752
13:28:03.236,-40.7814,-62.8127
13:28:03.248,-42.1564,-64.7502
13:28:03.257,-42.6877,-66.2503
13:28:03.266,-44.6877,-67.9378
13:28:03.276,-45.0627,-69.4378
13:28:03.286,-45.0939,-69.6878
13:28:03.297,-45.9064,-70.5003
13:28:03.306,-46.2814,-71.6253
13:28:03.316,-46.7814,-70.7503
13:28:03.328,-47.6564,-73.0003
13:28:03.337,-47.0002,-72.8128
13:28:03.346,-48.0002,-72.8753
13:28:03.357,-48.5627,-73.6878
13:28:03.366,-48.6877,-72.6878
13:28:03.376,-47.6252,-72.0003
13:28:03.386,-45.7189,-68.9378
13:28:03.397,-44.7189,-69.1253
13:28:03.406,-45.9689,-67.8128
13:28:03.416,-46.3127,-69.6253
13:28:03.426,-48.7189,-70.5003
13:28:03.436,-50.0939,-72.7503
13:28:03.446,-51.7814,-74.1878
13:28:03.456,-52.5314,-74.8753
13:28:03.466,-53.2815,-75.5628
13:28:03.476,-53.1252,-76.3128
13:28:03.486,-51.8752,-73.5003
13:28:03.502,-46.3752,-66.0003
13:28:03.507,-36.8439,-50.0627
13:28:03.516,-23.0626,-27.3751
13:28:03.526,-8.2188,-1.75
13:28:03.557,6.5313,23.8751
13:28:03.559,20.5001,47.8752
13:28:03.560,33.6251,70.6253
13:28:03.568,44.5314,91.1879
13:28:03.577,52.4064,107.1879
13:28:03.611,58.5627,118.5005
13:28:03.613,61.6877,124.8755
13:28:03.615,62.6252,129.563
13:28:03.618,62.5315,128.938
13:28:03.651,60.8752,125.7505
13:28:03.653,58.2815,122.6255
13:28:03.657,55.9065,118.063
13:28:03.659,52.969,112.0629
13:28:03.695,49.5939,106.4379
13:28:03.697,47.2814,100.6254
13:28:03.699,45.1564,96.6879
13:28:03.704,44.2502,92.1254
13:28:03.708,42.6877,87.7503
13:28:03.740,40.7189,84.6878
13:28:03.743,38.5939,78.9378
13:28:03.745,35.5626,73.3753
13:28:03.746,33.2189,67.1253
13:28:03.771,30.0939,60.8752
13:28:03.773,28.1251,55.9377
13:28:03.777,25.6563,51.8127
13:28:03.788,23.5001,47.1252
13:28:03.800,19.6563,43.1252
13:28:03.809,17.7188,39.2501
13:28:03.819,17.0626,37.6876
13:28:03.828,17.4688,38.3126
13:28:03.837,17.5313,36.6876
13:28:03.846,18.5938,37.6876
13:28:03.857,17.9688,37.9376
13:28:03.866,17.5626,36.3751
13:28:03.877,16.5313,34.4376
13:28:03.886,14.0938,31.1876
13:28:03.896,11.8438,28.1876
13:28:03.906,10.4375,23.7501
13:28:03.916,7.7813,19.0001
13:28:03.926,6,14.2501
13:28:03.937,3.375,8.1875
13:28:03.946,0.9063,3.1875
13:28:03.956,-2.5,-4.1875
13:28:03.966,-5.5938,-10.3125
13:28:03.976,-9.8125,-17.3751
13:28:03.987,-13.9063,-24.9376
13:28:03.997,-18.0626,-31.5626
13:28:04.006,-21.8126,-38.0626
13:28:04.016,-26.0313,-44.0627
13:28:04.026,-29.0001,-50.1252
13:28:04.037,-32.6251,-56.3752
13:28:04.049,-35.4689,-61.2502
13:28:04.056,-38.9376,-66.5003
13:28:04.066,-41.0314,-70.5003
13:28:04.078,-42.4689,-72.9378
13:28:04.088,-44.8752,-75.0003
13:28:04.098,-45.5627,-75.8753
13:28:04.107,-47.1252,-78.0628
13:28:04.117,-48.0002,-77.8753
13:28:04.126,-48.0627,-79.2503
13:28:04.141,-49.4377,-79.0628
13:28:04.147,-50.1252,-79.4378
13:28:04.163,-49.9377,-80.0003
13:28:04.174,-50.0939,-78.9378
13:28:04.176,-48.3127,-77.5003
13:28:04.186,-48.5002,-77.1253
13:28:04.198,-47.1877,-75.6878
13:28:04.206,-47.1877,-74.8753
13:28:04.216,-47.5939,-76.2503
13:28:04.226,-46.8127,-73.8128
13:28:04.236,-45.2502,-72.8753
13:28:04.253,-44.5627,-72.2503
13:28:04.256,-45.0939,-71.3753
13:28:04.268,-46.5314,-73.5003
13:28:04.277,-47.5627,-74.9378
13:28:04.287,-49.7814,-77.0003
13:28:04.313,-51.8127,-78.2503
13:28:04.315,-54.2815,-79.3128
13:28:04.317,-55.719,-82.3753
13:28:04.341,-57.0002,-84.3128
13:28:04.342,-57.9065,-85.7503
13:28:04.372,-58.6252,-86.0628
13:28:04.399,-57.3127,-85.1878
13:28:04.429,-53.9377,-79.2503
13:28:04.431,-45.4377,-68.0628
13:28:04.433,-32.1251,-46.1877
13:28:04.440,-16.7188,-21.8751
13:28:04.440,-0.9063,6.3125
13:28:04.440,12.875,29.8126
13:28:04.450,24.8751,52.5627
13:28:04.464,34.5314,71.0003
13:28:04.466,43.9377,88.3753
13:28:04.476,49.7814,101.1879
13:28:04.486,54.969,108.5004
13:28:04.496,56.7815,113.8129
13:28:04.506,57.4065,113.0629
13:28:04.522,56.4377,112.0629
13:28:04.531,54.0315,106.1879
13:28:04.541,52.5315,102.4379
13:28:04.551,50.9377,96.8129
13:28:04.561,48.9064,90.8754
13:28:04.571,45.6564,85.3753
13:28:04.581,43.3752,79.6878
13:28:04.591,41.3439,74.5628
13:28:04.601,39.6252,69.4378
13:28:04.611,31.2501,54.8752
13:28:04.625,28.3751,49.0002
13:28:04.631,25.4688,43.1877
13:28:04.643,21.1876,36.8751
13:28:04.652,19.6251,30.5001
13:28:04.663,16.1876,25.8751
13:28:04.673,14.3438,21.2501
13:28:04.683,11.4375,18.3126
13:28:04.694,11.0625,16.0626
13:28:04.701,11.125,16.9376
13:28:04.711,12,17.5626
13:28:04.722,13.1563,17.5626
13:28:04.731,14.2188,19.3126
13:28:04.743,14.0313,18.0001
13:28:04.753,13.7813,16.6876
13:28:04.761,13.3751,15.0626
13:28:04.771,11.4375,12.25
13:28:04.783,10.2813,9.125
13:28:04.791,7.5313,5.125
13:28:04.801,5.5938,-0.5
13:28:04.811,1.75,-5.625
13:28:04.836,-1.25,-11.625
13:28:04.839,-5.4063,-17.0001
13:28:04.841,-9.4688,-23.0626
13:28:04.853,-12.6563,-30.2501
13:28:04.861,-17.0626,-35.7501
13:28:04.872,-20.6563,-42.7502
13:28:04.881,-24.7501,-47.7502
13:28:04.891,-27.7814,-52.8752
13:28:04.901,-29.9689,-57.5627
13:28:04.911,-31.6564,-61.5002
13:28:04.921,-33.3439,-65.3127
13:28:04.931,-35.5626,-68.6878
13:28:04.941,-36.7814,-70.8753
13:28:04.951,-38.9376,-73.5003
13:28:04.962,-39.3439,-74.7503
13:28:04.971,-41.0002,-76.1878
13:28:04.981,-42.0002,-77.6878
13:28:04.991,-44.0002,-79.0003
13:28:05.003,-43.9064,-79.5003
13:28:05.012,-43.9689,-78.8128
13:28:05.021,-43.2502,-78.6253
13:28:05.032,-43.4689,-79.0003
13:28:05.041,-43.5314,-78.0003
13:28:05.052,-44.2502,-78.5628
13:28:05.062,-45.0939,-78.0628
13:28:05.071,-46.2502,-79.1878
13:28:05.081,-47.1564,-78.4378
13:28:05.091,-47.1877,-78.3753
13:28:05.101,-46.9064,-77.8128
13:28:05.136,-42.6564,-74.4378
13:28:05.137,-41.1564,-72.1878
13:28:05.139,-40.0314,-71.5628
13:28:05.143,-41.3439,-73.4378
13:28:05.172,-42.0627,-75.1878
13:28:05.174,-44.4064,-76.8128
13:28:05.177,-44.8439,-78.1253
13:28:05.181,-44.8127,-75.8128
13:28:05.215,-40.5939,-68.7503
13:28:05.216,-32.1564,-55.1252
13:28:05.221,-18.6876,-34.5001
13:28:05.225,-5.75,-11.8125
13:28:05.253,6.9688,12.8125
13:28:05.256,18.9063,33.2501
13:28:05.257,28.2501,54.1252
13:28:05.287,37.0001,70.5003
13:28:05.287,44.3127,84.7503
13:28:05.288,49.4689,95.9379
13:28:05.294,52.6565,101.6254
13:28:05.303,53.6877,105.5004
13:28:05.311,53.5002,105.5004
13:28:05.323,51.5002,103.8754
13:28:05.333,49.9064,100.5629
13:28:05.342,48.0314,95.8754
13:28:05.352,45.8752,92.6254
13:28:05.361,44.1564,87.3753
13:28:05.378,41.1877,83.2503
13:28:05.382,38.5939,77.3128
13:28:05.392,35.9376,74.0628
13:28:05.404,35.0626,69.5628
13:28:05.412,34.2501,65.5628
13:28:05.421,32.1564,62.1252
13:28:05.431,30.7501,55.6877
13:28:05.448,26.6876,49.5627
13:28:05.454,23.2813,43.1252
13:28:05.469,19.7501,37.5001
13:28:05.471,18.7188,33.7501
13:28:05.482,18.4688,31.7501
13:28:05.491,19.6563,31.3751
13:28:05.502,20.8126,31.2501
13:28:05.511,21.8438,32.1251
13:28:05.522,22.9063,31.9376
13:28:05.531,22.7813,33.1251
13:28:05.541,22.5313,31.9376
13:28:05.551,22.6251,32.5001
13:28:05.562,21.8751,30.6251
13:28:05.572,20.3126,27.5001
13:28:05.582,18.1251,24.1251
13:28:05.592,15.4376,20.2501
13:28:05.603,13.0313,15.4376
13:28:05.612,9.6875,9.75
13:28:05.623,5.2813,3.4375
13:28:05.633,0.0625,-3.75
13:28:05.642,-4.9063,-11.5625
13:28:05.652,-7.9063,-18.2501
13:28:05.661,-12.4375,-24.1251
13:28:05.683,-15.5313,-30.9376
13:28:05.685,-18.7813,-37.1251
13:28:05.700,-22.1876,-43.5627
13:28:05.702,-25.6251,-49.3127
13:28:05.711,-27.9689,-56.1877
13:28:05.723,-31.3439,-61.1877
13:28:05.732,-34.5001,-66.4378
13:28:05.741,-36.7501,-72.8753
13:28:05.753,-39.4377,-77.0003
13:28:05.761,-41.7189,-82.7503
13:28:05.771,-44.3752,-86.6253
13:28:05.781,-47.4377,-92.3129
13:28:05.791,-50.0314,-95.8754
13:28:05.802,-52.2502,-101.0629
13:28:05.812,-54.2815,-104.1254
13:28:05.823,-57.4065,-106.5629
13:28:05.848,-59.2502,-110.5629
13:28:05.851,-60.719,-112.1879
13:28:05.854,-60.7815,-113.4379
13:28:05.885,-61.3127,-114.6879
13:28:05.886,-61.8752,-114.1254
13:28:05.889,-61.2502,-114.6879
13:28:05.892,-60.3752,-114.2504
13:28:05.924,-60.5002,-113.8754
13:28:05.929,-60.7502,-112.8129
13:28:05.930,-59.1877,-112.8754
13:28:05.957,-59.1877,-111.1879
13:28:05.957,-58.7502,-110.0004
13:28:05.960,-58.719,-110.2504
13:28:05.966,-58.7502,-110.5629
13:28:05.971,-58.7502,-110.3754
13:28:05.999,-59.5315,-111.1879
13:28:06.001,-59.2815,-110.8129
13:28:06.004,-59.7815,-109.2504
13:28:06.012,-57.969,-108.1879
13:28:06.023,-52.2814,-100.1254
13:28:06.031,-43.5939,-84.3128
13:28:06.042,-29.5314,-60.6877
13:28:06.051,-14.3438,-34.0001
13:28:06.061,0.0625,-8.75
13:28:06.071,12.8438,14.3126
13:28:06.081,25.7501,35.7501
13:28:06.093,36.4689,54.6252
13:28:06.117,43.9689,70.1878
13:28:06.119,50.2189,78.8753
13:28:06.121,52.0627,85.1253
13:28:06.136,52.0002,87.1878
13:28:06.141,50.5939,86.5003
13:28:06.151,47.3752,84.8128
13:28:06.161,44.4064,80.8753
13:28:06.171,41.4377,78.0003
13:28:06.181,38.0314,75.5628
13:28:06.191,36.5314,71.6878
13:28:06.201,35.1876,69.3753
13:28:06.212,32.3439,67.2503
13:28:06.221,30.0939,63.8752
13:28:06.233,27.6876,62.5002
13:28:06.244,25.9688,59.3127
13:28:06.251,24.4376,57.5627
13:28:06.262,23.8126,54.5627
13:28:06.273,21.5313,51.3752
13:28:06.281,20.6251,48.1252
13:28:06.291,19.2188,45.6252
13:28:06.301,17.7501,44.3127
13:28:06.311,17.7813,42.2502
13:28:06.322,18.3126,42.0002
13:28:06.331,20.3438,42.7502
13:28:06.341,21.3438,43.7502
13:28:06.351,23.3126,46.2502
13:28:06.362,25.2813,47.6252
13:28:06.371,26.6564,50.0627
13:28:06.382,27.7501,49.5627
13:28:06.391,27.2501,49.3752
13:28:06.402,26.2813,47.5627
13:28:06.413,24.9376,45.5002
13:28:06.424,24.1563,42.9377
13:28:06.432,23.6563,39.8127
13:28:06.441,22.7501,37.1876
13:28:06.451,21.5626,33.8126
13:28:06.461,19.2813,28.2501
13:28:06.472,16.6876,22.8751
13:28:06.481,12.875,15.5626
13:28:06.512,9.8438,9.75
13:28:06.515,6.375,4
13:28:06.518,3.5313,-2.125
13:28:06.522,0.8438,-7.6875
13:28:06.555,-2.0625,-14.0001
13:28:06.558,-5.5313,-20.7501
13:28:06.560,-10.0625,-26.8751
13:28:06.563,-14.0938,-33.7501
13:28:06.593,-18.6563,-40.5002
13:28:06.595,-21.6876,-47.3752
13:28:06.598,-25.9688,-52.1877
13:28:06.629,-28.0939,-57.6252
13:28:06.630,-31.4064,-62.6252
13:28:06.633,-32.9689,-67.6253
13:28:06.640,-35.5314,-72.6878
13:28:06.641,-37.9064,-75.5003
13:28:06.673,-39.4377,-80.5628
13:28:06.676,-41.3439,-84.2503
13:28:06.677,-42.6877,-86.9378
13:28:06.683,-42.2814,-88.7503
13:28:06.692,-43.0939,-91.4379
13:28:06.703,-43.9689,-93.3754
13:28:06.714,-43.8127,-95.6254
13:28:06.721,-44.5939,-97.3754
13:28:06.732,-45.9377,-100.8754
13:28:06.749,-48.0002,-102.9379
13:28:06.756,-49.1877,-106.0629
13:28:06.771,-51.7502,-108.5004
13:28:06.772,-54.2502,-112.7504
13:28:06.782,-55.7502,-116.5629
13:28:06.791,-59.0002,-120.0005
13:28:06.805,-60.8752,-123.8755
13:28:06.812,-63.5315,-126.438
13:28:06.821,-66.2503,-131.1255
13:28:06.831,-67.4065,-133.1255
13:28:06.841,-68.4065,-133.1255
13:28:06.853,-65.9065,-130.6255
13:28:06.865,-56.219,-118.8755
13:28:06.871,-39.4689,-94.0629
13:28:06.882,-21.6563,-63.0627
13:28:06.891,-3.75,-34.8126
13:28:06.901,11.3438,-8
13:28:06.912,24.1563,11.5625
13:28:06.923,32.3439,28.5001
13:28:06.933,39.3127,38.6251
13:28:06.941,41.3127,47.0002
13:28:06.951,41.6877,50.1877
13:28:06.962,41.2814,50.6877
13:28:06.981,40.2189,51.0627
13:28:06.982,39.3752,48.5627
13:28:06.997,37.9689,47.1877
13:28:07.001,35.8751,45.0002
13:28:07.012,34.5626,41.8127
13:28:07.024,30.9689,38.6251
13:28:07.032,27.5314,34.8751
13:28:07.047,25.4063,32.0001
13:28:07.052,22.4376,30.0001
13:28:07.061,21.9376,28.0626
13:28:07.071,20.8126,27.9376
13:28:07.081,19.6876,25.6876
13:28:07.091,17.9063,23.7501
13:28:07.101,18.8438,23.0001
13:28:07.112,20.2501,22.8751
13:28:07.123,20.1563,23.0626
13:28:07.131,21.6876,22.1876
13:28:07.141,21.7501,23.0626
13:28:07.157,23.5938,24.3751
13:28:07.163,26.2501,28.0626
13:28:07.172,29.2501,32.0626
13:28:07.181,31.7189,35.4376
13:28:07.191,33.6251,39.3752
13:28:07.201,34.9689,42.6252
13:28:07.212,37.2189,44.8752
13:28:07.224,38.8439,47.3127
13:28:07.233,39.7814,48.5002
13:28:07.242,41.2814,49.4377
13:28:07.284,40.2502,48.9377
13:28:07.285,39.1564,47.0627
13:28:07.288,38.0626,44.6252
13:28:07.293,34.8439,41.6877
13:28:07.322,32.9064,38.0001
13:28:07.323,31.3126,34.3126
13:28:07.325,29.9376,31.6251
13:28:07.328,28.1564,28.8751
13:28:07.361,25.1876,25.5626
13:28:07.363,23.4063,23.0001
13:28:07.365,22.1876,19.3126
13:28:07.369,19.9376,16.0626
13:28:07.398,18.6876,13.6876
13:28:07.401,17.2501,10.3125
13:28:07.403,15.2188,7.75
13:28:07.436,14.0313,5.4375
13:28:07.436,12.4688,2.1875
13:28:07.438,11.9063,0
13:28:07.440,11.0313,-1.9375
13:28:07.447,10.5938,-3.1875
13:28:07.462,8.6875,-3.5625
13:28:07.466,8.2813,-5.8125
13:28:07.477,8.5625,-7.25
13:28:07.488,8.375,-8.25
13:28:07.497,7.6563,-7.4375
13:28:07.506,7.6563,-8.8125
13:28:07.516,8.0313,-10.0625
13:28:07.526,6.4063,-12
13:28:07.537,3.125,-14.1251
13:28:07.547,1.6875,-17.1251
13:28:07.556,2.0313,-18.3751
13:28:07.567,0.375,-20.6251
13:28:07.578,-0.125,-21.6251
13:28:07.586,-1.1875,-22.7501
13:28:07.597,-1.7813,-24.7501
13:28:07.608,-2.0313,-26.1876
13:28:07.616,-2.25,-26.0626
13:28:07.627,0.9688,-22.9376
13:28:07.639,6.5625,-12.3125
13:28:07.646,15.8438,0.3125
13:28:07.656,25.8751,17.1251
13:28:07.667,36.0001,34.3751
13:28:07.676,45.4377,51.0002
13:28:07.687,53.1252,66.3128
13:28:07.698,60.1252,80.6253
13:28:07.706,65.5315,90.6254
13:28:07.716,68.6878,99.9379
13:28:07.727,70.6878,103.5004
13:28:07.737,69.6565,107.4379
13:28:07.746,69.8128,107.1254
13:28:07.756,68.5315,106.8129
13:28:07.766,66.969,104.3754
13:28:07.776,64.2815,101.8754
13:28:07.787,62.4065,97.6254
13:28:07.796,59.969,95.4379
13:28:07.806,58.469,91.5629
13:28:07.816,55.5002,87.8753
13:28:07.826,53.9065,86.1878
13:28:07.837,53.719,83.5003
13:28:07.847,51.9377,81.9378
13:28:07.856,49.4689,80.0003
13:28:07.866,46.7502,74.9378
13:28:07.877,43.7814,70.2503
13:28:07.886,41.3127,65.7503
13:28:07.896,40.9064,64.1877
13:28:07.908,39.7814,61.5002
13:28:07.916,39.0001,58.5627
13:28:07.927,36.8126,56.9377
13:28:07.936,35.8751,55.5002
13:28:07.946,36.0939,55.4377
13:28:07.957,36.8126,56.8127
13:28:07.966,37.4064,57.4377
13:28:07.976,37.0626,57.6877
13:28:07.986,36.6251,57.7502
13:28:08.009,36.1876,57.6252
13:28:08.012,36.0001,56.8127
13:28:08.078,34.1876,54.9377
13:28:08.079,30.9689,51.3127
13:28:08.080,26.0938,47.1252
13:28:08.083,20.8126,41.3127
13:28:08.111,17.7188,36.5626
13:28:08.111,14.9063,33.3751
13:28:08.111,11.75,28.8751
13:28:08.113,6.4375,23.0626
13:28:08.115,1.0938,17.8126
13:28:08.119,-4.5625,11.3125
13:28:08.150,-7.3125,7.375
13:28:08.153,-8.7188,3.875
13:28:08.155,-10.3125,1.6875
13:28:08.176,-12.9688,-2.375
13:28:08.176,-15.0626,-6.0625
13:28:08.180,-17.5626,-9.25
13:28:08.186,-18.7501,-11.5
13:28:08.197,-19.5001,-13.9376
13:28:08.211,-20.2501,-16.0001
13:28:08.217,-20.7813,-17.7501
13:28:08.226,-21.4063,-18.6251
13:28:08.236,-23.7188,-22.1876
13:28:08.246,-23.3126,-22.5626
13:28:08.257,-18.0626,-20.0001
13:28:08.276,-18.6876,-19.3126
13:28:08.279,-21.0938,-22.6251
13:28:08.292,-21.3751,-24.3751
13:28:08.297,-19.7501,-23.6876
13:28:08.306,-18.3126,-24.5001
13:28:08.317,-17.0313,-22.9376
13:28:08.326,-14.0626,-22.0001
13:28:08.336,-13.2501,-21.5626
13:28:08.346,-16.9376,-25.9376
13:28:08.357,-24.6251,-32.2501
13:28:08.368,-27.0939,-36.3751
13:28:08.380,-28.0626,-37.8751
13:28:08.387,-28.3751,-39.4377
13:28:08.396,-27.6564,-39.6252
13:28:08.408,-27.5314,-42.4377
13:28:08.416,-28.0626,-43.1877
13:28:08.426,-23.9688,-42.4377
13:28:08.437,-23.4376,-42.6877
13:28:08.447,-21.4376,-42.8127
13:28:08.459,-19.4063,-42.0627
13:28:08.468,-16.3126,-39.0626
13:28:08.476,-9.7813,-29.3751
13:28:08.487,-0.6875,-15.5001
13:28:08.497,12.3438,4.125
13:28:08.508,25.9063,23.5001
13:28:08.516,41.1564,45.3127
13:28:08.528,50.0939,62.1252
13:28:08.536,54.094,75.0003
13:28:08.548,57.7815,84.3128
13:28:08.559,62.6565,93.7504
13:28:08.568,64.4377,98.7504
13:28:08.579,66.1565,100.6879
13:28:08.586,67.3753,103.3129
13:28:08.597,64.1565,101.7504
13:28:08.607,62.344,98.5004
13:28:08.616,62.2815,97.3754
13:28:08.626,61.969,96.8129
13:28:08.640,63.844,96.0629
13:28:08.647,64.469,96.5004
13:28:08.675,64.7815,94.8129
13:28:08.677,65.2502,94.2504
13:28:08.681,65.4065,93.2504
13:28:08.688,65.3128,92.3754
13:28:08.699,65.4378,91.2504
13:28:08.709,64.0002,88.1878
13:28:08.717,64.9377,86.3128
13:28:08.746,67.719,85.4378
13:28:08.748,71.0628,87.3128
13:28:08.750,76.9378,88.4378
13:28:08.782,80.7503,91.0629
13:28:08.783,86.6253,94.0004
13:28:08.786,96.5629,99.8129
13:28:08.788,104.4066,106.7504
13:28:08.818,111.1567,111.0629
13:28:08.820,118.6255,115.7504
13:28:08.822,126.8442,122.5005
13:28:08.850,127.188,122.3755
13:28:08.851,126.5317,119.6255
13:28:08.853,123.9692,117.563
13:28:08.857,120.5005,112.7504
13:28:08.890,115.5942,107.5629
13:28:08.893,112.5317,102.0004
13:28:08.896,108.7504,97.3129
13:28:08.898,106.2504,91.8129
13:28:08.909,103.1879,86.7503
13:28:08.918,100.7191,83.0003
13:28:08.926,99.5004,77.2503
13:28:08.937,96.9691,73.3753
13:28:08.946,95.3754,67.6878
13:28:08.957,92.9066,64.0627
13:28:08.968,91.9379,58.9377
13:28:08.977,90.8754,55.7502
13:28:08.990,90.5316,51.3127
13:28:08.996,89.8128,49.0002
13:28:09.006,89.4378,44.0627
13:28:09.017,87.1566,40.2502
13:28:09.027,85.2191,34.2501
13:28:09.036,82.8128,29.6251
13:28:09.046,80.0941,24.1876
13:28:09.057,76.6565,17.7501
13:28:09.067,73.3128,13.6876
13:28:09.078,71.2503,7.875
13:28:09.086,68.6253,3.9375
13:28:09.097,66.4378,-0.5625
13:28:09.107,64.6877,-4.5
13:28:09.117,63.4377,-7.625
13:28:09.127,60.469,-10.9375
13:28:09.138,59.719,-13.8751
13:28:09.146,57.4377,-15.9376
13:28:09.158,56.1877,-18.9376
13:28:09.168,54.5627,-21.6876
13:28:09.177,52.9065,-24.0001
13:28:09.186,51.9064,-26.1876
13:28:09.197,50.5314,-29.8751
13:28:09.207,48.9064,-32.3126
13:28:09.217,47.5314,-35.1251
13:28:09.228,44.3752,-38.8126
13:28:09.236,42.1564,-42.6877
13:28:09.248,40.5314,-46.8752
13:28:09.257,37.6564,-50.2502
13:28:09.271,35.5626,-54.2502
13:28:09.276,32.0314,-57.5627
13:28:09.287,30.9064,-60.5627
13:28:09.297,31.8126,-58.0002
13:28:09.309,39.3752,-48.9377
13:28:09.316,51.5627,-28.7501
13:28:09.327,67.4378,-3.9375
13:28:09.343,80.2191,21.2501
13:28:09.357,91.6566,41.0627
13:28:09.373,98.6254,56.0627
13:28:09.377,104.0316,67.1253
13:28:09.380,107.2817,73.5003
13:28:09.388,108.1254,77.3128
13:28:09.396,108.1254,77.8128
13:28:09.406,105.3754,76.3128
13:28:09.417,102.9066,72.0628
13:28:09.429,99.1254,68.2503
13:28:09.457,95.8129,62.5627
13:28:09.457,91.2816,57.8127
13:28:09.459,88.2816,52.0002
13:28:09.494,83.7816,47.2502
13:28:09.497,81.2816,43.2502
13:28:09.498,77.5003,39.1877
13:28:09.500,76.0315,36.2501
13:28:09.509,72.5315,32.5626
13:28:09.536,69.6565,29.6251
13:28:09.538,66.344,24.7501
13:28:09.540,62.9377,19.6251
13:28:09.548,59.0002,14.5001
13:28:09.590,55.5002,8.8125
13:28:09.593,52.9065,4.9375
13:28:09.593,50.6252,1.5
13:28:09.595,48.5939,-0.5
13:28:09.605,48.2502,-1.375
13:28:09.608,47.5939,-0.9375
13:28:09.617,49.2502,0.5625
13:28:09.628,48.9689,3
13:28:09.639,49.9064,4.75
13:28:09.647,50.5627,5.3125
13:28:09.658,49.7502,6.625
13:28:09.667,49.5002,5.5625
13:28:09.677,47.6252,4.9375
13:28:09.686,46.1252,2.1875
13:28:09.698,43.4064,-0.1875
13:28:09.706,41.0627,-4.125
13:28:09.717,38.0314,-7.4375
13:28:09.728,34.9064,-12.0625
13:28:09.738,31.8439,-16.9376
13:28:09.747,28.4689,-21.1876
13:28:09.757,25.5313,-25.9376
13:28:09.769,22.1251,-30.1251
13:28:09.776,19.5001,-34.8126
13:28:09.788,15.8438,-38.3126
13:28:09.797,13.5626,-42.3127
13:28:09.808,10.6875,-46.9377
13:28:09.820,7.1875,-50.5002
13:28:09.828,4.375,-55.1252
13:28:09.837,1.0625,-58.3127
13:28:09.848,-1.4063,-61.8752
13:28:09.860,-3.5313,-66.5628
13:28:09.866,-6.375,-68.5003
13:28:09.878,-8.5,-72.9378
13:28:09.888,-10.4063,-75.2503
13:28:09.897,-12.9063,-77.3753
13:28:09.907,-13.8751,-81.1253
13:28:09.917,-16.3751,-83.0003
13:28:09.929,-17.8126,-83.6878
13:28:09.956,-18.8126,-86.7503
13:28:09.957,-20.8126,-88.8128
13:28:09.960,-21.5313,-89.8128
13:28:09.967,-22.7501,-91.5004
13:28:09.978,-23.5313,-91.8129
13:28:09.988,-24.5313,-93.6879
13:28:09.997,-25.7813,-93.9379
13:28:10.006,-26.0313,-95.3754
13:28:10.018,-27.3439,-96.6254
13:28:10.028,-28.3126,-97.5629
13:28:10.038,-29.0001,-98.5004
13:28:10.047,-29.7189,-100.4379
13:28:10.060,-31.5314,-101.5629
13:28:10.068,-32.8439,-103.6254
13:28:10.077,-34.3126,-105.7504
13:28:10.094,-35.3439,-107.2504
13:28:10.096,-37.6876,-110.6254
13:28:10.106,-38.7189,-112.3754
13:28:10.117,-41.1252,-114.6879
13:28:10.129,-42.5314,-117.438
13:28:10.138,-42.9377,-119.1255
13:28:10.148,-43.5627,-119.6255
13:28:10.158,-40.4689,-116.0629
13:28:10.169,-29.7814,-99.6254
13:28:10.178,-11.9688,-72.9378
13:28:10.187,7.9063,-40.4377
13:28:10.197,23.7501,-11.375
13:28:10.209,35.6564,10.8125
13:28:10.218,45.0314,28.0001
13:28:10.229,50.3127,39.3127
13:28:10.258,53.7815,47.0002
13:28:10.261,55.3752,51.5627
13:28:10.263,55.4065,51.8127
13:28:10.268,53.6877,51.5002
13:28:10.297,51.3439,47.2502
13:28:10.299,49.0627,44.0627
13:28:10.302,45.4689,40.6877
13:28:10.308,43.1252,36.2501
13:28:10.333,40.1877,31.6876
13:28:10.335,37.5939,27.9376
13:28:10.337,35.1564,25.6876
13:28:10.364,34.1564,22.5001
13:28:10.366,32.2501,21.3751
13:28:10.369,31.7814,18.7501
13:28:10.400,29.0939,16.6876
13:28:10.403,28.0314,13.125
13:28:10.405,25.0626,9.4375
13:28:10.407,22.8751,5.3125
13:28:10.418,20.9063,1.75
13:28:10.428,18.5313,-0.9375
13:28:10.436,18.2813,-3.0625
13:28:10.447,17.8751,-3.875
13:28:10.459,17.9063,-3.25
13:28:10.469,18.7188,-2.5625
13:28:10.477,19.6251,0.3125
13:28:10.488,21.7188,2.375
13:28:10.499,23.1251,4.25
13:28:10.508,24.5001,6.375
13:28:10.517,24.7813,7.9375
13:28:10.529,24.5001,8.5
13:28:10.537,24.4688,7.8125
13:28:10.548,23.0313,6.6875
13:28:10.557,21.5626,4.125
13:28:10.568,19.6563,0.875
13:28:10.577,17.0313,-1.625
13:28:10.588,15.1251,-6.3125
13:28:10.597,12.4375,-9.3125
13:28:10.609,10.2813,-13.9376
13:28:10.617,7.6563,-18.2501
13:28:10.628,4.75,-22.0001
13:28:10.638,2.4063,-25.7501
13:28:10.652,-0.2188,-30.1876
13:28:10.665,-3.2813,-34.0626
13:28:10.667,-5.4063,-37.9376
13:28:10.684,-8.0938,-41.9377
13:28:10.688,-10.3125,-46.1877
13:28:10.705,-12.4375,-49.8127
13:28:10.707,-14.4688,-51.8752
13:28:10.719,-16.6876,-55.8752
13:28:10.727,-18.4376,-59.0002
13:28:10.738,-19.8126,-61.4377
13:28:10.748,-22.0626,-63.9377
13:28:10.757,-22.6563,-66.6253
13:28:10.769,-24.6563,-68.6878
13:28:10.778,-25.5313,-70.3753
13:28:10.788,-26.6876,-72.5628
13:28:10.798,-27.6564,-73.2503
13:28:10.808,-27.7189,-74.2503
13:28:10.818,-28.0001,-75.1878
13:28:10.828,-29.2501,-74.6253
13:28:10.842,-29.2501,-76.2503
13:28:10.871,-29.7189,-77.1878
13:28:10.874,-30.0001,-77.1878
13:28:10.910,-31.1251,-78.7503
13:28:10.938,-31.7189,-79.1253
13:28:10.971,-32.8126,-82.1253
13:28:11.001,-33.1251,-82.3128
13:28:11.001,-34.8751,-84.8128
13:28:11.001,-35.7501,-85.9378
13:28:11.004,-37.9689,-89.1878
13:28:11.006,-39.6564,-90.5004
13:28:11.012,-41.0002,-93.6879
13:28:11.012,-42.3127,-95.6254
13:28:11.012,-43.5939,-97.8754
13:28:11.018,-43.3127,-97.8754
13:28:11.037,-38.9689,-92.1879
13:28:11.042,-28.7189,-76.8128
13:28:11.049,-11.5313,-51.1252
13:28:11.057,5.625,-20.8126
13:28:11.069,20.7813,4.25
13:28:11.078,31.7189,27.1876
13:28:11.088,40.9689,42.6252
13:28:11.098,46.3439,55.3752
13:28:11.110,51.2189,63.2502
13:28:11.117,52.3752,67.5628
13:28:11.128,51.7502,67.8753
13:28:11.138,48.5314,64.8752
13:28:11.151,45.6877,61.1252
13:28:11.158,43.1252,55.5627
13:28:11.168,39.9064,51.5627
13:28:11.178,34.6564,42.3752
13:28:11.190,33.1251,39.7502
13:28:11.198,32.1564,38.0001
13:28:11.208,30.0001,35.3126
13:28:11.235,27.6251,31.4376
13:28:11.239,24.9688,26.8751
13:28:11.240,23.0626,22.8751
13:28:11.250,20.3751,19.0626
13:28:11.258,19.0001,17.4376
13:28:11.268,18.4376,14.8126
13:28:11.278,17.9063,14.9376
13:28:11.288,18.2501,15.9376
13:28:11.298,19.7813,16.4376
13:28:11.330,21.4376,19.5626
13:28:11.332,23.3126,22.5001
13:28:11.335,24.0626,25.4376
13:28:11.344,25.2813,27.3126
13:28:11.353,26.1251,27.6251
13:28:11.363,25.3126,28.9376
13:28:11.375,24.9063,26.1251
13:28:11.383,22.9063,25.0626
13:28:11.393,21.5938,22.1251
13:28:11.403,19.7501,19.0001
13:28:11.413,17.2501,15.8751
13:28:11.423,14.9376,10.9375
13:28:11.434,12.0313,6.0625
13:28:11.444,10,2.3125
13:28:11.453,6.7813,-1.8125
13:28:11.462,4.0938,-6.875
13:28:11.474,-0.3438,-13.6251
13:28:11.482,-2.4375,-17.7501
13:28:11.492,-5.0938,-21.6876
13:28:11.502,-7.4375,-25.5001
13:28:11.515,-8.7813,-29.7501
13:28:11.524,-11.6563,-33.6251
13:28:11.533,-13.8751,-36.1876
13:28:11.543,-15.5001,-39.5002
13:28:11.554,-16.8438,-43.6252
13:28:11.563,-18.8438,-47.7502
13:28:11.573,-21.0001,-49.6877
13:28:11.583,-22.7501,-52.2502
13:28:11.593,-23.2501,-55.2502
13:28:11.612,-25.3751,-57.7502
13:28:11.616,-26.4376,-59.1877
13:28:11.645,-27.2189,-61.9377
13:28:11.647,-28.1564,-63.6252
13:28:11.650,-28.9376,-64.9377
13:28:11.652,-29.4689,-65.8128
13:28:11.688,-29.4376,-66.3128
13:28:11.690,-30.1564,-67.5628
13:28:11.692,-30.5001,-67.8753
13:28:11.696,-30.5314,-68.7503
13:28:11.728,-31.5939,-69.2503
13:28:11.730,-31.6564,-70.6253
13:28:11.732,-32.7814,-71.2503
13:28:11.736,-33.3439,-73.8128
13:28:11.768,-35.0626,-75.2503
13:28:11.770,-35.8126,-77.8128
13:28:11.772,-37.3439,-79.2503
13:28:11.775,-38.5939,-82.3753
13:28:11.789,-40.7502,-84.8128
13:28:11.794,-41.6564,-87.6878
13:28:11.803,-42.7189,-89.4378
13:28:11.813,-42.1564,-89.9378
13:28:11.822,-39.0939,-84.3753
13:28:11.834,-27.5314,-70.4378
13:28:11.843,-10.7188,-42.3127
13:28:11.853,8.625,-11.1875
13:28:11.864,25.0001,17.5001
13:28:11.873,37.9376,42.0627
13:28:11.884,47.9689,59.6877
13:28:11.892,54.8752,74.9378
13:28:11.905,59.469,86.1253
13:28:11.913,62.3127,90.0628
13:28:11.923,63.2502,93.0629
13:28:11.933,61.6565,92.8754
13:28:11.943,60.2502,90.5004
13:28:11.952,57.844,87.3128
13:28:11.969,54.7815,84.5003
13:28:11.976,51.5002,78.1253
13:28:11.984,49.6564,74.3128
13:28:11.993,46.2814,69.7503
13:28:12.008,44.5627,66.3753
13:28:12.016,43.0939,64.5002
13:28:12.022,41.5939,61.0627
13:28:12.033,40.5939,60.2502
13:28:12.043,39.2814,57.8752
13:28:12.053,37.3751,54.7502
13:28:12.064,35.3126,51.1252
13:28:12.073,32.7814,46.1877
13:28:12.083,30.2814,43.1252
13:28:12.093,28.8126,39.8752
13:28:12.105,27.6251,36.9376
13:28:12.113,27.1251,36.6251
13:28:12.123,26.9064,35.6251
13:28:12.134,28.0314,36.6251
13:28:12.143,29.3439,39.5002
13:28:12.154,31.0001,41.8127
13:28:12.167,32.2189,44.9377
13:28:12.172,33.2501,45.7502
13:28:12.183,33.0939,47.5627
13:28:12.193,33.3751,48.0627
13:28:12.204,33.1251,46.5002
13:28:12.213,32.5939,45.1252
13:28:12.222,31.8439,43.5627
13:28:12.235,29.4064,40.1252
13:28:12.254,27.3751,36.1876
13:28:12.256,25.0313,32.7501
13:28:12.265,22.5938,27.0001
13:28:12.273,19.8751,23.0001
13:28:12.287,16.5001,18.1876
13:28:12.296,13.6251,14.0001
13:28:12.304,11.5,7.9375
13:28:12.313,8.6875,2.625
13:28:12.323,6.0938,-1.0625
13:28:12.334,3.9688,-6.5
13:28:12.343,0.25,-11.5
13:28:12.353,-1.75,-16.0001
13:28:12.362,-4.0313,-19.6251
13:28:12.378,-6.4688,-23.5626
13:28:12.383,-8.625,-28.1251
13:28:12.413,-10.6875,-32.1876
13:28:12.417,-13.3751,-35.7501
13:28:12.418,-15.4688,-38.4376
13:28:12.424,-16.0626,-42.2502
13:28:12.433,-17.7813,-45.5627
13:28:12.460,-19.1563,-48.3127
13:28:12.462,-20.3751,-50.5627
13:28:12.464,-21.0001,-51.5627
13:28:12.508,-21.6876,-54.2502
13:28:12.508,-22.5001,-56.1252
13:28:12.511,-24.0313,-56.8127
13:28:12.525,-24.1251,-58.6252
13:28:12.530,-24.9376,-60.9377
13:28:12.531,-25.7501,-62.3127
13:28:12.534,-26.2188,-63.9377
13:28:12.557,-27.8751,-65.1878
13:28:12.560,-28.1876,-67.1878
13:28:12.563,-29.8126,-69.4378
13:28:12.573,-31.4689,-71.8753
13:28:12.582,-32.4064,-73.8753
13:28:12.593,-34.5001,-75.7503
13:28:12.606,-35.7814,-80.1878
13:28:12.612,-36.6564,-81.8128
13:28:12.622,-38.4689,-84.8753
13:28:12.632,-39.5002,-86.7503
13:28:12.643,-39.7814,-86.8128
13:28:12.653,-35.9689,-83.7503
13:28:12.664,-24.4063,-67.8753
13:28:12.672,-5.625,-38.3126
13:28:12.683,14.8438,-3.875
13:28:12.695,30.7501,26.4376
13:28:12.702,43.5627,48.8127
13:28:12.713,53.1565,67.5628
13:28:12.724,59.1565,80.7503
13:28:12.733,62.9065,89.0003
13:28:12.743,64.9065,94.1879
13:28:12.754,64.469,95.1879
13:28:12.762,63.5002,93.5004
13:28:12.773,61.0315,91.5004
13:28:12.784,57.844,86.0628
13:28:12.795,55.3752,82.1253
13:28:12.803,51.2502,77.5628
13:28:12.813,48.7189,71.6878
13:28:12.824,45.2502,68.1253
13:28:12.833,43.5939,63.6877
13:28:12.842,41.8752,60.9377
13:28:12.853,40.2502,58.6252
13:28:12.863,39.1564,56.0627
13:28:12.874,36.5626,53.5002
13:28:12.883,34.1564,50.0002
13:28:12.895,31.9376,44.5002
13:28:12.903,28.1564,40.3127
13:28:12.913,26.1251,36.0626
13:28:12.925,24.3126,32.1876
13:28:12.936,23.5626,30.6251
13:28:12.942,23.2813,29.4376
13:28:12.954,23.4376,29.8751
13:28:12.964,24.6563,31.2501
13:28:12.972,24.8751,33.7501
13:28:12.983,26.9689,37.1876
13:28:12.993,28.8126,39.1877
13:28:13.003,29.4064,41.8752
13:28:13.013,29.8439,42.0002
13:28:13.023,28.9376,41.1252
13:28:13.033,28.1251,40.5627
13:28:13.042,26.5626,37.3751
13:28:13.056,24.3751,33.9376
13:28:13.063,22.3126,30.3126
13:28:13.073,19.9063,26.5001
13:28:13.082,17.4688,22.2501
13:28:13.101,14.4376,18.8126
13:28:13.104,12.1563,14.3751
13:28:13.136,10.3125,8.6875
13:28:13.139,6.625,3.5625
13:28:13.140,3.8125,-0.3125
13:28:13.145,1.2188,-4.125
13:28:13.176,-0.375,-9.125
13:28:13.179,-3.5,-14.1251
13:28:13.181,-6.3438,-18.0001
13:28:13.184,-8.3438,-21.1251
13:28:13.223,-10.1563,-25.9376
13:28:13.224,-12.4688,-29.2501
13:28:13.226,-15.0938,-32.8126
13:28:13.231,-16.2188,-36.4376
13:28:13.234,-17.7501,-39.8752
13:28:13.244,-19.4688,-42.1252
13:28:13.275,-20.8438,-43.9377
13:28:13.276,-21.6876,-46.2502
13:28:13.279,-22.5313,-48.4377
13:28:13.295,-23.5626,-50.6877
13:28:13.315,-24.3751,-50.9377
13:28:13.317,-24.6563,-52.6877
13:28:13.333,-25.4063,-54.1252
13:28:13.348,-25.6876,-55.6877
13:28:13.351,-26.5314,-56.5627
13:28:13.351,-27.9376,-58.3127
13:28:13.355,-28.3439,-60.1877
13:28:13.362,-29.6876,-62.5002
13:28:13.375,-30.8439,-63.8127
13:28:13.385,-32.1564,-67.1253
13:28:13.393,-34.2814,-68.1878
13:28:13.402,-34.3751,-71.0628
13:28:13.414,-34.4376,-72.5628
13:28:13.423,-35.6876,-72.3753
13:28:13.433,-31.5314,-68.6878
13:28:13.444,-21.4688,-54.8752
13:28:13.453,-6.5625,-31.4376
13:28:13.462,10.5313,-3.6875
13:28:13.474,24.0001,22.3751
13:28:13.483,36.0939,44.8127
13:28:13.492,45.0002,61.7502
13:28:13.504,51.3127,74.9378
13:28:13.513,55.7502,83.5003
13:28:13.523,56.9377,88.0628
13:28:13.535,56.844,89.6253
13:28:13.543,55.6252,87.9378
13:28:13.553,53.5002,85.6878
13:28:13.572,50.4689,82.0628
13:28:13.574,47.6252,76.1253
13:28:13.589,44.8127,72.2503
13:28:13.604,41.3752,67.2503
13:28:13.608,39.1251,62.0627
13:28:13.615,36.4064,59.0002
13:28:13.623,34.5626,54.6877
13:28:13.633,33.2501,53.0627
13:28:13.642,31.8751,50.0627
13:28:13.654,30.3439,47.7502
13:28:13.662,27.9376,43.3127
13:28:13.673,25.0626,39.0626
13:28:13.690,22.8751,34.8126
13:28:13.692,19.9063,30.8126
13:28:13.702,19.0313,27.4376
13:28:13.714,17.1876,24.5001
13:28:13.723,16.8438,23.5626
13:28:13.732,17.0001,23.3126
13:28:13.745,17.4376,24.7501
13:28:13.753,18.8126,26.8126
13:28:13.762,20.5626,28.9376
13:28:13.797,22.1251,31.0001
13:28:13.799,23.6563,33.5001
13:28:13.802,23.1251,35.1251
13:28:13.804,23.5001,34.9376
13:28:13.813,21.9063,33.7501
13:28:13.824,21.1876,31.6251
13:28:13.835,18.9688,28.5001
13:28:13.846,17.5938,25.1251
13:28:13.880,15.0313,21.0001
13:28:13.882,12.5938,17.1251
13:28:13.883,9.9063,11.8125
13:28:13.886,7.3125,7.9375
13:28:13.892,4.5938,3
13:28:13.922,1.9375,-1.6875
13:28:13.926,-0.625,-5.125
13:28:13.928,-3.0938,-10
13:28:13.932,-5,-14.9376
13:28:13.962,-7.7813,-19.1876
13:28:13.967,-10.1875,-23.1876
13:28:13.969,-11.5938,-26.1251
13:28:13.973,-13.9688,-30.5626
13:28:14.009,-16.2813,-34.1876
13:28:14.009,-18.5313,-35.8126
13:28:14.011,-19.7813,-40.5002
13:28:14.014,-21.3438,-43.5627
13:28:14.023,-22.8751,-46.5002
13:28:14.034,-24.4688,-47.8752
13:28:14.045,-25.2188,-50.1877
13:28:14.053,-25.9688,-52.7502
13:28:14.064,-27.5001,-54.8127
13:28:14.073,-27.9689,-55.7502
13:28:14.082,-28.3126,-57.7502
13:28:14.094,-28.6876,-57.3752
13:28:14.103,-28.4376,-58.8127
13:28:14.113,-29.4064,-59.5002
13:28:14.123,-29.5626,-61.1252
13:28:14.134,-30.0314,-61.5002
13:28:14.142,-30.7189,-64.0002
13:28:14.153,-32.3439,-65.1252
13:28:14.163,-32.6564,-68.1253
13:28:14.173,-34.6876,-69.2503
13:28:14.182,-35.4689,-72.1878
13:28:14.193,-37.0626,-73.6878
13:28:14.203,-38.5626,-75.3753
13:28:14.213,-39.0001,-78.6878
13:28:14.224,-37.4376,-77.3753
13:28:14.234,-33.0001,-70.5628
13:28:14.243,-20.9376,-53.3752
13:28:14.252,-3.7188,-26.0626
13:28:14.264,11.9063,3.125
13:28:14.273,26.2501,27.8126
13:28:14.282,38.2814,49.6252
13:28:14.294,45.6877,66.6253
13:28:14.303,52.1877,78.0628
13:28:14.314,55.9065,86.6878
13:28:14.322,56.719,90.1254
13:28:14.333,57.1252,91.5004
13:28:14.344,55.3127,91.0629
13:28:14.353,53.344,87.9378
13:28:14.363,50.8127,83.8753
13:28:14.373,47.8439,79.6878
13:28:14.383,44.9377,75.3128
13:28:14.393,42.8127,70.7503
13:28:14.416,41.0939,66.6878
13:28:14.420,38.5626,64.0002
13:28:14.424,37.3439,61.0627
13:28:14.439,36.3439,60.4377
13:28:14.444,35.0626,58.1877
13:28:14.452,34.3439,56.1877
13:28:14.466,31.6564,53.6252
13:28:14.474,29.7501,48.9377
13:28:14.482,26.6564,45.6877
13:28:14.497,25.4376,41.0627
13:28:14.502,23.3126,38.9376
13:28:14.514,22.6251,36.0001
13:28:14.522,21.7813,36.0626
13:28:14.533,22.8126,35.5001
13:28:14.564,23.1563,37.9376
13:28:14.567,25.4063,39.2501
13:28:14.569,26.5939,42.7502
13:28:14.574,28.7189,44.5002
13:28:14.600,28.7501,47.7502
13:28:14.605,29.4376,47.2502
13:28:14.725,28.7814,46.4377
13:28:14.726,27.4064,44.6252
13:28:14.734,25.9688,42.4377
13:28:14.735,24.1876,40.3127
13:28:14.735,21.9688,36.2501
13:28:14.738,20.2188,32.8126
13:28:14.748,17.8126,27.6876
13:28:14.757,14.8126,23.5626
13:28:14.767,12.3438,20.0001
13:28:14.778,10.75,15.0001
13:28:14.787,7.4688,10.4375
13:28:14.798,5.4375,6.1875
13:28:14.814,3.0938,3.375
13:28:14.819,1.0625,-1.625
13:28:14.830,-1,-5.375
13:28:14.838,-3.0625,-8.125
13:28:14.848,-4.6563,-12.6875
13:28:14.858,-7.2188,-16.3751
13:28:14.868,-8.4375,-19.6876
13:28:14.889,-9.5938,-22.0626
13:28:14.894,-10.9063,-25.0001
13:28:14.901,-22.4688,-46.8752
13:28:14.909,-22.8438,-48.7502
13:28:14.924,-24.1563,-51.0627
13:28:14.932,-25.6563,-52.1877
13:28:14.939,-26.4376,-54.3127
13:28:14.948,-27.1564,-56.3752
13:28:14.958,-28.7189,-58.9377
13:28:14.967,-28.8751,-59.6877
13:28:14.978,-28.9689,-60.4377
13:28:14.988,-26.8126,-57.7502
13:28:14.997,-19.5313,-48.6877
13:28:15.008,-8.2813,-30.3126
13:28:15.019,6.625,-5.875
13:28:15.028,19.7813,19.3126
13:28:15.037,32.4064,41.6877
13:28:15.048,42.1564,61.5002
13:28:15.075,49.5939,78.0628
13:28:15.078,56.0315,89.0003
13:28:15.080,59.4065,97.6879
13:28:15.088,60.7815,101.6254
13:28:15.098,61.4377,103.4379
13:28:15.107,59.3752,103.8129
13:28:15.120,58.0315,100.3129
13:28:15.128,56.1877,98.1254
13:28:15.137,53.7815,94.9379
13:28:15.148,51.5939,91.6254
13:28:15.158,50.2502,88.6253
13:28:15.168,48.5627,86.8753
13:28:15.178,47.6252,84.3753
13:28:15.187,46.4377,83.5628
13:28:15.199,46.5314,82.7503
13:28:15.207,45.0002,82.1878
13:28:15.218,43.2814,78.7503
13:28:15.230,40.8127,74.6878
13:28:15.237,38.0626,70.2503
13:28:15.248,35.5939,65.4378
13:28:15.258,33.3751,61.0627
13:28:15.267,31.5626,57.6877
13:28:15.278,30.2814,56.3752
13:28:15.287,30.0939,54.7502
13:28:15.297,30.5626,55.5627
13:28:15.309,31.7189,56.5627
13:28:15.345,33.0939,59.3127
13:28:15.346,34.0939,61.5002
13:28:15.348,35.3126,63.3752
13:28:15.351,35.8126,64.8127
13:28:15.358,35.6564,65.1253
13:28:15.387,35.2189,63.5627
13:28:15.388,33.7501,62.3752
13:28:15.389,32.3439,59.5627
13:28:15.432,30.6251,56.6877
13:28:15.433,28.2814,52.3127
13:28:15.436,25.3751,47.8752
13:28:15.440,23.0938,43.5627
13:28:15.444,20.0938,39.3127
13:28:15.476,18.1563,34.6251
13:28:15.479,15.1876,29.3126
13:28:15.481,13.0938,25.0001
13:28:15.484,10.0313,20.3751
13:28:15.496,7.9063,16.5626
13:28:15.504,6.0313,12
13:28:15.513,2.7188,8.3125
13:28:15.523,0.9688,3.1875
13:28:15.533,-1.4375,0.75
13:28:15.542,-2.9375,-4
13:28:15.553,-4.9063,-7.0625
13:28:15.564,-7.1875,-11
13:28:15.576,-8.8125,-14.5001
13:28:15.583,-9.75,-17.8126
13:28:15.594,-11.25,-20.0626
13:28:15.603,-12.4063,-21.2501
13:28:15.614,-12.75,-24.6876
13:28:15.624,-14.0313,-25.0001
13:28:15.635,-14.0001,-26.7501
13:28:15.643,-14.5626,-28.5626
13:28:15.653,-15.9376,-29.6251
13:28:15.664,-16.3751,-31.0626
13:28:15.673,-17.0001,-33.1251
13:28:15.683,-18.4376,-35.5626
13:28:15.694,-19.7813,-37.1876
13:28:15.703,-20.2188,-39.6877
13:28:15.713,-21.7501,-42.3752
13:28:15.722,-23.5313,-45.9377
13:28:15.733,-24.4688,-47.0627
13:28:15.743,-26.0938,-50.5627
13:28:15.754,-26.9376,-51.6252
13:28:15.763,-27.9689,-54.4377
13:28:15.774,-26.9689,-53.9377
13:28:15.786,-22.0626,-48.5627
