timestamp,Red,IR
11:10:01.363,1.8125,10.875
11:10:01.375,2.125,10.8125
11:10:01.383,1.75,9.8125
11:10:01.393,0.9375,9.4375
11:10:01.403,1.75,10
11:10:01.413,1.75,9.125
11:10:01.423,1.25,8.875
11:10:01.432,0.875,9.3125
11:10:01.442,0.3125,8.25
11:10:01.453,0.875,6.4375
11:10:01.465,0.0625,6.625
11:10:01.472,-0.625,6.25
11:10:01.482,-0.0625,5.9375
11:10:01.492,-0.375,4.5625
11:10:01.502,-0.5,5
11:10:01.512,-0.4375,5.9375
11:10:01.522,0.25,6.4375
11:10:01.532,0,5.6875
11:10:01.542,0.125,6.375
11:10:01.552,0.5,6.6875
11:10:01.563,0.9375,6.8125
11:10:01.578,0.4375,7
11:10:01.583,0.1875,7.75
11:10:01.592,0.9375,6.4375
11:10:01.602,0.625,6.125
11:10:01.636,0.0625,5.125
11:10:01.639,0,6
11:10:01.641,-0.75,4.375
11:10:01.672,-1.4375,3.625
11:10:01.673,-0.6875,3.125
11:10:01.676,-1.6875,2.25
11:10:01.681,-2.375,2.125
11:10:01.682,-2.1875,0.625
11:10:01.709,-2.5,0.3125
11:10:01.712,-2.875,0.375
11:10:01.715,-3.125,-1.625
11:10:01.724,-3.6875,-2.75
11:10:01.752,-4.75,-3.375
11:10:01.754,-4.5,-3.0625
11:10:01.757,-4.875,-4.875
11:10:01.799,-5.75,-5.25
11:10:01.803,-5.125,-6.1875
11:10:01.816,-6.25,-7.125
11:10:01.819,-6.3125,-8.625
11:10:01.833,-6.375,-8.5
11:10:01.835,-6.8125,-8.9375
11:10:01.839,-6.75,-10.8125
11:10:01.839,-7.6875,-11.25
11:10:01.843,-7.5,-12.125
11:10:01.852,-8.125,-12.75
11:10:01.864,-8.75,-12.625
11:10:01.873,-8.625,-14.0626
11:10:01.882,-9.875,-14.8751
11:10:01.892,-9.5625,-15.1876
11:10:01.902,-9.5625,-16.2501
11:10:01.912,-10.1875,-15.6251
11:10:01.922,-10.1875,-17.5626
11:10:01.932,-10.5625,-16.2501
11:10:01.942,-11,-18.2501
11:10:01.956,-11.25,-19.6251
11:10:01.963,-11.0625,-18.7501
11:10:01.973,-10.875,-20.0001
11:10:01.982,-12,-21.1876
11:10:01.993,-12.125,-22.0001
11:10:02.002,-11.9375,-22.0001
11:10:02.013,-12.5625,-23.0626
11:10:02.037,-12.4375,-22.7501
11:10:02.039,-13.1876,-24.4376
11:10:02.045,-13,-24.9376
11:10:02.052,-13.3126,-25.0626
11:10:02.062,-13.5626,-26.0626
11:10:02.072,-14.1251,-27.4376
11:10:02.082,-14.3751,-27.0001
11:10:02.092,-14.6876,-28.6876
11:10:02.102,-14.6876,-28.3751
11:10:02.113,-15.5001,-29.5001
11:10:02.122,-15.4376,-29.7501
11:10:02.132,-15.4376,-30.8126
11:10:02.142,-15.6876,-30.0626
11:10:02.153,-15.5626,-31.0001
11:10:02.162,-15.0001,-29.2501
11:10:02.172,-14.1251,-27.5001
11:10:02.182,-12.625,-24.0001
11:10:02.193,-10.375,-19.5626
11:10:02.202,-8.75,-15.8751
11:10:02.212,-6.4375,-12.4375
11:10:02.222,-4.5,-6.9375
11:10:02.232,-3.5,-5.0625
11:10:02.242,-2.1875,-2.1875
11:10:02.252,-1.75,-1.875
11:10:02.262,-0.75,1.0625
11:10:02.272,-0.8125,0.0625
11:10:02.282,-1.1875,1.3125
11:10:02.295,-1.1875,0
11:10:02.302,-1.5,0.6875
11:10:02.312,-1.5,-1.1875
11:10:02.330,-2.25,-0.375
11:10:02.333,-2.375,-1.75
11:10:02.342,-2.0625,-1.375
11:10:02.352,-2.5625,-1.8125
11:10:02.362,-2.1875,-1.875
11:10:02.373,-2.625,-2.0625
11:10:02.384,-2.875,-1.1875
11:10:02.393,-2.6875,-2.125
11:10:02.404,-2.9375,-1.0625
11:10:02.412,-2.75,-1.8125
11:10:02.426,-3.0625,-1.75
11:10:02.456,-2.8125,-2.9375
11:10:02.457,-3.25,-2.8125
11:10:02.462,-2.9375,-3.3125
11:10:02.464,-3.625,-3.875
11:10:02.497,-4.125,-2.625
11:10:02.501,-3.8125,-4.1875
11:10:02.504,-3.4375,-3.625
11:10:02.504,-2.875,-3
11:10:02.536,-3.0625,-2.125
11:10:02.539,-2.1875,-2
11:10:02.542,-2.6875,-0.875
11:10:02.548,-2.3125,-1.4375
11:10:02.555,-2.1875,-1.3125
11:10:02.584,-2.25,-0.4375
11:10:02.586,-2.4375,-1.3125
11:10:02.589,-1.6875,0.25
11:10:02.593,-2.5625,-1.5625
11:10:02.603,-1.875,-1.125
11:10:02.613,-1.8125,-1.3125
11:10:02.622,-3.125,-1.1875
11:10:02.632,-2.8125,-2.125
11:10:02.642,-3.25,-2.875
11:10:02.653,-3,-3.6875
11:10:02.663,-4,-3.5625
11:10:02.672,-3.875,-4.875
11:10:02.682,-4.9375,-5.375
11:10:02.692,-5.3125,-5.25
11:10:02.703,-5.0625,-7.5
11:10:02.712,-5.5,-6.9375
11:10:02.722,-5.4375,-8.375
11:10:02.734,-6.3125,-8.4375
11:10:02.742,-6.3125,-10.125
11:10:02.752,-6.9375,-10.5
11:10:02.762,-6.375,-10.8125
11:10:02.772,-7.3125,-12.5
11:10:02.782,-7.9375,-12.3125
11:10:02.792,-7.4375,-12.375
11:10:02.802,-7.875,-12.4375
11:10:02.812,-7.75,-13.9376
11:10:02.822,-8.1875,-14.4376
11:10:02.833,-8.625,-15.0001
11:10:02.842,-8.3125,-14.8751
11:10:02.853,-8.8125,-15.9376
11:10:02.863,-8.5,-15.8126
11:10:02.874,-9.1875,-17.4376
11:10:02.882,-9.75,-17.0626
11:10:02.892,-9.5,-18.2501
11:10:02.904,-9.8125,-17.8126
11:10:02.913,-10.125,-19.5001
11:10:02.922,-10.1875,-18.0626
11:10:02.932,-10.1875,-20.1251
11:10:02.943,-10.3125,-19.6251
11:10:02.952,-10.375,-21.0626
11:10:02.962,-10.5625,-21.3751
11:10:02.973,-11,-22.1251
11:10:02.983,-11.5,-22.2501
11:10:02.992,-11.75,-23.1876
11:10:03.002,-12.25,-23.4376
11:10:03.012,-12,-23.1251
11:10:03.023,-12.4375,-24.5001
11:10:03.032,-12.75,-25.1876
11:10:03.042,-12.75,-25.8126
11:10:03.052,-13.4376,-26.3126
11:10:03.063,-14.0001,-26.0626
11:10:03.079,-13.6251,-27.8126
11:10:03.086,-14.1876,-27.0001
11:10:03.093,-14.1876,-28.9376
11:10:03.124,-14.3126,-28.5626
11:10:03.191,-14.3126,-28.3751
11:10:03.222,-14.9376,-29.8126
11:10:03.226,-14.5626,-29.2501
11:10:03.264,-13.5001,-28.1251
11:10:03.266,-12.9375,-25.0626
11:10:03.267,-10.3125,-23.0001
11:10:03.267,-9.4375,-18.1876
11:10:03.274,-7,-15.4376
11:10:03.285,-5.6875,-9.8125
11:10:03.295,-3.8125,-8.0625
11:10:03.304,-2.75,-4.25
11:10:03.314,-1.625,-3.4375
11:10:03.322,-1.3125,-1.125
11:10:03.332,-0.6875,0.0625
11:10:03.343,-1.1875,-0.4375
11:10:03.353,-0.3125,0.75
11:10:03.362,-0.8125,-0.0625
11:10:03.373,-1.5,-0.75
11:10:03.382,-1.75,-0.375
11:10:03.393,-1.625,-1.375
11:10:03.402,-2.6875,-1
11:10:03.413,-2.5,-0.9375
11:10:03.422,-2.4375,-2.25
11:10:03.433,-3.8125,-5.25
11:10:03.443,-4.5,-5.625
11:10:03.455,-4,-4.25
11:10:03.463,-4,-4
11:10:03.472,-3.5,-4.5
11:10:03.483,-3.375,-2.6875
11:10:03.493,-2.8125,-2.9375
11:10:03.502,-2.4375,-1.375
11:10:03.514,-2.75,-1.4375
11:10:03.522,-2.5625,-1.9375
11:10:03.532,-2.3125,-0.1875
11:10:03.543,-2,-1.1875
11:10:03.553,-2.125,-0.8125
11:10:03.562,-2,-0.625
11:10:03.572,-2.375,-0.1875
11:10:03.582,-2.0625,-1.25
11:10:03.592,-1.9375,-0.5
11:10:03.602,-2.0625,-1.875
11:10:03.613,-2.75,-2
11:10:03.623,-2.6875,-2.9375
11:10:03.633,-3.125,-2.25
11:10:03.643,-3.4375,-4.1875
11:10:03.652,-3.8125,-3.25
11:10:03.663,-3.625,-5.375
11:10:03.673,-4.375,-5.375
11:10:03.682,-4.4375,-6.5
11:10:03.693,-5,-6.25
11:10:03.703,-5.1875,-7.3125
11:10:03.713,-5.625,-7.5
11:10:03.722,-5.625,-8.8125
11:10:03.732,-6.125,-8.9375
11:10:03.742,-6.25,-10.375
11:10:03.752,-6.625,-10.25
11:10:03.762,-6.8125,-11.25
11:10:03.772,-7.3125,-11.0625
11:10:03.784,-7.5625,-12.5625
11:10:03.792,-8,-12
11:10:03.802,-8.25,-12.8125
11:10:03.814,-7.5625,-13.6876
11:10:03.829,-7.875,-13.5001
11:10:03.834,-7.9375,-14.5626
11:10:03.843,-9,-14.3126
11:10:03.852,-8.875,-15.8126
11:10:03.877,-9.5625,-15.6251
11:10:03.879,-9.3125,-17.3126
11:10:03.885,-9.4375,-18.0001
11:10:03.917,-9.8125,-18.1251
11:10:03.919,-9.75,-18.3126
11:10:03.922,-9.3125,-18.5626
11:10:03.923,-10.125,-17.8751
11:10:03.954,-10.125,-19.3126
11:10:03.957,-10.4375,-19.0626
11:10:03.959,-10,-20.1251
11:10:03.964,-10,-18.8126
11:10:03.999,-9.6875,-19.5001
11:10:04.004,-9.4375,-16.3751
11:10:04.006,-7.5,-14.1251
11:10:04.013,-6.5625,-11.75
11:10:04.015,-4.875,-8.5
11:10:04.045,-3.375,-5.8125
11:10:04.047,-1.375,-1.9375
11:10:04.050,-0.1875,0.8125
11:10:04.059,1,3.6875
11:10:04.070,1.375,3.875
11:10:04.079,1.375,5
11:10:04.087,1.5,5.4375
11:10:04.097,1.4375,6
11:10:04.107,0.6875,4.9375
11:10:04.117,0.3125,5.25
11:10:04.128,-0.25,3.9375
11:10:04.137,0.0625,4.3125
11:10:04.148,-0.25,3
11:10:04.158,0.0625,3.875
11:10:04.167,-0.625,2.125
11:10:04.178,-1.25,1.5
11:10:04.188,-1.4375,1.375
11:10:04.197,-1.3125,1.3125
11:10:04.211,-2,0.875
11:10:04.219,-2,0.4375
11:10:04.228,-2.25,-1
11:10:04.237,-2.625,-0.9375
11:10:04.247,-2.0625,-0.5625
11:10:04.257,-2.5625,-2.3125
11:10:04.268,-2.4375,-2.5
11:10:04.278,-2.8125,-2.25
11:10:04.287,-3.0625,-2.5625
11:10:04.297,-2.6875,-1.4375
11:10:04.307,-2.375,-1.3125
11:10:04.318,-2.75,-1.625
11:10:04.327,-2.875,0.1875
11:10:04.337,-1.3125,-0.625
11:10:04.347,-1.875,0.1875
11:10:04.357,-1,1.1875
11:10:04.367,-1.125,0.8125
11:10:04.377,-1.4375,0.25
11:10:04.387,-0.8125,0.75
11:10:04.410,-1.625,0.25
11:10:04.417,-1.5,0
11:10:04.431,-1.875,-0.625
11:10:04.434,-1.6875,-1.25
11:10:04.437,-2.8125,-1.5625
11:10:04.448,-2.375,-1.8125
11:10:04.457,-3,-1.9375
11:10:04.467,-2.9375,-3
11:10:04.478,-3.9375,-3.875
11:10:04.488,-3.25,-4.625
11:10:04.508,-3.5,-4.75
11:10:04.510,-4.8125,-5.1875
11:10:04.542,-4.5625,-6.5625
11:10:04.545,-4.9375,-6.5
11:10:04.550,-4.625,-8
11:10:04.550,-6.1875,-7.6875
11:10:04.558,-6.4375,-9.25
11:10:04.567,-6.75,-10.4375
11:10:04.585,-7.375,-11.4375
11:10:04.587,-7.375,-11.6875
11:10:04.613,-7.5625,-12.125
11:10:04.616,-6.875,-12.125
11:10:04.618,-8.125,-12.8125
11:10:04.651,-8,-14.0001
11:10:04.653,-8.25,-13.8126
11:10:04.656,-8,-15.0626
11:10:04.659,-9.1875,-15.3751
11:10:04.689,-9.3125,-15.9376
11:10:04.692,-9.4375,-17.4376
11:10:04.694,-9.375,-18.3126
11:10:04.702,-9.5625,-17.7501
11:10:04.708,-10.5,-18.6876
11:10:04.740,-9.8125,-18.4376
11:10:04.743,-10.6875,-20.3126
11:10:04.746,-10.4375,-20.1251
11:10:04.748,-11,-21.6876
11:10:04.770,-10.8125,-21.0626
11:10:04.771,-10.625,-21.5001
11:10:04.777,-11.375,-22.1251
11:10:04.787,-11.4375,-22.8751
11:10:04.797,-12.0625,-22.9376
11:10:04.808,-11.875,-23.1251
11:10:04.818,-11.75,-24.6876
11:10:04.828,-11.9375,-24.0626
11:10:04.837,-12.1875,-25.5626
11:10:04.847,-13.1876,-25.1876
11:10:04.857,-12.5625,-26.6876
11:10:04.868,-12.625,-26.8751
11:10:04.877,-13.0625,-26.8126
11:10:04.887,-13.0625,-28.0626
11:10:04.897,-13.3126,-28.5001
11:10:04.907,-14.1251,-28.5001
11:10:04.918,-14.5001,-30.2501
11:10:04.927,-14.0001,-29.8751
11:10:04.937,-14.7501,-30.0626
11:10:04.947,-13.8126,-29.6251
11:10:04.957,-13.7501,-28.9376
11:10:04.968,-11.875,-26.5001
11:10:04.977,-11.1875,-22.9376
11:10:04.987,-8.6875,-19.5626
11:10:04.997,-6.9375,-15.6251
11:10:05.007,-5.125,-10.375
11:10:05.018,-3.4375,-7.875
11:10:05.028,-2.5,-4.375
11:10:05.037,-1.8125,-2.5625
11:10:05.048,-0.3125,-1.0625
11:10:05.058,-1.0625,-0.4375
11:10:05.067,-0.125,-0.375
11:10:05.077,-0.8125,-0.4375
11:10:05.087,-0.9375,-0.8125
11:10:05.097,-1.4375,-1.4375
11:10:05.107,-0.9375,-1.4375
11:10:05.118,-1.625,-2.1875
11:10:05.128,-1.625,-2.5625
11:10:05.142,-2.375,-2.875
11:10:05.147,-2.375,-3.6875
11:10:05.157,-3.0625,-4.375
11:10:05.168,-2.5625,-4.375
11:10:05.177,-3.1875,-4.75
11:10:05.187,-2.75,-3.9375
11:10:05.197,-2.875,-4.8125
11:10:05.207,-2.375,-4.75
11:10:05.218,-3.0625,-5.625
11:10:05.228,-3.4375,-6.5
11:10:05.239,-3.5,-5.5
11:10:05.247,-3.875,-6.4375
11:10:05.257,-3.9375,-6.9375
11:10:05.268,-3.6875,-7.25
11:10:05.277,-3.9375,-6.375
11:10:05.310,-3.4375,-6.6875
11:10:05.312,-3.375,-5.6875
11:10:05.314,-3.6875,-5.9375
11:10:05.319,-4.125,-6.5625
11:10:05.347,-3.25,-4.375
11:10:05.349,-2.5,-4.125
11:10:05.351,-1.875,-3.5625
11:10:05.358,-2.5625,-3.375
11:10:05.390,-2.375,-3.6875
11:10:05.392,-2.625,-4.3125
11:10:05.397,-2.8125,-5
11:10:05.428,-2.6875,-5.3125
11:10:05.428,-2.6875,-5.25
11:10:05.430,-3.3125,-6.1875
11:10:05.435,-4.3125,-6.6875
11:10:05.440,-3.9375,-7
11:10:05.470,-4.5625,-7.375
11:10:05.471,-4.1875,-8.1875
11:10:05.474,-5.125,-8.875
11:10:05.478,-4.875,-8.375
11:10:05.487,-5,-10.0625
11:10:05.497,-5.25,-9.6875
11:10:05.507,-5.1875,-11.0625
11:10:05.517,-5.75,-10.625
11:10:05.527,-5.8125,-11.875
11:10:05.537,-6.1875,-11.9375
11:10:05.548,-6.5625,-13.3751
11:10:05.560,-6.75,-13.5001
11:10:05.567,-7.4375,-14.9376
11:10:05.577,-6.875,-15.5001
11:10:05.587,-8.0625,-15.8126
11:10:05.597,-7.5,-16.0626
11:10:05.608,-8.4375,-17.3126
11:10:05.617,-8.5625,-17.3126
11:10:05.627,-7.875,-17.2501
11:10:05.637,-9.25,-17.3126
11:10:05.647,-8.6875,-18.0001
11:10:05.657,-9.4375,-18.6876
11:10:05.667,-8.875,-19.0626
11:10:05.677,-9.4375,-19.5626
11:10:05.687,-9.25,-20.2501
11:10:05.698,-10,-20.9376
11:10:05.714,-9.8125,-21.3751
11:10:05.727,-10.6875,-21.2501
11:10:05.730,-9.9375,-22.1251
11:10:05.737,-10.5625,-22.3751
11:10:05.747,-10.8125,-23.0001
11:10:05.758,-11.1875,-22.6876
11:10:05.768,-10.6875,-24.0001
11:10:05.777,-11.25,-24.5626
11:10:05.789,-11.125,-24.8751
11:10:05.822,-11.9375,-25.0626
11:10:05.824,-11.9375,-25.8126
11:10:05.826,-12.5,-25.6876
11:10:05.834,-12.5,-26.5001
11:10:05.837,-12.875,-26.8751
11:10:05.847,-12.25,-27.8126
11:10:05.857,-13.125,-27.9376
11:10:05.867,-13.0625,-28.2501
11:10:05.878,-13.0625,-28.8126
11:10:05.889,-13.4376,-30.8126
11:10:05.900,-13.8126,-30.3126
11:10:05.907,-14.5001,-31.5001
11:10:05.917,-14.0001,-30.9376
11:10:05.928,-13.7501,-31.2501
11:10:05.937,-13.8126,-31.5001
11:10:05.948,-13.9376,-32.6251
11:10:05.959,-13.6876,-31.6876
11:10:05.967,-12.4375,-29.4376
11:10:05.978,-11.5625,-27.5626
11:10:05.987,-10.5,-23.7501
11:10:05.997,-8.5,-20.5626
11:10:06.008,-6.5625,-16.8751
11:10:06.017,-4.875,-13.6251
11:10:06.028,-4.125,-9.1875
11:10:06.038,-2.875,-7.375
11:10:06.049,-2.0625,-5.9375
11:10:06.058,-1.1875,-3.25
11:10:06.069,-1.125,-4.125
11:10:06.078,-1.3125,-3.3125
11:10:06.108,-1.5625,-4.125
11:10:06.110,-1.125,-3.875
11:10:06.112,-1.6875,-5.3125
11:10:06.119,-2,-5.125
11:10:06.147,-3.0625,-6.8125
11:10:06.150,-2.8125,-7.3125
11:10:06.152,-3.4375,-8.375
11:10:06.159,-2.875,-7.8125
11:10:06.185,-3.625,-8.3125
11:10:06.187,-3.4375,-8.25
11:10:06.190,-4.0625,-9.1875
11:10:06.224,-3.875,-8.4375
11:10:06.226,-4,-8.75
11:10:06.229,-3.875,-9.0625
11:10:06.238,-3.875,-9.75
11:10:06.238,-3.75,-10
11:10:06.259,-4.375,-11.1875
11:10:06.268,-4.1875,-10.625
11:10:06.271,-4.9375,-11.125
11:10:06.279,-5.1875,-11.8125
11:10:06.287,-4.6875,-11.4375
11:10:06.297,-4.3125,-10.875
11:10:06.308,-3.375,-10.0625
11:10:06.317,-3.3125,-9.5625
11:10:06.327,-3.25,-9.1875
11:10:06.338,-3.25,-8.75
11:10:06.348,-2.75,-7.5
11:10:06.357,-2.625,-7.5625
11:10:06.368,-2.75,-7.3125
11:10:06.378,-3.0625,-7.0625
11:10:06.387,-2.5625,-6.9375
11:10:06.397,-2.875,-6.4375
11:10:06.407,-2.5625,-7.1875
11:10:06.417,-2.6875,-7.3125
11:10:06.428,-2.5,-7.4375
11:10:06.438,-2.875,-8.625
11:10:06.448,-3.75,-9.8125
11:10:06.458,-3.875,-9.9375
11:10:06.467,-4.0625,-10.3125
11:10:06.479,-4.1875,-10.8125
11:10:06.487,-5,-11.375
11:10:06.497,-4.625,-12
11:10:06.507,-5.0625,-12.25
11:10:06.518,-5.25,-12.625
11:10:06.527,-5.625,-13.3751
11:10:06.537,-5.625,-12.9375
11:10:06.547,-6.3125,-14.3751
11:10:06.557,-6.25,-14.3751
11:10:06.568,-6.5,-15.5001
11:10:06.579,-6.75,-14.9376
11:10:06.588,-7.375,-16.1251
11:10:06.598,-7.25,-16.5626
11:10:06.607,-7.3125,-16.3126
11:10:06.618,-7.5,-16.7501
11:10:06.628,-7.625,-17.6876
11:10:06.642,-7.75,-17.5001
11:10:06.647,-7.6875,-18.3751
11:10:06.657,-7.6875,-18.7501
11:10:06.668,-8.3125,-18.4376
11:10:06.678,-8.25,-19.6251
11:10:06.688,-7.75,-18.9376
11:10:06.697,-9,-20.3751
11:10:06.707,-8.9375,-20.8751
11:10:06.718,-9.125,-21.1876
11:10:06.727,-8.4375,-21.7501
11:10:06.737,-9.625,-22.3751
11:10:06.748,-9.5625,-23.0001
11:10:06.781,-10.1875,-23.5626
11:10:06.784,-10,-23.9376
11:10:06.785,-10,-24.3751
11:10:06.789,-10.375,-24.8751
11:10:06.826,-10.375,-24.3751
11:10:06.827,-10.6875,-25.2501
11:10:06.831,-10.3125,-25.5626
11:10:06.832,-11,-26.3126
11:10:06.838,-11.625,-25.8751
11:10:06.847,-11,-26.7501
11:10:06.881,-11.625,-26.1876
11:10:06.882,-10.75,-26.5626
11:10:06.888,-10,-24.4376
11:10:06.889,-9.0625,-22.0001
11:10:06.920,-7.4375,-19.2501
11:10:06.926,-6.1875,-16.1876
11:10:06.929,-4.6875,-12.9375
11:10:06.933,-2.875,-9.125
11:10:06.939,-1.625,-5.875
11:10:06.948,-1,-4.5
11:10:06.957,-0.125,-1.5625
11:10:06.969,0.375,-1.625
11:10:06.977,0.5625,-1.125
11:10:06.989,0.3125,-1.3125
11:10:07.006,-0.4375,-2.0625
11:10:07.012,-0.375,-2.625
11:10:07.026,-1.4375,-3.5
11:10:07.028,-0.625,-3.875
11:10:07.037,-1.375,-5.5
11:10:07.047,-1.6875,-4.5625
11:10:07.059,-2,-5.25
11:10:07.068,-2.1875,-6.75
11:10:07.077,-1.625,-7.3125
11:10:07.103,-3.1875,-6.9375
11:10:07.118,-3.1875,-7.625
11:10:07.120,-2.8125,-7.3125
11:10:07.124,-3,-7.375
11:10:07.128,-2.75,-8
11:10:07.137,-3.5,-8.9375
11:10:07.148,-3.625,-8.25
11:10:07.157,-3.8125,-10.3125
11:10:07.167,-4.3125,-11.375
11:10:07.177,-4.1875,-10.3125
11:10:07.187,-4.25,-10.875
11:10:07.197,-3.625,-10.875
11:10:07.208,-3.125,-9.5
11:10:07.220,-3.5625,-9.0625
11:10:07.228,-2.9375,-8.625
11:10:07.237,-2.4375,-8
11:10:07.249,-2.3125,-7.5625
11:10:07.258,-2.8125,-6.5
11:10:07.268,-1.625,-6.9375
11:10:07.277,-1.875,-6.625
11:10:07.287,-2.4375,-6.1875
11:10:07.298,-1.875,-6.5
11:10:07.310,-2.875,-6.3125
11:10:07.319,-2.1875,-7.6875
11:10:07.327,-3.8125,-7.4375
11:10:07.337,-3.375,-8.875
11:10:07.347,-3.75,-8.3125
11:10:07.358,-3.75,-10.125
11:10:07.368,-4.4375,-9.5
11:10:07.378,-4.125,-10.8125
11:10:07.387,-4.9375,-11.0625
11:10:07.398,-4.625,-11.9375
11:10:07.407,-5.25,-11.5
11:10:07.417,-5,-12.8125
11:10:07.428,-5.75,-12.9375
11:10:07.437,-5.75,-14.1251
11:10:07.447,-5.9375,-13.9376
11:10:07.458,-6,-14.0001
11:10:07.467,-6.75,-14.8751
11:10:07.477,-6.625,-16.2501
11:10:07.487,-6.6875,-16.0001
11:10:07.500,-6.5,-16.3751
11:10:07.507,-6.8125,-16.5626
11:10:07.518,-6.9375,-16.6251
11:10:07.527,-7,-16.8751
11:10:07.537,-7.375,-18.0001
11:10:07.569,-7.5625,-19.0626
11:10:07.570,-7.6875,-18.5626
11:10:07.572,-8.0625,-18.5626
11:10:07.577,-7.625,-18.8126
11:10:07.609,-7.8125,-19.1876
11:10:07.610,-8.0625,-20.1876
11:10:07.613,-8.0625,-19.6876
11:10:07.620,-8.0625,-20.6876
11:10:07.627,-8.625,-20.1876
11:10:07.657,-8.625,-21.3751
11:10:07.660,-9.4375,-21.8751
11:10:07.662,-9.375,-21.9376
11:10:07.669,-9.125,-22.1876
11:10:07.695,-9.5,-22.3751
11:10:07.698,-9.4375,-22.2501
11:10:07.700,-9.75,-23.6876
11:10:07.716,-10.0625,-22.6251
11:10:07.718,-9.3125,-23.3751
11:10:07.727,-10,-24.9376
11:10:07.737,-10.1875,-24.7501
11:10:07.747,-10.75,-24.7501
11:10:07.758,-11,-25.0001
11:10:07.775,-10.6875,-26.2501
11:10:07.778,-11.3125,-26.0001
11:10:07.787,-11.3125,-26.5001
11:10:07.797,-10.9375,-27.1876
11:10:07.808,-11.6875,-27.4376
11:10:07.817,-10.9375,-25.4376
11:10:07.829,-10.375,-24.6251
11:10:07.839,-8.8125,-22.7501
11:10:07.848,-7.9375,-20.7501
11:10:07.858,-6.1875,-15.8751
11:10:07.870,-4.125,-11.8125
11:10:07.877,-2.125,-8.6875
11:10:07.887,-1.4375,-4.9375
11:10:07.898,0.0625,-2.3125
11:10:07.907,0.4375,0.5
11:10:07.917,2.0625,0.6875
11:10:07.927,1.6875,1.6875
11:10:07.937,2.125,0.75
11:10:07.947,1.125,2.0625
11:10:07.958,1.25,0.5
11:10:07.968,1.0625,0.1875
11:10:07.978,0.4375,-0.25
11:10:07.987,0.125,-2.25
11:10:07.997,-0.5,-2.125
11:10:08.007,-0.1875,-3.375
11:10:08.018,-1.1875,-4.5625
11:10:08.027,-1.1875,-4.6875
11:10:08.038,-1.625,-4.4375
11:10:08.052,-1.1875,-4.5
11:10:08.063,-1.1875,-3.6875
11:10:08.073,-0.4375,-4.6875
11:10:08.085,-1.4375,-5.5
11:10:08.092,-2.375,-4.75
11:10:08.102,-1.875,-5.75
11:10:08.112,-2.3125,-6.8125
11:10:08.122,-1.6875,-5.625
11:10:08.133,-1.875,-6.9375
11:10:08.150,-2.75,-6
11:10:08.154,-2.75,-5.75
11:10:08.163,-1.8125,-6.25
11:10:08.173,-2.0625,-4.5
11:10:08.183,-1.5,-5.125
11:10:08.193,-1.6875,-4.5
11:10:08.202,-1,-4.5625
11:10:08.212,-1.25,-4.0625
11:10:08.222,-0.9375,-2.75
11:10:08.232,-1,-3.875
11:10:08.243,-1.1875,-2.5625
11:10:08.252,-0.625,-3.125
11:10:08.263,-0.4375,-2.5
11:10:08.294,-0.75,-3
11:10:08.328,-0.375,-2.6875
11:10:08.331,-0.875,-3.6875
11:10:08.333,-0.8125,-3.0625
11:10:08.336,-1.625,-4.5
11:10:08.373,-1.75,-4.375
11:10:08.374,-1.375,-5.375
11:10:08.374,-1.8125,-6.25
11:10:08.375,-2.875,-5.5625
11:10:08.380,-2.5,-7
11:10:08.437,-2.9375,-6.25
11:10:08.437,-2.4375,-7.875
11:10:08.437,-2.625,-7.75
11:10:08.439,-3.25,-8
11:10:08.444,-3,-8.6875
11:10:08.447,-4.125,-9.4375
11:10:08.447,-3.8125,-9.9375
11:10:08.448,-4.0625,-10.4375
11:10:08.460,-4.8125,-10.5625
11:10:08.468,-4.9375,-10.8125
11:10:08.478,-4.4375,-12.5
11:10:08.487,-4.5625,-11.8125
11:10:08.497,-3.75,-11.25
11:10:08.507,-4.6875,-12
11:10:08.523,-4.75,-12.3125
11:10:08.529,-4.875,-12.3125
11:10:08.537,-5,-13.0625
11:10:08.547,-4.625,-13.6876
11:10:08.557,-5.625,-14.2501
11:10:08.567,-5.625,-15.5001
11:10:08.581,-6.375,-15.3751
11:10:08.587,-5.875,-15.6251
11:10:08.598,-5.75,-15.3126
11:10:08.607,-6.0625,-15.1251
11:10:08.617,-6.375,-16.2501
11:10:08.628,-6.1875,-16.1251
11:10:08.640,-6.4375,-17.0626
11:10:08.647,-7.125,-17.1251
11:10:08.657,-6.75,-17.0626
11:10:08.668,-7.3125,-17.6251
11:10:08.677,-6.6875,-17.9376
11:10:08.687,-7.6875,-18.1876
11:10:08.698,-7.5625,-18.8126
11:10:08.708,-7.75,-18.8751
11:10:08.717,-7.4375,-19.3751
11:10:08.727,-7.8125,-19.4376
11:10:08.737,-7.4375,-19.1876
11:10:08.747,-7.9375,-19.1876
11:10:08.757,-7.5,-20.1251
11:10:08.767,-8,-20.9376
11:10:08.777,-8.25,-21.3126
11:10:08.787,-8.8125,-21.7501
11:10:08.797,-8.375,-21.6251
11:10:08.807,-8.0625,-20.9376
11:10:08.817,-7.4375,-19.3751
11:10:08.827,-6.25,-16.7501
11:10:08.838,-3.875,-12.75
11:10:08.848,-2.875,-9.125
11:10:08.858,-1.0625,-4.8125
11:10:08.867,0.8125,-1.3125
11:10:08.878,2.5,1.75
11:10:08.890,3.3125,4.375
11:10:08.899,4,5.4375
11:10:08.908,3.9375,7.75
11:10:08.918,4.375,7.1875
11:10:08.929,3.8125,8.0625
11:10:08.937,4,7
11:10:08.947,3.9375,7.125
11:10:08.957,3.625,6
11:10:08.967,2.9375,5.4375
11:10:08.998,2.25,4.125
11:10:08.999,1.9375,4.4375
11:10:09.026,1.875,3.5
11:10:09.028,1.75,3.4375
11:10:09.030,1.25,3.1875
11:10:09.058,1.4375,2
11:10:09.059,1.25,3.5
11:10:09.061,1.375,2.6875
11:10:09.068,1.5,1.9375
11:10:09.095,1.25,3.0625
11:10:09.098,2.1875,2.25
11:10:09.101,1.4375,1.3125
11:10:09.134,0.5625,1.5
11:10:09.134,0.875,1.8125
11:10:09.136,0.6875,0.75
11:10:09.143,0.125,1.0625
11:10:09.144,1.25,1.125
11:10:09.163,1.375,1.375
11:10:09.165,1.1875,1.5625
11:10:09.174,1.4375,3.0625
11:10:09.182,1.9375,3.25
11:10:09.192,1.8125,4.25
11:10:09.202,2.625,5.5625
11:10:09.213,3.5625,5.8125
11:10:09.224,3.1875,5.6875
11:10:09.233,2.9375,5.0625
11:10:09.244,2.625,4.5625
11:10:09.253,2.125,5.9375
11:10:09.262,3.125,5.25
11:10:09.272,2.3125,4.5
11:10:09.282,1.875,5.0625
11:10:09.292,1.4375,4.875
11:10:09.302,1.5625,3.25
11:10:09.313,1.3125,3.125
11:10:09.322,0.8125,3.0625
11:10:09.332,1.3125,2
11:10:09.342,0.8125,1
11:10:09.353,0.6875,1.1875
11:10:09.362,1,0.4375
11:10:09.373,-0.1875,-0.5625
11:10:09.382,-0.4375,0.375
11:10:09.392,0.25,-0.4375
11:10:09.402,0,-1.5625
11:10:09.412,-0.6875,-1.125
11:10:09.423,0.0625,-1.6875
11:10:09.432,-0.9375,-2.6875
11:10:09.442,-1.3125,-2
11:10:09.452,-0.8125,-1.9375
11:10:09.462,-0.25,-2.3125
11:10:09.472,-1.25,-4.125
11:10:09.482,-1.375,-2.4375
11:10:09.492,-0.9375,-3.5625
11:10:09.502,-1.3125,-4.25
11:10:09.513,-2.125,-4.6875
11:10:09.523,-1,-4.8125
11:10:09.532,-2.1875,-5.375
11:10:09.543,-1.8125,-5.8125
11:10:09.553,-2.125,-6.25
11:10:09.562,-2.0625,-5.8125
11:10:09.573,-1.75,-6.4375
11:10:09.582,-2.875,-7.5
11:10:09.602,-3,-6.75
11:10:09.608,-2.875,-8.5625
11:10:09.623,-3.25,-7.25
11:10:09.626,-2.75,-7.4375
11:10:09.632,-2.8125,-8.8125
11:10:09.665,-3.8125,-8.375
11:10:09.666,-3.75,-9.5625
11:10:09.670,-3.875,-9.4375
11:10:09.674,-4.375,-10.1875
11:10:09.693,-3.6875,-10.4375
11:10:09.695,-4.875,-11.3125
11:10:09.711,-3.9375,-11.0625
11:10:09.714,-4.875,-11.4375
11:10:09.731,-4.5625,-12.6875
11:10:09.734,-4.8125,-13
11:10:09.770,-5.0625,-13.2501
11:10:09.771,-5.25,-12.125
11:10:09.773,-4.4375,-11.9375
11:10:09.777,-2.9375,-10.1875
11:10:09.809,-1.375,-6.5
11:10:09.812,0,-3
11:10:09.813,1.625,0.875
11:10:09.817,3.25,4.75
11:10:09.852,4.375,7.5
11:10:09.854,5.5,10.75
11:10:09.856,6.3125,12.125
11:10:09.880,6.625,12.5625
11:10:09.881,7.25,13.6876
11:10:09.882,6.25,13.7501
11:10:09.885,7.25,13.6876
11:10:09.909,6,13.5001
11:10:09.912,6.1875,12.875
11:10:09.913,5.75,11.9375
11:10:09.923,5.875,11.375
11:10:09.933,4.8125,10.8125
11:10:09.944,5,9.5625
11:10:09.954,3.8125,8.5625
11:10:09.962,3.3125,9.0625
11:10:09.972,3.375,8.5
11:10:09.983,3.75,7.875
11:10:09.993,3.4375,7.25
11:10:10.002,3.1875,7.875
11:10:10.013,2.5625,7.25
11:10:10.022,2.5625,6.5
11:10:10.033,2.5625,6.25
11:10:10.042,2.5,4.8125
11:10:10.053,1.5,5.1875
11:10:10.068,2.25,4.125
11:10:10.072,1.6875,4.9375
11:10:10.083,1.9375,4.25
11:10:10.092,2.5,5.75
11:10:10.104,2.875,5.8125
11:10:10.113,3.125,7.6875
11:10:10.122,4.125,7.75
11:10:10.133,2.875,7.875
11:10:10.143,3.6875,9.375
11:10:10.152,3.9375,8.4375
11:10:10.163,3.75,8.25
11:10:10.172,3.6875,9.5
11:10:10.182,4.25,9.625
11:10:10.193,3.4375,8.125
11:10:10.202,2.625,8.9375
11:10:10.212,3.0625,7.8125
11:10:10.222,2.5625,8.75
11:10:10.233,3.4375,7.625
11:10:10.243,3.1875,6.5
11:10:10.252,2.9375,6.875
11:10:10.264,2.625,6.6875
11:10:10.272,2.6875,5.75
11:10:10.282,2.625,4.9375
11:10:10.293,2.625,5.75
11:10:10.303,3.4375,5.0625
11:10:10.313,2.5625,3.8125
11:10:10.324,0.25,2.3125
11:10:10.333,-1.9375,0.125
11:10:10.343,-1.5,-1.6875
11:10:10.354,-1.875,-0.6875
11:10:10.363,-1.6875,-2
11:10:10.372,-3,-3.4375
11:10:10.382,-4,-2.5625
11:10:10.392,-2.6875,-4.3125
11:10:10.402,-2.875,-4.5
11:10:10.418,-1.125,-1.6875
11:10:10.424,-0.9375,-3.1875
11:10:10.453,-1.375,-3.6875
11:10:10.455,-1.0625,-5
11:10:10.457,0.3125,-7.5625
11:10:10.465,1.875,-9.125
11:10:10.497,1.625,-2.375
11:10:10.500,3.8125,-1.0625
11:10:10.502,3.625,-1.375
11:10:10.528,3.875,0.3125
11:10:10.529,4.25,-1.3125
11:10:10.532,4.3125,-1.5625
11:10:10.536,3.9375,-1.4375
11:10:10.573,4.9375,-1.875
11:10:10.577,4.25,-1.75
11:10:10.580,4.6875,-2.375
11:10:10.599,4.0625,-2.4375
11:10:10.599,3.5625,-3
11:10:10.600,2.6875,-4.75
11:10:10.603,2.875,-4.9375
11:10:10.612,1.1875,-6.9375
11:10:10.623,0.5,-6.375
11:10:10.638,0.3125,-7.6875
11:10:10.642,-0.625,-7.9375
11:10:10.654,-0.25,-8.25
11:10:10.662,-0.1875,-9.3125
11:10:10.673,-2.1875,-9.9375
11:10:10.683,-3.25,-9.875
11:10:10.692,-3.4375,-11.9375
11:10:10.702,-3.8125,-11.6875
11:10:10.712,-2.6875,-9.375
11:10:10.724,-3.1875,-8.375
11:10:10.732,-3.625,-7.3125
11:10:10.743,-4.0625,-5.9375
11:10:10.753,-3.375,-2.3125
11:10:10.762,-1.6875,-0.1875
11:10:10.772,-1.375,2.6875
11:10:10.782,0.25,5
11:10:10.793,1.8125,5.5625
11:10:10.803,7.625,9
11:10:10.812,17.0626,12.0625
11:10:10.823,27.9376,14.8126
11:10:10.833,41.0627,18.6251
11:10:10.842,49.1877,25.6876
11:10:10.854,54.8752,28.8751
11:10:10.865,59.0002,34.1876
11:10:10.874,62.1877,37.5626
11:10:10.884,63.8752,39.7502
11:10:10.903,62.3127,40.8127
11:10:10.910,60.7502,40.8752
11:10:10.918,56.6877,41.5002
11:10:10.956,51.1252,41.8752
11:10:10.957,41.5627,41.0002
11:10:10.990,31.7501,39.6252
11:10:10.992,27.9376,36.3751
11:10:11.006,23.3751,30.3751
11:10:11.006,17.4376,22.3751
11:10:11.011,11.9375,14.3751
11:10:11.016,8.625,6.1875
11:10:11.029,9.3125,0.375
11:10:11.030,10,-4.5
11:10:11.045,7.6875,-8.8125
11:10:11.047,0.5625,-17.0626
11:10:11.051,-11.5,-25.3751
11:10:11.058,-26.1876,-34.4376
11:10:11.068,-31.5001,-36.8751
11:10:11.077,-29.5626,-32.1251
11:10:11.087,-27.8126,-30.1876
11:10:11.097,-24.6251,-26.9376
11:10:11.107,-18.7501,-23.0626
11:10:11.118,-16.2501,-21.8126
11:10:11.129,-12.4375,-19.3126
11:10:11.137,-12.375,-19.0626
11:10:11.148,-13.6251,-17.7501
11:10:11.185,-15.1876,-18.5626
11:10:11.187,-16.1251,-18.0001
11:10:11.191,-16.2501,-16.9376
11:10:11.192,-15.8126,-17.0626
11:10:11.201,-15.1876,-17.3751
11:10:11.240,-15.3751,-17.1876
11:10:11.241,-15.0001,-17.2501
11:10:11.245,-14.8751,-18.1876
11:10:11.270,-14.5626,-17.3751
11:10:11.270,-15.2501,-18.8126
11:10:11.272,-15.6251,-18.6251
11:10:11.274,-15.3126,-19.3126
11:10:11.305,-16.2501,-19.4376
11:10:11.311,-15.8751,-19.4376
11:10:11.314,-16.0626,-20.2501
11:10:11.316,-16.1876,-18.8751
11:10:11.327,-14.8126,-19.6876
11:10:11.328,-14.8126,-19.1876
11:10:11.338,-14.3126,-18.4376
11:10:11.350,-13.9376,-19.5001
11:10:11.358,-13.8126,-19.1876
11:10:11.368,-13.6251,-19.4376
11:10:11.378,-12.8125,-18.6251
11:10:11.388,-12.6875,-18.8126
11:10:11.398,-12.5625,-17.8126
11:10:11.407,-11.9375,-18.2501
11:10:11.417,-12.125,-19.0626
11:10:11.428,-12.5,-19.1251
11:10:11.437,-13.125,-18.7501
11:10:11.447,-12.1875,-19.4376
11:10:11.457,-12.125,-19.0001
11:10:11.467,-11.875,-18.0001
11:10:11.477,-10.8125,-17.5001
11:10:11.487,-11.3125,-17.8751
11:10:11.497,-12.5625,-18.8126
11:10:11.507,-12.75,-18.2501
11:10:11.520,-13.8126,-18.1251
11:10:11.527,-13.5001,-18.5001
11:10:11.538,-13.5001,-17.3751
11:10:11.550,-12.8125,-16.5001
11:10:11.561,-14.3126,-17.1876
11:10:11.567,-13.5001,-18.4376
11:10:11.577,-12.3125,-18.3126
11:10:11.588,-11.375,-18.7501
11:10:11.599,-7.8125,-18.6876
11:10:11.609,4.4375,-18.8126
11:10:11.617,15.2501,-13.8751
11:10:11.627,18.8126,-6.5
11:10:11.637,18.6251,-3
11:10:11.647,21.3126,-1.0625
11:10:11.658,27.4376,-0.5625
11:10:11.667,37.5626,3.8125
11:10:11.677,43.9377,8
11:10:11.689,49.4377,13.6876
11:10:11.697,51.2502,16.4376
11:10:11.707,50.7502,19.2501
11:10:11.717,50.3752,20.9376
11:10:11.731,49.9377,23.0626
11:10:11.738,49.2502,24.8751
11:10:11.748,47.6877,27.1251
11:10:11.757,46.2502,30.8751
11:10:11.767,44.0627,33.7501
11:10:11.777,39.2501,38.0626
11:10:11.788,33.9376,40.9377
11:10:11.798,30.3751,41.7502
11:10:11.807,29.3751,43.1877
11:10:11.820,27.3126,41.0627
11:10:11.827,24.3751,37.8126
11:10:11.837,22.5001,34.6251
11:10:11.849,22.6251,33.6876
11:10:11.869,22.8126,33.6251
11:10:11.871,23.1876,34.9376
11:10:11.880,22.5001,33.6876
11:10:11.911,20.9376,30.5001
11:10:11.916,18.6876,24.8751
11:10:11.916,14.9376,15.1876
11:10:11.919,10.9375,4.5625
11:10:11.947,8,-5.0625
11:10:11.949,6.6875,-11.9375
11:10:11.951,6.6875,-16.3751
11:10:11.977,6.625,-21.0001
11:10:11.980,4.8125,-24.8126
11:10:11.982,-1.875,-33.0626
11:10:11.989,-17.4376,-48.0627
11:10:11.998,-25.6251,-53.1252
11:10:12.034,-25.9376,-50.6877
11:10:12.037,-25.6251,-51.6877
11:10:12.039,-28.5001,-52.6252
11:10:12.042,-30.0626,-49.8127
11:10:12.049,-31.8751,-47.7502
11:10:12.058,-34.0001,-44.5627
11:10:12.074,-35.1251,-40.5002
11:10:12.084,-35.4376,-38.5626
11:10:12.100,-34.3751,-37.6251
11:10:12.103,-33.1876,-35.5001
11:10:12.113,-31.6876,-34.3126
11:10:12.122,-30.0001,-32.0001
11:10:12.132,-28.8751,-30.8751
11:10:12.142,-27.7501,-31.0001
11:10:12.153,-28.6251,-32.3751
11:10:12.162,-29.0001,-33.5626
11:10:12.172,-29.6251,-33.0626
11:10:12.182,-30.1876,-33.0001
11:10:12.193,-30.5001,-30.4376
11:10:12.221,-30.7501,-28.8751
11:10:12.226,-30.6876,-28.2501
11:10:12.241,-30.8751,-28.3126
11:10:12.257,-30.3126,-26.8751
11:10:12.259,-29.8126,-26.4376
11:10:12.272,-28.8126,-26.2501
11:10:12.274,-28.0626,-26.0001
11:10:12.289,-26.5626,-25.0626
11:10:12.292,-26.1251,-24.3751
11:10:12.295,-25.5626,-24.3751
11:10:12.312,-24.5626,-23.6876
11:10:12.315,-23.5626,-22.8126
11:10:12.329,-22.3126,-21.3751
11:10:12.346,-20.0001,-20.6251
11:10:12.348,-19.9376,-19.5626
11:10:12.363,-19.0626,-19.4376
11:10:12.366,-18.8126,-18.4376
11:10:12.373,-17.5626,-18.6251
11:10:12.384,-17.5626,-19.5001
11:10:12.394,-17.3126,-19.8126
11:10:12.404,-18.2501,-19.1251
11:10:12.413,-18.3751,-18.5626
11:10:12.424,-17.9376,-18.0626
11:10:12.433,-17.9376,-17.8751
11:10:12.442,-17.8126,-16.3126
11:10:12.453,-17.3126,-16.0001
11:10:12.464,-16.3751,-14.2501
11:10:12.477,-16.0626,-14.1876
11:10:12.483,-15.6251,-13.3126
11:10:12.493,-14.7501,-14.0001
11:10:12.504,-12.0625,-13.1251
11:10:12.513,-9.25,-11.0625
11:10:12.523,2.9375,-10.5625
11:10:12.533,31.7501,-5.375
11:10:12.543,48.2502,13.9376
11:10:12.554,62.2502,29.0626
11:10:12.562,80.0003,44.0627
11:10:12.573,99.2504,60.1252
11:10:12.590,117.8755,81.0628
11:10:12.592,130.1255,97.5004
11:10:12.623,133.813,105.5629
11:10:12.625,132.313,110.1254
11:10:12.627,128.6255,109.3754
11:10:12.636,121.938,108.5629
11:10:12.661,114.3754,106.3129
11:10:12.664,103.9379,101.6879
11:10:12.666,90.1878,98.1879
11:10:12.676,82.6878,92.6254
11:10:12.682,78.8128,86.8128
11:10:12.715,75.6878,79.9378
11:10:12.718,74.6878,75.5628
11:10:12.720,74.5628,73.8128
11:10:12.727,74.6253,71.6253
11:10:12.753,74.0003,69.6878
11:10:12.756,73.2503,66.9378
11:10:12.759,72.7503,65.0002
11:10:12.765,72.1253,59.4377
11:10:12.773,72.6878,53.1252
11:10:12.782,73.2503,47.3127
11:10:12.794,72.0003,40.6252
11:10:12.804,69.4378,39.0626
11:10:12.812,70.0003,37.5001
11:10:12.822,67.8753,36.1251
11:10:12.832,67.9378,35.3126
11:10:12.843,70.5003,34.2501
11:10:12.854,72.9378,35.6876
11:10:12.862,73.3128,35.3126
11:10:12.873,68.6253,26.8126
11:10:12.882,55.1877,13.1875
11:10:12.893,38.5001,-5.625
11:10:12.902,31.0001,-15.5001
11:10:12.914,19.1876,-26.5626
11:10:12.922,0.8125,-42.8127
11:10:12.932,-20.1251,-55.6877
11:10:12.943,-39.7502,-65.1252
11:10:12.953,-52.6877,-69.5628
11:10:12.964,-60.7502,-72.8128
11:10:12.973,-65.5003,-75.3753
11:10:12.985,-71.0003,-81.0003
11:10:12.994,-73.9378,-83.0628
11:10:13.004,-74.0628,-82.0003
11:10:13.013,-73.7503,-81.1878
11:10:13.023,-72.3128,-79.5628
11:10:13.034,-71.7503,-76.0628
11:10:13.042,-70.8753,-73.3128
11:10:13.053,-70.8128,-68.3753
11:10:13.064,-70.3128,-67.6878
11:10:13.073,-70.0003,-62.5627
11:10:13.084,-68.6878,-61.2502
11:10:13.095,-67.6878,-59.2502
11:10:13.103,-66.5003,-56.6252
11:10:13.113,-64.6252,-54.3752
11:10:13.122,-62.8752,-52.8127
11:10:13.132,-60.9377,-50.3752
11:10:13.144,-58.8127,-47.2502
11:10:13.153,-56.0002,-45.3127
11:10:13.163,-54.8127,-42.0002
11:10:13.172,-52.4377,-41.6877
11:10:13.184,-50.5002,-39.1251
11:10:13.195,-50.5627,-37.9376
11:10:13.202,-48.3127,-36.8126
11:10:13.213,-46.3752,-35.5001
11:10:13.227,-46.0627,-33.3126
11:10:13.232,-44.5002,-33.6251
11:10:13.242,-42.6877,-31.5626
11:10:13.254,-42.6252,-30.9376
11:10:13.262,-41.7502,-30.5626
11:10:13.272,-41.3127,-29.1876
11:10:13.284,-41.1877,-29.1876
11:10:13.292,-39.1876,-27.6251
11:10:13.302,-37.9376,-24.6876
11:10:13.326,-36.2501,-24.3751
11:10:13.328,-34.6876,-23.2501
11:10:13.367,-33.1251,-21.8126
11:10:13.368,-32.0626,-21.0626
11:10:13.372,-31.9376,-21.1876
11:10:13.374,-30.8126,-22.0626
11:10:13.377,-28.6251,-20.6876
11:10:13.405,-27.8751,-19.7501
11:10:13.407,-26.7501,-20.9376
11:10:13.409,-24.7501,-20.3751
11:10:13.416,-14.8126,-19.1251
11:10:13.431,-0.4375,-16.1251
11:10:13.437,13.7501,-6.5
11:10:13.444,22.1251,2.3125
11:10:13.471,28.1876,7.625
11:10:13.474,35.2501,14.2501
11:10:13.477,40.3752,20.2501
11:10:13.502,45.2502,23.8126
11:10:13.505,49.0627,28.1251
11:10:13.507,50.8127,31.1876
11:10:13.514,50.3127,33.6251
11:10:13.524,48.7502,33.2501
11:10:13.533,45.8752,34.6251
11:10:13.544,41.3752,33.4376
11:10:13.560,35.1251,32.3751
11:10:13.566,26.6251,31.8751
11:10:13.572,20.3751,27.2501
11:10:13.588,16.6876,22.8126
11:10:13.605,11.6875,15.5001
11:10:13.607,6.4375,5
11:10:13.613,1,-6.375
11:10:13.630,-4.1875,-15.9376
11:10:13.632,-9.875,-25.9376
11:10:13.647,-16.0001,-34.8126
11:10:13.663,-22.1876,-45.3127
11:10:13.665,-30.6876,-55.6252
11:10:13.681,-39.6877,-62.3127
11:10:13.684,-49.1877,-65.4377
11:10:13.693,-58.1877,-72.0628
11:10:13.703,-57.7502,-67.4378
11:10:13.712,-54.7502,-62.8752
11:10:13.724,-49.2502,-55.8752
11:10:13.733,-39.2501,-45.3127
11:10:13.742,-30.5001,-36.4376
11:10:13.754,-24.1251,-29.1251
11:10:13.762,-18.9376,-23.4376
11:10:13.774,-16.0626,-19.0626
11:10:13.782,-13.3126,-14.8126
11:10:13.792,-12.5,-13
11:10:13.802,-12.875,-12.6875
11:10:13.813,-13.5001,-12.25
11:10:13.823,-13.6876,-12.9375
11:10:13.832,-14.1251,-12.375
11:10:13.843,-13.6876,-13.2501
11:10:13.853,-13.1876,-13.8126
11:10:13.862,-12.3125,-13.5001
11:10:13.872,-13.2501,-14.1251
11:10:13.884,-13.8751,-14.1251
11:10:13.893,-15.7501,-15.7501
11:10:13.902,-17.6876,-17.6251
11:10:13.912,-20.4376,-17.8751
11:10:13.922,-22.8126,-20.8126
11:10:13.933,-25.4376,-21.0626
11:10:13.944,-26.2501,-22.7501
11:10:13.953,-28.5626,-24.3751
11:10:13.962,-29.6876,-24.9376
11:10:13.977,-30.0001,-24.4376
11:10:13.984,-30.0626,-24.9376
11:10:13.992,-29.3751,-24.7501
11:10:14.003,-29.1251,-24.2501
11:10:14.012,-28.5001,-23.3751
11:10:14.023,-29.0626,-22.4376
11:10:14.052,-27.5626,-20.6251
11:10:14.054,-26.8126,-19.7501
11:10:14.056,-26.4376,-18.9376
11:10:14.064,-26.0001,-17.3126
11:10:14.090,-24.9376,-16.5626
11:10:14.093,-24.5626,-15.1876
11:10:14.095,-24.1251,-14.5001
11:10:14.129,-23.6251,-13.9376
11:10:14.132,-21.8126,-12.375
11:10:14.134,-20.1876,-11.0625
11:10:14.140,-19.8751,-11.125
11:10:14.172,-19.0001,-10.375
11:10:14.176,-18.8751,-10
11:10:14.180,-18.8751,-8.625
11:10:14.187,-18.7501,-8.5625
11:10:14.187,-18.3751,-8.9375
11:10:14.208,-17.1876,-8.625
11:10:14.211,-16.9376,-7.9375
11:10:14.217,-16.8751,-7.0625
11:10:14.225,-16.5001,-7.625
11:10:14.234,-16.7501,-5.375
11:10:14.243,-15.4376,-5.5625
11:10:14.254,-14.1876,-4.75
11:10:14.262,-12.6875,-4.5
11:10:14.275,-11.1875,-4.875
11:10:14.284,-9.5,-4.375
11:10:14.292,-8.875,-3.9375
11:10:14.304,-3.6875,-4.5625
11:10:14.316,7.9375,-2.75
11:10:14.324,19.9376,1.3125
11:10:14.332,27.7501,8.375
11:10:14.342,35.8126,10.8125
11:10:14.353,43.6252,17.3751
11:10:14.363,50.3752,22.5001
11:10:14.372,56.3127,28.6251
11:10:14.383,62.4377,34.4376
11:10:14.392,65.5003,37.8126
11:10:14.402,65.6253,40.6877
11:10:14.415,66.1253,43.3127
11:10:14.422,65.9378,42.6877
11:10:14.434,63.2502,43.5627
11:10:14.445,60.0627,42.1877
11:10:14.453,54.4377,40.5627
11:10:14.463,46.7502,39.8127
11:10:14.474,38.8751,38.2501
11:10:14.483,29.5001,37.0626
11:10:14.493,24.8126,32.0626
11:10:14.504,18.7501,23.6251
11:10:14.512,13.4376,17.0001
11:10:14.522,8.5,8.3125
11:10:14.532,3.375,0
11:10:14.544,-1.625,-10.0625
11:10:14.554,-6.9375,-18.8126
11:10:14.564,-11.0625,-26.8751
11:10:14.573,-15.5001,-36.0626
11:10:14.583,-20.0626,-45.3127
11:10:14.593,-25.5001,-50.9377
11:10:14.602,-30.8126,-56.4377
11:10:14.612,-40.5002,-57.9377
11:10:14.623,-50.0002,-61.9377
11:10:14.632,-50.7502,-60.0002
11:10:14.643,-47.6252,-58.7502
11:10:14.654,-43.6252,-54.8127
11:10:14.663,-36.1251,-48.9377
11:10:14.674,-29.5626,-45.1877
11:10:14.683,-25.3751,-43.1877
11:10:14.692,-23.6251,-39.5627
11:10:14.703,-23.4376,-35.7501
11:10:14.713,-22.4376,-31.8126
11:10:14.727,-20.9376,-27.0001
11:10:14.733,-19.8751,-23.2501
11:10:14.743,-18.0001,-19.4376
11:10:14.754,-16.3751,-14.5626
11:10:14.781,-14.7501,-12.25
11:10:14.784,-12.9375,-9.25
11:10:14.794,-12.125,-7.25
11:10:14.796,-10.5625,-6.875
11:10:14.823,-10.9375,-5.5625
11:10:14.825,-11.5625,-6.625
11:10:14.827,-12.3125,-8.4375
11:10:14.834,-14.9376,-9.5625
11:10:14.864,-17.0001,-11.125
11:10:14.866,-19.1251,-13.3126
11:10:14.897,-21.0626,-13.3126
11:10:14.930,-22.9376,-15.1251
11:10:14.932,-24.1251,-16.5001
11:10:14.932,-23.3751,-16.1251
11:10:14.935,-25.0626,-15.0001
11:10:14.971,-24.1251,-15.5626
11:10:14.974,-23.5626,-15.3751
11:10:14.988,-23.6876,-15.5626
11:10:14.988,-22.8126,-14.9376
11:10:14.992,-22.1251,-13.6251
11:10:15.005,-22.4376,-14.5626
11:10:15.012,-21.8126,-14.0001
11:10:15.014,-22.1251,-13.3126
11:10:15.024,-20.8751,-13
11:10:15.033,-19.5626,-11.4375
11:10:15.043,-19.1251,-10.5
11:10:15.053,-18.0001,-9.5625
11:10:15.062,-17.1876,-7.625
11:10:15.074,-16.3751,-7.6875
11:10:15.084,-16.6251,-5.75
11:10:15.092,-15.1251,-4.6875
11:10:15.106,-14.8126,-4.125
11:10:15.114,-13.6251,-2.875
11:10:15.122,-12.875,-1.9375
11:10:15.134,-12.6875,-0.875
11:10:15.142,-10.0625,3.375
11:10:15.155,-7.125,6.0625
11:10:15.165,-4.75,7.8125
11:10:15.173,-3.4375,8.75
11:10:15.185,-3.375,8.5
11:10:15.198,-2.4375,8.25
11:10:15.211,-0.375,8.3125
11:10:15.217,1.0625,9.9375
11:10:15.229,3.6875,9.4375
11:10:15.242,5.0625,10.4375
11:10:15.248,8.1875,10.8125
11:10:15.258,15.8126,11.0625
11:10:15.270,33.3126,12.3125
11:10:15.278,47.0627,15.0001
11:10:15.289,55.2502,21.8126
11:10:15.298,61.3127,29.1876
11:10:15.307,64.8752,31.0001
11:10:15.319,65.8753,34.1876
11:10:15.327,65.7503,32.9376
11:10:15.337,63.1877,33.0001
11:10:15.349,61.0627,30.3126
11:10:15.358,57.0627,29.2501
11:10:15.367,48.3127,26.8751
11:10:15.379,38.6251,24.6876
11:10:15.387,26.3751,23.7501
11:10:15.397,14.8126,21.5001
11:10:15.408,9.9375,16.5001
11:10:15.420,4.5625,12.125
11:10:15.427,0.8125,4.5
11:10:15.438,-5.125,-2.625
11:10:15.449,-10.4375,-12.125
11:10:15.458,-14.3126,-20.8126
11:10:15.469,-18.1251,-26.9376
11:10:15.481,-21.6251,-35.3751
11:10:15.488,-24.5001,-40.9377
11:10:15.522,-29.5626,-42.5627
11:10:15.524,-34.3751,-42.5002
11:10:15.526,-32.4376,-37.7501
11:10:15.529,-30.5626,-36.0001
11:10:15.562,-29.2501,-33.3751
11:10:15.565,-24.1251,-32.8751
11:10:15.566,-18.9376,-30.6251
11:10:15.568,-15.9376,-28.5001
11:10:15.601,-15.3126,-27.8751
11:10:15.603,-15.5626,-28.6876
11:10:15.605,-17.5626,-29.3126
11:10:15.611,-19.1876,-29.9376
11:10:15.638,-19.5626,-29.1876
11:10:15.640,-18.3751,-28.3751
11:10:15.642,-18.4376,-27.6876
11:10:15.669,-18.5001,-26.6876
11:10:15.671,-17.5626,-27.5001
11:10:15.673,-17.9376,-26.5001
11:10:15.680,-17.9376,-27.5626
11:10:15.690,-18.5001,-27.1876
11:10:15.697,-19.3751,-28.8126
11:10:15.709,-21.2501,-28.0626
11:10:15.718,-22.2501,-29.0001
11:10:15.729,-22.2501,-26.8126
11:10:15.738,-21.3126,-25.2501
11:10:15.749,-20.6251,-19.9376
11:10:15.757,-18.9376,-17.2501
11:10:15.769,-17.8126,-13.3751
11:10:15.777,-15.3126,-10.0625
11:10:15.789,-14.6251,-6.75
11:10:15.798,-13,-3.6875
11:10:15.812,-11.875,-0.4375
11:10:15.818,-11.3125,-0.1875
11:10:15.828,-11.125,1.5
11:10:15.837,-11.25,1.375
11:10:15.849,-11.125,2.625
11:10:15.857,-10.4375,2.75
11:10:15.867,-10.25,2.375
11:10:15.879,-10.625,1.875
11:10:15.887,-10.5625,2.5
11:10:15.900,-10.5625,1.5
11:10:15.907,-9.875,1.9375
11:10:15.917,-10.375,1.25
11:10:15.928,-10.625,1.25
11:10:15.938,-10.6875,1.625
11:10:15.948,-9.6875,1.375
11:10:15.960,-10.4375,2
11:10:15.969,-10.5,2.0625
11:10:15.979,-10.25,2.1875
11:10:15.988,-9.625,3.625
11:10:15.998,-8.0625,3.875
11:10:16.008,-6.0625,5.5625
11:10:16.019,-4.125,7.9375
11:10:16.028,-2.8125,8.5625
11:10:16.061,-0.875,10.4375
11:10:16.064,0.375,10.75
11:10:16.070,3.1875,12.5
11:10:16.077,5.8125,14.3126
11:10:16.080,6.8125,16.0626
11:10:16.089,8.375,17.1251
11:10:16.098,10.25,17.8126
11:10:16.115,13.2501,20.7501
11:10:16.123,21.9376,22.3751
11:10:16.133,35.3751,23.5001
11:10:16.144,48.0627,26.5001
11:10:16.154,59.4377,34.3751
11:10:16.165,66.0003,42.6252
11:10:16.172,68.4378,47.3127
11:10:16.184,67.5003,49.0002
11:10:16.192,64.6877,48.2502
11:10:16.202,62.7502,49.0002
11:10:16.214,59.6877,47.9377
11:10:16.223,54.3752,46.0002
11:10:16.234,46.4377,46.3752
11:10:16.246,35.6876,43.7502
11:10:16.278,27.8126,39.6877
11:10:16.280,21.8751,34.5001
11:10:16.282,14.1251,21.6251
11:10:16.286,9.625,14.4376
11:10:16.323,3.6875,4.5625
11:10:16.323,-0.9375,-4.5
11:10:16.325,-6.75,-10.875
11:10:16.368,-10.4375,-19.3126
11:10:16.400,-15.5626,-24.8751
11:10:16.400,-23.5001,-26.8751
11:10:16.400,-30.0001,-30.6876
11:10:16.401,-30.5626,-28.0626
11:10:16.422,-29.7501,-27.0626
11:10:16.427,-26.5626,-26.4376
11:10:16.438,-24.3126,-26.4376
11:10:16.438,-21.3126,-25.1251
11:10:16.441,-18.9376,-23.2501
11:10:16.454,-16.7501,-22.6876
11:10:16.458,-16.7501,-22.6251
11:10:16.462,-16.6876,-21.1251
11:10:16.472,-16.2501,-20.6876
11:10:16.484,-16.0001,-19.1876
11:10:16.492,-15.6876,-18.3751
11:10:16.504,-13.9376,-18.1876
11:10:16.513,-13.8126,-15.9376
11:10:16.524,-14.3126,-15.9376
11:10:16.533,-14.8751,-17.3751
11:10:16.544,-17.2501,-19.6876
11:10:16.553,-16.3751,-18.8126
11:10:16.564,-16.3126,-19.3126
11:10:16.572,-17.3126,-19.5001
11:10:16.583,-16.8751,-17.8126
11:10:16.593,-15.3751,-14.3751
11:10:16.606,-15.8751,-11.1875
11:10:16.614,-15.2501,-8.25
11:10:16.624,-13,-4.5
11:10:16.632,-12.125,-1.75
11:10:16.644,-11,0.3125
11:10:16.653,-9.8125,3.6875
11:10:16.665,-8.6875,6.0625
11:10:16.673,-8.1875,7.9375
11:10:16.684,-6.8125,9.375
11:10:16.693,-5.8125,10.6875
11:10:16.702,-4.9375,11.625
11:10:16.714,-5.25,11.5625
11:10:16.722,-5.5,11.4375
11:10:16.733,-6.5625,10.5625
11:10:16.744,-5.75,10.3125
11:10:16.754,-5.9375,9.5625
11:10:16.763,-5.5625,9.625
11:10:16.773,-5.1875,9.75
11:10:16.784,-5.0625,9.8125
11:10:16.794,-4.375,10.5
11:10:16.803,-4.5,10.375
11:10:16.813,-4.3125,10.5625
11:10:16.824,-5,8.875
11:10:16.833,-5.1875,8.4375
11:10:16.844,-5.6875,7.5625
11:10:16.854,-5.3125,7.0625
11:10:16.864,-5.125,7.3125
11:10:16.872,-3.1875,8.1875
11:10:16.884,-4.25,7.6875
11:10:16.893,-3.5,8.0625
11:10:16.902,-3.25,7.5
11:10:16.914,-3.1875,8.25
11:10:16.925,-3.5625,8.875
11:10:16.933,-3.375,8.4375
11:10:16.942,-3.1875,9.9375
11:10:16.953,-3.5,9.5
11:10:16.964,-3.5,10.0625
11:10:16.983,-3.5625,9.6875
11:10:16.985,-3.0625,10.5625
11:10:17.014,-2.5625,10.6875
11:10:17.015,-3.125,11.25
11:10:17.017,-3.9375,9.625
11:10:17.023,-3.4375,10.0625
11:10:17.064,-3.3125,9.4375
11:10:17.065,-3.25,10.625
11:10:17.068,-3.6875,9.9375
11:10:17.070,-3.375,8.6875
11:10:17.075,-3.6875,9.875
11:10:17.086,-2.8125,8.75
11:10:17.115,-3.375,7.8125
11:10:17.117,-3.875,7.625
11:10:17.120,-3.5,7.25
11:10:17.123,-4.0625,6
11:10:17.153,-3.6875,5.8125
11:10:17.154,-4.375,5.75
11:10:17.156,-4.0625,5.5
11:10:17.174,-3.75,4.625
11:10:17.177,-4.25,5.375
11:10:17.184,-4.25,4.875
11:10:17.194,-4.5,3.4375
11:10:17.203,-4.8125,4
11:10:17.213,-4.875,3.375
11:10:17.223,-5,3
11:10:17.234,-4.875,2.8125
11:10:17.243,-4.875,2.1875
11:10:17.253,-4.375,1.6875
11:10:17.263,-5.625,1.625
11:10:17.273,-4.75,1.1875
11:10:17.284,-5.0625,0.25
11:10:17.294,-6,0.625
11:10:17.304,-5.625,-0.625
11:10:17.314,-5.75,-0.3125
11:10:17.341,-5.3125,-0.4375
11:10:17.344,-5.5,-1.5
11:10:17.346,-5.1875,-0.3125
11:10:17.354,-5,-1.4375
11:10:17.363,-5.125,-0.75
11:10:17.374,-5.625,-2.5625
11:10:17.382,-5.5,-1.625
11:10:17.393,-5.375,-2.9375
11:10:17.402,-5.5,-2.6875
11:10:17.414,-5.875,-3.875
11:10:17.423,-5.8125,-3.25
11:10:17.434,-5.875,-4.25
11:10:17.442,-5.8125,-4
11:10:17.454,-5.125,-4.6875
11:10:17.463,-5.5,-3.875
11:10:17.474,-5.8125,-5.125
11:10:17.482,-5.5625,-4.8125
11:10:17.494,-5,-4.125
11:10:17.503,-5.4375,-5.25
11:10:17.513,-5.5625,-5.75
11:10:17.523,-5.625,-5.3125
11:10:17.533,-5.3125,-3.9375
11:10:17.544,-3.875,-3.375
11:10:17.554,-2.5,0.875
11:10:17.562,-0.625,3.4375
11:10:17.574,0.75,8.25
11:10:17.583,3.0625,11.125
11:10:17.594,4.625,16.5626
11:10:17.604,6.5,18.8751
11:10:17.613,7.4375,22.3751
11:10:17.622,8.5,24.4376
11:10:17.633,9.375,25.7501
11:10:17.643,9.75,26.1251
11:10:17.652,9.625,26.9376
11:10:17.663,9.6875,27.5001
11:10:17.683,9.3125,26.4376
11:10:17.713,8.625,25.3126
11:10:17.715,8.6875,24.5001
11:10:17.749,8,23.5001
11:10:17.786,7.875,23.1876
11:10:17.786,7.8125,22.3126
11:10:17.786,7.5625,23.0626
11:10:17.786,7.25,21.6251
11:10:17.789,7.5,21.2501
11:10:17.851,7.3125,22.6251
11:10:17.851,7.375,21.6876
11:10:17.851,7.375,20.7501
11:10:17.853,6.5,21.4376
11:10:17.855,6.75,20.7501
11:10:17.860,7.0625,19.6876
11:10:17.863,6.9375,20.3751
11:10:17.870,7.6875,19.7501
11:10:17.880,7.6875,19.3126
11:10:17.889,6.25,18.8126
11:10:17.899,6.1875,19.2501
11:10:17.909,5.875,19.4376
11:10:17.920,6,20.0001
11:10:17.927,6.3125,20.1251
11:10:17.937,7.6875,22.1876
11:10:17.948,8.0625,23.3751
11:10:17.958,8.25,23.3751
11:10:17.968,8.625,24.3126
11:10:17.978,7.5625,23.6251
11:10:17.988,8.4375,24.3126
11:10:17.997,8.4375,24.1876
11:10:18.009,8.0625,23.3751
11:10:18.018,8.3125,23.5626
11:10:18.030,7.875,21.7501
11:10:18.038,6.9375,22.1251
11:10:18.047,6.4375,21.0626
11:10:18.057,6.5625,20.0626
11:10:18.069,5.875,18.6876
11:10:18.079,6.4375,19.6251
11:10:18.088,5.4375,18.1251
11:10:18.098,5.3125,17.6251
11:10:18.109,4.8125,17.7501
11:10:18.117,4.75,16.6876
11:10:18.127,5.1875,15.3126
11:10:18.137,4.3125,15.3751
11:10:18.149,4,15.3126
11:10:18.159,4.5625,13.6876
11:10:18.167,3.4375,14.8751
11:10:18.180,4.25,13.1251
11:10:18.187,3.625,12
11:10:18.197,3.125,11.875
11:10:18.210,3.6875,12.25
11:10:18.219,2.4375,10.875
11:10:18.229,2.75,10.125
11:10:18.238,2.4375,11
11:10:18.249,2.8125,10.3125
11:10:18.257,2.5,10.25
11:10:18.269,1.6875,9.9375
11:10:18.278,2,8.75
11:10:18.287,2,7.6875
11:10:18.302,1.8125,7.9375
11:10:18.309,1.0625,7.5625
11:10:18.319,1.4375,7.5625
11:10:18.328,1.375,6.5
11:10:18.340,0.5,6.6875
11:10:18.348,1.3125,5.5
11:10:18.358,0.4375,4.4375
11:10:18.369,-0.0625,4.9375
11:10:18.378,0.5625,4.8125
11:10:18.389,0.5625,3.5625
11:10:18.399,-0.1875,3.25
11:10:18.407,-0.5,4
11:10:18.418,0.6875,2.625
11:10:18.427,-0.6875,2.3125
11:10:18.437,-0.5625,3.5
11:10:18.447,0.4375,2.75
11:10:18.457,-0.9375,0.875
11:10:18.468,-1.875,1.3125
11:10:18.477,-1,0.125
11:10:18.496,-1.4375,-0.875
11:10:18.498,-1.5625,-1.125
11:10:18.530,-0.9375,-1.125
11:10:18.533,-1.8125,-2
11:10:18.535,-2.5625,-2.875
11:10:18.539,-2.0625,-1.875
11:10:18.570,-2.5625,-3.875
11:10:18.573,-2.1875,-2.5
11:10:18.575,-1.125,-1.3125
11:10:18.579,-0.5625,1.625
11:10:18.589,1.875,5.25
11:10:18.624,3.5,9.25
11:10:18.626,5.875,13.4376
11:10:18.628,7.25,16.3126
11:10:18.631,8.25,21.6251
11:10:18.660,11.25,24.3126
11:10:18.662,11.875,27.4376
11:10:18.666,13.0625,29.3126
11:10:18.671,12.6875,29.9376
11:10:18.681,12.875,29.5001
11:10:18.688,12.4375,29.8751
11:10:18.697,12.25,29.0001
11:10:18.709,11.8125,28.6251
11:10:18.718,11.125,27.3751
11:10:18.727,10.75,26.3751
11:10:18.738,10.9375,26.6876
11:10:18.749,10.375,24.9376
11:10:18.757,10.5625,25.8751
11:10:18.769,10.1875,24.3126
11:10:18.779,9.8125,24.0626
11:10:18.788,9.5,25.1876
11:10:18.798,10.3125,23.7501
11:10:18.808,9.3125,23.5626
11:10:18.818,8.8125,23.0626
11:10:18.828,8.9375,22.3126
11:10:18.837,8.3125,21.5001
11:10:18.848,8.625,21.8126
11:10:18.859,8.125,20.9376
11:10:18.869,7.4375,21.4376
11:10:18.878,8.125,20.6876
11:10:18.890,8.1875,20.1251
11:10:18.897,7.375,20.8126
11:10:18.909,7.25,21.3751
11:10:18.918,8.375,20.9376
11:10:18.930,8.1875,20.8126
11:10:18.939,8.1875,22.1251
11:10:18.949,8.75,22.1876
11:10:18.959,9.125,23.3751
11:10:18.968,8.75,23.2501
11:10:18.978,8.8125,23.5626
11:10:18.988,8.625,24.3751
11:10:18.999,8.75,23.0626
11:10:19.008,8.125,22.5626
11:10:19.017,8.25,23.0001
11:10:19.028,8.4375,22.2501
11:10:19.038,8.25,21.7501
11:10:19.061,7.875,22.3126
11:10:19.062,8.0625,20.3751
11:10:19.079,7.125,19.6876
11:10:19.094,6.5,19.3126
11:10:19.095,6.625,19.1251
11:10:19.111,6.375,18.3751
11:10:19.128,5.6875,18.3126
11:10:19.141,5.9375,16.8751
11:10:19.143,5.375,15.5626
11:10:19.159,5.1875,16.2501
11:10:19.177,5.1875,15.1876
11:10:19.178,4.5625,14.3751
11:10:19.183,3.8125,14.3126
11:10:19.188,4.5,12.8125
11:10:19.189,3.5625,11.25
11:10:19.200,3.5,11.5
11:10:19.216,3.5,11.0625
11:10:19.219,2.9375,9.625
11:10:19.246,2.25,10.25
11:10:19.249,2.625,9.4375
11:10:19.251,2.875,8.1875
11:10:19.260,2.5,8.875
11:10:19.290,2.0625,8.125
11:10:19.292,2.4375,7.375
11:10:19.295,1.875,7.125
11:10:19.301,1.125,5.3125
11:10:19.308,0.625,6.375
11:10:19.337,1.25,5.5
11:10:19.340,0.9375,5.5
11:10:19.342,1,4.75
11:10:19.348,0.5625,3.875
11:10:19.382,0,4
11:10:19.383,-0.25,3.8125
11:10:19.385,0.375,2.75
11:10:19.389,-0.25,1.8125
11:10:19.399,-0.375,1.75
11:10:19.408,-0.125,1.875
11:10:19.417,-0.625,1.125
11:10:19.435,-1,0
11:10:19.437,-1.8125,-0.3125
11:10:19.449,-1.9375,-0.625
11:10:19.459,-1.4375,-0.9375
11:10:19.470,-2,-1.5625
11:10:19.479,-1.875,-1.8125
11:10:19.488,-1.4375,-2.25
11:10:19.499,-2.3125,-3.25
11:10:19.508,-2.5,-2.75
11:10:19.519,-2.875,-4
11:10:19.529,-2.875,-5.0625
11:10:19.538,-3.1875,-5
11:10:19.549,-4,-5.1875
11:10:19.560,-3.25,-6.25
11:10:19.568,-3.4375,-5.5
11:10:19.577,-2.8125,-5.625
11:10:19.590,-2.1875,-2.1875
11:10:19.597,-0.3125,0
11:10:19.608,1.375,3.8125
11:10:19.619,3.25,6.8125
11:10:19.628,4.375,10.125
11:10:19.637,6.25,14.8751
11:10:19.649,6.8125,16.6876
11:10:19.658,7.6875,20.1876
11:10:19.667,8.875,21.8126
11:10:19.679,9.75,23.6876
11:10:19.689,9.4375,24.8126
11:10:19.697,10.375,24.0001
11:10:19.708,9.1875,25.0626
11:10:19.718,9.75,23.6251
11:10:19.728,8.6875,23.8751
11:10:19.740,8.9375,22.0001
11:10:19.749,7.5,22.0626
11:10:19.757,8.375,20.5001
11:10:19.768,7.625,19.6876
11:10:19.778,7.3125,20.3751
11:10:19.787,6.875,19.0626
11:10:19.798,7.0625,18.0626
11:10:19.809,6.375,17.0626
11:10:19.820,6.125,18.6251
11:10:19.829,6.4375,17.3751
11:10:19.838,5.6875,16.5001
11:10:19.848,5.4375,16.8751
11:10:19.858,5.875,16.1251
11:10:19.867,5.1875,14.6251
11:10:19.902,5.375,15.0626
11:10:19.905,6.25,15.1876
11:10:19.906,5.25,15.2501
11:10:19.934,5.1875,15.5001
11:10:19.934,5.75,15.4376
11:10:19.938,5.5625,15.0001
11:10:19.943,5.9375,17.2501
11:10:19.948,7.3125,17.1876
11:10:19.980,6.625,17.0001
11:10:19.983,6.625,17.4376
11:10:19.983,6.9375,18.5001
11:10:19.988,6.9375,18.2501
11:10:20.022,6.6875,17.5626
11:10:20.022,6.375,19.0001
11:10:20.026,7.125,19.1251
11:10:20.031,6.6875,17.8751
11:10:20.056,5.75,17.6876
11:10:20.059,5.8125,18.0001
11:10:20.061,5.8125,16.4376
11:10:20.069,5.25,15.5001
11:10:20.077,5.1875,15.0001
11:10:20.089,5.125,14.5626
11:10:20.100,4.5625,13.5001
11:10:20.109,4.25,14.1251
11:10:20.117,3.875,12.375
11:10:20.128,3.5,11.4375
11:10:20.139,3.125,10.75
11:10:20.149,2.8125,10.375
11:10:20.158,2.9375,9.8125
11:10:20.174,3.125,9.375
11:10:20.185,2.875,8.375
11:10:20.194,1.75,8.1875
11:10:20.203,1.75,7.4375
11:10:20.212,1.625,6.5
11:10:20.222,0.25,5.375
11:10:20.234,0.125,5.6875
11:10:20.244,0.625,4.625
11:10:20.253,0.3125,3.4375
11:10:20.263,-0.1875,4.0625
11:10:20.274,0.5625,3.375
11:10:20.282,-0.75,1.75
11:10:20.293,-0.6875,1.9375
11:10:20.302,-0.1875,2.5
11:10:20.313,-0.5625,1.3125
11:10:20.322,-1.125,1.4375
11:10:20.334,-1.3125,-0.375
11:10:20.345,-1,0.5625
11:10:20.355,-1.5,-1.25
11:10:20.364,-1.8125,-0.9375
11:10:20.378,-1.8125,-1.8125
11:10:20.394,-2.0625,-2.625
11:10:20.396,-2.375,-4
11:10:20.412,-2.5,-3
11:10:20.419,-2.5625,-4.625
11:10:20.422,-3.125,-4.5625
11:10:20.441,-3.125,-4.375
11:10:20.443,-2.5625,-5.5625
11:10:20.460,-3.5625,-4.875
11:10:20.474,-2.5625,-5.5625
11:10:20.477,-2.5,-4
11:10:20.492,-1.25,-2.0625
11:10:20.494,-0.125,0.375
11:10:20.504,1.75,4.5
11:10:20.513,3.6875,7.5625
11:10:20.522,5.3125,11.1875
11:10:20.532,6.6875,15.3126
11:10:20.544,8,18.4376
11:10:20.559,9.625,21.1251
11:10:20.563,9.25,22.3126
11:10:20.574,9.375,24.0001
11:10:20.584,10.1875,23.6876
11:10:20.593,9.625,25.1251
11:10:20.604,9.75,23.9376
11:10:20.613,9.25,22.6876
11:10:20.641,8.3125,23.3126
11:10:20.642,8.3125,21.0626
11:10:20.645,8.25,21.8126
11:10:20.679,8.4375,20.6876
11:10:20.680,7.75,20.5001
11:10:20.682,7.5,20.4376
11:10:20.685,7.9375,19.1876
11:10:20.717,7.4375,18.5626
11:10:20.718,6.6875,18.6251
11:10:20.722,6.375,18.9376
11:10:20.751,6.375,17.8751
11:10:20.753,6.1875,16.3126
11:10:20.753,5.25,16.6251
11:10:20.760,5.5625,15.8751
11:10:20.765,5.4375,14.8126
11:10:20.794,5.25,14.6876
11:10:20.795,4.375,13.8126
11:10:20.798,4.375,14.8126
11:10:20.804,5.375,15.0001
11:10:20.814,5,13.8751
11:10:20.823,5.5625,14.7501
11:10:20.833,5.9375,15.4376
11:10:20.843,5.625,15.8751
11:10:20.853,5.625,17.8126
11:10:20.863,6.3125,16.6876
11:10:20.872,6.0625,16.5626
11:10:20.884,5.8125,18.1251
11:10:20.894,7.1875,17.1876
11:10:20.903,6.9375,17.3126
11:10:20.912,6.25,16.8126
11:10:20.925,6.25,16.3126
11:10:20.934,5.5,16.1876
11:10:20.942,5.4375,15.1876
11:10:20.953,5.1875,15.6251
11:10:20.963,5.0625,14.6251
11:10:20.972,4.6875,13.7501
11:10:20.983,4.1875,13.2501
11:10:20.994,3.9375,13.1251
11:10:21.005,3.9375,11.375
11:10:21.014,3.4375,11.1875
11:10:21.023,3.1875,10.875
11:10:21.033,2.75,9.1875
11:10:21.042,2.125,8.25
11:10:21.054,1.625,8.9375
11:10:21.064,2.1875,8
11:10:21.073,1.75,7.25
11:10:21.082,1.125,6.1875
11:10:21.094,0.3125,6.5625
11:10:21.104,1.0625,5.5625
11:10:21.113,0.625,4.1875
11:10:21.124,0.75,4.9375
11:10:21.134,1.25,3.4375
11:10:21.143,0.1875,2.375
11:10:21.153,0.25,1.9375
11:10:21.183,-0.25,2.375
11:10:21.185,-1.125,0.75
11:10:21.187,-1.25,1.125
11:10:21.194,-1.5625,0.875
11:10:21.206,-0.8125,-0.375
11:10:21.213,-1.0625,-1.125
11:10:21.224,-1.75,-0.5625
11:10:21.233,-1.375,-1.125
11:10:21.244,-1.8125,-2
11:10:21.254,-1.875,-2.3125
11:10:21.263,-1.9375,-2.9375
11:10:21.274,-2.6875,-4.125
11:10:21.284,-2.6875,-3.1875
11:10:21.294,-1.9375,-4.5
11:10:21.310,-3.1875,-5.375
11:10:21.313,-3.3125,-4.375
11:10:21.328,-3.5,-5.5
11:10:21.348,-3.9375,-6.9375
11:10:21.351,-3.375,-5.75
11:10:21.386,-3.875,-7.5
11:10:21.389,-3.875,-6.75
11:10:21.391,-4.4375,-9.0625
11:10:21.396,-5.0625,-8.75
11:10:21.403,-5.4375,-10.5625
11:10:21.408,-5.25,-9.5625
11:10:21.440,-6.1875,-11.5625
11:10:21.442,-6.0625,-11.4375
11:10:21.445,-6.3125,-12.375
11:10:21.450,-6.4375,-11.5625
11:10:21.480,-6.0625,-12.75
11:10:21.483,-6.125,-12.3125
11:10:21.486,-6.0625,-11.75
11:10:21.490,-4.5625,-9.5625
11:10:21.513,-2.75,-5
11:10:21.516,-0.6875,-1.6875
11:10:21.519,1.125,2.5
11:10:21.530,3.5,6.5
11:10:21.544,5,11.5625
11:10:21.551,6.25,13.3126
11:10:21.559,7.0625,16.7501
11:10:21.568,7.8125,17.5626
11:10:21.578,8.0625,19.8126
11:10:21.588,8.75,19.3126
11:10:21.598,8.0625,20.0001
11:10:21.609,7.6875,19.3126
11:10:21.617,7.375,18.5626
11:10:21.629,7.4375,18.4376
11:10:21.638,7.1875,18.5001
11:10:21.649,6.0625,17.2501
11:10:21.658,6.125,16.6251
11:10:21.668,6.5,15.8126
11:10:21.685,5.875,15.7501
11:10:21.687,5.3125,15.4376
11:10:21.703,6.1875,14.9376
11:10:21.718,5.1875,14.5626
11:10:21.724,5.375,15.1876
11:10:21.729,5.4375,13.8126
11:10:21.737,4.5625,13.1876
11:10:21.760,4.375,13.3751
11:10:21.762,4.4375,12.4375
11:10:21.778,4.25,13.6876
11:10:21.780,4.9375,12.625
11:10:21.787,3.9375,11.4375
11:10:21.799,4,11.8125
11:10:21.810,4.3125,13.0625
11:10:21.818,5.5625,12.875
11:10:21.829,4.25,13.6251
11:10:21.838,4.5,14.1251
11:10:21.847,5.0625,14.7501
11:10:21.859,5.5625,14.5626
11:10:21.869,5.4375,14.3126
11:10:21.877,5.625,14.6251
11:10:21.888,5.3125,16.8751
11:10:21.900,5.5625,16.0626
11:10:21.909,5.9375,15.6251
11:10:21.917,5.875,14.9376
11:10:21.928,5.375,15.8126
11:10:21.938,5,15.9376
11:10:21.948,5.125,14.5626
11:10:21.959,4.25,13.5626
11:10:21.969,4.625,13.6876
11:10:21.979,4.0625,12.5
11:10:21.990,3.6875,11.8125
11:10:21.997,3.125,11.8125
11:10:22.008,3.5625,10.25
11:10:22.018,3,9.75
11:10:22.027,2.8125,10.0625
11:10:22.039,2.9375,8.875
11:10:22.048,2,7.75
11:10:22.067,2,7
11:10:22.070,1.5,6.75
11:10:22.105,2.1875,6.625
11:10:22.106,1.125,5.1875
11:10:22.109,0.3125,5.75
11:10:22.111,0.5,3.5
11:10:22.142,0.0625,2.5
11:10:22.144,-0.25,3.5
11:10:22.146,-0.125,2.5
11:10:22.148,-0.625,2.1875
11:10:22.186,0.25,2
11:10:22.188,-0.9375,0.5
11:10:22.189,-1.625,2
11:10:22.215,-1.1875,0.25
11:10:22.216,-1.8125,-0.75
11:10:22.218,-2.0625,-0.625
11:10:22.226,-2,-0.9375
11:10:22.228,-2,-1.5625
11:10:22.246,-2.5625,-2.875
11:10:22.248,-3,-2.3125
11:10:22.260,-2.8125,-3.1875
11:10:22.267,-2.3125,-3.6875
11:10:22.279,-3,-4.5
11:10:22.288,-3.75,-4.75
11:10:22.297,-3.375,-4.75
11:10:22.308,-3.9375,-5.5
11:10:22.318,-4.0625,-5
11:10:22.329,-4.125,-6.0625
11:10:22.338,-4.5,-7.4375
11:10:22.350,-4.5,-6.5625
11:10:22.358,-4.5,-8.0625
11:10:22.373,-5.3125,-7.75
11:10:22.383,-5.1875,-9.625
11:10:22.392,-5.875,-8.9375
11:10:22.404,-6,-9.125
11:10:22.413,-6.1875,-9.9375
11:10:22.424,-6.6875,-10.875
11:10:22.434,-5.875,-12
11:10:22.464,-7.0625,-11.1875
11:10:22.466,-7,-12.1875
11:10:22.469,-6.875,-12.8125
11:10:22.474,-7.25,-13.5626
11:10:22.483,-7.9375,-13
11:10:22.495,-7.5,-14.2501
11:10:22.503,-7.875,-14.8751
11:10:22.512,-8.0625,-14.5001
11:10:22.524,-7.5,-14.5001
11:10:22.534,-6.9375,-12.625
11:10:22.543,-4.875,-7.5
11:10:22.553,-2.5625,-5.5
11:10:22.564,-1.1875,-1.0625
11:10:22.574,0.9375,3
11:10:22.583,2.0625,7
11:10:22.592,4,9.875
11:10:22.603,5.4375,13.1876
11:10:22.614,6.3125,14.8126
11:10:22.623,6.375,15.9376
11:10:22.634,6.875,17.7501
11:10:22.643,6.5625,18.2501
11:10:22.653,6.5,17.1876
11:10:22.663,5.8125,16.8126
11:10:22.673,6.25,15.5626
11:10:22.684,5.5,16.2501
11:10:22.693,5.1875,14.8126
11:10:22.706,4.8125,15.1251
11:10:22.714,4.625,14.6876
11:10:22.724,4.5,13.5001
11:10:22.734,4.125,13.125
11:10:22.744,4.0625,14.6251
11:10:22.754,4.3125,13
11:10:22.763,3.8125,14.6876
11:10:22.773,4.125,12.875
11:10:22.783,4.0625,11.9375
11:10:22.793,3.375,11.9375
11:10:22.834,3.6875,12.875
11:10:22.835,3.75,11.375
11:10:22.837,3.375,10
11:10:22.867,2.75,11.5
11:10:22.867,2.8125,11.25
11:10:22.869,3.6875,10.75
11:10:22.869,3.125,10.4375
11:10:22.874,3.5,12.625
11:10:22.901,3.625,13.7501
11:10:22.904,4.25,13.4376
11:10:22.906,5.125,13.0625
11:10:22.938,4.625,14.4376
11:10:22.939,4.125,14.8751
11:10:22.943,4.75,14.7501
11:10:22.947,5.25,15.2501
11:10:22.953,5.3125,15.3126
11:10:22.980,4.9375,15.0626
11:10:22.982,4.9375,15.1251
11:10:23.000,4.6875,14.1876
11:10:23.015,4.625,14.4376
11:10:23.016,3.9375,13.6876
11:10:23.020,4.125,12.25
11:10:23.024,3.125,11.5625
11:10:23.033,3.5,12.1875
11:10:23.056,3.5,11.0625
11:10:23.058,2.9375,11.375
11:10:23.074,2.4375,10.5
11:10:23.078,2.1875,9.0625
11:10:23.083,1.625,9.1875
11:10:23.093,1.75,8.5625
11:10:23.103,1.875,8.125
11:10:23.113,1.5,6.5
11:10:23.123,0.5,6.75
11:10:23.134,0.4375,5.5625
11:10:23.143,0.6875,4.75
11:10:23.154,0.1875,4.25
11:10:23.164,-0.125,4.25
11:10:23.174,-0.875,3
11:10:23.184,0.4375,3.5625
11:10:23.193,-0.625,2.1875
11:10:23.205,-1.125,3
11:10:23.212,-1.1875,2
11:10:23.224,-1.3125,0.9375
11:10:23.233,-1.5,0
11:10:23.243,-2.375,1.25
11:10:23.255,-1.8125,-1.25
11:10:23.264,-2.375,-1.8125
11:10:23.273,-1.9375,-0.8125
11:10:23.283,-2.6875,-2.625
11:10:23.294,-2.875,-3.0625
11:10:23.303,-2.9375,-1.5625
11:10:23.313,-2.5625,-2.375
11:10:23.324,-2.9375,-3.25
11:10:23.333,-2.9375,-3.1875
11:10:23.344,-3.3125,-4
11:10:23.354,-3.6875,-4.375
11:10:23.363,-4.1875,-4.75
11:10:23.373,-4.375,-5.9375
11:10:23.383,-4.6875,-7.25
11:10:23.394,-5.0625,-7.5625
11:10:23.404,-5.0625,-7.5625
11:10:23.413,-4.6875,-7.6875
11:10:23.424,-5.5,-8.0625
11:10:23.434,-5.8125,-9.125
11:10:23.444,-6.25,-9.5625
11:10:23.454,-6,-10
11:10:23.463,-6.6875,-11.3125
11:10:23.474,-6.75,-10.8125
11:10:23.482,-6.75,-11.0625
11:10:23.493,-6.125,-11.8125
11:10:23.504,-7.125,-10.375
11:10:23.513,-5.8125,-10.4375
11:10:23.522,-4.25,-7.1875
11:10:23.533,-3,-4.8125
11:10:23.544,-1.375,-1.125
11:10:23.557,0.3125,3
11:10:23.564,2.125,6.0625
11:10:23.597,3.1875,9.6875
11:10:23.600,5.3125,12.25
11:10:23.602,5.5,14.7501
11:10:23.605,7.1875,16.6876
11:10:23.643,6.5,17.1876
11:10:23.646,6.625,17.7501
11:10:23.647,6.5,17.5626
11:10:23.656,6.8125,17.2501
11:10:23.656,5.5625,17.0001
11:10:23.684,5.5625,16.4376
11:10:23.686,4.8125,15.7501
11:10:23.688,4.875,15.1251
11:10:23.694,4.375,15.3751
11:10:23.732,4.375,13.8126
11:10:23.734,3.6875,12.5625
11:10:23.736,3.75,12.625
11:10:23.750,3.5,12.6875
11:10:23.755,3.1875,11.25
11:10:23.756,2.9375,11.3125
11:10:23.766,3,10.875
11:10:23.773,2.3125,9.75
11:10:23.783,2.3125,10.5
11:10:23.794,1.875,9.8125
11:10:23.804,1.5625,8.625
11:10:23.813,2.375,8.375
11:10:23.824,1.375,8.375
11:10:23.835,1.25,9.0625
11:10:23.845,1.8125,9.625
11:10:23.854,2.5,9.75
11:10:23.864,2.25,11.25
11:10:23.874,3.125,11.5
11:10:23.884,3.625,11.125
11:10:23.894,3.625,12.125
11:10:23.904,3.6875,13.3751
11:10:23.914,3.6875,13.3751
11:10:23.923,3.625,12.25
11:10:23.933,3.5625,12.375
11:10:23.944,3.1875,13.3126
11:10:23.954,3.625,12.125
11:10:23.963,3.3125,11.8125
11:10:23.973,3.75,12.75
11:10:23.984,3.3125,10.9375
11:10:23.994,3.0625,10.9375
11:10:24.009,3,10.5
11:10:24.019,2.25,9.625
11:10:24.028,1.3125,9.625
11:10:24.038,1.5625,7.8125
11:10:24.050,0.4375,8.0625
11:10:24.059,0.5625,7.0625
11:10:24.069,0.5,5.3125
11:10:24.078,-0.5,5.5
11:10:24.088,0.125,4.875
11:10:24.098,-0.5,4.3125
11:10:24.108,-0.1875,4
11:10:24.119,-1,2.5625
11:10:24.129,-1.1875,3.125
11:10:24.138,-1.125,1.875
11:10:24.150,-1.125,1
11:10:24.158,-1.875,1.4375
11:10:24.168,-1.75,0.625
11:10:24.178,-2.625,-1.0625
11:10:24.194,-2.9375,0.375
11:10:24.203,-2.625,-1.3125
11:10:24.214,-2.875,-2.3125
11:10:24.223,-3.4375,-2.25
11:10:24.234,-3.5,-2.75
11:10:24.243,-2.875,-3.75
11:10:24.253,-3.75,-2.875
11:10:24.263,-3.4375,-3.5
11:10:24.274,-3.4375,-4.875
11:10:24.293,-3.875,-4.125
11:10:24.294,-4.8125,-6.3125
11:10:24.311,-4.4375,-5.625
11:10:24.315,-4.5625,-6.625
11:10:24.325,-4.9375,-6.5
11:10:24.334,-4.6875,-7.6875
11:10:24.373,-5.4375,-8.9375
11:10:24.374,-6.0625,-8.9375
11:10:24.376,-5.625,-9.125
11:10:24.379,-5.8125,-10
11:10:24.385,-6.3125,-9.875
11:10:24.419,-6.625,-11.4375
11:10:24.422,-6.9375,-10.5
11:10:24.424,-6.8125,-12.25
11:10:24.455,-6.9375,-12.125
11:10:24.456,-7.125,-12.4375
11:10:24.457,-7.0625,-13
11:10:24.460,-7.25,-12.8125
11:10:24.467,-6.375,-11.1875
11:10:24.494,-5.6875,-10.6875
11:10:24.494,-3.625,-6.0625
11:10:24.497,-1.8125,-3.75
11:10:24.522,-0.25,1.4375
11:10:24.523,0.875,4.6875
11:10:24.525,3,8.9375
11:10:24.534,4.75,12.25
11:10:24.543,5.3125,14.6251
11:10:24.554,6.125,15.8751
11:10:24.564,7.125,17.7501
11:10:24.573,7.1875,18.3751
11:10:24.584,6.625,18.7501
11:10:24.593,6.6875,18.6876
11:10:24.604,6.0625,18.4376
11:10:24.613,5.9375,17.8751
11:10:24.624,5.6875,17.3751
11:10:24.633,5.3125,17.3751
11:10:24.644,5.4375,16.1251
11:10:24.653,4.6875,16.0001
11:10:24.664,4.6875,15.2501
11:10:24.673,4.625,14.0626
11:10:24.685,4.5,15.5001
11:10:24.693,4.8125,15.1876
11:10:24.703,4.5625,15.3126
11:10:24.713,4.4375,14.9376
11:10:24.724,3.875,14.3751
11:10:24.734,3.75,13.3126
11:10:24.743,3.5,13.1876
11:10:24.754,2.75,13.1876
11:10:24.763,3.5,12.5625
11:10:24.774,3.5625,11.5
11:10:24.784,3.1875,12.8125
11:10:24.793,3.9375,12.6875
11:10:24.803,3.75,12.8125
11:10:24.813,3.375,15.0001
11:10:24.823,4.9375,14.6251
11:10:24.833,4.6875,13.8751
11:10:24.843,4.6875,16.3751
11:10:24.853,6,15.9376
11:10:24.863,4.9375,17.0001
11:10:24.874,5.3125,16.6251
11:10:24.883,5.625,15.9376
11:10:24.894,5.3125,16.8751
11:10:24.903,5.0625,16.7501
11:10:24.914,4.3125,15.1876
11:10:24.923,4.6875,15.8126
11:10:24.933,4.5,15.7501
11:10:24.943,3.8125,14.2501
11:10:24.953,3.6875,16.0626
11:10:24.964,4,13.1251
11:10:24.976,3.375,12.125
11:10:24.984,3.4375,13.0625
11:10:24.993,3.1875,11.375
11:10:25.021,2.75,10.6875
11:10:25.023,1.9375,11.125
11:10:25.026,2.1875,10.0625
11:10:25.061,1.625,8.75
11:10:25.063,1.375,8.875
11:10:25.065,0.8125,6.9375
11:10:25.068,1.5,7.5625
11:10:25.073,0.75,6.6875
11:10:25.106,-0.125,5.8125
11:10:25.109,-0.5625,5.9375
11:10:25.110,0.0625,4.5
11:10:25.113,-0.625,3.5
11:10:25.147,-1.125,3.4375
11:10:25.149,-1.25,3.6875
11:10:25.152,-1.0625,2.0625
11:10:25.153,-1.125,0.75
11:10:25.185,-1.8125,1.8125
11:10:25.187,-2.0625,0.375
11:10:25.191,-2.125,0.1875
11:10:25.195,-2.4375,0.3125
11:10:25.206,-2.3125,0.25
11:10:25.213,-1.9375,-1.1875
11:10:25.224,-2.6875,-2.125
11:10:25.233,-3.25,-1.125
11:10:25.243,-3,-2.4375
11:10:25.253,-3.25,-3.375
11:10:25.263,-3.875,-3.125
11:10:25.274,-3.25,-4.125
11:10:25.283,-4.625,-4.4375
11:10:25.293,-4.75,-4.625
11:10:25.304,-3.75,-5.875
11:10:25.314,-4.5625,-6.5
11:10:25.324,-4.3125,-6.0625
11:10:25.334,-4.4375,-6.875
11:10:25.344,-4.75,-6.75
11:10:25.353,-5,-7.9375
11:10:25.364,-5.3125,-7.6875
11:10:25.374,-5.6875,-8.125
11:10:25.383,-5.75,-9.25
11:10:25.393,-6.375,-9.3125
11:10:25.403,-5.9375,-10.4375
11:10:25.414,-7.1875,-10.5
11:10:25.424,-6.75,-12.375
11:10:25.433,-7.25,-11.3125
11:10:25.445,-6.8125,-12.5
11:10:25.454,-6.25,-12.8125
11:10:25.463,-7.3125,-12.875
11:10:25.474,-7,-12.375
11:10:25.484,-5.8125,-11.375
11:10:25.493,-5.5625,-8.625
11:10:25.503,-3.5,-6.625
11:10:25.513,-1.8125,-1.25
11:10:25.524,-0.0625,2
11:10:25.533,2.5,6.375
11:10:25.543,3.1875,10.25
11:10:25.553,5.6875,13.7501
11:10:25.565,6.875,16.5626
11:10:25.573,8.5625,19.5626
11:10:25.592,7.5,20.8751
11:10:25.609,9.0625,20.8126
11:10:25.609,8.1875,20.8751
11:10:25.613,7.6875,21.6876
11:10:25.624,7.625,21.1876
11:10:25.633,7.5625,20.5626
11:10:25.651,6.875,20.0626
11:10:25.666,7.375,19.5001
11:10:25.668,6.9375,18.3751
11:10:25.674,6.1875,19.3751
11:10:25.684,6.0625,17.7501
11:10:25.693,5.5625,17.9376
11:10:25.704,5.625,18.6251
11:10:25.714,6.0625,18.1876
11:10:25.724,6.125,18.0626
11:10:25.734,6.3125,18.1251
11:10:25.744,5.875,17.6876
11:10:25.753,5.375,16.6876
11:10:25.766,5.0625,17.5001
11:10:25.798,5.4375,17.2501
11:10:25.800,5.125,16.8751
11:10:25.803,5.1875,16.8126
11:10:25.831,5.3125,16.7501
11:10:25.831,5.25,16.6876
11:10:25.832,5.1875,16.5001
11:10:25.839,5.0625,18.7501
11:10:25.847,6,18.0626
11:10:25.886,6.1875,18.1876
11:10:25.889,6.6875,19.7501
11:10:25.891,7,20.1876
11:10:25.895,7.3125,19.8126
11:10:25.928,6.8125,20.5001
11:10:25.930,7.0625,21.6876
11:10:25.932,6.9375,20.5626
11:10:25.940,6.75,20.5626
11:10:25.940,6.0625,20.2501
11:10:25.950,6.5,19.0001
11:10:25.954,5.8125,18.0001
11:10:25.968,6.0625,18.2501
11:10:25.974,5.625,19.1876
11:10:25.983,5.9375,18.1876
11:10:25.995,5.5625,17.1251
11:10:26.005,4.9375,16.5001
11:10:26.016,4.875,16.0001
11:10:26.025,3.75,14.1876
11:10:26.036,2.875,13.8751
11:10:26.043,2.9375,13.9376
11:10:26.055,3.0625,12.625
11:10:26.065,2.4375,12.0625
11:10:26.073,1.625,11.375
11:10:26.083,1.6875,10.6875
11:10:26.094,0.6875,9.625
11:10:26.105,0.3125,9.3125
11:10:26.113,0.3125,8.4375
11:10:26.123,0.6875,7.9375
11:10:26.133,0.1875,8.375
11:10:26.144,0.1875,6.1875
11:10:26.154,-2.25,3.875
11:10:26.163,-3.625,3.6875
11:10:26.174,-4.4375,1.5625
11:10:26.183,-6.125,1.1875
11:10:26.193,-5.75,1.125
11:10:26.204,-4.25,0.8125
11:10:26.213,-2.1875,1.9375
11:10:26.223,1.1875,3.8125
11:10:26.233,4.5625,5.1875
11:10:26.243,7.8125,7.6875
11:10:26.255,10.4375,7.3125
11:10:26.263,12.5,7.4375
11:10:26.273,13.8126,8.5
11:10:26.302,17.2501,10.625
11:10:26.304,18.9376,10.1875
11:10:26.312,20.3751,10.9375
11:10:26.313,21.3751,12.1875
11:10:26.323,22.3126,10.1875
11:10:26.333,21.7501,8.75
11:10:26.344,20.9376,7.0625
11:10:26.354,17.6876,4.1875
11:10:26.363,17.0626,3.75
11:10:26.374,15.9376,0.625
11:10:26.383,14.8126,0.9375
11:10:26.393,14.6876,-0.375
11:10:26.404,14.9376,-1.3125
11:10:26.413,15.5626,-2.4375
11:10:26.424,16.1251,-2.25
11:10:26.433,19.0626,-1.375
11:10:26.444,19.8126,-1.4375
11:10:26.453,20.3126,-1.8125
11:10:26.463,19.6876,-1.9375
11:10:26.474,18.3126,-4.3125
11:10:26.513,15.9376,-7
11:10:26.515,13.6876,-8
11:10:26.518,11.4375,-10.9375
11:10:26.522,9.875,-12.8125
11:10:26.526,8.125,-14.0626
11:10:26.556,4.75,-16.0001
11:10:26.563,3.375,-18.1251
11:10:26.565,0.5,-20.6876
11:10:26.593,-1.375,-21.0626
11:10:26.595,-4.375,-23.3751
11:10:26.596,-6.4375,-23.5001
11:10:26.598,-7.3125,-22.7501
11:10:26.604,-8.1875,-21.4376
11:10:26.638,-9.375,-19.6251
11:10:26.640,-8.625,-17.0626
11:10:26.642,-8.75,-15.7501
11:10:26.644,-8.1875,-11.375
11:10:26.672,-8.5625,-10.625
11:10:26.674,-8.3125,-8.8125
11:10:26.675,-8.5625,-6.875
11:10:26.683,-7.5625,-7.0625
11:10:26.693,-7.875,-6.875
11:10:26.704,-8,-5.1875
11:10:26.718,-8.75,-7
11:10:26.724,-9.75,-8.875
11:10:26.733,-11,-9.75
11:10:26.743,-11.9375,-11.625
11:10:26.754,-11.5625,-11.6875
11:10:26.763,-13.0625,-13.0625
11:10:26.773,-10.8125,-12.25
11:10:26.784,-10.1875,-13
11:10:26.795,-10.5,-11.9375
11:10:26.803,-10.125,-13.6251
11:10:26.813,-10.0625,-13.3126
11:10:26.823,-9.3125,-13.8751
11:10:26.833,-9.5625,-14.3751
11:10:26.845,-9.6875,-13.8126
11:10:26.854,-10.75,-12.625
11:10:26.864,-12.25,-14.9376
11:10:26.885,-13.0625,-13.5001
11:10:26.892,-12.5,-13.3126
11:10:26.907,-12.1875,-13.3751
11:10:26.909,-12,-12.625
11:10:26.914,-12,-13.1251
11:10:26.923,-11.75,-10.5
11:10:26.945,-11.5,-11.0625
11:10:26.947,-9.375,-7.5625
11:10:26.962,-7.5625,-6.3125
11:10:26.968,-4.5625,-3.25
11:10:26.973,-0.5625,-1
11:10:26.986,2.9375,2
11:10:26.993,6.3125,3.9375
11:10:27.004,9,5.6875
11:10:27.014,10.9375,7
11:10:27.025,13.3751,8.6875
11:10:27.033,14.5626,8.75
11:10:27.045,15.3751,9.875
11:10:27.054,16.1876,10.0625
11:10:27.064,15.8126,9.5625
11:10:27.074,14.2501,8.5625
11:10:27.083,12.8125,6.4375
11:10:27.100,11.125,4.8125
11:10:27.105,9.8125,4.25
11:10:27.115,8.25,1.8125
11:10:27.125,7.4375,1
11:10:27.134,8.125,0.6875
11:10:27.145,8.8125,1.5
11:10:27.154,11.6875,2.4375
11:10:27.164,15.6251,3
11:10:27.174,18.4376,6.75
11:10:27.183,21.4376,6.375
11:10:27.194,23.2501,7.4375
11:10:27.206,22.6876,7.3125
11:10:27.213,22.3126,7.0625
11:10:27.250,22.1876,5.75
11:10:27.253,21.5001,4.4375
11:10:27.253,20.1251,2.8125
11:10:27.256,19.1251,2.6875
11:10:27.291,18.2501,-0.6875
11:10:27.294,15.6876,-2.8125
11:10:27.297,13.5626,-4.6875
11:10:27.302,11.5,-7.25
11:10:27.305,8.125,-9.625
11:10:27.336,5.125,-11.5625
11:10:27.339,1.0625,-13.9376
11:10:27.340,-2.3125,-14.8126
11:10:27.346,-5.1875,-18.0001
11:10:27.378,-6.8125,-20.8751
11:10:27.380,-9.375,-21.5001
11:10:27.382,-11.0625,-23.2501
11:10:27.385,-13.0625,-24.8751
11:10:27.394,-14.5626,-26.2501
11:10:27.403,-16.8751,-28.6251
11:10:27.413,-18.5626,-29.3751
11:10:27.426,-20.3126,-30.5001
11:10:27.435,-21.0001,-32.7501
11:10:27.445,-21.9376,-33.0001
11:10:27.453,-23.3126,-34.4376
11:10:27.463,-25.0626,-37.0001
11:10:27.474,-27.0001,-38.1251
11:10:27.486,-27.4376,-39.7502
11:10:27.494,-27.4376,-39.6877
11:10:27.503,-28.5001,-41.1252
11:10:27.514,-28.0001,-41.4377
11:10:27.524,-26.9376,-40.6252
11:10:27.533,-26.1251,-39.7502
11:10:27.544,-26.1876,-40.4377
11:10:27.553,-23.7501,-38.8126
11:10:27.585,-22.8126,-39.1876
11:10:27.586,-21.6876,-38.0001
11:10:27.589,-20.6251,-35.7501
11:10:27.596,-19.0001,-33.1251
11:10:27.605,-16.5626,-28.1876
11:10:27.614,-13.9376,-23.3126
11:10:27.623,-12,-19.2501
11:10:27.633,-11.5,-14.3751
11:10:27.643,-10.1875,-11.3125
11:10:27.654,-8.6875,-6.3125
11:10:27.666,-7.3125,-2.9375
11:10:27.674,-6.625,-0.3125
11:10:27.684,-5.4375,1.875
11:10:27.694,-5.25,3.25
11:10:27.703,-4.3125,5.0625
11:10:27.714,-3.6875,6.1875
11:10:27.723,-3.0625,6.9375
11:10:27.735,-2.875,8.1875
11:10:27.743,-0.75,9.9375
11:10:27.753,1.9375,11.0625
11:10:27.763,5.75,13.8126
11:10:27.774,9.125,14.5626
11:10:27.784,12.1875,17.1251
11:10:27.793,13.8751,17.3126
11:10:27.804,15.3751,17.8751
11:10:27.814,17.1251,19.0001
11:10:27.823,17.0001,19.6876
11:10:27.835,17.5626,19.5001
11:10:27.843,17.3751,18.9376
11:10:27.857,17.1876,19.0001
11:10:27.863,17.5626,18.0001
11:10:27.873,15.9376,17.6876
11:10:27.884,14.7501,16.1876
11:10:27.893,12.5,14.3126
11:10:27.904,10.8125,14.5001
11:10:27.913,10.1875,13.3751
11:10:27.923,10.625,14.7501
11:10:27.934,13.1876,16.3126
11:10:27.967,15.1251,17.0001
11:10:27.970,18.0001,19.9376
11:10:27.972,24.4376,24.2501
11:10:27.974,30.3126,27.9376
11:10:28.005,32.8126,29.1251
11:10:28.007,33.5001,31.0626
11:10:28.017,33.8126,31.7501
11:10:28.017,34.1876,31.3751
11:10:28.050,34.0626,30.7501
11:10:28.053,34.6876,31.7501
11:10:28.055,35.4376,31.4376
11:10:28.060,35.1876,30.2501
11:10:28.063,33.3751,28.6876
11:10:28.095,32.1251,27.6876
11:10:28.099,29.5626,24.0626
11:10:28.100,25.9376,20.9376
11:10:28.104,22.4376,17.6251
11:10:28.126,18.6876,14.9376
11:10:28.128,15.6876,11.875
11:10:28.136,12.625,8.9375
11:10:28.143,9.375,6.0625
11:10:28.153,5.8125,3.5
11:10:28.163,3.5,2.125
11:10:28.186,0.875,-0.5625
11:10:28.188,-2.3125,-2.6875
11:10:28.203,-4.875,-3.6875
11:10:28.212,-5.9375,-5.8125
11:10:28.218,-6.875,-6.9375
11:10:28.241,-7.9375,-7.625
11:10:28.243,-9.5625,-9.25
11:10:28.261,-10.5625,-11.6875
11:10:28.263,-11.5,-12.4375
11:10:28.276,-12.5,-14.0001
11:10:28.279,-14.0626,-14.1876
11:10:28.291,-14.6251,-16.1876
11:10:28.299,-16.8751,-19.1876
11:10:28.309,-18.5626,-21.2501
11:10:28.318,-19.8751,-20.8126
11:10:28.329,-19.8126,-22.1251
11:10:28.338,-18.1876,-23.1876
11:10:28.349,-18.4376,-23.4376
11:10:28.358,-17.8751,-23.8126
11:10:28.368,-16.6251,-23.4376
11:10:28.380,-16.5626,-24.1251
11:10:28.388,-15.8126,-23.7501
11:10:28.398,-14.3751,-23.9376
11:10:28.408,-14.4376,-23.1251
11:10:28.420,-14.7501,-24.1251
11:10:28.429,-16.1251,-24.8751
11:10:28.439,-16.7501,-24.5626
11:10:28.448,-17.5001,-25.0626
11:10:28.460,-17.2501,-23.8751
11:10:28.470,-17.6876,-23.5001
11:10:28.478,-17.5001,-23.6876
11:10:28.489,-17.4376,-23.9376
11:10:28.498,-16.6876,-24.1251
11:10:28.509,-17.6876,-23.4376
11:10:28.518,-17.3126,-23.1876
11:10:28.529,-16.0001,-23.3126
11:10:28.538,-13.7501,-21.5001
11:10:28.549,-10.8125,-20.7501
11:10:28.560,-7.625,-19.0001
11:10:28.568,-4.4375,-17.2501
11:10:28.578,-1.75,-15.1251
11:10:28.589,0.375,-13.7501
11:10:28.599,2.4375,-10.875
11:10:28.608,4.5625,-7.875
11:10:28.619,5.9375,-4.1875
11:10:28.628,7.25,-0.5
11:10:28.642,8.5625,4.25
11:10:28.677,9.8125,6.6875
11:10:28.679,10.25,9.9375
11:10:28.681,11.125,12.0625
11:10:28.683,11.375,14.8126
11:10:28.691,11.3125,16.8751
11:10:28.717,11.25,17.8751
11:10:28.721,11.375,17.8126
11:10:28.725,11.5,18.1251
11:10:28.729,12.875,18.7501
11:10:28.761,15.1251,20.3751
11:10:28.763,19.3126,21.5626
11:10:28.765,24.1876,23.7501
11:10:28.807,28.2501,27.4376
11:10:28.808,30.2501,27.5626
11:10:28.811,30.5001,28.0001
11:10:28.817,30.4376,27.8751
11:10:28.819,30.6251,27.0626
11:10:28.819,30.0626,26.3751
11:10:28.829,30.1251,26.3126
11:10:28.862,30.5001,26.2501
11:10:28.864,29.2501,23.9376
11:10:28.866,27.4376,22.1251
11:10:28.870,26.5626,21.1251
11:10:28.879,25.1251,18.8126
11:10:28.890,23.1876,16.4376
11:10:28.899,19.1251,13.5626
11:10:28.909,15.3751,11.1875
11:10:28.920,12.375,10.125
11:10:28.928,10.0625,8.5625
11:10:28.938,7.75,6.125
11:10:28.949,5.5625,5.0625
11:10:28.958,3.6875,5.6875
11:10:28.969,2.375,5.1875
11:10:28.984,0.75,4.1875
11:10:28.988,-0.9375,3.8125
11:10:28.999,-1.875,4.25
11:10:29.010,-1.875,3.5625
11:10:29.018,-2.5,3.0625
11:10:29.028,-4.4375,2.875
11:10:29.038,-5.625,1.8125
11:10:29.049,-6.625,0.3125
11:10:29.058,-7.3125,-0.375
11:10:29.070,-8.4375,-1.3125
11:10:29.078,-10.25,-2.5625
11:10:29.088,-11.375,-4.3125
11:10:29.101,-10.5625,-5.375
11:10:29.109,-11.875,-6.75
11:10:29.119,-11.625,-6.8125
11:10:29.128,-10.6875,-6.25
11:10:29.138,-10.75,-6.875
11:10:29.149,-8.3125,-7
11:10:29.158,-8.5625,-5.9375
11:10:29.169,-9.0625,-8.5625
11:10:29.178,-8.875,-9.8125
11:10:29.190,-8.625,-9.6875
11:10:29.200,-8.875,-9.6875
11:10:29.209,-10.5625,-11.25
11:10:29.218,-11.1875,-11.1875
11:10:29.228,-11.625,-12.9375
11:10:29.238,-11.875,-11.6875
11:10:29.248,-11.875,-13
11:10:29.258,-11.875,-13.3751
11:10:29.268,-12,-12.3125
11:10:29.280,-12.1875,-12.625
11:10:29.289,-11.5625,-11.75
11:10:29.299,-11.75,-12.1875
11:10:29.308,-11.375,-10.875
11:10:29.318,-10.5625,-10.4375
11:10:29.328,-10.1875,-9.75
11:10:29.338,-9.625,-9.0625
11:10:29.348,-9.1875,-8.4375
11:10:29.362,-8.6875,-8.4375
11:10:29.371,-7,-7
11:10:29.379,-4.3125,-6
11:10:29.389,-2.4375,-5.125
11:10:29.399,0.0625,-3.6875
11:10:29.409,1.9375,-2.875
11:10:29.418,4,-2.0625
11:10:29.449,4.75,-1.75
11:10:29.451,6,-1.9375
11:10:29.454,6.1875,-2.3125
11:10:29.461,5.875,-2.8125
11:10:29.488,5.125,-3
11:10:29.557,3.75,-4.625
11:10:29.557,2.5625,-5.3125
11:10:29.570,1.1875,-6.125
11:10:29.607,-0.4375,-8.75
11:10:29.608,-2.1875,-9.1875
11:10:29.608,-2.1875,-8.6875
11:10:29.609,-1.625,-8.9375
11:10:29.623,0,-6.125
11:10:29.626,1.75,-4.8125
11:10:29.632,5.3125,1.125
11:10:29.632,10.0625,4.75
11:10:29.638,14.8126,10.8125
11:10:29.654,18.6876,15.6876
11:10:29.658,21.8126,18.6876
11:10:29.666,22.9376,22.3126
11:10:29.673,23.3751,24.1251
11:10:29.684,24.7501,25.4376
11:10:29.696,25.3751,27.0626
11:10:29.705,25.9376,27.0001
11:10:29.713,25.8126,27.6251
11:10:29.723,25.5001,28.6876
11:10:29.739,25.0626,26.5626
11:10:29.745,17.1251,19.3751
11:10:29.754,14.6251,17.1251
11:10:29.764,12.6875,14.3751
11:10:29.775,9.9375,11.6875
11:10:29.783,7.8125,9.4375
11:10:29.793,4.8125,8.25
11:10:29.803,2.75,4.9375
11:10:29.813,0.875,4.75
11:10:29.823,-0.4375,3.5625
11:10:29.833,-1.1875,2.3125
11:10:29.843,-3,0.4375
11:10:29.853,-4.4375,0.6875
11:10:29.865,-4.9375,-0.4375
11:10:29.875,-6.375,-1.25
11:10:29.883,-7.3125,-0.625
11:10:29.893,-6.4375,-1.5
11:10:29.905,-7.0625,-1.75
11:10:29.914,-7.25,-0.875
11:10:29.923,-6.5,-0.375
11:10:29.933,-7.3125,-0.75
11:10:29.943,-7.25,-1.1875
11:10:29.954,-6.9375,0
11:10:29.963,-5.75,-0.3125
11:10:29.973,-6.9375,-0.3125
11:10:29.983,-4.3125,0.6875
11:10:29.996,-4.75,0.0625
11:10:30.003,-5.375,-1.5625
11:10:30.014,-4.8125,-0.3125
11:10:30.023,-4.5625,-1.375
11:10:30.034,-4.125,-1.375
11:10:30.043,-3.75,-1.6875
11:10:30.053,-4.875,-2.4375
11:10:30.063,-5.4375,-2.4375
11:10:30.073,-6.1875,-3.75
11:10:30.083,-6.8125,-2.8125
11:10:30.093,-8.0625,-4.125
11:10:30.107,-9.5625,-4.75
11:10:30.114,-9.9375,-5.9375
11:10:30.141,-10.5,-6.5625
11:10:30.144,-10.125,-5.5625
11:10:30.146,-8.4375,-5.5
11:10:30.176,-5.9375,-2.375
11:10:30.181,-3.3125,-2.0625
11:10:30.184,-0.1875,-0.375
11:10:30.186,1.875,0.3125
11:10:30.215,3.25,1.375
11:10:30.217,5.3125,2.3125
11:10:30.220,6.625,2.1875
11:10:30.227,7.25,2.25
11:10:30.236,8.5,4.375
11:10:30.273,9.3125,2.5
11:10:30.279,9.625,2.9375
11:10:30.279,9.1875,2.625
11:10:30.281,8,2.125
11:10:30.302,7,1.3125
11:10:30.310,4.875,-0.8125
11:10:30.313,4.625,-1.375
11:10:30.316,3.375,-1.625
11:10:30.326,4.125,-1.4375
11:10:30.333,4.3125,-1.4375
11:10:30.344,5.75,-0.625
11:10:30.353,9.875,-0.0625
11:10:30.363,14.0626,1.3125
11:10:30.374,17.5001,4
11:10:30.384,19.4376,4.25
11:10:30.393,18.8126,3.25
11:10:30.405,17.7501,2.0625
11:10:30.414,16.1876,1.3125
11:10:30.425,15.7501,-0.5625
11:10:30.433,14.0626,-2.25
11:10:30.445,13.4376,-3.625
11:10:30.453,11.9375,-4.1875
11:10:30.464,11.375,-5.625
11:10:30.474,9.0625,-6.75
11:10:30.489,7.75,-6.0625
11:10:30.493,6.625,-7.125
11:10:30.503,4.375,-6.6875
11:10:30.513,4.375,-3.625
11:10:30.526,3.375,-2.5625
11:10:30.533,2.375,-0.375
11:10:30.543,2.1875,2
11:10:30.555,2.8125,4.9375
11:10:30.563,2.6875,6.3125
11:10:30.573,2.0625,7.25
11:10:30.583,1.5,10
11:10:30.594,1.125,9.5625
11:10:30.603,0.4375,9.625
11:10:30.613,-0.25,9.9375
11:10:30.623,-1.25,7.9375
11:10:30.633,-3.25,6.6875
11:10:30.643,-4.875,6.5625
11:10:30.653,-4.625,5.5
11:10:30.663,-5.875,3.375
11:10:30.673,-7.125,2.5
11:10:30.683,-7.75,2.1875
11:10:30.696,-8.375,-0.125
11:10:30.703,-7.9375,-0.75
11:10:30.714,-7.75,0.0625
11:10:30.723,-7.1875,-0.5
11:10:30.733,-4.4375,0.4375
11:10:30.743,-5.375,-1.25
11:10:30.757,-5.125,-0.125
11:10:30.764,-5.4375,-1.875
11:10:30.774,-4.9375,-1.25
11:10:30.783,-3.75,-0.25
11:10:30.793,-3.625,0.125
11:10:30.804,-2.875,0.625
11:10:30.813,-3,1.375
11:10:30.837,-2.9375,3
11:10:30.841,-1.8125,3.8125
11:10:30.845,-1.9375,4.5625
11:10:30.876,-1.875,6.5625
11:10:30.878,-1.25,6
11:10:30.941,-1.375,7.6875
11:10:30.946,-1.25,7.4375
11:10:30.948,-1.375,8.0625
11:10:30.948,-0.375,8.8125
11:10:30.948,-0.0625,9.3125
11:10:30.949,-0.25,9.625
11:10:31.013,0.4375,11.1875
11:10:31.025,0.25,11.125
11:10:31.025,0.5,11.625
11:10:31.025,0.5625,10.5
11:10:31.026,0.4375,10.625
11:10:31.041,0.75,10.5625
11:10:31.043,1.75,11
11:10:31.051,2.25,11.625
11:10:31.058,3.1875,12.0625
11:10:31.068,3.5625,10.375
11:10:31.079,4.5,11.0625
11:10:31.089,5.1875,11.6875
11:10:31.098,5.4375,10.75
11:10:31.108,5.0625,10.5
11:10:31.118,4.8125,10.4375
11:10:31.129,4.625,10.5
11:10:31.139,4.375,9.5625
11:10:31.150,4.1875,7.75
11:10:31.159,4,7.125
11:10:31.170,2.9375,6.125
11:10:31.179,3.0625,3
11:10:31.190,2.4375,2.1875
11:10:31.200,2.25,1.25
11:10:31.210,1.4375,0.625
11:10:31.220,1.375,0.1875
11:10:31.228,1.125,-0.8125
11:10:31.238,0.8125,-1.125
11:10:31.248,1.375,-1.4375
11:10:31.260,-0.375,-2.5
11:10:31.268,-0.6875,-3.1875
11:10:31.278,-1.4375,-4.1875
11:10:31.288,-1.875,-4.9375
11:10:31.298,-2.75,-6.1875
11:10:31.308,-2.8125,-7.875
11:10:31.318,-3.875,-9.5625
11:10:31.330,-4.375,-9.125
11:10:31.339,-5.125,-9.625
11:10:31.350,-6.25,-12.375
11:10:31.360,-6.75,-13.6251
11:10:31.369,-7.75,-12.8125
11:10:31.379,-7.5625,-13.1876
11:10:31.396,-8.1875,-14.2501
11:10:31.421,-8.375,-14.3126
11:10:31.423,-7.9375,-14.4376
11:10:31.425,-9.6875,-15.0626
11:10:31.431,-10.25,-16.2501
11:10:31.440,-11.5,-16.9376
11:10:31.448,-10.75,-15.9376
11:10:31.458,-10.9375,-16.3126
11:10:31.468,-10.25,-15.1876
11:10:31.478,-10.375,-14.4376
11:10:31.489,-9,-12.5
11:10:31.498,-7.6875,-10.0625
11:10:31.508,-6.125,-7.125
11:10:31.518,-5.625,-3.4375
11:10:31.530,-4.1875,-0.125
11:10:31.557,-2.0625,4.375
11:10:31.560,1.0625,9.375
11:10:31.562,3.625,13.1251
11:10:31.568,5.625,18.5626
11:10:31.593,8.375,21.6251
11:10:31.596,9.75,23.4376
11:10:31.598,10.3125,25.5626
11:10:31.627,11.6875,26.9376
11:10:31.629,11.8125,27.1876
11:10:31.632,12,27.1876
11:10:31.639,11.25,27.6251
11:10:31.671,11.875,27.6251
11:10:31.674,11.9375,27.6251
11:10:31.676,11.5625,27.1876
11:10:31.678,11.6875,27.1876
11:10:31.710,11.75,27.3751
11:10:31.712,11.6875,25.7501
11:10:31.714,11.4375,26.0626
11:10:31.719,11.875,26.3751
11:10:31.729,10.625,25.9376
11:10:31.740,11,25.8751
11:10:31.749,10.3125,25.5626
11:10:31.759,9.8125,23.8126
11:10:31.772,9.0625,24.5626
11:10:31.778,9.25,23.3751
11:10:31.788,9.0625,22.5626
11:10:31.800,9.25,23.4376
11:10:31.808,9.1875,23.3126
11:10:31.818,9.3125,22.6251
11:10:31.828,8.625,22.3751
11:10:31.840,7.9375,22.2501
11:10:31.849,8.75,25.0626
11:10:31.858,9.5625,24.3126
11:10:31.869,10.6875,25.1251
11:10:31.878,10.8125,27.0001
11:10:31.890,11.75,27.2501
11:10:31.901,11.5625,26.8126
11:10:31.908,10.5625,26.4376
11:10:31.918,10.5,27.1876
11:10:31.929,10.75,26.8126
11:10:31.938,10.125,25.9376
11:10:31.949,9.5625,26.2501
11:10:31.959,9.5625,25.6251
11:10:31.968,9.1875,25.3751
11:10:31.980,8.75,24.3126
11:10:31.988,8.6875,22.5626
11:10:31.998,8.5,23.3751
11:10:32.008,9.0625,24.0626
11:10:32.018,8.8125,22.4376
11:10:32.028,8.5,20.9376
11:10:32.038,7.75,21.0001
11:10:32.048,7.375,20.0626
11:10:32.058,7.0625,18.8751
11:10:32.069,6.375,17.3751
11:10:32.078,5.75,16.9376
11:10:32.088,5.3125,16.8126
11:10:32.098,5.5625,15.5626
11:10:32.108,5.0625,14.3751
11:10:32.119,4.8125,14.6876
11:10:32.129,4.9375,13.4376
11:10:32.138,4.125,12.75
11:10:32.148,3.6875,12.8125
11:10:32.160,3.75,11.3125
11:10:32.170,3.625,10
11:10:32.178,3.3125,10.375
11:10:32.188,2.8125,10.5
11:10:32.200,2.75,8.6875
11:10:32.208,2.0625,7.1875
11:10:32.230,1.9375,7.5
11:10:32.236,1.625,7.6875
11:10:32.238,2.1875,7.125
11:10:32.253,1.125,6.125
11:10:32.261,1.875,5.8125
11:10:32.272,1.25,4.5
11:10:32.278,0.875,5
11:10:32.293,0.1875,4.25
11:10:32.303,0.4375,3.8125
11:10:32.316,-0.25,1.8125
11:10:32.332,-0.8125,1.125
11:10:32.334,-1.375,0.5
11:10:32.349,-1.25,-0.375
11:10:32.364,-1.9375,-1.875
11:10:32.367,-1.6875,-0.75
11:10:32.398,-1.875,-2.625
11:10:32.401,-2.4375,-2.125
11:10:32.403,-2.375,-2.375
11:10:32.405,-2.1875,-2.8125
11:10:32.435,-1.875,-4
11:10:32.437,-2.3125,-4.25
11:10:32.439,-2.5,-1.875
11:10:32.444,-1.4375,-1.75
11:10:32.476,0.5,2.5625
11:10:32.477,3.25,7
11:10:32.483,4.875,10.6875
11:10:32.486,5.9375,13.8126
11:10:32.517,7.75,18.3751
11:10:32.520,9,20.9376
11:10:32.522,10.1875,24.4376
11:10:32.524,12.1875,26.2501
11:10:32.554,11.9375,26.1251
11:10:32.557,12.5625,27.6876
11:10:32.561,12.125,27.9376
11:10:32.567,12.625,28.3751
11:10:32.575,12,27.1876
11:10:32.583,11.625,28.1251
11:10:32.593,11.4375,26.4376
11:10:32.604,11,26.5001
11:10:32.613,10.6875,25.0626
11:10:32.623,10,25.6876
11:10:32.633,10.5,26.5001
11:10:32.643,10.75,25.2501
11:10:32.653,10,24.5001
11:10:32.664,10.125,25.0626
11:10:32.674,9.75,24.6251
11:10:32.704,9.9375,23.6876
11:10:32.706,9.3125,21.8126
11:10:32.709,8.4375,21.8751
11:10:32.713,8.5,22.5626
11:10:32.725,8.4375,20.8126
11:10:32.735,8.375,20.8126
11:10:32.745,8.5625,21.6251
11:10:32.756,8.5,21.0626
11:10:32.763,8.25,21.5001
11:10:32.774,8.25,20.9376
11:10:32.790,8.625,21.5626
11:10:32.798,8.25,20.6251
11:10:32.810,9.0625,22.6876
11:10:32.818,9.75,21.9376
11:10:32.828,9.625,22.8751
11:10:32.838,9.0625,24.1876
11:10:32.848,9.9375,23.2501
11:10:32.859,9.5,22.8126
11:10:32.870,9.8125,23.5001
11:10:32.880,10.0625,23.5001
11:10:32.890,9.375,23.8126
11:10:32.898,8.75,22.7501
11:10:32.909,8.875,20.9376
11:10:32.918,8.1875,19.6876
11:10:32.931,7.625,19.6876
11:10:32.938,7.5625,19.6251
11:10:32.948,6.9375,17.7501
11:10:32.959,6.1875,16.1251
11:10:32.970,6,17.0001
11:10:32.978,5.9375,14.9376
11:10:32.989,5.6875,13.9376
11:10:33.000,4.8125,13.6876
11:10:33.008,4.75,13.6251
11:10:33.018,4.8125,12.1875
11:10:33.028,4.375,10.8125
11:10:33.038,3.5625,11.5
11:10:33.048,3.625,9.8125
11:10:33.060,2.5625,8
11:10:33.068,2.25,8.75
11:10:33.079,2.25,7.0625
11:10:33.090,1.8125,6.5
11:10:33.114,1.875,6
11:10:33.116,1.375,4.5
11:10:33.118,1.0625,3.625
11:10:33.154,0.6875,4
11:10:33.155,0.0625,2
11:10:33.158,0.4375,2.5625
11:10:33.160,-0.5,0.75
11:10:33.191,-0.125,1.25
11:10:33.194,-0.875,0.5625
11:10:33.195,-0.9375,-0.125
11:10:33.227,-0.5,-1.3125
11:10:33.230,-1.25,-2.25
11:10:33.232,-2.5625,-1.125
11:10:33.241,-2.375,-3.5
11:10:33.249,-2.8125,-5
11:10:33.254,-3.25,-4.5
11:10:33.280,-3.0625,-4.5
11:10:33.282,-3,-6.0625
11:10:33.286,-3.1875,-6.6875
11:10:33.294,-4,-7.6875
11:10:33.304,-4.8125,-7.375
11:10:33.313,-4.0625,-8.375
11:10:33.323,-4.5625,-9.9375
11:10:33.333,-5.3125,-10.8125
11:10:33.343,-4.5625,-11.3125
11:10:33.353,-5.5,-10.625
11:10:33.365,-5.625,-13
11:10:33.373,-5.8125,-13.6251
11:10:33.383,-5.75,-13.6251
11:10:33.395,-6.6875,-13.7501
11:10:33.403,-5.6875,-13.3751
11:10:33.413,-5.6875,-11.5625
11:10:33.423,-4,-10.0625
11:10:33.434,-2.875,-5.9375
11:10:33.444,-0.0625,-2.75
11:10:33.455,1.5625,1.875
11:10:33.466,3.8125,5.9375
11:10:33.473,4.4375,9.3125
11:10:33.483,6.4375,12.625
11:10:33.493,7,14.2501
11:10:33.503,7.5625,17.3751
11:10:33.514,8.125,17.3126
11:10:33.525,8.3125,17.6251
11:10:33.545,8.1875,18.3126
11:10:33.548,8.375,17.8126
11:10:33.555,8.3125,18.6251
11:10:33.563,8.0625,17.6251
11:10:33.579,7.6875,17.6251
11:10:33.595,7.5,16.5626
11:10:33.597,7.8125,16.8751
11:10:33.604,7.5,16.1876
11:10:33.614,7.75,16.9376
11:10:33.623,7.3125,15.7501
11:10:33.634,7.125,16.0626
11:10:33.651,6,16.3751
11:10:33.653,7.0625,15.5001
11:10:33.670,6.4375,14.5001
11:10:33.677,5.5625,13.7501
11:10:33.689,5.625,14.0001
11:10:33.695,5.1875,12.9375
11:10:33.704,4.9375,11.75
11:10:33.715,3.9375,11.125
11:10:33.723,4.3125,10.9375
11:10:33.733,4.75,12.25
11:10:33.757,5.9375,11.9375
11:10:33.762,5.9375,12.125
11:10:33.765,5.4375,12.125
11:10:33.797,5.3125,13.8751
11:10:33.799,6.5625,13.8126
11:10:33.802,6.5625,14.0626
11:10:33.806,6.75,14.9376
11:10:33.836,6.1875,15.1876
11:10:33.836,6.25,15.4376
11:10:33.838,6.6875,15.3751
11:10:33.867,5.875,13.7501
11:10:33.871,5.875,14.3126
11:10:33.873,6.5,14.1876
11:10:33.877,5.875,13
11:10:33.905,5.5,14.0001
11:10:33.907,5.5,12.75
11:10:33.909,4.75,11.1875
11:10:33.915,4.625,11.0625
11:10:33.923,3.9375,10.375
11:10:33.936,4.375,9.125
11:10:33.944,3.9375,8.375
11:10:33.954,3.375,8.6875
11:10:33.983,3.625,8
11:10:33.986,3.0625,6.125
11:10:33.990,2.5,5.1875
11:10:33.993,2,4.75
11:10:34.004,1.4375,4.3125
11:10:34.013,1.1875,2.875
11:10:34.023,0.5625,1.25
11:10:34.034,0.0625,0.8125
11:10:34.043,1.25,0.875
11:10:34.053,0.25,-0.125
11:10:34.063,-0.5625,-0.1875
11:10:34.074,-0.5,-1
11:10:34.083,-1.125,-2.25
11:10:34.094,-1.75,-3.5
11:10:34.104,-1.8125,-2.3125
11:10:34.113,-1.4375,-3.375
11:10:34.123,-1.5,-4.25
11:10:34.134,-1.9375,-5.5625
11:10:34.143,-2.375,-4.875
11:10:34.156,-2.6875,-6.3125
11:10:34.163,-3,-7.5625
11:10:34.173,-3.625,-8.3125
11:10:34.184,-2.875,-8.375
11:10:34.193,-3.625,-9
11:10:34.204,-4.375,-10.125
11:10:34.215,-3.5625,-9.1875
11:10:34.223,-3.25,-10.125
11:10:34.234,-4.375,-10.375
11:10:34.243,-4,-10.75
11:10:34.253,-4.75,-11.75
11:10:34.264,-5,-12.6875
11:10:34.276,-5.5625,-13.4376
11:10:34.284,-5.625,-13.6876
11:10:34.293,-6.1875,-14.8126
11:10:34.303,-7.0625,-13.9376
11:10:34.313,-6.125,-15.6876
11:10:34.323,-6.375,-16.0626
11:10:34.335,-6.875,-17.7501
11:10:34.344,-7.9375,-17.6876
11:10:34.353,-8.0625,-19.1251
11:10:34.363,-8.1875,-19.1876
11:10:34.374,-8.25,-20.8751
11:10:34.385,-9.1875,-20.6251
11:10:34.393,-8.6875,-22.1251
11:10:34.403,-9.5,-21.7501
11:10:34.413,-9.125,-23.1876
11:10:34.423,-10,-22.5626
11:10:34.438,-9,-22.7501
11:10:34.446,-9.125,-21.5001
11:10:34.453,-8.0625,-20.0626
11:10:34.463,-6.625,-17.3751
11:10:34.473,-4.625,-14.7501
11:10:34.483,-3.125,-9.25
11:10:34.506,-0.875,-5.9375
11:10:34.508,0.5625,-1.625
11:10:34.538,2.5,1.0625
11:10:34.539,3.75,4.9375
11:10:34.544,4.5625,7
11:10:34.545,4.9375,9.5
11:10:34.577,5.375,9.4375
11:10:34.578,5.375,11.25
11:10:34.581,5.5625,10.4375
11:10:34.610,6.0625,11.5625
11:10:34.612,5.8125,10.4375
11:10:34.615,5.5625,9.5
11:10:34.620,5.75,9.9375
11:10:34.628,4.625,8.5625
11:10:34.634,4.875,7.8125
11:10:34.668,4.4375,7.4375
11:10:34.675,4.4375,7.375
11:10:34.675,4.25,7.25
11:10:34.675,3.4375,6.75
11:10:34.687,3.1875,7.1875
11:10:34.693,3.8125,7.1875
11:10:34.703,4.125,6.375
11:10:34.713,3.3125,5.375
11:10:34.724,3,4.5625
11:10:34.733,2.3125,5.125
11:10:34.743,2.375,4.625
11:10:34.754,2.5,4.125
11:10:34.763,2.25,4.625
11:10:34.774,2,5.125
11:10:34.784,3.625,5.4375
11:10:34.793,3.375,4.9375
11:10:34.803,3.375,6.125
11:10:34.819,3.375,7.875
11:10:34.823,4.4375,7.625
11:10:34.834,4.375,8
11:10:34.843,4.9375,8.3125
11:10:34.863,4.75,9.6875
11:10:34.871,5.9375,10.4375
11:10:34.885,5.8125,10.125
11:10:34.888,5.25,8.875
11:10:34.909,4.5,9.125
11:10:34.909,4.75,10
11:10:34.913,5,8.1875
11:10:34.924,3.875,9.25
11:10:34.934,4.0625,8.1875
11:10:34.954,4.125,7.375
11:10:34.958,3.75,6.875
11:10:34.971,3.0625,7.25
11:10:34.973,2.9375,4.875
11:10:34.983,2.8125,4.625
11:10:34.994,2.0625,4.125
11:10:35.005,2.8125,4.3125
11:10:35.014,1.875,2.125
11:10:35.024,1.3125,1.3125
11:10:35.033,0.625,1.0625
11:10:35.043,1,-0.3125
11:10:35.054,0.1875,-0.125
11:10:35.063,-0.5625,0.3125
11:10:35.074,-0.25,-1.6875
11:10:35.083,-0.125,-1.875
11:10:35.093,-1.125,-2.125
11:10:35.104,-0.8125,-2.4375
11:10:35.113,-0.5625,-3.75
11:10:35.123,-0.4375,-4
11:10:35.133,-1.375,-5.4375
11:10:35.143,-1.6875,-6
11:10:35.153,-1.4375,-5.4375
11:10:35.165,-1.4375,-6
11:10:35.174,-2.1875,-7
11:10:35.184,-2.625,-7.125
11:10:35.193,-2.8125,-7.25
11:10:35.204,-2.375,-7.6875
11:10:35.215,-2.9375,-9.1875
11:10:35.224,-3.375,-8.5
11:10:35.234,-3.875,-11
11:10:35.261,-4.375,-10.75
11:10:35.263,-4.375,-11.5625
11:10:35.266,-4.75,-11.875
11:10:35.300,-4.375,-12.875
11:10:35.302,-5.3125,-12.5625
11:10:35.307,-5,-14.5001
11:10:35.308,-6,-13.9376
11:10:35.315,-6.125,-15.4376
11:10:35.344,-5.9375,-14.3751
11:10:35.347,-6.1875,-16.5626
11:10:35.348,-6.75,-15.5001
11:10:35.353,-6.25,-17.0001
11:10:35.382,-6.375,-15.8751
11:10:35.383,-5.5,-16.3751
11:10:35.388,-5.375,-13
11:10:35.395,-3.8125,-11.625
11:10:35.426,-1.9375,-6.9375
11:10:35.429,-0.1875,-4.375
11:10:35.431,1.625,-1.3125
11:10:35.433,3.1875,3.1875
11:10:35.447,4.5,5.75
11:10:35.453,5.75,8.5
11:10:35.464,6.5,10.9375
11:10:35.474,6.875,11.875
11:10:35.483,7.0625,12.9375
11:10:35.494,6.9375,12.8125
11:10:35.504,7.5625,13.0625
11:10:35.514,7,12.75
11:10:35.524,6.75,12.0625
11:10:35.533,5.1875,11.4375
11:10:35.543,5.75,11.625
11:10:35.554,5.25,10.875
11:10:35.566,5.375,10.3125
11:10:35.577,4.875,10.1875
11:10:35.583,4.375,9.5625
11:10:35.593,4.75,8.8125
11:10:35.603,3.3125,8.4375
11:10:35.614,4.125,7.9375
11:10:35.623,4.3125,7.4375
11:10:35.634,3,6.5625
11:10:35.643,2.75,7.4375
11:10:35.655,3.3125,5.5
11:10:35.663,3.0625,5.3125
11:10:35.673,2.625,4.75
11:10:35.683,2.75,5.5
11:10:35.694,3.0625,4.8125
11:10:35.704,2.875,5.125
11:10:35.714,3.4375,6.875
11:10:35.723,3.8125,6.6875
11:10:35.734,3.625,6.75
11:10:35.744,3.375,6.3125
11:10:35.756,4.625,8.3125
11:10:35.764,4.875,8.5625
11:10:35.773,4.125,9.3125
11:10:35.783,4.0625,9.125
11:10:35.794,4.6875,9.0625
11:10:35.803,4.5625,8.625
11:10:35.815,3.375,8.75
11:10:35.823,3.6875,8.3125
11:10:35.833,4.0625,7.125
11:10:35.845,2.5,6.5
11:10:35.853,3.0625,7
11:10:35.863,3.1875,5.625
11:10:35.875,2.375,4.875
11:10:35.883,2.125,6.4375
11:10:35.895,2.4375,4.1875
11:10:35.904,1.4375,2.4375
11:10:35.913,1.625,2.9375
11:10:35.925,1.1875,1.5
11:10:35.935,-0.0625,1.3125
11:10:35.948,0.875,0.3125
11:10:35.953,-0.375,-0.625
11:10:35.972,-0.375,-1.375
11:10:35.974,-0.6875,-0.625
11:10:36.008,-0.3125,-2.1875
11:10:36.011,-1.0625,-3.25
11:10:36.012,-1.5625,-3.625
11:10:36.014,-1.5625,-3.375
11:10:36.045,-1.1875,-4.5625
11:10:36.046,-2.4375,-5.5625
11:10:36.047,-2.875,-5.25
11:10:36.075,-2.375,-7.125
11:10:36.080,-3.4375,-8.5
11:10:36.081,-3.5625,-6.875
11:10:36.089,-3.3125,-8.3125
11:10:36.093,-3.75,-9.375
11:10:36.128,-4.625,-10.125
11:10:36.131,-4.4375,-9.875
11:10:36.133,-4.9375,-11.1875
11:10:36.138,-4.8125,-11.0625
11:10:36.146,-5.25,-12.5
11:10:36.154,-4.6875,-11.75
11:10:36.171,-5.5625,-13.4376
11:10:36.178,-5.8125,-13.5001
11:10:36.192,-6.4375,-14.4376
11:10:36.194,-6.5,-14.5626
11:10:36.211,-7.1875,-15.9376
11:10:36.213,-7.125,-15.8751
11:10:36.223,-7.6875,-17.3751
11:10:36.233,-7.5625,-16.8751
11:10:36.243,-7.625,-18.5001
11:10:36.263,-7.8125,-17.9376
11:10:36.266,-8.5,-19.4376
11:10:36.276,-8.6875,-19.4376
11:10:36.283,-8,-19.2501
11:10:36.299,-7.9375,-18.4376
11:10:36.321,-6.625,-17.3126
11:10:36.323,-5,-14.2501
11:10:36.333,-4,-11.25
11:10:36.343,-2.1875,-6.9375
11:10:36.353,0.25,-3
11:10:36.365,1.0625,1.25
11:10:36.373,3.0625,4.875
11:10:36.383,4.5,7.9375
11:10:36.394,5.3125,10.3125
11:10:36.405,6.375,12.4375
11:10:36.413,6.4375,13
11:10:36.423,6.9375,15.2501
11:10:36.433,7.5,15.3751
11:10:36.444,7,14.6876
11:10:36.456,7,14.5626
11:10:36.464,6.3125,13.3126
11:10:36.473,6.0625,13.0625
11:10:36.484,5.5,13.3751
11:10:36.497,5.3125,12.5
11:10:36.505,5.3125,12.8125
11:10:36.513,5.0625,11.9375
11:10:36.541,5.3125,12.5
11:10:36.543,5.375,11.6875
11:10:36.546,4.6875,10.875
11:10:36.553,4.1875,11.75
11:10:36.564,4.5625,10.75
11:10:36.574,4.3125,9.75
11:10:36.583,4.0625,9.3125
11:10:36.593,3.875,10.3125
11:10:36.606,3.4375,9.25
11:10:36.613,3.5,8.1875
11:10:36.624,3.8125,9
11:10:36.633,5.125,9.9375
11:10:36.644,4.6875,9.9375
11:10:36.656,4.5,11.6875
11:10:36.663,4.5625,12.0625
11:10:36.673,5.375,11.875
11:10:36.684,5.375,12.75
11:10:36.696,5.625,14.0626
11:10:36.703,5.625,13.9376
11:10:36.714,5.875,13.9376
11:10:36.723,5.5625,14.3126
11:10:36.737,6.125,14.0001
11:10:36.767,5.875,12.625
11:10:36.769,5.0625,12.75
11:10:36.771,4.5625,12.75
11:10:36.773,5,12.5625
11:10:36.806,4.875,11.125
11:10:36.808,4.4375,10.8125
11:10:36.811,4.375,10.75
11:10:36.813,3.8125,10.1875
11:10:36.846,3.1875,8.75
11:10:36.847,2.3125,9.75
11:10:36.849,3.125,7.875
11:10:36.877,2.8125,7.3125
11:10:36.880,2.3125,6.9375
11:10:36.882,2.25,5.9375
11:10:36.888,1.5625,5.125
11:10:36.912,0.6875,3.8125
11:10:36.914,0.625,3.8125
11:10:36.921,0.875,2.625
11:10:36.930,0.4375,1.4375
11:10:36.939,-0.25,0.4375
11:10:36.949,0.25,1.3125
11:10:36.958,-0.0625,0.25
11:10:36.969,-0.875,-0.5
11:10:36.979,-1.0625,0.3125
11:10:36.989,-1.625,-2.0625
11:10:36.999,-2,-1.5625
11:10:37.008,-1.75,-3.4375
11:10:37.020,-2.4375,-4.125
11:10:37.029,-2,-3.5
11:10:37.041,-2.4375,-5.1875
11:10:37.049,-3,-5.1875
11:10:37.058,-3.375,-6.0625
11:10:37.074,-3.0625,-6.5625
11:10:37.078,-3.4375,-7.875
11:10:37.089,-3.6875,-7.3125
11:10:37.098,-3.25,-7.5
11:10:37.110,-4.1875,-8.8125
11:10:37.121,-4.375,-7.5
11:10:37.128,-4.125,-8.875
11:10:37.138,-5.4375,-9.5
11:10:37.148,-5.625,-10.6875
11:10:37.160,-5.5625,-10.9375
11:10:37.168,-5.9375,-11.75
11:10:37.180,-5.9375,-13.6876
11:10:37.188,-6.375,-12.75
11:10:37.200,-6.3125,-14.5626
11:10:37.208,-6.375,-13.8751
11:10:37.218,-6.5625,-14.8126
11:10:37.229,-6.8125,-15.6251
11:10:37.239,-7.3125,-16.6876
11:10:37.248,-7.75,-16.0626
11:10:37.258,-7.875,-18.5001
11:10:37.269,-8,-17.6876
11:10:37.279,-8.6875,-19.3126
11:10:37.291,-8.125,-18.2501
11:10:37.298,-9.125,-19.5001
11:10:37.308,-8.5625,-18.5001
11:10:37.318,-7.4375,-16.0626
11:10:37.330,-5.5625,-13.4376
11:10:37.339,-4.1875,-9.8125
11:10:37.348,-2.0625,-5.8125
11:10:37.358,-0.4375,-1.4375
11:10:37.370,2.4375,3.0625
11:10:37.380,3.75,6.0625
11:10:37.391,5.6875,10.5
11:10:37.428,6.5625,13.125
11:10:37.429,7.25,15.4376
11:10:37.432,8.1875,16.7501
11:10:37.434,7.75,18.0001
11:10:37.440,8.25,18.1876
11:10:37.542,8.125,18.1876
11:10:37.543,8.75,18.2501
11:10:37.543,7.625,17.7501
11:10:37.549,7.875,18.0001
11:10:37.550,7.25,17.2501
11:10:37.550,7.5625,17.0626
11:10:37.553,6.5625,16.8126
11:10:37.563,7.25,17.0001
11:10:37.582,6.75,16.3751
11:10:37.584,6.5,16.6251
11:10:37.600,6.75,17.1876
11:10:37.607,6.75,16.8751
11:10:37.614,7.0625,16.3126
11:10:37.623,6.5625,16.4376
11:10:37.633,6.4375,16.0001
11:10:37.645,6.3125,15.8126
11:10:37.654,6.6875,15.3126
11:10:37.663,5.6875,14.5626
11:10:37.673,6.25,14.3751
11:10:37.687,6.0625,15.0001
11:10:37.693,6.0625,14.8751
11:10:37.703,6.1875,15.7501
11:10:37.713,8.5,21.0001
11:10:37.723,8.125,20.5626
11:10:37.734,8.6875,21.9376
11:10:37.743,8.6875,21.3126
11:10:37.754,8.6875,20.5626
11:10:37.764,8.3125,20.1251
11:10:37.774,8.125,20.9376
11:10:37.783,7.8125,19.5626
11:10:37.794,7.625,19.3751
11:10:37.821,7.125,20.0626
11:10:37.824,7.1875,18.4376
11:10:37.830,6.25,17.0626
11:10:37.835,6.1875,17.3751
11:10:37.845,5.875,16.6251
11:10:37.853,5.6875,15.3126
11:10:37.865,5.125,13.8751
11:10:37.873,4.1875,14.0626
11:10:37.884,5,12.6875
11:10:37.893,4.3125,11.375
11:10:37.903,4.1875,11.1875
11:10:37.913,4,10.875
11:10:37.924,3.25,10
11:10:37.934,2.8125,9.125
11:10:37.949,3.125,8.1875
11:10:37.955,2.375,6.6875
11:10:37.964,1.5,7
11:10:37.973,1.8125,6.0625
11:10:37.983,1.8125,5
11:10:37.995,1.0625,3.5
11:10:38.003,1.625,4.6875
11:10:38.013,0.4375,3.0625
11:10:38.023,-0.1875,3.875
11:10:38.033,0.4375,2.5625
11:10:38.043,0.125,1.6875
11:10:38.053,-0.75,1.25
11:10:38.064,-0.4375,0.5
11:10:38.073,-1.25,-1.1875
11:10:38.084,-1.5625,-0.3125
11:10:38.093,-1.0625,-1.4375
11:10:38.105,-1.625,-2.4375
11:10:38.113,-2.0625,-3
11:10:38.123,-2.3125,-3.4375
11:10:38.134,-2.3125,-3.125
11:10:38.145,-2.375,-4.875
11:10:38.155,-3.1875,-5.625
11:10:38.163,-3.625,-4.125
11:10:38.174,-3.6875,-6.375
11:10:38.184,-3.625,-7.6875
11:10:38.193,-4.0625,-6.8125
11:10:38.204,-4.4375,-8.375
11:10:38.232,-4.75,-8.875
11:10:38.235,-4.5,-9.8125
11:10:38.239,-5.5,-9.8125
11:10:38.245,-5.3125,-11.25
11:10:38.254,-6.0625,-11.125
11:10:38.292,-6.125,-12.125
11:10:38.295,-6.625,-12.9375
11:10:38.297,-7.4375,-13.2501
11:10:38.300,-6.875,-14.8126
11:10:38.326,-7.0625,-13.4376
11:10:38.329,-6.4375,-14.3126
11:10:38.333,-5.875,-13.9376
11:10:38.336,-5,-12
11:10:38.362,-4,-9
11:10:38.364,-2.125,-6.0625
11:10:38.367,-0.0625,-1.8125
11:10:38.374,0.9375,2.5
11:10:38.397,3.125,6.25
11:10:38.400,5.125,9.375
11:10:38.407,6.375,13.9376
11:10:38.413,6.9375,16.1876
11:10:38.424,8.4375,18.2501
11:10:38.433,8.3125,19.7501
11:10:38.446,8.8125,19.7501
11:10:38.454,9.0625,20.0626
11:10:38.463,9.1875,21.5001
11:10:38.474,9.125,20.4376
11:10:38.484,8.125,21.3751
11:10:38.493,8.25,18.9376
11:10:38.503,8.3125,19.9376
11:10:38.514,8.3125,19.0001
11:10:38.524,7.6875,19.4376
11:10:38.535,7.8125,17.8751
11:10:38.545,7.0625,18.9376
11:10:38.554,7.3125,18.3126
11:10:38.563,7.3125,17.7501
11:10:38.573,7.125,17.5626
11:10:38.584,6.9375,17.5001
11:10:38.595,6.9375,16.6876
11:10:38.603,6.625,15.8751
11:10:38.614,6.375,15.6251
11:10:38.624,5.6875,16.6251
11:10:38.633,5.875,16.0001
11:10:38.644,6.0625,14.6251
11:10:38.657,5.5,15.0626
11:10:38.663,7.0625,15.9376
11:10:38.673,6.8125,17.0626
11:10:38.684,6.75,18.1876
11:10:38.694,7.6875,18.3751
11:10:38.703,7.625,18.5626
11:10:38.713,7.5625,19.6251
11:10:38.726,8.9375,19.8126
11:10:38.733,8.375,19.9376
11:10:38.743,8.1875,21.7501
11:10:38.755,8.25,20.3751
11:10:38.763,8.25,20.3126
11:10:38.777,8.0625,19.6876
11:10:38.784,7.8125,19.6251
11:10:38.796,7.1875,18.3126
11:10:38.811,6.875,18.7501
11:10:38.825,7.375,17.9376
11:10:38.840,6.875,17.1251
11:10:38.843,6.3125,16.1251
11:10:38.844,6.125,15.9376
11:10:38.855,5.5,14.6876
11:10:38.864,4.5,13.5001
11:10:38.885,4.3125,13.7501
11:10:38.889,4.75,13.1876
11:10:38.903,4.875,11.5
11:10:38.910,3.125,11.75
11:10:38.918,3.4375,10.0625
11:10:38.927,3.0625,9.0625
11:10:38.934,2.5,8.125
11:10:38.964,1.875,9.5
11:10:38.967,2.125,6.6875
11:10:38.969,1.4375,5.9375
11:10:38.975,1.1875,5.4375
11:10:39.009,0.625,5.25
11:10:39.011,0.75,4.8125
11:10:39.013,-0.3125,2.75
11:10:39.016,-0.4375,1.5
11:10:39.045,-0.6875,1.6875
11:10:39.047,-1,1.0625
11:10:39.050,-1.125,-0.25
11:10:39.055,-1.25,-0.375
11:10:39.092,-1.4375,-0.9375
11:10:39.094,-2.0625,-2.3125
11:10:39.096,-2.375,-2.375
11:10:39.110,-2.5625,-3.75
11:10:39.112,-3.375,-3.25
11:10:39.114,-2.875,-3.9375
11:10:39.123,-2.9375,-5.25
11:10:39.134,-4,-6.75
11:10:39.144,-4.0625,-6.5625
11:10:39.153,-4.1875,-7.625
11:10:39.165,-4.875,-9.6875
11:10:39.173,-5.375,-9.25
11:10:39.185,-4.9375,-9.625
11:10:39.195,-5.0625,-10
11:10:39.204,-6.25,-9.875
11:10:39.214,-5.875,-10.75
11:10:39.223,-6.25,-11.5625
11:10:39.234,-5.625,-12.125
11:10:39.245,-5.75,-10.75
11:10:39.254,-4.625,-9.625
11:10:39.264,-4,-7.6875
11:10:39.274,-2.25,-4.0625
11:10:39.285,-0.0625,0.25
11:10:39.293,1.4375,3.25
11:10:39.304,2.8125,8.3125
11:10:39.314,5.0625,11.0625
11:10:39.326,5.9375,14.0001
11:10:39.334,7.1875,17.7501
11:10:39.344,8.5,18.8751
11:10:39.355,8.8125,21.0001
11:10:39.363,8.875,20.8751
11:10:39.374,9.3125,22.0626
11:10:39.384,9.0625,21.1876
11:10:39.394,9.0625,21.8751
11:10:39.405,9.125,22.3751
11:10:39.414,8.6875,21.3126
11:10:39.423,8.375,20.7501
11:10:39.434,8.5,20.5626
11:10:39.444,7.5625,20.2501
11:10:39.453,7.9375,19.4376
11:10:39.464,7.25,18.6876
11:10:39.475,7.3125,19.3751
11:10:39.483,7.6875,18.9376
11:10:39.493,7,17.8751
11:10:39.504,6.4375,17.7501
11:10:39.514,6.3125,18.1876
11:10:39.525,6.875,17.1251
11:10:39.534,6.125,16.0001
11:10:39.543,5.5,16.8126
11:10:39.554,5.5625,16.1251
11:10:39.566,5.875,15.3751
11:10:39.573,5.75,15.1876
11:10:39.584,5.75,17.2501
11:10:39.614,6.125,17.3751
11:10:39.616,7,17.6251
11:10:39.618,6.625,17.6876
11:10:39.625,6.625,18.6876
11:10:39.633,7.375,18.2501
11:10:39.663,7.0625,19.2501
11:10:39.666,8.3125,20.6876
11:10:39.668,8,20.6251
11:10:39.693,7.8125,20.1251
11:10:39.697,7.5,20.9376
11:10:39.699,7.1875,18.9376
11:10:39.703,6.875,18.0626
11:10:39.714,6.375,18.3126
11:10:39.744,6.5,18.2501
11:10:39.746,6.25,16.6876
11:10:39.748,5.9375,15.8126
11:10:39.755,5.1875,15.9376
11:10:39.781,5.1875,14.5626
11:10:39.783,4.6875,13.5626
11:10:39.785,4.25,14.0001
11:10:39.795,4.3125,11.9375
11:10:39.804,3.5,10.4375
11:10:39.815,2.625,11
11:10:39.823,2.4375,9.125
11:10:39.833,2.3125,8.125
11:10:39.845,1.6875,8.375
11:10:39.855,1.625,7.3125
11:10:39.864,1.5625,6.3125
11:10:39.874,0.75,5
11:10:39.885,0.25,5.0625
11:10:39.893,0.9375,3.75
11:10:39.904,-0.1875,2.1875
11:10:39.914,-0.8125,1.9375
11:10:39.925,-0.5,0.8125
11:10:39.935,-1,0.125
11:10:39.944,-1.9375,-1.0625
11:10:39.956,-2.0625,-1.8125
11:10:39.964,-2.6875,-2.75
11:10:39.974,-2.5,-2.5625
11:10:39.983,-2.5625,-3.3125
11:10:39.995,-3.25,-4.3125
11:10:40.004,-3.75,-4.375
11:10:40.013,-3.125,-5.125
11:10:40.024,-3.8125,-6.0625
11:10:40.035,-4.25,-6.6875
11:10:40.045,-4.625,-6.625
11:10:40.054,-4.6875,-8
11:10:40.064,-5.25,-7.75
11:10:40.075,-4.75,-8.9375
11:10:40.084,-5.6875,-9
11:10:40.095,-5.0625,-11.1875
11:10:40.109,-6.3125,-11.8125
11:10:40.124,-7.0625,-12
11:10:40.130,-6.8125,-12.6875
11:10:40.135,-6.8125,-13.3751
11:10:40.144,-7.5,-14.4376
11:10:40.153,-7.875,-14.7501
11:10:40.164,-8.3125,-16.5626
11:10:40.174,-8.0625,-16.9376
11:10:40.194,-8.6875,-17.2501
11:10:40.196,-8.9375,-18.1876
11:10:40.210,-9.4375,-18.3126
11:10:40.214,-9.3125,-19.6251
11:10:40.223,-10.25,-20.0626
11:10:40.236,-9.625,-20.3751
11:10:40.244,-9.625,-19.8751
11:10:40.254,-8.875,-18.8751
11:10:40.266,-7.75,-17.1876
11:10:40.277,-6.25,-12.5625
11:10:40.283,-4.25,-9.4375
11:10:40.295,-1.5,-4.375
11:10:40.304,0.3125,0.125
11:10:40.313,1.625,4
11:10:40.326,3.5,7.4375
11:10:40.333,4,11.0625
11:10:40.344,5.9375,13.3126
11:10:40.356,6.75,14.5626
11:10:40.382,6.25,16.1876
11:10:40.386,6.625,16.3126
11:10:40.389,6.8125,16.5626
11:10:40.429,6.125,16.5001
11:10:40.431,7.0625,16.8126
11:10:40.433,6.1875,16.3751
11:10:40.436,6.5625,16.2501
11:10:40.442,6.1875,15.5001
11:10:40.449,6.5625,15.6251
11:10:40.478,6.25,16.5626
11:10:40.482,6.0625,15.4376
11:10:40.484,6.0625,15.7501
11:10:40.492,6.5,16.0001
11:10:40.526,5.75,14.6876
11:10:40.527,5.3125,14.7501
11:10:40.528,5.25,14.8126
11:10:40.535,4.1875,13.5626
11:10:40.542,4.6875,13.8751
11:10:40.563,3.5625,11.6875
11:10:40.566,2.5,11.8125
11:10:40.569,2.5625,12.125
11:10:40.578,2.3125,11.125
11:10:40.589,2.625,10.625
11:10:40.598,3.9375,11.9375
11:10:40.609,5.1875,12.9375
11:10:40.619,5.125,13.8126
11:10:40.631,5.8125,14.6876
11:10:40.638,6.0625,16.0001
11:10:40.653,6.375,16.8126
11:10:40.664,7,16.6251
11:10:40.673,5.9375,16.1876
11:10:40.683,6,16.6251
11:10:40.694,8.0625,18.3751
11:10:40.707,9.75,19.3751
11:10:40.714,12.5,18.9376
11:10:40.723,11.625,19.6876
11:10:40.736,13.0625,19.3126
11:10:40.744,13.6876,17.9376
11:10:40.754,14.6876,19.3126
11:10:40.767,16.1876,18.5626
11:10:40.774,18.4376,19.3751
11:10:40.784,21.1876,22.0001
11:10:40.793,23.6876,21.8126
11:10:40.803,22.1876,20.5626
11:10:40.814,20.0626,17.1876
11:10:40.823,18.5626,14.3126
11:10:40.835,17.4376,11
11:10:40.845,11.0625,5.3125
11:10:40.854,3.4375,0.0625
11:10:40.863,-4.5,-9.25
11:10:40.873,-8.125,-16.1876
11:10:40.884,-11.125,-21.1876
11:10:40.894,-12.25,-23.0626
11:10:40.904,-12.125,-26.0626
11:10:40.913,-9.5625,-27.0626
11:10:40.924,-5.3125,-23.5626
11:10:40.935,-1.4375,-21.0001
11:10:40.943,0.5625,-18.6876
11:10:40.953,1.125,-18.3126
11:10:40.963,0.5,-16.1876
11:10:40.975,0.1875,-17.8751
11:10:40.985,-2.3125,-17.8126
11:10:40.994,-3.375,-16.8751
11:10:41.005,-2.25,-16.6876
11:10:41.014,0.125,-15.1251
11:10:41.030,1.0625,-11.375
11:10:41.035,2.5,-9.6875
11:10:41.043,2.625,-8.1875
11:10:41.055,2.875,-6.6875
11:10:41.064,2.25,-6.375
11:10:41.077,3.75,-6.0625
11:10:41.085,5.625,-5.1875
11:10:41.093,7.125,-5.0625
11:10:41.111,5.625,-5.8125
11:10:41.114,3.875,-8.75
11:10:41.149,0.8125,-13.3126
11:10:41.151,-2.375,-15.5626
11:10:41.153,-2.75,-18.3126
11:10:41.156,-3.625,-20.6876
11:10:41.164,-5.5,-24.7501
11:10:41.195,-11.25,-32.5001
11:10:41.197,-17.1251,-39.6877
11:10:41.199,-17.1876,-44.8752
11:10:41.204,-10.8125,-44.0002
11:10:41.236,-0.875,-39.2502
11:10:41.238,3.875,-37.3751
11:10:41.241,5,-36.0001
11:10:41.244,2.6875,-35.5001
11:10:41.255,-0.75,-36.6251
11:10:41.271,-5.625,-39.6252
11:10:41.276,-9.9375,-42.0627
11:10:41.283,-14.2501,-43.6252
11:10:41.294,-14.4376,-44.6252
11:10:41.303,-13.9376,-41.9377
11:10:41.314,-11.8125,-38.3751
11:10:41.325,-9.8125,-32.8751
11:10:41.335,-7.1875,-27.8126
11:10:41.343,-4.75,-22.3126
11:10:41.355,-1.25,-16.7501
11:10:41.363,1.0625,-10.5625
11:10:41.374,4.0625,-6.6875
11:10:41.385,5.25,-2.625
11:10:41.405,5.5625,-0.0625
11:10:41.410,4.6875,0.3125
11:10:41.425,4.5,0.4375
11:10:41.429,4.125,0.0625
11:10:41.434,4.1875,0.625
11:10:41.446,2.75,-0.375
11:10:41.453,3.0625,-2.375
11:10:41.464,0.875,-4.25
11:10:41.477,-0.25,-6.8125
11:10:41.490,-3.375,-9.0625
11:10:41.506,-7.4375,-13.5001
11:10:41.511,-11.5,-19.6876
11:10:41.514,-11.8125,-22.8751
11:10:41.525,-4.1875,-21.5001
11:10:41.535,3,-18.3126
11:10:41.544,5.125,-17.0626
11:10:41.555,4.75,-16.4376
11:10:41.566,3.25,-15.5626
11:10:41.574,2.25,-16.3751
11:10:41.584,-1.3125,-18.3751
11:10:41.594,-6.625,-21.5626
11:10:41.605,-9.875,-22.7501
11:10:41.615,-9.125,-21.7501
11:10:41.626,-9.125,-19.5001
11:10:41.637,-7.6875,-16.3126
11:10:41.661,-7.25,-13.9376
11:10:41.663,-7.0625,-11.6875
11:10:41.666,-6,-10.9375
11:10:41.674,-5.3125,-8.375
11:10:41.686,-3.4375,-7.75
11:10:41.695,-3.875,-6
11:10:41.705,-3.3125,-7.4375
11:10:41.717,-4.4375,-8.9375
11:10:41.724,-6.5625,-10
11:10:41.734,-7.8125,-12.25
11:10:41.745,-8.125,-14.1251
11:10:41.755,-9.125,-16.1876
11:10:41.765,-11.75,-18.7501
11:10:41.795,-17.3126,-25.7501
11:10:41.800,-23.0626,-32.1876
11:10:41.800,-27.1251,-37.8126
11:10:41.805,-25.9376,-40.3752
11:10:41.834,-16.6251,-36.5001
11:10:41.836,-9.875,-32.9376
11:10:41.838,-7.75,-30.9376
11:10:41.844,-7.875,-29.6251
11:10:41.874,-12.25,-32.3751
11:10:41.878,-16.1876,-32.6251
11:10:41.879,-19.0001,-32.6876
11:10:41.886,-20.7501,-31.3126
11:10:41.911,-22.6251,-30.0626
11:10:41.913,-22.4376,-30.2501
11:10:41.916,-20.1876,-26.9376
11:10:41.950,-16.0626,-26.1876
11:10:41.951,-14.8126,-24.4376
11:10:41.953,-14.9376,-25.8751
11:10:41.958,-16.8751,-26.7501
11:10:41.964,-17.3751,-28.3751
11:10:41.978,-17.5001,-27.9376
11:10:41.985,-15.6876,-28.4376
11:10:41.995,-14.6251,-27.3751
11:10:42.005,-14.0626,-27.3751
11:10:42.015,-15.8751,-29.6876
11:10:42.026,-19.1251,-35.0001
11:10:42.034,-22.8751,-39.2501
11:10:42.045,-28.5001,-46.6877
11:10:42.054,-33.9376,-52.0627
11:10:42.065,-36.5001,-57.2502
11:10:42.074,-31.8751,-58.1877
11:10:42.084,-19.5626,-51.7502
11:10:42.093,-12.4375,-47.2502
11:10:42.105,-11.625,-44.2502
11:10:42.115,-14.9376,-45.1877
11:10:42.125,-19.6251,-46.2502
11:10:42.133,-22.6251,-45.3752
11:10:42.144,-24.8751,-43.2502
11:10:42.153,-26.9376,-42.2502
11:10:42.163,-26.4376,-40.6877
11:10:42.174,-24.1876,-39.8127
11:10:42.184,-21.8126,-36.0626
11:10:42.194,-20.8126,-36.6251
11:10:42.205,-22.0001,-37.1251
11:10:42.215,-22.8751,-37.6251
11:10:42.224,-22.3751,-37.7501
11:10:42.237,-19.6876,-36.0626
11:10:42.243,-17.6251,-34.6251
11:10:42.254,-14.9376,-33.1251
11:10:42.265,-14.7501,-32.7501
11:10:42.274,-15.3126,-34.3126
11:10:42.284,-18.1876,-36.5001
11:10:42.294,-19.1876,-38.3751
11:10:42.303,-21.0001,-40.3127
11:10:42.315,-21.1251,-41.1877
11:10:42.325,-23.5001,-42.6877
11:10:42.336,-26.0626,-42.9377
11:10:42.345,-27.8126,-44.5627
11:10:42.355,-30.1876,-44.3752
11:10:42.365,-26.1251,-43.1877
11:10:42.375,-15.6876,-34.6251
11:10:42.385,-7.1875,-29.1876
11:10:42.394,-4.9375,-23.9376
11:10:42.404,-5.5,-21.7501
11:10:42.417,-8.8125,-20.1251
11:10:42.424,-10.5625,-19.0001
11:10:42.434,-13.0625,-15.8126
11:10:42.445,-12.75,-15.2501
11:10:42.454,-12.3125,-12.125
11:10:42.466,-8.75,-9.875
11:10:42.474,-5.6875,-4.9375
11:10:42.484,-2.875,-3.5625
11:10:42.494,-3.5625,-3
11:10:42.504,-4.375,-5
11:10:42.516,-5,-5.3125
11:10:42.525,-4.375,-5.1875
11:10:42.535,-3.3125,-5.875
11:10:42.545,-2.6875,-3.8125
11:10:42.566,-1.5625,-3.9375
11:10:42.567,-2.125,-5.4375
11:10:42.594,-6.6875,-10.375
11:10:42.597,-10.25,-15.2501
11:10:42.601,-14.7501,-19.8126
11:10:42.605,-19.5001,-25.9376
11:10:42.637,-23.2501,-30.3751
11:10:42.640,-23.7501,-33.4376
11:10:42.642,-18.2501,-32.1251
11:10:42.644,-10.5625,-27.1251
11:10:42.677,-7.8125,-25.6251
11:10:42.678,-7.625,-23.5001
11:10:42.681,-10.6875,-23.8126
11:10:42.707,-12.625,-21.0001
11:10:42.708,-13.5626,-19.3751
11:10:42.739,-15.1876,-15.8126
11:10:42.742,-15.4376,-14.8751
11:10:42.745,-14.3126,-12.3125
11:10:42.745,-11.75,-9.6875
11:10:42.751,-9.4375,-7.1875
11:10:42.760,-7.1875,-5.4375
11:10:42.770,-7.375,-5.1875
11:10:42.786,-6.4375,-4.9375
11:10:42.788,-3,-2.125
11:10:42.803,1.6875,1.875
11:10:42.809,6.75,5.0625
11:10:42.820,9.5625,5.875
11:10:42.833,9.25,7
11:10:42.840,7.5625,4.25
11:10:42.850,5.25,1
11:10:42.858,1.875,-2.1875
11:10:42.870,-2,-6.875
11:10:42.881,-5.75,-10.8125
11:10:42.889,-11.9375,-16.5001
11:10:42.899,-16.1251,-23.0626
11:10:42.910,-23.8126,-31.8751
11:10:42.942,-28.3751,-37.6251
11:10:42.945,-30.3751,-42.7502
11:10:42.946,-25.1251,-42.5627
11:10:42.953,-13.5001,-36.3126
11:10:42.959,-7.125,-31.8751
11:10:42.968,-5.875,-28.8126
11:10:42.980,-7.625,-29.3126
11:10:42.989,-11.6875,-29.8126
11:10:43.000,-15.1251,-28.5001
11:10:43.008,-17.4376,-29.0001
11:10:43.019,-17.6251,-27.4376
11:10:43.030,-19.8751,-26.0626
11:10:43.040,-18.1876,-24.4376
11:10:43.049,-16.6876,-22.7501
11:10:43.060,-14.5626,-21.6251
11:10:43.070,-12.6875,-19.8751
11:10:43.079,-11,-18.8751
11:10:43.088,-9.5625,-18.5001
11:10:43.099,-8.5625,-16.5626
11:10:43.114,-6.9375,-17.6251
11:10:43.119,-7.125,-17.0001
11:10:43.130,-7.3125,-18.6876
11:10:43.140,-8.75,-19.0001
11:10:43.150,-8.75,-20.5626
11:10:43.162,-10.9375,-23.3126
11:10:43.170,-13.6876,-27.5626
11:10:43.180,-18.5626,-32.3126
11:10:43.190,-23.1251,-37.4376
11:10:43.200,-26.6876,-41.0627
11:10:43.209,-27.1876,-43.0627
11:10:43.219,-19.3126,-39.8127
11:10:43.230,-8.5625,-30.3751
11:10:43.240,-5.5,-25.3126
11:10:43.250,-4.25,-21.0626
11:10:43.260,-7.5,-17.9376
11:10:43.281,-9,-14.8751
11:10:43.283,-10.1875,-8.375
11:10:43.311,-8.3125,-4.5
11:10:43.316,-4.375,1.4375
11:10:43.318,1.75,7.5
11:10:43.319,6.25,12.3125
11:10:43.355,8.5625,15.2501
11:10:43.357,8.625,15.2501
11:10:43.359,6.1875,13.5626
11:10:43.362,4.1875,11.9375
11:10:43.396,4.4375,12
11:10:43.398,6.6875,13.8126
11:10:43.400,8.6875,15.4376
11:10:43.404,10.375,15.7501
11:10:43.409,10.75,15.8126
11:10:43.442,9.25,13.5626
11:10:43.444,4.875,9.8125
11:10:43.446,0.75,3.9375
11:10:43.451,-5.25,-2.1875
11:10:43.459,-10.6875,-8.25
11:10:43.470,-14.5001,-13.7501
11:10:43.480,-17.4376,-18.5626
11:10:43.488,-13.125,-17.8751
11:10:43.502,-5.6875,-13.7501
11:10:43.510,-2.25,-12.125
11:10:43.520,-1.375,-10.5
11:10:43.530,-3.875,-11.5
11:10:43.540,-5.5,-8.75
11:10:43.552,-6.0625,-6.75
11:10:43.560,-7.125,-5.625
11:10:43.571,-8.375,-3.625
11:10:43.580,-6.6875,-0.9375
11:10:43.589,-5.75,1.5
11:10:43.599,-2.4375,3.375
11:10:43.610,1.125,7.625
11:10:43.619,2.625,9.3125
11:10:43.629,3.5,11.3125
11:10:43.640,3,10.5
11:10:43.653,2.0625,10.5625
11:10:43.660,3.375,10.375
11:10:43.669,5.3125,12.1875
11:10:43.679,8.4375,13.3126
11:10:43.691,10.875,16.1876
11:10:43.699,11.875,14.5626
11:10:43.710,10.25,13.8126
11:10:43.720,7.6875,10.4375
11:10:43.730,5.375,9
11:10:43.740,2.25,3.5625
11:10:43.752,-0.0625,0.3125
11:10:43.760,-5.625,-6.25
11:10:43.770,-13.5001,-14.8126
11:10:43.780,-19.0001,-20.0626
11:10:43.790,-18.1876,-23.8126
11:10:43.801,-6.6875,-20.0001
11:10:43.810,0.375,-15.7501
11:10:43.819,1.375,-12.625
11:10:43.830,-2.0625,-14.6876
11:10:43.840,-6.5625,-15.7501
11:10:43.850,-10.25,-14.6251
11:10:43.865,-11.8125,-12.875
11:10:43.871,-12.75,-11.875
11:10:43.880,-11.75,-11
11:10:43.890,-8.1875,-7.4375
11:10:43.903,-4.4375,-5.5625
11:10:43.910,-2.3125,-3.9375
11:10:43.920,-2.375,-1.9375
11:10:43.929,-1.9375,-3.75
11:10:43.939,-2.0625,-1.875
11:10:43.949,-0.875,-3.0625
11:10:43.960,0.9375,-1.3125
11:10:43.972,2.8125,-1.3125
11:10:43.979,2.75,-1.1875
11:10:44.001,2.625,-1.8125
11:10:44.006,1.6875,-2.1875
11:10:44.031,-0.9375,-6.5625
11:10:44.033,-4.9375,-10.1875
11:10:44.036,-8.9375,-16.2501
11:10:44.041,-13.6876,-20.9376
11:10:44.070,-19.0626,-26.5626
11:10:44.106,-23.3751,-31.8751
11:10:44.107,-24.5626,-36.8126
11:10:44.112,-19.3126,-35.3751
11:10:44.113,-12.25,-32.9376
11:10:44.151,-9.75,-29.8126
11:10:44.151,-10.9375,-31.2501
11:10:44.152,-15.8126,-32.6251
11:10:44.156,-18.3126,-31.1876
11:10:44.161,-20.5626,-30.8126
11:10:44.161,-21.7501,-29.1251
11:10:44.165,-20.7501,-27.0001
11:10:44.199,-18.1251,-24.1876
11:10:44.201,-14.3751,-19.2501
11:10:44.203,-9.375,-14.5626
11:10:44.228,-5.875,-9.8125
11:10:44.234,-3.8125,-5.0625
11:10:44.237,-1.625,-0.6875
11:10:44.237,2.125,4.9375
11:10:44.250,6,10.75
11:10:44.254,9.75,16.0626
11:10:44.266,12.6875,19.1876
11:10:44.275,13.2501,21.0001
11:10:44.284,12.3125,22.2501
11:10:44.294,9.5625,19.0001
11:10:44.304,6.75,15.0626
11:10:44.317,2.375,10.6875
11:10:44.325,-2.1875,5.4375
11:10:44.334,-6,-0.375
11:10:44.345,-10.5625,-5.0625
11:10:44.355,-13.7501,-9.625
11:10:44.367,-13.4376,-12.875
11:10:44.375,-6,-9.5
11:10:44.390,-0.1875,-5.4375
11:10:44.400,3.25,-1.875
11:10:44.410,3.6875,-1.25
11:10:44.421,2.75,0.9375
11:10:44.430,1.375,1.625
11:10:44.439,-0.625,1.75
11:10:44.449,-3,1
11:10:44.460,-3.4375,3.0625
11:10:44.469,-4.125,3.625
11:10:44.479,-4.375,5.5625
11:10:44.492,-2.375,7.5625
11:10:44.499,-1.1875,9.25
11:10:44.510,0.75,10.8125
11:10:44.519,3.75,13.3751
11:10:44.530,6.0625,16.2501
11:10:44.544,9.625,19.6876
11:10:44.550,11.75,22.4376
11:10:44.560,12.9375,22.9376
11:10:44.571,12.0625,22.6876
11:10:44.580,11,22.3126
11:10:44.590,10.3125,21.0001
11:10:44.599,8.8125,19.0001
11:10:44.612,6.875,15.7501
11:10:44.627,3.875,13
11:10:44.629,0.4375,8.25
11:10:44.641,-2.75,2.6875
11:10:44.650,-8,-2.875
11:10:44.660,-11.5,-6.6875
11:10:44.670,-10.6875,-10.75
11:10:44.680,-5.125,-7.375
11:10:44.689,0.9375,-4.4375
11:10:44.700,1.125,-3
11:10:44.710,-1,-3.1875
11:10:44.719,-4.125,-1.9375
11:10:44.729,-7.25,-2.375
11:10:44.740,-7.1875,-0.875
11:10:44.750,-8.5625,0.625
11:10:44.780,-7.6875,3.625
11:10:44.785,-3.6875,5.3125
11:10:44.785,-1.1875,6.5
11:10:44.790,2,8.375
11:10:44.827,4,10.375
11:10:44.829,4.5,9.5625
11:10:44.832,4.6875,9.0625
11:10:44.835,5.4375,9.75
11:10:44.840,5.5,10.25
11:10:44.849,6.1875,9.625
11:10:44.877,5.4375,7.8125
11:10:44.880,4.25,8.375
11:10:44.882,3.8125,6.0625
11:10:44.913,2.875,3.875
11:10:44.917,0.3125,2.0625
11:10:44.918,-2.25,-2.375
11:10:44.921,-4.25,-5.25
11:10:44.937,-6.75,-8.625
11:10:44.942,-9.5,-12.875
11:10:44.950,-14.1251,-17.2501
11:10:44.960,-17.0626,-22.1251
11:10:44.969,-18.6251,-27.3126
11:10:44.980,-12.875,-23.8751
11:10:44.990,-8.6875,-21.3126
11:10:45.005,-8.9375,-21.2501
11:10:45.014,-10.625,-21.2501
11:10:45.020,-12.8125,-20.2501
11:10:45.030,-14.8126,-19.0626
11:10:45.040,-15.4376,-16.1876
11:10:45.050,-13.8126,-15.5626
11:10:45.060,-11.375,-13.6876
11:10:45.069,-8.1875,-12
11:10:45.080,-5.4375,-9.3125
11:10:45.089,-3.6875,-8.75
11:10:45.102,-2.9375,-6.8125
11:10:45.111,-2.75,-6.75
11:10:45.121,-1.5625,-7
11:10:45.130,-0.625,-7.0625
11:10:45.140,-0.25,-6.4375
11:10:45.150,0.4375,-7.625
11:10:45.159,-0.4375,-7.75
11:10:45.169,-0.8125,-8.6875
11:10:45.180,-3.25,-9.3125
11:10:45.191,-6.0625,-13.5001
11:10:45.201,-8.75,-14.5626
11:10:45.211,-11.9375,-17.5001
11:10:45.220,-13.6876,-18.0626
11:10:45.230,-16.2501,-18.5626
11:10:45.240,-14.7501,-17.3126
11:10:45.250,-5.8125,-11.0625
11:10:45.262,0.625,-3.75
11:10:45.270,0.8125,-2
11:10:45.279,0.5,1.75
11:10:45.297,-1.125,3.375
11:10:45.304,-1.125,7.4375
11:10:45.313,-1.25,9.0625
11:10:45.320,-0.375,12.125
11:10:45.334,1.625,13.5001
11:10:45.343,4.9375,16.7501
11:10:45.351,7,18.5626
11:10:45.359,7.8125,19.9376
11:10:45.378,9.9375,20.6876
11:10:45.381,10.8125,22.0626
11:10:45.396,13.0625,23.3126
11:10:45.411,15.0001,24.0626
