timestamp,Red,IR
14:25:12.493,3.6875,14.3126
14:25:12.503,3.75,13.8751
14:25:12.511,3.25,12.5
14:25:12.522,2.4375,10.8125
14:25:12.532,2.5625,9.8125
14:25:12.545,1.8125,8.875
14:25:12.552,1.6875,8.9375
14:25:12.562,1.75,9
14:25:12.573,1.8125,7.5
14:25:12.584,1.3125,6.125
14:25:12.593,1.1875,5.25
14:25:12.603,0.375,6.5
14:25:12.613,0.8125,4.5
14:25:12.623,0.5625,3.3125
14:25:12.633,0.25,3.4375
14:25:12.644,0.125,3.125
14:25:12.654,0.5,1.5625
14:25:12.663,0.125,0.8125
14:25:12.672,-0.4375,1.3125
14:25:12.682,0.3125,-0.0625
14:25:12.693,-0.375,-0.9375
14:25:12.702,-1.0625,-0.25
14:25:12.712,0.375,-1.6875
14:25:12.724,-0.75,-3.1875
14:25:12.733,-1.1875,-3.625
14:25:12.743,-1.0625,-2.625
14:25:12.754,-0.0625,-2.9375
14:25:12.762,0,-1.75
14:25:12.772,0.5,0
14:25:12.784,1.0625,2.8125
14:25:12.793,1.6875,7.4375
14:25:12.813,2.625,11.9375
14:25:12.819,4.75,15.3751
14:25:12.822,5.25,17.8126
14:25:12.833,6.375,20.5001
14:25:12.851,6.8125,22.6876
14:25:12.858,7.3125,26.7501
14:25:12.866,7.9375,28.0001
14:25:12.873,8.3125,30.5626
14:25:12.882,9.0625,32.6251
14:25:12.892,10,34.4376
14:25:12.903,9.125,36.6876
14:25:12.913,10.5,37.6251
14:25:12.922,11.3125,38.8751
14:25:12.932,11.4375,39.6877
14:25:12.943,11.125,42.8752
14:25:12.965,11.9375,44.0627
14:25:12.967,12.125,44.5627
14:25:12.974,12.8125,44.6252
14:25:13.004,12.5625,45.6252
14:25:13.006,12.625,46.8127
14:25:13.008,12.625,45.8752
14:25:13.014,12.6875,45.5627
14:25:13.045,12.0625,44.7502
14:25:13.074,11.875,44.6252
14:25:13.104,12,42.8127
14:25:13.106,11.875,41.3752
14:25:13.107,11.3125,40.2502
14:25:13.107,10.5625,39.9377
14:25:13.113,11.5625,39.0001
14:25:13.139,10.3125,37.6876
14:25:13.141,9.8125,37.1251
14:25:13.143,9.75,37.4376
14:25:13.154,9.9375,36.3126
14:25:13.165,9.5625,34.6251
14:25:13.174,8.9375,34.3126
14:25:13.183,8.8125,34.3126
14:25:13.193,9.375,32.7501
14:25:13.203,8.125,32.4376
14:25:13.212,8.375,32.0626
14:25:13.222,8,30.6251
14:25:13.234,8.3125,29.7501
14:25:13.242,7.6875,28.2501
14:25:13.252,7,27.7501
14:25:13.264,6.5,26.3126
14:25:13.272,5.25,23.4376
14:25:13.282,5.625,22.7501
14:25:13.293,4.9375,22.0001
14:25:13.306,3.5625,20.1251
14:25:13.312,3.5625,20.0626
14:25:13.323,3.375,18.4376
14:25:13.333,3.0625,16.6876
14:25:13.342,2,15.1251
14:25:13.353,1.25,15.6876
14:25:13.363,1.5625,13.4376
14:25:13.371,0.75,12
14:25:13.382,0.1875,11.1875
14:25:13.393,-0.125,11
14:25:13.402,0.3125,9.6875
14:25:13.412,-0.3125,8.3125
14:25:13.421,-0.875,8.6875
14:25:13.433,0.375,6.875
14:25:13.443,-1.3125,5.875
14:25:13.453,-1.5625,6.1875
14:25:13.462,-1.25,4.625
14:25:13.474,-2.375,2.25
14:25:13.482,-2.3125,2.0625
14:25:13.493,-2.9375,2.125
14:25:13.503,-2.4375,0.4375
14:25:13.513,-3.0625,-0.5625
14:25:13.522,-3.75,-0.4375
14:25:13.533,-3.375,-1.375
14:25:13.542,-3.6875,-2.75
14:25:13.553,-4.125,-3.1875
14:25:13.563,-3.8125,-1.5625
14:25:13.572,-2.8125,-0.4375
14:25:13.582,-2.9375,1.0625
14:25:13.592,-2.75,4.6875
14:25:13.603,-1.6875,8.125
14:25:13.639,-0.3125,10.8125
14:25:13.642,0.4375,14.4376
14:25:13.645,0.9375,19.0626
14:25:13.651,2.9375,21.0001
14:25:13.659,3.375,22.8751
14:25:13.667,4.375,27.1251
14:25:13.680,4.625,30.6251
14:25:13.688,6.1875,31.1251
14:25:13.721,5.9375,34.6251
14:25:13.723,7.6875,35.5001
14:25:13.725,7.5625,37.8751
14:25:13.729,8.4375,40.7502
14:25:13.761,8.6875,40.8752
14:25:13.763,9.125,42.3127
14:25:13.765,9.5625,43.6877
14:25:13.769,9.9375,44.1252
14:25:13.798,10.3125,46.6252
14:25:13.801,10,46.9377
14:25:13.803,10.1875,48.1252
14:25:13.832,11.0625,47.3127
14:25:13.833,10.3125,46.4377
14:25:13.835,10.1875,45.0627
14:25:13.844,9.25,46.0002
14:25:13.861,8.9375,44.4377
14:25:13.862,8.375,42.1252
14:25:13.873,8.25,41.0627
14:25:13.878,7,40.7502
14:25:13.888,7.25,39.1251
14:25:13.899,6.6875,37.5001
14:25:13.907,6.0625,36.3126
14:25:13.918,5.0625,36.2501
14:25:13.928,6,34.7501
14:25:13.937,5.4375,33.0626
14:25:13.947,4.6875,33.6251
14:25:13.960,4.1875,32.6251
14:25:13.967,4.5,30.6251
14:25:13.977,3.75,29.5001
14:25:13.987,2.9375,28.1876
14:25:13.998,2.4375,28.0001
14:25:14.008,2.625,27.1251
14:25:14.018,2.875,26.7501
14:25:14.028,2.6875,24.6251
14:25:14.037,1.8125,24.5626
14:25:14.047,1.6875,23.8751
14:25:14.057,1.0625,21.8751
14:25:14.069,0.5625,20.5626
14:25:14.078,-0.5,20.8126
14:25:14.089,-0.6875,18.7501
14:25:14.097,-0.5,17.5626
14:25:14.108,-1.75,16.1876
14:25:14.116,-1.875,15.8126
14:25:14.130,-1.4375,13.6251
14:25:14.143,-2.3125,12.25
14:25:14.158,-3.3125,11.6875
14:25:14.161,-2.75,11.8125
14:25:14.167,-3.0625,10.0625
14:25:14.178,-3.5,9.3125
14:25:14.189,-4.1875,8.625
14:25:14.198,-4.0625,7.875
14:25:14.208,-4.0625,6.1875
14:25:14.216,-4.25,5.5
14:25:14.228,-5.125,3.4375
14:25:14.238,-6.125,4.875
14:25:14.247,-4.9375,3.125
14:25:14.259,-5.5625,1.4375
14:25:14.268,-5.875,1.75
14:25:14.279,-5.0625,1
14:25:14.288,-5.75,-0.5
14:25:14.297,-6.4375,-1.6875
14:25:14.308,-6.1875,-1.1875
14:25:14.316,-5.8125,-2.1875
14:25:14.328,-7,-4.375
14:25:14.337,-7.6875,-3.625
14:25:14.356,-7.5625,-6.1875
14:25:14.378,-8.375,-6.5
14:25:14.380,-8.25,-7.0625
14:25:14.383,-8.6875,-8.75
14:25:14.413,-9.25,-8.6875
14:25:14.413,-8.25,-9.375
14:25:14.417,-9.1875,-9.5625
14:25:14.423,-9.375,-6.9375
14:25:14.436,-7.9375,-6.3125
14:25:14.439,-7.8125,-4.0625
14:25:14.469,-6.375,1.125
14:25:14.471,-5.5,3.25
14:25:14.473,-5,8.3125
14:25:14.481,-3.125,10.875
14:25:14.488,-3.375,14.9376
14:25:14.518,-1.5,17.4376
14:25:14.520,-1.125,19.5001
14:25:14.524,-0.4375,22.0001
14:25:14.528,-0.125,24.5626
14:25:14.544,0.0625,27.5001
14:25:14.549,1.125,29.0001
14:25:14.560,1.0625,31.6251
14:25:14.567,2.375,32.6251
14:25:14.579,2.125,32.7501
14:25:14.588,2.625,35.5626
14:25:14.597,2.75,36.3751
14:25:14.608,2.6875,37.5001
14:25:14.618,3.375,38.5626
14:25:14.627,3.4375,38.8126
14:25:14.637,3.3125,38.6876
14:25:14.649,3.375,40.9377
14:25:14.658,3.8125,39.2502
14:25:14.668,3.0625,38.2501
14:25:14.678,2.0625,38.8751
14:25:14.688,1.5625,35.9376
14:25:14.697,1.125,33.8751
14:25:14.708,0.5,32.9376
14:25:14.719,0.0625,32.7501
14:25:14.729,0.1875,31.0001
14:25:14.738,-0.8125,29.3751
14:25:14.747,-1.4375,29.2501
14:25:14.758,-1,27.8751
14:25:14.767,-1.5,26.8126
14:25:14.778,-2.6875,24.8751
14:25:14.788,-3.375,24.0626
14:25:14.799,-3.625,24.5626
14:25:14.808,-2.8125,23.3751
14:25:14.817,-3.6875,21.6876
14:25:14.828,-5.125,21.0001
14:25:14.839,-5.3125,20.2501
14:25:14.848,-5,19.0001
14:25:14.859,-5.4375,17.1876
14:25:14.868,-6.4375,16.4376
14:25:14.877,-7.375,15.6876
14:25:14.888,-6.6875,13.9376
14:25:14.920,-7.25,13.1876
14:25:14.922,-7.875,11.8125
14:25:14.924,-8.875,10.75
14:25:14.929,-8.875,8.8125
14:25:14.937,-9.625,9.375
14:25:14.948,-9.75,7.4375
14:25:14.957,-9.625,6
14:25:14.967,-10.25,5
14:25:14.978,-9.9375,4.3125
14:25:14.986,-11.125,2.4375
14:25:14.997,-11.375,3
14:25:15.013,-11.1875,1.125
14:25:15.018,-12,-0.8125
14:25:15.028,-12.875,-0.875
14:25:15.036,-12.1875,-1.5625
14:25:15.048,-12.9375,-2.875
14:25:15.057,-13.3126,-4.3125
14:25:15.067,-13.1251,-3.3125
14:25:15.079,-13.5001,-5.8125
14:25:15.087,-13.9376,-6.1875
14:25:15.098,-12.625,-6.4375
14:25:15.108,-14.0001,-6.9375
14:25:15.119,-14.2501,-8.1875
14:25:15.129,-14.9376,-9.3125
14:25:15.136,-15.3126,-9.125
14:25:15.148,-14.8126,-10.75
14:25:15.185,-15.1251,-11.6875
14:25:15.190,-15.5001,-11.4375
14:25:15.193,-15.3751,-12.375
14:25:15.193,-16.0626,-14.2501
14:25:15.200,-15.6876,-14.3751
14:25:15.229,-16.3751,-14.7501
14:25:15.231,-15.9376,-16.0626
14:25:15.233,-17.1251,-17.0001
14:25:15.259,-17.5001,-16.2501
14:25:15.261,-16.7501,-17.4376
14:25:15.263,-16.9376,-16.3126
14:25:15.271,-16.6876,-15.9376
14:25:15.278,-16.0626,-13.6876
14:25:15.311,-14.8751,-9.625
14:25:15.313,-13.8126,-6.4375
14:25:15.316,-12.8125,-3.1875
14:25:15.320,-11.625,0.625
14:25:15.341,-11.3125,4.25
14:25:15.344,-9.75,7.875
14:25:15.349,-8.5625,10.4375
14:25:15.357,-8.875,13.8126
14:25:15.368,-7.125,14.9376
14:25:15.379,-7.5625,18.7501
14:25:15.387,-5.75,19.8126
14:25:15.398,-5.0625,21.5001
14:25:15.408,-4.25,23.3751
14:25:15.417,-4.3125,24.6251
14:25:15.439,-4.375,25.5626
14:25:15.447,-3.1875,26.5001
14:25:15.459,-3.75,27.5001
14:25:15.463,-3.3125,29.2501
14:25:15.469,-2.8125,29.0001
14:25:15.478,-3.25,28.9376
14:25:15.489,-2.75,30.1251
14:25:15.498,-2.6875,29.9376
14:25:15.509,-2.8125,29.0001
14:25:15.519,-2.875,28.5001
14:25:15.528,-3.4375,26.3126
14:25:15.539,-4.0625,25.3126
14:25:15.548,-4.0625,26.1251
14:25:15.559,-4.25,23.6251
14:25:15.568,-4.75,23.0001
14:25:15.578,-5.125,22.0001
14:25:15.588,-6.125,21.6251
14:25:15.597,-6.0625,22.0001
14:25:15.607,-5.8125,20.2501
14:25:15.619,-6.125,18.9376
14:25:15.627,-7.1875,17.9376
14:25:15.638,-7.5,17.5001
14:25:15.653,-6.75,16.7501
14:25:15.668,-7,16.8126
14:25:15.671,-7.9375,15.2501
14:25:15.678,-8.5,12.8125
14:25:15.687,-9.25,12.4375
14:25:15.699,-8.9375,12.1875
14:25:15.708,-8.6875,10.4375
14:25:15.718,-10.0625,9.625
14:25:15.730,-10.3125,8.375
14:25:15.738,-10.25,6.9375
14:25:15.748,-10.875,7.5625
14:25:15.764,-10.625,6.625
14:25:15.768,-11,5.3125
14:25:15.778,-11.875,4.1875
14:25:15.789,-12.375,2.6875
14:25:15.798,-12.4375,3.75
14:25:15.806,-12.5625,1.6875
14:25:15.818,-12.375,0.625
14:25:15.828,-13.1251,-0.625
14:25:15.838,-13.3126,0.5
14:25:15.848,-12.6875,-1.5
14:25:15.859,-13.3126,-3
14:25:15.868,-13.4376,-1.875
14:25:15.880,-14.0626,-3.8125
14:25:15.921,-13.8126,-3.6875
14:25:15.922,-13.9376,-5.3125
14:25:15.925,-14.5001,-6.3125
14:25:15.927,-15.1876,-6.25
14:25:15.929,-15.2501,-7.875
14:25:15.958,-15.3751,-9
14:25:15.960,-15.1251,-8.5625
14:25:15.963,-15.3126,-7.9375
14:25:15.968,-14.9376,-10.125
14:25:16.011,-15.6876,-10
14:25:16.012,-15.5001,-11.125
14:25:16.017,-16.0001,-12.5
14:25:16.017,-15.3126,-11.625
14:25:16.019,-16.1876,-14.0626
14:25:16.049,-16.6876,-13.5001
14:25:16.050,-16.0626,-15.5626
14:25:16.053,-15.8751,-14.6876
14:25:16.059,-16.0626,-16.7501
14:25:16.071,-16.7501,-17.1876
14:25:16.077,-16.8126,-17.2501
14:25:16.088,-16.3126,-17.0001
14:25:16.098,-15.8126,-16.2501
14:25:16.106,-15.9376,-14.6251
14:25:16.118,-15.3126,-10.4375
14:25:16.127,-14.5626,-7.25
14:25:16.143,-12.8125,-4.0625
14:25:16.148,-11.6875,-0.25
14:25:16.158,-11.625,3.5625
14:25:16.168,-10.25,6.375
14:25:16.201,-9.125,9.625
14:25:16.204,-7.625,11.125
14:25:16.205,-7.625,13.9376
14:25:16.213,-6.3125,16.6251
14:25:16.221,-6.0625,17.8126
14:25:16.228,-5.4375,20.3751
14:25:16.237,-4.6875,21.3751
14:25:16.248,-4.1875,22.6251
14:25:16.258,-2.75,24.0626
14:25:16.269,-3.5625,25.9376
14:25:16.278,-2.8125,26.6876
14:25:16.288,-2.3125,26.7501
14:25:16.297,-2.1875,28.7501
14:25:16.308,-1.875,28.6876
14:25:16.318,-1.8125,28.4376
14:25:16.327,-1.4375,29.8126
14:25:16.338,-1.0625,28.8751
14:25:16.348,-1.9375,27.9376
14:25:16.358,-2.5625,27.3751
14:25:16.368,-1.5,25.8126
14:25:16.378,-2.625,24.5626
14:25:16.389,-2.625,24.3126
14:25:16.396,-2.875,22.5626
14:25:16.408,-3.0625,22.1876
14:25:16.419,-3.5625,22.6251
14:25:16.429,-3.5625,20.8126
14:25:16.439,-3.125,19.3126
14:25:16.450,-3.125,20.1251
14:25:16.458,-3.0625,18.8126
14:25:16.468,-3.875,18.0626
14:25:16.478,-3.9375,17.2501
14:25:16.488,-3.9375,16.4376
14:25:16.498,-4.1875,15.2501
14:25:16.507,-4.375,14.3126
14:25:16.519,-3.4375,13.7501
14:25:16.528,-4.625,12.75
14:25:16.551,-4.75,11.9375
14:25:16.556,-4.5625,11.9375
14:25:16.565,-5.0625,9.9375
14:25:16.569,-5.5625,9.5625
14:25:16.602,-6,8.1875
14:25:16.602,-5.5625,6.6875
14:25:16.606,-6.4375,5.4375
14:25:16.640,-6.6875,5.5625
14:25:16.641,-6.125,3.875
14:25:16.643,-6.875,2.875
14:25:16.649,-7.375,1.3125
14:25:16.649,-6.8125,2.1875
14:25:16.682,-6.9375,-0.1875
14:25:16.683,-7.3125,-0.5625
14:25:16.687,-8.1875,-1.1875
14:25:16.688,-8.75,-2.1875
14:25:16.714,-8.375,-3.1875
14:25:16.715,-9.25,-4.25
14:25:16.720,-8.3125,-4.8125
14:25:16.740,-8.6875,-5.375
14:25:16.742,-9.75,-7.25
14:25:16.757,-9,-6.375
14:25:16.759,-9.125,-8.5625
14:25:16.767,-9.4375,-9.8125
14:25:16.778,-10.125,-10.1875
14:25:16.787,-10.3125,-10.375
14:25:16.799,-10.0625,-10.6875
14:25:16.809,-10.0625,-11.4375
14:25:16.818,-10.6875,-10.5625
14:25:16.828,-10.375,-13.1876
14:25:16.837,-10.625,-13.0625
14:25:16.848,-10.75,-12.625
14:25:16.858,-10.875,-14.6251
14:25:16.868,-10.625,-14.1876
14:25:16.878,-11.1875,-15.8751
14:25:16.890,-10.9375,-15.3751
14:25:16.902,-11.5625,-17.1876
14:25:16.907,-12.0625,-17.5001
14:25:16.917,-12.1875,-17.2501
14:25:16.929,-11.6875,-19.4376
14:25:16.948,-12.375,-18.4376
14:25:16.951,-12.1875,-19.5001
14:25:16.966,-12.5,-17.5626
14:25:16.970,-11.1875,-16.6876
14:25:16.978,-10.9375,-14.8751
14:25:16.991,-9.8125,-10.1875
14:25:16.996,-7.9375,-6.25
14:25:17.008,-8,-3.375
14:25:17.018,-7,1.625
14:25:17.026,-6.375,3.25
14:25:17.038,-5.4375,8.4375
14:25:17.049,-4.6875,10
14:25:17.058,-4,12.0625
14:25:17.067,-2.4375,14.5001
14:25:17.079,-2.25,16.2501
14:25:17.088,-1.5625,18.9376
14:25:17.098,-0.875,20.3751
14:25:17.110,-1.3125,21.8751
14:25:17.119,-1,23.2501
14:25:17.128,-0.125,24.7501
14:25:17.137,-0.25,25.0626
14:25:17.148,0.9375,27.1251
14:25:17.160,0.875,27.5626
14:25:17.168,0.5,28.0001
14:25:17.178,0.375,28.9376
14:25:17.188,0.4375,28.1876
14:25:17.199,0.75,27.9376
14:25:17.208,0.5625,28.6251
14:25:17.218,0.875,26.5626
14:25:17.229,-0.125,25.6876
14:25:17.238,-1.125,25.2501
14:25:17.248,-0.4375,23.6251
14:25:17.258,-1.1875,21.3126
14:25:17.293,-1.5,20.7501
14:25:17.295,-1.5,18.8751
14:25:17.299,-2.375,18.3751
14:25:17.305,-1.875,17.3751
14:25:17.329,-3.125,16.0626
14:25:17.330,-3.0625,16.1876
14:25:17.333,-3.0625,14.9376
14:25:17.338,-4,13.0625
14:25:17.365,-4.625,12.5
14:25:17.368,-5.125,11.625
14:25:17.370,-4.375,10.25
14:25:17.397,-5,9.125
14:25:17.400,-4.6875,9.1875
14:25:17.402,-6.1875,7.5
14:25:17.409,-6.4375,6.4375
14:25:17.438,-6,5.1875
14:25:17.441,-7.1875,3.625
14:25:17.443,-8.375,3.5625
14:25:17.482,-7.75,1.875
14:25:17.483,-8.4375,-0.1875
14:25:17.486,-9.0625,-0.4375
14:25:17.492,-9.3125,-2.5
14:25:17.495,-9.5,-2.875
14:25:17.498,-10.0625,-3.8125
14:25:17.508,-10.5625,-4.5
14:25:17.518,-11.1875,-6.375
14:25:17.528,-11.4375,-7.4375
14:25:17.536,-11.5625,-9.1875
14:25:17.548,-12.5,-9.3125
14:25:17.557,-11.9375,-10.25
14:25:17.568,-12.25,-11.875
14:25:17.577,-13.1251,-11.5
14:25:17.588,-12.875,-12.0625
14:25:17.598,-13,-14.0626
14:25:17.607,-13.7501,-14.3751
14:25:17.623,-12.9375,-15.8126
14:25:17.634,-13.7501,-17.3751
14:25:17.648,-14.1876,-16.9376
14:25:17.653,-14.3751,-17.1251
14:25:17.663,-14.9376,-19.1876
14:25:17.673,-14.7501,-19.1251
14:25:17.684,-15.2501,-20.6876
14:25:17.693,-15.2501,-21.2501
14:25:17.704,-15.1251,-22.3126
14:25:17.713,-16.0626,-22.5626
14:25:17.723,-15.6876,-23.3751
14:25:17.734,-16.5626,-23.3126
14:25:17.744,-16.0001,-24.1251
14:25:17.755,-16.1251,-25.6251
14:25:17.761,-17.4376,-25.3126
14:25:17.773,-16.7501,-27.4376
14:25:17.782,-17.6251,-27.5626
14:25:17.792,-18.0626,-27.6251
14:25:17.803,-18.3751,-29.9376
14:25:17.812,-17.4376,-29.0001
14:25:17.824,-18.0001,-30.0626
14:25:17.833,-17.6251,-28.1251
14:25:17.841,-16.9376,-26.1876
14:25:17.852,-16.4376,-23.0001
14:25:17.863,-15.6251,-19.4376
14:25:17.873,-14.3126,-15.5626
14:25:17.883,-13.6251,-12.125
14:25:17.893,-12.625,-7.5
14:25:17.903,-11.6875,-5.625
14:25:17.913,-11.25,-2.25
14:25:17.923,-10.4375,0
14:25:17.932,-10.125,2.25
14:25:17.943,-9.125,4.875
14:25:17.953,-8.375,5.9375
14:25:17.962,-8.5,7.875
14:25:17.972,-7.5625,8.9375
14:25:17.984,-7.875,9.4375
14:25:17.993,-7.625,11.8125
14:25:18.003,-6.8125,12.6875
14:25:18.013,-7,12.6875
14:25:18.024,-6.6875,14.8126
14:25:18.039,-6.8125,14.8126
14:25:18.053,-6.75,15.6251
14:25:18.056,-6.25,16.3751
14:25:18.088,-6.4375,14.6251
14:25:18.092,-6.75,15.1251
14:25:18.097,-6.4375,14.6251
14:25:18.100,-6.625,13.5001
14:25:18.113,-7.25,11.5625
14:25:18.115,-7.75,10.9375
14:25:18.143,-7.6875,10.125
14:25:18.146,-7.625,8.875
14:25:18.148,-8.875,8.1875
14:25:18.153,-8.25,7.75
14:25:18.183,-9.25,5.75
14:25:18.186,-10.1875,5.875
14:25:18.188,-9.0625,5.1875
14:25:18.194,-10.375,4.1875
14:25:18.228,-10.625,3.25
14:25:18.231,-10.375,3.125
14:25:18.245,-10.5,2.625
14:25:18.262,-11.25,1.5
14:25:18.264,-11.3125,1.1875
14:25:18.268,-10.5625,0.0625
14:25:18.272,-11.9375,0.5
14:25:18.274,-11.5,-1.5
14:25:18.282,-11.625,-2.6875
14:25:18.296,-11.8125,-2.25
14:25:18.305,-10.875,-3.3125
14:25:18.313,-12.0625,-4.25
14:25:18.323,-12.6875,-4.5
14:25:18.331,-12.4375,-6.0625
14:25:18.343,-13.0625,-7.1875
14:25:18.353,-13.1876,-6.9375
14:25:18.363,-13.0625,-8.9375
14:25:18.375,-13.6251,-9.8125
14:25:18.383,-13.6876,-10
14:25:18.398,-13.8126,-10.8125
14:25:18.403,-13.6251,-11.75
14:25:18.413,-14.1251,-12.875
14:25:18.423,-13.9376,-12.625
14:25:18.431,-14.4376,-13.7501
14:25:18.443,-14.0626,-14.3751
14:25:18.452,-15.0626,-15.1876
14:25:18.463,-14.3126,-15.0001
14:25:18.473,-14.4376,-16.4376
14:25:18.483,-14.6251,-15.3751
14:25:18.493,-14.3126,-17.0626
14:25:18.503,-14.2501,-18.1876
14:25:18.514,-14.3751,-17.3126
14:25:18.522,-14.5626,-19.4376
14:25:18.533,-14.4376,-18.3126
14:25:18.543,-14.1876,-19.1876
14:25:18.554,-14.7501,-19.5001
14:25:18.564,-14.5626,-20.3126
14:25:18.573,-15.3126,-20.8751
14:25:18.583,-13.8751,-21.0001
14:25:18.593,-14.6251,-22.4376
14:25:18.603,-14.8751,-22.0626
14:25:18.613,-14.6251,-23.0626
14:25:18.623,-15.3751,-24.8751
14:25:18.634,-15.1876,-22.8126
14:25:18.643,-15.3751,-25.0626
14:25:18.653,-15.3126,-24.7501
14:25:18.661,-15.1251,-25.3751
14:25:18.673,-15.3126,-24.6876
14:25:18.683,-14.1876,-23.5626
14:25:18.693,-14.0626,-19.9376
14:25:18.703,-12.3125,-16.3751
14:25:18.713,-12,-12.1875
14:25:18.721,-10,-8.3125
14:25:18.733,-9.5625,-5.1875
14:25:18.761,-9,-0.5625
14:25:18.762,-7.0625,1.375
14:25:18.766,-7.0625,4.5625
14:25:18.773,-6.375,6.3125
14:25:18.788,-5.25,7.5625
14:25:18.803,-4.4375,10.9375
14:25:18.804,-3.375,11.8125
14:25:18.813,-3.5625,13.6876
14:25:18.845,-2.3125,14.8126
14:25:18.847,-2.375,16.5626
14:25:18.848,-1.8125,18.4376
14:25:18.854,-1.1875,18.8751
14:25:18.864,-0.625,20.3126
14:25:18.894,-0.75,20.5626
14:25:18.896,0.1875,21.6251
14:25:18.900,-0.625,21.6251
14:25:18.907,0.3125,21.9376
14:25:18.932,0.4375,20.7501
14:25:18.934,-0.5625,19.8126
14:25:18.938,0.4375,20.6251
14:25:18.971,0.125,18.6251
14:25:18.971,-0.5625,18.6251
14:25:18.974,-0.875,16.9376
14:25:18.981,-0.9375,15.7501
14:25:18.989,-1.6875,16.1251
14:25:18.998,-1.625,14.7501
14:25:19.008,-1.6875,13.6251
14:25:19.018,-2.0625,12.0625
14:25:19.027,-1.8125,12.0625
14:25:19.037,-1.875,10.875
14:25:19.048,-2.625,9.625
14:25:19.058,-2.6875,10.25
14:25:19.069,-2.625,9.25
14:25:19.079,-2.9375,7.375
14:25:19.088,-3.125,6.125
14:25:19.098,-3.5,6.5625
14:25:19.110,-3,5.4375
14:25:19.119,-3.6875,4.5
14:25:19.128,-4.3125,2.5625
14:25:19.139,-5.1875,2.75
14:25:19.148,-4.75,1.0625
14:25:19.162,-5,0.5625
14:25:19.168,-4.8125,-0.625
14:25:19.178,-5.8125,-1.125
14:25:19.188,-5.875,-1.875
14:25:19.197,-5.875,-3.5
14:25:19.208,-6.8125,-3.0625
14:25:19.217,-6.8125,-4.25
14:25:19.229,-6.5625,-6
14:25:19.238,-6.9375,-5.125
14:25:19.248,-6.25,-6.5625
14:25:19.258,-7.75,-8.0625
14:25:19.268,-7.6875,-7.875
14:25:19.278,-8,-9.8125
14:25:19.287,-8.5625,-9.0625
14:25:19.298,-7.875,-10.4375
14:25:19.308,-8.3125,-11.8125
14:25:19.317,-8.9375,-12.5
14:25:19.334,-8.75,-11.875
14:25:19.348,-8.75,-13.8126
14:25:19.351,-9.0625,-13.0625
14:25:19.359,-9.625,-15.3126
14:25:19.367,-9.9375,-15.2501
14:25:19.380,-10.125,-16.3751
14:25:19.388,-9.9375,-17.2501
14:25:19.399,-9.8125,-17.5626
14:25:19.408,-10.25,-17.5626
14:25:19.418,-10.625,-18.5626
14:25:19.428,-9.8125,-18.8126
14:25:19.437,-10.3125,-19.1876
14:25:19.448,-9.9375,-20.1251
14:25:19.467,-11.25,-20.0626
14:25:19.469,-10.5625,-21.0626
14:25:19.497,-11.8125,-21.3126
14:25:19.499,-11.9375,-20.6876
14:25:19.502,-11.4375,-23.0626
14:25:19.508,-12,-24.5626
14:25:19.541,-11.6875,-23.5001
14:25:19.543,-12.25,-24.2501
14:25:19.574,-11.875,-22.3751
14:25:19.578,-11.1875,-20.8751
14:25:19.611,-10.4375,-18.0626
14:25:19.611,-9.25,-13.3751
14:25:19.611,-8.0625,-10.5
14:25:19.615,-7.1875,-4.8125
14:25:19.615,-5.5,-2.25
14:25:19.641,-4.875,2.3125
14:25:19.641,-4.125,4.9375
14:25:19.642,-3.1875,6.0625
14:25:19.645,-2.125,10.1875
14:25:19.650,-0.9375,12.1875
14:25:19.661,-0.75,13.8126
14:25:19.669,0.1875,16.9376
14:25:19.677,0.625,17.4376
14:25:19.688,0.875,20.3126
14:25:19.699,1.9375,21.1251
14:25:19.707,1.9375,21.7501
14:25:19.717,2.8125,23.5626
14:25:19.728,2.625,24.8751
14:25:19.738,2.875,25.6251
14:25:19.747,4.3125,26.3751
14:25:19.759,3.8125,26.5626
14:25:19.768,3.5625,26.7501
14:25:19.779,3.5625,26.1251
14:25:19.788,3.875,25.1251
14:25:19.799,3.6875,24.8751
14:25:19.809,3.625,23.8126
14:25:19.818,3.3125,22.8751
14:25:19.829,2.625,21.5001
14:25:19.838,2.5,20.5626
14:25:19.849,2.4375,18.6251
14:25:19.861,2.3125,18.6251
14:25:19.871,2.125,17.5001
14:25:19.878,2.0625,16.3126
14:25:19.888,1.1875,15.3751
14:25:19.897,0.9375,16.0001
14:25:19.908,0.375,14.5001
14:25:19.918,0.375,13.0625
14:25:19.927,0,11.875
14:25:19.939,-0.3125,12.4375
14:25:19.949,-0.375,11
14:25:19.959,-0.4375,10.375
14:25:19.968,-0.0625,9.5
14:25:19.976,-1.1875,8.125
14:25:19.988,-0.8125,8.3125
14:25:19.998,-0.3125,7.375
14:25:20.008,-1.1875,5.5
14:25:20.042,-1.625,5
14:25:20.044,-2.125,4.8125
14:25:20.045,-1.8125,2.9375
14:25:20.050,-2,2
14:25:20.060,-2.25,0.6875
14:25:20.069,-2.875,1.0625
14:25:20.078,-3.375,-0.375
14:25:20.088,-3.5,-1.625
14:25:20.097,-3.375,-2.4375
14:25:20.108,-3.8125,-3.875
14:25:20.119,-4.125,-3.625
14:25:20.128,-3.625,-4.8125
14:25:20.139,-4.5625,-5.9375
14:25:20.148,-5.1875,-5.3125
14:25:20.158,-4.75,-6.6875
14:25:20.167,-5.4375,-8.125
14:25:20.178,-6.25,-8.9375
14:25:20.187,-5.9375,-9.1875
14:25:20.198,-5.6875,-10.5
14:25:20.208,-5.8125,-12.0625
14:25:20.218,-6.375,-11.9375
14:25:20.228,-5.5625,-12
14:25:20.238,-6.375,-13.0625
14:25:20.248,-6.5,-12.375
14:25:20.263,-6.125,-13.5626
14:25:20.290,-6.75,-13.3126
14:25:20.292,-6.625,-15.0626
14:25:20.294,-7,-15.4376
14:25:20.296,-6.625,-15.3126
14:25:20.315,-7,-16.5626
14:25:20.328,-6.875,-17.1876
14:25:20.329,-6.8125,-17.8751
14:25:20.362,-7.625,-17.0001
14:25:20.366,-7.3125,-18.6251
14:25:20.368,-7.9375,-20.2501
14:25:20.368,-8.25,-18.6876
14:25:20.394,-8.5,-20.5626
14:25:20.397,-8.625,-21.4376
14:25:20.399,-8.9375,-20.8126
14:25:20.428,-8.9375,-21.8126
14:25:20.431,-8.25,-19.7501
14:25:20.433,-8.1875,-18.8126
14:25:20.439,-8,-14.6876
14:25:20.448,-7.4375,-10.375
14:25:20.457,-5.875,-7.9375
14:25:20.468,-4.1875,-2.9375
14:25:20.477,-3,0.0625
14:25:20.488,-3.1875,4.9375
14:25:20.499,-1.4375,5.875
14:25:20.508,-1.625,8.375
14:25:20.518,-0.3125,11.5
14:25:20.528,-0.125,14.2501
14:25:20.539,0.625,15.1251
14:25:20.548,1.125,17.9376
14:25:20.556,1.875,19.9376
14:25:20.567,2.625,20.1251
14:25:20.578,2.0625,21.6876
14:25:20.588,2.375,23.8751
14:25:20.596,3.3125,23.7501
14:25:20.608,2.5625,25.7501
14:25:20.629,3.9375,25.4376
14:25:20.635,3.0625,26.2501
14:25:20.643,4.0625,26.8751
14:25:20.648,3.6875,25.9376
14:25:20.665,3.5625,25.8126
14:25:20.672,3.5625,25.5001
14:25:20.681,2.875,24.0001
14:25:20.689,2.5,22.8751
14:25:20.699,1.875,21.0001
14:25:20.707,1,20.9376
14:25:20.717,1.3125,18.8126
14:25:20.728,0.8125,17.1251
14:25:20.738,0.0625,17.1876
14:25:20.747,-0.0625,16.5001
14:25:20.758,-0.1875,15.4376
14:25:20.768,-0.6875,13.8126
14:25:20.778,-1.3125,12.4375
14:25:20.788,-1.75,12.625
14:25:20.797,-2.0625,12.125
14:25:20.808,-1.4375,11.125
14:25:20.826,-2.5625,9.0625
14:25:20.840,-2.5625,8.4375
14:25:20.854,-3.375,7.6875
14:25:20.861,-4.0625,7.4375
14:25:20.863,-3.8125,5.5625
14:25:20.879,-4.375,4.375
14:25:20.893,-4.875,3.6875
14:25:20.895,-5.3125,2.5625
14:25:20.900,-5.625,2.625
14:25:20.908,-5,0.5625
14:25:20.918,-6.375,-0.9375
14:25:20.929,-6.5625,-2.8125
14:25:20.939,-7.25,-1.8125
14:25:20.949,-6.6875,-3.1875
14:25:20.958,-8.125,-5.4375
14:25:20.969,-8.5,-5.9375
14:25:20.978,-8.0625,-7.625
14:25:20.987,-8.6875,-8.5
14:25:20.998,-9,-9
14:25:21.007,-9.875,-9.1875
14:25:21.021,-10.125,-10.8125
14:25:21.049,-10.125,-11.875
14:25:21.051,-10,-11.375
14:25:21.054,-10.125,-11.875
14:25:21.058,-10.6875,-13.125
14:25:21.090,-10.3125,-14.7501
14:25:21.092,-10.375,-13.8751
14:25:21.094,-10.6875,-15.4376
14:25:21.099,-10.9375,-16.2501
14:25:21.129,-10.3125,-16.9376
14:25:21.133,-11.5625,-18.0001
14:25:21.134,-12.0625,-18.5001
14:25:21.140,-12.125,-19.2501
14:25:21.167,-11.5,-20.0001
14:25:21.168,-12.875,-20.2501
14:25:21.171,-12.375,-20.3126
14:25:21.198,-12.5,-21.9376
14:25:21.198,-12.9375,-21.5626
14:25:21.203,-13,-22.6876
14:25:21.207,-13.7501,-23.2501
14:25:21.218,-13.3126,-23.6876
14:25:21.229,-13.5626,-25.2501
14:25:21.239,-13.9376,-24.8126
14:25:21.248,-13.7501,-24.6876
14:25:21.259,-14.3126,-26.3126
14:25:21.267,-14.0001,-25.5001
14:25:21.278,-13.6876,-26.0001
14:25:21.288,-14.0001,-26.6251
14:25:21.321,-13.5626,-24.0626
14:25:21.324,-12.9375,-22.5626
14:25:21.324,-12.9375,-18.6876
14:25:21.331,-11.5625,-15.5001
14:25:21.344,-10.0625,-11.1875
14:25:21.350,-9.375,-7.1875
14:25:21.358,-7.875,-4.4375
14:25:21.368,-7.75,1.0625
14:25:21.378,-6.5625,2.5
14:25:21.388,-6.0625,4.4375
14:25:21.398,-4.75,7.75
14:25:21.408,-4.125,9.1875
14:25:21.418,-4.625,11.75
14:25:21.428,-2.9375,13
14:25:21.439,-2.5625,14.8751
14:25:21.447,-2.75,15.5001
14:25:21.459,-2.0625,18.3751
14:25:21.468,-0.9375,19.1876
14:25:21.476,-1.125,19.4376
14:25:21.488,-0.75,20.1251
14:25:21.498,-1.0625,22.5626
14:25:21.508,0.25,21.7501
14:25:21.519,-0.3125,22.6251
14:25:21.527,0.6875,22.6251
14:25:21.537,-0.0625,22.5001
14:25:21.548,-0.8125,22.0001
14:25:21.558,-0.4375,20.6876
14:25:21.568,-1.125,18.6876
14:25:21.578,-1.375,18.7501
14:25:21.591,-0.75,18.2501
14:25:21.597,-1.8125,17.3751
14:25:21.609,-1.125,16.5001
14:25:21.619,-2.0625,15.5001
14:25:21.656,-2.8125,15.3751
14:25:21.659,-2.3125,14.1251
14:25:21.660,-2.375,12.625
14:25:21.665,-2.1875,13.4376
14:25:21.699,-3.1875,11.875
14:25:21.702,-3.75,12
14:25:21.704,-2.9375,11.4375
14:25:21.707,-3.6875,9.625
14:25:21.714,-4,7.9375
14:25:21.745,-4.4375,9.125
14:25:21.747,-4.0625,7.5625
14:25:21.749,-4.9375,6.8125
14:25:21.756,-4.75,6.625
14:25:21.768,-4.9375,4.6875
14:25:21.775,-5.75,3.9375
14:25:21.809,-5.625,3.9375
14:25:21.810,-6.4375,3.8125
14:25:21.812,-6.3125,2.3125
14:25:21.818,-6.875,1.0625
14:25:21.829,-5.8125,0.3125
14:25:21.835,-6.5,-0.5
14:25:21.845,-6.6875,0.0625
14:25:21.854,-6.25,-0.5
14:25:21.863,-6.75,-2.25
14:25:21.874,-6.9375,-0.625
14:25:21.883,-6.4375,-1.6875
14:25:21.893,-6.125,-2.375
14:25:21.904,-5.625,-2
14:25:21.913,-5.625,-1.4375
14:25:21.923,-5.125,-2
14:25:21.932,-5,-2.25
14:25:21.942,-4.8125,-0.8125
14:25:21.957,-4.875,-2.125
14:25:21.965,-4.8125,-1.3125
14:25:21.981,-5.0625,0.5
14:25:21.996,-4,0.125
14:25:21.999,-4,-0.25
14:25:22.013,-4.6875,0.875
14:25:22.016,-4.9375,0.1875
14:25:22.023,-5.5,-1
14:25:22.032,-6.5,-1.875
14:25:22.043,-6.5,-1.75
14:25:22.053,-7.875,-3.0625
14:25:22.062,-9.3125,-4.3125
14:25:22.073,-9,-4.25
14:25:22.083,-10.3125,-4.4375
14:25:22.093,-9.875,-5.3125
14:25:22.103,-11.3125,-6.1875
14:25:22.113,-13.1876,-7.6875
14:25:22.123,-13.4376,-6.6875
14:25:22.133,-14.2501,-8.125
14:25:22.144,-16.0001,-9.3125
14:25:22.161,-18.5626,-10
14:25:22.163,-19.5001,-8.6875
14:25:22.178,-19.4376,-8
14:25:22.197,-20.2501,-5.625
14:25:22.197,-19.5001,-3.1875
14:25:22.205,-20.1876,-0.625
14:25:22.213,-21.2501,1.8125
14:25:22.224,-21.3126,1.4375
14:25:22.232,-21.7501,4.25
14:25:22.243,-21.0626,4.5625
14:25:22.253,-21.0001,5.625
14:25:22.262,-21.3126,7.5625
14:25:22.274,-21.5001,7.875
14:25:22.283,-20.7501,10.375
14:25:22.292,-20.9376,10.5625
14:25:22.303,-21.0001,13.5626
14:25:22.313,-21.3126,14.0626
14:25:22.322,-20.6876,16.3751
14:25:22.333,-20.6251,18.0001
14:25:22.344,-19.6251,18.6876
14:25:22.353,-20.7501,20.6251
14:25:22.363,-20.3751,19.5001
14:25:22.373,-20.6876,18.6876
14:25:22.383,-20.5626,19.5001
14:25:22.393,-20.3126,18.4376
14:25:22.403,-21.5001,17.8126
14:25:22.425,-22.1876,17.1876
14:25:22.427,-21.8126,15.4376
14:25:22.433,-22.5001,14.1876
14:25:22.463,-22.8126,14.0626
14:25:22.466,-22.5001,13.2501
14:25:22.468,-24.1251,11.875
14:25:22.474,-24.8126,12.875
14:25:22.507,-24.1876,10.9375
14:25:22.508,-24.3126,9.375
14:25:22.511,-25.6251,9.625
14:25:22.515,-25.3751,9.1875
14:25:22.527,-25.9376,7.1875
14:25:22.533,-27.3126,5.4375
14:25:22.571,-26.9376,5.125
14:25:22.572,-28.1876,4.25
14:25:22.573,-29.4376,2.5
14:25:22.601,-29.5001,1.5
14:25:22.603,-29.6251,0.0625
14:25:22.604,-29.9376,-2.625
14:25:22.612,-30.3751,-2.5625
14:25:22.614,-31.0626,-4.0625
14:25:22.623,-31.4376,-5.1875
14:25:22.633,-32.1876,-4.75
14:25:22.643,-30.9376,-6.3125
14:25:22.653,-32.0626,-7.8125
14:25:22.662,-32.5001,-8.375
14:25:22.673,-31.8126,-9.25
14:25:22.684,-33.1251,-9.9375
14:25:22.693,-31.7501,-11.25
14:25:22.704,-33.6876,-11.875
14:25:22.719,-34.5626,-13.3126
14:25:22.721,-34.3126,-16.0001
14:25:22.733,-35.1251,-17.2501
14:25:22.743,-34.3126,-17.6251
14:25:22.753,-35.0001,-18.8751
14:25:22.764,-35.6251,-19.3126
14:25:22.773,-35.6251,-20.3126
14:25:22.783,-35.6876,-20.5626
14:25:22.793,-34.4376,-20.9376
14:25:22.804,-36.1876,-22.2501
14:25:22.813,-36.4376,-22.4376
14:25:22.823,-35.8751,-23.8751
14:25:22.833,-36.6251,-24.4376
14:25:22.844,-36.6251,-25.6251
14:25:22.853,-37.0001,-26.2501
14:25:22.864,-37.8126,-26.6251
14:25:22.873,-36.4376,-27.0001
14:25:22.883,-37.1876,-27.8126
14:25:22.893,-37.8126,-28.1876
14:25:22.903,-38.0001,-28.5626
14:25:22.913,-37.9376,-29.3126
14:25:22.923,-37.6876,-28.4376
14:25:22.933,-37.4376,-30.0001
14:25:22.943,-36.8751,-28.6876
14:25:22.953,-36.6876,-29.3126
14:25:22.964,-37.3751,-29.6876
14:25:22.973,-36.5626,-29.5626
14:25:22.983,-36.7501,-28.9376
14:25:22.993,-36.3751,-29.0626
14:25:23.004,-36.5001,-29.0001
14:25:23.013,-36.1251,-27.5626
14:25:23.023,-35.8126,-25.4376
14:25:23.033,-34.3751,-22.5001
14:25:23.043,-33.3126,-20.3751
14:25:23.053,-31.9376,-15.1876
14:25:23.063,-31.1876,-13
14:25:23.073,-30.6876,-7.6875
14:25:23.083,-28.6251,-5.0625
14:25:23.095,-27.6251,-2.5625
14:25:23.104,-26.1251,1.75
14:25:23.113,-25.9376,2.75
14:25:23.123,-24.3126,6.9375
14:25:23.133,-23.4376,8.9375
14:25:23.143,-22.1876,10.6875
14:25:23.153,-20.9376,13.3751
14:25:23.185,-20.9376,14.5001
14:25:23.187,-20.6251,18.1251
14:25:23.189,-19.6251,18.3751
14:25:23.193,-18.3751,19.6876
14:25:23.224,-18.1876,21.3751
14:25:23.227,-17.1251,21.5626
14:25:23.228,-16.8126,23.3126
14:25:23.235,-16.5001,23.5626
14:25:23.261,-15.1876,24.3126
14:25:23.264,-15.6251,23.5626
14:25:23.266,-16.1876,23.2501
14:25:23.346,-15.8751,22.7501
14:25:23.348,-15.3751,22.4376
14:25:23.363,-15.3751,20.0001
14:25:23.365,-15.8126,20.7501
14:25:23.366,-15.7501,19.2501
14:25:23.366,-16.6876,18.1876
14:25:23.373,-17.0626,18.0001
14:25:23.383,-16.6876,16.3126
14:25:23.393,-17.1251,14.9376
14:25:23.403,-17.2501,14.5001
14:25:23.415,-17.3751,13.5626
14:25:23.424,-17.8126,12.25
14:25:23.433,-18.3751,12.8125
14:25:23.444,-18.3126,11.625
14:25:23.453,-18.8751,10.4375
14:25:23.471,-19.0001,10.1875
14:25:23.485,-19.0001,9.5
14:25:23.492,-19.1876,8.0625
14:25:23.503,-20.0001,7
14:25:23.518,-20.6876,6
14:25:23.520,-21.0001,5
14:25:23.527,-21.3751,4.4375
14:25:23.533,-23.4376,0.9375
14:25:23.543,-23.3126,0.875
14:25:23.553,-23.6251,0.125
14:25:23.563,-24.0626,-1.25
14:25:23.573,-24.6251,-1.875
14:25:23.583,-24.5626,-3.6875
14:25:23.593,-24.8126,-5.1875
14:25:23.604,-24.6251,-4.4375
14:25:23.613,-25.0001,-7.4375
14:25:23.623,-25.3751,-7.4375
14:25:23.633,-24.6876,-8.4375
14:25:23.643,-24.8751,-9.0625
14:25:23.653,-25.0626,-10.0625
14:25:23.663,-25.1251,-9.875
14:25:23.673,-25.6876,-11.25
14:25:23.683,-25.0626,-11.4375
14:25:23.693,-24.6876,-13.0625
14:25:23.703,-25.1876,-13.3751
14:25:23.714,-25.6251,-14.1251
14:25:23.723,-25.6251,-15.4376
14:25:23.733,-26.0626,-14.3126
14:25:23.743,-25.6876,-16.2501
14:25:23.753,-26.3126,-16.1876
14:25:23.763,-26.1251,-16.8126
14:25:23.773,-26.2501,-18.0001
14:25:23.784,-27.0001,-17.1251
14:25:23.793,-26.3126,-19.1251
14:25:23.803,-26.7501,-19.1251
14:25:23.813,-26.9376,-20.1251
14:25:23.823,-26.9376,-19.5001
14:25:23.833,-26.1251,-19.7501
14:25:23.844,-26.3751,-20.6251
14:25:23.853,-26.1251,-19.2501
14:25:23.881,-26.9376,-18.5001
14:25:23.885,-25.4376,-17.0626
14:25:23.885,-25.0001,-14.7501
14:25:23.909,-24.5626,-9.9375
14:25:23.913,-23.1876,-7
14:25:23.915,-21.7501,-4.3125
14:25:23.945,-20.6251,0.0625
14:25:23.945,-19.6251,2.625
14:25:23.947,-18.5001,7.0625
14:25:23.953,-17.0626,9.75
14:25:23.963,-16.7501,11.375
14:25:23.996,-16.1876,14.6876
14:25:23.998,-15.0001,16.7501
14:25:24.000,-14.1876,18.2501
14:25:24.003,-12.6875,21.2501
14:25:24.037,-12.5625,22.0001
14:25:24.040,-11.9375,23.3751
14:25:24.041,-10,25.3126
14:25:24.047,-10.25,27.9376
14:25:24.055,-9.25,29.1876
14:25:24.063,-8.1875,29.4376
14:25:24.073,-8.4375,29.3126
14:25:24.083,-8,31.1251
14:25:24.093,-7.875,30.6251
14:25:24.103,-7.875,31.2501
14:25:24.113,-7,30.7501
14:25:24.123,-7.5,29.4376
14:25:24.133,-8.1875,30.0001
14:25:24.143,-7.5625,28.1876
14:25:24.154,-8,25.8126
14:25:24.163,-9.0625,24.7501
14:25:24.174,-9.375,24.0001
14:25:24.184,-10,24.8126
14:25:24.193,-8.375,22.6876
14:25:24.203,-9.6875,21.8126
14:25:24.219,-10.0625,21.1251
14:25:24.222,-10.625,20.6876
14:25:24.233,-10.5625,19.2501
14:25:24.244,-10.8125,19.7501
14:25:24.253,-10.3125,18.8751
14:25:24.263,-11.125,17.1251
14:25:24.275,-11.8125,17.8751
14:25:24.284,-11.375,16.1251
14:25:24.293,-11.8125,14.5001
14:25:24.304,-11.75,15.4376
14:25:24.314,-12.375,13.4376
14:25:24.323,-12.875,12.75
14:25:24.333,-13.4376,11.6875
14:25:24.345,-13.1876,10.125
14:25:24.353,-13.5626,10.1875
14:25:24.364,-13.7501,9.25
14:25:24.374,-13.6251,8.375
14:25:24.385,-13.9376,7.0625
14:25:24.393,-14.9376,6.4375
14:25:24.403,-14.8126,5.875
14:25:24.413,-15.3126,3.625
14:25:24.424,-15.1876,4.625
14:25:24.433,-15.3751,2.1875
14:25:24.443,-16.0001,1.0625
14:25:24.453,-16.0626,0.125
14:25:24.463,-16.6876,-1.25
14:25:24.473,-16.7501,-3
14:25:24.483,-16.8126,-2.3125
14:25:24.494,-15.8126,-3.6875
14:25:24.504,-17.1251,-5.375
14:25:24.513,-17.7501,-4.125
14:25:24.524,-17.3751,-6.3125
14:25:24.533,-17.5626,-7.3125
14:25:24.544,-18.0626,-7.625
14:25:24.553,-17.5626,-8.3125
14:25:24.564,-17.8126,-9.25
14:25:24.573,-18.2501,-9.8125
14:25:24.583,-18.5626,-10
14:25:24.593,-17.3751,-10.8125
14:25:24.629,-19.0001,-11.8125
14:25:24.757,-19.3751,-11.25
14:25:24.757,-18.8751,-12.4375
14:25:24.757,-19.6251,-13.8126
14:25:24.776,-19.6876,-13.2501
14:25:24.779,-19.4376,-14.6251
14:25:24.779,-19.6876,-14.3751
14:25:24.780,-19.0001,-13.4376
14:25:24.783,-19.3751,-12.5625
14:25:24.802,-18.7501,-11.1875
14:25:24.806,-18.4376,-10.0625
14:25:24.821,-17.8126,-6.3125
14:25:24.836,-16.7501,-3.5625
14:25:24.837,-16.3126,1.25
14:25:24.845,-14.5001,3.625
14:25:24.853,-13.5001,7.25
14:25:24.863,-12.75,10.75
14:25:24.873,-11.5625,13.9376
14:25:24.883,-10.9375,18.1251
14:25:24.894,-10.25,20.3751
14:25:24.903,-9,22.6251
14:25:24.913,-8.4375,24.9376
14:25:24.924,-7.9375,26.8751
14:25:24.933,-4,49.3127
14:25:24.944,-3.6875,47.3127
14:25:24.953,-4.1875,47.1877
14:25:24.963,-4.4375,45.9377
14:25:24.973,-4.625,44.0002
14:25:24.983,-5.3125,43.3752
14:25:24.994,-5.375,41.8127
14:25:25.003,-5.5,40.2502
14:25:25.013,-6.0625,38.3126
14:25:25.024,-6.8125,38.8751
14:25:25.033,-7.1875,36.3126
14:25:25.043,-6.875,36.6876
14:25:25.053,-6.4375,35.3126
14:25:25.063,-7.125,34.0626
14:25:25.073,-7.75,34.1876
14:25:25.083,-7.875,31.7501
14:25:25.095,-8.3125,30.0001
14:25:25.103,-8.9375,30.5626
14:25:25.113,-8.8125,28.6876
14:25:25.124,-9.6875,27.1251
14:25:25.134,-9.8125,27.4376
14:25:25.160,-9.3125,24.5626
14:25:25.162,-10.5625,24.7501
14:25:25.164,-10.5,22.8751
14:25:25.181,-9.6875,22.3126
14:25:25.183,-10.4375,20.6251
14:25:25.194,-12,19.3126
14:25:25.203,-11.6875,18.0001
14:25:25.213,-11.875,16.6876
14:25:25.223,-12.3125,15.8751
14:25:25.234,-12.6875,14.9376
14:25:25.243,-12.625,13.0625
14:25:25.253,-12.75,12.4375
14:25:25.264,-13.5001,11.5
14:25:25.273,-13.5626,9.5625
14:25:25.283,-14.5001,9.1875
14:25:25.293,-14.3751,8.25
14:25:25.304,-14.1251,6.25
14:25:25.313,-14.6251,4.3125
14:25:25.323,-15.2501,4.3125
14:25:25.334,-15.0626,3
14:25:25.344,-16.0626,1.25
14:25:25.369,-16.5001,1.875
14:25:25.371,-15.8126,-0.5
14:25:25.374,-16.8126,-1
14:25:25.404,-16.7501,-2.6875
14:25:25.408,-16.5626,-4.4375
14:25:25.408,-16.5001,-4.1875
14:25:25.414,-17.0001,-6
14:25:25.444,-17.8751,-7.4375
14:25:25.449,-17.8126,-7.4375
14:25:25.450,-17.4376,-7.1875
14:25:25.458,-17.8126,-9
14:25:25.463,-18.1876,-8.1875
14:25:25.490,-17.3751,-8.3125
14:25:25.494,-18.6876,-9.875
14:25:25.496,-18.6876,-9.8125
14:25:25.525,-17.9376,-10.5
14:25:25.528,-17.9376,-11.375
14:25:25.530,-18.0626,-10.875
14:25:25.533,-18.7501,-8.625
14:25:25.543,-18.2501,-9.625
14:25:25.553,-17.8126,-5.25
14:25:25.563,-16.2501,-2.75
14:25:25.573,-15.6876,0.375
14:25:25.584,-14.3126,5.375
14:25:25.593,-13.3751,8.125
14:25:25.604,-12.25,11.75
14:25:25.613,-10.5625,16.1251
14:25:25.624,-10.625,18.8751
14:25:25.633,-8.4375,22.0001
14:25:25.643,-8.625,25.4376
14:25:25.655,-7.6875,28.1876
14:25:25.663,-6.5625,29.0001
14:25:25.675,-6.625,33.0626
14:25:25.683,-5.125,34.3751
14:25:25.693,-4.4375,36.1251
14:25:25.703,-3.1875,38.8126
14:25:25.713,-3.0625,39.6877
14:25:25.723,-2.6875,42.5627
14:25:25.733,-1.125,44.0002
14:25:25.743,-1.5625,43.6877
14:25:25.753,-1.75,45.6877
14:25:25.764,-0.625,45.5002
14:25:25.779,-1.0625,45.9377
14:25:25.790,-0.75,45.4377
14:25:25.800,-1.1875,44.6252
14:25:25.808,-1.0625,44.0002
14:25:25.818,-1,43.3127
14:25:25.829,-2.1875,42.1877
14:25:25.838,-2.3125,41.3752
14:25:25.848,-2.875,38.7501
14:25:25.858,-2.375,37.0001
14:25:25.868,-3.375,36.2501
14:25:25.880,-3.9375,35.8126
14:25:25.888,-4.5,34.5626
14:25:25.899,-5.0625,32.6876
14:25:25.908,-5.0625,32.0626
14:25:25.918,-5.875,30.9376
14:25:25.929,-7,28.5626
14:25:25.938,-7.6875,29.0001
14:25:25.948,-8.25,26.2501
14:25:25.959,-8.75,25.6251
14:25:25.968,-9,25.0626
14:25:25.978,-9.25,22.9376
14:25:25.996,-9.875,22.0001
14:25:26.001,-10.375,21.0626
14:25:26.009,-10.625,19.1251
14:25:26.018,-11.25,18.1876
14:25:26.033,-11.875,17.1251
14:25:26.076,-11.875,14.9376
14:25:26.079,-11.75,14.2501
14:25:26.081,-12.9375,12.5
14:25:26.084,-13.6876,11.4375
14:25:26.084,-13.8751,10.8125
14:25:26.089,-14.3126,8.9375
14:25:26.119,-14.9376,8.8125
14:25:26.153,-15.5001,6.4375
14:25:26.155,-15.8751,5
14:25:26.224,-16.2501,3.875
14:25:26.225,-16.8126,3.0625
14:25:26.239,-17.5626,1.4375
14:25:26.239,-17.6251,-0.0625
14:25:26.241,-18.0001,0.625
14:25:26.243,-18.1251,-1.375
14:25:26.251,-18.0626,-3.3125
14:25:26.251,-19.1876,-5.1875
14:25:26.251,-19.7501,-4.6875
14:25:26.261,-19.6876,-5.25
14:25:26.268,-20.0626,-5.875
14:25:26.278,-19.9376,-8.4375
14:25:26.288,-20.1876,-9.875
14:25:26.303,-21.3126,-9.375
14:25:26.308,-20.5001,-11.6875
14:25:26.318,-21.5626,-12.875
14:25:26.328,-21.6251,-13
14:25:26.339,-21.6251,-14.1876
14:25:26.348,-21.6251,-14.2501
14:25:26.358,-21.3751,-16.0001
14:25:26.368,-23.1876,-20.1876
14:25:26.378,-23.8751,-18.8751
14:25:26.388,-23.7501,-19.0626
14:25:26.398,-23.0626,-19.1251
14:25:26.408,-23.5001,-20.2501
14:25:26.441,-23.5626,-15.8126
14:25:26.444,-22.1251,-10.6875
14:25:26.446,-21.1251,-7.875
14:25:26.448,-19.6876,-4.25
14:25:26.459,-17.9376,0.5625
14:25:26.469,-17.7501,3
14:25:26.478,-16.5001,7.625
14:25:26.488,-15.4376,10
14:25:26.498,-15.2501,12
14:25:26.508,-13.9376,15.5626
14:25:26.518,-13.3126,17.0626
14:25:26.528,-12.25,21.0626
14:25:26.538,-11.75,21.9376
14:25:26.548,-11.1875,23.3126
14:25:26.559,-9.8125,25.5626
14:25:26.569,-9.8125,26.8751
14:25:26.578,-9.875,29.6876
14:25:26.588,-8.75,29.8751
14:25:26.599,-8.9375,30.1876
14:25:26.608,-8.375,31.9376
14:25:26.618,-7.875,31.6876
14:25:26.628,-8,32.5626
14:25:26.639,-7.6875,32.2501
14:25:26.649,-7.5625,31.8126
14:25:26.658,-8,32.3126
14:25:26.668,-7.9375,30.3751
14:25:26.683,-8.25,28.2501
14:25:26.688,-8.3125,27.3126
14:25:26.698,-8.4375,26.1251
14:25:26.708,-8.375,24.6876
14:25:26.718,-9.4375,23.7501
14:25:26.728,-9.4375,23.6251
14:25:26.739,-9.9375,21.1876
14:25:26.748,-10.8125,20.0001
14:25:26.758,-11.0625,19.9376
14:25:26.768,-11.1875,18.4376
14:25:26.779,-11.8125,17.4376
14:25:26.792,-12.1875,17.1251
14:25:26.798,-11.5625,15.3751
14:25:26.832,-13.1876,13.7501
14:25:26.833,-13,13.1876
14:25:26.835,-13.3126,12
14:25:26.841,-13.4376,10.6875
14:25:26.849,-13.6876,10.125
14:25:26.863,-14.0001,8.5625
14:25:26.870,-14.3751,8
14:25:26.900,-14.5001,7.125
14:25:26.905,-14.8751,4.75
14:25:26.905,-15.6876,3.5625
14:25:26.913,-16.0001,4.1875
14:25:26.925,-16.2501,1.4375
14:25:26.929,-17.4376,0.875
14:25:26.962,-17.0626,-0.25
14:25:26.964,-17.4376,-1.875
14:25:26.966,-18.0001,-3.25
14:25:26.974,-18.3751,-3.4375
14:25:26.978,-17.7501,-4.0625
14:25:26.988,-18.8751,-6
14:25:26.998,-19.7501,-7.1875
14:25:27.008,-19.6876,-8
14:25:27.018,-19.8126,-9
14:25:27.028,-20.5001,-8.8125
14:25:27.038,-20.1876,-10.1875
14:25:27.048,-20.4376,-12.0625
14:25:27.059,-21.0001,-13.5626
14:25:27.069,-21.8126,-13.1251
14:25:27.078,-21.1251,-14.3126
14:25:27.088,-21.4376,-15.1251
14:25:27.098,-22.3751,-15.6876
14:25:27.108,-22.1876,-17.1251
14:25:27.118,-22.7501,-18.7501
14:25:27.128,-22.5626,-17.9376
14:25:27.138,-22.6876,-19.4376
14:25:27.148,-22.9376,-20.2501
14:25:27.158,-23.5626,-21.5626
14:25:27.168,-23.1876,-22.2501
14:25:27.178,-23.6876,-22.5626
14:25:27.188,-23.7501,-23.1251
14:25:27.198,-22.6876,-23.4376
14:25:27.208,-23.5626,-24.6251
14:25:27.218,-23.6876,-23.1251
14:25:27.229,-23.1876,-22.6876
14:25:27.239,-22.8126,-23.5626
14:25:27.248,-22.0626,-20.7501
14:25:27.258,-22.0001,-18.3751
14:25:27.268,-21.0001,-14.9376
14:25:27.278,-19.3751,-10.1875
14:25:27.288,-19.3126,-6.5
14:25:27.302,-17.6876,-2.625
14:25:27.319,-15.7501,1.125
14:25:27.325,-15.8751,3.8125
14:25:27.332,-14.6251,7.4375
14:25:27.338,-12.625,11
14:25:27.355,-12.9375,12.8125
14:25:27.362,-11.875,15.6251
14:25:27.370,-10.125,17.1251
14:25:27.378,-10.75,19.6251
14:25:27.388,-9.5,21.5001
14:25:27.398,-8.625,21.7501
14:25:27.408,-8.375,25.0001
14:25:27.418,-7.4375,25.0001
14:25:27.428,-6.9375,28.1251
14:25:27.442,-7.375,27.3126
14:25:27.449,-6.375,28.5626
14:25:27.458,-6.25,29.7501
14:25:27.468,-6.4375,30.3751
14:25:27.478,-6.6875,30.8751
14:25:27.488,-6.3125,30.0001
14:25:27.505,-5.9375,28.4376
14:25:27.508,-6.625,27.3751
14:25:27.523,-6.625,26.3126
14:25:27.538,-7.4375,25.9376
14:25:27.541,-7.1875,23.2501
14:25:27.577,-7.5625,22.9376
14:25:27.580,-8.25,22.0001
14:25:27.582,-7.8125,20.6251
14:25:27.583,-8.5,19.1251
14:25:27.589,-8.25,19.3126
14:25:27.617,-8.125,17.5626
14:25:27.619,-9.1875,17.2501
14:25:27.621,-9.5,17.0626
14:25:27.655,-9.3125,15.8126
14:25:27.657,-9.8125,14.9376
14:25:27.660,-9.3125,14.1876
14:25:27.662,-9.875,12.3125
14:25:27.668,-10.125,11.5625
14:25:27.712,-11.4375,11.0625
14:25:27.716,-10.75,9.6875
14:25:27.716,-10.5625,9.125
14:25:27.731,-11.6875,7.875
14:25:27.734,-12.0625,7.8125
14:25:27.734,-12.0625,6.5625
14:25:27.739,-12.25,5.0625
14:25:27.749,-13.2501,4
14:25:27.759,-13.3126,3.0625
14:25:27.768,-13.6876,1.125
14:25:27.778,-14.8126,0.3125
14:25:27.790,-15.1251,-0.25
14:25:27.798,-13.8751,-1.4375
14:25:27.809,-15.1876,-3.0625
14:25:27.817,-15.9376,-4.1875
14:25:27.828,-16.6251,-3.75
14:25:27.838,-16.6876,-6.4375
14:25:27.848,-17.1876,-6.75
14:25:27.858,-17.7501,-7.625
14:25:27.868,-16.8751,-8.8125
14:25:27.879,-18.0001,-9.5625
14:25:27.888,-18.4376,-8.9375
14:25:27.899,-17.8751,-11.0625
14:25:27.908,-18.2501,-11.75
14:25:27.918,-18.6251,-11.875
14:25:27.928,-18.8126,-13.4376
14:25:27.938,-20.1251,-14.3126
14:25:27.949,-19.2501,-14.6876
14:25:27.959,-19.8126,-16.1251
14:25:27.968,-19.8751,-16.8751
14:25:27.978,-20.0001,-17.0626
14:25:27.988,-20.3126,-18.3126
14:25:28.000,-20.9376,-19.6876
14:25:28.010,-20.9376,-20.6876
14:25:28.019,-21.1251,-21.6251
14:25:28.028,-21.2501,-21.3751
14:25:28.038,-22.0626,-21.6251
14:25:28.048,-21.3126,-23.3126
14:25:28.058,-22.1876,-22.9376
14:25:28.068,-21.6251,-24.5001
14:25:28.078,-23.4376,-23.0626
14:25:28.088,-23.1251,-23.0626
14:25:28.099,-23.0001,-23.8751
14:25:28.108,-22.6251,-19.6251
14:25:28.118,-22.5001,-17.2501
14:25:28.128,-22.5001,-13.5001
14:25:28.138,-21.4376,-10.875
14:25:28.148,-21.0001,-8.625
14:25:28.158,-20.9376,-4.5625
14:25:28.168,-19.0626,-2.0625
14:25:28.179,-19.1251,-0.375
14:25:28.193,-18.7501,2.625
14:25:28.200,-17.8751,3
14:25:28.208,-17.6876,7.0625
14:25:28.218,-17.0626,7.9375
14:25:28.228,-17.0626,11.125
14:25:28.238,-16.0001,13.5001
14:25:28.268,-14.1251,15.3126
14:25:28.271,-15.1876,17.8126
14:25:28.273,-18.3751,8.5625
14:25:28.278,-17.1876,12.5625
14:25:28.310,-17.3126,14.0626
14:25:28.315,-17.5001,12.375
14:25:28.316,-17.6251,13.4376
14:25:28.319,-16.4376,13.7501
14:25:28.346,-18.1251,12.375
14:25:28.349,-19.1876,10.3125
14:25:28.351,-19.3126,6.625
14:25:28.383,-20.8126,3.9375
14:25:28.385,-22.1876,1.5625
14:25:28.387,-23.5626,-2.1875
14:25:28.392,-24.8126,-5.3125
14:25:28.398,-25.8751,-8.125
14:25:28.418,-26.1251,-10.375
14:25:28.421,-26.5001,-12.5625
14:25:28.429,-27.0001,-12.3125
14:25:28.438,-26.5626,-14.0626
14:25:28.448,-26.3751,-15.5001
14:25:28.458,-26.5626,-14.8751
14:25:28.468,-25.8126,-13.3126
14:25:28.478,-25.3751,-14.9376
14:25:28.488,-25.9376,-15.9376
14:25:28.498,-25.1876,-16.8126
14:25:28.508,-26.1251,-18.6251
14:25:28.518,-27.2501,-19.6251
14:25:28.528,-26.1251,-19.3126
14:25:28.538,-26.1251,-20.8126
14:25:28.548,-26.3751,-21.0626
14:25:28.558,-25.3126,-21.2501
14:25:28.568,-25.5001,-22.3751
14:25:28.578,-26.0001,-21.5001
14:25:28.589,-26.0001,-23.1876
14:25:28.598,-25.4376,-24.5001
14:25:28.608,-24.8751,-24.3751
14:25:28.618,-24.6876,-25.6251
14:25:28.628,-24.8126,-25.6251
14:25:28.647,-24.1251,-25.9376
14:25:28.648,-24.0626,-27.4376
14:25:28.663,-24.1876,-25.8126
14:25:28.679,-22.6251,-27.0001
14:25:28.681,-23.8126,-26.5626
14:25:28.690,-23.0001,-26.4376
14:25:28.699,-22.5626,-27.7501
14:25:28.709,-22.5626,-27.6251
14:25:28.718,-21.7501,-27.2501
14:25:28.729,-22.3126,-28.3751
14:25:28.738,-22.5001,-27.1251
14:25:28.748,-21.4376,-28.9376
14:25:28.759,-21.5626,-29.5626
14:25:28.768,-20.8126,-28.7501
14:25:28.778,-21.0626,-29.6251
14:25:28.788,-21.3126,-29.5001
14:25:28.798,-21.0626,-29.8751
14:25:28.808,-20.7501,-30.3126
14:25:28.823,-20.6876,-31.2501
14:25:28.832,-21.5001,-30.3751
14:25:28.839,-20.7501,-31.2501
14:25:28.857,-20.8126,-32.5626
14:25:28.858,-21.0001,-31.6876
14:25:28.874,-20.6251,-32.6251
14:25:28.879,-20.5626,-33.8751
14:25:28.888,-20.3751,-33.1251
14:25:28.898,-20.1876,-35.3751
14:25:28.908,-20.3126,-34.4376
14:25:28.919,-20.5001,-35.6251
14:25:28.928,-20.1251,-35.1251
14:25:28.943,-19.9376,-34.9376
14:25:28.951,-19.8751,-34.5001
14:25:28.959,-19.8126,-31.8751
14:25:28.969,-17.8751,-30.5626
14:25:29.001,-17.3751,-26.6876
14:25:29.002,-16.0001,-22.1876
14:25:29.005,-14.4376,-19.1251
14:25:29.009,-13.8126,-14.6876
14:25:29.039,-13.1251,-10.25
14:25:29.042,-11.5625,-7.8125
14:25:29.044,-10.375,-5
14:25:29.049,-10.0625,-1.875
14:25:29.065,-8.875,1.0625
14:25:29.069,-7.5625,3.0625
14:25:29.102,-7.0625,5.8125
14:25:29.105,-5.6875,8.625
14:25:29.107,-4.8125,9.4375
14:25:29.112,-4.375,11.25
14:25:29.124,-3.625,14.0626
14:25:29.130,-2.75,15.1251
14:25:29.165,-2.25,16.7501
14:25:29.167,-1.0625,17.3751
14:25:29.168,-1.1875,18.2501
14:25:29.175,-0.875,18.8751
14:25:29.182,-0.875,19.3751
14:25:29.188,-1.125,19.7501
14:25:29.198,-0.25,18.7501
14:25:29.208,-1.5625,16.3126
14:25:29.218,-1.5625,17.8751
14:25:29.228,-1.5625,15.7501
14:25:29.238,-1.875,13.8751
14:25:29.248,-2.375,13.6251
14:25:29.258,-1.375,12.9375
14:25:29.268,-1.9375,12.625
14:25:29.278,-3.125,12.875
14:25:29.288,-2.9375,10.375
14:25:29.298,-3,8.8125
14:25:29.308,-2.875,10.3125
14:25:29.319,-3.375,8.625
14:25:29.328,-3.375,7.625
14:25:29.339,-3.625,8.375
14:25:29.348,-3.25,6.0625
14:25:29.358,-3.9375,4.3125
14:25:29.369,-3.8125,5.4375
14:25:29.378,-3.9375,3.625
14:25:29.388,-4.625,3
14:25:29.399,-5.0625,2.5625
14:25:29.408,-5.125,1.0625
14:25:29.418,-5.125,-0.75
14:25:29.428,-4.5625,-0.0625
14:25:29.439,-5.1875,-1.75
14:25:29.448,-5.125,-3.75
14:25:29.459,-5.8125,-3
14:25:29.468,-6.0625,-3.8125
14:25:29.478,-6.75,-6.3125
14:25:29.488,-7.1875,-7.4375
14:25:29.498,-7.125,-8.0625
14:25:29.508,-6.8125,-9.125
14:25:29.518,-7.625,-10.4375
14:25:29.529,-7.625,-8.6875
14:25:29.540,-7.75,-10.875
14:25:29.548,-8.1875,-11.375
14:25:29.558,-8.5625,-11.4375
14:25:29.568,-7.875,-13.1876
14:25:29.578,-9.125,-13.2501
14:25:29.588,-8.75,-13.8126
14:25:29.598,-8.375,-15.7501
14:25:29.608,-8.125,-15.9376
14:25:29.618,-9,-16.4376
14:25:29.628,-9,-16.9376
14:25:29.638,-9.0625,-17.8126
14:25:29.649,-9.5,-18.3751
14:25:29.658,-9.5625,-18.8751
14:25:29.668,-9.625,-19.5626
14:25:29.679,-10,-19.8126
14:25:29.694,-10.0625,-19.9376
14:25:29.699,-10.0625,-21.3126
14:25:29.708,-11,-21.8126
14:25:29.718,-10.4375,-22.3126
14:25:29.728,-10.125,-22.6251
14:25:29.739,-11.125,-22.6876
14:25:29.779,-10.6875,-24.0626
14:25:29.783,-10.75,-25.3751
14:25:29.783,-11.125,-24.3751
14:25:29.787,-11.25,-25.4376
14:25:29.789,-10.8125,-24.6876
14:25:29.822,-9.75,-24.1251
14:25:29.824,-10.4375,-22.3126
14:25:29.827,-9.5625,-19.2501
14:25:29.834,-8.875,-14.6251
14:25:29.868,-7.5625,-12.125
14:25:29.869,-5.9375,-8.625
14:25:29.873,-4.8125,-4.125
14:25:29.874,-4.8125,-0.5
14:25:29.905,-2.6875,3.125
14:25:29.907,-2.8125,5.4375
14:25:29.909,-1.9375,9.1875
14:25:29.913,-0.5625,10.1875
14:25:29.934,-0.125,13.6251
14:25:29.936,0.25,15.8126
14:25:29.943,1.0625,16.4376
14:25:29.963,2.25,18.1876
14:25:29.970,3.0625,20.2501
14:25:29.978,2.5625,20.3126
14:25:29.983,3.3125,24.5001
14:25:30.001,3.0625,23.3126
14:25:30.003,3.3125,25.6251
14:25:30.018,3.8125,25.6251
14:25:30.024,4.125,25.1876
14:25:30.033,4.3125,25.8126
14:25:30.043,4.75,24.8126
14:25:30.053,4.1875,24.0626
14:25:30.070,3.25,23.1876
14:25:30.074,2.9375,22.4376
14:25:30.083,3.875,21.3751
14:25:30.093,3.5625,20.2501
14:25:30.103,2.8125,18.2501
14:25:30.113,2,19.6251
14:25:30.124,2.0625,18.3751
14:25:30.141,2.125,17.1876
14:25:30.143,2.0625,16.0626
14:25:30.158,2.125,14.7501
14:25:30.173,1.375,13.6876
14:25:30.175,1.8125,13.3751
14:25:30.185,1.125,12.75
14:25:30.194,-0.1875,11.25
14:25:30.203,-0.25,11.25
14:25:30.213,0.625,10.125
14:25:30.223,0.125,9.0625
14:25:30.233,0.0625,8.25
14:25:30.243,-0.625,7.1875
14:25:30.253,-0.625,7.1875
14:25:30.280,0,6.125
14:25:30.282,-0.5625,4.25
14:25:30.284,-1.3125,3.5
14:25:30.294,-1.625,2.9375
14:25:30.303,-2.3125,1.375
14:25:30.313,-2.0625,2.125
14:25:30.323,-2.375,1.125
14:25:30.333,-1.9375,0.3125
14:25:30.345,-1.1875,-1.4375
14:25:30.353,-2.4375,-2.5
14:25:30.363,-2.6875,-2.75
14:25:30.373,-2.3125,-2.125
14:25:30.383,-2.125,-3.75
14:25:30.393,-2.4375,-5
14:25:30.403,-3.25,-4.875
14:25:30.413,-3.5625,-6.6875
14:25:30.423,-3.5,-7.4375
14:25:30.433,-3.4375,-8.3125
14:25:30.443,-3.5625,-9
14:25:30.474,-3,-8.9375
14:25:30.475,-3.8125,-10.1875
14:25:30.477,-4.0625,-9.5625
14:25:30.485,-4.375,-10.4375
14:25:30.517,-4.5625,-11.8125
14:25:30.519,-4.125,-12.8125
14:25:30.521,-4.9375,-13.3751
14:25:30.523,-4.0625,-13.5001
14:25:30.536,-4.6875,-13.9376
14:25:30.550,-5.625,-13.6251
14:25:30.554,-5.0625,-15.3751
14:25:30.591,-4.625,-15.6876
14:25:30.592,-5.375,-16.0626
14:25:30.595,-4.8125,-17.0626
14:25:30.621,-5.75,-18.0626
14:25:30.622,-5.375,-18.7501
14:25:30.626,-6,-19.6251
14:25:30.629,-6.6875,-18.5626
14:25:30.638,-5.8125,-20.5001
14:25:30.644,-6.3125,-21.1876
14:25:30.653,-6.1875,-21.5626
14:25:30.663,-6.3125,-21.6876
14:25:30.673,-6.625,-19.8751
14:25:30.684,-5.5625,-18.9376
14:25:30.693,-5.625,-16.1251
14:25:30.703,-3.75,-12.75
14:25:30.713,-3.0625,-8.5
14:25:30.723,-2.25,-4
14:25:30.733,-0.3125,-0.8125
14:25:30.743,0.375,3.6875
14:25:30.753,1.75,6.8125
14:25:30.764,2,8.375
14:25:30.773,2.875,11.875
14:25:30.783,5.1875,14.8126
14:25:30.793,4.875,16.8751
14:25:30.803,6.0625,18.3126
14:25:30.819,5.75,21.0626
14:25:30.823,6.75,23.1251
14:25:30.834,7.8125,24.9376
14:25:30.843,8.5625,26.7501
14:25:30.853,8.75,28.0001
14:25:30.863,8.9375,30.4376
14:25:30.873,9.4375,30.3751
14:25:30.883,10.0625,30.2501
14:25:30.893,10.4375,31.8126
14:25:30.903,10.375,31.3751
14:25:30.913,10.25,31.3126
14:25:30.923,10,31.4376
14:25:30.933,10.25,31.5001
14:25:30.943,9.875,30.0001
14:25:30.953,9.625,27.8126
14:25:30.964,8.4375,28.6251
14:25:30.973,8.3125,26.4376
14:25:30.983,8.5,24.5626
14:25:30.993,7.875,22.8751
14:25:31.004,7,21.5626
14:25:31.013,6.6875,21.8126
14:25:31.023,6.75,20.7501
14:25:31.033,6.0625,18.8126
14:25:31.043,5.5,18.1251
14:25:31.053,5.3125,18.5001
14:25:31.065,6.3125,17.0001
14:25:31.073,4.875,15.8751
14:25:31.086,4.4375,15.0001
14:25:31.093,4.125,14.3126
14:25:31.103,4.375,13.8126
14:25:31.113,4.3125,13.1876
14:25:31.123,4.375,11.875
14:25:31.133,3.75,10.875
14:25:31.143,3,8.875
14:25:31.154,3.125,9.5
14:25:31.164,2.875,7.1875
14:25:31.173,1.75,6.25
14:25:31.183,1.375,6.625
14:25:31.195,1.875,5.3125
14:25:31.204,1.875,3.5625
14:25:31.214,0.75,2.1875
14:25:31.226,0.3125,1.1875
14:25:31.256,-0.375,0.9375
14:25:31.258,0.0625,-0.1875
14:25:31.261,0.0625,-1.8125
14:25:31.263,0.0625,-1.6875
14:25:31.292,-0.5625,-1.9375
14:25:31.295,-1.5625,-4.4375
14:25:31.309,-2,-4.625
14:25:31.312,-2.1875,-4.875
14:25:31.314,-2.125,-5.8125
14:25:31.323,-2.3125,-6.5
14:25:31.351,-3.0625,-8.0625
14:25:31.353,-3.75,-8.5625
14:25:31.356,-3.125,-9.75
14:25:31.389,-3.5625,-10.5625
14:25:31.392,-4.1875,-11.375
14:25:31.393,-4.3125,-12.5625
14:25:31.397,-5,-12.75
14:25:31.403,-4.6875,-13.6876
14:25:31.413,-4.8125,-14.8126
14:25:31.423,-5.375,-15.0001
14:25:31.433,-5.0625,-15.0001
14:25:31.443,-5.9375,-16.2501
14:25:31.459,-5.875,-17.4376
14:25:31.463,-6.5,-16.3126
14:25:31.480,-6.625,-17.1876
14:25:31.483,-6.9375,-19.7501
14:25:31.493,-7.1875,-19.6876
14:25:31.508,-7.1875,-21.5001
14:25:31.518,-7.625,-21.4376
14:25:31.528,-8,-21.8126
14:25:31.561,-8.25,-22.8126
14:25:31.562,-8.5,-23.6251
14:25:31.564,-8.0625,-24.6876
14:25:31.568,-9.0625,-22.7501
14:25:31.583,-8.5,-23.3126
14:25:31.588,-8.1875,-22.1876
14:25:31.598,-7.875,-19.3751
14:25:31.608,-6.25,-17.4376
14:25:31.618,-5.875,-13.5626
14:25:31.629,-4.625,-8.5625
14:25:31.638,-3.1875,-4.5625
14:25:31.648,-1.75,-1.875
14:25:31.659,-1.625,1.6875
14:25:31.668,-0.125,5.1875
14:25:31.678,1.0625,8.625
14:25:31.693,1.5,10.5
14:25:31.703,2.375,13.7501
14:25:31.713,2.5,14.6876
14:25:31.723,3.1875,17.5626
14:25:31.733,3.8125,19.5001
14:25:31.743,4.875,20.1251
14:25:31.753,4.8125,22.7501
14:25:31.763,5.375,22.9376
14:25:31.773,5.5625,23.5001
14:25:31.783,6.5625,26.3751
14:25:31.793,7.25,25.8126
14:25:31.804,7.5,26.6251
14:25:31.813,8.25,26.6251
14:25:31.823,7.8125,26.5626
14:25:31.833,7.125,25.5001
14:25:31.843,6.9375,26.1876
14:25:31.853,7.25,23.0001
14:25:31.864,6.5,21.7501
14:25:31.873,6.0625,22.0001
14:25:31.883,6.0625,20.7501
14:25:31.893,5.9375,19.1251
14:25:31.904,5.375,17.6876
14:25:31.913,4.5625,16.4376
14:25:31.923,3.9375,16.8751
14:25:31.957,4.3125,15.7501
14:25:31.958,3.8125,14.7501
14:25:31.962,4.125,13.1876
14:25:31.963,3.125,12.1875
14:25:31.993,2.875,12.5625
14:25:31.995,2.5625,12.125
14:25:31.998,3.4375,10.5
14:25:32.004,2.9375,8.625
14:25:32.030,2.4375,8.0625
14:25:32.032,1.8125,8.6875
14:25:32.034,1.5,7.5625
14:25:32.066,1.3125,7
14:25:32.067,2.25,5.125
14:25:32.069,1.3125,4.1875
14:25:32.075,0.3125,2.8125
14:25:32.099,0,2.375
14:25:32.102,-0.625,1.5
14:25:32.104,-0.4375,-0.3125
14:25:32.126,-0.6875,-1.8125
14:25:32.128,-1.625,-2.3125
14:25:32.135,-2.0625,-4.125
14:25:32.144,-2.25,-3.75
14:25:32.153,-1.9375,-5.3125
14:25:32.163,-2.5,-6.375
14:25:32.173,-3.8125,-7.125
14:25:32.183,-3.8125,-8
14:25:32.193,-3.375,-8.75
14:25:32.203,-4.0625,-10.5
14:25:32.213,-4.9375,-11.3125
14:25:32.223,-5.3125,-11
14:25:32.234,-4.875,-12.5
14:25:32.244,-5.9375,-14.3751
14:25:32.253,-5.75,-14.6876
14:25:32.263,-6.3125,-14.7501
14:25:32.273,-6.0625,-15.1876
14:25:32.284,-6.375,-16.0626
14:25:32.293,-6.3125,-16.8751
14:25:32.310,-6.625,-17.2501
14:25:32.313,-6.1875,-17.5626
14:25:32.325,-6.875,-17.6251
14:25:32.333,-7.25,-17.1876
14:25:32.343,-7.625,-19.4376
14:25:32.353,-7.75,-20.5001
14:25:32.363,-7.0625,-20.3126
14:25:32.374,-7.9375,-21.2501
14:25:32.383,-8.375,-21.5626
14:25:32.393,-8,-22.6251
14:25:32.403,-8.125,-23.7501
14:25:32.413,-8.6875,-24.3126
14:25:32.423,-9.4375,-23.5001
14:25:32.433,-8.9375,-24.9376
14:25:32.443,-10,-24.8126
14:25:32.453,-9.875,-24.0001
14:25:32.463,-9.5625,-23.6876
14:25:32.473,-8.9375,-22.0001
14:25:32.483,-7.625,-16.8126
14:25:32.498,-6.8125,-14.3126
14:25:32.504,-6.0625,-10.8125
14:25:32.513,-4.5625,-6.75
14:25:32.523,-3.6875,-2
14:25:32.533,-2.375,0.75
14:25:32.543,-1.125,2.5
14:25:32.553,-0.6875,4.1875
14:25:32.564,-0.1875,8.0625
14:25:32.573,1.125,10.0625
14:25:32.590,1.125,12.125
14:25:32.626,1.375,13.0625
14:25:32.627,2.5625,14.3126
14:25:32.628,2.3125,15.8751
14:25:32.653,2.625,18.1251
14:25:32.653,4.0625,17.9376
14:25:32.654,3.1875,19.0626
14:25:32.657,3.875,19.6251
14:25:32.663,4.25,20.8126
14:25:32.696,4.125,20.5626
14:25:32.698,4.375,21.6251
14:25:32.700,4.5,20.7501
14:25:32.703,4,20.3751
14:25:32.733,3.4375,20.3126
14:25:32.735,3.25,18.8751
14:25:32.738,3,16.5626
14:25:32.773,2.5625,16.3751
14:25:32.773,2.125,15.2501
14:25:32.776,2.1875,14.6876
14:25:32.778,2.125,13.1251
14:25:32.785,2.6875,12.8125
14:25:32.793,1.6875,11.5625
14:25:32.803,1.3125,9.75
14:25:32.813,0.9375,9.625
14:25:32.841,1.0625,10.1875
14:25:32.843,1.5,9.625
14:25:32.845,1.0625,7.8125
14:25:32.853,0.0625,6.1875
14:25:32.864,-0.125,6.4375
14:25:32.873,0.75,6.1875
14:25:32.883,-0.125,5.375
14:25:32.893,-0.1875,4.125
14:25:32.903,-0.5,3.25
14:25:32.913,-0.625,3.875
14:25:32.923,-0.375,3.0625
14:25:32.933,0,1.75
14:25:32.943,-1,0.25
14:25:32.953,-1.4375,-0.625
14:25:32.965,-1.4375,-1
14:25:32.973,-1.875,-1.9375
14:25:32.983,-2.3125,-3.5625
14:25:32.993,-2.625,-4.375
14:25:33.004,-3.4375,-5.375
14:25:33.013,-4,-5.375
14:25:33.023,-3.4375,-7.5
14:25:33.033,-3.5625,-7.9375
14:25:33.043,-4.1875,-7.9375
14:25:33.053,-3.8125,-10
14:25:33.063,-4.625,-10.4375
14:25:33.073,-5.3125,-9.25
14:25:33.083,-4.625,-11
14:25:33.093,-5,-12.75
14:25:33.103,-5.25,-13.5001
14:25:33.113,-5.4375,-13.1876
14:25:33.124,-5.8125,-14.2501
14:25:33.133,-6.1875,-13.1876
14:25:33.143,-6.125,-16.1251
14:25:33.154,-6.3125,-18.2501
14:25:33.163,-6.25,-16.3751
14:25:33.174,-6.375,-17.6876
14:25:33.183,-6.8125,-17.1876
14:25:33.193,-6.5625,-19.0001
14:25:33.204,-7.0625,-19.8126
14:25:33.213,-6.8125,-20.3126
14:25:33.224,-7.375,-20.8126
14:25:33.233,-7.5625,-19.8751
14:25:33.244,-7.9375,-22.5626
14:25:33.254,-7.75,-23.8126
14:25:33.263,-8.125,-22.8126
14:25:33.274,-8.3125,-24.2501
14:25:33.283,-8.4375,-24.1876
14:25:33.293,-8.4375,-26.2501
14:25:33.304,-9,-25.9376
14:25:33.313,-8.6875,-26.8751
14:25:33.323,-8.9375,-27.3751
14:25:33.333,-9.375,-25.1876
14:25:33.362,-9.5625,-26.0626
14:25:33.365,-9.1875,-25.1251
14:25:33.370,-8.0625,-21.0626
14:25:33.374,-7.25,-17.9376
14:25:33.404,-6.3125,-13.4376
14:25:33.408,-4.625,-9.8125
14:25:33.409,-3.5625,-5.5
14:25:33.414,-2.6875,-1.9375
14:25:33.443,-1.9375,0.5
14:25:33.446,-1.5625,4.8125
14:25:33.448,-0.5625,6
14:25:33.475,0.4375,7.1875
14:25:33.475,0.5625,10.9375
14:25:33.478,0.875,10.6875
14:25:33.485,2,14.1876
14:25:33.517,2.5625,14.3751
14:25:33.518,2.5,15.5001
14:25:33.527,3.375,17.7501
14:25:33.529,4.3125,18.6876
14:25:33.533,3.75,19.5001
14:25:33.544,4.6875,20.6251
14:25:33.553,4.75,20.3751
14:25:33.563,5.25,21.9376
14:25:33.573,5.3125,21.8126
14:25:33.583,4.6875,21.8126
14:25:33.593,5.1875,21.1251
14:25:33.603,5,19.8126
14:25:33.613,4.375,18.8126
14:25:33.627,3.8125,18.6251
14:25:33.633,4.25,17.9376
14:25:33.643,3.8125,16.3751
14:25:33.653,3.625,14.8751
14:25:33.663,2.8125,14.0001
14:25:33.673,2.5,13.8751
14:25:33.683,2.875,14.1251
14:25:33.694,2.9375,13
14:25:33.703,2.5625,11.5
14:25:33.713,1.9375,11.5625
14:25:33.723,2.0625,11.4375
14:25:33.733,1.8125,9.6875
14:25:33.743,1.375,8
14:25:33.754,0.6875,8.25
14:25:33.764,1,6.9375
14:25:33.773,0.1875,4.9375
14:25:33.783,0.0625,4.875
14:25:33.793,-0.1875,3.625
14:25:33.803,-0.5625,3.0625
14:25:33.813,-0.4375,1.125
14:25:33.823,-0.9375,0.8125
14:25:33.838,-1.4375,-0.375
14:25:33.848,-1.75,-0.875
14:25:33.858,-2,-1.5625
14:25:33.868,-2.1875,-2.375
14:25:33.884,-2.125,-3.8125
14:25:33.888,-3.125,-5.3125
14:25:33.903,-3,-6
14:25:33.910,-3.375,-5.3125
14:25:33.918,-2,-6.8125
14:25:33.929,-3,-7.9375
14:25:33.938,-3.25,-9.0625
14:25:33.948,-3.9375,-9.8125
14:25:33.958,-4,-11.6875
14:25:33.968,-4.375,-10.375
14:25:33.979,-4.375,-11.8125
14:25:33.988,-4.8125,-13.5626
14:25:34.003,-5.5625,-14.8126
14:25:34.009,-4.9375,-14.6251
14:25:34.018,-5.625,-15.8126
14:25:34.028,-5.875,-16.6876
14:25:34.038,-5.3125,-17.0001
14:25:34.055,-5.875,-18.6876
14:25:34.069,-6.625,-17.8126
14:25:34.083,-6.75,-19.1251
14:25:34.087,-7.125,-20.4376
14:25:34.089,-6.5625,-19.8126
14:25:34.119,-6.625,-22.1251
14:25:34.122,-7.5625,-21.9376
14:25:34.124,-7.5,-22.1876
14:25:34.130,-8.3125,-23.7501
14:25:34.157,-8.3125,-22.8751
14:25:34.160,-8,-25.0626
14:25:34.163,-8.3125,-26.1876
14:25:34.168,-8.4375,-25.5626
14:25:34.202,-8.75,-26.0626
14:25:34.204,-8,-27.1251
14:25:34.207,-8.8125,-27.9376
14:25:34.208,-8.4375,-28.0626
14:25:34.238,-8.375,-27.8751
14:25:34.240,-9.5,-28.4376
14:25:34.243,-9.5,-26.8751
14:25:34.250,-9.4375,-27.8126
14:25:34.258,-9.1875,-27.1251
14:25:34.268,-8.6875,-23.5001
14:25:34.278,-6.625,-19.9376
14:25:34.288,-5.6875,-16.3751
14:25:34.298,-5.375,-11.4375
14:25:34.308,-3.5,-7.75
14:25:34.318,-2.8125,-3.9375
14:25:34.328,-1.6875,-0.5
14:25:34.338,-1.125,2.875
14:25:34.348,0.4375,5.375
14:25:34.358,0.375,6.25
14:25:34.369,1.625,9.9375
14:25:34.378,1.8125,10.875
14:25:34.388,1.9375,13.0625
14:25:34.398,3,13.9376
14:25:34.409,2.875,16.1876
14:25:34.418,3.875,17.7501
14:25:34.428,3.875,18.1876
14:25:34.438,3.9375,20.3751
14:25:34.448,4.5625,20.1876
14:25:34.458,4.75,19.8751
14:25:34.468,4.625,21.4376
14:25:34.478,5.4375,21.7501
14:25:34.488,4.625,21.5001
14:25:34.498,4.5625,21.9376
14:25:34.509,5.125,20.6876
14:25:34.518,4.5,19.5001
14:25:34.528,4.3125,17.8751
14:25:34.538,3.6875,17.8126
14:25:34.548,3.4375,15.0626
14:25:34.558,2.75,15.5626
14:25:34.568,2.75,15.6876
14:25:34.578,2.3125,13.9376
14:25:34.588,2.25,12.875
14:25:34.598,2,11.6875
14:25:34.608,1.3125,10.1875
14:25:34.618,1.25,10.375
14:25:34.628,1.1875,10.3125
14:25:34.638,1.375,8.25
14:25:34.648,0.625,6.875
14:25:34.659,-0.0625,5.75
14:25:34.668,-0.25,4.1875
14:25:34.678,-1.25,4.9375
14:25:34.688,-1.375,4.625
14:25:34.698,-1,2.8125
14:25:34.709,-1.0625,1.5625
14:25:34.718,-2.0625,-0.125
14:25:34.728,-2.6875,-0.875
14:25:34.738,-2.25,-1.9375
14:25:34.753,-2.75,-3.1875
14:25:34.760,-3.875,-5.0625
14:25:34.769,-3.8125,-3.75
14:25:34.778,-3.5,-5.4375
14:25:34.788,-3.9375,-6.5
14:25:34.799,-4.1875,-7.6875
14:25:34.808,-4.875,-9
14:25:34.828,-4.8125,-8.75
14:25:34.830,-5.5625,-9.4375
14:25:34.839,-5.375,-10.8125
14:25:34.871,-5.3125,-12.375
14:25:34.873,-6.1875,-13.3126
14:25:34.875,-6.4375,-13.4376
14:25:34.878,-5.9375,-14.5001
14:25:34.913,-6.625,-15.1251
14:25:34.914,-6.5625,-15.2501
14:25:34.917,-7.5625,-16.1876
14:25:34.925,-7.3125,-17.6876
14:25:34.930,-7.625,-17.6251
14:25:34.966,-7.75,-18.5001
14:25:34.968,-8.25,-19.3751
14:25:34.971,-8.0625,-20.0001
14:25:34.975,-8.9375,-21.3126
14:25:34.979,-9.5625,-20.3751
14:25:35.001,-9.125,-22.1876
14:25:35.004,-9.125,-23.5626
14:25:35.009,-9.875,-24.1876
14:25:35.018,-10.75,-23.5626
14:25:35.028,-10.125,-24.1876
14:25:35.038,-10.3125,-26.3126
14:25:35.048,-10,-25.6876
14:25:35.058,-9.5625,-26.3751
14:25:35.068,-11,-26.4376
14:25:35.078,-10.6875,-25.6876
14:25:35.088,-10.5625,-28.3751
14:25:35.098,-10.9375,-29.3126
14:25:35.108,-11.375,-28.5626
14:25:35.118,-10.5,-29.7501
14:25:35.128,-11.1875,-30.7501
14:25:35.138,-12.1875,-30.1251
14:25:35.149,-11.625,-31.4376
14:25:35.158,-12.375,-32.6876
14:25:35.168,-11.625,-30.9376
14:25:35.188,-11.375,-29.1876
14:25:35.195,-10.9375,-26.6251
14:25:35.210,-10.125,-22.8126
14:25:35.212,-8.375,-19.4376
14:25:35.218,-8.5,-14.8126
14:25:35.228,-6.5625,-10.8125
14:25:35.240,-5.625,-8.125
14:25:35.248,-4.8125,-4
14:25:35.258,-3.125,-0.6875
14:25:35.268,-3.1875,1.6875
14:25:35.278,-2.25,4.0625
14:25:35.288,-1.6875,5.3125
14:25:35.298,-0.6875,7.1875
14:25:35.308,-0.3125,9.5625
14:25:35.318,0.3125,10.875
14:25:35.329,0.3125,12.9375
14:25:35.348,1.125,14.5001
14:25:35.350,2,14.9376
14:25:35.366,1.8125,15.6251
14:25:35.368,2.1875,17.6251
14:25:35.400,3.1875,18.1251
14:25:35.402,3.0625,18.0626
14:25:35.404,3.75,18.1876
14:25:35.408,3.875,17.9376
14:25:35.418,2.625,19.1876
14:25:35.428,3,17.6251
14:25:35.439,3.5,16.1251
14:25:35.448,3.3125,15.3751
14:25:35.458,2.375,14.9376
14:25:35.471,3.1875,13.2501
14:25:35.478,2.4375,11.875
14:25:35.489,2,12.5625
14:25:35.503,2.0625,11.8125
14:25:35.508,2.1875,11.5
14:25:35.518,2.1875,10.375
14:25:35.528,1.25,9.0625
14:25:35.538,1.375,8.625
14:25:35.548,0.4375,8.375
14:25:35.558,1.125,7.5
14:25:35.591,1.0625,6.375
14:25:35.594,-0.125,5.5
14:25:35.595,0.125,5.8125
14:25:35.598,0.5625,4.1875
14:25:35.632,-0.0625,3
14:25:35.633,-0.6875,1.8125
14:25:35.637,-1.625,2.25
14:25:35.639,-1.625,1.875
14:25:35.669,-1.125,0.125
14:25:35.671,-1.8125,-1.0625
14:25:35.673,-2.25,-1.625
14:25:35.678,-2.8125,-1.125
14:25:35.709,-2.25,-3
14:25:35.711,-2.4375,-5.0625
14:25:35.713,-3.0625,-4.125
14:25:35.719,-3.3125,-5.125
14:25:35.752,-3.4375,-5.6875
14:25:35.756,-3.125,-6.875
14:25:35.756,-3.625,-8.3125
14:25:35.760,-3.875,-9.4375
14:25:35.769,-5.0625,-9.25
14:25:35.778,-3.6875,-10.4375
14:25:35.788,-4.75,-12.375
14:25:35.798,-5,-12.5
14:25:35.808,-5.5,-13.1876
14:25:35.818,-6.1875,-15.0001
14:25:35.828,-5.625,-14.0001
14:25:35.838,-5.5625,-15.8126
14:25:35.848,-6.25,-16.4376
14:25:35.858,-6.0625,-16.7501
14:25:35.868,-6.75,-16.6251
14:25:35.880,-5.8125,-17.1251
14:25:35.888,-5.875,-18.6251
14:25:35.898,-6.4375,-18.6876
14:25:35.909,-7.125,-19.0626
14:25:35.919,-6.8125,-20.5001
14:25:35.928,-6.9375,-19.7501
14:25:35.938,-7.125,-21.3751
14:25:35.948,-7.3125,-21.8126
14:25:35.958,-6.75,-21.6876
14:25:35.968,-7.875,-22.4376
14:25:35.979,-6.8125,-22.9376
14:25:35.989,-7.625,-23.2501
14:25:35.998,-7.3125,-23.6876
14:25:36.008,-7.5625,-24.9376
14:25:36.019,-7.9375,-25.1876
14:25:36.028,-8.1875,-25.0626
14:25:36.038,-8.3125,-26.5626
14:25:36.048,-8.8125,-27.1251
14:25:36.058,-8.1875,-28.0626
14:25:36.068,-9,-28.1251
14:25:36.078,-9.25,-26.1876
14:25:36.088,-8.0625,-25.8126
14:25:36.098,-7.9375,-23.9376
14:25:36.108,-6.4375,-19.3751
14:25:36.118,-5.6875,-15.8751
14:25:36.128,-4.625,-11.5
14:25:36.138,-3.0625,-6.8125
14:25:36.148,-1.9375,-4.0625
14:25:36.158,-0.625,-0.625
14:25:36.168,-0.5625,3.1875
14:25:36.178,1,5.25
14:25:36.188,1.0625,8.0625
14:25:36.198,2.375,9.8125
14:25:36.210,2.4375,11
14:25:36.218,2.8125,14.3751
14:25:36.229,3.4375,15.5626
14:25:36.238,4.375,16.1876
14:25:36.248,5,18.3126
14:25:36.281,5.5,18.4376
14:25:36.287,5.6875,20.9376
14:25:36.287,6.625,21.7501
14:25:36.288,6.25,22.4376
14:25:36.323,7.375,22.9376
14:25:36.327,7,23.5001
14:25:36.328,6.8125,23.4376
14:25:36.329,7.625,22.0626
14:25:36.361,7.375,21.9376
14:25:36.363,6.5,22.0001
14:25:36.365,6.5625,20.8126
14:25:36.372,6.75,19.7501
14:25:36.379,6.25,17.6251
14:25:36.417,5.625,18.6251
14:25:36.419,5.625,17.1251
14:25:36.421,6,17.0626
14:25:36.424,5.75,15.8126
14:25:36.430,5.3125,14.6251
14:25:36.445,4.625,13.5626
14:25:36.448,4.25,13.5626
14:25:36.458,4.125,12.0625
14:25:36.468,4.3125,11.5
14:25:36.489,3.6875,9.6875
14:25:36.495,3.5,9.4375
14:25:36.498,3.125,9.875
14:25:36.513,3,8.75
14:25:36.518,3.625,7.125
14:25:36.528,2.5625,6
14:25:36.538,1.6875,4.6875
14:25:36.548,1.875,4.375
14:25:36.558,1.5,2.875
14:25:36.568,0.9375,1.6875
14:25:36.578,0.5,0.3125
14:25:36.588,0.25,0.625
14:25:36.598,0.4375,-0.9375
14:25:36.610,-0.3125,-2.8125
14:25:36.618,-0.5625,-2.875
14:25:36.628,-0.8125,-4.375
14:25:36.644,-1.0625,-4.125
14:25:36.648,-1.5,-4.875
14:25:36.682,-1.4375,-6.0625
14:25:36.685,-1.5625,-6.4375
14:25:36.687,-1.4375,-7.5625
14:25:36.690,-1.6875,-8.9375
14:25:36.699,-3.1875,-10.125
14:25:36.709,-3.25,-9.6875
14:25:36.718,-3.8125,-10.75
14:25:36.728,-3.4375,-11.875
14:25:36.738,-3.9375,-13
14:25:36.748,-4.375,-13.8126
14:25:36.758,-5.125,-14.5626
14:25:36.768,-5.125,-15.4376
14:25:36.778,-4.625,-16.3751
14:25:36.788,-4.5,-15.7501
14:25:36.798,-4.875,-17.1876
14:25:36.809,-5.4375,-18.5001
14:25:36.824,-5.9375,-17.6251
14:25:36.828,-5.8125,-18.5626
14:25:36.838,-4.625,-19.3751
14:25:36.848,-4.875,-19.7501
14:25:36.858,-4.875,-19.5001
14:25:36.868,-5.9375,-19.3126
14:25:36.878,-4.8125,-19.5626
14:25:36.888,-4.75,-20.0001
14:25:36.898,-5.25,-19.6251
14:25:36.908,-5.1875,-21.3751
14:25:36.918,-5.3125,-22.0626
14:25:36.928,-4.4375,-21.1876
14:25:36.938,-5.3125,-22.6876
14:25:36.948,-5.9375,-22.4376
14:25:36.958,-5.0625,-22.9376
14:25:36.968,-5.5625,-23.6251
14:25:36.978,-5.9375,-22.7501
14:25:36.988,-5.3125,-23.9376
14:25:36.999,-5.75,-23.5001
14:25:37.008,-5.3125,-22.1876
14:25:37.018,-4.3125,-19.5626
14:25:37.028,-3.375,-17.9376
14:25:37.038,-2.9375,-13.9376
14:25:37.048,-1.5,-8.6875
14:25:37.058,-0.8125,-5.25
14:25:37.081,-1,-1.3125
14:25:37.084,0.875,3.125
14:25:37.112,1.75,6.25
14:25:37.114,2,9.25
14:25:37.117,2.625,12.75
14:25:37.119,2.375,14.3751
14:25:37.149,2.4375,17.0001
14:25:37.151,3.4375,20.1251
14:25:37.153,3.875,21.5001
14:25:37.159,3.6875,24.5626
14:25:37.188,3.75,29.0001
14:25:37.191,4.375,30.6876
14:25:37.193,4.0625,31.6876
14:25:37.217,3,32.7501
14:25:37.217,3.125,31.9376
14:25:37.219,1.625,30.3751
14:25:37.247,1.5625,31.5626
14:25:37.249,1.375,31.8751
14:25:37.250,1.375,32.0626
14:25:37.265,1.375,30.6251
14:25:37.268,0.25,29.5626
14:25:37.278,-1.125,27.9376
14:25:37.289,-1.375,27.5001
14:25:37.299,-1.625,25.3126
14:25:37.308,-2.9375,24.1251
14:25:37.318,-3.875,22.5626
14:25:37.328,-4,22.3126
14:25:37.338,-4.25,20.5001
14:25:37.348,-4.875,19.0626
14:25:37.359,-5.3125,18.2501
14:25:37.368,-5.75,18.3126
14:25:37.378,-5.625,18.2501
14:25:37.388,-5.375,15.5001
14:25:37.398,-6.375,14.0001
14:25:37.408,-6.875,13.1251
14:25:37.418,-8.1875,11.875
14:25:37.428,-7.375,10.25
14:25:37.439,-7.75,9.4375
14:25:37.448,-8.875,7.6875
14:25:37.459,-9.625,6.6875
14:25:37.468,-9.6875,4.5625
14:25:37.478,-10,3.0625
14:25:37.489,-10.4375,2.5
14:25:37.504,-9.6875,1.5625
14:25:37.515,-10.6875,-0.125
14:25:37.523,-11.375,-0.5
14:25:37.533,-11.25,-1.3125
14:25:37.543,-10.8125,-2.5625
14:25:37.553,-11.5,-4.5625
14:25:37.563,-11.875,-5.875
14:25:37.573,-13,-6.3125
14:25:37.583,-12.4375,-8
14:25:37.593,-12.875,-9.75
14:25:37.603,-14.2501,-9.75
14:25:37.613,-14.5626,-11.375
14:25:37.623,-14.5001,-12.0625
14:25:37.639,-15.1876,-14.0001
14:25:37.644,-15.1251,-13.4376
14:25:37.653,-15.3751,-14.6251
14:25:37.663,-16.5626,-17.2501
14:25:37.673,-16.8126,-17.6876
14:25:37.683,-16.6876,-17.8751
14:25:37.693,-17.4376,-20.1876
14:25:37.703,-18.6251,-19.3751
14:25:37.714,-18.8751,-20.6876
14:25:37.744,-19.0626,-22.3751
14:25:37.747,-19.5626,-23.1876
14:25:37.749,-19.1251,-24.3751
14:25:37.753,-20.6251,-26.3126
14:25:37.793,-22.1251,-25.2501
14:25:37.914,-22.2501,-27.7501
14:25:37.914,-23.0001,-30.2501
14:25:37.914,-23.6251,-31.3126
14:25:37.922,-23.0001,-32.0626
14:25:37.923,-24.5001,-33.2501
14:25:37.923,-25.2501,-33.8126
14:25:37.935,-24.9376,-33.8751
14:25:37.962,-25.8126,-35.8126
14:25:37.978,-27.6251,-35.5001
14:25:37.980,-27.9376,-36.8751
14:25:37.994,-28.6251,-38.6876
14:25:38.002,-29.0001,-40.6877
14:25:38.002,-29.3126,-40.8127
14:25:38.006,-29.6876,-41.3752
14:25:38.018,-30.9376,-42.0002
14:25:38.024,-31.1876,-42.2502
14:25:38.033,-31.0626,-42.2502
14:25:38.043,-30.1251,-41.9377
14:25:38.053,-30.2501,-40.0002
14:25:38.063,-30.1876,-37.1251
14:25:38.073,-28.0626,-33.8126
14:25:38.083,-27.5001,-30.0626
14:25:38.093,-20.8126,-4.5
14:25:38.103,-20.4376,-1.0625
14:25:38.113,-19.3751,-0.4375
14:25:38.123,-19.1251,0.8125
14:25:38.134,-18.6251,1.9375
14:25:38.143,-17.2501,3.0625
14:25:38.153,-16.9376,4.5625
14:25:38.163,-16.0001,4.5625
14:25:38.173,-15.3126,4.875
14:25:38.183,-15.1876,7.3125
14:25:38.194,-13.6876,5
14:25:38.203,-14.3751,6.0625
14:25:38.213,-14.0626,5.5
14:25:38.223,-13.3126,4.5
14:25:38.233,-14.0001,3.375
14:25:38.243,-13.5626,3.0625
14:25:38.253,-14.3126,1.8125
14:25:38.263,-14.6876,-0.875
14:25:38.273,-14.8751,-2.5625
14:25:38.283,-15.7501,-3
14:25:38.293,-15.1876,-4.625
14:25:38.303,-15.3751,-6.125
14:25:38.313,-16.0001,-7.75
14:25:38.327,-16.5626,-7.625
14:25:38.332,-16.0001,-7.75
14:25:38.343,-15.5001,-9.1875
14:25:38.353,-16.5626,-9.9375
14:25:38.363,-17.0001,-10.1875
14:25:38.373,-17.1876,-11.0625
14:25:38.383,-16.3126,-11.8125
14:25:38.397,-17.3751,-13.3126
14:25:38.404,-17.9376,-13
14:25:38.413,-17.9376,-13.8126
14:25:38.423,-18.0626,-15.2501
14:25:38.433,-18.4376,-15.6876
14:25:38.444,-17.9376,-15.8126
14:25:38.453,-18.1251,-16.8126
14:25:38.463,-19.1876,-17.7501
14:25:38.473,-19.0001,-17.4376
14:25:38.483,-18.4376,-17.6876
14:25:38.509,-18.7501,-19.1876
14:25:38.511,-19.4376,-19.0626
14:25:38.513,-19.4376,-20.7501
14:25:38.547,-19.5626,-21.0626
14:25:38.549,-19.1876,-20.1251
14:25:38.552,-18.7501,-21.5626
14:25:38.554,-20.1876,-22.0001
14:25:38.585,-20.0626,-23.5626
14:25:38.588,-20.8751,-24.1251
14:25:38.591,-21.1251,-24.3126
14:25:38.596,-20.4376,-26.0626
14:25:38.624,-21.4376,-27.1876
14:25:38.627,-21.3126,-27.1251
14:25:38.629,-22.2501,-28.5001
14:25:38.634,-22.1251,-27.7501
14:25:38.659,-23.0626,-27.7501
14:25:38.662,-22.8126,-28.3126
14:25:38.664,-23.1876,-30.0626
14:25:38.673,-23.6251,-30.0001
14:25:38.683,-22.9376,-30.9376
14:25:38.693,-23.5626,-31.6251
14:25:38.703,-24.0001,-30.9376
14:25:38.713,-24.1876,-32.8751
14:25:38.723,-24.8126,-34.3751
14:25:38.733,-24.8751,-33.1876
14:25:38.744,-24.7501,-33.6876
14:25:38.753,-24.3126,-34.1251
14:25:38.763,-24.3751,-35.6876
14:25:38.773,-25.0626,-35.2501
14:25:38.784,-23.8126,-34.6876
14:25:38.793,-23.6876,-35.1251
14:25:38.803,-23.6876,-35.1876
14:25:38.813,-23.9376,-32.7501
14:25:38.823,-22.5001,-31.8126
14:25:38.834,-22.2501,-29.6876
14:25:38.843,-20.9376,-26.6876
14:25:38.853,-19.5626,-22.0626
14:25:38.863,-18.8751,-17.8751
14:25:38.873,-17.7501,-15.0626
14:25:38.883,-16.6876,-13.3751
14:25:38.893,-15.5001,-9.9375
14:25:38.903,-14.4376,-7.1875
14:25:38.913,-13.5626,-4.9375
14:25:38.923,-11.9375,-2.1875
14:25:38.933,-10.6875,0.8125
14:25:38.943,-8.3125,5.5625
14:25:38.953,-5.1875,9.375
14:25:38.963,-1.75,16.6251
14:25:38.973,1.3125,23.6876
14:25:38.983,29.9376,69.9378
14:25:38.993,64.5002,138.1255
14:25:39.004,52.9377,117.5004
14:25:39.013,46.7502,108.3129
14:25:39.025,43.5627,102.4379
14:25:39.033,43.5627,101.6254
14:25:39.043,44.9377,100.7504
14:25:39.053,41.3752,97.1254
14:25:39.063,35.4376,88.9378
14:25:39.074,29.3751,80.8128
14:25:39.083,24.7501,74.6253
14:25:39.094,21.1251,65.9378
14:25:39.103,19.5001,57.7502
14:25:39.113,17.2501,50.4377
14:25:39.123,13.7501,44.3127
14:25:39.133,10.3125,39.8752
14:25:39.144,7.8125,34.1876
14:25:39.161,6.5,30.1876
14:25:39.176,4.125,26.0001
14:25:39.178,2.6875,23.5001
14:25:39.193,1.5625,21.5001
14:25:39.195,-0.875,15.3751
14:25:39.206,-2.6875,11.875
14:25:39.241,-2.875,11.3125
14:25:39.243,-4,9.25
14:25:39.245,-4.0625,9.375
14:25:39.248,-4.8125,6.1875
14:25:39.253,-7.375,3.75
14:25:39.287,-8.8125,-0.5
14:25:39.289,-9.875,-3.125
14:25:39.319,-9.9375,-4
14:25:39.352,-10.625,-5.625
14:25:39.397,-10.5,-6.4375
14:25:39.399,-11.625,-8.0625
14:25:39.401,-12.5625,-9.0625
14:25:39.401,-13.3126,-9.6875
14:25:39.403,-14.5001,-12.125
14:25:39.408,-14.1251,-13.3751
14:25:39.413,-15.3126,-14.9376
14:25:39.424,-16.5001,-17.0626
14:25:39.433,-16.8751,-17.3751
14:25:39.443,-17.1251,-18.1251
14:25:39.453,-17.7501,-18.9376
14:25:39.463,-18.0626,-20.6876
14:25:39.475,-18.8126,-20.5626
14:25:39.483,-18.5001,-22.1876
14:25:39.493,-18.7501,-22.0001
14:25:39.504,-17.6876,-22.5626
14:25:39.515,-18.1876,-22.8751
14:25:39.530,-18.8126,-22.9376
14:25:39.535,-18.1251,-22.9376
14:25:39.543,-18.1876,-24.2501
14:25:39.553,-18.6251,-26.8751
14:25:39.563,-19.6251,-25.1876
14:25:39.573,-19.2501,-27.0001
14:25:39.583,-18.3751,-26.1251
14:25:39.594,-18.5001,-25.5626
14:25:39.603,-17.3126,-25.5626
14:25:39.614,-18.5626,-24.7501
14:25:39.624,-18.1251,-25.5626
14:25:39.633,-19.1251,-26.1251
14:25:39.643,-18.3126,-25.8126
14:25:39.653,-19.1251,-26.1251
14:25:39.663,-18.9376,-26.1876
14:25:39.673,-19.1876,-24.9376
14:25:39.684,-18.0001,-22.8751
14:25:39.693,-17.6251,-20.5626
14:25:39.704,-16.3126,-16.6876
14:25:39.715,-15.9376,-13.5001
14:25:39.725,-14.5626,-9.75
14:25:39.734,-13.8751,-5.8125
14:25:39.744,-12,-1.875
14:25:39.753,-11.3125,1.1875
14:25:39.763,-9.9375,4.125
14:25:39.773,-10.375,6.625
14:25:39.784,-8.8125,9.5
14:25:39.793,-8.125,12.0625
14:25:39.803,-6.6875,13.7501
14:25:39.813,-7.25,15.7501
14:25:39.823,-5.6875,17.4376
14:25:39.833,-5.625,19.2501
14:25:39.843,-5.0625,20.3751
14:25:39.853,-4.5,21.5626
14:25:39.864,-3.8125,22.1876
14:25:39.873,-5.125,22.6251
14:25:39.883,-3.75,22.8751
14:25:39.893,-4.375,23.9376
14:25:39.907,-3.3125,22.9376
14:25:39.913,-3.5625,24.1876
14:25:39.944,-4.1875,23.3126
14:25:39.947,-3.5,21.5626
14:25:39.949,-4.1875,21.0626
14:25:39.974,-4.0625,20.3126
14:25:39.975,-4.125,18.4376
14:25:39.978,-4.875,18.1251
14:25:39.983,-4.6875,16.4376
14:25:40.011,-4.25,15.9376
14:25:40.017,-4.8125,15.1876
14:25:40.017,-5.125,14.0626
14:25:40.025,-4.1875,13.3751
14:25:40.054,-5.125,13.1876
14:25:40.057,-4.875,11.5
14:25:40.060,-5.3125,10.125
14:25:40.063,-6.4375,9.1875
14:25:40.093,-6.25,8.375
14:25:40.097,-6.375,6.6875
14:25:40.098,-6.3125,6.125
14:25:40.103,-6.25,5
14:25:40.115,-7.125,4.4375
14:25:40.123,-7.0625,2.75
14:25:40.133,-7.4375,2.75
14:25:40.143,-7.5,2.1875
14:25:40.153,-7.5,1.4375
14:25:40.164,-8.375,-0.125
14:25:40.173,-8.5,-1.9375
14:25:40.183,-8.75,-0.9375
14:25:40.193,-8.625,-3.4375
14:25:40.203,-9.1875,-3.875
14:25:40.213,-9.875,-5.5625
14:25:40.224,-10.3125,-6.875
14:25:40.233,-10,-6.4375
14:25:40.243,-10.375,-8.0625
14:25:40.255,-10.4375,-8.75
14:25:40.263,-10.625,-8.75
14:25:40.273,-11.8125,-9.4375
14:25:40.283,-11.375,-10
14:25:40.293,-11.5,-11.3125
14:25:40.308,-12.3125,-11.8125
14:25:40.318,-11.75,-12.3125
14:25:40.328,-12.5625,-13.5626
14:25:40.338,-11.5,-13.3126
14:25:40.348,-12.1875,-14.9376
14:25:40.358,-11.375,-14.1251
14:25:40.368,-12.1875,-15.1876
14:25:40.378,-12.125,-14.6876
14:25:40.388,-11.875,-16.1876
14:25:40.400,-11.1875,-13.8751
14:25:40.408,-11,-15.6251
14:25:40.420,-10.5,-14.1876
14:25:40.428,-10.75,-14.5626
14:25:40.439,-9.4375,-13.5626
14:25:40.450,-11.1875,-12.5625
14:25:40.467,-10.4375,-12.8125
14:25:40.470,-10.5625,-11.5625
14:25:40.485,-9.625,-12.875
14:25:40.529,-10.125,-11.5625
14:25:40.531,-9.8125,-12.3125
14:25:40.537,-10.5,-11.875
14:25:40.537,-10.375,-13
14:25:40.537,-11.5625,-12.125
14:25:40.545,-10.0625,-11.5
14:25:40.553,-10.125,-8.5625
14:25:40.564,-9.0625,-6.9375
14:25:40.573,-8.5,-2.9375
14:25:40.583,-7.3125,0.125
14:25:40.593,-6.6875,4.5625
14:25:40.603,-5.625,7.375
14:25:40.613,-4.5625,10.25
14:25:40.623,-3.75,12.3125
14:25:40.634,-3.4375,16.6876
14:25:40.643,-1.75,18.2501
14:25:40.664,-1.375,22.0001
14:25:40.667,-0.375,24.0001
14:25:40.681,1.125,25.0001
14:25:40.684,1.125,28.6876
14:25:40.706,1.5,30.4376
14:25:40.708,2.8125,33.5001
14:25:40.713,4.25,34.5001
14:25:40.742,3.8125,36.7501
14:25:40.745,4.75,37.9376
14:25:40.747,4.4375,38.6251
14:25:40.778,5.0625,39.9377
14:25:40.778,5.9375,39.2502
14:25:40.781,5.625,39.2501
14:25:40.787,5.5625,39.7502
14:25:40.794,4.8125,39.6252
14:25:40.828,5.0625,38.6876
14:25:40.831,4.8125,37.3751
14:25:40.833,4.625,36.7501
14:25:40.836,4.5,37.1251
14:25:40.867,4.3125,36.4376
14:25:40.872,4.0625,35.0001
14:25:40.872,4.375,34.3751
14:25:40.879,4.25,33.0626
14:25:40.883,4.875,32.0626
14:25:40.893,3.75,31.1251
14:25:40.903,3.75,29.7501
14:25:40.913,3,28.7501
14:25:40.923,3,28.8751
14:25:40.933,2.75,27.5001
14:25:40.943,2.5625,26.8751
14:25:40.954,2.5625,25.1251
14:25:40.964,2.0625,23.5001
14:25:40.973,1.5625,24.4376
14:25:40.983,1.5,24.1876
14:25:40.994,1.9375,23.0001
14:25:41.003,1.1875,21.1876
14:25:41.013,0.9375,21.7501
14:25:41.023,0.8125,20.9376
14:25:41.033,0.3125,19.3126
14:25:41.043,0.4375,17.9376
14:25:41.056,-0.3125,16.5001
14:25:41.064,-0.9375,14.8126
14:25:41.073,-1.5,15.0626
14:25:41.083,-1.875,14.3751
14:25:41.093,-2.125,13
14:25:41.103,-2.125,11
14:25:41.115,-2.5625,9.625
14:25:41.124,-3.4375,9.25
14:25:41.133,-3.375,9.5
14:25:41.143,-3.125,7.5
14:25:41.153,-3.375,5.6875
14:25:41.163,-3.625,4.5625
14:25:41.173,-4.0625,3.9375
14:25:41.183,-3.8125,2.6875
14:25:41.193,-4.375,1.875
14:25:41.203,-4.5,0.3125
14:25:41.213,-4.875,0.625
14:25:41.223,-4.375,0.875
14:25:41.233,-3.1875,0.75
14:25:41.245,-4,0.1875
14:25:41.254,-4.0625,-0.0625
14:25:41.263,-3.5,-0.875
14:25:41.275,-3.6875,-2.1875
14:25:41.283,-4.625,-1.5
14:25:41.293,-4.4375,-2.0625
14:25:41.303,-5,-4.0625
14:25:41.314,-5.4375,-5.5625
14:25:41.323,-5.75,-6.6875
14:25:41.333,-6.5,-7.625
14:25:41.343,-7.125,-7.5
14:25:41.353,-6.75,-9
14:25:41.364,-7.3125,-11.3125
14:25:41.373,-8.0625,-10.5625
14:25:41.383,-7,-11.8125
14:25:41.393,-8.8125,-12.6875
14:25:41.407,-8.625,-11.5625
14:25:41.413,-7.375,-10.5625
14:25:41.444,-7.1875,-9.625
14:25:41.446,-5.9375,-5.4375
14:25:41.448,-3.875,-1.4375
14:25:41.453,-3.875,2.5
14:25:41.480,-2.875,4.875
14:25:41.482,-2.25,7.125
14:25:41.484,-2.25,11.6875
14:25:41.514,-0.5,13.0625
14:25:41.517,0.1875,14.3751
14:25:41.519,0.9375,17.0001
14:25:41.524,1.375,17.8126
14:25:41.552,2.125,19.6876
14:25:41.555,2.625,22.8751
14:25:41.558,3.8125,23.0626
14:25:41.563,3.9375,23.3126
14:25:41.591,4.25,24.4376
14:25:41.593,5.0625,25.8751
14:25:41.595,4.625,26.8126
14:25:41.604,6.125,28.0001
14:25:41.614,6.125,28.9376
14:25:41.623,6.875,30.1876
14:25:41.633,7.5625,30.7501
14:25:41.643,8.6875,30.8751
14:25:41.653,8.25,31.4376
14:25:41.663,8,30.6251
14:25:41.673,7.5625,29.8126
14:25:41.683,7.3125,27.5001
14:25:41.693,6.4375,24.9376
14:25:41.703,5.875,24.2501
14:25:41.716,5.75,23.8751
14:25:41.724,6.0625,22.4376
14:25:41.734,4.75,20.1876
14:25:41.744,4.625,19.8751
14:25:41.753,4.5,19.3126
14:25:41.763,4.5625,18.7501
14:25:41.773,4.25,16.2501
14:25:41.802,3,16.4376
14:25:41.816,3.25,15.8751
14:25:41.832,3.1875,14.4376
14:25:41.835,2.4375,13.1251
14:25:41.837,1.5625,12.4375
14:25:41.842,1.25,12.5625
14:25:41.843,1.25,10.6875
14:25:41.853,0.875,9.75
14:25:41.863,0.9375,8.1875
14:25:41.873,-0.25,6.875
14:25:41.883,-1.1875,6.3125
14:25:41.893,-0.375,5.5625
14:25:41.903,-0.5,4.125
14:25:41.913,-0.5625,3.625
14:25:41.923,-1.6875,3.125
14:25:41.933,-2,2.125
14:25:41.943,-1.0625,0.4375
14:25:41.953,-1.5625,-0.5
14:25:41.975,-1.75,-1.125
14:25:41.977,-2.5625,-2.6875
14:25:41.985,-3,-2.875
14:25:41.993,-2.8125,-3.125
14:25:42.009,-2.5,-1.6875
14:25:42.025,-2.0625,-2.875
14:25:42.028,-2.125,-3.8125
14:25:42.038,-2.375,-3.4375
14:25:42.050,-2.3125,-4.1875
14:25:42.060,-2.1875,-4.875
14:25:42.068,-2.125,-5.5625
14:25:42.078,-3.1875,-5.9375
14:25:42.088,-3.9375,-6.3125
14:25:42.098,-3.25,-7.0625
14:25:42.108,-3.625,-8.6875
14:25:42.118,-4.5,-9.0625
14:25:42.156,-5.1875,-9.25
14:25:42.156,-5.1875,-9.9375
14:25:42.160,-5,-11.875
14:25:42.161,-4.9375,-12.625
14:25:42.190,-5,-12.5625
14:25:42.196,-6.125,-13.8126
14:25:42.196,-6.75,-14.1251
14:25:42.198,-6.5625,-15.9376
14:25:42.229,-6.25,-15.6876
14:25:42.232,-6.5625,-17.1876
14:25:42.235,-7.5,-19.1876
14:25:42.239,-7.375,-17.6251
14:25:42.266,-7.5,-18.6251
14:25:42.268,-6.75,-17.7501
14:25:42.271,-7.5,-18.5626
14:25:42.297,-7.375,-15.5626
14:25:42.299,-7,-14.8126
14:25:42.302,-5.875,-11.6875
14:25:42.308,-4.375,-8.875
14:25:42.322,-5.25,-6.0625
14:25:42.329,-4,-3.9375
14:25:42.338,-3.6875,-0.625
14:25:42.348,-7.25,-12.3125
14:25:42.358,-6.5625,-11.625
14:25:42.368,-8.375,-11.6875
14:25:42.378,-9.5,-13.9376
14:25:42.388,-8.625,-14.6876
14:25:42.398,-9.5625,-15.5626
14:25:42.408,-7.875,-14.8126
14:25:42.418,-7.6875,-11.875
14:25:42.428,-6.0625,-8.875
14:25:42.438,-6.5625,-7.25
14:25:42.448,-6.4375,-6.0625
14:25:42.458,-5.9375,-7.1875
14:25:42.468,-7.0625,-6.875
14:25:42.478,-6.4375,-8.25
14:25:42.488,-7.1875,-8.875
14:25:42.498,-7.25,-9
14:25:42.508,-7.3125,-11.375
14:25:42.520,-8.4375,-12.0625
14:25:42.529,-7.9375,-12.625
14:25:42.540,-7.8125,-13.8126
14:25:42.548,-7.75,-12.4375
14:25:42.558,-6.9375,-13.9376
14:25:42.568,-7,-14.5626
14:25:42.578,-6.3125,-13.3126
14:25:42.588,-5.8125,-14.1876
14:25:42.598,-5.5625,-12.0625
14:25:42.608,-5.9375,-13.7501
14:25:42.618,-5.625,-11.625
14:25:42.628,-6.4375,-13.0625
14:25:42.638,-6.1875,-12
14:25:42.648,-5.9375,-11.6875
14:25:42.658,-6.5,-12.6875
14:25:42.669,-7.25,-12.5625
14:25:42.678,-7.625,-14.5626
14:25:42.688,-8.625,-14.3126
14:25:42.698,-8.4375,-15.8751
14:25:42.708,-8.625,-17.6876
14:25:42.718,-9.5,-16.7501
14:25:42.728,-9.625,-19.4376
14:25:42.738,-10.375,-19.1876
14:25:42.748,-10.1875,-20.1876
14:25:42.758,-11.1875,-20.5001
14:25:42.768,-11.5,-21.1876
14:25:42.778,-12.0625,-22.9376
14:25:42.788,-12.375,-21.9376
14:25:42.799,-12.5,-23.3751
14:25:42.810,-13.3126,-24.7501
14:25:42.818,-13.9376,-23.8751
14:25:42.856,-14.5001,-26.6876
14:25:42.857,-15.0626,-26.7501
14:25:42.860,-15.1876,-28.8126
14:25:42.862,-15.6876,-28.3751
14:25:42.868,-16.1876,-30.1251
14:25:42.899,-16.1876,-30.0001
14:25:42.901,-17.3751,-31.8751
14:25:42.903,-16.7501,-31.5001
14:25:42.928,-16.8126,-32.3751
14:25:42.929,-18.0001,-32.3751
14:25:42.931,-17.8126,-33.5626
14:25:42.938,-18.6251,-33.9376
14:25:42.948,-18.0626,-34.2501
14:25:42.977,-19.3751,-35.6251
14:25:42.978,-19.1251,-36.5626
14:25:42.982,-20.0626,-36.4376
14:25:42.988,-20.1251,-37.8126
14:25:43.000,-20.8751,-39.3752
14:25:43.008,-21.6251,-39.3127
14:25:43.020,-21.6876,-41.3127
14:25:43.028,-22.1251,-44.1252
14:25:43.038,-22.5626,-43.4377
14:25:43.048,-22.9376,-46.5002
14:25:43.080,-23.3751,-46.2502
14:25:43.082,-23.1251,-47.1877
14:25:43.085,-22.7501,-47.5002
14:25:43.088,-22.3751,-48.2502
14:25:43.109,-22.1251,-48.0002
14:25:43.114,-22.0626,-48.1877
14:25:43.122,-21.5626,-45.9377
14:25:43.128,-20.5001,-45.5002
14:25:43.145,-20.1876,-42.3752
14:25:43.151,-18.3751,-39.0001
14:25:43.159,-17.6251,-35.8751
14:25:43.169,-15.3126,-31.1251
14:25:43.178,-13.8751,-28.1876
14:25:43.189,-13.3751,-25.3751
14:25:43.198,-11.8125,-20.8751
14:25:43.208,-10.75,-19.7501
14:25:43.218,-9.125,-16.3126
14:25:43.228,-7.4375,-14.0001
14:25:43.238,-7.0625,-11.625
14:25:43.248,-5.5,-9.8125
14:25:43.258,-4.75,-7.5
14:25:43.268,-4.3125,-5.25
14:25:43.279,-2.4375,-3.9375
14:25:43.293,-1.9375,-2.8125
14:25:43.310,-0.9375,0.1875
14:25:43.313,0,0.25
14:25:43.320,0,1.1875
14:25:43.328,0.875,1.875
14:25:43.339,0.125,1.625
14:25:43.348,0.125,2.75
14:25:43.358,0.5625,1.6875
14:25:43.368,0.625,-0.0625
14:25:43.378,1.125,0.0625
14:25:43.388,0.4375,-1.6875
14:25:43.398,1.125,-1.4375
14:25:43.409,1.125,-2.625
14:25:43.418,1,-2.25
14:25:43.428,2.4375,-3.25
14:25:43.438,1.875,-3.3125
14:25:43.448,2.0625,-2.6875
14:25:43.458,1.6875,-4.5
14:25:43.468,2.9375,-5.625
14:25:43.478,2.1875,-6.375
14:25:43.489,1.1875,-6.0625
14:25:43.498,1.9375,-6.6875
14:25:43.508,2,-7.25
14:25:43.518,2.5625,-8.25
14:25:43.528,1.625,-9.5625
14:25:43.538,1.375,-9.8125
14:25:43.549,1.6875,-10.3125
14:25:43.559,2.3125,-11.75
14:25:43.568,1.5,-12.8125
14:25:43.579,1.25,-12.1875
14:25:43.591,1.25,-14.4376
14:25:43.600,0.6875,-15.5001
14:25:43.610,0.3125,-15.7501
14:25:43.647,0.5625,-15.2501
14:25:43.649,0.4375,-16.5626
14:25:43.652,0.25,-17.5626
14:25:43.654,-0.625,-18.9376
14:25:43.660,-0.625,-18.1876
14:25:43.691,-0.5625,-19.8751
14:25:43.693,-1,-20.1251
14:25:43.696,-0.6875,-21.2501
14:25:43.727,-0.5625,-21.4376
14:25:43.727,-0.6875,-22.3751
14:25:43.730,-0.625,-22.1251
14:25:43.736,-0.9375,-22.8751
14:25:43.739,-1.375,-23.1251
14:25:43.773,-0.0625,-23.6876
14:25:43.773,-0.875,-24.1876
14:25:43.775,-1.25,-22.6251
14:25:43.779,-1.0625,-24.6876
14:25:43.798,-1.5,-25.8126
14:25:43.800,-1,-24.7501
14:25:43.808,-0.6875,-25.6251
14:25:43.818,-0.9375,-25.0001
14:25:43.828,-0.5,-25.5626
14:25:43.838,-1.25,-25.3751
14:25:43.851,-1.1875,-24.8126
14:25:43.859,-1.5,-25.5001
14:25:43.868,-1.1875,-26.6251
14:25:43.878,-1.125,-26.5626
14:25:43.888,-1.0625,-27.6251
14:25:43.898,-0.8125,-27.6876
14:25:43.908,-1.375,-28.3126
14:25:43.918,-1.125,-28.3126
14:25:43.928,-1.5625,-28.9376
14:25:43.938,-1.5,-29.6876
14:25:43.949,-1.625,-29.3126
14:25:43.958,-1.6875,-28.8126
14:25:43.968,-0.8125,-28.3751
14:25:43.978,-0.8125,-26.5626
14:25:43.988,0.25,-24.1876
14:25:43.998,1.4375,-21.0626
14:25:44.008,2.125,-16.0001
14:25:44.018,3.125,-12.875
14:25:44.028,4.375,-9.25
14:25:44.039,5.75,-4.8125
14:25:44.050,6.6875,-2.3125
14:25:44.058,6.875,1.8125
14:25:44.069,9.125,3.875
14:25:44.078,8.9375,6.1875
14:25:44.088,9.1875,9.5
14:25:44.098,10.5625,10.1875
14:25:44.108,11.1875,12.125
14:25:44.118,12.125,14.5001
14:25:44.128,12.6875,14.8751
14:25:44.139,13.0625,16.5626
14:25:44.149,13.6876,17.5001
14:25:44.160,14.1251,20.7501
14:25:44.168,14.6876,21.2501
14:25:44.178,15.1876,20.1876
14:25:44.188,14.5626,20.2501
14:25:44.198,15.2501,22.3126
14:25:44.208,15.5626,21.8126
14:25:44.218,15.1876,21.3751
14:25:44.228,14.8126,20.8126
14:25:44.238,14.9376,19.3126
14:25:44.249,14.6876,18.1876
14:25:44.260,13.5001,17.8126
14:25:44.268,14.3126,17.0626
14:25:44.278,14.0626,15.5001
14:25:44.288,13.9376,14.3751
14:25:44.298,13.5626,14.3751
14:25:44.308,13,14.4376
14:25:44.318,13.1251,13.125
14:25:44.328,13.1876,11.5
14:25:44.360,12.375,11.6875
14:25:44.362,12.3125,11.0625
14:25:44.364,12.375,10.3125
14:25:44.392,12.1875,8.4375
14:25:44.392,11.9375,8.4375
14:25:44.394,11.25,8
14:25:44.401,11.5625,6.9375
14:25:44.437,11,5.5
14:25:44.440,10.375,5.625
14:25:44.470,10.5625,3.8125
14:25:44.501,9.5625,3.3125
14:25:44.503,9.125,3.125
14:25:44.505,9.375,2.4375
14:25:44.509,9.3125,0.8125
14:25:44.509,9.25,-0.625
14:25:44.537,8.125,-2.5625
14:25:44.539,8.25,-1.9375
14:25:44.542,8.375,-2.875
14:25:44.544,7.6875,-4.1875
14:25:44.553,6.9375,-5.625
14:25:44.563,7,-5
14:25:44.573,7.75,-6.125
14:25:44.583,6.75,-7.5
14:25:44.609,5.5625,-7.75
14:25:44.612,5.9375,-8.6875
14:25:44.631,6,-9.5
14:25:44.633,6.1875,-10.5625
14:25:44.645,5.125,-9.875
14:25:44.646,4.875,-10.9375
14:25:44.660,4.75,-12.1875
14:25:44.665,4.75,-14.1251
14:25:44.673,4.3125,-15.1876
14:25:44.683,4.6875,-16.6251
14:25:44.693,3.5,-17.1251
14:25:44.703,3.875,-16.5626
14:25:44.714,3.625,-18.7501
14:25:44.724,3.375,-18.5626
14:25:44.733,3.9375,-19.5001
14:25:44.743,3.5625,-20.0626
14:25:44.753,2.5,-19.8751
14:25:44.763,2.8125,-20.3126
14:25:44.773,2.5625,-21.6876
14:25:44.784,2.0625,-23.1251
14:25:44.796,1.5,-22.5001
14:25:44.803,1.6875,-22.8751
14:25:44.813,1.3125,-24.3751
14:25:44.823,1.25,-24.7501
14:25:44.833,1.4375,-24.5626
14:25:44.843,1.1875,-23.6876
14:25:44.854,1.8125,-22.3126
14:25:44.866,2.25,-21.0626
14:25:44.873,2.5,-16.2501
14:25:44.883,3.375,-13.4376
14:25:44.893,5.125,-10.625
14:25:44.903,5.625,-5.9375
14:25:44.913,7.0625,-2.5625
14:25:44.923,8.1875,0.5625
14:25:44.933,8.375,3.3125
14:25:44.944,9.5625,7.25
14:25:44.953,10.5625,8.25
14:25:44.963,10.8125,11.375
14:25:44.973,11,12.8125
14:25:44.985,12.25,13.8751
14:25:44.994,12.125,17.0626
14:25:45.025,13.3751,18.6876
14:25:45.028,14.1876,18.6876
14:25:45.031,14.3126,20.3126
14:25:45.033,14.8751,21.5626
14:25:45.063,15.0626,21.7501
14:25:45.066,14.7501,23.3751
14:25:45.070,15.5626,23.1876
14:25:45.073,15.4376,23.6251
14:25:45.102,15.0626,22.5001
14:25:45.104,14.5001,23.5626
14:25:45.107,14.4376,22.6876
14:25:45.113,15.7501,21.7501
14:25:45.128,14.3126,20.5626
14:25:45.134,13.6876,18.8126
14:25:45.169,13.9376,19.2501
14:25:45.172,13.5626,17.1251
14:25:45.174,12.875,15.3126
14:25:45.179,12.4375,16.0626
14:25:45.183,12.5,15.0626
14:25:45.193,12.25,13.6251
14:25:45.203,11.0625,13.125
14:25:45.213,10.8125,12.625
14:25:45.223,11.25,12.4375
14:25:45.233,11.0625,10.5625
14:25:45.243,10.5,9.375
14:25:45.253,10.125,8.75
14:25:45.263,10.3125,9.125
14:25:45.273,10.3125,7
14:25:45.283,9.25,5.875
14:25:45.295,9,5.3125
14:25:45.303,9.3125,5
14:25:45.313,9.375,4.0625
14:25:45.323,8.875,2.75
14:25:45.333,8.25,3.125
14:25:45.343,7.6875,1.5625
14:25:45.359,8.3125,0.8125
14:25:45.363,7.5625,-1.0625
14:25:45.375,7.25,-1.875
14:25:45.383,6.9375,-1.375
14:25:45.393,7.8125,-2.5625
14:25:45.404,6.375,-4.4375
14:25:45.413,6,-4.4375
14:25:45.423,5.8125,-4.875
14:25:45.433,6.0625,-6.0625
14:25:45.443,5.0625,-7.125
14:25:45.453,4.5625,-7.9375
14:25:45.463,4.375,-7.3125
14:25:45.473,5.4375,-8.9375
14:25:45.483,4.375,-10
14:25:45.493,3.75,-9.1875
14:25:45.504,4.3125,-10.5
14:25:45.517,4,-11.9375
14:25:45.523,3.5625,-12.6875
14:25:45.533,2.9375,-11.75
14:25:45.543,2.625,-13.7501
14:25:45.553,2.5625,-14.8126
14:25:45.563,2.4375,-14.0001
14:25:45.574,2.375,-15.8126
14:25:45.583,2.375,-15.4376
14:25:45.593,2.375,-15.9376
14:25:45.603,2.5625,-16.7501
14:25:45.613,1.6875,-17.9376
14:25:45.639,1.6875,-17.3751
14:25:45.642,1.875,-18.5001
14:25:45.644,0.4375,-19.6876
14:25:45.653,0.1875,-18.8126
14:25:45.663,0.75,-20.0001
14:25:45.673,0.25,-21.8126
14:25:45.683,-0.0625,-21.5626
14:25:45.693,0.3125,-21.7501
14:25:45.703,-0.5625,-22.6876
14:25:45.713,0.125,-21.0626
14:25:45.723,0.75,-21.0626
14:25:45.734,0.75,-17.0001
14:25:45.751,1.8125,-15.5001
14:25:45.758,3,-13.3751
14:25:45.773,4.125,-8.3125
14:25:45.775,6.5625,-4.1875
14:25:45.785,6.875,-0.4375
14:25:45.793,7.3125,3.375
14:25:45.818,8.9375,5.25
14:25:45.820,9.625,8.4375
14:25:45.823,10.6875,11.625
14:25:45.854,11.125,12.75
14:25:45.857,10.9375,14.3126
14:25:45.859,11.8125,16.2501
14:25:45.864,12.6875,17.6876
14:25:45.894,13.2501,19.1876
14:25:45.897,13.5001,19.9376
14:25:45.899,13.1876,21.8751
14:25:45.931,14.0626,22.2501
14:25:45.931,14.5626,22.6876
14:25:45.966,14.3751,22.3751
14:25:45.972,14.2501,24.6876
14:25:45.973,14.1876,24.6251
14:25:45.973,15.0001,23.8126
14:25:45.981,14.0001,22.5001
14:25:45.989,14.1251,22.2501
14:25:46.000,13.0625,21.9376
14:25:46.008,13.125,20.3126
14:25:46.018,12.6875,18.6876
14:25:46.028,12.0625,17.0001
14:25:46.038,12.125,17.5626
14:25:46.053,11.8125,15.8126
14:25:46.063,10.8125,15.1876
14:25:46.074,10.9375,14.8751
14:25:46.083,10.8125,13.9376
14:25:46.093,10.75,12.125
14:25:46.110,10.5,11.625
14:25:46.113,9.5625,10.875
14:25:46.125,9.5625,9.1875
14:25:46.133,9.5,9.3125
14:25:46.143,9.75,8
14:25:46.153,8.625,6.4375
14:25:46.163,8.625,6.4375
14:25:46.174,8.6875,5.4375
14:25:46.183,8.75,4.375
14:25:46.193,7.25,2.5
14:25:46.203,7,2.5
14:25:46.213,6.9375,0.875
14:25:46.223,7.1875,0.9375
14:25:46.236,7.1875,-0.25
14:25:46.243,6.5625,-1.375
14:25:46.253,5.625,-2.6875
14:25:46.263,5.25,-2.375
14:25:46.273,5.0625,-3.125
14:25:46.285,5.1875,-4.125
14:25:46.293,4.9375,-5.5625
14:25:46.303,4.0625,-7.3125
14:25:46.313,4,-6
14:25:46.323,4.375,-7.3125
14:25:46.335,3.875,-8.0625
14:25:46.344,3.625,-9.8125
14:25:46.353,3.0625,-10.6875
14:25:46.363,2.8125,-10.5
14:25:46.373,2.875,-10.5
14:25:46.384,2.8125,-11.5
14:25:46.393,2.3125,-13.3126
14:25:46.403,2.125,-13.0625
14:25:46.413,1.5,-12.625
14:25:46.425,2.0625,-14.5001
14:25:46.433,1.125,-14.5001
14:25:46.443,1.0625,-15.2501
14:25:46.453,0.875,-16.8126
14:25:46.463,0.4375,-16.6876
14:25:46.475,0.625,-16.6876
14:25:46.483,0.625,-18.0001
14:25:46.493,-0.0625,-20.2501
14:25:46.503,-0.4375,-19.3751
14:25:46.513,-0.4375,-20.9376
14:25:46.525,-0.5,-20.2501
14:25:46.553,-0.9375,-19.5626
14:25:46.555,-0.1875,-20.3751
14:25:46.558,-0.625,-17.9376
14:25:46.565,0.8125,-15.9376
14:25:46.592,1.625,-13.125
14:25:46.594,1.9375,-8.75
14:25:46.599,2.8125,-5.25
14:25:46.603,4.625,-2.1875
14:25:46.637,5.1875,0.5
14:25:46.640,6.25,4.125
14:25:46.642,6.875,6
14:25:46.669,6.625,7.125
14:25:46.671,8.0625,10.8125
14:25:46.673,9.125,12.125
14:25:46.678,9.1875,13.0625
14:25:46.691,9.6875,16.2501
14:25:46.693,10.375,15.5626
14:25:46.703,10.75,18.4376
14:25:46.715,10.5,18.0626
14:25:46.723,11.75,19.5626
14:25:46.733,12,20.2501
14:25:46.743,11.5625,20.9376
14:25:46.753,11.4375,21.3751
14:25:46.762,12.1875,20.9376
14:25:46.773,11.8125,22.2501
14:25:46.783,12.25,20.5626
14:25:46.793,11.6875,19.4376
14:25:46.804,11.4375,18.8751
14:25:46.813,11.0625,17.8126
14:25:46.823,11.4375,17.1251
14:25:46.833,11.4375,16.5626
14:25:46.843,11.1875,14.7501
14:25:46.860,10.125,14.5001
14:25:46.865,10.5,14.3751
14:25:46.873,9.875,12.25
14:25:46.882,9.5625,13.2501
14:25:46.893,10.1875,12.0625
14:25:46.919,9.0625,10.9375
14:25:46.921,9.0625,12
14:25:46.924,9.25,10
14:25:46.933,8.625,8
14:25:46.943,8.0625,8.3125
14:25:46.953,8.4375,6.875
14:25:46.963,7.5,5.5
14:25:46.973,7.25,5.125
14:25:46.983,6.875,5.4375
14:25:46.991,7.3125,3.75
14:25:47.002,6.6875,2.6875
14:25:47.015,6.4375,1.0625
14:25:47.023,6.1875,0.5
14:25:47.033,5.9375,1.0625
14:25:47.043,5.9375,-1.25
14:25:47.059,5.125,-2.25
14:25:47.067,4.3125,-2.8125
14:25:47.080,4.3125,-3.3125
14:25:47.083,4.375,-4.375
14:25:47.098,4,-6.5625
14:25:47.104,3.1875,-5.75
14:25:47.113,3.8125,-6.875
14:25:47.128,3.25,-7.8125
14:25:47.138,2.9375,-9.0625
14:25:47.147,2.3125,-9
14:25:47.158,2.125,-10.375
14:25:47.170,2.25,-10.5625
14:25:47.178,1.875,-12.25
14:25:47.188,1.25,-12.4375
14:25:47.198,2.125,-13.0625
14:25:47.208,0.8125,-14.6251
14:25:47.218,0.25,-13.9376
14:25:47.228,1.0625,-14.5626
14:25:47.238,1.25,-15.0001
14:25:47.255,0.9375,-15.9376
14:25:47.259,-0.1875,-17.6876
14:25:47.273,-0.3125,-17.2501
14:25:47.282,-1.125,-17.8751
14:25:47.288,-0.625,-19.6251
14:25:47.330,-1.0625,-18.8126
14:25:47.333,-0.9375,-21.2501
14:25:47.335,-1.875,-22.5001
14:25:47.338,-2.25,-22.3126
14:25:47.342,-1.3125,-22.5001
14:25:47.348,-1.9375,-23.3751
14:25:47.377,-2.5,-23.9376
14:25:47.379,-2.875,-22.3126
14:25:47.382,-1.9375,-23.2501
14:25:47.388,-2.125,-21.7501
14:25:47.412,-1.4375,-18.0626
14:25:47.413,0.375,-15.0001
14:25:47.447,1.125,-11.5
14:25:47.449,1.875,-6.9375
14:25:47.452,2.8125,-3.5
14:25:47.454,4.0625,-1
14:25:47.459,4.625,4.1875
14:25:47.468,5.625,5.875
14:25:47.478,6.375,7.4375
14:25:47.488,7,10.25
14:25:47.498,7.5,11.25
14:25:47.508,7.9375,13.1876
14:25:47.518,8.875,15.0001
14:25:47.528,8.9375,16.4376
14:25:47.538,10.125,17.6876
14:25:47.548,10.5,18.3126
14:25:47.558,10.0625,20.1876
14:25:47.568,10.5625,20.5626
14:25:47.579,11.75,21.1876
14:25:47.588,11.3125,21.7501
14:25:47.598,11.375,22.6251
14:25:47.613,11.625,22.4376
14:25:47.618,11.6875,21.5626
14:25:47.628,11.0625,20.8751
14:25:47.638,11.5,19.8751
14:25:47.648,10.9375,18.0001
14:25:47.658,10.25,17.5001
14:25:47.668,10,18.0626
14:25:47.678,10.875,16.4376
14:25:47.688,10.125,15.3751
14:25:47.698,9.3125,14.8751
14:25:47.708,9.125,14.9376
14:25:47.718,9.25,13.3751
14:25:47.728,8.625,12.875
14:25:47.738,7.75,11.9375
14:25:47.750,7.75,11.5
14:25:47.758,8.0625,10.125
14:25:47.768,6.9375,9.3125
14:25:47.778,6.5625,9.125
14:25:47.789,6.6875,8.375
14:25:47.798,6.5,6.4375
14:25:47.808,5.75,5.3125
14:25:47.818,5.375,3.375
14:25:47.829,4.8125,4.1875
14:25:47.838,5.0625,3.25
14:25:47.848,5,1.875
14:25:47.858,4.125,0.1875
14:25:47.869,3.6875,1.5625
14:25:47.878,3.8125,0
14:25:47.888,4.0625,-0.625
14:25:47.898,3.25,-2.5
14:25:47.908,3.25,-3
14:25:47.921,2.4375,-2.8125
14:25:47.929,3,-4.1875
14:25:47.938,2.5,-5.875
14:25:47.948,1.625,-7.3125
14:25:47.958,1.25,-8
14:25:47.968,0.1875,-8.4375
14:25:47.978,0.25,-8.9375
14:25:47.988,-0.1875,-10.5625
14:25:48.020,-0.3125,-11.9375
14:25:48.023,-0.9375,-13.8126
14:25:48.027,-1.5,-13.6876
14:25:48.028,-1.1875,-13.4376
14:25:48.059,-1.625,-15.2501
14:25:48.062,-2.375,-16.0001
14:25:48.065,-2.8125,-15.8126
14:25:48.069,-2.6875,-17.6251
14:25:48.103,-2.625,-17.3751
14:25:48.105,-3.1875,-18.4376
14:25:48.108,-3.5625,-18.5001
14:25:48.135,-3.6875,-19.0626
14:25:48.135,-3.8125,-20.3751
14:25:48.137,-3.8125,-20.3126
14:25:48.142,-3.9375,-21.7501
14:25:48.169,-4.375,-22.1876
14:25:48.171,-4.0625,-22.1876
14:25:48.175,-4.25,-22.3126
14:25:48.200,-4.3125,-21.8751
14:25:48.202,-3.9375,-22.9376
14:25:48.205,-3.875,-20.3751
14:25:48.210,-3.6875,-20.8126
14:25:48.221,-3.375,-19.0001
14:25:48.228,-1.5625,-14.3126
14:25:48.238,-0.4375,-11.75
14:25:48.248,0.0625,-7.375
14:25:48.259,2,-3.125
14:25:48.268,2.875,-0.125
14:25:48.278,3.625,3.875
14:25:48.288,4.5625,5.8125
14:25:48.299,5.3125,8.125
14:25:48.310,6.5625,11.25
14:25:48.318,7.25,12.6875
14:25:48.328,8.0625,15.8751
14:25:48.338,8.5625,16.4376
14:25:48.348,8.75,18.3751
14:25:48.371,9.75,19.9376
14:25:48.375,9.9375,21.0626
14:25:48.388,10.8125,21.8751
14:25:48.393,10.75,22.2501
14:25:48.398,10.25,23.9376
14:25:48.408,11.4375,23.3751
14:25:48.418,11.0625,24.1876
14:25:48.428,11.625,24.0001
14:25:48.438,11.0625,22.5626
14:25:48.448,10.625,22.6251
14:25:48.458,10.1875,22.7501
14:25:48.468,10.3125,20.8126
14:25:48.477,10.25,20.1876
14:25:48.488,10.375,18.8126
14:25:48.498,9.9375,19.3751
14:25:48.508,9.5625,18.3126
14:25:48.518,9.625,17.2501
14:25:48.527,9.5,16.6876
14:25:48.538,8.6875,15.0626
14:25:48.558,9.25,15.6876
14:25:48.561,8,13.6876
14:25:48.576,7.625,15.1251
14:25:48.579,7.4375,14.3751
14:25:48.588,7.625,12.375
14:25:48.599,7.6875,11.6875
14:25:48.608,6.75,9.9375
14:25:48.618,6.5625,10.4375
14:25:48.627,6.375,10.125
14:25:48.638,7.8125,8.5625
14:25:48.648,7,8.125
14:25:48.657,5.8125,6.375
14:25:48.668,5.8125,7.25
14:25:48.680,5.6875,6.875
14:25:48.688,6,5.125
14:25:48.698,5.875,4.1875
14:25:48.708,5.25,3.6875
14:25:48.720,5.3125,3.75
14:25:48.728,4.9375,3.5
14:25:48.736,4.5625,2.5625
14:25:48.749,4.6875,1
14:25:48.781,3.8125,-0.3125
14:25:48.784,3.375,0
14:25:48.786,3.5625,-0.5625
14:25:48.788,3.9375,-1.9375
14:25:48.818,3.0625,-3.3125
14:25:48.820,2.5625,-1.9375
14:25:48.823,3.9375,-2.5625
14:25:48.829,3.5625,-3.375
14:25:48.860,2.875,-4
14:25:48.862,2.6875,-3.875
14:25:48.864,3.3125,-5.3125
14:25:48.869,2.0625,-6.6875
14:25:48.897,1.8125,-6.3125
14:25:48.899,1.9375,-6.4375
14:25:48.903,2.4375,-7.625
14:25:48.908,1.5625,-8.625
14:25:48.923,1.5,-9.0625
14:25:48.929,1.3125,-8.375
14:25:48.938,1.75,-9.875
14:25:48.948,0.875,-10.5625
14:25:48.958,0.5625,-9
14:25:48.969,2.0625,-9.125
14:25:48.979,1.75,-8.0625
14:25:48.987,2.5625,-4.375
14:25:48.998,4,-1.5625
14:25:49.009,4.25,1.1875
14:25:49.018,5.0625,5.5625
14:25:49.028,6.25,9.125
14:25:49.038,7.25,11.3125
14:25:49.049,7.875,14.5001
14:25:49.058,9,16.6876
14:25:49.068,8.5,18.7501
14:25:49.078,9.375,20.6251
14:25:49.088,10.125,20.5626
14:25:49.098,10.3125,22.5626
14:25:49.108,10.625,24.3126
14:25:49.123,10.875,24.0001
14:25:49.128,11.1875,26.3126
14:25:49.138,11.375,26.9376
14:25:49.148,12.3125,27.0626
14:25:49.157,12.0625,29.3126
14:25:49.167,12.875,29.2501
14:25:49.178,12.75,29.1876
14:25:49.188,12.9375,28.8751
14:25:49.198,12.5,30.2501
14:25:49.211,12.875,28.8126
14:25:49.217,12.0625,27.9376
14:25:49.228,12.4375,26.8126
14:25:49.239,11.75,26.9376
14:25:49.248,12.1875,25.9376
14:25:49.258,11.5625,23.8126
14:25:49.268,10.8125,24.0001
14:25:49.280,11.0625,23.5001
14:25:49.288,11.375,21.9376
14:25:49.298,10.5625,21.5001
14:25:49.308,10.625,22.6251
14:25:49.318,11.375,21.0001
14:25:49.328,10.625,19.1251
14:25:49.338,9.9375,20.4376
14:25:49.347,10.8125,19.0001
14:25:49.358,9.625,17.6876
14:25:49.368,9.1875,18.1251
14:25:49.378,10.4375,16.9376
14:25:49.396,9,15.5001
14:25:49.399,8.8125,16.1251
14:25:49.433,8.625,14.4376
14:25:49.434,8.9375,13.3126
14:25:49.437,8.0625,12.1875
14:25:49.439,7.6875,12.4375
14:25:49.481,8.375,11.1875
14:25:49.485,7.375,9.5625
14:25:49.486,7,8.8125
14:25:49.488,6.8125,9.0625
14:25:49.494,6.375,8.1875
14:25:49.499,6,7.3125
14:25:49.528,6.625,5.5
14:25:49.530,5.8125,4.875
14:25:49.532,6,4.3125
14:25:49.539,5.1875,3.5
14:25:49.564,5,3.25
14:25:49.566,5.875,1.4375
14:25:49.568,5,1.25
14:25:49.583,4.4375,-0.4375
14:25:49.588,3.5,-0.625
14:25:49.598,3.4375,-0.5625
14:25:49.609,3.5625,-1.75
14:25:49.618,3.375,-2.5625
14:25:49.628,3.3125,-4
14:25:49.637,2.125,-4.375
14:25:49.647,2.0625,-4.8125
14:25:49.666,1.75,-6.125
14:25:49.673,1.75,-6.75
14:25:49.688,1.25,-6.5
14:25:49.690,1.3125,-7
14:25:49.698,1.6875,-9.25
14:25:49.711,0.625,-10.4375
14:25:49.718,0,-11.1875
14:25:49.728,0.25,-10.0625
14:25:49.738,1,-10.0625
14:25:49.748,0.9375,-9.75
14:25:49.762,0.9375,-6.9375
14:25:49.769,1.8125,-3.9375
14:25:49.778,3.125,-1.4375
14:25:49.788,3.8125,2.875
14:25:49.797,5.3125,7.375
14:25:49.806,6.125,9.875
14:25:49.817,6.25,14.6876
14:25:49.826,8.3125,16.9376
14:25:49.839,9,18.8126
14:25:49.854,10.0625,21.1876
14:25:49.856,10.1875,24.7501
14:25:49.872,11.0625,25.8751
14:25:49.878,11.75,27.3751
14:25:49.888,11.8125,29.5626
14:25:49.896,13,31.3126
14:25:49.908,12.6875,31.5626
14:25:49.919,12.625,35.1251
14:25:49.928,13.5626,35.3751
14:25:49.938,14.1876,35.1876
14:25:49.947,14.0626,37.5001
14:25:49.961,15.1876,38.6876
14:25:49.968,15.8126,38.6876
14:25:49.980,15.9376,38.6876
14:25:49.986,15.1251,37.6876
14:25:49.997,14.4376,36.6251
14:25:50.008,14.0001,37.6876
14:25:50.018,14.2501,36.1876
14:25:50.028,14.3751,34.6251
14:25:50.038,13.0625,33.2501
14:25:50.050,13.2501,33.3751
14:25:50.063,13.5001,32.0626
14:25:50.072,12.5625,30.4376
14:25:50.084,12.375,29.5001
14:25:50.093,11.875,29.6251
14:25:50.104,11.5,28.5001
14:25:50.113,12.1875,27.4376
14:25:50.122,11,26.7501
14:25:50.133,10.5,25.9376
14:25:50.143,10.3125,25.8126
14:25:50.152,10.6875,23.6876
14:25:50.164,9.5625,22.4376
14:25:50.174,9.1875,22.1876
14:25:50.183,9.375,21.9376
14:25:50.193,8.8125,20.3126
14:25:50.202,8.0625,18.1251
14:25:50.224,7.3125,17.0626
14:25:50.227,6.875,16.2501
14:25:50.255,6.6875,14.8126
14:25:50.258,6.375,14.6876
14:25:50.260,5.875,14.1876
14:25:50.264,5.6875,13.125
14:25:50.293,6.1875,11.875
14:25:50.295,4.625,9.5625
14:25:50.297,4.625,8.5625
14:25:50.303,4.5,9.4375
14:25:50.333,4.9375,7.75
14:25:50.336,3.75,6.375
14:25:50.338,3.5625,4.9375
14:25:50.364,2.9375,4.25
14:25:50.366,2.375,4.625
14:25:50.368,2.9375,3.375
14:25:50.373,2.625,2.1875
14:25:50.396,2.0625,1.4375
14:25:50.399,1.1875,0
14:25:50.403,1,1.0625
14:25:50.413,1.125,-1.1875
14:25:50.423,0.625,-1.9375
14:25:50.434,0.8125,-2.4375
14:25:50.442,0.4375,-2.8125
14:25:50.451,0.0625,-4.5
14:25:50.463,0.125,-5.875
14:25:50.473,0,-4.5
14:25:50.481,0.875,-6.25
14:25:50.494,0,-8
14:25:50.503,-0.9375,-8.8125
14:25:50.513,-1.375,-9.75
14:25:50.523,-1.25,-9.3125
14:25:50.533,-1.125,-8.8125
14:25:50.541,-0.3125,-8.75
14:25:50.553,-0.125,-7.375
14:25:50.561,0.375,-5.25
14:25:50.572,1.8125,-0.5625
14:25:50.583,2.6875,1.875
14:25:50.593,4.375,7.6875
14:25:50.603,6.25,11.8125
14:25:50.613,6.375,14.5626
14:25:50.622,7.5,19.0626
14:25:50.632,8.6875,22.8126
14:25:50.643,9.4375,23.8126
14:25:50.653,10.5,26.8751
14:25:50.663,10.875,30.6876
14:25:50.673,12.125,32.8126
14:25:50.684,12.875,33.3126
14:25:50.693,13.6876,36.6876
14:25:50.703,14.2501,37.7501
14:25:50.713,14.7501,40.9377
14:25:50.722,16.0001,42.3127
14:25:50.733,16.3751,42.8752
14:25:50.760,16.4376,44.6252
14:25:50.763,17.3126,46.3127
14:25:50.765,17.1876,46.0627
14:25:50.775,17.3751,48.1877
14:25:50.783,17.6876,48.3752
14:25:50.793,18.0626,47.4377
14:25:50.803,17.2501,45.9377
14:25:50.815,16.9376,44.8127
14:25:50.821,16.1251,45.4377
14:25:50.831,16.5001,43.8752
14:25:50.844,16.1251,41.0627
14:25:50.853,14.8751,40.6877
14:25:50.861,14.5001,40.0002
14:25:50.872,14.5626,38.7501
14:25:50.882,14.2501,36.5001
14:25:50.893,13.4376,35.8751
14:25:50.903,12.5,35.1251
14:25:50.914,13.0625,33.7501
14:25:50.923,12.75,33.3126
14:25:50.933,12,31.8126
14:25:50.950,11.625,31.2501
14:25:50.953,10.875,29.9376
14:25:50.986,10.875,28.3751
14:25:50.988,10.3125,27.9376
14:25:50.991,10.0625,26.9376
14:25:50.993,10.4375,25.5626
14:25:51.022,9.25,23.8126
14:25:51.024,9.25,24.4376
14:25:51.028,9.25,23.1251
14:25:51.032,9.1875,21.6876
14:25:51.066,8.25,19.7501
14:25:51.069,7.8125,18.3751
14:25:51.072,7.3125,18.8126
14:25:51.076,7.0625,17.1251
14:25:51.103,6.8125,14.7501
14:25:51.106,6.0625,13.7501
14:25:51.108,5.625,13.3751
14:25:51.113,6.25,12.375
14:25:51.123,5.3125,10.9375
14:25:51.133,5.3125,9.9375
14:25:51.151,4.75,8.8125
14:25:51.153,4.1875,8.1875
14:25:51.168,4.5,7.5
14:25:51.173,4.3125,6.375
14:25:51.183,4.0625,5.4375
14:25:51.192,3.5,4.125
14:25:51.202,3.5,4.8125
14:25:51.213,3.25,3.5625
14:25:51.223,2.625,1.9375
14:25:51.233,2.5625,0.8125
14:25:51.244,1.9375,-0.625
14:25:51.251,2.125,-0.375
14:25:51.263,1.4375,-2.125
14:25:51.273,1.1875,-2.875
14:25:51.281,0.3125,-4.3125
14:25:51.291,0.8125,-4
14:25:51.303,0.375,-5.4375
14:25:51.313,-0.25,-6.9375
14:25:51.321,-1.125,-6.5625
14:25:51.333,-1.25,-7.5
14:25:51.342,-1,-9.0625
14:25:51.351,-1.5,-9.3125
14:25:51.364,-1.5,-10.5625
14:25:51.373,-1.625,-10.125
14:25:51.381,-1.5625,-6.8125
14:25:51.393,0.1875,-5.5
14:25:51.401,1.0625,-1.4375
14:25:51.412,1.625,1.875
14:25:51.422,2.8125,7.6875
14:25:51.432,4.25,11.375
14:25:51.443,6.3125,13.6876
14:25:51.453,6.9375,17.2501
14:25:51.463,7.4375,19.8126
14:25:51.472,8.375,24.3751
14:25:51.483,9.375,25.6876
14:25:51.493,10.3125,29.1251
14:25:51.503,12.375,31.2501
14:25:51.514,12.1875,33.1876
14:25:51.528,11.9375,35.5626
14:25:51.533,13.1876,37.7501
14:25:51.544,13.8751,38.7501
14:25:51.553,13.6876,41.1877
14:25:51.562,15.5001,41.9377
14:25:51.584,15.2501,43.6252
14:25:51.586,15.3126,44.0627
14:25:51.613,15.1251,44.3752
14:25:51.616,15.1876,46.1877
14:25:51.620,15.9376,46.5627
14:25:51.623,15.6251,45.2502
14:25:51.649,15.0001,44.0627
14:25:51.651,14.8751,43.0627
14:25:51.654,13.8751,42.3752
14:25:51.681,13.2501,41.1877
14:25:51.683,12.875,39.5002
14:25:51.685,12.0625,37.5626
14:25:51.692,11.375,36.1251
14:25:51.719,11.75,35.6876
14:25:51.720,11.0625,34.0626
14:25:51.754,9.875,32.3126
14:25:51.756,9.125,31.2501
14:25:51.758,8.8125,31.0626
14:25:51.764,8.6875,30.1876
14:25:51.765,8.6875,28.5626
14:25:51.773,8.1875,27.6876
14:25:51.785,7.625,25.7501
14:25:51.793,7.4375,25.8751
14:25:51.803,6.875,24.5626
14:25:51.811,6.3125,23.0001
14:25:51.822,6.25,21.2501
14:25:51.832,5.8125,20.8126
14:25:51.841,5.5,19.6251
14:25:51.851,5.5625,18.3751
14:25:51.863,5,16.8126
14:25:51.874,4.125,16.0001
14:25:51.882,3.8125,15.3751
14:25:51.894,3.6875,14.4376
14:25:51.903,3.8125,12.9375
14:25:51.911,3.375,11.5
14:25:51.922,2.9375,9.625
14:25:51.931,2.5,8.1875
14:25:51.944,1.5,7.9375
14:25:51.952,1.3125,5.9375
14:25:51.961,2.0625,4.9375
14:25:51.972,0.75,4.0625
14:25:51.982,0.6875,1.875
14:25:51.992,0.5,1.25
14:25:52.003,0.25,1.0625
14:25:52.012,0.3125,0.1875
14:25:52.039,-0.3125,1.1875
14:25:52.042,0.9375,-0.375
14:25:52.044,0.0625,-1.6875
14:25:52.053,0,-1.8125
14:25:52.064,0.1875,-0.9375
14:25:52.072,-0.125,-2.75
14:25:52.083,0,-4
14:25:52.094,-0.4375,-4.375
14:25:52.103,-0.9375,-4.625
14:25:52.113,-0.25,-5.75
14:25:52.122,-1.125,-7.4375
14:25:52.133,-1.5625,-7.0625
14:25:52.142,-0.75,-8.375
14:25:52.152,-1.0625,-9.6875
14:25:52.163,-1.5,-10.375
14:25:52.174,-2.625,-11.0625
14:25:52.181,-2.75,-10.9375
14:25:52.193,-2.375,-12.75
14:25:52.203,-2.9375,-14.4376
14:25:52.212,-3.125,-13.2501
14:25:52.223,-3.5,-14.1876
14:25:52.235,-2.875,-12.5
14:25:52.242,-2.3125,-9.625
14:25:52.265,-0.8125,-7.3125
14:25:52.270,0.25,-3.9375
14:25:52.288,0.8125,1.9375
14:25:52.292,2.6875,4.6875
14:25:52.293,3.8125,9.625
14:25:52.302,6.0625,13.5001
14:25:52.313,6.5,16.0626
14:25:52.323,7.6875,19.7501
14:25:52.331,9.5,24.1876
14:25:52.342,10.375,25.5626
14:25:52.354,11.0625,29.0001
14:25:52.363,12.0625,31.4376
14:25:52.373,12.625,32.7501
14:25:52.385,12.625,34.7501
14:25:52.392,13.6876,37.6251
14:25:52.412,13.7501,37.5001
14:25:52.415,14.3751,40.3127
14:25:52.448,14.2501,41.8752
14:25:52.450,14.3751,43.1877
14:25:52.483,14.7501,44.1252
14:25:52.486,14.8126,44.5627
14:25:52.489,14.4376,44.5627
14:25:52.489,13.9376,45.0002
14:25:52.489,13.8126,46.3127
14:25:52.493,13.8126,45.5002
14:25:52.519,12.9375,44.3127
14:25:52.521,12,44.4377
14:25:52.525,10.75,45.4377
14:25:52.561,11.125,44.8752
14:25:52.563,10.4375,44.6252
14:25:52.565,8.875,43.5627
14:25:52.568,8.3125,45.1877
14:25:52.573,7.1875,44.3752
14:25:52.585,6.5,42.5627
14:25:52.592,5.9375,40.4377
14:25:52.601,4.6875,38.6251
14:25:52.613,3.6875,37.6251
14:25:52.623,2.75,36.0001
14:25:52.633,2.5625,34.1876
14:25:52.643,2.4375,33.6251
14:25:52.653,2.1875,33.5626
14:25:52.661,1.75,32.1876
14:25:52.674,1.5625,31.3126
14:25:52.683,1.3125,31.5626
14:25:52.693,1.4375,31.7501
14:25:52.702,1,31.0001
14:25:52.711,0.6875,30.6251
14:25:52.721,1.0625,30.4376
14:25:52.735,0.875,31.0001
14:25:52.742,1.5,29.5626
14:25:52.752,1.25,28.9376
14:25:52.763,2.0625,28.7501
14:25:52.772,2.0625,27.9376
14:25:52.782,2.3125,28.1251
14:25:52.792,3.0625,27.2501
14:25:52.801,2.875,26.4376
14:25:52.814,2.625,25.2501
14:25:52.823,3,24.1251
14:25:52.831,2.5,23.3751
14:25:52.844,1.5625,22.4376
14:25:52.853,2.25,20.9376
14:25:52.861,1.6875,19.5626
14:25:52.872,1,17.6876
14:25:52.883,0.6875,16.6876
14:25:52.892,0.625,16.7501
14:25:52.903,1.25,15.5001
14:25:52.913,-0.3125,13.4376
14:25:52.922,-1.125,12.6875
14:25:52.932,-0.8125,10.8125
14:25:52.942,-1.8125,8.0625
14:25:52.953,-3.5,5.1875
14:25:52.963,-4.4375,3.1875
14:25:52.973,-5.625,1
14:25:52.982,-7.125,-2.875
14:25:52.991,-9.0625,-8.375
14:25:53.004,-11.6875,-14.4376
14:25:53.012,-14.3126,-16.6251
14:25:53.028,-15.3126,-20.4376
14:25:53.033,-17.3126,-23.6251
14:25:53.043,-19.0626,-26.1251
14:25:53.053,-20.3751,-27.0001
14:25:53.062,-20.6251,-26.9376
14:25:53.073,-20.1876,-26.4376
14:25:53.084,-20.6251,-24.3126
14:25:53.093,-20.8126,-21.0626
14:25:53.121,-21.0626,-19.6251
14:25:53.124,-21.8751,-17.6876
14:25:53.127,-23.1876,-13.6251
14:25:53.133,-23.5626,-13.0625
14:25:53.160,-24.8751,-11.875
14:25:53.163,-23.6876,-7.375
14:25:53.165,-21.0001,-4
14:25:53.198,-17.6876,1.8125
14:25:53.201,-13,9.0625
14:25:53.203,-7.8125,15.6876
14:25:53.205,-4.25,22.6251
14:25:53.212,-0.625,26.0626
14:25:53.243,1.25,29.2501
14:25:53.245,3.3125,32.7501
14:25:53.248,4,34.0001
14:25:53.253,5.4375,37.1876
14:25:53.271,6.4375,37.4376
14:25:53.273,7.5,38.1876
14:25:53.282,7.6875,36.7501
14:25:53.291,4.875,31.3126
14:25:53.319,-0.125,20.8751
14:25:53.321,-7.875,6.4375
14:25:53.324,-15.1251,-7.625
14:25:53.332,-18.5001,-13.6876
14:25:53.343,-20.6876,-15.6876
14:25:53.352,-23.0001,-17.0001
14:25:53.362,-25.3751,-18.2501
14:25:53.371,-27.3751,-21.2501
14:25:53.381,-28.8751,-23.0626
14:25:53.393,-29.6251,-22.1251
14:25:53.403,-30.7501,-22.6876
14:25:53.412,-30.3126,-23.3751
14:25:53.423,-29.7501,-22.0001
14:25:53.432,-27.5001,-18.2501
14:25:53.442,-23.9376,-14.0626
14:25:53.452,-20.2501,-9.9375
14:25:53.463,-15.5626,-2.875
14:25:53.472,-8.9375,5.375
14:25:53.482,-5.25,11
14:25:53.491,-2.8125,13.9376
14:25:53.504,-2,15.6876
14:25:53.512,-2.5,15.1876
14:25:53.522,-3.0625,13.9376
14:25:53.532,-2.875,11.125
14:25:53.541,-4.3125,10.125
14:25:53.552,-5.375,7.25
14:25:53.569,-7.5,3.6875
14:25:53.584,-10.4375,-0.75
14:25:53.585,-13.5001,-6.5625
14:25:53.592,-17.1251,-13.5626
14:25:53.601,-19.6251,-19.5001
14:25:53.612,-21.6876,-24.5001
14:25:53.621,-23.1876,-25.7501
14:25:53.632,-23.7501,-29.0626
14:25:53.641,-24.8751,-30.3126
14:25:53.651,-25.3751,-31.8751
14:25:53.665,-26.1251,-31.3126
14:25:53.672,-25.7501,-33.9376
14:25:53.682,-26.0001,-34.6251
14:25:53.692,-25.9376,-34.3126
14:25:53.703,-25.3751,-35.7501
14:25:53.714,-24.9376,-33.5626
14:25:53.722,-22.8126,-30.4376
14:25:53.743,-19.1251,-26.8751
14:25:53.747,-16.2501,-23.4376
14:25:53.761,-12.5625,-18.1876
14:25:53.763,-7.4375,-11.6875
14:25:53.778,-3.625,-6.6875
14:25:53.783,-1.625,-1.1875
14:25:53.792,-0.875,-1.875
14:25:53.818,-2.1875,-4.4375
14:25:53.820,-4.75,-6.1875
14:25:53.823,-5.75,-10.25
14:25:53.855,-7.0625,-12.375
14:25:53.859,-7.75,-14.4376
14:25:53.860,-10.25,-17.8751
14:25:53.863,-12.25,-19.2501
14:25:53.891,-12.8125,-22.9376
14:25:53.893,-15.7501,-25.1251
14:25:53.895,-17.6876,-28.6876
14:25:53.922,-18.8126,-31.3751
14:25:53.924,-20.0626,-31.4376
14:25:53.927,-21.2501,-31.5626
14:25:53.933,-21.7501,-32.8751
14:25:53.943,-24.4376,-33.9376
14:25:53.978,-24.9376,-32.1876
14:25:53.982,-22.7501,-27.4376
14:25:53.983,-18.0626,-18.5001
14:25:53.986,-11.1875,-7.8125
14:25:53.992,-3.5625,3.75
14:25:54.003,3.375,15.3751
14:25:54.011,9.9375,27.6251
14:25:54.023,15.9376,36.1251
14:25:54.032,17.0001,41.1877
14:25:54.041,16.4376,41.3752
14:25:54.052,14.0626,38.7501
14:25:54.084,11.1875,36.4376
14:25:54.088,7.6875,31.6876
14:25:54.089,5,28.5001
14:25:54.097,3.5,26.1251
14:25:54.107,2.375,23.7501
14:25:54.117,1.1875,23.5626
14:25:54.128,0.75,21.7501
14:25:54.139,0.5,22.6876
14:25:54.154,0.375,22.4376
14:25:54.158,-0.0625,19.9376
14:25:54.167,-0.6875,20.0626
14:25:54.176,-1.5,18.5001
14:25:54.189,-1.0625,16.9376
14:25:54.196,-2.3125,15.8751
14:25:54.207,-3.0625,14.9376
14:25:54.217,-2.0625,14.0626
14:25:54.227,1.8125,19.1876
14:25:54.240,4.375,23.1876
14:25:54.248,9.25,29.5001
14:25:54.257,14.8126,34.3751
14:25:54.267,19.3126,39.9377
14:25:54.278,22.3751,46.1252
14:25:54.288,24.3126,48.1877
14:25:54.296,24.3751,46.8752
14:25:54.307,21.6251,43.4377
14:25:54.317,19.8751,39.9377
14:25:54.327,17.4376,36.8126
14:25:54.339,16.0626,32.3751
14:25:54.347,12.5625,27.1251
14:25:54.357,9.0625,22.4376
14:25:54.368,6.0625,16.1251
14:25:54.377,1.5625,10.875
14:25:54.388,-1.625,3.9375
14:25:54.396,-3.875,-0.0625
14:25:54.407,-5.0625,-5.25
14:25:54.417,-6.875,-8.4375
14:25:54.428,-8.8125,-10.625
14:25:54.438,-9.625,-13.4376
14:25:54.447,-11.625,-17.6876
14:25:54.457,-13.5626,-20.8126
14:25:54.467,-14.5001,-22.0001
14:25:54.477,-12.375,-18.3751
14:25:54.488,-7.4375,-14.6876
14:25:54.497,-2.5625,-7.4375
14:25:54.507,3.125,0.3125
14:25:54.518,10,10.5
14:25:54.528,16.0626,18.6876
14:25:54.538,19.6876,22.1876
14:25:54.548,17.2501,20.6251
14:25:54.556,13.3751,16.7501
14:25:54.567,10.625,10.8125
14:25:54.600,6.3125,4.9375
14:25:54.602,4.1875,0.0625
14:25:54.604,1.25,-5
14:25:54.608,-1.8125,-7.6875
14:25:54.641,-3.1875,-12.4375
14:25:54.644,-6.0625,-14.8751
14:25:54.647,-7.75,-19.3126
14:25:54.649,-11.6875,-25.1251
14:25:54.680,-14.1876,-29.3751
14:25:54.683,-16.6876,-33.9376
14:25:54.685,-19.0626,-39.0001
14:25:54.691,-21.5001,-44.2502
14:25:54.718,-24.8751,-49.1252
14:25:54.719,-27.9376,-52.5002
14:25:54.723,-28.9376,-54.8752
14:25:54.747,-28.1251,-54.5002
14:25:54.749,-25.7501,-52.0627
14:25:54.752,-21.2501,-45.0002
14:25:54.773,-16.7501,-36.6876
14:25:54.775,-9.25,-27.1251
14:25:54.778,-3.125,-15.6876
14:25:54.788,5.625,-2.75
14:25:54.797,10.0625,9.1875
14:25:54.807,12.8125,14.5626
14:25:54.816,11.625,16.9376
14:25:54.828,8.8125,17.0626
14:25:54.837,7.625,13
14:25:54.846,5.9375,13.6251
14:25:54.862,4.75,11.4375
14:25:54.881,4.125,13.2501
14:25:54.887,4,12.875
14:25:54.889,3.625,14.5626
14:25:54.905,2.75,13.9376
14:25:54.912,2,14.0001
14:25:54.918,0.8125,12.5
14:25:54.929,-1.3125,11
14:25:54.937,-1.3125,8.3125
14:25:54.946,-3.5,7.9375
14:25:54.957,-4.8125,5.4375
14:25:54.968,-5.625,3.875
14:25:54.976,-7.625,1.25
14:25:54.987,-9.75,-1.5
14:25:54.997,-10.5,-2.25
14:25:55.007,-9.875,-1.375
14:25:55.016,-6.75,2.8125
14:25:55.027,-2.375,7.75
14:25:55.042,2.625,15.2501
14:25:55.050,9.0625,23.6251
14:25:55.058,14.7501,31.9376
14:25:55.073,20.2501,38.8126
14:25:55.083,23.8126,44.8127
14:25:55.086,25.3751,45.9377
14:25:55.099,24.7501,44.6252
14:25:55.107,22.8751,42.5002
14:25:55.117,21.1251,39.1251
14:25:55.127,19.7501,36.1876
14:25:55.136,17.6251,32.4376
14:25:55.150,16.0626,31.1876
14:25:55.156,13.5001,25.5626
14:25:55.168,10.9375,22.3126
14:25:55.177,8,18.7501
14:25:55.187,4.875,13.1251
14:25:55.196,2,6.375
14:25:55.207,-1.125,2.3125
14:25:55.219,-3.6875,-1.9375
14:25:55.227,-5.375,-4.75
14:25:55.238,-5.875,-8.0625
14:25:55.247,-6.75,-10.75
14:25:55.257,-8,-11.5
14:25:55.268,-9.625,-13.3126
14:25:55.276,-9.625,-15.4376
14:25:55.287,-9.0625,-16.3126
14:25:55.297,-8.3125,-15.4376
14:25:55.307,-6.25,-12.5625
14:25:55.316,-3.125,-7.625
14:25:55.338,0.4375,-1.75
14:25:55.340,5.875,3.125
14:25:55.364,9.875,8.75
14:25:55.368,14.0001,14.3126
14:25:55.369,16.8126,20.1876
14:25:55.399,18.0626,21.2501
14:25:55.402,16.8126,18.6876
14:25:55.404,14.0626,16.2501
14:25:55.406,11.375,10.5
14:25:55.440,7.5625,5.9375
14:25:55.442,6.125,2.4375
14:25:55.444,2.5,-2.8125
14:25:55.448,-1.125,-6.25
14:25:55.458,-3.5,-11.3125
14:25:55.492,-6.5625,-17.1251
14:25:55.494,-8.3125,-20.7501
14:25:55.498,-9.6875,-24.4376
14:25:55.500,-12.25,-28.3126
14:25:55.508,-13.9376,-30.9376
14:25:55.517,-15.2501,-32.4376
14:25:55.527,-17.1876,-35.3751
14:25:55.537,-18.6876,-39.3752
14:25:55.548,-20.6876,-42.3752
14:25:55.557,-20.5001,-43.2502
14:25:55.567,-18.3751,-38.6251
14:25:55.579,-14.1876,-34.3126
14:25:55.586,-9.375,-28.3751
14:25:55.598,-4.3125,-20.4376
14:25:55.606,0.25,-11.3125
14:25:55.616,5.875,-3.25
14:25:55.627,10.6875,5.5625
14:25:55.637,13.8126,13.6251
14:25:55.653,15.6876,17.9376
14:25:55.658,14.8126,20.8751
14:25:55.667,14.6876,21.0626
14:25:55.678,13.3126,21.1251
14:25:55.688,12.375,20.8751
14:25:55.697,10.9375,20.8751
14:25:55.707,10.1875,21.3126
14:25:55.717,10.3125,21.3751
14:25:55.727,8.9375,21.9376
14:25:55.738,7.4375,21.6876
14:25:55.748,6.1875,18.3126
14:25:55.757,3.25,17.0001
14:25:55.769,1.6875,13.7501
14:25:55.778,-0.1875,12.0625
14:25:55.787,-1.5625,10.25
14:25:55.797,-2.25,8.1875
14:25:55.807,-2.375,7.25
14:25:55.817,-2.75,7.5625
14:25:55.827,-3.5,7.5
14:25:55.837,-4.625,6.125
14:25:55.847,-6.125,3.375
14:25:55.880,-6.875,1.25
14:25:55.882,-6.375,2.5
