timestamp,Red,IR
12:39:18.358,-28.1251,-56.4377
12:39:18.365,-29.3126,-58.2502
12:39:18.376,-29.6876,-61.0627
12:39:18.385,-31.0001,-62.6252
12:39:18.396,-31.6876,-64.9377
12:39:18.405,-33.3126,-66.5628
12:39:18.418,-34.6876,-69.3753
12:39:18.426,-36.1251,-73.2503
12:39:18.435,-37.3751,-75.9378
12:39:18.447,-38.6251,-77.7503
12:39:18.457,-39.8127,-80.8128
12:39:18.466,-40.8127,-83.5003
12:39:18.475,-42.2502,-85.6878
12:39:18.485,-44.2502,-88.6878
12:39:18.495,-45.6252,-92.5629
12:39:18.506,-47.6877,-95.4379
12:39:18.515,-48.5627,-98.6879
12:39:18.525,-50.9377,-101.7504
12:39:18.536,-52.3752,-106.4379
12:39:18.545,-53.8127,-107.3129
12:39:18.556,-51.6877,-107.9379
12:39:18.583,-44.0002,-96.3129
12:39:18.585,-29.8751,-72.3753
12:39:18.590,-12.125,-42.6877
12:39:18.599,4.125,-11.625
12:39:18.606,17.8751,14.3126
12:39:18.615,29.9376,41.9377
12:39:18.626,40.8127,65.5003
12:39:18.635,50.1877,88.0003
12:39:18.645,57.5627,105.7504
12:39:18.659,63.2502,119.2505
12:39:18.698,65.2503,128.6255
12:39:18.702,66.8753,133.1255
12:39:18.710,66.0628,134.5005
12:39:18.711,64.5002,133.0005
12:39:18.715,61.4377,128.563
12:39:18.715,57.2502,123.063
12:39:18.759,53.4377,114.8754
12:39:18.760,48.0002,107.9379
12:39:18.816,43.9377,98.6254
12:39:18.818,38.8751,91.4379
12:39:18.820,35.3126,83.6253
12:39:18.823,31.1876,76.1253
12:39:18.823,28.7501,69.8753
12:39:18.826,24.5001,62.8752
12:39:18.836,20.7501,56.5002
12:39:18.847,18.4376,50.3752
12:39:18.858,17.6876,47.0627
12:39:18.865,18.1251,46.5627
12:39:18.875,18.3126,46.8127
12:39:18.886,19.6251,48.8127
12:39:18.895,21.3126,49.3752
12:39:18.905,23.1251,53.4377
12:39:18.916,25.1876,54.9377
12:39:18.925,26.7501,56.2502
12:39:18.935,27.5001,58.3752
12:39:18.947,28.0001,60.1877
12:39:18.955,27.5001,59.3127
12:39:18.973,26.9376,57.9377
12:39:18.983,23.6876,54.6252
12:39:18.990,15.6251,40.8127
12:39:19.000,13.2501,35.2501
12:39:19.014,11,29.6251
12:39:19.021,9.1875,24.8126
12:39:19.032,6.375,19.0626
12:39:19.040,3.8125,12.75
12:39:19.050,0.25,6.4375
12:39:19.060,-2.875,0.125
12:39:19.071,-6,-6.1875
12:39:19.080,-9.1875,-12.125
12:39:19.090,-12.375,-19.2501
12:39:19.100,-15.5001,-24.6251
12:39:19.110,-17.5626,-30.0001
12:39:19.121,-20.4376,-34.4376
12:39:19.130,-22.3751,-39.5002
12:39:19.140,-23.4376,-42.1877
12:39:19.151,-24.3126,-44.3127
12:39:19.160,-24.8126,-46.7502
12:39:19.171,-25.1876,-48.1252
12:39:19.181,-25.5626,-50.5627
12:39:19.190,-25.6251,-50.6877
12:39:19.200,-26.1251,-53.5627
12:39:19.210,-28.0001,-55.2502
12:39:19.221,-28.3751,-56.6877
12:39:19.230,-29.5626,-58.5627
12:39:19.240,-30.5626,-61.7502
12:39:19.250,-31.2501,-63.6252
12:39:19.260,-33.3751,-65.3127
12:39:19.270,-34.5001,-68.5003
12:39:19.281,-35.4376,-70.0628
12:39:19.290,-36.8126,-72.3753
12:39:19.301,-36.5626,-74.8753
12:39:19.312,-37.6251,-75.7503
12:39:19.321,-39.2501,-78.3753
12:39:19.331,-39.6877,-81.4378
12:39:19.343,-40.8752,-82.8128
12:39:19.357,-41.9377,-86.4378
12:39:19.362,-43.3752,-88.3128
12:39:19.370,-45.1252,-90.5629
12:39:19.381,-46.3127,-95.0629
12:39:19.390,-47.5002,-96.8754
12:39:19.400,-49.1252,-99.8754
12:39:19.411,-50.2502,-102.8129
12:39:19.428,-51.0627,-104.0629
12:39:19.430,-52.0627,-107.2504
12:39:19.459,-53.4377,-109.6254
12:39:19.461,-56.1877,-113.0629
12:39:19.464,-57.7502,-116.8754
12:39:19.472,-58.2502,-118.563
12:39:19.506,-53.7502,-113.2504
12:39:19.508,-41.9377,-97.3754
12:39:19.511,-23.5001,-67.8128
12:39:19.513,-5.375,-35.9376
12:39:19.552,10.875,-4.875
12:39:19.554,23.2501,22.2501
12:39:19.556,34.6876,46.8127
12:39:19.588,44.6252,69.2503
12:39:19.588,51.9377,88.8753
12:39:19.588,58.3127,103.9379
12:39:19.591,62.5002,116.2504
12:39:19.596,64.8127,123.063
12:39:19.602,65.5003,127.3755
12:39:19.610,64.0002,128.313
12:39:19.621,62.6877,124.3755
12:39:19.630,59.3127,120.3755
12:39:19.640,55.6252,114.1254
12:39:19.650,52.3752,105.9379
12:39:19.661,46.7502,98.0004
12:39:19.670,43.2502,89.2503
12:39:19.681,38.1876,82.0628
12:39:19.694,33.7501,73.1253
12:39:19.700,29.1251,65.1253
12:39:19.713,25.0001,56.8752
12:39:19.720,21.3751,50.1877
12:39:19.732,17.9376,42.1252
12:39:19.741,15.1876,36.3126
12:39:19.750,14.0626,33.5626
12:39:19.761,14.5001,31.3126
12:39:19.770,14.8751,32.4376
12:39:19.780,16.8126,34.0626
12:39:19.790,18.3126,36.9376
12:39:19.802,21.6251,39.6877
12:39:19.812,22.5626,44.0627
12:39:19.821,25.3126,46.6252
12:39:19.832,26.1876,50.1252
12:39:19.864,27.6876,51.0627
12:39:19.866,26.1251,52.5627
12:39:19.869,25.6876,50.3127
12:39:19.875,23.8751,48.6877
12:39:19.885,22.0626,44.4377
12:39:19.891,18.4376,39.6252
12:39:19.901,16.1251,34.3751
12:39:19.911,11.875,28.3126
12:39:19.920,8.5,21.4376
12:39:19.930,4.3125,14.0626
12:39:19.940,0.8125,7.5625
12:39:19.950,-2.8125,-0.1875
12:39:19.960,-5.3125,-6.125
12:39:19.970,-8.4375,-11.5
12:39:19.981,-11.375,-17.7501
12:39:19.992,-13.8126,-23.0626
12:39:20.002,-16.1876,-29.8126
12:39:20.011,-18.8751,-34.2501
12:39:20.021,-21.7501,-39.2502
12:39:20.031,-23.6251,-44.8127
12:39:20.040,-25.5001,-49.1252
12:39:20.050,-27.3751,-53.6252
12:39:20.071,-28.9376,-56.1252
12:39:20.077,-29.5626,-59.0627
12:39:20.082,-29.8126,-60.6252
12:39:20.109,-29.6251,-61.3752
12:39:20.112,-30.1251,-62.1252
12:39:20.127,-29.3751,-62.9377
12:39:20.132,-29.0626,-62.9377
12:39:20.132,-28.3126,-63.9377
12:39:20.140,-29.1876,-65.1252
12:39:20.165,-29.2501,-67.0003
12:39:20.167,-29.5001,-67.9378
12:39:20.202,-30.7501,-68.6878
12:39:20.202,-31.9376,-71.0003
12:39:20.204,-32.9376,-74.0628
12:39:20.206,-34.0626,-75.1253
12:39:20.212,-35.6251,-77.1253
12:39:20.243,-35.6876,-80.3128
12:39:20.244,-37.2501,-81.4378
12:39:20.247,-38.3126,-84.3753
12:39:20.276,-39.1877,-86.2503
12:39:20.278,-40.7502,-88.8128
12:39:20.281,-42.4377,-90.4378
12:39:20.312,-43.2502,-93.3129
12:39:20.313,-42.8752,-94.8754
12:39:20.316,-43.8127,-95.8129
12:39:20.322,-45.4377,-100.3129
12:39:20.324,-45.0002,-99.7504
12:39:20.334,-47.2502,-104.3129
12:39:20.342,-48.0002,-106.3129
12:39:20.350,-49.6252,-109.4379
12:39:20.367,-50.8752,-112.1879
12:39:20.376,-52.1877,-112.6879
12:39:20.385,-53.0002,-115.4379
12:39:20.396,-50.9377,-114.1879
12:39:20.406,-42.3127,-101.6254
12:39:20.415,-25.6876,-75.5003
12:39:20.425,-8.4375,-43.5627
12:39:20.435,6.75,-13.9376
12:39:20.445,19.0001,11.3125
12:39:20.455,29.0626,34.0626
12:39:20.466,38.5626,55.8752
12:39:20.482,46.5002,74.1253
12:39:20.488,53.8127,91.3754
12:39:20.497,58.0002,103.4379
12:39:20.506,61.6252,110.0004
12:39:20.518,61.7502,114.1879
12:39:20.525,61.1877,115.0004
12:39:20.535,57.8127,110.8754
12:39:20.546,53.8752,103.5629
12:39:20.556,48.8752,95.5629
12:39:20.566,40.8127,84.8128
12:39:20.575,34.6251,73.1253
12:39:20.586,28.4376,62.6252
12:39:20.596,21.0626,52.0002
12:39:20.605,16.7501,41.0627
12:39:20.615,11.3125,32.7501
12:39:20.625,7,23.1876
12:39:20.635,4.125,15.5001
12:39:20.645,0.5625,9.3125
12:39:20.655,0.375,5.1875
12:39:20.666,0.625,4.25
12:39:20.676,3.5625,6.3125
12:39:20.685,4.9375,9.0625
12:39:20.695,8.625,12.125
12:39:20.709,11.4375,17.2501
12:39:20.716,13.6251,22.0626
12:39:20.726,16.1876,26.0626
12:39:20.736,16.6251,30.1251
12:39:20.745,18.4376,32.0001
12:39:20.755,18.3751,34.8751
12:39:20.766,18.6876,35.0626
12:39:20.775,18.0001,34.1251
12:39:20.786,16.9376,32.4376
12:39:20.796,15.3751,29.0626
12:39:20.805,13.8751,26.4376
12:39:20.815,11.4375,21.6251
12:39:20.825,8.875,16.5626
12:39:20.854,5.4375,10
12:39:20.856,2.375,4.1875
12:39:20.858,-1.875,-3.25
12:39:20.866,-6.1875,-10.9375
12:39:20.904,-9.3125,-18.0001
12:39:20.905,-14.6876,-25.3751
12:39:20.907,-18.3751,-32.5626
12:39:20.919,-22.0001,-39.8752
12:39:20.930,-25.2501,-45.6877
12:39:20.931,-28.8126,-51.4377
12:39:20.962,-30.6876,-55.9377
12:39:20.963,-32.1876,-60.6252
12:39:20.966,-33.3126,-62.4377
12:39:20.968,-33.0626,-65.2503
12:39:20.999,-33.1876,-65.9378
12:39:21.002,-32.6876,-66.8128
12:39:21.004,-32.9376,-68.4378
12:39:21.020,-32.7501,-69.0628
12:39:21.022,-33.5626,-70.8128
12:39:21.027,-33.8751,-71.6253
12:39:21.036,-35.1876,-73.1878
12:39:21.048,-36.0001,-75.5003
12:39:21.057,-37.1251,-76.1253
12:39:21.065,-37.6876,-78.1878
12:39:21.077,-38.6251,-79.3753
12:39:21.087,-39.1877,-80.3753
12:39:21.095,-40.6252,-81.1253
12:39:21.107,-41.3127,-84.1253
12:39:21.117,-41.3127,-85.3128
12:39:21.146,-42.3752,-85.8753
12:39:21.147,-42.8127,-87.7503
12:39:21.150,-42.6877,-89.7503
12:39:21.158,-44.5627,-91.0004
12:39:21.168,-46.4377,-96.0629
12:39:21.176,-48.6877,-99.2504
12:39:21.187,-50.8127,-102.1254
12:39:21.196,-51.8752,-104.8129
12:39:21.205,-49.3127,-101.0004
12:39:21.216,-39.6252,-88.6253
12:39:21.225,-24.6251,-64.9377
12:39:21.235,-10.5625,-36.5626
12:39:21.247,3.1875,-11.4375
12:39:21.255,14.5001,10.9375
12:39:21.266,23.2501,30.6251
12:39:21.275,30.6251,47.5627
12:39:21.285,35.9376,62.4377
12:39:21.297,39.7502,73.9378
12:39:21.306,40.5627,80.5628
12:39:21.317,42.2502,84.1253
12:39:21.325,41.6877,86.9378
12:39:21.335,36.0001,81.9378
12:39:21.346,33.7501,77.5003
12:39:21.356,31.6251,73.4378
12:39:21.366,28.1251,66.3753
12:39:21.375,21.8751,58.2502
12:39:21.407,17.0001,47.6877
12:39:21.409,13.8126,40.3127
12:39:21.423,8.25,31.4376
12:39:21.426,2,19.5001
12:39:21.440,-5.75,7.875
12:39:21.443,-10.875,-3.75
12:39:21.448,-16.8751,-14.1251
12:39:21.457,-22.4376,-22.6251
12:39:21.466,-26.1876,-31.5626
12:39:21.477,-28.5001,-34.1876
12:39:21.491,-28.5626,-35.6876
12:39:21.498,-26.9376,-34.8126
12:39:21.506,-23.4376,-30.1251
12:39:21.515,-19.7501,-24.3751
12:39:21.526,-15.6251,-17.2501
12:39:21.538,-11.3125,-10.5625
12:39:21.547,-7.75,-3.3125
12:39:21.556,-4.25,1.625
12:39:21.567,-2.375,5.125
12:39:21.575,-1.5625,6.5625
12:39:21.588,-1.1875,7.9375
12:39:21.597,-3.125,5.5625
12:39:21.606,-6.4375,2.5625
12:39:21.617,-10.125,-4.1875
12:39:21.627,-14.0001,-9.25
12:39:21.637,-18.3751,-17.9376
12:39:21.662,-23.4376,-24.8126
12:39:21.665,-27.4376,-31.0001
12:39:21.669,-30.4376,-39.1876
12:39:21.700,-33.6876,-44.9377
12:39:21.703,-37.2501,-51.0627
12:39:21.707,-39.5627,-57.3752
12:39:21.708,-39.7502,-60.5627
12:39:21.742,-41.3752,-64.2502
12:39:21.744,-43.0002,-68.5003
12:39:21.748,-42.8752,-70.9378
12:39:21.774,-43.4377,-73.5003
12:39:21.776,-44.8752,-75.3753
12:39:21.778,-45.9377,-80.4378
12:39:21.783,-47.5627,-82.8753
12:39:21.787,-49.3127,-86.3128
12:39:21.816,-50.9377,-89.5628
12:39:21.818,-52.6252,-92.1254
12:39:21.820,-53.7502,-95.4379
12:39:21.827,-53.5002,-96.1254
12:39:21.837,-54.0627,-96.5004
12:39:21.847,-54.3752,-98.2504
12:39:21.857,-53.9377,-99.0629
12:39:21.866,-54.6877,-98.6879
12:39:21.877,-54.8127,-100.3129
12:39:21.888,-54.7502,-100.5004
12:39:21.895,-54.8752,-102.1879
12:39:21.906,-54.7502,-101.8754
12:39:21.917,-56.7502,-104.6254
12:39:21.927,-57.3752,-106.3754
12:39:21.937,-59.1252,-108.7504
12:39:21.946,-59.6877,-111.0004
12:39:21.958,-56.9377,-107.3129
12:39:21.967,-49.5002,-94.8754
12:39:21.978,-34.3751,-71.8753
12:39:21.985,-19.3751,-43.1252
12:39:21.997,-4,-15.1876
12:39:22.006,7.875,10
12:39:22.017,18.6251,32.8751
12:39:22.026,28.9376,55.3127
12:39:22.037,36.4376,73.3753
12:39:22.047,43.3127,89.8128
12:39:22.056,48.5002,101.8754
12:39:22.066,50.8752,109.1879
12:39:22.076,52.4377,113.5629
12:39:22.090,51.6252,115.6879
12:39:22.097,49.4377,112.1879
12:39:22.133,46.2502,107.3129
12:39:22.135,41.9377,99.8754
12:39:22.138,38.7501,93.5629
12:39:22.144,34.4376,84.3753
12:39:22.155,30.1251,76.8128
12:39:22.163,25.1876,67.3753
12:39:22.171,21.0626,59.0002
12:39:22.181,15.8751,50.3127
12:39:22.192,11.5625,41.1877
12:39:22.202,7.875,33.5001
12:39:22.212,4.9375,26.5626
12:39:22.223,2.6875,19.8751
12:39:22.232,1.8125,16.5001
12:39:22.242,2.5,16.0626
12:39:22.253,3.375,15.8126
12:39:22.262,4.875,18.2501
12:39:22.272,7.8125,23.5001
12:39:22.282,11.4375,28.8126
12:39:22.292,14.3126,33.5626
12:39:22.300,17.5626,37.6251
12:39:22.313,18.8126,41.3752
12:39:22.322,19.5001,43.0627
12:39:22.331,19.0001,43.5627
12:39:22.341,17.5626,42.4377
12:39:22.352,15.8126,39.7502
12:39:22.370,14.0001,35.6876
12:39:22.373,11.6875,31.9376
12:39:22.400,9.6875,27.3126
12:39:22.404,6.0625,21.3126
12:39:22.407,1.875,14.8751
12:39:22.433,-1.875,7.125
12:39:22.434,-6,-0.25
12:39:22.436,-9.5,-7.5625
12:39:22.445,-12.9375,-14.7501
12:39:22.476,-16.7501,-21.3751
12:39:22.479,-19.0626,-27.1876
12:39:22.480,-21.8751,-33.5001
12:39:22.487,-25.1876,-39.0001
12:39:22.495,-27.3126,-43.9377
12:39:22.527,-29.1876,-48.8127
12:39:22.529,-30.2501,-52.0002
12:39:22.532,-31.4376,-55.5627
12:39:22.535,-32.7501,-58.1877
12:39:22.542,-33.1876,-60.5002
12:39:22.552,-33.5626,-62.7502
12:39:22.562,-34.5001,-64.2502
12:39:22.571,-35.1876,-66.8128
12:39:22.588,-36.1251,-68.9378
12:39:22.592,-36.5626,-70.2503
12:39:22.602,-38.5001,-71.8128
12:39:22.613,-39.2502,-73.9378
12:39:22.622,-39.5002,-75.1253
12:39:22.632,-40.0002,-76.5628
12:39:22.641,-40.1877,-77.8753
12:39:22.652,-40.3752,-78.6878
12:39:22.662,-41.1877,-79.1878
12:39:22.673,-41.3127,-81.0628
12:39:22.689,-41.0627,-82.4378
12:39:22.703,-43.0627,-84.9378
12:39:22.706,-43.5002,-87.1878
12:39:22.720,-44.5002,-88.3128
12:39:22.736,-45.1252,-90.6878
12:39:22.737,-42.3752,-87.3128
12:39:22.742,-35.1876,-77.6878
12:39:22.752,-22.0626,-56.6252
12:39:22.763,-6.25,-27.6876
12:39:22.771,8.625,0
12:39:22.781,21.5001,25.3751
12:39:22.792,33.2501,51.6877
12:39:22.802,43.6877,73.2503
12:39:22.811,52.1252,94.4379
12:39:22.822,58.8752,110.1254
12:39:22.832,63.9377,123.438
12:39:22.842,66.2503,131.3755
12:39:22.854,67.3128,136.563
12:39:22.863,66.0003,136.438
12:39:22.873,64.8752,134.8755
12:39:22.882,62.1877,130.938
12:39:22.892,58.4377,125.313
12:39:22.902,54.6877,117.938
12:39:22.912,49.1877,109.3754
12:39:22.922,45.0002,99.9379
12:39:22.932,40.3752,92.1254
12:39:22.943,35.3126,83.1253
12:39:22.952,30.8126,75.0003
12:39:22.961,26.4376,66.1253
12:39:22.972,21.3126,57.0002
12:39:22.982,17.7501,49.0002
12:39:22.993,14.1251,42.6877
12:39:23.002,11.3125,38.0001
12:39:23.034,11,35.3751
12:39:23.037,10.9375,34.1251
12:39:23.039,11.375,34.7501
12:39:23.044,13.4376,37.7501
12:39:23.078,15.4376,41.1252
12:39:23.081,18.0001,44.7502
12:39:23.082,20.9376,48.1877
12:39:23.085,23.0001,52.0002
12:39:23.124,24.6251,54.5002
12:39:23.126,25.3751,56.8127
12:39:23.128,26.1251,57.9377
12:39:23.158,26.0001,55.5002
12:39:23.158,24.7501,53.6877
12:39:23.160,22.5001,49.8127
12:39:23.162,20.5001,46.1877
12:39:23.168,17.5626,41.7502
12:39:23.173,15.1251,35.6876
12:39:23.197,11.4375,29.6876
12:39:23.200,8.4375,22.0626
12:39:23.202,5.5625,16.2501
12:39:23.214,1.5625,10
12:39:23.222,-1.0625,2.4375
12:39:23.232,-4.625,-4.125
12:39:23.241,-7.25,-10.25
12:39:23.251,-11,-16.9376
12:39:23.261,-13.2501,-21.5626
12:39:23.272,-16.0626,-26.4376
12:39:23.282,-18.1876,-32.1876
12:39:23.292,-20.9376,-36.0626
12:39:23.304,-22.1876,-39.9377
12:39:23.313,-23.5626,-43.1252
12:39:23.321,-25.0626,-46.6877
12:39:23.337,-26.2501,-48.5002
12:39:23.342,-27.0626,-52.0002
12:39:23.352,-27.8126,-53.5627
12:39:23.362,-28.0626,-54.8127
12:39:23.371,-29.0626,-55.5627
12:39:23.382,-29.5001,-57.8752
12:39:23.393,-31.0001,-59.6252
12:39:23.402,-31.3751,-62.0627
12:39:23.412,-33.4376,-63.6252
12:39:23.421,-33.6876,-66.5003
12:39:23.432,-35.1876,-67.6253
12:39:23.442,-36.8751,-70.9378
12:39:23.452,-37.7501,-73.1253
12:39:23.462,-38.9376,-73.8753
12:39:23.471,-39.6252,-76.5003
12:39:23.483,-39.8127,-78.2503
12:39:23.492,-41.5627,-80.1878
12:39:23.501,-42.6252,-83.5003
12:39:23.511,-44.0627,-85.6878
12:39:23.521,-45.5002,-89.5003
12:39:23.532,-47.1252,-92.2504
12:39:23.542,-48.9377,-95.4379
12:39:23.553,-48.8752,-97.0629
12:39:23.562,-46.5002,-93.0629
12:39:23.573,-36.5001,-80.1878
12:39:23.582,-20.8751,-56.1877
12:39:23.592,-6.125,-26.5626
12:39:23.601,8.375,1.125
12:39:23.611,21.6251,27.9376
12:39:23.621,33.4376,52.5002
12:39:23.632,44.4377,77.6253
12:39:23.641,52.3127,97.0004
12:39:23.652,58.8752,113.1879
12:39:23.663,62.6877,125.0005
12:39:23.674,65.1877,131.8755
12:39:23.704,65.6253,134.563
12:39:23.705,64.6877,134.6255
12:39:23.707,61.5627,132.188
12:39:23.713,59.1877,126.1255
12:39:23.722,55.6877,119.563
12:39:23.732,50.9377,111.1254
12:39:23.741,46.9377,103.0629
12:39:23.753,41.5002,95.1879
12:39:23.773,37.5626,84.9378
12:39:23.775,33.1251,77.0003
12:39:23.804,28.8126,69.0628
12:39:23.808,24.3126,61.1877
12:39:23.808,20.7501,53.5002
12:39:23.813,17.0001,46.4377
12:39:23.843,14.5626,40.8752
12:39:23.846,13.1876,35.8126
12:39:23.848,12.5625,34.6251
12:39:23.853,13.2501,35.6876
12:39:23.882,15.0001,37.0626
12:39:23.884,17.0626,39.8752
12:39:23.886,19.3126,43.1877
12:39:23.917,21.0626,47.3127
12:39:23.918,22.8751,50.5627
12:39:23.922,24.6251,52.8127
12:39:23.928,25.1251,55.3752
12:39:23.933,25.1876,55.8752
12:39:23.945,24.8751,54.5002
12:39:23.951,23.5001,52.5002
12:39:23.962,21.8126,50.0627
12:39:23.982,20.0626,45.3127
12:39:23.988,15.8126,40.5002
12:39:24.003,12.8125,33.6251
12:39:24.004,8.875,26.7501
12:39:24.020,6.0625,20.1251
12:39:24.023,2.375,13.2501
12:39:24.038,-1.125,7.3125
12:39:24.042,-4.5,1
12:39:24.052,-6.4375,-5.9375
12:39:24.062,-9.5625,-11.5625
12:39:24.072,-12.0625,-16.1251
12:39:24.082,-14.1251,-22.1876
12:39:24.098,-16.5626,-26.8126
12:39:24.104,-18.1876,-31.3751
12:39:24.113,-20.2501,-34.3751
12:39:24.122,-21.4376,-36.8751
12:39:24.132,-22.6876,-41.4377
12:39:24.142,-23.3126,-44.3127
12:39:24.152,-23.8126,-45.8127
12:39:24.161,-24.5626,-47.0002
12:39:24.172,-25.0626,-49.2502
12:39:24.182,-25.7501,-51.2502
12:39:24.191,-25.7501,-51.7502
12:39:24.203,-26.4376,-53.4377
12:39:24.211,-27.0626,-54.3752
12:39:24.222,-28.1876,-54.5627
12:39:24.232,-28.5626,-58.1877
12:39:24.241,-28.4376,-59.8127
12:39:24.252,-31.1876,-61.9377
12:39:24.263,-31.4376,-63.9377
12:39:24.272,-32.7501,-65.4378
12:39:24.281,-34.0626,-68.6878
12:39:24.294,-35.7501,-70.8753
12:39:24.302,-36.8751,-72.6878
12:39:24.312,-38.1251,-75.5628
12:39:24.322,-38.3126,-77.1253
12:39:24.332,-40.1252,-79.0003
12:39:24.341,-41.5002,-82.6878
12:39:24.352,-42.2502,-84.5628
12:39:24.362,-44.3752,-87.7503
12:39:24.377,-45.9377,-92.1254
12:39:24.387,-48.8127,-94.7504
12:39:24.398,-50.1877,-99.6879
12:39:24.406,-50.6877,-101.6879
12:39:24.417,-48.7502,-98.4379
12:39:24.426,-39.7502,-86.5003
12:39:24.437,-25.0001,-62.4377
12:39:24.447,-9.9375,-33.1251
12:39:24.456,4,-7.0625
12:39:24.474,16.5626,18.6876
12:39:24.477,27.3751,43.8752
12:39:24.487,36.6251,65.1252
12:39:24.497,44.1877,84.0003
12:39:24.508,50.0627,98.2504
12:39:24.517,53.8752,109.2504
12:39:24.542,55.6877,116.0629
12:39:24.545,56.8127,120.8755
12:39:24.551,55.3127,119.1255
12:39:24.582,53.0627,115.8129
12:39:24.583,49.4377,109.4379
12:39:24.585,46.0002,103.8129
12:39:24.588,41.0627,94.2504
12:39:24.625,36.4376,85.6253
12:39:24.626,31.3126,77.6878
12:39:24.628,27.2501,67.2503
12:39:24.638,22.1876,58.8752
12:39:24.638,17.8126,50.1877
12:39:24.670,13,40.4377
12:39:24.673,8.9375,32.9376
12:39:24.676,6.3125,25.9376
12:39:24.678,4.625,21.4376
12:39:24.703,5.0625,21.5001
12:39:24.704,6.625,21.1876
12:39:24.708,8.75,24.0001
12:39:24.717,11.6875,27.3751
12:39:24.728,14.3751,32.3751
12:39:24.737,17.4376,37.2501
12:39:24.747,19.9376,42.7502
12:39:24.757,21.6876,46.6252
12:39:24.767,23.4376,49.1252
12:39:24.777,24.8126,50.4377
12:39:24.787,23.8126,51.0627
12:39:24.796,23.6251,48.8752
12:39:24.807,20.5001,47.0002
12:39:24.817,18.6876,42.0627
12:39:24.827,15.8751,35.7501
12:39:24.837,11.875,30.1251
12:39:24.847,8.75,22.8126
12:39:24.856,4.875,17.0626
12:39:24.867,1.5,10.8125
12:39:24.878,-1.875,4.4375
12:39:24.887,-4.8125,-2.3125
12:39:24.897,-7.875,-8.6875
12:39:24.907,-10.625,-14.3126
12:39:24.917,-13.1251,-20.1876
12:39:24.927,-15.3126,-25.0001
12:39:24.937,-17.5626,-30.5001
12:39:24.947,-19.1876,-34.7501
12:39:24.957,-21.5626,-39.2502
12:39:24.983,-23.2501,-42.6877
12:39:24.986,-25.1251,-46.3127
12:39:24.988,-25.5001,-48.5627
12:39:24.999,-27.4376,-51.5002
12:39:25.007,-27.0001,-53.0002
12:39:25.016,-28.1876,-54.7502
12:39:25.027,-28.1876,-55.3127
12:39:25.037,-28.5001,-56.1877
12:39:25.046,-28.3751,-58.9377
12:39:25.057,-29.5626,-60.1252
12:39:25.067,-29.6876,-61.3752
12:39:25.077,-30.0626,-62.5002
12:39:25.087,-31.1251,-62.5627
12:39:25.096,-31.4376,-65.0627
12:39:25.108,-32.4376,-66.9378
12:39:25.117,-33.5626,-68.9378
12:39:25.127,-35.5001,-70.5003
12:39:25.137,-36.1876,-74.0628
12:39:25.147,-38.8126,-74.8128
12:39:25.156,-40.0002,-79.0628
12:39:25.166,-40.5002,-81.4378
12:39:25.177,-41.3127,-83.0628
12:39:25.187,-42.3127,-86.0628
12:39:25.197,-42.4377,-87.3753
12:39:25.207,-44.3752,-88.5003
12:39:25.240,-45.6252,-91.7504
12:39:25.242,-45.8127,-94.2504
12:39:25.244,-47.1877,-96.5004
12:39:25.247,-47.2502,-99.0629
12:39:25.276,-45.7502,-97.9379
12:39:25.311,-40.0627,-89.3753
12:39:25.348,-27.2501,-70.4378
12:39:25.349,-11.9375,-42.8752
12:39:25.421,2.9375,-16.0001
12:39:25.421,15.3751,10.6875
12:39:25.421,27.5001,34.5001
12:39:25.421,39.0002,58.3127
12:39:25.423,47.1877,78.8753
12:39:25.430,54.6877,95.4379
12:39:25.433,59.0627,107.6879
12:39:25.433,62.7502,115.7504
12:39:25.438,62.8752,120.313
12:39:25.446,61.3752,119.8755
12:39:25.457,58.2502,116.5629
12:39:25.467,54.5002,110.0629
12:39:25.477,50.5002,103.5004
12:39:25.487,45.0627,94.8129
12:39:25.496,41.1877,86.2503
12:39:25.507,35.1876,76.1878
12:39:25.517,30.0626,67.6878
12:39:25.527,25.3751,58.8127
12:39:25.537,21.4376,49.0627
12:39:25.547,6.25,19.5626
12:39:25.556,6,17.4376
12:39:25.567,7.25,18.0001
12:39:25.578,10.75,21.1876
12:39:25.586,13.125,25.5001
12:39:25.598,25.9376,47.2502
12:39:25.607,27.0001,50.8752
12:39:25.618,28.3751,52.9377
12:39:25.627,27.3126,53.5627
12:39:25.637,27.0001,52.4377
12:39:25.647,25.1876,51.5002
12:39:25.657,23.8751,47.9377
12:39:25.667,21.3126,45.1252
12:39:25.677,19.2501,40.2502
12:39:25.687,16.4376,34.8126
12:39:25.696,13.3126,28.2501
12:39:25.708,10.1875,22.2501
12:39:25.718,6.875,15.5626
12:39:25.727,3.25,7.9375
12:39:25.738,-0.75,1.0625
12:39:25.747,-3.375,-5
12:39:25.757,-7.5625,-11.8125
12:39:25.767,-9.25,-16.5626
12:39:25.777,-11.4375,-21.2501
12:39:25.786,-13.1251,-25.8751
12:39:25.796,-15.0626,-29.9376
12:39:25.806,-15.5626,-33.3126
12:39:25.817,-17.3751,-35.5626
12:39:25.827,-17.5626,-38.6876
12:39:25.836,-18.6251,-39.8127
12:39:25.846,-18.3751,-41.2502
12:39:25.856,-19.2501,-43.5002
12:39:25.867,-19.6251,-43.5002
12:39:25.877,-19.3126,-44.6877
12:39:25.886,-20.3751,-45.8752
12:39:25.897,-19.9376,-47.1877
12:39:25.907,-20.7501,-46.6252
12:39:25.917,-20.6251,-48.1877
12:39:25.927,-20.6876,-49.4377
12:39:25.937,-20.2501,-49.2502
12:39:25.947,-20.5001,-50.8127
12:39:25.956,-20.1876,-51.0002
12:39:25.970,-21.1251,-51.3127
12:39:25.980,-21.8751,-55.3127
12:39:25.987,-22.3126,-57.6877
12:39:25.998,-25.4376,-61.2502
12:39:26.007,-26.1876,-64.3127
12:39:26.018,-26.0001,-63.8752
12:39:26.027,-21.5626,-59.1877
12:39:26.038,-11.8125,-43.3127
12:39:26.074,1.125,-21.6251
12:39:26.074,12.3125,1.25
12:39:26.080,24.5626,22.5001
12:39:26.082,35.4376,45.8127
12:39:26.112,44.6252,65.2503
12:39:26.114,51.7502,82.1878
12:39:26.115,56.8127,95.1879
12:39:26.119,59.4377,104.0629
12:39:26.148,60.5002,108.3129
12:39:26.151,58.6877,109.9379
12:39:26.154,56.8752,107.3129
12:39:26.177,52.1877,102.5004
12:39:26.178,49.3127,96.8129
12:39:26.181,45.3127,91.0004
12:39:26.188,41.2502,83.0628
12:39:26.196,38.2501,75.9378
12:39:26.217,34.8126,69.0628
12:39:26.220,32.0001,61.3752
12:39:26.228,28.3751,53.5002
12:39:26.237,23.8751,46.0002
12:39:26.263,18.5001,35.0001
12:39:26.266,13.4376,25.5001
12:39:26.268,10.3125,17.4376
12:39:26.277,8.0625,12.75
12:39:26.288,7.5,9.4375
12:39:26.297,8.1875,9.1875
12:39:26.308,10.25,11.5
12:39:26.317,12.5,16.0001
12:39:26.327,15.9376,21.5626
12:39:26.337,21.0001,27.1876
12:39:26.353,25.1876,35.6876
12:39:26.358,29.9376,41.8752
12:39:26.367,32.0001,46.8752
12:39:26.378,34.1876,50.6252
12:39:26.386,34.8751,53.0627
12:39:26.396,34.3751,52.8127
12:39:26.408,32.1876,49.8127
12:39:26.417,29.3751,46.4377
12:39:26.427,26.1251,40.0627
12:39:26.437,22.0001,35.2501
12:39:26.446,17.6876,26.5626
12:39:26.458,13.0625,19.4376
12:39:26.467,8.8125,10.9375
12:39:26.483,4.125,4.0625
12:39:26.492,1.25,-2.3125
12:39:26.503,-2.9375,-9.6875
12:39:26.512,-5.8125,-16.5626
12:39:26.523,-9.5625,-22.6251
12:39:26.533,-11.125,-27.3751
12:39:26.543,-14.4376,-31.6876
12:39:26.554,-16.3126,-36.3126
12:39:26.567,-17.0626,-40.6252
12:39:26.572,-18.7501,-43.1877
12:39:26.583,-20.0626,-45.1252
12:39:26.593,-20.8126,-47.6252
12:39:26.601,-21.4376,-49.6252
12:39:26.614,-21.2501,-50.5627
12:39:26.623,-22.0001,-51.5627
12:39:26.633,-22.3751,-52.1252
12:39:26.643,-23.4376,-54.0627
12:39:26.664,-23.0626,-56.3127
12:39:26.711,-24.8751,-58.1252
12:39:26.711,-26.1251,-60.8127
12:39:26.812,-27.1251,-62.5627
12:39:26.812,-25.6251,-61.2502
12:39:26.844,-21.3126,-55.5002
12:39:26.849,-14.1251,-42.0627
12:39:26.849,-2.6875,-24.1251
12:39:26.849,8.6875,-2.125
12:39:26.849,18.7501,18.5001
12:39:26.862,28.1251,38.9376
12:39:26.862,36.4376,57.9377
12:39:26.862,42.3127,75.1878
12:39:26.863,47.6252,87.0628
12:39:26.874,51.4377,96.6254
12:39:26.882,52.0627,102.2504
12:39:26.893,52.6877,104.6879
12:39:26.904,50.2502,104.2504
12:39:26.911,46.7502,100.7504
12:39:26.923,43.0002,94.2504
12:39:26.932,39.6252,87.3128
12:39:26.944,34.3751,78.7503
12:39:26.953,29.3126,70.0628
12:39:26.962,24.3751,60.3127
12:39:26.974,-2.1875,9.25
12:39:26.983,-4.0625,4.75
12:39:26.993,-4.9375,1.25
12:39:27.003,-3.3125,1.75
12:39:27.014,-1.625,3.375
12:39:27.023,10.5625,22.1876
12:39:27.033,13.1251,28.1876
12:39:27.043,15.2501,32.7501
12:39:27.053,17.2501,36.4376
12:39:27.062,17.1876,37.9376
12:39:27.073,17.8751,38.6876
12:39:27.083,15.5626,37.0001
12:39:27.091,14.4376,34.8751
12:39:27.103,12.5625,30.0626
12:39:27.112,8.5,25.2501
12:39:27.124,5.75,18.9376
12:39:27.133,2.375,11.9375
12:39:27.143,-0.625,6.5
12:39:27.153,-4.75,0.125
12:39:27.163,-8.3125,-7.6875
12:39:27.173,-12.5625,-13.7501
12:39:27.183,-15.9376,-21.9376
12:39:27.193,-19.0626,-27.8126
12:39:27.204,-21.2501,-33.3126
12:39:27.213,-23.5001,-38.6251
12:39:27.223,-25.0626,-41.7502
12:39:27.235,-26.3126,-46.1877
12:39:27.243,-26.6251,-47.5627
12:39:27.253,-26.1251,-48.5627
12:39:27.263,-26.8126,-50.0002
12:39:27.273,-26.5001,-51.1252
12:39:27.283,-26.5626,-52.5627
12:39:27.293,-26.6251,-52.8752
12:39:27.303,-26.0626,-53.9377
12:39:27.313,-26.9376,-55.2502
12:39:27.323,-28.0001,-58.1877
12:39:27.333,-29.2501,-59.4377
12:39:27.343,-28.3751,-58.2502
12:39:27.353,-21.5626,-48.5627
12:39:27.363,-10.625,-30.0626
12:39:27.373,1.5625,-8.625
12:39:27.382,14.1251,15.5626
12:39:27.393,25.9376,40.1252
12:39:27.403,36.4376,63.5002
12:39:27.413,45.1877,83.3753
12:39:27.423,52.3752,101.0629
12:39:27.461,58.2502,113.9379
12:39:27.463,61.1877,123.688
12:39:27.465,62.2502,127.2505
12:39:27.467,61.3127,129.188
12:39:27.474,59.2502,126.813
12:39:27.510,56.0002,121.813
12:39:27.511,51.1877,116.4379
12:39:27.513,46.5627,106.3754
12:39:27.516,42.2502,98.4379
12:39:27.545,36.3126,89.0003
12:39:27.547,32.1251,80.0003
12:39:27.549,27.8126,72.0628
12:39:27.555,22.8751,63.0627
12:39:27.587,19.1876,55.1877
12:39:27.588,13.6876,46.6252
12:39:27.592,10.5625,38.3751
12:39:27.593,6.6875,32.3751
12:39:27.614,4.75,25.8751
12:39:27.618,3.375,22.7501
12:39:27.625,3.8125,21.7501
12:39:27.633,5.625,22.8126
12:39:27.643,6.75,25.1251
12:39:27.653,8.75,28.0001
12:39:27.663,10.5,31.6876
12:39:27.675,11.875,35.5626
12:39:27.683,14.1251,38.8126
12:39:27.693,15.0001,41.3752
12:39:27.703,15.5001,42.0002
12:39:27.713,14.3751,42.6877
12:39:27.723,13.2501,40.1877
12:39:27.733,11.6875,37.8751
12:39:27.743,9.75,33.6876
12:39:27.753,7.125,28.6251
12:39:27.763,4.5625,24.1251
12:39:27.773,1.25,17.0001
12:39:27.783,-1.8125,10.6875
12:39:27.794,-5.0625,4.375
12:39:27.803,-9.3125,-2.0625
12:39:27.814,-11.9375,-8.25
12:39:27.823,-14.6876,-15.0626
12:39:27.833,-18.1251,-20.8751
12:39:27.845,-20.1876,-26.4376
12:39:27.853,-22.3751,-32.0001
12:39:27.863,-24.0001,-36.5001
12:39:27.873,-25.5626,-40.5002
12:39:27.883,-26.9376,-43.5002
12:39:27.894,-28.8126,-46.9377
12:39:27.903,-29.1251,-50.3752
12:39:27.913,-30.8126,-51.6252
12:39:27.923,-30.9376,-54.5627
12:39:27.933,-30.8751,-56.1252
12:39:27.943,-31.6876,-57.3752
12:39:27.954,-31.8751,-58.2502
12:39:27.963,-31.5001,-59.0627
12:39:27.974,-33.3126,-60.0002
12:39:27.989,-33.4376,-62.5002
12:39:27.994,-34.5001,-63.9377
12:39:28.003,-35.1876,-66.3753
12:39:28.019,-36.5001,-66.5003
12:39:28.025,-37.0001,-69.6253
12:39:28.034,-37.6251,-71.7503
12:39:28.044,-39.1251,-73.5003
12:39:28.058,-39.6252,-75.5003
12:39:28.066,-40.1252,-76.6253
12:39:28.073,-40.8127,-77.2503
12:39:28.094,-40.0002,-80.1878
12:39:28.097,-41.2502,-81.8753
12:39:28.106,-43.1252,-84.3753
12:39:28.113,-44.0002,-86.8753
12:39:28.128,-43.5627,-87.4378
12:39:28.135,-38.8751,-81.6878
12:39:28.143,-27.5626,-64.5627
12:39:28.154,-14.4376,-39.0626
12:39:28.164,0,-14.2501
12:39:28.173,13.8751,15.2501
12:39:28.183,25.1876,38.8126
12:39:28.221,34.7501,62.8752
12:39:28.221,43.7502,83.3128
12:39:28.223,51.1252,101.5004
12:39:28.225,54.9377,114.6254
12:39:28.268,58.1877,122.813
12:39:28.268,58.3127,127.688
12:39:28.274,57.8752,128.5005
12:39:28.275,55.8127,126.563
12:39:28.307,52.6252,121.813
12:39:28.310,49.0627,116.7504
12:39:28.310,45.0627,109.3754
12:39:28.314,42.0002,103.5004
12:39:28.318,37.4376,97.8754
12:39:28.323,34.3751,89.1253
12:39:28.359,30.6251,83.3128
12:39:28.361,29.0001,79.1253
12:39:28.365,26.3126,74.1878
12:39:28.365,23.8751,69.8128
12:39:28.382,21.1251,64.9377
12:39:28.384,18.5001,60.8127
12:39:28.393,17.5001,56.8127
12:39:28.403,15.3126,54.0002
12:39:28.413,14.8126,52.1252
12:39:28.423,15.0001,50.3127
12:39:28.433,15.0001,50.7502
12:39:28.443,15.4376,51.1877
12:39:28.453,16.1251,50.8127
12:39:28.463,15.9376,52.1252
12:39:28.473,15.2501,51.8752
12:39:28.483,16.0001,51.1252
12:39:28.493,14.3126,50.9377
12:39:28.503,14.3751,49.0002
12:39:28.514,13,47.1877
12:39:28.529,11.75,44.6877
12:39:28.538,10.25,41.0002
12:39:28.548,8.5,37.8751
12:39:28.558,6.5625,33.7501
12:39:28.569,4.0625,28.9376
12:39:28.578,1.3125,24.5001
12:39:28.590,-1.4375,17.3751
12:39:28.598,-5,13
12:39:28.609,-7.5,5.625
12:39:28.618,-10.3125,-0.375
12:39:28.628,-13.0625,-7.0625
12:39:28.638,-16.5001,-13.0625
12:39:28.648,-19.4376,-18.3126
12:39:28.658,-21.0001,-22.4376
12:39:28.668,-23.5626,-26.4376
12:39:28.678,-26.5626,-31.6876
12:39:28.688,-30.1876,-37.6876
12:39:28.698,-29.4376,-38.4376
12:39:28.708,-26.6876,-37.2501
12:39:28.718,-26.0626,-37.6876
12:39:28.728,-28.1251,-40.7502
12:39:28.738,-31.6251,-43.6252
12:39:28.748,-33.1251,-47.6877
12:39:28.758,-37.6251,-53.3127
12:39:28.768,-39.7502,-55.1877
12:39:28.778,-42.6252,-58.4377
12:39:28.788,-48.1877,-65.3127
12:39:28.798,-55.8752,-72.1253
12:39:28.825,-63.8752,-82.0628
12:39:28.826,-72.5003,-90.1254
12:39:28.829,-82.8128,-101.6254
12:39:28.840,-88.4378,-106.8754
12:39:28.848,-86.9378,-106.0629
12:39:28.858,-84.9378,-102.8754
12:39:28.868,-84.6878,-102.3754
12:39:28.878,-87.3128,-104.6254
12:39:28.888,-95.8754,-110.4379
12:39:28.898,-107.2504,-122.188
12:39:28.909,-123.563,-138.313
12:39:28.918,-139.0005,-150.5006
12:39:28.929,-147.3755,-156.8131
12:39:28.954,-164.8756,-169.6256
12:39:28.957,-181.8132,-186.6257
12:39:28.959,-192.5632,-194.9382
12:39:28.993,-200.3133,-199.0008
12:39:28.997,-208.1258,-202.5008
12:39:28.998,-214.6258,-203.8133
12:39:29.001,-225.1259,-208.8133
12:39:29.033,-234.8759,-211.9383
12:39:29.034,-251.4385,-219.7508
12:39:29.038,-253.8135,-218.0633
12:39:29.044,-243.2509,-202.7508
12:39:29.049,-233.8134,-191.0007
12:39:29.086,-227.1259,-179.0632
12:39:29.088,-219.1883,-164.2506
12:39:29.089,-204.1883,-141.063
12:39:29.093,-184.0007,-109.2504
12:39:29.098,-161.2506,-73.3753
12:39:29.122,-143.1255,-39.0626
12:39:29.124,-124.313,-5.9375
12:39:29.131,-104.8129,27.6251
12:39:29.139,-87.2503,62.0002
12:39:29.148,-70.2503,89.3753
12:39:29.158,-52.9377,117.313
12:39:29.168,-41.1252,136.813
12:39:29.178,-29.8126,153.3131
12:39:29.188,-18.1876,168.8756
12:39:29.198,-7.9375,180.8757
12:39:29.208,-0.875,188.8757
12:39:29.218,4.9375,194.4382
12:39:29.228,10.6875,200.3133
12:39:29.238,15.4376,203.2508
12:39:29.248,14.0626,203.7508
12:39:29.258,15.1876,203.5633
12:39:29.268,17.6876,205.8758
12:39:29.278,19.4376,208.1258
12:39:29.288,19.8126,209.0633
12:39:29.298,8.5,204.8758
12:39:29.308,2.8125,202.1883
12:39:29.318,-1.375,200.2508
12:39:29.328,-2.9375,198.7508
12:39:29.344,-5.125,198.1258
12:39:29.354,-6.875,195.5007
12:39:29.358,-5.875,195.8132
12:39:29.374,-4.125,196.4382
12:39:29.391,-3.9375,197.5007
12:39:29.392,-2.625,197.2507
12:39:29.398,-1.3125,196.5007
12:39:29.413,-0.6875,196.0007
12:39:29.421,-1.25,194.0007
12:39:29.428,-2.375,191.6257
12:39:29.443,-4.5625,188.4382
12:39:29.452,-7.375,183.8757
12:39:29.460,-12.25,175.3757
12:39:29.468,-18.1251,167.3131
12:39:29.478,-21.3751,159.9381
12:39:29.488,-25.1251,154.2506
12:39:29.498,-27.6876,147.2505
12:39:29.516,-29.8126,141.7505
12:39:29.518,-30.9376,136.813
12:39:29.528,-32.0626,132.1255
12:39:29.538,-32.5626,128.813
12:39:29.548,-30.6251,124.938
12:39:29.558,-30.9376,123.7505
12:39:29.568,-29.4376,119.438
12:39:29.578,-29.1251,118.313
12:39:29.588,-27.9376,114.5004
12:39:29.598,-27.5001,113.1879
12:39:29.608,-26.2501,109.6254
12:39:29.618,-26.6251,107.5629
12:39:29.628,-26.3126,103.6879
12:39:29.638,-23.1876,102.3754
12:39:29.659,-21.4376,101.6879
12:39:29.662,-17.5626,102.6254
12:39:29.690,-16.1251,101.3754
12:39:29.693,-12.875,99.8129
12:39:29.697,-12.25,98.6879
12:39:29.698,-9.875,97.7504
12:39:29.726,-9.125,96.5004
12:39:29.729,-5.8125,95.8129
12:39:29.731,-4.625,95.6254
12:39:29.738,-2,94.6879
12:39:29.775,-0.4375,94.2504
12:39:29.779,3.0625,93.7504
12:39:29.780,5.0625,94.0629
12:39:29.785,7.125,92.5004
12:39:29.790,9.9375,92.5004
12:39:29.829,11.625,90.4379
12:39:29.830,12.625,89.1253
12:39:29.833,13.3126,86.1878
12:39:29.834,12.25,82.2503
12:39:29.845,8.3125,75.4378
12:39:29.849,4.5625,64.9377
12:39:29.858,-3.125,48.6252
12:39:29.869,-9,30.7501
12:39:29.878,-16.0001,15.9376
12:39:29.889,-25.7501,-4.8125
12:39:29.898,-35.3751,-20.2501
12:39:29.908,-43.8127,-35.3126
12:39:29.918,-51.2502,-49.0002
12:39:29.929,-61.5002,-67.5628
12:39:29.938,-66.6253,-79.8128
12:39:29.948,-62.7502,-79.2503
12:39:29.958,-57.0627,-76.2503
12:39:29.968,-52.0627,-72.8753
12:39:29.978,-48.1252,-70.8128
12:39:29.988,-45.5002,-68.8753
12:39:29.998,-41.2502,-67.4378
12:39:30.008,-36.8751,-63.1252
12:39:30.018,-30.6251,-56.2502
12:39:30.029,-21.5626,-45.4377
12:39:30.038,-9.125,-29.3126
12:39:30.049,5.875,-4.375
12:39:30.058,18.5001,18.8126
12:39:30.068,28.3751,40.0002
12:39:30.078,35.8751,59.1877
12:39:30.104,41.8752,75.2503
12:39:30.107,47.1252,88.8128
12:39:30.110,50.0002,101.2504
12:39:30.118,52.2502,109.6254
12:39:30.128,53.8127,115.0629
12:39:30.138,54.0627,119.3755
12:39:30.148,53.1877,119.8755
12:39:30.158,51.1877,118.063
12:39:30.168,49.0627,116.0004
12:39:30.178,45.8127,113.1879
12:39:30.188,43.2502,107.7504
12:39:30.198,39.6877,103.5004
12:39:30.208,36.6876,98.6879
12:39:30.218,34.3126,94.3129
12:39:30.228,30.6876,89.2503
12:39:30.238,29.8751,85.6878
12:39:30.248,28.1876,82.7503
12:39:30.258,26.1251,80.6253
12:39:30.272,24.9376,76.8128
12:39:30.278,23.2501,75.0003
12:39:30.288,22.0626,72.5628
12:39:30.298,21.4376,69.9378
12:39:30.308,19.5626,69.2503
12:39:30.318,19.7501,67.5628
12:39:30.328,19.6876,68.6878
12:39:30.338,21.1251,68.3753
12:39:30.348,22.1876,70.8128
12:39:30.358,22.2501,71.6878
12:39:30.368,22.6876,73.6878
12:39:30.378,22.8126,73.2503
12:39:30.388,22.3126,73.1878
12:39:30.413,22.6876,72.6878
12:39:30.417,19.8126,71.4378
12:39:30.418,17.6876,68.6878
12:39:30.433,16.3751,64.9377
12:39:30.438,14.0001,62.3752
12:39:30.476,12.1875,59.1877
12:39:30.477,11.125,54.1877
12:39:30.479,10.1875,51.8752
12:39:30.482,11.25,49.6877
12:39:30.490,18.0626,53.0002
12:39:30.519,23.7501,57.4377
12:39:30.521,23.0626,60.1252
12:39:30.526,18.5001,60.1877
12:39:30.530,14.6876,62.5627
12:39:30.562,17.8126,67.3128
12:39:30.564,21.1876,72.3128
12:39:30.568,22.7501,74.3128
12:39:30.581,21.3751,74.9378
12:39:30.582,16.1251,71.5628
12:39:30.588,12.0625,66.8753
12:39:30.598,10.0625,63.3752
12:39:30.608,8.25,59.7502
12:39:30.618,4.5625,54.5002
12:39:30.628,1,50.0002
12:39:30.639,-0.875,44.0002
12:39:30.648,-3,39.8127
12:39:30.664,-6.3125,33.8126
12:39:30.673,-10.4375,27.5626
12:39:30.679,-17.1876,18.8126
12:39:30.695,-25.0001,9.5625
12:39:30.698,-32.6251,0.75
12:39:30.713,-39.6252,-8.625
12:39:30.728,-47.1877,-18.0626
12:39:30.730,-54.2502,-26.8751
12:39:30.745,-59.7502,-34.5001
12:39:30.760,-65.8128,-41.2502
12:39:30.764,-71.3128,-49.0002
12:39:30.773,-77.6878,-56.5627
12:39:30.779,-85.1253,-64.1252
12:39:30.789,-90.3129,-73.2503
12:39:30.798,-94.5004,-77.1253
12:39:30.808,-97.5004,-83.2503
12:39:30.818,-99.1254,-85.8753
12:39:30.828,-100.5004,-90.6879
12:39:30.838,-102.1879,-93.3129
12:39:30.849,-103.5629,-98.0004
12:39:30.859,-105.3129,-99.2504
12:39:30.869,-104.0004,-102.2504
12:39:30.879,-104.8754,-102.7504
12:39:30.889,-104.1879,-106.3129
12:39:30.898,-104.8754,-106.0004
12:39:30.909,-104.6879,-109.9379
12:39:30.918,-104.8754,-110.1879
12:39:30.928,-103.8754,-113.0004
12:39:30.938,-103.5004,-113.5629
12:39:30.948,-102.9379,-115.6254
12:39:30.958,-102.3754,-116.6254
12:39:30.968,-101.1254,-115.8129
12:39:30.978,-98.5004,-116.3754
12:39:30.990,-92.8129,-111.2504
12:39:30.998,-83.5628,-97.9379
12:39:31.009,-69.4378,-80.3128
12:39:31.022,-53.6252,-55.3127
12:39:31.028,-38.6251,-32.4376
12:39:31.038,-25.6251,-10.5
12:39:31.048,-15.1251,8.75
12:39:31.059,-4.8125,26.6876
12:39:31.068,2.25,42.2502
12:39:31.079,8.625,53.8127
12:39:31.088,13.7501,64.5002
12:39:31.098,16.4376,69.5003
12:39:31.109,17.3751,73.6253
12:39:31.118,17.6876,74.6878
12:39:31.143,17.3126,73.8128
12:39:31.145,16.6251,71.8753
12:39:31.149,14.2501,68.1878
12:39:31.183,13,64.4377
12:39:31.186,11.5625,60.2502
12:39:31.188,11.3125,56.9377
12:39:31.192,11.9375,56.2502
12:39:31.223,10.5625,51.5627
12:39:31.225,9.75,49.4377
12:39:31.228,9.75,47.0002
12:39:31.235,10.125,44.9377
12:39:31.251,11.5625,43.6252
12:39:31.254,12.8125,42.6877
12:39:31.281,15.3126,42.5002
12:39:31.284,18.1876,43.8127
12:39:31.285,21.9376,46.3752
12:39:31.291,26.5001,50.1877
12:39:31.311,29.9376,52.8127
12:39:31.314,32.9376,56.3127
12:39:31.319,37.0626,60.1877
12:39:31.330,40.6252,64.4377
12:39:31.338,44.0002,69.3753
12:39:31.350,47.0002,71.6253
12:39:31.358,49.5002,73.9378
12:39:31.383,51.1252,75.3753
12:39:31.385,51.6252,75.5003
12:39:31.398,51.6877,73.9378
12:39:31.401,50.6252,71.8753
12:39:31.409,48.6252,67.6253
12:39:31.418,47.0627,64.1252
12:39:31.429,44.6877,60.2502
12:39:31.438,41.6252,55.6877
12:39:31.449,39.1877,50.2502
12:39:31.460,37.2501,44.7502
12:39:31.469,34.3751,40.8127
12:39:31.479,31.5001,35.3751
12:39:31.488,29.3751,30.4376
12:39:31.498,27.7501,26.8126
12:39:31.509,24.5626,22.1876
12:39:31.519,22.6876,18.1251
12:39:31.529,20.6251,13.3126
12:39:31.538,18.5626,9.9375
12:39:31.554,17.5626,7.4375
12:39:31.563,15.5626,3.0625
12:39:31.574,15.1876,1.0625
12:39:31.584,13.5001,-2
12:39:31.594,12.4375,-3.6875
12:39:31.604,11.375,-5.875
12:39:31.614,11.25,-8.75
12:39:31.624,9.375,-9.375
12:39:31.634,8.375,-11.8125
12:39:31.644,8,-13.6876
12:39:31.654,6.8125,-15.1251
12:39:31.665,5.125,-18.4376
12:39:31.674,3.125,-20.6251
12:39:31.684,2.5,-22.7501
12:39:31.694,0.5,-24.7501
12:39:31.704,-0.8125,-27.2501
12:39:31.714,-3.125,-30.8751
12:39:31.724,-4.125,-33.3751
12:39:31.734,-4.75,-35.4376
12:39:31.744,-7.125,-37.8126
12:39:31.754,-8.5625,-42.4377
12:39:31.765,-11,-44.6877
12:39:31.774,-12.1875,-48.3752
12:39:31.784,-13.8126,-50.5627
12:39:31.794,-15.6876,-54.1877
12:39:31.805,-18.3126,-57.9377
12:39:31.817,-21.5626,-62.1252
12:39:31.824,-23.8751,-65.4378
12:39:31.835,-25.9376,-68.6878
12:39:31.844,-30.1876,-73.3753
12:39:31.854,-34.8751,-78.5003
12:39:31.884,-39.7502,-84.1878
12:39:31.887,-45.5627,-90.3128
12:39:31.888,-52.7502,-97.3129
12:39:31.895,-59.5627,-105.2504
12:39:31.926,-67.2503,-112.9379
12:39:31.930,-73.1253,-120.063
12:39:31.931,-76.4378,-122.938
12:39:31.935,-75.8128,-121.563
12:39:31.970,-71.5003,-112.0004
12:39:32.060,-65.1252,-96.5629
12:39:32.079,-58.7502,-81.1878
12:39:32.082,-49.2502,-63.1877
12:39:32.082,-41.0002,-44.1877
12:39:32.082,-33.3126,-28.6876
12:39:32.091,-27.6251,-14.5001
12:39:32.107,-21.7501,-2.25
12:39:32.112,-19.0626,6.8125
12:39:32.112,-17.0001,13.8751
12:39:32.112,-16.8751,18.3751
12:39:32.112,-17.5001,17.8126
12:39:32.114,-18.5626,18.5001
12:39:32.124,-21.3751,15.3126
12:39:32.134,-24.6251,11.5
12:39:32.147,-29.0626,7.25
12:39:32.154,-31.6251,1.875
12:39:32.164,-35.8126,-3.3125
12:39:32.174,-39.1252,-9.25
12:39:32.184,-42.1877,-13.5626
12:39:32.194,-45.3752,-17.6251
12:39:32.204,-48.1252,-23.5626
12:39:32.214,-60.6877,-43.1877
12:39:32.224,-59.0627,-43.2502
12:39:32.234,-58.3752,-42.0627
12:39:32.244,-55.5627,-39.2502
12:39:32.254,-52.8127,-36.6876
12:39:32.264,-47.0002,-28.3126
12:39:32.274,-43.8752,-25.2501
12:39:32.284,-41.0627,-20.8751
12:39:32.294,-39.6877,-19.6251
12:39:32.304,-38.1876,-17.5001
12:39:32.314,-37.0626,-17.9376
12:39:32.324,-35.6876,-17.7501
12:39:32.334,-36.8751,-17.0626
12:39:32.344,-36.5626,-19.8126
12:39:32.354,-36.2501,-21.3126
12:39:32.364,-37.6251,-24.3751
12:39:32.374,-37.6251,-27.8751
12:39:32.384,-39.9377,-30.3751
12:39:32.394,-41.0627,-35.4376
12:39:32.404,-42.0627,-37.8126
12:39:32.414,-43.0627,-42.3127
12:39:32.424,-44.6877,-45.0002
12:39:32.434,-45.6877,-50.0627
12:39:32.444,-45.9377,-52.1877
12:39:32.454,-46.9377,-54.5002
12:39:32.464,-46.1252,-58.1877
12:39:32.474,-46.3127,-59.6252
12:39:32.484,-45.6252,-60.6877
12:39:32.494,-44.1252,-62.0627
12:39:32.504,-41.6877,-61.5002
12:39:32.514,-41.1252,-61.1877
12:39:32.526,-39.5002,-62.6877
12:39:32.534,-37.6876,-61.4377
12:39:32.544,-35.1251,-61.3752
12:39:32.554,-31.5626,-60.0627
12:39:32.564,-29.0626,-59.1877
12:39:32.574,-25.6251,-57.5002
12:39:32.590,-22.1876,-55.1252
12:39:32.607,-17.9376,-52.6877
12:39:32.611,-12.1875,-50.1877
12:39:32.626,-5.875,-45.1252
12:39:32.630,2.0625,-39.8752
12:39:32.665,9.8125,-34.6251
12:39:32.667,15.0001,-30.5001
12:39:32.670,21.1251,-26.6251
12:39:32.675,26.7501,-21.1876
12:39:32.692,32.0626,-18.6251
12:39:32.694,36.5001,-15.1251
12:39:32.734,40.3752,-12.625
12:39:32.735,42.6877,-10.1875
12:39:32.738,43.1877,-11.375
12:39:32.744,44.0627,-11.1875
12:39:32.744,42.7502,-13.3126
12:39:32.753,41.1877,-15.8751
12:39:32.760,40.7502,-19.2501
12:39:32.779,37.8126,-21.1876
12:39:32.782,35.1876,-25.8126
12:39:32.789,33.3126,-30.8751
12:39:32.799,30.5626,-34.1251
12:39:32.810,27.3126,-40.7502
12:39:32.820,22.2501,-48.1252
12:39:32.829,16.3126,-56.5627
12:39:32.839,10.8125,-69.1253
12:39:32.849,4.1875,-83.1253
12:39:32.859,-0.625,-93.1879
12:39:32.869,-4.5625,-101.9379
12:39:32.879,-3.875,-101.5004
12:39:32.889,2.4375,-91.5629
12:39:32.903,11.5625,-75.9378
12:39:32.909,19.9376,-60.6252
12:39:32.919,25.7501,-47.0002
12:39:32.929,30.1876,-35.5626
12:39:32.939,31.8126,-27.3751
12:39:32.949,32.6876,-19.6251
12:39:32.959,31.3751,-18.0001
12:39:32.970,26.4376,-19.8751
12:39:32.979,22.1251,-22.5626
12:39:32.990,19.3126,-24.3751
12:39:32.999,17.3751,-24.0001
12:39:33.009,15.1876,-23.6876
12:39:33.020,13.6876,-26.2501
12:39:33.029,10.6875,-28.6251
12:39:33.039,8.25,-32.5626
12:39:33.049,5.6875,-33.5001
12:39:33.060,4.3125,-37.5626
12:39:33.070,2.125,-38.7501
12:39:33.079,0.25,-42.3127
12:39:33.090,-2.1875,-43.5002
12:39:33.099,-3.5,-47.0002
12:39:33.109,-5.875,-48.5002
12:39:33.119,-8,-51.8752
12:39:33.129,-8.6875,-51.6252
12:39:33.139,-9.0625,-53.3127
12:39:33.149,-8.5,-51.2502
12:39:33.159,-7.375,-49.1252
12:39:33.169,-5.75,-47.0627
12:39:33.179,-3.5625,-44.0002
12:39:33.189,-1.3125,-39.4377
12:39:33.199,0.375,-37.0626
12:39:33.209,2.125,-32.8751
12:39:33.219,3.1875,-31.0001
12:39:33.229,4.875,-27.4376
12:39:33.240,5.375,-26.2501
12:39:33.250,5.6875,-24.6876
12:39:33.259,4.375,-24.1251
12:39:33.269,4.1875,-26.0626
12:39:33.279,3.25,-26.5001
12:39:33.289,1.4375,-28.3751
12:39:33.299,0.1875,-30.5626
12:39:33.316,-2.125,-32.5626
12:39:33.319,-3.6875,-35.4376
12:39:33.355,-4.8125,-37.5626
12:39:33.358,-6.875,-40.8127
12:39:33.372,-6.625,-40.6252
12:39:33.375,-4.6875,-41.9377
12:39:33.453,-0.125,-38.5001
12:39:33.465,4.5625,-36.9376
12:39:33.468,9.125,-32.6876
12:39:33.491,8.5625,-32.8126
12:39:33.504,6.9375,-31.6876
12:39:33.504,5.4375,-30.3126
12:39:33.505,4.0625,-27.5001
12:39:33.508,3.125,-24.8751
12:39:33.514,5.3125,-19.5626
12:39:33.515,11.0625,-12.5
12:39:33.519,16.1251,-3.375
12:39:33.529,20.5626,5.1875
12:39:33.541,21.7501,12.125
12:39:33.550,21.8751,13.3126
12:39:33.559,20.4376,13.6251
12:39:33.569,19.4376,12.1875
12:39:33.579,18.1876,11.875
12:39:33.589,15.2501,9.5
12:39:33.599,12.9375,7
12:39:33.609,11.0625,4
12:39:33.620,5.5,-2.75
12:39:33.629,-4.1875,-12.4375
12:39:33.639,-73.6878,-84.7503
12:39:33.654,-76.1878,-88.5628
12:39:33.659,-78.6253,-91.1879
12:39:33.669,-81.0003,-94.8754
12:39:33.679,-83.6253,-97.7504
12:39:33.690,-85.1878,-101.5004
12:39:33.699,-87.1253,-104.0004
12:39:33.709,-88.3128,-106.5629
12:39:33.719,-90.0628,-110.0004
12:39:33.729,-91.0629,-112.1254
12:39:33.740,-92.7504,-113.3129
12:39:33.750,-93.3129,-116.4379
12:39:33.760,-95.5004,-120.063
12:39:33.769,-96.7504,-121.5005
12:39:33.779,-96.3129,-123.813
12:39:33.789,-97.8129,-125.5005
12:39:33.800,-97.9379,-127.2505
12:39:33.809,-97.0004,-127.5005
12:39:33.819,-92.7504,-122.938
12:39:33.829,-83.6878,-113.1254
12:39:33.840,-70.1878,-93.7504
12:39:33.849,-54.3752,-70.1253
12:39:33.859,-40.6877,-47.9377
12:39:33.870,-30.5001,-31.3751
12:39:33.879,-20.7501,-13.8126
12:39:33.889,-12.625,2.5625
12:39:33.899,-3.5625,14.6251
12:39:33.910,3.25,26.7501
12:39:33.919,7.375,34.6876
12:39:33.944,10.4375,39.4377
12:39:33.947,10.125,42.2502
12:39:33.951,10.5,42.5002
12:39:33.960,9.9375,42.1252
12:39:33.969,8.5625,38.9376
12:39:33.979,7.6875,37.8126
12:39:33.990,5.75,34.4376
12:39:34.005,5,30.4376
12:39:34.010,3.5,27.8751
12:39:34.044,3,24.1251
12:39:34.047,2.875,20.9376
12:39:34.049,2,18.8126
12:39:34.052,1.75,15.3751
12:39:34.082,2.9375,13.0625
12:39:34.084,3.5625,11.125
12:39:34.086,4,9.8125
12:39:34.092,7.125,10.125
12:39:34.121,10.3125,12.75
12:39:34.123,15.0001,15.1251
12:39:34.125,22.4376,21.3126
12:39:34.156,34.0001,29.7501
12:39:34.157,45.9377,41.2502
12:39:34.160,56.9377,52.0002
12:39:34.164,67.4378,62.5627
12:39:34.173,77.6253,72.3753
12:39:34.185,84.4378,81.1253
12:39:34.189,89.1253,85.8753
12:39:34.200,92.4379,89.3128
12:39:34.209,94.6879,90.1878
12:39:34.219,94.0629,89.6878
12:39:34.229,93.3129,86.6253
12:39:34.239,90.1878,82.9378
12:39:34.250,84.8128,74.2503
12:39:34.259,76.7503,63.4377
12:39:34.269,68.1253,48.8127
12:39:34.280,57.4377,27.8126
12:39:34.291,44.4377,4.625
12:39:34.299,32.1876,-16.1251
12:39:34.309,17.9376,-35.9376
12:39:34.319,4.75,-55.1877
12:39:34.329,-8.625,-75.4378
12:39:34.339,-24.1251,-97.1879
12:39:34.349,-30.3126,-108.5629
12:39:34.359,-32.4376,-111.3754
12:39:34.370,-33.3751,-112.2504
12:39:34.379,-33.0001,-112.8754
12:39:34.389,-32.7501,-113.3754
12:39:34.399,-32.1251,-113.5004
12:39:34.409,-30.6876,-111.5629
12:39:34.420,-29.8126,-110.5629
12:39:34.430,-29.2501,-108.9379
12:39:34.441,-27.8126,-106.8754
12:39:34.449,-25.1876,-102.3129
12:39:34.459,-21.7501,-97.8754
12:39:34.469,-17.0001,-93.5004
12:39:34.479,-14.6251,-90.1878
12:39:34.490,-11.8125,-85.7503
12:39:34.501,-10.25,-82.5628
12:39:34.509,-9.3125,-81.2503
12:39:34.520,-9.25,-80.1253
12:39:34.529,-11,-81.4378
12:39:34.539,-13.1251,-83.1878
12:39:34.549,-17.3126,-85.6878
12:39:34.560,-19.8126,-88.9378
12:39:34.569,-21.7501,-92.3754
12:39:34.579,-25.6251,-94.8754
12:39:34.590,-28.2501,-99.0629
12:39:34.599,-30.6876,-101.1254
12:39:34.609,-32.5626,-102.6254
12:39:34.619,-34.9376,-107.1254
12:39:34.629,-35.5001,-108.1254
12:39:34.640,-36.7501,-109.0629
12:39:34.649,-36.5626,-110.9379
12:39:34.659,-38.8751,-111.8129
12:39:34.669,-40.1877,-115.4379
12:39:34.679,-40.9377,-115.8129
12:39:34.689,-43.2502,-116.5629
12:39:34.710,-44.0002,-119.563
12:39:34.739,-44.5002,-119.938
12:39:34.742,-46.9377,-121.6255
12:39:34.780,-47.8127,-123.063
12:39:34.862,-49.0627,-123.563
12:39:34.862,-49.5627,-123.1255
12:39:34.862,-46.0002,-119.5005
12:39:34.862,-37.6251,-108.4379
12:39:34.878,-27.1876,-90.8754
12:39:34.879,-14.8126,-71.5628
12:39:34.893,-2.75,-51.0627
12:39:34.893,7,-32.3751
12:39:34.894,16.5626,-15.3751
12:39:34.902,28.3751,2.4375
12:39:34.909,42.6877,24.8126
12:39:34.919,49.8752,45.2502
12:39:34.936,57.1877,60.1877
12:39:34.941,61.3127,72.5628
12:39:34.949,65.1877,80.5003
12:39:34.960,66.0003,88.8128
12:39:34.969,65.4378,92.0004
12:39:34.979,66.5628,97.0004
12:39:34.989,69.2503,104.0629
12:39:34.999,66.8753,116.0004
12:39:35.009,65.3753,112.0004
12:39:35.019,63.3127,110.6879
12:39:35.029,58.8127,107.2504
12:39:35.039,54.0627,100.1254
12:39:35.049,9.8125,55.8127
12:39:35.060,0.875,47.3752
12:39:35.069,-7.25,40.7502
12:39:35.080,-13.5626,35.6251
12:39:35.089,-17.1251,32.5001
12:39:35.100,-17.0626,33.8126
12:39:35.109,-15.0001,36.2501
12:39:35.119,-15.0001,37.1876
12:39:35.129,-13.8751,38.2501
12:39:35.139,-13.5626,38.8751
12:39:35.149,-13.8126,37.9376
12:39:35.160,-14.7501,37.1876
12:39:35.170,-16.3126,34.9376
12:39:35.179,-17.1876,32.7501
12:39:35.190,-18.6251,29.9376
12:39:35.199,-19.9376,27.5001
12:39:35.224,-21.0626,23.5626
12:39:35.228,-21.6876,21.4376
12:39:35.229,-22.1251,18.8751
12:39:35.239,-23.3751,14.9376
12:39:35.249,-24.2501,12.9375
12:39:35.261,-23.8126,11.5625
12:39:35.269,-24.2501,9.0625
12:39:35.280,-24.6251,7.0625
12:39:35.289,-24.6251,4.125
12:39:35.299,-24.9376,2.4375
12:39:35.310,-25.5001,-1.1875
12:39:35.319,-25.5001,-3.75
12:39:35.329,-25.6251,-5
12:39:35.339,-24.5001,-6.5
12:39:35.349,-23.1251,-6.0625
12:39:35.360,-20.9376,-6.3125
12:39:35.369,-19.5626,-5.25
12:39:35.379,-17.5626,-4.375
12:39:35.389,-17.6251,-6.9375
12:39:35.399,-18.0626,-7
12:39:35.409,-16.8126,-7.375
12:39:35.419,-14.3751,-7.5625
12:39:35.429,-13.9376,-6.5625
12:39:35.440,-12.375,-8
12:39:35.450,-11.6875,-8.8125
12:39:35.461,-12.125,-9.3125
12:39:35.469,-10.5625,-10.875
12:39:35.479,-7.625,-10
12:39:35.489,-3.75,-8
12:39:35.522,0.9375,-5.75
12:39:35.524,5.125,-3.5625
12:39:35.527,8.0625,-1.75
12:39:35.531,10.5625,-0.375
12:39:35.571,12.625,0.125
12:39:35.575,13.3126,-1.5625
12:39:35.576,14.3126,-0.75
12:39:35.579,15.0626,-1.1875
12:39:35.584,16.8126,0.1875
12:39:35.590,19.8126,1.375
12:39:35.625,21.9376,2.9375
12:39:35.628,26.0001,6.4375
12:39:35.630,28.6251,8.25
12:39:35.637,31.0626,9.5
12:39:35.641,32.5626,10.875
12:39:35.663,35.9376,12.3125
12:39:35.665,37.3751,13.8126
12:39:35.687,36.0001,11.4375
12:39:35.689,33.8751,9.3125
12:39:35.692,31.7501,6.3125
12:39:35.701,32.5001,6.8125
12:39:35.709,38.1876,15.0001
12:39:35.719,49.5002,31.2501
12:39:35.729,60.8127,49.1877
12:39:35.740,69.5628,65.7503
12:39:35.749,79.1253,82.1878
12:39:35.759,85.8128,95.1254
12:39:35.769,89.2503,105.0629
12:39:35.779,91.5629,114.1254
12:39:35.789,94.9379,121.8755
12:39:35.799,97.2504,128.188
12:39:35.809,98.5629,132.688
12:39:35.819,98.1879,134.938
12:39:35.830,97.4379,135.438
12:39:35.839,94.5004,132.813
12:39:35.849,91.4379,131.8755
12:39:35.859,88.6878,128.0005
12:39:35.873,84.6878,122.8755
12:39:35.880,78.3128,115.5629
12:39:35.889,70.8128,107.0629
12:39:35.901,65.1252,100.5004
12:39:35.910,64.4377,96.0629
12:39:35.919,62.9377,93.0629
12:39:35.930,55.8127,86.0003
12:39:35.940,50.2502,76.3753
12:39:35.949,46.8752,71.2503
12:39:35.959,44.8127,67.5628
12:39:35.970,41.4377,63.0002
12:39:35.979,38.2501,58.3752
12:39:35.990,35.1251,55.3127
12:39:36.001,32.9376,52.9377
12:39:36.009,30.3126,51.5002
12:39:36.020,27.8126,50.5627
12:39:36.030,25.0626,47.3752
12:39:36.040,20.3126,44.5002
12:39:36.064,18.0626,41.9377
12:39:36.066,16.1251,41.0002
12:39:36.081,15.3751,39.5627
12:39:36.084,13.7501,37.0626
12:39:36.090,10.75,33.6251
12:39:36.100,7.0625,28.7501
12:39:36.109,3.8125,24.0001
12:39:36.120,-0.5,18.1251
12:39:36.129,13.25,29.8126
12:39:36.140,19.0001,33.0626
12:39:36.149,19.9376,29.1876
12:39:36.160,24.0001,30.5626
12:39:36.178,28.6876,31.5001
12:39:36.180,34.0626,34.1876
12:39:36.196,36.5626,35.5626
12:39:36.200,43.3127,39.3127
12:39:36.209,49.2502,43.6252
12:39:36.242,55.9377,49.3752
12:39:36.244,56.5002,48.5627
12:39:36.247,52.0002,42.0627
12:39:36.254,48.9377,37.0001
12:39:36.264,45.8752,32.8751
12:39:36.296,46.8127,31.1251
12:39:36.298,49.0627,31.9376
12:39:36.301,54.3127,34.9376
12:39:36.303,59.4377,38.6876
12:39:36.333,63.3127,41.6252
12:39:36.335,64.5002,41.4377
12:39:36.337,65.4378,41.0002
12:39:36.344,64.7502,38.3126
12:39:36.379,62.9377,36.5001
12:39:36.382,60.3127,33.1876
12:39:36.384,59.4377,30.8126
12:39:36.399,59.6877,28.7501
12:39:36.399,60.1252,28.4376
12:39:36.399,59.9377,26.6251
12:39:36.409,59.0002,25.0626
12:39:36.420,57.6877,22.1876
12:39:36.429,54.0002,18.1251
12:39:36.445,51.1877,14.1876
12:39:36.450,49.8752,10.125
12:39:36.460,49.8127,8.75
12:39:36.471,49.4377,7.8125
12:39:36.479,49.6877,6.1875
12:39:36.504,49.6252,4.625
12:39:36.507,48.8752,2.6875
12:39:36.513,47.1252,0.125
12:39:36.520,45.2502,-3.625
12:39:36.530,43.0627,-6.6875
12:39:36.540,41.5002,-8.9375
12:39:36.551,38.5001,-13.8126
12:39:36.560,36.3751,-17.9376
12:39:36.569,33.6251,-20.5626
12:39:36.580,31.0626,-25.4376
12:39:36.590,27.5001,-29.2501
12:39:36.600,24.8126,-34.9376
12:39:36.611,21.2501,-39.2502
12:39:36.620,19.8126,-42.5002
12:39:36.630,19.8751,-42.7502
12:39:36.640,23.1251,-38.7501
12:39:36.650,31.4376,-28.6251
12:39:36.660,40.5002,-11.3125
12:39:36.669,51.0002,6
12:39:36.680,60.9377,24.5626
12:39:36.689,70.5628,41.7502
12:39:36.700,76.3753,55.8127
12:39:36.715,81.6253,67.1878
12:39:36.726,85.2503,77.1878
12:39:36.735,87.1878,84.0628
12:39:36.745,87.1878,88.4378
12:39:36.755,88.1253,91.5004
12:39:36.764,86.0003,93.6879
12:39:36.775,85.4378,92.5004
12:39:36.784,83.4378,92.1254
12:39:36.796,80.3753,87.3128
12:39:36.804,76.2503,82.8753
12:39:36.820,72.3128,77.5628
12:39:36.826,67.5003,70.9378
12:39:36.835,64.8127,66.0628
12:39:36.845,64.0627,65.1878
12:39:36.854,61.3752,60.7502
12:39:36.865,58.1252,54.1877
12:39:36.875,54.8127,48.9377
12:39:36.886,51.5627,43.2502
12:39:36.895,48.9377,39.6252
12:39:36.905,47.9377,36.5626
12:39:36.914,46.3127,33.9376
12:39:36.925,48.2502,36.0626
12:39:36.934,46.8127,35.1876
12:39:36.945,47.4377,35.6251
12:39:36.954,47.6877,38.1876
12:39:36.981,48.6877,40.6252
12:39:36.985,49.1252,41.8127
12:39:36.987,49.3752,43.1252
12:39:37.021,48.5627,43.5627
12:39:37.022,47.8752,43.3127
12:39:37.025,46.6252,43.4377
12:39:37.029,45.2502,41.0627
12:39:37.064,44.0627,39.5002
12:39:37.067,42.5627,37.4376
12:39:37.068,39.8127,34.4376
12:39:37.101,38.1876,31.3751
12:39:37.102,37.2501,30.4376
12:39:37.106,34.0001,24.2501
12:39:37.110,31.1876,20.8126
12:39:37.110,28.8126,16.1251
12:39:37.118,25.5001,11.6875
12:39:37.144,22.6251,7.3125
12:39:37.145,20.0001,2.4375
12:39:37.149,17.4376,-0.625
12:39:37.157,15.4376,-5.875
12:39:37.167,12.9375,-8.0625
12:39:37.176,11.4375,-11.625
12:39:37.186,10.25,-15.3751
12:39:37.195,9.375,-17.3126
12:39:37.206,8.1875,-19.6251
12:39:37.216,7.0625,-21.3126
12:39:37.225,5.375,-23.3126
12:39:37.236,4.75,-25.8126
12:39:37.245,4.3125,-26.3751
12:39:37.254,4.3125,-27.0626
12:39:37.265,4.25,-28.3126
12:39:37.275,4.1875,-29.0001
12:39:37.285,3.9375,-29.8751
12:39:37.296,3.3125,-30.1876
12:39:37.305,4.125,-31.6251
12:39:37.316,3.9375,-30.7501
12:39:37.325,3.8125,-32.7501
12:39:37.336,4,-32.3751
12:39:37.345,2.8125,-33.2501
12:39:37.361,3.25,-35.0001
12:39:37.377,1.75,-37.1876
12:39:37.380,0.8125,-38.0626
12:39:37.385,-0.5,-41.1252
12:39:37.395,-2.0625,-42.5002
12:39:37.405,-2.75,-45.0627
12:39:37.416,-4.625,-46.8127
12:39:37.425,-6.5625,-49.1877
12:39:37.435,-8.125,-52.3752
12:39:37.446,-9.8125,-54.7502
12:39:37.455,-13.3126,-58.1252
12:39:37.474,-15.6876,-62.1877
12:39:37.476,-18.5001,-64.8127
12:39:37.491,-19.4376,-67.8753
12:39:37.496,-21.5001,-69.8128
12:39:37.506,-21.8751,-71.5628
12:39:37.515,-24.3751,-74.3128
12:39:37.526,-24.8751,-76.9378
12:39:37.536,-27.2501,-78.8128
12:39:37.545,-27.1876,-80.5003
12:39:37.555,-26.6876,-79.7503
12:39:37.570,-21.6876,-74.5003
12:39:37.575,-13.6876,-60.8127
12:39:37.585,-1.375,-42.7502
12:39:37.596,10.625,-21.3751
12:39:37.605,22.3751,-0.625
12:39:37.615,32.3126,17.6251
12:39:37.625,39.9377,33.6251
12:39:37.636,46.1877,46.7502
12:39:37.648,50.9377,57.9377
12:39:37.684,52.1877,65.5002
12:39:37.687,54.4377,70.6253
12:39:37.689,53.8127,73.5628
12:39:37.692,51.6877,73.6253
12:39:37.695,49.4377,72.4378
12:39:37.724,45.6877,68.8128
12:39:37.726,42.3127,64.9377
12:39:37.728,37.9376,60.6877
12:39:37.762,34.8126,53.9377
12:39:37.763,31.6251,49.4377
12:39:37.765,27.0001,43.7502
12:39:37.793,24.7501,38.5001
12:39:37.795,21.3751,33.8126
12:39:37.795,18.7501,28.8126
12:39:37.806,15.1876,23.6876
12:39:37.811,12.6875,18.0001
12:39:37.826,9.5,12.375
12:39:37.831,7,8.875
12:39:37.840,5.8125,6.9375
12:39:37.851,6.25,6.125
12:39:37.860,6.375,6.3125
12:39:37.870,8.25,7.9375
12:39:37.880,9.5,10.3125
12:39:37.891,11.6875,14.1251
12:39:37.900,13.5626,17.5001
12:39:37.911,16.1251,20.8751
12:39:37.920,16.9376,22.6876
12:39:37.930,16.9376,24.4376
12:39:37.943,17.5001,25.0001
12:39:37.953,17.6251,24.4376
12:39:37.961,15.9376,21.3126
12:39:37.971,14.1251,20.0626
12:39:37.980,11.5625,16.0001
12:39:37.990,10.1875,12.4375
12:39:38.000,6.875,8.875
12:39:38.010,5.8125,4.75
12:39:38.021,2.9375,0.8125
12:39:38.030,0.25,-3.875
12:39:38.041,-2,-8.375
12:39:38.050,-5.1875,-12.6875
12:39:38.061,-6.125,-17.8751
12:39:38.071,-9.3125,-21.7501
12:39:38.081,-11.1875,-25.5626
12:39:38.090,-14.1876,-30.5001
12:39:38.101,-16.6251,-35.3126
12:39:38.110,-18.1876,-38.3751
12:39:38.121,-19.6876,-41.2502
12:39:38.130,-21.8751,-43.8127
12:39:38.140,-22.2501,-46.6252
12:39:38.151,-23.6251,-48.8752
12:39:38.161,-24.6251,-50.4377
12:39:38.171,-25.6251,-52.7502
12:39:38.180,-26.1251,-54.5002
12:39:38.190,-26.3751,-55.5627
12:39:38.200,-27.5001,-57.1252
12:39:38.211,-28.1876,-58.8127
12:39:38.221,-28.7501,-59.8752
12:39:38.232,-29.6876,-62.1252
12:39:38.241,-29.8126,-62.3127
12:39:38.250,-31.1251,-63.4377
12:39:38.260,-32.0626,-65.0002
12:39:38.271,-32.1876,-68.0003
12:39:38.281,-33.0001,-68.8753
12:39:38.293,-34.3126,-70.0003
12:39:38.301,-34.1876,-72.5628
12:39:38.311,-35.8751,-73.5628
12:39:38.320,-36.4376,-77.3753
12:39:38.330,-37.6876,-78.5003
12:39:38.342,-38.9376,-80.8128
12:39:38.351,-40.1877,-83.5628
12:39:38.361,-40.5627,-84.0628
12:39:38.370,-42.3127,-87.5003
12:39:38.381,-43.0002,-88.6253
12:39:38.391,-44.0627,-91.9379
12:39:38.410,-45.3752,-92.3754
12:39:38.413,-46.5627,-96.0629
12:39:38.443,-48.2502,-98.1879
12:39:38.446,-50.0002,-101.5004
12:39:38.449,-51.2502,-102.5004
12:39:38.453,-52.5627,-106.3129
12:39:38.485,-52.6877,-107.3129
12:39:38.487,-52.5627,-104.8129
12:39:38.489,-46.0627,-99.3129
12:39:38.519,-35.7501,-82.8128
12:39:38.522,-22.8126,-62.5627
12:39:38.523,-11.25,-42.9377
12:39:38.529,-0.4375,-23.6251
12:39:38.533,9.625,-3.5
12:39:38.564,17.8751,11.1875
12:39:38.567,23.4376,25.8751
12:39:38.568,28.1876,36.8751
12:39:38.570,32.3126,45.4377
12:39:38.586,33.2501,50.8752
12:39:38.590,33.7501,54.0002
12:39:38.602,33.3126,55.8752
12:39:38.611,31.5626,54.5627
12:39:38.620,28.8126,52.6877
12:39:38.630,26.3126,48.1877
12:39:38.641,23.1876,44.1252
12:39:38.657,20.0626,38.6251
12:39:38.672,16.6876,32.8126
12:39:38.674,12.25,28.5001
12:39:38.680,9.4375,21.5001
12:39:38.696,7,16.9376
12:39:38.700,3.75,11
12:39:38.711,0.5625,5.875
12:39:38.720,-2.125,0.5625
12:39:38.730,-4.75,-2.75
12:39:38.740,-5.5,-7.1875
12:39:38.750,-5.3125,-7.6875
12:39:38.771,-4.3125,-6.25
12:39:38.773,-1.4375,-3.8125
12:39:38.788,0.875,0.3125
12:39:38.790,3.8125,3.1875
12:39:38.801,6.0625,8.4375
12:39:38.810,9.25,12.5
12:39:38.820,10.75,16.5001
12:39:38.830,13.0625,20.0001
12:39:38.842,13.8751,21.3751
12:39:38.850,13.6876,22.8126
12:39:38.861,13.3126,21.5626
12:39:38.870,11.5625,21.5001
12:39:38.880,10.25,17.3126
12:39:38.891,8.0625,16.3751
12:39:38.900,6.125,12.1875
12:39:38.910,4.125,8.375
12:39:38.920,1.4375,2.9375
12:39:38.930,-1.3125,-0.1875
12:39:38.941,-3.3125,-5.1875
12:39:38.950,-5.625,-9.375
12:39:38.960,-6.8125,-13.2501
12:39:38.970,-9.625,-18.0001
12:39:38.980,-11.6875,-22.3126
12:39:38.991,-13.5001,-26.3751
12:39:39.000,-15.3126,-28.5001
12:39:39.010,-17.1876,-31.6251
12:39:39.021,-18.9376,-35.4376
12:39:39.030,-20.2501,-37.3751
12:39:39.065,-21.1876,-40.6877
12:39:39.067,-22.3751,-42.6252
12:39:39.069,-21.8751,-43.0627
12:39:39.079,-22.0001,-44.1252
12:39:39.082,-21.5626,-44.5627
12:39:39.090,-21.3126,-44.6252
12:39:39.101,-22.3126,-45.1877
12:39:39.110,-22.9376,-47.4377
12:39:39.120,-23.6251,-48.4377
12:39:39.130,-24.2501,-48.0002
12:39:39.167,-25.1251,-49.1877
12:39:39.169,-25.5001,-51.3752
12:39:39.170,-26.8126,-52.0002
12:39:39.173,-27.1876,-54.0627
12:39:39.205,-27.6876,-55.0627
12:39:39.207,-29.2501,-55.5002
12:39:39.209,-30.8126,-57.9377
12:39:39.212,-32.3751,-60.2502
12:39:39.253,-33.4376,-61.6252
12:39:39.255,-35.1251,-64.6877
12:39:39.257,-36.1251,-66.2503
12:39:39.259,-37.6876,-68.9378
12:39:39.266,-39.9377,-72.1253
12:39:39.271,-42.5627,-74.4378
12:39:39.302,-43.6877,-78.0628
12:39:39.304,-45.3127,-80.3753
12:39:39.307,-46.1877,-83.2503
12:39:39.312,-45.1252,-81.7503
12:39:39.320,-40.5002,-76.5628
12:39:39.332,-31.6251,-64.1252
12:39:39.340,-21.0001,-47.0002
12:39:39.350,-9.4375,-27.5001
12:39:39.360,0.6875,-9.8125
12:39:39.370,9.5,7.5625
12:39:39.380,16.5626,21.6876
12:39:39.390,22.5001,35.1876
12:39:39.400,26.2501,44.5627
12:39:39.410,28.7501,52.0627
12:39:39.420,30.7501,57.7502
12:39:39.430,31.0626,60.6877
12:39:39.440,29.5001,61.0002
12:39:39.451,27.9376,60.1252
12:39:39.460,26.1876,57.8752
12:39:39.470,23.5001,54.8752
12:39:39.481,20.1876,49.9377
12:39:39.490,17.6251,44.1877
12:39:39.501,14.0626,39.1251
12:39:39.510,11.25,32.9376
12:39:39.520,7.6875,27.7501
12:39:39.530,3.8125,21.1876
12:39:39.541,0.3125,15.3751
12:39:39.550,-3.5,7.375
12:39:39.560,-6.25,2.8125
12:39:39.570,-8.75,-2.5625
12:39:39.580,-10.1875,-4.75
12:39:39.591,-9.9375,-6.5
12:39:39.600,-8.5625,-4.25
12:39:39.611,-5.625,-2.25
12:39:39.620,-3.25,1.625
12:39:39.631,-1.9375,4.25
12:39:39.640,1.0625,8.9375
12:39:39.650,3.3125,11.4375
12:39:39.660,5.375,14.8751
12:39:39.670,6.6875,17.7501
12:39:39.680,7.25,19.1876
12:39:39.690,7.75,20.5001
12:39:39.700,6.375,20.3751
12:39:39.711,5.9375,18.1251
12:39:39.720,3.4375,15.1251
12:39:39.730,1.375,11.375
12:39:39.741,-1.125,7.5625
12:39:39.750,-3.3125,2.9375
12:39:39.760,-6,-2.0625
12:39:39.770,-8.9375,-6.3125
12:39:39.781,-12.125,-12.0625
12:39:39.790,-14.5001,-17.6876
12:39:39.800,-17.8751,-22.2501
12:39:39.810,-19.1876,-26.6251
12:39:39.820,-21.4376,-30.8126
12:39:39.832,-23.1251,-33.8126
12:39:39.842,-24.1876,-37.6251
12:39:39.850,-25.6876,-40.2502
12:39:39.860,-26.3751,-42.9377
12:39:39.871,-26.8751,-45.2502
12:39:39.881,-28.5626,-47.0627
12:39:39.891,-29.3126,-48.8752
12:39:39.900,-29.9376,-49.8127
12:39:39.929,-30.2501,-52.2502
12:39:39.932,-30.1876,-51.9377
12:39:39.934,-30.2501,-53.4377
12:39:39.975,-29.6876,-53.1252
12:39:39.976,-30.8126,-53.3127
12:39:39.977,-30.0626,-54.8127
12:39:39.980,-29.4376,-54.6252
12:39:39.982,-30.1876,-54.9377
12:39:40.014,-30.5626,-57.2502
12:39:40.017,-30.8126,-56.9377
12:39:40.019,-30.9376,-57.8127
12:39:40.027,-30.8751,-59.3127
12:39:40.036,-30.6876,-59.5627
12:39:40.094,-31.5626,-60.1877
12:39:40.094,-31.3751,-61.3752
12:39:40.097,-32.1251,-61.5002
12:39:40.100,-32.3751,-63.2502
12:39:40.109,-32.6251,-65.1253
12:39:40.109,-33.1251,-66.0003
12:39:40.109,-33.5626,-68.5003
12:39:40.117,-34.3126,-69.0628
12:39:40.125,-32.0001,-67.1253
12:39:40.136,-25.2501,-58.4377
12:39:40.146,-15.8126,-42.1252
12:39:40.155,-3.75,-23.0626
12:39:40.166,6.9375,-2.3125
12:39:40.176,17.6876,17.3126
12:39:40.185,26.2501,36.1876
12:39:40.196,33.8751,52.5627
12:39:40.209,41.5627,66.6878
12:39:40.215,47.1877,80.3128
12:39:40.225,50.9377,90.3753
12:39:40.235,51.7502,96.4379
12:39:40.245,52.5627,100.9379
12:39:40.255,52.1252,102.2504
12:39:40.265,51.3752,100.8129
12:39:40.275,48.0627,98.8754
12:39:40.286,44.8752,93.0004
12:39:40.296,42.0627,88.9378
12:39:40.306,38.8126,83.3128
12:39:40.315,35.0626,78.4378
12:39:40.344,31.8751,72.7503
12:39:40.346,28.6251,67.8128
12:39:40.348,25.7501,62.0002
12:39:40.356,24.1251,57.7502
12:39:40.367,20.0626,53.0627
12:39:40.375,18.5001,48.3752
12:39:40.385,17.1251,45.1252
12:39:40.396,16.0001,43.7502
12:39:40.405,16.6876,42.5627
12:39:40.415,17.3126,43.7502
12:39:40.426,18.1876,44.6252
12:39:40.436,19.6251,46.1252
12:39:40.446,20.5001,48.8752
12:39:40.455,22.3751,51.3752
12:39:40.465,24.3126,55.0002
12:39:40.477,25.2501,56.8752
12:39:40.485,26.1251,58.5627
12:39:40.495,26.0626,58.6252
12:39:40.506,26.5626,58.7502
12:39:40.515,25.6251,57.3752
12:39:40.525,23.1251,54.6252
12:39:40.536,21.1876,51.5627
12:39:40.545,18.6251,46.6877
12:39:40.555,15.5001,41.8752
12:39:40.565,12,36.5626
12:39:40.575,9.5625,31.3751
12:39:40.587,5.25,25.6251
12:39:40.600,3.4375,19.8126
12:39:40.629,-0.25,15.3126
12:39:40.631,-1.5,9.5625
12:39:40.633,-4.5,5.625
12:39:40.648,-6.625,1.8125
12:39:40.652,-8.3125,-4
12:39:40.682,-10.8125,-6.75
12:39:40.683,-11.6875,-10.9375
12:39:40.687,-12.9375,-12.75
12:39:40.690,-14.3126,-15.3126
12:39:40.707,-14.6876,-18.0626
12:39:40.709,-15.4376,-19.1251
12:39:40.739,-16.2501,-21.4376
12:39:40.742,-16.5001,-22.6876
12:39:40.744,-16.9376,-24.9376
12:39:40.772,-17.1876,-25.6876
12:39:40.774,-17.5001,-26.8751
12:39:40.777,-18.6876,-27.6251
12:39:40.783,-18.6876,-29.0626
12:39:40.790,-19.9376,-31.5001
12:39:40.800,-20.2501,-32.0001
12:39:40.810,-20.5001,-31.8751
12:39:40.822,-21.0626,-34.3126
12:39:40.830,-21.1876,-34.3751
12:39:40.841,-21.8751,-35.8126
12:39:40.853,-22.2501,-37.8126
12:39:40.860,-22.6251,-39.5627
12:39:40.872,-24.4376,-40.8752
12:39:40.880,-25.3126,-43.2502
12:39:40.892,-27.9376,-46.6877
12:39:40.900,-28.4376,-49.1252
12:39:40.911,-28.2501,-49.8752
12:39:40.921,-29.4376,-52.3127
12:39:40.930,-30.5001,-54.8752
12:39:40.940,-33.0001,-57.3752
12:39:40.950,-34.1876,-61.2502
12:39:40.960,-35.9376,-64.1877
12:39:40.972,-37.8126,-67.1253
12:39:40.980,-37.9376,-67.9378
12:39:40.992,-36.8751,-68.7503
12:39:41.000,-31.9376,-60.6252
12:39:41.012,-21.4376,-45.1252
12:39:41.021,-8.8125,-25.1876
12:39:41.033,3.25,-2
12:39:41.040,14.4376,18.6876
12:39:41.051,24.2501,40.1252
12:39:41.061,33.3126,57.6877
12:39:41.071,39.7502,75.4378
12:39:41.080,46.6252,90.8754
12:39:41.091,50.8752,103.2504
12:39:41.100,53.3752,111.0004
12:39:41.112,54.4377,117.0629
12:39:41.121,54.8752,118.6255
12:39:41.131,53.0627,118.6255
12:39:41.140,51.0627,116.0629
12:39:41.151,47.6252,113.1254
12:39:41.160,44.6877,107.0004
12:39:41.171,40.7502,103.5629
12:39:41.180,37.8751,96.6254
12:39:41.192,34.1251,92.2504
12:39:41.201,31.8126,85.9378
12:39:41.213,29.0001,82.0628
12:39:41.222,27.3126,78.0628
12:39:41.230,24.8126,74.0628
12:39:41.253,23.1251,69.9378
12:39:41.259,20.5626,66.5003
12:39:41.262,19.5626,62.7502
12:39:41.276,18.6876,60.7502
12:39:41.281,18.6251,59.5002
12:39:41.290,18.1251,59.0627
12:39:41.303,19.4376,60.1252
12:39:41.311,20.1251,62.3127
12:39:41.336,21.5626,62.5627
12:39:41.339,21.7501,64.9377
12:39:41.342,23.4376,65.8753
12:39:41.417,23.4376,67.5003
12:39:41.417,22.7501,68.2503
12:39:41.418,23.2501,66.7503
12:39:41.425,21.7501,65.8127
12:39:41.426,20.7501,62.8752
12:39:41.426,18.5626,60.5002
12:39:41.435,16.9376,56.0627
12:39:41.470,14.6876,51.6877
12:39:41.473,11.625,47.1877
12:39:41.476,8.125,41.6252
12:39:41.479,5.625,34.8126
12:39:41.484,2.75,30.8126
12:39:41.501,0.3125,25.5626
12:39:41.505,-1.9375,19.4376
12:39:41.511,-4.125,14.3751
12:39:41.522,-6.0625,10
12:39:41.530,-8.25,5.0625
12:39:41.541,-10.25,1
12:39:41.551,-12.4375,-2.5625
12:39:41.561,-14.1251,-7.375
12:39:41.573,-15.3126,-10.375
12:39:41.582,-16.1876,-12.8125
12:39:41.591,-17.9376,-18.6251
12:39:41.624,-18.1876,-20.8751
12:39:41.626,-18.1251,-21.5001
12:39:41.628,-17.8751,-22.4376
12:39:41.634,-18.1251,-23.5001
12:39:41.644,-18.6251,-23.6251
12:39:41.653,-19.3126,-25.9376
12:39:41.663,-19.1251,-27.1876
12:39:41.672,-19.5626,-27.5626
12:39:41.682,-20.0626,-29.3751
12:39:41.690,-20.8126,-30.4376
12:39:41.702,-22.0001,-33.8126
12:39:41.712,-22.8126,-35.8126
12:39:41.722,-24.0626,-38.1876
12:39:41.731,-24.9376,-39.9377
12:39:41.742,-25.8126,-41.3127
12:39:41.753,-27.4376,-44.6252
12:39:41.760,-27.5626,-47.1252
12:39:41.772,-29.2501,-49.6252
12:39:41.780,-29.5001,-50.3127
12:39:41.792,-30.0626,-53.0627
12:39:41.802,-30.1876,-54.5002
12:39:41.812,-31.0001,-56.8752
12:39:41.822,-31.3126,-57.9377
12:39:41.832,-31.9376,-60.2502
12:39:41.843,-32.6876,-61.5627
12:39:41.852,-34.6251,-64.4377
12:39:41.862,-35.5626,-68.0003
12:39:41.878,-36.5001,-70.2503
12:39:41.882,-38.7501,-73.8128
12:39:41.890,-37.7501,-73.6878
12:39:41.902,-35.3126,-70.2503
12:39:41.912,-26.9376,-58.8752
12:39:41.922,-14.0001,-40.1877
12:39:41.933,-1.25,-16.0626
12:39:41.942,12.125,7
12:39:41.952,22.7501,27.8126
12:39:41.961,32.5001,49.6877
12:39:41.972,41.5627,67.9378
12:39:41.982,48.6877,84.2503
12:39:41.991,53.8127,95.8754
12:39:42.000,56.8752,105.6879
12:39:42.011,58.1877,112.0629
12:39:42.024,58.0627,114.7504
12:39:42.033,57.0002,114.1879
12:39:42.043,53.9377,112.5004
12:39:42.065,51.0627,107.3754
12:39:42.068,46.8127,102.6254
12:39:42.070,43.0002,95.9379
12:39:42.101,39.6252,89.3753
12:39:42.102,35.2501,82.8128
12:39:42.107,31.9376,76.1253
12:39:42.142,28.7501,71.7503
12:39:42.144,26.3751,66.0003
12:39:42.145,23.9376,60.7502
12:39:42.150,21.0001,55.1252
12:39:42.154,17.5626,50.1877
12:39:42.186,15.1251,44.8752
12:39:42.188,13.4376,41.5002
12:39:42.191,12,39.3126
12:39:42.193,12.3125,38.8751
12:39:42.224,12.8125,39.5627
12:39:42.229,14.5001,41.3752
12:39:42.229,15.1876,42.2502
12:39:42.232,16.1876,45.6252
12:39:42.242,17.3126,46.5627
12:39:42.253,18.7501,48.3752
12:39:42.262,19.6251,50.3752
12:39:42.272,19.3126,50.6877
12:39:42.283,19.3751,50.5627
12:39:42.293,17.8126,47.8127
12:39:42.303,15.2501,44.6252
12:39:42.311,12.375,40.4377
12:39:42.322,9.3125,34.4376
12:39:42.332,6.5,30.0001
12:39:42.342,3.4375,23.3751
12:39:42.352,0.1875,17.5626
12:39:42.362,-2.25,11.875
12:39:42.373,-5.5625,7
12:39:42.383,-8.6875,0.875
12:39:42.392,-10.9375,-4.9375
12:39:42.402,-14.2501,-9.75
12:39:42.411,-16.1251,-15.1251
12:39:42.422,-18.1876,-19.5001
12:39:42.432,-19.1251,-23.3126
12:39:42.442,-19.7501,-26.7501
12:39:42.452,-21.2501,-29.3126
12:39:42.461,-21.8126,-31.8126
12:39:42.473,-22.3751,-32.6876
12:39:42.483,-21.7501,-34.9376
12:39:42.492,-21.4376,-34.7501
12:39:42.502,-20.9376,-34.8751
12:39:42.512,-20.2501,-35.8126
12:39:42.521,-19.8751,-35.1876
12:39:42.532,-19.0626,-35.8751
12:39:42.555,-19.1251,-35.8751
12:39:42.557,-19.3126,-36.1251
12:39:42.571,-19.2501,-37.0626
12:39:42.574,-19.4376,-36.1251
12:39:42.583,-18.8126,-38.9376
12:39:42.592,-19.1876,-38.7501
12:39:42.601,-19.1251,-40.1877
12:39:42.611,-19.5626,-41.8752
12:39:42.627,-20.1251,-42.1877
12:39:42.632,-19.9376,-44.6877
12:39:42.642,-20.5001,-44.8127
12:39:42.653,-21.0001,-47.3752
12:39:42.662,-22.0001,-48.8127
12:39:42.676,-23.5626,-52.3127
12:39:42.685,-24.0001,-54.3752
12:39:42.692,-26.3751,-58.8752
12:39:42.708,-28.0001,-61.3752
12:39:42.724,-29.0001,-63.5627
12:39:42.727,-28.2501,-63.8752
12:39:42.732,-23.6251,-58.4377
12:39:42.743,-15.4376,-46.4377
12:39:42.751,-5.3125,-28.6251
12:39:42.762,6.375,-9.25
12:39:42.771,16.3126,10.6875
12:39:42.782,25.2501,28.6251
12:39:42.792,33.1876,44.5002
12:39:42.801,39.3752,60.0627
12:39:42.811,44.0627,70.9378
12:39:42.835,47.3752,80.9378
12:39:42.837,50.0002,86.3753
12:39:42.864,49.3752,90.2503
12:39:42.865,48.6252,90.1253
12:39:42.871,46.5627,88.1878
12:39:42.876,44.4377,84.1253
12:39:42.904,40.5002,80.2503
12:39:42.907,36.8126,72.9378
12:39:42.909,32.3126,67.2503
12:39:42.945,28.2501,58.3127
12:39:42.947,24.1251,51.4377
12:39:42.949,19.7501,43.9377
12:39:42.984,14.3751,36.6876
12:39:42.984,10.8125,28.0001
12:39:42.984,7.125,21.0001
12:39:42.984,4,14.9376
12:39:42.991,1.625,10.1875
12:39:42.995,0.875,7.5
12:39:43.001,1.6875,6.25
12:39:43.013,1.8125,7.625
12:39:43.021,4.0625,8.25
12:39:43.032,5.25,12.875
12:39:43.041,6.75,14.9376
12:39:43.052,8.9375,18.8126
12:39:43.062,11.75,23.0001
12:39:43.073,13.7501,26.6876
12:39:43.081,14.6251,29.1876
12:39:43.091,14.7501,29.8751
12:39:43.103,14.3751,28.6251
12:39:43.111,12.75,28.0626
12:39:43.122,11.5,24.0626
12:39:43.131,9,20.9376
12:39:43.141,6.625,16.5626
12:39:43.151,2.8125,11.5625
12:39:43.161,0.5625,5.625
12:39:43.172,-3.125,0.1875
12:39:43.182,-5.6875,-5.5
12:39:43.193,-8.6875,-11.75
12:39:43.201,-11.875,-16.6876
12:39:43.211,-14.1876,-22.0626
12:39:43.221,-17.2501,-27.8751
12:39:43.231,-19.0001,-32.6876
12:39:43.241,-21.2501,-37.2501
12:39:43.251,-22.6876,-40.9377
12:39:43.261,-25.6251,-44.3752
12:39:43.274,-25.9376,-46.2502
12:39:43.283,-26.7501,-49.6877
12:39:43.292,-27.1876,-51.5002
12:39:43.301,-27.5001,-52.7502
12:39:43.312,-28.4376,-54.2502
12:39:43.323,-27.9376,-54.7502
12:39:43.332,-29.1251,-55.0627
12:39:43.341,-28.8126,-56.3752
12:39:43.351,-29.1251,-56.5627
12:39:43.361,-29.2501,-56.6877
12:39:43.379,-29.2501,-57.3127
12:39:43.381,-28.5001,-57.1877
12:39:43.393,-28.4376,-59.1877
12:39:43.401,-29.4376,-60.6252
12:39:43.412,-30.1876,-62.7502
12:39:43.422,-32.3751,-64.0002
12:39:43.432,-33.2501,-66.6878
12:39:43.442,-34.0001,-68.1878
12:39:43.451,-32.1251,-67.1878
12:39:43.464,-28.1251,-60.7502
12:39:43.472,-20.0001,-48.4377
12:39:43.482,-10.0625,-31.8126
12:39:43.491,0.625,-12.125
12:39:43.502,9.9375,5.6875
12:39:43.511,18.8751,24.2501
12:39:43.523,26.8751,40.3752
12:39:43.543,33.1876,54.6252
12:39:43.545,38.6251,65.5628
12:39:43.577,40.6877,74.5003
12:39:43.578,41.3127,79.3753
12:39:43.581,40.8127,80.7503
12:39:43.584,39.8752,79.7503
12:39:43.613,37.2501,78.5628
12:39:43.616,34.3126,72.3753
12:39:43.618,30.3751,67.0003
12:39:43.624,25.5001,61.0002
12:39:43.654,21.8751,53.6877
12:39:43.657,18.0626,47.8127
12:39:43.661,14.7501,39.8752
12:39:43.693,10.5,33.6876
12:39:43.694,7.0625,26.7501
12:39:43.697,2.875,20.5626
12:39:43.704,-0.3125,13.6251
12:39:43.704,-3.3125,7.5625
12:39:43.712,-5.25,2.0625
12:39:43.722,-6.625,1
12:39:43.733,-4.75,0.0625
12:39:43.741,-3.625,1.5
12:39:43.754,-1.6875,4.75
12:39:43.761,1.625,7.5625
12:39:43.772,3.75,12.4375
12:39:43.781,6.375,15.1876
12:39:43.791,8,20.0001
12:39:43.801,10.25,22.2501
12:39:43.813,11.25,23.8751
12:39:43.823,11.375,24.5001
12:39:43.832,10.25,23.7501
12:39:43.841,9.75,22.5001
12:39:43.858,8.4375,19.6876
12:39:43.873,6.6875,16.5626
12:39:43.875,3.5,12.4375
12:39:43.884,1.0625,8.375
12:39:43.893,-1.5625,1.75
12:39:43.902,-5.8125,-3.1875
12:39:43.913,-8.625,-10.5
12:39:43.921,-11.5625,-15.0626
12:39:43.932,-14.0626,-21.3751
12:39:43.942,-16.8751,-25.8126
12:39:43.951,-18.5001,-29.7501
12:39:43.961,-20.0626,-34.3126
12:39:43.972,-21.5001,-36.8751
12:39:43.984,-22.0001,-40.5002
12:39:44.000,-23.3751,-42.6252
12:39:44.004,-23.5001,-45.4377
12:39:44.019,-24.6876,-46.7502
12:39:44.034,-25.6876,-49.0002
12:39:44.035,-25.7501,-49.8752
12:39:44.044,-26.1251,-51.6877
12:39:44.055,-25.6251,-52.6252
12:39:44.062,-26.6876,-52.9377
12:39:44.071,-25.9376,-54.1877
12:39:44.081,-25.8126,-53.8752
12:39:44.093,-26.0626,-54.2502
12:39:44.101,-25.5001,-54.6252
12:39:44.111,-26.1876,-54.8127
12:39:44.122,-26.5001,-55.6877
12:39:44.133,-26.2501,-57.0002
12:39:44.141,-27.6251,-58.5627
12:39:44.152,-28.9376,-58.8752
12:39:44.186,-29.8126,-62.0002
12:39:44.188,-30.9376,-65.9378
12:39:44.190,-33.1251,-67.8128
12:39:44.193,-34.7501,-72.0003
12:39:44.202,-36.6876,-74.0003
12:39:44.213,-34.1876,-73.7503
12:39:44.222,-29.7501,-67.5003
12:39:44.237,-19.8751,-54.0627
12:39:44.241,-6.5,-33.9376
12:39:44.269,7.125,-9.625
12:39:44.273,19.3126,12.125
12:39:44.278,30.3751,35.6251
12:39:44.282,40.1877,54.6252
12:39:44.322,47.7502,74.1253
12:39:44.325,54.1877,88.8753
12:39:44.327,59.1252,101.5004
12:39:44.353,61.9377,109.1879
12:39:44.353,63.4377,114.8754
12:39:44.353,63.1877,117.188
12:39:44.355,62.0627,116.3129
12:39:44.363,59.8752,114.5629
12:39:44.393,57.3127,110.6254
12:39:44.398,54.7502,104.7504
12:39:44.398,50.3127,100.2504
12:39:44.404,47.5002,92.8129
12:39:44.415,42.5627,87.2503
12:39:44.422,39.8752,81.1253
12:39:44.432,37.0001,75.0628
12:39:44.442,35.3126,70.8753
12:39:44.453,31.9376,66.6878
12:39:44.462,29.0626,62.2502
12:39:44.471,26.8126,56.6252
12:39:44.482,24.9376,52.7502
12:39:44.492,23.9376,50.0627
12:39:44.506,23.1251,47.7502
12:39:44.512,23.8126,47.2502
12:39:44.522,24.9376,47.8752
12:39:44.532,26.6876,50.1877
12:39:44.544,27.0626,51.8752
12:39:44.553,29.1251,53.8752
12:39:44.562,29.3751,54.5627
12:39:44.571,29.3751,55.3127
12:39:44.581,28.7501,55.0627
12:39:44.591,26.8126,53.1877
12:39:44.602,24.7501,50.3127
12:39:44.612,21.3751,46.0627
12:39:44.621,17.4376,40.6877
12:39:44.633,13.6876,36.1251
12:39:44.643,8.9375,29.5626
12:39:44.651,2,20.2501
12:39:44.661,-8.125,9.25
12:39:44.673,-16.8126,-0.875
12:39:44.682,-20.8751,-8.0625
12:39:44.694,-23.0626,-10.25
12:39:44.701,-24.1251,-13.3126
12:39:44.711,-27.8126,-16.8126
12:39:44.724,-36.3751,-25.5001
12:39:44.732,-42.6877,-31.9376
12:39:44.741,-49.3127,-40.2502
12:39:44.757,-56.2502,-46.8127
12:39:44.770,-60.8752,-53.0002
12:39:44.778,-62.1877,-53.6877
12:39:44.786,-58.8752,-50.6252
12:39:44.797,-58.1877,-45.6252
12:39:44.807,-62.2502,-51.7502
12:39:44.816,-68.0628,-54.0002
12:39:44.826,-75.3128,-60.3127
12:39:44.836,-82.4378,-65.9378
12:39:44.847,-89.8753,-70.1253
12:39:44.856,-99.8129,-78.6878
12:39:44.866,-113.3754,-89.8753
12:39:44.881,-130.3755,-105.5629
12:39:44.887,-153.8131,-125.313
12:39:44.898,-178.3132,-150.0006
12:39:44.906,-190.4382,-162.5006
12:39:44.918,-199.3758,-170.2507
12:39:44.926,-197.1258,-168.4381
12:39:44.937,-194.3757,-165.4381
12:39:44.949,-192.8757,-163.7506
12:39:44.957,-190.7507,-161.2506
12:39:44.968,-189.6257,-159.4381
12:39:44.976,-186.1257,-156.8756
12:39:44.986,-181.1882,-151.9381
12:39:44.999,-177.5007,-148.2506
12:39:45.036,-172.3757,-142.688
12:39:45.038,-166.1881,-136.188
12:39:45.039,-157.1881,-125.3755
12:39:45.046,-145.3755,-112.0629
12:39:45.048,-129.438,-89.9378
12:39:45.078,-112.3754,-65.1878
12:39:45.082,-95.5004,-39.0002
12:39:45.083,-78.2503,-11.25
12:39:45.088,-63.2502,15.5626
12:39:45.115,-47.2502,41.1252
12:39:45.118,-33.2501,65.3753
12:39:45.119,-21.4376,84.5628
12:39:45.155,-11.1875,100.1879
12:39:45.158,-3.5,114.1254
12:39:45.186,2.9375,122.688
12:39:45.206,7.8125,130.3755
12:39:45.217,11.4375,132.7505
12:39:45.217,14.0001,135.1255
12:39:45.217,14.7501,133.188
12:39:45.218,14.3751,131.313
12:39:45.233,12.625,125.438
12:39:45.236,10.625,120.938
12:39:45.239,7.625,115.4379
12:39:45.239,5.625,109.1254
12:39:45.248,2.3125,104.0004
12:39:45.257,-0.625,97.4379
12:39:45.266,-4.8125,90.2503
12:39:45.278,-7.625,84.3753
12:39:45.287,-9.8125,79.7503
12:39:45.298,-10.75,72.7503
12:39:45.319,-13.3751,68.3128
12:39:45.322,-15.4376,62.6252
12:39:45.336,-16.8126,59.9377
12:39:45.339,-17.5001,56.6877
12:39:45.355,-18.5626,53.2502
12:39:45.358,-20.0626,49.6877
12:39:45.368,-21.0626,47.3127
12:39:45.377,-22.7501,45.2502
12:39:45.387,-22.6876,42.6877
12:39:45.397,-22.8751,40.4377
12:39:45.407,-23.3126,38.5626
12:39:45.416,-24.0001,35.8126
12:39:45.427,-23.9376,32.3126
12:39:45.438,-25.4376,27.6876
12:39:45.465,-28.3751,23.2501
12:39:45.468,-30.1876,16.2501
12:39:45.469,-34.2501,10.5
12:39:45.478,-38.6251,2.375
12:39:45.487,-42.1252,-5
12:39:45.497,-44.0627,-11.1875
12:39:45.508,-45.5627,-16.2501
12:39:45.517,-47.3127,-20.1876
12:39:45.528,-50.0627,-27.3126
12:39:45.537,-51.7502,-31.4376
12:39:45.548,-53.6252,-37.3751
12:39:45.560,-55.1252,-40.8752
12:39:45.567,-55.7502,-46.0002
12:39:45.578,-54.5002,-47.1252
12:39:45.586,-52.2502,-50.0627
12:39:45.598,-51.9377,-52.6252
12:39:45.607,-51.9377,-55.8127
12:39:45.618,-51.7502,-57.7502
12:39:45.632,-52.1252,-61.5002
12:39:45.638,-51.9377,-63.3752
12:39:45.646,-53.8127,-68.3128
12:39:45.659,-55.4377,-72.6253
12:39:45.668,-58.5627,-77.5628
12:39:45.705,-60.4377,-84.3128
12:39:45.709,-61.6252,-87.0003
12:39:45.712,-60.0002,-90.7504
12:39:45.714,-58.5002,-90.9379
12:39:45.719,-57.3752,-93.3754
12:39:45.752,-57.6252,-94.4379
12:39:45.756,-58.5627,-94.6254
12:39:45.757,-58.1877,-94.3129
12:39:45.764,-58.9377,-91.7504
12:39:45.773,-58.8752,-90.8128
12:39:45.800,-59.5002,-87.4378
12:39:45.805,-59.1877,-85.7503
12:39:45.807,-60.7502,-82.1878
12:39:45.810,-60.8752,-79.2503
12:39:45.848,-61.8752,-76.4378
12:39:45.849,-60.8752,-74.5003
12:39:45.853,-61.1252,-72.4378
12:39:45.857,-58.4377,-70.0628
12:39:45.858,-55.1252,-65.5003
12:39:45.869,-52.4377,-62.6877
12:39:45.877,-46.7502,-58.3752
12:39:45.887,-43.8752,-52.2502
12:39:45.897,-42.4377,-52.5627
12:39:45.908,-43.5627,-51.4377
12:39:45.916,-40.0627,-47.1877
12:39:45.928,-33.0626,-36.7501
12:39:45.938,-22.3751,-18.8751
12:39:45.949,-8.375,3.625
12:39:45.958,5.1875,27.6876
12:39:45.968,19.1251,53.2502
12:39:45.976,34.4376,78.6878
12:39:45.988,47.5002,103.5629
12:39:45.998,58.1252,122.8755
12:39:46.006,66.1253,140.8755
12:39:46.018,70.9378,152.3131
12:39:46.028,74.0628,161.0006
12:39:46.038,76.1878,167.9381
12:39:46.050,76.5628,170.7507
12:39:46.058,76.7503,173.3757
12:39:46.068,76.4378,172.4382
12:39:46.078,74.9378,170.5632
12:39:46.088,72.0628,168.2506
12:39:46.099,70.3753,162.9381
12:39:46.108,67.5003,159.9381
12:39:46.117,67.0628,155.1256
12:39:46.128,64.8752,151.9381
12:39:46.138,64.1252,149.6256
12:39:46.148,63.4377,145.063
12:39:46.156,63.3752,141.8755
12:39:46.168,62.0627,138.688
12:39:46.176,61.6252,136.0005
12:39:46.186,61.7502,134.5005
12:39:46.198,62.9377,132.7505
12:39:46.208,64.3752,133.3755
12:39:46.217,67.4378,132.8755
12:39:46.228,68.1253,133.7505
12:39:46.237,70.0628,133.938
12:39:46.246,70.5628,132.7505
12:39:46.259,70.2503,131.563
12:39:46.266,70.1878,128.313
12:39:46.278,69.1253,126.938
12:39:46.288,68.1253,123.438
12:39:46.298,66.4378,120.7505
12:39:46.308,64.8752,115.3129
12:39:46.320,61.1252,110.1879
12:39:46.328,56.9377,100.3754
12:39:46.338,51.7502,92.1254
12:39:46.348,46.3752,83.0003
12:39:46.358,39.8127,73.3128
12:39:46.369,34.6251,63.0627
12:39:46.403,30.2501,54.5627
12:39:46.406,26.2501,45.6877
12:39:46.408,21.2501,36.1251
12:39:46.410,15.5626,27.0001
12:39:46.445,9.5,16.7501
12:39:46.447,3.875,7.25
12:39:46.449,-0.875,-2.5625
12:39:46.452,-6.25,-10.4375
12:39:46.458,-10.25,-19.7501
12:39:46.503,-13.8126,-27.5626
12:39:46.504,-16.6251,-33.6876
12:39:46.567,-19.2501,-39.3752
12:39:46.567,-21.1876,-44.5002
12:39:46.569,-23.9376,-49.5002
12:39:46.575,-26.6251,-53.9377
12:39:46.576,-29.5626,-58.1877
12:39:46.576,-31.5001,-62.5002
12:39:46.583,-34.7501,-66.6253
12:39:46.591,-36.9376,-70.8128
12:39:46.603,-38.1876,-72.1253
12:39:46.615,-38.0626,-73.4378
12:39:46.631,-38.0626,-75.0003
12:39:46.633,-39.5627,-76.7503
12:39:46.649,-39.0001,-78.5003
12:39:46.663,-39.8752,-80.0628
12:39:46.665,-39.8127,-82.8753
12:39:46.674,-38.6876,-82.8753
12:39:46.683,-38.3126,-82.6878
12:39:46.693,-35.7501,-85.3128
12:39:46.703,-34.8751,-84.1878
12:39:46.713,-32.8126,-86.3128
12:39:46.743,-31.4376,-87.5003
12:39:46.746,-32.3751,-90.1878
12:39:46.748,-58.6877,-130.5005
12:39:46.754,-64.3127,-137.6255
12:39:46.764,-67.6878,-145.5005
12:39:46.773,-68.5003,-148.6881
12:39:46.783,-66.0003,-147.5006
12:39:46.793,-58.8127,-140.938
12:39:46.803,-45.3127,-120.563
12:39:46.814,-24.7501,-94.3129
12:39:46.823,-4.125,-63.2502
12:39:46.833,12.1875,-36.0626
12:39:46.843,25.4376,-12.375
12:39:46.853,35.5001,8.875
12:39:46.863,42.1877,27.1876
12:39:46.875,49.1877,42.2502
12:39:46.883,54.4377,54.9377
12:39:46.893,55.8752,64.5002
12:39:46.903,54.6877,68.7503
12:39:46.915,50.8752,70.6878
12:39:46.923,46.1252,70.6878
12:39:46.937,41.3752,67.1253
12:39:46.942,36.8126,64.6877
12:39:46.953,33.6876,61.7502
12:39:46.963,32.0001,59.8752
12:39:46.974,30.4376,58.6252
12:39:46.983,28.5626,55.5627
12:39:46.993,28.1251,53.3752
12:39:47.003,25.4376,51.0002
12:39:47.014,22.6251,46.3127
12:39:47.023,25.0626,46.7502
12:39:47.033,24.3126,44.5002
12:39:47.043,24.3126,42.5627
12:39:47.053,25.6876,44.1252
12:39:47.065,27.3751,45.6877
12:39:47.073,27.6251,48.1877
12:39:47.084,28.6876,50.2502
12:39:47.093,28.8126,51.8127
12:39:47.103,28.9376,55.0002
12:39:47.113,31.5001,56.6877
12:39:47.123,31.8751,60.5627
12:39:47.153,33.6251,62.7502
12:39:47.155,32.6876,65.3127
12:39:47.158,34.1251,66.0628
12:39:47.163,34.3126,67.5003
12:39:47.196,34.0626,66.6878
12:39:47.199,32.7501,64.7502
12:39:47.201,30.3126,62.1252
12:39:47.203,27.1251,56.6877
12:39:47.243,24.1876,53.2502
12:39:47.245,20.9376,46.6877
12:39:47.248,18.1251,42.7502
12:39:47.274,15.0626,36.1251
12:39:47.274,11.625,31.0626
12:39:47.276,8.0625,24.1251
12:39:47.278,3.375,17.3126
12:39:47.283,1.375,12.875
12:39:47.311,-1.0625,7.25
12:39:47.313,-3.1875,2.5
12:39:47.318,-5,-0.875
12:39:47.323,-6.75,-4.75
12:39:47.334,-6.875,-6.5
12:39:47.343,-6.9375,-9.4375
12:39:47.353,-7.375,-11
12:39:47.363,-7.75,-13.0625
12:39:47.373,-8.0625,-14.0001
12:39:47.383,-7.625,-15.7501
12:39:47.393,-7.125,-17.5626
12:39:47.403,-6.4375,-19.1251
12:39:47.413,-6.625,-19.8126
12:39:47.423,-6.75,-21.5001
12:39:47.433,-6.25,-23.3751
12:39:47.443,-7.0625,-26.3126
12:39:47.453,-8.8125,-28.5001
12:39:47.463,-10.25,-33.1876
12:39:47.473,-12.6875,-36.1251
12:39:47.483,-13.0625,-40.1877
12:39:47.493,-15.5001,-43.1252
12:39:47.504,-15.8751,-47.2502
12:39:47.514,-18.7501,-51.5002
12:39:47.523,-21.7501,-57.5002
12:39:47.533,-25.1876,-62.8127
12:39:47.543,-29.0626,-69.6878
12:39:47.553,-31.0001,-73.5628
12:39:47.566,-31.6251,-73.5628
12:39:47.574,-25.1251,-67.8753
12:39:47.583,-14.6251,-52.6252
12:39:47.593,-1.9375,-33.5626
12:39:47.603,10.4375,-13.8126
12:39:47.613,20.8751,5.5
12:39:47.625,30.0001,22.3751
12:39:47.633,38.9376,37.3751
12:39:47.643,47.0627,50.6877
12:39:47.655,52.8127,61.6877
12:39:47.664,57.3127,69.2503
12:39:47.673,59.3127,73.7503
12:39:47.683,59.1252,74.5628
12:39:47.693,58.5627,73.5628
12:39:47.705,55.3752,71.0628
12:39:47.714,52.0002,63.3127
12:39:47.723,47.6877,57.1877
12:39:47.733,41.6877,50.3127
12:39:47.743,35.8751,41.6252
12:39:47.753,31.0626,34.7501
12:39:47.763,26.4376,27.1251
12:39:47.773,21.1876,20.3751
12:39:47.784,16.9376,12.75
12:39:47.793,13.3126,6.1875
12:39:47.803,9.75,-0.3125
12:39:47.824,6.5,-5.3125
12:39:47.827,4.75,-10.375
12:39:47.835,2.375,-13.1876
12:39:47.843,2.25,-15.7501
12:39:47.859,0.625,-17.1251
12:39:47.866,1,-16.4376
12:39:47.873,3,-15.3751
12:39:47.884,6.375,-10.5625
12:39:47.893,12.8125,-5
12:39:47.902,20.4376,1
12:39:47.913,25.6876,7.25
12:39:47.949,29.4376,8.875
12:39:47.953,30.5626,8.875
12:39:47.987,28.7501,6.1875
12:39:48.025,24.9376,-0.125
12:39:48.028,18.7501,-7
12:39:48.031,12.1875,-16.3751
12:39:48.032,7,-25.1876
12:39:48.032,-1.9375,-35.8126
12:39:48.060,-7.375,-46.0002
12:39:48.062,-12.5,-55.5002
12:39:48.065,-15.2501,-60.3752
12:39:48.068,-16.0626,-65.8753
12:39:48.094,-16.9376,-67.7503
12:39:48.097,-16.8751,-72.4378
12:39:48.099,-19.5626,-76.0628
12:39:48.108,-21.3126,-80.3753
12:39:48.118,-25.1876,-84.0003
12:39:48.128,-29.0626,-88.0628
12:39:48.138,-32.6876,-92.2504
12:39:48.148,-35.1876,-94.3129
12:39:48.158,-35.7501,-95.3129
12:39:48.168,-37.8751,-95.1879
12:39:48.178,-39.0001,-96.2504
12:39:48.188,-40.3127,-96.8754
12:39:48.198,-55.2502,-105.7504
12:39:48.208,-55.7502,-104.1254
12:39:48.218,-54.1877,-102.4379
12:39:48.228,-53.1877,-99.4379
12:39:48.238,-51.8752,-98.2504
12:39:48.249,-52.8752,-96.9379
12:39:48.259,-53.5002,-96.8754
12:39:48.268,-50.5002,-93.3754
12:39:48.278,-48.8127,-92.1879
12:39:48.288,-47.7502,-89.8128
12:39:48.298,-50.0627,-90.1878
12:39:48.309,-51.7502,-91.9379
12:39:48.318,-52.3752,-91.7504
12:39:48.328,-54.3752,-92.9379
12:39:48.338,-56.3752,-95.3129
12:39:48.348,-58.8752,-97.4379
12:39:48.358,-58.0002,-97.1879
12:39:48.368,-51.5627,-88.1253
12:39:48.378,-40.1877,-72.0628
12:39:48.388,-24.5001,-49.8752
12:39:48.398,-7,-22.8126
12:39:48.408,7.9375,3.6875
12:39:48.418,23.9376,29.3751
12:39:48.428,36.6876,53.5002
12:39:48.438,47.8752,74.6253
12:39:48.449,57.1252,93.5629
12:39:48.458,64.1877,107.6254
12:39:48.469,69.7503,119.6255
12:39:48.478,72.9378,128.8755
12:39:48.488,75.3753,132.8755
12:39:48.498,76.1253,136.2505
12:39:48.509,75.6253,136.5005
12:39:48.518,74.7503,135.188
12:39:48.528,70.8753,131.2505
12:39:48.541,69.8128,127.0005
12:39:48.548,67.6253,124.063
12:39:48.559,65.0627,119.8755
12:39:48.569,62.0002,114.8129
12:39:48.578,58.4377,108.6879
12:39:48.588,55.1877,104.9379
12:39:48.598,52.9377,98.8129
12:39:48.610,50.7502,93.3129
12:39:48.618,48.0627,87.8128
12:39:48.628,46.9377,84.5628
12:39:48.671,45.9377,81.5628
12:39:48.672,45.5002,79.3128
12:39:48.675,46.5002,78.0003
12:39:48.677,46.5002,77.5003
12:39:48.679,48.6877,77.7503
12:39:48.708,49.6252,78.5628
12:39:48.710,52.0627,79.4378
12:39:48.713,52.8127,79.2503
12:39:48.744,51.1252,79.0628
12:39:48.746,50.8127,76.8753
12:39:48.747,50.1252,74.1253
12:39:48.753,48.4377,72.3128
12:39:48.758,46.6877,68.1878
12:39:48.790,44.0002,64.3127
12:39:48.794,41.0627,57.6877
12:39:48.796,36.0626,51.7502
12:39:48.798,31.7501,43.5627
12:39:48.817,26.8751,36.0001
12:39:48.819,21.3126,27.2501
12:39:48.833,16.5626,19.0001
12:39:48.844,11.9375,9.5625
12:39:48.853,6.6875,3.125
12:39:48.863,3.125,-6.1875
12:39:48.873,0.8125,-11.8125
12:39:48.883,-1.3125,-17.6251
12:39:48.893,-1.5,-21.9376
12:39:48.903,-2.3125,-27.0001
12:39:48.913,-4.5,-32.3126
12:39:48.923,-6.0625,-37.3751
12:39:48.933,-9.0625,-41.6877
12:39:48.944,-11.6875,-47.7502
12:39:48.954,-13.8751,-52.0002
12:39:48.964,-15.3126,-56.6252
12:39:48.974,-16.4376,-58.8752
12:39:48.985,-17.2501,-62.8752
12:39:48.993,-18.6251,-67.1253
12:39:49.003,-19.7501,-70.3753
12:39:49.013,-21.5001,-72.0003
12:39:49.023,-22.4376,-75.3128
12:39:49.033,-23.5001,-78.8753
12:39:49.043,-24.8126,-80.3128
12:39:49.053,-26.5626,-83.6253
12:39:49.063,-29.0001,-86.0628
12:39:49.073,-32.6251,-90.5629
12:39:49.083,-35.6251,-94.5004
12:39:49.093,-37.6251,-98.3129
12:39:49.103,-38.3751,-100.3129
12:39:49.113,-38.6251,-101.9379
12:39:49.123,-38.4376,-102.8754
12:39:49.143,-36.5626,-103.0629
12:39:49.149,-35.3751,-103.5004
12:39:49.164,-34.3751,-104.6879
12:39:49.169,-35.1876,-107.8754
12:39:49.175,-37.1251,-109.8754
12:39:49.184,-40.5002,-115.3129
12:39:49.193,-44.1252,-121.063
12:39:49.203,-49.3752,-128.438
12:39:49.220,-55.2502,-135.438
12:39:49.223,-60.6252,-140.5005
12:39:49.233,-60.6252,-143.6255
12:39:49.243,-52.3127,-133.5005
12:39:49.253,-37.8751,-113.2504
12:39:49.269,-16.6251,-83.8128
12:39:49.305,5.5625,-50.3752
12:39:49.307,23.8126,-21.4376
12:39:49.322,38.8126,5.3125
12:39:49.325,50.1877,27.7501
12:39:49.328,58.7502,46.8752
12:39:49.328,64.4377,60.1252
12:39:49.333,67.6878,71.7503
12:39:49.363,67.0003,77.6253
12:39:49.365,66.1878,82.5628
12:39:49.368,63.8127,83.3753
12:39:49.375,61.5002,83.3128
12:39:49.401,56.7502,81.1253
12:39:49.404,51.7502,77.1878
12:39:49.406,46.8752,74.0003
12:39:49.413,42.6252,69.3128
12:39:49.439,39.0626,66.8128
12:39:49.442,37.1251,63.5002
12:39:49.444,35.6251,62.5002
12:39:49.471,33.5626,60.4377
12:39:49.473,31.7501,57.0002
12:39:49.476,28.8126,54.4377
12:39:49.505,26.1251,50.5002
12:39:49.509,24.8126,48.5002
12:39:49.509,22.4376,44.5002
12:39:49.518,21.2501,44.3127
12:39:49.523,24.4376,46.7502
12:39:49.533,27.8126,49.4377
12:39:49.543,31.0626,53.8127
12:39:49.553,33.5626,57.9377
12:39:49.563,36.1251,60.2502
12:39:49.573,38.9376,65.8753
12:39:49.583,40.6877,68.5628
12:39:49.594,42.5627,70.9378
12:39:49.603,44.4377,74.4378
12:39:49.614,45.3752,76.8753
12:39:49.623,46.2502,78.6253
12:39:49.633,48.1877,78.8128
12:39:49.644,48.8752,80.0003
12:39:49.654,49.0627,79.1878
12:39:49.664,45.3127,75.1878
12:39:49.674,41.5002,70.2503
12:39:49.685,41.3127,67.6253
12:39:49.693,43.4377,68.6253
12:39:49.703,44.4377,67.6878
12:39:49.713,42.6877,64.2502
12:39:49.723,39.6252,58.5627
12:39:49.733,35.4376,53.8127
12:39:49.743,34.0626,49.0002
12:39:49.753,30.5001,44.0002
12:39:49.763,26.4376,37.6876
12:39:49.773,24.3126,32.3751
12:39:49.783,21.3126,28.9376
12:39:49.793,20.0001,23.1251
12:39:49.803,20.5626,22.8126
12:39:49.813,22.0626,21.9376
12:39:49.823,22.3126,22.2501
12:39:49.833,19.1876,18.2501
12:39:49.843,18.6251,16.5001
12:39:49.853,19.8126,16.4376
12:39:49.863,18.8126,14.6876
12:39:49.873,13.2501,9.9375
12:39:49.883,65.8753,26.3751
12:39:49.893,49.5002,43.6252
12:39:49.903,42.0002,38.8751
12:39:49.913,24.2501,19.5001
12:39:49.923,15.6876,9.0625
12:39:49.935,12.875,4.3125
12:39:49.945,11.9375,2.25
12:39:49.953,11.8125,-0.75
12:39:49.969,9.75,-2.5
12:39:49.974,8.6875,-5.9375
12:39:49.983,45.8127,25.9376
12:39:49.993,60.9377,40.8127
12:39:50.003,82.1878,61.6252
12:39:50.013,89.3128,68.8128
12:39:50.023,87.6878,66.7503
12:39:50.033,78.0003,56.8752
12:39:50.043,69.8128,46.1252
12:39:50.053,68.1878,42.3752
12:39:50.064,66.5628,38.0626
12:39:50.094,68.0628,38.2501
12:39:50.096,70.1878,37.3126
12:39:50.099,73.5003,37.9376
12:39:50.104,73.8128,36.0001
12:39:50.138,71.0628,31.3751
12:39:50.142,68.2503,25.9376
12:39:50.144,67.1253,23.0001
12:39:50.145,71.0003,26.8126
12:39:50.153,80.0628,38.0001
12:39:50.183,92.1879,55.7502
12:39:50.185,104.1254,76.1253
12:39:50.188,117.0004,96.4379
12:39:50.195,127.813,116.5004
12:39:50.224,137.1255,134.063
12:39:50.227,146.2505,149.8131
12:39:50.229,155.2506,164.9381
12:39:50.235,161.5006,178.1257
12:39:50.250,163.5631,184.9382
12:39:50.253,164.9381,190.1882
12:39:50.263,164.5631,191.6257
12:39:50.273,161.8756,189.8757
12:39:50.284,159.9381,188.5632
12:39:50.293,157.3756,186.0007
12:39:50.303,154.0006,180.8132
12:39:50.313,151.0631,174.8757
12:39:50.323,148.7506,171.1882
12:39:50.333,149.3131,168.3131
12:39:50.343,150.4381,168.1256
12:39:50.353,152.3131,166.6881
12:39:50.363,150.1256,164.5006
12:39:50.374,145.188,156.3131
12:39:50.384,139.0005,146.688
12:39:50.395,133.1255,138.813
12:39:50.403,127.813,130.1255
12:39:50.413,123.6255,124.563
12:39:50.423,122.563,121.938
12:39:50.433,123.1255,121.688
12:39:50.450,125.188,123.313
12:39:50.457,127.8755,124.688
12:39:50.473,129.0005,126.2505
12:39:50.474,127.063,123.5005
12:39:50.489,123.813,120.063
12:39:50.496,119.438,116.1879
12:39:50.503,115.2504,111.6879
12:39:50.513,112.7504,107.5629
12:39:50.523,110.4379,104.8129
12:39:50.533,109.6254,102.9379
12:39:50.543,107.2504,98.6254
12:39:50.553,104.1254,94.4379
12:39:50.591,99.6879,87.0003
12:39:50.593,94.0629,79.8753
12:39:50.608,88.6878,71.9378
12:39:50.611,82.6878,64.8127
12:39:50.625,77.1878,57.1252
12:39:50.628,72.8753,48.8127
12:39:50.630,68.5628,42.0002
12:39:50.634,64.9377,36.1876
12:39:50.643,61.1252,29.6876
12:39:50.653,58.3752,24.5626
12:39:50.663,55.5627,18.9376
12:39:50.673,53.3752,14.4376
12:39:50.684,50.1877,8.5625
12:39:50.693,46.6252,3.25
12:39:50.703,43.4377,-1.8125
12:39:50.717,41.4377,-5.125
12:39:50.726,38.7501,-9.875
12:39:50.733,34.5001,-16.1251
12:39:50.743,29.1876,-21.9376
12:39:50.753,25.5001,-26.3751
12:39:50.764,23.0001,-29.9376
12:39:50.773,22.2501,-32.3751
12:39:50.783,21.0626,-33.3751
12:39:50.793,19.7501,-35.6251
12:39:50.804,18.4376,-38.5001
12:39:50.818,17.2501,-41.0002
12:39:50.825,16.8751,-42.5627
12:39:50.833,15.4376,-44.5002
12:39:50.843,13.8126,-46.0627
12:39:50.853,13.8126,-48.5627
12:39:50.877,13,-49.6252
12:39:50.879,13.2501,-51.3127
12:39:50.909,12.4375,-52.6877
12:39:50.912,10.6875,-55.0627
12:39:50.914,8.625,-58.0627
12:39:50.917,5.0625,-62.3127
12:39:50.923,2.4375,-66.2503
12:39:50.956,1.375,-69.1253
12:39:50.961,-0.8125,-71.9378
12:39:50.961,-0.9375,-74.0003
12:39:50.993,-2.75,-75.0628
12:39:50.994,-3.75,-78.7503
12:39:50.998,-4.4375,-79.0628
12:39:51.002,-4.25,-81.9378
12:39:51.005,-4.3125,-81.9378
12:39:51.037,-4,-84.7503
12:39:51.039,-5.5,-86.2503
12:39:51.042,-6.875,-89.6878
12:39:51.044,-9.8125,-93.1254
12:39:51.054,-10.5625,-95.9379
12:39:51.063,-9.125,-92.7504
12:39:51.073,-0.75,-81.8753
12:39:51.084,13.6876,-63.0002
12:39:51.094,27.0626,-39.0627
12:39:51.108,41.4377,-16.1876
12:39:51.113,53.1252,6.1875
12:39:51.123,64.0002,25.1251
12:39:51.133,72.6878,43.6877
12:39:51.143,78.5628,56.1252
12:39:51.153,83.7503,68.8128
12:39:51.164,86.8753,77.1878
12:39:51.173,88.0003,82.3128
12:39:51.183,88.3753,85.3753
12:39:51.195,89.3753,87.0628
12:39:51.203,86.6878,86.8753
12:39:51.213,84.5003,83.9378
12:39:51.224,81.2503,78.3128
12:39:51.234,76.9378,73.1878
12:39:51.243,72.8753,67.5003
12:39:51.254,68.8753,61.0002
12:39:51.264,64.7502,54.0002
12:39:51.273,60.8127,48.0627
12:39:51.283,56.6877,41.1877
12:39:51.294,52.0627,35.4376
12:39:51.305,46.7502,26.8126
12:39:51.313,42.0002,19.5001
12:39:51.323,37.8751,13.2501
12:39:51.334,37.5626,10.875
12:39:51.343,36.4376,8.8125
12:39:51.353,36.0001,7.1875
12:39:51.365,35.5626,6.875
12:39:51.374,36.6251,8.5625
12:39:51.383,36.8126,9.8125
12:39:51.394,37.8126,12.1875
12:39:51.404,38.9376,14.1876
12:39:51.413,39.1877,16.0001
12:39:51.424,40.0627,17.8751
12:39:51.436,40.2502,17.5001
12:39:51.444,38.8751,17.4376
12:39:51.453,38.5001,18.1251
12:39:51.469,37.1251,15.8126
12:39:51.473,34.0001,11.4375
12:39:51.485,30.1876,7.25
12:39:51.495,26.1876,3.0625
12:39:51.503,23.1876,-2.25
12:39:51.514,19.8751,-7.9375
12:39:51.524,16.0001,-12.0625
12:39:51.533,13.3751,-18.2501
12:39:51.546,9.25,-23.7501
12:39:51.554,5.5625,-27.5001
12:39:51.563,2.6875,-33.3751
12:39:51.573,-0.3125,-39.0001
12:39:51.606,-4.4375,-44.5627
12:39:51.609,-8.375,-49.0627
12:39:51.612,-11.4375,-54.5002
12:39:51.614,-11.375,-57.0002
12:39:51.652,-13.5001,-60.0002
12:39:51.655,-15.1251,-62.3752
12:39:51.657,-16.6251,-64.7502
12:39:51.659,-17.3126,-66.6253
12:39:51.665,-19.1876,-68.4378
12:39:51.706,-19.7501,-68.5628
12:39:51.707,-20.0626,-71.9378
12:39:51.710,-21.6251,-72.5628
12:39:51.713,-22.6251,-74.0003
12:39:51.714,-22.8126,-75.0003
12:39:51.723,-23.5626,-76.4378
12:39:51.765,-23.6876,-76.9378
12:39:51.767,-24.5626,-77.3753
12:39:51.782,-24.5001,-77.8753
12:39:51.787,-25.1876,-78.3128
12:39:51.799,-25.8751,-79.5003
12:39:51.801,-26.7501,-79.9378
12:39:51.804,-28.6251,-82.7503
12:39:51.804,-29.2501,-84.3128
12:39:51.814,-30.9376,-85.8128
12:39:51.824,-31.7501,-88.7503
12:39:51.835,-33.5626,-89.8753
12:39:51.867,-35.1251,-90.8754
12:39:51.869,-36.3126,-94.2504
12:39:51.872,-37.2501,-94.6879
12:39:51.874,-38.0626,-96.5629
12:39:51.893,-38.0626,-97.3129
12:39:51.898,-39.6877,-98.4379
12:39:51.910,-40.0002,-101.0004
12:39:51.918,-41.1252,-102.0004
12:39:51.926,-43.4377,-105.8754
12:39:51.934,-44.5627,-108.4379
12:39:51.945,-46.1877,-110.1254
12:39:51.957,-46.0627,-111.3754
12:39:51.964,-43.7502,-108.5629
12:39:51.974,-36.0001,-97.7504
12:39:51.983,-22.3751,-77.8753
12:39:51.994,-6.5625,-52.7502
12:39:52.003,8.3125,-26.3126
12:39:52.014,21.2501,-5.1875
12:39:52.023,32.0001,14.8751
12:39:52.034,40.1252,30.6251
12:39:52.043,46.6252,44.3752
12:39:52.054,51.8127,56.6252
12:39:52.066,54.5002,64.3752
12:39:52.073,56.3127,71.5003
12:39:52.084,56.4377,73.2503
12:39:52.094,54.6877,73.7503
12:39:52.104,52.6877,73.1253
12:39:52.116,48.8752,69.6878
12:39:52.124,44.6252,64.6252
12:39:52.134,40.4377,58.3127
12:39:52.144,35.9376,53.6877
12:39:52.154,32.8126,46.6252
12:39:52.164,29.5626,41.2502
12:39:52.177,25.0626,35.7501
12:39:52.184,21.3751,29.5626
12:39:52.193,17.1876,23.0001
12:39:52.204,12.5625,15.8126
12:39:52.214,8.5,9
12:39:52.224,5,3.625
12:39:52.237,3.125,-0.5625
12:39:52.265,2.75,-3
12:39:52.268,2.75,-1.9375
12:39:52.270,5.0625,0.25
12:39:52.274,8.3125,2.9375
12:39:52.306,11.125,8.375
12:39:52.309,14.1251,13
12:39:52.313,17.2501,17.6251
12:39:52.317,18.8751,21.2501
12:39:52.352,21.0001,25.0626
12:39:52.354,20.8751,25.1876
12:39:52.354,20.6251,25.6876
12:39:52.388,20.0001,25.6876
12:39:52.389,18.6876,23.5626
12:39:52.392,16.6876,21.0626
12:39:52.398,14.3126,17.5001
12:39:52.401,11.3125,15.3751
12:39:52.409,9.6875,9.9375
12:39:52.414,6.4375,5.3125
12:39:52.428,3.3125,0.8125
12:39:52.434,-0.25,-5.5
12:39:52.446,-4.875,-11.9375
12:39:52.454,-9,-16.9376
12:39:52.464,-11.6875,-22.5626
12:39:52.474,-14.3751,-27.5626
12:39:52.484,-16.9376,-31.4376
12:39:52.497,-19.5626,-35.3126
12:39:52.504,-21.0001,-39.9377
12:39:52.514,-22.7501,-43.1877
12:39:52.524,-24.0626,-46.7502
12:39:52.534,-24.9376,-47.1252
12:39:52.545,-25.6876,-49.4377
12:39:52.554,-25.9376,-51.8127
12:39:52.564,-26.6251,-53.9377
12:39:52.574,-27.9376,-54.7502
12:39:52.584,-28.5626,-56.6252
12:39:52.594,-29.2501,-58.9377
12:39:52.604,-29.4376,-58.5627
12:39:52.614,-29.3126,-59.8127
12:39:52.624,-30.0001,-60.9377
12:39:52.634,-30.9376,-62.1252
12:39:52.644,-30.3751,-62.5627
12:39:52.654,-30.5626,-62.5002
12:39:52.664,-29.6876,-63.0627
12:39:52.674,-30.3751,-63.7502
12:39:52.685,-31.5001,-66.0003
12:39:52.695,-32.1876,-67.1878
12:39:52.704,-34.1251,-68.8753
12:39:52.714,-35.3751,-72.3128
12:39:52.724,-35.6876,-74.3128
12:39:52.734,-37.1251,-75.6253
12:39:52.744,-34.8126,-74.4378
12:39:52.754,-28.8126,-65.9378
12:39:52.764,-18.1251,-51.1252
12:39:52.774,-3.5,-29.6251
12:39:52.785,9.5,-6.6875
12:39:52.794,22.0626,12.3125
12:39:52.803,32.3751,31.1876
12:39:52.814,40.5627,47.5627
12:39:52.824,46.2502,59.0627
12:39:52.839,51.2502,69.9378
12:39:52.849,55.6252,78.5628
12:39:52.860,56.6252,83.8753
12:39:52.870,57.4377,86.7503
12:39:52.879,56.1252,88.0003
12:39:52.889,54.5002,85.8753
12:39:52.900,52.1252,83.2503
12:39:52.909,48.3127,80.2503
12:39:52.919,45.6252,74.2503
12:39:52.929,41.3127,70.0628
12:39:52.939,37.1876,61.6877
12:39:52.976,32.5001,54.9377
12:39:52.980,26.7501,47.1252
12:39:52.980,22.2501,39.1876
12:39:52.983,17.5001,31.9376
12:39:52.990,13,23.3126
12:39:53.024,6.8125,13.8751
12:39:53.027,3.125,8.3125
12:39:53.029,1.1875,3.6875
12:39:53.034,-0.1875,2.3125
12:39:53.066,1.125,2.4375
12:39:53.069,2.4375,5.625
12:39:53.107,5.5,8.1875
12:39:53.109,8.375,13.0625
12:39:53.113,11.9375,16.9376
12:39:53.119,13.7501,21.1251
12:39:53.119,16.1876,24.8751
12:39:53.119,17.1251,26.8751
12:39:53.143,17.6251,28.3126
12:39:53.146,18.0626,27.6876
12:39:53.149,17.0626,26.6251
12:39:53.154,15.2501,23.8126
12:39:53.164,13.8751,21.5626
12:39:53.178,11.625,18.3126
12:39:53.195,9.4375,15.1876
12:39:53.201,8.3125,11.375
12:39:53.213,5.0625,7.125
12:39:53.215,3,1.9375
12:39:53.225,-1.375,-3.1875
12:39:53.237,-5.125,-9.375
12:39:53.244,-7.6875,-15.1876
12:39:53.254,-10.9375,-19.3126
12:39:53.264,-12.8125,-24.1876
12:39:53.275,-15.0001,-28.8751
12:39:53.284,-18.1251,-34.9376
12:39:53.294,-20.3126,-38.3126
12:39:53.304,-21.5001,-41.6877
12:39:53.314,-22.3751,-43.8752
12:39:53.324,-23.3751,-45.5002
12:39:53.334,-23.6876,-48.0002
12:39:53.344,-25.5001,-50.1877
12:39:53.354,-26.4376,-52.5627
12:39:53.365,-28.7501,-54.8752
12:39:53.374,-30.1876,-57.0627
12:39:53.384,-32.3751,-61.0002
12:39:53.394,-33.5001,-62.6252
12:39:53.405,-35.1251,-64.7502
12:39:53.414,-35.5626,-66.3128
12:39:53.424,-35.6251,-66.6878
12:39:53.434,-36.9376,-67.3128
12:39:53.445,-37.3126,-70.1253
12:39:53.454,-38.9376,-71.8753
12:39:53.464,-40.3752,-72.6878
12:39:53.474,-41.6252,-76.5628
12:39:53.484,-43.1877,-78.2503
12:39:53.494,-44.3752,-79.3128
12:39:53.504,-43.9377,-81.2503
12:39:53.514,-35.4376,-71.1878
12:39:53.525,-28.3126,-61.3127
12:39:53.536,-14.9376,-43.2502
12:39:53.544,1.125,-18.7501
12:39:53.558,15.7501,6.3125
12:39:53.564,28.3126,27.9376
12:39:53.575,38.7501,48.0002
12:39:53.584,47.6252,64.0002
12:39:53.594,55.3752,79.1878
12:39:53.604,61.0002,92.0004
12:39:53.614,65.9378,101.1879
12:39:53.624,68.2503,109.1879
12:39:53.634,69.3128,114.4379
12:39:53.644,69.8128,115.3754
12:39:53.654,67.8753,116.3129
12:39:53.666,65.2502,113.0004
12:39:53.674,63.4377,109.5629
12:39:53.685,59.5627,105.1879
12:39:53.694,55.6877,98.4379
12:39:53.706,51.3127,93.0004
12:39:53.714,48.6252,87.2503
12:39:53.724,44.8752,82.0003
12:39:53.734,42.4377,76.7503
12:39:53.744,38.5001,71.3128
12:39:53.754,35.4376,64.8752
12:39:53.764,31.6876,59.4377
12:39:53.774,29.0001,55.1252
12:39:53.814,27.6251,50.1252
12:39:53.815,26.3751,48.8752
12:39:53.820,27.1876,47.5627
12:39:53.821,27.6251,49.5627
12:39:53.825,29.6876,50.8127
12:39:53.858,31.6251,53.2502
12:39:53.860,34.3126,57.3752
12:39:53.863,36.0626,60.0627
12:39:53.868,37.3126,63.3127
12:39:53.883,38.4376,64.6877
12:39:53.885,38.6876,65.3128
12:39:53.924,38.5626,64.4377
12:39:53.925,36.7501,63.5627
12:39:53.928,35.8126,61.6877
12:39:53.933,33.2501,59.0002
12:39:53.934,31.3751,54.9377
12:39:53.965,28.3751,50.6252
12:39:53.966,24.8126,46.1252
12:39:53.969,22.0626,39.3127
12:39:53.974,17.6876,33.7501
12:39:53.985,15.3126,28.7501
12:39:53.994,11.75,23.1876
12:39:54.004,9.0625,18.4376
12:39:54.014,6.4375,12.25
12:39:54.025,3.5625,7.375
12:39:54.034,0.4375,2.375
12:39:54.044,-1.4375,-1.3125
12:39:54.054,-4.375,-6.8125
12:39:54.064,-6.625,-10.8125
12:39:54.074,-8.3125,-14.4376
12:39:54.084,-9.625,-17.0626
12:39:54.094,-10.6875,-20.2501
12:39:54.105,-12.625,-23.2501
12:39:54.114,-13.8126,-25.8751
12:39:54.124,-15.3751,-28.0001
12:39:54.134,-15.8751,-29.0626
12:39:54.145,-16.6876,-31.8126
12:39:54.154,-17.9376,-33.8126
12:39:54.164,-19.0626,-35.2501
12:39:54.174,-20.3751,-36.8126
12:39:54.184,-21.0001,-38.6876
12:39:54.194,-21.6251,-41.1252
12:39:54.204,-22.0626,-41.5627
12:39:54.214,-23.5001,-44.0627
12:39:54.225,-23.4376,-44.9377
12:39:54.234,-23.6251,-45.3127
12:39:54.244,-24.2501,-47.4377
12:39:54.254,-24.6251,-48.3752
12:39:54.264,-26.3751,-51.0002
12:39:54.274,-27.5626,-54.1252
12:39:54.284,-28.4376,-55.9377
12:39:54.294,-30.6876,-57.6877
12:39:54.306,-31.0001,-59.5627
12:39:54.314,-28.0001,-56.9377
12:39:54.324,-21.4376,-47.8127
12:39:54.334,-9,-30.1251
12:39:54.345,5.125,-6.375
12:39:54.363,18.8751,15.1251
12:39:54.369,31.2501,36.5001
12:39:54.385,41.7502,56.2502
12:39:54.385,50.1252,73.0628
12:39:54.394,57.9377,88.2503
12:39:54.423,64.1877,101.2504
12:39:54.425,68.0628,110.6879
12:39:54.428,70.6253,118.438
12:39:54.434,71.7503,121.813
12:39:54.444,72.3753,124.563
12:39:54.456,70.0003,125.063
12:39:54.465,67.5628,120.938
12:39:54.493,65.5002,117.6255
12:39:54.495,61.3127,113.0004
12:39:54.528,57.8127,107.0629
12:39:54.531,54.0002,101.8129
12:39:54.534,50.7502,96.1254
12:39:54.540,46.6877,91.8754
12:39:54.540,44.4377,86.0003
12:39:54.553,40.6877,80.9378
12:39:54.556,37.6876,74.8128
12:39:54.583,34.7501,69.4378
12:39:54.585,33.1251,65.5628
12:39:54.588,31.7501,63.2502
12:39:54.594,31.4376,62.6252
12:39:54.609,32.2501,61.1877
12:39:54.615,32.0626,62.1877
12:39:54.640,33.8126,63.5627
12:39:54.642,34.3751,65.3127
12:39:54.646,36.6876,67.8128
12:39:54.654,37.7501,69.6878
12:39:54.664,39.1877,72.1878
12:39:54.674,39.2502,72.5003
12:39:54.687,39.7502,72.3753
12:39:54.695,38.6251,72.2503
12:39:54.704,37.7501,70.1253
12:39:54.718,35.8126,67.8753
12:39:54.726,34.6876,64.4377
12:39:54.734,32.0626,61.1877
12:39:54.744,29.8751,56.7502
12:39:54.754,27.0001,51.5002
12:39:54.764,24.8126,47.6877
12:39:54.774,21.6251,42.8127
12:39:54.784,18.1251,37.0626
12:39:54.794,15.3751,31.3751
12:39:54.804,11.0625,25.6876
12:39:54.814,9.375,20.6251
12:39:54.824,6.5625,16.3126
12:39:54.835,5.375,11.4375
12:39:54.845,3.0625,8.75
12:39:54.855,1.875,4.9375
12:39:54.864,-0.4375,1.3125
12:39:54.874,-0.6875,-1.5625
12:39:54.884,-1.625,-3.375
12:39:54.894,-2.0625,-6.0625
12:39:54.904,-3.625,-8.6875
12:39:54.914,-4.0625,-11.375
12:39:54.924,-6.125,-12.75
12:39:54.934,-6,-14.7501
12:39:54.946,-7.375,-16.7501
12:39:54.954,-7,-19.3126
12:39:54.964,-8.75,-20.2501
12:39:54.974,-9.625,-22.6251
12:39:54.985,-11.4375,-24.5001
12:39:54.994,-11.625,-26.8126
12:39:55.004,-12.75,-28.6251
12:39:55.016,-12.6875,-29.8751
12:39:55.024,-15.1251,-31.6251
12:39:55.034,-15.6251,-34.6251
12:39:55.044,-17.0626,-36.3126
12:39:55.054,-18.1876,-38.8751
12:39:55.064,-19.6876,-41.3127
12:39:55.074,-21.8751,-43.1252
12:39:55.084,-23.2501,-47.8127
12:39:55.099,-24.1251,-49.9377
12:39:55.104,-27.0001,-52.8752
12:39:55.115,-28.5001,-57.2502
12:39:55.124,-29.3126,-58.6252
12:39:55.136,-29.8751,-58.8752
12:39:55.145,-25.7501,-54.3752
12:39:55.154,-15.6251,-41.0002
12:39:55.164,-3,-21.0001
12:39:55.177,11.5,1.6875
12:39:55.211,24.2501,24.8751
12:39:55.213,35.3126,43.9377
12:39:55.215,45.0002,61.8127
12:39:55.218,52.9377,77.2503
12:39:55.224,57.8127,90.8129
12:39:55.253,61.6877,99.0629
12:39:55.256,65.0627,106.9379
12:39:55.258,65.9378,112.5629
12:39:55.264,66.4378,113.0629
12:39:55.276,65.0002,114.8129
12:39:55.307,63.6252,111.8129
12:39:55.309,60.6252,108.4379
12:39:55.312,57.4377,104.3129
12:39:55.314,53.7502,98.0629
12:39:55.343,50.5002,93.5629
12:39:55.345,46.9377,88.1253
12:39:55.348,44.5627,83.0003
12:39:55.354,41.6252,77.6878
12:39:55.364,37.4376,72.3753
12:39:55.374,34.7501,67.1878
12:39:55.384,31.6876,61.8752
12:39:55.396,29.2501,58.1877
12:39:55.404,28.6876,53.6877
12:39:55.414,27.1251,52.1877
12:39:55.426,28.0626,53.0627
12:39:55.434,28.5001,53.1252
12:39:55.445,30.1251,54.3752
12:39:55.454,32.3751,57.3127
12:39:55.464,34.1251,60.8127
12:39:55.474,36.2501,63.5002
12:39:55.486,36.6876,65.7503
12:39:55.494,37.3126,66.6878
12:39:55.504,36.1251,66.3128
12:39:55.516,35.1876,66.4378
12:39:55.524,34.6876,63.6877
12:39:55.534,31.8751,61.3752
12:39:55.544,30.4376,57.6252
12:39:55.554,27.2501,53.9377
12:39:55.564,25.6251,49.3127
12:39:55.574,22.6251,45.7502
12:39:55.586,20.3126,40.9377
12:39:55.594,17.5001,35.7501
12:39:55.604,14.3751,30.5001
12:39:55.615,11.6875,25.4376
12:39:55.624,9.1875,20.9376
12:39:55.634,7.125,15.7501
12:39:55.645,4.75,11.25
12:39:55.664,2.75,7
12:39:55.670,0.8125,3.3125
12:39:55.703,0.1875,0.25
12:39:55.706,-1.9375,-3
12:39:55.708,-3.0625,-5.125
12:39:55.710,-3.875,-8.5
12:39:55.715,-4.8125,-10.9375
12:39:55.724,-5.125,-11.75
12:39:55.734,-5.625,-13.8751
12:39:55.744,-5.375,-15.3751
12:39:55.755,-6.6875,-17.8126
12:39:55.764,-7.1875,-18.7501
12:39:55.774,-8.9375,-20.8751
12:39:55.789,-10,-22.5001
12:39:55.805,-9.6875,-24.0001
12:39:55.809,-11.875,-25.5001
12:39:55.814,-12.375,-28.5001
12:39:55.824,-13.9376,-30.6251
12:39:55.834,-15.3126,-32.7501
12:39:55.846,-15.6251,-33.5626
12:39:55.856,-16.7501,-36.0001
12:39:55.866,-17.0001,-36.9376
12:39:55.874,-18.2501,-39.4377
12:39:55.884,-19.0001,-40.9377
12:39:55.894,-20.3126,-41.2502
12:39:55.905,-21.1876,-45.0627
12:39:55.914,-22.3751,-46.8127
12:39:55.924,-24.6876,-50.0627
12:39:55.934,-26.2501,-53.5002
12:39:55.944,-28.5001,-56.3752
12:39:55.954,-29.3126,-59.3752
12:39:55.990,-31.2501,-62.0627
12:39:55.992,-31.6251,-64.1252
12:39:55.994,-30.0626,-61.8127
12:39:56.019,-24.3751,-56.0627
12:39:56.022,-13.1251,-39.4377
12:39:56.023,0.1875,-17.8751
12:39:56.028,13.6251,5.5625
12:39:56.055,25.1251,26.6876
12:39:56.060,35.3126,44.0627
12:39:56.060,42.5627,61.1252
12:39:56.098,49.7502,73.9378
12:39:56.099,54.1252,86.6253
12:39:56.100,57.6877,93.9379
12:39:56.106,58.8752,100.5629
12:39:56.108,58.4377,101.4379
12:39:56.114,56.5627,101.9379
12:39:56.146,54.0627,98.8754
12:39:56.149,50.3127,96.0004
12:39:56.151,46.2502,90.0004
12:39:56.155,42.0627,84.1253
12:39:56.165,39.0627,79.0003
12:39:56.174,34.8126,72.4378
12:39:56.184,31.0626,67.8128
12:39:56.194,27.5626,61.4377
12:39:56.204,24.0626,56.3752
12:39:56.215,20.5001,49.8127
12:39:56.224,16.8126,44.4377
12:39:56.234,14.5626,38.6251
12:39:56.245,13.3126,34.3751
12:39:56.254,12.3125,33.0001
12:39:56.265,13.0625,33.6876
12:39:56.274,14.5626,33.6876
12:39:56.284,16.8751,36.8126
12:39:56.294,19.0626,40.6252
12:39:56.304,21.3126,44.5627
12:39:56.316,24.1251,47.8752
12:39:56.324,25.8751,51.9377
12:39:56.334,26.9376,54.8127
12:39:56.345,27.9376,56.4377
12:39:56.354,26.8751,56.8127
12:39:56.364,26.5626,54.8127
12:39:56.375,23.4376,52.8752
12:39:56.385,21.6876,49.3127
12:39:56.399,18.8751,45.3127
12:39:56.405,16.0626,41.6877
12:39:56.415,12.8125,35.5001
12:39:56.432,8.8125,30.1251
12:39:56.434,6.25,25.1876
12:39:56.445,2.375,19.3751
12:39:56.454,-0.5625,14.3126
12:39:56.465,-3.625,8.75
12:39:56.474,-7.4375,3.625
12:39:56.484,-8.5625,-1.75
12:39:56.494,-11.75,-5.1875
12:39:56.505,-13.1876,-10.5625
12:39:56.515,-15.4376,-12.6875
12:39:56.530,-16.4376,-16.3751
12:39:56.541,-17.6876,-18.5626
12:39:56.549,-18.5001,-21.3751
12:39:56.559,-18.4376,-22.6251
12:39:56.572,-18.6251,-24.1251
12:39:56.580,-19.8126,-26.4376
12:39:56.589,-19.1251,-26.6251
12:39:56.600,-19.7501,-28.3126
12:39:56.611,-20.0001,-29.1876
12:39:56.619,-20.6251,-30.3751
12:39:56.630,-20.7501,-30.8751
12:39:56.639,-21.6876,-33.2501
12:39:56.664,-22.3751,-33.3126
12:39:56.666,-23.3751,-35.9376
12:39:56.669,-23.7501,-36.6251
12:39:56.696,-24.3751,-37.2501
12:39:56.697,-25.8126,-40.6877
12:39:56.699,-26.2501,-42.8752
12:39:56.730,-27.6251,-44.6252
12:39:56.733,-30.0001,-48.2502
12:39:56.735,-32.2501,-51.3127
12:39:56.742,-34.1251,-54.8752
12:39:56.773,-34.0001,-56.8127
12:39:56.775,-32.5626,-55.2502
12:39:56.778,-29.1876,-50.3752
12:39:56.783,-19.9376,-38.1876
12:39:56.822,-8.8125,-19.3751
12:39:56.823,3,-0.1875
12:39:56.826,14.6876,20.6251
12:39:56.833,23.6876,37.7501
12:39:56.833,31.5001,54.8752
12:39:56.839,38.3126,67.3128
12:39:56.854,43.4377,80.2503
12:39:56.864,46.1252,87.5628
12:39:56.875,48.0002,93.6879
12:39:56.884,48.0002,97.6254
12:39:56.894,47.5627,98.1879
12:39:56.904,45.1877,98.0004
12:39:56.914,41.8752,93.5629
12:39:56.924,38.5001,89.1253
12:39:56.937,34.1876,83.2503
12:39:56.945,30.3126,78.0003
12:39:56.985,26.3126,70.9378
12:39:56.989,21.8126,65.1877
12:39:56.990,17.8751,58.9377
12:39:56.995,13.9376,51.4377
12:39:56.996,9.375,45.0002
12:39:57.009,6.1875,38.1876
12:39:57.014,1.75,30.9376
12:39:57.025,-0.375,27.2501
12:39:57.037,0.3125,25.4376
12:39:57.045,0.25,26.3126
12:39:57.055,2.25,27.6251
12:39:57.066,4.4375,29.9376
12:39:57.085,6.3125,33.0626
12:39:57.087,8.5625,36.3751
12:39:57.104,9.875,39.3127
12:39:57.105,11.8125,41.6252
12:39:57.114,12.0625,43.3752
12:39:57.125,11.8125,43.9377
12:39:57.136,11.375,44.2502
12:39:57.144,10.125,42.1877
12:39:57.154,8.75,39.0002
12:39:57.165,7.625,36.9376
12:39:57.174,4.6875,33.5001
12:39:57.184,1.5625,28.8751
12:39:57.195,-0.25,23.5001
12:39:57.204,-3.0625,19.7501
12:39:57.215,-6.25,13.8126
12:39:57.224,-9.0625,7.5625
12:39:57.237,-11.875,3.5
12:39:57.246,-13.6251,-1.5625
12:39:57.254,-16.3751,-5.625
12:39:57.264,-18.8751,-9.9375
12:39:57.276,-19.8126,-14.8126
12:39:57.286,-22.3751,-18.8751
12:39:57.294,-23.6876,-22.0001
12:39:57.304,-25.0001,-25.6251
12:39:57.316,-26.0001,-26.8126
12:39:57.324,-26.9376,-31.0626
12:39:57.335,-26.9376,-32.3126
12:39:57.353,-27.2501,-33.2501
12:39:57.355,-27.6876,-34.8126
12:39:57.394,-27.7501,-36.5626
12:39:57.397,-28.6876,-37.8126
12:39:57.400,-28.7501,-38.8126
12:39:57.402,-29.9376,-41.3127
12:39:57.404,-31.1251,-43.8127
12:39:57.442,-32.0626,-44.7502
12:39:57.445,-33.2501,-46.6252
12:39:57.447,-33.6251,-48.0002
12:39:57.453,-34.5626,-48.7502
12:39:57.456,-34.8751,-51.1877
12:39:57.486,-34.8126,-52.3752
12:39:57.488,-36.6876,-54.2502
12:39:57.490,-36.8126,-56.5627
12:39:57.495,-37.7501,-57.3127
12:39:57.526,-39.8127,-60.6252
12:39:57.528,-40.8127,-63.0002
12:39:57.530,-43.3127,-65.5627
12:39:57.537,-44.9377,-70.5003
12:39:57.547,-45.7502,-71.4378
12:39:57.556,-44.8752,-71.6878
12:39:57.565,-39.0001,-64.6252
12:39:57.580,-27.9376,-49.0002
12:39:57.585,-14.7501,-26.3751
12:39:57.594,-1.1875,-4.25
12:39:57.609,11.8125,18.3126
12:39:57.615,21.7501,40.5627
12:39:57.624,30.9376,57.6877
12:39:57.634,38.1876,73.1878
12:39:57.645,42.8127,86.9378
12:39:57.655,47.6252,96.6879
12:39:57.664,50.2502,105.0629
12:39:57.675,51.1252,109.6879
12:39:57.684,50.3752,111.2504
12:39:57.694,48.1877,110.9379
12:39:57.704,46.0002,108.0004
12:39:57.716,42.3127,103.7504
12:39:57.724,37.1876,99.6254
12:39:57.735,33.4376,92.5629
12:39:57.746,29.0626,85.7503
12:39:57.755,26.3751,82.5003
12:39:57.765,23.6876,76.1878
12:39:57.775,21.6876,73.1878
12:39:57.785,19.1876,68.6878
12:39:57.794,16.2501,64.3127
12:39:57.807,13.3751,58.9377
12:39:57.814,11.4375,55.6252
12:39:57.825,10.625,53.5002
12:39:57.836,10.625,51.5627
12:39:57.846,10.75,51.5627
12:39:57.854,11.5,51.8752
12:39:57.868,12.375,53.1877
12:39:57.874,12.75,54.2502
12:39:57.885,13.6251,56.1877
12:39:57.894,15.3751,57.4377
12:39:57.904,14.9376,58.8127
12:39:57.922,15.0626,58.3127
12:39:57.924,15.0626,59.0627
12:39:57.936,14.9376,58.6877
12:39:57.946,13.8751,56.4377
12:39:57.955,12.5,55.0002
12:39:57.965,10.875,50.3127
12:39:57.977,8.5,47.1877
12:39:57.985,4.5,40.8752
12:39:57.994,1.125,35.7501
12:39:58.006,-2.9375,28.3126
12:39:58.015,-6.625,22.9376
12:39:58.025,-10.9375,16.2501
12:39:58.034,-13.125,11.3125
12:39:58.045,-16.6251,5.125
12:39:58.055,-19.2501,-0.0625
12:39:58.065,-22.3751,-4.6875
12:39:58.075,-25.8751,-11.0625
12:39:58.085,-28.3126,-14.9376
12:39:58.095,-30.8126,-20.2501
12:39:58.106,-33.4376,-23.0001
12:39:58.114,-35.0626,-28.0001
12:39:58.125,-37.4376,-30.3751
12:39:58.136,-40.0002,-34.6251
12:39:58.145,-44.8127,-40.3127
12:39:58.161,-51.4377,-46.5627
12:39:58.167,-59.0002,-56.1877
12:39:58.200,-65.5002,-63.5627
12:39:58.201,-70.0003,-68.5003
12:39:58.203,-72.0628,-70.9378
12:39:58.205,-74.6878,-73.7503
12:39:58.234,-77.6878,-75.7503
12:39:58.236,-82.7503,-80.4378
12:39:58.239,-93.8129,-90.6254
12:39:58.265,-113.4379,-107.0629
12:39:58.268,-133.563,-127.7505
12:39:58.302,-147.4381,-141.063
12:39:58.303,-159.7506,-152.3131
12:39:58.305,-171.5632,-162.4381
12:39:58.308,-185.7507,-175.6882
12:39:58.313,-206.1883,-192.3757
12:39:58.318,-230.1259,-216.8133
12:39:58.336,-239.9384,-228.1884
12:39:58.339,-238.1259,-225.3134
12:39:58.345,-243.8759,-228.0634
12:39:58.354,-240.3134,-223.7509
12:39:58.366,-239.1259,-219.3133
12:39:58.381,-233.6884,-215.6883
12:39:58.397,-226.0009,-207.2508
12:39:58.399,-215.6883,-196.6882
12:39:58.407,-201.8758,-181.6882
12:39:58.415,-185.8132,-162.2506
12:39:58.428,-161.3756,-133.063
12:39:58.436,-133.313,-95.8754
12:39:58.444,-103.3754,-55.5627
12:39:58.455,-76.7503,-15.5001
12:39:58.465,-54.5627,19.3751
12:39:58.475,-34.5001,51.8752
12:39:58.487,-17.5001,80.8128
12:39:58.496,-4.0625,106.6254
12:39:58.505,9.1875,128.188
12:39:58.520,23.5001,150.8131
12:39:58.525,37.0001,169.1256
12:39:58.535,61.3752,199.1258
12:39:58.545,76.3128,210.9383
12:39:58.555,86.1253,216.5633
12:39:58.566,86.0628,216.1883
12:39:58.575,76.3128,205.5008
12:39:58.585,57.2502,184.2507
12:39:58.598,39.3127,156.0006
12:39:58.605,21.3126,127.563
12:39:58.615,16.8126,114.0004
12:39:58.625,12.875,102.3129
12:39:58.635,9.4375,94.1879
12:39:58.646,0.625,80.0628
12:39:58.655,-15.3751,58.8127
12:39:58.664,-29.9376,39.7502
12:39:58.677,-44.6252,19.6251
12:39:58.684,-56.9377,2.625
12:39:58.695,-65.3128,-9.8125
12:39:58.712,-75.7503,-22.6876
12:39:58.715,-89.4378,-38.6876
12:39:58.726,-107.4379,-58.9377
12:39:58.735,-129.188,-84.1878
12:39:58.745,-147.8756,-105.7504
12:39:58.758,-163.8131,-124.0005
12:39:58.766,-185.8757,-148.0006
12:39:58.776,-216.5633,-181.2507
12:39:58.786,-221.2509,-192.3132
12:39:58.822,-200.6258,-172.4382
12:39:58.825,-163.4381,-129.3755
12:39:58.827,-123.313,-79.3128
12:39:58.829,-93.9379,-40.7502
12:39:58.836,-72.0003,-8.875
12:39:58.864,-50.5627,17.5001
12:39:58.867,-32.5001,42.1877
12:39:58.869,-15.9376,61.5002
12:39:58.875,0.625,81.7503
12:39:58.917,15.1876,98.8754
12:39:58.918,26.3126,111.6879
12:39:58.922,35.2501,118.313
12:39:58.923,46.8752,127.7505
12:39:58.927,45.6877,123.0005
12:39:58.960,17.3751,87.0628
12:39:58.963,-18.3751,40.9377
12:39:58.966,-38.0626,8.625
12:39:58.970,-45.0002,-7.875
12:39:58.976,-49.5627,-17.8126
12:39:58.985,-51.5002,-26.4376
12:39:58.996,-60.6252,-38.3126
12:39:59.005,-70.0628,-54.2502
12:39:59.017,-80.3753,-68.1878
12:39:59.026,-101.7504,-93.0629
12:39:59.035,-121.0005,-115.2504
12:39:59.046,-137.2505,-137.188
12:39:59.055,-157.3756,-160.0006
12:39:59.065,-182.6882,-189.6257
12:39:59.075,-212.4383,-224.9384
12:39:59.085,-238.5634,-256.126
12:39:59.096,-243.6884,-268.251
12:39:59.106,-227.1259,-252.0634
12:39:59.115,-193.5007,-213.3758
12:39:59.128,-160.3756,-173.4382
12:39:59.136,-138.2505,-143.813
12:39:59.145,-121.5005,-119.5005
12:39:59.155,-104.2504,-97.3754
12:39:59.166,-84.3128,-74.6253
12:39:59.175,-65.8753,-50.8752
12:39:59.186,-41.0002,-23.6876
12:39:59.195,-12.75,8.0625
12:39:59.207,-0.0625,23.8751
12:39:59.215,-13.1876,12.3125
12:39:59.225,-40.9377,-19.1876
12:39:59.235,-56.6877,-44.0627
12:39:59.245,-64.1877,-61.4377
12:39:59.257,-65.4377,-73.5003
12:39:59.265,-54.8752,-71.3128
12:39:59.275,-59.4377,-78.5003
12:39:59.285,-64.6252,-89.1253
12:39:59.296,-67.1253,-94.6254
12:39:59.306,-75.1253,-104.7504
12:39:59.316,-80.8753,-113.6879
12:39:59.325,-85.8128,-116.6254
12:39:59.338,-88.2503,-116.5629
12:39:59.345,-86.6878,-109.0004
12:39:59.356,-86.6878,-100.1254
12:39:59.365,-96.3129,-100.5004
12:39:59.375,-111.0629,-109.9379
12:39:59.386,-119.5005,-113.0004
12:39:59.396,-117.813,-106.0004
12:39:59.405,-105.7504,-87.9378
12:39:59.415,-89.3128,-60.0627
12:39:59.425,-69.8753,-31.6876
12:39:59.437,-49.0002,0.4375
12:39:59.446,-32.6876,28.6251
12:39:59.462,-20.6251,49.1877
12:39:59.465,-6.5,69.0003
12:39:59.475,14.3126,95.4379
12:39:59.485,41.5002,127.938
12:39:59.496,61.3127,152.3131
12:39:59.505,71.6878,165.4381
12:39:59.517,78.5003,174.3757
12:39:59.543,75.0628,170.0631
12:39:59.548,66.8128,160.7506
