timestamp,Red,IR
13:19:22.439,1.5625,-3.6875
13:19:22.441,0.5,-3.625
13:19:22.446,0.7188,-4
13:19:22.448,0.5,-4.625
13:19:22.456,0.625,-5.25
13:19:22.492,0.0938,-5.5
13:19:22.493,-0.3438,-5.5
13:19:22.497,-1,-7.3125
13:19:22.498,-1.375,-6.875
13:19:22.504,-1.3438,-6.9375
13:19:22.535,-1.5625,-8.125
13:19:22.537,-1.6875,-9.25
13:19:22.539,-1.9063,-10.1875
13:19:22.569,-2.75,-10.3125
13:19:22.570,-2.2813,-9.75
13:19:22.573,-2.2813,-10.125
13:19:22.578,-1.9688,-11.375
13:19:22.589,-3.0938,-12
13:19:22.594,-2.875,-12.625
13:19:22.624,-2.5,-12.75
13:19:22.626,-3.6875,-13.1876
13:19:22.628,-3.9063,-13.6251
13:19:22.636,-3.5625,-14.5626
13:19:22.645,-3.9375,-13.6251
13:19:22.654,-3.5625,-15.0001
13:19:22.663,-3.9063,-14.5626
13:19:22.674,-3.9375,-15.1251
13:19:22.683,-4.625,-15.6251
13:19:22.693,-3.75,-15.1251
13:19:22.703,-4.25,-16.2501
13:19:22.713,-4.1563,-15.1876
13:19:22.723,-4.4375,-17.0626
13:19:22.734,-4.5,-16.1876
13:19:22.743,-4.8438,-15.9376
13:19:22.754,-4.4375,-16.6876
13:19:22.763,-4.6563,-16.8751
13:19:22.773,-4.5625,-17.2501
13:19:22.783,-5.125,-17.5626
13:19:22.793,-5.375,-17.5626
13:19:22.813,-5.3438,-18.0001
13:19:22.820,-5.5625,-18.8751
13:19:22.826,-5.5,-19.6876
13:19:22.833,-5.2813,-18.5001
13:19:22.850,-5.2813,-19.8751
13:19:22.856,-5.375,-20.5626
13:19:22.864,-5.0938,-20.0626
13:19:22.892,-5.4688,-20.6876
13:19:22.895,-5.625,-20.9376
13:19:22.897,-5.9375,-21.3126
13:19:22.903,-5.5313,-21.6251
13:19:22.917,-5.9375,-21.0001
13:19:22.923,-6,-21.6876
13:19:22.933,-4.9063,-19.6251
13:19:22.943,-3.5938,-17.7501
13:19:22.953,-2.5313,-14.3751
13:19:22.963,0.375,-10.3125
13:19:22.973,2.0625,-5.625
13:19:22.983,3.625,-1
13:19:22.993,5.7188,1.8125
13:19:23.003,6.3438,5.1875
13:19:23.013,7.2813,6.6875
13:19:23.023,7.4375,8.25
13:19:23.034,8,7.875
13:19:23.044,7.6563,8.3125
13:19:23.053,8.0625,8.4375
13:19:23.064,7.625,8.375
13:19:23.073,8.3438,8.3125
13:19:23.083,7.9063,8
13:19:23.093,8.5,9.25
13:19:23.103,8.4688,9.625
13:19:23.113,9.2188,10.25
13:19:23.123,8.9688,9.8125
13:19:23.133,8.9688,11.125
13:19:23.143,8.9375,11.75
13:19:23.153,9.125,11.25
13:19:23.166,9,12.125
13:19:23.174,9.4688,12.875
13:19:23.184,8.75,11.5
13:19:23.193,8.4063,11.75
13:19:23.203,8.2813,10.625
13:19:23.216,7.4375,8.1875
13:19:23.223,6.4375,7.5625
13:19:23.233,6.4375,6.0625
13:19:23.249,5.3438,3.5625
13:19:23.254,4.5625,1.6875
13:19:23.282,3.4375,2
13:19:23.285,4.125,-0.125
13:19:23.288,3.1875,-1.125
13:19:23.317,3.5,0.0625
13:19:23.319,3,-0.5625
13:19:23.323,3.4375,-0.6875
13:19:23.324,3.0625,-1.125
13:19:23.366,2.8125,0.1875
13:19:23.366,3.125,-0.9375
13:19:23.368,2.7813,-1.75
13:19:23.411,2.2813,-1.5
13:19:23.411,2.0625,-1.875
13:19:23.411,2.125,-2.9375
13:19:23.413,1.5,-3.3125
13:19:23.416,1.5938,-2.75
13:19:23.422,1.5938,-3.6875
13:19:23.423,1.3438,-5
13:19:23.444,1.4063,-4.875
13:19:23.445,1.1875,-6.1875
13:19:23.453,0.6563,-6
13:19:23.463,-0.0625,-6.6875
13:19:23.474,-0.3125,-8.0625
13:19:23.485,-0.3125,-9.125
13:19:23.494,-0.7813,-8.625
13:19:23.503,0.125,-9.5
13:19:23.513,-1.0938,-9.6875
13:19:23.524,-1.4688,-10.875
13:19:23.533,-1.7188,-11.1875
13:19:23.543,-1.4688,-11.375
13:19:23.558,-1.5938,-11.375
13:19:23.567,-1.25,-11.75
13:19:23.573,-1.5938,-11.875
13:19:23.589,-1.4375,-13
13:19:23.605,-1.625,-12.875
13:19:23.610,-1.9063,-12.0625
13:19:23.613,-1.5625,-12.8125
13:19:23.623,-2.125,-14.3751
13:19:23.633,-1.7813,-13.8751
13:19:23.643,-1.6875,-14.5001
13:19:23.653,-1.6563,-14.4376
13:19:23.663,-1.75,-15.0626
13:19:23.673,-1.875,-14.8126
13:19:23.683,-2,-14.6251
13:19:23.693,-1.9375,-16.0626
13:19:23.703,-2.4688,-14.1251
13:19:23.713,-2.5625,-15.5001
13:19:23.723,-2.5313,-16.7501
13:19:23.733,-2.9063,-15.5626
13:19:23.743,-3.125,-17.8751
13:19:23.753,-2.8438,-16.6876
13:19:23.763,-2.8438,-17.3126
13:19:23.773,-2.875,-17.2501
13:19:23.783,-2.1563,-17.3126
13:19:23.793,-3.1563,-18.5626
13:19:23.803,-2.7188,-18.1251
13:19:23.813,-3.25,-18.8126
13:19:23.824,-2.9688,-18.1876
13:19:23.833,-3.5625,-19.6251
13:19:23.843,-3.25,-18.3126
13:19:23.853,-2.9063,-18.8126
13:19:23.863,-2.7188,-16.9376
13:19:23.873,-1.4063,-15.5626
13:19:23.883,-0.25,-13.0625
13:19:23.893,2.3125,-7.3125
13:19:23.904,4.125,-3.75
13:19:23.913,6.875,1
13:19:23.924,8.3125,4.125
13:19:23.933,9.2188,7.3125
13:19:23.943,9.9063,8
13:19:23.979,10.3438,9.375
13:19:23.980,10.3438,10.1875
13:19:23.984,9.875,10.4375
13:19:23.986,10.1875,11.625
13:19:24.014,10.2188,10.5
13:19:24.017,9.7188,12
13:19:24.019,9.8438,10.9375
13:19:24.026,9.9063,11.8125
13:19:24.041,10.2188,11.375
13:19:24.044,10.4688,11.1875
13:19:24.080,11.4063,13.3126
13:19:24.080,11.1875,12.5
13:19:24.085,10.4688,13.6876
13:19:24.089,11.75,13.1876
13:19:24.094,10.875,12.8125
13:19:24.132,10.5938,13.6251
13:19:24.134,10.6875,13.3751
13:19:24.152,10.6563,12.9375
13:19:24.167,10.125,11.75
13:19:24.180,9.4375,10.4375
13:19:24.187,8.4688,9.875
13:19:24.187,7.7188,7.0625
13:19:24.188,7.0625,5.1875
13:19:24.203,6.2188,4.75
13:19:24.205,6.1563,2.9375
13:19:24.209,5.5313,2.1875
13:19:24.214,5.4375,2.375
13:19:24.223,5.6875,1.6875
13:19:24.233,5.6563,1.0625
13:19:24.243,5.4688,1.0625
13:19:24.253,5.1875,1.75
13:19:24.263,6.1563,1.625
13:19:24.273,5.8438,1.0625
13:19:24.283,5.2813,0.75
13:19:24.294,5.1563,1.75
13:19:24.303,4.875,1.5
13:19:24.313,4.7188,-0.25
13:19:24.323,4.3125,-0.125
13:19:24.333,4.5625,-1.1875
13:19:24.343,4.2813,-1.6875
13:19:24.353,2.8125,-3
13:19:24.363,3.25,-4.3125
13:19:24.373,2.4063,-4.9375
13:19:24.383,2.1563,-4.375
13:19:24.393,2.8125,-5.3125
13:19:24.403,2.3438,-5.6875
13:19:24.413,1.8125,-6.375
13:19:24.424,1.8125,-6.9375
13:19:24.433,1.9063,-6.625
13:19:24.444,2.0313,-8.125
13:19:24.453,1.3438,-8.875
13:19:24.463,0.5313,-8.375
13:19:24.473,1.3125,-8.5
13:19:24.483,1.375,-9.75
13:19:24.493,0.5938,-9.6875
13:19:24.503,-0.0625,-9.6875
13:19:24.513,0.4688,-10.0625
13:19:24.523,0.3438,-11.5
13:19:24.533,0.0938,-10.5
13:19:24.543,0.6563,-10.8125
13:19:24.553,0.2813,-11.0625
13:19:24.563,0.0938,-10.3125
13:19:24.573,-0.2188,-12
13:19:24.583,0.0313,-12.75
13:19:24.594,-0.125,-11.4375
13:19:24.604,0.1563,-12
13:19:24.613,0.0313,-12.125
13:19:24.623,-0.125,-12.875
13:19:24.633,-0.875,-13.4376
13:19:24.644,-1.3438,-12.5625
13:19:24.653,-0.625,-14.0626
13:19:24.663,-1.6563,-14.3751
13:19:24.678,-1.1875,-15.0001
13:19:24.701,-1.5,-15.3126
13:19:24.702,-1.3125,-14.1876
13:19:24.730,-1.5625,-15.9376
13:19:24.732,-2.0938,-16.1876
13:19:24.735,-2.125,-14.8126
13:19:24.749,-1.7813,-16.2501
13:19:24.752,-2.5938,-17.3751
13:19:24.784,-1.4688,-15.4376
13:19:24.787,-1.0313,-15.0626
13:19:24.789,-0.125,-12.6875
13:19:24.796,1.5625,-8.3125
13:19:24.804,3.6875,-4.0625
13:19:24.808,5.8125,-0.6875
13:19:24.844,7,2.5625
13:19:24.845,8.5938,6.5625
13:19:24.849,9.3125,8.875
13:19:24.854,9.9688,10.1875
13:19:24.868,10.1875,10.8125
13:19:24.884,10.4063,11
13:19:24.899,9.9688,11.0625
13:19:24.900,9.0938,11.5625
13:19:24.916,9.5,11.375
13:19:24.930,9.5,10.5625
13:19:24.932,10.1875,10.75
13:19:24.934,9.5938,11
13:19:24.940,9.9688,12.1875
13:19:24.948,10.5625,12.3125
13:19:24.958,9.8438,12.375
13:19:24.968,9.9688,13.3126
13:19:24.978,10.5,12.5625
13:19:24.988,9.7188,12.5625
13:19:24.998,9.6563,13.0625
13:19:25.008,9.6563,13.1251
13:19:25.018,9.25,11.3125
13:19:25.028,8.4063,10.75
13:19:25.038,8,9.75
13:19:25.050,7.5938,7.6875
13:19:25.059,6.2188,5.4375
13:19:25.068,5.8438,4.5
13:19:25.078,4.9375,2.4375
13:19:25.088,4.125,2.25
13:19:25.098,4.125,1.5625
13:19:25.108,4.1875,1.125
13:19:25.118,4.0938,1.125
13:19:25.129,4.25,2.5
13:19:25.138,4.125,1.4375
13:19:25.148,4.0938,0.6875
13:19:25.158,4.2813,1.5
13:19:25.168,5,0.5625
13:19:25.178,4,0.0625
13:19:25.188,2.9375,0.3125
13:19:25.198,3.0625,-0.5
13:19:25.208,3.3438,-0.75
13:19:25.218,2.4688,-1.4375
13:19:25.229,3.3438,-1.5625
13:19:25.238,2.0313,-3.5625
13:19:25.249,1.2188,-3.0625
13:19:25.258,1.4688,-3.6875
13:19:25.268,1.8125,-4.625
13:19:25.278,0.8125,-5.8125
13:19:25.288,0.25,-5.5
13:19:25.298,0.5625,-7.0625
13:19:25.308,-0.4063,-8.625
13:19:25.321,-0.375,-7.6875
13:19:25.328,-0.125,-8.125
13:19:25.338,-0.0313,-8.9375
13:19:25.348,-0.5625,-9.9375
13:19:25.358,-1.0313,-9.6875
13:19:25.369,-0.375,-10.125
13:19:25.402,-1.0938,-11
13:19:25.404,-1.7813,-10.6875
13:19:25.408,-1.25,-11.6875
13:19:25.414,-1.625,-11.6875
13:19:25.442,-1.3438,-11.1875
13:19:25.445,-1.0938,-12.1875
13:19:25.446,-2.25,-12.1875
13:19:25.450,-1.4375,-12.75
13:19:25.483,-2,-13.5626
13:19:25.486,-2.25,-12.5
13:19:25.559,-2.3125,-13.6876
13:19:25.561,-2.125,-13.2501
13:19:25.563,-2.4375,-14.1251
13:19:25.564,-2.5,-14.0001
13:19:25.564,-1.6875,-14.8126
13:19:25.569,-2.6563,-14.0001
13:19:25.578,-2.4063,-15.3751
13:19:25.588,-2.8125,-14.6251
13:19:25.598,-2.3125,-15.3126
13:19:25.608,-2.375,-16.3126
13:19:25.618,-2.2813,-16.0626
13:19:25.628,-2.5625,-16.8126
13:19:25.638,-2.9688,-16.7501
13:19:25.648,-2.375,-17.3126
13:19:25.659,-2.9688,-16.8751
13:19:25.668,-2.9688,-17.3751
13:19:25.678,-2.7188,-17.8126
13:19:25.688,-2.7813,-16.3751
13:19:25.703,-1.2813,-13.3126
13:19:25.713,0.4063,-11.375
13:19:25.723,2.4063,-7.4375
13:19:25.733,10.7188,9.8125
13:19:25.743,10,10.9375
13:19:25.753,11.2188,11.5625
13:19:25.763,10.4063,12.125
13:19:25.773,11.3125,11.9375
13:19:25.783,10.3125,11.6875
13:19:25.793,10.375,12.1875
13:19:25.803,11.1875,11.3125
13:19:25.813,10.25,13
13:19:25.823,10.8438,12.5625
13:19:25.834,10.8125,12.4375
13:19:25.843,11.9063,13.6251
13:19:25.853,11.7813,13.7501
13:19:25.863,11.5625,14.8126
13:19:25.873,11.2188,14.5626
13:19:25.884,11.7813,15.6251
13:19:25.893,12.5625,14.8126
13:19:25.908,11.5938,14.9376
13:19:25.918,11.1563,14.2501
13:19:25.928,11.0313,13.6251
13:19:25.938,10.5625,12.875
13:19:25.948,10,11.0625
13:19:25.958,8.6875,8.5
13:19:25.968,7.875,7.375
13:19:25.978,7.5938,5.875
13:19:25.988,7.2813,4.5625
13:19:25.998,6.4063,3
13:19:26.008,5.9063,3.8125
13:19:26.018,6.0938,3.375
13:19:26.028,6.875,3.25
13:19:26.038,6.0313,2.5625
13:19:26.048,6.0625,3.125
13:19:26.058,5.9688,2.8125
13:19:26.068,5.9063,2
13:19:26.078,5.5625,3.625
13:19:26.088,6.1875,2.1875
13:19:26.098,6.0938,1.4375
13:19:26.108,5.3438,0.6875
13:19:26.124,5.0313,0.9375
13:19:26.128,4.4063,-0.25
13:19:26.153,4.5938,-1.1875
13:19:26.161,4.0625,-2.1875
13:19:26.163,3.9063,-1.9375
13:19:26.175,4,-2.6875
13:19:26.178,3.4688,-3.75
13:19:26.211,3,-5.0625
13:19:26.213,2.3438,-3.9375
13:19:26.246,2.5625,-5.3125
13:19:26.250,1.875,-6.5625
13:19:26.300,1.5938,-6.1875
13:19:26.303,1.6563,-6.75
13:19:26.305,1.9063,-7.75
13:19:26.305,1.5938,-8.625
13:19:26.308,1.4063,-8.1875
13:19:26.311,1.3125,-8.625
13:19:26.315,1.2188,-9.5625
13:19:26.325,0.5625,-9.3125
13:19:26.333,1,-9.5625
13:19:26.343,1.2188,-10.3125
13:19:26.353,0.5938,-10.875
13:19:26.363,0.6875,-10.625
13:19:26.373,0.125,-11.5
13:19:26.383,0.1563,-11.8125
13:19:26.393,0.125,-12.4375
13:19:26.403,-0.125,-11.25
13:19:26.414,-0.125,-12.5
13:19:26.423,0.0625,-13.3126
13:19:26.433,-0.1563,-13.4376
13:19:26.443,0.3125,-13.7501
13:19:26.454,0.0313,-14.7501
13:19:26.463,-0.75,-15.5001
13:19:26.473,-0.3125,-15.6251
13:19:26.483,-0.4688,-15.5001
13:19:26.493,-0.8438,-16.4376
13:19:26.503,-1.5625,-15.6251
13:19:26.513,-1.125,-17.1251
13:19:26.523,-1.75,-17.8751
13:19:26.533,-1.5938,-17.5001
13:19:26.543,-1.0313,-17.6251
13:19:26.553,-1.7813,-18.7501
13:19:26.563,-1.8125,-17.4376
13:19:26.573,-1.3438,-17.5626
13:19:26.583,-0.7813,-16.8126
13:19:26.595,0.5625,-13.6251
13:19:26.603,2.75,-10.125
13:19:26.616,5.3438,-4.4375
13:19:26.623,7.7813,-0.5
13:19:26.633,8.8438,3.1875
13:19:26.643,11.0625,6.6875
13:19:26.653,11.375,9.625
13:19:26.683,12.5625,10.625
13:19:26.684,12.8438,12.125
13:19:26.688,13.6251,11.875
13:19:26.694,13.5313,13
13:19:26.703,13.6876,13
13:19:26.713,13.6563,13.1876
13:19:26.723,13.0938,13.8751
13:19:26.734,13.5626,12.75
13:19:26.743,13.3751,14.3126
13:19:26.753,13.8126,14.3751
13:19:26.763,13.7188,14.5001
13:19:26.773,14.2501,15.5626
13:19:26.783,14.6563,15.5001
13:19:26.793,14.5938,15.0001
13:19:26.803,13.9376,17.0001
13:19:26.813,14.3751,16.5626
13:19:26.844,14.6563,16.1876
13:19:26.846,14.5938,16.2501
13:19:26.860,13.8126,14.7501
13:19:26.875,12.8438,15.0626
13:19:26.878,12.1875,13.9376
13:19:26.879,11.75,11.8125
13:19:26.912,10.4063,9.6875
13:19:26.914,9.8125,8.75
13:19:26.917,9.4375,6.125
13:19:26.919,8.6875,4.6875
13:19:26.924,8.0625,5
13:19:26.952,8.1875,3.75
13:19:26.954,8.2188,3.6875
13:19:26.956,7.7188,3.125
13:19:26.986,7.0313,4.625
13:19:26.988,7.5625,3.9375
13:19:26.991,7.9688,3.3125
13:19:26.999,7.7188,2.8125
13:19:27.006,7.375,2.5625
13:19:27.043,7.375,2.9375
13:19:27.045,6.9063,3.25
13:19:27.049,6.7188,1.875
13:19:27.053,7.3438,1
13:19:27.057,6.8438,0.1875
13:19:27.063,6.0313,-0.625
13:19:27.073,6.125,-0.4375
13:19:27.083,6.1563,-0.9375
13:19:27.093,6.3125,-2.4375
13:19:27.103,5.1875,-2.9375
13:19:27.113,5.125,-3.1875
13:19:27.123,4.7188,-3.125
13:19:27.134,4.75,-4.375
13:19:27.143,4.5938,-5.5625
13:19:27.153,3.9375,-6
13:19:27.163,3.8438,-5.6875
13:19:27.173,4.1563,-6
13:19:27.183,3.875,-6.8125
13:19:27.193,3.2813,-8.1875
13:19:27.204,2.9375,-7.3125
13:19:27.213,2.9688,-7.625
13:19:27.225,2.75,-8.875
13:19:27.233,2.4375,-9.3125
13:19:27.243,3.4688,-9.3125
13:19:27.253,2.375,-9.0625
13:19:27.263,2.8125,-9.625
13:19:27.273,2.5313,-10.125
13:19:27.283,1.8125,-10.0625
13:19:27.293,1.7188,-10.9375
13:19:27.304,1.625,-11.875
13:19:27.313,1.9063,-11.25
13:19:27.323,2.5,-11.375
13:19:27.334,1.2813,-12.5625
13:19:27.344,1.375,-11.3125
13:19:27.353,1.8125,-13
13:19:27.363,0.8125,-13.3751
13:19:27.373,1.1875,-13
13:19:27.383,1.1563,-13.8126
13:19:27.393,1.0625,-13.8751
13:19:27.403,1.4375,-13.6251
13:19:27.413,1,-14.5001
13:19:27.423,0.75,-13.6876
13:19:27.433,1.0938,-14.6251
13:19:27.443,0.3125,-16.0626
13:19:27.453,0.625,-14.5626
13:19:27.463,0.1875,-15.4376
13:19:27.473,0.9063,-16.5626
13:19:27.483,0.2188,-15.8126
13:19:27.493,0.375,-16.3751
13:19:27.503,1.375,-15.9376
13:19:27.513,1.5625,-13.9376
13:19:27.523,3.7188,-11.4375
13:19:27.533,4.8125,-8.3125
13:19:27.543,6.6563,-2.5625
13:19:27.553,8.9375,0.875
13:19:27.570,10.0625,4.75
13:19:27.584,11.5625,8.4375
13:19:27.599,13.4376,10.8125
13:19:27.603,13.8126,11.0625
13:19:27.617,13.5938,13.5626
13:19:27.618,13.5313,12.875
13:19:27.624,13.7188,12.375
13:19:27.633,13.5626,13.5626
13:19:27.643,14.2188,13.4376
13:19:27.681,13.7813,12.6875
13:19:27.684,13.3126,13.3751
13:19:27.686,14.1251,13.3751
13:19:27.688,13.5001,14.2501
13:19:27.694,14.3751,14.5001
13:19:27.728,13.8438,14.0001
13:19:27.731,14.2501,14.8126
13:19:27.733,14.0626,15.7501
13:19:27.738,14.4376,15.8126
13:19:27.746,15.0626,15.4376
13:19:27.779,14.9688,14.9376
13:19:27.782,13.8751,14.5626
13:19:27.784,13.8438,15.0626
13:19:27.787,13.1563,12.9375
13:19:27.793,13.1876,11.9375
13:19:27.833,11.0938,9.3125
13:19:27.834,11.125,9
13:19:27.838,10.7188,6.3125
13:19:27.841,10,5.25
13:19:27.844,9.8125,4.125
13:19:27.853,9.3438,4.625
13:19:27.865,10,4.875
13:19:27.873,9.375,4.125
13:19:27.883,9.5625,3.75
13:19:27.893,9.75,4.8125
13:19:27.903,9.375,5.5
13:19:27.913,10.0625,4.75
13:19:27.923,9.375,3.6875
13:19:27.933,9.0625,4.0625
13:19:27.963,8.6563,3.5625
13:19:27.966,8.8438,3.25
13:19:27.967,7.7188,1.5
13:19:27.974,7.9375,2
13:19:27.992,8.5,1.25
13:19:27.994,8,0.375
13:19:28.003,6.9688,-0.0625
13:19:28.013,7.1563,-0.5625
13:19:28.023,6.6563,-1.5
13:19:28.033,6.875,-1.25
13:19:28.044,6.625,-2.5625
13:19:28.055,5.3438,-4.125
13:19:28.064,5.1875,-2.875
13:19:28.073,5.4688,-4
13:19:28.085,5.4375,-5.1875
13:19:28.093,5.0938,-5.5
13:19:28.103,4.25,-5.125
13:19:28.113,4.4688,-6
13:19:28.124,4.2188,-6.75
13:19:28.143,4.0313,-6.9375
13:19:28.149,3.6563,-6.375
13:19:28.157,3.625,-7.5625
13:19:28.163,3.6563,-8.375
13:19:28.180,3.2188,-8.125
13:19:28.183,3.5313,-8.1875
13:19:28.199,3,-9.875
13:19:28.205,2.1875,-8.6875
13:19:28.213,2.8438,-10.375
13:19:28.223,2.3125,-10.1875
13:19:28.233,1.8125,-10.75
13:19:28.243,1.8438,-10.5
13:19:28.253,2.0625,-10.9375
13:19:28.263,1.4688,-12
13:19:28.273,1.4063,-11.5
13:19:28.283,1.875,-12.5625
13:19:28.293,1,-11.5625
13:19:28.303,0.6563,-11.125
13:19:28.318,0.6563,-12.5
13:19:28.348,0.875,-13.5001
13:19:28.349,0.5625,-12.5625
13:19:28.352,-0.5313,-13.6251
13:19:28.354,-0.0625,-14.1251
13:19:28.389,-0.1875,-15.3126
13:19:28.392,-0.3125,-14.6876
13:19:28.396,0.4688,-14.6876
13:19:28.397,0.0938,-14.5001
13:19:28.426,0.7813,-11.75
13:19:28.428,2.75,-9.5625
13:19:28.432,3.6875,-7.1875
13:19:28.437,5.9063,-2.1875
13:19:28.463,8.0313,2.1875
13:19:28.465,9.4688,5.625
13:19:28.470,9.9688,9.6875
13:19:28.496,10.5938,10.1875
13:19:28.497,11.6875,10.8125
13:19:28.499,11.3125,12.25
13:19:28.506,11.625,12.5
13:19:28.513,11.125,12.5625
13:19:28.523,11.3438,12.0625
13:19:28.535,10.8438,11.9375
13:19:28.543,11.875,12.6875
13:19:28.553,11,12
13:19:28.563,11.125,12.875
13:19:28.573,10.7188,13.1251
13:19:28.584,11.4063,13
13:19:28.594,11.2188,14.0001
13:19:28.603,12.0938,13.8751
13:19:28.613,11.75,14.3126
13:19:28.623,11.4063,14.0001
13:19:28.633,11.25,14.1251
13:19:28.643,10.875,13.9376
13:19:28.653,10.875,14.1876
13:19:28.664,11.4375,12.875
13:19:28.673,9.7188,11.4375
13:19:28.683,9.125,10.125
13:19:28.693,8.7813,8.25
13:19:28.703,7.2813,6.25
13:19:28.713,6.9688,5.25
13:19:28.723,6.75,3.625
13:19:28.736,6.1875,2.6875
13:19:28.745,5.9063,4.1875
13:19:28.753,6.3438,3.4375
13:19:28.763,6.3438,2.875
13:19:28.773,5.8125,3.375
13:19:28.783,6.4375,3.6875
13:19:28.793,5.8438,2.625
13:19:28.806,5.625,2.875
13:19:28.813,5.5938,3.125
13:19:28.823,5.4063,1.9375
13:19:28.833,5.2813,0.8125
13:19:28.843,4.9688,0.875
13:19:28.854,4.2813,0.9375
13:19:28.869,4.5938,-0.875
13:19:28.884,4.25,-1.0625
13:19:28.887,4.0938,-1.25
13:19:28.901,3.8125,-1.0625
13:19:28.918,3.7188,-3.1875
13:19:28.920,2.6875,-4.0625
13:19:28.934,2.6875,-4.1875
13:19:28.937,3.1563,-3.4375
13:19:28.943,2.4063,-5
13:19:28.953,2.3125,-5.4375
13:19:28.964,1.9688,-5.1875
13:19:28.973,2.4063,-5.9375
13:19:28.983,2,-6.9375
13:19:28.996,1.4688,-7.4375
13:19:29.004,1.1875,-8.125
13:19:29.013,0.5313,-7
13:19:29.024,0.9688,-8.5
13:19:29.033,0.75,-9
13:19:29.043,0.375,-8.5
13:19:29.054,0.875,-10.5
13:19:29.064,0.5625,-9.875
13:19:29.073,0.5,-9.1875
13:19:29.084,0.7813,-9
13:19:29.120,0.3125,-10.0625
13:19:29.123,0.9063,-11.3125
13:19:29.125,-0.2813,-10.75
13:19:29.163,-0.4688,-11.25
13:19:29.164,-0.25,-12.125
13:19:29.167,-0.0313,-11.0625
13:19:29.172,0.125,-12
13:19:29.175,-0.375,-12.5625
13:19:29.175,-0.2813,-12.5625
13:19:29.189,0,-12.5
13:19:29.194,-0.25,-13.125
13:19:29.232,-0.6875,-12.125
13:19:29.233,-0.75,-13.2501
13:19:29.237,-0.3125,-13.7501
13:19:29.261,-0.625,-13.5626
13:19:29.262,-0.5,-13.3751
13:19:29.265,-0.1563,-14.3126
13:19:29.269,-0.5625,-15.3126
13:19:29.273,-0.4375,-14.6876
13:19:29.283,1.0625,-14.2501
13:19:29.298,0.5938,-12
13:19:29.304,2.2813,-8.9375
13:19:29.313,4.8438,-5
13:19:29.323,6.7813,-0.9375
13:19:29.335,8.0625,3.25
13:19:29.343,9.3125,6.3125
13:19:29.353,10.5625,9.625
13:19:29.364,11.0625,10.5625
13:19:29.375,11.4375,12.1875
13:19:29.383,12.3125,13.3751
13:19:29.393,12.2188,13.9376
13:19:29.404,12.3438,14.6876
13:19:29.413,12.625,14.0001
13:19:29.423,12.4063,13.9376
13:19:29.433,12.625,14.8751
13:19:29.444,12.6563,15.3126
13:19:29.465,12.5625,15.6876
13:19:29.468,12.75,16.1876
13:19:29.476,13.4688,17.0001
13:19:29.484,13.5313,17.0626
13:19:29.498,13.4688,18.1876
13:19:29.507,14.0001,18.2501
13:19:29.514,14.3126,18.1876
13:19:29.523,14.5313,19.3751
13:19:29.533,14.5001,19.1876
13:19:29.545,14.3438,18.3751
13:19:29.554,13.6876,17.7501
13:19:29.563,12.4688,18.2501
13:19:29.574,12.5313,15.1251
13:19:29.584,11.5625,13.2501
13:19:29.593,10.5625,12
13:19:29.604,9.75,11.25
13:19:29.614,9.4688,8.5625
13:19:29.623,9.2813,7.375
13:19:29.633,8.6563,6.3125
13:19:29.645,8.1563,5.75
13:19:29.654,8.4063,6.625
13:19:29.663,7.9375,7.75
13:19:29.678,8.3438,6.5625
13:19:29.683,8.7813,5.8125
13:19:29.693,8.0625,6.75
13:19:29.703,8.125,6.125
13:19:29.713,8.3125,5.75
13:19:29.723,7.6875,5.25
13:19:29.733,7.75,4.4375
13:19:29.748,7.2188,5
13:19:29.758,7.2188,3.375
13:19:29.769,6.6875,2.125
13:19:29.779,6.4688,2.9375
13:19:29.788,7.0313,1.75
13:19:29.799,6.375,0.4375
13:19:29.808,5.3438,1.25
13:19:29.831,5.5938,0.3125
13:19:29.833,5.8438,-0.8125
13:19:29.862,5.2188,-1.6875
13:19:29.865,4.6875,-2.3125
13:19:29.867,4.5,-2.75
13:19:29.869,4.1875,-1.8125
13:19:29.902,4.5625,-3.375
13:19:29.904,3.6875,-4.1875
13:19:29.907,4.0313,-4.8125
13:19:29.937,3.6563,-4.9375
13:19:29.937,3.5625,-5.875
13:19:29.939,3.3125,-5.3125
13:19:29.946,3.7813,-5.625
13:19:29.949,3.5938,-6.0625
13:19:29.977,3.5313,-5.75
13:19:29.979,3.75,-6.5625
13:19:29.981,2.875,-7.875
13:19:29.989,2.0313,-6.75
13:19:30.002,2.6563,-7.5625
13:19:30.009,2.1563,-7.8125
13:19:30.018,2.1563,-8.75
13:19:30.029,1.6563,-8
13:19:30.039,2.4063,-9
13:19:30.053,1.4688,-10
13:19:30.059,1.5,-9.5
13:19:30.069,2.2813,-9.9375
13:19:30.078,1.125,-10.25
13:19:30.090,1.0938,-10.125
13:19:30.098,1.0625,-10.9375
13:19:30.109,0.7188,-11.8125
13:19:30.119,0.875,-12.125
13:19:30.129,0.6563,-12.375
13:19:30.139,0.3438,-12.25
13:19:30.148,0.7188,-12.625
13:19:30.158,1.0313,-11.9375
13:19:30.169,0.8125,-10.3125
13:19:30.179,2.3125,-9.25
13:19:30.203,3.8438,-5.5
13:19:30.204,6.4375,-1.4375
13:19:30.219,7.9375,1.5625
13:19:30.226,9.4375,6.25
13:19:30.230,11.6563,9.5
13:19:30.244,12.25,11.5625
13:19:30.248,12.4688,13.7501
13:19:30.258,13.6251,14.6876
13:19:30.268,13.2813,14.2501
13:19:30.279,13.1876,15.8751
13:19:30.289,13.6876,15.1251
13:19:30.299,13.4063,16.0626
13:19:30.308,14.3126,15.8751
13:19:30.319,13.6251,16.3751
13:19:30.328,13.3751,16.8751
13:19:30.338,14.1251,16.9376
13:19:30.350,14.0938,17.3751
13:19:30.359,14.6876,19.1876
13:19:30.368,15.3126,19.3126
13:19:30.378,15.4688,20.6251
13:19:30.389,14.8438,19.7501
13:19:30.399,14.7501,21.0626
13:19:30.409,15.6876,20.3751
13:19:30.419,16.0001,20.9376
13:19:30.428,15.0313,19.9376
13:19:30.439,14.5313,20.6251
13:19:30.448,14.1876,19.3126
13:19:30.458,13.2501,17.1251
13:19:30.469,12.5625,14.8126
13:19:30.479,11,13.5001
13:19:30.490,10.625,11.625
13:19:30.522,9.875,9.9375
13:19:30.525,9.6563,8.4375
13:19:30.527,9.5625,9
13:19:30.533,9.8438,8.875
13:19:30.538,9.625,8.4375
13:19:30.577,9.125,8.1875
13:19:30.578,9.3125,9.5
13:19:30.580,9.8125,9.125
13:19:30.583,9.5313,8.9375
13:19:30.590,9.2813,8.8125
13:19:30.629,9.1875,7.6875
13:19:30.630,8.9375,6.4375
13:19:30.635,8.6875,6.75
13:19:30.636,8.0938,7.6875
13:19:30.640,8.4375,6.125
13:19:30.665,7.875,5.3125
13:19:30.668,7.7188,3.75
13:19:30.670,7.1875,4.125
13:19:30.709,7.2813,3.6875
13:19:30.710,6.875,2.5
13:19:30.713,6.7813,1.6875
13:19:30.719,6.625,0.3125
13:19:30.723,6.3125,0.8125
13:19:30.730,6.1875,-0.4375
13:19:30.739,6,-1.25
13:19:30.751,5.3438,-1.5
13:19:30.759,5.5938,-1.875
13:19:30.769,5.25,-2.0625
13:19:30.786,5.4063,-2.4375
13:19:30.803,5.0938,-3.9375
13:19:30.805,4.7813,-3.1875
13:19:30.810,5.5938,-3.75
13:19:30.819,4.5313,-4.125
13:19:30.829,4.375,-4.5625
13:19:30.840,4.4063,-4.1875
13:19:30.849,5.4688,-4.1875
13:19:30.860,4.6875,-4.875
13:19:30.868,4.3438,-5.625
13:19:30.879,4.1563,-5.6875
13:19:30.889,3.9688,-4.4375
13:19:30.898,4.2813,-5.875
13:19:30.910,4.1563,-7.25
13:19:30.919,3.4688,-6.75
13:19:30.929,3.25,-6.625
13:19:30.939,3.625,-7.125
13:19:30.948,3.5938,-7.8125
13:19:30.958,3.625,-9.25
13:19:30.969,3.1563,-8.0625
13:19:30.978,3.0625,-8.875
13:19:30.989,2.75,-9.9375
13:19:30.999,2.9063,-8.9375
13:19:31.009,2.875,-10.125
13:19:31.019,3.3438,-9.8125
13:19:31.028,2.4063,-10.625
13:19:31.038,2.5938,-10.25
13:19:31.049,3.5625,-9
13:19:31.058,5,-7.8125
13:19:31.069,5.8125,-3.875
13:19:31.079,8.1563,-0.5
13:19:31.088,9.6875,3.875
13:19:31.099,11.6563,8.0625
13:19:31.109,13.8126,11.375
13:19:31.119,14.4063,13.9376
13:19:31.128,14.5001,16.8751
13:19:31.140,15.6876,16.3751
13:19:31.149,14.9063,17.0626
13:19:31.158,15.0313,17.3751
13:19:31.168,14.9688,16.8751
13:19:31.184,15.1876,18.2501
13:19:31.189,15.7188,18.5626
13:19:31.199,15.4688,18.2501
13:19:31.208,15.1563,20.0626
13:19:31.218,15.7813,19.7501
13:19:31.229,16.0626,19.4376
13:19:31.271,16.0938,21.0001
13:19:31.273,16.3751,22.1876
13:19:31.274,17.0938,22.4376
13:19:31.277,17.2501,22.1876
13:19:31.282,16.8438,23.0626
13:19:31.315,17.2813,22.9376
13:19:31.317,16.6876,22.2501
13:19:31.319,16.5313,23.1876
13:19:31.325,16.0626,21.0001
13:19:31.340,15.3438,19.2501
13:19:31.343,14.4376,18.5626
13:19:31.372,13.3126,15.4376
13:19:31.374,12.2188,13.9376
13:19:31.377,11.4688,11.875
13:19:31.382,10.9375,10.625
13:19:31.410,10,11
13:19:31.413,10.3125,9.5
13:19:31.415,10.1563,9.75
13:19:31.418,10.6563,10.4375
13:19:31.430,10.4375,10.6875
13:19:31.440,10.5938,9.75
13:19:31.449,10.25,11.125
13:19:31.459,10.125,10.4375
13:19:31.469,9.7188,8.9375
13:19:31.479,9.4063,9.625
13:19:31.500,8.6875,8.4375
13:19:31.502,9.125,7.375
13:19:31.515,9.1563,6.8125
13:19:31.519,8.3438,6.75
13:19:31.528,8.3438,6.0625
13:19:31.539,8.2188,5.6875
13:19:31.549,7.625,3.9375
13:19:31.559,7.5938,4.9375
13:19:31.569,7.3438,3.5
13:19:31.579,7.375,2.5625
13:19:31.589,6.5938,2.125
13:19:31.599,6.7813,2.4375
13:19:31.608,6.9375,1.3125
13:19:31.618,5.875,0.875
13:19:31.629,5.7188,0.875
13:19:31.639,5.875,0.625
13:19:31.649,5.6563,-0.9375
13:19:31.660,5.25,-1.5
13:19:31.669,4.5313,-2.25
13:19:31.679,4.4063,-2.125
13:19:31.690,4.6563,-2.125
13:19:31.699,4.9688,-3.125
13:19:31.709,4.375,-3.125
13:19:31.719,3.7188,-2.8125
13:19:31.729,4.5625,-3.6875
13:19:31.739,4,-4.9375
13:19:31.749,3.9688,-4.6875
13:19:31.759,3.7188,-4.125
13:19:31.769,3.4375,-4.4375
13:19:31.804,3.7188,-5.125
13:19:31.807,3.7813,-5.3125
13:19:31.809,3.2188,-6.375
13:19:31.812,3,-5.6875
13:19:31.819,2.9688,-6.5625
13:19:31.829,2.9063,-7.625
13:19:31.839,2.2813,-7.5
13:19:31.848,2.8438,-7.6875
13:19:31.859,1.5938,-8.875
13:19:31.869,1.4375,-7.75
13:19:31.879,1.8438,-8.3125
13:19:31.890,2.2813,-8.25
13:19:31.899,3.3125,-4.8125
13:19:31.909,4.875,-2.6875
13:19:31.919,6.3438,1.375
13:19:31.934,8.6563,5.25
13:19:31.940,9.6563,8.9375
13:19:31.949,10.875,13
13:19:31.959,11.9375,14.6251
13:19:31.969,12.5,15.0001
13:19:31.979,12.2813,16.8126
13:19:31.989,12.5,16.6251
13:19:32.011,12.625,17.2501
13:19:32.015,12.8438,17.3751
13:19:32.031,12.5625,17.3126
13:19:32.033,12.5938,19.0626
13:19:32.059,12.3125,18.3126
13:19:32.060,12.5625,17.2501
13:19:32.064,12.75,19.4376
13:19:32.101,12.7188,18.3126
13:19:32.104,12.6563,19.7501
13:19:32.107,12.4063,20.1251
13:19:32.112,13.4063,21.1876
13:19:32.114,13.3438,20.9376
13:19:32.120,13.1876,21.3751
13:19:32.152,12.5313,21.6876
13:19:32.153,12.6563,20.6876
13:19:32.156,12.1563,18.8126
13:19:32.159,11.125,18.3126
13:19:32.183,10.25,17.1251
13:19:32.185,9.6563,15.0626
13:19:32.190,9.5313,13.0625
13:19:32.202,7.9688,11.1875
13:19:32.209,7.9375,10.5
13:19:32.219,6.8125,9.6875
13:19:32.231,7.875,9.0625
13:19:32.239,7.0313,9.125
13:19:32.249,6.9063,8.1875
13:19:32.259,7.0938,8.6875
13:19:32.269,7.0313,8.625
13:19:32.279,6.7188,9
13:19:32.290,6.8438,8.9375
13:19:32.299,7.1563,8.125
13:19:32.309,6.0625,7.3125
13:19:32.319,5.3438,7
13:19:32.329,5.6563,6.375
13:19:32.339,4.8125,6.625
13:19:32.351,4.625,5.5
13:19:32.359,4.5313,4.625
13:19:32.369,4.2813,4.0625
13:19:32.379,3.9375,3
13:19:32.389,2.9375,2.3125
13:19:32.399,3.3125,1.0625
13:19:32.409,2.7188,0.6875
13:19:32.420,2.3125,0
13:19:32.429,1.9063,0.8125
13:19:32.439,1.9375,-0.4375
13:19:32.449,1.625,-1.75
13:19:32.459,1.5,-1.9375
13:19:32.470,0.6563,-2.5
13:19:32.479,0.875,-2.75
13:19:32.489,0.2188,-3.8125
13:19:32.499,-0.2188,-4.125
13:19:32.509,0.9688,-4.375
13:19:32.519,0.3125,-5.3125
13:19:32.529,-0.5625,-4.125
13:19:32.539,-0.4688,-5.4375
13:19:32.550,0.0313,-5.75
13:19:32.559,-0.1563,-4.75
13:19:32.569,1.2813,-3.8125
13:19:32.579,3.25,-3.0625
13:19:32.589,4.5313,-2.1875
13:19:32.600,6.2813,0.0625
13:19:32.609,6.9375,1.75
13:19:32.619,4.3125,3.875
13:19:32.629,1.5938,5.3125
13:19:32.639,-6.3125,5.4375
13:19:32.649,-15.5001,6.9375
13:19:32.659,-16.5313,8.9375
13:19:32.669,-16.8751,14.9376
13:19:32.682,-14.7501,20.0001
13:19:32.721,-14.4063,23.8751
13:19:32.723,-11.375,29.8126
13:19:32.725,-5.375,37.7501
13:19:32.728,7.7188,49.6877
13:19:32.731,20.2188,63.3127
13:19:32.758,33.9064,74.1253
13:19:32.761,42.6564,85.1878
13:19:32.764,47.9689,93.6879
13:19:32.771,48.5939,96.9379
13:19:32.784,48.0627,99.7504
13:19:32.817,47.6877,102.0004
13:19:32.822,48.4689,104.1254
13:19:32.823,49.5627,105.5004
13:19:32.824,51.3127,107.3129
13:19:32.832,54.0002,109.0004
13:19:32.867,54.3752,109.6879
13:19:32.870,53.3127,111.3129
13:19:32.872,52.2814,109.1879
13:19:32.874,50.7502,107.8754
13:19:32.879,50.0002,107.5629
13:19:32.890,51.0002,107.9379
13:19:32.899,50.5627,107.3754
13:19:32.909,50.0939,107.9379
13:19:32.919,50.0002,108.8754
13:19:32.929,50.2189,108.7504
13:19:32.939,49.6252,108.8129
13:19:32.949,49.0314,107.3129
13:19:32.959,48.8127,107.4379
13:19:32.969,48.9064,106.5004
13:19:32.979,49.4377,107.3129
13:19:32.994,48.2502,106.1879
13:19:33.004,48.0939,104.1254
13:19:33.014,45.9064,102.2504
13:19:33.024,44.7814,98.8129
13:19:33.034,42.7189,96.4379
13:19:33.044,41.5002,93.4379
13:19:33.084,40.2814,91.1879
13:19:33.086,41.0002,90.1878
13:19:33.089,40.2189,89.3753
13:19:33.090,40.6877,88.8753
13:19:33.094,40.1877,88.5628
13:19:33.104,40.5002,88.8128
13:19:33.115,39.1564,88.3128
13:19:33.126,39.6564,88.2503
13:19:33.134,38.7189,87.2503
13:19:33.144,38.5314,86.0628
13:19:33.154,37.8751,85.4378
13:19:33.164,37.2814,83.8128
13:19:33.174,36.5939,83.0003
13:19:33.184,35.4689,81.3753
13:19:33.195,33.8439,78.5628
13:19:33.204,32.5314,76.9378
13:19:33.214,31.2814,74.8753
13:19:33.224,29.8439,72.5628
13:19:33.234,28.5939,71.4378
13:19:33.244,28.1564,70.0003
13:19:33.255,28.3439,69.5628
13:19:33.265,28.3751,68.9378
13:19:33.275,28.6876,68.6878
13:19:33.284,28.7814,67.7503
13:19:33.294,27.7501,66.8753
13:19:33.304,27.6876,65.8753
13:19:33.317,26.6564,64.1252
13:19:33.325,25.3126,62.8752
13:19:33.334,24.4063,60.6252
13:19:33.344,22.5938,59.0627
13:19:33.354,21.4063,58.0627
13:19:33.366,20.8751,55.9377
13:19:33.383,21.3438,55.8127
13:19:33.385,21.0001,54.6877
13:19:33.399,21.9376,54.8127
13:19:33.404,22.5001,54.3752
13:19:33.414,23.0001,54.1252
13:19:33.424,23.2188,54.1252
13:19:33.434,22.1251,53.8752
13:19:33.449,21.5938,52.2502
13:19:33.459,20.8751,51.1877
13:19:33.469,19.8438,50.3752
13:19:33.479,19.3438,48.0002
13:19:33.490,18.1251,47.9377
13:19:33.506,18.3126,45.8752
13:19:33.511,17.6251,44.8127
13:19:33.554,18.2188,44.8752
13:19:33.556,17.6876,42.5627
13:19:33.558,17.2188,41.8752
13:19:33.561,16.8438,41.1877
13:19:33.566,16.0626,40.3752
13:19:33.570,15.6251,39.3126
13:19:33.600,14.7813,37.5001
13:19:33.603,14.0626,37.0001
13:19:33.604,13.8126,35.5001
13:19:33.612,13.9376,36.5626
13:19:33.648,14.7188,36.4376
13:19:33.650,15.6251,39.6252
13:19:33.652,18.0626,42.0627
13:19:33.657,18.6876,46.3127
13:19:33.662,20.3438,48.5627
13:19:33.674,21.2813,51.9377
13:19:33.679,21.8438,54.1252
13:19:33.690,22.2188,54.6877
13:19:33.699,22.0938,55.1252
13:19:33.709,21.8438,55.1252
13:19:33.719,21.0626,55.4377
13:19:33.729,20.4688,54.6252
13:19:33.739,20.0313,54.3752
13:19:33.750,19.7188,55.1877
13:19:33.764,20.8438,54.8127
13:19:33.774,20.8126,56.1252
13:19:33.784,21.4063,55.4377
13:19:33.794,21.2813,56.6252
13:19:33.809,22.0313,57.1252
13:19:33.814,21.4376,57.1252
13:19:33.826,21.3438,57.6877
13:19:33.834,20.8751,57.1877
13:19:33.844,21.3126,57.6252
13:19:33.854,21.1563,56.8752
13:19:33.864,20.9376,57.8752
13:19:33.874,20.9063,56.3127
13:19:33.884,20.9376,56.1252
13:19:33.895,20.9063,55.4377
13:19:33.904,20.0938,54.3127
13:19:33.914,19.3438,52.2502
13:19:33.924,17.7501,49.0002
13:19:33.934,17.4063,47.6252
13:19:33.944,16.5001,47.4377
13:19:33.954,16.6563,46.6252
13:19:33.965,16.9376,46.0002
13:19:33.974,16.2501,46.5627
13:19:33.984,17.1251,45.8752
13:19:33.995,16.9063,46.9377
13:19:34.005,17.1876,46.4377
13:19:34.014,17.6876,45.3127
13:19:34.024,17.8751,47.0627
13:19:34.034,17.4063,45.4377
13:19:34.045,17.6876,45.5002
13:19:34.054,17.6563,45.1877
13:19:34.064,17.0626,44.6877
13:19:34.076,16.6563,44.1877
13:19:34.087,17.0626,42.8127
13:19:34.103,15.5313,42.7502
13:19:34.106,15.2813,40.4377
13:19:34.123,14.9688,40.8127
13:19:34.125,15.4063,40.8127
13:19:34.134,15.0313,39.4377
13:19:34.144,15.0938,39.8127
13:19:34.154,15.5001,38.3751
13:19:34.164,15.2501,39.1877
13:19:34.175,15.0626,37.6876
13:19:34.204,15.0313,37.3751
13:19:34.207,14.9376,36.8126
13:19:34.209,14.3126,36.0626
13:19:34.214,14.6563,35.8751
13:19:34.249,14.5938,35.5001
13:19:34.250,13.6876,35.9376
13:19:34.255,14.4376,34.6251
13:19:34.256,13.8438,34.5626
13:19:34.288,13.7188,33.8751
13:19:34.291,13.5313,32.6251
13:19:34.296,12.9375,32.9376
13:19:34.299,13.3126,31.5001
13:19:34.312,12.1875,30.7501
13:19:34.318,12.7813,30.3751
13:19:34.325,12.125,29.6876
13:19:34.335,11.875,29.2501
13:19:34.363,10.5313,28.1251
13:19:34.366,11.5938,27.1876
13:19:34.373,10.5313,27.1251
13:19:34.375,10.2188,26.3126
13:19:34.385,9.5313,24.8751
13:19:34.394,9.3125,24.6876
13:19:34.404,9.0625,22.8751
13:19:34.414,8.2188,21.7501
13:19:34.424,7.75,20.5626
13:19:34.434,6.5625,19.3751
13:19:34.444,6.1875,18.6876
13:19:34.455,5.625,17.3126
13:19:34.464,5.125,15.7501
13:19:34.474,3.6563,14.3751
13:19:34.485,1.8438,12.5
13:19:34.494,1.9375,12.375
13:19:34.504,1.9688,11.1875
13:19:34.514,1.125,11.75
13:19:34.524,2.0938,13.5001
13:19:34.535,2.8438,14.7501
13:19:34.544,4.5,18.7501
13:19:34.554,5.6875,21.4376
13:19:34.563,6.25,24.5001
13:19:34.574,7.25,27.1251
13:19:34.584,7.6875,27.5001
13:19:34.594,6.7188,28.6251
13:19:34.604,5.8125,28.2501
13:19:34.614,5.4063,27.0001
13:19:34.624,4.4375,26.9376
13:19:34.634,2.9375,24.8126
13:19:34.644,1.9688,24.4376
13:19:34.654,1.4688,24.5626
13:19:34.679,1.2188,24.2501
13:19:34.694,0.8125,24.8126
13:19:34.701,1.5,24.6876
13:19:34.701,1.8438,25.0626
13:19:34.706,2.375,26.4376
13:19:34.717,2.75,26.2501
13:19:34.724,2.3125,26.6251
13:19:34.734,1.5313,25.8751
13:19:34.744,0.2188,26.6251
13:19:34.754,-0.9375,24.1251
13:19:34.764,-2.5313,22.3751
13:19:34.774,-3.4688,20.3126
13:19:34.785,-5.0625,19.5626
13:19:34.794,-4.9688,18.4376
13:19:34.805,-5.25,16.5001
13:19:34.814,-5.7813,15.1251
13:19:34.825,-5.0313,15.0001
13:19:34.834,-5.2813,14.8126
13:19:34.845,-4.5938,14.3751
13:19:34.854,-4.75,13.7501
13:19:34.864,-4.4375,13.5626
13:19:34.874,-5.5625,12.375
13:19:34.884,-5.8438,12.25
13:19:34.894,-5.75,13.4376
13:19:34.930,-4.8438,12.8125
13:19:34.933,-3.4063,13.0625
13:19:34.934,-3.0938,14.0626
13:19:34.937,-0.9375,17.0626
13:19:34.970,0.625,17.0001
13:19:34.974,2.0313,18.4376
13:19:34.976,5.0938,19.5001
13:19:34.980,6.625,22.2501
13:19:34.984,8.9688,23.6251
13:19:35.026,9.3125,24.0001
13:19:35.028,10.0625,25.9376
13:19:35.029,11.7188,24.9376
13:19:35.032,11.7813,27.0001
13:19:35.034,12.7188,26.8126
13:19:35.068,14.2813,26.1251
13:19:35.069,14.0313,27.4376
13:19:35.072,13.9063,26.3126
13:19:35.078,13.7813,25.6251
13:19:35.086,12.9063,25.2501
13:19:35.095,13.4688,25.8126
13:19:35.104,13.5001,25.5626
13:19:35.114,13.6876,25.3751
13:19:35.126,13.2813,25.2501
13:19:35.134,12.5,25.9376
13:19:35.144,13.6876,25.6251
13:19:35.157,13.4376,27.0001
13:19:35.164,14.0626,27.0626
13:19:35.174,13.8438,26.1876
13:19:35.184,12.9688,24.7501
13:19:35.194,11.7188,24.8751
13:19:35.204,11.625,23.8751
13:19:35.215,11.625,22.6876
13:19:35.224,10.8125,23.1876
13:19:35.234,10.2188,23.4376
13:19:35.245,10.375,22.6876
13:19:35.254,11.4375,22.5001
13:19:35.265,11.1563,21.5001
13:19:35.274,11.0313,21.8751
13:19:35.284,10.75,20.8751
13:19:35.294,11.3125,20.1251
13:19:35.304,9.9688,19.0626
13:19:35.314,9.8438,19.0626
13:19:35.324,9.75,18.7501
13:19:35.335,9.8125,17.6251
13:19:35.344,9.125,17.1876
13:19:35.354,9.0625,18.0001
13:19:35.365,10.25,19.6251
13:19:35.374,11.5313,20.6251
13:19:35.384,12.1875,22.8126
13:19:35.401,13.8126,27.0001
13:19:35.415,14.8126,30.1251
13:19:35.418,15.3438,32.1251
13:19:35.424,16.0626,33.0001
13:19:35.434,15.5938,34.3126
13:19:35.445,15.0938,34.4376
13:19:35.454,13.8438,34.0001
13:19:35.464,13.5313,33.1251
13:19:35.476,12.0313,32.6251
13:19:35.484,11.75,32.1876
13:19:35.495,11.5625,31.5626
13:19:35.504,10.6875,29.6251
13:19:35.514,10.0938,30.3126
13:19:35.525,10.0938,29.5626
13:19:35.535,8.6563,28.8126
13:19:35.544,7.25,27.8126
13:19:35.554,5.9688,27.5626
13:19:35.564,4.8438,26.4376
13:19:35.574,4.0625,25.3751
13:19:35.584,3.7813,24.9376
13:19:35.619,2.4063,23.6876
13:19:35.621,2.7188,25.5001
13:19:35.625,2.9375,24.3751
13:19:35.649,3.3438,23.5001
13:19:35.654,3.25,22.6876
13:19:35.654,2.8438,22.4376
13:19:35.679,2.5938,19.9376
13:19:35.680,1,16.8751
13:19:35.684,-0.5313,14.6251
13:19:35.712,-2.75,13.8126
13:19:35.714,-4.4375,10.4375
13:19:35.717,-5.7188,8.375
13:19:35.722,-7.5313,6.75
13:19:35.728,-7.7188,7.4375
13:19:35.753,-6.7813,7.125
13:19:35.756,-6.3438,7.375
13:19:35.758,-6.4375,8.375
13:19:35.767,-5.5625,8.5
13:19:35.775,-4.5313,8.5
13:19:35.784,-4.25,7.5
13:19:35.794,-5.125,6.3125
13:19:35.804,-6.0625,5.75
13:19:35.814,-6.6875,4.9375
13:19:35.824,-7.8125,2.8125
13:19:35.838,-9.5938,0.25
13:19:35.846,-11,0.1875
13:19:35.854,-11.1875,-1.0625
13:19:35.864,-11.125,-1.875
13:19:35.874,-10.2813,-2
13:19:35.884,-10.1563,-1.75
13:19:35.894,-9.9375,-2.8125
13:19:35.904,-10,-2.3125
13:19:35.914,-9.4063,-2.1875
13:19:35.925,-9.2813,-2.5625
13:19:35.934,-9.6563,-4.1875
13:19:35.944,-10.625,-3.5625
13:19:35.955,-10.6563,-4.875
13:19:35.973,-11.5313,-6
13:19:35.979,-11.25,-6.5625
13:19:35.994,-11.0313,-6.8125
13:19:35.996,-9.5938,-5.4375
13:19:36.004,-8.2813,-4.8125
13:19:36.014,-8.2813,-4.8125
13:19:36.026,-7.0313,-4
13:19:36.034,-6.6563,-4.6875
13:19:36.044,-6.5625,-3.75
13:19:36.054,-5.4688,-4.3125
13:19:36.064,-5.5938,-2.4375
13:19:36.074,-4.5625,-3
13:19:36.085,-4.4063,-3.3125
13:19:36.094,-4.1563,-2
13:19:36.104,-3.7813,-3.25
13:19:36.115,-3.9688,-2.6875
13:19:36.124,-3.5313,-3.3125
13:19:36.134,-4.25,-3.75
13:19:36.144,-4.75,-4.6875
13:19:36.154,-6.1563,-5.9375
13:19:36.165,-6.625,-7.6875
13:19:36.174,-7.6563,-9.25
13:19:36.184,-9.1563,-10.25
13:19:36.194,-9.3125,-10.6875
13:19:36.205,-9.3125,-11.125
13:19:36.220,-8.7188,-9.5625
13:19:36.225,-7.4063,-9.3125
13:19:36.234,-5.75,-6.0625
13:19:36.244,-4.2813,-2.4375
13:19:36.254,-2.2813,1
13:19:36.264,0,4.9375
13:19:36.274,2,10.0625
13:19:36.285,3.2813,12.125
13:19:36.296,4.3125,15.7501
13:19:36.306,6.1875,16.8751
13:19:36.315,6.375,19.4376
13:19:36.324,7.375,19.0001
13:19:36.335,7.1875,19.5001
13:19:36.344,6.7813,19.5626
13:19:36.354,6.6563,20.5626
13:19:36.364,6.4063,19.8751
13:19:36.389,7,21.0626
13:19:36.391,7.9375,21.9376
13:19:36.394,7.9375,23.1251
13:19:36.404,9.3438,24.4376
13:19:36.434,9.5,24.0626
13:19:36.436,9.7188,26.0626
13:19:36.441,9.9063,26.0626
13:19:36.447,9.6563,25.8751
13:19:36.461,9.0313,25.8751
13:19:36.464,9.0938,25.8751
13:19:36.491,9.0938,25.8751
13:19:36.493,8.2813,24.3751
13:19:36.495,8.0625,25.8126
13:19:36.528,7.9688,24.0001
13:19:36.531,7,21.8126
13:19:36.533,6.4063,20.3751
13:19:36.538,6.4375,19.2501
13:19:36.545,5.3125,17.0001
13:19:36.558,4.4063,15.3751
13:19:36.564,3.5313,14.0626
13:19:36.574,2.7813,14.2501
13:19:36.584,2.5625,14.3751
13:19:36.594,2.4688,13.7501
13:19:36.604,1.7813,12.3125
13:19:36.614,2.125,13.4376
13:19:36.624,3.25,13.5626
13:19:36.634,2.25,12.1875
13:19:36.644,1.375,12.25
13:19:36.654,1.6875,11.8125
13:19:36.665,0.5625,9.625
13:19:36.674,-0.5625,9.25
13:19:36.695,-0.7813,8.625
13:19:36.698,-1.8125,6.75
13:19:36.712,-3.125,4.75
13:19:36.728,-4.0313,4.6875
13:19:36.730,-4.5313,3.4375
13:19:36.735,-4.6563,2
13:19:36.745,-5.1563,0.9375
13:19:36.754,-5.0625,0.375
13:19:36.764,-6.0938,1.1875
13:19:36.774,-6,-0.875
13:19:36.785,-6.875,-2.5
13:19:36.794,-7.4688,-2.6875
13:19:36.804,-7.6875,-3.875
13:19:36.814,-7.9375,-4.5
13:19:36.824,-8.375,-5.5
13:19:36.834,-8.5625,-5.25
13:19:36.844,-8.1563,-6.25
13:19:36.854,-8.7813,-7.25
13:19:36.865,-9.5,-6.9375
13:19:36.874,-9.5625,-7.75
13:19:36.884,-9.6875,-8.8125
13:19:36.894,-10.4375,-9.5625
13:19:36.923,-11.5625,-10.125
13:19:36.924,-11.1563,-10
13:19:36.928,-11.4688,-11.125
13:19:36.934,-11.1875,-11.25
13:19:36.944,-11.6563,-11.375
13:19:36.954,-11.3125,-11.875
13:19:36.970,-11.8125,-11.5
13:19:36.975,-12.0938,-13.1251
13:19:36.985,-11.7188,-12.3125
13:19:36.994,-12.5938,-13.6876
13:19:37.004,-13.0938,-14.7501
13:19:37.014,-13.4063,-14.5001
13:19:37.024,-12.625,-15.8126
13:19:37.034,-12.3125,-15.0626
13:19:37.044,-12.5625,-15.8751
13:19:37.054,-11.9375,-14.4376
13:19:37.064,-11.875,-14.7501
13:19:37.074,-12.3438,-15.3751
13:19:37.084,-12.4063,-14.0626
13:19:37.121,-11.125,-13.6251
13:19:37.122,-10.3125,-10.3125
13:19:37.124,-8.6563,-8.0625
13:19:37.127,-6.625,-5.1875
13:19:37.163,-5.0313,-0.3125
13:19:37.166,-3.7188,2.125
13:19:37.167,-2.25,5.375
13:19:37.170,-1.6875,6.875
13:19:37.178,-1.5,8.9375
13:19:37.211,-1.0938,8.8125
13:19:37.213,-0.9688,10.5
13:19:37.216,13.4376,14.3751
13:19:37.224,5.5625,14.2501
13:19:37.235,-0.4688,10.75
13:19:37.238,-4.5938,7.875
13:19:37.270,-7.875,5.375
13:19:37.272,-10.0938,4.125
13:19:37.289,-11.7188,5.375
13:19:37.303,-11.8438,5.1875
13:19:37.304,-11.3125,5.375
13:19:37.305,-10.0625,7.1875
13:19:37.320,-8.25,8.125
13:19:37.336,-6.2188,9.6875
13:19:37.337,-4.1563,10.8125
13:19:37.339,-2.2813,11.75
13:19:37.344,-1.3125,13.9376
13:19:37.359,-0.9063,12.125
13:19:37.365,0.125,11.625
13:19:37.374,0.3125,10.75
13:19:37.384,0.2813,9.5
13:19:37.394,1.0625,7
13:19:37.404,1.5313,6.8125
13:19:37.414,2.375,3.9375
13:19:37.425,2.4375,2.75
13:19:37.435,3.2188,1.875
13:19:37.445,3.625,0.8125
13:19:37.454,4.6875,-1.1875
13:19:37.464,4.7188,-1.8125
13:19:37.474,4.7188,-0.625
13:19:37.484,5.0938,0.125
13:19:37.494,4.9688,-0.8125
13:19:37.504,5.75,-1.6875
13:19:37.515,7.125,-1.25
13:19:37.525,8.4063,-1.9375
13:19:37.535,9.4375,-1.375
13:19:37.544,11.3125,-1.3125
13:19:37.554,14.3438,-2.3125
13:19:37.564,16.2813,-2.8125
13:19:37.574,18.0626,-2.75
13:19:37.585,20.3751,-4.8125
13:19:37.594,21.7188,-5.75
13:19:37.604,22.1563,-8.125
13:19:37.614,24.0313,-7.9375
13:19:37.624,25.2813,-9.375
13:19:37.634,25.3126,-11.0625
13:19:37.644,25.0313,-13.6251
13:19:37.654,25.1563,-16.8126
13:19:37.664,25.8126,-18.3751
13:19:37.674,26.6564,-20.1876
13:19:37.684,26.6251,-23.8126
13:19:37.694,25.6876,-26.5001
13:19:37.704,25.8438,-30.1251
13:19:37.715,25.6251,-32.0001
13:19:37.724,25.9688,-35.2501
13:19:37.734,25.5001,-36.8751
13:19:37.744,25.7813,-39.0001
13:19:37.754,25.7188,-40.8752
13:19:37.769,24.8126,-43.6877
13:19:37.779,24.7188,-44.5627
13:19:37.789,23.7813,-47.5002
13:19:37.799,22.2813,-49.8752
13:19:37.809,21.3751,-51.8127
13:19:37.819,20.5313,-54.8752
13:19:37.829,18.8438,-56.7502
13:19:37.839,17.6876,-57.3752
13:19:37.874,16.1563,-60.2502
13:19:37.876,13.5313,-62.5627
13:19:37.878,11.875,-63.3127
13:19:37.881,9.875,-66.4378
13:19:37.919,8,-69.2503
13:19:37.920,5.5313,-71.1878
13:19:37.924,4.4063,-73.4378
13:19:37.926,1.9375,-75.9378
13:19:37.933,-1.6875,-79.3128
13:19:37.966,-4.0625,-82.1253
13:19:37.968,-6.4063,-82.7503
13:19:37.968,-8.375,-85.2503
13:19:37.996,-9.875,-85.9378
13:19:37.997,-10.9375,-84.8128
13:19:38.040,-11,-83.3128
13:19:38.042,-12.25,-81.3753
13:19:38.056,-12.4375,-77.0003
13:19:38.056,-12.3125,-75.7503
13:19:38.057,-13.0313,-74.2503
13:19:38.071,-14.0001,-73.0003
13:19:38.074,-14.3126,-72.4378
13:19:38.079,-16.5313,-72.5628
13:19:38.079,-18.0938,-72.3128
13:19:38.084,-19.0938,-73.6253
13:19:38.094,-20.7188,-75.0628
13:19:38.109,-22.1251,-74.7503
13:19:38.114,-22.5313,-76.1253
13:19:38.124,-24.4688,-75.5628
13:19:38.134,-25.1876,-77.1253
13:19:38.145,-25.0313,-76.3128
13:19:38.154,-26.8126,-75.4378
13:19:38.164,-27.4689,-75.6253
13:19:38.175,-28.4689,-75.3753
13:19:38.204,-29.1251,-75.4378
13:19:38.206,-29.6564,-74.3753
13:19:38.208,-30.1251,-74.8753
13:19:38.215,-31.1876,-74.6253
13:19:38.224,-30.6251,-74.8128
13:19:38.234,-31.6251,-74.6253
13:19:38.244,-31.7814,-75.5003
13:19:38.255,-32.6564,-75.7503
13:19:38.265,-32.9064,-77.6878
13:19:38.275,-32.5626,-77.7503
13:19:38.284,-33.8126,-76.9378
13:19:38.294,-33.7501,-77.1878
13:19:38.304,-32.8751,-77.5628
13:19:38.314,-33.4064,-76.3753
13:19:38.324,-32.6876,-75.2503
13:19:38.334,-32.4064,-74.8128
13:19:38.344,-31.9376,-74.0628
13:19:38.354,-31.5939,-73.5003
13:19:38.364,-31.5314,-73.1878
13:19:38.374,-30.7501,-71.7503
13:19:38.384,-30.6876,-71.7503
13:19:38.394,-30.1876,-70.7503
13:19:38.404,-30.2189,-69.5628
13:19:38.414,-29.3126,-70.3753
13:19:38.424,-29.4689,-69.6253
13:19:38.436,-28.8751,-69.8128
13:19:38.445,-28.3751,-70.0003
13:19:38.455,-28.4689,-68.3753
13:19:38.464,-28.1564,-69.0628
13:19:38.474,-27.5314,-68.6253
13:19:38.489,-27.7814,-68.1253
13:19:38.495,-27.2814,-67.7503
13:19:38.504,-26.6876,-67.1878
13:19:38.537,-26.5314,-67.0628
13:19:38.539,-26.5001,-65.8753
13:19:38.542,-25.2501,-66.5003
13:19:38.546,-25.7501,-65.1252
13:19:38.580,-25.2188,-66.0003
13:19:38.582,-24.5626,-64.6877
13:19:38.585,-24.7501,-64.6877
13:19:38.586,-23.8126,-64.1877
13:19:38.634,-24.5938,-64.0627
13:19:38.636,-23.5626,-63.8752
13:19:38.671,-23.6876,-64.1252
13:19:38.673,-23.1876,-62.5627
13:19:38.690,-22.8438,-61.1252
13:19:38.690,-23.0001,-61.8127
13:19:38.692,-22.2501,-61.3752
13:19:38.693,-22.7501,-61.1877
13:19:38.699,-22.2501,-61.0627
13:19:38.710,-22.6563,-59.6877
13:19:38.720,-22.1563,-60.5002
13:19:38.729,-22.6563,-59.8752
13:19:38.740,-22.6251,-60.1252
13:19:38.749,-22.1876,-59.2502
13:19:38.760,-22.5313,-59.1252
13:19:38.770,-21.7813,-59.8127
13:19:38.779,-21.7501,-58.2502
13:19:38.789,-21.5313,-58.5002
13:19:38.800,-21.7501,-57.5627
13:19:38.809,-20.7188,-57.3752
13:19:38.819,-20.0001,-57.5627
13:19:38.829,-20.1251,-57.5002
13:19:38.839,-18.0626,-54.1252
13:19:38.849,-15.5938,-48.6252
13:19:38.865,-14.0313,-45.2502
13:19:38.870,-11.625,-38.7501
13:19:38.879,-10,-35.9376
13:19:38.889,-8.5313,-32.5001
13:19:38.899,-7.1875,-30.1251
13:19:38.909,-7.125,-28.3126
13:19:38.919,-6.4375,-26.3751
13:19:38.929,-5.875,-25.3126
13:19:38.939,-5.3438,-26.0001
13:19:38.949,-5.0313,-23.8126
13:19:38.959,-4.7813,-23.7501
13:19:38.969,-4.375,-21.1876
13:19:38.979,-4.1875,-21.4376
13:19:38.989,-4.0313,-20.3126
13:19:38.999,-3.2813,-20.0001
13:19:39.010,-3.0313,-18.5626
13:19:39.019,-2.25,-17.6251
13:19:39.029,-2.75,-16.0001
13:19:39.040,-1.5313,-15.5626
13:19:39.050,-2,-14.0626
13:19:39.059,-1.4063,-13
13:19:39.071,-1.3438,-12.3125
13:19:39.079,-0.6563,-11.6875
13:19:39.090,-0.5938,-11.9375
13:19:39.099,-0.5938,-12.25
13:19:39.110,-0.6875,-11.6875
13:19:39.119,-1.4688,-13.5626
13:19:39.130,-1.25,-12.875
13:19:39.139,-2.0625,-14.8126
13:19:39.150,-1.5,-15.1251
13:19:39.159,-2.375,-14.5626
13:19:39.170,-1.8125,-14.6876
13:19:39.180,-1.9375,-14.0001
13:19:39.189,-1.5313,-14.5626
13:19:39.200,-0.9688,-12.625
13:19:39.209,-0.5938,-12.8125
13:19:39.219,-0.375,-13.3126
13:19:39.229,-0.75,-11.6875
13:19:39.240,0.3438,-12.0625
13:19:39.249,0.5,-11.375
13:19:39.259,0.3438,-12.125
13:19:39.269,0.7188,-11.3125
13:19:39.289,0.3438,-12.25
13:19:39.292,0.625,-11.0625
13:19:39.320,0.5,-12.6875
13:19:39.322,1.0625,-10.75
13:19:39.324,1.4375,-12.0625
13:19:39.331,2,-10.875
13:19:39.360,2.0938,-11.3125
13:19:39.396,2.4688,-10.3125
13:19:39.456,2.7188,-10.5625
13:19:39.458,2.8438,-10.1875
13:19:39.458,3.875,-10
13:19:39.458,4.2188,-9.5625
13:19:39.489,4.5625,-9.0625
13:19:39.490,5.1875,-8.0625
13:19:39.493,5.5625,-8.4375
13:19:39.493,6.4688,-6
13:19:39.493,7.7188,-5.9375
13:19:39.495,8.3438,-5.1875
13:19:39.505,9.3125,-3.75
13:19:39.516,10.1875,-3.125
13:19:39.524,11.0625,-0.25
13:19:39.534,12.3125,-0.125
13:19:39.544,12.875,0
13:19:39.554,14.2501,1.9375
13:19:39.565,15.1251,2.1875
13:19:39.576,15.0938,3.0625
13:19:39.585,15.0313,3.125
13:19:39.594,13.7501,2.5
13:19:39.605,14.3126,3.3125
13:19:39.620,13.3126,3.4375
13:19:39.626,13.1251,3.375
13:19:39.635,12.6875,3.5
13:19:39.645,12.4375,2.875
13:19:39.654,9.6875,0.6875
13:19:39.664,9.4375,-0.125
13:19:39.674,8.9688,-1
13:19:39.686,8.5313,-2.5625
13:19:39.694,7.5313,-3.375
13:19:39.705,7.2813,-3.9375
13:19:39.715,5.9688,-5.0625
13:19:39.724,5.375,-4.8125
13:19:39.735,5.7188,-4.75
13:19:39.744,6.0625,-3.625
13:19:39.754,6.6563,-1
13:19:39.767,7.3125,2.75
13:19:39.775,8.8125,4.75
13:19:39.784,8.7188,8.125
13:19:39.794,9.5,8.8125
13:19:39.805,9,9.75
13:19:39.816,8.2188,9.4375
13:19:39.826,8.7813,9.5
13:19:39.834,7.5625,8.75
13:19:39.845,6.4375,8.5
13:19:39.855,6.4375,6.75
13:19:39.864,5.5938,5.875
13:19:39.874,4.7813,5.5625
13:19:39.885,4.3438,4.0625
13:19:39.895,3.5625,3.6875
13:19:39.906,3.9063,3.5625
13:19:39.924,3.1563,2.625
13:19:39.925,2.4688,2.75
13:19:39.941,2.4063,2.625
13:19:39.955,2.125,1.25
13:19:39.958,1.5,0.5
13:19:39.978,1.3125,0.6875
13:19:39.981,1.1563,0.0625
13:19:40.011,0.2188,-1.375
13:19:40.013,-0.0313,-1.9375
13:19:40.016,-1.2813,-2.875
13:19:40.018,-1.625,-4.625
13:19:40.049,-2.4063,-6.875
13:19:40.051,-3.7813,-9.0625
13:19:40.053,-4.7188,-10.75
13:19:40.059,-5.375,-12.375
13:19:40.075,-5.9375,-14.2501
13:19:40.078,-6.8125,-15.1876
13:19:40.106,-6.7188,-15.6876
13:19:40.109,-7.375,-15.4376
13:19:40.110,-7.0938,-16.3126
13:19:40.118,-7.0625,-16.3751
13:19:40.126,-7.5625,-17.3126
13:19:40.155,-8.125,-17.7501
13:19:40.157,-8.6563,-16.6251
13:19:40.159,-8.3438,-18.5626
13:19:40.165,-8.4688,-19.5626
13:19:40.176,-8.625,-18.6876
13:19:40.184,-9.1563,-19.4376
13:19:40.196,-8.9375,-20.3751
13:19:40.204,-9.5,-22.0626
13:19:40.215,-9.5313,-21.1876
13:19:40.224,-9.8125,-22.2501
13:19:40.235,-10.0313,-22.3751
13:19:40.245,-9.9063,-24.2501
13:19:40.255,-10.1875,-24.3126
13:19:40.264,-10.5938,-25.2501
13:19:40.275,-11,-25.0626
13:19:40.284,-10.8438,-26.1876
13:19:40.294,-10.6563,-25.9376
13:19:40.306,-11.5,-26.5001
13:19:40.314,-12.125,-26.8126
13:19:40.326,-11.8438,-27.3751
13:19:40.334,-11.5313,-28.0626
13:19:40.345,-11.6875,-28.4376
13:19:40.354,-11.5938,-28.5001
13:19:40.365,-11.875,-28.8751
13:19:40.374,-11.7188,-28.6876
13:19:40.386,-12.1563,-29.3126
13:19:40.394,-11.7813,-29.0626
13:19:40.405,-12.125,-29.9376
13:19:40.416,-12.5938,-29.1876
13:19:40.425,-12.8125,-30.3126
13:19:40.435,-12.1563,-30.0626
13:19:40.446,-11.9375,-30.0001
13:19:40.455,-12.5,-29.5001
13:19:40.465,-12.4063,-29.1251
13:19:40.474,-11.875,-30.6251
13:19:40.486,-12.2813,-29.1876
13:19:40.495,-11.625,-31.0626
13:19:40.505,-12.4375,-29.5626
13:19:40.516,-11.625,-30.8126
13:19:40.533,-12.0625,-30.0001
13:19:40.537,-11.5,-30.8751
13:19:40.545,-11.9688,-30.2501
13:19:40.554,-11.75,-31.0626
13:19:40.565,-12.2188,-30.8751
13:19:40.574,-12.2188,-31.2501
13:19:40.586,-11.8438,-31.1876
13:19:40.594,-11.0313,-31.1251
13:19:40.605,-11.6875,-30.7501
13:19:40.614,-11.6875,-31.3751
13:19:40.625,-11.75,-31.1876
13:19:40.635,-11.1563,-31.8751
13:19:40.645,-12.0625,-31.3126
13:19:40.654,-12,-31.6251
13:19:40.665,-11.875,-33.1251
13:19:40.674,-11.3438,-31.3126
13:19:40.685,-10.3125,-29.3126
13:19:40.695,-9.2188,-28.1876
13:19:40.704,-7.7813,-24.6876
13:19:40.714,-6.0938,-21.1876
13:19:40.725,-4.125,-15.3126
13:19:40.734,-2.0938,-12.75
13:19:40.764,-0.4688,-8.5
13:19:40.789,0.375,-6.8125
13:19:40.792,1,-4
13:19:40.822,1.6563,-4.25
13:19:40.855,1.6563,-1.75
13:19:40.857,2.1875,-2.8125
13:19:40.862,2,-1.625
13:19:40.863,1.625,-1.5
13:19:40.863,1.9375,-1.0625
13:19:40.870,2,-0.6875
13:19:40.898,2.5313,-0.1875
13:19:40.900,2.625,0.5625
13:19:40.903,3.25,0.75
13:19:40.936,2.9688,1.375
13:19:40.937,3.6875,3.1875
13:19:40.941,3.9063,3.125
13:19:40.942,3.9375,4
13:19:40.969,4.1563,3.3125
13:19:40.973,4.1875,3.0625
13:19:40.974,4.2188,3.125
13:19:40.979,3.7188,4.1875
13:19:40.989,3.4063,2.375
13:19:41.000,3.1875,1.625
13:19:41.010,1.9375,0.3125
13:19:41.019,0.9063,-1.6875
13:19:41.029,-0.0313,-5.875
13:19:41.040,0.0938,-5.9375
13:19:41.049,-0.0625,-6
13:19:41.061,-0.4375,-6.6875
13:19:41.070,0.0938,-5.125
13:19:41.080,0.5938,-5.8125
13:19:41.090,-0.4375,-6
13:19:41.099,-1.3438,-6.3125
13:19:41.110,-0.9063,-6.1875
13:19:41.121,-1.3438,-7.875
13:19:41.132,-1.5313,-7.8125
13:19:41.140,-2.1563,-7.25
13:19:41.151,-1.9375,-8.4375
13:19:41.161,-2.6563,-9.1875
13:19:41.171,-2.9063,-9.125
13:19:41.180,-2.625,-10.1875
13:19:41.189,-3.7188,-10.6875
13:19:41.200,-4.5938,-10.8125
13:19:41.210,-4.0625,-11.8125
13:19:41.220,-4.9375,-12.3125
13:19:41.233,-4.9063,-12.375
13:19:41.249,-5.2813,-13.6251
13:19:41.255,-5.2813,-13.4376
13:19:41.263,-5.625,-13.9376
13:19:41.269,-5.9063,-14.0626
13:19:41.287,-6.2188,-14.9376
13:19:41.294,-7.1875,-15.3751
13:19:41.303,-6.8438,-16.1251
13:19:41.310,-7.625,-16.1876
13:19:41.320,-7.625,-17.0001
13:19:41.330,-7.625,-17.6876
13:19:41.342,-7.5625,-17.1251
13:19:41.351,-7.6875,-18.1251
13:19:41.360,-8.0938,-17.9376
13:19:41.371,-8.5313,-17.8751
13:19:41.380,-7.9688,-17.9376
13:19:41.392,-8.6563,-18.1251
13:19:41.400,-8.2188,-19.0001
13:19:41.410,-8.4688,-19.1251
13:19:41.420,-8.3125,-18.6251
13:19:41.430,-8.6875,-19.8751
13:19:41.440,-9.2813,-19.1251
13:19:41.451,-9.4375,-20.3126
13:19:41.464,-9.5938,-20.6876
13:19:41.470,-9.3125,-20.3751
13:19:41.503,-9.3125,-21.6876
13:19:41.505,-9.0938,-20.1251
13:19:41.508,-9.3438,-21.3126
13:19:41.511,-9.3438,-21.2501
13:19:41.549,-9.1563,-21.1876
13:19:41.551,-9.75,-21.1251
13:19:41.554,-9.5313,-21.1876
13:19:41.560,-10.2813,-21.6251
13:19:41.561,-9.8438,-23.1876
13:19:41.570,-10.9063,-23.6251
13:19:41.600,-10.9375,-22.9376
13:19:41.602,-10.9688,-24.3126
13:19:41.604,-10.6563,-23.6251
13:19:41.612,-11.1563,-23.5626
13:19:41.637,-10.2188,-23.0001
13:19:41.641,-9.75,-20.6876
13:19:41.641,-7.6563,-17.3126
13:19:41.650,-5.875,-14.3751
13:19:41.660,-3.9375,-9.25
13:19:41.670,-1.9063,-5.8125
13:19:41.680,-0.5313,-2
13:19:41.690,-0.0313,0.625
13:19:41.699,1.4375,2
13:19:41.709,1.5,2.875
13:19:41.723,1.6875,3.75
13:19:41.730,1.5625,4.125
13:19:41.740,2.0313,5.375
13:19:41.750,2,4.8125
13:19:41.760,2.0313,4.25
13:19:41.770,2.4063,5.4375
13:19:41.780,2.1875,5.875
13:19:41.790,2.5,6.1875
13:19:41.800,3.125,6
13:19:41.810,3.0625,7
13:19:41.819,3.0625,6.6875
13:19:41.831,2.875,7.5625
13:19:41.840,2.6563,7.75
13:19:41.851,2.8125,8.1875
13:19:41.861,2.7188,8.1875
13:19:41.870,3.125,7.5625
13:19:41.885,2,6.6875
13:19:41.895,1.8125,6.875
13:19:41.906,1.7813,6.9375
13:19:41.915,1.625,4.9375
13:19:41.926,0.8125,2.625
13:19:41.935,-0.4688,1.625
13:19:41.945,0.1563,0.25
13:19:41.955,-0.625,-1.375
13:19:41.965,-1.5313,-2.75
13:19:41.975,-1.4375,-1.9375
13:19:41.985,-1.0938,-2.4375
13:19:41.995,-0.5,-2.6875
13:19:42.005,-0.9375,-2.6875
13:19:42.016,-1.375,-3.3125
13:19:42.042,-1.5,-1.875
13:19:42.044,-1.375,-3.5625
13:19:42.047,-2.0313,-3.9375
13:19:42.055,-1.0313,-3.5625
13:19:42.065,-1.2813,-4.0625
13:19:42.076,-1.6563,-5.1875
13:19:42.085,-2.2813,-4.5625
13:19:42.105,-2.0938,-6.125
13:19:42.108,-2.25,-6.875
13:19:42.118,-2.0938,-7.8125
13:19:42.125,-2.4063,-8.5
13:19:42.141,-2.0625,-8.125
13:19:42.149,-2.4063,-9.3125
13:19:42.156,-2.2813,-9.375
13:19:42.166,-2.6875,-10.3125
13:19:42.175,-3.2188,-10.0625
13:19:42.185,-3.1875,-11.8125
13:19:42.195,-3.8125,-11.8125
13:19:42.206,-3.5625,-12.0625
13:19:42.215,-3.25,-13.2501
13:19:42.225,-3.9375,-13.3126
13:19:42.238,-4.0625,-13.2501
13:19:42.269,-4.25,-14.5001
13:19:42.272,-4.0938,-13.4376
13:19:42.274,-4.1875,-14.3751
13:19:42.276,-4.375,-14.6876
13:19:42.306,-3.8125,-14.4376
13:19:42.310,-4.0313,-14.9376
13:19:42.316,-4.3438,-14.0626
13:19:42.318,-3.9375,-16.0626
13:19:42.351,-5.0938,-14.9376
13:19:42.354,-4.5313,-16.0001
13:19:42.355,-4.6563,-15.0001
13:19:42.382,-3.8438,-16.5626
13:19:42.383,-5.0625,-15.4376
13:19:42.386,-5.125,-17.2501
13:19:42.390,-5.5,-16.3126
13:19:42.401,-5.3125,-17.0001
13:19:42.406,-5.1563,-17.1876
13:19:42.415,-5.5938,-17.9376
13:19:42.425,-6.2813,-18.0626
13:19:42.435,-5.625,-18.1251
13:19:42.445,-6.0313,-19.1876
13:19:42.455,-5.9375,-18.5626
13:19:42.465,-6,-19.8751
13:19:42.476,-6,-19.7501
13:19:42.485,-6.2813,-20.7501
13:19:42.495,-5.7188,-20.3751
13:19:42.505,-5.9688,-21.0626
13:19:42.515,-6.625,-21.0001
13:19:42.525,-5.9375,-20.6876
13:19:42.535,-6,-19.1251
13:19:42.546,-5.125,-17.6876
13:19:42.555,-3.5,-15.1251
13:19:42.565,-1.0625,-11.25
13:19:42.588,0.125,-6.0625
13:19:42.604,2.125,-2
13:19:42.605,4.25,0.375
13:19:42.620,4.6875,3.0625
13:19:42.635,5.5938,5.875
13:19:42.638,5.5938,5.5625
13:19:42.640,6.0938,7.0625
13:19:42.646,5.9375,6.875
13:19:42.655,6.7188,8.375
13:19:42.665,6.1563,6.9375
13:19:42.675,6.2813,8
13:19:42.685,6.25,7.4375
13:19:42.696,6.5,9.4375
13:19:42.705,6.3438,7.9375
13:19:42.715,6.6875,9.5625
13:19:42.725,7.0938,9.3125
13:19:42.735,6.625,9.25
13:19:42.745,6.9688,10.75
13:19:42.755,6.9063,11.0625
13:19:42.765,6.9063,11.125
13:19:42.775,7.0313,10.8125
13:19:42.785,6.8438,10.1875
13:19:42.796,6.9375,9.4375
13:19:42.807,6.3438,10.0625
13:19:42.819,6.75,8.5625
13:19:42.827,5.375,6.4375
13:19:42.838,4.8438,5.5
13:19:42.852,4.5938,3.8125
13:19:42.856,3.4688,1.9375
13:19:42.865,3.0625,0.6875
13:19:42.877,2.2813,0.625
13:19:42.885,3.4063,-0.5
13:19:42.896,2.4063,-0.5
13:19:42.905,2,-0.875
13:19:42.917,1.9375,-0.3125
13:19:42.940,2.625,-0.5
13:19:42.944,2.3438,-1.375
13:19:42.946,1.6563,-1.75
13:19:42.988,1.3438,-1
13:19:42.989,1.9688,-2.0625
13:19:42.991,1.3438,-2.0625
13:19:42.995,0.875,-3.6875
13:19:43.000,0.5,-3.375
13:19:43.006,1,-3.8125
13:19:43.030,0.6875,-5
13:19:43.033,-0.3438,-6.0625
13:19:43.037,-0.25,-4.9375
13:19:43.069,0.125,-6.25
13:19:43.071,-0.6875,-6.375
13:19:43.077,-1.0938,-6.5
13:19:43.078,-1.2813,-8.3125
13:19:43.105,-1.4375,-8.9375
13:19:43.108,-0.9063,-8.5
13:19:43.112,-1.4375,-10
13:19:43.115,-1.5,-9.1875
13:19:43.125,-1.625,-10.5
13:19:43.137,-2.1563,-11.25
13:19:43.146,-2.3438,-10.6875
13:19:43.155,-2.5,-10.5
13:19:43.165,-1.875,-11.4375
13:19:43.175,-2.1563,-12.625
13:19:43.186,-3,-12.875
13:19:43.195,-2.75,-12.75
13:19:43.205,-3.125,-13.7501
13:19:43.216,-3.0313,-13.9376
13:19:43.229,-2.7188,-14.6251
13:19:43.235,-3.6563,-14.6876
13:19:43.245,-3.3438,-14.7501
13:19:43.256,-3.3438,-14.8751
13:19:43.268,-3.9063,-15.1876
13:19:43.279,-3.3438,-15.3751
13:19:43.288,-3.5625,-15.7501
13:19:43.295,-3.0625,-14.2501
13:19:43.323,-3.25,-15.6251
13:19:43.325,-3.0625,-15.1876
13:19:43.328,-3.0625,-15.7501
13:19:43.335,-3.25,-15.3126
13:19:43.345,-3.6875,-15.6876
13:19:43.355,-3.375,-16.6876
13:19:43.365,-3.4688,-17.3751
13:19:43.375,-3.5313,-16.8751
13:19:43.385,-3.7813,-18.0001
13:19:43.396,-3.4375,-18.0626
13:19:43.405,-4.0938,-18.1876
13:19:43.424,-3.5,-17.5001
13:19:43.426,-4.4375,-18.8126
13:19:43.441,-3.7813,-17.8751
13:19:43.450,-2.8438,-17.2501
13:19:43.456,-1.1563,-14.6876
13:19:43.465,0.0625,-11.0625
13:19:43.475,2.3438,-7.5
13:19:43.485,4.4375,-2
13:19:43.496,5.4688,1.3125
13:19:43.505,7.4688,5
13:19:43.515,8.375,7.625
13:19:43.525,8.6563,9.875
13:19:43.535,9.7188,9.6875
13:19:43.545,8.7188,11.5625
13:19:43.555,9.875,10.5625
13:19:43.566,8.9375,10.875
13:19:43.576,8.6875,10.5
13:19:43.585,9.5,10.625
13:19:43.599,9.4375,11.0625
13:19:43.605,9.5625,11.625
13:19:43.617,9.4375,12
13:19:43.626,9.75,12.3125
13:19:43.635,9.7813,12.3125
13:19:43.646,9.4375,14.0001
13:19:43.657,9.9688,13.1876
13:19:43.666,10.0625,13.5001
13:19:43.676,10.1875,13.9376
13:19:43.695,9.8125,14.4376
13:19:43.698,10.0625,14.0001
13:19:43.726,9.625,12.25
13:19:43.728,9.5938,12.8125
13:19:43.730,9.5,11.8125
13:19:43.737,9.0625,9.5
13:19:43.763,8.1875,7.375
13:19:43.765,7.2813,6.3125
13:19:43.770,7.75,5.3125
13:19:43.777,6.625,3.3125
13:19:43.802,6.6875,3
13:19:43.804,6.8438,3.875
13:19:43.807,6.7188,3.25
13:19:43.850,6.5938,3.125
13:19:43.850,6.2813,4.3125
13:19:43.853,6.5625,3.6875
13:19:43.858,6.9063,2.8125
13:19:43.863,6.7188,3.9375
13:19:43.868,6.8438,3.5625
13:19:43.879,6.9375,2.5
13:19:43.885,6.2813,3.375
13:19:43.909,6.7813,3.25
13:19:43.912,6.2188,1.75
13:19:43.927,5.2813,0.3125
13:19:43.929,4.75,0.75
13:19:43.944,5.25,-0.125
13:19:43.947,4.875,-1.1875
13:19:43.956,4.3125,-1.5625
13:19:43.965,4.125,-2.75
13:19:43.977,3.75,-2.1875
13:19:43.986,3.6563,-3.25
13:19:43.995,3.2813,-4.6875
13:19:44.005,3.0625,-4.5625
13:19:44.016,2.8125,-3.875
13:19:44.026,2.9688,-5.0625
13:19:44.036,2.875,-5.9375
13:19:44.045,2.6563,-7
13:19:44.059,1.6563,-6
13:19:44.069,1.9375,-6.5625
13:19:44.075,1.8438,-7.375
13:19:44.085,2,-7.625
13:19:44.096,1.6563,-8.5
13:19:44.105,1.5,-7
13:19:44.116,1.1875,-7.875
13:19:44.126,1.375,-9.125
13:19:44.136,1.3125,-8.8125
13:19:44.145,1.375,-7.875
13:19:44.155,1.625,-8.9375
13:19:44.165,1.25,-9.5625
13:19:44.175,1.75,-9.0625
13:19:44.185,0.8438,-10
13:19:44.197,-0.25,-10.5625
13:19:44.206,0.6563,-11
13:19:44.216,0.375,-11.875
13:19:44.225,-0.0313,-11.1875
13:19:44.235,0.0625,-12.3125
13:19:44.245,-0.7813,-11.1875
13:19:44.256,-0.7188,-12.125
13:19:44.266,-0.375,-13.1876
13:19:44.275,-0.5625,-12.875
13:19:44.285,-0.6875,-13.6251
13:19:44.296,-1.4375,-13.1251
13:19:44.308,-0.6875,-12.875
13:19:44.316,-0.6875,-12.625
13:19:44.326,0.125,-8.6875
13:19:44.336,2.4688,-5.75
13:19:44.349,3.875,-2.5
13:19:44.357,5.4375,2.25
13:19:44.366,7.8125,6.25
13:19:44.375,7.9375,8
13:19:44.385,8.625,11.5625
13:19:44.395,9.3438,11.8125
13:19:44.405,9.4063,11.8125
13:19:44.445,9.375,13.1251
13:19:44.447,9.3125,12.75
13:19:44.449,8.625,12.125
13:19:44.453,9.0313,13
13:19:44.455,8.8438,13
13:19:44.486,8.75,13.8126
13:19:44.488,9.2813,13.4376
13:19:44.490,9.6563,14.5001
13:19:44.495,9.5313,15.6876
13:19:44.530,9.5313,14.5626
13:19:44.532,9.5,14.5626
13:19:44.534,9.625,15.2501
13:19:44.537,10,14.9376
13:19:44.566,9.0313,14.3126
13:19:44.567,9.0313,15.3751
13:19:44.569,8.9375,14.3751
13:19:44.576,8.6875,13.1876
13:19:44.602,7.5938,12.125
13:19:44.604,7.2813,11.625
13:19:44.607,5.9688,9.5
13:19:44.615,5.6875,7.4375
13:19:44.625,4.625,5.625
13:19:44.635,3.9375,6.25
13:19:44.645,3.3125,4.9375
13:19:44.656,3.6875,4.0625
13:19:44.665,3.7813,3.875
13:19:44.675,3.7813,4.0625
13:19:44.685,4.2813,5.125
13:19:44.695,4.25,4.3125
13:19:44.705,3.3438,4.625
13:19:44.727,3.1563,4.5625
13:19:44.729,2.625,4.5625
13:19:44.744,2.625,3.0625
13:19:44.746,2.5625,1.3125
13:19:44.761,2.0625,1.75
13:19:44.766,1.8438,1
13:19:44.775,1.625,0.625
13:19:44.785,1.3125,-0.5
13:19:44.795,0.875,-0.25
13:19:44.805,0.4063,-0.25
13:19:44.815,0.7813,-2.125
13:19:44.826,-0.1563,-3
13:19:44.835,-0.125,-3.0625
13:19:44.845,-0.0938,-3.5625
13:19:44.855,-0.5,-4.5
13:19:44.866,-1.1875,-5.125
13:19:44.875,-1.6875,-5.1875
13:19:44.885,-1.4688,-6.3125
13:19:44.895,-2.125,-7.3125
13:19:44.905,-2.6563,-7.8125
13:19:44.915,-2.875,-7.6875
13:19:44.925,-3.125,-7.5
13:19:44.935,-2.9063,-8.9375
13:19:44.945,-3.2188,-9.0625
13:19:44.955,-3.0313,-8.875
13:19:44.965,-2.5313,-9.3125
13:19:44.975,-3.5313,-9.125
13:19:44.985,-2.9063,-9.75
13:19:44.995,-4.125,-10.0625
13:19:45.006,-3.3125,-10.375
13:19:45.015,-3.75,-10.875
13:19:45.026,-2.9688,-10.5625
13:19:45.036,-4.125,-11.3125
13:19:45.045,-3.9063,-11.6875
13:19:45.056,-4.4688,-11
13:19:45.065,-4.3125,-12
13:19:45.075,-4.875,-12.4375
13:19:45.085,-4.3125,-12.6875
13:19:45.095,-4.5938,-12.625
13:19:45.134,-4.2188,-13.1876
13:19:45.136,-4.8125,-13.1876
13:19:45.138,-4.3125,-13.9376
13:19:45.140,-5.0938,-14.0626
13:19:45.147,-4.5313,-13.5001
13:19:45.184,-4.6875,-12.625
13:19:45.186,-3.3438,-11.1875
13:19:45.188,-0.875,-8.1875
13:19:45.192,-0.0313,-3.5
13:19:45.197,2.3438,-0.1875
13:19:45.270,3.4063,4.9375
13:19:45.274,5.1875,7.375
13:19:45.277,6.0938,8.9375
13:19:45.280,6.25,11.5625
13:19:45.282,6.8438,12.25
13:19:45.291,7.1875,13.6251
13:19:45.294,7.7813,13.8126
13:19:45.294,7.5625,14.5001
13:19:45.298,7.8125,14.6876
13:19:45.306,7.6563,15.1251
13:19:45.315,8.3125,15.1251
13:19:45.326,7.7813,15.4376
13:19:45.335,8.125,17.0001
13:19:45.345,8.75,16.5001
13:19:45.355,8.0625,16.6251
13:19:45.365,8.375,18.3126
13:19:45.376,8.7188,18.1876
13:19:45.385,8.6563,18.7501
13:19:45.396,8.7188,20.0001
13:19:45.405,8.9375,19.7501
13:19:45.415,9.5938,19.4376
13:19:45.425,9.2188,19.2501
13:19:45.435,8.5938,18.7501
13:19:45.445,7.7188,17.4376
13:19:45.455,6.5313,15.2501
13:19:45.465,5.25,12.9375
13:19:45.476,5,10.875
13:19:45.485,4.25,10.5625
13:19:45.495,4,9.25
13:19:45.505,3.5625,8.3125
13:19:45.516,3.6563,8.75
13:19:45.525,3.4063,8.625
13:19:45.536,3.4688,8.625
13:19:45.545,2.7813,8.875
13:19:45.558,3.9063,8.8125
13:19:45.565,3.0313,7.6875
13:19:45.575,2.8438,8.1875
13:19:45.585,2.8438,7.3125
13:19:45.595,2.4375,6.125
13:19:45.606,1.8438,6.125
13:19:45.616,2.4375,6.1875
13:19:45.625,2.3438,4.5
13:19:45.636,1.9688,4.25
13:19:45.645,1.2813,4.4375
13:19:45.655,2.1875,4
13:19:45.665,1.6563,2.4375
13:19:45.675,0.8438,3.5
13:19:45.685,1.8438,2.375
13:19:45.695,0.8438,0.625
13:19:45.705,0.8438,0.6875
13:19:45.716,0.75,0.3125
13:19:45.725,0.75,-1.125
13:19:45.735,0.2188,-1.6875
13:19:45.745,0.1563,-1
13:19:45.755,0.25,-2.1875
13:19:45.765,-0.1875,-3.25
13:19:45.775,-0.4375,-2.8125
13:19:45.785,-0.375,-3.3125
13:19:45.795,-0.75,-4.5
13:19:45.805,-1.1875,-3.75
13:19:45.835,-1.125,-4.25
13:19:45.838,-1.0625,-5.375
13:19:45.840,-1.375,-5.625
13:19:45.846,-1.9688,-5.625
13:19:45.885,-2.0625,-6.375
13:19:45.886,-2.3438,-6.875
13:19:45.888,-2.3438,-6.75
13:19:45.890,-2.75,-6.125
13:19:45.902,-2.0313,-7.3125
13:19:45.911,-3.2188,-8.3125
13:19:45.946,-2.9688,-7.5
13:19:45.948,-3,-8.8125
13:19:45.951,-3.0625,-8.125
13:19:45.953,-3.1563,-9.4375
13:19:45.992,-2.875,-8.9375
13:19:45.993,-3.4688,-9.25
13:19:45.996,-3.4375,-10.25
13:19:46.005,-3.25,-10.5625
13:19:46.005,-3.625,-10.625
13:19:46.015,-3.4063,-10.4375
13:19:46.029,-2.9688,-10.1875
13:19:46.032,-2.1563,-9.3125
13:19:46.046,-1.1875,-5.5
13:19:46.054,0.375,-2.875
13:19:46.060,3.0313,3.875
13:19:46.070,4.875,8.4375
13:19:46.080,7.375,11.0625
13:19:46.090,7.4688,14.0626
13:19:46.100,8.9063,15.3126
13:19:46.110,9.2813,16.6876
13:19:46.120,9.375,17.3751
13:19:46.130,9.625,18.0626
13:19:46.140,10.0625,18.6251
13:19:46.150,9.5938,18.3126
13:19:46.160,10.3438,21.0626
13:19:46.170,10.1875,20.5001
13:19:46.180,10.2813,22.1251
13:19:46.190,10.3438,21.5626
13:19:46.201,10.9063,21.5001
13:19:46.210,12.0938,24.1876
13:19:46.220,12.4063,24.6876
13:19:46.230,12.1875,25.3751
13:19:46.240,13.1563,26.1251
13:19:46.250,13.1563,25.8126
13:19:46.260,12.1563,26.7501
13:19:46.270,12.75,26.5001
13:19:46.280,12.0938,24.9376
13:19:46.291,11.4688,25.0626
13:19:46.301,11.625,23.8751
13:19:46.310,9.7188,22.4376
13:19:46.321,8.4063,20.5626
13:19:46.330,8.1875,18.1876
13:19:46.340,7.3125,16.1876
13:19:46.350,6.5,15.1876
13:19:46.360,5.8125,15.9376
13:19:46.370,6.0938,13.8751
13:19:46.380,5.3125,15.5001
13:19:46.391,6.0313,14.6251
13:19:46.400,6.2813,15.0001
13:19:46.411,6.4063,16.2501
13:19:46.421,7.4063,17.4376
13:19:46.433,7.5313,18.3751
13:19:46.440,6.0625,19.1251
13:19:46.450,4.2188,19.5626
13:19:46.460,-0.5313,18.5001
13:19:46.470,-3.9375,20.0626
13:19:46.480,-8.875,19.8751
13:19:46.493,-15.4376,19.6251
13:19:46.503,-21.7188,21.0001
13:19:46.512,-25.1876,22.8751
13:19:46.520,-23.6251,29.0626
13:19:46.539,-17.0626,39.3752
13:19:46.545,-7.4375,48.8752
13:19:46.560,-1.4375,54.6252
13:19:46.562,4.0625,58.7502
13:19:46.573,7.9063,62.3752
13:19:46.582,9.375,65.0627
13:19:46.592,9.5313,64.6877
13:19:46.603,8,62.9377
13:19:46.614,7.4063,63.5002
13:19:46.620,6.8125,62.3127
13:19:46.631,7.4063,63.2502
13:19:46.645,9.2813,63.3127
13:19:46.675,10.4688,63.8752
13:19:46.676,11.1875,65.3128
13:19:46.679,12.0625,64.6877
13:19:46.682,12.75,66.1253
13:19:46.717,13.4063,64.7502
13:19:46.720,13.1875,63.7502
13:19:46.723,13.1876,63.7502
13:19:46.725,13.4688,63.4377
13:19:46.730,13.2188,61.4377
13:19:46.772,13.3438,61.8752
13:19:46.775,14.3438,61.8752
13:19:46.776,16.0626,64.1877
13:19:46.782,19.1251,65.3127
13:19:46.782,21.3126,67.5628
13:19:46.813,23.3438,69.0003
13:19:46.814,26.4376,70.1253
13:19:46.817,27.9376,70.0003
13:19:46.824,28.1251,69.8753
13:19:46.835,28.3439,69.3128
13:19:46.842,28.9064,70.0628
13:19:46.851,30.5314,68.9378
13:19:46.861,31.0939,68.6253
13:19:46.870,32.2501,68.3128
13:19:46.880,33.0001,67.8128
13:19:46.890,34.4689,68.6253
13:19:46.900,35.8126,69.4378
13:19:46.910,36.9064,69.5628
13:19:46.920,37.8751,70.8128
13:19:46.930,40.3127,73.3128
13:19:46.940,42.8127,76.6878
13:19:46.950,44.9064,81.8753
13:19:46.960,47.2189,85.5628
13:19:46.970,48.5627,87.9378
13:19:46.982,48.8439,89.3753
13:19:46.990,48.9689,91.8129
13:19:47.000,49.1564,91.1879
13:19:47.010,48.2502,91.0004
13:19:47.020,47.1877,91.8754
13:19:47.030,46.3439,90.0628
13:19:47.040,44.1564,88.1253
13:19:47.050,43.0627,87.5003
13:19:47.060,41.4689,86.0003
13:19:47.070,39.4377,84.3753
13:19:47.081,37.6876,84.3753
13:19:47.091,35.9689,82.5003
13:19:47.101,34.3751,81.2503
13:19:47.111,31.9376,79.7503
13:19:47.121,30.1876,78.9378
13:19:47.130,28.7189,76.6253
13:19:47.162,27.0001,75.6878
13:19:47.164,25.0001,73.3128
13:19:47.167,24.4688,72.5628
13:19:47.174,22.9688,71.5628
13:19:47.185,21.3438,70.2503
13:19:47.192,21.1251,68.2503
13:19:47.200,19.2813,65.3752
13:19:47.210,18.7501,63.1877
13:19:47.221,17.0626,61.0002
13:19:47.230,15.4376,59.2502
13:19:47.240,15.2501,56.7502
13:19:47.250,14.1251,56.4377
13:19:47.261,14.3126,55.2502
13:19:47.270,13.6251,53.9377
13:19:47.280,13.6563,55.0002
13:19:47.290,13.0938,53.5002
13:19:47.300,13.3751,54.0002
13:19:47.311,12.5313,52.6252
13:19:47.346,11.7188,51.9377
13:19:47.346,11.1875,52.6252
13:19:47.381,11.125,49.7502
13:19:47.383,10.5313,50.1252
13:19:47.412,9.1875,48.4377
13:19:47.439,8.4688,46.5002
13:19:47.439,7,45.6877
13:19:47.439,6.6563,43.6252
13:19:47.441,4.6875,42.2502
13:19:47.443,4.375,40.5627
13:19:47.489,3.25,40.0002
13:19:47.490,3.6563,38.6251
13:19:47.493,2.4063,37.3751
13:19:47.499,2.9375,36.6251
13:19:47.500,2.3438,36.1251
13:19:47.500,2.4375,36.1876
13:19:47.503,3.8125,35.1251
13:19:47.510,3.5938,35.2501
13:19:47.520,3.6875,34.0626
13:19:47.531,4.0313,34.3751
13:19:47.540,3.7813,33.6876
13:19:47.551,3.2813,33.0626
13:19:47.561,3.6875,31.5001
13:19:47.570,3.7813,31.4376
13:19:47.584,4.0625,30.8751
13:19:47.591,3.9375,30.3126
13:19:47.600,4.4063,29.6251
13:19:47.610,3.9063,29.2501
13:19:47.621,3.8438,28.8751
13:19:47.630,3.4688,28.5001
13:19:47.640,3.875,27.5626
13:19:47.650,3.7188,26.6876
13:19:47.660,3.7813,26.7501
13:19:47.670,4.7188,26.3751
13:19:47.680,4.6563,26.4376
13:19:47.690,5.6875,25.3126
13:19:47.700,5.8125,24.5001
13:19:47.711,5.5625,25.1876
13:19:47.720,7.1563,24.5001
13:19:47.730,6.9375,23.6251
13:19:47.740,7.4063,22.5626
13:19:47.750,7.2813,23.0626
13:19:47.760,7.5,22.1876
13:19:47.770,7.5,21.8751
13:19:47.780,8.0313,23.7501
13:19:47.792,9.375,24.5626
13:19:47.801,11.4375,26.3751
13:19:47.810,12.125,29.2501
13:19:47.820,13.6876,33.5626
13:19:47.831,15.0938,37.4376
13:19:47.846,17.0626,39.5002
13:19:47.863,18.0313,41.5002
13:19:47.865,17.3751,42.6252
13:19:47.872,17.5938,44.8752
13:19:47.880,17.7501,44.2502
13:19:47.890,16.9063,44.1252
13:19:47.901,16.8751,44.1877
13:19:47.910,16.1563,43.6877
13:19:47.920,15.7501,43.6252
13:19:47.932,15.6876,45.1252
13:19:47.945,16.8751,44.3752
13:19:47.951,15.4376,45.1252
13:19:47.965,14.9376,45.0002
13:19:47.973,15.1563,45.1252
13:19:47.981,14.6563,45.0002
13:19:47.990,14.0938,45.0627
13:19:48.003,14.4376,45.4377
13:19:48.012,13.5313,44.5627
13:19:48.022,12.9063,44.3127
13:19:48.045,12.75,44.5627
13:19:48.052,12.875,43.7502
13:19:48.054,11.1563,42.0627
13:19:48.083,9.8438,41.4377
13:19:48.086,9.3125,39.2502
13:19:48.093,7.7188,36.7501
13:19:48.101,7.5938,35.6876
13:19:48.105,6.3125,34.3751
13:19:48.113,5.9688,33.2501
13:19:48.143,5.5313,33.3126
13:19:48.146,5.5313,32.3126
13:19:48.149,5.375,30.5626
13:19:48.154,4.3125,32.5001
13:19:48.189,4.7188,31.7501
13:19:48.192,4.25,30.6876
13:19:48.195,3.375,30.3126
13:19:48.200,4,30.9376
13:19:48.215,3.5625,30.1876
13:19:48.216,2.875,29.6251
13:19:48.220,3.3438,29.3126
13:19:48.230,2.875,28.6251
13:19:48.241,2.3125,27.9376
13:19:48.252,2.9688,28.8126
13:19:48.260,2.2813,27.6251
13:19:48.275,2.125,26.6876
13:19:48.281,1.6875,27.3126
13:19:48.291,2.375,25.9376
13:19:48.301,2.1875,24.5626
13:19:48.310,1.25,23.3751
13:19:48.324,0.6875,23.7501
13:19:48.333,1.0625,21.9376
13:19:48.343,0.875,21.2501
13:19:48.352,-0.0313,20.3751
13:19:48.360,-0.5,19.2501
13:19:48.370,-0.6875,19.3126
13:19:48.381,-1.2813,17.5001
13:19:48.391,-1.5625,16.5626
13:19:48.401,-2,17.4376
13:19:48.412,-1.4063,16.2501
13:19:48.443,-2.1875,14.8126
13:19:48.445,-1.8125,15.1876
13:19:48.451,-1.7188,14.7501
13:19:48.452,-1.5625,13.5626
13:19:48.464,-1.0938,13
13:19:48.473,-1.3438,13.6876
13:19:48.480,-1.2188,13.8751
13:19:48.493,-1.1875,12.625
13:19:48.501,-1.2813,11.9375
13:19:48.510,-1.0625,12.0625
13:19:48.523,-0.75,11.125
13:19:48.531,-0.8125,11
13:19:48.541,-0.7813,10.5
13:19:48.556,-1.1875,9.375
13:19:48.561,-1.3125,8.9375
13:19:48.571,-1.125,8.3125
13:19:48.583,-1.3438,7
13:19:48.590,-1.25,7.5
13:19:48.601,-1.125,6.9375
13:19:48.613,-0.7813,5.4375
13:19:48.621,-1.5938,6.0625
13:19:48.631,-1.3438,4.625
13:19:48.643,-1.7188,3.25
13:19:48.652,-2.0938,3.1875
13:19:48.669,-1.4375,2.75
13:19:48.686,-1.5313,3.4375
13:19:48.689,-0.375,5.375
13:19:48.694,0.1875,6.625
13:19:48.703,1.75,11.875
13:19:48.718,3.75,14.3751
13:19:48.721,5.4375,17.0626
13:19:48.756,6.625,21.7501
13:19:48.764,7.4375,23.3126
13:19:48.765,8,25.6251
13:19:48.768,8.0625,27.3126
13:19:48.798,8.5313,27.6251
13:19:48.800,8.3438,29.6251
13:19:48.808,8.625,28.9376
13:19:48.810,8.5313,29.6251
13:19:48.813,9.125,31.3126
13:19:48.844,9.2813,31.6251
13:19:48.848,8.9688,31.5626
13:19:48.878,8.9063,32.6876
13:19:48.882,8.7188,33.0001
13:19:48.884,8.7813,32.8126
13:19:48.887,8.6875,33.2501
13:19:48.887,8.7813,34.8751
13:19:48.892,8.9375,35.9376
13:19:48.907,9.9375,36.2501
13:19:48.911,9.3125,36.6251
13:19:48.922,9.2188,37.6876
13:19:48.936,8.875,38.6251
13:19:48.943,8.9688,39.0626
13:19:48.951,9.1875,38.5626
13:19:48.963,9.3125,36.9376
13:19:48.972,8.3438,36.0626
13:19:48.981,6.7813,35.8751
13:19:48.993,6.4688,32.9376
13:19:49.001,5.0625,31.0001
13:19:49.013,4.375,30.2501
13:19:49.023,3.5,29.6876
13:19:49.032,3.625,29.5626
13:19:49.040,3.5313,28.3126
13:19:49.052,3.3125,28.3751
13:19:49.061,4.875,28.7501
13:19:49.071,4.4375,28.7501
13:19:49.090,4.0625,29.6251
13:19:49.092,5.0313,29.4376
13:19:49.102,4.8438,28.3751
13:19:49.111,4,28.0626
13:19:49.123,4.0313,28.5001
13:19:49.143,5.0313,27.5626
13:19:49.146,4.4688,26.8126
13:19:49.169,4.7188,26.6876
13:19:49.179,4.9063,26.8751
13:19:49.191,4.2813,27.1251
13:19:49.195,4.9063,26.5626
13:19:49.201,5.3438,26.1251
13:19:49.205,5.5313,25.3751
13:19:49.213,5.6875,24.6876
13:19:49.223,4.8125,25.0001
13:19:49.232,5.2188,23.3751
13:19:49.243,4.5625,22.0626
13:19:49.250,4.1563,21.6251
13:19:49.261,4.875,20.8126
13:19:49.271,3.9688,20.5001
13:19:49.282,3.75,19.0626
13:19:49.290,3.25,19.1876
13:19:49.302,2.8125,18.6876
13:19:49.312,3.3438,17.8751
13:19:49.323,3.2813,16.8751
13:19:49.332,3.0625,15.1876
13:19:49.342,2.5625,15.6251
13:19:49.351,3.25,15.6251
13:19:49.361,3.0938,14.1251
13:19:49.373,2.9688,13.4376
13:19:49.380,2.8438,13.7501
13:19:49.393,2.9063,13.6251
13:19:49.404,2.8125,11.625
13:19:49.411,2.0625,10.6875
13:19:49.421,1.9063,10.375
13:19:49.434,1.75,10.1875
13:19:49.441,1.625,9.4375
13:19:49.451,1.5625,8.25
13:19:49.466,1.0938,6.6875
13:19:49.471,-0.0938,5.0625
13:19:49.516,0.0938,5.25
13:19:49.518,-0.5313,4.0625
13:19:49.548,-0.875,3.5625
13:19:49.551,-1.8125,3.25
13:19:49.558,-3.3438,1.3125
13:19:49.559,-4.4063,-0.25
13:19:49.559,-4.4375,-1.1875
13:19:49.564,-5.6875,-2.875
13:19:49.597,-6.4375,-3.6875
13:19:49.599,-6.25,-3.75
13:19:49.601,-6.9063,-5.375
13:19:49.604,-7.375,-5.75
13:19:49.643,-7.7813,-5.125
13:19:49.644,-7.7813,-4.9375
13:19:49.647,-7.2813,-3.625
13:19:49.658,-5.9375,-0.0625
13:19:49.658,-4.4375,4.125
13:19:49.665,-2,7.6875
13:19:49.671,-1.3438,10.1875
13:19:49.682,-0.0313,14.3126
13:19:49.692,0.1875,17.0626
13:19:49.723,1.5,19.0001
13:19:49.725,2.125,20.3126
13:19:49.728,1.9063,22.7501
13:19:49.732,1.8125,24.0001
13:19:49.742,2.4688,24.8751
13:19:49.751,2.9688,25.3126
13:19:49.762,3.0313,26.4376
13:19:49.773,2.7813,27.1251
13:19:49.783,3.3438,27.6251
13:19:49.791,3.5625,29.2501
13:19:49.801,3.5625,30.6251
13:19:49.812,4.8438,31.5001
13:19:49.821,4.4063,31.8126
13:19:49.832,4.8438,34.1876
13:19:49.841,5.1563,34.7501
13:19:49.851,6.1875,34.9376
13:19:49.861,4.75,33.6876
13:19:49.871,4.5938,34.1876
13:19:49.882,4.2813,33.6876
13:19:49.894,4.5938,33.6876
13:19:49.901,3.25,32.2501
13:19:49.911,2.7188,30.2501
13:19:49.922,2.8125,29.9376
13:19:49.937,2.0625,27.8751
13:19:49.946,2.625,27.8751
13:19:49.964,3.5938,30.0001
13:19:49.980,4.9063,29.7501
13:19:49.984,5.0938,29.8751
13:19:49.988,5.6563,28.9376
13:19:50.000,5.2813,29.0626
13:19:50.008,4.5625,29.8126
13:19:50.016,4.375,29.6251
13:19:50.026,4.375,28.3751
13:19:50.036,3.9688,27.7501
13:19:50.051,3.5313,27.0001
13:19:50.056,3.0625,27.6876
13:19:50.075,3.2813,25.8751
13:19:50.078,2.3438,24.3126
13:19:50.087,1.7188,23.3751
13:19:50.096,0.8125,23.5001
13:19:50.106,1.2813,21.5001
13:19:50.135,0.0938,20.6876
13:19:50.139,-0.0625,19.3126
13:19:50.144,-0.5625,18.7501
13:19:50.151,-0.7188,18.6876
13:19:50.158,-1.2188,17.6876
13:19:50.166,-0.9063,16.5626
13:19:50.185,-1.4063,15.4376
13:19:50.188,-1.625,15.4376
13:19:50.221,-2.25,15.2501
13:19:50.224,-2.0625,13.1876
13:19:50.227,-2.1875,12.5625
13:19:50.230,-3.0938,12.1875
13:19:50.255,-3.1875,12.3125
13:19:50.258,-2.8438,10.5625
13:19:50.260,-3.375,9.4375
13:19:50.271,-3.7188,8.75
13:19:50.309,-4.5313,8.9375
13:19:50.310,-4.7188,7.4375
13:19:50.313,-4.7188,6.4375
13:19:50.316,-4.9688,5.3125
13:19:50.318,-4.6563,5.4375
13:19:50.351,-6.25,5
13:19:50.353,-6.9688,3.8125
13:19:50.355,-7.0313,2.25
13:19:50.362,-7.0938,1.0625
13:19:50.374,-6.9688,2.5
13:19:50.378,-7.1875,0.8125
13:19:50.391,-7.625,0.25
13:19:50.397,-8.5625,0.4375
13:19:50.406,-7.7813,-0.4375
13:19:50.416,-7.4063,-0.9375
13:19:50.439,-8.8438,-1.25
13:19:50.441,-8.5625,-2.125
13:19:50.456,-9.0938,-3.0625
13:19:50.460,-9.5625,-4.1875
13:19:50.466,-10.25,-3.8125
13:19:50.476,-10.6563,-5.5
13:19:50.487,-11.0625,-5.75
13:19:50.496,-10.625,-5
13:19:50.506,-10.2813,-3.5625
13:19:50.518,-9.3438,-0.0625
13:19:50.526,-7.4688,2.3125
13:19:50.536,-5.75,5.625
13:19:50.546,-4.0938,10.5
13:19:50.556,-3.25,13.2501
13:19:50.566,-2.2813,16.2501
13:19:50.576,-1.75,18.0001
13:19:50.587,-1.3125,19.2501
13:19:50.596,-1.0938,21.3126
13:19:50.608,-0.4375,20.9376
13:19:50.616,-0.5625,21.5001
13:19:50.627,-0.0625,22.0626
13:19:50.637,-0.25,22.1251
13:19:50.647,-0.0625,23.1876
13:19:50.657,0.8125,23.1876
13:19:50.666,-0.125,22.8751
13:19:50.676,-1.0938,24.8126
13:19:50.687,0.125,24.5001
13:19:50.698,-0.5,26.3751
13:19:50.707,0.4063,25.8126
13:19:50.717,0.5,26.6876
13:19:50.726,0.9688,27.6876
13:19:50.737,1,27.3126
13:19:50.749,0.5938,27.9376
13:19:50.757,0.7813,28.0001
13:19:50.771,0.9688,27.1251
13:19:50.777,0.375,24.5626
13:19:50.788,0,24.9376
13:19:50.797,-0.5,22.5626
13:19:50.806,-0.6563,21.6251
13:19:50.816,-0.25,21.3751
13:19:50.828,-1.1563,20.1876
13:19:50.836,-1.5313,20.8751
13:19:50.846,-0.6875,20.5626
13:19:50.856,-0.5938,19.8751
13:19:50.866,-0.8438,19.7501
13:19:50.879,-0.4688,20.4376
13:19:50.888,0.4063,20.5626
13:19:50.896,0.0938,20.1251
13:19:50.906,0.4375,20.0001
13:19:50.916,-0.1875,20.3751
13:19:50.928,0.3125,19.8751
13:19:50.958,0.0938,18.3126
13:19:50.960,-0.5,17.4376
13:19:50.963,-0.625,17.8126
13:19:50.968,-0.4375,16.1876
13:19:51.002,-0.9063,16.0001
13:19:51.004,-0.7188,14.8126
13:19:51.007,-1.0313,14.5626
13:19:51.009,-0.5,13.1876
13:19:51.039,-1.2813,13.6876
13:19:51.042,-1.0625,12.875
13:19:51.045,-1.4375,10.625
13:19:51.050,-1.6875,10.5
13:19:51.060,-1.3125,9.6875
13:19:51.088,-1.5625,8.375
13:19:51.090,-1.9063,8.1875
13:19:51.093,-1.0313,8.0625
13:19:51.098,-1.75,7.125
13:19:51.119,-1.625,7
13:19:51.125,-1.9688,6.8125
13:19:51.127,-1.7813,4.8125
13:19:51.137,-2.375,5.375
13:19:51.148,-1.9375,3.6875
13:19:51.156,-2.8438,2.6875
13:19:51.166,-3.2813,2.375
13:19:51.176,-3.4063,1.375
13:19:51.188,-5.0625,-0.5
13:19:51.196,-5.3125,-1.0625
13:19:51.206,-6.0938,-1.875
13:19:51.217,-6.25,-3.3125
13:19:51.227,-6.4375,-4.375
13:19:51.238,-6.6875,-4.25
13:19:51.259,-7.3438,-5.8125
13:19:51.260,-7.8125,-6.5
13:19:51.275,-8.25,-7.4375
13:19:51.277,-8.75,-8.25
13:19:51.287,-8.9063,-8.125
13:19:51.296,-9.375,-8.6875
13:19:51.306,-10.5,-10.5625
13:19:51.318,-11,-10.375
13:19:51.328,-11.2188,-12.25
13:19:51.336,-12.4688,-12.5
13:19:51.346,-12.5938,-13.0625
13:19:51.358,-13.3126,-13.8751
13:19:51.366,-13.0938,-13.3751
13:19:51.376,-12.0938,-13
13:19:51.386,-11.4063,-11
13:19:51.396,-9.7813,-8.25
13:19:51.406,-8.0938,-4.0625
13:19:51.418,-6.25,0.6875
13:19:51.426,-4.25,3
13:19:51.436,-3.7188,5.0625
13:19:51.446,-2.8125,8.375
13:19:51.456,-1.4063,9.75
13:19:51.466,-1.25,11.5625
13:19:51.478,-1.125,11.6875
13:19:51.487,-0.5938,13
13:19:51.497,-0.7813,12.1875
13:19:51.508,-0.3438,13.3126
13:19:51.520,-0.125,14.5001
13:19:51.527,0.3125,15.3751
13:19:51.536,0.5938,16.1251
13:19:51.546,0.8125,16.1251
13:19:51.556,0.75,17.5626
13:19:51.566,1.9063,17.2501
13:19:51.577,1.6875,18.0001
13:19:51.586,1.7813,18.7501
13:19:51.599,1.875,18.9376
13:19:51.606,1.625,19.5001
13:19:51.618,2,19.3751
13:19:51.626,1.25,19.0001
13:19:51.637,0.875,19.3751
13:19:51.646,1.25,17.6251
13:19:51.656,0.8438,16.6876
13:19:51.679,0.0625,16.4376
13:19:51.681,0.2813,14.7501
13:19:51.688,-1.375,13
13:19:51.715,-1.75,11
13:19:51.719,-2.7188,11.125
13:19:51.721,-1.875,10.3125
13:19:51.759,-2.25,9.375
13:19:51.761,-2.875,8.4375
13:19:51.763,-2.5938,9.75
13:19:51.765,-2.0313,9.8125
13:19:51.771,-1.8438,9.1875
13:19:51.778,-2.3125,8.625
13:19:51.805,-2.5313,9.25
13:19:51.806,-1.75,9.1875
13:19:51.809,-1.6563,9.5
13:19:51.842,-1.1563,8.8125
13:19:51.845,-1.1563,9.25
13:19:51.847,-0.8125,9
13:19:51.849,-1.3125,8.375
13:19:51.860,-1.9063,9.125
13:19:51.868,-1.2813,7.25
13:19:51.877,-2.2188,6.3125
13:19:51.886,-2.7813,6
13:19:51.896,-3.0625,4.5625
13:19:51.909,-3.9688,3.125
13:19:51.919,-5.2188,1.875
13:19:51.927,-5.9375,1.3125
13:19:51.936,-5.875,0.125
13:19:51.946,-7.125,-0.875
13:19:51.958,-7.5313,-0.375
13:19:51.966,-7.5938,-2.125
13:19:51.977,-2.875,-3.25
13:19:51.986,-4.0938,-0.875
13:19:51.996,-4.9375,-3
13:19:52.006,-7.5938,-5.0625
13:19:52.016,-9.9375,-5.1875
13:19:52.026,-11.2813,-8.0625
13:19:52.036,-12.9375,-8.875
13:19:52.048,-13.0625,-8.875
13:19:52.056,-12.8438,-9.6875
13:19:52.066,-13.6563,-10.25
13:19:52.076,-13.2188,-11.125
13:19:52.086,-14.4688,-11.8125
13:19:52.096,-14.7501,-11.125
13:19:52.107,-14.1251,-12.875
13:19:52.116,-14.7188,-12.625
13:19:52.126,-14.8126,-13.8126
13:19:52.139,-15.0626,-15.2501
13:19:52.147,-14.9688,-15.0001
13:19:52.156,-14.6563,-16.6876
13:19:52.166,-15.5313,-16.8126
13:19:52.177,-15.7501,-17.5001
13:19:52.186,-15.6251,-19.7501
13:19:52.196,-16.3751,-20.1876
13:19:52.206,-17.1876,-21.8126
13:19:52.216,-17.5938,-24.2501
13:19:52.228,-17.7501,-25.0626
13:19:52.236,-18.1876,-26.5001
13:19:52.247,-18.1251,-26.6251
13:19:52.257,-18.5313,-27.8126
13:19:52.282,-19.1251,-28.0626
13:19:52.284,-17.6563,-28.2501
13:19:52.287,-16.8438,-26.8126
13:19:52.298,-14.3751,-24.0626
13:19:52.307,-12.4063,-21.5626
13:19:52.318,-10.0313,-17.6251
13:19:52.328,-7.625,-15.8126
13:19:52.337,-5.75,-12.875
13:19:52.347,-3.1875,-10.5625
13:19:52.356,-1.5,-9.75
13:19:52.368,0.1563,-8.75
13:19:52.377,1.0625,-10.5
13:19:52.386,1.3438,-10.625
13:19:52.397,1.4375,-12.9375
13:19:52.408,1.25,-14.4376
13:19:52.417,1.0938,-17.1251
13:19:52.426,0.1563,-18.7501
13:19:52.436,-0.7188,-21.4376
13:19:52.448,-1.5938,-24.5001
13:19:52.468,-3.9375,-26.9376
13:19:52.470,-4.0625,-30.3126
13:19:52.498,-5.125,-32.5001
13:19:52.501,-5.4063,-33.5626
13:19:52.503,-5.6563,-35.6876
13:19:52.508,-5.9063,-35.5001
13:19:52.534,-6.0938,-38.4376
13:19:52.536,-6.9375,-39.1252
13:19:52.539,-7.6875,-41.9377
13:19:52.583,-8.6563,-45.0002
13:19:52.584,-10.875,-46.5627
13:19:52.589,-11.5,-49.8752
13:19:52.592,-12.6875,-53.0002
13:19:52.595,-14.6876,-54.8752
13:19:52.597,-15.4063,-57.5627
13:19:52.626,-16.8751,-59.3127
13:19:52.629,-17.5626,-61.5627
13:19:52.631,-18.1251,-64.1252
13:19:52.638,-19.6876,-65.2502
13:19:52.646,-20.3751,-67.0628
13:19:52.657,-21.9063,-67.8128
13:19:52.670,-22.4063,-69.4378
13:19:52.678,-23.0313,-69.6878
13:19:52.687,-23.8751,-70.7503
13:19:52.697,-24.4376,-71.9378
13:19:52.707,-24.7813,-72.5628
13:19:52.717,-25.0938,-74.1253
13:19:52.727,-26.2501,-74.5628
13:19:52.736,-26.2501,-75.6253
13:19:52.746,-27.2501,-76.6878
13:19:52.759,-28.1251,-76.8753
13:19:52.769,-28.2814,-77.8128
13:19:52.776,-28.6564,-79.1878
13:19:52.787,-29.9064,-79.1253
13:19:52.796,-29.8751,-80.9378
13:19:52.806,-30.7501,-81.4378
13:19:52.818,-30.5626,-82.1253
13:19:52.826,-31.6876,-83.1253
13:19:52.837,-31.5314,-83.6878
13:19:52.847,-31.9064,-83.8128
13:19:52.858,-32.0001,-85.0003
13:19:52.868,-32.4064,-85.0003
13:19:52.877,-32.0939,-85.6253
13:19:52.886,-32.7814,-86.4378
13:19:52.898,-32.9064,-86.7503
13:19:52.907,-32.9064,-87.6878
13:19:52.918,-33.9064,-86.8753
13:19:52.926,-33.6876,-88.1253
13:19:52.936,-34.3126,-89.1253
13:19:52.949,-33.7814,-89.3128
13:19:52.956,-34.3439,-90.6878
13:19:52.966,-34.2501,-89.8128
13:19:52.977,-34.8751,-89.7503
13:19:52.987,-35.4689,-90.3128
13:19:52.997,-35.9689,-89.6878
13:19:53.007,-35.5001,-91.0004
13:19:53.017,-36.0001,-90.6879
13:19:53.032,-36.6251,-91.1879
13:19:53.048,-36.0314,-90.3753
13:19:53.050,-36.0314,-90.6878
13:19:53.056,-36.7814,-89.8128
13:19:53.066,-36.8126,-90.6879
13:19:53.077,-36.7189,-90.0628
13:19:53.086,-37.0626,-90.6878
13:19:53.097,-36.5626,-89.5003
13:19:53.107,-36.8126,-88.5628
13:19:53.116,-36.0626,-88.8753
13:19:53.128,-35.7501,-88.5003
13:19:53.137,-35.2189,-87.8128
13:19:53.147,-34.2501,-86.7503
13:19:53.157,-33.9064,-86.1878
13:19:53.166,-34.4376,-87.2503
13:19:53.176,-33.9376,-85.3128
13:19:53.186,-34.0626,-85.9378
13:19:53.196,-32.8126,-83.8128
13:19:53.206,-32.8751,-84.0003
13:19:53.230,-31.8126,-80.8753
13:19:53.233,-30.1876,-80.0628
13:19:53.271,-28.1876,-75.7503
13:19:53.273,-26.9376,-70.7503
13:19:53.275,-23.7188,-66.5628
13:19:53.278,-21.0313,-61.8127
13:19:53.280,-20.7813,-57.8752
13:19:53.286,-19.0313,-55.5627
13:19:53.317,-17.9688,-52.4377
13:19:53.319,-17.1563,-50.5002
13:19:53.322,-15.7813,-49.0002
13:19:53.326,-15.9063,-46.9377
13:19:53.368,-15.5626,-46.9377
13:19:53.369,-14.2813,-45.3127
13:19:53.373,-14.3751,-44.0627
13:19:53.376,-13.2813,-44.8752
13:19:53.380,-13.0313,-42.7502
13:19:53.390,-12.6563,-41.9377
13:19:53.397,-12.1563,-39.6877
13:19:53.406,-11.5,-39.4377
13:19:53.422,-10.6875,-37.2501
13:19:53.426,-10.4688,-37.3126
13:19:53.437,-9.5625,-35.2501
13:19:53.447,-10.1875,-35.3126
13:19:53.456,-9.625,-35.0626
13:19:53.466,-9.625,-33.8126
13:19:53.476,-9.5,-34.6876
13:19:53.489,-8.8438,-34.1251
13:19:53.497,-9.6875,-34.3126
13:19:53.506,-10.25,-35.2501
13:19:53.516,-10.5313,-36.4376
13:19:53.526,-10.375,-37.4376
13:19:53.537,-11.2188,-37.3751
13:19:53.562,-11.5938,-38.6876
13:19:53.564,-10.875,-38.1251
13:19:53.566,-10.9063,-36.0001
13:19:53.578,-10.9688,-37.0001
13:19:53.586,-10.75,-36.9376
13:19:53.596,-10.3125,-36.1876
13:19:53.606,-10.8438,-36.6876
13:19:53.618,-9.9688,-35.4376
13:19:53.626,-10.375,-34.8126
13:19:53.636,-10.6563,-35.1251
13:19:53.646,-10.125,-35.1876
13:19:53.656,-10.5,-35.1876
13:19:53.667,-10.5938,-35.4376
13:19:53.679,-9.9375,-34.5001
13:19:53.686,-10.5625,-35.3751
13:19:53.696,-10.4688,-34.6251
13:19:53.706,-11.3438,-36.5001
13:19:53.717,-11.1875,-35.8126
13:19:53.726,-11.9063,-36.6251
13:19:53.737,-11.3438,-36.4376
13:19:53.747,-12.0625,-35.3126
13:19:53.758,-12.3125,-37.6251
13:19:53.768,-11.875,-37.2501
13:19:53.779,-13,-37.1251
13:19:53.786,-12.9063,-37.6876
13:19:53.796,-12.3438,-37.0626
13:19:53.806,-12.4688,-38.5626
13:19:53.817,-12.4063,-37.7501
13:19:53.826,-13.2188,-36.8126
13:19:53.836,-13.2813,-37.5001
13:19:53.851,-13.2813,-38.7501
13:19:53.859,-13.5001,-37.7501
13:19:53.867,-13.5626,-38.0626
13:19:53.882,-13.5938,-37.7501
13:19:53.888,-14.0001,-37.5001
13:19:53.901,-13.9063,-38.5626
13:19:53.909,-13.4376,-37.6876
13:19:53.916,-14.1563,-37.5626
13:19:53.926,-13.8438,-38.0001
13:19:53.958,-14.3126,-38.0626
13:19:53.960,-14.6876,-38.4376
13:19:53.963,-14.3751,-37.8751
13:19:54.003,-14.5938,-38.1876
13:19:54.004,-14.1251,-37.8751
13:19:54.006,-14.6251,-37.4376
13:19:54.010,-14.7813,-38.8126
13:19:54.014,-15.0626,-37.6876
13:19:54.023,-14.8751,-38.5626
13:19:54.055,-14.8751,-37.8751
13:19:54.058,-14.7188,-38.4376
13:19:54.060,-13.7813,-37.8751
13:19:54.063,-15.2188,-38.4376
13:19:54.102,-14.8751,-38.7501
13:19:54.104,-15.3126,-38.3751
13:19:54.106,-14.8751,-38.9376
13:19:54.109,-15.1251,-38.4376
13:19:54.114,-14.0001,-37.0001
13:19:54.121,-13.7813,-36.8751
13:19:54.131,-13.0938,-35.7501
13:19:54.141,-11.3125,-32.6876
13:19:54.152,-10.25,-29.1876
13:19:54.161,-8.3438,-25.0626
13:19:54.171,-6.25,-22.1251
13:19:54.181,-4.9375,-17.5626
13:19:54.191,-3.2813,-15.5626
13:19:54.203,-3,-13.2501
13:19:54.213,-1.9688,-10.25
13:19:54.223,-1.125,-9.75
13:19:54.231,-0.625,-8.75
13:19:54.241,-1.125,-8.25
13:19:54.251,-1.6563,-7.5
13:19:54.262,-0.7813,-7.625
13:19:54.271,-0.375,-6.4375
13:19:54.281,0.25,-6.0625
13:19:54.291,-0.0938,-5.625
13:19:54.302,-0.25,-4.6875
13:19:54.313,1.0938,-4.625
13:19:54.328,1,-3.6875
13:19:54.336,1.75,-2.9375
13:19:54.344,1.2813,-2.0625
13:19:54.352,1.7813,-2.25
13:19:54.366,1.5,-1.125
13:19:54.374,2.375,-2.25
13:19:54.381,2.1563,-0.0625
13:19:54.393,2.1875,-1.75
13:19:54.401,1.5938,-1.4375
13:19:54.411,1.4688,-2.75
13:19:54.422,1.0313,-3.6875
13:19:54.431,0.4063,-5.5
13:19:54.441,-0.0313,-6.8125
13:19:54.451,-0.4375,-7.875
13:19:54.461,-0.75,-8.4375
13:19:54.473,-0.5,-7.625
13:19:54.482,-0.5313,-8.75
13:19:54.491,-1.0938,-8.9375
13:19:54.501,-1,-7.875
13:19:54.511,-0.4375,-8.5625
13:19:54.522,-0.4063,-8.9375
13:19:54.531,-1.0938,-8.25
13:19:54.547,-0.375,-8.6875
13:19:54.551,-0.8438,-9.375
13:19:54.563,-1.3125,-8.0625
13:19:54.571,-1.2813,-9.4375
13:19:54.581,-1.4063,-10.5
13:19:54.591,-1.5938,-10.375
13:19:54.601,-1.1875,-11.375
13:19:54.611,-2.5,-11.0625
13:19:54.621,-1.9375,-11.4375
13:19:54.632,-2.2813,-12.4375
13:19:54.642,-2.75,-12
13:19:54.651,-2.6563,-13.0625
13:19:54.662,-2.9063,-12.875
13:19:54.689,-2.8125,-14.1876
13:19:54.692,-3.8438,-14.3126
13:19:54.694,-3.5625,-14.0626
13:19:54.736,-4.4063,-15.1876
13:19:54.738,-3.9375,-15.8751
13:19:54.741,-4.375,-16.5626
13:19:54.743,-4.625,-16.8751
13:19:54.748,-5.1563,-17.2501
13:19:54.763,-5.4688,-17.5001
13:19:54.764,-5.0625,-17.8751
13:19:54.794,-5.7188,-17.8126
13:19:54.799,-5.125,-17.8126
13:19:54.808,-5.9688,-18.4376
13:19:54.808,-6.5,-18.1876
13:19:54.815,-5.9063,-19.0001
13:19:54.841,-6.25,-18.1876
13:19:54.844,-6.2813,-19.5001
13:19:54.846,-6.4688,-19.0626
13:19:54.852,-6.4688,-20.3751
13:19:54.861,-6.8438,-20.4376
13:19:54.873,-6.9375,-21.1251
13:19:54.884,-7.0313,-20.2501
13:19:54.892,-7.0625,-20.4376
13:19:54.902,-7.4688,-22.2501
13:19:54.911,-7.7188,-21.3126
13:19:54.921,-7.5625,-21.9376
13:19:54.932,-7.9063,-21.5001
13:19:54.941,-7.5313,-22.0626
13:19:54.951,-8.625,-21.9376
13:19:54.962,-7.5,-22.6251
13:19:54.973,-8.5,-22.1876
13:19:54.983,-8.25,-22.4376
13:19:54.994,-7.8438,-23.5626
13:19:55.001,-8.5625,-23.0626
13:19:55.013,-8.5625,-23.8751
13:19:55.021,-8.875,-22.3751
13:19:55.031,-8.25,-23.8751
13:19:55.041,-8.9375,-23.0626
13:19:55.052,-8.75,-24.6876
13:19:55.062,-9.1563,-24.0626
13:19:55.072,-8.6563,-24.2501
13:19:55.081,-8.7188,-22.5001
13:19:55.091,-7.3438,-23.1876
13:19:55.101,-6.8438,-19.3126
13:19:55.112,-4.9375,-16.8751
13:19:55.122,-3.3438,-14.0001
13:19:55.133,-1.625,-9
13:19:55.141,0.2188,-6.0625
13:19:55.151,0.7188,-2.375
13:19:55.168,3.0938,-0.1875
13:19:55.185,2.6875,1.9375
13:19:55.187,3.4375,3.125
13:19:55.202,3.25,3.625
13:19:55.205,4.0938,3.5625
13:19:55.220,3.5625,4.0625
13:19:55.223,3.9375,5.125
13:19:55.232,3.4688,4.875
13:19:55.241,4.0625,5.0625
13:19:55.251,4.1875,5.875
13:19:55.262,4.125,6.5
13:19:55.273,4.625,6.6875
13:19:55.282,4.4375,7.3125
13:19:55.298,4.9063,7.3125
13:19:55.303,4.6563,7.25
13:19:55.313,4.875,8.6875
13:19:55.324,4.75,8.375
13:19:55.333,4.5938,8.8125
13:19:55.341,4.3125,9
13:19:55.351,5.0938,8.75
13:19:55.363,5.5,8
13:19:55.400,4.5625,7.375
13:19:55.401,3.5625,5.75
13:19:55.405,2.8125,5.6875
13:19:55.408,2.5938,3.9375
13:19:55.412,0.9688,1.1875
13:19:55.455,0.8125,0.8125
13:19:55.457,0.4688,0.9375
13:19:55.459,-0.125,-1.1875
13:19:55.464,-0.5938,-1.4375
13:19:55.465,-0.5938,-1
13:19:55.502,-0.5938,-1
13:19:55.503,-1.2813,-1.5
13:19:55.505,-1.2813,-1.25
13:19:55.511,-1.0313,-1.25
13:19:55.512,-1.8125,-2.6875
13:19:55.543,-3,-3.3125
13:19:55.547,-4.1563,-3.125
13:19:55.548,-5.1563,-3.8125
13:19:55.553,-5.875,-5.0625
13:19:55.562,-6.6875,-5.875
13:19:55.572,-8.625,-5.6875
13:19:55.582,-8.75,-6.375
13:19:55.592,-10.625,-8.375
13:19:55.601,-12.4375,-8.1875
13:19:55.612,-14.0938,-8.625
13:19:55.622,-15.6563,-10.3125
13:19:55.631,-17.1251,-10.25
13:19:55.651,-18.1251,-10.5625
13:19:55.657,-19.5626,-11.125
13:19:55.673,-20.5938,-12.25
13:19:55.675,-22.2501,-11.125
13:19:55.691,-23.1251,-12
13:19:55.705,-24.4063,-12.375
13:19:55.708,-26.1251,-13.3126
13:19:55.714,-27.3126,-12.6875
13:19:55.721,-27.6564,-12.375
13:19:55.733,-28.7501,-12.1875
13:19:55.742,-28.7814,-12.4375
13:19:55.752,-28.7501,-12.5
13:19:55.762,-28.2501,-11.5625
13:19:55.771,-28.0314,-11.75
13:19:55.781,-27.6876,-9.75
13:19:55.792,-27.0939,-10
13:19:55.802,-26.9376,-9.5625
13:19:55.814,-26.1563,-10.5625
13:19:55.821,-24.9688,-8.875
13:19:55.832,-23.8438,-7.875
13:19:55.843,-23.2813,-7.9375
13:19:55.851,-23.3438,-7.1875
13:19:55.862,-22.4376,-7.625
13:19:55.871,-22.0626,-7.25
13:19:55.882,-22.0313,-6.375
13:19:55.894,-21.4063,-6.5
13:19:55.902,-20.5001,-5.9375
13:19:55.912,-19.7813,-6.25
13:19:55.921,-19.1251,-5.875
13:19:55.931,-18.2501,-5.75
13:19:55.941,-17.8438,-4.4375
13:19:55.952,-17.4063,-4.4375
13:19:55.962,-15.9688,-4.3125
13:19:55.971,-15.1876,-4.375
13:19:55.981,-14.7813,-4.25
13:19:55.992,-14.4376,-4.5
13:19:56.001,-14.0001,-3.5
13:19:56.012,-12.875,-3.6875
13:19:56.023,-12.1875,-3.75
13:19:56.043,-12.125,-3.125
13:19:56.045,-10.8438,-3.25
13:19:56.073,-11.0313,-3.625
13:19:56.075,-9.875,-2.875
13:19:56.077,-8.8438,-1.375
13:19:56.083,-7.2813,0.75
13:19:56.122,-4.9375,4.3125
13:19:56.125,-3.1563,8.125
13:19:56.127,-0.4688,12.4375
13:19:56.129,1.5625,16.6876
13:19:56.134,3.5938,19.8751
13:19:56.145,5.3438,22.3751
13:19:56.184,6.0625,24.1251
13:19:56.185,7.3125,25.1876
13:19:56.187,7.9063,26.6251
13:19:56.189,9.2813,27.5626
13:19:56.194,9.7188,28.4376
13:19:56.218,9.5313,27.7501
13:19:56.220,10.3125,28.9376
13:19:56.224,11.0938,29.8126
13:19:56.233,12.0313,30.0626
13:19:56.245,13.125,30.3126
13:19:56.252,13.0313,31.0626
13:19:56.261,14.1563,32.2501
13:19:56.271,15.1251,31.6876
13:19:56.282,16.0626,32.6876
13:19:56.293,16.6876,34.1251
13:19:56.302,17.3126,33.5626
13:19:56.312,17.9376,34.9376
13:19:56.322,18.6876,35.2501
13:19:56.333,19.7501,34.0626
13:19:56.341,20.0938,33.5626
13:19:56.353,19.6563,33.0626
13:19:56.361,19.5001,31.5626
13:19:56.371,18.6876,29.3751
13:19:56.382,17.7501,27.7501
13:19:56.392,15.8126,26.5626
13:19:56.401,15.7188,24.6251
13:19:56.412,15.2188,23.6876
13:19:56.421,15.4688,22.1876
13:19:56.431,14.9063,23.7501
13:19:56.442,14.9063,23.6251
13:19:56.452,16.0626,22.8751
13:19:56.463,16.0001,22.5626
13:19:56.472,15.5313,22.0626
13:19:56.488,15.8438,22.9376
13:19:56.495,15.7813,21.9376
13:19:56.501,16.2188,21.0001
13:19:56.518,16.3751,21.1876
13:19:56.534,17.1563,20.8126
13:19:56.535,17.1251,20.1876
13:19:56.541,16.7188,19.8126
13:19:56.552,17.0626,19.3751
13:19:56.561,17.4376,18.5626
13:19:56.572,17.0001,17.0001
13:19:56.583,16.5626,16.1251
13:19:56.595,16.8126,16.2501
13:19:56.601,16.6563,14.5001
13:19:56.611,16.2501,13.8126
13:19:56.621,16.2188,13.8126
13:19:56.632,16.5938,12.125
13:19:56.643,16.1251,11
13:19:56.651,15.1251,10.5
13:19:56.662,14.8438,9.875
13:19:56.671,15.6563,8.6875
13:19:56.682,15.7188,8.75
13:19:56.692,15.1876,7.3125
13:19:56.702,14.3126,6.375
13:19:56.711,14.9063,6.1875
13:19:56.721,13.9376,5.3125
13:19:56.733,13.0313,4.4375
13:19:56.743,13.0938,4.125
13:19:56.752,13.1563,3.125
13:19:56.761,12.6875,2
13:19:56.771,12.0938,2.3125
13:19:56.781,11.5938,1.25
13:19:56.793,11.875,0.4375
13:19:56.801,11.375,-0.3125
13:19:56.811,11.0938,-0.625
13:19:56.848,10.4063,-1.1875
13:19:56.850,10.5938,-2.5625
13:19:56.853,9.5625,-2.5
13:19:56.856,9.5,-3.6875
13:19:56.888,9.3125,-4.75
13:19:56.893,8.875,-5.125
13:19:56.893,8.0938,-5.25
13:19:56.895,8.3125,-6.75
13:19:56.901,7.0625,-7.75
13:19:56.940,6.9688,-6.9375
13:19:56.943,6.9375,-8.125
13:19:56.946,6.1875,-9.0625
13:19:56.948,5.5313,-8.3125
13:19:56.953,5.3125,-9.5625
13:19:56.986,5.1875,-11.0625
13:19:56.990,4.5938,-10.125
13:19:57.011,4.3125,-11.75
13:19:57.026,4.1875,-12.0625
13:19:57.028,4.3125,-12.125
13:19:57.028,3.75,-11.875
13:19:57.043,3.8125,-10.3125
13:19:57.045,4.9688,-9.1875
13:19:57.048,6.375,-4.75
13:19:57.051,7.75,-1.4375
13:19:57.062,8.9063,2.4375
13:19:57.073,10.4375,5.4375
13:19:57.082,11.4375,7.75
13:19:57.091,11.5313,10.25
13:19:57.102,12.125,11.3125
13:19:57.113,12.0313,11.3125
13:19:57.121,12,11.5
13:19:57.133,11.5625,12.25
13:19:57.141,11.5,11.75
13:19:57.152,11.75,11.5
13:19:57.162,11.8438,12.375
13:19:57.172,11.1563,11.0625
13:19:57.182,11.3125,11.5625
13:19:57.192,10.9688,12.25
13:19:57.203,10.4063,12.1875
13:19:57.211,11.0938,12.25
13:19:57.221,9.9688,14.3751
13:19:57.232,10.8438,13.1251
13:19:57.243,11.5,13.3126
13:19:57.251,10.7813,12.9375
13:19:57.261,10.2813,12.5
13:19:57.272,10.5,13.3751
13:19:57.284,9.9688,12.3125
13:19:57.293,9.125,10.8125
13:19:57.302,7.9063,9.875
13:19:57.311,7.7813,8.0625
13:19:57.322,6.4375,5.8125
13:19:57.332,5.4688,6.0625
13:19:57.343,5.8438,4.6875
13:19:57.351,4.375,2.375
13:19:57.361,3.75,3.6875
13:19:57.372,3.8125,2.5625
13:19:57.404,3.1875,1.4375
13:19:57.406,2.75,2
13:19:57.409,2.4063,1.5
13:19:57.416,2.9688,1.0625
13:19:57.423,1.7813,-0.0625
13:19:57.433,1.1875,-0.0625
13:19:57.442,1.4063,0.875
13:19:57.453,0.875,-1.1875
13:19:57.466,0.1563,-1.875
13:19:57.476,-0.5,-2.0625
13:19:57.487,0.5938,-2.875
13:19:57.498,-0.0938,-3.375
13:19:57.508,-1.3438,-2.875
13:19:57.516,-0.6875,-4.5625
13:19:57.528,-1.625,-5.5
13:19:57.537,-1.5313,-5.8125
13:19:57.569,-1.875,-5.5
13:19:57.572,-1.7813,-6.75
13:19:57.574,-1.5938,-7.5
13:19:57.576,-2.125,-8.125
13:19:57.612,-2.375,-7.125
13:19:57.614,-2.375,-8.5625
13:19:57.617,-2.375,-9.75
13:19:57.620,-2.4063,-9.0625
13:19:57.656,-2.6875,-11
13:19:57.657,-3.2813,-10.75
13:19:57.659,-2.8125,-11.6875
13:19:57.664,-3.8438,-11.75
13:19:57.668,-4.25,-12.25
13:19:57.703,-3.7188,-12.9375
13:19:57.705,-3.9063,-11.6875
13:19:57.708,-4.3125,-14.0626
13:19:57.711,-4.7813,-13
13:19:57.718,-4.3125,-14.7501
13:19:57.727,-4.8438,-13.2501
13:19:57.738,-5.0938,-15.3126
13:19:57.746,-4.8438,-14.8751
13:19:57.756,-4.9688,-16.0626
13:19:57.767,-5.8125,-16.0626
13:19:57.777,-5.375,-16.5001
13:19:57.786,-5.7813,-15.8126
13:19:57.802,-5.6563,-16.8126
13:19:57.819,-5.5313,-17.6876
13:19:57.821,-6.1563,-17.1251
13:19:57.836,-5.5938,-18.1251
13:19:57.839,-6.125,-18.3126
13:19:57.854,-5.9375,-19.0001
13:19:57.856,-6.8125,-19.3751
13:19:57.866,-6.5313,-19.7501
13:19:57.878,-6.4688,-19.5001
13:19:57.888,-6.6563,-20.8126
13:19:57.898,-6.625,-20.4376
13:19:57.906,-7.2813,-22.0001
13:19:57.918,-7.0938,-20.8126
13:19:57.927,-7.6563,-22.1251
13:19:57.940,-6.375,-19.7501
13:19:57.953,-5.5313,-19.0626
13:19:57.961,-4.6875,-16.9376
13:19:57.973,-2.8438,-13.2501
13:19:57.981,-1.125,-10.4375
13:19:57.994,-0.3438,-4.4375
13:19:58.001,1.7813,-1.8125
13:19:58.013,3.375,-0.3125
13:19:58.023,4.375,2.5625
13:19:58.033,5.0313,3.75
13:19:58.043,5.75,6.875
13:19:58.052,6.3438,6.8125
13:19:58.063,6.0625,7.8125
13:19:58.071,6.1875,7.4375
13:19:58.081,6,8.5625
13:19:58.093,6.4688,8.375
13:19:58.103,6.2188,9.125
13:19:58.111,5.9063,9.875
13:19:58.123,6.8438,10.125
13:19:58.138,6.8125,12.4375
13:19:58.143,7.2188,12.1875
13:19:58.151,7.375,13.2501
13:19:58.162,8.1563,12.4375
13:19:58.172,7.5,12.6875
13:19:58.184,7.4063,14.2501
13:19:58.192,6.9375,13.4376
13:19:58.202,7.8438,13.4376
13:19:58.214,7.3438,12.625
13:19:58.223,7.1563,12.75
13:19:58.231,7.0625,10.8125
13:19:58.242,5.9063,9.8125
13:19:58.253,5.2813,8.5
13:19:58.262,4.2188,7.5625
13:19:58.271,4.25,5.5
13:19:58.284,3.3438,4.5
13:19:58.291,2.4063,4.375
13:19:58.310,2.125,3.5
13:19:58.315,2.875,2.5625
13:19:58.344,1.7188,2.0625
13:19:58.346,1.375,2.5625
13:19:58.406,1.2188,2.5
13:19:58.408,2,1.0625
13:19:58.411,1.2188,0.6875
13:19:58.411,0.75,0.25
13:19:58.412,0.5313,0.9375
13:19:58.414,0.2188,0.3125
13:19:58.449,-0.75,-1.25
13:19:58.451,-0.6563,-1.5625
13:19:58.452,-1.0625,-2
13:19:58.454,-1.4063,-3.375
13:19:58.459,-2.4375,-3.6875
13:19:58.460,-2.1563,-4.875
13:19:58.463,-2.25,-5.75
13:19:58.494,-3.0938,-6.8125
13:19:58.496,-3.4375,-6.5
13:19:58.499,-2.9375,-7.625
13:19:58.503,-3.8438,-8.9375
13:19:58.519,-4.4063,-9.125
13:19:58.522,-4.0938,-10.125
13:19:58.533,-4.6563,-10.4375
13:19:58.544,-5.2188,-10.625
13:19:58.553,-5.4375,-10.5
13:19:58.563,-5.0313,-10.9375
13:19:58.573,-4.8438,-12
13:19:58.584,-5.0938,-12.9375
13:19:58.593,-5.6875,-12.9375
13:19:58.603,-5.9375,-13.4376
13:19:58.613,-5.6563,-14.0001
13:19:58.624,-6,-14.7501
13:19:58.633,-6.3438,-14.1251
13:19:58.642,-6.25,-15.0001
13:19:58.652,-6.0625,-15.3126
13:19:58.682,-6.2813,-15.1251
13:19:58.684,-6.3438,-16.0001
13:19:58.686,-6.4063,-15.8751
13:19:58.693,-7.0938,-17.3126
13:19:58.702,-7.0313,-17.0001
13:19:58.713,-6.5625,-16.6876
13:19:58.724,-7.25,-16.8126
13:19:58.734,-7.2813,-17.6876
13:19:58.744,-7.0625,-17.4376
13:19:58.753,-7.25,-18.6876
13:19:58.763,-7.6563,-17.8751
13:19:58.773,-7.8438,-19.6876
13:19:58.782,-7.6563,-18.2501
13:19:58.792,-7.9063,-19.7501
13:19:58.804,-7.5,-19.5626
13:19:58.816,-8,-20.1251
13:19:58.823,-8.5625,-20.4376
13:19:58.833,-8.5313,-21.3751
13:19:58.844,-8.7813,-21.5001
13:19:58.853,-8.3125,-21.6251
13:19:58.864,-8.875,-21.6251
13:19:58.873,-8.0625,-21.2501
13:19:58.882,-7.2188,-19.6876
13:19:58.893,-6.5938,-17.0001
13:19:58.903,-4.125,-14.1876
13:19:58.913,-3.0625,-9.875
13:19:58.923,-1.5313,-6.6875
13:19:58.932,-0.75,-2.6875
13:19:58.943,1.625,-0.375
13:19:58.953,2.0313,3.0625
13:19:58.961,2.9688,3.8125
13:19:58.973,2.75,5.3125
13:19:58.983,3.0938,6.375
13:19:58.991,3.375,5.9375
13:19:59.003,3.5938,6.6875
13:19:59.034,3.6563,6.9375
13:19:59.036,3.375,7.875
13:19:59.039,3.5625,7.8125
13:19:59.044,4.25,9.4375
13:19:59.074,5.0938,10
13:19:59.076,4.5938,11
13:19:59.080,4.9063,11.8125
13:19:59.084,4.9688,12.125
13:19:59.116,5.7813,13.5001
13:19:59.119,5.375,13.3751
13:19:59.159,5.0625,13.7501
13:19:59.162,5.4688,13.5626
13:19:59.194,5.5,13.6876
13:19:59.197,4.9688,14.4376
13:19:59.212,5.75,13.8126
13:19:59.214,4.25,12.5
13:19:59.214,3.4688,11.6875
13:19:59.227,3.4688,10.0625
13:19:59.229,2.9688,8.3125
13:19:59.232,2.2188,7.0625
13:19:59.238,2.7188,6.5625
13:19:59.248,1.5625,4.8125
13:19:59.257,1.5938,4.75
13:19:59.268,1.125,5.75
13:19:59.278,2.625,5.375
13:19:59.288,1.4375,4.3125
13:19:59.298,1.0313,5
13:19:59.309,1.2188,5.5
13:19:59.318,0.9375,4.25
13:19:59.328,0.6875,3.5
13:19:59.338,0.0938,3.9375
13:19:59.346,-0.625,2.1875
13:19:59.357,-0.6875,2.25
13:19:59.368,-1.2813,0.0625
13:19:59.378,-2.1563,0.625
13:19:59.388,-1.9375,0.375
13:19:59.398,-1.5313,-0.9375
13:19:59.408,-2.5313,-2.0625
13:19:59.418,-3.125,-2
13:19:59.428,-3.2188,-3.25
13:19:59.438,-3.6875,-4.5625
13:19:59.449,-3.7813,-4.9375
13:19:59.458,-4.0313,-4.1875
13:19:59.468,-3.4688,-4.875
13:19:59.478,-4.3438,-5.625
13:19:59.488,-4.6875,-5.75
13:19:59.497,-4.5938,-5.3125
13:19:59.508,-4.5938,-7.375
13:19:59.520,-5.4375,-6.875
13:19:59.528,-5.0938,-7.5625
13:19:59.538,-5.2813,-8.6875
13:19:59.548,-5.875,-8.75
13:19:59.558,-5.3125,-9
13:19:59.567,-6.2813,-9.4375
13:19:59.578,-5.9688,-10.3125
13:19:59.590,-6.375,-10.6875
13:19:59.598,-6.1563,-11.75
13:19:59.607,-6.4688,-11.875
13:19:59.618,-6.75,-12.0625
13:19:59.628,-6.9063,-12.0625
13:19:59.640,-6.4063,-12.1875
13:19:59.657,-6.75,-13.125
13:19:59.660,-6.625,-12.875
13:19:59.674,-7.375,-13.7501
13:19:59.690,-6.5938,-13.2501
13:19:59.691,-7.2813,-13.5001
13:19:59.702,-7.3125,-14.4376
13:19:59.708,-7.5625,-14.6876
13:19:59.745,-7.2813,-15.3751
13:19:59.749,-7.9063,-15.5001
13:19:59.750,-7.25,-16.3126
13:19:59.753,-8.4063,-16.4376
13:19:59.757,-8.25,-16.7501
13:19:59.784,-8.0625,-17.3751
13:19:59.788,-8.3438,-18.3751
13:19:59.790,-8.0938,-17.1251
13:19:59.823,-7.75,-17.1876
13:19:59.825,-6.5,-14.5626
13:19:59.828,-4.6875,-12.25
13:19:59.833,-3.2813,-7.25
13:19:59.859,-1.8125,-3.0625
13:19:59.861,0.5938,0.25
13:19:59.864,2.1563,3.5625
13:19:59.868,2.875,7.625
13:19:59.896,3.7813,8.25
13:19:59.899,4.2188,10.5625
13:19:59.901,4.4063,10.8125
13:19:59.908,4.375,11.8125
13:19:59.919,4.6875,12.625
13:19:59.928,4.7813,13.6251
13:19:59.962,5.125,13.7501
13:19:59.965,4.9063,14.9376
13:19:59.970,5.5313,15.0626
13:19:59.973,4.4375,15.5001
13:19:59.978,5.625,16.7501
13:19:59.988,6.5313,17.1876
13:19:59.998,6.5,18.7501
13:20:00.008,6.2813,18.3126
13:20:00.024,6.5625,19.8126
13:20:00.030,6.4063,20.8126
13:20:00.038,7.125,20.8126
13:20:00.048,6.6875,20.1876
13:20:00.058,6.3438,21.5626
13:20:00.068,5.6563,20.7501
13:20:00.077,5.6563,18.9376
13:20:00.089,5.0625,19.1251
13:20:00.098,4.125,16.2501
13:20:00.108,3.3438,14.7501
13:20:00.118,2.8438,15.0001
13:20:00.128,2.5625,13.7501
13:20:00.138,1.8125,12
13:20:00.148,1.5938,12.75
13:20:00.158,2.4375,12.1875
13:20:00.168,2.0625,12.25
13:20:00.178,1.9375,13.8751
13:20:00.188,1.75,12.8125
13:20:00.198,1.6563,11.8125
13:20:00.208,1.5313,12.5
13:20:00.218,0.9688,12.25
13:20:00.228,1,11.25
13:20:00.238,0.625,10.5
13:20:00.249,0.2813,10.75
13:20:00.258,-0.2188,10.0625
13:20:00.268,-0.0625,9.375
13:20:00.279,-0.75,7.8125
13:20:00.288,-1.7188,7.5
13:20:00.298,-2.2813,6.4375
13:20:00.308,-2,6.5
13:20:00.319,-1.8438,5.375
13:20:00.328,-3.0313,4.125
13:20:00.339,-3.8125,4.375
13:20:00.349,-3.8125,3.125
13:20:00.358,-3.9688,2
13:20:00.368,-4.75,2.5625
13:20:00.378,-4.3125,1.8125
13:20:00.388,-5.0938,0.3125
13:20:00.397,-5.5,0.8125
13:20:00.408,-5.1875,-0.25
13:20:00.418,-5.8438,-1.0625
13:20:00.428,-6.2188,-1.25
13:20:00.438,-6.5,-2.125
13:20:00.447,-5.875,-2.3125
13:20:00.458,-6.2813,-1.5625
13:20:00.467,-6.4375,-3.125
13:20:00.478,-6.75,-4.25
13:20:00.494,-6.8125,-4.3125
13:20:00.498,-6.0313,-3.875
13:20:00.533,-6.7188,-5.0625
13:20:00.567,-7.5,-4.5
13:20:00.569,-7.625,-6.125
13:20:00.584,-8.0313,-7.3125
13:20:00.585,-8.1875,-6.5
13:20:00.588,-8.4688,-7.8125
13:20:00.589,-8.375,-7.8125
13:20:00.589,-9.375,-8.875
13:20:00.593,-9.4375,-8.5
13:20:00.634,-9.0625,-9.3125
13:20:00.637,-9.75,-9.625
13:20:00.639,-9.625,-10.75
13:20:00.643,-9.75,-10.8125
13:20:00.646,-10.2813,-11.5
13:20:00.653,-10.9063,-11.875
13:20:00.665,-11.4688,-11.5
13:20:00.673,-11.125,-12.125
13:20:00.683,-10.9688,-12.75
13:20:00.694,-10.9375,-11.1875
13:20:00.703,-9.1875,-8.625
13:20:00.713,-7.4063,-5.5
13:20:00.723,-6.125,-1.0625
13:20:00.734,-4.0625,2.9375
13:20:00.743,-2.375,6.375
13:20:00.753,-0.375,11.875
13:20:00.762,-0.625,12.375
13:20:00.779,0.2813,14.3126
13:20:00.782,0.5313,14.9376
13:20:00.792,0.1563,15.1876
13:20:00.804,0.875,16.5001
13:20:00.813,0.5625,16.3751
13:20:00.824,0.4688,18.4376
13:20:00.834,1,17.5001
13:20:00.845,0.4688,19.1876
13:20:00.853,0.9375,19.5626
13:20:00.863,1.6875,20.8126
13:20:00.873,1.6563,22.1251
13:20:00.883,1.3438,21.6876
13:20:00.892,1.9688,22.9376
13:20:00.903,2.5,23.8126
13:20:00.940,1.9688,24.7501
13:20:00.942,2.0313,25.5626
13:20:00.945,2.125,24.9376
13:20:00.950,1.875,23.9376
13:20:00.958,1.25,24.1251
13:20:00.974,0.625,23.1251
13:20:00.990,0.25,21.3126
13:20:00.995,-1.1563,19.3751
13:20:01.009,-1.5,18.5626
13:20:01.010,-1.6875,17.2501
13:20:01.025,-2.8438,17.0626
13:20:01.028,-3.25,16.8126
13:20:01.038,-3.4063,15.5626
13:20:01.048,-3.375,14.8126
13:20:01.058,-3.375,16.2501
13:20:01.068,-3.625,16.1251
13:20:01.078,-3.7188,15.4376
13:20:01.088,-4.625,16.0626
13:20:01.098,-4.125,14.5001
13:20:01.108,-5.2188,13.3751
13:20:01.118,-5.25,12.9375
13:20:01.128,-5.6563,12.3125
13:20:01.140,-6.5313,12.625
13:20:01.153,-6.6875,10.875
13:20:01.158,-7.3438,10.1875
13:20:01.169,-7.5313,8.1875
13:20:01.177,-8.0313,8.8125
13:20:01.189,-8.2188,7.8125
13:20:01.198,-8.7188,6.25
13:20:01.208,-9.8438,5.375
13:20:01.245,-9.875,5.125
13:20:01.248,-10.5938,3.5625
13:20:01.250,-11,3.875
13:20:01.254,-11.0938,2.875
13:20:01.285,-12,2.0625
13:20:01.322,-12.2813,1.375
13:20:01.323,-12.4375,1.0625
13:20:01.328,-12.6563,0.125
13:20:01.330,-12.9063,0.0625
13:20:01.330,-13.125,-0.0625
13:20:01.345,-13,-0.75
13:20:01.349,-14.2188,-1.625
13:20:01.383,-15.5626,-1
13:20:01.385,-16.4688,-1.3125
13:20:01.388,-17.3438,-1.8125
13:20:01.392,-19.0313,-1.9375
13:20:01.398,-21.8751,-0.75
13:20:01.422,-26.1876,-0.25
13:20:01.425,-31.6251,0.3125
13:20:01.428,-34.8751,1.8125
13:20:01.438,-38.8439,5.25
13:20:01.448,-41.4064,7.0625
13:20:01.459,-37.2189,14.4376
13:20:01.468,-28.5939,23.0626
13:20:01.478,-19.5001,29.7501
13:20:01.490,-10.1875,36.5001
13:20:01.498,5,52.7502
13:20:01.509,7.2188,54.6252
13:20:01.518,7.8125,55.1877
13:20:01.528,8.4063,55.1877
13:20:01.540,8.875,55.1877
13:20:01.548,9.125,54.7502
13:20:01.558,9.375,55.4377
13:20:01.568,9.9375,54.6877
13:20:01.578,11.125,57.8752
13:20:01.590,12.75,61.1877
13:20:01.598,14.2188,64.0627
13:20:01.608,15.9376,69.1253
13:20:01.620,18.5938,72.5628
13:20:01.628,19.5626,75.6253
13:20:01.637,21.2813,80.0003
13:20:01.648,23.1251,82.9378
13:20:01.658,23.8751,84.6878
13:20:01.668,25.5313,87.1253
13:20:01.678,26.9689,90.6254
13:20:01.688,27.6564,92.5004
13:20:01.697,28.9376,93.1254
13:20:01.708,30.1251,94.4379
13:20:01.718,30.5314,95.6879
13:20:01.728,31.0001,97.1879
13:20:01.738,29.9689,94.0004
13:20:01.750,26.8439,90.6254
13:20:01.758,24.2188,86.8753
13:20:01.768,25.2813,86.1253
13:20:01.779,27.1564,82.4378
13:20:01.788,28.6564,78.7503
13:20:01.798,29.3439,75.1253
13:20:01.813,30.5314,70.2503
13:20:01.823,32.1876,62.3752
13:20:01.832,34.9064,56.1877
13:20:01.850,36.6564,46.3752
13:20:01.853,38.8751,36.1876
13:20:01.868,40.1252,24.7501
13:20:01.883,40.0314,13.5001
13:20:01.886,40.2502,3.125
13:20:01.905,40.8439,-8.625
13:20:01.908,39.5939,-18.3126
13:20:01.915,37.8126,-28.3751
13:20:01.923,35.2814,-36.8126
13:20:01.949,31.9376,-41.4377
13:20:01.952,27.9376,-46.4377
13:20:01.954,23.0313,-49.0002
13:20:01.980,19.3751,-50.3127
13:20:01.983,14.8126,-52.4377
13:20:01.987,11.8125,-52.4377
13:20:01.993,9.6875,-53.5627
13:20:02.024,6,-52.3127
13:20:02.026,2.5625,-51.3752
13:20:02.029,-1.0938,-49.0627
13:20:02.038,-6.4375,-45.3752
13:20:02.068,-11.4688,-40.4377
13:20:02.070,-16.3751,-36.1876
13:20:02.073,-21.3438,-30.1251
13:20:02.079,-23.4376,-21.9376
13:20:02.105,-23.3438,-12.5625
13:20:02.108,-21.0938,-2
13:20:02.110,-20.4376,5.875
13:20:02.118,-19.7813,12.25
13:20:02.132,-19.7813,16.8126
13:20:02.138,-18.3438,22.7501
13:20:02.148,-17.6251,25.3126
13:20:02.158,-17.5313,28.2501
13:20:02.168,-15.7813,31.3751
13:20:02.178,-11.5313,36.6251
13:20:02.188,-7.9063,41.0002
13:20:02.198,-4.9063,43.6252
13:20:02.207,-2.5313,45.4377
13:20:02.218,-1.3438,48.1252
13:20:02.228,1.5313,50.7502
13:20:02.238,1.75,49.7502
13:20:02.248,2.125,51.6877
13:20:02.259,2.4375,51.7502
13:20:02.268,2.375,50.8127
13:20:02.282,3.1563,50.9377
13:20:02.298,1.9063,49.7502
13:20:02.304,1.0313,50.1877
13:20:02.310,1.5625,48.5002
13:20:02.320,0.9375,45.8127
13:20:02.328,-1.25,42.8752
13:20:02.343,-8.4063,35.1251
13:20:02.352,-13.4688,26.2501
13:20:02.358,-9.9063,19.0626
13:20:02.367,-5.625,13.5626
13:20:02.380,-2.375,5.625
13:20:02.388,1.5313,-3.75
13:20:02.398,1.4063,-14.0626
13:20:02.410,1.0625,-25.1876
13:20:02.419,0.625,-35.8126
13:20:02.428,0.7813,-43.0002
13:20:02.438,1.25,-49.7502
13:20:02.448,-2.5,-54.1877
13:20:02.458,-5.5313,-59.1877
13:20:02.468,-7.5,-61.8127
13:20:02.479,-8,-62.8752
13:20:02.488,-9.4375,-63.1252
13:20:02.522,-12.0313,-63.6877
13:20:02.525,-14.9063,-64.0627
13:20:02.528,-17.6563,-62.6877
13:20:02.531,-20.8438,-61.0002
13:20:02.538,-24.7188,-57.6877
13:20:02.548,-28.8126,-53.1877
13:20:02.559,-31.7189,-46.1252
13:20:02.568,-34.1876,-38.6251
13:20:02.578,-34.7501,-28.1876
13:20:02.588,-33.6876,-18.3126
13:20:02.598,-30.5626,-6.75
13:20:02.608,-26.8126,3.3125
13:20:02.618,-23.6876,13.4376
13:20:02.628,-20.6563,21.0001
13:20:02.639,-19.4376,26.3126
13:20:02.648,-17.9376,32.4376
13:20:02.658,-17.3438,36.3126
13:20:02.668,-13.9688,40.9377
13:20:02.678,-10.875,46.0627
13:20:02.687,-5.4688,51.0002
13:20:02.731,-2.4688,56.2502
13:20:02.733,1.5313,60.2502
13:20:02.735,3.8125,65.1877
13:20:02.738,6.125,68.0003
13:20:02.741,7.5,69.8753
13:20:02.748,8.4063,73.6878
13:20:02.760,8.9063,75.4378
13:20:02.797,9.9688,76.8128
13:20:02.803,10.0313,78.0628
13:20:02.804,11.0625,79.5003
13:20:02.806,11.2813,80.0628
13:20:02.834,11.4375,80.5628
13:20:02.837,11,80.9378
13:20:02.838,10.9063,79.7503
13:20:02.844,10.6875,79.0628
13:20:02.848,10.5938,77.7503
13:20:02.879,10.2813,75.8128
13:20:02.881,8.9063,72.2503
13:20:02.885,3.6875,66.3753
13:20:02.890,-1.0313,58.4377
13:20:02.900,-0.4063,50.5627
13:20:02.909,1.375,44.5002
13:20:02.918,3,34.8751
13:20:02.928,4.625,24.3126
13:20:02.938,6,14.1876
13:20:02.948,8.0938,6.0625
13:20:02.959,10.0313,-2.75
13:20:02.968,10,-12.125
13:20:02.978,8.8438,-19.8126
13:20:02.989,6.5625,-28.6251
13:20:02.998,4.6875,-33.9376
13:20:03.008,2.9375,-38.6876
13:20:03.019,1.4375,-43.5627
13:20:03.034,-0.5938,-46.3752
13:20:03.041,-3.6563,-49.1252
13:20:03.048,-6.0938,-49.9377
13:20:03.059,-7.5625,-51.1877
13:20:03.068,-9.5313,-50.8127
13:20:03.078,-12.6875,-50.2502
13:20:03.088,-16.6251,-49.6252
13:20:03.098,-23.2813,-48.6877
13:20:03.108,-28.3751,-47.2502
13:20:03.118,-33.2814,-44.8752
13:20:03.128,-36.5001,-40.2502
13:20:03.138,-38.7814,-36.4376
13:20:03.148,-40.0002,-30.4376
13:20:03.167,-40.2814,-26.1251
13:20:03.169,-39.9689,-19.9376
13:20:03.184,-37.9064,-14.8751
13:20:03.199,-36.4376,-8.5625
13:20:03.203,-33.3751,-4.625
13:20:03.218,-31.2814,1.5625
13:20:03.222,-28.9689,6.9375
13:20:03.229,-27.1251,9.9375
13:20:03.238,-27.0314,12.875
13:20:03.250,-25.0001,15.0001
13:20:03.258,-23.8438,18.1251
13:20:03.272,-22.4376,19.7501
13:20:03.280,-19.8438,23.6251
13:20:03.290,-17.5938,24.1876
13:20:03.304,-15.0626,27.8751
13:20:03.308,-12.5313,30.3751
13:20:03.319,-9.7813,32.7501
13:20:03.328,-8.0313,36.1876
13:20:03.338,-6.1875,36.1876
13:20:03.349,-5.8438,38.0626
13:20:03.359,-4.5625,37.5626
13:20:03.369,-4.9688,39.0001
13:20:03.379,-4.25,37.7501
13:20:03.404,-4,37.7501
13:20:03.405,-4.9688,37.2501
13:20:03.409,-4.5938,36.2501
13:20:03.440,-5.5313,36.1876
13:20:03.444,-4.9375,34.4376
13:20:03.447,-6,33.8751
13:20:03.450,-4.7813,33.3126
13:20:03.482,-5.4688,33.1251
13:20:03.486,-3.9063,32.5626
13:20:03.491,-4.5625,31.6876
13:20:03.496,-5.0625,28.8751
13:20:03.499,-4.5938,24.7501
13:20:03.537,1.1875,20.2501
13:20:03.539,7.3438,13.3126
13:20:03.544,10.6563,3.9375
13:20:03.545,10.2813,-9
13:20:03.549,7.875,-23.8751
13:20:03.577,5.1563,-35.1876
13:20:03.586,3.8125,-44.8127
13:20:03.588,2.8125,-51.6252
13:20:03.590,3.25,-58.8127
13:20:03.598,3.0625,-63.4377
13:20:03.608,1.9688,-68.6253
13:20:03.627,-0.25,-72.0628
13:20:03.634,-2.2813,-75.3128
13:20:03.649,-3.5,-75.6878
13:20:03.664,-6.0938,-77.0628
13:20:03.666,-8.7188,-75.3128
13:20:03.681,-12.6563,-75.1253
13:20:03.685,-16.1251,-72.8128
13:20:03.690,-21.2188,-69.9378
13:20:03.703,-27.5001,-67.1878
13:20:03.711,-32.1251,-63.1252
13:20:03.718,-38.0626,-58.1877
13:20:03.729,-41.7814,-52.9377
13:20:03.738,-46.4064,-47.9377
13:20:03.749,-49.1252,-42.7502
13:20:03.760,-51.3752,-37.0626
13:20:03.769,-50.6564,-31.0001
13:20:03.778,-48.8127,-23.3126
13:20:03.803,-44.9064,-15.4376
13:20:03.807,-41.9689,-7.6875
13:20:03.809,-37.8126,1.5
13:20:03.825,-34.4689,8
13:20:03.828,-29.7814,16.3126
13:20:03.839,-25.7501,23.3751
13:20:03.848,-21.6251,28.6876
13:20:03.858,-17.0626,36.0626
13:20:03.868,-12.5625,40.4377
13:20:03.878,-9.0625,46.7502
13:20:03.889,-4.375,51.1877
13:20:03.898,-1.8125,55.1252
13:20:03.908,1.2813,58.8127
13:20:03.918,3,60.1877
13:20:03.929,3.9688,62.8752
13:20:03.938,4.0313,63.6252
13:20:03.950,4.5313,64.1877
13:20:03.959,4.5313,63.5627
13:20:03.968,4.5938,64.1877
13:20:03.978,4.6875,64.1252
13:20:03.989,4.1563,63.8752
13:20:03.999,4.25,62.0627
13:20:04.008,4.875,62.8127
13:20:04.020,4.8438,62.5627
13:20:04.028,5.5625,60.6252
13:20:04.038,5.5938,59.0627
13:20:04.048,2.5625,53.6877
13:20:04.058,-2.8438,46.5627
13:20:04.070,-4.4063,36.9376
13:20:04.099,-1.6875,29.6251
13:20:04.103,-0.5625,19.9376
13:20:04.106,-1.8125,7
13:20:04.109,-2.4063,-5.3125
13:20:04.145,-7.1563,-18.5626
13:20:04.147,-12.2188,-30.1251
13:20:04.149,-15.3438,-40.1877
13:20:04.152,-15.6563,-46.1252
13:20:04.158,-13.7501,-50.5627
13:20:04.191,-13.3751,-53.8127
13:20:04.193,-13,-58.9377
13:20:04.198,-13.7188,-61.3127
13:20:04.200,-15.0938,-65.6878
13:20:04.237,-18.0938,-66.6878
13:20:04.239,-20.1251,-68.6878
13:20:04.241,-24.1876,-69.8128
13:20:04.244,-27.9064,-69.6878
13:20:04.249,-33.8751,-69.7503
13:20:04.258,-37.8439,-67.3753
13:20:04.267,-42.3752,-63.0002
13:20:04.279,-45.3752,-61.3127
13:20:04.288,-48.6564,-56.3752
13:20:04.298,-50.5939,-52.0627
13:20:04.308,-51.2189,-46.4377
13:20:04.318,-51.5314,-40.9377
13:20:04.329,-49.2189,-34.9376
13:20:04.340,-46.2502,-26.6251
13:20:04.348,-42.7502,-19.2501
13:20:04.358,-38.6251,-13.0625
13:20:04.369,-34.3751,-4.875
13:20:04.378,-29.3751,1.875
13:20:04.388,-24.1251,8.75
13:20:04.398,-19.2813,16.6876
13:20:04.409,-12.9375,25.5001
13:20:04.418,-6.5313,36.2501
13:20:04.428,-1.0313,44.3752
13:20:04.438,5.3438,54.3127
13:20:04.448,9.125,62.1252
13:20:04.458,12.9063,66.3128
13:20:04.469,15.4376,70.6878
13:20:04.484,16.2501,74.1253
13:20:04.500,17.2188,75.8753
13:20:04.501,18.3126,78.4378
13:20:04.517,18.1251,79.1878
13:20:04.520,18.6876,80.5628
13:20:04.536,19.0001,83.3753
13:20:04.539,19.5001,84.3753
13:20:04.548,20.2501,85.7503
13:20:04.559,20.6251,87.3128
13:20:04.568,20.7188,87.9378
13:20:04.578,21.7188,89.1253
13:20:04.591,21.8438,91.1254
13:20:04.599,21.5001,92.3754
13:20:04.608,22.5626,92.2504
13:20:04.622,22.9688,93.9379
13:20:04.627,24.0626,92.8754
13:20:04.639,22.9063,89.5628
13:20:04.649,17.0626,81.5003
13:20:04.658,11.75,72.6253
13:20:04.670,11.6875,63.0627
13:20:04.683,12.1875,52.1877
13:20:04.690,11.6875,38.5626
13:20:04.707,10.1875,22.9376
13:20:04.710,9.1563,9
13:20:04.721,8,-4.3125
13:20:04.727,6.8438,-15.5626
13:20:04.738,2.3125,-26.2501
13:20:04.748,-0.3125,-36.0626
13:20:04.759,-3.2188,-43.8752
13:20:04.771,-5.7813,-50.6877
13:20:04.781,-9.5625,-56.8127
13:20:04.790,-14.2813,-62.0627
13:20:04.798,-18.3751,-67.9378
13:20:04.810,-21.5626,-70.7503
13:20:04.819,-25.3438,-73.2503
13:20:04.857,-29.2501,-73.0003
13:20:04.862,-32.9064,-73.1253
13:20:04.880,-37.4689,-72.5003
13:20:04.884,-42.0939,-70.0628
13:20:04.886,-46.0314,-67.7503
13:20:04.886,-49.8752,-63.0002
13:20:04.889,-52.4064,-58.1877
13:20:04.926,-53.7502,-52.5627
13:20:04.929,-54.594,-46.1252
13:20:04.933,-53.3752,-40.7502
13:20:04.935,-51.7189,-32.4376
13:20:05.019,-48.6877,-25.5626
13:20:05.030,-44.3127,-16.0626
13:20:05.033,-40.0627,-7.6875
13:20:05.035,-35.2501,-0.375
13:20:05.041,-30.8439,6.375
13:20:05.041,-26.8126,14.1251
13:20:05.044,-20.9376,18.3751
13:20:05.057,-17.4063,24.1876
13:20:05.083,-13.4063,27.2501
13:20:05.088,-10.2813,31.2501
13:20:05.090,-7.6875,35.1876
13:20:05.095,-5.3438,38.0626
13:20:05.106,-2.8125,39.8127
13:20:05.121,-0.0313,42.2502
13:20:05.124,-0.1875,43.2502
13:20:05.133,0.5938,44.1252
13:20:05.144,0.8438,45.1252
13:20:05.153,1.25,45.1877
13:20:05.169,0.5625,44.6877
13:20:05.179,1.4375,44.7502
13:20:05.184,1.7813,45.6252
13:20:05.194,1.5,44.3752
13:20:05.203,-0.6875,42.3127
13:20:05.213,-1.4063,40.3752
13:20:05.225,-2.1875,38.7501
13:20:05.236,-4.1875,34.5626
13:20:05.242,-10.0938,25.5626
13:20:05.254,-15.3438,16.1876
13:20:05.271,-14.4376,6.25
13:20:05.273,-11.75,-5.4375
13:20:05.284,-11.6563,-17.1876
13:20:05.294,-11.4063,-29.8751
13:20:05.307,-12.5313,-42.1877
13:20:05.313,-14.6251,-51.4377
13:20:05.333,-16.6563,-61.3127
13:20:05.335,-19.1563,-70.1253
13:20:05.344,-22.0313,-76.5628
13:20:05.356,-24.6251,-82.2503
13:20:05.364,-27.6251,-85.5628
13:20:05.373,-28.6251,-86.1878
13:20:05.385,-28.6251,-83.8128
13:20:05.395,-29.3751,-81.6253
13:20:05.403,-30.5939,-75.9378
13:20:05.413,-31.9376,-71.3128
13:20:05.428,-34.4064,-64.6252
13:20:05.434,-36.5001,-58.7502
13:20:05.446,-38.6251,-51.4377
13:20:05.455,-40.5939,-44.4377
13:20:05.463,-40.9377,-36.8751
13:20:05.476,-41.2814,-29.3126
13:20:05.483,-38.7189,-19.0626
13:20:05.499,-34.1564,-9.25
13:20:05.506,-28.6251,3.125
13:20:05.516,-23.2501,12.5625
13:20:05.523,-18.0001,22.7501
13:20:05.533,-12.625,32.6876
13:20:05.545,-6.5625,40.7502
13:20:05.553,-1.1875,47.8127
13:20:05.566,2.875,55.1877
13:20:05.573,7.4375,60.8752
13:20:05.593,11.5625,66.3128
13:20:05.598,14.2501,70.4378
13:20:05.603,17.4063,75.1878
13:20:05.620,19.3438,78.9378
13:20:05.624,21.1563,81.0628
13:20:05.652,21.8126,82.0628
13:20:05.657,21.8438,83.1253
13:20:05.663,21.3438,81.0003
13:20:05.667,21.2813,81.3753
13:20:05.675,20.9376,80.3128
