timestamp,Red,IR
11:56:25.417,12.0313,12.1875
11:56:25.425,11.375,12.1875
11:56:25.436,11.25,12.875
11:56:25.445,10.8438,12.25
11:56:25.455,11.0313,11.5625
11:56:25.466,10.8438,9.75
11:56:25.475,9.4688,8.5625
11:56:25.485,9.2188,8.9375
11:56:25.495,9.8125,7.5625
11:56:25.505,9.8125,8.25
11:56:25.518,8.75,7.3125
11:56:25.525,8.1875,6.875
11:56:25.536,8.8125,7.625
11:56:25.545,8.4688,6.5
11:56:25.555,8.125,7.3125
11:56:25.566,7.5938,5
11:56:25.575,6.7813,4
11:56:25.585,5.8438,4.125
11:56:25.595,6.0313,3.25
11:56:25.605,6.0938,2.4375
11:56:25.616,5.4688,2.5625
11:56:25.625,5.0938,2.3125
11:56:25.635,5.9688,2.3125
11:56:25.645,5.5938,1.6875
11:56:25.655,5.6563,1.6875
11:56:25.665,5.125,1.625
11:56:25.676,5.1563,0.6875
11:56:25.688,4.1563,0.125
11:56:25.695,4.3438,1.3125
11:56:25.705,4.6875,0.25
11:56:25.716,4.0625,-0.625
11:56:25.726,3.9063,-0.75
11:56:25.735,4.4688,-0.6875
11:56:25.746,4.375,-0.5625
11:56:25.755,4.5,-1.5
11:56:25.766,4.4375,-2.0625
11:56:25.808,4.2188,-0.75
11:56:25.810,3.75,-1.4375
11:56:25.825,4.1875,-1.875
11:56:25.828,4.7813,-1.875
11:56:25.828,4.1875,-1.6875
11:56:25.831,4.125,-1.4375
11:56:25.835,4.1875,-2.875
11:56:25.845,3.5625,-3.4375
11:56:25.874,3.625,-2.3125
11:56:25.875,4.25,-3.6875
11:56:25.878,3.4375,-4.25
11:56:25.910,3.5,-3.875
11:56:25.913,2.7813,-4.625
11:56:25.916,3.0313,-3.9375
11:56:25.921,3.5,-5.0625
11:56:25.953,2.75,-5.6875
11:56:25.955,2.625,-5.5
11:56:25.958,3.4063,-5.6875
11:56:25.963,2.625,-5.125
11:56:25.967,2.6563,-5.875
11:56:26.005,2.1563,-6.1875
11:56:26.007,2.3438,-4.8125
11:56:26.009,2.9375,-6.3125
11:56:26.011,3.0313,-6.75
11:56:26.016,2.4688,-5.625
11:56:26.037,2.3438,-7.625
11:56:26.038,0.8125,-7.8125
11:56:26.045,0.7813,-7.625
11:56:26.060,0.8125,-9.4375
11:56:26.066,0.625,-9.125
11:56:26.077,0.5313,-8.375
11:56:26.086,2.1875,-7
11:56:26.095,2.9375,-4.125
11:56:26.105,4.9688,0.0625
11:56:26.115,6.0625,3.25
11:56:26.125,7,5.875
11:56:26.135,7.3438,8.0625
11:56:26.147,7.625,9.5625
11:56:26.155,7.7813,8.9375
11:56:26.165,7,10
11:56:26.175,6.4375,8.1875
11:56:26.185,6.0313,6.75
11:56:26.195,5.4688,7.875
11:56:26.206,6,6.875
11:56:26.215,5.8438,5.125
11:56:26.225,5.0313,4.5
11:56:26.235,5.1875,5.625
11:56:26.245,5.2813,5.625
11:56:26.256,5.0313,5.0625
11:56:26.265,5.4688,4.9375
11:56:26.275,4.75,6.1875
11:56:26.285,5.4688,6.5625
11:56:26.295,5.2813,5.1875
11:56:26.305,4.6875,3.9375
11:56:26.315,4.375,4.9375
11:56:26.326,4.5625,3.25
11:56:26.335,3.8438,2.3125
11:56:26.345,3.7188,2.4375
11:56:26.355,4.5313,1.5625
11:56:26.366,4.2188,1.8125
11:56:26.375,4.3125,2.125
11:56:26.386,3.75,2.5
11:56:26.395,4.25,1.9375
11:56:26.405,4.8438,2.3125
11:56:26.415,4.1563,1.8125
11:56:26.424,4.1563,1.8125
11:56:26.437,3.9688,0.5625
11:56:26.445,3.6875,-0.25
11:56:26.455,3.2188,0.875
11:56:26.465,3.6875,0.5625
11:56:26.476,3.0625,-1.3125
11:56:26.485,2.5,-2.5
11:56:26.496,2.625,-1.75
11:56:26.505,2.25,-1.6875
11:56:26.515,2.5313,-3.375
11:56:26.525,2.3125,-3.5
11:56:26.537,2.25,-3.75
11:56:26.545,2.5,-3.5625
11:56:26.555,1.875,-4.1875
11:56:26.565,1.75,-5.25
11:56:26.575,1.3125,-4.625
11:56:26.585,1.9688,-4.6875
11:56:26.596,1.2188,-5.875
11:56:26.605,1.0313,-6.4375
11:56:26.615,1.4688,-4.5625
11:56:26.625,1.3438,-5.4375
11:56:26.635,1.0313,-6.5
11:56:26.646,0.7813,-5.625
11:56:26.655,1.4063,-6.625
11:56:26.665,1,-7.4375
11:56:26.686,1.4688,-5.625
11:56:26.689,2.125,-6.1875
11:56:26.697,2,-5.9375
11:56:26.731,1.875,-5
11:56:26.732,2.9063,-5.5625
11:56:26.734,2.5,-6.75
11:56:26.736,2.4063,-5
11:56:26.771,2.25,-6.3125
11:56:26.773,2,-7.3125
11:56:26.776,1.75,-6.0625
11:56:26.804,1.5938,-7.8125
11:56:26.805,1.1563,-8.5625
11:56:26.808,1.6875,-7.0625
11:56:26.814,2.0625,-8.25
11:56:26.816,1.4063,-9.1875
11:56:26.854,1.0938,-8.8125
11:56:26.855,1.3438,-8.8125
11:56:26.857,1.125,-9.75
11:56:26.863,0.5313,-9.875
11:56:26.867,0.4688,-8.125
11:56:26.878,1.4063,-8.125
11:56:26.888,1.875,-4.9375
11:56:26.896,4,-1.125
11:56:26.905,4.875,1.8125
11:56:26.915,5.5313,3.5
11:56:26.925,5.7188,6.875
11:56:26.935,6.7188,7.6875
11:56:26.945,6.5938,8.0625
11:56:26.955,6.2813,8.4375
11:56:26.965,6.3125,7.4375
11:56:26.975,5.625,5.375
11:56:26.985,5.625,5.6875
11:56:26.995,6.3125,6
11:56:27.005,5.6875,5.1875
11:56:27.015,5.125,6.3125
11:56:27.025,5.2188,5.1875
11:56:27.036,4.9688,5.125
11:56:27.045,5.0313,6.0625
11:56:27.072,6.4688,5.625
11:56:27.087,5.7813,5.8125
11:56:27.090,6.4688,7.6875
11:56:27.105,6.9375,7.125
11:56:27.120,5.9688,6.25
11:56:27.122,6.0313,6.4375
11:56:27.138,6.875,4.9375
11:56:27.141,6.7813,4.4375
11:56:27.142,6.3125,4.1875
11:56:27.145,6.1875,4.4375
11:56:27.155,7.3125,4.75
11:56:27.165,7.0625,3.9375
11:56:27.175,6.375,3
11:56:27.185,6.3438,4.125
11:56:27.195,7.0938,4.5625
11:56:27.205,7.4063,4.4375
11:56:27.215,6.3125,3.125
11:56:27.225,6.25,4
11:56:27.236,6.8438,4.125
11:56:27.245,5.9688,3.5
11:56:27.255,5.5313,3.0625
11:56:27.265,5.3125,1
11:56:27.275,4.9375,0.5625
11:56:27.291,4.875,-0.6875
11:56:27.295,3.7188,0.5
11:56:27.305,4.2188,-0.5
11:56:27.316,4,-1.6875
11:56:27.325,4.0938,-1.5
11:56:27.335,4.3125,-0.8125
11:56:27.345,4.125,-1.0625
11:56:27.355,5.3125,-0.9375
11:56:27.365,5.3438,-1.75
11:56:27.375,4,-2.6875
11:56:27.399,4,-2.875
11:56:27.400,3.4063,-2.0625
11:56:27.416,4.125,-2.0625
11:56:27.416,4.0625,-4.0625
11:56:27.444,4.1875,-4.0625
11:56:27.448,4.8438,-2.5625
11:56:27.449,4.6875,-3.0625
11:56:27.455,4.2188,-2.5625
11:56:27.493,4.9375,-3.3125
11:56:27.497,4.2813,-3.1875
11:56:27.498,4.5,-3.6875
11:56:27.533,4.5313,-4.3125
11:56:27.534,5.0313,-4.1875
11:56:27.537,5.375,-3.1875
11:56:27.543,5.9688,-3.6875
11:56:27.545,5.1563,-4.0625
11:56:27.558,4.5,-3.875
11:56:27.560,5.3125,-4.0625
11:56:27.567,4.5625,-5.0625
11:56:27.575,4.125,-4.6875
11:56:27.585,4.5938,-5
11:56:27.595,4.4063,-6.5625
11:56:27.605,4.25,-5.875
11:56:27.615,5.4063,-6.1875
11:56:27.626,4.5313,-6.125
11:56:27.636,3.875,-6.75
11:56:27.645,3.5313,-5.5625
11:56:27.655,5.0625,-6
11:56:27.665,6.1875,-5.0625
11:56:27.675,6.0313,-3
11:56:27.685,7.4688,3.3125
11:56:27.695,9.0313,5.9375
11:56:27.705,10.6563,8
11:56:27.715,10.9375,10.875
11:56:27.725,11.9063,12.875
11:56:27.735,11.7188,13
11:56:27.745,11.4688,12.6875
11:56:27.755,11.0625,13.3126
11:56:27.765,10.625,12.125
11:56:27.775,10.0938,10.5625
11:56:27.785,9.3438,9.625
11:56:27.795,9.4688,9.9375
11:56:27.806,8.8438,8.625
11:56:27.817,8.3125,8.75
11:56:27.825,7.5938,8.25
11:56:27.835,8.5,7.375
11:56:27.845,7.7813,7.1875
11:56:27.856,7.4375,7.4375
11:56:27.865,7.6875,8.25
11:56:27.875,7.8438,6.8125
11:56:27.885,7.6875,6.25
11:56:27.896,6.8125,6.4375
11:56:27.905,7.375,5.75
11:56:27.917,6.7188,3.625
11:56:27.925,6.1563,3.4375
11:56:27.936,6.2813,3.25
11:56:27.945,6.2813,3.0625
11:56:27.955,5.5,2.0625
11:56:27.965,5.625,1.1875
11:56:27.975,5.2188,2.875
11:56:27.985,6.2188,3.5625
11:56:27.995,5.6875,2.1875
11:56:28.005,5.375,1.75
11:56:28.017,5.125,1.9375
11:56:28.026,4.7188,2
11:56:28.035,4.8125,1.125
11:56:28.045,4.6875,0.5625
11:56:28.055,4.625,0.8125
11:56:28.074,5.2188,0.75
11:56:28.076,4.9375,0
11:56:28.085,5.2188,-0.4375
11:56:28.114,5.75,0.8125
11:56:28.117,5.4688,-0.5625
11:56:28.118,5.375,-1.3125
11:56:28.126,4.875,-2.1875
11:56:28.165,4.875,-0.9375
11:56:28.167,4.5313,-1.0625
11:56:28.169,4.9375,-2.1875
11:56:28.176,5.3125,-2.4375
11:56:28.177,4.625,-2.5625
11:56:28.191,5.4375,-2.5625
11:56:28.196,4.8438,-1.0625
11:56:28.230,5.1563,-1.8125
11:56:28.233,5.5,-3.25
11:56:28.236,4.5313,-3.5
11:56:28.242,4.4688,-2.125
11:56:28.246,4.1563,-1.6875
11:56:28.255,4.6875,-3.75
11:56:28.265,3.75,-3.8125
11:56:28.275,3.9063,-4.8125
11:56:28.285,4.0625,-5
11:56:28.296,3.5625,-4.75
11:56:28.305,3.0313,-5.5
11:56:28.315,4.1875,-5.6875
11:56:28.326,3.0313,-5.9375
11:56:28.351,3.25,-5.25
11:56:28.354,3.9063,-5.5
11:56:28.356,3,-7.125
11:56:28.365,2.9688,-7.25
11:56:28.384,2.3438,-7.5
11:56:28.387,1.9375,-8.5
11:56:28.402,1,-8.6875
11:56:28.416,0.6563,-7.875
11:56:28.419,0.9375,-8.75
11:56:28.434,1.5625,-7.75
11:56:28.449,2.4063,-3.4375
11:56:28.451,3.9063,-0.4375
11:56:28.467,5.6875,2.1875
11:56:28.481,5.9688,4.125
11:56:28.484,6.0313,7.625
11:56:28.500,6.625,8.25
11:56:28.501,7.0625,8.9375
11:56:28.506,7.0313,10.8125
11:56:28.515,7.8438,9.625
11:56:28.525,7.5625,8.8125
11:56:28.535,7.4375,8.0625
11:56:28.545,7.4688,7.875
11:56:28.557,7.6875,9.625
11:56:28.565,7.9063,7.9375
11:56:28.575,7.2188,7
11:56:28.585,7.2813,7.4375
11:56:28.595,6.8125,9.6875
11:56:28.605,6.9688,8.8125
11:56:28.615,7.7188,8.75
11:56:28.625,7.8438,8.375
11:56:28.635,7.0625,7.75
11:56:28.645,7.0625,8.625
11:56:28.655,7.5625,7.75
11:56:28.665,8,6.6875
11:56:28.675,7.125,5.625
11:56:28.685,7.3438,6.25
11:56:28.695,7.375,6.3125
11:56:28.705,7.5938,6
11:56:28.715,7.3125,5.25
11:56:28.725,6.75,5.0625
11:56:28.735,6.8125,6.0625
11:56:28.745,6.7188,5.6875
11:56:28.756,7.25,4.8125
11:56:28.766,6.7813,4.25
11:56:28.776,6.4063,3.6875
11:56:28.785,6,4.375
11:56:28.794,6.4063,4.375
11:56:28.820,6.5625,3.8125
11:56:28.822,6.3438,2.25
11:56:28.825,5.9063,3.4375
11:56:28.857,6.6875,2.8125
11:56:28.859,6.1563,1.875
11:56:28.862,6.0313,1.4375
11:56:28.865,6.125,0.5
11:56:28.895,5.0938,1.5
11:56:28.898,5.7188,1.1875
11:56:28.900,5.0313,-0.375
11:56:28.907,4.7188,-0.875
11:56:28.933,4.0625,-0.25
11:56:28.935,3.6875,-1.125
11:56:28.938,4,-2.5
11:56:28.975,3.8125,-2.4375
11:56:28.979,3.875,-2.75
11:56:28.980,4.1875,-3.4375
11:56:28.986,4.1563,-2.5625
11:56:28.986,3.9375,-2.6875
11:56:28.996,3.5938,-3.3125
11:56:29.005,3.6563,-3
11:56:29.015,4.2813,-3.5625
11:56:29.025,3.4375,-4.125
11:56:29.035,3.1563,-5
11:56:29.046,2.6875,-3.625
11:56:29.055,2.9063,-5.25
11:56:29.065,2.875,-6.0625
11:56:29.075,2.75,-4.75
11:56:29.090,3.5938,-5.5625
11:56:29.100,3.0313,-5.125
11:56:29.111,2.7813,-5.5625
11:56:29.120,2.875,-5.875
11:56:29.135,2.8438,-6.8125
11:56:29.140,2.5313,-7.75
11:56:29.150,2.2188,-7.6875
11:56:29.160,2.4063,-6.3125
11:56:29.170,3.0938,-7.6875
11:56:29.181,2.625,-7.5
11:56:29.190,2.9375,-7.875
11:56:29.200,2.7188,-7.3125
11:56:29.210,2.5,-7.0625
11:56:29.221,2.0625,-9.6875
11:56:29.230,2.0938,-8
11:56:29.240,2.1563,-8
11:56:29.250,2.9063,-7.0625
11:56:29.260,3.5,-5.375
11:56:29.270,4.3438,-4.125
11:56:29.280,6.6563,1.5
11:56:29.290,8.3438,4.8125
11:56:29.300,8.9688,9.1875
11:56:29.311,9.8438,11.125
11:56:29.320,10.9375,11.5625
11:56:29.330,10.1875,14.1876
11:56:29.340,10.625,14.0001
11:56:29.352,11.4375,12.6875
11:56:29.361,10.8438,13.125
11:56:29.370,10.9688,11.625
11:56:29.380,10.4375,11.875
11:56:29.390,10.0938,10.8125
11:56:29.401,10.1875,10.0625
11:56:29.412,9.9063,10.125
11:56:29.422,9.875,9.875
11:56:29.430,10.0625,10.3125
11:56:29.440,9.75,9.8125
11:56:29.450,9.8125,10.75
11:56:29.460,10.5313,11.1875
11:56:29.470,9.7188,9.875
11:56:29.481,9.5,10.1875
11:56:29.492,8.9688,9.3125
11:56:29.500,8.9375,8.75
11:56:29.515,8.875,7.375
11:56:29.522,8.5625,6.25
11:56:29.531,7.7813,7.1875
11:56:29.541,8.4063,5.625
11:56:29.550,8.125,5.125
11:56:29.565,8.2188,5.375
11:56:29.571,8,6.5625
11:56:29.601,8.25,5.8125
11:56:29.602,7.625,4.5625
11:56:29.605,7.7188,5.6875
11:56:29.632,8.125,5.9375
11:56:29.663,8.5938,4.75
11:56:29.663,8,4.5625
11:56:29.664,7.6563,4.8125
11:56:29.665,8.1875,4.6875
11:56:29.673,8.375,4.3125
11:56:29.676,8.0625,2.875
11:56:29.682,8.0313,3.8125
11:56:29.714,7.9375,4.125
11:56:29.746,7.9688,3.25
11:56:29.748,8.2188,2.625
11:56:29.749,7.4688,1.1875
11:56:29.777,6.9063,1.375
11:56:29.778,7.0625,1.4375
11:56:29.778,7.5,0.5625
11:56:29.783,6.875,-0.125
11:56:29.785,6.7813,-1.125
11:56:29.800,5.9375,-0.75
11:56:29.815,6,-0.4375
11:56:29.817,6.25,-1.125
11:56:29.833,5.8438,-2.25
11:56:29.834,5.3438,-2.3125
11:56:29.835,5.9688,-1.9375
11:56:29.841,5.875,-2.5
11:56:29.852,5.7813,-2.125
11:56:29.861,5.75,-1.25
11:56:29.870,6,-2.125
11:56:29.880,6.75,-1.1875
11:56:29.890,6.4375,-2.0625
11:56:29.900,5.8438,-2.25
11:56:29.910,6.625,-2
11:56:29.920,6.6563,-4.0625
11:56:29.930,7.1563,-1.3125
11:56:29.941,7.5313,-2.125
11:56:29.950,7.9375,-2.375
11:56:29.960,7.4688,-2
11:56:29.970,6.8438,-2.375
11:56:29.980,7.2188,-3.1875
11:56:29.990,6.625,-3.125
11:56:30.001,6.7188,-2.75
11:56:30.010,6.2188,-4.5
11:56:30.020,5.9688,-4.5
11:56:30.031,6.3125,-4.3125
11:56:30.040,6.5938,-2.6875
11:56:30.050,7.4375,-0.125
11:56:30.060,9.1875,3.125
11:56:30.070,9.75,5.0625
11:56:30.080,10.6563,9.375
11:56:30.090,11.1875,10.1875
11:56:30.101,11.0625,12.1875
11:56:30.110,11.9063,13.1876
11:56:30.121,12.0938,13.0625
11:56:30.130,11,13.9376
11:56:30.140,10.9063,13
11:56:30.150,10.75,11.4375
11:56:30.160,10.9688,11.9375
11:56:30.170,10.5625,10.4375
11:56:30.181,9.4063,9.5
11:56:30.190,9.1563,10.8125
11:56:30.200,9.3125,9.3125
11:56:30.211,8.6563,7.75
11:56:30.221,8.375,8
11:56:30.230,8.5938,8.8125
11:56:30.240,8.5625,7.4375
11:56:30.250,7.7813,6.625
11:56:30.287,6.8438,6
11:56:30.292,6.9063,4.25
11:56:30.299,5.7813,3.8125
11:56:30.303,5.1563,4.375
11:56:30.303,6.0313,3.8125
11:56:30.332,5.1563,2.1875
11:56:30.335,4.5938,2.5625
11:56:30.337,4,1.5
11:56:30.342,4.5938,1.5625
11:56:30.370,4.2188,1.5
11:56:30.372,4.0625,1.625
11:56:30.375,4,2.1875
11:56:30.381,4.0938,1.9375
11:56:30.418,4.5938,1.0625
11:56:30.421,3.9688,0.5
11:56:30.423,3.5313,1.25
11:56:30.425,4.3438,0.4375
11:56:30.430,3.9688,0.0625
11:56:30.449,3.7813,0.25
11:56:30.452,4.7188,-0.5625
11:56:30.460,4.0625,-1.5625
11:56:30.470,4.3438,-1.4375
11:56:30.481,4.3438,-0.9375
11:56:30.490,4.75,-1.5
11:56:30.500,4.4375,-1.25
11:56:30.510,3.75,-0.75
11:56:30.520,4.375,-2.3125
11:56:30.530,4.1563,-3.0625
11:56:30.540,4,-2.1875
11:56:30.550,3.9063,-1.25
11:56:30.560,4.5625,-3
11:56:30.571,3.8125,-3.875
11:56:30.580,4.0625,-3.1875
11:56:30.590,4.4375,-3.5
11:56:30.600,3.625,-4.3125
11:56:30.611,3.4063,-3.625
11:56:30.620,3.7813,-4.5625
11:56:30.630,3.7188,-5
11:56:30.640,4.0625,-3.3125
11:56:30.650,3.8438,-4.375
11:56:30.661,3.4688,-4
11:56:30.670,4.2188,-4.75
11:56:30.680,3.5,-4.6875
11:56:30.690,3.75,-4.625
11:56:30.700,3.1875,-6
11:56:30.710,2.3438,-5.1875
11:56:30.720,2.75,-6.8125
11:56:30.730,2.2813,-7.5625
11:56:30.740,2.3438,-6.75
11:56:30.751,2.7813,-7.375
11:56:30.760,1.5313,-7.8125
11:56:30.770,1.1875,-7.25
11:56:30.780,1.6563,-7.9375
11:56:30.790,1.5625,-7.375
11:56:30.801,2.9375,-4.625
11:56:30.810,3.9688,-2.125
11:56:30.820,4.9063,2.1875
11:56:30.830,5.7813,5.1875
11:56:30.841,6.8125,6.625
11:56:30.850,7.0625,9.375
11:56:30.860,7.5938,9.8125
11:56:30.870,7.7188,9.5625
11:56:30.880,7.0313,10.5
11:56:30.913,6.6875,9.3125
11:56:30.914,6.6875,7.875
11:56:30.916,6.0313,7.375
11:56:30.920,6.375,7.8125
11:56:30.932,5.7813,6.6875
11:56:30.940,5.2813,6.25
11:56:30.950,5.625,5.9375
11:56:30.961,5.9063,6.0625
11:56:30.970,5.4375,5.9375
11:56:30.980,5.3125,7.6875
11:56:30.990,6.0313,6.6875
11:56:31.000,5.3438,6.125
11:56:31.015,5.0313,6.6875
11:56:31.022,5.1875,5.875
11:56:31.030,4.8125,4.0625
11:56:31.066,3.9063,3.875
11:56:31.067,3.9688,4
11:56:31.128,4.0938,3.8125
11:56:31.158,4.2813,2.8125
11:56:31.160,4.2813,2.125
11:56:31.194,4.3438,3.875
11:56:31.194,4.4688,2.375
11:56:31.194,4.5938,2.5
11:56:31.221,4.25,2.75
11:56:31.223,4.0625,2.875
11:56:31.241,4.25,2
11:56:31.244,3.8125,0.8125
11:56:31.244,3.375,2.3125
11:56:31.244,4.2188,1.3125
11:56:31.245,3.3438,0.1875
11:56:31.250,2.4375,1.5
11:56:31.260,2.9063,-0.1875
11:56:31.270,3.6563,-0.9375
11:56:31.280,2.4063,-2.25
11:56:31.291,2.1875,-3.125
11:56:31.301,1.6563,-2.5
11:56:31.310,2.0938,-3
11:56:31.320,2.0625,-3.5
11:56:31.330,2.125,-3.875
11:56:31.340,2,-4.8125
11:56:31.350,1.9688,-5.4375
11:56:31.360,1.7188,-5.9375
11:56:31.370,2.3438,-5.375
11:56:31.381,2.1563,-5.0625
11:56:31.390,2.5625,-5.1875
11:56:31.400,1.7813,-5.5625
11:56:31.410,1.625,-5.4375
11:56:31.420,1.8438,-6.125
11:56:31.430,1.9688,-6.875
11:56:31.440,2.2813,-6.5625
11:56:31.450,1.8438,-7.1875
11:56:31.460,1.4375,-6.6875
11:56:31.472,1.6563,-7
11:56:31.480,1.25,-6.625
11:56:31.490,1.25,-7.4375
11:56:31.500,0.4375,-7.4375
11:56:31.510,1.5,-7.5625
11:56:31.520,0.625,-8.3125
11:56:31.530,0.0938,-8.0625
11:56:31.540,1.0625,-8.8125
11:56:31.550,0.0313,-10.375
11:56:31.561,-0.25,-10.125
11:56:31.570,-0.1563,-10.5625
11:56:31.580,-1.25,-10.8125
11:56:31.590,-1.5,-10.6875
11:56:31.600,-0.6563,-10.625
11:56:31.610,-0.125,-8.125
11:56:31.620,1.1875,-5.4375
11:56:31.630,2.1563,-2.0625
11:56:31.640,4.0313,2
11:56:31.651,4.5,5
11:56:31.660,5.8438,7.3125
11:56:31.670,5.8438,7.625
11:56:31.680,5.5625,8.875
11:56:31.698,6.4063,8.4375
11:56:31.701,5.25,7.5
11:56:31.710,4.9063,8.25
11:56:31.741,5.2188,6.75
11:56:31.752,5.0625,5.8125
11:56:31.756,4.9375,6.1875
11:56:31.756,4.9375,5.25
11:56:31.760,5.25,6.9375
11:56:31.775,4.9688,6
11:56:31.781,5.9375,7.875
11:56:31.813,5.375,5.625
11:56:31.815,5.75,7.3125
11:56:31.818,6.2188,7.1875
11:56:31.826,5.5938,6.75
11:56:31.832,5.625,7.3125
11:56:31.862,6.0313,6.1875
11:56:31.865,5.2813,5.125
11:56:31.866,5,4.75
11:56:31.870,4.7188,4
11:56:31.882,5.0625,2.875
11:56:31.890,4.2813,1.9375
11:56:31.900,3.875,2.4375
11:56:31.910,4.0938,1.9375
11:56:31.921,3.1563,0.875
11:56:31.930,3.2188,0.3125
11:56:31.940,2.8125,0.0625
11:56:31.950,2.7188,1.75
11:56:31.960,2.9688,0.625
11:56:31.970,3.4375,0.4375
11:56:31.980,3.375,-0.25
11:56:31.990,3.6563,0.875
11:56:32.000,4.0625,0.125
11:56:32.012,4.0313,-0.9375
11:56:32.020,4.5625,1.25
11:56:32.030,5.2188,0.75
11:56:32.040,5.2188,0.4375
11:56:32.050,4.625,0.5
11:56:32.060,5.2813,0.75
11:56:32.070,5.5313,-0.375
11:56:32.081,5.2813,0.375
11:56:32.090,5.5625,0.6875
11:56:32.101,5,-0.3125
11:56:32.110,5.3125,-1
11:56:32.120,5.1875,-0.3125
11:56:32.130,6.0938,-0.75
11:56:32.141,5.5625,-0.5
11:56:32.150,4.9375,-0.6875
11:56:32.160,5.375,-1.8125
11:56:32.192,5.25,-2.5
11:56:32.194,4.6563,-1.8125
11:56:32.196,5.0938,-1.875
11:56:32.203,4.8125,-2.8125
11:56:32.210,4.75,-3.5625
11:56:32.220,4.9063,-2.5
11:56:32.230,5.25,-3.1875
11:56:32.240,4.8125,-2.9375
11:56:32.249,4.5,-3.0625
11:56:32.258,5.0313,-3.625
11:56:32.270,4.7813,-1.875
11:56:32.282,4.6875,-3.8125
11:56:32.290,4.3125,-5.3125
11:56:32.300,4.25,-4.6875
11:56:32.311,4.25,-5.6875
11:56:32.322,4.75,-5.25
11:56:32.330,4.4688,-5.25
11:56:32.340,4.3125,-5.625
11:56:32.350,4.2188,-5.5
11:56:32.360,4.2188,-5.5625
11:56:32.371,3.875,-5.6875
11:56:32.380,4.4375,-5.75
11:56:32.390,4.8125,-6.3125
11:56:32.400,3.7188,-6.1875
11:56:32.410,3.9688,-5.875
11:56:32.420,5.1875,-4.9375
11:56:32.441,5,-2.875
11:56:32.444,6.7813,0.5
11:56:32.452,7.9688,3.5625
11:56:32.462,8.7188,7.75
11:56:32.500,10.0938,10.1875
11:56:32.501,10.4688,11.75
11:56:32.554,10.5625,11.9375
11:56:32.632,10.5313,12.5
11:56:32.632,10.2188,13.3751
11:56:32.654,10.375,11.375
11:56:32.654,9.7188,11.6875
11:56:32.655,10.25,10.9375
11:56:32.657,9.6563,9.8125
11:56:32.663,10.2813,10.25
11:56:32.667,9.4063,9
11:56:32.667,9.7188,9.75
11:56:32.671,9.75,8.9375
11:56:32.681,9.0313,8.6875
11:56:32.690,9.5313,9.5625
11:56:32.700,9.7188,10.1875
11:56:32.710,9.8438,9.75
11:56:32.720,9.25,8.875
11:56:32.732,8.6563,8.75
11:56:32.740,7.8438,7.4375
11:56:32.750,7.9688,6.8125
11:56:32.762,7.8125,6.375
11:56:32.770,7.5938,5.0625
11:56:32.781,6.4063,4.5
11:56:32.790,6.25,4.8125
11:56:32.800,6.625,4.5625
11:56:32.810,7,4.3125
11:56:32.821,6.375,3.8125
11:56:32.830,6.4688,2.25
11:56:32.840,5.625,1.125
11:56:32.851,6.125,0.8125
11:56:32.860,5.3125,0.3125
11:56:32.870,4.8438,1
11:56:32.880,5.4063,0.4375
11:56:32.890,5,-0.375
11:56:32.900,4.5,-1.0625
11:56:32.911,5.2188,-1.3125
11:56:32.920,3.9375,-2.1875
11:56:32.930,3.8125,-1.1875
11:56:32.940,4,-3.0625
11:56:32.951,3.4375,-3.875
11:56:32.962,3.0313,-2.3125
11:56:32.970,3.75,-3
11:56:32.980,3.75,-3.25
11:56:32.990,3.5313,-4
11:56:33.001,2.8125,-5
11:56:33.010,2.3438,-3.875
11:56:33.020,2.1563,-4.625
11:56:33.030,2.5625,-5.375
11:56:33.040,2.3438,-4.1875
11:56:33.049,2.9063,-5.3125
11:56:33.060,1.9688,-5.9375
11:56:33.070,1.6563,-4.9375
11:56:33.081,2.0625,-6.5
11:56:33.091,1.3125,-7
11:56:33.100,1.25,-7.375
11:56:33.110,1.1875,-6.0625
11:56:33.120,1.5313,-7
11:56:33.130,1.3125,-8.3125
11:56:33.140,1.5,-6.6875
11:56:33.150,1.0625,-8.3125
11:56:33.160,1.3438,-7.1875
11:56:33.172,0.9375,-9.875
11:56:33.181,1.3125,-8.0625
11:56:33.191,1.0313,-8.9375
11:56:33.205,1.6875,-6.5625
11:56:33.210,2.2813,-5
11:56:33.237,3.6875,-1.25
11:56:33.240,5.5,2.625
11:56:33.254,5.6875,4.6875
11:56:33.257,6.125,8.0625
11:56:33.286,7.2813,9.1875
11:56:33.288,7.4375,8.9375
11:56:33.291,8.25,11.1875
11:56:33.296,7.9063,9.8125
11:56:33.332,7.6875,10.8125
11:56:33.336,7.4688,9.5
11:56:33.337,7.375,10.125
11:56:33.363,8.125,9.125
11:56:33.364,7.0625,8.6875
11:56:33.366,7.125,8.875
11:56:33.373,7.5313,8.1875
11:56:33.376,7.1875,9.5625
11:56:33.385,8,8.875
11:56:33.395,8.4375,10.25
11:56:33.405,7.9063,10.0625
11:56:33.415,7.6875,8.625
11:56:33.424,6.7188,8.375
11:56:33.435,7.0625,6.8125
11:56:33.445,6.4688,5.875
11:56:33.474,5.75,5.8125
11:56:33.477,5.875,5.3125
11:56:33.480,5.75,3.9375
11:56:33.486,6,4.9375
11:56:33.495,6.5625,6.3125
11:56:33.505,7.3125,5.375
11:56:33.515,7.5625,7.125
11:56:33.525,7.25,5.8125
11:56:33.535,6.5313,4.5625
11:56:33.545,6.875,4.375
11:56:33.555,6.2188,5.5
11:56:33.565,6.9375,4.8125
11:56:33.575,6.8438,3.75
11:56:33.585,6.25,2.75
11:56:33.595,5.9688,4
11:56:33.605,6.6875,4.375
11:56:33.616,6.5625,2.1875
11:56:33.626,6.3438,2.75
11:56:33.635,5.8125,1.5625
11:56:33.646,5.7188,1.5
11:56:33.655,5.4688,1
11:56:33.665,5.8438,1.0625
11:56:33.675,5.4063,-0.1875
11:56:33.686,4.4688,-0.875
11:56:33.695,4.625,-0.625
11:56:33.705,4.2188,-1.5625
11:56:33.715,4.0313,-0.25
11:56:33.725,4.0625,-1.625
11:56:33.735,3.6563,-3
11:56:33.745,4.0313,-1.875
11:56:33.755,4,-3
11:56:33.765,3.3125,-2.125
11:56:33.784,3.7188,-3
11:56:33.790,2.9688,-3.1875
11:56:33.801,3.0625,-3.0625
11:56:33.804,3.4375,-3.1875
11:56:33.822,3.3125,-4.1875
11:56:33.830,3.1563,-5.1875
11:56:33.842,2.875,-3.8125
11:56:33.845,3.875,-4.25
11:56:33.855,3.1563,-5.75
11:56:33.865,2.875,-3.9375
11:56:33.876,2.8125,-5.4375
11:56:33.885,2.5,-5
11:56:33.895,2.8438,-4.875
11:56:33.911,1.7813,-5.5
11:56:33.916,1.8125,-6.0625
11:56:33.950,2.1875,-6.5
11:56:33.986,2.0625,-6.1875
11:56:34.015,1.7813,-6.5
11:56:34.016,2.0313,-7.1875
11:56:34.019,1.875,-6.8125
11:56:34.020,1.9063,-6.375
11:56:34.028,1.8125,-7.4375
11:56:34.028,1.5,-8.5
11:56:34.028,1.4375,-8
11:56:34.061,1.2188,-8.3125
11:56:34.063,1.3125,-6.875
11:56:34.065,1.9063,-6.3125
11:56:34.067,3,-3.6875
11:56:34.097,4.125,1.6875
11:56:34.100,6.4063,3.6875
11:56:34.102,6.7188,7.0625
11:56:34.105,7.25,9.1875
11:56:34.115,7.5,10.9375
11:56:34.125,7.2813,11.875
11:56:34.133,7.8438,11.125
11:56:34.145,7.3438,10.375
11:56:34.155,6.2188,8.9375
11:56:34.165,6.4063,9.375
11:56:34.175,6.2813,8.8125
11:56:34.185,5.1563,8
11:56:34.197,6.4375,9.8125
11:56:34.205,6.7813,9.5
11:56:34.215,5.875,8.5
11:56:34.226,6.25,10.375
11:56:34.235,5.7813,8.6875
11:56:34.245,6.0625,8.8125
11:56:34.255,5.4063,9.75
11:56:34.265,6.1875,9.0625
11:56:34.275,6.1563,7.375
11:56:34.284,5.0938,6.5625
11:56:34.295,5.8125,7.4375
11:56:34.305,5.9063,6.1875
11:56:34.313,5.6563,5.75
11:56:34.323,6.4375,6.875
11:56:34.335,5.9063,5.4375
11:56:34.346,6.375,6
11:56:34.354,6.125,6.375
11:56:34.365,6.3438,6.125
11:56:34.376,5.75,4.375
11:56:34.385,5.5313,5
11:56:34.395,5.4375,4.5625
11:56:34.404,5.4375,3.8125
11:56:34.415,5.0938,3.25
11:56:34.426,4.5313,4.25
11:56:34.433,4.625,3.3125
11:56:34.445,5.4375,2.6875
11:56:34.455,4.75,1.75
11:56:34.465,4.1563,2.625
11:56:34.475,5.1563,2.4375
11:56:34.486,5.0313,0.875
11:56:34.495,4.4688,0.3125
11:56:34.505,4.125,0.875
11:56:34.515,4.0938,0.375
11:56:34.525,4.0625,-0.4375
11:56:34.535,3.5625,-1.4375
11:56:34.545,3.25,-0.6875
11:56:34.554,3.3125,-0.875
11:56:34.564,3.8125,-1.4375
11:56:34.576,3.8125,-2.875
11:56:34.585,3.2813,-1.75
11:56:34.595,3.8438,-1.3125
11:56:34.605,3.8125,-3.1875
11:56:34.615,3.5313,-3.0625
11:56:34.625,3.25,-3.1875
11:56:34.635,3.125,-2
11:56:34.665,3.4063,-3.1875
11:56:34.665,3.5938,-4.375
11:56:34.689,3.9063,-3.1875
11:56:34.690,3.8438,-4.125
11:56:34.692,3.2813,-4
11:56:34.695,3.875,-3.875
11:56:34.731,3.375,-4.1875
11:56:34.732,3.5313,-4
11:56:34.735,3.9375,-5.375
11:56:34.763,3.1875,-4.9375
11:56:34.765,3.2813,-5.4375
11:56:34.766,3.1563,-5.75
11:56:34.766,3.4375,-5.5
11:56:34.801,3.0313,-6
11:56:34.805,2.8438,-6.3125
11:56:34.807,3.75,-6.75
11:56:34.811,2.5,-6.9375
11:56:34.815,2.2813,-6.25
11:56:34.828,2.9063,-7.375
11:56:34.836,2.25,-6.9375
11:56:34.845,2.125,-8
11:56:34.855,2.5938,-8.9375
11:56:34.865,2.25,-7.3125
11:56:34.875,3.0625,-8.3125
11:56:34.885,3.0625,-7.9375
11:56:34.895,2.875,-8.25
11:56:34.905,2,-8.6875
11:56:34.913,1.6875,-9.125
11:56:34.925,1.875,-9.4375
11:56:34.935,2,-9.875
11:56:34.945,1.8438,-9.8125
11:56:34.955,2.6563,-8.625
11:56:34.963,2.9688,-7.625
11:56:34.975,4.75,-3.0625
11:56:34.985,5.5,-0.25
11:56:34.995,7.3125,4
11:56:35.006,8.5,6.6875
11:56:35.013,9.5313,10.5
11:56:35.024,10.0938,12.5
11:56:35.035,10.4688,13.1876
11:56:35.045,11.2188,13.8126
11:56:35.054,11.2813,12.9375
11:56:35.065,11.2188,13.3751
11:56:35.074,11.3125,13.0625
11:56:35.085,10.125,11.6875
11:56:35.095,10.4375,12.375
11:56:35.111,10.0313,11
11:56:35.114,9.875,11.25
11:56:35.130,10.0938,10.5625
11:56:35.144,9.6875,10.4375
11:56:35.146,9.9375,11.625
11:56:35.162,9.625,10.8125
11:56:35.165,9.4688,11.6875
11:56:35.176,9.5938,11.6875
11:56:35.185,10.0938,10.5
11:56:35.193,9.9063,10.5625
11:56:35.204,9.4063,10.8125
11:56:35.215,8.9688,9.5
11:56:35.226,9.2188,8.5
11:56:35.234,9.125,8.8125
11:56:35.244,9.5,8.5625
11:56:35.266,9.3438,7.5
11:56:35.269,9.6875,8.875
11:56:35.279,11.0625,8.5
11:56:35.285,10.125,7.75
11:56:35.300,9.4063,7.1875
11:56:35.308,9.0625,7.125
11:56:35.315,10.1563,7.5
11:56:35.326,9.8438,7.5625
11:56:35.335,9.8438,6.375
11:56:35.345,9.9688,8
11:56:35.355,10.7188,7.125
11:56:35.365,10.375,6.875
11:56:35.378,10.25,6
11:56:35.385,10.4063,6.1875
11:56:35.422,10.6875,6.125
11:56:35.423,9.5938,5.3125
11:56:35.425,10.25,4.75
11:56:35.461,10.1875,5.4375
11:56:35.461,10.1875,4.375
11:56:35.464,10.2813,4
11:56:35.470,8.875,4.6875
11:56:35.473,9,3.0625
11:56:35.482,8.6563,1.9375
11:56:35.485,7.9063,1.125
11:56:35.522,7.6563,1.8125
11:56:35.524,7.625,1.3125
11:56:35.526,7.7188,0.0625
11:56:35.534,8.1563,1.125
11:56:35.535,8.0313,0.375
11:56:35.551,7.0313,0.1875
11:56:35.555,6.9688,0.125
11:56:35.565,6.6875,-1.1875
11:56:35.575,7,-1.375
11:56:35.585,6.4063,-2
11:56:35.595,5.7188,-1.5
11:56:35.603,5.5,-2.8125
11:56:35.615,5.625,-3.25
11:56:35.625,5.3438,-3.8125
11:56:35.635,4.5938,-4.75
11:56:35.645,5.0313,-4.4375
11:56:35.654,3.9063,-5.4375
11:56:35.665,3.9063,-4.75
11:56:35.673,3.4375,-4.875
11:56:35.684,3.4688,-5.5
11:56:35.701,3.8438,-6.25
11:56:35.705,3.0938,-6.3125
11:56:35.716,3.0625,-6.25
11:56:35.725,3.5313,-6.1875
11:56:35.735,3.625,-7.25
11:56:35.745,3.5,-6.0625
11:56:35.755,3.375,-6.625
11:56:35.765,3.9688,-7.5625
11:56:35.775,4.0313,-5.125
11:56:35.785,3.4375,-7
11:56:35.795,3.6563,-8.0625
11:56:35.804,3.5938,-6.875
11:56:35.816,3.4375,-8.0625
11:56:35.825,3.2188,-6.6875
11:56:35.834,4.3125,-5.75
11:56:35.846,4.3125,-4
11:56:35.854,5.0938,1.0625
11:56:35.864,6.6563,3.6875
11:56:35.875,7.2188,6.5625
11:56:35.885,8.0938,10.5
11:56:35.895,8.375,11.3125
11:56:35.905,8.25,14.1876
11:56:35.913,9,13.8751
11:56:35.924,8.4063,14.5001
11:56:35.935,6.9375,14.3126
11:56:35.944,6.9063,13.1251
11:56:35.953,6.25,14.7501
11:56:35.965,6.3438,13.4376
11:56:35.974,5.5938,13.3751
11:56:35.984,5,13.3751
11:56:35.996,3.5313,12.875
11:56:36.005,3.4375,13.8126
11:56:36.031,2.8125,14.6251
11:56:36.034,1.875,14.6251
11:56:36.037,1.25,15.8751
11:56:36.046,0.75,15.1251
11:56:36.054,0.625,15.3126
11:56:36.065,-1.4063,16.6876
11:56:36.075,-2.8125,15.8751
11:56:36.085,-2.9688,15.8126
11:56:36.112,-4.1563,17.7501
11:56:36.114,-3.4375,17.1876
11:56:36.117,-3.8125,17.3126
11:56:36.148,-3.9375,17.3751
11:56:36.149,-3.4063,17.2501
11:56:36.153,-3.5313,16.1876
11:56:36.156,-3.9375,16.1876
11:56:36.197,-4,17.5001
11:56:36.199,-2.5313,16.5626
11:56:36.201,-3.0938,15.8751
11:56:36.239,-3.0313,15.8126
11:56:36.239,-2.9063,15.9376
11:56:36.240,-3.125,14.7501
11:56:36.242,-3.25,13.4376
11:56:36.249,-2.5625,14.0626
11:56:36.249,-2.8438,13.1876
11:56:36.254,-2.6875,12.8125
11:56:36.274,-2.7188,11.8125
11:56:36.276,-2.8438,11.0625
11:56:36.286,-2.625,11
11:56:36.295,-2.2813,10.375
11:56:36.305,-2,10.5625
11:56:36.314,-0.7188,11.3125
11:56:36.326,-1.9063,10.3125
11:56:36.333,-1.1875,10.75
11:56:36.344,-1.3125,10.0625
11:56:36.353,-2.375,10.4375
11:56:36.365,-1.2813,10.375
11:56:36.374,-1.4375,9.75
11:56:36.385,-1.625,8.5625
11:56:36.394,-1,8.5
11:56:36.404,-1.125,9.1875
11:56:36.415,0.4063,9.625
11:56:36.430,-0.5313,9
11:56:36.437,-0.4063,10.125
11:56:36.451,0.4688,8.75
11:56:36.455,0.7188,8.9375
11:56:36.470,0.8438,10.3125
11:56:36.485,1.125,8.875
11:56:36.487,0.9375,8.875
11:56:36.495,1.4375,8.9375
11:56:36.505,1.4063,9
11:56:36.515,1.75,8.75
11:56:36.525,1.9063,8.5625
11:56:36.533,1.9688,8.3125
11:56:36.544,1.5313,8.25
11:56:36.555,2.125,8.1875
11:56:36.565,2.0625,8
11:56:36.584,1.7813,8.6875
11:56:36.586,1.5625,6.8125
11:56:36.602,2.4063,6.6875
11:56:36.617,1.9375,6.75
11:56:36.621,2.2813,7.5
11:56:36.635,2.5,7.25
11:56:36.637,3.5938,6.25
11:56:36.645,3.9063,6.9375
11:56:36.655,4.3438,7.875
11:56:36.665,5.5,9.625
11:56:36.674,6.4375,12.0625
11:56:36.684,7.2188,12.625
11:56:36.695,8.25,13.8751
11:56:36.705,8.5938,15.9376
11:56:36.713,10.4375,19.1251
11:56:36.724,12.0625,21.0626
11:56:36.735,12.2188,22.3751
11:56:36.746,13.2188,24.8751
11:56:36.754,12.0938,25.3751
11:56:36.764,11.4063,22.8126
11:56:36.775,11.0938,20.5001
11:56:36.784,9.4063,17.3126
11:56:36.794,8.5938,16.6251
11:56:36.804,8.4688,16.3751
11:56:36.834,8.6875,16.8126
11:56:36.837,8.9688,16.1876
11:56:36.839,9.4063,16.1251
11:56:36.846,9.8438,17.0626
11:56:36.884,10.3125,19.0001
11:56:36.885,11.2813,20.1876
11:56:36.887,12.625,21.7501
11:56:36.890,12.75,21.1876
11:56:36.895,12.5938,22.7501
11:56:36.910,12.9375,21.8126
11:56:36.914,12.4375,19.7501
11:56:36.939,11.625,18.8751
11:56:36.941,10.5938,18.1251
11:56:36.973,11.5625,16.5626
11:56:36.975,11.0313,15.5626
11:56:36.977,10.9375,16.8126
11:56:36.980,11.5313,15.4376
11:56:36.985,10.9688,14.6876
11:56:36.993,10.5625,15.5626
11:56:37.009,10.25,13.8751
11:56:37.014,10.125,12.5625
11:56:37.025,8.875,12.5
11:56:37.033,8.9688,13.3126
11:56:37.044,9.5313,12.4375
11:56:37.054,9.3438,11.375
11:56:37.064,9.2813,12.875
11:56:37.073,8.9063,11.9375
11:56:37.084,8.5,10.8125
11:56:37.095,8.6875,13.0625
11:56:37.105,8.8125,12.5
11:56:37.114,8.8125,11
11:56:37.123,8.3125,10.3125
11:56:37.135,7.7813,9.75
11:56:37.145,7.7813,10.125
11:56:37.153,7.8438,9.375
11:56:37.164,7.1563,7.4375
11:56:37.176,5.9063,6.5
11:56:37.185,5.4063,7
11:56:37.196,5.375,5.875
11:56:37.203,4.6875,5.625
11:56:37.216,4.0313,4.3125
11:56:37.226,3.7813,4.6875
11:56:37.234,3.2813,3.0625
11:56:37.244,2.6875,1.9375
11:56:37.258,2.0625,2.4375
11:56:37.269,2.5625,2.0625
11:56:37.281,2.4063,1.875
11:56:37.311,1.5625,1.5
11:56:37.314,1.1563,2.375
11:56:37.316,1.4063,1
11:56:37.321,1.4063,1.4375
11:56:37.330,1.1563,0.8125
11:56:37.339,0.2188,1.625
11:56:37.349,0.75,0.9375
11:56:37.358,0.5938,0.3125
11:56:37.370,-0.4063,-0.5625
11:56:37.383,-0.9688,0.4375
11:56:37.389,-1,-0.5
11:56:37.398,-0.9688,-1.25
11:56:37.408,-1.375,-1.5
11:56:37.419,-1.0313,-1.1875
11:56:37.431,-0.9375,-0.3125
11:56:37.440,-0.8125,0.625
11:56:37.449,-0.3438,-0.25
11:56:37.461,0.375,0.1875
11:56:37.470,0.1563,-0.625
11:56:37.478,0.125,-0.6875
11:56:37.488,0.25,0
11:56:37.501,1,-0.375
11:56:37.509,1.3125,-0.375
11:56:37.518,1.6875,0.375
11:56:37.530,2.3125,1.5
11:56:37.539,1.8125,0.5
11:56:37.549,2.5,0.875
11:56:37.559,3.125,1.6875
11:56:37.570,3.8438,4.875
11:56:37.580,5.3125,8.125
11:56:37.591,6,10.625
11:56:37.599,7.0313,14.0001
11:56:37.609,8.8125,16.2501
11:56:37.634,9.5625,19.2501
11:56:37.637,9.9375,19.6876
11:56:37.639,10.2188,18.9376
11:56:37.671,10.2188,19.1876
11:56:37.674,9.5938,19.1251
11:56:37.676,9.5,16.2501
11:56:37.682,8.4688,14.3751
11:56:37.713,8.4375,13.7501
11:56:37.714,8.0938,12.1875
11:56:37.717,7.7188,11
11:56:37.745,7.5625,10.375
11:56:37.746,7.3125,11.625
11:56:37.791,7.5938,11.375
11:56:37.808,7.9375,11.5625
11:56:37.821,7.9063,10.875
11:56:37.821,8.1875,11.625
11:56:37.822,9.0313,10.75
11:56:37.825,8.75,9.6875
11:56:37.829,8.9688,8.9375
11:56:37.831,8.875,8.8125
11:56:37.839,8.9375,7
11:56:37.848,8.9375,6.75
11:56:37.858,8.5938,5.3125
11:56:37.871,8.1563,5.6875
11:56:37.879,8.8125,5.8125
11:56:37.889,9,5.8125
11:56:37.904,9.0938,5.25
11:56:37.911,8.4688,5.0625
11:56:37.920,8.5625,5.25
11:56:37.935,8.6875,4.75
11:56:37.943,8.375,4.5
11:56:37.948,7.7188,2.8125
11:56:37.959,7.0313,0.75
11:56:37.969,6.4688,1.0625
11:56:37.979,6.875,0.75
11:56:37.988,6.9375,0.5625
11:56:37.998,7.0313,1.0625
11:56:38.008,7.2188,1.5625
11:56:38.018,7.4688,2.125
11:56:38.029,7.75,3.5625
11:56:38.038,8.4063,3.4375
11:56:38.050,8.6563,3.75
11:56:38.058,8.3125,3.5625
11:56:38.069,9.0625,3.75
11:56:38.078,9.2188,5.3125
11:56:38.089,9.375,4.375
11:56:38.098,9.25,3.3125
11:56:38.108,9.25,3.5625
11:56:38.118,8.0938,2.5625
11:56:38.128,8.0313,2.3125
11:56:38.139,7.5313,3
11:56:38.149,7.3438,2
11:56:38.159,7.0938,0.4375
11:56:38.170,6.75,0.1875
11:56:38.181,6.875,1.0625
11:56:38.189,6.3438,-0.125
11:56:38.200,6.1563,-0.6875
11:56:38.208,5.5,0.6875
11:56:38.219,5.4375,-0.0625
11:56:38.228,5.4688,-0.3125
11:56:38.239,4.5938,-1
11:56:38.249,3.8125,-0.5
11:56:38.261,4.25,-0.125
11:56:38.268,2.5,-1.25
11:56:38.280,1.5313,-1.25
11:56:38.288,0.875,-2.5625
11:56:38.299,0.2188,-3.6875
11:56:38.308,-0.3125,-2.8125
11:56:38.320,-0.4375,-3.375
11:56:38.341,-0.0313,-1.3125
11:56:38.344,0.4688,-2.625
11:56:38.350,0.25,-2.3125
11:56:38.389,1.2188,1.25
11:56:38.392,2.875,3.125
11:56:38.392,3.2188,5.0625
11:56:38.397,4.125,7.875
11:56:38.401,5.6563,11.0625
11:56:38.409,5.5,12.75
11:56:38.438,5.4063,14.6876
11:56:38.439,6.7813,15.6251
11:56:38.441,6.5,15.1251
11:56:38.475,6.2813,15.9376
11:56:38.477,6.5625,16.5626
11:56:38.480,7.1563,15.0001
11:56:38.483,6.5625,15.6876
11:56:38.514,6.7813,14.8751
11:56:38.516,6.0938,15.3126
11:56:38.518,6.2188,14.9376
11:56:38.523,6.6875,14.4376
11:56:38.530,6.0625,14.0001
11:56:38.540,5.7188,13.5626
11:56:38.550,5.6875,13.4376
11:56:38.560,5.5,14.2501
11:56:38.595,5.8125,12.1875
11:56:38.597,4.5938,10.875
11:56:38.599,2.8438,9.125
11:56:38.600,2,7.4375
11:56:38.612,2.3125,5.875
11:56:38.619,1.4688,3.5
11:56:38.628,1.0625,5.25
11:56:38.640,1.3125,4.0625
11:56:38.649,1.875,3.0625
11:56:38.659,1.3125,2.6875
11:56:38.669,1.5625,3
11:56:38.679,1.9063,3.1875
11:56:38.690,2.0313,2.125
11:56:38.698,2.0938,3.5
11:56:38.709,3.125,2.5
11:56:38.718,3.9375,1.3125
11:56:38.729,3.9063,1.5625
11:56:38.739,3.3438,-0.4375
11:56:38.749,2.5313,-2.25
11:56:38.758,3.1563,-0.875
11:56:38.769,4.5,-1.9375
11:56:38.779,5.0938,-2.125
11:56:38.789,5.8125,-1.6875
11:56:38.799,5.5625,0.125
11:56:38.809,6.4688,-0.9375
11:56:38.819,6.5938,-2.5625
11:56:38.828,6,-2.25
11:56:38.839,5.4688,-2.875
11:56:38.850,5.6875,-4
11:56:38.859,5.6563,-4.6875
11:56:38.869,5.0938,-4.9375
11:56:38.879,5.375,-5.0625
11:56:38.888,6.0938,-3.3125
11:56:38.899,5.9063,-5.3125
11:56:38.908,5.7813,-3.5
11:56:38.919,6.5,-3.75
11:56:38.934,6.9375,-3.3125
11:56:38.939,6.6875,-2.5625
11:56:38.949,6.2188,-2.125
11:56:38.958,7.4375,-1.9375
11:56:38.970,6.8438,-2.4375
11:56:38.980,6.9063,-2.0625
11:56:38.989,5.9688,-1.3125
11:56:38.999,6.75,-2.25
11:56:39.008,5.8438,-3.125
11:56:39.019,5.4063,-2.6875
11:56:39.045,5.75,-3.625
11:56:39.046,4.4375,-5.6875
11:56:39.050,4.3125,-4.8125
11:56:39.083,4.1875,-5.8125
11:56:39.119,2.6875,-6.9375
11:56:39.121,1.6875,-7.3125
11:56:39.123,1,-7.625
11:56:39.129,0.375,-8.4375
11:56:39.129,-0.1875,-8.8125
11:56:39.129,-0.8125,-7.1875
11:56:39.143,-0.6563,-8.4375
11:56:39.146,-1.8438,-9.9375
11:56:39.174,-2.6563,-9.5
11:56:39.177,-3.4688,-11.1875
11:56:39.179,-5.4063,-12.4375
11:56:39.205,-5.4063,-12.9375
11:56:39.222,-5.9688,-13.1876
11:56:39.225,-7.1563,-11.75
11:56:39.238,-6.2188,-11.0625
11:56:39.238,-6.0625,-9.125
11:56:39.240,-5.125,-5.4375
11:56:39.246,-3.9063,-3.875
11:56:39.254,-3.875,-1.125
11:56:39.264,-3.125,1.125
11:56:39.273,-2.2188,4.8125
11:56:39.283,-1.8438,5.25
11:56:39.294,-0.8438,6.375
11:56:39.308,-0.8438,8.4375
11:56:39.313,-0.6875,6.6875
11:56:39.324,-0.375,6.6875
11:56:39.333,-0.3438,6.75
11:56:39.344,0.0625,6.4375
11:56:39.356,0.0313,6
11:56:39.367,-0.0625,5.25
11:56:39.374,0.6875,7.0625
11:56:39.384,0.875,7.125
11:56:39.393,2.0313,6.3125
11:56:39.403,1.5,6.625
11:56:39.414,2.1563,8.25
11:56:39.425,2.375,6.25
11:56:39.434,2.5,7.125
11:56:39.443,3.375,6.6875
11:56:39.453,3.6563,7.25
11:56:39.464,5.3438,7.875
11:56:39.474,6.125,9.125
11:56:39.483,6.375,8.1875
11:56:39.493,7.3125,7.6875
11:56:39.505,6.5938,7.125
11:56:39.514,6.5938,6.875
11:56:39.524,6,4.9375
11:56:39.534,5.4063,4.125
11:56:39.544,5.4688,4.75
11:56:39.553,6.2188,4.1875
11:56:39.564,6.5313,4.375
11:56:39.574,7.125,4.625
11:56:39.584,6.8438,5.9375
11:56:39.594,8.5313,5.5
11:56:39.603,8.75,5
11:56:39.614,9.5,5.1875
11:56:39.624,9.5938,5.9375
11:56:39.633,9.2188,3.375
11:56:39.644,8.3125,0.75
11:56:39.654,7.8125,0
11:56:39.664,7.9063,-1.25
11:56:39.673,7.125,-3.4375
11:56:39.684,7.1563,-2.6875
11:56:39.694,8.2188,-3.4375
11:56:39.703,8.1875,-2.9375
11:56:39.713,8.3438,-2.25
11:56:39.725,8.1563,-1.5625
11:56:39.734,8,-3.125
11:56:39.744,7.6563,-5.4375
11:56:39.753,6.8125,-4.9375
11:56:39.779,6.2813,-5.5625
11:56:39.781,6.1875,-6.625
11:56:39.785,5.2813,-6.375
11:56:39.815,5.9688,-7.75
11:56:39.818,5.9688,-6.5
11:56:39.820,6.8438,-5.3125
11:56:39.827,7.1563,-5.4375
11:56:39.861,7.1563,-4.0625
11:56:39.864,7.5313,-3.125
11:56:39.866,8.1563,-3.3125
11:56:39.881,7.8438,-2.375
11:56:39.882,8.3438,-2.5
11:56:39.884,8.5313,-1.8125
11:56:39.911,8.9375,-2.25
11:56:39.914,8,-0.9375
11:56:39.916,8.0938,-2.8125
11:56:39.941,7.1563,-1.375
11:56:39.943,6.9688,-2.8125
11:56:39.945,6.7813,-3.6875
11:56:39.954,6.4688,-3.5
11:56:39.963,6.5,-3.375
11:56:39.974,6.5,-3.8125
11:56:39.983,5.4063,-4.6875
11:56:39.994,5.75,-4.1875
11:56:40.004,6.0938,-3.25
11:56:40.013,5.6563,-2.25
11:56:40.024,6.5,-1.3125
11:56:40.033,6.5625,1.4375
11:56:40.043,7.5625,3.875
11:56:40.058,8.4375,7.5625
11:56:40.063,9.1875,9.9375
11:56:40.074,8.8438,11.1875
11:56:40.084,8.2188,11.625
11:56:40.093,8.375,12.875
11:56:40.104,7.375,11.5625
11:56:40.113,6.7813,12.75
11:56:40.124,7.1875,12.25
11:56:40.134,6.375,11.375
11:56:40.144,6.625,11.375
11:56:40.154,6.875,11.25
11:56:40.164,5.9688,11.125
11:56:40.174,6.5,10.4375
11:56:40.184,5.8438,10.625
11:56:40.193,6.0313,11.3125
11:56:40.203,6.375,12
11:56:40.213,7.4063,12.0625
11:56:40.223,7.4063,11.375
11:56:40.233,7.2813,11.5
11:56:40.243,8.0313,11.6875
11:56:40.254,7.6875,11
11:56:40.263,8.4688,11.25
11:56:40.274,7.875,9.9375
11:56:40.284,7.9375,9.3125
11:56:40.293,8.2813,10.25
11:56:40.304,8.6875,8.8125
11:56:40.313,8.1875,8.1875
11:56:40.323,8.5938,9.625
11:56:40.334,8.8125,9.0625
11:56:40.344,9.25,8
11:56:40.354,8.5,7.875
11:56:40.364,7.9375,8.5
11:56:40.374,8.2813,7.375
11:56:40.391,7.0938,5.4375
11:56:40.393,7.375,5.0625
11:56:40.410,6,4.375
11:56:40.415,6.5313,3.9375
11:56:40.423,7.25,4.25
11:56:40.437,7.375,4.4375
11:56:40.444,7.0313,4.125
11:56:40.453,7.3125,4
11:56:40.465,6.8125,5.0625
11:56:40.474,7.4375,3.5625
11:56:40.484,6.0313,3.3125
11:56:40.493,6.25,3.75
11:56:40.517,5.7813,3.75
11:56:40.519,5.875,2.75
11:56:40.560,5.625,1.75
11:56:40.561,5.4375,2.9375
11:56:40.586,6,2
11:56:40.586,5.4688,2
11:56:40.586,4.7188,1.125
11:56:40.588,5.5,1.5625
11:56:40.590,5.25,1.25
11:56:40.619,4.875,0.0625
11:56:40.621,3.875,1.8125
11:56:40.624,4.6563,1.0625
11:56:40.629,4.0938,0.875
11:56:40.634,3.625,1.0625
11:56:40.676,4.3125,0.0625
11:56:40.677,3.625,-0.3125
11:56:40.681,2.875,0.4375
11:56:40.683,3.1563,0.5
11:56:40.699,3.4375,-0.75
11:56:40.701,3.0625,-1.25
11:56:40.705,2.8438,-2.6875
11:56:40.714,2.4063,-2.75
11:56:40.724,2.4688,-4.3125
11:56:40.733,1.1563,-5.875
11:56:40.744,0.2188,-8.4375
11:56:40.753,6.4063,-2.0625
11:56:40.763,7.3438,-6.625
11:56:40.774,11.9375,-4.875
11:56:40.783,14.7188,-3.6875
11:56:40.793,17.7501,-2.5
11:56:40.804,18.8126,-3.125
11:56:40.813,20.0313,-1.1875
11:56:40.824,19.9688,-1.6875
11:56:40.834,18.9376,-3.625
11:56:40.844,17.7188,-5.25
11:56:40.855,17.5313,-4.875
11:56:40.863,19.3438,-1.375
11:56:40.873,21.3751,2.375
11:56:40.883,25.0938,6.3125
11:56:40.893,27.0939,9.875
11:56:40.903,27.8126,10.875
11:56:40.913,26.5001,9.9375
11:56:40.924,24.5626,6.375
11:56:40.933,22.6251,5.5
11:56:40.943,23.6563,5.125
11:56:40.954,24.1563,5.75
11:56:40.963,24.9688,6.625
11:56:40.973,26.9064,6.375
11:56:40.984,26.8439,6.25
11:56:40.994,27.9064,6.3125
11:56:41.003,27.4376,6.875
11:56:41.013,27.0314,5.625
11:56:41.023,26.6251,4.5
11:56:41.035,25.2813,4.1875
11:56:41.044,26.4689,4.625
11:56:41.054,25.8751,3.75
11:56:41.064,25.8751,4.8125
11:56:41.073,26.4376,4.5
11:56:41.084,27.0626,3.75
11:56:41.094,26.6251,3.375
11:56:41.104,26.5314,2.75
11:56:41.114,26.2814,0.6875
11:56:41.124,25.4376,0.6875
11:56:41.151,25.5313,0.3125
11:56:41.154,25.1876,-0.9375
11:56:41.156,24.4063,-0.625
11:56:41.166,25.3126,-0.6875
11:56:41.173,25.0938,-1.0625
11:56:41.188,25.1563,1.125
11:56:41.196,25.4063,0.25
11:56:41.203,25.4063,-0.5625
11:56:41.214,25.5001,0.0625
11:56:41.223,25.0313,0.75
11:56:41.233,25.5313,-0.625
11:56:41.244,25.1251,0.1875
11:56:41.254,25.2501,-0.0625
11:56:41.264,24.7501,-0.8125
11:56:41.293,24.0626,-1.125
11:56:41.295,22.9063,-0.875
11:56:41.310,23.0001,-2.5
11:56:41.312,22.1251,-4.0625
11:56:41.345,21.5313,-3.5625
11:56:41.348,22.0626,-4
11:56:41.350,21.3126,-4.75
11:56:41.378,20.7188,-4.625
11:56:41.379,20.9688,-4.375
11:56:41.381,21.1251,-5.25
11:56:41.386,20.1876,-4.625
11:56:41.392,20.2813,-4.5625
11:56:41.425,20.9063,-4.75
11:56:41.426,19.5001,-4.6875
11:56:41.430,19.4688,-6.3125
11:56:41.431,18.7188,-6.375
11:56:41.453,18.3126,-6.8125
11:56:41.455,17.6251,-6.8125
11:56:41.463,17.5626,-7.375
11:56:41.471,17.1563,-8.625
11:56:41.478,17.1876,-8.25
11:56:41.489,16.4688,-8.75
11:56:41.499,14.9063,-8.5
11:56:41.509,14.0938,-8.75
11:56:41.518,13.7813,-11.375
11:56:41.528,12.4688,-9.75
11:56:41.539,11.9688,-10.75
11:56:41.548,11.6563,-12.4375
11:56:41.562,12.25,-11.25
11:56:41.569,12.0625,-11.4375
11:56:41.579,11.4688,-11.375
11:56:41.588,12.4688,-10.8125
11:56:41.600,11.6875,-10.75
11:56:41.609,12.125,-10.75
11:56:41.619,11.6563,-11.5625
11:56:41.628,10.9688,-10.75
11:56:41.638,10.7188,-11.75
11:56:41.649,10.25,-12.9375
11:56:41.660,10.25,-11.625
11:56:41.669,10.4688,-12.125
11:56:41.687,10.3438,-11.75
11:56:41.693,10.4063,-11.375
11:56:41.707,10.5625,-10.5
11:56:41.710,10.4688,-6.625
11:56:41.719,12.5,-3.9375
11:56:41.728,12.6875,-0.375
11:56:41.738,13.7501,3.0625
11:56:41.748,14.1876,4.5625
11:56:41.759,13.7813,6.3125
11:56:41.768,14.9376,6.875
11:56:41.779,14.3126,7.1875
11:56:41.788,13.125,7.6875
11:56:41.799,13.3751,6.25
11:56:41.815,12.5938,5.6875
11:56:41.830,12.9063,6.75
11:56:41.832,12.75,5.1875
11:56:41.839,13.3126,6.8125
11:56:41.848,13.4688,5.8125
11:56:41.858,12.5625,6.125
11:56:41.870,13.1563,7.6875
11:56:41.878,13.5001,7.6875
11:56:41.889,13.3751,6.625
11:56:41.898,12.0313,7.0625
11:56:41.939,11.1875,6.9375
11:56:41.940,11.7188,5.375
11:56:41.942,11.375,4.0625
11:56:41.945,10.4063,3.6875
11:56:41.952,9.2188,1.875
11:56:41.980,8.9063,1.9375
11:56:41.981,8.125,1.5625
11:56:41.985,8.6563,0.875
11:56:41.991,8.125,0.125
11:56:42.017,8.0938,-0.4375
11:56:42.019,8.25,0.5
11:56:42.022,8.1563,-0.4375
11:56:42.054,8.0938,0.9375
11:56:42.056,8.1563,-0.1875
11:56:42.059,7.4688,-1.0625
11:56:42.065,7.9688,0.125
11:56:42.077,7.3438,-0.25
11:56:42.080,7.4063,-0.6875
11:56:42.096,7.2813,0.3125
11:56:42.098,7.5938,-0.75
11:56:42.109,7.9375,-1.625
11:56:42.119,7.4063,-1.5625
11:56:42.133,7.375,-1.125
11:56:42.139,7.625,-1.8125
11:56:42.148,7.0313,-2.625
11:56:42.159,6.6563,-1.8125
11:56:42.169,6.625,-1.8125
11:56:42.178,6.7813,-3
11:56:42.190,6.4375,-3.625
11:56:42.198,6.375,-3
11:56:42.208,6.2813,-4.3125
11:56:42.219,6.5625,-4.5625
11:56:42.228,6.2188,-3.5
11:56:42.239,6.1875,-5.4375
11:56:42.248,5.3125,-5.5
11:56:42.259,5.0625,-5.125
11:56:42.269,5.2813,-5.8125
11:56:42.279,5.9063,-5.25
11:56:42.289,5.2813,-6.5625
11:56:42.299,4.7813,-6.6875
11:56:42.308,4.4688,-6.75
11:56:42.318,4.2813,-7
11:56:42.329,3.5938,-8.5
11:56:42.339,2.8125,-8
11:56:42.348,2.0313,-9.1875
11:56:42.359,1.5,-9.4375
11:56:42.368,1.4688,-9.5625
11:56:42.380,1.9063,-9.625
11:56:42.390,1.9688,-9
11:56:42.398,2.1563,-10
11:56:42.432,1.0313,-10.0625
11:56:42.434,0.875,-9.75
11:56:42.436,1.7188,-9.875
11:56:42.439,1.3438,-9.9375
11:56:42.451,1.1875,-10.75
11:56:42.460,1.2813,-10.125
11:56:42.475,1.375,-11.0625
11:56:42.481,1.2188,-10.5
11:56:42.488,2.0313,-9.5
11:56:42.498,1.8125,-8.3125
11:56:42.509,2.375,-4.3125
11:56:42.519,4.2813,-1.625
11:56:42.529,4.3438,1.4375
11:56:42.538,5.8125,4.6875
11:56:42.548,6.25,5.4375
11:56:42.559,6.5938,7.5
11:56:42.568,7.4375,7.75
11:56:42.579,7.4375,8.625
11:56:42.589,7.125,8.5
11:56:42.599,7.4063,7.8125
11:56:42.610,6.4688,7.9375
11:56:42.618,7.375,7.3125
11:56:42.628,7.3438,6.5625
11:56:42.639,7.6563,7.625
11:56:42.648,7.75,7.8125
11:56:42.659,7.4375,8.5625
11:56:42.669,8.125,7.8125
11:56:42.679,7.8438,8.625
11:56:42.711,7.1563,8.625
11:56:42.715,7.6563,8.0625
11:56:42.716,7.3438,6.875
11:56:42.723,7.2188,7
11:56:42.757,6.875,6.3125
11:56:42.761,6.5313,5.625
11:56:42.762,6.875,4.6875
11:56:42.764,6.7813,4.3125
11:56:42.770,6.1875,3.0625
11:56:42.805,6.4063,3.9375
11:56:42.806,5.6563,3.375
11:56:42.809,5.5313,2.5625
11:56:42.811,6,2.375
11:56:42.846,4.75,1.75
11:56:42.847,5.5313,2
11:56:42.850,5.3125,1.4375
11:56:42.852,4.25,2.25
11:56:42.858,4.9063,1.0625
11:56:42.874,4.6875,0.9375
11:56:42.879,4.75,1.125
11:56:42.889,5.2813,0.75
11:56:42.898,4.75,0.125
11:56:42.908,4.9375,0.625
11:56:42.919,4.8125,0
11:56:42.928,4.9688,-0.8125
11:56:42.938,5.0938,-1.5625
11:56:42.948,5.3125,-1.4375
11:56:42.959,4.2188,-2.625
11:56:42.968,4.0625,-1.4375
11:56:42.989,5.0938,-2.375
11:56:42.995,3.8125,-3.875
11:56:43.010,4.0313,-3.1875
11:56:43.012,3.7813,-4.3125
11:56:43.018,2.3438,-5.0625
11:56:43.028,2.9063,-5.125
11:56:43.039,1.9375,-6.25
11:56:43.050,1.8125,-6.375
11:56:43.058,1.4063,-6.5
11:56:43.068,1.5,-8.1875
11:56:43.078,1.3125,-6.0625
11:56:43.088,1.8125,-7.625
11:56:43.108,0.875,-8
11:56:43.111,0.6875,-7.4375
11:56:43.126,0.4063,-9.0625
11:56:43.130,0.375,-8.4375
11:56:43.138,0.75,-9.875
11:56:43.149,0.3438,-11
11:56:43.158,-0.0938,-10.3125
11:56:43.168,-0.6563,-10.4375
11:56:43.178,0.0938,-11.25
11:56:43.188,-0.9375,-12.125
11:56:43.199,-0.2813,-11.75
11:56:43.208,-0.5313,-12.625
11:56:43.219,-1.0313,-12.0625
11:56:43.228,-1.3125,-13.125
11:56:43.238,-1.25,-12.0625
11:56:43.249,-1.1875,-12.6875
11:56:43.258,-1.125,-12.5625
11:56:43.268,-1.375,-12.5625
11:56:43.279,-1.25,-12.4375
11:56:43.288,-0.5313,-13.2501
11:56:43.299,-0.3125,-12.625
11:56:43.308,-0.4063,-12
11:56:43.320,0.25,-10.75
11:56:43.329,1.9063,-8.375
11:56:43.338,3.125,-4.8125
11:56:43.348,4.8438,-1.875
11:56:43.358,6.5,2.125
11:56:43.368,7.9375,4.875
11:56:43.378,8.25,7.125
11:56:43.409,9.0938,8.3125
11:56:43.412,8.0625,8.75
11:56:43.414,8.7188,8.25
11:56:43.420,7.5625,9
11:56:43.454,8.0938,8.0625
11:56:43.456,8.0625,7.875
11:56:43.458,8.8438,7.5
11:56:43.460,8.9375,7.5
11:56:43.490,9.125,7.375
11:56:43.493,8.125,7.875
11:56:43.495,8.7188,7.5625
11:56:43.502,7.5,7.375
11:56:43.530,8.625,7.875
11:56:43.532,8.25,7.5
11:56:43.534,8.125,8.75
11:56:43.563,8.9063,8.1875
11:56:43.564,8.2188,7.4375
11:56:43.565,7.8125,8
11:56:43.573,7.75,6.8125
11:56:43.580,8.0938,5.9375
11:56:43.588,7.6875,4.8125
11:56:43.598,7.25,5
11:56:43.608,8.25,4.875
11:56:43.625,7.6875,3.8125
11:56:43.630,7.3438,6.8125
11:56:43.639,7.4063,4.3125
11:56:43.650,7.2813,3.3125
11:56:43.658,7.5938,4.125
11:56:43.669,8.4063,4.1875
11:56:43.678,7.4375,3.8125
11:56:43.714,7.5625,5.0625
11:56:43.717,7.4688,3.5625
11:56:43.719,7.75,3
11:56:43.723,7.25,3.1875
11:56:43.728,7.5,3
11:56:43.738,7.75,3.375
11:56:43.748,8.2813,1.4375
11:56:43.758,8.8125,2.6875
11:56:43.768,9.125,2.25
11:56:43.778,8.7188,2
11:56:43.788,8.3125,1.6875
11:56:43.798,7.5625,1.3125
11:56:43.808,8.4375,0.5625
11:56:43.819,7.4375,-0.3125
11:56:43.828,7.7188,-0.25
11:56:43.839,7.5,-0.375
11:56:43.848,8,-0.5625
11:56:43.858,8.0625,-0.25
11:56:43.869,7.3125,-1.4375
11:56:43.878,6.9375,-2
11:56:43.888,6.6563,-1.1875
11:56:43.898,7.1563,-2.625
11:56:43.908,6.4688,-3.75
11:56:43.918,6.4688,-2.3125
11:56:43.929,6.25,-3.8125
11:56:43.939,5.3125,-4.5625
11:56:43.949,5.3438,-3
11:56:43.959,6.1563,-4.6875
11:56:43.968,5.5625,-5.25
11:56:43.978,5.4063,-4.375
11:56:43.988,5.25,-5
11:56:43.998,4.9063,-5.0625
11:56:44.008,5.5,-5.375
11:56:44.018,4.7188,-6.125
11:56:44.029,3.9063,-6.1875
11:56:44.038,4.3125,-7.3125
11:56:44.048,3.2813,-8.9375
11:56:44.059,2.75,-7.5
11:56:44.069,2.8125,-8.375
11:56:44.079,2.25,-7.875
11:56:44.088,2.7188,-8.75
11:56:44.121,2.5625,-8.4375
11:56:44.124,3.4688,-6.6875
11:56:44.127,4,-4.375
11:56:44.129,5.5313,-1
11:56:44.159,7,2
11:56:44.163,7.2813,5.6875
11:56:44.165,8.4688,7.6875
11:56:44.171,8.8438,9.125
11:56:44.202,9.2813,10.9375
11:56:44.206,9.6875,10.1875
11:56:44.207,9.125,10.4375
11:56:44.210,8.375,10.3125
11:56:44.248,8.2188,9.4375
11:56:44.249,7.875,8.3125
11:56:44.252,8.125,7.4375
11:56:44.290,7.0313,8.4375
11:56:44.291,7.8438,6.4375
11:56:44.306,6.9375,5.4375
11:56:44.309,7.1875,6.375
11:56:44.313,8.125,7.625
11:56:44.313,6.9688,7.125
11:56:44.321,6.875,7.5
11:56:44.329,7.1875,6.125
11:56:44.338,6.5313,4.875
11:56:44.348,6.3125,4.875
11:56:44.358,5.6563,4.1875
11:56:44.374,5.5313,3.6875
11:56:44.381,5.6875,2.25
11:56:44.388,5,3.8125
11:56:44.405,5.9688,1.875
11:56:44.421,5.125,2
11:56:44.423,4.8438,1.1875
11:56:44.428,4.7188,0.75
11:56:44.438,4.5938,0.875
11:56:44.449,4.5313,1.4375
11:56:44.459,3.8438,1.375
11:56:44.468,4.6875,0.875
11:56:44.478,4.625,0.75
11:56:44.488,4.0625,-0.6875
11:56:44.499,3.25,0.5
11:56:44.509,3.75,-0.75
11:56:44.518,3.2188,-2.3125
11:56:44.528,2.6875,-1.3125
11:56:44.538,3,-2.5
11:56:44.549,2.9375,-2.625
11:56:44.558,2.5938,-3.875
11:56:44.569,1.7813,-3.5
11:56:44.578,1.9063,-4.0625
11:56:44.588,2.4688,-4.0625
11:56:44.599,1.125,-5.1875
11:56:44.609,1.7813,-5.375
11:56:44.619,1.875,-5.3125
11:56:44.629,1.1875,-6.25
11:56:44.639,1.375,-4.625
11:56:44.648,1.0625,-6.8125
11:56:44.658,0.6875,-7.375
11:56:44.668,0.4375,-6.9375
11:56:44.678,0.3438,-8.5
11:56:44.689,0.2188,-7.3125
11:56:44.698,-0.0938,-8.6875
11:56:44.708,0.4375,-8.125
11:56:44.718,-0.75,-8.875
11:56:44.728,-0.8125,-8.125
11:56:44.738,-0.8125,-9.0625
11:56:44.752,-1.2813,-10.1875
11:56:44.758,-1.7188,-9.1875
11:56:44.769,-1.2188,-9.4375
11:56:44.779,-1.0625,-10.6875
11:56:44.788,-1.4063,-10.125
11:56:44.798,-1.5625,-10.75
11:56:44.808,-1.6875,-10.8125
11:56:44.818,-1.5625,-10.75
11:56:44.828,-1.5,-11.375
11:56:44.866,-1.8438,-10.3125
11:56:44.867,-1.875,-11.125
11:56:44.870,-1.3125,-10.3125
11:56:44.872,-0.6563,-8.5625
11:56:44.880,0.625,-5.6875
11:56:44.914,2.3438,-1.375
11:56:44.918,2.7813,1.4375
11:56:44.919,3.7813,4.3125
11:56:44.927,4.5313,6.6875
11:56:44.962,5.3125,6.5625
11:56:44.964,5.0938,8.25
11:56:44.966,5.0313,7.4375
11:56:44.995,4.9375,6.9375
11:56:44.995,5.0625,6.5625
11:56:44.996,4.625,6.0625
11:56:44.999,4.4063,6.125
11:56:45.005,4.375,5.8125
11:56:45.015,3.25,4.5625
11:56:45.018,3.6875,5.4375
11:56:45.028,2.5938,4.4375
11:56:45.038,2.4688,4.125
11:56:45.049,2.625,3.5
11:56:45.059,2.4063,2.875
11:56:45.068,1.4375,3.5625
11:56:45.078,1.5313,4.5
11:56:45.089,1.75,3.5
11:56:45.098,1.7813,2.4375
11:56:45.108,1.5313,1.625
11:56:45.124,1.6563,0.875
11:56:45.129,1.5313,1.4375
11:56:45.139,1.7188,0.4375
11:56:45.149,1.8438,0.0625
11:56:45.159,1.5625,-0.4375
11:56:45.168,2.125,0.3125
11:56:45.178,2.75,0.9375
11:56:45.189,2.875,0.9375
11:56:45.198,2.1563,0.125
11:56:45.209,3.2813,1.5625
11:56:45.218,3.5625,1.0625
11:56:45.228,3.0938,1.125
11:56:45.238,2.9688,0.25
11:56:45.248,3,0.9375
11:56:45.258,3.5938,-0.1875
11:56:45.269,2.5938,-0.9375
11:56:45.279,2.2188,-1.1875
11:56:45.288,2.3438,-0.875
11:56:45.304,2.75,-2
11:56:45.316,2.0625,-2.5625
11:56:45.324,1.5313,-3.375
11:56:45.334,1.5313,-2.0625
11:56:45.344,2.1875,-3
11:56:45.354,2.0313,-3.625
11:56:45.364,1.4688,-4.0625
11:56:45.373,1.875,-3.125
11:56:45.385,2.25,-1.9375
11:56:45.394,2.8125,-3
11:56:45.404,2.3125,-4.1875
11:56:45.413,2.5625,-3.25
11:56:45.424,2.375,-3.5
11:56:45.433,1.9688,-4.3125
11:56:45.444,1.5625,-3.4375
11:56:45.453,1.0938,-4.75
11:56:45.464,1.5313,-4.9375
11:56:45.473,2.5938,-4.9375
11:56:45.484,2.0313,-4.375
11:56:45.496,3,-4.875
11:56:45.506,2.7188,-5.5625
11:56:45.514,2.625,-5.0625
11:56:45.523,3,-5.8125
11:56:45.533,1.875,-6.375
11:56:45.543,2.4688,-5.125
11:56:45.554,2.9375,-6.5625
11:56:45.564,2.25,-6.375
11:56:45.586,2.8438,-5
11:56:45.592,2.5,-6.125
11:56:45.594,2.25,-5.8125
11:56:45.609,2.5,-6.8125
11:56:45.638,1.125,-8.5625
11:56:45.640,0.8125,-7.3125
11:56:45.642,1.1875,-8.4375
11:56:45.647,1.375,-8.9375
11:56:45.682,1.9063,-6.8125
11:56:45.684,2.0625,-6.0625
11:56:45.687,3.2188,-3.5625
11:56:45.766,4.625,2.125
11:56:45.766,6.5625,4.4375
11:56:45.796,7.25,6.5625
11:56:45.797,7.75,9.8125
11:56:45.797,8.6563,10.125
11:56:45.800,8.2188,10.6875
11:56:45.801,8.375,10.25
11:56:45.805,8.3438,10.6875
11:56:45.808,8.375,10.3125
11:56:45.808,7.5625,9.5
11:56:45.815,6.9063,9.75
11:56:45.823,6.9375,8.25
11:56:45.833,6.8125,8.25
11:56:45.843,6.8438,7.5
11:56:45.853,7.9063,8
11:56:45.864,7.1875,8.25
11:56:45.879,7.4688,9.4375
11:56:45.883,7.9688,9.125
11:56:45.894,7.9375,9.0625
11:56:45.903,7.5313,8.875
11:56:45.914,7.0313,7.6875
11:56:45.923,7.375,7.3125
11:56:45.933,6.9688,6.125
11:56:45.945,7.3125,6.1875
11:56:45.953,6.7813,5.25
11:56:45.963,6.2813,4.6875
11:56:45.973,7.3125,4.5625
11:56:45.983,7.3125,4.6875
11:56:45.993,7.8125,4.5
11:56:46.004,7.5938,5.6875
11:56:46.013,7.5938,5.5625
11:56:46.023,8.1563,5.25
11:56:46.033,8.375,5.125
11:56:46.043,8.5938,4.25
11:56:46.053,8.125,5.125
11:56:46.063,7.9688,4.5625
11:56:46.073,7.5313,3.125
11:56:46.083,7.625,3.4375
11:56:46.094,8.0938,4.375
11:56:46.103,7.875,3.375
11:56:46.114,7.4375,2.0625
11:56:46.123,7.125,1.9375
11:56:46.133,7.7188,3.1875
11:56:46.144,8.125,2.4375
11:56:46.154,7.3125,0.625
11:56:46.164,7,-0.1875
11:56:46.173,6.4688,0.6875
11:56:46.183,6.9688,0.4375
11:56:46.193,6.75,-1
11:56:46.203,6.4063,-1.5625
11:56:46.214,5.4375,-0.0625
11:56:46.224,5.3438,-1.75
11:56:46.233,5.4688,-2.4375
11:56:46.244,5.5313,-2.75
11:56:46.274,4.9375,-1.75
11:56:46.276,5.3438,-3.4375
11:56:46.279,4.7188,-4
11:56:46.286,4.9063,-4.125
11:56:46.294,5.1563,-3.5
11:56:46.304,5.875,-3.625
11:56:46.313,4.5,-4.8125
11:56:46.323,4.375,-4.5625
11:56:46.333,4.2813,-4.75
11:56:46.343,4,-6.125
11:56:46.353,3.8438,-6.5625
11:56:46.363,3.6563,-5.5625
11:56:46.374,4.125,-5.25
11:56:46.390,4.375,-5.5625
11:56:46.396,4.6875,-5.9375
11:56:46.435,4.0938,-5.375
11:56:46.436,4.5938,-5.6875
11:56:46.439,4.5938,-5.9375
11:56:46.441,4.0938,-4.9375
11:56:46.448,4.625,-5.5
11:56:46.453,4.9375,-5.5
11:56:46.478,5.8125,-4.5625
11:56:46.480,5.5,-3.0625
11:56:46.492,6.75,-1.1875
11:56:46.494,8.8125,1.625
11:56:46.504,9.8125,6.4375
11:56:46.535,11.4688,8.625
11:56:46.536,11.875,10.75
11:56:46.539,12.5313,12.625
11:56:46.569,12.4688,13.7501
11:56:46.570,11.7188,15.2501
11:56:46.573,12.5313,13.8126
11:56:46.579,11.7813,13.1251
11:56:46.583,11.0938,12.6875
11:56:46.594,11.2188,12.1875
11:56:46.603,11.2188,11.25
11:56:46.613,10.4063,11.375
11:56:46.628,10.625,10.5625
11:56:46.633,10.0313,9.75
11:56:46.643,10.0625,11.125
11:56:46.654,10.6563,11.0625
11:56:46.663,10.1875,10
11:56:46.673,9.8438,10.8125
11:56:46.683,10.3125,11.375
11:56:46.693,10.4375,10.375
11:56:46.704,9.8125,9.1875
11:56:46.714,9.4375,8.8125
11:56:46.724,9.4063,8.375
11:56:46.733,9.4063,7.9375
11:56:46.743,9.3438,6.875
11:56:46.754,8.2813,6.125
11:56:46.763,8.625,7.125
11:56:46.773,8.8125,6.1875
11:56:46.784,8.125,5.1875
11:56:46.793,7.9688,5.3125
11:56:46.804,7.9063,5.875
11:56:46.813,7.7813,6.0625
11:56:46.823,8.0313,5.25
11:56:46.833,7.4063,4.3125
11:56:46.843,7.5625,4.6875
11:56:46.853,7.125,5.125
11:56:46.863,7.5313,3.6875
11:56:46.873,6.75,2.625
11:56:46.884,6.75,3.375
11:56:46.898,6.4063,3.875
11:56:46.907,7.25,2.75
11:56:46.913,6.2188,1.875
11:56:46.931,6.3438,2.0625
11:56:46.937,7.0313,2.25
11:56:46.946,6.5,1.5625
11:56:46.953,6.0313,2.75
11:56:46.963,6.1563,1.4375
11:56:46.973,5.9688,0.5
11:56:46.984,6.0625,1.6875
11:56:46.994,6.5,1.1875
11:56:47.008,5.7813,-0.8125
11:56:47.013,4.9375,0.4375
11:56:47.023,5.5625,-0.125
11:56:47.034,5.875,-0.0625
11:56:47.050,5.5625,-1
11:56:47.065,5.0938,-1.375
11:56:47.067,4.75,-1.8125
11:56:47.082,5.0313,-1.125
11:56:47.085,4.875,-1.8125
11:56:47.094,5.0938,-2.875
11:56:47.104,5.0313,-3
11:56:47.113,4.0938,-2.625
11:56:47.127,4.4688,-3.25
11:56:47.157,4.1563,-4.125
11:56:47.160,3.875,-3.8125
11:56:47.162,3.9375,-3.4375
11:56:47.165,4,-4
11:56:47.194,3.9688,-5.1875
11:56:47.196,3.2188,-4.125
11:56:47.199,3.4063,-4.6875
11:56:47.205,4,-5.6875
11:56:47.233,3.1563,-6.5625
11:56:47.236,2.8438,-5.4375
11:56:47.238,3.1875,-6.1875
11:56:47.244,2.5313,-4.9375
11:56:47.259,3.4375,-2.8125
11:56:47.263,5.2813,-0.625
11:56:47.294,6.0625,2.1875
11:56:47.296,6.8125,6.0625
11:56:47.299,7.9688,8.5625
11:56:47.305,8.2188,9.625
11:56:47.314,7.5938,11.3125
11:56:47.324,8.2813,10.5625
11:56:47.333,8.0938,10.5
11:56:47.344,7.5,11.1875
11:56:47.353,8.0625,9.8125
11:56:47.363,7,9.0625
11:56:47.374,6.6875,8.8125
11:56:47.384,6.5313,8.5625
11:56:47.393,6.75,6.75
11:56:47.404,6.6563,8.1875
11:56:47.413,6.4063,7.5
11:56:47.425,6.25,8
11:56:47.434,7.2188,8.125
11:56:47.444,6.9688,8.3125
11:56:47.453,6.7188,7.5625
11:56:47.464,5.875,7.5
11:56:47.474,5.8438,7.3125
11:56:47.484,6,6.625
11:56:47.494,5.9063,5.375
11:56:47.503,6.0938,6.25
11:56:47.514,6.7188,6.0625
11:56:47.524,6.4688,5.1875
11:56:47.551,6.5313,5
11:56:47.553,6.0938,5.375
11:56:47.556,6.875,4.75
11:56:47.563,6.3125,4.0625
11:56:47.574,5.75,3.9375
11:56:47.583,5.5625,5
11:56:47.594,6.125,4
11:56:47.604,5.125,3.1875
11:56:47.614,5.3438,2.9375
11:56:47.624,4.8125,3.5625
11:56:47.634,4.6563,3
11:56:47.644,4.9063,2.6875
11:56:47.653,5.0313,1.625
11:56:47.663,4.2813,0.5625
11:56:47.673,4.0313,1.5
11:56:47.684,3.9375,0.1875
11:56:47.694,3.9688,0.375
11:56:47.703,3.8438,0.625
11:56:47.714,3.6875,-0.0625
11:56:47.724,4.1875,0.0625
11:56:47.734,3.5313,-0.8125
11:56:47.744,3.4688,-1.5625
11:56:47.758,3.125,-2.25
11:56:47.764,3.2188,-1.8125
11:56:47.773,4.0625,-2.375
11:56:47.784,2.375,-3.375
11:56:47.793,2.6563,-3.375
11:56:47.804,2.8125,-2.5
11:56:47.813,2.8125,-3.9375
11:56:47.823,3.0625,-4.25
11:56:47.853,2.4063,-4.75
11:56:47.857,2.1563,-4.125
11:56:47.858,2.5625,-4.8125
11:56:47.863,2.75,-5.125
11:56:47.899,2.4375,-4.9375
11:56:47.901,2.0625,-4.3125
11:56:47.903,2.2188,-4.625
11:56:47.906,1.6875,-5.8125
11:56:47.940,1.5938,-5.25
11:56:47.943,1.3125,-6.125
11:56:47.947,1.0313,-6.75
11:56:47.979,0.3438,-6.875
11:56:47.981,1.3125,-7.1875
11:56:47.983,0.75,-7.5625
11:56:47.991,0.6563,-7.3125
11:56:47.992,1.125,-7.9375
11:56:47.995,1.2188,-7.75
11:56:48.011,1.875,-6.5
11:56:48.014,1.0938,-8.3125
11:56:48.025,1.25,-8.5625
11:56:48.033,0.2188,-9.25
11:56:48.044,-0.0313,-9.875
11:56:48.054,-0.5,-8
11:56:48.064,-0.25,-9.125
11:56:48.074,0.7813,-6.5
11:56:48.083,2.0625,-2.25
11:56:48.093,3.6875,1
11:56:48.104,5.4375,3.8125
11:56:48.113,5.5938,5.625
11:56:48.124,5.8438,8.1875
11:56:48.132,6.8438,9.875
11:56:48.143,6.3438,9.9375
11:56:48.154,6.9063,9.375
11:56:48.164,6.3125,9.375
11:56:48.175,7.0313,8.0625
11:56:48.183,6.1563,7.6875
11:56:48.194,5.5,7.5
11:56:48.203,5.1875,6.1875
11:56:48.222,4.6563,7.3125
11:56:48.228,5.1875,6.4375
11:56:48.243,5.1875,5.9375
11:56:48.247,5.0938,6.5625
11:56:48.256,5.7813,7.3125
11:56:48.263,5.5313,7
11:56:48.274,5.75,6.125
11:56:48.284,5.0938,6.9375
11:56:48.293,5.5625,6.25
11:56:48.303,5.3125,5.375
11:56:48.316,5.0313,4.6875
11:56:48.324,5.3438,4.75
11:56:48.333,4.7188,4.9375
11:56:48.343,4.8125,3.5625
11:56:48.359,4.5938,2.5625
11:56:48.366,3.9375,3.3125
11:56:48.374,4,1.3125
11:56:48.388,3.2188,1.1875
11:56:48.398,3.5,2
11:56:48.404,3.3438,2.5
11:56:48.413,3.5313,2.6875
11:56:48.424,4.3438,1.6875
11:56:48.433,3.9063,1.75
11:56:48.443,3.4063,1.625
11:56:48.454,3.6875,0.9375
11:56:48.464,3.75,2
11:56:48.473,4.1875,0.875
11:56:48.484,4.0625,0.375
11:56:48.493,3.7813,0.1875
11:56:48.505,3.875,0.25
11:56:48.543,3.7188,1.125
11:56:48.545,3.9063,-0.1875
11:56:48.548,3.5,-1.3125
11:56:48.551,3.7188,-1.3125
11:56:48.555,3.5313,-1
11:56:48.583,4,-0.6875
11:56:48.585,5.1875,-1.6875
11:56:48.589,4.0938,-1.5625
11:56:48.594,3.9688,-0.3125
11:56:48.629,4.0938,-1.25
11:56:48.629,4.9375,-1.75
11:56:48.631,4.1563,-2.9375
11:56:48.634,3.5313,-2.875
11:56:48.662,3.5,-2.8125
11:56:48.664,3.5938,-1.875
11:56:48.666,3.5938,-2.125
11:56:48.690,4.6875,-2.75
11:56:48.692,3.7188,-3.125
11:56:48.695,2.9375,-4.125
11:56:48.704,3.625,-3.125
11:56:48.714,2.9688,-4.125
11:56:48.723,3.3438,-4.6875
11:56:48.733,2.875,-3.875
11:56:48.743,2.7813,-3.8125
11:56:48.753,3.1875,-5.5
11:56:48.763,3.6875,-4.3125
11:56:48.773,4.125,-5
11:56:48.783,3.375,-4.375
11:56:48.794,3.9688,-4.6875
11:56:48.804,3.5625,-4.3125
11:56:48.831,2.9688,-4.5625
11:56:48.834,3.2188,-5.875
11:56:48.836,2.5,-6.0625
11:56:48.845,3.3125,-5.625
11:56:48.855,3.6875,-6.25
11:56:48.863,3.0625,-5.5625
11:56:48.873,4.3438,-4.0625
11:56:48.883,5.3125,-3.8125
11:56:48.894,5.9375,0.9375
11:56:48.903,7.625,4.1875
11:56:48.913,8.0313,6.0625
11:56:48.924,9.125,9.6875
11:56:48.933,9.875,11.5
11:56:48.944,10.5313,11.9375
11:56:48.954,10.4063,11.75
11:56:48.964,10.25,12.8125
11:56:48.973,11.0313,12.6875
11:56:48.983,9.625,11.0625
11:56:48.994,8.7188,11.875
11:56:49.003,8.9375,9.375
11:56:49.013,7.875,9.1875
11:56:49.023,8.5938,9.1875
11:56:49.033,8.125,8.3125
11:56:49.043,8.2813,9.4375
11:56:49.054,8.4688,9.375
11:56:49.063,8.6563,10.0625
11:56:49.074,8.6875,10.3125
11:56:49.083,8.4375,9.3125
11:56:49.094,8.0625,8.75
11:56:49.103,7.4375,8.8125
11:56:49.113,6.9688,7.625
11:56:49.124,7.0625,6.375
11:56:49.134,6.25,5.375
11:56:49.144,6.4375,4.5
11:56:49.154,5.625,4.6875
11:56:49.164,6.1875,5
11:56:49.173,6.25,4
11:56:49.183,5.5313,3.9375
11:56:49.193,5,4.5625
11:56:49.205,5.2813,3.875
11:56:49.213,4.3438,2.125
11:56:49.223,4.5313,3.5
11:56:49.233,4.25,2.75
11:56:49.243,4.3438,3
11:56:49.255,4.7813,2.1875
11:56:49.287,4.1875,1.0625
11:56:49.289,3.8438,1.9375
11:56:49.291,4.1875,1.125
11:56:49.293,3.6875,-0.4375
11:56:49.322,3.6563,-0.5625
11:56:49.326,3.6563,0.5
11:56:49.327,3.7188,-0.625
11:56:49.364,3.8438,-2.0625
11:56:49.366,3.3125,-0.3125
11:56:49.369,3.5938,-1.1875
11:56:49.372,2.8125,-2.25
11:56:49.405,2.1563,-1.625
11:56:49.406,1.9375,-3.25
11:56:49.410,1.75,-4
11:56:49.414,1.0938,-3.25
11:56:49.445,2.3438,-4.0625
11:56:49.446,1.625,-4.0625
11:56:49.450,1.4063,-3.9375
11:56:49.452,1.0938,-3.9375
11:56:49.459,2.0625,-4.25
11:56:49.468,1.2188,-4.75
11:56:49.479,1.2188,-4.375
11:56:49.488,0.8125,-5.125
11:56:49.498,2.0625,-5
11:56:49.509,1.75,-4.1875
11:56:49.521,1.7188,-5.25
11:56:49.537,1.9063,-6.0625
11:56:49.544,1.75,-5.625
11:56:49.552,1.5,-6.4375
11:56:49.559,1.4063,-5.375
11:56:49.575,1.1875,-6
11:56:49.591,1.5938,-6.6875
11:56:49.596,1.4375,-6.375
11:56:49.598,1.375,-6.6875
11:56:49.610,2.0625,-7
11:56:49.619,0.8125,-6.375
11:56:49.628,1.25,-7.875
11:56:49.639,1.2188,-8.125
11:56:49.649,0.9375,-7.8125
11:56:49.660,1.0625,-8.25
11:56:49.669,1.125,-7.4375
11:56:49.684,1.3125,-7.3125
11:56:49.692,1.375,-6.125
11:56:49.698,2.5,-3.625
11:56:49.715,4.3438,1
11:56:49.718,5.0938,3.625
11:56:49.733,5.4063,6.6875
11:56:49.738,5.4375,9
11:56:49.751,6.2188,9.8125
11:56:49.758,6.7813,9.9375
11:56:49.768,5.9063,10.75
11:56:49.778,5.9063,9.5
11:56:49.788,5.125,9.5625
11:56:49.799,5.1563,9.125
11:56:49.808,6.125,8.25
11:56:49.819,5.8125,6.6875
11:56:49.828,5.4688,7.625
11:56:49.838,5.2813,7.125
11:56:49.848,5.0625,7.9375
11:56:49.859,5.7188,7.5625
11:56:49.869,5.7188,8.1875
11:56:49.878,6.0313,8.5
11:56:49.889,5.6875,8.5625
11:56:49.898,5.8438,9.8125
11:56:49.908,6.1563,9.0625
11:56:49.920,5.3125,7.875
11:56:49.928,5.0938,7.5
11:56:49.938,4.9063,6.4375
11:56:49.949,4.9375,6.125
11:56:49.958,4.6563,6.375
11:56:49.968,5.4063,5.4375
11:56:49.979,5.2813,4.5625
11:56:49.989,5.125,5.1875
11:56:50.011,5.6875,4.8125
11:56:50.014,5.1875,4.3125
11:56:50.019,5.25,5.4375
11:56:50.049,5,4.9375
11:56:50.052,4.9688,4.1875
11:56:50.054,4.8125,4.625
11:56:50.060,4.9688,4.625
11:56:50.090,5.1563,3.5
11:56:50.093,4.5625,3.125
11:56:50.095,4.125,2.8125
11:56:50.121,4.3125,2.75
11:56:50.127,4.6563,2.375
11:56:50.127,5,1.75
11:56:50.128,4.125,0.375
11:56:50.159,3.9063,1.625
11:56:50.163,4.9375,1.75
11:56:50.163,4.5938,0.25
11:56:50.170,4.75,-0.8125
11:56:50.183,3.5,0.5
11:56:50.192,4.625,-1.0625
11:56:50.199,4.125,-1.5625
11:56:50.209,3.6875,-1.375
11:56:50.218,2.7188,-1.5625
11:56:50.228,3.375,-2.375
11:56:50.238,3.0625,-3.0625
11:56:50.249,3.4688,-2.8125
11:56:50.259,3.3125,-2.0625
11:56:50.269,3.1875,-3.375
11:56:50.278,3.4375,-3.875
11:56:50.289,3.4688,-3.6875
11:56:50.299,2.875,-4.1875
11:56:50.309,3.1875,-3.75
11:56:50.318,2.9063,-4.25
11:56:50.329,2.6563,-4.875
11:56:50.338,2.5625,-4.625
11:56:50.348,2.3125,-5
11:56:50.359,2.0625,-6.6875
11:56:50.369,2.375,-5.5
11:56:50.379,2.2813,-7.1875
11:56:50.388,1.4688,-7.5625
11:56:50.399,1.0625,-5.3125
11:56:50.410,1.4375,-7.3125
11:56:50.418,1.5938,-8.375
11:56:50.428,1.5,-7.9375
11:56:50.438,2.0938,-8.3125
11:56:50.448,1.6875,-8.5
11:56:50.459,0.8438,-6.5
11:56:50.468,1.375,-8.5625
11:56:50.478,0.875,-10.25
11:56:50.489,1.25,-9.375
11:56:50.498,0.375,-11.125
11:56:50.508,0.3125,-9.3125
11:56:50.518,0.8125,-10.0625
11:56:50.528,0.6563,-8.9375
11:56:50.539,0.9375,-8.5625
11:56:50.549,2.25,-7.0625
11:56:50.558,3.2188,-2.5625
11:56:50.568,5.5313,0.75
11:56:50.578,6.1875,3.1875
11:56:50.589,7,7.8125
11:56:50.599,7.8125,9.3125
11:56:50.608,7.75,11.625
11:56:50.618,8.6875,12.1875
11:56:50.628,8.0938,10.875
11:56:50.639,7.75,11.4375
11:56:50.648,7,10
11:56:50.658,7.375,8.6875
11:56:50.668,6.5313,8.625
11:56:50.679,6.875,7.75
11:56:50.688,6.7813,7.5625
11:56:50.699,6.2188,9
11:56:50.709,6.75,8.125
11:56:50.718,6.5625,8.0625
11:56:50.728,6.2188,8.9375
11:56:50.740,7.4688,8.375
11:56:50.764,6.375,8.8125
11:56:50.767,6.3438,9.3125
11:56:50.770,6.5313,8.0625
11:56:50.797,6.6875,6.8125
11:56:50.799,6.4063,6.75
11:56:50.801,6.75,6.1875
11:56:50.834,5.9688,5.375
11:56:50.835,6.1875,5
11:56:50.838,6.3438,5.4375
11:56:50.842,7.0625,4.875
11:56:50.870,6.4063,4.5
11:56:50.915,6.3438,5
11:56:50.916,6.0625,4.75
11:56:50.920,6.7188,3.8125
11:56:50.921,6.5,4
11:56:50.933,6.1875,5.4375
11:56:50.936,6.8125,4.375
11:56:50.936,7.0625,4.6875
11:56:50.938,7.875,5.9375
11:56:50.948,8.2813,7.5
11:56:50.959,6.875,5.75
11:56:50.968,5.5625,3.75
11:56:50.978,5.125,3.0625
11:56:50.990,4.0938,4.0625
11:56:51.008,3.1875,2.9375
11:56:51.011,2.5313,1.875
11:56:51.021,2,3.0625
11:56:51.041,1.4688,3.9375
11:56:51.043,2.3125,5.1875
11:56:51.051,2.5,6.3125
11:56:51.058,1.2813,8
11:56:51.069,-1.625,7.3125
11:56:51.079,-4.5313,6.375
11:56:51.089,-6.9688,6
11:56:51.098,-9.4063,5.375
11:56:51.108,-9.7813,6.625
11:56:51.118,-8.0625,6.625
11:56:51.129,-9.0625,6.0625
11:56:51.139,-9.3125,6.8125
11:56:51.148,-9.875,7.25
11:56:51.158,-9.0938,6.125
11:56:51.169,-8.1875,6.375
11:56:51.178,-9.375,5
11:56:51.189,-9.3125,6.875
11:56:51.198,-8.875,5.875
11:56:51.208,-8.8438,4.8125
11:56:51.218,-9.4688,4.3125
11:56:51.228,-8.875,4.0625
11:56:51.239,-9.3125,3.3125
11:56:51.248,-9.6563,3.5
11:56:51.260,-9.8438,2.375
11:56:51.268,-9.0938,1.0625
11:56:51.278,-8.9688,2.0625
11:56:51.289,-9.3125,0.5625
11:56:51.298,-8.75,1.1875
11:56:51.309,-7.25,2
11:56:51.318,-6.1875,3.1875
11:56:51.328,-4.0938,7
11:56:51.339,-1.0625,10.6875
11:56:51.348,0.5938,12.9375
11:56:51.358,2.5,17.0001
11:56:51.392,3.6563,15.5626
11:56:51.394,4.4375,18.0001
11:56:51.396,5.1875,18.0001
11:56:51.399,5.9063,19.5001
11:56:51.409,7.125,22.5001
11:56:51.420,8.1563,24.8751
11:56:51.449,9.6563,27.3751
11:56:51.453,10.8438,29.7501
11:56:51.455,10.8438,31.5001
11:56:51.459,11,31.7501
11:56:51.487,10.8125,30.1251
11:56:51.489,10.2188,30.0626
11:56:51.491,9.5938,27.1251
11:56:51.523,9.5,26.1876
11:56:51.525,8.6875,24.5626
11:56:51.528,8.1563,23.9376
11:56:51.533,8.0625,21.8751
11:56:51.567,7.75,21.3751
11:56:51.572,7.3125,19.8126
11:56:51.575,7.2813,18.8751
11:56:51.575,7.4375,18.6251
11:56:51.579,6.5,17.6876
11:56:51.604,5.7188,15.5001
11:56:51.606,4.6563,15.6251
11:56:51.609,3.6875,13.6251
11:56:51.619,3.0938,10.625
11:56:51.628,2.0313,8.1875
11:56:51.639,0.875,7
11:56:51.649,0.4063,6.375
11:56:51.659,0.3438,4.9375
11:56:51.669,-0.9063,3.5625
11:56:51.682,-1.5313,2.5
11:56:51.688,-1,2.125
11:56:51.698,-2,1.4375
11:56:51.708,-2.1563,1.9375
11:56:51.718,-1.625,2.75
11:56:51.728,-0.2813,3.4375
11:56:51.739,-0.1875,4.5625
11:56:51.748,-1.4375,5.6875
11:56:51.758,-0.0625,7
11:56:51.768,-0.375,5.6875
11:56:51.779,-1,5.875
11:56:51.788,-5.4063,-1.8125
11:56:51.798,-6.9688,-4.75
11:56:51.808,-6.875,-4.4375
11:56:51.818,-7.2188,-3.625
11:56:51.828,-7.25,-3.6875
11:56:51.839,-7,-2.4375
11:56:51.848,-5.875,-1.5625
11:56:51.859,-5.1875,-0.25
11:56:51.872,-3.625,3.25
11:56:51.878,-3.3125,2.4375
11:56:51.889,-3.9688,1.75
11:56:51.899,-3.8438,2.8125
11:56:51.908,-3.7188,1.6875
11:56:51.918,-4.4688,1.1875
11:56:51.928,-3.75,1.9375
11:56:51.939,-2.75,1.9375
11:56:51.950,-1.625,4.625
11:56:51.958,-0.2188,5.5
11:56:51.971,0.5,7.75
11:56:51.978,1.0938,7.75
11:56:51.988,1.8438,9.1875
11:56:51.998,2.5625,8.875
11:56:52.009,2.9375,10.5625
11:56:52.018,3.875,9.375
11:56:52.029,3.5938,10.5
11:56:52.038,4.2813,10.5625
11:56:52.048,4.6875,9.9375
11:56:52.057,4.875,11.625
11:56:52.070,5.875,11.1875
11:56:52.078,6.7188,12.0625
11:56:52.089,7.9375,12.8125
11:56:52.099,7.75,13.4376
11:56:52.108,8.625,15.8126
11:56:52.119,9.5938,15.3126
11:56:52.128,10.2813,14.8126
11:56:52.138,10.2188,14.6876
11:56:52.149,9.9375,13.8751
11:56:52.158,10.0625,11.3125
11:56:52.169,8.625,9.375
11:56:52.186,7.875,8.625
11:56:52.200,7.4063,6.1875
11:56:52.203,7.1875,3.75
11:56:52.235,6.7813,1.8125
11:56:52.237,6.4688,0.9375
11:56:52.239,5.8438,-0.1875
11:56:52.241,6.5,-1.8125
11:56:52.271,6.9063,-2.0625
11:56:52.274,7.5625,-1.125
11:56:52.276,7.875,1.9375
11:56:52.279,8.25,3.1875
11:56:52.315,9.3438,4.1875
11:56:52.321,9,6.9375
11:56:52.362,9.5,7.9375
11:56:52.397,8.9688,7.8125
11:56:52.400,8.3438,8.4375
11:56:52.413,7.8125,6.9375
11:56:52.415,7.5313,5.9375
11:56:52.429,6.4063,4.5
11:56:52.429,5.3438,3
11:56:52.430,4.7813,2.375
11:56:52.433,3.9688,2.3125
11:56:52.446,3.8125,0.875
11:56:52.453,2.7813,2.75
11:56:52.464,3.75,2.25
11:56:52.473,3.25,1.5625
11:56:52.485,3.0938,2.75
11:56:52.494,3.6875,3.6875
11:56:52.504,4.0625,4.625
11:56:52.513,4.625,5.5625
11:56:52.523,4.875,5.8125
11:56:52.533,5.5625,9.25
11:56:52.544,6.4688,9.375
11:56:52.555,7,10
11:56:52.564,9.8125,12.5
11:56:52.575,8.6563,10.625
11:56:52.583,-1.5313,-5.4375
11:56:52.594,-1.5938,-2.75
11:56:52.603,0.1563,-2.5625
11:56:52.613,1.25,-0.75
11:56:52.624,1.6563,0.8125
11:56:52.634,2.3125,2.875
11:56:52.644,2,2.625
11:56:52.671,1.6875,1.3125
11:56:52.674,1.0625,1.1875
11:56:52.677,0.9688,2.4375
11:56:52.684,1.7188,1.5625
11:56:52.694,0.75,0.9375
11:56:52.703,0.6875,1.25
11:56:52.713,0.375,0.75
11:56:52.724,-0.1875,1.25
11:56:52.734,-0.0625,1.0625
11:56:52.743,0.5313,0.6875
11:56:52.753,0.8438,1.9375
11:56:52.763,0.625,1.75
11:56:52.773,1.8125,2.25
11:56:52.785,2.8125,5
11:56:52.793,2.875,5.875
11:56:52.803,4.8438,7.25
11:56:52.819,5.2188,7.5625
11:56:52.823,5.875,8.75
11:56:52.834,6.625,9.5
11:56:52.843,7.5313,9.5625
11:56:52.853,7.375,11.125
11:56:52.864,8.125,10.8125
11:56:52.873,8.375,10.25
11:56:52.883,8.9063,10.0625
11:56:52.894,9.1563,10.75
11:56:52.925,9.625,11
11:56:52.927,9.8125,12.875
11:56:52.930,11.0625,12.8125
11:56:52.934,11.625,11.625
11:56:52.964,12.2813,13.5626
11:56:52.965,12.625,12.8125
11:56:52.967,13.0938,11.8125
11:56:52.974,12.25,11.5625
11:56:53.001,12.0938,9.75
11:56:53.004,11.2188,6.625
11:56:53.006,10.4688,5.75
11:56:53.044,9.375,4.8125
11:56:53.047,9.1563,2.25
11:56:53.049,8.7188,-0.25
11:56:53.052,7.7813,-0.9375
11:56:53.056,7.875,-1.625
11:56:53.064,6.5625,-4
11:56:53.081,6.2813,-4.5
11:56:53.083,6.4375,-4
11:56:53.093,5.5625,-4.4375
11:56:53.103,5.5625,-4.4375
11:56:53.114,5.375,-2.4375
11:56:53.123,5.9375,-0.3125
11:56:53.133,5.8125,0.0625
11:56:53.143,5.6563,0.8125
11:56:53.154,5.625,3.4375
11:56:53.165,5.6563,3.6875
11:56:53.173,6.1563,3.0625
11:56:53.183,5.2188,1.875
11:56:53.194,4.2188,0.4375
11:56:53.204,3.6563,1.25
11:56:53.214,3.9063,0.9375
11:56:53.224,3.2188,0.5625
11:56:53.233,3.6875,-0.0625
11:56:53.244,2.9375,-0.3125
11:56:53.253,3,0
11:56:53.263,3.0313,2
11:56:53.273,3.75,1.5
11:56:53.282,4.4375,3.5
11:56:53.293,4.875,4.3125
11:56:53.304,4.5625,5
11:56:53.314,5.0938,7.0625
11:56:53.323,7.3438,8.1875
11:56:53.334,7.6563,8.1875
11:56:53.344,8.1563,9.875
11:56:53.353,9.0313,8.4375
11:56:53.363,5.5625,4.75
11:56:53.374,0.5938,-3.75
11:56:53.383,-0.7188,-4.75
11:56:53.401,-1.0625,-6.1875
11:56:53.409,-1.7188,-5.875
11:56:53.419,-1.8438,-5.1875
11:56:53.428,-1.5938,-5.6875
11:56:53.438,-1.0625,-4
11:56:53.448,-0.3438,-3.4375
11:56:53.458,0.0313,-2.4375
11:56:53.469,1.0625,-1
11:56:53.484,0.9375,0.9375
11:56:53.491,1.3438,-0.625
11:56:53.506,0.5625,-1.0625
11:56:53.509,0.25,-2.25
11:56:53.524,0.375,-1.25
11:56:53.529,1.3438,0.1875
11:56:53.538,1.1563,-0.5625
11:56:53.550,0.4375,-1.5625
11:56:53.558,0.8438,-0.375
11:56:53.568,2.1563,0.3125
11:56:53.578,2.2813,1.0625
11:56:53.589,2.6563,2
11:56:53.613,3.625,3.0625
11:56:53.615,3.6563,4
11:56:53.640,4.7813,4.875
11:56:53.642,5.8125,5.125
11:56:53.645,6,6.0625
11:56:53.650,5.9688,7.5625
11:56:53.682,8.2813,8.8125
11:56:53.684,7.9375,9.125
11:56:53.751,8.5938,10.875
11:56:53.752,9.25,10.3125
11:56:53.775,8.9063,9.25
11:56:53.775,9.625,10.75
11:56:53.788,9.8125,10.4375
11:56:53.804,10.2813,10.4375
11:56:53.807,10.5625,12
11:56:53.808,11.3125,11
11:56:53.808,11.875,11.875
11:56:53.811,12.4063,12.3125
11:56:53.813,13.3438,11.8125
11:56:53.818,13,12.125
11:56:53.828,12.625,11.375
11:56:53.838,12.375,9.125
11:56:53.849,11.2813,8.9375
11:56:53.859,10.9375,5.875
11:56:53.868,10.1563,3.9375
11:56:53.878,8.4688,2.375
11:56:53.888,7.9688,1.0625
11:56:53.900,6.8125,-1.375
11:56:53.908,6.875,-3.5
11:56:53.918,6.6563,-2.1875
11:56:53.952,6.7188,-0.375
11:56:53.954,8,1.125
11:56:53.956,8.2188,2.5625
11:56:53.958,7.75,5.5
11:56:53.973,8.4375,6
11:56:53.980,7.625,5.5
11:56:53.990,7.0625,4.8125
11:56:53.998,6.5,2.875
11:56:54.008,6.1563,2.125
11:56:54.019,5.7813,2.25
11:56:54.030,5.2813,1.125
11:56:54.039,5.1563,0.25
11:56:54.049,3.9063,1.5
11:56:54.058,4.7188,0.5
11:56:54.068,4.3438,1.6875
11:56:54.078,5.0625,0.9375
11:56:54.088,4.9063,2.0625
11:56:54.098,4.75,3.4375
11:56:54.109,4.8125,3.25
11:56:54.118,5.375,4.125
11:56:54.128,6.0625,5.3125
11:56:54.137,6.2813,6
11:56:54.149,6,6.125
11:56:54.159,7.1875,7.6875
11:56:54.169,7.375,8.0625
11:56:54.179,8.6875,9.0625
11:56:54.189,10.1563,10.8125
11:56:54.199,9.6563,9.5
11:56:54.211,9.25,9.1875
11:56:54.220,5.25,4.5
11:56:54.229,2.0313,-3.3125
11:56:54.240,0,-5.75
11:56:54.249,-0.1875,-5.125
11:56:54.258,0.625,-4.3125
11:56:54.270,0.7188,-4.875
11:56:54.279,1.1875,-4.125
11:56:54.289,1.0625,-3.75
11:56:54.298,1.4375,-3.75
11:56:54.309,1.9063,-2
11:56:54.318,2.4063,-1
11:56:54.328,3.2813,-0.25
11:56:54.338,2.6563,-0.6875
11:56:54.352,1.3125,-1.4375
11:56:54.358,2,-1
11:56:54.369,2.25,-1
11:56:54.378,2.1875,-2.0625
11:56:54.404,1.5313,-0.875
11:56:54.406,2.6563,-1.25
11:56:54.409,2.0625,1
11:56:54.445,3.75,1.0625
11:56:54.447,4.2188,2.25
11:56:54.450,4.7813,3.625
11:56:54.453,4.4688,3.25
11:56:54.482,5.3438,4.9375
11:56:54.486,5.9375,4.8125
11:56:54.487,6.0625,6.1875
11:56:54.536,7.6563,7.375
11:56:54.536,6.625,7.5625
11:56:54.536,8.2813,8.1875
11:56:54.538,8.1563,8.625
11:56:54.544,8.5625,8.6875
11:56:54.545,9.125,8.8125
11:56:54.549,8.5625,10.1875
11:56:54.566,9.0625,9.5
11:56:54.571,9.8125,8.625
11:56:54.580,10.5313,9.375
11:56:54.590,11.0625,8.9375
11:56:54.601,10.6563,8.125
11:56:54.609,11.7188,11.5
11:56:54.618,11.6563,9.6875
11:56:54.628,12.2813,8.4375
11:56:54.639,11.1563,6.5625
11:56:54.650,9.25,4.5
11:56:54.661,8.7188,3.5
11:56:54.670,8.0938,1.5625
11:56:54.680,7.6563,-1.0625
11:56:54.690,7.0313,-1.875
11:56:54.702,5.9063,-2.25
11:56:54.711,7.1875,-3.0625
11:56:54.718,6.4063,-2.5
11:56:54.727,7.2813,-1.3125
11:56:54.738,7.0313,1.75
11:56:54.748,7.4375,3
11:56:54.759,7.6563,5.3125
11:56:54.768,7.9688,6.375
11:56:54.778,6.8125,5.1875
11:56:54.795,6.5,5.125
11:56:54.810,5.375,4.625
11:56:54.814,5.9375,3.5625
11:56:54.827,4.9688,1.3125
11:56:54.829,4.5313,0.5
11:56:54.838,4.9375,0.5625
11:56:54.848,3.3125,-0.875
11:56:54.858,3.0313,-1.1875
11:56:54.868,3.9063,-0.875
11:56:54.878,3.4375,-2
11:56:54.888,2.9688,-0.0625
11:56:54.899,3.5,-1
11:56:54.908,3.2813,-1.25
11:56:54.918,3.4688,0.25
11:56:54.928,4.125,0.25
11:56:54.938,3.5625,0.625
11:56:54.948,4.1875,1.5625
11:56:54.958,4.4375,2.625
11:56:54.968,4.4063,3.6875
11:56:54.978,5.7188,3.125
11:56:54.988,6.1563,4.3125
11:56:54.998,6.4063,6.75
11:56:55.008,8.25,7.25
11:56:55.018,9.1563,9.25
11:56:55.027,9.625,9.4375
11:56:55.038,5.1563,4
11:56:55.048,0.8125,-4.75
11:56:55.059,-0.125,-4.6875
11:56:55.074,-0.9375,-6.3125
11:56:55.092,-0.4063,-6
11:56:55.093,-0.8438,-4.875
11:56:55.101,0.1875,-5.4375
11:56:55.114,-0.4063,-5.5625
11:56:55.118,0.5625,-2.9375
11:56:55.133,2.0938,-2.125
11:56:55.164,1.875,-1.875
11:56:55.166,1.2188,-2.1875
11:56:55.168,1.0625,-1.8125
11:56:55.171,1.5313,-3.25
11:56:55.201,1.0313,-2.25
11:56:55.204,1.8125,-2.75
11:56:55.206,1.25,-2.5
11:56:55.233,1.375,-1.3125
11:56:55.234,1.7813,-1.125
11:56:55.236,2.2813,-0.125
11:56:55.242,3.3125,0.25
11:56:55.249,3.6875,2.25
11:56:55.277,4.25,3.25
11:56:55.280,4.9688,2.5625
11:56:55.283,5.4688,5.625
11:56:55.289,6.4375,5.5
11:56:55.303,6.7813,6.5
11:56:55.309,7.4063,7.3125
11:56:55.318,7.6563,8.75
11:56:55.327,9.1563,8.875
11:56:55.337,8.9688,9.375
11:56:55.349,8.4063,9.375
11:56:55.358,9.125,9
11:56:55.368,9.4063,8.9375
11:56:55.378,9.8125,9.25
11:56:55.388,10.1563,9.0625
11:56:55.400,10.875,9.375
11:56:55.408,11.0313,9.1875
11:56:55.418,11.4375,10.5625
11:56:55.427,11.6875,9.75
11:56:55.439,12.9063,9.625
11:56:55.448,12.4375,8.6875
11:56:55.459,12.0313,8.125
11:56:55.469,11.1563,5.6875
11:56:55.479,10.3125,4.25
11:56:55.487,10.7188,4.0625
11:56:55.498,10.3438,2.9375
11:56:55.508,9.9688,3.9375
11:56:55.518,10.8125,6.625
11:56:55.528,11.625,8.1875
11:56:55.538,11.5938,9.9375
11:56:55.547,11.3125,12.25
11:56:55.558,11.25,12
11:56:55.569,10.8438,10.9375
11:56:55.579,9.875,9.625
11:56:55.588,9.3438,9.125
11:56:55.598,8.0938,6
11:56:55.608,6.625,4.625
11:56:55.618,5.4375,3.125
11:56:55.630,5.3125,1.4375
11:56:55.638,4.8125,1.3125
11:56:55.648,5.4688,0.3125
11:56:55.658,4.5625,0.75
11:56:55.668,4,1.25
11:56:55.677,4.3125,1.25
11:56:55.689,4.0313,0.4375
11:56:55.698,3.9375,0.9375
11:56:55.709,4.125,0.9375
11:56:55.718,4.0313,-0.625
11:56:55.729,3.25,0.1875
11:56:55.739,3.5,-0.0625
11:56:55.749,3.6563,-1.25
11:56:55.758,3.2188,-1.4375
11:56:55.768,2.9063,0.25
11:56:55.779,4.4063,0.5625
11:56:55.788,4.625,1.4375
11:56:55.798,5.4375,2.8125
11:56:55.809,5.625,3.625
11:56:55.824,5.9375,4.0625
11:56:55.828,8.125,7.625
11:56:55.862,8.375,8.3125
11:56:55.865,8.1875,7.0625
11:56:55.867,6.1563,4.125
11:56:55.870,1.0938,-2.1875
11:56:55.879,-1.0313,-6.5
11:56:55.912,-1.3125,-8.1875
11:56:55.914,-1.2188,-8.1875
11:56:55.916,-2.5938,-8.375
11:56:55.920,-2.625,-8.125
11:56:55.952,-1.5313,-8.6875
11:56:55.954,-1.0938,-8
11:56:55.956,-1.4063,-7.8125
11:56:55.958,-0.7188,-5.9375
11:56:55.999,-0.5,-6.0625
11:56:56.001,-0.5313,-5.9375
11:56:56.004,-1.2813,-4.6875
11:56:56.014,-0.7813,-7.25
11:56:56.014,-1.5625,-7.6875
11:56:56.018,-1.9688,-7.5625
11:56:56.031,-1.625,-7.5625
11:56:56.038,-2.4063,-8.25
11:56:56.048,-2.3125,-8.8125
11:56:56.058,-2.75,-9
11:56:56.067,-2.25,-8.4375
11:56:56.078,-1.5,-8.5625
11:56:56.095,-1.875,-8.6875
11:56:56.101,-2.125,-7.9375
11:56:56.116,-2.375,-8.3125
11:56:56.119,-1.8438,-8.8125
11:56:56.133,-2.625,-8.0625
11:56:56.139,-2.1875,-9
11:56:56.148,-2.875,-9.8125
11:56:56.157,-3.3125,-10.4375
11:56:56.169,-3.1563,-13.5001
11:56:56.177,0.5313,-8.8125
11:56:56.188,1.3125,-10.625
11:56:56.198,2.1563,-11
11:56:56.208,2,-11
11:56:56.218,1.6563,-11.3125
11:56:56.229,3.5938,-11.5625
11:56:56.239,4,-10.0625
11:56:56.249,6.625,-9.3125
11:56:56.259,7.6563,-9.5
11:56:56.270,8.4688,-8.4375
11:56:56.280,10.9375,-8.1875
11:56:56.291,12.3125,-6.5
11:56:56.298,14.3126,-5.3125
11:56:56.308,14.6251,-4.75
11:56:56.319,12.9063,-4.6875
11:56:56.328,12.2188,-3.5625
11:56:56.338,11.9063,-2.9375
11:56:56.349,11.6563,-2.6875
11:56:56.358,12.0938,-0.6875
11:56:56.376,14.0001,-0.0625
11:56:56.380,16.5313,3.3125
11:56:56.393,19.1251,6.1875
11:56:56.399,22.1251,7.125
11:56:56.408,23.5001,10.1875
11:56:56.418,25.8438,10.375
11:56:56.427,26.6251,9.6875
11:56:56.437,27.6876,11.5
11:56:56.448,27.2814,10.5
11:56:56.458,26.6251,9.5
11:56:56.467,25.0313,8.25
11:56:56.478,24.0313,6.0625
11:56:56.511,23.0001,5.25
11:56:56.514,24.7813,6.9375
11:56:56.516,26.5001,8.1875
11:56:56.519,27.4064,9.5625
11:56:56.529,28.3126,8.8125
11:56:56.538,27.4376,7.25
11:56:56.548,26.4689,6.25
11:56:56.559,26.3751,5.75
11:56:56.569,26.0001,4.9375
11:56:56.590,26.4063,5.375
11:56:56.592,27.0001,6.375
11:56:56.625,27.5626,5.75
11:56:56.627,26.5939,5
11:56:56.629,26.0938,6.5
11:56:56.632,26.5626,5
11:56:56.667,25.0313,3.5625
11:56:56.673,23.4688,2.75
11:56:56.673,23.1251,3.625
11:56:56.677,23.8126,4.625
11:56:56.681,23.9376,3.375
11:56:56.688,23.3751,4.25
11:56:56.720,23.7501,3.5625
11:56:56.722,23.4376,2.625
11:56:56.725,22.9688,4
11:56:56.731,22.5938,2.3125
11:56:56.756,22.3751,2.5
11:56:56.759,22.4376,2.4375
11:56:56.762,23.0938,1.5
11:56:56.768,23.3126,1.4375
11:56:56.779,23.2188,2.6875
11:56:56.789,23.2501,2.125
11:56:56.798,23.5626,0.875
11:56:56.808,22.0938,1.9375
11:56:56.818,21.5626,0.375
11:56:56.827,20.6563,-1.25
11:56:56.838,20.0001,-2.125
11:56:56.849,19.7813,-2.5625
11:56:56.857,18.4688,-3.3125
11:56:56.869,18.3126,-4.1875
11:56:56.878,17.4688,-3.25
11:56:56.889,18.0313,-3.3125
11:56:56.899,17.8438,-4.125
11:56:56.909,17.9688,-4.4375
11:56:56.920,18.2188,-3.0625
11:56:56.927,19.0001,-3.0625
11:56:56.938,18.2813,-3.8125
11:56:56.948,17.9376,-2.5
11:56:56.958,18.1563,-3.9375
11:56:56.967,17.6563,-3.5
11:56:56.977,17.7188,-3.5625
11:56:56.989,18.4063,-2.6875
11:56:56.998,18.0938,-4.125
11:56:57.009,17.2188,-3.25
11:56:57.021,17.7501,-4.1875
11:56:57.028,16.7813,-3.375
11:56:57.038,17.6563,-4.25
11:56:57.047,17.1876,-5.0625
11:56:57.059,16.7813,-4.0625
11:56:57.068,16.9688,-3.5
11:56:57.079,17.3751,-2.125
11:56:57.089,18.9063,1.25
11:56:57.100,19.5626,4.0625
11:56:57.111,20.8438,7.625
11:56:57.118,21.6563,10.0625
11:56:57.128,22.6251,11.9375
11:56:57.138,22.5626,12.8125
11:56:57.154,22.1251,14.0001
11:56:57.158,22.2188,14.3751
11:56:57.168,21.8126,13
11:56:57.177,21.6251,13.4376
11:56:57.188,21.5001,12.375
11:56:57.198,20.7813,11.375
11:56:57.207,20.3126,11.4375
11:56:57.218,19.5626,11.5625
11:56:57.229,19.6876,10.5625
11:56:57.239,19.4376,11.6875
11:56:57.248,19.5938,11.875
11:56:57.258,19.7188,10.3125
11:56:57.267,19.6563,11.5625
11:56:57.277,18.7188,11.625
11:56:57.289,18.8751,10.5
11:56:57.299,17.3126,10.1875
11:56:57.320,17.4376,8.3125
11:56:57.322,16.5001,7.125
11:56:57.352,15.9376,8.375
11:56:57.354,16.1251,6.875
11:56:57.356,16.1563,5.375
11:56:57.359,15.5626,6.8125
11:56:57.421,15.0001,6.1875
11:56:57.422,15.2188,5.75
11:56:57.425,13.2188,4.5
11:56:57.426,12.6875,4.4375
11:56:57.432,11.125,2.0625
11:56:57.432,10.0938,2.4375
11:56:57.441,10.5938,2.8125
11:56:57.475,10.8438,2.25
11:56:57.477,10.7188,1.75
11:56:57.481,10.4063,3.125
11:56:57.484,10.5938,2
11:56:57.486,10.25,0.375
11:56:57.493,9.3438,1.625
11:56:57.502,8.5938,-0.875
11:56:57.514,8,-2.25
11:56:57.530,7.4063,-2
11:56:57.534,8.375,-1.9375
11:56:57.548,7.8125,-2.25
11:56:57.554,7.8125,-1.3125
11:56:57.563,8.125,-0.6875
11:56:57.574,8.25,-0.8125
11:56:57.584,8.0938,-2.0625
11:56:57.594,7.5938,-2.875
11:56:57.604,7.5,-3.375
11:56:57.615,6.9375,-3.0625
11:56:57.624,7.2813,-3.625
11:56:57.632,7.875,-3.75
11:56:57.644,7.3438,-3.875
11:56:57.652,7.5938,-2.5
11:56:57.672,8.3125,-2.6875
11:56:57.676,7.9375,-3.875
11:56:57.689,7.3125,-3.25
11:56:57.693,8.2813,-3.625
11:56:57.702,7.25,-4.8125
11:56:57.713,6.75,-4.0625
11:56:57.723,7.375,-4.8125
11:56:57.734,6.9375,-4
11:56:57.744,6.8438,-4.8125
11:56:57.752,7.6563,-4.5625
11:56:57.764,7.0938,-4.6875
11:56:57.791,7.8125,-5.125
11:56:57.795,8.6875,-4.4375
11:56:57.798,9.1563,-3.875
11:56:57.803,9.25,-3.625
11:56:57.814,10.0625,-2.875
11:56:57.824,10.4063,-2.625
11:56:57.833,11.1875,-1.6875
11:56:57.842,10.8438,0.9375
11:56:57.854,12.875,2.875
11:56:57.863,12.5938,5.625
11:56:57.874,13.3126,9.875
11:56:57.884,14.3751,11
11:56:57.895,14.1251,11.4375
11:56:57.905,13.8751,13.3126
11:56:57.914,13.5001,12.6875
11:56:57.923,12.8125,12.4375
11:56:57.932,12.4063,11.75
11:56:57.944,12,10.625
11:56:57.954,11.6563,10
11:56:57.963,11.5625,10.375
11:56:57.974,11.4688,9.5625
11:56:57.983,11.2813,9.875
11:56:57.992,11.9063,9.875
11:56:58.006,11.1875,8.875
11:56:58.044,10.75,10.375
11:56:58.046,11.0625,9.4375
11:56:58.049,10.5313,9.125
11:56:58.051,10.2813,10.0625
11:56:58.053,11.75,9.6875
11:56:58.087,10.5,9
11:56:58.089,10.2188,7.5625
11:56:58.091,10.0625,8.375
11:56:58.125,10.1875,6.625
11:56:58.125,9.25,5.4375
11:56:58.129,8.3125,6.0625
11:56:58.132,8.5625,5.0625
11:56:58.133,8.5313,4.3125
11:56:58.172,8.125,5.1875
11:56:58.174,8.9375,5.0625
11:56:58.176,8.3438,4.0625
11:56:58.179,7.7813,4.6875
11:56:58.183,8.0625,4.6875
11:56:58.193,7.9375,3.375
11:56:58.204,8.0313,3.5625
11:56:58.214,7.2813,3.875
11:56:58.224,7.8125,2.9375
11:56:58.233,7.5938,2.5
11:56:58.244,7.375,2.0625
11:56:58.253,7.25,1.25
11:56:58.264,6.75,1.8125
11:56:58.273,7.25,1.1875
11:56:58.284,7.0938,0.375
11:56:58.293,6.4375,-0.125
11:56:58.302,6.5938,-0.375
11:56:58.313,6.8438,-0.4375
11:56:58.323,6.1563,-1.5
11:56:58.333,5.8438,-1.8125
11:56:58.343,5.8125,-3.125
11:56:58.356,5.1875,-3.0625
11:56:58.363,5.375,-2.1875
11:56:58.372,5.5625,-2.1875
11:56:58.383,4.8438,-3.0625
11:56:58.393,4.625,-2.5
11:56:58.404,4.4375,-4
11:56:58.415,3.9063,-4.75
11:56:58.423,3.6875,-3.625
11:56:58.434,4.7813,-3.875
11:56:58.443,3.375,-5.5
11:56:58.453,3.125,-4.4375
11:56:58.465,3.1563,-5.875
11:56:58.473,2.2188,-7.0625
11:56:58.482,2.0313,-6
11:56:58.493,1.7188,-7.9375
11:56:58.503,1.625,-7.375
11:56:58.516,2.0938,-7.4375
11:56:58.523,2.0313,-6.8125
11:56:58.535,2.2188,-7.5
11:56:58.542,1.75,-7.75
11:56:58.554,2.1875,-7.5625
11:56:58.562,2.4063,-8.5625
11:56:58.573,1.5938,-8.0625
11:56:58.583,1.7813,-7.6875
11:56:58.593,1.9688,-9.375
11:56:58.604,2.6563,-7.5
11:56:58.612,3.125,-5.3125
11:56:58.623,4.875,-2.5625
11:56:58.632,5.4688,0.4375
11:56:58.642,6.625,2.625
11:56:58.660,6.4375,6.6875
11:56:58.664,8,7.1875
11:56:58.672,8.0625,8.5
11:56:58.683,7.9375,9.875
11:56:58.702,8.0313,8.3125
11:56:58.739,7.2813,8.125
11:56:58.743,7.375,9.3125
11:56:58.747,7.875,7.3125
11:56:58.750,7,6.625
11:56:58.751,6.9688,7.375
11:56:58.755,7.0313,5.625
11:56:58.786,7.3125,6.25
11:56:58.789,7.25,5.875
11:56:58.791,7,6.375
11:56:58.795,7.75,6.8125
11:56:58.831,6.7188,5.4375
11:56:58.834,6.3125,5.625
11:56:58.836,6.25,6.8125
11:56:58.839,5.9688,4.8125
11:56:58.843,5.5313,4.6875
11:56:58.876,5.6563,4.5625
11:56:58.878,5.4063,3.5625
11:56:58.880,6.4375,3.6875
11:56:58.882,6.375,3.75
11:56:58.893,6.9375,4.375
11:56:58.904,7.625,4.125
11:56:58.913,7.25,4.0625
11:56:58.923,6.7813,3.4375
11:56:58.935,6.5313,3.3125
11:56:58.943,6.625,3.9375
11:56:58.953,6.5938,2.75
11:56:58.969,5.6875,2.875
11:56:58.985,5.6875,2.875
11:56:58.987,5.7188,1.375
11:56:58.993,4.875,0.375
11:56:59.004,4.5,-0.1875
11:56:59.012,4.4063,-0.25
11:56:59.022,3.5938,-1.375
11:56:59.038,3.75,0.1875
11:56:59.043,3.5625,-1.5
11:56:59.071,3.8438,-2.1875
11:56:59.073,3.4688,-1.0625
11:56:59.076,3.9063,-1.875
11:56:59.084,3.2188,-2.125
11:56:59.093,3.7813,-2.8125
11:56:59.104,3.0625,-3.625
11:56:59.112,2.0625,-4.9375
11:56:59.123,1.7813,-3.8125
11:56:59.132,0.8438,-4.75
11:56:59.142,1.4375,-6.3125
11:56:59.154,-0.1875,-7.1875
11:56:59.164,-0.7813,-7.5625
11:56:59.172,-1.5313,-7.3125
11:56:59.183,-0.9688,-8.875
11:56:59.192,-1.9375,-9.375
11:56:59.204,-1.3125,-8.8125
11:56:59.217,-1.125,-8.8125
11:56:59.223,-1.625,-9
11:56:59.234,-1.1563,-9
11:56:59.243,-1.5,-9.0625
11:56:59.254,-0.9688,-8.5625
11:56:59.265,-1.0938,-9.125
11:56:59.274,-1.5,-9.75
11:56:59.283,-1.25,-9.0625
11:56:59.292,-0.6875,-10.0625
11:56:59.303,-1.2813,-10.8125
11:56:59.313,-1.9688,-9.5625
11:56:59.325,-2.75,-10.6875
11:56:59.333,-1.5313,-11.375
11:56:59.344,-2.4063,-11.1875
11:56:59.352,-1.25,-10.6875
11:56:59.364,-0.625,-9.5625
11:56:59.372,0.5,-6.3125
11:56:59.383,2.125,-1.5625
11:56:59.394,2.5938,-0.3125
11:56:59.403,3.6875,2.75
11:56:59.413,4.0938,3.625
11:56:59.425,5.2188,6.625
11:56:59.432,4.75,6.0625
11:56:59.450,4.7188,6.3125
11:56:59.453,4.4688,4.75
11:56:59.497,3.9063,4.9375
11:56:59.498,3.1563,3.5
11:56:59.500,2.6875,2.25
11:56:59.502,2.2188,1.8125
11:56:59.509,2.5313,2
11:56:59.514,1.6875,1.1875
11:56:59.542,1.25,1.1875
11:56:59.545,1.25,0.625
11:56:59.546,1.125,1
11:56:59.554,1.5,1.0625
11:56:59.578,0.625,0.25
11:56:59.580,0.5938,0.25
11:56:59.584,0.6875,0.625
11:56:59.623,0.125,-1.4375
11:56:59.629,0.375,-2.8125
11:56:59.631,-0.0938,-1.25
11:56:59.633,0.5,-2.125
11:56:59.635,0.125,-3
11:56:59.644,0.0938,-2
11:56:59.653,0.1875,-3
11:56:59.664,-0.1563,-2.75
11:56:59.673,-0.2188,-3.4375
11:56:59.683,0.4688,-1.625
11:56:59.694,-0.125,-2.8125
11:56:59.704,0.25,-2.5625
11:56:59.712,-0.0313,-2.0625
11:56:59.724,0.9063,-2.75
11:56:59.734,0.625,-2.5625
11:56:59.742,0.2188,-2.875
11:56:59.752,1.1563,-3.6875
11:56:59.763,0.125,-3.75
11:56:59.774,0.2813,-3
11:56:59.786,0.75,-3.875
11:56:59.796,0.7188,-4.875
11:56:59.804,1.3125,-2.9375
11:56:59.815,1.7813,-3.875
11:56:59.823,2.375,-3.4375
11:56:59.832,2.2813,-3.625
11:56:59.843,2.7188,-3.3125
11:56:59.854,2.4063,-3.875
11:56:59.864,2.6563,-3.3125
11:56:59.873,2.5625,-4.1875
11:56:59.886,2.1563,-3.625
11:56:59.892,2.6875,-4.5
11:56:59.903,1.625,-5.125
11:56:59.913,1.8125,-4.8125
11:56:59.922,1.1563,-5.5
11:56:59.934,1.4063,-4.8125
11:56:59.943,1.1875,-6.1875
11:56:59.954,1.1563,-6.75
11:56:59.962,0.7188,-5.5
11:56:59.973,0.4375,-6.875
11:56:59.982,1.5625,-5.6875
11:56:59.997,0.5313,-7
11:57:00.012,1.4688,-7.1875
11:57:00.015,0.5625,-7.1875
11:57:00.022,0.9375,-6.5
11:57:00.033,0.5313,-7.5
11:57:00.044,0.5625,-7.625
11:57:00.052,-0.0938,-8.9375
11:57:00.064,-0.875,-8.8125
11:57:00.072,-0.125,-9
11:57:00.083,-0.2813,-8.6875
11:57:00.094,0.125,-7.4375
11:57:00.104,0.8438,-5.5
11:57:00.112,2.3438,-2
11:57:00.123,3.2813,0.875
11:57:00.133,4.0313,5
11:57:00.142,4.7813,5.75
11:57:00.154,5,6.25
11:57:00.165,4.625,7.8125
11:57:00.174,4.9063,9.125
11:57:00.182,6.0938,7.75
11:57:00.194,4.5,7.1875
11:57:00.203,5.375,7.4375
11:57:00.212,4.5313,6.125
11:57:00.293,4.375,6.9375
11:57:00.294,3.8438,5.125
11:57:00.298,4.125,6.1875
11:57:00.298,3.8125,4.4375
11:57:00.304,3.8438,6.0625
11:57:00.304,4.0938,5.8125
11:57:00.304,4.375,5.25
11:57:00.308,4.2813,7.0625
11:57:00.353,5.125,6.0625
11:57:00.354,4.125,5
11:57:00.357,4.1875,4.75
11:57:00.360,3.9688,4.125
11:57:00.366,3.3438,2.75
11:57:00.368,2.8438,2.0625
11:57:00.396,2.9375,3.6875
11:57:00.398,3.5,3
11:57:00.401,3.0938,2.4375
11:57:00.409,2.9688,1.8125
11:57:00.418,3.25,2.0625
11:57:00.427,2.375,3.1875
11:57:00.438,3.0625,3.3125
11:57:00.449,3.375,2.4375
11:57:00.458,3.4375,0.875
11:57:00.469,3.8438,2.3125
11:57:00.478,4,1.875
11:57:00.488,3.9375,2.75
11:57:00.498,4.2813,2.5
11:57:00.508,4.5313,1.5625
11:57:00.517,4.5938,0.625
11:57:00.529,4.875,1.8125
11:57:00.538,5.5,1.9375
11:57:00.549,5.7188,1.1875
11:57:00.561,5.3438,1.3125
11:57:00.568,5.8438,3.1875
11:57:00.580,6.25,2.125
11:57:00.588,6,1.6875
11:57:00.597,6.375,1.75
11:57:00.607,5.9375,2.6875
11:57:00.617,6.2813,1.5625
11:57:00.629,6.75,1
11:57:00.638,5.875,0.3125
11:57:00.647,5.4063,0.0625
11:57:00.657,4.9063,-0.25
11:57:00.669,5.25,-0.875
11:57:00.678,4.4375,-1.5
11:57:00.689,3.9063,-0.4375
11:57:00.698,4.5313,-1.6875
11:57:00.710,4.2188,-2.5625
11:57:00.718,4,-1.5
11:57:00.727,3.7813,-0.75
11:57:00.739,4.75,-1.375
11:57:00.749,4.5,-2.1875
11:57:00.758,3.5938,-2.4375
11:57:00.768,4.5938,-2.1875
11:57:00.777,4.0313,-3.5625
11:57:00.790,3.2188,-2.125
11:57:00.799,3.5313,-3.6875
11:57:00.807,3,-4.25
11:57:00.818,2.625,-4.0625
11:57:00.830,3.125,-3.625
11:57:00.837,3.3438,-4.125
11:57:00.849,4.0938,-0.75
11:57:00.857,5.25,2
11:57:00.868,6.8125,4.3125
11:57:00.877,8.5938,9.5625
11:57:00.887,9.375,10.375
11:57:00.897,9.7813,12.25
11:57:00.907,9.6563,12.875
11:57:00.921,9.6875,13.1251
11:57:00.927,9.4375,13.1876
11:57:00.938,9.8438,12.0625
11:57:00.948,9.1563,13.1876
11:57:00.959,8.7813,11.1875
11:57:00.967,8.6875,10.375
11:57:01.001,8.9063,11.9375
11:57:01.004,8.5938,10.75
11:57:01.007,8.4375,10.1875
11:57:01.009,7.8125,11.5
11:57:01.037,8.6875,10.875
11:57:01.039,8.3125,11.0625
11:57:01.041,8.375,11.3125
11:57:01.072,8.5,11.1875
11:57:01.075,7.625,10.25
11:57:01.078,7.4375,8.9375
11:57:01.082,7.1875,9.25
11:57:01.118,7.2188,8.125
11:57:01.121,6.9063,6.8125
11:57:01.122,6.4375,7.5
11:57:01.156,7.0313,6.0625
11:57:01.156,6.875,6.9375
11:57:01.159,6.5625,6.0625
11:57:01.163,5.9375,6.75
11:57:01.167,5.7813,5.0625
11:57:01.171,5.9375,4.8125
11:57:01.180,5.7188,5.9375
11:57:01.189,5.4688,5.5
11:57:01.197,5.7188,4.625
11:57:01.209,5.25,3.8125
11:57:01.221,5.25,4.125
11:57:01.228,5.3125,3.5
11:57:01.239,4.6875,2.3125
11:57:01.249,4.4063,3.4375
11:57:01.257,4.375,1.5
11:57:01.269,4.9063,1.6875
11:57:01.279,4.4375,0.8125
11:57:01.294,4.9063,0.125
11:57:01.311,4.375,0.8125
11:57:01.316,4.3438,0.375
11:57:01.319,5.4688,0.75
11:57:01.328,4.5313,-0.25
11:57:01.337,4.7813,0.9375
11:57:01.347,4.5,0.25
11:57:01.359,4.8438,0
11:57:01.369,4.625,-1.75
11:57:01.377,4.625,-0.5
11:57:01.389,4.6563,-1.125
11:57:01.398,4.6563,-1.125
11:57:01.411,3.9063,-0.6875
11:57:01.419,4.5313,-2.625
11:57:01.427,3.875,-3.125
11:57:01.438,4.0625,-2.4375
11:57:01.454,4.5,-3.25
11:57:01.464,3.9063,-3.6875
11:57:01.474,3.875,-4.125
11:57:01.484,3.875,-3.4375
11:57:01.493,4.4375,-2.875
11:57:01.503,4.5,-3.875
11:57:01.514,4.375,-3.8125
11:57:01.522,4.1563,-3.375
11:57:01.533,3.9688,-3.375
11:57:01.544,4.3438,-4
11:57:01.561,3.2813,-5.6875
11:57:01.566,2.25,-6.625
11:57:01.578,2.5,-6.9375
11:57:01.584,2.7188,-5.875
11:57:01.593,1.8438,-7.3125
11:57:01.603,1.8125,-7.3125
11:57:01.633,2.5938,-4.75
11:57:01.636,3.6875,-3.0625
11:57:01.637,4.9375,-0.9375
11:57:01.644,5.9688,2.9375
11:57:01.670,7.5625,4.8125
11:57:01.673,7.375,7.5
11:57:01.675,7.8438,9.6875
11:57:01.702,9.2188,9.8125
11:57:01.704,8.7188,9.9375
11:57:01.706,9.0625,11.25
11:57:01.713,9.375,9.625
11:57:01.745,9.375,11.0625
11:57:01.748,9.7188,10.75
11:57:01.749,9.5625,9.875
11:57:01.754,9.2188,8.875
11:57:01.762,9.25,9.875
11:57:01.799,9.1563,9.625
11:57:01.803,9.5938,9.25
11:57:01.806,9,10.0625
11:57:01.814,9.6563,10.5625
11:57:01.814,9.5938,9.8125
11:57:01.827,9.3125,9.4375
11:57:01.832,8.6563,8.75
11:57:01.842,7.7813,8.1875
11:57:01.856,8.1875,6.6875
11:57:01.862,7.3438,5.75
11:57:01.874,6.4688,6.6875
11:57:01.884,7.2188,5.4375
11:57:01.893,6.6875,4
11:57:01.902,6.8125,4.1875
11:57:01.913,6.375,5.125
11:57:01.927,7.5313,5.125
11:57:01.933,7,4.6875
11:57:01.942,6.5,5
11:57:01.954,7.375,5.125
11:57:01.963,6.9375,4.4375
11:57:01.973,7.1563,3.5
11:57:01.984,7.7188,5.5
11:57:01.992,7.125,4.3125
11:57:02.003,6.625,3.6875
11:57:02.013,5.9375,3.3125
11:57:02.024,6.25,2.75
11:57:02.034,5.9063,2
11:57:02.043,6.5,2.375
11:57:02.053,6,1.5
11:57:02.065,5.6875,0.375
11:57:02.072,5.5,1.9375
11:57:02.083,5.6875,1.125
11:57:02.094,5.3125,-0.375
11:57:02.102,5.9375,-0.625
11:57:02.112,5.5,-0.3125
11:57:02.124,4.9688,-0.125
11:57:02.132,5.9688,-0.625
11:57:02.142,5.6875,-1.1875
11:57:02.152,4.875,-1.8125
11:57:02.165,4.9688,-1.0625
11:57:02.173,4.9375,-1.875
11:57:02.187,4.8438,-2.1875
11:57:02.194,4.375,-2.3125
11:57:02.202,5.0625,-3
11:57:02.214,4.3125,-3.4375
11:57:02.222,3.9688,-2.25
11:57:02.235,5,-3.25
11:57:02.243,4.1875,-3.875
11:57:02.252,4.5938,-2.375
11:57:02.263,4.3125,-3.125
11:57:02.275,4.2813,-3.5625
11:57:02.282,4.25,-3.6875
11:57:02.293,3.5938,-4.75
11:57:02.304,3.6875,-4.875
11:57:02.312,3.4375,-4.75
11:57:02.323,3.2813,-5.125
11:57:02.332,3.7188,-5.375
11:57:02.342,2.8125,-6.1875
11:57:02.354,3.125,-4.4375
11:57:02.362,4.1875,-4
11:57:02.372,5.1875,-0.375
11:57:02.384,7.0625,2.0625
11:57:02.422,7.4375,3.75
11:57:02.422,8.375,7.375
11:57:02.426,9.0625,9
11:57:02.427,8.7188,9.5625
11:57:02.434,8.3438,10.875
11:57:02.468,8.7188,9.3125
11:57:02.470,7.9063,8.5625
11:57:02.473,8.125,8.5
11:57:02.498,7.8438,8.0625
11:57:02.499,8.1563,8.25
11:57:02.501,8,7.5625
11:57:02.506,7.7813,7.5
11:57:02.538,7.25,7.6875
11:57:02.541,7.875,7.1875
11:57:02.543,8.125,8.5625
11:57:02.569,7.9375,7.6875
11:57:02.570,8.125,7.625
11:57:02.573,8.125,7.6875
11:57:02.589,8.0938,8.25
11:57:02.591,8.6563,7.1875
11:57:02.606,7.2813,5.0625
11:57:02.622,6.9375,4.1875
11:57:02.624,6.7188,4.8125
11:57:02.638,7.2813,4.625
11:57:02.642,7.9375,4.5
11:57:02.643,7.5,4.4375
11:57:02.653,7.5313,5.1875
11:57:02.663,7.625,5
11:57:02.673,7.5938,4.125
11:57:02.682,7.5313,3.5
11:57:02.694,6.9375,3
11:57:02.702,6.6563,3.5
11:57:02.714,6.6563,4.0625
11:57:02.724,6.75,3.6875
11:57:02.733,7.5938,3.9375
11:57:02.743,6.9063,2.625
11:57:02.752,7.125,2.5
11:57:02.763,6.75,2.125
11:57:02.773,5.7188,2.875
11:57:02.783,6.5625,2.3125
11:57:02.794,6.1563,1.375
11:57:02.804,6.0938,0.875
11:57:02.812,5.5,0.25
11:57:02.822,5.1875,1.25
11:57:02.833,5.9375,1.0625
11:57:02.842,4.625,0.25
11:57:02.859,4.625,0.3125
11:57:02.866,4.2188,-1.6875
11:57:02.873,4.0938,-1.8125
11:57:02.913,3.4063,-1.6875
11:57:02.926,3.875,-2.75
11:57:02.928,2.875,-3.0625
11:57:02.932,3.5,-2.6875
11:57:02.934,3.1563,-3.125
11:57:02.935,2.7188,-1.9375
11:57:02.942,3.125,-3.6875
11:57:02.953,2.8125,-3.4375
11:57:02.965,3,-3.4375
11:57:02.973,3.9375,-3.375
11:57:02.983,3.4688,-3.625
11:57:02.993,3.0938,-2.5625
11:57:03.002,3.9375,-3.3125
11:57:03.013,3.9688,-4.4375
11:57:03.024,3.6563,-3.5
11:57:03.032,3.9688,-3.9375
11:57:03.043,2.7813,-3.9375
11:57:03.053,2.7188,-3.375
11:57:03.062,2.3125,-5.375
11:57:03.073,1.5625,-6.625
11:57:03.084,1.375,-6.4375
11:57:03.092,1.2188,-5.625
11:57:03.102,2.25,-4.5
11:57:03.112,2.3438,-1.875
11:57:03.122,3.9063,2.25
11:57:03.135,4.4688,3.6875
11:57:03.152,4.5625,7.1875
11:57:03.155,6.0625,8.5
11:57:03.183,5.7813,8.25
11:57:03.187,5.9375,8.25
11:57:03.189,5.75,9.625
11:57:03.195,6.0938,8.8125
11:57:03.224,5.875,8.6875
11:57:03.227,6.0938,7.8125
11:57:03.230,5.6563,7.25
11:57:03.233,5.5313,8.5
11:57:03.270,5.6875,8.125
11:57:03.273,5.5625,7.375
11:57:03.275,5.5938,7.8125
11:57:03.307,6.375,8.5
11:57:03.308,6.1875,8.125
11:57:03.310,5.5,8.5625
11:57:03.315,5.7813,8.375
11:57:03.316,6.125,8.125
11:57:03.322,4.8438,6.8125
11:57:03.338,4.5938,5.0625
11:57:03.343,4.2188,5.375
11:57:03.352,4.3125,4.875
11:57:03.362,4.0938,3.8125
11:57:03.372,4.1563,3.125
11:57:03.386,4.1563,4.25
11:57:03.392,4.625,2.625
11:57:03.403,4.1875,2.8125
11:57:03.412,3.1875,3.9375
11:57:03.422,3.7813,3.625
11:57:03.432,4.0625,3.3125
11:57:03.446,3.625,2.6875
11:57:03.453,3.4063,3.0625
11:57:03.463,3.0625,3
11:57:03.474,4.1875,2.8125
11:57:03.483,3.1875,1.3125
11:57:03.494,3,0.5
11:57:03.503,3.625,1.625
11:57:03.512,3.5313,1.1875
11:57:03.523,3.0938,0.5
11:57:03.532,3.6563,0.8125
11:57:03.542,4.2813,1.0625
11:57:03.553,4.4375,0.125
11:57:03.564,3.5313,0.125
11:57:03.572,3.5938,-0.9375
11:57:03.584,3.125,-1.625
11:57:03.594,2.4375,-2.3125
11:57:03.602,2.3125,-1.25
11:57:03.614,2.75,-2.3125
11:57:03.622,2.0938,-3
11:57:03.632,1.5938,-2.9375
11:57:03.643,1.8125,-2.5625
11:57:03.656,2.625,-2.9375
11:57:03.663,1.9063,-4.0625
11:57:03.673,1.875,-2.75
11:57:03.682,1.9375,-2.75
11:57:03.692,2.6563,-3.9375
11:57:03.704,1.75,-4.75
11:57:03.722,1.5625,-3.9375
11:57:03.722,1.7813,-3.5625
11:57:03.732,1.6875,-4.6875
11:57:03.743,1.0625,-5
11:57:03.752,1.4375,-4.6875
11:57:03.763,1.25,-6.0625
11:57:03.774,0.9375,-5.0625
11:57:03.782,1,-6.625
11:57:03.796,0.1875,-6.3125
11:57:03.803,0.375,-7.125
11:57:03.813,0.125,-8
11:57:03.822,0.4688,-6.375
11:57:03.832,0.9688,-6.875
11:57:03.843,1.125,-4.8125
11:57:03.854,3.4063,-1.875
11:57:03.862,3.8438,0.625
11:57:03.874,4.6563,5.25
11:57:03.890,5.8125,6.9375
11:57:03.892,6.125,7.0625
11:57:03.998,6.1563,9.25
11:57:04.001,5.8125,8.25
11:57:04.001,5.6875,8.5625
11:57:04.001,5.0625,8.0625
11:57:04.001,5.1563,7
11:57:04.009,4.75,6.8125
11:57:04.009,4.7188,5.6875
11:57:04.009,4.3438,4.375
11:57:04.015,4.7813,5.8125
11:57:04.040,4.0938,4.875
11:57:04.041,4.2188,5.0625
11:57:04.044,4.25,5.625
11:57:04.052,4.4375,5.25
11:57:04.062,4.1875,5.8125
11:57:04.073,3.875,5.5625
11:57:04.082,4.6563,4.8125
11:57:04.095,3.1563,3.375
11:57:04.104,3.1875,2.5
11:57:04.112,3.2813,2.5
11:57:04.124,3.1875,2.75
11:57:04.132,3.5938,2.5
11:57:04.143,3.4688,2.3125
11:57:04.155,2.8125,2.125
11:57:04.164,2.8438,1.0625
11:57:04.192,2.7813,0.5625
11:57:04.194,3.2188,-0.25
11:57:04.209,2.3438,0.5
11:57:04.224,2.75,0.6875
11:57:04.227,3.2188,-0.25
11:57:04.241,3.3438,-0.0625
11:57:04.243,2.7813,-0.8125
11:57:04.257,2.5313,-0.6875
11:57:04.262,2.8125,-1
11:57:04.265,2.4063,-1.3125
11:57:04.274,2.3438,-1.9375
11:57:04.282,2.7813,-1.375
11:57:04.294,2.8438,-1.9375
11:57:04.302,3.0625,-2.5
11:57:04.313,3.0313,-2.0625
11:57:04.326,2.6563,-1.5625
11:57:04.334,3.25,-2.5625
11:57:04.342,2.6563,-3.75
11:57:04.356,2.5,-3.1875
11:57:04.362,2.6563,-3.375
11:57:04.373,2.9063,-3.125
11:57:04.382,3.2188,-3.125
11:57:04.393,2.9063,-4.0625
11:57:04.404,2.7188,-2.625
11:57:04.412,3.6563,-3.4375
11:57:04.422,2.7813,-3.75
11:57:04.434,3.3438,-3.6875
11:57:04.442,3,-5.0625
11:57:04.454,3.5625,-3.9375
11:57:04.462,3.5625,-4
11:57:04.474,3.2813,-4.25
11:57:04.484,3.5313,-4.6875
11:57:04.492,3.3438,-5.6875
11:57:04.504,3.2188,-4.0625
11:57:04.513,3,-5.625
11:57:04.523,2.25,-6.9375
11:57:04.533,1.6875,-6.5
11:57:04.549,2.0625,-7.5625
11:57:04.552,1.5625,-7
11:57:04.584,1.5,-6.8125
11:57:04.587,2.625,-5.4375
11:57:04.588,3.8438,-2.5
11:57:04.595,5.3125,-0.625
11:57:04.622,5.375,1.625
11:57:04.625,6.2188,5.5625
11:57:04.628,7.0938,6.1875
11:57:04.633,6.2188,7.5
11:57:04.668,6.375,7.6875
11:57:04.670,6.0313,7.125
11:57:04.672,5.9063,7.0625
11:57:04.675,5.375,6.0625
11:57:04.682,5.1563,5.3125
11:57:04.717,4.8125,4.6875
11:57:04.718,4.75,3.625
11:57:04.721,4.875,4.3125
11:57:04.727,4.4375,3.75
11:57:04.733,4.7813,5.0625
11:57:04.743,5.375,4.375
11:57:04.752,6.3125,4.875
11:57:04.763,6.125,5.5625
11:57:04.775,6.0313,5.8125
11:57:04.783,6.0938,5
11:57:04.793,5.6563,4.5
11:57:04.802,6.25,3.6875
11:57:04.812,5,3.125
11:57:04.824,4.75,4
11:57:04.832,5.7188,2.5
11:57:04.845,5.4375,1.625
11:57:04.854,5.5313,2.4375
11:57:04.863,6,2.6875
11:57:04.872,5.1875,1.9375
11:57:04.885,5.0938,3.5625
11:57:04.894,5.5938,1.3125
11:57:04.902,5.0313,0.875
11:57:04.913,5.1875,2.25
11:57:04.922,4.8438,1.0625
11:57:04.932,4.9063,1.1875
11:57:04.943,4.75,1.6875
11:57:04.952,5,0.9375
11:57:04.963,4.9063,-0.5625
11:57:04.972,4.6875,0
11:57:04.983,5.75,0.0625
11:57:04.993,5,-1
11:57:05.004,4.3438,0.125
11:57:05.013,4.9063,-0.625
11:57:05.024,4.75,-1.3125
11:57:05.033,4.9688,-1.25
11:57:05.043,4.3125,-1.4375
11:57:05.052,4.4688,-1.6875
11:57:05.062,4.75,-2.25
11:57:05.072,4.3125,-1.875
11:57:05.082,4.6563,-2.125
11:57:05.094,3.7813,-3.3125
11:57:05.104,3.5313,-2.125
11:57:05.113,3.625,-3.8125
11:57:05.126,2.9375,-4.9375
11:57:05.132,3.2188,-3.1875
11:57:05.142,3.6875,-4.375
11:57:05.154,2.4063,-4.9375
11:57:05.162,2.4063,-3.9375
11:57:05.174,3.25,-5.25
11:57:05.183,2.875,-3.8125
11:57:05.195,2.8125,-5.0625
11:57:05.205,2.5625,-5.125
11:57:05.213,2.6563,-5.5
11:57:05.228,2.5938,-6.6875
11:57:05.233,2.625,-5.5
11:57:05.242,2.4375,-6.375
11:57:05.259,1.75,-6.375
11:57:05.269,1.6875,-6.5625
11:57:05.275,2.0625,-7.125
11:57:05.284,2.375,-4.5625
11:57:05.305,3.9063,-4.3125
11:57:05.307,4.2813,0.1875
11:57:05.338,5.2188,1.8125
11:57:05.340,6,3.4375
11:57:05.342,6.5313,6.625
11:57:05.345,7,6.9375
11:57:05.373,6.3125,7.8125
11:57:05.377,6.4688,7.4375
11:57:05.378,6.875,7
11:57:05.384,5.5938,7.0625
11:57:05.412,5.2813,5.5
11:57:05.416,5.4375,5.0625
11:57:05.417,5.0938,5.0625
11:57:05.424,5.6875,5.5625
11:57:05.463,5.4688,4.875
11:57:05.465,5.4063,5.75
11:57:05.469,5.7188,5.4375
11:57:05.482,5.75,5.875
11:57:05.482,5.4063,5.375
11:57:05.489,5.7813,5.8125
11:57:05.497,5.3125,5.125
11:57:05.507,5.0625,5.875
11:57:05.524,4.9375,4.5625
11:57:05.540,4.375,3.625
11:57:05.544,4.0625,4.4375
11:57:05.557,3.8438,3.1875
11:57:05.559,2.9063,1.6875
11:57:05.573,1.1875,0.75
11:57:05.578,0.8438,-0.125
11:57:05.588,2.0313,0.5625
11:57:05.604,1.2813,0.3125
11:57:05.610,1.75,2.375
11:57:05.618,1.9063,3
11:57:05.627,2.7813,4.0625
11:57:05.641,2.5313,4.0625
11:57:05.647,1.3438,5.75
11:57:05.658,1.0313,5.25
11:57:05.669,-1.0938,4.5
11:57:05.677,-2.2813,5
11:57:05.689,-2.9688,5.125
11:57:05.698,-4.0313,5.1875
11:57:05.708,-5.25,5.625
11:57:05.720,-4.75,8.3125
11:57:05.728,-3.4688,10.1875
11:57:05.738,-2.7813,11.125
11:57:05.747,-2.1563,11.6875
11:57:05.757,-2.0313,14.0626
11:57:05.769,-1.0625,13.8126
11:57:05.777,-0.875,12.75
11:57:05.789,-1.25,12.8125
11:57:05.798,-0.8438,13.1876
11:57:05.808,-1.2188,12.375
11:57:05.819,-1.1563,12.0625
11:57:05.827,-1.2813,12.3125
11:57:05.837,-0.4063,11.25
11:57:05.849,-1,11.1875
11:57:05.858,-0.125,11.4375
11:57:05.867,-0.4688,10.25
11:57:05.877,-0.5625,10.3125
11:57:05.887,0.4375,10.8125
11:57:05.897,0.5,10.3125
11:57:05.909,1.9063,10.625
11:57:05.918,1.9375,10.6875
11:57:05.928,2.9063,9.625
11:57:05.937,2.3125,10.375
11:57:05.947,2.0938,9.6875
11:57:05.961,2.875,8.8125
11:57:05.968,3.6875,8.25
11:57:05.978,4.625,8.6875
11:57:05.987,5.4063,7.5
11:57:05.997,6.25,7
11:57:06.007,5.0313,2.25
11:57:06.018,-1.2188,-8.3125
11:57:06.028,-9.9063,-25.4376
11:57:06.039,-21.3751,-45.2502
11:57:06.051,-33.6251,-69.2503
11:57:06.090,-51.5627,-97.3754
11:57:06.095,-65.094,-118.563
11:57:06.097,-66.719,-124.188
11:57:06.097,-58.094,-113.5629
11:57:06.101,-47.7814,-99.7504
11:57:06.138,-38.7189,-88.3753
11:57:06.140,-33.8751,-82.0628
11:57:06.142,-32.2501,-81.1878
11:57:06.147,-32.3126,-83.0003
11:57:06.148,-32.4689,-85.3753
11:57:06.179,-30.8126,-84.1878
11:57:06.182,-28.9064,-81.3753
11:57:06.185,-25.0938,-77.5003
11:57:06.187,-23.5001,-71.7503
11:57:06.223,-21.7813,-69.4378
11:57:06.226,-20.5626,-64.8127
11:57:06.229,-19.8438,-59.8752
11:57:06.231,-19.3126,-55.1252
11:57:06.237,-18.3438,-49.1252
11:57:06.248,-16.9376,-40.2502
11:57:06.257,-14.5001,-29.0626
11:57:06.267,-10.7188,-19.1251
11:57:06.277,-4.6563,-6.125
11:57:06.287,1.8125,9.1875
11:57:06.300,7.8125,19.9376
11:57:06.308,12.5313,28.9376
11:57:06.317,14.9688,36.5626
11:57:06.328,17.4063,39.6877
11:57:06.343,17.6563,45.6252
11:57:06.359,19.4688,48.3127
11:57:06.365,20.6876,52.8752
11:57:06.372,22.4376,56.0627
11:57:06.384,24.4376,58.3752
11:57:06.393,24.5313,60.5002
11:57:06.402,25.2813,61.0627
11:57:06.412,26.6564,63.2502
11:57:06.422,26.6564,65.4377
11:57:06.433,26.8751,63.1252
11:57:06.444,26.9376,61.6877
11:57:06.453,24.1563,57.1252
11:57:06.466,23.3438,51.4377
11:57:06.474,21.7188,46.9377
11:57:06.482,22.0313,42.8127
11:57:06.493,22.9376,40.5627
11:57:06.502,28.6251,41.1877
11:57:06.512,32.6564,42.0002
11:57:06.522,34.7814,37.6876
11:57:06.533,29.9689,27.5001
11:57:06.542,21.0626,11.25
11:57:06.553,12.8438,-7.5
11:57:06.562,7.0625,-21.1876
11:57:06.572,3.875,-30.3126
11:57:06.588,1.5313,-36.6876
11:57:06.594,-0.9375,-39.3752
11:57:06.604,-2.7813,-41.2502
11:57:06.613,-4.8438,-44.5627
11:57:06.627,-7.2813,-46.8752
11:57:06.636,-8.7813,-45.3127
11:57:06.642,-7.875,-43.6877
11:57:06.652,-6.9063,-38.9376
11:57:06.664,-5.5938,-32.9376
11:57:06.672,-3.9063,-25.9376
11:57:06.682,-3.0625,-22.1251
11:57:06.692,-2.6875,-17.1876
11:57:06.704,-0.75,-11.625
11:57:06.712,0.0938,-7.5
11:57:06.722,-1.1875,-4.625
11:57:06.756,-1.0313,-1.75
11:57:06.758,-0.7188,3.875
11:57:06.762,0.75,7.625
11:57:06.763,2.8125,12.75
11:57:06.793,3.5625,16.0626
11:57:06.795,4.5938,20.5001
11:57:06.798,5.25,23.5001
11:57:06.828,6.125,26.8751
11:57:06.828,7.7188,32.4376
11:57:06.899,9,38.5001
11:57:06.929,11.0938,40.3127
11:57:06.932,12.5938,42.7502
11:57:06.932,13.125,45.0627
11:57:06.933,13.9063,44.1252
11:57:06.935,13.5313,43.9377
11:57:06.944,11.5,41.0002
11:57:06.944,9.7813,37.9376
11:57:06.944,8.375,36.5001
11:57:06.948,9.1875,35.2501
11:57:06.961,13,35.6876
11:57:06.968,19.0938,40.3127
11:57:06.978,26.8439,44.0002
11:57:06.987,35.5626,49.4377
11:57:06.997,40.0002,51.0627
11:57:07.008,39.6877,47.5002
11:57:07.017,34.2814,37.4376
11:57:07.028,28.2189,25.7501
11:57:07.038,21.1563,12.5
11:57:07.047,15.2501,-0.375
11:57:07.058,4.7188,-16.9376
11:57:07.069,-1.9375,-23.0626
11:57:07.077,-5.4375,-28.8751
11:57:07.088,-7.2813,-32.0626
11:57:07.099,-10.0938,-34.4376
11:57:07.115,-16.3751,-38.4376
11:57:07.117,-15.1251,-34.5001
11:57:07.128,-14.8751,-30.0626
11:57:07.138,-11.7188,-24.6876
11:57:07.147,-10.0938,-18.7501
11:57:07.160,-6.2813,-12.125
11:57:07.167,-4.8125,-6.125
11:57:07.177,-3.4688,-1.4375
11:57:07.188,-3.5313,2.0625
11:57:07.197,-2.4688,6.125
11:57:07.208,-2.1563,10
11:57:07.218,-1.0625,13.1876
11:57:07.229,-0.9375,17.1876
11:57:07.237,-0.6563,18.4376
11:57:07.248,-0.3125,21.3751
11:57:07.257,0.875,26.0626
11:57:07.268,2.4688,28.2501
11:57:07.278,4,30.1251
11:57:07.287,4.0938,32.0001
11:57:07.297,5.0938,32.8751
11:57:07.308,4.8125,32.4376
11:57:07.317,4.0625,31.8126
11:57:07.329,2.8438,27.5626
11:57:07.338,0.9063,23.1876
11:57:07.349,0.3438,18.8751
11:57:07.359,1.7188,18.4376
11:57:07.368,7.3125,21.1251
11:57:07.378,16.0626,26.8126
11:57:07.388,28.5001,35.3751
11:57:07.398,37.2814,41.0002
11:57:07.409,39.5627,43.0002
11:57:07.417,36.8439,36.6876
11:57:07.431,31.4376,28.3751
11:57:07.442,25.9688,17.8126
11:57:07.447,19.4063,6.5625
11:57:07.459,11.75,-4.125
11:57:07.468,4.5313,-17.1251
11:57:07.477,-4.25,-28.9376
11:57:07.489,-9.8438,-37.1251
11:57:07.497,-13.7188,-43.1252
11:57:07.509,-17.2501,-46.1877
11:57:07.517,-18.7813,-50.1877
11:57:07.551,-21.0001,-54.0002
11:57:07.553,-21.6251,-52.5002
11:57:07.557,-22.8438,-53.8127
11:57:07.560,-21.9688,-50.1252
11:57:07.595,-20.9063,-47.0002
11:57:07.597,-19.0313,-43.2502
11:57:07.600,-16.2501,-37.8751
11:57:07.602,-12.8438,-30.3126
11:57:07.608,-9.9063,-24.0626
11:57:07.622,-7.5625,-17.9376
11:57:07.628,-5.9688,-12.875
11:57:07.663,-6.2188,-9.25
11:57:07.666,-6.5625,-5.5625
11:57:07.668,-5.75,-0.6875
11:57:07.704,-4.8438,5.3125
11:57:07.704,-3.1563,10.8125
11:57:07.706,-1.9063,17.2501
11:57:07.711,-0.9375,21.8751
11:57:07.713,0.6563,27.4376
11:57:07.717,1.0938,31.0001
11:57:07.728,3.25,34.1251
11:57:07.738,5.0313,36.4376
11:57:07.747,4.7813,37.9376
11:57:07.757,5.5625,38.4376
11:57:07.767,6.4688,38.5001
11:57:07.778,6.9688,38.8126
11:57:07.788,6.5938,35.9376
11:57:07.797,5.375,33.3751
11:57:07.809,4.875,30.6876
11:57:07.817,5.9063,27.4376
11:57:07.827,9.6875,29.5001
11:57:07.839,17.0626,33.1876
11:57:07.847,25.2813,38.0001
11:57:07.861,30.7501,40.3752
11:57:07.868,32.9376,38.7501
11:57:07.878,31.3751,31.0001
11:57:07.887,25.1563,18.2501
11:57:07.897,17.3126,3.4375
11:57:07.912,8.25,-12.4375
11:57:07.921,0.5313,-26.5001
11:57:07.927,-8.8125,-40.4377
11:57:07.945,-16.7813,-54.6877
11:57:07.961,-24.5626,-68.0628
11:57:07.962,-30.9689,-77.5628
11:57:07.969,-34.5314,-86.6878
11:57:07.978,-39.3127,-92.9379
11:57:07.988,-41.6252,-97.1879
11:57:07.997,-42.8439,-96.1879
11:57:08.007,-42.9377,-94.0004
11:57:08.033,-41.8752,-90.3753
11:57:08.036,-39.5939,-83.3753
11:57:08.038,-36.2814,-75.7503
11:57:08.047,-32.8439,-66.6878
11:57:08.058,-28.9689,-57.2502
11:57:08.067,-23.5313,-46.0627
11:57:08.077,-18.3438,-35.8751
11:57:08.088,-13.6251,-25.9376
11:57:08.098,-11.0313,-16.8751
11:57:08.109,-9.4375,-11.4375
11:57:08.118,-8.6875,-6
11:57:08.127,-8.0313,-2.4375
11:57:08.137,-7.375,1
11:57:08.147,-7.0625,4.25
11:57:08.159,-6.4688,7.5
11:57:08.168,-5.5625,12.0625
11:57:08.177,-4.4375,14.2501
11:57:08.196,-2.6875,18.4376
11:57:08.198,-1.7813,19.8126
11:57:08.213,-0.3125,23.6251
11:57:08.229,0.8125,26.1251
11:57:08.231,1.75,27.2501
11:57:08.244,2.8438,28.2501
11:57:08.248,3.875,28.5001
11:57:08.259,2.6563,26.5001
11:57:08.267,1.75,20.6876
11:57:08.278,1.0313,15.3126
11:57:08.289,1.0313,11
11:57:08.326,3.4688,8.9375
11:57:08.329,7.0938,10.3125
11:57:08.330,9.6563,9.5625
11:57:08.333,9.4688,7
11:57:08.338,6.2813,-2
11:57:08.370,4.0938,-8.5
11:57:08.371,1.7813,-16.6251
11:57:08.374,-0.9375,-23.8126
11:57:08.380,-6.875,-37.5001
11:57:08.411,-14.7501,-51.1877
11:57:08.413,-22.4376,-64.8752
11:57:08.416,-28.5314,-76.4378
11:57:08.421,-35.4376,-88.3128
11:57:08.427,-41.2814,-99.3129
11:57:08.461,-47.1252,-109.0004
11:57:08.464,-50.6877,-113.6254
11:57:08.466,-50.9689,-114.1254
11:57:08.468,-51.0627,-110.8129
11:57:08.478,-50.3752,-106.7504
11:57:08.488,-49.5939,-103.6254
11:57:08.497,-49.0939,-97.3754
11:57:08.508,-47.5627,-91.3754
11:57:08.518,-44.3127,-82.7503
11:57:08.527,-41.2189,-73.6253
11:57:08.538,-35.0939,-63.0627
11:57:08.547,-29.2189,-49.2502
11:57:08.557,-21.1563,-34.6876
11:57:08.567,-15.2188,-20.3751
11:57:08.578,-11.3438,-11.8125
11:57:08.588,-8.2188,-3.3125
11:57:08.597,-6.125,3.8125
11:57:08.608,-4.8438,8.6875
11:57:08.617,-3.125,11.9375
11:57:08.628,-2.5,16.0626
11:57:08.639,-0.3125,18.4376
11:57:08.649,-0.0938,22.2501
11:57:08.658,1.0313,26.0626
11:57:08.667,1.875,28.1876
11:57:08.677,3.0938,29.9376
11:57:08.688,3.9688,32.3126
11:57:08.697,5.6563,32.4376
11:57:08.707,6.3125,32.3751
11:57:08.718,5.4688,29.2501
11:57:08.728,4.2813,20.6876
11:57:08.737,2.375,12.625
11:57:08.747,-3.4688,3.1875
11:57:08.758,-7.4375,-9.75
11:57:08.769,-10.2188,-15.5001
11:57:08.777,-8.5,-18.1876
11:57:08.788,-4.0313,-17.4376
11:57:08.798,-1.7188,-16.5626
11:57:08.808,-0.3125,-19.0626
11:57:08.817,-2.6563,-25.8126
11:57:08.827,-9.6875,-37.1876
11:57:08.839,-18.9063,-50.1252
11:57:08.848,-26.1563,-64.5627
11:57:08.858,-33.4689,-76.3128
11:57:08.867,-39.5627,-87.9378
11:57:08.877,-44.6564,-97.9379
11:57:08.887,-47.2189,-102.0004
11:57:08.897,-47.7502,-102.2504
11:57:08.908,-47.6564,-99.9379
11:57:08.918,-46.3127,-95.5629
11:57:08.927,-44.5939,-89.3128
11:57:08.937,-41.1252,-80.7503
11:57:08.948,-35.5314,-68.5003
11:57:08.964,-28.5001,-55.2502
11:57:08.968,-20.6876,-40.8752
11:57:09.002,-13.4063,-26.9376
11:57:09.005,-8.0313,-15.3126
11:57:09.007,-6.2188,-8.4375
11:57:09.010,-5.25,-2.75
11:57:09.039,-3.3438,3.0625
11:57:09.041,-3.0938,6.1875
11:57:09.044,-1.7188,9.625
11:57:09.049,-0.0938,14.6876
11:57:09.076,0.7188,19.3751
11:57:09.078,1.8125,21.5626
11:57:09.082,2.8125,24.0001
11:57:09.116,3.2813,26.1251
11:57:09.119,5.0313,28.9376
11:57:09.120,5.5625,30.6251
11:57:09.126,6.5938,30.6251
11:57:09.127,6.75,28.4376
11:57:09.142,6.9375,25.3126
11:57:09.147,5.25,20.0626
11:57:09.158,5.25,15.5001
11:57:09.168,4.0625,12.125
11:57:09.177,3.5938,7.875
11:57:09.187,2.75,4.4375
11:57:09.197,0.875,-0.625
11:57:09.207,1.8438,-1.3125
11:57:09.228,5.0938,-1.4375
11:57:09.231,7,-2.5
11:57:09.240,6.625,-7.1875
11:57:09.248,3.3125,-13.8751
11:57:09.263,-3.5,-27.4376
11:57:09.271,-12.5625,-41.7502
11:57:09.279,-22.3126,-59.5002
11:57:09.287,-32.8439,-78.0628
11:57:09.313,-44.1564,-102.2504
11:57:09.316,-54.6565,-125.3755
11:57:09.318,-64.5627,-146.7505
11:57:09.327,-72.2503,-163.1256
11:57:09.338,-78.0628,-172.5007
11:57:09.347,-86.0003,-185.3757
11:57:09.358,-91.5629,-193.6882
11:57:09.368,-97.2191,-198.2508
11:57:09.377,-100.0629,-199.1883
11:57:09.387,-100.0629,-193.5632
11:57:09.398,-95.0004,-179.7507
11:57:09.407,-87.7191,-159.6881
11:57:09.418,-75.844,-136.688
11:57:09.427,-63.6565,-112.2504
11:57:09.438,-51.6877,-89.7503
11:57:09.448,-40.7189,-67.9378
11:57:09.458,-31.2501,-49.3752
11:57:09.467,-22.0938,-31.2501
11:57:09.477,-15.2188,-14.8751
11:57:09.487,-9.3125,-3.5
11:57:09.497,-4.625,4.9375
11:57:09.517,-1.875,12.5625
11:57:09.532,1.0313,19.0001
11:57:09.547,3.5313,25.0626
11:57:09.550,5.4063,30.1876
11:57:09.565,6.8125,32.3126
11:57:09.567,8.9063,35.4376
11:57:09.573,9.375,37.9376
11:57:09.582,10.5938,38.8126
11:57:09.592,13.1251,40.4377
11:57:09.602,13.2813,42.1877
11:57:09.613,13.7813,38.3126
11:57:09.622,13.4376,33.2501
11:57:09.634,11.4375,27.3126
11:57:09.642,9.875,22.1251
11:57:09.653,8.2188,15.0626
11:57:09.663,6.5,8.8125
11:57:09.676,4.3125,1.3125
11:57:09.714,0.7188,-10.875
11:57:09.716,-13.9063,-40.0627
11:57:09.717,-27.9376,-66.1878
11:57:09.720,-42.7814,-94.1254
11:57:09.722,-57.5315,-122.563
11:57:09.755,-70.1565,-147.8131
11:57:09.760,-80.8128,-167.1881
11:57:09.760,-94.0004,-193.8132
11:57:09.763,-106.2504,-218.6258
11:57:09.793,-116.7817,-239.5009
11:57:09.796,-124.188,-257.0635
11:57:09.798,-131.1255,-268.751
11:57:09.824,-136.2193,-275.9385
11:57:09.825,-139.4068,-279.3761
11:57:09.827,-140.188,-276.0635
11:57:09.832,-138.5318,-267.376
11:57:09.844,-132.1568,-252.126
11:57:09.852,-121.7817,-227.1884
11:57:09.862,-107.8754,-198.2508
11:57:09.872,-90.6879,-164.4381
11:57:09.885,-72.6878,-127.063
11:57:09.893,-53.8127,-90.8129
11:57:09.903,-36.2814,-56.6877
11:57:09.913,-24.4063,-30.3126
11:57:09.923,-14.7188,-8.8125
11:57:09.932,-6.625,9.875
11:57:09.942,-0.5625,21.8751
11:57:09.952,2.7188,32.8751
11:57:09.962,4.75,40.8127
11:57:09.976,7.7188,46.1252
11:57:09.982,8.9688,52.0002
11:57:09.993,11.0313,53.1877
11:57:10.002,13.4063,55.4377
11:57:10.012,13.9063,54.7502
11:57:10.023,14.2501,51.3752
11:57:10.032,14.7813,47.0627
11:57:10.042,15.7188,44.4377
11:57:10.052,14.8751,41.7502
11:57:10.065,16.0626,38.8126
11:57:10.072,17.2188,37.3751
11:57:10.083,17.5001,35.6251
11:57:10.092,16.7501,29.2501
11:57:10.102,13,19.2501
11:57:10.113,5.1875,4.9375
11:57:10.122,-4.625,-13.9376
11:57:10.132,-17.8751,-38.2501
11:57:10.144,-33.2814,-65.2502
11:57:10.155,-47.9377,-92.8754
11:57:10.163,-57.4377,-115.3754
11:57:10.174,-65.469,-130.8755
11:57:10.182,-70.2815,-142.313
11:57:10.193,-73.469,-148.0631
11:57:10.203,-74.7815,-149.1256
11:57:10.212,-75.1253,-148.7506
11:57:10.222,-73.5628,-141.563
11:57:10.232,-70.1878,-133.2505
11:57:10.242,-66.3128,-121.6255
11:57:10.253,-60.6877,-109.8129
11:57:10.269,-56.344,-98.0004
11:57:10.273,-52.5627,-86.4378
11:57:10.283,-46.3439,-74.5003
11:57:10.292,-38.3751,-59.8127
11:57:10.302,-28.4376,-40.8752
11:57:10.312,-18.7813,-22.3126
11:57:10.322,-12.3125,-7.5625
11:57:10.332,-9.625,3.0625
11:57:10.342,-5.8438,10.8125
11:57:10.353,-1.4063,17.1251
11:57:10.362,0.8438,23.6876
11:57:10.375,1.6875,28.2501
11:57:10.382,2.0625,30.8751
11:57:10.392,3.25,34.8126
11:57:10.403,2.9063,36.3126
11:57:10.413,4.2813,36.1251
11:57:10.422,5.9063,36.1251
11:57:10.432,7.9688,37.1876
11:57:10.444,8.5625,34.8751
11:57:10.452,8.625,31.5001
11:57:10.466,7.8438,27.0626
11:57:10.472,3.8438,19.5001
11:57:10.506,-2.25,7.125
11:57:10.508,-9.2188,-9.9375
11:57:10.511,-15.0626,-21.9376
11:57:10.514,-18.0313,-31.8126
11:57:10.591,-19.4688,-37.8751
11:57:10.602,-20.7501,-43.1877
11:57:10.604,-22.2501,-50.2502
11:57:10.648,-24.4063,-55.3127
11:57:10.652,-26.9689,-64.3127
11:57:10.652,-32.7814,-73.6253
11:57:10.652,-38.5314,-82.4378
11:57:10.661,-43.5939,-92.3754
11:57:10.668,-49.5939,-103.8754
11:57:10.681,-54.6877,-111.4379
11:57:10.689,-55.9377,-115.3754
11:57:10.697,-56.4377,-114.1254
11:57:10.707,-54.9065,-107.9379
11:57:10.718,-54.0315,-102.7504
11:57:10.730,-53.6565,-97.7504
11:57:10.737,-52.0314,-90.6878
11:57:10.749,-49.3127,-81.6253
11:57:10.757,-44.0939,-70.5628
11:57:10.767,-36.4064,-55.1877
11:57:10.777,-26.9689,-39.4377
11:57:10.787,-19.3126,-23.5001
11:57:10.797,-13.7188,-10.25
11:57:10.808,-9.2188,0.25
11:57:10.818,14.8438,58.1252
11:57:10.832,14.7813,59.3127
11:57:10.841,15.7188,61.1252
11:57:10.848,17.7188,58.8127
11:57:10.863,18.4063,57.1252
11:57:10.880,19.4376,56.4377
11:57:10.882,22.0001,56.3127
11:57:10.889,19.7501,51.5627
11:57:10.897,20.6251,50.6252
11:57:10.908,21.2813,49.0627
11:57:10.917,22.1563,46.0627
11:57:10.928,25.5001,46.2502
11:57:10.937,27.1564,46.8752
11:57:10.948,30.3751,46.1877
11:57:10.958,32.5314,45.0627
11:57:10.970,29.6564,39.1251
11:57:10.977,23.4063,23.2501
11:57:10.989,11.625,4.5
11:57:10.998,1.9063,-12.6875
11:57:11.007,-4.9688,-27.6251
11:57:11.017,-10.0313,-36.8126
11:57:11.028,-13.4063,-43.0627
11:57:11.037,-16.9376,-46.5627
11:57:11.047,-18.5001,-48.6252
11:57:11.058,-19.1563,-49.4377
11:57:11.067,-20.1876,-46.5002
