timestamp,Red,IR
16:17:11.301,0.375,-2.6875
16:17:11.311,0.3125,-3.625
16:17:11.322,-0.1875,-4.375
16:17:11.331,-1,-6
16:17:11.341,-1.625,-6.8125
16:17:11.351,-2.5625,-8
16:17:11.361,-2.6875,-9.9375
16:17:11.371,-3.0625,-11.125
16:17:11.383,-4,-12.0625
16:17:11.391,-4.1875,-12.9375
16:17:11.401,-4.6875,-13.9376
16:17:11.411,-4.875,-14.9376
16:17:11.422,-5.9375,-14.8751
16:17:11.431,-5.9375,-15.9376
16:17:11.441,-6,-17.3126
16:17:11.451,-6.8125,-16.1251
16:17:11.462,-6.5625,-18.4376
16:17:11.472,-6.6875,-19.1876
16:17:11.481,-7.125,-18.6876
16:17:11.491,-7.625,-20.6876
16:17:11.503,-8.625,-21.6251
16:17:11.511,-8.375,-22.5626
16:17:11.522,-9.4375,-22.0626
16:17:11.550,-9.9375,-24.3751
16:17:11.554,-10.8125,-24.4376
16:17:11.556,-10.9375,-25.8751
16:17:11.560,-11.3125,-27.3126
16:17:11.571,-12.0625,-26.7501
16:17:11.581,-12.4375,-29.3126
16:17:11.591,-13.1251,-29.3751
16:17:11.601,-13.0625,-30.1251
16:17:11.612,-12.3125,-28.8126
16:17:11.621,-10.6875,-27.3751
16:17:11.631,-8.6875,-23.9376
16:17:11.643,-6,-19.2501
16:17:11.659,-2.25,-14.4376
16:17:11.665,1.8125,-8.5625
16:17:11.680,4.9375,-3.875
16:17:11.692,7.625,2.125
16:17:11.695,10.6875,7.0625
16:17:11.727,11.5,11.125
16:17:11.731,13.6251,13.8751
16:17:11.732,14.2501,15.8751
16:17:11.760,14.5001,19.0001
16:17:11.761,15.3126,18.4376
16:17:11.767,14.7501,20.5001
16:17:11.770,15.3126,20.0626
16:17:11.774,13.8126,20.7501
16:17:11.787,14.1876,19.3751
16:17:11.826,13.125,20.9376
16:17:11.827,13.7501,19.6876
16:17:11.831,12.375,18.5001
16:17:11.833,11.625,18.7501
16:17:11.839,12.4375,18.1251
16:17:11.848,10.5625,15.3751
16:17:11.853,9.75,15.0626
16:17:11.866,8.875,15.3126
16:17:11.873,8.875,13.6876
16:17:11.881,7.9375,13.0625
16:17:11.891,7.8125,12
16:17:11.901,7.75,12.5625
16:17:11.911,7.375,12.3125
16:17:11.921,8.0625,12.3125
16:17:11.931,8.0625,11.3125
16:17:11.941,7.6875,11.9375
16:17:11.951,9.1875,12.0625
16:17:11.961,8.5625,12
16:17:11.971,8.1875,12.125
16:17:11.981,7.625,11.1875
16:17:11.991,7.5,11.25
16:17:12.002,7.5625,11.625
16:17:12.012,7.875,11.375
16:17:12.021,7.3125,11.25
16:17:12.031,7.0625,10.1875
16:17:12.041,7.1875,10.875
16:17:12.053,6.875,9.6875
16:17:12.061,5.6875,7.6875
16:17:12.071,4.25,8.4375
16:17:12.081,4.125,6.1875
16:17:12.091,3.3125,4.8125
16:17:12.101,2.375,3.5
16:17:12.112,1.9375,2.5625
16:17:12.121,1.125,1.6875
16:17:12.131,1.25,-0.4375
16:17:12.141,0.125,-1.625
16:17:12.151,-1,-1
16:17:12.161,-0.8125,-3
16:17:12.172,-1.9375,-4.75
16:17:12.181,-2.4375,-5.25
16:17:12.191,-3.75,-6.5625
16:17:12.201,-3.4375,-7.75
16:17:12.211,-3.5625,-8.9375
16:17:12.221,-4.5,-10.0625
16:17:12.232,-5.3125,-9.8125
16:17:12.240,-5.0625,-11.875
16:17:12.252,-6.0625,-13.0625
16:17:12.261,-6.1875,-12.8125
16:17:12.271,-6.4375,-14.6876
16:17:12.282,-8.1875,-16.3751
16:17:12.292,-8.4375,-15.4376
16:17:12.302,-8.5,-17.8751
16:17:12.311,-9.5,-17.5001
16:17:12.321,-9.1875,-18.9376
16:17:12.332,-9.9375,-19.4376
16:17:12.341,-10.25,-20.5001
16:17:12.351,-10.875,-22.1876
16:17:12.361,-11.9375,-23.0626
16:17:12.389,-12.75,-24.1251
16:17:12.392,-12.6875,-25.2501
16:17:12.394,-13.4376,-25.4376
16:17:12.401,-14.1251,-27.2501
16:17:12.436,-14.3126,-29.1876
16:17:12.438,-14.0626,-28.4376
16:17:12.441,-13.6251,-28.6876
16:17:12.446,-11.75,-26.0001
16:17:12.455,-10,-23.9376
16:17:12.492,-6.75,-18.5001
16:17:12.495,-3.625,-14.3126
16:17:12.527,-1.0625,-9
16:17:12.530,2.75,-3.9375
16:17:12.550,4.4375,0.75
16:17:12.551,6.125,5.25
16:17:12.551,8.1875,7.6875
16:17:12.552,9,12.0625
16:17:12.558,9.875,13.2501
16:17:12.563,10.4375,13.1876
16:17:12.566,9.875,14.3751
16:17:12.576,9.6875,14.1876
16:17:12.586,9.4375,13.6251
16:17:12.596,8.6875,14.3126
16:17:12.608,7.875,13.1876
16:17:12.615,7.9375,13.3751
16:17:12.627,6.4375,12.125
16:17:12.636,5.875,12
16:17:12.646,5.875,10.3125
16:17:12.657,4.625,8
16:17:12.668,3.25,6.5
16:17:12.677,3,5.75
16:17:12.686,2.3125,4
16:17:12.696,1,4.75
16:17:12.707,1.4375,3.25
16:17:12.723,2.0625,2.875
16:17:12.732,1.0625,2.0625
16:17:12.743,1.1875,2.875
16:17:12.752,2,2.9375
16:17:12.761,1.75,1.8125
16:17:12.771,1.75,3.375
16:17:12.782,2.75,2.75
16:17:12.791,2.1875,2.625
16:17:12.801,1.75,1.9375
16:17:12.830,1.8125,2.625
16:17:12.840,2.5625,2.1875
16:17:12.842,1.375,1.4375
16:17:12.846,1,1.25
16:17:12.851,0.3125,1.1875
16:17:12.862,0.5,0.3125
16:17:12.874,0.4375,-1.25
16:17:12.884,-0.9375,-1.25
16:17:12.893,-1.5,-3.5
16:17:12.901,-2.4375,-3
16:17:12.911,-2.0625,-5.1875
16:17:12.921,-2.5625,-6.4375
16:17:12.931,-4,-7.875
16:17:12.942,-4.3125,-8.125
16:17:12.952,-5,-9.3125
16:17:12.961,-5,-10.5
16:17:12.977,-6.0625,-12.75
16:17:12.998,-7.5625,-14.5001
16:17:13.003,-8.0625,-14.6251
16:17:13.019,-8.375,-15.2501
16:17:13.022,-8.25,-17.3751
16:17:13.027,-9.5,-17.8126
16:17:13.032,-9.375,-18.1251
16:17:13.042,-9.5625,-20.6251
16:17:13.052,-9.8125,-21.1251
16:17:13.062,-9.9375,-21.9376
16:17:13.071,-10.9375,-22.1876
16:17:13.097,-11.1875,-23.5001
16:17:13.099,-12.25,-24.6251
16:17:13.101,-12.375,-25.9376
16:17:13.131,-12.75,-26.0626
16:17:13.134,-13.4376,-27.8126
16:17:13.136,-14.5626,-28.0626
16:17:13.143,-14.4376,-28.6876
16:17:13.175,-15.0001,-29.7501
16:17:13.176,-15.3751,-30.0626
16:17:13.178,-15.6876,-32.4376
16:17:13.185,-15.8751,-33.3126
16:17:13.215,-15.8751,-32.1876
16:17:13.217,-14.4376,-31.9376
16:17:13.223,-12.6875,-27.3751
16:17:13.228,-9.5625,-24.4376
16:17:13.242,-7,-19.7501
16:17:13.245,-3.6875,-13.8126
16:17:13.264,-0.5625,-9.1875
16:17:13.269,2,-5.4375
16:17:13.272,4.375,0.125
16:17:13.282,6.1875,3.3125
16:17:13.292,7.875,6.9375
16:17:13.302,9.5625,8.6875
16:17:13.311,8.75,10.4375
16:17:13.322,10,12.0625
16:17:13.331,9.3125,11.5
16:17:13.341,8.6875,12.75
16:17:13.351,8.8125,11
16:17:13.363,8,10.875
16:17:13.374,7.4375,11.0625
16:17:13.382,7.375,10.125
16:17:13.393,6.4375,9.5625
16:17:13.403,6.3125,9.4375
16:17:13.411,5.1875,8.625
16:17:13.422,4.5,7.4375
16:17:13.432,4.0625,5.3125
16:17:13.442,2.8125,4.125
16:17:13.451,2.3125,4.3125
16:17:13.463,3.125,2.9375
16:17:13.472,2.3125,2.25
16:17:13.481,1.9375,2.875
16:17:13.491,2.375,1.875
16:17:13.503,1.5,1.0625
16:17:13.512,1.8125,0.875
16:17:13.521,1.75,2.375
16:17:13.531,2.5,1.25
16:17:13.543,3.25,2.125
16:17:13.552,2.9375,1.5625
16:17:13.563,3.0625,3.625
16:17:13.572,3.5625,2.75
16:17:13.582,3.375,1.8125
16:17:13.593,2.4375,3.75
16:17:13.607,4.125,2.375
16:17:13.617,2.625,1.6875
16:17:13.629,1.875,0
16:17:13.638,1.1875,1.6875
16:17:13.648,1.4375,0.1875
16:17:13.659,1.4375,-0.375
16:17:13.667,0.5625,-2.1875
16:17:13.676,-0.1875,-2.8125
16:17:13.687,-0.375,-3.0625
16:17:13.697,-0.9375,-4.8125
16:17:13.707,-1.5625,-6.25
16:17:13.716,-2.625,-7.25
16:17:13.727,-3.375,-8
16:17:13.736,-2.9375,-9.5
16:17:13.749,-4,-10.1875
16:17:13.758,-4,-10.375
16:17:13.767,-5.1875,-13.1876
16:17:13.777,-5.6875,-14.2501
16:17:13.813,-6.4375,-14.8751
16:17:13.815,-6.375,-14.6251
16:17:13.856,-6.8125,-16.3751
16:17:13.857,-7.9375,-16.8751
16:17:13.891,-7.4375,-17.7501
16:17:13.917,-7.8125,-18.0626
16:17:13.917,-8.3125,-18.4376
16:17:13.917,-7.8125,-19.5001
16:17:13.919,-8.6875,-19.3751
16:17:13.923,-8.375,-21.1251
16:17:13.946,-9.5625,-20.7501
16:17:13.949,-9.25,-21.6251
16:17:13.951,-9.6875,-22.7501
16:17:13.957,-9.9375,-23.2501
16:17:13.966,-10.5,-23.0626
16:17:13.973,-10.6875,-26.0626
16:17:13.982,-11.4375,-25.5626
16:17:13.992,-10.8125,-26.6251
16:17:14.002,-10.375,-24.1251
16:17:14.012,-9,-23.3126
16:17:14.022,-6.6875,-20.4376
16:17:14.032,-3.6875,-15.6251
16:17:14.042,0.3125,-9.375
16:17:14.053,3.9375,-4.0625
16:17:14.062,17.3751,19.6876
16:17:14.072,18.3126,22.5001
16:17:14.083,18.6876,25.6251
16:17:14.111,19.5626,27.6251
16:17:14.114,20.4376,28.0001
16:17:14.116,20.5001,28.7501
16:17:14.122,19.8751,29.1876
16:17:14.133,19.3751,29.0001
16:17:14.142,19.2501,30.0626
16:17:14.153,18.6876,29.0626
16:17:14.163,19.0001,29.9376
16:17:14.172,19.5626,29.3126
16:17:14.183,18.0626,30.3126
16:17:14.192,18.2501,28.8126
16:17:14.202,16.7501,28.3751
16:17:14.212,16.6251,26.1251
16:17:14.222,15.5626,26.2501
16:17:14.233,15.5001,26.0626
16:17:14.242,14.7501,23.1876
16:17:14.252,13.9376,23.5626
16:17:14.263,14.6251,24.0626
16:17:14.284,14.8751,23.2501
16:17:14.286,14.7501,22.2501
16:17:14.296,14.4376,22.2501
16:17:14.310,14.3751,24.7501
16:17:14.325,15.5001,24.3126
16:17:14.327,14.6876,24.0001
16:17:14.332,15.2501,24.4376
16:17:14.342,15.1876,24.3751
16:17:14.352,15.0001,24.0001
16:17:14.363,14.8126,25.8751
16:17:14.374,15.6876,24.2501
16:17:14.383,15.2501,23.1251
16:17:14.393,14.3126,23.6251
16:17:14.402,14.3751,22.7501
16:17:14.413,14.2501,21.8751
16:17:14.422,13.2501,20.3126
16:17:14.433,13.3126,20.5626
16:17:14.442,12.5,19.7501
16:17:14.452,11.625,18.3751
16:17:14.462,11.375,17.0626
16:17:14.472,10.3125,15.7501
16:17:14.482,9.5,14.9376
16:17:14.494,8.9375,14.8751
16:17:14.505,8.625,12.4375
16:17:14.515,7.875,11.0625
16:17:14.522,7.1875,11.1875
16:17:14.532,7.125,10.125
16:17:14.543,6.25,8.0625
16:17:14.552,5.6875,7.0625
16:17:14.562,4.6875,6.9375
16:17:14.572,4.4375,5.6875
16:17:14.582,4.25,4.3125
16:17:14.592,3.5625,2.8125
16:17:14.603,3.25,1.6875
16:17:14.614,3.0625,2.0625
16:17:14.626,2.9375,0.375
16:17:14.634,1.75,-1.25
16:17:14.666,0.9375,-0.1875
16:17:14.669,1.25,-1.875
16:17:14.672,1.5625,-2.625
16:17:14.673,0.6875,-3.0625
16:17:14.704,-0.125,-3.0625
16:17:14.705,-0.1875,-4.625
16:17:14.707,-0.875,-5.875
16:17:14.744,-1.125,-6.4375
16:17:14.744,-2.1875,-7.8125
16:17:14.749,-2.25,-9.625
16:17:14.752,-3.375,-11.5
16:17:14.752,-3.6875,-10.5625
16:17:14.785,-3.875,-12.5625
16:17:14.786,-3.875,-12.75
16:17:14.790,-3.375,-13.3126
16:17:14.795,-2.3125,-10.4375
16:17:14.803,-0.25,-8.4375
16:17:14.813,2.8125,-3.5
16:17:14.822,6.25,1.25
16:17:14.832,9.125,6.9375
16:17:14.842,13,13.6876
16:17:14.853,16.5001,19.1251
16:17:14.862,18.3751,24.8751
16:17:14.874,21.5626,29.6876
16:17:14.887,23.3126,34.3126
16:17:14.893,25.6876,37.3126
16:17:14.902,26.2501,40.8127
16:17:14.914,27.0001,42.1252
16:17:14.922,27.1251,42.5627
16:17:14.934,26.9376,44.4377
16:17:14.942,26.8751,43.5002
16:17:14.953,27.0001,45.8127
16:17:14.962,26.9376,45.7502
16:17:14.972,26.9376,46.0627
16:17:14.983,26.8751,45.0627
16:17:14.994,26.3126,46.5002
16:17:15.003,26.5001,45.7502
16:17:15.012,26.1251,44.2502
16:17:15.022,25.3126,44.2502
16:17:15.032,24.7501,44.1877
16:17:15.042,24.3751,42.3127
16:17:15.055,23.3751,41.4377
16:17:15.063,22.6876,41.9377
16:17:15.073,23.1876,40.4377
16:17:15.082,22.7501,39.5627
16:17:15.092,22.1251,39.5002
16:17:15.102,22.2501,40.0627
16:17:15.113,22.1876,40.0627
16:17:15.122,23.1251,39.6252
16:17:15.141,22.5001,39.4377
16:17:15.142,22.4376,40.3127
16:17:15.157,23.2501,40.3752
16:17:15.166,22.8751,39.7502
16:17:15.172,21.8751,38.6876
16:17:15.182,21.7501,39.1251
16:17:15.194,21.2501,38.6876
16:17:15.202,21.2501,38.2501
16:17:15.212,20.5626,36.7501
16:17:15.222,19.9376,35.8126
16:17:15.232,19.2501,36.4376
16:17:15.242,19.1251,34.5001
16:17:15.252,18.1251,33.1876
16:17:15.262,17.5001,31.5626
16:17:15.274,17.0626,31.2501
16:17:15.282,16.7501,30.3126
16:17:15.293,16.0001,28.3751
16:17:15.332,15.3126,26.8751
16:17:15.336,13.6876,25.3126
16:17:15.340,13,23.7501
16:17:15.341,12.3125,23.5626
16:17:15.346,11.375,21.3751
16:17:15.380,11.0625,20.5001
16:17:15.382,11.4375,19.1876
16:17:15.385,10.1875,17.3126
16:17:15.398,9.5,16.3751
16:17:15.401,8.125,15.8126
16:17:15.403,8.8125,14.1251
16:17:15.438,7.75,12.3125
16:17:15.440,7,13
16:17:15.444,7.0625,12.125
16:17:15.450,7.0625,9.9375
16:17:15.454,6.3125,9.25
16:17:15.483,5.5625,8.6875
16:17:15.487,5.1875,8.9375
16:17:15.490,5.4375,7.4375
16:17:15.492,4.6875,6.9375
16:17:15.503,4.4375,5.75
16:17:15.514,3.875,4.5
16:17:15.522,3.3125,2.375
16:17:15.533,2.375,2
16:17:15.542,1.6875,0.5
16:17:15.552,1,-0.5
16:17:15.562,0.625,-1.8125
16:17:15.574,-0.6875,-3.5625
16:17:15.592,-1.25,-4.25
16:17:15.600,-1.6875,-4.8125
16:17:15.616,-1.25,-5.75
16:17:15.636,-0.3125,-4.5
16:17:15.640,0.5625,-1.9375
16:17:15.643,3.875,1.6875
16:17:15.647,6.375,6.25
16:17:15.654,10.3125,11
16:17:15.662,12.8125,18.0626
16:17:15.673,16.7501,23.0626
16:17:15.682,19.3126,28.7501
16:17:15.693,22.2501,33.6251
16:17:15.702,23.5001,39.9377
16:17:15.714,25.3126,41.8127
16:17:15.722,26.4376,43.5627
16:17:15.732,27.0001,45.3127
16:17:15.744,27.3126,47.5002
16:17:15.752,26.8126,48.1252
16:17:15.763,27.0626,48.6877
16:17:15.773,27.0001,48.5627
16:17:15.782,26.3751,50.6877
16:17:15.792,26.3751,49.3752
16:17:15.803,26.2501,49.0627
16:17:15.812,25.1251,47.3127
16:17:15.822,24.8751,49.2502
16:17:15.833,24.0626,46.8127
16:17:15.843,23.4376,45.8127
16:17:15.852,23.0001,46.1252
16:17:15.862,21.6876,43.7502
16:17:15.873,21.1876,42.3127
16:17:15.883,20.5626,41.1877
16:17:15.893,20.7501,40.6877
16:17:15.902,19.6876,40.4377
16:17:15.912,20.3751,39.8127
16:17:15.922,19.1251,38.4376
16:17:15.934,19.5001,39.5627
16:17:15.944,19.6251,39.3751
16:17:15.952,19.6876,39.0001
16:17:15.964,19.5626,38.8751
16:17:15.972,19.5626,38.8751
16:17:15.982,19.1251,40.5002
16:17:15.993,19.3126,38.9376
16:17:16.002,18.5626,37.3126
16:17:16.014,18.1251,37.0001
16:17:16.023,17.2501,37.3751
16:17:16.032,17.0001,35.3751
16:17:16.044,16.1876,33.6876
16:17:16.059,15.8751,33.8751
16:17:16.064,15.0626,32.1251
16:17:16.097,14.0001,30.8751
16:17:16.098,12.5,30.0626
16:17:16.103,12.4375,27.1876
16:17:16.105,11,24.9376
16:17:16.136,10.375,24.6876
16:17:16.139,10.8125,23.0001
16:17:16.141,9.6875,21.1876
16:17:16.149,7.625,20.0626
16:17:16.155,7.5625,18.5626
16:17:16.191,6.8125,16.4376
16:17:16.193,5.875,14.4376
16:17:16.195,4.75,14.9376
16:17:16.199,4.1875,12.3125
16:17:16.203,3.125,10.375
16:17:16.235,1.9375,9.4375
16:17:16.238,1.3125,8.8125
16:17:16.242,1.1875,7.375
16:17:16.245,0.4375,5.125
16:17:16.254,-0.5,3.1875
16:17:16.262,-0.75,4.1875
16:17:16.272,-1.1875,1.4375
16:17:16.283,-2.3125,0.3125
16:17:16.292,-2.625,-1.5625
16:17:16.303,-4.1875,-1.9375
16:17:16.313,-4.375,-3.75
16:17:16.322,-4.9375,-5.375
16:17:16.333,-5.875,-6.125
16:17:16.342,-7,-6.375
16:17:16.352,-6.0625,-8.3125
16:17:16.362,-6.1875,-8.875
16:17:16.372,-5.625,-7.8125
16:17:16.386,-3.3125,-4.875
16:17:16.392,-1.1875,-0.4375
16:17:16.403,2.125,4.1875
16:17:16.413,5.6875,8.9375
16:17:16.423,8.3125,14.7501
16:17:16.443,11.625,20.3126
16:17:16.447,13.8751,24.5626
16:17:16.461,16.4376,29.6251
16:17:16.476,17.8126,33.0626
16:17:16.479,19.0626,35.9376
16:17:16.483,19.1251,37.2501
16:17:16.492,19.7501,39.4377
16:17:16.502,19.6251,40.1252
16:17:16.512,19.4376,40.0627
16:17:16.522,19.3751,40.3127
16:17:16.532,18.6251,40.3752
16:17:16.542,18.5001,39.6252
16:17:16.552,17.8751,38.8126
16:17:16.563,17.1876,38.8751
16:17:16.573,15.6876,38.1876
16:17:16.582,15.0001,38.0001
16:17:16.592,14.8126,35.6876
16:17:16.603,13.7501,33.3126
16:17:16.612,12.25,31.6876
16:17:16.623,11.75,30.4376
16:17:16.632,11.25,30.5001
16:17:16.642,11.75,28.9376
16:17:16.670,10.375,27.3126
16:17:16.673,9.3125,27.5626
16:17:16.677,9.625,27.1251
16:17:16.685,9.75,25.6251
16:17:16.693,8.8125,24.6876
16:17:16.702,8.5,26.3126
16:17:16.715,9,24.5001
16:17:16.725,8.875,24.5001
16:17:16.733,7.75,24.5001
16:17:16.745,7.4375,24.4376
16:17:16.753,7.75,23.3751
16:17:16.793,7.4375,21.8126
16:17:16.795,6.1875,20.8126
16:17:16.797,5.5625,20.8751
16:17:16.802,5.6875,18.6251
16:17:16.830,4.9375,17.1251
16:17:16.833,4.3125,17.9376
16:17:16.835,4.125,15.8126
16:17:16.840,3.5625,14.1251
16:17:16.855,2.5,12.0625
16:17:16.859,1.0625,12.0625
16:17:16.901,1.125,10.1875
16:17:16.918,-0.4375,7.5
16:17:16.923,-1.3125,6.9375
16:17:16.943,-2.8125,5.75
16:17:16.946,-2.625,3.5
16:17:16.946,-3.0625,2.0625
16:17:16.957,-4.4375,-0.4375
16:17:16.958,-5.4375,-1.75
16:17:16.960,-5.0625,-3.5
16:17:16.968,-6.0625,-4.8125
16:17:16.970,-7.125,-5.1875
16:17:16.980,-7.375,-6.25
16:17:16.987,-6.5,-7.9375
16:17:16.998,-8.8125,-9.125
16:17:17.007,-9.125,-9.4375
16:17:17.019,-9.4375,-10.4375
16:17:17.027,-10.125,-12.5625
16:17:17.040,-10.5,-13.3126
16:17:17.050,-11.6875,-13.125
16:17:17.059,-12.625,-15.3751
16:17:17.068,-12.0625,-16.2501
16:17:17.077,-13.3751,-18.0001
16:17:17.088,-13.8751,-20.2501
16:17:17.097,-13.3751,-20.1876
16:17:17.107,-14.5626,-21.8751
16:17:17.118,-15.0626,-22.2501
16:17:17.127,-15.1251,-24.1876
16:17:17.137,-16.2501,-24.4376
16:17:17.147,-15.1251,-25.6251
16:17:17.158,-16.0001,-25.8751
16:17:17.168,-14.4376,-24.1876
16:17:17.178,-12.75,-22.3751
16:17:17.187,-10.625,-17.8751
16:17:17.197,-7.5,-13.7501
16:17:17.209,-3.6875,-7.6875
16:17:17.217,0.125,-0.75
16:17:17.227,3.3125,4.3125
16:17:17.238,6.25,11.25
16:17:17.248,9.3125,14.8751
16:17:17.258,10.625,21.0001
16:17:17.268,12.75,24.1251
16:17:17.277,13.9376,27.8751
16:17:17.287,14.4376,28.8126
16:17:17.298,15.3126,30.6251
16:17:17.307,16.0001,31.9376
16:17:17.318,16.1876,33.5001
16:17:17.327,16.3126,33.3126
16:17:17.342,15.5626,34.6251
16:17:17.347,15.9376,33.6251
16:17:17.359,14.9376,34.1876
16:17:17.368,15.1251,35.3751
16:17:17.377,15.5001,34.1251
16:17:17.393,14.1876,33.8126
16:17:17.403,14.5626,34.1876
16:17:17.414,14.0626,32.3126
16:17:17.423,13.0625,31.6876
16:17:17.434,12.75,30.3126
16:17:17.458,11.5625,28.6251
16:17:17.461,11.25,28.2501
16:17:17.463,10.875,28.1251
16:17:17.504,11.75,27.1251
16:17:17.505,9.5625,25.5626
16:17:17.507,9.6875,25.0001
16:17:17.511,9.4375,25.0626
16:17:17.517,9.1875,26.1876
16:17:17.524,9.9375,26.1876
16:17:17.549,9.5625,25.1251
16:17:17.553,10.0625,25.5626
16:17:17.556,10.1875,25.4376
16:17:17.595,9.375,25.1876
16:17:17.596,9,25.3751
16:17:17.598,9.375,23.6876
16:17:17.603,8.875,22.5626
16:17:17.611,7.625,22.4376
16:17:17.613,7.875,21.1876
16:17:17.623,7.875,20.0001
16:17:17.633,6.375,18.2501
16:17:17.642,6.125,17.6876
16:17:17.654,5.5625,16.6876
16:17:17.665,5.25,14.9376
16:17:17.673,3.5625,13.3126
16:17:17.682,2.8125,11.875
16:17:17.693,3.3125,10.25
16:17:17.704,1.125,8.3125
16:17:17.713,0,6.5625
16:17:17.723,0.25,7.375
16:17:17.745,0.25,5.5625
16:17:17.747,-0.4375,4.125
16:17:17.763,-1.9375,2.1875
16:17:17.766,-2.5,0.75
16:17:17.774,-3.4375,0.8125
16:17:17.782,-3.6875,-1.25
16:17:17.793,-4.0625,-3
16:17:17.803,-4.25,-3.4375
16:17:17.814,-5.125,-3.25
16:17:17.823,-4.4375,-4.75
16:17:17.833,-5.3125,-6.875
16:17:17.842,-6.4375,-7
16:17:17.854,-7.125,-6.625
16:17:17.863,-7.1875,-9.1875
16:17:17.874,-7.1875,-10.625
16:17:17.883,-7.75,-11.6875
16:17:17.894,-8.375,-11.375
16:17:17.903,-8.625,-12.5
16:17:17.914,-8.375,-14.8751
16:17:17.924,-10.0625,-15.5626
16:17:17.950,-11.5625,-16.0001
16:17:17.953,-11.4375,-18.7501
16:17:17.955,-13.1876,-20.5001
16:17:17.965,-13.4376,-20.5001
16:17:17.973,-13.6876,-21.8126
16:17:17.983,-13.9376,-21.9376
16:17:17.995,-13.6251,-22.6876
16:17:18.002,-12.5,-22.0626
16:17:18.014,-10.875,-19.0626
16:17:18.024,-8.625,-15.0001
16:17:18.036,-4.8125,-9.25
16:17:18.043,-1.125,-3.25
16:17:18.054,2.375,3.5
16:17:18.065,5.9375,9.3125
16:17:18.073,9.5,16.0001
16:17:18.082,12.3125,20.8751
16:17:18.094,14.1251,24.5001
16:17:18.104,14.8126,28.5001
16:17:18.112,15.7501,31.3751
16:17:18.122,16.8126,32.8751
16:17:18.133,17.3126,34.6876
16:17:18.144,17.4376,36.2501
16:17:18.152,17.5001,38.4376
16:17:18.162,17.6251,37.2501
16:17:18.173,17.3751,37.9376
16:17:18.184,17.3126,38.0001
16:17:18.200,16.6251,37.2501
16:17:18.232,17.0626,38.2501
16:17:18.234,16.0626,36.9376
16:17:18.263,15.5001,37.2501
16:17:18.263,14.7501,36.8126
16:17:18.265,14.6251,34.5626
16:17:18.268,13.6876,32.8126
16:17:18.273,13.1876,32.1876
16:17:18.273,13.3126,31.8126
16:17:18.306,12.3125,30.5001
16:17:18.307,11.9375,29.0001
16:17:18.310,11.8125,30.8126
16:17:18.315,11.125,29.9376
16:17:18.341,11.75,28.4376
16:17:18.343,11.375,28.7501
16:17:18.345,11.5,30.0626
16:17:18.376,11.25,29.3751
16:17:18.380,12.0625,28.5626
16:17:18.383,11.625,29.0001
16:17:18.386,12.0625,28.3126
16:17:18.395,11.25,27.8126
16:17:18.404,10.625,27.3751
16:17:18.413,9.5625,26.3126
16:17:18.423,9.25,25.6876
16:17:18.439,8.8125,26.0001
16:17:18.443,8.8125,22.6876
16:17:18.454,7.375,21.2501
16:17:18.464,6.125,21.0626
16:17:18.474,5.5,20.4376
16:17:18.483,5.5,18.8126
16:17:18.493,4.75,15.8751
16:17:18.503,2.5,14.0626
16:17:18.513,2.25,13.3126
16:17:18.523,1.4375,10.5625
16:17:18.534,-0.125,8.3125
16:17:18.543,-0.625,7.875
16:17:18.554,-0.875,6.3125
16:17:18.563,-2.4375,3.75
16:17:18.573,-3.1875,3.4375
16:17:18.585,-3.1875,2.875
16:17:18.593,-3.6875,0.4375
16:17:18.603,-4.9375,-1.125
16:17:18.613,-5.8125,-0.8125
16:17:18.623,-6,-3.0625
16:17:18.634,-5.5625,-3.875
16:17:18.643,-7.1875,-5.6875
16:17:18.653,-7.6875,-5.5
16:17:18.663,-7.8125,-7.125
16:17:18.673,-9,-9.625
16:17:18.683,-10.1875,-9.8125
16:17:18.693,-11.1875,-11.125
16:17:18.703,-10.75,-13.8751
16:17:18.714,-12.3125,-13.0625
16:17:18.723,-13.125,-15.2501
16:17:18.733,-13.1876,-17.0626
16:17:18.743,-13.7501,-16.8751
16:17:18.753,-13.7501,-19.1876
16:17:18.764,-15.7501,-20.8126
16:17:18.774,-15.8751,-21.3751
16:17:18.784,-15.9376,-23.2501
16:17:18.793,-16.1251,-21.9376
16:17:18.803,-14.6876,-21.3751
16:17:18.815,-13.125,-18.4376
16:17:18.823,-10.0625,-15.1876
16:17:18.833,-7.1875,-10.5625
16:17:18.844,-4,-4.5625
16:17:18.853,-1.3125,-0.3125
16:17:18.863,1.9375,6.4375
16:17:18.873,4.4375,11.1875
16:17:18.885,6.9375,16.5001
16:17:18.894,8.125,20.1251
16:17:18.903,9.6875,23.4376
16:17:18.914,10.8125,25.9376
16:17:18.923,11.3125,29.0626
16:17:18.933,11.0625,28.3751
16:17:18.943,10.875,29.6876
16:17:18.966,11.75,29.8126
16:17:18.969,10.625,30.2501
16:17:18.994,10.1875,30.8751
16:17:19.002,10.3125,29.0001
16:17:19.005,8.8125,30.5001
16:17:19.006,9.375,28.9376
16:17:19.046,8.1875,28.3126
16:17:19.086,7.875,26.3751
16:17:19.089,6.625,24.7501
16:17:19.091,5.75,24.7501
16:17:19.098,5.25,22.8126
16:17:19.098,4.75,21.6251
16:17:19.098,4.0625,19.8751
16:17:19.106,3.375,19.6251
16:17:19.136,3.5,18.7501
16:17:19.140,2.8125,17.7501
16:17:19.142,2.625,18.0001
16:17:19.144,3.0625,18.3751
16:17:19.157,3.125,17.5626
16:17:19.165,3.0625,17.0626
16:17:19.173,2.875,17.9376
16:17:19.190,3.25,18.3126
16:17:19.193,2.5,16.5626
16:17:19.203,1.9375,16.4376
16:17:19.232,1.4375,15.9376
16:17:19.235,0.4375,14.9376
16:17:19.236,0.4375,13.2501
16:17:19.244,-0.25,12.4375
16:17:19.254,-1.25,10.875
16:17:19.263,-3.875,7.25
16:17:19.273,-4.6875,6
16:17:19.283,-4.875,3.625
16:17:19.293,-6.0625,2.0625
16:17:19.303,-7.375,-0.75
16:17:19.313,-8.5625,-0.75
16:17:19.325,-8.625,-3.1875
16:17:19.333,-8.875,-4.5625
16:17:19.343,-10.25,-5.4375
16:17:19.353,-11.1875,-6.75
16:17:19.363,-11.3125,-9.25
16:17:19.374,-11.875,-10.75
16:17:19.383,-13.1876,-12
16:17:19.393,-14.1876,-12.5
16:17:19.403,-14.3751,-14.1876
16:17:19.413,-15.0626,-16.2501
16:17:19.424,-14.8751,-16.8126
16:17:19.433,-15.3751,-18.1876
16:17:19.443,-17.1251,-20.6251
16:17:19.454,-17.9376,-19.3751
16:17:19.463,-18.2501,-22.2501
16:17:19.473,-19.3126,-23.8751
16:17:19.492,-19.6876,-25.3751
16:17:19.499,-19.6876,-25.8751
16:17:19.513,-20.6876,-27.0626
16:17:19.517,-20.4376,-28.2501
16:17:19.524,-21.5001,-29.2501
16:17:19.533,-21.6876,-30.0626
16:17:19.543,-21.8126,-30.2501
16:17:19.554,-21.2501,-29.3751
16:17:19.568,-19.2501,-28.6251
16:17:19.575,-17.0626,-24.1876
16:17:19.583,-13.8126,-20.5001
16:17:19.593,-11.25,-13.6876
16:17:19.603,-7.25,-8.9375
16:17:19.613,-4.6875,-2.1875
16:17:19.623,-0.6875,3.5
16:17:19.633,0.5625,9
16:17:19.645,3.375,13
16:17:19.654,5,15.3751
16:17:19.690,6.3125,19.3751
16:17:19.696,6.9375,21.0626
16:17:19.697,7.625,22.3126
16:17:19.701,7.125,23.3126
16:17:19.740,6.75,24.5001
16:17:19.744,6.6875,24.3751
16:17:19.750,6.6875,24.6251
16:17:19.754,6.6875,25.3126
16:17:19.754,6.3125,24.8126
16:17:19.762,6.9375,25.6251
16:17:19.770,5.8125,24.5626
16:17:19.801,5.125,25.3126
16:17:19.803,4.4375,22.3751
16:17:19.806,3.3125,21.0626
16:17:19.812,2.8125,21.1251
16:17:19.819,2.9375,19.8126
16:17:19.831,1.4375,16.9376
16:17:19.840,0.5625,15.8751
16:17:19.849,0.75,16.5001
16:17:19.859,0.375,16.1876
16:17:19.868,1.0625,15.2501
16:17:19.878,0.3125,14.4376
16:17:19.888,0.25,14.3751
16:17:19.898,0.375,14.8126
16:17:19.908,0.5625,14.9376
16:17:19.918,0.4375,14.8126
16:17:19.928,0.0625,13.6251
16:17:19.938,0.75,13.6876
16:17:19.950,0.1875,12.625
16:17:19.958,-0.8125,11.75
16:17:19.970,-1.125,12.125
16:17:19.979,-1.125,10.75
16:17:19.988,-1.75,9.375
16:17:19.998,-2.3125,8
16:17:20.008,-2.8125,7.5
16:17:20.018,-3.0625,6.0625
16:17:20.030,-4.5,3.8125
16:17:20.040,-5.3125,2
16:17:20.049,-6.75,1.1875
16:17:20.058,-7.125,-0.0625
16:17:20.070,-7.5625,-2.5
16:17:20.079,-8.8125,-4.0625
16:17:20.089,-9.5,-4.5625
16:17:20.098,-9.6875,-6.4375
16:17:20.109,-11.125,-8.875
16:17:20.119,-12.125,-8.875
16:17:20.129,-12.6875,-11.625
16:17:20.139,-13.1876,-13.3751
16:17:20.151,-13.3126,-13.3126
16:17:20.158,-13.4376,-15.6251
16:17:20.168,-14.6251,-16.5626
16:17:20.178,-15.1876,-16.1251
16:17:20.189,-15.1251,-19.4376
16:17:20.199,-16.5626,-19.0001
16:17:20.208,-16.1251,-20.8751
16:17:20.218,-17.3751,-22.4376
16:17:20.229,-17.2501,-22.7501
16:17:20.238,-17.0001,-23.6876
16:17:20.248,-17.5626,-23.7501
16:17:20.258,-18.0001,-24.9376
16:17:20.269,-18.1876,-26.8126
16:17:20.278,-19.6876,-25.5626
16:17:20.288,-19.6876,-28.6251
16:17:20.298,-20.3126,-28.5626
16:17:20.309,-20.4376,-31.1876
16:17:20.321,-21.5626,-31.5001
16:17:20.337,-22.0626,-32.6876
16:17:20.339,-22.6251,-33.4376
16:17:20.355,-22.8751,-34.8751
16:17:20.358,-23.4376,-37.1876
16:17:20.368,-23.5001,-36.2501
16:17:20.378,-22.9376,-37.5626
16:17:20.388,-20.9376,-35.1251
16:17:20.398,-17.8751,-30.9376
16:17:20.409,-15.1251,-26.4376
16:17:20.418,-10.875,-20.5626
16:17:20.429,-8.25,-14.6876
16:17:20.438,-4.75,-7.8125
16:17:20.451,-1.375,-3.0625
16:17:20.478,1.0625,3.5
16:17:20.481,4.25,7.5625
16:17:20.483,5.5625,12.375
16:17:20.512,6.625,15.1876
16:17:20.514,7.875,17.5626
16:17:20.519,8.5625,19.6876
16:17:20.520,9.625,21.6251
16:17:20.549,8.75,22.3126
16:17:20.551,9.875,23.3126
16:17:20.554,9.375,24.5001
16:17:20.560,9.9375,24.4376
16:17:20.585,9.875,25.4376
16:17:20.588,9.5,27.1251
16:17:20.590,9.8125,26.3126
16:17:20.619,9.9375,27.2501
16:17:20.620,10,25.6876
16:17:20.622,9.0625,25.5626
16:17:20.632,7.625,24.5626
16:17:20.639,7.8125,23.2501
16:17:20.648,6.75,22.3751
16:17:20.659,6.1875,20.7501
16:17:20.670,5.9375,19.6251
16:17:20.678,5.25,18.1876
16:17:20.688,5.0625,19.6251
16:17:20.698,5.8125,17.8126
16:17:20.709,5.375,17.5001
16:17:20.720,4.8125,16.8751
16:17:20.728,5.25,17.6876
16:17:20.738,5.5625,17.9376
16:17:20.749,5.75,17.2501
16:17:20.758,5.3125,18.5626
16:17:20.768,5.5625,17.3126
16:17:20.778,5.875,16.1876
16:17:20.794,4.25,16.1876
16:17:20.809,3.5625,15.3126
16:17:20.814,3.1875,13.2501
16:17:20.823,2.1875,12
16:17:20.834,1.75,11.5
16:17:20.844,1.875,10.25
16:17:20.853,1.25,8.75
16:17:20.863,0.125,6.875
16:17:20.873,-0.5625,6.5625
16:17:20.884,-0.75,4.5625
16:17:20.894,-1.4375,3
16:17:20.904,-3,3.1875
16:17:20.914,-3.25,1.5625
16:17:20.923,-3.5625,-0.8125
16:17:20.933,-4.5625,-2.5625
16:17:20.944,-5.4375,-2.6875
16:17:20.954,-6.625,-4.8125
16:17:20.963,-6.8125,-6.375
16:17:20.973,-7.375,-8.25
16:17:20.983,-8.5,-8.4375
16:17:20.993,-8.6875,-10.75
16:17:21.003,-9.25,-12.625
16:17:21.013,-9.75,-12.75
16:17:21.024,-11.0625,-13.7501
16:17:21.033,-11.25,-16.1876
16:17:21.044,-12,-17.2501
16:17:21.053,-12.3125,-18.1876
16:17:21.063,-11.5625,-19.1876
16:17:21.078,-12.9375,-19.2501
16:17:21.085,-12.5625,-20.8126
16:17:21.094,-13.8751,-20.6876
16:17:21.103,-13.6876,-23.3751
16:17:21.114,-15.0626,-23.6876
16:17:21.123,-14.9376,-25.3751
16:17:21.133,-16.0001,-25.7501
16:17:21.144,-15.1251,-26.5626
16:17:21.153,-16.6876,-27.3751
16:17:21.164,-17.1876,-29.1251
16:17:21.190,-17.6876,-30.7501
16:17:21.192,-18.0626,-31.4376
16:17:21.195,-18.1251,-32.0001
16:17:21.220,-19.1876,-33.5626
16:17:21.222,-19.9376,-34.3126
16:17:21.226,-20.4376,-36.0626
16:17:21.235,-20.6876,-36.8751
16:17:21.266,-21.2501,-38.1876
16:17:21.269,-21.6876,-38.9376
16:17:21.271,-20.7501,-38.5001
16:17:21.277,-18.9376,-35.4376
16:17:21.305,-17.0626,-32.7501
16:17:21.310,-12.75,-26.5001
16:17:21.310,-8.875,-22.1251
16:17:21.335,-5.5625,-14.7501
16:17:21.338,-2,-8.875
16:17:21.339,0.75,-3.6875
16:17:21.344,2.875,2.1875
16:17:21.359,5.5,5.9375
16:17:21.363,6.5625,9.5
16:17:21.374,7.5625,11.3125
16:17:21.384,8.3125,13.3126
16:17:21.393,8.375,14.7501
16:17:21.403,8.75,15.1876
16:17:21.414,8.8125,16.5001
16:17:21.423,8.375,16.4376
16:17:21.433,8.375,17.0626
16:17:21.444,8.1875,17.1251
16:17:21.454,8.25,18.0626
16:17:21.464,8.9375,18.4376
16:17:21.473,8,18.2501
16:17:21.483,7.1875,17.4376
16:17:21.493,6.6875,16.5626
16:17:21.504,5.9375,16.0001
16:17:21.514,5.5625,14.1251
16:17:21.523,4.5625,13.3751
16:17:21.535,4.1875,13
16:17:21.543,4.9375,12.125
16:17:21.554,3.9375,10.9375
16:17:21.565,3.125,11.75
16:17:21.574,3.3125,9.625
16:17:21.584,2.75,9.25
16:17:21.594,2.5625,9.8125
16:17:21.604,2.625,10.3125
16:17:21.615,3.375,9.625
16:17:21.634,2.75,9.875
16:17:21.637,3.125,10.375
16:17:21.654,3.9375,9.5625
16:17:21.655,2.875,9
16:17:21.665,2.25,8.3125
16:17:21.673,1.5625,7.5
16:17:21.683,1.4375,6.3125
16:17:21.693,-0.8125,5.125
16:17:21.705,-0.0625,3.8125
16:17:21.713,-2.0625,1.8125
16:17:21.725,-3.875,-0.0625
16:17:21.733,-3.5625,0.125
16:17:21.746,-4.3125,-2.5
16:17:21.754,-2.125,-1.5
16:17:21.764,-1.375,-0.5625
16:17:21.790,0.625,-0.875
16:17:21.793,0.4375,-2
16:17:21.794,0.3125,-2.75
16:17:21.805,-1.9375,-5.1875
16:17:21.817,-2.5625,-7.875
16:17:21.827,-2.875,-9.125
16:17:21.833,-4.875,-10.3125
16:17:21.844,-5.75,-11.625
16:17:21.856,-8.375,-14.7501
16:17:21.866,-9.4375,-14.0001
16:17:21.874,-9.875,-15.3751
16:17:21.883,-10.1875,-14.4376
16:17:21.895,-11.375,-16.8751
16:17:21.926,-12.75,-16.4376
16:17:21.927,-13.1876,-18.7501
16:17:21.930,-15.0626,-18.5626
16:17:21.935,-14.0001,-19.9376
16:17:21.962,-13.3751,-18.3751
16:17:21.967,-14.5001,-18.4376
16:17:21.969,-14.4376,-18.4376
16:17:21.975,-14.8751,-17.9376
16:17:21.999,-14.8126,-17.2501
16:17:22.002,-13.6876,-16.5626
16:17:22.006,-13.4376,-15.4376
16:17:22.042,-12.3125,-16.4376
16:17:22.044,-12.875,-14.8126
16:17:22.049,-12.1875,-15.9376
16:17:22.052,-12.75,-17.1251
16:17:22.055,-13.0625,-17.2501
16:17:22.089,-13.6876,-19.5001
16:17:22.091,-13.8126,-19.2501
16:17:22.109,-15.0001,-21.6876
16:17:22.112,-15.9376,-22.0001
16:17:22.115,-16.0626,-23.6251
16:17:22.119,-15.5001,-22.6251
16:17:22.125,-15.0626,-23.1876
16:17:22.136,-13.9376,-21.9376
16:17:22.143,-11.625,-18.9376
16:17:22.154,-9.3125,-14.4376
16:17:22.165,-6.625,-10.3125
16:17:22.176,-4.0625,-5.8125
16:17:22.184,-2.3125,-1.5625
16:17:22.203,-0.125,2.875
16:17:22.210,1.625,5.3125
16:17:22.215,2.9375,8.6875
16:17:22.224,3.6875,11.25
16:17:22.235,4.25,12.8125
16:17:22.245,4.375,13.6251
16:17:22.253,5,15.0001
16:17:22.266,4.875,13.8751
16:17:22.275,4.5625,13.6251
16:17:22.283,4.6875,13.3126
16:17:22.293,4.1875,13.3126
16:17:22.304,3.125,12.25
16:17:22.315,3.1875,11.75
16:17:22.325,1.75,10.3125
16:17:22.335,1.0625,9.4375
16:17:22.344,-0.1875,9.125
16:17:22.354,-0.9375,6
16:17:22.363,-2.0625,5
16:17:22.376,-2.6875,4.4375
16:17:22.384,-3.3125,2.125
16:17:22.394,-4.5625,1.1875
16:17:22.405,-5.5,1.1875
16:17:22.414,-5.25,-0.875
16:17:22.424,-5.9375,-1.75
16:17:22.435,-6,-1.875
16:17:22.445,-6.5,-1.375
16:17:22.454,-6.25,-3.125
16:17:22.464,-6.6875,-3.4375
16:17:22.474,-6.6875,-3.5625
16:17:22.484,-6.3125,-4.1875
16:17:22.495,-6.5625,-3.5
16:17:22.505,-6.1875,-4.3125
16:17:22.515,-7.1875,-4.375
16:17:22.524,-7.0625,-5.6875
16:17:22.534,-7.9375,-6.125
16:17:22.545,-8.8125,-6.5625
16:17:22.554,-9.4375,-8.5625
16:17:22.565,-10.75,-8.5625
16:17:22.574,-11.3125,-11.4375
16:17:22.584,-12.875,-12.25
16:17:22.594,-12.6875,-15.2501
16:17:22.610,-14.7501,-17.1251
16:17:22.616,-16.1251,-18.6251
16:17:22.641,-17.5626,-20.6251
16:17:22.644,-18.8751,-21.9376
16:17:22.650,-19.3751,-24.1251
16:17:22.689,-20.6251,-25.8126
16:17:22.691,-21.2501,-26.0626
16:17:22.694,-21.2501,-28.1876
16:17:22.696,-21.8751,-28.8126
16:17:22.701,-22.7501,-30.6876
16:17:22.710,-23.4376,-30.8126
16:17:22.716,-24.1876,-33.7501
16:17:22.750,-25.0626,-34.5626
16:17:22.753,-25.7501,-36.9376
16:17:22.755,-26.7501,-38.2501
16:17:22.761,-26.6876,-39.2502
16:17:22.784,-27.4376,-39.3127
16:17:22.787,-27.8751,-41.5002
16:17:22.794,-28.3126,-42.0002
16:17:22.795,-27.5001,-42.6252
16:17:22.805,-27.5626,-42.8752
16:17:22.814,-27.3126,-43.4377
16:17:22.826,-27.1251,-42.7502
16:17:22.835,-27.1876,-43.8752
16:17:22.844,-27.3126,-45.0627
16:17:22.855,-27.6251,-45.3752
16:17:22.866,-26.9376,-45.8752
16:17:22.874,-27.6251,-47.0627
16:17:22.884,-27.8126,-47.8752
16:17:22.894,-28.0626,-49.8127
16:17:22.906,-28.5001,-48.6252
16:17:22.914,-28.1876,-50.5002
16:17:22.931,-29.3751,-52.7502
16:17:22.938,-29.4376,-52.5627
16:17:22.944,-29.7501,-54.5002
16:17:22.962,-30.8751,-55.6877
16:17:22.964,-29.8126,-56.2502
16:17:22.982,-30.3126,-56.6877
16:17:22.986,-29.7501,-57.0002
16:17:22.994,-28.1876,-54.8752
16:17:23.005,-26.1251,-51.7502
16:17:23.015,-22.9376,-48.0002
16:17:23.024,-20.3126,-42.5002
16:17:23.036,-16.8126,-37.5001
16:17:23.044,-13.3126,-31.7501
16:17:23.070,-10.0625,-27.0626
16:17:23.073,-8.5625,-21.0626
16:17:23.075,-6.125,-18.8751
16:17:23.084,-5.375,-16.7501
16:17:23.094,-4.1875,-14.6251
16:17:23.104,-3.875,-12.75
16:17:23.114,-3.6875,-10.875
16:17:23.125,-3.3125,-11.1875
16:17:23.134,-3.25,-9.625
16:17:23.144,-4.3125,-9.375
16:17:23.154,-4.125,-10.375
16:17:23.164,-4.5,-9.3125
16:17:23.175,-4.75,-9.6875
16:17:23.184,-4.1875,-9.5
16:17:23.194,-3.8125,-9.8125
16:17:23.204,-4.25,-8.9375
16:17:23.214,-4.6875,-9.375
16:17:23.224,-4.0625,-10.4375
16:17:23.235,-5.1875,-10.75
16:17:23.246,-5.625,-12.3125
16:17:23.254,-6.25,-12
16:17:23.264,-6.1875,-12.8125
16:17:23.274,-7.3125,-12.5625
16:17:23.285,-7.3125,-13.6251
16:17:23.294,-7.6875,-12.75
16:17:23.304,-7.4375,-12.75
16:17:23.314,-6.9375,-12.5
16:17:23.325,-6.9375,-11.6875
16:17:23.341,-6.5,-10.5625
16:17:23.344,-6.8125,-11.25
16:17:23.358,-6.5625,-10.0625
16:17:23.385,-6.3125,-10.125
16:17:23.458,-6.4375,-9.5625
16:17:23.498,-6.375,-9.8125
16:17:23.498,-6.75,-9.125
16:17:23.498,-6.375,-7.625
16:17:23.504,-6.0625,-8.5
16:17:23.530,-6.5,-8
16:17:23.530,-6.625,-8.5625
16:17:23.532,-6.9375,-9.25
16:17:23.535,-7.9375,-9.3125
16:17:23.541,-9,-9.9375
16:17:23.546,-8.9375,-11.625
16:17:23.554,-10.8125,-12.4375
16:17:23.566,-10.3125,-14.7501
16:17:23.574,-12.375,-16.3751
16:17:23.584,-12.75,-16.3751
16:17:23.596,-13.8751,-18.8751
16:17:23.604,-14.5626,-18.6251
16:17:23.614,-16.2501,-21.3126
16:17:23.624,-17.6876,-22.6876
16:17:23.634,-18.5626,-23.7501
16:17:23.646,-19.4376,-26.9376
16:17:23.655,-21.2501,-28.7501
16:17:23.666,-22.3751,-30.6251
16:17:23.676,-29.8126,-42.6252
16:17:23.684,-29.6876,-42.9377
16:17:23.696,-29.3126,-43.6252
16:17:23.704,-29.4376,-42.8752
16:17:23.716,-29.1251,-44.0627
16:17:23.724,-28.9376,-44.2502
16:17:23.734,-29.0626,-44.9377
16:17:23.747,-28.3126,-44.7502
16:17:23.755,-28.9376,-43.8752
16:17:23.765,-27.8126,-45.5002
16:17:23.775,-27.5626,-45.1252
16:17:23.786,-28.0001,-46.6877
16:17:23.795,-28.0626,-46.6877
16:17:23.804,-27.8126,-48.3127
16:17:23.815,-28.0001,-49.3752
16:17:23.825,-27.9376,-48.9377
16:17:23.834,-27.8126,-50.2502
16:17:23.844,-27.4376,-49.8752
16:17:23.855,-26.0001,-46.6252
16:17:23.864,-23.2501,-44.8752
16:17:23.875,-21.3126,-40.7502
16:17:23.884,-18.3751,-35.3126
16:17:23.895,-15.3751,-32.4376
16:17:23.904,-12.5625,-26.3126
16:17:23.914,-8.625,-22.0001
16:17:23.926,-7.1875,-17.4376
16:17:23.936,-5.125,-14.8751
16:17:23.946,-4.5,-12.3125
16:17:23.954,-4,-9.875
16:17:23.966,-2.625,-9.6875
16:17:23.976,-2.75,-9.75
16:17:23.985,-2.6875,-8.8125
16:17:23.995,-3.375,-9.875
16:17:24.004,-4.1875,-9.6875
16:17:24.015,-4.1875,-10.625
16:17:24.025,-5,-12
16:17:24.036,-5.25,-10.625
16:17:24.044,-5.5,-11.5
16:17:24.054,-5.5625,-12.6875
16:17:24.065,-5.75,-12.625
16:17:24.075,-6.0625,-13.3126
16:17:24.112,-6.625,-13.6251
16:17:24.117,-6.0625,-14.0001
16:17:24.117,-6.625,-14.0626
16:17:24.123,-7,-15.1876
16:17:24.125,-7.5625,-16.0001
16:17:24.157,-8.25,-15.6876
16:17:24.158,-8.3125,-15.5001
16:17:24.165,-8.5,-16.3126
16:17:24.168,-7.9375,-14.8751
16:17:24.199,-6.875,-14.5626
16:17:24.201,-7.4375,-13.6251
16:17:24.204,-7,-13.8126
16:17:24.206,-6.875,-12.625
16:17:24.240,-7.5625,-11.4375
16:17:24.245,-7.8125,-12
16:17:24.283,-7.125,-12.125
16:17:24.287,-7.625,-11.625
16:17:24.287,-7.8125,-12.1875
16:17:24.287,-8.4375,-11.9375
16:17:24.300,-8.5625,-10.6875
16:17:24.316,-8.5625,-12.1875
16:17:24.318,-8.6875,-11.875
16:17:24.319,-8.8125,-12.4375
16:17:24.322,-9.1875,-12.375
16:17:24.350,-10.5,-13.3751
16:17:24.355,-11.375,-15.6251
16:17:24.356,-11.4375,-15.4376
16:17:24.361,-12.375,-17.3751
16:17:24.370,-13.9376,-17.7501
16:17:24.379,-14.1251,-19.2501
16:17:24.390,-15.9376,-20.6251
16:17:24.399,-16.7501,-20.4376
16:17:24.410,-17.1876,-21.9376
16:17:24.420,-18.2501,-23.5001
16:17:24.430,-19.2501,-24.6876
16:17:24.439,-21.0626,-27.9376
16:17:24.449,-22.1251,-27.8751
16:17:24.460,-23.4376,-27.7501
16:17:24.469,-23.8751,-30.5001
16:17:24.479,-24.1251,-30.2501
16:17:24.491,-23.8751,-30.8126
16:17:24.499,-24.8751,-32.4376
16:17:24.509,-25.3751,-31.7501
16:17:24.519,-26.0626,-33.8751
16:17:24.529,-26.2501,-34.4376
16:17:24.539,-27.0626,-35.1876
16:17:24.550,-27.4376,-35.6251
16:17:24.560,-26.7501,-36.5626
16:17:24.569,-27.5626,-36.0626
16:17:24.579,-27.0626,-35.4376
16:17:24.590,-27.3126,-36.9376
16:17:24.600,-27.2501,-36.3751
16:17:24.609,-26.3126,-37.5001
16:17:24.619,-26.7501,-39.0626
16:17:24.630,-26.6251,-38.6251
16:17:24.640,-25.4376,-38.5626
16:17:24.649,-24.5626,-37.9376
16:17:24.661,-23.0626,-35.1251
16:17:24.669,-19.6876,-32.6251
16:17:24.679,-16.4376,-26.4376
16:17:24.690,-12.5,-20.7501
16:17:24.700,-7.6875,-15.5001
16:17:24.709,-4,-8.6875
16:17:24.720,-1.9375,-5.1875
16:17:24.741,0.25,0.375
16:17:24.747,2,1.875
16:17:24.778,3.25,6
16:17:24.780,5,7.375
16:17:24.809,4.625,8.625
16:17:24.811,5.5,8.625
16:17:24.814,4.6875,9.1875
16:17:24.818,4.5625,10.1875
16:17:24.818,4.5,9.125
16:17:24.820,4.0625,7.875
16:17:24.846,3.4375,8.75
16:17:24.849,3.3125,6.625
16:17:24.851,2.9375,6.5
16:17:24.865,3,5.5
16:17:24.871,2.4375,5.0625
16:17:24.899,2.5625,4.125
16:17:24.901,2.625,2.8125
16:17:24.929,2.75,2.25
16:17:24.931,2.25,1.8125
16:17:24.933,2.375,1.3125
16:17:24.964,3.3125,0.5
16:17:24.967,3.125,0.25
16:17:24.970,3.5625,1.625
16:17:24.972,4.3125,2
16:17:24.979,4.625,1.125
16:17:24.985,5.25,2.5625
16:17:24.994,5.75,3.0625
16:17:25.004,6.4375,2.5
16:17:25.014,6.1875,3.125
16:17:25.025,6.1875,3.4375
16:17:25.036,6.0625,2.5625
16:17:25.045,6.125,3.375
16:17:25.054,5.8125,2.75
16:17:25.064,4.0625,1.6875
16:17:25.075,2.9375,0.8125
16:17:25.085,2.3125,0.625
16:17:25.094,2.375,0
16:17:25.105,2.625,-1
16:17:25.114,0.625,-2
16:17:25.124,-0.1875,-2.6875
16:17:25.134,-0.9375,-3.3125
16:17:25.144,-1.875,-4.625
16:17:25.154,-3.125,-5.1875
16:17:25.165,-3.8125,-5.875
16:17:25.174,-4,-7.75
16:17:25.185,-5.5625,-8.75
16:17:25.197,-6,-8.25
16:17:25.205,-6.4375,-8.375
16:17:25.215,-6.1875,-10.1875
16:17:25.225,-6.75,-11
16:17:25.235,-7.4375,-10.5
16:17:25.244,-7,-11.125
16:17:25.256,-7.5,-11.4375
16:17:25.266,-8.5,-13.4376
16:17:25.274,-9.5625,-12.6875
16:17:25.285,-9.9375,-14.6251
16:17:25.296,-11,-15.9376
16:17:25.306,-12.1875,-17.1251
16:17:25.315,-13.6251,-16.8751
16:17:25.324,-14.4376,-19.1876
16:17:25.336,-16.2501,-20.6251
16:17:25.345,-15.8126,-21.2501
16:17:25.355,-18.5001,-21.9376
16:17:25.366,-18.0626,-23.1876
16:17:25.374,-19.1251,-23.8126
16:17:25.385,-19.8751,-24.3126
16:17:25.397,-20.7501,-24.6251
16:17:25.407,-20.5626,-25.8751
16:17:25.415,-21.1251,-25.0626
16:17:25.424,-20.6876,-25.7501
16:17:25.434,-21.2501,-26.5001
16:17:25.446,-22.4376,-26.3751
16:17:25.456,-22.1876,-28.0001
16:17:25.466,-22.1876,-27.5626
16:17:25.474,-21.8126,-28.4376
16:17:25.486,-21.5001,-28.8126
16:17:25.495,-20.9376,-28.3126
16:17:25.506,-20.3751,-27.0626
16:17:25.540,-16.8751,-22.5001
16:17:25.542,-12.4375,-16.8126
16:17:25.544,-8.5625,-10.5
16:17:25.547,-3.625,-4.5
16:17:25.578,-1.75,1.25
16:17:25.611,3.125,7.25
16:17:25.642,4.6875,12.4375
16:17:25.700,7.6875,15.6251
16:17:25.704,9.1875,19.0001
16:17:25.704,10.8125,21.5626
16:17:25.704,11.5,21.8751
16:17:25.704,12.1875,23.4376
16:17:25.706,11.6875,22.5626
16:17:25.714,11.625,23.1251
16:17:25.715,11.625,22.8751
16:17:25.715,11.5,22.2501
16:17:25.721,11.4375,22.4376
16:17:25.729,12.1875,21.1251
16:17:25.739,10.875,21.4376
16:17:25.751,10.5625,21.7501
16:17:25.761,10.625,19.6251
16:17:25.770,10.3125,18.5626
16:17:25.786,9.3125,16.3126
16:17:25.791,8.4375,15.6251
16:17:25.799,8.125,14.1251
16:17:25.809,7.0625,13.8126
16:17:25.820,6.8125,11.5625
16:17:25.831,6.3125,9.25
16:17:25.841,6.0625,8.875
16:17:25.849,7.0625,9.625
16:17:25.860,7.75,10
16:17:25.871,8.4375,9.75
16:17:25.881,10.8125,11.625
16:17:25.889,13.2501,11.125
16:17:25.900,12.625,10.6875
16:17:25.911,13.125,11.5625
16:17:25.921,13.5626,11.625
16:17:25.930,13.7501,10.9375
16:17:25.939,12.875,9.5625
16:17:25.951,11.9375,10.9375
16:17:25.960,11.0625,7.4375
16:17:25.971,9.125,5.4375
16:17:25.982,7.6875,4.1875
16:17:25.991,6.125,3
16:17:25.999,5.6875,0.9375
16:17:26.011,4.5625,-0.875
16:17:26.021,3.375,-1.9375
16:17:26.030,1.875,-2.0625
16:17:26.039,1.875,-3.625
16:17:26.063,1.125,-4.875
16:17:26.067,-0.1875,-6.0625
16:17:26.073,-1.0625,-7.125
16:17:26.082,-1.375,-6.4375
16:17:26.100,-1.0625,-8.0625
16:17:26.113,-2.1875,-9.3125
16:17:26.117,-3.125,-8.5
16:17:26.122,-2.6875,-9.875
16:17:26.130,-2.6875,-10
16:17:26.141,-3.9375,-10.25
16:17:26.151,-3.5,-9.75
16:17:26.166,-3.375,-10.9375
16:17:26.178,-4.5,-11
16:17:26.183,-4.6875,-11.625
16:17:26.191,-4.875,-12.6875
16:17:26.219,-5.75,-11.6875
16:17:26.222,-5.5625,-12.375
16:17:26.225,-6.25,-13.3126
16:17:26.231,-8.1875,-14.1876
16:17:26.261,-8.625,-15.7501
16:17:26.266,-9.9375,-16.9376
16:17:26.266,-10.1875,-18.0001
16:17:26.271,-11.8125,-19.5626
16:17:26.302,-12.75,-19.6251
16:17:26.306,-12.9375,-18.9376
16:17:26.308,-11.5625,-17.5001
16:17:26.311,-9.9375,-14.1876
16:17:26.341,-7.125,-8.6875
16:17:26.345,-4,-4.4375
16:17:26.345,0,1.5
16:17:26.352,1.25,6.5
16:17:26.364,3.4375,11.125
16:17:26.371,5.125,14.8126
16:17:26.381,6.6875,18.5626
16:17:26.391,7.625,20.1251
16:17:26.400,7.4375,21.4376
16:17:26.411,7.25,21.8751
16:17:26.421,7.5625,23.0001
16:17:26.429,8.1875,22.6251
16:17:26.441,8.125,23.6251
16:17:26.451,8.1875,22.3751
16:17:26.462,8.9375,23.6876
16:17:26.471,8.25,21.8126
16:17:26.482,8.6875,23.0626
16:17:26.490,8.125,21.2501
16:17:26.503,7.75,22.1251
16:17:26.510,9.125,20.3126
16:17:26.521,8.0625,19.6251
16:17:26.531,7.875,18.5626
16:17:26.547,6.9375,18.1876
16:17:26.550,7.875,17.1876
16:17:26.561,7.8125,16.1251
16:17:26.571,7.8125,16.3126
16:17:26.581,8.625,17.1251
16:17:26.589,9.625,16.6251
16:17:26.601,9.5,16.0001
16:17:26.611,9.25,17.6876
16:17:26.620,10.0625,16.5001
16:17:26.631,10.375,15.9376
16:17:26.641,9.75,17.0626
16:17:26.650,10.9375,17.1251
16:17:26.661,10.5625,15.4376
16:17:26.671,9.9375,14.8126
16:17:26.682,9.9375,14.6876
16:17:26.691,9.4375,13.7501
16:17:26.701,8.5,12.9375
16:17:26.709,9.375,12.875
16:17:26.721,8.3125,11.75
16:17:26.732,7.75,9.5
16:17:26.741,8.5625,10.3125
16:17:26.751,8.625,9
16:17:26.761,7.25,7.1875
16:17:26.770,6.875,7.3125
16:17:26.781,7.1875,5.4375
16:17:26.791,6.5625,3.5625
16:17:26.802,6.75,3.875
16:17:26.811,5.875,1.5625
16:17:26.821,4,-0.75
16:17:26.831,2.5625,-0.875
16:17:26.840,1.9375,-3.375
16:17:26.851,-0.0625,-5.25
16:17:26.861,-0.4375,-6.5625
16:17:26.871,-0.5625,-7.75
16:17:26.881,-2.1875,-9.375
16:17:26.910,-3,-9.1875
16:17:26.913,-3.25,-10.9375
16:17:26.915,-4,-12.625
16:17:26.921,-5.3125,-13.5001
16:17:26.931,-5.3125,-14.5626
16:17:26.941,-6.875,-16.1251
16:17:26.951,-7.875,-16.1876
16:17:26.966,-7.5625,-16.8126
16:17:26.973,-8.5,-18.5001
16:17:27.003,-8.875,-19.3126
16:17:27.043,-8.875,-20.3126
16:17:27.070,-9.4375,-20.1251
16:17:27.073,-10.0625,-20.0626
16:17:27.103,-10.0625,-21.8751
16:17:27.103,-10.4375,-20.3126
16:17:27.104,-9.375,-20.6251
16:17:27.106,-7.75,-18.6876
16:17:27.137,-6.1875,-14.3126
16:17:27.138,-3.3125,-11.0625
16:17:27.142,0.3125,-6.1875
16:17:27.142,3.4375,0.75
16:17:27.150,6.125,4.5625
16:17:27.151,7.6875,8.375
16:17:27.162,10.1875,13.4376
16:17:27.171,11.375,15.8751
16:17:27.181,11.9375,18.3751
16:17:27.192,13.2501,21.1876
16:17:27.201,12.9375,21.9376
16:17:27.211,12.1875,23.1251
16:17:27.221,12.4375,23.0001
16:17:27.231,11.6875,21.8126
16:17:27.241,10.4375,22.1876
16:17:27.251,9.875,21.2501
16:17:27.261,9,21.2501
16:17:27.271,9.125,20.6251
16:17:27.281,7.9375,19.3751
16:17:27.290,7.5,19.3751
16:17:27.306,7,18.6251
16:17:27.311,7.9375,17.1876
16:17:27.321,6.375,16.1876
16:17:27.332,6,16.3751
16:17:27.341,6.875,15.0626
16:17:27.351,6.3125,14.9376
16:17:27.361,6.75,16.0626
16:17:27.379,7.9375,16.6876
16:17:27.386,7.3125,16.3126
16:17:27.395,7.5,17.0626
16:17:27.401,8.3125,17.6876
16:17:27.418,8.9375,17.8751
16:17:27.425,7.9375,18.6876
16:17:27.436,8.875,17.9376
16:17:27.441,8.5625,17.8126
16:17:27.451,7.5,18.7501
16:17:27.461,7.8125,18.0001
16:17:27.471,7,16.1876
16:17:27.481,6.0625,16.5626
16:17:27.491,6.1875,15.3126
16:17:27.501,5.9375,14.3751
16:17:27.511,6,13.5001
16:17:27.521,5.1875,12.9375
16:17:27.531,5,13.3126
16:17:27.542,5,11.6875
16:17:27.552,4.5,11.0625
16:17:27.561,3.3125,10.125
16:17:27.571,3.5625,10.3125
16:17:27.581,3,9.5
16:17:27.591,2.9375,8.125
16:17:27.601,2.25,6.75
16:17:27.611,1.1875,5.0625
16:17:27.621,1.0625,5.5625
16:17:27.631,0.5,3.6875
16:17:27.642,-0.0625,3.0625
16:17:27.651,-0.3125,3.9375
16:17:27.661,0.125,2.375
16:17:27.672,-0.625,0.875
16:17:27.682,-1.75,0.625
16:17:27.692,-1.375,0.625
16:17:27.702,-1.25,-0.1875
16:17:27.716,-1.5,-1.25
16:17:27.721,-1.875,-0.875
16:17:27.750,-1.4375,-0.25
16:17:27.752,-1.1875,-1.5625
16:17:27.754,-1.6875,-0.25
16:17:27.762,-0.875,-1.3125
16:17:27.792,-1.375,-2.5625
16:17:27.795,2.1875,0.375
16:17:27.797,4.8125,2.6875
16:17:27.803,7.625,3.8125
16:17:27.832,10.0625,5.1875
16:17:27.835,12.3125,7.625
16:17:27.839,13.8751,8.875
16:17:27.843,14.3126,7.8125
16:17:27.851,14.1876,6.6875
16:17:27.890,15.1251,7.75
16:17:27.893,17.3126,9.6875
16:17:27.895,19.9376,13.1876
16:17:27.897,22.3126,16.6876
16:17:27.903,25.8751,21.7501
16:17:27.911,32.6876,29.8126
16:17:27.921,38.0626,37.5626
16:17:27.931,40.8127,41.6877
16:17:27.942,44.5002,47.9377
16:17:27.952,46.5627,52.8752
16:17:27.966,48.1877,55.1252
16:17:27.977,47.1877,56.1877
16:17:27.986,45.2502,54.6877
16:17:27.996,44.4377,56.2502
16:17:28.006,43.1252,55.2502
16:17:28.016,42.6252,54.0627
16:17:28.026,42.3127,55.1877
16:17:28.036,40.4377,54.1877
16:17:28.045,37.8751,52.2502
16:17:28.056,33.8751,47.1252
16:17:28.066,38.8126,51.8752
16:17:28.076,40.0002,53.8127
16:17:28.086,39.9377,52.1252
16:17:28.096,40.1877,52.0627
16:17:28.106,39.8752,52.6252
16:17:28.116,40.1252,51.6877
16:17:28.126,38.3751,50.3127
16:17:28.136,35.7501,48.4377
16:17:28.146,34.3126,46.0002
16:17:28.156,32.2501,43.0002
16:17:28.166,32.6251,42.9377
16:17:28.191,30.5001,42.9377
16:17:28.193,31.1251,42.0002
16:17:28.196,29.8751,40.5002
16:17:28.206,27.5626,39.1252
16:17:28.216,26.1876,38.1251
16:17:28.229,26.5626,37.2501
16:17:28.236,25.6876,36.1876
16:17:28.247,26.2501,38.1251
16:17:28.256,26.2501,37.3126
16:17:28.266,26.3126,36.3751
16:17:28.277,25.6876,35.4376
16:17:28.286,23.2501,34.9376
16:17:28.296,23.3751,34.3126
16:17:28.306,22.5001,32.0626
16:17:28.325,22.6876,31.3751
16:17:28.330,22.3126,29.9376
16:17:28.343,20.1251,28.1251
16:17:28.358,19.2501,27.5001
16:17:28.361,19.3126,25.7501
16:17:28.376,17.3751,23.5001
16:17:28.378,15.8126,23.1876
16:17:28.386,14.9376,20.4376
16:17:28.396,13.5001,17.7501
16:17:28.405,13.125,16.1876
16:17:28.416,11.8125,16.8126
16:17:28.429,12.8125,14.4376
16:17:28.460,14.0626,15.1251
16:17:28.461,14.5001,15.5001
16:17:28.463,13.6251,14.8126
16:17:28.466,12.8125,12.75
16:17:28.501,12.3125,11.3125
16:17:28.501,13.0625,10.25
16:17:28.504,11.6875,9.625
16:17:28.508,10.4375,7.875
16:17:28.540,9.3125,6.125
16:17:28.571,8.8125,3.6875
16:17:28.574,7.25,1.9375
16:17:28.576,6.3125,1.5625
16:17:28.577,5.6875,1.25
16:17:28.581,5.3125,-0.8125
16:17:28.615,4.5,-2.6875
16:17:28.615,2.5625,-4.625
16:17:28.618,0.3125,-6.8125
16:17:28.619,-0.9375,-8.4375
16:17:28.630,-1.875,-8.6875
16:17:28.633,-0.4375,-10.0625
16:17:28.635,0.4375,-10.375
16:17:28.646,1.75,-9.25
16:17:28.656,1.6875,-9.625
16:17:28.666,1.4375,-9.875
16:17:28.676,0.625,-12.3125
16:17:28.686,0.25,-12.5625
16:17:28.707,-0.75,-12
16:17:28.727,-1.125,-11.375
16:17:28.730,0.125,-10.1875
16:17:28.759,3.1875,-6.625
16:17:28.761,6.4375,-1.3125
16:17:28.763,9.8125,3.6875
16:17:28.765,13.1251,9.5
16:17:28.770,16.2501,13.4376
16:17:28.776,17.8751,18.7501
16:17:28.786,19.8126,22.3751
16:17:28.796,21.3751,23.8126
16:17:28.807,20.1251,23.7501
16:17:28.817,19.9376,25.1251
16:17:28.826,20.7501,26.3751
16:17:28.837,20.3126,25.6876
16:17:28.846,19.0001,25.5001
16:17:28.856,18.9376,24.0626
16:17:28.867,16.5001,22.6251
16:17:28.877,14.5001,22.6251
16:17:28.888,14.7501,21.0001
16:17:28.896,14.0626,19.5001
16:17:28.906,11.875,17.9376
16:17:28.916,9.625,16.2501
16:17:28.927,7.625,14.2501
16:17:28.936,7.0625,11.6875
16:17:28.945,4.8125,9.375
16:17:28.956,3.9375,8
16:17:28.966,3.8125,7.625
16:17:28.982,3.0625,7.6875
16:17:28.991,3.75,7.0625
16:17:29.001,2.1875,5.125
16:17:29.011,1.625,4.375
16:17:29.021,0.4375,4.9375
16:17:29.031,0.5625,3.8125
16:17:29.041,-0.1875,3
16:17:29.051,-0.3125,3.5625
16:17:29.062,-0.9375,4.4375
16:17:29.071,0.4375,3.5625
16:17:29.081,-0.5625,2.4375
16:17:29.091,-1.125,2.125
16:17:29.102,-1.5,2.25
16:17:29.111,-2.5625,0.6875
16:17:29.121,-3.875,-0.875
16:17:29.131,-4.5625,-2.0625
16:17:29.141,-5.375,-2.625
16:17:29.151,-5.5625,-3.5625
16:17:29.161,-5.625,-4.9375
16:17:29.171,-6.6875,-6
16:17:29.181,-9.25,-6.25
16:17:29.191,-9.75,-9.375
16:17:29.201,-10.6875,-10.375
16:17:29.216,-11.25,-10.75
16:17:29.245,-10.6875,-11.4375
16:17:29.249,-12.0625,-13.2501
16:17:29.250,-13.2501,-15.5626
16:17:29.253,-13.7501,-14.9376
16:17:29.294,-13.3751,-15.6251
16:17:29.296,-13.1876,-15.9376
16:17:29.300,-13.0625,-17.0626
16:17:29.301,-13.3126,-16.9376
16:17:29.306,-13.4376,-17.0001
16:17:29.333,-14.0626,-18.8751
16:17:29.334,-14.3751,-19.5626
16:17:29.339,-14.4376,-20.4376
16:17:29.343,-16.0626,-22.0001
16:17:29.358,-16.5626,-22.5001
16:17:29.363,-17.7501,-25.4376
16:17:29.386,-18.1251,-26.3126
16:17:29.389,-19.1251,-27.3751
16:17:29.391,-19.1251,-27.4376
16:17:29.403,-20.2501,-29.1876
16:17:29.411,-21.6251,-30.8126
16:17:29.422,-22.8126,-31.6876
16:17:29.431,-23.5001,-33.2501
16:17:29.441,-22.7501,-31.6251
16:17:29.470,-20.8126,-30.5001
16:17:29.472,-19.0626,-28.3751
16:17:29.475,-16.1876,-23.8751
16:17:29.481,-14.1876,-20.8126
16:17:29.491,-12.9375,-15.8751
16:17:29.502,-10.5,-12.625
16:17:29.511,-7.6875,-6.75
16:17:29.521,-4.4375,-2.8125
16:17:29.532,-4.25,0.1875
16:17:29.541,-3.5,2.5625
16:17:29.553,-1.875,3.875
16:17:29.563,-1.0625,6.6875
16:17:29.571,-1,6.125
16:17:29.581,-0.625,8.375
16:17:29.591,-0.125,7.375
16:17:29.601,-1.375,7.8125
16:17:29.611,-1.0625,7.375
16:17:29.622,-2.5,7.375
16:17:29.642,-1.125,8.125
16:17:29.645,-0.625,8
16:17:29.654,-0.6875,8.3125
16:17:29.661,-1.5,7.4375
16:17:29.675,-1.0625,8
16:17:29.685,-1.375,6.1875
16:17:29.693,-0.875,6.8125
16:17:29.701,-1.25,5.75
16:17:29.711,-0.125,5.5625
16:17:29.721,0.4375,5.625
16:17:29.731,0.625,6.125
16:17:29.741,0.125,7.125
16:17:29.751,1.5625,6.3125
16:17:29.761,1.8125,8.8125
16:17:29.770,3.0625,7.5
16:17:29.781,3.1875,9.1875
16:17:29.794,4.0625,9
16:17:29.801,5.0625,8.0625
16:17:29.811,4.9375,9.625
16:17:29.820,6.3125,9.75
16:17:29.831,6.8125,9.625
16:17:29.865,6.9375,9.5
16:17:29.867,6.875,10.25
16:17:29.870,5.9375,8.375
16:17:29.873,4.8125,7.1875
16:17:29.903,4.125,5.25
16:17:29.906,3.4375,4.0625
16:17:29.909,1.625,2.3125
16:17:29.912,0.5625,2.1875
16:17:29.938,-0.3125,0.4375
16:17:29.941,0.5,-0.375
16:17:29.944,-1.0625,-1.75
16:17:29.952,-0.5,-2.25
16:17:29.982,-1.75,-3.6875
16:17:29.985,-3.375,-4.375
16:17:29.986,-4.125,-5.9375
16:17:29.992,-3.9375,-7.9375
16:17:30.019,-4.4375,-9.375
16:17:30.049,-4.1875,-9.3125
16:17:30.064,-4.0625,-9.9375
16:17:30.067,-4.8125,-11.125
16:17:30.082,-6.0625,-13.5001
16:17:30.085,-7.0625,-13.4376
16:17:30.086,-7.5625,-14.6251
16:17:30.087,-7.3125,-15.4376
16:17:30.087,-7.5625,-16.1876
16:17:30.092,-7.6875,-16.4376
16:17:30.103,-7.9375,-17.3751
16:17:30.111,-8.125,-18.3751
16:17:30.125,-6.375,-17.6876
16:17:30.131,-6.0625,-17.2501
16:17:30.141,-5.125,-17.5001
16:17:30.153,-5.5625,-17.3126
16:17:30.161,-6.125,-19.4376
16:17:30.171,-9,-21.0001
16:17:30.181,-9.1875,-22.1876
16:17:30.191,-8.0625,-22.2501
16:17:30.201,-8.6875,-23.3126
16:17:30.211,-9.0625,-23.6876
16:17:30.223,-9.625,-25.9376
16:17:30.232,-9.375,-24.8126
16:17:30.242,-8.125,-23.9376
16:17:30.251,-5.4375,-23.0626
16:17:30.261,-3.8125,-19.1876
16:17:30.271,-0.4375,-14.9376
16:17:30.281,3,-11.0625
16:17:30.291,5.9375,-5.625
16:17:30.302,9.625,-0.375
16:17:30.311,11.1875,3.6875
16:17:30.322,13.4376,7.8125
16:17:30.332,15.1251,11.375
16:17:30.341,16.8126,13.8126
16:17:30.351,17.6251,16.6251
16:17:30.361,19.3126,18.5626
16:17:30.371,19.1876,19.6251
16:17:30.383,20.1876,19.8126
16:17:30.392,18.9376,20.3751
16:17:30.407,17.6251,18.8126
16:17:30.412,16.1251,17.7501
16:17:30.421,16.1251,17.5001
16:17:30.432,14.0626,16.8751
16:17:30.442,14.5001,15.9376
16:17:30.451,13.6251,15.5626
16:17:30.462,14.0001,14.8751
16:17:30.472,12.875,13.8126
16:17:30.481,11.375,14.1251
16:17:30.492,10.6875,11.6875
16:17:30.502,9.75,10.1875
16:17:30.511,8.0625,9.9375
16:17:30.522,7.9375,8.5
16:17:30.532,7.625,8
16:17:30.541,7.0625,7.4375
16:17:30.552,7.6875,7.875
16:17:30.561,7.1875,7.3125
16:17:30.571,7.5625,8.75
16:17:30.582,9.4375,9.4375
16:17:30.591,9.4375,9.6875
16:17:30.602,10.375,11
16:17:30.616,11.8125,11.625
16:17:30.621,11.5,11.875
16:17:30.631,12.875,12.9375
16:17:30.642,14.3126,13.3126
16:17:30.651,14.4376,14.3126
16:17:30.695,14.8751,15.3126
16:17:30.698,15.9376,14.2501
16:17:30.700,15.9376,14.7501
16:17:30.726,17.0626,15.4376
16:17:30.726,17.6876,14.6251
16:17:30.726,17.3751,14.9376
16:17:30.728,17.8126,12.9375
16:17:30.757,14.5626,10
16:17:30.758,11.8125,9.25
16:17:30.759,10.5625,5.1875
16:17:30.765,7.75,2.1875
16:17:30.797,6.375,1.0625
16:17:30.800,5.5,-1.6875
16:17:30.803,2.4375,-4.4375
16:17:30.831,1.4375,-4.1875
16:17:30.834,1.375,-6.125
16:17:30.836,1,-7.1875
16:17:30.840,1.125,-7.3125
16:17:30.845,0.9375,-8.75
16:17:30.852,-0.25,-10.4375
16:17:30.861,-1.0625,-11.1875
16:17:30.873,-0.75,-10.75
16:17:30.883,-0.125,-11.625
16:17:30.893,-1.3125,-12.4375
16:17:30.902,-2.875,-13.6876
16:17:30.912,-4.625,-15.5001
16:17:30.922,-3.6875,-17.5001
16:17:30.932,-5.75,-18.1251
16:17:30.943,-5.625,-19.2501
16:17:30.959,-6.1875,-20.5626
16:17:30.963,-7.1875,-22.1876
16:17:30.979,-7.3125,-21.3126
16:17:30.996,-5.375,-20.6251
16:17:31.011,-4.3125,-18.3126
16:17:31.013,-1.375,-16.7501
16:17:31.019,0.5625,-13.0625
16:17:31.023,3.875,-9.375
16:17:31.032,6.5625,-4.625
16:17:31.042,9.5,-0.0625
16:17:31.052,12.6875,5.0625
16:17:31.063,15.4376,9.5
16:17:31.072,16.6251,13.1876
16:17:31.083,17.7501,15.5001
16:17:31.092,17.3126,16.8751
16:17:31.102,17.3126,17.4376
16:17:31.112,16.0626,16.7501
16:17:31.122,16.3751,17.2501
16:17:31.133,14.2501,16.0001
16:17:31.143,14.6876,17.5001
16:17:31.152,15.0626,17.5001
16:17:31.164,14.4376,16.5001
16:17:31.173,13.5001,15.2501
16:17:31.182,12.3125,16.0001
16:17:31.193,12.1875,13.7501
16:17:31.203,10.375,13.3751
16:17:31.212,10.1875,10.6875
16:17:31.229,8.1875,8.8125
16:17:31.233,6.875,9
16:17:31.242,6.0625,6.875
16:17:31.251,4.8125,5.375
16:17:31.263,3.375,3.75
16:17:31.272,2.625,4.875
16:17:31.283,3.8125,3.3125
16:17:31.292,3.625,3.1875
16:17:31.302,3.5,3.5625
16:17:31.313,4.6875,5.5
16:17:31.322,7.0625,5.9375
16:17:31.333,7.125,5.5625
16:17:31.349,6.875,7
16:17:31.355,6.375,7.8125
16:17:31.363,6.3125,7.3125
16:17:31.372,5.25,6
16:17:31.387,4.4375,4.625
16:17:31.401,2.9375,3.875
16:17:31.433,0.875,3.125
16:17:31.435,-0.5625,-0.1875
16:17:31.438,-3.125,-3.0625
16:17:31.440,-4.0625,-2.875
16:17:31.445,-3.5625,-3.5625
16:17:31.479,-3.5,-4.75
16:17:31.482,-4.75,-4
16:17:31.484,-4.875,-5.8125
16:17:31.487,-4.4375,-6.625
16:17:31.493,-3.6875,-6.3125
16:17:31.529,-3.1875,-5.4375
16:17:31.531,-2.6875,-5.5625
16:17:31.534,-2.0625,-6.875
16:17:31.536,-4.0625,-8.6875
16:17:31.544,-3.3125,-8.5625
16:17:31.571,-3.625,-8.1875
16:17:31.574,-2.375,-7.3125
16:17:31.576,-0.75,-8.125
16:17:31.583,-0.25,-6.5
16:17:31.592,-0.3125,-7.9375
16:17:31.603,0.1875,-7.8125
16:17:31.612,1.625,-7.4375
16:17:31.623,1,-8.9375
16:17:31.632,1.375,-9.5625
16:17:31.642,0.625,-10.6875
16:17:31.652,-0.1875,-11.75
16:17:31.662,-1.375,-13.5626
16:17:31.672,-1.8125,-13.3751
16:17:31.682,-1.375,-14.7501
16:17:31.693,-0.3125,-15.0001
16:17:31.704,0.5,-14.1876
16:17:31.712,2.5625,-11.875
16:17:31.722,4.75,-9.8125
16:17:31.732,7.8125,-5.5
16:17:31.742,10.3125,-2.8125
16:17:31.752,14.1251,3.0625
16:17:31.762,17.3751,7.9375
16:17:31.772,20.2501,13.8751
16:17:31.782,22.2501,18.0001
16:17:31.792,23.5626,20.3126
16:17:31.802,23.5626,21.8126
16:17:31.812,24.6876,23.6251
16:17:31.823,24.8751,25.2501
16:17:31.832,24.5001,26.0001
16:17:31.844,23.9376,26.0626
16:17:31.852,23.3126,25.8126
16:17:31.863,24.0626,27.4376
16:17:31.873,25.0626,28.1251
16:17:31.882,26.3126,30.3751
16:17:31.892,27.2501,31.6251
16:17:31.902,28.5001,31.4376
16:17:31.912,29.6876,33.5001
16:17:31.922,30.0001,33.8751
16:17:31.932,30.6251,32.8751
16:17:31.942,29.5001,31.5001
16:17:31.952,29.2501,32.3751
16:17:31.962,29.1876,30.6251
16:17:31.977,28.3126,28.8751
16:17:31.986,26.6251,26.6876
16:17:31.992,25.9376,26.9376
16:17:32.002,25.0001,25.3751
16:17:32.031,23.3126,23.3126
16:17:32.035,22.4376,21.6251
16:17:32.037,22.6251,22.5626
16:17:32.044,23.5626,22.3126
16:17:32.052,24.0626,22.5626
16:17:32.063,24.0001,22.4376
16:17:32.072,24.7501,24.2501
16:17:32.082,24.8751,22.9376
16:17:32.093,23.1251,21.3751
16:17:32.103,21.3126,20.1876
16:17:32.112,20.1876,19.8751
16:17:32.148,19.8751,18.1251
16:17:32.152,19.0001,17.6251
16:17:32.154,18.4376,17.5001
16:17:32.155,19.4376,16.0626
16:17:32.190,18.5626,14.9376
16:17:32.194,17.5001,14.7501
16:17:32.196,16.7501,13.8751
16:17:32.197,16.0626,11.9375
16:17:32.225,16.6876,11
16:17:32.226,16.1876,10.0625
16:17:32.229,16.8126,11.3125
16:17:32.236,17.6251,10.125
16:17:32.250,18.5626,9.4375
16:17:32.254,19.1876,10.375
16:17:32.290,20.0001,10
16:17:32.306,20.3126,9.375
16:17:32.321,20.1251,8.3125
16:17:32.336,19.8751,8.5
16:17:32.338,18.9376,7
16:17:32.338,18.1876,4.25
16:17:32.338,16.3751,2.25
16:17:32.355,15.3126,2.125
16:17:32.357,13.8751,-0.1875
16:17:32.363,12.8125,-2.75
16:17:32.373,12.5,-3.75
16:17:32.382,12.1875,-4.8125
16:17:32.392,11.125,-4.8125
16:17:32.404,11.5625,-6.1875
16:17:32.412,10.9375,-7.3125
16:17:32.422,11.1875,-7.8125
16:17:32.434,11.3125,-8.5
16:17:32.442,10.3125,-10.375
16:17:32.453,9.5,-11.8125
16:17:32.462,8.6875,-12.6875
16:17:32.473,6.8125,-14.2501
16:17:32.483,5.5625,-17.2501
16:17:32.492,2.875,-20.2501
16:17:32.503,3.125,-19.8126
16:17:32.512,3.6875,-18.6251
16:17:32.522,6.1875,-18.0001
16:17:32.532,7.75,-12.5625
16:17:32.542,9.6875,-9.6875
16:17:32.552,12.9375,-4.75
16:17:32.562,16.5626,2
16:17:32.574,18.8751,5.4375
16:17:32.582,19.0001,9.4375
16:17:32.594,20.2501,12.8125
16:17:32.603,22.0001,14.9376
16:17:32.614,22.1251,18.4376
16:17:32.622,23.2501,18.1251
16:17:32.632,23.0626,19.4376
16:17:32.642,22.6251,20.3751
16:17:32.652,21.6251,19.6251
16:17:32.662,20.6251,19.2501
16:17:32.685,19.0001,18.5626
16:17:32.687,18.5626,17.5626
16:17:32.702,16.8126,15.9376
16:17:32.718,15.9376,17.1876
16:17:32.719,16.2501,16.1251
16:17:32.728,15.6876,15.6876
16:17:32.732,15.2501,14.6876
16:17:32.742,14.9376,15.8126
16:17:32.752,14.5626,13.6251
16:17:32.762,12.75,11.8125
16:17:32.772,10.1875,8.6875
16:17:32.791,8.5625,8.125
16:17:32.795,8.25,6.625
16:17:32.805,6.0625,5.375
16:17:32.812,5.1875,4.375
16:17:32.857,4.625,5
16:17:32.861,4,3
16:17:32.862,3.625,2.0625
16:17:32.865,2.4375,1.6875
16:17:32.870,2.5,3.25
16:17:32.873,2.5,2.625
16:17:32.902,2.5,3.25
16:17:32.904,3.125,2.1875
16:17:32.906,2.5,1.875
16:17:32.913,2.4375,3.0625
16:17:32.942,2.4375,2.4375
16:17:32.943,2.1875,1.3125
16:17:32.946,1.0625,0.5
16:17:32.952,0.25,-0.125
16:17:32.965,0.3125,-1.1875
16:17:32.976,-1.0625,-3.5625
16:17:32.982,-2.0625,-4
16:17:33.002,-3.0625,-4.125
16:17:33.008,-2.875,-5.5625
16:17:33.018,-3.3125,-7.4375
16:17:33.027,-4,-8.5
16:17:33.037,-4.5625,-9.25
16:17:33.047,-5.0625,-11.5
16:17:33.058,-6.5625,-12.25
16:17:33.069,-7.0625,-12
16:17:33.078,-6.75,-13.3751
16:17:33.095,-7.375,-15.8751
16:17:33.103,-8.375,-17.1251
16:17:33.109,-9.125,-18.0626
16:17:33.118,-8.9375,-17.4376
16:17:33.127,-8,-18.6876
16:17:33.137,-8.625,-17.5626
16:17:33.147,-8.5,-18.8126
16:17:33.157,-8.3125,-19.2501
16:17:33.167,-8.125,-20.0626
16:17:33.178,-7.625,-20.3751
16:17:33.187,-8.8125,-22.1251
16:17:33.197,-8.9375,-22.4376
16:17:33.207,-9.625,-24.0001
16:17:33.217,-9.9375,-23.4376
16:17:33.227,-9.875,-25.0626
16:17:33.237,-10.5,-25.9376
16:17:33.247,-11.4375,-28.1876
16:17:33.257,-12.0625,-29.1251
16:17:33.269,-12.5,-29.9376
16:17:33.277,-12.25,-30.6876
16:17:33.309,-12,-29.3751
16:17:33.314,-9.5625,-27.6251
16:17:33.320,-7.5625,-23.2501
16:17:33.325,-2.6875,-18.8751
16:17:33.328,0,-12.8125
16:17:33.337,3.625,-7.625
16:17:33.347,6.8125,-2.0625
16:17:33.359,9.75,2.6875
16:17:33.369,11.625,6.6875
16:17:33.380,13,9.4375
16:17:33.387,13.1251,10.875
16:17:33.399,13.3751,12.5
16:17:33.407,12.1875,13.5001
16:17:33.417,11.8125,12.5625
16:17:33.427,10.4375,13.6876
16:17:33.437,10.875,13
16:17:33.449,9,12.9375
16:17:33.458,9.0625,13.1876
16:17:33.468,9.375,12.625
16:17:33.477,9,13.0625
16:17:33.487,7.875,11.6875
16:17:33.498,7.125,12.9375
16:17:33.507,7.75,11.0625
16:17:33.517,6.75,11.875
16:17:33.527,6.875,9.625
16:17:33.539,5.625,7.8125
16:17:33.547,5.0625,8.125
16:17:33.557,4.6875,6.8125
16:17:33.568,4.125,6.125
16:17:33.580,3.5625,6.5
16:17:33.618,4.0625,5.3125
16:17:33.621,3.4375,4.125
16:17:33.654,3.8125,5
16:17:33.671,5,4.875
16:17:33.705,4,5.4375
16:17:33.743,4.1875,5
16:17:33.743,4.4375,6.0625
16:17:33.743,4.8125,5.875
16:17:33.743,4.625,5.5
16:17:33.747,4.4375,4.6875
16:17:33.751,4,6.1875
16:17:33.752,5.1875,5.3125
16:17:33.752,5.1875,5
16:17:33.764,3.75,2.9375
16:17:33.769,2.25,3.375
16:17:33.778,0.75,1.375
16:17:33.788,-0.1875,-0.8125
16:17:33.799,-1.125,-2.375
16:17:33.809,-2.25,-3.25
16:17:33.818,-2.1875,-3.4375
16:17:33.830,-0.875,-3.5
16:17:33.837,-0.8125,-4.25
16:17:33.850,0.75,-4.5
16:17:33.859,0.5,-5.875
16:17:33.870,0.875,-7.1875
16:17:33.877,0.9375,-7.625
16:17:33.887,1.6875,-7.125
16:17:33.900,1.75,-7.625
16:17:33.907,1.875,-9.6875
16:17:33.917,0,-12.375
16:17:33.927,0.5625,-13.1251
16:17:33.937,1.0625,-14.7501
16:17:33.947,1,-14.0001
16:17:33.957,1.25,-14.9376
16:17:33.967,2,-14.5626
16:17:33.977,1.4375,-14.8751
16:17:33.989,1.25,-16.3751
16:17:34.005,0.75,-17.2501
16:17:34.019,0.5625,-18.8751
16:17:34.023,0.125,-20.0626
16:17:34.027,-0.8125,-19.6876
16:17:34.037,-0.875,-20.9376
16:17:34.048,-1.8125,-23.1876
16:17:34.057,-3.0625,-23.3126
16:17:34.068,-3.9375,-26.8751
16:17:34.078,-5.625,-27.6251
16:17:34.087,-6,-29.0626
16:17:34.098,-5.8125,-30.1876
16:17:34.107,-6.125,-30.1251
16:17:34.118,-6,-31.3751
16:17:34.127,-6.4375,-30.7501
16:17:34.139,-5.625,-31.5626
16:17:34.147,-5.625,-30.3126
16:17:34.158,-2.4375,-27.0626
16:17:34.169,0.8125,-23.4376
16:17:34.187,4.625,-18.5626
16:17:34.189,7.8125,-13.1251
16:17:34.220,10.375,-8.125
16:17:34.223,13.8126,-1.875
16:17:34.225,15.0626,1.875
16:17:34.228,16.3751,5.625
16:17:34.259,16.8126,8.25
16:17:34.261,17.5001,10.1875
16:17:34.265,17.2501,12.9375
16:17:34.291,18.5001,13.4376
16:17:34.293,17.6251,14.8751
16:17:34.297,18.1876,14.0001
16:17:34.301,19.1251,16.9376
16:17:34.336,19.8751,16.5001
16:17:34.339,20.2501,18.8751
16:17:34.341,22.1876,18.5001
16:17:34.347,21.8126,20.1251
16:17:34.350,21.9376,19.4376
16:17:34.382,21.1876,18.8751
16:17:34.386,20.0001,17.5001
16:17:34.391,19.3126,16.5626
16:17:34.393,17.3126,14.6251
16:17:34.400,15.3126,14.0001
16:17:34.408,15.0626,12.6875
16:17:34.417,15.6251,11.8125
16:17:34.427,15.0001,11.4375
16:17:34.438,14.8751,12
16:17:34.449,15.6251,11.3125
16:17:34.457,15.0626,10.4375
16:17:34.468,15.0001,11.125
16:17:34.477,16.7501,10.6875
16:17:34.487,16.4376,10.9375
16:17:34.499,16.1876,10.875
16:17:34.507,16.0001,11.0625
16:17:34.517,15.8751,10.8125
16:17:34.528,15.2501,11.3125
16:17:34.538,14.5626,11.1875
16:17:34.549,13.6876,9.0625
16:17:34.557,12.3125,8.0625
16:17:34.591,11.5625,7.5
16:17:34.595,11.6875,6.4375
16:17:34.601,10.625,5.8125
16:17:34.611,9.6875,5.4375
16:17:34.611,10.375,4.3125
16:17:34.619,10.5625,3.375
16:17:34.627,9.6875,3.75
16:17:34.638,9.3125,1.625
16:17:34.649,8.1875,0.1875
16:17:34.657,7.375,-0.1875
16:17:34.671,7.75,-1.8125
16:17:34.679,6,-4.5
16:17:34.687,4.5,-5.0625
16:17:34.700,3.625,-7.125
16:17:34.708,2.625,-8
16:17:34.718,1.625,-8.6875
16:17:34.729,1.4375,-10.75
16:17:34.737,-0.25,-12.625
16:17:34.749,-1.0625,-13
16:17:34.758,-0.25,-13.5626
16:17:34.769,-0.25,-14.8126
16:17:34.779,0.1875,-12.25
16:17:34.787,1,-14.8126
16:17:34.800,0.5625,-13.6251
16:17:34.808,-0.1875,-15.8751
16:17:34.820,-0.25,-17.1876
16:17:34.828,-2,-17.6876
16:17:34.837,-2.5625,-19.6251
16:17:34.848,-4.375,-21.5001
16:17:34.857,-6.3125,-20.8126
16:17:34.868,-5.5625,-23.7501
16:17:34.880,-6.375,-23.5626
16:17:34.888,-6.375,-24.4376
16:17:34.898,-5.9375,-25.1876
16:17:34.908,-7,-26.5001
16:17:34.918,-7.25,-27.4376
16:17:34.928,-7.9375,-28.6876
16:17:34.939,-9.125,-29.3126
16:17:34.948,-9.875,-30.4376
16:17:34.958,-9.3125,-30.5626
16:17:35.015,-8.625,-29.0001
16:17:35.016,-6.4375,-26.6251
16:17:35.019,-5.5,-22.8126
16:17:35.020,-2.5625,-19.3126
16:17:35.058,-1.75,-14.2501
16:17:35.058,2.375,-9.625
16:17:35.058,3.6875,-4.125
16:17:35.059,6.625,-0.875
16:17:35.061,7.5,2.8125
16:17:35.067,9.125,4.6875
16:17:35.070,7.9375,6.6875
16:17:35.104,8.625,8.0625
16:17:35.107,7.0625,7.8125
16:17:35.111,6.25,7.75
16:17:35.112,5.3125,5.6875
16:17:35.144,3.3125,5.9375
16:17:35.144,2.4375,4.25
16:17:35.146,1.5,4.4375
16:17:35.152,-0.0625,2.625
16:17:35.166,-1.625,0.4375
16:17:35.168,-2.8125,-1
16:17:35.181,-4.5625,-1.5625
16:17:35.188,-5.75,-3.3125
16:17:35.198,-7,-4.5625
16:17:35.208,-7.625,-6.1875
16:17:35.217,-7.8125,-7.1875
16:17:35.228,-8.8125,-7.625
16:17:35.239,-9.0625,-7.875
16:17:35.248,-8.8125,-8.75
16:17:35.259,-9.375,-9.4375
16:17:35.269,-9.9375,-10.125
16:17:35.278,-11.125,-9.6875
16:17:35.298,-11.1875,-11.6875
16:17:35.305,-11.5,-11.375
16:17:35.319,-12.5,-11.3125
16:17:35.322,-11.8125,-11.3125
16:17:35.329,-12.375,-10.8125
16:17:35.339,-13.6251,-10.8125
16:17:35.348,-13.6251,-12.375
16:17:35.358,-14.5626,-13.1876
16:17:35.369,-14.8751,-13.8751
16:17:35.379,-15.2501,-14.6251
16:17:35.388,-15.1876,-14.9376
16:17:35.399,-15.5626,-15.0626
16:17:35.408,-15.5001,-15.1251
16:17:35.418,-15.6251,-15.0001
16:17:35.429,-16.5001,-17.3751
16:17:35.439,-17.9376,-18.8126
16:17:35.449,-19.0626,-20.0626
16:17:35.460,-20.3126,-23.0001
16:17:35.470,-21.0626,-24.0626
16:17:35.478,-21.5626,-24.8751
16:17:35.489,-23.2501,-26.9376
16:17:35.498,-22.9376,-27.5626
16:17:35.508,-23.8751,-28.0626
16:17:35.518,-22.4376,-28.2501
16:17:35.528,-23.1876,-28.5626
16:17:35.539,-23.3751,-28.9376
16:17:35.548,-23.4376,-30.6251
16:17:35.558,-22.6876,-30.7501
16:17:35.568,-24.4376,-31.2501
16:17:35.578,-24.3751,-32.5001
16:17:35.588,-25.1876,-33.3751
16:17:35.598,-24.8126,-34.0626
16:17:35.608,-25.4376,-33.7501
16:17:35.618,-25.3126,-35.4376
16:17:35.628,-27.5626,-36.7501
16:17:35.639,-27.3751,-37.6876
16:17:35.648,-28.0626,-39.2502
16:17:35.658,-28.8751,-39.4377
16:17:35.668,-28.8126,-40.1877
16:17:35.678,-29.1251,-42.0627
16:17:35.688,-30.8126,-43.4377
16:17:35.698,-30.3126,-44.0627
16:17:35.708,-30.0626,-43.3752
16:17:35.719,-28.8126,-42.2502
16:17:35.737,-27.4376,-39.6877
16:17:35.739,-24.8126,-34.9376
16:17:35.773,-20.8126,-30.3751
16:17:35.775,-17.5001,-23.8126
16:17:35.777,-13.5001,-19.3751
16:17:35.780,-10.375,-12.8125
16:17:35.815,-8.3125,-7.5625
16:17:35.818,-5.3125,-4
16:17:35.819,-4.8125,-0.8125
16:17:35.824,-2.75,1.75
16:17:35.830,-2.75,3.25
16:17:35.872,-3.1875,4.5
16:17:35.873,-2.9375,4
16:17:35.876,-4.125,4.3125
16:17:35.880,-3.75,3.6875
16:17:35.883,-5.125,5.125
16:17:35.887,-5.3125,3.5
16:17:35.906,-5.4375,4.125
16:17:35.920,-5.8125,3.8125
16:17:35.922,-6.875,1.875
16:17:35.928,-6.625,2.0625
16:17:35.938,-6.75,1
16:17:35.950,-6.25,2
16:17:35.958,-5.1875,2.125
16:17:35.970,-4.6875,2.3125
16:17:35.978,-3.8125,2.3125
16:17:35.988,-5.4375,1.6875
16:17:35.998,-5.5625,1.875
16:17:36.008,-5.5,-0.25
16:17:36.018,-6.625,-1.1875
16:17:36.029,-7.25,-1.6875
16:17:36.039,-7.625,-1.6875
16:17:36.048,-7.75,-2.75
16:17:36.058,-9.0625,-1.875
16:17:36.069,-8.875,-3.125
16:17:36.078,-8.5,-2.5625
16:17:36.088,-7.5625,-2.1875
16:17:36.099,-6.125,-1.625
16:17:36.108,-7.5625,-2.5
16:17:36.118,-6.9375,-0.1875
16:17:36.129,-5.8125,-1.3125
16:17:36.138,-6.75,-2.375
16:17:36.148,-8.5625,-3.5
16:17:36.158,-10.9375,-6.625
16:17:36.169,-15.2501,-9.9375
16:17:36.178,-18.0626,-13.5626
16:17:36.189,-21.3751,-16.3751
16:17:36.198,-24.8751,-19.4376
16:17:36.208,-24.8126,-21.6251
16:17:36.218,-25.3751,-20.6251
16:17:36.228,-25.5626,-21.8751
16:17:36.238,-26.3126,-21.9376
16:17:36.248,-26.5001,-22.9376
16:17:36.258,-26.4376,-23.6876
16:17:36.268,-26.5001,-23.5626
16:17:36.290,-24.8751,-23.6876
16:17:36.294,-24.7501,-22.6251
16:17:36.307,-23.5001,-22.4376
16:17:36.310,-23.0001,-21.4376
16:17:36.318,-21.7501,-21.1251
16:17:36.329,-21.0626,-19.7501
16:17:36.339,-21.2501,-21.5626
16:17:36.349,-20.8126,-20.8751
16:17:36.359,-20.9376,-21.3751
16:17:36.368,-20.3751,-21.2501
16:17:36.378,-20.2501,-20.3751
16:17:36.388,-21.0626,-21.0001
16:17:36.398,-20.7501,-20.8126
16:17:36.408,-20.5626,-20.8751
16:17:36.419,-18.1251,-19.9376
16:17:36.428,-17.9376,-17.6251
16:17:36.438,-16.8751,-18.5626
16:17:36.448,-16.5626,-17.0626
16:17:36.459,-16.4376,-17.5626
16:17:36.468,-17.6251,-19.0001
16:17:36.478,-19.6876,-20.2501
16:17:36.509,-17.9376,-20.5626
16:17:36.512,-17.5626,-19.0001
16:17:36.515,-16.8751,-20.1876
16:17:36.519,-16.8126,-19.1876
16:17:36.550,-14.7501,-18.0001
16:17:36.552,-13.9376,-16.0001
16:17:36.554,-12.5,-15.3751
16:17:36.560,-9.0625,-11
16:17:36.590,-5.25,-6.4375
16:17:36.592,-0.6875,-0.3125
16:17:36.606,3.9375,7.125
16:17:36.609,7.25,10.9375
16:17:36.639,10.25,15.9376
16:17:36.640,13.2501,20.2501
16:17:36.642,15.3126,23.3751
16:17:36.649,16.3751,27.3751
16:17:36.650,19.8751,29.0626
16:17:36.674,21.8751,31.6251
16:17:36.676,23.7501,32.3751
16:17:36.679,23.5001,31.9376
16:17:36.690,23.0001,30.1251
16:17:36.698,22.2501,27.8126
16:17:36.708,19.8126,26.0001
16:17:36.719,18.8751,22.3126
16:17:36.728,15.8126,18.6251
16:17:36.739,13.0625,15.9376
16:17:36.748,11.25,10.3125
16:17:36.758,7.375,5.375
16:17:36.768,3.625,0.5
16:17:36.778,-0.25,-5.25
16:17:36.788,-4.0625,-10.375
16:17:36.799,-7.8125,-14.6251
16:17:36.808,-10.25,-18.3126
16:17:36.818,-13.0625,-22.1251
16:17:36.829,-15.7501,-27.6251
16:17:36.838,-17.6251,-30.7501
16:17:36.848,-20.1876,-35.0001
16:17:36.859,-22.4376,-35.8126
16:17:36.869,-22.6876,-38.6876
16:17:36.878,-24.1876,-41.3127
16:17:36.888,-25.6876,-43.4377
16:17:36.898,-27.0626,-44.9377
16:17:36.908,-29.0626,-46.3127
16:17:36.918,-30.3126,-48.6877
16:17:36.928,-30.9376,-51.0627
16:17:36.938,-33.5626,-53.3127
16:17:36.948,-34.9376,-54.8127
16:17:36.959,-36.6251,-56.7502
16:17:36.968,-38.6876,-58.1252
16:17:36.979,-39.9377,-61.0002
16:17:36.988,-41.0002,-61.0627
16:17:36.998,-42.4377,-64.0002
16:17:37.008,-43.4377,-64.5627
16:17:37.018,-44.5627,-68.0003
16:17:37.028,-45.1877,-68.9378
16:17:37.065,-46.3752,-70.6253
16:17:37.067,-47.9377,-71.9378
16:17:37.070,-47.7502,-73.5003
16:17:37.075,-50.2502,-75.6253
16:17:37.085,-51.6252,-76.5628
16:17:37.094,-52.7502,-76.7503
16:17:37.103,-53.0627,-77.5003
16:17:37.113,-53.0627,-78.6878
16:17:37.123,-53.1877,-77.5628
16:17:37.151,-53.0002,-78.5628
16:17:37.156,-52.9377,-77.5003
16:17:37.158,-52.5627,-78.8128
16:17:37.163,-51.7502,-75.7503
16:17:37.193,-50.8752,-75.8128
16:17:37.200,-48.1877,-73.6253
16:17:37.203,-46.3752,-71.8128
16:17:37.206,-42.6877,-67.6878
16:17:37.220,-40.1877,-67.2503
16:17:37.224,-37.1251,-65.3127
16:17:37.234,-34.2501,-62.4377
16:17:37.276,-32.3126,-61.3127
16:17:37.278,-30.6251,-59.5627
16:17:37.281,-28.5001,-58.9377
16:17:37.283,-28.1251,-57.6877
16:17:37.287,-26.8126,-57.1877
16:17:37.319,-25.0626,-57.1877
16:17:37.323,-24.3751,-57.4377
16:17:37.324,-23.2501,-56.6877
16:17:37.326,-23.1876,-58.0002
16:17:37.333,-23.5001,-59.0627
16:17:37.353,-24.2501,-60.9377
16:17:37.355,-25.3126,-62.5002
16:17:37.363,-25.3751,-64.0002
16:17:37.373,-25.5626,-64.3752
16:17:37.383,-25.6251,-64.1877
16:17:37.393,-25.0001,-62.3752
16:17:37.403,-23.5001,-58.3752
16:17:37.413,-21.5626,-55.3752
16:17:37.424,-20.3751,-51.5002
16:17:37.433,-17.8751,-47.8127
16:17:37.443,-16.9376,-43.3752
16:17:37.453,-15.3751,-41.0002
16:17:37.463,-14.6876,-39.9377
16:17:37.473,-14.7501,-38.1251
16:17:37.483,-15.5001,-37.9376
16:17:37.493,-15.4376,-38.2501
16:17:37.504,-16.3751,-39.1252
16:17:37.516,-17.8126,-39.3126
16:17:37.524,-18.5001,-40.5627
16:17:37.533,-20.2501,-41.3127
16:17:37.544,-21.3126,-42.8127
16:17:37.553,-22.9376,-45.1877
16:17:37.563,-25.1876,-45.2502
16:17:37.573,-25.9376,-48.4377
16:17:37.594,-28.6251,-49.5627
16:17:37.596,-30.3126,-53.0002
16:17:37.611,-32.6251,-54.1252
16:17:37.615,-34.1251,-55.8752
16:17:37.623,-35.6876,-58.4377
16:17:37.634,-37.0626,-59.6252
16:17:37.643,-37.1876,-61.0002
16:17:37.653,-36.8751,-59.3752
16:17:37.663,-35.0626,-59.6252
16:17:37.675,-33.0626,-58.7502
16:17:37.683,-34.7501,-57.7502
16:17:37.695,-36.2501,-58.3127
16:17:37.705,-37.4376,-59.0627
16:17:37.714,-37.7501,-58.3752
16:17:37.724,-37.6251,-58.7502
16:17:37.733,-39.5002,-59.0627
16:17:37.743,-39.9377,-58.1252
16:17:37.754,-39.5627,-58.6252
16:17:37.765,-39.3752,-58.2502
16:17:37.773,-40.8127,-58.4377
16:17:37.783,-42.4377,-60.5002
16:17:37.796,-44.6252,-61.6877
16:17:37.807,-45.6252,-62.5627
16:17:37.814,-46.8752,-61.6877
16:17:37.823,-45.8752,-61.6877
16:17:37.833,-45.5627,-61.3127
16:17:37.843,-43.9377,-58.6252
16:17:37.853,-41.5627,-57.9377
16:17:37.864,-40.1252,-54.8752
16:17:37.874,-38.1251,-53.0627
16:17:37.883,-36.7501,-52.1252
16:17:37.901,-35.1251,-50.5002
16:17:37.908,-33.9376,-49.0627
16:17:37.922,-31.3126,-48.5627
16:17:37.924,-29.8126,-47.6252
16:17:37.933,-28.4376,-46.2502
16:17:37.943,-27.2501,-45.5002
16:17:37.961,-27.0626,-44.9377
16:17:37.966,-25.0001,-42.8752
16:17:38.003,-23.1251,-41.3752
16:17:38.005,-21.0001,-40.9377
16:17:38.007,-19.6251,-39.3127
16:17:38.010,-17.3751,-38.0001
16:17:38.016,-16.3751,-37.5001
16:17:38.047,-14.8126,-37.5001
16:17:38.047,-14.3751,-37.6876
16:17:38.050,-14.0626,-38.1876
16:17:38.079,-14.5626,-38.5626
16:17:38.082,-14.1876,-38.2501
16:17:38.086,-14.6876,-41.6877
16:17:38.113,-16.6251,-41.5627
16:17:38.113,-17.0001,-44.1877
16:17:38.116,-17.4376,-45.3752
16:17:38.122,-18.7501,-46.6252
16:17:38.124,-19.4376,-46.6252
16:17:38.134,-18.5001,-46.9377
16:17:38.143,-17.5626,-44.0002
16:17:38.153,-15.8126,-42.3127
16:17:38.163,-14.0626,-37.0626
16:17:38.176,-12.125,-35.0001
16:17:38.184,-10.25,-30.0626
16:17:38.194,-8.625,-28.1876
16:17:38.204,-8.5,-24.1251
16:17:38.213,-8.375,-23.5626
16:17:38.223,-8.4375,-20.7501
16:17:38.235,-8.3125,-21.0001
16:17:38.243,-9,-20.5626
16:17:38.255,-9.75,-20.3751
16:17:38.263,-10.875,-21.0001
16:17:38.273,-11.6875,-21.1876
16:17:38.283,-13.3751,-23.9376
16:17:38.293,-15.2501,-24.7501
16:17:38.303,-17.2501,-27.6251
16:17:38.313,-19.9376,-28.0001
16:17:38.325,-22.2501,-31.9376
16:17:38.333,-24.6251,-33.0626
16:17:38.343,-26.3751,-35.1876
16:17:38.354,-28.1251,-36.8126
16:17:38.365,-28.5626,-37.8751
16:17:38.374,-27.3126,-37.9376
16:17:38.383,-27.3751,-37.1876
16:17:38.394,-24.2501,-36.8126
16:17:38.403,-25.1251,-34.8126
16:17:38.430,-25.4376,-36.8751
16:17:38.432,-27.9376,-36.9376
16:17:38.434,-28.6251,-38.9376
16:17:38.443,-33.6251,-39.7502
16:17:38.455,-37.6251,-42.8127
16:17:38.464,-40.1877,-41.6252
16:17:38.473,-38.0626,-40.0002
16:17:38.483,-37.8126,-38.6251
16:17:38.493,-38.0626,-40.7502
16:17:38.505,-39.5002,-40.2502
16:17:38.513,-39.1251,-41.2502
16:17:38.524,-39.6252,-38.8751
16:17:38.534,-37.6251,-38.3126
16:17:38.545,-36.3751,-35.7501
16:17:38.558,-36.0001,-34.8751
16:17:38.565,-34.6876,-33.9376
16:17:38.573,-35.4376,-33.2501
16:17:38.583,-34.1251,-33.1876
16:17:38.593,-32.2501,-32.2501
16:17:38.603,-29.5626,-29.5626
16:17:38.616,-27.0626,-28.1876
16:17:38.625,-24.8126,-26.7501
16:17:38.633,-24.1251,-26.9376
16:17:38.646,-23.2501,-25.0626
16:17:38.653,-22.3126,-25.0626
16:17:38.677,-20.8126,-23.5626
16:17:38.679,-18.5001,-22.5626
16:17:38.709,-15.0626,-20.3126
16:17:38.711,-13,-18.3126
16:17:38.713,-10.5,-16.9376
16:17:38.716,-9.5625,-17.1251
16:17:38.750,-7.9375,-16.8751
16:17:38.753,-6.4375,-15.9376
16:17:38.754,-4.5625,-16.0001
16:17:38.758,-3.0625,-15.3126
16:17:38.766,-1.25,-15.3126
16:17:38.804,0.5,-14.5626
16:17:38.805,1.4375,-12.9375
16:17:38.808,2.1875,-14.1876
16:17:38.809,1.5,-15.2501
16:17:38.815,0.6875,-18.2501
16:17:38.839,-1.4375,-19.6876
16:17:38.843,-4.5,-23.9376
16:17:38.845,-6,-26.5001
16:17:38.853,-7.25,-30.0626
16:17:38.865,-9.8125,-31.2501
16:17:38.875,-11.4375,-34.2501
16:17:38.891,-12.4375,-35.4376
16:17:38.906,-12.6875,-38.1876
16:17:38.909,-12.4375,-37.9376
16:17:38.914,-12.5,-37.8751
16:17:38.929,-10.9375,-37.1876
16:17:38.934,-8.9375,-33.6876
16:17:38.945,-6.625,-30.7501
16:17:38.954,-5.3125,-25.9376
16:17:38.965,-3.125,-21.9376
16:17:38.974,-2.3125,-17.5626
16:17:38.983,0.0625,-12.6875
16:17:38.994,0.6875,-9.6875
16:17:39.003,0.9375,-7.4375
16:17:39.013,-0.375,-5.8125
16:17:39.025,-0.125,-6.0625
16:17:39.033,-1.875,-5.625
16:17:39.043,-2.3125,-5.875
16:17:39.053,-4.1875,-6.625
16:17:39.064,-5.5,-5.5
16:17:39.074,-6.1875,-6.625
16:17:39.083,-6.1875,-5.875
16:17:39.095,-5.75,-5.9375
16:17:39.103,-5.4375,-5.5625
16:17:39.114,-5.25,-4
16:17:39.125,-6.0625,-5.3125
16:17:39.135,-14.6876,-10.0625
16:17:39.144,-19.2501,-14.9376
16:17:39.157,-20.1876,-13.9376
16:17:39.166,-20.5626,-14.5001
16:17:39.173,-20.9376,-14.1876
16:17:39.186,-22.3751,-16.7501
16:17:39.202,-25.0001,-18.2501
16:17:39.209,-24.3751,-18.3751
16:17:39.224,-24.8751,-17.1251
16:17:39.227,-22.6876,-15.3126
16:17:39.235,-21.1876,-13.5626
16:17:39.245,-18.6876,-12.3125
16:17:39.254,-16.7501,-8.5
16:17:39.263,-14.6251,-6.3125
16:17:39.273,-12.0625,-4.25
16:17:39.285,-10.5,-2.6875
16:17:39.293,-9.375,-0.625
16:17:39.305,-8.4375,0.25
16:17:39.314,-6.6875,2.125
16:17:39.325,-4.6875,5.375
16:17:39.334,-2.6875,5.4375
16:17:39.343,-1.0625,7.1875
16:17:39.355,1.3125,8.5
16:17:39.365,2.6875,8.375
16:17:39.375,4.375,9.25
16:17:39.385,5.375,9.1875
16:17:39.395,5.4375,9.0625
16:17:39.404,7,9.625
16:17:39.420,7.25,9.3125
16:17:39.423,8.9375,7.8125
16:17:39.463,8.6875,7.6875
16:17:39.464,10.0625,8.125
16:17:39.468,11.125,6.9375
16:17:39.473,11.25,5.6875
16:17:39.478,11.25,5.625
16:17:39.484,9.5625,1.3125
16:17:39.523,8.125,-0.0625
16:17:39.525,5.6875,-4.125
16:17:39.528,2.375,-7.8125
16:17:39.535,0.8125,-9.625
16:17:39.535,-0.6875,-12.4375
16:17:39.570,-2.3125,-15.0626
16:17:39.571,-2.8125,-18.0001
16:17:39.575,-4.3125,-20.8126
16:17:39.577,-7.0625,-23.0626
16:17:39.591,-8.5625,-25.6876
16:17:39.594,-9.9375,-28.2501
16:17:39.605,-11.6875,-30.7501
16:17:39.614,-13.6876,-32.8751
16:17:39.625,-15.5626,-34.0626
16:17:39.634,-17.5001,-36.3126
16:17:39.644,-19.3126,-39.6877
16:17:39.654,-22.6876,-42.6252
16:17:39.666,-24.5001,-46.1252
16:17:39.680,-28.4376,-48.9377
16:17:39.710,-30.8751,-50.1877
16:17:39.712,-32.2501,-53.0002
16:17:39.715,-33.1251,-54.5002
16:17:39.719,-32.5626,-55.1252
16:17:39.729,-30.6251,-51.4377
16:17:39.739,-27.8751,-48.5627
16:17:39.750,-24.5001,-44.1252
16:17:39.759,-19.6251,-36.6876
16:17:39.771,-15.6876,-32.0626
16:17:39.779,-9.4375,-24.6876
16:17:39.789,-7.1875,-17.0626
16:17:39.799,-5.875,-11.125
16:17:39.809,-4.375,-7.75
16:17:39.819,-2.75,-3.625
16:17:39.831,-3.25,-0.375
16:17:39.840,-5.25,-1.75
16:17:39.849,-6.125,1.0625
16:17:39.858,-7.125,1.25
16:17:39.871,-7.125,2
16:17:39.880,-7.375,2.4375
16:17:39.889,-7.8125,1.375
16:17:39.902,-9.125,0.5625
16:17:39.909,-9.375,0.3125
16:17:39.920,-9.3125,1
16:17:39.929,-8.9375,1.125
16:17:39.939,-9,1.1875
16:17:39.949,-8,1.875
16:17:39.960,-8.75,2.4375
16:17:39.969,-7.8125,1.5
16:17:39.979,-7.875,3.375
16:17:39.989,-5.4375,4.375
16:17:40.001,-4.25,5.1875
16:17:40.010,-2.75,7.6875
16:17:40.018,-0.75,8.25
16:17:40.029,-0.3125,9
16:17:40.039,1.5,10.625
16:17:40.052,3.375,12
16:17:40.064,4,13.9376
16:17:40.069,5.5625,14.1876
16:17:40.080,6.4375,15.7501
16:17:40.121,7.25,17.8751
16:17:40.123,9,17.8126
16:17:40.125,10.3125,18.3126
16:17:40.127,10.875,19.9376
16:17:40.129,13.8751,20.1876
16:17:40.166,14.0001,20.7501
16:17:40.167,14.5626,21.4376
16:17:40.170,15.5626,20.5626
16:17:40.213,15.0001,21.4376
16:17:40.215,15.6251,20.0001
16:17:40.277,15.0001,17.1251
16:17:40.278,14.0001,17.0001
16:17:40.280,13.9376,14.8126
16:17:40.280,12.8125,12.375
16:17:40.281,11.0625,9.9375
16:17:40.283,9.6875,8.125
16:17:40.293,8.9375,7.3125
16:17:40.293,8.25,5.625
16:17:40.295,7.625,2.625
16:17:40.305,5.875,-0.3125
16:17:40.314,4.5625,-1.5
16:17:40.324,3.6875,-3.5625
16:17:40.335,2.5625,-5.875
16:17:40.344,0.875,-7.875
16:17:40.354,-0.5,-9.875
16:17:40.364,-2.4375,-11.3125
16:17:40.374,-4.5,-12.9375
16:17:40.384,-6.25,-14.6876
16:17:40.395,-7.0625,-17.4376
16:17:40.404,-9.0625,-20.1876
16:17:40.414,-14.4376,-27.5626
16:17:40.429,-16.8126,-30.8126
16:17:40.437,-19.2501,-33.0001
16:17:40.445,-20.6251,-35.1876
16:17:40.454,-21.4376,-35.5626
16:17:40.464,-21.6876,-35.5001
16:17:40.475,-20.5626,-31.6876
16:17:40.484,-20.2501,-31.6876
16:17:40.503,-18.0626,-26.9376
16:17:40.510,-13.2501,-18.3126
16:17:40.525,-9.25,-12.4375
16:17:40.528,-5.8125,-5.4375
16:17:40.538,-2.5625,2.25
16:17:40.545,-0.9375,4.75
16:17:40.554,-2.8125,6.0625
16:17:40.564,-1.0625,10.375
16:17:40.574,-0.375,12.5
16:17:40.585,1.5625,16.5001
16:17:40.594,5.5625,21.8126
16:17:40.604,7.75,26.4376
16:17:40.614,9.4375,28.5626
16:17:40.624,7.9375,27.6251
16:17:40.634,8.5625,28.6251
16:17:40.644,9.875,29.9376
16:17:40.654,11.5625,31.1876
16:17:40.664,13.4376,33.8751
16:17:40.674,15.0001,33.8751
16:17:40.684,14.9376,35.2501
16:17:40.694,16.0001,37.2501
16:17:40.704,17.3751,36.0001
16:17:40.714,18.2501,37.6876
16:17:40.726,20.2501,39.0001
16:17:40.735,22.5626,39.5627
16:17:40.744,23.0001,39.4377
16:17:40.754,24.1876,39.1252
16:17:40.764,25.3751,41.3752
16:17:40.775,26.1876,41.6877
16:17:40.784,27.5626,40.8127
16:17:40.799,28.7501,40.8127
16:17:40.806,30.1251,42.1252
16:17:40.829,31.3126,43.7502
16:17:40.832,31.6251,43.5627
16:17:40.834,31.4376,43.0627
16:17:40.867,32.8751,42.2502
16:17:40.870,32.2501,41.0002
16:17:40.873,31.0001,40.0627
16:17:40.876,30.8751,38.6876
16:17:40.903,29.6876,36.9376
16:17:40.905,28.7501,33.6251
16:17:40.908,26.5001,29.5626
16:17:40.916,22.6251,26.0626
16:17:40.947,19.5001,22.3751
16:17:40.950,17.1251,19.9376
16:17:40.953,15.2501,16.1876
16:17:40.955,13.3126,11.8125
16:17:40.992,11.375,9.75
16:17:40.993,10.0625,9.125
16:17:40.996,9.6875,5.8125
16:17:40.998,8.875,3.1875
16:17:41.005,5.9375,1.25
16:17:41.019,4.25,-1.5
16:17:41.024,3.0625,-3.3125
16:17:41.034,1,-6.25
16:17:41.044,-1.5625,-9.1875
16:17:41.055,-4.125,-12
16:17:41.064,-6.9375,-15.6876
16:17:41.102,-9.3125,-19.2501
16:17:41.104,-12.1875,-22.5626
16:17:41.105,-14.4376,-24.5001
16:17:41.112,-16.3126,-26.6251
16:17:41.120,-16.6876,-29.1876
16:17:41.131,-18.5001,-31.1876
16:17:41.141,-19.1251,-31.4376
16:17:41.151,-20.1876,-32.0001
16:17:41.164,-19.5001,-33.9376
16:17:41.169,-20.6251,-35.0626
16:17:41.179,-21.0001,-34.2501
16:17:41.189,-21.5626,-35.3751
16:17:41.202,-21.9376,-37.4376
16:17:41.211,-24.0001,-39.3752
16:17:41.220,-25.3751,-41.0002
16:17:41.229,-26.6251,-40.6877
16:17:41.240,-28.5001,-44.2502
16:17:41.249,-29.8751,-45.1252
16:17:41.259,-30.6876,-46.8752
16:17:41.269,-31.1876,-47.5627
16:17:41.279,-31.5626,-47.2502
16:17:41.289,-32.1876,-46.4377
16:17:41.299,-29.6876,-43.1252
16:17:41.309,-26.5626,-37.7501
16:17:41.319,-21.4376,-30.1251
16:17:41.329,-15.7501,-22.7501
16:17:41.340,-11.375,-13.4376
16:17:41.349,-5.875,-5.875
16:17:41.359,-2.0625,2.125
16:17:41.370,2.25,7.25
16:17:41.379,6.75,13
16:17:41.395,10.125,19.1876
16:17:41.399,12.75,22.0001
16:17:41.410,14.3751,26.5626
16:17:41.419,17.0001,29.1251
16:17:41.429,18.5001,31.6251
16:17:41.439,21.1876,33.7501
16:17:41.449,23.1251,35.4376
16:17:41.460,24.7501,38.0626
16:17:41.471,27.6876,38.9376
16:17:41.479,29.0001,40.3127
16:17:41.490,31.0001,42.4377
16:17:41.502,31.8751,42.1877
16:17:41.510,32.6876,43.1252
16:17:41.527,34.9376,42.9377
16:17:41.529,35.5001,42.1252
16:17:41.544,36.5001,42.4377
16:17:41.552,37.1876,42.3752
16:17:41.561,37.6876,40.8752
16:17:41.571,37.0626,40.5627
16:17:41.595,36.0001,38.8751
16:17:41.598,34.1876,35.4376
16:17:41.601,32.1876,31.9376
16:17:41.637,30.0626,30.0626
16:17:41.640,27.5001,27.7501
16:17:41.642,24.8126,24.3126
16:17:41.646,21.9376,21.0001
16:17:41.650,19.8751,19.3126
16:17:41.689,17.6251,17.0001
16:17:41.691,16.0626,15.6251
16:17:41.693,16.0626,13.8126
16:17:41.696,14.8751,13.1251
16:17:41.699,14.3751,12.0625
16:17:41.729,12.375,9.3125
16:17:41.733,9.3125,6.8125
16:17:41.735,7.75,4.4375
16:17:41.741,4.3125,1.8125
16:17:41.753,0.5,-1.4375
16:17:41.760,-2.4375,-5.875
16:17:41.769,-5.6875,-8.25
16:17:41.780,-8.0625,-11.5625
16:17:41.789,-9.5625,-14.3751
16:17:41.811,-10.75,-16.0626
16:17:41.818,-11.75,-17.0626
16:17:41.834,-12.8125,-18.1876
16:17:41.836,-14.1251,-19.6876
16:17:41.851,-15.7501,-21.7501
16:17:41.853,-15.5001,-22.3126
16:17:41.860,-16.2501,-22.4376
16:17:41.870,-17.7501,-24.1251
16:17:41.880,-18.9376,-25.4376
16:17:41.890,-19.9376,-27.3126
16:17:41.901,-21.1876,-28.5626
16:17:41.911,-22.8751,-29.8126
16:17:41.921,-24.0001,-30.7501
16:17:41.931,-23.5626,-30.6251
16:17:41.939,-23.0001,-29.1876
16:17:41.949,-23.3126,-30.1251
16:17:41.959,-22.4376,-29.6251
16:17:41.969,-22.3751,-30.5626
16:17:41.979,-20.4376,-28.5626
16:17:41.989,-20.6251,-28.9376
16:17:42.000,-19.8126,-28.1251
16:17:42.010,-21.0001,-29.5626
16:17:42.019,-19.5001,-28.0626
16:17:42.029,-19.5001,-27.7501
16:17:42.040,-18.6251,-28.3126
16:17:42.049,-18.8751,-28.3751
16:17:42.059,-19.5626,-28.5001
16:17:42.069,-19.8751,-30.3751
16:17:42.079,-20.2501,-30.3126
16:17:42.089,-19.0001,-29.5001
16:17:42.100,-17.7501,-27.8126
16:17:42.109,-14.4376,-23.9376
16:17:42.126,-11.0625,-19.1251
16:17:42.134,-7.9375,-13.5626
16:17:42.149,-2.375,-6.4375
16:17:42.154,0.375,0.375
16:17:42.165,4.25,6.9375
16:17:42.175,7.375,12.375
16:17:42.185,9.75,18.1251
16:17:42.195,11.6875,22.2501
16:17:42.206,14.2501,26.3126
16:17:42.215,15.5626,30.6251
16:17:42.224,16.7501,31.8751
16:17:42.234,17.6251,34.0626
16:17:42.244,18.4376,35.0001
16:17:42.269,17.3751,35.4376
16:17:42.272,18.4376,36.0001
16:17:42.276,17.6251,36.3126
16:17:42.285,17.0626,36.1876
16:17:42.295,16.2501,35.8751
16:17:42.341,15.5626,34.8751
16:17:42.341,15.1876,34.6251
16:17:42.343,13.1251,33.7501
16:17:42.346,13.5626,31.6251
16:17:42.349,12.1875,30.2501
16:17:42.356,12.375,30.7501
16:17:42.387,12.9375,30.3751
16:17:42.390,12.3125,29.6251
16:17:42.393,12.25,31.4376
16:17:42.394,12.75,30.0001
16:17:42.425,13.1251,30.1876
16:17:42.427,13.0625,30.1876
16:17:42.429,13.4376,31.5626
16:17:42.436,14.4376,32.0001
16:17:42.464,15.0001,31.5001
16:17:42.466,14.3126,31.4376
16:17:42.468,13.9376,33.4376
16:17:42.487,14.9376,32.9376
16:17:42.490,14.5626,32.3126
16:17:42.494,13.5626,31.5626
16:17:42.505,13.1876,31.0001
16:17:42.519,13.4376,31.8751
16:17:42.526,13.0625,30.7501
16:17:42.537,13.1876,29.8126
16:17:42.544,12.75,30.5001
16:17:42.555,12.5,29.1876
16:17:42.564,11.75,27.5001
16:17:42.574,11.3125,27.5626
16:17:42.585,11.375,25.3751
16:17:42.594,9.875,23.6251
16:17:42.605,9.625,23.0001
16:17:42.615,9.875,23.6876
16:17:42.625,8.875,20.6876
16:17:42.635,8.1875,20.8751
16:17:42.645,7.5625,20.3126
16:17:42.657,7.8125,17.6251
16:17:42.665,7,18.3126
16:17:42.674,7.3125,17.3751
16:17:42.685,7.75,15.8751
16:17:42.694,6.5,14.0626
16:17:42.704,5.75,15.0626
16:17:42.714,5.9375,13.4376
16:17:42.724,5.625,12.1875
16:17:42.734,4.5,11.8125
16:17:42.745,4.375,11.75
16:17:42.754,5.1875,10.1875
16:17:42.767,4.625,9.5
16:17:42.774,4.6875,10.1875
16:17:42.784,4.5625,9.125
16:17:42.795,4.5625,7.875
16:17:42.806,4.5,6.75
16:17:42.814,2.9375,5.1875
16:17:42.833,2.125,4.9375
16:17:42.846,2.1875,4.0625
16:17:42.849,2,1.75
16:17:42.863,0.8125,1.4375
16:17:42.866,0.625,1.625
16:17:42.874,1.4375,-0.125
16:17:42.884,1.125,-0.4375
16:17:42.894,1.875,1.9375
16:17:42.904,3.25,4.4375
16:17:42.916,6.5625,6.6875
16:17:42.926,9.1875,11.375
16:17:42.935,13.4376,18.5001
16:17:42.944,16.4376,23.4376
16:17:42.954,18.7501,29.6876
16:17:42.964,20.8751,35.0626
16:17:42.974,24.4376,39.0626
16:17:42.985,26.1251,43.3752
16:17:42.997,28.0626,46.6252
16:17:43.005,29.0626,50.0002
16:17:43.015,29.6876,54.1252
16:17:43.025,30.6251,55.5627
16:17:43.053,31.7501,55.3752
16:17:43.056,31.1876,56.8127
16:17:43.058,31.6251,56.6877
16:17:43.064,30.9376,56.5627
16:17:43.101,31.0626,57.1252
16:17:43.102,29.9376,57.9377
16:17:43.211,30.5626,56.2502
16:17:43.215,29.8126,55.0627
16:17:43.215,29.2501,55.5002
16:17:43.215,29.3751,53.7502
16:17:43.226,27.7501,51.9377
16:17:43.227,27.4376,52.5002
16:17:43.227,27.2501,50.6877
16:17:43.235,27.1251,50.0002
16:17:43.244,26.0001,48.8752
16:17:43.256,25.9376,48.1877
16:17:43.272,25.6251,46.8752
16:17:43.276,25.1251,46.2502
16:17:43.285,24.8126,47.1877
16:17:43.299,26.2501,47.0002
16:17:43.308,25.9376,46.8752
16:17:43.315,25.7501,47.5002
16:17:43.327,25.9376,48.6877
16:17:43.337,26.9376,48.0002
16:17:43.349,26.8126,47.8127
16:17:43.354,26.5626,47.0002
16:17:43.365,26.5001,46.7502
16:17:43.376,26.6251,46.9377
16:17:43.387,26.4376,46.5002
16:17:43.398,25.0626,42.5627
16:17:43.406,23.0001,40.3752
16:17:43.416,21.8751,40.0002
16:17:43.426,21.9376,38.1251
16:17:43.436,21.5001,35.7501
16:17:43.447,20.1876,34.6251
16:17:43.457,19.1876,33.6876
16:17:43.467,18.9376,32.7501
16:17:43.474,18.3126,29.8751
16:17:43.486,17.3751,28.2501
16:17:43.496,16.4376,27.1251
16:17:43.506,16.3126,27.3126
16:17:43.516,16.5626,25.2501
16:17:43.526,15.3126,23.0626
16:17:43.551,14.8126,22.2501
16:17:43.559,15.3126,21.8751
16:17:43.565,13.7501,19.3751
16:17:43.566,13.5001,18.8751
16:17:43.576,13,18.1876
16:17:43.586,12.1875,16.8126
16:17:43.597,12.5625,15.5626
16:17:43.606,11.8125,14.3126
16:17:43.616,11.25,14.5001
16:17:43.627,11.25,13.6251
16:17:43.635,11.6875,12.75
16:17:43.647,10.6875,11.125
16:17:43.657,9.5,9.4375
16:17:43.665,8.75,8.4375
16:17:43.674,7.625,8.25
16:17:43.685,8,5.875
16:17:43.696,7.125,4.375
16:17:43.706,6.5625,3.9375
16:17:43.715,5.6875,3
16:17:43.727,5.5625,1.75
16:17:43.736,4.625,-0.625
16:17:43.746,3.875,-1.625
16:17:43.756,3.3125,-2.25
16:17:43.765,3.875,-2.75
16:17:43.776,3.625,-3.625
16:17:43.810,4.8125,-1.9375
16:17:43.813,7.1875,1.625
16:17:43.854,10.4375,5.0625
16:17:43.856,12.5625,10.0625
16:17:43.859,16.1876,16.8751
16:17:43.869,20.6251,23.0626
16:17:43.869,23.9376,28.3751
16:17:43.869,26.1876,35.0001
16:17:43.870,28.2501,39.7502
16:17:43.897,30.8126,43.4377
16:17:43.899,31.2501,45.8127
16:17:43.902,32.0626,47.5002
16:17:43.911,32.6251,51.2502
16:17:43.946,33.5626,52.2502
16:17:43.950,33.1251,52.3127
16:17:43.953,32.9376,54.2502
16:17:43.956,32.9376,53.1877
16:17:43.961,32.5001,52.5627
16:17:43.971,31.8751,53.6252
16:17:43.981,30.9376,53.3752
16:17:43.991,31.5001,52.2502
16:17:44.000,30.7501,51.4377
16:17:44.011,30.5626,50.9377
16:17:44.027,29.1876,49.0627
16:17:44.031,28.8126,47.9377
16:17:44.041,27.5001,46.8752
16:17:44.051,26.3751,45.0627
16:17:44.061,26.0001,45.4377
16:17:44.071,26.6251,44.2502
16:17:44.081,25.6876,43.2502
16:17:44.091,24.6251,41.9377
16:17:44.101,25.0626,41.7502
16:17:44.111,24.2501,43.3127
16:17:44.132,25.3751,42.6877
16:17:44.135,25.0626,41.7502
16:17:44.143,25.0626,43.5627
16:17:44.151,25.5001,42.8752
16:17:44.166,25.0626,41.7502
16:17:44.174,25.2501,42.6252
16:17:44.181,24.5001,42.9377
16:17:44.191,24.3751,41.8127
16:17:44.201,23.7501,39.7502
16:17:44.211,23.7501,40.8127
16:17:44.221,23.6251,39.5002
16:17:44.232,22.1876,37.3751
16:17:44.243,21.5001,37.5626
16:17:44.253,20.9376,36.0001
16:17:44.261,20.8126,34.5626
16:17:44.271,19.7501,32.8751
16:17:44.281,18.6876,32.9376
16:17:44.291,18.6876,31.3126
16:17:44.301,18.8126,29.1251
16:17:44.311,17.6876,27.5626
16:17:44.323,16.5626,26.3751
16:17:44.331,16.0001,24.9376
16:17:44.342,14.8751,25.1876
16:17:44.351,15.1251,23.3751
16:17:44.361,14.3126,20.8751
16:17:44.371,13.3751,20.5001
16:17:44.381,13.7501,19.0001
16:17:44.391,13.1876,17.9376
16:17:44.401,11.6875,16.0626
16:17:44.412,11.25,15.7501
16:17:44.422,11.125,15.7501
16:17:44.431,11.125,13.8751
16:17:44.440,10.25,11.625
16:17:44.469,9.5625,12.5625
16:17:44.496,8.8125,11.625
16:17:44.498,9.3125,10.5
16:17:44.562,9.125,8.5625
16:17:44.565,8.375,7.5625
16:17:44.567,7.0625,7.6875
16:17:44.567,6.75,6.625
16:17:44.571,6.5,4.5
16:17:44.602,6.0625,3.5
16:17:44.604,5.25,2.625
16:17:44.610,4.8125,2.5
16:17:44.615,4.8125,0.5625
16:17:44.626,4.0625,-0.3125
16:17:44.631,3.4375,-1.375
16:17:44.641,2.5625,-2.3125
16:17:44.651,2.25,-3.375
16:17:44.661,3,-2.5625
16:17:44.672,4.875,-1.9375
16:17:44.680,6.6875,0.5
16:17:44.691,9,4.5
16:17:44.701,12.0625,10.0625
16:17:44.711,14.9376,15.5626
16:17:44.720,18.2501,21.4376
16:17:44.731,31.3126,47.0627
16:17:44.741,31.2501,48.6877
16:17:44.751,31.0001,49.0002
16:17:44.761,31.1251,48.8127
16:17:44.776,30.5626,48.6252
16:17:44.780,28.9376,47.8127
16:17:44.792,28.6876,46.6877
16:17:44.801,28.1251,46.2502
16:17:44.830,27.1251,44.9377
16:17:44.832,26.8126,45.0002
16:17:44.837,26.5001,42.8752
16:17:44.845,24.6251,42.0002
16:17:44.851,23.5626,41.6252
16:17:44.861,23.3751,38.9376
16:17:44.871,23.5001,38.0001
16:17:44.881,22.1876,36.0626
16:17:44.891,21.4376,34.6876
16:17:44.901,20.5626,35.1876
16:17:44.911,20.4376,33.9376
16:17:44.921,20.6876,34.0626
16:17:44.931,21.0001,32.8126
16:17:44.941,20.4376,32.5626
16:17:44.951,19.8126,34.2501
16:17:44.960,20.5001,33.6251
16:17:44.971,20.0626,32.5001
16:17:44.981,20.3126,33.0001
16:17:44.991,20.0626,33.2501
16:17:45.001,20.7501,33.3126
16:17:45.010,20.0626,31.6251
16:17:45.024,19.4376,32.1876
16:17:45.031,19.8126,31.5001
16:17:45.041,19.1876,30.0626
16:17:45.051,18.0001,29.0001
16:17:45.061,18.1876,29.4376
16:17:45.071,17.6251,27.8751
16:17:45.081,16.5001,26.7501
16:17:45.091,15.9376,26.0001
16:17:45.101,15.2501,23.6876
16:17:45.110,14.8751,22.0626
16:17:45.121,13.3126,21.1876
16:17:45.131,12.875,20.6251
16:17:45.141,12.875,18.3126
16:17:45.152,11.4375,16.1876
16:17:45.160,11.3125,16.1876
16:17:45.170,10.9375,14.0626
16:17:45.181,9.875,13.7501
16:17:45.191,8.9375,12.625
16:17:45.232,8.4375,10.875
16:17:45.235,8.0625,8.6875
16:17:45.239,7.9375,8.8125
16:17:45.241,8.1875,7.4375
16:17:45.247,6.8125,6.375
16:17:45.278,5.9375,5.6875
16:17:45.281,5.75,4.8125
16:17:45.285,5.3125,2.5625
16:17:45.286,4.1875,1.3125
16:17:45.321,3.6875,0.4375
16:17:45.324,3.4375,0.0625
16:17:45.330,2.9375,-1.75
16:17:45.356,2.0625,-2
16:17:45.357,1.5625,-2.9375
16:17:45.359,2.125,-4.3125
16:17:45.364,1,-6.0625
16:17:45.368,0.625,-7
16:17:45.377,1.375,-4.875
16:17:45.386,2.375,-4.875
16:17:45.399,3.9375,-3.3125
16:17:45.409,6.375,1.9375
16:17:45.415,9.8125,7.875
16:17:45.426,13.5001,12.125
16:17:45.436,16.3126,17.7501
16:17:45.446,19.0001,23.9376
16:17:45.461,21.5626,29.0001
16:17:45.468,24.2501,33.3126
16:17:45.476,25.8751,36.5626
16:17:45.491,26.5626,39.0627
16:17:45.501,26.9376,42.5002
16:17:45.505,27.6876,43.0002
16:17:45.516,27.8126,43.1877
16:17:45.531,27.1876,44.3752
16:17:45.536,27.4376,44.3127
16:17:45.548,26.2501,43.1252
16:17:45.556,25.5626,43.5627
16:17:45.566,25.7501,44.0627
16:17:45.576,25.5626,43.1252
16:17:45.586,24.2501,41.6252
16:17:45.597,22.8751,40.3752
16:17:45.606,22.8126,40.0627
16:17:45.616,21.8126,38.2501
16:17:45.626,20.8751,36.2501
16:17:45.636,19.6876,35.4376
16:17:45.646,19.5001,34.7501
16:17:45.658,18.0001,33.8126
16:17:45.666,18.2501,32.0001
16:17:45.676,18.1876,31.4376
16:17:45.686,18.3751,31.7501
16:17:45.696,18.1876,32.5626
16:17:45.708,18.8751,32.7501
16:17:45.716,18.5001,31.8751
16:17:45.726,18.5626,32.0001
16:17:45.736,18.2501,32.6876
16:17:45.746,19.1251,32.5626
16:17:45.758,19.5626,32.7501
16:17:45.766,19.0626,32.1251
16:17:45.775,18.3751,31.0001
16:17:45.786,17.5001,31.4376
16:17:45.796,17.4376,31.1876
16:17:45.818,17.5626,29.5626
16:17:45.820,16.7501,28.5001
16:17:45.828,15.8126,27.9376
16:17:45.838,15.6251,27.9376
16:17:45.851,14.8751,25.8751
16:17:45.858,15.0001,24.3751
16:17:45.866,14.0001,24.2501
16:17:45.876,13.5001,23.5001
16:17:45.887,12.25,21.1876
16:17:45.895,11.9375,20.3126
16:17:45.906,10.125,19.6251
16:17:45.917,10.1875,16.5001
16:17:45.926,9,14.8751
16:17:45.938,8.4375,13.5626
16:17:45.967,8.125,13.4376
16:17:45.970,7.25,11.375
16:17:45.973,7,11.375
16:17:45.978,6.9375,10.3125
16:17:46.013,6.8125,8.875
16:17:46.016,5.4375,6.4375
16:17:46.017,5.1875,7.125
16:17:46.020,5.8125,6.375
16:17:46.051,4.3125,3.8125
16:17:46.051,3.75,3.75
16:17:46.054,3.5625,4
16:17:46.059,3.5625,3.125
16:17:46.099,3.875,1.5
16:17:46.101,3.0625,0.4375
16:17:46.103,2.25,0.0625
16:17:46.127,2.3125,-1.5
16:17:46.127,1,-2.5
16:17:46.128,0.6875,-3.1875
16:17:46.131,0.5,-3.3125
16:17:46.139,-0.5625,-4.6875
16:17:46.147,0.25,-6.25
16:17:46.156,-1.375,-7.5625
16:17:46.166,-1.8125,-7.75
16:17:46.176,-1.1875,-6.3125
16:17:46.186,0.875,-5.875
16:17:46.195,2.5625,-2.75
16:17:46.205,4.6875,0.5
16:17:46.216,7.5625,5.375
16:17:46.226,11.625,13.0625
16:17:46.238,15.8126,18.3126
16:17:46.245,18.4376,23.9376
16:17:46.256,20.4376,28.9376
16:17:46.266,23.0626,34.9376
16:17:46.281,26.5626,40.0627
16:17:46.285,26.8751,42.4377
16:17:46.297,27.3751,45.4377
16:17:46.306,28.3126,47.0627
16:17:46.316,28.1251,48.9377
16:17:46.326,28.1251,49.8127
16:17:46.336,28.4376,49.1252
16:17:46.346,28.2501,50.8127
16:17:46.356,27.6251,50.4377
16:17:46.368,27.1876,49.9377
16:17:46.376,26.8126,50.8752
16:17:46.386,27.0626,48.4377
16:17:46.396,25.8751,47.8127
16:17:46.407,24.6876,48.0002
16:17:46.416,25.1876,46.7502
16:17:46.426,23.1251,45.4377
16:17:46.436,21.9376,44.6252
16:17:46.446,21.5001,43.1252
16:17:46.456,20.8751,41.8127
16:17:46.466,21.1251,42.0002
16:17:46.476,20.3126,40.5627
16:17:46.486,20.1876,39.2502
16:17:46.497,19.8126,40.3127
16:17:46.506,20.0626,39.3752
16:17:46.515,20.1251,39.2502
16:17:46.526,20.4376,41.0002
16:17:46.536,20.6251,41.1252
16:17:46.546,21.5626,40.8752
16:17:46.556,20.5001,40.3752
16:17:46.566,20.5626,40.0627
16:17:46.577,20.4376,42.0627
16:17:46.586,20.9376,40.0627
16:17:46.596,20.1876,39.1252
16:17:46.606,19.3751,38.9376
16:17:46.616,19.1876,39.8127
16:17:46.626,19.5626,38.1251
16:17:46.637,18.5001,36.6876
16:17:46.645,17.6876,35.6251
16:17:46.670,17.2501,35.3126
16:17:46.673,17.2501,33.7501
16:17:46.702,15.4376,31.7501
16:17:46.705,15.0001,31.1876
16:17:46.707,14.5001,29.5001
16:17:46.709,14.0626,27.8751
16:17:46.716,12.75,26.1251
16:17:46.747,11.875,25.3751
16:17:46.749,12.1875,23.5001
16:17:46.753,10.875,21.8751
16:17:46.757,9.6875,21.6251
16:17:46.791,9.25,19.1251
16:17:46.794,8.9375,18.0626
16:17:46.821,8.1875,17.0001
16:17:46.842,7.6875,17.3126
16:17:46.848,7,15.0626
16:17:46.848,7.4375,13.2501
16:17:46.848,6.25,12.8125
16:17:46.848,5.6875,11.5
16:17:46.850,5.375,12.125
16:17:46.855,5.3125,10
16:17:46.866,5.625,9.625
16:17:46.875,4,8.1875
16:17:46.888,4.625,7.9375
16:17:46.896,4.0625,5.875
16:17:46.906,2.9375,5.375
16:17:46.916,2.5,3.125
16:17:46.927,2.125,3.9375
16:17:46.936,2.0625,2.6875
16:17:46.946,1.0625,1
16:17:46.955,-0.1875,-1
16:17:46.967,-0.5,-2
16:17:46.976,-0.8125,-2.875
16:17:46.986,-0.875,-2.6875
16:17:46.996,-0.375,-2.0625
16:17:47.007,1.5625,0.6875
16:17:47.015,4.125,3.6875
16:17:47.031,6.8125,9.4375
16:17:47.035,10.8125,14.3126
16:17:47.047,13.1251,19.1876
16:17:47.056,16.2501,25.5626
16:17:47.066,19.3126,32.1876
16:17:47.076,22.8126,37.0626
16:17:47.087,24.1876,41.3127
16:17:47.096,25.3751,45.5002
16:17:47.106,26.3751,48.1252
16:17:47.117,26.4376,48.5002
16:17:47.136,27.5626,51.4377
16:17:47.142,27.2501,51.5627
16:17:47.157,27.1876,53.1877
16:17:47.159,26.6251,51.6252
16:17:47.169,25.7501,54.0627
16:17:47.176,26.2501,52.7502
16:17:47.186,25.6876,51.8127
16:17:47.197,24.7501,50.8127
16:17:47.207,23.5626,52.3752
16:17:47.216,23.5001,49.8752
16:17:47.226,23.2501,48.9377
16:17:47.235,21.7501,46.6252
16:17:47.246,20.7501,46.6252
16:17:47.257,20.6876,45.0002
16:17:47.265,19.0626,43.2502
16:17:47.277,18.4376,42.8127
16:17:47.286,18.6876,40.9377
16:17:47.297,17.8126,40.5627
16:17:47.306,17.9376,41.0627
16:17:47.316,18.3751,42.0002
16:17:47.327,18.6876,40.8752
16:17:47.336,18.7501,40.3752
16:17:47.346,17.7501,40.2502
16:17:47.357,17.6876,40.8127
16:17:47.366,18.9376,40.4377
16:17:47.392,18.1876,39.8752
16:17:47.395,17.8126,40.5002
16:17:47.399,18.0001,39.8752
16:17:47.436,17.0626,38.2501
16:17:47.439,16.1876,38.4376
16:17:47.442,15.8126,36.6876
16:17:47.443,15.4376,35.0626
16:17:47.447,14.4376,34.7501
16:17:47.479,13.6251,34.6876
16:17:47.482,13,31.8751
16:17:47.485,12.3125,30.2501
16:17:47.490,11.5,29.7501
16:17:47.525,11.1875,27.6251
16:17:47.526,9.5,26.5626
16:17:47.528,8.75,25.8751
16:17:47.531,9.0625,23.4376
16:17:47.537,8.1875,21.8126
16:17:47.557,7,20.6876
16:17:47.560,6.25,20.3126
16:17:47.567,5.875,18.8126
16:17:47.577,5.5,16.7501
16:17:47.586,4.4375,14.3126
16:17:47.597,3.3125,14.3126
16:17:47.607,3.125,12.8125
16:17:47.620,2.25,10.875
16:17:47.626,1.5625,9.75
16:17:47.637,0.5,9.4375
16:17:47.646,0.3125,7.8125
16:17:47.658,-0.6875,4.875
16:17:47.669,-1.3125,3.375
16:17:47.677,-2.3125,2.875
16:17:47.686,-2.9375,1.3125
16:17:47.697,-3.5625,0.875
16:17:47.706,-4.25,-0.8125
16:17:47.718,-4.875,-1.6875
16:17:47.726,-4.25,-2.9375
16:17:47.737,-2.9375,-1.375
16:17:47.746,-1.4375,1.9375
16:17:47.756,0.625,6.75
16:17:47.766,4.3125,10.875
16:17:47.776,8.625,15.8126
16:17:47.786,10.5,20.5626
16:17:47.798,13.1251,28.3126
16:17:47.807,16.1876,32.0001
16:17:47.816,17.6251,36.0001
16:17:47.826,19.6251,40.8752
16:17:47.839,20.2501,42.1252
16:17:47.849,20.6876,44.9377
16:17:47.857,21.1251,47.0627
16:17:47.866,21.0001,46.0002
16:17:47.876,20.3751,47.6877
16:17:47.886,20.5001,46.3127
16:17:47.897,19.5001,47.5627
16:17:47.909,19.9376,46.5627
16:17:47.915,18.8126,45.6252
16:17:47.931,18.3126,46.0627
16:17:47.939,18.3751,44.1877
16:17:47.947,16.5001,41.7502
16:17:47.956,14.9376,40.3752
16:17:47.967,14.2501,39.7502
16:17:47.978,14.0626,37.2501
16:17:47.986,12.5625,34.8126
16:17:47.997,11.5,34.8126
16:17:48.008,10.9375,33.5001
16:17:48.018,11.1875,32.5626
16:17:48.025,10.8125,31.5626
16:17:48.037,10.75,30.9376
16:17:48.049,10.375,31.8126
16:17:48.056,9.8125,32.1251
16:17:48.067,10.5625,31.1251
16:17:48.078,10.25,30.1251
16:17:48.087,9.8125,31.1251
16:17:48.104,9.3125,31.4376
16:17:48.107,9.625,29.8126
16:17:48.122,8.9375,28.5001
16:17:48.140,8.625,28.9376
16:17:48.145,7.5625,27.3126
16:17:48.147,7.8125,25.7501
16:17:48.190,6.5625,25.7501
16:17:48.193,6.75,25.0001
16:17:48.194,5.25,22.4376
16:17:48.198,4.5625,20.6251
16:17:48.203,3.4375,20.6251
16:17:48.209,3.25,18.6876
16:17:48.234,2.5625,16.5626
16:17:48.237,1.625,14.6876
16:17:48.239,0.875,13.6876
16:17:48.270,0,13.3751
16:17:48.272,-1,10.625
16:17:48.275,-2,9
16:17:48.277,-2.875,7.8125
16:17:48.310,-3.4375,7
16:17:48.313,-3.875,5.6875
16:17:48.316,-4.5625,3.875
16:17:48.321,-5,2.25
16:17:48.329,-6,1.5
16:17:48.339,-6.4375,0.5
16:17:48.351,-6.1875,-0.625
16:17:48.357,-7.8125,-2.6875
16:17:48.367,-8.375,-4.875
16:17:48.377,-8.125,-5.125
16:17:48.388,-8.9375,-7.1875
16:17:48.396,-9.8125,-8.3125
16:17:48.407,-10.4375,-8.5
16:17:48.417,-10.625,-10.25
16:17:48.427,-11.3125,-12.25
16:17:48.443,-12.0625,-12.5
16:17:48.449,-11.5625,-12.125
16:17:48.465,-10.5,-12.25
16:17:48.467,-9.5625,-9.75
16:17:48.482,-7.125,-5.625
16:17:48.487,-3.4375,-0.9375
16:17:48.497,-0.4375,3.3125
16:17:48.507,2.5625,10.4375
16:17:48.520,6.5625,15.7501
16:17:48.527,9.3125,22.6251
16:17:48.537,12.6875,26.8751
16:17:48.547,13.8751,31.3126
16:17:48.558,16.3751,34.7501
16:17:48.568,16.6876,38.4376
16:17:48.577,17.1876,41.0627
16:17:48.588,17.8126,41.9377
16:17:48.598,17.1251,43.0002
16:17:48.607,17.9376,42.5002
16:17:48.617,17.3126,43.9377
16:17:48.627,17.5626,44.5002
16:17:48.637,17.4376,43.3127
16:17:48.672,16.5626,43.6877
16:17:48.674,17.3126,43.2502
16:17:48.676,15.5626,41.8127
16:17:48.682,14.9376,41.1252
16:17:48.687,13.6251,41.1877
16:17:48.697,13.5626,38.6251
16:17:48.707,12.75,36.8126
16:17:48.718,12.3125,36.0626
16:17:48.727,11.125,35.6876
16:17:48.737,11.25,34.3751
16:17:48.749,11.5,33.0626
16:17:48.758,10.5625,32.3751
16:17:48.767,10.125,33.5001
16:17:48.778,11,31.5626
16:17:48.788,10.0625,30.8751
16:17:48.797,10,31.6876
16:17:48.808,9,31.6876
16:17:48.817,10.1875,31.4376
16:17:48.827,10.125,30.2501
16:17:48.838,9.6875,29.8126
16:17:48.847,9.25,29.3126
16:17:48.857,8.9375,28.6876
16:17:48.886,7.8125,27.0001
16:17:48.888,7,26.4376
16:17:48.891,6.6875,26.0626
16:17:48.897,6,23.7501
16:17:48.929,5,22.0001
16:17:48.931,4.0625,21.5626
16:17:48.935,4.375,20.3751
16:17:48.937,2.75,18.1251
16:17:48.966,1.8125,15.8126
16:17:48.969,0.375,15.6876
16:17:48.971,0.3125,12.4375
16:17:48.977,-1.3125,10.375
16:17:48.992,-2,8.5625
16:17:48.997,-3.0625,7.5625
16:17:49.029,-3.375,6.8125
16:17:49.033,-3.9375,4.375
16:17:49.036,-4.9375,3.1875
16:17:49.041,-5.0625,1.8125
16:17:49.049,-5.9375,0.1875
16:17:49.057,-7.1875,-0.9375
16:17:49.068,-7.3125,-1.75
16:17:49.083,-7.6875,-3.75
16:17:49.089,-8.75,-5.8125
16:17:49.097,-9.4375,-7.8125
16:17:49.108,-10.5,-8.125
16:17:49.119,-11.4375,-10.4375
16:17:49.127,-12.3125,-11.4375
16:17:49.137,-12.125,-13.125
16:17:49.148,-13,-14.8751
16:17:49.157,-14.4376,-14.7501
16:17:49.167,-14.6876,-17.2501
16:17:49.178,-15.0001,-19.1251
16:17:49.187,-15.8751,-19.8751
16:17:49.199,-15.4376,-19.2501
16:17:49.207,-14.5626,-19.8751
16:17:49.222,-13.3751,-17.5626
16:17:49.235,-10.875,-14.6876
16:17:49.242,-8.1875,-10.125
16:17:49.252,-4.5625,-5.75
16:17:49.265,-1.625,0.75
16:17:49.272,2.3125,6.4375
16:17:49.282,5.25,10.8125
16:17:49.292,8.5,17.3751
16:17:49.302,10,19.8126
16:17:49.313,11.8125,24.0626
16:17:49.322,12.5,26.5626
16:17:49.332,13.3751,28.6876
16:17:49.343,13.9376,29.0626
16:17:49.352,13.6876,30.6251
16:17:49.365,14.2501,31.3126
16:17:49.372,14.0626,31.0626
16:17:49.383,14.2501,33.1251
16:17:49.394,13.6876,32.8126
16:17:49.408,14.2501,32.3751
16:17:49.424,12.875,31.5626
16:17:49.426,12.5625,31.4376
16:17:49.435,12.4375,30.0001
16:17:49.442,11.125,28.7501
16:17:49.458,10.625,28.0001
16:17:49.466,8.875,26.6251
16:17:49.472,9.1875,24.3751
16:17:49.482,8.125,23.1876
16:17:49.494,8.0625,21.8126
16:17:49.502,7.125,21.6876
16:17:49.512,6.625,22.0001
16:17:49.525,6.8125,21.1876
16:17:49.532,7.375,20.5001
16:17:49.542,7,19.6251
16:17:49.555,7.0625,19.6251
16:17:49.562,6.8125,19.4376
16:17:49.572,6.8125,19.6251
16:17:49.584,7.25,18.6251
16:17:49.593,7,17.8126
16:17:49.602,5.3125,17.0626
16:17:49.612,5.5625,17.3126
16:17:49.648,5.25,15.5626
16:17:49.651,4.875,14.4376
16:17:49.653,3.4375,13.5001
16:17:49.656,3.1875,12.9375
16:17:49.662,3,10.875
16:17:49.692,1.25,9.4375
16:17:49.695,0.4375,8.1875
16:17:49.697,0.0625,5.75
16:17:49.702,-1.1875,3.75
16:17:49.736,-1.625,3.625
16:17:49.782,-1.4375,1.75
16:17:49.783,-3,0.625
16:17:49.808,-4,-0.75
16:17:49.812,-4.375,-2.4375
16:17:49.814,-5.1875,-4.625
16:17:49.817,-6.5,-6.0625
16:17:49.817,-7.0625,-6.5625
16:17:49.823,-7.25,-9.5625
16:17:49.836,-8.1875,-11.75
16:17:49.843,-9.5625,-13
16:17:49.852,-10.625,-14.4376
16:17:49.863,-11.1875,-15.2501
16:17:49.872,-11.4375,-18.1251
16:17:49.882,-13.2501,-20.5626
16:17:49.893,-14.3751,-22.0626
16:17:49.902,-14.5626,-22.3751
16:17:49.912,-14.8126,-23.6876
16:17:49.922,-13.8126,-23.5001
16:17:49.950,-13.4376,-23.2501
16:17:49.955,-12.4375,-21.3751
16:17:49.955,-10.875,-17.7501
16:17:49.962,-7.875,-14.6876
16:17:49.973,-5.3125,-11.4375
16:17:49.983,4.625,4.0625
16:17:49.992,5.4375,6.4375
16:17:50.003,6.625,9.125
16:17:50.013,6.9375,10.125
16:17:50.022,7.125,11.6875
16:17:50.034,7.0625,11.8125
16:17:50.042,6.6875,12.5
16:17:50.052,6.4375,12.125
16:17:50.063,6.125,11.875
16:17:50.072,5.8125,11.375
16:17:50.082,5.5625,10.875
16:17:50.094,5.75,11.4375
16:17:50.102,3.75,10.5
16:17:50.112,3.5,9.375
16:17:50.123,2.0625,7.1875
16:17:50.132,1.25,7
16:17:50.142,0.875,4.9375
16:17:50.153,-0.625,2.4375
16:17:50.162,-1.3125,1.8125
16:17:50.172,-1.5625,0.75
16:17:50.183,-2.25,-0.4375
16:17:50.192,-3,-3
16:17:50.202,-3.8125,-2.4375
16:17:50.217,-3.75,-3.0625
16:17:50.222,-3.8125,-3.5
16:17:50.232,-4.375,-4.8125
16:17:50.243,-4.125,-4.125
16:17:50.252,-4.5,-4.25
16:17:50.262,-3.75,-5.4375
16:17:50.274,-4.0625,-6.25
16:17:50.282,-5,-5.875
16:17:50.292,-4.0625,-7
16:17:50.304,-5.6875,-8.4375
16:17:50.312,-6.75,-7.625
16:17:50.323,-6.5625,-9.9375
16:17:50.333,-6.6875,-11.3125
16:17:50.346,-6.9375,-12.1875
16:17:50.366,-8.75,-13.8126
16:17:50.369,-9,-15.3126
16:17:50.374,-9.4375,-16.4376
16:17:50.406,-10.875,-17.7501
16:17:50.408,-11,-18.8751
16:17:50.411,-12.4375,-20.7501
16:17:50.413,-13.1876,-22.0001
16:17:50.450,-13.8751,-22.7501
16:17:50.454,-13.6876,-24.4376
16:17:50.457,-14.5001,-25.2501
16:17:50.460,-15.4376,-27.0626
16:17:50.462,-16.1251,-28.5626
16:17:50.489,-16.6876,-29.9376
16:17:50.492,-18.3126,-30.6251
16:17:50.494,-18.3751,-32.8126
16:17:50.527,-19.7501,-34.1251
16:17:50.529,-19.8751,-35.2501
16:17:50.533,-20.7501,-37.0001
16:17:50.535,-21.7501,-38.5001
16:17:50.542,-22.6251,-39.6252
16:17:50.555,-23.1876,-40.4377
16:17:50.562,-23.3126,-42.9377
16:17:50.574,-23.9376,-43.5627
16:17:50.585,-23.8751,-44.3752
16:17:50.601,-24.5626,-45.8127
16:17:50.602,-23.0626,-43.6877
16:17:50.615,-22.2501,-42.5002
16:17:50.623,-19.9376,-39.2501
16:17:50.632,-16.3751,-35.8751
16:17:50.642,-14.3126,-31.2501
16:17:50.652,-11.875,-26.0001
16:17:50.662,-8.75,-23.1876
16:17:50.672,-7.625,-17.7501
16:17:50.682,-5.875,-16.1251
16:17:50.694,-4.75,-14.1251
16:17:50.710,-4.125,-11.8125
16:17:50.712,-3.8125,-11.125
16:17:50.728,-3.1875,-9.9375
16:17:50.743,-3.8125,-11
16:17:50.745,-3.625,-9.3125
16:17:50.753,-4.25,-10.5625
16:17:50.762,-4.625,-9.75
16:17:50.773,-4.5,-11.125
16:17:50.782,-4.875,-10.5
16:17:50.792,-5.25,-12.0625
16:17:50.803,-6.125,-12.25
16:17:50.813,-6.5,-12.625
16:17:50.823,-7.6875,-14.9376
16:17:50.833,-8.0625,-14.3126
16:17:50.842,-8.9375,-17.0626
16:17:50.852,-9.5,-17.3751
16:17:50.864,-9.6875,-19.1876
16:17:50.872,-10.5,-19.0626
16:17:50.882,-10.5,-20.1251
16:17:50.894,-11.125,-21.5001
16:17:50.902,-10.875,-20.5001
16:17:50.912,-11.25,-21.8751
16:17:50.925,-11.375,-22.1251
16:17:50.940,-10.9375,-22.1876
16:17:50.947,-11.4375,-22.1876
16:17:50.957,-10.875,-22.2501
16:17:50.972,-11.6875,-22.6876
16:17:50.977,-11.875,-23.8751
16:17:50.988,-12.5,-23.3126
16:17:50.999,-13.2501,-23.9376
16:17:51.007,-13.3126,-25.4376
16:17:51.041,-14.3751,-25.8751
16:17:51.044,-14.7501,-27.5626
16:17:51.046,-15.1251,-29.5001
16:17:51.050,-15.9376,-29.1251
16:17:51.087,-15.9376,-31.0001
16:17:51.091,-17.3126,-32.3126
16:17:51.092,-17.3126,-33.6251
16:17:51.095,-18.2501,-34.8751
16:17:51.127,-19.8751,-36.6876
16:17:51.129,-20.7501,-38.1251
16:17:51.133,-20.3751,-39.1877
16:17:51.138,-20.9376,-39.5627
16:17:51.138,-21.9376,-40.8127
16:17:51.170,-23.0626,-42.5627
16:17:51.172,-23.3126,-43.3752
16:17:51.174,-24.0001,-44.5002
16:17:51.179,-24.8751,-44.1877
16:17:51.197,-25.5001,-46.7502
16:17:51.199,-25.5001,-48.3752
16:17:51.230,-26.0626,-49.1877
16:17:51.232,-26.8126,-50.6877
16:17:51.233,-27.4376,-50.3127
16:17:51.239,-27.3126,-52.1252
16:17:51.247,-28.4376,-54.1252
16:17:51.257,-29.4376,-53.6252
16:17:51.270,-29.3751,-55.6252
16:17:51.277,-30.1876,-57.0627
16:17:51.287,-30.3751,-56.0002
16:17:51.298,-28.9376,-57.0002
16:17:51.308,-29.6251,-55.4377
16:17:51.318,-27.3126,-54.6877
16:17:51.328,-26.3126,-51.5002
16:17:51.337,-22.7501,-48.1252
16:17:51.351,-20.5001,-43.1877
16:17:51.358,-17.9376,-39.6877
16:17:51.367,-14.9376,-35.6251
16:17:51.379,-13.8126,-31.4376
16:17:51.387,-11.875,-29.1876
16:17:51.398,-10.9375,-27.1251
16:17:51.409,-10.1875,-24.3751
16:17:51.417,-9.9375,-23.1251
16:17:51.427,-9.5625,-22.3126
16:17:51.437,-8.9375,-22.5001
16:17:51.449,-9.375,-21.3126
16:17:51.458,-9.9375,-22.3126
16:17:51.467,-9.75,-21.6251
16:17:51.477,-10.875,-22.1876
16:17:51.488,-10.5,-22.1251
16:17:51.498,-10.9375,-23.1251
16:17:51.507,-11.625,-23.3751
16:17:51.519,-12.0625,-23.9376
16:17:51.527,-13,-24.3126
16:17:51.538,-13.5001,-26.3126
16:17:51.547,-14.3751,-26.7501
16:17:51.557,-14.7501,-27.8751
16:17:51.567,-14.9376,-28.4376
16:17:51.579,-15.5626,-28.3126
16:17:51.587,-15.2501,-29.3751
16:17:51.600,-16.0626,-29.3751
16:17:51.608,-16.0001,-30.1876
16:17:51.618,-15.6876,-28.8126
16:17:51.628,-15.6251,-30.0626
16:17:51.637,-15.2501,-28.8751
16:17:51.649,-14.6876,-29.3751
16:17:51.658,-15.1251,-28.7501
16:17:51.670,-14.3126,-28.8751
16:17:51.678,-14.8126,-28.1876
16:17:51.687,-14.7501,-28.3126
16:17:51.697,-14.8126,-28.7501
16:17:51.707,-15.0626,-29.3751
16:17:51.718,-15.6876,-29.1251
16:17:51.728,-15.9376,-31.5626
16:17:51.737,-16.3751,-30.6876
16:17:51.763,-16.1876,-32.2501
16:17:51.765,-17.3126,-31.0626
16:17:51.767,-17.3751,-33.2501
16:17:51.800,-18.3126,-33.0001
16:17:51.802,-18.0626,-34.7501
16:17:51.803,-19.2501,-34.6251
16:17:51.810,-19.8751,-36.6876
16:17:51.837,-20.2501,-36.3751
16:17:51.840,-20.8126,-38.3126
16:17:51.843,-20.7501,-39.1251
16:17:51.848,-21.6251,-38.4376
16:17:51.863,-21.2501,-39.6252
16:17:51.868,-21.1251,-39.8127
16:17:51.899,-21.6876,-41.4377
16:17:51.901,-21.5001,-40.9377
16:17:51.903,-21.8126,-41.8752
16:17:51.908,-20.3126,-40.3127
16:17:51.924,-20.1251,-40.7502
16:17:51.929,-18.8751,-39.6877
16:17:51.942,-18.6251,-39.0626
16:17:51.948,-20.0626,-39.6877
16:17:51.959,-22.0001,-41.6877
16:17:51.967,-21.1876,-41.2502
16:17:51.977,-19.1876,-38.6251
16:17:51.991,-15.3126,-35.7501
16:17:51.997,-14.4376,-33.6251
16:17:52.014,-14.6876,-34.5626
16:17:52.029,-11.9375,-32.8126
16:17:52.032,-7.875,-28.9376
16:17:52.041,-4.8125,-26.8751
16:17:52.047,-2.5,-24.5001
16:17:52.058,-0.8125,-24.3751
16:17:52.067,1.8125,-22.8751
16:17:52.078,5,-19.9376
16:17:52.089,9.9375,-16.8751
16:17:52.098,15.5626,-10.9375
16:17:52.108,21.3126,-5.125
16:17:52.121,27.6876,2.25
16:17:52.128,35.5626,9.75
16:17:52.137,44.1877,21.2501
16:17:52.148,48.3752,27.1876
16:17:52.159,50.6877,31.9376
16:17:52.170,57.6252,39.6877
16:17:52.177,68.8753,52.6252
16:17:52.187,83.4378,70.6878
16:17:52.200,98.1879,90.3753
16:17:52.208,109.3129,107.5004
16:17:52.217,122.063,126.0005
16:17:52.232,138.2505,146.938
16:17:52.237,150.5006,169.1881
16:17:52.248,158.8131,187.5632
16:17:52.259,163.6256,199.7508
16:17:52.267,161.9381,203.5008
16:17:52.280,157.3756,200.0008
16:17:52.287,149.7506,186.7507
16:17:52.298,137.8755,167.3756
16:17:52.307,125.6255,147.5006
16:17:52.318,114.1879,126.563
16:17:52.329,102.8754,102.9379
16:17:52.337,88.0003,76.8128
16:17:52.348,74.4378,51.6252
16:17:52.366,59.8752,25.5626
16:17:52.372,46.3127,0.25
16:17:52.387,32.4376,-24.8751
16:17:52.392,18.5626,-49.6877
16:17:52.397,4.125,-74.1878
16:17:52.408,-11.8125,-98.3129
16:17:52.418,-27.5001,-120.063
16:17:52.428,-43.9377,-142.2505
16:17:52.438,-56.6252,-159.0631
16:17:52.448,-67.9378,-170.4381
16:17:52.457,-80.7503,-180.1882
16:17:52.468,-91.1254,-188.2507
16:17:52.499,-98.6879,-193.4382
16:17:52.504,-103.6879,-194.7507
16:17:52.506,-109.5004,-196.1882
16:17:52.522,-119.0005,-196.0632
16:17:52.526,-132.063,-198.5633
16:17:52.528,-151.3756,-206.6883
16:17:52.560,-167.7506,-213.0008
16:17:52.564,-181.5007,-219.5008
16:17:52.565,-191.0007,-223.0634
16:17:52.568,-202.1883,-228.6884
16:17:52.610,-210.4383,-234.7509
16:17:52.613,-217.3133,-238.9384
16:17:52.615,-223.9384,-247.2509
16:17:52.619,-229.3759,-252.3135
16:17:52.623,-232.0009,-259.626
16:17:52.628,-234.6259,-262.376
16:17:52.657,-233.8134,-265.126
16:17:52.658,-230.6884,-263.0635
16:17:52.661,-221.8759,-256.9385
16:17:52.671,-204.0633,-240.7509
16:17:52.681,-175.7507,-216.5633
16:17:52.688,-149.8756,-190.2507
16:17:52.699,-132.813,-175.5007
16:17:52.708,-118.813,-169.1256
16:17:52.719,-106.8129,-163.5631
16:17:52.730,-99.3754,-164.4381
16:17:52.737,-95.6879,-167.7506
16:17:52.748,-93.8129,-175.5632
16:17:52.758,-97.1254,-187.6882
16:17:52.768,-102.0004,-202.8133
16:17:52.779,-104.1254,-212.5008
16:17:52.787,-106.9379,-221.6884
16:17:52.799,-107.9379,-226.2509
16:17:52.809,-109.7504,-231.5634
16:17:52.817,-111.2504,-234.0009
16:17:52.829,-113.3754,-236.3759
16:17:52.839,-114.7504,-241.4384
16:17:52.850,-116.8754,-244.0009
16:17:52.860,-122.1255,-250.5009
16:17:52.868,-124.563,-255.8135
16:17:52.881,-128.313,-257.6885
16:17:52.889,-123.6255,-254.4385
16:17:52.897,-111.0004,-234.3134
16:17:52.909,-99.0629,-211.3758
16:17:52.918,-96.6879,-194.1257
16:17:52.930,-111.9379,-188.2507
16:17:52.937,-137.8755,-198.1883
16:17:52.948,-156.1881,-202.8133
16:17:52.957,-167.8756,-203.6258
16:17:52.968,-173.0007,-201.7508
16:17:52.979,-173.7507,-195.3132
16:17:52.989,-170.0631,-185.5632
16:17:52.997,-164.6256,-176.8132
16:17:53.008,-159.9381,-166.1256
16:17:53.019,-155.6256,-159.1881
16:17:53.030,-151.5631,-152.6881
16:17:53.038,-148.3131,-146.8755
16:17:53.048,-143.8755,-141.1255
16:17:53.058,-135.6255,-130.8755
16:17:53.068,-115.2504,-110.4379
16:17:53.078,-83.8753,-82.8753
16:17:53.089,-55.3127,-57.8752
16:17:53.099,-34.6251,-42.0002
16:17:53.111,-24.1251,-41.0002
16:17:53.118,-23.9376,-49.7502
16:17:53.131,-24.1876,-58.4377
16:17:53.139,-23.7501,-63.2502
16:17:53.148,-24.0001,-69.1253
16:17:53.158,-27.0001,-76.1253
16:17:53.169,-35.6251,-90.3754
16:17:53.177,-40.6877,-99.4379
16:17:53.188,-41.3127,-108.8129
16:17:53.198,-42.7502,-115.0004
16:17:53.226,-41.9377,-117.688
16:17:53.231,-41.7502,-123.563
16:17:53.231,-46.8127,-129.5005
16:17:53.262,-50.7502,-136.438
16:17:53.266,-51.8752,-141.188
16:17:53.267,-55.7502,-145.1255
16:17:53.273,-59.9377,-152.6881
16:17:53.333,-64.3752,-156.6256
16:17:53.339,-64.4377,-154.3131
16:17:53.339,-62.3752,-148.9381
16:17:53.341,-59.5002,-139.2505
16:17:53.346,-57.0002,-128.438
16:17:53.346,-58.8127,-121.3755
16:17:53.346,-67.1878,-117.3754
16:17:53.355,-82.1253,-120.563
16:17:53.387,-95.8754,-124.3755
16:17:53.390,-107.6254,-127.8755
16:17:53.391,-118.7505,-131.0005
16:17:53.393,-129.313,-137.6255
16:17:53.403,-138.938,-141.7505
16:17:53.413,-147.3756,-144.6255
16:17:53.423,-157.2506,-149.2506
16:17:53.433,-159.5006,-150.1256
16:17:53.445,-162.1881,-150.4381
16:17:53.453,-161.8756,-149.1256
16:17:53.463,-161.8756,-146.5006
16:17:53.473,-158.3756,-142.938
16:17:53.483,-152.0006,-134.813
16:17:53.497,-139.0005,-121.938
16:17:53.504,-119.2505,-104.3129
16:17:53.514,-96.1254,-79.6878
16:17:53.524,-69.1878,-57.1252
16:17:53.533,-48.0002,-37.3751
16:17:53.546,-32.8751,-24.6251
16:17:53.554,-18.6251,-15.8751
16:17:53.563,-9.1875,-10.25
16:17:53.573,-2.3125,-8.8125
16:17:53.583,4.5625,-7.0625
16:17:53.595,7.8125,-6.3125
16:17:53.603,10.4375,-10.4375
16:17:53.614,11.125,-13.5626
16:17:53.623,8.9375,-18.6876
16:17:53.633,11,-21.1876
16:17:53.645,12.625,-22.9376
16:17:53.653,11.75,-27.0626
16:17:53.668,10.1875,-30.1251
16:17:53.684,8.5,-34.8751
16:17:53.686,7.9375,-40.3752
16:17:53.695,4.3125,-42.5002
16:17:53.704,0.875,-47.9377
16:17:53.713,-2.625,-51.8127
16:17:53.723,-8.625,-54.4377
16:17:53.734,-12.875,-55.3752
16:17:53.746,-19.5626,-55.1877
16:17:53.754,-28.2501,-56.6877
16:17:53.763,-33.6251,-54.8127
16:17:53.788,-39.1252,-52.1252
16:17:53.790,-45.5627,-48.7502
16:17:53.797,-50.3127,-46.1252
16:17:53.803,-53.3127,-40.7502
16:17:53.814,-56.4377,-37.4376
16:17:53.823,-57.7502,-32.3751
16:17:53.834,-59.6877,-29.2501
16:17:53.844,-61.1252,-26.7501
16:17:53.854,-60.8127,-22.1251
16:17:53.863,-60.8127,-18.6251
16:17:53.874,-59.0002,-13.8126
16:17:53.885,-55.6877,-7.5
16:17:53.893,-51.6877,-0.25
16:17:53.903,-46.0627,5.125
16:17:53.914,-35.3126,17.0001
16:17:53.923,-20.8751,30.0001
16:17:53.948,-6.5,44.0002
16:17:53.951,7.375,57.6252
16:17:53.954,17.8751,63.1252
16:17:53.992,25.5626,66.6253
16:17:53.995,31.3126,68.0003
16:17:53.999,36.0626,64.0627
16:17:54.001,42.1877,61.6877
16:17:54.005,45.3127,57.6252
16:17:54.034,48.1252,48.7502
16:17:54.036,48.3752,39.4377
16:17:54.040,46.3127,27.6876
16:17:54.064,42.2502,12.8125
16:17:54.068,35.8751,-2.5
16:17:54.072,31.4376,-15.1251
16:17:54.074,29.0626,-23.6251
16:17:54.110,28.1876,-29.8126
16:17:54.112,26.3126,-35.2501
16:17:54.114,23.7501,-37.7501
16:17:54.118,23.0001,-37.5001
16:17:54.123,24.0626,-36.3751
16:17:54.139,26.6251,-28.7501
16:17:54.144,28.0001,-21.5626
16:17:54.154,26.5626,-17.3751
16:17:54.164,23.5626,-13.7501
16:17:54.173,19.4376,-11.4375
16:17:54.186,12.5,-11
16:17:54.194,4.25,-12.5
16:17:54.204,-5.0625,-16.0001
