timestamp,Red,IR
12:37:10.778,1.375,9.125
12:37:10.779,0.625,8.625
12:37:10.782,3.625,13.2501
12:37:10.788,3.125,12.4375
12:37:10.790,2.875,11.9375
12:37:10.819,2.125,10.875
12:37:10.823,0.75,7.25
12:37:10.823,0.0625,6.125
12:37:10.825,0,5
12:37:10.829,-0.5625,4
12:37:10.831,-1.1875,4.25
12:37:10.831,-1.625,3.0625
12:37:10.842,-2.1875,2.625
12:37:10.848,-2.9375,2.3125
12:37:10.889,-2.875,1
12:37:10.891,-2,-0.3125
12:37:10.895,-2.625,-0.25
12:37:10.969,-3.3125,-1.5625
12:37:10.969,-3.5,-2.625
12:37:10.969,-3.9375,-1.5
12:37:11.000,-3.25,-2.8125
12:37:11.002,-3.5,-3.25
12:37:11.016,-3.875,-4.125
12:37:11.016,-4.625,-5.6875
12:37:11.018,-4.6875,-5.5625
12:37:11.025,-4.9375,-7
12:37:11.032,-5.0625,-7.6875
12:37:11.048,-6.625,-8.5
12:37:11.052,-6.0625,-8.375
12:37:11.063,-6.5625,-9.1875
12:37:11.072,-6.75,-9.375
12:37:11.084,-6.5625,-10.375
12:37:11.094,-7.125,-10.4375
12:37:11.102,-7.1875,-10.5625
12:37:11.112,-6.5625,-9.75
12:37:11.122,-6.5,-10.25
12:37:11.134,-7.125,-12.125
12:37:11.147,-7.75,-12.5
12:37:11.153,-7.0625,-12.125
12:37:11.163,-7.1875,-10.3125
12:37:11.172,6.3125,16.8126
12:37:11.183,8.1875,20.8126
12:37:11.194,9,23.6876
12:37:11.203,9.6875,25.3751
12:37:11.213,10.625,25.9376
12:37:11.223,10.125,26.0626
12:37:11.233,9.75,25.0001
12:37:11.243,8.4375,24.2501
12:37:11.252,8.1875,22.6876
12:37:11.262,6.9375,21.3751
12:37:11.272,6.3125,20.3751
12:37:11.283,6,19.0001
12:37:11.293,6.0625,18.3751
12:37:11.302,5.4375,17.5001
12:37:11.313,5.6875,17.8126
12:37:11.322,5.5,16.8751
12:37:11.332,5.0625,16.8126
12:37:11.343,5.4375,16.4376
12:37:11.353,4.4375,15.1251
12:37:11.362,3.875,14.0001
12:37:11.372,3.0625,13.3126
12:37:11.403,3.375,12.3125
12:37:11.406,2.5625,11.5
12:37:11.408,1.875,10.1875
12:37:11.414,1.625,10.8125
12:37:11.425,2.25,10.875
12:37:11.433,2.8125,10.625
12:37:11.443,2.25,11
12:37:11.453,3.1875,12.5
12:37:11.463,3.9375,12.9375
12:37:11.473,3.8125,12.875
12:37:11.483,3.5625,13.1251
12:37:11.493,3.3125,14.1251
12:37:11.502,4.4375,14.0626
12:37:11.512,3.5,13.3126
12:37:11.525,3.25,12.3125
12:37:11.535,3,12.6875
12:37:11.543,2.1875,12.1875
12:37:11.554,1.8125,10.6875
12:37:11.563,1.75,10.5
12:37:11.573,1.125,8.9375
12:37:11.583,0.6875,8.375
12:37:11.593,0.75,8.25
12:37:11.602,0.5,6.4375
12:37:11.612,-0.5625,5
12:37:11.624,-0.875,4.625
12:37:11.633,-1.4375,3.75
12:37:11.643,-1.875,2.125
12:37:11.653,-2.5,0.9375
12:37:11.663,-3.6875,-0.1875
12:37:11.673,-3.3125,0.1875
12:37:11.683,-4.25,-1.9375
12:37:11.693,-4.3125,-2.75
12:37:11.704,-5,-3.3125
12:37:11.712,-5.125,-3.875
12:37:11.723,-5.5625,-3.6875
12:37:11.733,-5.75,-6.25
12:37:11.744,-6.4375,-4.875
12:37:11.753,-6,-5.625
12:37:11.764,-6.25,-6.625
12:37:11.773,-5.6875,-6.625
12:37:11.782,-5.6875,-7
12:37:11.792,-6.625,-7.9375
12:37:11.803,-6.1875,-8.125
12:37:11.815,-6.125,-8.875
12:37:11.823,-7.0625,-9.5625
12:37:11.832,-7.4375,-9.9375
12:37:11.842,-7.4375,-10.6875
12:37:11.853,-7.625,-11.125
12:37:11.862,-7.9375,-13
12:37:11.873,-8.5,-12.75
12:37:11.883,-8.5,-13.4376
12:37:11.895,-8.875,-14.5626
12:37:11.904,-9,-15.1251
12:37:11.914,-9.625,-15.9376
12:37:11.923,-9.4375,-16.1876
12:37:11.933,-10.1875,-16.5001
12:37:11.943,-10.375,-17.5626
12:37:11.953,-10.75,-17.6251
12:37:11.963,-9.9375,-17.9376
12:37:11.973,-11.0625,-18.6251
12:37:11.983,-10.25,-17.8126
12:37:11.993,-10,-16.2501
12:37:12.003,-8.5625,-14.5001
12:37:12.013,-6.8125,-10.4375
12:37:12.023,-4.25,-5.375
12:37:12.033,-0.875,-0.375
12:37:12.043,1.6875,5.9375
12:37:12.052,4.75,11.25
12:37:12.063,6.6875,16.9376
12:37:12.073,8.4375,19.6251
12:37:12.083,9.5,23.1876
12:37:12.093,9.5,23.3126
12:37:12.105,9.3125,23.9376
12:37:12.112,9.375,24.3126
12:37:12.123,9.25,23.4376
12:37:12.133,8.375,21.6876
12:37:12.142,7.5625,21.6876
12:37:12.153,7.1875,20.1251
12:37:12.163,6.4375,19.1876
12:37:12.173,6.25,17.1251
12:37:12.183,6,17.5001
12:37:12.193,5.6875,16.9376
12:37:12.203,5,16.8126
12:37:12.213,5.5,17.1876
12:37:12.223,6.1875,16.1251
12:37:12.234,5.3125,16.1251
12:37:12.243,4.875,17.2501
12:37:12.253,5,15.3751
12:37:12.263,4.6875,14.4376
12:37:12.275,4.5625,14.5001
12:37:12.283,4,13.0625
12:37:12.300,3.5,12.125
12:37:12.307,3.3125,13.2501
12:37:12.313,3.5,11.9375
12:37:12.323,4,11.875
12:37:12.362,3.5,11.75
12:37:12.368,3.5,13.8751
12:37:12.370,4.1875,13.3126
12:37:12.375,4.375,14.0001
12:37:12.391,4.625,13.6251
12:37:12.391,4.5,14.1876
12:37:12.408,4.5625,14.7501
12:37:12.409,4.625,14.3126
12:37:12.424,4.3125,13.2501
12:37:12.427,3.375,12.625
12:37:12.435,3.0625,12.5
12:37:12.443,2.3125,12.5
12:37:12.453,2.6875,10.75
12:37:12.463,2.3125,10
12:37:12.473,1.75,9.4375
12:37:12.482,2.0625,8.625
12:37:12.492,0.875,7.375
12:37:12.503,0.25,5.6875
12:37:12.513,-0.3125,5.8125
12:37:12.523,-1.125,3.8125
12:37:12.533,-1.75,3.625
12:37:12.542,-1.625,3.25
12:37:12.553,-1.875,2.0625
12:37:12.563,-2.1875,0.6875
12:37:12.574,-2.875,-0.125
12:37:12.584,-3.625,-1.125
12:37:12.613,-3.625,-1.1875
12:37:12.614,-3.1875,-1.6875
12:37:12.616,-4,-2.75
12:37:12.623,-4.5625,-3.375
12:37:12.635,-4.0625,-4.125
12:37:12.645,-4.375,-4.25
12:37:12.654,-4.25,-4.125
12:37:12.664,-4.3125,-5.75
12:37:12.673,-4.9375,-5.8125
12:37:12.682,-6.0625,-5.1875
12:37:12.694,-5.5,-7.1875
12:37:12.703,-6,-7.4375
12:37:12.713,-6.5,-8.3125
12:37:12.724,-6.5,-9.5
12:37:12.732,-7.0625,-9.375
12:37:12.743,-6.875,-10.1875
12:37:12.753,-7.25,-10.3125
12:37:12.764,-7.0625,-11.25
12:37:12.773,-7.1875,-11.25
12:37:12.784,-7.8125,-12.4375
12:37:12.792,-7.625,-11.9375
12:37:12.804,-7.75,-12.8125
12:37:12.813,-7.9375,-13.125
12:37:12.824,-7.875,-13.3751
12:37:12.834,-8.5,-14.0001
12:37:12.842,-8.375,-14.3126
12:37:12.853,-8.8125,-14.2501
12:37:12.862,-7.625,-13.8751
12:37:12.875,-6.9375,-11.875
12:37:12.882,-5.125,-8.5
12:37:12.894,-2.375,-4
12:37:12.903,0.125,1.25
12:37:12.914,2,6.5625
12:37:12.923,4.625,11.9375
12:37:12.933,5.875,15.9376
12:37:12.942,8,19.7501
12:37:12.955,8.75,22.2501
12:37:12.964,9.5625,23.8126
12:37:12.973,9.5,23.1876
12:37:12.984,8.9375,24.5626
12:37:12.995,8.125,22.5001
12:37:13.004,7.375,21.7501
12:37:13.013,6.75,20.4376
12:37:13.025,5.9375,18.5001
12:37:13.034,5.3125,18.5001
12:37:13.043,5.1875,16.9376
12:37:13.053,4.75,16.8751
12:37:13.064,4.8125,15.0626
12:37:13.074,4.5,16.2501
12:37:13.083,5.625,15.5001
12:37:13.093,4.5625,14.6876
12:37:13.104,4.125,14.0626
12:37:13.115,4.75,14.8751
12:37:13.123,3.8125,12.5
12:37:13.133,2.5,11.375
12:37:13.147,2,11.25
12:37:13.155,2.25,9.6875
12:37:13.162,1.3125,10.6875
12:37:13.173,2.125,9.9375
12:37:13.184,2.375,8.6875
12:37:13.195,2.875,10.6875
12:37:13.203,2.875,10.8125
12:37:13.213,3.0625,10.75
12:37:13.224,2.875,13
12:37:13.235,3.75,12.25
12:37:13.244,3.4375,12.125
12:37:13.253,3.4375,13.9376
12:37:13.264,3,12.75
12:37:13.274,3.5,12.375
12:37:13.282,3.125,12.375
12:37:13.293,2.3125,10.5625
12:37:13.304,1.625,11.375
12:37:13.314,2.125,10
12:37:13.323,1.8125,9.125
12:37:13.334,1,7.375
12:37:13.343,0.6875,7.875
12:37:13.352,0.125,7.25
12:37:13.364,-0.125,5.25
12:37:13.374,-0.875,3.6875
12:37:13.382,-1.3125,3.0625
12:37:13.394,-1.5625,3.25
12:37:13.405,-2,1.75
12:37:13.412,-2.8125,1.25
12:37:13.422,-3.1875,1.1875
12:37:13.434,-3,-0.0625
12:37:13.443,-3.75,-1.3125
12:37:13.454,-3.5625,-1.875
12:37:13.463,-4,-2.8125
12:37:13.475,-3.8125,-3.625
12:37:13.484,-4.375,-4.625
12:37:13.493,-4.5,-4.1875
12:37:13.502,-3.9375,-5.0625
12:37:13.514,-4.75,-6.625
12:37:13.523,-5.5625,-7.1875
12:37:13.533,-5.875,-7.5
12:37:13.544,-5.9375,-8.875
12:37:13.553,-6.4375,-8.625
12:37:13.564,-6.375,-9.25
12:37:13.573,-7.125,-10.125
12:37:13.584,-6.1875,-10.0625
12:37:13.593,-6.375,-10.1875
12:37:13.604,-6.75,-10.9375
12:37:13.613,-7,-11
12:37:13.624,-6.9375,-12.125
12:37:13.633,-7.25,-12.3125
12:37:13.644,-7.375,-12.3125
12:37:13.655,-6.8125,-12.5625
12:37:13.674,-5.875,-10.4375
12:37:13.680,-4.9375,-7.5625
12:37:13.684,-2.5625,-3.6875
12:37:13.733,-0.625,0.625
12:37:13.733,2.125,5.875
12:37:13.748,4.375,10.6875
12:37:13.752,6.4375,15.8126
12:37:13.752,7.9375,19.4376
12:37:13.752,8.8125,22.7501
12:37:13.760,9.5625,24.3126
12:37:13.770,9.875,24.6251
12:37:13.783,9.4375,24.6251
12:37:13.789,9.0625,23.8751
12:37:13.799,8.6875,23.0001
12:37:13.807,7.5,22.3126
12:37:13.819,7.0625,20.4376
12:37:13.829,6.4375,18.5626
12:37:13.839,5.8125,18.3126
12:37:13.849,6.125,17.6876
12:37:13.859,5.375,17.1876
12:37:13.891,5.125,17.0001
12:37:13.895,4.875,17.6251
12:37:13.900,4.9375,16.0001
12:37:13.905,4.75,15.6251
12:37:13.909,4.3125,15.3126
12:37:13.918,3.625,14.0001
12:37:13.930,2.875,13.2501
12:37:13.939,2.4375,11.25
12:37:13.949,1.8125,9.875
12:37:13.957,2.125,10.9375
12:37:13.969,2.4375,10.375
12:37:13.979,2.0625,9.875
12:37:13.988,1.875,11.0625
12:37:13.999,2.5,10.75
12:37:14.009,3.4375,11.0625
12:37:14.019,3.5,11.6875
12:37:14.029,3.1875,13.125
12:37:14.039,3.375,13
12:37:14.049,3.375,13
12:37:14.060,3.125,12.1875
12:37:14.069,2.875,13.6251
12:37:14.082,2.75,11.375
12:37:14.089,2.4375,10.375
12:37:14.098,2.1875,10.3125
12:37:14.109,1.5625,10.125
12:37:14.120,1.5,8.625
12:37:14.129,0.4375,6.5625
12:37:14.137,0.125,7.3125
12:37:14.149,0.5,5.9375
12:37:14.186,-0.6875,4.25
12:37:14.189,-1.375,3.1875
12:37:14.192,-1.5625,3.0625
12:37:14.194,-1.5625,2.0625
12:37:14.229,-2.75,0.1875
12:37:14.230,-3.75,-0.3125
12:37:14.232,-3.375,-0.9375
12:37:14.236,-3.875,-2.4375
12:37:14.242,-4.5625,-2.9375
12:37:14.267,-4.875,-3.875
12:37:14.269,-5.0625,-4.75
12:37:14.272,-5.5625,-5.9375
12:37:14.297,-5.5625,-5.5
12:37:14.302,-4.9375,-6.3125
12:37:14.304,-5.3125,-7
12:37:14.309,-5.5625,-8
12:37:14.340,-5.6875,-7.8125
12:37:14.342,-5.3125,-8.0625
12:37:14.346,-5.875,-9.1875
12:37:14.350,-6.5625,-8.75
12:37:14.387,-6.75,-10.3125
12:37:14.389,-7.1875,-11.5625
12:37:14.391,-7.25,-11.125
12:37:14.394,-7.625,-12.875
12:37:14.400,-7.25,-13.4376
12:37:14.414,-7.875,-13.9376
12:37:14.419,-8.3125,-14.6251
12:37:14.450,-8.5625,-15.0001
12:37:14.452,-9.375,-15.8751
12:37:14.454,-9.125,-16.3751
12:37:14.459,-9.75,-16.6876
12:37:14.500,-9.375,-17.1251
12:37:14.504,-9.75,-17.1876
12:37:14.504,-9.25,-17.8751
12:37:14.507,-9.625,-18.2501
12:37:14.512,-9.25,-18.0001
12:37:14.536,-9.125,-17.4376
12:37:14.539,-8.1875,-14.6251
12:37:14.541,-6.375,-12.375
12:37:14.578,-3.875,-8.125
12:37:14.580,-1.625,-2.375
12:37:14.585,1.375,2.625
12:37:14.589,3.3125,8.625
12:37:14.591,5.8125,12.0625
12:37:14.605,7.3125,16.1876
12:37:14.609,8.5,18.3751
12:37:14.639,9.0625,19.8126
12:37:14.641,9.125,20.2501
12:37:14.644,8.5,19.8126
12:37:14.681,8,19.0626
12:37:14.683,6.75,17.8126
12:37:14.686,6.5625,16.9376
12:37:14.694,5.5,15.0001
12:37:14.697,5.0625,14.3751
12:37:14.735,4.75,14.0001
12:37:14.738,4.375,12.6875
12:37:14.741,3.8125,12.625
12:37:14.743,3.9375,12.9375
12:37:14.747,4,12.875
12:37:14.775,4.25,12.5
12:37:14.778,4.0625,12.5625
12:37:14.781,4.5,12.0625
12:37:14.791,3,11.0625
12:37:14.800,3,9.625
12:37:14.805,2.125,7.8125
12:37:14.830,1.3125,8.0625
12:37:14.832,1.75,7.4375
12:37:14.837,1.375,6.875
12:37:14.867,1.375,6.1875
12:37:14.869,1.0625,7
12:37:14.871,1.625,6.875
12:37:14.875,1.875,7.4375
12:37:14.885,1.9375,7.4375
12:37:14.894,1.9375,7.4375
12:37:14.929,2,7.6875
12:37:14.929,1.5625,8.125
12:37:14.932,1.5625,8.25
12:37:14.934,1.375,8.25
12:37:14.965,1.3125,8
12:37:14.966,1.25,6.6875
12:37:14.969,0.6875,5.375
12:37:14.996,0.5,4.5
12:37:14.997,0.0625,3.8125
12:37:14.999,-1,4.375
12:37:15.029,-0.625,2.875
12:37:15.062,-1.4375,2.125
12:37:15.064,-1.875,1.125
12:37:15.098,-2.8125,0.5
12:37:15.098,-2.3125,-0.1875
12:37:15.098,-2.625,-1.625
12:37:15.101,-3.5625,-3.125
12:37:15.164,-4.1875,-3.9375
12:37:15.166,-4.8125,-4.5
12:37:15.166,-5.375,-4.3125
12:37:15.166,-5.375,-6.5
12:37:15.180,-5.75,-7.3125
12:37:15.183,-5.6875,-7.75
12:37:15.186,-6.5,-7.0625
12:37:15.186,-5.75,-8.3125
12:37:15.186,-6.25,-9.25
12:37:15.194,-6.125,-9
12:37:15.204,-6.6875,-8.1875
12:37:15.214,-6.6875,-9.5
12:37:15.225,-6.6875,-10
12:37:15.234,-6.5625,-10.3125
12:37:15.244,-6.4375,-11.8125
12:37:15.258,-7.25,-13.3126
12:37:15.264,-7.9375,-12.5625
12:37:15.274,-8.1875,-13.4376
12:37:15.284,-8.25,-14.7501
12:37:15.294,-9.125,-15.5626
12:37:15.304,-9.75,-18.1251
12:37:15.314,-9,-18.1251
12:37:15.324,-8.375,-18.0626
12:37:15.334,-9.25,-18.6251
12:37:15.344,-9.5,-18.6251
12:37:15.354,-9.6875,-18.9376
12:37:15.364,-9.75,-20.0001
12:37:15.375,-10.25,-20.0001
12:37:15.384,-9.625,-20.0626
12:37:15.397,-9.9375,-20.3751
12:37:15.404,-8.125,-18.0001
12:37:15.414,-7.3125,-15.3126
12:37:15.424,-5.0625,-11.75
12:37:15.434,-2.4375,-8.3125
12:37:15.444,-0.4375,-1.5625
12:37:15.455,2.375,2.1875
12:37:15.464,3.75,7.5
12:37:15.475,5.9375,10.6875
12:37:15.484,6.125,14.3126
12:37:15.494,7,14.6876
12:37:15.504,7.25,16.3126
12:37:15.514,6.625,15.3126
12:37:15.524,6.6875,13.6876
12:37:15.535,5.9375,14.0001
12:37:15.545,5.5625,12.5625
12:37:15.554,4.75,11.625
12:37:15.564,4.9375,10.375
12:37:15.574,4.0625,9.6875
12:37:15.584,3.25,9.75
12:37:15.594,3.8125,8
12:37:15.604,3.9375,8.5625
12:37:15.614,4.125,8.8125
12:37:15.624,4.8125,8.3125
12:37:15.635,3.75,7.4375
12:37:15.644,3.4375,7.4375
12:37:15.654,3.3125,7.625
12:37:15.664,3.3125,5.6875
12:37:15.674,2.375,4.375
12:37:15.684,1.6875,3.75
12:37:15.694,1.0625,3.3125
12:37:15.704,1.125,2.4375
12:37:15.714,1.25,1.6875
12:37:15.724,0.6875,1.25
12:37:15.734,0.875,2.625
12:37:15.744,1.8125,3.0625
12:37:15.754,2.4375,3
12:37:15.764,1.75,3.8125
12:37:15.774,1.3125,4.9375
12:37:15.785,1.375,4.5
12:37:15.795,1.5625,3.8125
12:37:15.804,1.1875,3.625
12:37:15.814,0.875,4.3125
12:37:15.823,1,3.375
12:37:15.834,0.5625,1.625
12:37:15.844,-0.125,1
12:37:15.854,-0.0625,1.5625
12:37:15.864,-0.5625,0.625
12:37:15.874,0,0
12:37:15.884,-1,-0.875
12:37:15.894,-1.375,-1.875
12:37:15.904,-1.625,-2.125
12:37:15.914,-1.5625,-2.8125
12:37:15.924,-2.1875,-4.4375
12:37:15.934,-2.4375,-4.75
12:37:15.944,-3.125,-4.8125
12:37:15.954,-3.5625,-5.9375
12:37:15.964,-3.4375,-7.875
12:37:15.974,-3.375,-7.9375
12:37:15.985,-4.25,-7.625
12:37:15.994,-3.75,-9
12:37:16.011,-4.375,-9.6875
12:37:16.014,-5,-9.6875
12:37:16.024,-4.125,-10.625
12:37:16.034,-4.6875,-11.625
12:37:16.044,-4.9375,-11.1875
12:37:16.055,-5.375,-12.625
12:37:16.064,-5.9375,-12.4375
12:37:16.074,-5.8125,-14.0626
12:37:16.084,-6.875,-14.3126
12:37:16.093,-6.25,-15.4376
12:37:16.104,-6.8125,-14.8751
12:37:16.114,-7.0625,-15.8126
12:37:16.124,-7,-15.4376
12:37:16.134,-7.3125,-16.9376
12:37:16.144,-7.5,-17.1876
12:37:16.154,-7.625,-17.4376
12:37:16.164,-7.75,-17.3751
12:37:16.174,-7.75,-17.5626
12:37:16.184,-7.1875,-18.5626
12:37:16.195,-6.75,-18.1876
12:37:16.204,-7.1875,-17.9376
12:37:16.214,-6.5625,-16.8126
12:37:16.224,-4.75,-13.8751
12:37:16.234,-3.625,-10.1875
12:37:16.244,-1.1875,-5.75
12:37:16.254,1.25,-0.3125
12:37:16.264,3.9375,3.5625
12:37:16.274,5,7.375
12:37:16.284,6.9375,11.25
12:37:16.294,7.625,13.5001
12:37:16.304,8.3125,15.0626
12:37:16.314,7.5,14.1876
12:37:16.325,7.375,14.6251
12:37:16.334,6.5,13
12:37:16.344,6.3125,12.5
12:37:16.355,5.9375,10.5625
12:37:16.364,5.125,10.3125
12:37:16.387,4.6875,8.75
12:37:16.390,4.25,8.25
12:37:16.394,4.0625,7.125
12:37:16.413,3.5,7.375
12:37:16.416,3.9375,6.0625
12:37:16.454,3.25,5.625
12:37:16.457,3.625,6.5
12:37:16.459,3.9375,5.5625
12:37:16.461,2.875,4.5625
12:37:16.466,2.3125,4.125
12:37:16.475,2.4375,3.8125
12:37:16.485,1.875,2.3125
12:37:16.495,1.125,1.375
12:37:16.504,0.9375,1.1875
12:37:16.515,0.75,-0.625
12:37:16.524,0.6875,1.5625
12:37:16.534,1.3125,1.0625
12:37:16.543,2,1.125
12:37:16.555,2.3125,1.875
12:37:16.564,2.1875,1.75
12:37:16.574,1.5625,2.6875
12:37:16.585,1.75,3.5
12:37:16.595,2.0625,3.375
12:37:16.604,2.75,3.625
12:37:16.615,2.125,2.3125
12:37:16.624,1.25,1.9375
12:37:16.634,1.1875,2.1875
12:37:16.645,0.625,0.375
12:37:16.656,0.5,-0.375
12:37:16.664,0.125,0.3125
12:37:16.674,-0.4375,-1.375
12:37:16.684,0,-2.0625
12:37:16.694,-0.625,-2.4375
12:37:16.704,-1.1875,-2.6875
12:37:16.714,-1.3125,-4.25
12:37:16.724,-1.375,-6.0625
12:37:16.734,-2.0625,-5.875
12:37:16.744,-1.8125,-6.75
12:37:16.760,-2.8125,-7.375
12:37:16.765,-3.375,-8.25
12:37:16.775,-3.875,-8.9375
12:37:16.784,-3.625,-9.5625
12:37:16.794,-3.625,-10.4375
12:37:16.804,-3.9375,-11.9375
12:37:16.814,-4.125,-11.125
12:37:16.824,-4.5625,-12.4375
12:37:16.834,-5.3125,-12.0625
12:37:16.844,-4.75,-12.4375
12:37:16.854,-5,-13.6876
12:37:16.864,-5.8125,-12.875
12:37:16.874,-5.25,-13.7501
12:37:16.884,-5.5625,-13.6876
12:37:16.894,-5.625,-14.4376
12:37:16.904,-5.6875,-13.4376
12:37:16.914,-5.0625,-15.3126
12:37:16.924,-6,-15.0626
12:37:16.934,-5.8125,-15.4376
12:37:16.944,-5.75,-16.6876
12:37:16.954,-5.875,-16.5001
12:37:16.964,-6.8125,-18.1876
12:37:16.974,-6.9375,-18.1876
12:37:16.984,-7.3125,-19.0626
12:37:16.994,-7.8125,-19.4376
12:37:17.004,-8.25,-19.5626
12:37:17.014,-8,-20.8126
12:37:17.024,-8.5,-20.5626
12:37:17.034,-8.1875,-21.5626
12:37:17.044,-8.625,-21.6251
12:37:17.054,-8.5625,-22.8126
12:37:17.064,-8.75,-22.1251
12:37:17.074,-8.75,-22.0001
12:37:17.084,-8.8125,-23.1876
12:37:17.094,-9.1875,-23.6251
12:37:17.104,-9,-23.3126
12:37:17.114,-7.8125,-23.1251
12:37:17.124,-7.75,-19.1876
12:37:17.135,-5.75,-17.9376
12:37:17.144,-3.5625,-12.5625
12:37:17.154,-0.25,-8.3125
12:37:17.164,1.25,-1.5625
12:37:17.174,4.125,2.0625
12:37:17.184,5.5,7.4375
12:37:17.194,7.25,9.875
12:37:17.204,7.8125,11.875
12:37:17.214,8.125,13.3126
12:37:17.224,8.3125,13.1876
12:37:17.238,8,13.0625
12:37:17.244,7.25,12.5
12:37:17.255,7.125,10.6875
12:37:17.265,6.25,10.3125
12:37:17.275,5.3125,8.8125
12:37:17.284,4.3125,7.9375
12:37:17.294,4.6875,6.5
12:37:17.304,4.375,6
12:37:17.315,3.9375,5.75
12:37:17.324,4.1875,5.9375
12:37:17.334,4.4375,5.9375
12:37:17.344,4.75,5.5
12:37:17.354,4.25,6.125
12:37:17.364,3.625,6
12:37:17.374,3.875,5
12:37:17.384,3.375,3.5
12:37:17.394,3,3.125
12:37:17.404,2.375,1.9375
12:37:17.414,1.6875,1.625
12:37:17.424,3,1.25
12:37:17.434,2.625,0.625
12:37:17.444,1.8125,2.4375
12:37:17.454,2.875,1.4375
12:37:17.464,3.1875,1.5
12:37:17.474,3.1875,1.75
12:37:17.484,3.125,4.1875
12:37:17.494,3.5,3.25
12:37:17.504,3.625,2.4375
12:37:17.518,2.9375,3.75
12:37:17.525,3.75,3.25
12:37:17.536,3.125,2.6875
12:37:17.544,2.375,1.5
12:37:17.555,2.3125,2.25
12:37:17.564,2.5,1.125
12:37:17.574,1.625,0.0625
12:37:17.584,1.0625,-0.1875
12:37:17.594,1.1875,-0.625
12:37:17.604,1.125,-1
12:37:17.614,0.625,-3.3125
12:37:17.625,-0.25,-2.375
12:37:17.634,-0.5625,-4.75
12:37:17.644,-1.0625,-5.5625
12:37:17.654,-1.8125,-5.6875
12:37:17.664,-1.6875,-6.4375
12:37:17.674,-1.8125,-7.4375
12:37:17.684,-2.3125,-9.125
12:37:17.694,-2.3125,-8.1875
12:37:17.745,-2.375,-9.4375
12:37:17.759,-3.4375,-10.375
12:37:17.763,-3.5,-9.5625
12:37:17.763,-3.25,-11
12:37:17.769,-3.375,-11.9375
12:37:17.769,-4.0625,-11.8125
12:37:17.769,-3.8125,-12.875
12:37:17.774,-4.125,-12.75
12:37:17.784,-3.9375,-14.0001
12:37:17.795,-4.3125,-13.7501
12:37:17.804,-3.875,-14.0626
12:37:17.814,-4.9375,-14.0626
12:37:17.825,-4.0625,-14.0626
12:37:17.834,-4.8125,-14.4376
12:37:17.844,-4,-14.1876
12:37:17.854,-4.5625,-14.8751
12:37:17.866,-4.8125,-15.1251
12:37:17.874,-4.625,-16.0626
12:37:17.884,-4.8125,-16.3751
12:37:17.899,-4.75,-16.3126
12:37:17.904,-5.0625,-17.3126
12:37:17.914,-5.9375,-18.0001
12:37:17.925,-6.3125,-18.8751
12:37:17.934,-6.375,-19.8751
12:37:17.944,-6.875,-19.5626
12:37:17.954,-7.4375,-20.0001
12:37:17.964,-7.75,-21.1251
12:37:17.975,-8.3125,-22.1876
12:37:17.983,-8.5625,-22.6251
12:37:17.994,-9.75,-22.8751
12:37:18.004,-9,-23.2501
12:37:18.014,-9.3125,-24.0001
12:37:18.024,-9.375,-23.5626
12:37:18.034,-9.8125,-24.1876
12:37:18.045,-9.0625,-24.7501
12:37:18.054,-9.0625,-25.4376
12:37:18.064,-9.375,-24.3126
12:37:18.073,-9.5625,-24.5626
12:37:18.085,-9.3125,-25.4376
12:37:18.094,-8.9375,-24.1251
12:37:18.105,-7.8125,-21.4376
12:37:18.114,-5.4375,-18.5626
12:37:18.124,-2.9375,-13.6251
12:37:18.134,-0.8125,-8.1875
12:37:18.144,2.0625,-3.25
12:37:18.154,4.125,2.1875
12:37:18.164,5.3125,6.1875
12:37:18.174,6.5625,9.0625
12:37:18.184,7.875,11.3125
12:37:18.195,7.8125,11.1875
12:37:18.204,7.3125,12.0625
12:37:18.214,6.5625,10.5
12:37:18.224,5.375,9.625
12:37:18.234,5.6875,7.6875
12:37:18.244,4.25,7
12:37:18.254,4.8125,5.375
12:37:18.264,3.625,5.875
12:37:18.274,3.625,3.875
12:37:18.285,2.8125,4.5625
12:37:18.294,3.25,2.75
12:37:18.304,2.75,4.25
12:37:18.315,3,3
12:37:18.324,3.4375,3.6875
12:37:18.335,3.25,2.5
12:37:18.347,2.6875,2.8125
12:37:18.354,2.5,1.875
12:37:18.364,1.9375,0.5
12:37:18.375,1.5,0.5
12:37:18.384,1.75,-0.25
12:37:18.394,1.0625,-0.875
12:37:18.404,0.75,0.0625
12:37:18.415,1.5625,-1.375
12:37:18.424,1.8125,-1
12:37:18.460,1.5,0.0625
12:37:18.461,2.9375,0.75
12:37:18.467,2.3125,0.5625
12:37:18.467,2.9375,2.125
12:37:18.506,3.125,2.5625
12:37:18.507,3.1875,2.1875
12:37:18.509,2.6875,0.8125
12:37:18.514,2.3125,2.875
12:37:18.518,2.375,1.6875
12:37:18.527,2.3125,0.3125
12:37:18.564,2,0.5
12:37:18.566,1.375,1.125
12:37:18.569,1.3125,-1.25
12:37:18.571,0.6875,-3.25
12:37:18.577,0.4375,-1.875
12:37:18.611,0.375,-3.9375
12:37:18.614,-0.1875,-3.5
12:37:18.619,-0.8125,-4.875
12:37:18.627,-0.3125,-5.4375
12:37:18.627,-1.5625,-7.3125
12:37:18.639,-1.9375,-7.0625
12:37:18.644,-1.75,-7.5
12:37:18.674,-2.1875,-8.875
12:37:18.677,-2.6875,-9.9375
12:37:18.708,-3.1875,-10.8125
12:37:18.709,-3.0625,-9.5
12:37:18.711,-3.375,-10.9375
12:37:18.714,-3,-11.125
12:37:18.721,-3.5,-11.8125
12:37:18.735,-2.875,-11.125
12:37:18.741,-3.4375,-11.625
12:37:18.770,-3.25,-12.625
12:37:18.773,-2.5625,-12.4375
12:37:18.775,-3.25,-13.1876
12:37:18.809,-3.1875,-12.875
12:37:18.811,-3.1875,-13.8126
12:37:18.815,-3.5625,-13.9376
12:37:18.819,-4.25,-14.9376
12:37:18.821,-4.6875,-15.3751
12:37:18.853,-5,-15.6876
12:37:18.855,-5.4375,-17.4376
12:37:18.858,-5.4375,-16.9376
12:37:18.860,-6.1875,-18.3126
12:37:18.892,-6.5625,-17.6251
12:37:18.895,-5.875,-19.0626
12:37:18.895,-6.8125,-19.3126
12:37:18.901,-6.875,-19.3126
12:37:18.910,-6.375,-19.1251
12:37:18.947,-6.9375,-20.1876
12:37:18.949,-7.3125,-19.5001
12:37:18.951,-6.875,-20.7501
12:37:18.954,-7,-20.5001
12:37:18.960,-6.625,-21.3126
12:37:18.989,-6.625,-19.3751
12:37:19.022,-6.4375,-20.4376
12:37:19.024,-5.4375,-17.3751
12:37:19.062,-3.6875,-14.8126
12:37:19.067,-1.0625,-11.5
12:37:19.067,1,-5.375
12:37:19.067,3.1875,-0.0625
12:37:19.070,5.5,3.375
12:37:19.101,7,6.25
12:37:19.104,7.9375,10.0625
12:37:19.106,8.5,10.25
12:37:19.109,8.875,11.75
12:37:19.146,8.25,10.8125
12:37:19.148,7.5625,10.5
12:37:19.151,6.9375,9.25
12:37:19.157,6.0625,7
12:37:19.160,5.4375,6
12:37:19.175,4.75,5.125
12:37:19.203,4.6875,4.5
12:37:19.205,4.0625,3.0625
12:37:19.208,4,3.125
12:37:19.213,3.5625,2.8125
12:37:19.244,3.5,2.0625
12:37:19.244,2.5,-1.5
12:37:19.245,2.5625,0
12:37:19.272,1.875,-1.8125
12:37:19.274,2.25,-3.25
12:37:19.276,1.125,-2.9375
12:37:19.308,0.6875,-3
12:37:19.311,1.625,-4.1875
12:37:19.312,1.5625,-4.25
12:37:19.316,2.1875,-3.25
12:37:19.321,2.1875,-2.3125
12:37:19.359,2.125,-2.0625
12:37:19.360,2.125,-0.6875
12:37:19.363,2.75,-0.875
12:37:19.368,2.1875,-1.625
12:37:19.373,2.625,-1.1875
12:37:19.398,2.75,-0.9375
12:37:19.400,2.5,-1.9375
12:37:19.403,1.6875,-2.75
12:37:19.428,1.625,-2.1875
12:37:19.431,0.875,-3.125
12:37:19.433,1.125,-4.0625
12:37:19.440,0.1875,-5.3125
12:37:19.457,0.125,-4.75
12:37:19.460,-0.5625,-7.5
12:37:19.470,-1,-6.625
12:37:19.480,-0.8125,-8.25
12:37:19.492,-1.875,-8.6875
12:37:19.499,-1.125,-9.5
12:37:19.510,-1.3125,-10.25
12:37:19.519,-2.8125,-11.4375
12:37:19.530,-3.0625,-11.125
12:37:19.540,-3.0625,-13.6876
12:37:19.550,-3.3125,-12.5
12:37:19.559,-4.25,-14.2501
12:37:19.570,-4.4375,-14.6251
12:37:19.579,-4.0625,-14.6876
12:37:19.590,-3.6875,-15.3126
12:37:19.600,-4.4375,-15.3751
12:37:19.611,-4.625,-15.3751
12:37:19.621,-3.9375,-15.0626
12:37:19.636,-4.4375,-16.1876
12:37:19.640,-4.3125,-16.2501
12:37:19.651,-4.1875,-16.1251
12:37:19.660,-4.25,-16.7501
12:37:19.670,-4.8125,-17.0626
12:37:19.679,-4.3125,-16.9376
12:37:19.690,-5.25,-17.6251
12:37:19.700,-4.8125,-18.1876
12:37:19.711,-5.8125,-18.8751
12:37:19.721,-5.5,-19.0001
12:37:19.730,-6.4375,-18.8751
12:37:19.740,-6.375,-20.8126
12:37:19.751,-6.875,-20.5626
12:37:19.761,-6.5625,-21.1251
12:37:19.769,-7,-20.8126
12:37:19.780,-7.25,-22.0626
12:37:19.789,-7.625,-22.6251
12:37:19.801,-7.3125,-21.7501
12:37:19.810,-8.1875,-22.8126
12:37:19.821,-8.1875,-23.8751
12:37:19.831,-8.875,-24.1876
12:37:19.840,-8.4375,-23.9376
12:37:19.850,-8.75,-23.9376
12:37:19.860,-8.75,-24.3126
12:37:19.870,-8.75,-24.9376
12:37:19.880,-7.9375,-23.6876
12:37:19.890,-7.125,-22.4376
12:37:19.900,-5.1875,-17.3126
12:37:19.910,-3.3125,-13.2501
12:37:19.919,-0.75,-8.6875
12:37:19.930,1.25,-4.25
12:37:19.940,3.1875,1.4375
12:37:19.950,5.5,3.875
12:37:19.960,6.0625,7.875
12:37:19.970,7.125,8.875
12:37:19.980,6.75,10.1875
12:37:19.990,6.8125,9.4375
12:37:20.000,6.1875,7.875
12:37:20.010,5.375,6.8125
12:37:20.020,4.6875,4.5625
12:37:20.030,4.1875,4.5625
12:37:20.039,3.5625,2.125
12:37:20.050,4,3.125
12:37:20.060,2.625,1.125
12:37:20.070,2.75,0.9375
12:37:20.080,2.6875,1.0625
12:37:20.090,1.6875,0.3125
12:37:20.100,1.8125,0.3125
12:37:20.110,1.875,0
12:37:20.120,-0.0625,-2.5
12:37:20.130,-3.0625,-5.4375
12:37:20.140,-3.75,-6.125
12:37:20.150,-3.4375,-5.75
12:37:20.160,-3.5,-6.5625
12:37:20.170,-5.125,-8.8125
12:37:20.180,-5.375,-9.5625
12:37:20.190,-5.375,-8.4375
12:37:20.200,-5.125,-8.5
12:37:20.210,-5.125,-9.3125
12:37:20.220,-4.6875,-8.8125
12:37:20.232,-4.0625,-8.0625
12:37:20.240,-4.25,-6.1875
12:37:20.252,-2.8125,-5.375
12:37:20.260,-2.5625,-5.75
12:37:20.293,-3,-5.5625
12:37:20.308,-3.1875,-5.25
12:37:20.311,-3.8125,-5.4375
12:37:20.324,-3.8125,-6
12:37:20.342,-4.5625,-7.4375
12:37:20.342,-5.75,-7.6875
12:37:20.342,-5.875,-9.25
12:37:20.357,-5.6875,-8.5625
12:37:20.359,-6,-10.4375
12:37:20.361,-6.1875,-10
12:37:20.371,-6.25,-12.375
12:37:20.386,-7.125,-11.8125
12:37:20.390,-7.0625,-13.1251
12:37:20.400,-7.5625,-15.3751
12:37:20.410,-8.5625,-14.7501
12:37:20.420,-9.0625,-16.5626
12:37:20.431,-8.8125,-17.3126
12:37:20.440,-9.4375,-18.0626
12:37:20.450,-9.5,-18.5626
12:37:20.460,-9.8125,-19.6876
12:37:20.470,-9.5625,-19.8126
12:37:20.480,-9.5625,-19.6251
12:37:20.491,-10.125,-21.0001
12:37:20.502,-10.125,-22.1251
12:37:20.510,-11.125,-21.5001
12:37:20.521,-10.5,-22.1876
12:37:20.530,-10.625,-22.0001
12:37:20.541,-10.75,-22.6251
12:37:20.550,-10.8125,-22.7501
12:37:20.561,-10.75,-23.2501
12:37:20.571,-11.1875,-24.6876
12:37:20.580,-10.3125,-23.6876
12:37:20.591,-9.5,-24.0001
12:37:20.600,-8.625,-22.6251
12:37:20.610,-7.625,-22.0001
12:37:20.620,-7.1875,-21.9376
12:37:20.631,-7.875,-22.5001
12:37:20.640,-8.1875,-23.9376
12:37:20.650,-7.9375,-22.6876
12:37:20.660,-7.5,-23.2501
12:37:20.670,-8.0625,-23.9376
12:37:20.680,-7.5,-24.4376
12:37:20.690,-7.5625,-24.6251
12:37:20.701,-8.625,-25.7501
12:37:20.710,-7.9375,-25.5626
12:37:20.721,-8.0625,-26.0001
12:37:20.730,-8.25,-25.0626
12:37:20.741,-8.6875,-26.2501
12:37:20.750,-9.8125,-27.3126
12:37:20.765,-11,-27.5001
12:37:20.770,-11.8125,-29.8751
12:37:20.780,-13.2501,-30.0001
12:37:20.790,-14.4376,-32.3751
12:37:20.800,-15.1251,-33.1876
12:37:20.810,-14.3751,-33.0001
12:37:20.820,-14.0626,-33.1251
12:37:20.831,-14.5001,-32.5001
12:37:20.841,-13.8751,-33.0001
12:37:20.850,-14.1876,-32.9376
12:37:20.860,-13.8751,-31.1876
12:37:20.870,-11.75,-29.3126
12:37:20.880,-10.0625,-23.9376
12:37:20.890,-7.6875,-19.6876
12:37:20.900,-5.5625,-14.4376
12:37:20.910,-3.125,-8.375
12:37:20.920,-1.6875,-5.3125
12:37:20.930,0.6875,-1.875
12:37:20.940,0.875,-0.6875
12:37:20.951,1.875,1.75
12:37:20.961,1.25,1.375
12:37:20.970,1.5,1.875
12:37:20.980,0.9375,-0.125
12:37:20.990,0.1875,0.375
12:37:21.001,-0.625,-2.1875
12:37:21.010,-2.3125,-3.0625
12:37:21.020,-2.3125,-5.0625
12:37:21.030,-4.375,-6
12:37:21.040,-5.125,-7.5
12:37:21.050,-4.875,-9.25
12:37:21.060,-5.75,-8
12:37:21.070,-5.3125,-9.875
12:37:21.080,-6.0625,-8.4375
12:37:21.090,-5.0625,-9.6875
12:37:21.100,-5.6875,-9.75
12:37:21.112,-6.0625,-10.25
12:37:21.121,-6.3125,-12.375
12:37:21.130,-6.6875,-12
12:37:21.141,-6.5,-12.4375
12:37:21.152,-6.25,-13.2501
12:37:21.161,-7,-14.4376
12:37:21.170,-8.25,-14.8751
12:37:21.181,-9.375,-17.1251
12:37:21.190,-9.375,-15.6876
12:37:21.200,-9.4375,-16.8751
12:37:21.210,-8.625,-15.0626
12:37:21.221,-8.1875,-15.3751
12:37:21.230,-9.0625,-14.6876
12:37:21.240,-8.375,-14.4376
12:37:21.250,-8.4375,-14.7501
12:37:21.260,-7.875,-13.9376
12:37:21.270,-7.1875,-14.0626
12:37:21.280,-7.3125,-12.875
12:37:21.290,-6.875,-14.6876
12:37:21.302,-7.375,-14.2501
12:37:21.310,-7.125,-14.5626
12:37:21.320,-6.25,-15.1251
12:37:21.330,-7.125,-15.3751
12:37:21.340,-7.75,-16.8751
12:37:21.351,-8.0625,-17.4376
12:37:21.360,-8.0625,-17.4376
12:37:21.370,-7.75,-17.6876
12:37:21.380,-7.375,-18.5001
12:37:21.390,-6.9375,-17.8751
12:37:21.400,-6.75,-18.8126
12:37:21.410,-6.9375,-19.0001
12:37:21.421,-6.1875,-19.7501
12:37:21.430,-6,-19.3751
12:37:21.440,-5.375,-18.6251
12:37:21.450,-4.4375,-18.6876
12:37:21.460,-3.875,-17.1251
12:37:21.470,-2.75,-17.3126
12:37:21.480,-2,-16.5626
12:37:21.491,-0.875,-16.3751
12:37:21.500,-0.75,-17.6251
12:37:21.513,-1,-15.8751
12:37:21.523,-0.5,-16.8751
12:37:21.530,0.625,-15.1876
12:37:21.540,1.5625,-15.1251
12:37:21.572,2.25,-14.0626
12:37:21.574,2.8125,-13.7501
12:37:21.576,2.6875,-14.3126
12:37:21.582,2.75,-13.4376
12:37:21.603,3.75,-14.3751
12:37:21.608,3.9375,-13.7501
12:37:21.612,5.0625,-13
12:37:21.620,5.0625,-13.9376
12:37:21.637,5.0625,-13.1251
12:37:21.652,5.4375,-14.0001
12:37:21.655,5.75,-13.9376
12:37:21.669,5.375,-15.0001
12:37:21.684,3.9375,-14.5626
12:37:21.686,3.4375,-16.1251
12:37:21.701,2.5,-17.1251
12:37:21.704,2.3125,-15.8751
12:37:21.711,1.75,-16.8126
12:37:21.720,0.9375,-18.5626
12:37:21.730,-0.3125,-19.2501
12:37:21.740,-1.6875,-19.5001
12:37:21.750,-2.3125,-21.3126
12:37:21.760,-3.6875,-22.8126
12:37:21.770,-5.1875,-23.6251
12:37:21.780,-4.3125,-21.1251
12:37:21.790,-3.0625,-18.8126
12:37:21.800,-1.625,-15.1876
12:37:21.810,1,-9.0625
12:37:21.820,3.5,-5.75
12:37:21.830,5.75,-0.6875
12:37:21.840,7.125,2.25
12:37:21.850,8.3125,5.4375
12:37:21.862,9.25,7.125
12:37:21.870,8.1875,7
12:37:21.882,7.8125,6.3125
12:37:21.890,7,6.3125
12:37:21.900,7.0625,4.375
12:37:21.910,5.1875,3.625
12:37:21.920,3.4375,1.3125
12:37:21.930,2.75,-0.0625
12:37:21.940,1.75,-1.625
12:37:21.950,0.8125,-2.8125
12:37:21.960,0.9375,-3.875
12:37:21.971,-0.1875,-5.3125
12:37:21.980,-1.5,-5
12:37:21.990,-1.5625,-6.375
12:37:22.000,-2.6875,-8.625
12:37:22.010,-3.9375,-8.9375
12:37:22.021,-5,-8.8125
12:37:22.030,-5.8125,-11.5
12:37:22.040,-6.8125,-13.2501
12:37:22.050,-8.25,-14.8751
12:37:22.060,-8.375,-15.3751
12:37:22.070,-8.5625,-15.2501
12:37:22.081,-8.1875,-14.0626
12:37:22.090,-7.625,-14.6876
12:37:22.100,-6.75,-14.5626
12:37:22.110,-5.25,-12.375
12:37:22.121,-4.4375,-10.25
12:37:22.130,-3.0625,-9.875
12:37:22.140,-2.875,-9.25
12:37:22.150,-2.3125,-8.5625
12:37:22.160,-2.8125,-9
12:37:22.171,-2.25,-8.3125
12:37:22.183,-2.625,-8.6875
12:37:22.190,-3.1875,-8.125
12:37:22.200,-4.1875,-10.125
12:37:22.210,-5.3125,-11.4375
12:37:22.220,-6,-12.25
12:37:22.230,-7.0625,-13.2501
12:37:22.266,-7.125,-13.1876
12:37:22.268,-7.6875,-14.1251
12:37:22.270,-8.3125,-15.3126
12:37:22.273,-8.9375,-16.0001
12:37:22.305,-9.125,-16.1251
12:37:22.310,-9.5625,-17.9376
12:37:22.311,-9.875,-19.5626
12:37:22.313,-9.8125,-18.8751
12:37:22.321,-10,-19.5626
12:37:22.359,-10,-19.6251
12:37:22.360,-10.625,-20.3126
12:37:22.362,-10.3125,-21.5001
12:37:22.364,-11,-21.1251
12:37:22.371,-10.5625,-21.3126
12:37:22.401,-10.375,-22.0001
12:37:22.404,-11.25,-21.6876
12:37:22.405,-10.0625,-22.5626
12:37:22.437,-11.5625,-22.6251
12:37:22.437,-10.75,-23.1251
12:37:22.439,-10.25,-23.6251
12:37:22.446,-10.0625,-23.3751
12:37:22.480,-9.4375,-24.1251
12:37:22.482,-9.4375,-22.1876
12:37:22.485,-9.375,-22.9376
12:37:22.486,-8.6875,-23.1251
12:37:22.522,-8.5,-23.2501
12:37:22.526,-7.875,-23.5626
12:37:22.527,-7.375,-22.8751
12:37:22.529,-6.25,-22.3126
12:37:22.536,-6.125,-22.2501
12:37:22.565,-6,-22.2501
12:37:22.566,-6.1875,-21.5626
12:37:22.570,-5.375,-20.6876
12:37:22.603,-4.125,-20.1876
12:37:22.607,-3.375,-19.3126
12:37:22.608,-2.0625,-19.3751
12:37:22.643,-1.0625,-17.6876
12:37:22.644,-0.0625,-17.3126
12:37:22.649,0.6875,-13.6876
12:37:22.653,3.625,-10.25
12:37:22.654,6.4375,-6
12:37:22.655,8.6875,-0.625
12:37:22.694,11.1875,4.125
12:37:22.697,13.0625,8.625
12:37:22.699,14.8751,12.5625
12:37:22.703,15.6251,14.8126
12:37:22.733,16.9376,16.4376
12:37:22.734,17.0626,16.5001
12:37:22.736,16.9376,18.0626
12:37:22.742,17.1251,17.0001
12:37:22.774,15.3751,16.0626
12:37:22.776,15.0626,15.1251
12:37:22.778,14.4376,13.0625
12:37:22.810,13.0625,11.6875
12:37:22.810,12.1875,9.9375
12:37:22.813,9.8125,7.8125
12:37:22.819,8.4375,6.5
12:37:22.824,6.9375,5.5625
12:37:22.854,5.875,3.625
12:37:22.856,5.625,2.6875
12:37:22.859,4.875,1.9375
12:37:22.862,4.625,1.0625
12:37:22.895,4.625,1.8125
12:37:22.898,5.125,1.8125
12:37:22.900,5.875,0.75
12:37:22.903,6.375,1.5
12:37:22.935,6.5,0.625
12:37:22.969,6.9375,1
12:37:22.971,5.6875,1.625
12:37:22.974,4.6875,-0.0625
12:37:23.017,3.5,-1.8125
12:37:23.017,2.8125,-1.4375
12:37:23.018,3.125,-0.75
12:37:23.021,3.75,-0.9375
12:37:23.061,3.4375,-0.9375
12:37:23.062,2.75,-1.125
12:37:23.062,2.375,-0.375
12:37:23.066,2.5625,-0.4375
12:37:23.098,1.375,-2.3125
12:37:23.128,1.125,-1.625
12:37:23.128,0.125,-3.1875
12:37:23.128,-0.6875,-4.8125
12:37:23.162,-1.5,-5.4375
12:37:23.163,-2.3125,-6.375
12:37:23.176,-3,-7.3125
12:37:23.176,-3.6875,-7
12:37:23.176,-4,-8.4375
12:37:23.178,-3.8125,-10
12:37:23.182,-3.9375,-10.8125
12:37:23.215,-3.9375,-10.6875
12:37:23.218,-3.75,-10.0625
12:37:23.220,-3.8125,-10.6875
12:37:23.227,-4.0625,-12
12:37:23.241,-3.375,-12.625
12:37:23.244,-3.9375,-13.5626
12:37:23.260,-3.9375,-13.8126
12:37:23.262,-4.4375,-14.0626
12:37:23.270,-4.3125,-14.6251
12:37:23.280,-5.3125,-16.8751
12:37:23.291,-6.4375,-16.4376
12:37:23.300,-7.5625,-18.8126
12:37:23.311,-8.25,-19.1251
12:37:23.320,-8.375,-19.6251
12:37:23.330,-8.5625,-19.9376
12:37:23.340,-8.875,-19.7501
12:37:23.350,-9.25,-20.2501
12:37:23.360,-9.625,-20.7501
12:37:23.370,-9.375,-19.6876
12:37:23.380,-9.5,-20.9376
12:37:23.391,-9.6875,-20.4376
12:37:23.400,-10.125,-22.0001
12:37:23.410,-10.1875,-21.8751
12:37:23.420,-10.4375,-21.7501
12:37:23.430,-10,-22.3126
12:37:23.440,-9.8125,-22.1876
12:37:23.450,-10.3125,-22.6251
12:37:23.460,-10.625,-22.8751
12:37:23.470,-9.625,-23.0626
12:37:23.481,-10.125,-21.5626
12:37:23.491,-9.1875,-23.5626
12:37:23.500,-9.9375,-22.3751
12:37:23.510,-9,-23.6251
12:37:23.520,-9.3125,-22.8126
12:37:23.531,-8.6875,-23.3751
12:37:23.540,-8.3125,-22.8751
12:37:23.550,-7.25,-20.5001
12:37:23.560,-6.0625,-18.8126
12:37:23.571,-3.8125,-14.1251
12:37:23.580,-0.75,-8.9375
12:37:23.590,2.5625,-2.6875
12:37:23.600,5.4375,2.9375
12:37:23.611,7.375,7.1875
12:37:23.621,9.6875,11.5
12:37:23.632,10.6875,15.2501
12:37:23.640,11.25,16.5626
12:37:23.650,12.25,18.1876
12:37:23.660,13.4376,19.1876
12:37:23.672,14.0626,20.0626
12:37:23.680,14.5626,19.5001
12:37:23.690,14.5626,19.5001
12:37:23.700,13.9376,17.6876
12:37:23.710,13.9376,17.6251
12:37:23.720,13.5001,15.9376
12:37:23.730,14.0626,16.5001
12:37:23.741,14.4376,15.1876
12:37:23.750,15.1251,16.0001
12:37:23.764,14.6251,15.0626
12:37:23.771,14.8751,15.4376
12:37:23.780,15.1876,16.4376
12:37:23.790,16.1251,16.0626
12:37:23.800,15.4376,14.8751
12:37:23.810,14.8751,15.3751
12:37:23.820,13.9376,14.1876
12:37:23.830,13.1876,13.4376
12:37:23.840,12.0625,12.6875
12:37:23.850,11.4375,10.5
12:37:23.860,9.875,9
12:37:23.870,8.875,8.75
12:37:23.880,8.875,7.8125
12:37:23.891,8.25,7.625
12:37:23.900,8.25,9
12:37:23.910,9.0625,9.9375
12:37:23.920,9.3125,9.625
12:37:23.930,9.75,10.8125
12:37:23.941,9.3125,10.5625
12:37:23.950,8.9375,10.1875
12:37:23.960,9.3125,10.3125
12:37:23.970,8.5,10.0625
12:37:23.981,7.0625,10.4375
12:37:23.991,7,8.5
12:37:24.001,7.0625,7.0625
12:37:24.010,6.0625,7.75
12:37:24.020,6.875,6.9375
12:37:24.030,6,5.5625
12:37:24.041,5.625,6.4375
12:37:24.051,5.3125,5.25
12:37:24.060,4.5,3.6875
12:37:24.071,3.0625,2.5
12:37:24.082,2,1.1875
12:37:24.091,1,-1.25
12:37:24.100,-0.625,-3.25
12:37:24.132,-1.75,-3.5625
12:37:24.142,-2.5625,-5.625
12:37:24.144,-3.25,-5.625
12:37:24.146,-3.5,-6.1875
12:37:24.154,-3.3125,-7.5
12:37:24.160,-4.1875,-9.125
12:37:24.172,-4.5625,-8.5625
12:37:24.180,-3.875,-8.9375
12:37:24.190,-4.5,-10.125
12:37:24.201,-4.25,-8.6875
12:37:24.210,-3.3125,-9.1875
12:37:24.221,-1.75,-8.5625
12:37:24.230,-2.125,-8.875
12:37:24.241,-2.0625,-6.9375
12:37:24.251,-1.125,-8.75
12:37:24.263,-1.6875,-7.625
12:37:24.272,-1.875,-9.125
12:37:24.280,-2.625,-8
12:37:24.293,-2.5625,-9.5625
12:37:24.300,-3.1875,-10.3125
12:37:24.317,-4.4375,-11.1875
12:37:24.333,-5.875,-12.875
12:37:24.336,-6.5,-12.875
12:37:24.344,-6.125,-14.0001
12:37:24.350,-7,-14.0001
12:37:24.362,-6.8125,-14.6876
12:37:24.371,-6.8125,-15.2501
12:37:24.381,-6.5625,-15.3751
12:37:24.393,-7.1875,-16.7501
12:37:24.411,-7.75,-16.0626
12:37:24.412,-7.625,-17.1251
12:37:24.427,-8.875,-17.5626
12:37:24.436,-9.25,-18.6251
12:37:24.442,-9.375,-19.1876
12:37:24.450,-9.4375,-19.3751
12:37:24.462,-9.8125,-20.5001
12:37:24.471,-9.75,-19.6876
12:37:24.482,-9.4375,-19.8751
12:37:24.491,-8.5625,-20.6876
12:37:24.501,-9,-19.3751
12:37:24.514,-8.6875,-19.6251
12:37:24.520,-7.875,-18.5001
12:37:24.531,-6.5,-16.5626
12:37:24.540,-4.125,-14.0001
12:37:24.552,-1.1875,-7.1875
12:37:24.560,1.6875,-2
12:37:24.570,4.125,3.875
12:37:24.581,7.3125,10.0625
12:37:24.592,9.1875,13.8751
12:37:24.600,10.125,18.1251
12:37:24.611,12.1875,19.9376
12:37:24.621,12.5625,22.1251
12:37:24.630,12.75,22.6251
12:37:24.640,12.8125,22.2501
12:37:24.652,12.625,22.5001
12:37:24.662,12.0625,20.5001
12:37:24.672,11.625,19.8126
12:37:24.682,11.75,18.7501
12:37:24.691,11.25,18.0001
12:37:24.700,12.375,18.0001
12:37:24.710,12.8125,18.2501
12:37:24.723,14.2501,19.0626
12:37:24.732,14.0001,18.3126
12:37:24.742,13.8126,19.1251
12:37:24.751,14.4376,19.5001
12:37:24.762,14.1251,18.5626
12:37:24.772,13.8126,18.4376
12:37:24.782,13.5001,17.4376
12:37:24.791,14.3126,16.4376
12:37:24.801,14.0001,16.1251
12:37:24.810,14.1251,16.7501
12:37:24.822,14.2501,16.6251
12:37:24.832,14.4376,15.9376
12:37:24.840,14.8751,15.6251
12:37:24.850,15.0626,17.0001
12:37:24.862,15.3751,17.1251
12:37:24.871,15.3126,16.5001
12:37:24.881,14.9376,17.0626
12:37:24.890,14.8126,18.2501
12:37:24.902,14.8751,18.6251
12:37:24.912,14.2501,17.5626
12:37:24.920,12.1875,17.8126
12:37:24.932,11.875,16.7501
12:37:24.942,11.5,15.4376
12:37:24.951,10.625,15.8126
12:37:24.961,9.4375,15.4376
12:37:24.972,9.6875,13.5001
12:37:24.982,8.625,12.25
12:37:24.991,8,12.5
12:37:25.001,8.5,11.8125
12:37:25.010,8.125,10.4375
12:37:25.021,8.25,10.6875
12:37:25.031,8.25,10.625
12:37:25.041,7.4375,8.9375
12:37:25.050,6.375,6.625
12:37:25.063,5.25,5.25
12:37:25.071,4.875,5.3125
12:37:25.081,3.75,3.625
12:37:25.090,2.875,2.3125
12:37:25.102,2.5,1
12:37:25.111,1.75,1.125
12:37:25.121,1.375,0.375
12:37:25.130,2,-0.1875
12:37:25.141,1.4375,-2
12:37:25.151,1.1875,-1.25
12:37:25.162,1.5625,-1.6875
12:37:25.171,0.4375,-3.0625
12:37:25.180,-0.0625,-4.25
12:37:25.191,-0.125,-3.5
12:37:25.201,-0.75,-3.75
12:37:25.211,-0.9375,-4.75
12:37:25.221,-1.1875,-5.6875
12:37:25.231,-1.5,-5.5625
12:37:25.240,-2.0625,-6
12:37:25.251,-1.625,-7.0625
12:37:25.268,-2,-7.9375
12:37:25.270,-2.3125,-7.875
12:37:25.281,-2.9375,-7.9375
12:37:25.291,-3,-9.5
12:37:25.303,-3.4375,-9.8125
12:37:25.311,-3.5,-9.375
12:37:25.321,-3.3125,-10.5
12:37:25.332,-3.5,-9.75
12:37:25.343,-3.3125,-10.4375
12:37:25.351,-3.75,-10.5625
12:37:25.362,-3.8125,-11.625
12:37:25.371,-3.9375,-11.5
12:37:25.382,-3.25,-12
12:37:25.411,-3.9375,-11.875
12:37:25.414,-3.5625,-12.0625
12:37:25.416,-3.875,-11.5625
12:37:25.423,-3.1875,-9.1875
12:37:25.431,-1.6875,-6.1875
12:37:25.441,0.6875,-2.375
12:37:25.451,2.5625,2.3125
12:37:25.460,3.875,7.5625
12:37:25.472,6.125,11.5
12:37:25.481,7.125,15.5001
12:37:25.491,8.0625,18.6876
12:37:25.502,9,19.8751
12:37:25.512,8.6875,21.2501
12:37:25.521,8.375,21.8126
12:37:25.531,7.9375,22.5626
12:37:25.542,7.5,21.3126
12:37:25.552,6.5625,20.7501
12:37:25.561,5.1875,18.5626
12:37:25.572,4.625,18.0001
12:37:25.582,3.375,15.4376
12:37:25.591,2.75,15.1251
12:37:25.603,1.6875,13.6876
12:37:25.612,1.5,13.8126
12:37:25.626,2.125,13.6876
12:37:25.643,2.3125,12.875
12:37:25.646,2.375,14.2501
12:37:25.660,3.125,13.8126
12:37:25.675,3.3125,12.6875
12:37:25.677,3.5,12.5
12:37:25.681,4.1875,13.7501
12:37:25.691,5.9375,13.5001
12:37:25.714,7.4375,14.0001
12:37:25.719,9.1875,14.7501
12:37:25.730,11.4375,15.3751
12:37:25.736,13.3751,18.0001
12:37:25.747,16.0001,19.0626
12:37:25.751,17.8751,20.5001
12:37:25.761,19.1251,21.8751
12:37:25.771,20.0626,24.1876
12:37:25.781,21.5001,24.3751
12:37:25.791,21.5626,24.3751
12:37:25.802,20.3751,24.0001
12:37:25.811,19.1876,24.8751
12:37:25.822,18.1251,23.6876
12:37:25.831,17.3751,23.4376
12:37:25.842,17.2501,21.8126
12:37:25.851,15.8126,20.2501
12:37:25.862,14.8751,20.1876
12:37:25.871,14.4376,20.0626
12:37:25.881,13.7501,19.3751
12:37:25.892,13.3751,18.0001
12:37:25.901,12.4375,16.5001
12:37:25.911,11.625,15.1251
12:37:25.921,11.125,13.8126
12:37:25.931,10.625,13.8126
12:37:25.942,10.5,12.6875
12:37:25.951,10,11.25
12:37:25.961,9,10.375
12:37:25.971,8.3125,10
12:37:25.983,8.1875,8.625
12:37:25.991,7.125,7.75
12:37:26.002,6.125,6.5
12:37:26.015,5.625,5.6875
12:37:26.022,4.6875,4.0625
12:37:26.032,4.25,3.9375
12:37:26.042,3.6875,4.25
12:37:26.052,3.1875,2.8125
12:37:26.063,3.4375,1.5625
12:37:26.071,3.4375,1.8125
12:37:26.081,4,2.1875
12:37:26.091,5.25,2.4375
12:37:26.102,4.9375,1.5625
12:37:26.111,4.375,1.125
12:37:26.121,3.75,2.125
12:37:26.131,4.75,1.375
12:37:26.141,5.3125,1.0625
12:37:26.151,4.875,0.0625
12:37:26.162,4.75,1.625
12:37:26.172,6.5,1.5625
12:37:26.181,6.6875,0.9375
12:37:26.192,6.6875,0.5625
12:37:26.203,6.125,0.9375
12:37:26.211,5.875,-0.5
12:37:26.221,5.4375,-1.625
12:37:26.231,4.4375,-1.125
12:37:26.242,3.875,-2.5
12:37:26.251,3.8125,-3.625
12:37:26.263,3.625,-4.75
12:37:26.271,3.6875,-3.6875
12:37:26.281,2.875,-4.125
12:37:26.291,3.75,-5.125
12:37:26.302,3.6875,-5.8125
12:37:26.311,4.125,-5
12:37:26.321,4.8125,-4.9375
12:37:26.331,5,-6
12:37:26.342,4.9375,-5.875
12:37:26.351,5,-4.6875
12:37:26.361,5.625,-4.4375
12:37:26.372,6.625,-2.1875
12:37:26.382,8.375,1.875
12:37:26.393,10.125,5.75
12:37:26.402,12.75,10.9375
12:37:26.411,14.6876,16.7501
12:37:26.422,17.3126,22.3751
12:37:26.432,19.6876,26.8751
12:37:26.442,20.9376,30.0626
12:37:26.451,22.0001,33.4376
12:37:26.463,22.0626,33.5001
12:37:26.494,22.1251,34.4376
12:37:26.496,22.5001,34.1876
12:37:26.499,21.9376,34.0626
12:37:26.501,21.5001,33.4376
12:37:26.536,21.4376,32.6251
12:37:26.538,20.4376,31.6876
12:37:26.540,20.1251,30.9376
12:37:26.542,19.9376,28.8126
12:37:26.578,18.9376,28.6876
12:37:26.579,18.6251,29.3126
12:37:26.581,19.0001,28.3751
12:37:26.613,19.1251,27.3751
12:37:26.614,19.4376,27.4376
12:37:26.617,19.3126,27.4376
12:37:26.622,19.5626,28.0626
12:37:26.623,18.4376,26.4376
12:37:26.655,17.3126,26.2501
12:37:26.657,17.0626,25.0001
12:37:26.659,16.0626,23.4376
12:37:26.661,16.3751,22.8751
12:37:26.691,16.3126,23.0626
12:37:26.694,16.5001,22.7501
12:37:26.696,16.8751,23.1876
12:37:26.703,16.8126,22.9376
12:37:26.735,17.1876,24.8751
12:37:26.737,17.8126,25.1876
12:37:26.739,17.6251,24.6251
12:37:26.745,17.7501,25.5626
12:37:26.753,17.1876,25.5626
12:37:26.779,17.0626,25.7501
12:37:26.780,16.8126,25.8126
12:37:26.788,15.6876,25.1876
12:37:26.820,15.4376,24.1876
12:37:26.822,15.8751,23.5001
12:37:26.824,15.0626,21.6251
12:37:26.829,14.0001,21.6876
12:37:26.858,13.5626,20.6876
12:37:26.860,13.5626,19.8751
12:37:26.863,11.875,18.2501
12:37:26.868,11.375,18.0626
12:37:26.897,10.5625,17.0626
12:37:26.899,10.625,15.8126
12:37:26.902,9.6875,15.0626
12:37:26.932,8.25,12.9375
12:37:26.932,7.75,11.375
12:37:26.938,7,11.0625
12:37:26.968,6.25,9.6875
12:37:27.043,5.875,9.625
12:37:27.043,5.75,8.0625
12:37:27.076,5.25,6.875
12:37:27.078,4.5,6.875
12:37:27.078,4.6875,5.625
12:37:27.079,3.875,5.6875
12:37:27.095,3.625,5.4375
12:37:27.140,4.125,3.8125
12:37:27.142,4.4375,3.625
12:37:27.142,4.875,3.5625
12:37:27.142,5.5,4.375
12:37:27.143,5.5625,4.8125
12:37:27.148,6.75,4.1875
12:37:27.151,6.1875,3.875
12:37:27.151,5.8125,4.125
12:37:27.160,5.4375,4.1875
12:37:27.192,5.3125,2.4375
12:37:27.194,4.375,1.9375
12:37:27.197,4.3125,1.1875
12:37:27.199,4.1875,1.25
12:37:27.229,4,0.3125
12:37:27.232,3.375,-3.625
12:37:27.234,2.4375,-2.9375
12:37:27.236,2.6875,-3.5625
12:37:27.274,3.0625,-4.375
12:37:27.277,3.5,-5.0625
12:37:27.278,4.5,-4.25
12:37:27.306,4.3125,-4.75
12:37:27.306,4.3125,-5.125
12:37:27.309,3.8125,-5.3125
12:37:27.314,3.4375,-6.5625
12:37:27.319,2.6875,-5.5
12:37:27.348,3.75,-5.9375
12:37:27.349,3.6875,-5
12:37:27.352,5.6875,-2.0625
12:37:27.356,7.5,2.375
12:37:27.393,10.625,8.0625
12:37:27.396,13.7501,13.4376
12:37:27.398,15.1876,18.0001
12:37:27.400,17.5626,24.5626
12:37:27.408,19.6251,27.6876
12:37:27.448,20.0001,29.8126
12:37:27.450,19.9376,33.1251
12:37:27.453,20.3126,33.3751
12:37:27.459,20.4376,33.1251
12:37:27.463,19.5626,32.6876
12:37:27.481,18.5626,32.5001
12:37:27.484,18.1251,30.7501
12:37:27.486,18.1876,29.6876
12:37:27.496,18.0001,30.1251
12:37:27.509,18.6251,29.5001
12:37:27.516,17.1251,27.9376
12:37:27.527,16.8751,28.9376
12:37:27.537,17.1251,27.3751
12:37:27.546,16.8751,27.3751
12:37:27.556,16.5626,26.6876
12:37:27.567,16.5001,27.8126
12:37:27.576,16.6251,26.9376
12:37:27.586,16.5001,25.9376
12:37:27.596,15.8751,25.2501
12:37:27.606,15.5626,24.4376
12:37:27.616,14.8751,24.2501
12:37:27.627,15.8126,23.1876
12:37:27.636,15.2501,22.6251
12:37:27.646,14.6251,21.9376
12:37:27.656,15.1876,23.2501
12:37:27.666,15.5626,23.5001
12:37:27.676,15.1876,23.6876
12:37:27.686,15.4376,26.0001
12:37:27.698,16.6876,25.8751
12:37:27.706,17.5001,26.6876
12:37:27.717,17.8751,27.3751
12:37:27.727,17.2501,26.5001
12:37:27.737,16.9376,27.4376
12:37:27.746,17.2501,26.5626
12:37:27.756,15.8751,25.3751
12:37:27.766,15.2501,25.3126
12:37:27.776,14.3751,24.8751
12:37:27.786,14.2501,23.6876
12:37:27.796,13.125,22.8126
12:37:27.807,12.875,21.1251
12:37:27.816,12.125,21.3126
12:37:27.827,11.9375,20.1876
12:37:27.836,11.5625,18.5001
12:37:27.846,10.8125,18.8751
12:37:27.856,11.4375,18.2501
12:37:27.866,11,17.0626
12:37:27.877,10.25,16.0626
12:37:27.887,9.5625,15.3126
12:37:27.896,9.375,14.5626
12:37:27.907,9,13.2501
12:37:27.916,8.875,12.5625
12:37:27.927,8.3125,12
12:37:27.937,8.1875,11.3125
12:37:27.946,7.75,9.8125
12:37:27.971,7.5625,10.625
12:37:27.974,7.4375,10.1875
12:37:27.978,7.4375,9.625
12:37:27.987,7.5625,9.9375
12:37:27.996,8.3125,8.5
12:37:28.006,7.75,7.8125
12:37:28.016,7.5625,8.25
12:37:28.026,7.75,7.5
12:37:28.036,7.875,6.875
12:37:28.046,7,6.125
12:37:28.056,7.375,6.125
12:37:28.066,7.25,5.1875
12:37:28.076,6.3125,4.375
12:37:28.086,5.5625,4.375
12:37:28.097,5.375,3.1875
12:37:28.106,5.5,2.5
12:37:28.116,5.0625,1.4375
12:37:28.126,4.8125,0.6875
12:37:28.138,4.625,0.875
12:37:28.148,5,0.5625
12:37:28.157,4.5,-0.875
12:37:28.167,3.9375,-0.375
12:37:28.176,3.875,-0.5625
12:37:28.186,3.75,-2.25
12:37:28.197,2.875,-2.875
12:37:28.206,3,-1.8125
12:37:28.216,4.0625,-2.125
12:37:28.226,4.0625,-1.1875
12:37:28.237,5.5625,2.6875
12:37:28.246,8.1875,6.5
12:37:28.259,9.9375,10.875
12:37:28.269,12.375,17.3751
12:37:28.276,14.7501,21.5626
12:37:28.286,15.8126,25.3126
12:37:28.296,17.1251,29.6876
12:37:28.307,19.0001,31.5626
12:37:28.316,18.6251,32.6876
12:37:28.326,18.5001,34.5001
12:37:28.347,18.5626,34.0626
12:37:28.355,18.0626,34.7501
12:37:28.359,18.3126,33.2501
12:37:28.366,17.1251,32.1876
12:37:28.376,16.7501,32.0626
12:37:28.392,15.8126,30.2501
12:37:28.407,15.1251,30.5001
12:37:28.409,15.6876,29.2501
12:37:28.424,15.3126,28.5626
12:37:28.427,14.9376,27.2501
12:37:28.442,14.0001,27.3751
12:37:28.458,14.0626,27.8126
12:37:28.460,14.4376,26.6251
12:37:28.475,13.9376,25.3751
12:37:28.490,12.75,25.2501
12:37:28.492,13.4376,23.8126
12:37:28.499,12.0625,22.7501
12:37:28.506,11.5,22.6876
12:37:28.516,10.75,21.9376
12:37:28.526,12.0625,21.9376
12:37:28.536,11.75,21.7501
12:37:28.547,12.125,21.9376
12:37:28.556,12.0625,22.3751
12:37:28.566,12.1875,24.0626
12:37:28.576,13,24.0626
12:37:28.586,14.2501,25.4376
12:37:28.597,14.1876,25.1251
12:37:28.606,13.6251,24.8126
12:37:28.616,13.4376,26.2501
12:37:28.626,13.3751,25.5001
12:37:28.637,13.2501,24.7501
12:37:28.647,12.6875,24.0001
12:37:28.656,12.875,23.8751
12:37:28.666,12,25.1251
12:37:28.676,12.0625,23.5001
12:37:28.686,11.875,21.8751
12:37:28.696,11.375,21.6876
12:37:28.707,11.1875,20.3126
12:37:28.716,9.8125,18.5001
12:37:28.726,8.5,18.1251
12:37:28.736,8.625,16.7501
12:37:28.746,8,15.0001
12:37:28.756,7.625,15.0626
12:37:28.766,7.8125,13.6876
12:37:28.777,6.5,12.0625
12:37:28.786,6.1875,13.0625
12:37:28.799,6.125,10.75
12:37:28.807,5.6875,9.6875
12:37:28.817,5.5625,9.6875
12:37:28.826,6.125,9
12:37:28.836,5.125,8
12:37:28.848,4.75,8.3125
12:37:28.856,4.75,7.3125
12:37:28.866,4.125,6
12:37:28.877,4.25,6
12:37:28.886,3.4375,5.375
12:37:28.896,3.625,4.3125
12:37:28.907,3.375,5.3125
12:37:28.916,3.875,4.125
12:37:28.926,3.1875,3.8125
12:37:28.937,2.875,2.4375
12:37:28.946,2.75,4.1875
12:37:28.957,2.8125,2.125
12:37:28.966,2.375,1.4375
12:37:28.976,2.5625,0.75
12:37:28.987,1.875,1.625
12:37:28.997,2,0.125
12:37:29.011,1.625,-1.25
12:37:29.016,1.25,-0.9375
12:37:29.027,1.1875,-2.0625
12:37:29.036,0.1875,-3.6875
12:37:29.046,-0.6875,-3.125
12:37:29.056,-0.8125,-4.125
12:37:29.066,-0.9375,-5.75
12:37:29.076,-1.5,-6.375
12:37:29.087,-1.8125,-5.8125
12:37:29.098,-1.5625,-7.25
12:37:29.106,-2.1875,-8.0625
12:37:29.116,-2.75,-8.1875
12:37:29.127,-2.8125,-8.375
12:37:29.138,-2.75,-9.5
12:37:29.146,-3.375,-9.25
12:37:29.157,-3.1875,-9.375
12:37:29.166,-1.875,-8.6875
12:37:29.176,-1.125,-6.3125
12:37:29.186,1.4375,-2.4375
12:37:29.197,3.375,1.4375
12:37:29.206,6.1875,8.875
12:37:29.216,8.625,13.5626
12:37:29.226,10.3125,19.1876
12:37:29.253,11.9375,22.8751
12:37:29.255,13.7501,26.4376
12:37:29.258,14.1251,28.6251
12:37:29.266,14.8751,30.0001
12:37:29.277,15.1876,32.1251
12:37:29.286,15.0626,31.1876
12:37:29.296,14.6876,31.8751
12:37:29.306,14.8751,30.8126
12:37:29.316,13.6251,30.7501
12:37:29.326,13.8126,28.7501
12:37:29.336,12.1875,27.5626
12:37:29.347,11.5625,27.1876
12:37:29.356,11.3125,26.4376
12:37:29.366,11.9375,25.2501
12:37:29.377,11.375,24.5626
12:37:29.389,11.4375,25.5626
12:37:29.396,11.75,25.6876
12:37:29.406,12.375,24.6876
12:37:29.417,11.625,23.5626
12:37:29.426,11,23.6251
12:37:29.436,10.625,23.5626
12:37:29.446,9.8125,21.5001
12:37:29.456,8.9375,21.1251
12:37:29.466,8.6875,20.5626
12:37:29.476,9.0625,19.6876
12:37:29.486,8.9375,19.1251
12:37:29.496,8.875,20.8751
12:37:29.506,10.5625,20.4376
12:37:29.516,10.6875,21.0001
12:37:29.526,10.5,22.3126
12:37:29.536,10.375,22.8126
12:37:29.547,10.3125,23.1251
12:37:29.556,9.75,21.8751
12:37:29.566,8.9375,23.0626
12:37:29.576,9.25,21.4376
12:37:29.586,9.125,21.3126
12:37:29.598,8.8125,21.8126
12:37:29.606,8.5625,20.0626
12:37:29.616,7.875,20.5001
12:37:29.626,8.125,19.6251
12:37:29.636,7.8125,17.8126
12:37:29.646,7.1875,17.8751
12:37:29.656,6.625,16.9376
12:37:29.666,7,16.1251
12:37:29.676,6.4375,14.6251
12:37:29.686,5.75,13.5626
12:37:29.697,4.8125,13.9376
12:37:29.711,4.875,13.1251
12:37:29.726,5.0625,12
12:37:29.729,4.125,10.1875
12:37:29.739,3.125,9.25
12:37:29.746,3,9.125
12:37:29.778,2.75,7.8125
12:37:29.794,2.125,6.625
12:37:29.797,1.875,7
12:37:29.811,2.625,5.6875
12:37:29.812,1.5,4.6875
12:37:29.819,0.375,5.0625
12:37:29.819,1.375,3.25
12:37:29.827,0.8125,3.125
12:37:29.837,0.5625,3.1875
12:37:29.846,0.75,1.8125
12:37:29.856,0.3125,1.5
12:37:29.866,0.25,1.3125
12:37:29.876,0.75,2.1875
12:37:29.887,0.9375,0.9375
12:37:29.898,0.625,0.25
12:37:29.906,0.625,-0.125
12:37:29.916,0.3125,0.5
12:37:29.928,-0.375,0.1875
12:37:29.936,-0.6875,-0.6875
12:37:29.947,-0.1875,-2.25
12:37:29.956,-0.625,-2.8125
12:37:29.966,-1,-3.9375
12:37:29.977,-1.3125,-4.4375
12:37:29.986,-2.5625,-4
12:37:29.997,-2.3125,-5.125
12:37:30.006,-2.375,-6.25
12:37:30.018,-2.4375,-6.5625
12:37:30.027,-2.5625,-6.625
12:37:30.037,-2.1875,-7.1875
12:37:30.046,-2.5,-7.5
12:37:30.056,-3.3125,-7.5
12:37:30.066,-2.25,-8.6875
12:37:30.076,-3.3125,-9.6875
12:37:30.087,-3.9375,-8.5625
12:37:30.098,-3,-9.9375
12:37:30.106,-2.8125,-8.9375
12:37:30.117,-1.375,-6.125
12:37:30.127,0.4375,-3.6875
12:37:30.138,3.0625,2.375
12:37:30.147,5.4375,6.625
12:37:30.157,7.5625,13.1251
12:37:30.166,9.5,16.8751
12:37:30.177,11.3125,21.6876
12:37:30.187,12.1875,24.1876
12:37:30.198,13.4376,27.0001
12:37:30.206,13.3126,28.3126
12:37:30.216,13.1876,28.4376
12:37:30.226,13.3751,28.5001
12:37:30.236,11.9375,27.6251
12:37:30.248,11.4375,26.7501
12:37:30.258,10.1875,25.7501
12:37:30.267,10.125,25.0001
12:37:30.277,9.5,23.1876
12:37:30.286,9.625,23.4376
12:37:30.296,9.875,22.1251
12:37:30.307,9.1875,22.6876
12:37:30.317,9.1875,22.6876
12:37:30.326,8.8125,21.0626
12:37:30.338,8.875,20.8126
12:37:30.347,8,21.1876
12:37:30.358,8.125,20.8126
12:37:30.369,8.1875,19.2501
12:37:30.376,7,17.1251
12:37:30.389,6.5625,16.4376
12:37:30.398,6.1875,16.5626
12:37:30.407,5.5,16.7501
12:37:30.428,6.5,15.1876
12:37:30.430,5.9375,15.3751
12:37:30.464,6.9375,16.8751
12:37:30.464,7.1875,17.1251
12:37:30.466,7.5,17.8126
12:37:30.470,7.5625,19.3126
12:37:30.501,8.125,19.5626
12:37:30.503,8.1875,19.5001
12:37:30.505,7.9375,19.9376
12:37:30.507,7.75,20.6251
12:37:30.533,8.3125,20.0001
12:37:30.535,8,19.6251
12:37:30.538,7.0625,18.5626
12:37:30.567,6.5,18.1876
12:37:30.569,5.875,17.3751
12:37:30.571,5.25,14.8126
12:37:30.578,4.625,14.5626
12:37:30.589,3.5,13.2501
12:37:30.623,3.125,11.9375
12:37:30.625,2.6875,11
12:37:30.628,3.125,11.4375
12:37:30.631,3.3125,10.3125
12:37:30.658,2.5,9.125
12:37:30.661,1.9375,9.6875
12:37:30.664,1.8125,8.25
12:37:30.667,1,6.3125
12:37:30.679,0.5625,6
12:37:30.708,-0.1875,5
12:37:30.710,-0.625,3.6875
12:37:30.713,-0.5625,2.625
12:37:30.719,-0.625,3.5
12:37:30.743,-0.5,2.9375
12:37:30.745,-0.25,1.9375
12:37:30.748,-0.8125,1.25
12:37:30.772,-0.9375,1.625
12:37:30.774,-1,0.3125
12:37:30.778,-1.375,-0.625
12:37:30.810,-2.375,-1.1875
12:37:30.812,-2.375,-0.625
12:37:30.814,-2.375,-2.375
12:37:30.820,-3.125,-3.3125
12:37:30.850,-3.5625,-3.1875
12:37:30.853,-3.125,-3.8125
12:37:30.853,-4,-5.4375
12:37:30.876,-4.3125,-5.4375
12:37:30.886,-3.875,-5.875
12:37:30.888,-4.6875,-6.9375
12:37:30.895,-4.8125,-7.5
12:37:30.908,-4.75,-7.625
12:37:30.913,-5.0625,-7.8125
12:37:30.947,-5.125,-8.8125
12:37:30.949,-5.5625,-7.875
12:37:30.951,-5.1875,-9.5
12:37:30.984,-6.0625,-9.0625
12:37:30.985,-6.4375,-10.125
12:37:31.013,-6,-10.625
12:37:31.016,-6.0625,-9.8125
12:37:31.018,-4.3125,-7.375
12:37:31.030,-2.375,-2.875
12:37:31.035,0.375,0.6875
12:37:31.082,2.5625,6.25
12:37:31.082,4.75,10.1875
12:37:31.115,7.125,16.1876
12:37:31.149,8.8125,19.6876
12:37:31.152,10.4375,23.1876
12:37:31.154,10.8125,24.8751
12:37:31.154,11.0625,27.5626
12:37:31.155,10.75,26.0626
12:37:31.158,10.3125,27.0626
12:37:31.190,9.6875,25.2501
12:37:31.191,8.9375,25.0626
12:37:31.193,7.9375,22.4376
12:37:31.197,7.125,22.3126
12:37:31.199,6.625,21.1876
12:37:31.203,6.1875,20.6251
12:37:31.208,6.375,20.3126
12:37:31.245,6.4375,19.9376
12:37:31.247,6.4375,19.6251
12:37:31.250,6.9375,18.8751
12:37:31.252,6.625,18.7501
12:37:31.263,6.25,17.8751
12:37:31.267,5.8125,16.8751
12:37:31.307,5.4375,15.5626
12:37:31.310,4.125,13.5626
12:37:31.313,4.25,13.5626
12:37:31.315,4.0625,13.7501
12:37:31.319,4.4375,14.9376
12:37:31.351,4.8125,15.2501
12:37:31.355,4.9375,15.5001
12:37:31.357,5.1875,16.0001
12:37:31.390,5.375,16.5001
12:37:31.391,4.9375,16.0001
12:37:31.394,5.1875,17.0626
12:37:31.398,4.8125,16.5626
12:37:31.401,4.625,15.2501
12:37:31.433,4.125,16.3126
12:37:31.435,3.875,14.6876
12:37:31.439,3.125,13.8751
12:37:31.440,2.5,13.2501
12:37:31.447,1.8125,12.9375
12:37:31.457,1.6875,11.5
12:37:31.467,1.625,9.5625
12:37:31.478,1.4375,9.3125
12:37:31.486,0.875,8.5
12:37:31.498,0.5625,7.4375
12:37:31.507,-0.4375,6.375
12:37:31.520,-0.75,5.625
12:37:31.528,-2.25,4.5625
12:37:31.538,-2.5625,2.875
12:37:31.547,-2.9375,1.5
12:37:31.557,-3.1875,0.6875
12:37:31.568,-4.25,0.9375
12:37:31.577,-3.5,-0.625
12:37:31.587,-3.5625,-1.0625
12:37:31.598,-4.125,-1.9375
12:37:31.607,-4.6875,-1.4375
12:37:31.617,-4,-2.25
12:37:31.627,-4.1875,-3.25
12:37:31.639,-4.375,-2.875
12:37:31.647,-4.125,-3.3125
12:37:31.658,-4.3125,-4.25
12:37:31.668,-4.25,-5.3125
12:37:31.677,-4.625,-3.6875
12:37:31.689,-4.125,-4.6875
12:37:31.697,-4.3125,-4.25
12:37:31.707,-4.25,-5.375
12:37:31.718,-4.125,-5.875
12:37:31.728,-5.125,-5.125
12:37:31.738,-4.75,-7.875
12:37:31.747,-5.75,-8
12:37:31.758,-6.125,-8.0625
12:37:31.768,-6.125,-10.125
12:37:31.777,-6.3125,-9.9375
12:37:31.787,-7.0625,-10.8125
12:37:31.813,-7.625,-10.75
12:37:31.815,-7.1875,-12.8125
12:37:31.819,-7,-12.125
12:37:31.827,-7.25,-12.5
12:37:31.839,-7.375,-12.875
12:37:31.847,-8,-14.5001
12:37:31.857,-8.375,-14.1876
12:37:31.867,-8.625,-14.9376
12:37:31.877,-8.3125,-15.0626
12:37:31.888,-7.875,-14.4376
12:37:31.897,-7,-12.25
12:37:31.907,-4.8125,-8.125
12:37:31.918,-2.625,-4.5625
12:37:31.928,-0.3125,1.8125
12:37:31.937,2.125,5.75
12:37:31.947,4,12
12:37:31.957,6.3125,15.8751
12:37:31.968,7.0625,19.7501
12:37:31.978,8.75,23.0626
12:37:31.988,9.0625,24.0626
12:37:31.999,9.5,26.3126
12:37:32.010,9.625,25.3126
12:37:32.017,9.25,25.6876
12:37:32.027,8.25,23.4376
12:37:32.037,7.875,23.1251
12:37:32.047,7.3125,22.3126
12:37:32.057,6.75,21.3126
12:37:32.072,6,20.9376
12:37:32.082,5.8125,19.6876
12:37:32.093,5.125,19.4376
12:37:32.102,5.375,18.8751
12:37:32.113,5.1875,18.8751
12:37:32.122,6,19.1251
12:37:32.133,5.25,18.5001
12:37:32.143,5.0625,17.7501
12:37:32.152,4.375,17.6876
12:37:32.162,4.1875,16.8126
12:37:32.172,4.1875,16.0001
12:37:32.182,3.125,15.1876
12:37:32.192,2.3125,14.6876
12:37:32.203,2.1875,13
12:37:32.212,1.9375,12.0625
12:37:32.222,1.625,12.8125
12:37:32.234,2.5625,13.6251
12:37:32.244,2.4375,13.5001
12:37:32.252,2.9375,14.3751
12:37:32.262,2.9375,15.6876
12:37:32.272,3.875,15.8126
12:37:32.283,3.4375,15.4376
12:37:32.292,3.25,15.2501
12:37:32.303,2.8125,15.6251
12:37:32.320,2.4375,15.3126
12:37:32.334,2.5,14.8126
12:37:32.348,2.5,13.7501
12:37:32.351,1.6875,12.8125
12:37:32.355,1.0625,13.3751
12:37:32.362,1.1875,12.25
12:37:32.372,0.625,10.5625
12:37:32.386,0.1875,10.0625
12:37:32.401,-0.625,9.5625
12:37:32.417,-0.75,8.3125
12:37:32.420,-0.5625,6.625
12:37:32.437,-1.4375,6.3125
12:37:32.437,-0.8125,5.875
12:37:32.443,-2.0625,3.9375
12:37:32.452,-3.1875,2.8125
12:37:32.462,-3.1875,2.4375
12:37:32.473,-4,2.5625
12:37:32.483,-4,1.25
12:37:32.492,-4,0.3125
12:37:32.502,-3.8125,-0.625
12:37:32.513,-4.125,-1.0625
12:37:32.522,-4.8125,-1.625
12:37:32.533,-5.1875,-1.5625
12:37:32.543,-4.5625,-2.375
12:37:32.553,-4.5625,-3.125
12:37:32.563,-4.75,-3.625
12:37:32.572,-5.3125,-4.6875
12:37:32.582,-5.9375,-3.9375
12:37:32.592,-6,-3.8125
12:37:32.603,-5.3125,-5.0625
12:37:32.612,-6.5,-5.375
12:37:32.622,-5.4375,-6.4375
12:37:32.632,-5.75,-5.8125
12:37:32.643,-5.1875,-5.9375
12:37:32.652,-5.4375,-7.125
12:37:32.662,-5.75,-7.3125
12:37:32.672,-6.1875,-8.6875
12:37:32.683,-6.4375,-9.125
12:37:32.693,-7.3125,-10.3125
12:37:32.703,-7.75,-11.0625
12:37:32.713,-8.6875,-12.25
12:37:32.722,-8.875,-12.0625
12:37:32.734,-9.0625,-13.2501
12:37:32.743,-9.625,-13.3126
12:37:32.753,-9.625,-14.1251
12:37:32.766,-10.125,-15.0626
12:37:32.773,-10.5625,-14.8126
12:37:32.783,-10.8125,-16.6251
12:37:32.792,-10.6875,-15.4376
12:37:32.802,-10.5,-16.6251
12:37:32.813,-10.8125,-17.1876
12:37:32.823,-10.3125,-16.6876
12:37:32.832,-10.8125,-17.9376
12:37:32.842,-9.8125,-17.1876
12:37:32.852,-9.4375,-15.3126
12:37:32.862,-8.0625,-12.125
12:37:32.873,-5.3125,-7.5625
12:37:32.882,-3.1875,-3
12:37:32.892,-0.75,3.8125
12:37:32.902,2,8.1875
12:37:32.912,3.5,13.5001
12:37:32.923,4.75,17.1251
12:37:32.932,6,19.0626
12:37:32.943,6.75,22.1251
12:37:32.952,6.375,22.0001
12:37:32.963,6.125,22.8751
12:37:32.973,5.5625,21.6876
12:37:32.982,5.0625,21.4376
12:37:32.993,5,21.1876
12:37:33.002,3,20.0626
12:37:33.012,3.25,18.3126
12:37:33.022,1.875,17.4376
12:37:33.033,2.875,17.5626
12:37:33.042,1.875,16.7501
12:37:33.053,2.125,16.3126
12:37:33.063,2.0625,15.2501
12:37:33.093,1.9375,16.3126
12:37:33.097,1.9375,16.8751
12:37:33.097,2.4375,16.2501
12:37:33.104,1.8125,14.6251
12:37:33.112,1.125,13.5626
12:37:33.123,0.1875,13.9376
12:37:33.133,0.375,12.5625
12:37:33.142,0.5,11.5625
12:37:33.152,0.6875,11
12:37:33.163,0.375,12
12:37:33.173,1.875,12
12:37:33.183,1.875,11.4375
12:37:33.193,1.625,11.8125
12:37:33.202,2.3125,13.5001
12:37:33.213,3.3125,14.6876
12:37:33.223,3.1875,14.7501
12:37:33.233,3,15.0001
12:37:33.242,2.375,16.1876
12:37:33.254,2.625,15.3751
12:37:33.263,2.625,14.9376
12:37:33.272,2.1875,14.5001
12:37:33.282,1.6875,14.6876
12:37:33.293,1.5,14.0001
12:37:33.303,1.5,12.8125
12:37:33.313,1.375,12.0625
12:37:33.323,0.5625,11.1875
12:37:33.332,-0.375,10.4375
12:37:33.342,0,9.3125
12:37:33.352,-0.8125,8.5625
12:37:33.363,-1.1875,7.75
12:37:33.372,-1.6875,7.5
12:37:33.383,-1.375,6
12:37:33.392,-2.0625,4.75
12:37:33.402,-2.4375,4.375
12:37:33.412,-2.6875,3.8125
12:37:33.423,-2.9375,2.4375
12:37:33.434,-3.9375,1.25
12:37:33.443,-3.9375,0.875
12:37:33.452,-3.6875,0.1875
12:37:33.462,-4.1875,-0.3125
12:37:33.472,-4,-0.9375
12:37:33.482,-4.25,-0.125
12:37:33.492,-4,-0.75
12:37:33.502,-4.0625,-1.5
12:37:33.518,-3.5625,0.25
12:37:33.524,-3.25,-1.6875
12:37:33.533,-4.0625,-0.5
12:37:33.543,-3.75,-1.9375
12:37:33.552,-3.875,-3.125
12:37:33.563,-4.125,-3.0625
12:37:33.572,-4.0625,-3.625
12:37:33.582,-4.6875,-4.375
12:37:33.594,-4.8125,-3
12:37:33.603,-5.5625,-5.4375
12:37:33.617,-5.875,-7.125
12:37:33.634,-6.625,-7.5625
12:37:33.637,-6.875,-8
12:37:33.642,-7.625,-8.25
12:37:33.652,-6.875,-8.625
12:37:33.662,-7.75,-9.375
12:37:33.672,-7.4375,-10.125
12:37:33.682,-7.3125,-10.5
12:37:33.702,-7.4375,-10.0625
12:37:33.704,-7.25,-11.625
12:37:33.719,-8.3125,-10.5
12:37:33.724,-8.5,-12.5
12:37:33.733,-9.125,-12.125
12:37:33.742,-8.8125,-13.0625
12:37:33.752,-8.625,-12.6875
12:37:33.763,-7,-12.25
12:37:33.773,-6.5625,-8.5
12:37:33.782,-4.4375,-5.9375
12:37:33.792,-2.1875,-1.3125
12:37:33.802,0.125,3.125
12:37:33.813,2.625,8.625
12:37:33.822,3.75,13.8751
12:37:33.832,5.5,16.9376
12:37:33.842,6.4375,19.8126
12:37:33.853,7.125,21.6876
12:37:33.863,6.75,22.3751
12:37:33.873,6.375,23.7501
12:37:33.886,5.6875,22.0001
12:37:33.892,5.4375,21.5626
12:37:33.903,4.875,19.6251
12:37:33.912,3.3125,19.9376
12:37:33.922,2.8125,17.1251
12:37:33.934,2.3125,17.2501
12:37:33.943,2.75,16.3751
12:37:33.952,2.5625,16.5001
12:37:33.963,3.125,15.7501
12:37:33.972,3.125,14.6251
12:37:33.982,3.1875,15.3126
12:37:33.994,3.5625,14.8126
12:37:34.002,1.875,13
12:37:34.012,1.3125,13.0625
12:37:34.023,0.5,11.4375
12:37:34.033,0.5625,10
12:37:34.042,-0.5,9.3125
12:37:34.053,-1,7.875
12:37:34.068,-0.4375,8.6875
12:37:34.078,-0.125,8.375
12:37:34.088,-0.1875,8.5625
12:37:34.098,-0.3125,10.1875
12:37:34.108,1.125,10.3125
12:37:34.117,1.4375,10.1875
12:37:34.127,1.4375,11.9375
12:37:34.138,2.5,11.75
12:37:34.149,2.0625,12.0625
12:37:34.157,1.5625,12.125
12:37:34.167,0.875,13.0625
12:37:34.178,1.6875,12
12:37:34.187,1.5,11.875
12:37:34.197,0.4375,10.3125
12:37:34.207,-0.1875,10
12:37:34.217,-0.6875,9.9375
12:37:34.228,-0.5625,8.125
12:37:34.237,-1.6875,7.625
12:37:34.247,-1.25,6.1875
12:37:34.258,-2.0625,6.8125
12:37:34.268,-2.5,4.625
12:37:34.283,-3.3125,3.4375
12:37:34.288,-3.6875,2.8125
12:37:34.297,-3.4375,1.8125
12:37:34.308,-3.5625,0.625
12:37:34.318,-4.5625,1.375
12:37:34.327,-4.3125,-0.375
12:37:34.338,-4.625,-1.5
12:37:34.373,-5.375,-1.875
12:37:34.374,-5.375,-1.75
12:37:34.376,-5.375,-3.5625
12:37:34.382,-5.6875,-3.1875
12:37:34.391,-5.5625,-4.4375
12:37:34.398,-5.6875,-4.375
12:37:34.407,-6.125,-4.375
12:37:34.417,-4.9375,-5.125
12:37:34.428,-5.5,-5.4375
12:37:34.438,-5.5,-5.5625
12:37:34.447,-5.75,-7.3125
12:37:34.457,-6.3125,-7.875
12:37:34.467,-6.75,-7.8125
12:37:34.479,-7.375,-9.75
12:37:34.487,-7.875,-9.6875
12:37:34.497,-8,-10.9375
12:37:34.507,-7.6875,-10.3125
12:37:34.518,-7.75,-11.125
12:37:34.527,-7.4375,-11.625
12:37:34.537,-7.5,-11.9375
12:37:34.547,-8.1875,-12.1875
12:37:34.558,-7.625,-13.2501
12:37:34.568,-8.75,-12.75
12:37:34.577,-8.0625,-13.0625
12:37:34.587,-9.375,-13.8751
12:37:34.597,-9.25,-13.5626
12:37:34.607,-8.375,-13.9376
12:37:34.618,-8.25,-11.3125
12:37:34.629,-6.5,-9.8125
12:37:34.638,-5.1875,-5.9375
12:37:34.649,-2.625,-2.125
12:37:34.661,-0.0625,3.3125
12:37:34.667,1.875,8.125
12:37:34.679,3.5625,13
12:37:34.687,4.625,16.6251
12:37:34.697,5.625,19.7501
12:37:34.708,6.6875,21.8126
12:37:34.718,6.5625,22.0626
12:37:34.727,6.4375,23.1876
12:37:34.737,6.3125,22.3126
12:37:34.748,6.0625,22.1876
12:37:34.757,4.5625,20.2501
12:37:34.768,3.875,19.1251
12:37:34.777,2.9375,16.8126
12:37:34.787,2.375,17.3126
12:37:34.797,2.0625,14.9376
12:37:34.807,2.1875,15.7501
12:37:34.817,2,14.5001
12:37:34.828,2.4375,16.1251
12:37:34.838,2.875,15.1251
12:37:34.847,2.25,14.5626
12:37:34.862,1.9375,14.3126
12:37:34.869,1.5625,12.9375
12:37:34.950,1.1875,11.75
12:37:34.951,-0.0625,11.3125
12:37:34.953,0.6875,11.4375
12:37:34.955,-0.125,9.5625
12:37:34.960,-0.375,10.4375
12:37:34.961,-0.4375,9.8125
12:37:34.961,0.3125,9.0625
12:37:34.972,-0.9375,9.25
12:37:34.997,-2,9.3125
12:37:35.000,-2.4375,8
12:37:35.028,-4.625,7.4375
12:37:35.031,-5.625,7.875
12:37:35.033,-7.3125,5.5
12:37:35.037,-10.75,3.625
12:37:35.037,-12.375,2.9375
12:37:35.069,-14.3126,0.375
12:37:35.074,-20.8126,-3.3125
12:37:35.076,-21.2501,-4.25
12:37:35.079,-20.5626,-5.0625
12:37:35.088,-22.0001,-6.1875
12:37:35.121,-23.4376,-7.375
12:37:35.126,-23.0001,-7.3125
12:37:35.126,-21.6251,-7.3125
12:37:35.163,-25.5001,-11.4375
12:37:35.164,-27.3751,-13.7501
12:37:35.169,-28.8126,-14.5626
12:37:35.173,-29.6876,-15.4376
12:37:35.174,-29.8751,-17.1251
12:37:35.201,-29.8751,-18.5626
12:37:35.203,-30.8126,-19.4376
12:37:35.205,-30.8751,-19.7501
12:37:35.207,-31.4376,-21.3126
12:37:35.249,-30.9376,-21.6876
12:37:35.252,-32.2501,-23.2501
12:37:35.254,-32.6876,-23.7501
12:37:35.256,-33.5001,-26.0626
12:37:35.261,-34.3126,-27.7501
12:37:35.269,-34.0626,-28.6251
12:37:35.300,-34.2501,-29.2501
12:37:35.302,-34.9376,-29.4376
12:37:35.305,-34.5626,-30.3751
12:37:35.309,-33.9376,-31.0001
12:37:35.349,-34.0626,-30.2501
12:37:35.351,-32.5626,-30.3126
12:37:35.354,-31.6251,-31.0626
12:37:35.357,-29.9376,-29.3126
12:37:35.362,-28.4376,-30.0001
12:37:35.369,-27.7501,-30.5626
12:37:35.402,-27.1876,-30.5001
12:37:35.404,-27.5001,-30.4376
12:37:35.406,-26.6876,-32.1876
12:37:35.409,-27.0001,-31.7501
12:37:35.439,-26.4376,-31.6876
12:37:35.442,-25.7501,-33.6251
12:37:35.444,-25.4376,-32.8126
12:37:35.448,-24.5626,-34.1251
12:37:35.477,-25.1876,-35.3126
12:37:35.480,-24.6876,-35.0001
12:37:35.482,-24.8751,-36.1876
12:37:35.509,-25.0001,-36.1251
12:37:35.511,-24.6251,-36.8751
12:37:35.549,-24.8126,-36.3126
12:37:35.550,-24.2501,-37.5626
12:37:35.552,-25.5001,-37.8751
12:37:35.554,-26.1251,-38.7501
12:37:35.560,-26.7501,-37.6251
12:37:35.561,-24.9376,-37.0626
12:37:35.576,-23.7501,-33.9376
12:37:35.579,-21.6876,-29.8751
12:37:35.609,-18.8126,-24.5001
12:37:35.612,-16.6876,-17.5626
12:37:35.614,-12.9375,-12.4375
12:37:35.619,-10.6875,-6
12:37:35.652,-8.9375,-2.0625
12:37:35.654,-9,1.6875
12:37:35.656,-9.375,2.375
12:37:35.659,-10.75,2.625
12:37:35.690,-12,2.875
12:37:35.693,-13.5626,1.625
12:37:35.694,-13.9376,1.625
12:37:35.698,-6.5625,5
12:37:35.728,0.125,9.0625
12:37:35.731,6.5,15.5626
12:37:35.734,5.9375,14.1251
12:37:35.741,1.6875,11.625
12:37:35.754,-3.5,7.5
12:37:35.765,-5.9375,6.5
12:37:35.769,-6.5,3.75
12:37:35.798,-7.1875,4.25
12:37:35.800,-7.25,3.25
12:37:35.802,-7.8125,4.1875
12:37:35.808,-6.75,3
12:37:35.851,-7.0625,2.1875
12:37:35.852,-6.625,1.6875
12:37:35.854,-7.125,0.4375
12:37:35.857,-6.8125,0.5
12:37:35.877,-7.125,1.1875
12:37:35.879,-7,-0.0625
12:37:35.881,-7.875,-0.5625
12:37:35.889,-8.125,-0.6875
12:37:35.898,-9.5625,0.5
12:37:35.909,-10,-1.375
12:37:35.918,-12.875,-2.375
12:37:35.929,-14.3126,-3.1875
12:37:35.938,-15.4376,-4.0625
12:37:35.949,-15.5626,-4.25
12:37:35.958,-16.4376,-3.0625
12:37:35.970,-16.0626,-4.0625
12:37:35.977,-17.3126,-5.75
12:37:35.989,-18.9376,-5.75
12:37:35.998,-18.3751,-6.8125
12:37:36.008,-19.8126,-7.875
12:37:36.018,-20.6876,-9.1875
12:37:36.029,-21.1251,-9.9375
12:37:36.039,-20.7501,-11.8125
12:37:36.049,-20.8126,-12.0625
12:37:36.058,-21.3751,-13.8751
12:37:36.069,-21.2501,-13.2501
12:37:36.079,-20.5001,-14.6251
12:37:36.089,-19.1876,-14.1876
12:37:36.099,-17.6251,-14.1251
12:37:36.107,-16.3126,-13.6876
12:37:36.119,-14.8751,-12.9375
12:37:36.129,-14.0626,-13.5626
12:37:36.140,-13.1876,-15.0001
12:37:36.149,-12.4375,-13.6251
12:37:36.158,-11.4375,-14.9376
12:37:36.168,-11.4375,-15.0001
12:37:36.179,-11.125,-16.0626
12:37:36.189,-10.5,-17.0626
12:37:36.210,-10.9375,-16.1876
12:37:36.212,-10.75,-17.6876
12:37:36.227,-10.625,-18.5001
12:37:36.230,-11.375,-18.5626
12:37:36.239,-11.75,-20.1876
12:37:36.249,-12.8125,-21.1251
12:37:36.258,-14.1876,-21.5001
12:37:36.270,-15.0626,-24.0626
12:37:36.277,-17.3126,-25.0001
12:37:36.294,-18.0626,-26.9376
12:37:36.310,-19.5001,-26.6251
12:37:36.313,-20.1251,-29.0001
12:37:36.319,-20.6251,-29.1876
12:37:36.328,-20.8126,-30.3751
12:37:36.339,-20.4376,-29.6876
12:37:36.348,-19.7501,-30.5626
12:37:36.359,-19.7501,-30.5001
12:37:36.369,-18.9376,-30.7501
12:37:36.377,-18.3126,-30.5001
12:37:36.389,-16.3751,-30.3126
12:37:36.397,-16.2501,-30.2501
12:37:36.409,-18.8751,-32.4376
12:37:36.418,-17.7501,-32.1876
12:37:36.429,-18.0001,-32.0626
12:37:36.439,-18.9376,-33.6876
12:37:36.448,-20.0626,-34.0626
12:37:36.457,-20.8751,-35.1251
12:37:36.469,-21.7501,-37.0001
12:37:36.478,-23.2501,-36.6251
12:37:36.490,-24.1876,-38.3751
12:37:36.498,-25.2501,-37.0626
12:37:36.517,-24.5626,-36.3751
12:37:36.519,-23.0001,-32.2501
12:37:36.529,-20.0001,-25.8751
12:37:36.539,-17.6251,-21.8126
12:37:36.549,-15.2501,-16.0626
12:37:36.557,-14.5001,-11.9375
12:37:36.567,-12.5625,-8.3125
12:37:36.579,-11.125,-4.375
12:37:36.589,-9.375,-2.125
12:37:36.599,-9.1875,-1
12:37:36.608,-7.1875,1.0625
12:37:36.619,2.5625,6.5
12:37:36.629,11.8125,14.0001
12:37:36.637,20.3751,21.3126
12:37:36.648,34.0001,32.0626
12:37:36.660,43.5002,39.3752
12:37:36.669,48.0002,43.8127
12:37:36.679,50.1877,45.0627
12:37:36.688,47.0002,44.0627
12:37:36.697,38.3126,37.7501
12:37:36.708,21.1876,24.2501
12:37:36.717,7.75,12.1875
12:37:36.729,-3.4375,3.75
12:37:36.738,-6.9375,0.1875
12:37:36.748,-7.1875,-0.5
12:37:36.759,-6.125,0.3125
12:37:36.769,-5.5,-1.1875
12:37:36.779,-7.6875,-3.625
12:37:36.789,-10.6875,-5.125
12:37:36.799,-11.5625,-7.0625
12:37:36.808,-12.5,-7.5
12:37:36.818,-12.375,-8.125
12:37:36.829,-12.875,-7.4375
12:37:36.839,-14.7501,-8.25
12:37:36.849,-15.5001,-9.25
12:37:36.859,-15.4376,-9.0625
12:37:36.867,-14.4376,-8.5
12:37:36.880,-14.0001,-7.625
12:37:36.891,-14.8126,-8.3125
12:37:36.898,-14.3126,-7.75
12:37:36.933,-13.9376,-8.9375
12:37:36.934,-13.1251,-7.5625
12:37:36.936,-12.375,-8.75
12:37:36.942,-11.1875,-7.875
12:37:36.948,-11.6875,-7.4375
12:37:36.957,-11,-8.75
12:37:36.968,-9.1875,-8.6875
12:37:36.979,-9.4375,-8.25
12:37:36.989,-8.875,-10.375
12:37:36.999,-8.5,-10.125
12:37:37.008,-8.5625,-9.625
12:37:37.020,-7.75,-12
12:37:37.029,-7.8125,-12.75
12:37:37.039,-8.875,-14.6876
12:37:37.048,-9.0625,-16.6251
12:37:37.058,-9.0625,-17.5001
12:37:37.069,-10.9375,-17.8126
12:37:37.079,-13.2501,-21.4376
12:37:37.087,-15.0001,-23.0001
12:37:37.099,-17.0001,-26.1876
12:37:37.109,-19.3751,-28.6251
12:37:37.119,-21.6876,-30.1876
12:37:37.129,-24.8126,-34.6876
12:37:37.139,-27.7501,-37.1251
12:37:37.149,-31.9376,-39.9377
12:37:37.159,-35.3751,-45.1877
12:37:37.169,-39.5627,-48.8127
12:37:37.179,-43.5002,-53.3127
12:37:37.188,-47.4377,-57.6252
12:37:37.198,-51.6877,-62.1252
12:37:37.208,-56.7502,-68.8128
12:37:37.219,-59.5002,-71.4378
12:37:37.229,-61.0627,-71.7503
12:37:37.239,-60.2502,-73.6253
12:37:37.249,-59.1877,-72.5628
12:37:37.265,-58.6877,-71.8128
12:37:37.269,-56.0002,-70.1878
12:37:37.279,-54.8752,-68.5003
12:37:37.289,-53.6877,-68.6878
12:37:37.298,-52.5627,-67.2503
12:37:37.309,-51.5002,-67.2503
12:37:37.319,-50.1252,-65.0002
12:37:37.329,-48.5002,-63.9377
12:37:37.339,-46.3127,-61.8752
12:37:37.348,-45.1252,-58.6877
12:37:37.359,-42.0002,-55.1252
12:37:37.369,-39.3126,-49.7502
12:37:37.379,-36.7501,-44.6877
12:37:37.389,-32.6876,-38.4376
12:37:37.399,-30.2501,-32.0626
12:37:37.409,-25.8126,-25.6876
12:37:37.419,-24.5626,-21.0626
12:37:37.429,-23.0001,-19.3751
12:37:37.439,-22.3126,-17.0626
12:37:37.449,-22.6876,-15.6876
12:37:37.459,-22.3751,-15.9376
12:37:37.469,-22.1876,-14.7501
12:37:37.478,-20.3126,-13.8751
12:37:37.489,-19.1876,-13.1876
12:37:37.506,-17.4376,-12.6875
12:37:37.530,-17.5626,-12.625
12:37:37.532,-17.6876,-12.6875
12:37:37.534,-17.5001,-12.625
12:37:37.540,-15.5001,-11.8125
12:37:37.549,-14.1876,-10.9375
12:37:37.559,-12.25,-9.25
12:37:37.569,-11.0625,-8.5625
12:37:37.590,-3.875,-3.6875
12:37:37.593,7.875,3.9375
12:37:37.607,22.6876,15.5001
12:37:37.611,31.1251,23.0626
12:37:37.620,39.9377,29.7501
12:37:37.628,43.4377,33.1876
12:37:37.640,42.5627,32.5001
12:37:37.648,36.7501,29.1251
12:37:37.659,23.6251,19.0001
12:37:37.669,11.0625,9.125
12:37:37.679,3.25,3.25
12:37:37.690,0.9375,1.6875
12:37:37.699,1.875,3.8125
12:37:37.709,3.125,4.875
12:37:37.719,4.25,6.625
12:37:37.729,3.5,5.375
12:37:37.738,1.625,4.875
12:37:37.749,1.375,3.8125
12:37:37.760,1.0625,2.9375
12:37:37.769,0.25,1.75
12:37:37.779,-1.25,0.25
12:37:37.789,-1.1875,-0.9375
12:37:37.800,-3.875,-2.0625
12:37:37.809,-4,-3.125
12:37:37.820,-4.625,-4.4375
12:37:37.829,-4.5,-4.625
12:37:37.839,-3.1875,-5.125
12:37:37.849,-2.625,-5.125
12:37:37.859,-1.625,-5.4375
12:37:37.868,-1.625,-6
12:37:37.879,-1.1875,-6.6875
12:37:37.890,-0.75,-7.5625
12:37:37.899,-1.375,-7.6875
12:37:37.910,-1.4375,-8.5
12:37:37.919,-0.875,-9.375
12:37:37.929,-1.25,-10
12:37:37.939,-0.9375,-10.4375
12:37:37.949,-0.875,-12.25
12:37:37.959,-0.4375,-11.875
12:37:37.968,-1.5,-12.25
12:37:37.979,-1.625,-13.1876
12:37:37.989,-1.4375,-14.0626
12:37:37.999,-2.625,-15.3126
12:37:38.015,-1.6875,-15.5626
12:37:38.019,-3.375,-17.0626
12:37:38.029,-3.6875,-17.7501
12:37:38.039,-4.375,-18.1251
12:37:38.049,-5.25,-20.0001
12:37:38.059,-6.125,-20.6251
12:37:38.069,-6.125,-20.1876
12:37:38.079,-7.25,-21.4376
12:37:38.089,-6.625,-21.9376
12:37:38.099,-6.9375,-21.9376
12:37:38.110,-5.9375,-22.5626
12:37:38.120,-6.8125,-22.0626
12:37:38.129,-6.625,-23.6251
12:37:38.139,-7,-23.3751
12:37:38.150,-6.9375,-23.5001
12:37:38.159,-6.5,-23.7501
12:37:38.169,-6.6875,-23.0626
12:37:38.179,-8.5,-25.9376
12:37:38.212,-7.75,-26.1251
12:37:38.214,-8.1875,-25.1251
12:37:38.217,-9.5,-27.6876
12:37:38.219,-10.1875,-28.3751
12:37:38.229,-11.5625,-27.8126
12:37:38.239,-11.6875,-29.6876
12:37:38.248,-11.5625,-30.0626
12:37:38.260,-12.875,-30.5001
12:37:38.271,-13.1876,-30.0001
12:37:38.279,-12.8125,-28.3126
12:37:38.290,-11.4375,-24.5626
12:37:38.299,-8.6875,-20.1876
12:37:38.309,-7.125,-14.4376
12:37:38.319,-3.8125,-9.1875
12:37:38.329,-2.625,-3.625
12:37:38.339,-1.1875,0.0625
12:37:38.349,-0.4375,3.6875
12:37:38.359,0.3125,6.625
12:37:38.369,0.5,7.125
12:37:38.379,1.125,8.9375
12:37:38.389,1.625,8.5625
12:37:38.399,1.75,9.625
12:37:38.408,3.5,8.8125
12:37:38.419,2.75,9.875
12:37:38.430,2.9375,7.6875
12:37:38.439,3.375,9.1875
12:37:38.451,8.75,11.3125
12:37:38.459,16.0626,16.4376
12:37:38.471,27.5001,26.2501
12:37:38.479,34.6251,31.0626
12:37:38.489,47.6877,40.8752
12:37:38.500,57.3127,49.1252
12:37:38.509,65.6253,56.2502
12:37:38.519,70.6878,61.0627
12:37:38.529,75.3128,64.5627
12:37:38.539,78.6878,66.9378
12:37:38.550,78.5003,68.4378
12:37:38.560,76.3753,67.1878
12:37:38.569,73.8753,64.1877
12:37:38.579,69.0628,60.3752
12:37:38.589,59.8752,53.7502
12:37:38.599,46.1877,43.8127
12:37:38.610,27.3126,29.0626
12:37:38.619,15.5626,18.1876
12:37:38.629,4.3125,10.375
12:37:38.638,2.625,9
12:37:38.649,3.375,9.6875
12:37:38.659,3.4375,9.75
12:37:38.669,2.9375,9.6875
12:37:38.679,1.5,9.3125
12:37:38.689,-1.75,6.375
12:37:38.699,-3.1875,3.875
12:37:38.709,-4.0625,3.5
12:37:38.719,-4.25,2.4375
12:37:38.728,-5.375,1
12:37:38.739,-7,-0.625
12:37:38.749,-8.4375,-2.8125
12:37:38.765,-9.3125,-4.125
12:37:38.770,-8.8125,-5.125
12:37:38.779,-9.1875,-5.5
12:37:38.790,-8.75,-5.625
12:37:38.807,-8.25,-7.0625
12:37:38.815,-8.1875,-7.3125
12:37:38.824,-7.5,-9.0625
12:37:38.828,-6.875,-8.25
12:37:38.845,-6.8125,-9
12:37:38.852,-7.4375,-9.8125
12:37:38.861,-7.0625,-11.1875
12:37:38.869,-8.1875,-10.5625
12:37:38.886,-7.9375,-12.875
12:37:38.889,-7.625,-13.0625
12:37:38.904,-7.375,-14.5626
12:37:38.920,-8.6875,-14.1876
12:37:38.927,-8.375,-15.5626
12:37:38.934,-8.3125,-16.7501
12:37:38.944,-9.6875,-17.1876
12:37:38.954,-9.5625,-18.8126
12:37:38.969,-10.1875,-18.3126
12:37:38.975,-10.375,-20.1251
12:37:39.002,-10.5,-19.8751
12:37:39.004,-11.6875,-22.1251
12:37:39.006,-11.8125,-21.0001
12:37:39.037,-12.0625,-22.6251
12:37:39.038,-11.6875,-21.8126
12:37:39.040,-11.5,-23.4376
12:37:39.045,-12.125,-22.7501
12:37:39.078,-12.375,-23.7501
12:37:39.080,-12.625,-23.8751
12:37:39.083,-12.3125,-25.0001
12:37:39.088,-12.4375,-24.1251
12:37:39.094,-12.125,-25.7501
12:37:39.128,-12.625,-25.7501
12:37:39.130,-13.0625,-26.2501
12:37:39.132,-12.5,-26.8751
12:37:39.139,-13.6251,-26.4376
12:37:39.166,-13.3751,-28.2501
12:37:39.169,-13.8126,-28.6876
12:37:39.171,-13.5001,-29.0001
12:37:39.175,-14.6876,-30.3126
12:37:39.212,-16.1251,-30.8751
12:37:39.215,-16.9376,-31.6251
12:37:39.218,-17.5626,-33.3126
12:37:39.221,-17.4376,-32.5001
12:37:39.250,-18.7501,-34.5001
12:37:39.251,-19.4376,-35.0626
12:37:39.254,-19.2501,-34.2501
12:37:39.256,-19.9376,-34.5626
12:37:39.264,-18.0626,-32.5001
12:37:39.295,-17.8751,-28.7501
12:37:39.296,-15.8126,-23.5626
12:37:39.299,-13.8751,-18.5001
12:37:39.306,-11.6875,-12.625
12:37:39.336,-8.5625,-7.9375
12:37:39.339,-6.625,-1.125
12:37:39.341,-4.25,2.5625
12:37:39.374,-2.625,7.0625
12:37:39.374,-0.625,8.4375
12:37:39.376,4.625,12.1875
12:37:39.386,8.625,17.3126
12:37:39.388,17.6876,23.0001
12:37:39.418,20.8751,25.6876
12:37:39.420,27.0626,30.8126
12:37:39.422,33.2501,34.0626
12:37:39.425,36.3126,37.6876
12:37:39.463,40.0002,38.9376
12:37:39.465,41.1252,41.7502
12:37:39.467,41.0002,41.2502
12:37:39.491,37.2501,38.7501
12:37:39.495,29.8126,32.1876
12:37:39.496,18.5001,24.1251
12:37:39.499,10.6875,17.1876
12:37:39.507,5.125,11.4375
12:37:39.516,0.25,7.5625
12:37:39.552,-2.1875,6.3125
12:37:39.556,-2.375,5.875
12:37:39.557,-1.125,5
12:37:39.560,-3.375,3.5
12:37:39.566,-5.6875,2.6875
12:37:39.588,-6.5,1.125
12:37:39.590,-7.3125,-0.25
12:37:39.620,-8.625,-0.5
12:37:39.620,-9.375,-1.1875
12:37:39.622,-9.25,-0.25
12:37:39.625,-9.5,-0.625
12:37:39.663,-8.875,-0.6875
12:37:39.664,-8.125,-0.75
12:37:39.667,-7.375,0.5625
12:37:39.672,-5.1875,1.6875
12:37:39.676,-3.875,1.8125
12:37:39.704,-2.75,2.125
12:37:39.707,-0.9375,3
12:37:39.709,0.125,3.875
12:37:39.714,0.75,3
12:37:39.753,1.3125,4.1875
12:37:39.759,2,2.5625
12:37:39.762,2.4375,2.9375
12:37:39.764,3,2.4375
12:37:39.770,3.0625,0.25
12:37:39.778,3.0625,-0.0625
12:37:39.814,2.375,-2.5
12:37:39.814,0.8125,-3.375
12:37:39.816,0.1875,-5.1875
12:37:39.819,-1.3125,-7.375
12:37:39.854,-2.875,-8.75
12:37:39.858,-3.9375,-9.75
12:37:39.860,-5.375,-12.4375
12:37:39.863,-7.25,-13.125
12:37:39.893,-8.4375,-14.4376
12:37:39.895,-9.0625,-17.0626
12:37:39.898,-9.0625,-17.6251
12:37:39.924,-9.375,-16.7501
12:37:39.926,-8.8125,-17.1251
12:37:39.928,-7.3125,-17.3126
12:37:39.932,-7.9375,-17.1876
12:37:39.942,-6.8125,-16.8126
12:37:39.951,-6.875,-16.9376
12:37:39.983,-6.875,-18.0001
12:37:39.986,-7.9375,-17.0001
12:37:39.986,-7.8125,-19.3126
12:37:39.994,-8.6875,-18.8126
12:37:39.999,-9,-20.2501
12:37:40.009,-8.4375,-20.6251
12:37:40.019,-9.1875,-20.6251
12:37:40.029,-10.5625,-23.0626
12:37:40.040,-11.875,-24.6876
12:37:40.049,-12.3125,-24.5001
12:37:40.059,-13.6876,-25.5001
12:37:40.069,-14.1876,-26.7501
12:37:40.079,-16.2501,-27.5626
12:37:40.089,-16.5001,-28.2501
12:37:40.099,-17.1251,-28.8751
12:37:40.109,-17.7501,-29.5626
12:37:40.119,-19.0626,-30.7501
12:37:40.138,-19.1251,-31.5001
12:37:40.154,-19.9376,-31.6251
12:37:40.155,-18.7501,-31.5626
12:37:40.170,-18.4376,-30.2501
12:37:40.185,-16.0626,-27.8126
12:37:40.187,-13.3751,-22.5001
12:37:40.190,-9.9375,-16.6876
12:37:40.205,2.375,-5.6875
12:37:40.213,13,7
12:37:40.219,25.6251,22.7501
12:37:40.237,36.0001,33.6251
12:37:40.239,49.0627,46.3127
12:37:40.254,54.1877,54.1252
12:37:40.259,55.6877,55.3127
12:37:40.269,47.1252,52.1877
12:37:40.279,30.8751,39.0001
12:37:40.289,19.9376,28.6251
12:37:40.299,10.375,21.8751
12:37:40.308,9.375,20.3751
12:37:40.323,8.5,19.3751
12:37:40.335,9.25,19.8751
12:37:40.344,9.8125,18.8126
12:37:40.354,9.75,18.7501
12:37:40.364,10.0625,17.9376
12:37:40.373,10.125,17.0001
12:37:40.383,11.375,18.6251
12:37:40.393,12.9375,19.0626
12:37:40.403,13.1876,19.3751
12:37:40.414,12.875,18.5626
12:37:40.424,11.4375,17.9376
12:37:40.434,10.0625,16.8751
12:37:40.444,9.5,14.4376
12:37:40.453,8.9375,14.8751
12:37:40.464,9.375,14.5626
12:37:40.473,8.875,13.9376
12:37:40.483,9.8125,14.3751
12:37:40.493,10.25,15.8126
12:37:40.505,10.875,16.3751
12:37:40.515,11.375,17.0626
12:37:40.524,10.6875,16.7501
12:37:40.536,11.0625,17.6876
12:37:40.544,11.4375,17.5001
12:37:40.554,11.6875,18.1876
12:37:40.564,10.625,16.0626
12:37:40.573,10,16.1251
12:37:40.585,9.4375,14.9376
12:37:40.594,7.625,13.8126
12:37:40.604,6.9375,12.625
12:37:40.614,6,11.6875
12:37:40.624,5.375,11.25
12:37:40.634,6.625,10.125
12:37:40.644,5.375,9.3125
12:37:40.654,5.1875,8.625
12:37:40.663,4.5,7.1875
12:37:40.674,3.3125,6.3125
12:37:40.683,2.3125,5.0625
12:37:40.695,2,5
12:37:40.705,2.25,3.4375
12:37:40.714,2.5,3.5625
12:37:40.724,2.25,2.5625
12:37:40.736,1.5625,2.4375
12:37:40.745,0.25,1.125
12:37:40.773,0.9375,-0.125
12:37:40.775,0.75,0.3125
12:37:40.777,1.875,0.375
12:37:40.784,2.875,0.9375
12:37:40.795,3.25,1.6875
12:37:40.804,3.75,0.375
12:37:40.815,5.25,1.3125
12:37:40.825,6.1875,2.0625
12:37:40.835,6.9375,3.5
12:37:40.844,8.1875,4.125
12:37:40.853,9.1875,4.5
12:37:40.863,10.125,4.625
12:37:40.874,9.9375,4.5625
12:37:40.888,9.875,3.5
12:37:40.895,9.1875,2.75
12:37:40.904,8.125,2.4375
12:37:40.914,5.6875,0.0625
12:37:40.924,4.4375,-1.1875
12:37:40.938,1.8125,-3
12:37:40.945,1.25,-4.6875
12:37:40.954,-0.5625,-5.5625
12:37:40.967,-2.625,-7.6875
12:37:40.974,-3.625,-9.1875
12:37:40.984,-5.3125,-10.4375
12:37:40.994,-6.125,-11.5
12:37:41.005,-6.8125,-13.2501
12:37:41.013,-7.0625,-13.0625
12:37:41.024,-7.75,-14.7501
12:37:41.035,-8.375,-14.8126
12:37:41.044,-8.4375,-15.2501
12:37:41.055,-7.875,-15.7501
12:37:41.063,-8,-15.3126
12:37:41.074,-7.5625,-16.1251
12:37:41.085,-7.8125,-16.5626
12:37:41.094,-8.0625,-16.2501
12:37:41.105,-8.125,-16.8751
12:37:41.115,-7.375,-16.1251
12:37:41.124,-6.25,-12.1875
12:37:41.135,-4.5625,-8.75
12:37:41.144,-1.1875,-2.375
12:37:41.155,2.1875,3.1875
12:37:41.165,5.1875,9.0625
12:37:41.175,8.5,14.5001
12:37:41.185,11.6875,19.9376
12:37:41.195,14.1876,24.3751
12:37:41.205,16.6251,26.9376
12:37:41.215,16.6876,29.3751
12:37:41.226,17.1876,28.7501
12:37:41.235,16.0001,29.7501
12:37:41.243,15.3751,28.5626
12:37:41.256,14.6251,26.4376
12:37:41.266,13.3751,26.8126
12:37:41.275,12.6875,24.3751
12:37:41.283,11.75,23.5626
12:37:41.296,11.1875,24.0001
12:37:41.304,11.625,22.1876
12:37:41.315,11.1875,22.3751
12:37:41.323,11.9375,22.3126
12:37:41.334,11.6875,21.6251
12:37:41.343,11.9375,21.6876
12:37:41.353,12.375,21.6876
12:37:41.366,11.3125,20.3751
12:37:41.374,10.75,20.0626
12:37:41.383,10.125,18.6876
12:37:41.396,10.4375,17.9376
12:37:41.405,10,16.6876
12:37:41.414,10.0625,17.2501
12:37:41.424,10.625,17.3126
12:37:41.435,10.8125,17.2501
12:37:41.452,10.875,17.6251
12:37:41.459,11.0625,18.8751
12:37:41.467,11.5625,18.8126
12:37:41.476,11.875,18.1876
12:37:41.491,10.9375,20.3126
12:37:41.499,11.4375,19.4376
12:37:41.506,11.5,19.7501
12:37:41.523,11.5,19.8126
12:37:41.525,11.25,20.8126
12:37:41.543,11.3125,20.2501
12:37:41.557,10.75,19.1876
12:37:41.572,9.875,17.7501
12:37:41.577,9.1875,18.6876
12:37:41.579,9.3125,17.6251
12:37:41.586,9.375,16.1876
12:37:41.595,8.1875,15.0001
12:37:41.605,7.75,15.4376
12:37:41.615,7.125,14.1876
12:37:41.625,7.0625,12.5
12:37:41.637,6.8125,11.4375
12:37:41.645,6.125,10.875
12:37:41.653,5.5,11.5
12:37:41.665,5.875,10.0625
12:37:41.673,4.9375,8
12:37:41.684,4.3125,6.5
12:37:41.695,3.875,6.375
12:37:41.705,3.5625,6.125
12:37:41.715,2.6875,5.75
12:37:41.725,2.9375,4.6875
12:37:41.735,3.25,3.6875
12:37:41.746,2.8125,3.0625
12:37:41.754,3,2.875
12:37:41.765,3.75,3
12:37:41.776,2.8125,2.375
12:37:41.785,2.9375,1.5
12:37:41.795,1.8125,1.875
12:37:41.807,2.625,0.5625
12:37:41.817,1.9375,-0.0625
12:37:41.825,1.4375,-0.8125
12:37:41.836,1.5,-0.75
12:37:41.845,1.5625,-1.625
12:37:41.856,0.4375,-3.0625
12:37:41.865,0.25,-2.3125
12:37:41.874,-0.25,-3.4375
12:37:41.885,-0.875,-4.3125
12:37:41.895,-1.375,-4.5
12:37:41.905,-1.3125,-5.1875
12:37:41.915,-1.4375,-6
12:37:41.926,-1.8125,-6.375
12:37:41.935,-2.125,-5.625
12:37:41.945,-1.6875,-6.8125
12:37:41.955,-2.0625,-7.5625
12:37:41.966,-2.375,-8.375
12:37:41.975,-3.1875,-7.75
12:37:41.986,-2.5625,-9.4375
12:37:41.996,-3.375,-8.875
12:37:42.004,-3.3125,-9.875
12:37:42.019,-3.25,-9.5625
12:37:42.025,-1.625,-6.5625
12:37:42.051,0.4375,-3.875
12:37:42.054,2.25,1.625
12:37:42.059,4.8125,5.5625
12:37:42.065,7.25,10.6875
12:37:42.074,9.875,16.0626
12:37:42.084,11.875,21.4376
12:37:42.095,13.1876,24.0626
12:37:42.106,14.5001,28.4376
12:37:42.114,15.2501,28.6251
12:37:42.126,15.1251,29.6876
12:37:42.137,15.6251,30.1251
12:37:42.147,14.9376,29.3126
12:37:42.154,14.8126,29.4376
12:37:42.166,14.0626,27.6876
12:37:42.175,13.8126,27.6251
12:37:42.185,13.125,27.3126
12:37:42.196,13.6251,25.2501
12:37:42.204,12.875,24.6876
12:37:42.216,12.1875,23.7501
12:37:42.225,11.375,23.5001
12:37:42.235,11.5625,23.1876
12:37:42.245,11.1875,22.2501
12:37:42.255,11.0625,21.0626
12:37:42.265,10.6875,21.2501
12:37:42.275,10.125,20.3751
12:37:42.284,10,19.3126
12:37:42.295,9.4375,17.2501
12:37:42.305,8.9375,17.1876
12:37:42.315,9.5625,17.1251
12:37:42.325,9.5,16.1876
12:37:42.336,9.375,16.3751
12:37:42.345,9.4375,17.3126
12:37:42.355,10.0625,17.5626
12:37:42.364,10.1875,17.8751
12:37:42.376,9.8125,18.5626
12:37:42.385,10.5,19.5626
12:37:42.395,10.5625,21.0001
12:37:42.405,12.1875,21.1876
12:37:42.415,12.6875,21.4376
12:37:42.425,13.2501,21.5001
12:37:42.436,13.0625,22.9376
12:37:42.445,13,21.8126
12:37:42.456,12.5625,20.3126
12:37:42.467,11.625,19.6876
12:37:42.475,10.875,19.3751
12:37:42.485,10.6875,18.5001
12:37:42.495,10.0625,16.8751
12:37:42.506,9.125,15.3751
12:37:42.515,8.5,15.6251
12:37:42.525,7.5625,13.6251
12:37:42.535,7,12.4375
12:37:42.545,6.625,10.4375
12:37:42.557,5.6875,10.25
12:37:42.566,5.375,9.625
12:37:42.577,5.1875,7.5
12:37:42.585,3.4375,6.0625
12:37:42.595,2.5,6.4375
12:37:42.605,2.1875,4.875
12:37:42.615,2,3.375
12:37:42.625,2.0625,3.9375
12:37:42.635,2.4375,3.8125
12:37:42.647,2.5,2.5
12:37:42.657,2.4375,2
12:37:42.665,2.4375,2.125
12:37:42.675,1.75,2.375
12:37:42.685,2.0625,0.8125
12:37:42.695,1.5625,-0.3125
12:37:42.705,0.8125,-0.4375
12:37:42.715,1.25,-1.125
12:37:42.725,-0.3125,-3
12:37:42.736,-0.5,-3.1875
12:37:42.745,-0.9375,-2.9375
12:37:42.756,-0.375,-4.125
12:37:42.775,-1.8125,-5.4375
12:37:42.781,-1.875,-4.6875
12:37:42.789,-2.4375,-6.875
12:37:42.795,-1.9375,-7.125
12:37:42.813,-2,-7
12:37:42.819,-2.25,-6.125
12:37:42.826,-2.0625,-8
12:37:42.841,-2.125,-8.4375
12:37:42.849,-3.25,-8.0625
12:37:42.855,-2.0625,-8.6875
12:37:42.866,-2.6875,-8.4375
12:37:42.875,-0.6875,-6.375
12:37:42.890,-0.3125,-3.9375
12:37:42.899,2.3125,0.125
12:37:42.906,4.6875,4.5625
12:37:42.937,6.9375,10
12:37:42.939,8.8125,15.1876
12:37:42.942,11,20.1251
12:37:42.950,12.625,23.5626
12:37:42.983,14.6251,26.8751
12:37:42.985,15.1876,29.8751
12:37:42.988,15.5001,31.8751
12:37:42.990,16.0001,31.7501
12:37:43.034,16.1251,31.3126
12:37:43.034,16.7501,32.0001
12:37:43.038,16.6251,30.6876
12:37:43.067,15.1251,29.6251
12:37:43.067,14.5001,30.0626
12:37:43.068,13.6876,27.5626
12:37:43.069,13.6876,26.1251
12:37:43.075,13.1251,25.5001
12:37:43.081,13.1876,25.4376
12:37:43.114,12.9375,24.6876
12:37:43.116,13,24.8751
12:37:43.117,12.6875,24.5001
12:37:43.120,12.5,23.8751
12:37:43.148,12.125,22.6876
12:37:43.152,11.75,21.5626
12:37:43.154,10.875,21.0626
12:37:43.160,11.3125,20.3751
12:37:43.192,11,19.3751
12:37:43.195,10.3125,18.2501
12:37:43.198,10.3125,18.0001
12:37:43.200,10,18.3751
12:37:43.240,9.8125,18.1251
12:37:43.242,11,18.8751
12:37:43.247,10.6875,20.0001
12:37:43.249,12.1875,20.7501
12:37:43.251,11.75,20.6251
12:37:43.276,12.0625,22.5001
12:37:43.280,12.375,23.3751
12:37:43.283,12.9375,22.5001
12:37:43.290,11.875,21.7501
12:37:43.333,11.5,21.6876
12:37:43.334,11.4375,20.9376
12:37:43.336,11.4375,19.2501
12:37:43.341,10.9375,19.0001
12:37:43.343,10.6875,18.2501
12:37:43.351,9.6875,17.3126
12:37:43.388,9.125,16.0626
12:37:43.390,8.8125,16.5626
12:37:43.393,8.6875,14.2501
12:37:43.394,7.9375,13.3126
12:37:43.401,7,11.8125
12:37:43.436,6.4375,11.9375
12:37:43.438,7,11.125
12:37:43.440,6.375,9.5625
12:37:43.482,5.25,7.5625
12:37:43.482,4.5625,7.1875
12:37:43.486,4.5625,6.375
12:37:43.490,3.375,4.6875
12:37:43.493,2.5625,4.5625
12:37:43.493,2.6875,3.75
12:37:43.502,2.1875,2.1875
12:37:43.532,1.3125,0.625
12:37:43.534,0.9375,1.5
12:37:43.537,1.0625,0
12:37:43.540,1.25,-0.5625
12:37:43.552,0.5,-1.375
12:37:43.565,-0.125,-0.6875
12:37:43.570,0.125,-1.4375
12:37:43.605,0.125,-2.5
12:37:43.608,-0.4375,-2.75
12:37:43.610,-0.25,-3.4375
12:37:43.615,0.0625,-2.6875
12:37:43.620,-0.1875,-3.625
12:37:43.659,-0.5,-4.3125
12:37:43.660,-0.6875,-5.25
12:37:43.663,-1.4375,-6.3125
12:37:43.666,-1.75,-6.0625
12:37:43.672,-2.8125,-8.25
12:37:43.705,-2.875,-7.75
12:37:43.706,-2.5625,-8.25
12:37:43.710,-3.375,-10.1875
12:37:43.717,-3.9375,-10.3125
12:37:43.722,-4,-11.0625
12:37:43.730,-4.375,-11
12:37:43.763,-4.8125,-12.5
12:37:43.766,-4.8125,-14.1876
12:37:43.768,-5.625,-12.8125
12:37:43.774,-5.875,-13.8751
12:37:43.781,-6.125,-15.0626
12:37:43.812,-5.5,-14.0001
12:37:43.816,-5.4375,-15.8751
12:37:43.818,-4.75,-13.8751
12:37:43.820,-3.375,-12.25
12:37:43.854,-2.1875,-9.3125
12:37:43.857,-0.375,-4.25
12:37:43.859,3.0625,0.3125
12:37:43.864,5.375,7.1875
12:37:43.870,8.375,11.9375
12:37:43.909,9.625,17.5626
12:37:43.911,11.8125,20.3751
12:37:43.912,12.6875,23.8126
12:37:43.917,13.5626,26.8126
12:37:43.920,13.7501,26.5626
12:37:43.931,14.1251,28.1251
12:37:43.942,13.6876,27.6251
12:37:43.950,13.125,27.7501
12:37:43.960,12.375,26.0626
12:37:43.970,12.0625,25.2501
12:37:43.980,11.3125,23.8751
12:37:43.990,10.1875,22.8751
12:37:44.000,9.9375,22.0626
12:37:44.011,9,20.4376
12:37:44.021,8.75,20.6251
12:37:44.033,9.125,19.4376
12:37:44.040,8.3125,18.8751
12:37:44.057,7.8125,18.4376
12:37:44.065,7.25,18.9376
12:37:44.075,6.9375,17.5626
12:37:44.086,7.125,16.4376
12:37:44.095,6.0625,14.9376
12:37:44.105,5.625,14.7501
12:37:44.125,5.375,14.0626
12:37:44.127,5.25,12.875
12:37:44.139,4.4375,11.625
12:37:44.145,4.1875,12.5
12:37:44.163,4.8125,12.6875
12:37:44.167,4.75,13.0625
12:37:44.178,5.125,13.3126
12:37:44.192,5.125,13.125
12:37:44.210,5.5,14.1876
12:37:44.227,6.5,14.8751
12:37:44.240,5.8125,14.6876
12:37:44.242,6.0625,16.0626
12:37:44.247,5.875,15.8751
12:37:44.247,5.5625,14.6876
12:37:44.255,5.1875,14.4376
12:37:44.266,5.0625,14.0626
12:37:44.275,4.625,12.4375
12:37:44.285,4.125,11.5625
12:37:44.296,3.5625,10.75
12:37:44.305,3,9.625
12:37:44.315,3,9.125
12:37:44.326,2.4375,8.0625
12:37:44.335,1.8125,7.5625
12:37:44.346,1.3125,6.6875
12:37:44.356,1.125,5.9375
12:37:44.365,0.8125,4.3125
12:37:44.375,0.125,3.25
12:37:44.385,-0.875,1.375
12:37:44.395,-0.6875,0.6875
12:37:44.405,-1.625,-0.4375
12:37:44.415,-1.5,-0.0625
12:37:44.425,-0.9375,-0.875
12:37:44.435,-2.1875,-2.1875
12:37:44.446,-2.75,-1.9375
12:37:44.457,-2.5625,-3.5625
12:37:44.465,-2.8125,-4.9375
12:37:44.475,-2.75,-4.75
12:37:44.486,-3.375,-4.25
12:37:44.495,-2.5625,-5.5625
12:37:44.505,-3.25,-6
12:37:44.518,-3.3125,-6
12:37:44.526,-3.5,-5.875
12:37:44.536,-3.3125,-6.5625
12:37:44.546,-2.75,-7.1875
12:37:44.557,-3.3125,-6.75
12:37:44.565,-3,-7.8125
12:37:44.575,-2.875,-8.6875
12:37:44.585,-3.0625,-7.25
12:37:44.612,-2.875,-8.875
12:37:44.614,-3.6875,-8.75
12:37:44.616,-3.625,-10.6875
12:37:44.627,-4.8125,-10.125
12:37:44.635,-4.5,-12.0625
12:37:44.647,-5.625,-12.125
12:37:44.656,-5.8125,-13.5001
12:37:44.665,-6.3125,-12.875
12:37:44.675,-6.3125,-14.9376
12:37:44.685,-6.375,-14.3751
12:37:44.695,-6.6875,-15.6251
12:37:44.706,-7.0625,-16.0001
12:37:44.716,-6.875,-16.1251
12:37:44.725,-6.5,-17.5626
12:37:44.735,-7,-17.0001
12:37:44.745,-7.125,-17.5626
12:37:44.756,-6.5,-16.8751
12:37:44.766,-7.1875,-16.7501
12:37:44.775,-5.5,-14.6876
12:37:44.785,-3.75,-11.75
12:37:44.795,-1.1875,-5.75
12:37:44.807,1.5625,-1
12:37:44.816,4,5.125
12:37:44.827,6.0625,9.375
12:37:44.835,8.125,14.9376
12:37:44.846,9.625,18.0001
12:37:44.855,10.5625,21.0626
12:37:44.865,11.6875,23.3126
12:37:44.875,11.5,24.3751
12:37:44.886,11.5625,24.1251
12:37:44.899,11,23.1876
12:37:44.905,10.1875,23.1251
12:37:44.915,9.6875,20.9376
12:37:44.925,8.75,20.5626
12:37:44.936,8.1875,18.0001
12:37:44.945,7.5,17.5626
12:37:44.955,7.3125,16.4376
12:37:44.965,6.875,16.0626
12:37:44.976,7.1875,16.3126
12:37:44.986,7.0625,15.1251
12:37:44.995,5.8125,13.7501
12:37:45.006,6,14.2501
12:37:45.015,5.5625,13.4376
12:37:45.026,5.4375,12.4375
12:37:45.035,4.375,11
12:37:45.045,4.25,11.25
12:37:45.055,3.9375,9.875
12:37:45.067,3.9375,9.25
12:37:45.076,3.875,8.4375
12:37:45.085,3.125,9.3125
12:37:45.096,3.625,8.5625
12:37:45.105,3.5,8.8125
12:37:45.115,4.375,10.4375
12:37:45.125,5.0625,10.25
12:37:45.135,5.1875,10.875
12:37:45.145,5.5,13.2501
12:37:45.155,5.4375,12.875
12:37:45.168,5.6875,12.0625
12:37:45.175,5.75,12.375
12:37:45.185,4.75,13.5626
12:37:45.195,5.5,12
12:37:45.205,4.875,10.75
12:37:45.217,4.5,11.25
12:37:45.225,5.0625,10.125
12:37:45.235,4.1875,8.8125
12:37:45.245,3.5625,7.5
12:37:45.262,2.6875,8.1875
12:37:45.266,3,6.75
12:37:45.275,2.25,5.125
12:37:45.285,1.75,4.625
12:37:45.295,1.6875,4.375
12:37:45.305,1.4375,2.8125
12:37:45.316,0.3125,1.125
12:37:45.325,-0.25,-0.5
12:37:45.335,-0.5625,0.1875
12:37:45.347,0,-1.5625
12:37:45.356,-1.0625,-2.1875
12:37:45.366,-1.25,-3.5
12:37:45.375,-1.9375,-3.125
12:37:45.385,-1.125,-3.75
12:37:45.395,-2.125,-5.5
12:37:45.405,-3.25,-5
12:37:45.416,-3,-5.3125
12:37:45.425,-2.1875,-6.25
12:37:45.443,-3.25,-7
12:37:45.449,-3.375,-7.3125
12:37:45.458,-3.1875,-6.75
12:37:45.465,-3.25,-8
12:37:45.481,-4.1875,-9.3125
12:37:45.489,-4.5,-9.4375
12:37:45.496,-4.875,-10.5
12:37:45.514,-5.4375,-12.0625
12:37:45.517,-5.5625,-11
12:37:45.531,-6.3125,-12.9375
12:37:45.547,-5.875,-13.6876
12:37:45.549,-6.8125,-13.8751
12:37:45.563,-6.625,-14.0626
12:37:45.568,-7.1875,-14.8126
12:37:45.575,-7.3125,-14.9376
12:37:45.585,-7.875,-15.6876
12:37:45.595,-8,-15.3751
12:37:45.606,-7.5625,-16.5001
12:37:45.618,-8.125,-16.3126
12:37:45.626,-7.3125,-16.3751
12:37:45.635,-7.3125,-16.2501
12:37:45.648,-6.3125,-13.5001
12:37:45.655,-4.625,-9.875
12:37:45.665,-2.125,-6.5
12:37:45.675,0.25,-0.6875
12:37:45.685,3.0625,4.75
12:37:45.696,4.875,10.5
12:37:45.706,6.3125,14.9376
12:37:45.715,8.5625,16.8751
12:37:45.725,9.375,19.9376
12:37:45.735,9.4375,21.8126
12:37:45.746,10,21.5001
12:37:45.755,10,22.7501
12:37:45.765,9.4375,21.4376
12:37:45.775,8.5625,21.3751
12:37:45.785,8,19.6251
12:37:45.797,7.5,19.3126
12:37:45.805,6.625,16.8751
12:37:45.815,6.3125,17.3126
12:37:45.825,5.4375,15.4376
12:37:45.835,5.75,15.7501
12:37:45.847,5.625,14.4376
12:37:45.855,5.3125,14.0001
12:37:45.865,5.1875,14.2501
12:37:45.893,5.0625,13.3751
12:37:45.895,4.125,12.3125
12:37:45.900,4.625,11.4375
12:37:45.905,3.625,10.6875
12:37:45.915,3.5625,9.75
12:37:45.927,3.4375,8.375
12:37:45.935,3.3125,8.4375
12:37:45.945,3.75,8.5
12:37:45.955,2.875,7.875
12:37:45.965,3.1875,9.5
12:37:45.978,3.25,9.375
12:37:45.985,3.6875,9.8125
12:37:45.995,3.8125,10.3125
12:37:46.005,4.0625,11.875
12:37:46.016,4.5,11.75
12:37:46.025,5,11.125
12:37:46.035,4.8125,12.375
12:37:46.045,4.9375,12.0625
12:37:46.056,4.875,11.8125
12:37:46.067,4.375,10.5625
12:37:46.075,4.4375,11.4375
12:37:46.085,4.875,10.3125
12:37:46.095,4.0625,9.4375
12:37:46.106,3,8.375
12:37:46.115,3.4375,8.25
12:37:46.125,2.625,6.75
12:37:46.135,1.4375,5.3125
12:37:46.145,1.75,5.125
12:37:46.156,0.5,3.625
12:37:46.165,0,2.75
12:37:46.175,0.0625,1.375
12:37:46.185,-1,-0.625
12:37:46.195,-1.0625,-0.0625
12:37:46.205,-0.875,-1.5625
12:37:46.215,-1.6875,-3.125
12:37:46.226,-2.1875,-3.25
12:37:46.235,-2,-4.0625
12:37:46.248,-2.1875,-5.4375
12:37:46.255,-2.875,-4.9375
12:37:46.265,-3.4375,-6.0625
12:37:46.275,-3.3125,-7.6875
12:37:46.289,-4.375,-8
12:37:46.295,-4,-7.375
12:37:46.305,-4.25,-8.875
12:37:46.318,-4.6875,-9.6875
12:37:46.325,-4.5625,-9
12:37:46.336,-4.6875,-9.1875
12:37:46.345,-4.3125,-10.5625
12:37:46.355,-4.6875,-11.0625
12:37:46.368,-5.1875,-10.9375
12:37:46.375,-5.5625,-11.8125
12:37:46.385,-5.6875,-12.75
12:37:46.395,-5.625,-12.9375
12:37:46.406,-5.5625,-13.1876
12:37:46.416,-6.3125,-13.5001
12:37:46.426,-6.3125,-14.1251
12:37:46.435,-7.125,-14.8751
12:37:46.446,-6.75,-15.8751
12:37:46.455,-7,-16.8126
12:37:46.465,-7.75,-16.8126
12:37:46.475,-8.1875,-17.0001
12:37:46.487,-7.625,-18.0626
12:37:46.495,-8.3125,-18.1876
12:37:46.505,-8.0625,-18.2501
12:37:46.516,-7.875,-18.6876
12:37:46.526,-8.0625,-19.1876
12:37:46.535,-8.25,-19.5001
12:37:46.546,-8.5,-19.8751
12:37:46.555,-8.5,-19.6876
12:37:46.567,-8.25,-17.5001
12:37:46.576,-5.8125,-15.9376
12:37:46.585,-4.0625,-10.9375
12:37:46.595,-1.3125,-6.5625
12:37:46.606,0.625,-0.125
12:37:46.615,3.625,4.25
12:37:46.625,5.5625,10.1875
12:37:46.635,7.4375,13.5001
12:37:46.645,8.9375,18.2501
12:37:46.655,10.3125,20.0001
12:37:46.665,10.375,23.0001
12:37:46.675,11.5,22.3126
12:37:46.686,11.0625,23.6251
12:37:46.697,10.9375,22.0001
12:37:46.706,10.3125,21.6876
12:37:46.715,10.0625,20.5001
12:37:46.726,8.75,20.0626
12:37:46.735,8.5,18.0001
12:37:46.745,7.8125,18.3751
12:37:46.770,7.875,17.0626
12:37:46.776,7,17.0626
12:37:46.779,7.375,15.4376
12:37:46.795,7.1875,14.8751
12:37:46.810,7.625,16.3751
12:37:46.811,7.5625,15.3751
12:37:46.840,6.4375,13.5626
12:37:46.842,5.9375,14.7501
12:37:46.843,5.6875,13
12:37:46.858,5.375,10.875
12:37:46.873,5,11.0625
12:37:46.892,5,10.375
12:37:46.893,5.0625,9.6875
12:37:46.895,5.125,10
12:37:46.896,5.625,11.125
12:37:46.906,5.4375,11.5
12:37:46.935,6.6875,11.9375
12:37:46.938,7.0625,12.375
12:37:46.942,7.3125,11.875
12:37:46.979,7.25,13.3126
12:37:46.980,7.375,13.6251
12:37:46.987,8.125,14.8751
12:37:46.989,7.375,13.6251
12:37:46.991,6.9375,13.6876
12:37:47.029,6.6875,13.1251
12:37:47.033,5.5625,12.75
12:37:47.034,5.25,13.1251
12:37:47.036,5.0625,12.25
12:37:47.043,5.1875,10.8125
12:37:47.072,4.8125,10.3125
12:37:47.075,4.125,9.125
12:37:47.077,3.8125,7.6875
12:37:47.081,3,7
12:37:47.108,2.4375,5.3125
12:37:47.111,2.25,4.25
12:37:47.114,1.75,4.5625
12:37:47.120,1.9375,3.1875
12:37:47.160,1.375,2.4375
12:37:47.162,0.625,0.9375
12:37:47.165,-0.0625,2
12:37:47.179,0.5625,-1.3125
12:37:47.184,-0.3125,-2.1875
12:37:47.208,-0.6875,-1.9375
12:37:47.210,-1.0625,-3.0625
12:37:47.211,-1.25,-4.125
12:37:47.239,-1.5625,-4.5625
12:37:47.244,-2.0625,-4.5625
12:37:47.245,-2.375,-5.1875
12:37:47.248,-2,-6.0625
12:37:47.250,-2.5625,-6.4375
12:37:47.284,-2.625,-6.5625
12:37:47.289,-3.0625,-6.9375
12:37:47.291,-2.875,-8.3125
12:37:47.294,-3.3125,-7.3125
12:37:47.322,-3,-8.3125
12:37:47.324,-3.4375,-9.5
12:37:47.327,-3.3125,-8.9375
12:37:47.359,-3.125,-9.75
12:37:47.360,-3.375,-10.4375
12:37:47.362,-3.875,-10.5625
12:37:47.366,-3.75,-11.8125
12:37:47.402,-4.8125,-12.1875
12:37:47.404,-5.1875,-13.5001
12:37:47.408,-5.6875,-12.8125
12:37:47.409,-5.375,-14.1876
12:37:47.417,-6.0625,-15.6251
12:37:47.445,-6.0625,-15.5626
12:37:47.451,-6.75,-17.0001
12:37:47.454,-6.875,-16.8751
12:37:47.456,-7,-17.8751
12:37:47.491,-7.125,-18.3751
12:37:47.491,-6.8125,-18.1876
12:37:47.494,-7.8125,-19.0001
12:37:47.498,-7.625,-19.2501
12:37:47.539,-7.25,-20.0001
12:37:47.539,-7.25,-19.4376
12:37:47.541,-6.4375,-17.9376
12:37:47.544,-4.375,-14.8751
12:37:47.550,-2.625,-10.8125
12:37:47.578,0.3125,-5.25
12:37:47.582,3.25,-0.5625
12:37:47.584,4.875,6.1875
12:37:47.614,7.75,10.5625
12:37:47.615,9,14.5626
12:37:47.618,10.8125,19.8126
12:37:47.642,11.5625,21.1251
12:37:47.646,12.125,23.2501
12:37:47.651,12.25,22.8751
12:37:47.653,12.0625,24.5001
12:37:47.656,11.6875,23.1876
12:37:47.686,11.5625,22.8126
12:37:47.689,11.0625,22.2501
12:37:47.692,10.4375,21.0626
12:37:47.696,10,19.9376
12:37:47.725,9.625,19.4376
12:37:47.727,9.375,18.8126
12:37:47.729,8.8125,17.6876
12:37:47.764,7.9375,16.5626
12:37:47.766,7.875,17.0001
12:37:47.770,7.6875,16.6876
12:37:47.772,8.0625,15.6251
12:37:47.776,8.25,15.3126
12:37:47.809,6.75,13.6251
12:37:47.811,6.4375,13.6251
12:37:47.815,6.125,13.3126
12:37:47.817,6.0625,11.9375
12:37:47.855,6,11.375
12:37:47.857,5.875,11
12:37:47.859,5.75,10.75
12:37:47.862,6.125,12.9375
12:37:47.868,6.25,12.375
12:37:47.875,7.1875,12.875
12:37:47.902,6.8125,13.6251
12:37:47.905,7.125,14.8126
12:37:47.908,7,15.0626
12:37:47.926,7.4375,14.8751
12:37:47.929,7.0625,15.3751
12:37:47.936,7.3125,15.8751
12:37:47.947,7.5625,14.9376
12:37:47.956,6.5625,15.0626
12:37:47.965,5.9375,13.5626
12:37:47.976,5.625,14.8126
12:37:47.986,6,13.2501
12:37:47.995,5.4375,11.625
12:37:48.005,5.25,10.6875
12:37:48.017,4.4375,10.375
12:37:48.026,3.6875,9.8125
12:37:48.036,3.25,8.125
12:37:48.046,3.0625,6.8125
12:37:48.058,2.375,5.625
12:37:48.067,1.9375,5.6875
12:37:48.076,1.125,4.5625
12:37:48.093,1.625,3.375
12:37:48.101,0.8125,2.375
12:37:48.117,-0.3125,1.375
12:37:48.140,-0.25,1.25
12:37:48.143,-0.375,-0.375
12:37:48.145,-0.8125,-0.0625
12:37:48.160,-1.1875,-0.4375
12:37:48.161,-1.1875,-1.8125
12:37:48.177,-1.4375,-3
12:37:48.192,-1.8125,-3.0625
12:37:48.207,-2.1875,-3
12:37:48.210,-1.5,-3.9375
12:37:48.227,-2,-5.125
12:37:48.230,-2.4375,-5.25
12:37:48.231,-2.875,-5.125
12:37:48.236,-2.625,-5.25
12:37:48.247,-2.3125,-7
12:37:48.255,-3.0625,-8.1875
12:37:48.266,-4.125,-9.125
12:37:48.278,-4.0625,-9.625
12:37:48.288,-4.1875,-9.3125
12:37:48.295,-4.25,-10
12:37:48.306,-5.4375,-11
12:37:48.316,-5.3125,-11.375
12:37:48.326,-4.6875,-12.6875
12:37:48.336,-5.5,-12.9375
12:37:48.347,-5.25,-12.5
12:37:48.356,-6,-13.3126
12:37:48.366,-6.0625,-13.7501
12:37:48.377,-5.875,-14.1251
12:37:48.389,-6.1875,-14.1876
12:37:48.396,-5.25,-13.6876
12:37:48.406,-4.3125,-11.9375
12:37:48.415,-2.3125,-9.1875
12:37:48.426,-0.875,-4.375
12:37:48.451,2.25,0.375
12:37:48.454,4.6875,6
12:37:48.456,7.3125,11.125
12:37:48.467,9.25,16.1876
12:37:48.475,10.6875,20.1251
12:37:48.486,12.125,23.1251
12:37:48.498,13.1876,25.3126
12:37:48.512,13.1251,26.6251
12:37:48.516,12.625,27.8751
12:37:48.525,12.875,26.7501
12:37:48.536,11.9375,25.7501
12:37:48.546,12.1875,26.0626
12:37:48.556,11.5625,25.2501
12:37:48.565,10.25,23.5001
12:37:48.576,10.625,23.0001
12:37:48.586,9.875,22.5626
12:37:48.596,9.5,21.5001
12:37:48.606,9.875,20.6876
12:37:48.616,9.25,18.9376
12:37:48.626,8.3125,19.3751
12:37:48.637,8.1875,18.6251
12:37:48.646,8,17.7501
12:37:48.658,6.9375,15.8126
12:37:48.667,6.5,15.2501
12:37:48.678,5.8125,15.1876
12:37:48.686,5.125,13.4376
12:37:48.697,4.875,12.1875
12:37:48.706,4.5625,12.75
12:37:48.716,4.3125,13.125
12:37:48.726,4.6875,12.1875
12:37:48.736,5.25,12.875
12:37:48.748,5.375,14.1876
12:37:48.756,5.375,15.6251
12:37:48.766,6.4375,16.0001
12:37:48.778,6.875,15.9376
12:37:48.786,6.625,16.0626
12:37:48.796,6.625,17.5626
12:37:48.806,6.5625,16.7501
12:37:48.816,6.25,16.3126
12:37:48.826,6.0625,15.5626
12:37:48.836,4.9375,15.3126
12:37:48.848,5.25,14.5626
12:37:48.856,4.5625,13.0625
12:37:48.866,4.125,14.1251
12:37:48.876,4.0625,13.1876
12:37:48.887,3.4375,11.25
12:37:48.896,3.0625,10
12:37:48.908,2.5625,9.5625
12:37:48.916,2.5625,8.375
12:37:48.926,1.9375,7.3125
12:37:48.936,1.125,7.8125
12:37:48.947,1,5.875
12:37:48.956,0.9375,4.75
12:37:48.966,-0.6875,3
12:37:48.978,-0.8125,1.4375
12:37:48.986,-1.4375,1.375
12:37:48.996,-1.75,-0.25
12:37:49.006,-1.75,0.125
12:37:49.016,-2.4375,-1.875
12:37:49.027,-2.625,-2.6875
12:37:49.036,-3.3125,-1.875
12:37:49.046,-2.8125,-2.9375
12:37:49.056,-3.375,-3.6875
12:37:49.066,-4.25,-4.25
12:37:49.078,-4,-4.625
12:37:49.086,-3.25,-5.625
12:37:49.096,-4.125,-5.4375
12:37:49.106,-4.3125,-5.3125
12:37:49.116,-4,-6.5625
12:37:49.127,-3.8125,-7.4375
12:37:49.136,-4.5625,-7.8125
12:37:49.146,-4.4375,-7.9375
12:37:49.156,-5,-8.4375
12:37:49.168,-5.5,-10.25
12:37:49.176,-5.25,-9.3125
12:37:49.187,-5.6875,-10.9375
12:37:49.197,-6.6875,-10.9375
12:37:49.206,-6.3125,-12.375
12:37:49.217,-7.0625,-12.625
12:37:49.226,-7.625,-13.6876
12:37:49.236,-6.75,-13.8751
12:37:49.246,-7.75,-14.6251
12:37:49.262,-7.75,-14.9376
12:37:49.266,-8.125,-16.1876
12:37:49.276,-8.125,-16.3126
12:37:49.286,-8.0625,-16.8126
12:37:49.296,-8.3125,-16.0001
12:37:49.306,-7.1875,-15.5626
12:37:49.316,-6.25,-12.125
12:37:49.326,-3.9375,-8.75
12:37:49.337,-1.25,-3.25
12:37:49.347,1.375,2.5
12:37:49.356,4.375,7.875
12:37:49.367,6.5625,14.3126
12:37:49.376,8.4375,17.7501
12:37:49.386,10.375,22.3126
12:37:49.396,10.6875,24.9376
12:37:49.406,11.6875,27.3126
12:37:49.416,12.375,28.3126
12:37:49.426,13.0625,29.4376
12:37:49.443,12.625,28.7501
12:37:49.448,12.0625,29.3126
12:37:49.459,11.25,27.8126
12:37:49.468,10.75,27.3126
12:37:49.484,10.5625,25.8126
12:37:49.497,10.0625,25.8126
12:37:49.500,9.6875,24.4376
12:37:49.516,9,25.0001
12:37:49.531,9.1875,24.1251
12:37:49.546,9.0625,23.4376
12:37:49.549,9.1875,22.9376
12:37:49.563,9.1875,22.9376
12:37:49.565,8.9375,22.7501
12:37:49.570,8.3125,21.3751
12:37:49.576,7.4375,20.1876
12:37:49.586,7.4375,20.5001
12:37:49.597,7,19.8751
12:37:49.606,6.875,18.0001
12:37:49.616,6.5,18.5626
12:37:49.626,6.5625,19.0626
12:37:49.642,6.9375,18.3126
12:37:49.647,6.875,19.0001
12:37:49.656,7.4375,19.3751
12:37:49.666,7.25,19.6876
12:37:49.678,7.6875,21.0001
12:37:49.688,8.125,22.8751
12:37:49.696,8.25,22.4376
12:37:49.706,8.75,22.4376
12:37:49.732,8.8125,22.1876
12:37:49.736,8.0625,22.1251
12:37:49.737,7.3125,22.6251
12:37:49.746,7.75,21.5001
12:37:49.756,6.9375,20.8126
12:37:49.766,6.1875,19.1876
12:37:49.776,5.6875,19.3126
12:37:49.786,4.9375,17.7501
12:37:49.796,4.6875,15.2501
12:37:49.808,4.6875,15.8751
12:37:49.816,4.25,14.8126
12:37:49.826,3.5625,13.7501
12:37:49.840,2.875,14.4376
12:37:49.866,3.0625,12.0625
12:37:49.870,1.3125,10.5625
12:37:49.871,-0.9375,7.75
12:37:49.876,-3.75,7.125
12:37:49.912,-5.625,2.75
12:37:49.918,-7.4375,0.625
12:37:49.918,-8.75,-0.5625
12:37:49.919,-8.6875,-1.8125
12:37:49.952,-10.375,-3.125
12:37:49.955,-10.5625,-4
12:37:49.958,-11.375,-3.8125
12:37:49.962,-11.5,-4.0625
12:37:49.997,-12,-4.75
12:37:49.999,-14.1876,-7.0625
12:37:50.001,-16.2501,-8.3125
12:37:50.004,-17.2501,-10.1875
12:37:50.006,-17.8751,-11.875
12:37:50.041,-19.1251,-13.7501
12:37:50.044,-18.6251,-13.0625
12:37:50.046,-18.7501,-13.8126
12:37:50.050,-19.3126,-13.9376
12:37:50.087,-19.2501,-14.2501
12:37:50.089,-19.3751,-16.1876
12:37:50.091,-21.1251,-17.1251
12:37:50.094,-20.6876,-18.7501
12:37:50.096,-22.2501,-19.9376
12:37:50.140,-22.8751,-20.9376
12:37:50.142,-23.2501,-22.5001
12:37:50.144,-23.7501,-23.3126
12:37:50.150,-24.7501,-24.3126
12:37:50.151,-25.3126,-26.0001
12:37:50.157,-26.3751,-27.2501
12:37:50.185,-27.5001,-28.9376
12:37:50.187,-28.1251,-30.7501
12:37:50.190,-29.8751,-32.1251
12:37:50.196,-32.5001,-36.3126
12:37:50.224,-33.8126,-37.6251
12:37:50.226,-32.3751,-38.5001
12:37:50.229,-28.9376,-37.3751
12:37:50.264,-25.3126,-35.6251
12:37:50.267,-22.0001,-33.5626
12:37:50.270,-18.4376,-31.1251
12:37:50.275,-16.4376,-27.8126
12:37:50.276,-14.8751,-24.3126
12:37:50.290,-12.125,-19.1876
12:37:50.296,-7.125,-13.8751
12:37:50.334,-2.5625,-7.3125
12:37:50.336,3.3125,-0.5625
12:37:50.339,7.9375,5.8125
12:37:50.342,10.75,11.5625
12:37:50.347,12.5625,12.875
12:37:50.371,14.4376,16.5626
12:37:50.374,18.3126,20.5626
12:37:50.376,23.3751,25.8126
12:37:50.388,25.5626,30.5626
12:37:50.415,23.3751,29.6876
12:37:50.419,19.9376,28.0001
12:37:50.420,14.3126,22.1876
12:37:50.427,14.4376,16.3126
12:37:50.462,6.4375,6.75
12:37:50.465,5.0625,1.8125
12:37:50.468,6.75,-0.875
12:37:50.493,8.9375,-1.125
12:37:50.493,14.1876,-0.5
12:37:50.496,17.2501,-0.1875
12:37:50.501,17.1251,-1.9375
12:37:50.531,14.6876,-3.125
12:37:50.532,9.8125,-6.375
12:37:50.535,4.6875,-10.0625
12:37:50.537,0.6875,-12.75
12:37:50.573,-2.8125,-15.5001
12:37:50.575,-7.0625,-18.4376
12:37:50.577,-10.3125,-19.0001
12:37:50.580,-13,-20.0626
12:37:50.586,-16.7501,-22.1876
12:37:50.620,-20.8751,-21.9376
12:37:50.622,-24.3126,-22.3126
12:37:50.625,-25.6251,-22.6876
12:37:50.627,-28.3126,-22.6251
12:37:50.656,-31.0001,-22.7501
12:37:50.659,-33.6876,-24.5001
12:37:50.661,-35.6876,-26.1876
12:37:50.668,-38.8751,-28.1876
12:37:50.699,-39.1876,-29.4376
12:37:50.701,-39.1876,-29.0001
12:37:50.704,-36.7501,-27.0626
12:37:50.706,-33.1876,-26.5626
12:37:50.738,-30.5001,-23.6876
12:37:50.741,-28.6251,-22.8126
12:37:50.743,-28.9376,-23.8126
12:37:50.747,-30.5626,-26.1251
12:37:50.785,-32.8126,-27.8126
12:37:50.786,-32.8751,-29.1251
12:37:50.789,-31.4376,-29.3751
12:37:50.791,-28.5001,-27.6876
12:37:50.797,-24.9376,-26.5001
12:37:50.836,-21.1251,-25.1876
12:37:50.839,-18.3751,-24.1251
12:37:50.870,-15.3126,-23.4376
12:37:50.873,-13.5001,-22.4376
12:37:50.876,-12.375,-23.1251
12:37:50.876,-10.8125,-22.8126
12:37:50.876,-8.5,-22.1876
12:37:50.882,-5.25,-20.7501
12:37:50.891,-2.875,-19.4376
12:37:50.901,-0.125,-18.0626
12:37:50.912,2.8125,-16.1251
12:37:50.921,4.875,-16.0001
12:37:50.931,5.9375,-14.6251
12:37:50.947,5.9375,-14.6876
12:37:50.956,5,-15.1876
12:37:50.966,5.5625,-14.6251
12:37:50.978,6.6875,-14.0001
12:37:50.987,6.625,-12.5625
12:37:51.011,6.5,-12.1875
12:37:51.013,5.9375,-12.375
12:37:51.017,5.3125,-11
12:37:51.026,3.8125,-8.4375
12:37:51.036,1.5625,-8.1875
12:37:51.046,-5.3125,-10.375
12:37:51.056,-10.4375,-15.2501
12:37:51.066,-14.1876,-17.4376
12:37:51.078,-15.5626,-17.5626
12:37:51.086,-16.0626,-18.6251
12:37:51.096,-17.0626,-18.6251
12:37:51.106,-15.5001,-16.8751
12:37:51.116,-13.9376,-15.0626
12:37:51.127,-10.875,-12.4375
12:37:51.136,-7.6875,-8.8125
12:37:51.146,-5.5625,-2.1875
12:37:51.158,-3.0625,0.6875
12:37:51.166,-1.75,5.0625
12:37:51.177,-0.375,10.125
12:37:51.187,-0.8125,12.4375
12:37:51.196,-2.375,14.0626
12:37:51.206,-2.75,14.8751
12:37:51.216,-2.9375,16.3126
12:37:51.226,-0.9375,18.0626
12:37:51.236,0.1875,19.8126
12:37:51.246,1.5625,20.1251
12:37:51.257,-0.6875,19.6251
12:37:51.266,-2.125,17.3126
12:37:51.276,-3.4375,15.5626
12:37:51.287,-5.4375,14.3126
12:37:51.296,-5.6875,13
12:37:51.306,-6,12.1875
12:37:51.318,-6.625,11
12:37:51.326,-8.3125,10.1875
12:37:51.336,-8.3125,8.75
12:37:51.346,-9,6.8125
12:37:51.356,-9.25,6.0625
12:37:51.366,-10.8125,2.375
12:37:51.377,-10.5,0.5625
12:37:51.386,-11.3125,-1.5
12:37:51.397,-13.125,-4.6875
12:37:51.406,-14.1251,-5.6875
12:37:51.416,-13.2501,-7.25
12:37:51.428,-13.0625,-8.0625
12:37:51.436,-12.25,-7.6875
12:37:51.446,-12.375,-9.125
12:37:51.456,-13.3126,-9.8125
12:37:51.466,-13.8126,-9.375
12:37:51.478,-12.875,-10.5
12:37:51.486,-12.75,-11
12:37:51.496,-11.5,-9.4375
12:37:51.512,-12.25,-10.625
12:37:51.516,-13.6251,-11.625
12:37:51.527,-12.6875,-12.6875
12:37:51.536,-12.6875,-12.5
12:37:51.546,-11.625,-11.75
12:37:51.556,-10.3125,-12.9375
12:37:51.566,-10.375,-12.5
12:37:51.578,-10.875,-14.2501
12:37:51.586,-11.875,-14.3751
12:37:51.596,-10.9375,-16.0001
12:37:51.606,-11.625,-15.9376
12:37:51.616,-10.75,-17.0626
12:37:51.626,-12.0625,-16.3126
12:37:51.636,-11.625,-18.1251
12:37:51.646,-11.4375,-17.3751
12:37:51.658,-9.4375,-16.5626
12:37:51.666,-10.125,-15.0001
12:37:51.676,-11,-15.1876
12:37:51.686,-13.6251,-17.3751
12:37:51.696,-15.1251,-18.1251
12:37:51.706,-15.5001,-19.5001
12:37:51.716,-14.8751,-18.7501
12:37:51.727,-14.8126,-19.2501
12:37:51.736,-14.8126,-18.6251
12:37:51.746,-15.9376,-20.5001
12:37:51.759,-15.4376,-19.9376
12:37:51.766,-16.2501,-21.2501
12:37:51.777,-14.8751,-20.3751
12:37:51.786,-13.5001,-20.3126
12:37:51.796,-11.4375,-17.8126
12:37:51.808,-9.5,-17.3751
12:37:51.816,-9.8125,-17.3126
12:37:51.826,-12.0625,-18.8751
12:37:51.836,-15.6876,-20.6876
12:37:51.846,-16.7501,-22.8126
12:37:51.857,-16.2501,-22.7501
12:37:51.867,-14.2501,-22.1251
12:37:51.876,-14.5626,-21.6251
12:37:51.886,-15.7501,-23.4376
12:37:51.896,-16.5626,-24.2501
12:37:51.907,-17.0626,-25.6251
12:37:51.917,-17.6251,-25.0001
12:37:51.926,-16.3126,-25.5001
12:37:51.937,-15.8751,-25.1876
12:37:51.946,-16.1876,-25.7501
12:37:51.956,-16.6876,-26.2501
12:37:51.966,-16.8126,-26.0626
12:37:51.976,-15.8126,-26.4376
12:37:51.986,-15.8126,-25.8126
12:37:51.996,-15.9376,-25.4376
12:37:52.007,-17.3126,-28.0626
12:37:52.016,-19.1251,-28.5626
12:37:52.026,-20.8126,-30.8126
12:37:52.037,-22.0001,-31.1251
12:37:52.046,-22.9376,-30.2501
12:37:52.062,-21.4376,-26.8126
12:37:52.079,-17.0626,-21.8751
12:37:52.081,-10.875,-14.7501
12:37:52.088,-6.4375,-8.9375
12:37:52.096,-3.5,-4.75
12:37:52.106,-3.8125,-3.5625
12:37:52.116,-5.0625,-2.625
12:37:52.132,-5.9375,-3.75
12:37:52.149,-4.4375,-2.6875
12:37:52.151,-2.5625,-2.25
12:37:52.158,-0.375,-1.875
12:37:52.166,1.3125,-2.25
12:37:52.176,0.5,-2.25
12:37:52.187,-0.375,-4.875
12:37:52.196,-1.3125,-5.4375
12:37:52.211,-1.8125,-7.75
12:37:52.221,-1.5,-8
12:37:52.232,0.4375,-7.6875
12:37:52.241,1.3125,-8.125
12:37:52.251,3.0625,-6.9375
12:37:52.262,3.875,-6.625
12:37:52.292,4.3125,-7.5
12:37:52.295,3.1875,-7.9375
12:37:52.297,2.5625,-8.5
12:37:52.302,2.625,-10.125
12:37:52.311,2.1875,-11.1875
12:37:52.321,2.375,-10.5
12:37:52.332,1.75,-11.5
12:37:52.341,1.0625,-11.0625
12:37:52.351,1.5,-11.1875
12:37:52.361,1.875,-9.625
12:37:52.371,4.125,-7.5
12:37:52.383,5.875,-3.625
12:37:52.391,3.75,-4.6875
12:37:52.401,-2.375,-6.875
12:37:52.411,-10.125,-12.3125
12:37:52.421,-17.1251,-16.3751
12:37:52.432,-18.3126,-18.3126
12:37:52.441,-18.5626,-17.9376
12:37:52.451,-14.8126,-15.1251
12:37:52.461,-10.1875,-12.5
12:37:52.471,-5.75,-10.25
12:37:52.481,-1.875,-6.8125
12:37:52.491,-1.125,-6.8125
12:37:52.501,-4.5,-8.5
12:37:52.511,-6.875,-9.25
12:37:52.521,-7.625,-12.5
12:37:52.531,-8.9375,-12.375
12:37:52.543,-8.5,-13.0625
12:37:52.551,-7.0625,-13.1876
12:37:52.562,-7.75,-13.6876
12:37:52.572,-7.5625,-14.0001
12:37:52.581,-7.25,-14.0626
12:37:52.591,-7.875,-14.5001
12:37:52.601,-7.8125,-14.6251
12:37:52.611,-7.875,-15.3126
12:37:52.623,-8.9375,-16.0001
12:37:52.632,-8.8125,-16.6876
12:37:52.643,-9.5625,-17.4376
12:37:52.651,-9.625,-18.1251
12:37:52.661,-9.625,-19.0001
12:37:52.671,-9.25,-18.6876
12:37:52.681,-9.625,-18.0626
12:37:52.692,-11.25,-20.4376
12:37:52.701,-11.25,-20.3126
12:37:52.711,-12.125,-21.3751
12:37:52.723,-12.875,-22.0626
12:37:52.731,-14.3751,-23.9376
12:37:52.741,-17.3126,-26.7501
12:37:52.751,-19.3751,-30.0001
12:37:52.761,-21.6876,-32.6251
12:37:52.773,-23.3126,-35.3126
12:37:52.782,-23.0001,-35.5626
12:37:52.792,-20.5001,-35.5626
12:37:52.801,-17.7501,-34.2501
12:37:52.811,-15.1876,-33.1876
12:37:52.821,-13,-32.8126
12:37:52.831,-11.375,-33.0626
12:37:52.841,-11.4375,-33.5001
12:37:52.851,-11.875,-34.2501
12:37:52.861,-13.4376,-35.8126
12:37:52.871,-14.1251,-37.7501
12:37:52.881,-13.6876,-38.3751
12:37:52.893,-12.6875,-38.9376
12:37:52.901,-12.1875,-38.3751
12:37:52.911,-10.375,-38.3126
12:37:52.921,-9,-38.1251
12:37:52.932,-7.6875,-37.5626
12:37:52.942,-7.625,-36.8126
12:37:52.951,-7.375,-37.8751
12:37:52.961,-8.3125,-38.5626
12:37:52.972,-7.875,-38.5626
12:37:52.981,-6.875,-39.0001
12:37:52.994,-6,-36.7501
12:37:53.001,-4.4375,-36.0001
12:37:53.016,-2.9375,-32.5626
12:37:53.021,-1.3125,-29.2501
12:37:53.031,0,-23.7501
12:37:53.042,1.4375,-17.7501
12:37:53.051,2.6875,-13.3751
12:37:53.062,2.5625,-7.75
12:37:53.071,2.75,-4.25
12:37:53.081,1.5625,-2.375
12:37:53.091,2.5,0
12:37:53.101,2.4375,1
12:37:53.113,2.5,2.8125
12:37:53.122,1.4375,1.125
12:37:53.131,-0.6875,0.75
12:37:53.141,-3.6875,-1.875
12:37:53.151,-5.6875,-2.25
12:37:53.161,-5.3125,-3.8125
12:37:53.171,-4.1875,-3.75
12:37:53.182,-1.6875,-1.3125
12:37:53.191,-0.5,-1.4375
12:37:53.201,-1.4375,-1
12:37:53.211,-2.125,-1.25
12:37:53.221,-1.75,-2.5625
12:37:53.231,-0.6875,-1.75
12:37:53.241,0.4375,0.0625
12:37:53.251,0.9375,-0.8125
12:37:53.262,1.125,-0.0625
12:37:53.272,0.1875,-0.3125
12:37:53.281,-0.25,-2.3125
12:37:53.292,-0.25,-3.0625
12:37:53.303,-0.0625,-2.1875
12:37:53.311,1.125,-1.8125
12:37:53.321,1.9375,-0.3125
12:37:53.334,3.0625,0.25
12:37:53.342,3.125,0.9375
12:37:53.360,4.5625,2.25
12:37:53.366,4.4375,2.9375
12:37:53.382,3.625,2.875
12:37:53.383,2.6875,2.125
12:37:53.394,1.625,1.9375
12:37:53.401,1,0.5
12:37:53.411,-0.375,0.125
12:37:53.422,-1.8125,-2.125
12:37:53.437,-4.5625,-3.9375
12:37:53.454,-6.375,-6.3125
12:37:53.455,-8.9375,-10.1875
12:37:53.462,-12.4375,-12.6875
12:37:53.471,-14.3126,-16.3751
12:37:53.482,-16.1876,-19.2501
12:37:53.491,-15.8126,-18.7501
12:37:53.501,-12.9375,-18.8126
12:37:53.512,-10.8125,-19.3751
12:37:53.523,-9.1875,-19.0626
12:37:53.533,-8.625,-17.8126
12:37:53.542,-8.25,-19.8126
12:37:53.571,-8.0625,-21.1876
12:37:53.573,-7.8125,-23.0626
12:37:53.577,-7.4375,-21.3126
12:37:53.582,-6.6875,-23.3751
12:37:53.592,-6.8125,-24.5626
12:37:53.602,-8.0625,-25.1251
12:37:53.612,-8,-26.4376
12:37:53.622,-7.625,-26.1876
12:37:53.632,-7.375,-27.1876
12:37:53.642,-6.0625,-26.5001
12:37:53.651,-5.375,-26.8126
12:37:53.662,-4.1875,-26.0626
12:37:53.673,-2.5625,-25.8126
12:37:53.683,-1.8125,-24.6876
12:37:53.691,-0.5,-24.3751
12:37:53.703,-0.8125,-24.5626
12:37:53.711,-1.875,-24.6876
12:37:53.722,-1.375,-26.0001
12:37:53.731,-3.375,-25.1251
12:37:53.741,-4,-26.5626
12:37:53.751,-5.8125,-26.6251
12:37:53.767,-6.75,-27.6251
12:37:53.772,-6.4375,-25.7501
12:37:53.782,-2.6875,-24.9376
12:37:53.792,-0.375,-21.4376
12:37:53.801,-1.9375,-21.1251
12:37:53.812,-5.25,-22.9376
12:37:53.824,-11.4375,-26.5626
12:37:53.831,-17.1876,-31.1251
12:37:53.843,-20.4376,-33.1876
12:37:53.852,-21.3751,-33.8126
12:37:53.862,-19.1876,-32.6251
12:37:53.873,-17.6876,-31.3126
12:37:53.882,-15.3126,-30.1251
12:37:53.891,-13.0625,-28.3751
12:37:53.903,-11.75,-27.0001
12:37:53.912,-10.25,-24.8126
12:37:53.923,-10.5,-24.2501
12:37:53.931,-10.3125,-22.4376
12:37:53.942,-8.625,-20.6251
12:37:53.951,-4.75,-15.3751
12:37:53.964,-1.1875,-9.625
12:37:53.971,1.0625,-2.625
12:37:53.982,2.5,0.625
12:37:53.991,6.0625,5.75
12:37:54.001,8.1875,11.3125
12:37:54.015,8.6875,12.9375
12:37:54.022,8.5,13.8126
12:37:54.031,8.1875,13.6876
12:37:54.041,7.0625,13.8751
12:37:54.052,5.9375,12.125
12:37:54.061,5.0625,12.125
12:37:54.073,4.3125,10.0625
12:37:54.084,3.75,9.5625
12:37:54.091,2.6875,7.25
12:37:54.101,1.5,6.875
12:37:54.111,1.1875,4.5
12:37:54.122,-0.4375,4.625
12:37:54.131,-1.8125,1.9375
12:37:54.141,-2.6875,1.25
12:37:54.153,-2.6875,0.5
12:37:54.162,-3.0625,-1.1875
12:37:54.171,-6.1875,-3.125
12:37:54.182,-7.4375,-6.375
12:37:54.192,-9.5625,-10.0625
12:37:54.204,-10.25,-12.1875
12:37:54.213,-7.25,-12.3125
12:37:54.222,-5.25,-11.6875
12:37:54.231,-4.125,-10.25
12:37:54.242,-5.1875,-10.6875
12:37:54.251,-6.8125,-13.9376
12:37:54.262,-8,-15.0626
12:37:54.273,-7.3125,-15.6876
12:37:54.282,-5.125,-13.2501
12:37:54.291,-2.875,-11.6875
12:37:54.302,-1.1875,-11
12:37:54.311,1.0625,-9
12:37:54.322,3.8125,-6.9375
12:37:54.332,6.125,-7
12:37:54.344,7.875,-5.5
12:37:54.352,6.1875,-6.75
12:37:54.392,4.875,-8.5
12:37:54.395,3.5625,-9.875
12:37:54.398,2.625,-11.3125
12:37:54.400,3.75,-11.5625
12:37:54.403,4.75,-11.25
12:37:54.437,5.8125,-11.5625
12:37:54.440,5.875,-11
12:37:54.442,6.125,-11.5625
12:37:54.469,5.625,-11.9375
12:37:54.470,5.4375,-12.0625
12:37:54.472,7.3125,-10.5
12:37:54.477,7.75,-8.5625
12:37:54.511,5.125,-9.625
12:37:54.513,0,-12.9375
12:37:54.515,-6.375,-17.7501
12:37:54.518,-13.3751,-20.9376
12:37:54.524,-15.9376,-24.1876
12:37:54.557,-16.1251,-25.0001
12:37:54.559,-14.1876,-24.3751
12:37:54.561,-12.75,-23.1876
12:37:54.564,-11.375,-20.7501
12:37:54.596,-10.8125,-20.6876
12:37:54.597,-8.6875,-18.6876
12:37:54.601,-6.625,-16.8751
12:37:54.629,-6.1875,-16.3126
12:37:54.630,-7,-16.6876
12:37:54.632,-8.75,-17.3751
12:37:54.637,-10.3125,-20.3751
12:37:54.703,-10.5625,-19.6251
12:37:54.704,-10.5625,-20.0626
12:37:54.706,-10.5,-20.4376
12:37:54.709,-11.375,-21.2501
12:37:54.712,-12,-20.9376
12:37:54.737,-12,-21.7501
12:37:54.739,-10.3125,-20.9376
12:37:54.739,-8.75,-20.0001
12:37:54.741,-8.6875,-20.0001
12:37:54.774,-9.25,-20.0001
12:37:54.802,-9.5,-20.5001
12:37:54.802,-10.0625,-20.6876
12:37:54.802,-10.875,-21.1876
12:37:54.802,-11.9375,-22.6251
12:37:54.806,-16.8126,-25.6876
