timestamp,Red,IR
12:35:43.318,3.3125,29.3126
12:35:43.324,2.5,29.1251
12:35:43.334,1,26.8751
12:35:43.345,0,25.3126
12:35:43.354,-1,24.6876
12:35:43.366,-2.1875,22.3126
12:35:43.374,-3.0625,21.8126
12:35:43.384,-5.125,19.5001
12:35:43.394,-5.625,18.3126
12:35:43.408,-5.5625,16.8751
12:35:43.415,-5.8125,15.5626
12:35:43.425,-6.5625,14.1251
12:35:43.437,-7.5,12.3125
12:35:43.445,-8.1875,11.25
12:35:43.454,-9.0625,9.3125
12:35:43.465,-9.25,6.9375
12:35:43.475,-10.25,5.625
12:35:43.485,-11.4375,2.875
12:35:43.494,-12.375,1.8125
12:35:43.507,-12.4375,-0.875
12:35:43.516,-12.8125,-1.6875
12:35:43.524,-13.1876,-4.0625
12:35:43.534,-13.125,-4.125
12:35:43.544,-13.7501,-5.25
12:35:43.557,-13.4376,-7.625
12:35:43.564,-13.5626,-8.6875
12:35:43.574,-14.6251,-11.6875
12:35:43.584,-16.1876,-11.75
12:35:43.598,-16.6876,-14.2501
12:35:43.630,-17.6876,-15.1251
12:35:43.631,-18.5001,-19.0001
12:35:43.633,-20.3751,-19.6876
12:35:43.641,-21.1251,-22.5626
12:35:43.670,-22.8126,-24.6251
12:35:43.670,-24.5001,-26.8751
12:35:43.673,-25.2501,-29.2501
12:35:43.679,-27.9376,-31.7501
12:35:43.714,-29.5001,-34.6251
12:35:43.716,-31.1876,-36.4376
12:35:43.718,-32.5626,-39.1252
12:35:43.720,-33.1876,-39.9377
12:35:43.758,-34.8126,-41.0627
12:35:43.788,-35.1251,-43.5002
12:35:43.803,-33.6876,-43.3752
12:35:43.805,-35.0626,-44.0002
12:35:43.805,-35.5001,-46.0627
12:35:43.805,-35.7501,-45.8752
12:35:43.819,-36.9376,-49.1252
12:35:43.821,-38.3751,-50.3127
12:35:43.826,-38.0001,-51.1877
12:35:43.829,-38.2501,-52.6877
12:35:43.839,-39.5002,-53.4377
12:35:43.850,-39.7502,-53.8752
12:35:43.860,-39.0001,-55.1252
12:35:43.871,-39.1252,-54.1252
12:35:43.879,-36.0001,-51.2502
12:35:43.889,-31.6876,-46.0627
12:35:43.907,-26.4376,-38.9376
12:35:43.909,-20.8751,-31.2501
12:35:43.924,-13.9376,-19.7501
12:35:43.939,-7.5625,-10.625
12:35:43.940,-1.875,-2.125
12:35:43.951,1.875,6.4375
12:35:43.960,9.625,20.2501
12:35:43.969,11,25.3126
12:35:43.980,13.3751,29.6876
12:35:43.990,14.5001,31.8751
12:35:43.999,15.8126,35.1876
12:35:44.009,16.6251,36.5626
12:35:44.019,16.1251,38.3126
12:35:44.029,17.5001,38.9376
12:35:44.039,17.4376,40.1877
12:35:44.051,16.6251,42.3127
12:35:44.059,17.8126,42.2502
12:35:44.069,18.1251,44.1877
12:35:44.079,18.6251,46.1877
12:35:44.091,19.3126,46.6252
12:35:44.099,19.5001,47.6877
12:35:44.109,20.8126,48.8752
12:35:44.120,20.5001,47.8752
12:35:44.130,19.1251,46.4377
12:35:44.140,17.6876,45.9377
12:35:44.149,16.7501,43.7502
12:35:44.163,15.0001,41.6252
12:35:44.170,14.7501,40.3127
12:35:44.179,14.0626,39.6252
12:35:44.189,13.6251,38.5001
12:35:44.201,12.875,37.3126
12:35:44.210,12.5625,36.0626
12:35:44.221,11.375,35.1251
12:35:44.230,10.9375,34.4376
12:35:44.241,10.25,32.8126
12:35:44.251,9.5625,32.6251
12:35:44.259,9.875,30.5001
12:35:44.269,8.75,31.0626
12:35:44.280,7.875,28.0626
12:35:44.289,6,25.9376
12:35:44.300,5.0625,24.5001
12:35:44.309,3.25,22.3126
12:35:44.321,1.9375,20.3751
12:35:44.329,0.6875,17.1251
12:35:44.342,-0.875,15.1876
12:35:44.350,-2.8125,12.9375
12:35:44.359,-4.1875,9.875
12:35:44.369,-5.25,8.1875
12:35:44.402,-6.875,4.9375
12:35:44.405,-7.5,3.3125
12:35:44.406,-8.9375,0.625
12:35:44.414,-10.5625,-1.8125
12:35:44.441,-10.9375,-3.75
12:35:44.443,-12.375,-5.9375
12:35:44.444,-13.5001,-8.5
12:35:44.450,-14.8751,-9.8125
12:35:44.477,-15.8751,-12.4375
12:35:44.482,-16.7501,-13.8126
12:35:44.484,-17.8126,-16.8751
12:35:44.490,-18.3751,-18.8126
12:35:44.513,-18.1251,-19.8751
12:35:44.518,-19.1251,-21.1876
12:35:44.523,-18.6876,-22.3126
12:35:44.536,-20.0626,-23.8126
12:35:44.539,-19.6876,-24.9376
12:35:44.565,-20.4376,-25.8126
12:35:44.567,-20.6876,-27.2501
12:35:44.569,-20.1876,-28.8126
12:35:44.580,-21.0001,-28.3126
12:35:44.593,-21.1876,-30.9376
12:35:44.601,-21.3126,-32.0626
12:35:44.610,-22.4376,-33.1876
12:35:44.619,-22.9376,-34.8751
12:35:44.629,-23.6251,-35.6876
12:35:44.639,-23.8126,-37.4376
12:35:44.649,-24.5001,-38.7501
12:35:44.662,-25.9376,-41.3127
12:35:44.670,-26.1251,-40.7502
12:35:44.681,-26.6876,-42.9377
12:35:44.690,-27.2501,-42.6252
12:35:44.699,-27.0626,-44.3127
12:35:44.709,-27.7501,-44.5627
12:35:44.720,-27.6251,-47.3752
12:35:44.730,-28.1251,-47.3127
12:35:44.740,-27.8126,-48.7502
12:35:44.749,-27.6876,-48.1252
12:35:44.759,-25.8126,-46.3752
12:35:44.771,-22.0001,-40.6877
12:35:44.779,-16.8126,-35.1251
12:35:44.789,-11.5625,-26.7501
12:35:44.799,-5.375,-16.7501
12:35:44.809,0.875,-7.8125
12:35:44.820,6.875,2.375
12:35:44.829,11.5,10.75
12:35:44.841,15.8751,19.8126
12:35:44.849,19.8126,26.1251
12:35:44.861,21.8126,31.4376
12:35:44.869,23.8126,35.3126
12:35:44.879,24.6251,38.7501
12:35:44.889,25.1251,40.6877
12:35:44.899,24.6876,42.3127
12:35:44.912,25.5001,43.3127
12:35:44.919,25.1251,44.2502
12:35:44.930,26.1251,45.8127
12:35:44.939,25.9376,47.6252
12:35:44.950,26.4376,48.4377
12:35:44.959,26.8751,50.0627
12:35:44.969,27.0626,50.6252
12:35:45.001,26.5001,51.2502
12:35:45.006,25.5626,53.1877
12:35:45.010,25.8126,51.8752
12:35:45.012,23.9376,52.1252
12:35:45.020,22.8126,49.8752
12:35:45.029,20.5626,46.5627
12:35:45.040,19.6876,44.9377
12:35:45.049,16.9376,43.0627
12:35:45.060,16.2501,40.5627
12:35:45.069,14.1876,39.1251
12:35:45.085,14.4376,37.0001
12:35:45.104,12.3125,36.1251
12:35:45.106,12,34.1251
12:35:45.122,10.625,32.9376
12:35:45.159,10.625,31.3751
12:35:45.159,9.0625,30.9376
12:35:45.185,8.4375,29.3751
12:35:45.185,7,28.0001
12:35:45.187,5.5625,26.8751
12:35:45.191,5.8125,24.9376
12:35:45.217,4.5625,23.8126
12:35:45.218,3.3125,22.5626
12:35:45.295,2.9375,19.4376
12:35:45.295,3.25,19.0626
12:35:45.338,1.8125,16.6876
12:35:45.338,0.375,14.4376
12:35:45.338,-0.625,12.3125
12:35:45.341,-2.625,10.5625
12:35:45.343,-4.1875,7.375
12:35:45.350,-5.5,5.625
12:35:45.350,-7.1875,1.6875
12:35:45.350,-8,-0.4375
12:35:45.354,-10.3125,-2.625
12:35:45.365,-10.75,-5.3125
12:35:45.375,-13.5001,-10.375
12:35:45.384,-14.6876,-12.1875
12:35:45.395,-15.5001,-13.9376
12:35:45.405,-17.0626,-15.9376
12:35:45.414,-17.7501,-17.4376
12:35:45.425,-17.9376,-20.0001
12:35:45.435,-18.7501,-21.7501
12:35:45.446,-19.7501,-22.1876
12:35:45.454,-19.6251,-24.0001
12:35:45.464,-20.3751,-26.7501
12:35:45.474,-21.5626,-26.9376
12:35:45.484,-21.7501,-29.1251
12:35:45.496,-21.8126,-30.3126
12:35:45.505,-22.8751,-31.5626
12:35:45.516,-27.6251,-41.7502
12:35:45.524,-27.6251,-42.8127
12:35:45.536,-28.5626,-44.0627
12:35:45.544,-28.5626,-45.3752
12:35:45.556,-29.6251,-46.8752
12:35:45.564,-30.2501,-46.3127
12:35:45.574,-29.7501,-48.5002
12:35:45.584,-30.6876,-47.8752
12:35:45.596,-30.6251,-50.6877
12:35:45.607,-31.0001,-49.3127
12:35:45.616,-30.8751,-51.9377
12:35:45.624,-31.3126,-51.7502
12:35:45.634,-31.5001,-54.0627
12:35:45.646,-31.8751,-53.6252
12:35:45.655,-31.4376,-54.8752
12:35:45.664,-31.5001,-55.5002
12:35:45.675,-29.1876,-53.5627
12:35:45.685,-26.1251,-49.8127
12:35:45.696,-20.7501,-42.3752
12:35:45.704,-14.6876,-34.3751
12:35:45.714,-8.625,-23.8751
12:35:45.725,-1.4375,-14.3751
12:35:45.734,6,-2.5625
12:35:45.745,12.125,7.625
12:35:45.755,17.6251,17.3126
12:35:45.764,21.6251,24.3126
12:35:45.775,25.2501,31.6876
12:35:45.785,27.1251,35.5626
12:35:45.796,28.7501,40.1877
12:35:45.804,30.1251,42.9377
12:35:45.815,30.1251,44.8127
12:35:45.825,30.6876,46.3752
12:35:45.834,30.5001,47.1252
12:35:45.846,30.6876,48.5627
12:35:45.854,31.5626,49.9377
12:35:45.881,32.1876,51.2502
12:35:45.883,31.8751,52.1252
12:35:45.885,32.1876,53.1877
12:35:45.920,32.1251,53.6877
12:35:45.923,31.7501,55.8752
12:35:45.925,32.6876,55.2502
12:35:45.927,31.7501,54.7502
12:35:45.964,30.0001,54.0002
12:35:45.966,29.4376,51.8752
12:35:45.971,26.1251,49.9377
12:35:45.975,24.8126,46.2502
12:35:46.003,22.4376,44.2502
12:35:46.005,21.3126,41.1252
12:35:46.006,19.6876,39.1877
12:35:46.030,19.0001,37.6876
12:35:46.033,17.9376,36.1876
12:35:46.036,17.0001,34.6876
12:35:46.042,16.1876,33.6251
12:35:46.045,15.3126,31.8126
12:35:46.054,13.8126,31.6251
12:35:46.071,13.9376,29.5626
12:35:46.074,11.5625,28.9376
12:35:46.086,11.5,26.9376
12:35:46.095,9.9375,25.0001
12:35:46.105,8.875,22.8751
12:35:46.114,6.25,21.7501
12:35:46.125,5.5,18.5001
12:35:46.135,4,17.8751
12:35:46.145,2.6875,14.8751
12:35:46.156,1.5625,12
12:35:46.165,0.375,9.9375
12:35:46.174,-1.1875,7.4375
12:35:46.186,-2.5625,5.3125
12:35:46.194,-3.875,3.4375
12:35:46.206,-6.5625,0.5625
12:35:46.215,-7.75,-2.1875
12:35:46.225,-10.125,-5.0625
12:35:46.235,-10.5,-7.375
12:35:46.244,-12.875,-9.875
12:35:46.255,-13.6876,-12.1875
12:35:46.282,-15.7501,-14.2501
12:35:46.285,-16.6876,-17.2501
12:35:46.289,-18.5001,-19.7501
12:35:46.296,-20.1876,-21.0001
12:35:46.305,-21.5001,-22.3751
12:35:46.315,-21.7501,-24.5001
12:35:46.327,-22.0001,-26.1876
12:35:46.335,-23.0001,-26.9376
12:35:46.346,-23.0001,-28.2501
12:35:46.356,-23.0001,-29.1876
12:35:46.365,-23.0626,-31.4376
12:35:46.374,-23.1251,-30.8751
12:35:46.385,-23.0626,-32.4376
12:35:46.404,-22.5626,-32.2501
12:35:46.409,-22.6876,-33.6876
12:35:46.418,-22.3126,-32.8751
12:35:46.425,-22.6876,-34.6251
12:35:46.446,-22.0001,-34.8126
12:35:46.449,-22.5626,-35.3126
12:35:46.458,-22.6876,-36.8751
12:35:46.465,-23.4376,-37.8126
12:35:46.475,-23.9376,-39.0627
12:35:46.485,-24.0001,-39.9377
12:35:46.496,-24.1251,-40.3127
12:35:46.506,-24.0001,-42.0002
12:35:46.517,-24.3126,-42.2502
12:35:46.527,-25.2501,-43.5002
12:35:46.535,-25.3751,-45.0627
12:35:46.544,-25.2501,-45.2502
12:35:46.556,-25.6876,-47.1877
12:35:46.564,-26.4376,-47.8752
12:35:46.576,-25.4376,-47.4377
12:35:46.584,-23.5001,-44.4377
12:35:46.613,-19.5001,-38.8751
12:35:46.650,-14.1251,-32.0626
12:35:46.678,-7.625,-21.7501
12:35:46.704,-1.4375,-13.2501
12:35:46.706,4.375,-1.8125
12:35:46.708,10.0625,6.75
12:35:46.708,15.3751,17.6876
12:35:46.716,18.9376,23.9376
12:35:46.745,21.5626,31.6251
12:35:46.747,24.0626,35.8126
12:35:46.752,24.8751,39.0626
12:35:46.758,25.9376,41.4377
12:35:46.776,25.5626,43.8752
12:35:46.780,26.1251,45.0627
12:35:46.786,24.8751,45.9377
12:35:46.796,25.0626,46.0002
12:35:46.805,23.8126,46.1877
12:35:46.822,23.7501,47.6252
12:35:46.825,24.0001,46.9377
12:35:46.836,22.6876,48.0627
12:35:46.845,22.8751,48.3752
12:35:46.855,22.5001,47.8127
12:35:46.866,21.8126,47.5002
12:35:46.875,13.3751,39.7502
12:35:46.885,11.8125,36.5626
12:35:46.894,10.125,33.8751
12:35:46.906,8.9375,32.6876
12:35:46.915,7.9375,31.3751
12:35:46.925,7.1875,30.6251
12:35:46.936,6.6875,29.4376
12:35:46.944,6.0625,29.4376
12:35:46.955,5.875,28.3126
12:35:46.965,6.125,27.1876
12:35:46.977,4.8125,26.3751
12:35:46.986,3.875,24.6251
12:35:46.996,4.875,22.7501
12:35:47.004,6.0625,25.5001
12:35:47.017,5.75,22.4376
12:35:47.026,2.5625,19.8751
12:35:47.035,-1.5625,15.4376
12:35:47.045,-4.1875,10.25
12:35:47.055,-6.375,7.875
12:35:47.064,-8.5,4.5625
12:35:47.075,-10.5,1.75
12:35:47.086,-11.9375,-0.5625
12:35:47.096,-13.7501,-3.625
12:35:47.105,-14.6876,-5.625
12:35:47.115,-15.2501,-8
12:35:47.125,-16.5001,-10
12:35:47.136,-16.6251,-12.1875
12:35:47.144,-17.1876,-12.875
12:35:47.156,-16.2501,-14.1876
12:35:47.164,-16.1876,-14.6251
12:35:47.175,-16.1251,-16.6876
12:35:47.184,-15.6876,-15.5001
12:35:47.197,-13.8751,-17.0626
12:35:47.206,-14.1251,-17.0626
12:35:47.215,-12.8125,-17.8751
12:35:47.226,-12.875,-19.5626
12:35:47.236,-13.6251,-19.6251
12:35:47.245,-14.0626,-21.8751
12:35:47.257,-15.6251,-23.1251
12:35:47.265,-17.0626,-26.2501
12:35:47.276,-19.6251,-28.0626
12:35:47.284,-21.1251,-31.3126
12:35:47.296,-24.2501,-34.6876
12:35:47.307,-27.0626,-38.5626
12:35:47.316,-29.9376,-40.6252
12:35:47.348,-32.7501,-44.4377
12:35:47.349,-35.0626,-46.3127
12:35:47.353,-36.2501,-49.8127
12:35:47.355,-37.7501,-50.0627
12:35:47.394,-38.2501,-52.0002
12:35:47.395,-39.0001,-52.3127
12:35:47.397,-37.9376,-53.2502
12:35:47.399,-37.1251,-51.8127
12:35:47.407,-35.3751,-51.8752
12:35:47.438,-34.0626,-50.4377
12:35:47.440,-32.5001,-51.3752
12:35:47.442,-31.8751,-50.0627
12:35:47.446,-30.1251,-50.7502
12:35:47.482,-30.4376,-49.6252
12:35:47.484,-29.8126,-51.1877
12:35:47.487,-29.6876,-52.1252
12:35:47.489,-29.4376,-53.5002
12:35:47.497,-30.0626,-52.9377
12:35:47.510,-28.4376,-50.7502
12:35:47.515,-24.7501,-45.9377
12:35:47.526,-19.7501,-39.6252
12:35:47.537,-15.8126,-30.8126
12:35:47.562,-10.375,-22.5626
12:35:47.565,-4.5625,-10.625
12:35:47.567,1.0625,-0.4375
12:35:47.581,6,9.0625
12:35:47.584,11.4375,19.2501
12:35:47.597,14.8126,26.3751
12:35:47.605,18.1876,32.8751
12:35:47.615,19.8751,38.3126
12:35:47.626,21.8126,41.1877
12:35:47.636,24.2501,45.3752
12:35:47.646,24.7501,47.6252
12:35:47.655,26.6251,50.2502
12:35:47.665,28.7501,52.8127
12:35:47.675,28.7501,55.1877
12:35:47.685,30.1876,56.2502
12:35:47.695,31.7501,57.9377
12:35:47.706,31.0001,59.8752
12:35:47.715,30.5626,58.5627
12:35:47.733,29.3751,59.2502
12:35:47.740,29.0626,58.8127
12:35:47.755,27.7501,58.0002
12:35:47.761,25.1876,56.3752
12:35:47.770,23.3751,52.6877
12:35:47.780,20.1876,49.5627
12:35:47.790,17.6876,46.5627
12:35:47.801,15.8751,43.8127
12:35:47.811,14.3126,41.8127
12:35:47.820,12.75,38.6251
12:35:47.830,10.875,37.0001
12:35:47.840,10.8125,35.4376
12:35:47.850,10.6875,35.0626
12:35:47.861,10.0625,34.0626
12:35:47.870,9.875,32.9376
12:35:47.880,9.8125,32.6876
12:35:47.891,8.875,30.5626
12:35:47.901,7.5,29.8126
12:35:47.911,7.3125,27.5626
12:35:47.920,5.625,25.5001
12:35:47.931,4.875,24.5626
12:35:47.941,2.875,22.3751
12:35:47.963,2.0625,20.3126
12:35:47.979,0.5625,17.0626
12:35:47.981,-1.875,14.6876
12:35:47.983,-3.875,11.8125
12:35:47.991,-5.75,7.9375
12:35:48.000,-7.75,4.0625
12:35:48.010,-9.6875,2.125
12:35:48.020,-10.9375,-0.25
12:35:48.053,-12.25,-3.8125
12:35:48.056,-14.4376,-4.625
12:35:48.059,-13.9376,-7.5625
12:35:48.067,-15.5626,-10.625
12:35:48.100,-16.2501,-11.5
12:35:48.102,-16.9376,-14.0626
12:35:48.104,-19.0001,-16.6876
12:35:48.107,-20.4376,-18.3751
12:35:48.146,-22.5626,-21.0001
12:35:48.148,-23.1251,-23.0001
12:35:48.150,-24.5626,-26.0001
12:35:48.179,-25.8751,-28.2501
12:35:48.179,-27.4376,-29.9376
12:35:48.181,-28.1251,-32.2501
12:35:48.181,-29.0001,-34.1251
12:35:48.189,-29.5001,-35.0001
12:35:48.200,-30.4376,-36.5626
12:35:48.206,-30.8126,-38.3751
12:35:48.215,-30.7501,-39.1877
12:35:48.225,-30.0626,-40.6252
12:35:48.235,-30.4376,-41.1252
12:35:48.245,-31.2501,-43.1877
12:35:48.255,-32.1876,-44.0627
12:35:48.266,-32.5626,-45.4377
12:35:48.275,-32.9376,-47.0627
12:35:48.286,-33.3751,-48.3127
12:35:48.295,-34.5626,-49.1252
12:35:48.306,-35.1876,-51.1252
12:35:48.316,-36.2501,-50.6877
12:35:48.326,-36.0626,-53.2502
12:35:48.337,-36.6876,-52.6252
12:35:48.348,-37.0626,-55.0627
12:35:48.356,-36.6876,-55.6877
12:35:48.366,-37.2501,-56.8752
12:35:48.375,-36.8751,-57.9377
12:35:48.385,-38.3126,-58.9377
12:35:48.395,-38.0626,-60.2502
12:35:48.406,-38.6251,-60.7502
12:35:48.416,-38.3126,-61.3752
12:35:48.426,-35.5626,-57.6877
12:35:48.436,-31.6251,-52.9377
12:35:48.446,-25.6876,-43.7502
12:35:48.456,-19.2501,-35.1876
12:35:48.466,-11.3125,-22.8126
12:35:48.476,-5,-9.1875
12:35:48.486,2.9375,1.375
12:35:48.495,8,13.125
12:35:48.506,13.125,21.2501
12:35:48.515,17.2501,29.4376
12:35:48.526,18.0001,35.7501
12:35:48.535,20.6876,39.8127
12:35:48.546,21.0001,42.8752
12:35:48.555,21.6876,44.8127
12:35:48.565,22.2501,47.4377
12:35:48.576,21.6251,48.4377
12:35:48.585,21.5001,48.8752
12:35:48.595,21.3126,50.0002
12:35:48.605,22.1251,49.5627
12:35:48.615,21.6251,51.3127
12:35:48.626,22.3126,51.3752
12:35:48.636,22.1251,52.4377
12:35:48.647,21.5001,52.6877
12:35:48.655,21.5626,53.0002
12:35:48.666,20.2501,52.5002
12:35:48.675,19.5626,51.3752
12:35:48.685,17.5626,49.5627
12:35:48.696,14.8126,46.5002
12:35:48.707,12.4375,43.1252
12:35:48.719,11.4375,40.5002
12:35:48.725,8.9375,37.2501
12:35:48.754,8.3125,35.3751
12:35:48.755,7.625,33.3751
12:35:48.758,7.0625,32.3751
12:35:48.767,6,30.1876
12:35:48.796,4.625,29.4376
12:35:48.798,4,27.6876
12:35:48.800,3.375,26.5626
12:35:48.809,2.6875,24.5001
12:35:48.845,1.1875,24.1251
12:35:48.845,0.5625,22.1876
12:35:48.848,-0.9375,21.1876
12:35:48.855,-2.125,19.1876
12:35:48.858,-2.5,16.6251
12:35:48.893,-3.875,14.3126
12:35:48.894,-5.75,13.2501
12:35:48.897,-6,10.375
12:35:48.901,-8.3125,7.125
12:35:48.907,-10,4.375
12:35:48.920,-11.5,3.0625
12:35:48.925,-12.5625,-0.4375
12:35:48.935,-14.3126,-2.75
12:35:48.945,-15.8126,-4.875
12:35:48.955,-16.8126,-6.75
12:35:48.965,-17.8751,-10
12:35:48.976,-19.0626,-11.9375
12:35:48.985,-20.5626,-13.4376
12:35:48.995,-21.1876,-16.1876
12:35:49.005,-21.8751,-18.7501
12:35:49.015,-22.3126,-20.5626
12:35:49.034,-23.4376,-22.5001
12:35:49.041,-24.6251,-24.3126
12:35:49.056,-24.9376,-26.1876
12:35:49.058,-26.3126,-28.1251
12:35:49.067,-27.5001,-28.6251
12:35:49.075,-28.2501,-31.6251
12:35:49.093,-29.3126,-33.0626
12:35:49.095,-29.1876,-35.3126
12:35:49.105,-29.1876,-35.0001
12:35:49.116,-29.6251,-36.7501
12:35:49.125,-30.0626,-36.5001
12:35:49.136,-29.1251,-38.1251
12:35:49.146,-30.1876,-38.8126
12:35:49.155,-30.6876,-41.0627
12:35:49.165,-31.0001,-42.3127
12:35:49.175,-31.5001,-43.0627
12:35:49.186,-32.6876,-45.5002
12:35:49.196,-33.2501,-46.6252
12:35:49.205,-34.0626,-48.2502
12:35:49.218,-34.8126,-49.3752
12:35:49.225,-34.7501,-50.5627
12:35:49.235,-35.4376,-51.3752
12:35:49.258,-35.8126,-51.6877
12:35:49.259,-35.8126,-53.1877
12:35:49.274,-35.6876,-53.3752
12:35:49.280,-35.3751,-54.8127
12:35:49.285,-36.1876,-55.0627
12:35:49.296,-36.6251,-55.1252
12:35:49.306,-36.6251,-57.0627
12:35:49.316,-38.2501,-57.1252
12:35:49.325,-38.6876,-60.1877
12:35:49.336,-39.0626,-59.5627
12:35:49.347,-37.6251,-61.3127
12:35:49.356,-37.0001,-57.8127
12:35:49.365,-32.0626,-54.5627
12:35:49.375,-28.0001,-46.2502
12:35:49.386,-21.0626,-38.0626
12:35:49.396,-13.9376,-26.8126
12:35:49.405,-7.125,-15.3751
12:35:49.415,0.5625,-3.25
12:35:49.425,7.0625,8.9375
12:35:49.436,12.375,20.3751
12:35:49.446,18.1251,29.6251
12:35:49.455,21.3751,38.0001
12:35:49.488,24.3126,43.1877
12:35:49.490,25.5001,47.8752
12:35:49.493,27.1251,51.4377
12:35:49.497,27.1876,52.3127
12:35:49.523,26.9376,54.5627
12:35:49.525,25.7501,53.5002
12:35:49.528,25.6876,54.7502
12:35:49.559,25.1251,55.2502
12:35:49.561,24.8126,54.2502
12:35:49.563,25.0626,54.9377
12:35:49.568,24.8751,55.5002
12:35:49.591,23.8751,56.0002
12:35:49.594,23.6251,55.7502
12:35:49.596,24.3751,55.8752
12:35:49.626,24.1251,55.4377
12:35:49.628,21.5626,53.3127
12:35:49.630,20.4376,51.5002
12:35:49.635,17.8751,48.6252
12:35:49.653,15.2501,46.1252
12:35:49.655,14.8126,42.6252
12:35:49.666,13.3126,40.8752
12:35:49.675,12.0625,38.3126
12:35:49.686,10.9375,36.3126
12:35:49.695,10.625,34.4376
12:35:49.705,9.3125,33.0001
12:35:49.716,8.8125,32.0001
12:35:49.726,7.5,30.9376
12:35:49.736,7.4375,29.1876
12:35:49.746,6.5,28.4376
12:35:49.755,5.375,27.3126
12:35:49.765,4.6875,25.2501
12:35:49.775,3.5625,24.1876
12:35:49.785,3.4375,22.8126
12:35:49.795,2.3125,19.5001
12:35:49.805,1.5625,18.0001
12:35:49.816,0.6875,16.3126
12:35:49.825,-1.8125,13.5001
12:35:49.835,-2.875,11.625
12:35:49.845,-4.625,7.75
12:35:49.855,-6.625,5.3125
12:35:49.865,-7.6875,3.4375
12:35:49.875,-9.0625,-0.25
12:35:49.885,-9.4375,-2.25
12:35:49.897,-10.6875,-4.5625
12:35:49.906,-12.75,-7.5
12:35:49.915,-12.9375,-9.25
12:35:49.926,-15.0001,-11.125
12:35:49.935,-15.9376,-14.5001
12:35:49.945,-17.0001,-17.2501
12:35:49.955,-19.7501,-19.2501
12:35:49.966,-20.1876,-21.7501
12:35:49.976,-21.8751,-23.9376
12:35:49.986,-22.4376,-24.8126
12:35:49.995,-23.1876,-28.0626
12:35:50.005,-23.3126,-28.3126
12:35:50.015,-24.3751,-31.3126
12:35:50.029,-25.3126,-31.6876
12:35:50.035,-25.9376,-34.5001
12:35:50.045,-26.3126,-35.4376
12:35:50.055,-27.0001,-37.0626
12:35:50.065,-27.8126,-38.5626
12:35:50.076,-28.8751,-38.5626
12:35:50.085,-28.5001,-41.4377
12:35:50.097,-30.6251,-41.6877
12:35:50.124,-31.0001,-44.1252
12:35:50.125,-31.6876,-44.6877
12:35:50.128,-32.3126,-46.9377
12:35:50.136,-32.5626,-47.8127
12:35:50.145,-34.1876,-49.5002
12:35:50.155,-33.9376,-50.6252
12:35:50.166,-34.2501,-50.6877
12:35:50.176,-34.8126,-52.6877
12:35:50.185,-34.4376,-53.1252
12:35:50.211,-35.4376,-53.4377
12:35:50.214,-35.6876,-55.6252
12:35:50.216,-36.8126,-55.9377
12:35:50.252,-36.5626,-58.1877
12:35:50.253,-37.2501,-57.8752
12:35:50.255,-36.9376,-60.3752
12:35:50.259,-35.8126,-58.9377
12:35:50.265,-35.0626,-57.0002
12:35:50.297,-30.1876,-51.7502
12:35:50.299,-25.5626,-43.4377
12:35:50.301,-19.1251,-34.3751
12:35:50.309,-11.8125,-22.5001
12:35:50.336,-4.6875,-9.875
12:35:50.339,3.8125,2.9375
12:35:50.363,10.125,16.0626
12:35:50.366,16.0626,26.7501
12:35:50.368,21.0001,35.7501
12:35:50.375,24.2501,42.8127
12:35:50.376,26.0626,48.1252
12:35:50.386,27.6876,51.5627
12:35:50.395,27.6876,54.1877
12:35:50.405,28.5001,56.1252
12:35:50.417,29.1251,56.1252
12:35:50.426,29.0626,57.8752
12:35:50.436,27.9376,58.2502
12:35:50.445,28.6251,58.3752
12:35:50.456,27.8751,57.1252
12:35:50.466,26.7501,58.8127
12:35:50.475,26.3126,58.6252
12:35:50.485,25.7501,58.1252
12:35:50.496,26.1251,57.8127
12:35:50.505,25.9376,57.3127
12:35:50.515,25.3126,56.3127
12:35:50.526,23.9376,54.7502
12:35:50.536,21.5001,50.6877
12:35:50.553,19.9376,48.1877
12:35:50.556,17.5626,44.6252
12:35:50.570,15.3751,41.8752
12:35:50.575,14.6876,39.9377
12:35:50.585,13.1876,37.5626
12:35:50.595,12.375,36.0626
12:35:50.605,12.5,33.5001
12:35:50.616,11.375,32.3126
12:35:50.625,10.8125,31.8126
12:35:50.636,10.625,29.2501
12:35:50.646,9.9375,28.5001
12:35:50.655,8.8125,26.6251
12:35:50.665,7.625,24.8751
12:35:50.676,7.25,23.4376
12:35:50.685,5.6875,22.0001
12:35:50.696,4.4375,20.3751
12:35:50.706,4.1875,18.7501
12:35:50.715,3.125,15.6876
12:35:50.725,2.5,13.5001
12:35:50.735,1.75,11.75
12:35:50.746,-0.4375,8.75
12:35:50.756,-2.375,5.9375
12:35:50.765,-3.875,3.125
12:35:50.779,-6.0625,1
12:35:50.785,-6.75,-2.75
12:35:50.795,-8.9375,-5.5
12:35:50.805,-10.25,-7.5625
12:35:50.815,-11.3125,-11.3125
12:35:50.826,-12.5,-13.9376
12:35:50.835,-12.75,-14.8751
12:35:50.845,-14.4376,-17.5001
12:35:50.855,-16.1876,-18.9376
12:35:50.865,-16.5626,-22.0626
12:35:50.875,-18.0626,-23.0001
12:35:50.885,-18.6251,-25.5626
12:35:50.896,-19.5001,-27.2501
12:35:50.906,-19.5626,-29.1876
12:35:50.939,-20.9376,-31.1251
12:35:50.940,-21.4376,-31.7501
12:35:50.942,-21.5626,-33.4376
12:35:50.970,-21.9376,-34.5626
12:35:50.970,-23.6876,-36.0001
12:35:50.973,-23.5001,-37.8126
12:35:50.979,-24.8126,-39.6877
12:35:50.996,-24.8751,-40.3752
12:35:50.998,-26.2501,-41.7502
12:35:51.024,-25.7501,-43.4377
12:35:51.027,-27.3126,-43.6252
12:35:51.029,-27.6251,-46.5002
12:35:51.036,-27.3126,-47.3752
12:35:51.050,-29.3751,-48.8127
12:35:51.055,-29.2501,-49.8752
12:35:51.085,-29.9376,-50.4377
12:35:51.086,-29.7501,-52.1252
12:35:51.088,-30.1876,-52.1252
12:35:51.096,-29.8751,-53.3127
12:35:51.105,-31.1876,-53.6877
12:35:51.116,-30.8751,-54.6877
12:35:51.125,-31.8126,-56.1877
12:35:51.135,-32.2501,-57.4377
12:35:51.145,-33.5626,-57.7502
12:35:51.155,-33.5001,-60.0627
12:35:51.165,-33.6251,-61.1877
12:35:51.175,-33.3126,-60.8752
12:35:51.185,-31.2501,-58.9377
12:35:51.195,-27.7501,-55.0627
12:35:51.206,-22.9376,-45.5002
12:35:51.215,-15.9376,-37.1251
12:35:51.225,-8.375,-25.3126
12:35:51.235,-0.4375,-12.25
12:35:51.247,8.125,0.75
12:35:51.256,15.0626,15.1251
12:35:51.266,22.1876,25.5001
12:35:51.276,27.5001,36.7501
12:35:51.287,32.5001,44.6877
12:35:51.296,35.1251,50.7502
12:35:51.305,36.6876,55.1252
12:35:51.316,37.1251,57.7502
12:35:51.326,37.6876,60.5002
12:35:51.335,37.1251,60.1252
12:35:51.345,36.5626,62.0002
12:35:51.356,36.6251,60.9377
12:35:51.367,36.2501,62.5002
12:35:51.376,37.0626,61.6252
12:35:51.402,37.0001,63.1877
12:35:51.404,37.0626,62.5002
12:35:51.407,36.3751,62.0627
12:35:51.416,36.4376,63.3127
12:35:51.425,37.4376,63.8127
12:35:51.436,36.5001,63.2502
12:35:51.445,35.1251,62.1252
12:35:51.456,33.0626,59.0002
12:35:51.466,31.0626,56.0627
12:35:51.476,29.8126,53.2502
12:35:51.485,27.7501,50.9377
12:35:51.497,26.4376,48.1877
12:35:51.506,25.4376,45.4377
12:35:51.516,23.8126,43.8127
12:35:51.529,23.5626,41.1877
12:35:51.536,22.1251,40.1252
12:35:51.546,22.7501,38.7501
12:35:51.556,21.6876,38.6251
12:35:51.565,21.4376,36.9376
12:35:51.575,20.9376,35.5626
12:35:51.585,20.5626,34.6876
12:35:51.596,20.0626,32.5626
12:35:51.605,19.2501,31.2501
12:35:51.615,18.4376,28.7501
12:35:51.633,17.4376,27.7501
12:35:51.649,15.8126,24.4376
12:35:51.651,14.9376,22.6876
12:35:51.656,14.6876,20.7501
12:35:51.688,12.0625,18.1876
12:35:51.689,11.625,15.5001
12:35:51.694,10.0625,13.0625
12:35:51.700,8.1875,10.25
12:35:51.725,7.5625,8.125
12:35:51.727,6.625,4.875
12:35:51.729,5.6875,2.25
12:35:51.736,3.375,-1.4375
12:35:51.747,2.3125,-3.625
12:35:51.781,1.75,-6.625
12:35:51.785,0.375,-8
12:35:51.785,-0.625,-10.6875
12:35:51.793,-1.125,-12.75
12:35:51.820,-2.0625,-14.0001
12:35:51.821,-3.5625,-15.8126
12:35:51.824,-5.4375,-18.7501
12:35:51.831,-6.0625,-19.3751
12:35:51.849,-6.6875,-21.8751
12:35:51.851,-7.625,-22.6876
12:35:51.866,-9.3125,-24.4376
12:35:51.871,-9.375,-26.7501
12:35:51.884,-10.9375,-28.0626
12:35:51.891,-11.375,-29.5001
12:35:51.907,-12.8125,-31.8751
12:35:51.910,-12.5625,-33.0626
12:35:51.922,-14.1251,-33.6876
12:35:51.930,-15.3126,-35.5626
12:35:51.940,-14.8751,-37.0626
12:35:51.951,-16.6876,-37.8126
12:35:51.961,-17.5001,-40.6877
12:35:51.970,-17.6876,-40.1252
12:35:51.981,-19.5001,-43.0002
12:35:51.991,-19.3751,-44.1252
12:35:52.000,-20.5001,-44.1877
12:35:52.011,-21.6251,-46.1252
12:35:52.021,-22.2501,-46.6252
12:35:52.030,-22.3126,-47.6252
12:35:52.040,-22.5001,-49.3752
12:35:52.051,-24.0626,-49.8752
12:35:52.061,-24.2501,-51.9377
12:35:52.070,-26.2501,-53.0002
12:35:52.080,-26.6876,-54.8752
12:35:52.090,-26.8751,-55.4377
12:35:52.100,-25.3751,-53.9377
12:35:52.110,-22.6251,-48.2502
12:35:52.120,-17.0001,-40.8127
12:35:52.130,-10.3125,-29.8751
12:35:52.140,-3.125,-19.1251
12:35:52.151,5,-6.375
12:35:52.161,12.1875,7.9375
12:35:52.170,19.8126,19.7501
12:35:52.181,25.5001,31.7501
12:35:52.190,30.6251,40.4377
12:35:52.201,33.8751,48.0002
12:35:52.211,36.4376,52.8752
12:35:52.220,38.3751,57.6877
12:35:52.230,38.8751,58.8752
12:35:52.241,39.0627,60.9377
12:35:52.251,39.3127,60.9377
12:35:52.260,38.1876,60.6877
12:35:52.270,38.0001,60.1252
12:35:52.280,36.5626,59.8752
12:35:52.291,35.1876,59.4377
12:35:52.301,34.7501,58.4377
12:35:52.310,33.6876,59.5002
12:35:52.320,34.1251,57.3752
12:35:52.330,32.5001,56.5627
12:35:52.341,31.6251,56.6877
12:35:52.351,31.6251,55.5627
12:35:52.362,28.4376,51.5627
12:35:52.371,26.0626,48.6252
12:35:52.380,23.3126,44.3752
12:35:52.403,21.5626,41.4377
12:35:52.405,19.5626,38.1251
12:35:52.413,17.2501,35.8751
12:35:52.421,16.6251,33.1876
12:35:52.454,15.1251,30.7501
12:35:52.455,14.2501,29.0001
12:35:52.461,12.6875,27.2501
12:35:52.466,12.4375,25.9376
12:35:52.474,11.125,25.0001
12:35:52.511,10.5625,23.3751
12:35:52.512,10.125,22.3751
12:35:52.514,8.75,20.1251
12:35:52.520,7.5625,19.5626
12:35:52.524,7.375,16.6876
12:35:52.555,6.375,15.9376
12:35:52.557,5.5,13.6251
12:35:52.562,4.9375,12.1875
12:35:52.571,4.3125,9.9375
12:35:52.572,2.75,7.4375
12:35:52.581,1.8125,5.75
12:35:52.590,0.625,2.4375
12:35:52.600,0.0625,1.0625
12:35:52.610,-0.5,-0.875
12:35:52.621,-0.8125,-2.8125
12:35:52.630,-1.5625,-4.875
12:35:52.640,-1.625,-6.25
12:35:52.650,-2.75,-7.8125
12:35:52.683,-3.125,-8.625
12:35:52.684,-3.0625,-11.5625
12:35:52.687,-4.75,-11.4375
12:35:52.691,-4.5,-14.3751
12:35:52.701,-4.8125,-15.9376
12:35:52.711,-4.9375,-17.3126
12:35:52.721,-6.25,-19.0001
12:35:52.730,-6.9375,-19.6876
12:35:52.741,-7.25,-21.5001
12:35:52.750,-8.125,-23.5001
12:35:52.760,-9.3125,-24.7501
12:35:52.770,-10.0625,-27.8126
12:35:52.780,-11.9375,-28.3126
12:35:52.793,-12.375,-30.1876
12:35:52.801,-13.2501,-33.1251
12:35:52.812,-14.0001,-33.6876
12:35:52.822,-15.8751,-36.2501
12:35:52.830,-16.6876,-36.9376
12:35:52.841,-17.9376,-39.7502
12:35:52.852,-19.5001,-41.4377
12:35:52.860,-20.6876,-42.8752
12:35:52.870,-21.6876,-45.3752
12:35:52.880,-23.0001,-45.6877
12:35:52.890,-23.2501,-48.4377
12:35:52.901,-24.5626,-48.1877
12:35:52.910,-25.8126,-51.8127
12:35:52.928,-27.8751,-53.1877
12:35:52.930,-28.1876,-55.3127
12:35:52.948,-29.7501,-57.5627
12:35:52.952,-31.6251,-59.5627
12:35:52.962,-32.7501,-61.2502
12:35:52.971,-33.6876,-61.1252
12:35:52.981,-32.5001,-60.6877
12:35:52.991,-29.3126,-55.6252
12:35:53.000,-23.1876,-48.0627
12:35:53.010,-17.4376,-36.5626
12:35:53.020,-9.375,-25.3751
12:35:53.036,-1.5625,-10.875
12:35:53.042,6.8125,1.3125
12:35:53.050,13.9376,13.3751
12:35:53.061,20.0626,24.8126
12:35:53.070,24.8126,32.9376
12:35:53.081,27.7501,40.3752
12:35:53.090,30.7501,45.5627
12:35:53.100,30.9376,48.2502
12:35:53.110,31.2501,51.2502
12:35:53.141,32.3751,52.0627
12:35:53.145,31.5001,53.8752
12:35:53.178,32.1876,53.5627
12:35:53.218,31.5001,55.3752
12:35:53.220,32.2501,53.6252
12:35:53.288,32.0001,56.2502
12:35:53.288,32.8126,54.7502
12:35:53.288,31.7501,56.6252
12:35:53.291,32.1876,55.6877
12:35:53.291,32.3126,55.0627
12:35:53.297,31.1876,56.2502
12:35:53.300,31.0001,54.1877
12:35:53.300,28.6876,53.1877
12:35:53.305,26.8751,50.1252
12:35:53.315,24.8126,46.1252
12:35:53.325,22.5626,42.3752
12:35:53.336,20.5626,39.2502
12:35:53.347,19.3751,36.3751
12:35:53.356,18.1876,34.2501
12:35:53.367,16.3126,31.8126
12:35:53.375,15.9376,31.0626
12:35:53.387,15.0626,28.9376
12:35:53.395,14.8126,27.8126
12:35:53.412,13.7501,26.1876
12:35:53.416,10.8125,22.1876
12:35:53.425,9.8125,20.8751
12:35:53.436,8.75,19.1876
12:35:53.445,8.0625,17.1251
12:35:53.455,6.375,15.0626
12:35:53.466,3.5625,11.875
12:35:53.478,2.25,9.125
12:35:53.487,0,7.8125
12:35:53.495,-1.8125,5.0625
12:35:53.507,-3.5,4.8125
12:35:53.517,-6.75,4.25
12:35:53.527,-12.0625,2.5625
12:35:53.537,-17.3126,0.625
12:35:53.545,-28.6876,-3.75
12:35:53.555,-38.3751,-7.3125
12:35:53.566,-49.6877,-11.4375
12:35:53.576,-51.2502,-7.9375
12:35:53.585,-46.2502,1.5625
12:35:53.596,-43.5002,6.625
12:35:53.607,-40.6877,10.25
12:35:53.616,-37.6876,15.4376
12:35:53.625,-32.1251,21.7501
12:35:53.638,-28.1251,26.2501
12:35:53.645,-22.8126,29.6876
12:35:53.655,-20.8126,31.1876
12:35:53.665,-21.3126,32.3751
12:35:53.677,-19.3126,31.3126
12:35:53.686,-15.9376,32.0626
12:35:53.698,-18.0001,29.7501
12:35:53.705,-17.6876,28.6251
12:35:53.715,-19.9376,25.6251
12:35:53.727,-22.5626,21.1251
12:35:53.735,-24.7501,17.2501
12:35:53.745,-26.3751,13.9376
12:35:53.755,-28.0626,9.8125
12:35:53.765,-29.9376,8.375
12:35:53.775,-30.8126,4.1875
12:35:53.785,-32.1251,1.125
12:35:53.795,-31.7501,1
12:35:53.806,-30.0626,-0.4375
12:35:53.816,-30.1251,-1.9375
12:35:53.827,-30.3751,-3.1875
12:35:53.837,-30.1876,-5.75
12:35:53.846,-31.1876,-8.5
12:35:53.855,-32.5626,-11.4375
12:35:53.866,-33.0001,-14.1251
12:35:53.877,-34.8751,-16.6876
12:35:53.914,-34.1251,-17.1251
12:35:53.914,-31.8126,-16.6876
12:35:53.917,-28.2501,-14.1876
12:35:53.920,-22.9376,-6.9375
12:35:53.926,-16.7501,0.5625
12:35:53.963,-10.25,9.75
12:35:53.966,-3.8125,21.5626
12:35:53.968,3.6875,30.5626
12:35:53.998,8.5625,41.1877
12:35:53.999,13.6251,48.6252
12:35:54.001,17.0001,56.6877
12:35:54.008,19.6876,61.2502
12:35:54.009,21.5626,65.0002
12:35:54.037,23.0626,67.2503
12:35:54.038,22.4376,69.3128
12:35:54.042,22.1251,68.8128
12:35:54.070,21.6251,67.4378
12:35:54.072,20.9376,67.4378
12:35:54.074,20.7501,66.5003
12:35:54.080,19.1876,66.1253
12:35:54.087,19.7501,65.5628
12:35:54.095,18.1251,64.5627
12:35:54.107,17.6251,63.0002
12:35:54.117,16.6876,61.0627
12:35:54.125,15.4376,59.4377
12:35:54.136,14.8126,58.7502
12:35:54.145,14.5626,58.0627
12:35:54.161,13.5626,56.2502
12:35:54.168,13.0625,51.8127
12:35:54.178,10.0625,46.8752
12:35:54.188,6.6875,43.0627
12:35:54.196,4.6875,37.6251
12:35:54.206,1.875,33.5001
12:35:54.216,2.1875,30.6251
12:35:54.233,0.8125,29.5001
12:35:54.248,-0.0625,26.1876
12:35:54.250,-4.3125,21.3751
12:35:54.265,-20.0001,4.0625
12:35:54.268,-50.6877,-30.0001
12:35:54.276,-84.8753,-72.3128
12:35:54.285,-89.1878,-84.8753
12:35:54.296,-84.2503,-83.3128
12:35:54.305,-80.2503,-79.3753
12:35:54.317,-78.0628,-77.2503
12:35:54.327,-76.2503,-75.0003
12:35:54.338,-74.3128,-74.0628
12:35:54.347,-70.6253,-70.7503
12:35:54.357,-65.2503,-65.3127
12:35:54.368,-53.3127,-55.0002
12:35:54.376,-40.8127,-40.8127
12:35:54.386,-38.5626,-37.4376
12:35:54.397,-45.1877,-41.2502
12:35:54.405,-51.9377,-46.5627
12:35:54.416,-56.8127,-52.8752
12:35:54.427,-61.6877,-57.2502
12:35:54.437,-64.4377,-58.5002
12:35:54.446,-63.2502,-59.3127
12:35:54.456,-63.6877,-59.9377
12:35:54.467,-66.2503,-62.8127
12:35:54.476,-67.3753,-65.0627
12:35:54.486,-67.1878,-66.1878
12:35:54.497,-69.1253,-66.8128
12:35:54.506,-68.9378,-69.3753
12:35:54.517,-68.6253,-69.6253
12:35:54.533,-68.6878,-70.6878
12:35:54.549,-68.4378,-72.1878
12:35:54.552,-68.3128,-71.7503
12:35:54.568,-67.6878,-73.3753
12:35:54.569,-66.9378,-72.9378
12:35:54.576,-66.4378,-73.8753
12:35:54.586,-66.0003,-75.0003
12:35:54.596,-66.6253,-74.4378
12:35:54.605,-65.8128,-75.6878
12:35:54.619,-64.5002,-75.9378
12:35:54.649,-65.2503,-76.5003
12:35:54.650,-64.1877,-76.9378
12:35:54.653,-63.1252,-76.8753
12:35:54.655,-62.5627,-78.3128
12:35:54.695,-62.3127,-78.0628
12:35:54.697,-62.9377,-78.7503
12:35:54.698,-62.1252,-79.5003
12:35:54.701,-62.5627,-79.1878
12:35:54.709,-62.0002,-80.3753
12:35:54.740,-62.0627,-80.8753
12:35:54.741,-61.3127,-82.1253
12:35:54.743,-61.0627,-80.3128
12:35:54.747,-58.5002,-79.1253
12:35:54.784,-54.6877,-75.7503
12:35:54.790,-49.4377,-68.7503
12:35:54.792,-43.3127,-61.3752
12:35:54.797,-35.0001,-49.0627
12:35:54.801,-27.5626,-35.7501
12:35:54.807,-18.3751,-25.1251
12:35:54.817,-9.875,-11.9375
12:35:54.827,-4.5625,-1
12:35:54.837,1.1875,8.1875
12:35:54.846,5.8125,16.2501
12:35:54.858,9.1875,22.4376
12:35:54.867,12,27.6251
12:35:54.877,12.8125,30.1876
12:35:54.885,13.8126,32.6876
12:35:54.896,13.8751,32.6251
12:35:54.906,13.9376,33.3126
12:35:54.917,12.1875,33.3126
12:35:54.931,11.1875,31.6876
12:35:54.937,10.3125,32.2501
12:35:54.947,10.9375,31.5001
12:35:54.956,11.75,32.9376
12:35:54.968,11.25,32.5626
12:35:54.976,11.5,30.9376
12:35:54.987,11.4375,31.9376
12:35:54.997,10.6875,30.6251
12:35:55.009,9.6875,29.1251
12:35:55.018,7.6875,25.0001
12:35:55.028,5.875,22.8751
12:35:55.037,5.1875,19.8126
12:35:55.046,3.125,16.6251
12:35:55.056,2.5,14.5626
12:35:55.068,2.125,12.8125
12:35:55.078,2.6875,12.625
12:35:55.088,3.5625,12.25
12:35:55.095,4,13.0625
12:35:55.106,4.3125,12.3125
12:35:55.117,4.25,12.5
12:35:55.126,4.625,13
12:35:55.137,4.0625,11.4375
12:35:55.147,6,12.75
12:35:55.156,16.5626,19.9376
12:35:55.168,19.1251,21.9376
12:35:55.178,18.8751,19.6251
12:35:55.187,20.1876,19.8751
12:35:55.197,19.5626,17.3126
12:35:55.207,17.1251,15.1876
12:35:55.217,16.5626,12.9375
12:35:55.242,15.9376,11.625
12:35:55.245,13.5626,9.6875
12:35:55.247,11.375,8
12:35:55.259,11.4375,6.1875
12:35:55.267,13.5001,7
12:35:55.276,15.6876,10.9375
12:35:55.287,12.625,9.8125
12:35:55.309,6.125,2.8125
12:35:55.313,-2.625,-4.625
12:35:55.322,-8.5625,-9.875
12:35:55.332,-9.75,-12
12:35:55.361,-10.3125,-13.2501
12:35:55.363,-12.6875,-16.1876
12:35:55.367,-16.2501,-18.3126
12:35:55.370,-17.4376,-20.3126
12:35:55.379,-17.8751,-22.0001
12:35:55.390,-18.6876,-23.0626
12:35:55.414,-20.2501,-23.4376
12:35:55.416,-20.6876,-24.3751
12:35:55.419,-20.2501,-26.7501
12:35:55.444,-20.6876,-28.2501
12:35:55.447,-21.6876,-28.5001
12:35:55.449,-21.5001,-30.5001
12:35:55.480,-22.9376,-32.6251
12:35:55.483,-24.6251,-34.3126
12:35:55.488,-25.2501,-36.6251
12:35:55.491,-25.3751,-36.8126
12:35:55.498,-25.0626,-38.1251
12:35:55.507,-24.9376,-39.0001
12:35:55.517,-24.9376,-40.0002
12:35:55.527,-24.9376,-42.0002
12:35:55.541,-25.6251,-43.4377
12:35:55.550,-26.3751,-43.6252
12:35:55.556,-26.3126,-45.9377
12:35:55.572,-28.1251,-48.2502
12:35:55.581,-28.5626,-48.6877
12:35:55.587,-30.1876,-51.6877
12:35:55.597,-30.0626,-53.4377
12:35:55.607,-30.3126,-53.8752
12:35:55.617,-28.3126,-54.5002
12:35:55.627,-26.9376,-51.8752
12:35:55.637,-22.7501,-48.6877
12:35:55.647,-17.6251,-41.7502
12:35:55.657,-10.4375,-32.8126
12:35:55.667,-3.375,-21.4376
12:35:55.676,4.25,-10.4375
12:35:55.687,11.125,2.0625
12:35:55.697,18.8751,13.125
12:35:55.707,24.6876,24.2501
12:35:55.718,29.8126,33.0626
12:35:55.728,33.1876,41.5627
12:35:55.737,35.3126,44.8752
12:35:55.747,36.5001,48.3127
12:35:55.757,37.5626,50.5627
12:35:55.768,37.3751,51.0002
12:35:55.776,36.7501,52.6877
12:35:55.787,35.7501,51.3127
12:35:55.797,34.3751,51.3127
12:35:55.806,32.8126,49.1877
12:35:55.817,32.1251,50.0002
12:35:55.834,29.8751,47.6252
12:35:55.851,29.3751,48.0002
12:35:55.853,28.6251,46.2502
12:35:55.871,28.1876,46.8752
12:35:55.873,29.2501,47.1252
12:35:55.882,28.4376,44.6877
12:35:55.892,22.5626,40.0627
12:35:55.902,20.1876,36.7501
12:35:55.911,16.5001,32.5626
12:35:55.921,15.5626,29.8126
12:35:55.932,13.2501,27.1251
12:35:55.942,11.5625,24.8751
12:35:55.952,11.1875,21.8751
12:35:55.962,9.0625,21.1251
12:35:55.971,8.25,17.5001
12:35:55.981,7.8125,15.3126
12:35:55.991,5.6875,13.4376
12:35:56.002,5.0625,12.25
12:35:56.013,4.6875,12.5625
12:35:56.022,4.625,10.5
12:35:56.034,4.4375,8.9375
12:35:56.066,2.5625,6.875
12:35:56.067,2.125,7.3125
12:35:56.070,1.0625,5.0625
12:35:56.072,0.1875,2.625
12:35:56.100,-0.875,1.5
12:35:56.105,-2.4375,0.25
12:35:56.106,-2.625,-2.375
12:35:56.114,-3.75,-4
12:35:56.136,-4.75,-5.0625
12:35:56.138,-5.375,-6.875
12:35:56.142,-5.4375,-8.625
12:35:56.179,-5.9375,-9.5625
12:35:56.179,-7,-9.6875
12:35:56.183,-6.5625,-11.375
12:35:56.189,-7.6875,-12.875
12:35:56.195,-9.3125,-12.125
12:35:56.202,-9.6875,-14.5001
12:35:56.216,-10.3125,-17.1876
12:35:56.224,-12.25,-17.6876
12:35:56.232,-12.5,-19.5001
12:35:56.245,-13.3751,-21.3751
12:35:56.252,-14.6251,-21.0626
12:35:56.262,-15.2501,-23.3126
12:35:56.271,-16.6251,-25.0626
12:35:56.282,-16.9376,-26.0001
12:35:56.291,-18.5001,-27.2501
12:35:56.302,-19.3126,-28.2501
12:35:56.312,-20.1251,-30.8751
12:35:56.322,-20.4376,-32.3126
12:35:56.332,-22.0001,-33.9376
12:35:56.341,-23.3751,-35.1876
12:35:56.351,-23.8751,-37.4376
12:35:56.362,-24.1876,-38.6251
12:35:56.373,-25.0001,-40.7502
12:35:56.381,-25.4376,-42.0627
12:35:56.391,-25.3751,-43.4377
12:35:56.402,-26.8751,-45.5002
12:35:56.413,-27.0001,-47.2502
12:35:56.422,-27.6876,-49.3127
12:35:56.431,-28.2501,-50.6877
12:35:56.442,-27.8751,-51.5002
12:35:56.452,-27.6251,-52.6252
12:35:56.461,-26.1876,-52.6252
12:35:56.472,-25.4376,-53.1877
12:35:56.482,-23.5001,-52.8752
12:35:56.492,-22.0626,-51.3752
12:35:56.522,-17.4376,-49.2502
12:35:56.524,-12.0625,-43.6252
12:35:56.526,-2.0625,-34.6251
12:35:56.533,11.5625,-18.3751
12:35:56.542,26.9376,-1.5625
12:35:56.552,42.3127,16.6251
12:35:56.561,52.6877,33.6876
12:35:56.572,59.8127,43.1252
12:35:56.581,62.9377,51.5627
12:35:56.591,63.6252,57.1877
12:35:56.602,65.1253,60.8127
12:35:56.613,63.4377,63.3752
12:35:56.623,62.8752,64.6877
12:35:56.632,61.3752,66.7503
12:35:56.642,60.5627,66.5628
12:35:56.652,59.0002,65.9378
12:35:56.662,58.1252,65.0002
12:35:56.672,55.4377,63.0002
12:35:56.681,52.9377,61.3752
12:35:56.691,50.8127,59.7502
12:35:56.702,49.3127,57.4377
12:35:56.712,47.9377,57.8127
12:35:56.722,47.0002,56.9377
12:35:56.736,46.0002,55.3752
12:35:56.741,45.0002,54.2502
12:35:56.770,43.3127,52.8752
12:35:56.774,41.0002,49.0002
12:35:56.775,37.3126,45.3752
12:35:56.807,34.9376,40.6877
12:35:56.808,30.1251,36.5626
12:35:56.811,28.3126,32.4376
12:35:56.814,26.3751,28.6876
12:35:56.842,24.3751,26.1251
12:35:56.919,22.3751,23.3751
12:35:56.920,21.1251,20.7501
12:35:56.922,20.0001,17.8126
12:35:56.923,18.1876,16.1251
12:35:56.923,16.9376,13.5626
12:35:56.929,15.7501,11.4375
12:35:56.936,14.1876,8.9375
12:35:56.946,12.375,8.0625
12:35:56.956,12,5.75
12:35:56.967,9.3125,2.625
12:35:56.977,8.1875,2.1875
12:35:56.987,7.4375,-0.875
12:35:56.998,5.5,-4.4375
12:35:57.007,3.1875,-7.1875
12:35:57.017,1.5625,-9.1875
12:35:57.026,-0.25,-13
12:35:57.036,-1.75,-16.0001
12:35:57.046,-3.9375,-19.3751
12:35:57.057,-5.875,-22.0626
12:35:57.067,-6.9375,-24.6251
12:35:57.077,-8.75,-27.0001
12:35:57.088,-16.4376,-40.2502
12:35:57.097,-18.7501,-42.0002
12:35:57.106,-19.6251,-42.8127
12:35:57.117,-18.4376,-43.5627
12:35:57.138,-20.2501,-45.7502
12:35:57.140,-20.5001,-45.7502
12:35:57.150,-20.5001,-46.1252
12:35:57.157,-21.3126,-47.5627
12:35:57.172,-22.6876,-48.6252
12:35:57.180,-22.5001,-50.4377
12:35:57.187,-24.8751,-51.8752
12:35:57.197,-25.3751,-54.0627
12:35:57.208,-26.8751,-55.3127
12:35:57.218,-27.8751,-58.2502
12:35:57.227,-29.3751,-58.6877
12:35:57.236,-29.9376,-62.0002
12:35:57.246,-31.6251,-62.9377
12:35:57.257,-32.8126,-65.7502
12:35:57.267,-32.8751,-67.8753
12:35:57.278,-35.3751,-69.8753
12:35:57.286,-35.5626,-71.4378
12:35:57.297,-37.3751,-73.3128
12:35:57.307,-37.7501,-75.8753
12:35:57.316,-40.8752,-78.7503
12:35:57.326,-41.1877,-80.6878
12:35:57.337,-42.1252,-81.8753
12:35:57.347,-41.6252,-82.6253
12:35:57.356,-40.5002,-81.1878
12:35:57.366,-37.2501,-78.7503
12:35:57.381,-32.4376,-71.5003
12:35:57.386,-27.2501,-65.3128
12:35:57.396,-20.1251,-55.3752
12:35:57.406,-13.8126,-46.1877
12:35:57.417,-6.9375,-36.0001
12:35:57.426,-2,-25.0001
12:35:57.436,4.8125,-16.4376
12:35:57.447,8.75,-7.5
12:35:57.456,13.2501,-1.6875
12:35:57.467,15.5001,5.625
12:35:57.477,19.8126,9.25
12:35:57.486,20.9376,13.3751
12:35:57.497,21.7501,15.7501
12:35:57.507,23.0626,17.0626
12:35:57.517,22.5001,18.6251
12:35:57.526,23.4376,19.5001
12:35:57.537,23.9376,21.1876
12:35:57.547,23.4376,21.7501
12:35:57.584,24.9376,23.6251
12:35:57.585,24.4376,23.3126
12:35:57.589,24.2501,23.8126
12:35:57.590,23.6251,24.4376
12:35:57.598,23.2501,24.0626
12:35:57.627,23.5626,22.5626
12:35:57.630,21.3751,21.6876
12:35:57.631,19.2501,18.6876
12:35:57.642,16.8751,14.6251
12:35:57.647,13.6251,11.1875
12:35:57.679,11.625,8.3125
12:35:57.681,9.5625,4.625
12:35:57.683,7.75,2.8125
12:35:57.690,7.1875,0.25
12:35:57.715,7.3125,-1.3125
12:35:57.720,7.125,-1.625
12:35:57.722,5.9375,-3
12:35:57.731,5,-4.25
12:35:57.737,4.875,-4.75
12:35:57.747,3.3125,-5.3125
12:35:57.757,3.5625,-7.625
12:35:57.766,2.875,-8.625
12:35:57.777,1.75,-10.3125
12:35:57.802,0.5,-10.75
12:35:57.804,-0.625,-12.375
12:35:57.806,-1.25,-15.0626
12:35:57.817,-2.9375,-17.7501
12:35:57.826,-4.6875,-19.5626
12:35:57.837,-6.1875,-21.5626
12:35:57.847,-6.4375,-24.3751
12:35:57.857,-8.8125,-27.9376
12:35:57.867,-10.0625,-29.4376
12:35:57.876,-12,-31.8751
12:35:57.887,-13.5001,-34.7501
12:35:57.897,-14.3126,-37.0626
12:35:57.907,-15.5626,-38.8751
12:35:57.916,-16.0001,-40.9377
12:35:57.927,-18.1251,-43.5002
12:35:57.937,-19.0001,-44.5002
12:35:57.947,-19.0001,-44.5002
12:35:57.956,-19.8126,-46.7502
12:35:57.967,-20.7501,-46.6252
12:35:57.977,-20.5001,-47.3127
12:35:57.987,-20.8751,-47.7502
12:35:57.998,-20.5626,-48.4377
12:35:58.007,-21.7501,-49.2502
12:35:58.017,-21.4376,-50.1252
12:35:58.026,-22.0626,-51.4377
12:35:58.037,-22.6251,-52.5627
12:35:58.047,-23.7501,-53.6252
12:35:58.057,-23.9376,-54.6252
12:35:58.066,-24.6876,-56.3127
12:35:58.077,-25.0001,-56.6877
12:35:58.087,-24.6251,-58.8127
12:35:58.097,-25.9376,-59.7502
12:35:58.106,-25.8126,-61.7502
12:35:58.116,-27.2501,-62.2502
12:35:58.131,-28.0001,-64.6252
12:35:58.137,-29.1251,-67.0003
12:35:58.147,-29.5001,-66.3128
12:35:58.157,-30.3126,-69.0003
12:35:58.167,-31.3126,-70.5628
12:35:58.187,-31.5001,-71.3753
12:35:58.194,-32.3126,-73.5003
12:35:58.209,-33.2501,-75.0003
12:35:58.209,-34.9376,-77.7503
12:35:58.232,-36.2501,-79.8753
12:35:58.235,-37.0001,-80.7503
12:35:58.250,-36.3126,-81.7503
12:35:58.254,-36.0001,-80.5003
12:35:58.258,-33.2501,-79.3753
12:35:58.294,-28.8126,-73.0628
12:35:58.295,-23.8126,-66.9378
12:35:58.297,-19.3126,-59.6252
12:35:58.300,-13.1876,-50.0627
12:35:58.307,-6.75,-42.4377
12:35:58.339,-0.1875,-31.6251
12:35:58.342,4.75,-21.8751
12:35:58.344,10.125,-16.0001
12:35:58.351,12.9375,-8
12:35:58.372,16.6251,-3.5625
12:35:58.375,17.6251,-0.3125
12:35:58.376,18.5626,2
12:35:58.391,19.0001,3.6875
12:35:58.397,20.6251,5.875
12:35:58.407,20.0626,6.75
12:35:58.416,19.9376,8.4375
12:35:58.427,20.2501,8.5
12:35:58.437,20.1876,9.6875
12:35:58.458,21.1251,11.1875
12:35:58.460,21.1251,11.8125
12:35:58.469,21.7501,12.8125
12:35:58.477,21.8126,14.1876
12:35:58.491,22.5001,16.0626
12:35:58.500,22.8751,18.2501
12:35:58.507,23.1876,17.1876
12:35:58.520,22.5626,16.3126
12:35:58.528,20.8751,15.0001
12:35:58.537,18.5001,13.7501
12:35:58.547,16.7501,10
12:35:58.557,15.2501,7.9375
12:35:58.567,15.1251,8.3125
12:35:58.577,14.5626,6.1875
12:35:58.589,14.2501,5.6875
12:35:58.597,14.8126,6.75
12:35:58.606,15.2501,5.5625
12:35:58.617,15.6876,6.3125
12:35:58.626,15.3751,5.75
12:35:58.637,15.5626,5.25
12:35:58.647,14.9376,5.4375
12:35:58.656,15.5626,5.4375
12:35:58.666,15.0001,4.1875
12:35:58.677,13.125,3.25
12:35:58.687,12.375,2.5625
12:35:58.696,11.8125,0.9375
12:35:58.707,10.6875,-0.1875
12:35:58.717,9.5625,-1.375
12:35:58.727,8.5625,-3.4375
12:35:58.737,6.875,-5.1875
12:35:58.748,5.5,-7
12:35:58.757,3.6875,-8.5
12:35:58.767,2.25,-10.375
12:35:58.776,1.75,-13.0625
12:35:58.787,-0.375,-14.5001
12:35:58.796,-2.0625,-18.5001
12:35:58.807,-3.5,-20.4376
12:35:58.816,-4.625,-22.1251
12:35:58.827,-5.8125,-24.8751
12:35:58.838,-5.875,-26.7501
12:35:58.846,-6.6875,-28.0001
12:35:58.856,-8.125,-29.6876
12:35:58.866,-9.9375,-30.9376
12:35:58.877,-9.875,-34.0626
12:35:58.888,-12.1875,-34.6876
12:35:58.897,-12.4375,-37.5001
12:35:58.909,-14.7501,-38.0001
12:35:58.917,-14.6251,-40.8752
12:35:58.927,-16.1251,-41.0002
12:35:58.948,-16.7501,-43.7502
12:35:58.950,-18.1876,-43.7502
12:35:58.977,-17.9376,-45.7502
12:35:58.978,-17.8751,-44.3127
12:35:58.981,-16.5626,-45.4377
12:35:58.991,-16.5001,-45.4377
12:35:58.999,-18.1251,-46.2502
12:35:59.033,-17.5626,-47.0002
12:35:59.033,-16.5626,-45.4377
12:35:59.036,-16.6251,-45.6252
12:35:59.040,-15.5626,-46.9377
12:35:59.073,-14.5626,-45.8752
12:35:59.073,-13.6876,-46.6877
12:35:59.075,-12.875,-46.6877
12:35:59.078,-13.3751,-46.8127
12:35:59.093,-14.6251,-49.8752
12:35:59.098,-14.2501,-49.8127
12:35:59.118,-13.8751,-49.6252
12:35:59.120,-12.125,-48.0627
12:35:59.127,-10,-44.3752
12:35:59.136,-4.0625,-38.8126
12:35:59.147,2.6875,-29.2501
12:35:59.157,12.25,-18.8126
12:35:59.167,20.5001,-6.3125
12:35:59.177,27.1876,3.25
12:35:59.187,35.4376,14.8126
12:35:59.197,41.0002,25.1876
12:35:59.208,46.5002,32.7501
12:35:59.217,50.3752,40.6877
12:35:59.227,53.3752,45.3127
12:35:59.238,56.1252,51.8752
12:35:59.248,59.6877,56.4377
12:35:59.257,61.5627,58.6252
12:35:59.272,62.1877,62.2502
12:35:59.277,61.6252,62.4377
12:35:59.287,60.5002,63.0627
12:35:59.296,60.0627,63.5627
12:35:59.306,58.9377,64.8752
12:35:59.316,60.4377,65.9378
12:35:59.327,61.9377,68.3753
12:35:59.337,63.6877,70.4378
12:35:59.348,63.6877,72.0003
12:35:59.358,62.7502,72.2503
12:35:59.367,61.6252,73.7503
12:35:59.378,58.1252,70.7503
12:35:59.386,53.0002,68.3128
12:35:59.397,47.8752,63.7502
12:35:59.406,43.3127,60.6252
12:35:59.417,41.8127,57.9377
12:35:59.427,39.2502,56.6252
12:35:59.437,38.7501,53.9377
12:35:59.447,37.1251,54.5627
12:35:59.456,43.9377,55.0627
12:35:59.467,59.1252,64.0627
12:35:59.478,76.4378,73.1878
12:35:59.487,82.1878,77.6253
12:35:59.498,75.8128,73.6878
12:35:59.517,71.6878,69.6253
12:35:59.523,68.7503,67.8128
12:35:59.538,68.8753,67.1878
12:35:59.540,67.6253,66.9378
12:35:59.552,69.1878,67.3753
12:35:59.557,70.0003,66.6253
12:35:59.567,70.7503,67.1253
12:35:59.577,71.6253,65.4378
12:35:59.587,72.5003,65.1252
12:35:59.598,74.5628,65.5002
12:35:59.606,74.8753,62.9377
12:35:59.619,74.1878,61.3752
12:35:59.628,71.1253,57.1877
12:35:59.637,68.4378,54.5002
12:35:59.647,67.3128,51.9377
12:35:59.656,65.8128,49.8752
12:35:59.668,65.5628,47.9377
12:35:59.676,64.5002,45.9377
12:35:59.688,63.1252,45.1252
12:35:59.696,63.3127,42.0002
12:35:59.707,62.1877,39.1251
12:35:59.718,61.1877,38.1876
12:35:59.726,60.5002,34.8751
12:35:59.742,60.1252,33.7501
12:35:59.747,60.1252,32.1251
12:35:59.779,59.5627,30.5626
12:35:59.814,59.5627,28.3126
12:35:59.816,57.8752,26.8126
12:35:59.849,57.1252,24.6251
12:35:59.876,55.8127,21.8126
12:35:59.876,53.6877,19.8751
12:35:59.876,52.1252,16.3126
12:35:59.877,49.8752,13.6251
12:35:59.878,47.5627,11.625
12:35:59.907,45.6877,7.75
12:35:59.914,44.0002,6.375
12:35:59.914,42.6877,3.1875
12:35:59.918,41.4377,1.3125
12:35:59.923,41.7502,0.0625
12:35:59.933,39.8752,-1.125
12:35:59.942,39.1251,-3.625
12:35:59.953,36.4376,-5.75
12:35:59.961,34.8126,-8.25
12:35:59.972,33.0626,-11.1875
12:35:59.983,31.7501,-13.8751
12:35:59.993,29.7501,-14.6876
12:36:00.005,28.0001,-17.8751
12:36:00.014,26.1251,-20.7501
12:36:00.021,18.3126,-33.5001
12:36:00.032,18.1251,-34.6251
12:36:00.043,18.0001,-33.6876
12:36:00.051,20.9376,-29.6876
12:36:00.062,24.0001,-24.5001
12:36:00.071,30.1251,-14.0001
12:36:00.081,34.6251,-6.375
12:36:00.093,39.7502,-0.625
12:36:00.102,42.6877,7.1875
12:36:00.113,45.7502,12.8125
12:36:00.123,48.1252,17.6251
12:36:00.132,49.8127,21.8126
12:36:00.141,51.3752,24.7501
12:36:00.154,51.2502,27.2501
12:36:00.164,52.4377,29.0626
12:36:00.172,51.9377,30.6876
12:36:00.182,52.3752,32.0626
12:36:00.194,51.8752,32.2501
12:36:00.203,51.4377,33.8751
12:36:00.213,52.3127,34.8126
12:36:00.223,51.6252,36.1251
12:36:00.233,51.9377,37.1876
12:36:00.243,51.1877,36.7501
12:36:00.251,49.8752,39.0001
12:36:00.261,50.3127,38.1251
12:36:00.273,48.8127,38.0626
12:36:00.283,47.5627,39.7502
12:36:00.291,46.4377,38.2501
12:36:00.302,45.5002,36.3751
12:36:00.313,43.5627,34.6251
12:36:00.323,41.8127,34.0626
12:36:00.332,40.2502,31.7501
12:36:00.363,39.2502,29.5001
12:36:00.368,37.6251,27.4376
12:36:00.368,36.3126,26.9376
12:36:00.374,34.8126,26.2501
12:36:00.383,34.3126,24.1876
12:36:00.397,32.8126,22.9376
12:36:00.402,31.5626,22.8751
12:36:00.413,31.3126,21.5001
12:36:00.423,29.8751,20.1251
12:36:00.431,28.8751,18.1251
12:36:00.465,27.8751,18.8126
12:36:00.468,27.9376,17.8751
12:36:00.469,27.0001,16.1251
12:36:00.472,25.6251,14.3751
12:36:00.501,25.1251,14.4376
12:36:00.503,24.4376,12.625
12:36:00.505,22.7501,10.875
12:36:00.514,21.1251,9.8125
12:36:00.541,20.1251,8
12:36:00.544,18.6876,5.125
12:36:00.546,16.1876,3.3125
12:36:00.553,16.0001,1.625
12:36:00.585,14.3751,-1.0625
12:36:00.587,12.0625,-1.6875
12:36:00.589,11.4375,-4.25
12:36:00.617,9.1875,-7.1875
12:36:00.617,7.875,-8.375
12:36:00.618,5.875,-10.125
12:36:00.626,4.75,-12.8125
12:36:00.633,2.9375,-15.4376
12:36:00.643,1.5625,-16.9376
12:36:00.653,0.25,-18.0626
12:36:00.666,-0.25,-19.9376
12:36:00.677,-1.125,-21.9376
12:36:00.687,-2.1875,-23.8751
12:36:00.698,-2.25,-24.4376
12:36:00.708,-1.875,-24.0626
12:36:00.718,-1.1875,-25.7501
12:36:00.727,-3.3125,-26.8126
12:36:00.738,-4.4375,-27.0626
12:36:00.746,-4.875,-30.0001
12:36:00.759,-6.1875,-32.1876
12:36:00.774,-7.4375,-32.8126
12:36:00.778,-8.125,-34.7501
12:36:00.786,-9.75,-36.6876
12:36:00.798,-11.625,-37.2501
12:36:00.808,-12.125,-40.5002
12:36:00.825,-12.9375,-40.6252
12:36:00.830,-13.5626,-42.6252
12:36:00.845,-14.4376,-43.2502
12:36:00.848,-14.5626,-45.3127
12:36:00.862,-16.2501,-45.6877
12:36:00.868,-16.1251,-47.5002
12:36:00.878,-17.7501,-49.0627
12:36:00.888,-18.5626,-50.6252
12:36:00.898,-20.6251,-51.4377
12:36:00.907,-21.3751,-54.1252
12:36:00.918,-22.0626,-53.5002
12:36:00.928,-20.0626,-53.7502
12:36:00.938,-18.0626,-49.3127
12:36:00.948,-13.8751,-44.8752
12:36:00.959,-8.75,-38.0001
12:36:00.967,-2.5,-28.4376
12:36:00.978,3.125,-21.3751
12:36:00.988,8.375,-12.0625
12:36:00.998,14.7501,-3.5625
12:36:01.008,18.1251,2.875
12:36:01.018,21.1876,8.8125
12:36:01.028,23.1251,13.7501
12:36:01.038,24.6876,18.1251
12:36:01.047,26.5001,19.5001
12:36:01.057,26.0626,22.5001
12:36:01.067,26.8126,22.6251
12:36:01.077,26.6251,25.9376
12:36:01.098,27.0626,24.8751
12:36:01.100,26.8126,26.7501
12:36:01.115,26.6876,26.4376
12:36:01.117,26.1251,28.3751
12:36:01.132,26.8126,28.0626
12:36:01.139,25.9376,30.2501
12:36:01.150,27.3751,29.7501
12:36:01.158,26.5001,30.0626
12:36:01.168,26.5001,31.4376
12:36:01.185,26.1876,31.0626
12:36:01.188,24.6251,30.5001
12:36:01.224,22.2501,29.0626
12:36:01.227,22.0626,26.3126
12:36:01.230,20.1876,24.5626
12:36:01.232,18.3751,23.6876
12:36:01.236,18.0626,22.1876
12:36:01.273,16.7501,20.8126
12:36:01.273,15.5001,19.5626
12:36:01.275,15.1251,18.6876
12:36:01.281,14.5626,17.5001
12:36:01.310,13.1876,17.0626
12:36:01.314,12.5,16.6251
12:36:01.314,12.375,15.3751
12:36:01.320,11.8125,14.9376
12:36:01.329,11.625,13.8126
12:36:01.353,11.0625,13.1876
12:36:01.355,10.125,12.125
12:36:01.358,8.3125,10.3125
12:36:01.367,8.375,9
12:36:01.378,6.25,6.9375
12:36:01.388,4.25,5.3125
12:36:01.397,3.625,3.125
12:36:01.408,2.875,2.75
12:36:01.418,1.8125,0.125
12:36:01.428,0.375,-1.6875
12:36:01.438,-0.1875,-3.5625
12:36:01.448,-2.3125,-4.6875
12:36:01.457,-2.3125,-7.6875
12:36:01.468,-4.5625,-8.6875
12:36:01.478,-5.8125,-12.125
12:36:01.488,-7.3125,-14.3126
12:36:01.498,-8.875,-15.8751
12:36:01.508,-10.375,-19.0626
12:36:01.524,-11.375,-20.3126
12:36:01.528,-12.8125,-22.9376
12:36:01.537,-14.0626,-24.2501
12:36:01.548,-14.0001,-25.3751
12:36:01.557,-15.2501,-26.0626
12:36:01.568,-15.5626,-28.4376
12:36:01.578,-17.0626,-29.3751
12:36:01.588,-16.8126,-31.1251
12:36:01.598,-18.8126,-32.3751
12:36:01.608,-19.9376,-34.2501
12:36:01.618,-20.5626,-34.8751
12:36:01.643,-22.3126,-35.9376
12:36:01.646,-22.8751,-39.3752
12:36:01.648,-23.2501,-39.7502
12:36:01.658,-24.3751,-40.8752
12:36:01.668,-25.3751,-42.8752
12:36:01.678,-25.1251,-43.8127
12:36:01.688,-26.7501,-43.5002
12:36:01.698,-27.0626,-45.0627
12:36:01.708,-27.0001,-47.4377
12:36:01.718,-28.7501,-47.1877
12:36:01.728,-28.7501,-49.9377
12:36:01.738,-30.1876,-50.2502
12:36:01.748,-31.2501,-52.1252
12:36:01.757,-31.6876,-53.0002
12:36:01.768,-32.4376,-54.5627
12:36:01.778,-32.4376,-55.2502
12:36:01.787,-31.8751,-53.5002
12:36:01.797,-27.2501,-49.5627
12:36:01.808,-23.1251,-44.1252
12:36:01.818,-17.0001,-35.1876
12:36:01.828,-10.875,-26.9376
12:36:01.844,-3.625,-17.8751
12:36:01.848,1.5625,-8.8125
12:36:01.883,7.125,0.375
12:36:01.887,12.125,7.25
12:36:01.888,15.3126,14.3126
12:36:01.891,18.6876,19.6251
12:36:01.900,20.5001,25.3751
12:36:01.908,22.7501,27.9376
12:36:01.936,23.3751,32.0626
12:36:01.938,24.2501,32.4376
12:36:01.939,24.7501,34.9376
12:36:01.974,25.4376,37.0626
12:36:01.975,25.8126,39.4377
12:36:01.978,27.3751,40.0627
12:36:01.979,27.6251,42.7502
12:36:02.011,29.3126,43.8127
12:36:02.012,29.5001,46.3127
12:36:02.014,31.0626,46.8752
12:36:02.021,31.0626,47.0002
12:36:02.029,31.1251,49.3127
12:36:02.039,30.8126,49.3127
12:36:02.048,30.0001,48.1877
12:36:02.060,28.5001,47.7502
12:36:02.068,27.0001,46.1252
12:36:02.077,24.9376,43.5627
12:36:02.088,23.5626,41.2502
12:36:02.098,22.1251,40.0002
12:36:02.107,22.0626,38.1251
12:36:02.117,20.0626,37.4376
12:36:02.140,18.5626,35.5626
12:36:02.144,17.9376,33.2501
12:36:02.161,17.2501,33.0626
12:36:02.173,16.0626,32.5626
12:36:02.175,15.8751,29.7501
12:36:02.182,15.2501,30.0001
12:36:02.189,14.3126,27.5626
12:36:02.198,13.5001,27.9376
12:36:02.208,12.625,26.1876
12:36:02.218,10.75,24.8126
12:36:02.228,10,22.6876
12:36:02.237,7.1875,20.4376
12:36:02.249,6.375,18.8751
12:36:02.258,5.1875,16.1876
12:36:02.268,2.9375,14.3126
12:36:02.278,1.6875,11.1875
12:36:02.288,0.125,10
12:36:02.297,-1.125,6.4375
12:36:02.308,-3,4.0625
12:36:02.318,-4.125,1.75
12:36:02.328,-5.875,-0.4375
12:36:02.338,-7.0625,-3.375
12:36:02.348,-9.3125,-4.875
12:36:02.358,-10.6875,-6.9375
12:36:02.368,-12.3125,-10.5625
12:36:02.379,-13.3751,-11.875
12:36:02.388,-15.0001,-14.9376
12:36:02.412,-15.8751,-16.5626
12:36:02.427,-17.4376,-19.3126
12:36:02.442,-17.5001,-20.4376
12:36:02.444,-17.9376,-21.5001
12:36:02.459,-19.6251,-22.3126
12:36:02.461,-19.5626,-24.3751
12:36:02.464,-20.8751,-25.8126
12:36:02.469,-21.1876,-27.2501
12:36:02.479,-21.6876,-29.1251
12:36:02.489,-22.4376,-30.5001
12:36:02.499,-23.2501,-32.0626
12:36:02.508,-22.8751,-32.6251
12:36:02.518,-23.4376,-33.4376
12:36:02.529,-23.8126,-36.0626
12:36:02.538,-24.4376,-36.6251
12:36:02.548,-25.6876,-36.1876
12:36:02.558,-26.0001,-39.6877
12:36:02.568,-26.8126,-40.2502
12:36:02.578,-27.5626,-42.3127
12:36:02.588,-28.8126,-43.7502
12:36:02.598,-28.6876,-44.6877
12:36:02.608,-29.8751,-46.6877
12:36:02.618,-30.0001,-48.3752
12:36:02.649,-30.8126,-47.7502
12:36:02.653,-31.4376,-50.3752
12:36:02.653,-32.0001,-50.3127
12:36:02.661,-32.2501,-52.1877
12:36:02.700,-33.3751,-53.0002
12:36:02.702,-33.1876,-54.8752
12:36:02.704,-33.5626,-54.8752
12:36:02.707,-33.3126,-56.2502
12:36:02.713,-32.1251,-53.7502
12:36:02.720,-29.4376,-51.4377
12:36:02.744,-24.8751,-45.0627
12:36:02.745,-19.2501,-38.6876
12:36:02.748,-12,-28.1251
12:36:02.779,-6.1875,-19.8126
12:36:02.781,0.8125,-7.875
12:36:02.783,7.3125,1.1875
12:36:02.789,13.5626,11.4375
12:36:02.818,18.0001,19.0001
12:36:02.818,22.0626,26.5001
12:36:02.821,25.0626,32.5001
12:36:02.831,26.6251,36.2501
12:36:02.840,28.4376,39.5002
12:36:02.848,28.6251,42.6252
12:36:02.858,29.7501,44.1252
12:36:02.868,30.8126,46.1877
12:36:02.878,30.0626,48.3127
12:36:02.888,31.3751,48.6877
12:36:02.898,30.6876,50.9377
12:36:02.925,31.3126,51.4377
12:36:02.926,31.3751,54.0627
12:36:02.928,32.1876,53.8127
12:36:02.939,32.3126,54.6252
12:36:02.948,31.9376,55.6877
12:36:02.959,32.5001,56.3752
12:36:02.968,31.5001,55.4377
12:36:02.977,29.1251,53.5627
12:36:02.988,27.6876,51.8127
12:36:02.998,25.8751,50.1252
12:36:03.008,24.3751,47.7502
12:36:03.018,22.8126,45.6252
12:36:03.028,21.5626,44.5627
12:36:03.038,20.5001,42.5002
12:36:03.048,20.0626,41.4377
12:36:03.058,18.8126,40.6252
12:36:03.068,18.5626,39.3751
12:36:03.077,16.9376,37.8751
12:36:03.088,16.2501,37.7501
12:36:03.098,16.0626,35.9376
12:36:03.108,13.6876,35.3126
12:36:03.118,13.2501,32.6876
12:36:03.127,11.5625,32.5001
12:36:03.137,11.1875,30.3126
12:36:03.148,9,29.0001
12:36:03.158,7.9375,25.8126
12:36:03.168,6.6875,24.0626
12:36:03.178,5.75,22.1876
12:36:03.192,3.9375,18.8751
12:36:03.197,2.1875,16.0001
12:36:03.209,0.8125,13.5626
12:36:03.217,-2.25,11.0625
12:36:03.229,-2.4375,8.375
12:36:03.238,-5.25,5.5625
12:36:03.249,-5.9375,2.9375
12:36:03.257,-8.0625,-0.0625
12:36:03.268,-9.3125,-2.1875
12:36:03.278,-11.4375,-5.125
12:36:03.288,-12.375,-7.75
12:36:03.298,-14.0626,-8.375
12:36:03.307,-14.5001,-11.125
12:36:03.317,-16.6251,-14.6251
12:36:03.328,-17.8126,-16.1251
12:36:03.338,-18.5626,-18.1251
12:36:03.348,-19.5626,-20.2501
12:36:03.358,-20.8751,-22.5626
12:36:03.368,-21.8751,-23.0626
12:36:03.378,-21.9376,-25.0626
12:36:03.388,-22.8751,-26.6876
12:36:03.403,-24.0001,-28.3751
12:36:03.408,-25.2501,-29.3126
12:36:03.442,-24.8751,-30.7501
12:36:03.444,-25.7501,-32.7501
12:36:03.487,-26.1876,-33.8126
12:36:03.525,-27.1251,-35.1876
12:36:03.528,-26.9376,-36.1251
12:36:03.529,-28.1251,-37.3751
12:36:03.529,-27.7501,-38.3751
12:36:03.532,-28.8126,-40.1252
12:36:03.534,-28.8751,-41.4377
12:36:03.544,-29.4376,-42.9377
12:36:03.544,-29.1251,-43.0627
12:36:03.544,-29.9376,-43.8127
12:36:03.549,-30.2501,-45.1877
12:36:03.575,-30.5001,-46.8752
12:36:03.578,-31.4376,-47.7502
12:36:03.583,-32.2501,-49.0627
12:36:03.591,-32.0626,-50.6877
12:36:03.598,-32.8751,-51.6877
12:36:03.608,-32.8126,-52.4377
12:36:03.618,-32.2501,-52.6252
12:36:03.628,-29.7501,-49.6877
12:36:03.637,-26.1876,-45.0002
12:36:03.648,-21.1251,-37.9376
12:36:03.658,-8,-20.4376
12:36:03.668,-1.375,-9.4375
12:36:03.678,5.5625,0
12:36:03.688,11.6875,9.6875
12:36:03.698,17.3751,18.7501
12:36:03.707,21.2501,26.4376
12:36:03.727,25.0001,33.9376
12:36:03.729,26.5001,37.4376
12:36:03.744,28.1251,40.7502
12:36:03.753,28.3751,43.3127
12:36:03.759,29.3126,44.0627
12:36:03.773,29.2501,46.5627
12:36:03.783,28.8751,46.6252
12:36:03.793,29.1876,46.5002
12:36:03.803,28.1876,47.6877
12:36:03.813,28.3751,47.0002
12:36:03.823,27.6251,48.4377
12:36:03.832,27.6251,47.1252
12:36:03.843,26.6251,47.1877
12:36:03.853,27.3751,48.2502
12:36:03.863,26.2501,47.0002
12:36:03.873,24.9376,46.0627
12:36:03.883,23.5001,44.8127
12:36:03.893,21.8751,42.0002
12:36:03.904,20.0626,39.2501
12:36:03.914,19.2501,37.5001
12:36:03.923,18.1876,35.7501
12:36:03.938,16.8126,34.0001
12:36:03.948,15.5001,32.3126
12:36:03.958,14.1876,31.6251
12:36:03.970,14.3126,30.7501
12:36:03.982,12.875,29.3126
12:36:03.988,11.9375,28.3751
12:36:03.998,11.375,27.3751
12:36:04.007,11.5625,25.5001
12:36:04.018,10.8125,25.0626
12:36:04.028,9.875,23.3126
12:36:04.038,8.875,22.6876
12:36:04.048,7.75,20.1876
12:36:04.058,6.3125,18.1876
12:36:04.068,5.625,16.2501
12:36:04.078,3.8125,14.2501
12:36:04.088,2.3125,11.1875
12:36:04.098,-1.0625,7.8125
12:36:04.116,-2.5625,4.4375
12:36:04.121,-4.5625,0.625
12:36:04.146,-6.625,-2.6875
12:36:04.158,-8.625,-5.3125
12:36:04.158,-9.3125,-6.3125
12:36:04.164,-10.5,-9.75
12:36:04.167,-11.9375,-12.625
12:36:04.203,-13.0625,-13.4376
12:36:04.206,-15.0626,-16.1876
12:36:04.208,-16.0001,-19.5626
12:36:04.215,-16.8751,-20.8751
12:36:04.222,-17.8751,-23.0626
12:36:04.251,-19.9376,-25.6251
12:36:04.254,-20.4376,-27.8751
12:36:04.255,-21.6251,-29.0001
12:36:04.260,-21.9376,-30.8751
12:36:04.290,-23.3751,-32.8126
12:36:04.291,-24.5001,-34.0626
12:36:04.296,-25.5001,-36.4376
12:36:04.301,-26.5001,-37.7501
12:36:04.308,-27.1876,-38.4376
12:36:04.318,-28.5001,-41.5002
12:36:04.328,-29.1251,-42.0627
12:36:04.338,-29.8126,-44.5627
12:36:04.347,-30.0626,-46.0002
12:36:04.358,-31.1876,-47.6252
12:36:04.369,-32.1876,-48.4377
12:36:04.377,-32.5626,-49.5002
12:36:04.388,-33.5626,-51.0002
12:36:04.398,-33.1876,-51.5002
12:36:04.407,-34.3126,-52.8127
12:36:04.418,-34.1876,-53.7502
12:36:04.429,-35.5001,-55.5002
12:36:04.438,-36.0001,-56.5002
12:36:04.449,-37.0626,-58.2502
12:36:04.458,-37.8751,-60.5002
12:36:04.469,-38.6876,-61.0627
12:36:04.478,-38.3751,-62.0002
12:36:04.488,-38.8751,-63.2502
12:36:04.497,-37.1251,-60.7502
12:36:04.508,-32.8751,-57.5002
12:36:04.518,-27.8751,-50.3752
12:36:04.528,-22.4376,-42.0002
12:36:04.538,-14.6251,-31.3751
12:36:04.548,-7,-20.5626
12:36:04.558,1.375,-7.75
12:36:04.568,8.625,3.8125
12:36:04.577,15.0001,14.2501
12:36:04.588,20.0001,25.0001
12:36:04.598,24.8126,31.1876
12:36:04.609,27.5626,38.8751
12:36:04.617,30.2501,42.6252
12:36:04.627,31.5626,47.4377
12:36:04.637,32.8751,49.7502
12:36:04.647,33.3126,51.2502
12:36:04.658,33.0001,52.1877
12:36:04.668,32.8751,53.0002
12:36:04.677,33.1251,54.6252
12:36:04.688,33.0626,53.6252
12:36:04.698,32.8126,55.5002
12:36:04.707,33.0626,55.5627
12:36:04.723,33.4376,57.1252
12:36:04.729,33.0626,57.6252
12:36:04.739,32.8751,57.7502
12:36:04.748,33.0626,57.9377
12:36:04.758,32.7501,57.4377
12:36:04.774,32.0001,56.1877
12:36:04.789,29.3126,54.8752
12:36:04.790,27.6876,51.5002
12:36:04.798,25.7501,49.0002
12:36:04.808,23.6876,46.4377
12:36:04.818,22.5001,44.0002
12:36:04.828,21.1876,41.0002
12:36:04.866,21.3126,39.7502
12:36:04.866,19.8126,38.4376
12:36:04.869,19.1876,36.8126
12:36:04.871,19.0626,35.9376
12:36:04.904,18.8126,35.0626
12:36:04.904,18.1876,34.6876
12:36:04.908,16.6876,32.1251
12:36:04.909,15.3751,30.6251
12:36:04.940,14.0001,29.1876
12:36:04.942,13.5626,26.8126
12:36:04.944,11.8125,24.5001
12:36:04.952,10.5625,21.9376
12:36:04.982,8.8125,19.8126
12:36:04.984,7.875,17.6251
12:36:04.986,6.125,14.6876
12:36:04.997,4.5625,13.0625
12:36:04.999,3.75,9.6875
12:36:05.029,1.5,7.5
12:36:05.032,-0.0625,4.4375
12:36:05.046,-2.3125,2.4375
12:36:05.049,-3.4375,-1.4375
12:36:05.051,-5.0625,-4.1875
12:36:05.058,-6.875,-7.125
12:36:05.067,-8.0625,-9.6875
12:36:05.077,-9.25,-12.1875
12:36:05.088,-11.0625,-13.5001
12:36:05.103,-12.1875,-16.1876
12:36:05.109,-12.75,-17.9376
12:36:05.119,-13.8126,-20.3751
12:36:05.128,-15.8751,-23.3751
12:36:05.138,-16.8751,-24.3126
12:36:05.148,-17.7501,-26.1876
12:36:05.159,-18.1876,-28.5001
12:36:05.168,-19.3126,-30.0626
12:36:05.178,-20.1876,-30.5626
12:36:05.188,-20.6251,-32.0001
12:36:05.198,-21.6876,-34.6251
12:36:05.208,-22.1876,-36.3126
12:36:05.218,-22.2501,-37.1876
12:36:05.228,-23.5626,-38.4376
12:36:05.238,-23.5626,-39.5002
12:36:05.248,-24.1876,-41.1877
12:36:05.258,-25.1876,-42.4377
12:36:05.268,-25.8126,-43.1877
12:36:05.277,-27.0001,-44.3127
12:36:05.288,-27.3751,-47.3752
12:36:05.298,-28.0626,-47.0627
12:36:05.308,-29.1251,-48.5627
12:36:05.318,-29.1251,-50.3127
12:36:05.328,-30.6251,-51.1252
12:36:05.337,-31.3126,-53.2502
12:36:05.348,-30.6251,-53.6877
12:36:05.359,-32.3126,-55.1877
12:36:05.368,-31.5626,-56.6252
12:36:05.377,-33.2501,-57.5002
12:36:05.387,-33.5001,-59.4377
12:36:05.398,-33.2501,-59.0627
12:36:05.408,-32.8751,-59.6252
12:36:05.418,-29.5626,-54.9377
12:36:05.428,-25.8126,-50.0627
12:36:05.437,-18.8751,-41.3752
12:36:05.448,-12.5,-30.4376
12:36:05.457,-4.625,-20.5626
12:36:05.485,5.1875,-7.375
12:36:05.487,11.8125,5.3125
12:36:05.489,19.3751,16.3751
12:36:05.520,26.0626,27.8126
12:36:05.522,30.0001,35.9376
12:36:05.524,33.7501,43.6877
12:36:05.532,36.0626,48.6252
12:36:05.557,38.1251,51.3752
12:36:05.561,38.6876,55.6877
12:36:05.563,39.2502,56.0627
12:36:05.570,40.1252,57.5627
12:36:05.585,39.5627,58.3127
12:36:05.589,39.1876,58.1877
12:36:05.620,39.3127,59.1877
12:36:05.621,38.7501,59.5002
12:36:05.624,39.0626,59.9377
12:36:05.630,39.1251,61.7502
12:36:05.638,39.2501,61.3752
12:36:05.672,39.0626,61.5002
12:36:05.673,39.1877,61.5627
12:36:05.675,38.9376,61.4377
12:36:05.678,36.6251,60.3127
12:36:05.694,34.6251,58.0627
12:36:05.698,32.6251,54.4377
12:36:05.708,30.3126,51.3752
12:36:05.719,29.4376,48.2502
12:36:05.728,27.8126,45.1252
12:36:05.737,26.3126,43.9377
12:36:05.749,25.1876,42.5627
12:36:05.758,24.5001,39.5627
12:36:05.768,23.0001,38.0001
12:36:05.778,22.4376,36.5001
12:36:05.788,21.5001,36.0626
12:36:05.798,22.1876,35.1876
12:36:05.809,21.1876,33.3751
12:36:05.817,20.0001,31.7501
12:36:05.828,18.8751,30.9376
12:36:05.839,17.0626,29.6251
12:36:05.848,16.4376,26.8126
12:36:05.857,14.7501,24.0001
12:36:05.868,12.5625,21.1876
12:36:05.878,10.5625,19.1876
12:36:05.889,9.6875,15.6251
12:36:05.898,7.8125,12.3125
12:36:05.909,6.625,10.9375
12:36:05.917,5.8125,8.5
12:36:05.928,3.1875,5.0625
12:36:05.939,0.8125,1.8125
12:36:05.949,-0.6875,-1.625
12:36:05.958,-2.4375,-3.1875
12:36:05.969,-3.5625,-6.125
12:36:05.977,-5.1875,-9.25
12:36:05.988,-6.625,-12
12:36:05.999,-8.25,-12.875
12:36:06.008,-9,-15.7501
12:36:06.018,-9.1875,-18.6251
12:36:06.028,-10.5,-19.4376
12:36:06.039,-11.5,-21.1876
12:36:06.049,-12.375,-23.8126
12:36:06.069,-13.4376,-25.3751
12:36:06.076,-14.3126,-26.3751
12:36:06.090,-14.3751,-28.2501
12:36:06.092,-16.3751,-30.7501
12:36:06.100,-17.1251,-30.5001
12:36:06.108,-17.4376,-33.5626
12:36:06.118,-18.3126,-35.7501
12:36:06.128,-19.5001,-35.8126
12:36:06.138,-20.4376,-38.2501
12:36:06.149,-20.5001,-39.0001
12:36:06.159,-21.3751,-40.8127
12:36:06.169,-22.7501,-41.7502
12:36:06.179,-22.7501,-42.6877
12:36:06.188,-24.3751,-44.8752
12:36:06.199,-24.9376,-46.1252
12:36:06.208,-26.1876,-47.1877
12:36:06.219,-26.8126,-48.9377
12:36:06.240,-26.4376,-50.5627
12:36:06.241,-28.9376,-51.8752
12:36:06.272,-28.6876,-54.3127
12:36:06.274,-29.6876,-53.9377
12:36:06.276,-27.5001,-53.3127
12:36:06.280,-24.7501,-48.5002
12:36:06.313,-20.5001,-43.3127
12:36:06.344,-13.8751,-33.4376
12:36:06.347,-7.75,-22.6876
12:36:06.348,0.25,-11.9375
12:36:06.354,7.5,1
12:36:06.354,14.8126,11.4375
12:36:06.354,21.6876,22.3751
12:36:06.359,26.0001,30.6251
12:36:06.393,30.0626,37.8126
12:36:06.394,31.8751,42.6877
12:36:06.398,34.1251,46.6252
12:36:06.399,34.2501,49.6877
12:36:06.410,35.0001,51.0002
12:36:06.419,35.8751,52.5002
12:36:06.429,35.4376,54.0002
12:36:06.441,35.1251,52.6877
12:36:06.449,35.8751,54.5627
12:36:06.460,34.6876,54.4377
12:36:06.470,35.5001,55.0002
12:36:06.479,34.5626,55.6877
12:36:06.489,34.6251,55.5002
12:36:06.498,35.1876,55.6252
12:36:06.509,34.1251,55.0627
12:36:06.519,32.5001,55.5627
12:36:06.529,31.9376,52.2502
12:36:06.540,29.7501,48.5002
12:36:06.550,27.3751,45.3752
12:36:06.558,25.3126,43.6252
12:36:06.568,23.6251,40.1877
12:36:06.578,22.3126,36.4376
12:36:06.589,20.9376,35.4376
12:36:06.597,20.0626,32.3126
12:36:06.608,19.2501,30.6876
12:36:06.618,17.5001,28.8126
12:36:06.629,17.8751,29.0001
12:36:06.640,16.9376,26.4376
12:36:06.648,15.9376,25.8751
12:36:06.659,15.8751,24.5626
12:36:06.669,14.9376,22.2501
12:36:06.678,13.5626,20.5626
12:36:06.688,12.5625,19.3751
12:36:06.699,11,16.1876
12:36:06.709,9.8125,14.3751
12:36:06.719,7.8125,12
12:36:06.728,6.8125,9.3125
12:36:06.761,5,6.125
12:36:06.764,2.125,3.0625
12:36:06.766,0.4375,0.0625
12:36:06.770,-0.875,-3.0625
12:36:06.780,-2.6875,-5.8125
12:36:06.789,-5.25,-8.5
12:36:06.799,-7.0625,-10.625
12:36:06.809,-7.3125,-13.5001
12:36:06.824,-8.9375,-16.5626
12:36:06.829,-11.1875,-18.1876
12:36:06.839,-12.0625,-21.5626
12:36:06.849,-13.9376,-23.9376
12:36:06.859,-15.6251,-26.5001
12:36:06.870,-17.0001,-28.2501
12:36:06.880,-17.4376,-30.0626
12:36:06.889,-19.0626,-32.6876
12:36:06.899,-20.3751,-35.3126
12:36:06.910,-21.8751,-36.2501
12:36:06.919,-23.4376,-37.2501
12:36:06.929,-23.0626,-39.7502
12:36:06.939,-24.1251,-41.3752
12:36:06.960,-24.5001,-42.3752
12:36:06.963,-24.7501,-43.1252
12:36:06.989,-24.9376,-43.5627
12:36:06.990,-26.0626,-45.6252
12:36:06.994,-26.6876,-46.6252
12:36:07.001,-26.8751,-48.5002
12:36:07.029,-27.3751,-47.9377
12:36:07.032,-27.9376,-50.0627
12:36:07.034,-28.1876,-50.8752
12:36:07.041,-30.0626,-53.0627
12:36:07.070,-30.3751,-54.0627
12:36:07.073,-31.3126,-55.1877
12:36:07.074,-31.6876,-56.8127
12:36:07.081,-31.8751,-57.1877
12:36:07.090,-32.6876,-58.1252
12:36:07.119,-32.3126,-59.4377
12:36:07.122,-32.7501,-59.8752
12:36:07.124,-34.3126,-61.1877
12:36:07.131,-34.0001,-62.3127
12:36:07.139,-35.5626,-64.1252
12:36:07.149,-35.1876,-64.5002
12:36:07.159,-35.6251,-64.0002
12:36:07.169,-33.6876,-61.8752
12:36:07.180,-28.6251,-57.1877
12:36:07.189,-23.5001,-48.0002
12:36:07.199,-16.0626,-39.2502
12:36:07.209,-7.25,-27.3751
12:36:07.219,-0.125,-14.1251
12:36:07.229,9.25,-1.125
12:36:07.239,15.0001,10.875
12:36:07.249,21.5001,21.7501
12:36:07.258,27.0626,31.5001
12:36:07.270,30.3751,39.6877
12:36:07.279,33.2501,44.6877
12:36:07.289,34.0626,49.1877
12:36:07.300,35.3751,51.6252
12:36:07.309,36.0001,54.0627
12:36:07.320,37.1876,55.0002
12:36:07.329,36.8126,56.5002
12:36:07.340,37.3126,57.5002
12:36:07.349,36.8126,57.6252
12:36:07.371,37.0001,58.4377
12:36:07.373,37.5626,59.0002
12:36:07.389,37.7501,60.1252
12:36:07.391,38.1251,60.2502
12:36:07.399,38.1876,60.3752
12:36:07.409,37.6251,61.1877
12:36:07.420,37.5626,61.0627
12:36:07.429,36.4376,59.6877
12:36:07.439,34.6876,57.9377
12:36:07.451,32.6251,53.8752
12:36:07.459,31.1876,51.0627
12:36:07.469,28.8751,47.1877
12:36:07.479,27.0001,44.6252
12:36:07.489,26.0001,42.1252
12:36:07.499,23.8751,40.0627
12:36:07.509,23.0626,37.5001
12:36:07.519,22.4376,35.7501
12:36:07.529,21.8126,34.8751
12:36:07.540,21.0001,32.9376
12:36:07.549,19.8751,31.7501
12:36:07.559,19.0001,30.8126
12:36:07.576,18.0001,28.3126
12:36:07.579,17.1251,28.1876
12:36:07.589,16.1251,24.8126
12:36:07.599,14.3751,23.0001
12:36:07.609,12.25,20.0626
12:36:07.624,10.6875,17.3126
12:36:07.639,9.25,15.0001
12:36:07.641,6.625,11.3125
12:36:07.649,4.5625,8.6875
12:36:07.660,2.4375,6.8125
12:36:07.669,1.4375,3.0625
12:36:07.679,-0.6875,0.5625
12:36:07.689,-1.625,-2.5625
12:36:07.712,-3.9375,-4.875
12:36:07.714,-4.5625,-7.125
12:36:07.720,-6.9375,-9.8125
12:36:07.751,-7.8125,-12.4375
12:36:07.753,-9.25,-14.8751
12:36:07.755,-11.6875,-17.8126
12:36:07.759,-12.3125,-20.3751
12:36:07.789,-13.5626,-21.3126
12:36:07.793,-13.8751,-23.0626
12:36:07.794,-14.7501,-24.7501
12:36:07.801,-15.8751,-26.3126
12:36:07.810,-15.6876,-27.5626
12:36:07.838,-16.5001,-28.4376
12:36:07.840,-17.3751,-29.3126
12:36:07.842,-18.0001,-31.9376
12:36:07.849,-19.6876,-32.2501
12:36:07.878,-20.2501,-35.2501
12:36:07.879,-20.1876,-36.7501
12:36:07.883,-21.9376,-38.1251
12:36:07.890,-22.3126,-38.9376
12:36:07.900,-23.1251,-39.9377
12:36:07.910,-23.4376,-41.8752
12:36:07.920,-24.4376,-42.6252
12:36:07.929,-25.5001,-43.3752
12:36:07.950,-25.5001,-45.3752
12:36:07.954,-27.2501,-45.3127
12:36:07.965,-27.5626,-48.3127
12:36:07.974,-26.8751,-48.6877
12:36:07.984,-28.5626,-49.7502
12:36:07.995,-28.0626,-51.3127
12:36:08.004,-30.1876,-52.3127
12:36:08.014,-30.4376,-54.5627
12:36:08.042,-31.1876,-55.2502
12:36:08.044,-32.6876,-56.8752
12:36:08.046,-32.3751,-57.5627
12:36:08.054,-33.0626,-57.6877
12:36:08.064,-30.7501,-56.6252
12:36:08.074,-27.0001,-52.5002
12:36:08.084,-22.1876,-44.4377
12:36:08.094,-15.3126,-35.5626
12:36:08.104,-3.3125,-16.9376
12:36:08.114,5.8125,-4.25
12:36:08.125,13.2501,9.5625
12:36:08.134,20.9376,20.7501
12:36:08.145,25.8751,32.6876
12:36:08.154,30.5626,39.6252
12:36:08.164,33.8751,45.7502
12:36:08.174,35.7501,51.4377
12:36:08.184,36.4376,53.0002
12:36:08.194,36.5001,55.0627
12:36:08.204,36.0626,55.3752
12:36:08.214,34.3751,55.1877
12:36:08.224,33.3126,54.4377
12:36:08.234,32.7501,54.7502
12:36:08.244,31.9376,54.5002
12:36:08.254,31.2501,54.3752
12:36:08.264,31.2501,54.4377
12:36:08.275,30.6876,54.8752
12:36:08.284,30.6251,55.4377
12:36:08.294,30.9376,55.5002
12:36:08.304,30.5626,54.5002
12:36:08.314,29.5626,54.1252
12:36:08.328,28.7501,51.1252
12:36:08.334,26.2501,48.9377
12:36:08.344,24.5001,45.9377
12:36:08.354,23.1251,41.8752
12:36:08.364,21.6251,39.5627
12:36:08.374,20.8751,37.8126
12:36:08.384,19.5001,35.8751
12:36:08.394,19.1251,33.8126
12:36:08.404,17.5626,33.1876
12:36:08.414,17.0001,32.1251
12:36:08.424,16.0626,29.5001
12:36:08.437,14.8126,28.7501
12:36:08.444,13.8126,26.3751
12:36:08.454,11.9375,24.6876
12:36:08.469,10.6875,23.0001
12:36:08.474,8.9375,20.5001
12:36:08.509,8,18.6876
12:36:08.511,8.0625,16.9376
12:36:08.516,5.8125,15.5001
12:36:08.516,5.75,12.875
12:36:08.551,3.75,10.4375
12:36:08.553,2.1875,8.875
12:36:08.556,1.5625,5.5
12:36:08.562,0.5625,4.75
12:36:08.564,1.125,2.625
12:36:08.599,-0.0625,2.25
12:36:08.602,-0.0625,-0.125
12:36:08.603,-0.25,-0.125
12:36:08.607,0.25,-0.25
12:36:08.638,-4.5625,-4.625
12:36:08.641,-7.9375,-6.3125
12:36:08.643,-12.375,-8.4375
12:36:08.648,-17.4376,-9.4375
12:36:08.654,-26.0626,-13.4376
12:36:08.669,-35.0001,-15.5626
12:36:08.685,-48.6252,-20.3751
12:36:08.686,-63.5627,-27.8751
12:36:08.694,-66.5003,-25.5626
12:36:08.704,-62.6252,-19.1251
12:36:08.714,-59.9377,-15.0001
12:36:08.724,-64.2502,-13.3126
12:36:08.734,-66.3128,-11.875
12:36:08.744,-61.4377,-6.375
12:36:08.754,-57.0627,-2.5
12:36:08.764,-57.6877,-2.5625
12:36:08.774,-56.8127,-2.1875
12:36:08.784,-53.9377,-1.0625
12:36:08.796,-52.1252,-1.875
12:36:08.807,-52.0002,-1.75
12:36:08.814,-54.0002,-5.9375
12:36:08.824,-55.2502,-8.8125
12:36:08.835,-58.8752,-13.6251
12:36:08.845,-60.7502,-16.7501
12:36:08.854,-62.1877,-21.6251
12:36:08.864,-64.2502,-24.8751
12:36:08.875,-64.9377,-28.2501
12:36:08.884,-64.3752,-29.0626
12:36:08.895,-62.2502,-28.8751
12:36:08.904,-57.9377,-24.7501
12:36:08.919,-52.1252,-19.5001
12:36:08.934,-44.6252,-9.8125
12:36:08.937,-36.9376,-0.4375
12:36:08.944,-27.4376,11.3125
12:36:08.954,-20.3126,23.1876
12:36:08.965,-12.1875,32.5626
12:36:08.974,-6.6875,41.6252
12:36:08.984,-1.4375,48.0627
12:36:08.994,1.75,55.6877
12:36:09.004,4.5,57.7502
12:36:09.014,5.75,61.1252
12:36:09.024,6.625,62.6252
12:36:09.034,8,64.0627
12:36:09.044,7.625,63.1877
12:36:09.054,8.0625,64.1252
12:36:09.064,8.0625,63.7502
12:36:09.079,6.875,63.6252
12:36:09.085,6.8125,62.5002
12:36:09.094,6.75,62.2502
12:36:09.104,5.125,63.5002
12:36:09.114,7.0625,61.7502
12:36:09.125,5.9375,61.2502
12:36:09.134,5.75,61.3752
12:36:09.144,5.0625,59.0627
12:36:09.154,5.0625,58.6877
12:36:09.186,4.625,56.9377
12:36:09.188,2.625,53.4377
12:36:09.190,2.1875,50.7502
12:36:09.196,1.125,47.6877
12:36:09.224,-0.6875,45.1877
12:36:09.225,-2.5625,43.0002
12:36:09.228,-3.3125,40.7502
12:36:09.236,-2.75,40.6252
12:36:09.263,-2.4375,39.3127
12:36:09.264,-3.125,37.9376
12:36:09.267,-3.625,37.5001
12:36:09.296,-4.1875,35.9376
12:36:09.299,-4.6875,35.9376
12:36:09.302,-4.875,35.6876
12:36:09.327,-5.625,35.1251
12:36:09.330,-4,35.3751
12:36:09.331,-2.8125,35.1876
12:36:09.339,-1.75,34.6251
12:36:09.344,-1.4375,34.3751
12:36:09.354,-1.9375,30.8751
12:36:09.364,-2.25,30.1251
12:36:09.376,-3.875,26.6251
12:36:09.385,-5.375,23.1251
12:36:09.394,-6.375,19.9376
12:36:09.405,-8.125,16.6251
12:36:09.414,-8.8125,12.8125
12:36:09.424,-11.0625,10.1875
12:36:09.434,-11.375,6.4375
12:36:09.444,-14.1876,2.4375
12:36:09.454,-16.0001,-1.75
12:36:09.464,-18.8751,-6.5
12:36:09.474,-21.0001,-9.8125
12:36:09.484,-22.8126,-14.1251
12:36:09.495,-25.3751,-16.5626
12:36:09.504,-26.7501,-21.3751
12:36:09.514,-28.2501,-23.1251
12:36:09.524,-28.9376,-27.0626
12:36:09.534,-31.1251,-29.1251
12:36:09.544,-31.8126,-34.1876
12:36:09.555,-34.0001,-35.7501
12:36:09.564,-34.1876,-39.8127
12:36:09.574,-36.1251,-41.3752
12:36:09.584,-37.2501,-46.4377
12:36:09.595,-39.4377,-48.9377
12:36:09.604,-40.5627,-53.1252
12:36:09.614,-42.2502,-55.1877
12:36:09.624,-43.4377,-59.2502
12:36:09.634,-45.1877,-60.8752
12:36:09.644,-46.8127,-64.6877
12:36:09.654,-47.8127,-68.2503
12:36:09.665,-49.9377,-70.7503
12:36:09.674,-51.5627,-73.3753
12:36:09.684,-52.5627,-75.0628
12:36:09.694,-54.5002,-77.8753
12:36:09.704,-56.0002,-79.0628
12:36:09.714,-57.3752,-81.5003
12:36:09.724,-58.0627,-83.0628
12:36:09.734,-59.0002,-84.1878
12:36:09.744,-59.3752,-84.3128
12:36:09.754,-57.5627,-84.4378
12:36:09.765,-53.7502,-78.4378
12:36:09.774,-46.6877,-71.6878
12:36:09.784,-38.9376,-59.9377
12:36:09.795,-29.3126,-49.0002
12:36:09.805,-21.1876,-33.9376
12:36:09.814,-11.125,-20.0001
12:36:09.828,-2.8125,-4.0625
12:36:09.836,6.75,8.5625
12:36:09.846,13.4376,23.1876
12:36:09.854,21.0001,34.7501
12:36:09.886,25.8751,45.2502
12:36:09.889,29.6251,53.3752
12:36:09.891,33.3751,60.3752
12:36:09.894,36.8126,66.1253
12:36:09.930,40.0002,71.3128
12:36:09.932,41.5627,75.0628
12:36:09.934,40.7502,76.6878
12:36:09.936,42.3127,78.8753
12:36:09.965,43.8752,81.2503
12:36:09.967,44.3127,82.1253
12:36:10.001,45.8752,83.8128
12:36:10.003,45.2502,85.7503
12:36:10.026,44.6877,83.9378
12:36:10.026,43.8752,83.9378
12:36:10.028,42.9377,82.5628
12:36:10.029,41.9377,81.5628
12:36:10.048,39.7502,77.9378
12:36:10.049,36.6876,74.7503
12:36:10.050,34.5626,70.4378
12:36:10.060,31.2501,65.5002
12:36:10.069,28.5626,60.3752
12:36:10.079,25.8751,56.1877
12:36:10.089,23.0001,52.1877
12:36:10.099,20.7501,49.1877
12:36:10.110,20.1251,46.3127
12:36:10.119,19.8751,43.7502
12:36:10.129,18.9376,42.0002
12:36:10.139,18.4376,39.8127
12:36:10.150,17.0626,37.1251
12:36:10.159,16.1251,34.1251
12:36:10.170,13.1251,30.5001
12:36:10.179,11.5625,26.0001
12:36:10.191,8.625,23.1876
12:36:10.216,6.125,20.1251
12:36:10.217,4.8125,15.6251
12:36:10.233,3,11.6875
12:36:10.236,1.0625,8.1875
12:36:10.240,-1.75,2.9375
12:36:10.249,-4.9375,-1.8125
12:36:10.259,-7.875,-8.4375
12:36:10.270,-10.75,-13.2501
12:36:10.279,-14.0001,-18.7501
12:36:10.289,-17.8751,-23.5001
12:36:10.299,-20.1876,-28.3751
12:36:10.309,-23.6251,-33.3751
12:36:10.320,-25.3126,-37.2501
12:36:10.330,-28.5626,-41.3752
12:36:10.339,-30.5626,-45.0002
12:36:10.349,-32.0001,-48.5002
12:36:10.359,-33.4376,-50.9377
12:36:10.371,-35.0001,-53.2502
12:36:10.380,-37.5001,-55.8752
12:36:10.389,-38.7501,-59.0002
12:36:10.399,-40.5627,-62.5627
12:36:10.409,-42.0627,-63.6877
12:36:10.420,-43.6252,-66.3753
12:36:10.429,-44.3752,-66.9378
12:36:10.439,-45.5002,-67.5628
12:36:10.449,-44.0002,-66.9378
12:36:10.460,-41.5627,-64.1252
12:36:10.471,-40.6252,-62.8752
12:36:10.479,-38.3751,-61.6877
12:36:10.490,-37.0626,-59.7502
12:36:10.500,-35.2501,-58.6252
12:36:10.511,-34.8751,-58.0002
12:36:10.519,-35.6251,-57.3127
12:36:10.529,-36.0626,-57.9377
12:36:10.539,-37.8751,-57.9377
12:36:10.549,-36.6251,-56.8127
12:36:10.559,-36.4376,-56.3752
12:36:10.570,-36.4376,-55.0002
12:36:10.601,-36.5001,-55.3127
12:36:10.603,-36.5626,-55.0002
12:36:10.605,-37.0626,-54.7502
12:36:10.614,-38.0001,-56.0627
12:36:10.620,-37.6251,-54.1877
12:36:10.629,-36.1876,-53.5002
12:36:10.639,-34.0001,-51.9377
12:36:10.649,-31.5626,-49.9377
12:36:10.687,-29.1251,-45.5627
12:36:10.688,-23.2501,-39.1252
12:36:10.693,-17.6251,-30.0626
12:36:10.693,-9.8125,-18.8126
12:36:10.701,-1,-6.625
12:36:10.729,6.6875,7.625
12:36:10.732,15.0626,19.1876
12:36:10.734,20.8751,32.0626
12:36:10.739,26.8126,40.8127
12:36:10.781,30.0001,47.2502
12:36:10.781,32.8126,54.0627
12:36:10.783,35.7501,58.9377
12:36:10.786,38.2501,62.8127
12:36:10.792,39.6877,65.0002
12:36:10.818,40.7502,65.9378
12:36:10.820,40.4377,65.8753
12:36:10.822,40.1252,65.5003
12:36:10.829,38.9376,65.6878
12:36:10.839,38.9376,63.8127
12:36:10.849,38.0001,61.5627
12:36:10.859,37.1251,61.6877
12:36:10.871,37.0626,60.1252
12:36:10.879,36.2501,59.0002
12:36:10.889,34.5001,57.1252
12:36:10.900,32.5626,54.3127
12:36:10.909,30.0626,51.8752
12:36:10.919,27.3751,47.0627
12:36:10.929,24.6876,42.1877
12:36:10.940,21.3751,37.5001
12:36:10.955,19.6876,34.3126
12:36:10.960,17.2501,28.4376
12:36:10.969,15.6876,25.8751
12:36:10.979,14.2501,21.8751
12:36:10.989,12.6875,19.1876
12:36:11.000,10.8125,16.0001
12:36:11.009,9.5625,12.5625
12:36:11.020,7.375,9
12:36:11.029,5.125,6.375
12:36:11.040,2.4375,2.375
12:36:11.050,1.0625,0.0625
12:36:11.059,-1.5625,-2.875
12:36:11.070,-4.875,-5.75
12:36:11.079,-6,-8.6875
12:36:11.089,-8.4375,-11.6875
12:36:11.099,-10.875,-13.6876
12:36:11.109,-12.625,-17.5001
12:36:11.119,-13.9376,-19.5001
12:36:11.129,-16.0626,-21.1876
12:36:11.140,-17.8751,-24.0626
12:36:11.150,-19.5001,-25.9376
12:36:11.161,-21.0626,-27.0626
12:36:11.170,-21.5001,-28.3126
12:36:11.179,-21.0626,-28.3751
12:36:11.189,-18.5001,-26.6251
12:36:11.200,-16.7501,-26.0626
12:36:11.210,-16.4376,-24.7501
12:36:11.221,-16.1251,-25.8751
12:36:11.230,-15.5001,-24.8126
12:36:11.239,-15.7501,-25.3126
12:36:11.259,-16.8751,-26.0001
12:36:11.265,-18.8126,-26.8126
12:36:11.274,-19.3751,-28.3126
12:36:11.282,-20.8126,-26.8751
12:36:11.296,-20.9376,-28.0001
12:36:11.303,-20.2501,-27.6251
12:36:11.311,-21.0001,-26.6876
12:36:11.320,-20.8126,-26.5001
12:36:11.329,-20.1251,-26.3126
12:36:11.339,-18.8126,-25.3751
12:36:11.349,-18.6876,-23.9376
12:36:11.359,-18.3126,-25.6876
12:36:11.370,-20.1251,-27.1876
12:36:11.380,-21.5626,-28.5001
12:36:11.389,-22.5001,-30.8751
12:36:11.429,-24.1876,-32.2501
12:36:11.431,-25.1251,-35.0626
12:36:11.433,-26.1251,-37.0626
12:36:11.435,-27.4376,-38.6876
12:36:11.440,-28.0626,-40.1252
12:36:11.465,-28.4376,-40.5627
12:36:11.468,-28.8751,-41.0002
12:36:11.470,-26.1876,-38.8751
12:36:11.500,-20.4376,-34.3751
12:36:11.504,-14.6251,-24.5001
12:36:11.537,-5.75,-15.3126
12:36:11.540,2.5,-3.125
12:36:11.568,12.75,11
12:36:11.568,22.5001,24.5626
12:36:11.581,30.3751,37.1876
12:36:11.584,37.6251,48.3752
12:36:11.600,42.1877,57.3127
12:36:11.600,46.5002,64.1877
12:36:11.601,49.3752,67.8753
12:36:11.604,50.3752,71.3128
12:36:11.610,51.3752,72.1253
12:36:11.619,51.2502,72.5003
12:36:11.629,50.5627,72.0003
12:36:11.639,48.6252,69.4378
12:36:11.649,47.6877,67.8753
12:36:11.660,47.3752,66.0003
12:36:11.669,46.5002,65.6253
12:36:11.681,44.9377,63.3752
12:36:11.689,44.7502,61.6877
12:36:11.704,43.8127,60.1877
12:36:11.709,42.0002,55.0627
12:36:11.719,39.1876,51.3752
12:36:11.729,35.8126,45.2502
12:36:11.739,30.5626,38.0626
12:36:11.749,24.9376,30.8126
12:36:11.759,19.0626,23.0001
12:36:11.772,13.3126,16.5626
12:36:11.780,9.125,9.1875
12:36:11.789,5.1875,4.25
12:36:11.800,2.5,0.4375
12:36:11.809,0.5,-3.1875
12:36:11.820,-1.5625,-5.875
12:36:11.831,-3.75,-8.125
12:36:11.842,-6.75,-11
12:36:11.849,-8.1875,-12.8125
12:36:11.884,-11.25,-14.4376
12:36:11.886,-12.8125,-15.5001
12:36:11.887,-14.5626,-17.6876
12:36:11.890,-16.3751,-19.1876
12:36:11.899,-18.2501,-20.1876
12:36:11.910,-19.0001,-22.0626
12:36:11.920,-18.3751,-21.4376
12:36:11.929,-17.6876,-21.0001
12:36:11.939,-18.7501,-21.8751
12:36:11.950,-17.5626,-21.3126
12:36:11.965,-16.3751,-20.0001
12:36:11.975,-12.125,-16.6876
12:36:11.985,-11.6875,-15.7501
12:36:11.995,-11.5625,-15.8126
12:36:12.005,-11.9375,-15.6251
12:36:12.016,-12.1875,-16.5626
12:36:12.024,-11.75,-14.9376
12:36:12.036,-11.8125,-15.3751
12:36:12.045,-12.6875,-15.4376
12:36:12.055,-13.8126,-17.0001
12:36:12.068,-13.6251,-16.2501
12:36:12.080,-14.9376,-16.0001
12:36:12.086,-15.1876,-17.1876
12:36:12.096,-15.3126,-18.5001
12:36:12.105,-16.8751,-18.5001
12:36:12.114,-17.6876,-20.9376
12:36:12.138,-20.6251,-23.1876
12:36:12.140,-20.4376,-24.3126
12:36:12.168,-21.3126,-26.8751
12:36:12.169,-22.3751,-27.7501
12:36:12.172,-24.0626,-29.8126
12:36:12.176,-24.7501,-32.3126
12:36:12.214,-26.0626,-34.1876
12:36:12.215,-27.1251,-36.9376
12:36:12.218,-28.6251,-38.4376
12:36:12.221,-28.6876,-41.6252
12:36:12.225,-29.2501,-41.8127
12:36:12.256,-29.0001,-44.8752
12:36:12.262,-29.3751,-46.6252
12:36:12.262,-29.3126,-48.2502
12:36:12.265,-30.5626,-49.5627
12:36:12.300,-30.8126,-53.1877
12:36:12.303,-32.0626,-53.9377
12:36:12.304,-32.6251,-57.5627
12:36:12.308,-33.3751,-59.1252
12:36:12.316,-33.5626,-62.1252
12:36:12.326,-33.3751,-61.3127
12:36:12.336,-30.2501,-59.6877
12:36:12.345,-25.1251,-53.8127
12:36:12.355,-18.6876,-45.6877
12:36:12.364,-10.8125,-34.0001
12:36:12.376,-1.625,-22.7501
12:36:12.384,5.6875,-10.75
12:36:12.394,12.8125,-0.8125
12:36:12.405,18.4376,9.625
12:36:12.414,24.5001,20.1251
12:36:12.424,28.3126,26.1251
12:36:12.434,30.7501,32.5626
12:36:12.446,32.5001,35.0626
12:36:12.455,32.9376,37.5001
12:36:12.465,33.5001,38.2501
12:36:12.475,32.7501,38.8751
12:36:12.484,32.0001,37.0626
12:36:12.499,31.8751,38.0001
12:36:12.507,31.8126,36.7501
12:36:12.514,31.7501,36.1876
12:36:12.524,30.5001,34.3126
12:36:12.534,30.0001,33.0626
12:36:12.545,28.0626,31.5001
12:36:12.554,26.4376,29.5001
12:36:12.566,23.8126,28.0001
12:36:12.587,22.5626,24.9376
12:36:12.589,19.5001,20.6876
12:36:12.598,16.1251,17.2501
12:36:12.605,11.875,12.75
12:36:12.620,8.0625,8.25
12:36:12.629,5,2.9375
12:36:12.635,1.3125,0.125
12:36:12.648,-1.125,-4.125
12:36:12.657,-3.5,-6.8125
12:36:12.666,-5.5625,-9
12:36:12.675,-7.875,-11.8125
12:36:12.685,-9.3125,-13.5001
12:36:12.696,-10.25,-13.5626
12:36:12.705,-11.25,-13
12:36:12.715,-10.125,-13.2501
12:36:12.726,-9.875,-12
12:36:12.734,-9.25,-10.25
12:36:12.746,-8.8125,-9.9375
12:36:12.756,-8.9375,-10.1875
12:36:12.766,-9.3125,-10.0625
12:36:12.776,-8.6875,-9.4375
12:36:12.785,-9.3125,-10.875
12:36:12.796,-10.1875,-9.9375
12:36:12.809,-9,-11.125
12:36:12.816,-6.3125,-8.75
12:36:12.845,-5.6875,-7.5
12:36:12.849,-4.6875,-7.25
12:36:12.852,-3.5,-5.5625
12:36:12.886,-3.8125,-3.8125
12:36:12.887,-3.3125,-5.0625
12:36:12.916,-2.9375,-4
12:36:12.987,-3.125,-4.4375
12:36:12.987,-3.625,-5.625
12:36:12.989,-5.875,-6.375
12:36:12.989,-6.5625,-8.125
12:36:12.990,-7.5,-7.3125
12:36:12.992,-8.75,-9.375
12:36:12.999,-9.625,-10.75
12:36:12.999,-11.1875,-10.25
12:36:12.999,-11.125,-12.4375
12:36:13.010,-11.125,-12.375
12:36:13.015,-12.75,-13.9376
12:36:13.025,-13.9376,-16.3751
12:36:13.034,-14.8751,-17.4376
12:36:13.046,-15.8751,-20.7501
12:36:13.056,-17.0001,-21.6251
12:36:13.065,-18.3751,-24.8126
12:36:13.075,-19.1251,-26.6251
12:36:13.085,-20.0001,-28.2501
12:36:13.095,-20.2501,-30.7501
12:36:13.106,-20.8126,-32.5626
12:36:13.117,-19.8126,-32.4376
12:36:13.126,-20.6251,-33.1251
12:36:13.136,-20.3126,-35.9376
12:36:13.162,-21.4376,-38.8126
12:36:13.164,-22.4376,-40.8127
12:36:13.166,-27.0626,-53.3752
12:36:13.175,-28.9376,-55.8127
12:36:13.185,-29.0001,-58.6877
12:36:13.195,-29.3751,-60.1252
12:36:13.205,-28.7501,-61.5002
12:36:13.214,-26.7501,-60.4377
12:36:13.225,-22.3751,-55.5627
12:36:13.234,-16.7501,-47.8752
12:36:13.245,-8.875,-37.8126
12:36:13.256,-0.125,-24.5626
12:36:13.265,9.875,-10.1875
12:36:13.275,19.8751,3.5625
12:36:13.285,28.6876,17.5626
12:36:13.294,36.3751,28.0001
12:36:13.305,41.8752,37.3751
12:36:13.315,44.3752,41.3127
12:36:13.325,45.5627,44.1877
12:36:13.335,44.6877,44.0002
12:36:13.346,43.0627,43.6252
12:36:13.355,40.4377,41.0002
12:36:13.365,37.3126,38.7501
12:36:13.374,35.6251,36.7501
12:36:13.384,32.3751,34.5626
12:36:13.396,30.7501,32.1251
12:36:13.405,27.9376,30.8751
12:36:13.416,26.1876,30.0626
12:36:13.426,24.3751,28.1876
12:36:13.436,22.5626,25.5626
12:36:13.448,20.8751,26.4376
12:36:13.459,19.8126,24.7501
12:36:13.465,16.2501,22.6876
12:36:13.475,13.9376,20.3126
12:36:13.485,11.75,16.5626
12:36:13.494,9.1875,14.8751
12:36:13.506,7.8125,11.875
12:36:13.515,6.6875,11.1875
12:36:13.525,5.5625,9.4375
12:36:13.535,4.8125,8.625
12:36:13.545,4.8125,7.875
12:36:13.555,3.375,8.125
12:36:13.565,3.1875,7.75
12:36:13.575,2.9375,8.1875
12:36:13.585,4.375,11.3125
12:36:13.595,6.6875,11.625
12:36:13.626,4.25,11.875
12:36:13.628,5.9375,11.8125
12:36:13.631,7.25,12.6875
12:36:13.636,8.5,14.6251
12:36:13.666,9.75,15.2501
12:36:13.668,10.6875,16.0626
12:36:13.670,11.125,16.5001
12:36:13.677,11,17.0001
12:36:13.709,12.1875,17.6251
12:36:13.713,12.5,16.6251
12:36:13.714,11.4375,16.1251
12:36:13.721,10.75,15.0001
12:36:13.731,9.25,12.3125
12:36:13.735,7.1875,9.8125
12:36:13.770,6,8.5
12:36:13.774,3.4375,7
12:36:13.774,2.6875,4.9375
12:36:13.781,-0.3125,2.125
12:36:13.788,-3.375,-0.1875
12:36:13.798,-5.3125,-4.6875
12:36:13.805,-7.4375,-5.8125
12:36:13.815,-8.1875,-8.8125
12:36:13.825,-10.6875,-10.75
12:36:13.836,-12.25,-13.6251
12:36:13.847,-13.9376,-15.5001
12:36:13.857,-15.5001,-18.3126
12:36:13.866,-16.8751,-20.5626
12:36:13.876,-20.3126,-24.8126
12:36:13.885,-21.3751,-28.5001
12:36:13.904,-22.5626,-30.6251
12:36:13.910,-22.5001,-31.9376
12:36:13.919,-24.1876,-34.6251
12:36:13.926,-23.4376,-36.6876
12:36:13.941,-25.3126,-38.8126
12:36:13.948,-26.1251,-42.2502
12:36:13.958,-27.7501,-44.5002
12:36:13.965,-28.6251,-48.1877
12:36:13.975,-29.8751,-50.1877
12:36:13.985,-29.9376,-52.6252
12:36:13.995,-30.9376,-54.1252
12:36:14.005,-31.4376,-57.6252
12:36:14.015,-31.8751,-58.1252
12:36:14.025,-29.5626,-57.5627
12:36:14.036,-26.1251,-54.8127
12:36:14.046,-21.6251,-47.9377
12:36:14.057,-15.6251,-40.4377
12:36:14.068,-8.75,-30.1876
12:36:14.077,-2.4375,-21.8751
12:36:14.085,3.25,-11.5
12:36:14.095,9.5625,-3.3125
12:36:14.105,15.3126,6.3125
12:36:14.115,19.2501,12.875
12:36:14.125,21.7501,18.3126
12:36:14.135,24.7501,22.0001
12:36:14.145,24.5626,24.1251
12:36:14.155,24.8751,25.0001
12:36:14.166,22.6251,24.6251
12:36:14.178,20.7501,24.0001
12:36:14.185,18.6876,20.9376
12:36:14.196,16.6876,21.2501
12:36:14.207,15.5001,19.6876
12:36:14.215,13.7501,19.3751
12:36:14.232,13.5626,19.9376
12:36:14.235,13.5001,19.3126
12:36:14.251,13.8751,20.8751
12:36:14.265,13.4376,21.3751
12:36:14.268,11.625,20.6876
12:36:14.278,9.3125,18.0001
12:36:14.285,6.0625,16.1251
12:36:14.295,2.5,12.8125
12:36:14.305,-0.8125,8.6875
12:36:14.317,-3.0625,6.5
12:36:14.346,-2.1875,6.75
12:36:14.349,-3.375,6
12:36:14.353,-1.9375,5.625
12:36:14.356,2.6875,10.625
12:36:14.392,7.75,15.4376
12:36:14.394,11.625,20.6876
12:36:14.396,14.2501,22.1876
12:36:14.399,16.8126,26.0001
12:36:14.405,17.0626,26.6876
12:36:14.443,16.3126,25.3751
12:36:14.444,15.2501,25.3126
12:36:14.446,14.6876,24.7501
12:36:14.449,14.7501,23.6876
12:36:14.455,15.1251,24.2501
12:36:14.488,14.5626,23.1876
12:36:14.489,14.5626,22.6876
12:36:14.493,14.0001,21.0626
12:36:14.498,14.0001,20.8751
12:36:14.506,13.0625,20.5001
12:36:14.515,10.875,18.0626
12:36:14.525,8.5,14.3126
12:36:14.538,8.25,13.3751
12:36:14.548,8.125,12.6875
12:36:14.555,7.3125,10.4375
12:36:14.565,7.1875,8.4375
12:36:14.575,6.6875,7.125
12:36:14.585,6.0625,5.875
12:36:14.596,5,2.5
12:36:14.607,3.625,-0.125
12:36:14.615,0.6875,-1.875
12:36:14.625,-0.125,-5.375
12:36:14.635,-2.1875,-8.4375
12:36:14.645,-3.25,-9.1875
12:36:14.655,-5.125,-12
12:36:14.665,-6.75,-13.5001
12:36:14.675,-7.375,-15.4376
12:36:14.685,-7.6875,-17.0626
12:36:14.695,-9.1875,-19.7501
12:36:14.705,-10.125,-21.1251
12:36:14.716,-11,-22.9376
12:36:14.728,-11.5,-24.1251
12:36:14.736,-12.4375,-24.8751
12:36:14.745,-12.5,-27.0001
12:36:14.755,-13.8751,-28.7501
12:36:14.765,-13.7501,-28.4376
12:36:14.775,-14.5001,-31.1251
12:36:14.785,-15.4376,-31.8126
12:36:14.795,-17.3751,-35.1251
12:36:14.807,-18.6251,-36.0001
12:36:14.815,-19.4376,-37.7501
12:36:14.825,-19.0626,-38.1251
12:36:14.835,-19.5626,-38.8126
12:36:14.845,-20.1876,-40.4377
12:36:14.855,-21.0001,-41.5002
12:36:14.865,-21.7501,-42.9377
12:36:14.875,-22.2501,-43.8127
12:36:14.885,-21.7501,-44.0002
12:36:14.895,-19.6251,-41.0627
12:36:14.906,-15.7501,-35.5626
12:36:14.918,-10.75,-28.1251
12:36:14.925,-2.75,-17.7501
12:36:14.935,3.5625,-7.8125
12:36:14.945,11.5625,5.0625
12:36:14.955,18.9376,14.8751
12:36:14.966,26.7501,28.0626
12:36:14.975,32.5001,36.3751
12:36:14.985,36.7501,44.0002
12:36:14.995,40.8752,50.1252
12:36:15.006,41.8752,54.8127
12:36:15.019,43.1252,58.2502
12:36:15.028,44.3127,60.0002
12:36:15.035,43.0627,62.4377
12:36:15.046,43.7502,62.9377
12:36:15.055,43.5002,65.5003
12:36:15.077,45.3752,66.6253
12:36:15.079,46.0627,70.0628
12:36:15.111,47.0002,71.0003
12:36:15.113,47.5627,71.1253
12:36:15.119,48.5002,74.3128
12:36:15.119,49.2502,74.5003
12:36:15.152,47.8127,74.5003
12:36:15.154,47.5627,75.0628
12:36:15.156,53.0627,76.5628
12:36:15.159,53.0002,75.3753
12:36:15.165,52.6877,72.6253
12:36:15.196,52.1877,70.8753
12:36:15.198,53.0002,68.6878
12:36:15.202,52.1877,65.1253
12:36:15.205,53.2502,64.0627
12:36:15.244,53.5002,62.1252
12:36:15.247,53.7502,59.4377
12:36:15.261,54.2502,58.9377
12:36:15.266,54.3127,56.4377
12:36:15.280,55.6877,56.0002
12:36:15.280,56.3127,54.8127
12:36:15.293,56.6252,53.7502
12:36:15.299,56.7502,52.1877
12:36:15.299,56.3127,51.0627
12:36:15.306,55.8127,48.2502
12:36:15.315,55.5002,46.1877
12:36:15.325,54.9377,43.9377
12:36:15.335,54.6877,43.6877
12:36:15.345,54.2502,40.5627
12:36:15.356,53.0627,38.0626
12:36:15.365,51.8752,36.2501
12:36:15.376,50.2502,33.2501
12:36:15.387,48.3127,28.8126
12:36:15.398,45.8752,25.7501
12:36:15.405,43.1877,23.0626
12:36:15.415,41.5627,20.0001
12:36:15.425,39.8127,16.9376
12:36:15.435,38.2501,14.2501
12:36:15.445,37.8751,12
12:36:15.456,37.0626,9.125
12:36:15.466,35.4376,6.5
12:36:15.475,34.4376,4.25
12:36:15.485,35.0626,2.9375
12:36:15.495,35.5001,1
12:36:15.505,35.1251,-0.625
12:36:15.515,33.8751,-2.3125
12:36:15.525,32.9376,-4.5
12:36:15.535,31.2501,-7.6875
12:36:15.550,30.1251,-10.125
12:36:15.559,27.8751,-12.6875
12:36:15.568,26.0626,-14.1876
12:36:15.583,24.8126,-16.6251
12:36:15.586,24.1251,-18.0001
12:36:15.603,23.1876,-21.1876
12:36:15.605,21.5626,-23.1876
12:36:15.616,20.3126,-24.8751
12:36:15.625,18.9376,-27.8126
12:36:15.635,17.3751,-30.0626
12:36:15.646,16.4376,-30.8751
12:36:15.655,15.8751,-32.9376
12:36:15.670,15.0001,-35.0001
12:36:15.675,12.9375,-37.8126
12:36:15.687,12.75,-38.4376
12:36:15.696,11.625,-41.1252
12:36:15.722,9.875,-43.8752
12:36:15.724,8.625,-44.3127
12:36:15.727,7.9375,-46.5627
12:36:15.761,6.3125,-49.3752
12:36:15.761,5.1875,-50.8752
12:36:15.766,3.9375,-53.6252
12:36:15.766,3.125,-54.6877
12:36:15.796,2.125,-56.3752
12:36:15.798,2.125,-56.1877
12:36:15.800,4.4375,-53.2502
12:36:15.809,8.1875,-48.8752
12:36:15.830,12.625,-40.8127
12:36:15.832,17.7501,-33.6251
12:36:15.836,23.0626,-23.3751
12:36:15.870,28.4376,-15.1876
12:36:15.872,33.8751,-5.3125
12:36:15.876,37.8751,2.75
12:36:15.879,42.1877,11.0625
12:36:15.887,45.5002,16.8126
12:36:15.898,48.0002,22.8126
12:36:15.905,50.1252,25.7501
12:36:15.915,51.1252,29.9376
12:36:15.926,51.5002,30.7501
12:36:15.937,51.5002,32.6251
12:36:15.945,51.1877,33.2501
12:36:15.956,51.0627,35.0626
12:36:15.965,50.1877,34.6251
12:36:15.975,50.6252,36.8751
12:36:15.985,50.5627,36.8751
12:36:16.000,50.4377,38.9376
12:36:16.010,49.9377,37.7501
12:36:16.021,49.3752,39.3752
12:36:16.032,48.7502,38.9376
12:36:16.045,46.5002,38.6251
12:36:16.050,45.1252,36.5001
12:36:16.060,41.0627,34.0001
12:36:16.070,38.0001,30.6251
12:36:16.080,35.8751,27.3751
12:36:16.090,32.9376,25.1251
12:36:16.102,31.3126,21.7501
12:36:16.110,29.6876,21.0001
12:36:16.120,28.5001,19.3126
12:36:16.130,27.8126,17.4376
12:36:16.140,26.9376,16.8126
12:36:16.150,26.3126,15.7501
12:36:16.160,25.6251,15.5001
12:36:16.172,24.5001,14.8751
12:36:16.180,23.8751,13.6251
12:36:16.191,22.3751,12.625
12:36:16.200,20.7501,12.5625
12:36:16.210,20.2501,10.4375
12:36:16.221,19.7501,8.3125
12:36:16.231,17.8126,5.9375
12:36:16.241,15.8126,4.0625
12:36:16.250,14.1876,1.5625
12:36:16.260,12.6875,1.125
12:36:16.270,11.3125,-1.25
12:36:16.280,10,-4.0625
12:36:16.291,7.3125,-7.0625
12:36:16.302,5,-9.9375
12:36:16.311,3.5,-11.375
12:36:16.320,1.3125,-14.6876
12:36:16.330,-0.5,-16.8126
12:36:16.340,-2.375,-18.3126
12:36:16.350,-3.1875,-21.4376
12:36:16.362,-3.875,-23.1876
12:36:16.371,-5.1875,-24.7501
12:36:16.380,-6.0625,-26.5001
12:36:16.390,-7.5625,-27.7501
12:36:16.400,-8.0625,-28.1876
12:36:16.410,-8.5,-30.3126
12:36:16.423,-9.3125,-31.2501
12:36:16.430,-11,-33.4376
12:36:16.441,-13.1251,-34.0626
12:36:16.450,-13.5626,-37.5626
12:36:16.464,-14.9376,-39.1876
12:36:16.494,-16.2501,-39.5627
12:36:16.497,-17.3126,-41.1877
12:36:16.499,-17.8751,-42.9377
12:36:16.500,-18.8126,-44.1252
12:36:16.532,-19.6876,-45.8752
12:36:16.534,-20.3751,-46.7502
12:36:16.536,-21.3126,-48.0627
12:36:16.541,-22.2501,-47.3127
12:36:16.569,-22.1251,-50.1877
12:36:16.645,-23.3751,-50.4377
12:36:16.645,-23.5626,-52.5627
12:36:16.651,-24.7501,-53.8752
12:36:16.652,-25.0001,-54.0627
12:36:16.652,-25.1876,-56.0627
12:36:16.661,-24.3126,-54.0002
12:36:16.671,-22.3751,-51.6252
12:36:16.680,-17.1251,-44.8752
12:36:16.690,-11.8125,-37.8126
12:36:16.700,-5.875,-28.5626
12:36:16.710,0.6875,-19.0001
12:36:16.720,8,-8.3125
12:36:16.730,13,1.4375
12:36:16.741,19.1251,9.9375
12:36:16.752,22.3751,17.1876
12:36:16.760,26.0626,23.0001
12:36:16.771,28.0626,28.0001
12:36:16.780,29.7501,32.8751
12:36:16.796,30.9376,35.0001
12:36:16.801,32.0626,36.8126
12:36:16.813,32.1251,38.5626
12:36:16.821,38.6876,51.2502
12:36:16.830,39.1252,53.1252
12:36:16.840,38.8751,53.2502
12:36:16.850,38.9376,53.8752
12:36:16.867,38.1251,54.1252
12:36:16.872,36.7501,53.3127
12:36:16.887,35.1876,50.3127
12:36:16.900,33.7501,48.9377
12:36:16.902,32.3751,46.0627
12:36:16.918,29.3126,43.9377
12:36:16.921,28.6251,41.9377
12:36:16.933,27.5626,39.8127
12:36:16.940,25.7501,38.8751
12:36:16.950,24.8126,36.3751
12:36:16.960,23.6251,35.1251
12:36:16.970,23.8751,35.4376
12:36:17.005,23.4376,33.6876
12:36:17.008,22.9376,33.5001
12:36:17.009,22.0001,31.5001
12:36:17.013,20.1251,30.7501
12:36:17.020,20.0626,28.8751
12:36:17.030,18.2501,27.1251
12:36:17.041,16.1251,24.6876
12:36:17.053,14.8126,23.2501
12:36:17.060,13.125,22.3751
12:36:17.070,12.25,20.3126
12:36:17.080,10.75,18.3126
12:36:17.091,10.4375,15.0626
12:36:17.100,8.3125,13.0625
12:36:17.110,6.8125,10.0625
12:36:17.120,5.1875,8.75
12:36:17.130,5.125,7
12:36:17.141,3.3125,4.1875
12:36:17.150,1.875,1.9375
12:36:17.160,0.3125,-0.4375
12:36:17.172,-0.875,-0.625
12:36:17.180,-1.9375,-3.4375
12:36:17.192,-1.5625,-5.9375
12:36:17.200,-3.375,-7.8125
12:36:17.210,-4.1875,-10.0625
12:36:17.220,-5.8125,-10.8125
12:36:17.231,-5.875,-12.875
12:36:17.260,-6.8125,-15.0626
12:36:17.262,-7.9375,-16.6251
12:36:17.265,-8.625,-17.8126
12:36:17.272,-8.9375,-17.6876
12:36:17.299,-9.3125,-20.1876
12:36:17.301,-10.25,-21.4376
12:36:17.304,-11,-21.9376
12:36:17.311,-10.75,-23.3751
12:36:17.336,-10.6875,-24.5626
12:36:17.338,-11.5,-25.8751
12:36:17.342,-12.625,-26.0001
12:36:17.350,-12.8125,-28.7501
12:36:17.385,-13.9376,-29.1876
12:36:17.388,-14.8126,-32.0001
12:36:17.390,-15.3751,-32.0626
12:36:17.393,-15.5001,-34.1251
12:36:17.423,-16.3126,-34.4376
12:36:17.426,-16.7501,-35.0626
12:36:17.427,-17.2501,-37.5001
12:36:17.432,-18.2501,-39.4377
12:36:17.441,-19.2501,-39.3126
12:36:17.450,-19.9376,-42.1877
12:36:17.461,-20.1251,-41.4377
12:36:17.470,-20.5001,-44.0627
12:36:17.480,-19.4376,-42.2502
12:36:17.491,-16.8751,-40.8127
12:36:17.501,-12.375,-34.5626
12:36:17.510,-6.3125,-26.4376
12:36:17.520,-0.6875,-18.5626
12:36:17.533,6.5,-7.5625
12:36:17.546,12.625,1.8125
12:36:17.550,19.8126,12.375
12:36:17.560,24.4376,22.5001
12:36:17.570,29.4376,29.3126
12:36:17.581,32.0626,37.1251
12:36:17.591,35.0001,41.1252
12:36:17.601,37.1251,45.6252
12:36:17.610,37.8751,48.0627
12:36:17.622,38.5001,50.7502
12:36:17.630,38.3751,51.7502
12:36:17.640,38.6251,52.5002
12:36:17.650,38.8126,55.5002
12:36:17.660,38.2501,55.0627
12:36:17.671,38.6876,57.6252
12:36:17.683,38.7501,56.7502
12:36:17.690,39.0626,58.1252
12:36:17.701,38.3751,59.5002
12:36:17.710,38.0001,59.3127
12:36:17.721,38.0001,59.1877
12:36:17.731,37.3751,59.5627
12:36:17.740,36.1876,58.6877
12:36:17.750,34.3126,57.3127
12:36:17.761,33.0626,55.5627
12:36:17.771,30.3751,53.0627
12:36:17.781,28.8751,50.6877
12:36:17.790,27.7501,47.9377
12:36:17.800,26.2501,46.3752
12:36:17.810,25.5626,44.7502
12:36:17.822,25.0626,44.6877
12:36:17.831,24.8751,43.4377
12:36:17.840,24.0626,41.8752
12:36:17.850,23.2501,40.9377
12:36:17.860,23.1251,41.3752
12:36:17.873,22.7501,39.4377
12:36:17.880,21.2501,38.1876
12:36:17.891,20.5001,37.8126
12:36:17.908,19.9376,36.0626
12:36:17.920,18.0001,33.8126
12:36:17.922,16.5001,32.8751
12:36:17.938,14.7501,30.8751
12:36:17.954,13.8126,28.2501
12:36:17.954,12.75,25.5626
12:36:17.962,11.3125,24.0626
12:36:17.996,9.6875,22.7501
12:36:17.998,9.0625,20.5626
12:36:18.000,7.25,17.1251
12:36:18.003,5.25,14.9376
12:36:18.033,4,13.1876
12:36:18.035,2.5,9.9375
12:36:18.037,0.875,6.9375
12:36:18.041,-1.1875,5.0625
12:36:18.076,-2.375,3.8125
12:36:18.078,-2.8125,0.6875
12:36:18.080,-3.8125,-1.75
12:36:18.108,-5.25,-3.5
12:36:18.109,-6.625,-6.4375
12:36:18.112,-7.5,-8.125
12:36:18.117,-8.4375,-9.6875
12:36:18.121,-9.8125,-10.625
12:36:18.146,-9.1875,-11.1875
12:36:18.149,-10.125,-13.8126
12:36:18.151,-11.125,-15.3751
12:36:18.161,-12.125,-16.2501
12:36:18.170,-13.1876,-16.8126
12:36:18.185,-13.3126,-19.5001
12:36:18.194,-14.5626,-21.5001
12:36:18.202,-15.7501,-22.9376
12:36:18.218,-16.2501,-23.3126
12:36:18.234,-16.5626,-24.9376
12:36:18.235,-17.3751,-26.8126
12:36:18.243,-18.5001,-28.7501
12:36:18.250,-18.7501,-28.8751
12:36:18.282,-18.9376,-30.2501
12:36:18.284,-20.3751,-31.4376
12:36:18.286,-20.7501,-32.9376
12:36:18.293,-21.9376,-34.7501
12:36:18.307,-22.3751,-36.7501
12:36:18.310,-23.3751,-37.1251
12:36:18.321,-24.4376,-39.6252
12:36:18.330,-25.1251,-41.5627
12:36:18.340,-25.0626,-41.4377
12:36:18.350,-24.3126,-41.5002
12:36:18.360,-22.8126,-38.7501
12:36:18.373,-18.2501,-33.8126
12:36:18.380,-13.2501,-26.3751
12:36:18.390,-6.625,-18.1876
12:36:18.400,-0.0625,-7.125
12:36:18.412,4.875,1.3125
12:36:18.420,10.5625,10.4375
12:36:18.430,15.8126,20.4376
12:36:18.440,20.1251,26.1876
12:36:18.451,23.4376,33.3751
12:36:18.460,25.5001,38.6251
12:36:18.470,27.6876,42.5002
12:36:18.481,28.9376,44.5627
12:36:18.490,29.3751,46.6877
12:36:18.502,29.4376,49.3127
12:36:18.510,30.5001,49.4377
12:36:18.522,30.0001,51.3752
12:36:18.530,30.3126,51.6877
12:36:18.540,30.5626,52.0002
12:36:18.552,30.0001,51.8127
12:36:18.560,30.6251,52.6877
12:36:18.570,29.5626,52.8127
12:36:18.581,30.3126,53.4377
12:36:18.592,29.0001,52.6252
12:36:18.600,28.8751,51.9377
12:36:18.610,25.9376,50.6252
12:36:18.620,24.1251,46.9377
12:36:18.632,20.9376,44.3752
12:36:18.640,20.1251,42.4377
12:36:18.673,19.1251,39.3127
12:36:18.675,17.3751,37.6876
12:36:18.677,15.9376,36.3126
12:36:18.680,15.4376,35.8126
12:36:18.714,15.0001,33.8126
12:36:18.716,14.0001,32.1251
12:36:18.718,12.9375,31.4376
12:36:18.721,12.4375,31.0626
12:36:18.750,11.5625,29.5626
12:36:18.753,10.375,27.5626
12:36:18.755,8.5625,26.8751
12:36:18.790,7.9375,24.8126
12:36:18.793,6.5,22.4376
12:36:18.796,5.1875,20.5626
12:36:18.800,3.4375,19.8751
12:36:18.800,1.75,16.6251
12:36:18.833,0.9375,14.5001
12:36:18.835,-0.25,11.9375
12:36:18.838,-2.375,10.625
12:36:18.842,-3.5,7.6875
12:36:18.850,-4.5625,4.375
12:36:18.860,-6.5,3.1875
12:36:18.871,-7.75,0.6875
12:36:18.883,-8.9375,-2.1875
12:36:18.890,-10.8125,-6.5
12:36:18.900,-12.9375,-9.125
12:36:18.911,-14.5626,-10.875
12:36:18.923,-15.3126,-12.125
12:36:18.931,-16.6876,-15.5626
12:36:18.940,-17.1876,-17.1876
12:36:18.951,-18.3126,-18.3126
12:36:18.960,-19.8126,-20.8751
12:36:18.970,-21.0001,-23.4376
12:36:18.980,-21.9376,-24.7501
12:36:18.991,-23.5001,-25.9376
12:36:19.000,-23.8126,-28.8126
12:36:19.010,-25.0626,-30.6876
12:36:19.020,-25.9376,-31.9376
12:36:19.033,-26.5626,-33.4376
12:36:19.040,-27.2501,-35.5001
12:36:19.050,-28.8751,-36.0001
12:36:19.060,-29.0001,-38.5626
12:36:19.070,-30.7501,-38.7501
12:36:19.081,-30.2501,-41.3127
12:36:19.090,-31.5001,-41.3127
12:36:19.101,-31.8126,-44.3752
12:36:19.110,-33.3751,-44.7502
12:36:19.121,-33.0001,-46.6877
12:36:19.130,-33.9376,-48.9377
12:36:19.142,-34.5626,-48.8127
12:36:19.150,-35.5626,-51.6877
12:36:19.160,-36.1876,-51.5627
12:36:19.170,-36.2501,-53.6877
12:36:19.183,-37.0626,-54.8127
12:36:19.190,-37.5626,-55.2502
12:36:19.201,-38.3751,-58.3127
12:36:19.211,-38.5626,-58.6252
12:36:19.220,-38.5001,-58.6252
12:36:19.238,-35.2501,-56.6877
12:36:19.241,-31.0001,-50.3752
12:36:19.255,-25.5626,-43.8127
12:36:19.270,-18.7501,-34.1876
12:36:19.273,-12.0625,-23.3126
12:36:19.288,-5.6875,-13.5001
12:36:19.290,0.6875,-1.5
12:36:19.302,6.5,6.9375
12:36:19.310,11.625,16.5626
12:36:19.321,15.2501,23.3126
12:36:19.331,18.8751,30.3126
12:36:19.342,20.3751,36.3751
12:36:19.350,22.3126,38.8751
12:36:19.380,23.4376,42.6252
12:36:19.381,24.6876,44.1252
12:36:19.384,25.7501,46.6877
12:36:19.392,25.4376,48.1877
12:36:19.428,25.8751,49.3127
12:36:19.430,26.5001,51.3752
12:36:19.431,26.8751,52.6252
12:36:19.434,26.9376,54.9377
12:36:19.440,27.6876,54.5627
12:36:19.471,27.5626,55.2502
12:36:19.474,28.0626,57.0627
12:36:19.477,28.1251,56.8127
12:36:19.481,26.8751,57.3127
12:36:19.512,25.3751,56.3752
12:36:19.514,24.7501,53.6252
12:36:19.554,22.6251,50.8127
12:36:19.556,21.1251,48.8127
12:36:19.573,19.5626,46.0002
12:36:19.573,18.6876,44.5002
12:36:19.573,15.9376,41.5627
12:36:19.593,15.6251,39.9377
12:36:19.595,13.5626,38.1251
12:36:19.612,14.0626,37.1251
12:36:19.612,12.375,35.5001
12:36:19.613,12.375,34.5001
12:36:19.617,10.125,33.0001
12:36:19.627,10.875,31.7501
12:36:19.636,9.0625,30.7501
12:36:19.646,8.3125,29.0001
12:36:19.658,7.75,27.0626
12:36:19.667,7.0625,26.0626
12:36:19.675,5.125,23.9376
12:36:19.687,4.75,21.6251
12:36:19.696,2.6875,19.8126
12:36:19.707,1.9375,16.5001
12:36:19.715,-0.375,14.8126
12:36:19.729,-2.6875,11.1875
12:36:19.736,-3.6875,8.5625
12:36:19.745,-5.125,5.375
12:36:19.757,-7.4375,2.5625
12:36:19.765,-7.9375,0.5
12:36:19.776,-9.1875,-2.375
12:36:19.785,-11.5625,-3.8125
12:36:19.796,-11.75,-7.375
12:36:19.806,-14.0626,-8.875
12:36:19.817,-14.5001,-11.9375
12:36:19.828,-16.1251,-13.0625
12:36:19.836,-16.2501,-15.6251
12:36:19.845,-17.6251,-17.6876
12:36:19.856,-17.5001,-19.6251
12:36:19.865,-19.4376,-21.2501
12:36:19.875,-19.4376,-23.1876
12:36:19.886,-20.9376,-23.8751
12:36:19.897,-21.4376,-26.5001
12:36:19.907,-22.3126,-28.1251
12:36:19.917,-23.3751,-29.9376
12:36:19.927,-22.9376,-30.6876
12:36:19.939,-24.5001,-32.8126
12:36:19.946,-24.9376,-34.3126
12:36:19.957,-24.8126,-34.8751
12:36:19.972,-26.4376,-35.3126
12:36:19.976,-26.6251,-38.6251
12:36:19.986,-26.7501,-39.8752
12:36:19.997,-28.5626,-41.3752
12:36:20.006,-28.7501,-42.6252
12:36:20.016,-28.8126,-43.1252
12:36:20.025,-29.8126,-45.3127
12:36:20.038,-29.6251,-45.8752
12:36:20.045,-30.1876,-48.2502
12:36:20.062,-30.5001,-48.8752
12:36:20.072,-31.4376,-48.2502
12:36:20.081,-31.1251,-51.7502
12:36:20.095,-32.3126,-52.4377
12:36:20.100,-33.1876,-54.7502
12:36:20.112,-34.7501,-55.6877
12:36:20.123,-34.7501,-57.1252
12:36:20.153,-32.3126,-55.6252
12:36:20.156,-29.6876,-50.6252
12:36:20.158,-24.1876,-44.6877
12:36:20.163,-17.1876,-34.8126
12:36:20.191,-10.5,-25.2501
12:36:20.192,-3.375,-13.5001
12:36:20.195,4.1875,-1.0625
12:36:20.201,10.5625,9.8125
12:36:20.244,16.5626,19.2501
12:36:20.244,22.1876,32.2501
12:36:20.247,26.2501,38.1876
12:36:20.249,28.0626,42.1877
12:36:20.251,29.6876,46.2502
12:36:20.279,30.2501,48.1877
12:36:20.281,31.2501,50.6252
12:36:20.284,31.0626,51.3752
12:36:20.316,31.4376,52.4377
12:36:20.317,31.8751,53.3752
12:36:20.323,31.5001,54.4377
12:36:20.327,31.9376,55.0627
12:36:20.332,31.2501,55.5627
12:36:20.347,31.5001,56.3752
12:36:20.351,31.0001,56.1877
12:36:20.362,29.7501,56.1877
12:36:20.372,29.2501,55.6252
12:36:20.380,28.0001,53.9377
12:36:20.391,25.5001,51.3127
12:36:20.400,23.6251,50.0627
12:36:20.412,21.6251,46.0002
12:36:20.420,19.5626,43.3127
12:36:20.431,18.4376,40.8127
12:36:20.441,16.1876,38.9376
12:36:20.450,14.7501,35.5001
12:36:20.462,13.3751,34.5626
12:36:20.472,12.3125,31.6876
12:36:20.484,11.75,30.7501
12:36:20.492,10.5625,28.8751
12:36:20.500,10.25,29.5001
12:36:20.512,9.9375,27.3126
12:36:20.521,9.25,27.0001
12:36:20.532,8.5,24.5626
12:36:20.540,7.8125,23.2501
12:36:20.555,6.4375,21.1251
12:36:20.563,5.0625,19.5626
12:36:20.571,3.25,16.5626
12:36:20.586,1.875,14.5001
12:36:20.603,0.1875,12.1875
12:36:20.605,-1.8125,9.5625
12:36:20.612,-2.8125,7.1875
12:36:20.621,-4.75,4.9375
12:36:20.631,-6.625,2.5625
12:36:20.642,-7.9375,-1.5625
12:36:20.652,-9.625,-2.6875
12:36:20.661,-10.375,-5.9375
12:36:20.672,-12.9375,-7.9375
12:36:20.681,-13.8126,-11.3125
12:36:20.690,-15.9376,-13.6876
12:36:20.701,-17.3751,-16.3751
12:36:20.711,-17.9376,-19.0626
12:36:20.722,-19.8751,-20.8126
12:36:20.732,-20.2501,-23.1251
12:36:20.741,-22.1876,-25.3126
12:36:20.751,-23.1251,-25.8126
12:36:20.761,-23.3126,-29.5001
12:36:20.775,-24.7501,-29.1876
12:36:20.782,-24.5626,-32.3126
12:36:20.791,-26.0626,-32.8126
12:36:20.803,-26.1251,-35.4376
12:36:20.812,-27.8751,-35.8751
12:36:20.842,-28.3751,-38.3126
12:36:20.844,-29.0001,-39.9377
12:36:20.846,-30.1876,-42.2502
12:36:20.851,-30.9376,-43.1877
12:36:20.880,-32.3126,-45.1877
12:36:20.881,-32.3126,-47.0002
12:36:20.898,-33.7501,-47.8752
12:36:20.900,-34.3126,-49.6252
12:36:20.939,-34.6876,-50.5627
12:36:21.010,-36.9376,-51.4377
12:36:21.010,-37.1876,-54.8752
12:36:21.012,-39.3127,-55.7502
12:36:21.013,-40.3127,-58.8752
12:36:21.013,-40.1877,-59.9377
12:36:21.015,-41.1252,-60.8127
12:36:21.017,-39.6252,-58.8752
12:36:21.045,-35.5001,-53.2502
12:36:21.045,-31.3126,-46.7502
12:36:21.046,-24.1876,-36.8751
12:36:21.049,-18.1876,-25.1251
12:36:21.056,-11.1875,-15.2501
12:36:21.058,-3.625,-4.5625
12:36:21.068,1.5625,7
12:36:21.076,7,15.4376
12:36:21.085,10.25,22.5001
12:36:21.102,12.8125,28.8751
12:36:21.106,14.1251,32.3126
12:36:21.116,15.8751,36.4376
12:36:21.126,16.2501,39.0001
12:36:21.137,17.0001,39.3751
12:36:21.147,19.6251,44.3752
12:36:21.156,19.2501,45.1877
12:36:21.167,19.4376,45.8127
12:36:21.176,19.4376,46.8127
12:36:21.186,19.5626,46.8127
12:36:21.198,19.0001,47.4377
12:36:21.207,18.9376,46.1877
12:36:21.216,17.3126,44.6877
12:36:21.227,15.5001,41.7502
12:36:21.236,12.875,39.6877
12:36:21.246,11.9375,36.3126
12:36:21.256,10.375,33.1251
12:36:21.269,8.6875,31.1251
12:36:21.277,7.375,28.3751
12:36:21.287,6.375,27.6251
12:36:21.299,5.875,24.6876
12:36:21.306,5.25,23.6251
12:36:21.316,4.375,23.0626
12:36:21.328,4,21.6251
12:36:21.337,4.1875,21.5626
12:36:21.346,4.5,20.1251
12:36:21.357,3.8125,20.3126
12:36:21.367,3.6875,18.3126
12:36:21.376,1.875,16.3126
12:36:21.386,1.3125,13.9376
12:36:21.397,-0.25,13.0625
12:36:21.406,-0.9375,9.6875
12:36:21.416,-3.125,7.875
12:36:21.429,-4.3125,5.125
12:36:21.436,-5.8125,3.25
12:36:21.447,-7,-0.4375
12:36:21.459,-9.3125,-3.3125
12:36:21.467,-10.1875,-4.875
12:36:21.476,-11.5625,-8.8125
12:36:21.488,-13,-10.3125
12:36:21.497,-14.4376,-14.0626
12:36:21.507,-16.1876,-16.4376
12:36:21.516,-16.8751,-19.2501
12:36:21.527,-18.5001,-21.3126
12:36:21.536,-19.5626,-23.9376
12:36:21.547,-20.8126,-26.5626
12:36:21.556,-22.3751,-28.6251
12:36:21.566,-23.3126,-30.3751
12:36:21.577,-24.3126,-32.5001
12:36:21.589,-25.4376,-34.5001
12:36:21.596,-26.5626,-36.3126
12:36:21.606,-28.0001,-38.2501
12:36:21.634,-28.4376,-40.8127
12:36:21.636,-28.6876,-41.3127
12:36:21.639,-29.9376,-41.9377
12:36:21.670,-30.5001,-44.4377
12:36:21.672,-31.2501,-44.8752
12:36:21.675,-31.3126,-46.4377
12:36:21.678,-31.8751,-47.8127
12:36:21.709,-32.5001,-50.1252
12:36:21.711,-32.8751,-50.3752
12:36:21.714,-33.3751,-51.0627
12:36:21.720,-35.3751,-52.7502
12:36:21.725,-35.6876,-55.4377
12:36:21.754,-37.0626,-55.5627
12:36:21.756,-38.0626,-58.6877
12:36:21.760,-37.8751,-59.8752
12:36:21.767,-38.9376,-60.6252
12:36:21.795,-38.9376,-61.5627
12:36:21.797,-36.8751,-59.5002
12:36:21.800,-33.4376,-56.5627
12:36:21.807,-27.5626,-48.6877
12:36:21.820,-22.1251,-38.5001
12:36:21.826,-14.5001,-28.5001
12:36:21.837,-5.625,-15.6876
12:36:21.852,1.25,-3.5
12:36:21.857,8.375,9.3125
12:36:21.874,14.7501,20.0626
12:36:21.879,19.6251,29.6876
12:36:21.893,24.0626,37.1251
12:36:21.896,26.8751,43.2502
12:36:21.908,29.3126,48.3752
12:36:21.916,30.4376,52.1252
12:36:21.927,31.6876,54.2502
12:36:21.939,32.6251,56.1252
12:36:21.946,33.8126,58.0627
12:36:21.956,34.1251,59.7502
12:36:21.968,34.6876,60.3752
12:36:21.976,34.1876,60.8752
12:36:21.986,34.6251,61.6877
12:36:21.998,33.7501,61.9377
12:36:22.007,34.3751,63.2502
12:36:22.016,34.0626,63.0002
12:36:22.029,32.6876,62.5002
12:36:22.037,31.5626,61.1252
12:36:22.047,29.8751,60.8127
12:36:22.059,27.8751,56.8752
12:36:22.067,25.4376,54.5627
12:36:22.077,23.0626,49.8752
12:36:22.086,20.3126,46.3127
12:36:22.097,19.3126,43.2502
12:36:22.121,16.6251,40.6877
12:36:22.124,16.3751,38.1876
12:36:22.127,14.0001,35.0001
12:36:22.137,13.1251,33.5001
12:36:22.146,11.8125,31.8126
12:36:22.158,11.0625,30.3751
12:36:22.166,10.5,28.6876
12:36:22.176,9.0625,26.8751
12:36:22.187,8.5,25.9376
12:36:22.196,8.4375,23.8751
12:36:22.206,8.1875,22.8751
12:36:22.217,8,21.6876
12:36:22.226,6.25,20.1251
12:36:22.237,5.1875,18.0001
12:36:22.258,4.5,14.7501
12:36:22.262,2.25,12.9375
12:36:22.276,0.75,9.4375
12:36:22.278,-1.3125,6.6875
12:36:22.287,-2.9375,3.5
12:36:22.297,-4.5625,0.125
12:36:22.307,-6.5,-2.75
12:36:22.317,-7.6875,-6.0625
12:36:22.354,-10.1875,-9.4375
12:36:22.358,-11.375,-12.375
12:36:22.361,-13.1876,-14.6251
12:36:22.371,-14.6251,-17.1251
12:36:22.371,-15.4376,-20.3126
12:36:22.395,-17.2501,-21.9376
12:36:22.397,-17.8126,-24.0001
12:36:22.400,-18.6251,-26.3751
12:36:22.406,-19.8126,-28.5001
12:36:22.419,-21.0626,-30.8126
12:36:22.446,-23.0001,-32.8751
12:36:22.449,-23.8751,-33.6876
12:36:22.452,-24.2501,-36.3126
12:36:22.457,-25.6251,-37.6251
12:36:22.500,-26.0001,-40.3127
12:36:22.502,-26.3751,-40.9377
12:36:22.507,-28.5626,-43.5627
12:36:22.510,-29.0626,-44.7502
12:36:22.511,-29.5626,-45.6252
12:36:22.517,-30.1251,-48.0002
12:36:22.527,-30.9376,-48.3127
12:36:22.537,-32.2501,-49.4377
12:36:22.547,-32.2501,-52.1252
12:36:22.557,-34.0001,-51.5627
12:36:22.567,-33.9376,-55.0002
12:36:22.578,-34.1251,-55.3752
12:36:22.586,-35.3126,-56.3752
12:36:22.602,-36.3126,-59.2502
12:36:22.606,-37.0001,-60.1877
12:36:22.618,-38.3126,-61.1877
12:36:22.627,-38.6876,-63.0627
12:36:22.637,-37.1876,-62.3127
12:36:22.647,-35.5626,-59.1877
12:36:22.656,-30.5626,-53.3127
12:36:22.666,-25.1876,-45.7502
12:36:22.677,-18.0001,-33.4376
12:36:22.686,-10.125,-21.8751
12:36:22.698,-1.5,-7.375
12:36:22.706,5.5,3.75
12:36:22.716,12.6875,16.3126
12:36:22.728,18.5626,26.7501
12:36:22.737,22.5001,35.6876
12:36:22.746,26.5001,41.6252
12:36:22.759,28.4376,48.0002
12:36:22.766,30.9376,51.6252
12:36:22.776,32.2501,54.6252
12:36:22.789,33.0626,56.5627
12:36:22.797,33.1876,57.9377
12:36:22.806,33.9376,58.8127
12:36:22.816,33.5001,61.2502
12:36:22.826,33.9376,61.1252
12:36:22.836,33.5001,61.1252
12:36:22.847,33.3751,63.3127
12:36:22.856,33.6876,62.7502
12:36:22.867,33.8126,62.0002
12:36:22.876,32.6251,62.4377
12:36:22.886,32.8126,61.4377
12:36:22.897,31.8126,60.3752
12:36:22.907,30.0626,58.1877
12:36:22.917,27.3126,54.5002
12:36:22.928,24.1251,51.0002
12:36:22.936,20.6251,47.2502
12:36:22.946,18.2501,42.7502
12:36:22.960,14.3126,39.6877
12:36:22.968,10.375,36.1876
12:36:22.976,6.3125,31.0001
12:36:22.986,1.625,27.5626
12:36:22.997,-3.75,24.1876
12:36:23.006,-3.125,24.8751
12:36:23.027,-6.3125,23.1251
12:36:23.029,-10.875,21.1251
12:36:23.055,-18.6251,17.9376
12:36:23.058,-26.1876,12.0625
12:36:23.062,-35.3126,10.6875
12:36:23.066,-46.1877,6.4375
12:36:23.100,-57.7502,3.1875
12:36:23.104,-67.1878,-1.3125
12:36:23.105,-73.2503,-3.6875
12:36:23.108,-76.9378,-5.6875
12:36:23.138,-78.5003,-4.125
12:36:23.140,-79.2503,-2.1875
12:36:23.143,-78.4378,0.4375
12:36:23.201,-75.8128,2.125
12:36:23.201,-71.8753,6
12:36:23.203,-68.3128,6.0625
12:36:23.209,-69.8128,4.875
12:36:23.210,-71.3128,-0.75
12:36:23.210,-74.8753,-4.8125
12:36:23.217,-73.9378,-8.5625
12:36:23.227,-76.0628,-11.5
12:36:23.237,-76.6878,-15.7501
12:36:23.246,-79.5628,-18.1876
12:36:23.257,-79.1878,-21.3751
12:36:23.267,-79.3753,-22.7501
12:36:23.276,-75.8753,-24.7501
12:36:23.289,-73.0003,-25.6876
12:36:23.297,-72.6253,-29.1251
12:36:23.306,-71.1878,-32.5626
12:36:23.316,-68.7503,-35.3126
12:36:23.327,-69.8753,-42.0002
12:36:23.336,-83.3128,-56.3127
12:36:23.352,-119.313,-90.5004
12:36:23.356,-177.4382,-142.8755
12:36:23.367,-255.876,-214.2508
12:36:23.377,-357.5013,-323.5012
12:36:23.402,-376.3764,-347.6263
12:36:23.404,-386.689,-362.7514
12:36:23.406,-390.814,-364.8764
12:36:23.416,-391.1265,-343.3138
12:36:23.426,-391.0015,-313.8137
12:36:23.438,-379.3765,-297.3761
12:36:23.447,-344.1263,-261.0635
12:36:23.457,-297.5012,-220.8759
12:36:23.467,-246.1884,-180.4382
12:36:23.477,-205.8758,-146.063
12:36:23.487,-168.7506,-116.8129
12:36:23.496,-125.813,-83.6253
12:36:23.507,-81.5628,-47.1877
12:36:23.519,-28.8751,-5.5
12:36:23.527,13.0625,31.1251
12:36:23.537,26.8751,43.8127
12:36:23.554,31.3751,45.3752
12:36:23.556,32.0626,47.4377
12:36:23.571,36.5001,53.5002
12:36:23.578,41.3127,62.3752
12:36:23.586,43.6252,69.3753
12:36:23.597,38.6251,73.1253
12:36:23.606,27.6876,70.3753
12:36:23.616,16.1251,70.0003
12:36:23.629,8.5625,72.2503
12:36:23.636,8.9375,78.3753
12:36:23.646,10.375,87.2503
12:36:23.657,13.8126,90.7504
12:36:23.666,14.0626,94.5629
12:36:23.676,15.3126,94.8754
12:36:23.687,19.0626,97.7504
12:36:23.696,27.3751,101.4379
12:36:23.707,40.6877,108.8754
12:36:23.716,59.4377,119.313
12:36:23.731,82.0003,134.3755
12:36:23.739,99.1879,147.0005
12:36:23.746,96.6254,144.8755
12:36:23.757,88.3753,134.3755
12:36:23.777,75.0628,123.938
12:36:23.780,56.3127,109.8754
12:36:23.786,31.7501,92.1879
12:36:23.815,4.125,74.8753
12:36:23.820,-4.6875,71.2503
12:36:23.822,3.5625,81.0628
12:36:23.827,9.9375,87.1253
12:36:23.854,14.1251,89.8753
12:36:23.856,14.7501,89.1878
12:36:23.859,14.3126,84.5628
12:36:23.889,17.1251,84.9378
12:36:23.892,22.6251,84.6878
12:36:23.894,31.7501,85.3753
12:36:23.899,38.8126,86.8753
12:36:23.932,41.9377,82.1878
12:36:23.934,52.0627,85.5628
12:36:23.937,64.6877,92.1254
12:36:23.954,67.4378,92.1879
12:36:23.955,57.3127,81.8753
12:36:23.958,36.3126,65.1877
12:36:23.967,9.375,45.1252
12:36:23.977,-14.4376,25.7501
12:36:23.987,-33.3126,15.6251
12:36:23.996,-38.4376,16.0001
12:36:24.008,-30.4376,24.4376
12:36:24.017,-16.3751,39.4377
12:36:24.026,-7.5,48.3752
12:36:24.037,-1.6875,52.5627
12:36:24.047,1,52.8127
12:36:24.057,3.625,51.8127
12:36:24.067,6.125,49.6252
12:36:24.076,7.8125,45.0002
12:36:24.087,8.75,41.4377
12:36:24.108,9.375,36.4376
12:36:24.113,8.8125,31.0626
12:36:24.122,9.125,26.1876
12:36:24.134,7.5,21.7501
12:36:24.142,6.125,19.0001
12:36:24.151,5.0625,15.0626
12:36:24.161,7.4375,13.4376
12:36:24.171,14.8751,16.2501
12:36:24.183,29.1251,23.2501
12:36:24.192,40.8752,31.1251
12:36:24.202,47.5627,31.6251
12:36:24.211,43.0002,26.6251
12:36:24.223,35.0626,16.1876
12:36:24.231,17.9376,3.4375
12:36:24.242,-10.5,-18.7501
12:36:24.251,-34.7501,-35.4376
12:36:24.263,-37.3126,-31.4376
12:36:24.271,-26.6251,-21.4376
12:36:24.281,-20.7501,-15.2501
12:36:24.292,-21.6251,-16.8751
12:36:24.302,-21.8751,-18.1251
12:36:24.313,-20.1251,-17.1251
12:36:24.321,-17.9376,-18.6251
12:36:24.331,-19.0001,-23.4376
12:36:24.342,-17.8751,-25.9376
12:36:24.351,-11.75,-25.0001
12:36:24.361,8.0625,-17.5626
12:36:24.372,29.0001,-3.9375
12:36:24.382,39.4377,3.375
12:36:24.393,36.3751,3.25
12:36:24.402,31.0626,1
12:36:24.411,21.4376,-1.5625
12:36:24.422,5.8125,-5.75
12:36:24.432,-10.625,-9.25
12:36:24.441,-25.3126,-11.8125
12:36:24.452,-42.7502,-15.3751
12:36:24.470,-53.3752,-13.3751
12:36:24.475,-50.6877,-0.5
12:36:24.491,-41.3127,15.4376
12:36:24.495,-23.3126,35.7501
12:36:24.501,6.0625,63.6877
12:36:24.511,23.9376,81.0628
12:36:24.529,33.0626,87.0003
12:36:24.531,41.3127,91.6254
12:36:24.565,43.6877,93.5629
12:36:24.568,43.1877,89.8128
12:36:24.571,41.2502,86.0628
12:36:24.572,41.3752,85.0628
12:36:24.604,42.1877,84.1253
12:36:24.606,41.7502,82.9378
12:36:24.609,40.9377,82.6878
12:36:24.637,40.9377,81.1253
12:36:24.637,40.9377,80.6878
12:36:24.640,44.8752,80.7503
12:36:24.646,55.6877,86.3128
12:36:24.652,77.5628,100.4379
12:36:24.683,94.5004,111.2504
12:36:24.685,99.2504,113.5004
12:36:24.688,90.6879,103.5629
12:36:24.694,70.1878,86.4378
12:36:24.701,39.3752,63.0002
12:36:24.711,12.8125,45.1252
12:36:24.721,13.8751,50.6252
12:36:24.732,25.7501,64.0627
12:36:24.741,32.3751,71.7503
12:36:24.752,36.8126,75.3753
12:36:24.761,39.8752,76.6253
12:36:24.772,39.0626,76.3128
12:36:24.781,38.0001,74.3128
12:36:24.791,33.4376,69.3753
12:36:24.803,28.4376,64.3127
12:36:24.811,25.8126,60.0002
12:36:24.821,25.0001,58.0627
12:36:24.832,24.0626,55.8752
12:36:24.851,23.6251,50.9377
12:36:24.854,24.3126,48.6252
12:36:24.871,25.9376,45.6877
