timestamp,Red,IR
14:58:06.925,13.4376,23.7501
14:58:06.933,13,21.1251
14:58:06.943,12.6875,19.1251
14:58:06.953,12,19.7501
14:58:06.964,10.875,17.6876
14:58:06.973,10.25,16.0001
14:58:06.983,9.75,13.5001
14:58:06.993,8.5625,11
14:58:07.004,8.375,9.4375
14:58:07.013,7.875,8.375
14:58:07.023,7,6.5625
14:58:07.033,6.5625,6.8125
14:58:07.056,6.625,6.75
14:58:07.059,6.5,4.5
14:58:07.075,5.8125,3.8125
14:58:07.081,5.875,4.0625
14:58:07.085,7.0625,3.25
14:58:07.097,5.9375,1.625
14:58:07.130,5.1875,0.25
14:58:07.131,4.6875,-0.875
14:58:07.134,3.3125,-1.5
14:58:07.140,3.0625,-3.875
14:58:07.152,1.625,-6.1875
14:58:07.155,0.625,-7.3125
14:58:07.188,0.625,-9.5
14:58:07.190,-1,-12.1875
14:58:07.192,-2.125,-13.3751
14:58:07.201,-2.625,-15.0626
14:58:07.207,-4.5,-17.4376
14:58:07.237,-5.4375,-20.6251
14:58:07.243,-6.875,-22.5626
14:58:07.245,-8.1875,-24.9376
14:58:07.248,-8.75,-24.8751
14:58:07.276,-9.75,-27.8751
14:58:07.279,-10.875,-30.8751
14:58:07.280,-11.3125,-31.3751
14:58:07.290,-12.1875,-33.3751
14:58:07.294,-12.5625,-35.3126
14:58:07.304,-13.8751,-36.6251
14:58:07.314,-14.8751,-38.6251
14:58:07.323,-15.7501,-39.9377
14:58:07.345,-17.0626,-41.4377
14:58:07.348,-16.9376,-42.6877
14:58:07.363,-17.7501,-44.3127
14:58:07.366,-17.6876,-45.5002
14:58:07.373,-19.5001,-47.6877
14:58:07.383,-19.5626,-48.9377
14:58:07.393,-20.3751,-50.1877
14:58:07.403,-20.0626,-50.5002
14:58:07.413,-20.5001,-51.0627
14:58:07.423,-18.8751,-51.8127
14:58:07.433,-18.0626,-49.1252
14:58:07.443,-16.0626,-45.9377
14:58:07.454,-13.7501,-42.0002
14:58:07.463,-9.75,-34.8126
14:58:07.473,-6,-27.6876
14:58:07.484,-3.1875,-19.5626
14:58:07.495,-0.0625,-14.3751
14:58:07.503,1,-8.0625
14:58:07.514,3.1875,-4.8125
14:58:07.525,3.75,-2.3125
14:58:07.535,3.6875,-0.1875
14:58:07.544,4.125,-0.125
14:58:07.554,3.9375,1.4375
14:58:07.565,3.3125,0.5625
14:58:07.574,3.1875,1.5625
14:58:07.583,3.125,0.3125
14:58:07.594,2.625,1.25
14:58:07.605,2.375,-0.3125
14:58:07.614,2.625,-0.625
14:58:07.623,1.4375,0.125
14:58:07.634,1.5,-1.8125
14:58:07.651,0.375,-2.4375
14:58:07.655,-0.625,-5.0625
14:58:07.664,-1.875,-6.1875
14:58:07.673,-2.5,-8.75
14:58:07.684,-3.75,-9.1875
14:58:07.693,-4.25,-12.4375
14:58:07.704,-5,-13.5001
14:58:07.715,-4.4375,-13.1251
14:58:07.724,-4.5625,-14.1876
14:58:07.733,-5.25,-15.6876
14:58:07.744,-5.5625,-16.2501
14:58:07.754,-5.375,-16.3126
14:58:07.763,-5.9375,-17.8126
14:58:07.774,-6.375,-17.0001
14:58:07.783,-6.625,-19.1251
14:58:07.794,-6.125,-18.9376
14:58:07.804,-7.25,-20.0626
14:58:07.848,-7.875,-20.3751
14:58:07.849,-7.6875,-21.7501
14:58:07.851,-8.375,-22.8126
14:58:07.855,-8.5,-24.0001
14:58:07.860,-9.625,-25.8126
14:58:07.865,-9.625,-26.7501
14:58:07.873,-10.375,-27.8126
14:58:07.911,-11.5625,-29.8751
14:58:07.914,-12.1875,-31.3751
14:58:07.916,-13.0625,-33.5001
14:58:07.919,-13.7501,-34.8751
14:58:07.926,-14.4376,-37.0001
14:58:07.956,-15.6251,-38.3126
14:58:07.958,-16.6251,-39.6252
14:58:07.963,-17.2501,-42.0002
14:58:07.965,-17.8751,-42.8752
14:58:07.991,-18.9376,-44.4377
14:58:07.995,-20.0626,-47.1877
14:58:07.997,-20.8751,-48.9377
14:58:08.005,-22.4376,-49.8127
14:58:08.015,-23.3751,-52.6252
14:58:08.025,-22.9376,-52.9377
14:58:08.033,-23.7501,-54.0627
14:58:08.044,-23.3751,-54.8752
14:58:08.054,-23.7501,-56.3127
14:58:08.064,-24.2501,-56.4377
14:58:08.073,-23.7501,-57.8752
14:58:08.083,-24.2501,-58.8752
14:58:08.094,-23.5626,-59.6877
14:58:08.103,-23.9376,-58.6877
14:58:08.114,-23.1876,-59.0627
14:58:08.124,-20.9376,-55.6877
14:58:08.133,-17.5001,-50.8127
14:58:08.143,-13.6876,-42.3127
14:58:08.155,-9.0625,-35.8126
14:58:08.164,-5.875,-28.5001
14:58:08.173,-3.1875,-21.9376
14:58:08.183,-0.875,-17.8126
14:58:08.193,0.8125,-12.75
14:58:08.204,1.1875,-11.5
14:58:08.213,1.9375,-8.25
14:58:08.223,2.3125,-7.6875
14:58:08.233,2.8125,-6.375
14:58:08.243,2.375,-6.375
14:58:08.254,2.25,-5.375
14:58:08.264,2.375,-6.4375
14:58:08.273,3.4375,-4.75
14:58:08.287,2.8125,-5.75
14:58:08.294,3.25,-4.9375
14:58:08.305,2.375,-6.625
14:58:08.315,2.125,-5.8125
14:58:08.324,1.4375,-7.9375
14:58:08.335,1.3125,-8.375
14:58:08.354,0.3125,-9.625
14:58:08.358,0.25,-9.625
14:58:08.371,-0.1875,-10.8125
14:58:08.374,-0.75,-13.125
14:58:08.385,-1.3125,-12.625
14:58:08.394,-0.5625,-14.0001
14:58:08.409,-1.0625,-15.3751
14:58:08.416,-1,-15.1251
14:58:08.427,-0.3125,-15.3126
14:58:08.434,-1.4375,-15.1876
14:58:08.445,-1.625,-16.1251
14:58:08.453,-1.6875,-17.0001
14:58:08.463,-2.0625,-16.8126
14:58:08.475,-2.5,-17.4376
14:58:08.485,-1.75,-18.3751
14:58:08.494,-2.625,-18.9376
14:58:08.504,-2.9375,-20.3126
14:58:08.515,-3.1875,-20.5626
14:58:08.540,-3.4375,-21.5626
14:58:08.543,-3.875,-23.1251
14:58:08.544,-5,-24.4376
14:58:08.571,-5.0625,-26.0626
14:58:08.574,-5.625,-26.4376
14:58:08.578,-5.5,-28.1251
14:58:08.606,-6.5,-29.2501
14:58:08.609,-7.0625,-31.1876
14:58:08.611,-7.8125,-32.0626
14:58:08.648,-7.5625,-33.4376
14:58:08.650,-9.5,-34.6876
14:58:08.681,-9.625,-37.4376
14:58:08.684,-9.875,-37.1251
14:58:08.686,-10.4375,-39.5627
14:58:08.686,-11.125,-39.8752
14:58:08.686,-11.25,-41.5627
14:58:08.690,-12.0625,-43.3752
14:58:08.706,-12.25,-43.3752
14:58:08.708,-13.2501,-45.0627
14:58:08.719,-13.9376,-46.3752
14:58:08.728,-14.0626,-47.9377
14:58:08.740,-14.3751,-48.7502
14:58:08.750,-15.8751,-49.3752
14:58:08.760,-15.1876,-50.4377
14:58:08.772,-16.0626,-51.5627
14:58:08.786,-16.1876,-51.5627
14:58:08.790,-16.1876,-53.1252
14:58:08.798,-15.4376,-52.3752
14:58:08.810,-15.4376,-53.3752
14:58:08.819,-14.9376,-53.8752
14:58:08.830,-14.1876,-52.4377
14:58:08.840,-13,-51.3127
14:58:08.849,-10.875,-48.1252
14:58:08.861,-7.3125,-43.7502
14:58:08.869,-4.125,-36.0626
14:58:08.880,-0.5625,-28.6876
14:58:08.888,2.5,-21.4376
14:58:08.899,5.3125,-15.5001
14:58:08.909,7.5625,-10.375
14:58:08.919,8.125,-7.6875
14:58:08.930,9.125,-4.9375
14:58:08.941,9.3125,-3.8125
14:58:08.951,9.3125,-2.4375
14:58:08.960,10.1875,-2.4375
14:58:08.968,9.6875,-1.1875
14:58:08.980,9.4375,-1.1875
14:58:08.989,9.3125,-1.25
14:58:08.999,9.25,-2
14:58:09.010,9.125,-2.1875
14:58:09.021,8.3125,-2.375
14:58:09.031,8.0625,-2.875
14:58:09.042,8,-2.4375
14:58:09.051,8,-3.6875
14:58:09.061,8.375,-2.8125
14:58:09.069,8,-4.125
14:58:09.080,7.75,-5.5625
14:58:09.089,6.75,-5.3125
14:58:09.099,6.1875,-7.6875
14:58:09.110,5.875,-7.875
14:58:09.122,5.9375,-8.3125
14:58:09.132,5.4375,-10
14:58:09.166,5.75,-9.5625
14:58:09.169,5.4375,-10.375
14:58:09.171,5.1875,-10.125
14:58:09.174,5.5,-9.375
14:58:09.180,5.5625,-10.375
14:58:09.190,5.3125,-9.875
14:58:09.200,5.8125,-10.3125
14:58:09.209,5.25,-11.5
14:58:09.221,5.625,-11.1875
14:58:09.231,5.5625,-12.3125
14:58:09.239,4.625,-13.5626
14:58:09.250,4.625,-13.6251
14:58:09.260,5,-15.1876
14:58:09.271,4.5,-16.3126
14:58:09.279,4.3125,-15.6251
14:58:09.291,3.8125,-18.4376
14:58:09.298,3.5,-18.2501
14:58:09.311,3.5,-19.0001
14:58:09.346,3.4375,-20.4376
14:58:09.348,2.8125,-22.2501
14:58:09.350,2.125,-22.8126
14:58:09.352,1,-24.8126
14:58:09.391,0.5,-25.3126
14:58:09.393,-0.3125,-27.8126
14:58:09.395,-1.875,-28.5626
14:58:09.398,-1.4375,-29.9376
14:58:09.404,-1.75,-31.5626
14:58:09.412,-2.5,-30.1251
14:58:09.444,-2.3125,-32.6251
14:58:09.446,-2.5625,-33.9376
14:58:09.448,-3.625,-33.3126
14:58:09.450,-3.9375,-35.2501
14:58:09.484,-4,-36.7501
14:58:09.486,-4.6875,-37.0626
14:58:09.489,-5,-37.5626
14:58:09.494,-4,-38.0001
14:58:09.502,-5.1875,-39.5627
14:58:09.510,-5.5625,-39.1876
14:58:09.521,-5.4375,-41.0627
14:58:09.530,-5.4375,-40.3752
14:58:09.544,-5.0625,-41.4377
14:58:09.551,-4.6875,-42.4377
14:58:09.559,-2.75,-40.4377
14:58:09.571,-2.6875,-40.6877
14:58:09.581,-0.0625,-36.8126
14:58:09.592,2.875,-32.9376
14:58:09.601,6.6875,-26.8751
14:58:09.610,9.75,-20.3126
14:58:09.621,12.625,-13.6251
14:58:09.630,15.3751,-7.1875
14:58:09.650,17.3126,-2.125
14:58:09.652,19.2501,1.4375
14:58:09.667,19.5001,3.625
14:58:09.671,19.9376,4.9375
14:58:09.680,18.9376,5.4375
14:58:09.690,18.9376,5.625
14:58:09.700,17.1251,5
14:58:09.710,17.3751,4.3125
14:58:09.720,16.3751,4.125
14:58:09.730,16.3126,3.9375
14:58:09.740,15.4376,4.5625
14:58:09.750,14.8126,3.75
14:58:09.758,15.2501,2.625
14:58:09.770,15.0626,2.875
14:58:09.781,14.6876,2.875
14:58:09.792,13.5001,1.625
14:58:09.800,12.4375,0.1875
14:58:09.809,11.9375,-0.3125
14:58:09.819,11.9375,-2.375
14:58:09.830,11,-3.125
14:58:09.840,11.3125,-3.3125
14:58:09.851,12.375,-4.0625
14:58:09.860,11.625,-4.5625
14:58:09.869,11.6875,-4.375
14:58:09.880,12.8125,-2.4375
14:58:09.890,13.2501,-3.4375
14:58:09.899,12.375,-4.375
14:58:09.910,11.9375,-3.75
14:58:09.921,12.0625,-4.4375
14:58:09.959,11.875,-5.0625
14:58:09.961,11.9375,-4
14:58:09.993,12.125,-3.75
14:58:09.996,12,-5.5625
14:58:09.998,11.875,-7
14:58:10.002,12.4375,-5.5625
14:58:10.002,12,-7.25
14:58:10.002,11.5,-7.75
14:58:10.017,10.875,-9.6875
14:58:10.022,9.875,-11.625
14:58:10.055,8.9375,-11.4375
14:58:10.056,8.75,-13.3751
14:58:10.060,8.375,-13.4376
14:58:10.061,8.75,-15.0001
14:58:10.092,8.125,-16.5001
14:58:10.095,7.4375,-17.0001
14:58:10.098,7.3125,-18.1876
14:58:10.127,6.6875,-19.8751
14:58:10.127,6.1875,-20.8126
14:58:10.129,5.125,-21.5626
14:58:10.135,5,-23.1876
14:58:10.140,3.25,-24.8126
14:58:10.150,2.75,-26.6251
14:58:10.160,1.375,-28.0001
14:58:10.171,0.6875,-28.6876
14:58:10.180,-0.0625,-29.4376
14:58:10.189,-1.1875,-30.1251
14:58:10.200,-1.0625,-31.4376
14:58:10.212,-0.9375,-32.1251
14:58:10.220,-1.375,-33.2501
14:58:10.230,-2.5625,-32.5001
14:58:10.240,-2.0625,-34.1251
14:58:10.250,-2.375,-35.5626
14:58:10.260,-2.75,-35.5626
14:58:10.270,-2.125,-36.1251
14:58:10.280,-2.5625,-36.8751
14:58:10.295,-2.4375,-36.5001
14:58:10.301,-0.0625,-32.7501
14:58:10.310,1.8125,-29.9376
14:58:10.320,5.1875,-23.8751
14:58:10.329,8.6875,-16.3126
14:58:10.340,11.375,-10.5625
14:58:10.349,13.3126,-4.375
14:58:10.359,14.9376,-1.3125
14:58:10.370,15.5626,3.1875
14:58:10.380,16.5001,4.3125
14:58:10.391,16.2501,6.3125
14:58:10.400,16.5626,6.875
14:58:10.410,16.1251,6.5
14:58:10.444,15.5626,7.9375
14:58:10.446,14.7501,6.6875
14:58:10.448,14.5626,7.4375
14:58:10.450,14.4376,6.9375
14:58:10.460,13.6251,7.125
14:58:10.470,14.0001,6.6875
14:58:10.481,12.875,7.125
14:58:10.489,13.4376,7
14:58:10.500,12.8125,5.8125
14:58:10.510,12,5.1875
14:58:10.520,11.8125,5.75
14:58:10.530,11.5,3.75
14:58:10.542,10.25,2.8125
14:58:10.550,9.5,2.3125
14:58:10.559,9.875,0.875
14:58:10.571,9.125,0.3125
14:58:10.580,8.875,-0.1875
14:58:10.589,8.5,0.625
14:58:10.600,9.5625,0.4375
14:58:10.611,10,0.0625
14:58:10.620,9.625,-1.3125
14:58:10.630,8.6875,-1.125
14:58:10.639,8.5,-0.125
14:58:10.649,8.9375,-1.125
14:58:10.661,8.4375,-2.3125
14:58:10.670,7.75,-2.75
14:58:10.680,7.4375,-2.1875
14:58:10.689,6.75,-2.3125
14:58:10.705,6.75,-3.75
14:58:10.710,5.9375,-5.1875
14:58:10.741,5.125,-6.6875
14:58:10.744,4.1875,-6.75
14:58:10.746,3.5,-9.0625
14:58:10.752,3.125,-10.375
14:58:10.778,2.5,-11.8125
14:58:10.781,2.125,-11.75
14:58:10.784,1.6875,-13.2501
14:58:10.791,2.0625,-15.1876
14:58:10.804,0.375,-15.6251
14:58:10.810,1.3125,-17.0626
14:58:10.842,0.25,-18.5626
14:58:10.844,-0.8125,-19.6251
14:58:10.846,-1.3125,-20.1876
14:58:10.853,-1.625,-21.5626
14:58:10.868,-2.125,-21.3751
14:58:10.871,-3.3125,-22.6876
14:58:10.880,-3.4375,-23.6876
14:58:10.891,-3.9375,-24.6251
14:58:10.900,-3.625,-24.7501
14:58:10.909,-4.375,-27.3126
14:58:10.920,-4.3125,-26.5626
14:58:10.931,-5,-28.8126
14:58:10.948,-5.375,-29.3751
14:58:10.962,-5.875,-29.3751
14:58:10.964,-6.125,-31.0001
14:58:10.973,-6.5,-31.8751
14:58:10.980,-7.0625,-31.0626
14:58:10.990,-6.875,-33.6251
14:58:10.999,-6.75,-33.5001
14:58:11.011,-6.5625,-34.1876
14:58:11.022,-5.9375,-32.5626
14:58:11.031,-3.9375,-29.5001
14:58:11.045,-1.75,-23.8126
14:58:11.050,2.3125,-17.5001
14:58:11.060,6.125,-10.875
14:58:11.070,7.9375,-4.9375
14:58:11.080,10.375,2
14:58:11.089,12.125,5.1875
14:58:11.100,12.5625,8
14:58:11.111,13.125,10.8125
14:58:11.121,14.1251,12.5625
14:58:11.130,14.4376,14.4376
14:58:11.139,15.0626,15.5626
14:58:11.149,14.9376,15.6251
14:58:11.160,14.5626,16.4376
14:58:11.170,14.5626,15.7501
14:58:11.179,14.4376,17.7501
14:58:11.190,14.8126,17.1251
14:58:11.201,14.1251,16.8126
14:58:11.211,13.2501,18.1876
14:58:11.221,13.5001,16.5001
14:58:11.230,13,17.7501
14:58:11.246,12.5,15.8751
14:58:11.262,12.0625,15.0626
14:58:11.264,12.0625,14.3126
14:58:11.274,10.6875,14.2501
14:58:11.279,10.75,13.3126
14:58:11.291,10.375,11.4375
14:58:11.300,9.625,10.375
14:58:11.310,9.8125,11.375
14:58:11.320,9.6875,10.875
14:58:11.329,9.8125,10.3125
14:58:11.339,9.375,9.6875
14:58:11.350,9,9.4375
14:58:11.360,8.875,10.4375
14:58:11.369,8.75,9.375
14:58:11.381,8.3125,8
14:58:11.389,8,8.4375
14:58:11.401,7.1875,7.875
14:58:11.410,7,7.5625
14:58:11.419,6.9375,6.1875
14:58:11.431,6.3125,5.3125
14:58:11.440,5.125,3.6875
14:58:11.451,4.1875,3.5
14:58:11.464,3.4375,1.5
14:58:11.472,2.375,0
14:58:11.509,1.5,-1.5625
14:58:11.510,1.6875,-2.5625
14:58:11.514,0.375,-4.4375
14:58:11.515,-0.25,-6.1875
14:58:11.523,-1.125,-6.6875
14:58:11.540,-1.375,-7.8125
14:58:11.543,-1.625,-9.6875
14:58:11.570,-2.625,-11
14:58:11.572,-3.375,-11.625
14:58:11.574,-3.6875,-12.8125
14:58:11.580,-4.8125,-14.6876
14:58:11.595,-5.4375,-14.8126
14:58:11.601,-5.375,-16.7501
14:58:11.629,-6.625,-18.1251
14:58:11.632,-7.125,-19.1876
14:58:11.634,-7.4375,-19.8126
14:58:11.640,-7.9375,-21.4376
14:58:11.651,-8.9375,-23.3126
14:58:11.661,-9.5625,-23.4376
14:58:11.671,-9.8125,-24.6251
14:58:11.680,-10.25,-25.5001
14:58:11.690,-10.625,-26.6876
14:58:11.724,-10.3125,-26.5626
14:58:11.725,-10.625,-28.1876
14:58:11.727,-11.5,-29.1251
14:58:11.734,-11.8125,-30.3126
14:58:11.741,-12.8125,-31.0626
14:58:11.750,-12.1875,-31.5626
14:58:11.760,-12.9375,-32.1251
14:58:11.769,-12.25,-32.3751
14:58:11.779,-11.625,-30.1876
14:58:11.795,-8.125,-25.8126
14:58:11.800,-4.625,-19.9376
14:58:11.810,-0.6875,-12.875
14:58:11.820,3,-4.625
14:58:11.831,6.25,1.6875
14:58:11.839,9.375,9.25
14:58:11.850,11.0625,13.5001
14:58:11.860,13.6251,18.6876
14:58:11.869,14.8751,21.0001
14:58:11.880,16.5001,24.6251
14:58:11.890,16.8751,26.4376
14:58:11.900,17.0001,28.3751
14:58:11.910,17.1876,28.7501
14:58:11.921,18.1251,30.8751
14:58:11.929,17.6251,30.6876
14:58:11.940,17.8126,32.5001
14:58:11.950,17.0626,31.7501
14:58:11.960,17.1251,33.2501
14:58:11.970,16.8126,31.1251
14:58:11.981,16.7501,33.1251
14:58:11.990,16.5626,32.0626
14:58:12.000,16.0001,32.6251
14:58:12.011,16.1876,31.5626
14:58:12.019,13.8751,30.1251
14:58:12.029,12.9375,29.8126
14:58:12.040,12.5,27.4376
14:58:12.050,12.375,26.0626
14:58:12.059,11.375,26.3751
14:58:12.069,12.0625,26.0001
14:58:12.080,11.375,26.0001
14:58:12.090,11.5,26.9376
14:58:12.101,11.3125,26.0001
14:58:12.111,11.25,24.8126
14:58:12.119,10.5625,25.3751
14:58:12.129,10.1875,24.6251
14:58:12.140,9.875,23.6251
14:58:12.150,8.5,24.1876
14:58:12.193,7.875,22.5626
14:58:12.193,6.9375,20.1251
14:58:12.195,6.1875,19.5626
14:58:12.197,6.1875,17.8751
14:58:12.202,4.4375,16.6876
14:58:12.271,3.3125,16.5626
14:58:12.271,2.3125,13.8751
14:58:12.287,1.1875,11.5
14:58:12.323,1,11.5
14:58:12.323,0,8.9375
14:58:12.323,-1.5,7.75
14:58:12.325,-1.6875,6.5
14:58:12.327,-1.9375,4.3125
14:58:12.335,-3.125,2.6875
14:58:12.335,-3.75,1.5
14:58:12.346,-3.875,0.3125
14:58:12.347,-4.375,-1.9375
14:58:12.357,-5.6875,-3.5
14:58:12.365,-6.4375,-4.4375
14:58:12.376,-6.6875,-5.9375
14:58:12.384,-6.9375,-7.1875
14:58:12.396,-8.125,-7.125
14:58:12.405,-7.9375,-8.9375
14:58:12.416,-9.375,-10.9375
14:58:12.426,-10.125,-13.3126
14:58:12.436,-10.375,-14.1251
14:58:12.444,-11.25,-15.5626
14:58:12.457,-12.9375,-19.5626
14:58:12.465,-13.2501,-20.6251
14:58:12.476,-13.3126,-22.1251
14:58:12.485,-13.9376,-22.5626
14:58:12.497,-13.4376,-23.0001
14:58:12.505,-13.8751,-24.8751
14:58:12.517,-13.3751,-23.9376
14:58:12.526,-11.3125,-21.6876
14:58:12.548,-7.375,-16.7501
14:58:12.554,-3.625,-10.75
14:58:12.556,-0.0625,-2.625
14:58:12.571,3.5,4.8125
14:58:12.582,7.125,12.25
14:58:12.586,10.3125,18.4376
14:58:12.596,12.1875,24.1876
14:58:12.605,13.4376,28.3126
14:58:12.621,15.6251,32.7501
14:58:12.630,16.7501,35.2501
14:58:12.641,17.1876,38.6876
14:58:12.651,18.5001,39.3126
14:58:12.660,18.1251,41.3752
14:58:12.670,18.3751,41.0627
14:58:12.681,18.0001,42.5627
14:58:12.690,17.0001,42.4377
14:58:12.701,17.3751,42.8127
14:58:12.711,17.1876,42.1252
14:58:12.721,16.6251,44.0627
14:58:12.734,16.5001,42.7502
14:58:12.741,15.8751,41.8127
14:58:12.752,16.0626,42.7502
14:58:12.762,15.1876,41.8127
14:58:12.771,15.1876,39.8752
14:58:12.781,14.6876,38.6251
14:58:12.790,14.1251,38.0001
14:58:12.801,12.9375,37.3126
14:58:12.811,13.4376,35.8751
14:58:12.821,13,35.1876
14:58:12.832,13.0625,35.3126
14:58:12.841,13.1876,36.3126
14:58:12.851,14.3751,35.2501
14:58:12.861,14.1251,34.6876
14:58:12.872,13.5001,35.6251
14:58:12.882,14.1876,34.6876
14:58:12.890,13.5626,33.3126
14:58:12.901,12.5625,32.2501
14:58:12.912,12.9375,32.1876
14:58:12.921,12.125,30.2501
14:58:12.947,11.375,28.9376
14:58:12.950,11.125,28.6876
14:58:12.955,11.0625,26.1251
14:58:12.962,10.375,24.6876
14:58:13.006,9.625,24.3751
14:58:13.007,9.125,22.0001
14:58:13.008,6.875,19.4376
14:58:13.012,5.625,17.7501
14:58:13.017,4.75,15.5001
14:58:13.021,3.3125,12.625
14:58:13.047,2.3125,11.6875
14:58:13.051,1.3125,10.0625
14:58:13.053,0.4375,6.625
14:58:13.092,-0.9375,3.5625
14:58:13.094,-1.8125,3.1875
14:58:13.095,-2.625,1.125
14:58:13.098,-3.5625,-0.9375
14:58:13.104,-5.375,-3.4375
14:58:13.115,-6.75,-5.4375
14:58:13.128,-8.4375,-6.8125
14:58:13.132,-10.25,-9.25
14:58:13.141,-11.25,-9.625
14:58:13.152,-10.125,-10.9375
14:58:13.161,-8.75,-11.1875
14:58:13.171,-8.0625,-11.75
14:58:13.181,-6.875,-9.9375
14:58:13.192,-4.6875,-10
14:58:13.201,-3.5,-10.5625
14:58:13.212,-2.9375,-10.4375
14:58:13.221,-2.5,-9.0625
14:58:13.232,-2,-11.25
14:58:13.241,-1.875,-12.75
14:58:13.251,-2,-11.8125
14:58:13.261,-1.375,-11.8125
14:58:13.271,0.9375,-6.4375
14:58:13.281,3.125,-2.3125
14:58:13.291,6.875,5.375
14:58:13.302,9.4375,10.1875
14:58:13.311,11.125,19.0001
14:58:13.321,13.4376,23.6876
14:58:13.331,15.6876,30.3126
14:58:13.341,16.8126,34.1876
14:58:13.350,18.0001,37.6876
14:58:13.361,19.8751,41.0002
14:58:13.371,19.9376,43.5627
14:58:13.381,21.8126,45.8752
14:58:13.391,21.5001,47.0002
14:58:13.401,22.1251,47.5627
14:58:13.411,21.6876,48.6252
14:58:13.421,22.3751,49.1252
14:58:13.431,22.8751,49.0627
14:58:13.441,22.3751,51.0627
14:58:13.451,23.0001,50.3127
14:58:13.461,22.8751,50.4377
14:58:13.471,22.3126,50.1252
14:58:13.481,22.0001,49.0627
14:58:13.491,21.5001,47.6252
14:58:13.501,19.7501,46.0627
14:58:13.511,19.1876,44.1252
14:58:13.521,18.2501,42.2502
14:58:13.533,17.4376,41.0002
14:58:13.541,16.8126,40.3752
14:58:13.551,16.1251,38.8751
14:58:13.561,16.5001,38.0001
14:58:13.576,15.8126,38.3751
14:58:13.592,15.8751,37.1251
14:58:13.595,15.1251,36.1876
14:58:13.609,14.3126,34.4376
14:58:13.613,12.875,34.0626
14:58:13.621,12.4375,32.9376
14:58:13.631,11.4375,31.7501
14:58:13.657,10.8125,30.5001
14:58:13.660,10.4375,30.5626
14:58:13.663,9.5625,27.8126
14:58:13.705,8.375,27.0626
14:58:13.708,7.3125,25.3751
14:58:13.709,7.1875,22.4376
14:58:13.718,5.75,21.2501
14:58:13.719,4.8125,19.3751
14:58:13.723,3.8125,18.0001
14:58:13.751,4.0625,15.9376
14:58:13.752,2.75,14.0626
14:58:13.755,1.6875,12.3125
14:58:13.762,0.3125,11.5625
14:58:13.800,-0.3125,9.1875
14:58:13.801,-0.3125,7.0625
14:58:13.804,-1.8125,4.6875
14:58:13.812,-3.25,4.625
14:58:13.815,-3.4375,1.0625
14:58:13.822,-4.25,-0.6875
14:58:13.831,-5.8125,-1.875
14:58:13.841,-7,-2.8125
14:58:13.862,-7.125,-5.625
14:58:13.865,-8.8125,-7.875
14:58:13.876,-9.25,-8.75
14:58:13.881,-10.9375,-10.625
14:58:13.896,-11.375,-11.3125
14:58:13.904,-11.4375,-13.4376
14:58:13.911,-12.5,-15.0001
14:58:13.921,-13.125,-15.9376
14:58:13.931,-13.5001,-16.9376
14:58:13.941,-13.5001,-17.8126
14:58:13.951,-14.5001,-18.6876
14:58:13.961,-14.4376,-19.1251
14:58:13.971,-14.0001,-19.2501
14:58:13.981,-12.3125,-17.7501
14:58:13.991,-9.4375,-13.8751
14:58:14.001,-5.8125,-8.25
14:58:14.011,-1.3125,0.5625
14:58:14.021,3,9.5
14:58:14.031,6.9375,18.1251
14:58:14.041,10.25,25.1251
14:58:14.051,12.375,30.3751
14:58:14.061,13.8126,36.2501
14:58:14.071,15.8751,40.2502
14:58:14.081,16.8126,45.8752
14:58:14.093,18.6876,47.1877
14:58:14.101,19.1251,50.0627
14:58:14.111,20.0626,51.7502
14:58:14.121,20.0626,52.8752
14:58:14.131,19.9376,53.1877
14:58:14.141,19.5626,52.7502
14:58:14.151,18.8126,53.2502
14:58:14.161,19.0001,52.8752
14:58:14.172,17.6251,52.8127
14:58:14.181,16.9376,54.1252
14:58:14.191,17.3126,53.2502
14:58:14.202,16.8126,51.5002
14:58:14.211,15.1251,50.1877
14:58:14.221,13.9376,49.6252
14:58:14.231,12.875,46.4377
14:58:14.241,11.5,43.4377
14:58:14.252,10.3125,43.1877
14:58:14.284,10.5625,41.9377
14:58:14.286,10.125,40.0002
14:58:14.289,9.75,39.0626
14:58:14.295,9.875,40.3752
14:58:14.301,10.5625,38.9376
14:58:14.311,9.125,37.6251
14:58:14.321,8.375,38.5626
14:58:14.331,8.1875,36.5626
14:58:14.341,6.6875,34.1876
14:58:14.359,6.5,34.1251
14:58:14.362,6.375,32.2501
14:58:14.391,4.9375,31.6876
14:58:14.394,3.9375,29.5626
14:58:14.397,4.125,27.6251
14:58:14.402,2.9375,24.9376
14:58:14.441,2,24.2501
14:58:14.444,0.625,22.2501
14:58:14.447,0.1875,19.1251
14:58:14.451,-1.25,16.8751
14:58:14.452,-2.4375,15.6251
14:58:14.488,-2.625,13.1876
14:58:14.491,-4.75,10.75
14:58:14.493,-5.625,9.1875
14:58:14.498,-6.6875,6.875
14:58:14.504,-9.3125,3
14:58:14.535,-10.0625,1.25
14:58:14.539,-11.6875,-0.3125
14:58:14.540,-12.25,-3.4375
14:58:14.544,-13.3751,-5.8125
14:58:14.551,-15.4376,-7.75
14:58:14.561,-15.5001,-9.125
14:58:14.571,-17.3126,-11.75
14:58:14.581,-19.5626,-14.9376
14:58:14.592,-21.1876,-16.8126
14:58:14.602,-20.7501,-18.3126
14:58:14.611,-19.8751,-18.1876
14:58:14.627,-21.6876,-19.5001
14:58:14.632,-22.5001,-22.6876
14:58:14.642,-22.7501,-23.5001
14:58:14.651,-22.9376,-23.7501
14:58:14.661,-23.7501,-26.1876
14:58:14.671,-24.5626,-27.2501
14:58:14.681,-24.3751,-27.7501
14:58:14.691,-24.0626,-27.6251
14:58:14.701,-22.2501,-26.0626
14:58:14.711,-19.6876,-21.5001
14:58:14.721,-15.3751,-14.4376
14:58:14.731,-11.5,-7.3125
14:58:14.741,-7.25,2.375
14:58:14.751,-2.75,10.5625
14:58:14.761,-0.5625,19.5001
14:58:14.771,2.4375,24.0001
14:58:14.781,5.3125,32.2501
14:58:14.791,7.625,35.9376
14:58:14.801,8.3125,39.0626
14:58:14.811,8.375,41.9377
14:58:14.821,8.75,43.7502
14:58:14.831,11.5625,47.5002
14:58:14.842,10.625,46.8752
14:58:14.852,9.5625,47.4377
14:58:14.861,12.4375,49.6252
14:58:14.872,11.375,50.3752
14:58:14.881,11.375,49.3752
14:58:14.903,10.3125,50.1877
14:58:14.905,10.25,49.6252
14:58:14.914,8.625,47.2502
14:58:14.921,7.625,47.3127
14:58:14.936,7.6875,44.9377
14:58:14.945,6.1875,42.7502
14:58:14.952,4.375,40.5002
14:58:14.961,3.25,39.0001
14:58:14.971,2.8125,36.1251
14:58:14.982,1.875,34.3751
14:58:14.992,0.8125,32.7501
14:58:15.003,1.125,31.8751
14:58:15.013,0.625,30.3751
14:58:15.023,0.125,30.0626
14:58:15.031,0.125,29.0001
14:58:15.041,-0.4375,27.6251
14:58:15.051,-0.6875,26.6876
14:58:15.061,-1,25.6251
14:58:15.072,-1.5625,23.8126
14:58:15.081,-2.8125,23.3126
14:58:15.091,-3.125,22.0001
14:58:15.101,-3.5625,19.6876
14:58:15.111,-4.8125,17.6876
14:58:15.121,-6.6875,16.1251
14:58:15.131,-6.875,13.3751
14:58:15.161,-7.9375,10.9375
14:58:15.164,-8.8125,9.75
14:58:15.166,-9.8125,7.75
14:58:15.173,-10.4375,5.125
14:58:15.203,-11.8125,1.6875
14:58:15.276,-12.75,0.375
14:58:15.278,-12.1875,-1.625
14:58:15.280,-13.7501,-3.4375
14:58:15.314,-15.3751,-5.375
14:58:15.314,-15.6876,-8.8125
14:58:15.314,-16.5626,-9.5625
14:58:15.315,-17.3751,-12.8125
14:58:15.317,-17.8126,-14.6876
14:58:15.323,-18.3126,-15.7501
14:58:15.323,-18.7501,-17.3751
14:58:15.331,-19.6876,-20.3751
14:58:15.341,-20.5626,-20.6876
14:58:15.351,-20.8751,-22.8126
14:58:15.360,-20.9376,-25.0001
14:58:15.378,-21.1251,-25.7501
14:58:15.382,-20.8126,-26.5626
14:58:15.391,-22.2501,-28.8751
14:58:15.402,-23.6876,-30.1251
14:58:15.411,-23.8126,-30.8126
14:58:15.422,-24.2501,-32.6876
14:58:15.431,-24.3126,-34.1251
14:58:15.441,-25.6251,-36.1876
14:58:15.452,-28.0001,-44.8127
14:58:15.461,-27.5001,-43.1252
14:58:15.471,-26.5001,-43.3127
14:58:15.482,-24.0001,-40.8752
14:58:15.491,-21.1251,-35.6251
14:58:15.501,-16.5626,-27.9376
14:58:15.511,-12.375,-18.6251
14:58:15.521,-7.1875,-9.75
14:58:15.531,-3.375,-0.5
14:58:15.562,0.4375,9.3125
14:58:15.565,4.25,15.6876
14:58:15.567,6.1875,23.1876
14:58:15.573,9.1875,27.1876
14:58:15.581,10.125,32.6876
14:58:15.593,12.25,35.4376
14:58:15.601,12.6875,38.0001
14:58:15.611,12.75,39.8127
14:58:15.621,12.5625,39.7502
14:58:15.631,12.75,42.3127
14:58:15.641,12,41.1877
14:58:15.651,12.1875,42.5627
14:58:15.661,11.3125,42.3127
14:58:15.671,11.875,43.0002
14:58:15.681,10.9375,42.3752
14:58:15.691,11,42.1877
14:58:15.702,10.4375,40.9377
14:58:15.711,9,40.2502
14:58:15.724,7.6875,37.8751
14:58:15.731,6.1875,35.4376
14:58:15.742,5.4375,33.1251
14:58:15.751,4.0625,30.9376
14:58:15.761,3.4375,28.8126
14:58:15.775,2.9375,28.0626
14:58:15.782,2.75,27.0001
14:58:15.791,1.875,25.9376
14:58:15.801,1.625,24.5626
14:58:15.812,1.125,23.8751
14:58:15.822,1.1875,23.1876
14:58:15.861,0.375,21.4376
14:58:15.862,0.1875,20.7501
14:58:15.864,-0.0625,19.5001
14:58:15.866,-0.5,18.6876
14:58:15.875,0.0625,17.0626
14:58:15.915,-1.25,15.3751
14:58:15.915,-1.0625,13.2501
14:58:15.917,-3.375,12.0625
14:58:15.919,-3.75,9.6875
14:58:15.924,-5.25,7.5
14:58:15.955,-6.5625,5.4375
14:58:15.958,-7.0625,2.25
14:58:15.960,-8.5625,0.125
14:58:15.963,-9.25,-2.125
14:58:15.996,-10.5,-4.9375
14:58:15.999,-11.6875,-7.375
14:58:16.002,-13.1251,-10.375
14:58:16.008,-14.8126,-12.5625
14:58:16.016,-16.7501,-15.5001
14:58:16.022,-18.2501,-17.7501
14:58:16.032,-18.8126,-21.0001
14:58:16.042,-19.5001,-22.0626
14:58:16.052,-20.6251,-24.9376
14:58:16.061,-21.5001,-26.1876
14:58:16.072,-22.0626,-28.8126
14:58:16.082,-23.1876,-30.1876
14:58:16.092,-23.5626,-32.9376
14:58:16.103,-24.0001,-32.6251
14:58:16.112,-25.1251,-35.5001
14:58:16.125,-24.9376,-36.0001
14:58:16.134,-25.4376,-36.3751
14:58:16.141,-24.3126,-38.3126
14:58:16.151,-25.2501,-40.3127
14:58:16.162,-25.7501,-40.5002
14:58:16.171,-25.3126,-42.1252
14:58:16.183,-25.5001,-40.9377
14:58:16.191,-25.0001,-44.0002
14:58:16.202,-25.3126,-43.6252
14:58:16.223,-24.5626,-44.5627
14:58:16.224,-24.7501,-46.0627
14:58:16.238,-24.5001,-46.6877
14:58:16.255,-25.3751,-48.5002
14:58:16.258,-25.1251,-48.5627
14:58:16.263,-24.6251,-50.0627
14:58:16.272,-23.3126,-48.3752
14:58:16.283,-21.1876,-46.1252
14:58:16.291,-18.1876,-40.3752
14:58:16.302,-14.0001,-33.2501
14:58:16.313,-10.5,-25.3751
14:58:16.323,-5,-16.2501
14:58:16.332,-0.6875,-6.9375
14:58:16.343,3.0625,1.875
14:58:16.353,5.9375,9
14:58:16.363,8.3125,15.6251
14:58:16.372,10.6875,20.5626
14:58:16.382,12.25,24.8751
14:58:16.392,13.8751,29.4376
14:58:16.403,14.9376,31.1251
14:58:16.413,14.8126,34.0626
14:58:16.421,15.0001,35.8126
14:58:16.431,16.6876,36.0626
14:58:16.442,16.4376,38.1251
14:58:16.451,16.8126,36.8751
14:58:16.462,15.8751,38.9376
14:58:16.472,16.1876,38.3126
14:58:16.482,15.6876,38.1876
14:58:16.493,15.7501,37.6251
14:58:16.509,15.1876,37.2501
14:58:16.513,14.2501,36.5001
14:58:16.521,13.4376,35.2501
14:58:16.555,13.4376,32.8751
14:58:16.557,11.6875,30.3126
14:58:16.585,11.1875,29.5626
14:58:16.622,10.5625,27.9376
14:58:16.624,10.875,25.4376
14:58:16.630,9.875,24.3126
14:58:16.631,9.3125,23.6876
14:58:16.631,8.5625,22.6876
14:58:16.658,8.5625,21.7501
14:58:16.660,8.625,20.5626
14:58:16.663,7.75,20.9376
14:58:16.667,7.625,19.1876
14:58:16.695,6.875,17.0001
14:58:16.699,6.1875,16.4376
14:58:16.704,5.5,13.5626
14:58:16.723,5.0625,12.9375
14:58:16.726,4.9375,11.5
14:58:16.732,4,9.0625
14:58:16.743,2.5,8
14:58:16.752,1.625,5.5625
14:58:16.762,0.5,2.5
14:58:16.772,-0.9375,0.8125
14:58:16.783,-2.0625,-1.6875
14:58:16.792,-2.9375,-4.0625
14:58:16.802,-6.9375,-12.4375
14:58:16.814,-7.375,-15.3126
14:58:16.843,-9.1875,-15.7501
14:58:16.844,-9.4375,-19.1876
14:58:16.848,-10.75,-21.1251
14:58:16.854,-12.0625,-23.5001
14:58:16.862,-13.125,-25.7501
14:58:16.872,-13.4376,-28.3126
14:58:16.887,-14.3751,-28.7501
14:58:16.892,-14.8751,-31.0626
14:58:16.902,-15.7501,-32.1876
14:58:16.912,-16.3751,-34.1251
14:58:16.922,-17.1251,-35.5001
14:58:16.933,-18.1251,-36.4376
14:58:16.942,-18.6876,-38.5626
14:58:16.952,-18.8751,-39.8127
14:58:16.963,-19.9376,-39.6877
14:58:16.972,-19.0626,-41.5002
14:58:16.983,-20.5626,-43.1877
14:58:16.992,-21.1876,-43.5627
14:58:17.002,-21.5626,-45.6252
14:58:17.013,-22.1876,-46.2502
14:58:17.022,-22.4376,-47.8127
14:58:17.032,-23.1251,-48.6877
14:58:17.043,-24.0626,-50.4377
14:58:17.053,-24.7501,-52.2502
14:58:17.062,-25.3751,-54.0627
14:58:17.072,-26.1251,-54.4377
14:58:17.085,-26.3751,-55.5627
14:58:17.094,-26.0626,-55.1877
14:58:17.102,-25.6876,-53.0627
14:58:17.112,-27.3126,-51.8127
14:58:17.122,-31.4376,-52.1252
14:58:17.132,-37.6251,-53.1877
14:58:17.142,-43.5627,-52.4377
14:58:17.152,-48.0002,-53.2502
14:58:17.162,-52.1252,-51.6877
14:58:17.172,-57.4377,-53.0002
14:58:17.182,-62.0627,-52.0627
14:58:17.192,-70.5003,-56.6252
14:58:17.203,-83.2503,-64.3127
14:58:17.212,-94.3129,-72.3128
14:58:17.223,-104.0629,-78.5628
14:58:17.233,-112.7504,-85.1253
14:58:17.242,-123.5005,-92.6254
14:58:17.253,-136.6255,-101.3754
14:58:17.262,-152.4381,-113.3129
14:58:17.275,-160.3131,-119.3755
14:58:17.283,-165.6881,-119.813
14:58:17.293,-164.9381,-118.1255
14:58:17.303,-170.1881,-121.1255
14:58:17.312,-167.0631,-117.3755
14:58:17.322,-158.6881,-109.2504
14:58:17.354,-157.5631,-108.5629
14:58:17.355,-153.4381,-104.8129
14:58:17.357,-147.3131,-99.8754
14:58:17.362,-148.0631,-101.1879
14:58:17.390,-150.7506,-102.5004
14:58:17.392,-152.8756,-104.3129
14:58:17.395,-152.0006,-104.6254
14:58:17.436,-146.438,-99.1254
14:58:17.437,-146.8756,-98.0629
14:58:17.439,-151.0006,-102.0004
14:58:17.443,-151.0631,-100.5004
14:58:17.448,-149.8756,-101.5004
14:58:17.454,-145.563,-98.0629
14:58:17.480,-139.7505,-92.6879
14:58:17.482,-137.188,-90.0628
14:58:17.485,-136.438,-89.0628
14:58:17.512,-138.438,-88.5628
14:58:17.518,-142.6255,-88.8128
14:58:17.533,-150.5631,-88.6253
14:58:17.535,-151.7506,-91.9379
14:58:17.550,-178.1257,-111.7504
14:58:17.565,-173.0007,-113.5004
14:58:17.567,-157.4381,-104.0629
14:58:17.583,-141.2505,-91.4379
14:58:17.584,-131.8755,-88.1253
14:58:17.587,-126.938,-84.1878
14:58:17.592,-127.688,-86.6253
14:58:17.602,-132.3755,-90.9379
14:58:17.612,-136.0005,-95.5004
14:58:17.622,-136.188,-97.9379
14:58:17.639,-135.1255,-96.5629
14:58:17.643,-135.438,-99.3754
14:58:17.653,-138.188,-102.8754
14:58:17.663,-137.2505,-103.5629
14:58:17.672,-135.563,-103.3129
14:58:17.682,-138.5005,-105.2504
14:58:17.692,-139.1255,-108.5004
14:58:17.702,-138.563,-108.8754
14:58:17.712,-137.5005,-110.3754
14:58:17.722,-137.6255,-111.4379
14:58:17.733,-131.688,-108.7504
14:58:17.743,-131.938,-107.8754
14:58:17.753,-132.688,-111.2504
14:58:17.762,-131.1255,-109.6879
14:58:17.772,-129.6255,-110.1879
14:58:17.783,-127.563,-110.4379
14:58:17.792,-126.813,-109.8129
14:58:17.802,-127.5005,-111.4379
14:58:17.812,-127.438,-112.1879
14:58:17.823,-129.3755,-112.4379
14:58:17.832,-129.7505,-115.8129
14:58:17.843,-128.563,-116.9379
14:58:17.852,-130.0005,-117.0004
14:58:17.868,-130.688,-119.1255
14:58:17.884,-132.438,-121.2505
14:58:17.890,-134.688,-125.063
14:58:17.894,-135.063,-124.188
14:58:17.908,-131.2505,-120.438
14:58:17.913,-120.3755,-109.5004
14:58:17.924,-107.8129,-93.9379
14:58:17.932,-95.8754,-84.4378
14:58:17.942,-93.1254,-77.1253
14:58:17.952,-95.3129,-64.4377
14:58:17.965,-91.9379,-54.2502
14:58:18.000,-88.2503,-44.4377
14:58:18.001,-85.2503,-36.8126
14:58:18.003,-79.3753,-27.4376
14:58:18.006,-75.6253,-19.0001
14:58:18.043,-72.6253,-14.6876
14:58:18.044,-70.9378,-8.75
14:58:18.046,-68.3128,-6.9375
14:58:18.048,-65.8128,-2.375
14:58:18.055,-61.3127,1.375
14:58:18.081,-59.5002,4.75
14:58:18.085,-59.1252,4.5
14:58:18.086,-54.6877,10.125
14:58:18.127,-52.3127,12.0625
14:58:18.127,-50.5002,13
14:58:18.128,-47.4377,15.8751
14:58:18.135,-45.5627,15.8751
14:58:18.135,-44.8752,15.8126
14:58:18.143,-46.6252,14.1876
14:58:18.154,-46.6252,12.125
14:58:18.164,-48.0627,10.5625
14:58:18.174,-49.9377,7.5625
14:58:18.185,-49.3127,6.0625
14:58:18.192,-49.0002,5.3125
14:58:18.202,-47.2502,4.9375
14:58:18.213,-44.1877,7.625
14:58:18.223,-39.5002,8.75
14:58:18.232,-38.5626,10.875
14:58:18.242,-38.3751,8.5625
14:58:18.252,-37.1251,9.5
14:58:18.262,-37.3751,7.4375
14:58:18.272,-39.1251,5.3125
14:58:18.282,-39.4377,2.875
14:58:18.292,-38.8751,1.6875
14:58:18.303,-38.8126,1.5
14:58:18.312,-38.7501,-0.125
14:58:18.322,-37.7501,1.3125
14:58:18.333,-35.8126,-0.875
14:58:18.342,-36.1876,-2.0625
14:58:18.352,-35.0626,-4.0625
14:58:18.363,-35.0001,-3.8125
14:58:18.372,-33.0626,-6.125
14:58:18.382,-33.5001,-7.9375
14:58:18.392,-33.5001,-10.3125
14:58:18.403,-33.1251,-13.6876
14:58:18.412,-28.3126,-14.7501
14:58:18.422,-21.3751,-16.3126
14:58:18.433,-11.4375,-14.6876
14:58:18.444,-0.1875,-12.5625
14:58:18.453,15.3126,-10.6875
14:58:18.463,29.9376,-9.4375
14:58:18.472,22.1251,-21.1876
14:58:18.482,12.0625,-40.2502
14:58:18.492,8.8125,-46.0627
14:58:18.502,2.5625,-49.0627
14:58:18.512,-4.0625,-55.1877
14:58:18.528,-7.9375,-59.1877
14:58:18.533,-12.875,-61.5627
14:58:18.543,-16.3126,-65.5627
14:58:18.553,-18.9376,-66.4378
14:58:18.563,-21.6251,-69.5003
14:58:18.573,-24.0001,-70.3128
14:58:18.583,-25.5626,-71.7503
14:58:18.592,-27.0626,-74.6253
14:58:18.602,-31.2501,-76.1878
14:58:18.613,-34.3126,-78.8753
14:58:18.624,-34.7501,-80.2503
14:58:18.633,-35.1876,-81.1878
14:58:18.643,-36.6251,-83.2503
14:58:18.652,-40.3752,-86.3128
14:58:18.664,-43.0627,-88.3753
14:58:18.673,-44.1877,-90.4379
14:58:18.683,-45.1252,-91.6879
14:58:18.692,-46.3127,-93.1879
14:58:18.702,-48.5627,-95.3754
14:58:18.712,-49.0002,-96.3129
14:58:18.723,-45.6252,-92.8129
14:58:18.732,-40.2502,-87.1253
14:58:18.742,-36.4376,-79.4378
14:58:18.757,-34.3126,-72.8753
14:58:18.762,-31.3126,-63.2502
14:58:18.794,-29.3751,-53.5002
14:58:18.796,-37.4376,-44.8127
14:58:18.799,-48.5627,-37.3126
14:58:18.806,-50.6252,-28.8126
14:58:18.875,-53.8127,-20.6251
14:58:18.895,-54.0627,-12.875
14:58:18.906,-52.8127,-4.4375
14:58:18.928,-51.9377,1.4375
14:58:18.929,-49.8127,6.0625
14:58:18.929,-51.4377,10.375
14:58:18.930,-50.5627,12.75
14:58:18.933,-49.8752,13.9376
14:58:18.937,-50.4377,15.6251
14:58:18.939,-45.8752,20.3126
14:58:18.942,-41.1877,25.1251
14:58:18.955,-39.8127,26.8751
14:58:18.963,-38.7501,28.1876
14:58:18.972,-38.9376,26.1251
14:58:18.983,-39.3752,26.4376
14:58:18.992,-39.8752,25.6251
14:58:19.003,-37.1251,25.5626
14:58:19.013,-36.1251,27.0626
14:58:19.022,-35.8126,24.5626
14:58:19.032,-36.0626,23.3126
14:58:19.044,-35.1876,21.9376
14:58:19.052,-35.6251,20.9376
14:58:19.062,-35.8751,18.8126
14:58:19.072,-36.0001,18.0626
14:58:19.083,-34.3751,17.2501
14:58:19.093,-31.7501,18.1251
14:58:19.102,-30.2501,18.3751
14:58:19.112,-30.5001,17.0001
14:58:19.123,-30.5626,16.4376
14:58:19.132,-29.1876,14.7501
14:58:19.142,-27.6251,15.1876
14:58:19.153,-26.8126,15.2501
14:58:19.162,-25.3751,14.2501
14:58:19.182,-23.4376,15.5001
14:58:19.188,-21.1251,14.3126
14:58:19.196,-21.6251,14.1251
14:58:19.203,-21.9376,11.5
14:58:19.220,-22.2501,9.3125
14:58:19.223,-23.2501,6.9375
14:58:19.237,-24.0001,4.5
14:58:19.242,-25.5626,1.3125
14:58:19.252,-26.8126,-0.375
14:58:19.263,-26.1251,-3.0625
14:58:19.272,-26.3751,-4.6875
14:58:19.282,-26.0626,-5.9375
14:58:19.292,-25.5626,-9.625
14:58:19.304,-25.1251,-10.3125
14:58:19.312,-25.5626,-11.4375
14:58:19.322,-27.3126,-15.9376
14:58:19.337,-28.6251,-18.1251
14:58:19.342,-26.8751,-18.8126
14:58:19.352,-24.6251,-19.1876
14:58:19.363,-22.5626,-18.3751
14:58:19.373,-21.2501,-18.3751
14:58:19.403,-19.9376,-19.5001
14:58:19.406,-17.3751,-18.8751
14:58:19.408,-14.8126,-17.4376
14:58:19.415,-11.9375,-16.4376
14:58:19.423,-9,-15.3751
14:58:19.434,-3.8125,-13.8751
14:58:19.442,4,-9.9375
14:58:19.453,18.1251,-5.0625
14:58:19.462,32.8126,-1.0625
14:58:19.493,42.5002,-1.0625
14:58:19.495,56.1252,-4.125
14:58:19.497,69.3128,-9.3125
14:58:19.505,70.9378,-15.2501
14:58:19.519,65.5003,-24.3126
14:58:19.525,55.8127,-29.4376
14:58:19.555,51.3127,-32.6251
14:58:19.558,44.0627,-31.0626
14:58:19.559,39.1252,-28.8751
14:58:19.564,34.5001,-23.0626
14:58:19.572,33.6251,-17.4376
14:58:19.599,38.0626,-7.9375
14:58:19.602,33.3126,-2.0625
14:58:19.605,15.5001,-3.25
14:58:19.640,9.375,0.5625
14:58:19.642,5.0625,1.8125
14:58:19.644,0.875,4.25
14:58:19.646,-4.1875,5.375
14:58:19.653,-7.125,6.1875
14:58:19.663,-11.625,7.75
14:58:19.673,-13.3126,10.25
14:58:19.683,-15.0001,11.3125
14:58:19.694,-15.0001,14.4376
14:58:19.702,-14.9376,15.6251
14:58:19.713,-17.8126,15.1876
14:58:19.723,-19.6251,14.0626
14:58:19.732,-20.2501,12.8125
14:58:19.743,-19.8126,13.3126
14:58:19.753,-19.8751,13
14:58:19.762,-21.1876,10.4375
14:58:19.774,-24.3126,6.3125
14:58:19.782,-26.5626,4.375
14:58:19.792,-27.1251,1.1875
14:58:19.802,-27.0626,0.0625
14:58:19.813,-28.3751,-3.1875
14:58:19.824,-29.9376,-4
14:58:19.832,-30.5001,-7.375
14:58:19.843,-30.6251,-8.8125
14:58:19.853,-31.1251,-9.75
14:58:19.863,-32.0626,-11.5
14:58:19.872,-35.6251,-15.4376
14:58:19.883,-39.4377,-16.3126
14:58:19.892,-42.6252,-19.6876
14:58:19.903,-47.0002,-19.3751
14:58:19.913,-50.0002,-21.5626
14:58:19.925,-54.1877,-24.1876
14:58:19.932,-57.5627,-25.8751
14:58:19.943,-61.7502,-28.8126
14:58:19.952,-66.1253,-29.8751
14:58:19.964,-65.7503,-30.6876
14:58:19.972,-67.1253,-31.4376
14:58:19.983,-69.5003,-34.3751
14:58:19.993,-71.2503,-38.0001
14:58:20.004,-73.8128,-39.6877
14:58:20.013,-73.1253,-42.1252
14:58:20.023,-73.3753,-43.3752
14:58:20.032,-72.6253,-44.5002
14:58:20.044,-73.1878,-45.2502
14:58:20.053,-74.8753,-48.5627
14:58:20.063,-76.5628,-50.6252
14:58:20.077,-77.5003,-52.8752
14:58:20.087,-78.3753,-53.8752
14:58:20.097,-76.6878,-55.6877
14:58:20.109,-75.1878,-53.3752
14:58:20.118,-71.0003,-52.3752
14:58:20.129,-67.8753,-49.8127
14:58:20.139,-67.1253,-50.6252
14:58:20.149,-68.6878,-52.5002
14:58:20.157,-68.4378,-53.7502
14:58:20.177,-67.3753,-53.6877
14:58:20.181,-66.5628,-54.2502
14:58:20.194,-66.3128,-54.0627
14:58:20.202,-63.3752,-54.6252
14:58:20.209,-59.3127,-50.5002
14:58:20.218,-55.0002,-48.5002
14:58:20.229,-54.4377,-46.6877
14:58:20.238,-54.8127,-49.2502
14:58:20.249,-53.5002,-46.4377
14:58:20.266,-49.2502,-42.6252
14:58:20.269,-43.8752,-34.3751
14:58:20.304,-37.0626,-24.6876
14:58:20.305,-30.3126,-12.375
14:58:20.307,-24.2501,-3.3125
14:58:20.311,-18.6251,8.4375
14:58:20.339,-12.9375,17.1876
14:58:20.341,-9.875,26.3751
14:58:20.343,-7.375,32.1876
14:58:20.350,-4.9375,36.3126
14:58:20.358,-3.5,42.1877
14:58:20.390,-1.1875,46.4377
14:58:20.391,1.625,50.0002
14:58:20.396,3.6875,52.5627
14:58:20.399,4.0625,54.3752
14:58:20.430,3.625,55.3752
14:58:20.433,2.0625,52.8127
14:58:20.435,1.75,54.0002
14:58:20.441,2.4375,53.1252
14:58:20.449,2.0625,52.8752
14:58:20.461,2.125,51.1877
14:58:20.467,2,51.3127
14:58:20.478,2.4375,48.8127
14:58:20.487,1.125,47.1877
14:58:20.506,0.5625,44.7502
14:58:20.515,-0.125,43.1252
14:58:20.532,-0.9375,39.9377
14:58:20.544,-1.125,38.2501
14:58:20.547,-0.375,37.1251
14:58:20.554,0.8125,36.6251
14:58:20.564,2.625,36.2501
14:58:20.574,2,36.0626
14:58:20.583,2.4375,34.5626
14:58:20.592,1.6875,32.1876
14:58:20.602,0.8125,31.0626
14:58:20.613,0.6875,30.6876
14:58:20.624,-1.1875,26.4376
14:58:20.633,-1.5,25.0626
14:58:20.644,-2.625,23.3126
14:58:20.654,-0.5,23.0001
14:58:20.683,1.6875,23.3126
14:58:20.686,7.5625,25.4376
14:58:20.688,14.6251,27.3126
14:58:20.694,24.9376,29.2501
14:58:20.704,32.6251,31.5001
14:58:20.714,40.0002,30.9376
14:58:20.725,46.0627,29.6251
14:58:20.739,47.7502,24.6876
14:58:20.748,45.4377,15.7501
14:58:20.759,40.5002,5.875
14:58:20.768,38.4376,-1.4375
14:58:20.779,35.1876,-8.125
14:58:20.788,29.2501,-15.7501
14:58:20.798,21.5626,-23.6251
14:58:20.809,14.6251,-29.7501
14:58:20.819,9.4375,-35.8751
14:58:20.829,4.5,-41.4377
14:58:20.838,-0.125,-44.8127
14:58:20.848,-3.8125,-46.2502
14:58:20.859,-8,-49.0002
14:58:20.868,-12.1875,-52.0627
14:58:20.879,-15.5001,-54.3127
14:58:20.889,-20.3126,-57.6877
14:58:20.898,-29.6251,-63.1252
14:58:20.909,-33.1251,-65.8753
14:58:20.919,-34.0626,-66.8753
14:58:20.928,-34.5626,-68.0628
14:58:20.939,-34.0626,-67.3128
14:58:20.949,-33.2501,-68.8128
14:58:20.977,-36.3126,-71.1253
14:58:20.978,-39.9377,-72.8128
14:58:20.980,-42.8752,-75.5003
14:58:21.024,-43.5627,-73.9378
14:58:21.025,-43.4377,-74.0003
14:58:21.027,-43.6877,-71.5628
14:58:21.031,-41.0627,-66.0003
14:58:21.035,-37.3126,-58.7502
14:58:21.050,-31.9376,-48.4377
14:58:21.051,-26.3751,-37.4376
14:58:21.078,-23.6251,-28.1876
14:58:21.081,-21.1876,-20.7501
14:58:21.083,-18.8126,-12.3125
14:58:21.089,-16.2501,-4.375
14:58:21.124,-11.8125,1.6875
14:58:21.126,-8.3125,7.375
14:58:21.128,-6.0625,13.0625
14:58:21.131,-1.375,17.3751
14:58:21.138,0.375,20.8126
14:58:21.149,1.25,23.0626
14:58:21.158,0,24.5001
14:58:21.168,-3.875,22.6251
14:58:21.178,-7.3125,22.4376
14:58:21.188,-11.625,21.0626
14:58:21.198,-15.1876,21.0626
14:58:21.210,-19.8751,20.5626
14:58:21.219,-23.6876,18.5001
14:58:21.228,-29.0001,17.4376
14:58:21.239,-37.8126,15.8751
14:58:21.248,-41.2502,13
14:58:21.258,-42.9377,11.1875
14:58:21.268,-44.0002,7.625
14:58:21.279,-45.0002,5.9375
14:58:21.289,-45.3127,2.875
14:58:21.298,-46.6877,1.0625
14:58:21.308,-47.1877,-1.75
14:58:21.319,-47.1252,-2.1875
14:58:21.328,-46.9377,-2.5625
14:58:21.339,-46.3752,-3.375
14:58:21.348,-46.4377,-3.875
14:58:21.358,-48.6252,-5.6875
14:58:21.368,-50.0627,-8.5
14:58:21.378,-49.2502,-7.875
14:58:21.389,-47.3752,-8.6875
14:58:21.398,-45.1252,-6.9375
14:58:21.408,-43.1252,-6.8125
14:58:21.418,-40.9377,-5.9375
14:58:21.428,-41.4377,-5.4375
14:58:21.438,-41.7502,-10.125
14:58:21.448,-43.3752,-11.875
14:58:21.458,-44.1877,-14.8751
14:58:21.480,-46.0627,-14.8751
14:58:21.483,-46.4377,-18.8751
14:58:21.498,-43.8127,-18.6251
14:58:21.500,-42.5002,-18.6876
14:58:21.508,-41.2502,-20.1251
14:58:21.518,-41.0627,-21.6876
14:58:21.529,-42.1877,-22.2501
14:58:21.538,-42.5627,-26.3126
14:58:21.548,-42.3752,-28.1251
14:58:21.558,-44.3752,-30.5001
14:58:21.568,-43.5627,-31.6876
14:58:21.579,-42.5002,-32.0626
14:58:21.588,-42.0002,-32.9376
14:58:21.599,-41.3127,-33.4376
14:58:21.608,-40.6252,-32.1251
14:58:21.631,-41.0002,-35.5001
14:58:21.632,-40.3752,-36.5001
14:58:21.638,-42.1252,-38.2501
14:58:21.672,-41.7502,-40.0002
14:58:21.675,-41.0627,-40.4377
14:58:21.676,-41.8127,-42.5002
14:58:21.679,-42.3752,-43.6252
14:58:21.717,-43.9377,-45.7502
14:58:21.717,-44.0627,-48.8752
14:58:21.722,-45.1252,-50.5627
14:58:21.726,-44.6877,-50.6877
14:58:21.734,-44.2502,-52.9377
14:58:21.761,-45.6877,-54.9377
14:58:21.763,-44.6877,-54.7502
14:58:21.766,-43.6252,-55.5627
14:58:21.769,-40.9377,-52.1877
14:58:21.814,-35.6876,-46.8752
14:58:21.817,-32.0626,-40.1877
14:58:21.832,-26.0001,-32.0001
14:58:21.835,-17.8126,-19.0001
14:58:21.837,-11.375,-9.25
14:58:21.837,-5.625,1.5625
14:58:21.844,-0.8125,9.125
14:58:21.854,3.25,18.3751
14:58:21.863,7.125,24.5001
14:58:21.874,10.5,30.5001
14:58:21.883,13.3751,34.5001
14:58:21.893,16.3751,38.9376
14:58:21.904,18.3126,41.4377
14:58:21.913,20.7501,44.5627
14:58:21.924,22.1876,46.1252
14:58:21.934,24.3751,47.3752
14:58:21.963,26.3126,48.7502
14:58:21.966,32.7501,51.8752
14:58:21.968,42.1877,55.3752
14:58:21.973,52.8127,59.0002
14:58:21.989,63.1877,61.8752
14:58:21.993,70.6253,62.7502
14:58:22.004,78.1878,59.6252
14:58:22.013,79.4378,55.0627
14:58:22.024,80.6878,48.8752
14:58:22.033,77.5628,41.0627
14:58:22.043,73.1253,34.3126
14:58:22.054,68.2503,26.4376
14:58:22.064,61.6877,20.9376
14:58:22.073,54.0002,14.8126
14:58:22.084,47.5002,9.375
14:58:22.094,44.6252,5.5
14:58:22.103,40.5627,1.9375
14:58:22.113,33.8751,-0.875
14:58:22.123,25.0626,-4.4375
14:58:22.133,20.5001,-7.625
14:58:22.143,15.5626,-9.875
14:58:22.153,12.3125,-12.125
14:58:22.164,7.5,-15.8751
14:58:22.173,2.8125,-17.5001
14:58:22.183,0.0625,-21.3126
14:58:22.193,-1.75,-22.5001
14:58:22.203,-4.0625,-24.0001
14:58:22.213,-6.8125,-27.5626
14:58:22.223,-12.4375,-31.2501
14:58:22.234,-16.5001,-35.8751
14:58:22.244,-22.6876,-39.5627
14:58:22.254,-26.2501,-42.3752
14:58:22.264,-28.6876,-46.4377
14:58:22.273,-30.1876,-46.4377
14:58:22.284,-32.1876,-50.1877
14:58:22.293,-35.4376,-52.9377
14:58:22.304,-37.8126,-57.1877
14:58:22.314,-42.0627,-59.8752
14:58:22.323,-44.1877,-65.1877
14:58:22.333,-45.7502,-65.9378
14:58:22.344,-44.5002,-68.6878
14:58:22.353,-44.9377,-68.2503
14:58:22.364,-45.5627,-71.1878
14:58:22.374,-46.8752,-71.5628
14:58:22.383,-46.6877,-74.0628
14:58:22.411,-45.7502,-74.0628
14:58:22.414,-46.1877,-75.2503
14:58:22.416,-45.6252,-76.5003
14:58:22.446,-48.1252,-78.0003
14:58:22.448,-46.7502,-79.1253
14:58:22.451,-45.5627,-77.6878
14:58:22.457,-43.8752,-77.6253
14:58:22.484,-48.4377,-78.3128
14:58:22.487,-54.0627,-81.3753
14:58:22.489,-60.5627,-83.7503
14:58:22.498,-67.1878,-84.0003
14:58:22.536,-71.3753,-88.1253
14:58:22.538,-74.6878,-89.5003
14:58:22.542,-74.1878,-88.6878
14:58:22.547,-70.6253,-84.8128
14:58:22.547,-67.4378,-81.7503
14:58:22.573,-64.5002,-76.3128
14:58:22.576,-61.1877,-70.3128
14:58:22.579,-57.6877,-62.1877
14:58:22.583,-51.4377,-52.8127
14:58:22.593,-45.2502,-41.6877
14:58:22.604,-39.3127,-31.4376
14:58:22.614,-34.6876,-25.1251
14:58:22.624,-32.8751,-19.6251
14:58:22.633,-30.8126,-13.6251
14:58:22.644,-31.0626,-11.875
14:58:22.653,-32.2501,-11.25
14:58:22.663,-34.1876,-9.625
14:58:22.674,-30.8751,-6.5625
14:58:22.683,-26.6876,-1
14:58:22.694,-22.0001,3.75
14:58:22.704,-20.7501,4.875
14:58:22.714,-18.9376,7.375
14:58:22.723,-20.4376,7.75
14:58:22.738,-19.4376,7.875
14:58:22.744,-20.8751,8.6875
14:58:22.754,-21.2501,6.8125
14:58:22.764,-21.3751,4.8125
14:58:22.779,-21.9376,5.25
14:58:22.793,-22.5626,3
14:58:22.797,-20.6251,2.6875
14:58:22.805,-21.1876,1.6875
14:58:22.813,-20.9376,1.0625
14:58:22.823,-23.8751,-1.8125
14:58:22.834,-25.6251,-4.8125
14:58:22.844,-23.5001,-2.75
14:58:22.853,-20.5626,0.125
14:58:22.863,-19.2501,0.0625
14:58:22.873,-20.1251,-0.9375
14:58:22.883,-20.0626,-1.9375
14:58:22.894,-20.5626,-1.8125
14:58:22.909,-18.5001,-2.6875
14:58:22.919,-13.7501,1.6875
14:58:22.929,-12.8125,0.6875
14:58:22.939,-17.3126,-3.3125
14:58:22.949,-17.1876,-5.6875
14:58:22.959,-13.2501,-3.8125
14:58:22.969,-13.0625,-3.5625
14:58:22.979,-15.6251,-7.5
14:58:22.988,-17.8751,-10.875
14:58:22.998,-18.9376,-12.4375
14:58:23.008,-19.6876,-15.8126
14:58:23.018,-21.9376,-17.0626
14:58:23.028,-21.9376,-20.8751
14:58:23.039,-20.6251,-20.1876
14:58:23.050,-20.1876,-20.6251
14:58:23.058,-17.6876,-21.2501
14:58:23.069,-15.8751,-20.5001
14:58:23.078,-16.8751,-23.5626
14:58:23.088,-20.0001,-27.4376
14:58:23.142,-21.7501,-29.0626
14:58:23.143,-21.9376,-30.9376
14:58:23.143,-20.6876,-31.8751
14:58:23.184,-20.7501,-31.3751
14:58:23.184,-19.6251,-33.8126
14:58:23.184,-17.5001,-32.5001
14:58:23.186,-16.7501,-31.1876
14:58:23.188,-16.3751,-34.0626
14:58:23.196,-18.5626,-34.8751
14:58:23.196,-21.4376,-38.8126
14:58:23.204,-27.1251,-45.6252
14:58:23.233,-31.1876,-49.6877
14:58:23.237,-30.5626,-51.6252
14:58:23.237,-28.8751,-50.5002
14:58:23.252,-28.0626,-51.1252
14:58:23.256,-26.4376,-51.4377
14:58:23.262,-23.7501,-48.7502
14:58:23.289,-20.0001,-46.4377
14:58:23.292,-17.3126,-43.0002
14:58:23.294,-15.3751,-39.3752
14:58:23.299,-13.2501,-34.9376
14:58:23.309,-10.125,-28.3751
14:58:23.319,-6.6875,-19.8751
14:58:23.328,-2,-11.25
14:58:23.338,4.375,-3.125
14:58:23.348,11.75,7.1875
14:58:23.359,18.7501,16.8126
14:58:23.368,24.3126,24.3751
14:58:23.378,28.1251,30.0626
14:58:23.389,31.2501,34.3126
14:58:23.399,33.0626,36.8751
14:58:23.410,35.1251,38.3751
14:58:23.418,35.4376,38.3751
14:58:23.430,38.8126,39.5627
14:58:23.438,44.3127,43.6252
14:58:23.450,50.5627,47.6877
14:58:23.459,56.2502,51.9377
14:58:23.469,59.2502,54.3127
14:58:23.478,63.4377,58.7502
14:58:23.490,63.9377,59.3127
14:58:23.498,61.0627,56.5002
14:58:23.510,57.8127,53.6877
14:58:23.519,57.5627,52.0002
14:58:23.528,57.1252,49.2502
14:58:23.540,55.6877,46.4377
14:58:23.549,51.4377,43.1252
14:58:23.558,93.7504,58.0002
14:58:23.569,113.8754,97.8754
14:58:23.578,136.1255,117.5004
14:58:23.588,153.9381,134.1255
14:58:23.599,166.1881,144.813
14:58:23.608,176.1257,153.7506
14:58:23.618,185.5632,161.1256
14:58:23.629,191.8132,167.0006
14:58:23.638,203.5008,174.5632
14:58:23.650,215.4383,184.0632
14:58:23.665,224.5009,190.7507
14:58:23.669,227.6884,191.7507
14:58:23.679,224.6884,189.1257
14:58:23.690,226.1884,186.6257
14:58:23.699,220.6258,182.3757
14:58:23.708,219.1258,177.8757
14:58:23.720,218.8758,177.1882
14:58:23.729,220.4383,177.8132
14:58:23.739,218.8758,173.6882
14:58:23.748,218.8133,172.4382
14:58:23.759,219.3758,173.0632
14:58:23.769,218.6258,171.6257
14:58:23.779,217.9383,169.1881
14:58:23.789,213.5008,164.0006
14:58:23.798,210.2508,160.2506
14:58:23.808,203.6258,155.8131
14:58:23.818,199.5633,150.0631
14:58:23.830,194.8757,143.5005
14:58:23.838,186.2507,137.688
14:58:23.868,181.3757,130.688
14:58:23.870,174.4382,125.0005
14:58:23.872,167.0631,117.3755
14:58:23.908,162.8131,112.2504
14:58:23.910,156.5631,107.3129
14:58:23.911,150.3131,99.5004
14:58:23.915,144.5005,95.6254
14:58:23.920,138.8755,89.1253
14:58:23.959,132.938,82.8753
14:58:23.961,130.563,80.5003
14:58:23.965,125.563,76.1253
14:58:23.966,122.938,72.8753
14:58:23.968,119.813,70.1253
14:58:24.004,117.0004,66.6878
14:58:24.006,113.8129,63.7502
14:58:24.009,111.3129,62.0627
14:58:24.015,108.4379,59.0002
14:58:24.029,105.1254,55.6877
14:58:24.040,103.3754,52.5002
14:58:24.047,100.0629,50.6877
14:58:24.055,98.2504,49.1252
14:58:24.072,97.1879,47.8752
14:58:24.075,97.9379,50.6877
14:58:24.090,99.5629,54.7502
14:58:24.095,101.5629,60.3127
14:58:24.105,103.6254,65.3752
14:58:24.114,105.8754,72.4378
14:58:24.124,108.0004,78.7503
14:58:24.135,110.0629,84.7503
14:58:24.144,110.7504,88.7503
14:58:24.153,110.6254,93.1879
14:58:24.165,111.0629,95.4379
14:58:24.175,111.3129,99.5629
14:58:24.184,111.1879,100.1254
14:58:24.194,111.0629,102.5004
14:58:24.205,111.4379,104.1254
14:58:24.215,110.9379,104.9379
14:58:24.224,111.0004,104.6879
14:58:24.236,109.4379,105.0004
14:58:24.244,109.0004,104.7504
14:58:24.255,108.7504,104.1879
14:58:24.265,108.5004,104.7504
14:58:24.275,108.0004,103.3754
14:58:24.285,107.0004,102.5004
14:58:24.295,105.5629,100.6879
14:58:24.305,103.8129,97.6254
14:58:24.315,103.0629,95.3754
14:58:24.325,101.4379,93.6254
14:58:24.335,99.5629,90.7504
14:58:24.344,99.2504,89.5628
14:58:24.355,97.0629,87.6253
14:58:24.364,96.4379,85.7503
14:58:24.375,94.1254,84.1253
14:58:24.385,93.2504,82.7503
14:58:24.395,91.3129,80.6253
14:58:24.410,89.1253,79.6878
14:58:24.426,87.5628,76.6878
14:58:24.428,85.1878,74.8753
14:58:24.434,82.8753,73.0628
14:58:24.444,80.6878,69.8753
14:58:24.455,78.5628,67.8753
14:58:24.465,76.5628,65.1877
14:58:24.475,74.6253,63.5002
14:58:24.484,72.1878,60.1877
14:58:24.495,70.3753,58.1252
14:58:24.524,68.9378,55.0002
14:58:24.525,66.4378,53.3752
14:58:24.527,65.9378,50.8127
14:58:24.535,63.4377,47.6252
14:58:24.546,62.8752,45.5627
14:58:24.555,60.4377,43.6877
14:58:24.565,59.9377,41.8752
14:58:24.574,58.1252,39.6252
14:58:24.585,56.3752,37.6876
14:58:24.595,54.9377,35.8751
14:58:24.604,53.8127,33.1876
14:58:24.615,52.8127,31.1876
14:58:24.626,50.6252,29.1251
14:58:24.656,48.4377,26.9376
14:58:24.659,47.8127,24.8751
14:58:24.661,44.8752,22.8751
14:58:24.666,43.5627,20.4376
14:58:24.694,41.8127,17.8751
14:58:24.696,38.8751,15.1876
14:58:24.699,38.1251,13.0625
14:58:24.705,35.3126,11.5
14:58:24.751,34.4376,8.9375
14:58:24.751,32.2501,7.5625
14:58:24.754,31.0626,6.125
14:58:24.760,29.2501,3.5
14:58:24.762,29.0001,2.125
14:58:24.788,28.5001,0.75
14:58:24.791,27.3126,-0.375
14:58:24.794,26.2501,-2.1875
14:58:24.801,25.1876,-3.125
14:58:24.824,24.3126,-4.6875
14:58:24.826,22.6251,-6.8125
14:58:24.830,21.4376,-8
14:58:24.840,20.3126,-8.8125
14:58:24.849,20.8751,-8.25
14:58:24.860,22.8751,-5.3125
14:58:24.869,25.8126,-0.125
14:58:24.881,28.8751,6.125
14:58:24.890,32.0626,12.8125
14:58:24.900,35.4376,20.4376
14:58:24.910,38.0001,25.5001
14:58:24.920,41.7502,34.5626
14:58:24.929,44.0627,39.4377
14:58:24.939,45.7502,44.0627
14:58:24.951,46.3752,46.8127
14:58:24.959,46.7502,49.5002
14:58:24.971,47.0002,49.3127
14:58:24.980,47.1252,51.6252
14:58:24.990,46.5627,51.6877
14:58:25.000,46.6877,52.2502
14:58:25.010,45.4377,53.6877
14:58:25.020,44.8752,52.5627
14:58:25.030,44.9377,52.8752
14:58:25.040,44.2502,52.1877
14:58:25.050,42.7502,51.7502
14:58:25.061,42.3752,51.1877
14:58:25.070,41.6252,49.5627
14:58:25.080,40.8752,48.4377
14:58:25.090,39.5627,46.7502
14:58:25.101,38.1876,46.3752
14:58:25.111,37.9376,43.5002
14:58:25.120,37.1876,41.8127
14:58:25.129,36.0001,40.9377
14:58:25.139,35.6251,40.0002
14:58:25.151,35.8126,38.6876
14:58:25.160,35.1876,39.4377
14:58:25.169,35.0626,38.3126
14:58:25.180,34.8126,37.1251
14:58:25.190,33.9376,36.3751
14:58:25.203,33.1251,36.0626
14:58:25.209,32.3126,34.3751
14:58:25.220,31.6251,32.9376
14:58:25.230,30.3751,31.1251
14:58:25.241,29.0626,31.3126
14:58:25.250,28.5001,29.3126
14:58:25.259,28.0626,27.5001
14:58:25.269,27.1876,26.2501
14:58:25.280,25.6876,24.7501
14:58:25.290,24.2501,22.9376
14:58:25.299,23.4376,19.8126
14:58:25.309,21.2501,17.3126
14:58:25.320,19.2501,15.9376
14:58:25.331,18.3126,13.8751
14:58:25.340,17.1876,10.9375
14:58:25.350,15.6876,8.9375
14:58:25.368,14.1251,7.6875
14:58:25.372,12.75,5.375
14:58:25.405,11.625,2.5625
14:58:25.408,9.875,0.9375
14:58:25.408,9.3125,-0.875
14:58:25.413,8.5625,-2.5625
14:58:25.450,6.9375,-5.3125
14:58:25.450,5.4375,-6.8125
14:58:25.452,4.5,-7.5
14:58:25.455,3.3125,-10
14:58:25.462,2.1875,-12.5625
14:58:25.491,0.75,-13.8126
14:58:25.494,0.5,-14.3126
14:58:25.496,-0.4375,-15.5626
14:58:25.501,-0.4375,-17.5626
14:58:25.534,-1.8125,-19.5001
14:58:25.536,-2.9375,-20.5626
14:58:25.539,-3.625,-21.3751
14:58:25.546,-3.8125,-22.8126
14:58:25.551,-3.8125,-24.6251
14:58:25.559,-4.75,-25.1251
14:58:25.569,-4.25,-24.5001
14:58:25.580,-2.375,-22.0001
14:58:25.590,0.125,-17.2501
14:58:25.601,3.1875,-11.0625
14:58:25.610,6.75,-5.8125
14:58:25.620,10.1875,0.9375
14:58:25.629,13.6876,8.625
14:58:25.639,17.0001,14.4376
14:58:25.649,18.8126,20.5626
14:58:25.660,20.6876,25.7501
14:58:25.669,21.6876,28.6876
14:58:25.680,22.9376,33.3751
14:58:25.691,23.9376,35.3751
14:58:25.707,24.1251,36.3751
14:58:25.722,25.4376,39.1876
14:58:25.725,25.0001,38.8126
14:58:25.730,25.1251,40.2502
14:58:25.739,24.6876,39.8127
14:58:25.750,24.8126,41.4377
14:58:25.761,24.1876,40.1252
14:58:25.769,24.4376,41.5002
14:58:25.805,24.2501,40.8127
14:58:25.806,24.4376,40.2502
14:58:25.808,22.9376,39.1876
14:58:25.811,22.6251,39.5627
14:58:25.820,22.1251,37.3126
14:58:25.829,21.0626,35.1876
14:58:25.840,19.7501,33.5626
14:58:25.850,19.0626,32.8126
14:58:25.861,19.2501,31.0626
14:58:25.870,18.5626,30.3751
14:58:25.879,18.0626,29.8126
14:58:25.890,17.5626,28.5001
14:58:25.900,16.8751,29.0626
14:58:25.911,16.7501,27.3126
14:58:25.919,16.3126,25.9376
14:58:25.930,15.4376,26.0626
14:58:25.940,15.5001,24.6251
14:58:25.955,14.7501,23.2501
14:58:25.961,13.6251,22.5001
14:58:25.970,12.625,21.3126
14:58:25.980,12.9375,20.1251
14:58:25.990,12.25,18.8751
14:58:26.006,10.8125,17.0626
14:58:26.011,9.75,16.0626
14:58:26.037,8.0625,13.8751
14:58:26.039,6.875,10.4375
14:58:26.041,5.9375,8.5625
14:58:26.052,4.5,6.1875
14:58:26.089,3.5,4.5625
14:58:26.091,2.6875,3.75
14:58:26.093,2,1
14:58:26.096,1.0625,-0.875
14:58:26.105,0.75,-0.875
14:58:26.110,0.1875,-3.5625
14:58:26.142,-0.875,-5.9375
14:58:26.143,-2.1875,-7.5625
14:58:26.146,-3.8125,-8.75
14:58:26.151,-4.0625,-11.4375
14:58:26.180,-5.9375,-13.6251
14:58:26.183,-7.25,-14.7501
14:58:26.186,-7.875,-16.1876
14:58:26.191,-8.1875,-17.9376
14:58:26.201,-9.0625,-19.5626
14:58:26.209,-10.125,-20.8126
14:58:26.220,-10.1875,-20.7501
14:58:26.231,-9.8125,-21.7501
14:58:26.239,-9.1875,-23.0626
14:58:26.249,-9.6875,-24.4376
14:58:26.259,-10.875,-25.8751
14:58:26.269,-10.375,-25.6876
14:58:26.280,-10.9375,-27.3751
14:58:26.289,-10.1875,-26.9376
14:58:26.300,-10,-26.7501
14:58:26.310,-8.1875,-24.6876
14:58:26.321,-5.4375,-21.4376
14:58:26.331,-1.9375,-14.7501
14:58:26.340,1.5,-8.8125
14:58:26.350,5.125,0
14:58:26.360,8.5625,6
14:58:26.369,12.25,14.4376
14:58:26.380,14.6876,19.3126
14:58:26.390,17.6251,26.3126
14:58:26.400,19.6251,30.5001
14:58:26.412,20.8751,34.5626
14:58:26.419,22.0001,37.6876
14:58:26.430,22.6876,41.3127
14:58:26.440,23.1876,41.6877
14:58:26.450,23.9376,44.8752
14:58:26.460,24.1251,44.8752
14:58:26.469,24.9376,47.3127
14:58:26.480,24.8751,47.0627
14:58:26.490,24.6251,48.2502
14:58:26.501,24.2501,47.2502
14:58:26.509,23.8126,47.3752
14:58:26.520,22.8126,47.1877
14:58:26.530,23.2501,46.0627
14:58:26.539,21.8751,44.2502
14:58:26.550,20.7501,42.3752
14:58:26.560,19.4376,40.9377
14:58:26.570,18.6251,40.0627
14:58:26.580,17.8126,37.3126
14:58:26.591,17.0001,36.5626
14:58:26.600,16.5626,35.6876
14:58:26.609,16.3126,33.8126
14:58:26.620,15.3126,32.9376
14:58:26.630,15.3126,32.8751
14:58:26.640,14.1251,30.6876
14:58:26.649,13,30.3751
14:58:26.666,11.6875,29.6876
14:58:26.681,11.25,27.5001
14:58:26.684,11.25,26.3126
14:58:26.689,10.8125,26.3126
14:58:26.706,10.0625,25.0001
14:58:26.711,9.375,22.3751
14:58:26.720,8.25,20.3126
14:58:26.730,7.4375,20.3126
14:58:26.741,6.625,17.7501
14:58:26.750,5.375,16.2501
14:58:26.760,5.3125,13.7501
14:58:26.771,4.125,11.6875
14:58:26.779,2.8125,9.75
14:58:26.791,2,8.4375
14:58:26.802,1.5,6.5
14:58:26.809,0.0625,3.3125
14:58:26.819,-1.625,1.8125
14:58:26.855,-1.75,0.1875
14:58:26.856,-2.5625,-1.5625
14:58:26.860,-2.6875,-3.25
14:58:26.862,-4.8125,-6.5
14:58:26.890,-5.75,-7
14:58:26.892,-5.875,-9.1875
14:58:26.894,-7.5625,-11.6875
14:58:26.910,-8.375,-12.125
14:58:26.912,-8.9375,-14.6876
14:58:26.944,-9.9375,-16.2501
14:58:26.946,-10.625,-17.5001
14:58:26.948,-11.875,-20.5001
14:58:26.957,-11.9375,-20.4376
14:58:26.966,-12.25,-20.9376
14:58:26.972,-12.75,-23.0001
14:58:27.006,-13.5626,-25.0626
14:58:27.021,-13.5626,-25.4376
14:58:27.022,-13.5626,-26.5001
14:58:27.025,-15.0626,-28.1251
14:58:27.026,-14.2501,-27.7501
14:58:27.030,-13.8751,-28.3751
14:58:27.041,-12.9375,-27.3751
14:58:27.050,-10.9375,-24.2501
14:58:27.087,-8.0625,-20.5626
14:58:27.090,-4.5,-14.2501
14:58:27.091,0.1875,-6.5625
14:58:27.094,4.0625,1.6875
14:58:27.104,7.8125,9.875
14:58:27.111,10.8125,17.4376
14:58:27.120,14.1876,24.1251
14:58:27.131,15.8126,29.6876
14:58:27.141,18.2501,34.2501
14:58:27.152,19.9376,37.7501
14:58:27.161,20.5626,42.6877
14:58:27.171,22.5626,44.1252
14:58:27.180,23.4376,45.9377
14:58:27.191,22.9376,47.9377
14:58:27.201,23.1876,48.6877
14:58:27.210,22.6876,49.8127
14:58:27.221,23.5001,50.5627
14:58:27.232,22.3126,50.7502
14:58:27.240,22.7501,50.8752
14:58:27.251,22.1876,50.8127
14:58:27.260,21.0626,49.8752
14:58:27.270,20.5001,49.7502
14:58:27.281,19.3751,47.3752
14:58:27.291,17.8126,45.7502
14:58:27.301,16.6876,44.4377
14:58:27.312,16.3126,42.3752
14:58:27.319,15.3751,39.8752
14:58:27.330,15.0001,39.0001
14:58:27.341,14.2501,37.0001
14:58:27.349,13.5626,36.3126
14:58:27.361,14.0001,35.2501
14:58:27.371,13.2501,33.6876
14:58:27.380,12.625,33.1876
14:58:27.392,12.3125,32.4376
14:58:27.401,12.0625,30.5001
14:58:27.410,10.6875,30.5001
14:58:27.422,11.4375,29.1251
14:58:27.431,10.25,27.5626
14:58:27.441,9.375,26.8126
14:58:27.451,8.875,24.7501
14:58:27.488,8,22.6876
14:58:27.491,7.375,21.5001
14:58:27.493,7,19.0001
14:58:27.496,5.875,17.0626
14:58:27.503,4.8125,16.1876
14:58:27.536,4.625,13.2501
14:58:27.537,3.4375,11.375
14:58:27.542,1.75,9.4375
14:58:27.545,2.0625,6.6875
14:58:27.551,-0.5,3.5
14:58:27.583,-1.5625,3.125
14:58:27.583,-1.6875,-0.3125
14:58:27.586,-3,-2.6875
14:58:27.595,-3.375,-3.5625
14:58:27.623,-4.8125,-6.3125
14:58:27.625,-5.1875,-7.5
14:58:27.627,-6.0625,-10
14:58:27.635,-7.625,-12.5
14:58:27.645,-8.9375,-12.4375
14:58:27.651,-9.1875,-15.5001
14:58:27.661,-9.75,-18.0626
14:58:27.672,-10.625,-17.7501
14:58:27.681,-10.875,-19.0001
14:58:27.692,-11.125,-20.1876
14:58:27.702,-11.625,-22.0626
14:58:27.711,-12.125,-23.3126
14:58:27.721,-12.3125,-25.3126
14:58:27.731,-12.3125,-25.6876
14:58:27.742,-11.625,-26.9376
14:58:27.751,-11.3125,-26.5001
14:58:27.761,-11.375,-28.0626
14:58:27.772,-10.5625,-27.7501
14:58:27.781,-9.8125,-28.3126
14:58:27.791,-8.4375,-27.6251
14:58:27.801,-7.625,-26.9376
14:58:27.811,-4.8125,-22.6251
14:58:27.822,-1.875,-18.6876
14:58:27.831,2.4375,-10.5625
14:58:27.841,6.3125,-3.125
14:58:27.851,10.75,5.9375
14:58:27.861,14.1876,13.9376
14:58:27.871,17.4376,21.5626
14:58:27.881,19.6251,27.6251
14:58:27.891,21.6251,33.6251
14:58:27.901,23.6251,38.8126
14:58:27.911,26.0626,42.3752
14:58:27.921,27.0001,45.7502
14:58:27.931,28.3126,49.8127
14:58:27.941,28.1876,49.7502
14:58:27.961,28.3126,51.6877
14:58:27.964,28.3751,52.5002
14:58:27.974,28.1876,52.9377
14:58:27.981,28.1251,53.9377
14:58:27.996,28.0001,52.9377
14:58:28.003,27.7501,53.5002
14:58:28.011,27.6876,53.6877
14:58:28.021,26.9376,52.7502
14:58:28.031,26.4376,51.2502
14:58:28.041,24.8126,51.0002
14:58:28.051,24.2501,48.3127
14:58:28.061,23.7501,46.3127
14:58:28.071,22.3751,43.9377
14:58:28.082,21.4376,41.8752
14:58:28.091,21.1876,42.0002
14:58:28.101,20.2501,38.9376
14:58:28.112,19.4376,38.3126
14:58:28.121,18.3751,36.8751
14:58:28.132,18.1251,35.6251
14:58:28.140,17.0001,33.0626
14:58:28.151,15.6876,33.1251
14:58:28.161,14.3751,31.7501
14:58:28.171,14.3751,30.0626
14:58:28.181,13.5001,28.5001
14:58:28.192,13.2501,27.6876
14:58:28.203,12.5625,25.5001
14:58:28.217,11.375,24.8751
14:58:28.221,10.625,23.1876
14:58:28.231,9.9375,20.3751
14:58:28.241,8.1875,17.4376
14:58:28.251,6.3125,14.9376
14:58:28.261,5,11.9375
14:58:28.271,4.0625,10.125
14:58:28.296,2.625,8.9375
14:58:28.298,2.1875,6.4375
14:58:28.370,1.3125,3.4375
14:58:28.372,0.6875,2.8125
14:58:28.405,0.5625,0.3125
14:58:28.406,-0.3125,-2.4375
14:58:28.406,-1.875,-5.0625
14:58:28.408,-3.8125,-6.6875
14:58:28.412,-4.5,-8.3125
14:58:28.419,-5.4375,-11.1875
14:58:28.419,-6.375,-14.0626
14:58:28.421,-7.875,-14.6876
14:58:28.450,-8.3125,-16.8751
14:58:28.450,-9.875,-19.5626
14:58:28.454,-11.1875,-21.4376
14:58:28.462,-12.125,-22.0626
14:58:28.471,-12,-23.0626
14:58:28.481,-11.75,-24.8126
14:58:28.491,-11.75,-25.3751
14:58:28.501,-12.125,-27.4376
14:58:28.512,-12.25,-28.1251
14:58:28.521,-12.375,-29.2501
14:58:28.531,-13.3751,-30.2501
14:58:28.541,-12.8125,-32.6876
14:58:28.551,-10.5,-28.9376
14:58:28.561,-7.875,-23.3126
14:58:28.571,-3.6875,-14.6876
14:58:28.581,1.25,-7.5
14:58:28.592,4.5,1.25
14:58:28.602,8.0625,7.75
14:58:28.611,10.5625,14.9376
14:58:28.621,14.1876,20.6251
14:58:28.631,15.9376,27.1876
14:58:28.641,17.8126,30.8126
14:58:28.651,18.6251,33.7501
14:58:28.661,19.1251,34.9376
14:58:28.671,19.6251,37.8751
14:58:28.681,19.5626,38.6876
14:58:28.691,20.3126,39.0626
14:58:28.701,19.9376,40.7502
14:58:28.711,19.0001,39.0626
14:58:28.721,18.6251,39.3127
14:58:28.731,17.3126,38.3126
14:58:28.741,17.3126,37.0001
14:58:28.751,14.8751,36.1876
14:58:28.761,14.1876,34.5001
14:58:28.771,12.3125,33.2501
14:58:28.781,10.5625,30.8751
14:58:28.797,9.875,27.4376
14:58:28.806,8.5,25.5001
14:58:28.816,7.5,23.6251
14:58:28.826,7.0625,21.1251
14:58:28.836,6.4375,20.5626
14:58:28.846,6.125,20.0001
14:58:28.856,6.625,18.6876
14:58:28.866,5.8125,18.1876
14:58:28.876,5.0625,17.1251
14:58:28.885,5.75,15.5001
14:58:28.896,5.6875,15.1876
14:58:28.906,4.875,14.3126
14:58:28.915,4.375,13.125
14:58:28.931,3.5625,12.5625
14:58:28.937,3.6875,10.4375
14:58:28.976,2.25,8
14:58:28.979,1.4375,5.875
14:58:28.980,1.1875,3.9375
14:58:28.981,0.1875,1.8125
14:58:29.013,-1.125,0.0625
14:58:29.014,-2.3125,-2.6875
14:58:29.016,-3.375,-5.375
14:58:29.021,-4.4375,-7.625
14:58:29.058,-6,-10.3125
14:58:29.060,-7,-12.25
14:58:29.064,-7.75,-14.7501
14:58:29.064,-9.0625,-15.8126
14:58:29.067,-9.8125,-19.2501
14:58:29.078,-11,-21.5001
14:58:29.094,-12.8125,-24.0001
14:58:29.098,-14.3751,-24.8126
14:58:29.118,-14.9376,-28.1251
14:58:29.120,-16.1251,-30.5001
14:58:29.127,-17.0626,-31.0001
14:58:29.136,-18.4376,-31.6876
14:58:29.146,-18.9376,-35.0001
14:58:29.156,-20.1876,-37.1876
14:58:29.167,-20.5001,-37.5001
14:58:29.176,-21.6876,-39.6877
14:58:29.186,-22.0001,-40.8752
14:58:29.196,-23.0626,-42.8752
14:58:29.206,-23.6251,-44.3127
14:58:29.216,-24.3126,-45.2502
14:58:29.226,-24.9376,-45.8127
14:58:29.236,-24.5626,-46.0627
14:58:29.246,-24.2501,-48.3752
14:58:29.255,-23.6251,-46.6877
14:58:29.266,-21.3751,-44.7502
14:58:29.281,-18.8751,-42.0002
14:58:29.288,-15.0626,-36.1251
14:58:29.296,-11.125,-28.4376
14:58:29.312,-6.25,-19.8751
14:58:29.320,-1.625,-11.25
14:58:29.330,1.625,-4.125
14:58:29.337,4.8125,5.625
14:58:29.346,8.3125,10.25
14:58:29.356,10.1875,15.8751
14:58:29.366,11.9375,18.8751
14:58:29.376,12,21.3751
14:58:29.386,13.1251,24.3751
14:58:29.396,13.2501,26.4376
14:58:29.406,13.3751,27.5626
14:58:29.416,13.9376,28.0001
14:58:29.427,13.2501,29.2501
14:58:29.436,13.2501,29.6876
14:58:29.446,12.9375,29.1251
14:58:29.456,12.375,30.0001
14:58:29.466,12.125,28.4376
14:58:29.476,11.1875,28.8126
14:58:29.492,11.1875,28.0626
14:58:29.497,9.875,26.5626
14:58:29.506,8.3125,25.4376
14:58:29.517,8.1875,23.6876
14:58:29.526,6.9375,21.2501
14:58:29.535,5.625,18.6251
14:58:29.546,4.875,17.8126
14:58:29.556,4.875,16.0626
14:58:29.566,4.5625,14.6251
14:58:29.576,3.8125,12.9375
14:58:29.586,3.125,12.9375
14:58:29.595,2.5625,11.875
14:58:29.606,3.0625,10.4375
14:58:29.616,2.75,9.1875
14:58:29.643,1.9375,8.8125
14:58:29.645,1.5,8.625
14:58:29.663,1.3125,6.8125
14:58:29.673,0.875,5.125
14:58:29.720,0.3125,4.25
14:58:29.754,-0.5625,3.6875
14:58:29.756,-0.125,1.0625
14:58:29.783,-1.3125,-1.125
14:58:29.783,-2,-2.5
14:58:29.783,-2.9375,-3.3125
14:58:29.785,-3.4375,-5.5
14:58:29.787,-4.5,-7.9375
14:58:29.821,-5.1875,-9.875
14:58:29.824,-6.375,-10.9375
14:58:29.827,-7.0625,-14.0626
14:58:29.833,-8.4375,-17.0626
14:58:29.833,-9.3125,-18.7501
14:58:29.845,-10.5,-19.3751
14:58:29.847,-11.0625,-23.1876
14:58:29.856,-12,-25.5001
14:58:29.872,-12.9375,-26.6251
14:58:29.878,-13.8751,-28.6876
14:58:29.886,-15.1251,-30.3751
14:58:29.896,-16.0626,-31.8126
14:58:29.907,-15.8751,-33.1876
14:58:29.916,-16.6251,-35.7501
14:58:29.927,-20.5626,-45.0002
14:58:29.936,-22.5001,-45.5002
14:58:29.947,-22.8126,-47.1877
14:58:29.956,-23.1251,-49.1252
14:58:29.968,-23.1251,-49.5002
14:58:29.976,-23.5001,-51.2502
14:58:29.987,-23.7501,-51.7502
14:58:29.996,-23.0626,-52.1252
14:58:30.006,-23.8751,-52.7502
14:58:30.016,-23.1251,-53.3752
14:58:30.026,-23.5626,-54.1252
14:58:30.036,-23.0626,-54.2502
14:58:30.047,-21.9376,-53.6877
14:58:30.055,-20.4376,-49.4377
14:58:30.067,-16.9376,-44.9377
14:58:30.075,-12.375,-37.9376
14:58:30.088,-7.6875,-29.0626
14:58:30.096,-2.875,-20.4376
14:58:30.107,1.3125,-11.0625
14:58:30.116,4.8125,-3.5
14:58:30.126,8.0625,4.25
14:58:30.137,9.8125,9.6875
14:58:30.147,12.25,14.2501
14:58:30.156,13.6251,17.3126
14:58:30.166,14.6251,22.0001
14:58:30.177,15.8751,23.3126
14:58:30.186,16.5001,26.3126
14:58:30.196,16.9376,26.2501
14:58:30.206,16.8751,28.6251
14:58:30.217,17.5001,28.9376
14:58:30.226,17.1251,30.0626
14:58:30.237,16.8751,30.0001
14:58:30.248,16.5626,30.5001
14:58:30.257,16.1251,29.3751
14:58:30.267,16.5001,30.9376
14:58:30.277,15.6876,29.2501
14:58:30.286,14.3751,27.5626
14:58:30.297,12.9375,27.6251
14:58:30.306,11.8125,25.0001
14:58:30.317,11.5625,22.6876
14:58:30.327,10.125,20.7501
14:58:30.337,9.125,19.7501
14:58:30.348,9,16.9376
14:58:30.357,8.125,16.0001
14:58:30.367,8.3125,16.1251
14:58:30.377,6.75,14.3126
14:58:30.387,7.25,13.6876
14:58:30.397,5.9375,12.625
14:58:30.407,5.8125,11.4375
14:58:30.417,4.8125,10.25
14:58:30.427,4.9375,8.25
14:58:30.437,2.4375,7.4375
14:58:30.447,3.3125,5.625
14:58:30.461,2.6875,5.5625
14:58:30.467,1.5625,3.75
14:58:30.500,1.875,1.875
14:58:30.502,1.625,1.125
14:58:30.505,0.0625,-1.4375
14:58:30.507,-0.5,-3
14:58:30.540,-2,-5.8125
14:58:30.542,-3.3125,-6.875
14:58:30.545,-3.75,-10.4375
14:58:30.550,-5.1875,-10.875
14:58:30.589,-5.1875,-13.6251
14:58:30.590,-6.1875,-14.7501
14:58:30.648,-6.8125,-17.1876
14:58:30.649,-7.6875,-18.6876
14:58:30.649,-8.25,-21.3751
14:58:30.649,-10.25,-22.5001
14:58:30.662,-10.375,-25.4376
14:58:30.678,-11.8125,-26.9376
14:58:30.682,-12.6875,-29.8751
14:58:30.682,-13.4376,-32.2501
14:58:30.683,-14.0001,-33.5626
14:58:30.683,-15.1251,-33.8751
14:58:30.692,-14.7501,-35.9376
14:58:30.702,-16.5626,-36.0626
14:58:30.712,-16.2501,-38.2501
14:58:30.723,-16.6251,-39.4377
14:58:30.732,-17.5626,-40.3752
14:58:30.742,-18.1876,-43.1252
14:58:30.752,-18.5001,-42.7502
14:58:30.763,-18.5001,-44.5002
14:58:30.772,-19.4376,-44.9377
14:58:30.781,-19.6876,-46.1252
14:58:30.793,-18.6876,-48.5002
14:58:30.802,-18.7501,-49.5627
14:58:30.813,-19.3751,-49.5002
14:58:30.822,-18.9376,-50.4377
14:58:30.832,-19.0626,-52.0002
14:58:30.842,-17.6251,-50.6252
14:58:30.852,-15.3126,-47.6877
14:58:30.863,-11.8125,-40.5002
14:58:30.873,-7.4375,-34.4376
14:58:30.882,-3,-25.1251
14:58:30.892,0.75,-17.0626
14:58:30.922,4.3125,-9.5625
14:58:30.925,6.875,-1.375
14:58:30.927,10.1875,4.6875
14:58:30.933,12.375,11.375
14:58:30.942,14.4376,14.3126
14:58:30.952,15.1876,19.3751
14:58:30.962,16.8751,21.6876
14:58:30.973,17.6251,24.0626
14:58:30.982,17.5626,26.0626
14:58:31.001,18.1251,26.2501
14:58:31.007,18.4376,28.3126
14:58:31.014,18.3751,28.1251
14:58:31.029,18.2501,29.1251
14:58:31.044,17.9376,28.6876
14:58:31.046,17.5001,29.7501
14:58:31.055,16.5001,28.6876
14:58:31.062,15.1876,27.6876
14:58:31.072,13.6251,25.7501
14:58:31.082,12.375,24.0001
14:58:31.092,10.75,22.6251
14:58:31.102,9.5,19.3126
14:58:31.113,8.0625,18.2501
14:58:31.122,7.375,16.0626
14:58:31.132,6.375,14.1876
14:58:31.164,6.4375,13.8126
14:58:31.165,6.5,13.6876
14:58:31.167,8.125,13.2501
14:58:31.172,7.5625,11.625
14:58:31.206,3.1875,7.6875
14:58:31.206,-4.5,-0.0625
14:58:31.207,-14.9376,-8.6875
14:58:31.216,-25.9376,-19.7501
14:58:31.226,-39.0002,-32.1251
14:58:31.257,-58.6252,-48.1252
14:58:31.260,-85.6253,-75.0003
14:58:31.263,-116.5004,-103.8129
14:58:31.265,-149.3756,-138.063
14:58:31.273,-175.6257,-163.2506
14:58:31.305,-193.1882,-181.0007
14:58:31.307,-200.2508,-187.3132
14:58:31.308,-209.7508,-195.2507
14:58:31.313,-209.8758,-195.2507
14:58:31.325,-204.3133,-189.2507
14:58:31.332,-199.0633,-183.5632
14:58:31.342,-196.7507,-181.0007
14:58:31.353,-197.1883,-181.9382
14:58:31.363,-194.9382,-177.8757
14:58:31.372,-190.1882,-175.0007
14:58:31.382,-186.3132,-171.6257
14:58:31.392,-183.7507,-168.5006
14:58:31.406,-179.1882,-165.9381
14:58:31.412,-176.4382,-164.5631
14:58:31.423,-170.7506,-164.5006
14:58:31.432,-168.7506,-165.6881
14:58:31.442,-169.8756,-165.6881
14:58:31.452,-167.6881,-165.9381
14:58:31.463,-163.9381,-163.7506
14:58:31.473,-164.1881,-162.2506
14:58:31.482,-163.7506,-160.4381
14:58:31.492,-160.6256,-155.6881
14:58:31.502,-156.5631,-153.1881
14:58:31.512,-149.1881,-146.2505
14:58:31.522,-143.0005,-141.1255
14:58:31.532,-132.8755,-133.688
14:58:31.542,-124.188,-124.6255
14:58:31.552,-119.813,-124.313
14:58:31.563,-118.563,-123.8755
14:58:31.572,-118.2505,-125.1255
14:58:31.582,-112.4379,-125.688
14:58:31.592,-106.5004,-127.8755
14:58:31.602,-99.5629,-132.8755
14:58:31.612,-92.3754,-132.8755
14:58:31.622,-94.8754,-135.7505
14:58:31.632,-100.7504,-142.3755
14:58:31.642,-107.0629,-146.7505
14:58:31.652,-112.0629,-145.7505
14:58:31.663,-114.2504,-143.1255
14:58:31.672,-116.9379,-138.188
14:58:31.682,-121.5005,-133.563
14:58:31.692,-122.1255,-127.438
14:58:31.703,-121.063,-118.7505
14:58:31.713,-123.438,-108.2504
14:58:31.722,-120.813,-101.4379
14:58:31.732,-120.563,-97.5004
14:58:31.742,-118.2505,-94.0004
14:58:31.752,-113.2504,-88.1253
14:58:31.762,-110.1879,-86.1878
14:58:31.772,-107.3754,-82.8753
14:58:31.782,-106.3129,-82.5628
14:58:31.792,-105.9379,-81.6878
14:58:31.803,-106.6879,-80.8753
14:58:31.812,-104.7504,-80.5628
14:58:31.822,-101.6879,-79.0003
14:58:31.832,-99.7504,-76.7503
14:58:31.842,-97.2504,-76.1253
14:58:31.852,-96.4379,-75.0628
14:58:31.862,-96.1879,-75.8128
14:58:31.872,-99.6254,-78.8128
14:58:31.882,-105.3754,-85.6878
14:58:31.892,-109.5629,-90.3129
14:58:31.903,-110.1879,-92.6254
14:58:31.935,-112.2504,-98.5004
14:58:31.937,-114.7504,-101.6879
14:58:31.979,-114.0004,-106.3129
14:58:31.981,-114.1879,-109.2504
14:58:31.996,-109.9379,-112.8129
14:58:32.023,-101.0629,-109.8129
14:58:32.024,-85.3128,-101.6879
14:58:32.024,-64.4377,-90.1253
14:58:32.025,-43.6877,-76.2503
14:58:32.054,-23.8126,-64.5627
14:58:32.057,-10.875,-54.8752
14:58:32.058,-4.0625,-48.9377
14:58:32.058,-2.8125,-49.7502
14:58:32.062,-10,-53.0002
14:58:32.091,-21.5626,-61.3752
14:58:32.094,-23.9376,-63.9377
14:58:32.095,-27.0001,-70.4378
14:58:32.103,-48.6877,-81.6253
14:58:32.112,-85.4378,-95.8754
14:58:32.122,-124.8755,-106.2504
14:58:32.132,-130.813,-102.1879
14:58:32.142,-125.5005,-97.6254
14:58:32.156,-130.2505,-100.7504
14:58:32.162,-134.1255,-103.9379
14:58:32.172,-140.563,-109.8129
14:58:32.203,-142.563,-110.2504
14:58:32.205,-143.3755,-112.9379
14:58:32.208,-142.7505,-113.0629
14:58:32.212,-139.938,-111.5629
14:58:32.222,-136.6255,-109.6879
14:58:32.232,-135.0005,-109.1879
14:58:32.244,-133.313,-107.6879
14:58:32.253,-132.813,-108.4379
14:58:32.262,-131.438,-108.7504
14:58:32.272,-130.6255,-108.7504
14:58:32.282,-126.063,-106.7504
14:58:32.292,-129.6255,-108.2504
14:58:32.303,-134.063,-112.7504
14:58:32.312,-137.1255,-117.063
14:58:32.329,-127.688,-115.3129
14:58:32.335,-109.1879,-107.5629
14:58:32.344,-89.8128,-95.4379
14:58:32.353,-75.6253,-83.6878
14:58:32.367,-69.0628,-77.8128
14:58:32.376,-62.9377,-70.0003
14:58:32.383,-57.9377,-63.4377
14:58:32.392,-55.1877,-57.3127
14:58:32.402,-52.9377,-49.6252
14:58:32.412,-48.5002,-41.0002
14:58:32.422,-38.8126,-29.2501
14:58:32.432,-29.1251,-16.3751
14:58:32.443,-20.0626,-8.1875
14:58:32.452,-15.1251,-2.1875
14:58:32.462,-13.6876,-0.75
14:58:32.472,-13.2501,-0.25
14:58:32.484,-14.5626,-0.125
14:58:32.493,-17.3126,-0.8125
14:58:32.502,-21.2501,-2.125
14:58:32.512,-23.6251,-4.4375
14:58:32.522,-27.8751,-5.5
14:58:32.532,-25.8126,-3.6875
14:58:32.543,-27.5001,-2.9375
14:58:32.552,-31.1251,-5.8125
14:58:32.563,-36.6251,-8.3125
14:58:32.572,-39.5002,-12.9375
14:58:32.582,-38.5001,-14.0626
14:58:32.593,-35.5626,-12.25
14:58:32.602,-33.6876,-10.625
14:58:32.613,-31.6251,-10.125
14:58:32.622,-31.8126,-12.3125
14:58:32.633,-32.0626,-16.1251
14:58:32.643,-30.5626,-17.8751
14:58:32.652,-30.3751,-20.6876
14:58:32.682,-34.3126,-25.3751
14:58:32.685,-38.4376,-31.5001
14:58:32.687,-47.5002,-39.1877
14:58:32.694,-53.5627,-44.1877
14:58:32.721,-56.1877,-47.2502
14:58:32.725,-57.7502,-47.8752
14:58:32.726,-59.1252,-50.3127
14:58:32.733,-61.0627,-51.6877
14:58:32.743,-63.3127,-52.2502
14:58:32.779,-67.3753,-57.8752
14:58:32.781,-72.8128,-64.6252
14:58:32.783,-82.8753,-73.6878
14:58:32.786,-91.2504,-83.2503
14:58:32.792,-97.3129,-90.5004
14:58:32.830,-96.3754,-95.3129
14:58:32.832,-87.3753,-90.8129
14:58:32.836,-74.0003,-84.7503
14:58:32.841,-62.0002,-81.1253
14:58:32.845,-53.6252,-76.3128
14:58:32.855,-47.3752,-75.6878
14:58:32.863,-44.2502,-75.8753
14:58:32.879,-40.1877,-75.3128
14:58:32.887,-34.1876,-75.5003
14:58:32.897,-24.5626,-69.5628
14:58:32.908,-18.3126,-66.0628
14:58:32.917,-12.8125,-63.5627
14:58:32.927,-8.5,-60.7502
14:58:32.937,-8.375,-61.5002
14:58:32.947,-11.125,-63.3752
14:58:32.958,-16.8751,-67.8753
14:58:32.968,-24.8751,-72.6878
14:58:32.977,-32.1251,-77.2503
14:58:32.987,-39.3751,-85.8753
14:58:32.997,-63.6252,-99.0629
14:58:33.007,-87.0003,-110.8754
14:58:33.018,-113.0629,-118.563
14:58:33.027,-131.3755,-121.688
14:58:33.037,-146.688,-121.563
14:58:33.047,-149.5631,-113.9379
14:58:33.057,-146.063,-111.6879
14:58:33.067,-139.313,-106.8129
14:58:33.077,-132.2505,-100.1254
14:58:33.087,-129.8755,-97.6879
14:58:33.098,-128.7505,-96.8129
14:58:33.108,-130.1255,-97.5629
14:58:33.118,-130.688,-97.5004
14:58:33.127,-126.3755,-94.3129
14:58:33.137,-122.7505,-88.0628
14:58:33.147,-117.938,-83.0003
14:58:33.157,-112.9379,-74.6253
14:58:33.168,-107.7504,-64.8752
14:58:33.177,-101.2504,-54.6252
14:58:33.187,-94.6254,-42.0002
14:58:33.197,-89.1253,-33.0001
14:58:33.207,-85.4378,-21.6876
14:58:33.217,-80.1878,-13.5626
14:58:33.229,-72.5628,-2.6875
14:58:33.239,-70.1878,4.5625
14:58:33.247,-70.4378,7.125
14:58:33.257,-72.1253,9.3125
14:58:33.267,-67.5628,17.2501
14:58:33.281,-55.3752,27.6251
14:58:33.287,-39.1876,40.2502
14:58:33.306,-25.5001,52.7502
14:58:33.308,-14.1251,62.8752
14:58:33.326,-5.8125,72.9378
14:58:33.338,-0.875,79.6878
14:58:33.342,7.0625,86.0003
14:58:33.370,14.5001,92.5004
14:58:33.372,18.3126,96.3129
14:58:33.375,21.8126,97.8754
14:58:33.380,25.1251,95.8129
14:58:33.419,25.8126,93.0004
14:58:33.421,25.9376,87.0628
14:58:33.423,25.9376,78.6878
14:58:33.449,23.0001,71.3128
14:58:33.449,17.2501,61.5002
14:58:33.449,11.5625,52.1877
14:58:33.451,3.875,43.0002
14:58:33.484,0.5,36.6876
14:58:33.488,-0.625,32.6876
14:58:33.490,-6.9375,28.4376
14:58:33.496,-15.6251,20.3751
14:58:33.497,-22.6251,14.1876
14:58:33.532,-26.6251,8.5
14:58:33.535,-28.5626,3.9375
14:58:33.538,-27.5001,1.375
14:58:33.540,-25.8751,-3.625
14:58:33.549,-27.8751,-7.5
14:58:33.557,-30.9376,-12.75
14:58:33.569,-32.8126,-17.2501
14:58:33.577,-30.0001,-19.0001
14:58:33.588,-26.2501,-21.3751
14:58:33.599,-23.9376,-24.3126
14:58:33.607,-22.9376,-29.3126
14:58:33.619,-23.2501,-34.6251
14:58:33.628,-19.1876,-37.4376
14:58:33.638,-20.8751,-40.5627
14:58:33.652,-22.0626,-47.4377
14:58:33.661,-25.4376,-54.2502
14:58:33.675,-24.3751,-58.7502
14:58:33.677,-24.7501,-63.2502
14:58:33.692,-25.3751,-70.5003
14:58:33.702,-23.1251,-73.3128
14:58:33.708,-23.1251,-77.2503
14:58:33.719,-24.3751,-81.3753
14:58:33.727,-28.9376,-84.1878
14:58:33.737,-30.8126,-89.7503
14:58:33.749,-33.6251,-92.5004
14:58:33.759,-36.6251,-96.1879
14:58:33.771,-38.6876,-99.4379
14:58:33.780,-43.4377,-103.3129
14:58:33.789,-46.8127,-107.9379
14:58:33.798,-47.0002,-109.3754
14:58:33.808,-45.8752,-109.6879
14:58:33.817,-42.1877,-109.8129
14:58:33.830,-37.5001,-107.1879
14:58:33.838,-33.9376,-106.5004
14:58:33.848,-28.8751,-104.6254
14:58:33.858,-25.4376,-101.0629
14:58:33.868,-20.6251,-99.8129
14:58:33.878,-17.1876,-97.8754
14:58:33.888,-13.7501,-94.8129
14:58:33.898,-11.5,-91.6254
14:58:33.909,-8.6875,-85.3753
14:58:33.919,-5.4375,-77.5628
14:58:33.928,-0.8125,-69.1878
14:58:33.939,3.875,-58.5627
14:58:33.948,10.6875,-46.8752
14:58:33.958,15.4376,-34.5626
14:58:33.967,17.4376,-26.8751
14:58:33.978,18.6251,-18.2501
14:58:33.987,18.2501,-10.5
14:58:33.999,18.7501,-5.5625
14:58:34.008,15.5626,0.3125
14:58:34.019,13.0625,1.4375
14:58:34.027,3.25,2.4375
14:58:34.040,-16.7501,-1.5
14:58:34.054,-52.7502,-6.375
14:58:34.077,-80.3128,-8.5
14:58:34.079,-95.6879,-7.5625
14:58:34.082,-100.9379,-3.9375
14:58:34.088,-96.0629,0.75
14:58:34.119,-89.5003,7.375
14:58:34.121,-84.2503,12.1875
14:58:34.123,-81.8753,14.5626
14:58:34.153,-85.5003,10.9375
14:58:34.154,-89.9378,6.875
14:58:34.156,-90.3128,3.4375
14:58:34.163,-90.1253,2.75
14:58:34.177,-87.7503,2.125
14:58:34.179,-88.1878,1
14:58:34.210,-87.5628,-0.4375
14:58:34.213,-89.3128,-3.3125
14:58:34.216,-88.5003,-4.25
14:58:34.220,-87.6878,-4.625
14:58:34.243,-85.1878,-4.375
14:58:34.247,-83.9378,-3.75
14:58:34.248,-82.9378,-3.5625
14:58:34.258,-81.8753,-5
14:58:34.269,-83.8128,-5.25
14:58:34.279,-84.8128,-9.5625
14:58:34.288,-83.5003,-9.5625
14:58:34.298,-74.8753,-7.875
14:58:34.308,-60.3127,-3.1875
14:58:34.318,-47.3752,4.9375
14:58:34.328,-36.7501,10.875
14:58:34.338,-28.8126,18.5001
14:58:34.349,-23.2501,20.5626
14:58:34.358,-20.9376,22.6876
14:58:34.368,-19.7501,25.5001
14:58:34.379,-18.6251,23.8126
14:58:34.388,-17.6251,23.5626
14:58:34.398,-17.3751,21.5626
14:58:34.408,-18.5001,17.5001
14:58:34.418,-19.8126,13.1876
14:58:34.428,-19.2501,8.9375
14:58:34.438,-15.2501,4.1875
14:58:34.449,-14.0626,-0.1875
14:58:34.458,-17.7501,-6.3125
14:58:34.470,-22.6251,-16.6876
14:58:34.478,-27.4376,-24.1251
14:58:34.488,-34.0626,-32.6251
14:58:34.499,-40.1877,-40.6877
14:58:34.508,-45.1252,-48.5627
14:58:34.518,-49.6252,-54.3127
14:58:34.529,-55.0002,-57.6877
14:58:34.539,-57.5002,-63.8752
14:58:34.548,-60.1877,-69.5003
14:58:34.558,-60.8127,-73.6878
14:58:34.570,-57.3752,-76.0003
14:58:34.578,-56.6252,-79.5003
14:58:34.588,-56.1252,-80.5003
14:58:34.598,-54.6877,-80.7503
14:58:34.608,-50.6877,-81.0003
14:58:34.623,-45.6252,-78.4378
14:58:34.632,-40.6877,-74.3753
14:58:34.639,-33.0626,-69.2503
14:58:34.656,-23.7501,-60.6877
14:58:34.658,-18.3126,-54.1877
14:58:34.673,-12.875,-47.0002
14:58:34.679,-9.8125,-40.7502
14:58:34.689,-8.125,-36.3751
14:58:34.698,-7.75,-32.8751
14:58:34.708,-7,-31.3751
14:58:34.718,-4.1875,-28.3751
14:58:34.728,-0.3125,-24.5626
14:58:34.740,4.5625,-21.0626
14:58:34.763,6.5,-18.9376
14:58:34.765,8.8125,-16.9376
14:58:34.770,10.875,-16.3751
14:58:34.778,10.0625,-16.3126
14:58:34.788,11.9375,-15.5001
14:58:34.803,11.3125,-16.1876
14:58:34.808,12.4375,-16.1876
14:58:34.819,12.1875,-16.2501
14:58:34.841,13.7501,-17.1876
14:58:34.843,14.6251,-16.1876
14:58:34.871,17.0626,-16.4376
14:58:34.874,19.0001,-15.5626
14:58:34.876,21.5001,-16.2501
14:58:34.879,21.0001,-16.7501
14:58:34.908,21.0001,-20.6251
14:58:34.910,22.0001,-19.9376
14:58:34.913,23.6251,-21.1251
14:58:34.919,26.7501,-20.5626
14:58:34.929,29.2501,-19.0001
14:58:34.956,30.8751,-18.7501
14:58:34.958,29.8751,-19.6251
14:58:34.963,27.7501,-20.5626
14:58:34.977,27.6876,-20.8751
14:58:35.006,29.0626,-21.1876
14:58:35.009,27.8751,-21.0001
14:58:35.024,24.6876,-24.0001
14:58:35.037,19.5001,-26.5626
14:58:35.042,17.0626,-29.9376
14:58:35.042,14.3751,-30.8751
14:58:35.044,13.5001,-33.0001
14:58:35.051,10.4375,-33.7501
14:58:35.058,6.25,-36.0626
14:58:35.068,3.4375,-40.1252
14:58:35.080,-10.375,-48.5627
14:58:35.088,-29.6876,-58.0627
14:58:35.098,-51.7502,-65.1878
14:58:35.110,-70.1253,-70.0003
14:58:35.119,-84.6253,-74.0628
14:58:35.128,-94.4379,-73.3128
14:58:35.138,-99.5004,-69.6878
14:58:35.148,-99.8754,-71.3753
14:58:35.158,-100.9379,-72.6253
14:58:35.168,-98.7504,-72.9378
14:58:35.179,-95.0629,-69.6253
14:58:35.188,-93.3754,-69.8128
14:58:35.198,-88.9378,-65.5003
14:58:35.211,-85.3128,-63.2502
14:58:35.219,-85.4378,-63.9377
14:58:35.228,-84.0003,-65.1878
14:58:35.238,-84.8753,-65.7502
14:58:35.248,-85.4378,-68.0628
14:58:35.258,-86.6253,-69.6878
14:58:35.268,-86.3128,-71.5003
14:58:35.278,-87.8128,-72.8128
14:58:35.291,-86.0628,-74.3128
14:58:35.299,-87.6253,-75.4378
14:58:35.308,-87.1878,-76.7503
14:58:35.318,-89.6253,-79.4378
14:58:35.331,-91.6879,-82.3128
14:58:35.339,-92.7504,-82.1253
14:58:35.348,-88.5003,-79.4378
14:58:35.358,-74.3753,-67.3128
14:58:35.369,-58.5627,-54.1252
14:58:35.378,-42.2502,-37.6251
14:58:35.389,-29.7501,-21.9376
14:58:35.399,-18.3126,-9.1875
14:58:35.408,-9.5,5
14:58:35.419,-0.4375,16.9376
14:58:35.428,8,29.3126
14:58:35.438,14.8126,35.8126
14:58:35.448,18.5001,41.6252
14:58:35.458,21.1251,44.1877
14:58:35.468,22.3126,46.3127
14:58:35.478,23.1251,45.7502
14:58:35.488,23.5001,45.3752
14:58:35.498,23.6251,42.0002
14:58:35.510,22.4376,39.8127
14:58:35.518,20.5001,34.8126
14:58:35.529,16.7501,29.5626
14:58:35.538,10.875,24.6251
14:58:35.573,8.1875,20.1251
14:58:35.576,4.25,16.6876
14:58:35.579,0,11.9375
14:58:35.581,-5.6875,7
14:58:35.615,-9.1875,3.25
14:58:35.617,-12.4375,0.3125
14:58:35.618,-15.0001,-3.625
14:58:35.621,-16.0001,-9
14:58:35.664,-18.3126,-11.75
14:58:35.665,-18.4376,-17.5001
14:58:35.667,-18.8751,-20.8751
14:58:35.693,-17.5626,-20.7501
14:58:35.693,-16.5626,-23.0626
14:58:35.696,-13.6251,-23.5626
14:58:35.698,-10.4375,-22.6876
14:58:35.703,-8.625,-23.3751
14:58:35.734,-6.25,-24.6876
14:58:35.735,-3.875,-24.3126
14:58:35.738,-5.625,-26.8751
14:58:35.740,-7.25,-29.6251
14:58:35.751,-9.875,-31.3126
14:58:35.758,-9.1875,-34.9376
14:58:35.768,-11,-37.5626
14:58:35.779,-10.375,-41.1252
14:58:35.788,-11.125,-43.3752
14:58:35.798,-11.875,-46.0627
14:58:35.808,-12.6875,-49.6252
14:58:35.818,-12.1875,-50.6252
14:58:35.829,-12.4375,-53.8752
14:58:35.838,-13.3751,-56.2502
14:58:35.848,-14.8751,-59.5627
14:58:35.859,-15.3751,-62.1877
14:58:35.868,-15.1876,-62.8127
14:58:35.878,-14.0001,-66.0003
14:58:35.890,-13.6251,-65.6253
14:58:35.898,-10.75,-67.5003
14:58:35.909,-7.5,-66.9378
14:58:35.920,-2.9375,-64.8752
14:58:35.933,-0.5,-63.3127
14:58:35.948,1.4375,-63.9377
14:58:35.965,3,-63.3752
14:58:35.968,4,-63.7502
14:58:35.982,7.375,-63.4377
14:58:35.990,10.625,-61.3752
14:58:35.990,15.2501,-60.4377
14:58:35.998,18.5001,-57.8752
14:58:36.008,18.6876,-59.6877
14:58:36.018,18.6251,-61.0002
14:58:36.046,18.6251,-60.1252
14:58:36.048,17.1876,-63.1252
14:58:36.051,15.1876,-64.5627
14:58:36.058,11.25,-69.6878
14:58:36.071,6.5625,-72.3753
14:58:36.080,3.5,-75.5628
14:58:36.088,1.9375,-77.7503
14:58:36.099,-0.6875,-79.4378
14:58:36.111,-1.875,-79.9378
14:58:36.118,-3.75,-80.9378
14:58:36.128,-4.5625,-80.3753
14:58:36.139,-5.8125,-76.5628
14:58:36.148,-4.25,-72.2503
14:58:36.158,-5.3125,-69.8753
14:58:36.168,-9.4375,-67.2503
14:58:36.178,-24.8751,-64.1252
14:58:36.188,-32.5001,-57.8752
14:58:36.198,-33.9376,-49.8752
14:58:36.208,-37.3126,-43.6877
14:58:36.218,-44.6877,-35.5001
14:58:36.228,-47.4377,-28.4376
14:58:36.260,-48.6877,-20.7501
14:58:36.262,-49.8752,-13.3751
14:58:36.265,-46.6252,-6.875
14:58:36.270,-46.0627,-3.9375
14:58:36.298,-46.0627,-3
14:58:36.345,-42.3752,1.25
14:58:36.358,-35.0001,8.3125
14:58:36.360,-31.4376,13.9376
14:58:36.391,-29.4376,16.9376
14:58:36.391,-27.2501,19.0001
14:58:36.391,-27.3126,21.5626
14:58:36.392,-29.2501,18.7501
14:58:36.395,-32.0001,15.9376
14:58:36.401,-35.1251,14.4376
14:58:36.403,-37.5626,10.75
14:58:36.416,-38.2501,8.75
14:58:36.420,-38.2501,8.8125
14:58:36.435,-37.3126,8
14:58:36.440,-38.1876,7.4375
14:58:36.449,-41.6877,3.5
14:58:36.458,-47.8127,-3.25
14:58:36.469,-48.9377,-3.5625
14:58:36.479,-45.3127,-2.9375
14:58:36.489,-32.3751,4.6875
14:58:36.498,-20.3126,11.5
14:58:36.509,-8.0625,19.6251
14:58:36.519,1.9375,28.1251
14:58:36.529,19.9376,48.6877
14:58:36.538,25.6876,52.5627
14:58:36.548,30.3126,54.5627
14:58:36.559,33.2501,56.1877
14:58:36.568,33.7501,55.1877
14:58:36.578,32.3126,52.4377
14:58:36.588,31.7501,45.7502
14:58:36.599,31.6876,40.5002
14:58:36.609,30.1251,33.2501
14:58:36.619,27.7501,27.9376
14:58:36.628,21.6876,20.5001
14:58:36.638,17.0626,12.4375
14:58:36.648,12.1875,6.1875
14:58:36.659,5.625,-0.8125
14:58:36.669,0.5,-7.125
14:58:36.679,-5.8125,-12.75
14:58:36.690,-11.1875,-17.1876
14:58:36.698,-18.0001,-23.1876
14:58:36.708,-21.8126,-28.0001
14:58:36.719,-23.3126,-31.7501
14:58:36.728,-22.6876,-35.0001
14:58:36.738,-21.4376,-35.0626
14:58:36.749,-19.1251,-34.0001
14:58:36.758,-18.8126,-35.5626
14:58:36.768,-21.7501,-37.3751
14:58:36.779,-25.2501,-41.0627
14:58:36.790,-29.5001,-46.1252
14:58:36.799,-30.5001,-49.3127
14:58:36.813,-28.6876,-49.4377
14:58:36.818,-25.9376,-49.1877
14:58:36.828,-25.6876,-49.8127
14:58:36.839,-22.8751,-48.9377
14:58:36.848,-22.4376,-47.2502
14:58:36.858,-23.9376,-50.3127
14:58:36.869,-27.1251,-53.5002
14:58:36.878,-33.0001,-59.3127
14:58:36.888,-34.6876,-64.6877
14:58:36.905,-35.0001,-67.5003
14:58:36.913,-33.1251,-68.1878
14:58:36.923,-27.5001,-68.6253
14:58:36.933,-17.8126,-63.5627
14:58:36.945,-6.25,-56.0002
14:58:36.954,8.3125,-45.8127
14:58:36.964,20.2501,-33.1876
14:58:36.974,31.9376,-23.3751
14:58:36.987,40.1877,-12.9375
14:58:36.996,46.0627,-3.25
14:58:37.015,52.7502,4.125
14:58:37.017,60.9377,11.9375
14:58:37.025,65.5627,18.6876
14:58:37.058,66.5003,21.0001
14:58:37.060,64.3752,23.1876
14:58:37.062,61.2502,22.3126
14:58:37.064,57.4377,22.1876
14:58:37.101,55.1252,20.9376
14:58:37.103,50.8127,19.6251
14:58:37.105,45.0627,15.9376
14:58:37.111,41.0627,13.6876
14:58:37.114,38.3126,12.8125
14:58:37.149,36.5001,12.25
14:58:37.151,32.3751,11.8125
14:58:37.153,29.1251,8.375
14:58:37.156,18.4376,3
14:58:37.180,2.875,-1.6875
14:58:37.188,-14.2501,-4.9375
14:58:37.190,-26.3751,-6.4375
14:58:37.195,-36.0001,-7
14:58:37.204,-39.6877,-4.5625
14:58:37.214,-41.6877,-5.25
14:58:37.225,-41.8752,-5.0625
14:58:37.236,-39.3127,-4.0625
14:58:37.245,-35.5626,0.625
14:58:37.265,-30.9376,4.9375
14:58:37.267,-27.1251,8.125
14:58:37.276,-23.3751,11.3125
14:58:37.284,-19.4376,15.5626
14:58:37.323,-16.7501,18.5001
14:58:37.326,-16.0001,19.5001
14:58:37.341,-17.3126,18.9376
14:58:37.347,-17.4376,19.0626
14:58:37.347,-17.1251,18.0001
14:58:37.347,-16.7501,18.3751
14:58:37.356,-14.6251,18.8751
14:58:37.364,-15.1251,19.5001
14:58:37.375,-12.9375,18.1876
14:58:37.385,-8.1875,22.3751
14:58:37.395,-3.375,26.1876
14:58:37.403,5.0625,31.3751
14:58:37.415,14.0626,38.3751
14:58:37.423,17.9376,41.2502
14:58:37.433,19.3126,42.5627
14:58:37.443,21.5626,43.5627
14:58:37.453,25.1876,45.6877
14:58:37.465,30.3126,48.2502
14:58:37.473,31.8751,50.9377
14:58:37.484,29.2501,47.6252
14:58:37.493,22.6876,40.8127
14:58:37.505,9.375,30.0626
14:58:37.515,-8.125,14.3751
14:58:37.524,-25.3751,-3.375
14:58:37.535,-38.1876,-14.3751
14:58:37.544,-46.5002,-23.8126
14:58:37.553,-50.5627,-27.2501
14:58:37.571,-45.5002,-26.1251
14:58:37.573,-37.1876,-18.8751
14:58:37.583,-24.4376,-10.5625
14:58:37.596,-13.3751,-0.9375
14:58:37.604,-7.3125,4.4375
14:58:37.613,-3.4375,5.875
14:58:37.624,-2.875,6.125
14:58:37.641,-7.125,1.3125
14:58:37.647,-11.5625,-2.5
14:58:37.656,-12.75,-5.1875
14:58:37.667,-14.9376,-7.75
14:58:37.718,-10.125,-3.875
14:58:37.718,2.75,5.9375
14:58:37.719,17.8751,22.1251
14:58:37.727,31.1876,35.3126
14:58:37.728,41.0002,47.4377
14:58:37.728,50.4377,60.0627
14:58:37.761,61.5627,71.2503
14:58:37.763,136.5005,145.7505
14:58:37.766,176.1882,175.7507
14:58:37.768,206.3758,204.0008
14:58:37.775,235.2509,229.8759
14:58:37.802,260.4385,254.376
14:58:37.803,287.5636,279.4386
14:58:37.806,314.8762,305.1262
14:58:37.840,341.4388,331.3138
14:58:37.844,362.1889,350.3763
14:58:37.845,374.1264,363.1889
14:58:37.848,385.939,372.3139
14:58:37.854,394.6265,381.939
14:58:37.864,401.0015,387.5015
14:58:37.875,410.2516,395.689
14:58:37.884,418.8766,404.064
14:58:37.895,424.5641,409.0641
14:58:37.904,426.0016,410.7516
14:58:37.914,428.9391,413.4391
14:58:37.925,430.8141,413.5641
14:58:37.934,430.6266,411.8766
14:58:37.945,428.6266,409.4391
14:58:37.955,425.3141,403.314
14:58:37.966,423.1891,399.314
14:58:37.976,419.9391,396.439
14:58:37.985,414.5016,391.6265
14:58:37.995,409.8141,386.1265
14:58:38.003,406.2516,381.3765
14:58:38.016,402.439,377.3764
14:58:38.023,396.5015,369.8764
14:58:38.035,392.564,365.7514
14:58:38.045,389.6265,362.0014
14:58:38.053,383.0015,353.9388
14:58:38.065,377.0014,346.6888
14:58:38.075,370.1889,339.3138
14:58:38.085,357.4388,328.6888
14:58:38.095,345.4388,315.5012
14:58:38.105,330.6888,301.5012
14:58:38.114,317.1887,288.6261
14:58:38.124,303.7512,275.5635
14:58:38.134,291.5636,263.4385
14:58:38.144,283.1261,254.4385
14:58:38.154,271.751,242.0009
14:58:38.165,262.876,232.8759
14:58:38.175,252.876,222.5634
14:58:38.184,243.6884,213.9383
14:58:38.195,236.3759,206.0008
14:58:38.206,227.6259,198.6258
14:58:38.216,221.6884,191.0632
14:58:38.227,215.1258,183.9382
14:58:38.235,208.2508,178.6882
14:58:38.245,203.0633,171.3757
14:58:38.255,197.7508,165.8756
14:58:38.265,193.5632,161.3756
14:58:38.275,187.9382,154.5631
14:58:38.285,184.5007,149.6881
14:58:38.294,180.3757,145.0005
14:58:38.304,175.1257,139.938
14:58:38.320,171.1881,135.8755
14:58:38.324,167.3756,130.688
14:58:38.334,163.5006,127.063
14:58:38.345,160.2506,123.438
14:58:38.355,156.2506,118.188
14:58:38.365,153.2506,114.5629
14:58:38.375,148.9381,109.7504
14:58:38.385,145.3755,106.1254
14:58:38.396,141.6255,101.8754
14:58:38.406,137.563,97.1254
14:58:38.416,134.3755,93.5004
14:58:38.426,130.188,90.1254
14:58:38.434,127.1255,86.0003
14:58:38.444,123.5005,83.5003
14:58:38.455,122.688,83.0003
14:58:38.464,120.8755,84.3753
14:58:38.475,120.938,87.3128
14:58:38.485,120.7505,89.5628
14:58:38.495,119.563,94.0629
14:58:38.522,120.188,97.9379
14:58:38.525,118.813,100.4379
14:58:38.527,117.813,102.0004
14:58:38.557,116.0629,103.8129
14:58:38.559,114.6879,105.2504
14:58:38.562,112.5629,105.2504
14:58:38.567,111.1879,105.9379
14:58:38.640,109.9379,106.6254
14:58:38.640,107.5004,106.8754
14:58:38.642,106.0629,106.7504
14:58:38.667,104.3129,104.6879
14:58:38.667,101.8129,104.6254
14:58:38.667,99.9379,102.3754
14:58:38.668,97.3754,101.6254
14:58:38.671,95.8129,100.6254
14:58:38.677,93.9379,99.5629
14:58:38.685,92.0629,98.5004
14:58:38.699,90.0003,95.9379
14:58:38.707,87.2503,93.6254
14:58:38.714,85.6253,90.8129
14:58:38.725,83.6253,89.1878
14:58:38.734,82.5003,86.8753
14:58:38.744,79.7503,85.5003
14:58:38.754,77.3128,83.2503
14:58:38.765,76.4378,80.8128
14:58:38.775,75.5628,79.8128
14:58:38.785,74.8753,79.0003
14:58:38.796,73.0003,77.7503
14:58:38.806,71.1253,75.1878
14:58:38.817,69.9378,73.3753
14:58:38.824,68.0628,73.0003
14:58:38.834,66.6878,71.3753
14:58:38.845,65.2503,69.5003
14:58:38.854,64.5002,68.1878
14:58:38.865,62.5002,66.3753
14:58:38.874,61.5627,64.2502
14:58:38.884,59.1252,62.1252
14:58:38.895,58.2502,59.6877
14:58:38.905,56.6252,58.3752
14:58:38.915,55.5627,55.5627
14:58:38.924,53.3127,53.0002
14:58:38.935,51.3752,51.2502
14:58:38.944,50.0002,47.4377
14:58:38.964,48.0002,46.6877
14:58:38.971,46.5627,43.2502
14:58:38.986,44.5002,40.3127
14:58:38.988,43.3127,38.6251
14:58:38.997,41.6252,35.3751
14:58:39.005,40.5627,33.7501
14:58:39.015,38.5626,31.1876
14:58:39.025,36.7501,30.0626
14:58:39.035,35.8126,27.5001
14:58:39.045,34.0626,26.0001
14:58:39.055,33.2501,24.2501
14:58:39.065,32.2501,22.3126
14:58:39.074,30.5001,19.9376
14:58:39.085,29.6251,18.5626
14:58:39.095,28.0001,16.8751
14:58:39.105,27.1876,14.8126
14:58:39.115,26.3751,13.6876
14:58:39.125,24.9376,13.2501
14:58:39.136,23.5001,11.25
14:58:39.144,22.7501,10.3125
14:58:39.154,21.9376,7.3125
14:58:39.164,21.8751,6.5
14:58:39.174,21.0001,5.25
14:58:39.184,20.1251,4.1875
14:58:39.195,19.3126,3.1875
14:58:39.204,19.5626,2.25
14:58:39.214,19.1251,2.125
14:58:39.224,19.5001,3.375
14:58:39.255,20.8751,4.5625
14:58:39.257,23.4376,9.1875
14:58:39.260,25.8751,15.0626
14:58:39.266,27.1876,20.3126
14:58:39.292,30.0001,26.2501
14:58:39.295,30.7501,30.9376
14:58:39.297,32.8126,34.9376
14:58:39.327,32.8751,39.0626
14:58:39.330,33.8126,42.0627
14:58:39.333,33.3751,44.0627
14:58:39.337,33.1876,46.5002
14:58:39.364,33.4376,48.1252
14:58:39.367,33.8126,48.3127
14:58:39.372,33.3126,49.3127
14:58:39.376,33.0001,49.9377
14:58:39.404,32.1251,50.5002
14:58:39.407,32.5001,50.3127
14:58:39.409,31.5626,51.0002
14:58:39.416,30.8751,50.2502
14:58:39.426,30.4376,50.0627
14:58:39.438,29.5001,50.2502
14:58:39.449,29.8126,49.0627
14:58:39.457,28.6876,47.0002
14:58:39.465,27.0626,45.9377
14:58:39.474,27.1251,45.1877
14:58:39.485,26.3126,42.5002
14:58:39.496,24.8751,42.2502
14:58:39.507,24.6876,40.8127
14:58:39.515,24.0626,40.1877
14:58:39.525,23.8751,39.9377
14:58:39.534,23.1251,37.8751
14:58:39.544,22.6251,38.3126
14:58:39.554,22.1876,37.1251
14:58:39.565,22.3751,36.4376
14:58:39.576,21.5001,35.7501
14:58:39.585,20.6876,35.4376
14:58:39.595,20.1251,33.5001
14:58:39.605,19.5626,33.5001
14:58:39.614,18.8126,32.2501
14:58:39.625,17.9376,31.1251
14:58:39.635,17.2501,29.7501
14:58:39.645,16.1876,28.8126
14:58:39.654,15.5626,27.4376
14:58:39.665,14.5626,26.3751
14:58:39.674,14.1876,25.0001
14:58:39.684,13.1251,23.2501
14:58:39.695,12.4375,21.7501
14:58:39.705,11.6875,19.3751
14:58:39.717,10.3125,17.4376
14:58:39.724,9.9375,15.3751
14:58:39.735,8.875,14.0001
14:58:39.744,8.0625,12
14:58:39.754,7,10.4375
14:58:39.764,5.6875,8.875
14:58:39.776,5.5,7.5
14:58:39.784,4.125,5.8125
14:58:39.795,3.875,4
14:58:39.805,3.375,2.875
14:58:39.815,2.875,1.6875
14:58:39.826,1.3125,0.0625
14:58:39.837,1.0625,-1.0625
14:58:39.848,0.1875,-1.8125
14:58:39.855,-0.125,-3
14:58:39.883,-0.4375,-4.375
14:58:39.885,-1.0625,-5.4375
14:58:39.888,-1.5,-7
14:58:39.918,-2.25,-8.1875
14:58:39.955,-2.25,-8.875
14:58:39.957,-2.25,-9.875
14:58:39.960,-2.75,-10.125
14:58:39.965,-2.0625,-10.0625
14:58:39.965,-0.625,-6.5
14:58:39.965,1.6875,-3.1875
14:58:39.971,3.9375,1.5625
14:58:40.001,6.875,7.3125
14:58:40.004,9.75,14.0001
14:58:40.006,12.4375,20.1876
14:58:40.013,14.6251,25.8751
14:58:40.044,16.0626,29.8126
14:58:40.046,17.6876,34.0001
14:58:40.048,17.8751,38.1251
14:58:40.067,19.5001,39.6252
14:58:40.068,19.9376,41.5627
14:58:40.070,18.6876,42.6252
14:58:40.080,19.9376,44.7502
14:58:40.091,19.2501,44.8127
14:58:40.100,18.6251,45.1877
14:58:40.110,18.2501,45.6877
14:58:40.121,18.0001,45.1877
14:58:40.130,17.5626,44.8752
14:58:40.139,17.7501,45.6877
14:58:40.151,17.3751,45.6877
14:58:40.160,16.8126,45.1252
14:58:40.169,16.6251,43.1252
14:58:40.181,15.7501,42.3127
14:58:40.191,15.1251,41.5002
14:58:40.199,13.8126,38.5001
14:58:40.209,13.9376,37.3126
14:58:40.219,13.6876,36.1251
14:58:40.229,12.4375,35.3751
14:58:40.240,12.4375,34.3126
14:58:40.251,11.875,34.5626
14:58:40.266,12.1875,33.3751
14:58:40.282,11.6875,33.1251
14:58:40.285,11.25,32.9376
14:58:40.289,9.75,31.4376
14:58:40.300,9.5,30.4376
14:58:40.312,7.75,30.9376
14:58:40.319,7.875,29.2501
14:58:40.329,7.75,26.6251
14:58:40.339,6.375,26.1251
14:58:40.349,5.6875,25.2501
14:58:40.361,4.6875,24.1251
14:58:40.370,4.0625,22.1251
14:58:40.380,3,20.5001
14:58:40.391,1.9375,20.1876
14:58:40.399,1.6875,17.7501
14:58:40.410,1.3125,15.5001
14:58:40.419,0,13
14:58:40.431,-0.75,12.5
14:58:40.444,-1.125,11.5625
14:58:40.455,-1.6875,9.375
14:58:40.466,-2.1875,8.1875
14:58:40.474,-2.3125,6.5
14:58:40.484,-3.8125,4.375
14:58:40.495,-5.125,2.8125
14:58:40.506,-5.875,1.5625
14:58:40.517,-6,-0.4375
14:58:40.524,-6.9375,-2.5
14:58:40.536,-7.75,-2.4375
14:58:40.544,-7.4375,-4.0625
14:58:40.555,-7.6875,-6.3125
14:58:40.568,-9.0625,-7.3125
14:58:40.575,-8.3125,-8.3125
14:58:40.587,-9.625,-10.4375
14:58:40.596,-10.0625,-10.5
14:58:40.605,-10.375,-12.375
14:58:40.616,-11.125,-12.375
14:58:40.642,-10,-13.9376
14:58:40.644,-8.4375,-11.6875
14:58:40.647,-6.75,-7.3125
14:58:40.681,-3.25,-2.1875
14:58:40.683,-0.5625,3.875
14:58:40.685,2.6875,10.5625
14:58:40.688,5.125,17.1876
14:58:40.721,8.3125,24.2501
14:58:40.724,9.5625,29.4376
14:58:40.726,11.6875,33.2501
14:58:40.751,13.3126,37.6876
14:58:40.752,14.6251,41.2502
14:58:40.755,15.0626,44.5002
14:58:40.760,15.8751,46.5627
14:58:40.791,16.1876,47.8127
14:58:40.795,16.6876,50.8127
14:58:40.796,17.6251,50.8127
14:58:40.801,17.0626,52.3752
14:58:40.806,17.3751,51.6252
14:58:40.817,17.2501,52.1252
14:58:40.827,17.7501,52.9377
14:58:40.836,17.0626,52.0627
14:58:40.846,16.5626,51.9377
14:58:40.854,16.0001,51.8752
14:58:40.866,15.8751,49.8752
14:58:40.876,14.5001,48.2502
14:58:40.885,13.6876,48.0627
14:58:40.896,13.1876,45.8127
14:58:40.904,12.6875,43.8127
14:58:40.915,11.4375,43.6252
14:58:40.926,11.125,40.9377
14:58:40.941,10.1875,39.5627
14:58:40.955,9.5,39.5002
14:58:40.961,8.25,39.0626
14:58:40.969,8.0625,37.0001
14:58:40.981,6.875,37.1251
14:58:40.991,6.9375,35.3751
14:58:40.999,6.25,33.5626
14:58:41.012,5.875,33.3126
14:58:41.021,4.875,31.1251
14:58:41.031,3.8125,30.1876
14:58:41.039,4.1875,29.1251
14:58:41.051,3,27.1876
14:58:41.063,2.0625,27.0001
14:58:41.070,1.375,24.6876
14:58:41.081,0.75,21.6876
14:58:41.091,0.1875,20.4376
14:58:41.100,-1.4375,17.8751
14:58:41.112,-0.75,17.5001
14:58:41.119,-0.6875,15.1876
14:58:41.130,-2.125,14.1876
14:58:41.163,-2.8125,12.875
14:58:41.165,-2.8125,10.6875
14:58:41.167,-3.625,7.6875
14:58:41.172,-4.5625,6.375
14:58:41.180,-5.5625,4.9375
14:58:41.191,-5.5625,3.0625
14:58:41.212,-6.5,0.875
14:58:41.213,-7.625,-0.0625
14:58:41.228,-7.8125,-1.75
14:58:41.231,-8.1875,-4.0625
14:58:41.241,-9.0625,-5.3125
14:58:41.249,-8.8125,-5.625
14:58:41.261,-8.9375,-6.875
14:58:41.271,-9.625,-8.75
14:58:41.282,-9.0625,-10
14:58:41.291,-9.875,-10.3125
14:58:41.301,-10.5,-10.6875
14:58:41.311,-10.5,-13
14:58:41.321,-10.875,-14.5626
14:58:41.332,-9.875,-13.3751
14:58:41.343,-9,-13
14:58:41.351,-6.875,-10
14:58:41.385,-4.125,-4.5625
14:58:41.385,-0.9375,1.25
14:58:41.391,2.75,10.1875
14:58:41.392,6.625,17.4376
14:58:41.430,9.375,24.2501
14:58:41.432,12.375,30.4376
14:58:41.434,13.8751,36.5001
14:58:41.471,15.5626,40.4377
14:58:41.471,16.8751,45.2502
14:58:41.472,17.8126,47.4377
14:58:41.476,19.1876,51.5002
14:58:41.481,20.6251,53.8752
14:58:41.482,20.6251,54.7502
14:58:41.510,20.8126,56.3752
14:58:41.512,20.5626,55.6877
14:58:41.514,21.4376,58.3752
14:58:41.521,21.5001,57.5627
14:58:41.542,20.9376,58.1252
14:58:41.545,20.8126,58.0002
14:58:41.563,19.8126,57.2502
14:58:41.567,19.1876,55.6877
14:58:41.582,17.6876,55.4377
14:58:41.584,16.5001,55.0627
14:58:41.591,15.7501,51.6877
14:58:41.600,14.9376,49.4377
14:58:41.611,13.2501,47.6877
14:58:41.621,12.625,46.9377
14:58:41.631,11.75,44.0627
14:58:41.641,11.75,42.3752
14:58:41.652,10.4375,42.1252
14:58:41.659,9.6875,40.8127
14:58:41.671,9.25,38.6876
14:58:41.681,8.5625,37.4376
14:58:41.691,8.375,36.9376
14:58:41.707,7.75,35.0626
14:58:41.713,7.375,34.0001
14:58:41.721,7.0625,33.8126
14:58:41.731,7.5,32.8751
14:58:41.741,8.125,30.4376
14:58:41.751,7.0625,30.3751
14:58:41.763,7.75,28.2501
14:58:41.771,7.1875,25.3751
14:58:41.781,6.125,25.4376
14:58:41.790,6.375,22.9376
14:58:41.803,5.125,20.5001
14:58:41.811,5.0625,18.8126
14:58:41.820,4.8125,17.0001
14:58:41.831,3.9375,14.8751
14:58:41.841,3.6875,14.1251
14:58:41.851,4.5,11.75
14:58:41.861,4.375,9.25
14:58:41.871,3.5625,8
14:58:41.882,3.8125,7
14:58:41.890,4.125,5
14:58:41.901,4,2.5625
14:58:41.910,3.875,0.75
14:58:41.921,3.1875,-0.25
14:58:41.931,3.25,-1.4375
14:58:41.941,3,-4.4375
14:58:41.951,2.375,-5.8125
14:58:41.961,1.625,-7.125
14:58:41.971,1.375,-10.75
14:58:41.981,0.625,-10.375
14:58:41.991,0.5,-13.0625
14:58:42.001,-0.4375,-15.5626
14:58:42.010,-2,-18.0001
14:58:42.021,-3,-18.5001
14:58:42.031,-4.25,-20.6251
14:58:42.042,-5.25,-22.6251
14:58:42.051,-6.5625,-23.5626
14:58:42.061,-6.75,-23.9376
14:58:42.070,-6.5,-19.7501
14:58:42.083,-4.8125,-15.8751
14:58:42.090,-2.625,-10.1875
14:58:42.101,0,-1.375
14:58:42.111,3.6875,4.75
14:58:42.121,6.875,11
14:58:42.132,9.4375,18.2501
14:58:42.141,13.1876,23.3126
14:58:42.151,15.1876,27.8126
14:58:42.176,16.6876,32.8751
14:58:42.177,18.5001,33.7501
14:58:42.181,19.0626,37.9376
14:58:42.217,19.7501,38.0001
14:58:42.221,19.7501,40.5002
14:58:42.222,19.5001,39.7502
14:58:42.226,19.0626,40.1877
14:58:42.231,18.8751,39.8127
14:58:42.269,18.0001,40.3127
14:58:42.271,17.0001,39.5627
14:58:42.274,16.7501,37.9376
14:58:42.276,15.7501,39.0002
14:58:42.282,15.8751,36.5001
14:58:42.322,14.1251,34.5001
14:58:42.324,13.3126,33.6251
14:58:42.328,12.5,31.6876
14:58:42.332,11.5,28.0001
14:58:42.332,10.25,26.3126
14:58:42.344,9.6875,26.5001
14:58:42.351,9.25,24.0626
14:58:42.361,8.6875,22.0001
14:58:42.371,8.0625,20.5626
14:58:42.383,6.5625,20.8126
14:58:42.391,6.5,18.1251
14:58:42.401,5.625,16.9376
14:58:42.412,5.125,16.5626
14:58:42.443,4.375,15.7501
14:58:42.445,5.0625,13.9376
14:58:42.448,4.1875,12.5625
14:58:42.452,3.75,12.125
14:58:42.465,3.8125,10.0625
14:58:42.472,2.1875,8.3125
14:58:42.480,1.1875,6.5625
14:58:42.491,-0.125,4.75
14:58:42.500,-0.0625,3.0625
14:58:42.516,-1.375,0.5
14:58:42.531,-2,0.75
14:58:42.533,-1.5625,-1.75
14:58:42.541,-2.3125,-4.25
14:58:42.552,-3.5,-5.4375
14:58:42.564,-3.125,-7.4375
14:58:42.571,-4.3125,-10.25
14:58:42.581,-5.25,-12.25
14:58:42.591,-6,-13.1251
14:58:42.603,-6.3125,-14.3751
14:58:42.611,-6.875,-15.8126
14:58:42.621,-7.625,-17.8126
14:58:42.631,-8.5625,-20.3751
14:58:42.641,-9.4375,-21.3751
14:58:42.651,-10.4375,-21.8126
14:58:42.661,-10.1875,-24.2501
14:58:42.671,-11.3125,-26.0626
14:58:42.682,-12.0625,-28.0001
14:58:42.691,-12.5,-28.3751
14:58:42.701,-13.2501,-30.2501
14:58:42.716,-13.6876,-30.8126
14:58:42.726,-13.6876,-32.5001
14:58:42.739,-13.9376,-33.1876
14:58:42.746,-12.4375,-33.5001
14:58:42.756,-11.8125,-30.8751
14:58:42.766,-9.25,-28.2501
14:58:42.778,-6.375,-24.8751
14:58:42.785,-3.9375,-16.5626
14:58:42.796,0.0625,-11.3125
14:58:42.806,2.5,-3.5625
14:58:42.816,6.4375,1.9375
14:58:42.833,7.6875,9.375
14:58:42.838,9.9375,13.125
14:58:42.868,10.625,18.4376
14:58:42.871,12.5,20.6876
14:58:42.907,12.875,24.5626
14:58:42.909,13.8126,27.5001
14:58:42.912,14.0626,29.8126
14:58:42.912,14.3751,29.6876
14:58:42.912,14.2501,32.3126
14:58:42.916,14.0626,30.7501
14:58:42.944,13.8751,31.9376
14:58:42.945,13.7501,31.2501
14:58:42.947,13.3751,32.3126
14:58:42.982,13.8751,31.1251
14:58:42.984,13.125,31.9376
14:58:42.987,13.8126,30.7501
14:58:42.990,12.5625,28.6251
14:58:42.996,11.6875,27.4376
14:58:43.011,11.8125,25.3126
14:58:43.016,11.1875,23.5626
14:58:43.026,9.6875,21.3126
14:58:43.036,8.875,19.8751
14:58:43.047,7.875,18.6876
14:58:43.055,7.6875,16.1251
14:58:43.066,6.9375,15.5626
14:58:43.076,6.25,14.1251
14:58:43.088,5.9375,14.0626
14:58:43.096,6.1875,13.5001
14:58:43.106,5.875,12.3125
14:58:43.116,5.25,11.125
14:58:43.126,5.75,10
14:58:43.136,4.75,8.375
14:58:43.145,3.625,6.875
14:58:43.156,3.1875,6.3125
14:58:43.165,2.75,4.125
14:58:43.176,1.375,2.0625
14:58:43.185,0.1875,0.0625
14:58:43.197,-1.0625,-1.1875
14:58:43.206,-1.75,-3
14:58:43.215,-2.875,-5.5625
14:58:43.225,-4.375,-6.4375
14:58:43.236,-4.4375,-8.5
14:58:43.246,-5.125,-11.6875
14:58:43.256,-5.625,-12.5
14:58:43.265,-6.0625,-14.5001
14:58:43.276,-6.6875,-16.2501
14:58:43.286,-8.3125,-19.2501
14:58:43.296,-8.625,-20.0001
14:58:43.306,-8.875,-22.4376
14:58:43.317,-9.6875,-22.8126
14:58:43.326,-11,-24.4376
14:58:43.336,-10.8125,-26.1876
14:58:43.346,-12.25,-28.7501
14:58:43.358,-12.8125,-29.0001
14:58:43.366,-13.3126,-30.8126
14:58:43.376,-14.0626,-31.8126
14:58:43.386,-13.9376,-32.7501
14:58:43.396,-15.1251,-34.1876
14:58:43.406,-14.6876,-35.5001
14:58:43.415,-15.7501,-36.5626
14:58:43.427,-15.7501,-37.8751
14:58:43.440,-16.9376,-38.7501
14:58:43.446,-16.6251,-39.9377
14:58:43.456,-17.0626,-40.1877
14:58:43.468,-15.6876,-40.2502
14:58:43.476,-14.7501,-37.8126
14:58:43.486,-12.0625,-34.3126
14:58:43.497,-9.625,-28.0626
14:58:43.506,-5.75,-21.0001
14:58:43.516,-2.25,-12.625
14:58:43.526,2.625,-5.0625
14:58:43.539,4.875,2.25
14:58:43.546,7.875,9
14:58:43.556,9.75,14.3751
14:58:43.567,11.625,18.6251
14:58:43.602,13,22.3751
14:58:43.605,15.0001,26.2501
14:58:43.606,15.5001,29.5001
14:58:43.609,16.5001,31.5001
14:58:43.649,16.6251,32.8751
14:58:43.651,17.0626,34.7501
14:58:43.652,18.0626,34.6876
14:58:43.657,18.1251,36.6876
14:58:43.661,18.5001,36.6876
14:58:43.667,18.3751,38.0626
14:58:43.701,19.1251,37.8751
14:58:43.704,18.3751,38.5001
14:58:43.706,18.8751,36.8126
14:58:43.730,18.0001,35.0626
14:58:43.735,17.3126,34.3751
14:58:43.736,16.0626,31.5001
14:58:43.736,15.0001,30.0001
14:58:43.763,14.7501,27.6876
14:58:43.764,13.8126,25.8126
14:58:43.767,13.1876,23.9376
14:58:43.777,13.0625,23.2501
14:58:43.787,11.9375,21.5001
14:58:43.796,11.25,20.6876
14:58:43.814,11,20.4376
14:58:43.828,11.25,18.2501
14:58:43.828,9.875,18.1251
14:58:43.836,10.375,16.0626
14:58:43.846,8.75,14.8126
14:58:43.856,8.3125,13.5001
14:58:43.866,7.6875,12.4375
14:58:43.876,7.5,10.8125
14:58:43.889,6.6875,8.9375
14:58:43.896,5.8125,7.25
14:58:43.905,4.5625,5.625
14:58:43.916,3.5625,3.8125
14:58:43.926,2.5,3.0625
14:58:43.937,2.8125,-0.25
14:58:43.947,1.5,-2.5625
14:58:43.955,1.9375,-2.9375
14:58:43.967,1.625,-5.375
14:58:43.977,0.375,-6.9375
14:58:43.986,0.3125,-9.0625
14:58:43.996,-0.375,-9.9375
14:58:44.007,-0.0625,-11.625
14:58:44.018,-0.625,-14.1251
14:58:44.026,-1.625,-14.6251
14:58:44.036,-1.5625,-16.7501
14:58:44.047,-0.9375,-18.3126
14:58:44.056,-1.5625,-19.2501
14:58:44.066,-1.75,-20.6251
14:58:44.076,-1.8125,-23.3126
14:58:44.089,-2.9375,-22.8126
14:58:44.095,-2.875,-25.1876
14:58:44.105,-3.625,-27.1251
14:58:44.117,-3.9375,-27.8126
14:58:44.126,-4.0625,-30.3126
14:58:44.137,-5.5,-31.0001
14:58:44.147,-4.625,-31.6251
14:58:44.163,-6.625,-33.0001
14:58:44.165,-6.6875,-34.9376
14:58:44.180,-7.6875,-37.0001
14:58:44.190,-8.6875,-39.0002
14:58:44.197,-9.75,-39.6877
14:58:44.206,-9.8125,-40.9377
14:58:44.216,-10.625,-40.7502
14:58:44.227,-8.875,-39.8127
14:58:44.236,-7.625,-36.8126
14:58:44.248,-4.375,-31.9376
14:58:44.256,-2.3125,-25.1876
14:58:44.268,1.625,-18.1876
14:58:44.277,5.125,-9.0625
14:58:44.288,7.875,-1.8125
14:58:44.296,10.5625,5.6875
14:58:44.306,12.625,10.75
14:58:44.316,14.3126,16.3126
14:58:44.326,16.4376,21.0626
14:58:44.353,16.8126,25.0626
14:58:44.356,17.4376,27.7501
14:58:44.358,17.7501,29.7501
14:58:44.367,18.1876,31.8126
14:58:44.406,18.5626,32.3126
14:58:44.406,18.3751,34.4376
14:58:44.409,18.4376,33.9376
14:58:44.413,18.1251,36.2501
14:58:44.419,18.7501,35.1251
14:58:44.446,18.0001,37.1251
14:58:44.449,18.6251,35.1876
14:58:44.451,17.5001,36.5001
14:58:44.456,18.1876,35.4376
14:58:44.472,17.1251,32.8751
14:58:44.477,16.5626,32.9376
14:58:44.511,16.8126,30.5001
14:58:44.514,15.1251,27.6251
14:58:44.517,14.1876,26.3751
14:58:44.521,13.2501,25.3126
14:58:44.532,13.6876,22.9376
14:58:44.537,12.3125,21.3126
14:58:44.546,11.5625,19.9376
14:58:44.557,10.1875,19.6251
14:58:44.567,10.3125,18.7501
14:58:44.581,10.25,16.7501
14:58:44.587,9,15.6876
14:58:44.596,8.5,15.3751
14:58:44.608,8.875,14.6876
14:58:44.617,8.5,13.0625
14:58:44.627,7.25,12.375
14:58:44.637,7.625,11
14:58:44.648,6.8125,8.5
14:58:44.657,6.25,6.9375
14:58:44.666,5.75,4.8125
14:58:44.676,3.625,2.4375
14:58:44.687,1,0.0625
14:58:44.697,1.25,-1.9375
14:58:44.709,0.375,-4.5
14:58:44.717,-0.9375,-5.75
14:58:44.727,-1.75,-8
14:58:44.737,-2.75,-10.6875
14:58:44.747,-3.875,-12.875
14:58:44.758,-5,-14.5626
14:58:44.767,-5.9375,-15.9376
14:58:44.777,-6.375,-18.5001
14:58:44.788,-7.875,-20.3751
14:58:44.798,-8.75,-22.5626
14:58:44.807,-10.125,-22.7501
14:58:44.817,-10.5625,-25.3126
14:58:44.827,-11.5625,-27.5001
14:58:44.837,-12.3125,-29.3126
14:58:44.846,-13.5001,-29.5001
14:58:44.857,-13.9376,-31.1876
14:58:44.868,-14.6251,-33.1251
14:58:44.877,-14.6876,-34.5626
14:58:44.887,-15.8126,-36.5001
14:58:44.897,-15.4376,-36.3751
14:58:44.907,-16.0001,-38.1876
14:58:44.917,-15.3751,-38.0626
14:58:44.927,-15.1251,-37.8126
14:58:44.939,-12.625,-35.0001
14:58:44.970,-10.875,-31.3751
14:58:44.972,-7.625,-23.8751
14:58:44.974,-4.625,-17.8126
14:58:45.002,-0.625,-9.6875
14:58:45.004,2.8125,-2.0625
14:58:45.007,5.5,6.0625
14:58:45.032,7.9375,12
14:58:45.033,9.9375,18.2501
14:58:45.036,12.3125,22.8751
14:58:45.042,13.1251,26.8751
14:58:45.069,14.3751,29.6876
14:58:45.072,15.2501,33.3126
14:58:45.074,15.2501,33.6876
14:58:45.082,15.4376,36.1876
14:58:45.112,15.8126,36.5001
14:58:45.148,15.6876,37.3751
14:58:45.179,15.9376,39.0626
14:58:45.194,16.0626,38.8751
14:58:45.196,16.0626,38.0626
14:58:45.204,15.6251,38.9376
14:58:45.204,15.5001,37.3751
14:58:45.207,14.6876,37.5626
14:58:45.218,14.8751,35.5626
14:58:45.227,13.2501,32.7501
14:58:45.237,11.875,30.8126
14:58:45.249,11.1875,28.7501
14:58:45.257,10.25,27.3126
14:58:45.267,8.9375,25.1251
14:58:45.282,8.3125,23.1876
14:58:45.287,7.6875,23.3751
14:58:45.297,6.9375,21.6251
14:58:45.310,6.3125,20.1251
14:58:45.317,5.125,18.5001
14:58:45.327,4.5,16.5626
14:58:45.339,3.625,15.4376
14:58:45.347,2.0625,13.8751
14:58:45.357,1.375,11.9375
14:58:45.369,-2.375,4.875
14:58:45.377,-3.375,3.3125
14:58:45.387,-4.125,2.1875
14:58:45.400,-4.375,-0.4375
14:58:45.407,-5.8125,-3.375
14:58:45.417,-6.8125,-4
14:58:45.427,-7.0625,-6.5
14:58:45.437,-7.3125,-8.875
14:58:45.449,-8.3125,-10.9375
14:58:45.466,-9.25,-11.5
14:58:45.473,-9.125,-13.5001
14:58:45.481,-10.25,-15.8751
14:58:45.487,-11,-17.8751
14:58:45.503,-11.875,-18.6251
14:58:45.520,-12.25,-20.6251
14:58:45.523,-13.2501,-22.5626
14:58:45.531,-14.7501,-23.8751
14:58:45.537,-15.0626,-25.5626
14:58:45.547,-14.5626,-28.4376
14:58:45.557,-16.2501,-28.8751
14:58:45.567,-16.5626,-31.3126
14:58:45.577,-17.3126,-32.7501
14:58:45.587,-17.2501,-33.1251
14:58:45.597,-17.5626,-34.6876
14:58:45.607,-17.9376,-35.6876
14:58:45.617,-17.0001,-35.3126
14:58:45.627,-16.0626,-32.3751
14:58:45.637,-13.3126,-28.2501
14:58:45.647,-10.4375,-21.6251
14:58:45.662,-7.25,-13.8126
14:58:45.667,-3,-6.3125
14:58:45.677,-0.4375,0.875
14:58:45.687,3.625,10
14:58:45.697,6.125,16.9376
14:58:45.710,8.3125,22.5626
14:58:45.717,9.8125,27.5001
14:58:45.740,11.0625,32.4376
14:58:45.742,12.5625,35.5626
14:58:45.773,13.4376,38.6251
14:58:45.776,15.0001,40.7502
14:58:45.777,15.6251,42.5627
14:58:45.780,15.6876,44.6252
14:58:45.815,15.6251,43.1252
14:58:45.816,15.6876,44.1252
14:58:45.819,15.6251,43.9377
14:58:45.821,15.3126,44.2502
14:58:45.828,15.3126,44.8752
14:58:45.867,14.1876,42.0002
14:58:45.868,13.4376,42.4377
14:58:45.871,12.0625,39.5627
14:58:45.873,11.0625,37.6876
14:58:45.878,9.5625,36.3751
14:58:45.905,8.75,32.8751
14:58:45.909,6.875,30.1876
14:58:45.909,6,28.7501
14:58:45.917,5.25,26.2501
14:58:45.927,4.375,25.1876
14:58:45.939,4.4375,23.8751
14:58:45.947,3.5625,23.6876
14:58:45.957,4,22.3751
14:58:45.968,3.3125,20.6251
14:58:45.977,2.5,19.0626
14:58:45.987,1.75,18.2501
14:58:45.999,1.75,17.9376
14:58:46.007,1.25,15.8751
14:58:46.017,0.3125,14.3751
14:58:46.027,-0.9375,12.0625
14:58:46.037,-2.125,11.75
14:58:46.049,-2.4375,8.25
14:58:46.057,-4.1875,5.1875
14:58:46.067,-4.9375,4.0625
14:58:46.080,-5.75,2.0625
14:58:46.087,-7.25,-0.5625
14:58:46.097,-8.125,-1.8125
14:58:46.107,-9.0625,-3.5
14:58:46.117,-9.0625,-6.5625
14:58:46.127,-11,-9.5
14:58:46.137,-11.5,-11.3125
14:58:46.147,-11.8125,-12.5
14:58:46.157,-12.5,-15.4376
14:58:46.168,-13.3751,-17.3751
14:58:46.177,-14.5001,-18.0626
14:58:46.187,-14.3126,-20.3126
14:58:46.197,-14.7501,-22.5626
14:58:46.208,-15.2501,-23.7501
14:58:46.217,-16.3126,-25.4376
14:58:46.227,-17.0001,-26.6876
14:58:46.240,-17.6876,-28.5626
14:58:46.247,-18.1876,-30.0001
14:58:46.257,-19.9376,-31.0626
14:58:46.282,-19.7501,-34.0626
14:58:46.287,-21.9376,-34.7501
14:58:46.288,-23.1876,-37.9376
14:58:46.297,-25.0626,-41.1252
14:58:46.307,-25.3751,-41.5627
14:58:46.319,-27.3126,-44.1252
14:58:46.327,-29.2501,-45.6877
14:58:46.337,-30.2501,-47.8752
14:58:46.347,-32.6876,-49.5002
14:58:46.357,-35.3751,-51.8752
14:58:46.369,-39.5002,-51.8127
14:58:46.377,-44.5002,-52.6877
14:58:46.387,-50.3752,-52.3127
14:58:46.397,-48.5002,-46.8752
14:58:46.413,-43.2502,-35.1251
14:58:46.417,-44.5627,-28.4376
14:58:46.427,-45.5627,-23.7501
14:58:46.471,-43.3752,-14.9376
14:58:46.472,-44.3127,-11.9375
14:58:46.507,-44.8752,-7.125
14:58:46.508,-47.3752,-3.875
14:58:46.536,-52.0627,-5.6875
14:58:46.565,-58.8127,-6.8125
14:58:46.566,-60.8752,-8.25
14:58:46.566,-59.8752,-4.125
14:58:46.608,-59.3127,-1.5625
14:58:46.610,-59.4377,0.125
14:58:46.612,-61.4377,1.125
14:58:46.614,-63.8752,0.3125
14:58:46.614,-67.5003,-0.8125
14:58:46.614,-69.4378,-2.0625
14:58:46.619,-68.9378,-1.125
14:58:46.627,-68.6253,-1.125
14:58:46.637,-69.8128,-1.5
14:58:46.648,-71.8753,-5.5
14:58:46.657,-73.6878,-6.6875
14:58:46.667,-74.5628,-10.375
14:58:46.677,-75.8753,-10.9375
14:58:46.687,-76.6878,-13.5626
14:58:46.699,-78.0628,-15.0626
14:58:46.707,-81.0003,-18.0626
14:58:46.717,-91.3129,-26.3126
14:58:46.729,-84.8753,-23.0626
14:58:46.737,-71.2503,-12.1875
14:58:46.747,-62.1252,-5.3125
14:58:46.759,-61.0002,-6.25
14:58:46.767,-66.1878,-11.9375
14:58:46.780,-69.5003,-15.7501
14:58:46.790,-66.6878,-15.6251
14:58:46.805,-66.4378,-16.0626
14:58:46.812,-67.7503,-19.8751
14:58:46.820,-75.3753,-24.4376
14:58:46.837,-112.6879,-56.2502
14:58:46.842,-176.0632,-108.6254
14:58:46.852,-242.5009,-165.8131
14:58:46.857,-289.0636,-206.0633
14:58:46.869,-313.0012,-229.8759
14:58:46.877,-322.5637,-243.0009
14:58:46.887,-330.3138,-256.4385
14:58:46.897,-338.7513,-272.1885
14:58:46.907,-344.9388,-282.2511
14:58:46.918,-346.9388,-286.9386
14:58:46.927,-347.6263,-288.3136
14:58:46.937,-346.4388,-286.2511
14:58:46.949,-344.8763,-286.1886
14:58:46.957,-342.8763,-287.5011
14:58:46.967,-340.5013,-287.8761
14:58:46.978,-339.6888,-288.8761
14:58:46.987,-342.1263,-292.3136
14:58:46.999,-345.1888,-296.7511
14:58:47.008,-345.6263,-300.3762
14:58:47.017,-341.8138,-298.6887
14:58:47.029,-335.7513,-294.9386
14:58:47.038,-327.6263,-286.8761
14:58:47.047,-321.2512,-278.1261
14:58:47.057,-311.5637,-268.876
14:58:47.067,-300.0012,-254.001
14:58:47.078,-269.1885,-225.5009
14:58:47.087,-227.3759,-185.6257
14:58:47.097,-184.6257,-142.938
14:58:47.109,-141.438,-99.9379
14:58:47.117,-103.3754,-59.6252
14:58:47.128,-73.1878,-27.6876
14:58:47.137,-47.5002,0.875
14:58:47.147,-26.3126,26.0001
14:58:47.163,-8.625,45.0002
14:58:47.170,1.125,61.2502
14:58:47.178,7.25,70.0628
14:58:47.189,10.9375,77.1878
14:58:47.197,11.4375,81.5003
14:58:47.208,2.625,78.3753
14:58:47.217,-33.4376,52.7502
14:58:47.227,-78.4378,17.1876
14:58:47.237,-115.3754,-10.625
14:58:47.273,-142.688,-30.3126
14:58:47.276,-160.8131,-46.6252
14:58:47.279,-173.7507,-56.5627
14:58:47.282,-176.5632,-61.3127
14:58:47.287,-172.0007,-57.3127
14:58:47.324,-168.1881,-53.8752
14:58:47.330,-163.3131,-50.0627
14:58:47.330,-154.6256,-41.8127
14:58:47.331,-142.2505,-32.0001
14:58:47.337,-129.8755,-21.1876
14:58:47.368,-114.5004,-8.5625
14:58:47.371,-97.6254,5
14:58:47.373,-88.7503,13.2501
14:58:47.379,-82.6878,16.5001
14:58:47.412,-79.7503,17.5001
14:58:47.415,-77.0628,18.4376
14:58:47.417,-73.0003,21.5001
14:58:47.419,-65.3753,25.1251
14:58:47.431,-62.7502,29.3126
14:58:47.439,-62.6252,25.1251
14:58:47.447,-67.5628,19.3126
14:58:47.457,-79.3753,8.375
14:58:47.470,-97.0629,-8.4375
14:58:47.477,-106.0004,-18.1876
14:58:47.488,-98.3754,-13.6876
14:58:47.498,-87.8753,-6.6875
14:58:47.507,-68.0003,6.6875
14:58:47.519,-21.6251,41.6252
14:58:47.529,36.9376,87.5003
14:58:47.538,90.3128,132.5005
14:58:47.568,125.313,159.5631
14:58:47.568,138.188,168.5006
14:58:47.570,144.438,169.4381
14:58:47.577,151.0631,171.7507
14:58:47.588,165.0006,178.4382
14:58:47.597,177.9382,186.4382
14:58:47.608,187.2507,188.9382
14:58:47.617,190.1882,190.0007
14:58:47.628,180.5632,177.0632
14:58:47.638,163.8131,160.3131
14:58:47.649,149.5006,143.1255
14:58:47.657,139.5005,132.1255
14:58:47.667,132.5005,121.563
14:58:47.678,118.938,109.3129
14:58:47.687,91.3754,86.0003
14:58:47.698,43.3127,46.3127
14:58:47.707,-1.875,8.75
14:58:47.720,-25.9376,-13.5001
14:58:47.727,-37.6251,-23.6251
14:58:47.738,-46.3127,-29.6251
14:58:47.747,-56.8127,-37.1251
14:58:47.758,-71.6878,-48.5627
14:58:47.768,-85.5628,-60.3127
14:58:47.778,-95.2504,-67.6253
14:58:47.789,-98.4379,-70.3753
14:58:47.800,-92.2504,-65.8753
14:58:47.807,-80.4378,-55.8127
14:58:47.817,-68.6253,-45.3752
14:58:47.828,-56.7502,-34.0626
14:58:47.848,-45.9377,-21.6251
14:58:47.853,-40.1877,-13.5626
14:58:47.866,-38.6876,-7.5
14:58:47.870,-36.4376,0.5
14:58:47.882,-32.5626,9.5625
14:58:47.888,-28.1876,18.6251
14:58:47.899,-32.1876,23.0001
14:58:47.914,-49.3752,13.6876
14:58:47.920,-69.7503,1.1875
14:58:47.928,-77.3128,-3.4375
14:58:47.951,-72.8128,2.4375
14:58:47.953,-63.8752,13.1876
14:58:47.981,-42.5627,28.6876
14:58:47.987,-4.25,59.5627
14:58:47.987,34.5626,91.8754
14:58:47.988,69.5003,119.938
14:58:48.024,100.7504,144.063
14:58:48.028,119.3755,159.5006
14:58:48.028,134.813,169.3756
14:58:48.031,148.4381,180.1257
14:58:48.071,158.4381,185.0632
14:58:48.073,168.6881,189.1257
14:58:48.076,177.6882,193.9382
14:58:48.102,179.8757,191.1257
14:58:48.102,176.8132,185.8132
14:58:48.103,169.6256,174.7507
14:58:48.106,162.2506,165.0006
14:58:48.111,154.5006,155.7506
14:58:48.117,150.5631,149.1881
14:58:48.135,146.3755,143.313
14:58:48.144,131.5005,129.7505
14:58:48.150,105.5004,107.3754
14:58:48.166,78.6253,85.0003
14:58:48.172,50.3127,61.7502
14:58:48.179,25.1876,42.2502
14:58:48.188,-3.125,22.8126
14:58:48.198,-37.0626,-4.625
14:58:48.209,-68.3128,-27.6876
14:58:48.218,-89.0003,-44.3752
14:58:48.228,-93.0629,-46.6877
14:58:48.239,-83.8128,-38.5626
14:58:48.248,-75.6253,-31.5001
14:58:48.258,-75.0003,-30.9376
14:58:48.268,-71.7503,-29.8751
14:58:48.277,-66.2503,-25.5626
14:58:48.290,-60.0627,-20.0626
14:58:48.298,-56.3752,-19.1251
14:58:48.308,-55.3127,-18.5001
14:58:48.318,-54.1252,-20.1251
14:58:48.329,-55.9377,-21.1876
14:58:48.341,-59.8127,-26.0626
14:58:48.348,-67.8753,-35.3751
14:58:48.359,-87.2503,-51.6252
14:58:48.368,-113.5629,-75.4378
14:58:48.378,-137.688,-98.6879
14:58:48.391,-154.1881,-112.6254
14:58:48.397,-165.4381,-125.1255
14:58:48.409,-160.8131,-125.938
14:58:48.418,-135.1255,-107.6254
14:58:48.429,-94.6254,-77.8753
14:58:48.439,-52.7502,-46.0002
14:58:48.449,-19.0626,-21.3751
14:58:48.458,-1.875,-8.9375
14:58:48.469,4.5,-4.375
14:58:48.478,5.75,-7.25
14:58:48.489,7.6875,-8.125
14:58:48.498,22.6876,1.6875
14:58:48.508,47.3752,19.3126
14:58:48.519,71.0003,37.7501
14:58:48.528,82.2503,45.6252
14:58:48.540,84.9378,45.0627
14:58:48.548,84.4378,42.1252
14:58:48.558,77.7503,35.4376
14:58:48.568,68.3753,25.1251
14:58:48.578,61.9377,17.5001
14:58:48.588,57.8127,14.9376
14:58:48.600,61.0627,16.5626
14:58:48.608,62.6877,20.1251
14:58:48.619,56.0627,20.2501
14:58:48.629,47.3127,17.2501
14:58:48.657,37.1251,15.8751
14:58:48.659,18.1251,7.5625
14:58:48.662,-8.4375,-7.4375
14:58:48.668,-37.1876,-22.1876
14:58:48.697,-62.7502,-37.0626
14:58:48.699,-85.1878,-47.9377
14:58:48.702,-91.6254,-50.0002
14:58:48.708,-82.1878,-36.7501
14:58:48.743,-57.5002,-15.8126
