timestamp,Red,IR
13:33:14.122,-22.3126,-29.7501
13:33:14.128,-26.0626,-36.9376
13:33:14.135,-27.8751,-39.6252
13:33:14.145,-29.1251,-43.8127
13:33:14.156,-31.0001,-46.7502
13:33:14.177,-32.3126,-49.7502
13:33:14.180,-34.3126,-53.1877
13:33:14.216,-36.4376,-56.2502
13:33:14.219,-37.5626,-58.8127
13:33:14.221,-39.0627,-62.4377
13:33:14.223,-40.1252,-65.1252
13:33:14.227,-41.0627,-67.6878
13:33:14.254,-43.0002,-69.4378
13:33:14.257,-44.3752,-72.3128
13:33:14.261,-45.4377,-76.3128
13:33:14.267,-47.3752,-77.4378
13:33:14.280,-49.1252,-82.6253
13:33:14.285,-51.2502,-86.1878
13:33:14.330,-52.5002,-89.5628
13:33:14.332,-54.6252,-91.5004
13:33:14.333,-55.5002,-95.8754
13:33:14.349,-55.8127,-96.0004
13:33:14.349,-53.4377,-95.1254
13:33:14.350,-47.4377,-87.1253
13:33:14.359,-38.8751,-72.1878
13:33:14.366,-25.6251,-52.7502
13:33:14.377,-13.9376,-31.2501
13:33:14.385,-1.25,-10
13:33:14.396,8.3125,10.375
13:33:14.410,17.3126,25.3751
13:33:14.415,23.5626,40.1877
13:33:14.425,29.0626,49.8752
13:33:14.435,32.3751,58.8752
13:33:14.446,34.0001,63.4377
13:33:14.456,35.4376,66.5003
13:33:14.466,34.8126,69.0003
13:33:14.477,34.6876,68.5003
13:33:14.485,34.6251,69.4378
13:33:14.497,35.8751,70.3128
13:33:14.506,36.0626,72.9378
13:33:14.515,36.6876,74.0003
13:33:14.525,37.0001,76.3128
13:33:14.535,37.5626,76.7503
13:33:14.546,37.5001,77.6253
13:33:14.570,36.0001,76.1878
13:33:14.576,34.3126,74.3128
13:33:14.590,33.4376,70.6878
13:33:14.594,32.1876,68.6878
13:33:14.608,31.9376,67.0628
13:33:14.610,30.9376,64.8752
13:33:14.615,30.1251,63.3127
13:33:14.625,30.0626,63.5627
13:33:14.636,30.8126,62.7502
13:33:14.645,30.0626,62.1877
13:33:14.655,29.0626,61.6252
13:33:14.667,28.7501,60.9377
13:33:14.676,28.0626,59.2502
13:33:14.685,25.8751,56.7502
13:33:14.696,24.2501,55.0627
13:33:14.705,22.8126,51.5627
13:33:14.716,20.2501,47.5002
13:33:14.727,17.5001,43.2502
13:33:14.737,14.8751,38.4376
13:33:14.746,12.125,34.8751
13:33:14.757,8.875,29.8751
13:33:14.766,6.125,24.2501
13:33:14.775,4.4375,19.9376
13:33:14.786,1.25,15.6251
13:33:14.806,-0.875,12.25
13:33:14.809,-2.25,7.8125
13:33:14.818,-3.5,3.9375
13:33:14.825,-6.125,0.4375
13:33:14.878,-7.875,-1.9375
13:33:14.878,-9.4375,-5.5
13:33:14.882,-10.9375,-9.25
13:33:14.883,-12.625,-12.625
13:33:14.889,-15.1251,-15.3126
13:33:14.890,-15.8751,-17.8751
13:33:14.896,-16.6876,-20.9376
13:33:14.905,-18.6876,-24.8126
13:33:14.916,-20.8751,-26.0626
13:33:14.925,-21.9376,-29.8751
13:33:14.968,-23.8751,-33.9376
13:33:14.969,-25.0626,-35.3751
13:33:14.973,-25.5001,-37.8126
13:33:14.976,-27.8751,-41.4377
13:33:14.979,-29.6876,-44.1877
13:33:15.007,-30.3126,-46.2502
13:33:15.010,-31.1876,-49.0627
13:33:15.012,-33.0626,-51.8127
13:33:15.017,-34.4376,-53.8127
13:33:15.050,-35.0626,-57.7502
13:33:15.051,-36.6251,-59.2502
13:33:15.053,-38.0626,-62.8752
13:33:15.085,-39.0626,-63.7502
13:33:15.086,-40.3752,-65.8128
13:33:15.088,-41.8127,-69.8128
13:33:15.091,-42.9377,-73.3753
13:33:15.117,-45.1252,-76.9378
13:33:15.118,-47.3127,-81.1253
13:33:15.122,-48.8127,-83.0003
13:33:15.127,-50.0002,-87.0628
13:33:15.136,-50.1252,-87.0628
13:33:15.145,-48.0002,-83.1878
13:33:15.156,-41.2502,-75.9378
13:33:15.165,-32.3751,-58.6877
13:33:15.176,-20.1251,-41.3127
13:33:15.185,-9.25,-20.1251
13:33:15.196,2.625,-1.4375
13:33:15.205,11.5,17.6251
13:33:15.216,20.7501,32.2501
13:33:15.226,25.5001,45.5002
13:33:15.236,30.3126,53.5627
13:33:15.245,32.1876,61.1252
13:33:15.256,33.8751,64.4377
13:33:15.265,34.1251,68.0003
13:33:15.276,34.5001,68.0628
13:33:15.286,34.8751,68.8128
13:33:15.296,33.3126,69.1253
13:33:15.310,34.1251,69.4378
13:33:15.317,33.6251,70.3753
13:33:15.326,34.5001,71.0003
13:33:15.336,33.4376,71.0003
13:33:15.346,33.2501,71.4378
13:33:15.355,31.8751,70.0628
13:33:15.366,30.4376,66.5628
13:33:15.376,28.7501,64.5627
13:33:15.385,26.4376,61.3127
13:33:15.396,25.2501,58.8127
13:33:15.405,24.1876,58.2502
13:33:15.416,24.8126,56.9377
13:33:15.426,24.0001,56.5002
13:33:15.435,23.5001,55.1252
13:33:15.445,23.1876,56.5627
13:33:15.456,24.4376,55.7502
13:33:15.467,22.5626,55.5627
13:33:15.475,21.5001,54.6877
13:33:15.487,20.2501,52.0002
13:33:15.495,18.9376,49.3127
13:33:15.505,17.2501,46.7502
13:33:15.516,15.0001,43.6877
13:33:15.525,13.3751,38.6251
13:33:15.535,10.4375,33.9376
13:33:15.546,8,30.0001
13:33:15.555,6.0625,25.0001
13:33:15.565,2.6875,20.4376
13:33:15.575,-0.1875,16.7501
13:33:15.585,-2.25,12.125
13:33:15.596,-3.4375,7.8125
13:33:15.605,-6.125,4
13:33:15.617,-8.0625,2
13:33:15.625,-8.8125,-1.6875
13:33:15.636,-10.5625,-5.9375
13:33:15.663,-12.375,-8
13:33:15.666,-13.7501,-11.0625
13:33:15.668,-14.8126,-14.5001
13:33:15.676,-16.6251,-18.1251
13:33:15.707,-18.6876,-19.5001
13:33:15.710,-18.6876,-23.0001
13:33:15.713,-20.6876,-26.1876
13:33:15.718,-22.0626,-28.6251
13:33:15.745,-23.8126,-31.0626
13:33:15.748,-24.6251,-34.1876
13:33:15.750,-26.7501,-37.0001
13:33:15.755,-27.7501,-39.9377
13:33:15.795,-29.0001,-42.6252
13:33:15.796,-30.8751,-44.0627
13:33:15.798,-31.6876,-48.7502
13:33:15.800,-33.5001,-50.7502
13:33:15.807,-34.6251,-53.7502
13:33:15.823,-35.8751,-56.6252
13:33:15.827,-37.1251,-58.1877
13:33:15.836,-38.2501,-61.4377
13:33:15.846,-39.3127,-63.6252
13:33:15.858,-40.4377,-65.5627
13:33:15.866,-41.1877,-67.5003
13:33:15.883,-42.3752,-69.3128
13:33:15.890,-44.0002,-73.1253
13:33:15.898,-44.8127,-75.5628
13:33:15.907,-46.5002,-78.3753
13:33:15.921,-47.8127,-81.5628
13:33:15.936,-50.1252,-83.3128
13:33:15.939,-51.3127,-88.1878
13:33:15.947,-51.6877,-89.6253
13:33:15.955,-51.3752,-89.1878
13:33:15.967,-47.3127,-85.8128
13:33:15.976,-40.9377,-75.4378
13:33:15.986,-30.0001,-58.5627
13:33:15.997,-18.8751,-38.3126
13:33:16.006,-5.5,-16.9376
13:33:16.043,6.5,5.375
13:33:16.047,16.3126,23.6876
13:33:16.048,24.8126,41.1252
13:33:16.054,31.2501,54.2502
13:33:16.061,36.3751,65.9378
13:33:16.071,39.1877,73.1878
13:33:16.080,41.1252,78.5628
13:33:16.092,42.3127,81.9378
13:33:16.121,42.8752,84.7503
13:33:16.123,43.0002,86.9378
13:33:16.125,44.0002,88.3753
13:33:16.135,44.1877,91.1879
13:33:16.150,44.8752,92.5004
13:33:16.153,46.3752,94.8129
13:33:16.168,46.6877,97.6254
13:33:16.183,47.6252,98.9379
13:33:16.184,46.6877,99.5629
13:33:16.193,45.6252,98.1879
13:33:16.201,44.2502,95.6254
13:33:16.211,42.0002,92.9379
13:33:16.220,40.5627,90.0003
13:33:16.233,38.5626,87.6253
13:33:16.242,37.3126,85.1253
13:33:16.250,36.5626,83.5628
13:33:16.262,35.5001,82.8753
13:33:16.270,35.0626,80.8128
13:33:16.281,34.5626,80.0003
13:33:16.292,33.5626,79.3128
13:33:16.301,32.2501,76.6878
13:33:16.311,30.3751,74.5003
13:33:16.320,29.1251,72.3128
13:33:16.330,28.0001,69.3128
13:33:16.340,24.8126,65.8753
13:33:16.351,23.4376,61.8127
13:33:16.362,20.5626,58.1877
13:33:16.371,18.3751,52.5002
13:33:16.394,15.4376,48.0627
13:33:16.397,12.5625,42.6877
13:33:16.414,10.4375,38.3751
13:33:16.416,8.0625,33.7501
13:33:16.453,5.75,29.5626
13:33:16.455,3.6875,25.5001
13:33:16.456,1.75,22.0626
13:33:16.463,-0.75,18.5001
13:33:16.465,-2.3125,14.2501
13:33:16.472,-3.75,11.5625
13:33:16.502,-5.625,7.3125
13:33:16.503,-7.8125,3.125
13:33:16.505,-8.9375,1.1875
13:33:16.513,-10.6875,-2.9375
13:33:16.543,-12.3125,-6.4375
13:33:16.546,-13.8751,-10.1875
13:33:16.548,-15.4376,-12.875
13:33:16.554,-17.6876,-15.7501
13:33:16.570,-18.8751,-20.0626
13:33:16.573,-20.1251,-23.5626
13:33:16.580,-21.8751,-25.6251
13:33:16.592,-23.9376,-30.1251
13:33:16.608,-25.1876,-33.3751
13:33:16.611,-27.1251,-36.5626
13:33:16.622,-28.5626,-39.3752
13:33:16.631,-29.5626,-42.9377
13:33:16.640,-32.3751,-45.6877
13:33:16.651,-32.8751,-49.0002
13:33:16.661,-35.1251,-52.8127
13:33:16.673,-36.2501,-54.1877
13:33:16.682,-38.1876,-58.6877
13:33:16.691,-40.0002,-60.6252
13:33:16.701,-40.3752,-64.1877
13:33:16.713,-41.3752,-66.0003
13:33:16.722,-43.0627,-68.6253
13:33:16.730,-44.3127,-72.2503
13:33:16.742,-45.1877,-74.5003
13:33:16.752,-47.3127,-76.3753
13:33:16.761,-49.1252,-80.6878
13:33:16.772,-49.8127,-83.6253
13:33:16.782,-51.4377,-85.6878
13:33:16.792,-52.8752,-90.2504
13:33:16.803,-54.3752,-92.0004
13:33:16.812,-55.5627,-95.3754
13:33:16.822,-55.5002,-96.1254
13:33:16.832,-54.3127,-95.4379
13:33:16.841,-49.5627,-90.0629
13:33:16.850,-42.3752,-77.5628
13:33:16.862,-31.0001,-61.4377
13:33:16.872,-18.9376,-38.9376
13:33:16.882,-6.375,-18.0626
13:33:16.891,5,3.5
13:33:16.902,14.3126,22.0001
13:33:16.911,22.2501,37.2501
13:33:16.922,28.5001,51.1877
13:33:16.931,32.7501,60.2502
13:33:16.940,35.1876,67.1253
13:33:16.952,36.7501,72.1253
13:33:16.960,38.3751,74.5003
13:33:16.971,37.5626,77.7503
13:33:16.985,38.8126,78.3128
13:33:16.992,38.5001,80.8128
13:33:17.002,39.6252,81.5628
13:33:17.012,41.0627,85.0003
13:33:17.020,41.1252,86.4378
13:33:17.030,42.6252,89.6878
13:33:17.042,43.0627,91.7504
13:33:17.052,42.4377,90.0628
13:33:17.062,40.6877,89.0628
13:33:17.072,39.2501,86.6253
13:33:17.082,37.5001,82.8128
13:33:17.092,34.8751,79.5628
13:33:17.100,33.3751,77.4378
13:33:17.112,32.3126,73.6878
13:33:17.120,31.1876,71.5003
13:33:17.131,30.7501,69.7503
13:33:17.171,29.6876,69.6253
13:33:17.175,28.6876,68.6253
13:33:17.178,27.9376,66.3128
13:33:17.179,27.1876,64.7502
13:33:17.181,26.1251,63.5002
13:33:17.221,24.6251,60.3752
13:33:17.224,23.2501,58.1252
13:33:17.290,20.5626,54.6877
13:33:17.293,18.3126,50.5002
13:33:17.295,16.1251,44.5002
13:33:17.295,13.3751,41.3127
13:33:17.299,9.6875,34.8126
13:33:17.301,7.375,31.2501
13:33:17.322,4.9375,24.8751
13:33:17.324,2.1875,20.6251
13:33:17.324,0.3125,16.6251
13:33:17.325,-1.75,13.2501
13:33:17.327,-3.4375,9.5625
13:33:17.333,-4.75,5
13:33:17.340,-6.6875,2.125
13:33:17.358,-8.4375,-0.5
13:33:17.360,-9.75,-2.9375
13:33:17.372,-11.5,-6.6875
13:33:17.400,-12.125,-10.0625
13:33:17.402,-13.5001,-12.6875
13:33:17.407,-15.5626,-16.4376
13:33:17.412,-16.8126,-19.9376
13:33:17.422,-20.1876,-25.6876
13:33:17.431,-21.1251,-28.8126
13:33:17.442,-23.2501,-32.1251
13:33:17.452,-24.7501,-35.2501
13:33:17.469,-26.6876,-38.6251
13:33:17.472,-27.6251,-41.6877
13:33:17.486,-29.2501,-43.5002
13:33:17.494,-31.1876,-47.1877
13:33:17.502,-31.4376,-49.6877
13:33:17.512,-33.0626,-51.9377
13:33:17.520,-33.5626,-54.9377
13:33:17.532,-34.8126,-55.8752
13:33:17.542,-36.0001,-59.5627
13:33:17.550,-36.8126,-60.9377
13:33:17.562,-38.3126,-64.2502
13:33:17.572,-39.1252,-65.6877
13:33:17.583,-41.3127,-67.6878
13:33:17.592,-42.0002,-71.8753
13:33:17.601,-42.9377,-74.0628
13:33:17.612,-44.8752,-77.1878
13:33:17.622,-45.5002,-80.3753
13:33:17.632,-47.3752,-82.5628
13:33:17.642,-48.1877,-85.5628
13:33:17.651,-48.4377,-86.8128
13:33:17.661,-47.9377,-84.8128
13:33:17.672,-43.2502,-80.5003
13:33:17.682,-35.1876,-68.4378
13:33:17.692,-25.6876,-51.8127
13:33:17.701,-13.8751,-32.9376
13:33:17.712,-2.6875,-12
13:33:17.721,7.75,5.75
13:33:17.733,15.5626,23.3751
13:33:17.742,23.1876,37.0001
13:33:17.752,28.6876,48.5627
13:33:17.763,31.3751,57.7502
13:33:17.771,34.4376,62.1877
13:33:17.782,35.0001,66.8753
13:33:17.792,35.0626,67.9378
13:33:17.801,35.1876,68.7503
13:33:17.812,35.0001,70.5003
13:33:17.821,35.1251,69.9378
13:33:17.832,35.4376,72.5628
13:33:17.862,35.3126,71.5003
13:33:17.864,36.3126,73.5003
13:33:17.866,34.9376,75.0628
13:33:17.872,34.0626,72.3753
13:33:17.903,31.8126,70.7503
13:33:17.907,29.8751,66.3753
13:33:17.909,27.6876,63.4377
13:33:17.916,26.0001,61.2502
13:33:17.930,25.1876,58.0002
13:33:17.935,24.5626,56.6252
13:33:17.974,24.3751,55.8752
13:33:17.975,23.8751,55.4377
13:33:17.977,23.1876,55.7502
13:33:17.985,23.0626,53.6877
13:33:17.985,22.0626,53.1877
13:33:17.996,21.3751,51.0002
13:33:18.002,19.7501,50.5627
13:33:18.022,18.8126,47.1252
13:33:18.024,17.5001,45.1877
13:33:18.032,15.5001,42.0002
13:33:18.043,13.3126,37.0626
13:33:18.052,10.6875,33.1251
13:33:18.062,8.375,28.4376
13:33:18.072,5.5,23.2501
13:33:18.082,2.6875,19.1251
13:33:18.092,0.375,14.1876
13:33:18.108,-1.8125,9.875
13:33:18.112,-3.3125,6.1875
13:33:18.122,-4.9375,2.4375
13:33:18.132,-6.4375,-0.0625
13:33:18.141,-8.75,-3
13:33:18.152,-9.5,-7.625
13:33:18.162,-11.9375,-9.8125
13:33:18.172,-13.2501,-13
13:33:18.183,-14.2501,-16.1876
13:33:18.191,-15.6251,-20.1251
13:33:18.201,-17.1876,-23.1251
13:33:18.213,-18.1876,-25.1251
13:33:18.223,-19.4376,-28.3751
13:33:18.232,-21.4376,-31.3751
13:33:18.242,-22.1251,-33.6876
13:33:18.252,-24.3126,-36.4376
13:33:18.261,-26.0001,-38.7501
13:33:18.272,-26.6251,-43.4377
13:33:18.282,-28.6251,-45.6877
13:33:18.291,-30.3126,-48.4377
13:33:18.303,-31.1251,-51.0002
13:33:18.312,-32.3751,-53.0627
13:33:18.322,-33.6251,-56.9377
13:33:18.332,-34.1876,-58.0002
13:33:18.341,-35.0001,-62.0002
13:33:18.352,-35.8751,-63.0627
13:33:18.361,-38.2501,-64.6252
13:33:18.372,-39.2502,-69.2503
13:33:18.382,-40.0002,-71.5003
13:33:18.393,-42.1252,-74.5628
13:33:18.403,-43.6877,-77.0003
13:33:18.412,-45.4377,-80.3753
13:33:18.422,-46.5002,-84.2503
13:33:18.432,-47.9377,-85.9378
13:33:18.441,-48.6252,-87.0003
13:33:18.452,-48.4377,-89.3753
13:33:18.462,-46.3127,-85.5628
13:33:18.473,-39.8127,-77.7503
13:33:18.483,-29.5626,-62.0627
13:33:18.492,-18.9376,-43.1877
13:33:18.502,-6,-21.2501
13:33:18.513,5.4375,0.4375
13:33:18.522,17.3126,20.1876
13:33:18.570,25.9376,38.2501
13:33:18.571,33.0626,51.2502
13:33:18.616,37.8126,63.8752
13:33:18.616,42.2502,73.1253
13:33:18.616,44.5627,77.8753
13:33:18.617,46.2502,83.1878
13:33:18.621,46.8127,85.1878
13:33:18.650,47.8752,88.6253
13:33:18.654,48.8752,90.1879
13:33:18.654,50.1877,93.2504
13:33:18.656,51.2502,97.0004
13:33:18.659,53.2502,99.5629
13:33:18.681,54.8127,103.8754
13:33:18.683,55.7502,105.1254
13:33:18.685,55.9377,106.5629
13:33:18.689,54.1877,105.3129
13:33:18.697,51.9377,102.5004
13:33:18.716,49.1252,100.3129
13:33:18.718,47.0627,95.3754
13:33:18.726,44.7502,92.0004
13:33:18.737,42.4377,86.9378
13:33:18.746,41.3127,84.9378
13:33:18.757,40.1252,82.5003
13:33:18.772,39.0626,80.5628
13:33:18.788,39.1251,79.4378
13:33:18.790,37.8751,78.4378
13:33:18.799,36.8126,77.0003
13:33:18.806,35.5626,73.6253
13:33:18.816,33.6876,71.3128
13:33:18.826,32.2501,67.6878
13:33:18.837,30.0001,64.0627
13:33:18.846,28.2501,59.7502
13:33:18.858,25.1876,55.4377
13:33:18.867,23.1251,51.0627
13:33:18.876,19.9376,46.3752
13:33:18.887,17.2501,40.9377
13:33:18.897,14.8126,35.6876
13:33:18.906,11.625,30.9376
13:33:18.917,9.4375,25.8751
13:33:18.927,7.25,21.0626
13:33:18.937,4.9375,16.8751
13:33:18.946,3.0625,12.5625
13:33:18.958,0.4375,9.375
13:33:18.967,-1.4375,5.75
13:33:18.977,-3.0625,1.625
13:33:18.988,-5.125,-2.25
13:33:18.997,-7,-7.25
13:33:19.006,-9.1875,-10.3125
13:33:19.016,-10.625,-14.5001
13:33:19.027,-12.8125,-18.4376
13:33:19.037,-15.0001,-21.6876
13:33:19.047,-16.6251,-26.1876
13:33:19.056,-17.9376,-29.1251
13:33:19.067,-19.4376,-32.5626
13:33:19.077,-21.5626,-36.3126
13:33:19.087,-23.0001,-39.3752
13:33:19.096,-24.5626,-42.2502
13:33:19.106,-26.2501,-45.9377
13:33:19.117,-28.0626,-49.0002
13:33:19.128,-28.9376,-53.0002
13:33:19.138,-30.6251,-55.0627
13:33:19.146,-32.1251,-58.8127
13:33:19.158,-33.2501,-61.7502
13:33:19.167,-35.1251,-63.6877
13:33:19.177,-36.3751,-68.4378
13:33:19.188,-37.5001,-70.8128
13:33:19.196,-38.9376,-73.1878
13:33:19.207,-40.3752,-76.8128
13:33:19.216,-41.4377,-79.3753
13:33:19.230,-44.0627,-82.2503
13:33:19.237,-45.3752,-87.1253
13:33:19.248,-47.5002,-88.7503
13:33:19.256,-48.6877,-92.5004
13:33:19.267,-49.4377,-95.9379
13:33:19.277,-50.8752,-98.1879
13:33:19.287,-49.8127,-97.9379
13:33:19.296,-45.9377,-91.9379
13:33:19.307,-37.8751,-82.0003
13:33:19.323,-27.1251,-63.6877
13:33:19.327,-14.5626,-44.5002
13:33:19.366,-3.0625,-22.0626
13:33:19.367,8.9375,-2.8125
13:33:19.370,18.8126,16.8751
13:33:19.373,26.8126,33.5626
13:33:19.379,33.1251,44.9377
13:33:19.407,37.5001,54.8127
13:33:19.409,39.9377,61.3752
13:33:19.411,41.6877,65.0627
13:33:19.437,42.1877,69.3753
13:33:19.439,42.5627,69.5003
13:33:19.442,43.2502,72.5628
13:33:19.448,43.1877,75.3128
13:33:19.456,44.8752,75.6253
13:33:19.484,46.1252,79.8753
13:33:19.487,47.0627,82.4378
13:33:19.489,49.1877,84.2503
13:33:19.497,48.6252,84.7503
13:33:19.507,47.6877,83.8128
13:33:19.517,45.6877,83.0003
13:33:19.527,43.6252,78.1253
13:33:19.537,41.3127,74.5628
13:33:19.547,39.2502,71.4378
13:33:19.556,36.8751,67.6878
13:33:19.567,35.8126,66.6253
13:33:19.577,35.3751,63.5627
13:33:19.586,33.8751,61.5002
13:33:19.598,33.9376,60.4377
13:33:19.613,32.3751,58.8752
13:33:19.617,32.5626,58.8127
13:33:19.627,31.3126,56.8752
13:33:19.636,29.8751,54.5002
13:33:19.646,28.8751,52.8752
13:33:19.656,27.3126,49.7502
13:33:19.667,24.8126,46.5002
13:33:19.676,23.5626,41.5627
13:33:19.686,19.7501,36.6876
13:33:19.697,17.3126,32.5626
13:33:19.707,14.6251,26.5626
13:33:19.717,12.125,21.7501
13:33:19.726,9.6875,17.2501
13:33:19.736,6.75,13.125
13:33:19.747,4.625,8.8125
13:33:19.757,3.125,4.6875
13:33:19.767,1.1875,1.875
13:33:19.777,-0.3125,-2.125
13:33:19.786,-1.9375,-5.8125
13:33:19.797,-3.625,-8.125
13:33:19.807,-5.0625,-12.875
13:33:19.817,-7.625,-16.1251
13:33:19.827,-8.5625,-19.4376
13:33:19.837,-10.625,-21.8126
13:33:19.846,-12.0625,-25.2501
13:33:19.857,-13.8751,-28.8751
13:33:19.867,-15.0001,-30.9376
13:33:19.884,-16.7501,-34.6251
13:33:19.889,-18.5001,-38.0626
13:33:19.905,-19.4376,-39.8752
13:33:19.907,-21.0001,-42.7502
13:33:19.917,-22.1251,-45.2502
13:33:19.927,-23.6251,-48.4377
13:33:19.960,-25.3126,-50.0627
13:33:19.962,-26.1876,-53.8752
13:33:19.966,-27.8751,-56.3127
13:33:19.967,-29.0001,-59.1252
13:33:19.977,-29.9376,-61.1252
13:33:19.989,-30.5626,-63.1252
13:33:19.998,-31.8751,-65.1877
13:33:20.024,-33.1251,-68.5003
13:33:20.027,-34.0626,-69.3128
13:33:20.029,-35.6251,-73.3753
13:33:20.099,-37.1251,-75.1253
13:33:20.131,-38.1251,-78.6253
13:33:20.164,-39.4377,-80.5003
13:33:20.167,-41.3752,-83.4378
13:33:20.169,-42.6252,-86.3128
13:33:20.171,-44.9377,-89.1878
13:33:20.171,-45.6252,-92.7504
13:33:20.182,-47.2502,-94.0629
13:33:20.187,-48.3752,-96.4379
13:33:20.197,-47.6252,-96.3754
13:33:20.207,-44.5002,-93.1879
13:33:20.216,-36.9376,-82.8128
13:33:20.227,-27.7501,-68.0003
13:33:20.238,-15.2501,-48.2502
13:33:20.247,-3.3125,-26.9376
13:33:20.257,8.625,-6.8125
13:33:20.266,23.3126,21.3751
13:33:20.276,31.3751,37.3751
13:33:20.287,36.9376,49.0627
13:33:20.297,41.8127,58.1877
13:33:20.307,44.0002,65.0002
13:33:20.317,45.9377,68.6253
13:33:20.326,45.8752,70.9378
13:33:20.336,56.4377,93.4379
13:33:20.347,56.1252,92.3129
13:33:20.363,53.3127,89.8128
13:33:20.368,51.1877,86.1253
13:33:20.377,47.8752,83.8128
13:33:20.386,45.9377,78.7503
13:33:20.397,45.3127,76.5003
13:33:20.407,43.7502,76.1878
13:33:20.418,43.0002,72.6878
13:33:20.426,42.8752,72.8753
13:33:20.437,42.8752,71.2503
13:33:20.447,42.6252,70.9378
13:33:20.456,42.0002,70.0003
13:33:20.466,40.5002,67.9378
13:33:20.477,39.5002,66.0003
13:33:20.487,37.3751,63.1252
13:33:20.497,36.3126,59.8127
13:33:20.508,33.0626,56.3752
13:33:20.517,30.5626,51.8127
13:33:20.527,29.0001,47.5002
13:33:20.540,25.6876,41.8752
13:33:20.548,23.5626,37.5001
13:33:20.557,20.7501,32.6251
13:33:20.566,17.0001,27.6876
13:33:20.577,14.8751,23.2501
13:33:20.586,12.25,18.9376
13:33:20.597,10.375,14.9376
13:33:20.606,8.5625,10.5625
13:33:20.616,7.3125,6.8125
13:33:20.627,4.5625,3.75
13:33:20.637,3.5,-0.375
13:33:20.647,1.0625,-3.75
13:33:20.656,-0.25,-6.5
13:33:20.667,-2.5,-10.4375
13:33:20.677,-3.875,-14.0626
13:33:20.687,-5.5,-17.8126
13:33:20.696,-7.75,-20.8126
13:33:20.707,-9.9375,-25.0001
13:33:20.718,-12.6875,-28.9376
13:33:20.747,-13.8751,-31.3126
13:33:20.749,-15.6251,-36.1876
13:33:20.752,-17.1876,-38.6876
13:33:20.757,-19.4376,-42.4377
13:33:20.798,-20.6251,-45.6252
13:33:20.799,-21.8751,-48.9377
13:33:20.802,-24.5001,-52.3127
13:33:20.805,-25.8751,-55.3127
13:33:20.810,-27.8126,-58.5002
13:33:20.834,-28.7501,-61.7502
13:33:20.837,-31.0001,-64.8127
13:33:20.839,-32.1251,-67.9378
13:33:20.871,-32.7501,-70.1253
13:33:20.873,-35.3751,-72.5628
13:33:20.877,-36.1251,-76.1878
13:33:20.883,-37.7501,-78.5003
13:33:20.892,-39.4377,-82.0003
13:33:20.897,-40.6252,-85.0003
13:33:20.909,-43.1252,-88.3128
13:33:20.918,-44.6877,-91.5629
13:33:20.927,-45.6877,-94.5004
13:33:20.937,-48.1252,-97.3129
13:33:20.947,-49.1252,-100.5004
13:33:20.957,-49.9377,-101.3129
13:33:20.967,-48.2502,-101.0004
13:33:20.977,-43.3752,-94.4379
13:33:20.987,-33.8126,-80.8753
13:33:20.997,-22.6251,-62.9377
13:33:21.006,-10.0625,-40.6877
13:33:21.017,2.5625,-19.4376
13:33:21.026,14.8126,2.5625
13:33:21.037,24.8751,20.3126
13:33:21.046,33.4376,36.1876
13:33:21.057,38.3126,49.7502
13:33:21.067,42.8127,57.0002
13:33:21.077,46.0627,64.8127
13:33:21.087,48.4377,69.1253
13:33:21.097,49.4377,72.9378
13:33:21.107,50.1252,75.1878
13:33:21.117,51.1252,77.8753
13:33:21.127,51.9377,79.8753
13:33:21.137,52.8752,83.5003
13:33:21.148,55.1252,86.8128
13:33:21.158,56.0627,90.3128
13:33:21.166,58.2502,92.5629
13:33:21.177,58.1877,95.5004
13:33:21.192,58.1877,94.3129
13:33:21.206,56.0627,92.8754
13:33:21.209,54.3752,89.9378
13:33:21.238,51.3127,86.2503
13:33:21.242,49.6877,83.3128
13:33:21.249,47.5002,79.0628
13:33:21.252,46.3127,76.6253
13:33:21.257,44.9377,74.3128
13:33:21.266,43.7502,72.6878
13:33:21.282,43.5002,71.5003
13:33:21.288,41.9377,70.1878
13:33:21.298,41.8127,69.1253
13:33:21.307,40.2502,66.5003
13:33:21.317,39.5627,65.2503
13:33:21.327,38.2501,63.0002
13:33:21.337,36.0626,60.2502
13:33:21.346,34.6251,56.6877
13:33:21.357,31.6251,51.6252
13:33:21.367,29.7501,47.7502
13:33:21.377,26.8751,43.3752
13:33:21.388,24.6876,37.7501
13:33:21.398,21.8126,33.6251
13:33:21.416,18.6876,29.6251
13:33:21.418,16.8751,25.0001
13:33:21.433,14.2501,21.6251
13:33:21.449,12.5,16.5626
13:33:21.451,10.625,13.1876
13:33:21.456,8.75,9.25
13:33:21.468,7,5.8125
13:33:21.477,5.25,1.6875
13:33:21.486,2.375,-1.75
13:33:21.496,1.5,-5.1875
13:33:21.529,-1.6875,-9.3125
13:33:21.531,-4.0625,-12
13:33:21.533,-5.4375,-16.7501
13:33:21.539,-7.625,-20.1251
13:33:21.578,-8.8125,-23.6876
13:33:21.580,-10.5625,-26.3751
13:33:21.585,-11.5625,-29.8751
13:33:21.588,-12.6875,-32.3126
13:33:21.590,-15.1251,-35.5626
13:33:21.622,-16.5001,-38.0626
13:33:21.623,-18.0001,-40.9377
13:33:21.625,-19.5001,-45.1252
13:33:21.628,-20.3126,-46.9377
13:33:21.669,-22.2501,-50.0002
13:33:21.672,-24.1251,-53.5002
13:33:21.677,-25.6251,-56.6877
13:33:21.684,-27.6251,-60.3127
13:33:21.692,-28.8126,-63.3127
13:33:21.693,-31.0626,-67.1253
13:33:21.698,-32.6876,-70.6878
13:33:21.706,-35.4376,-74.0628
13:33:21.717,-36.7501,-77.5628
13:33:21.727,-38.2501,-79.1878
13:33:21.736,-37.5001,-81.0628
13:33:21.748,-35.5001,-77.9378
13:33:21.757,-30.4376,-72.5628
13:33:21.767,-23.0001,-59.3752
13:33:21.777,-13.5001,-46.0627
13:33:21.788,-3.875,-30.0001
13:33:21.797,5,-12.0625
13:33:21.807,13.4376,0.625
13:33:21.818,19.8751,15.2501
13:33:21.827,25.3751,24.0626
13:33:21.838,28.4376,33.0626
13:33:21.846,31.3751,36.6876
13:33:21.857,33.5001,41.2502
13:33:21.867,33.5626,44.1252
13:33:21.877,33.6251,44.4377
13:33:21.887,33.9376,45.7502
13:33:21.897,34.0001,46.5002
13:33:21.908,34.9376,48.5627
13:33:21.917,35.1251,50.1877
13:33:21.927,36.0001,51.2502
13:33:21.937,36.0001,54.0627
13:33:21.947,36.3126,52.1877
13:33:21.957,34.8126,51.5627
13:33:21.967,32.8751,49.4377
13:33:21.976,30.8751,46.3752
13:33:21.987,29.5626,42.5002
13:33:21.997,27.0626,39.7502
13:33:22.007,26.5626,38.0001
13:33:22.017,25.8126,36.4376
13:33:22.028,24.9376,36.3126
13:33:22.037,25.2501,34.2501
13:33:22.047,24.4376,33.9376
13:33:22.058,25.0626,34.2501
13:33:22.067,23.8751,33.0001
13:33:22.077,23.3126,31.4376
13:33:22.086,21.8126,30.1251
13:33:22.097,20.6251,28.0001
13:33:22.108,18.8126,24.6251
13:33:22.117,16.6251,21.3126
13:33:22.127,14.0001,16.8751
13:33:22.138,11.25,13.3751
13:33:22.147,9.125,9.8125
13:33:22.173,7.5,4.6875
13:33:22.176,5.6875,1.5625
13:33:22.178,3.75,-2.375
13:33:22.207,1.3125,-6
13:33:22.209,-0.125,-9.125
13:33:22.212,-1.9375,-12.5625
13:33:22.218,-4,-15.6251
13:33:22.250,-5.5,-17.7501
13:33:22.253,-6.9375,-22.0001
13:33:22.256,-8.3125,-24.1251
13:33:22.288,-9.75,-27.6876
13:33:22.288,-10.875,-29.5626
13:33:22.293,-12.5,-32.0626
13:33:22.297,-14.2501,-36.2501
13:33:22.299,-16.3751,-38.4376
13:33:22.307,-18.0001,-41.8127
13:33:22.337,-19.7501,-45.0002
13:33:22.340,-21.1251,-48.0627
13:33:22.342,-21.5001,-51.1252
13:33:22.348,-23.8751,-53.5002
13:33:22.358,-25.1876,-56.0002
13:33:22.368,-26.5626,-58.2502
13:33:22.378,-27.5626,-59.8127
13:33:22.386,-28.5001,-63.2502
13:33:22.398,-28.8751,-65.0627
13:33:22.408,-31.1251,-67.6253
13:33:22.420,-31.3751,-70.3753
13:33:22.428,-33.9376,-72.4378
13:33:22.443,-35.2501,-76.5003
13:33:22.448,-35.9376,-78.8128
13:33:22.457,-38.1876,-81.5628
13:33:22.467,-39.6877,-84.0003
13:33:22.478,-42.0002,-89.3753
13:33:22.494,-43.3127,-90.6879
13:33:22.520,-45.5002,-95.0629
13:33:22.523,-45.9377,-95.5004
13:33:22.528,-44.3752,-93.9379
13:33:22.529,-40.8752,-90.1253
13:33:22.540,-33.5001,-80.1253
13:33:22.550,-24.5626,-65.1878
13:33:22.558,-14.7501,-50.5002
13:33:22.568,-5.3125,-34.2501
13:33:22.577,1.875,-19.4376
13:33:22.587,9.875,-8
13:33:22.598,15.5626,2.5
13:33:22.606,18.4376,10.5
13:33:22.617,20.7501,14.7501
13:33:22.626,21.8751,18.8751
13:33:22.637,22.3751,19.8751
13:33:22.648,23.1251,22.7501
13:33:22.657,23.7501,23.6876
13:33:22.669,24.5001,25.6251
13:33:22.676,25.0626,27.8751
13:33:22.688,27.6251,31.1876
13:33:22.697,28.6876,34.8751
13:33:22.718,30.5626,36.8751
13:33:22.720,32.0626,40.1877
13:33:22.734,31.3751,40.8127
13:33:22.738,31.5626,40.8127
13:33:22.747,29.6251,38.3751
13:33:22.756,28.1876,35.9376
13:33:22.767,26.3751,33.3126
13:33:22.778,25.3126,30.6251
13:33:22.788,23.9376,28.3751
13:33:22.798,23.4376,27.2501
13:33:22.810,21.8126,26.8751
13:33:22.820,22.1876,25.4376
13:33:22.828,21.0001,25.4376
13:33:22.838,21.6876,24.5001
13:33:22.847,20.7501,24.1876
13:33:22.858,20.6876,23.5626
13:33:22.866,19.6876,22.0001
13:33:22.880,18.2501,20.3751
13:33:22.887,17.0626,17.5001
13:33:22.898,15.5001,14.4376
13:33:22.909,13.3751,11.4375
13:33:22.917,12.4375,9.375
13:33:22.928,9.6875,6
13:33:22.938,8.0625,2.125
13:33:22.948,6.0625,-0.9375
13:33:22.977,4.8125,-3.5
13:33:22.979,2.5,-5.9375
13:33:22.982,1.125,-9.375
13:33:22.988,-0.5625,-12.1875
13:33:23.020,-1.3125,-15.1251
13:33:23.023,-2.8125,-18.0001
13:33:23.027,-4.1875,-19.9376
13:33:23.029,-5.9375,-23.1876
13:33:23.057,-7.5625,-25.6876
13:33:23.060,-8.4375,-28.3126
13:33:23.063,-9.875,-30.5001
13:33:23.068,-11.875,-33.1251
13:33:23.100,-12.375,-35.5001
13:33:23.103,-13.7501,-37.6876
13:33:23.104,-15.5626,-40.0627
13:33:23.108,-16.8751,-43.0627
13:33:23.139,-17.9376,-45.2502
13:33:23.141,-19.0001,-47.1252
13:33:23.143,-20.1251,-50.1877
13:33:23.149,-20.8126,-51.2502
13:33:23.158,-22.2501,-52.0627
13:33:23.168,-23.0626,-55.3752
13:33:23.176,-24.2501,-57.0002
13:33:23.193,-25.8751,-59.7502
13:33:23.198,-26.9376,-62.1877
13:33:23.208,-28.0626,-63.8127
13:33:23.218,-29.0001,-66.8753
13:33:23.229,-29.7501,-68.3753
13:33:23.238,-31.7501,-71.4378
13:33:23.249,-33.8751,-74.2503
13:33:23.258,-34.4376,-77.0628
13:33:23.268,-35.1876,-79.2503
13:33:23.279,-37.1251,-80.8128
13:33:23.288,-38.1876,-83.5003
13:33:23.298,-37.6876,-84.4378
13:33:23.308,-37.9376,-83.1878
13:33:23.319,-34.1876,-80.3753
13:33:23.330,-28.3751,-71.3128
13:33:23.338,-20.1251,-58.7502
13:33:23.348,-12.75,-44.9377
13:33:23.358,-4.0625,-31.6876
13:33:23.368,3.0625,-18.1876
13:33:23.378,8.75,-8.9375
13:33:23.388,13.7501,0.625
13:33:23.398,15.4376,7.25
13:33:23.408,17.1876,9.625
13:33:23.420,17.4376,11.375
13:33:23.427,15.4376,10.5
13:33:23.438,15.5626,10.0625
13:33:23.448,13.5001,10.6875
13:33:23.458,13.7501,10.9375
13:33:23.468,13.3126,12.5
13:33:23.478,13.3751,13.5001
13:33:23.489,13.3126,15.1251
13:33:23.498,10.75,16.0001
13:33:23.508,5,12.625
13:33:23.518,-6.75,6.3125
13:33:23.528,-19.4376,-4.9375
13:33:23.538,-31.8751,-15.0001
13:33:23.549,-40.8752,-23.4376
13:33:23.558,-52.0002,-31.1876
13:33:23.568,-61.6877,-40.6252
13:33:23.578,-70.3128,-46.3752
13:33:23.588,-74.6878,-49.8752
13:33:23.598,-82.9378,-56.7502
13:33:23.608,-87.4378,-60.3127
13:33:23.618,-82.8753,-57.1252
13:33:23.628,-75.9378,-51.9377
13:33:23.644,-70.8753,-48.5627
13:33:23.648,-73.1253,-49.0002
13:33:23.688,-74.4378,-50.3752
13:33:23.690,-73.1253,-49.2502
13:33:23.696,-72.9378,-48.4377
13:33:23.696,-73.8128,-51.8127
13:33:23.727,-75.5628,-53.8127
13:33:23.729,-78.7503,-56.6252
13:33:23.732,-80.5628,-60.4377
13:33:23.737,-83.6253,-62.8127
13:33:23.738,-84.0003,-65.3753
13:33:23.774,-83.5628,-65.1878
13:33:23.776,-83.8128,-64.6877
13:33:23.807,-86.0003,-69.2503
13:33:23.809,-85.6878,-69.4378
13:33:23.812,-82.8753,-69.6253
13:33:23.820,-74.6253,-65.8128
13:33:23.822,-72.8128,-65.1878
13:33:23.822,-69.5628,-65.6253
13:33:23.830,-66.8753,-65.7503
13:33:23.838,-64.0627,-67.0628
13:33:23.848,-63.0627,-71.0628
13:33:23.858,-63.7502,-77.4378
13:33:23.869,-64.1877,-84.8753
13:33:23.878,-61.1252,-82.1253
13:33:23.888,-58.9377,-77.7503
13:33:23.898,-56.0002,-76.3128
13:33:23.908,-56.1252,-75.3753
13:33:23.918,-57.0627,-78.9378
13:33:23.929,-57.5002,-80.4378
13:33:23.940,-59.5002,-85.2503
13:33:23.950,-60.5627,-88.3753
13:33:23.958,-60.8127,-91.4379
13:33:23.968,-62.0002,-94.1879
13:33:23.978,-62.6877,-98.2504
13:33:23.988,-64.1877,-101.8754
13:33:23.998,-66.3753,-106.7504
13:33:24.013,-68.5003,-111.4379
13:33:24.029,-69.3128,-115.8754
13:33:24.032,-69.5003,-117.813
13:33:24.038,-71.2503,-119.3755
13:33:24.048,-71.8128,-124.188
13:33:24.058,-73.0003,-126.938
13:33:24.068,-74.0003,-128.813
13:33:24.078,-74.9378,-132.2505
13:33:24.088,-74.8128,-133.313
13:33:24.098,-75.0003,-134.563
13:33:24.113,-77.5628,-137.563
13:33:24.123,-78.7503,-139.7505
13:33:24.133,-79.5628,-139.688
13:33:24.143,-78.3128,-138.7505
13:33:24.153,-75.0628,-132.438
13:33:24.163,-69.1878,-123.688
13:33:24.173,-62.1252,-111.1254
13:33:24.183,-54.8752,-99.1879
13:33:24.193,-48.1877,-86.4378
13:33:24.203,-43.1877,-76.6878
13:33:24.213,-38.5001,-67.0003
13:33:24.223,-35.7501,-59.5002
13:33:24.235,-34.1251,-54.8752
13:33:24.243,-32.3751,-50.9377
13:33:24.253,-33.5001,-49.0002
13:33:24.263,-33.1251,-48.7502
13:33:24.273,-34.3126,-46.8752
13:33:24.283,-32.8751,-45.0002
13:33:24.294,-30.7501,-40.9377
13:33:24.303,-29.8751,-37.8751
13:33:24.319,-27.2501,-34.7501
13:33:24.324,-25.5626,-29.3751
13:33:24.333,-23.8751,-27.8126
13:33:24.365,-23.3126,-24.6876
13:33:24.368,-22.8126,-24.9376
13:33:24.370,-22.6876,-24.9376
13:33:24.373,-24.6251,-26.1876
13:33:24.413,-25.7501,-28.5626
13:33:24.414,-26.2501,-29.9376
13:33:24.417,-26.6251,-29.6876
13:33:24.420,-25.8751,-32.6251
13:33:24.424,-25.0626,-31.8751
13:33:24.453,-25.3751,-31.5626
13:33:24.455,-24.0001,-31.5626
13:33:24.457,-23.3751,-30.2501
13:33:24.483,-22.3751,-30.6251
13:33:24.486,-22.1876,-30.1876
13:33:24.488,-22.7501,-29.1876
13:33:24.495,-21.7501,-31.2501
13:33:24.508,-22.8126,-30.7501
13:33:24.513,-22.8751,-32.6251
13:33:24.527,-23.3126,-33.1251
13:33:24.533,-23.5626,-35.5626
13:33:24.543,-23.3751,-36.2501
13:33:24.553,-24.5626,-37.6251
13:33:24.563,-24.5626,-39.6252
13:33:24.573,-25.0001,-40.3752
13:33:24.583,-25.4376,-43.1252
13:33:24.593,-26.0626,-44.0627
13:33:24.603,-27.3126,-45.1877
13:33:24.613,-27.5626,-47.6877
13:33:24.623,-28.3126,-48.6877
13:33:24.633,-26.6251,-49.5002
13:33:24.644,-27.3751,-48.9377
13:33:24.655,-27.6876,-52.5627
13:33:24.663,-27.8751,-52.4377
13:33:24.673,-29.2501,-54.8752
13:33:24.683,-29.4376,-56.0627
13:33:24.694,-30.3751,-57.3127
13:33:24.703,-31.0626,-59.8752
13:33:24.713,-31.8126,-61.0627
13:33:24.723,-33.3126,-64.2502
13:33:24.735,-33.3126,-65.1253
13:33:24.743,-35.0001,-65.5628
13:33:24.754,-35.0626,-68.1878
13:33:24.763,-34.8751,-69.1253
13:33:24.773,-36.5001,-70.1253
13:33:24.783,-38.2501,-73.1253
13:33:24.793,-39.5627,-74.9378
13:33:24.803,-41.8127,-78.0003
13:33:24.813,-43.1877,-79.7503
13:33:24.823,-45.1877,-81.0003
13:33:24.833,-46.6877,-84.4378
13:33:24.843,-49.6252,-84.8128
13:33:24.853,-51.6877,-88.2503
13:33:24.863,-54.0627,-89.0628
13:33:24.873,-54.8752,-92.3129
13:33:24.883,-56.6252,-91.6254
13:33:24.893,-57.0627,-95.4379
13:33:24.903,-59.1252,-95.6254
13:33:24.913,-60.3127,-99.8129
13:33:24.923,-63.0627,-100.3129
13:33:24.933,-64.3127,-103.5629
13:33:24.943,-65.3753,-105.1254
13:33:24.953,-66.8753,-106.9379
13:33:24.963,-66.8128,-108.6879
13:33:24.973,-68.3753,-109.7504
13:33:24.984,-66.8753,-109.9379
13:33:24.993,-66.1878,-108.6254
13:33:25.003,-61.9377,-103.8754
13:33:25.013,-56.1252,-94.3129
13:33:25.023,-47.4377,-82.9378
13:33:25.033,-40.0002,-68.3753
13:33:25.043,-31.8126,-56.8127
13:33:25.053,-22.8126,-43.3127
13:33:25.107,-17.6876,-32.6251
13:33:25.109,-12.8125,-25.6876
13:33:25.111,-10.25,-20.0001
13:33:25.118,-7,-14.8751
13:33:25.118,-5.4375,-12.25
13:33:25.118,-4.625,-10.6875
13:33:25.126,-4.75,-8.875
13:33:25.135,-3.25,-8.75
13:33:25.144,-1.25,-6.5625
13:33:25.176,-0.6875,-4.75
13:33:25.178,1.8125,-2.625
13:33:25.180,2.1875,0.125
13:33:25.183,4.5625,2.125
13:33:25.220,6,5
13:33:25.221,6.875,4.625
13:33:25.225,6.625,5.5
13:33:25.225,5.5625,3.5
13:33:25.256,6.125,2.8125
13:33:25.257,6.1875,2.1875
13:33:25.259,6.0625,1.375
13:33:25.265,6.9375,2.0625
13:33:25.297,7.6875,2.0625
13:33:25.330,9.6875,4.875
13:33:25.332,11.9375,7.0625
13:33:25.334,13.2501,6.875
13:33:25.334,15.1876,9.0625
13:33:25.334,14.6251,9.125
13:33:25.338,16.3751,9.9375
13:33:25.348,17.5001,9.1875
13:33:25.358,18.1251,9.375
13:33:25.368,19.2501,10.4375
13:33:25.378,18.9376,8.5
13:33:25.388,19.8126,8.875
13:33:25.398,20.3751,7.5625
13:33:25.408,21.0626,6.75
13:33:25.418,21.0001,6.0625
13:33:25.428,20.8751,4.375
13:33:25.438,19.8751,3.3125
13:33:25.449,20.9376,2.875
13:33:25.459,21.4376,2.3125
13:33:25.473,21.3751,1.0625
13:33:25.478,20.7501,-0.4375
13:33:25.488,20.1876,-1.75
13:33:25.498,19.0001,-3.75
13:33:25.508,18.1876,-7.1875
13:33:25.518,16.0001,-9.375
13:33:25.528,13.2501,-12.6875
13:33:25.538,10.6875,-15.3751
13:33:25.548,9,-17.9376
13:33:25.558,5.5625,-21.2501
13:33:25.568,1.625,-25.1876
13:33:25.578,-1.9375,-29.4376
13:33:25.588,-5.6875,-32.5001
13:33:25.598,-10.125,-37.5001
13:33:25.608,-13,-40.6877
13:33:25.618,-17.1251,-44.8752
13:33:25.628,-20.6876,-47.8752
13:33:25.638,-23.3751,-52.5627
13:33:25.648,-26.6876,-55.5002
13:33:25.658,-30.0001,-59.5002
13:33:25.668,-32.0626,-62.1877
13:33:25.678,-34.0001,-64.8752
13:33:25.691,-35.7501,-66.7503
13:33:25.699,-37.7501,-68.9378
13:33:25.708,-39.7502,-71.7503
13:33:25.718,-41.5002,-73.8753
13:33:25.728,-43.0627,-76.4378
13:33:25.738,-43.5627,-78.3753
13:33:25.748,-44.9377,-79.8753
13:33:25.758,-46.2502,-82.5003
13:33:25.768,-47.5002,-84.1878
13:33:25.779,-48.3127,-86.6253
13:33:25.788,-48.1252,-86.6253
13:33:25.798,-49.0002,-87.6253
13:33:25.808,-48.0002,-87.5003
13:33:25.822,-45.1877,-84.0628
13:33:25.829,-40.0627,-76.4378
13:33:25.838,-32.9376,-65.0627
13:33:25.856,-24.4376,-52.1877
13:33:25.859,-15.6251,-39.6252
13:33:25.889,-9.0625,-26.9376
13:33:25.891,-2.6875,-17.5626
13:33:25.893,2.0625,-8.8125
13:33:25.900,4.5,-2.625
13:33:25.927,6.75,0.5625
13:33:25.929,8.25,3.375
13:33:25.931,9.1875,4.5
13:33:25.964,10.5,6.0625
13:33:25.969,10.875,7.75
13:33:25.969,11,8.5625
13:33:25.973,12.4375,10.375
13:33:25.979,12.875,12.25
13:33:26.013,14.4376,15.1876
13:33:26.015,15.8126,18.1876
13:33:26.018,17.4376,19.5001
13:33:26.020,17.1251,21.3126
13:33:26.034,18.2501,22.1876
13:33:26.040,17.2501,21.6251
13:33:26.048,16.0626,20.2501
13:33:26.058,15.5001,17.6876
13:33:26.068,14.5001,16.4376
13:33:26.078,13.1876,14.3126
13:33:26.088,11.5625,12.9375
13:33:26.098,10.6875,12.125
13:33:26.108,10.0625,10.5625
13:33:26.118,8.5625,11.0625
13:33:26.128,7.8125,10.125
13:33:26.139,6.6875,8.625
13:33:26.148,5.625,7.75
13:33:26.158,5,6.3125
13:33:26.169,3.8125,5.3125
13:33:26.178,0.3125,3.0625
13:33:26.190,-1,0.8125
13:33:26.198,-5.375,-1.5625
13:33:26.208,-7,-4.625
13:33:26.218,-9.5625,-6.9375
13:33:26.229,-11.5625,-9.0625
13:33:26.238,-12.1875,-10.5
13:33:26.248,-12.625,-11.3125
13:33:26.258,-14.6876,-15.0001
13:33:26.268,-15.7501,-16.8751
13:33:26.278,-16.1251,-18.5001
13:33:26.289,-16.6876,-20.0626
13:33:26.298,-17.8751,-21.3126
13:33:26.309,-19.0001,-23.8126
13:33:26.319,-20.3126,-25.0626
13:33:26.328,-22.1876,-27.2501
13:33:26.361,-22.4376,-29.6251
13:33:26.362,-23.5001,-32.8126
13:33:26.366,-23.0626,-33.2501
13:33:26.372,-23.5001,-34.5001
13:33:26.385,-22.0626,-36.2501
13:33:26.400,-22.2501,-36.5626
13:33:26.407,-23.0001,-39.0001
13:33:26.409,-22.2501,-41.6877
13:33:26.418,-22.1251,-41.9377
13:33:26.428,-21.5626,-43.1877
13:33:26.439,-21.2501,-43.8127
13:33:26.448,-21.6251,-43.9377
13:33:26.458,-21.0626,-45.6252
13:33:26.469,-20.6251,-45.8752
13:33:26.478,-20.4376,-47.6252
13:33:26.488,-19.1251,-47.8752
13:33:26.498,-17.2501,-47.0002
13:33:26.508,-15.8126,-47.6877
13:33:26.518,-14.0001,-46.7502
13:33:26.529,-12,-46.5002
13:33:26.538,-9.4375,-46.1877
13:33:26.548,-9,-45.1877
13:33:26.559,-6.9375,-45.6252
13:33:26.569,-5.375,-44.3127
13:33:26.578,-4.0625,-44.8752
13:33:26.589,-1.625,-44.3752
13:33:26.647,-0.5625,-43.6252
13:33:26.647,1.1875,-44.5627
13:33:26.649,1.9375,-43.7502
13:33:26.654,1.75,-43.3127
13:33:26.658,2.375,-43.8752
13:33:26.661,3.0625,-42.4377
13:33:26.661,4.5625,-42.9377
13:33:26.688,5.25,-41.2502
13:33:26.690,7.5,-40.5002
13:33:26.693,9.125,-36.6876
13:33:26.699,13,-31.5626
13:33:26.737,17.2501,-22.4376
13:33:26.743,23.3751,-12.5625
13:33:26.744,29.6876,-1.6875
13:33:26.745,33.5001,7.375
13:33:26.756,35.0626,12.3125
13:33:26.762,34.5626,13.6876
13:33:26.788,33.2501,14.8126
13:33:26.790,32.1876,15.0626
13:33:26.794,29.1876,13
13:33:26.799,24.3126,9.0625
13:33:26.809,19.5626,6.1875
13:33:26.818,13.9376,3
13:33:26.828,9.3125,-1.6875
13:33:26.839,4.875,-4.875
13:33:26.848,1.5,-6.6875
13:33:26.859,-1.3125,-9.3125
13:33:26.869,-2.9375,-8.375
13:33:26.878,-4.1875,-9.3125
13:33:26.889,-5.625,-10.75
13:33:26.898,-7.875,-11.75
13:33:26.909,-9.4375,-13.5001
13:33:26.920,-11.5625,-16.1251
13:33:26.930,-13.6876,-17.4376
13:33:26.939,-13.125,-18.1876
13:33:26.951,-14.5626,-19.3126
13:33:26.959,-15.4376,-20.6251
13:33:26.968,-15.4376,-20.3751
13:33:26.979,-15.6876,-20.6251
13:33:26.988,-15.5001,-19.0001
13:33:26.999,-14.3126,-18.8751
13:33:27.008,-14.3751,-18.7501
13:33:27.019,-14.4376,-17.3751
13:33:27.029,-13.4376,-17.5626
13:33:27.040,-13.2501,-18.3751
13:33:27.049,-13.6876,-19.5001
13:33:27.058,-14.6251,-21.0001
13:33:27.069,-14.9376,-21.9376
13:33:27.080,-14.3751,-23.3751
13:33:27.090,-13.3126,-22.6876
13:33:27.099,-13,-23.9376
13:33:27.108,-14.0626,-25.5626
13:33:27.119,-15.2501,-26.5626
13:33:27.128,-15.7501,-29.6251
13:33:27.140,-16.8751,-30.1251
13:33:27.150,-16.6876,-32.2501
13:33:27.164,-16.8751,-32.6876
13:33:27.169,-16.2501,-34.5001
13:33:27.178,-16.6251,-34.8751
13:33:27.189,-15.7501,-35.8126
13:33:27.199,-15.8126,-37.3126
13:33:27.208,-16.1251,-37.5626
13:33:27.218,-17.0626,-40.3127
13:33:27.228,-16.8126,-40.0627
13:33:27.239,-17.8751,-41.9377
13:33:27.249,-18.8751,-43.4377
13:33:27.258,-19.2501,-44.7502
13:33:27.268,-19.6876,-46.9377
13:33:27.298,-21.3751,-47.5002
13:33:27.301,-21.4376,-50.1877
13:33:27.303,-22.8126,-51.1252
13:33:27.310,-23.4376,-52.7502
13:33:27.348,-24.8126,-55.6877
13:33:27.349,-26.1251,-57.9377
13:33:27.353,-26.5626,-59.0627
13:33:27.356,-28.5626,-61.3127
13:33:27.360,-30.8751,-63.5002
13:33:27.376,-33.2501,-65.6878
13:33:27.379,-34.9376,-67.4378
13:33:27.414,-38.6876,-70.0003
13:33:27.416,-41.3752,-73.5003
13:33:27.418,-44.3127,-76.1253
13:33:27.425,-45.6877,-78.1878
13:33:27.440,-48.1877,-79.7503
13:33:27.442,-50.1252,-82.7503
13:33:27.455,-53.5627,-86.5628
13:33:27.458,-57.1252,-88.0003
13:33:27.468,-58.5002,-91.4379
13:33:27.479,-60.9377,-92.6879
13:33:27.489,-61.3127,-94.3129
13:33:27.498,-61.7502,-95.1879
13:33:27.509,-60.7502,-93.1879
13:33:27.519,-57.8127,-89.3753
13:33:27.530,-51.1877,-79.8753
13:33:27.541,-43.8752,-68.1878
13:33:27.549,-36.5001,-55.9377
13:33:27.559,-29.7501,-44.5002
13:33:27.568,-24.5626,-35.7501
13:33:27.579,-20.0001,-25.9376
13:33:27.589,-16.1876,-20.8126
13:33:27.598,-13.8751,-15.3751
13:33:27.609,-11.8125,-13.3126
13:33:27.641,-10.6875,-11.875
13:33:27.643,-9,-9.5
13:33:27.645,-8.75,-9.25
13:33:27.649,-6.5625,-8.1875
13:33:27.659,-4.25,-5.5
13:33:27.680,-2.1875,-5.5
13:33:27.684,0.5625,-1.9375
13:33:27.698,4.625,0.75
13:33:27.700,7.875,4.9375
13:33:27.708,11.0625,7.3125
13:33:27.719,13.6251,10.625
13:33:27.729,17.2501,12.9375
13:33:27.739,19.1876,14.9376
13:33:27.748,21.3751,14.9376
13:33:27.759,24.3126,17.0001
13:33:27.769,28.4376,18.6876
13:33:27.780,32.1876,23.4376
13:33:27.790,35.0001,28.6251
13:33:27.798,37.5626,30.5626
13:33:27.809,40.8752,35.6251
13:33:27.819,44.3752,39.2502
13:33:27.831,47.8127,41.3127
13:33:27.839,49.3752,44.3127
13:33:27.849,53.5627,46.9377
13:33:27.859,56.7502,48.8752
13:33:27.869,59.6252,51.3127
13:33:27.879,61.8127,52.1252
13:33:27.890,63.5002,52.3752
13:33:27.904,64.9377,52.0627
13:33:27.913,66.9378,52.1877
13:33:27.922,68.5003,50.1877
13:33:27.936,68.3128,50.1877
13:33:27.952,66.9378,47.4377
13:33:27.954,65.3128,44.3752
13:33:27.959,62.5627,41.3752
13:33:27.969,59.3127,37.3126
13:33:27.979,55.3752,34.4376
13:33:27.989,52.9377,32.0626
13:33:28.031,48.8752,29.6876
13:33:28.034,46.1252,26.7501
13:33:28.038,42.4377,21.8126
13:33:28.040,37.5626,17.4376
13:33:28.042,33.9376,11.75
13:33:28.066,29.3126,6.5
13:33:28.068,24.1876,0.5
13:33:28.073,19.1251,-4.5625
13:33:28.102,12.75,-10.25
13:33:28.105,6.75,-17.0626
13:33:28.107,1,-23.2501
13:33:28.112,-5,-29.0001
13:33:28.147,-11.4375,-35.2501
13:33:28.148,-17.5001,-42.6252
13:33:28.150,-22.2501,-47.7502
13:33:28.154,-27.3751,-53.4377
13:33:28.175,-32.9376,-57.6877
13:33:28.178,-36.9376,-62.2502
13:33:28.185,-39.5002,-66.6253
13:33:28.194,-42.9377,-71.0628
13:33:28.205,-46.8127,-74.2503
13:33:28.214,-49.2502,-78.0628
13:33:28.224,-49.5627,-79.6253
13:33:28.234,-50.5627,-80.2503
13:33:28.245,-50.2502,-79.5628
13:33:28.255,-50.0002,-80.5628
13:33:28.264,-49.8127,-79.8128
13:33:28.274,-49.3752,-79.7503
13:33:28.289,-48.4377,-79.6253
13:33:28.294,-48.2502,-78.0003
13:33:28.304,-49.1877,-79.6878
13:33:28.314,-49.0627,-81.0003
13:33:28.324,-50.1252,-81.5003
13:33:28.334,-50.5627,-83.8753
13:33:28.345,-52.2502,-83.6878
13:33:28.355,-52.3752,-86.1878
13:33:28.364,-54.1252,-86.6253
13:33:28.376,-54.9377,-89.6253
13:33:28.386,-56.3127,-91.0004
13:33:28.394,-55.9377,-92.2504
13:33:28.404,-54.5002,-91.5629
13:33:28.414,-52.0627,-88.8753
13:33:28.424,-46.8752,-81.9378
13:33:28.435,-40.9377,-72.1878
13:33:28.445,-33.3126,-60.2502
13:33:28.454,-25.8751,-48.5627
13:33:28.465,-19.5626,-36.1876
13:33:28.474,-13.1876,-26.2501
13:33:28.485,-8,-17.9376
13:33:28.494,-6.5,-11.1875
13:33:28.505,-5.0625,-9.3125
13:33:28.514,-5.6875,-7.875
13:33:28.526,-6.25,-8.625
13:33:28.534,-7,-7.1875
13:33:28.545,-7.3125,-8.8125
13:33:28.554,-7.625,-8
13:33:28.564,-6.875,-7.5
13:33:28.574,-4.9375,-5.4375
13:33:28.584,-5.5,-4
13:33:28.594,-4.75,-2.75
13:33:28.604,-6.375,-2.625
13:33:28.615,-5.875,-1.375
13:33:28.624,-6.375,-0.375
13:33:28.634,-8.3125,-2.375
13:33:28.645,-11.1875,-5.0625
13:33:28.654,-14.0626,-8.375
13:33:28.668,-15.8126,-10.25
13:33:28.675,-17.7501,-11.9375
13:33:28.684,-18.0626,-12.125
13:33:28.694,-18.2501,-13.8126
13:33:28.705,-16.7501,-12.375
13:33:28.715,-16.6251,-10.25
13:33:28.727,-15.1251,-10.875
13:33:28.735,-15.0001,-7.8125
13:33:28.745,-14.1876,-8.8125
13:33:28.778,-12.9375,-6.8125
13:33:28.778,-14.7501,-9.0625
13:33:28.783,-16.3751,-9.4375
13:33:28.785,-18.9376,-11.125
13:33:28.819,-19.0001,-11.25
13:33:28.821,-19.3126,-11.6875
13:33:28.823,-20.3751,-13.6251
13:33:28.826,-20.8126,-13.0625
13:33:28.871,-23.0626,-14.8126
13:33:28.871,-24.3751,-15.1251
13:33:28.873,-24.7501,-13.8751
13:33:28.879,-26.5001,-9
13:33:28.882,-30.0001,-7.5
13:33:28.887,-32.2501,-6.0625
13:33:28.919,-36.6876,-3.4375
13:33:28.922,-42.7502,-10.4375
13:33:28.924,-50.0627,-13.8751
13:33:28.926,-54.9377,-19.1876
13:33:28.936,-17.9376,0.375
13:33:28.944,-22.0626,11.375
13:33:28.954,-12.6875,21.5626
13:33:28.976,-6.4375,29.4376
13:33:28.979,-1.75,35.1251
13:33:28.988,-4.8125,35.4376
13:33:28.994,-9.9375,29.0626
13:33:29.009,-23.8751,19.0001
13:33:29.018,-37.5001,4.8125
13:33:29.024,-43.0627,-0.75
13:33:29.035,-45.8752,-6.6875
13:33:29.044,-45.0002,-7.5625
13:33:29.054,-37.7501,-2.75
13:33:29.065,-26.5001,5.25
13:33:29.074,-20.6251,10.8125
13:33:29.084,-14.6876,13.5626
13:33:29.094,-11.9375,15.1251
13:33:29.104,-9.3125,16.3751
13:33:29.114,-6.5,16.5626
13:33:29.124,-4.1875,16.2501
13:33:29.134,-1.1875,17.5001
13:33:29.144,2.3125,17.8126
13:33:29.155,5.125,19.0626
13:33:29.164,9.0625,19.3751
13:33:29.174,14.0001,19.8126
13:33:29.185,17.1251,20.7501
13:33:29.194,21.8751,23.1251
13:33:29.204,26.1876,23.5001
13:33:29.219,30.0001,24.6876
13:33:29.229,33.9376,26.5626
13:33:29.234,37.9376,28.1251
13:33:29.252,43.3127,33.7501
13:33:29.255,50.1877,41.1877
13:33:29.269,58.1252,50.8752
13:33:29.274,66.1878,61.8127
13:33:29.284,73.0003,73.7503
13:33:29.294,81.3753,84.0628
13:33:29.304,86.8128,92.3754
13:33:29.314,90.7503,99.4379
13:33:29.324,94.8129,104.6879
13:33:29.335,95.8754,106.7504
13:33:29.345,97.1254,107.5004
13:33:29.354,96.3754,107.2504
13:33:29.364,94.7504,105.1879
13:33:29.374,93.7504,103.7504
13:33:29.384,94.5004,105.5004
13:33:29.394,93.9379,105.0004
13:33:29.404,94.1879,104.8754
13:33:29.418,92.2504,103.1879
13:33:29.425,92.5004,103.4379
13:33:29.434,91.8129,104.1879
13:33:29.445,91.0629,105.0629
13:33:29.455,88.8128,101.8129
13:33:29.464,87.3128,99.0629
13:33:29.474,85.8128,97.0004
13:33:29.484,82.1253,93.1254
13:33:29.494,78.9378,90.2503
13:33:29.518,77.0628,87.5628
13:33:29.519,74.1253,83.6878
13:33:29.528,71.8128,80.5003
13:33:29.559,70.5628,79.2503
13:33:29.562,69.1253,78.2503
13:33:29.564,67.6878,77.6878
13:33:29.567,66.9378,75.5003
13:33:29.606,65.2503,74.3753
13:33:29.608,64.2502,72.9378
13:33:29.611,63.0627,69.9378
13:33:29.612,60.6252,68.5628
13:33:29.619,58.5627,65.4377
13:33:29.624,56.5627,62.3127
13:33:29.651,54.5002,59.1877
13:33:29.653,51.2502,55.6252
13:33:29.657,49.3752,53.9377
13:33:29.678,47.7502,49.6252
13:33:29.682,45.8127,47.1877
13:33:29.686,43.8127,44.8127
13:33:29.695,42.4377,40.7502
13:33:29.704,40.6252,38.9376
13:33:29.715,39.0001,36.3751
13:33:29.724,37.0626,33.8126
13:33:29.734,35.0626,31.8126
13:33:29.744,33.5001,28.6251
13:33:29.754,31.8751,25.4376
13:33:29.764,31.0001,23.2501
13:33:29.774,29.4376,20.6876
13:33:29.786,26.6251,17.8126
13:33:29.794,25.5001,16.1251
13:33:29.804,24.0001,12.625
13:33:29.814,21.6876,10.75
13:33:29.824,20.8126,8.75
13:33:29.834,19.0626,5.9375
13:33:29.844,17.5626,3.625
13:33:29.854,17.4376,2
13:33:29.864,15.0626,-1.1875
13:33:29.875,13.2501,-3.6875
13:33:29.884,11.9375,-5.875
13:33:29.896,9.5625,-8.75
13:33:29.904,7.875,-11.125
13:33:29.914,6.5,-14.1251
13:33:29.924,4.4375,-15.6251
13:33:29.935,3.4375,-18.9376
13:33:29.944,2.375,-21.2501
13:33:29.954,1,-22.6876
13:33:29.965,-0.3125,-24.5001
13:33:29.975,-1.0625,-26.7501
13:33:29.984,-3.625,-30.5626
13:33:29.994,-5,-32.0001
13:33:30.004,-5.9375,-33.6251
13:33:30.014,-6.9375,-35.5001
13:33:30.024,-7.6875,-37.8126
13:33:30.034,-9.125,-38.6251
13:33:30.044,-9.75,-40.3752
13:33:30.056,-11.4375,-42.2502
13:33:30.064,-12.8125,-44.5002
13:33:30.074,-14.2501,-47.3752
13:33:30.084,-15.1876,-50.3752
13:33:30.095,-16.9376,-51.2502
13:33:30.104,-17.8751,-54.1877
13:33:30.114,-18.7501,-55.2502
13:33:30.124,-17.3126,-54.6877
13:33:30.134,-16.0626,-51.4377
13:33:30.145,-11.25,-45.3127
13:33:30.154,-5.4375,-34.6876
13:33:30.168,1.125,-22.5001
13:33:30.174,8,-11.8125
13:33:30.199,12.75,-0.375
13:33:30.202,18.3126,8.125
13:33:30.205,21.8126,15.8751
13:33:30.216,23.4376,19.9376
13:33:30.225,24.6251,22.5001
13:33:30.235,24.6876,24.3126
13:33:30.259,23.6251,23.9376
13:33:30.262,23.6251,23.3751
13:33:30.290,21.8126,22.8751
13:33:30.333,21.8126,22.6251
13:33:30.377,22.3126,23.6251
13:33:30.380,22.3126,25.6876
13:33:30.382,23.1876,25.4376
13:33:30.409,25.1876,28.6251
13:33:30.409,25.6876,30.5626
13:33:30.409,26.3751,31.3126
13:33:30.410,25.5001,31.5001
13:33:30.412,24.8126,30.7501
13:33:30.417,23.6251,28.9376
13:33:30.424,22.5001,28.5626
13:33:30.434,22.2501,26.9376
13:33:30.444,20.3751,25.3751
13:33:30.454,20.1876,25.3751
13:33:30.464,20.1876,24.1251
13:33:30.474,19.7501,25.1876
13:33:30.485,19.0626,24.8751
13:33:30.494,19.5626,24.5001
13:33:30.505,19.7501,24.6251
13:33:30.514,20.0001,25.6251
13:33:30.524,20.1876,25.3751
13:33:30.556,19.8126,25.0626
13:33:30.570,19.3751,24.1251
13:33:30.575,15.2501,16.6251
13:33:30.588,14.5001,16.1251
13:33:30.589,12.9375,14.2501
13:33:30.590,13.1251,11.875
13:33:30.596,11.6875,10.75
13:33:30.604,11.6875,9.625
13:33:30.614,11.3125,8.9375
13:33:30.624,10.125,7.3125
13:33:30.634,8.875,5.625
13:33:30.644,8.8125,4.0625
13:33:30.654,7.1875,2.875
13:33:30.664,6.4375,0.5
13:33:30.674,6,0.0625
13:33:30.685,5.625,-2.75
13:33:30.696,5.4375,-3.375
13:33:30.704,4.5,-4.5625
13:33:30.714,3.375,-7
13:33:30.725,3.25,-7.4375
13:33:30.734,1.5625,-8.875
13:33:30.744,1.6875,-10.25
13:33:30.754,0.8125,-12
13:33:30.764,-0.6875,-13.4376
13:33:30.775,-1.125,-15.5001
13:33:30.785,-2.875,-18.2501
13:33:30.794,-3.6875,-19.5001
13:33:30.804,-5.9375,-22.5001
13:33:30.816,-7.1875,-24.5001
13:33:30.824,-8.0625,-26.0626
13:33:30.836,-8.3125,-27.8751
13:33:30.844,-9.6875,-29.4376
13:33:30.855,-11,-31.4376
13:33:30.865,-12.4375,-33.9376
13:33:30.874,-13.5001,-35.1876
13:33:30.885,-14.8126,-37.4376
13:33:30.896,-16.0626,-40.1252
13:33:30.904,-17.1251,-41.2502
13:33:30.915,-18.6876,-42.7502
13:33:30.946,-16.3751,-42.8127
13:33:30.948,-15.7501,-39.0001
13:33:30.951,-10.1875,-33.2501
13:33:30.956,-5.1875,-22.8126
13:33:30.987,1.4375,-12.9375
13:33:30.991,7.1875,-0.9375
13:33:30.992,13.1876,9
13:33:30.995,17.6251,19.0626
13:33:31.022,21.3751,24.7501
13:33:31.025,23.4376,30.2501
13:33:31.027,24.6251,34.3126
13:33:31.059,25.0001,36.0001
13:33:31.062,25.8126,37.4376
13:33:31.064,25.4376,38.1251
13:33:31.069,25.3751,38.8126
13:33:31.083,25.2501,40.3127
13:33:31.085,25.8126,40.0002
13:33:31.101,26.7501,41.5002
13:33:31.105,27.5626,44.1877
13:33:31.114,28.5626,45.3752
13:33:31.124,29.2501,48.2502
13:33:31.135,30.1876,47.8752
13:33:31.144,29.9376,49.0627
13:33:31.155,29.0001,48.3752
13:33:31.164,28.6876,46.1252
13:33:31.175,27.3751,44.1877
13:33:31.185,26.5001,43.3127
13:33:31.195,26.8126,42.6252
13:33:31.205,26.0626,42.0627
13:33:31.215,25.1876,41.5002
13:33:31.225,25.6251,43.3127
13:33:31.235,25.7501,42.6877
13:33:31.244,26.0001,43.3127
13:33:31.254,25.3751,43.3127
13:33:31.264,25.3126,42.6252
13:33:31.274,24.5001,41.8127
13:33:31.284,24.0626,41.1252
13:33:31.294,21.9376,39.2502
13:33:31.304,21.0626,36.8751
13:33:31.316,19.1876,35.4376
13:33:31.324,17.6876,33.0626
13:33:31.336,16.8126,31.2501
13:33:31.344,15.9376,29.1251
13:33:31.356,14.5626,25.8751
13:33:31.364,13.3751,24.6251
13:33:31.376,12.5625,22.1876
13:33:31.385,10.875,19.7501
13:33:31.395,9.5625,18.0001
13:33:31.405,8.6875,15.6876
13:33:31.415,7.875,14.1876
13:33:31.425,6.875,11.75
13:33:31.434,6.4375,10.5
13:33:31.444,5.6875,9.5625
13:33:31.455,5.25,7.625
13:33:31.483,4.5625,5.75
13:33:31.483,3.3125,4.75
13:33:31.490,2.8125,2.5625
13:33:31.496,1.25,0.4375
13:33:31.506,1.25,-1.4375
13:33:31.515,-0.5625,-2.375
13:33:31.525,-1,-4.3125
13:33:31.534,-2.0625,-6.75
13:33:31.544,-3.4375,-8.8125
13:33:31.556,-4.5,-10.625
13:33:31.564,-5.8125,-13.5001
13:33:31.575,-7.375,-15.8126
13:33:31.585,-8.5625,-17.1251
13:33:31.595,-8.6875,-19.1251
13:33:31.604,-10.6875,-22.4376
13:33:31.616,-12.0625,-25.1251
13:33:31.624,-12.9375,-25.2501
13:33:31.643,-13.1251,-27.5626
13:33:31.649,-14.0001,-29.1876
13:33:31.657,-15.6251,-32.0001
13:33:31.668,-16.5626,-32.6876
13:33:31.690,-17.5001,-35.8751
13:33:31.727,-19.1876,-37.3126
13:33:31.730,-19.6251,-39.4377
13:33:31.753,-21.7501,-41.5627
13:33:31.753,-22.1876,-43.8752
13:33:31.754,-23.5001,-46.0002
13:33:31.758,-24.3751,-47.3752
13:33:31.788,-23.3126,-48.6877
13:33:31.791,-22.1876,-44.8752
13:33:31.793,-17.5626,-39.8127
13:33:31.798,-12.4375,-29.1876
13:33:31.799,-5.4375,-17.7501
13:33:31.807,2.0625,-4.1875
13:33:31.835,8.125,8.4375
13:33:31.837,14.3126,18.0626
13:33:31.839,18.6251,27.5001
13:33:31.862,22.1876,34.3751
13:33:31.864,24.1876,40.1252
13:33:31.879,25.6876,44.1877
13:33:31.880,27.1251,46.3752
13:33:31.895,26.9376,47.4377
13:33:31.903,28.2501,51.3752
13:33:31.906,29.0626,53.6877
13:33:31.915,29.5626,54.8127
13:33:31.924,30.0626,57.2502
13:33:31.935,31.5626,59.8752
13:33:31.945,32.7501,61.7502
13:33:31.955,33.3751,64.3127
13:33:31.965,33.8126,65.6252
13:33:31.975,33.3751,65.0002
13:33:31.985,32.8126,63.5627
13:33:31.995,32.1251,62.8127
13:33:32.006,31.0001,61.5627
13:33:32.015,30.1251,59.7502
13:33:32.025,28.8126,57.9377
13:33:32.035,27.9376,57.5002
13:33:32.046,28.0001,56.5002
13:33:32.055,28.0626,56.3752
13:33:32.065,27.9376,56.8127
13:33:32.075,27.5626,55.8127
13:33:32.085,27.6251,56.1877
13:33:32.096,27.1876,55.5627
13:33:32.105,26.4376,55.0627
13:33:32.115,25.8751,54.1252
13:33:32.125,23.5001,52.2502
13:33:32.135,22.6251,48.6252
13:33:32.152,21.5001,46.9377
13:33:32.156,20.1876,45.6252
13:33:32.166,19.1251,41.8127
13:33:32.176,17.5626,40.0002
13:33:32.191,16.3751,36.5626
13:33:32.200,14.6251,34.9376
13:33:32.210,13.8126,31.0001
13:33:32.221,12.0625,30.0001
13:33:32.231,11.6875,26.1876
13:33:32.240,8.9375,23.7501
13:33:32.251,7.9375,20.9376
13:33:32.260,6.625,19.2501
13:33:32.270,5.875,16.8751
13:33:32.280,4.3125,14.3126
13:33:32.290,3.5,11.6875
13:33:32.300,2.125,8.875
13:33:32.310,1.125,7.4375
13:33:32.320,-0.4375,4.5625
13:33:32.331,-1.3125,2.625
13:33:32.340,-2.75,-0.8125
13:33:32.350,-3.625,-2.8125
13:33:32.361,-4.6875,-3.875
13:33:32.370,-5.375,-7.3125
13:33:32.380,-6.0625,-8.125
13:33:32.390,-7.0625,-11
13:33:32.418,-8.5,-13.5001
13:33:32.421,-10.0625,-14.9376
13:33:32.423,-11.4375,-17.6251
13:33:32.431,-11.875,-20.3751
13:33:32.462,-13.7501,-22.9376
13:33:32.464,-14.6251,-24.6251
13:33:32.465,-15.4376,-26.5626
13:33:32.472,-16.8751,-29.6251
13:33:32.509,-17.9376,-31.8126
13:33:32.512,-19.0001,-34.7501
13:33:32.513,-20.3751,-37.2501
13:33:32.552,-21.6251,-39.8752
13:33:32.553,-22.8126,-41.6252
13:33:32.556,-23.8126,-44.0002
13:33:32.561,-24.3751,-45.4377
13:33:32.562,-25.0001,-46.5627
13:33:32.562,-23.3751,-45.0627
13:33:32.576,-20.2501,-40.0627
13:33:32.580,-15.8751,-32.0001
13:33:32.594,-8.875,-21.6876
13:33:32.602,-2.8125,-10.0625
13:33:32.611,4.0625,2.25
13:33:32.620,8.5,13.4376
13:33:32.630,14.2501,22.9376
13:33:32.640,17.6876,31.0626
13:33:32.650,20.5001,36.3126
13:33:32.661,21.3126,40.5627
13:33:32.670,21.9376,42.6252
13:33:32.680,22.7501,44.3127
13:33:32.690,22.5626,44.4377
13:33:32.700,22.0626,43.7502
13:33:32.710,21.7501,43.9377
13:33:32.720,22.1251,44.1877
13:33:32.730,22.2501,46.7502
13:33:32.760,22.6876,46.8127
13:33:32.762,23.4376,48.5002
13:33:32.764,23.3751,50.0627
13:33:32.771,23.1876,48.8127
13:33:32.782,22.0001,46.6252
13:33:32.791,20.8751,46.2502
13:33:32.801,19.6876,43.0627
13:33:32.810,19.0626,43.0002
13:33:32.820,18.9376,42.0627
13:33:32.830,18.8126,41.8127
13:33:32.840,19.5626,42.3127
13:33:32.850,19.0001,43.1877
13:33:32.860,19.1876,44.0627
13:33:32.870,19.5626,43.9377
13:33:32.880,19.6251,44.2502
13:33:32.890,19.1251,43.4377
13:33:32.900,18.1876,41.9377
13:33:32.911,17.3751,41.7502
13:33:32.921,16.1876,38.4376
13:33:32.930,14.8751,36.8751
13:33:32.940,13.0625,33.5001
13:33:32.951,11.625,31.4376
13:33:32.972,9.8125,27.2501
13:33:32.974,7.8125,25.1876
13:33:32.983,6.625,22.5001
13:33:33.004,5.125,19.5626
13:33:33.011,2.6875,17.1251
13:33:33.021,1.9375,14.9376
13:33:33.026,1.0625,11.9375
13:33:33.036,-0.5625,10.3125
13:33:33.045,-1.875,7.3125
13:33:33.055,-2.5,5.3125
13:33:33.065,-3.6875,3.5625
13:33:33.075,-5.125,1.375
13:33:33.085,-6.9375,-1
13:33:33.096,-7.3125,-4.1875
13:33:33.106,-9.4375,-5.75
13:33:33.115,-10.125,-7.5625
13:33:33.126,-10.9375,-10.5625
13:33:33.143,-10.9375,-11.75
13:33:33.145,-12.625,-14.1876
13:33:33.177,-14.1251,-16.7501
13:33:33.211,-14.7501,-19.5001
13:33:33.213,-16.0001,-21.4376
13:33:33.276,-17.3126,-23.0001
13:33:33.309,-17.3126,-24.7501
13:33:33.311,-18.6251,-26.5626
13:33:33.311,-19.1251,-28.5001
13:33:33.313,-20.8751,-30.3751
13:33:33.315,-22.5001,-33.1251
13:33:33.320,-23.0626,-36.0626
13:33:33.320,-24.5626,-38.0626
13:33:33.320,-25.8126,-40.1877
13:33:33.327,-28.0626,-43.8127
13:33:33.335,-29.1251,-46.0627
13:33:33.345,-30.3126,-49.1877
13:33:33.356,-30.8126,-50.0627
13:33:33.365,-30.4376,-50.8127
13:33:33.376,-28.0001,-47.3127
13:33:33.387,-24.0001,-42.0002
13:33:33.396,-18.5001,-31.6876
13:33:33.405,-11.4375,-18.8126
13:33:33.415,-4,-5.5625
13:33:33.425,2.9375,6.1875
13:33:33.435,19.8126,43.3752
13:33:33.445,22.7501,47.9377
13:33:33.455,24.1876,51.8127
13:33:33.465,25.0626,54.1252
13:33:33.475,25.7501,55.5002
13:33:33.485,28.8751,65.0627
13:33:33.496,30.7501,69.3753
13:33:33.505,31.8751,70.6253
13:33:33.516,33.2501,74.6878
13:33:33.526,34.3751,76.2503
13:33:33.535,34.3751,77.4378
13:33:33.545,33.8751,76.4378
13:33:33.556,32.0001,74.3753
13:33:33.565,31.1876,72.6878
13:33:33.575,29.8126,70.3753
13:33:33.585,28.5626,69.2503
13:33:33.595,27.7501,66.7503
13:33:33.605,27.1876,64.6252
13:33:33.615,27.0626,64.7502
13:33:33.626,26.5001,65.6253
13:33:33.635,26.3126,65.1878
13:33:33.646,26.8126,63.4377
13:33:33.656,25.6876,63.5627
13:33:33.665,24.8126,62.7502
13:33:33.675,23.3751,60.4377
13:33:33.686,23.0001,58.4377
13:33:33.696,22.1876,56.6252
13:33:33.706,19.6876,53.8127
13:33:33.720,17.7501,51.0627
13:33:33.725,16.6251,47.2502
13:33:33.737,14.0626,43.9377
13:33:33.745,12.1875,41.0627
13:33:33.755,10.3125,36.0001
13:33:33.765,8.1875,33.0626
13:33:33.775,7.0625,30.8126
13:33:33.786,5.5625,27.4376
13:33:33.796,3.8125,25.4376
13:33:33.805,2.5,23.0001
13:33:33.815,1.625,19.1251
13:33:33.825,0.375,16.7501
13:33:33.856,-0.25,14.4376
13:33:33.860,-2.6875,12.25
13:33:33.862,-4,9.375
13:33:33.867,-5.0625,6.25
13:33:33.893,-7.125,3.75
13:33:33.895,-8.25,1.625
13:33:33.898,-9.5625,-2.4375
13:33:33.929,-11.0625,-4.75
13:33:33.931,-11.875,-6.75
13:33:33.933,-13.7501,-8.9375
13:33:33.938,-14.2501,-11.625
13:33:33.975,-15.6876,-13.8126
13:33:33.978,-17.0001,-15.4376
13:33:33.979,-18.2501,-18.5001
13:33:34.008,-19.1876,-21.3751
13:33:34.008,-20.0626,-22.0001
13:33:34.008,-20.9376,-25.4376
13:33:34.011,-22.0626,-27.5001
13:33:34.039,-23.7501,-31.4376
13:33:34.041,-25.5001,-33.2501
13:33:34.043,-26.6251,-36.3751
13:33:34.046,-28.5001,-39.2502
13:33:34.056,-29.3751,-41.7502
13:33:34.066,-31.2501,-43.4377
13:33:34.075,-32.4376,-48.1877
13:33:34.085,-33.3126,-49.8127
13:33:34.099,-33.3751,-50.7502
13:33:34.105,-33.0626,-48.6877
13:33:34.117,-29.8126,-45.0002
13:33:34.125,-24.5626,-36.7501
13:33:34.135,-17.6876,-24.1251
13:33:34.145,-10.0625,-10.6875
13:33:34.155,-2.8125,2.9375
13:33:34.165,4.1875,16.0001
13:33:34.175,10.0625,27.4376
13:33:34.185,14.6251,38.5001
13:33:34.195,17.7501,44.0002
13:33:34.205,19.8751,50.2502
13:33:34.215,21.3751,54.1252
13:33:34.225,22.3751,56.1877
13:33:34.235,21.8751,57.5002
13:33:34.245,23.0626,59.4377
13:33:34.255,23.4376,60.1877
13:33:34.266,23.8751,62.7502
13:33:34.275,25.4376,63.9377
13:33:34.294,26.8126,67.3128
13:33:34.300,27.5626,69.3128
13:33:34.308,27.8751,70.8753
13:33:34.316,27.6876,71.8753
13:33:34.332,26.7501,69.6878
13:33:34.338,25.6251,68.4378
13:33:34.346,24.8751,66.6253
13:33:34.355,23.4376,63.3752
13:33:34.365,22.8751,62.2502
13:33:34.375,21.7501,60.5627
13:33:34.386,21.3751,59.5627
13:33:34.395,20.3751,58.9377
13:33:34.406,19.6251,58.0002
13:33:34.415,19.9376,57.6252
13:33:34.426,20.2501,57.1877
13:33:34.436,19.4376,56.6252
13:33:34.445,18.3126,56.4377
13:33:34.455,17.1251,54.6877
13:33:34.465,16.2501,52.1877
13:33:34.475,15.1876,49.1252
13:33:34.487,13.125,46.5627
13:33:34.495,12.125,44.3752
13:33:34.506,11.125,40.5002
13:33:34.516,8.5,38.0001
13:33:34.525,6.5,34.8751
13:33:34.535,4.8125,31.3126
13:33:34.545,3.0625,27.5626
13:33:34.634,0.8125,25.3126
13:33:34.675,-0.6875,20.8751
13:33:34.677,-2.6875,18.5626
13:33:34.678,-3.3125,14.6251
13:33:34.680,-5.9375,12.0625
13:33:34.716,-7.4375,9.5
13:33:34.717,-8.3125,6.0625
13:33:34.717,-9,3.9375
13:33:34.717,-10.1875,1.3125
13:33:34.718,-11.25,-0.5
13:33:34.722,-12.875,-2.8125
13:33:34.726,-13.7501,-6.0625
13:33:34.727,-14.8751,-8.1875
13:33:34.741,-16.3126,-10
13:33:34.747,-17.9376,-13.6876
13:33:34.755,-19.1251,-15.7501
13:33:34.766,-20.7501,-18.5001
13:33:34.776,-20.8751,-20.7501
13:33:34.786,-22.2501,-22.1876
13:33:34.796,-23.2501,-25.0626
13:33:34.805,-24.3751,-26.8751
13:33:34.815,-25.2501,-30.0001
13:33:34.826,-26.8126,-32.0001
13:33:34.835,-27.9376,-34.0626
13:33:34.849,-29.1876,-37.3751
13:33:34.855,-40.5627,-57.1877
13:33:34.866,-41.4377,-59.6877
13:33:34.877,-41.9377,-61.9377
13:33:34.885,-42.8127,-63.2502
13:33:34.896,-41.3127,-61.5002
13:33:34.905,-39.5002,-59.0627
13:33:34.915,-33.9376,-49.8752
13:33:34.926,-28.0001,-38.3126
13:33:34.935,-20.6876,-26.3126
13:33:34.945,-14.0001,-11.75
13:33:34.955,-6.3125,0.5
13:33:34.965,-1.375,12.625
13:33:34.976,3.0625,21.3126
13:33:34.985,7.4375,28.9376
13:33:34.995,8.8125,35.5001
13:33:35.005,10.625,37.8126
13:33:35.015,11,39.6877
13:33:35.025,11.375,41.5002
13:33:35.035,11.8125,42.2502
13:33:35.045,12.0625,43.7502
13:33:35.056,12.5625,44.6252
13:33:35.066,13,47.0627
13:33:35.076,13.9376,48.1252
13:33:35.086,14.8751,49.5002
13:33:35.095,14.5626,51.9377
13:33:35.106,13.7501,50.7502
13:33:35.116,12.9375,48.1252
13:33:35.125,11.6875,47.3127
13:33:35.135,10.25,44.3127
13:33:35.145,9.5,42.3127
13:33:35.156,8.625,41.9377
13:33:35.165,8.1875,40.5627
13:33:35.176,8.5,40.2502
13:33:35.185,8.125,40.8127
13:33:35.195,8.5,41.2502
13:33:35.205,8.3125,40.1252
13:33:35.215,8.125,39.9377
13:33:35.229,7.75,39.2502
13:33:35.236,6.4375,38.8751
13:33:35.246,6.375,36.8751
13:33:35.255,4.875,34.2501
13:33:35.265,3.3125,32.9376
13:33:35.275,1.625,29.3751
13:33:35.286,-0.125,26.2501
13:33:35.320,-1.5625,23.6251
13:33:35.322,-3.625,20.4376
13:33:35.324,-5.1875,16.8751
13:33:35.327,-6.6875,12.3125
13:33:35.357,-8.25,9.9375
13:33:35.359,-10.4375,7.375
13:33:35.362,-10.75,5.125
13:33:35.396,-12.5,1.3125
13:33:35.397,-13.3126,-0.375
13:33:35.400,-14.2501,-2.6875
13:33:35.404,-16.0626,-4.625
13:33:35.405,-17.0001,-7.4375
13:33:35.437,-18.5001,-10.125
13:33:35.439,-19.5626,-12.375
13:33:35.442,-21.1876,-14.8751
13:33:35.448,-21.3751,-17.0626
13:33:35.476,-23.6251,-19.5001
13:33:35.478,-23.9376,-21.6876
13:33:35.480,-25.6876,-23.6251
13:33:35.485,-26.8126,-25.6251
13:33:35.495,-28.3126,-28.6251
13:33:35.508,-28.3751,-31.3751
13:33:35.516,-29.8751,-33.0001
13:33:35.525,-30.3751,-35.1251
13:33:35.535,-31.6251,-37.5001
13:33:35.546,-31.2501,-39.0626
13:33:35.555,-33.1251,-40.5002
13:33:35.567,-33.6876,-43.6877
13:33:35.576,-34.8126,-45.1877
13:33:35.585,-36.1876,-47.5627
13:33:35.597,-36.6251,-49.7502
13:33:35.606,-38.1876,-50.7502
13:33:35.623,-39.1251,-53.0627
13:33:35.632,-39.6877,-55.5627
13:33:35.635,-41.5002,-57.1877
13:33:35.654,-41.6877,-60.0627
13:33:35.660,-42.0627,-61.4377
13:33:35.669,-43.6252,-62.8752
13:33:35.676,-44.8752,-66.3753
13:33:35.685,-45.3127,-67.3753
13:33:35.697,-46.1252,-70.1253
13:33:35.706,-45.6252,-70.4378
13:33:35.716,-46.1252,-72.0003
13:33:35.725,-42.9377,-67.6253
13:33:35.736,-38.3126,-59.5627
13:33:35.746,-32.1876,-47.5627
13:33:35.757,-23.7501,-33.3126
13:33:35.765,-16.7501,-19.2501
13:33:35.776,-9.9375,-3.5625
13:33:35.785,-2.4375,9.375
13:33:35.797,3.125,20.3126
13:33:35.805,7.6875,30.8751
13:33:35.817,10.9375,37.0626
13:33:35.825,12.1875,42.6877
13:33:35.837,13.9376,45.8752
13:33:35.845,14.3751,48.8127
13:33:35.857,15.8126,50.6877
13:33:35.865,15.9376,52.3127
13:33:35.877,16.8126,54.8752
13:33:35.887,18.3751,57.2502
13:33:35.897,19.5626,61.1252
13:33:35.913,21.6876,63.5627
13:33:35.915,22.0626,67.3128
13:33:35.930,23.0001,68.1253
13:33:35.946,23.0626,69.3753
13:33:35.948,22.3751,67.4378
13:33:35.963,20.1251,65.6878
13:33:35.967,18.5626,62.6877
13:33:35.980,17.4376,60.1252
13:33:35.985,16.6876,58.5002
13:33:35.996,14.9376,57.2502
13:33:36.006,15.3126,55.8127
13:33:36.016,14.3126,54.9377
13:33:36.025,14.0626,54.3127
13:33:36.036,13.6251,52.8127
13:33:36.068,12.1875,52.7502
13:33:36.070,12.125,50.6252
13:33:36.073,10.9375,49.6877
13:33:36.075,9.6875,48.6877
13:33:36.109,8.625,45.5002
13:33:36.112,8.0625,43.6877
13:33:36.114,6.75,41.4377
13:33:36.117,4.5625,38.2501
13:33:36.146,2.8125,35.8126
13:33:36.149,1.625,31.7501
13:33:36.152,-0.1875,28.6876
13:33:36.177,-1.5,24.6251
13:33:36.178,-3.75,21.9376
13:33:36.181,-4.875,18.7501
13:33:36.186,-5.1875,15.6876
13:33:36.201,-7.3125,13.6876
13:33:36.206,-8.9375,10.3125
13:33:36.229,-9.625,7.25
13:33:36.232,-11.3125,3.75
13:33:36.236,-12.625,3.125
13:33:36.247,-13.6876,-1
13:33:36.257,-14.1876,-2.875
13:33:36.266,-16.0001,-5.6875
13:33:36.276,-17.3126,-8.25
13:33:36.287,-18.3126,-10.375
13:33:36.301,-19.6251,-12.875
13:33:36.313,-19.8126,-14.5001
13:33:36.322,-22.0001,-16.7501
13:33:36.330,-22.3751,-19.3126
13:33:36.342,-24.2501,-22.4376
13:33:36.356,-24.6876,-24.9376
13:33:36.362,-26.0626,-27.0001
13:33:36.371,-27.1876,-29.6251
13:33:36.382,-28.1251,-31.5001
13:33:36.391,-29.5001,-34.5626
13:33:36.402,-31.2501,-36.4376
13:33:36.412,-31.8126,-37.9376
13:33:36.422,-32.8126,-41.7502
13:33:36.430,-33.1251,-43.6877
13:33:36.442,-34.7501,-44.8127
13:33:36.450,-35.8126,-47.6252
13:33:36.462,-38.1876,-51.1252
13:33:36.471,-39.2501,-52.6252
13:33:36.482,-39.9377,-55.7502
13:33:36.492,-40.1252,-57.5002
13:33:36.501,-42.1252,-60.8752
13:33:36.512,-42.6877,-63.5002
13:33:36.521,-44.6877,-65.9378
13:33:36.532,-46.0627,-68.0628
13:33:36.542,-46.2502,-70.4378
13:33:36.552,-45.7502,-70.0628
13:33:36.560,-43.4377,-67.6878
13:33:36.571,-38.8126,-60.4377
13:33:36.599,-32.6876,-48.0002
13:33:36.602,-24.3751,-35.6251
13:33:36.604,-17.3126,-20.1876
13:33:36.612,-10.125,-7
13:33:36.622,-3.8125,6.8125
13:33:36.631,2.125,17.1876
13:33:36.642,5.8125,25.5626
13:33:36.652,8.3125,32.8126
13:33:36.660,9.8125,36.0626
13:33:36.672,11.5625,40.2502
13:33:36.680,12,41.8752
13:33:36.691,11.9375,43.3127
13:33:36.702,12.5625,44.0002
13:33:36.710,13.2501,45.4377
13:33:36.722,14.5626,48.5002
13:33:36.730,15.0001,49.8752
13:33:36.742,16.5626,52.5002
13:33:36.751,16.3751,54.3127
13:33:36.776,16.6876,55.4377
13:33:36.779,15.8126,54.0627
13:33:36.781,14.8126,52.3127
13:33:36.817,13.9376,49.5002
13:33:36.820,12.5625,48.1877
13:33:36.822,12.125,46.0002
13:33:36.824,11.125,44.6877
13:33:36.832,11.75,44.3127
13:33:36.864,11,43.7502
13:33:36.867,11.125,43.9377
13:33:36.869,10.5625,43.6252
13:33:36.872,11.1875,43.8127
13:33:36.903,10.4375,44.2502
13:33:36.904,10.5,42.7502
13:33:36.908,8.9375,41.9377
13:33:36.913,8.875,39.3126
13:33:36.938,6.8125,37.1876
13:33:36.953,5,33.9376
13:33:36.968,3.5625,29.7501
13:33:36.970,1.0625,27.7501
13:33:36.985,-0.375,24.8126
13:33:36.985,-2.1875,20.6251
13:33:36.987,-3.75,17.0626
13:33:37.002,-5.1875,13.8751
13:33:37.004,-6.5625,11.125
13:33:37.013,-7.875,7.875
13:33:37.021,-9.3125,5.5625
13:33:37.032,-10.75,3
13:33:37.041,-12.125,0.125
13:33:37.052,-13.3126,-2.375
13:33:37.062,-14.6876,-4.75
13:33:37.071,-15.1876,-6.5625
13:33:37.082,-16.8126,-8.75
13:33:37.092,-18.2501,-10.9375
13:33:37.108,-18.1876,-14.3751
13:33:37.112,-18.9376,-15.6876
13:33:37.121,-20.5001,-17.8126
13:33:37.132,-21.6876,-20.4376
13:33:37.141,-22.1251,-22.9376
13:33:37.152,-23.5001,-25.6251
13:33:37.162,-24.3126,-28.3751
13:33:37.171,-25.5626,-30.7501
13:33:37.181,-26.9376,-31.6251
13:33:37.192,-27.8751,-35.3126
13:33:37.201,-28.6876,-36.6876
13:33:37.211,-29.3126,-37.8126
13:33:37.230,-30.3751,-41.1877
13:33:37.233,-30.8751,-41.8127
13:33:37.248,-32.3751,-44.9377
13:33:37.263,-32.8126,-47.6252
13:33:37.265,-33.2501,-49.0627
13:33:37.274,-34.8126,-52.1252
13:33:37.281,-34.8751,-53.5627
13:33:37.292,-36.7501,-54.7502
13:33:37.301,-37.4376,-58.3127
13:33:37.312,-39.2502,-60.3127
13:33:37.322,-39.5002,-62.0002
13:33:37.331,-40.6877,-64.5002
13:33:37.342,-41.6877,-66.8128
13:33:37.351,-43.3752,-69.5628
13:33:37.362,-43.3752,-71.8753
13:33:37.372,-44.8752,-72.9378
13:33:37.381,-42.9377,-71.8128
13:33:37.392,-39.8752,-66.6878
13:33:37.402,-34.3751,-55.3752
13:33:37.411,-26.7501,-43.3127
13:33:37.421,-18.1251,-28.3126
13:33:37.431,-9.875,-10.875
13:33:37.442,-2.625,3.9375
13:33:37.453,4.875,18.1876
13:33:37.461,9.8125,28.6876
13:33:37.472,13.6876,40.3752
13:33:37.483,16.3751,45.5627
13:33:37.492,18.6251,52.6252
13:33:37.503,19.9376,54.6877
13:33:37.512,21.0626,57.1877
13:33:37.521,22.1876,60.0627
13:33:37.532,22.2501,62.4377
13:33:37.543,24.7501,66.0628
13:33:37.574,25.5626,69.1253
13:33:37.576,27.3751,72.3753
13:33:37.578,28.7501,75.3753
13:33:37.581,29.6251,78.9378
13:33:37.608,30.0001,80.2503
13:33:37.610,29.5001,80.8128
13:33:37.614,29.3126,78.5628
13:33:37.655,28.0001,77.1878
13:33:37.657,26.3751,73.6253
13:33:37.659,24.3751,71.8128
13:33:37.662,24.1251,69.3128
13:33:37.669,22.2501,66.5003
13:33:37.672,21.3751,65.7503
13:33:37.705,21.0626,64.1252
13:33:37.707,20.2501,64.1252
13:33:37.710,20.4376,62.3752
13:33:37.712,19.7501,61.9377
13:33:37.722,18.4376,60.9377
13:33:37.731,17.1251,57.4377
13:33:37.742,16.2501,56.3752
13:33:37.752,15.0001,53.0627
13:33:37.762,13.1876,50.6252
13:33:37.772,11.8125,47.6252
13:33:37.782,10.375,44.2502
13:33:37.792,8.125,40.3127
13:33:37.802,6.125,36.9376
13:33:37.812,4,33.4376
13:33:37.822,2.6875,29.5001
13:33:37.833,0.8125,24.6876
13:33:37.842,-0.6875,21.5626
13:33:37.880,-1.5,18.8751
13:33:37.883,-3.5,16.2501
13:33:37.887,-5.125,13.7501
13:33:37.889,-6.8125,9
13:33:37.892,-8.25,6.4375
13:33:37.902,-9.75,3
13:33:37.912,-11.25,0.5
13:33:37.921,-13,-2.125
13:33:37.932,-13.9376,-7.0625
13:33:37.942,-15.2501,-8.8125
13:33:37.952,-17.2501,-12.1875
13:33:37.962,-19.1876,-14.3126
13:33:37.972,-20.4376,-17.5001
13:33:37.982,-21.5001,-21.0001
13:33:37.992,-22.7501,-24.1876
13:33:38.001,-23.6251,-26.2501
13:33:38.011,-26.1876,-30.3751
13:33:38.022,-27.3751,-32.2501
13:33:38.031,-28.6251,-36.6251
13:33:38.042,-30.0001,-37.9376
13:33:38.052,-30.8751,-41.5627
13:33:38.061,-32.6876,-43.4377
13:33:38.071,-33.9376,-47.4377
13:33:38.082,-35.4376,-49.0002
13:33:38.091,-36.5626,-52.6252
13:33:38.101,-37.3126,-54.8127
13:33:38.112,-39.0627,-57.7502
13:33:38.122,-40.6252,-60.0002
13:33:38.132,-41.1877,-62.8127
13:33:38.142,-42.1252,-63.5002
13:33:38.151,-42.8752,-66.9378
13:33:38.161,-43.6877,-69.2503
13:33:38.171,-45.0002,-71.4378
13:33:38.181,-45.3127,-74.2503
13:33:38.192,-45.7502,-75.0628
13:33:38.201,-46.9377,-78.0003
13:33:38.211,-47.0627,-78.6253
13:33:38.222,-48.5002,-81.2503
13:33:38.233,-48.6877,-82.0628
13:33:38.241,-49.3752,-85.5628
13:33:38.268,-49.8127,-86.5003
13:33:38.312,-50.9377,-88.8128
13:33:38.383,-51.5627,-90.2504
13:33:38.383,-51.7502,-92.0004
13:33:38.387,-53.4377,-94.1254
13:33:38.387,-53.5627,-96.5004
13:33:38.387,-55.1877,-98.5004
13:33:38.392,-55.3127,-100.4379
13:33:38.418,-54.5002,-99.3754
13:33:38.420,-51.7502,-94.0004
13:33:38.424,-45.3127,-84.6878
13:33:38.434,-36.6876,-69.0628
13:33:38.441,-28.0001,-53.5002
13:33:38.451,-18.4376,-35.0626
13:33:38.462,-9.875,-17.1876
13:33:38.472,-1.0625,-0.6875
13:33:38.481,5,13.6876
13:33:38.492,10.3125,25.0001
13:33:38.501,14.1876,34.4376
13:33:38.512,17.4376,41.0627
13:33:38.522,19.0001,46.4377
13:33:38.531,20.5626,49.9377
13:33:38.548,21.1251,51.7502
13:33:38.564,31.6251,82.3753
13:33:38.567,30.6876,80.7503
13:33:38.582,29.0001,79.2503
13:33:38.584,26.0626,74.6878
13:33:38.600,23.5001,72.0003
13:33:38.601,20.8126,69.5003
13:33:38.613,18.5626,65.9378
13:33:38.622,15.5626,62.3752
13:33:38.632,14.6251,60.5627
13:33:38.641,11.625,58.3127
13:33:38.651,8.8125,56.8752
13:33:38.662,6.75,55.1877
13:33:38.672,5,52.9377
13:33:38.681,1.8125,50.5002
13:33:38.692,-0.375,47.8752
13:33:38.702,-2.3125,44.6877
13:33:38.712,-2.75,44.1252
13:33:38.722,0.25,43.9377
13:33:38.732,-0.5625,41.2502
13:33:38.742,0.625,40.3752
13:33:38.751,2.3125,39.3126
13:33:38.762,2.125,38.7501
13:33:38.771,0,36.1251
13:33:38.782,0.75,34.0626
13:33:38.791,0.5,32.7501
13:33:38.802,-0.75,30.9376
13:33:38.813,-2.25,27.0001
13:33:38.822,-6.9375,21.0626
13:33:38.831,-12.9375,13.9376
13:33:38.841,-20.6876,6.5
13:33:38.851,-29.2501,-1.9375
13:33:38.861,-41.4377,-13.7501
13:33:38.871,-53.7502,-24.0626
13:33:38.881,-65.3128,-34.0001
13:33:38.891,-70.8128,-38.0001
13:33:38.901,-74.8753,-41.3127
13:33:38.912,-76.9378,-41.1877
13:33:38.922,-77.6253,-41.6877
13:33:38.931,-82.3128,-45.5002
13:33:38.942,-82.5628,-48.8127
13:33:38.952,-79.9378,-47.8752
13:33:38.962,-79.2503,-49.5002
13:33:38.971,-78.1253,-50.5002
13:33:38.987,-75.1878,-49.8127
13:33:38.992,-78.9378,-57.8752
13:33:39.024,-85.8128,-71.6878
13:33:39.025,-87.8128,-78.3753
13:33:39.030,-87.7503,-82.7503
13:33:39.033,-84.2503,-84.6878
13:33:39.067,-80.8753,-85.0628
13:33:39.070,-77.2503,-85.6878
13:33:39.074,-74.5628,-85.5003
13:33:39.074,-71.5628,-86.0628
13:33:39.108,-68.3753,-86.0003
13:33:39.109,-66.5628,-88.4378
13:33:39.112,-66.5003,-90.0628
13:33:39.117,-67.9378,-95.0004
13:33:39.148,-70.1878,-99.1879
13:33:39.151,-73.0003,-104.9379
13:33:39.153,-74.6878,-109.1254
13:33:39.175,-77.0628,-114.3129
13:33:39.176,-79.1878,-118.813
13:33:39.179,-81.8128,-123.813
13:33:39.183,-83.1878,-128.313
13:33:39.192,-86.0003,-132.7505
13:33:39.202,-86.4378,-137.438
13:33:39.212,-88.6878,-141.5005
13:33:39.222,-88.6253,-143.063
13:33:39.231,-84.7503,-138.688
13:33:39.242,-78.0003,-131.0005
13:33:39.252,-69.5628,-118.813
13:33:39.262,-62.0002,-105.2504
13:33:39.271,-54.1252,-92.1879
13:33:39.281,-45.8752,-80.6253
13:33:39.291,-40.4377,-68.8753
13:33:39.301,-34.5626,-58.9377
13:33:39.312,-30.9376,-51.5002
13:33:39.321,-27.6876,-46.8752
13:33:39.332,-25.8126,-43.1877
13:33:39.341,-23.5001,-40.5002
13:33:39.351,-22.3126,-38.6876
13:33:39.363,-20.8126,-37.8126
13:33:39.372,-20.5001,-36.3751
13:33:39.381,-18.9376,-36.3126
13:33:39.391,-18.6876,-34.3126
13:33:39.402,-19.1251,-34.6251
13:33:39.412,-19.1251,-32.4376
13:33:39.421,-20.6876,-33.9376
13:33:39.432,-21.1251,-34.0001
13:33:39.442,-24.7501,-35.3126
13:33:39.452,-27.8751,-39.6877
13:33:39.462,-31.6876,-42.0002
13:33:39.472,-35.6876,-47.0002
13:33:39.481,-38.0001,-49.8752
13:33:39.492,-41.6877,-52.7502
13:33:39.502,-42.5627,-55.5002
13:33:39.511,-44.1877,-54.6252
13:33:39.521,-44.3752,-54.6252
13:33:39.531,-43.0627,-53.4377
13:33:39.541,-43.3127,-51.3127
13:33:39.553,-42.4377,-50.8127
13:33:39.562,-41.7502,-49.3752
13:33:39.572,-42.6877,-49.3127
13:33:39.582,-42.5002,-50.1877
13:33:39.591,-41.6877,-48.7502
13:33:39.602,-42.0002,-51.0002
13:33:39.624,-41.6877,-51.0627
13:33:39.626,-40.6877,-51.8752
13:33:39.642,-39.7502,-52.2502
13:33:39.644,-40.1877,-53.0002
13:33:39.652,-42.9377,-55.8752
13:33:39.661,-44.6877,-55.8127
13:33:39.671,-44.5002,-57.0627
13:33:39.681,-40.7502,-53.2502
13:33:39.692,-39.5627,-52.9377
13:33:39.702,-38.3751,-52.4377
13:33:39.734,-39.4377,-53.1252
13:33:39.737,-40.4377,-54.8127
13:33:39.738,-41.5002,-55.0002
13:33:39.743,-42.6877,-56.3752
13:33:39.770,-44.0002,-57.5627
13:33:39.775,-45.5002,-58.5002
13:33:39.777,-46.1877,-59.0627
13:33:39.782,-47.5002,-59.6877
13:33:39.822,-47.5002,-59.5627
13:33:39.823,-47.3127,-60.5627
13:33:39.825,-48.5627,-60.1252
13:33:39.852,-49.0002,-61.9377
13:33:39.853,-50.5002,-61.9377
13:33:39.889,-51.5002,-63.0002
13:33:39.892,-51.1877,-62.1877
13:33:39.902,-52.2502,-64.5627
13:33:39.902,-53.6877,-66.4378
13:33:39.902,-53.9377,-66.5003
13:33:39.903,-54.3752,-68.1878
13:33:39.911,-54.2502,-68.5628
13:33:39.922,-54.5627,-69.6878
13:33:39.932,-54.8752,-70.8753
13:33:39.942,-55.2502,-72.0003
13:33:39.951,-56.9377,-73.5628
13:33:39.961,-57.8127,-75.5628
13:33:39.971,-58.9377,-77.8753
13:33:39.982,-60.8752,-79.5003
13:33:39.991,-61.9377,-81.7503
13:33:40.001,-62.3127,-84.0628
13:33:40.012,-62.5002,-84.8753
13:33:40.021,-62.8752,-86.4378
13:33:40.032,-62.3752,-88.0003
13:33:40.043,-63.1252,-89.3753
13:33:40.053,-64.1252,-91.5004
13:33:40.061,-66.8753,-97.2504
13:33:40.072,-68.9378,-101.5004
13:33:40.082,-69.2503,-104.6254
13:33:40.093,-69.6253,-105.6254
13:33:40.101,-70.5003,-109.1254
13:33:40.112,-72.3128,-111.2504
13:33:40.121,-72.8753,-113.7504
13:33:40.132,-72.6878,-112.6879
13:33:40.142,-69.4378,-109.4379
13:33:40.151,-64.6252,-102.3129
13:33:40.161,-56.8752,-87.3128
13:33:40.172,-47.5627,-72.1253
13:33:40.182,-38.1876,-56.6877
13:33:40.191,-28.7501,-39.0626
13:33:40.201,-20.3751,-23.3126
13:33:40.212,-12.375,-8.8125
13:33:40.221,-5.6875,3.0625
13:33:40.232,0,11.9375
13:33:40.241,4,20.1876
13:33:40.252,6.3125,24.1876
13:33:40.262,8.5,25.5001
13:33:40.276,9.625,27.5001
13:33:40.282,10.5625,28.3126
13:33:40.292,12.5,29.1251
13:33:40.301,13.7501,29.8126
13:33:40.311,15.8751,30.5001
13:33:40.322,18.5626,33.5626
13:33:40.332,20.8126,35.5001
13:33:40.342,22.4376,37.4376
13:33:40.352,22.6251,38.4376
13:33:40.361,22.0001,35.8751
13:33:40.372,20.5626,33.0001
13:33:40.409,17.6876,29.7501
13:33:40.411,14.8751,24.4376
13:33:40.414,11.8125,20.1251
13:33:40.441,7.625,16.1251
13:33:40.442,4.0625,12.8125
13:33:40.444,-0.3125,8.75
13:33:40.450,-2.875,6.25
13:33:40.458,-5.1875,4.375
13:33:40.467,-8.625,3
13:33:40.478,-11.4375,0.3125
13:33:40.493,-14.1251,-2.1875
13:33:40.496,-15.6251,-4.75
13:33:40.537,-16.8126,-5.75
13:33:40.539,-18.0626,-9
13:33:40.541,-19.5001,-11.6875
13:33:40.544,-21.0001,-13.8751
13:33:40.549,-23.5626,-18.2501
13:33:40.557,-23.9376,-20.6876
13:33:40.585,-25.2501,-23.9376
13:33:40.588,-26.0001,-26.3126
13:33:40.590,-27.3126,-29.0626
13:33:40.597,-27.0626,-29.9376
13:33:40.631,-25.8126,-30.6876
13:33:40.633,-24.5001,-32.2501
13:33:40.636,-24.0626,-31.0626
13:33:40.642,-24.6876,-33.0626
13:33:40.657,-26.8751,-34.4376
13:33:40.661,-29.6876,-36.3751
13:33:40.671,-30.2501,-38.8126
13:33:40.678,-29.5626,-36.8751
13:33:40.687,-28.0001,-37.1876
13:33:40.696,-28.0626,-36.3751
13:33:40.708,-27.4376,-37.4376
13:33:40.716,-27.5001,-38.2501
13:33:40.728,-27.1876,-37.6251
13:33:40.737,-27.5626,-37.6251
13:33:40.748,-27.0001,-37.6876
13:33:40.757,-26.1251,-37.6251
13:33:40.771,-25.4376,-38.0001
13:33:40.776,-24.6876,-37.8126
13:33:40.788,-25.3126,-38.5001
13:33:40.797,-25.0626,-39.8127
13:33:40.808,-24.9376,-39.3127
13:33:40.816,-25.0001,-41.3127
13:33:40.828,-26.7501,-41.5627
13:33:40.836,-27.3751,-43.5002
13:33:40.848,-28.0001,-42.0002
13:33:40.858,-28.1876,-43.0002
13:33:40.866,-29.8751,-43.6877
13:33:40.878,-31.1251,-47.0627
13:33:40.888,-33.6876,-48.6252
13:33:40.898,-35.6876,-53.0002
13:33:40.906,-37.1876,-55.4377
13:33:40.924,-38.6251,-59.0627
13:33:40.938,-39.8752,-60.9377
13:33:40.942,-41.3127,-64.3752
13:33:40.946,-43.4377,-66.0003
13:33:40.958,-44.6877,-68.8128
13:33:40.968,-46.1252,-70.6878
13:33:40.978,-45.4377,-70.6878
13:33:40.986,-41.8752,-64.3127
13:33:40.998,-35.5001,-55.6877
13:33:41.008,-28.9376,-42.3127
13:33:41.017,-19.4376,-28.6876
13:33:41.028,-11.5,-13.0625
13:33:41.039,-2.375,1.5
13:33:41.052,4.8125,15.8751
13:33:41.057,11.1875,27.9376
13:33:41.068,16.8126,35.8751
13:33:41.077,19.6251,43.6252
13:33:41.087,21.8126,47.0002
13:33:41.098,22.5001,51.5627
13:33:41.106,22.0001,53.0002
13:33:41.116,21.3126,53.3752
13:33:41.126,21.0626,54.3127
13:33:41.154,20.4376,54.0627
13:33:41.187,21.8126,55.5627
13:33:41.190,22.0001,58.0627
13:33:41.192,23.0626,57.0627
13:33:41.198,24.4376,58.0627
13:33:41.199,23.4376,55.9377
13:33:41.199,23.4376,52.8752
13:33:41.207,21.0626,48.9377
13:33:41.243,20.3751,44.9377
13:33:41.246,18.6876,40.8752
13:33:41.250,17.1251,36.5001
13:33:41.252,16.1251,33.2501
13:33:41.284,16.3751,30.2501
13:33:41.287,16.5626,28.1251
13:33:41.291,17.8751,26.0626
13:33:41.294,18.8751,25.3126
13:33:41.299,20.1876,23.5626
13:33:41.308,20.7501,21.8126
13:33:41.320,21.4376,19.6251
13:33:41.328,21.0001,17.0001
13:33:41.338,19.8751,14.5001
13:33:41.349,18.0626,10.3125
13:33:41.358,16.2501,4.625
13:33:41.366,13.8751,-0.625
13:33:41.378,10.75,-7.3125
13:33:41.388,6.75,-12.8125
13:33:41.398,3.9375,-17.2501
13:33:41.408,-0.1875,-23.4376
13:33:41.416,-6.25,-30.0626
13:33:41.428,-12.625,-35.6251
13:33:41.438,-17.8751,-42.5627
13:33:41.448,-23.6876,-48.8127
13:33:41.458,-29.0626,-54.3127
13:33:41.468,-34.8126,-60.5002
13:33:41.478,-39.1251,-65.4377
13:33:41.488,-43.6252,-68.7503
13:33:41.499,-46.9377,-73.8128
13:33:41.507,-50.5002,-78.0628
13:33:41.518,-53.6877,-80.3753
13:33:41.526,-54.5002,-83.5003
13:33:41.538,-55.5627,-85.5628
13:33:41.549,-57.0002,-87.3128
13:33:41.556,-58.1877,-89.7503
13:33:41.568,-57.8127,-91.3754
13:33:41.578,-58.1877,-92.8754
13:33:41.586,-58.5002,-94.5629
13:33:41.598,-58.3127,-94.6254
13:33:41.608,-56.8752,-95.6254
13:33:41.618,-56.5002,-95.9379
13:33:41.628,-56.1252,-97.4379
13:33:41.636,-56.2502,-98.7504
13:33:41.648,-56.0002,-99.7504
13:33:41.658,-55.5627,-101.8129
13:33:41.667,-54.7502,-102.0004
13:33:41.678,-55.0002,-104.5004
13:33:41.688,-56.2502,-105.3129
13:33:41.719,-58.0002,-105.1879
13:33:41.722,-58.6877,-107.9379
13:33:41.724,-57.9377,-107.8129
13:33:41.728,-57.8752,-108.0629
13:33:41.739,-56.8752,-107.4379
13:33:41.748,-55.8752,-106.6254
13:33:41.758,-56.7502,-107.2504
13:33:41.769,-55.8127,-107.8129
13:33:41.778,-55.3752,-106.3754
13:33:41.788,-54.5627,-106.9379
13:33:41.801,-54.6877,-107.0629
13:33:41.809,-55.1877,-108.4379
13:33:41.817,-54.5627,-107.6879
13:33:41.828,-53.3752,-106.6254
13:33:41.838,-51.3752,-104.5004
13:33:41.846,-46.0627,-97.9379
13:33:41.858,-40.5002,-86.0003
13:33:41.868,-32.5626,-74.3128
13:33:41.878,-24.2501,-58.8752
13:33:41.894,-17.1251,-45.3752
13:33:41.898,-9.9375,-31.6251
13:33:41.930,-4.375,-17.9376
13:33:41.933,0.625,-8
13:33:41.935,5.375,1.875
13:33:41.937,8.25,9.8125
13:33:41.967,10.1875,14.1876
13:33:41.969,13,18.2501
13:33:41.972,12.8125,21.0001
13:33:41.978,14.5626,23.9376
13:33:41.988,13.8751,25.5001
13:33:42.018,16.1251,28.4376
13:33:42.019,18.3126,33.3751
13:33:42.022,19.2501,34.8751
13:33:42.028,21.5001,39.1251
13:33:42.058,22.8751,41.8127
13:33:42.062,25.0626,45.5002
13:33:42.064,25.6876,47.7502
13:33:42.070,26.6251,47.4377
13:33:42.081,27.6251,46.8127
13:33:42.089,26.5001,46.5002
13:33:42.099,25.6876,45.6252
13:33:42.108,24.2501,43.3127
13:33:42.118,21.8126,41.7502
13:33:42.128,20.8751,40.8127
13:33:42.138,20.2501,39.5002
13:33:42.148,19.0626,37.9376
13:33:42.158,18.6876,36.8126
13:33:42.168,19.1251,37.6251
13:33:42.176,20.1251,36.5626
13:33:42.188,20.5626,34.8751
13:33:42.198,19.9376,32.5001
13:33:42.220,20.4376,29.9376
13:33:42.222,19.3751,27.6251
13:33:42.236,20.3751,24.6876
13:33:42.239,18.2501,20.8751
13:33:42.248,17.6251,18.0626
13:33:42.259,18.2501,14.0001
13:33:42.268,19.0001,9.9375
13:33:42.278,19.9376,7.375
13:33:42.288,21.2501,6.25
13:33:42.298,23.1251,3.0625
13:33:42.308,24.1251,0.375
13:33:42.318,25.0001,-1.1875
13:33:42.328,26.3126,-4.5625
13:33:42.339,26.1876,-6.75
13:33:42.348,26.5001,-9.375
13:33:42.358,25.5001,-13.5001
13:33:42.368,23.8126,-16.3126
13:33:42.378,23.1251,-19.4376
13:33:42.388,21.3126,-23.3126
13:33:42.398,18.6251,-28.7501
13:33:42.410,15.0001,-33.9376
13:33:42.418,10.0625,-38.6876
13:33:42.428,5.25,-44.4377
13:33:42.438,-1.125,-49.8752
13:33:42.448,-6.9375,-54.4377
13:33:42.464,-12.125,-60.5627
13:33:42.468,-18.6251,-66.3753
13:33:42.484,-25.1876,-71.2503
13:33:42.488,-30.6876,-76.5628
13:33:42.498,-36.8751,-82.1878
13:33:42.508,-42.7502,-84.6878
13:33:42.518,-48.0002,-90.2503
13:33:42.529,-52.7502,-95.1879
13:33:42.538,-56.6252,-97.6254
13:33:42.551,-60.2502,-101.6879
13:33:42.558,-63.4377,-104.3129
13:33:42.568,-65.6878,-107.5629
13:33:42.578,-66.0003,-106.9379
13:33:42.588,-67.3753,-108.5629
13:33:42.599,-67.5628,-110.4379
13:33:42.608,-67.8128,-110.4379
13:33:42.618,-69.0003,-112.0629
13:33:42.628,-69.1253,-113.5629
13:33:42.638,-69.3128,-115.0004
13:33:42.648,-68.5628,-115.5629
13:33:42.658,-69.1253,-114.8754
13:33:42.668,-67.3128,-116.7504
13:33:42.678,-65.8128,-116.3754
13:33:42.707,-66.1878,-117.2504
13:33:42.712,-64.8127,-117.938
13:33:42.712,-63.7502,-115.8754
13:33:42.718,-60.6877,-110.0629
13:33:42.758,-55.6252,-99.9379
13:33:42.760,-51.1877,-87.3128
13:33:42.763,-43.5627,-73.0003
13:33:42.768,-34.8126,-58.1252
13:33:42.769,-27.8751,-45.1252
13:33:42.799,-21.1251,-33.3751
13:33:42.802,-16.8126,-23.2501
13:33:42.804,-13.3751,-16.0001
13:33:42.809,-10.8125,-10
13:33:42.838,-8.625,-7.1875
13:33:42.840,-6.4375,-2.125
13:33:42.843,-5.5625,-0.25
13:33:42.849,-3.4375,2.5
13:33:42.861,-2.1875,6.0625
13:33:42.868,-0.5,8.3125
13:33:42.878,1.4375,11.25
13:33:42.888,1.875,14.2501
13:33:42.898,3.5,16.7501
13:33:42.908,3.5625,18.6876
13:33:42.918,4.0625,20.3751
13:33:42.928,3.0625,21.0626
13:33:42.938,3.125,20.0626
13:33:42.948,3.0625,19.8126
13:33:42.958,2.875,19.8126
13:33:42.968,4.3125,20.6876
13:33:42.999,4.5,21.8751
13:33:43.002,5.625,22.6876
13:33:43.004,4.6875,23.0001
13:33:43.009,6.125,24.3751
13:33:43.020,8.625,25.4376
13:33:43.029,9.9375,26.2501
13:33:43.038,12.8125,29.3751
13:33:43.048,14.8126,29.3126
13:33:43.058,15.5626,30.1251
13:33:43.068,16.0626,30.0626
13:33:43.078,17.0626,29.4376
13:33:43.088,15.6251,26.8751
13:33:43.098,13.8126,26.1876
13:33:43.108,12.625,25.1876
13:33:43.119,11.9375,23.7501
13:33:43.128,10.125,21.3126
13:33:43.138,9.6875,20.0626
13:33:43.148,11.1875,19.6251
13:33:43.158,10.5625,17.6876
13:33:43.169,10.8125,14.8751
13:33:43.179,10.5625,12.4375
13:33:43.188,10.3125,12.5
13:33:43.198,11,9.3125
13:33:43.208,10.125,6.5
13:33:43.218,8.4375,3.5625
13:33:43.228,7.625,2.0625
13:33:43.238,6.4375,-1.0625
13:33:43.248,5.25,-4.3125
13:33:43.259,2.9375,-8.375
13:33:43.269,0.625,-11.875
13:33:43.278,-0.5625,-12.9375
13:33:43.290,-3.1875,-16.5626
13:33:43.304,-5.0625,-19.8751
13:33:43.309,-7.9375,-22.5001
13:33:43.318,-10.4375,-25.5001
13:33:43.328,-13.2501,-29.1876
13:33:43.340,-16.6251,-33.0626
13:33:43.348,-19.9376,-35.6876
13:33:43.358,-22.1876,-38.3751
13:33:43.387,-24.9376,-43.8127
13:33:43.389,-26.4376,-46.5627
13:33:43.392,-28.1251,-46.5002
13:33:43.399,-29.0626,-50.7502
13:33:43.425,-28.6876,-52.8752
13:33:43.427,-28.3751,-52.9377
13:33:43.429,-28.9376,-55.4377
13:33:43.456,-29.4376,-56.6252
13:33:43.458,-29.1876,-57.9377
13:33:43.461,-28.8751,-59.8127
13:33:43.468,-30.0626,-59.4377
13:33:43.483,-31.6251,-62.5002
13:33:43.488,-34.0626,-62.3127
13:33:43.547,-38.5001,-66.1878
13:33:43.548,-38.5001,-66.9378
13:33:43.549,-38.6876,-66.8128
13:33:43.557,-40.5002,-69.8128
13:33:43.557,-40.1877,-69.9378
13:33:43.557,-41.2502,-71.5003
13:33:43.564,-41.2502,-72.5628
13:33:43.573,-40.3752,-72.0628
13:33:43.583,-39.5627,-69.7503
13:33:43.593,-36.8751,-67.1878
13:33:43.603,-32.2501,-59.6877
13:33:43.613,-25.6876,-49.1877
13:33:43.623,-16.9376,-35.5626
13:33:43.633,-9.5,-20.7501
13:33:43.643,-0.0625,-7.125
13:33:43.653,6.9375,7.0625
13:33:43.663,14.3126,18.3126
13:33:43.673,20.1251,28.8751
13:33:43.686,25.3126,36.3751
13:33:43.693,28.2501,42.3752
13:33:43.703,29.9376,47.1877
13:33:43.713,31.6876,51.3752
13:33:43.723,34.1876,58.2502
13:33:43.733,33.8751,62.3752
13:33:43.743,33.1876,63.5002
13:33:43.761,32.1876,67.0628
13:33:43.763,31.3126,69.7503
13:33:43.778,31.6876,75.5628
13:33:43.783,32.8751,82.6253
13:33:43.793,35.5001,89.6878
13:33:43.803,34.1251,92.2504
13:33:43.815,33.2501,96.0629
13:33:43.823,31.8126,97.0004
13:33:43.833,28.7501,95.9379
13:33:43.843,24.5001,93.0004
13:33:43.853,22.5001,92.0629
13:33:43.863,18.8126,91.6879
13:33:43.873,16.9376,91.1254
13:33:43.883,12.375,90.9379
13:33:43.893,11.6875,94.5629
13:33:43.903,12.625,97.1254
13:33:43.914,12.75,99.1879
13:33:43.923,12.6875,101.4379
13:33:43.933,11.0625,102.5004
13:33:43.945,9.625,103.5629
13:33:43.953,9.0625,102.9379
13:33:43.963,9.125,103.6879
13:33:43.974,11.8125,106.2504
13:33:43.983,12.8125,106.7504
13:33:43.993,13.3126,108.4379
13:33:44.003,14.0001,107.5004
13:33:44.013,12.75,106.3754
13:33:44.023,12.0625,103.3754
13:33:44.033,11.75,101.0004
13:33:44.044,11.5625,99.4379
13:33:44.053,11.3125,96.3754
13:33:44.068,11.4375,95.1254
13:33:44.095,12.5625,92.7504
13:33:44.098,13.8126,92.2504
13:33:44.101,16.0626,92.2504
13:33:44.104,23.1251,92.2504
13:33:44.132,41.4377,108.8129
13:33:44.134,48.7502,111.2504
13:33:44.137,56.4377,114.7504
13:33:44.143,63.2502,118.2505
13:33:44.178,68.4378,118.688
13:33:44.181,73.5003,119.2505
13:33:44.183,78.0628,120.8755
13:33:44.190,81.6253,119.3755
13:33:44.217,86.1878,121.1255
13:33:44.218,90.8754,120.6255
13:33:44.220,95.1254,121.1255
13:33:44.223,98.4379,122.5005
13:33:44.243,99.6879,120.938
13:33:44.245,100.3754,119.0005
13:33:44.253,100.5629,116.7504
13:33:44.281,99.4379,115.0004
13:33:44.284,99.6879,111.6254
13:33:44.287,99.0004,108.5004
13:33:44.293,98.8129,106.3754
13:33:44.303,97.2504,103.8129
13:33:44.313,93.4379,99.6254
13:33:44.323,92.1254,96.5004
13:33:44.333,91.6879,93.1879
13:33:44.343,89.5628,89.7503
13:33:44.353,87.6253,87.3753
13:33:44.362,85.7503,83.5628
13:33:44.373,84.6878,80.4378
13:33:44.383,83.1878,78.1253
13:33:44.398,80.1253,73.2503
13:33:44.408,77.6253,68.8753
13:33:44.418,75.0628,65.8753
13:33:44.428,72.7503,61.4377
13:33:44.438,69.9378,57.7502
13:33:44.448,66.3753,52.4377
13:33:44.458,63.5627,48.9377
13:33:44.468,61.5627,45.3752
13:33:44.478,57.9377,41.3127
13:33:44.488,55.9377,38.3126
13:33:44.498,56.1252,38.1251
13:33:44.508,58.0627,42.8752
13:33:44.518,62.6252,50.8752
13:33:44.528,67.0628,59.2502
13:33:44.538,71.6253,69.5628
13:33:44.549,75.5003,78.5003
13:33:44.559,80.8128,92.6254
13:33:44.568,82.3128,97.5004
13:33:44.578,84.1878,99.8754
13:33:44.588,83.1253,101.3129
13:33:44.598,81.4378,102.5004
13:33:44.608,80.6878,101.2504
13:33:44.619,78.4378,98.8129
13:33:44.628,76.6878,98.1879
13:33:44.638,75.8753,98.5629
13:33:44.648,75.8128,98.0004
13:33:44.658,75.8128,97.9379
13:33:44.668,75.7503,99.4379
13:33:44.681,77.0003,101.4379
13:33:44.689,76.7503,101.6879
13:33:44.698,76.3753,102.5004
13:33:44.708,76.3128,102.1254
13:33:44.718,74.8753,99.6254
13:33:44.728,73.1878,97.5004
13:33:44.738,71.5003,95.3754
13:33:44.748,70.5628,92.9379
13:33:44.758,69.8128,92.5004
13:33:44.768,68.9378,90.5003
13:33:44.778,68.6253,90.0004
13:33:44.788,68.1878,89.7503
13:33:44.798,68.0003,89.8753
13:33:44.838,67.6878,89.1253
13:33:44.840,66.7503,88.1878
13:33:44.843,65.6253,87.4378
13:33:44.845,64.3752,85.5628
13:33:44.848,61.7502,83.8128
13:33:44.859,60.3752,80.6253
13:33:44.869,57.6877,78.0003
13:33:44.900,55.6252,73.8128
13:33:44.903,52.3127,69.5628
13:33:44.906,50.0002,67.3753
13:33:44.909,48.5002,63.3752
13:33:44.938,46.6877,60.7502
13:33:44.941,45.7502,57.6877
13:33:44.945,44.5002,57.0627
13:33:44.948,42.7502,52.8127
13:33:44.962,40.7502,51.0002
13:33:44.970,39.2501,47.3752
13:33:44.983,38.5626,45.0002
13:33:44.991,36.6251,43.8752
13:33:45.001,35.3751,40.9377
13:33:45.008,33.8126,39.8752
13:33:45.018,33.6251,36.7501
13:33:45.028,32.0001,34.8126
13:33:45.038,31.1876,32.3751
13:33:45.056,29.2501,29.2501
13:33:45.059,29.0001,28.1876
13:33:45.074,27.8126,25.5001
13:33:45.079,26.5001,23.1876
13:33:45.088,25.3126,21.3126
13:33:45.098,23.1876,18.9376
13:33:45.108,22.9376,16.3126
13:33:45.118,20.7501,13.8126
13:33:45.128,19.1876,12.1875
13:33:45.138,17.9376,8.5625
13:33:45.148,16.0001,6.5625
13:33:45.158,14.1251,4.25
13:33:45.168,13.125,0.8125
13:33:45.178,12.5625,-0.5625
13:33:45.189,10.6875,-3.5
13:33:45.198,10.5625,-4.1875
13:33:45.208,8.75,-7.5
13:33:45.218,6.875,-9.5625
13:33:45.229,5.6875,-11.625
13:33:45.238,5.875,-13.8126
13:33:45.248,3.5,-16.1876
13:33:45.258,2.5625,-18.2501
13:33:45.268,0.6875,-21.4376
13:33:45.278,-0.6875,-23.0626
13:33:45.289,-2.25,-26.6251
13:33:45.298,-3,-27.0001
13:33:45.308,-2.6875,-28.1251
13:33:45.318,-0.9375,-25.8751
13:33:45.328,3.375,-19.8751
13:33:45.338,7.6875,-10.9375
13:33:45.348,13.4376,0.0625
13:33:45.360,19.8751,10.125
13:33:45.369,25.7501,21.8126
13:33:45.382,29.7501,31.5001
13:33:45.388,32.8751,38.8751
13:33:45.398,35.6251,43.8127
13:33:45.409,37.1876,49.1252
13:33:45.418,38.2501,51.1252
13:33:45.428,38.5626,53.3752
13:33:45.439,38.7501,54.3127
13:33:45.448,40.0627,55.8127
13:33:45.458,39.6877,56.6877
13:33:45.469,40.3127,57.6877
13:33:45.478,41.2502,60.6252
13:33:45.488,41.8127,63.5627
13:33:45.498,44.1252,65.6252
13:33:45.508,43.7502,66.6253
13:33:45.519,44.2502,68.5628
13:33:45.529,44.5627,69.6878
13:33:45.560,44.3752,69.0003
13:33:45.562,43.0002,67.3753
13:33:45.566,40.8752,64.8127
13:33:45.570,39.8752,63.8127
13:33:45.594,40.4377,62.5627
13:33:45.596,38.5001,61.2502
13:33:45.599,37.8751,60.8752
13:33:45.625,37.7501,59.9377
13:33:45.628,37.5001,59.7502
13:33:45.630,37.3126,60.0002
13:33:45.660,37.0626,59.2502
13:33:45.663,36.5001,59.3127
13:33:45.665,35.8751,58.6877
13:33:45.670,35.1876,57.8752
13:33:45.706,33.6876,56.6252
13:33:45.708,32.1876,55.0627
13:33:45.710,31.4376,52.6877
13:33:45.718,29.0626,49.8127
13:33:45.719,27.8751,47.4377
13:33:45.728,26.1251,44.3127
13:33:45.738,24.6251,42.6877
13:33:45.748,23.8751,39.8752
13:33:45.759,22.6251,37.4376
13:33:45.770,21.8751,35.2501
13:33:45.780,19.8126,32.9376
13:33:45.788,18.4376,31.7501
13:33:45.801,17.4376,29.0001
13:33:45.809,16.7501,27.3126
13:33:45.818,17.1251,25.4376
13:33:45.829,15.4376,24.3126
13:33:45.839,14.8126,20.4376
13:33:45.848,14.3751,18.5626
13:33:45.858,13.6251,17.3126
13:33:45.868,12.4375,14.0001
13:33:45.879,10.9375,12.1875
13:33:45.888,10.0625,9.9375
13:33:45.899,9,7.4375
13:33:45.909,7.875,6.0625
13:33:45.918,6.1875,3
13:33:45.929,5.1875,1.0625
13:33:45.938,3.5625,-1.1875
13:33:45.949,3.25,-3.375
13:33:45.958,2.1875,-5.875
13:33:45.969,-0.1875,-7.75
13:33:45.978,-0.4375,-10.4375
13:33:45.993,-2.0625,-12.8125
13:33:46.004,-2.6875,-14.9376
13:33:46.013,-4.3125,-17.5626
13:33:46.023,-5.3125,-19.8126
13:33:46.034,-5.5625,-21.4376
13:33:46.043,-7.25,-23.1876
13:33:46.053,-8.5,-25.3126
13:33:46.067,-9.4375,-28.0001
13:33:46.073,-10.9375,-30.2501
13:33:46.084,-12,-33.0001
13:33:46.093,-13.3751,-35.6876
13:33:46.104,-14.2501,-37.2501
13:33:46.120,-15.4376,-40.3752
13:33:46.137,-16.5001,-41.2502
13:33:46.152,-17.0001,-44.5002
13:33:46.154,-18.1876,-45.8127
13:33:46.156,-16.6251,-45.4377
13:33:46.163,-14.3126,-40.3127
13:33:46.174,-9.625,-33.7501
13:33:46.184,-3.3125,-21.6251
13:33:46.193,2.8125,-10.9375
13:33:46.204,9.4375,1.5625
13:33:46.214,15.2501,12.25
13:33:46.225,18.8126,22.4376
13:33:46.234,23.0001,28.1876
13:33:46.245,24.5001,34.5626
13:33:46.253,26.3751,37.5001
13:33:46.264,26.2501,41.6252
13:33:46.273,27.1251,41.8752
13:33:46.293,27.5626,43.2502
13:33:46.295,27.4376,45.0627
13:33:46.334,28.1876,46.3752
13:33:46.335,28.8751,48.4377
13:33:46.338,29.9376,50.6877
13:33:46.418,30.8126,53.6252
13:33:46.418,32.0626,56.2502
13:33:46.448,33.2501,58.0627
13:33:46.448,33.4376,59.4377
13:33:46.450,33.1251,59.6252
13:33:46.452,32.2501,58.5002
13:33:46.456,30.8126,56.8127
13:33:46.458,29.5001,55.9377
13:33:46.458,28.9376,53.3752
13:33:46.464,27.5001,51.3752
13:33:46.474,27.5001,50.8127
13:33:46.484,27.0626,50.5002
13:33:46.495,27.1251,50.1877
13:33:46.510,27.1876,49.5002
13:33:46.514,26.0626,50.7502
13:33:46.525,26.2501,49.3127
13:33:46.534,25.5626,49.0627
13:33:46.544,25.7501,48.1877
13:33:46.554,24.4376,47.3752
13:33:46.564,23.3751,44.8127
13:33:46.574,20.7501,41.2502
13:33:46.584,19.1876,38.8751
13:33:46.595,18.4376,35.2501
13:33:46.604,17.0001,33.0001
13:33:46.616,14.8126,29.3751
13:33:46.624,10.9375,21.5626
13:33:46.633,8.6875,18.2501
13:33:46.644,7.875,15.8751
13:33:46.653,6.4375,13.7501
13:33:46.664,5.5,11.9375
13:33:46.675,3.6875,9.1875
13:33:46.684,3.5625,6.625
13:33:46.694,0.625,4.25
13:33:46.706,0.1875,1.75
13:33:46.714,-1.0625,-0.8125
13:33:46.724,-2,-2.5
13:33:46.734,-3.1875,-5.125
13:33:46.744,-4,-7.3125
13:33:46.754,-4.25,-9.3125
13:33:46.764,-5.875,-11.0625
13:33:46.774,-6.625,-13.5626
13:33:46.784,-8.3125,-15.6876
13:33:46.796,-9.375,-17.3126
13:33:46.806,-10.125,-20.6251
13:33:46.814,-11.5625,-21.7501
13:33:46.839,-12.6875,-24.5001
13:33:46.841,-13.7501,-26.3126
13:33:46.844,-14.8751,-28.4376
13:33:46.854,-15.3126,-30.3751
13:33:46.864,-16.2501,-31.7501
13:33:46.874,-17.8126,-34.2501
13:33:46.890,-18.1251,-37.1251
13:33:46.896,-20.4376,-38.3751
13:33:46.904,-21.7501,-42.0002
13:33:46.914,-22.3126,-44.8127
13:33:46.924,-24.1251,-46.5627
13:33:46.934,-24.4376,-49.6877
13:33:46.944,-25.1876,-50.6252
13:33:46.956,-25.1876,-51.5627
13:33:46.964,-24.6876,-50.6252
13:33:46.976,-21.1251,-46.0627
13:33:46.984,-17.8751,-38.6251
13:33:46.994,-12.1875,-29.0626
13:33:47.004,-7,-17.5001
13:33:47.014,-0.4375,-6.625
13:33:47.024,4.3125,3.625
13:33:47.036,9.25,13.4376
13:33:47.044,11.875,19.9376
13:33:47.058,13.8126,26.0626
13:33:47.065,16.0626,30.1876
13:33:47.107,16.3126,32.6251
13:33:47.109,16.6251,32.9376
13:33:47.112,16.0001,34.8126
13:33:47.114,17.1876,36.1876
13:33:47.120,17.6876,37.3126
13:33:47.124,18.6251,38.6876
13:33:47.151,18.4376,40.8752
13:33:47.155,20.1876,43.1877
13:33:47.158,20.5001,44.9377
13:33:47.164,21.3126,45.8127
13:33:47.191,20.3126,45.8752
13:33:47.193,18.8751,44.6877
13:33:47.196,18.3751,41.9377
13:33:47.226,16.7501,39.4377
13:33:47.229,15.5626,39.1876
13:33:47.230,15.3126,37.8126
13:33:47.234,15.3751,36.7501
13:33:47.246,14.8751,36.0626
13:33:47.254,15.4376,36.1251
13:33:47.264,14.9376,36.9376
13:33:47.274,14.0001,36.2501
13:33:47.285,14.1251,35.1251
13:33:47.294,13.8751,34.7501
13:33:47.304,13.1876,34.3126
13:33:47.317,12.8125,31.8126
13:33:47.324,12.4375,31.0001
13:33:47.337,10.875,27.8126
13:33:47.345,10.0625,26.0001
13:33:47.354,8.75,23.5001
13:33:47.364,6.875,21.1251
13:33:47.374,6.75,18.4376
13:33:47.386,4.9375,15.7501
13:33:47.395,4.3125,12.9375
13:33:47.404,2.3125,9.75
13:33:47.414,1.5,8.25
13:33:47.429,0.5,5.4375
13:33:47.438,-1.6875,3.3125
13:33:47.445,-2.4375,0.9375
13:33:47.459,-3.8125,-2
13:33:47.469,-5.3125,-4.25
13:33:47.474,-6.1875,-7.25
13:33:47.484,-7.625,-9.3125
13:33:47.494,-9.9375,-12.0625
13:33:47.504,-10.6875,-14.7501
13:33:47.515,-11.8125,-17.2501
13:33:47.524,-13.0625,-18.6876
13:33:47.534,-13.7501,-21.4376
13:33:47.544,-15.0626,-22.8751
13:33:47.554,-16.4376,-25.1251
13:33:47.564,-18.2501,-28.5626
13:33:47.576,-19.3751,-31.1876
13:33:47.584,-20.4376,-33.0001
13:33:47.594,-20.5626,-35.0626
13:33:47.606,-22.5626,-36.8126
13:33:47.614,-22.6251,-38.9376
13:33:47.624,-24.6251,-41.3127
13:33:47.637,-25.5626,-43.0627
13:33:47.646,-26.1251,-45.3127
13:33:47.654,-27.6876,-48.2502
13:33:47.664,-28.7501,-50.4377
13:33:47.674,-29.7501,-52.5627
13:33:47.684,-31.0626,-54.3127
13:33:47.700,-31.8751,-56.8752
13:33:47.735,-32.1251,-58.3127
13:33:47.737,-33.8126,-61.5627
13:33:47.764,-34.5626,-63.1252
13:33:47.767,-35.3126,-64.9377
13:33:47.769,-35.8126,-67.0003
13:33:47.774,-36.9376,-67.1878
13:33:47.774,-36.8126,-69.3753
13:33:47.774,-35.1251,-66.1878
13:33:47.816,-31.9376,-61.8752
13:33:47.818,-25.2501,-52.5002
13:33:47.821,-20.2501,-41.3127
13:33:47.823,-13.6251,-29.2501
13:33:47.825,-7.875,-17.3126
13:33:47.834,-1.625,-6.75
13:33:47.861,2.8125,3.25
13:33:47.863,6.25,10.8125
13:33:47.865,9.375,16.0001
13:33:47.899,10.375,19.6876
13:33:47.902,10.375,22.6876
13:33:47.904,10.9375,23.5001
13:33:47.907,11.5,23.7501
13:33:47.914,11.625,26.3126
13:33:47.924,12.625,28.5626
13:33:47.934,14.1876,30.3751
13:33:47.944,15.3751,32.4376
13:33:47.957,17.0626,36.0001
13:33:47.965,18.2501,37.6876
13:33:47.974,18.8126,40.1252
13:33:47.985,19.4376,41.3752
13:33:47.994,18.8126,41.2502
13:33:48.005,17.4376,39.8752
13:33:48.014,16.8126,37.5626
13:33:48.024,16.4376,35.2501
13:33:48.034,14.4376,34.0001
13:33:48.045,13.5626,32.1876
13:33:48.055,12.8125,29.9376
13:33:48.066,12.5,30.1251
13:33:48.074,11.5625,28.3126
13:33:48.084,11.5625,28.6876
13:33:48.094,11.75,27.8751
13:33:48.120,11.5,27.1876
13:33:48.121,10.75,26.3751
13:33:48.124,10.3125,25.8751
13:33:48.135,9.4375,24.8751
13:33:48.145,8.8125,22.0626
13:33:48.154,7.0625,20.2501
13:33:48.165,5.6875,17.4376
13:33:48.174,4.625,15.0001
13:33:48.184,2.8125,12.0625
13:33:48.194,1.4375,8.875
13:33:48.204,0.5,5.9375
13:33:48.214,-0.6875,3.625
13:33:48.224,-2.4375,1.375
13:33:48.235,-3.625,-0.4375
13:33:48.244,-4.9375,-3.125
13:33:48.254,-6.375,-5.375
13:33:48.264,-6.5625,-8.1875
13:33:48.274,-7.625,-10.9375
13:33:48.286,-9,-12.8125
13:33:48.294,-10,-15.4376
13:33:48.304,-10.5,-16.5001
13:33:48.314,-11.125,-19.0626
13:33:48.325,-12.625,-21.0626
13:33:48.334,-14.0626,-22.5001
13:33:48.344,-14.4376,-25.9376
13:33:48.354,-16.4376,-28.4376
13:33:48.364,-17.3126,-30.0001
13:33:48.374,-17.5001,-32.4376
13:33:48.389,-18.4376,-34.5001
13:33:48.394,-19.3126,-36.5626
13:33:48.404,-20.4376,-37.6251
13:33:48.415,-21.0626,-41.1252
13:33:48.424,-22.4376,-42.3127
13:33:48.436,-23.1251,-45.5627
13:33:48.450,-23.6251,-46.1877
13:33:48.461,-25.0001,-47.1877
13:33:48.469,-25.1876,-50.1252
13:33:48.479,-25.9376,-51.9377
13:33:48.506,-27.4376,-53.6877
13:33:48.508,-27.5626,-56.5002
13:33:48.510,-29.5001,-58.2502
13:33:48.543,-29.3126,-59.9377
13:33:48.544,-29.2501,-60.5002
13:33:48.547,-30.9376,-63.4377
13:33:48.550,-31.6251,-64.9377
13:33:48.577,-32.6251,-67.4378
13:33:48.579,-32.9376,-68.4378
13:33:48.581,-34.1251,-70.8753
13:33:48.611,-35.0626,-72.5628
13:33:48.613,-35.9376,-74.5003
13:33:48.616,-36.3126,-75.3128
13:33:48.620,-34.2501,-73.6878
13:33:48.648,-30.3751,-67.5628
13:33:48.650,-25.1876,-59.1877
13:33:48.653,-19.4376,-48.3127
13:33:48.660,-12.5,-36.0001
13:33:48.672,-6.6875,-25.3126
13:33:48.679,-1.5625,-15.1251
13:33:48.689,2.125,-7.3125
13:33:48.702,4.5,-0.75
13:33:48.709,6.5,3.1875
13:33:48.719,7.25,4.25
13:33:48.729,6.6875,7.375
13:33:48.739,6.9375,7.6875
13:33:48.754,7.375,7.75
13:33:48.762,7.625,8.375
13:33:48.776,8.375,9.25
13:33:48.791,8.625,11.375
13:33:48.794,9.5625,13.5001
13:33:48.804,11.1875,15.6876
13:33:48.814,12.3125,17.6876
13:33:48.827,12.9375,18.4376
13:33:48.834,12.1875,19.5626
13:33:48.844,11.9375,18.1251
13:33:48.854,10.75,16.3126
13:33:48.866,9.8125,15.2501
13:33:48.876,9.75,13.9376
13:33:48.884,9,11.9375
13:33:48.894,8.125,11.3125
13:33:48.904,7.5625,11.5625
13:33:48.914,8.3125,11.8125
13:33:48.926,8.5,12.0625
13:33:48.934,9,12.8125
13:33:48.944,8.4375,12
13:33:48.955,7.875,11.6875
13:33:48.964,8.6875,11.875
13:33:48.975,7.625,11.3125
13:33:48.985,6.4375,9.75
13:33:48.994,5.625,7.125
13:33:49.004,3.625,5.75
13:33:49.014,3.0625,3.125
13:33:49.029,1.5,0.5
13:33:49.037,0.1875,-1.6875
13:33:49.045,-0.9375,-4.25
13:33:49.060,-2,-6.0625
13:33:49.069,-3,-7.625
13:33:49.074,-4.25,-10.5
13:33:49.084,-4.875,-11.1875
13:33:49.094,-5.5,-13.7501
13:33:49.105,-6.0625,-15.3126
13:33:49.116,-6.3125,-15.8751
13:33:49.124,-7.125,-18.2501
13:33:49.135,-7.0625,-19.5001
13:33:49.148,-7.0625,-20.4376
13:33:49.154,-7.875,-21.6876
13:33:49.166,-7.8125,-22.7501
13:33:49.174,-8.625,-23.6251
13:33:49.184,-9.375,-25.1876
13:33:49.194,-9.5625,-27.5001
13:33:49.204,-10.8125,-27.5001
13:33:49.214,-11.375,-30.8751
13:33:49.225,-12.3125,-31.6251
13:33:49.240,-12.875,-34.2501
13:33:49.246,-14.1251,-35.3751
13:33:49.281,-15.0001,-38.0626
13:33:49.283,-15.5001,-39.2502
13:33:49.285,-17.1251,-41.8752
13:33:49.288,-18.1251,-43.5002
13:33:49.316,-18.7501,-44.4377
13:33:49.318,-19.9376,-47.3127
13:33:49.321,-20.1251,-48.1877
13:33:49.326,-22.1251,-49.1877
13:33:49.360,-22.8751,-52.3127
13:33:49.365,-22.8751,-53.8127
13:33:49.365,-24.8126,-56.6252
13:33:49.369,-25.5626,-58.2502
13:33:49.400,-26.5001,-60.2502
13:33:49.402,-27.0626,-61.8752
13:33:49.404,-28.1251,-62.5627
13:33:49.407,-28.0626,-65.5628
13:33:49.418,-28.1876,-65.3128
13:33:49.424,-28.1251,-64.3752
13:33:49.436,-25.7501,-61.9377
13:33:49.444,-20.8126,-54.0002
13:33:49.454,-14.8126,-45.1877
13:33:49.464,-9.625,-33.0001
13:33:49.475,-2.5625,-21.5626
13:33:49.484,3,-9.875
13:33:49.495,7.375,0.25
13:33:49.504,11.8125,6.375
13:33:49.515,14.0626,12.5
13:33:49.529,16.0626,16.8751
13:33:49.534,17.1876,18.8126
13:33:49.544,17.0626,20.3126
13:33:49.554,17.3751,20.3751
13:33:49.565,16.9376,21.4376
13:33:49.574,18.5626,22.5001
13:33:49.586,18.5626,23.4376
13:33:49.595,19.2501,25.8751
13:33:49.604,19.8751,27.7501
13:33:49.614,21.3126,29.5626
13:33:49.624,21.2501,30.8126
13:33:49.635,21.8126,32.5626
13:33:49.644,20.8751,31.8126
13:33:49.659,19.8126,30.7501
13:33:49.670,18.5001,28.0001
13:33:49.679,17.1876,25.5001
13:33:49.689,16.3751,24.9376
13:33:49.701,15.1876,25.1876
13:33:49.709,16.1251,23.3126
13:33:49.719,16.2501,24.3126
13:33:49.729,15.8751,23.2501
13:33:49.740,16.2501,24.5001
13:33:49.749,16.3751,25.3751
13:33:49.759,17.0626,25.5001
13:33:49.770,17.4376,25.2501
13:33:49.780,17.0626,25.0001
13:33:49.789,16.6251,24.4376
13:33:49.799,16.0001,22.9376
13:33:49.809,15.6251,21.1876
13:33:49.821,13.8751,19.2501
13:33:49.829,12.5,16.5626
13:33:49.839,11.625,13.9376
13:33:49.849,11,12.125
13:33:49.860,9.3125,10.3125
13:33:49.869,8.625,7.9375
13:33:49.880,7.25,5.3125
13:33:49.890,5.75,4.4375
13:33:49.904,5.6875,1.375
13:33:49.914,3.8125,-0.125
13:33:49.945,3.0625,-3.0625
13:33:49.948,1.375,-4.8125
13:33:49.951,0.75,-5.8125
13:33:49.953,-0.0625,-8.4375
13:33:49.959,-0.9375,-11
13:33:49.994,-2.1875,-12.4375
13:33:49.997,-3.3125,-14.3126
13:33:49.998,-3.9375,-16.6876
13:33:50.002,-5.0625,-18.4376
13:33:50.032,-5.5625,-20.5001
13:33:50.035,-7.8125,-22.5001
13:33:50.038,-8.25,-24.0626
13:33:50.093,-9.125,-25.8751
13:33:50.093,-10.375,-27.8751
13:33:50.106,-11.8125,-29.7501
13:33:50.109,-12.25,-32.1876
13:33:50.123,-13.0625,-32.9376
13:33:50.123,-14.3126,-37.0001
13:33:50.126,-14.9376,-37.0001
13:33:50.130,-16.4376,-40.1252
13:33:50.141,-17.5001,-41.8127
13:33:50.149,-19.2501,-44.1252
13:33:50.160,-19.6251,-46.0002
13:33:50.170,-20.8126,-46.6877
13:33:50.180,-21.8751,-50.1252
13:33:50.189,-22.5626,-52.0002
13:33:50.201,-23.7501,-53.9377
13:33:50.212,-24.5626,-54.9377
13:33:50.220,-25.8126,-56.6877
13:33:50.229,-26.3751,-59.8752
13:33:50.240,-27.0626,-61.0627
13:33:50.250,-28.5626,-63.9377
13:33:50.261,-29.2501,-65.9378
13:33:50.269,-30.1251,-67.8128
13:33:50.280,-23.0001,-56.9377
13:33:50.291,-16.8126,-46.5002
13:33:50.301,-11.0625,-33.7501
13:33:50.309,-4.125,-21.8126
13:33:50.319,0.9375,-9.375
13:33:50.332,6.1875,-0.9375
13:33:50.339,10.375,8.75
13:33:50.354,13.7501,14.8751
13:33:50.362,15.6876,20.1251
13:33:50.369,16.5626,23.1876
13:33:50.385,16.7501,25.8751
13:33:50.401,18.4376,26.5001
13:33:50.404,18.5626,28.5001
13:33:50.410,18.8126,29.0626
13:33:50.419,18.9376,32.3751
13:33:50.429,20.8126,33.2501
13:33:50.440,21.4376,37.6251
13:33:50.450,23.0626,39.4377
13:33:50.459,24.1876,42.8127
13:33:50.469,25.1876,43.7502
13:33:50.480,23.6251,44.9377
13:33:50.489,23.1876,43.4377
13:33:50.500,22.7501,41.8752
13:33:50.509,21.3126,39.8127
13:33:50.521,20.7501,38.6876
13:33:50.529,20.1876,38.5626
13:33:50.540,20.0626,38.0626
13:33:50.549,18.9376,37.9376
13:33:50.559,19.1251,37.5626
13:33:50.572,19.3126,37.1876
13:33:50.580,19.9376,37.6876
13:33:50.592,19.5001,37.8751
13:33:50.599,19.8751,38.0001
13:33:50.609,18.9376,36.4376
13:33:50.620,18.6876,35.8751
13:33:50.633,18.2501,34.6251
13:33:50.640,17.5001,34.2501
13:33:50.679,16.1251,31.6251
13:33:50.683,15.2501,29.0001
13:33:50.684,13.6876,27.1876
13:33:50.689,12,24.3126
13:33:50.690,10.75,21.6876
13:33:50.728,9,19.8126
13:33:50.730,8.1875,17.3126
13:33:50.733,6.75,14.8751
13:33:50.735,5,13.3751
13:33:50.741,4.875,10.1875
13:33:50.768,3.1875,9.375
13:33:50.770,2.625,6.4375
13:33:50.773,0.8125,3.9375
13:33:50.803,0,1.9375
13:33:50.805,-1.875,-0.8125
13:33:50.808,-2.6875,-2.375
13:33:50.812,-2.75,-4.9375
13:33:50.837,-4,-6.375
13:33:50.839,-5.4375,-8.75
13:33:50.841,-6.1875,-10.3125
13:33:50.849,-7.875,-11.5625
13:33:50.860,-8.125,-14.4376
13:33:50.869,-9.125,-16.6876
13:33:50.884,-10,-18.1251
13:33:50.890,-10.875,-20.3126
13:33:50.899,-11.75,-22.5001
13:33:50.909,-12.4375,-24.0001
13:33:50.922,-13.7501,-25.2501
13:33:50.929,-14.0001,-27.0626
13:33:50.940,-15.0626,-28.0001
13:33:50.950,-16.5626,-30.0626
13:33:50.960,-17.0626,-33.4376
13:33:50.970,-18.5626,-34.7501
13:33:50.980,-18.6251,-36.8126
13:33:50.990,-20.3126,-37.9376
13:33:51.000,-20.6251,-41.0002
13:33:51.010,-21.6876,-42.8752
13:33:51.020,-23.8751,-45.9377
13:33:51.032,-23.8126,-47.0002
13:33:51.041,-25.1251,-49.2502
13:33:51.050,-25.6876,-51.3127
13:33:51.060,-26.3751,-52.3127
13:33:51.070,-26.0626,-52.6877
13:33:51.079,-25.1251,-49.1252
13:33:51.091,-20.6876,-44.0627
13:33:51.099,-15.2501,-34.3126
13:33:51.110,-8.875,-23.0626
13:33:51.119,-2.5625,-11.5625
13:33:51.132,3.375,1.625
13:33:51.140,8.5625,11.4375
13:33:51.149,12.8125,21.5001
13:33:51.161,16.0001,27.4376
13:33:51.172,17.5626,33.0626
13:33:51.180,18.7501,36.5626
13:33:51.190,20.0626,39.2502
13:33:51.201,20.3126,40.2502
13:33:51.210,20.6876,41.1877
13:33:51.220,21.3751,42.8752
13:33:51.230,21.1251,43.8752
13:33:51.240,22.3126,45.1252
13:33:51.249,22.9376,47.4377
13:33:51.261,24.6876,48.7502
13:33:51.269,24.3126,50.1877
13:33:51.281,24.6876,50.4377
13:33:51.289,23.3751,50.3752
13:33:51.301,22.6876,49.7502
13:33:51.310,22.8126,47.1252
13:33:51.321,21.3126,45.6252
13:33:51.330,20.2501,45.8127
13:33:51.340,20.5001,44.6877
13:33:51.350,20.0001,43.5627
13:33:51.361,19.8751,44.2502
13:33:51.370,20.3126,44.0002
13:33:51.404,20.4376,45.0002
13:33:51.407,20.6251,44.2502
13:33:51.477,21.0626,45.1252
13:33:51.477,20.8126,44.4377
13:33:51.480,19.8126,43.3127
13:33:51.486,18.7501,41.9377
13:33:51.486,17.0626,40.0627
13:33:51.486,15.8126,37.2501
13:33:51.496,14.3751,34.1251
13:33:51.527,12.25,31.8751
13:33:51.529,11.625,29.1251
13:33:51.531,9.9375,26.3751
13:33:51.537,8.4375,23.8126
13:33:51.560,7.625,20.8751
13:33:51.563,6.8125,18.6251
13:33:51.566,5.625,16.0626
13:33:51.576,3.5625,13.5626
13:33:51.585,2.875,11.5
13:33:51.594,1.9375,8.875
13:33:51.606,-0.125,6.6875
13:33:51.616,-1.1875,4.25
13:33:51.625,-1.5,2.25
13:33:51.634,-3.25,0.3125
13:33:51.646,-4.0625,-2.75
13:33:51.656,-8.75,-12.1875
13:33:51.671,-9.375,-13.6876
13:33:51.674,-11.125,-15.3126
13:33:51.689,-11.3125,-17.9376
13:33:51.696,-12.8125,-20.0626
13:33:51.705,-13.7501,-22.9376
13:33:51.715,-15.3751,-26.0001
13:33:51.726,-16.5626,-27.5001
13:33:51.736,-17.8126,-30.3751
13:33:51.745,-18.6876,-32.1876
13:33:51.756,-19.7501,-34.0626
13:33:51.766,-20.6876,-35.5626
13:33:51.775,-21.9376,-37.5001
13:33:51.786,-22.6251,-40.3752
13:33:51.796,-22.8751,-41.2502
13:33:51.805,-24.3126,-44.3752
13:33:51.815,-25.3751,-45.7502
13:33:51.827,-26.7501,-48.2502
13:33:51.836,-26.6251,-48.8127
13:33:51.845,-27.5626,-51.8752
13:33:51.856,-28.6251,-53.3752
13:33:51.865,-29.8751,-56.3752
13:33:51.875,-30.0001,-57.6252
13:33:51.885,-31.6251,-59.1877
13:33:51.895,-32.8126,-61.4377
13:33:51.905,-32.0626,-61.8127
13:33:51.915,-30.9376,-59.0002
13:33:51.927,-27.3751,-54.4377
13:33:51.935,-21.4376,-45.0002
13:33:51.960,-14.1876,-30.2501
13:33:51.963,-6.5,-17.1876
13:33:51.967,1.25,-1.5625
13:33:51.975,7.3125,10.6875
13:33:51.985,12.9375,22.7501
13:33:51.995,17.7501,32.8751
13:33:52.006,20.8126,41.0002
13:33:52.015,23.0001,45.9377
13:33:52.025,23.8751,49.6877
13:33:52.036,25.6876,53.1252
13:33:52.045,26.0626,55.3752
13:33:52.055,27.5626,57.3127
13:33:52.065,27.2501,59.8127
13:33:52.075,28.7501,61.7502
13:33:52.085,30.5626,64.6877
13:33:52.095,32.0001,67.5003
13:33:52.107,32.7501,70.7503
13:33:52.115,33.8751,73.1878
13:33:52.125,33.6876,74.5003
13:33:52.135,33.5626,74.6253
13:33:52.146,32.8126,73.0628
13:33:52.158,31.9376,71.4378
13:33:52.191,31.1876,70.1253
13:33:52.193,30.2501,67.9378
13:33:52.197,29.6876,66.5628
13:33:52.199,28.2501,65.5002
13:33:52.205,28.1876,65.0627
13:33:52.243,28.3126,63.6252
13:33:52.245,27.7501,64.0002
13:33:52.248,27.7501,63.5002
13:33:52.273,27.4376,63.3127
13:33:52.274,27.2501,62.6877
13:33:52.276,26.8126,60.6252
13:33:52.280,26.0626,59.6252
13:33:52.285,25.6876,57.8127
13:33:52.316,23.1251,55.3752
13:33:52.318,23.0626,52.4377
13:33:52.319,20.1251,49.7502
13:33:52.325,17.9376,46.8127
13:33:52.344,16.6876,42.2502
13:33:52.346,14.5001,39.0001
13:33:52.355,13.5626,36.9376
13:33:52.365,12.125,32.8751
13:33:52.375,11.125,29.8751
13:33:52.385,9.1875,26.5001
13:33:52.395,7.3125,24.0626
13:33:52.405,6.375,20.8126
13:33:52.415,4.9375,18.1251
13:33:52.425,2.625,14.8751
13:33:52.437,1.875,11.8125
13:33:52.446,0.375,9.6875
13:33:52.455,-0.25,6.875
13:33:52.465,-1.1875,4.125
13:33:52.476,-3.1875,1.8125
13:33:52.485,-4.5625,0.375
13:33:52.495,-5.0625,-3.5
13:33:52.508,-7.3125,-5.875
13:33:52.541,-8.4375,-8.625
13:33:52.543,-10.125,-12
13:33:52.545,-10.4375,-13.4376
13:33:52.551,-11,-16.1876
13:33:52.562,-12.8125,-18.3126
13:33:52.570,-13.4376,-20.8126
13:33:52.580,-15.4376,-22.7501
13:33:52.592,-16.5001,-25.4376
13:33:52.600,-17.6876,-28.8126
13:33:52.610,-19.1876,-31.3126
13:33:52.622,-19.8751,-32.5626
13:33:52.631,-21.4376,-36.0001
13:33:52.640,-22.1876,-37.5001
13:33:52.651,-23.6251,-39.1877
13:33:52.660,-23.6251,-42.6252
13:33:52.670,-25.0001,-44.6877
13:33:52.680,-27.8126,-49.8127
13:33:52.691,-29.7501,-53.3752
13:33:52.700,-30.5626,-54.8127
13:33:52.719,-32.5001,-58.5627
13:33:52.725,-33.1251,-60.6877
13:33:52.740,-33.8126,-61.1252
13:33:52.743,-33.8126,-62.3127
13:33:52.753,-31.6876,-60.7502
13:33:52.760,-27.7501,-54.8127
13:33:52.770,-22.2501,-44.8127
13:33:52.782,-15.8751,-32.4376
13:33:52.790,-8.25,-17.9376
13:33:52.800,-1.4375,-4.5
13:33:52.812,5.5625,9.4375
13:33:52.820,11,21.5001
13:33:52.831,15.7501,32.5001
13:33:52.841,19.0626,39.3127
13:33:52.850,21.9376,45.5002
13:33:52.860,22.5626,47.7502
13:33:52.871,23.0626,50.6252
13:33:52.881,22.9376,51.2502
13:33:52.909,23.7501,52.0002
13:33:52.912,23.7501,52.2502
13:33:52.937,25.3751,54.9377
13:33:52.939,25.8751,57.3127
13:33:52.941,26.6251,58.8752
13:33:52.946,28.0001,61.8752
13:33:52.950,27.7501,62.0002
13:33:52.983,27.1876,60.7502
13:33:53.018,25.8126,59.3127
13:33:53.056,25.3126,57.5627
13:33:53.060,24.3751,56.2502
13:33:53.061,23.6876,54.2502
13:33:53.062,23.3751,53.2502
13:33:53.062,22.3751,53.4377
13:33:53.068,22.4376,52.8752
13:33:53.076,23.3751,53.0627
13:33:53.086,22.8751,52.9377
13:33:53.096,23.1876,53.0002
13:33:53.105,22.2501,52.3127
13:33:53.115,21.8126,52.4377
13:33:53.127,21.6251,51.9377
13:33:53.136,20.8751,49.3752
13:33:53.145,19.5626,47.3127
13:33:53.157,18.5001,45.3127
13:33:53.165,16.8751,41.3752
13:33:53.175,14.6876,38.6251
13:33:53.188,12.25,34.5001
13:33:53.195,10.1875,29.8126
13:33:53.205,8.1875,27.2501
13:33:53.215,6.125,22.6876
13:33:53.242,0.3125,11.9375
13:33:53.243,-1.125,8.9375
13:33:53.246,-2.375,6.5625
13:33:53.255,-2.6875,3.0625
13:33:53.266,-4.4375,1.4375
13:33:53.276,-5.4375,-1.125
13:33:53.285,-7.0625,-4.5
13:33:53.295,-7.625,-6.5
13:33:53.307,-8.5625,-8.625
13:33:53.315,-9.5625,-11.8125
13:33:53.325,-11.625,-13.5001
13:33:53.336,-12.6875,-16.0001
13:33:53.345,-13.5626,-19.4376
13:33:53.355,-14.4376,-22.1251
13:33:53.366,-15.2501,-23.7501
13:33:53.376,-17.0626,-26.0626
13:33:53.385,-17.7501,-28.1876
13:33:53.398,-18.6876,-31.0626
13:33:53.405,-20.5001,-31.8751
13:33:53.415,-21.0626,-35.8751
13:33:53.428,-22.7501,-37.2501
13:33:53.435,-23.2501,-40.5002
13:33:53.445,-24.6251,-41.5627
13:33:53.458,-26.0001,-44.9377
13:33:53.469,-25.8126,-46.6252
13:33:53.475,-27.8126,-49.5627
13:33:53.487,-28.0626,-51.4377
13:33:53.495,-30.0001,-53.7502
13:33:53.505,-30.4376,-56.4377
13:33:53.515,-32.0001,-58.6877
13:33:53.525,-33.3126,-61.1252
13:33:53.535,-34.8126,-63.9377
13:33:53.545,-34.6251,-63.9377
13:33:53.578,-33.5001,-63.5002
13:33:53.580,-29.4376,-56.8752
13:33:53.583,-24.0626,-46.8752
13:33:53.585,-17.2501,-33.2501
13:33:53.625,-9.875,-18.6251
13:33:53.627,-3.25,-3.0625
13:33:53.629,4.125,11.0625
13:33:53.633,8.5,22.8751
13:33:53.637,12.625,33.9376
13:33:53.672,15.3126,40.9377
13:33:53.674,16.3751,46.9377
13:33:53.677,16.9376,51.3752
13:33:53.679,15.8126,52.8127
13:33:53.685,14.5001,54.1877
13:33:53.718,13.3126,55.1252
13:33:53.721,11.8125,55.3752
13:33:53.724,8.375,56.6877
13:33:53.727,7.9375,56.6252
13:33:53.736,11.6875,60.1877
13:33:53.746,14.5626,65.6877
13:33:53.756,13.0625,65.1253
13:33:53.766,11.4375,66.3753
13:33:53.776,9.4375,64.1877
13:33:53.786,5.8125,60.5627
13:33:53.795,0,55.0627
13:33:53.805,-5,50.8752
13:33:53.815,-8.875,45.9377
13:33:53.825,-12.3125,43.1877
13:33:53.835,-16.4376,39.5627
13:33:53.846,-21.6251,33.6251
13:33:53.855,-26.2501,30.0626
13:33:53.865,-30.5626,25.6251
13:33:53.876,-33.0001,24.0001
13:33:53.885,-35.1876,23.0626
13:33:53.895,-37.4376,22.6876
13:33:53.906,-38.0001,21.7501
13:33:53.915,-37.6251,21.2501
13:33:53.925,-40.6877,19.2501
13:33:53.937,-43.5627,15.3126
13:33:53.946,-47.0627,12.3125
13:33:53.955,-49.4377,8.8125
13:33:53.967,-51.0627,4.0625
13:33:53.976,-50.0002,2.75
13:33:53.985,-48.8752,-0.375
13:33:53.995,-47.3752,-1.6875
13:33:54.005,-45.8752,-5.8125
13:33:54.027,-49.5002,-12.625
13:33:54.032,-59.1877,-32.1251
13:33:54.046,-65.6878,-44.1252
13:33:54.047,-70.0628,-55.4377
13:33:54.061,-73.4378,-63.0002
13:33:54.066,-75.6253,-71.4378
13:33:54.075,-76.5003,-75.6878
13:33:54.085,-75.1878,-80.6878
13:33:54.096,-72.5628,-81.7503
13:33:54.105,-70.2503,-83.6878
13:33:54.116,-68.0003,-85.6253
13:33:54.126,-66.0003,-89.8128
13:33:54.135,-64.3127,-90.8129
13:33:54.145,-62.2502,-93.8129
13:33:54.156,-61.0002,-96.6879
13:33:54.166,-60.8127,-98.8754
13:33:54.175,-59.6877,-101.8129
13:33:54.186,-58.7502,-102.4379
13:33:54.195,-58.5627,-106.6254
13:33:54.205,-58.5002,-108.9379
13:33:54.217,-59.1252,-113.2504
13:33:54.226,-61.0002,-115.4379
13:33:54.235,-62.6252,-121.188
13:33:54.246,-64.3752,-125.1255
13:33:54.255,-66.6253,-130.313
13:33:54.266,-68.6253,-133.7505
13:33:54.278,-70.6878,-138.938
13:33:54.285,-72.3128,-143.3755
13:33:54.301,-71.3128,-147.8131
13:33:54.318,-70.5003,-163.1256
13:33:54.319,-56.5002,-170.8131
13:33:54.327,-45.0627,-181.5007
13:33:54.335,-37.3751,-192.8757
13:33:54.379,-26.7501,-203.2508
13:33:54.380,-13.8126,-212.3133
13:33:54.383,6.8125,-215.6258
13:33:54.385,27.7501,-217.5633
13:33:54.390,49.2502,-221.2509
13:33:54.416,64.8752,-227.1259
13:33:54.418,82.3753,-233.5634
13:33:54.421,100.4379,-237.4384
13:33:54.425,119.8755,-240.8759
13:33:54.468,141.313,-238.3134
13:33:54.470,163.6256,-234.1259
13:33:54.473,194.5632,-226.3759
13:33:54.476,223.6259,-210.5633
13:33:54.478,246.6259,-199.2508
13:33:54.508,267.6885,-185.7507
13:33:54.513,287.3136,-177.0632
13:33:54.513,302.2512,-170.1256
13:33:54.530,313.0012,-166.0006
13:33:54.532,323.1262,-162.5006
13:33:54.535,330.1888,-159.8756
13:33:54.545,338.4388,-155.6881
13:33:54.555,343.4388,-149.5631
13:33:54.567,346.2513,-143.188
13:33:54.576,347.6263,-134.0005
13:33:54.585,348.1888,-126.313
13:33:54.595,347.1888,-117.4379
13:33:54.606,344.0638,-112.1879
13:33:54.615,336.9388,-107.4379
13:33:54.625,326.0012,-106.2504
13:33:54.636,311.0012,-107.5004
13:33:54.646,287.8761,-112.0004
13:33:54.655,258.501,-117.6255
13:33:54.665,220.8134,-127.188
13:33:54.675,174.2507,-141.688
13:33:54.685,115.8754,-161.6256
13:33:54.696,52.9377,-184.5007
13:33:54.706,-9.0625,-204.8758
13:33:54.716,-66.2503,-218.8758
13:33:54.725,-116.5629,-227.6259
13:33:54.735,-167.2506,-237.6884
13:33:54.746,-217.4383,-251.5635
13:33:54.756,-257.0635,-260.4385
13:33:54.766,-286.0636,-266.4385
13:33:54.776,-308.5637,-270.376
13:33:54.785,-317.6887,-267.5635
13:33:54.796,-320.6887,-261.8135
13:33:54.806,-318.0012,-252.8135
13:33:54.816,-313.1262,-241.9384
13:33:54.827,-310.8137,-234.2509
13:33:54.836,-307.5012,-225.4384
13:33:54.845,-301.7512,-214.3758
13:33:54.856,-292.6261,-202.3758
13:33:54.865,-286.8136,-193.1257
13:33:54.876,-278.8136,-180.9382
13:33:54.885,-271.4385,-172.6882
13:33:54.895,-266.4385,-165.3131
13:33:54.907,-263.3135,-159.0006
13:33:54.915,-259.1885,-155.6881
13:33:54.925,-252.626,-149.1256
13:33:54.935,-244.1259,-141.1255
13:33:54.945,-234.4384,-135.3755
13:33:54.955,-223.5009,-127.813
13:33:54.970,-211.5008,-118.688
13:33:54.976,-196.8757,-111.8129
13:33:54.986,-181.5632,-103.7504
13:33:54.995,-167.9381,-95.8129
13:33:55.005,-151.5006,-89.8128
13:33:55.017,-131.0005,-79.6878
13:33:55.025,-111.0629,-71.6253
13:33:55.037,-89.1253,-65.5003
13:33:55.045,-67.9378,-57.9377
13:33:55.089,-40.3752,-51.8127
13:33:55.090,-11.1875,-44.7502
13:33:55.093,14.8751,-41.2502
13:33:55.095,44.8752,-38.0626
13:33:55.098,72.5003,-36.4376
13:33:55.105,94.6254,-40.1252
13:33:55.138,115.0004,-41.4377
13:33:55.140,130.0005,-43.9377
13:33:55.143,140.5005,-47.1877
13:33:55.145,146.1255,-50.1252
13:33:55.178,154.4381,-51.2502
13:33:55.180,172.4382,-49.3127
13:33:55.183,184.6882,-46.1252
13:33:55.188,193.8132,-45.3752
13:33:55.219,203.6883,-46.9377
13:33:55.221,212.8758,-46.5627
13:33:55.224,222.5634,-44.8127
13:33:55.228,232.0634,-41.0002
13:33:55.235,240.1884,-30.9376
13:33:55.246,250.1884,-17.9376
13:33:55.256,261.3135,3.5
13:33:55.266,268.3135,24.0626
13:33:55.275,272.251,40.5002
13:33:55.288,272.126,54.5627
13:33:55.296,265.751,63.3752
13:33:55.306,253.3135,69.5003
13:33:55.315,234.0634,70.5628
13:33:55.330,204.8758,67.0003
13:33:55.347,164.1881,54.8127
13:33:55.351,115.1879,39.5002
13:33:55.358,66.4378,22.0626
13:33:55.367,21.1251,7.0625
13:33:55.376,-18.1876,-6.1875
13:33:55.386,-57.8127,-16.4376
13:33:55.395,-93.8754,-28.1251
13:33:55.405,-123.6255,-35.8126
13:33:55.416,-153.5631,-42.8752
13:33:55.426,-184.0632,-51.3752
13:33:55.435,-212.2508,-57.9377
13:33:55.447,-226.3759,-59.5002
13:33:55.455,-231.5634,-56.5002
13:33:55.465,-235.1259,-52.2502
13:33:55.475,-236.8759,-49.4377
13:33:55.487,-234.5634,-44.1252
13:33:55.497,-232.6259,-37.5626
