timestamp,Red,IR
13:39:12.065,8.75,16.3751
13:39:12.067,7.625,16.1251
13:39:12.072,7.125,16.3126
13:39:12.076,8.0625,16.6876
13:39:12.085,7.875,16.3126
13:39:12.094,7.3125,15.8126
13:39:12.103,6.6875,15.8751
13:39:12.115,6.1875,16.4376
13:39:12.124,6.75,14.6251
13:39:12.133,6.125,14.0626
13:39:12.146,5.875,13.3751
13:39:12.155,5.375,12.75
13:39:12.165,5.75,12.8125
13:39:12.176,6.3125,12.625
13:39:12.184,6,12.4375
13:39:12.196,5.0625,12.0625
13:39:12.205,5.4375,12.1875
13:39:12.216,5,11.8125
13:39:12.225,5.125,12.8125
13:39:12.236,4.625,11.8125
13:39:12.245,4.5625,12.375
13:39:12.255,5.6875,11.875
13:39:12.266,4.6875,11.5
13:39:12.275,5.125,12.75
13:39:12.283,5.625,12
13:39:12.295,5.25,10.75
13:39:12.303,5.1875,10.6875
13:39:12.314,5.4375,10.5
13:39:12.325,5.0625,9.5625
13:39:12.334,5.125,10.25
13:39:12.344,5.375,8.9375
13:39:12.355,4.75,9.125
13:39:12.364,4.5625,8.4375
13:39:12.392,3.625,7.0625
13:39:12.396,3.875,7.25
13:39:12.397,3.3125,5.8125
13:39:12.427,3.5,6.25
13:39:12.428,2.75,4.125
13:39:12.431,2.625,4.6875
13:39:12.434,2.8125,4.625
13:39:12.474,1.75,3.3125
13:39:12.476,1.0625,3.6875
13:39:12.507,1.4375,2.75
13:39:12.510,0.625,1.4375
13:39:12.514,0.875,2.125
13:39:12.514,0.9375,1
13:39:12.522,0.5,0.6875
13:39:12.548,-0.0625,1.375
13:39:12.551,-0.1875,0.5625
13:39:12.554,-0.3125,-0.6875
13:39:12.560,-0.25,-0.8125
13:39:12.571,-0.75,0
13:39:12.579,-1.125,-1.5
13:39:12.591,-1,-2.375
13:39:12.600,-2.25,-2.25
13:39:12.610,-2.0625,-2.875
13:39:12.620,-2.4375,-3.875
13:39:12.629,-3.4375,-3.3125
13:39:12.640,-3.625,-4.75
13:39:12.649,-3.4375,-5.5625
13:39:12.659,-3.8125,-5.9375
13:39:12.670,-4.0625,-6.6875
13:39:12.680,-5.5625,-8.125
13:39:12.688,-6.0625,-7.125
13:39:12.700,-5.875,-8.875
13:39:12.708,-5.9375,-8.875
13:39:12.718,-6.375,-9.3125
13:39:12.730,-6.6875,-10.1875
13:39:12.740,-6.125,-9.6875
13:39:12.749,-6.5,-11.25
13:39:12.760,-6.125,-11
13:39:12.770,-6.375,-11.125
13:39:12.779,-6.0625,-10.4375
13:39:12.790,-6.25,-11.375
13:39:12.798,-5.4375,-11.5
13:39:12.810,-5.5625,-11.625
13:39:12.820,-5.625,-11.375
13:39:12.829,-5.8125,-11.875
13:39:12.838,-5.5,-12.25
13:39:12.849,-5.375,-12.375
13:39:12.858,-5.5,-12.9375
13:39:12.870,-5.5625,-12.875
13:39:12.880,-6.5,-12.9375
13:39:12.890,-6.5,-12.9375
13:39:12.899,-6.4375,-13.9376
13:39:12.915,-5.875,-13.4376
13:39:12.926,-5.4375,-12.75
13:39:12.936,-4.0625,-10.4375
13:39:12.945,-1.375,-8.125
13:39:12.955,0,-3.1875
13:39:12.964,2.375,-0.0625
13:39:12.974,5.5625,4.375
13:39:12.986,6.8125,8.375
13:39:13.013,8.875,11.5
13:39:13.015,10.0625,14.1876
13:39:13.017,11.0625,16.7501
13:39:13.025,11,17.6876
13:39:13.036,11.375,18.2501
13:39:13.045,11.125,18.8126
13:39:13.054,11.5625,19.0626
13:39:13.064,11.125,19.0001
13:39:13.075,10.0625,19.2501
13:39:13.085,10.5,19.4376
13:39:13.094,10.0625,19.8126
13:39:13.122,10.125,19.7501
13:39:13.125,10.125,21.0001
13:39:13.126,10.625,20.2501
13:39:13.135,10.1875,19.8751
13:39:13.167,10.5625,21.4376
13:39:13.169,10.25,20.6251
13:39:13.172,9.3125,19.6251
13:39:13.179,8.75,20.6251
13:39:13.203,8.6875,19.1251
13:39:13.205,8,18.2501
13:39:13.208,7.3125,18.3126
13:39:13.237,7.4375,17.5626
13:39:13.238,7.125,16.5001
13:39:13.241,6.5625,16.0001
13:39:13.247,6.1875,16.0626
13:39:13.261,6.1875,16.6251
13:39:13.283,7.25,16.3126
13:39:13.285,7.125,15.6251
13:39:13.291,7.125,15.6251
13:39:13.295,7.375,16.6876
13:39:13.304,7.6875,15.7501
13:39:13.323,6.9375,15.6876
13:39:13.325,7.3125,16.1876
13:39:13.339,7.1875,14.8126
13:39:13.346,6.625,16.1251
13:39:13.355,7.0625,14.8126
13:39:13.363,6.75,14.3751
13:39:13.375,6,13.0625
13:39:13.385,5.9375,13.6251
13:39:13.394,6.3125,12.1875
13:39:13.405,6.5,12.3125
13:39:13.416,5.9375,11.5
13:39:13.424,5.25,11.5625
13:39:13.435,5.625,11.375
13:39:13.445,5.6875,10.8125
13:39:13.455,5.125,9.5625
13:39:13.472,5.6875,9.4375
13:39:13.475,5.8125,9.375
13:39:13.485,5.5625,9.125
13:39:13.495,4.5625,8.125
13:39:13.504,4.6875,7.5625
13:39:13.515,4.3125,7.625
13:39:13.524,4.4375,6.625
13:39:13.535,4.4375,5.5625
13:39:13.545,4.375,6.5625
13:39:13.554,4.9375,6.125
13:39:13.565,3.875,5.5625
13:39:13.575,3.5,5.9375
13:39:13.585,3.5625,4.8125
13:39:13.597,3.5,3.5
13:39:13.603,3.5,3.4375
13:39:13.615,3.0625,4.0625
13:39:13.625,3.3125,3.1875
13:39:13.634,3.4375,1.8125
13:39:13.644,2.875,2
13:39:13.655,2.8125,1.625
13:39:13.665,2.0625,0.4375
13:39:13.675,1.5625,1.1875
13:39:13.685,1.875,-0.0625
13:39:13.696,1.125,-1
13:39:13.706,0.875,-1
13:39:13.716,0.875,-1.5625
13:39:13.725,0.5625,-2.3125
13:39:13.735,0.125,-2.9375
13:39:13.745,-0.0625,-2.3125
13:39:13.755,0.0625,-3.1875
13:39:13.764,-0.5,-3.875
13:39:13.787,-0.8125,-5
13:39:13.794,-1.1875,-4
13:39:13.796,-0.3125,-4.75
13:39:13.829,-0.875,-5.25
13:39:13.833,-1.6875,-6
13:39:13.837,-2.3125,-7
13:39:13.837,-1.875,-7.1875
13:39:13.863,-1.875,-6.5
13:39:13.866,-2.0625,-8.25
13:39:13.869,-2.8125,-7.5625
13:39:13.873,-2.625,-7.875
13:39:13.908,-3.9375,-8.6875
13:39:13.909,-3.5625,-9.3125
13:39:13.911,-4.5625,-9.875
13:39:13.915,-4.5,-10.75
13:39:13.946,-4.5625,-11.5
13:39:13.948,-5.125,-10.3125
13:39:13.950,-4.6875,-10.625
13:39:13.976,-4.375,-10.6875
13:39:13.977,-2.8125,-8.5625
13:39:13.979,-1.5625,-6
13:39:13.987,0.5625,-1.75
13:39:13.994,2.875,1.5625
13:39:14.004,4.75,5.875
13:39:14.015,6.5625,8.875
13:39:14.025,7.125,11.4375
13:39:14.035,8.1875,13.2501
13:39:14.047,8.6875,13.9376
13:39:14.054,9.125,15.6251
13:39:14.064,8.875,16.3751
13:39:14.073,8.875,16.0626
13:39:14.085,8.125,16.1251
13:39:14.095,8.4375,15.8751
13:39:14.106,8.4375,15.1251
13:39:14.115,8.25,16.0626
13:39:14.124,8,15.3751
13:39:14.133,7.4375,15.2501
13:39:14.144,7.5,15.4376
13:39:14.155,7.3125,16.2501
13:39:14.163,7.625,16.0626
13:39:14.176,7.9375,16.1251
13:39:14.186,7.1875,14.8751
13:39:14.194,6.375,14.5626
13:39:14.205,6.25,14.1876
13:39:14.215,5.75,12.9375
13:39:14.224,5.0625,13.5626
13:39:14.236,5.375,12.125
13:39:14.245,4.625,10.8125
13:39:14.273,3.75,10.625
13:39:14.276,4.125,10.375
13:39:14.279,3.8125,9.25
13:39:14.286,3.6875,9.8125
13:39:14.294,4.125,9.5
13:39:14.305,3.625,9.75
13:39:14.313,2.9375,10.0625
13:39:14.325,3.75,9.5
13:39:14.335,3.1875,8.6875
13:39:14.345,3.125,9.25
13:39:14.353,4.1875,9.3125
13:39:14.363,3.625,7.875
13:39:14.374,2.75,8.8125
13:39:14.385,2.625,7.1875
13:39:14.395,2.4375,6.4375
13:39:14.403,2.0625,6.1875
13:39:14.415,2,6.25
13:39:14.425,1.625,5.875
13:39:14.434,1.25,4.5
13:39:14.446,0.5625,3.5625
13:39:14.454,0.25,4
13:39:14.463,-0.125,3.1875
13:39:14.475,-0.0625,1.8125
13:39:14.485,-0.5,0.625
13:39:14.494,-1.0625,1.1875
13:39:14.535,-0.8125,1.0625
13:39:14.537,-0.25,0.3125
13:39:14.539,-0.5625,-0.5625
13:39:14.541,-1.5625,-1.0625
13:39:14.543,-1.625,-1.625
13:39:14.572,-1.5,-0.75
13:39:14.574,-1.625,-1.375
13:39:14.576,-1.5,-2.625
13:39:14.607,-2.125,-2.5625
13:39:14.610,-1.6875,-2.625
13:39:14.641,-2.3125,-3.875
13:39:14.644,-2.9375,-4.125
13:39:14.649,-3.375,-4.1875
13:39:14.649,-3.5,-5.9375
13:39:14.658,-3.4375,-4.75
13:39:14.688,-2.8125,-5.5
13:39:14.692,-3.9375,-5.4375
13:39:14.694,-3.375,-6.5625
13:39:14.696,-3.9375,-7.125
13:39:14.707,-4.875,-6.75
13:39:14.715,-4.5,-7.4375
13:39:14.724,-4.875,-8.5625
13:39:14.735,-5.0625,-7.8125
13:39:14.743,-5.3125,-9.375
13:39:14.754,-5.1875,-8.9375
13:39:14.764,-5.0625,-9.875
13:39:14.775,-5.0625,-9.6875
13:39:14.783,-5.375,-10.0625
13:39:14.795,-5.875,-10.9375
13:39:14.803,-6.1875,-11.25
13:39:14.814,-7.1875,-11.75
13:39:14.823,-7.375,-11.8125
13:39:14.835,-7.25,-11.875
13:39:14.845,-6.1875,-11.6875
13:39:14.853,-4.5625,-8.1875
13:39:14.864,-3.375,-7
13:39:14.875,-1.625,-3
13:39:14.885,0.9375,0.9375
13:39:14.894,1.875,4.1875
13:39:14.904,4.125,7
13:39:14.915,4.0625,9.375
13:39:14.924,5.125,10.0625
13:39:14.934,4.75,11.4375
13:39:14.945,5.0625,11.6875
13:39:14.955,4.5625,12.0625
13:39:14.964,4.75,11.4375
13:39:14.973,4.0625,11.625
13:39:14.985,4.0625,11
13:39:14.995,3.3125,11.4375
13:39:15.003,3.5,10.75
13:39:15.014,3.25,10.6875
13:39:15.025,3.625,10.9375
13:39:15.035,3,10.375
13:39:15.045,2.6875,11.8125
13:39:15.054,3.0625,10.875
13:39:15.064,3.5,10.4375
13:39:15.088,2.6875,10.75
13:39:15.089,3.5,10.625
13:39:15.100,2.5625,9.625
13:39:15.111,1.875,8.4375
13:39:15.119,1.125,8.5625
13:39:15.125,1.5625,7.625
13:39:15.140,0.75,6.5
13:39:15.144,0.375,5.5625
13:39:15.153,0.0625,6.3125
13:39:15.166,0.5625,5.6875
13:39:15.176,0,5.0625
13:39:15.184,-0.4375,6.125
13:39:15.194,-0.125,5.8125
13:39:15.218,-0.75,4.3125
13:39:15.220,-1.1875,5.3125
13:39:15.235,-0.625,4.625
13:39:15.238,-1.5,3.875
13:39:15.268,-2,3.8125
13:39:15.271,-2.0625,3.75
13:39:15.274,-2,3.0625
13:39:15.279,-1.75,2.375
13:39:15.296,-2.5,1.375
13:39:15.299,-2.9375,2.25
13:39:15.325,-2.5625,1
13:39:15.328,-3.625,-0.1875
13:39:15.330,-3.3125,-0.9375
13:39:15.338,-4,0.1875
13:39:15.343,-3.1875,-0.0625
13:39:15.368,-4.125,-1.5625
13:39:15.371,-4.5625,-0.75
13:39:15.373,-4.25,-2.125
13:39:15.385,-4.5,-3.1875
13:39:15.393,-5.25,-2.9375
13:39:15.406,-4.5625,-3.875
13:39:15.414,-5.1875,-4.5
13:39:15.426,-5.375,-3.1875
13:39:15.436,-5.4375,-4.6875
13:39:15.445,-5.6875,-5.375
13:39:15.454,-5.6875,-5.125
13:39:15.466,-6.1875,-5.9375
13:39:15.474,-5.9375,-6
13:39:15.485,-6.4375,-6.875
13:39:15.495,-7.1875,-6.4375
13:39:15.504,-6.9375,-7.6875
13:39:15.515,-6.75,-8.4375
13:39:15.523,-6.5625,-8.5
13:39:15.554,-7.375,-8.375
13:39:15.556,-6.9375,-9.0625
13:39:15.559,-7.5625,-9.375
13:39:15.565,-8.6875,-9.5
13:39:15.574,-7.75,-11.125
13:39:15.584,-8.5,-9.5
13:39:15.593,-8.1875,-10.875
13:39:15.605,-8.875,-10.4375
13:39:15.614,-8.8125,-11.6875
13:39:15.624,-9,-11.3125
13:39:15.635,-8.75,-12
13:39:15.645,-9.25,-13.2501
13:39:15.656,-9.4375,-12.875
13:39:15.664,-9.625,-13.6876
13:39:15.675,-10,-13.8751
13:39:15.685,-10.25,-14.3126
13:39:15.695,-10.6875,-14.5626
13:39:15.705,-10.9375,-15.5001
13:39:15.715,-10.8125,-15.8126
13:39:15.724,-10.625,-15.3126
13:39:15.735,-11.25,-16.9376
13:39:15.744,-12.0625,-15.5001
13:39:15.754,-11.125,-17.3751
13:39:15.765,-11.8125,-16.6876
13:39:15.773,-11.375,-17.6876
13:39:15.785,-12.125,-18.3126
13:39:15.793,-11.9375,-17.8751
13:39:15.806,-12,-19.3126
13:39:15.815,-12.5625,-18.7501
13:39:15.824,-12.4375,-19.8126
13:39:15.836,-13.0625,-19.4376
13:39:15.844,-12.75,-19.4376
13:39:15.855,-13.8126,-20.5001
13:39:15.865,-13.4376,-20.8751
13:39:15.875,-13.9376,-20.8126
13:39:15.892,-13.4376,-21.0001
13:39:15.895,-13.7501,-21.3751
13:39:15.906,-12.625,-21.3751
13:39:15.920,-13.3751,-21.1876
13:39:15.936,-13.3751,-20.8126
13:39:15.940,-13.3126,-22.2501
13:39:15.948,-13.9376,-22.3751
13:39:15.954,-13.0625,-21.7501
13:39:15.964,-13.4376,-22.3126
13:39:15.973,-13.6251,-22.0626
13:39:15.984,-14.0626,-22.0001
13:39:15.995,-13,-22.5001
13:39:16.005,-12.375,-21.6876
13:39:16.039,-11.1875,-20.0001
13:39:16.039,-9.4375,-17.8751
13:39:16.041,-7.5625,-13.5001
13:39:16.044,-4.625,-10.0625
13:39:16.078,-2.375,-5
13:39:16.080,-0.875,-2
13:39:16.083,1.4375,2.0625
13:39:16.089,3.0625,4.25
13:39:16.102,3.375,5.875
13:39:16.106,3.3125,7.875
13:39:16.138,3.75,7.5625
13:39:16.140,3.5,8.625
13:39:16.141,3.75,8.5
13:39:16.149,3.6875,8.5625
13:39:16.162,3.375,9.3125
13:39:16.188,3.125,8.8125
13:39:16.189,3.75,9.4375
13:39:16.192,3.3125,8.8125
13:39:16.194,3.5625,9.1875
13:39:16.206,3.9375,9.6875
13:39:16.214,4.5625,10.1875
13:39:16.224,4.125,10.125
13:39:16.235,3.9375,10.25
13:39:16.246,4.375,11.9375
13:39:16.255,5,11.0625
13:39:16.267,4.1875,10.1875
13:39:16.274,4.1875,11.0625
13:39:16.285,4.375,10
13:39:16.294,3.5,9.1875
13:39:16.305,2.6875,7.8125
13:39:16.315,2.3125,7.625
13:39:16.323,1.5,7.25
13:39:16.334,1.9375,5.875
13:39:16.345,1.25,6.1875
13:39:16.356,1,6.1875
13:39:16.364,1.3125,6.8125
13:39:16.374,1.3125,5.625
13:39:16.397,1.8125,5.0625
13:39:16.402,1.75,6.375
13:39:16.405,2.6875,5.375
13:39:16.420,2.1875,4.9375
13:39:16.428,1.375,4.375
13:39:16.435,1.6875,5.75
13:39:16.445,1.875,4.5625
13:39:16.454,1.5,3.1875
13:39:16.465,0.875,2.8125
13:39:16.475,0.75,3
13:39:16.484,1,2.4375
13:39:16.496,0.25,0.875
13:39:16.504,-0.125,1.125
13:39:16.515,0.625,1.9375
13:39:16.525,-0.125,0.5625
13:39:16.534,-0.375,0.5
13:39:16.544,-0.75,1.0625
13:39:16.555,-0.125,-0.5
13:39:16.564,-0.375,-0.9375
13:39:16.575,-0.875,-1.625
13:39:16.585,-1.375,-0.875
13:39:16.595,-0.75,-1.625
13:39:16.607,-0.75,-2.375
13:39:16.614,-0.75,-3.1875
13:39:16.624,-1,-2.875
13:39:16.640,-1.4375,-2.5625
13:39:16.645,-0.8125,-3.75
13:39:16.656,-1.6875,-4.3125
13:39:16.665,-2.125,-4.25
13:39:16.675,-2,-4.25
13:39:16.685,-2.5625,-5.3125
13:39:16.695,-3.25,-5.625
13:39:16.704,-3,-6.0625
13:39:16.715,-4.0625,-6.75
13:39:16.725,-3.75,-8.0625
13:39:16.758,-4.625,-7.75
13:39:16.760,-4.5,-8.625
13:39:16.762,-4.9375,-8.125
13:39:16.764,-5.125,-9.875
13:39:16.796,-5.4375,-9.625
13:39:16.798,-6.4375,-10.625
13:39:16.800,-6.0625,-10.1875
13:39:16.804,-6.5625,-11.625
13:39:16.844,-6.1875,-11.3125
13:39:16.844,-7,-12.4375
13:39:16.847,-6.8125,-12.5
13:39:16.855,-6.6875,-12.75
13:39:16.868,-6.8125,-12.75
13:39:16.871,-7.1875,-13.8126
13:39:16.899,-6.8125,-13
13:39:16.900,-7.3125,-14.8126
13:39:16.904,-7.5,-14.0626
13:39:16.904,-7.1875,-14.7501
13:39:16.918,-7.625,-15.6251
13:39:16.954,-7.625,-15.5001
13:39:16.956,-8.0625,-15.1251
13:39:16.958,-8.0625,-15.8751
13:39:16.961,-8.3125,-15.8751
13:39:16.970,-7.8125,-16.1876
13:39:16.980,-8.125,-16.0001
13:39:16.989,-8.4375,-17.2501
13:39:17.000,-8.25,-17.5001
13:39:17.008,-7.875,-16.8751
13:39:17.022,-8.5,-17.3126
13:39:17.028,-8.375,-17.3751
13:39:17.040,-8.625,-17.8126
13:39:17.051,-9,-17.1876
13:39:17.061,-8.4375,-18.8126
13:39:17.070,-8.8125,-18.2501
13:39:17.080,-8.5,-18.8751
13:39:17.089,-8.625,-18.9376
13:39:17.100,-8.75,-19.5001
13:39:17.109,-8.25,-19.2501
13:39:17.119,-8.25,-19.2501
13:39:17.130,-9,-19.8751
13:39:17.139,-9.0625,-19.8126
13:39:17.149,-8.75,-20.3126
13:39:17.160,-9.6875,-20.5001
13:39:17.169,-9.5,-20.6876
13:39:17.180,-10.1875,-21.5626
13:39:17.188,-10.5,-21.5626
13:39:17.200,-10.6875,-22.0626
13:39:17.212,-10.625,-21.6251
13:39:17.231,-9.625,-20.6251
13:39:17.232,-8.5625,-18.5001
13:39:17.246,-7.125,-15.8751
13:39:17.262,-4,-11.75
13:39:17.263,-2.25,-7.625
13:39:17.272,-0.125,-2.25
13:39:17.280,2.4375,0.25
13:39:17.288,3.3125,3.75
13:39:17.298,5.125,6.1875
13:39:17.310,5.5625,7.4375
13:39:17.320,6.3125,9
13:39:17.328,6.125,9.125
13:39:17.340,6.3125,9.6875
13:39:17.350,6.1875,9.5625
13:39:17.358,5.1875,9.6875
13:39:17.369,6.1875,10.125
13:39:17.379,5.625,9.1875
13:39:17.388,5.1875,10.5625
13:39:17.398,5,9.4375
13:39:17.409,5.4375,9.3125
13:39:17.444,6.1875,10.75
13:39:17.446,5.75,10.1875
13:39:17.448,5.75,10.875
13:39:17.453,5.6875,11.125
13:39:17.481,6.375,10.3125
13:39:17.484,5.875,10.25
13:39:17.486,5.75,11.3125
13:39:17.492,5.875,9.875
13:39:17.519,5,9.125
13:39:17.522,4.25,9.5625
13:39:17.525,4.875,8
13:39:17.551,4.125,7.125
13:39:17.553,3.8125,7.5625
13:39:17.555,4.375,6.6875
13:39:17.562,3.75,5.375
13:39:17.577,3.375,5.5625
13:39:17.582,3.1875,6.125
13:39:17.600,3.3125,5.625
13:39:17.602,3.0625,5
13:39:17.609,3,5
13:39:17.620,2.75,5
13:39:17.630,2.375,4.9375
13:39:17.640,2.875,4.375
13:39:17.650,2.375,3.875
13:39:17.660,2.1875,3.375
13:39:17.670,1.9375,4
13:39:17.679,2.375,3.375
13:39:17.690,2.125,1.5625
13:39:17.707,1.5625,1.625
13:39:17.721,2.75,1.625
13:39:17.724,1.875,1.375
13:39:17.738,1.375,1.3125
13:39:17.742,1.8125,0.375
13:39:17.748,1.8125,-0.5
13:39:17.759,1.3125,-0.75
13:39:17.772,0.9375,0.5
13:39:17.780,1.4375,-1.1875
13:39:17.789,1.125,-1.9375
13:39:17.800,0.75,-2.125
13:39:17.810,0.375,-1.9375
13:39:17.819,1.125,-2.875
13:39:17.828,0.25,-3.125
13:39:17.840,-0.125,-3.3125
13:39:17.851,-0.5625,-3.4375
13:39:17.860,-0.4375,-4.4375
13:39:17.868,-0.5625,-5.4375
13:39:17.879,-1,-6.25
13:39:17.890,-1.1875,-4.8125
13:39:17.900,-1.125,-5.375
13:39:17.909,-1.5,-6.5
13:39:17.918,-1.8125,-7.1875
13:39:17.930,-2,-6.8125
13:39:17.939,-1.8125,-6.9375
13:39:17.949,-2.3125,-8
13:39:17.959,-2.4375,-7.5
13:39:17.970,-2.5,-9.125
13:39:17.978,-2.75,-8.625
13:39:17.989,-2.1875,-9.25
13:39:17.999,-3.0625,-9.4375
13:39:18.010,-2.9375,-9.875
13:39:18.020,-3.0625,-9.9375
13:39:18.029,-2.625,-9.8125
13:39:18.040,-3.375,-10.9375
13:39:18.050,-3.9375,-9.9375
13:39:18.059,-3.375,-11.4375
13:39:18.072,-3.8125,-11.1875
13:39:18.080,-3.1875,-12.0625
13:39:18.091,-3.5,-11.75
13:39:18.115,-3.4375,-12.8125
13:39:18.118,-3.5,-12.0625
13:39:18.119,-2.9375,-12
13:39:18.130,-3.5,-12
13:39:18.140,-3.25,-13.1876
13:39:18.149,-3.4375,-12.9375
13:39:18.159,-3.625,-13.0625
13:39:18.168,-3.6875,-14.5001
13:39:18.180,-3.4375,-13.3126
13:39:18.188,-3.3125,-14.7501
13:39:18.200,-3.5625,-14.3126
13:39:18.234,-4.125,-14.8751
13:39:18.235,-3.6875,-14.6251
13:39:18.237,-4.125,-15.5001
13:39:18.239,-3.4375,-15.1876
13:39:18.271,-4.4375,-16.0001
13:39:18.273,-4.4375,-15.1251
13:39:18.275,-4.875,-16.6251
13:39:18.280,-4.75,-16.8126
13:39:18.309,-4.4375,-17.0001
13:39:18.312,-4.5,-16.1876
13:39:18.314,-3.625,-14.4376
13:39:18.320,-2.875,-12.1875
13:39:18.333,-0.5,-9.25
13:39:18.362,1.3125,-5.25
13:39:18.365,3.625,-1.8125
13:39:18.367,4.5,2.375
13:39:18.371,6.375,5.125
13:39:18.392,7.6875,6.5625
13:39:18.396,7.6875,9.625
13:39:18.400,8.1875,10
13:39:18.409,7.75,11.3125
13:39:18.420,8.8125,10.125
13:39:18.431,8.1875,12.1875
13:39:18.440,8.5625,10.625
13:39:18.449,7.5625,11.6875
13:39:18.458,7.375,10.625
13:39:18.470,6.5625,10.125
13:39:18.480,6.0625,10.6875
13:39:18.490,6.3125,10.8125
13:39:18.500,5.9375,9.875
13:39:18.510,5.1875,11.4375
13:39:18.522,5.4375,10.5625
13:39:18.528,6,9.6875
13:39:18.547,5.4375,8.875
13:39:18.550,4.4375,9.875
13:39:18.564,4.25,9.25
13:39:18.574,4.6875,8.4375
13:39:18.581,3.875,7.375
13:39:18.589,3.5625,6.1875
13:39:18.600,3.125,7.5625
13:39:18.611,3.5625,6.0625
13:39:18.620,3.4375,5.875
13:39:18.630,2.6875,4.875
13:39:18.639,2.25,4.4375
13:39:18.651,2.125,4.875
13:39:18.659,1.9375,4.6875
13:39:18.668,1.6875,4
13:39:18.680,1.375,4.5
13:39:18.689,2,4.5
13:39:18.700,2.125,4
13:39:18.708,1.5625,3.3125
13:39:18.718,1.0625,3.0625
13:39:18.731,0.375,3.8125
13:39:18.741,0.625,3
13:39:18.750,0.375,2.4375
13:39:18.759,0.5625,1.625
13:39:18.769,-0.25,1
13:39:18.780,-0.5,0.6875
13:39:18.789,0,0.1875
13:39:18.799,0.25,-0.5625
13:39:18.810,-0.8125,-0.8125
13:39:18.820,-0.75,-0.1875
13:39:18.831,-0.6875,-0.625
13:39:18.841,0.0625,-0.8125
13:39:18.850,-0.1875,-2
13:39:18.860,-0.625,-2
13:39:18.870,0.25,-1.25
13:39:18.880,0.875,-2.875
13:39:18.890,-0.25,-2.4375
13:39:18.908,0.125,-2.9375
13:39:18.911,-0.0625,-3.625
13:39:18.944,-0.3125,-2.75
13:39:18.946,0.875,-3
13:39:18.948,-0.0625,-3.5625
13:39:18.950,-0.375,-3.4375
13:39:18.980,0.4375,-4.4375
13:39:18.982,-0.1875,-5
13:39:18.984,-0.125,-4.375
13:39:19.013,0.375,-5.8125
13:39:19.017,0.3125,-4.8125
13:39:19.082,0.125,-5.6875
13:39:19.082,-0.5,-5.375
13:39:19.085,0,-6.75
13:39:19.085,-0.375,-6.25
13:39:19.091,-0.6875,-7.125
13:39:19.103,-0.8125,-6.5625
13:39:19.111,-0.875,-8.0625
13:39:19.120,-0.75,-7.5
13:39:19.130,-1.0625,-7.5
13:39:19.140,-1.3125,-7.5625
13:39:19.149,-1.8125,-8.5625
13:39:19.159,-1.1875,-8.6875
13:39:19.169,-2.1875,-9.3125
13:39:19.180,-2.0625,-8.875
13:39:19.189,-1.875,-9.4375
13:39:19.200,-2.1875,-10
13:39:19.210,-2.1875,-10.3125
13:39:19.220,-2.3125,-11.5625
13:39:19.230,-3.0625,-11.4375
13:39:19.240,-3.1875,-11.8125
13:39:19.249,3.8125,-0.625
13:39:19.258,5.75,3.1875
13:39:19.273,7.3125,7.25
13:39:19.280,8.6875,10.1875
13:39:19.288,9.9375,12.5
13:39:19.298,9.625,13.5001
13:39:19.310,10.8125,14.7501
13:39:19.320,9.75,15.3126
13:39:19.329,10.5,15.7501
13:39:19.340,10.1875,15.6876
13:39:19.350,10,15.8751
13:39:19.359,9,15.3751
13:39:19.370,9.375,15.6876
13:39:19.395,8.625,16.1251
13:39:19.398,8.8125,16.1251
13:39:19.400,8.9375,15.7501
13:39:19.410,8.125,17.3126
13:39:19.419,9.25,16.6876
13:39:19.430,8.9375,16.5001
13:39:19.438,8.9375,17.8126
13:39:19.451,9.125,17.6251
13:39:19.460,9.5,16.9376
13:39:19.469,8.75,16.6251
13:39:19.480,8.4375,17.0001
13:39:19.489,8.9375,16.0001
13:39:19.499,7.625,14.8751
13:39:19.509,7.1875,15.1876
13:39:19.520,7.75,13.6876
13:39:19.529,7.25,13.1251
13:39:19.539,6.9375,14.1876
13:39:19.550,6.625,13.6251
13:39:19.561,7,12.875
13:39:19.570,7.0625,13.3126
13:39:19.580,7.125,12.75
13:39:19.588,6.5,13.5626
13:39:19.598,6.8125,12.25
13:39:19.610,6.625,11.4375
13:39:19.620,6.625,13
13:39:19.629,7.1875,12.3125
13:39:19.638,6.125,11.5
13:39:19.649,5.625,12.4375
13:39:19.660,6.1875,11
13:39:19.669,5.5625,9.75
13:39:19.703,5.3125,10.4375
13:39:19.704,6.125,9.4375
13:39:19.706,5.4375,9.0625
13:39:19.742,4.75,9.375
13:39:19.742,5.4375,8.375
13:39:19.744,4.875,7.5625
13:39:19.752,4.375,7.5625
13:39:19.752,4.5625,6.6875
13:39:19.761,4.1875,6.125
13:39:19.793,3.75,5.1875
13:39:19.794,2.75,6
13:39:19.797,3.5,4.5625
13:39:19.800,2.8125,3.3125
13:39:19.830,1.875,2.9375
13:39:19.831,1.4375,3.3125
13:39:19.834,2.25,2.5
13:39:19.866,0.875,1.5625
13:39:19.868,-0.1875,1
13:39:19.882,-0.375,0.75
13:39:19.883,-0.9375,0.5625
13:39:19.899,-1.25,-0.25
13:39:19.900,-1.375,-1.5625
13:39:19.914,-1.75,-2.1875
13:39:19.917,-2.4375,-1.3125
13:39:19.921,-2.1875,-1.9375
13:39:19.930,-2.875,-3.375
13:39:19.938,-3.6875,-3.5
13:39:19.950,-3.5625,-3.5
13:39:19.960,-3.5625,-4.6875
13:39:19.970,-4.125,-3.625
13:39:19.980,-3.6875,-5.125
13:39:19.990,-4,-5.625
13:39:20.000,-4.125,-5.25
13:39:20.010,-4.25,-5.4375
13:39:20.025,-4,-6.3125
13:39:20.030,-4.0625,-7.125
13:39:20.040,-3.6875,-6.875
13:39:20.049,-3.0625,-6.25
13:39:20.060,-3.1875,-7.25
13:39:20.069,-3.625,-7.3125
13:39:20.080,-3.5,-7.9375
13:39:20.090,-3.25,-8.0625
13:39:20.100,-2.875,-8.1875
13:39:20.108,-3.0625,-8.125
13:39:20.119,-2.8125,-7.875
13:39:20.130,-2.875,-8.75
13:39:20.140,-3.1875,-8.5
13:39:20.150,-3.375,-9.4375
13:39:20.158,-3.375,-10
13:39:20.169,-3.375,-10.0625
13:39:20.179,-3.375,-9.5625
13:39:20.190,-4.375,-11.125
13:39:20.200,-4.1875,-11.125
13:39:20.209,-5,-12.3125
13:39:20.219,-4.875,-11.5625
13:39:20.229,-5,-12.625
13:39:20.239,-6.0625,-12.5625
13:39:20.251,-5.4375,-13
13:39:20.259,-6.3125,-13.8126
13:39:20.270,-5.875,-13.6876
13:39:20.280,-6.875,-13.7501
13:39:20.290,-6.625,-13.7501
13:39:20.303,-6.875,-14.6876
13:39:20.315,-7.6875,-14.5001
13:39:20.334,-7.375,-15.4376
13:39:20.342,-8.25,-16.1876
13:39:20.348,-7.8125,-15.7501
13:39:20.354,-8.1875,-16.5001
13:39:20.372,-9,-17.1251
13:39:20.379,-7.5625,-16.1876
13:39:20.387,-7.9375,-16.1876
13:39:20.400,-6.6875,-13.5001
13:39:20.404,-5.5625,-11.125
13:39:20.438,-3.5625,-7.375
13:39:20.440,-0.625,-3.8125
13:39:20.444,1.25,1.6875
13:39:20.445,3.3125,5.0625
13:39:20.475,4.8125,8.4375
13:39:20.477,6.4375,11.0625
13:39:20.478,7.25,13.4376
13:39:20.486,7.75,15.5626
13:39:20.494,7.6875,15.1251
13:39:20.531,8.3125,16.6251
13:39:20.534,7.9375,15.7501
13:39:20.535,8.25,17.0001
13:39:20.537,8.3125,16.8126
13:39:20.580,7.3125,17.3751
13:39:20.580,8.5,17.4376
13:39:20.583,7.9375,17.5626
13:39:20.585,8.4375,18.6251
13:39:20.592,8.4375,18.6876
13:39:20.601,8.625,19.2501
13:39:20.603,8.75,20.2501
13:39:20.615,9.4375,19.8751
13:39:20.625,9,19.8126
13:39:20.633,9.4375,20.2501
13:39:20.643,9.1875,20.6876
13:39:20.672,9.3125,20.1876
13:39:20.675,8.875,19.7501
13:39:20.683,7.9375,20.3126
13:39:20.686,8.625,18.9376
13:39:20.695,8.125,17.8126
13:39:20.704,7.75,18.0626
13:39:20.716,8.4375,17.4376
13:39:20.725,8.375,17.0001
13:39:20.734,7.8125,16.8751
13:39:20.744,7.5625,17.2501
13:39:20.755,7.625,17.4376
13:39:20.765,8.125,16.2501
13:39:20.774,7.1875,15.8751
13:39:20.784,7.375,16.8126
13:39:20.795,7.1875,15.9376
13:39:20.804,6.875,15.6251
13:39:20.815,5.9375,15.6251
13:39:20.825,6.25,14.3126
13:39:20.836,5.75,13.5001
13:39:20.843,4.875,13.125
13:39:20.855,4.6875,13.1876
13:39:20.865,4.75,12.8125
13:39:20.873,4.125,11.625
13:39:20.884,3.9375,11.75
13:39:20.894,4.375,11.25
13:39:20.905,3.625,9.6875
13:39:20.914,2.75,9.875
13:39:20.926,2.6875,9.875
13:39:20.935,3.625,8.9375
13:39:20.945,2.1875,7.375
13:39:20.955,1.6875,7.625
13:39:20.966,1.8125,7.5625
13:39:21.001,1.5,6
13:39:21.006,1.1875,6.3125
13:39:21.006,0.4375,6.625
13:39:21.012,1.125,5.25
13:39:21.018,0.5,4.25
13:39:21.030,0.3125,4.75
13:39:21.040,0.6875,3.625
13:39:21.050,-0.5,2.625
13:39:21.060,-0.75,2.3125
13:39:21.070,-0.75,2.4375
13:39:21.079,-0.6875,1.4375
13:39:21.089,-1.625,0.4375
13:39:21.098,-1.6875,0.4375
13:39:21.110,-2.0625,0.9375
13:39:21.119,-2.0625,-0.625
13:39:21.129,-2.9375,-1.5
13:39:21.140,-2.875,-1.625
13:39:21.154,-2.6875,-2.625
13:39:21.160,-3.4375,-2.875
13:39:21.190,-4.3125,-2.5625
13:39:21.192,-3,-3.375
13:39:21.228,-4.1875,-3.875
13:39:21.256,-4.25,-3.3125
13:39:21.256,-3.9375,-5.0625
13:39:21.256,-4.25,-5.75
13:39:21.260,-4.75,-5.875
13:39:21.260,-4.4375,-5.8125
13:39:21.265,-5.125,-6.3125
13:39:21.267,-4.4375,-6.875
13:39:21.281,-5.125,-6.9375
13:39:21.285,-5.1875,-7.625
13:39:21.314,-5.9375,-8.25
13:39:21.316,-6.125,-8.6875
13:39:21.318,-6.5,-9.4375
13:39:21.325,-6.875,-8.875
13:39:21.335,-7.125,-9.875
13:39:21.346,-7.75,-10.375
13:39:21.355,-8,-11.125
13:39:21.364,-8.125,-11.75
13:39:21.375,-8.125,-12.4375
13:39:21.384,-8.875,-12.9375
13:39:21.395,-9.9375,-13.3751
13:39:21.405,-8.4375,-13.5001
13:39:21.416,-9.4375,-14.0001
13:39:21.424,-10,-13.6251
13:39:21.435,-10.0625,-15.1876
13:39:21.445,-10,-14.6876
13:39:21.455,-10.1875,-15.8751
13:39:21.465,-10.5625,-15.0001
13:39:21.476,-10.3125,-16.3126
13:39:21.485,-10.9375,-15.6251
13:39:21.495,-10.6875,-17.4376
13:39:21.505,-11.25,-16.1876
13:39:21.516,-11.0625,-16.8751
13:39:21.524,-10.25,-16.5626
13:39:21.534,-8.4375,-14.0001
13:39:21.544,-6.75,-11.6875
13:39:21.556,-4.375,-7.375
13:39:21.564,-2.1875,-3.3125
13:39:21.574,0.0625,1.625
13:39:21.585,2.8125,5.1875
13:39:21.594,3.75,7.6875
13:39:21.604,5.6875,10.3125
13:39:21.614,5.6875,13.0625
13:39:21.624,6.375,13.7501
13:39:21.635,5.9375,14.1251
13:39:21.645,6.9375,14.7501
13:39:21.663,6.5625,14.2501
13:39:21.670,6.9375,15.0001
13:39:21.685,6.4375,15.4376
13:39:21.687,6.5,15.2501
13:39:21.698,5.9375,15.3751
13:39:21.705,7.3125,16.1876
13:39:21.715,6.5,16.5626
13:39:21.724,7,16.8751
13:39:21.735,6.5625,16.0626
13:39:21.745,6.4375,17.5001
13:39:21.755,6.75,18.0626
13:39:21.765,7.8125,17.3751
13:39:21.774,6.6875,17.4376
13:39:21.785,6.875,17.6251
13:39:21.795,6.875,17.9376
13:39:21.804,7.25,16.5001
13:39:21.814,6.3125,15.1876
13:39:21.824,5.0625,14.5001
13:39:21.835,4.9375,14.3751
13:39:21.847,4.25,14.4376
13:39:21.876,4.625,13.4376
13:39:21.879,4.875,12.5
13:39:21.881,3.9375,12.9375
13:39:21.885,4.375,12.1875
13:39:21.915,4.3125,11.6875
13:39:21.918,4.375,12.375
13:39:21.919,4.25,12.75
13:39:21.926,5.3125,12.75
13:39:21.955,3.9375,11
13:39:21.958,3.6875,10.8125
13:39:21.959,3.625,10.8125
13:39:21.965,2.875,9.6875
13:39:21.975,3,10.1875
13:39:22.007,3.6875,9.5
13:39:22.010,2.75,8.625
13:39:22.012,2.25,8.8125
13:39:22.014,2.25,8.25
13:39:22.028,2.375,7.125
13:39:22.035,1.4375,6.0625
13:39:22.045,1.3125,5.875
13:39:22.055,1,6.125
13:39:22.064,1.0625,5
13:39:22.074,0.9375,4.25
13:39:22.086,-0.1875,3.125
13:39:22.096,0.3125,3.75
13:39:22.103,-0.125,2.8125
13:39:22.113,-0.875,1.8125
13:39:22.126,-0.5625,1.375
13:39:22.135,-1.5,1.8125
13:39:22.145,-0.6875,1.125
13:39:22.154,-0.75,0.5
13:39:22.165,-1.125,0.375
13:39:22.175,-1.5,0.1875
13:39:22.185,-0.9375,-0.1875
13:39:22.194,-1.5,-1.1875
13:39:22.205,-2.375,-0.75
13:39:22.215,-1.5625,-1.5625
13:39:22.225,-2.375,-2.9375
13:39:22.235,-2.5625,-2.8125
13:39:22.245,-2.625,-2.9375
13:39:22.254,-3.625,-4.625
13:39:22.264,-3.25,-4.375
13:39:22.275,-3.75,-5.5625
13:39:22.284,-4.25,-3.9375
13:39:22.294,-4.75,-5.3125
13:39:22.304,-5,-7.1875
13:39:22.313,-4.8125,-6.4375
13:39:22.325,-4.6875,-7.875
13:39:22.335,-5.0625,-6.8125
13:39:22.345,-4.875,-8.5625
13:39:22.354,-5.25,-8.0625
13:39:22.365,-5.875,-9.6875
13:39:22.373,-5.875,-9.125
13:39:22.385,-6.25,-10.5625
13:39:22.394,-6.8125,-10.125
13:39:22.405,-6.875,-11
13:39:22.415,-6.625,-11.3125
13:39:22.425,-7.125,-11.1875
13:39:22.433,-7.0625,-11.5625
13:39:22.445,-7.5,-12.1875
13:39:22.454,-7.375,-12.625
13:39:22.468,-7.9375,-13.3126
13:39:22.476,-7.8125,-13.5626
13:39:22.484,-8.375,-12.375
13:39:22.493,-7.6875,-14.0001
13:39:22.509,-8.125,-13.125
13:39:22.526,-8.25,-15.1251
13:39:22.528,-8.375,-14.5001
13:39:22.538,-7.8125,-15.6251
13:39:22.544,-8.625,-14.8751
13:39:22.578,-8.5,-16.2501
13:39:22.579,-9.5625,-16.2501
13:39:22.581,-9.1875,-16.8751
13:39:22.586,-9.6875,-16.7501
13:39:22.621,-9,-17.0001
13:39:22.623,-9.875,-16.2501
13:39:22.625,-9.0625,-17.6251
13:39:22.633,-9.25,-17.6251
13:39:22.638,-9.5,-17.5626
13:39:22.665,-9.3125,-17.0626
13:39:22.666,-9.1875,-18.4376
13:39:22.668,-10.25,-17.5001
13:39:22.675,-10.1875,-18.6251
13:39:22.707,-10.125,-19.9376
13:39:22.710,-10.1875,-19.6876
13:39:22.713,-10.125,-19.0626
13:39:22.715,-9.25,-18.2501
13:39:22.741,-7.9375,-16.6251
13:39:22.743,-5.625,-12.25
13:39:22.746,-3.0625,-8.125
13:39:22.755,-0.375,-4.125
13:39:22.765,0.6875,-0.1875
13:39:22.775,3.3125,4
13:39:22.785,4.1875,6.3125
13:39:22.795,5.6875,8.5625
13:39:22.804,6,9.1875
13:39:22.816,7.125,11.5
13:39:22.825,7.125,11.6875
13:39:22.837,6.6875,13.0625
13:39:22.844,7.3125,12.5625
13:39:22.855,6.4375,13.125
13:39:22.865,7.375,13.4376
13:39:22.875,7,13.5001
13:39:22.885,7.3125,13.6251
13:39:22.894,7.125,13.5001
13:39:22.905,7.1875,15.1251
13:39:22.914,7.0625,14.3126
13:39:22.924,6.9375,15.2501
13:39:22.936,7.3125,15.3126
13:39:22.945,7,14.4376
13:39:22.955,7.125,15.8126
13:39:22.971,8.1875,15.8126
13:39:22.978,7.125,15.1251
13:39:22.992,6.6875,14.5626
13:39:22.995,6.6875,14.6876
13:39:23.009,6.9375,14.1251
13:39:23.015,6.1875,13.125
13:39:23.024,5.75,13.4376
13:39:23.035,5.9375,13.6876
13:39:23.046,7.5,13
13:39:23.055,6.75,12.6875
13:39:23.064,6.1875,12.6875
13:39:23.075,6.8125,13.0625
13:39:23.085,6.6875,12.125
13:39:23.095,6.5,13.1876
13:39:23.103,7.6875,12.625
13:39:23.115,6.625,11.9375
13:39:23.124,5.6875,13.1876
13:39:23.138,6.0625,12.3125
13:39:23.145,6,11.875
13:39:23.154,5.5625,10.75
13:39:23.166,4.8125,10.75
13:39:23.175,4.3125,11.0625
13:39:23.185,5.625,11.6875
13:39:23.195,5.1875,10.5
13:39:23.205,3.875,11.0625
13:39:23.234,3.5625,10.3125
13:39:23.237,3.0625,9.4375
13:39:23.238,1.875,9.5
13:39:23.245,1.125,9.3125
13:39:23.254,0.3125,9.375
13:39:23.263,0.1875,8.0625
13:39:23.274,-1.8125,6.75
13:39:23.283,-2.25,7.5
13:39:23.296,-1.8125,7.3125
13:39:23.329,-2.5,6.8125
13:39:23.331,-2.5625,6.75
13:39:23.334,-3.75,7.5625
13:39:23.336,-4.25,6.8125
13:39:23.366,-4.5,6.1875
13:39:23.368,-4.6875,6.3125
13:39:23.372,-5.5625,7.125
13:39:23.376,-6.0625,7
13:39:23.410,-6.0625,6.5
13:39:23.411,-7.3125,5.9375
13:39:23.416,-8.5625,6.3125
13:39:23.439,-10.4375,5.4375
13:39:23.439,-12.75,4.5625
13:39:23.442,-15.8751,4.625
13:39:23.448,-15.5626,4.125
13:39:23.463,-14.8751,5.5625
13:39:23.466,-14.6251,7.0625
13:39:23.475,-15.1251,5.875
13:39:23.484,-15.8751,6.8125
13:39:23.495,-17.2501,7.0625
13:39:23.505,-18.9376,6.1875
13:39:23.515,-19.8751,6.375
13:39:23.525,-20.5626,6.5
13:39:23.533,-21.2501,6.625
13:39:23.545,-21.3751,6.75
13:39:23.554,-22.3126,7.3125
13:39:23.564,-22.1251,7.625
13:39:23.574,-21.6251,7.75
13:39:23.584,-20.3126,8.25
13:39:23.593,-18.3126,9.75
13:39:23.604,-17.3751,9.9375
13:39:23.614,-15.8751,10.375
13:39:23.629,-15.1251,10.8125
13:39:23.636,-12.8125,12.9375
13:39:23.645,-12.6875,12.1875
13:39:23.654,-13.3126,12.1875
13:39:23.663,-12.5,12.0625
13:39:23.674,-11.875,12.25
13:39:23.685,-11.5625,12.875
13:39:23.694,-10.8125,11.875
13:39:23.704,-10.375,11.6875
13:39:23.715,-9.5625,12.3125
13:39:23.725,-9.4375,11.875
13:39:23.734,-9.75,11.125
13:39:23.743,-9.5,11.3125
13:39:23.755,-9.1875,10.625
13:39:23.765,-9.5,11.0625
13:39:23.775,-9.125,9.5625
13:39:23.785,-7.0625,10.625
13:39:23.795,-5.5,10.75
13:39:23.812,-4.875,10
13:39:23.815,-5.1875,10
13:39:23.830,-4.75,9.6875
13:39:23.840,-4.75,8.6875
13:39:23.846,-5.125,9.625
13:39:23.855,-3.9375,8.4375
13:39:23.864,-3.625,7.9375
13:39:23.875,-3.0625,8.75
13:39:23.883,-2.6875,7.625
13:39:23.894,-2.5,8.875
13:39:23.905,-0.6875,9.875
13:39:23.915,0.125,11.25
13:39:23.925,1.25,14.7501
13:39:23.935,4.0625,17.0001
13:39:23.945,6.25,20.0001
13:39:23.954,8.4375,25.0001
13:39:23.964,10.3125,27.1251
13:39:24.003,11.8125,30.6251
13:39:24.006,13.0625,33.3751
13:39:24.007,14.2501,35.0001
13:39:24.011,14.5626,36.1876
13:39:24.018,14.3751,37.5626
13:39:24.044,15.1251,37.5626
13:39:24.047,14.5626,38.3126
13:39:24.050,14.9376,38.3751
13:39:24.056,14.6251,38.3751
13:39:24.072,14.0001,39.3752
13:39:24.076,14.8126,38.3751
13:39:24.106,14.9376,38.3751
13:39:24.109,14.8751,40.2502
13:39:24.110,15.3751,40.6877
13:39:24.116,16.5626,40.4377
13:39:24.142,16.9376,40.7502
13:39:24.143,16.8126,42.1877
13:39:24.146,18.1876,42.3127
13:39:24.161,17.8126,42.1877
13:39:24.167,18.0001,42.2502
13:39:24.175,17.5626,42.4377
13:39:24.183,18.3751,42.3752
13:39:24.195,17.4376,41.2502
13:39:24.205,17.6251,40.5627
13:39:24.215,17.3751,41.2502
13:39:24.224,17.8126,41.2502
13:39:24.236,17.5001,40.8127
13:39:24.245,17.1876,40.0627
13:39:24.255,17.0001,40.6877
13:39:24.264,17.6251,40.6252
13:39:24.280,16.9376,39.8752
13:39:24.295,16.4376,41.1877
13:39:24.297,17.0001,40.8752
13:39:24.308,17.2501,40.2502
13:39:24.315,16.0001,39.9377
13:39:24.324,15.1876,39.8127
13:39:24.334,15.0001,39.3127
13:39:24.345,15.5001,38.5001
13:39:24.355,14.2501,37.0001
13:39:24.364,13.1876,37.0001
13:39:24.374,12.875,36.0001
13:39:24.385,12.1875,34.2501
13:39:24.395,11.5,33.6876
13:39:24.405,10.6875,33.4376
13:39:24.415,10.25,32.8751
13:39:24.423,9.6875,30.5001
13:39:24.434,8.5,30.8751
13:39:24.445,8,29.6876
13:39:24.455,7.875,28.3751
13:39:24.463,6.8125,26.4376
13:39:24.474,6.3125,26.4376
13:39:24.485,6.25,25.3751
13:39:24.515,5.0625,23.5626
13:39:24.516,5.375,23.5626
13:39:24.519,5.375,23.4376
13:39:24.525,5.75,21.3126
13:39:24.539,5.125,20.8751
13:39:24.543,5,21.0001
13:39:24.554,5.6875,20.3126
13:39:24.565,7.4375,19.1251
13:39:24.576,6.625,18.6251
13:39:24.587,6.375,17.5001
13:39:24.595,6.5625,16.2501
13:39:24.605,5,15.1876
13:39:24.613,4.8125,15.0626
13:39:24.625,5.1875,14.6876
13:39:24.635,3.6875,13.5001
13:39:24.643,3.25,12.8125
13:39:24.654,2.6875,12.75
13:39:24.665,2.375,12.9375
13:39:24.675,2.3125,11.6875
13:39:24.685,2.9375,11.1875
13:39:24.701,3,12.1875
13:39:24.703,3.75,11.4375
13:39:24.735,3.625,11.5
13:39:24.736,3.625,12.125
13:39:24.738,4.875,12.0625
13:39:24.746,6.8125,12.0625
13:39:24.777,7.3125,12.25
13:39:24.779,8.25,13.7501
13:39:24.783,11.0625,12.9375
13:39:24.809,12.0625,13.5626
13:39:24.809,13.5626,15.8751
13:39:24.812,16.6251,16.2501
13:39:24.819,18.3126,16.4376
13:39:24.826,20.1876,17.6251
13:39:24.852,22.0626,19.1251
13:39:24.855,23.6876,21.7501
13:39:24.857,25.2501,21.4376
13:39:24.874,25.6876,21.1876
13:39:24.877,24.4376,20.6876
13:39:24.885,23.0626,20.8751
13:39:24.895,22.0001,18.5001
13:39:24.904,19.6251,16.1251
13:39:24.913,15.9376,14.3126
13:39:24.924,12.75,12.125
13:39:24.935,10.6875,9.3125
13:39:24.944,7,6.6875
13:39:24.955,3.625,4.875
13:39:24.965,0.375,2.75
13:39:24.975,-1.5,0.125
13:39:24.989,-3.9375,-1.75
13:39:24.999,-5.0625,-1.25
13:39:25.009,-4.75,-0.4375
13:39:25.019,-4.3125,0.625
13:39:25.030,-3.625,4.3125
13:39:25.038,-1.25,8.1875
13:39:25.050,0.8125,11.4375
13:39:25.060,3.5625,15.0001
13:39:25.068,6.1875,19.6251
13:39:25.078,9.5625,22.1876
13:39:25.090,12.5625,24.1876
13:39:25.099,14.5626,28.6251
13:39:25.115,17.7501,30.1251
13:39:25.131,19.1876,31.1251
13:39:25.135,20.4376,34.1251
13:39:25.142,22.9376,33.5626
13:39:25.150,26.4376,37.3126
13:39:25.160,27.3126,39.0001
13:39:25.169,30.0001,39.8127
13:39:25.179,30.5626,40.9377
13:39:25.188,31.6251,43.2502
13:39:25.200,32.7501,43.8752
13:39:25.210,32.9376,44.4377
13:39:25.219,33.0001,45.6877
13:39:25.229,32.9376,45.5627
13:39:25.239,31.9376,45.3127
13:39:25.248,31.2501,45.3127
13:39:25.260,29.5001,45.0627
13:39:25.270,29.5001,43.6877
13:39:25.278,27.9376,42.8752
13:39:25.292,26.2501,41.1877
13:39:25.300,25.3126,41.0627
13:39:25.310,23.4376,40.6252
13:39:25.320,22.9376,38.6876
13:39:25.330,21.8126,37.0001
13:39:25.340,20.7501,37.8751
13:39:25.349,20.8126,36.3126
13:39:25.359,18.8751,35.3751
13:39:25.370,17.8126,35.7501
13:39:25.378,17.3126,33.5626
13:39:25.390,15.8751,32.1876
13:39:25.400,14.4376,31.1251
13:39:25.409,14.0626,29.6251
13:39:25.418,12.4375,27.6251
13:39:25.429,11.625,27.2501
13:39:25.440,12.25,24.8751
13:39:25.448,12.25,22.4376
13:39:25.459,13.4376,21.3751
13:39:25.489,14.9376,19.6876
13:39:25.491,16.3126,17.2501
13:39:25.493,15.8751,14.9376
13:39:25.500,16.6251,12.6875
13:39:25.534,18.1251,10.3125
13:39:25.536,18.5001,9.625
13:39:25.537,18.5626,10.75
13:39:25.539,18.6251,10.0625
13:39:25.583,17.2501,8.6875
13:39:25.584,16.3751,8.5
13:39:25.650,15.8751,7.625
13:39:25.652,14.1251,6.1875
13:39:25.652,11.875,5.4375
13:39:25.652,10.6875,5.5625
13:39:25.653,9.4375,3.9375
13:39:25.657,8.5,3
13:39:25.661,7,3.5625
13:39:25.662,6.5,3.4375
13:39:25.667,6.875,2.3125
13:39:25.675,6.5,1.9375
13:39:25.683,6.4375,3
13:39:25.694,7.75,2.9375
13:39:25.705,8.375,2.9375
13:39:25.714,8.75,2.75
13:39:25.723,9,4.8125
13:39:25.734,10.5625,4.5625
13:39:25.744,10.875,5
13:39:25.755,11.875,5.75
13:39:25.765,13.0625,6.75
13:39:25.794,14.8751,8
13:39:25.796,18.3751,10.25
13:39:25.800,20.0001,12.1875
13:39:25.805,21.1251,12.375
13:39:25.815,22.2501,12.875
13:39:25.826,22.6876,12.5
13:39:25.834,22.4376,13.6251
13:39:25.845,23.7501,12.9375
13:39:25.854,22.8126,12.4375
13:39:25.863,21.6251,11.9375
13:39:25.874,20.0626,11
13:39:25.885,18.3751,8.1875
13:39:25.895,16.0001,6.3125
13:39:25.904,12.875,4.3125
13:39:25.915,10.0625,3.25
13:39:25.924,7.375,0.8125
13:39:25.935,5,-1.0625
13:39:25.945,2.3125,-4
13:39:25.955,-0.4375,-4.6875
13:39:25.964,-3.25,-6.875
13:39:25.975,-5.5,-8.6875
13:39:25.984,-7,-9.625
13:39:25.995,-8.1875,-11.4375
13:39:26.004,-9.125,-12.375
13:39:26.015,-9.625,-11.625
13:39:26.024,-8.875,-12.6875
13:39:26.034,-8.25,-13.8126
13:39:26.043,-7.375,-13.125
13:39:26.054,-5.9375,-11.4375
13:39:26.064,-3.25,-11.0625
13:39:26.075,-2.6875,-11.0625
13:39:26.084,-0.9375,-9.9375
13:39:26.095,0.9375,-8.0625
13:39:26.109,3.1875,-6.75
13:39:26.120,5.5,-4.4375
13:39:26.130,9.1875,-1.125
13:39:26.138,11.625,3.125
13:39:26.149,15.6876,7.875
13:39:26.160,18.3751,12.8125
13:39:26.169,21.1251,17.3126
13:39:26.181,23.3751,20.9376
13:39:26.215,24.5626,24.6876
13:39:26.218,25.1876,27.6876
13:39:26.220,25.8751,29.3126
13:39:26.222,24.9376,30.3126
13:39:26.251,24.4376,31.3751
13:39:26.256,24.1876,32.1876
13:39:26.256,22.3751,31.5001
13:39:26.261,20.6251,31.5001
13:39:26.298,19.8751,31.5001
13:39:26.301,19.1876,31.9376
13:39:26.301,17.9376,31.8751
13:39:26.327,17.0001,30.1876
13:39:26.328,15.8126,30.4376
13:39:26.331,15.1251,30.1251
13:39:26.336,14.0001,29.3751
13:39:26.341,12.75,29.9376
13:39:26.359,11.25,28.6876
13:39:26.361,10,26.4376
13:39:26.370,9.375,24.5001
13:39:26.380,7.875,21.7501
13:39:26.390,7.6875,20.6251
13:39:26.400,8.875,17.0626
13:39:26.417,9.9375,12.875
13:39:26.435,9.9375,9.125
13:39:26.437,9.75,5.5625
13:39:26.439,9.5,2.6875
13:39:26.449,9.625,3.1875
13:39:26.459,12,4.3125
13:39:26.470,14.2501,6.375
13:39:26.478,14.4376,6.6875
13:39:26.489,13.9376,7.5
13:39:26.499,13.5001,9
13:39:26.511,12.25,7.625
13:39:26.518,11.0625,7.3125
13:39:26.529,9.5625,6.5
13:39:26.540,8.4375,5.4375
13:39:26.549,6.5625,5.5
13:39:26.558,6.5,4.25
13:39:26.569,4.3125,3.5625
13:39:26.580,4,2.1875
13:39:26.590,3.3125,1.875
13:39:26.599,3.5625,2.8125
13:39:26.610,4,1.8125
13:39:26.618,2.9375,1.8125
13:39:26.630,2.75,2.0625
13:39:26.640,3.5,1.75
13:39:26.648,3.375,1.125
13:39:26.658,3.375,1.6875
13:39:26.670,3.3125,2
13:39:26.680,3.625,1.25
13:39:26.688,3.3125,0.375
13:39:26.700,3.6875,1.1875
13:39:26.710,3.8125,1.25
13:39:26.718,4.25,1.375
13:39:26.731,3.8125,0.9375
13:39:26.739,4.875,1.875
13:39:26.750,5.375,2.125
13:39:26.759,5.625,2.9375
13:39:26.770,6.5,4.0625
13:39:26.780,8.0625,4.6875
13:39:26.790,8.5,3.9375
13:39:26.804,9.375,5.375
13:39:26.809,11.0625,5.875
13:39:26.820,11.1875,5.9375
13:39:26.829,11.75,5.625
13:39:26.839,13.2501,7.25
13:39:26.850,13.6876,7
13:39:26.859,13.5001,6.875
13:39:26.868,12.9375,6.625
13:39:26.878,12.6875,5.4375
13:39:26.895,11.0625,3.5
13:39:26.900,9.25,3.75
13:39:26.915,7.75,1.6875
13:39:26.919,5.75,-0.75
13:39:26.930,3.125,-2.9375
13:39:26.939,0.9375,-4.125
13:39:26.950,-1.6875,-5.0625
13:39:26.975,-3.1875,-7.75
13:39:26.976,-5.6875,-9.4375
13:39:26.982,-7.9375,-9.8125
13:39:27.011,-9.3125,-12.0625
13:39:27.011,-10.5625,-14.1251
13:39:27.013,-12.25,-13.8126
13:39:27.020,-12.75,-14.6876
13:39:27.048,-12.4375,-15.1876
13:39:27.050,-12.5625,-15.8126
13:39:27.052,-12.1875,-14.9376
13:39:27.080,-10.75,-14.6251
13:39:27.082,-9.1875,-14.8126
13:39:27.085,-8.4375,-14.0626
13:39:27.092,-7.25,-12.8125
13:39:27.100,-5.5,-13.3751
13:39:27.134,-4.0625,-12.375
13:39:27.136,-3.0625,-11.5
13:39:27.138,-2.3125,-11.375
13:39:27.141,-0.4375,-10.125
13:39:27.151,0.625,-9.75
13:39:27.159,2.625,-8.25
13:39:27.168,3.0625,-7.9375
13:39:27.179,3.9375,-7.375
13:39:27.189,4.8125,-6.6875
13:39:27.199,5.5,-4.8125
13:39:27.211,5.4375,-5.5625
13:39:27.220,5.625,-3.9375
13:39:27.230,5.375,-5.125
13:39:27.240,5,-4.5
13:39:27.249,4.25,-5.0625
13:39:27.260,3.125,-5.4375
13:39:27.268,1.125,-6.125
13:39:27.280,-0.125,-7.25
13:39:27.289,-1.5625,-7.9375
13:39:27.299,-2.125,-7.625
13:39:27.308,-2.5,-7.8125
13:39:27.320,-2,-5.0625
13:39:27.328,-1.375,-3.1875
13:39:27.340,-1.25,-0.875
13:39:27.349,-0.625,1.375
13:39:27.358,0.8125,3.375
13:39:27.369,0.5625,5
13:39:27.379,0.5625,5.5625
13:39:27.388,0.5,4.875
13:39:27.400,0.6875,5.3125
13:39:27.410,0.375,3.8125
13:39:27.419,0.3125,2.4375
13:39:27.430,1,1.0625
13:39:27.438,0.125,-0.5
13:39:27.449,0.1875,-2.5625
13:39:27.460,0.125,-2.8125
13:39:27.470,1.4375,-3.5
13:39:27.480,1.8125,-3.5625
13:39:27.490,3.3125,-3.0625
13:39:27.500,2.4375,-2.625
13:39:27.509,3.1875,-2.8125
13:39:27.520,3.375,-2.3125
13:39:27.529,3.0625,-1.1875
13:39:27.540,2.75,0
13:39:27.554,2.3125,-0.8125
13:39:27.559,0.8125,-1.5
13:39:27.569,0.0625,-1.1875
13:39:27.580,-1.125,-0.9375
13:39:27.588,-1.875,-2.5625
13:39:27.599,-2.8125,-3.125
13:39:27.610,-3.625,-3.75
13:39:27.619,-3.625,-2.8125
13:39:27.629,-3.75,-4.125
13:39:27.639,-3.1875,-2.1875
13:39:27.648,-3.0625,-2.9375
13:39:27.660,-2.8125,-1.125
13:39:27.682,-1.5625,-0.8125
13:39:27.685,-1.0625,-0.25
13:39:27.715,0.375,0.625
13:39:27.716,0.625,0.6875
13:39:27.746,1.4375,1.8125
13:39:27.748,2.625,3.6875
13:39:27.775,3.5,3.125
13:39:27.775,5,5
13:39:27.777,5.9375,6.25
13:39:27.779,7,7.125
13:39:27.808,8.5625,8.0625
13:39:27.810,9.9375,9.6875
13:39:27.810,10.8125,10
13:39:27.813,11.75,11.3125
13:39:27.824,12.75,11.4375
13:39:27.827,13.1876,11.8125
13:39:27.845,14.1876,11.875
13:39:27.847,13.9376,12.1875
13:39:27.855,15.1876,11.75
13:39:27.865,13.4376,11.0625
13:39:27.875,13.3126,11.625
13:39:27.885,12.25,10.25
13:39:27.894,11.0625,8.375
13:39:27.903,9.5,6.25
13:39:27.915,7.25,5.0625
13:39:27.930,5.5,3.0625
13:39:27.935,3.9375,1.8125
13:39:27.943,1.5,0.75
13:39:27.955,-0.625,-0.5625
13:39:27.965,-1.625,-2.1875
13:39:27.974,-3.4375,-3.6875
13:39:27.984,-4.75,-4.3125
13:39:27.995,-5,-5.5
13:39:28.004,-6.125,-6.9375
13:39:28.015,-6.875,-7.875
13:39:28.025,-7.1875,-8
13:39:28.034,-7.125,-9
13:39:28.044,-6.875,-7.8125
13:39:28.054,-5.6875,-8.8125
13:39:28.064,-5.1875,-8.1875
13:39:28.075,-4.5,-8.0625
13:39:28.084,-3.375,-6.3125
13:39:28.094,-2.3125,-6.625
13:39:28.105,-1.25,-6.4375
13:39:28.115,-0.3125,-6.1875
13:39:28.126,0.625,-5.25
13:39:28.133,1,-6.1875
13:39:28.144,1.875,-5
13:39:28.155,2.5625,-5.125
13:39:28.163,2.8125,-4.125
13:39:28.175,2.75,-4.4375
13:39:28.192,3.125,-3.5625
13:39:28.195,3,-3.6875
13:39:28.209,2.875,-3.75
13:39:28.214,2.5,-3.375
13:39:28.223,1.4375,-4.4375
13:39:28.235,0.625,-5.4375
13:39:28.245,-0.1875,-5.0625
13:39:28.255,-1.25,-6.125
13:39:28.265,-2.375,-6.9375
13:39:28.275,-3.4375,-7.875
13:39:28.285,-4.4375,-8.1875
13:39:28.295,-5.1875,-9.75
13:39:28.310,-7.125,-11
13:39:28.315,-7.625,-10.75
13:39:28.324,-8.625,-12.625
13:39:28.355,-10.375,-14.0626
13:39:28.357,-11.1875,-14.3751
13:39:28.359,-12.25,-16.5626
13:39:28.364,-13.7501,-18.5626
13:39:28.375,-14.5626,-18.7501
13:39:28.385,-14.8126,-21.6251
13:39:28.394,-16.5001,-22.3126
13:39:28.405,-16.6251,-25.5626
13:39:28.415,-17.6876,-27.9376
13:39:28.425,-17.8126,-29.3126
13:39:28.454,-18.1876,-31.5001
13:39:28.456,-18.9376,-32.6251
13:39:28.459,-19.6251,-33.0626
13:39:28.465,-19.4376,-33.2501
13:39:28.492,-20.2501,-34.5001
13:39:28.495,-19.7501,-32.6876
13:39:28.496,-18.5001,-30.5001
13:39:28.528,-16.9376,-28.5001
13:39:28.530,-15.0626,-25.3126
13:39:28.532,-13.1876,-22.1876
13:39:28.540,-11.4375,-19.2501
13:39:28.553,-9.8125,-14.8126
13:39:28.555,-9,-12.875
13:39:28.584,-7.4375,-9.75
13:39:28.586,-6.625,-8.25
13:39:28.589,-5.25,-6.875
13:39:28.596,-5,-7.0625
13:39:28.611,-4.25,-4.8125
13:39:28.615,-4.1875,-4.875
13:39:28.625,-3.5625,-3.75
13:39:28.635,-2.9375,-2.625
13:39:28.645,-1.8125,-1.625
13:39:28.654,-1,-1.5
13:39:28.665,-0.3125,0.5
13:39:28.676,0.625,0.5625
13:39:28.686,1.5,2.25
13:39:28.694,2.125,2.75
13:39:28.704,2.25,4.25
13:39:28.714,2.625,4.0625
13:39:28.723,2.8125,5.75
13:39:28.735,3,6.5
13:39:28.745,2.5,5.5
13:39:28.754,1.9375,6
13:39:28.764,1.8125,5
13:39:28.775,1.3125,4
13:39:28.784,0.3125,3.4375
13:39:28.794,0.25,2.875
13:39:28.803,-0.0625,2.8125
13:39:28.814,-0.3125,1.4375
13:39:28.824,-0.6875,1.3125
13:39:28.835,-1.5625,0.125
13:39:28.843,-1.625,1.125
13:39:28.854,-2.25,-0.4375
13:39:28.865,-3.375,-0.5625
13:39:28.875,-4,-0.625
13:39:28.885,-3.8125,-2.0625
13:39:28.895,-4.1875,-2.75
13:39:28.903,-5.125,-3.125
13:39:28.915,-5.6875,-3.125
13:39:28.923,-5.1875,-4.125
13:39:28.934,-5.9375,-3.5
13:39:28.945,-6.375,-3.5625
13:39:28.953,-5.3125,-5
13:39:28.963,-6.375,-4.8125
13:39:28.975,-6.5625,-4.9375
13:39:28.984,-7.125,-5.6875
13:39:28.993,-8.25,-5.4375
13:39:29.010,-8.4375,-7.125
13:39:29.027,-10.1875,-5.9375
13:39:29.030,-10.6875,-7.75
13:39:29.039,-11.4375,-6.6875
13:39:29.048,-11.875,-6.5
13:39:29.059,-11.875,-6.75
13:39:29.069,-12.25,-6.875
13:39:29.078,-12.0625,-7
13:39:29.090,-11.8125,-5.9375
13:39:29.124,-11.8125,-6.5625
13:39:29.126,-12,-5.625
13:39:29.129,-10.4375,-5.625
13:39:29.133,-10.4375,-5.0625
13:39:29.164,-9.25,-4.9375
13:39:29.166,-7.625,-3.625
13:39:29.167,-6.5625,-3.3125
13:39:29.170,-5.1875,-2.8125
13:39:29.200,-4.125,-1.8125
13:39:29.205,-2.875,-0.8125
13:39:29.206,-1.6875,0.5625
13:39:29.239,0.0625,1.0625
13:39:29.240,1.3125,1.375
13:39:29.242,1.4375,1
13:39:29.274,1.75,1.3125
13:39:29.275,2.1875,1.875
13:39:29.276,1.8125,2.125
13:39:29.279,2.1875,2.6875
13:39:29.284,2.6875,1.0625
13:39:29.289,3.4375,1.1875
13:39:29.300,3.75,1.1875
13:39:29.309,3.6875,1.5
13:39:29.319,4.125,1
13:39:29.329,4.25,1.6875
13:39:29.338,4.5625,1.875
13:39:29.350,5.125,1.0625
13:39:29.359,5.125,1.8125
13:39:29.368,5.125,1
13:39:29.379,4.4375,-0.0625
13:39:29.389,4.25,0.625
13:39:29.398,4.4375,1.3125
13:39:29.409,5.25,0.375
13:39:29.418,5.3125,0.25
13:39:29.434,5.625,1.125
13:39:29.439,5.75,1.125
13:39:29.449,26.4376,9.125
13:39:29.459,28.3751,7.125
13:39:29.470,33.1251,7.1875
13:39:29.488,27.5626,3.0625
13:39:29.495,23.5626,0.6875
13:39:29.509,21.8751,-1.9375
13:39:29.512,20.3126,-2.5625
13:39:29.520,22.1251,-1.125
13:39:29.530,25.5626,-1.375
13:39:29.540,26.6876,-2.5625
13:39:29.549,27.3126,-1.75
13:39:29.560,28.1251,-3.0625
13:39:29.570,27.9376,-4
13:39:29.579,28.0001,-5.25
13:39:29.588,27.4376,-5.625
13:39:29.599,27.9376,-5.875
13:39:29.610,28.5626,-7.3125
13:39:29.635,28.4376,-9.1875
13:39:29.638,28.7501,-9.0625
13:39:29.644,28.0626,-11.0625
13:39:29.649,27.1876,-12.5625
13:39:29.660,26.1251,-12.9375
13:39:29.668,25.6876,-14.5001
13:39:29.680,24.5626,-15.8126
13:39:29.689,23.8126,-16.0001
13:39:29.699,23.6251,-15.5626
13:39:29.709,26.0001,-13.3751
13:39:29.719,27.7501,-10.4375
13:39:29.730,30.3126,-6.625
13:39:29.740,32.2501,-2.9375
13:39:29.750,35.6251,0.5
13:39:29.758,37.8126,3.9375
13:39:29.770,39.3127,7
13:39:29.780,39.7502,7.75
13:39:29.788,39.6252,8.375
13:39:29.800,39.7502,9.1875
13:39:29.810,38.8126,9.1875
13:39:29.819,38.4376,9.5625
13:39:29.854,38.4376,8.4375
13:39:29.855,37.3126,9.5
13:39:29.857,36.8751,8.1875
13:39:29.859,35.1876,7.9375
13:39:29.888,34.2501,7.625
13:39:29.891,33.0001,6
13:39:29.893,32.0001,7.0625
13:39:29.900,30.9376,5.5
13:39:29.924,30.6876,6.8125
13:39:29.927,30.8126,5.9375
13:39:29.930,30.6876,5.4375
13:39:29.965,28.8751,6.5
13:39:29.967,28.5001,4.875
13:39:29.969,27.6876,3.6875
13:39:29.971,27.3126,4.125
13:39:30.002,26.4376,3
13:39:30.004,25.6876,2.3125
13:39:30.006,24.2501,2.375
13:39:30.013,23.5626,0.1875
13:39:30.020,23.1251,-0.4375
13:39:30.030,22.4376,0.5
13:39:30.039,21.1876,-0.4375
13:39:30.050,20.7501,-1.3125
13:39:30.059,20.3751,-2.375
13:39:30.070,20.1251,-1.625
13:39:30.080,19.6876,-2.1875
13:39:30.090,18.9376,-2.5
13:39:30.098,17.1876,-2.75
13:39:30.109,16.8751,-3.75
13:39:30.118,16.3751,-5.125
13:39:30.130,15.9376,-5.6875
13:39:30.139,15.1876,-6
13:39:30.150,14.2501,-5.75
13:39:30.158,14.3751,-6.5
13:39:30.171,13.6251,-6.75
13:39:30.184,13.0625,-7.9375
13:39:30.190,12.625,-7.8125
13:39:30.199,12.25,-9.3125
13:39:30.210,12.3125,-8.1875
13:39:30.220,11.5,-9.6875
13:39:30.230,11.5625,-9.25
13:39:30.242,10.75,-10.75
13:39:30.250,10.375,-10.0625
13:39:30.261,10.5,-11
13:39:30.270,10,-11.1875
13:39:30.280,10,-11.1875
13:39:30.290,9.125,-11.125
13:39:30.306,9.4375,-11.9375
13:39:30.309,9.0625,-12.25
13:39:30.324,9.125,-12.9375
13:39:30.331,8,-13.0625
13:39:30.339,8.25,-13.3126
13:39:30.350,7,-14.4376
13:39:30.360,5.9375,-13.6251
13:39:30.371,6.0625,-14.6251
13:39:30.380,5.4375,-15.6251
13:39:30.389,5.3125,-14.8751
13:39:30.400,5.5625,-16.0001
13:39:30.410,5.1875,-15.8751
13:39:30.425,4.6875,-16.8126
13:39:30.436,4.125,-17.6251
13:39:30.444,3.6875,-17.5001
13:39:30.455,3,-18.3126
13:39:30.464,2.8125,-18.5626
13:39:30.474,2.6875,-18.4376
13:39:30.485,1.875,-18.3126
13:39:30.494,1.9375,-19.1876
13:39:30.503,1.1875,-20.4376
13:39:30.515,1.1875,-19.6876
13:39:30.524,1.5,-20.1876
13:39:30.557,0.75,-20.2501
13:39:30.560,0.625,-20.1251
13:39:30.562,0.9375,-20.6876
13:39:30.588,-0.3125,-21.5626
13:39:30.588,-0.8125,-21.1876
13:39:30.589,-1.5625,-22.7501
13:39:30.595,-2.5,-22.8126
13:39:30.604,-2.3125,-23.5626
13:39:30.636,-3.4375,-24.3751
13:39:30.639,-3.9375,-23.6876
13:39:30.641,-4.25,-25.3126
13:39:30.646,-5,-25.8751
13:39:30.677,-4.75,-25.1251
13:39:30.680,-5.25,-25.8751
13:39:30.682,-5.25,-25.7501
13:39:30.689,-5.0625,-26.1251
13:39:30.697,-5.75,-25.7501
13:39:30.721,-5,-26.3126
13:39:30.723,-5.6875,-26.3751
13:39:30.727,-5.75,-26.4376
13:39:30.735,-6.375,-26.4376
13:39:30.745,-6.1875,-26.6251
13:39:30.755,-6.75,-26.7501
13:39:30.764,-6.625,-26.4376
13:39:30.775,-6,-27.4376
13:39:30.789,-6.8125,-26.6251
13:39:30.806,-6.6875,-27.5001
13:39:30.808,-6.875,-27.5626
13:39:30.815,-7.375,-27.3126
13:39:30.823,-6.75,-25.6876
13:39:30.835,-6.3125,-24.3126
13:39:30.846,-4.75,-22.2501
13:39:30.855,-2.5,-19.1251
13:39:30.863,-0.1875,-14.5626
13:39:30.874,0.9375,-10.875
13:39:30.883,3.3125,-7.875
13:39:30.915,3.9375,-5.375
13:39:30.917,5.4375,-3.125
13:39:30.920,5.6875,-1.4375
13:39:30.924,6.4375,-0.1875
13:39:30.936,6.1875,0.0625
13:39:30.944,6.375,0.5625
13:39:30.954,5.6875,0.8125
13:39:30.964,6.5,1.25
13:39:30.976,5.6875,1.875
13:39:30.983,5.875,1.5625
13:39:30.995,5.875,1.3125
13:39:31.005,6.0625,2
13:39:31.015,5.875,2
13:39:31.025,6.75,2.3125
13:39:31.034,5.75,3.1875
13:39:31.045,6.5625,3.3125
13:39:31.055,5.625,3.8125
13:39:31.064,5.875,3.375
13:39:31.075,5.5,3.4375
13:39:31.084,5.8125,4
13:39:31.095,5.375,2.875
13:39:31.105,4.3125,3.5
13:39:31.115,5,2.4375
13:39:31.125,4.625,1.9375
13:39:31.135,4.25,2.6875
13:39:31.144,4.4375,1.6875
13:39:31.155,4.5625,0.75
13:39:31.165,4.1875,1.125
13:39:31.175,4.5,1.9375
13:39:31.185,5.25,1.625
13:39:31.194,4.75,1.0625
13:39:31.205,4.125,2.25
13:39:31.214,4.1875,1.25
13:39:31.224,4.125,0.375
13:39:31.234,4.125,1.625
13:39:31.243,5.0625,0.875
13:39:31.253,4,0.1875
13:39:31.264,3.375,0.5625
13:39:31.274,3.1875,-0.5625
13:39:31.292,3,-1.25
13:39:31.294,2.25,-1.25
13:39:31.325,2.5,-1.9375
13:39:31.327,1.5,-2.875
13:39:31.330,0.875,-1.625
13:39:31.335,1.5,-2.875
13:39:31.367,0.75,-3.6875
13:39:31.368,0.375,-4.1875
13:39:31.372,-0.125,-3.875
13:39:31.377,0.125,-5.125
13:39:31.407,-0.125,-5.75
13:39:31.409,-0.625,-5.375
13:39:31.411,-0.1875,-5.625
13:39:31.439,-0.75,-6.75
13:39:31.442,-1.3125,-5.9375
13:39:31.443,-1.625,-7.1875
13:39:31.449,-1.8125,-7.9375
13:39:31.462,-2.5625,-8.5
13:39:31.473,-2.25,-8.375
13:39:31.478,-3.4375,-9.0625
13:39:31.485,-2.9375,-9.25
13:39:31.494,-3.3125,-9.9375
13:39:31.505,-3.5,-10
13:39:31.515,-3.625,-11
13:39:31.525,-4.25,-10.4375
13:39:31.535,-4.25,-10.9375
13:39:31.544,-4.0625,-11.3125
13:39:31.554,-4.5,-11.3125
13:39:31.564,-4.3125,-12.3125
13:39:31.575,-4.625,-11.6875
13:39:31.585,-4.9375,-13
13:39:31.602,-5.3125,-12.3125
13:39:31.604,-5.75,-14.5001
13:39:31.619,-5.6875,-13.3751
13:39:31.624,-5.3125,-14.1876
13:39:31.635,-5.375,-14.0001
13:39:31.644,-5.4375,-14.1876
13:39:31.655,-5.625,-14.6876
13:39:31.665,-5.25,-14.9376
13:39:31.673,-5.4375,-14.8751
13:39:31.684,-5.9375,-15.3126
13:39:31.694,-5.375,-15.4376
13:39:31.704,-5.75,-15.4376
13:39:31.713,-5.875,-15.6876
13:39:31.725,-5.875,-15.9376
13:39:31.734,-5.625,-16.3126
13:39:31.744,-6.125,-16.7501
13:39:31.754,-5.8125,-16.7501
13:39:31.765,-5.6875,-17.3126
13:39:31.777,-5.625,-16.2501
13:39:31.788,-5.875,-17.5626
13:39:31.793,-5.5,-17.4376
13:39:31.804,-6.125,-18.1251
13:39:31.815,-6.0625,-17.1876
13:39:31.826,-6.5,-17.8751
13:39:31.833,-6.6875,-18.6876
13:39:31.845,-7.5,-19.1251
13:39:31.853,-7.625,-19.0626
13:39:31.865,-7.625,-19.1251
13:39:31.874,-7.25,-19.7501
13:39:31.884,-7.5625,-19.4376
13:39:31.896,-7.6875,-19.6251
13:39:31.905,-7.75,-20.0626
13:39:31.913,-7.5625,-19.8751
13:39:31.925,-8,-20.0626
13:39:31.934,-7.75,-21.1251
13:39:31.944,-8.875,-20.2501
13:39:31.956,-8.75,-22.0001
13:39:31.965,-8.9375,-21.1251
13:39:31.975,-8.75,-22.4376
13:39:31.984,-9.1875,-21.3751
13:39:31.995,-8.25,-22.8126
13:39:32.004,-8.875,-21.4376
13:39:32.015,-7.8125,-21.8126
13:39:32.025,-7.625,-19.5001
13:39:32.035,-6.125,-19.1876
13:39:32.044,-4.75,-14.8751
13:39:32.055,-2.8125,-13
13:39:32.064,-0.625,-8.1875
13:39:32.086,2.1875,-4.375
13:39:32.088,3.6875,-0.625
13:39:32.099,5.4375,1.25
13:39:32.105,5.25,4.125
13:39:32.171,6.125,5
13:39:32.171,6.375,5.6875
13:39:32.174,6.8125,7.125
13:39:32.203,6.9375,6.375
13:39:32.203,6.75,8.25
13:39:32.204,6.875,6.875
13:39:32.204,6.6875,8
13:39:32.230,6.5,6.8125
13:39:32.231,6.8125,8.125
13:39:32.232,6.625,7.6875
13:39:32.234,6.375,8.1875
13:39:32.239,6.625,8.1875
13:39:32.273,6.3125,8.75
13:39:32.274,6.375,8.9375
13:39:32.277,6.875,9.125
13:39:32.279,6.625,8.9375
13:39:32.295,7.0625,9.5625
13:39:32.300,6.75,10.0625
13:39:32.309,6.75,9.1875
13:39:32.320,6,8.5
13:39:32.329,5.6875,7.375
13:39:32.339,5.8125,7.625
13:39:32.349,5.6875,7.25
13:39:32.360,5.3125,7.1875
13:39:32.370,5.875,7.5625
13:39:32.378,5.875,6.6875
13:39:32.388,5.75,6.4375
13:39:32.399,5.5625,6.3125
13:39:32.409,5.625,6.6875
13:39:32.420,5.25,6.4375
13:39:32.430,5.375,6.75
13:39:32.440,4.5625,6.625
13:39:32.449,5.5625,5.25
13:39:32.459,4.875,5.0625
13:39:32.470,5,5.6875
13:39:32.479,4.875,4.6875
13:39:32.490,4.3125,4.5625
13:39:32.499,4.625,4.1875
13:39:32.509,4.625,3.75
13:39:32.520,4.625,3.3125
13:39:32.530,3.9375,3.25
13:39:32.538,3.875,2.625
13:39:32.549,3.5625,1.5625
13:39:32.560,2.75,0.875
13:39:32.570,2.5,1
13:39:32.580,2.125,-0.5625
13:39:32.590,2,0.625
13:39:32.599,1.5625,-1.4375
13:39:32.610,1.125,-1.4375
13:39:32.620,0.9375,-0.5
13:39:32.630,1.75,-0.875
13:39:32.639,0.9375,-2.8125
13:39:32.649,0.4375,-2.75
13:39:32.658,0.4375,-1.8125
13:39:32.676,0.75,-3
13:39:32.679,1,-4
13:39:32.689,-0.125,-3.8125
13:39:32.700,-0.25,-4.25
13:39:32.709,-0.125,-4.6875
13:39:32.720,-1,-6.1875
13:39:32.729,-0.875,-5.0625
13:39:32.739,-1.4375,-6.875
13:39:32.749,-1.4375,-6.1875
13:39:32.785,-0.75,-6.625
13:39:32.787,-2.1875,-7.375
13:39:32.788,-2.0625,-6.9375
13:39:32.791,-1.8125,-8.1875
13:39:32.823,-1.5625,-9.125
13:39:32.824,-2.125,-8.75
13:39:32.828,-1.5,-8.9375
13:39:32.830,-2.125,-9.1875
13:39:32.861,-2.4375,-9.5625
13:39:32.862,-1.875,-9.75
13:39:32.866,-2.125,-9.6875
13:39:32.872,-2.3125,-10.5
13:39:32.902,-2.3125,-10.375
13:39:32.904,-2.0625,-10.6875
13:39:32.933,-2.4375,-10.625
13:39:32.948,-2.1875,-11.1875
13:39:32.948,-2.5625,-10.875
13:39:32.948,-2.9375,-11.6875
13:39:32.949,-2.75,-12.1875
13:39:32.965,-3,-12.75
13:39:32.972,-3.5625,-12.3125
13:39:32.973,-3.8125,-13.6876
13:39:32.986,-4.1875,-13.6251
13:39:32.995,-4.5,-14.3751
13:39:33.004,-4.375,-13.6876
13:39:33.015,-4.4375,-15.1876
13:39:33.024,-5.125,-14.2501
13:39:33.035,-4.6875,-15.1876
13:39:33.050,-4.6875,-14.8751
13:39:33.060,-5.5625,-15.8751
13:39:33.070,-5.125,-15.5001
13:39:33.080,-5.0625,-16.3126
13:39:33.089,-5.3125,-17.0001
13:39:33.099,-5.8125,-17.5626
13:39:33.110,-5.25,-17.2501
13:39:33.119,-5.75,-17.1251
13:39:33.130,-5.875,-16.3751
13:39:33.140,-4.3125,-17.1876
13:39:33.149,-4.25,-16.0001
13:39:33.160,-3,-14.0001
13:39:33.171,-0.9375,-12.5625
13:39:33.180,0.9375,-8.5
13:39:33.191,2.9375,-4.5
13:39:33.200,5.25,-1.1875
13:39:33.209,8.25,4.8125
13:39:33.219,9.375,6.6875
13:39:33.229,9.625,9.0625
13:39:33.240,10.375,9.1875
13:39:33.249,9.5625,11
13:39:33.260,9.375,9.25
13:39:33.269,9.25,11.375
13:39:33.279,9.5,9.75
13:39:33.290,9,10.375
13:39:33.298,9,10
13:39:33.310,8.375,9.8125
13:39:33.319,9.0625,10.5
13:39:33.329,9,9.9375
13:39:33.340,9.4375,11.3125
13:39:33.349,8.8125,10.625
13:39:33.359,8.5625,10.6875
13:39:33.370,9.375,11.5625
13:39:33.379,9.875,11.9375
13:39:33.390,12,12.875
13:39:33.400,10.9375,13.9376
13:39:33.415,11.75,13.4376
13:39:33.429,11.6875,12.875
13:39:33.432,10.9375,11.5625
13:39:33.446,10.375,12.8125
13:39:33.476,11.1875,12.0625
13:39:33.492,10.1875,11
13:39:33.493,9.875,9.75
13:39:33.501,10.1875,11.4375
13:39:33.502,10.125,9.5
13:39:33.502,9.3125,10.0625
13:39:33.511,10.6875,9.875
13:39:33.539,10.625,10.25
13:39:33.543,10.4375,11.5
13:39:33.544,11,11.25
13:39:33.551,10.5625,10.5625
13:39:33.584,10.125,10.1875
13:39:33.585,9.75,10.25
13:39:33.587,9.8125,10.5
13:39:33.596,10.375,9.0625
13:39:33.600,9.25,8.25
13:39:33.627,9.25,7.5
13:39:33.630,8.75,8.375
13:39:33.635,8.5625,7.75
13:39:33.641,8.125,7.6875
13:39:33.677,7.8125,6.375
13:39:33.679,7.1875,5.9375
13:39:33.681,6.9375,5.3125
13:39:33.687,7.3125,5.0625
13:39:33.698,6.875,4
13:39:33.700,6,4.3125
13:39:33.710,5.625,4.375
13:39:33.719,6.5,3.6875
13:39:33.730,6.125,2.3125
13:39:33.740,5.4375,2.3125
13:39:33.749,4.8125,2.9375
13:39:33.760,5.25,1.625
13:39:33.770,4,1.75
13:39:33.782,4.1875,0.875
13:39:33.789,4.25,-0.1875
13:39:33.801,3,-0.4375
13:39:33.809,2.125,0.125
13:39:33.819,2.375,-1.375
13:39:33.830,2.3125,-2.25
13:39:33.840,2,-2.375
13:39:33.850,1.8125,-1.5625
13:39:33.859,1.5,-2.3125
13:39:33.870,1.5,-3.75
13:39:33.880,1,-3.25
13:39:33.890,1.125,-4.1875
13:39:33.899,0.4375,-5.3125
13:39:33.909,-0.625,-5.5625
13:39:33.919,-0.8125,-5
13:39:33.930,-0.875,-5.625
13:39:33.939,-0.9375,-6.5
13:39:33.950,-1.3125,-7.4375
13:39:33.961,-0.9375,-6.625
13:39:33.969,-1.375,-7.375
13:39:33.980,-1.4375,-7.125
13:39:33.990,-0.4375,-6.9375
13:39:34.000,-1.125,-7.5
13:39:34.010,-1.8125,-7.5625
13:39:34.020,-1.3125,-8.375
13:39:34.030,-1.5625,-8.0625
13:39:34.040,-2.4375,-8.9375
13:39:34.050,-1.875,-9.8125
13:39:34.059,-2.25,-9.4375
13:39:34.069,-2.25,-10.5
13:39:34.079,-2.4375,-9.625
13:39:34.089,-2.375,-10.875
13:39:34.099,-3,-10.5625
13:39:34.109,-2.625,-11
13:39:34.119,-2.75,-11.375
13:39:34.129,-3.25,-10.875
13:39:34.140,-3.0625,-11.25
13:39:34.151,-3.25,-11.5625
13:39:34.159,-3,-11.8125
13:39:34.178,-3.0625,-12
13:39:34.179,-3.8125,-12.0625
13:39:34.189,-3.75,-12.8125
13:39:34.200,-3.4375,-12.375
13:39:34.210,-3.5,-13.3751
13:39:34.219,-4,-13.3751
13:39:34.229,-4,-14.0001
13:39:34.254,-4.25,-13.4376
13:39:34.256,-4.375,-14.0626
13:39:34.296,-3.5625,-13.4376
13:39:34.299,-3.0625,-12.375
13:39:34.360,-1.5625,-10.0625
13:39:34.360,0.875,-7.125
13:39:34.360,2.4375,-2.5
13:39:34.360,4.875,0.125
13:39:34.363,7.1875,4.6875
13:39:34.369,8.125,7.0625
13:39:34.393,9.0625,9.4375
13:39:34.393,10.375,11.375
13:39:34.394,10.3125,13.5626
13:39:34.397,10.625,13.2501
13:39:34.422,10.75,15.0001
13:39:34.426,10.8125,13.9376
13:39:34.426,10.5625,15.4376
13:39:34.430,11.0625,14.8126
13:39:34.442,10.9375,14.8126
13:39:34.449,11.0625,15.3126
13:39:34.460,10.625,15.3126
13:39:34.470,10.5625,16.2501
13:39:34.480,11.4375,16.1251
13:39:34.490,11.125,17.5001
13:39:34.499,11.75,17.6876
13:39:34.510,11.6875,17.9376
13:39:34.520,11.8125,18.0626
13:39:34.530,11.8125,17.5626
13:39:34.540,11.75,18.1876
13:39:34.551,11.25,17.3126
13:39:34.560,11.0625,16.8126
13:39:34.569,10.4375,16.5626
13:39:34.580,10.75,16.3751
13:39:34.590,10.1875,15.6876
13:39:34.600,10.625,16.4376
13:39:34.610,10.0625,15.5001
13:39:34.619,9.8125,16.1251
13:39:34.629,10.6875,16.2501
13:39:34.640,10.8125,16.1876
13:39:34.650,10.9375,15.9376
13:39:34.659,10.6875,16.6876
13:39:34.670,11.125,15.8126
13:39:34.679,10.5,15.6251
13:39:34.689,9.5625,16.2501
13:39:34.699,10.0625,15.1876
13:39:34.710,9.5625,13.8126
13:39:34.719,9.1875,14.1251
13:39:34.730,9.75,13.3126
13:39:34.756,8.5625,12.8125
13:39:34.758,7.875,11.625
13:39:34.776,8.0625,12
13:39:34.779,7.5625,11.0625
13:39:34.783,7.6875,11.4375
13:39:34.790,7.875,10.6875
13:39:34.805,7.875,10.8125
13:39:34.812,7.625,9.25
13:39:34.819,6.9375,9.0625
13:39:34.829,7.1875,9.125
13:39:34.839,6.75,8.1875
13:39:34.849,5.9375,8.3125
13:39:34.859,6.375,7.625
13:39:34.869,6,6.25
13:39:34.880,5.5,7.125
13:39:34.889,5.4375,6.8125
13:39:34.899,5.375,6
13:39:34.910,5.5,4.875
13:39:34.926,5.1875,4.875
13:39:34.929,4.4375,4.375
13:39:34.940,3.9375,4.8125
13:39:34.953,4.0625,3.0625
13:39:34.960,3.6875,3.3125
13:39:34.969,3.125,3.3125
13:39:34.979,3.75,2.3125
13:39:34.990,3.125,1.4375
13:39:34.999,3.0625,1.25
13:39:35.010,2.75,1.5
13:39:35.046,3.4375,0.4375
13:39:35.047,2.6875,-0.375
13:39:35.051,2.25,0.0625
13:39:35.054,2.9375,-1.1875
13:39:35.079,2.1875,-1.5
13:39:35.082,1.5,-0.75
13:39:35.084,2.0625,-1
13:39:35.090,1.5,-2.6875
13:39:35.116,1.1875,-2.75
13:39:35.119,0.75,-2.625
13:39:35.122,1.5,-3.4375
13:39:35.152,1.0625,-4
13:39:35.154,1.25,-3.25
13:39:35.156,0.875,-4.375
13:39:35.163,0.25,-3.8125
13:39:35.195,0.1875,-4.0625
13:39:35.196,0.3125,-5.0625
13:39:35.198,-0.0625,-6.1875
13:39:35.205,0,-5.5
13:39:35.210,0.375,-6.1875
13:39:35.219,0.3125,-6.3125
13:39:35.230,-0.3125,-7.375
13:39:35.242,-0.5625,-7.5
13:39:35.250,-0.8125,-7.625
13:39:35.260,-0.6875,-8.1875
13:39:35.271,-0.875,-7.8125
13:39:35.280,-1.4375,-8.25
13:39:35.290,-1.5625,-8.375
13:39:35.307,-0.9375,-9.5625
13:39:35.310,-1.5625,-9.1875
13:39:35.319,-2.0625,-9.5
13:39:35.331,-2.0625,-10.8125
13:39:35.340,-1.875,-9.875
13:39:35.350,-1.375,-10.8125
13:39:35.360,-1.9375,-11.625
13:39:35.370,-2.125,-10.625
13:39:35.380,-2.25,-11.625
13:39:35.390,-2.8125,-10.25
13:39:35.399,-2.625,-11.5
13:39:35.410,-2.5,-13.1251
13:39:35.420,-2.75,-12.0625
13:39:35.429,-3.375,-13.2501
13:39:35.439,-3.1875,-12.6875
13:39:35.449,-3.4375,-13.6876
13:39:35.460,-3.375,-12.5625
13:39:35.470,-2.6875,-12.375
13:39:35.480,-1.1875,-9.8125
13:39:35.489,-0.1875,-8.3125
13:39:35.499,2.25,-4.125
13:39:35.509,4.375,-0.875
13:39:35.520,6.4375,3.25
13:39:35.529,8.0625,7.375
13:39:35.540,10.25,10.875
13:39:35.549,11.1875,12.8125
13:39:35.559,12.25,15.5626
13:39:35.570,12.5,16.0001
13:39:35.580,12.5625,17.0001
13:39:35.590,12.4375,17.3751
13:39:35.608,12.4375,18.0001
13:39:35.612,11.9375,17.7501
13:39:35.628,12.4375,18.2501
13:39:35.642,12.25,17.8751
13:39:35.645,12.125,19.3751
13:39:35.659,12.625,19.6251
13:39:35.662,12.5625,19.7501
13:39:35.669,12.3125,19.8751
13:39:35.679,13.7501,21.1876
13:39:35.690,13.4376,21.3126
13:39:35.700,13.6251,22.1251
13:39:35.710,13.8751,23.1876
13:39:35.719,14.0626,22.8751
13:39:35.729,14.1251,22.5001
13:39:35.754,14.1251,22.6251
13:39:35.757,13.9376,22.1876
13:39:35.759,13.5001,21.0626
13:39:35.792,13,20.4376
13:39:35.795,13.0625,21.2501
13:39:35.797,12.1875,21.0626
13:39:35.803,13.0625,20.1251
13:39:35.818,12.875,19.2501
13:39:35.821,12.75,20.1876
13:39:35.849,13.3126,20.1251
13:39:35.851,13.8751,20.0001
13:39:35.854,13.1251,19.3126
13:39:35.863,13.2501,20.1876
13:39:35.870,13.6876,19.6251
13:39:35.907,12.5625,19.7501
13:39:35.907,12.6875,20.3751
13:39:35.911,12.9375,19.3126
13:39:35.912,12.625,18.4376
13:39:35.920,11.75,17.9376
13:39:35.930,10.875,18.4376
13:39:35.939,11.5,16.8751
13:39:35.949,10.5,15.2501
13:39:35.959,10.3125,16.3751
13:39:35.969,10.5,14.8751
13:39:35.980,9.8125,14.1251
13:39:35.989,9.8125,14.3751
13:39:36.000,9.75,13.5001
13:39:36.010,9.1875,12.3125
13:39:36.037,8.5,12.75
13:39:36.038,7.5625,11.4375
13:39:36.044,7.9375,10.8125
13:39:36.054,7.5625,11.0625
13:39:36.063,7.4375,10.1875
13:39:36.070,6.6875,9.1875
13:39:36.087,6.6875,8.375
13:39:36.094,6.5,7.625
13:39:36.101,5.6875,6.875
13:39:36.110,5.3125,6.625
13:39:36.124,5.125,6.375
13:39:36.141,4.9375,5.9375
13:39:36.144,4.1875,5.25
13:39:36.149,4.0625,5.3125
13:39:36.160,4.375,4.5625
13:39:36.170,3.5,3.375
13:39:36.179,3.3125,3.5
13:39:36.190,4,2.875
13:39:36.199,3,1.875
13:39:36.209,3.125,2.125
13:39:36.220,2.3125,0.5
13:39:36.229,1.5625,1.5
13:39:36.239,2.0625,0.375
13:39:36.250,2.25,-0.125
13:39:36.261,1,-0.6875
13:39:36.269,1.9375,-1.1875
13:39:36.279,0.875,-2.0625
13:39:36.289,1.1875,-2.25
13:39:36.299,0.5,-2.125
13:39:36.310,1.25,-3.125
13:39:36.320,0.125,-3.75
13:39:36.329,-0.5625,-3.5625
13:39:36.339,-0.1875,-5.1875
13:39:36.350,-0.8125,-5.8125
13:39:36.360,-0.8125,-4.6875
13:39:36.370,-0.75,-5.9375
13:39:36.380,-0.875,-6.375
13:39:36.389,-0.8125,-6.75
13:39:36.410,-1.375,-7
13:39:36.412,-0.3125,-7
13:39:36.440,-1.25,-7.0625
13:39:36.444,-0.9375,-7.875
13:39:36.445,-1.625,-8.9375
13:39:36.449,-2.4375,-8.1875
13:39:36.482,-1.875,-10.1875
13:39:36.485,-3.1875,-11.1875
13:39:36.487,-3.6875,-10.625
13:39:36.491,-4,-10.4375
13:39:36.519,-4.0625,-11.625
13:39:36.524,-4.4375,-11.375
13:39:36.524,-4.25,-12.5
13:39:36.550,-4.875,-11.9375
13:39:36.550,-4.75,-12.9375
13:39:36.552,-5.25,-13.1251
13:39:36.584,-5.25,-13.1876
13:39:36.586,-5.1875,-13.5001
13:39:36.587,-5,-14.1251
13:39:36.596,-5.875,-13.9376
13:39:36.600,-5.5,-14.9376
13:39:36.610,-5.4375,-14.8751
13:39:36.620,-5.5,-14.6251
13:39:36.630,-5.8125,-16.2501
13:39:36.640,-5.375,-16.0001
13:39:36.650,-5.8125,-15.7501
13:39:36.659,-4.3125,-13.9376
13:39:36.669,-2.875,-12.125
13:39:36.679,-0.75,-7.375
13:39:36.690,1.625,-4.4375
13:39:36.700,3.6875,-0.125
13:39:36.709,6.375,4.1875
13:39:36.719,6.9375,7.625
13:39:36.730,8.9375,9.25
13:39:36.739,10.125,12.6875
13:39:36.750,10.875,13.5626
13:39:36.760,11,14.3751
13:39:36.769,10.9375,14.7501
13:39:36.779,10.9375,15.6876
13:39:36.789,10.4375,15.3751
13:39:36.801,11.5,17.3751
13:39:36.809,11.1875,17.1251
13:39:36.819,11.75,17.7501
13:39:36.829,11.625,18.2501
13:39:36.839,11.1875,19.0626
13:39:36.850,11.8125,19.7501
13:39:36.859,12.1875,19.6876
13:39:36.869,11.4375,21.1876
13:39:36.879,11.3125,20.8126
13:39:36.890,12,20.1876
13:39:36.900,11.8125,20.8126
13:39:36.909,12.9375,21.5626
13:39:36.926,12.125,21.1251
13:39:36.929,12.0625,21.3751
13:39:36.944,12.1875,20.1876
13:39:36.963,11.5625,19.4376
13:39:36.978,11.4375,20.1251
13:39:36.980,10.875,18.6251
13:39:36.986,10.5,18.5001
13:39:36.992,11.4375,18.8126
13:39:36.999,11.125,18.3751
13:39:37.010,11.1875,18.5001
13:39:37.019,11.5625,19.0001
13:39:37.029,11.6875,18.0626
13:39:37.040,11.9375,19.0001
13:39:37.050,12.625,19.3126
13:39:37.059,11.8125,19.0001
13:39:37.075,11.625,19.3751
13:39:37.084,12,18.3751
13:39:37.094,12.4375,17.6876
13:39:37.104,11.75,17.1876
13:39:37.115,11.0625,16.5626
13:39:37.138,10.6875,17.1251
13:39:37.140,10.875,15.8751
13:39:37.145,11.0625,15.1876
13:39:37.174,9.4375,13.8751
13:39:37.177,8.8125,14.5626
13:39:37.180,8.75,12.875
13:39:37.186,8.3125,12.5625
13:39:37.216,7.75,12.6875
13:39:37.219,7.9375,12.3125
13:39:37.221,8.0625,11.1875
13:39:37.227,7.4375,10.25
13:39:37.235,6.625,9.75
13:39:37.260,6.25,9.375
13:39:37.262,5.1875,9.625
13:39:37.264,5.8125,8.375
13:39:37.275,5.4375,7.25
13:39:37.314,4.25,6.625
13:39:37.316,4.5,7.0625
13:39:37.320,4.6875,5.8125
13:39:37.326,3.6875,5.375
13:39:37.327,3.5,4.875
13:39:37.341,3.5625,4.375
13:39:37.346,3.3125,3.375
13:39:37.354,2.625,2.75
13:39:37.365,1.8125,2.5625
13:39:37.375,2.5,1.5625
13:39:37.386,1.6875,0.9375
13:39:37.395,1.1875,0.9375
13:39:37.409,0.625,0.3125
13:39:37.419,0.3125,-1.125
13:39:37.426,0.0625,-1.125
13:39:37.443,-0.5,-1.625
13:39:37.450,-1.25,-2.625
13:39:37.458,-1.6875,-2.25
13:39:37.466,-1.4375,-2.5625
13:39:37.474,-1.6875,-3.5625
13:39:37.485,-1.5,-3.8125
13:39:37.494,-1.5625,-5.0625
13:39:37.505,-1.875,-4.625
13:39:37.515,-1,-4.9375
13:39:37.524,-1.4375,-5.8125
13:39:37.534,-2.125,-6.0625
13:39:37.544,-1.75,-5.5625
13:39:37.555,-1.6875,-6
13:39:37.564,-2.125,-7.125
13:39:37.575,-3,-8.25
13:39:37.584,-2.625,-7.5
13:39:37.594,-3.375,-8.8125
13:39:37.605,-3.625,-9.0625
13:39:37.615,-2.9375,-9.4375
13:39:37.624,-3.75,-9.8125
13:39:37.634,-3.8125,-10.4375
13:39:37.644,-4.1875,-10.375
13:39:37.655,-4.625,-11.25
13:39:37.665,-4.6875,-11.75
13:39:37.674,-5.3125,-12.0625
13:39:37.685,-4.9375,-11.25
13:39:37.694,-5.875,-12.75
13:39:37.706,-6.125,-11.9375
13:39:37.715,-6.1875,-13.8751
13:39:37.724,-6.625,-13.0625
13:39:37.734,-6.875,-14.1876
13:39:37.744,-7.25,-15.0626
13:39:37.755,-7.625,-14.8751
13:39:37.765,-7.625,-15.3126
13:39:37.775,-7,-15.0626
13:39:37.784,-4.5,-13.3751
13:39:37.794,-4.5,-13.9376
13:39:37.805,-3.5,-11.625
13:39:37.815,-2.0625,-10.125
13:39:37.824,0.125,-6.5625
13:39:37.834,2.8125,-2.5
13:39:37.845,5,1.75
13:39:37.855,7.375,5.5625
13:39:37.864,9.75,10
13:39:37.875,11.125,12.6875
13:39:37.898,12.0625,16.1251
13:39:37.900,12.4375,17.6876
13:39:37.929,13.1876,18.6251
13:39:37.931,13.0625,20.6251
13:39:37.933,13.3751,20.2501
13:39:37.938,13.4376,21.1251
13:39:37.973,13.0625,21.1251
13:39:37.976,12.625,21.9376
13:39:37.978,12.8125,22.2501
13:39:37.979,11.875,22.7501
13:39:37.987,12.1875,22.8126
13:39:38.020,11.75,23.1251
13:39:38.022,11.3125,24.3751
13:39:38.024,11.3125,24.8126
13:39:38.027,11.25,24.8751
13:39:38.057,10.5,25.1251
13:39:38.059,10.25,26.9376
13:39:38.061,10.25,27.1876
13:39:38.065,9.9375,26.8751
13:39:38.075,8.1875,27.0626
13:39:38.085,6,26.0001
13:39:38.095,2.25,25.1251
13:39:38.106,-0.8125,23.0626
13:39:38.114,-4.5625,22.3126
13:39:38.124,-7.625,20.3751
13:39:38.134,-10.9375,18.5626
13:39:38.144,-13.5626,17.3126
13:39:38.155,-16.8751,16.2501
13:39:38.164,-19.6251,14.8126
13:39:38.175,-22.1876,13.3751
13:39:38.184,-24.7501,13.8126
13:39:38.195,-26.4376,12.5625
13:39:38.205,-28.7501,13
13:39:38.214,-30.5001,13.2501
13:39:38.224,-32.6251,12.125
13:39:38.243,-36.1251,11.8125
13:39:38.246,-39.7502,12.25
13:39:38.261,-42.1252,11.25
13:39:38.276,-45.0002,10.8125
13:39:38.279,-47.3752,11.25
13:39:38.287,-49.3127,10
13:39:38.294,-48.4377,10.5625
13:39:38.306,-45.0627,13.2501
13:39:38.314,-41.7502,14.1251
13:39:38.324,-40.6252,15.7501
13:39:38.334,-40.0002,14.8751
13:39:38.344,-38.3126,15.6876
13:39:38.355,-34.8751,17.3751
13:39:38.364,-31.1251,19.5626
13:39:38.374,-28.9376,19.9376
13:39:38.384,-27.2501,21.8751
13:39:38.396,-25.7501,22.5001
13:39:38.405,-25.1251,22.2501
13:39:38.414,-24.4376,23.6251
13:39:38.424,-23.5001,23.7501
13:39:38.434,-22.6876,22.6251
13:39:38.446,-23.6251,22.1876
13:39:38.454,-23.3751,22.0001
13:39:38.468,-23.8126,20.8751
13:39:38.478,-25.1251,21.3751
13:39:38.484,-24.7501,19.7501
13:39:38.494,-25.5001,18.6876
13:39:38.504,-25.0001,18.8751
13:39:38.514,-25.3751,17.1251
13:39:38.527,-24.9376,16.3751
13:39:38.535,-24.3126,16.0626
13:39:38.546,-23.5626,15.5001
13:39:38.554,-22.3126,16.4376
13:39:38.565,-19.6876,15.5001
13:39:38.596,-17.1876,14.8751
13:39:38.599,-14.7501,17.1251
13:39:38.602,-12.8125,16.8751
13:39:38.605,-11.3125,17.2501
13:39:38.615,-11.3125,17.3126
13:39:38.646,-12.25,16.1251
13:39:38.648,-13.1876,14.8126
13:39:38.651,-14.3751,12.125
13:39:38.655,-16.4376,11.75
13:39:38.680,-16.5626,9.4375
13:39:38.684,-17.6251,9.6875
13:39:38.688,-18.6251,6.875
13:39:38.714,-19.5001,5.5
13:39:38.717,-19.5626,5
13:39:38.720,-20.0626,2.625
13:39:38.748,-20.8126,2.25
13:39:38.822,-20.8751,1.0625
13:39:38.823,-21.3751,-0.6875
13:39:38.824,-22.1876,-0.375
13:39:38.827,-22.3126,-1.1875
13:39:38.833,-22.8751,-3.3125
13:39:38.834,-22.8751,-2.625
13:39:38.834,-22.5001,-3.6875
13:39:38.840,-21.5626,-2.3125
13:39:38.855,-20.6251,-2.375
13:39:38.861,-19.6876,-0.125
13:39:38.869,-17.3751,2.3125
13:39:38.879,-16.0626,6.0625
13:39:38.890,-13.2501,9.625
13:39:38.899,-11.1875,13.2501
13:39:38.909,-9.75,17.1876
13:39:38.921,-8.125,19.8126
13:39:38.929,-7.0625,22.1876
13:39:38.939,-6.625,23.8751
13:39:38.949,-5.4375,26.8751
13:39:38.959,-4.375,26.5626
13:39:38.970,-4.125,28.0001
13:39:38.980,-4.0625,30.0001
13:39:38.994,-4.0625,29.8126
13:39:39.005,-1.25,36.1876
13:39:39.014,-0.5,37.0001
13:39:39.024,0.375,37.6251
13:39:39.034,0,37.9376
13:39:39.044,-4.8125,36.9376
13:39:39.056,-7.6875,34.8126
13:39:39.065,-10.8125,35.0001
13:39:39.075,-10.9375,34.4376
13:39:39.084,-11.25,33.0001
13:39:39.096,-13.0625,34.1251
13:39:39.104,-13.6876,32.3126
13:39:39.115,-14.5001,31.0001
13:39:39.125,-14.6876,32.2501
13:39:39.135,-14.7501,30.6251
13:39:39.146,-15.3751,30.3751
13:39:39.154,-15.2501,30.5626
13:39:39.165,-14.6876,31.2501
13:39:39.175,-15.0626,29.9376
13:39:39.184,-15.3126,30.5001
13:39:39.194,-14.5001,30.1876
13:39:39.205,-14.8126,30.7501
13:39:39.215,-13.6251,30.4376
13:39:39.227,-13.5626,30.4376
13:39:39.237,-12.5625,31.9376
13:39:39.245,-10.75,30.7501
13:39:39.255,-10.25,30.6876
13:39:39.264,-8.75,31.8751
13:39:39.274,-7.625,31.1251
13:39:39.284,-5.5,32.3126
13:39:39.294,-2.25,32.5001
13:39:39.304,0.375,34.8126
13:39:39.314,3.3125,36.0626
13:39:39.326,6.75,36.8751
13:39:39.335,8.125,38.3126
13:39:39.345,8.9375,38.4376
13:39:39.355,9.3125,37.5001
13:39:39.364,8.9375,38.1251
13:39:39.382,8.6875,35.6876
13:39:39.384,8.375,35.8126
13:39:39.415,7.3125,34.1251
13:39:39.418,5.8125,33.0001
13:39:39.420,5.125,31.7501
13:39:39.427,2.9375,30.7501
13:39:39.452,2.0625,29.0001
13:39:39.455,0.8125,26.7501
13:39:39.482,0.125,26.2501
13:39:39.485,0,24.8751
13:39:39.487,-0.1875,22.9376
13:39:39.490,0.3125,22.3751
13:39:39.520,0.9375,21.6876
13:39:39.523,1.9375,20.1876
13:39:39.525,2.5625,19.9376
13:39:39.553,3.25,20.7501
13:39:39.555,4.75,19.3126
13:39:39.569,3.75,17.1251
13:39:39.575,2.5,15.1876
13:39:39.576,1.8125,13.1251
13:39:39.585,-0.6875,8.3125
13:39:39.590,-5.3125,0.8125
13:39:39.606,-10.375,-6.5
13:39:39.610,-7.5,-11.875
13:39:39.627,4.4375,-10.9375
13:39:39.630,13.3126,-4.875
13:39:39.639,21.4376,0.25
13:39:39.650,22.9376,3.125
13:39:39.661,21.3126,5.125
13:39:39.670,20.7501,5.1875
13:39:39.680,19.3126,3.125
13:39:39.689,17.7501,1.5
13:39:39.700,15.5001,0.625
13:39:39.710,14.9376,-1.75
13:39:39.719,12.9375,-3.625
13:39:39.730,10.625,-4.875
13:39:39.739,9.4375,-4.8125
13:39:39.749,9.375,-2.0625
13:39:39.760,10.125,0.8125
13:39:39.770,11.3125,3.5
13:39:39.779,11.75,7.875
13:39:39.790,12.625,9.25
13:39:39.799,13.3751,11.5
13:39:39.810,12.5,14.3126
13:39:39.820,12.8125,15.8751
13:39:39.829,13.1876,17.1876
13:39:39.839,13.5626,19.3751
13:39:39.849,14.1251,21.6251
13:39:39.875,15.0001,24.5626
13:39:39.877,17.0626,26.5001
13:39:39.882,17.7501,28.9376
13:39:39.890,18.8126,32.0001
13:39:39.899,19.5626,33.1876
13:39:39.913,19.9376,36.0001
13:39:39.920,21.5001,38.4376
13:39:39.929,21.4376,39.6252
13:39:39.940,21.1876,40.8127
13:39:39.950,21.1251,43.4377
13:39:39.959,21.5001,44.2502
13:39:39.973,21.5001,44.8752
13:39:39.981,21.4376,45.6252
13:39:39.989,21.8751,47.5627
13:39:40.001,21.8751,47.1877
13:39:40.010,21.8126,47.2502
13:39:40.019,21.5626,47.1252
13:39:40.030,20.8751,47.9377
13:39:40.040,21.5001,48.7502
13:39:40.049,19.7501,46.9377
13:39:40.059,15.0626,45.6252
13:39:40.136,10.5625,45.0627
13:39:40.136,5.6875,42.4377
13:39:40.197,1.75,39.9377
13:39:40.199,-0.3125,38.9376
13:39:40.202,-2.5,38.3751
13:39:40.208,-4.6875,36.4376
13:39:40.209,-7.75,35.1251
13:39:40.209,-9.625,33.4376
13:39:40.214,-11.1875,31.3751
13:39:40.247,-12.3125,31.5001
13:39:40.248,-12.25,31.0626
13:39:40.251,-12.25,29.7501
13:39:40.255,-12.125,28.8126
13:39:40.265,-12,29.0626
13:39:40.275,-10.9375,29.3126
13:39:40.284,-8.4375,29.9376
13:39:40.294,-6.9375,29.3751
13:39:40.304,-4.4375,29.6876
13:39:40.316,-2.875,31.5626
13:39:40.325,-1,32.5626
13:39:40.335,1.5625,33.1251
13:39:40.344,4.3125,34.6876
13:39:40.354,6.6875,35.9376
13:39:40.364,8.375,36.8126
13:39:40.374,9.125,38.1251
13:39:40.384,7.375,36.5626
13:39:40.394,6.875,34.3126
13:39:40.404,4.125,32.3126
13:39:40.414,2.875,30.7501
13:39:40.425,1.8125,30.2501
13:39:40.434,0.25,27.8126
13:39:40.446,-0.4375,25.1876
13:39:40.455,-1.4375,24.6251
13:39:40.464,-0.625,23.3126
13:39:40.474,-1.5,21.9376
13:39:40.484,-1.0625,21.2501
13:39:40.494,-0.5,19.6876
13:39:40.504,-0.75,18.0001
13:39:40.516,-0.625,17.9376
13:39:40.525,-0.9375,15.8126
13:39:40.535,-1.875,14.8126
13:39:40.544,-2.4375,14.2501
13:39:40.554,-3.4375,11.5625
13:39:40.564,-4.875,9.3125
13:39:40.574,-6,8.5625
13:39:40.585,-7.25,7.375
13:39:40.594,-8.125,6
13:39:40.605,-9.375,3.5
13:39:40.616,-10.375,1.75
13:39:40.625,-10.375,1.3125
13:39:40.635,-11.25,-0.5
13:39:40.645,-12.125,0
13:39:40.654,-12.625,-2.125
13:39:40.664,-13.3751,-4.1875
13:39:40.674,-13.6876,-3.875
13:39:40.684,-14.3751,-5.4375
13:39:40.695,-14.8126,-6.1875
13:39:40.704,-15.3751,-7.25
13:39:40.714,-16.3126,-7.8125
13:39:40.731,-16.4376,-8.0625
13:39:40.734,-16.2501,-9.5
13:39:40.745,-16.7501,-10.5
13:39:40.754,-17.1251,-10.6875
13:39:40.765,-18.1876,-12.0625
13:39:40.774,-18.3751,-11.75
13:39:40.784,-18.6876,-13.0625
13:39:40.794,-18.8126,-14.0626
13:39:40.805,-18.9376,-13.8751
13:39:40.814,-18.8751,-12.625
13:39:40.824,-17.7501,-11.625
13:39:40.837,-16.5001,-8.875
13:39:40.865,-14.2501,-5.9375
13:39:40.868,-12.1875,-0.9375
13:39:40.870,-9.9375,2.6875
13:39:40.875,-8.625,6.5
13:39:40.903,-6.75,9.5
13:39:40.906,-6.125,12.375
13:39:40.941,-4,14.6876
13:39:40.975,-3.8125,17.3126
13:39:40.979,-2.0625,18.9376
13:39:41.002,-2.1875,21.0001
13:39:41.002,-0.5,22.1251
13:39:41.003,-0.5,23.8126
13:39:41.006,0.25,24.3126
13:39:41.012,0.75,25.8126
13:39:41.012,1.375,27.6876
13:39:41.012,2.125,28.1876
13:39:41.019,2.625,29.2501
13:39:41.029,2.9375,30.4376
13:39:41.039,1.5625,30.0001
13:39:41.049,-1.625,30.0626
13:39:41.061,-4,31.5001
13:39:41.069,-5.5625,31.1251
13:39:41.079,-6.375,30.5626
13:39:41.089,-8.375,30.3751
13:39:41.107,-10.5,29.9376
13:39:41.111,-12.4375,28.6251
13:39:41.120,-13.8751,26.1251
13:39:41.129,-15.2501,25.0626
13:39:41.156,-16.3751,24.1876
13:39:41.157,-16.9376,23.4376
13:39:41.164,-17.0001,23.5626
13:39:41.170,-17.2501,23.1251
13:39:41.179,-17.0626,24.1876
13:39:41.191,-15.1876,24.5001
13:39:41.204,-12.875,25.0001
13:39:41.215,-12,24.8126
13:39:41.224,-10.9375,26.7501
13:39:41.235,-8.875,26.6876
13:39:41.245,-7.25,26.1251
13:39:41.255,-4.75,27.6876
13:39:41.264,-3,27.8126
13:39:41.274,-1.0625,29.3751
13:39:41.284,0.875,30.1876
13:39:41.295,2.375,31.0626
13:39:41.304,3.5625,31.0001
13:39:41.314,3.5625,29.6876
13:39:41.324,2.75,30.9376
13:39:41.334,3.125,28.5626
13:39:41.344,2.3125,27.5626
13:39:41.354,1.5625,27.1876
13:39:41.365,-0.625,26.2501
13:39:41.374,-1.125,24.5626
13:39:41.385,-2.5625,21.6876
13:39:41.394,-3.125,21.3126
13:39:41.404,-4.6875,19.0001
13:39:41.414,-6,18.3126
13:39:41.424,-5.6875,16.8751
13:39:41.442,-6.8125,14.7501
13:39:41.448,-7.6875,14.0001
13:39:41.456,-7.6875,12.4375
13:39:41.464,-7.1875,10.875
13:39:41.483,-6.9375,11
13:39:41.498,-6.4375,10.125
13:39:41.500,-5.875,8.875
13:39:41.504,-5.8125,6.875
13:39:41.515,-7.125,6.6875
13:39:41.524,-8.5,5.8125
13:39:41.534,-8.8125,3.1875
13:39:41.556,-10.125,0.9375
13:39:41.558,-11.25,0.25
13:39:41.592,-13.0625,-2.75
13:39:41.594,-13.7501,-3.25
13:39:41.596,-15.3751,-6.4375
13:39:41.598,-16.3751,-6.5625
13:39:41.606,-15.9376,-8.25
13:39:41.644,-17.6876,-9.5
13:39:41.646,-17.6876,-10.4375
13:39:41.648,-19.0626,-11.9375
13:39:41.655,-20.0626,-12.625
13:39:41.657,-19.9376,-14.1876
13:39:41.687,-20.8126,-14.7501
13:39:41.690,-21.1251,-15.4376
13:39:41.692,-22.2501,-16.6251
13:39:41.694,-22.0626,-17.1251
13:39:41.727,-22.7501,-18.3751
13:39:41.728,-23.0001,-18.5626
13:39:41.734,-23.3126,-19.2501
13:39:41.737,-23.4376,-20.1876
13:39:41.744,-23.7501,-20.6876
13:39:41.755,-24.5001,-21.0001
13:39:41.765,-24.6251,-21.6876
13:39:41.775,-24.7501,-21.1876
13:39:41.784,-24.5001,-22.6876
13:39:41.795,-25.4376,-22.6876
13:39:41.805,-25.5001,-23.1876
13:39:41.815,-25.3751,-22.9376
13:39:41.825,-25.1251,-23.9376
13:39:41.834,-25.5626,-24.3126
13:39:41.844,-24.7501,-24.6876
13:39:41.858,-25.4376,-24.8126
13:39:41.864,-24.9376,-25.3126
13:39:41.875,-25.8126,-25.9376
13:39:41.884,-26.0001,-26.3126
13:39:41.894,-26.2501,-27.3126
13:39:41.906,-25.5001,-27.5001
13:39:41.915,-25.7501,-27.8126
13:39:41.925,-24.1876,-26.5001
13:39:41.935,-23.6876,-24.6876
13:39:41.944,-22.1876,-22.5001
13:39:41.955,-20.3126,-19.6251
13:39:41.966,-17.7501,-16.6876
13:39:41.977,-16.3751,-12.75
13:39:41.986,-14.0001,-9.5625
13:39:41.996,-15.6251,-8.0625
13:39:42.004,-15.8126,-5.375
13:39:42.014,-17.8126,-3.6875
13:39:42.025,-18.6876,-3.0625
13:39:42.034,-19.8751,-2.375
13:39:42.045,-20.3126,-2.0625
13:39:42.054,-22.7501,-1.6875
13:39:42.065,-23.1251,-2.0625
13:39:42.075,-24.9376,-1.6875
13:39:42.084,-25.2501,-1.5
13:39:42.094,-26.2501,-1.1875
13:39:42.104,-25.3751,-0.625
13:39:42.114,-25.4376,0
13:39:42.124,-25.3126,0.8125
13:39:42.135,-23.9376,1.9375
13:39:42.144,-22.9376,2.875
13:39:42.154,-22.0626,4.125
13:39:42.165,-20.4376,4.5
13:39:42.175,-19.2501,5.75
13:39:42.185,-16.8751,6.375
13:39:42.195,-15.3126,7.3125
13:39:42.205,-13.0625,7.625
13:39:42.215,-11,8.375
13:39:42.225,-8.0625,9.5625
13:39:42.235,-5.9375,10.625
13:39:42.245,-2.4375,12.25
13:39:42.259,-0.4375,13.7501
13:39:42.268,1.75,14.1876
13:39:42.276,2.9375,15.4376
13:39:42.291,3.3125,15.0626
13:39:42.295,3.25,14.6876
13:39:42.327,2.3125,15.0626
13:39:42.329,2.1875,12.9375
13:39:42.332,1.25,12.75
13:39:42.335,0.6875,12.4375
13:39:42.367,-0.375,10.75
13:39:42.370,-1.0625,10.125
13:39:42.372,-3,8.0625
13:39:42.397,-3.75,7.75
13:39:42.399,-5.1875,6.0625
13:39:42.402,-5.5625,5.25
13:39:42.406,-6.3125,3.875
13:39:42.434,-6.625,3.0625
13:39:42.437,-6.875,2.75
13:39:42.438,-5.375,1.1875
13:39:42.467,-5.0625,0.3125
13:39:42.468,-4.8125,-0.25
13:39:42.471,-4.1875,0.25
13:39:42.477,-4.0625,-0.5
13:39:42.487,-4.3125,-2.375
13:39:42.494,-6.125,-4
13:39:42.505,-6.5625,-4.9375
13:39:42.515,-8.0625,-7.3125
13:39:42.524,-9.4375,-8.125
13:39:42.536,-10.4375,-9.75
13:39:42.545,-11.125,-11.9375
13:39:42.555,-11.9375,-12.3125
13:39:42.564,-13.1251,-14.3126
13:39:42.574,-13.6876,-15.1251
13:39:42.584,-13.5626,-15.6876
13:39:42.595,-14.1876,-17.0001
13:39:42.610,-15.5001,-16.6876
13:39:42.615,-15.4376,-18.9376
13:39:42.625,-16.2501,-18.6876
13:39:42.635,-17.1876,-19.2501
13:39:42.646,-17.3751,-20.8126
13:39:42.655,-17.1251,-20.3751
13:39:42.664,-17.6251,-21.6251
13:39:42.675,-17.7501,-21.1251
13:39:42.685,-17.5626,-22.5001
13:39:42.694,-17.9376,-22.8126
13:39:42.705,-18.2501,-23.1876
13:39:42.714,-18.4376,-23.7501
13:39:42.724,-19.0001,-23.8751
13:39:42.734,-19.4376,-24.5626
13:39:42.744,-19.2501,-25.0626
13:39:42.766,-19.6251,-24.6251
13:39:42.771,-19.8126,-25.1876
13:39:42.778,-19.9376,-24.9376
13:39:42.786,-20.5001,-26.0626
13:39:42.802,-20.2501,-26.0001
13:39:42.808,-20.5626,-26.1876
13:39:42.817,-20.0626,-25.7501
13:39:42.830,-20.0626,-26.7501
13:39:42.834,-20.3751,-26.5001
13:39:42.845,-20.0626,-26.6251
13:39:42.854,-20.6876,-26.3126
13:39:42.864,-19.8751,-26.3126
13:39:42.874,-20.1251,-27.2501
13:39:42.884,-20.0626,-26.8751
13:39:42.895,-19.3126,-27.3751
13:39:42.905,-19.2501,-27.8751
13:39:42.917,-18.5626,-26.8751
13:39:42.926,-17.8126,-27.4376
13:39:42.937,-18.3751,-28.3751
13:39:42.945,-21.4376,-28.8126
13:39:42.966,-24.1876,-31.1251
13:39:42.969,-29.0626,-32.6251
13:39:43.004,-32.2501,-33.1876
13:39:43.006,-33.5001,-35.4376
13:39:43.008,-35.3126,-35.2501
13:39:43.011,-36.6251,-35.8126
13:39:43.018,-38.3751,-37.3126
13:39:43.043,-39.6252,-36.5626
13:39:43.044,-39.0001,-37.7501
13:39:43.047,-38.3751,-35.1251
13:39:43.055,-35.6251,-33.9376
13:39:43.094,-34.5001,-30.0001
13:39:43.096,-32.1251,-27.7501
13:39:43.099,-30.1876,-24.3751
13:39:43.101,-27.8751,-20.3126
13:39:43.106,-25.6876,-17.8751
13:39:43.138,-23.1251,-14.0001
13:39:43.141,-20.3126,-12.125
13:39:43.141,-17.8751,-10.375
13:39:43.151,-15.0626,-7.3125
13:39:43.154,-12,-5.4375
13:39:43.164,-8.9375,-3.8125
13:39:43.175,-6.4375,-1.1875
13:39:43.185,-3,1.3125
13:39:43.195,0.0625,3.375
13:39:43.207,3.75,6.375
13:39:43.214,6.1875,8.625
13:39:43.224,8.5,10.0625
13:39:43.234,8.8125,11.25
13:39:43.245,9.625,12.4375
13:39:43.254,9.5625,12.875
13:39:43.265,9.5,12.4375
13:39:43.275,9.25,12.5
13:39:43.284,8.25,12.6875
13:39:43.295,7.25,11.5625
13:39:43.305,6.1875,11.3125
13:39:43.315,4.3125,10
13:39:43.325,3.25,8.5
13:39:43.334,1.375,6.9375
13:39:43.344,0.5,7
13:39:43.354,0.375,5.25
13:39:43.364,-0.0625,3.1875
13:39:43.374,0.375,3.125
13:39:43.384,1.125,3.1875
13:39:43.395,1.875,2.8125
13:39:43.404,2.875,3.75
13:39:43.415,3.8125,3.8125
13:39:43.426,4.8125,2.5625
13:39:43.434,3.875,2.4375
13:39:43.444,3.1875,2.0625
13:39:43.454,3.5,0.875
13:39:43.464,1.8125,-1.1875
13:39:43.474,0.25,-1.5
13:39:43.484,-1.0625,-3.125
13:39:43.495,-1.4375,-4.8125
13:39:43.505,-3,-5
13:39:43.516,-3.375,-5.8125
13:39:43.527,-3.9375,-6.9375
13:39:43.534,-5.3125,-7.8125
13:39:43.544,-5.9375,-7.875
13:39:43.554,-5.5625,-9
13:39:43.577,-6.9375,-10.3125
13:39:43.579,-7.375,-9.875
13:39:43.594,-7.8125,-11.4375
13:39:43.598,-8,-12
13:39:43.606,-8.75,-12
13:39:43.614,-9.1875,-12.1875
13:39:43.624,-9.4375,-13.6251
13:39:43.635,-10.6875,-13.8751
13:39:43.645,-10.4375,-13.5626
13:39:43.654,-10.875,-14.7501
13:39:43.664,-11.3125,-14.8751
13:39:43.674,-11.375,-15.0001
13:39:43.689,-11.0625,-15.1876
13:39:43.714,-11.5625,-15.7501
13:39:43.717,-10.75,-15.7501
13:39:43.720,-11.3125,-15.6251
13:39:43.725,-11.0625,-15.6876
13:39:43.753,-10.375,-14.7501
13:39:43.755,-10.5,-15.6251
13:39:43.757,-10.5,-14.8126
13:39:43.786,-9.1875,-15.3751
13:39:43.788,-9.4375,-15.2501
13:39:43.790,-9.5,-15.3751
13:39:43.797,-9.875,-15.5001
13:39:43.826,-9.875,-16.4376
13:39:43.828,-9.5625,-15.8126
13:39:43.831,-9.75,-16.1876
13:39:43.835,-8.5,-15.9376
13:39:43.864,-9,-17.0626
13:39:43.867,-12.5625,-18.9376
13:39:43.871,-18.4376,-20.4376
13:39:43.875,-24.6251,-21.9376
13:39:43.887,-27.2501,-24.0001
13:39:43.900,-29.3751,-24.9376
13:39:43.904,-31.0626,-26.1876
13:39:43.914,-32.2501,-27.0001
13:39:43.925,-31.5626,-27.5001
13:39:43.934,-31.2501,-27.7501
13:39:43.945,-31.3751,-28.2501
13:39:43.954,-30.3126,-27.5001
13:39:43.965,-29.1251,-26.8751
13:39:43.975,-27.3751,-25.2501
13:39:43.988,-26.1876,-24.4376
13:39:43.994,-24.0626,-21.3126
13:39:44.004,-20.7501,-17.8126
13:39:44.015,-17.6876,-13.5626
13:39:44.024,-14.0001,-10
13:39:44.034,-11.4375,-6.625
13:39:44.044,-8.9375,-3.4375
13:39:44.054,-7.375,-0.75
13:39:44.066,-5.625,1.4375
13:39:44.077,3.5,6.9375
13:39:44.084,12.6875,8.4375
13:39:44.101,18.1251,11.4375
13:39:44.116,19.2501,11.9375
13:39:44.120,15.9376,11.875
13:39:44.124,16.1251,12.5
13:39:44.135,17.4376,14.3751
13:39:44.144,22.0626,16.1876
13:39:44.155,27.5626,18.6876
13:39:44.166,31.8126,21.3126
13:39:44.175,35.8126,22.0001
13:39:44.185,35.5626,22.8751
13:39:44.194,34.7501,20.8126
13:39:44.204,34.5626,21.8126
13:39:44.216,35.5626,21.0001
13:39:44.225,34.6251,21.2501
13:39:44.235,34.4376,19.1251
13:39:44.246,32.3751,16.6876
13:39:44.254,30.8751,14.7501
13:39:44.265,28.3126,13.3126
13:39:44.281,27.0626,11.1875
13:39:44.284,25.6876,9.4375
13:39:44.294,24.5626,8.3125
13:39:44.304,25.0626,8.3125
13:39:44.314,24.9376,6.9375
13:39:44.324,24.0001,6
13:39:44.335,23.1251,6.625
13:39:44.346,23.7501,5.9375
13:39:44.357,23.4376,4.9375
13:39:44.365,22.3126,3.9375
13:39:44.374,21.6876,3.625
13:39:44.384,21.5001,3.125
13:39:44.394,20.9376,2.3125
13:39:44.405,20.8751,0.875
13:39:44.416,19.7501,0.9375
13:39:44.426,18.6876,0.0625
13:39:44.435,18.4376,-0.9375
13:39:44.444,17.0626,-1.9375
13:39:44.476,16.5626,-2.6875
13:39:44.477,15.4376,-4.0625
13:39:44.480,14.5001,-4.875
13:39:44.486,13.3126,-4.5
13:39:44.512,13.3751,-6.375
13:39:44.515,12.4375,-7.5625
13:39:44.517,11.6875,-8
13:39:44.548,10.8125,-8.375
13:39:44.549,10.125,-9.5
13:39:44.554,9.8125,-11.125
13:39:44.556,9.3125,-11.4375
13:39:44.587,9.25,-11.9375
13:39:44.589,8.4375,-13.1251
13:39:44.593,7.5625,-14.1876
13:39:44.594,6.5,-14.6251
13:39:44.623,6.25,-15.5001
13:39:44.624,5.375,-16.1251
13:39:44.627,4.6875,-15.8751
13:39:44.635,4.625,-17.3751
13:39:44.644,3.6875,-18.1876
13:39:44.655,3.75,-17.7501
13:39:44.666,3.125,-19.3751
13:39:44.675,1.75,-20.4376
13:39:44.684,2,-20.5001
13:39:44.695,0.875,-21.8126
13:39:44.704,0.4375,-21.5626
13:39:44.715,0.125,-22.2501
13:39:44.726,-0.5,-23.5626
13:39:44.734,-1,-23.2501
13:39:44.744,-1.75,-24.6876
13:39:44.754,-2.125,-24.3126
13:39:44.764,-1.4375,-25.0626
13:39:44.776,-1.375,-25.8126
13:39:44.786,-2.25,-25.8126
13:39:44.794,-2,-25.8751
13:39:44.804,-3.25,-26.8751
13:39:44.814,-3.125,-26.6876
13:39:44.825,-3.5625,-28.4376
13:39:44.834,-5,-28.0626
13:39:44.845,-4.5,-28.3126
13:39:44.857,-4.875,-29.5001
13:39:44.873,-5.5,-29.1876
13:39:44.875,-5.1875,-28.6876
13:39:44.890,-4.625,-29.4376
13:39:44.895,-4.1875,-26.8751
13:39:44.906,-3.125,-26.0001
13:39:44.914,-1.0625,-21.9376
13:39:44.925,0,-19.6876
13:39:44.934,2.1875,-16.4376
13:39:44.945,3,-13.6876
13:39:44.955,4.5625,-10.4375
13:39:44.968,5.5,-8.3125
13:39:44.994,6.0625,-5.75
13:39:44.996,6.875,-5.25
13:39:44.998,7.0625,-3.75
13:39:45.004,8,-2.8125
13:39:45.015,8.0625,-1.8125
13:39:45.031,8.5625,-1.1875
13:39:45.034,9,-1.4375
13:39:45.044,8.9375,0.5
13:39:45.054,8.875,0.1875
13:39:45.064,8.875,0.125
13:39:45.075,9.125,1.4375
13:39:45.085,9.1875,0.9375
13:39:45.096,9.1875,2.4375
13:39:45.105,10,2.75
13:39:45.114,8.5625,2.75
13:39:45.124,8.9375,2.875
13:39:45.135,9,2.125
13:39:45.146,8.125,2.1875
13:39:45.157,7.6875,1.875
13:39:45.184,7.5625,0.5
13:39:45.186,6.6875,0.125
13:39:45.188,5.8125,0.3125
13:39:45.195,5.6875,-1.25
13:39:45.223,4.875,-2.1875
13:39:45.225,4.1875,-2.625
13:39:45.253,3.1875,-2.0625
13:39:45.255,3.6875,-3.5625
13:39:45.257,2.8125,-3.9375
13:39:45.260,3.4375,-3
13:39:45.288,3.3125,-4.0625
13:39:45.290,2.5,-4.75
13:39:45.293,2.125,-3.875
13:39:45.300,2.375,-4.625
13:39:45.327,1.875,-5.5
13:39:45.330,2.5625,-4.5625
13:39:45.333,2.125,-5.5
13:39:45.340,1.4375,-6.5
13:39:45.350,0.4375,-7.625
13:39:45.363,0.4375,-7.875
13:39:45.370,-0.375,-7.875
13:39:45.379,-0.5625,-8.8125
13:39:45.396,-1.4375,-10.75
13:39:45.414,-1.8125,-9.625
13:39:45.415,-1.125,-10.375
13:39:45.423,-2.375,-11.3125
13:39:45.429,-2.6875,-10.5625
13:39:45.440,-2.75,-12.125
13:39:45.450,-3.0625,-12.5
13:39:45.459,-3.25,-12.8125
13:39:45.469,-3.3125,-14.0001
13:39:45.479,-4.1875,-13.2501
13:39:45.490,-4.375,-14.3126
13:39:45.500,-4.625,-14.6251
13:39:45.510,-5,-14.8126
13:39:45.519,-4.875,-15.5001
13:39:45.529,-5.5625,-15.9376
13:39:45.540,-5.3125,-16.3751
13:39:45.550,-5.75,-17.6251
13:39:45.559,-5.3125,-17.1251
13:39:45.569,-6.0625,-18.0626
13:39:45.580,-6.5,-18.5626
13:39:45.589,-5.8125,-18.6251
13:39:45.599,-6.625,-18.9376
13:39:45.610,-6.1875,-20.0001
13:39:45.619,-7.875,-19.8751
13:39:45.629,-7.4375,-20.5626
13:39:45.639,-8.625,-20.3126
13:39:45.649,-7.0625,-20.0001
13:39:45.659,-7.9375,-20.5626
13:39:45.670,-7,-20.6251
13:39:45.680,-8.25,-20.6876
13:39:45.689,-8.0625,-21.4376
13:39:45.700,-8.5625,-21.0626
13:39:45.712,-8.4375,-21.3751
13:39:45.719,-8,-21.8751
13:39:45.729,-8.375,-22.0626
13:39:45.739,-8.625,-22.1876
13:39:45.750,-8,-22.3126
13:39:45.762,-8.4375,-22.5001
13:39:45.769,-7.5,-22.5626
13:39:45.782,-8.6875,-22.8751
13:39:45.789,-8.0625,-23.0626
13:39:45.801,-9.0625,-23.0001
13:39:45.812,-8.125,-23.5001
13:39:45.820,-8.5,-23.7501
13:39:45.829,-7.8125,-23.5001
13:39:45.839,-8.375,-23.4376
13:39:45.851,-7.5,-24.0626
13:39:45.860,-7.8125,-23.5626
13:39:45.870,-7.0625,-23.0001
13:39:45.879,-6.625,-21.7501
13:39:45.889,-4.5625,-19.0626
13:39:45.900,-2.75,-15.3126
13:39:45.911,0.0625,-11.5
13:39:45.944,1.9375,-7.6875
13:39:45.950,4.3125,-4.5625
13:39:45.950,5.1875,-1.625
13:39:45.951,6.9375,0.75
13:39:45.982,7.4375,2.875
13:39:45.983,8.4375,3.8125
13:39:45.986,9,4.125
13:39:45.990,8.875,6.6875
13:39:46.021,10,6.3125
13:39:46.026,9.8125,7.6875
13:39:46.026,9.6875,7.1875
13:39:46.034,9.75,8.6875
13:39:46.040,10.6875,8.0625
13:39:46.069,10.1875,8.5
13:39:46.072,10.8125,9.625
13:39:46.075,11.25,9.6875
13:39:46.081,11.375,10.9375
13:39:46.093,11.5,10.5625
13:39:46.102,11.9375,11.625
13:39:46.110,12.4375,11.875
13:39:46.119,11.625,11.25
13:39:46.130,10.75,12
13:39:46.139,11,10.6875
13:39:46.156,10.9375,9.1875
13:39:46.172,9.9375,9.0625
13:39:46.187,9,8.25
13:39:46.192,9.125,7.25
13:39:46.194,8.75,6.1875
13:39:46.203,8.125,5.3125
13:39:46.210,7.6875,6.5
13:39:46.220,7.8125,5.5625
13:39:46.229,7.5625,5.125
13:39:46.240,7,5.75
13:39:46.252,7.375,5.4375
13:39:46.274,7.3125,4.75
13:39:46.280,7.3125,4.4375
13:39:46.282,7.5625,4.1875
13:39:46.291,7.1875,3.9375
13:39:46.299,6.9375,3.4375
13:39:46.310,6.3125,2.6875
13:39:46.319,5.1875,2.5625
13:39:46.330,5.25,2.25
13:39:46.340,4.5625,1.3125
13:39:46.350,5.8125,0.75
13:39:46.359,4.5625,-0.8125
13:39:46.370,3.9375,-0.6875
13:39:46.382,4.25,-0.6875
13:39:46.390,3.5625,-2.1875
13:39:46.401,3.5625,-2.625
13:39:46.409,3.8125,-2.6875
13:39:46.420,3.375,-3.6875
13:39:46.430,2.9375,-3.4375
13:39:46.439,2.1875,-3.875
13:39:46.449,3.3125,-4.5625
13:39:46.460,2.625,-4.5625
13:39:46.469,2.5625,-4.375
13:39:46.479,2.625,-5.5
13:39:46.489,2.4375,-6.25
13:39:46.500,2.0625,-6.9375
13:39:46.509,1.9375,-5.8125
13:39:46.519,1.9375,-7.375
13:39:46.534,1.4375,-7.3125
13:39:46.540,1.4375,-8.375
13:39:46.550,1.75,-9.125
13:39:46.559,2.0625,-8.1875
13:39:46.570,2.125,-9.4375
13:39:46.579,1.3125,-9.0625
13:39:46.590,1.5,-9.4375
13:39:46.603,1.25,-9.5
13:39:46.609,1.3125,-10.25
13:39:46.622,0.8125,-11.0625
13:39:46.630,1.0625,-10.5
13:39:46.639,0.25,-11.3125
13:39:46.650,0.3125,-11.125
13:39:46.659,0.5,-12.1875
13:39:46.672,-0.0625,-12.3125
13:39:46.713,0.3125,-12.75
13:39:46.715,-0.1875,-12.375
13:39:46.717,-0.0625,-13.6876
13:39:46.721,-0.25,-14.1876
13:39:46.722,0.1875,-13.6876
13:39:46.751,0.0625,-14.6876
13:39:46.754,-0.5625,-14.9376
13:39:46.756,0,-14.3751
13:39:46.761,-0.25,-16.0001
13:39:46.797,-1.625,-16.8751
13:39:46.799,-1.6875,-16.7501
13:39:46.801,-3,-16.5626
13:39:46.806,-2.3125,-17.3126
13:39:46.821,-2.875,-18.3751
13:39:46.823,-3.5,-18.1876
13:39:46.851,-3.25,-18.7501
13:39:46.853,-4.5625,-18.8751
13:39:46.856,-4.5625,-18.4376
13:39:46.862,-4.875,-20.4376
13:39:46.869,-5.3125,-21.0626
13:39:46.881,-5,-20.6251
13:39:46.890,-5.8125,-22.0001
13:39:46.900,-5.4375,-21.3126
13:39:46.915,-5.375,-22.5001
13:39:46.920,-5.5,-21.7501
13:39:46.932,-5.625,-22.7501
13:39:46.939,-6.5,-23.0626
13:39:46.949,-6.5625,-23.2501
13:39:46.959,-7.125,-23.2501
13:39:46.971,-7.125,-23.9376
13:39:46.979,-7.5625,-23.6876
13:39:46.989,-6.0625,-23.2501
13:39:46.999,-6.3125,-22.3126
13:39:47.011,-4.5625,-20.6251
13:39:47.021,-3.4375,-18.2501
13:39:47.029,-0.625,-14.7501
13:39:47.039,0.5625,-11.1875
13:39:47.051,2.75,-6.375
13:39:47.059,4.75,-4.25
13:39:47.069,5.6875,-0.5
13:39:47.079,7.125,0.4375
13:39:47.090,6.625,2.6875
13:39:47.099,7.25,2.8125
13:39:47.109,7.625,3.25
13:39:47.120,7.375,3.6875
13:39:47.129,7.25,2.8125
13:39:47.142,7.5,4.25
13:39:47.150,6.8125,3.3125
13:39:47.159,6.8125,4.125
13:39:47.169,6.5625,3.5625
13:39:47.181,7.1875,4.3125
13:39:47.189,6.5625,4.0625
13:39:47.199,6.875,4.6875
13:39:47.210,7.1875,4.375
13:39:47.221,7.1875,5.3125
13:39:47.229,6.6875,5
13:39:47.240,5.6875,5.0625
13:39:47.249,5.4375,5.625
13:39:47.261,5.8125,3.9375
13:39:47.269,5,2.6875
13:39:47.280,5.0625,2.9375
13:39:47.289,4.5625,1.625
13:39:47.300,3.9375,0.875
13:39:47.310,3.1875,0.3125
13:39:47.319,3.5,0
13:39:47.329,3.125,-0.75
13:39:47.340,3.6875,-0.4375
13:39:47.351,3.875,-0.4375
13:39:47.360,3.875,-1.125
13:39:47.370,3.0625,-0.625
13:39:47.402,3.625,-1.125
13:39:47.404,3.125,-1.3125
13:39:47.407,3.4375,-1
13:39:47.433,2.9375,-0.5
13:39:47.435,2.5625,-2.5625
13:39:47.437,2.75,-3.375
13:39:47.442,2.5625,-2.25
13:39:47.471,2.9375,-3.625
13:39:47.473,2.3125,-3.9375
13:39:47.510,1.625,-3.625
13:39:47.512,1.875,-4.8125
13:39:47.514,1.8125,-5.5625
13:39:47.517,2.5,-5.0625
13:39:47.521,2.625,-5.5625
13:39:47.521,2.375,-5.625
13:39:47.555,3.25,-5.75
13:39:47.557,2.125,-6.5
13:39:47.560,1.75,-6.3125
13:39:47.562,2.125,-7.625
13:39:47.569,1.0625,-8.375
13:39:47.579,1.1875,-8.8125
13:39:47.591,1.0625,-9.625
13:39:47.600,1.625,-8.5
13:39:47.609,1.125,-9.5
13:39:47.620,0.25,-9.875
13:39:47.634,0.1875,-9.5
13:39:47.640,0.0625,-10.6875
13:39:47.649,0.625,-11.6875
13:39:47.664,0.8125,-10.625
13:39:47.670,0.75,-11.4375
13:39:47.680,-0.625,-11.875
13:39:47.690,-0.6875,-12.0625
13:39:47.700,-0.1875,-12.4375
13:39:47.710,-1.1875,-13.2501
13:39:47.719,-1.5625,-12.5
13:39:47.730,-1,-13.7501
13:39:47.740,-2.25,-14.7501
13:39:47.750,-2.9375,-14.1251
13:39:47.760,-3,-15.4376
13:39:47.770,-4,-16.3751
13:39:47.780,-3.75,-15.5001
13:39:47.790,-4.0625,-17.1876
13:39:47.800,-4.375,-16.8751
13:39:47.811,-4.375,-17.8751
13:39:47.819,-5.1875,-18.0001
13:39:47.829,-5.1875,-17.5001
13:39:47.839,-5.3125,-19.0001
13:39:47.851,-5.8125,-18.3126
13:39:47.859,-5.6875,-19.4376
13:39:47.869,-6.25,-19.9376
13:39:47.880,-6.25,-20.1251
13:39:47.892,-6.5,-21.2501
13:39:47.900,-6.3125,-20.1251
13:39:47.909,-6.1875,-21.2501
13:39:47.920,-6.125,-20.6251
13:39:47.930,-6.5625,-21.5626
13:39:47.939,-6.5,-20.6876
13:39:47.950,-6.25,-21.2501
13:39:47.962,-6.25,-21.1251
13:39:47.970,-5.875,-20.5626
13:39:47.992,-5.5,-22.0001
13:39:47.994,-6.25,-21.9376
13:39:48.011,-5.9375,-22.3751
13:39:48.013,-6.0625,-21.5626
13:39:48.020,-6.375,-22.6876
13:39:48.030,-6.625,-22.3126
13:39:48.039,-6.25,-23.5001
13:39:48.050,-6.25,-22.6876
13:39:48.060,-6.375,-24.4376
13:39:48.070,-6.0625,-22.5626
13:39:48.080,-5,-22.3751
13:39:48.089,-4.25,-20.5626
13:39:48.119,-2.4375,-18.4376
13:39:48.123,-0.0625,-14.6876
13:39:48.125,1.5625,-11.25
13:39:48.131,3.3125,-6.6875
13:39:48.158,5.0625,-3.8125
13:39:48.160,6.4375,0.4375
13:39:48.163,7.625,0.5
13:39:48.170,8,2.6875
13:39:48.198,9.0625,3.0625
13:39:48.200,8.5625,4.1875
13:39:48.202,8.9375,4.1875
13:39:48.236,8.5625,5.1875
13:39:48.236,9.125,4.25
13:39:48.239,8.6875,4.875
13:39:48.246,8.6875,4.75
13:39:48.272,8.1875,5.5
13:39:48.275,8.4375,5.25
13:39:48.276,8.5625,4.9375
13:39:48.284,8.8125,6.125
13:39:48.294,8.1875,4.75
13:39:48.306,8.25,5.9375
13:39:48.314,8.3125,5.25
13:39:48.324,8.125,6.125
13:39:48.334,7.9375,5.4375
13:39:48.347,7.75,4.4375
13:39:48.354,6.9375,4.6875
13:39:48.365,6.4375,4
13:39:48.375,6.5625,3.25
13:39:48.384,6.0625,1.5625
13:39:48.394,4.875,1.3125
13:39:48.404,5.3125,1.8125
13:39:48.420,5.625,0.5
13:39:48.425,4.3125,-0.375
13:39:48.434,3.8125,0
13:39:48.445,4.6875,0.0625
13:39:48.454,4,-0.8125
13:39:48.465,3.625,-1
13:39:48.474,3,-1
13:39:48.486,3.0625,-2.3125
13:39:48.494,2.5625,-3
13:39:48.505,2.75,-1.9375
13:39:48.514,3,-3.0625
13:39:48.524,2.375,-3.9375
13:39:48.536,2.25,-2.5625
13:39:48.544,3,-4.4375
13:39:48.556,2.25,-4.9375
13:39:48.564,2.625,-4.125
13:39:48.574,2.5625,-5.375
13:39:48.585,1.75,-6.4375
13:39:48.594,1.3125,-5.8125
13:39:48.605,1.625,-6.1875
13:39:48.615,1.3125,-7.5625
13:39:48.626,0.6875,-7.125
13:39:48.634,0.5625,-7.9375
13:39:48.644,0.3125,-8.875
13:39:48.657,-0.625,-7.625
13:39:48.666,0.1875,-9.875
13:39:48.674,-0.8125,-9.125
13:39:48.687,-0.625,-10.5625
13:39:48.695,-0.8125,-10.25
13:39:48.705,-0.9375,-11
13:39:48.715,-0.8125,-12.5
13:39:48.724,-0.8125,-11.5
13:39:48.735,-1.375,-12.25
13:39:48.744,-1.8125,-12.9375
13:39:48.767,-2,-11.8125
13:39:48.770,-2,-13.8126
13:39:48.784,-3.125,-13.5001
13:39:48.786,-3.75,-14.3126
13:39:48.796,-3.75,-14.3126
13:39:48.807,-3.5625,-15.3126
13:39:48.836,-3.8125,-15.8751
13:39:48.840,-4.4375,-15.9376
13:39:48.842,-4.625,-16.8751
13:39:48.846,-4.25,-16.8126
13:39:48.874,-4.3125,-17.3751
13:39:48.877,-4.75,-17.6251
13:39:48.879,-5.5625,-17.5001
13:39:48.886,-4.875,-18.4376
13:39:48.913,-5.25,-17.1876
13:39:48.916,-4.6875,-18.6251
13:39:48.918,-5.875,-17.9376
13:39:48.924,-6.25,-19.5001
13:39:48.952,-6.1875,-20.2501
13:39:48.954,-5.9375,-19.5626
13:39:48.957,-6.4375,-20.8126
13:39:48.986,-6.1875,-20.2501
13:39:48.988,-6.625,-20.8126
13:39:48.991,-7,-21.1876
13:39:48.996,-6.5625,-21.2501
13:39:49.007,-7,-20.9376
13:39:49.015,-6.875,-21.1876
13:39:49.024,-6.6875,-22.0626
13:39:49.036,-7.375,-21.1251
13:39:49.045,-6.625,-21.8126
13:39:49.054,-6.625,-22.3126
13:39:49.065,-7.375,-22.2501
13:39:49.074,-7.375,-23.2501
13:39:49.084,-7.375,-22.1251
13:39:49.095,-7.6875,-23.2501
13:39:49.107,-7.375,-23.0001
13:39:49.114,-7.75,-24.1876
13:39:49.125,-7.4375,-23.1876
13:39:49.135,-7.3125,-23.7501
13:39:49.145,-7.375,-22.2501
13:39:49.155,-5.3125,-20.4376
13:39:49.170,-3.75,-17.8126
13:39:49.174,-1.4375,-14.3751
13:39:49.185,0.375,-10.4375
13:39:49.194,2.375,-6.75
13:39:49.207,4.1875,-3.1875
13:39:49.240,5.75,-0.375
13:39:49.242,6.3125,1.25
13:39:49.244,6.9375,2.625
13:39:49.250,6.6875,3.5625
13:39:49.260,6.4375,4.375
13:39:49.269,6.75,4.3125
13:39:49.288,6.6875,4.625
13:39:49.294,6,4
13:39:49.309,5.625,5.1875
13:39:49.312,6.0625,3.9375
13:39:49.322,5.8125,5.5625
13:39:49.330,6.4375,4.75
13:39:49.339,6.125,5.875
13:39:49.351,6.5,5.3125
13:39:49.360,6.3125,6.125
13:39:49.370,6.75,5.875
13:39:49.381,5.5,6.0625
13:39:49.389,6.4375,6.625
13:39:49.400,7.0625,5.625
13:39:49.409,5.5,4.8125
13:39:49.423,5.125,4.0625
13:39:49.429,4.875,4.5
13:39:49.439,5.125,3.6875
13:39:49.451,4.6875,2.75
13:39:49.460,3.9375,2
13:39:49.469,3.875,2.5
13:39:49.480,4.75,1.375
13:39:49.490,4,0.8125
13:39:49.500,3.625,2.0625
13:39:49.509,3.875,1.0625
13:39:49.522,3.9375,0.8125
13:39:49.529,3.5625,0.625
13:39:49.544,3.25,1.3125
13:39:49.560,3.8125,0.875
13:39:49.563,4.125,0.1875
13:39:49.588,3.125,0.25
13:39:49.590,2.75,0.3125
13:39:49.594,3.1875,-1.125
13:39:49.601,2.4375,-0.5
13:39:49.628,3.125,-1.25
13:39:49.632,3.125,-1.9375
13:39:49.633,2.5625,-2.875
13:39:49.640,2.5,-3.0625
13:39:49.671,2.625,-2.875
13:39:49.674,2.25,-3.6875
13:39:49.675,1.4375,-4.375
13:39:49.703,0.9375,-4.0625
13:39:49.705,1.5625,-4.6875
13:39:49.707,1.0625,-5.5
13:39:49.713,0.9375,-6.5625
13:39:49.734,-0.0625,-5.0625
13:39:49.737,0.1875,-6.5625
13:39:49.742,0.5625,-7.1875
13:39:49.749,-0.125,-7.9375
13:39:49.759,-0.4375,-7.4375
13:39:49.770,-0.1875,-8.625
13:39:49.780,-0.875,-9.3125
13:39:49.789,-1.1875,-8.8125
13:39:49.801,-1.3125,-10.3125
13:39:49.810,-1.625,-9.5
13:39:49.820,-1.625,-10.4375
13:39:49.830,-2.5,-11.875
13:39:49.840,-2.8125,-10.625
13:39:49.849,-2.625,-11.9375
13:39:49.861,-3.1875,-11.6875
13:39:49.870,-3.875,-12
13:39:49.879,-4.625,-13.3751
13:39:49.890,-4.375,-13.3751
13:39:49.900,-4.1875,-14.3751
13:39:49.909,-4.3125,-14.5001
13:39:49.919,-4,-14.4376
13:39:49.930,-4.5625,-14.3126
13:39:49.940,-3.75,-14.4376
13:39:49.950,-4.125,-14.8751
13:39:49.961,-4.75,-14.8751
13:39:49.969,-4.25,-16.0626
13:39:49.979,-4.75,-15.6251
13:39:49.990,-4.4375,-15.9376
13:39:49.999,-4.4375,-15.9376
13:39:50.009,-4.1875,-16.1251
13:39:50.019,-4.6875,-15.5626
13:39:50.029,-4.5,-16.6251
13:39:50.040,-5.6875,-16.4376
13:39:50.050,-4.625,-17.7501
13:39:50.066,-5.5625,-16.8751
13:39:50.084,-5.5625,-18.1251
13:39:50.084,-6.5,-18.5626
13:39:50.119,-6.5625,-19.6876
13:39:50.119,-7.3125,-19.0626
13:39:50.122,-6.6875,-19.8126
13:39:50.122,-7.5625,-19.6251
13:39:50.132,-7,-21.0001
13:39:50.140,-8.1875,-19.7501
13:39:50.149,-7.625,-21.1251
13:39:50.159,-8.75,-21.0001
13:39:50.169,-8.625,-22.3751
13:39:50.180,-9.375,-21.6251
13:39:50.192,-9.5,-23.2501
13:39:50.199,-10.25,-22.8126
13:39:50.210,-9.75,-23.3751
13:39:50.220,-9.6875,-24.0626
13:39:50.230,-9.3125,-22.8751
13:39:50.240,-8,-21.4376
13:39:50.250,-5.875,-19.2501
13:39:50.260,-4.125,-14.6251
13:39:50.270,-0.5625,-10.9375
13:39:50.280,3.6875,-5.625
13:39:50.294,5.375,-1.5
13:39:50.300,7.8125,1.5625
13:39:50.311,8.6875,4.125
13:39:50.320,9.875,6.5625
13:39:50.341,10.625,7
13:39:50.343,10.1875,8.9375
13:39:50.374,11.125,8.4375
13:39:50.374,10.5,10.1875
13:39:50.376,11.5625,9.0625
13:39:50.391,10.6875,10.4375
13:39:50.393,11.1875,10.375
13:39:50.421,12,10
13:39:50.425,12,11.4375
13:39:50.426,12.3125,11.25
13:39:50.431,11.875,11.625
13:39:50.458,12.625,11.9375
13:39:50.461,12.75,11.9375
13:39:50.465,12.5,12.5625
13:39:50.489,12.375,13.3751
13:39:50.492,13.2501,12.875
13:39:50.496,12.75,12.375
13:39:50.500,12.3125,11.625
13:39:50.513,11.6875,12.5625
13:39:50.519,11.8125,10.8125
13:39:50.530,10.3125,9.3125
13:39:50.539,9.875,8.3125
13:39:50.550,9.625,9.4375
13:39:50.560,10.625,8.5625
13:39:50.570,9.75,7.9375
13:39:50.580,9.625,7.25
13:39:50.590,9.3125,8.1875
13:39:50.604,9.9375,8.0625
13:39:50.614,10.0625,7.6875
13:39:50.620,9.125,7.375
13:39:50.634,9.125,7.5
13:39:50.644,8.9375,6.1875
13:39:50.650,8.4375,6.4375
13:39:50.660,8.8125,6.4375
13:39:50.670,7.9375,6
13:39:50.680,7.8125,6.6875
13:39:50.690,7.9375,4.9375
13:39:50.699,8.125,5
13:39:50.710,7.25,4.3125
13:39:50.720,6.875,5.0625
13:39:50.730,7.3125,3.1875
13:39:50.741,6.75,2.5625
13:39:50.750,6.5625,2.3125
13:39:50.759,6.4375,2.25
13:39:50.769,6.1875,1.875
13:39:50.779,6.75,1.5
13:39:50.790,6.1875,0.9375
13:39:50.799,5.9375,-0.0625
13:39:50.810,5.625,0.4375
13:39:50.820,6.625,0.125
13:39:50.830,5.5625,-0.5625
13:39:50.839,5.3125,-1.1875
13:39:50.850,5.375,-0.6875
13:39:50.859,4.9375,-1.3125
13:39:50.871,4.625,-2.25
13:39:50.880,4.25,-3.0625
13:39:50.889,3.8125,-2.75
13:39:50.900,4.375,-2.875
13:39:50.910,3.75,-3.375
13:39:50.920,3.5,-4.3125
13:39:50.931,3.1875,-3.4375
13:39:50.939,4,-4.375
13:39:50.950,3,-5.4375
13:39:50.960,2.375,-4.75
13:39:50.969,2.125,-6.1875
13:39:50.980,2.375,-6.4375
13:39:50.990,1.9375,-6.75
13:39:50.999,1.875,-6.8125
13:39:51.010,1.75,-7.875
13:39:51.021,0.8125,-7
13:39:51.030,0.5625,-8.4375
13:39:51.040,0.4375,-9.1875
13:39:51.074,0.25,-9
13:39:51.076,1.4375,-8.8125
13:39:51.081,0.5625,-9.8125
13:39:51.082,-0.0625,-8.8125
13:39:51.115,-0.0625,-10.1875
13:39:51.117,-0.375,-11.0625
13:39:51.119,-0.125,-10
13:39:51.122,-0.3125,-11.625
13:39:51.154,-0.4375,-11.625
13:39:51.157,-0.125,-11.625
13:39:51.159,-0.125,-11.6875
13:39:51.184,-0.8125,-10.5625
13:39:51.185,-0.875,-12.0625
13:39:51.187,-0.8125,-13.0625
13:39:51.192,-1.125,-12.1875
13:39:51.223,-1.125,-13.1876
13:39:51.225,-1.5,-12.6875
13:39:51.228,-2.375,-14.0626
13:39:51.230,-1.8125,-14.2501
13:39:51.244,-2,-14.9376
13:39:51.250,-2.0625,-14.7501
13:39:51.260,-2.0625,-15.4376
13:39:51.270,-2.1875,-14.4376
13:39:51.279,-2.25,-15.4376
13:39:51.291,-2.375,-15.7501
13:39:51.299,-2.3125,-15.8751
13:39:51.309,-3.1875,-16.2501
13:39:51.323,-2.875,-16.2501
13:39:51.330,-3,-16.5626
13:39:51.339,-3,-17.0001
13:39:51.350,-2.375,-16.4376
13:39:51.359,-1.5625,-16.0626
13:39:51.409,-1.0625,-14.9376
13:39:51.410,0.1875,-12.25
13:39:51.426,2.625,-8.875
13:39:51.443,4.125,-4.1875
13:39:51.444,6.875,-0.5625
13:39:51.444,8.8125,4.25
13:39:51.444,11,6.25
13:39:51.445,12.25,10.0625
13:39:51.457,13.1251,11.5625
13:39:51.464,13.3126,14.1251
13:39:51.476,13.7501,13.6876
13:39:51.485,13.7501,14.6876
13:39:51.494,13.9376,14.4376
13:39:51.508,13.5001,16.1251
13:39:51.514,13.5626,15.3751
13:39:51.525,13.1251,15.0001
13:39:51.534,13.5626,16.1251
13:39:51.544,12.875,15.0626
13:39:51.555,13.2501,15.8751
13:39:51.564,13.4376,16.3751
13:39:51.575,13.3751,16.8751
13:39:51.584,13.3126,16.5626
13:39:51.594,13.7501,17.2501
13:39:51.605,13.8126,19.1876
13:39:51.621,14.6876,17.3126
13:39:51.625,12.9375,17.2501
13:39:51.635,12.75,16.6876
13:39:51.646,12.4375,15.8751
13:39:51.655,11.625,14.4376
13:39:51.665,11.1875,15.1251
13:39:51.676,10.9375,14.2501
13:39:51.685,11.1875,13.6251
13:39:51.694,11,13.6876
13:39:51.707,10.8125,14.0001
13:39:51.715,12.1875,13.6251
13:39:51.724,11.25,13.5001
13:39:51.735,11.75,14.0626
13:39:51.744,12.5,13.8751
13:39:51.755,11.8125,13.4376
13:39:51.765,11.4375,14.6251
13:39:51.775,12,13.2501
13:39:51.784,11.3125,12.875
13:39:51.795,10.875,12.8125
13:39:51.830,11,13.1251
13:39:51.832,11,12
13:39:51.834,10.3125,10.8125
13:39:51.836,10.3125,11.3125
13:39:51.867,10.0625,10.25
13:39:51.868,10.1875,10.1875
13:39:51.871,9.5,10.4375
13:39:51.876,9.5,9.375
13:39:51.902,9.3125,8.5625
13:39:51.907,8.9375,7.75
13:39:51.933,8.5,8.5625
13:39:51.935,9.4375,7.1875
13:39:51.951,8.25,6.875
13:39:51.954,8.1875,6.5625
13:39:52.000,7.875,7.375
13:39:52.000,8.8125,6.0625
13:39:52.002,9,5.375
13:39:52.007,7.875,4.6875
13:39:52.009,7.375,3.4375
13:39:52.009,7.25,3.625
13:39:52.015,6.6875,2.6875
13:39:52.026,4.9375,0.375
13:39:52.035,3.75,0.8125
13:39:52.044,3.625,-0.5625
13:39:52.055,3.5625,-2.0625
13:39:52.064,3.3125,-1.125
13:39:52.075,3.125,-2.6875
13:39:52.085,2.4375,-3.8125
13:39:52.095,1.6875,-3.0625
13:39:52.105,2,-3.6875
13:39:52.115,2.25,-4.75
13:39:52.124,1.625,-5.75
13:39:52.136,1.125,-6.25
13:39:52.144,0.9375,-7
13:39:52.155,1.4375,-6.875
13:39:52.167,1.25,-7.5625
13:39:52.175,0.1875,-6.6875
13:39:52.184,0.5,-7.625
13:39:52.197,0.25,-8.875
13:39:52.204,-0.25,-9.125
13:39:52.215,-0.4375,-9.375
13:39:52.225,-0.3125,-9.9375
13:39:52.235,-1.125,-9.5
13:39:52.245,-0.5,-10.75
13:39:52.254,-1.875,-10.6875
13:39:52.264,-1.375,-11.625
13:39:52.276,-1.6875,-11.875
13:39:52.285,-1.125,-11.6875
13:39:52.294,-1.1875,-12.75
13:39:52.305,-1.125,-11.875
13:39:52.314,-0.1875,-12.375
13:39:52.325,-1.5625,-13.1251
13:39:52.335,-2.1875,-12.75
13:39:52.344,-1.5625,-14.1251
13:39:52.357,-2.0625,-14.0626
13:39:52.364,-2.3125,-14.5626
13:39:52.374,-3.25,-14.7501
13:39:52.384,-2.625,-15.0001
13:39:52.401,-3.125,-14.5001
13:39:52.406,-1.875,-14.2501
13:39:52.415,-0.9375,-11.8125
13:39:52.424,1.1875,-9
13:39:52.436,3,-6.25
13:39:52.446,5.375,-2
13:39:52.455,7,1.375
13:39:52.464,9.0625,5.1875
13:39:52.474,10,7.4375
13:39:52.487,11.1875,10.0625
13:39:52.520,11.625,10.5625
13:39:52.522,12.1875,12.3125
13:39:52.524,12.375,12.0625
13:39:52.527,11.8125,12.0625
13:39:52.535,11.25,13.0625
13:39:52.566,11,12
13:39:52.568,10.875,12.0625
13:39:52.571,10.75,12.625
13:39:52.576,9.875,11.5625
13:39:52.603,10,12.3125
13:39:52.607,9.5,11.25
13:39:52.607,8.75,12
13:39:52.636,8.1875,12.4375
13:39:52.640,8.5625,11.1875
13:39:52.641,8,10.5
13:39:52.647,7,11.25
13:39:52.674,7.25,10.3125
13:39:52.675,6.5,9.125
13:39:52.678,5.6875,7.5
13:39:52.685,5.0625,8.5
13:39:52.695,5.125,7.5
13:39:52.713,4.4375,6.6875
13:39:52.730,3.1875,5.3125
13:39:52.730,2.375,5.5
13:39:52.738,1.3125,6.125
13:39:52.745,1.625,4.5625
13:39:52.755,1.3125,3.875
13:39:52.764,1,4.3125
13:39:52.776,1.25,4.25
13:39:52.788,0.375,3.75
13:39:52.795,0.0625,3.9375
13:39:52.805,0.375,3.0625
13:39:52.814,-0.125,2.5625
13:39:52.825,-0.5,2
13:39:52.836,-1.3125,2.875
13:39:52.845,-0.5625,2
13:39:52.855,-1.625,0.0625
13:39:52.868,-2,-0.5625
13:39:52.875,-2.6875,-0.4375
13:39:52.885,-3.4375,-1.1875
13:39:52.895,-3.8125,-1.75
13:39:52.905,-3.5,-2.8125
13:39:52.917,-4.4375,-3.8125
13:39:52.925,-4.6875,-3.5625
13:39:52.935,-5.4375,-4
13:39:52.945,-4.9375,-4.8125
13:39:52.955,-5.6875,-5.8125
13:39:52.966,-6.1875,-6.6875
13:39:52.975,-6.875,-6.4375
13:39:52.984,-6.75,-8.25
13:39:52.995,-7.4375,-7.1875
13:39:53.005,-6.9375,-8.5
13:39:53.015,-7.6875,-9.3125
13:39:53.025,-7.375,-9.1875
13:39:53.034,-8.375,-9.9375
13:39:53.047,-8.3125,-10.375
13:39:53.055,-8.5625,-10.375
13:39:53.069,-9.125,-10.75
13:39:53.075,-9.375,-11.1875
13:39:53.085,-9,-12.125
13:39:53.095,-9.375,-11.5625
13:39:53.104,-9.125,-12.1875
13:39:53.115,-9.25,-11.6875
13:39:53.125,-9.5625,-13.1251
13:39:53.135,-9.9375,-12.625
13:39:53.144,-9.75,-13.4376
13:39:53.158,-9.5625,-13.5001
13:39:53.165,-9.5,-14.8751
13:39:53.176,-10.875,-13.3126
13:39:53.184,-10.3125,-14.9376
13:39:53.195,-10.75,-14.1876
13:39:53.207,-10.3125,-14.3126
13:39:53.215,-10.375,-12.9375
13:39:53.224,-9.6875,-11.9375
13:39:53.257,-10.5,-8.5
13:39:53.361,-10.125,-6.75
13:39:53.361,-12.75,-3.875
13:39:53.364,-14.9376,-2.75
13:39:53.364,-17.6876,0.375
13:39:53.364,-19.7501,1.125
13:39:53.389,-21.6876,1.75
13:39:53.391,-25.6251,2.3125
13:39:53.392,-28.3751,2.75
13:39:53.417,-29.6251,2.3125
13:39:53.419,-32.0626,3.5
13:39:53.422,-34.2501,2.25
13:39:53.433,-37.2501,3.3125
13:39:53.440,-39.8752,2.3125
13:39:53.450,-45.1877,1.375
13:39:53.459,-48.6877,0.0625
13:39:53.471,-56.6877,1.4375
13:39:53.479,-57.9377,2.125
13:39:53.490,-55.6877,4.0625
13:39:53.499,-53.5002,5.375
13:39:53.510,-53.6252,5.3125
13:39:53.519,-53.1877,5.875
13:39:53.535,-36.1876,20.7501
13:39:53.540,-35.0001,20.5001
13:39:53.550,-33.3126,20.7501
13:39:53.559,-31.8751,22.1251
13:39:53.570,-29.2501,23.0626
13:39:53.579,-28.6876,21.8126
13:39:53.590,-28.3126,24.0001
13:39:53.600,-27.1251,23.0001
13:39:53.609,-27.0001,23.0001
13:39:53.620,-27.0626,22.6251
13:39:53.630,-27.0001,21.3126
13:39:53.639,-27.3751,22.0001
13:39:53.650,-26.1251,21.5001
13:39:53.660,-26.5626,21.6251
13:39:53.670,-25.3126,21.0001
13:39:53.679,-26.3126,20.2501
13:39:53.689,-26.5001,20.1251
13:39:53.701,-25.9376,18.9376
13:39:53.709,-25.9376,18.1251
13:39:53.720,-25.1251,19.0626
13:39:53.730,-23.8751,18.0001
13:39:53.739,-23.1876,17.9376
13:39:53.749,-22.0626,18.9376
13:39:53.760,-20.5001,17.8126
13:39:53.770,-20.0001,17.8751
13:39:53.780,-18.5001,18.5626
13:39:53.789,-16.6876,17.4376
13:39:53.799,-15.3751,18.3751
13:39:53.809,-11.8125,19.7501
13:39:53.820,-10.125,19.5001
13:39:53.830,-9.5,21.3751
13:39:53.839,-9.125,19.1876
13:39:53.850,-9.6875,17.6876
13:39:53.860,-9.9375,17.5626
13:39:53.870,-11.125,15.4376
13:39:53.879,-14.1876,13.2501
13:39:53.889,-18.1876,10.0625
13:39:53.899,-25.9376,4.375
13:39:53.909,-30.6876,0.875
13:39:53.920,-32.0001,-1.8125
13:39:53.929,-32.6251,-2.75
13:39:53.955,-31.1251,-2
13:39:53.957,-30.2501,-3.625
13:39:53.961,-32.0626,-4.875
13:39:53.970,-33.3126,-7.5625
13:39:53.980,-36.3126,-10.375
13:39:53.999,-38.1876,-11.6875
13:39:54.006,-40.1877,-15.0626
13:39:54.040,-41.8127,-17.2501
13:39:54.043,-44.5627,-19.5001
13:39:54.078,-47.1252,-23.1876
13:39:54.078,-50.5002,-25.8751
13:39:54.078,-52.6252,-29.1251
13:39:54.107,-57.6252,-32.7501
13:39:54.138,-62.6877,-36.4376
13:39:54.138,-64.6877,-40.2502
13:39:54.138,-65.3128,-42.0002
13:39:54.139,-63.7502,-42.1877
13:39:54.142,-63.3127,-43.8752
13:39:54.147,-62.0002,-43.3752
13:39:54.147,-59.5627,-42.9377
13:39:54.154,-54.5627,-39.2502
13:39:54.173,-48.5002,-36.1876
13:39:54.179,-41.7502,-30.9376
13:39:54.186,-34.6251,-25.8126
13:39:54.195,-28.5626,-21.8751
13:39:54.204,-24.2501,-17.6251
13:39:54.214,-20.9376,-16.7501
13:39:54.225,-18.6251,-14.9376
13:39:54.234,-16.2501,-12.875
13:39:54.246,-13.4376,-11.3125
13:39:54.255,-11.3125,-9.8125
13:39:54.264,-9.5,-8.625
13:39:54.275,-0.0625,-4.5625
13:39:54.288,1.0625,-2.8125
13:39:54.294,-1.875,-4.4375
13:39:54.305,-5.75,-6.1875
13:39:54.315,-11.625,-9.0625
13:39:54.324,-15.2501,-11.5625
13:39:54.334,-18.6251,-11.75
13:39:54.345,-20.3751,-9.625
13:39:54.355,-19.8751,-8.4375
13:39:54.365,-19.8126,-6.5
13:39:54.375,-20.0626,-6.125
13:39:54.384,-20.8126,-4.5625
13:39:54.395,-21.8126,-5.3125
13:39:54.405,-24.1251,-5.25
13:39:54.415,-27.0626,-7.75
13:39:54.425,-31.0001,-9.5
13:39:54.434,-34.3751,-13.125
13:39:54.445,-37.0626,-13.9376
13:39:54.455,-40.0002,-15.5001
13:39:54.465,-44.0002,-19.0626
13:39:54.474,-47.5627,-21.0001
13:39:54.485,-49.6877,-22.8126
13:39:54.494,-50.3752,-23.1876
13:39:54.504,-48.0627,-21.1251
13:39:54.517,-44.0002,-18.6251
13:39:54.524,-38.8126,-14.4376
13:39:54.534,-32.1876,-9.1875
13:39:54.545,-24.9376,-2.8125
13:39:54.554,-18.4376,2.0625
13:39:54.566,-11.8125,7.5625
13:39:54.575,-5.75,12.375
13:39:54.587,0.1875,16.7501
13:39:54.595,4.1875,20.0001
13:39:54.604,7.875,22.8751
13:39:54.617,9.25,24.0001
13:39:54.633,10.8125,26.1251
13:39:54.640,12.6875,26.7501
13:39:54.649,13.7501,27.4376
13:39:54.655,15.0626,28.5626
13:39:54.671,16.2501,29.0001
13:39:54.677,17.5001,29.4376
13:39:54.687,19.1251,29.8751
13:39:54.695,19.4376,29.8751
13:39:54.706,18.0001,29.0001
13:39:54.714,14.9376,27.3751
13:39:54.725,11.375,24.6876
13:39:54.757,6.5625,21.4376
13:39:54.759,0.3125,18.1251
13:39:54.762,-5.8125,12.125
13:39:54.764,-9.9375,9.5
13:39:54.797,-11.8125,8.375
13:39:54.800,-12.375,6.625
13:39:54.800,-14.4376,4.6875
13:39:54.806,-17.4376,1.375
13:39:54.837,-20.0001,-0.5625
13:39:54.839,-22.1876,-3.1875
13:39:54.842,-25.8751,-6.375
13:39:54.874,-28.0001,-9.375
13:39:54.874,-29.1251,-10.25
13:39:54.877,-30.4376,-13
13:39:54.882,-31.4376,-14.9376
13:39:54.886,-33.9376,-17.6876
13:39:54.905,-36.2501,-18.1876
13:39:54.907,-38.5001,-20.9376
13:39:54.916,-39.3126,-22.5001
13:39:54.924,-40.3127,-22.1251
13:39:54.934,-40.1877,-24.6251
13:39:54.945,-39.4377,-24.2501
13:39:54.955,-36.7501,-21.8751
13:39:54.964,-31.7501,-19.3751
13:39:54.974,-27.3126,-16.0001
13:39:54.986,-20.5626,-11.5625
13:39:54.995,-13.9376,-6.5
13:39:55.005,-7.5,-1.5
13:39:55.015,-1.9375,1.875
13:39:55.024,2.625,7.125
13:39:55.039,7.875,9.5
13:39:55.044,12.375,12.6875
13:39:55.057,17.0626,16.6251
13:39:55.065,20.7501,18.8751
13:39:55.075,24.7501,21.5626
13:39:55.085,28.3751,24.2501
13:39:55.094,31.4376,26.8126
13:39:55.107,33.6251,28.1876
13:39:55.115,34.6251,28.2501
13:39:55.125,34.7501,28.0626
13:39:55.135,34.0626,28.3126
13:39:55.145,31.6251,25.6876
13:39:55.155,26.1876,22.8126
13:39:55.165,20.5626,20.0001
13:39:55.176,16.8126,16.8126
13:39:55.185,13.8751,14.3126
13:39:55.195,10.8125,12.5625
13:39:55.205,9.0625,10.5625
13:39:55.235,6.8125,7.5625
13:39:55.237,3.5625,4.5
13:39:55.240,0.6875,2.3125
13:39:55.244,-1.5625,-1.375
13:39:55.254,-6.25,-5.1875
13:39:55.265,-10.4375,-9.0625
13:39:55.275,-14.2501,-12.3125
13:39:55.285,-17.4376,-16.2501
13:39:55.294,-20.9376,-19.6876
13:39:55.305,-23.8751,-22.3751
13:39:55.316,-26.0626,-23.5626
13:39:55.327,-26.5001,-24.6251
13:39:55.334,-26.5626,-25.3126
13:39:55.345,-24.9376,-24.5001
13:39:55.355,-21.8751,-22.1251
13:39:55.364,-17.4376,-18.6251
13:39:55.398,-11.8125,-16.0001
13:39:55.433,-7.875,-13.8126
13:39:55.469,-4.375,-10.625
13:39:55.477,-0.3125,-8.625
13:39:55.477,3.125,-5.8125
13:39:55.482,7,-2.0625
13:39:55.482,10.3125,-1
13:39:55.482,14.3751,4.4375
13:39:55.513,17.5626,6.875
13:39:55.515,21.3751,12.6875
13:39:55.517,26.1251,16.8126
13:39:55.519,30.3126,22.7501
13:39:55.547,34.8126,27.9376
13:39:55.551,38.6251,31.6251
13:39:55.552,41.1877,35.8126
13:39:55.568,40.8127,37.0626
13:39:55.570,39.6252,37.6876
13:39:55.580,36.2501,36.9376
13:39:55.589,32.3126,35.9376
13:39:55.600,30.1251,34.5001
13:39:55.610,27.6876,33.1876
13:39:55.620,25.9376,32.6251
13:39:55.630,23.6876,31.6251
13:39:55.639,21.0626,30.1251
13:39:55.649,6,18.7501
13:39:55.660,2.4375,16.5626
13:39:55.671,-0.9375,13.7501
13:39:55.679,-4.625,10.125
13:39:55.690,-9.75,5.5625
13:39:55.700,-15.1251,1.8125
13:39:55.710,-19.1876,-1.0625
13:39:55.719,-20.9376,-4
13:39:55.729,-21.1876,-5.1875
13:39:55.742,-21.6251,-5.3125
13:39:55.749,-20.0626,-4.4375
13:39:55.759,-17.6251,-3.9375
13:39:55.769,-14.4376,-2.3125
13:39:55.779,-9.5,1.8125
13:39:55.790,-4,6
13:39:55.800,1.375,9.1875
13:39:55.812,5.25,12.5625
13:39:55.820,9,15.5626
13:39:55.830,13.6876,19.5626
13:39:55.840,18.2501,22.3126
13:39:55.849,20.6251,25.2501
13:39:55.859,24.1876,27.3751
13:39:55.869,26.7501,28.6876
13:39:55.882,27.8126,31.4376
13:39:55.889,29.1876,30.8126
13:39:55.899,29.8751,32.5626
13:39:55.910,31.9376,32.2501
13:39:55.919,32.6876,33.5626
13:39:55.929,32.9376,32.6251
13:39:55.945,33.2501,34.1251
13:39:55.951,34.1876,32.3126
13:39:55.969,33.1251,32.6251
13:39:55.976,31.1876,29.8126
13:39:55.986,26.7501,26.1876
13:39:55.989,21.8751,22.8126
13:39:56.007,16.7501,21.0626
13:39:56.014,12.6875,17.1251
13:39:56.021,8.625,13.7501
13:39:56.030,5.625,11
13:39:56.039,2.25,8.6875
13:39:56.050,0.0625,6.125
13:39:56.059,-2.375,2.6875
13:39:56.071,-5,-0.4375
13:39:56.079,-7.8125,-2.6875
13:39:56.090,-10.5,-5.125
13:39:56.100,-13.3126,-9.0625
13:39:56.111,-17.1251,-12.8125
13:39:56.120,-20.4376,-16.2501
13:39:56.138,-22.1876,-17.5001
13:39:56.140,-24.6251,-19.2501
13:39:56.168,-26.6876,-22.5001
13:39:56.171,-29.3751,-25.1251
13:39:56.173,-32.5001,-27.6251
13:39:56.181,-35.1251,-28.8126
13:39:56.210,-35.4376,-30.1876
13:39:56.212,-33.8126,-30.6251
13:39:56.214,-31.0626,-29.1251
13:39:56.222,-27.2501,-25.9376
13:39:56.254,-21.4376,-22.8126
13:39:56.257,-14.8126,-18.5001
13:39:56.260,-7.6875,-12.5625
13:39:56.262,-2.6875,-9.6875
13:39:56.292,1.5625,-5.8125
13:39:56.295,3.5625,-5.1875
13:39:56.297,6.1875,-2.0625
13:39:56.302,7.1875,-2
13:39:56.321,8.875,-0.0625
13:39:56.323,10.625,0.875
13:39:56.330,11.6875,1.1875
13:39:56.340,12.5,2.1875
13:39:56.352,12.625,2.5
13:39:56.360,13.9376,3.75
13:39:56.371,15.2501,3
13:39:56.379,17.0001,4.125
13:39:56.389,19.6876,5.4375
13:39:56.400,19.9376,4.75
